,,,,,,,,,,,
2019-09-04 23:50:10,,,,,,,,,,,
,,,,,,,,,,,
I,II,III,aVR,aVL,aVF,V1,V2,V3,V4,V5,V6
-43,-74,-32,58,-6,-53,-19,-135,-93,-47,58,-74
-43,-74,-32,58,-6,-53,-25,-135,-93,-52,58,-80
-32,-74,-44,52,6,-59,-25,-129,-93,-47,58,-74
-32,-74,-44,52,6,-59,-31,-129,-93,-52,58,-74
-38,-74,-38,58,0,-53,-25,-123,-93,-52,63,-74
-38,-80,-44,58,0,-59,-31,-123,-93,-52,63,-74
-38,-74,-38,58,0,-53,-31,-123,-93,-47,63,-74
-38,-74,-38,58,0,-53,-37,-123,-93,-41,63,-74
-43,-80,-38,58,-6,-59,-43,-129,-93,-47,58,-80
-43,-80,-38,58,-6,-59,-49,-135,-87,-47,47,-86
-43,-74,-32,58,-6,-53,-49,-135,-81,-41,41,-80
-38,-68,-32,52,-6,-47,-49,-129,-81,-41,47,-80
-32,-68,-38,46,0,-53,-49,-123,-81,-41,41,-86
-38,-74,-38,58,0,-53,-55,-129,-81,-47,41,-86
-43,-80,-38,58,-6,-59,-61,-129,-93,-47,41,-92
-60,-92,-32,70,-18,-65,-67,-129,-93,-52,41,-98
-54,-98,-44,76,-6,-71,-67,-129,-99,-57,35,-98
-48,-92,-44,64,-6,-71,-67,-129,-93,-57,29,-92
-48,-86,-38,64,-6,-65,-73,-141,-93,-57,29,-92
-48,-92,-44,64,-6,-71,-73,-141,-99,-63,11,-92
-54,-98,-44,76,-6,-71,-73,-147,-99,-69,5,-92
-60,-110,-50,82,-6,-83,-79,-147,-105,-63,5,-92
-60,-110,-50,82,-6,-83,-73,-147,-99,-63,-7,-92
-54,-104,-50,76,-6,-77,-73,-147,-99,-57,-13,-86
-60,-110,-50,82,-6,-83,-79,-147,-105,-57,-19,-92
-66,-110,-44,88,-12,-77,-79,-147,-105,-52,-19,-92
-66,-110,-44,88,-12,-77,-85,-141,-111,-52,-25,-98
-66,-104,-38,82,-18,-71,-79,-141,-111,-41,-31,-92
-66,-98,-32,82,-18,-65,-79,-141,-111,-47,-43,-92
-66,-104,-38,82,-18,-71,-79,-135,-117,-47,-55,-92
-66,-110,-44,88,-12,-77,-79,-135,-123,-52,-67,-92
-66,-116,-50,88,-12,-83,-85,-141,-129,-52,-79,-92
-66,-116,-50,88,-12,-83,-91,-141,-135,-52,-91,-92
-54,-110,-56,82,0,-83,-91,-141,-141,-52,-91,-98
-43,-104,-62,70,6,-83,-91,-141,-147,-52,-97,-98
-48,-104,-56,70,0,-83,-103,-147,-153,-52,-103,-104
-66,-116,-50,88,-12,-83,-103,-147,-159,-52,-109,-110
-78,-116,-38,94,-24,-77,-103,-147,-165,-52,-115,-110
-84,-122,-38,100,-24,-83,-103,-153,-177,-57,-127,-110
-84,-122,-38,100,-24,-83,-103,-153,-177,-63,-139,-110
-78,-116,-38,94,-24,-77,-97,-147,-177,-57,-151,-104
-66,-116,-50,88,-12,-83,-91,-141,-177,-57,-157,-98
-60,-128,-68,88,0,-101,-85,-141,-177,-57,-157,-98
-54,-128,-74,88,6,-101,-85,-141,-177,-57,-163,-98
-54,-122,-68,88,6,-95,-85,-147,-177,-57,-169,-98
-48,-116,-68,76,6,-95,-85,-153,-183,-57,-175,-98
-43,-110,-68,76,12,-89,-91,-147,-183,-57,-181,-92
-43,-98,-56,70,6,-77,-91,-141,-183,-52,-181,-92
-43,-92,-50,64,0,-71,-85,-141,-189,-52,-187,-86
-38,-86,-50,64,6,-65,-85,-141,-189,-47,-193,-86
-43,-86,-44,64,0,-65,-85,-141,-195,-52,-193,-86
-54,-98,-44,76,-6,-71,-85,-147,-207,-52,-205,-92
-66,-110,-44,88,-12,-77,-85,-153,-213,-57,-217,-92
-72,-116,-44,88,-18,-83,-91,-159,-219,-63,-217,-104
-60,-110,-50,82,-6,-83,-91,-153,-219,-63,-229,-98
-43,-92,-50,64,0,-71,-91,-141,-219,-57,-229,-98
-38,-86,-50,64,6,-65,-91,-141,-225,-57,-241,-98
-38,-80,-44,58,0,-59,-91,-141,-225,-57,-241,-104
-38,-80,-44,58,0,-59,-91,-141,-231,-52,-247,-98
-43,-80,-38,58,-6,-59,-85,-141,-231,-52,-253,-98
-43,-86,-44,64,0,-65,-79,-141,-231,-52,-253,-92
-43,-86,-44,64,0,-65,-79,-141,-231,-52,-259,-92
-43,-80,-38,58,-6,-59,-73,-141,-225,-52,-259,-86
-43,-74,-32,58,-6,-53,-73,-141,-225,-52,-265,-86
-38,-74,-38,58,0,-53,-79,-141,-219,-52,-259,-86
-38,-74,-38,58,0,-53,-79,-141,-213,-52,-265,-92
-38,-74,-38,58,0,-53,-79,-141,-213,-57,-271,-92
-38,-74,-38,58,0,-53,-85,-141,-219,-57,-283,-92
-32,-74,-44,52,6,-59,-85,-135,-219,-52,-283,-86
-32,-80,-50,52,6,-65,-85,-135,-219,-52,-289,-86
-32,-80,-50,52,6,-65,-79,-135,-225,-52,-295,-92
-32,-80,-50,52,6,-65,-79,-129,-225,-52,-295,-86
-32,-74,-44,52,6,-59,-79,-135,-231,-57,-295,-92
-32,-74,-44,52,6,-59,-79,-135,-237,-63,-301,-98
-32,-74,-44,52,6,-59,-79,-141,-243,-63,-307,-92
-32,-74,-44,52,6,-59,-73,-141,-243,-63,-307,-92
-32,-74,-44,52,6,-59,-73,-135,-243,-63,-307,-92
-43,-86,-44,64,0,-65,-73,-135,-249,-63,-313,-98
-43,-92,-50,64,0,-71,-73,-129,-255,-63,-319,-98
-38,-98,-62,70,12,-77,-73,-129,-255,-63,-313,-98
-38,-92,-56,64,6,-71,-67,-129,-255,-63,-313,-98
-32,-86,-56,58,12,-71,-67,-129,-255,-57,-319,-98
-38,-86,-50,64,6,-65,-73,-129,-255,-63,-319,-98
-38,-86,-50,64,6,-65,-73,-135,-255,-63,-319,-98
-32,-86,-56,58,12,-71,-79,-135,-255,-57,-313,-98
-32,-80,-50,52,6,-65,-79,-135,-255,-57,-319,-98
-38,-74,-38,58,0,-53,-79,-141,-255,-63,-319,-98
-38,-74,-38,58,0,-53,-79,-141,-261,-69,-313,-98
-38,-74,-38,58,0,-53,-85,-141,-261,-69,-319,-98
-43,-80,-38,58,-6,-59,-85,-147,-267,-75,-325,-98
-43,-74,-32,58,-6,-53,-91,-147,-273,-75,-331,-98
-38,-68,-32,52,-6,-47,-91,-147,-279,-75,-331,-98
-43,-74,-32,58,-6,-53,-91,-153,-279,-81,-331,-104
-48,-86,-38,64,-6,-65,-91,-153,-279,-81,-337,-104
-54,-98,-44,76,-6,-71,-91,-153,-279,-81,-337,-98
-54,-104,-50,76,-6,-77,-91,-159,-285,-87,-337,-98
-54,-104,-50,76,-6,-77,-79,-165,-285,-87,-337,-98
-60,-98,-38,76,-12,-71,-79,-165,-279,-93,-343,-92
-60,-86,-26,70,-18,-59,-79,-165,-273,-93,-343,-92
-60,-86,-26,70,-18,-59,-79,-165,-273,-93,-343,-98
-60,-86,-26,70,-18,-59,-79,-159,-273,-93,-349,-98
-60,-74,-14,64,-24,-47,-73,-153,-273,-87,-349,-92
-54,-74,-20,64,-18,-47,-67,-147,-267,-81,-349,-92
-54,-74,-20,64,-18,-47,-55,-147,-255,-75,-343,-86
-60,-74,-14,64,-24,-47,-55,-147,-249,-75,-337,-86
-66,-74,-8,70,-30,-41,-49,-141,-243,-75,-337,-86
-66,-68,-2,64,-36,-35,-49,-141,-237,-75,-331,-80
-60,-56,4,52,-36,-29,-43,-135,-231,-75,-325,-80
-54,-50,4,52,-30,-23,-43,-129,-225,-75,-325,-74
-54,-50,4,52,-30,-23,-37,-129,-219,-75,-325,-74
-48,-44,4,40,-30,-23,-37,-123,-213,-69,-325,-80
-43,-38,4,40,-24,-17,-37,-123,-213,-69,-319,-74
-38,-26,10,34,-24,-5,-37,-123,-207,-63,-313,-68
-32,-20,10,22,-24,-5,-31,-117,-201,-57,-313,-62
-32,-14,16,22,-24,1,-25,-117,-189,-52,-307,-56
-32,-8,22,16,-30,7,-31,-111,-189,-47,-307,-56
-32,-8,22,16,-30,7,-31,-111,-189,-47,-307,-51
-32,-8,22,16,-30,7,-37,-111,-195,-52,-307,-51
-32,-8,22,16,-30,7,-43,-117,-201,-52,-313,-56
-32,-14,16,22,-24,1,-49,-123,-207,-57,-319,-56
-32,-20,10,22,-24,-5,-55,-129,-213,-63,-313,-56
-26,-14,10,22,-18,1,-67,-141,-219,-75,-313,-56
-14,-14,-2,16,-6,-5,-79,-147,-225,-75,-313,-56
-14,-14,-2,16,-6,-5,-91,-153,-225,-81,-313,-56
-2,-8,-8,4,0,-5,-109,-153,-225,-81,-313,-56
-2,-2,-2,4,0,1,-115,-153,-219,-81,-307,-56
-2,4,4,-1,-6,7,-115,-159,-219,-81,-307,-56
4,4,-2,-6,0,1,-115,-159,-225,-87,-307,-56
4,4,-2,-6,0,1,-115,-165,-225,-87,-301,-56
4,-2,-8,-1,6,-5,-115,-165,-231,-87,-301,-62
-2,-8,-8,4,0,-5,-115,-171,-231,-93,-301,-56
-2,-8,-8,4,0,-5,-115,-171,-231,-93,-307,-56
-2,-8,-8,4,0,-5,-121,-171,-237,-99,-307,-56
-8,-14,-8,10,0,-11,-115,-177,-237,-99,-307,-56
-8,-14,-8,10,0,-11,-115,-183,-243,-105,-307,-51
-8,-20,-14,10,0,-17,-121,-189,-243,-111,-307,-51
-14,-26,-14,22,0,-17,-121,-189,-249,-111,-313,-56
-20,-38,-20,28,0,-29,-115,-189,-243,-111,-313,-56
-26,-44,-20,34,-6,-29,-109,-183,-237,-111,-313,-56
-38,-50,-14,46,-12,-29,-103,-183,-237,-111,-313,-56
-43,-62,-20,52,-12,-41,-103,-177,-237,-117,-313,-62
-48,-68,-20,52,-18,-47,-103,-177,-237,-123,-325,-74
-48,-80,-32,58,-12,-59,-103,-177,-237,-129,-331,-80
-60,-86,-26,70,-18,-59,-97,-183,-243,-135,-337,-86
-60,-92,-32,70,-18,-65,-85,-189,-243,-141,-331,-92
-66,-98,-32,82,-18,-65,-85,-189,-243,-147,-337,-98
-66,-110,-44,88,-12,-77,-85,-195,-249,-147,-337,-98
-72,-122,-50,94,-12,-89,-91,-201,-243,-153,-343,-98
-66,-128,-62,94,-6,-95,-97,-201,-243,-153,-343,-98
-66,-128,-62,94,-6,-95,-97,-201,-243,-159,-343,-98
-66,-122,-56,94,-6,-89,-103,-207,-243,-159,-343,-104
-66,-122,-56,94,-6,-89,-103,-213,-243,-153,-343,-98
-66,-116,-50,88,-12,-83,-103,-207,-243,-153,-337,-98
-66,-116,-50,88,-12,-83,-97,-201,-243,-147,-331,-98
-66,-110,-44,88,-12,-77,-91,-201,-231,-141,-325,-92
-66,-104,-38,82,-18,-71,-85,-195,-225,-135,-319,-86
-66,-92,-26,76,-24,-59,-79,-183,-213,-129,-307,-74
-66,-80,-14,70,-30,-47,-73,-165,-195,-117,-295,-68
-66,-74,-8,70,-30,-41,-67,-147,-177,-105,-283,-62
-72,-62,10,64,-42,-29,-55,-129,-159,-93,-277,-56
-78,-44,34,58,-60,-5,-43,-117,-141,-81,-259,-51
-84,-38,46,58,-65,1,-31,-99,-111,-63,-247,-46
-90,-20,70,52,-82,25,-13,-81,-87,-52,-235,-40
-96,-2,92,46,-94,43,-1,-63,-69,-41,-223,-28
-96,10,104,40,-100,55,11,-45,-51,-23,-211,-16
-108,22,128,40,-118,71,23,-27,-39,-11,-199,-4
-114,34,146,40,-130,89,39,-9,-21,1,-187,2
-120,45,164,34,-142,101,57,21,3,25,-175,14
-120,50,170,34,-142,107,75,45,13,43,-157,26
-120,62,182,28,-148,119,87,67,31,67,-145,32
-126,74,200,28,-160,137,111,97,55,85,-133,44
-126,86,212,22,-166,149,129,127,85,91,-109,50
-132,110,242,10,-184,173,153,169,115,115,-91,56
-132,128,260,-1,-196,191,183,217,145,139,-73,68
-138,140,278,-1,-208,209,207,271,181,163,-61,74
-138,146,284,-1,-208,215,231,319,217,193,-43,80
-132,158,290,-12,-208,221,261,373,253,223,-25,92
-138,164,302,-12,-220,233,297,421,295,253,-7,98
-144,164,308,-12,-226,233,345,475,325,271,-1,104
-144,164,308,-12,-226,233,399,541,373,295,11,104
-144,182,326,-18,-232,251,471,631,433,331,35,116
-144,200,344,-30,-244,269,543,727,499,373,63,134
-150,224,374,-36,-262,299,621,829,565,433,105,152
-156,260,416,-54,-286,335,699,931,655,505,159,176
-168,302,470,-66,-316,383,783,1051,757,589,207,200
-180,356,536,-90,-358,443,867,1177,883,703,279,242
-186,416,602,-114,-394,509,957,1327,1033,835,357,290
-198,488,686,-144,-442,587,1047,1501,1207,979,453,344
-198,560,758,-180,-478,659,1137,1687,1393,1123,549,410
-186,650,836,-228,-508,743,1209,1891,1603,1285,657,482
-168,734,902,-282,-532,815,1257,2107,1825,1453,777,554
-150,818,968,-330,-556,893,1293,2335,2059,1633,891,620
-144,878,1022,-366,-580,947,1311,2568,2317,1813,999,680
-120,938,1058,-408,-586,995,1305,2790,2562,1993,1107,740
-78,980,1058,-450,-568,1019,1269,2970,2778,2143,1185,776
-43,962,1004,-456,-520,983,1233,3120,2940,2221,1203,770
-14,896,908,-438,-460,905,1191,3222,3006,2221,1155,722
-2,800,800,-396,-400,803,1131,3210,2952,2119,1053,650
-20,680,698,-330,-358,689,1071,3096,2772,1927,909,560
-60,566,626,-252,-340,593,1017,2874,2514,1687,759,464
-126,470,596,-168,-358,533,921,2508,2167,1411,609,374
-192,356,548,-84,-370,449,759,1981,1711,1099,429,272
-252,242,494,4,-370,365,573,1393,1213,763,243,158
-312,134,446,88,-376,287,399,805,733,451,63,50
-360,40,398,154,-382,215,231,271,307,175,-91,-46
-402,-44,356,220,-382,155,87,-141,-27,-41,-211,-110
-420,-98,320,256,-370,107,-19,-411,-249,-177,-295,-152
-432,-122,308,274,-370,89,-109,-573,-393,-273,-343,-182
-438,-128,308,280,-376,89,-175,-675,-483,-321,-367,-188
-432,-134,296,280,-364,77,-223,-741,-537,-363,-379,-188
-432,-146,284,286,-358,66,-259,-777,-579,-387,-391,-194
-420,-146,272,280,-346,61,-283,-795,-609,-405,-397,-200
-402,-152,248,274,-328,49,-301,-807,-627,-411,-403,-200
-384,-158,224,268,-304,31,-313,-807,-633,-423,-409,-206
-366,-164,200,262,-286,19,-319,-801,-639,-423,-415,-200
-348,-164,182,250,-268,7,-319,-801,-645,-423,-415,-194
-336,-164,170,244,-256,1,-319,-795,-645,-423,-409,-188
-324,-158,164,238,-244,1,-319,-783,-639,-423,-397,-182
-312,-158,152,232,-232,-5,-319,-759,-627,-417,-385,-176
-294,-152,140,220,-220,-5,-313,-723,-609,-405,-379,-176
-264,-152,110,202,-190,-23,-301,-675,-585,-393,-373,-170
-234,-164,70,196,-154,-47,-289,-615,-555,-375,-367,-170
-198,-164,34,178,-118,-65,-271,-561,-525,-357,-355,-158
-168,-170,-2,166,-82,-89,-253,-513,-495,-339,-349,-152
-138,-164,-26,148,-60,-95,-235,-465,-471,-315,-337,-146
-120,-158,-38,136,-42,-101,-217,-435,-453,-297,-331,-140
-108,-152,-44,124,-36,-101,-205,-411,-435,-285,-319,-134
-90,-152,-62,118,-18,-107,-193,-381,-417,-267,-313,-128
-78,-146,-68,112,-6,-107,-181,-357,-393,-255,-301,-122
-66,-140,-74,100,0,-107,-175,-339,-375,-243,-289,-116
-60,-140,-80,94,6,-113,-175,-315,-369,-237,-277,-116
-54,-140,-86,94,12,-113,-175,-309,-363,-237,-277,-116
-48,-134,-86,88,18,-113,-175,-309,-363,-237,-277,-116
-43,-128,-86,82,18,-107,-175,-309,-363,-237,-277,-110
-38,-128,-92,82,24,-107,-181,-309,-363,-237,-271,-110
-32,-122,-92,76,30,-107,-187,-303,-363,-231,-265,-110
-38,-116,-80,76,18,-95,-187,-297,-369,-231,-265,-110
-38,-122,-86,82,24,-101,-187,-291,-363,-231,-259,-116
-38,-116,-80,76,18,-95,-187,-285,-357,-225,-259,-116
-38,-122,-86,82,24,-101,-181,-273,-357,-219,-259,-110
-32,-122,-92,76,30,-107,-181,-267,-351,-213,-253,-116
-26,-122,-98,76,36,-107,-181,-261,-345,-213,-247,-110
-20,-122,-104,70,42,-113,-181,-255,-345,-207,-241,-110
-14,-122,-110,70,48,-113,-181,-255,-345,-207,-241,-110
-14,-128,-116,70,48,-119,-187,-261,-345,-207,-235,-110
-20,-128,-110,70,42,-119,-193,-273,-345,-207,-229,-116
-20,-134,-116,76,48,-125,-187,-273,-351,-213,-229,-110
-20,-128,-110,70,42,-119,-193,-267,-351,-213,-229,-110
-14,-122,-110,70,48,-113,-193,-267,-351,-213,-229,-104
-14,-122,-110,70,48,-113,-199,-261,-351,-219,-235,-104
-8,-122,-116,64,54,-119,-199,-261,-357,-219,-235,-104
-2,-116,-116,58,54,-113,-199,-261,-357,-219,-235,-104
-2,-116,-116,58,54,-113,-205,-255,-357,-213,-223,-104
4,-116,-122,52,60,-119,-205,-255,-357,-207,-217,-104
10,-116,-128,52,66,-119,-205,-261,-363,-207,-211,-104
10,-116,-128,52,66,-119,-211,-261,-357,-207,-211,-104
16,-110,-128,46,72,-119,-211,-261,-357,-207,-211,-104
16,-110,-128,46,72,-119,-217,-267,-357,-207,-211,-104
22,-110,-134,46,78,-119,-223,-267,-357,-213,-211,-110
22,-104,-128,40,72,-113,-223,-267,-357,-213,-217,-110
22,-110,-134,46,78,-119,-229,-267,-357,-219,-217,-104
28,-110,-140,40,84,-125,-235,-267,-363,-219,-211,-98
28,-110,-140,40,84,-125,-241,-273,-363,-219,-217,-92
34,-104,-140,34,84,-119,-247,-273,-375,-219,-217,-92
40,-104,-146,28,90,-125,-259,-273,-369,-219,-211,-92
46,-104,-152,28,96,-125,-265,-279,-369,-225,-211,-92
52,-104,-158,22,102,-131,-271,-285,-369,-225,-211,-92
52,-98,-152,22,102,-125,-277,-285,-369,-225,-205,-92
58,-92,-152,16,102,-119,-283,-291,-369,-225,-205,-92
58,-92,-152,16,102,-119,-283,-297,-369,-231,-205,-92
64,-92,-158,10,108,-125,-289,-303,-375,-225,-199,-92
64,-92,-158,10,108,-125,-289,-303,-369,-225,-193,-86
76,-92,-170,4,120,-131,-295,-303,-369,-225,-193,-80
82,-86,-170,4,126,-125,-301,-309,-363,-225,-187,-74
94,-86,-182,-1,138,-131,-313,-309,-363,-225,-187,-74
100,-80,-182,-12,138,-131,-325,-309,-369,-231,-193,-74
106,-80,-188,-12,144,-131,-337,-315,-369,-231,-193,-74
112,-74,-188,-18,150,-131,-343,-321,-375,-231,-187,-68
118,-68,-188,-24,150,-125,-349,-327,-375,-237,-187,-68
124,-68,-194,-30,156,-131,-361,-333,-381,-237,-175,-62
124,-74,-200,-24,162,-137,-367,-333,-381,-231,-169,-62
130,-74,-206,-24,168,-137,-379,-339,-381,-231,-169,-56
142,-68,-212,-36,174,-137,-385,-339,-375,-231,-169,-51
154,-62,-218,-42,186,-137,-403,-339,-369,-231,-169,-51
166,-56,-224,-54,192,-137,-415,-339,-369,-231,-163,-46
178,-50,-230,-60,204,-137,-427,-339,-369,-231,-163,-46
184,-38,-224,-72,204,-131,-433,-333,-369,-225,-157,-40
190,-26,-218,-78,204,-119,-439,-333,-369,-219,-151,-34
196,-20,-218,-90,204,-119,-445,-333,-369,-219,-151,-34
208,-20,-230,-96,216,-125,-451,-327,-369,-219,-145,-28
214,-14,-230,-96,222,-119,-451,-327,-363,-213,-139,-22
226,4,-224,-114,222,-107,-457,-327,-357,-207,-133,-10
238,10,-230,-120,234,-107,-463,-321,-345,-195,-121,-4
244,10,-236,-126,240,-113,-469,-315,-333,-189,-115,2
256,10,-248,-132,252,-119,-481,-309,-321,-183,-103,8
268,22,-248,-144,258,-113,-493,-297,-309,-171,-91,14
280,34,-248,-156,264,-107,-505,-285,-291,-153,-79,26
292,45,-248,-168,270,-101,-505,-267,-267,-135,-73,38
304,56,-248,-180,276,-95,-505,-249,-249,-117,-61,50
316,68,-248,-192,282,-89,-511,-231,-231,-111,-55,56
316,80,-236,-198,276,-77,-511,-213,-213,-99,-43,68
322,86,-236,-198,282,-71,-517,-189,-189,-81,-25,80
340,104,-236,-222,288,-65,-517,-171,-165,-63,-7,86
358,116,-242,-234,300,-59,-517,-147,-135,-47,11,98
370,128,-242,-246,306,-53,-523,-123,-111,-23,29,104
382,140,-242,-258,312,-47,-523,-93,-81,-5,47,116
388,140,-248,-264,318,-53,-517,-69,-57,13,53,128
400,152,-248,-276,324,-47,-511,-39,-27,31,58,134
406,158,-248,-276,330,-41,-499,-9,-3,43,69,146
406,164,-242,-282,324,-35,-493,15,19,61,81,152
412,176,-236,-294,324,-29,-481,45,43,85,87,158
418,182,-236,-294,330,-23,-469,67,73,103,105,170
424,200,-224,-312,324,-11,-457,97,103,127,123,176
436,212,-224,-324,330,-5,-439,127,133,151,141,182
436,224,-212,-330,324,7,-427,157,175,169,153,188
430,230,-200,-324,318,19,-415,187,199,175,159,188
424,230,-194,-324,312,19,-403,217,223,193,165,188
424,230,-194,-324,312,19,-385,247,253,211,171,194
424,236,-188,-330,306,25,-367,283,277,235,183,200
418,242,-176,-324,300,37,-355,319,295,253,195,206
412,248,-164,-330,288,43,-337,343,319,265,201,206
400,254,-146,-324,276,55,-313,379,349,277,213,206
388,260,-128,-324,258,66,-289,403,367,295,219,206
376,260,-116,-318,246,71,-265,421,385,301,231,206
370,260,-110,-312,240,77,-241,433,403,307,231,206
358,254,-104,-300,234,77,-217,445,421,313,237,200
352,248,-104,-300,228,71,-187,463,427,313,231,200
334,248,-86,-288,210,83,-163,475,439,319,225,194
322,242,-80,-276,204,83,-139,487,445,319,219,188
310,242,-68,-270,192,89,-115,499,451,319,213,176
292,236,-56,-264,174,89,-91,505,451,313,207,170
274,224,-50,-246,162,89,-67,499,433,301,201,158
250,212,-38,-228,144,89,-49,487,421,289,195,152
226,200,-26,-210,126,89,-25,475,403,271,183,140
202,182,-20,-186,114,83,-7,457,391,253,171,122
184,170,-14,-174,102,77,5,439,379,235,165,110
166,164,-2,-162,84,83,23,421,361,223,147,98
154,152,-2,-150,78,77,28,403,349,205,141,86
136,146,10,-138,66,77,33,379,325,187,123,80
118,140,22,-126,48,83,45,355,301,169,105,68
100,128,28,-114,36,77,51,331,277,145,87,56
82,122,40,-96,24,83,57,307,241,127,75,38
70,110,40,-84,18,77,63,277,217,109,63,26
64,98,34,-78,18,66,69,247,199,91,58,20
52,92,40,-72,6,66,75,223,187,79,47,8
40,74,34,-54,6,55,75,199,169,61,35,-4
22,56,34,-36,-6,49,75,175,145,55,23,-16
10,50,40,-24,-12,49,75,157,127,43,11,-22
-2,45,46,-18,-24,49,75,139,109,25,-1,-28
-8,40,46,-18,-30,43,75,115,91,13,-13,-28
-20,34,52,-6,-36,43,69,91,67,-5,-25,-40
-26,28,52,-1,-42,43,63,73,43,-23,-31,-46
-26,22,46,4,-36,37,57,55,19,-41,-37,-51
-32,16,46,4,-42,31,51,45,8,-52,-49,-56
-32,4,34,10,-36,19,51,33,3,-63,-55,-62
-38,-2,34,22,-36,19,51,21,-9,-69,-61,-68
-38,-2,34,22,-36,19,39,3,-21,-75,-61,-74
-43,-14,28,28,-36,7,39,-9,-33,-81,-67,-80
-48,-14,34,28,-42,7,39,-21,-45,-87,-73,-86
-48,-14,34,28,-42,7,33,-27,-57,-99,-79,-92
-60,-20,40,34,-54,7,33,-33,-75,-111,-85,-92
-60,-26,34,40,-48,1,28,-33,-81,-117,-91,-92
-66,-32,34,46,-54,1,28,-45,-93,-129,-97,-86
-72,-32,40,46,-60,1,28,-51,-99,-135,-97,-92
-78,-38,40,58,-60,1,23,-63,-105,-135,-103,-92
-78,-32,46,52,-65,7,28,-69,-111,-135,-103,-92
-78,-32,46,52,-65,7,28,-81,-117,-135,-97,-104
-84,-38,46,58,-65,1,23,-87,-123,-135,-97,-104
-90,-44,46,64,-70,1,23,-93,-129,-135,-97,-110
-90,-44,46,64,-70,1,17,-99,-141,-141,-97,-110
-84,-44,40,58,-65,-5,17,-99,-141,-147,-97,-110
-84,-44,40,58,-65,-5,17,-105,-141,-147,-97,-110
-84,-50,34,64,-60,-11,23,-105,-135,-153,-103,-110
-84,-50,34,64,-60,-11,23,-105,-135,-153,-103,-110
-78,-50,28,64,-54,-11,23,-105,-129,-147,-103,-110
-78,-44,34,58,-60,-5,17,-105,-135,-147,-103,-110
-90,-44,46,64,-70,1,17,-111,-135,-153,-109,-110
-90,-38,52,64,-70,7,17,-111,-135,-153,-103,-104
-90,-38,52,64,-70,7,17,-117,-141,-153,-103,-110
-96,-32,64,58,-82,13,17,-117,-141,-153,-103,-104
-90,-38,52,64,-70,7,17,-117,-141,-147,-97,-104
-90,-38,52,64,-70,7,11,-117,-141,-141,-97,-104
-90,-32,58,58,-76,13,11,-123,-141,-141,-103,-104
-90,-38,52,64,-70,7,11,-123,-141,-147,-103,-104
-90,-32,58,58,-76,13,11,-117,-141,-141,-103,-98
-84,-32,52,52,-70,7,11,-123,-141,-141,-103,-98
-84,-32,52,52,-70,7,11,-123,-135,-135,-91,-98
-84,-26,58,52,-70,13,17,-123,-141,-135,-91,-98
-84,-26,58,52,-70,13,17,-123,-141,-141,-91,-98
-90,-26,64,58,-76,19,17,-129,-141,-141,-85,-104
-90,-26,64,58,-76,19,17,-129,-141,-141,-85,-104
-84,-32,52,52,-70,7,17,-129,-135,-141,-79,-98
-78,-26,52,52,-65,13,11,-129,-135,-141,-73,-98
-78,-26,52,52,-65,13,11,-129,-135,-135,-67,-98
-78,-26,52,52,-65,13,5,-129,-135,-135,-67,-92
-84,-32,52,52,-70,7,5,-129,-141,-135,-67,-92
-78,-26,52,52,-65,13,5,-123,-141,-123,-67,-92
-72,-26,46,46,-60,7,11,-123,-141,-123,-67,-86
-72,-26,46,46,-60,7,11,-123,-141,-123,-67,-86
-72,-26,46,46,-60,7,11,-129,-147,-123,-73,-80
-66,-32,34,46,-54,1,11,-123,-141,-123,-67,-80
-66,-26,40,46,-54,7,11,-123,-147,-123,-73,-80
-66,-26,40,46,-54,7,5,-135,-147,-123,-67,-80
-72,-20,52,40,-65,13,-1,-135,-153,-123,-67,-80
-72,-26,46,46,-60,7,-1,-141,-147,-123,-67,-80
-72,-20,52,40,-65,13,-7,-135,-147,-123,-67,-80
-72,-20,52,40,-65,13,-13,-135,-147,-129,-67,-80
-72,-14,58,40,-65,19,-13,-135,-147,-129,-73,-74
-72,-8,64,34,-70,25,-13,-129,-147,-129,-67,-74
-66,-14,52,40,-60,19,-13,-129,-147,-129,-67,-74
-66,-8,58,34,-65,25,-13,-129,-153,-129,-67,-74
-66,-8,58,34,-65,25,-13,-129,-153,-123,-67,-80
-66,-8,58,34,-65,25,-13,-129,-147,-123,-67,-80
-66,-8,58,34,-65,25,-13,-129,-141,-123,-67,-80
-60,-8,52,28,-60,19,-13,-135,-141,-117,-61,-74
-54,-8,46,28,-54,19,-7,-129,-135,-117,-61,-74
-54,-2,52,28,-54,25,-7,-129,-135,-117,-61,-68
-54,-2,52,28,-54,25,-7,-129,-141,-117,-61,-68
-54,-2,52,28,-54,25,-1,-135,-147,-117,-61,-62
-54,-8,46,28,-54,19,-7,-135,-153,-117,-61,-68
-60,-14,46,34,-54,13,-7,-135,-153,-117,-61,-68
-60,-8,52,28,-60,19,-7,-135,-153,-117,-67,-80
-60,-8,52,28,-60,19,-1,-135,-153,-117,-61,-80
-54,-2,52,28,-54,25,-7,-135,-153,-117,-61,-80
-54,-2,52,28,-54,25,-7,-135,-153,-117,-61,-80
-54,-14,40,34,-48,13,-7,-135,-153,-117,-61,-80
-48,-8,40,22,-48,13,-19,-141,-153,-117,-61,-86
-48,-8,40,22,-48,13,-13,-141,-147,-117,-61,-80
-48,-8,40,22,-48,13,-13,-141,-153,-123,-67,-80
-48,-14,34,28,-42,7,-13,-141,-153,-123,-67,-80
-48,-14,34,28,-42,7,-7,-147,-153,-123,-67,-74
-54,-14,40,34,-48,13,-7,-147,-153,-117,-67,-74
-54,-14,40,34,-48,13,-7,-147,-153,-117,-61,-80
-54,-14,40,34,-48,13,-7,-147,-159,-123,-61,-80
-54,-8,46,28,-54,19,-13,-153,-159,-123,-61,-74
-54,-14,40,34,-48,13,-13,-153,-159,-123,-61,-80
-54,-14,40,34,-48,13,-13,-153,-159,-123,-61,-80
-54,-20,34,34,-48,7,-19,-153,-165,-123,-67,-80
-48,-20,28,28,-42,1,-19,-153,-165,-129,-67,-80
-48,-14,34,28,-42,7,-13,-153,-165,-129,-73,-80
-48,-8,40,22,-48,13,-13,-153,-177,-129,-73,-80
-48,-8,40,22,-48,13,-13,-159,-171,-129,-67,-80
-48,-2,46,22,-48,19,-13,-159,-165,-123,-67,-86
-48,-2,46,22,-48,19,-13,-159,-165,-123,-67,-86
-48,4,52,16,-54,25,-13,-165,-165,-129,-67,-86
-48,4,52,16,-54,25,-19,-165,-165,-129,-67,-86
-54,-2,52,28,-54,25,-19,-165,-165,-135,-73,-86
-54,-2,52,28,-54,25,-19,-165,-165,-135,-73,-86
-54,-2,52,28,-54,25,-19,-165,-165,-135,-73,-80
-48,-2,46,22,-48,19,-19,-171,-165,-135,-73,-80
-54,-8,46,28,-54,19,-13,-171,-165,-141,-67,-86
-54,-8,46,28,-54,19,-13,-171,-165,-135,-67,-86
-54,-8,46,28,-54,19,-13,-171,-159,-141,-61,-92
-54,-8,46,28,-54,19,-13,-177,-159,-141,-61,-92
-54,-20,34,34,-48,7,-19,-177,-159,-135,-55,-86
-54,-20,34,34,-48,7,-19,-177,-165,-135,-55,-80
-54,-14,40,34,-48,13,-31,-177,-171,-135,-55,-80
-54,-8,46,28,-54,19,-31,-177,-165,-135,-67,-74
-54,-8,46,28,-54,19,-31,-171,-165,-135,-67,-74
-60,-14,46,34,-54,13,-25,-171,-165,-135,-67,-80
-60,-14,46,34,-54,13,-19,-171,-159,-135,-67,-80
-60,-8,52,28,-60,19,-13,-171,-159,-135,-67,-80
-60,-8,52,28,-60,19,-13,-165,-159,-135,-67,-80
-66,-14,52,40,-60,19,-13,-165,-159,-135,-61,-86
-66,-20,46,40,-60,13,-13,-171,-159,-135,-61,-86
-66,-26,40,46,-54,7,-13,-177,-159,-135,-61,-86
-66,-20,46,40,-60,13,-19,-177,-159,-141,-61,-86
-66,-14,52,40,-60,19,-19,-177,-159,-141,-61,-86
-72,-20,52,40,-65,13,-19,-177,-171,-147,-67,-86
-72,-26,46,46,-60,7,-19,-177,-171,-147,-67,-86
-66,-20,46,40,-60,13,-19,-171,-165,-147,-67,-80
-66,-26,40,46,-54,7,-25,-171,-165,-147,-67,-80
-66,-26,40,46,-54,7,-19,-177,-159,-153,-67,-80
-66,-32,34,46,-54,1,-19,-177,-159,-153,-67,-86
-72,-32,40,46,-60,1,-19,-183,-159,-153,-67,-92
-72,-32,40,46,-60,1,-13,-183,-171,-153,-67,-92
-72,-26,46,46,-60,7,-13,-177,-171,-147,-67,-86
-72,-26,46,46,-60,7,-13,-177,-171,-147,-67,-86
-78,-26,52,52,-65,13,-7,-183,-171,-147,-67,-80
-78,-26,52,52,-65,13,-7,-183,-171,-147,-67,-80
-72,-32,40,46,-60,1,-13,-189,-171,-147,-67,-74
-72,-26,46,46,-60,7,-13,-189,-171,-147,-67,-74
-66,-20,46,40,-60,13,-7,-189,-183,-159,-67,-74
-72,-26,46,46,-60,7,-7,-189,-183,-159,-61,-80
-72,-26,46,46,-60,7,-13,-189,-177,-159,-61,-80
-72,-26,46,46,-60,7,-7,-183,-177,-165,-61,-80
-72,-26,46,46,-60,7,-7,-183,-177,-165,-61,-86
-66,-26,40,46,-54,7,-1,-177,-171,-159,-61,-86
-66,-26,40,46,-54,7,5,-177,-165,-159,-67,-86
-72,-32,40,46,-60,1,11,-183,-171,-159,-73,-86
-72,-32,40,46,-60,1,11,-183,-171,-159,-73,-86
-72,-32,40,46,-60,1,17,-183,-171,-159,-73,-80
-72,-26,46,46,-60,7,17,-189,-177,-153,-79,-86
-72,-26,46,46,-60,7,17,-189,-177,-153,-73,-80
-66,-32,34,46,-54,1,17,-189,-171,-153,-73,-74
-66,-26,40,46,-54,7,17,-189,-177,-153,-67,-74
-72,-26,46,46,-60,7,11,-189,-171,-153,-67,-74
-72,-26,46,46,-60,7,11,-189,-171,-153,-67,-80
-72,-26,46,46,-60,7,5,-183,-171,-153,-67,-80
-72,-26,46,46,-60,7,11,-183,-171,-153,-67,-80
-72,-26,46,46,-60,7,11,-177,-165,-153,-67,-80
-72,-26,46,46,-60,7,17,-183,-171,-153,-67,-80
-72,-32,40,46,-60,1,11,-183,-171,-153,-67,-80
-78,-38,40,58,-60,1,11,-189,-177,-159,-73,-80
-72,-38,34,52,-54,-5,11,-189,-171,-159,-73,-80
-72,-44,28,52,-54,-11,11,-189,-165,-159,-73,-74
-66,-38,28,52,-48,-5,11,-189,-165,-159,-73,-74
-66,-38,28,52,-48,-5,11,-189,-159,-159,-73,-74
-66,-38,28,52,-48,-5,11,-189,-165,-159,-73,-74
-66,-38,28,52,-48,-5,17,-189,-159,-159,-73,-74
-72,-38,34,52,-54,-5,17,-189,-159,-159,-67,-80
-72,-32,40,46,-60,1,11,-189,-153,-159,-67,-80
-72,-32,40,46,-60,1,11,-189,-153,-159,-67,-86
-72,-32,40,46,-60,1,11,-189,-153,-159,-67,-86
-78,-32,46,52,-65,7,17,-189,-147,-159,-61,-86
-78,-32,46,52,-65,7,17,-189,-153,-159,-61,-86
-72,-38,34,52,-54,-5,17,-189,-147,-159,-61,-86
-72,-32,40,46,-60,1,17,-183,-147,-159,-61,-80
-72,-32,40,46,-60,1,11,-183,-147,-165,-67,-80
-72,-32,40,46,-60,1,11,-189,-153,-165,-73,-80
-66,-32,34,46,-54,1,11,-189,-153,-165,-79,-80
-66,-32,34,46,-54,1,11,-189,-159,-165,-79,-80
-60,-32,28,40,-48,-5,11,-189,-159,-165,-73,-86
-60,-32,28,40,-48,-5,11,-183,-153,-159,-73,-86
-60,-38,22,46,-42,-11,-1,-183,-153,-159,-67,-86
-66,-44,22,52,-48,-11,-1,-183,-153,-159,-67,-80
-72,-38,34,52,-54,-5,-1,-183,-153,-159,-67,-86
-72,-32,40,46,-60,1,-1,-183,-153,-165,-67,-80
-72,-38,34,52,-54,-5,-1,-183,-153,-165,-67,-80
-78,-44,34,58,-60,-5,5,-183,-153,-171,-67,-80
-84,-44,40,58,-65,-5,5,-183,-153,-171,-67,-80
-84,-44,40,58,-65,-5,5,-183,-153,-165,-67,-80
-84,-44,40,58,-65,-5,5,-189,-147,-159,-67,-80
-78,-44,34,58,-60,-5,-1,-189,-153,-159,-67,-80
-78,-44,34,58,-60,-5,-1,-189,-153,-159,-67,-74
-84,-44,40,58,-65,-5,-1,-183,-153,-159,-67,-74
-84,-50,34,64,-60,-11,-1,-183,-153,-153,-67,-68
-84,-50,34,64,-60,-11,-1,-183,-153,-159,-67,-74
-84,-50,34,64,-60,-11,-1,-183,-153,-159,-67,-74
-78,-50,28,64,-54,-11,-1,-183,-153,-159,-67,-74
-66,-50,16,58,-42,-17,5,-177,-153,-159,-67,-74
-66,-44,22,52,-48,-11,5,-177,-147,-165,-67,-74
-72,-50,22,58,-48,-17,-1,-183,-147,-165,-67,-80
-72,-56,16,58,-48,-23,-1,-183,-147,-171,-61,-80
-78,-56,22,64,-54,-17,-1,-189,-141,-171,-61,-80
-78,-56,22,64,-54,-17,-1,-189,-141,-171,-61,-74
-84,-56,28,64,-60,-17,-1,-183,-147,-165,-61,-74
-84,-50,34,64,-60,-11,-1,-177,-141,-165,-61,-74
-84,-44,40,58,-65,-5,-1,-177,-141,-165,-67,-68
-90,-50,40,70,-65,-5,-1,-177,-141,-165,-67,-68
-96,-62,34,76,-65,-17,-7,-177,-141,-165,-73,-74
-90,-62,28,76,-60,-17,-7,-177,-141,-165,-73,-80
-78,-62,16,70,-48,-23,-7,-177,-141,-159,-73,-74
-78,-62,16,70,-48,-23,-7,-177,-141,-159,-67,-74
-78,-68,10,70,-48,-29,-7,-177,-141,-165,-67,-74
-72,-56,16,58,-48,-23,-7,-177,-141,-165,-67,-74
-66,-50,16,58,-42,-17,-1,-177,-141,-165,-67,-74
-66,-50,16,58,-42,-17,-1,-183,-141,-165,-67,-74
-72,-50,22,58,-48,-17,-1,-183,-153,-165,-73,-80
-66,-50,16,58,-42,-17,5,-177,-147,-171,-67,-80
-66,-50,16,58,-42,-17,5,-177,-147,-165,-67,-80
-66,-56,10,58,-42,-23,5,-177,-147,-165,-67,-86
-66,-62,4,64,-36,-29,5,-177,-141,-159,-67,-80
-66,-62,4,64,-36,-29,5,-177,-135,-153,-67,-80
-66,-62,4,64,-36,-29,-1,-171,-135,-153,-67,-74
-66,-50,16,58,-42,-17,5,-165,-129,-153,-61,-74
-66,-44,22,52,-48,-11,5,-165,-129,-159,-67,-74
-72,-44,28,52,-54,-11,5,-159,-129,-159,-61,-74
-78,-38,40,58,-60,1,11,-159,-123,-159,-55,-74
-78,-32,46,52,-65,7,17,-159,-123,-153,-55,-74
-78,-32,46,52,-65,7,17,-153,-117,-153,-55,-80
-72,-26,46,46,-60,7,28,-153,-111,-153,-49,-80
-72,-20,52,40,-65,13,28,-141,-105,-141,-43,-74
-72,-14,58,40,-65,19,33,-135,-99,-135,-37,-68
-66,-8,58,34,-65,25,39,-129,-93,-129,-37,-62
-66,-8,58,34,-65,25,45,-123,-93,-123,-43,-56
-72,-14,58,40,-65,19,45,-123,-93,-123,-43,-56
-66,-8,58,34,-65,25,45,-117,-87,-117,-37,-51
-60,-2,58,28,-60,25,45,-117,-81,-123,-31,-46
-54,4,58,22,-60,31,51,-117,-81,-117,-31,-46
-54,4,58,22,-60,31,51,-111,-75,-117,-25,-46
-48,10,58,16,-54,31,57,-111,-69,-111,-19,-46
-43,10,52,16,-48,31,57,-105,-75,-105,-13,-40
-43,16,58,10,-54,37,63,-99,-69,-99,-13,-40
-43,28,70,4,-60,49,63,-93,-63,-93,-7,-34
-43,40,82,-1,-65,61,69,-87,-63,-93,-7,-34
-43,40,82,-1,-65,61,63,-87,-57,-87,-1,-34
-43,40,82,-1,-65,61,63,-87,-57,-87,-1,-34
-38,45,82,-1,-60,66,51,-93,-63,-93,-7,-34
-38,45,82,-1,-60,66,45,-99,-63,-93,-7,-40
-32,45,76,-6,-54,61,33,-99,-63,-99,-7,-40
-32,45,76,-6,-54,61,28,-105,-57,-99,-7,-34
-20,45,64,-12,-42,55,23,-111,-57,-93,-7,-34
-14,45,58,-12,-36,55,11,-111,-57,-93,-7,-28
-8,40,46,-18,-30,43,5,-117,-69,-93,-7,-28
-2,45,46,-18,-24,49,-1,-123,-69,-93,-1,-28
10,50,40,-24,-12,49,-1,-135,-75,-99,-1,-28
16,56,40,-36,-12,49,-7,-135,-75,-99,-1,-22
16,62,46,-36,-12,55,-13,-141,-81,-99,5,-28
22,68,46,-42,-12,61,-13,-141,-81,-105,5,-28
16,56,40,-36,-12,49,-19,-141,-87,-105,5,-22
16,56,40,-36,-12,49,-25,-141,-87,-111,-1,-22
10,56,46,-30,-18,55,-31,-147,-87,-111,-1,-22
4,50,46,-24,-18,49,-37,-153,-87,-105,-1,-16
4,45,40,-24,-18,43,-43,-153,-93,-111,-7,-16
-2,40,40,-18,-24,43,-49,-159,-99,-111,-13,-16
-2,34,34,-12,-18,37,-55,-159,-105,-111,-13,-22
-8,28,34,-12,-24,31,-49,-159,-105,-117,-19,-28
-26,22,46,4,-36,37,-43,-153,-99,-117,-19,-34
-38,4,40,16,-42,25,-43,-153,-99,-117,-25,-40
-43,-8,34,22,-42,13,-37,-153,-105,-123,-31,-46
-43,-20,22,28,-36,1,-37,-147,-111,-129,-31,-51
-48,-32,16,34,-36,-11,-31,-153,-111,-129,-37,-51
-48,-38,10,40,-30,-17,-25,-153,-117,-129,-43,-56
-54,-44,10,46,-36,-17,-19,-153,-117,-135,-55,-62
-66,-56,10,58,-42,-23,-13,-159,-117,-135,-61,-68
-66,-62,4,64,-36,-29,-13,-159,-129,-147,-67,-74
-66,-68,-2,64,-36,-35,-13,-165,-129,-153,-67,-80
-66,-68,-2,64,-36,-35,-19,-171,-129,-159,-67,-86
-72,-74,-2,70,-36,-41,-19,-177,-135,-165,-67,-86
-66,-80,-14,70,-30,-47,-25,-183,-135,-159,-67,-80
-60,-80,-20,64,-24,-53,-19,-189,-141,-153,-67,-80
-54,-80,-26,64,-18,-53,-19,-183,-135,-147,-67,-80
-54,-80,-26,64,-18,-53,-19,-177,-129,-135,-67,-74
-60,-74,-14,64,-24,-47,-25,-171,-123,-129,-61,-74
-60,-68,-8,58,-30,-41,-13,-159,-111,-129,-55,-74
-60,-56,4,52,-36,-29,-7,-147,-105,-117,-49,-62
-60,-44,16,46,-42,-17,5,-135,-87,-111,-43,-51
-66,-38,28,52,-48,-5,23,-117,-69,-99,-31,-51
-66,-26,40,46,-54,7,28,-99,-51,-87,-13,-46
-72,-20,52,40,-65,13,39,-75,-39,-69,-1,-40
-72,-8,64,34,-70,25,51,-57,-27,-57,11,-34
-72,4,76,28,-76,37,69,-33,-3,-41,35,-16
-78,16,92,28,-88,55,81,-9,19,-23,41,-10
-84,34,116,22,-100,71,93,9,37,1,53,-4
-84,45,128,16,-106,83,99,33,55,19,58,2
-90,50,140,22,-112,95,111,50,67,31,69,14
-96,68,164,10,-130,113,135,73,91,49,81,32
-96,86,182,4,-136,131,153,91,109,61,93,38
-96,98,194,-1,-142,143,165,115,133,73,105,50
-96,116,212,-12,-154,161,183,139,157,97,123,56
-96,128,224,-18,-160,173,207,175,193,121,135,68
-102,134,236,-12,-166,185,231,217,223,145,153,74
-108,146,254,-18,-178,197,255,265,265,175,171,80
-120,158,278,-18,-196,215,285,313,301,199,183,92
-120,170,290,-24,-202,227,309,361,337,223,201,104
-114,194,308,-36,-208,251,327,409,373,253,219,116
-108,206,314,-48,-208,257,369,469,415,283,237,122
-108,218,326,-54,-214,269,411,529,457,313,249,134
-114,218,332,-48,-220,275,459,595,499,331,255,134
-114,218,332,-48,-220,275,507,673,547,361,273,140
-114,230,344,-54,-226,287,567,769,619,403,297,158
-114,254,368,-66,-238,311,633,877,685,457,333,170
-114,284,398,-84,-256,341,705,979,763,517,381,194
-120,320,440,-102,-280,377,789,1093,859,595,429,224
-132,374,506,-120,-316,437,885,1213,979,685,495,254
-144,434,578,-144,-358,503,975,1333,1111,799,567,296
-156,500,656,-174,-406,575,1071,1483,1261,925,645,344
-168,560,728,-198,-448,641,1167,1657,1423,1057,729,398
-180,626,806,-222,-490,713,1257,1843,1597,1201,813,458
-186,698,884,-252,-532,791,1329,2059,1801,1357,909,524
-186,758,944,-282,-562,851,1377,2269,2017,1519,1017,590
-186,812,998,-312,-592,905,1413,2484,2245,1687,1113,644
-168,866,1034,-348,-598,947,1425,2712,2484,1861,1221,704
-132,920,1052,-396,-592,983,1413,2904,2700,2011,1305,746
-102,950,1052,-420,-574,1001,1377,3078,2898,2143,1365,770
-72,926,998,-426,-532,959,1353,3222,3042,2191,1353,746
-48,854,902,-402,-472,875,1317,3288,3090,2167,1299,692
-48,758,806,-354,-424,779,1275,3240,2994,2041,1191,614
-72,644,716,-288,-394,677,1221,3102,2796,1831,1047,524
-108,542,650,-216,-376,593,1161,2862,2526,1597,897,434
-168,440,608,-138,-388,521,1059,2467,2155,1321,747,350
-222,332,554,-54,-388,443,891,1927,1699,1009,567,248
-270,212,482,28,-376,347,699,1345,1219,691,393,146
-318,104,422,106,-370,263,513,769,769,397,225,50
-366,16,380,172,-376,197,345,259,373,151,87,-34
-402,-38,362,220,-382,161,201,-105,85,-29,-7,-92
-420,-74,344,244,-382,131,93,-351,-105,-153,-79,-128
-432,-104,326,262,-382,107,11,-501,-231,-237,-127,-146
-438,-110,326,274,-382,107,-55,-591,-309,-291,-145,-158
-426,-116,308,268,-370,95,-115,-639,-363,-321,-157,-158
-414,-116,296,262,-358,89,-163,-669,-399,-345,-169,-158
-402,-122,278,262,-340,77,-199,-693,-435,-363,-181,-158
-390,-140,248,262,-322,55,-229,-705,-459,-375,-193,-164
-372,-152,218,256,-298,31,-241,-711,-471,-387,-199,-164
-354,-158,194,256,-274,19,-247,-711,-477,-393,-205,-164
-342,-152,188,244,-268,19,-247,-717,-477,-399,-205,-164
-330,-152,176,238,-256,13,-247,-711,-477,-399,-205,-164
-318,-140,176,226,-250,19,-247,-705,-477,-393,-205,-158
-306,-140,164,220,-238,13,-247,-693,-471,-387,-199,-152
-288,-146,140,214,-214,-5,-247,-657,-459,-381,-193,-140
-264,-152,110,202,-190,-23,-235,-615,-435,-363,-187,-140
-228,-158,70,190,-148,-47,-229,-561,-405,-357,-175,-128
-192,-164,28,172,-112,-71,-211,-507,-369,-339,-163,-128
-162,-164,-2,160,-82,-83,-199,-459,-339,-315,-151,-122
-138,-158,-20,148,-60,-89,-187,-417,-309,-297,-145,-116
-114,-146,-32,130,-42,-89,-175,-381,-285,-285,-133,-116
-96,-140,-44,112,-30,-95,-157,-351,-267,-267,-121,-104
-84,-134,-50,106,-18,-95,-151,-321,-249,-249,-103,-92
-72,-128,-56,94,-12,-95,-145,-297,-231,-231,-97,-86
-60,-122,-62,88,0,-95,-133,-273,-213,-219,-91,-80
-48,-122,-74,82,12,-101,-127,-249,-201,-207,-85,-80
-48,-116,-68,76,6,-95,-127,-237,-201,-207,-91,-80
-48,-122,-74,82,12,-101,-127,-237,-201,-207,-91,-80
-43,-122,-80,82,18,-101,-121,-231,-195,-201,-91,-86
-26,-122,-98,76,36,-107,-121,-225,-195,-207,-91,-80
-20,-122,-104,70,42,-113,-121,-219,-189,-207,-91,-74
-20,-116,-98,64,36,-107,-127,-213,-183,-207,-91,-74
-14,-116,-104,64,42,-107,-127,-207,-183,-207,-91,-68
-8,-116,-110,58,48,-113,-133,-201,-183,-201,-85,-62
-2,-110,-110,58,54,-107,-133,-201,-177,-195,-85,-62
4,-110,-116,52,60,-113,-133,-201,-177,-189,-85,-56
4,-110,-116,52,60,-113,-133,-201,-177,-183,-85,-56
4,-110,-116,52,60,-113,-133,-201,-171,-177,-79,-56
4,-116,-122,52,60,-119,-139,-201,-171,-177,-79,-62
10,-116,-128,52,66,-119,-139,-195,-165,-183,-79,-56
10,-116,-128,52,66,-119,-145,-189,-165,-189,-79,-62
22,-116,-140,46,78,-125,-157,-195,-165,-189,-79,-56
22,-116,-140,46,78,-125,-163,-195,-171,-189,-79,-56
22,-116,-140,46,78,-125,-163,-189,-177,-189,-79,-51
22,-110,-134,46,78,-119,-163,-195,-177,-183,-79,-51
22,-116,-140,46,78,-125,-169,-195,-177,-183,-79,-51
22,-116,-140,46,78,-125,-175,-195,-177,-177,-79,-51
28,-116,-146,40,84,-131,-181,-201,-177,-177,-79,-56
28,-116,-146,40,84,-131,-181,-207,-183,-177,-79,-56
28,-122,-152,46,90,-137,-175,-213,-195,-177,-79,-56
34,-116,-152,40,90,-131,-175,-219,-201,-177,-79,-56
40,-110,-152,34,96,-131,-175,-219,-201,-177,-73,-56
40,-104,-146,28,90,-125,-181,-219,-207,-183,-79,-56
40,-110,-152,34,96,-131,-187,-219,-207,-183,-79,-56
40,-110,-152,34,96,-131,-193,-219,-207,-189,-79,-56
46,-110,-158,34,102,-131,-199,-213,-201,-189,-79,-51
52,-110,-164,28,108,-137,-199,-213,-207,-183,-79,-51
58,-110,-170,28,114,-137,-205,-213,-207,-183,-79,-56
64,-116,-182,22,120,-149,-205,-219,-207,-183,-79,-56
70,-116,-188,22,126,-149,-211,-219,-207,-183,-79,-51
76,-116,-194,16,132,-155,-217,-231,-207,-189,-79,-51
88,-116,-206,10,144,-161,-223,-231,-213,-189,-79,-40
94,-116,-212,10,150,-161,-229,-231,-213,-189,-79,-40
94,-116,-212,10,150,-161,-235,-231,-219,-189,-79,-34
94,-116,-212,10,150,-161,-247,-237,-225,-195,-79,-34
100,-110,-212,4,156,-161,-253,-243,-225,-195,-79,-34
106,-110,-218,4,162,-161,-253,-249,-231,-189,-79,-34
118,-110,-230,-1,174,-167,-259,-255,-231,-189,-79,-34
124,-110,-236,-6,180,-173,-265,-261,-231,-183,-85,-34
130,-104,-236,-12,180,-167,-271,-267,-237,-189,-85,-28
136,-98,-236,-18,186,-167,-277,-267,-243,-195,-79,-28
142,-98,-242,-18,192,-167,-289,-273,-249,-201,-79,-28
142,-104,-248,-18,192,-173,-301,-279,-255,-207,-79,-28
148,-104,-254,-24,198,-179,-307,-291,-261,-213,-79,-22
160,-104,-266,-30,210,-185,-313,-291,-261,-213,-73,-22
166,-104,-272,-30,216,-185,-325,-303,-261,-207,-73,-22
172,-104,-278,-36,222,-191,-331,-309,-261,-207,-73,-22
184,-104,-290,-42,234,-197,-343,-309,-267,-207,-73,-22
190,-104,-296,-42,240,-197,-355,-315,-273,-201,-73,-22
196,-98,-296,-48,246,-197,-367,-315,-273,-207,-73,-16
208,-92,-302,-60,252,-197,-379,-315,-267,-207,-67,-16
220,-86,-308,-66,264,-197,-385,-315,-267,-207,-61,-4
232,-80,-314,-78,270,-197,-397,-315,-267,-201,-55,2
238,-80,-320,-78,276,-197,-409,-309,-267,-201,-55,2
256,-74,-332,-90,294,-203,-415,-303,-261,-195,-49,8
268,-74,-344,-96,306,-209,-421,-309,-255,-189,-43,14
274,-68,-344,-102,306,-203,-433,-309,-249,-177,-37,14
286,-68,-356,-108,318,-209,-445,-303,-243,-171,-31,20
292,-62,-356,-114,324,-209,-457,-297,-231,-171,-19,26
304,-56,-362,-126,330,-209,-469,-285,-219,-159,-7,38
316,-50,-368,-132,342,-209,-469,-273,-213,-153,-1,50
334,-38,-374,-144,354,-203,-475,-261,-201,-141,11,62
340,-26,-368,-156,354,-197,-481,-243,-177,-135,17,74
352,-14,-368,-168,360,-191,-487,-225,-159,-117,23,80
364,-14,-380,-174,372,-197,-493,-207,-135,-99,35,86
376,-2,-380,-186,378,-191,-493,-183,-117,-81,47,92
388,10,-380,-198,384,-185,-493,-159,-99,-69,58,98
400,16,-386,-210,390,-185,-493,-147,-81,-52,69,110
412,34,-380,-222,396,-173,-493,-123,-57,-41,87,122
418,40,-380,-228,396,-167,-499,-105,-39,-17,99,134
430,45,-386,-234,408,-167,-499,-81,-15,1,111,140
436,50,-386,-240,414,-167,-493,-51,8,19,129,152
442,56,-386,-246,414,-161,-487,-21,31,43,135,164
448,68,-380,-258,414,-155,-481,9,49,55,147,176
454,86,-368,-264,414,-137,-475,39,73,73,159,182
454,92,-362,-270,408,-131,-469,61,97,97,171,194
454,92,-362,-270,408,-131,-463,91,127,109,183,200
454,98,-356,-270,408,-125,-457,115,151,127,195,200
454,110,-344,-276,402,-113,-445,145,175,145,207,206
466,122,-344,-288,408,-107,-427,169,205,163,219,218
460,134,-326,-294,396,-95,-403,193,223,181,219,218
454,134,-320,-288,390,-89,-385,223,247,199,231,224
448,140,-308,-294,378,-83,-355,259,277,217,243,230
448,140,-308,-294,378,-83,-331,289,295,235,255,236
448,140,-308,-294,378,-83,-313,313,319,253,261,236
448,146,-302,-294,378,-77,-295,343,337,271,273,242
436,146,-290,-288,366,-71,-283,373,361,289,279,242
430,152,-278,-288,354,-59,-259,403,379,301,285,248
418,152,-266,-282,342,-53,-241,427,391,307,285,248
412,158,-254,-282,336,-47,-211,445,409,319,291,254
394,164,-230,-276,312,-29,-181,463,415,325,291,248
376,158,-218,-264,300,-29,-145,475,427,325,291,248
358,158,-200,-252,282,-17,-115,487,433,331,297,236
340,158,-182,-246,264,-11,-85,499,445,331,297,230
322,152,-170,-234,246,-5,-61,499,445,325,291,218
304,146,-158,-222,234,-5,-43,505,445,319,279,206
280,128,-152,-204,216,-11,-19,499,433,313,267,194
256,122,-134,-186,198,-5,5,493,421,307,255,182
244,116,-128,-180,186,-5,23,487,415,295,243,176
226,110,-116,-162,174,1,39,475,397,277,231,158
202,98,-104,-144,156,1,57,463,385,265,219,146
184,92,-92,-138,138,1,75,445,373,247,207,134
166,86,-80,-120,126,7,87,433,355,229,195,122
148,74,-74,-108,114,1,105,415,343,211,183,116
136,62,-74,-96,108,-5,117,391,319,193,177,104
124,50,-74,-84,102,-11,123,373,301,175,165,98
106,45,-62,-72,84,-5,129,343,277,163,153,86
88,40,-50,-66,66,-5,129,319,259,151,141,80
76,34,-44,-54,60,-5,129,301,235,133,129,68
58,22,-38,-36,48,-5,135,277,205,115,111,62
40,16,-26,-30,30,-5,135,247,187,97,99,56
34,4,-32,-18,30,-11,141,223,169,79,87,44
22,-8,-32,-6,24,-17,141,205,151,61,75,32
16,-20,-38,-1,24,-29,141,187,133,49,69,32
10,-32,-44,10,24,-35,141,163,115,37,63,20
-2,-32,-32,16,12,-29,141,145,97,25,58,14
-8,-44,-38,22,12,-41,141,127,85,13,47,8
-14,-50,-38,34,12,-41,135,109,67,7,35,2
-20,-56,-38,34,6,-47,129,97,55,1,29,2
-26,-56,-32,40,0,-41,123,79,49,-11,17,-10
-38,-56,-20,46,-12,-35,117,67,37,-17,11,-16
-43,-62,-20,52,-12,-41,111,55,25,-23,5,-22
-43,-68,-26,52,-12,-47,111,50,13,-29,5,-28
-48,-74,-26,58,-12,-53,117,45,3,-47,-1,-28
-54,-80,-26,64,-18,-53,117,33,-9,-52,-7,-40
-60,-86,-26,70,-18,-59,117,27,-21,-57,-7,-40
-60,-92,-32,70,-18,-65,117,15,-21,-57,-13,-40
-60,-98,-38,76,-12,-71,105,9,-27,-63,-19,-46
-60,-98,-38,76,-12,-71,99,-3,-33,-69,-25,-46
-66,-110,-44,88,-12,-77,105,-15,-33,-69,-31,-46
-72,-110,-38,88,-18,-77,105,-21,-39,-75,-31,-46
-72,-110,-38,88,-18,-77,99,-27,-39,-75,-37,-46
-72,-110,-38,88,-18,-77,99,-39,-45,-75,-43,-46
-72,-110,-38,88,-18,-77,93,-39,-51,-81,-43,-51
-72,-116,-44,88,-18,-83,87,-45,-51,-81,-43,-51
-72,-116,-44,88,-18,-83,81,-45,-51,-81,-43,-56
-72,-116,-44,88,-18,-83,81,-45,-51,-93,-37,-56
-66,-116,-50,88,-12,-83,87,-45,-51,-93,-31,-56
-66,-122,-56,94,-6,-89,81,-51,-51,-87,-31,-56
-66,-116,-50,88,-12,-83,81,-57,-51,-81,-31,-56
-66,-116,-50,88,-12,-83,81,-57,-51,-81,-31,-51
-66,-116,-50,88,-12,-83,81,-63,-51,-75,-31,-51
-72,-116,-44,88,-18,-83,81,-69,-51,-75,-31,-51
-72,-122,-50,94,-12,-89,81,-69,-57,-75,-31,-51
-66,-122,-56,94,-6,-89,81,-69,-57,-75,-31,-51
-66,-116,-50,88,-12,-83,81,-63,-51,-69,-25,-51
-66,-122,-56,94,-6,-89,75,-63,-51,-69,-19,-51
-66,-122,-56,94,-6,-89,69,-63,-51,-69,-19,-51
-66,-116,-50,88,-12,-83,69,-63,-51,-75,-19,-46
-60,-110,-50,82,-6,-83,75,-63,-45,-75,-19,-46
-60,-104,-44,76,-12,-77,75,-57,-39,-69,-13,-46
-60,-104,-44,76,-12,-77,75,-57,-39,-63,-19,-40
-60,-104,-44,76,-12,-77,75,-57,-39,-57,-19,-40
-60,-104,-44,76,-12,-77,75,-63,-39,-57,-19,-40
-60,-104,-44,76,-12,-77,75,-63,-39,-52,-13,-34
-60,-110,-50,82,-6,-83,75,-69,-39,-52,-13,-40
-54,-110,-56,82,0,-83,75,-69,-45,-52,-7,-40
-48,-110,-62,76,6,-89,81,-69,-45,-52,-7,-40
-48,-104,-56,70,0,-83,81,-69,-45,-47,-1,-40
-48,-104,-56,70,0,-83,81,-69,-45,-52,-1,-34
-48,-98,-50,70,0,-77,81,-69,-45,-52,-1,-28
-54,-98,-44,76,-6,-71,81,-75,-51,-52,-1,-28
-54,-98,-44,76,-6,-71,75,-75,-51,-57,-7,-28
-54,-98,-44,76,-6,-71,75,-81,-57,-57,-7,-34
-54,-98,-44,76,-6,-71,75,-75,-51,-57,-7,-28
-54,-104,-50,76,-6,-77,69,-75,-51,-52,-7,-28
-48,-98,-50,70,0,-77,57,-81,-51,-52,-7,-34
-48,-104,-56,70,0,-83,51,-81,-45,-52,-1,-34
-43,-98,-56,70,6,-77,51,-75,-39,-47,-1,-28
-43,-92,-50,64,0,-71,51,-75,-33,-41,-1,-28
-43,-98,-56,70,6,-77,57,-75,-33,-41,-1,-28
-48,-98,-50,70,0,-77,63,-75,-39,-41,-1,-28
-43,-98,-56,70,6,-77,63,-75,-51,-47,-1,-34
-43,-92,-50,64,0,-71,63,-69,-51,-47,-1,-28
-43,-92,-50,64,0,-71,63,-69,-51,-41,-1,-28
-43,-98,-56,70,6,-77,63,-81,-57,-41,-1,-28
-48,-104,-56,70,0,-83,63,-81,-57,-47,-1,-34
-43,-98,-56,70,6,-77,57,-87,-57,-41,5,-34
-38,-98,-62,70,12,-77,57,-87,-51,-47,5,-34
-38,-110,-74,76,18,-89,51,-87,-45,-52,5,-34
-38,-116,-80,76,18,-95,51,-87,-45,-52,5,-34
-38,-116,-80,76,18,-95,51,-87,-45,-57,5,-34
-38,-110,-74,76,18,-89,51,-87,-51,-57,-1,-34
-32,-110,-80,70,24,-95,57,-81,-57,-52,-7,-34
-32,-116,-86,70,24,-101,63,-81,-57,-47,-7,-34
-38,-116,-80,76,18,-95,63,-87,-63,-52,-7,-28
-32,-110,-80,70,24,-95,57,-87,-63,-47,-1,-28
-32,-110,-80,70,24,-95,63,-81,-57,-47,5,-22
-26,-110,-86,70,30,-95,63,-81,-57,-47,11,-16
-26,-110,-86,70,30,-95,57,-81,-51,-52,11,-16
-32,-116,-86,70,24,-101,57,-87,-45,-52,11,-16
-32,-122,-92,76,30,-107,57,-81,-45,-52,17,-16
-38,-122,-86,82,24,-101,51,-81,-45,-47,17,-16
-38,-128,-92,82,24,-107,51,-87,-45,-47,11,-22
-38,-128,-92,82,24,-107,51,-87,-57,-41,11,-22
-38,-122,-86,82,24,-101,51,-81,-63,-41,11,-22
-32,-128,-98,76,30,-113,57,-81,-63,-47,17,-28
-38,-134,-98,88,30,-113,57,-87,-63,-47,17,-28
-38,-128,-92,82,24,-107,57,-81,-69,-47,17,-28
-38,-128,-92,82,24,-107,57,-87,-69,-52,17,-28
-43,-128,-86,82,18,-107,57,-93,-69,-52,11,-28
-43,-128,-86,82,18,-107,57,-87,-69,-52,11,-28
-38,-128,-92,82,24,-107,57,-87,-69,-52,5,-28
-38,-128,-92,82,24,-107,57,-81,-69,-47,-1,-28
-32,-122,-92,76,30,-107,57,-81,-69,-47,-1,-34
-38,-134,-98,88,30,-113,51,-87,-69,-47,-1,-34
-43,-146,-104,94,30,-125,45,-93,-81,-52,-7,-40
-43,-152,-110,94,30,-131,45,-99,-75,-52,-1,-40
-43,-152,-110,94,30,-131,45,-99,-75,-52,-1,-40
-38,-146,-110,94,36,-125,45,-99,-81,-52,-1,-40
-38,-146,-110,94,36,-125,51,-93,-81,-52,-1,-46
-32,-146,-116,88,42,-131,51,-99,-87,-57,-7,-46
-38,-140,-104,88,30,-119,51,-99,-87,-57,-7,-51
-38,-140,-104,88,30,-119,57,-99,-87,-69,-13,-51
-32,-140,-110,82,36,-125,57,-99,-87,-69,-19,-51
-26,-128,-104,76,36,-113,51,-99,-87,-69,-25,-51
-32,-128,-98,76,30,-113,51,-99,-87,-69,-31,-51
-26,-128,-104,76,36,-113,51,-99,-81,-63,-31,-46
-32,-134,-104,82,36,-119,57,-99,-87,-63,-31,-40
-38,-140,-104,88,30,-119,57,-99,-87,-63,-25,-40
-43,-140,-98,88,24,-119,57,-99,-87,-63,-19,-40
-43,-134,-92,88,24,-113,57,-99,-87,-57,-19,-40
-43,-134,-92,88,24,-113,51,-93,-87,-57,-13,-40
-43,-134,-92,88,24,-113,45,-93,-87,-57,-13,-40
-43,-134,-92,88,24,-113,39,-93,-87,-63,-13,-40
-43,-140,-98,88,24,-119,39,-93,-87,-63,-13,-40
-48,-146,-98,94,24,-125,39,-99,-81,-69,-7,-40
-48,-146,-98,94,24,-125,33,-99,-81,-69,-7,-34
-43,-146,-104,94,30,-125,33,-105,-75,-69,-7,-40
-38,-146,-110,94,36,-125,39,-105,-69,-69,-13,-40
-38,-146,-110,94,36,-125,39,-99,-69,-69,-13,-40
-38,-152,-116,94,36,-131,39,-93,-75,-63,-13,-40
-43,-146,-104,94,30,-125,39,-93,-75,-63,-13,-40
-43,-146,-104,94,30,-125,39,-93,-81,-63,-19,-40
-38,-146,-110,94,36,-125,39,-87,-81,-57,-13,-40
-38,-146,-110,94,36,-125,39,-87,-75,-57,-7,-40
-43,-152,-110,94,30,-131,33,-87,-75,-57,-7,-40
-43,-152,-110,94,30,-131,33,-93,-75,-63,-7,-34
-43,-146,-104,94,30,-125,39,-87,-75,-57,-1,-34
-43,-146,-104,94,30,-125,33,-93,-75,-57,-1,-40
-43,-152,-110,94,30,-131,33,-93,-75,-57,-7,-40
-43,-158,-116,100,36,-137,33,-99,-81,-63,-13,-40
-43,-158,-116,100,36,-137,39,-99,-81,-63,-13,-34
-43,-152,-110,94,30,-131,39,-99,-81,-63,-19,-34
-43,-152,-110,94,30,-131,39,-99,-81,-63,-19,-34
-38,-146,-110,94,36,-125,39,-99,-87,-69,-19,-34
-32,-146,-116,88,42,-131,39,-99,-87,-75,-19,-34
-26,-152,-128,88,48,-137,39,-99,-87,-75,-25,-34
-32,-158,-128,94,48,-143,39,-99,-81,-75,-25,-34
-26,-152,-128,88,48,-137,39,-99,-81,-75,-25,-34
-26,-152,-128,88,48,-137,39,-99,-81,-75,-25,-34
-26,-152,-128,88,48,-137,45,-99,-75,-75,-31,-28
-32,-158,-128,94,48,-143,45,-99,-75,-69,-31,-34
-38,-158,-122,100,42,-137,45,-99,-75,-69,-37,-34
-32,-158,-128,94,48,-143,45,-99,-75,-69,-31,-34
-32,-158,-128,94,48,-143,45,-99,-75,-69,-31,-34
-32,-158,-128,94,48,-143,45,-99,-75,-69,-25,-34
-38,-158,-122,100,42,-137,39,-99,-75,-69,-25,-40
-38,-158,-122,100,42,-137,39,-99,-81,-69,-25,-40
-38,-158,-122,100,42,-137,39,-93,-81,-63,-25,-34
-38,-164,-128,100,42,-143,39,-93,-87,-63,-25,-34
-38,-164,-128,100,42,-143,45,-93,-81,-69,-31,-40
-38,-170,-134,106,48,-149,45,-93,-81,-69,-31,-46
-43,-170,-128,106,42,-149,45,-99,-81,-69,-31,-46
-43,-170,-128,106,42,-149,51,-105,-75,-63,-25,-40
-43,-176,-134,106,42,-155,51,-99,-75,-63,-25,-40
-43,-170,-128,106,42,-149,45,-105,-75,-63,-25,-40
-43,-170,-128,106,42,-149,45,-105,-75,-57,-25,-40
-43,-170,-128,106,42,-149,45,-105,-75,-52,-25,-40
-38,-170,-134,106,48,-149,39,-99,-69,-52,-25,-40
-32,-170,-140,100,54,-155,39,-99,-63,-57,-19,-40
-32,-170,-140,100,54,-155,39,-99,-63,-57,-19,-34
-32,-164,-134,94,48,-149,39,-93,-63,-57,-19,-40
-32,-158,-128,94,48,-143,39,-93,-63,-63,-19,-40
-38,-158,-122,100,42,-137,39,-93,-69,-63,-25,-40
-32,-152,-122,88,42,-137,39,-93,-69,-63,-25,-40
-32,-152,-122,88,42,-137,39,-99,-75,-63,-31,-46
-26,-146,-122,88,48,-131,39,-99,-75,-57,-31,-46
-32,-146,-116,88,42,-131,39,-99,-75,-57,-25,-46
-38,-158,-122,100,42,-137,33,-99,-75,-63,-25,-46
-38,-170,-134,106,48,-149,33,-93,-75,-69,-25,-46
-38,-170,-134,106,48,-149,33,-93,-81,-69,-25,-46
-32,-164,-134,94,48,-149,33,-93,-81,-69,-19,-40
-38,-164,-128,100,42,-143,33,-93,-81,-63,-19,-40
-38,-164,-128,100,42,-143,33,-99,-75,-69,-25,-40
-32,-170,-140,100,54,-155,33,-99,-75,-69,-25,-34
-32,-164,-134,94,48,-149,33,-99,-75,-69,-25,-34
-32,-164,-134,94,48,-149,33,-99,-75,-69,-31,-34
-32,-158,-128,94,48,-143,33,-99,-75,-69,-31,-40
-26,-152,-128,88,48,-137,39,-93,-75,-63,-31,-40
-26,-152,-128,88,48,-137,39,-93,-69,-63,-25,-40
-26,-152,-128,88,48,-137,39,-87,-63,-57,-25,-40
-32,-158,-128,94,48,-143,45,-87,-63,-57,-25,-34
-43,-170,-128,106,42,-149,45,-87,-63,-63,-25,-34
-43,-176,-134,106,42,-155,45,-87,-63,-63,-25,-34
-43,-176,-134,106,42,-155,45,-87,-69,-57,-25,-34
-43,-176,-134,106,42,-155,45,-87,-69,-57,-25,-28
-43,-182,-140,112,48,-161,45,-87,-69,-57,-25,-34
-43,-182,-140,112,48,-161,45,-87,-69,-63,-25,-34
-38,-188,-152,112,54,-167,45,-87,-69,-69,-25,-34
-43,-188,-146,112,48,-167,45,-87,-75,-69,-25,-34
-43,-194,-152,118,54,-173,45,-81,-69,-69,-31,-34
-48,-188,-140,112,42,-167,45,-81,-69,-69,-31,-40
-48,-182,-134,112,42,-161,39,-81,-69,-75,-37,-46
-43,-182,-140,112,48,-161,39,-87,-69,-75,-37,-46
-43,-182,-140,112,48,-161,39,-87,-69,-75,-37,-46
-43,-188,-146,112,48,-167,39,-93,-69,-69,-37,-46
-43,-188,-146,112,48,-167,39,-99,-63,-69,-37,-46
-38,-188,-152,112,54,-167,39,-99,-63,-63,-37,-46
-38,-188,-152,112,54,-167,39,-99,-63,-63,-37,-46
-43,-176,-134,106,42,-155,39,-99,-63,-63,-37,-46
-43,-170,-128,106,42,-149,39,-99,-63,-69,-37,-40
-43,-164,-122,100,36,-143,39,-93,-63,-69,-37,-40
-43,-158,-116,100,36,-137,45,-93,-57,-63,-31,-34
-43,-158,-116,100,36,-137,51,-87,-51,-57,-25,-22
-43,-152,-110,94,30,-131,51,-81,-51,-52,-25,-16
-38,-146,-110,94,36,-125,57,-81,-51,-52,-25,-16
-38,-146,-110,94,36,-125,57,-81,-51,-52,-25,-16
-32,-134,-104,82,36,-119,63,-81,-45,-52,-13,-16
-32,-128,-98,76,30,-113,69,-87,-39,-47,-13,-22
-32,-122,-92,76,30,-107,75,-87,-39,-52,-13,-22
-26,-116,-92,70,30,-101,75,-81,-33,-52,-13,-22
-26,-110,-86,70,30,-95,81,-81,-33,-57,-13,-22
-20,-104,-86,58,30,-95,75,-75,-33,-52,-13,-16
-14,-104,-92,58,36,-95,69,-75,-27,-52,-7,-16
-20,-110,-92,64,36,-101,69,-75,-27,-47,-1,-16
-20,-110,-92,64,36,-101,69,-69,-21,-41,-1,-10
-14,-104,-92,58,36,-95,75,-69,-15,-29,5,-4
-8,-98,-92,52,42,-95,75,-63,-15,-23,11,2
-8,-92,-86,46,36,-89,75,-63,-9,-17,17,2
-2,-80,-80,40,36,-77,81,-57,-3,-11,23,8
-2,-68,-68,34,30,-65,87,-57,-3,-11,29,14
-8,-56,-50,28,18,-53,81,-57,3,-5,29,20
-8,-56,-50,28,18,-53,81,-57,3,-5,29,14
-14,-62,-50,40,18,-53,75,-57,3,-5,29,14
-8,-62,-56,34,24,-59,69,-63,3,-5,23,14
-2,-62,-62,34,30,-59,63,-63,-3,-5,23,14
10,-62,-74,28,42,-65,57,-69,-3,1,29,20
16,-62,-80,22,48,-71,45,-69,-3,1,29,20
28,-62,-92,16,60,-77,39,-75,-9,-11,23,26
34,-62,-98,16,66,-77,33,-75,-9,-11,23,26
34,-68,-104,16,66,-83,28,-81,-15,-11,29,32
34,-56,-92,10,60,-71,28,-81,-15,-17,29,26
34,-56,-92,10,60,-71,23,-87,-21,-17,29,26
34,-62,-98,16,66,-77,23,-93,-27,-17,29,32
40,-62,-104,10,72,-83,17,-93,-27,-11,35,32
46,-56,-104,4,72,-77,17,-93,-27,-17,29,26
46,-62,-110,10,78,-83,11,-93,-33,-17,29,26
46,-68,-116,10,78,-89,11,-99,-39,-23,23,26
34,-68,-104,16,66,-83,5,-105,-45,-29,17,26
28,-74,-104,22,66,-89,-1,-111,-51,-29,17,26
28,-80,-110,22,66,-95,-7,-117,-57,-29,11,20
22,-86,-110,34,66,-95,-7,-123,-51,-29,5,20
10,-98,-110,46,60,-101,-1,-111,-51,-29,5,20
4,-104,-110,46,54,-107,-1,-105,-51,-35,-1,14
-2,-116,-116,58,54,-113,5,-105,-51,-35,-7,14
-8,-134,-128,70,60,-131,11,-99,-57,-47,-7,8
-20,-146,-128,82,54,-137,11,-99,-57,-52,-13,-4
-20,-158,-140,88,60,-149,11,-105,-63,-57,-19,-10
-26,-164,-140,94,54,-149,11,-111,-63,-63,-19,-22
-26,-170,-146,100,60,-155,23,-111,-63,-69,-25,-22
-26,-176,-152,100,60,-161,23,-111,-69,-75,-37,-28
-26,-176,-152,100,60,-161,17,-117,-75,-81,-37,-34
-32,-188,-158,106,60,-173,17,-123,-81,-81,-49,-40
-32,-188,-158,106,60,-173,11,-129,-81,-81,-55,-40
-32,-194,-164,112,66,-179,5,-129,-81,-81,-55,-46
-32,-194,-164,112,66,-179,5,-135,-87,-81,-55,-46
-32,-200,-170,112,66,-185,5,-129,-81,-81,-55,-46
-26,-194,-170,112,72,-179,5,-129,-87,-75,-49,-40
-26,-194,-170,112,72,-179,11,-123,-81,-69,-43,-34
-26,-182,-158,106,66,-167,17,-117,-69,-57,-31,-22
-32,-182,-152,106,60,-167,23,-105,-63,-52,-19,-16
-32,-170,-140,100,54,-155,28,-87,-45,-41,-7,-4
-32,-164,-134,94,48,-149,39,-63,-27,-29,5,8
-32,-152,-122,88,42,-137,51,-39,-9,-11,17,20
-32,-134,-104,82,36,-119,63,-9,8,7,29,26
-32,-116,-86,70,24,-101,69,9,31,25,35,38
-38,-104,-68,70,12,-83,81,33,55,49,47,44
-38,-86,-50,64,6,-65,99,50,79,67,58,56
-38,-74,-38,58,0,-53,111,61,97,85,69,68
-38,-56,-20,46,-12,-35,123,73,121,97,87,80
-38,-38,-2,40,-18,-17,141,97,145,115,105,92
-43,-20,22,28,-36,1,159,115,169,133,123,104
-43,-8,34,22,-42,13,177,145,187,151,135,110
-48,4,52,16,-54,25,195,169,205,169,141,116
-54,16,70,16,-65,43,207,199,223,187,153,122
-48,28,76,4,-65,49,225,229,247,211,165,128
-54,45,98,4,-76,71,255,259,277,235,183,134
-60,50,110,4,-82,77,285,307,307,265,201,146
-60,68,128,-6,-94,95,315,355,349,295,219,152
-48,80,128,-18,-88,101,345,403,397,325,243,170
-43,104,146,-30,-94,125,375,457,439,355,267,182
-38,116,152,-36,-94,137,399,517,487,385,285,194
-38,128,164,-42,-100,149,429,583,529,409,309,200
-38,128,164,-42,-100,149,471,655,565,439,321,206
-38,134,170,-42,-100,155,525,733,613,475,339,206
-32,152,182,-60,-106,167,585,823,679,523,363,218
-26,176,200,-72,-112,191,651,919,751,571,405,242
-32,206,236,-84,-130,221,717,1015,835,637,447,260
-38,236,272,-96,-154,257,795,1117,931,709,495,284
-43,266,308,-108,-172,287,879,1237,1039,787,543,308
-48,314,362,-132,-202,335,963,1351,1153,883,609,350
-54,374,428,-156,-238,401,1047,1483,1273,991,681,398
-66,434,500,-180,-280,467,1131,1639,1417,1111,765,446
-78,488,566,-204,-322,527,1227,1813,1579,1237,843,500
-96,560,656,-234,-376,605,1317,2005,1759,1381,927,554
-102,626,728,-258,-412,677,1389,2197,1963,1549,1023,614
-114,692,806,-288,-460,749,1455,2377,2179,1717,1125,668
-126,746,872,-306,-496,809,1497,2550,2401,1885,1227,722
-114,794,908,-336,-508,851,1515,2724,2628,2053,1317,770
-90,830,920,-366,-502,875,1509,2880,2844,2209,1401,818
-48,836,884,-396,-466,857,1473,3030,3042,2335,1461,842
-8,806,812,-396,-406,809,1431,3150,3162,2376,1449,812
4,740,734,-372,-364,737,1395,3186,3186,2341,1389,764
4,632,626,-318,-310,629,1341,3120,3084,2209,1275,686
-20,524,542,-252,-280,533,1269,2952,2874,1993,1125,590
-60,416,476,-180,-268,443,1203,2682,2586,1741,957,488
-114,320,434,-102,-274,377,1119,2257,2203,1453,789,380
-180,230,410,-24,-292,317,999,1723,1747,1123,609,278
-240,122,362,58,-298,239,843,1165,1273,793,423,164
-294,22,314,136,-304,167,669,619,805,487,255,68
-336,-56,278,190,-310,107,507,151,403,235,117,-10
-360,-110,248,232,-304,66,369,-159,121,61,23,-51
-366,-146,218,256,-292,37,249,-357,-63,-52,-37,-74
-366,-176,188,268,-280,7,153,-489,-195,-135,-85,-92
-360,-194,164,274,-262,-17,69,-567,-285,-189,-115,-104
-354,-200,152,274,-256,-23,11,-603,-333,-225,-133,-104
-348,-206,140,274,-244,-35,-43,-639,-363,-255,-145,-110
-336,-218,116,274,-226,-53,-79,-669,-393,-285,-157,-110
-324,-230,92,274,-208,-71,-109,-693,-417,-309,-169,-116
-306,-236,70,268,-190,-83,-121,-699,-423,-315,-175,-116
-288,-248,40,262,-166,-107,-133,-693,-435,-327,-181,-122
-276,-248,28,256,-154,-113,-145,-687,-441,-327,-175,-122
-264,-242,22,250,-142,-113,-151,-681,-447,-333,-175,-122
-258,-248,10,250,-136,-119,-151,-675,-453,-333,-175,-122
-246,-248,-2,244,-124,-125,-163,-663,-453,-333,-169,-116
-234,-248,-14,238,-112,-131,-175,-645,-441,-327,-169,-110
-222,-254,-32,238,-94,-143,-181,-609,-423,-315,-169,-104
-204,-266,-62,232,-70,-167,-181,-573,-405,-303,-169,-98
-174,-272,-98,220,-42,-185,-175,-531,-387,-297,-163,-92
-138,-272,-134,202,-6,-203,-175,-483,-357,-279,-157,-86
-114,-272,-158,190,18,-215,-163,-441,-327,-255,-145,-86
-90,-272,-182,178,42,-227,-145,-393,-297,-237,-127,-80
-72,-266,-194,166,60,-233,-127,-351,-273,-219,-115,-80
-54,-254,-200,154,72,-227,-109,-315,-243,-201,-103,-68
-43,-248,-206,142,78,-227,-103,-285,-219,-183,-97,-62
-32,-236,-206,130,84,-221,-91,-261,-201,-165,-85,-56
-20,-242,-224,130,102,-233,-91,-237,-183,-153,-73,-51
-8,-236,-230,118,108,-233,-85,-219,-171,-135,-67,-46
-2,-236,-236,118,114,-233,-85,-213,-171,-135,-67,-46
-2,-242,-242,124,120,-239,-85,-213,-165,-135,-67,-46
4,-248,-254,118,126,-251,-85,-207,-165,-135,-67,-46
4,-248,-254,118,126,-251,-85,-207,-165,-141,-67,-46
4,-248,-254,118,126,-251,-85,-201,-159,-141,-67,-46
16,-248,-266,112,138,-257,-91,-201,-159,-135,-67,-46
22,-242,-266,112,144,-251,-97,-195,-159,-129,-61,-46
28,-242,-272,106,150,-257,-97,-195,-159,-129,-55,-40
34,-248,-284,106,156,-263,-97,-189,-159,-129,-55,-40
40,-248,-290,100,162,-269,-103,-189,-153,-129,-55,-40
46,-242,-290,100,168,-263,-97,-183,-153,-129,-55,-34
52,-242,-296,94,174,-269,-97,-183,-153,-129,-55,-34
52,-236,-290,88,168,-263,-97,-183,-147,-129,-55,-34
52,-236,-290,88,168,-263,-97,-177,-153,-129,-49,-28
52,-242,-296,94,174,-269,-97,-177,-153,-129,-49,-28
58,-248,-308,94,180,-275,-103,-171,-147,-123,-43,-28
58,-248,-308,94,180,-275,-103,-171,-141,-117,-43,-22
58,-248,-308,94,180,-275,-115,-177,-135,-117,-37,-16
58,-260,-320,100,186,-287,-115,-177,-135,-111,-37,-16
58,-260,-320,100,186,-287,-115,-177,-135,-117,-37,-16
64,-260,-326,94,192,-293,-121,-177,-135,-117,-43,-22
64,-260,-326,94,192,-293,-121,-177,-141,-123,-43,-22
64,-260,-326,94,192,-293,-121,-177,-141,-123,-43,-22
70,-254,-326,94,198,-287,-121,-177,-141,-117,-43,-28
70,-248,-320,88,192,-281,-127,-177,-147,-123,-49,-28
76,-242,-320,82,198,-281,-139,-177,-147,-123,-49,-28
82,-248,-332,82,204,-287,-145,-177,-153,-123,-49,-28
88,-248,-338,76,210,-293,-151,-177,-153,-123,-49,-28
94,-242,-338,76,216,-287,-157,-183,-147,-123,-49,-28
100,-242,-344,70,222,-293,-163,-189,-147,-123,-49,-22
100,-242,-344,70,222,-293,-169,-195,-153,-129,-55,-28
100,-242,-344,70,222,-293,-175,-201,-159,-135,-49,-28
100,-242,-344,70,222,-293,-181,-207,-165,-135,-43,-28
94,-236,-332,70,210,-281,-193,-213,-171,-141,-49,-28
100,-224,-326,58,210,-275,-199,-219,-177,-147,-49,-28
106,-224,-332,58,216,-275,-205,-225,-183,-147,-49,-22
118,-218,-338,52,228,-275,-211,-231,-189,-147,-49,-16
124,-224,-350,46,234,-287,-217,-237,-189,-147,-43,-10
130,-224,-356,46,240,-287,-223,-243,-195,-147,-43,-10
136,-224,-362,40,246,-293,-235,-249,-201,-147,-43,-10
142,-224,-368,40,252,-293,-241,-255,-201,-153,-49,-4
142,-224,-368,40,252,-293,-253,-255,-207,-159,-49,-4
154,-230,-386,40,270,-305,-265,-261,-207,-159,-49,-4
160,-230,-392,34,276,-311,-271,-261,-213,-159,-49,2
166,-230,-398,34,282,-311,-283,-267,-219,-159,-55,2
172,-230,-404,28,288,-317,-301,-273,-219,-159,-49,2
172,-236,-410,28,288,-323,-313,-279,-225,-153,-49,2
184,-230,-416,22,300,-323,-325,-279,-225,-153,-43,8
196,-230,-428,16,312,-329,-337,-285,-225,-159,-43,14
208,-224,-434,4,318,-329,-349,-291,-231,-165,-43,14
220,-224,-446,-1,330,-335,-361,-297,-231,-165,-37,20
226,-224,-452,-1,336,-335,-373,-303,-231,-165,-37,26
238,-224,-464,-6,348,-341,-385,-303,-231,-165,-25,32
244,-218,-464,-12,354,-341,-397,-303,-231,-159,-25,32
250,-218,-470,-12,360,-341,-409,-309,-231,-165,-25,38
256,-212,-470,-24,360,-341,-421,-309,-231,-159,-25,38
268,-206,-476,-30,372,-341,-427,-309,-231,-153,-13,44
280,-200,-482,-42,378,-341,-433,-303,-231,-141,-7,50
292,-200,-494,-48,390,-347,-445,-303,-225,-135,-7,56
304,-200,-506,-54,402,-353,-457,-297,-225,-129,-1,62
316,-200,-518,-60,414,-359,-475,-297,-219,-123,5,68
322,-194,-518,-60,420,-353,-481,-291,-207,-117,11,74
334,-194,-530,-66,432,-359,-487,-279,-195,-105,17,80
340,-188,-530,-78,432,-359,-493,-267,-183,-99,23,86
352,-182,-536,-84,444,-359,-499,-255,-171,-87,29,98
358,-182,-542,-84,450,-359,-499,-243,-159,-75,41,104
370,-176,-548,-96,456,-359,-505,-225,-141,-57,47,110
382,-164,-548,-108,462,-353,-511,-213,-129,-47,58,116
394,-152,-548,-120,468,-347,-523,-189,-111,-35,69,128
400,-146,-548,-126,474,-347,-523,-171,-93,-23,81,140
412,-134,-548,-138,480,-341,-529,-159,-75,-5,105,146
418,-122,-542,-144,480,-329,-523,-141,-57,7,117,158
424,-116,-542,-156,480,-329,-523,-123,-39,25,123,164
430,-110,-542,-156,486,-323,-511,-99,-15,43,135,170
436,-110,-548,-162,492,-329,-505,-75,8,67,141,182
436,-98,-536,-168,486,-317,-505,-45,25,85,153,188
442,-92,-536,-174,486,-311,-499,-21,49,103,165,200
442,-86,-530,-174,486,-305,-493,3,67,121,177,206
448,-38,-488,-204,468,-263,-499,21,85,127,183,200
460,34,-428,-246,444,-197,-511,33,91,127,177,188
466,92,-374,-276,420,-137,-511,45,103,127,177,182
460,122,-338,-288,402,-107,-499,61,109,133,177,182
460,152,-308,-306,384,-77,-487,79,121,139,183,182
460,182,-278,-318,372,-47,-475,97,133,151,183,182
454,206,-248,-324,354,-17,-463,115,151,163,183,176
442,224,-218,-330,330,7,-451,133,169,175,183,176
436,236,-200,-336,318,19,-445,157,187,187,183,176
424,248,-176,-336,300,37,-433,187,205,205,189,182
418,260,-158,-336,288,55,-421,211,223,217,201,176
406,266,-140,-330,276,66,-397,235,241,229,207,176
394,272,-122,-330,258,77,-367,259,253,241,213,176
388,278,-110,-330,252,83,-343,289,271,247,219,176
376,284,-92,-330,234,95,-307,307,283,253,219,176
364,284,-80,-324,222,101,-277,319,295,259,213,170
352,290,-62,-318,210,113,-247,331,307,265,213,170
340,290,-50,-312,198,119,-217,343,319,265,207,164
328,284,-44,-306,186,119,-199,349,319,259,201,152
316,284,-32,-300,174,125,-175,355,325,259,201,152
298,284,-14,-288,156,137,-151,355,325,265,201,146
274,272,-2,-270,138,137,-127,361,319,253,189,134
250,266,16,-252,120,143,-97,355,307,247,177,116
232,266,34,-246,102,149,-67,349,295,235,165,110
214,254,40,-228,90,149,-37,337,283,223,153,98
196,254,58,-222,72,155,-13,331,271,205,153,86
178,248,70,-210,54,161,5,319,253,187,141,80
160,236,76,-198,42,155,23,301,235,175,129,68
148,230,82,-186,36,155,28,283,217,157,117,56
130,218,87,-168,24,155,33,259,199,139,105,44
112,206,92,-156,12,149,39,241,181,127,93,32
100,200,98,-150,0,149,45,217,163,109,81,26
88,200,110,-144,-12,155,45,199,151,97,69,20
76,188,110,-132,-18,149,57,181,139,85,63,14
58,176,116,-114,-30,149,63,169,121,67,58,8
46,164,116,-102,-36,143,69,145,103,55,47,8
46,152,104,-96,-30,131,75,127,85,37,35,-4
40,140,98,-90,-30,119,75,115,67,25,23,-10
34,134,98,-78,-30,119,75,97,49,13,11,-22
22,128,104,-72,-42,119,69,73,31,1,5,-28
10,122,110,-60,-48,119,69,55,19,-17,-1,-34
10,116,104,-60,-48,113,69,45,8,-29,-1,-40
4,110,104,-54,-48,107,63,27,-3,-41,-13,-51
-2,110,110,-48,-54,113,57,9,-21,-52,-19,-51
-14,98,110,-36,-60,107,57,-3,-33,-57,-31,-56
-26,86,110,-24,-65,101,57,-15,-45,-63,-43,-62
-32,86,116,-24,-70,101,57,-21,-57,-75,-49,-68
-38,80,116,-18,-76,101,45,-33,-69,-87,-61,-74
-43,80,122,-18,-82,101,45,-39,-75,-93,-61,-74
-43,74,116,-12,-76,95,45,-45,-87,-99,-67,-80
-48,62,110,-6,-76,83,45,-57,-93,-105,-67,-86
-54,56,110,-1,-82,83,39,-63,-99,-105,-73,-86
-54,56,110,-1,-82,83,39,-75,-99,-111,-79,-92
-54,45,98,4,-76,71,45,-81,-111,-117,-79,-92
-60,45,104,4,-82,71,51,-93,-117,-123,-79,-92
-60,40,98,4,-82,66,51,-93,-123,-129,-85,-92
-60,40,98,4,-82,66,51,-99,-135,-135,-85,-92
-66,45,110,10,-88,77,45,-105,-141,-141,-85,-92
-66,40,104,10,-88,71,39,-117,-147,-141,-85,-98
-72,40,110,10,-94,71,33,-123,-153,-141,-85,-98
-72,40,110,10,-94,71,28,-129,-153,-141,-91,-98
-72,34,104,16,-88,66,28,-135,-153,-141,-91,-98
-66,28,92,16,-82,61,28,-135,-147,-141,-91,-98
-66,28,92,16,-82,61,28,-135,-147,-141,-85,-98
-66,28,92,16,-82,61,23,-135,-147,-141,-91,-98
-66,28,92,16,-82,61,28,-135,-147,-141,-91,-92
-60,34,92,10,-76,61,28,-135,-147,-141,-91,-92
-66,40,104,10,-88,71,28,-135,-147,-141,-91,-92
-60,40,98,4,-82,66,28,-135,-147,-135,-79,-92
-60,40,98,4,-82,66,28,-135,-147,-135,-73,-86
-66,34,98,16,-82,66,28,-135,-147,-135,-73,-92
-72,28,98,16,-88,61,28,-135,-147,-129,-73,-92
-72,28,98,16,-88,61,28,-135,-147,-123,-73,-92
-72,34,104,16,-88,66,28,-135,-147,-123,-73,-92
-72,34,104,16,-88,66,28,-141,-147,-123,-73,-92
-72,40,110,10,-94,71,28,-129,-141,-129,-73,-92
-72,40,110,10,-94,71,23,-129,-141,-129,-73,-92
-72,34,104,16,-88,66,28,-129,-135,-123,-67,-92
-72,34,104,16,-88,66,28,-129,-129,-117,-67,-86
-66,34,98,16,-82,66,28,-129,-129,-111,-67,-80
-66,28,92,16,-82,61,28,-129,-129,-111,-67,-80
-66,22,87,22,-76,55,28,-129,-129,-111,-61,-74
-66,28,92,16,-82,61,28,-129,-129,-111,-55,-74
-60,34,92,10,-76,61,28,-129,-123,-111,-55,-68
-60,40,98,4,-82,66,28,-123,-117,-111,-55,-62
-60,40,98,4,-82,66,28,-129,-123,-111,-55,-68
-60,40,98,4,-82,66,28,-129,-117,-111,-49,-68
-60,40,98,4,-82,66,28,-129,-117,-111,-49,-68
-60,40,98,4,-82,66,28,-129,-117,-111,-55,-68
-60,34,92,10,-76,61,28,-129,-123,-111,-55,-68
-48,28,76,4,-65,49,33,-129,-123,-105,-55,-68
-48,28,76,4,-65,49,28,-123,-129,-105,-55,-68
-43,28,70,4,-60,49,28,-123,-129,-105,-55,-74
-48,28,76,4,-65,49,28,-123,-129,-105,-61,-74
-48,28,76,4,-65,49,23,-129,-123,-105,-61,-68
-43,28,70,4,-60,49,23,-129,-129,-111,-61,-68
-43,28,70,4,-60,49,17,-129,-123,-111,-61,-62
-48,28,76,4,-65,49,17,-129,-123,-105,-55,-62
-43,28,70,4,-60,49,17,-129,-117,-105,-49,-56
-43,22,64,10,-54,43,11,-129,-117,-105,-49,-56
-43,22,64,10,-54,43,17,-129,-111,-105,-49,-56
-43,22,64,10,-54,43,17,-129,-111,-99,-43,-51
-43,28,70,4,-60,49,17,-129,-111,-93,-43,-51
-43,28,70,4,-60,49,17,-123,-117,-93,-43,-51
-38,28,64,4,-54,49,17,-123,-117,-93,-43,-56
-43,28,70,4,-60,49,17,-123,-117,-99,-43,-56
-43,22,64,10,-54,43,17,-123,-123,-105,-43,-62
-48,16,64,10,-60,37,17,-129,-123,-105,-49,-62
-43,10,52,16,-48,31,17,-129,-123,-105,-49,-62
-43,16,58,10,-54,37,11,-129,-129,-105,-55,-62
-43,10,52,16,-48,31,11,-129,-129,-105,-55,-62
-43,10,52,16,-48,31,17,-129,-129,-105,-55,-62
-43,22,64,10,-54,43,11,-129,-129,-105,-61,-62
-43,40,82,-1,-65,61,5,-135,-135,-111,-61,-62
-43,50,92,-1,-65,71,5,-141,-141,-117,-61,-62
-43,62,104,-6,-70,83,-1,-147,-141,-117,-67,-68
-43,74,116,-12,-76,95,-7,-147,-147,-123,-67,-68
-48,80,128,-18,-88,101,-7,-153,-147,-129,-73,-74
-43,80,122,-18,-82,101,-7,-153,-153,-141,-73,-80
-43,98,140,-24,-88,119,-13,-159,-159,-147,-79,-86
-43,122,164,-36,-100,143,-13,-165,-165,-147,-85,-92
-38,134,170,-42,-100,155,-19,-171,-171,-153,-91,-98
-43,146,188,-48,-112,167,-19,-177,-183,-159,-97,-104
-43,158,200,-54,-118,179,-25,-183,-189,-165,-103,-104
-43,170,212,-60,-124,191,-31,-189,-195,-171,-109,-104
-43,170,212,-60,-124,191,-31,-189,-195,-171,-109,-110
-48,176,224,-66,-136,197,-37,-195,-201,-171,-115,-110
-48,176,224,-66,-136,197,-43,-195,-195,-171,-115,-116
-48,170,218,-60,-130,191,-43,-195,-195,-171,-115,-122
-48,176,224,-66,-136,197,-43,-201,-195,-171,-109,-122
-43,182,224,-66,-130,203,-37,-201,-189,-177,-109,-128
-43,188,230,-72,-136,209,-37,-201,-189,-177,-109,-134
-48,182,230,-66,-136,203,-37,-201,-195,-177,-115,-134
-48,182,230,-66,-136,203,-37,-201,-189,-177,-115,-134
-48,182,230,-66,-136,203,-37,-201,-189,-177,-115,-134
-48,182,230,-66,-136,203,-43,-201,-189,-177,-115,-128
-54,176,230,-60,-142,203,-43,-201,-195,-177,-115,-128
-48,176,224,-66,-136,197,-49,-207,-195,-171,-115,-128
-48,170,218,-60,-130,191,-49,-207,-195,-177,-115,-134
-48,158,206,-54,-124,179,-61,-207,-201,-177,-115,-134
-48,158,206,-54,-124,179,-61,-213,-201,-183,-115,-134
-48,158,206,-54,-124,179,-55,-219,-207,-183,-121,-134
-48,158,206,-54,-124,179,-49,-219,-201,-183,-121,-134
-48,164,212,-60,-130,185,-49,-219,-201,-183,-121,-128
-54,164,218,-54,-136,191,-49,-219,-201,-183,-121,-128
-54,164,218,-54,-136,191,-43,-219,-201,-183,-115,-128
-48,164,212,-60,-130,185,-43,-219,-207,-183,-121,-134
-43,164,206,-60,-124,185,-43,-219,-207,-183,-121,-134
-43,164,206,-60,-124,185,-37,-219,-207,-183,-121,-134
-43,152,194,-54,-118,173,-43,-219,-207,-183,-121,-134
-43,146,188,-48,-112,167,-43,-219,-207,-183,-121,-134
-48,140,188,-48,-118,161,-43,-219,-201,-189,-121,-134
-48,140,188,-48,-118,161,-43,-219,-201,-189,-121,-140
-48,140,188,-48,-118,161,-43,-219,-201,-183,-115,-134
-48,134,182,-42,-112,155,-43,-219,-201,-183,-115,-128
-54,122,176,-30,-112,149,-37,-219,-201,-183,-115,-128
-60,122,182,-30,-118,149,-37,-219,-201,-183,-115,-128
-60,122,182,-30,-118,149,-37,-213,-201,-183,-115,-128
-60,122,182,-30,-118,149,-37,-213,-201,-177,-115,-128
-60,116,176,-30,-118,143,-37,-213,-201,-183,-115,-128
-60,116,176,-30,-118,143,-37,-213,-201,-177,-121,-128
-60,110,170,-24,-112,137,-43,-207,-201,-177,-115,-122
-60,110,170,-24,-112,137,-37,-207,-201,-177,-109,-122
-54,110,164,-24,-106,137,-37,-207,-201,-177,-109,-116
-54,110,164,-24,-106,137,-37,-207,-201,-183,-109,-110
-54,104,158,-24,-106,131,-37,-201,-195,-183,-109,-110
-54,104,158,-24,-106,131,-43,-195,-201,-183,-109,-110
-54,98,152,-18,-100,125,-43,-195,-195,-177,-109,-110
-54,98,152,-18,-100,125,-43,-201,-195,-177,-115,-110
-54,98,152,-18,-100,125,-43,-201,-195,-177,-115,-116
-54,98,152,-18,-100,125,-43,-201,-195,-177,-121,-110
-54,98,152,-18,-100,125,-43,-195,-189,-177,-121,-110
-60,98,158,-18,-106,125,-43,-195,-189,-177,-121,-110
-60,98,158,-18,-106,125,-43,-201,-195,-183,-121,-116
-54,98,152,-18,-100,125,-43,-195,-201,-189,-115,-116
-54,92,146,-18,-100,119,-43,-195,-201,-189,-115,-116
-60,92,152,-18,-106,119,-37,-195,-201,-189,-115,-116
-60,98,158,-18,-106,125,-37,-195,-201,-189,-115,-116
-60,92,152,-18,-106,119,-43,-195,-201,-183,-115,-116
-60,92,152,-18,-106,119,-43,-195,-195,-177,-115,-116
-60,86,146,-12,-100,113,-43,-195,-189,-177,-109,-116
-66,86,152,-6,-106,119,-37,-195,-183,-177,-109,-110
-60,80,140,-12,-100,107,-37,-195,-189,-177,-109,-116
-60,80,140,-12,-100,107,-37,-195,-189,-177,-109,-116
-54,74,128,-6,-88,101,-31,-189,-189,-183,-109,-116
-54,74,128,-6,-88,101,-31,-189,-189,-177,-109,-110
-54,74,128,-6,-88,101,-31,-183,-189,-177,-109,-110
-54,74,128,-6,-88,101,-25,-183,-183,-171,-103,-110
-54,68,122,-6,-88,95,-25,-183,-189,-171,-103,-110
-54,74,128,-6,-88,101,-25,-189,-189,-171,-103,-110
-54,68,122,-6,-88,95,-25,-189,-189,-171,-103,-110
-60,62,122,-1,-88,89,-25,-189,-189,-177,-103,-110
-60,62,122,-1,-88,89,-31,-189,-189,-177,-109,-110
-60,62,122,-1,-88,89,-37,-189,-195,-183,-109,-110
-60,62,122,-1,-88,89,-37,-195,-195,-177,-109,-110
-54,62,116,-1,-82,89,-37,-189,-195,-177,-103,-110
-54,62,116,-1,-82,89,-37,-189,-195,-177,-97,-110
-54,62,116,-1,-82,89,-37,-189,-195,-177,-97,-110
-54,68,122,-6,-88,95,-37,-195,-189,-183,-97,-104
-54,62,116,-1,-82,89,-37,-195,-189,-183,-97,-110
-48,68,116,-12,-82,89,-31,-201,-189,-183,-103,-110
-48,62,110,-6,-76,83,-31,-195,-189,-183,-103,-110
-54,50,104,4,-76,77,-31,-201,-189,-183,-103,-110
-54,50,104,4,-76,77,-31,-195,-189,-177,-103,-110
-60,45,104,4,-82,71,-31,-195,-189,-177,-103,-110
-60,45,104,4,-82,71,-31,-189,-183,-171,-103,-110
-60,45,104,4,-82,71,-25,-183,-183,-171,-103,-110
-54,45,98,4,-76,71,-25,-183,-177,-171,-103,-110
-48,45,92,-1,-70,66,-25,-183,-177,-171,-103,-110
-54,40,92,4,-76,66,-19,-189,-177,-177,-103,-110
-54,40,92,4,-76,66,-19,-189,-183,-183,-103,-110
-54,34,87,10,-70,61,-13,-189,-183,-183,-103,-110
-54,34,87,10,-70,61,-13,-189,-183,-177,-103,-110
-60,28,87,10,-76,55,-13,-189,-177,-177,-97,-110
-60,34,92,10,-76,61,-13,-195,-171,-177,-97,-104
-60,34,92,10,-76,61,-13,-189,-165,-171,-91,-104
-60,34,92,10,-76,61,-13,-189,-165,-171,-91,-104
-60,28,87,10,-76,55,-13,-189,-165,-171,-85,-104
-54,34,87,10,-70,61,-7,-183,-159,-171,-85,-98
-54,40,92,4,-76,66,-7,-183,-159,-165,-85,-98
-54,40,92,4,-76,66,-1,-177,-153,-165,-79,-92
-54,45,98,4,-76,71,5,-177,-147,-159,-79,-92
-54,45,98,4,-76,71,5,-177,-147,-159,-79,-92
-54,50,104,4,-76,77,11,-177,-141,-153,-79,-86
-54,56,110,-1,-82,83,17,-171,-135,-147,-73,-80
-54,56,110,-1,-82,83,17,-171,-135,-147,-67,-86
-60,62,122,-1,-88,89,23,-165,-129,-141,-61,-80
-54,56,110,-1,-82,83,28,-159,-123,-135,-61,-80
-54,56,110,-1,-82,83,33,-159,-129,-135,-61,-80
-48,62,110,-6,-76,83,28,-159,-129,-135,-61,-80
-48,62,110,-6,-76,83,28,-153,-129,-129,-61,-74
-48,68,116,-12,-82,89,28,-153,-123,-129,-61,-74
-43,68,110,-12,-76,89,33,-147,-123,-129,-55,-68
-38,80,116,-18,-76,101,33,-141,-117,-129,-55,-68
-38,86,122,-18,-76,107,33,-147,-117,-129,-49,-62
-38,98,134,-24,-82,119,39,-141,-111,-129,-43,-56
-38,104,140,-30,-88,125,39,-141,-111,-123,-43,-56
-38,104,140,-30,-88,125,45,-135,-105,-117,-43,-51
-32,110,140,-36,-82,125,45,-135,-99,-117,-43,-51
-20,116,134,-48,-76,125,45,-135,-99,-117,-37,-51
-20,110,128,-42,-70,119,39,-135,-99,-117,-37,-51
-14,110,122,-42,-65,119,33,-141,-99,-117,-43,-56
-14,110,122,-42,-65,119,33,-147,-105,-123,-43,-56
-8,110,116,-48,-60,113,28,-147,-99,-117,-43,-56
-8,110,116,-48,-60,113,23,-147,-99,-117,-43,-56
-2,110,110,-48,-54,113,17,-153,-105,-123,-43,-56
4,110,104,-54,-48,107,5,-159,-111,-123,-43,-56
4,116,110,-60,-54,113,-7,-165,-111,-123,-43,-51
10,116,104,-60,-48,113,-13,-165,-111,-123,-43,-51
10,116,104,-60,-48,113,-13,-177,-117,-123,-43,-46
16,110,92,-60,-36,101,-25,-177,-117,-129,-43,-46
16,110,92,-60,-36,101,-25,-183,-117,-129,-43,-40
16,110,92,-60,-36,101,-31,-177,-117,-135,-43,-40
22,116,92,-66,-36,107,-31,-177,-117,-135,-43,-40
22,116,92,-66,-36,107,-31,-183,-117,-135,-43,-40
22,116,92,-66,-36,107,-31,-189,-129,-135,-49,-46
22,116,92,-66,-36,107,-43,-195,-135,-141,-55,-46
22,98,76,-54,-24,89,-49,-201,-141,-141,-55,-51
22,86,64,-48,-18,77,-49,-201,-141,-141,-55,-51
10,74,64,-36,-24,71,-49,-195,-141,-141,-61,-56
-2,68,70,-30,-36,71,-43,-195,-141,-141,-61,-56
-2,62,64,-24,-30,66,-31,-195,-141,-141,-61,-62
-14,50,64,-12,-36,61,-25,-189,-141,-141,-67,-68
-26,40,64,-6,-48,55,-25,-189,-141,-147,-73,-74
-38,28,64,4,-54,49,-19,-195,-147,-153,-73,-80
-43,16,58,10,-54,37,-13,-201,-153,-159,-85,-86
-43,4,46,16,-48,25,-13,-201,-153,-165,-85,-92
-54,-8,46,28,-54,19,-13,-201,-159,-171,-91,-92
-54,-8,46,28,-54,19,-13,-207,-165,-171,-97,-98
-48,-14,34,28,-42,7,-19,-213,-165,-171,-103,-104
-48,-14,34,28,-42,7,-31,-213,-171,-177,-103,-110
-48,-20,28,28,-42,1,-37,-219,-171,-177,-103,-110
-43,-20,22,28,-36,1,-43,-213,-177,-177,-103,-110
-43,-20,22,28,-36,1,-43,-213,-177,-177,-97,-104
-43,-20,22,28,-36,1,-43,-201,-177,-177,-91,-104
-43,-14,28,28,-36,7,-37,-195,-171,-171,-85,-98
-48,-14,34,28,-42,7,-25,-189,-159,-165,-79,-92
-48,-8,40,22,-48,13,-19,-183,-147,-159,-79,-92
-43,4,46,16,-48,25,-7,-171,-135,-147,-67,-80
-43,10,52,16,-48,31,-1,-153,-123,-135,-61,-74
-43,16,58,10,-54,37,11,-135,-105,-117,-49,-62
-43,28,70,4,-60,49,17,-117,-81,-99,-37,-56
-48,40,87,-1,-70,61,28,-99,-69,-81,-25,-51
-48,56,104,-6,-76,77,33,-81,-45,-63,-13,-40
-60,74,134,-6,-94,101,51,-63,-27,-47,5,-28
-66,86,152,-6,-106,119,63,-39,-3,-29,23,-10
-72,92,164,-12,-118,125,81,-15,8,-11,35,2
-72,110,182,-18,-124,143,99,9,25,1,47,8
-72,128,200,-30,-136,161,117,33,49,25,58,20
-84,140,224,-30,-154,179,135,55,73,43,69,26
-90,152,242,-30,-166,197,147,79,91,67,81,38
-90,164,254,-36,-172,209,159,103,115,91,93,38
-90,170,260,-36,-172,215,177,133,139,115,105,44
-90,182,272,-42,-178,227,195,163,169,133,117,56
-90,194,284,-48,-184,239,219,211,199,157,135,68
-90,218,308,-60,-196,263,249,259,241,181,159,80
-96,224,320,-66,-208,269,279,313,283,211,177,92
-96,236,332,-72,-214,281,309,361,319,235,195,98
-90,254,344,-78,-214,299,339,403,361,265,219,110
-90,266,356,-84,-220,311,369,457,409,301,243,116
-84,278,362,-96,-220,317,405,523,451,331,255,128
-78,290,368,-102,-220,329,447,589,487,361,267,128
-72,290,362,-108,-214,323,501,673,541,403,279,134
-60,308,368,-126,-214,335,561,769,613,445,303,152
-60,326,386,-132,-220,353,627,871,685,493,345,176
-60,350,410,-144,-232,377,693,973,763,547,381,200
-66,374,440,-150,-250,407,783,1075,859,613,429,218
-84,404,488,-162,-286,443,873,1195,955,691,483,248
-96,452,548,-180,-322,497,963,1315,1075,787,549,284
-108,518,626,-204,-364,569,1053,1447,1207,907,621,326
-120,584,704,-234,-412,641,1143,1603,1357,1045,705,380
-138,644,782,-252,-460,713,1239,1771,1525,1183,783,428
-150,710,860,-276,-502,785,1335,1957,1699,1327,867,476
-156,782,938,-312,-544,857,1413,2149,1897,1477,963,536
-168,848,1016,-342,-592,929,1467,2329,2113,1633,1059,596
-174,902,1076,-360,-622,989,1503,2502,2329,1789,1155,656
-168,950,1118,-390,-640,1031,1515,2664,2544,1939,1251,698
-144,986,1130,-420,-634,1055,1491,2814,2742,2077,1335,740
-108,1010,1118,-450,-610,1061,1443,2952,2934,2209,1395,764
-78,974,1052,-444,-562,1013,1407,3072,3072,2269,1401,746
-72,902,974,-414,-520,935,1371,3114,3114,2251,1341,692
-84,800,884,-360,-484,839,1305,3042,3012,2125,1221,614
-102,680,782,-288,-442,731,1233,2880,2808,1915,1065,518
-138,578,716,-216,-424,647,1161,2622,2532,1663,903,428
-186,488,674,-150,-430,581,1077,2221,2161,1375,735,338
-228,392,620,-84,-424,503,939,1699,1699,1051,561,236
-270,284,554,-6,-412,419,765,1141,1213,715,381,128
-318,170,488,76,-400,329,591,595,733,397,213,26
-354,86,440,136,-394,263,429,121,325,145,81,-56
-390,22,410,184,-400,215,285,-207,37,-35,-13,-110
-402,-20,380,208,-394,179,165,-417,-153,-153,-85,-146
-408,-50,356,226,-382,149,63,-555,-285,-231,-139,-158
-396,-62,332,226,-364,131,-13,-633,-363,-279,-169,-170
-390,-62,326,226,-358,131,-79,-681,-405,-315,-181,-164
-384,-68,314,220,-352,119,-127,-717,-435,-345,-193,-164
-372,-80,290,220,-334,101,-163,-747,-471,-375,-205,-170
-354,-86,266,220,-310,89,-181,-759,-495,-387,-211,-170
-336,-92,242,208,-292,71,-187,-747,-507,-399,-211,-176
-324,-104,218,208,-274,55,-199,-747,-513,-399,-217,-176
-312,-116,194,208,-256,37,-205,-741,-519,-405,-217,-176
-300,-116,182,202,-244,31,-211,-741,-525,-405,-217,-176
-288,-116,170,196,-232,25,-217,-735,-525,-405,-217,-170
-276,-104,170,184,-226,31,-229,-723,-519,-405,-217,-164
-258,-110,146,184,-202,19,-235,-705,-513,-399,-223,-164
-234,-116,116,172,-178,1,-235,-669,-495,-387,-223,-158
-204,-122,82,160,-142,-23,-223,-621,-465,-369,-217,-152
-174,-128,46,148,-112,-41,-217,-567,-435,-351,-211,-152
-144,-134,10,136,-76,-65,-211,-513,-405,-327,-199,-146
-120,-128,-8,118,-60,-71,-199,-465,-375,-315,-181,-140
-102,-128,-26,112,-42,-77,-175,-423,-357,-297,-175,-128
-84,-122,-38,100,-24,-83,-157,-387,-327,-279,-157,-116
-72,-110,-38,88,-18,-77,-145,-363,-309,-267,-145,-110
-54,-110,-56,82,0,-83,-133,-339,-291,-249,-139,-98
-43,-104,-62,70,6,-83,-121,-315,-273,-231,-127,-98
-32,-104,-74,64,18,-89,-121,-303,-261,-219,-121,-92
-20,-98,-80,58,30,-89,-121,-285,-249,-213,-121,-92
-14,-98,-86,58,36,-89,-121,-273,-237,-207,-115,-92
-8,-98,-92,52,42,-95,-121,-267,-237,-207,-115,-92
-8,-98,-92,52,42,-95,-127,-267,-243,-207,-115,-86
-8,-98,-92,52,42,-95,-127,-261,-237,-207,-115,-86
-8,-98,-92,52,42,-95,-127,-261,-231,-207,-109,-80
4,-98,-104,46,54,-101,-127,-255,-231,-207,-109,-74
4,-92,-98,40,48,-95,-127,-255,-231,-207,-103,-74
10,-92,-104,40,54,-95,-127,-249,-225,-201,-103,-74
10,-92,-104,40,54,-95,-127,-243,-225,-201,-103,-74
10,-92,-104,40,54,-95,-127,-243,-225,-195,-109,-80
16,-80,-98,28,54,-89,-133,-243,-225,-195,-103,-80
22,-80,-104,28,60,-89,-127,-237,-219,-195,-103,-80
22,-86,-110,34,66,-95,-127,-243,-219,-195,-103,-80
28,-80,-110,22,66,-95,-133,-237,-213,-195,-109,-74
34,-80,-116,22,72,-95,-133,-243,-213,-195,-109,-74
40,-80,-122,16,78,-101,-133,-243,-213,-195,-103,-74
40,-80,-122,16,78,-101,-139,-243,-213,-195,-103,-74
46,-74,-122,16,84,-95,-145,-237,-213,-189,-103,-74
46,-80,-128,16,84,-101,-151,-237,-219,-189,-103,-74
40,-80,-122,16,78,-101,-157,-237,-225,-195,-103,-74
34,-86,-122,28,78,-101,-157,-243,-231,-195,-103,-80
34,-86,-122,28,78,-101,-163,-243,-225,-195,-103,-80
40,-86,-128,22,84,-107,-163,-243,-219,-195,-103,-74
40,-86,-128,22,84,-107,-169,-249,-219,-201,-103,-74
46,-86,-134,22,90,-107,-169,-255,-219,-201,-97,-74
52,-92,-146,16,96,-119,-169,-255,-219,-201,-97,-68
58,-98,-158,22,108,-125,-175,-261,-219,-195,-97,-68
64,-98,-164,16,114,-131,-181,-261,-225,-195,-103,-68
64,-92,-158,10,108,-125,-187,-261,-231,-195,-103,-62
70,-92,-164,10,114,-125,-193,-261,-225,-195,-103,-62
70,-92,-164,10,114,-125,-199,-261,-231,-195,-103,-62
76,-92,-170,4,120,-131,-205,-261,-237,-195,-103,-56
82,-92,-176,4,126,-131,-211,-261,-237,-195,-103,-56
82,-92,-176,4,126,-131,-217,-267,-237,-201,-103,-51
88,-86,-176,-1,132,-131,-223,-273,-237,-201,-103,-51
94,-80,-176,-6,132,-125,-229,-279,-243,-201,-109,-51
100,-74,-176,-12,138,-125,-241,-285,-249,-207,-109,-51
106,-80,-188,-12,144,-131,-253,-291,-249,-207,-103,-56
112,-74,-188,-18,150,-131,-259,-297,-255,-213,-103,-51
124,-68,-194,-30,156,-131,-277,-303,-261,-213,-103,-56
124,-74,-200,-24,162,-137,-289,-315,-267,-219,-103,-56
130,-74,-206,-24,168,-137,-295,-321,-273,-219,-103,-62
130,-74,-206,-24,168,-137,-307,-327,-279,-219,-109,-62
148,-74,-224,-36,186,-149,-319,-333,-285,-225,-103,-56
160,-74,-236,-42,198,-155,-325,-339,-285,-225,-103,-51
160,-68,-230,-48,192,-149,-337,-345,-291,-225,-109,-51
172,-68,-242,-54,204,-155,-349,-351,-297,-225,-103,-46
178,-68,-248,-54,210,-155,-361,-351,-297,-225,-103,-40
184,-68,-254,-60,216,-161,-367,-351,-303,-219,-97,-34
190,-62,-254,-60,222,-155,-379,-351,-303,-219,-97,-28
202,-62,-266,-66,234,-161,-391,-357,-303,-213,-91,-22
214,-62,-278,-72,246,-167,-397,-357,-303,-213,-85,-16
220,-56,-278,-84,246,-167,-409,-363,-303,-219,-79,-10
226,-50,-278,-84,252,-161,-415,-369,-303,-219,-79,-4
232,-44,-278,-96,252,-161,-427,-375,-303,-213,-79,-4
238,-44,-284,-96,258,-161,-445,-375,-297,-213,-79,-4
256,-32,-290,-114,270,-161,-457,-363,-291,-201,-73,2
268,-20,-290,-126,276,-155,-469,-363,-291,-195,-61,8
274,-20,-296,-126,282,-155,-487,-357,-291,-189,-55,20
280,-14,-296,-132,288,-155,-499,-357,-285,-189,-55,26
292,-14,-308,-138,300,-161,-511,-345,-285,-177,-49,32
304,-8,-314,-150,306,-161,-517,-339,-273,-171,-43,38
316,-2,-320,-156,318,-161,-523,-333,-267,-159,-31,44
328,4,-326,-168,324,-161,-529,-321,-249,-153,-19,50
340,4,-338,-174,336,-167,-529,-303,-237,-141,-7,62
352,16,-338,-186,342,-161,-535,-291,-219,-129,5,68
364,22,-344,-192,354,-161,-541,-279,-207,-111,11,74
376,28,-350,-204,360,-161,-547,-267,-189,-99,23,80
382,40,-344,-210,360,-149,-547,-249,-177,-81,35,92
388,45,-344,-216,366,-149,-553,-225,-159,-57,47,104
400,56,-344,-228,372,-143,-553,-201,-135,-47,58,110
406,62,-344,-228,378,-137,-553,-177,-117,-29,63,122
418,74,-344,-240,384,-131,-553,-153,-87,-11,75,128
424,80,-344,-252,384,-131,-547,-129,-57,7,87,134
430,86,-344,-252,390,-125,-541,-99,-33,25,99,146
436,86,-350,-258,396,-131,-535,-81,-9,43,117,152
436,86,-350,-258,396,-131,-529,-51,13,61,129,158
442,98,-344,-264,396,-119,-511,-27,37,85,147,170
448,116,-332,-282,390,-107,-505,-3,61,103,159,176
448,128,-320,-288,384,-95,-493,27,79,121,165,182
442,134,-308,-282,378,-83,-481,50,103,139,177,188
436,134,-302,-282,372,-83,-469,79,127,151,183,194
442,140,-302,-288,372,-77,-457,103,151,169,189,200
442,134,-308,-282,378,-83,-439,133,175,193,201,206
442,140,-302,-288,372,-77,-427,163,199,205,213,212
442,152,-290,-294,366,-65,-409,193,223,217,219,212
436,158,-278,-294,360,-59,-391,223,241,235,231,212
430,164,-266,-294,348,-47,-367,253,271,247,237,218
424,170,-254,-294,342,-41,-343,283,295,259,249,218
412,182,-230,-294,324,-23,-325,313,313,271,255,218
400,182,-218,-288,312,-17,-295,337,331,283,255,218
382,182,-200,-276,294,-5,-271,361,349,295,255,218
370,182,-188,-270,282,1,-247,379,355,301,261,212
352,176,-176,-264,264,1,-217,397,367,307,261,212
340,176,-164,-258,252,7,-187,409,379,307,255,206
328,176,-152,-252,240,13,-157,415,379,307,249,200
310,170,-140,-234,228,19,-121,421,379,301,243,194
286,164,-122,-222,204,25,-91,421,379,289,237,182
268,158,-110,-210,192,25,-61,421,373,283,231,176
250,152,-98,-198,174,31,-37,415,361,271,219,164
232,146,-86,-186,162,31,-19,415,355,259,207,152
208,140,-68,-174,138,37,5,403,343,247,195,140
196,128,-68,-162,132,31,23,397,325,235,183,128
178,116,-62,-144,120,31,33,379,307,223,171,122
154,104,-50,-126,102,31,45,367,295,205,165,116
136,92,-44,-114,90,25,57,349,271,187,153,104
118,86,-32,-96,78,31,69,325,253,169,147,98
100,80,-20,-90,60,31,75,307,235,151,135,92
88,68,-20,-78,54,25,87,289,217,139,123,86
76,62,-14,-66,48,25,99,271,199,127,111,74
64,50,-14,-54,42,19,105,253,187,115,93,62
52,45,-8,-48,30,19,111,229,169,97,81,44
46,34,-14,-36,30,13,111,211,145,79,75,32
34,28,-8,-30,18,13,117,193,127,61,63,20
22,16,-8,-18,12,7,123,175,109,49,58,14
10,4,-8,-6,6,1,123,151,91,31,53,8
-2,-2,-2,4,0,1,123,133,79,13,47,8
-14,-8,4,10,-12,1,123,115,61,-5,35,-4
-20,-14,4,16,-12,-5,117,97,49,-11,29,-10
-32,-20,10,22,-24,-5,117,79,31,-23,23,-16
-32,-26,4,28,-18,-11,117,67,19,-35,11,-22
-32,-32,-2,28,-18,-17,111,55,8,-41,-1,-28
-38,-38,-2,40,-18,-17,111,50,3,-52,-7,-28
-43,-50,-8,46,-18,-29,105,39,-9,-57,-19,-40
-43,-62,-20,52,-12,-41,105,27,-21,-63,-25,-40
-43,-62,-20,52,-12,-41,99,21,-27,-75,-31,-46
-48,-68,-20,52,-18,-47,99,9,-27,-87,-37,-46
-48,-68,-20,52,-18,-47,99,-3,-33,-93,-43,-46
-54,-62,-8,58,-24,-35,99,-15,-45,-99,-43,-46
-54,-68,-14,58,-24,-41,99,-27,-51,-105,-49,-51
-54,-62,-8,58,-24,-35,93,-39,-63,-105,-55,-51
-54,-62,-8,58,-24,-35,93,-45,-69,-105,-55,-51
-54,-68,-14,58,-24,-41,93,-51,-75,-111,-55,-51
-60,-80,-20,64,-24,-53,93,-57,-81,-117,-55,-56
-60,-80,-20,64,-24,-53,87,-69,-81,-117,-61,-56
-60,-80,-20,64,-24,-53,87,-75,-87,-117,-61,-56
-60,-86,-26,70,-18,-59,81,-75,-87,-117,-61,-56
-60,-80,-20,64,-24,-53,81,-81,-93,-123,-67,-56
-66,-80,-14,70,-30,-47,81,-81,-99,-123,-67,-56
-66,-74,-8,70,-30,-41,81,-87,-105,-123,-67,-56
-66,-80,-14,70,-30,-47,81,-81,-99,-117,-61,-51
-66,-74,-8,70,-30,-41,81,-81,-99,-117,-61,-51
-66,-68,-2,64,-36,-35,75,-87,-105,-117,-61,-56
-72,-68,4,64,-42,-35,75,-93,-105,-117,-61,-56
-72,-68,4,64,-42,-35,75,-99,-99,-117,-61,-56
-72,-74,-2,70,-36,-41,75,-105,-99,-123,-61,-62
-72,-86,-14,76,-30,-53,69,-105,-105,-123,-61,-56
-72,-80,-8,70,-36,-47,69,-99,-105,-117,-55,-56
-72,-80,-8,70,-36,-47,69,-93,-105,-111,-55,-56
-66,-80,-14,70,-30,-47,63,-87,-105,-111,-55,-56
-72,-86,-14,76,-30,-53,57,-87,-111,-117,-55,-56
-72,-86,-14,76,-30,-53,57,-93,-111,-117,-61,-56
-72,-80,-8,70,-36,-47,51,-87,-99,-111,-55,-51
-66,-74,-8,70,-30,-41,57,-87,-87,-111,-49,-51
-66,-68,-2,64,-36,-35,57,-87,-87,-117,-49,-51
-66,-68,-2,64,-36,-35,57,-87,-87,-117,-49,-51
-66,-62,4,64,-36,-29,63,-87,-81,-111,-49,-56
-66,-62,4,64,-36,-29,63,-87,-81,-111,-43,-56
-60,-56,4,52,-36,-29,63,-87,-81,-111,-49,-51
-60,-56,4,52,-36,-29,63,-87,-81,-105,-49,-51
-60,-56,4,52,-36,-29,57,-87,-81,-105,-49,-51
-60,-62,-2,58,-30,-35,57,-87,-75,-99,-43,-51
-48,-50,-2,46,-24,-29,57,-87,-75,-99,-43,-51
-48,-50,-2,46,-24,-29,57,-81,-75,-99,-31,-46
-60,-56,4,52,-36,-29,57,-87,-81,-99,-31,-46
-60,-56,4,52,-36,-29,57,-81,-75,-93,-31,-46
-60,-56,4,52,-36,-29,57,-81,-75,-93,-31,-40
-54,-62,-8,58,-24,-35,57,-81,-75,-93,-31,-40
-54,-62,-8,58,-24,-35,57,-81,-75,-93,-31,-40
-60,-62,-2,58,-30,-35,57,-81,-81,-93,-31,-34
-60,-56,4,52,-36,-29,57,-87,-75,-87,-25,-34
-54,-50,4,52,-30,-23,57,-87,-75,-87,-25,-28
-54,-50,4,52,-30,-23,51,-93,-75,-93,-25,-34
-54,-56,-2,52,-30,-29,57,-87,-69,-93,-19,-40
-48,-56,-8,46,-24,-35,57,-93,-69,-93,-19,-34
-48,-56,-8,46,-24,-35,57,-93,-69,-93,-19,-40
-54,-62,-8,58,-24,-35,57,-87,-69,-93,-19,-40
-48,-56,-8,46,-24,-35,57,-87,-69,-87,-19,-40
-43,-50,-8,46,-18,-29,51,-93,-75,-87,-19,-40
-43,-50,-8,46,-18,-29,51,-93,-75,-87,-25,-40
-43,-50,-8,46,-18,-29,51,-93,-75,-87,-25,-40
-43,-56,-14,46,-18,-35,51,-93,-75,-87,-25,-40
-48,-56,-8,46,-24,-35,51,-99,-81,-87,-31,-40
-43,-50,-8,46,-18,-29,45,-99,-81,-93,-31,-40
-43,-44,-2,40,-24,-23,45,-99,-81,-87,-31,-40
-43,-44,-2,40,-24,-23,45,-93,-75,-87,-31,-40
-43,-38,4,40,-24,-17,45,-93,-75,-93,-31,-40
-43,-38,4,40,-24,-17,45,-93,-75,-93,-37,-40
-38,-44,-8,40,-18,-23,45,-87,-75,-87,-37,-34
-38,-44,-8,40,-18,-23,39,-87,-75,-93,-43,-34
-38,-44,-8,40,-18,-23,39,-81,-75,-87,-43,-34
-38,-44,-8,40,-18,-23,39,-81,-75,-87,-43,-34
-32,-50,-20,40,-6,-35,45,-81,-75,-87,-37,-34
-32,-56,-26,40,-6,-41,45,-75,-81,-87,-37,-34
-38,-62,-26,52,-6,-41,39,-81,-81,-87,-37,-34
-38,-68,-32,52,-6,-47,39,-81,-81,-93,-37,-34
-43,-68,-26,52,-12,-47,33,-87,-81,-87,-37,-40
-43,-68,-26,52,-12,-47,33,-93,-81,-93,-37,-40
-43,-68,-26,52,-12,-47,33,-93,-81,-93,-37,-40
-43,-68,-26,52,-12,-47,33,-99,-81,-93,-43,-40
-43,-68,-26,52,-12,-47,33,-99,-87,-93,-43,-40
-38,-62,-26,52,-6,-41,33,-99,-87,-99,-43,-40
-43,-62,-20,52,-12,-41,33,-99,-93,-93,-43,-34
-43,-62,-20,52,-12,-41,33,-99,-93,-87,-37,-34
-43,-62,-20,52,-12,-41,28,-99,-93,-87,-37,-34
-43,-62,-20,52,-12,-41,28,-99,-93,-87,-37,-34
-43,-68,-26,52,-12,-47,23,-99,-87,-87,-37,-34
-43,-62,-20,52,-12,-41,23,-93,-87,-87,-37,-34
-48,-68,-20,52,-18,-47,17,-99,-93,-93,-43,-46
-48,-68,-20,52,-18,-47,23,-99,-93,-99,-49,-46
-48,-74,-26,58,-12,-53,28,-99,-93,-93,-43,-46
-43,-74,-32,58,-6,-53,33,-99,-93,-93,-43,-46
-43,-74,-32,58,-6,-53,33,-105,-93,-93,-37,-40
-48,-74,-26,58,-12,-53,28,-111,-93,-105,-37,-40
-48,-68,-20,52,-18,-47,28,-111,-87,-99,-37,-40
-54,-62,-8,58,-24,-35,28,-117,-87,-99,-37,-34
-48,-62,-14,52,-18,-41,28,-117,-87,-99,-43,-34
-54,-68,-14,58,-24,-41,23,-123,-93,-105,-43,-34
-54,-68,-14,58,-24,-41,17,-123,-93,-105,-43,-34
-48,-68,-20,52,-18,-47,23,-117,-93,-105,-43,-40
-48,-68,-20,52,-18,-47,23,-117,-93,-111,-43,-46
-43,-68,-26,52,-12,-47,23,-117,-99,-111,-43,-51
-43,-74,-32,58,-6,-53,23,-117,-99,-111,-43,-51
-48,-74,-26,58,-12,-53,17,-117,-99,-117,-43,-51
-48,-86,-38,64,-6,-65,23,-117,-99,-111,-37,-46
-48,-80,-32,58,-12,-59,23,-117,-99,-111,-37,-51
-48,-74,-26,58,-12,-53,23,-117,-99,-111,-37,-51
-48,-74,-26,58,-12,-53,23,-117,-99,-117,-43,-51
-54,-74,-20,64,-18,-47,23,-117,-99,-117,-43,-56
-54,-74,-20,64,-18,-47,23,-117,-99,-117,-43,-56
-54,-80,-26,64,-18,-53,23,-117,-99,-117,-49,-51
-48,-80,-32,58,-12,-59,17,-117,-105,-117,-49,-51
-54,-92,-38,70,-12,-65,23,-117,-105,-117,-55,-51
-48,-80,-32,58,-12,-59,23,-117,-111,-111,-55,-51
-48,-74,-26,58,-12,-53,17,-117,-111,-111,-55,-51
-43,-74,-32,58,-6,-53,17,-123,-105,-111,-49,-56
-43,-74,-32,58,-6,-53,17,-123,-99,-117,-49,-56
-43,-74,-32,58,-6,-53,23,-117,-99,-117,-49,-51
-43,-74,-32,58,-6,-53,23,-117,-99,-117,-49,-51
-43,-68,-26,52,-12,-47,17,-117,-105,-123,-49,-46
-43,-68,-26,52,-12,-47,11,-117,-99,-123,-55,-40
-38,-74,-38,58,0,-53,11,-117,-105,-123,-49,-40
-38,-68,-32,52,-6,-47,11,-117,-99,-123,-49,-46
-38,-62,-26,52,-6,-41,11,-117,-99,-123,-43,-46
-32,-62,-32,46,0,-47,11,-123,-99,-123,-37,-40
-32,-68,-38,46,0,-53,11,-117,-99,-117,-37,-46
-38,-68,-32,52,-6,-47,11,-123,-99,-111,-37,-40
-38,-74,-38,58,0,-53,11,-123,-105,-111,-37,-46
-38,-68,-32,52,-6,-47,5,-123,-105,-111,-43,-51
-38,-62,-26,52,-6,-41,11,-123,-105,-111,-43,-51
-38,-62,-26,52,-6,-41,5,-123,-105,-111,-43,-51
-43,-68,-26,52,-12,-47,-1,-123,-105,-111,-43,-51
-43,-74,-32,58,-6,-53,-1,-123,-99,-111,-37,-51
-43,-74,-32,58,-6,-53,-1,-123,-105,-117,-31,-51
-38,-80,-44,58,0,-59,11,-117,-105,-111,-31,-46
-38,-74,-38,58,0,-53,5,-117,-105,-111,-25,-40
-38,-80,-44,58,0,-59,5,-117,-99,-111,-25,-40
-43,-74,-32,58,-6,-53,5,-117,-105,-111,-31,-46
-43,-74,-32,58,-6,-53,-1,-117,-105,-111,-25,-46
-43,-74,-32,58,-6,-53,-1,-117,-105,-111,-31,-46
-43,-74,-32,58,-6,-53,-1,-117,-105,-111,-37,-46
-43,-80,-38,58,-6,-59,-1,-111,-99,-99,-31,-46
-48,-74,-26,58,-12,-53,-1,-111,-99,-99,-31,-46
-43,-74,-32,58,-6,-53,-1,-111,-93,-99,-31,-46
-38,-74,-38,58,0,-53,-1,-105,-93,-93,-25,-40
-32,-68,-38,46,0,-53,5,-105,-93,-93,-25,-34
-32,-68,-38,46,0,-53,5,-105,-93,-87,-19,-34
-32,-68,-38,46,0,-53,5,-111,-93,-93,-19,-34
-32,-68,-38,46,0,-53,-1,-111,-99,-99,-25,-40
-32,-68,-38,46,0,-53,-1,-111,-93,-105,-31,-46
-38,-68,-32,52,-6,-47,-7,-117,-93,-117,-31,-46
-32,-62,-32,46,0,-47,-7,-117,-93,-111,-37,-51
-38,-62,-26,52,-6,-41,-7,-117,-93,-117,-37,-56
-32,-68,-38,46,0,-53,-13,-111,-93,-105,-25,-51
-32,-62,-32,46,0,-47,-13,-111,-93,-99,-19,-46
-26,-62,-38,46,6,-47,-19,-117,-93,-99,-25,-40
-32,-62,-32,46,0,-47,-19,-117,-93,-105,-31,-40
-32,-62,-32,46,0,-47,-13,-117,-99,-105,-37,-40
-38,-68,-32,52,-6,-47,-13,-117,-99,-105,-37,-40
-38,-62,-26,52,-6,-41,-13,-117,-99,-105,-25,-40
-38,-62,-26,52,-6,-41,-13,-117,-99,-105,-25,-51
-38,-56,-20,46,-12,-35,-19,-117,-105,-105,-31,-51
-32,-50,-20,40,-6,-35,-19,-117,-99,-105,-31,-51
-20,-50,-32,34,6,-41,-19,-117,-93,-99,-37,-51
-32,-62,-32,46,0,-47,-25,-117,-87,-99,-37,-51
-38,-68,-32,52,-6,-47,-19,-117,-87,-99,-37,-46
-38,-74,-38,58,0,-53,-19,-117,-87,-93,-37,-46
-43,-80,-38,58,-6,-59,-13,-117,-87,-93,-31,-46
-43,-74,-32,58,-6,-53,-13,-117,-93,-87,-25,-40
-48,-80,-32,58,-12,-59,-19,-117,-93,-93,-25,-46
-43,-74,-32,58,-6,-53,-19,-117,-93,-87,-25,-46
-38,-68,-32,52,-6,-47,-19,-111,-87,-87,-25,-40
-43,-74,-32,58,-6,-53,-25,-117,-93,-87,-25,-40
-38,-68,-32,52,-6,-47,-25,-117,-87,-93,-31,-40
-38,-74,-38,58,0,-53,-25,-117,-87,-93,-31,-40
-38,-74,-38,58,0,-53,-25,-117,-87,-99,-31,-40
-38,-74,-38,58,0,-53,-19,-117,-81,-99,-37,-40
-38,-68,-32,52,-6,-47,-19,-117,-81,-93,-31,-40
-38,-68,-32,52,-6,-47,-19,-117,-81,-93,-31,-40
-38,-68,-32,52,-6,-47,-19,-117,-81,-99,-31,-46
-32,-74,-44,52,6,-59,-19,-117,-81,-99,-25,-40
-38,-74,-38,58,0,-53,-25,-111,-81,-93,-25,-40
-43,-86,-44,64,0,-65,-25,-117,-81,-99,-25,-46
-43,-86,-44,64,0,-65,-25,-117,-81,-99,-25,-40
-43,-74,-32,58,-6,-53,-25,-117,-87,-99,-31,-40
-43,-62,-20,52,-12,-41,-25,-123,-87,-99,-37,-40
-43,-56,-14,46,-18,-35,-19,-123,-81,-99,-37,-34
-38,-56,-20,46,-12,-35,-19,-123,-81,-99,-37,-34
-32,-56,-26,40,-6,-41,-19,-123,-81,-99,-31,-40
-38,-62,-26,52,-6,-41,-25,-123,-87,-99,-25,-40
-32,-68,-38,46,0,-53,-25,-123,-81,-93,-25,-40
-38,-62,-26,52,-6,-41,-25,-117,-81,-93,-31,-46
-43,-68,-26,52,-12,-47,-25,-117,-81,-93,-37,-46
-43,-62,-20,52,-12,-41,-31,-123,-81,-99,-43,-46
-43,-62,-20,52,-12,-41,-31,-117,-69,-87,-37,-40
-43,-62,-20,52,-12,-41,-31,-123,-69,-87,-37,-40
-38,-62,-26,52,-6,-41,-31,-123,-75,-87,-31,-46
-43,-68,-26,52,-12,-47,-25,-117,-75,-87,-37,-51
-43,-68,-26,52,-12,-47,-19,-117,-81,-93,-37,-56
-43,-74,-32,58,-6,-53,-19,-117,-87,-93,-31,-51
-43,-80,-38,58,-6,-59,-19,-111,-87,-87,-25,-46
-43,-80,-38,58,-6,-59,-19,-105,-87,-87,-25,-46
-43,-80,-38,58,-6,-59,-25,-105,-87,-81,-25,-40
-48,-86,-38,64,-6,-65,-19,-99,-81,-69,-25,-40
-48,-74,-26,58,-12,-53,-13,-99,-75,-63,-19,-40
-43,-62,-20,52,-12,-41,-7,-93,-69,-52,-13,-40
-38,-62,-26,52,-6,-41,-1,-93,-69,-52,-19,-40
-32,-50,-20,40,-6,-35,-1,-93,-63,-52,-19,-40
-38,-50,-14,46,-12,-29,5,-93,-57,-63,-19,-40
-38,-44,-8,40,-18,-23,5,-99,-57,-63,-13,-46
-38,-44,-8,40,-18,-23,5,-93,-51,-63,-13,-46
-32,-32,-2,28,-18,-17,11,-87,-51,-63,-1,-40
-32,-26,4,28,-18,-11,5,-81,-45,-57,-1,-40
-32,-20,10,22,-24,-5,11,-81,-45,-52,-1,-40
-43,-20,22,28,-36,1,5,-81,-51,-52,-1,-40
-43,-14,28,28,-36,7,5,-81,-45,-47,-1,-34
-43,-2,40,22,-42,19,17,-81,-39,-47,5,-34
-43,4,46,16,-48,25,17,-81,-39,-47,5,-28
-38,10,46,16,-42,31,11,-75,-33,-47,11,-28
-32,16,46,4,-42,31,17,-69,-33,-41,17,-28
-20,22,40,-1,-30,31,17,-63,-27,-41,23,-22
-8,28,34,-12,-24,31,17,-63,-27,-35,23,-16
-8,34,40,-12,-24,37,17,-63,-27,-35,23,-16
-14,34,46,-6,-30,43,11,-63,-27,-35,29,-16
-8,34,40,-12,-24,37,5,-69,-27,-29,41,-16
-14,40,52,-12,-36,49,-1,-75,-33,-35,41,-10
-20,40,58,-12,-42,49,-7,-81,-39,-41,35,-10
-14,40,52,-12,-36,49,-13,-81,-45,-41,35,-10
-8,34,40,-12,-24,37,-19,-87,-39,-41,41,2
4,28,22,-18,-12,25,-25,-93,-39,-41,41,2
16,28,10,-24,0,19,-37,-93,-45,-47,29,2
16,22,4,-18,6,13,-49,-105,-51,-47,17,-4
16,16,-2,-18,6,7,-49,-105,-51,-41,11,-4
16,10,-8,-12,12,1,-49,-105,-57,-35,17,2
16,16,-2,-18,6,7,-55,-105,-57,-23,29,2
16,16,-2,-18,6,7,-61,-105,-57,-29,23,2
16,10,-8,-12,12,1,-61,-105,-57,-41,23,2
16,16,-2,-18,6,7,-61,-105,-57,-52,23,8
22,22,-2,-18,12,13,-55,-105,-51,-52,23,14
16,28,10,-24,0,19,-55,-105,-57,-52,23,8
16,28,10,-24,0,19,-61,-111,-63,-57,17,2
16,22,4,-18,6,13,-67,-117,-69,-57,17,-4
10,4,-8,-6,6,1,-73,-117,-69,-57,11,-16
4,-8,-14,-1,6,-11,-79,-111,-69,-52,5,-16
-2,-14,-14,10,6,-11,-73,-105,-63,-47,5,-22
-8,-32,-26,16,6,-29,-73,-105,-69,-52,-1,-28
-14,-44,-32,28,6,-35,-67,-99,-69,-52,-7,-34
-26,-56,-32,40,0,-41,-67,-93,-69,-57,-13,-34
-38,-68,-32,52,-6,-47,-61,-93,-75,-69,-19,-40
-43,-74,-32,58,-6,-53,-49,-99,-81,-75,-25,-40
-43,-80,-38,58,-6,-59,-49,-93,-81,-81,-31,-46
-48,-92,-44,64,-6,-71,-43,-105,-93,-81,-31,-51
-48,-104,-56,70,0,-83,-43,-117,-93,-81,-31,-51
-54,-110,-56,82,0,-83,-55,-123,-105,-81,-37,-56
-48,-116,-68,76,6,-95,-55,-129,-111,-81,-43,-62
-48,-110,-62,76,6,-89,-67,-135,-111,-87,-49,-62
-48,-116,-68,76,6,-95,-73,-135,-117,-93,-55,-68
-48,-110,-62,76,6,-89,-79,-135,-111,-99,-55,-68
-48,-98,-50,70,0,-77,-85,-129,-117,-105,-55,-68
-43,-92,-50,64,0,-71,-79,-123,-111,-93,-43,-62
-43,-92,-50,64,0,-71,-73,-117,-105,-87,-37,-68
-43,-80,-38,58,-6,-59,-67,-105,-87,-75,-25,-56
-43,-68,-26,52,-12,-47,-67,-87,-75,-63,-19,-51
-48,-62,-14,52,-18,-41,-55,-75,-63,-52,-13,-51
-60,-62,-2,58,-30,-35,-43,-57,-45,-41,5,-34
-60,-50,10,52,-36,-23,-31,-39,-27,-29,11,-22
-66,-38,28,52,-48,-5,-19,-33,-21,-17,23,-16
-72,-26,46,46,-60,7,-7,-15,-3,-5,35,-10
-72,-8,64,34,-70,25,5,9,13,13,53,2
-72,10,82,28,-76,43,23,33,31,31,58,14
-78,10,87,34,-82,49,33,50,43,43,63,14
-78,22,98,28,-88,61,45,67,61,61,75,14
-78,40,116,16,-100,77,57,85,79,79,93,26
-90,50,140,22,-112,95,81,109,103,103,111,38
-96,68,164,10,-130,113,93,127,115,121,123,50
-96,80,176,4,-136,125,105,151,133,139,135,62
-96,98,194,-1,-142,143,129,175,157,157,141,74
-102,116,218,-6,-160,167,153,211,181,169,153,86
-96,134,230,-18,-160,179,183,253,211,193,165,86
-96,146,242,-24,-166,191,213,301,247,223,177,98
-102,152,254,-24,-178,203,237,349,283,247,195,104
-96,170,266,-36,-178,215,261,397,319,277,213,110
-90,182,272,-42,-178,227,285,451,361,307,243,122
-90,194,284,-48,-184,239,321,517,403,343,255,134
-96,200,296,-54,-196,245,363,577,439,367,267,140
-102,194,296,-42,-196,245,411,643,481,391,273,140
-102,200,302,-48,-202,251,465,727,535,421,291,146
-102,224,326,-60,-214,275,531,823,607,475,315,164
-102,254,356,-72,-226,305,603,925,685,529,351,188
-108,296,404,-96,-256,347,687,1027,769,595,387,206
-114,338,452,-108,-280,395,771,1141,865,673,435,230
-126,386,512,-126,-316,449,861,1267,985,769,501,260
-132,446,578,-156,-352,509,951,1393,1111,883,579,302
-144,506,650,-180,-394,575,1041,1555,1267,1015,669,350
-150,572,722,-210,-436,647,1137,1729,1441,1159,765,410
-156,644,800,-246,-478,719,1221,1915,1639,1309,867,476
-162,716,878,-276,-520,797,1281,2113,1855,1477,969,548
-150,800,950,-324,-550,875,1311,2305,2077,1645,1071,614
-150,878,1028,-360,-586,953,1335,2502,2305,1819,1173,680
-138,938,1076,-396,-604,1007,1341,2700,2538,1993,1269,734
-114,998,1112,-438,-610,1055,1305,2874,2760,2149,1359,788
-84,1010,1094,-462,-586,1049,1257,3024,2946,2263,1407,800
-60,968,1028,-456,-544,995,1221,3150,3072,2311,1401,770
-43,872,914,-414,-478,893,1173,3210,3114,2281,1341,716
-54,752,806,-348,-430,779,1113,3156,3024,2149,1233,632
-78,632,710,-276,-394,671,1047,3000,2820,1939,1089,536
-120,530,650,-204,-382,587,975,2712,2532,1693,927,446
-180,434,614,-126,-394,521,843,2251,2131,1393,753,350
-222,338,560,-54,-388,449,669,1681,1639,1057,555,248
-276,224,500,22,-388,359,489,1099,1129,715,363,134
-324,122,446,100,-382,281,315,547,661,403,183,26
-366,34,398,166,-382,215,159,79,253,145,47,-56
-396,-32,362,208,-382,161,23,-249,-39,-47,-55,-116
-414,-86,326,250,-370,119,-79,-453,-219,-165,-115,-152
-426,-116,308,268,-370,95,-157,-573,-327,-237,-151,-164
-426,-128,296,274,-364,83,-217,-651,-399,-285,-175,-170
-426,-128,296,274,-364,83,-259,-705,-441,-321,-187,-164
-408,-122,284,262,-346,77,-289,-741,-471,-339,-193,-170
-390,-122,266,256,-328,71,-301,-759,-495,-345,-205,-170
-372,-128,242,244,-310,55,-307,-759,-507,-357,-217,-170
-348,-134,212,238,-280,37,-319,-747,-519,-369,-229,-176
-324,-140,182,226,-256,19,-319,-735,-531,-381,-229,-176
-318,-140,176,226,-250,19,-319,-729,-537,-381,-229,-176
-306,-146,158,226,-232,7,-325,-723,-537,-387,-229,-170
-294,-140,152,214,-226,7,-325,-711,-519,-375,-217,-158
-288,-140,146,208,-220,1,-325,-681,-507,-369,-211,-152
-264,-134,128,196,-196,-5,-313,-645,-483,-351,-205,-146
-234,-134,98,184,-166,-17,-301,-597,-453,-339,-193,-146
-198,-140,58,166,-130,-41,-289,-543,-411,-315,-193,-146
-168,-140,28,148,-100,-59,-271,-489,-381,-297,-181,-140
-144,-140,4,136,-76,-71,-253,-441,-357,-279,-181,-140
-126,-146,-20,136,-54,-83,-235,-393,-339,-267,-169,-134
-108,-140,-32,118,-42,-89,-217,-357,-315,-249,-157,-128
-90,-134,-44,112,-24,-89,-199,-333,-297,-231,-139,-122
-72,-128,-56,94,-12,-95,-187,-309,-279,-213,-127,-116
-60,-122,-62,88,0,-95,-181,-285,-261,-201,-121,-110
-54,-122,-68,88,6,-95,-169,-273,-255,-195,-115,-104
-54,-122,-68,88,6,-95,-163,-261,-249,-189,-109,-98
-48,-116,-68,76,6,-95,-163,-249,-243,-189,-109,-98
-43,-104,-62,70,6,-83,-163,-249,-237,-189,-109,-92
-38,-98,-62,70,12,-77,-163,-243,-237,-183,-115,-92
-32,-104,-74,64,18,-89,-169,-243,-231,-183,-115,-92
-32,-98,-68,64,18,-83,-169,-243,-231,-189,-121,-92
-20,-104,-86,58,30,-95,-169,-237,-231,-189,-115,-92
-26,-110,-86,70,30,-95,-169,-237,-231,-189,-115,-92
-20,-104,-86,58,30,-95,-163,-231,-231,-183,-109,-92
-14,-104,-92,58,36,-95,-163,-225,-225,-177,-103,-86
-14,-104,-92,58,36,-95,-163,-225,-219,-171,-97,-86
-14,-92,-80,52,30,-83,-163,-225,-219,-165,-97,-86
-8,-86,-80,46,36,-83,-169,-219,-213,-171,-97,-86
-8,-92,-86,46,36,-89,-175,-213,-219,-171,-103,-86
-2,-98,-98,52,48,-95,-181,-213,-213,-165,-103,-80
4,-98,-104,46,54,-101,-181,-219,-213,-165,-97,-80
10,-98,-110,46,60,-101,-187,-225,-219,-171,-103,-86
10,-98,-110,46,60,-101,-193,-225,-213,-171,-109,-86
16,-92,-110,34,60,-101,-193,-225,-213,-171,-109,-86
16,-86,-104,34,60,-95,-199,-225,-213,-171,-109,-86
16,-80,-98,28,54,-89,-199,-225,-213,-177,-109,-86
16,-80,-98,28,54,-89,-199,-219,-213,-177,-103,-86
16,-80,-98,28,54,-89,-205,-225,-225,-183,-103,-86
16,-80,-98,28,54,-89,-211,-225,-237,-183,-103,-86
22,-80,-104,28,60,-89,-211,-225,-243,-189,-103,-80
28,-86,-116,28,72,-101,-217,-219,-237,-189,-103,-80
34,-92,-128,28,78,-107,-217,-219,-237,-183,-97,-86
34,-92,-128,28,78,-107,-223,-219,-237,-189,-103,-86
34,-98,-134,34,84,-113,-223,-219,-243,-189,-109,-92
34,-104,-140,34,84,-119,-229,-225,-243,-189,-109,-86
40,-104,-146,28,90,-125,-229,-225,-237,-189,-115,-86
46,-104,-152,28,96,-125,-235,-231,-243,-189,-115,-86
46,-104,-152,28,96,-125,-235,-237,-249,-189,-115,-86
46,-98,-146,28,96,-119,-247,-243,-255,-195,-115,-80
46,-98,-146,28,96,-119,-247,-243,-255,-195,-109,-80
52,-92,-146,16,96,-119,-253,-243,-261,-195,-109,-80
58,-86,-146,16,102,-113,-259,-249,-267,-195,-109,-74
70,-80,-152,4,108,-113,-265,-249,-273,-201,-109,-74
76,-80,-158,-1,114,-119,-265,-249,-279,-201,-109,-74
82,-80,-164,-1,120,-119,-271,-255,-285,-195,-109,-80
88,-80,-170,-6,126,-125,-277,-255,-285,-195,-115,-80
94,-74,-170,-6,132,-119,-283,-255,-297,-195,-115,-80
94,-74,-170,-6,132,-119,-295,-261,-303,-195,-121,-80
94,-86,-182,-1,138,-131,-307,-267,-303,-201,-121,-80
94,-80,-176,-6,132,-125,-313,-273,-309,-201,-121,-74
100,-80,-182,-12,138,-131,-319,-279,-309,-201,-121,-68
112,-68,-182,-24,144,-125,-331,-285,-315,-201,-121,-68
118,-62,-182,-24,150,-119,-337,-285,-315,-201,-115,-62
124,-62,-188,-30,156,-125,-343,-285,-321,-201,-109,-56
130,-68,-200,-30,162,-131,-355,-285,-327,-201,-103,-56
142,-62,-206,-36,174,-131,-361,-285,-321,-195,-97,-51
148,-62,-212,-42,180,-137,-367,-291,-327,-189,-97,-51
160,-56,-218,-54,186,-137,-379,-291,-327,-189,-97,-51
166,-56,-224,-54,192,-137,-385,-297,-327,-189,-97,-46
178,-56,-236,-60,204,-143,-397,-291,-327,-189,-91,-40
190,-50,-242,-66,216,-143,-403,-291,-321,-189,-91,-34
196,-44,-242,-78,216,-143,-409,-285,-315,-189,-85,-28
202,-44,-248,-78,222,-143,-421,-285,-315,-183,-79,-28
208,-38,-248,-84,228,-143,-427,-279,-303,-177,-73,-22
220,-32,-254,-96,234,-143,-433,-279,-303,-171,-73,-16
226,-32,-260,-96,240,-143,-445,-273,-297,-165,-73,-16
238,-20,-260,-108,246,-137,-457,-267,-297,-153,-61,-10
250,-8,-260,-120,252,-131,-469,-261,-291,-147,-61,-4
268,-2,-272,-132,270,-137,-475,-255,-279,-135,-55,8
274,10,-266,-138,270,-125,-487,-243,-273,-123,-49,14
292,22,-272,-156,282,-125,-487,-231,-261,-111,-37,26
298,28,-272,-162,282,-119,-493,-219,-255,-99,-25,32
310,34,-278,-168,294,-119,-499,-201,-237,-87,-13,44
322,45,-278,-180,300,-113,-505,-183,-225,-75,-7,50
328,45,-284,-186,306,-119,-511,-165,-213,-63,5,56
346,56,-290,-198,318,-113,-511,-147,-195,-47,23,68
358,74,-284,-210,324,-101,-511,-123,-177,-29,35,74
364,80,-284,-222,324,-101,-517,-105,-153,-11,47,86
370,86,-284,-222,330,-95,-517,-87,-129,7,53,92
376,92,-284,-234,330,-95,-517,-63,-105,19,53,104
376,92,-284,-234,330,-95,-517,-39,-87,37,63,110
388,110,-278,-246,336,-83,-511,-9,-63,55,81,122
400,128,-272,-264,336,-71,-505,21,-33,79,93,128
406,140,-266,-270,336,-59,-493,50,-9,103,111,140
412,146,-266,-276,342,-59,-487,73,13,121,123,146
412,158,-254,-282,336,-47,-475,103,37,139,135,152
418,164,-254,-288,336,-41,-463,127,61,163,147,164
424,170,-254,-294,342,-41,-451,157,91,175,153,170
418,170,-248,-288,336,-35,-439,181,115,193,159,170
424,182,-242,-300,336,-29,-421,211,139,211,171,176
430,194,-236,-306,336,-17,-409,241,163,229,177,182
424,200,-224,-312,324,-11,-397,271,181,241,189,182
406,206,-200,-300,306,7,-385,301,205,253,195,182
406,206,-200,-300,306,7,-367,331,229,277,213,188
400,218,-182,-306,294,19,-349,361,253,301,225,188
400,224,-176,-312,288,25,-325,397,277,313,237,194
388,218,-170,-300,282,25,-301,421,295,325,243,200
376,212,-164,-294,270,25,-283,439,301,325,243,194
370,212,-158,-288,264,31,-259,463,319,337,243,200
364,212,-152,-288,258,31,-235,481,325,337,243,206
358,218,-140,-282,252,43,-211,493,337,337,243,200
346,218,-128,-276,240,49,-181,511,349,343,237,200
328,212,-116,-270,222,49,-157,523,361,343,231,194
304,206,-98,-252,204,55,-133,523,361,337,231,188
280,200,-80,-240,180,61,-115,529,349,325,219,176
256,200,-56,-228,156,71,-97,529,343,319,219,170
238,194,-44,-210,144,77,-79,517,331,307,207,158
220,188,-32,-204,126,77,-61,505,319,295,189,146
208,176,-32,-192,120,71,-43,493,307,283,171,134
196,164,-32,-180,114,66,-31,475,289,271,159,122
184,152,-32,-168,108,61,-13,457,277,253,141,116
166,140,-26,-150,96,61,-1,439,265,235,129,104
148,128,-20,-138,84,55,11,421,247,217,117,92
124,122,-2,-120,66,61,23,397,223,205,111,86
106,116,10,-108,48,66,28,373,193,187,93,74
94,104,10,-96,42,61,28,349,169,169,75,68
76,92,16,-84,30,55,33,325,151,157,63,56
58,74,16,-60,24,49,39,295,127,139,53,50
46,62,16,-48,18,43,39,265,103,121,47,38
28,50,22,-36,6,37,39,241,85,103,35,20
22,45,22,-30,0,37,39,217,73,85,23,14
4,34,28,-18,-12,31,39,199,55,73,11,8
-8,22,28,-6,-18,25,39,181,37,67,5,2
-14,22,34,-1,-24,31,39,163,19,55,-7,-10
-20,16,34,-1,-30,25,39,145,8,43,-19,-22
-32,10,40,10,-36,25,39,127,-9,19,-31,-28
-38,4,40,16,-42,25,33,103,-27,7,-43,-34
-43,-2,40,22,-42,19,28,85,-33,-11,-55,-40
-43,-8,34,22,-42,13,28,67,-45,-23,-61,-40
-48,-20,28,28,-42,1,23,50,-57,-29,-67,-46
-54,-26,28,40,-42,1,17,39,-63,-35,-67,-51
-60,-32,28,40,-48,-5,11,27,-81,-41,-73,-51
-60,-38,22,46,-42,-11,11,15,-93,-47,-79,-51
-66,-44,22,52,-48,-11,11,9,-99,-52,-85,-51
-72,-56,16,58,-48,-23,11,3,-111,-57,-91,-56
-72,-62,10,64,-42,-29,11,-3,-117,-63,-97,-62
-78,-74,4,76,-42,-35,11,-9,-123,-69,-103,-62
-84,-80,4,76,-48,-41,5,-21,-129,-75,-103,-68
-84,-68,16,70,-54,-29,-1,-27,-129,-81,-109,-74
-84,-68,16,70,-54,-29,-7,-33,-129,-87,-109,-80
-90,-68,22,76,-60,-23,-13,-45,-135,-93,-115,-80
-102,-74,28,88,-65,-23,-13,-51,-135,-93,-109,-80
-102,-80,22,88,-65,-29,-19,-57,-135,-99,-109,-80
-96,-74,22,82,-60,-29,-19,-57,-141,-105,-109,-86
-96,-74,22,82,-60,-29,-19,-63,-141,-105,-115,-86
-96,-80,16,82,-60,-35,-13,-69,-147,-117,-121,-86
-96,-86,10,88,-54,-41,-19,-69,-147,-111,-121,-92
-96,-92,4,88,-54,-47,-19,-75,-153,-117,-127,-86
-96,-92,4,88,-54,-47,-19,-81,-159,-111,-127,-86
-96,-86,10,88,-54,-41,-25,-81,-165,-117,-133,-86
-96,-74,22,82,-60,-29,-25,-87,-171,-117,-133,-86
-96,-68,28,76,-65,-23,-25,-87,-171,-117,-133,-80
-102,-68,34,82,-70,-17,-25,-87,-171,-117,-133,-86
-96,-68,28,76,-65,-23,-25,-87,-165,-117,-133,-86
-90,-68,22,76,-60,-23,-19,-81,-165,-117,-127,-80
-84,-68,16,70,-54,-29,-19,-81,-153,-117,-127,-80
-90,-74,16,82,-54,-29,-19,-87,-153,-117,-127,-80
-90,-74,16,82,-54,-29,-19,-81,-147,-111,-127,-80
-96,-74,22,82,-60,-29,-19,-87,-147,-111,-121,-80
-96,-74,22,82,-60,-29,-19,-81,-147,-117,-121,-74
-90,-74,16,82,-54,-29,-19,-81,-147,-111,-115,-74
-90,-74,16,82,-54,-29,-19,-81,-141,-105,-115,-68
-84,-68,16,70,-54,-29,-19,-75,-141,-99,-109,-68
-78,-68,10,70,-48,-29,-13,-69,-141,-99,-109,-68
-72,-62,10,64,-42,-29,-13,-69,-141,-99,-109,-68
-72,-62,10,64,-42,-29,-13,-69,-141,-99,-109,-68
-72,-62,10,64,-42,-29,-13,-75,-147,-93,-115,-68
-78,-68,10,70,-48,-29,-7,-81,-141,-93,-109,-68
-78,-68,10,70,-48,-29,-13,-81,-147,-93,-109,-68
-84,-74,10,76,-48,-35,-13,-81,-147,-93,-109,-62
-78,-68,10,70,-48,-29,-19,-81,-147,-87,-109,-62
-78,-62,16,70,-48,-23,-19,-81,-147,-87,-103,-56
-78,-62,16,70,-48,-23,-19,-81,-147,-87,-97,-56
-78,-62,16,70,-48,-23,-19,-87,-153,-93,-97,-56
-72,-62,10,64,-42,-29,-25,-87,-153,-93,-97,-56
-72,-62,10,64,-42,-29,-19,-87,-153,-93,-103,-62
-66,-68,-2,64,-36,-35,-19,-87,-147,-87,-103,-56
-66,-68,-2,64,-36,-35,-19,-87,-147,-87,-103,-51
-60,-62,-2,58,-30,-35,-19,-87,-141,-87,-103,-56
-60,-62,-2,58,-30,-35,-25,-87,-141,-87,-103,-56
-66,-68,-2,64,-36,-35,-25,-93,-147,-87,-103,-56
-66,-62,4,64,-36,-29,-25,-93,-147,-81,-91,-56
-66,-56,10,58,-42,-23,-25,-93,-141,-81,-91,-56
-66,-56,10,58,-42,-23,-25,-93,-141,-81,-91,-56
-66,-56,10,58,-42,-23,-25,-93,-147,-93,-91,-56
-60,-56,4,52,-36,-29,-31,-99,-147,-93,-97,-62
-60,-56,4,52,-36,-29,-31,-93,-147,-87,-97,-62
-60,-50,10,52,-36,-23,-31,-93,-147,-87,-97,-62
-60,-62,-2,58,-30,-35,-37,-93,-153,-87,-97,-62
-66,-62,4,64,-36,-29,-37,-93,-153,-87,-97,-62
-72,-62,10,64,-42,-29,-37,-93,-147,-87,-97,-62
-66,-56,10,58,-42,-23,-31,-87,-147,-87,-97,-56
-60,-50,10,52,-36,-23,-31,-87,-147,-87,-91,-56
-54,-50,4,52,-30,-23,-31,-87,-141,-87,-85,-51
-54,-44,10,46,-36,-17,-31,-87,-147,-87,-85,-51
-54,-50,4,52,-30,-23,-31,-93,-153,-87,-79,-56
-60,-62,-2,58,-30,-35,-37,-99,-159,-87,-85,-56
-54,-62,-8,58,-24,-35,-37,-99,-159,-81,-85,-62
-54,-62,-8,58,-24,-35,-37,-99,-165,-81,-91,-62
-54,-68,-14,58,-24,-41,-37,-93,-165,-87,-91,-62
-60,-74,-14,64,-24,-47,-37,-93,-165,-87,-91,-62
-66,-68,-2,64,-36,-35,-37,-93,-165,-87,-91,-62
-60,-68,-8,58,-30,-41,-37,-93,-165,-81,-91,-56
-60,-68,-8,58,-30,-41,-37,-99,-165,-81,-97,-51
-60,-68,-8,58,-30,-41,-37,-99,-171,-81,-97,-56
-60,-68,-8,58,-30,-41,-37,-105,-171,-87,-103,-51
-60,-68,-8,58,-30,-41,-37,-111,-177,-87,-103,-51
-60,-68,-8,58,-30,-41,-37,-111,-177,-93,-109,-56
-66,-74,-8,70,-30,-41,-37,-111,-177,-93,-109,-56
-66,-74,-8,70,-30,-41,-37,-111,-177,-93,-103,-68
-66,-80,-14,70,-30,-47,-37,-111,-177,-87,-97,-68
-66,-80,-14,70,-30,-47,-37,-111,-171,-87,-91,-68
-66,-80,-14,70,-30,-47,-37,-111,-171,-87,-91,-62
-66,-80,-14,70,-30,-47,-43,-117,-171,-93,-85,-56
-60,-74,-14,64,-24,-47,-43,-123,-171,-99,-85,-56
-60,-74,-14,64,-24,-47,-43,-123,-171,-99,-91,-62
-60,-74,-14,64,-24,-47,-43,-123,-177,-105,-97,-62
-60,-74,-14,64,-24,-47,-43,-123,-171,-99,-97,-62
-66,-74,-8,70,-30,-41,-37,-117,-177,-99,-103,-62
-66,-80,-14,70,-30,-47,-37,-117,-177,-93,-103,-62
-66,-80,-14,70,-30,-47,-43,-117,-177,-93,-103,-62
-72,-86,-14,76,-30,-53,-43,-117,-177,-93,-103,-56
-66,-86,-20,76,-24,-53,-43,-117,-177,-93,-103,-56
-66,-92,-26,76,-24,-59,-49,-117,-171,-93,-103,-56
-72,-86,-14,76,-30,-53,-43,-117,-171,-99,-97,-56
-66,-80,-14,70,-30,-47,-43,-117,-165,-99,-103,-56
-60,-80,-20,64,-24,-53,-43,-123,-165,-99,-109,-56
-66,-80,-14,70,-30,-47,-43,-129,-171,-105,-115,-62
-66,-86,-20,76,-24,-53,-43,-129,-165,-99,-115,-68
-66,-86,-20,76,-24,-53,-43,-129,-165,-99,-115,-68
-66,-80,-14,70,-30,-47,-43,-135,-171,-99,-109,-68
-66,-80,-14,70,-30,-47,-43,-135,-171,-99,-109,-68
-78,-86,-8,82,-36,-47,-43,-135,-177,-99,-109,-74
-78,-92,-14,82,-36,-53,-43,-141,-177,-99,-109,-68
-84,-98,-14,88,-36,-59,-43,-147,-177,-99,-109,-74
-78,-98,-20,88,-30,-59,-49,-147,-171,-99,-109,-68
-78,-98,-20,88,-30,-59,-43,-147,-171,-105,-103,-68
-72,-92,-20,76,-30,-59,-37,-147,-171,-105,-109,-68
-72,-92,-20,76,-30,-59,-37,-147,-171,-111,-109,-68
-72,-98,-26,82,-24,-65,-37,-147,-165,-105,-103,-68
-72,-98,-26,82,-24,-65,-43,-153,-165,-105,-109,-68
-72,-98,-26,82,-24,-65,-43,-159,-165,-105,-115,-68
-72,-98,-26,82,-24,-65,-37,-159,-165,-105,-115,-62
-72,-98,-26,82,-24,-65,-37,-165,-165,-105,-109,-62
-72,-98,-26,82,-24,-65,-37,-165,-165,-111,-109,-62
-72,-104,-32,82,-24,-71,-37,-159,-159,-111,-109,-68
-78,-104,-26,88,-30,-65,-37,-159,-165,-117,-103,-68
-78,-110,-32,94,-24,-71,-37,-159,-165,-117,-109,-68
-72,-116,-44,88,-18,-83,-37,-153,-159,-117,-103,-74
-78,-116,-38,94,-24,-77,-37,-153,-159,-117,-103,-74
-78,-110,-32,94,-24,-71,-37,-159,-159,-111,-103,-74
-78,-110,-32,94,-24,-71,-37,-159,-159,-111,-103,-74
-78,-110,-32,94,-24,-71,-43,-165,-159,-111,-103,-74
-78,-110,-32,94,-24,-71,-37,-165,-159,-111,-103,-74
-78,-104,-26,88,-30,-65,-37,-171,-159,-117,-109,-74
-78,-98,-20,88,-30,-59,-37,-171,-159,-123,-97,-74
-78,-98,-20,88,-30,-59,-37,-165,-159,-123,-97,-74
-78,-92,-14,82,-36,-53,-37,-165,-159,-123,-103,-74
-84,-98,-14,88,-36,-59,-37,-165,-159,-123,-103,-74
-78,-104,-26,88,-30,-65,-43,-165,-159,-117,-103,-74
-78,-104,-26,88,-30,-65,-43,-165,-153,-117,-109,-74
-72,-110,-38,88,-18,-77,-43,-171,-153,-117,-109,-74
-72,-104,-32,82,-24,-71,-37,-171,-153,-111,-109,-74
-72,-104,-32,82,-24,-71,-37,-171,-153,-117,-109,-68
-72,-98,-26,82,-24,-65,-31,-171,-159,-117,-109,-74
-66,-98,-32,82,-18,-65,-31,-165,-159,-117,-109,-74
-66,-98,-32,82,-18,-65,-31,-159,-165,-123,-109,-74
-66,-92,-26,76,-24,-59,-37,-159,-171,-123,-115,-74
-66,-86,-20,76,-24,-53,-31,-153,-177,-123,-109,-74
-66,-86,-20,76,-24,-53,-31,-153,-177,-129,-109,-74
-72,-104,-32,82,-24,-71,-37,-159,-177,-123,-109,-74
-78,-110,-32,94,-24,-71,-31,-159,-171,-123,-103,-74
-72,-116,-44,88,-18,-83,-31,-165,-171,-123,-103,-74
-72,-116,-44,88,-18,-83,-31,-165,-165,-117,-103,-68
-72,-116,-44,88,-18,-83,-25,-171,-165,-123,-103,-68
-78,-116,-38,94,-24,-77,-25,-171,-165,-123,-109,-68
-78,-116,-38,94,-24,-77,-19,-165,-159,-123,-103,-68
-72,-110,-38,88,-18,-77,-19,-159,-165,-129,-103,-68
-72,-110,-38,88,-18,-77,-25,-159,-165,-129,-103,-74
-66,-116,-50,88,-12,-83,-25,-159,-171,-135,-103,-80
-66,-116,-50,88,-12,-83,-31,-159,-171,-135,-103,-74
-66,-116,-50,88,-12,-83,-31,-165,-171,-135,-103,-74
-66,-110,-44,88,-12,-77,-37,-171,-177,-135,-103,-74
-66,-110,-44,88,-12,-77,-31,-171,-177,-129,-103,-74
-66,-116,-50,88,-12,-83,-25,-171,-177,-135,-103,-74
-66,-110,-44,88,-12,-77,-25,-171,-177,-141,-109,-74
-66,-116,-50,88,-12,-83,-25,-165,-183,-141,-109,-74
-66,-116,-50,88,-12,-83,-19,-165,-183,-141,-109,-68
-72,-122,-50,94,-12,-89,-19,-159,-183,-135,-103,-68
-66,-116,-50,88,-12,-83,-13,-159,-177,-129,-97,-62
-66,-116,-50,88,-12,-83,-13,-159,-171,-129,-97,-62
-72,-116,-44,88,-18,-83,-13,-153,-165,-129,-103,-68
-66,-116,-50,88,-12,-83,-13,-159,-171,-123,-103,-68
-72,-122,-50,94,-12,-89,-13,-165,-171,-129,-103,-74
-78,-128,-50,100,-18,-89,-13,-165,-177,-129,-103,-74
-72,-122,-50,94,-12,-89,-7,-159,-177,-129,-103,-74
-72,-122,-50,94,-12,-89,-7,-159,-177,-129,-103,-68
-72,-122,-50,94,-12,-89,-7,-159,-177,-135,-109,-74
-72,-122,-50,94,-12,-89,-13,-159,-177,-129,-109,-74
-72,-122,-50,94,-12,-89,-13,-165,-177,-129,-109,-74
-66,-116,-50,88,-12,-83,-13,-165,-177,-129,-109,-68
-66,-116,-50,88,-12,-83,-13,-165,-171,-129,-109,-68
-72,-116,-44,88,-18,-83,-13,-165,-171,-129,-109,-68
-72,-116,-44,88,-18,-83,-13,-165,-171,-135,-109,-68
-72,-116,-44,88,-18,-83,-19,-165,-171,-129,-109,-62
-72,-110,-38,88,-18,-77,-13,-159,-171,-129,-109,-62
-66,-104,-38,82,-18,-71,-13,-159,-171,-129,-103,-62
-66,-104,-38,82,-18,-71,-7,-159,-177,-129,-103,-62
-72,-104,-32,82,-24,-71,-13,-159,-183,-135,-103,-68
-66,-110,-44,88,-12,-77,-13,-159,-183,-129,-109,-68
-66,-104,-38,82,-18,-71,-13,-159,-183,-129,-109,-68
-60,-104,-44,76,-12,-77,-13,-165,-183,-129,-109,-68
-60,-104,-44,76,-12,-77,-13,-165,-189,-129,-109,-68
-66,-104,-38,82,-18,-71,-13,-165,-189,-129,-103,-62
-66,-110,-44,88,-12,-77,-7,-165,-189,-129,-103,-68
-66,-104,-38,82,-18,-71,-7,-165,-189,-129,-103,-68
-60,-98,-38,76,-12,-71,-7,-159,-189,-135,-103,-68
-72,-104,-32,82,-24,-71,-7,-165,-195,-135,-109,-68
-78,-110,-32,94,-24,-71,-7,-159,-189,-135,-109,-74
-78,-110,-32,94,-24,-71,-13,-165,-189,-129,-103,-74
-78,-110,-32,94,-24,-71,-13,-165,-183,-123,-103,-74
-72,-110,-38,88,-18,-77,-13,-165,-183,-123,-97,-68
-72,-110,-38,88,-18,-77,-13,-165,-183,-123,-97,-68
-66,-104,-38,82,-18,-71,-7,-159,-177,-117,-97,-62
-66,-98,-32,82,-18,-65,-1,-153,-171,-111,-91,-56
-60,-92,-32,70,-18,-65,5,-147,-171,-111,-85,-56
-60,-86,-26,70,-18,-59,11,-147,-171,-111,-79,-56
-60,-74,-14,64,-24,-47,11,-147,-171,-105,-79,-56
-54,-62,-8,58,-24,-35,17,-141,-165,-105,-67,-51
-54,-62,-8,58,-24,-35,23,-141,-159,-99,-67,-51
-54,-56,-2,52,-30,-29,28,-141,-153,-93,-61,-51
-60,-56,4,52,-36,-29,28,-141,-153,-87,-61,-51
-60,-50,10,52,-36,-23,28,-147,-153,-87,-61,-51
-54,-44,10,46,-36,-17,17,-141,-147,-81,-61,-51
-54,-38,16,46,-36,-11,23,-129,-141,-81,-55,-51
-54,-44,10,46,-36,-17,23,-123,-141,-81,-55,-46
-54,-38,16,46,-36,-11,28,-111,-141,-81,-49,-46
-54,-38,16,46,-36,-11,33,-99,-129,-81,-49,-46
-54,-32,22,40,-42,-5,33,-99,-129,-81,-49,-46
-48,-26,22,34,-36,-5,33,-93,-117,-75,-43,-46
-43,-14,28,28,-36,7,39,-87,-105,-63,-43,-34
-43,4,46,16,-48,25,45,-87,-99,-57,-37,-28
-32,10,40,10,-36,25,39,-87,-93,-52,-37,-28
-32,10,40,10,-36,25,33,-93,-93,-52,-37,-22
-26,4,28,10,-30,19,28,-99,-99,-52,-37,-22
-26,-2,22,16,-24,13,28,-99,-99,-57,-25,-16
-26,4,28,10,-30,19,23,-99,-99,-63,-25,-16
-20,10,28,4,-24,19,11,-105,-105,-63,-25,-16
-20,10,28,4,-24,19,-1,-105,-111,-63,-25,-16
-14,10,22,4,-18,19,-13,-111,-111,-57,-25,-10
-8,10,16,-1,-12,13,-19,-117,-117,-52,-25,-10
4,10,4,-6,0,7,-25,-123,-111,-52,-25,-10
4,4,-2,-6,0,1,-25,-123,-111,-47,-25,-10
4,-2,-8,-1,6,-5,-31,-123,-111,-52,-31,-10
10,10,-2,-6,6,7,-37,-129,-117,-57,-31,-10
16,16,-2,-18,6,7,-37,-129,-117,-57,-25,-4
22,16,-8,-18,12,7,-37,-129,-117,-57,-25,-4
16,16,-2,-18,6,7,-37,-135,-117,-63,-25,-4
10,16,4,-12,0,13,-37,-141,-117,-63,-25,-10
4,10,4,-6,0,7,-43,-153,-123,-69,-31,-16
4,4,-2,-6,0,1,-55,-159,-135,-69,-37,-22
4,-8,-14,-1,6,-11,-61,-159,-135,-69,-43,-22
10,-20,-32,4,18,-23,-61,-159,-135,-69,-49,-22
10,-32,-44,10,24,-35,-55,-153,-129,-69,-49,-22
-2,-38,-38,22,18,-35,-43,-147,-129,-69,-55,-22
-20,-50,-32,34,6,-41,-37,-147,-129,-69,-55,-22
-32,-62,-32,46,0,-47,-31,-147,-129,-75,-49,-28
-38,-68,-32,52,-6,-47,-31,-147,-129,-81,-49,-40
-38,-80,-44,58,0,-59,-25,-153,-135,-87,-55,-46
