,,,,,,,,,,,
2019-09-04 23:12:53,,,,,,,,,,,
,,,,,,,,,,,
I,II,III,aVR,aVL,aVF,V1,V2,V3,V4,V5,V6
-62,-6,56,32,-60,25,70,-43,-99,-65,-42,-22
-68,-6,62,32,-66,25,64,-38,-99,-59,-36,-17
-74,-6,68,38,-72,31,64,-33,-99,-59,-36,-17
-68,-6,62,32,-66,25,64,-33,-99,-65,-36,-17
-62,6,68,26,-66,37,64,-27,-93,-71,-30,-11
-62,12,73,26,-66,43,64,-27,-87,-65,-24,-11
-62,18,78,20,-72,49,58,-33,-87,-53,-13,-5
-62,24,84,20,-72,55,58,-38,-81,-48,-13,-5
-62,24,84,20,-72,55,58,-38,-75,-43,-8,-5
-56,30,84,8,-72,55,64,-38,-75,-37,-8,-5
-50,30,78,8,-66,55,70,-38,-69,-37,-8,-5
-50,30,78,8,-66,55,76,-33,-69,-37,-8,1
-44,36,78,2,-60,55,76,-38,-69,-43,-8,1
-44,36,78,2,-60,55,70,-38,-69,-43,-8,1
-56,36,90,8,-72,61,58,-43,-69,-37,-2,1
-56,36,90,8,-72,61,46,-49,-75,-31,-2,7
-62,42,102,8,-84,72,40,-49,-75,-25,-2,7
-56,48,102,2,-78,72,34,-49,-63,-19,4,13
-50,54,102,-4,-78,77,28,-49,-63,-19,10,13
-44,66,108,-16,-78,83,22,-49,-63,-25,10,13
-44,66,108,-16,-78,83,16,-55,-58,-25,16,13
-38,66,102,-16,-72,83,10,-55,-58,-19,22,13
-32,66,96,-22,-66,77,-2,-55,-58,-25,22,13
-32,60,90,-16,-60,72,-8,-61,-58,-19,22,13
-32,60,90,-16,-60,72,-8,-67,-58,-13,22,13
-32,60,90,-16,-60,72,-8,-61,-53,-7,22,13
-26,60,84,-16,-54,72,-8,-61,-58,-13,16,13
-20,60,78,-22,-48,67,-2,-61,-63,-13,16,13
-8,60,68,-28,-37,61,-2,-61,-63,-25,4,19
-8,60,68,-28,-37,61,-8,-67,-69,-37,-2,19
-8,60,68,-28,-37,61,-14,-73,-69,-43,-2,19
-14,60,73,-22,-42,67,-20,-85,-69,-43,-2,25
-20,60,78,-22,-48,67,-26,-91,-75,-48,-8,25
-20,54,73,-22,-48,61,-26,-97,-75,-48,-8,13
-26,48,73,-10,-48,61,-32,-97,-87,-53,-13,7
-26,36,62,-4,-42,49,-32,-97,-93,-59,-24,-11
-20,30,50,-10,-37,37,-32,-103,-99,-65,-30,-17
-20,18,38,-4,-32,25,-26,-97,-93,-59,-30,-17
-20,12,32,2,-26,19,-20,-103,-99,-59,-30,-22
-26,6,32,8,-32,19,-20,-97,-99,-59,-30,-22
-32,0,32,14,-32,13,-14,-91,-87,-59,-36,-17
-44,-6,38,20,-42,13,-8,-91,-87,-59,-42,-22
-50,-6,44,26,-48,19,-8,-91,-81,-59,-42,-22
-56,-6,50,26,-54,19,-2,-91,-81,-59,-42,-27
-56,-6,50,26,-54,19,-2,-91,-87,-65,-42,-27
-56,-12,44,32,-48,13,-2,-91,-93,-71,-42,-33
-56,-18,38,32,-48,7,4,-91,-87,-71,-48,-39
-62,-30,32,44,-48,1,4,-85,-81,-77,-54,-39
-62,-36,26,50,-42,-5,10,-85,-81,-83,-60,-45
-56,-42,14,44,-37,-17,16,-85,-87,-83,-60,-45
-50,-48,2,50,-26,-23,16,-79,-81,-83,-60,-51
-50,-54,-4,50,-26,-29,16,-73,-75,-77,-54,-51
-50,-54,-4,50,-26,-29,16,-73,-75,-71,-48,-51
-50,-54,-4,50,-26,-29,10,-73,-69,-59,-42,-51
-50,-54,-4,50,-26,-29,16,-67,-69,-59,-42,-51
-50,-54,-4,50,-26,-29,22,-61,-69,-59,-42,-51
-50,-54,-4,50,-26,-29,34,-55,-69,-59,-42,-57
-44,-54,-10,44,-20,-35,40,-49,-63,-53,-42,-51
-44,-60,-16,50,-14,-41,46,-43,-58,-53,-42,-51
-56,-66,-10,56,-26,-41,58,-43,-58,-59,-42,-45
-56,-72,-16,62,-20,-47,58,-38,-53,-71,-48,-51
-56,-78,-22,62,-20,-53,58,-33,-47,-71,-48,-51
-56,-84,-28,68,-14,-59,64,-21,-47,-77,-54,-51
-50,-90,-40,68,-8,-65,64,-15,-41,-77,-60,-51
-50,-90,-40,68,-8,-65,70,-3,-35,-71,-60,-51
-44,-96,-52,68,4,-77,70,9,-35,-65,-60,-51
-38,-90,-52,62,4,-71,70,15,-23,-65,-54,-51
-26,-84,-58,56,16,-71,76,27,-5,-53,-48,-45
-26,-78,-52,50,10,-65,82,39,7,-48,-48,-39
-20,-78,-58,44,16,-71,82,57,19,-43,-36,-39
-20,-72,-52,44,16,-65,82,81,37,-25,-24,-33
-14,-72,-58,44,22,-65,88,105,55,-13,-13,-33
-8,-54,-46,26,16,-53,94,135,79,5,-2,-27
-3,-42,-40,20,16,-41,82,165,109,23,10,-22
14,-30,-46,8,28,-35,76,195,133,35,22,-11
32,-18,-52,-10,40,-35,52,225,157,47,22,-5
56,-18,-76,-22,64,-47,28,249,181,59,34,1
68,-12,-82,-28,76,-47,-8,273,205,83,46,13
80,-6,-88,-38,82,-47,-38,297,229,101,58,25
92,6,-88,-50,88,-41,-60,321,253,125,70,37
104,12,-94,-56,100,-41,-84,345,277,143,82,49
122,24,-100,-68,112,-35,-126,375,295,161,94,61
134,36,-100,-80,118,-29,-174,399,325,185,112,73
146,42,-106,-92,124,-29,-222,417,349,203,130,85
170,54,-118,-110,142,-29,-264,435,361,221,148,97
188,54,-136,-122,160,-41,-312,459,373,233,160,109
212,48,-166,-128,190,-59,-348,483,385,239,172,109
236,42,-196,-140,214,-77,-390,501,397,263,184,115
260,48,-214,-152,238,-83,-432,537,433,299,202,121
284,60,-226,-170,256,-83,-468,573,469,335,214,133
296,60,-238,-176,268,-89,-498,609,505,365,226,133
302,42,-262,-170,280,-107,-522,633,535,389,232,139
302,30,-274,-164,286,-119,-534,657,571,413,244,139
314,18,-298,-164,304,-137,-540,687,613,455,268,151
344,42,-304,-194,322,-131,-552,723,679,521,316,175
386,71,-316,-224,352,-119,-576,753,757,617,382,223
446,106,-340,-272,394,-113,-624,777,841,725,466,277
524,154,-370,-338,448,-107,-690,783,931,851,568,349
608,202,-406,-404,508,-101,-786,765,1009,983,682,421
686,250,-436,-464,562,-89,-906,741,1075,1121,802,511
782,316,-466,-542,628,-71,-1038,711,1147,1259,940,607
878,388,-490,-626,688,-47,-1164,681,1219,1391,1066,715
962,466,-496,-710,730,-11,-1284,645,1279,1511,1192,823
1034,550,-484,-788,760,37,-1392,591,1315,1589,1288,919
1088,622,-466,-854,778,77,-1476,525,1315,1619,1348,997
1118,670,-448,-890,784,113,-1548,405,1237,1571,1360,1045
1118,712,-406,-908,766,155,-1590,213,1057,1463,1336,1069
1094,730,-364,-908,730,185,-1602,-43,757,1271,1264,1069
1034,754,-280,-890,658,239,-1602,-349,409,1055,1192,1069
932,754,-178,-842,556,287,-1584,-649,55,851,1114,1051
800,712,-88,-752,448,311,-1530,-919,-279,617,1000,997
668,598,-70,-632,370,263,-1440,-1105,-573,311,772,853
536,454,-82,-494,310,185,-1320,-1195,-795,-13,496,667
404,328,-76,-362,244,125,-1182,-1213,-927,-257,262,505
278,238,-40,-254,160,101,-1026,-1183,-969,-413,88,373
188,166,-22,-176,106,72,-882,-1123,-945,-491,-24,271
134,112,-22,-116,82,49,-732,-1027,-873,-515,-102,193
86,71,-16,-74,52,31,-600,-919,-777,-491,-132,139
50,48,-4,-44,28,25,-492,-799,-669,-449,-138,109
20,24,2,-22,10,13,-402,-679,-579,-407,-138,73
-3,6,8,-4,-8,7,-330,-571,-495,-371,-132,49
-26,-6,20,14,-26,7,-270,-463,-417,-335,-126,25
-56,-18,38,32,-48,7,-216,-373,-351,-299,-120,7
-86,-30,56,56,-72,13,-162,-313,-297,-275,-120,-11
-98,-42,56,68,-78,7,-108,-265,-249,-257,-126,-22
-110,-54,56,80,-84,1,-54,-235,-207,-239,-126,-33
-122,-66,56,92,-90,-5,-8,-211,-171,-209,-120,-45
-128,-90,38,104,-84,-29,40,-193,-129,-185,-120,-45
-134,-102,32,116,-84,-35,70,-169,-105,-167,-120,-57
-128,-114,14,116,-72,-53,94,-139,-87,-155,-120,-75
-134,-126,8,128,-72,-59,112,-109,-63,-155,-126,-87
-140,-138,2,134,-72,-71,124,-79,-58,-155,-126,-93
-152,-150,2,146,-78,-77,130,-61,-58,-149,-126,-99
-158,-156,2,158,-78,-77,142,-55,-47,-137,-126,-105
-170,-156,14,164,-90,-71,148,-55,-35,-137,-132,-105
-176,-156,20,164,-96,-71,160,-67,-35,-131,-144,-111
-176,-156,20,164,-96,-71,172,-67,-29,-125,-138,-111
-182,-162,20,170,-102,-71,184,-67,-23,-125,-132,-111
-188,-162,26,170,-108,-71,190,-61,-23,-131,-132,-111
-188,-168,20,176,-102,-77,202,-49,-23,-137,-132,-117
-182,-168,14,176,-96,-77,202,-38,-17,-143,-126,-117
-182,-168,14,176,-96,-77,214,-38,-23,-143,-120,-117
-188,-168,20,176,-102,-77,220,-33,-17,-137,-120,-111
-182,-168,14,176,-96,-77,220,-33,-11,-137,-120,-117
-182,-168,14,176,-96,-77,226,-33,-17,-137,-126,-117
-182,-174,8,176,-96,-83,232,-33,-17,-137,-126,-117
-194,-180,14,188,-102,-83,232,-27,-17,-137,-126,-117
-200,-186,14,188,-108,-89,244,-27,-23,-137,-132,-117
-206,-180,26,194,-114,-77,250,-27,-29,-137,-132,-111
-218,-186,32,200,-126,-77,250,-21,-35,-143,-132,-117
-218,-192,26,206,-120,-83,250,-21,-41,-155,-138,-117
-218,-186,32,200,-126,-77,256,-21,-47,-161,-144,-123
-218,-186,32,200,-126,-77,256,-21,-41,-167,-144,-129
-218,-186,32,200,-126,-77,262,-15,-35,-167,-144,-135
-224,-192,32,206,-126,-83,274,-15,-29,-173,-144,-129
-230,-192,38,212,-132,-77,286,-15,-23,-173,-144,-129
-230,-186,44,206,-138,-71,292,-15,-17,-167,-144,-129
-230,-186,44,206,-138,-71,298,-15,-17,-161,-138,-123
-236,-180,56,206,-144,-65,304,-9,-11,-161,-138,-117
-248,-180,68,212,-156,-59,310,-9,-5,-155,-144,-117
-248,-180,68,212,-156,-59,316,-15,-11,-155,-144,-123
-248,-180,68,212,-156,-59,316,-15,-5,-149,-150,-129
-254,-180,73,218,-162,-53,316,-9,1,-137,-150,-129
-260,-180,78,218,-168,-53,328,-3,13,-131,-150,-129
-272,-186,84,224,-180,-53,340,-3,19,-125,-156,-135
-278,-186,90,230,-186,-47,346,-3,25,-125,-150,-129
-290,-186,102,236,-198,-41,364,3,31,-119,-150,-129
-296,-186,108,236,-204,-41,376,9,43,-107,-144,-129
-302,-180,120,242,-210,-29,388,15,55,-101,-144,-129
-302,-180,120,242,-210,-29,394,21,61,-95,-144,-135
-314,-174,138,242,-228,-17,400,33,73,-83,-138,-135
-308,-168,138,236,-222,-17,400,39,79,-71,-138,-135
-314,-162,150,236,-234,-5,412,51,91,-65,-138,-129
-314,-156,156,236,-234,1,424,57,97,-65,-138,-129
-326,-150,174,236,-252,13,430,63,97,-59,-138,-123
-326,-138,186,230,-258,25,442,69,103,-53,-132,-123
-320,-132,186,224,-252,25,448,81,115,-53,-126,-117
-326,-132,192,230,-258,31,460,87,121,-48,-120,-117
-326,-126,198,224,-264,37,472,99,127,-43,-114,-111
-332,-126,204,224,-270,37,478,111,139,-43,-108,-117
-338,-120,216,230,-276,49,496,129,151,-37,-96,-111
-338,-114,222,224,-282,55,508,141,163,-31,-96,-111
-332,-108,222,218,-276,55,520,153,169,-37,-96,-111
-320,-102,216,206,-270,55,532,171,181,-43,-96,-105
-314,-90,222,200,-270,67,544,189,199,-31,-90,-93
-302,-78,222,188,-264,72,556,213,223,-13,-84,-87
-290,-60,228,176,-258,83,562,231,235,-1,-78,-75
-272,-42,228,152,-252,89,562,243,241,11,-72,-75
-266,-24,240,146,-252,107,574,261,247,17,-72,-63
-266,-18,246,140,-258,113,592,279,259,17,-72,-57
-260,-6,252,128,-258,119,604,297,271,29,-66,-51
-254,0,252,128,-252,125,610,315,283,35,-54,-45
-254,12,264,122,-258,137,616,333,307,53,-48,-39
-248,24,270,110,-258,143,616,345,325,65,-42,-33
-236,36,270,98,-252,149,616,363,343,71,-36,-27
-230,42,270,92,-252,155,616,381,361,83,-24,-22
-224,48,270,86,-246,155,616,399,373,89,-24,-22
-212,54,264,74,-240,155,622,417,379,95,-24,-22
-206,54,258,74,-234,155,616,435,379,89,-24,-22
-200,60,258,68,-228,155,616,447,385,95,-18,-17
-194,66,258,62,-228,161,610,465,403,113,-13,-11
-188,71,258,56,-222,161,598,471,415,131,-2,-11
-188,76,264,56,-222,167,592,471,421,143,10,-5
-182,82,264,50,-222,173,592,477,427,149,10,-5
-176,88,264,44,-216,173,580,483,427,149,16,1
-170,88,258,44,-210,173,568,489,427,143,16,1
-170,94,264,38,-216,179,556,489,427,143,16,1
-158,100,258,32,-204,179,550,495,433,143,28,1
-146,100,246,26,-192,173,538,489,433,143,28,7
-134,106,240,14,-186,173,526,483,433,149,40,7
-128,118,246,2,-186,179,514,483,439,155,46,13
-128,118,246,2,-186,179,502,483,445,167,52,19
-122,118,240,2,-180,179,490,477,433,161,52,25
-116,112,228,2,-168,167,478,465,427,161,46,25
-116,112,228,2,-168,167,466,453,421,161,46,25
-104,112,216,-4,-156,161,448,447,415,161,46,31
-98,112,210,-4,-150,161,424,435,403,173,46,37
-98,112,210,-4,-150,161,406,423,397,179,52,43
-104,106,210,-4,-156,155,388,411,391,173,58,49
-98,94,192,2,-144,143,370,387,379,161,58,43
-98,82,180,8,-138,131,352,369,349,137,46,37
-92,76,168,8,-126,119,334,357,337,119,40,37
-92,71,162,8,-126,113,310,339,325,113,40,31
-92,66,156,8,-126,107,292,327,313,113,34,31
-86,60,144,14,-114,101,274,303,295,107,28,25
-74,48,120,14,-96,83,262,285,277,107,28,19
-68,42,108,8,-90,72,238,261,265,101,22,13
-56,30,84,8,-72,55,220,237,253,89,22,13
-44,24,68,8,-54,43,190,213,235,83,22,1
-44,12,56,14,-48,31,172,189,217,77,16,-5
-44,0,44,20,-42,19,148,165,205,71,16,-11
-44,-12,32,26,-37,7,136,153,193,71,10,-11
-38,-24,14,32,-26,-5,124,129,169,59,-2,-17
-38,-30,8,32,-26,-11,112,117,145,41,-13,-22
-32,-36,-4,32,-14,-23,100,105,127,29,-18,-27
-32,-36,-4,32,-14,-23,82,87,115,23,-24,-27
-32,-48,-16,38,-8,-35,64,63,91,17,-30,-33
-38,-54,-16,44,-14,-35,46,45,85,23,-24,-33
-38,-66,-28,50,-8,-47,28,33,79,17,-24,-33
-32,-78,-46,50,4,-65,16,15,67,5,-30,-33
-32,-84,-52,56,10,-71,10,9,49,-7,-42,-33
-26,-90,-64,56,16,-77,4,-3,37,-19,-48,-39
-26,-102,-76,62,22,-89,-2,-9,31,-19,-54,-45
-26,-108,-82,68,28,-95,-8,-15,25,-19,-54,-51
-14,-108,-94,62,40,-101,-14,-21,19,-19,-60,-51
-3,-102,-100,50,46,-101,-20,-27,7,-31,-60,-57
8,-102,-112,44,58,-107,-14,-33,-5,-43,-66,-57
14,-96,-112,44,64,-101,-14,-38,-5,-43,-72,-63
26,-102,-130,38,76,-113,-8,-49,-11,-48,-78,-63
26,-102,-130,38,76,-113,-8,-55,-17,-53,-78,-63
26,-108,-136,44,82,-119,-14,-55,-17,-53,-78,-69
20,-120,-142,50,82,-131,-20,-55,-17,-59,-78,-75
14,-126,-142,56,76,-131,-20,-61,-23,-71,-84,-75
20,-120,-142,50,82,-131,-26,-61,-29,-83,-90,-81
20,-120,-142,50,82,-131,-26,-61,-35,-89,-90,-87
20,-126,-148,50,82,-137,-32,-67,-35,-95,-96,-87
20,-126,-148,50,82,-137,-32,-73,-41,-89,-102,-93
20,-126,-148,50,82,-137,-32,-73,-41,-89,-108,-93
14,-126,-142,56,76,-131,-32,-73,-47,-95,-108,-93
20,-120,-142,50,82,-131,-32,-73,-47,-95,-108,-93
26,-126,-154,50,88,-137,-32,-73,-41,-95,-108,-93
38,-120,-160,44,100,-137,-38,-79,-47,-89,-108,-93
44,-114,-160,32,100,-137,-38,-85,-41,-89,-108,-93
50,-120,-172,38,112,-143,-38,-91,-41,-95,-102,-93
50,-114,-166,32,106,-137,-32,-91,-41,-95,-102,-99
56,-114,-172,26,112,-143,-32,-91,-41,-101,-102,-93
62,-108,-172,26,118,-137,-32,-97,-47,-101,-96,-93
62,-108,-172,26,118,-137,-32,-91,-47,-101,-96,-87
62,-102,-166,20,112,-131,-32,-85,-41,-95,-96,-87
62,-96,-160,20,112,-125,-32,-79,-35,-95,-90,-87
68,-84,-154,8,112,-119,-32,-79,-41,-89,-90,-81
74,-78,-154,2,112,-113,-32,-73,-35,-89,-90,-75
80,-66,-148,-10,112,-107,-32,-73,-35,-89,-84,-69
86,-66,-154,-10,118,-107,-32,-73,-29,-83,-84,-69
92,-60,-154,-16,124,-107,-38,-73,-35,-83,-78,-69
92,-54,-148,-22,118,-101,-38,-73,-29,-77,-78,-69
104,-48,-154,-28,130,-101,-38,-67,-23,-77,-72,-75
110,-42,-154,-33,130,-95,-32,-67,-17,-77,-78,-75
116,-42,-160,-38,136,-101,-32,-67,-23,-83,-78,-75
110,-42,-154,-33,130,-95,-26,-67,-23,-77,-78,-75
104,-42,-148,-33,124,-95,-26,-67,-23,-71,-78,-81
104,-42,-148,-33,124,-95,-32,-67,-23,-65,-78,-81
98,-42,-142,-28,118,-89,-32,-73,-29,-65,-84,-87
92,-42,-136,-28,112,-89,-32,-67,-23,-59,-84,-87
86,-48,-136,-16,112,-89,-38,-73,-23,-59,-84,-93
86,-48,-136,-16,112,-89,-43,-73,-23,-59,-78,-93
86,-48,-136,-16,112,-89,-43,-73,-23,-59,-78,-93
80,-54,-136,-16,106,-95,-38,-73,-23,-59,-78,-81
80,-48,-130,-16,106,-89,-26,-73,-29,-59,-78,-81
80,-48,-130,-16,106,-89,-26,-79,-35,-71,-84,-81
80,-54,-136,-16,106,-95,-32,-79,-35,-77,-96,-87
68,-60,-130,-4,100,-95,-32,-91,-41,-77,-102,-93
62,-66,-130,2,94,-95,-26,-85,-35,-71,-96,-93
56,-66,-124,2,88,-95,-20,-79,-29,-65,-96,-93
50,-72,-124,14,88,-95,-20,-79,-29,-65,-90,-87
44,-72,-118,14,82,-95,-20,-79,-35,-65,-84,-87
44,-72,-118,14,82,-95,-32,-85,-41,-65,-84,-93
44,-78,-124,14,82,-101,-32,-79,-41,-65,-84,-93
44,-78,-124,14,82,-101,-38,-85,-35,-71,-90,-99
44,-84,-130,20,88,-107,-43,-85,-35,-65,-90,-99
38,-84,-124,26,82,-101,-43,-85,-35,-65,-90,-105
32,-84,-118,26,76,-101,-43,-85,-35,-71,-96,-105
32,-84,-118,26,76,-101,-43,-85,-41,-71,-96,-105
26,-90,-118,32,70,-101,-43,-85,-35,-71,-102,-99
20,-90,-112,32,64,-101,-43,-85,-35,-65,-108,-99
20,-96,-118,38,70,-107,-43,-85,-29,-65,-108,-99
26,-96,-124,38,76,-107,-43,-85,-35,-71,-120,-105
20,-96,-118,38,70,-107,-38,-85,-35,-77,-120,-111
8,-96,-106,44,58,-101,-32,-85,-35,-77,-120,-111
-3,-96,-94,50,46,-95,-32,-91,-29,-71,-114,-99
-3,-96,-94,50,46,-95,-32,-91,-29,-71,-114,-99
-3,-96,-94,50,46,-95,-32,-85,-29,-77,-108,-99
-8,-90,-82,44,34,-89,-32,-79,-23,-71,-102,-87
-14,-90,-76,50,28,-83,-26,-79,-23,-71,-96,-81
-14,-84,-70,50,28,-77,-20,-73,-23,-77,-90,-75
-14,-78,-64,44,22,-71,-26,-73,-23,-77,-90,-81
-14,-72,-58,44,22,-65,-14,-67,-17,-65,-84,-75
-20,-66,-46,38,10,-59,-8,-61,-11,-59,-84,-75
-20,-60,-40,38,10,-53,-8,-61,-17,-48,-84,-75
-26,-60,-34,44,4,-47,-8,-61,-11,-48,-78,-69
-32,-60,-28,44,-2,-47,-8,-61,-11,-48,-78,-69
-32,-66,-34,44,-2,-53,-8,-61,-11,-48,-78,-69
-32,-60,-28,44,-2,-47,-8,-61,-23,-53,-78,-75
-38,-60,-22,50,-8,-41,-8,-61,-23,-53,-78,-75
-44,-66,-22,50,-14,-47,-8,-67,-29,-59,-78,-75
-56,-72,-16,62,-20,-47,-8,-67,-29,-65,-78,-81
-56,-66,-10,56,-26,-41,-8,-67,-29,-71,-78,-81
-50,-60,-10,56,-20,-35,-8,-67,-29,-71,-78,-87
-38,-54,-16,44,-14,-35,-8,-73,-29,-77,-72,-87
-44,-54,-10,44,-20,-35,-8,-73,-29,-77,-72,-87
-38,-54,-16,44,-14,-35,-8,-73,-29,-83,-72,-87
-38,-54,-16,44,-14,-35,-2,-73,-29,-89,-84,-87
-44,-54,-10,44,-20,-35,-2,-73,-41,-89,-78,-87
-44,-54,-10,44,-20,-35,-2,-73,-35,-89,-78,-81
-50,-54,-4,50,-26,-29,10,-73,-35,-83,-78,-75
-50,-48,2,50,-26,-23,10,-73,-29,-77,-78,-75
-56,-42,14,44,-37,-17,10,-73,-29,-71,-78,-75
-56,-36,20,44,-37,-11,16,-73,-29,-71,-72,-69
-50,-30,20,38,-37,-5,16,-67,-29,-71,-66,-57
-56,-30,26,38,-42,-5,22,-67,-23,-71,-66,-51
-50,-18,32,32,-42,7,22,-61,-17,-65,-54,-45
-56,-18,38,32,-48,7,22,-61,-11,-65,-48,-45
-56,-12,44,32,-48,13,22,-55,-17,-59,-48,-45
-50,-6,44,26,-48,19,22,-55,-11,-59,-42,-51
-50,0,50,26,-48,25,22,-55,-11,-53,-42,-51
-44,6,50,14,-48,25,22,-55,-11,-48,-42,-45
-38,12,50,14,-42,31,28,-55,-11,-48,-42,-45
-38,6,44,14,-42,25,28,-55,-17,-48,-42,-39
-38,12,50,14,-42,31,28,-61,-11,-43,-42,-39
-38,12,50,14,-42,31,28,-61,-11,-48,-42,-39
-38,12,50,14,-42,31,34,-55,-11,-48,-42,-39
-38,12,50,14,-42,31,34,-55,-11,-48,-36,-33
-38,12,50,14,-42,31,34,-49,-11,-43,-30,-33
-44,18,62,8,-54,37,28,-49,-11,-43,-30,-27
-44,24,68,8,-54,43,22,-55,-5,-37,-24,-22
-50,30,78,8,-66,55,22,-61,-5,-31,-24,-22
-50,36,84,8,-66,61,16,-73,-5,-25,-18,-17
-50,36,84,8,-66,61,10,-79,-5,-25,-18,-11
-50,36,84,8,-66,61,-2,-79,-5,-25,-24,-11
-56,36,90,8,-72,61,-14,-85,-11,-31,-24,-11
-62,42,102,8,-84,72,-20,-85,-11,-25,-18,-11
-62,42,102,8,-84,72,-32,-85,-5,-19,-18,-11
-62,36,96,14,-78,67,-38,-91,-11,-13,-18,-17
-50,30,78,8,-66,55,-38,-85,-11,-13,-18,-17
-50,30,78,8,-66,55,-43,-85,-11,-19,-18,-17
-50,30,78,8,-66,55,-43,-85,-5,-19,-18,-17
-56,24,78,14,-66,49,-43,-85,-5,-25,-18,-17
-56,18,73,14,-66,43,-48,-85,-17,-31,-24,-17
-50,18,68,14,-60,43,-54,-97,-23,-37,-30,-17
-50,18,68,14,-60,43,-66,-103,-29,-37,-30,-17
-56,18,73,14,-66,43,-66,-109,-29,-37,-30,-22
-50,18,68,14,-60,43,-66,-103,-29,-37,-30,-22
-56,18,73,14,-66,43,-60,-109,-35,-37,-36,-22
-62,12,73,26,-66,43,-66,-121,-47,-43,-42,-22
-62,12,73,26,-66,43,-72,-127,-53,-43,-48,-27
-68,6,73,26,-72,37,-72,-133,-58,-43,-48,-27
-68,-6,62,32,-66,25,-72,-127,-58,-48,-54,-27
-68,-12,56,38,-60,19,-78,-127,-63,-53,-60,-33
-68,-18,50,38,-60,13,-72,-127,-75,-53,-54,-33
-68,-24,44,44,-54,7,-60,-127,-75,-53,-54,-39
-74,-24,50,50,-60,13,-48,-121,-69,-53,-54,-39
-80,-30,50,50,-66,7,-43,-121,-63,-53,-60,-39
-92,-30,62,56,-78,13,-32,-121,-63,-59,-60,-39
-92,-42,50,62,-72,1,-32,-127,-69,-65,-66,-51
-92,-48,44,68,-66,-5,-38,-127,-69,-65,-72,-57
-92,-54,38,68,-66,-11,-38,-127,-69,-71,-72,-63
-86,-48,38,68,-60,-5,-32,-127,-69,-71,-78,-63
-80,-48,32,62,-54,-11,-26,-121,-69,-71,-78,-69
-80,-48,32,62,-54,-11,-20,-121,-69,-71,-84,-69
-80,-48,32,62,-54,-11,-20,-121,-75,-71,-84,-75
-74,-48,26,62,-48,-11,-14,-121,-75,-71,-84,-75
-80,-48,32,62,-54,-11,-8,-121,-81,-77,-84,-75
-80,-42,38,56,-60,-5,-8,-115,-75,-77,-78,-75
-80,-42,38,56,-60,-5,4,-103,-69,-71,-78,-75
-74,-42,32,56,-54,-5,4,-91,-69,-71,-78,-75
-68,-42,26,50,-48,-11,4,-79,-63,-71,-72,-75
-62,-42,20,50,-42,-11,4,-73,-58,-65,-66,-69
-50,-42,8,44,-32,-17,10,-67,-53,-65,-66,-69
-50,-48,2,50,-26,-23,10,-67,-53,-71,-72,-69
-62,-48,14,56,-37,-17,16,-61,-58,-65,-72,-75
-62,-54,8,56,-37,-23,22,-55,-53,-65,-72,-75
-68,-60,8,62,-37,-29,28,-49,-47,-59,-72,-75
-62,-60,2,62,-32,-29,28,-43,-41,-65,-78,-69
-62,-66,-4,62,-32,-35,34,-38,-35,-65,-78,-69
-62,-66,-4,62,-32,-35,34,-27,-35,-59,-78,-69
-56,-66,-10,56,-26,-41,34,-21,-23,-48,-72,-69
-50,-66,-16,56,-20,-41,34,-9,-11,-48,-66,-69
-50,-66,-16,56,-20,-41,40,3,1,-43,-60,-63
-50,-66,-16,56,-20,-41,40,15,13,-37,-54,-63
-44,-60,-16,50,-14,-41,52,33,25,-31,-42,-57
-32,-54,-22,38,-8,-41,52,57,37,-19,-36,-57
-26,-42,-16,32,-8,-29,52,81,61,-7,-24,-45
-20,-36,-16,26,-2,-29,52,105,85,5,-13,-39
-8,-24,-16,14,4,-23,40,129,109,17,-8,-33
-3,-18,-16,8,4,-17,28,159,127,35,-8,-27
8,-12,-22,2,16,-17,10,189,151,53,4,-22
20,-6,-28,-10,22,-17,-20,219,175,65,10,-11
44,6,-40,-28,40,-17,-43,237,199,83,16,1
56,18,-40,-38,46,-11,-66,267,223,95,28,13
74,24,-52,-44,64,-11,-96,291,241,107,40,19
80,36,-46,-56,64,-5,-126,321,259,119,46,25
92,48,-46,-68,70,1,-174,345,283,137,58,37
104,54,-52,-80,76,1,-222,363,301,161,70,43
110,66,-46,-86,76,13,-270,381,325,191,94,55
122,66,-58,-92,88,7,-318,399,343,221,112,67
146,66,-82,-104,112,-5,-360,411,349,233,124,73
182,66,-118,-122,148,-23,-402,429,349,245,136,73
212,66,-148,-140,178,-41,-438,459,373,263,148,79
242,71,-172,-152,208,-47,-480,489,397,275,166,91
260,71,-190,-164,226,-59,-522,519,427,305,184,109
278,71,-208,-170,244,-65,-552,543,463,335,196,115
290,60,-232,-170,262,-83,-576,561,481,365,202,115
308,54,-256,-182,280,-101,-588,573,499,389,214,115
332,48,-286,-188,310,-119,-588,603,541,425,238,121
356,60,-298,-206,328,-119,-606,639,607,485,280,145
404,82,-322,-242,364,-119,-630,675,679,569,346,175
458,124,-334,-284,400,-101,-672,699,769,671,424,235
524,166,-358,-344,442,-95,-726,711,847,779,508,295
596,208,-388,-398,496,-89,-810,705,913,899,604,361
686,262,-424,-470,556,-77,-912,675,973,1019,706,445
782,328,-454,-548,622,-59,-1038,651,1039,1151,826,535
884,400,-484,-638,688,-41,-1170,621,1111,1277,940,631
980,472,-508,-722,748,-17,-1302,591,1171,1391,1066,727
1064,562,-502,-812,784,31,-1428,549,1219,1487,1174,829
1130,634,-496,-878,814,72,-1530,495,1231,1529,1252,907
1178,694,-484,-932,832,107,-1608,399,1183,1511,1282,967
1190,742,-448,-962,820,149,-1656,243,1063,1445,1282,1015
1166,766,-400,-962,784,185,-1674,21,847,1307,1240,1027
1118,778,-340,-944,730,221,-1680,-253,529,1103,1156,1021
1040,796,-244,-914,646,275,-1662,-559,175,893,1066,1009
926,790,-136,-854,532,329,-1620,-847,-153,695,976,979
794,724,-70,-752,436,329,-1548,-1087,-477,431,808,883
656,592,-64,-620,364,263,-1434,-1219,-741,119,556,715
518,460,-58,-482,292,203,-1302,-1273,-909,-149,316,553
398,358,-40,-374,220,161,-1146,-1261,-975,-335,136,421
284,274,-10,-278,148,131,-990,-1207,-969,-425,16,307
200,196,-4,-194,106,95,-834,-1111,-909,-473,-66,211
140,136,-4,-134,76,67,-690,-1009,-819,-473,-120,139
92,100,8,-92,46,55,-564,-883,-717,-431,-126,91
56,82,26,-68,16,55,-462,-763,-615,-383,-126,55
26,71,44,-44,-8,61,-378,-643,-525,-347,-126,25
-3,54,56,-28,-32,55,-312,-547,-459,-323,-138,1
-32,42,73,-10,-54,55,-252,-451,-399,-305,-144,-17
-56,30,84,8,-72,55,-198,-379,-345,-281,-150,-33
-74,18,90,26,-84,55,-144,-325,-291,-263,-150,-45
-86,6,90,38,-90,49,-90,-283,-249,-245,-144,-57
-86,-6,78,44,-84,37,-38,-247,-195,-227,-144,-69
-86,-24,62,56,-72,19,10,-217,-153,-209,-144,-81
-86,-48,38,68,-60,-5,46,-193,-129,-197,-144,-93
-92,-66,26,74,-60,-23,76,-163,-105,-185,-144,-99
-104,-78,26,86,-66,-29,94,-139,-93,-167,-144,-111
-104,-90,14,92,-60,-41,106,-115,-81,-149,-144,-117
-116,-84,32,98,-72,-29,118,-97,-81,-143,-144,-117
-128,-90,38,104,-84,-29,130,-85,-69,-131,-138,-117
-134,-90,44,110,-90,-23,130,-79,-63,-125,-138,-117
-140,-90,50,110,-96,-23,142,-79,-58,-119,-144,-123
-146,-90,56,116,-102,-17,160,-79,-47,-113,-138,-123
-140,-84,56,110,-96,-17,172,-85,-41,-107,-132,-123
-134,-90,44,110,-90,-23,184,-79,-35,-107,-132,-123
-134,-96,38,116,-84,-29,190,-73,-35,-107,-132,-129
-140,-96,44,116,-90,-29,196,-61,-29,-107,-132,-129
-140,-102,38,116,-90,-35,202,-55,-29,-119,-138,-135
-146,-102,44,122,-96,-29,202,-55,-29,-125,-138,-135
-146,-102,44,122,-96,-29,208,-55,-35,-131,-144,-135
-146,-102,44,122,-96,-29,208,-49,-35,-137,-144,-141
-152,-102,50,122,-102,-29,220,-49,-29,-131,-144,-141
-158,-102,56,128,-108,-23,226,-49,-35,-131,-144,-141
-158,-102,56,128,-108,-23,238,-43,-35,-131,-144,-141
-158,-96,62,128,-108,-17,244,-38,-35,-137,-144,-141
-164,-96,68,128,-114,-17,250,-38,-41,-137,-150,-141
-164,-102,62,128,-114,-23,250,-38,-41,-131,-150,-141
-170,-102,68,134,-120,-17,250,-33,-41,-131,-150,-141
-176,-102,73,134,-126,-17,256,-33,-47,-137,-150,-141
-182,-108,73,146,-126,-17,274,-33,-41,-137,-150,-135
-182,-108,73,146,-126,-17,280,-33,-47,-137,-150,-135
-188,-108,78,146,-132,-17,286,-33,-41,-143,-156,-135
-194,-108,84,152,-138,-11,292,-33,-41,-155,-162,-135
-206,-114,90,158,-150,-11,304,-33,-41,-155,-168,-135
-218,-108,108,164,-162,1,310,-38,-35,-161,-168,-135
-224,-108,114,164,-168,1,310,-38,-35,-161,-174,-141
-236,-108,126,170,-180,7,316,-38,-35,-161,-174,-141
-248,-114,132,176,-192,7,322,-38,-35,-155,-174,-135
-248,-108,138,176,-192,13,322,-38,-35,-143,-168,-135
-248,-108,138,176,-192,13,334,-33,-23,-131,-168,-135
-248,-108,138,176,-192,13,340,-27,-17,-131,-168,-141
-248,-108,138,176,-192,13,346,-21,-11,-131,-168,-147
-248,-108,138,176,-192,13,352,-15,-5,-125,-174,-153
-254,-108,144,182,-198,19,364,-9,7,-119,-174,-147
-272,-108,162,188,-216,25,376,-3,13,-119,-174,-147
-284,-114,168,194,-228,25,382,-3,19,-119,-180,-147
-290,-114,174,200,-234,31,394,3,19,-113,-174,-147
-290,-114,174,200,-234,31,406,9,25,-113,-174,-147
-296,-114,180,200,-240,31,418,21,37,-101,-168,-141
-302,-108,192,206,-246,43,430,33,49,-83,-162,-135
-320,-108,210,212,-264,49,442,45,67,-65,-156,-135
-326,-102,222,212,-276,61,454,57,79,-65,-150,-135
-326,-96,228,212,-276,67,466,63,85,-65,-150,-129
-332,-96,234,212,-282,67,472,69,91,-59,-144,-129
-326,-90,234,206,-282,72,478,81,103,-48,-132,-129
-326,-78,246,200,-288,83,484,99,109,-48,-126,-123
-320,-72,246,194,-282,83,490,111,121,-48,-126,-117
-320,-60,258,188,-288,95,496,123,133,-48,-126,-117
-320,-54,264,182,-294,101,508,141,145,-48,-126,-105
-320,-48,270,182,-294,107,526,147,157,-43,-120,-99
-320,-42,276,176,-300,113,544,165,175,-31,-114,-99
-320,-30,288,170,-306,125,556,177,187,-13,-102,-99
-320,-18,300,164,-312,137,568,195,199,-1,-96,-87
-314,-6,306,158,-312,149,574,213,205,5,-90,-87
-296,6,300,140,-300,149,580,231,211,11,-78,-87
-278,24,300,128,-288,161,586,249,235,23,-72,-81
-260,48,306,104,-282,173,592,273,259,35,-60,-75
-254,60,312,98,-282,185,604,303,271,41,-54,-69
-260,66,324,92,-294,191,616,321,277,35,-54,-69
-260,71,330,92,-294,197,628,339,289,41,-54,-63
-242,76,318,86,-276,197,634,357,301,53,-48,-57
-242,82,324,80,-282,203,640,369,313,59,-42,-57
-230,88,318,74,-270,203,640,381,319,71,-42,-51
-218,100,318,62,-264,209,640,393,331,83,-36,-51
-218,106,324,56,-270,215,634,405,343,95,-30,-45
-218,106,324,56,-270,215,628,423,355,101,-24,-39
-206,112,318,50,-258,215,616,435,361,107,-18,-33
-206,118,324,44,-264,221,604,447,373,107,-13,-27
-200,124,324,38,-258,221,598,459,379,113,-8,-22
-200,130,330,32,-264,227,592,465,385,119,-2,-22
-194,136,330,32,-258,233,586,471,385,125,4,-17
-182,148,330,20,-252,239,580,471,391,137,10,-17
-170,148,318,14,-240,233,574,471,391,143,16,-17
-170,148,318,14,-240,233,568,471,385,143,16,-11
-164,154,318,2,-240,233,556,471,385,149,16,-11
-158,154,312,2,-234,233,538,471,385,155,22,-5
-146,160,306,-4,-222,233,526,477,385,155,28,1
-140,166,306,-16,-222,233,514,465,385,155,34,7
-128,166,294,-22,-210,227,496,459,379,149,34,7
-122,160,282,-16,-198,221,484,447,379,149,34,13
-116,160,276,-22,-192,215,472,435,379,149,34,13
-110,166,276,-28,-192,221,454,423,373,143,34,13
-98,172,270,-33,-180,221,442,411,361,143,34,19
-92,172,264,-38,-174,215,424,405,355,143,34,19
-80,172,252,-44,-162,209,406,393,343,137,34,19
-68,166,234,-50,-150,197,388,381,325,131,28,19
-68,160,228,-44,-144,191,364,369,313,125,28,7
-62,154,216,-44,-138,185,340,351,295,125,28,7
-62,148,210,-38,-132,179,328,333,289,125,28,7
-56,142,198,-44,-126,167,310,315,277,119,22,7
-44,130,174,-44,-108,149,292,291,259,101,16,1
-38,124,162,-38,-96,143,268,261,241,95,10,-5
-32,118,150,-44,-90,131,250,243,223,89,10,-11
-26,106,132,-38,-78,119,232,225,211,83,4,-11
-26,94,120,-33,-72,107,214,207,193,83,4,-11
-32,82,114,-28,-72,95,196,195,181,77,4,-17
-32,76,108,-22,-66,89,172,177,163,71,4,-22
-32,66,96,-22,-66,77,154,159,151,65,-2,-22
-26,48,73,-10,-48,61,136,135,127,53,-2,-27
-20,30,50,-10,-37,37,118,111,103,47,-8,-33
-14,18,32,-4,-26,25,106,93,91,53,-13,-33
-3,18,20,-10,-14,19,94,75,85,47,-13,-39
-3,12,14,-4,-8,13,88,63,79,41,-24,-39
2,12,8,-4,-2,13,76,51,61,29,-36,-39
8,0,-10,-4,10,-5,64,45,49,5,-42,-45
8,0,-10,-4,10,-5,52,33,37,-7,-42,-51
14,-6,-22,-4,16,-11,40,27,25,-7,-42,-51
20,-6,-28,-10,22,-17,28,15,13,-19,-48,-57
20,-12,-34,-4,28,-23,16,-3,1,-25,-54,-63
20,-24,-46,2,34,-35,10,-15,-11,-31,-54,-69
14,-30,-46,8,28,-35,4,-27,-17,-37,-60,-75
14,-30,-46,8,28,-35,-2,-33,-23,-37,-66,-75
14,-42,-58,14,34,-47,-8,-38,-29,-37,-72,-75
14,-48,-64,20,40,-53,-8,-43,-35,-43,-72,-75
20,-60,-82,20,52,-71,-8,-49,-41,-48,-84,-75
26,-66,-94,20,58,-77,-2,-49,-53,-53,-90,-75
32,-66,-100,14,64,-83,-2,-55,-58,-59,-90,-81
32,-66,-100,14,64,-83,-8,-61,-58,-65,-90,-81
32,-66,-100,14,64,-83,-14,-61,-58,-71,-90,-81
32,-66,-100,14,64,-83,-20,-61,-58,-71,-84,-81
44,-66,-112,8,76,-89,-20,-67,-58,-71,-84,-81
50,-66,-118,8,82,-89,-26,-73,-58,-77,-84,-81
62,-60,-124,2,94,-89,-20,-73,-58,-71,-78,-81
68,-60,-130,-4,100,-95,-20,-73,-63,-65,-78,-81
68,-66,-136,-4,100,-101,-26,-79,-63,-65,-78,-81
68,-66,-136,-4,100,-101,-26,-79,-63,-59,-78,-87
68,-66,-136,-4,100,-101,-26,-79,-69,-59,-78,-87
74,-66,-142,-4,106,-101,-26,-85,-69,-71,-84,-93
74,-60,-136,-4,106,-95,-20,-85,-75,-83,-90,-93
74,-54,-130,-10,100,-89,-20,-85,-75,-89,-90,-93
80,-54,-136,-16,106,-95,-14,-85,-69,-89,-90,-99
80,-54,-136,-16,106,-95,-14,-85,-69,-89,-90,-99
80,-54,-136,-16,106,-95,-14,-85,-75,-89,-90,-99
92,-48,-142,-22,118,-95,-14,-79,-69,-77,-84,-99
98,-48,-148,-22,124,-95,-14,-79,-69,-71,-78,-93
104,-42,-148,-33,124,-95,-8,-73,-63,-71,-78,-93
110,-36,-148,-33,130,-89,-8,-73,-69,-71,-72,-87
116,-30,-148,-44,130,-89,-8,-73,-63,-71,-72,-87
116,-30,-148,-44,130,-89,-8,-67,-58,-65,-72,-81
116,-24,-142,-44,130,-83,-2,-67,-58,-65,-66,-81
116,-24,-142,-44,130,-83,4,-61,-53,-59,-66,-81
116,-24,-142,-44,130,-83,4,-55,-47,-59,-60,-75
122,-18,-142,-50,130,-77,-2,-55,-47,-53,-60,-75
128,-18,-148,-56,136,-83,-2,-49,-47,-48,-54,-69
134,-18,-154,-56,142,-83,-8,-49,-47,-48,-54,-69
128,-18,-148,-56,136,-83,-8,-49,-47,-48,-54,-63
134,-18,-154,-56,142,-83,-8,-55,-47,-43,-48,-69
140,-12,-154,-62,148,-83,-2,-55,-53,-48,-54,-69
134,-12,-148,-56,142,-77,-2,-55,-53,-48,-54,-75
128,-18,-148,-56,136,-83,-2,-55,-53,-53,-60,-75
128,-24,-154,-50,142,-89,-2,-61,-53,-48,-60,-75
128,-24,-154,-50,142,-89,-2,-55,-47,-48,-60,-75
122,-24,-148,-44,136,-83,-8,-49,-41,-37,-54,-69
122,-18,-142,-50,130,-77,-8,-49,-41,-31,-48,-57
122,-18,-142,-50,130,-77,-8,-49,-41,-25,-48,-57
110,-30,-142,-38,124,-83,-2,-49,-47,-37,-54,-57
110,-36,-148,-33,130,-89,-8,-55,-53,-48,-60,-69
98,-42,-142,-28,118,-89,-14,-61,-53,-43,-66,-69
92,-42,-136,-28,112,-89,-8,-61,-53,-43,-66,-69
86,-48,-136,-16,112,-89,-8,-61,-53,-37,-66,-63
80,-60,-142,-10,112,-101,-14,-67,-53,-37,-66,-63
74,-66,-142,-4,106,-101,-14,-67,-58,-48,-72,-63
62,-72,-136,8,100,-101,-14,-67,-58,-53,-78,-63
56,-78,-136,8,94,-107,-14,-67,-63,-59,-78,-69
50,-78,-130,14,88,-101,-20,-67,-58,-53,-78,-75
38,-84,-124,26,82,-101,-26,-67,-58,-48,-78,-81
38,-84,-124,26,82,-101,-26,-67,-58,-48,-72,-87
26,-84,-112,32,70,-95,-20,-67,-58,-43,-66,-87
14,-84,-100,38,58,-89,-20,-73,-58,-37,-66,-81
8,-90,-100,38,52,-95,-20,-73,-58,-37,-72,-81
8,-96,-106,44,58,-101,-26,-73,-63,-43,-78,-87
14,-96,-112,44,64,-101,-26,-79,-58,-37,-84,-81
20,-96,-118,38,70,-107,-26,-79,-58,-43,-84,-81
20,-96,-118,38,70,-107,-32,-73,-58,-48,-84,-81
14,-102,-118,44,64,-107,-26,-73,-58,-48,-84,-81
2,-102,-106,50,52,-101,-20,-67,-58,-48,-90,-81
-3,-108,-106,56,52,-107,-14,-61,-53,-48,-84,-81
-20,-108,-88,62,34,-101,-8,-61,-47,-43,-78,-81
-32,-108,-76,68,22,-95,-2,-55,-41,-37,-78,-81
-38,-108,-70,74,16,-89,-2,-49,-35,-25,-72,-75
-38,-102,-64,68,10,-83,-2,-49,-29,-25,-72,-75
-38,-102,-64,68,10,-83,-2,-49,-29,-31,-66,-69
-32,-96,-64,62,16,-83,-2,-43,-35,-31,-60,-63
-26,-96,-70,62,22,-83,4,-43,-35,-31,-60,-57
-26,-90,-64,56,16,-77,10,-43,-35,-31,-54,-51
-26,-78,-52,50,10,-65,16,-38,-41,-37,-54,-51
-26,-72,-46,50,10,-59,16,-43,-47,-43,-54,-51
-20,-66,-46,38,10,-59,16,-38,-47,-37,-54,-51
-20,-60,-40,38,10,-53,22,-38,-47,-43,-54,-45
-8,-48,-40,26,16,-47,22,-38,-41,-43,-60,-45
-3,-42,-40,20,16,-41,22,-33,-35,-43,-54,-39
-3,-42,-40,20,16,-41,28,-33,-35,-43,-48,-39
-8,-42,-34,20,10,-41,34,-27,-29,-37,-48,-33
-14,-36,-22,26,4,-29,34,-33,-23,-37,-42,-27
-14,-36,-22,26,4,-29,34,-33,-23,-37,-42,-27
-8,-36,-28,20,10,-35,28,-33,-29,-37,-42,-33
-8,-24,-16,14,4,-23,28,-33,-29,-43,-36,-33
-3,-24,-22,14,10,-23,34,-33,-29,-43,-30,-33
-3,-18,-16,8,4,-17,34,-33,-29,-48,-30,-33
2,-18,-22,8,10,-17,40,-33,-35,-48,-30,-33
2,-18,-22,8,10,-17,40,-33,-41,-53,-36,-33
2,-12,-16,8,10,-11,46,-33,-41,-53,-36,-27
8,-6,-16,-4,10,-11,46,-33,-35,-48,-36,-27
8,0,-10,-4,10,-5,46,-33,-35,-48,-30,-22
14,6,-10,-10,10,1,52,-33,-29,-43,-24,-17
14,18,2,-16,4,13,58,-33,-29,-37,-13,-11
14,30,14,-22,-2,25,64,-27,-29,-31,-13,-11
14,36,20,-22,-2,31,58,-27,-23,-25,-8,-11
20,48,26,-33,-2,37,64,-21,-17,-19,-2,-5
20,54,32,-38,-8,43,70,-21,-11,-19,4,-5
20,54,32,-38,-8,43,76,-15,-5,-13,10,7
20,54,32,-38,-8,43,76,-9,1,-7,10,7
14,54,38,-33,-14,49,82,-9,1,-7,10,13
8,54,44,-33,-20,49,76,-9,1,-1,16,7
2,54,50,-28,-26,55,70,-9,1,-1,10,7
2,66,62,-33,-32,67,76,-3,1,5,16,7
8,66,56,-38,-26,61,76,-3,1,11,16,7
8,66,56,-38,-26,61,70,-3,1,11,16,1
8,60,50,-33,-20,55,70,-9,1,11,10,1
8,54,44,-33,-20,49,70,-3,1,11,10,1
2,54,50,-28,-26,55,64,-3,7,17,10,7
2,54,50,-28,-26,55,64,-9,7,17,10,13
2,60,56,-28,-26,61,64,-9,7,17,16,19
-3,66,68,-33,-37,67,64,-15,7,23,22,19
-3,66,68,-33,-37,67,58,-21,1,17,22,13
-3,66,68,-33,-37,67,46,-27,1,17,16,13
-3,60,62,-28,-32,61,40,-27,1,17,16,13
-3,60,62,-28,-32,61,28,-38,1,17,16,13
-3,60,62,-28,-32,61,22,-38,1,17,16,19
-8,54,62,-28,-37,55,22,-38,1,23,16,19
-8,54,62,-28,-37,55,10,-43,-5,23,22,25
-8,54,62,-28,-37,55,-2,-49,-5,29,22,31
-20,54,73,-22,-48,61,-8,-49,-5,29,28,31
-20,48,68,-16,-42,55,-8,-49,-5,23,22,31
-26,48,73,-10,-48,61,-14,-49,-11,23,22,25
-26,48,73,-10,-48,61,-20,-49,-17,17,16,25
-26,48,73,-10,-48,61,-20,-49,-23,17,16,25
-20,48,68,-16,-42,55,-26,-55,-23,11,10,25
-20,48,68,-16,-42,55,-20,-55,-29,11,10,19
-20,48,68,-16,-42,55,-20,-61,-35,5,4,19
-26,42,68,-10,-48,55,-26,-73,-41,-1,4,19
-32,42,73,-10,-54,55,-32,-79,-47,-7,-2,19
-32,36,68,-4,-48,49,-32,-85,-58,-13,-2,13
-26,24,50,2,-37,37,-38,-85,-58,-25,-8,7
-20,24,44,-4,-32,31,-38,-91,-63,-19,-13,1
-20,12,32,2,-26,19,-32,-91,-69,-19,-13,7
-26,12,38,8,-32,25,-26,-91,-63,-25,-8,7
-26,6,32,8,-32,19,-20,-91,-63,-31,-13,1
-32,6,38,8,-37,19,-8,-85,-63,-31,-13,1
-32,0,32,14,-32,13,4,-79,-58,-31,-18,-5
-38,-6,32,20,-37,13,4,-79,-58,-31,-18,-11
-38,-12,26,26,-32,7,4,-73,-58,-37,-18,-11
-44,-12,32,26,-37,7,4,-73,-58,-37,-18,-17
-44,-12,32,26,-37,7,4,-79,-58,-31,-24,-22
-44,-12,32,26,-37,7,10,-79,-58,-37,-24,-22
-44,-12,32,26,-37,7,10,-73,-58,-43,-24,-22
-50,-18,32,32,-42,7,16,-73,-63,-48,-24,-17
-50,-30,20,38,-37,-5,16,-79,-63,-53,-36,-22
-44,-36,8,38,-26,-17,16,-79,-69,-48,-42,-22
-32,-30,2,26,-20,-17,22,-73,-63,-43,-42,-22
-26,-30,-4,26,-14,-17,22,-67,-58,-37,-42,-22
-20,-30,-10,20,-8,-23,22,-61,-58,-37,-42,-22
-20,-30,-10,20,-8,-23,22,-49,-53,-31,-36,-22
-20,-24,-4,20,-8,-17,28,-38,-53,-37,-30,-22
-20,-24,-4,20,-8,-17,34,-38,-53,-43,-30,-22
-20,-18,2,14,-14,-11,40,-33,-53,-48,-36,-27
-14,-18,-4,14,-8,-11,52,-27,-53,-48,-36,-22
-14,-24,-10,20,-2,-17,58,-27,-47,-48,-42,-22
-14,-24,-10,20,-2,-17,64,-21,-41,-53,-42,-22
-8,-30,-22,14,4,-29,64,-15,-35,-53,-42,-22
-8,-36,-28,20,10,-35,64,-3,-23,-53,-42,-27
-8,-42,-34,20,10,-41,70,3,-23,-53,-42,-22
-14,-48,-34,32,10,-41,64,9,-17,-53,-42,-22
-14,-48,-34,32,10,-41,70,15,-11,-43,-36,-22
-14,-42,-28,26,4,-35,76,27,1,-37,-30,-17
-14,-36,-22,26,4,-29,76,39,13,-25,-24,-11
-14,-30,-16,20,-2,-23,82,51,25,-13,-18,-5
-14,-30,-16,20,-2,-23,82,69,37,-7,-13,-5
-8,-24,-16,14,4,-23,88,93,55,5,-8,-5
-8,-12,-4,8,-2,-11,94,123,79,17,4,7
-3,0,2,2,-2,1,88,147,97,29,10,13
2,6,2,-4,-2,7,76,177,121,41,16,19
14,6,-10,-10,10,1,52,201,145,53,22,25
26,12,-16,-16,22,1,40,225,163,71,34,31
32,6,-28,-22,28,-11,16,249,181,83,46,37
50,12,-40,-28,46,-11,-14,273,199,101,58,43
62,24,-40,-38,52,-5,-48,297,217,113,70,49
80,30,-52,-56,64,-11,-78,327,235,131,82,55
98,36,-64,-62,82,-11,-114,357,259,149,94,61
110,48,-64,-74,88,-5,-156,381,283,167,106,67
122,54,-70,-86,94,-5,-198,393,307,185,118,79
134,66,-70,-98,100,1,-246,405,325,209,136,85
152,71,-82,-110,118,-5,-294,423,337,227,148,91
164,66,-100,-116,130,-17,-336,435,343,239,160,97
182,60,-124,-116,154,-29,-384,447,343,239,166,97
200,54,-148,-128,172,-47,-420,459,343,251,178,97
218,54,-166,-134,190,-53,-468,483,361,269,184,109
242,60,-184,-146,214,-59,-510,513,385,299,202,115
260,60,-202,-158,232,-71,-546,537,409,323,214,127
278,54,-226,-164,250,-83,-570,555,427,341,220,133
290,36,-256,-158,274,-107,-588,561,439,359,226,133
308,24,-286,-164,298,-131,-594,591,469,389,232,133
338,24,-316,-176,328,-143,-600,627,523,437,256,145
368,36,-334,-200,352,-149,-624,663,595,491,304,169
410,66,-346,-236,376,-137,-660,687,673,575,370,211
482,100,-382,-284,436,-137,-720,705,745,671,442,259
554,136,-418,-338,490,-137,-798,699,811,767,526,313
644,184,-460,-410,556,-137,-906,681,865,881,622,373
746,238,-508,-488,628,-131,-1026,657,913,1001,724,451
860,304,-556,-578,712,-125,-1152,639,973,1115,832,547
968,382,-586,-674,778,-101,-1278,615,1033,1223,946,649
1070,466,-604,-764,838,-65,-1404,579,1087,1319,1060,751
1154,556,-598,-848,880,-17,-1512,525,1111,1373,1150,847
1214,622,-592,-914,904,19,-1602,453,1099,1385,1198,919
1232,682,-550,-956,892,67,-1668,327,1021,1343,1222,973
1226,724,-502,-968,868,113,-1710,141,865,1253,1210,997
1184,742,-442,-962,814,149,-1728,-115,583,1085,1144,991
1094,754,-340,-920,718,209,-1716,-421,247,887,1066,979
986,760,-226,-866,610,269,-1686,-721,-87,695,988,973
854,730,-124,-788,490,305,-1608,-991,-405,491,874,925
722,622,-100,-668,412,263,-1512,-1183,-687,209,664,805
590,496,-94,-536,346,203,-1392,-1273,-879,-65,424,655
458,388,-70,-416,268,161,-1242,-1291,-981,-275,226,517
338,304,-34,-314,190,137,-1080,-1249,-993,-395,88,403
236,226,-10,-230,124,107,-918,-1159,-951,-449,-8,301
146,154,8,-146,70,83,-768,-1039,-867,-473,-66,211
74,106,32,-86,22,72,-624,-907,-777,-461,-90,151
20,76,56,-44,-14,67,-504,-781,-681,-425,-102,103
-8,60,68,-28,-37,61,-402,-655,-591,-395,-108,79
-38,48,84,-4,-60,67,-318,-535,-513,-353,-114,55
-62,42,102,8,-84,72,-252,-439,-435,-317,-114,43
-74,30,102,20,-90,67,-198,-361,-363,-281,-114,31
-92,18,108,32,-102,61,-150,-295,-303,-251,-114,25
-104,12,114,44,-108,61,-102,-247,-249,-227,-108,13
-122,-6,114,62,-120,55,-54,-217,-201,-203,-96,1
-140,-24,114,80,-126,43,-8,-187,-165,-191,-90,-11
-152,-42,108,92,-132,31,34,-157,-141,-179,-90,-22
-152,-60,90,104,-120,13,70,-127,-117,-167,-90,-33
-164,-72,90,116,-126,7,100,-97,-105,-155,-90,-39
-176,-90,84,128,-132,-5,112,-73,-87,-143,-96,-51
-182,-102,78,140,-132,-11,124,-55,-81,-137,-102,-63
-194,-108,84,152,-138,-11,136,-49,-69,-131,-102,-69
-200,-108,90,152,-144,-11,142,-43,-63,-125,-102,-69
-206,-114,90,158,-150,-11,166,-38,-53,-113,-96,-75
-212,-114,96,158,-156,-11,178,-38,-41,-95,-96,-75
-218,-114,102,164,-162,-5,190,-38,-35,-95,-96,-69
-224,-114,108,164,-168,-5,196,-38,-35,-101,-102,-69
-236,-120,114,176,-174,-5,202,-33,-35,-101,-96,-69
-248,-120,126,182,-186,1,214,-27,-29,-101,-96,-69
-254,-120,132,188,-192,7,220,-9,-23,-95,-90,-75
-260,-126,132,188,-198,1,226,-3,-29,-95,-90,-75
-254,-126,126,188,-192,1,232,-3,-35,-101,-90,-75
-254,-126,126,188,-192,1,238,3,-35,-107,-96,-75
-260,-126,132,188,-198,1,238,3,-23,-107,-90,-69
-260,-126,132,188,-198,1,250,9,-17,-95,-90,-69
-260,-126,132,188,-198,1,256,15,-17,-95,-84,-69
-266,-126,138,194,-204,7,262,15,-23,-95,-90,-69
-278,-132,144,206,-210,7,268,15,-29,-95,-90,-69
-284,-132,150,206,-216,7,280,21,-29,-101,-96,-75
-290,-132,156,212,-222,13,292,21,-29,-113,-96,-75
-290,-132,156,212,-222,13,298,27,-29,-119,-96,-75
-290,-126,162,206,-228,19,304,27,-29,-125,-96,-75
-290,-120,168,206,-228,25,310,33,-29,-125,-96,-75
-296,-126,168,206,-234,19,310,33,-35,-125,-102,-75
-308,-126,180,212,-246,25,316,39,-29,-119,-102,-81
-308,-132,174,218,-240,19,316,33,-29,-113,-102,-81
-314,-132,180,224,-246,25,322,33,-29,-113,-108,-81
-326,-138,186,230,-258,25,328,33,-23,-119,-108,-81
-332,-132,198,230,-264,31,334,33,-23,-119,-108,-75
-326,-132,192,230,-258,31,340,33,-17,-119,-108,-75
-332,-132,198,230,-264,31,346,33,-11,-113,-108,-75
-344,-138,204,236,-276,31,358,45,1,-113,-102,-75
-362,-144,216,254,-288,37,370,45,1,-113,-108,-75
-368,-138,228,248,-300,43,382,51,7,-107,-102,-81
-374,-132,240,254,-306,55,394,57,13,-101,-96,-81
-374,-120,252,248,-312,67,400,63,19,-89,-96,-81
-380,-114,264,242,-324,72,412,63,25,-83,-96,-81
-386,-114,270,248,-330,77,418,69,25,-77,-102,-81
-386,-102,282,242,-336,89,430,75,43,-71,-96,-87
-386,-102,282,242,-336,89,430,81,55,-65,-96,-93
-380,-96,282,236,-330,89,436,87,61,-53,-96,-93
-374,-96,276,236,-324,89,442,93,73,-53,-96,-93
-380,-102,276,236,-330,83,454,105,85,-48,-96,-93
-380,-102,276,236,-330,83,466,117,91,-48,-96,-99
-386,-102,282,242,-336,89,478,123,91,-48,-96,-99
-386,-96,288,242,-336,95,490,135,97,-48,-90,-93
-392,-96,294,242,-342,95,496,141,103,-37,-90,-87
-392,-90,300,236,-348,101,508,153,109,-31,-84,-87
-398,-84,312,242,-354,113,514,171,121,-25,-78,-81
-404,-78,324,236,-366,119,526,183,127,-19,-72,-81
-404,-66,336,230,-372,131,538,195,145,-7,-60,-75
-404,-60,342,230,-372,137,544,207,163,5,-54,-75
-398,-54,342,224,-372,143,556,219,169,-1,-48,-75
-392,-48,342,218,-366,143,568,237,175,-1,-48,-69
-386,-24,360,206,-372,167,580,255,193,5,-36,-63
-374,-6,366,188,-372,179,586,279,211,17,-30,-51
-374,12,384,182,-378,197,592,297,223,29,-24,-39
-368,24,390,170,-378,203,598,315,235,41,-24,-27
-362,36,396,164,-378,215,598,333,241,47,-18,-22
-356,42,396,152,-378,215,610,357,259,65,-13,-22
-356,48,402,152,-378,221,622,369,277,71,-2,-17
-344,54,396,140,-372,221,634,393,289,83,4,-11
-344,66,408,134,-378,233,640,411,301,89,16,-11
-338,66,402,134,-372,233,646,429,313,95,22,-11
-332,71,402,128,-366,233,646,447,325,101,28,-11
-332,76,408,128,-366,239,646,453,325,107,28,-11
-332,76,408,128,-366,239,640,465,331,107,28,-5
-326,76,402,128,-360,239,634,471,337,101,28,-5
-320,82,402,116,-360,239,634,489,343,101,28,1
-314,88,402,116,-354,245,622,495,349,107,34,1
-308,88,396,110,-348,239,616,501,361,119,40,1
-302,100,402,104,-348,251,604,507,373,125,40,1
-290,106,396,92,-342,251,598,519,379,131,46,7
-284,112,396,86,-336,251,586,525,385,137,52,7
-272,118,390,74,-330,251,586,531,397,143,52,7
-260,124,384,68,-318,251,574,531,403,149,58,13
-254,124,378,68,-312,251,562,531,403,155,58,13
-242,124,366,62,-300,245,550,531,391,155,58,13
-236,130,366,50,-300,245,538,525,391,149,58,19
-224,124,348,50,-282,233,520,525,385,143,58,19
-218,124,342,50,-276,233,508,519,379,143,64,25
-212,118,330,44,-270,221,490,513,373,149,64,25
-206,118,324,44,-264,221,478,507,367,149,64,25
-200,118,318,38,-258,215,466,501,361,143,64,25
-188,124,312,32,-246,215,448,489,349,143,64,31
-170,124,294,26,-228,209,436,471,337,137,64,31
-158,136,294,14,-222,215,424,459,337,137,70,31
-152,130,282,8,-216,203,406,441,325,137,64,25
-146,118,264,14,-204,191,388,429,313,125,58,25
-140,112,252,14,-192,179,364,411,301,113,58,19
-140,100,240,20,-186,167,334,393,283,101,52,13
-134,94,228,20,-180,161,310,369,271,101,40,13
-134,82,216,26,-174,149,292,345,253,95,40,7
-128,71,198,26,-162,131,268,321,235,83,34,7
-128,66,192,26,-162,125,250,303,217,83,34,1
-122,54,174,32,-150,113,232,285,199,77,28,1
-116,42,156,32,-138,95,214,261,175,77,22,-5
-104,36,138,32,-120,83,190,237,157,71,22,-5
-98,36,132,32,-114,83,172,231,151,65,16,-5
-92,30,120,26,-108,72,160,219,139,59,22,-11
-86,30,114,26,-102,72,148,201,127,53,16,-11
-86,24,108,32,-96,67,124,177,115,47,16,-17
-86,12,96,38,-90,55,106,159,103,41,10,-17
-92,0,90,44,-90,43,94,147,85,35,4,-22
-92,-12,78,50,-84,31,76,123,67,23,-13,-22
-92,-24,68,56,-78,19,64,105,43,11,-18,-33
-86,-36,50,62,-66,7,52,87,37,-1,-30,-33
-74,-42,32,56,-54,-5,40,81,25,-7,-30,-39
-68,-48,20,56,-42,-17,34,75,13,-13,-36,-45
-68,-54,14,56,-42,-23,28,63,7,-19,-36,-45
-68,-60,8,62,-37,-29,16,51,1,-25,-36,-51
-62,-66,-4,62,-32,-35,4,39,-5,-31,-36,-51
-56,-72,-16,62,-20,-47,-2,27,-17,-37,-42,-51
-50,-72,-22,62,-14,-47,-8,15,-29,-43,-48,-51
-50,-78,-28,62,-14,-53,-8,9,-35,-48,-48,-57
-44,-72,-28,56,-8,-53,-14,-3,-47,-48,-54,-63
-44,-78,-34,56,-8,-59,-26,-3,-58,-48,-60,-69
-38,-84,-46,62,4,-65,-26,-9,-58,-48,-60,-69
-32,-84,-52,56,10,-71,-32,-9,-58,-48,-54,-69
-32,-90,-58,56,10,-77,-38,-9,-58,-53,-60,-75
-32,-90,-58,56,10,-77,-43,-15,-63,-65,-60,-75
-20,-90,-70,50,22,-83,-43,-21,-69,-71,-66,-81
-14,-90,-76,50,28,-83,-54,-21,-75,-77,-72,-81
-8,-96,-88,50,40,-95,-48,-21,-69,-83,-78,-81
-3,-96,-94,50,46,-95,-54,-33,-75,-83,-78,-81
2,-96,-100,50,52,-95,-54,-33,-75,-89,-90,-87
8,-96,-106,44,58,-101,-48,-27,-81,-95,-90,-93
8,-96,-106,44,58,-101,-48,-33,-81,-107,-90,-93
8,-96,-106,44,58,-101,-48,-33,-81,-119,-90,-99
8,-90,-100,38,52,-95,-54,-38,-81,-125,-90,-105
14,-84,-100,38,58,-89,-54,-43,-81,-119,-90,-105
26,-84,-112,32,70,-95,-54,-49,-75,-113,-84,-105
32,-84,-118,26,76,-101,-48,-55,-75,-107,-84,-105
38,-84,-124,26,82,-101,-48,-49,-81,-101,-84,-105
38,-78,-118,20,76,-95,-48,-49,-81,-101,-90,-111
44,-72,-118,14,82,-95,-48,-43,-87,-107,-90,-111
56,-66,-124,2,88,-95,-48,-38,-93,-113,-90,-105
62,-60,-124,2,94,-89,-54,-38,-93,-113,-84,-105
56,-60,-118,2,88,-89,-60,-38,-87,-113,-78,-105
56,-60,-118,2,88,-89,-60,-43,-81,-113,-72,-99
62,-54,-118,-4,88,-83,-54,-38,-81,-113,-72,-99
62,-54,-118,-4,88,-83,-48,-38,-81,-113,-72,-93
68,-54,-124,-10,94,-89,-48,-38,-75,-113,-78,-93
74,-48,-124,-10,100,-83,-48,-38,-75,-107,-78,-93
74,-42,-118,-16,94,-77,-48,-33,-69,-101,-72,-93
80,-36,-118,-22,100,-77,-54,-27,-63,-95,-66,-87
74,-36,-112,-16,94,-71,-54,-27,-63,-89,-60,-87
74,-36,-112,-16,94,-71,-54,-33,-63,-89,-60,-87
68,-42,-112,-16,88,-77,-48,-33,-63,-89,-60,-87
62,-42,-106,-10,82,-71,-48,-33,-63,-89,-60,-93
62,-48,-112,-4,88,-77,-54,-38,-69,-95,-66,-93
56,-48,-106,-4,82,-77,-54,-38,-69,-89,-66,-87
56,-48,-106,-4,82,-77,-48,-38,-69,-83,-66,-87
62,-54,-118,-4,88,-83,-48,-38,-69,-83,-72,-87
62,-60,-124,2,94,-89,-43,-38,-75,-83,-72,-93
56,-60,-118,2,88,-89,-43,-33,-75,-83,-72,-87
50,-72,-124,14,88,-95,-48,-38,-81,-89,-72,-93
38,-78,-118,20,76,-95,-54,-38,-81,-95,-78,-93
32,-84,-118,26,76,-101,-60,-43,-81,-95,-84,-99
32,-84,-118,26,76,-101,-60,-49,-75,-95,-84,-99
26,-84,-112,32,70,-95,-66,-49,-75,-89,-90,-99
20,-90,-112,32,64,-101,-60,-49,-75,-89,-90,-105
8,-96,-106,44,58,-101,-66,-43,-75,-83,-90,-111
2,-102,-106,50,52,-101,-60,-43,-81,-83,-90,-111
-3,-108,-106,56,52,-107,-66,-38,-75,-77,-90,-111
-3,-114,-112,56,52,-113,-66,-43,-81,-83,-90,-117
-8,-114,-106,56,46,-113,-66,-43,-81,-83,-90,-123
-14,-120,-106,68,46,-113,-66,-49,-81,-77,-90,-123
-14,-126,-112,68,46,-119,-72,-55,-81,-77,-90,-129
-14,-126,-112,68,46,-119,-78,-55,-81,-77,-96,-129
-20,-132,-112,74,46,-125,-84,-61,-87,-77,-96,-129
-20,-132,-112,74,46,-125,-78,-61,-87,-77,-102,-129
-20,-132,-112,74,46,-125,-78,-55,-87,-77,-108,-129
-20,-132,-112,74,46,-125,-72,-55,-87,-83,-108,-129
-20,-138,-118,74,46,-131,-72,-55,-87,-83,-114,-129
-14,-138,-124,74,52,-131,-72,-55,-87,-83,-114,-129
-8,-138,-130,68,58,-137,-72,-55,-81,-83,-108,-123
-8,-138,-130,68,58,-137,-66,-61,-81,-83,-108,-123
-3,-132,-130,68,64,-131,-60,-61,-81,-83,-108,-129
-3,-120,-118,62,58,-119,-54,-61,-81,-77,-102,-129
2,-114,-118,56,58,-113,-54,-55,-81,-65,-102,-123
14,-102,-118,44,64,-107,-54,-55,-81,-65,-102,-123
14,-90,-106,38,58,-95,-60,-55,-75,-71,-102,-129
26,-84,-112,32,70,-95,-60,-49,-75,-71,-102,-129
38,-78,-118,20,76,-95,-60,-43,-69,-71,-96,-123
50,-72,-124,14,88,-95,-54,-43,-69,-71,-96,-117
62,-66,-130,2,94,-95,-54,-43,-69,-77,-90,-117
62,-66,-130,2,94,-95,-54,-49,-75,-77,-90,-111
68,-60,-130,-4,100,-95,-54,-49,-75,-83,-90,-105
74,-60,-136,-4,106,-95,-54,-43,-69,-83,-90,-105
74,-54,-130,-10,100,-89,-54,-43,-69,-89,-84,-105
80,-42,-124,-22,100,-83,-48,-43,-69,-89,-84,-105
86,-36,-124,-22,106,-77,-48,-38,-75,-95,-84,-99
92,-24,-118,-33,106,-71,-54,-38,-75,-95,-84,-99
98,-24,-124,-33,112,-71,-54,-43,-81,-101,-90,-105
104,-24,-130,-38,118,-77,-54,-43,-87,-107,-90,-99
110,-24,-136,-38,124,-77,-54,-49,-87,-107,-96,-99
110,-24,-136,-38,124,-77,-48,-49,-87,-107,-96,-99
116,-24,-142,-44,130,-83,-48,-49,-81,-107,-96,-93
116,-24,-142,-44,130,-83,-43,-55,-81,-107,-90,-93
122,-18,-142,-50,130,-77,-43,-55,-81,-113,-96,-93
122,-18,-142,-50,130,-77,-43,-55,-87,-113,-96,-93
128,-18,-148,-56,136,-83,-43,-55,-87,-119,-90,-93
134,-12,-148,-56,142,-77,-43,-55,-81,-119,-84,-93
140,-12,-154,-62,148,-83,-38,-55,-81,-119,-84,-93
140,-12,-154,-62,148,-83,-43,-49,-87,-119,-84,-93
134,-12,-148,-56,142,-77,-43,-49,-87,-125,-90,-87
134,-18,-154,-56,142,-83,-43,-55,-93,-131,-90,-93
134,-12,-148,-56,142,-77,-38,-61,-87,-131,-84,-87
146,6,-142,-74,142,-65,-38,-61,-81,-131,-78,-87
158,18,-142,-86,148,-59,-38,-67,-81,-125,-78,-81
158,24,-136,-86,148,-53,-38,-67,-81,-119,-66,-75
158,24,-136,-86,148,-53,-32,-67,-81,-119,-66,-69
152,24,-130,-86,142,-53,-26,-61,-81,-113,-60,-69
146,24,-124,-80,136,-47,-26,-61,-75,-101,-54,-69
140,24,-118,-80,130,-47,-20,-61,-69,-95,-48,-63
140,24,-118,-80,130,-47,-14,-61,-63,-95,-48,-63
146,24,-124,-80,136,-47,-26,-61,-63,-95,-48,-63
140,24,-118,-80,130,-47,-26,-61,-63,-89,-54,-63
140,30,-112,-86,124,-41,-26,-61,-63,-89,-54,-69
134,30,-106,-80,118,-35,-32,-61,-63,-89,-54,-75
128,24,-106,-74,118,-41,-32,-61,-69,-89,-54,-81
122,24,-100,-68,112,-35,-32,-61,-69,-89,-60,-81
122,18,-106,-68,112,-41,-26,-67,-75,-89,-60,-81
122,18,-106,-68,112,-41,-32,-67,-81,-89,-60,-75
116,12,-106,-62,112,-47,-32,-67,-81,-95,-60,-75
122,18,-106,-68,112,-41,-32,-67,-81,-95,-60,-75
128,18,-112,-74,118,-47,-32,-73,-81,-95,-60,-75
128,18,-112,-74,118,-47,-32,-79,-81,-95,-60,-69
122,18,-106,-68,112,-41,-38,-91,-75,-89,-66,-69
116,24,-94,-68,106,-35,-43,-91,-75,-89,-60,-63
116,30,-88,-74,100,-29,-48,-91,-75,-83,-60,-57
122,36,-88,-74,106,-23,-54,-97,-75,-83,-60,-57
122,42,-82,-80,100,-17,-60,-103,-75,-83,-60,-51
128,48,-82,-86,106,-17,-66,-103,-81,-77,-60,-51
134,48,-88,-86,112,-17,-72,-109,-81,-77,-54,-57
140,42,-100,-92,118,-29,-78,-115,-87,-71,-60,-57
140,42,-100,-92,118,-29,-84,-115,-87,-71,-54,-57
146,42,-106,-92,124,-29,-90,-109,-93,-71,-54,-51
146,42,-106,-92,124,-29,-96,-109,-93,-77,-54,-51
146,48,-100,-92,124,-23,-102,-115,-93,-77,-54,-51
152,48,-106,-98,130,-29,-108,-121,-99,-77,-54,-51
158,54,-106,-104,130,-23,-108,-121,-93,-71,-54,-51
158,54,-106,-104,130,-23,-108,-121,-93,-71,-48,-51
146,54,-94,-98,118,-17,-114,-121,-93,-77,-48,-51
140,48,-94,-92,118,-23,-114,-121,-99,-83,-54,-51
134,42,-94,-86,112,-23,-114,-127,-99,-89,-54,-57
122,36,-88,-74,106,-23,-114,-127,-105,-95,-54,-57
104,30,-76,-68,88,-23,-114,-127,-105,-95,-60,-57
98,18,-82,-56,88,-29,-108,-133,-111,-95,-66,-57
86,6,-82,-44,82,-35,-108,-133,-111,-95,-72,-63
80,6,-76,-44,76,-35,-108,-133,-117,-95,-72,-63
74,0,-76,-33,76,-35,-102,-133,-117,-95,-66,-63
74,0,-76,-33,76,-35,-90,-127,-111,-95,-66,-57
74,0,-76,-33,76,-35,-84,-127,-105,-89,-60,-57
62,-6,-70,-28,64,-35,-78,-127,-111,-89,-60,-63
56,-12,-70,-22,64,-41,-72,-121,-117,-89,-60,-63
50,-18,-70,-16,58,-41,-54,-115,-117,-95,-60,-63
44,-18,-64,-16,52,-41,-48,-115,-117,-95,-60,-69
44,-18,-64,-16,52,-41,-43,-115,-123,-95,-60,-69
38,-24,-64,-4,52,-41,-43,-115,-117,-95,-60,-69
44,-24,-70,-10,58,-47,-43,-115,-117,-101,-66,-69
44,-24,-70,-10,58,-47,-43,-115,-117,-101,-72,-75
50,-30,-82,-10,64,-53,-43,-115,-123,-113,-78,-75
50,-36,-88,-4,70,-59,-38,-115,-123,-119,-78,-81
44,-42,-88,-4,64,-65,-32,-115,-123,-119,-84,-87
44,-42,-88,-4,64,-65,-32,-97,-117,-119,-78,-87
38,-42,-82,2,58,-59,-32,-91,-111,-113,-78,-93
32,-42,-76,2,52,-59,-26,-85,-105,-107,-72,-87
38,-36,-76,2,58,-53,-20,-73,-105,-101,-72,-87
44,-36,-82,-4,64,-59,-14,-67,-99,-95,-66,-81
50,-36,-88,-4,70,-59,-8,-67,-93,-89,-66,-81
44,-42,-88,-4,64,-65,4,-61,-87,-83,-66,-81
44,-48,-94,2,70,-71,10,-61,-87,-89,-66,-87
38,-54,-94,8,64,-71,16,-55,-81,-83,-66,-87
32,-60,-94,14,64,-77,22,-43,-81,-83,-66,-87
32,-60,-94,14,64,-77,28,-38,-75,-83,-66,-87
32,-60,-94,14,64,-77,34,-33,-75,-83,-66,-93
38,-60,-100,14,70,-77,40,-27,-69,-83,-60,-87
38,-60,-100,14,70,-77,52,-15,-63,-77,-60,-87
38,-60,-100,14,70,-77,52,-3,-58,-71,-54,-87
38,-60,-100,14,70,-77,52,3,-47,-65,-54,-87
38,-66,-106,14,70,-83,52,15,-41,-65,-54,-87
38,-60,-100,14,70,-77,64,27,-29,-53,-48,-81
44,-48,-94,2,70,-71,58,51,-11,-48,-42,-75
56,-42,-100,-10,76,-71,58,75,13,-31,-24,-69
62,-30,-94,-16,76,-59,52,105,49,-19,-13,-57
74,-24,-100,-22,88,-59,34,123,61,-7,-8,-51
86,-24,-112,-28,100,-65,16,153,85,5,-2,-45
92,-24,-118,-33,106,-71,-2,183,103,23,10,-39
110,-18,-130,-44,118,-71,-32,213,121,41,16,-27
122,-18,-142,-50,130,-77,-60,237,133,59,28,-22
134,-6,-142,-62,136,-71,-90,255,151,77,34,-17
146,0,-148,-68,148,-71,-120,279,175,101,46,-5
158,12,-148,-80,154,-65,-156,297,199,113,58,1
170,18,-154,-92,160,-65,-198,321,223,131,64,19
188,30,-160,-110,172,-65,-240,345,241,143,76,31
212,42,-172,-128,190,-65,-282,357,259,155,88,43
224,42,-184,-134,202,-71,-312,375,271,167,100,49
236,42,-196,-140,214,-77,-348,387,271,173,106,55
248,36,-214,-140,232,-89,-384,393,265,185,112,55
260,36,-226,-146,244,-95,-414,417,271,203,124,61
284,30,-256,-158,268,-113,-444,441,295,227,136,67
302,30,-274,-164,286,-119,-474,471,319,245,148,79
320,24,-298,-170,310,-137,-504,489,349,263,160,79
332,6,-328,-170,328,-161,-522,501,367,275,166,79
338,-6,-346,-164,340,-173,-534,525,385,287,166,79
362,-18,-382,-170,370,-197,-540,555,421,317,178,85
392,-18,-412,-188,400,-215,-534,597,469,359,202,91
434,12,-424,-218,430,-203,-546,633,541,437,256,121
494,54,-442,-272,466,-191,-582,663,619,533,328,163
566,100,-466,-326,520,-179,-648,675,697,641,412,211
662,142,-520,-398,592,-185,-732,675,757,731,496,277
764,190,-574,-476,670,-191,-834,657,811,827,592,343
872,238,-634,-554,754,-197,-954,639,865,929,694,433
986,310,-676,-644,832,-179,-1074,633,937,1031,802,529
1100,394,-706,-746,904,-155,-1200,615,997,1139,910,625
1208,490,-718,-848,964,-113,-1314,573,1039,1223,1012,727
1292,574,-718,-932,1006,-71,-1416,519,1051,1259,1072,805
1340,652,-688,-992,1018,-17,-1494,423,1009,1247,1102,865
1364,718,-646,-1040,1006,37,-1548,267,895,1193,1114,901
1346,760,-586,-1046,970,89,-1572,39,691,1079,1084,925
1292,784,-508,-1034,904,137,-1578,-253,397,911,1024,925
1202,796,-406,-992,808,197,-1548,-559,85,749,970,925
1082,778,-304,-926,694,239,-1494,-853,-213,575,898,907
944,694,-250,-818,598,221,-1416,-1099,-513,347,748,835
806,562,-244,-680,526,161,-1296,-1249,-765,65,520,691
662,448,-214,-548,442,119,-1152,-1321,-933,-179,304,547
524,358,-166,-440,346,95,-996,-1309,-1005,-347,136,427
416,286,-130,-350,274,77,-834,-1255,-999,-431,22,319
320,232,-88,-272,208,72,-672,-1153,-927,-467,-42,223
254,184,-70,-212,166,61,-528,-1039,-831,-461,-84,145
200,148,-52,-170,130,49,-396,-907,-729,-437,-102,97
152,118,-34,-134,94,43,-288,-775,-633,-401,-108,67
116,94,-22,-104,70,37,-198,-655,-555,-371,-114,37
86,71,-16,-74,52,31,-120,-547,-489,-347,-126,13
50,54,2,-50,22,31,-48,-457,-429,-317,-132,-5
26,42,14,-33,4,31,16,-385,-369,-293,-132,-17
8,30,20,-22,-8,25,76,-331,-321,-275,-126,-22
-8,18,26,-10,-20,19,136,-295,-267,-251,-120,-39
-20,0,20,8,-20,7,190,-271,-225,-227,-114,-51
-38,-18,20,26,-32,1,244,-241,-183,-203,-114,-69
-50,-36,14,44,-32,-11,286,-205,-159,-185,-114,-75
-62,-54,8,56,-37,-23,322,-175,-135,-185,-114,-87
-74,-78,-4,74,-37,-41,340,-145,-129,-179,-120,-99
-80,-90,-10,80,-37,-53,358,-121,-123,-173,-126,-105
-86,-102,-16,92,-37,-59,370,-109,-117,-167,-132,-105
-98,-108,-10,104,-42,-59,382,-109,-111,-161,-138,-111
-104,-114,-10,104,-48,-65,394,-109,-111,-155,-138,-117
-110,-120,-10,116,-48,-65,418,-115,-99,-149,-138,-117
-110,-120,-10,116,-48,-65,436,-115,-93,-149,-138,-117
-110,-126,-16,116,-48,-71,442,-115,-87,-143,-132,-117
-110,-126,-16,116,-48,-71,448,-109,-75,-137,-132,-123
-116,-126,-10,116,-54,-71,454,-103,-75,-137,-132,-123
-128,-126,2,122,-66,-65,454,-97,-75,-137,-132,-123
-122,-120,2,122,-60,-59,454,-91,-75,-137,-132,-123
-128,-120,8,122,-66,-59,454,-85,-75,-137,-132,-123
-140,-120,20,128,-78,-53,466,-91,-75,-137,-126,-123
-146,-120,26,134,-84,-47,478,-85,-75,-137,-126,-123
-152,-120,32,134,-90,-47,484,-91,-75,-137,-126,-129
-152,-120,32,134,-90,-47,496,-91,-75,-137,-114,-129
-146,-120,26,134,-84,-47,502,-85,-75,-137,-114,-123
-146,-120,26,134,-84,-47,514,-79,-75,-137,-114,-123
-146,-120,26,134,-84,-47,514,-73,-81,-137,-120,-123
-152,-120,32,134,-90,-47,520,-73,-81,-143,-126,-123
-158,-126,32,140,-96,-47,520,-73,-87,-149,-132,-129
-170,-132,38,152,-102,-47,532,-73,-87,-155,-132,-129
-176,-120,56,146,-114,-35,538,-73,-87,-155,-132,-123
-182,-120,62,152,-120,-29,544,-67,-75,-143,-132,-123
-182,-120,62,152,-120,-29,550,-61,-75,-137,-132,-123
-182,-120,62,152,-120,-29,556,-67,-75,-149,-132,-129
-182,-126,56,152,-120,-35,556,-67,-81,-161,-144,-135
-188,-120,68,152,-126,-29,562,-67,-75,-167,-144,-135
-188,-120,68,152,-126,-29,568,-67,-75,-161,-138,-129
-188,-114,73,146,-132,-23,574,-67,-69,-161,-138,-129
-194,-120,73,158,-132,-23,580,-67,-69,-155,-144,-135
-200,-120,78,158,-138,-23,592,-61,-58,-149,-138,-135
-206,-120,84,164,-144,-17,604,-61,-58,-137,-138,-135
-212,-120,90,164,-150,-17,622,-55,-47,-131,-138,-141
-212,-108,102,158,-156,-5,640,-55,-29,-125,-138,-141
-212,-96,114,152,-162,7,652,-43,-23,-119,-138,-141
-218,-84,132,152,-174,25,664,-38,-11,-107,-132,-135
-218,-84,132,152,-174,25,688,-38,-5,-101,-126,-129
-224,-84,138,152,-180,25,706,-27,1,-95,-126,-129
-230,-84,144,158,-186,31,718,-21,1,-95,-126,-129
-236,-78,156,152,-198,37,730,-15,7,-89,-126,-129
-248,-78,168,158,-210,43,754,-9,19,-83,-120,-129
-248,-72,174,158,-210,49,766,-3,31,-77,-114,-129
-248,-60,186,152,-216,61,778,9,49,-65,-108,-129
-254,-60,192,158,-222,67,784,15,55,-65,-108,-123
-260,-60,198,158,-228,67,784,27,61,-53,-108,-123
-266,-54,210,158,-240,77,790,39,79,-48,-102,-117
-272,-42,228,152,-252,89,796,51,91,-37,-96,-117
-272,-30,240,146,-258,101,796,63,97,-25,-84,-111
-272,-24,246,146,-258,107,796,75,103,-19,-78,-105
-272,-12,258,140,-264,119,796,87,115,-13,-72,-99
-272,-6,264,134,-270,125,790,99,127,-13,-72,-93
-266,6,270,128,-270,137,790,111,139,-7,-72,-87
-266,12,276,128,-270,143,796,123,151,-7,-66,-87
-260,24,282,116,-270,149,796,147,163,-1,-60,-81
-254,36,288,110,-270,161,796,159,175,5,-48,-81
-248,48,294,98,-270,167,802,177,187,11,-42,-81
-242,54,294,92,-270,173,808,195,199,17,-30,-75
-242,60,300,92,-270,179,820,207,211,29,-24,-69
-236,66,300,80,-270,179,832,225,217,41,-18,-63
-230,71,300,80,-264,185,838,237,229,47,-18,-63
-224,76,300,74,-258,185,850,249,241,53,-13,-57
-224,82,306,68,-264,191,868,267,253,59,-13,-57
-224,88,312,68,-264,197,886,285,265,65,-13,-57
-224,94,318,62,-270,203,904,297,271,65,-8,-51
-224,94,318,62,-270,203,916,309,277,71,-2,-51
-218,100,318,62,-264,209,922,321,283,71,-2,-45
-218,100,318,62,-264,209,934,339,301,77,4,-45
-218,100,318,62,-264,209,934,345,307,83,16,-39
-218,100,318,62,-264,209,940,351,313,89,16,-39
-218,100,318,62,-264,209,940,363,325,95,22,-39
-212,100,312,56,-258,203,934,369,325,95,22,-39
-218,106,324,56,-270,215,928,375,325,101,16,-39
-218,106,324,56,-270,215,922,375,325,101,16,-33
-218,112,330,56,-270,221,916,381,331,107,22,-27
-212,112,324,50,-264,215,904,387,331,107,28,-27
-212,118,330,44,-270,221,886,387,331,113,28,-22
-212,112,324,50,-264,215,868,387,343,119,34,-22
-212,106,318,50,-264,209,856,387,343,119,46,-17
-212,106,318,50,-264,209,838,387,331,119,46,-17
-206,106,312,50,-258,209,826,381,325,113,46,-17
-200,106,306,44,-252,203,802,375,325,113,52,-17
-200,106,306,44,-252,203,778,363,319,119,52,-17
-206,106,312,50,-258,209,754,357,313,119,52,-17
-200,106,306,44,-252,203,742,345,307,125,46,-17
-188,100,288,44,-234,191,718,327,301,113,40,-17
-182,100,282,44,-228,191,700,315,283,107,40,-17
-176,94,270,38,-222,179,676,309,277,107,40,-17
-170,94,264,38,-216,179,652,297,265,101,40,-17
-164,88,252,38,-204,167,640,279,253,95,40,-17
-170,82,252,44,-210,167,622,267,247,95,40,-17
-170,76,246,50,-204,161,598,249,235,95,34,-11
-164,76,240,44,-198,155,574,225,223,89,34,-17
-158,71,228,44,-192,149,550,207,211,83,34,-11
-152,66,216,38,-186,137,520,189,211,77,34,-11
-146,71,216,38,-180,143,490,183,199,77,34,-11
-134,66,198,32,-168,131,466,165,181,71,28,-17
-122,60,180,32,-150,119,448,147,163,65,34,-17
-122,60,180,32,-150,119,430,129,151,65,34,-17
-116,48,162,32,-138,101,412,117,139,59,28,-11
-116,42,156,32,-138,95,394,99,127,59,22,-11
-110,42,150,32,-132,95,370,81,109,53,22,-11
-116,36,150,38,-132,89,346,69,109,47,22,-11
-110,24,132,44,-120,77,316,51,97,41,22,-11
-104,24,126,38,-114,72,286,33,85,35,16,-11
-104,18,120,38,-114,67,262,21,79,29,16,-17
-98,12,108,44,-102,61,244,3,67,29,10,-17
-92,6,96,38,-96,49,232,-15,49,17,4,-22
-86,0,84,44,-84,43,214,-27,31,11,-2,-27
-86,-6,78,44,-84,37,202,-38,25,5,-8,-27
-86,-6,78,44,-84,37,196,-43,13,5,-8,-33
-86,-12,73,50,-78,31,184,-55,7,-1,-8,-39
-80,-18,62,44,-72,19,172,-67,1,-1,-13,-39
-74,-18,56,44,-66,19,154,-79,-5,-1,-13,-45
-68,-18,50,38,-60,13,148,-85,-11,-7,-13,-45
-62,-24,38,44,-48,7,130,-91,-17,-19,-13,-45
-62,-30,32,44,-48,1,118,-97,-29,-25,-18,-45
-56,-30,26,38,-42,-5,112,-103,-29,-25,-24,-39
-50,-18,32,32,-42,7,106,-109,-23,-19,-24,-33
-50,-24,26,38,-37,1,100,-115,-23,-25,-24,-33
-56,-30,26,38,-42,-5,94,-121,-29,-31,-24,-33
-62,-36,26,50,-42,-5,82,-121,-41,-37,-24,-39
-68,-48,20,56,-42,-17,76,-127,-47,-37,-30,-45
-62,-54,8,56,-37,-23,76,-121,-53,-48,-30,-51
-62,-54,8,56,-37,-23,76,-121,-53,-53,-36,-57
-62,-54,8,56,-37,-23,70,-127,-53,-59,-42,-57
-50,-54,-4,50,-26,-29,64,-127,-53,-65,-42,-63
-50,-54,-4,50,-26,-29,70,-133,-47,-71,-48,-69
-50,-54,-4,50,-26,-29,70,-139,-47,-71,-48,-69
-50,-48,2,50,-26,-23,58,-139,-47,-65,-48,-69
-44,-42,2,38,-26,-23,46,-139,-41,-65,-42,-63
-38,-42,-4,38,-20,-23,46,-133,-47,-65,-42,-63
-38,-42,-4,38,-20,-23,46,-139,-47,-65,-42,-63
-32,-36,-4,32,-14,-23,46,-139,-41,-65,-36,-63
-32,-36,-4,32,-14,-23,40,-139,-47,-65,-30,-63
-32,-36,-4,32,-14,-23,40,-139,-47,-65,-30,-63
-26,-30,-4,26,-14,-17,34,-145,-47,-65,-30,-63
-26,-30,-4,26,-14,-17,28,-145,-41,-65,-24,-63
-26,-30,-4,26,-14,-17,22,-145,-47,-59,-24,-63
-26,-24,2,26,-14,-11,22,-145,-47,-53,-18,-63
-26,-18,8,20,-20,-5,10,-145,-47,-48,-13,-63
-26,-12,14,20,-20,1,4,-145,-41,-48,-13,-63
-14,-12,2,14,-8,-5,-2,-145,-47,-48,-18,-69
-14,-12,2,14,-8,-5,-2,-145,-47,-53,-18,-69
-14,-6,8,8,-14,1,-2,-139,-41,-53,-18,-63
-20,-6,14,8,-20,1,-8,-133,-35,-48,-13,-57
-20,-6,14,8,-20,1,-14,-127,-29,-48,-13,-63
-26,-12,14,20,-20,1,-14,-127,-29,-48,-18,-57
-32,-18,14,20,-26,-5,-20,-127,-29,-48,-18,-57
-32,-24,8,26,-20,-11,-26,-127,-29,-48,-18,-57
-38,-24,14,32,-26,-5,-26,-127,-29,-48,-24,-57
-38,-24,14,32,-26,-5,-20,-127,-29,-48,-24,-57
-38,-30,8,32,-26,-11,-26,-127,-35,-53,-24,-57
-44,-36,8,38,-26,-17,-26,-127,-41,-53,-24,-57
-56,-36,20,44,-37,-11,-20,-127,-41,-48,-24,-57
-68,-48,20,56,-42,-17,-26,-127,-35,-48,-30,-63
-74,-54,20,62,-48,-17,-32,-127,-35,-48,-36,-63
-74,-54,20,62,-48,-17,-32,-133,-29,-37,-36,-63
-80,-60,20,68,-48,-23,-32,-133,-35,-37,-36,-63
-86,-66,20,74,-54,-23,-38,-133,-35,-43,-36,-69
-98,-78,20,86,-60,-29,-43,-139,-41,-48,-42,-69
-98,-84,14,92,-54,-35,-38,-145,-41,-48,-42,-75
-104,-90,14,92,-60,-41,-38,-139,-41,-48,-42,-69
-110,-96,14,104,-60,-41,-32,-139,-41,-48,-42,-75
-116,-102,14,104,-66,-47,-32,-139,-41,-48,-42,-75
-116,-102,14,104,-66,-47,-32,-139,-35,-53,-42,-75
-128,-114,14,116,-72,-53,-38,-139,-41,-48,-42,-81
-146,-114,32,128,-90,-41,-38,-145,-47,-48,-48,-81
-152,-126,26,134,-90,-53,-38,-151,-53,-48,-54,-87
-164,-132,32,146,-96,-53,-38,-145,-53,-48,-54,-87
-164,-138,26,146,-96,-59,-38,-139,-53,-48,-54,-87
-170,-144,26,158,-96,-59,-38,-139,-53,-48,-60,-93
-176,-144,32,158,-102,-59,-32,-145,-53,-48,-60,-93
-182,-144,38,164,-108,-53,-32,-145,-53,-43,-60,-93
-188,-150,38,164,-114,-59,-38,-151,-53,-48,-60,-87
-182,-150,32,164,-108,-59,-32,-157,-58,-48,-54,-93
-182,-150,32,164,-108,-59,-32,-157,-58,-48,-54,-87
-176,-150,26,158,-102,-65,-32,-151,-58,-43,-54,-87
-170,-150,20,158,-96,-65,-38,-151,-58,-43,-54,-87
-170,-144,26,158,-96,-59,-43,-151,-58,-43,-54,-87
-170,-138,32,152,-102,-53,-43,-151,-53,-43,-60,-87
-170,-132,38,152,-102,-47,-48,-151,-53,-48,-60,-87
-164,-126,38,140,-102,-47,-48,-151,-53,-48,-66,-87
-158,-120,38,140,-96,-41,-54,-145,-47,-53,-66,-87
-152,-114,38,128,-96,-41,-54,-133,-47,-53,-60,-87
-146,-108,38,128,-90,-35,-54,-133,-47,-48,-60,-81
-140,-108,32,122,-84,-41,-54,-127,-47,-53,-60,-81
-134,-96,38,116,-84,-29,-60,-127,-41,-53,-54,-81
-122,-90,32,104,-78,-29,-60,-127,-41,-48,-54,-81
-110,-84,26,98,-66,-29,-60,-127,-41,-48,-54,-87
-104,-84,20,92,-60,-35,-66,-133,-41,-48,-54,-93
-98,-72,26,86,-60,-23,-72,-133,-41,-48,-48,-93
-92,-72,20,80,-54,-29,-78,-127,-41,-48,-48,-87
-86,-60,26,74,-54,-17,-78,-127,-41,-48,-42,-87
-80,-54,26,62,-54,-17,-78,-127,-35,-48,-36,-81
-62,-48,14,56,-37,-17,-84,-127,-41,-53,-36,-75
-50,-42,8,44,-32,-17,-90,-133,-41,-53,-36,-75
-38,-24,14,32,-26,-5,-90,-133,-41,-53,-30,-69
-32,-18,14,20,-26,-5,-96,-133,-47,-53,-30,-69
-32,-12,20,20,-26,1,-96,-127,-47,-59,-30,-69
-32,-6,26,14,-32,7,-96,-127,-47,-59,-24,-63
-32,-6,26,14,-32,7,-102,-127,-47,-65,-24,-63
-32,-6,26,14,-32,7,-108,-127,-53,-71,-24,-63
-26,-6,20,14,-26,7,-108,-127,-53,-59,-24,-63
-20,-6,14,8,-20,1,-114,-127,-47,-53,-24,-63
-14,0,14,8,-14,7,-132,-133,-47,-53,-18,-57
-8,0,8,2,-8,1,-138,-133,-47,-53,-18,-51
-8,0,8,2,-8,1,-138,-127,-47,-53,-13,-51
-8,0,8,2,-8,1,-144,-133,-47,-59,-18,-45
-14,0,14,8,-14,7,-144,-139,-47,-65,-18,-51
-14,0,14,8,-14,7,-144,-139,-53,-65,-18,-51
-20,12,32,2,-26,19,-150,-139,-53,-65,-18,-45
-20,18,38,-4,-32,25,-156,-139,-53,-65,-18,-45
-20,18,38,-4,-32,25,-156,-139,-47,-65,-18,-45
-26,18,44,2,-37,31,-144,-139,-41,-59,-18,-45
-26,24,50,2,-37,37,-144,-133,-41,-53,-18,-39
-26,24,50,2,-37,37,-150,-127,-41,-53,-18,-39
-32,24,56,2,-42,37,-150,-127,-41,-53,-18,-33
-38,24,62,8,-48,43,-156,-121,-41,-48,-13,-33
-44,24,68,8,-54,43,-162,-121,-35,-48,-13,-33
-50,18,68,14,-60,43,-168,-121,-29,-53,-18,-33
-56,18,73,14,-66,43,-168,-115,-23,-48,-18,-33
-62,12,73,26,-66,43,-168,-115,-23,-48,-18,-33
-62,6,68,26,-66,37,-168,-109,-23,-48,-18,-39
-62,0,62,32,-60,31,-174,-115,-29,-53,-18,-45
-62,-6,56,32,-60,25,-168,-115,-29,-53,-13,-39
-74,-12,62,44,-66,25,-180,-121,-29,-53,-13,-39
-86,-18,68,50,-78,25,-180,-121,-29,-48,-13,-39
-80,-6,73,38,-78,31,-180,-121,-23,-43,-8,-33
-80,-6,73,38,-78,31,-174,-121,-23,-43,-8,-33
-80,0,78,38,-78,37,-180,-121,-23,-43,-13,-27
-80,6,84,32,-84,43,-186,-115,-23,-43,-13,-27
-80,6,84,32,-84,43,-198,-121,-29,-43,-13,-22
-80,6,84,32,-84,43,-198,-121,-29,-43,-8,-22
-86,6,90,38,-90,49,-204,-121,-23,-37,-2,-22
-80,12,90,32,-84,49,-210,-127,-23,-37,-2,-22
-74,12,84,32,-78,49,-222,-133,-29,-37,-2,-17
-68,12,78,26,-72,43,-222,-133,-29,-37,-2,-17
-62,12,73,26,-66,43,-234,-139,-29,-37,-2,-22
-62,18,78,20,-72,49,-240,-133,-29,-31,-2,-22
-56,12,68,20,-60,37,-246,-133,-23,-25,-2,-22
-56,12,68,20,-60,37,-246,-133,-23,-25,-2,-22
-62,18,78,20,-72,49,-252,-133,-17,-25,-2,-17
-56,18,73,14,-66,43,-252,-139,-23,-25,4,-17
-44,24,68,8,-54,43,-258,-145,-23,-37,-2,-17
-38,30,68,2,-54,49,-252,-145,-23,-37,-2,-17
-32,36,68,-4,-48,49,-252,-145,-29,-43,4,-17
-20,42,62,-16,-42,49,-252,-139,-23,-43,4,-22
-20,42,62,-16,-42,49,-252,-139,-29,-48,-2,-22
-20,42,62,-16,-42,49,-252,-145,-41,-43,-8,-22
-14,36,50,-10,-32,43,-246,-151,-47,-48,-13,-22
-8,30,38,-16,-26,31,-246,-151,-53,-48,-13,-22
-3,24,26,-10,-14,25,-246,-157,-58,-53,-13,-27
-3,18,20,-10,-14,19,-240,-157,-58,-53,-18,-27
-3,24,26,-10,-14,25,-228,-157,-47,-53,-18,-22
2,24,20,-10,-8,25,-216,-157,-41,-53,-18,-22
2,30,26,-16,-14,31,-204,-151,-41,-53,-13,-22
2,30,26,-16,-14,31,-186,-157,-41,-53,-18,-27
2,30,26,-16,-14,31,-174,-151,-41,-53,-18,-27
2,24,20,-10,-8,25,-156,-151,-47,-53,-18,-33
2,24,20,-10,-8,25,-150,-151,-47,-53,-18,-39
8,24,14,-16,-2,19,-138,-157,-47,-48,-18,-39
2,18,14,-10,-8,19,-132,-157,-53,-48,-18,-39
-3,12,14,-4,-8,13,-114,-157,-53,-48,-24,-45
-3,6,8,-4,-8,7,-108,-157,-53,-53,-24,-45
-8,6,14,-4,-14,7,-108,-163,-58,-59,-24,-51
-8,0,8,2,-8,1,-108,-163,-63,-59,-30,-57
-8,-6,2,2,-8,-5,-102,-151,-58,-65,-36,-63
-8,-12,-4,8,-2,-11,-96,-145,-53,-65,-42,-63
-14,-18,-4,14,-8,-11,-84,-139,-53,-77,-42,-69
-14,-30,-16,20,-2,-23,-78,-133,-53,-77,-42,-69
-14,-30,-16,20,-2,-23,-72,-121,-47,-77,-42,-69
-14,-30,-16,20,-2,-23,-66,-115,-41,-77,-42,-69
-20,-36,-16,26,-2,-29,-54,-97,-41,-77,-42,-69
-14,-36,-22,26,4,-29,-48,-91,-29,-77,-42,-63
-8,-42,-34,20,10,-41,-43,-85,-29,-71,-42,-63
-8,-48,-40,26,16,-47,-43,-85,-23,-65,-48,-63
-3,-42,-40,20,16,-41,-32,-79,-17,-59,-42,-57
-3,-42,-40,20,16,-41,-26,-79,-11,-53,-36,-57
-3,-42,-40,20,16,-41,-20,-67,-5,-53,-30,-51
-3,-42,-40,20,16,-41,-20,-61,-5,-53,-30,-51
-3,-42,-40,20,16,-41,-26,-49,7,-48,-30,-51
-8,-42,-34,20,10,-41,-26,-38,13,-48,-24,-39
-8,-42,-34,20,10,-41,-20,-33,19,-43,-18,-39
-8,-48,-40,26,16,-47,-20,-21,25,-43,-24,-33
-8,-54,-46,26,16,-53,-14,-15,25,-43,-24,-33
-3,-60,-58,32,28,-59,-2,3,31,-37,-30,-33
2,-60,-64,32,34,-59,10,27,55,-25,-24,-33
2,-48,-52,26,28,-47,16,57,85,-13,-13,-27
8,-36,-46,14,28,-41,10,75,109,-1,-2,-22
20,-24,-46,2,34,-35,-2,99,127,11,4,-17
32,-24,-58,-4,46,-41,-26,129,151,17,10,-17
50,-12,-64,-16,58,-35,-48,159,169,29,16,-11
68,-6,-76,-33,70,-41,-78,189,193,47,28,-5
80,0,-82,-38,82,-41,-120,219,211,65,40,7
98,12,-88,-50,94,-35,-150,243,229,83,58,13
110,24,-88,-62,100,-29,-180,273,253,101,70,19
128,30,-100,-80,112,-35,-222,297,277,125,88,25
140,36,-106,-86,124,-35,-264,321,295,149,106,31
164,48,-118,-104,142,-35,-312,333,319,167,124,43
188,54,-136,-122,160,-41,-360,345,337,179,130,55
200,54,-148,-128,172,-47,-408,351,343,185,136,61
212,48,-166,-128,190,-59,-450,363,337,191,136,61
224,42,-184,-134,202,-71,-498,381,337,197,136,61
248,48,-202,-146,226,-77,-546,405,349,209,142,67
272,48,-226,-158,250,-89,-600,435,367,233,154,79
296,48,-250,-170,274,-101,-642,471,397,251,166,85
314,42,-274,-176,292,-113,-672,501,409,269,178,91
326,24,-304,-170,316,-137,-690,513,427,281,178,91
344,12,-334,-176,340,-161,-702,537,463,305,190,91
374,6,-370,-188,370,-179,-708,573,505,341,208,103
422,24,-400,-218,412,-185,-720,609,577,407,250,127
470,66,-406,-266,436,-167,-738,645,655,479,304,163
542,112,-430,-320,490,-155,-780,675,733,569,376,211
632,166,-466,-398,550,-149,-858,693,793,665,454,265
734,214,-520,-470,628,-149,-960,681,841,749,532,325
842,262,-580,-548,712,-155,-1080,669,889,839,622,397
962,328,-634,-638,802,-149,-1218,657,949,935,724,487
1082,400,-682,-734,886,-137,-1344,639,1009,1025,826,583
1190,484,-706,-830,952,-107,-1470,603,1051,1103,922,679
1286,568,-718,-920,1006,-71,-1572,555,1069,1151,988,763
1358,640,-718,-992,1042,-35,-1650,477,1039,1157,1024,829
1394,706,-688,-1046,1042,13,-1698,345,949,1121,1036,865
1388,760,-628,-1070,1012,67,-1722,129,781,1043,1030,895
1352,784,-568,-1064,964,107,-1716,-139,523,911,994,895
1274,820,-454,-1040,868,185,-1692,-445,235,773,958,907
1154,814,-340,-980,748,239,-1644,-739,-47,629,910,907
1016,760,-256,-884,640,251,-1578,-1015,-327,443,802,859
872,634,-238,-752,556,197,-1476,-1201,-585,173,604,739
728,508,-220,-614,478,143,-1338,-1297,-777,-77,382,595
584,412,-172,-494,382,119,-1176,-1309,-873,-263,202,469
452,334,-118,-392,286,107,-1002,-1273,-891,-371,70,355
350,274,-76,-308,214,101,-834,-1189,-855,-419,-18,259
272,220,-52,-242,166,83,-678,-1075,-783,-431,-66,181
206,172,-34,-182,124,72,-546,-949,-687,-413,-78,127
158,136,-22,-140,94,61,-438,-811,-597,-377,-84,85
104,100,-4,-98,58,49,-348,-691,-513,-347,-84,61
62,76,14,-62,28,49,-276,-571,-435,-329,-90,37
38,60,20,-44,10,43,-198,-463,-363,-305,-96,25
8,42,32,-28,-14,37,-132,-379,-303,-287,-102,13
-8,24,32,-10,-20,25,-72,-331,-255,-269,-108,-5
-26,12,38,8,-32,25,-8,-289,-213,-251,-108,-22
-44,-6,38,20,-42,13,52,-259,-171,-227,-102,-27
-62,-24,38,44,-48,7,106,-241,-147,-203,-102,-45
-74,-48,26,62,-48,-11,148,-217,-111,-173,-96,-51
-80,-66,14,68,-48,-29,178,-193,-93,-149,-96,-63
-92,-90,2,86,-48,-47,202,-157,-69,-137,-96,-75
-110,-108,2,110,-54,-53,214,-133,-58,-131,-102,-81
-122,-120,2,122,-60,-59,226,-109,-58,-131,-108,-87
-134,-126,8,128,-72,-59,238,-91,-47,-131,-108,-87
-140,-132,8,134,-72,-65,250,-91,-35,-131,-102,-93
-152,-138,14,140,-84,-65,262,-91,-29,-125,-102,-105
-164,-144,20,152,-90,-65,280,-97,-23,-125,-102,-111
-170,-150,20,158,-96,-65,292,-97,-23,-125,-108,-117
-176,-156,20,164,-96,-71,304,-91,-23,-125,-114,-123
-182,-162,20,170,-102,-71,304,-79,-17,-125,-120,-123
-182,-162,20,170,-102,-71,316,-67,-17,-125,-120,-123
-182,-162,20,170,-102,-71,328,-55,-17,-125,-126,-123
-182,-168,14,176,-96,-77,334,-55,-17,-119,-126,-123
-182,-168,14,176,-96,-77,346,-43,-17,-113,-126,-123
-182,-168,14,176,-96,-77,364,-38,-17,-119,-126,-123
-194,-168,26,182,-108,-71,376,-38,-17,-119,-120,-123
-194,-162,32,176,-114,-65,388,-33,-23,-119,-120,-123
-194,-162,32,176,-114,-65,394,-33,-23,-119,-114,-123
-200,-162,38,176,-120,-65,400,-21,-23,-119,-114,-123
-206,-168,38,188,-120,-65,406,-15,-23,-119,-114,-123
-206,-168,38,188,-120,-65,406,-15,-29,-125,-114,-123
-206,-174,32,188,-120,-71,406,-15,-29,-131,-120,-129
-206,-180,26,194,-114,-77,400,-15,-29,-137,-126,-129
-218,-180,38,200,-126,-71,400,-15,-23,-137,-126,-123
-230,-180,50,206,-138,-65,394,-15,-11,-143,-132,-123
-218,-168,50,194,-132,-59,394,-15,-17,-143,-132,-117
-218,-162,56,188,-138,-53,394,-9,-23,-137,-132,-117
-218,-162,56,188,-138,-53,394,-3,-23,-143,-132,-117
-224,-168,56,194,-138,-59,394,9,-23,-143,-126,-111
-230,-168,62,200,-144,-53,394,9,-23,-149,-126,-111
-236,-168,68,200,-150,-53,400,9,-23,-149,-132,-111
-236,-162,73,194,-156,-47,400,9,-17,-143,-132,-105
-230,-156,73,194,-150,-41,400,9,-11,-143,-120,-105
-230,-150,78,188,-156,-35,400,15,1,-137,-120,-105
-236,-150,84,188,-162,-35,400,15,13,-137,-120,-105
-236,-150,84,188,-162,-35,406,27,19,-131,-120,-105
-236,-144,90,188,-162,-29,418,39,25,-131,-120,-105
-236,-138,96,182,-168,-23,424,51,31,-125,-120,-105
-236,-138,96,182,-168,-23,436,57,43,-113,-114,-105
-248,-132,114,188,-180,-11,442,69,49,-101,-114,-99
-254,-132,120,194,-186,-5,448,87,61,-83,-108,-93
-260,-126,132,188,-198,1,448,99,67,-71,-108,-93
-266,-126,138,194,-204,7,448,105,73,-65,-102,-87
-278,-126,150,200,-216,13,448,111,85,-59,-102,-81
-290,-120,168,206,-228,25,442,117,97,-59,-102,-81
-302,-120,180,212,-240,31,442,129,103,-59,-96,-81
-308,-120,186,212,-246,31,436,147,109,-53,-90,-81
-314,-120,192,218,-252,37,442,165,115,-48,-90,-75
-320,-120,198,218,-258,37,436,177,127,-48,-84,-63
-320,-114,204,212,-264,43,424,183,139,-37,-84,-57
-320,-108,210,212,-264,49,430,195,145,-31,-78,-57
-326,-96,228,212,-276,67,424,201,157,-25,-72,-51
-326,-84,240,206,-282,77,418,213,169,-19,-66,-51
-320,-72,246,194,-282,83,418,225,187,-13,-60,-45
-314,-66,246,188,-282,89,418,237,193,5,-48,-39
-308,-54,252,176,-282,95,418,249,199,11,-48,-33
-308,-54,252,176,-282,95,418,261,205,17,-36,-33
-308,-48,258,176,-282,101,418,279,217,23,-36,-27
-314,-48,264,182,-288,107,418,291,223,29,-36,-27
-308,-42,264,170,-288,107,418,309,229,29,-30,-22
-308,-36,270,170,-288,113,424,333,247,41,-24,-11
-308,-36,270,170,-288,113,424,345,259,47,-24,-5
-308,-36,270,170,-288,113,418,363,271,53,-18,1
-320,-36,282,176,-300,119,418,375,277,59,-18,7
-320,-30,288,170,-306,125,418,393,283,59,-13,7
-320,-36,282,176,-300,119,412,405,295,59,-13,13
-320,-36,282,176,-300,119,412,417,307,65,-8,13
-326,-36,288,182,-306,125,400,429,319,65,-8,13
-326,-42,282,182,-306,119,388,447,325,65,-8,19
-326,-42,282,182,-306,119,382,465,325,71,-2,19
-326,-42,282,182,-306,119,376,483,325,77,4,25
-326,-42,282,182,-306,119,370,489,337,77,-2,25
-326,-48,276,188,-300,113,364,501,337,77,-2,25
-332,-48,282,188,-306,113,358,513,343,71,-8,25
-338,-48,288,194,-312,119,358,525,343,71,-8,25
-338,-54,282,194,-312,113,346,525,343,71,-8,19
-332,-54,276,188,-306,107,334,531,355,71,-8,13
-326,-54,270,188,-300,107,322,537,355,71,-8,13
-320,-54,264,182,-294,101,316,543,355,71,-8,19
-308,-54,252,176,-282,95,304,549,355,71,-8,19
-308,-54,252,176,-282,95,292,555,355,71,-8,19
-302,-54,246,176,-276,95,280,555,349,83,-2,25
-296,-48,246,170,-270,95,268,555,343,95,10,31
-290,-48,240,170,-264,95,250,549,331,107,16,43
-284,-42,240,158,-264,95,238,537,331,107,16,49
-272,-42,228,152,-252,89,226,531,319,107,22,55
-272,-42,228,152,-252,89,208,525,313,101,22,49
-266,-42,222,152,-246,89,190,513,307,95,22,43
-272,-42,228,152,-252,89,178,501,307,89,22,43
-266,-42,222,152,-246,89,160,489,301,83,22,43
-260,-42,216,146,-240,83,142,483,289,89,22,49
-248,-48,198,146,-222,72,118,465,277,83,16,49
-248,-54,192,146,-222,67,100,447,271,83,16,49
-254,-60,192,158,-222,67,82,429,253,77,10,49
-248,-66,180,152,-216,55,64,411,235,71,10,49
-248,-72,174,158,-210,49,46,393,217,65,4,49
-242,-78,162,158,-204,43,22,369,205,59,-2,49
-242,-90,150,164,-198,31,4,351,193,53,-2,49
-236,-96,138,164,-186,19,-14,333,181,53,-2,49
-230,-96,132,164,-180,19,-26,315,169,53,-2,49
-224,-96,126,158,-174,13,-43,297,163,53,4,49
-212,-102,108,152,-162,1,-66,279,145,47,4,43
-200,-102,96,146,-150,-5,-84,261,133,47,-2,43
-194,-102,90,146,-144,-5,-96,249,121,35,-8,43
-194,-108,84,152,-138,-11,-108,225,109,29,-8,43
-188,-114,73,146,-132,-23,-126,201,103,23,-8,43
-182,-114,68,146,-126,-23,-144,183,97,29,-8,49
-170,-114,56,140,-114,-29,-150,177,85,29,-8,49
-158,-108,50,134,-102,-29,-168,159,79,23,-8,49
-146,-102,44,122,-96,-29,-174,147,67,23,-8,49
-140,-96,44,116,-90,-29,-186,135,55,23,-13,49
-128,-96,32,110,-78,-35,-198,129,43,17,-13,43
-116,-96,20,104,-66,-41,-204,111,43,11,-18,43
-110,-96,14,104,-60,-41,-222,99,37,5,-18,31
-104,-96,8,98,-54,-47,-228,81,31,-1,-24,31
-92,-84,8,86,-48,-41,-234,75,25,-1,-18,37
-86,-84,2,86,-42,-41,-240,69,25,-13,-24,31
-74,-84,-10,80,-32,-47,-246,63,13,-19,-30,31
-62,-84,-22,74,-20,-53,-252,57,7,-25,-30,31
-50,-78,-28,62,-14,-53,-264,51,1,-25,-30,31
-44,-78,-34,56,-8,-59,-264,51,1,-31,-36,25
-38,-72,-34,56,-2,-53,-258,51,7,-31,-36,37
-38,-78,-40,56,-2,-59,-258,51,1,-31,-36,31
-32,-78,-46,50,4,-65,-258,45,1,-37,-36,25
-32,-72,-40,50,4,-59,-258,45,7,-37,-36,25
-32,-78,-46,50,4,-65,-264,39,1,-31,-36,25
-38,-84,-46,62,4,-65,-264,39,-5,-31,-36,25
-32,-84,-52,56,10,-71,-264,39,-5,-31,-30,25
-32,-78,-46,50,4,-65,-270,33,1,-37,-30,31
-26,-78,-52,50,10,-65,-270,27,1,-37,-36,31
-26,-78,-52,50,10,-65,-270,21,1,-43,-36,31
-20,-78,-58,44,16,-71,-276,15,-5,-48,-36,31
-20,-78,-58,44,16,-71,-276,3,1,-48,-30,25
-26,-72,-46,50,10,-59,-276,3,-5,-53,-30,19
-26,-78,-52,50,10,-65,-282,-9,-11,-59,-30,13
-26,-78,-52,50,10,-65,-282,-15,-17,-59,-36,19
-32,-78,-46,50,4,-65,-282,-15,-11,-53,-36,13
-32,-84,-52,56,10,-71,-282,-15,-11,-53,-36,19
-32,-84,-52,56,10,-71,-282,-21,-11,-53,-36,13
-32,-90,-58,56,10,-77,-288,-21,-11,-59,-42,13
-38,-84,-46,62,4,-65,-282,-21,1,-59,-48,13
-38,-84,-46,62,4,-65,-282,-27,-5,-65,-48,7
-38,-84,-46,62,4,-65,-282,-33,-5,-71,-48,7
-44,-84,-40,62,-2,-65,-282,-38,-11,-65,-42,7
-50,-84,-34,68,-8,-59,-282,-43,-11,-65,-42,1
-50,-84,-34,68,-8,-59,-276,-49,-5,-65,-36,7
-56,-90,-34,68,-14,-65,-270,-43,-5,-59,-30,7
-62,-96,-34,80,-14,-65,-270,-43,-5,-59,-30,13
-68,-102,-34,80,-20,-71,-270,-43,-11,-53,-30,13
-68,-102,-34,80,-20,-71,-276,-49,-11,-59,-36,7
-68,-108,-40,86,-14,-77,-276,-55,-11,-59,-42,7
-74,-114,-40,92,-20,-77,-276,-55,-11,-53,-48,1
-80,-120,-40,98,-20,-83,-276,-61,-17,-59,-54,1
-86,-126,-40,104,-26,-83,-270,-67,-17,-65,-54,-5
-98,-138,-40,116,-32,-89,-270,-67,-23,-65,-60,-11
-104,-150,-46,122,-32,-101,-276,-73,-29,-71,-66,-11
-110,-150,-40,128,-37,-95,-282,-85,-29,-71,-72,-17
-110,-156,-46,134,-32,-101,-282,-85,-23,-71,-72,-22
-110,-162,-52,134,-32,-107,-282,-85,-29,-71,-72,-22
-116,-168,-52,140,-32,-113,-288,-91,-29,-65,-72,-27
-122,-174,-52,146,-37,-113,-288,-91,-29,-65,-66,-33
-128,-186,-58,152,-37,-125,-282,-103,-29,-59,-66,-33
-140,-186,-46,158,-48,-119,-282,-109,-35,-53,-66,-39
-152,-192,-40,170,-54,-119,-282,-109,-35,-53,-66,-39
-164,-198,-34,176,-66,-119,-288,-115,-35,-59,-66,-39
-170,-204,-34,188,-66,-119,-288,-115,-35,-59,-72,-45
-176,-210,-34,188,-72,-125,-288,-121,-35,-59,-78,-45
-182,-216,-34,200,-72,-125,-282,-121,-35,-59,-78,-51
-188,-228,-40,206,-72,-137,-282,-127,-29,-59,-84,-51
-194,-228,-34,212,-78,-131,-282,-127,-35,-59,-84,-51
-188,-228,-40,206,-72,-137,-276,-133,-35,-59,-90,-51
-188,-234,-46,206,-72,-143,-276,-139,-41,-59,-84,-51
-188,-234,-46,206,-72,-143,-276,-139,-41,-65,-84,-51
-194,-240,-46,218,-72,-143,-276,-145,-41,-59,-84,-57
-200,-240,-40,218,-78,-143,-276,-151,-41,-53,-84,-57
-200,-240,-40,218,-78,-143,-282,-157,-41,-53,-90,-63
-200,-240,-40,218,-78,-143,-276,-169,-41,-65,-96,-69
-200,-246,-46,218,-78,-149,-264,-175,-41,-65,-102,-75
-200,-246,-46,218,-78,-149,-264,-187,-41,-65,-108,-81
-200,-246,-46,218,-78,-149,-264,-193,-41,-59,-108,-75
-206,-240,-34,224,-84,-137,-264,-199,-35,-59,-102,-75
-206,-240,-34,224,-84,-137,-270,-199,-35,-53,-96,-75
-206,-240,-34,224,-84,-137,-276,-199,-41,-48,-90,-75
-206,-234,-28,218,-90,-131,-276,-199,-41,-48,-90,-75
-206,-234,-28,218,-90,-131,-276,-199,-41,-48,-90,-75
-200,-228,-28,212,-84,-131,-270,-205,-47,-53,-90,-75
-194,-228,-34,212,-78,-131,-264,-205,-53,-65,-96,-75
-188,-222,-34,200,-78,-131,-258,-205,-53,-77,-102,-81
-188,-222,-34,200,-78,-131,-258,-211,-47,-89,-102,-81
-188,-216,-28,200,-78,-125,-258,-211,-47,-89,-102,-81
-188,-216,-28,200,-78,-125,-258,-217,-47,-89,-102,-81
-182,-216,-34,200,-72,-125,-258,-217,-47,-95,-108,-81
-176,-210,-34,188,-72,-125,-258,-217,-53,-95,-108,-81
-170,-204,-34,188,-66,-119,-258,-211,-58,-95,-114,-75
-164,-204,-40,182,-60,-125,-252,-211,-58,-95,-108,-75
-164,-204,-40,182,-60,-125,-246,-217,-58,-95,-108,-81
-164,-204,-40,182,-60,-125,-246,-217,-63,-101,-108,-81
-170,-204,-34,188,-66,-119,-240,-217,-63,-101,-102,-87
-164,-198,-34,176,-66,-119,-246,-223,-58,-101,-102,-87
-158,-186,-28,170,-66,-107,-246,-217,-58,-101,-96,-81
-152,-168,-16,158,-66,-95,-240,-211,-58,-101,-96,-81
-146,-168,-22,158,-60,-95,-240,-217,-58,-107,-96,-81
-152,-168,-16,158,-66,-95,-234,-223,-63,-119,-96,-81
-146,-168,-22,158,-60,-95,-234,-229,-69,-131,-102,-87
-146,-168,-22,158,-60,-95,-234,-235,-75,-131,-102,-81
-140,-174,-34,152,-54,-107,-234,-241,-75,-137,-102,-81
-134,-174,-40,152,-48,-107,-234,-247,-69,-143,-108,-81
-128,-174,-46,146,-42,-113,-222,-247,-75,-143,-114,-87
-122,-168,-46,146,-37,-107,-222,-253,-75,-149,-126,-87
-122,-162,-40,140,-42,-101,-222,-253,-69,-143,-126,-81
-128,-156,-28,140,-48,-95,-216,-253,-58,-137,-120,-75
-128,-150,-22,134,-54,-89,-216,-253,-58,-131,-114,-69
-122,-144,-22,134,-48,-83,-210,-253,-58,-131,-102,-69
-128,-138,-10,128,-60,-77,-204,-253,-53,-119,-90,-57
-122,-126,-4,122,-60,-65,-198,-253,-41,-101,-84,-57
-116,-120,-4,116,-54,-65,-192,-247,-41,-95,-78,-57
-116,-120,-4,116,-54,-65,-186,-235,-35,-89,-72,-57
-116,-114,2,110,-60,-59,-192,-235,-35,-83,-66,-51
-116,-114,2,110,-60,-59,-192,-235,-29,-83,-60,-51
-122,-114,8,116,-66,-53,-186,-241,-29,-77,-54,-45
-122,-114,8,116,-66,-53,-180,-241,-29,-83,-54,-45
-122,-114,8,116,-66,-53,-180,-247,-29,-89,-60,-51
-122,-120,2,122,-60,-59,-174,-247,-29,-89,-66,-51
-128,-126,2,122,-66,-65,-174,-253,-29,-89,-72,-57
-140,-126,14,128,-78,-59,-174,-253,-35,-83,-72,-63
-134,-120,14,128,-72,-53,-168,-253,-29,-77,-72,-57
-128,-108,20,116,-72,-47,-162,-253,-29,-77,-72,-57
-128,-108,20,116,-72,-47,-156,-259,-29,-77,-72,-57
-128,-102,26,110,-78,-41,-162,-259,-29,-77,-72,-57
-128,-96,32,110,-78,-35,-168,-271,-23,-77,-72,-57
-134,-96,38,116,-84,-29,-174,-283,-23,-77,-66,-57
-134,-96,38,116,-84,-29,-180,-289,-23,-77,-66,-57
-134,-96,38,116,-84,-29,-186,-295,-23,-77,-60,-51
-134,-90,44,110,-90,-23,-192,-301,-23,-71,-60,-45
-128,-84,44,104,-84,-23,-192,-301,-29,-65,-60,-45
-128,-84,44,104,-84,-23,-198,-307,-35,-65,-60,-45
-116,-84,32,98,-72,-29,-204,-313,-35,-65,-66,-45
-116,-90,26,98,-72,-35,-210,-307,-35,-59,-66,-45
-110,-90,20,98,-66,-35,-216,-319,-35,-53,-60,-39
-110,-84,26,98,-66,-29,-222,-325,-35,-48,-54,-39
-110,-84,26,98,-66,-29,-228,-325,-29,-48,-54,-39
-110,-78,32,92,-72,-23,-228,-325,-29,-43,-48,-33
-110,-78,32,92,-72,-23,-234,-331,-29,-37,-48,-33
-110,-84,26,98,-66,-29,-240,-331,-35,-43,-48,-33
-104,-84,20,92,-60,-35,-246,-337,-41,-48,-42,-33
-98,-78,20,86,-60,-29,-246,-343,-47,-53,-42,-33
-98,-84,14,92,-54,-35,-240,-349,-53,-53,-48,-39
-98,-84,14,92,-54,-35,-240,-355,-58,-59,-54,-45
-92,-84,8,86,-48,-41,-246,-361,-63,-65,-60,-45
-86,-84,2,86,-42,-41,-246,-361,-69,-71,-66,-45
-86,-90,-4,86,-42,-47,-246,-367,-81,-83,-66,-45
-92,-102,-10,92,-42,-59,-246,-367,-81,-89,-72,-51
-86,-114,-28,98,-32,-71,-240,-367,-87,-95,-78,-51
-92,-108,-16,98,-37,-65,-222,-367,-87,-95,-72,-51
-98,-108,-10,104,-42,-59,-210,-361,-81,-95,-72,-51
-104,-114,-10,104,-48,-65,-204,-361,-81,-101,-78,-51
-110,-120,-10,116,-48,-65,-198,-355,-81,-107,-90,-57
-110,-126,-16,116,-48,-71,-198,-349,-81,-113,-96,-63
-110,-132,-22,122,-42,-77,-192,-349,-81,-119,-108,-69
-110,-138,-28,122,-42,-83,-192,-349,-81,-119,-114,-75
-110,-138,-28,122,-42,-83,-180,-355,-87,-119,-114,-81
-104,-138,-34,116,-37,-89,-174,-361,-87,-113,-108,-81
-104,-138,-34,116,-37,-89,-174,-355,-81,-107,-102,-81
-98,-138,-40,116,-32,-89,-168,-355,-87,-101,-102,-75
-98,-144,-46,122,-26,-95,-168,-355,-99,-107,-108,-81
-98,-150,-52,122,-26,-101,-168,-355,-105,-113,-114,-81
-92,-150,-58,116,-20,-107,-168,-355,-99,-113,-108,-81
-92,-144,-52,116,-20,-101,-162,-349,-99,-107,-108,-81
-86,-138,-52,110,-20,-95,-156,-343,-93,-101,-102,-81
-86,-138,-52,110,-20,-95,-144,-331,-87,-101,-102,-81
-80,-138,-58,104,-14,-101,-138,-319,-87,-101,-96,-81
-74,-132,-58,104,-8,-95,-132,-313,-87,-101,-96,-87
-68,-132,-64,98,-2,-101,-120,-307,-81,-101,-96,-87
-62,-132,-70,98,4,-101,-114,-301,-81,-107,-108,-87
-62,-138,-76,98,4,-107,-108,-295,-81,-107,-108,-93
-56,-144,-88,98,16,-119,-108,-289,-81,-107,-114,-93
-56,-144,-88,98,16,-119,-102,-283,-81,-101,-114,-93
-56,-150,-94,98,16,-125,-96,-271,-69,-95,-108,-87
-50,-150,-100,98,22,-125,-90,-259,-63,-95,-102,-87
-50,-150,-100,98,22,-125,-90,-253,-63,-89,-102,-87
-44,-150,-106,92,28,-131,-90,-241,-58,-95,-108,-87
-44,-150,-106,92,28,-131,-78,-223,-47,-95,-108,-87
-38,-150,-112,92,34,-131,-78,-211,-41,-89,-102,-81
-38,-144,-106,92,34,-125,-78,-199,-35,-83,-96,-81
-32,-144,-112,86,40,-131,-66,-187,-29,-77,-90,-81
-26,-138,-112,80,40,-125,-66,-169,-5,-65,-84,-75
-26,-138,-112,80,40,-125,-60,-145,13,-53,-78,-69
-8,-126,-118,62,52,-125,-66,-121,31,-43,-66,-63
2,-108,-112,56,58,-107,-90,-91,49,-25,-60,-51
8,-102,-112,44,58,-107,-114,-61,73,-7,-54,-51
26,-96,-124,38,76,-107,-138,-38,91,5,-48,-45
44,-84,-130,20,88,-107,-162,-9,109,23,-36,-39
56,-84,-142,14,100,-113,-186,21,127,35,-30,-33
68,-72,-142,2,106,-107,-216,51,151,53,-18,-22
80,-72,-154,-4,118,-113,-234,75,169,65,-13,-22
92,-60,-154,-16,124,-107,-258,99,187,77,-2,-17
110,-42,-154,-33,130,-95,-300,123,211,95,16,-11
134,-24,-160,-50,148,-89,-348,141,229,119,34,1
152,-12,-166,-68,160,-89,-402,165,253,149,58,13
170,0,-172,-80,172,-83,-456,183,271,173,76,25
188,0,-190,-92,190,-95,-498,201,283,185,94,37
200,0,-202,-98,202,-101,-552,213,283,191,100,43
212,-6,-220,-104,214,-113,-594,231,283,203,100,49
236,-6,-244,-116,238,-125,-636,243,289,215,106,55
266,0,-268,-128,268,-131,-672,267,307,233,112,55
296,12,-286,-152,292,-137,-696,291,325,257,130,67
314,12,-304,-158,310,-143,-720,303,343,275,142,67
332,0,-334,-164,334,-167,-738,321,361,293,148,67
356,-6,-364,-176,358,-185,-756,345,391,311,160,61
386,-24,-412,-176,400,-215,-762,387,439,347,184,67
422,-12,-436,-200,430,-221,-774,435,511,407,214,91
464,24,-442,-242,454,-209,-798,465,595,485,268,133
530,66,-466,-296,496,-197,-846,477,673,587,340,181
608,112,-496,-356,556,-191,-918,477,739,695,418,247
710,166,-544,-434,628,-185,-1014,465,787,785,508,313
818,220,-598,-512,712,-185,-1128,429,823,863,604,391
932,292,-640,-608,790,-173,-1266,399,865,953,706,475
1040,364,-676,-698,862,-155,-1404,363,901,1037,814,565
1142,442,-700,-788,922,-125,-1542,315,937,1103,904,661
1226,526,-700,-872,964,-83,-1662,255,943,1145,976,739
1280,598,-682,-938,982,-41,-1752,171,907,1151,1018,805
1310,658,-652,-980,982,7,-1806,33,811,1121,1024,847
1298,700,-598,-992,952,55,-1842,-175,619,1025,1000,871
1250,730,-520,-986,886,107,-1836,-457,343,875,946,877
1160,754,-406,-956,784,173,-1806,-751,43,719,904,889
1046,748,-298,-890,676,227,-1764,-1045,-243,563,850,883
920,700,-220,-806,574,239,-1692,-1303,-531,365,736,817
776,586,-190,-680,484,197,-1590,-1459,-777,95,526,685
638,466,-172,-548,406,149,-1464,-1525,-939,-149,304,541
494,358,-136,-422,316,113,-1314,-1513,-1023,-329,130,409
368,280,-88,-320,232,95,-1152,-1459,-1035,-425,4,301
272,202,-70,-236,172,67,-984,-1357,-987,-455,-72,211
200,142,-58,-170,130,43,-834,-1225,-897,-449,-120,133
152,106,-46,-128,100,31,-696,-1093,-807,-431,-138,85
110,82,-28,-92,70,31,-582,-967,-711,-407,-150,49
80,60,-22,-68,52,19,-492,-841,-621,-383,-156,19
50,42,-10,-44,28,19,-420,-727,-537,-371,-162,-5
20,18,-4,-22,10,7,-354,-631,-471,-359,-168,-22
-8,0,8,2,-8,1,-294,-553,-411,-335,-174,-33
-38,-24,14,32,-26,-5,-240,-493,-357,-305,-180,-51
-50,-36,14,44,-32,-11,-192,-451,-309,-275,-174,-63
-68,-60,8,62,-37,-29,-138,-409,-267,-251,-174,-81
-80,-78,2,74,-42,-41,-90,-379,-237,-221,-168,-99
-86,-102,-16,92,-37,-59,-48,-349,-207,-203,-168,-111
-86,-120,-34,104,-26,-77,-14,-325,-183,-197,-174,-129
-86,-132,-46,110,-20,-89,4,-301,-171,-191,-174,-135
-98,-138,-40,116,-32,-89,22,-283,-159,-191,-168,-141
-98,-144,-46,122,-26,-95,28,-265,-153,-185,-168,-147
-104,-144,-40,122,-32,-95,40,-259,-147,-173,-168,-147
-104,-138,-34,116,-37,-89,52,-253,-141,-161,-162,-147
-104,-138,-34,116,-37,-89,70,-259,-129,-143,-162,-147
-104,-138,-34,116,-37,-89,82,-253,-129,-131,-162,-147
-110,-138,-28,122,-42,-83,106,-247,-129,-125,-156,-147
-110,-138,-28,122,-42,-83,118,-241,-123,-125,-156,-153
-110,-144,-34,128,-37,-89,130,-235,-123,-131,-162,-153
-110,-144,-34,128,-37,-89,136,-223,-123,-131,-162,-153
-110,-144,-34,128,-37,-89,136,-217,-117,-143,-162,-153
-110,-150,-40,128,-37,-95,136,-205,-111,-149,-162,-159
-116,-156,-40,134,-37,-101,136,-205,-117,-155,-168,-159
-122,-156,-34,140,-42,-95,142,-199,-123,-155,-162,-159
-128,-150,-22,134,-54,-89,154,-193,-117,-149,-162,-159
-128,-150,-22,134,-54,-89,166,-193,-117,-149,-162,-159
-128,-150,-22,134,-54,-89,178,-187,-123,-155,-162,-159
-128,-150,-22,134,-54,-89,190,-181,-129,-155,-168,-153
-134,-156,-22,146,-54,-89,190,-181,-129,-161,-168,-153
-140,-156,-16,146,-60,-89,190,-175,-129,-161,-168,-159
-140,-156,-16,146,-60,-89,196,-169,-129,-161,-168,-159
-146,-150,-4,146,-72,-77,202,-169,-123,-161,-174,-159
-146,-144,2,146,-72,-71,208,-175,-129,-161,-168,-159
-146,-150,-4,146,-72,-77,208,-181,-129,-155,-162,-159
-158,-156,2,158,-78,-77,220,-175,-123,-149,-162,-159
-164,-162,2,158,-84,-83,232,-175,-123,-149,-162,-165
-170,-156,14,164,-90,-71,244,-175,-123,-155,-162,-165
-176,-150,26,158,-102,-65,250,-169,-129,-161,-168,-165
-176,-144,32,158,-102,-59,256,-169,-123,-167,-168,-171
-182,-150,32,164,-108,-59,262,-163,-123,-173,-174,-171
-188,-150,38,164,-114,-59,268,-157,-117,-167,-174,-171
-194,-144,50,170,-120,-47,274,-151,-105,-167,-168,-171
-200,-144,56,170,-126,-47,286,-145,-105,-173,-168,-171
-212,-156,56,182,-132,-53,298,-139,-93,-173,-168,-171
-212,-150,62,176,-138,-47,304,-127,-87,-167,-174,-165
-212,-150,62,176,-138,-47,310,-121,-75,-161,-174,-165
-218,-144,73,182,-144,-35,322,-115,-69,-155,-174,-159
-218,-138,78,176,-150,-29,328,-109,-63,-143,-174,-159
-218,-132,84,176,-150,-23,340,-103,-58,-131,-168,-159
-224,-132,90,176,-156,-23,352,-97,-53,-125,-168,-159
-236,-126,108,176,-174,-11,364,-91,-53,-119,-162,-159
-248,-120,126,182,-186,1,376,-79,-47,-113,-156,-159
-260,-114,144,182,-204,13,382,-73,-29,-107,-150,-159
-266,-114,150,188,-210,19,394,-67,-17,-95,-144,-159
-266,-114,150,188,-210,19,412,-49,-5,-89,-138,-153
-266,-114,150,188,-210,19,424,-43,7,-89,-138,-153
-266,-114,150,188,-210,19,436,-38,13,-89,-138,-153
-272,-114,156,188,-216,19,448,-27,19,-89,-138,-153
-272,-102,168,182,-222,31,466,-9,19,-77,-132,-147
-272,-84,186,176,-228,49,478,3,43,-59,-120,-135
-272,-78,192,170,-234,55,478,15,49,-48,-114,-129
-260,-66,192,158,-228,61,490,33,61,-37,-114,-129
-260,-54,204,152,-234,72,502,57,73,-37,-108,-117
-254,-42,210,146,-234,83,508,75,85,-37,-102,-111
-260,-36,222,146,-240,89,514,93,91,-37,-90,-105
-260,-30,228,140,-246,95,526,111,103,-31,-84,-105
-260,-30,228,140,-246,95,550,129,115,-25,-78,-99
-260,-18,240,134,-252,107,568,141,115,-19,-66,-99
-254,-6,246,128,-252,119,574,159,127,-13,-54,-93
-254,0,252,128,-252,125,580,171,139,-13,-54,-93
-248,6,252,116,-252,125,586,183,151,-13,-54,-93
-236,18,252,104,-246,131,592,201,163,-7,-48,-87
-224,24,246,98,-234,131,598,219,175,5,-48,-87
-218,30,246,92,-234,137,598,243,187,11,-42,-81
-206,36,240,86,-222,137,604,267,199,23,-36,-75
-200,48,246,74,-222,143,610,291,205,29,-30,-75
-194,54,246,68,-222,149,610,315,223,41,-30,-69
-200,54,252,68,-228,149,610,327,235,47,-30,-69
-200,60,258,68,-228,155,604,333,241,53,-24,-63
-200,60,258,68,-228,155,598,345,253,53,-18,-57
-200,66,264,62,-234,161,592,357,265,59,-13,-51
-188,71,258,56,-222,161,586,369,271,65,-8,-45
-176,76,252,50,-210,161,580,381,277,71,-2,-39
-170,82,252,44,-210,167,574,387,277,77,4,-39
-158,82,240,38,-198,161,562,393,277,83,4,-39
-152,82,234,32,-192,155,550,393,283,89,10,-33
-146,82,228,32,-186,155,538,393,289,101,16,-33
-146,82,228,32,-186,155,526,393,283,101,16,-39
-152,82,234,32,-192,155,508,393,283,107,16,-33
-152,82,234,32,-192,155,496,387,277,113,22,-33
-146,82,228,32,-186,155,490,387,271,107,16,-33
-140,76,216,32,-174,143,478,381,265,101,10,-33
-134,76,210,32,-168,143,472,375,259,95,10,-39
-128,76,204,26,-162,137,460,363,259,95,10,-33
-128,76,204,26,-162,137,442,357,253,95,16,-33
-116,76,192,20,-150,131,418,345,241,95,16,-33
-116,76,192,20,-150,131,406,333,229,95,22,-27
-110,71,180,20,-144,125,388,321,223,95,22,-27
-116,71,186,20,-150,125,376,309,211,89,22,-27
-116,66,180,20,-150,119,358,297,187,71,16,-27
-116,54,168,26,-144,107,334,279,175,59,10,-33
-116,48,162,32,-138,101,316,261,157,59,10,-33
-116,48,162,32,-138,101,298,249,151,59,16,-27
-110,48,156,32,-132,101,286,231,145,71,16,-27
-116,36,150,38,-132,89,274,213,133,59,10,-33
-116,30,144,38,-132,83,256,189,115,47,-2,-39
-116,18,132,44,-126,72,244,165,97,35,-2,-39
-116,12,126,50,-120,67,232,153,79,29,-8,-39
-122,6,126,56,-126,67,214,135,67,23,-8,-39
-110,6,114,50,-114,61,196,123,49,17,-8,-39
-104,0,102,50,-102,49,178,111,37,11,-8,-39
-98,-6,90,50,-96,43,160,93,25,11,-8,-39
-104,-18,84,56,-96,31,148,75,13,11,-13,-39
-104,-24,78,62,-90,25,130,51,1,11,-13,-45
-98,-24,73,62,-84,25,118,27,-17,-1,-24,-45
-86,-24,62,56,-72,19,106,9,-29,-1,-24,-45
-68,-30,38,44,-54,1,100,-3,-41,-13,-24,-51
-62,-30,32,44,-48,1,94,-21,-53,-19,-30,-57
-68,-42,26,50,-48,-11,82,-38,-63,-25,-42,-63
-74,-54,20,62,-48,-17,70,-38,-75,-25,-48,-69
-80,-72,8,74,-42,-35,64,-49,-81,-19,-48,-75
-86,-78,8,80,-48,-35,58,-55,-93,-19,-54,-75
-80,-84,-4,80,-37,-47,52,-67,-105,-25,-60,-75
-68,-84,-16,74,-26,-53,46,-73,-111,-37,-66,-75
-62,-78,-16,68,-26,-47,34,-79,-117,-43,-72,-75
-56,-78,-22,62,-20,-53,28,-79,-123,-48,-66,-69
-56,-78,-22,62,-20,-53,28,-91,-123,-48,-60,-69
-50,-72,-22,62,-14,-47,28,-103,-129,-53,-60,-69
-56,-78,-22,62,-20,-53,22,-103,-129,-59,-60,-69
-56,-84,-28,68,-14,-59,16,-109,-141,-77,-66,-69
-62,-84,-22,74,-20,-53,16,-109,-147,-89,-66,-75
-50,-84,-34,68,-8,-59,22,-109,-153,-95,-72,-75
-44,-78,-34,56,-8,-59,16,-109,-153,-95,-72,-75
-38,-78,-40,56,-2,-59,16,-109,-141,-89,-66,-75
-32,-78,-46,50,4,-65,16,-109,-141,-83,-66,-75
-32,-84,-52,56,10,-71,16,-109,-141,-83,-72,-81
-38,-84,-46,62,4,-65,16,-115,-141,-89,-78,-81
-38,-84,-46,62,4,-65,22,-115,-135,-77,-72,-81
-38,-78,-40,56,-2,-59,22,-115,-129,-71,-72,-75
-32,-72,-40,50,4,-59,22,-109,-129,-71,-66,-75
-26,-72,-46,50,10,-59,28,-109,-129,-77,-72,-75
-26,-72,-46,50,10,-59,28,-109,-135,-95,-78,-81
-26,-72,-46,50,10,-59,22,-109,-141,-95,-78,-81
-32,-72,-40,50,4,-59,16,-115,-135,-89,-72,-81
-26,-72,-46,50,10,-59,10,-121,-141,-89,-72,-81
-14,-66,-52,38,16,-59,10,-127,-141,-89,-66,-81
-20,-66,-46,38,10,-59,10,-121,-135,-89,-66,-81
-38,-72,-34,56,-2,-53,10,-121,-135,-89,-60,-75
-44,-78,-34,56,-8,-59,16,-121,-135,-89,-60,-75
-44,-78,-34,56,-8,-59,16,-115,-135,-89,-66,-81
-38,-78,-40,56,-2,-59,22,-115,-129,-95,-66,-81
-38,-78,-40,56,-2,-59,28,-115,-135,-101,-72,-87
-38,-78,-40,56,-2,-59,28,-109,-135,-101,-72,-87
-32,-72,-40,50,4,-59,22,-109,-129,-95,-72,-81
-32,-66,-34,44,-2,-53,22,-109,-129,-89,-60,-75
-26,-60,-34,44,4,-47,28,-103,-117,-83,-54,-69
-20,-54,-34,32,4,-47,28,-103,-117,-83,-54,-69
-14,-48,-34,32,10,-41,34,-103,-123,-89,-60,-63
-14,-48,-34,32,10,-41,40,-97,-117,-89,-54,-63
-14,-48,-34,32,10,-41,34,-97,-111,-77,-48,-63
-8,-48,-40,26,16,-47,34,-97,-105,-77,-48,-63
-8,-48,-40,26,16,-47,34,-91,-99,-71,-48,-63
-14,-48,-34,32,10,-41,34,-85,-93,-59,-42,-63
-20,-42,-22,26,-2,-35,34,-85,-93,-59,-42,-63
-14,-36,-22,26,4,-29,34,-85,-87,-53,-42,-57
-14,-30,-16,20,-2,-23,40,-85,-87,-53,-42,-57
-14,-30,-16,20,-2,-23,40,-85,-87,-53,-48,-51
-14,-36,-22,26,4,-29,46,-91,-87,-48,-42,-51
-14,-36,-22,26,4,-29,52,-91,-81,-48,-42,-57
-20,-42,-22,26,-2,-35,52,-85,-87,-53,-42,-63
-32,-42,-10,32,-14,-29,52,-91,-87,-59,-48,-63
-32,-42,-10,32,-14,-29,52,-85,-87,-65,-48,-63
-26,-42,-16,32,-8,-29,52,-85,-81,-59,-48,-63
-20,-36,-16,26,-2,-29,46,-79,-81,-53,-48,-63
-20,-36,-16,26,-2,-29,46,-79,-81,-48,-48,-63
-20,-36,-16,26,-2,-29,46,-79,-87,-48,-48,-63
-20,-36,-16,26,-2,-29,46,-79,-87,-48,-42,-69
-32,-36,-4,32,-14,-23,40,-73,-87,-48,-42,-63
-38,-42,-4,38,-20,-23,40,-73,-93,-48,-42,-63
-38,-48,-10,44,-14,-29,40,-73,-87,-53,-42,-63
-44,-48,-4,44,-20,-29,40,-73,-87,-53,-42,-63
-50,-54,-4,50,-26,-29,46,-73,-87,-53,-42,-63
-50,-60,-10,56,-20,-35,40,-79,-87,-53,-48,-63
-56,-66,-10,56,-26,-41,34,-79,-93,-59,-60,-69
-56,-78,-22,62,-20,-53,34,-85,-99,-65,-72,-75
-62,-78,-16,68,-26,-47,40,-85,-99,-65,-78,-69
-62,-84,-22,74,-20,-53,34,-85,-87,-59,-78,-69
-62,-78,-16,68,-26,-47,34,-85,-87,-59,-78,-63
-62,-78,-16,68,-26,-47,34,-85,-87,-53,-72,-63
-62,-78,-16,68,-26,-47,34,-79,-87,-59,-66,-63
-68,-78,-10,68,-32,-47,34,-79,-87,-65,-66,-63
-62,-78,-16,68,-26,-47,46,-79,-87,-65,-66,-63
-62,-72,-10,68,-26,-41,46,-73,-87,-59,-66,-63
-62,-66,-4,62,-32,-35,46,-73,-81,-59,-66,-63
-56,-66,-10,56,-26,-41,40,-73,-87,-65,-66,-63
-62,-72,-10,68,-26,-41,40,-73,-87,-59,-66,-69
-62,-72,-10,68,-26,-41,40,-73,-87,-59,-60,-69
-68,-78,-10,68,-32,-47,40,-85,-93,-71,-66,-69
-62,-78,-16,68,-26,-47,34,-85,-99,-77,-66,-69
-68,-78,-10,68,-32,-47,34,-91,-105,-83,-72,-75
-68,-84,-16,74,-26,-53,28,-91,-99,-89,-72,-75
-68,-84,-16,74,-26,-53,34,-85,-99,-101,-78,-69
-62,-84,-22,74,-20,-53,28,-85,-99,-107,-78,-69
-62,-84,-22,74,-20,-53,28,-85,-105,-107,-78,-69
-68,-84,-16,74,-26,-53,28,-85,-105,-113,-78,-69
-80,-84,-4,80,-37,-47,28,-85,-111,-125,-78,-69
-74,-84,-10,80,-32,-47,28,-91,-117,-131,-72,-69
-74,-78,-4,74,-37,-41,40,-91,-111,-131,-78,-75
-62,-78,-16,68,-26,-47,40,-91,-111,-131,-78,-69
-56,-78,-22,62,-20,-53,40,-91,-111,-125,-72,-63
-50,-78,-28,62,-14,-53,40,-91,-111,-119,-72,-63
-50,-78,-28,62,-14,-53,40,-91,-111,-113,-66,-69
-44,-72,-28,56,-8,-53,40,-91,-111,-113,-66,-69
-44,-72,-28,56,-8,-53,40,-97,-111,-119,-72,-63
-56,-66,-10,56,-26,-41,40,-97,-111,-119,-66,-63
-56,-60,-4,56,-26,-35,46,-85,-105,-119,-66,-57
-62,-60,2,62,-32,-29,46,-85,-105,-119,-66,-51
-62,-54,8,56,-37,-23,52,-79,-105,-119,-66,-51
-50,-48,2,50,-26,-23,58,-79,-99,-119,-60,-45
-38,-36,2,38,-20,-17,64,-79,-93,-113,-60,-45
-38,-36,2,38,-20,-17,70,-79,-87,-101,-54,-39
-44,-36,8,38,-26,-17,76,-73,-81,-89,-48,-33
-44,-24,20,32,-32,-5,70,-73,-75,-89,-48,-33
-50,-18,32,32,-42,7,70,-73,-81,-89,-42,-33
-50,-12,38,32,-42,13,76,-73,-81,-83,-30,-27
-44,-6,38,20,-42,13,70,-67,-75,-77,-24,-22
-44,0,44,20,-42,19,70,-67,-69,-59,-18,-17
-38,0,38,20,-37,19,64,-67,-69,-59,-18,-22
-38,0,38,20,-37,19,64,-67,-75,-59,-18,-27
-44,-6,38,20,-42,13,64,-67,-75,-65,-24,-27
-44,-12,32,26,-37,7,64,-61,-75,-77,-30,-27
-38,-6,32,20,-37,13,64,-61,-63,-77,-30,-27
-38,0,38,20,-37,19,64,-61,-63,-77,-30,-27
-38,0,38,20,-37,19,70,-61,-58,-77,-30,-27
-38,0,38,20,-37,19,70,-67,-58,-77,-30,-27
-38,0,38,20,-37,19,64,-73,-58,-71,-30,-22
-32,6,38,8,-37,19,52,-67,-63,-71,-24,-22
-26,12,38,8,-32,25,46,-67,-69,-71,-24,-17
-26,12,38,8,-32,25,40,-73,-75,-65,-24,-17
-20,18,38,-4,-32,25,34,-79,-81,-59,-24,-11
-14,24,38,-4,-26,31,28,-85,-69,-53,-13,-5
-3,30,32,-16,-20,31,22,-85,-63,-48,-13,7
-3,30,32,-16,-20,31,16,-91,-63,-48,-8,7
2,30,26,-16,-14,31,16,-91,-58,-43,-8,13
2,36,32,-16,-14,37,16,-91,-58,-43,-8,13
-3,42,44,-22,-26,43,16,-91,-58,-37,-8,13
-3,48,50,-22,-26,49,4,-91,-58,-31,-2,19
2,48,44,-22,-20,49,-8,-91,-63,-31,-2,19
8,48,38,-28,-14,43,-14,-97,-69,-43,-13,13
2,42,38,-22,-20,43,-20,-103,-81,-53,-18,7
2,42,38,-22,-20,43,-26,-109,-81,-65,-24,7
2,42,38,-22,-20,43,-20,-109,-87,-65,-24,1
8,42,32,-28,-14,37,-20,-109,-81,-65,-30,1
8,30,20,-22,-8,25,-20,-121,-93,-65,-36,1
8,30,20,-22,-8,25,-20,-127,-93,-65,-36,-5
14,24,8,-16,4,19,-20,-127,-93,-59,-30,-5
8,18,8,-16,-2,13,-26,-127,-99,-65,-36,-5
2,12,8,-4,-2,13,-20,-121,-105,-77,-36,-11
2,6,2,-4,-2,7,-20,-121,-111,-83,-42,-17
-3,0,2,2,-2,1,-8,-121,-111,-83,-42,-17
-8,-6,2,2,-8,-5,-8,-127,-105,-83,-48,-22
-8,-18,-10,8,-2,-17,-8,-127,-105,-83,-60,-22
-20,-36,-16,26,-2,-29,-2,-127,-99,-83,-60,-27
-26,-42,-16,32,-8,-29,-2,-127,-105,-95,-66,-33
-26,-42,-16,32,-8,-29,4,-127,-99,-101,-72,-33
-26,-42,-16,32,-8,-29,10,-127,-105,-107,-72,-39
-26,-48,-22,38,-2,-35,4,-127,-105,-113,-78,-45
-26,-60,-34,44,4,-47,4,-127,-111,-119,-84,-51
-32,-66,-34,44,-2,-53,10,-121,-105,-119,-84,-57
-26,-72,-46,50,10,-59,4,-127,-105,-113,-84,-57
-26,-78,-52,50,10,-65,4,-127,-111,-107,-84,-63
-32,-78,-46,50,4,-65,10,-121,-117,-101,-72,-57
-38,-78,-40,56,-2,-59,16,-121,-105,-95,-72,-57
-38,-78,-40,56,-2,-59,22,-115,-99,-89,-66,-57
-44,-78,-34,56,-8,-59,22,-109,-93,-83,-60,-51
-38,-78,-40,56,-2,-59,22,-97,-93,-83,-60,-51
-32,-84,-52,56,10,-71,28,-91,-87,-89,-66,-51
-32,-90,-58,56,10,-77,40,-85,-87,-101,-72,-51
-26,-90,-64,56,16,-77,46,-73,-81,-101,-72,-51
-20,-90,-70,50,22,-83,52,-67,-81,-101,-78,-51
-26,-96,-70,62,22,-83,52,-55,-75,-101,-84,-51
-20,-96,-76,56,28,-89,58,-49,-69,-101,-84,-51
-14,-96,-82,56,34,-89,70,-43,-69,-101,-90,-51
-14,-102,-88,56,34,-95,70,-43,-69,-95,-90,-57
-8,-96,-88,50,40,-95,70,-38,-63,-83,-78,-57
-3,-90,-88,44,40,-89,70,-27,-53,-65,-66,-57
-3,-90,-88,44,40,-89,76,-21,-41,-65,-66,-57
2,-84,-88,44,46,-83,76,-9,-35,-65,-72,-51
2,-72,-76,38,40,-71,70,3,-29,-59,-66,-51
2,-66,-70,32,34,-65,76,27,-11,-48,-66,-45
2,-72,-76,38,40,-71,82,51,7,-48,-60,-39
14,-66,-82,26,46,-71,94,75,25,-37,-54,-33
38,-60,-100,14,70,-77,100,99,43,-31,-42,-22
50,-54,-106,2,76,-77,88,123,61,-19,-30,-22
68,-48,-118,-10,94,-83,70,147,91,-1,-24,-22
80,-36,-118,-22,100,-77,46,177,121,23,-13,-22
92,-18,-112,-38,100,-65,16,207,145,47,4,-11
104,-6,-112,-50,106,-59,-20,237,163,71,16,1
122,6,-118,-62,118,-53,-43,267,187,89,28,13
140,18,-124,-80,130,-53,-78,297,199,107,46,25
152,24,-130,-86,142,-53,-102,327,217,119,52,31
170,36,-136,-98,154,-47,-144,351,235,131,64,37
194,48,-148,-116,172,-47,-192,369,259,149,76,49
212,60,-154,-134,184,-47,-240,381,277,179,94,55
230,66,-166,-146,196,-47,-288,393,295,191,106,67
254,71,-184,-158,220,-53,-336,411,307,209,118,79
272,66,-208,-170,238,-71,-390,417,307,215,118,85
290,60,-232,-170,262,-83,-432,435,313,227,124,91
302,60,-244,-176,274,-89,-474,459,325,239,130,103
326,60,-268,-188,298,-101,-516,483,343,257,136,109
338,60,-280,-194,310,-107,-552,507,361,281,154,115
356,60,-298,-206,328,-119,-570,525,385,299,166,115
374,48,-328,-206,352,-137,-588,537,391,311,166,109
398,36,-364,-212,382,-161,-594,561,421,335,184,109
422,36,-388,-224,406,-173,-600,597,469,383,208,115
452,54,-400,-254,424,-173,-612,639,547,455,250,145
500,82,-418,-290,460,-167,-654,669,643,557,322,187
566,124,-442,-338,508,-155,-714,681,727,665,406,247
638,166,-472,-398,556,-149,-798,675,799,773,502,319
728,214,-514,-470,622,-149,-906,645,847,869,598,391
836,268,-568,-548,706,-149,-1020,609,889,959,694,481
944,340,-604,-638,778,-131,-1146,573,925,1061,808,577
1052,430,-622,-740,838,-95,-1272,531,961,1157,922,679
1148,526,-622,-836,886,-47,-1392,489,991,1241,1030,781
1226,616,-610,-914,922,7,-1500,435,997,1289,1102,859
1268,682,-586,-974,928,49,-1584,339,955,1289,1138,913
1280,742,-538,-1010,910,101,-1650,183,835,1235,1138,949
1256,760,-496,-1004,880,131,-1686,-49,619,1103,1096,961
1202,778,-424,-986,814,179,-1686,-331,325,923,1024,961
1112,790,-322,-950,718,233,-1656,-625,19,743,964,967
992,772,-220,-878,610,275,-1602,-919,-291,557,886,949
860,694,-166,-776,514,263,-1518,-1147,-585,317,730,865
728,568,-160,-644,448,203,-1398,-1273,-819,29,502,715
584,448,-136,-512,364,155,-1254,-1315,-975,-221,274,559
458,358,-100,-404,280,131,-1110,-1291,-1047,-383,106,427
344,286,-58,-314,202,113,-960,-1225,-1041,-449,-8,319
254,220,-34,-230,148,95,-816,-1129,-963,-467,-78,223
188,166,-22,-176,106,72,-678,-1015,-873,-449,-120,157
140,124,-16,-128,82,55,-552,-883,-777,-425,-126,109
104,94,-10,-98,58,43,-438,-757,-681,-395,-138,79
80,71,-10,-74,46,31,-342,-631,-591,-383,-144,55
56,60,2,-56,28,31,-270,-517,-513,-365,-150,37
38,48,8,-38,16,31,-198,-421,-447,-347,-150,19
26,42,14,-33,4,31,-132,-349,-399,-323,-150,1
14,30,14,-22,-2,25,-84,-301,-351,-299,-150,-17
-8,18,26,-10,-20,19,-38,-265,-303,-263,-138,-27
-26,-6,20,14,-26,7,-2,-241,-255,-221,-132,-33
-38,-24,14,32,-26,-5,34,-211,-213,-197,-132,-51
-50,-48,2,50,-26,-23,64,-187,-189,-173,-132,-63
-56,-60,-4,56,-26,-35,94,-151,-165,-161,-132,-75
-56,-72,-16,62,-20,-47,124,-115,-147,-149,-132,-81
-56,-78,-22,62,-20,-53,142,-91,-141,-149,-132,-81
-68,-90,-22,74,-26,-59,154,-73,-141,-149,-132,-93
-74,-90,-16,80,-32,-53,160,-67,-135,-137,-132,-99
-74,-90,-16,80,-32,-53,172,-61,-129,-131,-132,-105
-80,-96,-16,86,-32,-59,178,-67,-129,-125,-138,-105
-86,-96,-10,92,-37,-53,190,-79,-129,-119,-132,-111
-80,-96,-16,86,-32,-59,208,-79,-123,-107,-126,-105
-80,-90,-10,80,-37,-53,220,-67,-111,-101,-120,-105
-80,-96,-16,86,-32,-59,226,-61,-111,-107,-126,-105
-80,-102,-22,86,-32,-65,238,-55,-117,-125,-138,-111
-86,-102,-16,92,-37,-59,250,-43,-123,-131,-138,-111
-80,-108,-28,92,-26,-71,250,-38,-123,-137,-144,-111
-80,-102,-22,86,-32,-65,256,-33,-117,-131,-138,-111
-92,-102,-10,92,-42,-59,262,-33,-123,-131,-138,-111
-92,-102,-10,92,-42,-59,262,-33,-135,-131,-138,-117
-92,-102,-10,92,-42,-59,262,-33,-141,-137,-138,-111
-98,-96,2,98,-48,-47,268,-27,-153,-137,-138,-111
-98,-96,2,98,-48,-47,274,-27,-153,-143,-138,-111
-98,-102,-4,98,-48,-53,274,-27,-159,-155,-150,-117
-98,-96,2,98,-48,-47,280,-21,-159,-155,-150,-117
-104,-96,8,98,-54,-47,280,-21,-159,-155,-150,-117
-104,-96,8,98,-54,-47,286,-21,-153,-155,-144,-117
-104,-96,8,98,-54,-47,292,-21,-159,-155,-144,-123
-116,-102,14,104,-66,-47,298,-15,-159,-155,-138,-117
-122,-102,20,110,-72,-41,304,-15,-165,-155,-138,-117
-128,-102,26,110,-78,-41,310,-15,-165,-155,-138,-117
-128,-102,26,110,-78,-41,322,-15,-159,-149,-138,-117
-134,-102,32,116,-84,-35,334,-15,-159,-149,-138,-117
-134,-102,32,116,-84,-35,340,-15,-159,-149,-138,-117
-134,-102,32,116,-84,-35,346,-9,-153,-155,-144,-117
-134,-102,32,116,-84,-35,358,-3,-147,-149,-150,-117
-128,-90,38,104,-84,-29,364,-3,-135,-143,-150,-117
-128,-84,44,104,-84,-23,364,9,-129,-137,-150,-111
-134,-78,56,104,-96,-11,370,15,-129,-137,-150,-111
-146,-72,73,110,-108,1,382,15,-123,-131,-144,-111
-146,-66,78,104,-114,7,394,15,-111,-113,-138,-111
-152,-66,84,104,-120,7,400,21,-99,-101,-138,-117
-158,-66,90,110,-126,13,406,33,-93,-95,-138,-117
-164,-66,96,110,-132,13,418,39,-93,-95,-138,-117
-170,-72,96,122,-132,13,424,45,-93,-89,-132,-117
-176,-66,108,116,-144,19,436,51,-87,-83,-132,-111
-182,-66,114,122,-150,25,442,63,-75,-77,-126,-111
-194,-60,132,128,-162,37,454,69,-69,-71,-126,-117
-200,-54,144,122,-174,43,460,75,-69,-71,-120,-111
-200,-54,144,122,-174,43,472,81,-69,-65,-114,-111
-206,-48,156,128,-180,55,484,93,-63,-65,-114,-111
-206,-42,162,122,-186,61,502,105,-53,-65,-114,-105
-212,-42,168,122,-192,61,514,117,-47,-65,-114,-105
-218,-42,174,128,-198,67,526,129,-47,-59,-114,-99
-218,-30,186,122,-204,77,544,135,-41,-48,-108,-93
-218,-24,192,122,-204,83,544,153,-29,-43,-102,-93
-218,-12,204,116,-210,95,550,171,-17,-43,-102,-93
-224,-6,216,110,-222,101,568,189,-5,-37,-96,-87
-218,6,222,104,-222,113,580,207,7,-31,-84,-75
-206,24,228,92,-216,125,586,225,13,-25,-78,-69
-194,36,228,80,-210,131,598,243,25,-13,-72,-63
-182,42,222,68,-204,131,604,255,31,-1,-60,-63
-188,48,234,68,-210,137,616,273,43,11,-54,-57
-188,54,240,62,-216,143,622,279,55,23,-48,-51
-176,66,240,50,-210,149,622,303,67,23,-48,-57
-170,71,240,50,-204,155,622,321,79,23,-42,-57
-164,76,240,44,-198,155,622,345,97,35,-30,-51
-158,82,240,38,-198,161,628,363,103,41,-30,-51
-152,88,240,32,-192,161,634,387,109,41,-30,-45
-146,94,240,26,-192,167,640,405,115,53,-30,-39
-146,100,246,26,-192,173,640,423,127,65,-24,-33
-146,106,252,20,-198,179,646,441,145,77,-18,-33
-146,112,258,20,-198,185,652,453,157,89,-18,-27
-146,118,264,14,-204,191,652,459,169,89,-18,-27
-140,118,258,8,-198,185,646,471,175,89,-13,-33
-128,130,258,-4,-192,191,640,477,181,95,-8,-33
-110,142,252,-16,-180,197,628,489,193,101,-2,-27
-104,148,252,-22,-174,197,622,495,193,113,10,-22
-98,148,246,-22,-168,197,610,501,193,113,16,-22
-92,154,246,-33,-168,197,604,507,193,125,16,-11
-92,154,246,-33,-168,197,592,513,193,125,16,-5
-92,148,240,-28,-162,191,580,513,193,131,16,1
-86,154,240,-33,-162,197,574,519,199,131,22,7
-74,154,228,-38,-150,191,562,519,199,137,22,13
-74,154,228,-38,-150,191,556,519,193,137,28,13
-68,154,222,-44,-144,185,544,507,187,131,28,13
-62,154,216,-44,-138,185,520,495,181,131,22,7
-56,154,210,-50,-132,179,502,489,187,137,28,13
-50,160,210,-50,-126,185,484,477,175,149,40,13
-50,160,210,-50,-126,185,466,459,163,161,40,19
-44,160,204,-56,-120,179,448,447,151,155,40,19
-44,154,198,-56,-120,173,430,429,133,149,34,13
-44,154,198,-56,-120,173,418,417,121,137,34,19
-44,154,198,-56,-120,173,406,405,109,143,40,25
-38,142,180,-50,-108,161,394,399,97,131,40,25
-32,136,168,-50,-96,149,376,387,85,119,34,19
-32,118,150,-44,-90,131,364,375,67,107,28,19
-44,112,156,-33,-96,131,346,351,55,101,34,19
-50,100,150,-22,-96,125,328,327,49,101,28,19
-50,94,144,-22,-96,119,310,309,37,101,22,19
-38,88,126,-22,-78,107,286,291,19,95,16,19
-38,82,120,-22,-78,101,262,273,1,83,10,13
-38,71,108,-16,-72,89,250,255,-17,77,10,13
-38,66,102,-16,-72,83,232,237,-35,71,-2,7
-38,60,96,-10,-66,77,214,219,-53,71,-2,7
-38,48,84,-4,-60,67,196,207,-58,71,-13,1
-32,42,73,-10,-54,55,184,183,-75,65,-8,1
-32,36,68,-4,-48,49,172,165,-81,65,-8,1
-26,36,62,-4,-42,49,160,147,-87,65,-8,1
-26,30,56,-4,-42,43,142,129,-93,65,-8,-5
-20,30,50,-10,-37,37,136,111,-111,53,-8,1
-20,36,56,-10,-37,43,130,105,-129,47,-13,-5
-14,36,50,-10,-32,43,118,87,-141,41,-13,-5
-8,30,38,-16,-26,31,106,75,-153,35,-18,-11
-3,24,26,-10,-14,25,106,63,-165,29,-24,-11
8,24,14,-16,-2,19,100,51,-171,29,-30,-11
14,24,8,-16,4,19,88,39,-183,23,-30,-5
20,24,2,-22,10,13,76,33,-195,23,-30,-11
32,24,-10,-28,22,7,70,27,-195,23,-30,-11
38,18,-22,-28,28,1,64,15,-195,23,-30,-11
44,12,-34,-28,40,-11,64,9,-207,11,-36,-17
44,12,-34,-28,40,-11,64,3,-219,11,-36,-22
56,12,-46,-33,52,-17,58,3,-225,11,-36,-22
56,12,-46,-33,52,-17,58,-3,-225,17,-30,-22
56,18,-40,-38,46,-11,58,-3,-225,11,-30,-17
62,18,-46,-38,52,-11,52,-3,-225,5,-36,-17
68,12,-58,-38,64,-23,46,-3,-231,-7,-36,-17
68,12,-58,-38,64,-23,46,-3,-231,-13,-36,-22
68,18,-52,-44,58,-17,46,-9,-243,-31,-42,-22
80,18,-64,-50,70,-23,52,-15,-249,-37,-42,-17
92,24,-70,-56,82,-23,52,-21,-249,-43,-42,-17
92,30,-64,-62,76,-17,52,-21,-255,-43,-42,-22
92,24,-70,-56,82,-23,58,-27,-255,-37,-42,-22
92,18,-76,-56,82,-29,58,-27,-255,-31,-48,-22
92,18,-76,-56,82,-29,58,-33,-261,-37,-48,-22
92,18,-76,-56,82,-29,58,-33,-261,-37,-48,-22
92,24,-70,-56,82,-23,52,-33,-255,-37,-42,-22
86,24,-64,-50,76,-17,52,-33,-249,-37,-42,-22
80,24,-58,-50,70,-17,52,-38,-249,-37,-36,-22
86,24,-64,-50,76,-17,52,-33,-249,-43,-36,-22
92,30,-64,-62,76,-17,52,-33,-249,-43,-36,-22
92,30,-64,-62,76,-17,58,-27,-249,-37,-36,-22
92,30,-64,-62,76,-17,58,-21,-243,-37,-36,-22
98,36,-64,-62,82,-11,58,-27,-243,-37,-36,-22
92,42,-52,-68,70,-5,64,-27,-243,-37,-36,-17
86,42,-46,-62,64,1,64,-21,-237,-37,-30,-17
92,48,-46,-68,70,1,64,-21,-237,-37,-30,-17
98,48,-52,-68,76,1,58,-27,-243,-31,-24,-17
104,48,-58,-74,82,-5,58,-21,-237,-31,-24,-17
110,48,-64,-74,88,-5,58,-21,-231,-25,-18,-17
110,54,-58,-80,82,1,64,-15,-225,-19,-24,-11
104,54,-52,-80,76,1,64,-9,-225,-19,-24,-5
98,54,-46,-74,70,7,70,-9,-225,-25,-24,-11
98,48,-52,-68,76,1,70,-9,-231,-25,-30,-11
92,48,-46,-68,70,1,70,-9,-231,-25,-24,-22
98,48,-52,-68,76,1,70,-3,-231,-19,-24,-22
98,54,-46,-74,70,7,70,-3,-225,-19,-18,-17
98,54,-46,-74,70,7,70,-9,-219,-13,-18,-17
86,48,-40,-62,64,7,70,-15,-225,-7,-18,-17
74,48,-28,-56,52,13,70,-15,-219,-13,-18,-17
74,42,-34,-56,52,7,64,-15,-219,-19,-24,-17
74,36,-40,-50,58,1,64,-15,-225,-19,-30,-17
68,36,-34,-50,52,1,70,-15,-219,-7,-30,-11
68,30,-40,-50,52,-5,70,-15,-219,-1,-30,-17
68,36,-34,-50,52,1,76,-3,-219,11,-30,-17
62,36,-28,-44,46,7,70,-3,-213,17,-30,-11
50,30,-22,-38,34,7,58,-3,-219,17,-30,-17
44,18,-28,-33,34,-5,46,-3,-225,5,-36,-22
44,18,-28,-33,34,-5,40,-9,-225,-1,-36,-22
56,18,-40,-38,46,-11,40,-15,-231,-13,-42,-27
56,18,-40,-38,46,-11,46,-21,-237,-19,-48,-27
50,6,-46,-28,46,-17,52,-21,-231,-13,-42,-22
50,6,-46,-28,46,-17,58,-21,-225,-7,-36,-22
44,6,-40,-28,40,-17,58,-21,-225,5,-36,-22
38,0,-40,-16,40,-17,52,-21,-225,5,-36,-22
38,-6,-46,-16,40,-23,52,-21,-231,-1,-42,-27
32,-6,-40,-16,34,-23,46,-27,-231,-7,-42,-33
20,-12,-34,-4,28,-23,46,-38,-237,-7,-42,-39
8,-12,-22,2,16,-17,46,-38,-243,-7,-48,-39
8,-18,-28,2,16,-23,52,-33,-243,-13,-48,-39
2,-18,-22,8,10,-17,52,-33,-237,-13,-54,-39
2,-24,-28,14,16,-23,52,-38,-237,-19,-54,-39
8,-30,-40,8,22,-35,52,-38,-243,-25,-60,-45
14,-30,-46,8,28,-35,46,-38,-243,-25,-60,-45
14,-30,-46,8,28,-35,46,-38,-243,-25,-54,-45
14,-30,-46,8,28,-35,46,-38,-237,-19,-54,-45
14,-30,-46,8,28,-35,40,-38,-243,-25,-54,-39
2,-30,-34,14,16,-29,40,-38,-243,-25,-60,-39
-3,-36,-34,20,16,-35,40,-33,-237,-25,-60,-39
-3,-30,-28,14,10,-29,34,-33,-243,-37,-66,-45
2,-30,-34,14,16,-29,34,-38,-249,-43,-66,-39
2,-24,-28,14,16,-23,40,-38,-249,-43,-54,-39
8,-24,-34,8,22,-29,34,-38,-243,-43,-48,-39
20,-18,-40,-4,28,-29,28,-38,-243,-43,-48,-39
20,-12,-34,-4,28,-23,28,-38,-249,-48,-48,-39
26,-18,-46,-4,34,-29,28,-43,-255,-48,-60,-45
26,-12,-40,-4,34,-23,34,-38,-255,-48,-60,-39
26,-6,-34,-10,28,-17,40,-38,-249,-48,-60,-39
26,-6,-34,-10,28,-17,46,-38,-249,-48,-60,-39
38,-6,-46,-16,40,-23,40,-38,-249,-53,-60,-39
44,-6,-52,-22,46,-29,40,-49,-249,-53,-60,-45
44,0,-46,-22,46,-23,40,-49,-249,-59,-66,-39
50,6,-46,-28,46,-17,40,-49,-255,-65,-66,-39
50,12,-40,-28,46,-11,34,-49,-255,-71,-66,-39
44,6,-40,-28,40,-17,34,-49,-261,-77,-66,-39
44,12,-34,-28,40,-11,40,-49,-261,-83,-66,-39
44,12,-34,-28,40,-11,34,-49,-255,-83,-60,-39
50,12,-40,-28,46,-11,34,-49,-255,-83,-60,-39
56,18,-40,-38,46,-11,34,-43,-261,-83,-60,-39
56,24,-34,-38,46,-5,40,-49,-261,-83,-54,-33
62,30,-34,-44,46,1,40,-49,-255,-77,-54,-33
68,42,-28,-56,46,7,46,-43,-249,-77,-48,-27
74,48,-28,-56,52,13,52,-43,-243,-71,-42,-27
74,54,-22,-62,46,19,58,-43,-237,-65,-36,-27
74,54,-22,-62,46,19,64,-43,-231,-53,-30,-22
80,66,-16,-74,46,25,70,-43,-225,-48,-24,-22
86,71,-16,-74,52,31,70,-38,-225,-48,-18,-17
92,82,-10,-86,52,37,70,-38,-219,-43,-18,-11
86,82,-4,-80,46,43,70,-33,-213,-37,-18,-11
86,88,2,-80,46,49,70,-27,-207,-37,-18,-5
92,82,-10,-86,52,37,70,-27,-207,-48,-18,-11
92,82,-10,-86,52,37,64,-27,-207,-48,-18,-5
92,82,-10,-86,52,37,64,-27,-207,-48,-24,-5
92,76,-16,-80,58,31,64,-27,-207,-48,-18,-5
92,76,-16,-80,58,31,64,-27,-207,-53,-24,-5
86,76,-10,-74,52,37,70,-27,-213,-53,-24,-5
86,76,-10,-74,52,37,70,-33,-207,-48,-30,-5
86,82,-4,-80,46,43,70,-33,-207,-43,-30,1
74,88,14,-74,34,55,64,-38,-207,-37,-30,1
62,88,26,-68,22,61,58,-38,-207,-31,-30,1
62,88,26,-68,22,61,52,-43,-207,-31,-24,1
62,88,26,-68,22,61,40,-43,-207,-31,-18,1
62,94,32,-74,16,67,34,-49,-213,-25,-13,7
62,100,38,-74,16,72,22,-55,-213,-25,-13,7
62,100,38,-74,16,72,10,-61,-213,-25,-8,7
68,100,32,-80,22,67,4,-67,-213,-25,-8,7
74,106,32,-86,22,72,-8,-73,-213,-25,-2,1
74,100,26,-80,28,67,-14,-73,-207,-31,-8,1
74,100,26,-80,28,67,-14,-73,-207,-31,-13,7
80,100,20,-86,34,61,-20,-73,-213,-31,-13,7
86,106,20,-92,34,67,-26,-73,-213,-25,-8,13
86,94,8,-86,40,55,-26,-73,-213,-25,-13,13
80,94,14,-86,34,55,-32,-79,-219,-37,-13,13
86,88,2,-80,46,49,-38,-85,-225,-48,-18,13
86,82,-4,-80,46,43,-38,-91,-231,-53,-24,7
80,76,-4,-74,46,37,-38,-97,-231,-53,-24,7
80,76,-4,-74,46,37,-43,-97,-231,-53,-24,7
74,76,2,-68,40,43,-43,-109,-243,-59,-30,7
74,71,-4,-68,40,37,-48,-121,-255,-59,-36,1
68,71,2,-68,34,37,-48,-121,-267,-65,-36,1
68,60,-10,-62,40,25,-43,-127,-267,-71,-42,-5
68,54,-16,-62,40,19,-43,-133,-267,-71,-42,-11
56,48,-10,-50,34,19,-38,-133,-273,-77,-48,-17
38,36,-4,-33,22,19,-32,-127,-267,-83,-54,-22
38,30,-10,-33,22,13,-26,-127,-267,-89,-60,-22
38,18,-22,-28,28,1,-26,-127,-261,-95,-66,-27
38,18,-22,-28,28,1,-26,-127,-255,-95,-66,-27
38,18,-22,-28,28,1,-20,-127,-255,-95,-72,-27
38,12,-28,-22,34,-5,-8,-127,-255,-89,-72,-27
38,12,-28,-22,34,-5,-8,-127,-255,-89,-72,-27
38,6,-34,-22,34,-11,-2,-127,-261,-89,-72,-33
32,0,-34,-16,34,-17,-2,-121,-261,-95,-72,-39
32,-6,-40,-16,34,-23,-8,-121,-273,-101,-78,-45
38,-6,-46,-16,40,-23,-14,-127,-279,-107,-78,-57
38,-12,-52,-10,46,-29,-14,-127,-279,-107,-78,-57
38,-18,-58,-10,46,-35,-14,-121,-279,-107,-78,-63
38,-18,-58,-10,46,-35,-14,-121,-273,-107,-78,-63
44,-18,-64,-16,52,-41,-14,-115,-267,-113,-78,-63
38,-18,-58,-10,46,-35,-8,-103,-261,-107,-72,-57
44,-12,-58,-16,52,-35,4,-91,-255,-101,-72,-51
50,-12,-64,-16,58,-35,10,-85,-255,-107,-72,-51
50,-18,-70,-16,58,-41,28,-85,-255,-113,-84,-57
56,-18,-76,-22,64,-47,40,-79,-249,-119,-84,-63
62,-18,-82,-22,70,-47,52,-73,-249,-113,-78,-57
62,-24,-88,-16,76,-53,52,-67,-243,-107,-78,-63
62,-24,-88,-16,76,-53,52,-61,-237,-101,-72,-69
56,-30,-88,-16,70,-59,58,-55,-237,-95,-72,-63
56,-30,-88,-16,70,-59,52,-43,-231,-95,-66,-63
56,-36,-94,-10,76,-65,52,-38,-231,-95,-66,-63
62,-36,-100,-10,82,-65,52,-33,-225,-89,-72,-63
68,-36,-106,-16,88,-71,58,-15,-213,-83,-72,-63
74,-36,-112,-16,94,-71,58,-9,-207,-77,-72,-63
80,-30,-112,-28,94,-71,58,-3,-195,-77,-66,-57
86,-24,-112,-28,100,-65,70,15,-183,-77,-60,-51
92,-24,-118,-33,106,-71,76,33,-171,-65,-54,-45
98,-12,-112,-38,106,-59,82,57,-153,-48,-42,-45
110,0,-112,-50,112,-53,82,81,-129,-25,-30,-39
110,12,-100,-56,106,-41,70,117,-99,-7,-18,-27
122,18,-106,-68,112,-41,52,147,-75,5,-13,-22
140,24,-118,-80,130,-47,16,177,-53,17,-8,-22
158,30,-130,-92,142,-47,-14,201,-35,29,-2,-17
170,42,-130,-104,148,-41,-43,225,-11,41,10,-5
182,48,-136,-110,160,-41,-78,249,7,53,22,7
200,54,-148,-128,172,-47,-108,273,25,65,34,13
