,,,,,,,,,,,
2019-09-04 23:50:28,,,,,,,,,,,
,,,,,,,,,,,
I,II,III,aVR,aVL,aVF,V1,V2,V3,V4,V5,V6
-42,30,70,0,-59,47,-11,-131,-139,-256,-174,-143
-42,35,76,0,-59,53,-17,-131,-139,-262,-174,-143
-42,40,82,0,-59,59,-11,-137,-145,-262,-174,-149
-42,40,82,0,-59,59,-11,-137,-151,-268,-180,-149
-42,40,82,0,-59,59,-11,-137,-151,-268,-186,-149
-42,35,76,0,-59,53,-11,-149,-157,-274,-186,-155
-42,35,76,0,-59,53,-11,-143,-157,-274,-180,-149
-42,30,70,0,-59,47,-11,-143,-157,-268,-174,-137
-36,30,64,0,-53,47,-11,-143,-157,-268,-180,-137
-36,35,70,0,-53,53,-11,-143,-163,-262,-174,-137
-36,35,70,0,-53,53,-17,-143,-163,-262,-174,-131
-36,35,70,0,-53,53,-17,-143,-169,-274,-180,-125
-36,40,76,0,-53,59,-17,-149,-169,-274,-174,-125
-36,46,82,-6,-59,65,-17,-149,-175,-280,-168,-131
-36,40,76,0,-53,59,-11,-149,-181,-286,-174,-131
-48,35,82,6,-65,59,-11,-155,-187,-286,-174,-131
-48,30,76,6,-65,53,-11,-155,-187,-280,-174,-131
-42,30,70,0,-59,47,-11,-149,-187,-280,-174,-131
-42,30,70,0,-59,47,-11,-143,-187,-280,-174,-125
-42,30,70,0,-59,47,-17,-149,-187,-280,-168,-125
-36,35,70,0,-53,53,-17,-143,-193,-280,-168,-119
-36,40,76,0,-53,59,-11,-143,-193,-292,-168,-125
-36,35,70,0,-53,53,-23,-149,-199,-292,-162,-125
-36,35,70,0,-53,53,-23,-149,-199,-292,-168,-125
-42,30,70,0,-59,47,-23,-149,-193,-298,-168,-125
-42,24,64,6,-53,41,-17,-149,-199,-292,-168,-119
-36,24,58,6,-47,41,-23,-155,-199,-298,-168,-119
-48,18,64,12,-59,41,-23,-161,-205,-304,-174,-113
-48,12,58,18,-53,36,-17,-167,-205,-310,-174,-125
-48,24,70,12,-59,47,-23,-173,-211,-310,-174,-125
-54,24,76,12,-65,47,-28,-173,-211,-316,-180,-125
-66,18,82,18,-77,47,-33,-179,-217,-316,-180,-125
-60,18,76,18,-71,47,-39,-185,-217,-322,-174,-131
-54,24,76,12,-65,47,-39,-185,-217,-328,-174,-131
-48,30,76,6,-65,53,-28,-179,-217,-322,-174,-131
-42,30,70,0,-59,47,-28,-179,-211,-322,-174,-131
-42,30,70,0,-59,47,-33,-179,-217,-322,-168,-131
-42,30,70,0,-59,47,-33,-173,-217,-322,-174,-131
-48,24,70,12,-59,47,-33,-173,-217,-322,-168,-131
-48,18,64,12,-59,41,-28,-185,-217,-322,-168,-125
-48,18,64,12,-59,41,-28,-185,-217,-322,-174,-125
-48,12,58,18,-53,36,-28,-185,-223,-322,-168,-119
-48,18,64,12,-59,41,-28,-197,-229,-328,-168,-119
-48,18,64,12,-59,41,-28,-203,-235,-334,-174,-119
-48,12,58,18,-53,36,-28,-203,-241,-334,-168,-125
-48,12,58,18,-53,36,-33,-197,-241,-334,-168,-125
-42,6,46,12,-47,25,-39,-203,-247,-334,-180,-131
-42,6,46,12,-47,25,-33,-209,-253,-328,-180,-137
-48,0,46,24,-47,25,-39,-203,-259,-328,-174,-131
-48,0,46,24,-47,25,-39,-203,-265,-328,-180,-131
-48,-6,40,24,-47,19,-39,-215,-265,-322,-180,-131
-60,-6,52,30,-59,25,-39,-209,-271,-322,-174,-131
-60,-6,52,30,-59,25,-39,-209,-283,-322,-180,-131
-48,0,46,24,-47,25,-33,-209,-289,-322,-180,-131
-36,12,46,12,-41,31,-33,-203,-289,-316,-180,-125
-42,0,40,18,-41,19,-39,-209,-295,-322,-180,-131
-42,0,40,18,-41,19,-45,-215,-307,-328,-186,-125
-42,0,40,18,-41,19,-45,-215,-307,-328,-180,-125
-36,0,35,18,-35,19,-51,-215,-313,-328,-180,-125
-36,0,35,18,-35,19,-51,-215,-319,-328,-174,-125
-42,-6,35,18,-41,13,-51,-215,-319,-334,-180,-131
-36,0,35,18,-35,19,-51,-209,-313,-334,-174,-131
-36,0,35,18,-35,19,-51,-209,-313,-328,-180,-131
-48,-6,40,24,-47,19,-51,-209,-325,-328,-180,-137
-54,-12,40,30,-47,13,-51,-209,-325,-334,-174,-131
-48,-12,35,30,-41,13,-57,-215,-331,-334,-180,-125
-48,-6,40,24,-47,19,-57,-215,-331,-334,-180,-125
-42,-6,35,18,-41,13,-57,-221,-325,-334,-180,-125
-48,-12,35,30,-41,13,-57,-221,-331,-346,-180,-125
-48,-18,30,30,-41,7,-57,-227,-337,-346,-180,-131
-48,-30,18,36,-35,-5,-57,-233,-343,-352,-180,-131
-48,-42,6,42,-29,-17,-63,-233,-349,-352,-192,-143
-48,-36,12,42,-29,-11,-63,-233,-349,-352,-192,-143
-48,-42,6,42,-29,-17,-63,-233,-355,-352,-192,-143
-54,-42,12,42,-35,-17,-69,-239,-361,-358,-192,-143
-60,-42,18,48,-41,-11,-63,-233,-361,-352,-192,-137
-60,-30,30,42,-47,1,-63,-233,-355,-358,-186,-137
-66,-36,30,48,-47,-5,-63,-245,-361,-364,-186,-137
-60,-30,30,42,-47,1,-63,-239,-355,-358,-180,-137
-54,-24,30,36,-41,1,-57,-239,-361,-358,-180,-137
-54,-24,30,36,-41,1,-63,-239,-355,-358,-180,-137
-42,-30,12,30,-29,-11,-69,-239,-355,-358,-186,-137
-42,-30,12,30,-29,-11,-69,-239,-349,-352,-180,-143
-42,-36,6,36,-23,-17,-63,-239,-355,-358,-180,-143
-48,-42,6,42,-29,-17,-69,-245,-355,-364,-186,-137
-54,-48,6,48,-29,-23,-69,-239,-361,-364,-186,-137
-54,-54,0,48,-29,-29,-63,-245,-367,-370,-186,-143
-54,-54,0,48,-29,-29,-57,-245,-373,-376,-186,-143
-48,-48,0,48,-23,-23,-51,-251,-373,-370,-186,-143
-54,-54,0,48,-29,-29,-51,-257,-373,-376,-186,-149
-60,-54,6,54,-35,-23,-51,-251,-379,-370,-192,-161
-54,-48,6,48,-29,-23,-57,-251,-373,-370,-192,-161
-54,-42,12,42,-35,-17,-57,-245,-367,-370,-192,-155
-54,-42,12,42,-35,-17,-57,-245,-367,-370,-192,-155
-48,-36,12,42,-29,-11,-57,-245,-361,-364,-198,-155
-42,-36,6,36,-23,-17,-51,-245,-367,-370,-192,-149
-42,-42,0,36,-23,-23,-57,-245,-373,-370,-192,-143
-30,-48,-18,36,-7,-35,-63,-239,-367,-364,-192,-137
-36,-54,-18,42,-13,-35,-63,-245,-373,-370,-192,-143
-42,-60,-18,48,-13,-41,-63,-245,-367,-364,-186,-143
-48,-60,-12,54,-18,-35,-63,-245,-367,-364,-186,-149
-42,-54,-12,42,-18,-35,-63,-239,-367,-364,-180,-143
-48,-54,-6,48,-23,-29,-69,-245,-367,-370,-180,-149
-54,-66,-12,54,-23,-41,-75,-245,-367,-370,-186,-149
-54,-66,-12,54,-23,-41,-81,-239,-361,-370,-186,-143
-54,-72,-18,60,-18,-47,-75,-245,-367,-376,-180,-143
-48,-72,-24,60,-13,-47,-69,-245,-373,-370,-180,-149
-48,-72,-24,60,-13,-47,-63,-245,-373,-370,-180,-143
-36,-66,-30,48,-7,-47,-63,-245,-373,-364,-174,-137
-30,-54,-24,36,-7,-41,-57,-239,-367,-364,-174,-131
-24,-48,-24,36,-1,-35,-63,-239,-367,-364,-174,-137
-42,-60,-18,48,-13,-41,-63,-245,-373,-370,-174,-137
-54,-66,-12,54,-23,-41,-63,-251,-373,-370,-180,-143
-54,-72,-18,60,-18,-47,-63,-245,-373,-370,-180,-143
-54,-78,-24,60,-18,-53,-63,-245,-367,-370,-174,-143
-48,-78,-30,60,-13,-53,-63,-245,-367,-376,-180,-143
-42,-72,-30,54,-7,-53,-63,-245,-373,-376,-180,-143
-36,-66,-30,48,-7,-47,-63,-245,-367,-376,-180,-143
-36,-66,-30,48,-7,-47,-63,-245,-373,-376,-180,-143
-36,-72,-36,54,-1,-53,-69,-251,-373,-370,-186,-137
-36,-66,-30,48,-7,-47,-75,-251,-367,-370,-186,-137
-36,-72,-36,54,-1,-53,-75,-251,-367,-370,-186,-131
-30,-66,-36,42,-1,-53,-75,-251,-367,-370,-186,-137
-30,-66,-36,42,-1,-53,-81,-251,-367,-370,-180,-137
-36,-72,-36,54,-1,-53,-81,-251,-367,-370,-180,-143
-36,-72,-36,54,-1,-53,-75,-245,-361,-370,-186,-143
-36,-66,-30,48,-7,-47,-75,-251,-361,-370,-192,-149
-36,-72,-36,54,-1,-53,-69,-245,-367,-370,-192,-143
-36,-72,-36,54,-1,-53,-63,-251,-373,-364,-198,-137
-36,-78,-42,54,-1,-59,-63,-251,-373,-364,-198,-137
-42,-90,-48,60,-1,-71,-69,-263,-373,-358,-198,-143
-36,-96,-60,66,11,-77,-69,-263,-379,-358,-204,-143
-36,-96,-60,66,11,-77,-63,-263,-385,-364,-198,-143
-36,-90,-54,60,5,-71,-69,-257,-391,-364,-198,-149
-36,-84,-48,60,5,-65,-63,-257,-385,-358,-198,-149
-36,-84,-48,60,5,-65,-63,-251,-385,-358,-198,-143
-42,-78,-36,54,-7,-59,-69,-251,-385,-358,-198,-143
-36,-78,-42,54,-1,-59,-69,-257,-397,-358,-204,-143
-30,-72,-42,48,5,-59,-51,-251,-397,-358,-204,-149
-30,-78,-48,48,5,-65,-51,-251,-397,-358,-204,-149
-24,-66,-42,42,5,-53,-57,-251,-403,-358,-204,-149
-30,-72,-42,48,5,-59,-57,-257,-403,-364,-198,-143
-36,-72,-36,54,-1,-53,-57,-251,-415,-364,-204,-149
-36,-72,-36,54,-1,-53,-63,-251,-415,-358,-198,-143
-30,-72,-42,48,5,-59,-63,-257,-409,-358,-204,-137
-30,-72,-42,48,5,-59,-57,-245,-409,-358,-198,-131
-30,-72,-42,48,5,-59,-57,-245,-409,-358,-198,-137
-30,-78,-48,48,5,-65,-63,-245,-415,-364,-204,-137
-36,-72,-36,54,-1,-53,-57,-251,-409,-364,-204,-137
-30,-72,-42,48,5,-59,-57,-245,-409,-358,-198,-137
-36,-78,-42,54,-1,-59,-63,-251,-409,-358,-198,-149
-42,-78,-36,54,-7,-59,-57,-257,-409,-352,-198,-149
-42,-78,-36,54,-7,-59,-57,-251,-409,-346,-198,-143
-36,-78,-42,54,-1,-59,-51,-257,-403,-352,-198,-143
-36,-84,-48,60,5,-65,-51,-251,-403,-346,-192,-137
-30,-90,-60,54,11,-77,-51,-257,-397,-340,-192,-137
-30,-84,-54,54,11,-71,-51,-257,-391,-340,-198,-137
-36,-84,-48,60,5,-65,-57,-257,-391,-334,-198,-137
-30,-84,-54,54,11,-71,-57,-251,-385,-328,-192,-137
-24,-78,-54,48,11,-65,-57,-257,-379,-328,-192,-137
-24,-72,-48,48,11,-59,-57,-257,-379,-328,-192,-137
-36,-84,-48,60,5,-65,-57,-263,-379,-334,-192,-143
-42,-90,-48,60,-1,-71,-51,-269,-385,-334,-198,-143
-48,-90,-42,66,-7,-65,-45,-257,-379,-334,-192,-143
-42,-96,-54,66,5,-77,-51,-257,-379,-328,-192,-137
-42,-96,-54,66,5,-77,-45,-257,-385,-328,-198,-131
-36,-96,-60,66,11,-77,-45,-257,-391,-328,-198,-131
-36,-102,-66,66,11,-83,-45,-257,-391,-322,-198,-137
-42,-102,-60,66,5,-83,-45,-257,-391,-316,-198,-137
-36,-96,-60,66,11,-77,-39,-257,-385,-316,-192,-137
-30,-84,-54,54,11,-71,-39,-251,-379,-310,-186,-137
-30,-84,-54,54,11,-71,-39,-245,-373,-310,-180,-143
-30,-96,-66,60,17,-83,-33,-245,-373,-310,-186,-143
-30,-102,-72,60,17,-89,-28,-245,-367,-304,-186,-137
-36,-108,-72,72,17,-89,-28,-245,-361,-298,-186,-137
-36,-114,-78,72,17,-95,-23,-245,-355,-292,-186,-137
-30,-108,-78,66,23,-95,-17,-245,-349,-292,-186,-131
-18,-102,-84,54,29,-95,-23,-245,-355,-286,-180,-125
-18,-96,-78,54,29,-89,-28,-245,-355,-292,-180,-125
-30,-96,-66,60,17,-83,-33,-239,-355,-292,-174,-125
-30,-102,-72,60,17,-89,-33,-245,-355,-292,-174,-131
-30,-102,-72,60,17,-89,-45,-239,-349,-292,-180,-131
-30,-102,-72,60,17,-89,-45,-233,-349,-286,-174,-131
-30,-114,-84,66,23,-101,-39,-233,-343,-286,-180,-131
-36,-120,-84,78,23,-101,-33,-239,-343,-286,-180,-131
-30,-114,-84,66,23,-101,-28,-233,-337,-274,-174,-125
-24,-114,-90,66,29,-101,-23,-233,-337,-268,-168,-125
-24,-114,-90,66,29,-101,-28,-239,-343,-274,-174,-125
-24,-120,-96,72,35,-107,-28,-245,-343,-274,-174,-131
-24,-120,-96,72,35,-107,-23,-245,-337,-268,-168,-131
-24,-120,-96,72,35,-107,-23,-239,-331,-274,-174,-131
-30,-126,-96,72,29,-113,-28,-245,-325,-268,-174,-131
-30,-120,-90,72,29,-107,-23,-245,-331,-268,-174,-137
-36,-126,-90,78,23,-107,-23,-239,-331,-268,-180,-131
-24,-114,-90,66,29,-101,-23,-233,-319,-256,-168,-125
-18,-108,-90,60,35,-101,-23,-233,-313,-250,-168,-119
-18,-102,-84,54,29,-95,-23,-233,-313,-256,-174,-119
-24,-108,-84,66,29,-95,-23,-233,-319,-256,-168,-119
-24,-114,-90,66,29,-101,-28,-239,-319,-256,-168,-113
-30,-120,-90,72,29,-107,-28,-245,-319,-262,-168,-119
-42,-132,-90,84,23,-113,-28,-245,-319,-268,-174,-119
-48,-138,-90,90,17,-113,-28,-245,-319,-262,-180,-125
-48,-132,-84,90,17,-107,-28,-239,-325,-262,-180,-119
-42,-120,-78,78,17,-101,-33,-239,-319,-256,-180,-113
-36,-108,-72,72,17,-89,-33,-239,-319,-256,-174,-113
-36,-108,-72,72,17,-89,-33,-239,-319,-256,-174,-125
-36,-114,-78,72,17,-95,-28,-245,-319,-262,-174,-125
-36,-120,-84,78,23,-101,-28,-239,-319,-262,-174,-125
-36,-126,-90,78,23,-107,-28,-239,-319,-262,-174,-125
-36,-126,-90,78,23,-107,-33,-239,-313,-256,-174,-125
-24,-120,-96,72,35,-107,-33,-239,-307,-250,-174,-125
-24,-120,-96,72,35,-107,-28,-239,-307,-250,-174,-119
-24,-126,-102,72,35,-113,-28,-239,-313,-256,-180,-125
-18,-126,-108,66,41,-119,-28,-239,-313,-250,-174,-119
-24,-132,-108,78,41,-119,-28,-245,-313,-250,-174,-125
-30,-132,-102,78,35,-119,-23,-239,-313,-256,-174,-125
-30,-126,-96,72,29,-113,-23,-239,-313,-256,-174,-125
-30,-120,-90,72,29,-107,-23,-245,-319,-250,-174,-119
-24,-108,-84,66,29,-95,-28,-245,-319,-256,-180,-125
-18,-102,-84,54,29,-95,-28,-245,-319,-250,-174,-119
-18,-102,-84,54,29,-95,-28,-245,-319,-244,-174,-119
-18,-108,-90,60,35,-101,-28,-251,-325,-244,-174,-119
-12,-108,-96,60,41,-101,-28,-251,-325,-238,-180,-125
-12,-102,-90,54,35,-95,-28,-251,-319,-238,-180,-125
-12,-108,-96,60,41,-101,-23,-245,-313,-232,-174,-125
-12,-102,-90,54,35,-95,-17,-233,-307,-232,-168,-119
-12,-90,-78,48,29,-83,-11,-227,-307,-226,-162,-119
-12,-84,-72,48,29,-77,-5,-215,-301,-220,-156,-119
-6,-84,-78,42,35,-83,1,-209,-301,-214,-162,-113
-1,-78,-78,36,35,-77,1,-203,-295,-208,-156,-107
-1,-78,-78,36,35,-77,1,-197,-289,-202,-144,-107
10,-78,-90,30,47,-83,13,-185,-283,-196,-144,-95
10,-78,-90,30,47,-83,25,-179,-271,-184,-138,-89
16,-72,-90,30,53,-77,25,-173,-259,-172,-132,-83
28,-66,-96,18,59,-77,37,-167,-253,-166,-126,-77
22,-72,-96,24,59,-83,43,-161,-253,-154,-120,-77
22,-66,-90,18,53,-77,43,-155,-241,-142,-114,-71
28,-60,-90,18,59,-71,37,-143,-229,-136,-102,-65
28,-60,-90,18,59,-71,25,-143,-223,-130,-96,-65
22,-54,-78,12,47,-65,7,-143,-223,-130,-96,-65
22,-48,-72,12,47,-59,-5,-149,-223,-136,-90,-59
28,-36,-66,6,47,-47,-17,-155,-223,-136,-90,-59
40,-30,-72,-6,53,-47,-23,-161,-223,-136,-90,-59
46,-30,-78,-12,59,-53,-28,-179,-229,-136,-96,-65
46,-42,-90,-6,65,-65,-45,-191,-235,-148,-108,-77
46,-48,-96,0,71,-71,-51,-197,-247,-148,-114,-83
46,-42,-90,-6,65,-65,-57,-209,-259,-154,-114,-83
40,-48,-90,6,65,-65,-63,-209,-259,-160,-120,-83
22,-54,-78,12,47,-65,-69,-215,-265,-160,-126,-83
16,-54,-72,18,41,-59,-63,-215,-265,-166,-138,-95
16,-66,-84,24,47,-71,-63,-209,-277,-172,-150,-95
10,-84,-96,36,53,-89,-57,-215,-277,-178,-144,-95
10,-90,-102,36,53,-95,-63,-215,-283,-178,-138,-89
10,-90,-102,36,53,-95,-51,-215,-277,-178,-138,-83
-1,-96,-96,48,47,-95,-45,-215,-277,-178,-144,-83
-1,-90,-90,42,41,-89,-45,-221,-283,-178,-144,-77
-6,-90,-84,42,35,-89,-39,-227,-283,-190,-144,-77
-12,-90,-78,48,29,-83,-33,-227,-277,-190,-144,-83
-12,-90,-78,48,29,-83,-33,-227,-277,-190,-144,-83
-24,-90,-66,54,17,-77,-39,-233,-277,-190,-144,-89
-30,-96,-66,60,17,-83,-39,-227,-283,-196,-150,-95
-30,-102,-72,60,17,-89,-39,-227,-283,-196,-156,-101
-36,-108,-72,72,17,-89,-45,-227,-289,-202,-156,-113
-42,-114,-72,72,11,-95,-51,-227,-289,-208,-162,-113
-42,-120,-78,78,17,-101,-57,-227,-301,-214,-168,-113
-48,-126,-78,84,11,-101,-57,-227,-307,-214,-168,-113
-48,-126,-78,84,11,-101,-69,-227,-313,-214,-162,-119
-48,-126,-78,84,11,-101,-69,-233,-319,-214,-168,-119
-48,-120,-72,84,11,-95,-63,-233,-319,-208,-168,-119
-54,-114,-60,78,-1,-89,-63,-233,-325,-214,-162,-119
-54,-114,-60,78,-1,-89,-63,-233,-337,-214,-168,-125
-54,-114,-60,78,-1,-89,-63,-239,-343,-214,-174,-137
-60,-126,-66,90,-1,-95,-63,-245,-343,-214,-174,-137
-66,-132,-66,96,-1,-101,-63,-239,-337,-214,-174,-137
-60,-126,-66,90,-1,-95,-63,-233,-337,-208,-168,-131
-54,-126,-72,84,5,-101,-63,-227,-325,-202,-162,-125
-48,-126,-78,84,11,-101,-63,-221,-319,-202,-156,-125
-48,-126,-78,84,11,-101,-69,-221,-319,-202,-156,-125
-54,-126,-72,84,5,-101,-63,-221,-313,-202,-156,-125
-60,-132,-72,96,5,-101,-63,-221,-313,-208,-162,-125
-60,-126,-66,90,-1,-95,-57,-215,-307,-202,-162,-131
-48,-126,-78,84,11,-101,-63,-209,-295,-196,-162,-131
-42,-126,-84,78,17,-107,-57,-209,-295,-196,-162,-125
-48,-138,-90,90,17,-113,-57,-209,-289,-190,-168,-131
-60,-156,-96,108,17,-125,-63,-209,-295,-184,-168,-131
-66,-162,-96,108,11,-131,-57,-197,-283,-172,-162,-131
-60,-162,-102,108,17,-131,-39,-191,-277,-166,-162,-131
-60,-186,-126,120,29,-155,-28,-173,-265,-154,-168,-131
-48,-216,-168,132,59,-191,-23,-155,-247,-142,-162,-131
-36,-234,-198,132,77,-215,-11,-119,-229,-124,-150,-137
-24,-264,-240,144,107,-251,7,-83,-199,-94,-144,-131
-18,-300,-282,156,131,-293,31,-47,-163,-70,-138,-131
-6,-342,-336,168,161,-341,49,-1,-133,-46,-132,-125
-1,-396,-396,198,197,-395,79,41,-103,-18,-132,-125
4,-468,-474,234,239,-467,109,89,-73,6,-126,-131
28,-534,-564,252,293,-545,133,143,-37,36,-114,-119
58,-588,-648,264,353,-617,151,197,3,66,-96,-107
82,-636,-720,276,401,-677,169,239,39,96,-72,-83
94,-690,-786,294,437,-737,181,269,69,120,-60,-77
112,-738,-852,312,479,-791,193,317,99,150,-48,-65
130,-792,-924,330,527,-857,205,359,135,186,-36,-53
148,-846,-996,348,569,-917,229,401,171,228,-20,-41
172,-894,-1068,360,617,-977,253,449,213,258,-2,-30
202,-948,-1152,372,677,-1049,265,503,255,306,16,-25
220,-1014,-1236,396,725,-1121,289,557,303,342,40,-7
250,-1092,-1344,420,797,-1217,313,617,351,384,70,17
286,-1176,-1464,444,875,-1319,343,707,417,432,94,35
328,-1260,-1590,468,959,-1421,373,803,483,492,124,41
370,-1338,-1710,480,1037,-1523,397,911,573,564,166,65
430,-1392,-1824,480,1127,-1607,421,1025,681,672,220,107
490,-1434,-1926,468,1205,-1679,445,1157,819,822,310,167
562,-1476,-2040,456,1301,-1757,475,1307,993,1002,430,239
640,-1518,-2160,438,1397,-1835,511,1469,1203,1212,574,329
718,-1548,-2268,414,1493,-1907,547,1637,1455,1464,760,449
814,-1560,-2376,372,1595,-1967,577,1817,1767,1776,1000,605
904,-1554,-2459,324,1679,-2003,607,1997,2139,2160,1294,803
1000,-1530,-2531,264,1763,-2027,625,2141,2510,2555,1594,1013
1084,-1476,-2561,198,1823,-2015,625,2213,2798,2915,1900,1223
1150,-1398,-2549,120,1847,-1973,583,2135,2912,3191,2170,1421
1198,-1314,-2513,54,1853,-1913,529,1925,2840,3377,2397,1595
1228,-1242,-2471,6,1847,-1853,481,1637,2678,3473,2577,1733
1228,-1176,-2405,-22,1817,-1787,451,1325,2468,3503,2691,1823
1204,-1122,-2328,-40,1763,-1721,415,995,2229,3437,2721,1859
1162,-1056,-2220,-52,1691,-1637,349,683,1971,3299,2697,1859
1090,-1002,-2094,-46,1589,-1547,265,413,1719,3089,2613,1817
1006,-972,-1980,-17,1493,-1475,169,203,1449,2801,2439,1715
880,-990,-1872,54,1373,-1427,133,59,1167,2405,2104,1493
724,-1020,-1746,150,1235,-1379,139,-41,903,1956,1678,1187
568,-1020,-1590,228,1079,-1301,139,-143,609,1470,1216,863
418,-996,-1416,288,917,-1205,115,-239,291,954,742,527
274,-966,-1242,342,755,-1103,79,-335,-15,480,334,239
172,-924,-1098,378,635,-1007,37,-407,-223,144,52,35
112,-864,-978,378,545,-917,-11,-449,-343,-52,-108,-83
70,-810,-882,366,473,-845,-45,-461,-409,-160,-198,-155
28,-762,-792,366,407,-773,-69,-461,-433,-220,-240,-197
-1,-702,-702,348,347,-701,-81,-443,-427,-244,-252,-209
-18,-630,-612,318,293,-623,-75,-419,-409,-250,-258,-209
-36,-552,-516,294,239,-533,-81,-389,-385,-244,-246,-203
-48,-480,-432,264,191,-455,-81,-353,-349,-232,-234,-203
-60,-408,-348,234,143,-377,-75,-317,-307,-202,-228,-197
-66,-336,-270,198,101,-305,-63,-269,-259,-166,-210,-179
-66,-276,-210,168,71,-245,-45,-221,-205,-130,-192,-167
-72,-222,-150,144,35,-185,-11,-173,-169,-106,-180,-155
-84,-186,-102,132,5,-143,25,-131,-139,-88,-180,-149
-84,-150,-66,114,-13,-107,55,-113,-115,-82,-168,-143
-84,-114,-30,96,-29,-71,55,-101,-109,-88,-162,-131
-78,-90,-12,78,-35,-53,49,-101,-109,-88,-150,-119
-84,-66,18,72,-53,-23,37,-95,-103,-88,-138,-113
-90,-36,52,60,-71,7,31,-89,-91,-82,-126,-107
-84,-12,70,48,-77,31,25,-77,-79,-76,-120,-107
-78,0,76,36,-77,36,19,-59,-79,-70,-126,-107
-78,12,88,30,-83,47,25,-47,-73,-64,-126,-107
-78,12,88,30,-83,47,25,-41,-79,-64,-126,-113
-78,24,100,24,-89,59,31,-35,-85,-64,-126,-113
-72,24,94,24,-83,59,37,-35,-85,-58,-126,-113
-72,30,100,18,-89,65,37,-35,-91,-58,-126,-107
-72,35,106,18,-89,71,31,-35,-91,-64,-120,-101
-72,35,106,18,-89,71,31,-41,-97,-64,-120,-101
-84,40,124,24,-101,83,31,-41,-91,-64,-120,-107
-90,46,136,18,-113,89,31,-35,-91,-58,-114,-101
-90,46,136,18,-113,89,25,-29,-85,-64,-114,-95
-102,46,148,24,-125,95,25,-24,-79,-58,-114,-95
-102,40,142,30,-119,89,31,-24,-73,-46,-114,-95
-96,46,142,24,-119,95,31,-19,-67,-40,-108,-89
-96,46,142,24,-119,95,31,-13,-55,-34,-102,-83
-84,58,142,12,-113,101,31,-13,-55,-29,-90,-77
-84,64,148,12,-113,107,37,-13,-49,-24,-84,-71
-84,70,154,6,-119,113,37,-13,-49,-29,-78,-71
-90,76,166,6,-125,119,31,-13,-49,-29,-84,-83
-96,76,172,12,-131,125,25,-19,-49,-29,-90,-83
-96,82,178,6,-137,131,31,-13,-49,-24,-84,-83
-90,94,184,-6,-137,137,25,-7,-49,-24,-84,-83
-90,94,184,-6,-137,137,19,-1,-43,-24,-84,-83
-78,106,184,-17,-131,143,25,5,-31,-18,-84,-83
-78,106,184,-17,-131,143,25,11,-31,-12,-78,-83
-78,100,178,-12,-125,137,25,17,-31,-12,-78,-83
-84,106,190,-12,-137,149,19,23,-25,-6,-78,-77
-78,112,190,-17,-131,149,25,23,-20,6,-66,-77
-72,124,196,-22,-131,161,31,23,-15,12,-60,-65
-66,136,202,-34,-131,167,37,29,-3,18,-54,-59
-72,130,202,-28,-137,167,31,29,-9,24,-54,-59
-78,130,208,-28,-143,167,25,29,-3,24,-54,-65
-78,130,208,-28,-143,167,31,35,-3,24,-48,-65
-72,136,208,-28,-137,173,31,41,3,24,-48,-65
-72,142,214,-34,-143,179,31,47,9,30,-42,-53
-72,142,214,-34,-143,179,31,53,15,36,-42,-53
-72,148,220,-34,-143,185,25,47,15,42,-42,-47
-72,154,226,-40,-149,191,25,53,21,48,-42,-53
-72,166,238,-46,-155,203,19,65,33,60,-36,-47
-72,178,250,-52,-161,215,19,71,45,66,-31,-41
-66,178,244,-58,-155,209,25,71,51,72,-20,-35
-72,172,244,-46,-155,209,31,77,57,78,-14,-30
-72,172,244,-46,-155,209,19,83,63,84,-8,-30
-60,178,238,-58,-149,209,19,89,75,90,4,-25
-54,190,244,-70,-149,215,13,89,75,96,10,-19
-54,190,244,-70,-149,215,13,89,81,96,10,-19
-54,196,250,-70,-149,221,19,95,87,108,16,-13
-54,208,262,-76,-155,233,37,101,99,114,28,-13
-66,214,280,-76,-173,245,43,107,99,114,22,-7
-78,220,298,-70,-185,257,37,107,99,120,22,-7
-60,232,292,-82,-173,263,37,125,111,126,22,-7
-60,244,304,-88,-179,275,25,137,123,138,28,5
-54,250,304,-100,-179,275,19,143,129,138,34,5
-48,256,304,-100,-173,281,19,143,135,150,40,11
-42,268,310,-112,-173,287,25,155,141,156,46,17
-42,280,322,-118,-179,299,25,167,153,168,52,23
-36,292,328,-124,-179,311,31,173,165,180,58,29
-36,298,334,-130,-185,317,31,173,177,186,70,29
-36,304,340,-130,-185,323,25,179,189,198,76,35
-36,316,352,-136,-191,335,19,191,195,210,88,41
-42,316,358,-136,-197,335,19,203,207,210,94,47
-42,322,364,-142,-203,341,19,215,219,216,100,53
-36,334,370,-148,-203,353,25,221,231,228,112,53
-30,340,370,-154,-197,353,25,233,243,240,112,59
-24,352,376,-160,-197,365,25,245,261,246,124,65
-18,364,382,-172,-197,371,25,263,273,258,130,77
-18,382,400,-184,-209,389,25,269,297,270,142,83
-18,382,400,-184,-209,389,19,281,309,288,142,89
-30,388,418,-178,-221,401,7,293,315,294,154,95
-36,400,436,-178,-233,419,1,305,327,306,172,95
-30,418,448,-196,-239,431,7,317,351,324,190,107
-24,436,460,-202,-239,449,1,335,369,336,196,113
-24,448,472,-208,-245,461,1,347,387,348,208,119
-18,466,484,-226,-251,473,1,365,393,360,220,131
-12,484,496,-232,-251,491,1,377,405,372,232,143
-6,490,496,-244,-251,491,-5,383,423,384,232,149
-6,508,514,-250,-257,509,-17,395,435,390,238,161
-1,514,514,-256,-257,515,-17,413,453,396,250,167
-1,532,532,-262,-263,533,-17,431,471,414,262,179
-1,544,544,-268,-269,545,-17,443,495,432,274,191
4,574,568,-286,-281,575,-28,461,513,444,292,203
4,592,586,-292,-287,593,-28,479,531,462,310,209
10,604,592,-304,-287,599,-28,491,531,474,322,209
16,622,604,-316,-293,617,-33,503,543,492,340,221
28,640,610,-328,-287,629,-39,515,555,516,358,239
34,658,622,-346,-293,641,-39,533,567,528,376,257
28,658,628,-340,-299,647,-39,551,579,546,388,269
28,670,640,-346,-305,659,-33,563,591,570,400,275
28,682,652,-352,-311,671,-33,569,603,588,418,287
34,694,658,-364,-311,677,-39,587,615,594,430,299
40,712,670,-370,-311,695,-39,599,633,612,442,317
52,730,676,-388,-311,707,-33,611,645,636,466,329
64,748,682,-400,-305,719,-39,617,657,654,484,341
58,748,688,-400,-311,719,-45,629,669,666,502,353
58,760,700,-406,-317,731,-51,641,681,678,514,359
52,772,718,-406,-329,749,-51,653,699,696,526,371
58,784,724,-418,-329,755,-51,665,711,708,544,377
58,790,730,-424,-335,761,-57,671,729,720,556,383
64,802,736,-430,-335,773,-63,683,753,732,556,395
70,820,748,-442,-335,785,-63,695,765,744,568,413
76,820,742,-442,-329,785,-69,701,777,762,580,425
88,832,742,-454,-323,791,-69,707,783,774,592,437
88,838,748,-460,-329,797,-75,707,795,780,604,443
88,826,736,-454,-323,785,-81,707,801,792,616,449
94,826,730,-460,-317,779,-81,707,813,816,640,467
100,832,730,-460,-311,785,-75,707,825,828,658,479
124,838,712,-478,-293,779,-75,707,831,834,670,491
130,832,700,-478,-281,767,-75,701,831,846,676,497
124,820,694,-466,-281,761,-75,695,825,846,682,497
118,802,682,-460,-281,743,-75,683,831,852,688,503
124,790,664,-454,-269,731,-87,671,825,852,688,503
124,766,640,-442,-257,707,-87,659,825,852,688,503
124,748,622,-430,-245,689,-81,647,825,858,694,503
130,730,598,-430,-233,665,-75,635,819,858,694,503
130,712,580,-418,-221,647,-75,623,807,852,694,503
136,694,556,-412,-209,629,-69,605,789,846,694,503
130,676,544,-400,-203,611,-63,593,777,834,682,491
124,652,526,-382,-197,593,-63,575,759,822,670,479
124,628,502,-370,-185,569,-63,557,735,810,646,467
118,598,478,-358,-179,539,-69,533,717,786,634,455
100,562,460,-328,-179,515,-69,509,687,756,610,443
100,526,424,-310,-161,479,-63,485,651,720,592,425
100,496,394,-292,-143,449,-63,461,621,690,562,407
94,454,358,-274,-131,407,-69,431,585,654,532,389
88,430,340,-256,-125,389,-63,407,543,612,508,365
82,394,310,-238,-113,353,-57,383,501,582,472,347
70,370,298,-220,-113,335,-45,359,459,546,436,323
64,346,280,-202,-107,317,-39,329,423,510,412,299
52,316,262,-178,-101,293,-33,299,393,480,382,275
40,286,244,-160,-101,269,-28,275,357,438,352,251
34,262,226,-148,-95,245,-28,251,321,402,322,227
22,232,208,-124,-89,221,-28,227,285,372,298,209
10,202,190,-106,-89,197,-28,203,243,336,274,179
-1,184,184,-88,-89,185,-23,173,207,294,244,155
-1,160,160,-76,-77,161,-23,155,171,258,208,131
-6,136,142,-64,-71,137,-17,137,135,228,178,113
-12,106,118,-46,-65,113,-23,119,111,198,148,95
-18,94,112,-40,-65,101,-17,101,87,174,124,77
-24,70,94,-22,-59,83,-5,77,69,144,100,53
-30,52,82,-12,-53,65,-5,59,39,126,70,41
-24,46,70,-12,-47,59,1,53,21,102,58,29
-24,35,58,-6,-41,47,1,41,3,90,46,17
-30,24,52,0,-41,36,1,29,-15,66,28,5
-36,6,40,12,-41,25,1,17,-37,42,10,-13
-42,0,40,18,-41,19,1,5,-61,18,-8,-25
-48,-18,30,30,-41,7,-5,5,-79,6,-14,-30
-48,-18,30,30,-41,7,7,-1,-91,-6,-26,-35
-54,-30,24,36,-41,-5,19,-13,-97,-12,-36,-47
-60,-36,24,48,-41,-5,25,-24,-103,-29,-48,-59
-66,-48,18,54,-41,-17,19,-35,-115,-34,-60,-71
-72,-54,18,60,-47,-17,19,-35,-121,-40,-66,-83
-66,-54,12,54,-41,-23,19,-35,-127,-46,-66,-83
-66,-54,12,54,-41,-23,19,-41,-133,-58,-78,-83
-72,-54,18,60,-47,-17,13,-47,-139,-70,-84,-89
-72,-60,12,66,-41,-23,13,-47,-139,-76,-90,-89
-72,-54,18,60,-47,-17,19,-47,-145,-82,-90,-95
-78,-66,12,66,-47,-29,19,-47,-151,-88,-102,-95
-78,-66,12,66,-47,-29,25,-47,-157,-100,-108,-101
-78,-60,18,66,-47,-23,25,-53,-157,-106,-108,-107
-72,-54,18,60,-47,-17,25,-53,-157,-112,-108,-107
-78,-48,30,60,-53,-11,31,-59,-163,-118,-108,-119
-84,-54,30,66,-59,-11,31,-59,-163,-124,-126,-119
-84,-48,35,66,-59,-5,25,-59,-169,-124,-126,-119
-84,-54,30,66,-59,-11,25,-59,-169,-130,-126,-119
-96,-60,35,78,-65,-11,19,-65,-169,-142,-132,-119
-90,-60,30,72,-59,-17,25,-59,-175,-142,-138,-119
-84,-54,30,66,-59,-11,25,-59,-169,-136,-138,-113
-78,-48,30,60,-53,-11,19,-59,-169,-130,-126,-107
-78,-54,24,60,-53,-17,19,-59,-169,-130,-120,-107
-78,-48,30,60,-53,-11,19,-71,-163,-136,-126,-113
-78,-42,35,54,-59,-5,19,-65,-169,-136,-132,-107
-78,-36,40,54,-59,1,13,-65,-163,-136,-132,-113
-78,-30,46,48,-65,7,13,-65,-163,-136,-138,-113
-78,-30,46,48,-65,7,7,-65,-163,-142,-138,-113
-78,-30,46,48,-65,7,7,-71,-169,-148,-138,-113
-78,-24,52,48,-65,13,13,-71,-169,-148,-144,-107
-84,-30,52,54,-71,13,7,-71,-175,-148,-144,-107
-84,-24,58,54,-71,19,7,-71,-175,-142,-144,-113
-84,-12,70,48,-77,31,13,-71,-175,-142,-138,-113
-84,-12,70,48,-77,31,13,-83,-175,-142,-144,-119
-96,-12,82,54,-89,36,13,-83,-181,-148,-150,-119
-90,-12,76,48,-83,31,13,-83,-181,-148,-144,-119
-96,-12,82,54,-89,36,7,-83,-181,-154,-150,-125
-90,-12,76,48,-83,31,7,-89,-181,-160,-150,-131
-96,-6,88,48,-95,41,1,-95,-181,-166,-156,-125
-96,-6,88,48,-95,41,-5,-101,-187,-172,-162,-131
-102,0,100,48,-101,47,-11,-107,-187,-178,-156,-125
-96,0,94,48,-95,47,-5,-107,-187,-178,-156,-125
-84,12,94,36,-89,53,1,-107,-187,-178,-156,-131
-84,12,94,36,-89,53,7,-107,-187,-172,-162,-125
-84,18,100,30,-95,59,1,-113,-187,-172,-162,-131
-90,6,94,36,-95,47,-5,-119,-193,-178,-162,-131
-96,6,100,42,-101,53,1,-113,-193,-184,-162,-125
-96,12,106,42,-101,59,7,-113,-193,-184,-168,-125
-102,18,118,36,-113,65,1,-113,-193,-184,-162,-131
-102,24,124,36,-113,71,1,-107,-193,-184,-162,-131
-102,30,130,30,-119,77,1,-113,-193,-184,-162,-131
-90,30,118,24,-107,71,1,-113,-193,-184,-162,-131
-90,30,118,24,-107,71,7,-113,-193,-190,-168,-131
-84,18,100,30,-95,59,-5,-119,-193,-190,-168,-131
-84,12,94,36,-89,53,-5,-125,-193,-190,-174,-137
-90,12,100,36,-95,53,-5,-131,-205,-196,-174,-131
-90,18,106,30,-101,59,1,-131,-205,-202,-174,-125
-90,30,118,24,-107,71,-5,-137,-211,-202,-174,-119
-102,24,124,36,-113,71,-5,-137,-211,-202,-174,-113
-108,24,130,42,-119,77,-11,-137,-211,-202,-174,-113
-102,24,124,36,-113,71,-11,-143,-211,-202,-174,-119
-102,30,130,30,-119,77,-11,-149,-205,-202,-180,-119
-102,30,130,30,-119,77,-11,-149,-199,-208,-174,-119
-102,30,130,30,-119,77,-17,-155,-199,-208,-180,-125
-96,35,130,30,-113,83,-11,-155,-205,-208,-180,-125
-102,35,136,30,-119,83,-11,-155,-211,-208,-180,-131
-102,30,130,30,-119,77,-11,-155,-211,-208,-192,-137
-102,30,130,30,-119,77,-17,-161,-211,-208,-192,-131
-90,40,130,24,-107,83,-11,-161,-211,-214,-186,-125
-84,40,124,24,-101,83,-5,-161,-211,-208,-180,-119
-84,40,124,24,-101,83,-5,-161,-211,-208,-180,-119
-84,35,118,24,-101,77,-11,-161,-217,-214,-180,-125
-84,30,112,24,-101,71,-17,-161,-211,-208,-174,-125
-90,24,112,30,-101,65,-17,-167,-211,-208,-174,-125
-96,12,106,42,-101,59,-23,-179,-217,-214,-180,-131
-90,12,100,36,-95,53,-23,-179,-217,-220,-174,-125
-96,18,112,36,-107,65,-28,-179,-223,-220,-180,-125
-90,18,106,30,-101,59,-23,-173,-223,-220,-186,-131
-90,18,106,30,-101,59,-28,-179,-223,-226,-186,-131
-96,18,112,36,-107,65,-28,-179,-223,-232,-192,-131
-90,24,112,30,-101,65,-28,-173,-223,-238,-204,-131
-90,18,106,30,-101,59,-28,-179,-229,-238,-204,-131
-96,6,100,42,-101,53,-28,-185,-235,-244,-204,-137
-90,-6,82,42,-89,36,-28,-185,-241,-244,-204,-143
-84,0,82,42,-83,41,-28,-197,-241,-244,-198,-143
-84,6,88,36,-89,47,-23,-197,-241,-244,-198,-143
-84,6,88,36,-89,47,-28,-203,-241,-244,-192,-143
-90,0,88,42,-89,41,-28,-197,-241,-238,-192,-143
-90,0,88,42,-89,41,-28,-197,-241,-238,-192,-137
-90,0,88,42,-89,41,-28,-191,-235,-244,-192,-143
-84,0,82,42,-83,41,-28,-197,-229,-238,-204,-143
-84,-6,76,42,-83,36,-28,-203,-235,-244,-210,-143
-90,-12,76,48,-83,31,-28,-203,-241,-256,-216,-137
-90,-18,70,48,-83,25,-28,-203,-241,-256,-216,-137
-90,-24,64,54,-77,19,-28,-203,-247,-256,-216,-137
-78,-18,58,42,-71,19,-28,-203,-247,-256,-222,-143
-78,-18,58,42,-71,19,-28,-203,-253,-262,-222,-143
-78,-18,58,42,-71,19,-28,-203,-259,-262,-216,-143
-78,-18,58,42,-71,19,-28,-203,-253,-262,-210,-137
-72,-18,52,42,-65,19,-28,-197,-253,-262,-210,-137
-72,-18,52,42,-65,19,-28,-197,-247,-262,-216,-137
-78,-24,52,48,-65,13,-33,-203,-241,-256,-222,-143
-84,-36,46,60,-65,7,-33,-203,-247,-262,-222,-149
-90,-36,52,60,-71,7,-33,-209,-241,-262,-222,-149
-84,-30,52,54,-71,13,-28,-209,-241,-262,-216,-149
-84,-24,58,54,-71,19,-28,-203,-241,-268,-222,-149
-84,-24,58,54,-71,19,-33,-203,-253,-268,-222,-149
-84,-24,58,54,-71,19,-33,-209,-259,-268,-222,-161
-78,-24,52,48,-65,13,-33,-209,-259,-268,-222,-161
-72,-18,52,42,-65,19,-28,-209,-259,-268,-222,-161
-72,-18,52,42,-65,19,-33,-203,-259,-268,-228,-161
-72,-18,52,42,-65,19,-39,-203,-259,-268,-228,-161
-72,-24,46,48,-59,13,-39,-203,-265,-268,-228,-161
-66,-24,40,42,-53,7,-39,-209,-265,-268,-228,-161
-60,-24,35,42,-47,7,-33,-209,-265,-268,-234,-161
-66,-18,46,36,-59,13,-33,-215,-265,-268,-240,-155
-66,-30,35,42,-53,1,-39,-221,-271,-280,-240,-149
-66,-30,35,42,-53,1,-45,-221,-283,-286,-240,-155
-78,-36,40,54,-59,1,-45,-221,-283,-286,-246,-155
-84,-42,40,60,-65,1,-45,-227,-277,-286,-246,-161
-72,-36,35,54,-53,1,-51,-221,-271,-286,-240,-155
-66,-30,35,42,-53,1,-45,-215,-265,-286,-234,-155
-66,-30,35,42,-53,1,-45,-221,-265,-286,-228,-149
-60,-30,30,42,-47,1,-45,-221,-265,-286,-222,-149
-60,-24,35,42,-47,7,-51,-215,-265,-280,-216,-143
-66,-30,35,42,-53,1,-63,-215,-265,-280,-222,-149
-72,-36,35,54,-53,1,-63,-215,-265,-280,-222,-149
-78,-36,40,54,-59,1,-51,-215,-265,-280,-228,-155
-78,-36,40,54,-59,1,-51,-221,-271,-280,-234,-155
-72,-42,30,54,-53,-5,-51,-221,-277,-280,-240,-161
-66,-36,30,48,-47,-5,-51,-221,-277,-280,-240,-161
-66,-42,24,48,-47,-11,-45,-221,-277,-286,-240,-161
-66,-42,24,48,-47,-11,-45,-227,-277,-286,-234,-167
-66,-48,18,54,-41,-17,-45,-227,-283,-292,-240,-167
-66,-42,24,48,-47,-11,-51,-227,-283,-292,-240,-167
-72,-42,30,54,-53,-5,-57,-233,-283,-298,-252,-167
-72,-36,35,54,-53,1,-57,-233,-283,-304,-252,-167
-66,-36,30,48,-47,-5,-51,-233,-283,-298,-252,-167
-66,-36,30,48,-47,-5,-51,-233,-283,-298,-252,-167
-60,-36,24,48,-41,-5,-57,-239,-289,-304,-246,-167
-54,-24,30,36,-41,1,-63,-239,-283,-298,-246,-167
-54,-24,30,36,-41,1,-63,-239,-283,-298,-246,-167
-60,-30,30,42,-47,1,-63,-239,-283,-298,-246,-167
-60,-30,30,42,-47,1,-63,-239,-283,-304,-246,-167
-54,-30,24,36,-41,-5,-69,-239,-289,-298,-240,-167
-54,-30,24,36,-41,-5,-75,-233,-283,-298,-240,-161
-54,-30,24,36,-41,-5,-69,-233,-283,-292,-240,-161
-54,-36,18,42,-35,-11,-69,-233,-283,-298,-240,-167
-54,-36,18,42,-35,-11,-63,-227,-283,-298,-240,-167
-54,-30,24,36,-41,-5,-69,-233,-289,-298,-240,-167
-60,-24,35,42,-47,7,-81,-239,-295,-310,-240,-179
-54,-18,35,30,-47,7,-81,-239,-295,-310,-246,-179
-54,-12,40,30,-47,13,-75,-239,-295,-304,-252,-179
-54,-12,40,30,-47,13,-75,-245,-295,-304,-252,-179
-48,-6,40,24,-47,19,-75,-239,-301,-304,-246,-185
-48,-12,35,30,-41,13,-81,-245,-301,-304,-246,-185
-54,-24,30,36,-41,1,-81,-245,-301,-304,-252,-185
-48,-24,24,36,-35,1,-75,-245,-301,-310,-252,-185
-48,-24,24,36,-35,1,-75,-245,-295,-310,-252,-185
-48,-24,24,36,-35,1,-75,-245,-295,-310,-258,-185
-48,-24,24,36,-35,1,-81,-245,-295,-310,-258,-179
-48,-24,24,36,-35,1,-81,-245,-289,-310,-258,-179
-48,-24,24,36,-35,1,-81,-251,-289,-310,-252,-173
-48,-30,18,36,-35,-5,-81,-245,-289,-304,-246,-179
-48,-36,12,42,-29,-11,-81,-239,-283,-310,-246,-179
-60,-42,18,48,-41,-11,-81,-239,-289,-310,-246,-179
-54,-42,12,42,-35,-17,-75,-233,-289,-310,-246,-173
-48,-42,6,42,-29,-17,-75,-233,-295,-310,-246,-173
-48,-54,-6,48,-23,-29,-75,-233,-295,-310,-246,-173
-48,-54,-6,48,-23,-29,-75,-233,-295,-304,-240,-179
-48,-54,-6,48,-23,-29,-81,-233,-295,-304,-240,-173
-48,-48,0,48,-23,-23,-81,-233,-301,-304,-246,-173
-48,-48,0,48,-23,-23,-81,-233,-301,-304,-246,-179
-48,-42,6,42,-29,-17,-75,-233,-301,-310,-246,-179
-48,-36,12,42,-29,-11,-75,-233,-301,-310,-246,-179
-42,-30,12,30,-29,-11,-81,-227,-301,-304,-246,-179
-42,-24,18,30,-29,-5,-81,-227,-307,-304,-246,-179
-36,-18,18,24,-29,1,-81,-233,-307,-310,-252,-173
-36,-24,12,30,-23,-5,-75,-239,-313,-310,-246,-173
-42,-24,18,30,-29,-5,-75,-245,-307,-316,-246,-173
-42,-30,12,30,-29,-11,-75,-239,-301,-310,-246,-167
-42,-30,12,30,-29,-11,-75,-239,-301,-310,-240,-167
-42,-42,0,36,-23,-23,-69,-239,-295,-310,-246,-173
-42,-42,0,36,-23,-23,-69,-245,-301,-310,-246,-173
-42,-48,-6,42,-18,-29,-69,-245,-301,-310,-240,-173
-36,-42,-6,36,-18,-23,-69,-245,-301,-310,-240,-173
-36,-42,-6,36,-18,-23,-69,-239,-301,-310,-240,-173
-30,-30,0,24,-18,-17,-63,-239,-307,-310,-246,-167
-36,-36,0,36,-18,-17,-63,-239,-307,-310,-246,-173
-36,-36,0,36,-18,-17,-69,-239,-307,-310,-246,-173
-36,-42,-6,36,-18,-23,-75,-239,-313,-310,-246,-173
-30,-42,-12,30,-13,-29,-81,-239,-313,-310,-240,-167
-30,-42,-12,30,-13,-29,-75,-239,-313,-310,-234,-167
-36,-42,-6,36,-18,-23,-75,-239,-313,-304,-240,-173
-36,-48,-12,42,-13,-29,-75,-239,-313,-304,-240,-179
-42,-48,-6,42,-18,-29,-75,-233,-313,-298,-240,-191
-36,-42,-6,36,-18,-23,-75,-233,-313,-298,-240,-191
-36,-42,-6,36,-18,-23,-75,-227,-319,-298,-240,-191
-42,-48,-6,42,-18,-29,-75,-227,-325,-298,-252,-185
-30,-48,-18,36,-7,-35,-69,-227,-319,-304,-246,-179
-24,-48,-24,36,-1,-35,-75,-221,-319,-304,-246,-179
-24,-48,-24,36,-1,-35,-75,-227,-313,-310,-240,-185
-24,-48,-24,36,-1,-35,-75,-221,-307,-304,-234,-179
-24,-48,-24,36,-1,-35,-75,-227,-307,-304,-234,-173
-24,-42,-18,30,-7,-29,-75,-227,-307,-304,-234,-167
-24,-42,-18,30,-7,-29,-81,-227,-307,-310,-234,-161
-24,-42,-18,30,-7,-29,-75,-227,-313,-316,-240,-161
-24,-36,-12,30,-7,-23,-69,-233,-313,-316,-240,-167
-30,-36,-6,30,-13,-23,-69,-233,-319,-316,-240,-173
-30,-42,-12,30,-13,-29,-63,-227,-319,-316,-246,-173
-24,-36,-12,30,-7,-23,-63,-221,-313,-310,-240,-167
-24,-42,-18,30,-7,-29,-63,-215,-307,-304,-234,-167
-18,-48,-30,30,5,-41,-57,-215,-307,-304,-234,-173
-24,-54,-30,36,-1,-41,-51,-215,-313,-310,-234,-173
-18,-54,-36,30,5,-47,-51,-221,-313,-310,-240,-173
-18,-48,-30,30,5,-41,-57,-221,-307,-310,-234,-173
-18,-42,-24,24,-1,-35,-69,-221,-313,-310,-234,-173
-18,-36,-18,24,-1,-29,-69,-215,-307,-310,-228,-167
-18,-30,-12,18,-7,-23,-69,-215,-307,-310,-234,-161
-12,-30,-18,18,-1,-23,-69,-215,-313,-316,-234,-161
-6,-18,-12,6,-1,-17,-69,-221,-313,-316,-234,-161
-1,-24,-24,12,11,-23,-69,-221,-313,-316,-234,-161
-1,-24,-24,12,11,-23,-69,-227,-307,-310,-228,-155
-1,-30,-30,12,11,-29,-63,-221,-301,-310,-216,-161
-1,-18,-18,6,5,-17,-63,-215,-301,-304,-210,-155
-1,-12,-12,6,5,-11,-63,-203,-295,-298,-216,-149
-6,-18,-12,6,-1,-17,-69,-197,-289,-298,-216,-155
-6,-18,-12,6,-1,-17,-63,-191,-289,-310,-222,-161
-1,-24,-24,12,11,-23,-57,-191,-289,-316,-228,-161
-6,-30,-24,12,5,-29,-45,-185,-289,-316,-228,-161
-1,-36,-36,18,17,-35,-33,-185,-283,-304,-222,-155
16,-18,-36,0,23,-23,-28,-167,-265,-286,-204,-137
28,-18,-48,-6,35,-29,-17,-161,-253,-274,-192,-137
28,-6,-36,-12,29,-17,-11,-155,-247,-262,-186,-137
34,-6,-42,-17,35,-23,-5,-143,-241,-262,-174,-137
40,6,-36,-22,35,-11,-5,-137,-235,-256,-168,-131
46,6,-42,-28,41,-17,-11,-131,-229,-250,-168,-119
46,12,-36,-28,41,-11,-17,-125,-229,-244,-162,-107
46,12,-36,-28,41,-11,-23,-131,-223,-238,-156,-95
52,24,-30,-34,41,1,-28,-125,-217,-232,-150,-89
52,24,-30,-34,41,1,-28,-125,-223,-232,-150,-89
52,24,-30,-34,41,1,-45,-125,-223,-238,-144,-95
46,24,-24,-34,35,1,-63,-143,-229,-244,-156,-101
40,12,-30,-22,35,-5,-75,-149,-235,-250,-150,-107
40,6,-36,-22,35,-11,-81,-155,-247,-256,-150,-113
34,6,-30,-22,29,-11,-87,-167,-259,-262,-156,-113
34,6,-30,-22,29,-11,-81,-179,-271,-268,-162,-113
28,12,-18,-17,23,1,-87,-191,-271,-268,-168,-119
22,6,-18,-17,17,-5,-87,-191,-277,-274,-174,-119
22,-6,-30,-12,23,-17,-81,-191,-277,-286,-174,-125
28,-12,-42,-6,35,-23,-75,-185,-277,-292,-174,-125
22,-24,-48,0,35,-35,-81,-185,-283,-292,-168,-125
28,-30,-60,0,41,-41,-81,-185,-283,-292,-168,-125
22,-30,-54,0,35,-41,-81,-185,-283,-292,-174,-125
16,-36,-54,12,35,-41,-81,-191,-283,-292,-180,-131
10,-42,-54,12,29,-47,-81,-197,-289,-298,-180,-131
10,-42,-54,12,29,-47,-81,-191,-295,-304,-180,-131
4,-48,-54,24,29,-47,-87,-197,-301,-310,-180,-137
-1,-42,-42,18,17,-41,-87,-197,-307,-310,-198,-137
-6,-48,-42,24,17,-47,-87,-203,-307,-322,-204,-143
-6,-42,-36,18,11,-41,-81,-197,-301,-322,-198,-149
-6,-42,-36,18,11,-41,-69,-197,-301,-322,-192,-161
-6,-42,-36,18,11,-41,-69,-197,-313,-328,-192,-161
-12,-48,-36,30,11,-41,-75,-209,-313,-328,-198,-161
-12,-54,-42,30,11,-47,-75,-215,-319,-334,-204,-167
-18,-60,-42,36,11,-53,-81,-215,-325,-334,-210,-173
-24,-66,-42,42,5,-53,-81,-215,-331,-340,-216,-179
-18,-72,-54,42,17,-65,-81,-215,-337,-340,-216,-185
-18,-60,-42,36,11,-53,-93,-215,-337,-340,-210,-185
-18,-60,-42,36,11,-53,-93,-215,-337,-340,-210,-179
-24,-60,-36,42,5,-47,-93,-215,-331,-340,-216,-179
-30,-60,-30,42,-1,-47,-93,-215,-331,-340,-222,-179
-36,-60,-24,48,-7,-41,-87,-221,-337,-346,-222,-179
-36,-60,-24,48,-7,-41,-87,-221,-331,-340,-216,-179
-30,-66,-36,42,-1,-53,-87,-215,-331,-340,-216,-185
-30,-54,-24,36,-7,-41,-87,-215,-325,-340,-222,-179
-36,-54,-18,42,-13,-35,-87,-209,-325,-340,-222,-179
-36,-54,-18,42,-13,-35,-93,-209,-325,-340,-222,-167
-36,-54,-18,42,-13,-35,-99,-197,-325,-340,-222,-167
-42,-54,-12,42,-18,-35,-99,-197,-325,-340,-222,-167
-48,-60,-12,54,-18,-35,-93,-191,-325,-340,-222,-167
-54,-66,-12,54,-23,-41,-93,-191,-319,-340,-216,-173
-54,-66,-12,54,-23,-41,-87,-197,-319,-340,-216,-173
-42,-54,-12,42,-18,-35,-87,-185,-307,-334,-210,-167
-42,-60,-18,48,-13,-41,-81,-173,-289,-322,-204,-167
-30,-84,-54,54,11,-71,-69,-155,-277,-310,-204,-173
-30,-120,-90,72,29,-107,-51,-131,-259,-298,-204,-173
-24,-156,-132,90,53,-143,-28,-101,-241,-280,-198,-173
-30,-204,-174,114,71,-191,-23,-65,-205,-262,-186,-167
-24,-246,-222,132,95,-233,1,-24,-169,-250,-180,-161
-18,-300,-282,156,131,-293,19,17,-133,-220,-168,-155
-6,-348,-342,174,167,-347,49,65,-97,-184,-156,-149
4,-414,-420,204,209,-413,79,119,-55,-148,-144,-137
28,-480,-510,228,269,-491,103,167,-20,-106,-126,-137
52,-540,-594,246,323,-563,127,215,15,-64,-108,-125
70,-606,-678,264,371,-641,145,257,45,-40,-90,-107
82,-660,-744,288,413,-701,157,287,69,-24,-78,-95
100,-720,-822,312,461,-767,175,317,93,0,-60,-83
112,-774,-888,330,497,-827,187,359,129,24,-36,-65
136,-828,-966,348,551,-893,187,401,171,60,-8,-47
154,-876,-1032,360,593,-953,199,443,213,96,16,-25
172,-930,-1104,378,635,-1013,217,491,261,138,34,-7
196,-984,-1182,396,689,-1079,235,539,309,186,58,11
226,-1050,-1278,408,749,-1163,259,611,363,234,76,29
262,-1134,-1398,432,827,-1265,289,701,429,294,106,47
298,-1224,-1524,462,911,-1373,337,821,513,366,136,65
346,-1302,-1650,474,995,-1475,379,941,627,450,184,101
388,-1368,-1758,492,1073,-1559,415,1055,765,564,262,149
436,-1410,-1848,486,1139,-1625,451,1181,921,714,364,221
496,-1458,-1956,480,1223,-1703,475,1319,1113,894,508,317
556,-1494,-2052,468,1301,-1769,511,1469,1335,1122,664,413
622,-1518,-2142,444,1379,-1829,541,1643,1599,1392,850,539
700,-1512,-2214,408,1457,-1859,559,1817,1893,1704,1096,701
778,-1494,-2274,354,1523,-1883,577,1967,2241,2082,1390,905
856,-1452,-2310,300,1583,-1877,577,2087,2618,2489,1708,1121
928,-1410,-2340,240,1631,-1871,589,2177,2978,2891,2032,1343
982,-1326,-2310,168,1643,-1817,583,2147,3200,3215,2338,1553
1024,-1224,-2250,102,1637,-1733,547,2003,3248,3443,2613,1751
1042,-1140,-2184,48,1613,-1661,523,1793,3134,3563,2823,1895
1048,-1062,-2112,6,1577,-1583,499,1535,2906,3569,2949,1991
1030,-996,-2028,-17,1529,-1511,481,1247,2612,3479,2997,2039
982,-942,-1926,-22,1451,-1433,433,959,2283,3317,2955,2027
916,-882,-1800,-17,1355,-1337,343,665,1929,3089,2853,1979
832,-834,-1668,0,1247,-1247,253,419,1575,2777,2649,1859
718,-828,-1548,54,1133,-1187,217,245,1233,2370,2308,1631
580,-864,-1446,144,1013,-1151,223,119,915,1896,1858,1301
430,-906,-1338,234,881,-1121,241,11,567,1350,1342,929
304,-906,-1212,300,755,-1055,235,-89,201,750,814,563
190,-888,-1080,348,635,-983,211,-191,-109,246,370,263
106,-840,-948,366,527,-893,157,-269,-313,-88,64,59
58,-792,-852,366,455,-821,79,-329,-433,-286,-114,-71
28,-744,-774,360,401,-755,7,-371,-499,-382,-210,-143
4,-690,-696,342,347,-689,-28,-377,-529,-418,-258,-185
-12,-630,-618,318,299,-623,-39,-365,-535,-430,-282,-209
-36,-576,-540,306,251,-557,-33,-341,-523,-442,-288,-221
-60,-522,-462,288,197,-491,-28,-317,-505,-442,-288,-221
-72,-444,-372,258,149,-407,-39,-287,-475,-436,-282,-209
-78,-366,-288,216,101,-329,-33,-257,-433,-418,-270,-197
-78,-300,-222,186,71,-263,-28,-221,-385,-394,-252,-185
-78,-246,-168,156,41,-209,-17,-191,-343,-370,-234,-173
-78,-198,-120,132,17,-161,-5,-161,-301,-346,-222,-173
-78,-150,-72,108,-7,-113,1,-137,-271,-322,-204,-167
-78,-114,-36,90,-23,-77,7,-125,-247,-298,-192,-155
-78,-72,6,72,-41,-35,13,-107,-235,-292,-180,-143
-84,-48,35,66,-59,-5,1,-101,-247,-292,-186,-143
-96,-18,76,54,-89,31,-5,-95,-241,-298,-186,-137
-90,24,112,30,-101,65,-5,-83,-229,-292,-180,-131
-84,52,136,18,-107,95,-17,-77,-217,-292,-174,-131
-78,76,154,0,-113,113,-17,-65,-205,-286,-174,-137
-72,82,154,-6,-113,119,-23,-59,-205,-286,-180,-143
-72,82,154,-6,-113,119,-23,-47,-193,-286,-180,-149
-72,76,148,0,-107,113,-23,-47,-193,-280,-180,-143
-72,82,154,-6,-113,119,-17,-41,-199,-274,-180,-143
-72,82,154,-6,-113,119,-11,-41,-199,-274,-180,-137
-72,94,166,-12,-119,131,-11,-41,-205,-274,-174,-131
-84,100,184,-6,-131,143,-17,-41,-211,-274,-174,-131
-90,106,196,-12,-143,149,-17,-41,-211,-274,-162,-131
-84,118,202,-17,-143,161,-17,-35,-199,-280,-162,-131
-78,118,196,-22,-137,155,-23,-29,-193,-274,-156,-125
-72,130,202,-28,-137,167,-23,-29,-193,-268,-150,-119
-78,124,202,-22,-137,161,-23,-29,-199,-268,-156,-119
-90,124,214,-17,-149,167,-23,-35,-205,-262,-156,-113
-96,124,220,-12,-155,173,-17,-29,-199,-256,-162,-107
-96,136,232,-17,-161,185,-17,-24,-187,-250,-162,-113
-90,136,226,-22,-155,179,-17,-19,-187,-244,-162,-107
-90,136,226,-22,-155,179,-23,-19,-193,-244,-162,-107
-90,142,232,-28,-161,185,-28,-19,-187,-244,-156,-107
-96,142,238,-22,-167,191,-28,-19,-181,-244,-150,-107
-90,148,238,-28,-161,191,-23,-13,-175,-238,-150,-101
-84,154,238,-34,-161,197,-23,-13,-163,-226,-138,-95
-84,160,244,-34,-161,203,-17,-7,-163,-220,-132,-95
-78,172,250,-46,-161,209,-17,-7,-163,-214,-120,-89
-66,190,256,-64,-161,221,-17,-1,-157,-208,-114,-83
-66,190,256,-64,-161,221,-17,5,-157,-208,-108,-83
-78,190,268,-58,-173,227,-23,5,-151,-202,-108,-83
-78,184,262,-52,-167,221,-28,11,-151,-196,-102,-83
-78,184,262,-52,-167,221,-23,17,-151,-190,-102,-83
-78,190,268,-58,-173,227,-28,17,-145,-190,-102,-77
-78,184,262,-52,-167,221,-28,17,-139,-190,-108,-77
-84,190,274,-52,-179,233,-28,23,-139,-184,-108,-77
-90,184,274,-46,-179,227,-28,23,-139,-184,-114,-71
-78,202,280,-64,-179,239,-28,23,-133,-178,-108,-71
-66,214,280,-76,-173,245,-28,29,-121,-172,-96,-65
-60,226,286,-82,-173,257,-28,35,-115,-166,-90,-65
-54,250,304,-100,-179,275,-28,35,-109,-160,-84,-59
-54,262,316,-106,-185,287,-28,41,-97,-154,-78,-65
-60,262,322,-100,-191,293,-33,41,-103,-154,-78,-65
-66,262,328,-100,-197,293,-28,47,-91,-142,-84,-59
-66,256,322,-94,-191,287,-28,59,-91,-136,-78,-53
-66,262,328,-100,-197,293,-23,59,-79,-130,-72,-47
-60,262,322,-100,-191,293,-17,71,-67,-130,-60,-41
-60,262,322,-100,-191,293,-28,65,-61,-124,-54,-35
-54,262,316,-106,-185,287,-28,65,-55,-118,-54,-35
-54,268,322,-106,-185,293,-23,65,-49,-118,-54,-35
-54,268,322,-106,-185,293,-23,65,-43,-112,-42,-30
-54,280,334,-112,-191,305,-28,71,-37,-100,-36,-25
-54,286,340,-118,-197,311,-28,77,-37,-100,-31,-25
-54,292,346,-118,-197,317,-33,77,-37,-88,-26,-19
-54,304,358,-124,-203,329,-28,83,-25,-82,-20,-13
-48,310,358,-130,-203,335,-28,89,-20,-70,-14,-13
-42,316,358,-136,-197,335,-28,95,-15,-58,-8,-13
-42,316,358,-136,-197,335,-23,101,-15,-52,-2,-7
-42,328,370,-142,-203,347,-28,107,-3,-40,4,-1
-42,334,376,-148,-209,353,-28,113,15,-40,10,5
-36,340,376,-148,-203,359,-28,119,27,-34,16,11
-42,346,388,-154,-215,365,-28,131,33,-29,16,17
-42,352,394,-154,-215,371,-28,137,45,-24,22,23
-36,370,406,-166,-221,389,-28,149,57,-12,34,23
-24,382,406,-178,-215,395,-28,161,63,6,40,35
-18,394,412,-190,-215,401,-28,173,75,12,52,47
-24,394,418,-184,-221,407,-33,179,81,18,58,47
-18,406,424,-196,-221,413,-33,185,87,30,76,59
-12,412,424,-196,-215,419,-33,191,105,42,82,65
-6,424,430,-208,-215,425,-33,203,117,60,94,71
-12,436,448,-208,-227,443,-33,209,135,72,106,77
-12,442,454,-214,-233,449,-39,221,141,78,106,77
-12,454,466,-220,-239,461,-45,227,147,84,112,83
-12,472,484,-226,-245,479,-45,239,159,96,118,89
-6,490,496,-244,-251,491,-39,251,171,108,118,95
-1,508,508,-250,-251,509,-39,269,189,126,142,107
4,514,508,-256,-251,515,-45,281,201,138,154,119
4,526,520,-262,-257,527,-51,287,213,138,160,125
10,544,532,-274,-257,539,-45,299,231,150,172,131
10,568,556,-286,-269,563,-45,311,249,168,178,143
16,580,562,-292,-269,575,-39,323,273,180,184,155
16,598,580,-304,-281,593,-45,335,285,192,196,161
16,604,586,-304,-281,599,-45,347,297,204,208,167
22,616,592,-316,-281,605,-45,359,315,222,220,173
22,628,604,-322,-287,617,-51,377,327,240,232,179
28,634,604,-328,-287,623,-57,395,345,264,244,185
28,646,616,-334,-293,635,-63,401,351,276,250,197
28,652,622,-334,-293,641,-69,413,369,294,268,209
34,670,634,-352,-299,653,-69,431,387,306,286,227
46,688,640,-364,-293,665,-63,449,411,324,310,245
64,700,634,-376,-281,671,-63,461,435,342,328,257
64,718,652,-388,-293,689,-69,473,447,354,340,269
70,730,658,-400,-293,695,-75,479,465,378,352,275
76,748,670,-406,-293,713,-75,491,483,402,364,287
76,760,682,-412,-299,725,-75,503,501,414,370,299
76,772,694,-418,-305,737,-75,509,513,426,388,311
82,796,712,-436,-311,755,-69,515,519,444,406,323
88,808,718,-442,-311,767,-69,527,537,456,424,329
100,826,724,-460,-311,779,-69,545,555,474,436,335
106,832,724,-466,-305,779,-75,557,567,486,454,347
112,844,730,-472,-305,791,-81,563,579,498,466,353
112,850,736,-478,-311,797,-93,569,585,504,478,365
112,850,736,-478,-311,797,-99,575,597,516,490,377
112,856,742,-478,-311,803,-105,581,615,534,508,389
118,868,748,-490,-311,809,-105,587,633,558,514,401
124,874,748,-496,-311,815,-105,593,645,570,526,407
112,862,748,-484,-317,809,-105,587,651,582,538,413
112,862,748,-484,-317,809,-99,593,663,594,550,413
118,850,730,-484,-305,791,-99,593,675,606,562,419
118,850,730,-484,-305,791,-99,593,681,618,574,431
130,850,718,-490,-293,785,-93,593,687,630,586,443
136,838,700,-484,-281,773,-93,593,687,636,586,449
142,832,688,-484,-269,761,-93,587,687,642,598,455
148,826,676,-484,-263,755,-93,581,687,636,604,461
154,814,658,-484,-251,737,-99,569,687,642,610,461
154,802,646,-478,-245,725,-99,563,687,648,610,467
142,778,634,-460,-245,707,-99,551,687,654,616,467
142,766,622,-454,-239,695,-99,539,681,654,610,467
154,754,598,-454,-221,677,-99,527,681,654,610,467
148,736,586,-436,-215,665,-99,509,663,636,598,455
148,712,562,-424,-203,641,-99,485,645,624,586,443
148,688,538,-412,-191,617,-93,467,621,606,574,437
148,664,514,-400,-179,593,-93,449,603,588,568,425
142,628,484,-382,-167,557,-93,431,579,570,550,407
142,592,448,-364,-149,521,-99,413,555,546,532,395
148,562,412,-352,-131,491,-87,395,525,516,508,383
142,532,388,-334,-119,461,-81,377,489,492,484,365
130,496,364,-310,-113,431,-69,353,459,462,454,353
118,466,346,-292,-113,407,-63,329,423,438,430,335
100,430,328,-262,-113,383,-57,299,387,402,400,317
88,388,298,-232,-101,347,-57,269,351,366,364,287
82,358,274,-220,-95,317,-57,245,309,324,322,263
88,334,244,-208,-77,293,-45,221,279,282,298,239
82,310,226,-196,-71,269,-39,203,243,246,268,215
70,280,208,-172,-65,245,-39,185,207,210,238,191
52,262,208,-154,-77,239,-33,161,171,174,214,167
46,238,190,-142,-71,215,-28,143,129,144,190,143
40,214,172,-124,-65,197,-33,125,99,120,160,125
34,196,160,-112,-59,179,-33,107,75,90,130,107
28,178,148,-100,-59,167,-28,83,51,66,106,83
22,160,136,-88,-53,149,-33,59,27,42,76,65
22,136,112,-76,-41,125,-28,41,-3,12,46,47
28,124,94,-70,-29,113,-23,23,-20,-6,22,29
28,106,76,-64,-23,95,-23,17,-37,-29,4,17
16,76,58,-40,-18,71,-17,11,-55,-46,-8,5
10,58,46,-34,-18,53,-11,-1,-73,-70,-31,-1
-1,46,46,-22,-23,47,-5,-13,-91,-88,-36,-13
-6,35,40,-17,-23,36,-5,-24,-109,-112,-48,-25
-18,30,46,-12,-35,36,-11,-24,-127,-124,-60,-35
-24,24,46,0,-35,36,-11,-35,-133,-136,-72,-47
-18,24,40,-6,-29,31,-5,-47,-139,-148,-84,-59
-18,18,35,-6,-29,25,1,-53,-151,-154,-96,-71
-18,18,35,-6,-29,25,1,-53,-157,-166,-120,-77
-18,0,18,6,-18,7,7,-53,-163,-172,-132,-83
-30,-12,18,18,-23,1,1,-53,-175,-178,-144,-89
-24,-24,0,24,-13,-11,1,-59,-181,-184,-144,-89
-24,-30,-6,24,-13,-17,7,-59,-181,-184,-138,-95
-24,-36,-12,30,-7,-23,13,-59,-187,-190,-132,-95
-24,-30,-6,24,-13,-17,13,-65,-193,-190,-132,-95
-24,-36,-12,30,-7,-23,7,-65,-193,-196,-138,-95
-36,-36,0,36,-18,-17,7,-71,-193,-202,-150,-101
-42,-36,6,36,-23,-17,13,-71,-193,-202,-156,-101
-42,-42,0,36,-23,-23,19,-71,-199,-202,-156,-107
-42,-30,12,30,-29,-11,19,-77,-199,-208,-162,-107
-42,-30,12,30,-29,-11,13,-95,-205,-208,-162,-113
-42,-30,12,30,-29,-11,7,-107,-205,-214,-162,-119
-42,-30,12,30,-29,-11,7,-125,-205,-214,-168,-119
-42,-30,12,30,-29,-11,13,-137,-205,-214,-174,-119
-48,-36,12,42,-29,-11,13,-149,-205,-220,-174,-125
-54,-48,6,48,-29,-23,13,-155,-199,-226,-174,-125
-48,-42,6,42,-29,-17,13,-167,-199,-226,-174,-119
-42,-42,0,36,-23,-23,13,-173,-199,-220,-174,-119
-42,-36,6,36,-23,-17,7,-185,-205,-220,-180,-119
-42,-30,12,30,-29,-11,7,-185,-205,-220,-180,-119
-48,-24,24,36,-35,1,7,-191,-205,-220,-180,-113
-48,-18,30,30,-41,7,1,-191,-205,-226,-174,-113
-54,-18,35,30,-47,7,1,-197,-205,-220,-168,-113
-66,-18,46,36,-59,13,1,-203,-205,-220,-168,-113
-60,-12,46,36,-53,19,1,-209,-205,-220,-168,-119
-54,-12,40,30,-47,13,7,-209,-199,-214,-168,-119
-54,-6,46,24,-53,19,1,-215,-199,-214,-174,-125
-54,-12,40,30,-47,13,1,-215,-193,-226,-180,-131
-54,-12,40,30,-47,13,-5,-221,-199,-226,-180,-131
-54,-12,40,30,-47,13,-11,-227,-193,-226,-180,-125
-54,-18,35,30,-47,7,-5,-233,-199,-232,-180,-125
-54,-12,40,30,-47,13,1,-233,-193,-226,-180,-125
-54,-12,40,30,-47,13,7,-233,-193,-232,-180,-119
-54,-6,46,24,-53,19,7,-233,-199,-238,-174,-119
-54,-6,46,24,-53,19,1,-239,-193,-238,-180,-119
-54,-12,40,30,-47,13,1,-233,-187,-232,-180,-125
-54,-12,40,30,-47,13,-5,-239,-187,-238,-180,-125
-54,-6,46,24,-53,19,-5,-239,-187,-232,-180,-119
-48,6,52,18,-53,31,-5,-245,-187,-238,-186,-119
-60,6,64,24,-65,36,-5,-251,-193,-250,-186,-119
-66,12,76,24,-71,41,-11,-263,-199,-250,-192,-119
-66,12,76,24,-71,41,-17,-257,-199,-250,-198,-119
-66,12,76,24,-71,41,-17,-263,-193,-250,-192,-119
-66,18,82,18,-77,47,-17,-263,-193,-244,-192,-125
-72,6,76,30,-77,41,-17,-263,-199,-244,-192,-131
-72,6,76,30,-77,41,-17,-263,-199,-250,-192,-131
-66,6,70,24,-71,36,-23,-263,-199,-250,-192,-137
-66,6,70,24,-71,36,-28,-263,-199,-244,-192,-137
-60,18,76,18,-71,47,-28,-263,-199,-244,-198,-137
-60,24,82,18,-71,53,-28,-269,-199,-244,-198,-131
-60,30,88,12,-77,59,-28,-275,-199,-244,-204,-131
-54,35,88,6,-71,59,-23,-287,-193,-256,-210,-131
-60,30,88,12,-77,59,-23,-287,-193,-256,-210,-137
-54,35,88,6,-71,59,-17,-281,-193,-256,-204,-131
-54,35,88,6,-71,59,-17,-275,-199,-256,-198,-131
-54,35,88,6,-71,59,-11,-275,-199,-244,-198,-131
-54,30,82,6,-71,53,-11,-275,-199,-244,-198,-131
-60,18,76,18,-71,47,-11,-275,-205,-250,-198,-137
-60,24,82,18,-71,53,-23,-275,-205,-244,-198,-137
-54,24,76,12,-65,47,-28,-281,-211,-244,-192,-137
-54,35,88,6,-71,59,-28,-287,-211,-244,-192,-143
-60,30,88,12,-77,59,-28,-287,-211,-250,-192,-137
-54,30,82,6,-71,53,-23,-293,-205,-250,-198,-131
-54,30,82,6,-71,53,-23,-293,-205,-262,-198,-137
-54,24,76,12,-65,47,-28,-299,-211,-256,-198,-137
-54,18,70,12,-65,41,-33,-299,-211,-256,-198,-137
-60,12,70,24,-65,41,-39,-299,-205,-256,-198,-131
-60,12,70,24,-65,41,-33,-305,-211,-250,-198,-131
-54,6,58,18,-59,31,-28,-305,-217,-244,-198,-131
-54,6,58,18,-59,31,-28,-305,-217,-244,-204,-131
-60,0,58,30,-59,31,-33,-305,-217,-256,-204,-131
-60,-6,52,30,-59,25,-33,-305,-217,-256,-204,-131
-60,-6,52,30,-59,25,-33,-311,-217,-262,-210,-131
-60,-12,46,36,-53,19,-33,-305,-217,-262,-204,-131
-66,-18,46,36,-59,13,-33,-311,-217,-262,-210,-131
-54,-18,35,30,-47,7,-33,-317,-217,-262,-210,-131
-48,-12,35,30,-41,13,-33,-317,-217,-262,-210,-131
-42,-12,30,24,-35,7,-33,-317,-223,-262,-216,-137
-48,-12,35,30,-41,13,-39,-323,-229,-262,-216,-137
-48,-18,30,30,-41,7,-39,-317,-229,-256,-210,-131
-48,-12,35,30,-41,13,-33,-323,-229,-256,-204,-131
-42,-12,30,24,-35,7,-33,-317,-229,-256,-204,-131
-54,-24,30,36,-41,1,-39,-317,-229,-262,-198,-131
-54,-24,30,36,-41,1,-33,-317,-223,-262,-192,-125
-54,-30,24,36,-41,-5,-33,-317,-217,-256,-198,-131
-60,-30,30,42,-47,1,-33,-311,-217,-262,-204,-137
-54,-30,24,36,-41,-5,-33,-311,-217,-262,-204,-143
-54,-36,18,42,-35,-11,-39,-317,-211,-262,-210,-149
-48,-30,18,36,-35,-5,-33,-317,-211,-268,-204,-155
-42,-30,12,30,-29,-11,-33,-311,-205,-262,-198,-149
-36,-24,12,30,-23,-5,-39,-311,-211,-262,-198,-143
-42,-30,12,30,-29,-11,-45,-311,-217,-262,-210,-143
-48,-36,12,42,-29,-11,-39,-311,-229,-268,-210,-137
-36,-36,0,36,-18,-17,-39,-305,-223,-268,-210,-137
-36,-36,0,36,-18,-17,-33,-311,-217,-274,-210,-137
-30,-30,0,24,-18,-17,-33,-311,-217,-268,-204,-137
-36,-42,-6,36,-18,-23,-33,-317,-223,-274,-210,-143
-36,-54,-18,42,-13,-35,-33,-317,-223,-274,-216,-143
-48,-60,-12,54,-18,-35,-33,-323,-223,-274,-222,-143
-54,-60,-6,54,-23,-35,-28,-323,-223,-274,-228,-137
-54,-60,-6,54,-23,-35,-28,-317,-223,-280,-222,-137
-54,-60,-6,54,-23,-35,-28,-317,-229,-274,-216,-137
-48,-54,-6,48,-23,-29,-28,-311,-235,-274,-210,-137
-54,-54,0,48,-29,-29,-28,-311,-235,-274,-210,-149
-54,-48,6,48,-29,-23,-28,-311,-229,-268,-204,-149
-48,-42,6,42,-29,-17,-28,-311,-223,-262,-198,-143
-48,-48,0,48,-23,-23,-33,-317,-223,-274,-210,-149
-54,-54,0,48,-29,-29,-39,-317,-229,-280,-216,-155
-60,-54,6,54,-35,-23,-45,-317,-223,-286,-222,-155
-54,-60,-6,54,-23,-35,-45,-323,-223,-286,-222,-155
-48,-54,-6,48,-23,-29,-39,-323,-217,-280,-222,-155
-48,-54,-6,48,-23,-29,-39,-323,-217,-280,-222,-155
-42,-54,-12,42,-18,-35,-39,-317,-223,-280,-216,-155
-42,-54,-12,42,-18,-35,-39,-317,-217,-280,-216,-155
-42,-60,-18,48,-13,-41,-39,-317,-217,-280,-222,-155
-48,-66,-18,54,-18,-41,-45,-317,-223,-280,-222,-155
-48,-60,-12,54,-18,-35,-39,-311,-223,-286,-222,-155
-54,-60,-6,54,-23,-35,-39,-311,-229,-286,-222,-161
-48,-54,-6,48,-23,-29,-45,-317,-235,-292,-228,-161
-54,-60,-6,54,-23,-35,-45,-317,-235,-292,-228,-167
-54,-54,0,48,-29,-29,-45,-323,-235,-286,-222,-161
-48,-48,0,48,-23,-23,-45,-317,-229,-280,-222,-155
-54,-54,0,48,-29,-29,-45,-323,-223,-280,-222,-155
-60,-60,0,60,-29,-29,-51,-323,-229,-280,-222,-161
-60,-66,-6,60,-29,-35,-57,-317,-223,-286,-222,-161
-54,-54,0,48,-29,-29,-57,-317,-217,-286,-222,-161
-54,-54,0,48,-29,-29,-57,-317,-217,-286,-216,-155
-54,-60,-6,54,-23,-35,-51,-317,-217,-286,-216,-155
-48,-54,-6,48,-23,-29,-51,-317,-217,-280,-222,-155
-54,-60,-6,54,-23,-35,-51,-317,-217,-280,-228,-161
-66,-66,0,60,-35,-35,-57,-323,-223,-286,-228,-167
-66,-66,0,60,-35,-35,-57,-317,-223,-286,-228,-167
-60,-66,-6,60,-29,-35,-57,-317,-223,-286,-222,-167
-54,-54,0,48,-29,-29,-51,-317,-223,-286,-222,-161
-54,-60,-6,54,-23,-35,-45,-323,-235,-286,-222,-161
-54,-60,-6,54,-23,-35,-45,-323,-235,-286,-222,-161
-54,-60,-6,54,-23,-35,-51,-323,-241,-292,-222,-161
-54,-60,-6,54,-23,-35,-57,-329,-235,-298,-228,-161
-54,-54,0,48,-29,-29,-63,-323,-229,-292,-228,-167
-48,-48,0,48,-23,-23,-63,-329,-229,-292,-228,-167
-54,-54,0,48,-29,-29,-57,-329,-229,-292,-228,-167
-54,-54,0,48,-29,-29,-57,-323,-229,-286,-228,-161
-54,-60,-6,54,-23,-35,-51,-323,-229,-286,-228,-161
-60,-60,0,60,-29,-29,-45,-323,-223,-286,-222,-161
-54,-66,-12,54,-23,-41,-45,-323,-223,-286,-228,-161
-60,-60,0,60,-29,-29,-51,-323,-223,-286,-234,-167
-54,-54,0,48,-29,-29,-57,-329,-229,-286,-234,-173
-48,-54,-6,48,-23,-29,-63,-329,-229,-286,-234,-185
-54,-54,0,48,-29,-29,-63,-335,-229,-286,-240,-185
-60,-60,0,60,-29,-29,-63,-335,-235,-292,-240,-185
-54,-60,-6,54,-23,-35,-63,-335,-229,-292,-234,-179
-54,-54,0,48,-29,-29,-63,-335,-235,-292,-234,-173
-54,-54,0,48,-29,-29,-57,-329,-235,-286,-234,-173
-48,-54,-6,48,-23,-29,-51,-329,-229,-286,-228,-167
-48,-48,0,48,-23,-23,-57,-329,-229,-280,-228,-167
-60,-60,0,60,-29,-29,-51,-335,-235,-286,-228,-167
-54,-60,-6,54,-23,-35,-51,-329,-235,-286,-222,-173
-48,-54,-6,48,-23,-29,-45,-323,-235,-280,-216,-173
-48,-54,-6,48,-23,-29,-45,-323,-229,-280,-210,-173
-42,-54,-12,42,-18,-35,-45,-323,-229,-280,-210,-173
-42,-54,-12,42,-18,-35,-51,-323,-229,-280,-222,-173
-42,-60,-18,48,-13,-41,-51,-323,-229,-280,-222,-173
-48,-60,-12,54,-18,-35,-51,-323,-235,-280,-228,-179
-54,-66,-12,54,-23,-41,-57,-323,-241,-280,-228,-179
-60,-66,-6,60,-29,-35,-57,-323,-241,-280,-228,-179
-60,-60,0,60,-29,-29,-57,-323,-241,-280,-228,-185
-54,-60,-6,54,-23,-35,-63,-323,-235,-274,-228,-179
-54,-54,0,48,-29,-29,-63,-317,-235,-280,-222,-179
-48,-54,-6,48,-23,-29,-63,-323,-235,-280,-222,-173
-48,-54,-6,48,-23,-29,-63,-323,-235,-280,-222,-173
-42,-48,-6,42,-18,-29,-63,-323,-241,-280,-222,-173
-48,-54,-6,48,-23,-29,-63,-323,-241,-274,-228,-179
-48,-60,-12,54,-18,-35,-63,-323,-241,-268,-222,-179
-48,-54,-6,48,-23,-29,-69,-323,-235,-262,-222,-179
-54,-48,6,48,-29,-23,-69,-323,-241,-262,-222,-185
-48,-42,6,42,-29,-17,-69,-323,-241,-262,-222,-191
-48,-48,0,48,-23,-23,-63,-323,-241,-256,-228,-191
-42,-60,-18,48,-13,-41,-57,-317,-241,-262,-228,-185
-42,-60,-18,48,-13,-41,-57,-317,-241,-262,-228,-185
-48,-72,-24,60,-13,-47,-63,-323,-247,-262,-228,-179
-48,-72,-24,60,-13,-47,-63,-317,-253,-268,-234,-173
-48,-66,-18,54,-18,-41,-63,-317,-253,-268,-234,-173
-48,-60,-12,54,-18,-35,-63,-317,-253,-268,-234,-167
-54,-60,-6,54,-23,-35,-63,-317,-253,-268,-234,-173
-54,-54,0,48,-29,-29,-75,-317,-247,-268,-240,-179
-54,-48,6,48,-29,-23,-87,-317,-247,-268,-240,-173
-54,-48,6,48,-29,-23,-87,-317,-259,-268,-240,-179
-54,-54,0,48,-29,-29,-81,-311,-259,-262,-234,-179
-48,-54,-6,48,-23,-29,-75,-311,-259,-262,-228,-179
-42,-36,6,36,-23,-17,-69,-311,-265,-256,-228,-179
-48,-42,6,42,-29,-17,-75,-317,-265,-256,-228,-179
-54,-48,6,48,-29,-23,-81,-323,-271,-256,-228,-179
-48,-42,6,42,-29,-17,-75,-317,-277,-256,-234,-179
-36,-36,0,36,-18,-17,-63,-311,-271,-256,-234,-173
-36,-36,0,36,-18,-17,-63,-305,-271,-250,-234,-173
-36,-42,-6,36,-18,-23,-57,-305,-271,-250,-234,-173
-36,-48,-12,42,-13,-29,-51,-305,-277,-256,-234,-179
-30,-42,-12,30,-13,-29,-51,-293,-277,-250,-228,-173
-24,-42,-18,30,-7,-29,-51,-293,-277,-244,-222,-173
-30,-36,-6,30,-13,-23,-45,-281,-265,-244,-222,-167
-24,-18,6,18,-18,-5,-45,-275,-259,-232,-222,-167
-24,-18,6,18,-18,-5,-45,-269,-253,-226,-216,-167
-24,-18,6,18,-18,-5,-45,-263,-247,-220,-210,-167
-24,-18,6,18,-18,-5,-39,-257,-247,-214,-204,-167
-18,-12,6,12,-13,-5,-28,-245,-235,-208,-198,-161
-18,-12,6,12,-13,-5,-23,-245,-223,-208,-198,-155
-18,-12,6,12,-13,-5,-17,-239,-217,-202,-186,-149
-12,-6,6,6,-13,1,-11,-233,-211,-196,-180,-143
-6,0,6,0,-7,1,-11,-221,-205,-190,-180,-143
-1,0,0,0,-1,1,-17,-215,-199,-178,-174,-143
4,0,-6,0,5,1,-28,-203,-187,-166,-162,-143
4,0,-6,0,5,1,-28,-203,-187,-160,-156,-143
-1,-6,-6,0,-1,-5,-33,-203,-187,-160,-150,-137
-6,0,6,0,-7,1,-33,-203,-193,-154,-150,-131
-1,6,6,-6,-7,7,-39,-209,-193,-154,-150,-131
-12,-6,6,6,-13,1,-57,-227,-199,-160,-156,-125
-18,-12,6,12,-13,-5,-75,-239,-205,-166,-162,-125
-18,-18,0,12,-13,-11,-87,-245,-217,-178,-174,-125
-24,-24,0,24,-13,-11,-93,-251,-217,-184,-180,-119
-30,-30,0,24,-18,-17,-99,-257,-229,-196,-192,-125
-36,-30,6,30,-23,-11,-99,-269,-235,-202,-192,-125
-36,-24,12,30,-23,-5,-99,-269,-241,-208,-198,-119
-36,-30,6,30,-23,-11,-99,-269,-253,-208,-192,-119
-48,-48,0,48,-23,-23,-105,-275,-253,-214,-192,-125
-48,-60,-12,54,-18,-35,-99,-275,-253,-208,-180,-125
-42,-60,-18,48,-13,-41,-99,-275,-247,-208,-180,-125
-42,-54,-12,42,-18,-35,-99,-269,-241,-202,-174,-125
-42,-54,-12,42,-18,-35,-99,-275,-241,-202,-174,-131
-48,-54,-6,48,-23,-29,-99,-275,-253,-202,-180,-143
-54,-54,0,48,-29,-29,-99,-275,-259,-202,-180,-143
-60,-60,0,60,-29,-29,-99,-275,-265,-214,-192,-149
-72,-66,6,66,-41,-29,-99,-281,-271,-226,-198,-155
-84,-84,0,84,-41,-41,-99,-293,-277,-238,-210,-161
-84,-90,-6,84,-41,-47,-93,-299,-283,-244,-216,-161
-90,-96,-6,90,-41,-53,-93,-299,-289,-244,-228,-167
-90,-108,-18,96,-35,-65,-93,-305,-289,-250,-228,-179
-90,-102,-12,90,-41,-59,-99,-311,-289,-250,-228,-179
-96,-102,-6,96,-47,-53,-105,-311,-289,-250,-228,-191
-96,-96,0,96,-47,-47,-105,-305,-289,-256,-234,-191
-96,-102,-6,96,-47,-53,-105,-305,-295,-256,-234,-197
-102,-108,-6,102,-47,-59,-105,-311,-301,-256,-234,-191
-108,-108,0,108,-53,-53,-99,-305,-295,-250,-234,-191
-102,-108,-6,102,-47,-59,-105,-299,-295,-250,-234,-191
-102,-108,-6,102,-47,-59,-111,-299,-295,-244,-228,-185
-96,-102,-6,96,-47,-53,-111,-299,-295,-250,-222,-185
-90,-96,-6,90,-41,-53,-105,-299,-289,-250,-216,-179
-84,-90,-6,84,-41,-47,-105,-299,-295,-250,-216,-185
-90,-90,0,84,-47,-47,-105,-305,-295,-250,-216,-191
-96,-102,-6,96,-47,-53,-111,-311,-295,-250,-222,-191
-102,-102,0,96,-53,-53,-111,-305,-295,-244,-228,-185
-108,-102,6,102,-59,-47,-117,-305,-295,-244,-228,-185
-108,-102,6,102,-59,-47,-117,-299,-295,-244,-234,-185
-102,-102,0,96,-53,-53,-111,-287,-295,-238,-228,-185
-102,-96,6,96,-53,-47,-111,-281,-295,-238,-228,-185
-102,-108,-6,102,-47,-59,-105,-275,-295,-238,-228,-185
-108,-114,-6,108,-53,-59,-111,-275,-289,-238,-222,-197
-108,-114,-6,108,-53,-59,-111,-275,-283,-232,-222,-197
-114,-126,-12,114,-53,-71,-99,-269,-271,-232,-222,-203
-108,-132,-24,120,-41,-77,-87,-257,-265,-220,-216,-203
-108,-150,-42,126,-35,-95,-69,-239,-247,-208,-216,-203
-108,-186,-78,144,-18,-131,-51,-209,-229,-196,-210,-197
-96,-222,-126,156,11,-173,-28,-173,-193,-166,-204,-191
-84,-258,-174,168,41,-215,-17,-131,-157,-136,-192,-185
-72,-300,-228,186,77,-263,-5,-89,-121,-106,-180,-179
-66,-348,-282,204,107,-317,13,-41,-85,-88,-168,-179
-54,-408,-354,228,149,-383,43,11,-55,-64,-162,-179
-48,-480,-432,264,191,-455,79,65,-20,-34,-156,-173
-30,-540,-510,282,239,-527,109,119,21,-6,-144,-161
-1,-606,-606,300,299,-605,133,167,57,30,-126,-155
16,-672,-690,330,353,-677,151,203,87,60,-114,-143
34,-720,-756,342,395,-737,169,233,123,84,-96,-131
58,-768,-828,354,443,-797,187,263,147,114,-78,-113
70,-828,-900,378,485,-863,199,305,183,150,-54,-89
76,-882,-960,402,515,-917,223,353,219,180,-36,-83
94,-942,-1038,420,563,-989,235,401,261,216,-14,-65
124,-990,-1116,432,617,-1049,253,455,309,264,16,-41
148,-1038,-1188,444,665,-1109,265,515,363,312,46,-25
172,-1110,-1284,468,725,-1193,289,587,411,354,70,-13
196,-1194,-1392,498,791,-1289,325,677,483,414,94,5
232,-1284,-1518,528,875,-1397,373,791,579,492,118,23
280,-1362,-1644,540,959,-1499,415,911,693,588,166,65
334,-1416,-1752,540,1043,-1583,445,1037,837,714,244,119
394,-1458,-1854,528,1121,-1655,481,1181,1011,870,346,185
460,-1506,-1968,522,1211,-1733,511,1343,1209,1062,478,281
532,-1542,-2076,504,1301,-1805,547,1523,1449,1290,646,383
604,-1560,-2166,480,1385,-1859,583,1709,1725,1566,850,515
682,-1560,-2244,438,1463,-1901,619,1883,2055,1896,1108,689
772,-1530,-2304,378,1535,-1913,637,2033,2426,2280,1414,893
856,-1488,-2346,318,1601,-1913,655,2135,2798,2675,1726,1109
922,-1434,-2358,252,1637,-1895,655,2153,3080,3035,2026,1313
964,-1356,-2322,198,1643,-1835,625,2039,3206,3293,2284,1499
1006,-1278,-2286,132,1643,-1781,589,1847,3176,3473,2511,1673
1024,-1206,-2232,90,1625,-1715,565,1625,3044,3569,2685,1805
1018,-1140,-2160,60,1589,-1649,547,1373,2834,3563,2775,1883
994,-1074,-2070,36,1529,-1571,499,1091,2576,3479,2799,1919
934,-1020,-1956,42,1445,-1487,415,797,2283,3317,2757,1895
868,-966,-1836,48,1349,-1397,307,521,1965,3089,2655,1841
790,-924,-1716,66,1253,-1319,217,299,1641,2777,2457,1727
670,-942,-1614,132,1139,-1277,181,131,1311,2358,2104,1481
532,-978,-1512,222,1019,-1241,187,11,999,1902,1660,1157
406,-990,-1398,288,899,-1193,181,-83,663,1392,1180,815
280,-984,-1266,354,773,-1121,157,-197,291,828,682,479
166,-960,-1128,396,647,-1043,121,-293,-25,348,274,203
76,-918,-996,420,533,-953,73,-371,-247,24,-2,11
22,-858,-882,414,449,-869,7,-437,-379,-160,-150,-95
-12,-810,-798,408,389,-803,-33,-467,-451,-268,-234,-167
-48,-756,-708,402,329,-731,-63,-479,-481,-316,-276,-209
-78,-690,-612,378,263,-653,-69,-467,-481,-334,-288,-227
-96,-630,-534,360,215,-581,-63,-449,-463,-340,-300,-239
-108,-558,-450,330,167,-503,-63,-419,-433,-328,-300,-233
-114,-474,-360,288,119,-419,-51,-383,-391,-310,-288,-227
-120,-408,-288,264,83,-347,-39,-341,-343,-292,-276,-215
-132,-348,-216,240,41,-281,-28,-299,-295,-268,-264,-209
-132,-294,-162,210,11,-227,-28,-263,-259,-244,-240,-197
-132,-246,-114,186,-13,-179,-17,-233,-223,-220,-216,-185
-132,-198,-66,162,-35,-131,-5,-203,-193,-196,-198,-173
-132,-150,-18,138,-59,-83,1,-185,-175,-178,-186,-167
-132,-114,18,120,-77,-47,1,-179,-175,-178,-180,-155
-132,-90,40,108,-89,-23,1,-173,-169,-172,-174,-149
-138,-60,76,96,-107,7,1,-161,-157,-166,-174,-149
-132,-36,94,84,-113,31,7,-149,-145,-160,-168,-143
-126,-24,100,72,-113,36,7,-131,-145,-160,-168,-143
-120,-12,106,66,-113,47,7,-119,-139,-160,-168,-149
-126,0,124,60,-125,59,1,-107,-133,-160,-168,-149
-126,0,124,60,-125,59,1,-95,-133,-160,-174,-155
-132,6,136,60,-137,71,-5,-95,-133,-160,-174,-149
-132,24,154,54,-143,89,-5,-95,-133,-160,-168,-149
-132,30,160,48,-149,95,-5,-95,-139,-166,-174,-143
-132,35,166,48,-149,101,-5,-95,-139,-166,-174,-143
-132,40,172,48,-149,107,-11,-95,-139,-166,-174,-143
-138,40,178,48,-155,107,-17,-101,-139,-166,-180,-137
-132,46,178,42,-155,113,-17,-95,-133,-160,-174,-137
-126,52,178,36,-149,113,-11,-89,-127,-160,-168,-143
-126,58,184,30,-155,119,-5,-83,-127,-154,-162,-143
-120,64,184,30,-149,125,-5,-71,-115,-148,-162,-143
-120,70,190,24,-155,131,-5,-71,-115,-154,-162,-143
-132,70,202,30,-167,137,-11,-71,-115,-154,-162,-137
-132,76,208,30,-167,143,-17,-65,-115,-148,-162,-131
-138,76,214,30,-173,143,-17,-71,-109,-148,-162,-125
-138,76,214,30,-173,143,-17,-65,-103,-142,-156,-119
-126,88,214,18,-167,149,-11,-53,-97,-136,-156,-119
-132,76,208,30,-167,143,-11,-47,-97,-130,-150,-119
-132,82,214,24,-173,149,-17,-41,-91,-130,-144,-119
-126,82,208,18,-167,143,-11,-29,-85,-136,-138,-113
-120,82,202,18,-161,143,-17,-24,-85,-130,-132,-107
-126,94,220,12,-173,155,-17,-29,-79,-130,-132,-107
-120,100,220,12,-167,161,-11,-24,-73,-124,-132,-107
-108,112,220,0,-161,167,-11,-24,-67,-112,-126,-107
-108,124,232,-6,-167,179,1,-19,-67,-106,-126,-107
-102,130,232,-17,-167,179,1,-19,-61,-100,-120,-101
-102,130,232,-17,-167,179,1,-19,-61,-94,-114,-101
-108,136,244,-12,-173,191,-11,-19,-61,-100,-108,-107
-102,148,250,-22,-173,197,-11,-19,-55,-94,-102,-101
-102,154,256,-28,-179,203,-5,-19,-43,-88,-96,-95
-102,160,262,-28,-179,209,1,-7,-37,-88,-90,-89
-96,166,262,-34,-179,215,7,-1,-31,-88,-90,-83
-102,160,262,-28,-179,209,7,5,-25,-82,-90,-77
-102,160,262,-28,-179,209,7,11,-20,-76,-84,-77
-102,166,268,-34,-185,215,-5,17,-20,-82,-84,-77
-108,160,268,-22,-185,215,-5,17,-15,-82,-84,-77
-102,160,262,-28,-179,209,-5,17,-9,-76,-78,-77
-96,166,262,-34,-179,215,-5,17,-3,-70,-72,-71
-90,178,268,-46,-179,221,1,23,9,-64,-66,-65
-90,184,274,-46,-179,227,1,23,9,-58,-60,-59
-96,190,286,-46,-191,239,-5,29,9,-52,-60,-65
-102,196,298,-46,-197,245,-5,35,15,-40,-60,-59
-102,202,304,-52,-203,251,1,41,21,-40,-54,-59
-102,208,310,-52,-203,257,1,41,33,-34,-48,-47
-96,214,310,-58,-203,263,7,41,39,-29,-42,-47
-90,220,310,-64,-197,263,13,47,51,-24,-36,-35
-90,232,322,-70,-203,275,7,59,57,-18,-36,-30
-84,244,328,-76,-203,287,1,71,69,-12,-31,-30
-84,244,328,-76,-203,287,-5,77,75,-6,-26,-25
-72,262,334,-94,-203,299,-5,89,87,12,-14,-19
-72,268,340,-94,-203,305,-5,95,99,18,-8,-19
-66,274,340,-106,-203,305,-5,101,105,30,4,-19
-72,280,352,-100,-209,317,-5,101,117,36,10,-13
-72,292,364,-106,-215,329,1,113,123,48,16,-13
-72,298,370,-112,-221,335,1,119,135,54,22,-13
-66,310,376,-124,-221,341,1,125,141,60,28,-1
-66,316,382,-124,-221,347,1,137,147,66,34,5
-66,316,382,-124,-221,347,7,149,159,66,40,11
-66,322,388,-130,-227,353,7,161,171,72,46,17
-60,334,394,-136,-227,365,13,161,183,84,52,23
-54,346,400,-148,-227,371,13,173,195,96,58,35
-54,358,412,-154,-233,383,7,179,207,108,70,41
-54,376,430,-160,-239,401,1,191,213,120,76,35
-54,388,442,-166,-245,413,-5,197,219,126,76,41
-60,394,454,-166,-257,425,-5,203,231,132,82,41
-54,400,454,-172,-251,425,1,215,243,144,88,47
-54,412,466,-178,-257,437,7,227,261,150,100,53
-54,418,472,-184,-263,443,13,239,273,162,112,65
-48,424,472,-184,-257,449,13,251,285,174,124,71
-48,442,490,-196,-269,467,1,269,303,186,130,83
-42,460,502,-208,-269,479,7,287,315,198,154,101
-36,478,514,-220,-275,497,7,299,333,216,166,113
-30,508,538,-238,-281,521,7,311,357,228,178,113
-30,514,544,-244,-287,527,7,323,369,246,190,125
-30,526,556,-250,-293,539,7,335,387,252,202,131
-24,544,568,-256,-293,557,7,347,399,270,214,143
-18,562,580,-274,-299,569,-5,365,417,282,220,149
-12,574,586,-280,-299,581,-11,383,435,300,238,161
-1,592,592,-292,-293,593,-17,401,447,318,244,173
-1,616,616,-304,-305,617,-17,419,471,330,262,185
-1,628,628,-310,-311,629,-11,431,489,348,280,197
-6,640,646,-316,-323,641,-11,443,507,366,298,197
-1,664,664,-328,-329,665,-11,455,525,384,310,209
4,676,670,-334,-329,677,-17,467,543,402,328,221
10,694,682,-352,-335,689,-11,485,567,426,346,239
16,706,688,-358,-335,701,-17,497,579,438,358,251
10,712,700,-358,-341,707,-23,503,585,456,370,263
10,712,700,-358,-341,707,-23,521,603,468,382,275
16,736,718,-370,-347,731,-17,533,621,486,400,287
28,748,718,-382,-341,737,-17,545,639,498,412,299
34,760,724,-394,-341,743,-23,557,651,516,430,299
46,778,730,-412,-341,755,-23,569,669,534,454,311
58,796,736,-424,-335,767,-23,581,687,558,472,329
58,802,742,-430,-341,773,-28,587,699,576,484,335
52,814,760,-430,-353,791,-33,599,705,594,490,341
58,820,760,-436,-347,791,-33,605,723,606,508,353
64,826,760,-442,-347,797,-33,617,741,624,520,365
76,832,754,-448,-335,797,-39,623,759,636,532,383
88,838,748,-460,-329,797,-39,635,771,654,544,395
88,838,748,-460,-329,797,-39,647,789,666,556,407
94,838,742,-466,-323,791,-39,653,801,678,568,413
100,838,736,-466,-317,791,-45,659,801,684,580,425
100,838,736,-466,-317,791,-45,653,801,696,592,431
100,832,730,-460,-311,785,-45,647,801,702,598,431
100,826,724,-460,-311,779,-57,635,807,714,610,431
100,820,718,-454,-305,773,-63,629,813,726,622,437
106,808,700,-454,-293,755,-63,623,819,732,628,443
112,796,682,-448,-281,743,-57,617,825,738,628,449
112,790,676,-448,-281,737,-57,611,825,744,628,449
124,772,646,-442,-257,713,-57,599,819,750,628,449
124,760,634,-436,-251,701,-57,587,813,744,622,449
130,736,604,-430,-233,671,-57,569,807,738,622,449
136,718,580,-424,-221,653,-63,545,789,726,622,449
130,688,556,-406,-209,623,-63,521,777,714,616,443
130,658,526,-394,-197,593,-63,503,759,702,598,437
118,634,514,-376,-197,575,-63,485,735,684,586,425
112,604,490,-352,-185,551,-63,461,705,666,568,419
112,580,466,-340,-173,527,-57,449,669,648,556,401
106,556,448,-328,-167,503,-57,425,633,630,526,383
100,520,418,-304,-155,473,-63,401,597,600,502,359
94,484,388,-286,-143,437,-57,371,567,558,478,341
88,460,370,-268,-137,419,-51,347,525,516,448,317
82,436,352,-256,-131,395,-51,323,495,480,412,293
76,406,328,-238,-125,371,-45,299,459,444,382,269
70,376,304,-220,-113,341,-45,269,417,402,346,245
64,358,292,-208,-113,329,-39,239,375,366,316,221
52,316,262,-178,-101,293,-45,209,327,336,292,197
34,280,244,-154,-101,263,-33,179,285,300,262,173
28,250,220,-136,-95,239,-33,149,243,270,238,143
22,226,202,-124,-89,215,-28,125,213,234,208,119
22,208,184,-112,-77,197,-28,107,183,198,178,101
22,196,172,-106,-71,185,-28,95,159,162,154,83
10,178,166,-94,-77,173,-23,77,129,132,124,65
-6,142,148,-70,-77,143,-28,59,99,102,94,41
-24,118,142,-46,-83,131,-28,35,69,78,70,23
-24,106,130,-40,-77,119,-28,17,39,54,46,11
-30,82,112,-28,-71,95,-23,-7,15,30,28,-7
-30,64,94,-17,-59,77,-17,-13,-9,12,10,-25
-24,58,82,-17,-53,71,-11,-19,-25,-6,-2,-35
-24,46,70,-12,-47,59,-11,-24,-49,-29,-20,-47
-36,35,70,0,-53,53,-17,-35,-67,-52,-48,-59
-42,30,70,0,-59,47,-17,-47,-79,-70,-60,-65
-36,30,64,0,-53,47,-11,-53,-91,-82,-72,-71
-48,12,58,18,-53,36,-17,-65,-103,-100,-90,-77
-54,-6,46,24,-53,19,-17,-83,-121,-112,-102,-89
-54,-18,35,30,-47,7,-17,-89,-133,-118,-108,-95
-54,-30,24,36,-41,-5,-17,-95,-145,-124,-114,-107
-54,-36,18,42,-35,-11,-23,-95,-151,-130,-120,-113
-42,-30,12,30,-29,-11,-23,-89,-157,-136,-120,-113
-36,-30,6,30,-23,-11,-17,-89,-157,-136,-120,-119
-36,-30,6,30,-23,-11,-5,-89,-169,-136,-132,-119
-36,-30,6,30,-23,-11,1,-95,-175,-142,-138,-125
-42,-30,12,30,-29,-11,7,-107,-181,-148,-144,-131
-54,-42,12,42,-35,-17,7,-107,-187,-154,-144,-137
-54,-42,12,42,-35,-17,7,-101,-187,-154,-144,-143
-54,-48,6,48,-29,-23,1,-107,-193,-160,-144,-143
-54,-48,6,48,-29,-23,-5,-107,-199,-160,-144,-143
-54,-54,0,48,-29,-29,-5,-107,-199,-160,-144,-143
-60,-60,0,60,-29,-29,-5,-107,-193,-166,-144,-143
-54,-54,0,48,-29,-29,1,-107,-193,-166,-144,-143
-54,-48,6,48,-29,-23,7,-101,-193,-166,-150,-143
-60,-54,6,54,-35,-23,7,-101,-193,-166,-156,-143
-66,-48,18,54,-41,-17,1,-107,-193,-172,-162,-143
-60,-54,6,54,-35,-23,-5,-107,-193,-178,-162,-143
-66,-54,12,54,-41,-23,-5,-107,-193,-178,-168,-143
-60,-54,6,54,-35,-23,-5,-107,-187,-178,-162,-137
-54,-42,12,42,-35,-17,1,-107,-181,-178,-162,-131
-54,-48,6,48,-29,-23,1,-113,-187,-184,-162,-131
-42,-36,6,36,-23,-17,1,-107,-181,-184,-162,-137
-42,-24,18,30,-29,-5,7,-101,-181,-184,-162,-131
-42,-30,12,30,-29,-11,7,-101,-187,-184,-168,-131
-48,-30,18,36,-35,-5,13,-107,-187,-184,-168,-131
-54,-36,18,42,-35,-11,19,-107,-187,-184,-168,-131
-60,-36,24,48,-41,-5,19,-107,-187,-190,-168,-137
-66,-42,24,48,-47,-11,13,-113,-187,-184,-162,-137
-66,-48,18,54,-41,-17,13,-107,-187,-184,-162,-143
-66,-48,18,54,-41,-17,13,-107,-187,-190,-162,-143
-60,-48,12,54,-35,-17,13,-107,-187,-190,-162,-149
-60,-54,6,54,-35,-23,19,-107,-187,-190,-168,-149
-60,-48,12,54,-35,-17,19,-107,-181,-190,-168,-143
-60,-36,24,48,-41,-5,19,-107,-181,-190,-174,-143
-66,-30,35,42,-53,1,19,-113,-181,-190,-180,-137
-66,-30,35,42,-53,1,13,-113,-181,-190,-174,-137
-66,-30,35,42,-53,1,7,-113,-187,-196,-174,-137
-66,-18,46,36,-59,13,1,-113,-193,-190,-168,-131
-60,-12,46,36,-53,19,7,-113,-199,-190,-168,-125
-60,-12,46,36,-53,19,7,-107,-199,-196,-168,-131
-60,-6,52,30,-59,25,7,-107,-205,-196,-168,-131
-60,-12,46,36,-53,19,7,-113,-211,-202,-168,-131
-54,-6,46,24,-53,19,7,-113,-211,-196,-168,-131
-54,-6,46,24,-53,19,7,-113,-211,-202,-180,-131
-54,0,52,24,-53,25,1,-113,-211,-202,-180,-131
-60,0,58,30,-59,31,-5,-113,-211,-202,-180,-137
-60,0,58,30,-59,31,-5,-119,-223,-208,-180,-131
-60,6,64,24,-65,36,-5,-119,-223,-214,-180,-131
-60,6,64,24,-65,36,1,-119,-229,-214,-180,-125
-54,6,58,18,-59,31,1,-125,-229,-214,-180,-119
-54,0,52,24,-53,25,1,-119,-229,-208,-174,-119
-48,6,52,18,-53,31,1,-119,-229,-208,-168,-113
-48,6,52,18,-53,31,-5,-125,-229,-208,-168,-113
-48,6,52,18,-53,31,-5,-125,-229,-208,-174,-119
-42,12,52,12,-47,31,-5,-131,-229,-208,-174,-119
-36,30,64,0,-53,47,-5,-131,-229,-208,-180,-125
-42,35,76,0,-59,53,-11,-143,-229,-208,-180,-125
-42,35,76,0,-59,53,-11,-143,-241,-220,-192,-131
-36,30,64,0,-53,47,-11,-149,-253,-226,-192,-131
-42,24,64,6,-53,41,-17,-149,-259,-232,-186,-125
-48,18,64,12,-59,41,-17,-149,-259,-232,-180,-119
-48,24,70,12,-59,47,-17,-149,-253,-226,-180,-113
-42,30,70,0,-59,47,-17,-149,-247,-220,-180,-113
-42,35,76,0,-59,53,-17,-155,-241,-220,-180,-107
-42,35,76,0,-59,53,-17,-155,-241,-220,-180,-107
-36,35,70,0,-53,53,-23,-155,-247,-220,-180,-107
-36,35,70,0,-53,53,-23,-155,-247,-220,-180,-119
-36,35,70,0,-53,53,-33,-155,-253,-220,-180,-119
-36,24,58,6,-47,41,-28,-161,-259,-226,-180,-125
-36,24,58,6,-47,41,-17,-161,-259,-226,-180,-125
-36,30,64,0,-53,47,-17,-167,-265,-226,-180,-131
-42,30,70,0,-59,47,-23,-173,-265,-232,-186,-131
-54,24,76,12,-65,47,-28,-179,-271,-232,-192,-137
-48,30,76,6,-65,53,-28,-179,-265,-238,-198,-137
-48,30,76,6,-65,53,-33,-179,-271,-244,-198,-143
-54,30,82,6,-71,53,-39,-185,-271,-250,-198,-143
-48,24,70,12,-59,47,-39,-185,-277,-256,-204,-149
-48,18,64,12,-59,41,-39,-185,-283,-256,-204,-149
-48,12,58,18,-53,36,-39,-191,-283,-256,-198,-149
-54,6,58,18,-59,31,-45,-191,-283,-256,-204,-149
-54,6,58,18,-59,31,-39,-191,-283,-256,-204,-149
-48,12,58,18,-53,36,-28,-191,-277,-250,-210,-143
-42,24,64,6,-53,41,-28,-191,-277,-250,-210,-143
-36,24,58,6,-47,41,-28,-191,-277,-250,-210,-143
-42,24,64,6,-53,41,-28,-197,-283,-256,-216,-143
-54,24,76,12,-65,47,-28,-203,-289,-262,-210,-143
-48,24,70,12,-59,47,-28,-203,-289,-262,-210,-137
-48,24,70,12,-59,47,-33,-203,-289,-262,-204,-137
-48,12,58,18,-53,36,-33,-203,-289,-256,-204,-131
-42,12,52,12,-47,31,-33,-203,-289,-256,-204,-131
-42,6,46,12,-47,25,-33,-203,-289,-256,-204,-131
-42,6,46,12,-47,25,-33,-203,-289,-262,-210,-131
-42,12,52,12,-47,31,-39,-209,-295,-268,-210,-131
-48,12,58,18,-53,36,-39,-215,-295,-268,-210,-137
-48,12,58,18,-53,36,-39,-215,-301,-268,-210,-143
-48,18,64,12,-59,41,-45,-215,-307,-268,-210,-149
-48,18,64,12,-59,41,-45,-215,-307,-274,-210,-149
-54,12,64,18,-59,36,-45,-215,-307,-274,-216,-149
-54,0,52,24,-53,25,-45,-215,-307,-280,-216,-149
-60,-6,52,30,-59,25,-45,-215,-307,-280,-222,-149
-54,0,52,24,-53,25,-45,-215,-307,-274,-222,-149
-54,0,52,24,-53,25,-45,-215,-307,-274,-228,-149
-60,-6,52,30,-59,25,-51,-215,-301,-274,-228,-149
-48,6,52,18,-53,31,-45,-215,-295,-280,-222,-155
-42,18,58,6,-53,36,-45,-215,-295,-274,-216,-155
-42,12,52,12,-47,31,-51,-215,-295,-280,-216,-155
-48,6,52,18,-53,31,-51,-221,-301,-280,-216,-155
-48,6,52,18,-53,31,-45,-233,-301,-280,-216,-155
-48,6,52,18,-53,31,-45,-233,-301,-280,-222,-155
-48,0,46,24,-47,25,-45,-227,-301,-280,-228,-149
-54,-6,46,24,-53,19,-45,-227,-301,-280,-234,-149
-60,-6,52,30,-59,25,-45,-227,-301,-280,-234,-149
-60,-6,52,30,-59,25,-51,-227,-301,-280,-234,-149
-60,-12,46,36,-53,19,-51,-227,-307,-280,-228,-155
-66,-18,46,36,-59,13,-51,-239,-307,-280,-228,-161
-66,-18,46,36,-59,13,-57,-239,-307,-286,-222,-167
-54,-12,40,30,-47,13,-51,-239,-301,-280,-216,-167
-42,-12,30,24,-35,7,-51,-233,-301,-274,-216,-161
-42,-18,24,24,-35,1,-45,-239,-301,-274,-222,-161
-54,-24,30,36,-41,1,-51,-239,-313,-274,-234,-161
-54,-18,35,30,-47,7,-51,-239,-307,-274,-234,-149
-48,-12,35,30,-41,13,-51,-239,-307,-274,-234,-149
-54,-12,40,30,-47,13,-51,-245,-307,-274,-234,-149
-60,-12,46,36,-53,19,-57,-245,-307,-280,-240,-149
-60,-18,40,36,-53,13,-51,-245,-307,-280,-240,-149
-60,-24,35,42,-47,7,-45,-245,-307,-280,-240,-155
-60,-30,30,42,-47,1,-45,-245,-307,-280,-240,-155
-60,-24,35,42,-47,7,-51,-245,-307,-280,-240,-161
-54,-24,30,36,-41,1,-57,-245,-307,-286,-240,-161
-54,-30,24,36,-41,-5,-63,-245,-307,-286,-246,-155
-54,-30,24,36,-41,-5,-51,-251,-313,-286,-246,-161
-54,-30,24,36,-41,-5,-45,-251,-313,-286,-246,-155
-54,-36,18,42,-35,-11,-45,-251,-313,-286,-246,-149
-54,-30,24,36,-41,-5,-45,-251,-313,-286,-240,-149
-54,-24,30,36,-41,1,-51,-251,-307,-286,-240,-149
-54,-18,35,30,-47,7,-57,-251,-307,-286,-240,-149
-66,-30,35,42,-53,1,-63,-251,-307,-286,-240,-149
-72,-36,35,54,-53,1,-57,-251,-301,-280,-240,-149
-66,-36,30,48,-47,-5,-51,-257,-301,-280,-246,-149
-66,-42,24,48,-47,-11,-51,-251,-295,-280,-246,-149
-66,-48,18,54,-41,-17,-51,-245,-295,-280,-240,-155
-66,-42,24,48,-47,-11,-51,-245,-301,-286,-234,-155
-66,-42,24,48,-47,-11,-63,-245,-301,-280,-234,-155
-60,-36,24,48,-41,-5,-63,-245,-301,-280,-234,-155
-60,-36,24,48,-41,-5,-63,-251,-301,-280,-240,-155
-66,-42,24,48,-47,-11,-69,-257,-295,-280,-234,-149
-66,-36,30,48,-47,-5,-63,-263,-295,-280,-234,-149
-60,-30,30,42,-47,1,-57,-263,-295,-280,-234,-149
-60,-24,35,42,-47,7,-57,-257,-295,-280,-234,-149
-54,-24,30,36,-41,1,-57,-257,-295,-280,-240,-155
-48,-18,30,30,-41,7,-63,-257,-295,-280,-246,-161
-42,-12,30,24,-35,7,-63,-257,-301,-274,-246,-155
-42,-12,30,24,-35,7,-69,-257,-301,-274,-246,-155
-36,-18,18,24,-29,1,-63,-263,-301,-274,-246,-149
-36,-24,12,30,-23,-5,-69,-263,-301,-286,-246,-149
-42,-30,12,30,-29,-11,-63,-263,-295,-286,-240,-149
-42,-36,6,36,-23,-17,-63,-263,-295,-286,-240,-143
-42,-36,6,36,-23,-17,-69,-263,-295,-286,-246,-143
-42,-24,18,30,-29,-5,-69,-263,-295,-280,-246,-149
-54,-30,24,36,-41,-5,-75,-263,-295,-280,-246,-149
-42,-24,18,30,-29,-5,-69,-257,-295,-274,-234,-143
-42,-24,18,30,-29,-5,-69,-257,-295,-274,-234,-143
-54,-30,24,36,-41,-5,-69,-251,-301,-274,-240,-149
-48,-30,18,36,-35,-5,-63,-251,-295,-274,-240,-149
-48,-30,18,36,-35,-5,-57,-251,-289,-274,-240,-149
-48,-30,18,36,-35,-5,-63,-251,-289,-274,-240,-149
-54,-36,18,42,-35,-11,-63,-257,-289,-280,-246,-155
-48,-36,12,42,-29,-11,-69,-263,-289,-286,-252,-161
-42,-36,6,36,-23,-17,-69,-263,-283,-286,-252,-155
-54,-42,12,42,-35,-17,-69,-263,-289,-286,-252,-155
-54,-36,18,42,-35,-11,-75,-263,-289,-286,-252,-155
-54,-30,24,36,-41,-5,-69,-257,-283,-280,-252,-155
-54,-30,24,36,-41,-5,-75,-257,-283,-280,-252,-149
-48,-30,18,36,-35,-5,-75,-257,-283,-274,-252,-149
-48,-30,18,36,-35,-5,-81,-257,-283,-274,-246,-149
-42,-30,12,30,-29,-11,-87,-257,-283,-274,-240,-149
-36,-30,6,30,-23,-11,-87,-269,-283,-274,-246,-143
-36,-36,0,36,-18,-17,-87,-263,-289,-274,-246,-149
-48,-36,12,42,-29,-11,-87,-269,-289,-280,-246,-149
-54,-30,24,36,-41,-5,-87,-263,-295,-274,-240,-149
-54,-30,24,36,-41,-5,-93,-263,-295,-274,-240,-149
-54,-30,24,36,-41,-5,-93,-257,-289,-268,-240,-143
-48,-18,30,30,-41,7,-87,-257,-283,-274,-240,-143
-48,-24,24,36,-35,1,-87,-257,-283,-274,-240,-143
-42,-24,18,30,-29,-5,-87,-263,-283,-280,-240,-143
-42,-30,12,30,-29,-11,-87,-263,-283,-280,-246,-143
-42,-18,24,24,-35,1,-87,-257,-283,-280,-252,-149
-36,-18,18,24,-29,1,-99,-257,-283,-280,-246,-149
-30,-12,18,18,-23,1,-99,-257,-295,-274,-246,-149
-30,-6,24,12,-29,7,-87,-251,-295,-274,-246,-149
-30,0,30,12,-29,13,-87,-251,-295,-274,-240,-149
-30,-12,18,18,-23,1,-87,-251,-289,-274,-246,-155
-30,-12,18,18,-23,1,-87,-257,-283,-268,-234,-143
-30,-24,6,24,-18,-11,-87,-257,-277,-268,-234,-143
-30,-24,6,24,-18,-11,-93,-263,-277,-274,-240,-143
-24,-18,6,18,-18,-5,-99,-263,-271,-268,-240,-149
-24,-12,12,18,-18,1,-93,-263,-265,-268,-234,-143
-30,-24,6,24,-18,-11,-93,-263,-277,-268,-234,-143
-30,-24,6,24,-18,-11,-93,-257,-277,-268,-240,-149
-18,-24,-6,18,-7,-17,-87,-257,-277,-262,-240,-149
-18,-24,-6,18,-7,-17,-87,-257,-277,-262,-240,-149
-18,-30,-12,18,-7,-23,-87,-257,-277,-262,-234,-149
-18,-24,-6,18,-7,-17,-87,-257,-277,-262,-234,-143
-24,-30,-6,24,-13,-17,-87,-251,-271,-256,-234,-143
-24,-30,-6,24,-13,-17,-87,-251,-271,-256,-246,-143
-30,-36,-6,30,-13,-23,-93,-257,-271,-262,-252,-143
-36,-36,0,36,-18,-17,-93,-257,-277,-262,-258,-143
-42,-36,6,36,-23,-17,-87,-263,-277,-262,-264,-149
-36,-36,0,36,-18,-17,-87,-263,-277,-268,-258,-155
-24,-36,-12,30,-7,-23,-87,-257,-277,-262,-252,-155
-18,-30,-12,18,-7,-23,-93,-251,-277,-256,-252,-149
-18,-36,-18,24,-1,-29,-93,-251,-277,-250,-246,-143
-12,-30,-18,18,-1,-23,-93,-245,-277,-244,-246,-137
-12,-30,-18,18,-1,-23,-93,-245,-277,-244,-246,-131
-18,-30,-12,18,-7,-23,-93,-245,-277,-244,-240,-131
-18,-30,-12,18,-7,-23,-93,-251,-277,-250,-240,-131
-18,-24,-6,18,-7,-17,-93,-257,-277,-250,-240,-131
-24,-24,0,24,-13,-11,-99,-257,-277,-244,-234,-137
-24,-12,12,18,-18,1,-105,-257,-277,-244,-234,-137
-24,-18,6,18,-18,-5,-105,-257,-277,-244,-234,-143
-24,-24,0,24,-13,-11,-105,-251,-277,-244,-234,-143
-24,-24,0,24,-13,-11,-105,-245,-277,-238,-234,-149
-18,-18,0,12,-13,-11,-105,-245,-277,-238,-240,-149
-18,-18,0,12,-13,-11,-99,-239,-277,-238,-240,-143
-12,-18,-6,12,-7,-11,-93,-245,-277,-238,-240,-149
-12,-12,0,12,-7,-5,-93,-239,-271,-238,-240,-143
-6,0,6,0,-7,1,-87,-233,-265,-226,-234,-137
-6,6,12,-6,-13,7,-81,-227,-259,-220,-228,-137
-1,6,6,-6,-7,7,-75,-227,-253,-220,-228,-131
4,12,6,-6,-1,13,-75,-221,-247,-214,-222,-131
4,18,12,-12,-7,19,-69,-215,-241,-220,-222,-125
10,12,0,-12,5,7,-57,-203,-229,-208,-210,-125
16,12,-6,-12,11,7,-51,-197,-217,-202,-204,-119
16,-6,-24,-6,17,-11,-45,-191,-217,-196,-198,-113
28,0,-30,-12,29,-11,-33,-179,-205,-184,-192,-113
34,0,-36,-17,35,-17,-33,-173,-205,-178,-192,-113
40,6,-36,-22,35,-11,-33,-167,-199,-172,-186,-101
40,12,-30,-22,35,-5,-39,-161,-193,-166,-180,-95
28,18,-12,-22,17,7,-51,-161,-193,-166,-180,-95
28,18,-12,-22,17,7,-63,-155,-187,-166,-174,-89
34,30,-6,-34,17,13,-75,-155,-187,-166,-174,-83
34,30,-6,-34,17,13,-75,-161,-187,-166,-174,-83
34,30,-6,-34,17,13,-87,-173,-187,-172,-174,-83
28,24,-6,-22,17,13,-105,-185,-199,-172,-174,-89
28,24,-6,-22,17,13,-111,-191,-205,-172,-180,-89
28,18,-12,-22,17,7,-117,-197,-211,-172,-180,-95
28,12,-18,-17,23,1,-117,-203,-217,-178,-186,-95
22,12,-12,-17,17,1,-129,-209,-229,-178,-192,-95
16,0,-18,-6,17,-5,-129,-215,-235,-190,-204,-101
16,-6,-24,-6,17,-11,-117,-221,-235,-190,-204,-101
16,-6,-24,-6,17,-11,-117,-209,-229,-190,-204,-95
16,-12,-30,0,23,-17,-117,-209,-229,-190,-210,-95
16,-18,-36,0,23,-23,-117,-215,-235,-196,-210,-95
16,-12,-30,0,23,-17,-111,-215,-241,-190,-204,-95
22,-12,-36,-6,29,-23,-105,-221,-241,-190,-198,-89
16,-18,-36,0,23,-23,-111,-227,-247,-196,-204,-95
10,-24,-36,6,23,-29,-105,-227,-253,-196,-204,-95
4,-30,-36,12,17,-29,-105,-227,-253,-196,-204,-101
10,-30,-42,6,23,-35,-99,-221,-253,-196,-204,-101
10,-30,-42,6,23,-35,-99,-221,-253,-202,-204,-101
4,-30,-36,12,17,-29,-105,-221,-253,-202,-210,-107
4,-36,-42,18,23,-35,-111,-227,-253,-208,-222,-107
-1,-30,-30,12,11,-29,-117,-227,-259,-208,-222,-113
-6,-36,-30,18,11,-35,-117,-233,-259,-214,-222,-125
-18,-42,-24,24,-1,-35,-117,-239,-265,-214,-228,-137
-24,-48,-24,36,-1,-35,-111,-245,-265,-214,-228,-137
-24,-42,-18,30,-7,-29,-117,-245,-265,-214,-234,-143
-36,-42,-6,36,-18,-23,-117,-245,-265,-214,-240,-143
-42,-48,-6,42,-18,-29,-123,-245,-265,-226,-246,-143
-42,-48,-6,42,-18,-29,-123,-239,-259,-226,-246,-137
-42,-54,-12,42,-18,-35,-129,-239,-253,-226,-240,-131
-48,-48,0,48,-23,-23,-135,-245,-259,-226,-240,-131
-54,-54,0,48,-29,-29,-135,-245,-259,-220,-240,-131
-54,-48,6,48,-29,-23,-135,-245,-253,-214,-240,-137
-54,-48,6,48,-29,-23,-135,-251,-253,-214,-240,-137
-66,-42,24,48,-47,-11,-129,-245,-259,-214,-240,-137
-78,-48,30,60,-53,-11,-129,-245,-259,-214,-240,-137
-78,-48,30,60,-53,-11,-135,-239,-259,-220,-240,-137
-72,-42,30,54,-53,-5,-129,-233,-259,-214,-234,-137
-72,-36,35,54,-53,1,-123,-227,-259,-214,-228,-137
-84,-54,30,66,-59,-11,-129,-227,-259,-214,-234,-143
-78,-60,18,66,-47,-23,-129,-221,-253,-214,-234,-143
-78,-54,24,60,-53,-17,-129,-221,-241,-208,-234,-137
-78,-48,30,60,-53,-11,-123,-215,-241,-208,-234,-143
-78,-54,24,60,-53,-17,-123,-209,-235,-202,-234,-143
-84,-66,18,72,-53,-23,-111,-197,-229,-196,-246,-143
-84,-78,6,78,-47,-35,-99,-191,-223,-190,-246,-143
-84,-96,-12,90,-35,-53,-87,-173,-211,-184,-240,-143
-78,-120,-42,96,-18,-83,-81,-143,-193,-166,-234,-137
-72,-150,-78,108,-1,-113,-69,-107,-181,-160,-228,-131
-60,-180,-120,120,29,-149,-45,-77,-151,-136,-222,-125
-42,-222,-180,126,65,-203,-23,-35,-121,-118,-210,-125
-36,-276,-240,156,101,-257,7,11,-91,-88,-204,-125
-30,-342,-312,180,137,-329,43,59,-55,-58,-198,-119
-6,-396,-390,198,191,-395,79,119,-15,-29,-186,-113
10,-450,-462,216,233,-455,109,179,33,6,-168,-107
22,-516,-540,246,281,-527,121,221,69,42,-150,-101
46,-576,-624,264,335,-599,139,263,105,72,-138,-89
70,-624,-696,276,383,-659,157,299,129,96,-120,-77
88,-678,-768,294,425,-719,169,341,159,126,-96,-59
112,-738,-852,312,479,-791,193,389,195,162,-72,-41
124,-798,-924,336,521,-857,211,443,237,198,-54,-30
142,-858,-1002,354,569,-929,223,491,285,234,-31,-13
166,-912,-1080,372,623,-995,235,545,333,288,-2,5
196,-966,-1164,384,677,-1061,253,617,387,342,28,23
232,-1032,-1266,402,749,-1145,277,689,447,396,52,35
268,-1110,-1380,420,821,-1241,301,779,519,456,76,47
310,-1194,-1506,438,905,-1349,343,893,603,522,100,65
352,-1278,-1632,462,989,-1451,379,1007,699,606,136,89
400,-1350,-1752,474,1073,-1547,415,1127,831,714,202,131
466,-1404,-1872,468,1169,-1637,445,1265,987,870,310,197
538,-1446,-1986,450,1259,-1715,481,1427,1197,1068,448,287
622,-1476,-2100,426,1361,-1787,517,1613,1443,1308,616,395
706,-1494,-2202,390,1451,-1847,553,1805,1725,1596,820,533
802,-1488,-2292,342,1547,-1889,589,2003,2079,1950,1084,713
898,-1464,-2364,282,1631,-1913,625,2183,2462,2346,1372,911
982,-1434,-2417,222,1697,-1925,655,2303,2798,2723,1666,1115
1048,-1380,-2429,168,1739,-1901,649,2303,3014,3041,1948,1307
1102,-1308,-2411,102,1757,-1859,601,2123,3038,3251,2200,1481
1132,-1254,-2387,60,1757,-1817,541,1853,2930,3383,2397,1625
1144,-1206,-2352,30,1745,-1775,499,1565,2786,3467,2547,1745
1144,-1140,-2286,0,1715,-1709,469,1283,2618,3479,2637,1823
1132,-1074,-2208,-28,1667,-1637,421,995,2408,3413,2655,1853
1084,-996,-2082,-40,1583,-1535,331,719,2157,3269,2613,1847
1018,-936,-1956,-40,1487,-1445,217,467,1887,3047,2499,1799
934,-912,-1848,-12,1391,-1379,121,281,1599,2741,2284,1667
808,-948,-1758,72,1283,-1349,91,149,1305,2334,1930,1421
664,-966,-1632,150,1145,-1295,97,47,1011,1890,1516,1115
514,-966,-1482,222,995,-1223,91,-47,705,1416,1084,803
376,-960,-1338,294,857,-1145,67,-161,351,888,634,485
250,-930,-1182,336,713,-1055,25,-269,27,408,244,227
160,-864,-1026,354,593,-941,-28,-365,-193,72,-20,47
88,-810,-900,360,491,-851,-75,-431,-319,-124,-174,-53
46,-744,-792,348,419,-767,-111,-461,-385,-232,-258,-113
22,-672,-696,324,359,-683,-129,-461,-421,-280,-294,-137
-1,-600,-600,300,299,-599,-141,-443,-433,-298,-312,-155
-30,-534,-504,276,233,-521,-141,-407,-421,-292,-306,-161
-60,-468,-408,264,173,-437,-135,-377,-397,-280,-300,-161
-78,-396,-318,234,119,-359,-129,-341,-361,-262,-282,-155
-84,-324,-240,204,77,-281,-117,-299,-313,-238,-270,-143
-90,-258,-168,168,35,-215,-99,-263,-265,-214,-258,-131
-84,-192,-108,138,11,-149,-75,-227,-217,-196,-240,-119
-78,-138,-60,102,-13,-101,-45,-197,-175,-172,-222,-107
-78,-84,-6,78,-35,-47,-17,-167,-151,-148,-204,-95
-78,-48,30,60,-53,-11,-5,-149,-157,-148,-198,-89
-84,-18,64,48,-77,25,-5,-137,-157,-142,-192,-83
-90,6,94,36,-95,47,-17,-131,-163,-136,-186,-83
-102,24,124,36,-113,71,-23,-119,-151,-130,-186,-83
-108,40,148,36,-125,95,-28,-107,-145,-130,-180,-89
-108,52,160,30,-131,107,-28,-95,-133,-124,-174,-83
-102,70,172,12,-137,119,-28,-77,-121,-118,-174,-77
-102,76,178,12,-137,125,-23,-77,-115,-118,-174,-77
-108,88,196,12,-149,143,-11,-71,-121,-118,-180,-83
-102,100,202,0,-149,149,-11,-71,-127,-124,-186,-83
-102,100,202,0,-149,149,-17,-77,-133,-124,-186,-83
-114,94,208,6,-161,149,-23,-83,-139,-130,-174,-89
-114,106,220,0,-167,161,-28,-77,-139,-124,-168,-89
-108,118,226,-6,-167,173,-33,-71,-139,-118,-162,-83
-108,130,238,-12,-173,185,-33,-65,-133,-118,-162,-89
-108,130,238,-12,-173,185,-33,-65,-133,-118,-162,-89
-102,130,232,-17,-167,179,-28,-65,-133,-112,-156,-83
-108,136,244,-12,-173,191,-23,-71,-127,-106,-156,-83
-96,142,238,-22,-167,191,-11,-65,-121,-100,-150,-83
-96,142,238,-22,-167,191,-11,-59,-127,-100,-144,-83
-90,148,238,-28,-161,191,-17,-59,-127,-94,-144,-83
-90,160,250,-34,-167,203,-23,-53,-121,-94,-144,-89
-90,160,250,-34,-167,203,-28,-53,-127,-94,-144,-89
-96,166,262,-34,-179,215,-33,-53,-127,-94,-150,-95
-96,166,262,-34,-179,215,-28,-53,-127,-88,-150,-89
-96,172,268,-34,-179,221,-28,-53,-121,-88,-150,-83
-96,172,268,-34,-179,221,-28,-53,-121,-88,-150,-83
-90,184,274,-46,-179,227,-28,-53,-115,-88,-144,-77
-96,184,280,-40,-185,233,-28,-53,-121,-82,-144,-71
-90,190,280,-52,-185,233,-23,-47,-115,-82,-144,-65
-84,196,280,-52,-179,239,-17,-41,-115,-82,-138,-59
-84,196,280,-52,-179,239,-17,-35,-115,-76,-132,-65
-90,196,286,-52,-185,239,-17,-29,-115,-76,-126,-59
-96,208,304,-52,-197,257,-11,-24,-115,-70,-120,-59
-90,208,298,-58,-191,251,-11,-24,-115,-64,-120,-53
-90,220,310,-64,-197,263,-17,-24,-109,-52,-108,-53
-84,226,310,-70,-197,269,-23,-24,-103,-52,-108,-47
-84,232,316,-70,-197,275,-23,-19,-97,-46,-102,-47
-78,238,316,-82,-197,275,-23,-19,-97,-40,-96,-53
-72,244,316,-82,-191,281,-17,-13,-85,-40,-90,-47
-66,244,310,-88,-185,275,-11,-7,-79,-34,-84,-47
-60,244,304,-88,-179,275,-11,-1,-73,-29,-78,-41
-60,256,316,-94,-185,287,-17,5,-67,-29,-78,-41
-66,250,316,-94,-191,281,-17,5,-55,-24,-78,-41
-72,256,328,-88,-197,293,-11,5,-49,-18,-72,-35
-72,268,340,-94,-203,305,-11,11,-43,-12,-66,-30
-78,274,352,-100,-215,311,-5,23,-43,-12,-66,-30
-78,280,358,-100,-215,317,-5,29,-43,-12,-60,-25
-78,280,358,-100,-215,317,-5,35,-37,-12,-54,-25
-72,274,346,-100,-209,311,-5,41,-25,-6,-54,-25
-66,286,352,-112,-209,317,-11,47,-20,-6,-48,-25
-66,292,358,-112,-209,323,-11,53,-20,0,-48,-25
-60,298,358,-118,-209,329,-5,65,-9,6,-36,-19
-54,310,364,-130,-209,335,-5,65,-3,12,-31,-13
-54,328,382,-136,-215,353,-5,71,3,18,-31,-13
-48,334,382,-142,-215,359,-5,83,9,30,-20,-1
-42,346,388,-154,-215,365,-5,89,15,36,-14,5
-42,352,394,-154,-215,371,-11,101,27,42,-8,11
-42,352,394,-154,-215,371,-5,107,39,48,4,17
-42,352,394,-154,-215,371,1,119,45,54,4,17
-42,358,400,-160,-221,377,1,125,51,60,10,23
-42,364,406,-160,-221,383,1,131,63,66,16,23
-48,364,412,-154,-227,389,-5,131,69,72,22,23
-48,370,418,-160,-233,395,-5,137,75,78,28,17
-42,382,424,-172,-233,401,-5,143,81,90,34,29
-36,394,430,-178,-233,413,-5,155,87,96,40,35
-30,406,436,-190,-233,419,-5,167,99,108,46,41
-18,430,448,-208,-233,437,-5,179,117,114,52,47
-12,436,448,-208,-227,443,7,197,135,126,58,59
-30,430,460,-202,-245,443,1,203,147,126,58,59
-36,430,466,-196,-251,449,1,215,165,138,70,59
-36,448,484,-202,-257,467,1,227,177,150,82,65
-30,460,490,-214,-257,473,-5,239,189,162,94,71
-30,478,508,-226,-269,491,1,245,195,174,106,77
-24,496,520,-232,-269,509,1,263,201,186,118,83
-18,514,532,-250,-275,521,-5,275,219,198,130,89
-18,526,544,-256,-281,533,-5,287,231,204,130,95
-12,532,544,-256,-275,539,1,299,243,216,136,101
-12,544,556,-262,-281,551,1,317,261,228,148,113
-6,562,568,-280,-287,563,-5,335,279,246,160,125
-6,574,580,-286,-293,575,-5,347,297,258,178,137
-1,586,586,-292,-293,587,-5,359,315,276,190,143
-1,598,598,-298,-299,599,1,365,327,288,196,149
-1,610,610,-304,-305,611,1,389,345,294,208,155
10,628,616,-316,-299,623,7,407,363,306,220,161
10,646,634,-328,-311,641,7,425,381,324,232,173
22,664,640,-340,-305,653,1,443,399,336,244,185
22,676,652,-346,-311,665,-5,455,417,354,256,203
28,694,664,-358,-317,683,-5,473,441,378,274,215
34,712,676,-370,-317,695,-5,485,459,396,286,227
28,724,694,-370,-329,713,-11,497,471,408,304,239
40,742,700,-388,-329,725,-11,509,483,426,328,257
52,766,712,-406,-329,743,-11,527,501,444,340,275
58,790,730,-424,-335,761,-5,539,525,462,358,287
64,796,730,-424,-329,767,-11,557,543,474,370,305
70,802,730,-436,-329,767,-11,569,561,486,382,317
64,808,742,-430,-335,779,-11,581,573,498,400,329
58,820,760,-436,-347,791,-11,599,597,522,418,341
64,826,760,-442,-347,797,-17,617,615,540,436,353
64,844,778,-448,-353,815,-11,629,633,558,454,359
76,856,778,-460,-347,821,-17,635,651,582,466,365
82,874,790,-478,-353,833,-23,641,663,594,478,371
88,880,790,-478,-347,839,-23,647,675,606,490,377
100,892,790,-490,-341,845,-23,653,687,618,502,389
112,904,790,-502,-335,851,-23,665,699,630,514,401
106,904,796,-502,-341,851,-23,677,711,636,526,413
100,898,796,-496,-347,851,-23,683,717,648,532,425
100,892,790,-490,-341,845,-23,689,729,666,544,431
106,892,784,-496,-335,839,-28,695,741,684,556,443
106,880,772,-490,-329,827,-28,695,753,702,574,455
106,886,778,-496,-335,833,-28,689,765,714,586,467
118,886,766,-502,-323,827,-28,689,777,726,598,473
124,886,760,-502,-317,827,-28,683,783,738,604,479
136,874,736,-502,-299,809,-28,677,789,744,616,485
136,862,724,-496,-293,797,-33,671,789,744,622,485
142,850,706,-496,-281,779,-33,665,795,756,628,485
154,844,688,-496,-263,767,-33,659,795,762,628,497
154,832,676,-490,-257,755,-33,647,795,768,634,503
148,808,658,-472,-251,737,-33,629,789,768,640,497
148,778,628,-460,-239,707,-33,611,777,762,634,497
160,766,604,-460,-221,689,-33,587,771,762,640,491
160,736,574,-442,-203,659,-33,563,759,750,628,485
160,712,550,-430,-191,635,-33,545,741,732,616,479
154,694,538,-424,-191,617,-39,527,717,720,604,467
148,664,514,-400,-179,593,-39,503,687,702,580,455
142,628,484,-382,-167,557,-39,479,657,672,556,443
142,604,460,-370,-155,533,-28,455,621,648,532,425
142,580,436,-358,-143,509,-28,431,585,624,508,407
142,550,406,-346,-131,479,-23,407,555,594,484,389
148,520,370,-328,-107,449,-23,377,519,564,460,359
130,478,346,-304,-107,413,-23,353,483,534,436,341
106,436,328,-268,-107,383,-28,317,441,498,406,317
94,406,310,-250,-107,359,-28,293,405,462,376,299
82,376,292,-226,-101,335,-23,263,369,426,340,275
76,352,274,-208,-95,317,-17,239,327,384,310,251
76,334,256,-202,-89,299,-17,215,285,348,286,227
76,316,238,-190,-77,281,-11,197,249,312,256,209
76,298,220,-184,-71,263,-5,179,213,282,232,185
70,268,196,-166,-59,233,-11,149,177,246,202,155
58,238,178,-148,-59,209,-11,125,141,210,172,131
52,202,148,-124,-47,179,-11,101,111,174,142,107
40,172,130,-100,-41,155,-11,77,75,144,112,83
28,148,118,-82,-41,137,-11,47,45,102,82,65
16,124,106,-64,-41,119,-11,23,9,72,58,47
10,118,106,-64,-47,113,-5,5,-20,42,34,23
4,112,106,-52,-47,113,-11,-7,-43,18,10,5
4,118,112,-58,-53,119,-17,-13,-61,-6,-8,5
-1,112,112,-52,-53,113,-17,-19,-79,-24,-26,-7
-1,100,100,-46,-47,101,-11,-24,-91,-34,-36,-19
-1,76,76,-34,-35,77,-11,-35,-103,-52,-48,-30
-6,46,52,-22,-29,47,-5,-41,-115,-64,-66,-35
-1,30,30,-17,-18,31,1,-53,-127,-76,-72,-41
-1,12,12,-6,-7,13,7,-65,-145,-88,-84,-53
-6,6,12,-6,-13,7,1,-71,-157,-100,-90,-59
-18,0,18,6,-18,7,1,-83,-163,-112,-108,-71
-24,-6,18,12,-23,7,7,-83,-175,-124,-114,-77
-24,-12,12,18,-18,1,13,-83,-181,-130,-120,-83
-24,-18,6,18,-18,-5,13,-83,-187,-142,-126,-83
-24,-24,0,24,-13,-11,19,-83,-193,-142,-132,-89
-24,-30,-6,24,-13,-17,19,-89,-199,-148,-138,-89
-24,-42,-18,30,-7,-29,19,-89,-199,-148,-138,-89
-30,-48,-18,36,-7,-35,13,-95,-205,-154,-144,-95
-36,-66,-30,48,-7,-47,13,-101,-211,-160,-144,-101
-36,-60,-24,48,-7,-41,13,-95,-205,-166,-144,-101
-36,-60,-24,48,-7,-41,19,-101,-205,-166,-144,-101
-36,-54,-18,42,-13,-35,25,-95,-199,-172,-144,-101
-42,-60,-18,48,-13,-41,25,-95,-205,-172,-144,-101
-42,-60,-18,48,-13,-41,19,-89,-199,-166,-144,-107
-42,-60,-18,48,-13,-41,13,-89,-199,-166,-144,-107
-42,-66,-24,48,-13,-47,13,-89,-205,-172,-150,-107
-36,-66,-30,48,-7,-47,19,-95,-211,-172,-150,-107
-30,-66,-36,42,-1,-53,19,-95,-211,-172,-156,-107
-30,-72,-42,48,5,-59,13,-95,-211,-172,-156,-107
-30,-78,-48,48,5,-65,7,-101,-211,-178,-162,-113
-36,-66,-30,48,-7,-47,7,-101,-211,-184,-156,-113
-36,-66,-30,48,-7,-47,13,-101,-211,-184,-156,-113
-36,-54,-18,42,-13,-35,19,-95,-205,-184,-156,-107
-36,-54,-18,42,-13,-35,19,-95,-205,-178,-156,-107
-42,-48,-6,42,-18,-29,25,-101,-205,-184,-156,-113
-42,-54,-12,42,-18,-35,25,-101,-211,-190,-162,-113
-42,-48,-6,42,-18,-29,25,-101,-211,-190,-162,-107
-42,-42,0,36,-23,-23,25,-107,-211,-196,-168,-107
-36,-42,-6,36,-18,-23,25,-107,-217,-196,-168,-107
-42,-42,0,36,-23,-23,25,-107,-217,-196,-162,-113
-48,-42,6,42,-29,-17,19,-101,-211,-196,-162,-113
-48,-42,6,42,-29,-17,19,-107,-217,-202,-156,-119
-42,-42,0,36,-23,-23,25,-107,-211,-196,-150,-119
-48,-36,12,42,-29,-11,25,-107,-217,-202,-150,-119
-48,-36,12,42,-29,-11,25,-113,-217,-202,-156,-125
-42,-30,12,30,-29,-11,31,-113,-217,-202,-156,-119
-36,-24,12,30,-23,-5,37,-119,-211,-202,-162,-119
-42,-18,24,24,-35,1,25,-119,-211,-202,-162,-119
-48,-18,30,30,-41,7,19,-125,-211,-202,-162,-119
-48,-18,30,30,-41,7,13,-125,-211,-208,-174,-119
-54,-24,30,36,-41,1,13,-125,-211,-208,-180,-119
-60,-24,35,42,-47,7,13,-125,-217,-208,-180,-125
-72,-24,46,48,-59,13,7,-131,-223,-214,-180,-125
-60,-24,35,42,-47,7,7,-131,-223,-220,-180,-119
-60,-18,40,36,-53,13,1,-131,-223,-220,-180,-119
-48,-6,40,24,-47,19,1,-131,-223,-226,-174,-113
-36,12,46,12,-41,31,7,-131,-223,-220,-174,-113
-42,18,58,6,-53,36,7,-131,-223,-226,-180,-113
-54,6,58,18,-59,31,-5,-137,-229,-226,-174,-113
-66,-6,58,30,-65,25,-5,-149,-235,-232,-168,-107
-66,-6,58,30,-65,25,-5,-149,-235,-232,-162,-101
-66,0,64,30,-65,31,-11,-149,-241,-232,-168,-101
-60,0,58,30,-59,31,-11,-149,-235,-238,-168,-101
-60,0,58,30,-59,31,-17,-155,-235,-238,-168,-101
-60,6,64,24,-65,36,-17,-155,-241,-238,-174,-101
-54,18,70,12,-65,41,-17,-155,-241,-232,-168,-101
-54,24,76,12,-65,47,-11,-155,-241,-232,-168,-101
-54,18,70,12,-65,41,-11,-161,-247,-232,-168,-101
-60,12,70,24,-65,41,-11,-167,-247,-238,-174,-107
-66,18,82,18,-77,47,-11,-167,-247,-244,-168,-107
-66,18,82,18,-77,47,-23,-167,-253,-244,-168,-113
-78,12,88,30,-83,47,-23,-173,-253,-250,-174,-113
-78,12,88,30,-83,47,-28,-179,-253,-256,-174,-119
-72,18,88,24,-83,53,-23,-173,-253,-250,-180,-113
-66,18,82,18,-77,47,-11,-185,-247,-244,-180,-113
-60,18,76,18,-71,47,1,-185,-247,-238,-186,-107
-60,12,70,24,-65,41,7,-185,-247,-238,-186,-107
-66,-6,58,30,-65,25,1,-191,-253,-244,-180,-113
-78,-12,64,42,-71,25,-5,-197,-265,-250,-186,-113
-78,-12,64,42,-71,25,-5,-197,-265,-250,-180,-107
-72,-6,64,36,-71,31,-5,-197,-265,-250,-180,-101
-72,-6,64,36,-71,31,-11,-191,-265,-250,-180,-101
-78,0,76,36,-77,36,-17,-191,-265,-250,-180,-101
-78,0,76,36,-77,36,-17,-191,-265,-250,-186,-101
-72,0,70,36,-71,36,-11,-197,-265,-250,-186,-101
-72,-6,64,36,-71,31,-17,-203,-265,-244,-186,-95
-72,-6,64,36,-71,31,-23,-203,-265,-244,-186,-95
-72,-6,64,36,-71,31,-23,-209,-271,-244,-186,-101
-78,-18,58,42,-71,19,-28,-215,-277,-244,-192,-113
-78,-18,58,42,-71,19,-28,-215,-277,-250,-192,-119
-72,-12,58,42,-65,25,-28,-215,-277,-250,-192,-119
-72,0,70,36,-71,36,-28,-215,-277,-250,-192,-119
-78,0,76,36,-77,36,-28,-215,-277,-250,-198,-113
-78,-6,70,36,-77,31,-28,-215,-277,-256,-204,-113
-78,0,76,36,-77,36,-28,-215,-277,-256,-204,-113
-78,0,76,36,-77,36,-28,-215,-289,-256,-204,-113
-78,-6,70,36,-77,31,-33,-227,-295,-268,-210,-107
-78,-6,70,36,-77,31,-33,-233,-301,-268,-210,-107
-72,-6,64,36,-71,31,-33,-233,-301,-274,-210,-101
-66,0,64,30,-65,31,-33,-233,-295,-274,-210,-95
-66,0,64,30,-65,31,-39,-239,-295,-280,-210,-89
-66,-12,52,36,-59,19,-45,-239,-295,-280,-216,-89
-66,-12,52,36,-59,19,-51,-233,-289,-280,-210,-89
-66,-6,58,30,-65,25,-45,-233,-289,-280,-210,-83
-66,-6,58,30,-65,25,-45,-239,-295,-280,-210,-89
-66,-12,52,36,-59,19,-45,-239,-295,-280,-204,-89
-66,-12,52,36,-59,19,-45,-239,-295,-280,-204,-89
-72,-18,52,42,-65,19,-51,-245,-301,-286,-204,-89
-78,-24,52,48,-65,13,-57,-245,-301,-286,-210,-89
-84,-24,58,54,-71,19,-51,-245,-307,-280,-216,-89
-78,-24,52,48,-65,13,-51,-245,-307,-280,-222,-95
-78,-24,52,48,-65,13,-51,-239,-307,-286,-228,-95
-78,-24,52,48,-65,13,-51,-233,-307,-286,-222,-95
-78,-18,58,42,-71,19,-45,-233,-307,-286,-216,-89
-78,-18,58,42,-71,19,-33,-245,-307,-286,-216,-89
-72,-24,46,48,-59,13,-28,-245,-301,-286,-210,-89
-78,-24,52,48,-65,13,-33,-245,-301,-286,-210,-95
-72,-24,46,48,-59,13,-39,-251,-301,-292,-216,-101
-72,-18,52,42,-65,19,-45,-257,-313,-292,-216,-101
-72,-18,52,42,-65,19,-51,-257,-313,-292,-222,-95
-72,-18,52,42,-65,19,-51,-257,-313,-292,-222,-95
-78,-18,58,42,-71,19,-51,-251,-313,-292,-216,-95
-90,-30,58,54,-77,13,-51,-251,-319,-292,-222,-89
-84,-36,46,60,-65,7,-51,-245,-313,-292,-216,-89
-78,-42,35,54,-59,-5,-45,-245,-313,-298,-216,-89
-72,-42,30,54,-53,-5,-45,-245,-307,-298,-216,-89
-72,-42,30,54,-53,-5,-51,-245,-307,-298,-216,-83
-72,-36,35,54,-53,1,-51,-245,-307,-298,-222,-89
-72,-30,40,48,-59,7,-51,-245,-301,-298,-222,-83
-78,-36,40,54,-59,1,-51,-251,-307,-304,-222,-83
-90,-30,58,54,-77,13,-51,-257,-313,-304,-222,-83
-96,-24,70,60,-83,25,-51,-251,-307,-304,-222,-83
-84,-18,64,48,-77,25,-45,-251,-301,-298,-222,-83
-90,-18,70,48,-83,25,-45,-257,-295,-298,-222,-89
-96,-30,64,60,-83,19,-57,-263,-301,-298,-228,-95
-96,-36,58,66,-77,13,-57,-263,-301,-298,-228,-95
-96,-36,58,66,-77,13,-57,-263,-295,-298,-234,-95
-90,-36,52,60,-71,7,-57,-257,-295,-298,-228,-89
-84,-36,46,60,-65,7,-57,-257,-301,-292,-228,-83
-84,-30,52,54,-71,13,-57,-251,-301,-292,-222,-83
-84,-24,58,54,-71,19,-57,-251,-295,-292,-216,-83
-84,-24,58,54,-71,19,-63,-251,-295,-292,-216,-83
-84,-24,58,54,-71,19,-63,-251,-295,-292,-216,-89
-84,-30,52,54,-71,13,-57,-257,-295,-292,-216,-83
-84,-30,52,54,-71,13,-57,-257,-295,-292,-222,-83
-90,-36,52,60,-71,7,-51,-257,-295,-298,-228,-89
-90,-36,52,60,-71,7,-51,-257,-289,-298,-234,-89
-90,-42,46,60,-71,1,-45,-263,-295,-304,-234,-89
-84,-42,40,60,-65,1,-45,-263,-295,-304,-234,-89
-78,-36,40,54,-59,1,-45,-263,-295,-304,-228,-89
-84,-36,46,60,-65,7,-51,-269,-301,-310,-234,-95
-90,-36,52,60,-71,7,-57,-269,-301,-310,-234,-101
-90,-24,64,54,-77,19,-51,-269,-301,-310,-228,-95
-90,-18,70,48,-83,25,-51,-275,-295,-310,-228,-95
-90,-18,70,48,-83,25,-51,-275,-295,-310,-234,-95
-90,-24,64,54,-77,19,-51,-275,-289,-310,-228,-95
-96,-30,64,60,-83,19,-51,-269,-295,-310,-228,-89
-96,-42,52,66,-77,7,-57,-275,-295,-310,-228,-95
-102,-48,52,72,-77,1,-69,-275,-295,-310,-228,-95
-96,-42,52,66,-77,7,-69,-275,-301,-310,-228,-95
-96,-42,52,66,-77,7,-63,-269,-301,-310,-234,-95
-96,-42,52,66,-77,7,-57,-269,-301,-310,-228,-95
-90,-36,52,60,-71,7,-51,-269,-301,-310,-234,-101
-84,-30,52,54,-71,13,-51,-269,-301,-310,-240,-101
-90,-30,58,54,-77,13,-51,-269,-307,-310,-240,-107
-96,-36,58,66,-77,13,-45,-269,-301,-304,-234,-107
-96,-30,64,60,-83,19,-51,-275,-295,-304,-234,-107
-102,-30,70,60,-89,19,-57,-275,-295,-304,-234,-107
-102,-42,58,66,-83,7,-63,-281,-295,-310,-228,-107
-96,-42,52,66,-77,7,-63,-281,-295,-310,-222,-101
-96,-42,52,66,-77,7,-63,-281,-295,-310,-222,-101
-102,-30,70,60,-89,19,-69,-281,-295,-316,-222,-95
-102,-30,70,60,-89,19,-69,-281,-289,-316,-216,-89
-96,-30,64,60,-83,19,-69,-275,-295,-304,-210,-89
-84,-24,58,54,-71,19,-63,-275,-289,-298,-204,-83
-78,-18,58,42,-71,19,-69,-269,-289,-298,-198,-83
-84,-18,64,48,-77,25,-69,-275,-289,-298,-204,-89
-84,-24,58,54,-71,19,-63,-281,-289,-298,-210,-89
-90,-30,58,54,-77,13,-63,-281,-289,-298,-210,-89
-84,-30,52,54,-71,13,-63,-281,-289,-298,-216,-89
-90,-24,64,54,-77,19,-63,-281,-289,-298,-216,-83
-96,-36,58,66,-77,13,-63,-281,-301,-304,-228,-89
-90,-36,52,60,-71,7,-63,-287,-301,-310,-228,-89
-90,-42,46,60,-71,1,-57,-281,-301,-310,-222,-89
-90,-48,40,66,-65,-5,-57,-281,-301,-310,-216,-89
-90,-48,40,66,-65,-5,-57,-281,-295,-310,-216,-89
-90,-54,35,66,-65,-11,-57,-281,-295,-304,-216,-101
-90,-48,40,66,-65,-5,-57,-281,-295,-304,-216,-107
-90,-48,40,66,-65,-5,-57,-275,-289,-298,-216,-101
-90,-42,46,60,-71,1,-57,-281,-289,-298,-216,-101
-96,-42,52,66,-77,7,-57,-281,-295,-298,-216,-107
-102,-48,52,72,-77,1,-63,-281,-295,-298,-216,-101
-102,-48,52,72,-77,1,-69,-281,-295,-298,-216,-101
-108,-54,52,78,-83,1,-69,-281,-295,-304,-216,-101
-102,-54,46,72,-77,-5,-69,-281,-295,-304,-216,-107
-96,-60,35,78,-65,-11,-63,-281,-289,-304,-216,-107
-96,-60,35,78,-65,-11,-63,-275,-283,-304,-216,-107
-90,-60,30,72,-59,-17,-63,-281,-283,-304,-216,-107
-90,-60,30,72,-59,-17,-75,-281,-289,-304,-216,-113
-84,-36,46,60,-65,7,-75,-275,-289,-304,-210,-107
-84,-36,46,60,-65,7,-81,-275,-289,-304,-216,-107
-90,-36,52,60,-71,7,-75,-281,-289,-304,-210,-107
-96,-42,52,66,-77,7,-75,-275,-289,-304,-210,-107
-102,-48,52,72,-77,1,-75,-275,-289,-298,-204,-107
-102,-54,46,72,-77,-5,-69,-275,-289,-298,-198,-107
-96,-54,40,72,-71,-5,-63,-269,-283,-298,-192,-101
-90,-54,35,66,-65,-11,-63,-275,-277,-292,-186,-101
-78,-48,30,60,-53,-11,-57,-269,-277,-292,-186,-107
-78,-48,30,60,-53,-11,-63,-275,-277,-292,-186,-107
-84,-54,30,66,-59,-11,-75,-281,-277,-298,-192,-107
-90,-60,30,72,-59,-17,-69,-281,-277,-298,-204,-107
-96,-66,30,78,-65,-17,-75,-281,-277,-298,-210,-107
-90,-60,30,72,-59,-17,-75,-281,-283,-298,-210,-107
-90,-66,24,72,-59,-23,-75,-275,-283,-304,-204,-107
-84,-66,18,72,-53,-23,-69,-275,-283,-304,-198,-107
-84,-66,18,72,-53,-23,-69,-281,-289,-298,-198,-107
-84,-60,24,72,-53,-17,-63,-281,-283,-298,-192,-107
-78,-54,24,60,-53,-17,-63,-281,-283,-298,-192,-107
-78,-54,24,60,-53,-17,-63,-281,-277,-292,-192,-107
-84,-48,35,66,-59,-5,-63,-281,-277,-292,-198,-113
-78,-42,35,54,-59,-5,-63,-287,-277,-292,-198,-119
-72,-30,40,48,-59,7,-63,-287,-271,-292,-198,-119
-60,-12,46,36,-53,19,-57,-281,-271,-292,-198,-119
-60,-12,46,36,-53,19,-51,-281,-265,-286,-192,-119
-60,-18,40,36,-53,13,-57,-275,-265,-286,-192,-113
-48,-18,30,30,-41,7,-51,-269,-259,-286,-186,-113
-42,-12,30,24,-35,7,-51,-269,-259,-286,-186,-113
-42,-18,24,24,-35,1,-39,-263,-259,-280,-180,-113
-42,-12,30,24,-35,7,-33,-251,-247,-268,-180,-107
-42,-12,30,24,-35,7,-28,-251,-247,-268,-186,-107
-48,-6,40,24,-47,19,-28,-245,-241,-262,-180,-101
-48,-6,40,24,-47,19,-23,-251,-235,-262,-174,-95
-48,-12,35,30,-41,13,-17,-239,-229,-256,-168,-89
-30,-6,24,12,-29,7,-5,-227,-217,-244,-156,-83
-18,0,18,6,-18,7,1,-215,-211,-232,-144,-77
-12,0,12,6,-13,7,7,-203,-205,-226,-138,-77
-12,-6,6,6,-13,1,7,-197,-205,-220,-132,-83
-1,-6,-6,0,-1,-5,13,-185,-193,-214,-132,-83
-1,-6,-6,0,-1,-5,19,-179,-187,-208,-126,-77
10,0,-12,-6,11,-5,13,-179,-175,-202,-120,-65
16,6,-12,-12,11,1,1,-185,-175,-202,-120,-59
4,6,0,-6,-1,7,-11,-191,-181,-202,-120,-59
-1,6,6,-6,-7,7,-11,-191,-181,-208,-120,-59
-1,12,12,-6,-7,13,-23,-197,-181,-208,-120,-53
-6,12,18,-6,-13,13,-33,-209,-193,-208,-120,-53
-18,6,24,0,-23,13,-39,-221,-205,-220,-126,-59
-12,0,12,6,-13,7,-45,-227,-211,-226,-132,-65
-12,-12,0,12,-7,-5,-51,-239,-223,-232,-144,-65
-6,-18,-12,6,-1,-17,-57,-251,-229,-238,-144,-71
-12,-18,-6,12,-7,-11,-63,-251,-235,-244,-144,-71
-6,-18,-12,6,-1,-17,-63,-257,-235,-244,-144,-65
-6,-18,-12,6,-1,-17,-63,-257,-229,-244,-138,-65
-6,-24,-18,12,5,-23,-63,-257,-229,-244,-144,-71
-6,-36,-30,18,11,-35,-69,-257,-235,-244,-144,-71
-12,-42,-30,24,5,-35,-57,-257,-235,-244,-150,-71
-18,-36,-18,24,-1,-29,-51,-257,-235,-244,-150,-71
-18,-30,-12,18,-7,-23,-51,-263,-235,-244,-150,-83
-24,-36,-12,30,-7,-23,-57,-269,-247,-256,-156,-83
-30,-42,-12,30,-13,-29,-57,-275,-259,-262,-162,-89
-30,-36,-6,30,-13,-23,-51,-269,-253,-262,-168,-89
-30,-42,-12,30,-13,-29,-57,-269,-259,-262,-168,-95
-42,-54,-12,42,-18,-35,-63,-275,-259,-268,-180,-101
-54,-60,-6,54,-23,-35,-69,-275,-265,-274,-180,-107
-60,-60,0,60,-29,-29,-63,-281,-259,-274,-174,-113
-66,-66,0,60,-35,-35,-57,-287,-259,-280,-174,-119
-72,-66,6,66,-41,-29,-57,-293,-253,-280,-174,-125
-72,-66,6,66,-41,-29,-57,-293,-259,-286,-180,-125
-72,-66,6,66,-41,-29,-57,-293,-259,-286,-180,-119
-66,-60,6,60,-35,-29,-57,-293,-259,-286,-180,-119
-60,-66,-6,60,-29,-35,-57,-293,-259,-292,-186,-119
-60,-66,-6,60,-29,-35,-63,-293,-259,-292,-192,-119
-66,-72,-6,66,-29,-41,-69,-293,-265,-292,-192,-125
-66,-72,-6,66,-29,-41,-75,-299,-265,-292,-198,-125
-66,-72,-6,66,-29,-41,-81,-293,-265,-298,-198,-125
-60,-72,-12,66,-23,-41,-75,-293,-265,-298,-198,-125
-60,-72,-12,66,-23,-41,-69,-293,-271,-298,-192,-125
-54,-72,-18,60,-18,-47,-69,-293,-271,-298,-192,-131
-60,-66,-6,60,-29,-35,-69,-293,-271,-298,-186,-131
-60,-66,-6,60,-29,-35,-69,-287,-271,-292,-186,-131
-66,-78,-12,66,-29,-47,-75,-287,-271,-292,-192,-131
-78,-84,-6,78,-35,-47,-75,-287,-271,-292,-198,-131
-72,-90,-18,78,-29,-53,-63,-275,-265,-292,-192,-131
-72,-90,-18,78,-29,-53,-57,-275,-265,-292,-192,-131
-72,-96,-24,84,-23,-59,-57,-269,-271,-286,-186,-131
-66,-96,-30,78,-18,-65,-63,-263,-265,-286,-186,-125
-66,-90,-24,72,-23,-59,-63,-257,-259,-286,-192,-125
-72,-96,-24,84,-23,-59,-57,-251,-259,-280,-192,-131
-66,-102,-36,78,-18,-71,-39,-245,-247,-280,-192,-131
-66,-120,-54,90,-7,-89,-28,-227,-241,-274,-192,-137
-60,-150,-90,102,11,-119,-17,-203,-229,-262,-192,-137
-54,-180,-126,114,35,-155,1,-173,-205,-250,-192,-137
-42,-216,-174,126,65,-197,13,-143,-181,-238,-198,-137
-30,-258,-228,138,95,-245,31,-107,-157,-214,-186,-137
-18,-312,-294,162,137,-305,49,-65,-127,-202,-180,-137
-6,-366,-360,180,173,-365,73,-24,-91,-178,-162,-137
10,-414,-426,198,215,-419,103,17,-49,-154,-150,-131
22,-474,-498,222,257,-485,133,65,-15,-118,-132,-125
34,-522,-558,240,293,-539,151,119,21,-82,-114,-113
46,-582,-630,264,335,-605,163,161,51,-52,-102,-107
58,-630,-690,282,371,-659,181,203,75,-29,-90,-95
70,-690,-762,306,413,-725,205,251,99,0,-78,-89
106,-732,-840,312,473,-785,229,305,147,42,-54,-71
142,-786,-930,318,533,-857,247,353,195,78,-36,-53
172,-846,-1020,336,593,-929,265,401,243,114,-14,-35
196,-912,-1110,360,653,-1007,277,449,291,156,16,-13
214,-972,-1188,378,701,-1079,283,491,345,204,40,5
238,-1026,-1266,390,749,-1145,301,539,399,252,76,23
268,-1080,-1350,408,809,-1211,319,599,453,306,112,41
292,-1146,-1440,426,863,-1289,337,671,519,366,142,53
346,-1212,-1560,432,953,-1385,355,761,579,438,184,71
400,-1284,-1686,444,1043,-1481,391,869,663,522,226,95
460,-1356,-1818,450,1139,-1583,421,983,765,624,286,131
532,-1416,-1950,444,1241,-1679,451,1121,915,762,370,185
604,-1470,-2076,432,1337,-1769,469,1259,1095,942,490,269
694,-1506,-2202,402,1445,-1853,493,1409,1329,1170,646,371
778,-1542,-2322,378,1547,-1931,535,1601,1623,1458,856,503
862,-1560,-2423,348,1643,-1991,589,1811,1971,1806,1108,665
952,-1566,-2519,306,1733,-2039,619,1991,2283,2154,1372,833
1036,-1548,-2585,258,1811,-2063,637,2093,2516,2471,1630,1007
1120,-1518,-2639,198,1877,-2075,631,2123,2618,2723,1876,1181
1192,-1488,-2681,150,1937,-2081,619,2057,2606,2915,2104,1343
1252,-1440,-2693,96,1973,-2063,571,1853,2516,3047,2296,1481
1288,-1398,-2687,54,1985,-2039,523,1577,2391,3131,2439,1595
1300,-1362,-2663,30,1979,-2009,487,1295,2259,3161,2523,1667
1288,-1308,-2597,12,1943,-1949,445,1025,2103,3125,2547,1709
1246,-1242,-2489,-6,1865,-1865,373,755,1911,3005,2511,1715
1186,-1182,-2370,-6,1775,-1775,277,503,1677,2783,2380,1661
1096,-1176,-2274,42,1685,-1721,211,323,1431,2465,2122,1505
982,-1182,-2166,96,1571,-1673,157,197,1185,2094,1792,1277
838,-1164,-2004,162,1421,-1583,133,77,927,1674,1414,1001
676,-1128,-1806,228,1241,-1463,133,-29,669,1248,1036,719
526,-1074,-1602,270,1061,-1337,121,-131,405,828,676,455
394,-1026,-1422,312,905,-1223,79,-239,123,402,340,215
274,-978,-1254,348,761,-1115,43,-341,-109,42,64,17
184,-918,-1104,366,641,-1007,-5,-419,-259,-184,-102,-101
118,-858,-978,366,545,-917,-39,-473,-337,-304,-198,-167
76,-780,-858,354,467,-815,-69,-503,-385,-370,-240,-209
40,-696,-738,330,389,-713,-99,-509,-415,-400,-264,-227
16,-618,-636,300,323,-623,-105,-485,-409,-406,-270,-233
-6,-546,-540,270,263,-545,-99,-449,-385,-400,-264,-233
-36,-474,-438,252,197,-455,-93,-407,-349,-388,-252,-227
-48,-402,-354,222,149,-377,-81,-371,-307,-370,-228,-215
-48,-324,-276,186,113,-299,-57,-341,-253,-346,-216,-197
-48,-270,-222,156,83,-245,-28,-305,-205,-322,-198,-185
-54,-222,-168,132,53,-197,-5,-281,-163,-298,-180,-173
-60,-174,-114,114,23,-143,19,-251,-133,-274,-162,-161
-72,-138,-66,102,-7,-101,37,-233,-121,-262,-150,-155
-84,-102,-18,90,-35,-59,37,-221,-127,-256,-144,-155
-84,-60,24,72,-53,-17,43,-209,-121,-244,-132,-143
-78,-18,58,42,-71,19,31,-191,-109,-238,-120,-137
-84,6,88,36,-89,47,19,-179,-97,-238,-114,-137
-90,24,112,30,-101,65,19,-167,-85,-226,-108,-131
-90,35,124,24,-107,77,25,-149,-67,-226,-102,-131
-96,35,130,30,-113,83,25,-143,-61,-226,-108,-131
-90,40,130,24,-107,83,31,-137,-55,-220,-108,-125
-84,52,136,18,-107,95,43,-137,-61,-220,-108,-119
-84,58,142,12,-113,101,43,-137,-61,-220,-114,-119
-84,64,148,12,-113,107,37,-143,-67,-220,-114,-119
-90,70,160,6,-125,113,31,-149,-73,-226,-120,-125
-96,70,166,12,-131,119,25,-155,-79,-226,-120,-125
-102,82,184,6,-143,131,25,-149,-79,-214,-120,-125
-108,88,196,12,-149,143,19,-143,-73,-214,-114,-125
-102,100,202,0,-149,149,19,-137,-67,-214,-102,-125
-90,118,208,-17,-149,161,19,-131,-67,-214,-102,-119
-90,124,214,-17,-149,167,19,-137,-73,-214,-96,-119
-90,130,220,-22,-155,173,19,-137,-73,-214,-102,-119
-84,130,214,-22,-149,173,25,-137,-79,-208,-102,-125
-84,136,220,-22,-149,179,31,-137,-79,-208,-102,-119
-84,136,220,-22,-149,179,31,-137,-73,-202,-102,-119
-84,136,220,-22,-149,179,25,-137,-67,-196,-96,-119
-96,130,226,-17,-161,179,25,-137,-67,-196,-90,-119
-96,136,232,-17,-161,185,25,-137,-61,-190,-78,-119
-96,142,238,-22,-167,191,31,-131,-55,-184,-72,-119
-96,154,250,-28,-173,203,31,-125,-49,-184,-72,-119
-102,154,256,-28,-179,203,31,-119,-49,-184,-66,-113
-90,160,250,-34,-167,203,25,-119,-49,-178,-66,-107
-90,166,256,-40,-173,209,19,-113,-43,-172,-66,-101
-84,178,262,-46,-173,221,13,-113,-43,-166,-66,-95
-84,184,268,-46,-173,227,7,-119,-43,-166,-66,-95
-84,190,274,-52,-179,233,19,-119,-37,-160,-66,-101
-90,184,274,-46,-179,227,19,-119,-37,-160,-60,-101
-90,190,280,-52,-185,233,19,-113,-31,-154,-60,-101
-90,190,280,-52,-185,233,19,-107,-25,-154,-54,-95
-90,196,286,-52,-185,239,13,-101,-20,-148,-54,-95
-96,202,298,-52,-197,251,13,-95,-20,-142,-54,-83
-102,208,310,-52,-203,257,13,-95,-15,-142,-48,-83
-102,208,310,-52,-203,257,13,-95,-15,-136,-42,-77
-96,220,316,-58,-203,269,13,-95,-9,-130,-42,-77
-96,232,328,-64,-209,281,13,-95,-9,-124,-42,-71
-96,238,334,-70,-215,287,19,-89,-9,-118,-31,-71
-96,244,340,-70,-215,293,13,-83,-3,-112,-31,-65
-84,250,334,-82,-209,293,7,-77,-3,-106,-31,-65
-84,256,340,-82,-209,299,7,-77,-3,-106,-20,-59
-78,268,346,-94,-209,305,1,-71,-3,-94,-14,-53
-78,274,352,-100,-215,311,1,-65,3,-88,-2,-47
-78,286,364,-106,-221,323,1,-59,9,-76,4,-41
-78,292,370,-106,-221,329,7,-53,15,-64,4,-41
-84,292,376,-100,-227,335,7,-47,9,-58,4,-41
-84,298,382,-106,-233,341,13,-47,15,-58,-2,-41
-84,310,394,-112,-239,353,13,-41,27,-46,4,-30
-78,316,394,-118,-233,353,13,-35,33,-40,10,-30
-72,322,394,-124,-233,359,19,-24,45,-29,22,-19
-66,334,400,-136,-233,365,13,-19,57,-29,28,-13
