,,,,,,,,,,,
2019-09-04 23:50:19,,,,,,,,,,,
,,,,,,,,,,,
I,II,III,aVR,aVL,aVF,V1,V2,V3,V4,V5,V6
62,-178,-241,57,149,-206,-78,-154,-213,-185,-48,-17
68,-178,-247,51,155,-212,-78,-148,-213,-191,-42,-17
74,-178,-253,51,161,-212,-78,-142,-201,-185,-36,-17
74,-178,-253,51,161,-212,-78,-136,-195,-173,-30,-17
80,-166,-247,39,161,-206,-78,-130,-183,-167,-30,-11
80,-166,-247,39,161,-206,-78,-124,-177,-161,-18,1
86,-160,-247,39,167,-200,-72,-118,-171,-149,-12,13
92,-154,-247,27,167,-200,-72,-112,-165,-143,-6,18
92,-154,-247,27,167,-200,-72,-112,-159,-137,6,23
98,-148,-247,27,173,-194,-66,-100,-153,-131,11,35
104,-142,-247,15,173,-194,-60,-88,-141,-119,16,41
104,-130,-235,9,167,-182,-60,-76,-123,-113,28,47
110,-118,-229,3,167,-170,-72,-70,-111,-107,34,53
122,-106,-229,-7,173,-164,-84,-70,-105,-101,40,59
128,-94,-223,-19,173,-158,-90,-58,-93,-89,46,65
140,-88,-229,-25,185,-158,-96,-46,-75,-71,52,77
140,-82,-223,-31,179,-152,-102,-40,-57,-53,58,89
140,-76,-217,-31,179,-146,-102,-28,-51,-47,64,95
140,-64,-205,-37,173,-134,-108,-16,-33,-35,76,107
146,-46,-193,-49,167,-116,-108,2,-15,-23,88,119
152,-34,-187,-61,167,-110,-114,13,-3,-17,100,119
158,-28,-187,-61,173,-104,-108,30,13,1,118,131
158,-22,-181,-67,167,-98,-108,48,37,13,136,143
158,-22,-181,-67,167,-98,-96,60,55,24,148,155
164,-16,-181,-73,173,-98,-90,78,79,41,160,167
170,-5,-175,-79,173,-86,-84,90,91,59,172,179
182,-5,-187,-85,185,-92,-84,108,115,77,178,197
188,6,-181,-97,185,-86,-78,126,139,95,190,209
188,12,-175,-97,185,-80,-72,132,163,119,202,221
188,24,-163,-103,179,-68,-66,150,181,137,214,227
188,42,-145,-115,167,-50,-60,162,193,149,220,233
182,48,-133,-109,161,-38,-54,174,211,161,232,245
182,60,-121,-115,155,-26,-54,186,223,173,244,251
182,72,-109,-121,149,-14,-48,192,229,179,256,263
188,90,-97,-139,143,-4,-48,192,235,191,262,269
188,102,-85,-145,137,8,-48,198,241,197,268,275
182,108,-73,-139,131,20,-30,204,253,203,274,281
176,120,-55,-145,119,32,-18,216,259,209,268,281
170,126,-43,-145,107,44,-12,222,265,209,268,281
164,126,-37,-145,101,44,-6,222,271,215,268,275
158,132,-25,-139,95,56,-6,228,277,215,268,275
158,138,-19,-145,89,62,0,228,277,209,256,269
158,138,-19,-145,89,62,0,228,265,209,250,263
152,138,-14,-145,83,62,0,222,265,209,250,263
146,138,-9,-139,77,68,6,222,259,203,244,257
134,132,-3,-127,71,68,12,216,259,191,238,251
134,132,-3,-127,71,68,17,216,253,185,232,245
128,132,3,-127,65,68,17,216,247,179,226,239
122,126,3,-121,59,68,17,210,241,167,220,233
116,132,15,-121,53,74,22,204,241,161,214,221
110,138,27,-121,41,86,28,198,229,149,208,215
104,132,27,-115,41,80,34,192,211,137,196,203
92,126,33,-109,29,80,40,180,199,125,184,197
80,120,39,-97,23,80,46,174,187,113,172,191
68,108,39,-85,17,74,52,162,175,107,166,179
50,90,39,-67,7,68,58,156,163,101,154,167
38,78,39,-55,1,62,58,144,151,89,142,149
26,60,33,-37,1,50,58,132,139,77,130,137
20,48,27,-31,1,38,52,120,133,65,124,125
14,36,21,-19,1,32,52,108,115,47,106,113
14,24,9,-13,7,20,52,96,103,41,100,101
9,12,3,-7,7,8,46,90,91,29,88,89
9,0,-9,-2,12,-4,40,78,73,24,76,77
4,-5,-9,-2,7,-9,34,66,55,13,64,71
4,-16,-19,3,12,-20,28,60,43,1,58,71
-2,-34,-31,15,12,-32,22,42,31,-11,52,65
-2,-46,-43,21,17,-44,17,30,19,-23,46,53
4,-58,-61,21,29,-62,12,18,8,-35,40,41
-2,-70,-67,33,29,-68,6,13,3,-47,40,35
-8,-82,-73,39,29,-80,6,8,-15,-65,28,23
-14,-100,-85,57,35,-92,0,-4,-27,-77,16,13
-20,-112,-91,63,35,-104,0,-16,-39,-89,11,7
-20,-118,-97,63,35,-110,-6,-22,-51,-101,6,1
-20,-130,-109,69,41,-122,-12,-34,-57,-107,-6,-5
-20,-142,-121,75,47,-134,-18,-46,-69,-113,-12,-11
-26,-154,-127,87,47,-140,-18,-52,-81,-119,-24,-17
-32,-166,-133,93,47,-152,-18,-70,-99,-131,-30,-23
-38,-178,-139,105,47,-158,-18,-70,-105,-137,-42,-29
-38,-190,-151,111,53,-170,-24,-76,-105,-143,-48,-35
-38,-196,-157,117,59,-176,-36,-82,-105,-149,-48,-41
-38,-196,-157,117,59,-176,-36,-88,-111,-155,-54,-47
-38,-202,-163,117,59,-182,-36,-94,-117,-161,-60,-47
-38,-208,-169,123,65,-188,-42,-100,-123,-167,-60,-47
-38,-208,-169,123,65,-188,-36,-100,-129,-167,-60,-47
-38,-220,-181,129,71,-200,-36,-100,-135,-173,-60,-53
-38,-220,-181,129,71,-200,-42,-100,-141,-179,-66,-59
-38,-226,-187,129,71,-206,-42,-106,-147,-185,-72,-65
-38,-226,-187,129,71,-206,-42,-112,-147,-185,-72,-65
-44,-232,-187,135,71,-212,-42,-112,-147,-185,-78,-65
-50,-232,-181,141,65,-206,-36,-112,-141,-185,-78,-65
-56,-226,-169,135,53,-200,-36,-112,-135,-185,-78,-59
-56,-226,-169,135,53,-200,-36,-112,-135,-185,-78,-59
-50,-226,-175,135,59,-200,-36,-118,-135,-179,-78,-59
-44,-226,-181,129,65,-206,-36,-118,-135,-179,-78,-59
-44,-232,-187,135,71,-212,-36,-118,-135,-185,-78,-65
-44,-232,-187,135,71,-212,-36,-118,-141,-191,-78,-71
-50,-232,-181,141,65,-206,-36,-112,-135,-191,-78,-71
-50,-232,-181,141,65,-206,-30,-112,-135,-191,-72,-71
-44,-238,-193,135,71,-218,-30,-112,-129,-191,-72,-65
-44,-238,-193,135,71,-218,-36,-118,-135,-191,-72,-65
-44,-232,-187,135,71,-212,-30,-118,-129,-179,-66,-59
-44,-232,-187,135,71,-212,-36,-112,-123,-173,-66,-59
-44,-232,-187,135,71,-212,-36,-112,-117,-173,-60,-53
-38,-226,-187,129,71,-206,-30,-112,-105,-167,-60,-53
-38,-220,-181,129,71,-200,-30,-106,-105,-161,-60,-47
-32,-220,-187,123,77,-206,-30,-106,-105,-155,-60,-41
-38,-214,-175,123,65,-194,-30,-106,-105,-161,-60,-41
-44,-214,-169,123,59,-194,-30,-106,-105,-161,-60,-35
-44,-220,-175,129,65,-200,-30,-106,-99,-161,-60,-35
-44,-220,-175,129,65,-200,-36,-94,-93,-155,-54,-29
-38,-220,-181,129,71,-200,-36,-94,-87,-155,-54,-29
-38,-214,-175,123,65,-194,-36,-88,-87,-155,-54,-29
-32,-208,-175,117,71,-194,-30,-100,-87,-155,-54,-29
-32,-208,-175,117,71,-194,-30,-100,-87,-161,-54,-35
-26,-208,-181,117,77,-194,-36,-100,-99,-161,-54,-35
-26,-208,-181,117,77,-194,-36,-100,-99,-155,-54,-35
-26,-208,-181,117,77,-194,-30,-94,-93,-149,-48,-41
-20,-208,-187,111,83,-200,-30,-100,-87,-149,-48,-41
-20,-208,-187,111,83,-200,-24,-94,-87,-149,-48,-41
-20,-208,-187,111,83,-200,-24,-94,-87,-149,-48,-35
-20,-214,-193,111,83,-206,-24,-94,-93,-149,-48,-35
-20,-220,-199,117,89,-212,-24,-94,-93,-149,-54,-29
-20,-220,-199,117,89,-212,-24,-94,-87,-143,-54,-23
-20,-214,-193,111,83,-206,-24,-94,-87,-143,-54,-23
-14,-214,-199,111,89,-206,-36,-100,-87,-149,-54,-23
-8,-214,-205,105,95,-212,-36,-100,-87,-149,-54,-23
-14,-214,-199,111,89,-206,-36,-100,-87,-149,-54,-23
-14,-214,-199,111,89,-206,-36,-106,-99,-149,-48,-23
-14,-214,-199,111,89,-206,-30,-100,-93,-149,-42,-23
-20,-214,-193,111,83,-206,-30,-94,-93,-149,-42,-23
-20,-214,-193,111,83,-206,-30,-88,-93,-143,-42,-29
-26,-214,-187,117,77,-200,-24,-82,-87,-143,-42,-29
-20,-220,-199,117,89,-212,-24,-88,-87,-143,-36,-29
-20,-220,-199,117,89,-212,-30,-88,-93,-143,-42,-29
-20,-220,-199,117,89,-212,-24,-82,-93,-149,-42,-29
-26,-214,-187,117,77,-200,-30,-88,-93,-155,-42,-29
-26,-214,-187,117,77,-200,-36,-88,-93,-155,-48,-29
-20,-220,-199,117,89,-212,-36,-100,-93,-155,-48,-29
-14,-220,-205,117,95,-212,-36,-106,-99,-167,-48,-29
-14,-220,-205,117,95,-212,-30,-106,-99,-167,-42,-29
-14,-226,-211,117,95,-218,-24,-100,-99,-167,-42,-23
-14,-226,-211,117,95,-218,-24,-106,-105,-167,-48,-23
-14,-232,-217,123,101,-224,-24,-112,-111,-179,-54,-29
-20,-232,-211,123,95,-224,-30,-118,-123,-185,-60,-35
-26,-232,-205,129,89,-218,-30,-112,-117,-185,-66,-41
-26,-238,-211,129,89,-224,-24,-106,-117,-185,-66,-35
-26,-238,-211,129,89,-224,-18,-106,-123,-191,-66,-35
-26,-238,-211,129,89,-224,-18,-112,-123,-191,-72,-35
-26,-244,-217,135,95,-230,-18,-112,-123,-191,-72,-35
-20,-244,-223,129,101,-236,-18,-112,-117,-191,-72,-41
-8,-238,-229,117,107,-236,-18,-112,-117,-191,-66,-41
-8,-244,-235,123,113,-242,-18,-112,-117,-197,-66,-41
-14,-256,-241,135,113,-248,-18,-118,-123,-203,-66,-47
-14,-256,-241,135,113,-248,-18,-118,-123,-209,-66,-53
-20,-262,-241,135,107,-254,-18,-118,-123,-215,-66,-53
-26,-262,-235,141,101,-248,-18,-118,-123,-215,-72,-59
-26,-262,-235,141,101,-248,-24,-118,-129,-215,-78,-59
-26,-262,-235,141,101,-248,-24,-124,-129,-215,-78,-59
-20,-262,-241,135,107,-254,-30,-124,-135,-215,-72,-59
-14,-268,-253,141,119,-260,-24,-130,-141,-215,-78,-53
-14,-268,-253,141,119,-260,-24,-130,-141,-215,-78,-47
-14,-280,-265,147,125,-272,-18,-130,-141,-221,-78,-47
-20,-286,-265,147,119,-278,-18,-130,-141,-221,-78,-47
-20,-286,-265,147,119,-278,-18,-130,-147,-227,-78,-53
-20,-286,-265,147,119,-278,-18,-130,-153,-233,-84,-59
-26,-286,-259,153,113,-272,-18,-130,-159,-239,-90,-65
-32,-292,-259,159,113,-278,-12,-130,-159,-239,-90,-65
-26,-292,-265,159,119,-278,-12,-130,-159,-239,-96,-71
-20,-292,-271,153,125,-284,-12,-142,-159,-239,-102,-71
-20,-298,-277,153,125,-290,-18,-148,-159,-245,-108,-77
-20,-298,-277,153,125,-290,-18,-142,-153,-245,-108,-77
-26,-298,-271,159,119,-284,-18,-142,-159,-245,-108,-77
-26,-292,-265,159,119,-278,-18,-136,-153,-245,-108,-77
-20,-292,-271,153,125,-284,-18,-148,-159,-245,-108,-77
-26,-292,-265,159,119,-278,-12,-148,-153,-239,-102,-83
-32,-292,-259,159,113,-278,-6,-142,-147,-239,-102,-77
-38,-292,-253,165,107,-272,-6,-142,-147,-239,-102,-77
-26,-292,-265,159,119,-278,-6,-136,-147,-239,-108,-77
-26,-292,-265,159,119,-278,0,-142,-147,-239,-108,-77
-20,-286,-265,147,119,-278,6,-136,-141,-239,-108,-77
-14,-280,-265,147,125,-272,12,-124,-135,-233,-102,-71
-20,-274,-253,141,113,-266,12,-118,-135,-227,-102,-71
-20,-268,-247,141,113,-260,12,-118,-135,-227,-96,-65
-14,-256,-241,135,113,-248,12,-124,-135,-215,-90,-59
-14,-238,-223,123,101,-230,17,-124,-135,-209,-84,-53
-2,-226,-223,111,107,-224,17,-118,-135,-203,-78,-47
-2,-220,-217,111,107,-218,22,-118,-129,-203,-72,-47
-2,-208,-205,105,101,-206,22,-118,-129,-197,-66,-41
-2,-202,-199,99,95,-200,28,-112,-123,-191,-60,-41
4,-190,-193,87,95,-194,34,-118,-123,-185,-60,-35
4,-178,-181,81,89,-182,34,-112,-117,-179,-54,-29
9,-166,-175,75,89,-170,40,-106,-111,-173,-48,-29
14,-154,-169,69,89,-158,46,-100,-105,-173,-42,-29
14,-136,-151,63,83,-140,46,-94,-99,-167,-36,-23
14,-130,-145,57,77,-134,46,-100,-99,-167,-36,-17
14,-124,-139,57,77,-128,40,-94,-93,-167,-30,-11
14,-124,-139,57,77,-128,34,-88,-93,-155,-18,1
14,-118,-133,51,71,-122,34,-88,-81,-149,-18,7
20,-118,-139,45,77,-128,34,-82,-75,-143,-12,7
20,-124,-145,51,83,-134,28,-88,-75,-143,-12,7
20,-124,-145,51,83,-134,22,-88,-75,-143,-12,13
26,-130,-157,51,89,-140,22,-88,-75,-143,-18,13
26,-130,-157,51,89,-140,17,-88,-87,-143,-18,13
32,-130,-163,45,95,-146,12,-94,-87,-143,-18,13
44,-136,-181,45,113,-158,6,-94,-93,-143,-24,13
56,-136,-193,39,125,-164,0,-100,-87,-143,-24,13
56,-142,-199,39,125,-170,0,-100,-87,-143,-24,13
56,-148,-205,45,131,-176,0,-94,-87,-143,-24,18
50,-154,-205,51,125,-176,0,-94,-93,-143,-18,18
50,-154,-205,51,125,-176,-6,-100,-99,-143,-12,18
44,-166,-211,57,125,-188,-12,-106,-99,-143,-12,13
44,-184,-229,69,137,-206,-18,-112,-105,-143,-12,13
32,-190,-223,75,125,-206,-18,-118,-105,-149,-18,7
20,-202,-223,87,119,-212,-18,-118,-111,-155,-24,1
14,-220,-235,105,125,-224,-18,-124,-129,-161,-36,-11
9,-232,-241,111,125,-236,-18,-136,-141,-173,-48,-23
4,-244,-247,117,125,-248,-18,-142,-147,-185,-66,-35
-8,-256,-247,129,119,-254,-12,-142,-153,-191,-72,-41
-20,-268,-247,141,113,-260,-12,-148,-165,-197,-84,-53
-20,-280,-259,147,119,-272,-12,-154,-177,-209,-90,-59
-32,-292,-259,159,113,-278,-12,-166,-189,-221,-96,-65
-44,-304,-259,171,107,-284,-12,-172,-195,-233,-102,-77
-50,-316,-265,183,107,-290,-12,-178,-201,-239,-108,-77
-50,-316,-265,183,107,-290,-12,-178,-201,-245,-114,-83
-50,-322,-271,183,107,-296,-12,-178,-201,-245,-120,-89
-44,-328,-283,183,119,-308,-18,-178,-201,-245,-126,-95
-38,-328,-289,183,125,-308,-18,-184,-207,-245,-132,-95
-38,-334,-295,183,125,-314,-24,-184,-213,-245,-132,-95
-38,-334,-295,183,125,-314,-24,-184,-207,-239,-126,-95
-38,-340,-301,189,131,-320,-24,-184,-207,-239,-120,-89
-38,-334,-295,183,125,-314,-30,-184,-207,-239,-120,-89
-44,-334,-289,183,119,-314,-30,-184,-207,-239,-114,-83
-44,-328,-283,183,119,-308,-24,-178,-213,-233,-108,-83
-50,-328,-277,189,113,-302,-24,-178,-213,-233,-108,-83
-44,-322,-277,177,113,-302,-24,-172,-207,-227,-102,-83
-44,-316,-271,177,113,-296,-24,-172,-201,-227,-102,-83
-50,-304,-253,177,101,-278,-12,-166,-195,-215,-96,-83
-56,-292,-235,171,89,-266,-6,-154,-183,-203,-96,-83
-68,-286,-217,171,71,-254,12,-142,-171,-191,-96,-89
-80,-274,-193,171,53,-236,22,-124,-159,-179,-96,-89
-86,-256,-169,171,41,-212,40,-112,-141,-161,-96,-101
-98,-232,-133,165,17,-182,58,-88,-123,-143,-96,-101
-116,-208,-91,159,-11,-152,76,-70,-105,-125,-96,-101
-128,-190,-61,153,-35,-128,94,-40,-81,-101,-90,-95
-140,-172,-31,153,-53,-104,118,-10,-57,-83,-84,-89
-158,-154,3,153,-83,-74,142,13,-21,-59,-78,-89
-170,-142,27,153,-101,-56,166,48,13,-29,-66,-83
-176,-130,45,147,-113,-44,196,84,55,1,-60,-83
-188,-118,69,147,-131,-26,226,120,91,24,-54,-83
-200,-100,99,147,-149,-4,262,168,127,53,-42,-77
-212,-88,123,147,-167,14,298,216,169,89,-30,-77
-206,-88,117,147,-161,14,334,276,217,119,-18,-71
-200,-82,117,135,-161,14,376,342,277,155,-6,-71
-200,-82,117,135,-161,14,424,426,349,197,6,-65
-194,-82,111,135,-155,14,478,522,427,239,6,-71
-200,-76,123,135,-161,20,556,618,505,287,11,-65
-212,-58,153,129,-185,44,640,720,595,341,28,-53
-218,-28,189,123,-203,80,736,828,697,407,52,-47
-224,-10,213,111,-221,98,850,948,799,479,70,-35
-224,6,231,105,-227,116,982,1086,919,563,94,-23
-224,30,255,93,-239,140,1120,1254,1063,671,136,1
-230,78,309,75,-269,194,1270,1428,1231,803,190,35
-230,138,369,45,-299,254,1450,1620,1429,959,268,83
-242,228,471,9,-353,350,1606,1794,1633,1139,364,155
-254,360,615,-49,-431,488,1696,1926,1819,1331,484,239
-248,522,771,-139,-509,644,1708,1992,1969,1529,622,353
-230,690,921,-229,-575,806,1666,1992,2077,1721,766,479
-224,846,1071,-313,-647,956,1570,1908,2107,1883,892,587
-230,1002,1233,-385,-731,1118,1402,1716,2047,1997,1000,677
-224,1158,1383,-469,-803,1268,1156,1434,1951,2105,1096,767
-224,1314,1539,-547,-881,1424,850,1080,1807,2195,1192,851
-230,1464,1695,-613,-959,1580,520,708,1645,2279,1282,929
-236,1554,1791,-661,-1013,1670,214,390,1489,2333,1342,983
-242,1548,1791,-649,-1013,1670,-30,132,1327,2333,1366,1001
-224,1458,1683,-619,-953,1568,-252,-64,1159,2273,1342,989
-212,1320,1533,-553,-869,1424,-432,-238,943,2117,1270,947
-212,1140,1353,-463,-779,1244,-582,-394,661,1817,1120,851
-212,930,1143,-361,-677,1034,-708,-550,325,1427,910,713
-206,696,903,-241,-551,800,-792,-694,-27,971,670,545
-200,450,651,-127,-425,548,-846,-802,-357,503,406,347
-194,216,411,-7,-299,314,-846,-844,-573,113,142,143
-176,42,219,63,-197,128,-822,-826,-663,-125,-24,-5
-158,-64,93,111,-125,14,-786,-778,-693,-269,-132,-89
-134,-130,3,129,-71,-62,-732,-718,-681,-341,-180,-137
-116,-160,-43,135,-35,-104,-660,-646,-645,-365,-198,-149
-104,-190,-85,141,-11,-140,-576,-562,-603,-365,-198,-149
-86,-232,-145,159,29,-188,-480,-478,-555,-353,-186,-137
-68,-262,-193,159,59,-230,-378,-394,-495,-323,-174,-125
-44,-280,-235,159,95,-260,-288,-316,-435,-293,-156,-113
-26,-292,-265,159,119,-278,-216,-244,-375,-263,-144,-101
-20,-316,-295,165,137,-308,-168,-202,-321,-239,-132,-95
-8,-328,-319,165,155,-326,-144,-178,-285,-227,-126,-89
-2,-334,-331,165,161,-332,-126,-160,-261,-221,-120,-83
-8,-340,-331,171,161,-338,-114,-154,-255,-221,-114,-77
-8,-352,-343,177,167,-350,-102,-148,-255,-227,-114,-71
-8,-358,-349,177,167,-356,-90,-142,-255,-227,-114,-71
-8,-358,-349,177,167,-356,-72,-142,-261,-227,-114,-65
-8,-370,-361,183,173,-368,-54,-142,-255,-215,-120,-65
-14,-376,-361,195,173,-368,-42,-124,-243,-203,-120,-59
-8,-376,-367,189,179,-374,-24,-112,-231,-197,-120,-59
-2,-370,-367,183,179,-368,-30,-106,-225,-197,-120,-65
-2,-370,-367,183,179,-368,-30,-106,-225,-203,-120,-65
4,-370,-373,177,185,-374,-36,-106,-225,-209,-114,-65
4,-370,-373,177,185,-374,-42,-106,-225,-215,-114,-65
-2,-376,-373,189,185,-374,-42,-112,-225,-209,-114,-65
-8,-376,-367,189,179,-374,-42,-106,-225,-209,-108,-65
-2,-382,-379,189,185,-380,-36,-106,-225,-203,-108,-65
4,-382,-385,183,191,-386,-30,-94,-219,-203,-108,-59
9,-376,-385,183,197,-380,-24,-82,-213,-191,-102,-53
9,-370,-379,177,191,-374,-18,-76,-213,-185,-96,-53
9,-370,-379,177,191,-374,-18,-70,-195,-173,-90,-41
9,-370,-379,177,191,-374,-18,-58,-189,-167,-78,-35
20,-370,-391,171,203,-380,-24,-52,-183,-161,-78,-23
20,-364,-385,171,203,-374,-24,-46,-171,-155,-72,-17
20,-364,-385,171,203,-374,-24,-40,-165,-149,-72,-11
9,-364,-373,177,191,-368,-24,-40,-165,-149,-66,-11
9,-358,-367,171,185,-362,-18,-40,-165,-143,-66,-5
4,-358,-361,171,179,-362,-6,-40,-159,-137,-66,1
4,-352,-355,171,179,-356,-6,-40,-153,-131,-60,1
9,-358,-367,171,185,-362,-6,-28,-147,-125,-54,1
14,-358,-373,171,191,-362,-6,-22,-135,-119,-48,7
14,-352,-367,171,191,-356,-6,-16,-129,-113,-42,7
20,-340,-361,159,191,-350,-6,-16,-129,-107,-42,7
26,-334,-361,153,191,-344,-6,-4,-123,-101,-36,13
26,-328,-355,153,191,-338,-6,2,-123,-101,-36,18
26,-328,-355,153,191,-338,-6,2,-117,-95,-30,23
32,-334,-367,147,197,-350,-6,2,-123,-95,-24,23
44,-328,-373,141,209,-350,-6,8,-117,-83,-18,29
56,-322,-379,129,215,-350,-6,13,-111,-83,-12,35
62,-316,-379,129,221,-344,-6,18,-99,-71,-6,41
62,-304,-367,123,215,-332,0,24,-93,-65,-6,41
62,-304,-367,123,215,-332,-6,30,-87,-65,-6,47
68,-298,-367,111,215,-332,-12,36,-81,-59,-6,47
68,-298,-367,111,215,-332,-12,36,-75,-53,0,47
68,-292,-361,111,215,-326,-18,36,-69,-47,11,53
74,-286,-361,105,215,-320,-18,42,-63,-41,16,59
80,-280,-361,99,221,-320,-18,48,-57,-41,28,65
92,-274,-367,87,227,-320,-18,54,-51,-35,34,77
98,-268,-367,87,233,-314,-18,66,-39,-23,40,77
104,-262,-367,75,233,-314,-18,78,-27,-17,46,83
98,-250,-349,75,221,-296,-12,84,-15,1,46,83
98,-244,-343,75,221,-290,0,96,3,13,52,89
104,-232,-337,63,221,-284,0,102,8,19,64,101
110,-226,-337,57,221,-278,6,108,19,24,70,107
116,-214,-331,45,221,-272,6,120,25,35,82,113
116,-196,-313,39,215,-254,6,126,43,47,94,125
122,-190,-313,33,215,-248,6,144,61,65,106,131
122,-178,-301,27,209,-236,6,162,79,77,118,143
128,-172,-301,21,215,-236,12,174,97,101,130,149
134,-172,-307,21,221,-236,12,186,115,119,136,161
146,-166,-313,9,227,-236,12,204,133,131,148,167
158,-148,-307,-2,233,-224,17,222,157,155,166,185
164,-136,-301,-13,233,-218,17,234,181,167,178,197
170,-118,-289,-25,227,-200,22,258,193,179,196,209
176,-94,-271,-43,221,-182,22,270,211,191,208,221
182,-76,-259,-49,221,-164,28,288,235,209,220,233
188,-58,-247,-67,215,-152,34,306,259,233,238,239
194,-40,-235,-73,215,-134,40,318,283,257,250,245
200,-28,-229,-85,215,-128,46,330,301,275,256,251
200,-22,-223,-91,209,-122,52,348,319,287,268,251
206,-16,-223,-91,215,-116,52,360,337,305,274,263
206,-5,-211,-97,209,-104,58,372,355,317,286,269
206,12,-193,-103,203,-86,64,384,367,329,298,275
206,30,-175,-115,191,-68,64,396,379,341,304,281
200,48,-151,-121,179,-50,64,402,391,347,310,281
200,60,-139,-127,173,-38,64,402,397,353,316,281
194,78,-115,-133,155,-14,70,408,403,365,328,287
194,84,-109,-133,155,-9,76,414,409,365,328,281
194,90,-103,-139,149,-4,76,414,415,371,328,275
194,96,-97,-139,149,2,88,426,415,377,322,275
194,96,-97,-139,149,2,88,426,415,377,322,275
188,96,-91,-139,143,2,100,426,415,371,322,269
176,96,-79,-133,131,8,112,432,415,371,322,275
170,108,-61,-133,119,26,118,432,415,371,322,275
164,114,-49,-139,107,32,124,438,421,371,322,269
158,108,-49,-127,107,32,124,426,409,365,316,263
146,108,-37,-121,95,38,124,420,403,365,310,251
146,108,-37,-121,95,38,130,420,391,359,304,245
146,102,-43,-121,95,32,136,414,385,347,298,233
146,102,-43,-121,95,32,136,408,373,335,286,221
146,90,-55,-115,101,20,136,408,367,329,280,209
134,78,-55,-103,95,14,142,402,361,317,268,197
122,78,-43,-97,83,20,142,396,349,305,256,191
110,66,-43,-85,77,14,148,390,337,293,244,179
92,54,-37,-73,65,8,148,378,319,281,238,167
80,48,-31,-61,59,8,148,366,295,263,226,149
74,30,-43,-49,59,-4,148,354,277,245,214,137
68,18,-49,-43,59,-14,148,336,259,227,202,125
56,12,-43,-31,53,-14,154,330,247,215,190,119
50,0,-49,-19,53,-20,154,318,241,197,184,107
44,-10,-55,-19,47,-32,148,312,229,185,172,95
32,-34,-67,-2,47,-50,142,300,217,173,160,83
32,-46,-79,3,53,-62,136,288,199,161,148,71
32,-58,-91,9,59,-74,124,270,169,149,130,59
26,-64,-91,21,59,-74,118,258,157,137,124,41
20,-82,-103,27,59,-92,118,240,133,119,112,29
9,-94,-103,39,53,-98,118,228,121,107,100,18
4,-106,-109,45,53,-110,118,222,103,89,88,13
4,-124,-127,57,65,-128,112,216,91,77,82,1
-2,-136,-133,69,65,-134,106,198,85,65,76,-5
-8,-148,-139,75,65,-146,106,192,73,53,64,-17
-8,-160,-151,81,71,-158,100,180,67,41,58,-23
-8,-172,-163,87,77,-170,94,168,55,24,46,-29
-8,-178,-169,87,77,-176,88,156,43,19,40,-41
-8,-184,-175,93,83,-182,88,144,31,13,40,-41
-14,-196,-181,105,83,-188,76,132,19,1,22,-53
-14,-208,-193,111,89,-200,70,126,8,-5,16,-59
-14,-220,-205,117,95,-212,58,108,-3,-17,6,-77
-14,-232,-217,123,101,-224,52,102,-9,-29,-6,-89
-26,-238,-211,129,89,-224,46,102,-15,-35,-6,-89
-26,-250,-223,135,95,-236,46,102,-15,-41,0,-95
-32,-250,-217,135,89,-236,52,102,-27,-53,-6,-95
-26,-250,-223,135,95,-236,52,96,-33,-59,-6,-95
-26,-244,-217,135,95,-230,52,96,-33,-65,-12,-95
-26,-244,-217,135,95,-230,58,96,-39,-65,-12,-95
-32,-250,-217,135,89,-236,52,84,-45,-71,-12,-95
-38,-256,-217,147,89,-236,52,84,-45,-71,-18,-101
-38,-256,-217,147,89,-236,46,84,-39,-71,-18,-101
-38,-262,-223,147,89,-242,46,84,-39,-71,-24,-107
-38,-268,-229,153,95,-248,40,78,-45,-71,-30,-107
-38,-274,-235,153,95,-254,40,72,-45,-71,-36,-113
-38,-268,-229,153,95,-248,40,78,-45,-71,-36,-113
-38,-262,-223,147,89,-242,40,78,-45,-77,-30,-119
-38,-262,-223,147,89,-242,40,78,-45,-77,-24,-119
-38,-262,-223,147,89,-242,40,78,-45,-71,-24,-113
-38,-262,-223,147,89,-242,46,84,-33,-65,-18,-107
-44,-262,-217,147,83,-242,40,84,-33,-65,-24,-107
-38,-268,-229,153,95,-248,40,72,-33,-71,-24,-107
-32,-268,-235,147,101,-254,34,78,-27,-71,-24,-107
-32,-262,-229,141,95,-248,40,78,-27,-71,-18,-101
-38,-262,-223,147,89,-242,40,78,-27,-71,-18,-95
-38,-268,-229,153,95,-248,40,78,-21,-71,-18,-95
-32,-262,-229,141,95,-248,46,78,-21,-71,-18,-95
-32,-256,-223,141,95,-242,46,84,-27,-65,-24,-95
-32,-256,-223,141,95,-242,40,90,-27,-59,-24,-95
-38,-262,-223,147,89,-242,40,90,-27,-59,-24,-95
-44,-256,-211,147,83,-236,34,90,-21,-59,-24,-89
-44,-244,-199,141,77,-224,34,90,-21,-59,-24,-89
-38,-238,-199,135,77,-218,40,90,-21,-59,-24,-95
-32,-238,-205,129,83,-224,34,84,-15,-65,-18,-95
-32,-238,-205,129,83,-224,34,90,-9,-59,-6,-89
-38,-238,-199,135,77,-218,28,90,-9,-59,-6,-83
-38,-232,-193,135,77,-212,22,90,-9,-53,-6,-83
-38,-238,-199,135,77,-218,17,84,-15,-53,-6,-77
-38,-232,-193,135,77,-212,17,78,-15,-53,-12,-77
-38,-232,-193,135,77,-212,17,78,-15,-53,-12,-77
-32,-226,-193,123,77,-212,17,78,-15,-53,-12,-77
-32,-232,-199,129,83,-218,17,78,-9,-53,-12,-71
-26,-226,-199,123,83,-212,17,78,3,-47,-6,-71
-26,-226,-199,123,83,-212,22,78,3,-47,-6,-71
-26,-226,-199,123,83,-212,28,84,3,-47,-6,-71
-20,-226,-205,117,89,-218,28,84,3,-47,0,-71
-20,-226,-205,117,89,-218,28,90,3,-47,0,-65
-20,-226,-205,117,89,-218,28,90,3,-41,0,-65
-26,-226,-199,123,83,-212,22,84,3,-41,-6,-65
-32,-220,-187,123,77,-206,17,84,3,-41,-6,-71
-32,-214,-181,117,71,-200,12,84,-3,-41,-6,-71
-32,-214,-181,117,71,-200,6,78,3,-47,0,-71
-26,-214,-187,117,77,-200,17,78,3,-47,-6,-65
-32,-208,-175,117,71,-194,17,78,3,-53,-6,-65
-32,-208,-175,117,71,-194,17,72,-3,-59,-6,-71
-26,-202,-175,111,71,-188,17,78,-3,-59,-12,-71
-26,-208,-181,117,77,-194,12,78,-3,-59,-12,-71
-20,-208,-187,111,83,-200,12,78,-3,-59,-12,-71
-20,-208,-187,111,83,-200,6,78,-9,-65,-18,-77
-20,-214,-193,111,83,-206,6,78,-9,-65,-12,-77
-20,-208,-187,111,83,-200,0,78,-15,-65,-12,-77
-20,-208,-187,111,83,-200,0,72,-15,-65,-18,-77
-20,-214,-193,111,83,-206,-6,72,-15,-65,-18,-77
-20,-220,-199,117,89,-212,-6,72,-15,-59,-18,-71
-26,-214,-187,117,77,-200,-6,78,-21,-59,-18,-71
-26,-208,-181,117,77,-194,-6,72,-27,-65,-24,-71
-20,-208,-187,111,83,-200,-6,72,-27,-71,-24,-77
-20,-202,-181,105,77,-194,-18,60,-33,-77,-24,-77
-26,-196,-169,111,71,-182,-24,60,-33,-77,-18,-77
-26,-202,-175,111,71,-188,-24,54,-33,-77,-18,-77
-26,-202,-175,111,71,-188,-18,60,-33,-71,-12,-71
-26,-208,-181,117,77,-194,-12,54,-39,-71,-18,-65
-20,-208,-187,111,83,-200,-12,54,-45,-83,-24,-65
-20,-220,-199,117,89,-212,-18,54,-45,-83,-30,-71
-14,-220,-205,117,95,-212,-18,54,-45,-89,-30,-71
-14,-220,-205,117,95,-212,-18,42,-45,-95,-36,-77
-20,-232,-211,123,95,-224,-18,42,-57,-107,-48,-83
-26,-232,-205,129,89,-218,-18,36,-57,-107,-54,-89
-26,-226,-199,123,83,-212,-18,36,-57,-107,-54,-89
-20,-226,-205,117,89,-218,-18,36,-57,-113,-54,-89
-26,-226,-199,123,83,-212,-18,36,-57,-119,-60,-95
-20,-226,-205,117,89,-218,-24,30,-57,-125,-60,-95
-20,-226,-205,117,89,-218,-18,30,-63,-131,-60,-101
-32,-238,-205,129,83,-224,-18,36,-63,-131,-60,-101
-44,-250,-205,141,77,-230,-12,36,-57,-125,-54,-95
-50,-250,-199,147,71,-224,-12,30,-57,-125,-54,-95
-44,-262,-217,147,83,-242,-12,24,-63,-131,-60,-101
-44,-256,-211,147,83,-236,-12,18,-69,-137,-66,-101
-38,-250,-211,141,83,-230,-6,18,-69,-137,-66,-95
-38,-250,-211,141,83,-230,-6,18,-69,-137,-66,-95
-32,-256,-223,141,95,-242,-6,18,-75,-137,-66,-95
-32,-250,-217,135,89,-236,-12,13,-75,-137,-66,-95
-32,-256,-223,141,95,-242,-12,13,-87,-143,-66,-95
-32,-256,-223,141,95,-242,-12,13,-87,-143,-66,-89
-38,-250,-211,141,83,-230,-12,18,-87,-143,-72,-89
-38,-250,-211,141,83,-230,-18,18,-99,-149,-72,-95
-38,-256,-217,147,89,-236,-18,13,-99,-149,-72,-101
-38,-250,-211,141,83,-230,-24,13,-99,-155,-72,-101
-38,-250,-211,141,83,-230,-24,13,-99,-155,-72,-101
-44,-256,-211,147,83,-236,-24,13,-99,-155,-72,-101
-32,-256,-223,141,95,-242,-24,8,-99,-161,-72,-107
-32,-256,-223,141,95,-242,-18,2,-99,-161,-72,-113
-32,-256,-223,141,95,-242,-18,2,-99,-161,-66,-107
-32,-250,-217,135,89,-236,-12,8,-93,-161,-66,-107
-32,-244,-211,135,89,-230,0,13,-87,-161,-66,-107
-38,-244,-205,141,83,-224,0,18,-81,-155,-66,-101
-26,-232,-205,129,89,-218,6,24,-75,-149,-66,-95
-26,-214,-187,117,77,-200,6,30,-69,-137,-60,-89
-26,-202,-175,111,71,-188,6,30,-63,-131,-54,-83
-26,-190,-163,105,65,-176,6,30,-63,-125,-54,-83
-20,-172,-151,93,65,-164,6,30,-57,-125,-54,-83
-14,-160,-145,87,65,-152,17,36,-57,-113,-48,-77
-2,-142,-139,69,65,-140,17,36,-51,-107,-42,-77
-2,-124,-121,63,59,-122,22,36,-51,-107,-42,-71
-2,-118,-115,57,53,-116,22,36,-39,-101,-30,-71
-2,-106,-103,51,47,-104,28,42,-39,-101,-30,-65
-2,-100,-97,51,47,-98,22,42,-33,-95,-24,-65
-2,-100,-97,51,47,-98,22,36,-33,-95,-18,-59
-2,-94,-91,45,41,-92,17,36,-27,-83,-18,-53
-2,-82,-79,39,35,-80,22,42,-21,-77,-12,-41
-2,-82,-79,39,35,-80,28,54,-15,-71,0,-35
4,-76,-79,33,41,-80,34,48,-15,-71,0,-29
-2,-76,-73,39,35,-74,34,48,-15,-71,0,-29
9,-82,-91,33,47,-86,22,42,-21,-71,-6,-35
20,-76,-97,27,59,-86,17,36,-15,-77,0,-29
26,-82,-109,27,65,-92,12,36,-21,-71,0,-29
26,-82,-109,27,65,-92,6,36,-21,-71,-6,-29
20,-82,-103,27,59,-92,-12,36,-27,-71,-6,-29
26,-82,-109,27,65,-92,-24,36,-21,-71,0,-23
20,-88,-109,33,65,-98,-36,36,-21,-71,6,-23
20,-88,-109,33,65,-98,-42,36,-21,-77,6,-17
14,-94,-109,39,59,-98,-48,30,-27,-83,6,-23
14,-100,-115,45,65,-104,-48,18,-27,-89,0,-23
14,-112,-127,51,71,-116,-42,13,-33,-95,-6,-23
14,-130,-145,57,77,-134,-48,8,-45,-101,-12,-29
9,-136,-145,63,77,-140,-42,2,-51,-107,-18,-35
4,-148,-151,69,77,-152,-42,-4,-57,-107,-24,-41
-2,-166,-163,81,77,-164,-42,-10,-63,-119,-36,-53
-14,-184,-169,99,77,-176,-48,-16,-75,-131,-48,-65
-26,-196,-169,111,71,-182,-42,-16,-81,-143,-60,-77
-32,-214,-181,117,71,-200,-42,-16,-81,-155,-72,-89
-38,-226,-187,129,71,-206,-48,-22,-93,-167,-84,-101
-50,-238,-187,141,65,-212,-42,-28,-99,-179,-96,-107
-56,-256,-199,153,71,-230,-42,-34,-99,-191,-102,-113
-56,-262,-205,153,71,-236,-48,-40,-111,-203,-102,-119
-62,-262,-199,159,65,-230,-48,-52,-123,-203,-108,-119
-62,-268,-205,165,71,-236,-54,-58,-129,-203,-108,-119
-62,-268,-205,165,71,-236,-54,-64,-135,-203,-114,-125
-56,-274,-217,159,77,-248,-60,-64,-135,-209,-114,-125
-56,-280,-223,165,83,-254,-60,-64,-135,-209,-114,-125
-56,-286,-229,165,83,-260,-66,-64,-135,-209,-120,-131
-50,-280,-229,165,89,-254,-72,-64,-129,-215,-120,-125
-56,-280,-223,165,83,-254,-72,-70,-129,-221,-120,-119
-56,-268,-211,159,77,-242,-72,-70,-129,-221,-120,-119
-62,-262,-199,159,65,-230,-72,-64,-123,-215,-120,-119
-68,-256,-187,159,59,-224,-66,-64,-123,-209,-120,-119
-74,-250,-175,159,47,-212,-66,-64,-123,-209,-120,-119
-74,-244,-169,159,47,-206,-66,-58,-117,-203,-120,-119
-86,-226,-139,153,23,-182,-66,-58,-111,-197,-120,-125
-86,-214,-127,147,17,-170,-54,-52,-99,-191,-114,-125
-92,-214,-121,147,12,-170,-42,-34,-87,-179,-114,-125
-104,-202,-97,147,-5,-152,-30,-22,-69,-161,-114,-125
-116,-184,-67,147,-23,-128,-18,-4,-57,-149,-108,-131
-116,-172,-55,141,-29,-116,-6,8,-39,-137,-108,-131
-128,-160,-31,141,-47,-98,6,18,-27,-125,-108,-137
-128,-142,-14,129,-59,-80,17,36,-3,-113,-96,-143
-128,-124,3,123,-65,-62,40,60,19,-83,-90,-143
-146,-100,45,123,-95,-26,70,90,61,-53,-84,-143
-170,-88,81,129,-125,-4,106,126,97,-29,-78,-143
-182,-64,117,123,-149,26,130,156,127,1,-72,-143
-188,-40,147,111,-167,50,160,192,169,24,-72,-143
-206,-22,183,111,-197,80,190,234,205,53,-60,-137
-218,-5,213,111,-215,104,214,282,253,83,-48,-131
-224,0,225,111,-221,110,244,330,301,125,-36,-119
-212,0,213,105,-209,104,280,396,361,167,-12,-113
-200,6,207,93,-203,104,322,468,427,209,6,-107
-194,6,201,93,-197,104,376,546,493,251,11,-107
-194,18,213,87,-203,116,442,630,571,293,11,-107
-200,42,243,75,-221,140,520,720,655,341,22,-101
-206,72,279,69,-239,176,610,822,751,407,40,-95
-200,108,309,45,-251,206,706,936,865,473,52,-83
-200,132,333,33,-263,230,826,1068,991,557,82,-71
-206,150,357,27,-281,254,964,1218,1129,653,124,-53
-218,186,405,15,-311,296,1102,1368,1285,779,184,-17
-224,234,459,-7,-341,344,1264,1542,1465,935,256,23
-236,318,555,-43,-395,434,1432,1710,1645,1109,352,89
-242,426,669,-91,-455,548,1540,1836,1813,1289,460,167
-242,582,825,-169,-533,704,1570,1902,1951,1469,580,263
-236,762,999,-265,-617,878,1564,1926,2065,1649,706,371
-236,918,1155,-343,-695,1034,1492,1884,2119,1799,826,473
-248,1062,1311,-409,-779,1184,1372,1740,2083,1895,910,551
-254,1212,1467,-475,-857,1340,1156,1500,1975,1973,994,623
-260,1356,1617,-547,-935,1484,886,1170,1813,2027,1072,695
-260,1494,1755,-619,-1007,1622,562,804,1615,2069,1150,761
-260,1596,1857,-667,-1055,1724,262,474,1429,2093,1198,797
-248,1608,1857,-679,-1049,1730,12,210,1237,2075,1210,809
-236,1548,1785,-655,-1007,1664,-222,2,1051,2015,1192,803
-218,1434,1653,-607,-935,1544,-414,-178,835,1859,1120,767
-218,1260,1479,-517,-845,1370,-570,-346,565,1577,982,683
-230,1068,1299,-415,-761,1184,-690,-496,253,1187,790,557
-224,846,1071,-313,-647,956,-786,-634,-63,755,562,401
-212,582,795,-187,-503,686,-852,-748,-351,305,316,221
-206,342,549,-67,-377,446,-876,-802,-555,-65,76,41
-182,156,339,15,-257,248,-882,-808,-645,-293,-90,-95
-158,30,189,63,-173,110,-864,-778,-669,-413,-186,-173
-140,-40,99,87,-119,26,-822,-730,-645,-461,-228,-221
-122,-76,45,99,-83,-14,-756,-664,-603,-473,-240,-233
-110,-106,3,105,-59,-50,-666,-580,-549,-461,-240,-233
-98,-136,-37,117,-29,-86,-564,-496,-495,-449,-228,-221
-80,-172,-91,123,7,-134,-468,-406,-435,-419,-210,-191
-56,-202,-145,123,41,-176,-378,-328,-369,-383,-186,-161
-38,-220,-181,129,71,-200,-306,-262,-303,-347,-156,-137
-32,-238,-205,129,83,-224,-258,-214,-249,-317,-138,-119
-26,-244,-217,135,95,-230,-228,-190,-207,-299,-132,-119
-20,-250,-229,129,101,-242,-210,-184,-183,-287,-126,-119
-20,-268,-247,141,113,-260,-198,-184,-177,-287,-126,-125
-26,-274,-247,147,107,-260,-192,-184,-177,-287,-120,-125
-32,-274,-241,147,101,-260,-180,-190,-183,-287,-120,-125
-38,-274,-235,153,95,-254,-162,-190,-183,-281,-114,-113
-38,-274,-235,153,95,-254,-150,-184,-183,-281,-108,-107
-38,-268,-229,153,95,-248,-126,-172,-171,-287,-108,-101
-26,-274,-247,147,107,-260,-126,-166,-159,-281,-102,-95
-20,-274,-253,141,113,-266,-120,-154,-147,-281,-102,-95
-14,-280,-265,147,125,-272,-120,-148,-135,-275,-102,-95
-14,-286,-271,147,125,-278,-126,-148,-129,-275,-102,-101
-20,-280,-259,147,119,-272,-126,-154,-129,-275,-108,-107
-14,-286,-271,147,125,-278,-126,-160,-135,-275,-114,-107
-20,-280,-259,147,119,-272,-126,-166,-141,-275,-114,-107
-14,-274,-259,141,119,-266,-120,-172,-135,-275,-114,-101
-14,-280,-265,147,125,-272,-114,-166,-141,-269,-108,-95
-14,-274,-259,141,119,-266,-108,-160,-135,-263,-108,-95
-14,-274,-259,141,119,-266,-96,-154,-123,-251,-102,-89
-14,-280,-265,147,125,-272,-96,-154,-117,-245,-90,-83
-8,-274,-265,135,125,-272,-102,-148,-117,-245,-84,-77
-8,-274,-265,135,125,-272,-102,-142,-111,-233,-84,-71
-14,-268,-253,141,119,-260,-102,-142,-105,-233,-78,-65
-14,-262,-247,135,113,-254,-108,-142,-99,-227,-78,-59
-2,-256,-253,129,125,-254,-108,-142,-99,-227,-78,-53
4,-250,-253,117,125,-254,-108,-142,-87,-227,-78,-53
4,-244,-247,117,125,-248,-102,-142,-81,-215,-72,-47
9,-244,-253,117,131,-248,-102,-136,-81,-215,-66,-47
20,-238,-259,105,137,-248,-96,-130,-81,-209,-54,-41
20,-238,-259,105,137,-248,-96,-130,-69,-197,-48,-35
26,-238,-265,105,143,-248,-96,-124,-63,-197,-36,-29
20,-238,-259,105,137,-248,-96,-124,-57,-197,-30,-23
14,-238,-253,111,131,-242,-102,-130,-51,-191,-24,-17
14,-232,-247,111,131,-236,-96,-130,-51,-185,-30,-17
20,-220,-241,99,131,-230,-96,-130,-51,-179,-24,-11
26,-220,-247,99,137,-230,-90,-124,-51,-179,-24,1
14,-214,-229,99,119,-218,-90,-124,-51,-179,-24,1
20,-208,-229,93,125,-218,-96,-124,-51,-173,-18,7
20,-208,-229,93,125,-218,-96,-124,-45,-167,-18,13
26,-196,-223,87,125,-206,-96,-118,-33,-161,-6,18
32,-190,-223,75,125,-206,-90,-112,-21,-155,0,18
38,-184,-223,75,131,-200,-90,-112,-21,-149,0,18
44,-178,-223,63,131,-200,-96,-112,-15,-149,0,23
50,-184,-235,69,143,-206,-90,-106,-9,-143,6,29
50,-178,-229,63,137,-200,-96,-100,-3,-137,6,29
50,-178,-229,63,137,-200,-96,-88,3,-131,11,35
56,-178,-235,57,143,-206,-96,-82,8,-125,16,41
56,-172,-229,57,143,-200,-96,-70,19,-113,22,47
62,-172,-235,57,149,-200,-96,-64,31,-101,28,53
74,-160,-235,45,155,-194,-96,-64,43,-95,40,59
86,-148,-235,33,161,-188,-90,-64,55,-83,46,65
86,-148,-235,33,161,-188,-90,-58,61,-77,52,77
92,-130,-223,15,155,-176,-96,-52,67,-65,58,83
92,-118,-211,9,149,-164,-96,-40,79,-53,70,95
92,-100,-193,3,143,-146,-90,-34,85,-41,76,101
92,-82,-175,-7,131,-128,-90,-28,97,-35,82,107
92,-76,-169,-7,131,-122,-90,-16,115,-23,94,119
98,-70,-169,-13,131,-116,-90,-10,127,-11,100,131
104,-58,-163,-25,131,-110,-90,2,145,1,118,131
116,-52,-169,-31,143,-110,-84,13,163,19,130,143
128,-34,-163,-49,143,-98,-78,18,175,41,142,155
134,-28,-163,-49,149,-92,-72,24,193,65,148,167
140,-16,-157,-61,149,-86,-66,42,223,89,166,185
152,-5,-157,-73,155,-80,-54,60,241,107,178,197
152,0,-151,-73,155,-74,-60,72,259,125,184,203
158,18,-139,-85,149,-56,-60,84,283,137,196,215
158,42,-115,-97,137,-32,-60,102,301,149,208,227
158,60,-97,-103,131,-14,-60,114,313,161,226,239
158,72,-85,-109,125,-4,-54,126,331,179,244,251
158,84,-73,-115,119,8,-48,144,343,197,256,263
158,96,-61,-121,113,20,-42,150,355,209,262,269
164,114,-49,-139,107,32,-42,150,379,221,262,275
164,120,-43,-139,107,38,-36,156,391,233,262,275
164,138,-25,-151,95,56,-30,168,403,251,268,281
164,150,-14,-157,89,68,-24,174,409,251,268,275
164,156,-9,-157,89,74,-18,180,409,257,268,281
164,168,3,-163,83,86,-12,186,415,257,268,281
164,186,21,-175,71,104,-12,198,415,263,274,287
164,186,21,-175,71,104,0,204,421,263,274,287
158,204,45,-175,59,128,6,210,421,269,274,281
146,204,57,-169,47,134,12,210,427,269,274,281
140,210,69,-175,35,140,12,210,427,269,268,275
140,210,69,-175,35,140,17,198,427,263,256,275
128,210,81,-169,23,146,17,198,421,263,250,269
128,216,87,-169,23,152,22,198,421,263,244,263
116,210,93,-163,12,152,34,198,409,257,244,257
110,210,99,-157,7,158,46,198,397,245,232,245
98,204,105,-145,1,158,46,198,385,233,220,227
92,198,105,-145,-5,152,52,192,379,221,208,215
86,198,111,-139,-11,158,58,192,373,215,202,209
80,198,117,-139,-17,158,58,186,367,209,190,209
68,180,111,-121,-17,146,58,174,355,197,178,203
68,180,111,-121,-17,146,64,174,337,179,172,197
62,174,111,-115,-23,146,70,162,325,167,166,191
56,168,111,-109,-23,140,64,156,307,155,154,179
44,156,111,-97,-29,134,70,144,289,143,142,167
38,144,105,-85,-29,128,70,132,277,131,130,155
32,138,105,-85,-35,122,70,126,259,107,118,137
14,126,111,-67,-47,122,70,114,241,95,106,131
9,108,99,-55,-41,104,76,102,229,77,94,119
-2,102,105,-49,-53,104,70,90,217,59,82,107
-8,90,99,-43,-53,92,70,84,199,47,76,95
-8,78,87,-37,-47,80,58,72,181,35,64,83
-14,60,75,-19,-41,68,46,60,169,24,52,71
-14,48,63,-13,-35,56,40,48,151,7,34,59
-2,42,45,-19,-23,44,28,42,127,-11,16,53
9,30,21,-19,-5,26,28,30,115,-17,11,47
9,12,3,-7,7,8,22,18,97,-35,0,35
4,0,-3,-2,7,-4,28,13,85,-47,-6,29
-14,-16,-3,15,-5,-9,28,2,73,-59,-12,23
-26,-28,-3,27,-11,-14,28,-4,67,-65,-18,18
-32,-34,-3,27,-17,-20,22,-10,55,-77,-24,7
-38,-40,-3,39,-17,-20,17,-22,43,-89,-36,1
-38,-52,-14,45,-11,-32,6,-28,31,-95,-42,-5
-44,-58,-14,45,-17,-38,0,-40,19,-107,-54,-11
-44,-70,-25,51,-11,-50,0,-40,8,-119,-60,-17
-56,-76,-19,63,-17,-50,-6,-46,3,-131,-66,-17
-62,-82,-19,69,-23,-50,-6,-52,-3,-131,-66,-23
-56,-88,-31,69,-11,-62,-6,-58,-9,-143,-72,-29
-50,-94,-43,69,-5,-68,-6,-58,-15,-155,-72,-29
-44,-100,-55,69,7,-80,-12,-64,-15,-155,-78,-29
-50,-106,-55,75,1,-80,-18,-64,-27,-161,-84,-35
-56,-112,-55,81,1,-86,-24,-70,-33,-167,-90,-41
-50,-106,-55,75,1,-80,-24,-64,-39,-173,-96,-47
-50,-100,-49,75,1,-74,-24,-64,-39,-167,-96,-47
-56,-100,-43,75,-5,-74,-24,-70,-39,-167,-90,-47
-62,-106,-43,81,-11,-74,-30,-76,-45,-173,-96,-53
-56,-106,-49,75,-5,-80,-30,-82,-51,-173,-102,-59
-50,-112,-61,81,7,-86,-30,-82,-45,-173,-96,-53
-50,-112,-61,81,7,-86,-30,-82,-45,-167,-96,-53
-50,-118,-67,81,7,-92,-36,-88,-51,-167,-102,-59
-56,-124,-67,87,7,-98,-36,-88,-57,-167,-102,-59
-62,-124,-61,93,1,-92,-30,-82,-51,-167,-102,-53
-62,-118,-55,87,-5,-86,-30,-76,-51,-167,-102,-53
-62,-124,-61,93,1,-92,-24,-64,-51,-167,-102,-47
-62,-124,-61,93,1,-92,-24,-64,-51,-167,-102,-47
-62,-124,-61,93,1,-92,-24,-64,-57,-173,-102,-47
-56,-124,-67,87,7,-98,-30,-70,-57,-173,-108,-47
-56,-118,-61,81,1,-92,-30,-64,-57,-167,-108,-41
-56,-118,-61,81,1,-92,-36,-64,-45,-167,-108,-41
-56,-112,-55,81,1,-86,-36,-64,-45,-167,-108,-41
-56,-112,-55,81,1,-86,-36,-64,-45,-167,-102,-47
-56,-112,-55,81,1,-86,-42,-64,-45,-161,-102,-47
-56,-106,-49,75,-5,-80,-36,-70,-51,-161,-102,-47
-50,-106,-55,75,1,-80,-36,-64,-51,-161,-102,-53
-56,-100,-43,75,-5,-74,-30,-64,-57,-161,-96,-53
-56,-100,-43,75,-5,-74,-30,-64,-51,-161,-96,-53
-50,-106,-55,75,1,-80,-36,-64,-51,-161,-96,-53
-44,-106,-61,69,7,-86,-42,-58,-51,-161,-102,-47
-38,-112,-73,75,17,-92,-42,-58,-57,-167,-102,-35
-38,-112,-73,75,17,-92,-42,-52,-57,-167,-90,-29
-44,-106,-61,69,7,-86,-36,-52,-57,-161,-90,-29
-44,-94,-49,63,1,-74,-36,-52,-51,-161,-90,-23
-44,-88,-43,63,1,-68,-36,-52,-39,-161,-90,-23
-44,-88,-43,63,1,-68,-36,-52,-39,-155,-84,-23
-38,-88,-49,63,7,-68,-36,-46,-39,-155,-84,-23
-44,-88,-43,63,1,-68,-36,-46,-45,-149,-84,-23
-32,-88,-55,57,12,-74,-36,-46,-45,-149,-90,-23
-26,-88,-61,57,17,-74,-48,-46,-51,-149,-84,-23
-32,-88,-55,57,12,-74,-54,-40,-45,-143,-78,-23
-32,-88,-55,57,12,-74,-54,-34,-45,-137,-78,-23
-38,-88,-49,63,7,-68,-48,-34,-45,-131,-78,-23
-38,-88,-49,63,7,-68,-48,-34,-45,-131,-78,-23
-32,-76,-43,51,7,-62,-42,-34,-45,-131,-78,-23
-32,-76,-43,51,7,-62,-48,-40,-39,-131,-84,-17
-32,-76,-43,51,7,-62,-48,-34,-39,-137,-90,-17
-38,-76,-37,57,1,-56,-48,-34,-39,-137,-90,-17
-44,-82,-37,57,-5,-62,-54,-34,-39,-137,-90,-17
-44,-76,-31,57,-5,-56,-48,-34,-39,-137,-90,-11
-44,-76,-31,57,-5,-56,-42,-34,-39,-137,-90,-17
-38,-82,-43,57,1,-62,-42,-28,-45,-137,-90,-17
-38,-82,-43,57,1,-62,-42,-28,-51,-137,-90,-17
-38,-88,-49,63,7,-68,-42,-34,-51,-137,-96,-23
-32,-82,-49,51,7,-68,-42,-34,-57,-143,-96,-29
-32,-82,-49,51,7,-68,-42,-40,-57,-143,-90,-29
-32,-82,-49,51,7,-68,-42,-40,-57,-143,-84,-29
-26,-82,-55,51,12,-68,-48,-34,-63,-143,-84,-29
-26,-88,-61,57,17,-74,-48,-34,-63,-143,-90,-29
-38,-88,-49,63,7,-68,-54,-34,-69,-149,-90,-29
-38,-88,-49,63,7,-68,-60,-34,-69,-149,-90,-29
-26,-88,-61,57,17,-74,-60,-34,-63,-149,-90,-23
-26,-82,-55,51,12,-68,-60,-34,-57,-149,-90,-23
-20,-88,-67,51,23,-80,-60,-46,-69,-161,-96,-23
-20,-88,-67,51,23,-80,-54,-52,-75,-161,-96,-23
-20,-88,-67,51,23,-80,-54,-58,-81,-167,-96,-23
-20,-94,-73,51,23,-86,-54,-58,-81,-173,-102,-23
-20,-94,-73,51,23,-86,-54,-52,-81,-173,-96,-23
-20,-100,-79,57,29,-92,-60,-46,-75,-173,-102,-23
-14,-94,-79,51,29,-86,-60,-46,-75,-179,-102,-29
-14,-94,-79,51,29,-86,-60,-52,-75,-185,-108,-29
-14,-100,-85,57,35,-92,-72,-52,-81,-191,-108,-29
-20,-100,-79,57,29,-92,-66,-58,-87,-185,-108,-35
-20,-100,-79,57,29,-92,-66,-58,-93,-191,-108,-35
-20,-100,-79,57,29,-92,-66,-58,-93,-197,-114,-35
-20,-94,-73,51,23,-86,-60,-64,-93,-197,-114,-41
-26,-100,-73,63,23,-86,-60,-70,-99,-203,-120,-47
-26,-100,-73,63,23,-86,-54,-64,-99,-203,-120,-41
-32,-100,-67,63,17,-86,-54,-64,-99,-203,-120,-35
-38,-106,-67,69,12,-86,-54,-64,-99,-209,-126,-41
-38,-112,-73,75,17,-92,-60,-64,-99,-215,-132,-41
-32,-118,-85,69,23,-104,-66,-70,-105,-215,-132,-47
-26,-112,-85,69,29,-98,-78,-76,-105,-221,-132,-47
-20,-112,-91,63,35,-104,-78,-76,-111,-221,-132,-47
-20,-118,-97,63,35,-110,-72,-76,-111,-221,-126,-47
-26,-118,-91,69,29,-104,-66,-76,-117,-227,-126,-47
-26,-124,-97,75,35,-110,-60,-76,-117,-227,-126,-47
-32,-130,-97,75,29,-116,-60,-70,-123,-233,-132,-47
-44,-136,-91,87,23,-116,-60,-70,-117,-233,-132,-53
-38,-142,-103,87,29,-122,-60,-76,-111,-233,-132,-53
-38,-130,-91,81,23,-110,-66,-76,-111,-233,-132,-59
-44,-130,-85,81,17,-110,-66,-76,-111,-227,-138,-59
-44,-118,-73,75,12,-98,-66,-76,-111,-227,-138,-53
-38,-112,-73,75,17,-92,-60,-76,-105,-221,-126,-47
-32,-106,-73,63,17,-92,-54,-76,-105,-215,-126,-35
-32,-100,-67,63,17,-86,-48,-76,-99,-215,-126,-35
-32,-100,-67,63,17,-86,-48,-82,-99,-215,-132,-35
-32,-88,-55,57,12,-74,-42,-82,-99,-221,-132,-41
-32,-82,-49,51,7,-68,-42,-76,-99,-221,-132,-41
-32,-76,-43,51,7,-62,-36,-70,-99,-215,-126,-35
-26,-64,-37,45,7,-50,-36,-64,-99,-209,-120,-29
-20,-64,-43,39,12,-56,-36,-64,-93,-203,-108,-29
-14,-46,-31,27,7,-38,-36,-64,-93,-197,-96,-23
-14,-34,-19,21,1,-26,-36,-64,-93,-197,-96,-29
-8,-22,-14,9,1,-20,-36,-70,-87,-191,-96,-29
-2,-5,-3,3,1,-4,-36,-70,-81,-185,-96,-23
-8,0,9,3,-5,2,-36,-64,-81,-185,-96,-17
-2,12,15,-2,-5,14,-30,-64,-75,-179,-96,-17
9,30,21,-19,-5,26,-30,-70,-75,-173,-102,-17
9,36,27,-19,-5,32,-30,-70,-75,-173,-96,-17
20,48,27,-31,1,38,-30,-76,-75,-167,-90,-17
20,54,33,-37,-5,44,-42,-70,-75,-167,-90,-11
20,54,33,-37,-5,44,-42,-70,-69,-167,-78,1
20,66,45,-43,-11,56,-48,-64,-69,-161,-72,7
14,66,51,-37,-17,62,-54,-70,-75,-161,-72,1
14,66,51,-37,-17,62,-54,-76,-75,-167,-78,1
20,60,39,-37,-5,50,-60,-82,-81,-167,-78,-5
26,54,27,-37,1,44,-72,-88,-87,-167,-78,-5
26,48,21,-31,7,38,-72,-88,-87,-167,-78,1
32,42,9,-37,12,26,-78,-82,-81,-161,-78,1
26,36,9,-25,12,26,-84,-82,-81,-167,-78,1
32,30,-3,-31,17,14,-84,-82,-75,-167,-72,7
38,30,-9,-31,23,14,-90,-82,-75,-173,-72,7
32,36,3,-31,17,20,-96,-82,-75,-173,-72,1
32,36,3,-31,17,20,-96,-82,-75,-173,-78,-5
32,42,9,-37,12,26,-102,-88,-81,-173,-84,-5
32,36,3,-31,17,20,-102,-88,-81,-173,-78,1
26,24,-3,-19,17,14,-114,-94,-81,-173,-78,1
14,12,-3,-7,12,8,-108,-94,-81,-179,-78,-5
9,-5,-14,-2,12,-9,-102,-100,-87,-185,-90,-11
-2,-28,-25,15,12,-26,-102,-112,-99,-203,-96,-23
-8,-40,-31,21,12,-38,-102,-118,-111,-209,-108,-29
-14,-64,-49,39,17,-56,-102,-124,-123,-221,-108,-41
-20,-76,-55,45,17,-68,-102,-130,-135,-227,-120,-47
-20,-88,-67,51,23,-80,-102,-136,-135,-239,-126,-53
-26,-94,-67,57,17,-80,-102,-130,-141,-245,-138,-59
-32,-100,-67,63,17,-86,-108,-136,-147,-251,-144,-71
-32,-112,-79,69,23,-98,-108,-142,-153,-263,-156,-77
-38,-118,-79,75,17,-98,-108,-154,-165,-275,-156,-89
-44,-118,-73,75,12,-98,-108,-154,-171,-275,-162,-89
-44,-130,-85,81,17,-110,-108,-160,-171,-275,-162,-89
-38,-130,-91,81,23,-110,-114,-166,-177,-281,-168,-95
-32,-130,-97,75,29,-116,-120,-172,-177,-281,-168,-101
-20,-136,-115,75,47,-128,-126,-178,-183,-287,-168,-101
-20,-136,-115,75,47,-128,-120,-184,-189,-281,-168,-101
-26,-136,-109,81,41,-122,-120,-178,-189,-281,-168,-101
-26,-136,-109,81,41,-122,-108,-178,-189,-281,-174,-101
-26,-136,-109,81,41,-122,-108,-178,-183,-281,-168,-101
-26,-130,-103,75,35,-116,-102,-178,-171,-281,-168,-101
-38,-124,-85,81,23,-104,-96,-172,-165,-275,-162,-101
-38,-118,-79,75,17,-98,-96,-166,-159,-269,-162,-101
-50,-106,-55,75,1,-80,-96,-154,-153,-257,-162,-101
-50,-100,-49,75,1,-74,-90,-148,-141,-251,-162,-101
-56,-88,-31,69,-11,-62,-78,-136,-135,-239,-156,-95
-68,-76,-9,69,-29,-44,-66,-124,-123,-233,-156,-101
-80,-64,15,69,-47,-26,-60,-112,-99,-221,-156,-101
-80,-46,33,57,-59,-9,-42,-94,-87,-215,-156,-113
-92,-22,69,51,-83,20,-30,-82,-75,-203,-156,-119
-98,-10,87,51,-95,38,-6,-70,-63,-191,-156,-125
-110,6,117,51,-113,62,6,-52,-39,-173,-156,-125
-122,24,147,51,-131,86,28,-28,-21,-155,-156,-125
-134,36,171,51,-149,104,52,2,8,-131,-156,-125
-146,60,207,45,-173,134,76,36,43,-101,-150,-125
-158,66,225,45,-191,146,106,72,85,-65,-144,-131
-170,84,255,45,-209,170,136,120,133,-35,-132,-125
-182,96,279,45,-227,188,172,162,175,-5,-114,-125
-182,108,291,39,-233,200,202,210,223,24,-108,-131
-176,120,297,27,-233,206,238,264,271,59,-96,-125
-176,126,303,21,-239,212,286,336,343,107,-84,-113
-176,132,309,21,-239,218,346,414,415,155,-78,-107
-182,138,321,21,-251,230,418,504,487,197,-66,-107
-188,156,345,15,-263,248,490,600,565,251,-54,-107
-194,186,381,3,-287,284,574,696,661,311,-36,-95
-194,222,417,-13,-305,320,676,810,769,383,-12,-95
-194,246,441,-25,-317,344,790,936,889,461,6,-89
-200,270,471,-37,-335,368,928,1074,1027,551,28,-77
-206,294,501,-43,-353,398,1072,1230,1177,665,82,-53
-212,342,555,-67,-383,446,1228,1398,1345,809,154,-17
-218,420,639,-97,-425,530,1396,1560,1525,977,232,41
-224,522,747,-151,-485,632,1504,1686,1687,1151,334,119
-218,678,897,-229,-557,788,1540,1764,1819,1337,448,209
-212,852,1065,-319,-635,956,1522,1794,1939,1523,574,317
-206,1014,1221,-403,-713,1118,1444,1758,1999,1685,700,425
-206,1170,1377,-481,-791,1274,1318,1632,1981,1799,802,509
-194,1320,1515,-559,-851,1418,1108,1410,1891,1883,886,581
-194,1470,1665,-637,-929,1568,832,1116,1753,1943,970,653
-200,1620,1821,-709,-1007,1718,520,756,1555,1979,1048,719
-212,1722,1935,-757,-1073,1826,214,420,1363,2009,1114,767
-212,1746,1959,-769,-1085,1850,-36,144,1165,1991,1132,779
-200,1692,1893,-745,-1043,1790,-270,-88,961,1919,1114,779
-188,1572,1761,-691,-971,1664,-462,-268,751,1787,1054,749
-176,1416,1593,-619,-881,1502,-612,-418,505,1535,928,683
-170,1230,1401,-529,-785,1316,-732,-556,217,1187,748,563
-176,1002,1179,-415,-677,1088,-822,-682,-81,779,526,419
-176,750,927,-289,-551,836,-882,-790,-369,335,280,239
-176,498,675,-163,-425,584,-906,-850,-585,-47,34,47
-164,300,465,-67,-311,380,-900,-850,-687,-299,-132,-89
-134,168,303,-13,-215,236,-876,-820,-717,-443,-228,-179
-110,84,195,15,-149,140,-828,-766,-705,-509,-276,-227
-92,36,129,27,-107,80,-756,-694,-663,-527,-294,-239
-74,6,81,33,-77,44,-660,-610,-609,-509,-294,-227
-56,-22,33,33,-47,2,-558,-520,-549,-479,-282,-215
-32,-52,-19,39,-5,-38,-462,-424,-489,-443,-264,-197
-20,-70,-49,39,12,-62,-372,-346,-417,-401,-246,-179
-8,-88,-79,45,35,-86,-306,-286,-357,-365,-228,-161
4,-100,-103,45,53,-104,-258,-244,-309,-341,-210,-149
9,-106,-115,45,59,-110,-228,-220,-273,-323,-198,-143
9,-124,-133,57,71,-128,-210,-220,-255,-323,-192,-143
9,-136,-145,63,77,-140,-210,-220,-249,-323,-192,-143
9,-142,-151,63,77,-146,-198,-214,-249,-323,-186,-143
-2,-142,-139,69,65,-140,-180,-202,-249,-317,-180,-131
4,-148,-151,69,77,-152,-162,-202,-249,-311,-180,-131
4,-142,-145,63,71,-146,-150,-196,-243,-305,-174,-125
4,-142,-145,63,71,-146,-126,-190,-231,-299,-168,-119
-2,-148,-145,75,71,-146,-120,-190,-219,-293,-168,-113
4,-148,-151,69,77,-152,-120,-178,-207,-293,-162,-113
9,-148,-157,69,83,-152,-120,-172,-207,-293,-162,-113
9,-154,-163,69,83,-158,-126,-172,-207,-293,-168,-119
14,-160,-175,75,95,-164,-132,-178,-213,-287,-156,-119
14,-160,-175,75,95,-164,-126,-172,-219,-287,-156,-113
20,-166,-187,69,101,-176,-126,-172,-213,-275,-150,-113
20,-160,-181,69,101,-170,-120,-178,-207,-269,-150,-101
20,-154,-175,63,95,-164,-114,-172,-207,-269,-144,-101
26,-148,-175,63,101,-158,-114,-166,-207,-263,-150,-107
38,-142,-181,51,107,-158,-108,-160,-207,-257,-144,-101
32,-142,-175,51,101,-158,-108,-160,-195,-251,-144,-101
26,-148,-175,63,101,-158,-114,-160,-195,-251,-144,-95
26,-136,-163,57,95,-146,-114,-154,-195,-245,-138,-95
32,-130,-163,45,95,-146,-114,-148,-189,-245,-132,-89
38,-130,-169,45,101,-146,-108,-142,-183,-233,-126,-89
44,-124,-169,39,107,-146,-102,-136,-177,-227,-120,-83
44,-124,-169,39,107,-146,-96,-130,-165,-227,-120,-83
38,-118,-157,39,95,-134,-90,-130,-165,-221,-120,-83
32,-118,-151,39,89,-134,-96,-130,-171,-221,-120,-83
32,-118,-151,39,89,-134,-96,-130,-171,-221,-120,-83
32,-112,-145,39,89,-128,-102,-130,-171,-209,-120,-83
38,-106,-145,33,89,-122,-102,-124,-159,-209,-114,-77
44,-100,-145,27,95,-122,-102,-118,-159,-197,-108,-71
50,-94,-145,21,95,-116,-102,-112,-159,-191,-102,-65
62,-88,-151,15,107,-116,-96,-106,-153,-185,-84,-53
62,-88,-151,15,107,-116,-90,-106,-153,-185,-84,-53
62,-94,-157,15,107,-122,-90,-106,-153,-185,-78,-53
62,-94,-157,15,107,-122,-96,-106,-141,-179,-72,-53
68,-88,-157,9,113,-122,-90,-100,-135,-173,-66,-47
74,-82,-157,3,113,-116,-90,-94,-135,-167,-60,-41
74,-76,-151,3,113,-110,-96,-94,-135,-161,-54,-35
68,-64,-133,-2,101,-98,-102,-82,-129,-149,-48,-29
68,-64,-133,-2,101,-98,-102,-76,-117,-137,-42,-17
68,-64,-133,-2,101,-98,-96,-70,-99,-125,-42,-11
74,-58,-133,-7,101,-92,-102,-70,-105,-125,-42,-11
80,-52,-133,-13,107,-92,-102,-70,-99,-113,-36,-5
86,-40,-127,-19,107,-80,-102,-64,-99,-107,-24,-5
92,-28,-121,-31,107,-74,-96,-58,-93,-101,-24,1
98,-28,-127,-31,113,-74,-96,-58,-87,-95,-18,1
104,-28,-133,-37,119,-80,-96,-52,-81,-95,-12,1
110,-16,-127,-43,119,-68,-90,-34,-69,-89,-6,7
116,-10,-127,-55,119,-68,-90,-28,-57,-83,0,13
116,-5,-121,-55,119,-62,-84,-16,-45,-71,6,18
122,6,-115,-61,119,-50,-84,-4,-39,-53,11,23
128,12,-115,-67,125,-50,-84,2,-21,-41,16,29
134,18,-115,-73,125,-44,-90,13,-9,-29,22,35
134,24,-109,-73,125,-38,-78,13,-3,-11,40,41
134,36,-97,-79,119,-26,-78,18,3,7,46,53
134,48,-85,-85,113,-14,-78,24,8,19,58,65
140,60,-79,-97,113,-9,-72,42,19,29,64,71
152,72,-79,-109,119,-4,-60,54,37,41,76,83
152,78,-73,-115,113,2,-54,72,55,59,88,95
158,90,-67,-121,113,14,-54,84,73,71,100,101
170,102,-67,-133,119,20,-54,96,91,89,112,107
176,114,-61,-145,119,26,-54,108,109,101,124,113
176,126,-49,-151,113,38,-48,120,127,119,130,125
170,144,-25,-151,101,62,-42,138,151,137,142,143
170,156,-14,-157,95,74,-36,150,169,161,166,161
170,168,-3,-163,89,86,-30,168,187,179,178,173
176,186,9,-181,83,98,-24,186,211,197,190,179
188,198,9,-193,89,104,-18,198,223,215,196,185
188,204,15,-193,89,110,-12,216,241,239,208,191
188,216,27,-199,83,122,-12,222,247,251,214,191
194,228,33,-205,83,134,-6,234,253,263,214,191
200,246,45,-223,77,146,6,240,265,275,220,191
200,264,63,-229,71,164,17,252,277,287,226,203
200,276,75,-235,65,176,22,258,289,293,232,209
200,282,81,-241,59,182,22,270,295,299,244,215
188,294,105,-241,41,200,28,276,301,305,250,215
188,306,117,-247,35,212,34,276,301,311,244,209
182,318,135,-247,23,230,34,276,295,305,232,197
176,324,147,-247,17,236,40,282,295,305,220,197
170,330,159,-247,7,248,46,282,295,299,214,191
158,330,171,-241,-5,254,52,282,289,299,208,185
152,330,177,-241,-11,254,52,276,289,293,208,185
152,330,177,-241,-11,254,52,276,277,293,202,179
140,324,183,-229,-17,254,58,276,271,287,196,173
140,318,177,-229,-17,248,64,270,265,275,190,167
140,318,177,-229,-17,248,70,264,253,269,178,155
134,324,189,-223,-23,260,70,264,241,263,172,149
128,324,195,-223,-29,260,82,264,235,257,166,137
122,318,195,-217,-35,260,88,258,223,251,154,125
116,312,195,-211,-35,254,88,252,211,239,142,113
104,300,195,-199,-41,248,88,240,199,227,136,101
92,282,189,-187,-47,236,94,228,181,215,124,95
86,270,183,-175,-47,230,94,222,163,203,124,89
80,264,183,-169,-47,224,94,210,145,185,112,77
74,252,177,-157,-47,218,94,204,139,173,100,71
68,240,171,-151,-47,206,94,192,121,161,94,65
62,228,165,-139,-47,200,94,186,103,149,82,53
56,222,165,-139,-53,194,94,174,85,131,64,41
56,204,147,-127,-41,176,88,162,67,113,52,29
62,192,129,-121,-29,164,76,144,49,101,34,18
56,180,123,-115,-29,152,64,138,37,89,22,13
50,156,105,-97,-23,134,52,120,13,71,16,1
38,132,93,-79,-23,116,52,108,3,53,11,-5
20,120,99,-67,-35,110,52,96,-15,47,0,-11
20,108,87,-61,-29,98,46,84,-33,29,-12,-23
14,102,87,-55,-35,98,40,66,-45,19,-24,-41
9,90,81,-49,-35,86,40,60,-57,7,-36,-53
9,84,75,-43,-29,80,34,48,-75,-5,-48,-65
9,72,63,-37,-23,68,28,36,-87,-17,-54,-71
4,54,51,-31,-23,50,22,30,-105,-35,-66,-83
-2,42,45,-19,-23,44,22,18,-117,-47,-78,-83
-2,24,27,-7,-11,26,17,13,-129,-53,-84,-89
-2,12,15,-2,-5,14,12,8,-141,-59,-84,-95
4,0,-3,-2,7,-4,6,2,-153,-71,-96,-95
-2,-5,-3,3,1,-4,0,-4,-165,-71,-102,-101
4,-10,-14,-2,7,-14,-6,-10,-171,-83,-102,-107
4,-22,-25,3,12,-26,-6,-16,-177,-89,-102,-107
-2,-28,-25,15,12,-26,-12,-22,-183,-101,-114,-107
-2,-28,-25,15,12,-26,-18,-22,-189,-107,-120,-113
-2,-22,-19,9,7,-20,-18,-28,-195,-113,-126,-119
-8,-22,-14,9,1,-20,-18,-34,-201,-113,-126,-125
-8,-28,-19,15,7,-26,-24,-46,-207,-113,-132,-131
-8,-28,-19,15,7,-26,-18,-52,-213,-119,-132,-137
-8,-28,-19,15,7,-26,-18,-58,-219,-125,-132,-143
-14,-34,-19,21,1,-26,-18,-58,-225,-125,-132,-143
-20,-34,-14,21,-5,-26,-24,-58,-231,-125,-126,-143
-8,-34,-25,15,7,-32,-24,-58,-231,-131,-126,-143
-8,-34,-25,15,7,-32,-30,-58,-231,-131,-132,-137
-8,-46,-37,21,12,-44,-24,-58,-231,-131,-132,-137
-8,-46,-37,21,12,-44,-30,-58,-231,-125,-138,-137
-8,-52,-43,27,17,-50,-30,-58,-231,-125,-138,-137
-8,-52,-43,27,17,-50,-24,-64,-231,-119,-138,-137
-8,-58,-49,27,17,-56,-24,-64,-225,-119,-132,-137
-14,-46,-31,27,7,-38,-24,-58,-225,-119,-132,-137
-14,-40,-25,27,7,-32,-24,-58,-231,-119,-126,-137
-14,-40,-25,27,7,-32,-30,-58,-237,-125,-132,-137
-14,-40,-25,27,7,-32,-30,-64,-237,-125,-126,-131
-8,-34,-25,15,7,-32,-30,-64,-237,-125,-126,-137
-8,-34,-25,15,7,-32,-36,-64,-231,-125,-132,-131
-2,-34,-31,15,12,-32,-36,-64,-231,-125,-138,-125
-2,-34,-31,15,12,-32,-36,-64,-225,-119,-132,-125
4,-28,-31,9,17,-32,-36,-64,-219,-113,-126,-119
4,-28,-31,9,17,-32,-36,-64,-225,-107,-120,-119
-2,-28,-25,15,12,-26,-36,-64,-225,-101,-114,-113
-8,-28,-19,15,7,-26,-24,-64,-219,-95,-108,-107
-20,-22,-3,15,-11,-14,-24,-64,-219,-95,-108,-107
-14,-16,-3,15,-5,-9,-30,-64,-219,-101,-114,-107
-8,-22,-14,9,1,-20,-30,-58,-225,-101,-114,-107
-8,-22,-14,9,1,-20,-36,-58,-225,-107,-114,-107
-14,-16,-3,15,-5,-9,-36,-58,-219,-101,-114,-113
-14,-22,-9,15,-5,-14,-36,-58,-207,-95,-114,-113
-20,-22,-3,15,-11,-14,-36,-58,-213,-95,-114,-113
-14,-22,-9,15,-5,-14,-36,-64,-219,-89,-108,-119
-8,-10,-3,3,-5,-9,-36,-64,-219,-89,-108,-125
4,-10,-14,-2,7,-14,-36,-70,-219,-89,-108,-119
4,-5,-9,-2,7,-9,-36,-70,-219,-89,-108,-119
-2,0,3,3,1,2,-42,-70,-219,-95,-114,-125
-8,0,9,3,-5,2,-42,-64,-213,-95,-114,-119
-8,0,9,3,-5,2,-42,-52,-219,-95,-114,-113
-2,0,3,3,1,2,-42,-52,-219,-95,-114,-107
-2,0,3,3,1,2,-48,-58,-219,-95,-108,-107
-2,0,3,3,1,2,-48,-58,-219,-89,-108,-107
-2,-5,-3,3,1,-4,-48,-64,-219,-89,-102,-107
-2,0,3,3,1,2,-48,-64,-219,-89,-108,-107
4,0,-3,-2,7,-4,-48,-70,-213,-89,-102,-107
9,0,-9,-2,12,-4,-54,-70,-219,-89,-102,-107
9,0,-9,-2,12,-4,-48,-76,-213,-89,-102,-107
4,0,-3,-2,7,-4,-54,-76,-213,-89,-102,-107
-2,0,3,3,1,2,-54,-76,-219,-89,-108,-107
-2,-5,-3,3,1,-4,-60,-82,-219,-89,-108,-107
4,-5,-9,-2,7,-9,-54,-82,-213,-89,-108,-107
4,0,-3,-2,7,-4,-54,-70,-213,-89,-108,-101
9,-5,-14,-2,12,-9,-54,-70,-213,-89,-102,-95
9,-5,-14,-2,12,-9,-54,-76,-219,-95,-102,-95
14,-5,-19,-2,17,-9,-54,-76,-225,-95,-108,-101
9,-5,-14,-2,12,-9,-60,-82,-225,-101,-108,-101
9,-5,-14,-2,12,-9,-66,-88,-231,-101,-114,-107
9,-10,-19,-2,12,-14,-66,-94,-225,-101,-114,-107
4,-10,-14,-2,7,-14,-72,-94,-225,-101,-114,-107
4,-10,-14,-2,7,-14,-72,-94,-231,-101,-114,-107
9,-10,-19,-2,12,-14,-72,-94,-231,-107,-114,-101
9,-16,-25,3,17,-20,-66,-100,-237,-107,-108,-101
14,-22,-37,3,23,-26,-66,-100,-237,-107,-108,-101
9,-22,-31,3,17,-26,-66,-106,-243,-107,-114,-107
9,-22,-31,3,17,-26,-60,-100,-243,-113,-114,-113
9,-22,-31,3,17,-26,-66,-100,-237,-113,-108,-113
9,-28,-37,9,23,-32,-66,-100,-243,-119,-108,-113
9,-28,-37,9,23,-32,-78,-106,-249,-125,-114,-113
14,-34,-49,9,29,-38,-78,-112,-249,-137,-114,-113
9,-34,-43,9,23,-38,-78,-118,-255,-143,-114,-119
9,-34,-43,9,23,-38,-78,-124,-261,-149,-114,-125
9,-34,-43,9,23,-38,-72,-130,-267,-149,-120,-125
14,-40,-55,15,35,-44,-66,-130,-267,-155,-120,-125
14,-40,-55,15,35,-44,-66,-136,-267,-155,-126,-125
14,-46,-61,15,35,-50,-66,-136,-267,-155,-126,-119
9,-46,-55,15,29,-50,-72,-142,-267,-155,-126,-119
14,-52,-67,21,41,-56,-72,-148,-273,-155,-132,-119
9,-52,-61,21,35,-56,-72,-148,-273,-155,-132,-125
9,-52,-61,21,35,-56,-72,-136,-273,-155,-132,-119
9,-52,-61,21,35,-56,-72,-136,-273,-155,-132,-119
9,-58,-67,21,35,-62,-72,-136,-273,-155,-138,-119
9,-64,-73,27,41,-68,-72,-142,-273,-155,-138,-125
9,-64,-73,27,41,-68,-72,-148,-279,-161,-144,-125
9,-64,-73,27,41,-68,-72,-154,-279,-161,-138,-125
14,-64,-79,27,47,-68,-66,-154,-279,-161,-138,-119
9,-64,-73,27,41,-68,-66,-154,-279,-161,-132,-119
9,-58,-67,21,35,-62,-60,-154,-279,-167,-126,-119
9,-52,-61,21,35,-56,-54,-160,-273,-161,-126,-119
9,-52,-61,21,35,-56,-54,-160,-273,-161,-126,-113
9,-46,-55,15,29,-50,-48,-160,-273,-155,-126,-119
9,-40,-49,15,29,-44,-42,-160,-267,-149,-120,-113
9,-34,-43,9,23,-38,-36,-160,-267,-143,-120,-107
14,-34,-49,9,29,-38,-36,-160,-273,-143,-120,-107
14,-28,-43,9,29,-32,-36,-154,-267,-137,-114,-107
14,-16,-31,3,23,-20,-36,-154,-267,-137,-114,-101
14,-5,-19,-2,17,-9,-36,-154,-261,-137,-114,-101
14,0,-14,-2,17,-4,-42,-154,-255,-137,-114,-101
20,12,-9,-13,17,2,-36,-154,-249,-137,-114,-101
20,24,3,-19,12,14,-30,-154,-249,-137,-108,-101
20,30,9,-25,7,20,-30,-160,-249,-137,-108,-101
20,36,15,-25,7,26,-30,-166,-249,-131,-102,-95
20,42,21,-31,1,32,-24,-160,-249,-125,-102,-89
20,42,21,-31,1,32,-24,-160,-249,-119,-96,-89
20,48,27,-31,1,38,-24,-160,-249,-113,-90,-83
32,66,33,-49,1,50,-24,-160,-243,-113,-84,-77
38,78,39,-55,1,62,-24,-160,-243,-107,-78,-77
44,90,45,-67,1,68,-30,-166,-243,-107,-72,-71
44,102,57,-73,-5,80,-48,-172,-243,-107,-72,-71
44,102,57,-73,-5,80,-60,-178,-243,-101,-66,-71
50,108,57,-73,1,86,-66,-178,-243,-101,-66,-65
56,108,51,-79,7,80,-78,-178,-243,-95,-66,-59
56,114,57,-85,1,86,-84,-178,-243,-95,-72,-59
56,102,45,-79,7,74,-84,-184,-243,-95,-66,-59
56,90,33,-73,12,62,-78,-184,-243,-95,-66,-65
56,90,33,-73,12,62,-78,-184,-237,-89,-66,-59
62,90,27,-73,17,62,-78,-178,-237,-89,-66,-59
68,90,21,-79,23,56,-84,-184,-243,-95,-72,-59
62,84,21,-67,23,56,-84,-190,-243,-95,-72,-65
56,84,27,-67,17,56,-90,-190,-249,-101,-78,-65
44,84,39,-61,7,62,-90,-190,-243,-101,-72,-65
44,78,33,-61,7,56,-90,-196,-243,-101,-66,-65
44,72,27,-55,12,50,-96,-196,-249,-107,-66,-59
50,66,15,-55,17,44,-108,-196,-243,-107,-66,-59
56,54,-3,-55,29,26,-114,-202,-243,-107,-66,-59
50,48,-3,-43,29,26,-114,-202,-249,-107,-66,-53
44,36,-9,-37,29,14,-108,-214,-255,-119,-72,-59
38,12,-25,-19,35,-4,-108,-220,-267,-131,-84,-71
32,-5,-37,-13,35,-20,-102,-232,-279,-143,-96,-77
20,-10,-31,-7,23,-20,-96,-238,-285,-149,-102,-89
9,-22,-31,3,17,-26,-96,-238,-291,-161,-114,-101
9,-40,-49,15,29,-44,-102,-238,-303,-173,-120,-113
4,-64,-67,27,35,-68,-102,-244,-309,-179,-132,-119
4,-76,-79,33,41,-80,-102,-250,-321,-191,-138,-125
-2,-88,-85,45,41,-86,-102,-256,-321,-203,-144,-137
-8,-94,-85,45,35,-92,-102,-262,-333,-215,-156,-143
-14,-106,-91,57,35,-98,-102,-268,-339,-215,-162,-149
-20,-106,-85,57,29,-98,-102,-274,-339,-221,-168,-155
-32,-112,-79,69,23,-98,-108,-274,-339,-221,-168,-155
-26,-106,-79,63,23,-92,-108,-274,-345,-233,-174,-161
-26,-106,-79,63,23,-92,-114,-280,-351,-227,-174,-167
-20,-106,-85,57,29,-98,-114,-280,-351,-227,-174,-161
-20,-112,-91,63,35,-104,-120,-280,-351,-227,-174,-161
-20,-112,-91,63,35,-104,-120,-280,-357,-227,-168,-161
-20,-112,-91,63,35,-104,-120,-280,-357,-227,-168,-161
-20,-106,-85,57,29,-98,-126,-280,-345,-221,-168,-161
-14,-100,-85,57,35,-92,-120,-274,-339,-209,-168,-161
-20,-94,-73,51,23,-86,-114,-274,-333,-203,-162,-161
-26,-82,-55,51,12,-68,-108,-268,-327,-197,-156,-161
-26,-82,-55,51,12,-68,-96,-262,-321,-191,-156,-161
-38,-70,-31,51,-5,-50,-84,-250,-315,-185,-156,-161
-44,-58,-14,45,-17,-38,-72,-244,-303,-173,-156,-161
-56,-40,15,45,-35,-14,-66,-232,-291,-167,-156,-161
-62,-16,45,39,-53,14,-60,-214,-279,-155,-162,-167
-74,0,75,39,-71,38,-48,-202,-261,-149,-162,-173
-98,18,117,39,-107,68,-30,-184,-243,-137,-162,-179
-110,36,147,39,-125,92,-12,-160,-219,-125,-162,-179
-122,60,183,33,-149,122,6,-130,-195,-107,-162,-179
-140,72,213,33,-173,140,28,-94,-159,-83,-156,-179
-152,84,237,33,-191,158,58,-58,-117,-53,-150,-179
-164,96,261,33,-209,176,94,-22,-81,-23,-144,-179
-170,102,273,33,-221,188,124,13,-45,7,-144,-185
-176,114,291,27,-233,200,160,42,-9,29,-138,-179
-182,114,297,33,-239,206,190,84,25,53,-126,-179
-182,120,303,33,-239,212,220,132,73,83,-120,-173
-176,132,309,21,-239,218,262,198,127,119,-108,-173
-176,138,315,15,-245,224,310,270,193,161,-90,-167
-182,138,321,21,-251,230,370,360,265,203,-78,-167
-188,144,333,21,-257,236,442,456,343,245,-72,-167
-194,168,363,15,-275,266,514,552,415,293,-72,-173
-194,192,387,3,-287,290,604,642,505,347,-60,-167
-194,222,417,-13,-305,320,712,756,613,419,-48,-155
-200,246,447,-25,-323,344,844,894,739,509,-18,-143
-218,276,495,-25,-353,386,994,1044,883,611,16,-119
-230,312,543,-37,-383,428,1138,1200,1045,731,70,-83
-230,366,597,-67,-413,482,1312,1368,1225,887,142,-47
-236,444,681,-103,-455,560,1474,1542,1417,1055,232,13
-236,546,783,-157,-509,662,1576,1668,1585,1229,334,89
-236,702,939,-235,-587,818,1594,1740,1729,1409,454,185
-236,876,1113,-319,-671,992,1552,1764,1837,1595,580,293
-230,1044,1275,-403,-749,1160,1456,1716,1897,1757,706,401
-230,1194,1425,-481,-827,1310,1312,1584,1879,1871,802,491
-224,1338,1563,-559,-893,1448,1090,1356,1789,1961,892,563
-224,1482,1707,-631,-965,1592,814,1056,1663,2039,976,641
-230,1638,1869,-703,-1049,1754,496,690,1483,2099,1060,707
-242,1746,1989,-751,-1115,1868,184,348,1297,2135,1114,755
-248,1782,2031,-769,-1139,1904,-78,60,1111,2135,1144,773
-230,1734,1965,-751,-1097,1850,-318,-172,925,2087,1144,785
-212,1626,1839,-709,-1025,1730,-510,-352,739,1979,1102,767
-194,1470,1665,-637,-929,1568,-672,-502,493,1739,1000,701
-182,1278,1461,-547,-821,1370,-798,-652,193,1385,826,587
-182,1038,1221,-427,-701,1130,-888,-784,-129,965,604,443
-182,786,969,-301,-575,878,-936,-886,-435,521,358,269
-170,528,699,-175,-431,614,-948,-946,-669,113,106,83
-152,330,483,-91,-317,404,-930,-946,-789,-155,-84,-65
-122,198,321,-37,-221,260,-894,-910,-825,-317,-198,-161
-98,114,213,-7,-155,164,-846,-856,-813,-389,-252,-203
-74,66,141,3,-107,104,-768,-790,-771,-413,-264,-221
-56,24,81,15,-65,50,-672,-706,-729,-425,-264,-227
-44,-10,33,21,-41,8,-576,-622,-681,-419,-252,-215
-32,-40,-9,33,-11,-26,-474,-538,-627,-395,-234,-197
-14,-58,-43,33,12,-50,-384,-466,-567,-365,-210,-173
-8,-76,-67,39,29,-74,-312,-400,-501,-335,-192,-155
-2,-94,-91,45,41,-92,-270,-358,-453,-305,-186,-143
4,-106,-109,45,53,-110,-246,-328,-411,-281,-180,-137
9,-124,-133,57,71,-128,-234,-316,-393,-275,-174,-131
14,-130,-145,57,77,-134,-222,-316,-387,-275,-174,-137
9,-142,-151,63,77,-146,-216,-310,-387,-275,-174,-137
4,-148,-151,69,77,-152,-204,-310,-399,-281,-168,-137
4,-154,-157,69,77,-158,-186,-310,-405,-287,-174,-137
4,-148,-151,69,77,-152,-174,-298,-399,-293,-168,-131
9,-148,-157,69,83,-152,-156,-292,-387,-293,-174,-125
9,-154,-163,69,83,-158,-138,-286,-381,-287,-168,-125
14,-160,-175,75,95,-164,-132,-286,-369,-287,-168,-125
14,-166,-181,75,95,-170,-138,-286,-363,-287,-174,-125
14,-166,-181,75,95,-170,-144,-286,-357,-281,-168,-119
14,-166,-181,75,95,-170,-150,-286,-351,-275,-168,-119
14,-166,-181,75,95,-170,-150,-286,-357,-269,-168,-119
14,-166,-181,75,95,-170,-150,-292,-357,-281,-168,-119
14,-160,-175,75,95,-164,-144,-286,-345,-275,-162,-113
14,-160,-175,75,95,-164,-132,-274,-339,-269,-156,-107
20,-160,-181,69,101,-170,-126,-268,-333,-257,-150,-107
20,-160,-181,69,101,-170,-126,-268,-327,-257,-156,-107
26,-154,-181,63,101,-164,-126,-268,-321,-251,-150,-101
20,-160,-181,69,101,-170,-126,-268,-309,-245,-150,-95
20,-160,-181,69,101,-170,-126,-268,-309,-239,-150,-95
20,-160,-181,69,101,-170,-126,-262,-309,-233,-144,-89
20,-154,-175,63,95,-164,-132,-256,-303,-227,-138,-89
26,-148,-175,63,101,-158,-126,-256,-297,-227,-138,-83
32,-142,-175,51,101,-158,-126,-256,-291,-227,-138,-83
32,-142,-175,51,101,-158,-120,-256,-285,-215,-132,-83
38,-148,-187,57,113,-164,-114,-256,-285,-215,-126,-83
44,-148,-193,51,119,-170,-114,-256,-279,-203,-120,-77
50,-142,-193,45,119,-164,-114,-256,-273,-197,-114,-71
56,-136,-193,39,125,-164,-114,-256,-273,-191,-108,-65
56,-130,-187,33,119,-158,-120,-250,-267,-191,-108,-65
56,-130,-187,33,119,-158,-114,-244,-267,-191,-108,-59
62,-124,-187,33,125,-152,-120,-244,-261,-191,-102,-53
68,-124,-193,27,131,-158,-120,-238,-249,-191,-102,-53
74,-112,-187,21,131,-146,-120,-232,-249,-191,-102,-47
74,-112,-187,21,131,-146,-120,-226,-237,-185,-90,-47
68,-106,-175,15,119,-140,-114,-226,-231,-185,-90,-41
62,-100,-163,21,113,-128,-114,-220,-237,-179,-90,-35
62,-94,-157,15,107,-122,-108,-220,-231,-173,-84,-29
62,-100,-163,21,113,-128,-108,-220,-225,-167,-84,-29
68,-88,-157,9,113,-122,-108,-220,-219,-161,-78,-23
68,-82,-151,3,107,-116,-114,-220,-213,-161,-78,-23
74,-76,-151,3,113,-110,-108,-214,-201,-155,-72,-17
80,-70,-151,-7,113,-110,-108,-208,-195,-149,-60,-5
86,-64,-151,-7,119,-104,-108,-202,-189,-137,-54,1
92,-58,-151,-19,119,-104,-102,-196,-183,-131,-48,7
92,-64,-157,-13,125,-110,-102,-190,-171,-125,-36,13
104,-52,-157,-25,131,-104,-96,-184,-165,-119,-36,18
110,-46,-157,-31,131,-98,-96,-178,-159,-113,-24,23
116,-34,-151,-43,131,-92,-96,-172,-147,-101,-24,29
122,-28,-151,-43,137,-86,-90,-166,-135,-89,-18,41
122,-22,-145,-49,131,-80,-90,-160,-123,-83,-12,47
128,-10,-139,-61,131,-74,-84,-154,-111,-71,-6,53
128,-10,-139,-61,131,-74,-84,-142,-99,-65,0,59
128,-5,-133,-61,131,-68,-78,-136,-87,-53,6,65
134,0,-133,-61,137,-62,-78,-130,-69,-35,11,77
146,12,-133,-73,143,-56,-78,-118,-51,-29,22,83
152,18,-133,-85,143,-56,-72,-106,-39,-17,28,83
164,30,-133,-97,149,-50,-72,-94,-21,-5,34,95
170,42,-127,-103,149,-38,-66,-82,-3,7,46,107
176,54,-121,-115,149,-32,-60,-70,8,24,58,119
176,66,-109,-121,143,-20,-60,-58,19,35,70,137
182,72,-109,-121,149,-14,-54,-40,43,47,82,149
182,90,-91,-133,137,2,-48,-28,61,65,94,161
188,108,-79,-145,137,14,-42,-10,85,83,106,167
200,126,-73,-163,137,26,-36,8,103,95,118,179
200,144,-55,-169,131,44,-24,18,127,113,130,179
206,156,-49,-175,131,56,-18,30,145,131,148,191
212,168,-43,-187,131,62,-12,48,169,155,166,203
212,180,-31,-193,125,74,-6,60,193,179,178,215
212,192,-19,-199,119,86,0,72,211,197,184,233
206,210,3,-205,101,110,6,84,223,215,190,239
206,222,15,-211,95,122,12,90,235,221,196,245
212,234,21,-223,95,128,17,96,241,227,202,245
206,240,33,-217,89,140,17,102,253,233,208,245
206,252,45,-223,83,152,22,108,259,233,208,245
200,258,57,-229,71,158,34,114,265,233,214,251
200,264,63,-229,71,164,34,114,271,233,208,245
200,276,75,-235,65,176,40,114,271,233,208,245
200,282,81,-241,59,182,46,120,277,239,208,239
200,288,87,-241,59,188,46,126,283,239,208,239
188,294,105,-241,41,200,52,132,283,245,202,233
176,294,117,-235,29,206,58,132,283,239,196,227
176,306,129,-241,23,218,64,126,277,233,190,221
176,312,135,-241,23,224,64,120,271,221,184,215
164,306,141,-235,12,224,58,114,265,203,172,197
158,300,141,-223,12,224,64,96,253,197,160,185
146,300,153,-217,1,230,64,90,241,191,154,179
140,306,165,-223,-11,236,70,90,241,191,154,179
134,294,159,-211,-11,230,82,90,235,191,148,173
128,282,153,-205,-11,218,82,84,223,179,136,167
116,276,159,-193,-17,218,88,78,217,167,124,155
104,264,159,-181,-23,212,100,72,205,161,118,149
92,258,165,-175,-35,212,100,60,193,143,106,137
86,240,153,-157,-29,200,106,54,181,131,94,131
80,228,147,-151,-29,188,106,42,169,113,82,113
74,210,135,-139,-29,176,106,24,157,95,70,101
68,192,123,-127,-23,158,106,13,139,77,58,83
68,174,105,-121,-17,140,100,8,121,65,46,71
62,168,105,-109,-17,140,94,-4,103,53,34,59
50,156,105,-97,-23,134,88,-22,85,41,16,47
50,144,93,-91,-17,122,82,-40,67,29,11,41
44,132,87,-85,-17,110,76,-46,49,24,0,35
38,126,87,-79,-23,110,70,-58,37,13,-12,23
32,102,69,-67,-17,86,64,-70,25,-5,-24,13
26,96,69,-55,-17,86,58,-82,13,-23,-30,1
20,78,57,-49,-17,68,52,-88,8,-35,-36,-11
20,60,39,-37,-5,50,46,-106,-9,-47,-42,-23
20,42,21,-31,1,32,40,-118,-27,-65,-54,-29
26,30,3,-25,12,20,34,-136,-45,-83,-60,-35
14,18,3,-13,7,14,28,-154,-57,-95,-72,-41
9,6,-3,-7,7,2,28,-160,-63,-101,-78,-47
4,0,-3,-2,7,-4,22,-166,-69,-113,-84,-47
-2,-5,-3,3,1,-4,22,-172,-75,-119,-84,-47
4,-10,-14,-2,7,-14,17,-178,-81,-125,-96,-53
4,-22,-25,3,12,-26,17,-184,-93,-131,-102,-65
-2,-28,-25,15,12,-26,17,-190,-99,-143,-108,-77
-2,-40,-37,21,17,-38,17,-196,-105,-149,-114,-83
-2,-46,-43,21,17,-44,17,-202,-111,-155,-114,-83
-2,-46,-43,21,17,-44,17,-208,-117,-161,-120,-89
-2,-46,-43,21,17,-44,12,-214,-123,-161,-126,-89
-8,-52,-43,27,17,-50,12,-220,-129,-161,-132,-89
-8,-52,-43,27,17,-50,6,-220,-129,-167,-138,-89
-8,-58,-49,27,17,-56,6,-226,-129,-173,-138,-83
-14,-58,-43,33,12,-50,6,-226,-129,-173,-138,-89
-20,-64,-43,39,12,-56,6,-226,-135,-179,-138,-89
-20,-70,-49,39,12,-62,6,-226,-129,-179,-132,-89
-14,-76,-61,45,23,-68,6,-220,-129,-179,-132,-89
-14,-82,-67,45,23,-74,6,-226,-129,-179,-132,-89
-14,-88,-73,51,29,-80,6,-226,-135,-185,-132,-89
-14,-88,-73,51,29,-80,0,-226,-135,-179,-132,-89
-14,-88,-73,51,29,-80,0,-226,-135,-185,-132,-89
-8,-82,-73,39,29,-80,0,-226,-135,-179,-138,-95
-2,-76,-73,39,35,-74,0,-220,-135,-179,-132,-89
-2,-76,-73,39,35,-74,6,-226,-135,-173,-132,-89
-8,-76,-67,39,29,-74,6,-226,-135,-173,-132,-89
-14,-76,-61,45,23,-68,6,-226,-135,-173,-132,-89
-14,-82,-67,45,23,-74,6,-232,-135,-173,-132,-83
-8,-82,-73,39,29,-80,6,-232,-135,-167,-132,-83
-8,-76,-67,39,29,-74,0,-232,-129,-167,-132,-83
-14,-76,-61,45,23,-68,6,-232,-123,-161,-126,-83
-14,-70,-55,39,17,-62,6,-232,-117,-161,-126,-77
-14,-70,-55,39,17,-62,6,-238,-117,-161,-126,-77
-14,-70,-55,39,17,-62,0,-238,-117,-161,-126,-83
-14,-64,-49,39,17,-56,-6,-238,-117,-155,-126,-89
-20,-58,-37,33,7,-50,-6,-232,-117,-155,-126,-89
-14,-52,-37,33,12,-44,-6,-226,-111,-149,-120,-83
-14,-46,-31,27,7,-38,0,-226,-111,-143,-120,-77
-8,-46,-37,21,12,-44,0,-226,-105,-143,-120,-71
-2,-46,-43,21,17,-44,-6,-226,-105,-143,-114,-71
-2,-58,-55,27,23,-56,-6,-226,-105,-143,-120,-77
4,-52,-55,21,29,-56,-6,-226,-99,-137,-114,-71
-2,-52,-49,27,23,-50,-6,-226,-99,-137,-114,-71
-8,-52,-43,27,17,-50,-6,-226,-93,-143,-114,-77
-8,-46,-37,21,12,-44,0,-226,-93,-143,-114,-77
-14,-52,-37,33,12,-44,0,-226,-93,-149,-120,-77
-8,-46,-37,21,12,-44,0,-226,-99,-149,-114,-71
-2,-46,-43,21,17,-44,0,-226,-99,-143,-108,-65
-2,-46,-43,21,17,-44,0,-226,-99,-131,-102,-53
4,-40,-43,15,23,-44,0,-226,-99,-125,-96,-53
-2,-40,-37,21,17,-38,0,-226,-99,-131,-102,-53
4,-40,-43,15,23,-44,6,-220,-93,-131,-108,-53
4,-40,-43,15,23,-44,0,-220,-93,-125,-108,-53
9,-34,-43,9,23,-38,0,-220,-99,-125,-114,-53
9,-28,-37,9,23,-32,0,-220,-99,-131,-114,-59
9,-28,-37,9,23,-32,-6,-220,-99,-137,-108,-53
9,-34,-43,9,23,-38,-6,-214,-99,-131,-108,-53
9,-34,-43,9,23,-38,-6,-220,-99,-131,-108,-59
9,-34,-43,9,23,-38,-6,-220,-99,-131,-108,-59
4,-40,-43,15,23,-44,-6,-220,-99,-131,-108,-53
4,-40,-43,15,23,-44,-6,-220,-99,-125,-108,-53
4,-46,-49,15,23,-50,-6,-226,-99,-125,-114,-53
9,-52,-61,21,35,-56,-6,-226,-105,-125,-114,-59
9,-46,-55,15,29,-50,-12,-232,-105,-125,-114,-65
14,-40,-55,15,35,-44,-12,-238,-111,-137,-114,-71
14,-34,-49,9,29,-38,-12,-232,-105,-137,-114,-65
20,-34,-55,3,35,-44,-6,-226,-99,-137,-114,-59
20,-34,-55,3,35,-44,-6,-232,-99,-137,-114,-59
20,-40,-61,9,41,-50,-6,-232,-99,-143,-108,-59
14,-40,-55,15,35,-44,-6,-226,-105,-149,-108,-53
14,-40,-55,15,35,-44,-6,-220,-111,-149,-108,-53
9,-40,-49,15,29,-44,-6,-220,-111,-155,-108,-53
4,-46,-49,15,23,-50,-12,-220,-117,-155,-114,-59
9,-46,-55,15,29,-50,-12,-220,-117,-155,-114,-59
9,-58,-67,21,35,-62,-12,-226,-123,-155,-114,-65
9,-52,-61,21,35,-56,-12,-226,-129,-155,-120,-71
14,-52,-67,21,41,-56,-12,-226,-135,-155,-126,-71
14,-52,-67,21,41,-56,-12,-226,-135,-161,-126,-65
14,-58,-73,21,41,-62,-12,-226,-141,-161,-126,-59
9,-64,-73,27,41,-68,-6,-232,-141,-167,-126,-59
9,-64,-73,27,41,-68,0,-232,-147,-167,-126,-59
9,-70,-79,27,41,-74,-6,-238,-159,-173,-126,-59
14,-70,-85,27,47,-74,-6,-244,-165,-179,-132,-59
20,-70,-91,21,53,-80,-6,-244,-165,-179,-132,-65
14,-70,-85,27,47,-74,-6,-244,-165,-173,-132,-65
14,-64,-79,27,47,-68,-6,-238,-165,-179,-132,-71
14,-58,-73,21,41,-62,-18,-238,-165,-173,-132,-71
14,-58,-73,21,41,-62,-24,-238,-165,-173,-132,-71
14,-64,-79,27,47,-68,-30,-232,-165,-179,-138,-77
9,-64,-73,27,41,-68,-36,-238,-165,-185,-138,-77
14,-70,-85,27,47,-74,-36,-238,-165,-185,-138,-77
14,-70,-85,27,47,-74,-42,-238,-171,-185,-138,-77
14,-76,-91,33,53,-80,-48,-238,-171,-185,-138,-83
14,-82,-97,33,53,-86,-54,-238,-177,-191,-138,-77
9,-88,-97,39,53,-92,-66,-238,-177,-191,-138,-77
4,-88,-91,39,47,-92,-72,-238,-183,-185,-138,-77
4,-94,-97,39,47,-98,-72,-238,-183,-185,-132,-71
9,-94,-103,39,53,-98,-78,-238,-189,-191,-138,-71
9,-94,-103,39,53,-98,-84,-232,-189,-191,-138,-71
14,-94,-109,39,59,-98,-84,-232,-189,-197,-144,-71
14,-94,-109,39,59,-98,-84,-226,-189,-203,-144,-83
14,-94,-109,39,59,-98,-90,-226,-195,-203,-144,-89
9,-94,-103,39,53,-98,-96,-220,-195,-209,-138,-89
9,-100,-109,45,59,-104,-96,-220,-201,-209,-138,-83
9,-106,-115,45,59,-110,-90,-226,-201,-203,-138,-77
9,-106,-115,45,59,-110,-90,-226,-207,-209,-138,-71
4,-112,-115,51,59,-116,-90,-226,-207,-209,-138,-71
4,-112,-115,51,59,-116,-90,-220,-213,-209,-138,-71
4,-112,-115,51,59,-116,-90,-220,-213,-209,-138,-71
4,-112,-115,51,59,-116,-90,-226,-219,-209,-138,-77
-2,-118,-115,57,53,-116,-96,-232,-219,-215,-138,-83
4,-112,-115,51,59,-116,-96,-232,-225,-215,-144,-89
4,-112,-115,51,59,-116,-96,-226,-225,-215,-144,-89
4,-106,-109,45,53,-110,-102,-226,-225,-215,-150,-83
9,-106,-115,45,59,-110,-102,-226,-225,-215,-150,-83
9,-106,-115,45,59,-110,-102,-220,-231,-215,-156,-77
4,-112,-115,51,59,-116,-96,-214,-231,-209,-156,-77
9,-100,-109,45,59,-104,-96,-214,-225,-203,-150,-77
9,-100,-109,45,59,-104,-84,-202,-219,-197,-144,-71
14,-88,-103,39,59,-92,-78,-196,-213,-185,-138,-71
14,-76,-91,33,53,-80,-72,-184,-201,-179,-132,-65
14,-64,-79,27,47,-68,-72,-172,-201,-173,-120,-59
20,-46,-67,9,41,-56,-66,-160,-189,-167,-114,-53
26,-28,-55,3,41,-38,-66,-160,-189,-161,-108,-47
32,-10,-43,-13,35,-26,-60,-154,-189,-161,-108,-53
38,6,-31,-19,35,-9,-60,-154,-183,-155,-108,-47
38,18,-19,-25,29,2,-60,-154,-189,-149,-108,-47
38,36,-3,-31,23,20,-60,-148,-189,-143,-102,-47
38,54,15,-43,12,38,-54,-136,-183,-137,-90,-35
44,66,21,-55,12,44,-48,-136,-177,-131,-84,-29
38,72,33,-49,7,56,-42,-130,-177,-125,-84,-29
38,78,39,-55,1,62,-42,-130,-171,-119,-78,-29
38,72,33,-49,7,56,-36,-124,-171,-113,-78,-23
38,78,39,-55,1,62,-36,-112,-159,-107,-72,-17
38,78,39,-55,1,62,-36,-100,-153,-95,-66,-11
38,84,45,-55,1,68,-30,-100,-153,-95,-66,-11
44,84,39,-61,7,62,-36,-100,-153,-95,-66,-11
50,84,33,-61,12,62,-42,-100,-153,-95,-54,-5
56,78,21,-67,17,50,-48,-100,-153,-95,-54,-5
62,78,15,-67,23,50,-66,-106,-153,-95,-60,-5
62,78,15,-67,23,50,-72,-106,-153,-95,-60,-5
68,72,3,-67,35,38,-84,-106,-153,-95,-60,-5
80,66,-14,-73,47,26,-96,-112,-159,-95,-60,-5
80,60,-19,-67,53,20,-102,-106,-159,-89,-60,1
80,54,-25,-67,53,14,-108,-106,-165,-95,-60,1
80,48,-31,-61,59,8,-114,-106,-171,-101,-60,1
74,30,-43,-49,59,-4,-120,-106,-177,-107,-60,7
68,18,-49,-43,59,-14,-114,-106,-183,-107,-60,1
62,12,-49,-31,59,-14,-114,-112,-189,-113,-66,1
56,-5,-61,-25,59,-32,-108,-112,-201,-125,-72,-5
44,-16,-61,-13,53,-38,-102,-118,-213,-131,-78,-11
26,-28,-55,3,41,-38,-102,-118,-219,-143,-90,-23
14,-40,-55,15,35,-44,-96,-130,-231,-155,-96,-35
9,-58,-67,21,35,-62,-96,-130,-243,-167,-108,-47
9,-70,-79,27,41,-74,-102,-142,-255,-173,-132,-59
4,-82,-85,33,41,-86,-102,-148,-261,-185,-138,-71
-8,-94,-85,45,35,-92,-108,-154,-273,-191,-144,-77
-14,-106,-91,57,35,-98,-108,-154,-279,-197,-156,-89
-14,-112,-97,63,41,-104,-114,-154,-291,-209,-162,-89
-14,-112,-97,63,41,-104,-114,-148,-291,-215,-168,-95
-20,-118,-97,63,35,-110,-120,-148,-297,-221,-168,-101
-14,-124,-109,69,47,-116,-120,-148,-297,-227,-168,-101
-2,-124,-121,63,59,-122,-120,-148,-297,-221,-168,-101
-2,-124,-121,63,59,-122,-120,-142,-303,-221,-168,-95
-8,-130,-121,63,53,-128,-120,-142,-309,-221,-174,-95
-8,-130,-121,63,53,-128,-126,-148,-315,-221,-174,-95
-8,-124,-115,63,53,-122,-126,-142,-315,-221,-168,-95
-8,-118,-109,57,47,-116,-120,-136,-309,-215,-162,-95
-14,-112,-97,63,41,-104,-120,-130,-303,-209,-156,-95
-20,-112,-91,63,35,-104,-120,-130,-297,-209,-150,-95
-26,-106,-79,63,23,-92,-114,-124,-291,-203,-150,-95
-32,-100,-67,63,17,-86,-108,-118,-285,-197,-144,-95
-32,-88,-55,57,12,-74,-102,-118,-273,-191,-144,-95
-50,-82,-31,63,-11,-56,-96,-106,-267,-185,-144,-95
-56,-70,-14,57,-23,-44,-84,-94,-261,-179,-150,-95
-68,-64,3,63,-35,-32,-72,-82,-249,-173,-150,-101
-80,-46,33,57,-59,-9,-66,-70,-249,-161,-156,-101
-92,-28,63,57,-77,14,-42,-46,-231,-143,-156,-101
-104,-10,93,51,-101,38,-18,-16,-201,-125,-150,-107
-104,12,117,45,-107,62,6,13,-165,-95,-144,-107
-110,36,147,39,-125,92,28,42,-129,-71,-144,-107
-128,54,183,33,-155,116,52,72,-93,-47,-144,-107
-140,72,213,33,-173,140,76,108,-57,-23,-138,-107
-146,90,237,27,-191,164,106,150,-21,1,-132,-107
-152,96,249,27,-197,170,136,186,8,24,-126,-113
-164,108,273,27,-215,188,166,234,43,47,-114,-107
-170,108,279,33,-221,194,202,282,85,83,-102,-101
-176,114,291,27,-233,200,250,360,145,125,-84,-95
-170,114,285,27,-227,200,298,438,211,167,-72,-95
-170,120,291,27,-227,206,370,528,283,209,-72,-95
-170,120,291,27,-227,206,442,624,361,251,-66,-95
-182,138,321,21,-251,230,520,720,445,293,-54,-89
-194,168,363,15,-275,266,616,834,547,365,-36,-83
-200,198,399,-2,-299,296,730,960,661,437,-12,-65
-212,222,435,-7,-323,326,856,1104,787,521,11,-53
-212,240,453,-13,-329,344,994,1248,925,617,46,-41
-212,282,495,-37,-353,386,1144,1410,1081,743,94,-5
-212,336,549,-61,-377,440,1324,1590,1267,893,166,47
-230,426,657,-97,-443,542,1486,1764,1465,1073,268,113
-230,552,783,-157,-503,668,1564,1890,1645,1259,376,191
-218,714,933,-247,-575,824,1570,1950,1783,1451,508,299
-200,900,1101,-349,-647,998,1516,1956,1891,1643,652,413
-188,1068,1257,-439,-719,1160,1390,1872,1921,1805,778,527
-194,1218,1413,-511,-803,1316,1198,1686,1885,1925,886,617
-206,1374,1581,-583,-893,1478,940,1428,1795,2021,976,695
-206,1518,1725,-655,-965,1622,628,1086,1663,2111,1072,779
-212,1662,1875,-727,-1043,1766,292,714,1495,2189,1156,863
-212,1740,1953,-763,-1079,1844,0,396,1339,2249,1228,917
-212,1746,1959,-769,-1085,1850,-240,138,1171,2255,1252,941
-194,1680,1875,-739,-1031,1778,-438,-64,1003,2207,1240,941
-176,1548,1725,-685,-947,1634,-606,-226,805,2069,1168,899
-164,1380,1545,-607,-851,1460,-738,-370,529,1781,1024,809
-164,1176,1341,-505,-749,1256,-852,-520,199,1391,832,677
-158,936,1095,-385,-623,1016,-930,-646,-129,953,598,521
-158,678,837,-259,-497,758,-972,-742,-441,491,340,329
-152,438,591,-145,-371,512,-972,-790,-657,89,88,131
-140,252,393,-55,-263,320,-942,-766,-753,-161,-84,-17
-116,132,249,-7,-179,188,-900,-718,-777,-305,-192,-107
-92,66,159,9,-125,110,-834,-658,-759,-377,-240,-149
-74,30,105,21,-89,68,-744,-574,-723,-401,-258,-161
-62,-5,57,33,-59,26,-636,-496,-693,-395,-264,-161
-50,-34,15,39,-35,-9,-534,-412,-645,-383,-252,-143
-38,-58,-19,45,-11,-38,-438,-334,-597,-353,-240,-131
-20,-76,-55,45,17,-68,-360,-256,-537,-323,-222,-113
-2,-94,-91,45,41,-92,-300,-196,-477,-293,-204,-101
9,-112,-121,51,65,-116,-258,-148,-423,-269,-192,-95
20,-118,-139,45,77,-128,-240,-130,-387,-257,-192,-95
20,-130,-151,51,83,-140,-222,-124,-363,-257,-186,-89
14,-148,-163,69,89,-152,-204,-118,-351,-257,-180,-89
14,-148,-163,69,89,-152,-192,-118,-351,-257,-180,-83
9,-148,-157,69,83,-152,-174,-118,-357,-263,-180,-83
9,-154,-163,69,83,-158,-162,-112,-363,-263,-180,-83
9,-160,-169,75,89,-164,-144,-100,-363,-263,-180,-83
9,-166,-175,75,89,-170,-138,-94,-363,-263,-180,-83
4,-172,-175,81,89,-176,-132,-82,-351,-263,-174,-77
4,-172,-175,81,89,-176,-132,-76,-339,-263,-174,-77
4,-178,-181,81,89,-182,-132,-76,-333,-263,-174,-77
9,-184,-193,87,101,-188,-138,-76,-333,-257,-174,-77
9,-184,-193,87,101,-188,-132,-82,-333,-257,-180,-77
9,-184,-193,87,101,-188,-132,-76,-327,-251,-180,-77
9,-184,-193,87,101,-188,-126,-76,-327,-251,-180,-71
4,-184,-187,87,95,-188,-126,-76,-333,-251,-180,-71
9,-172,-181,81,95,-176,-120,-64,-327,-239,-174,-59
9,-166,-175,75,89,-170,-114,-58,-327,-233,-168,-59
14,-166,-181,75,95,-170,-114,-52,-321,-227,-162,-53
26,-166,-193,69,107,-176,-114,-46,-315,-221,-156,-53
26,-166,-193,69,107,-176,-114,-40,-303,-215,-156,-53
32,-160,-193,63,113,-176,-108,-34,-291,-209,-156,-53
26,-160,-187,69,107,-170,-108,-34,-285,-203,-162,-53
32,-154,-187,57,107,-170,-102,-34,-279,-197,-156,-47
26,-148,-175,63,101,-158,-96,-28,-279,-191,-150,-41
26,-148,-175,63,101,-158,-96,-34,-279,-191,-150,-35
26,-142,-169,57,95,-152,-96,-34,-285,-191,-144,-29
32,-142,-175,51,101,-158,-96,-34,-279,-185,-138,-23
38,-148,-187,57,113,-164,-96,-34,-279,-185,-138,-23
44,-148,-193,51,119,-170,-96,-28,-273,-185,-138,-23
50,-148,-199,51,125,-170,-90,-28,-273,-179,-132,-23
50,-142,-193,45,119,-164,-90,-28,-267,-173,-132,-29
56,-142,-199,39,125,-170,-90,-22,-255,-173,-132,-23
56,-136,-193,39,125,-164,-84,-10,-249,-167,-126,-11
56,-136,-193,39,125,-164,-84,-10,-243,-161,-126,-11
62,-130,-193,33,125,-158,-78,-10,-237,-155,-120,-11
68,-124,-193,27,131,-158,-78,-10,-237,-155,-120,-11
68,-118,-187,21,125,-152,-78,-4,-231,-149,-120,-5
74,-118,-193,21,131,-152,-78,2,-219,-143,-108,1
68,-118,-187,21,125,-152,-72,13,-219,-137,-96,13
62,-118,-181,27,119,-146,-72,13,-207,-131,-90,18
62,-112,-175,27,119,-140,-66,18,-201,-119,-84,18
62,-112,-175,27,119,-140,-60,24,-195,-113,-90,18
74,-112,-187,21,131,-146,-60,24,-189,-113,-84,23
74,-100,-175,15,125,-134,-54,24,-183,-107,-84,29
80,-100,-181,9,131,-140,-54,24,-177,-101,-84,35
86,-94,-181,3,131,-134,-60,30,-165,-101,-78,35
92,-88,-181,-2,137,-134,-60,36,-159,-95,-72,41
92,-76,-169,-7,131,-122,-60,42,-147,-95,-72,41
98,-70,-169,-13,131,-116,-60,48,-141,-83,-66,47
98,-64,-163,-13,131,-110,-54,60,-129,-71,-60,53
104,-52,-157,-25,131,-104,-54,66,-117,-65,-54,65
110,-40,-151,-31,131,-92,-48,72,-111,-53,-48,71
116,-34,-151,-43,131,-92,-42,84,-99,-35,-30,83
116,-28,-145,-43,131,-86,-42,102,-75,-17,-18,95
122,-16,-139,-49,131,-74,-36,114,-57,-11,-12,107
134,-5,-139,-61,137,-68,-30,120,-39,7,0,113
140,-5,-145,-67,143,-74,-24,132,-21,13,6,125
140,6,-133,-73,137,-62,-24,144,-9,24,11,131
152,24,-127,-85,143,-50,-24,156,8,29,16,137
158,36,-121,-91,143,-38,-18,168,19,41,28,143
158,48,-109,-97,137,-26,-12,186,43,65,46,155
164,72,-91,-115,131,-9,-6,198,61,77,58,167
170,84,-85,-121,131,2,6,216,85,89,70,173
176,96,-79,-133,131,8,12,234,109,113,88,185
176,108,-67,-139,125,20,17,246,133,131,100,197
176,126,-49,-151,113,38,22,258,151,161,112,209
182,144,-37,-157,113,56,28,270,169,179,124,221
194,162,-31,-175,113,68,34,282,187,197,130,233
200,174,-25,-187,113,74,34,294,199,209,136,239
212,192,-19,-199,119,86,46,312,217,221,148,245
218,204,-14,-205,119,98,52,330,229,233,154,251
218,216,-3,-211,113,110,64,348,247,245,172,257
212,228,15,-217,101,122,70,360,259,257,178,263
206,240,33,-217,89,140,70,366,277,263,184,269
212,258,45,-235,83,152,76,372,289,275,190,275
212,270,57,-241,77,164,82,378,301,281,202,287
206,276,69,-235,71,176,88,372,301,287,202,287
206,288,81,-241,65,188,88,372,307,287,202,293
194,300,105,-241,47,206,100,378,307,293,196,293
188,312,123,-247,35,218,112,384,313,293,196,293
188,318,129,-253,29,224,118,390,313,287,202,287
182,324,141,-247,23,236,124,390,313,287,202,281
176,324,147,-247,17,236,124,384,307,287,202,275
170,324,153,-241,12,242,124,378,301,287,196,269
170,324,153,-241,12,242,118,372,295,275,184,263
158,318,159,-235,1,242,112,366,283,263,172,245
158,312,153,-229,7,236,106,366,283,251,166,239
146,300,153,-217,1,230,100,360,271,239,154,227
146,294,147,-217,1,224,94,348,265,233,142,221
140,288,147,-211,1,218,82,342,259,221,130,209
128,276,147,-199,-5,212,76,336,247,209,124,197
128,264,135,-193,1,200,70,330,235,197,112,191
128,258,129,-193,1,194,64,318,217,191,100,185
122,252,129,-181,1,194,58,306,199,179,88,173
110,240,129,-169,-5,188,52,294,181,167,76,155
98,228,129,-157,-11,182,40,282,169,149,64,143
80,216,135,-145,-23,176,34,270,157,137,52,131
68,198,129,-133,-29,164,28,258,139,119,46,119
68,186,117,-127,-23,152,22,240,121,107,34,113
62,174,111,-115,-23,146,17,222,97,89,28,101
56,156,99,-103,-17,128,12,216,85,77,16,95
50,138,87,-91,-17,116,0,204,67,65,11,83
44,126,81,-85,-17,104,-6,186,55,53,0,71
38,114,75,-73,-17,98,-12,174,43,41,-12,65
32,108,75,-67,-17,92,-24,162,31,29,-24,53
32,96,63,-61,-11,80,-30,150,13,13,-36,41
26,84,57,-49,-11,74,-36,138,-3,-5,-42,29
20,66,45,-43,-11,56,-42,126,-15,-17,-54,18
20,48,27,-31,1,38,-54,108,-39,-35,-60,18
14,30,15,-19,1,26,-54,96,-57,-47,-66,7
14,18,3,-13,7,14,-60,84,-63,-53,-72,1
14,6,-9,-7,12,2,-60,72,-75,-65,-78,-5
14,-5,-19,-2,17,-9,-66,60,-81,-77,-96,-17
14,-5,-19,-2,17,-9,-72,48,-93,-83,-102,-23
14,-10,-25,-2,17,-14,-84,42,-105,-95,-108,-29
9,-22,-31,3,17,-26,-90,42,-111,-101,-114,-35
9,-28,-37,9,23,-32,-90,24,-117,-107,-120,-41
9,-40,-49,15,29,-44,-96,18,-129,-125,-126,-53
4,-46,-49,15,23,-50,-96,13,-135,-137,-132,-53
4,-52,-55,21,29,-56,-96,13,-141,-137,-132,-59
4,-58,-61,21,29,-62,-102,8,-147,-143,-132,-59
-2,-64,-61,33,29,-62,-102,8,-147,-143,-132,-65
-2,-64,-61,33,29,-62,-96,8,-147,-149,-138,-71
-14,-70,-55,39,17,-62,-96,8,-147,-149,-138,-77
-8,-76,-67,39,29,-74,-96,8,-147,-149,-144,-77
-2,-76,-73,39,35,-74,-102,2,-165,-155,-144,-77
-2,-76,-73,39,35,-74,-102,-4,-159,-155,-138,-71
-8,-76,-67,39,29,-74,-102,-10,-159,-155,-138,-65
-2,-82,-79,39,35,-80,-102,-16,-159,-155,-144,-71
-2,-88,-85,45,41,-86,-102,-10,-153,-155,-144,-77
-8,-88,-79,45,35,-86,-102,-10,-153,-155,-138,-77
-8,-88,-79,45,35,-86,-102,-4,-153,-155,-144,-77
-14,-88,-73,51,29,-80,-102,-10,-153,-155,-144,-77
-20,-94,-73,51,23,-86,-102,-10,-153,-155,-144,-77
-20,-94,-73,51,23,-86,-102,-4,-153,-155,-144,-77
-20,-94,-73,51,23,-86,-108,-4,-153,-155,-150,-77
-20,-94,-73,51,23,-86,-108,-4,-147,-155,-144,-77
-20,-94,-73,51,23,-86,-108,-4,-147,-155,-144,-77
-20,-94,-73,51,23,-86,-108,-4,-141,-149,-144,-77
-14,-94,-79,51,29,-86,-108,-4,-135,-149,-138,-71
-8,-94,-85,45,35,-92,-108,-4,-141,-149,-132,-65
-8,-94,-85,45,35,-92,-108,-10,-141,-143,-126,-65
-8,-88,-79,45,35,-86,-108,-4,-135,-137,-120,-59
-8,-82,-73,39,29,-80,-108,-4,-129,-137,-120,-59
-8,-82,-73,39,29,-80,-108,-4,-129,-131,-120,-59
-2,-82,-79,39,35,-80,-108,2,-123,-131,-120,-59
-2,-82,-79,39,35,-80,-108,2,-123,-131,-120,-59
4,-82,-85,33,41,-86,-108,2,-123,-131,-120,-59
-2,-82,-79,39,35,-80,-102,-10,-123,-131,-120,-65
-2,-82,-79,39,35,-80,-102,-4,-123,-137,-126,-65
-2,-76,-73,39,35,-74,-102,-4,-129,-137,-126,-65
-2,-70,-67,33,29,-68,-96,2,-123,-137,-120,-59
-2,-70,-67,33,29,-68,-96,2,-123,-137,-114,-53
4,-70,-73,27,35,-74,-102,-4,-129,-131,-108,-53
4,-70,-73,27,35,-74,-102,-4,-129,-131,-108,-47
4,-76,-79,33,41,-80,-102,-4,-123,-125,-102,-53
4,-70,-73,27,35,-74,-108,2,-117,-125,-102,-59
4,-64,-67,27,35,-68,-108,8,-105,-119,-96,-53
4,-64,-67,27,35,-68,-108,13,-99,-119,-96,-47
9,-64,-73,27,41,-68,-108,13,-99,-119,-96,-41
9,-64,-73,27,41,-68,-102,13,-93,-113,-96,-41
14,-64,-79,27,47,-68,-108,2,-99,-113,-102,-47
14,-64,-79,27,47,-68,-108,-4,-105,-113,-102,-47
14,-64,-79,27,47,-68,-108,-4,-111,-113,-102,-47
14,-64,-79,27,47,-68,-114,-4,-111,-113,-102,-47
9,-64,-73,27,41,-68,-108,-4,-105,-113,-96,-41
4,-64,-67,27,35,-68,-108,-4,-105,-113,-90,-41
9,-64,-73,27,41,-68,-108,-4,-105,-119,-90,-35
9,-64,-73,27,41,-68,-108,-4,-105,-119,-90,-29
9,-70,-79,27,41,-74,-114,-4,-99,-119,-84,-29
14,-70,-85,27,47,-74,-114,-4,-105,-119,-84,-29
9,-76,-85,33,47,-80,-114,2,-99,-119,-84,-35
14,-76,-91,33,53,-80,-114,2,-105,-119,-84,-35
20,-76,-97,27,59,-86,-114,-4,-105,-119,-84,-41
20,-76,-97,27,59,-86,-114,-4,-111,-125,-84,-41
26,-70,-97,21,59,-80,-108,-4,-117,-125,-84,-47
20,-64,-85,21,53,-74,-108,-10,-117,-131,-90,-47
14,-64,-79,27,47,-68,-108,-16,-117,-137,-96,-47
14,-64,-79,27,47,-68,-108,-16,-117,-143,-96,-41
14,-70,-85,27,47,-74,-108,-16,-117,-143,-96,-47
20,-70,-91,21,53,-80,-114,-22,-117,-143,-102,-47
14,-70,-85,27,47,-74,-114,-22,-123,-149,-102,-47
14,-76,-91,33,53,-80,-114,-22,-123,-149,-102,-47
9,-82,-91,33,47,-86,-108,-22,-123,-149,-96,-47
9,-82,-91,33,47,-86,-108,-28,-129,-155,-96,-47
9,-82,-91,33,47,-86,-108,-28,-135,-155,-96,-41
14,-82,-97,33,53,-86,-114,-40,-135,-161,-102,-41
14,-82,-97,33,53,-86,-114,-46,-135,-161,-102,-47
14,-82,-97,33,53,-86,-114,-46,-135,-167,-114,-53
20,-88,-109,33,65,-98,-114,-46,-141,-167,-120,-53
14,-94,-109,39,59,-98,-114,-52,-141,-173,-120,-59
14,-94,-109,39,59,-98,-108,-52,-147,-173,-120,-59
9,-94,-103,39,53,-98,-108,-58,-147,-179,-114,-59
9,-100,-109,45,59,-104,-102,-64,-147,-185,-114,-65
9,-100,-109,45,59,-104,-102,-64,-147,-191,-114,-71
9,-100,-109,45,59,-104,-102,-70,-147,-197,-114,-71
14,-106,-121,45,65,-110,-108,-70,-153,-203,-114,-71
20,-106,-127,39,71,-116,-114,-70,-159,-209,-120,-71
14,-112,-127,51,71,-116,-114,-70,-159,-209,-126,-77
9,-118,-127,51,65,-122,-114,-76,-159,-215,-126,-77
9,-118,-127,51,65,-122,-114,-76,-165,-215,-132,-77
14,-118,-133,51,71,-122,-114,-88,-171,-221,-138,-83
14,-118,-133,51,71,-122,-108,-94,-171,-221,-138,-77
14,-118,-133,51,71,-122,-108,-94,-171,-221,-138,-77
20,-124,-145,51,83,-134,-108,-94,-171,-221,-138,-77
20,-130,-151,51,83,-140,-114,-100,-177,-221,-138,-77
14,-130,-145,57,77,-134,-114,-100,-177,-221,-132,-77
9,-136,-145,63,77,-140,-114,-100,-171,-221,-132,-77
9,-136,-145,63,77,-140,-114,-100,-171,-215,-132,-77
9,-136,-145,63,77,-140,-120,-100,-177,-215,-132,-77
4,-136,-139,63,71,-140,-120,-100,-171,-215,-132,-77
4,-136,-139,63,71,-140,-114,-106,-171,-215,-138,-77
9,-136,-145,63,77,-140,-114,-112,-177,-221,-138,-83
14,-136,-151,63,83,-140,-108,-112,-177,-221,-144,-83
9,-142,-151,63,77,-146,-108,-118,-177,-221,-144,-89
9,-148,-157,69,83,-152,-108,-118,-177,-221,-144,-89
9,-148,-157,69,83,-152,-108,-118,-177,-227,-144,-89
9,-142,-151,63,77,-146,-108,-124,-177,-233,-144,-89
14,-142,-157,63,83,-146,-114,-124,-189,-239,-144,-89
9,-148,-157,69,83,-152,-108,-130,-189,-245,-138,-83
4,-148,-151,69,77,-152,-108,-130,-183,-233,-132,-83
4,-148,-151,69,77,-152,-108,-136,-183,-233,-138,-83
-2,-148,-145,75,71,-146,-108,-136,-177,-233,-138,-89
4,-148,-151,69,77,-152,-108,-142,-171,-227,-138,-83
-2,-148,-145,75,71,-146,-108,-142,-171,-227,-144,-83
4,-142,-145,63,71,-146,-102,-148,-177,-239,-156,-89
4,-148,-151,69,77,-152,-96,-154,-183,-245,-150,-95
4,-148,-151,69,77,-152,-90,-154,-189,-251,-156,-95
-2,-148,-145,75,71,-146,-90,-160,-195,-257,-156,-95
-2,-148,-145,75,71,-146,-96,-160,-195,-257,-156,-101
-2,-154,-151,75,71,-152,-96,-160,-195,-263,-156,-101
-8,-154,-145,75,65,-152,-108,-160,-195,-263,-156,-101
-8,-154,-145,75,65,-152,-114,-160,-195,-257,-150,-95
-8,-160,-151,81,71,-158,-114,-166,-195,-263,-156,-95
-8,-160,-151,81,71,-158,-114,-178,-195,-263,-156,-101
-14,-160,-145,87,65,-152,-114,-178,-189,-263,-156,-101
-14,-160,-145,87,65,-152,-114,-178,-189,-263,-156,-101
-8,-160,-151,81,71,-158,-114,-178,-189,-257,-156,-95
-2,-154,-151,75,71,-152,-114,-178,-183,-257,-156,-95
4,-154,-157,69,77,-158,-108,-172,-183,-251,-144,-95
4,-148,-151,69,77,-152,-108,-160,-183,-245,-138,-95
4,-136,-139,63,71,-140,-102,-160,-177,-245,-138,-89
9,-118,-127,51,65,-122,-96,-154,-165,-233,-132,-83
9,-100,-109,45,59,-104,-90,-154,-153,-227,-126,-77
14,-82,-97,33,53,-86,-84,-154,-153,-227,-126,-77
14,-64,-79,27,47,-68,-72,-154,-153,-221,-126,-71
20,-52,-73,15,47,-62,-66,-154,-147,-215,-120,-65
26,-40,-67,9,47,-50,-66,-154,-141,-209,-120,-53
32,-16,-49,-7,41,-32,-60,-154,-135,-203,-108,-47
32,-5,-37,-13,35,-20,-60,-148,-129,-197,-96,-41
32,0,-31,-13,35,-14,-54,-148,-123,-191,-90,-41
38,6,-31,-19,35,-9,-48,-154,-117,-191,-84,-35
38,12,-25,-19,35,-4,-48,-142,-111,-179,-78,-29
44,18,-25,-31,35,-4,-42,-136,-105,-167,-78,-29
44,30,-14,-37,29,8,-30,-124,-93,-161,-78,-23
38,36,-3,-31,23,20,-24,-118,-87,-155,-78,-23
38,36,-3,-31,23,20,-24,-112,-87,-155,-78,-23
38,36,-3,-31,23,20,-24,-112,-87,-155,-78,-23
44,36,-9,-37,29,14,-30,-118,-81,-155,-78,-17
56,42,-14,-49,35,14,-30,-112,-81,-155,-78,-17
68,48,-19,-55,47,14,-36,-118,-81,-149,-72,-17
68,48,-19,-55,47,14,-48,-118,-87,-155,-66,-17
74,42,-31,-55,53,8,-66,-124,-93,-161,-72,-17
80,42,-37,-61,59,2,-78,-130,-93,-161,-66,-17
74,30,-43,-49,59,-4,-90,-130,-99,-167,-66,-17
74,30,-43,-49,59,-4,-102,-142,-105,-179,-66,-17
74,30,-43,-49,59,-4,-114,-154,-117,-185,-66,-17
68,18,-49,-43,59,-14,-120,-166,-117,-185,-72,-17
62,6,-55,-31,59,-20,-126,-166,-123,-191,-78,-17
56,-5,-61,-25,59,-32,-120,-172,-129,-197,-84,-23
44,-22,-67,-13,53,-44,-114,-172,-129,-197,-90,-29
32,-34,-67,-2,47,-50,-102,-178,-135,-203,-90,-35
20,-46,-67,9,41,-56,-102,-184,-141,-215,-102,-47
9,-64,-73,27,41,-68,-102,-190,-147,-227,-114,-59
4,-82,-85,33,41,-86,-96,-190,-159,-239,-120,-71
4,-94,-97,39,47,-98,-96,-196,-165,-251,-132,-83
-2,-106,-103,51,47,-104,-102,-202,-177,-257,-138,-89
-8,-124,-115,63,53,-122,-102,-208,-183,-263,-150,-89
-20,-136,-115,75,47,-128,-102,-220,-189,-275,-162,-101
-20,-142,-121,75,47,-134,-102,-220,-189,-275,-162,-107
-20,-154,-133,81,53,-146,-108,-226,-189,-275,-168,-113
-14,-154,-139,81,59,-146,-108,-232,-189,-281,-168,-119
-8,-160,-151,81,71,-158,-102,-238,-195,-287,-168,-119
-8,-166,-157,81,71,-164,-102,-244,-201,-293,-168,-119
-8,-166,-157,81,71,-164,-102,-244,-207,-293,-168,-119
-8,-172,-163,87,77,-170,-102,-244,-213,-299,-168,-113
-8,-172,-163,87,77,-170,-114,-250,-213,-305,-168,-107
-14,-172,-157,93,71,-164,-114,-256,-213,-305,-174,-107
-20,-166,-145,87,59,-158,-114,-256,-213,-299,-168,-101
-26,-154,-127,87,47,-140,-114,-250,-213,-293,-162,-107
-20,-148,-127,81,53,-140,-114,-244,-207,-287,-156,-101
-26,-142,-115,81,41,-128,-114,-238,-201,-281,-156,-107
-26,-136,-109,81,41,-122,-114,-232,-195,-281,-156,-113
-32,-124,-91,75,29,-110,-102,-220,-177,-269,-150,-113
-38,-112,-73,75,17,-92,-90,-208,-165,-263,-144,-113
-50,-106,-55,75,1,-80,-78,-202,-153,-251,-144,-113
-56,-94,-37,69,-11,-68,-66,-196,-147,-239,-150,-119
-74,-76,-3,75,-35,-38,-42,-178,-129,-221,-150,-119
-86,-58,27,69,-59,-14,-24,-166,-111,-209,-144,-119
-98,-40,57,69,-77,8,-6,-148,-87,-191,-138,-119
-110,-22,87,63,-101,32,12,-124,-63,-167,-138,-119
-122,-5,117,63,-119,56,34,-82,-21,-143,-132,-119
-134,18,153,57,-143,86,58,-46,8,-119,-120,-125
-146,36,183,57,-161,110,88,-4,49,-101,-114,-119
-158,48,207,57,-179,128,118,36,79,-77,-108,-119
-158,60,219,51,-185,140,148,72,115,-59,-108,-119
-164,66,231,45,-197,146,184,120,157,-29,-102,-119
-170,72,243,51,-203,158,226,168,205,7,-90,-113
-182,72,255,57,-215,164,268,228,259,47,-78,-101
-182,78,261,51,-221,170,316,300,331,95,-66,-95
-182,78,261,51,-221,170,376,396,397,143,-54,-95
-188,84,273,51,-227,176,448,492,481,185,-48,-95
-188,108,297,39,-239,200,526,588,571,227,-30,-89
-194,144,339,27,-263,242,616,702,667,281,-6,-83
-200,174,375,9,-287,272,730,828,781,341,11,-71
-206,198,405,3,-305,302,856,966,901,413,28,-65
-212,222,435,-7,-323,326,1000,1110,1033,503,58,-47
-212,264,477,-25,-341,368,1150,1278,1189,629,112,-11
-212,324,537,-55,-371,428,1336,1464,1375,797,184,35
-218,408,627,-91,-419,518,1498,1644,1579,983,274,101
-218,522,741,-151,-479,632,1594,1788,1777,1187,388,179
-218,678,897,-229,-557,788,1612,1866,1939,1385,520,281
-212,858,1071,-325,-641,962,1564,1878,2053,1571,664,401
-206,1020,1227,-403,-713,1124,1456,1800,2101,1739,808,515
-212,1176,1389,-481,-797,1280,1294,1626,2071,1859,922,617
-206,1332,1539,-559,-869,1436,1042,1350,1975,1961,1024,707
-206,1476,1683,-631,-941,1580,754,1014,1849,2057,1126,797
-206,1626,1833,-709,-1019,1730,412,630,1681,2147,1222,887
-200,1728,1929,-763,-1061,1826,94,294,1525,2225,1294,953
-200,1746,1947,-775,-1073,1844,-156,13,1369,2255,1324,977
-200,1680,1881,-739,-1037,1778,-378,-196,1219,2237,1324,977
-188,1548,1737,-679,-959,1640,-564,-358,1045,2123,1264,941
-176,1374,1551,-601,-863,1460,-714,-502,793,1859,1138,857
-170,1176,1347,-499,-755,1262,-840,-652,469,1475,946,725
-164,936,1101,-385,-629,1016,-924,-796,103,1019,712,557
-158,690,849,-265,-503,770,-972,-910,-231,545,448,371
-164,450,615,-145,-389,530,-966,-964,-495,107,178,167
-146,252,399,-49,-269,326,-924,-952,-627,-179,-24,7
-122,120,243,3,-179,182,-882,-904,-669,-347,-144,-95
-98,42,141,27,-119,92,-828,-850,-669,-431,-210,-149
-80,0,81,39,-77,38,-750,-772,-633,-455,-228,-167
-68,-34,33,45,-53,-4,-660,-694,-591,-467,-228,-179
-56,-76,-19,63,-17,-50,-558,-616,-543,-467,-216,-173
-44,-106,-61,69,7,-86,-462,-532,-489,-455,-198,-161
-32,-124,-91,75,29,-110,-372,-448,-429,-425,-174,-143
-2,-136,-133,69,65,-134,-294,-376,-369,-401,-162,-131
14,-154,-169,69,89,-158,-240,-322,-321,-383,-162,-125
26,-166,-193,69,107,-176,-210,-286,-285,-365,-162,-119
32,-178,-211,69,119,-194,-186,-268,-261,-353,-162,-119
32,-190,-223,75,125,-206,-174,-256,-249,-341,-162,-113
26,-190,-217,81,119,-200,-162,-256,-249,-341,-162,-113
14,-196,-211,93,113,-200,-150,-256,-255,-347,-156,-113
9,-202,-211,93,107,-206,-138,-250,-261,-347,-156,-107
9,-208,-217,99,113,-212,-126,-238,-255,-353,-150,-113
14,-214,-229,99,119,-218,-114,-226,-249,-353,-150,-113
20,-220,-241,99,131,-230,-108,-214,-237,-353,-144,-113
26,-220,-247,99,137,-230,-96,-208,-225,-347,-144,-107
32,-220,-253,93,143,-236,-96,-202,-219,-347,-150,-101
32,-220,-253,93,143,-236,-90,-196,-219,-341,-150,-101
32,-220,-253,93,143,-236,-90,-196,-219,-341,-150,-101
32,-220,-253,93,143,-236,-90,-196,-219,-341,-144,-101
32,-220,-253,93,143,-236,-90,-202,-219,-341,-138,-101
38,-226,-265,93,149,-242,-96,-202,-231,-341,-132,-95
32,-226,-259,93,143,-242,-90,-196,-225,-335,-126,-95
26,-232,-259,105,143,-242,-90,-184,-219,-329,-120,-95
26,-226,-253,99,137,-236,-84,-172,-213,-323,-120,-95
32,-220,-253,93,143,-236,-78,-166,-207,-317,-120,-95
32,-226,-259,93,143,-242,-78,-160,-201,-311,-120,-89
44,-220,-265,87,155,-242,-78,-154,-195,-311,-120,-83
50,-214,-265,81,155,-236,-78,-148,-189,-311,-120,-77
50,-208,-259,81,155,-230,-78,-148,-183,-305,-120,-71
50,-208,-259,81,155,-230,-72,-148,-183,-299,-114,-71
38,-208,-247,87,143,-224,-66,-136,-177,-293,-108,-65
38,-202,-241,81,137,-218,-60,-136,-171,-287,-108,-65
44,-196,-241,75,143,-218,-66,-130,-171,-287,-108,-65
56,-196,-253,69,155,-224,-60,-124,-165,-281,-96,-59
56,-190,-247,63,149,-218,-60,-118,-165,-275,-90,-59
62,-190,-253,63,155,-218,-60,-118,-159,-269,-90,-59
62,-190,-253,63,155,-218,-60,-112,-159,-269,-84,-59
62,-190,-253,63,155,-218,-54,-106,-153,-263,-84,-53
62,-184,-247,63,155,-212,-54,-106,-159,-263,-84,-47
68,-184,-253,57,161,-218,-54,-106,-159,-257,-84,-41
74,-178,-253,51,161,-212,-54,-100,-153,-251,-78,-35
74,-172,-247,51,161,-206,-48,-94,-147,-245,-72,-29
80,-166,-247,39,161,-206,-54,-88,-147,-245,-66,-23
80,-160,-241,39,161,-200,-48,-82,-141,-239,-60,-23
86,-160,-247,39,167,-200,-48,-70,-135,-233,-54,-29
92,-148,-241,27,167,-194,-48,-64,-129,-227,-48,-23
92,-142,-235,21,161,-188,-48,-58,-123,-221,-42,-17
98,-136,-235,21,167,-182,-48,-52,-117,-209,-36,-17
104,-136,-241,15,173,-188,-48,-46,-111,-209,-30,-5
110,-130,-241,9,173,-182,-42,-40,-105,-203,-24,1
116,-124,-241,3,179,-182,-42,-34,-93,-191,-24,13
122,-118,-241,-2,179,-176,-36,-28,-87,-179,-18,18
128,-112,-241,-7,185,-176,-36,-16,-75,-167,-12,23
128,-100,-229,-13,179,-164,-36,-4,-69,-161,0,29
134,-100,-235,-13,185,-164,-36,8,-57,-155,11,35
134,-88,-223,-19,179,-152,-36,13,-57,-149,16,35
134,-82,-217,-25,173,-146,-36,18,-51,-137,22,41
140,-70,-211,-37,173,-140,-30,30,-39,-131,28,47
146,-64,-211,-37,179,-134,-24,48,-27,-125,40,53
146,-58,-205,-43,173,-128,-24,60,-15,-113,46,65
152,-46,-199,-55,173,-122,-18,66,3,-95,58,77
158,-40,-199,-55,179,-116,-12,84,25,-77,70,89
158,-28,-187,-61,173,-104,-6,96,43,-59,76,95
164,-16,-181,-73,173,-98,0,108,55,-41,82,101
170,-5,-175,-79,173,-86,0,120,73,-29,88,107
176,6,-169,-91,173,-80,0,138,79,-17,94,113
182,18,-163,-97,173,-68,6,156,97,-5,112,125
194,30,-163,-109,179,-62,12,168,115,13,130,137
200,42,-157,-121,179,-56,17,192,139,29,142,149
206,60,-145,-127,179,-38,22,204,157,47,154,161
212,78,-133,-145,173,-26,28,228,181,71,172,173
218,96,-121,-151,173,-9,34,246,211,95,190,191
224,114,-109,-169,167,2,40,270,229,113,202,203
218,126,-91,-169,155,20,40,282,247,131,214,215
218,144,-73,-175,149,38,46,300,265,143,226,221
224,156,-67,-187,149,44,52,306,271,161,238,227
230,168,-61,-193,149,56,64,318,283,173,244,233
236,180,-55,-205,149,62,70,336,295,185,256,239
236,198,-37,-217,137,80,82,348,313,197,268,251
236,210,-25,-223,131,92,88,354,325,215,280,257
236,222,-14,-229,125,104,88,360,337,227,292,269
224,234,9,-229,107,122,88,372,349,239,298,275
218,246,27,-229,95,140,88,378,355,245,298,275
218,258,39,-235,89,152,88,384,355,251,298,269
218,270,51,-241,83,164,100,384,355,251,298,257
224,276,51,-247,89,164,100,384,361,251,298,245
218,282,63,-247,77,176,106,384,355,251,292,233
212,282,69,-247,71,176,112,384,349,245,292,233
212,282,69,-247,71,176,118,390,343,245,286,233
206,282,75,-241,65,182,124,390,343,239,280,227
200,282,81,-241,59,182,124,390,337,239,280,227
200,282,81,-241,59,182,124,384,331,233,262,215
194,282,87,-235,53,188,124,378,325,227,262,209
182,282,99,-229,41,194,130,378,313,221,256,203
170,276,105,-217,35,194,130,378,307,215,256,191
158,276,117,-211,23,200,136,372,289,209,244,191
152,276,123,-211,17,200,136,366,271,197,238,173
146,264,117,-199,17,194,142,360,259,185,226,167
134,264,129,-193,7,200,142,348,241,173,214,155
122,252,129,-181,1,194,142,336,229,161,202,143
110,234,123,-169,-5,182,148,330,217,149,190,131
110,216,105,-157,7,164,148,324,199,137,184,125
98,198,99,-145,1,152,142,312,187,125,178,113
86,192,105,-133,-5,152,142,306,175,113,166,101
80,180,99,-127,-5,140,130,294,157,101,154,83
74,168,93,-115,-5,134,130,276,139,77,142,65
68,156,87,-109,-5,122,124,258,115,65,130,59
68,144,75,-103,1,110,130,246,97,53,124,47
62,126,63,-91,1,98,124,234,79,41,106,41
56,102,45,-79,7,74,118,222,61,29,94,29
50,84,33,-61,12,62,118,216,49,24,88,18
44,66,21,-55,12,44,112,204,37,19,82,18
38,54,15,-43,12,38,112,198,25,1,76,7
44,36,-9,-37,29,14,100,186,8,-11,64,-5
44,24,-19,-31,35,2,94,168,-9,-29,58,-11
32,18,-14,-25,23,2,88,162,-27,-47,46,-23
26,12,-14,-13,23,2,82,150,-39,-59,34,-29
20,0,-19,-7,23,-9,76,138,-51,-65,28,-41
14,-5,-19,-2,17,-9,64,132,-63,-77,16,-47
9,-16,-25,3,17,-20,58,120,-81,-83,16,-53
9,-28,-37,9,23,-32,58,108,-87,-89,11,-59
9,-40,-49,15,29,-44,52,96,-99,-95,11,-65
9,-52,-61,21,35,-56,52,90,-105,-101,6,-71
4,-64,-67,27,35,-68,46,84,-111,-107,0,-77
-2,-70,-67,33,29,-68,52,84,-117,-113,-6,-83
-2,-70,-67,33,29,-68,46,84,-123,-119,-12,-83
-2,-76,-73,39,35,-74,46,78,-129,-119,-12,-89
-2,-82,-79,39,35,-80,52,78,-135,-125,-18,-89
-2,-82,-79,39,35,-80,46,66,-141,-131,-24,-95
-2,-94,-91,45,41,-92,46,66,-147,-137,-24,-101
4,-94,-97,39,47,-98,40,60,-153,-143,-30,-107
9,-94,-103,39,53,-98,40,54,-159,-143,-36,-113
9,-94,-103,39,53,-98,40,48,-165,-143,-36,-113
4,-100,-103,45,53,-104,40,48,-165,-143,-36,-113
-2,-100,-97,51,47,-98,40,48,-165,-143,-36,-113
-2,-106,-103,51,47,-104,34,54,-165,-143,-36,-107
-2,-106,-103,51,47,-104,28,54,-171,-149,-42,-107
-2,-112,-109,57,53,-110,28,48,-177,-155,-42,-107
-2,-112,-109,57,53,-110,28,54,-171,-155,-42,-107
-8,-118,-109,57,47,-116,34,54,-171,-149,-36,-107
-8,-118,-109,57,47,-116,40,60,-165,-143,-30,-107
-8,-118,-109,57,47,-116,40,60,-153,-137,-24,-101
-8,-112,-103,57,47,-110,40,66,-153,-131,-18,-95
-14,-112,-97,63,41,-104,34,60,-153,-131,-12,-95
-14,-112,-97,63,41,-104,34,60,-165,-137,-12,-95
-8,-112,-103,57,47,-110,34,60,-165,-137,-18,-95
-8,-112,-103,57,47,-110,34,66,-165,-137,-18,-89
-8,-106,-97,51,41,-104,34,66,-165,-131,-18,-89
-2,-100,-97,51,47,-98,34,66,-159,-131,-24,-89
-8,-100,-91,51,41,-98,28,66,-153,-125,-18,-89
-2,-94,-91,45,41,-92,28,66,-147,-125,-6,-89
4,-94,-97,39,47,-98,28,66,-141,-113,-6,-89
4,-94,-97,39,47,-98,22,66,-147,-113,-6,-89
4,-94,-97,39,47,-98,22,66,-147,-107,-6,-89
4,-94,-97,39,47,-98,22,60,-147,-107,-12,-89
4,-88,-91,39,47,-92,17,60,-153,-101,-12,-89
-2,-88,-85,45,41,-86,22,60,-153,-107,-12,-83
4,-82,-85,33,41,-86,22,60,-147,-101,-6,-83
4,-82,-85,33,41,-86,22,60,-147,-101,-6,-71
-2,-82,-79,39,35,-80,28,66,-147,-101,0,-71
-2,-88,-85,45,41,-86,28,72,-141,-101,6,-71
-2,-94,-91,45,41,-92,22,78,-141,-101,6,-71
-2,-94,-91,45,41,-92,22,78,-135,-95,11,-71
4,-94,-97,39,47,-98,28,84,-129,-95,11,-71
4,-94,-97,39,47,-98,28,84,-135,-89,11,-71
9,-94,-103,39,53,-98,22,78,-141,-89,11,-71
9,-94,-103,39,53,-98,17,66,-141,-89,6,-77
4,-94,-97,39,47,-98,17,66,-141,-89,6,-71
-2,-94,-91,45,41,-92,22,66,-141,-83,11,-71
-2,-94,-91,45,41,-92,17,66,-141,-83,11,-71
-2,-94,-91,45,41,-92,17,66,-135,-89,11,-71
4,-88,-91,39,47,-92,17,66,-135,-89,16,-71
4,-94,-97,39,47,-98,22,66,-135,-89,22,-71
9,-88,-97,39,53,-92,17,66,-135,-83,22,-71
9,-88,-97,39,53,-92,17,66,-141,-83,22,-71
9,-88,-97,39,53,-92,17,66,-141,-83,16,-65
9,-94,-103,39,53,-98,17,66,-141,-89,16,-65
9,-94,-103,39,53,-98,17,60,-147,-95,16,-71
9,-94,-103,39,53,-98,17,60,-147,-101,16,-71
14,-100,-115,45,65,-104,17,60,-141,-95,16,-65
14,-100,-115,45,65,-104,17,60,-141,-95,11,-65
14,-100,-115,45,65,-104,12,60,-141,-95,16,-59
14,-100,-115,45,65,-104,12,48,-141,-101,22,-59
9,-106,-115,45,59,-110,12,42,-147,-101,22,-59
9,-100,-109,45,59,-104,12,42,-141,-101,16,-59
9,-100,-109,45,59,-104,6,36,-141,-101,16,-65
9,-106,-115,45,59,-110,6,30,-141,-95,11,-65
14,-106,-121,45,65,-110,6,30,-141,-101,11,-65
14,-112,-127,51,71,-116,6,30,-141,-107,6,-65
20,-112,-133,45,77,-122,6,30,-147,-113,11,-65
20,-112,-133,45,77,-122,0,30,-147,-113,6,-71
20,-112,-133,45,77,-122,6,30,-153,-119,6,-71
20,-112,-133,45,77,-122,0,30,-159,-119,0,-71
14,-112,-127,51,71,-116,0,24,-165,-125,6,-71
9,-106,-115,45,59,-110,6,24,-165,-125,6,-71
9,-106,-115,45,59,-110,0,24,-165,-125,6,-71
9,-106,-115,45,59,-110,0,18,-165,-125,6,-77
4,-118,-121,51,59,-122,-6,18,-165,-125,11,-77
9,-130,-139,57,71,-134,-6,18,-165,-125,6,-77
9,-130,-139,57,71,-134,0,18,-159,-125,6,-77
14,-136,-151,63,83,-140,6,18,-159,-131,0,-77
14,-136,-151,63,83,-140,6,13,-165,-137,-6,-83
14,-136,-151,63,83,-140,0,13,-165,-137,-6,-77
9,-142,-151,63,77,-146,-6,8,-171,-137,-6,-83
9,-136,-145,63,77,-140,-6,2,-171,-143,-6,-83
9,-136,-145,63,77,-140,-12,-4,-171,-149,-12,-83
9,-136,-145,63,77,-140,-12,-4,-171,-155,-12,-89
9,-136,-145,63,77,-140,-12,-4,-171,-149,-6,-83
14,-142,-157,63,83,-146,-12,-4,-165,-149,-12,-83
14,-142,-157,63,83,-146,-12,-10,-165,-149,-12,-83
9,-148,-157,69,83,-152,-12,-10,-165,-149,-12,-83
4,-154,-157,69,77,-158,-12,-22,-171,-149,-18,-89
4,-154,-157,69,77,-158,-12,-22,-171,-155,-18,-89
-2,-154,-151,75,71,-152,-12,-22,-177,-161,-24,-89
-2,-154,-151,75,71,-152,-12,-16,-177,-161,-24,-89
-2,-154,-151,75,71,-152,-12,-22,-183,-161,-24,-89
4,-160,-163,75,83,-164,-12,-22,-183,-161,-24,-89
9,-160,-169,75,89,-164,-12,-28,-177,-167,-24,-95
9,-160,-169,75,89,-164,-12,-34,-177,-167,-24,-95
9,-160,-169,75,89,-164,-6,-34,-171,-167,-24,-95
4,-160,-163,75,83,-164,-6,-34,-177,-173,-24,-95
-2,-166,-163,81,77,-164,-6,-34,-177,-173,-30,-101
-2,-160,-157,81,77,-158,-6,-40,-183,-179,-30,-95
-2,-160,-157,81,77,-158,-18,-40,-183,-185,-36,-95
4,-160,-163,75,83,-164,-24,-40,-189,-185,-42,-95
-2,-160,-157,81,77,-158,-18,-40,-189,-185,-48,-95
-2,-166,-163,81,77,-164,-18,-40,-195,-185,-48,-101
-2,-172,-169,87,83,-170,-18,-46,-195,-185,-48,-101
-8,-172,-163,87,77,-170,-24,-46,-195,-185,-48,-101
-8,-178,-169,87,77,-176,-24,-52,-189,-185,-48,-101
-8,-178,-169,87,77,-176,-24,-52,-195,-185,-48,-101
4,-178,-181,81,89,-182,-24,-58,-195,-185,-48,-101
-2,-178,-175,87,83,-176,-24,-58,-195,-191,-48,-101
-8,-184,-175,93,83,-182,-24,-58,-195,-191,-48,-101
-8,-190,-181,93,83,-188,-18,-58,-189,-185,-42,-101
-14,-190,-175,99,77,-182,-18,-58,-189,-185,-42,-101
-20,-190,-169,99,71,-182,-18,-58,-189,-179,-42,-101
-14,-190,-175,99,77,-182,-24,-64,-189,-179,-42,-107
-14,-184,-169,99,77,-176,-30,-70,-183,-179,-42,-107
-8,-184,-175,93,83,-182,-24,-70,-183,-179,-42,-107
-2,-184,-181,93,89,-182,-24,-76,-189,-179,-48,-113
-2,-190,-187,93,89,-188,-30,-82,-189,-185,-48,-119
-2,-190,-187,93,89,-188,-30,-82,-183,-185,-48,-119
-2,-172,-169,87,83,-170,-30,-82,-177,-185,-48,-119
-2,-172,-169,87,83,-170,-36,-76,-177,-191,-48,-113
4,-166,-169,75,83,-170,-36,-82,-177,-185,-48,-107
9,-154,-163,69,83,-158,-30,-82,-177,-179,-42,-101
9,-136,-145,63,77,-140,-24,-76,-165,-167,-36,-95
9,-118,-127,51,65,-122,-24,-70,-159,-161,-36,-95
4,-106,-109,45,53,-110,-18,-64,-153,-161,-30,-89
9,-88,-97,39,53,-92,-6,-52,-141,-149,-24,-77
9,-76,-85,33,47,-80,0,-52,-129,-143,-18,-71
9,-58,-67,21,35,-62,0,-46,-129,-137,-12,-65
9,-34,-43,9,23,-38,0,-46,-123,-131,-12,-59
14,-22,-37,3,23,-26,6,-52,-129,-125,-12,-59
14,-10,-25,-2,17,-14,12,-52,-123,-119,-6,-53
20,-5,-25,-7,23,-14,17,-46,-111,-107,0,-47
14,-5,-19,-2,17,-9,17,-40,-99,-95,6,-35
20,0,-19,-7,23,-9,22,-34,-99,-89,11,-35
20,0,-19,-7,23,-9,40,-34,-87,-89,11,-35
20,-5,-25,-7,23,-14,46,-28,-81,-83,11,-35
26,-5,-31,-7,29,-14,46,-28,-75,-89,16,-35
32,0,-31,-13,35,-14,40,-22,-69,-83,16,-29
38,12,-25,-19,35,-4,40,-22,-69,-83,22,-29
50,18,-31,-31,41,-4,34,-22,-63,-77,22,-35
56,18,-37,-37,47,-9,22,-22,-63,-83,22,-35
62,18,-43,-37,53,-9,12,-28,-69,-89,16,-35
62,6,-55,-31,59,-20,-6,-34,-75,-89,22,-35
56,0,-55,-25,59,-26,-18,-40,-75,-95,22,-29
56,-5,-61,-25,59,-32,-24,-52,-81,-95,22,-29
56,-5,-61,-25,59,-32,-36,-52,-87,-101,22,-23
56,-5,-61,-25,59,-32,-42,-58,-87,-107,22,-23
44,-10,-55,-19,47,-32,-48,-64,-93,-107,16,-23
32,-28,-61,-2,47,-44,-54,-70,-99,-113,11,-29
20,-52,-73,15,47,-62,-54,-76,-111,-125,0,-35
9,-76,-85,33,47,-80,-54,-88,-129,-137,-18,-47
4,-94,-97,39,47,-98,-54,-94,-141,-155,-24,-53
-2,-112,-109,57,53,-110,-48,-100,-141,-155,-30,-59
-2,-124,-121,63,59,-122,-48,-106,-141,-161,-36,-71
-2,-136,-133,69,65,-134,-48,-112,-141,-173,-48,-83
-2,-148,-145,75,71,-146,-48,-118,-147,-185,-60,-95
-8,-160,-151,81,71,-158,-48,-130,-153,-197,-72,-101
-20,-166,-145,87,59,-158,-54,-136,-159,-203,-78,-101
-20,-166,-145,87,59,-158,-54,-136,-165,-209,-78,-101
-20,-166,-145,87,59,-158,-66,-142,-171,-209,-78,-107
-20,-172,-151,93,65,-164,-72,-148,-177,-215,-78,-113
-26,-172,-145,99,59,-158,-72,-154,-183,-215,-84,-113
-32,-178,-145,99,53,-164,-72,-160,-183,-215,-84,-113
-32,-184,-151,105,59,-170,-78,-160,-183,-221,-90,-113
-32,-190,-157,105,59,-176,-84,-166,-183,-227,-90,-113
-32,-190,-157,105,59,-176,-84,-166,-183,-233,-90,-119
-32,-184,-151,105,59,-170,-84,-160,-177,-233,-90,-119
-32,-172,-139,99,53,-158,-84,-160,-177,-233,-84,-119
-32,-166,-133,93,47,-152,-84,-160,-177,-227,-78,-113
-38,-160,-121,99,41,-140,-84,-160,-171,-221,-72,-113
-38,-154,-115,93,35,-134,-78,-154,-159,-209,-72,-107
-44,-148,-103,93,29,-128,-72,-148,-147,-191,-72,-107
-50,-142,-91,93,17,-116,-60,-136,-135,-185,-72,-113
-62,-130,-67,93,1,-98,-48,-130,-129,-179,-72,-119
-68,-112,-43,87,-11,-80,-36,-118,-111,-167,-78,-119
-80,-100,-19,87,-29,-62,-18,-100,-99,-161,-78,-119
-98,-82,15,87,-59,-32,0,-76,-81,-149,-78,-125
-110,-70,39,87,-77,-14,17,-52,-51,-137,-72,-125
-110,-52,57,81,-83,2,28,-28,-21,-119,-66,-119
-110,-34,75,69,-95,20,40,-4,3,-101,-66,-125
-116,-10,105,57,-113,44,64,24,25,-71,-66,-125
-134,12,147,63,-137,80,88,54,61,-41,-54,-119
-152,30,183,57,-167,104,118,96,103,-5,-42,-119
-158,42,201,57,-179,122,148,138,145,24,-36,-113
-170,54,225,57,-197,140,184,186,193,65,-18,-107
-176,66,243,51,-209,152,220,234,235,95,-6,-101
-182,66,249,57,-215,158,262,288,295,137,6,-95
-176,72,249,51,-209,158,304,354,361,179,16,-95
-176,78,255,45,-215,164,346,426,427,221,28,-89
-176,84,261,45,-215,170,406,516,505,263,40,-89
-176,96,273,39,-221,182,472,600,583,311,52,-83
-170,120,291,27,-227,206,544,696,661,365,64,-71
-164,144,309,9,-233,224,628,792,757,419,82,-59
-164,168,333,-2,-245,248,736,918,877,497,106,-47
-182,186,369,-2,-275,278,874,1056,1003,587,130,-35
-194,210,405,-7,-299,308,1012,1212,1147,695,172,-17
-194,252,447,-25,-317,350,1150,1374,1309,827,226,18
-200,318,519,-61,-359,416,1318,1548,1495,983,298,59
-212,402,615,-97,-413,506,1468,1716,1681,1157,388,113
-206,528,735,-157,-467,632,1570,1842,1849,1337,496,191
-200,690,891,-247,-545,788,1600,1914,1987,1517,622,287
-194,852,1047,-325,-617,950,1582,1926,2095,1697,742,395
-200,996,1197,-397,-695,1094,1516,1860,2137,1841,856,491
-212,1134,1347,-463,-779,1238,1390,1692,2089,1931,946,575
-212,1284,1497,-535,-851,1388,1180,1428,1981,2015,1036,653
-218,1428,1647,-601,-929,1538,904,1074,1801,2075,1120,737
-230,1572,1803,-667,-1013,1688,580,702,1603,2129,1204,803
-236,1662,1899,-715,-1067,1778,280,372,1411,2165,1252,845
-230,1662,1893,-715,-1061,1778,17,102,1219,2141,1264,857
-218,1590,1809,-685,-1013,1700,-216,-112,1027,2069,1240,839
-200,1470,1671,-637,-935,1568,-414,-286,811,1901,1156,797
-200,1296,1497,-547,-845,1394,-582,-448,529,1595,1006,701
-200,1092,1293,-445,-743,1190,-702,-604,211,1193,808,569
-194,858,1053,-331,-623,956,-792,-742,-105,743,574,413
-188,606,795,-211,-491,698,-846,-850,-399,287,316,227
-176,372,549,-97,-359,458,-864,-886,-585,-71,70,41
-158,204,363,-19,-257,284,-870,-880,-669,-287,-90,-95
-140,84,225,27,-179,152,-852,-850,-693,-401,-180,-179
-116,24,141,45,-125,80,-816,-796,-675,-449,-228,-221
-86,-16,69,51,-77,26,-750,-718,-633,-455,-240,-233
-68,-52,15,57,-41,-20,-666,-634,-585,-443,-228,-221
-56,-88,-31,69,-11,-62,-570,-550,-525,-431,-216,-209
-38,-124,-85,81,23,-104,-468,-460,-459,-407,-198,-185
-20,-154,-133,81,53,-146,-372,-376,-387,-371,-168,-161
-14,-172,-157,93,71,-164,-288,-304,-309,-335,-144,-137
-2,-184,-181,93,89,-182,-228,-256,-255,-299,-126,-119
4,-184,-187,87,95,-188,-204,-226,-213,-275,-120,-113
4,-190,-193,87,95,-194,-192,-214,-189,-263,-114,-113
4,-196,-199,93,101,-200,-198,-214,-189,-263,-114,-113
4,-202,-205,93,101,-206,-192,-220,-189,-269,-114,-119
4,-208,-211,99,107,-212,-180,-214,-201,-269,-120,-119
-2,-214,-211,105,101,-212,-168,-214,-207,-269,-120,-113
-8,-220,-211,111,101,-218,-150,-214,-201,-275,-120,-113
-2,-220,-217,111,107,-218,-132,-202,-195,-275,-114,-107
4,-220,-223,105,113,-224,-120,-190,-183,-269,-114,-101
9,-220,-229,105,119,-224,-120,-184,-171,-263,-108,-101
9,-226,-235,105,119,-230,-120,-178,-159,-257,-102,-95
9,-232,-241,111,125,-236,-120,-178,-159,-251,-102,-95
9,-238,-247,111,125,-242,-132,-184,-165,-251,-102,-95
9,-238,-247,111,125,-242,-132,-184,-165,-257,-102,-95
14,-232,-247,111,131,-236,-132,-184,-165,-251,-108,-89
20,-232,-253,105,137,-242,-132,-184,-165,-251,-108,-83
20,-226,-247,99,131,-236,-120,-184,-159,-251,-102,-83
20,-226,-247,99,131,-236,-108,-178,-153,-239,-96,-77
20,-220,-241,99,131,-230,-102,-166,-147,-239,-96,-77
20,-220,-241,99,131,-230,-102,-160,-141,-233,-96,-77
20,-220,-241,99,131,-230,-108,-160,-135,-233,-96,-83
26,-214,-241,93,131,-224,-114,-154,-129,-227,-96,-77
38,-214,-253,87,143,-230,-114,-148,-129,-227,-90,-71
44,-208,-253,81,149,-230,-114,-148,-123,-215,-90,-71
44,-196,-241,75,143,-218,-120,-148,-129,-209,-84,-71
44,-196,-241,75,143,-218,-120,-148,-129,-209,-90,-77
44,-190,-235,69,137,-212,-120,-148,-123,-203,-84,-65
44,-196,-241,75,143,-218,-120,-148,-117,-203,-78,-59
50,-202,-253,75,149,-224,-114,-148,-105,-197,-66,-47
50,-202,-253,75,149,-224,-108,-142,-93,-179,-54,-35
50,-202,-253,75,149,-224,-108,-142,-93,-173,-48,-35
44,-196,-241,75,143,-218,-114,-142,-93,-173,-48,-35
50,-196,-247,75,149,-218,-114,-142,-87,-167,-42,-29
56,-190,-247,63,149,-218,-120,-136,-81,-161,-42,-29
56,-184,-241,63,149,-212,-120,-130,-75,-161,-42,-23
62,-178,-241,57,149,-206,-126,-130,-75,-161,-42,-11
62,-178,-241,57,149,-206,-126,-124,-69,-155,-36,-11
62,-178,-241,57,149,-206,-126,-118,-63,-149,-30,-5
68,-178,-247,51,155,-212,-126,-112,-57,-149,-24,-5
68,-166,-235,45,149,-200,-126,-106,-51,-143,-12,1
68,-160,-229,45,149,-194,-120,-100,-45,-131,-6,7
68,-154,-223,39,143,-188,-114,-94,-39,-137,0,13
68,-154,-223,39,143,-188,-114,-94,-33,-131,6,18
74,-148,-223,39,149,-182,-114,-88,-27,-119,6,23
80,-136,-217,27,149,-176,-114,-88,-21,-113,6,23
86,-136,-223,27,155,-176,-114,-82,-9,-95,11,29
92,-136,-229,21,161,-182,-114,-82,-3,-89,11,29
92,-136,-229,21,161,-182,-114,-76,8,-83,11,41
92,-124,-217,15,155,-170,-114,-64,8,-77,16,47
98,-118,-217,9,155,-164,-120,-58,13,-77,22,53
104,-112,-217,3,161,-164,-126,-52,19,-65,34,65
110,-106,-217,-2,161,-158,-126,-46,31,-59,46,71
116,-100,-217,-7,167,-158,-126,-40,49,-47,58,83
122,-100,-223,-7,173,-158,-126,-22,61,-35,70,89
128,-88,-217,-19,173,-152,-132,-22,79,-23,76,95
140,-76,-217,-31,179,-146,-126,-16,91,-11,82,95
146,-64,-211,-37,179,-134,-120,-4,109,7,94,107
140,-52,-193,-43,167,-122,-108,13,127,24,112,125
140,-34,-175,-55,155,-104,-108,24,145,35,124,137
140,-34,-175,-55,155,-104,-108,36,157,47,130,149
146,-28,-175,-55,161,-98,-108,48,175,65,142,155
158,-16,-175,-67,167,-92,-114,60,187,83,148,161
170,-5,-175,-79,173,-86,-114,66,199,101,160,173
170,6,-163,-85,167,-74,-108,84,217,113,172,179
176,30,-145,-103,161,-56,-102,102,235,137,178,191
176,48,-127,-109,155,-38,-102,120,259,155,190,203
182,60,-121,-115,155,-26,-96,132,277,179,202,215
182,72,-109,-121,149,-14,-90,144,301,197,208,215
188,90,-97,-139,143,-4,-84,156,319,215,220,227
194,102,-91,-145,143,8,-78,168,337,227,232,227
200,114,-85,-157,143,14,-72,174,355,239,238,239
206,132,-73,-163,143,32,-66,186,367,257,250,245
212,144,-67,-175,143,38,-66,198,373,263,262,257
212,162,-49,-187,131,56,-66,210,385,269,268,263
206,168,-37,-181,125,68,-66,222,397,275,268,269
200,180,-19,-187,113,80,-60,228,403,287,274,275
200,192,-9,-193,107,92,-54,234,415,293,274,281
200,198,-3,-199,101,98,-48,240,421,299,280,281
200,198,-3,-199,101,98,-48,234,427,305,280,281
206,204,-3,-199,107,104,-42,228,421,305,280,275
206,216,9,-205,101,116,-42,228,421,305,280,275
200,222,21,-211,89,122,-30,234,427,311,280,275
188,228,39,-205,77,134,-30,246,427,311,280,269
176,228,51,-199,65,140,-24,252,421,305,274,263
182,228,45,-199,71,140,-24,246,415,293,268,257
176,228,51,-199,65,140,-12,246,409,287,262,251
170,228,57,-193,59,146,-6,240,403,281,262,251
164,216,51,-187,59,134,0,234,397,269,256,239
146,210,63,-175,41,140,6,228,391,263,250,233
128,210,81,-169,23,146,6,216,379,257,244,227
122,210,87,-163,17,152,12,210,361,251,238,215
116,210,93,-163,12,152,17,204,349,245,226,209
110,204,93,-151,12,152,22,204,337,239,220,203
98,192,93,-139,7,146,28,198,325,227,208,197
86,180,93,-127,1,140,34,186,313,209,190,185
86,174,87,-127,1,134,28,174,301,191,172,173
80,162,81,-121,1,122,28,168,283,173,160,155
74,156,81,-109,1,122,28,156,271,161,148,143
68,144,75,-103,1,110,28,150,253,143,136,137
