,,,,,,,,,,,
2019-09-04 23:13:19,,,,,,,,,,,
,,,,,,,,,,,
I,II,III,aVR,aVL,aVF,V1,V2,V3,V4,V5,V6
-113,-60,51,87,-82,-2,77,-9,34,-11,35,-368
-113,-54,57,81,-88,4,77,-9,40,-5,35,-374
-113,-48,63,81,-88,10,77,-9,40,-11,35,-374
-107,-42,63,69,-88,10,77,-9,40,-11,35,-374
-107,-42,63,69,-88,10,71,-9,40,-11,29,-368
-113,-42,69,75,-94,15,71,-15,34,-11,29,-356
-107,-36,69,69,-88,15,71,-15,34,-17,23,-338
-113,-30,81,69,-100,26,71,-15,34,-17,23,-326
-119,-36,81,75,-100,20,71,-15,28,-17,23,-314
-113,-42,69,75,-94,15,65,-21,28,-17,23,-308
-107,-42,63,69,-88,10,65,-21,28,-11,29,-302
-107,-42,63,69,-88,10,65,-21,28,-5,35,-290
-107,-48,57,75,-82,4,65,-21,28,-5,35,-278
-107,-54,51,75,-82,-2,65,-21,28,-5,35,-272
-107,-48,57,75,-82,4,71,-15,28,-11,35,-272
-107,-42,63,69,-88,10,77,-9,28,-11,35,-272
-107,-36,69,69,-88,15,77,-9,28,-11,29,-272
-107,-30,75,63,-94,20,71,-9,28,-11,23,-272
-113,-30,81,69,-100,26,71,-9,28,-11,18,-278
-119,-36,81,75,-100,20,71,-9,28,-11,18,-284
-119,-42,75,75,-100,15,71,-3,28,-11,18,-284
-113,-36,75,75,-94,20,77,-3,34,-5,18,-278
-113,-36,75,75,-94,20,77,-9,40,-5,18,-272
-107,-36,69,69,-88,15,77,-15,40,-5,18,-272
-101,-30,69,63,-88,20,77,-9,40,-5,23,-272
-101,-24,75,63,-88,26,77,-9,40,-5,23,-266
-101,-18,81,57,-94,32,77,-9,40,-5,23,-266
-107,-18,87,57,-100,32,77,-3,40,-5,23,-266
-113,-30,81,69,-100,26,71,-3,40,-5,23,-272
-101,-24,75,63,-88,26,71,-9,34,0,18,-272
-101,-24,75,63,-88,26,71,-3,40,5,23,-260
-101,-30,69,63,-88,20,71,-3,34,5,18,-260
-101,-30,69,63,-88,20,65,-3,34,0,18,-260
-101,-24,75,63,-88,26,65,-3,34,0,13,-260
-95,-18,75,51,-88,26,65,3,40,0,18,-260
-101,-24,75,63,-88,26,65,-3,40,0,13,-260
-95,-30,63,57,-82,15,59,-3,40,0,18,-254
-89,-36,51,63,-70,10,59,-3,40,0,23,-254
-89,-42,45,63,-70,4,59,-15,34,0,23,-254
-89,-48,39,69,-64,-2,59,-15,34,0,23,-260
-83,-42,39,57,-64,-2,59,-15,34,0,23,-254
-89,-36,51,63,-70,10,59,-9,34,0,23,-254
-89,-30,57,57,-76,15,53,-3,34,5,29,-254
-95,-24,69,57,-82,20,59,-3,40,5,23,-248
-101,-24,75,63,-88,26,59,-9,40,5,23,-248
-113,-30,81,69,-100,26,65,-15,40,0,23,-248
-113,-30,81,69,-100,26,65,-15,40,0,18,-248
-101,-30,69,63,-88,20,59,-21,34,-5,13,-254
-95,-42,51,63,-76,4,59,-21,34,-5,13,-260
-95,-48,45,69,-70,-2,59,-15,40,0,13,-266
-95,-48,45,69,-70,-2,59,-15,34,0,13,-266
-95,-48,45,69,-70,-2,59,-15,28,-5,13,-266
-101,-48,51,75,-76,4,59,-21,28,-5,13,-266
-107,-42,63,69,-88,10,65,-21,28,-5,13,-266
-113,-42,69,75,-94,15,59,-27,28,-5,13,-266
-113,-42,69,75,-94,15,59,-27,28,-5,13,-260
-113,-36,75,75,-94,20,59,-27,28,-5,13,-254
-107,-36,69,69,-88,15,53,-27,28,-5,13,-248
-101,-42,57,69,-82,10,53,-21,28,-5,13,-248
-101,-42,57,69,-82,10,53,-21,28,-5,13,-254
-95,-42,51,63,-76,4,53,-21,28,-5,13,-260
-101,-42,57,69,-82,10,53,-21,28,-5,13,-266
-107,-42,63,69,-88,10,53,-27,22,-11,7,-272
-113,-42,69,75,-94,15,59,-27,22,-11,7,-272
-119,-36,81,75,-100,20,59,-21,28,-5,13,-260
-125,-36,87,81,-106,26,53,-27,22,-5,13,-254
-119,-36,81,75,-100,20,53,-33,22,-11,7,-248
-119,-30,87,69,-106,26,53,-27,22,-11,7,-248
-119,-30,87,69,-106,26,53,-27,22,-11,7,-242
-113,-30,81,69,-100,26,59,-27,22,-11,7,-248
-113,-30,81,69,-100,26,53,-33,22,-17,1,-254
-107,-30,75,63,-94,20,53,-33,22,-17,1,-254
-101,-24,75,63,-88,26,59,-33,22,-17,1,-254
-101,-24,75,63,-88,26,59,-27,28,-17,1,-248
-101,-24,75,63,-88,26,59,-27,28,-11,7,-248
-101,-30,69,63,-88,20,59,-33,22,-11,7,-248
-101,-24,75,63,-88,26,59,-33,22,-11,13,-248
-107,-30,75,63,-94,20,59,-33,22,-17,13,-248
-113,-36,75,75,-94,20,59,-33,22,-17,13,-260
-119,-42,75,75,-100,15,65,-27,22,-11,18,-260
-113,-42,69,75,-94,15,65,-33,16,-17,13,-272
-107,-36,69,69,-88,15,59,-33,16,-17,13,-278
-95,-30,63,57,-82,15,59,-33,10,-23,7,-266
-95,-30,63,57,-82,15,59,-33,10,-23,1,-260
-101,-30,69,63,-88,20,59,-33,10,-23,1,-254
-107,-36,69,69,-88,15,53,-39,4,-29,1,-248
-119,-42,75,75,-100,15,53,-39,4,-23,1,-248
-125,-36,87,81,-106,26,47,-33,10,-23,1,-248
-125,-30,93,75,-112,32,47,-33,10,-23,1,-254
-125,-30,93,75,-112,32,47,-33,4,-29,-5,-266
-125,-24,99,75,-112,38,53,-33,4,-29,-11,-278
-119,-24,93,69,-106,32,53,-27,10,-29,-11,-278
-113,-24,87,69,-100,32,59,-27,4,-29,-11,-284
-107,-30,75,63,-94,20,53,-33,4,-29,-11,-272
-113,-30,81,69,-100,26,53,-33,4,-23,-5,-260
-113,-24,87,69,-100,32,59,-39,4,-23,-5,-254
-113,-30,81,69,-100,26,59,-39,4,-23,-5,-260
-119,-30,87,69,-106,26,59,-39,4,-29,-5,-260
-125,-30,93,75,-112,32,59,-39,10,-29,-5,-266
-119,-36,81,75,-100,20,53,-44,4,-29,-11,-278
-119,-30,87,69,-106,26,53,-39,4,-35,-11,-284
-113,-30,81,69,-100,26,53,-39,4,-35,-11,-278
-113,-30,81,69,-100,26,53,-33,4,-35,-11,-272
-107,-24,81,63,-94,26,47,-33,-2,-29,-11,-260
-107,-24,81,63,-94,26,47,-39,-2,-29,-11,-248
-107,-30,75,63,-94,20,53,-44,-2,-29,-5,-230
-107,-30,75,63,-94,20,53,-44,-2,-29,-5,-224
-113,-24,87,69,-100,32,53,-44,-2,-29,-5,-224
-119,-24,93,69,-106,32,59,-39,4,-29,-5,-224
-119,-30,87,69,-106,26,59,-39,4,-29,1,-230
-119,-24,93,69,-106,32,59,-44,4,-29,7,-236
-119,-30,87,69,-106,26,59,-44,4,-29,7,-236
-119,-30,87,69,-106,26,53,-44,-2,-29,1,-236
-119,-36,81,75,-100,20,53,-44,-2,-29,1,-230
-113,-42,69,75,-94,15,53,-44,-2,-29,1,-230
-113,-42,69,75,-94,15,53,-44,-8,-35,-5,-224
-113,-36,75,75,-94,20,47,-49,-8,-41,-5,-218
-113,-36,75,75,-94,20,47,-49,-8,-41,-5,-224
-119,-30,87,69,-106,26,47,-49,-8,-41,-11,-224
-113,-24,87,69,-100,32,47,-44,-8,-41,-11,-230
-107,-24,81,63,-94,26,47,-44,-8,-41,-11,-236
-113,-24,87,69,-100,32,53,-44,-8,-41,-11,-236
-107,-24,81,63,-94,26,53,-44,-8,-41,-17,-236
-113,-24,87,69,-100,32,53,-44,-8,-35,-17,-230
-113,-24,87,69,-100,32,47,-44,-14,-35,-17,-224
-107,-18,87,57,-100,32,47,-44,-8,-35,-11,-218
-101,-18,81,57,-94,32,53,-39,-8,-35,-5,-212
-101,-24,75,63,-88,26,59,-39,-8,-35,-5,-212
-113,-36,75,75,-94,20,59,-39,-8,-41,-5,-212
-107,-30,75,63,-94,20,59,-44,-8,-41,-5,-206
-107,-36,69,69,-88,15,59,-44,-8,-41,-5,-212
-113,-42,69,75,-94,15,53,-49,-8,-47,-11,-206
-113,-36,75,75,-94,20,59,-44,-2,-41,-11,-200
-113,-30,81,69,-100,26,53,-44,-2,-35,-11,-200
-125,-30,93,75,-112,32,53,-44,4,-35,-17,-200
-125,-30,93,75,-112,32,53,-39,4,-35,-17,-200
-131,-30,99,75,-118,32,53,-44,-2,-35,-17,-200
-131,-36,93,81,-112,26,47,-44,-8,-41,-17,-206
-125,-24,99,75,-112,38,47,-49,-8,-41,-17,-206
-113,-18,93,63,-106,38,53,-44,-8,-41,-11,-206
-107,-24,81,63,-94,26,47,-49,-14,-41,-11,-206
-107,-24,81,63,-94,26,47,-49,-14,-41,-11,-200
-113,-30,81,69,-100,26,47,-49,-8,-35,-11,-194
-113,-36,75,75,-94,20,47,-49,-8,-41,-17,-194
-113,-30,81,69,-100,26,47,-49,-8,-41,-17,-188
-119,-24,93,69,-106,32,47,-49,-8,-41,-17,-188
-119,-24,93,69,-106,32,47,-44,-2,-41,-11,-188
-119,-18,99,63,-112,38,47,-44,-2,-41,-11,-182
-113,-18,93,63,-106,38,47,-44,-8,-41,-5,-182
-113,-24,87,69,-100,32,47,-44,-8,-41,-5,-176
-119,-24,93,69,-106,32,41,-44,-14,-41,-5,-176
-119,-24,93,69,-106,32,47,-44,-14,-47,-11,-176
-125,-18,105,69,-118,44,47,-44,-8,-47,-11,-176
-119,-24,93,69,-106,32,41,-49,-14,-53,-11,-176
-113,-18,93,63,-106,38,47,-49,-14,-53,-17,-176
-107,-18,87,57,-100,32,47,-55,-8,-53,-17,-176
-113,-24,87,69,-100,32,47,-49,-8,-47,-11,-170
-113,-30,81,69,-100,26,47,-49,-8,-47,-11,-170
-113,-36,75,75,-94,20,47,-49,-8,-47,-11,-176
-125,-42,81,81,-106,20,47,-49,-14,-47,-11,-176
-131,-42,87,81,-112,20,47,-49,-14,-47,-11,-176
-131,-36,93,81,-112,26,41,-49,-20,-47,-17,-176
-131,-36,93,81,-112,26,41,-49,-20,-53,-23,-176
-131,-36,93,81,-112,26,35,-55,-25,-59,-29,-176
-131,-42,87,81,-112,20,35,-55,-25,-59,-29,-176
-131,-36,93,81,-112,26,35,-55,-25,-59,-23,-170
-125,-36,87,81,-106,26,35,-55,-25,-59,-23,-170
-125,-36,87,81,-106,26,35,-55,-25,-65,-29,-170
-125,-36,87,81,-106,26,35,-49,-20,-65,-29,-170
-119,-30,87,69,-106,26,41,-49,-20,-59,-35,-176
-125,-30,93,75,-112,32,41,-44,-20,-59,-35,-176
-125,-30,93,75,-112,32,41,-49,-25,-65,-35,-176
-119,-30,87,69,-106,26,41,-49,-25,-65,-35,-176
-113,-30,81,69,-100,26,47,-44,-20,-59,-29,-170
-119,-24,93,69,-106,32,47,-44,-20,-59,-23,-158
-119,-24,93,69,-106,32,47,-44,-20,-59,-23,-158
-113,-24,87,69,-100,32,47,-39,-20,-59,-23,-158
-107,-24,81,63,-94,26,41,-44,-20,-53,-23,-158
-101,-30,69,63,-88,20,47,-44,-14,-53,-23,-158
-101,-30,69,63,-88,20,35,-44,-20,-53,-23,-164
-107,-30,75,63,-94,20,41,-49,-20,-53,-29,-176
-113,-30,81,69,-100,26,41,-49,-20,-53,-23,-182
-113,-24,87,69,-100,32,41,-49,-20,-53,-23,-176
-119,-24,93,69,-106,32,41,-49,-20,-53,-17,-176
-119,-24,93,69,-106,32,35,-49,-20,-53,-17,-170
-125,-30,93,75,-112,32,35,-49,-20,-53,-23,-170
-119,-30,87,69,-106,26,35,-49,-20,-53,-23,-170
-113,-30,81,69,-100,26,35,-55,-25,-59,-29,-176
-113,-30,81,69,-100,26,35,-55,-25,-65,-35,-182
-107,-30,75,63,-94,20,29,-55,-25,-65,-41,-188
-101,-24,75,63,-88,26,29,-49,-25,-65,-41,-182
-101,-12,87,57,-94,38,35,-44,-25,-65,-35,-182
-101,-6,93,51,-100,44,41,-44,-20,-59,-35,-176
-95,0,93,45,-94,44,47,-44,-20,-53,-29,-170
-89,11,99,39,-94,56,53,-33,-8,-41,-23,-158
-89,11,99,39,-94,56,59,-21,4,-29,-17,-152
-83,16,99,33,-88,56,65,-15,10,-23,-17,-152
-77,22,99,27,-88,62,71,-15,10,-23,-11,-140
-59,28,87,15,-70,56,77,-9,16,-23,-11,-134
-53,34,87,9,-70,62,83,-3,22,-23,-11,-128
-47,28,75,9,-58,50,83,-3,28,-17,-5,-128
-41,34,75,3,-58,56,89,3,34,-17,-5,-128
-35,46,81,-7,-58,62,95,15,40,-11,1,-122
-29,52,81,-7,-52,68,95,27,40,-5,1,-116
-17,64,81,-19,-46,74,95,33,46,0,7,-104
-6,76,81,-31,-40,80,95,45,58,5,13,-86
5,94,87,-49,-40,92,101,63,76,29,18,-62
17,106,87,-61,-34,98,107,81,94,41,35,-44
23,118,93,-67,-34,110,107,87,106,53,47,-32
23,112,87,-61,-28,104,101,99,112,65,53,-20
23,124,99,-67,-34,116,107,111,124,77,65,-8
23,136,111,-73,-40,128,107,111,130,83,77,-2
23,142,117,-79,-46,134,101,117,130,89,83,3
23,142,117,-79,-46,134,89,111,130,83,83,8
29,148,117,-85,-40,134,77,111,130,83,83,14
29,142,111,-85,-40,128,65,105,124,83,83,14
35,142,105,-85,-34,128,53,93,112,71,77,14
29,130,99,-79,-34,116,47,81,106,65,71,8
11,112,99,-55,-40,110,41,69,94,59,65,3
5,94,87,-49,-40,92,41,57,82,47,53,-8
-1,76,75,-31,-34,80,29,39,64,35,35,-20
-1,64,63,-25,-28,68,23,27,46,11,23,-32
-1,52,51,-19,-22,56,17,9,34,0,13,-44
-6,34,39,-13,-22,38,11,-3,16,-17,-5,-56
-17,22,39,-2,-28,32,5,-21,-2,-29,-17,-62
-23,11,33,3,-28,20,-1,-27,-14,-41,-29,-68
-29,6,33,9,-34,20,-1,-27,-25,-47,-41,-80
-41,6,45,15,-46,26,5,-27,-25,-53,-41,-86
-53,0,51,27,-52,26,11,-21,-20,-53,-47,-86
-59,6,63,21,-64,32,17,-21,-14,-53,-47,-86
-59,11,69,21,-64,38,23,-9,-8,-41,-47,-86
-65,11,75,27,-70,44,29,3,4,-41,-41,-86
-71,0,69,33,-70,32,35,9,16,-35,-41,-92
-71,-6,63,33,-70,26,41,27,28,-29,-35,-92
-71,0,69,33,-70,32,47,45,40,-17,-29,-86
-65,0,63,33,-64,32,47,57,52,-11,-23,-86
-59,-6,51,27,-58,20,41,69,58,-5,-17,-86
-53,0,51,27,-52,26,41,81,64,0,-5,-86
-53,0,51,27,-52,26,41,93,76,5,1,-74
-53,11,63,21,-58,38,41,111,88,17,13,-68
-47,11,57,15,-52,32,29,117,100,29,18,-68
-29,16,45,9,-34,32,17,123,112,47,23,-62
-23,22,45,-2,-34,32,-1,135,124,53,35,-62
-11,16,27,-2,-16,20,-23,141,130,65,41,-56
-1,16,16,-2,-6,20,-53,141,142,77,53,-50
17,22,5,-19,6,15,-83,153,160,89,65,-44
35,28,-7,-25,24,15,-125,165,172,101,71,-44
59,28,-31,-37,48,4,-167,171,184,113,83,-38
83,34,-49,-55,66,-2,-221,165,184,119,83,-38
107,34,-73,-67,90,-14,-275,159,190,131,89,-32
125,34,-91,-79,108,-26,-323,153,202,143,101,-26
149,34,-115,-91,132,-38,-365,141,202,149,107,-20
179,22,-157,-97,168,-62,-413,123,190,155,119,-14
197,11,-187,-103,192,-86,-455,99,184,155,125,-8
227,6,-223,-115,222,-104,-497,69,172,161,131,-2
239,-6,-247,-115,240,-122,-539,33,154,161,131,-2
251,-24,-277,-109,264,-146,-581,3,142,161,137,3
275,-30,-307,-121,288,-164,-617,-44,124,161,143,3
299,-42,-343,-127,318,-188,-653,-97,88,155,137,-2
323,-48,-373,-133,348,-206,-677,-151,64,155,137,-8
335,-54,-391,-139,360,-218,-695,-187,40,155,137,-2
335,-60,-397,-133,366,-224,-707,-211,28,155,143,3
359,-60,-421,-145,390,-236,-737,-247,10,149,143,8
377,-72,-451,-151,414,-260,-761,-283,-8,149,149,14
395,-78,-475,-157,432,-272,-791,-325,-25,149,155,26
437,-72,-511,-181,474,-290,-821,-361,-36,155,167,38
473,-66,-541,-205,504,-302,-863,-409,-60,161,179,56
509,-66,-577,-223,540,-320,-905,-481,-96,155,185,74
551,-66,-619,-241,582,-338,-953,-559,-138,155,203,98
605,-66,-673,-271,636,-368,-1007,-655,-186,155,221,128
665,-60,-727,-301,696,-392,-1073,-757,-246,155,239,158
737,-60,-799,-337,768,-428,-1157,-859,-306,161,263,194
821,-72,-895,-373,858,-482,-1253,-973,-384,155,287,218
929,-78,-1009,-427,966,-542,-1361,-1099,-468,143,305,248
1049,-90,-1141,-481,1092,-614,-1481,-1231,-564,125,323,284
1193,-90,-1285,-553,1236,-686,-1595,-1357,-648,125,365,338
1337,-78,-1417,-631,1374,-746,-1697,-1459,-714,149,425,416
1487,-60,-1549,-709,1518,-800,-1787,-1549,-768,179,497,512
1643,-36,-1681,-799,1662,-854,-1853,-1609,-804,215,575,614
1781,0,-1783,-889,1782,-890,-1907,-1663,-828,257,659,728
1919,40,-1879,-973,1902,-914,-1949,-1699,-852,293,737,842
2015,76,-1939,-1039,1980,-926,-1961,-1711,-858,335,815,950
2087,112,-1975,-1093,2034,-926,-1961,-1699,-846,377,893,1052
2129,148,-1981,-1135,2058,-914,-1943,-1669,-828,413,947,1136
2141,166,-1975,-1153,2058,-902,-1907,-1621,-810,431,977,1190
2123,160,-1963,-1135,2046,-896,-1841,-1567,-798,413,959,1196
2045,136,-1909,-1087,1980,-884,-1745,-1501,-804,341,869,1148
1925,106,-1819,-1015,1872,-854,-1619,-1429,-804,239,737,1064
1763,88,-1675,-919,1722,-788,-1463,-1333,-786,137,599,956
1559,64,-1495,-805,1530,-710,-1289,-1225,-756,35,461,842
1355,40,-1315,-691,1338,-632,-1121,-1117,-720,-53,323,716
1169,28,-1141,-595,1158,-554,-971,-1003,-672,-119,203,590
983,16,-967,-493,978,-470,-833,-895,-630,-173,107,470
809,0,-811,-403,810,-404,-713,-793,-588,-209,29,350
659,-12,-673,-319,666,-338,-617,-697,-534,-227,-17,260
539,-12,-553,-259,546,-278,-527,-601,-474,-221,-41,194
449,-18,-469,-217,456,-242,-431,-505,-408,-209,-59,146
365,-18,-385,-175,372,-200,-347,-421,-336,-191,-71,104
299,-12,-313,-139,306,-158,-263,-349,-264,-173,-77,80
227,-18,-247,-103,234,-128,-191,-283,-216,-149,-83,62
167,-18,-187,-73,174,-98,-119,-235,-174,-131,-83,44
113,-30,-145,-43,126,-86,-77,-205,-150,-125,-89,20
65,-42,-109,-13,84,-74,-47,-175,-138,-119,-95,-2
23,-42,-67,9,42,-50,-23,-145,-120,-119,-101,-26
-11,-36,-25,21,6,-32,-6,-109,-108,-113,-101,-44
-41,-30,11,33,-28,-8,11,-85,-90,-101,-101,-56
-59,-36,21,45,-40,-8,29,-61,-78,-101,-107,-62
-83,-42,39,57,-64,-2,41,-44,-60,-101,-113,-68
-101,-48,51,75,-76,4,71,-39,-48,-95,-113,-74
-113,-54,57,81,-88,4,95,-27,-36,-95,-119,-68
-125,-48,75,87,-100,15,113,-21,-36,-95,-125,-68
-143,-48,93,93,-118,20,131,-15,-30,-95,-125,-68
-149,-48,99,99,-124,26,137,-15,-25,-89,-125,-74
-155,-48,105,99,-130,26,143,-3,-20,-89,-125,-80
-161,-48,111,105,-136,32,149,9,-14,-89,-119,-86
-173,-42,129,105,-154,44,149,21,-8,-83,-119,-98
-185,-42,141,111,-166,50,161,33,4,-77,-113,-104
-185,-48,135,117,-160,44,167,45,10,-77,-113,-110
-191,-54,135,117,-166,38,173,45,16,-77,-119,-116
-197,-48,147,123,-172,50,185,51,16,-77,-119,-116
-203,-48,153,123,-178,50,191,57,16,-77,-113,-116
-209,-48,159,129,-184,56,197,57,22,-77,-119,-116
-203,-48,153,123,-178,50,203,57,22,-77,-113,-116
-209,-54,153,129,-184,50,209,69,28,-77,-113,-116
-215,-54,159,129,-190,50,209,75,34,-77,-113,-116
-209,-54,153,129,-184,50,209,81,28,-71,-113,-116
-203,-48,153,123,-178,50,209,81,28,-71,-113,-116
-197,-48,147,123,-172,50,215,93,22,-65,-113,-110
-203,-48,153,123,-178,50,221,93,22,-65,-113,-116
-209,-48,159,129,-184,56,227,93,16,-59,-113,-122
-215,-54,159,129,-190,50,227,99,16,-59,-119,-128
-221,-54,165,135,-196,56,227,105,22,-65,-113,-128
-221,-54,165,135,-196,56,233,105,22,-65,-113,-128
-221,-54,165,135,-196,56,233,111,28,-65,-113,-128
-227,-54,171,135,-202,56,233,117,28,-65,-113,-134
-221,-48,171,135,-196,62,239,123,40,-65,-119,-134
-215,-42,171,123,-196,62,239,123,46,-59,-119,-134
-221,-36,183,129,-202,74,245,135,52,-53,-119,-128
-221,-36,183,129,-202,74,245,135,52,-59,-119,-134
-221,-36,183,129,-202,74,245,141,52,-53,-119,-134
-221,-36,183,129,-202,74,251,147,52,-53,-119,-134
-215,-30,183,117,-202,74,257,153,58,-47,-119,-134
-221,-30,189,123,-208,80,257,159,58,-47,-119,-140
-215,-24,189,117,-202,80,263,165,64,-47,-119,-140
-215,-18,195,111,-208,86,263,177,64,-41,-113,-140
-215,-18,195,111,-208,86,269,183,70,-41,-113,-128
-215,-18,195,111,-208,86,275,189,76,-35,-113,-116
-215,-18,195,111,-208,86,275,195,82,-29,-107,-104
-227,-24,201,123,-214,86,281,201,94,-23,-101,-92
-239,-36,201,135,-220,80,281,201,94,-23,-101,-86
-245,-36,207,141,-226,86,287,207,100,-23,-95,-80
-251,-30,219,135,-238,92,293,213,100,-23,-95,-74
-239,-24,213,129,-226,92,299,213,106,-17,-89,-74
-233,-18,213,123,-226,98,305,219,112,-17,-89,-74
-233,-12,219,123,-226,104,305,219,112,-11,-83,-80
-227,0,225,111,-226,110,311,231,118,-5,-83,-80
-227,6,231,105,-232,116,317,231,124,-5,-83,-86
-227,11,237,105,-232,122,323,243,130,0,-89,-86
-233,11,243,111,-238,128,329,249,136,0,-89,-86
-227,11,237,105,-232,122,335,261,142,0,-95,-86
-233,6,237,111,-238,122,335,261,148,0,-95,-92
-233,11,243,111,-238,128,347,267,148,0,-89,-92
-233,11,243,111,-238,128,359,273,154,0,-89,-92
-227,11,237,105,-232,122,359,279,160,0,-89,-92
-227,16,243,105,-232,128,365,285,166,5,-83,-92
-233,16,249,111,-238,134,365,297,172,11,-83,-92
-239,11,249,111,-244,128,371,315,178,17,-83,-92
-251,16,267,117,-256,140,383,327,184,17,-83,-86
-251,16,267,117,-256,140,389,339,196,23,-77,-86
-245,28,273,111,-256,152,395,351,208,29,-77,-92
-239,34,273,99,-256,152,401,357,214,35,-71,-98
-239,28,267,105,-250,146,395,369,220,41,-65,-98
-245,28,273,111,-256,152,401,375,226,47,-65,-104
-245,28,273,111,-256,152,407,381,232,47,-59,-104
-239,40,279,99,-256,158,413,393,238,53,-59,-104
-239,46,285,93,-262,164,413,405,238,53,-59,-104
-239,52,291,93,-262,170,419,417,250,59,-53,-104
-239,58,297,87,-268,176,425,429,262,65,-53,-104
-233,58,291,87,-262,176,425,441,274,71,-47,-98
-233,58,291,87,-262,176,425,447,286,77,-47,-92
-233,58,291,87,-262,176,431,447,292,77,-47,-98
-233,58,291,87,-262,176,431,453,298,83,-41,-98
-221,64,285,81,-250,176,431,459,310,89,-29,-98
-215,70,285,69,-250,176,431,471,316,95,-23,-98
-209,70,279,69,-244,176,425,471,316,101,-23,-92
-203,76,279,63,-238,176,419,471,322,107,-23,-92
-209,82,291,63,-250,188,419,483,322,107,-17,-86
-203,88,291,57,-244,188,419,489,334,119,-11,-80
-197,88,285,57,-238,188,413,489,340,125,-5,-74
-191,88,279,51,-232,182,407,489,340,125,1,-68
-173,100,273,39,-220,188,401,489,346,131,7,-68
-167,100,267,33,-214,182,389,483,346,131,7,-68
-161,100,261,33,-208,182,383,483,346,131,1,-62
-143,112,255,15,-196,182,377,483,352,137,1,-56
-137,118,255,9,-196,188,365,477,346,137,7,-56
-137,112,249,15,-190,182,347,471,340,143,7,-50
-125,112,237,9,-178,176,335,471,340,143,13,-44
-119,112,231,3,-172,170,323,465,334,137,13,-44
-113,106,219,3,-166,164,317,453,328,131,13,-44
-107,100,207,3,-154,152,305,441,322,125,7,-44
-95,100,195,-2,-142,146,299,423,316,119,7,-50
-77,106,183,-13,-130,146,287,411,310,119,7,-44
-65,106,171,-19,-118,140,281,393,304,119,7,-38
-53,106,159,-25,-106,134,263,381,292,119,7,-32
-35,112,147,-37,-88,128,245,363,280,119,7,-32
-29,106,135,-37,-82,122,227,345,268,113,7,-26
-29,106,135,-37,-82,122,215,333,256,113,7,-20
-23,106,129,-43,-76,116,203,315,244,101,7,-20
-11,106,117,-49,-64,110,185,291,226,89,1,-20
-6,100,105,-43,-52,104,173,273,214,77,-5,-26
-6,94,99,-43,-52,98,167,249,196,71,-11,-26
-1,94,93,-43,-46,98,155,231,178,65,-11,-20
11,88,75,-43,-28,86,143,207,166,59,-17,-8
17,88,69,-49,-22,80,131,189,154,53,-17,3
17,82,63,-49,-22,74,119,171,142,47,-17,8
17,88,69,-49,-22,80,107,159,130,41,-17,14
23,82,57,-49,-16,74,101,141,118,35,-23,20
23,76,51,-43,-11,68,95,123,106,29,-23,26
35,70,33,-49,0,56,89,105,94,23,-23,26
29,64,33,-43,0,50,83,93,82,11,-29,26
23,58,33,-37,-6,50,77,75,70,5,-29,26
23,58,33,-37,-6,50,71,63,64,0,-35,26
11,46,33,-25,-11,44,65,51,52,0,-41,26
-1,28,27,-7,-11,32,65,39,40,-5,-53,26
-6,22,27,-7,-16,26,65,33,40,-5,-53,32
-11,16,27,-2,-16,20,65,27,34,-5,-53,38
-17,16,33,3,-22,26,65,21,28,-11,-53,44
-17,16,33,3,-22,26,65,15,22,-11,-53,44
-29,22,51,3,-40,38,65,9,16,-17,-53,50
-35,11,45,9,-40,26,59,3,10,-23,-59,44
-35,11,45,9,-40,26,59,3,4,-29,-65,38
-41,11,51,15,-46,32,65,3,-2,-29,-65,32
-47,11,57,15,-52,32,65,-3,-2,-29,-65,32
-53,0,51,27,-52,26,65,-3,-2,-29,-59,26
-65,-6,57,33,-64,26,71,-9,-2,-29,-59,26
-77,-12,63,45,-70,26,71,-9,-2,-35,-59,26
-71,-6,63,33,-70,26,71,-9,-8,-35,-65,20
-71,-6,63,33,-70,26,71,-15,-14,-41,-65,14
-71,0,69,33,-70,32,71,-15,-20,-47,-77,3
-77,-6,69,39,-76,32,71,-21,-25,-47,-83,3
-77,-12,63,45,-70,26,65,-21,-25,-41,-83,-2
-77,-18,57,45,-70,20,59,-27,-25,-41,-83,-2
-77,-18,57,45,-70,20,59,-27,-30,-47,-89,-2
-83,-18,63,45,-76,20,59,-33,-30,-41,-89,-2
-95,-6,87,45,-94,38,65,-33,-30,-41,-89,-2
-95,-6,87,45,-94,38,65,-33,-30,-41,-89,-2
-83,-12,69,45,-76,26,65,-33,-30,-41,-89,-2
-83,-18,63,45,-76,20,65,-33,-30,-41,-95,-2
-89,-30,57,57,-76,15,71,-33,-30,-41,-89,3
-89,-36,51,63,-70,10,71,-39,-30,-41,-89,-2
-89,-36,51,63,-70,10,65,-39,-30,-47,-89,-2
-101,-36,63,69,-82,15,59,-39,-30,-47,-95,-8
-107,-30,75,63,-94,20,59,-39,-30,-47,-95,-14
-107,-24,81,63,-94,26,59,-39,-30,-47,-101,-14
-101,-18,81,57,-94,32,59,-39,-30,-47,-101,-14
-101,-18,81,57,-94,32,59,-39,-36,-47,-107,-20
-101,-24,75,63,-88,26,59,-39,-36,-47,-107,-20
-95,-30,63,57,-82,15,59,-39,-36,-53,-107,-14
-83,-30,51,51,-70,10,53,-39,-36,-53,-107,-20
-83,-30,51,51,-70,10,59,-39,-36,-59,-107,-14
-83,-30,51,51,-70,10,59,-39,-36,-59,-113,-14
-89,-30,57,57,-76,15,59,-39,-36,-53,-113,-14
-95,-36,57,63,-76,10,53,-39,-36,-59,-113,-20
-101,-36,63,69,-82,15,53,-39,-42,-59,-119,-20
-107,-30,75,63,-94,20,59,-44,-42,-59,-119,-26
-107,-30,75,63,-94,20,59,-44,-42,-59,-113,-26
-107,-30,75,63,-94,20,65,-39,-36,-53,-107,-20
-101,-24,75,63,-88,26,71,-39,-36,-53,-107,-14
-101,-30,69,63,-88,20,71,-39,-42,-53,-113,-14
-95,-36,57,63,-76,10,71,-39,-42,-53,-113,-14
-95,-42,51,63,-76,4,71,-39,-42,-53,-113,-8
-101,-42,57,69,-82,10,71,-33,-42,-53,-113,-8
-101,-42,57,69,-82,10,65,-33,-42,-53,-113,-8
-101,-36,63,69,-82,15,65,-33,-42,-53,-113,-8
-101,-30,69,63,-88,20,65,-33,-36,-53,-107,-2
-101,-30,69,63,-88,20,65,-33,-36,-47,-95,-2
-101,-30,69,63,-88,20,65,-33,-30,-41,-89,-2
-101,-30,69,63,-88,20,71,-33,-30,-41,-89,3
-101,-36,63,69,-82,15,65,-33,-30,-47,-95,3
-101,-42,57,69,-82,10,71,-33,-30,-47,-101,-2
-95,-36,57,63,-76,10,71,-33,-30,-53,-101,3
-95,-30,63,57,-82,15,71,-33,-30,-47,-95,3
-101,-30,69,63,-88,20,65,-39,-30,-47,-95,-2
-101,-24,75,63,-88,26,65,-39,-30,-47,-101,-8
-95,-24,69,57,-82,20,65,-39,-25,-41,-101,-20
-95,-24,69,57,-82,20,59,-39,-25,-41,-95,-26
-95,-36,57,63,-76,10,65,-33,-25,-41,-95,-26
-101,-30,69,63,-88,20,65,-27,-25,-41,-95,-26
-95,-24,69,57,-82,20,71,-27,-20,-41,-95,-20
-89,-24,63,57,-76,20,71,-27,-20,-47,-101,-20
-89,-18,69,51,-82,26,71,-21,-20,-47,-101,-20
-89,-24,63,57,-76,20,65,-21,-20,-47,-107,-14
-89,-18,69,51,-82,26,71,-21,-20,-41,-101,-14
-95,-24,69,57,-82,20,65,-21,-20,-41,-101,-14
-89,-18,69,51,-82,26,65,-27,-20,-41,-101,-14
-95,-24,69,57,-82,20,59,-27,-25,-41,-95,-14
-95,-30,63,57,-82,15,59,-27,-25,-41,-95,-20
-101,-36,63,69,-82,15,59,-27,-25,-41,-95,-14
-95,-36,57,63,-76,10,59,-27,-25,-35,-89,-14
-89,-30,57,57,-76,15,65,-21,-25,-35,-83,-14
-95,-24,69,57,-82,20,65,-21,-20,-35,-83,-8
-95,-24,69,57,-82,20,59,-21,-20,-35,-89,-8
-101,-24,75,63,-88,26,59,-21,-20,-41,-95,-14
-101,-24,75,63,-88,26,53,-21,-20,-41,-95,-8
-107,-30,75,63,-94,20,53,-21,-20,-35,-95,-2
-95,-24,69,57,-82,20,59,-21,-14,-35,-95,3
-89,-24,63,57,-76,20,65,-21,-14,-35,-95,8
-89,-24,63,57,-76,20,65,-21,-8,-35,-95,20
-89,-30,57,57,-76,15,65,-27,-14,-35,-95,20
-83,-30,51,51,-70,10,59,-27,-14,-29,-95,20
-83,-18,63,45,-76,20,59,-27,-14,-29,-89,20
-83,-12,69,45,-76,26,59,-21,-20,-23,-89,20
-83,-18,63,45,-76,20,59,-21,-20,-23,-89,20
-95,-18,75,51,-88,26,59,-21,-20,-29,-95,20
-95,-24,69,57,-82,20,65,-21,-20,-29,-95,26
-89,-12,75,51,-82,32,59,-15,-20,-29,-95,32
-83,-6,75,39,-82,32,59,-15,-20,-35,-95,38
-95,-12,81,51,-88,32,65,-15,-20,-35,-95,50
-89,-18,69,51,-82,26,65,-15,-20,-35,-95,50
-83,-18,63,45,-76,20,65,-21,-25,-35,-95,56
-77,-18,57,45,-70,20,65,-21,-25,-35,-101,56
-83,-18,63,45,-76,20,65,-21,-25,-35,-95,56
-89,-18,69,51,-82,26,71,-21,-30,-29,-95,56
-89,-18,69,51,-82,26,71,-21,-25,-29,-89,56
-89,-24,63,57,-76,20,71,-21,-25,-29,-89,62
-89,-24,63,57,-76,20,71,-21,-25,-23,-89,62
-83,-24,57,51,-70,15,71,-21,-25,-29,-89,56
-89,-18,69,51,-82,26,71,-21,-25,-29,-83,56
-89,-18,69,51,-82,26,65,-27,-30,-29,-83,56
-89,-24,63,57,-76,20,65,-27,-30,-35,-89,50
-89,-24,63,57,-76,20,65,-21,-30,-29,-89,50
-95,-24,69,57,-82,20,65,-21,-30,-29,-89,44
-95,-24,69,57,-82,20,65,-27,-30,-35,-95,32
-101,-36,63,69,-82,15,65,-27,-30,-35,-101,26
-95,-30,63,57,-82,15,65,-27,-30,-35,-101,20
-95,-30,63,57,-82,15,65,-21,-30,-35,-101,20
-101,-30,69,63,-88,20,65,-21,-30,-35,-101,20
-101,-30,69,63,-88,20,65,-21,-30,-41,-101,20
-107,-30,75,63,-94,20,59,-27,-36,-41,-107,14
-101,-30,69,63,-88,20,59,-27,-36,-41,-107,14
-101,-30,69,63,-88,20,59,-27,-36,-41,-107,8
-107,-36,69,69,-88,15,59,-33,-36,-47,-107,3
-107,-36,69,69,-88,15,53,-33,-36,-53,-107,-2
-107,-42,63,69,-88,10,53,-33,-42,-53,-107,-8
-107,-36,69,69,-88,15,59,-33,-42,-53,-107,-8
-95,-30,63,57,-82,15,59,-33,-42,-53,-107,-14
-89,-30,57,57,-76,15,59,-33,-42,-53,-107,-14
-89,-24,63,57,-76,20,53,-39,-42,-47,-107,-14
-89,-30,57,57,-76,15,53,-39,-42,-53,-113,-20
-101,-30,69,63,-88,20,53,-39,-48,-59,-113,-20
-107,-30,75,63,-94,20,59,-39,-42,-59,-113,-20
-107,-24,81,63,-94,26,59,-33,-42,-53,-113,-20
-113,-24,87,69,-100,32,65,-33,-42,-53,-107,-20
-101,-18,81,57,-94,32,59,-39,-48,-53,-113,-20
-89,-18,69,51,-82,26,59,-39,-48,-59,-113,-20
-95,-30,63,57,-82,15,53,-39,-54,-59,-119,-20
-101,-36,63,69,-82,15,53,-39,-54,-59,-119,-20
-95,-30,63,57,-82,15,53,-39,-54,-53,-119,-14
-101,-24,75,63,-88,26,53,-33,-48,-59,-119,-14
-101,-24,75,63,-88,26,59,-33,-48,-59,-119,-14
-113,-30,81,69,-100,26,59,-33,-42,-59,-119,-20
-107,-30,75,63,-94,20,53,-39,-42,-59,-119,-20
-107,-36,69,69,-88,15,53,-44,-48,-59,-125,-26
-95,-30,63,57,-82,15,53,-44,-54,-59,-131,-26
-95,-24,69,57,-82,20,53,-44,-54,-59,-137,-32
-95,-24,69,57,-82,20,53,-39,-60,-59,-137,-32
-95,-24,69,57,-82,20,59,-39,-60,-65,-137,-26
-89,-18,69,51,-82,26,59,-39,-60,-65,-137,-20
-89,-12,75,51,-82,32,59,-39,-60,-71,-131,-20
-95,-12,81,51,-88,32,65,-33,-60,-65,-131,-14
-95,-12,81,51,-88,32,65,-33,-60,-65,-125,-20
-89,-12,75,51,-82,32,65,-39,-60,-65,-125,-26
-83,-6,75,39,-82,32,65,-39,-60,-65,-125,-32
-83,-6,75,39,-82,32,65,-39,-54,-59,-119,-32
-95,-18,75,51,-88,26,65,-39,-54,-59,-119,-26
-107,-30,75,63,-94,20,65,-39,-54,-65,-119,-20
-107,-36,69,69,-88,15,65,-39,-60,-65,-119,-14
-101,-36,63,69,-82,15,65,-39,-60,-65,-125,-8
-101,-36,63,69,-82,15,65,-39,-60,-71,-125,-2
-107,-36,69,69,-88,15,65,-39,-66,-71,-131,-2
-101,-36,63,69,-82,15,59,-39,-66,-77,-131,-8
-101,-36,63,69,-82,15,59,-39,-66,-77,-125,-14
-113,-36,75,75,-94,20,59,-33,-60,-71,-125,-8
-107,-36,69,69,-88,15,59,-33,-60,-71,-125,-8
-101,-36,63,69,-82,15,59,-33,-60,-77,-131,-8
-95,-36,57,63,-76,10,59,-27,-54,-71,-131,-8
-101,-42,57,69,-82,10,59,-27,-54,-77,-131,-8
-113,-42,69,75,-94,15,59,-27,-54,-77,-131,-14
-119,-36,81,75,-100,20,59,-27,-60,-83,-131,-14
-119,-30,87,69,-106,26,59,-33,-60,-83,-131,-20
-113,-30,81,69,-100,26,53,-33,-60,-83,-131,-26
-113,-30,81,69,-100,26,53,-33,-66,-83,-137,-26
-119,-36,81,75,-100,20,53,-33,-66,-83,-131,-32
-119,-42,75,75,-100,15,47,-27,-66,-77,-131,-32
-113,-36,75,75,-94,20,47,-27,-60,-77,-137,-26
-113,-30,81,69,-100,26,47,-27,-60,-71,-137,-20
-107,-24,81,63,-94,26,47,-33,-60,-71,-137,-20
-101,-24,75,63,-88,26,41,-39,-66,-77,-137,-26
-95,-30,63,57,-82,15,41,-39,-66,-77,-131,-26
-95,-30,63,57,-82,15,35,-39,-66,-77,-131,-26
-95,-30,63,57,-82,15,35,-39,-72,-83,-125,-32
-95,-30,63,57,-82,15,29,-39,-72,-83,-125,-32
-95,-30,63,57,-82,15,29,-39,-72,-83,-131,-32
-107,-36,69,69,-88,15,35,-39,-72,-77,-131,-32
-113,-36,75,75,-94,20,29,-39,-72,-71,-131,-32
-113,-36,75,75,-94,20,29,-33,-66,-71,-131,-26
-113,-36,75,75,-94,20,29,-27,-66,-71,-131,-26
-107,-42,63,69,-88,10,23,-27,-66,-71,-125,-26
-107,-42,63,69,-88,10,23,-33,-66,-77,-131,-26
-107,-42,63,69,-88,10,23,-39,-66,-77,-125,-20
-113,-42,69,75,-94,15,29,-39,-66,-77,-119,-14
-119,-42,75,75,-100,15,29,-39,-66,-77,-119,-14
-113,-30,81,69,-100,26,29,-44,-66,-71,-125,-14
-107,-24,81,63,-94,26,23,-39,-66,-71,-125,-14
-107,-30,75,63,-94,20,23,-39,-72,-71,-125,-14
-101,-24,75,63,-88,26,23,-39,-66,-77,-125,-14
-101,-12,87,57,-94,38,23,-39,-66,-71,-125,-14
-101,-12,87,57,-94,38,23,-39,-66,-71,-119,-14
-107,-24,81,63,-94,26,29,-33,-66,-77,-125,-20
-107,-36,69,69,-88,15,23,-39,-72,-77,-125,-20
-107,-36,69,69,-88,15,23,-39,-78,-77,-125,-20
-107,-36,69,69,-88,15,29,-33,-78,-77,-125,-14
-113,-36,75,75,-94,20,29,-33,-78,-71,-119,-14
-113,-30,81,69,-100,26,29,-33,-78,-71,-119,-8
-113,-30,81,69,-100,26,23,-39,-78,-71,-119,-8
-113,-30,81,69,-100,26,23,-39,-72,-77,-119,-2
-107,-30,75,63,-94,20,23,-33,-66,-71,-113,-2
-107,-30,75,63,-94,20,23,-33,-66,-71,-113,-2
-113,-36,75,75,-94,20,23,-33,-60,-71,-107,-2
-101,-30,69,63,-88,20,17,-33,-66,-65,-107,-2
-101,-30,69,63,-88,20,17,-33,-72,-65,-113,-8
-107,-30,75,63,-94,20,17,-27,-72,-59,-107,-8
-113,-30,81,69,-100,26,17,-27,-72,-65,-113,-8
-113,-30,81,69,-100,26,23,-27,-72,-65,-107,-8
-113,-30,81,69,-100,26,23,-33,-72,-71,-113,-14
-119,-30,87,69,-106,26,17,-33,-72,-71,-113,-14
-113,-30,81,69,-100,26,23,-27,-72,-71,-113,-20
-113,-36,75,75,-94,20,17,-33,-72,-77,-119,-20
-107,-36,69,69,-88,15,17,-33,-72,-77,-125,-20
-101,-30,69,63,-88,20,17,-33,-72,-71,-119,-20
-107,-30,75,63,-94,20,17,-33,-72,-71,-119,-14
-119,-36,81,75,-100,20,17,-33,-66,-65,-113,-8
-113,-36,75,75,-94,20,23,-33,-72,-65,-107,-8
-113,-30,81,69,-100,26,23,-27,-72,-65,-107,-8
-113,-36,75,75,-94,20,23,-27,-72,-65,-101,-8
-113,-36,75,75,-94,20,23,-27,-66,-65,-101,-2
-113,-30,81,69,-100,26,23,-27,-66,-59,-101,-2
-107,-24,81,63,-94,26,23,-21,-60,-59,-101,-2
-101,-24,75,63,-88,26,17,-27,-66,-65,-107,-8
-95,-30,63,57,-82,15,17,-27,-72,-77,-113,-14
-95,-30,63,57,-82,15,23,-27,-66,-71,-113,-20
-101,-30,69,63,-88,20,23,-27,-66,-71,-107,-26
-101,-36,63,69,-82,15,17,-27,-72,-71,-107,-32
-107,-36,69,69,-88,15,17,-39,-72,-71,-107,-38
-113,-30,81,69,-100,26,17,-33,-72,-71,-107,-38
-107,-24,81,63,-94,26,17,-33,-72,-65,-101,-44
-107,-24,81,63,-94,26,17,-33,-66,-65,-101,-38
-107,-24,81,63,-94,26,23,-33,-66,-65,-101,-38
-113,-24,87,69,-100,32,17,-33,-66,-71,-101,-38
-107,-24,81,63,-94,26,17,-33,-72,-71,-107,-38
-107,-24,81,63,-94,26,23,-33,-72,-65,-107,-38
-107,-24,81,63,-94,26,23,-33,-72,-65,-113,-38
-107,-30,75,63,-94,20,23,-33,-72,-65,-107,-38
-107,-30,75,63,-94,20,23,-33,-72,-65,-107,-32
-119,-36,81,75,-100,20,23,-27,-72,-59,-107,-26
-119,-36,81,75,-100,20,17,-27,-78,-65,-107,-20
-113,-30,81,69,-100,26,17,-27,-78,-71,-107,-20
-107,-30,75,63,-94,20,17,-27,-84,-71,-107,-20
-113,-30,81,69,-100,26,23,-33,-78,-71,-101,-20
-107,-30,75,63,-94,20,17,-33,-78,-71,-101,-20
-101,-30,69,63,-88,20,17,-33,-78,-77,-101,-20
-107,-36,69,69,-88,15,11,-33,-78,-77,-107,-26
-107,-42,63,69,-88,10,17,-33,-78,-77,-107,-32
-107,-42,63,69,-88,10,17,-33,-78,-71,-107,-32
-101,-36,63,69,-82,15,17,-33,-72,-65,-101,-26
-95,-30,63,57,-82,15,23,-33,-72,-65,-101,-26
-95,-36,57,63,-76,10,23,-27,-66,-59,-101,-26
-95,-24,69,57,-82,20,23,-21,-60,-53,-95,-20
-83,-12,69,45,-76,26,29,-15,-54,-47,-95,-14
-71,0,69,33,-70,32,29,-3,-48,-47,-89,-14
-71,0,69,33,-70,32,35,3,-42,-41,-89,-8
-65,6,69,27,-70,38,41,3,-42,-35,-83,-2
-65,6,69,27,-70,38,47,15,-30,-29,-71,3
-59,11,69,21,-64,38,59,21,-25,-17,-65,8
-47,16,63,15,-52,38,59,33,-14,-11,-53,20
-41,22,63,9,-52,44,65,39,-8,-5,-53,26
-35,16,51,9,-40,32,65,45,-2,0,-47,26
-29,22,51,3,-40,38,71,51,10,5,-35,32
-29,34,63,-2,-46,50,71,63,16,11,-29,38
-29,46,75,-7,-52,62,71,63,16,11,-23,44
-23,52,75,-13,-46,62,71,75,22,17,-17,50
-17,64,81,-19,-46,74,77,87,34,29,-5,62
-6,82,87,-37,-46,86,77,111,52,47,13,80
11,106,93,-55,-40,104,77,123,64,59,18,92
17,112,93,-61,-34,104,83,135,76,71,23,98
29,124,93,-73,-28,110,83,153,94,83,35,104
41,136,93,-85,-22,116,83,159,100,95,41,110
41,142,99,-91,-28,122,77,165,106,101,47,116
41,148,105,-91,-28,128,71,159,100,101,47,116
47,148,99,-91,-22,128,59,153,100,101,47,116
47,148,99,-91,-22,128,47,147,94,101,53,122
47,148,99,-91,-22,128,47,141,94,101,53,122
35,142,105,-85,-34,128,35,135,82,89,47,122
29,118,87,-73,-28,104,23,117,70,77,35,110
29,100,69,-61,-16,86,11,105,58,65,23,98
23,82,57,-49,-16,74,-1,87,46,53,18,92
17,64,45,-37,-11,56,-6,69,28,35,7,86
17,58,39,-37,-11,50,-6,51,16,23,-5,80
17,52,33,-31,-6,44,-6,33,4,11,-17,74
11,46,33,-25,-11,44,-6,21,-14,0,-29,68
-1,34,33,-13,-16,38,-11,9,-25,-5,-41,62
-11,16,27,-2,-16,20,-11,9,-36,-17,-47,56
-29,6,33,9,-34,20,-11,9,-42,-23,-53,56
-41,6,45,15,-46,26,-6,15,-42,-29,-53,56
-53,0,51,27,-52,26,-6,21,-36,-29,-59,56
-59,0,57,27,-58,26,-1,21,-30,-29,-59,56
-65,0,63,33,-64,32,5,33,-25,-23,-59,62
-59,0,57,27,-58,26,11,39,-20,-17,-59,68
-53,0,51,27,-52,26,17,57,-2,-5,-47,68
-53,6,57,21,-58,32,23,81,10,0,-41,74
-47,6,51,15,-52,26,29,99,22,11,-29,80
-47,6,51,15,-52,26,29,111,34,23,-29,80
-53,0,51,27,-52,26,35,123,40,23,-23,80
-53,6,57,21,-58,32,35,135,46,35,-11,86
-53,11,63,21,-58,38,35,147,58,41,-5,86
-47,16,63,15,-52,38,29,159,70,53,1,92
-41,22,63,9,-52,44,17,171,82,59,13,98
-29,22,51,3,-40,38,-1,177,88,71,18,110
-6,22,27,-7,-16,26,-23,189,100,83,23,116
11,22,11,-13,0,20,-47,195,112,95,35,128
29,22,-7,-25,18,10,-77,207,124,107,47,134
47,28,-19,-31,36,10,-107,219,142,125,65,140
59,28,-31,-37,48,4,-149,231,160,143,77,146
77,28,-49,-49,66,-8,-197,225,166,149,89,140
101,28,-73,-61,90,-20,-251,225,172,155,89,140
119,28,-91,-67,108,-26,-305,219,172,167,95,140
137,34,-103,-85,120,-32,-347,207,178,179,107,146
167,34,-133,-97,150,-44,-395,189,172,179,113,152
191,22,-169,-103,180,-68,-431,171,166,179,113,152
215,11,-205,-109,210,-92,-467,147,154,179,119,146
233,0,-235,-115,234,-116,-503,117,142,179,119,140
257,-12,-271,-121,264,-140,-545,87,130,185,125,134
269,-24,-295,-121,282,-158,-587,45,118,185,131,134
281,-30,-313,-127,294,-170,-623,3,94,185,131,134
293,-42,-337,-127,312,-188,-659,-49,70,179,131,134
311,-48,-361,-127,336,-200,-683,-85,46,179,131,140
335,-54,-391,-139,360,-218,-707,-115,34,179,137,146
359,-54,-415,-151,384,-230,-725,-139,16,185,143,158
377,-60,-439,-157,408,-248,-749,-175,4,185,155,170
395,-54,-451,-169,420,-248,-773,-211,-20,191,161,176
425,-48,-475,-187,450,-260,-797,-247,-25,197,167,188
449,-42,-493,-205,468,-266,-827,-283,-42,203,179,200
479,-48,-529,-211,504,-284,-869,-343,-66,203,191,212
515,-48,-565,-229,540,-302,-911,-421,-108,203,191,224
563,-42,-607,-259,582,-320,-971,-517,-156,197,203,242
611,-42,-655,-283,630,-344,-1043,-625,-222,191,209,266
683,-36,-721,-319,702,-374,-1115,-733,-288,197,239,296
773,-42,-817,-367,792,-428,-1205,-841,-354,191,269,332
875,-48,-925,-409,900,-482,-1301,-961,-438,179,287,356
983,-60,-1045,-457,1014,-548,-1403,-1081,-528,161,311,398
1103,-72,-1177,-511,1140,-620,-1511,-1213,-624,143,335,446
1241,-66,-1309,-589,1272,-686,-1625,-1333,-702,143,371,512
1379,-54,-1435,-661,1404,-740,-1727,-1435,-768,167,425,584
1523,-42,-1567,-739,1542,-800,-1811,-1519,-816,191,497,680
1673,-12,-1687,-829,1680,-848,-1871,-1573,-846,239,575,782
1811,22,-1789,-913,1800,-878,-1913,-1609,-870,275,659,884
1919,52,-1867,-979,1896,-902,-1943,-1639,-882,311,743,992
2009,70,-1939,-1039,1974,-932,-1955,-1645,-894,347,815,1088
2075,100,-1975,-1081,2028,-932,-1943,-1627,-882,377,875,1178
2111,124,-1987,-1111,2052,-926,-1913,-1597,-864,401,923,1250
2123,142,-1981,-1129,2052,-914,-1865,-1543,-846,413,941,1298
2087,142,-1945,-1111,2016,-896,-1787,-1477,-822,395,905,1298
2009,124,-1885,-1063,1950,-878,-1685,-1411,-822,317,803,1244
1883,94,-1789,-985,1836,-842,-1559,-1339,-822,215,671,1154
1715,82,-1633,-895,1674,-770,-1403,-1243,-804,119,533,1052
1523,64,-1459,-787,1494,-692,-1247,-1135,-768,17,395,932
1325,40,-1285,-679,1308,-620,-1097,-1027,-732,-53,275,812
1139,22,-1117,-577,1128,-542,-947,-913,-684,-113,173,686
959,6,-955,-481,954,-470,-809,-799,-636,-155,89,566
797,-6,-805,-397,798,-404,-689,-691,-588,-185,18,458
653,-12,-667,-319,660,-338,-581,-595,-534,-197,-29,368
533,-12,-547,-259,540,-278,-485,-511,-474,-197,-65,296
431,-12,-445,-205,438,-224,-389,-421,-408,-179,-83,248
341,-18,-361,-163,348,-188,-305,-343,-342,-155,-89,218
269,-18,-289,-127,276,-152,-233,-277,-282,-137,-95,188
209,-18,-229,-97,216,-122,-179,-217,-234,-119,-89,164
149,-24,-175,-61,162,-98,-131,-169,-198,-113,-89,146
95,-36,-133,-25,114,-80,-95,-133,-180,-107,-89,122
53,-42,-97,-7,72,-68,-59,-103,-162,-101,-89,104
5,-48,-55,21,30,-50,-29,-73,-150,-95,-95,80
-17,-48,-31,33,6,-38,-6,-49,-138,-89,-101,56
-47,-48,-1,45,-22,-26,17,-27,-126,-83,-101,38
-77,-48,27,63,-52,-8,41,-9,-114,-77,-107,26
-95,-48,45,69,-70,-2,59,3,-102,-83,-113,20
-107,-54,51,75,-82,-2,77,15,-90,-83,-119,14
-119,-54,63,81,-94,4,89,27,-84,-83,-119,14
-125,-48,75,87,-100,15,101,39,-72,-77,-119,8
-131,-48,81,87,-106,15,113,51,-72,-77,-119,3
-149,-48,99,99,-124,26,119,63,-66,-77,-119,3
-167,-54,111,105,-142,26,131,81,-60,-77,-125,-8
-167,-48,117,105,-142,32,143,93,-48,-77,-125,-8
-179,-48,129,111,-154,38,155,111,-42,-71,-125,-2
-185,-48,135,117,-160,44,167,123,-30,-65,-119,3
-191,-48,141,117,-166,44,173,129,-25,-65,-125,3
-185,-48,135,117,-160,44,179,129,-25,-59,-125,8
-185,-48,135,117,-160,44,185,129,-20,-59,-125,8
-191,-54,135,117,-166,38,191,135,-14,-53,-125,8
-197,-60,135,129,-166,38,191,135,-14,-53,-125,3
-203,-60,141,129,-172,38,191,141,-14,-47,-125,3
-215,-54,159,129,-190,50,197,147,-8,-47,-119,3
-215,-54,159,129,-190,50,203,153,-8,-41,-119,3
-221,-48,171,135,-196,62,209,159,-2,-41,-119,3
-215,-42,171,123,-196,62,209,165,4,-41,-113,3
-215,-42,171,123,-196,62,215,165,4,-41,-113,3
-215,-42,171,123,-196,62,215,171,4,-41,-113,-2
-215,-36,177,123,-196,68,221,171,10,-41,-113,-8
-215,-42,171,123,-196,62,221,171,10,-35,-113,-8
-215,-42,171,123,-196,62,227,177,16,-29,-107,-8
-221,-48,171,135,-196,62,227,183,22,-35,-113,-14
-221,-54,165,135,-196,56,233,189,28,-29,-107,-14
-233,-54,177,141,-208,62,233,201,34,-23,-107,-20
-233,-54,177,141,-208,62,239,207,34,-23,-107,-20
-233,-48,183,141,-208,68,239,207,40,-23,-107,-20
-221,-42,177,129,-202,68,239,207,40,-23,-107,-20
-221,-42,177,129,-202,68,239,213,40,-23,-107,-14
-221,-36,183,129,-202,74,245,219,46,-23,-101,-14
-221,-36,183,129,-202,74,245,225,52,-17,-107,-14
-221,-36,183,129,-202,74,251,231,52,-17,-107,-14
-227,-36,189,129,-208,74,257,231,58,-11,-101,-14
-227,-30,195,123,-214,80,257,237,58,-11,-101,-14
-221,-24,195,123,-208,86,257,243,58,-11,-101,-14
-221,-24,195,123,-208,86,257,249,58,-5,-95,-14
-221,-24,195,123,-208,86,263,255,58,-5,-95,-14
-233,-24,207,129,-220,92,269,261,64,0,-83,-8
-239,-24,213,129,-226,92,275,267,70,0,-83,-8
-239,-24,213,129,-226,92,275,267,76,-5,-89,-8
-239,-24,213,129,-226,92,281,273,82,-5,-89,-2
-233,-18,213,123,-226,98,281,279,88,-5,-89,-2
-233,-12,219,123,-226,104,287,285,94,0,-89,-14
-233,-6,225,117,-232,110,293,297,100,0,-83,-20
-239,-6,231,117,-238,110,299,309,106,5,-77,-26
-239,-6,231,117,-238,110,305,315,112,11,-77,-32
-239,-12,225,123,-232,104,311,321,112,11,-77,-38
-239,-6,231,117,-238,110,311,327,118,17,-77,-38
-233,0,231,117,-232,116,317,333,118,17,-71,-26
-227,11,237,105,-232,122,323,339,124,23,-65,-20
-233,11,243,111,-238,128,335,351,136,23,-65,-14
-221,11,231,105,-226,122,341,357,142,23,-59,-14
-227,11,237,105,-232,122,347,363,154,29,-59,-14
-239,11,249,111,-244,128,353,369,160,35,-53,-14
-233,11,243,111,-238,128,353,375,154,35,-53,-20
-233,16,249,111,-238,134,359,381,160,41,-47,-20
-233,22,255,105,-244,140,359,393,166,47,-47,-20
-233,22,255,105,-244,140,365,405,172,53,-47,-20
-239,28,267,105,-250,146,365,417,178,53,-47,-20
-245,22,267,111,-256,146,371,429,184,53,-47,-14
-251,16,267,117,-256,140,377,435,196,53,-47,-8
-257,16,273,123,-262,146,377,441,202,59,-41,-8
-251,22,273,111,-262,146,389,453,214,65,-35,-2
-245,28,273,111,-256,152,395,465,226,71,-29,-2
-239,40,279,99,-256,158,401,477,238,83,-17,3
-239,46,285,93,-262,164,401,483,238,89,-17,3
-239,52,291,93,-262,170,401,483,244,89,-11,3
-239,58,297,87,-268,176,407,495,256,101,-5,8
-239,64,303,87,-268,182,413,507,268,101,-5,3
-245,58,303,93,-274,182,413,513,274,107,-5,3
-251,58,309,93,-280,182,419,525,286,113,7,3
-251,64,315,93,-280,188,425,537,298,125,7,3
-245,64,309,93,-274,188,419,543,304,125,7,3
-233,70,303,81,-268,188,419,543,304,125,7,3
-227,70,297,75,-262,182,413,549,310,131,7,8
-215,76,291,69,-250,182,407,555,316,137,13,14
-203,76,279,63,-238,176,407,561,322,137,18,20
-191,88,279,51,-232,182,401,567,322,143,29,26
-191,88,279,51,-232,182,395,567,328,149,35,32
-191,100,291,45,-238,194,395,567,334,155,41,38
-191,100,291,45,-238,194,395,573,334,155,41,44
-179,106,285,33,-232,194,383,573,340,161,41,50
-167,106,273,27,-220,188,371,567,346,161,41,50
-155,112,267,21,-208,188,359,561,340,161,41,50
-149,112,261,21,-202,188,347,555,340,167,47,50
-137,112,249,15,-190,182,335,549,340,167,47,50
-131,118,249,3,-190,182,329,543,334,167,53,44
-119,118,237,-2,-178,176,323,537,334,173,59,50
-113,118,231,-2,-172,176,311,519,328,173,59,56
-101,118,219,-7,-160,170,305,513,316,173,59,62
-83,124,207,-19,-142,164,293,501,310,167,65,68
-83,118,201,-19,-142,158,281,489,304,161,65,68
-71,112,183,-19,-124,146,269,477,292,155,59,62
-59,112,171,-25,-112,140,257,465,286,155,65,62
-53,106,159,-25,-106,134,239,441,280,155,65,62
-41,112,153,-31,-94,134,227,417,268,155,71,62
-35,112,147,-37,-88,128,209,393,256,149,71,56
-29,118,147,-43,-88,134,197,381,250,149,71,62
-11,118,129,-55,-70,122,191,357,238,143,71,62
-1,124,123,-55,-58,128,179,339,226,143,71,68
11,118,105,-61,-46,116,161,315,208,131,59,74
17,106,87,-61,-34,98,143,291,190,119,59,74
23,94,69,-55,-22,86,131,273,172,107,53,74
23,88,63,-49,-16,80,119,255,160,95,47,68
29,88,57,-55,-11,74,107,237,142,89,41,62
35,88,51,-55,-6,74,101,219,130,83,35,62
35,88,51,-55,-6,74,101,201,124,77,35,62
29,76,45,-49,-6,62,89,189,106,71,29,62
29,64,33,-43,0,50,83,171,94,65,23,56
23,64,39,-37,-6,56,77,159,88,59,23,56
17,52,33,-31,-6,44,77,147,76,47,18,50
17,52,33,-31,-6,44,65,129,64,41,18,44
17,52,33,-31,-6,44,65,117,52,29,13,38
11,46,33,-25,-11,44,59,99,40,23,7,32
5,46,39,-25,-16,44,59,93,34,17,7,26
-6,40,45,-13,-22,44,59,87,28,11,7,26
-11,34,45,-13,-28,38,59,81,22,5,1,20
-23,34,57,-7,-40,44,59,81,22,5,-5,20
-35,28,63,3,-46,44,59,75,16,5,-5,20
-29,22,51,3,-40,38,53,63,4,0,-17,8
-35,11,45,9,-40,26,59,57,-2,-5,-17,3
-41,11,51,15,-46,32,59,57,-8,-5,-23,-2
-41,6,45,15,-46,26,59,51,-8,-5,-23,-8
-47,0,45,21,-46,20,65,51,-8,-11,-17,-14
-59,0,57,27,-58,26,71,51,-8,-11,-17,-14
-71,0,69,33,-70,32,71,45,-8,-11,-11,-20
-83,0,81,39,-82,38,71,45,-14,-11,-17,-26
-83,0,81,39,-82,38,65,39,-14,-11,-17,-32
-89,-6,81,45,-88,38,65,33,-20,-11,-23,-38
-83,-6,75,39,-82,32,65,33,-25,-5,-23,-38
-83,0,81,39,-82,38,65,27,-25,-11,-29,-38
-83,0,81,39,-82,38,65,27,-25,-17,-29,-38
-83,-6,75,39,-82,32,65,27,-25,-17,-29,-44
-83,-6,75,39,-82,32,71,27,-25,-29,-29,-50
-95,-12,81,51,-88,32,71,33,-25,-35,-29,-56
-95,-12,81,51,-88,32,71,33,-25,-41,-29,-62
-95,-12,81,51,-88,32,71,33,-25,-35,-29,-68
-95,-6,87,45,-94,38,71,33,-25,-29,-29,-68
-95,0,93,45,-94,44,71,33,-25,-23,-29,-68
-95,-6,87,45,-94,38,71,33,-25,-11,-23,-68
-89,-6,81,45,-88,38,71,39,-25,-11,-23,-68
-95,-6,87,45,-94,38,77,33,-25,-11,-29,-68
-101,-6,93,51,-100,44,77,33,-25,-17,-35,-68
-101,-18,81,57,-94,32,77,33,-30,-23,-35,-74
-107,-24,81,63,-94,26,71,33,-30,-29,-35,-80
-107,-24,81,63,-94,26,77,33,-30,-29,-35,-86
-107,-12,93,57,-100,38,77,33,-25,-35,-35,-86
-101,-12,87,57,-94,38,71,27,-25,-35,-35,-86
-95,-6,87,45,-94,38,71,27,-25,-35,-29,-80
-89,0,87,45,-88,44,71,27,-30,-35,-35,-74
-89,0,87,45,-88,44,71,27,-30,-35,-35,-74
-89,-12,75,51,-82,32,65,27,-36,-29,-41,-74
-95,-18,75,51,-88,26,59,27,-36,-35,-41,-80
-95,-36,57,63,-76,10,59,21,-36,-35,-47,-86
-89,-36,51,63,-70,10,59,21,-42,-35,-47,-92
-95,-36,57,63,-76,10,59,27,-36,-35,-47,-98
-107,-42,63,69,-88,10,59,27,-36,-35,-41,-98
-113,-48,63,81,-88,10,59,27,-36,-35,-41,-98
-113,-48,63,81,-88,10,59,27,-36,-35,-41,-98
-119,-48,69,81,-94,10,59,21,-42,-41,-41,-98
-113,-48,63,81,-88,10,59,21,-36,-35,-41,-98
-113,-48,63,81,-88,10,59,21,-36,-35,-41,-92
-107,-48,57,75,-82,4,59,15,-36,-41,-47,-98
-101,-48,51,75,-76,4,59,21,-30,-41,-53,-104
-95,-42,51,63,-76,4,65,21,-30,-35,-47,-104
-101,-42,57,69,-82,10,71,21,-25,-35,-41,-110
-113,-48,63,81,-88,10,71,21,-25,-35,-41,-110
-107,-42,63,69,-88,10,71,27,-25,-29,-35,-104
-107,-42,63,69,-88,10,71,33,-20,-29,-35,-98
-119,-48,69,81,-94,10,71,33,-20,-35,-41,-98
-113,-42,69,75,-94,15,71,39,-20,-29,-35,-98
-107,-36,69,69,-88,15,71,39,-20,-23,-35,-92
-107,-42,63,69,-88,10,77,39,-20,-29,-35,-98
-107,-36,69,69,-88,15,77,39,-20,-35,-35,-104
-107,-36,69,69,-88,15,77,33,-25,-35,-35,-110
-101,-30,69,63,-88,20,77,33,-25,-35,-41,-122
-95,-30,63,57,-82,15,71,33,-25,-35,-41,-122
-95,-36,57,63,-76,10,71,33,-25,-29,-47,-122
-107,-42,63,69,-88,10,77,27,-25,-23,-41,-116
-107,-42,63,69,-88,10,77,33,-20,-23,-41,-110
-107,-36,69,69,-88,15,77,33,-20,-23,-41,-110
-101,-36,63,69,-82,15,77,27,-20,-29,-41,-104
-89,-18,69,51,-82,26,83,33,-20,-23,-35,-104
-89,-18,69,51,-82,26,89,33,-14,-17,-35,-104
-95,-24,69,57,-82,20,83,33,-14,-23,-41,-110
-95,-24,69,57,-82,20,83,33,-14,-17,-41,-116
-95,-24,69,57,-82,20,83,33,-14,-23,-35,-122
-101,-30,69,63,-88,20,83,33,-14,-23,-35,-122
-95,-24,69,57,-82,20,77,33,-8,-23,-35,-122
-95,-18,75,51,-88,26,83,33,-8,-23,-35,-116
-89,-12,75,51,-82,32,83,33,-2,-23,-35,-116
-89,-12,75,51,-82,32,77,27,-14,-23,-35,-116
-95,-18,75,51,-88,26,77,27,-14,-23,-35,-122
-95,-18,75,51,-88,26,77,27,-14,-17,-35,-122
-107,-18,87,57,-100,32,77,21,-14,-17,-35,-128
-113,-30,81,69,-100,26,71,21,-14,-17,-35,-134
-119,-30,87,69,-106,26,71,21,-14,-17,-35,-134
-113,-30,81,69,-100,26,77,21,-14,-23,-35,-128
-107,-30,75,63,-94,20,77,27,-14,-23,-35,-122
-101,-30,69,63,-88,20,77,27,-20,-23,-35,-122
-101,-24,75,63,-88,26,77,21,-20,-23,-35,-122
-107,-24,81,63,-94,26,77,21,-20,-23,-29,-116
-107,-24,81,63,-94,26,77,21,-20,-23,-29,-122
-107,-24,81,63,-94,26,83,21,-14,-17,-23,-122
-107,-18,87,57,-100,32,83,27,-14,-17,-23,-122
-107,-12,93,57,-100,38,77,21,-14,-17,-23,-122
-101,-12,87,57,-94,38,71,21,-14,-17,-29,-122
-101,-12,87,57,-94,38,71,27,-14,-17,-29,-116
-101,-12,87,57,-94,38,71,27,-14,-17,-29,-116
-107,-12,93,57,-100,38,71,27,-14,-17,-35,-110
-101,-12,87,57,-94,38,77,33,-8,-11,-35,-110
-95,-12,81,51,-88,32,77,27,-14,-17,-35,-104
-95,-18,75,51,-88,26,83,27,-8,-11,-29,-104
-95,-24,69,57,-82,20,83,27,-14,-11,-29,-104
-101,-30,69,63,-88,20,83,21,-14,-17,-29,-104
-107,-30,75,63,-94,20,83,21,-14,-23,-29,-104
-113,-36,75,75,-94,20,77,21,-14,-23,-29,-110
-107,-30,75,63,-94,20,83,21,-8,-23,-23,-104
-101,-24,75,63,-88,26,83,27,-2,-23,-23,-98
-107,-24,81,63,-94,26,89,33,-8,-23,-23,-98
-101,-24,75,63,-88,26,83,27,-14,-23,-23,-98
-101,-18,81,57,-94,32,77,21,-20,-29,-29,-98
-101,-18,81,57,-94,32,77,15,-20,-29,-29,-104
-107,-18,87,57,-100,32,77,15,-20,-29,-29,-104
-101,-18,81,57,-94,32,77,15,-20,-29,-29,-110
-95,-12,81,51,-88,32,71,15,-25,-29,-29,-110
-95,-18,75,51,-88,26,71,15,-25,-35,-35,-116
-101,-18,81,57,-94,32,65,9,-30,-35,-41,-116
-101,-18,81,57,-94,32,65,9,-30,-35,-41,-104
-95,-6,87,45,-94,38,71,15,-25,-35,-41,-92
-95,-6,87,45,-94,38,77,21,-20,-35,-41,-92
-101,-12,87,57,-94,38,77,21,-14,-35,-35,-92
-113,-18,93,63,-106,38,83,21,-20,-35,-35,-92
-107,-24,81,63,-94,26,77,15,-20,-41,-35,-92
-107,-36,69,69,-88,15,77,9,-25,-41,-35,-98
-107,-30,75,63,-94,20,77,3,-25,-41,-35,-104
-101,-30,69,63,-88,20,77,3,-25,-41,-35,-98
-101,-30,69,63,-88,20,71,3,-25,-35,-35,-86
-107,-30,75,63,-94,20,71,3,-30,-41,-35,-74
-107,-30,75,63,-94,20,71,3,-25,-35,-35,-62
-113,-30,81,69,-100,26,77,9,-25,-41,-35,-56
-119,-36,81,75,-100,20,77,9,-25,-47,-41,-62
-119,-36,81,75,-100,20,77,9,-25,-47,-35,-68
-125,-36,87,81,-106,26,77,9,-25,-47,-35,-74
-125,-30,93,75,-112,32,77,9,-25,-47,-35,-80
-119,-24,93,69,-106,32,77,9,-25,-47,-35,-86
-113,-24,87,69,-100,32,77,9,-25,-47,-35,-86
-107,-24,81,63,-94,26,71,9,-25,-47,-35,-80
-101,-24,75,63,-88,26,77,9,-25,-53,-35,-80
-89,-18,69,51,-82,26,77,3,-20,-53,-41,-74
-89,-18,69,51,-82,26,77,3,-25,-53,-41,-74
-101,-24,75,63,-88,26,77,3,-25,-53,-47,-74
-113,-24,87,69,-100,32,83,3,-25,-53,-47,-80
-119,-24,93,69,-106,32,83,3,-25,-53,-47,-86
-119,-24,93,69,-106,32,83,-3,-25,-53,-41,-92
-119,-24,93,69,-106,32,83,-3,-25,-53,-41,-104
-119,-30,87,69,-106,26,89,-3,-25,-47,-47,-110
-125,-36,87,81,-106,26,89,3,-25,-47,-47,-110
-113,-36,75,75,-94,20,83,-3,-25,-47,-53,-104
-107,-36,69,69,-88,15,83,-3,-25,-47,-53,-92
-113,-42,69,75,-94,15,83,3,-20,-47,-53,-86
-113,-42,69,75,-94,15,83,3,-25,-47,-53,-86
-113,-36,75,75,-94,20,77,-3,-25,-53,-53,-92
-113,-36,75,75,-94,20,77,-3,-25,-59,-47,-98
-113,-30,81,69,-100,26,83,-3,-30,-59,-47,-104
-113,-24,87,69,-100,32,83,-3,-30,-59,-47,-116
-113,-24,87,69,-100,32,83,-3,-36,-59,-41,-116
-113,-24,87,69,-100,32,83,-3,-30,-53,-41,-110
-113,-30,81,69,-100,26,89,3,-30,-53,-35,-104
-119,-30,87,69,-106,26,89,3,-30,-53,-35,-104
-107,-36,69,69,-88,15,89,9,-25,-53,-41,-104
-107,-36,69,69,-88,15,89,9,-25,-53,-41,-110
-119,-36,81,75,-100,20,89,9,-25,-53,-41,-116
-113,-30,81,69,-100,26,89,9,-25,-59,-47,-122
-119,-36,81,75,-100,20,89,9,-25,-59,-47,-122
-119,-36,81,75,-100,20,89,3,-30,-59,-47,-122
-119,-30,87,69,-106,26,89,3,-30,-65,-53,-116
-119,-30,87,69,-106,26,89,3,-30,-59,-53,-110
-119,-30,87,69,-106,26,89,3,-30,-53,-53,-98
-113,-30,81,69,-100,26,89,3,-30,-53,-47,-92
-101,-18,81,57,-94,32,89,3,-25,-53,-47,-86
-95,-18,75,51,-88,26,83,3,-25,-53,-47,-86
-101,-30,69,63,-88,20,83,9,-25,-53,-47,-86
-113,-42,69,75,-94,15,89,9,-25,-53,-47,-86
-119,-42,75,75,-100,15,95,9,-25,-41,-41,-86
-119,-48,69,81,-94,10,95,3,-25,-41,-41,-92
-113,-42,69,75,-94,15,95,3,-30,-47,-47,-92
-107,-36,69,69,-88,15,89,-3,-30,-47,-47,-86
-107,-30,75,63,-94,20,89,-3,-30,-53,-47,-80
-107,-30,75,63,-94,20,89,-9,-30,-53,-47,-80
-113,-30,81,69,-100,26,89,-9,-30,-59,-47,-74
-113,-24,87,69,-100,32,89,-9,-30,-59,-47,-74
-101,-24,75,63,-88,26,89,-9,-30,-59,-47,-86
-107,-24,81,63,-94,26,89,-9,-30,-59,-53,-92
-125,-36,87,81,-106,26,89,-15,-30,-59,-53,-98
-137,-30,105,81,-124,38,89,-9,-30,-59,-53,-104
-137,-24,111,81,-124,44,89,-9,-30,-59,-53,-104
-131,-30,99,75,-118,32,89,-9,-30,-59,-53,-98
-119,-30,87,69,-106,26,89,-3,-25,-53,-53,-92
-125,-36,87,81,-106,26,83,-3,-20,-53,-53,-80
-125,-36,87,81,-106,26,83,-3,-20,-53,-53,-80
-119,-30,87,69,-106,26,83,-3,-20,-53,-53,-74
-113,-30,81,69,-100,26,83,-9,-20,-53,-47,-74
-113,-24,87,69,-100,32,83,-9,-20,-53,-47,-74
-119,-30,87,69,-106,26,83,-9,-25,-59,-47,-80
-125,-36,87,81,-106,26,83,-15,-25,-59,-47,-80
-131,-42,87,81,-112,20,83,-15,-25,-59,-47,-74
-131,-42,87,81,-112,20,83,-15,-25,-59,-47,-74
-137,-48,87,93,-112,20,89,-9,-25,-53,-41,-68
-131,-42,87,81,-112,20,89,-9,-25,-53,-47,-68
-125,-36,87,81,-106,26,83,-9,-25,-53,-47,-62
-125,-30,93,75,-112,32,83,-9,-25,-53,-47,-62
-125,-24,99,75,-112,38,83,-9,-25,-53,-47,-56
-131,-24,105,75,-118,38,89,-9,-25,-53,-47,-56
-125,-24,99,75,-112,38,83,-9,-25,-53,-41,-56
-113,-18,93,63,-106,38,83,-15,-25,-59,-47,-62
-113,-18,93,63,-106,38,83,-15,-25,-59,-41,-62
-113,-24,87,69,-100,32,83,-9,-20,-59,-41,-62
-113,-24,87,69,-100,32,83,-9,-20,-59,-41,-56
-107,-30,75,63,-94,20,83,-9,-25,-59,-41,-56
-101,-24,75,63,-88,26,83,-9,-25,-59,-41,-56
-101,-18,81,57,-94,32,89,-3,-25,-59,-41,-56
-107,-24,81,63,-94,26,83,-9,-25,-65,-47,-62
-113,-24,87,69,-100,32,77,-9,-25,-65,-53,-68
-107,-18,87,57,-100,32,77,-9,-25,-65,-53,-74
-107,-18,87,57,-100,32,77,-9,-20,-65,-53,-74
-113,-24,87,69,-100,32,71,-15,-25,-65,-53,-80
-113,-30,81,69,-100,26,71,-15,-25,-65,-47,-80
-125,-24,99,75,-112,38,77,-15,-25,-65,-47,-80
-125,-24,99,75,-112,38,83,-15,-25,-65,-47,-74
-125,-24,99,75,-112,38,83,-15,-25,-65,-47,-74
-113,-18,93,63,-106,38,83,-15,-25,-59,-41,-68
-113,-18,93,63,-106,38,83,-9,-30,-59,-41,-74
-113,-18,93,63,-106,38,83,-9,-25,-59,-41,-74
-119,-24,93,69,-106,32,83,-9,-25,-59,-41,-74
-119,-30,87,69,-106,26,77,-15,-30,-65,-41,-80
-119,-30,87,69,-106,26,77,-15,-25,-65,-41,-86
-113,-24,87,69,-100,32,77,-15,-25,-65,-41,-86
-113,-18,93,63,-106,38,77,-15,-25,-65,-41,-80
-113,-12,99,63,-106,44,77,-9,-20,-59,-35,-74
-119,-18,99,63,-112,38,83,-9,-25,-59,-41,-80
-119,-24,93,69,-106,32,83,-9,-25,-53,-35,-80
-113,-30,81,69,-100,26,83,-15,-25,-59,-41,-86
-113,-36,75,75,-94,20,83,-21,-30,-65,-47,-92
-113,-36,75,75,-94,20,89,-21,-25,-65,-47,-98
-119,-48,69,81,-94,10,77,-27,-30,-71,-47,-104
-119,-42,75,75,-100,15,77,-27,-30,-65,-47,-104
-119,-36,81,75,-100,20,77,-21,-25,-65,-41,-98
-119,-36,81,75,-100,20,77,-15,-25,-59,-41,-92
-119,-36,81,75,-100,20,77,-15,-25,-59,-41,-92
-119,-36,81,75,-100,20,77,-21,-25,-59,-41,-92
-113,-30,81,69,-100,26,77,-21,-25,-65,-41,-92
-113,-30,81,69,-100,26,77,-21,-25,-65,-47,-92
-119,-30,87,69,-106,26,77,-21,-25,-65,-47,-92
-119,-30,87,69,-106,26,77,-21,-25,-65,-47,-98
-113,-24,87,69,-100,32,77,-15,-25,-65,-41,-98
-119,-24,93,69,-106,32,71,-15,-25,-59,-41,-98
-119,-30,87,69,-106,26,71,-21,-30,-65,-41,-98
-119,-30,87,69,-106,26,77,-21,-30,-59,-41,-98
-119,-30,87,69,-106,26,77,-21,-25,-59,-41,-92
-119,-24,93,69,-106,32,83,-15,-25,-53,-41,-92
-119,-30,87,69,-106,26,83,-21,-25,-59,-41,-92
-113,-30,81,69,-100,26,77,-21,-30,-65,-35,-98
-107,-30,75,63,-94,20,83,-21,-25,-65,-35,-98
-113,-24,87,69,-100,32,83,-15,-25,-59,-35,-98
-113,-24,87,69,-100,32,83,-9,-25,-53,-35,-92
-119,-30,87,69,-106,26,83,-9,-20,-53,-35,-92
-119,-30,87,69,-106,26,83,-15,-20,-59,-41,-98
-119,-36,81,75,-100,20,77,-21,-25,-59,-47,-98
-113,-30,81,69,-100,26,77,-21,-25,-59,-47,-92
-119,-30,87,69,-106,26,71,-21,-20,-59,-41,-92
-107,-24,81,63,-94,26,65,-21,-20,-59,-35,-86
-101,-18,81,57,-94,32,65,-21,-20,-65,-35,-86
-89,-18,69,51,-82,26,65,-21,-20,-65,-35,-86
-89,-18,69,51,-82,26,65,-21,-14,-65,-35,-80
-89,-18,69,51,-82,26,77,-15,-8,-59,-29,-80
-83,-12,69,45,-76,26,83,-3,-8,-53,-23,-80
-77,0,75,39,-76,38,89,3,4,-41,-11,-74
-77,6,81,33,-82,44,89,15,10,-29,1,-68
-65,11,75,27,-70,44,101,27,22,-23,7,-62
-65,16,81,27,-70,50,107,33,28,-17,13,-56
-65,16,81,27,-70,50,107,45,34,-11,18,-44
-53,22,75,15,-64,50,113,51,46,-5,23,-38
-41,34,75,3,-58,56,119,63,52,0,29,-32
-29,46,75,-7,-52,62,119,69,64,0,29,-26
-17,52,69,-13,-40,62,119,75,70,5,35,-26
-6,64,69,-25,-34,68,119,75,70,5,41,-20
5,70,63,-37,-28,68,119,81,76,17,47,-14
17,76,57,-43,-16,68,119,93,94,35,65,-2
29,88,57,-55,-11,74,119,111,106,53,77,3
29,106,75,-67,-22,92,131,129,118,65,95,8
41,112,69,-73,-11,92,131,141,130,77,101,14
47,124,75,-79,-11,104,137,153,136,89,107,14
53,130,75,-91,-11,104,137,159,142,95,113,20
47,130,81,-85,-16,110,125,165,148,101,119,20
47,130,81,-85,-16,110,113,159,148,101,119,20
53,130,75,-91,-11,104,101,153,148,101,119,20
59,130,69,-91,-6,104,95,147,148,95,119,20
53,130,75,-91,-11,104,83,135,136,83,113,14
47,118,69,-79,-11,98,77,123,124,77,101,8
41,106,63,-73,-11,86,71,111,112,59,89,3
35,88,51,-55,-6,74,59,93,94,47,77,-14
35,82,45,-55,-6,68,47,69,76,35,59,-26
35,76,39,-49,0,62,41,51,58,17,47,-44
17,64,45,-37,-11,56,35,39,40,5,35,-56
-1,46,45,-19,-22,50,29,21,22,0,23,-62
-6,28,33,-7,-16,32,29,9,10,-17,18,-74
-11,11,21,-2,-16,15,29,3,4,-29,13,-86
-17,0,16,9,-16,10,29,3,4,-41,7,-92
-29,-6,21,15,-28,10,35,3,4,-41,7,-98
-41,-6,33,21,-40,15,47,9,10,-35,7,-98
-53,-12,39,33,-46,15,53,21,10,-29,7,-92
-65,-6,57,33,-64,26,59,33,16,-23,7,-92
-65,6,69,27,-70,38,65,45,22,-11,13,-86
-65,6,69,27,-70,38,65,57,28,-5,18,-80
-59,11,69,21,-64,38,71,69,46,0,18,-80
-65,11,75,27,-70,44,71,87,58,5,23,-80
-65,11,75,27,-70,44,77,99,70,5,29,-86
-59,11,69,21,-64,38,77,111,82,17,35,-86
-47,11,57,15,-52,32,71,117,88,17,35,-92
-47,11,57,15,-52,32,71,123,94,23,35,-80
-41,11,51,15,-46,32,65,135,106,35,47,-68
-35,16,51,9,-40,32,59,147,118,41,47,-50
-29,22,51,3,-40,38,47,159,130,59,59,-32
-17,28,45,-2,-28,38,29,171,142,77,71,-8
-11,22,33,-7,-22,26,-1,177,154,83,77,3
-1,28,27,-7,-11,32,-23,189,166,101,89,8
23,34,11,-25,6,26,-47,201,178,113,101,20
41,40,-1,-37,24,20,-77,207,190,125,107,26
65,40,-25,-49,48,10,-113,207,202,131,119,38
95,34,-61,-61,78,-8,-161,207,208,137,131,50
119,34,-85,-73,102,-20,-209,207,214,155,143,68
149,34,-115,-91,132,-38,-263,201,220,167,155,80
173,34,-139,-103,156,-50,-311,183,220,173,167,92
191,22,-169,-103,180,-68,-359,165,214,173,173,104
209,16,-193,-109,204,-86,-401,147,202,173,173,110
227,11,-217,-115,222,-98,-443,117,184,173,173,110
239,0,-241,-115,240,-116,-479,87,172,167,173,110
257,-12,-271,-121,264,-140,-509,51,160,173,179,116
281,-18,-301,-133,288,-158,-545,15,142,161,179,116
299,-30,-331,-133,312,-176,-575,-39,118,155,173,116
317,-42,-361,-139,336,-200,-605,-85,88,143,167,116
329,-60,-391,-133,360,-224,-629,-127,64,137,161,116
347,-72,-421,-133,384,-242,-647,-151,52,137,161,116
377,-72,-451,-151,414,-260,-665,-175,40,143,167,128
395,-72,-469,-157,432,-266,-689,-211,22,149,179,134
419,-72,-493,-169,456,-278,-719,-253,-2,149,185,140
443,-60,-505,-187,474,-278,-749,-295,-25,149,197,146
467,-54,-523,-205,492,-284,-785,-343,-42,155,203,152
509,-48,-559,-229,534,-302,-827,-409,-72,149,209,158
557,-42,-601,-259,576,-320,-875,-487,-120,137,209,164
605,-42,-649,-283,624,-344,-941,-583,-186,125,215,176
659,-42,-703,-307,678,-368,-1007,-691,-252,113,221,194
737,-36,-775,-349,756,-404,-1091,-787,-312,113,239,218
833,-42,-877,-397,852,-458,-1187,-895,-384,101,251,242
935,-72,-1009,-427,972,-536,-1283,-1015,-474,83,263,266
1055,-96,-1153,-475,1104,-620,-1391,-1147,-570,53,269,296
1187,-102,-1291,-541,1236,-692,-1505,-1279,-660,35,293,344
1337,-96,-1435,-619,1386,-764,-1613,-1399,-744,35,329,404
1499,-84,-1585,-703,1542,-830,-1709,-1501,-804,41,377,482
1655,-72,-1729,-787,1692,-896,-1787,-1573,-852,59,437,572
1811,-48,-1861,-877,1836,-950,-1847,-1627,-882,89,509,668
1943,-12,-1957,-961,1950,-980,-1895,-1663,-900,119,581,764
2057,16,-2041,-1033,2052,-1010,-1925,-1675,-912,149,641,854
2153,46,-2107,-1099,2130,-1028,-1925,-1675,-918,179,701,938
2219,82,-2137,-1147,2178,-1022,-1913,-1657,-906,215,761,1016
2261,112,-2149,-1183,2208,-1016,-1889,-1627,-894,233,797,1076
2267,118,-2149,-1189,2208,-1010,-1847,-1591,-882,233,803,1100
2225,118,-2107,-1171,2166,-992,-1775,-1537,-876,197,761,1082
2135,100,-2035,-1111,2088,-962,-1679,-1483,-882,119,665,1022
1991,76,-1915,-1027,1956,-914,-1553,-1411,-876,23,539,926
1805,64,-1741,-931,1776,-836,-1391,-1303,-840,-59,413,824
1601,52,-1549,-823,1578,-746,-1223,-1183,-792,-125,299,716
1397,34,-1363,-715,1380,-662,-1061,-1057,-732,-179,203,614
1193,11,-1183,-601,1188,-584,-911,-931,-672,-215,125,506
1001,-6,-1009,-499,1002,-506,-767,-811,-618,-245,59,404
827,-18,-847,-403,834,-428,-653,-715,-564,-263,7,308
683,-18,-703,-331,690,-356,-557,-625,-504,-263,-29,236
563,-18,-583,-271,570,-296,-461,-541,-438,-251,-41,188
449,-18,-469,-217,456,-242,-371,-463,-372,-233,-47,146
353,-30,-385,-163,366,-206,-293,-385,-306,-203,-47,116
281,-36,-319,-121,300,-176,-215,-313,-246,-179,-47,98
215,-42,-259,-85,234,-146,-155,-247,-198,-155,-47,74
161,-48,-211,-55,186,-128,-107,-193,-162,-137,-47,56
107,-60,-169,-19,138,-110,-65,-145,-138,-131,-47,38
53,-72,-127,9,90,-98,-35,-115,-120,-125,-53,14
11,-72,-85,33,48,-74,-6,-91,-108,-119,-53,3
-17,-66,-49,39,12,-56,17,-67,-90,-113,-53,-14
-41,-60,-19,51,-11,-38,41,-49,-72,-101,-53,-26
-71,-60,11,63,-40,-26,65,-39,-54,-95,-53,-38
-95,-60,33,75,-64,-14,89,-15,-36,-89,-53,-44
-107,-54,51,75,-82,-2,101,-3,-25,-89,-53,-44
-119,-54,63,81,-94,4,113,9,-20,-89,-65,-50
-131,-60,69,93,-100,4,131,21,-14,-89,-71,-56
-137,-54,81,93,-112,15,137,33,-8,-95,-77,-62
-143,-48,93,93,-118,20,143,45,-8,-95,-77,-68
-161,-48,111,105,-136,32,155,51,-2,-95,-71,-74
-179,-54,123,111,-154,32,161,57,4,-83,-65,-74
-197,-48,147,123,-172,50,173,63,16,-83,-59,-80
-209,-54,153,129,-184,50,179,63,22,-83,-59,-80
-209,-54,153,129,-184,50,179,63,28,-77,-59,-80
-209,-54,153,129,-184,50,191,75,34,-77,-59,-80
-209,-54,153,129,-184,50,197,81,40,-77,-59,-86
-209,-54,153,129,-184,50,203,93,46,-71,-59,-92
-215,-54,159,129,-190,50,203,99,46,-71,-59,-98
-215,-48,165,129,-190,56,209,105,52,-65,-53,-104
-221,-48,171,135,-196,62,215,111,52,-59,-53,-104
-227,-48,177,135,-202,62,221,117,58,-53,-47,-110
-233,-48,183,141,-208,68,221,117,64,-53,-47,-110
-239,-48,189,141,-214,68,227,123,70,-53,-47,-110
-239,-54,183,141,-214,62,227,129,76,-59,-47,-110
-245,-48,195,147,-220,74,233,135,82,-53,-47,-104
-239,-48,189,141,-214,68,233,141,88,-53,-47,-104
-239,-54,183,141,-214,62,239,147,94,-47,-47,-98
-233,-54,177,141,-208,62,239,153,94,-41,-41,-98
-233,-48,183,141,-208,68,245,159,100,-41,-41,-98
-227,-48,177,135,-202,62,245,159,100,-41,-41,-104
-221,-36,183,129,-202,74,245,159,100,-35,-41,-104
-221,-30,189,123,-208,80,251,165,100,-35,-35,-104
-233,-30,201,129,-220,86,251,165,100,-35,-35,-104
-233,-30,201,129,-220,86,251,165,106,-29,-29,-104
-245,-30,213,135,-232,92,257,171,112,-23,-23,-98
-251,-30,219,135,-238,92,257,177,118,-23,-17,-92
-245,-30,213,135,-232,92,257,183,124,-23,-17,-92
-239,-30,207,129,-226,86,257,195,130,-17,-17,-92
-239,-30,207,129,-226,86,257,195,130,-17,-23,-98
-245,-30,213,135,-232,92,263,201,136,-17,-23,-98
-245,-24,219,135,-232,98,263,207,130,-17,-29,-110
-245,-24,219,135,-232,98,269,207,136,-5,-29,-110
-251,-24,225,135,-238,98,275,213,142,0,-23,-110
-251,-24,225,135,-238,98,281,219,148,0,-17,-104
-251,-18,231,129,-244,104,287,219,148,0,-11,-98
-251,-24,225,135,-238,98,287,231,154,0,-11,-86
-251,-18,231,129,-244,104,293,237,160,0,-11,-86
-245,-6,237,123,-244,116,293,243,160,0,-11,-86
-245,-6,237,123,-244,116,299,249,160,0,-11,-86
-245,6,249,117,-250,128,305,255,166,0,-11,-86
-245,6,249,117,-250,128,311,261,172,5,-11,-86
-245,6,249,117,-250,128,317,267,172,11,-5,-86
-251,6,255,117,-256,128,323,273,184,17,1,-80
-251,6,255,117,-256,128,323,273,184,23,7,-80
-251,6,255,117,-256,128,329,279,196,29,18,-74
-251,11,261,117,-256,134,341,285,202,35,18,-68
-263,6,267,123,-268,134,347,297,208,35,23,-62
-257,0,255,129,-256,128,353,303,214,35,23,-62
-251,0,249,123,-250,122,359,309,214,41,23,-62
-257,6,261,123,-262,134,359,315,220,47,23,-68
-257,11,267,123,-262,140,359,321,226,47,23,-68
-257,16,273,123,-262,146,365,333,238,53,23,-74
-263,16,279,123,-268,146,371,339,244,59,29,-74
-263,16,279,123,-268,146,377,351,250,59,35,-74
-263,28,291,117,-274,158,389,363,256,59,47,-68
-263,28,291,117,-274,158,389,375,268,65,47,-68
-263,28,291,117,-274,158,401,381,274,71,53,-62
-257,34,291,111,-274,164,407,387,286,77,59,-62
-251,34,285,105,-268,158,407,399,292,83,65,-56
-251,40,291,105,-268,164,413,405,304,89,65,-56
-257,40,297,111,-274,170,413,417,310,95,71,-50
-263,46,309,105,-286,176,419,429,316,101,71,-50
-257,52,309,105,-280,182,419,441,322,107,77,-44
-251,52,303,99,-274,176,419,447,334,113,77,-44
-251,52,303,99,-274,176,425,453,346,119,89,-38
-245,52,297,99,-268,176,425,465,352,125,95,-38
-239,64,303,87,-268,182,431,477,358,137,101,-32
-239,70,309,81,-274,188,437,483,364,143,101,-32
-233,70,303,81,-268,188,437,489,376,149,107,-26
-227,76,303,75,-262,188,437,495,382,155,107,-20
-221,82,303,69,-262,194,431,501,388,161,113,-20
-221,82,303,69,-262,194,431,507,394,167,113,-14
-221,76,297,75,-256,188,419,513,400,173,119,-14
-209,76,285,69,-244,182,413,513,400,173,125,-8
-203,82,285,57,-244,182,413,525,412,185,131,-2
-197,88,285,57,-238,188,407,525,412,185,137,3
-185,94,279,45,-232,188,407,525,418,191,137,3
-179,100,279,39,-226,188,401,519,418,191,137,3
-179,106,285,33,-232,194,389,513,418,191,137,8
-167,112,279,27,-220,194,383,507,418,191,137,8
-161,112,273,27,-214,194,377,507,424,191,143,14
-155,112,267,21,-208,188,365,495,418,185,143,20
-137,118,255,9,-196,188,347,489,418,185,143,20
-125,124,249,3,-184,188,335,483,412,191,143,20
-113,124,237,-2,-172,182,329,471,412,191,149,26
-101,118,219,-7,-160,170,317,459,406,197,149,32
-89,118,207,-13,-148,164,305,453,400,197,149,38
-83,118,201,-19,-142,158,299,447,394,197,149,38
-77,118,195,-19,-136,158,287,435,382,191,149,44
-59,124,183,-31,-118,152,275,417,370,185,149,38
-59,112,171,-25,-112,140,257,399,358,179,149,32
-47,112,159,-31,-100,134,245,387,346,173,149,32
-29,118,147,-43,-88,134,233,369,334,161,143,32
-17,112,129,-43,-70,122,215,351,322,161,143,32
-6,112,117,-49,-58,116,203,339,310,155,143,32
5,112,105,-55,-46,110,185,315,292,149,137,32
11,106,93,-55,-40,104,173,291,280,143,131,32
11,100,87,-49,-34,98,155,273,268,137,131,32
17,94,75,-55,-28,86,143,255,256,131,131,32
17,94,75,-55,-28,86,131,231,238,119,125,32
23,88,63,-49,-16,80,119,213,220,113,125,26
29,88,57,-55,-11,74,113,195,202,107,125,26
35,82,45,-55,-6,68,107,177,190,95,119,26
35,82,45,-55,-6,68,95,159,178,89,119,26
35,76,39,-49,0,62,89,147,166,83,119,32
35,64,27,-43,6,50,77,135,160,77,107,26
23,58,33,-37,-6,50,71,117,148,65,101,26
11,58,45,-31,-16,56,71,105,136,59,95,20
5,52,45,-25,-16,50,71,93,118,47,83,14
-1,52,51,-19,-22,56,71,81,112,41,77,3
-6,46,51,-19,-28,50,71,75,106,29,77,3
-6,40,45,-13,-22,44,65,63,100,23,71,-2
-1,40,39,-13,-16,44,65,57,100,17,71,-8
-1,40,39,-13,-16,44,65,51,100,17,77,-8
-6,40,45,-13,-22,44,65,45,94,17,71,-8
-17,34,51,-7,-34,44,65,39,88,11,65,-20
-29,28,57,3,-40,44,65,39,82,11,65,-26
-35,34,69,-2,-52,50,71,39,76,11,65,-26
-41,28,69,9,-52,50,77,39,70,11,65,-32
-41,16,57,15,-46,38,77,33,64,11,59,-38
-47,6,51,15,-52,26,71,33,58,5,53,-44
-59,-6,51,27,-58,20,71,27,58,0,53,-50
-65,-12,51,39,-58,20,71,21,58,0,47,-56
-77,-18,57,45,-70,20,71,15,58,0,53,-56
-77,-12,63,45,-70,26,71,15,58,-5,47,-56
-77,0,75,39,-76,38,71,9,58,-5,47,-62
-71,6,75,27,-76,38,77,9,58,-11,47,-56
-71,6,75,27,-76,38,77,9,52,-11,47,-56
-89,0,87,45,-88,44,77,9,52,-5,47,-56
-95,0,93,45,-94,44,77,15,46,-5,41,-56
-101,-6,93,51,-100,44,77,9,46,-5,41,-62
-101,-12,87,57,-94,38,77,9,46,-5,41,-68
-95,-12,81,51,-88,32,77,9,46,-5,35,-68
-95,-12,81,51,-88,32,77,9,46,-11,35,-68
-89,-18,69,51,-82,26,77,9,46,-11,35,-68
-95,-24,69,57,-82,20,77,9,40,-17,29,-68
-95,-24,69,57,-82,20,83,9,40,-23,29,-74
-101,-24,75,63,-88,26,77,9,40,-23,29,-68
-107,-30,75,63,-94,20,71,3,34,-23,23,-74
-101,-30,69,63,-88,20,71,-3,28,-23,18,-74
-101,-24,75,63,-88,26,65,-9,28,-29,18,-80
-107,-30,75,63,-94,20,65,-9,28,-29,18,-86
-107,-30,75,63,-94,20,71,-3,28,-23,18,-86
-107,-30,75,63,-94,20,71,-3,28,-23,18,-80
-101,-30,69,63,-88,20,71,-3,34,-17,18,-74
-95,-24,69,57,-82,20,71,-3,34,-17,18,-74
-95,-24,69,57,-82,20,71,-9,34,-23,13,-68
-95,-24,69,57,-82,20,71,-3,28,-23,13,-68
-107,-24,81,63,-94,26,65,-9,28,-29,13,-68
-113,-30,81,69,-100,26,65,-9,28,-35,7,-74
-101,-24,75,63,-88,26,65,-9,28,-35,13,-80
-89,-12,75,51,-82,32,65,-3,28,-35,13,-80
-89,-18,69,51,-82,26,65,-3,28,-35,13,-80
-95,-18,75,51,-88,26,59,-9,22,-29,13,-80
-101,-18,81,57,-94,32,59,-3,22,-29,13,-80
-107,-18,87,57,-100,32,59,-3,16,-29,7,-80
-101,-12,87,57,-94,38,59,-9,16,-29,7,-80
-95,-12,81,51,-88,32,59,-3,22,-29,7,-74
-95,-12,81,51,-88,32,65,-3,22,-29,13,-74
-101,-18,81,57,-94,32,65,-9,22,-35,13,-80
-101,-18,81,57,-94,32,65,-9,28,-35,13,-80
-101,-30,69,63,-88,20,65,-9,28,-29,13,-80
-107,-30,75,63,-94,20,65,-9,28,-29,13,-80
-101,-18,81,57,-94,32,65,-3,28,-23,13,-74
-95,-12,81,51,-88,32,59,-3,28,-23,13,-68
-95,-12,81,51,-88,32,59,-3,28,-17,13,-68
-101,-6,93,51,-100,44,59,-3,28,-23,13,-56
-95,-6,87,45,-94,38,65,-9,28,-23,13,-56
-101,-12,87,57,-94,38,65,-9,22,-29,13,-56
-101,-24,75,63,-88,26,65,-9,28,-23,13,-56
-101,-24,75,63,-88,26,65,-9,28,-23,13,-50
-107,-24,81,63,-94,26,65,-9,28,-29,7,-56
-101,-24,75,63,-88,26,65,-9,28,-29,7,-56
-95,-12,81,51,-88,32,65,-3,34,-23,13,-50
-89,-6,81,45,-88,38,65,-3,34,-23,13,-44
-89,-6,81,45,-88,38,65,-3,34,-17,18,-44
-89,-12,75,51,-82,32,59,-3,34,-23,18,-38
-89,-6,81,45,-88,38,65,-3,34,-23,18,-38
-89,-6,81,45,-88,38,65,-3,34,-23,18,-44
-89,-12,75,51,-82,32,71,-3,40,-23,18,-44
-101,-18,81,57,-94,32,71,-9,40,-17,18,-44
-101,-6,93,51,-100,44,71,-9,46,-17,18,-44
-101,-6,93,51,-100,44,65,-9,46,-17,18,-44
-101,-6,93,51,-100,44,59,-15,40,-23,13,-50
-101,-12,87,57,-94,38,59,-15,34,-29,13,-50
-101,-12,87,57,-94,38,65,-15,34,-29,13,-50
-95,-12,81,51,-88,32,71,-15,34,-29,13,-50
-95,-12,81,51,-88,32,77,-15,34,-29,18,-50
-95,-18,75,51,-88,26,77,-15,34,-23,18,-50
-101,-18,81,57,-94,32,71,-15,40,-23,13,-50
-101,-18,81,57,-94,32,71,-15,40,-17,13,-50
-101,-12,87,57,-94,38,65,-15,40,-17,13,-50
-101,-6,93,51,-100,44,65,-15,40,-17,13,-50
-101,-12,87,57,-94,38,65,-9,40,-11,13,-50
-101,-12,87,57,-94,38,65,-9,40,-17,18,-44
-95,-12,81,51,-88,32,65,-9,40,-17,18,-50
-95,-12,81,51,-88,32,65,-9,40,-17,23,-50
-89,0,87,45,-88,44,65,-9,40,-17,23,-50
-83,0,81,39,-82,38,65,-9,34,-17,23,-50
-83,0,81,39,-82,38,65,-9,34,-17,18,-56
-89,-6,81,45,-88,38,65,-9,34,-17,18,-56
-95,-6,87,45,-94,38,65,-9,34,-17,18,-62
-95,-6,87,45,-94,38,71,-9,34,-17,23,-62
-101,-6,93,51,-100,44,71,-9,34,-17,23,-62
-101,0,99,51,-100,50,77,-9,40,-17,23,-62
-95,0,93,45,-94,44,77,-9,40,-17,29,-62
-89,0,87,45,-88,44,77,-15,34,-17,29,-62
-83,0,81,39,-82,38,77,-15,34,-17,29,-68
-83,0,81,39,-82,38,77,-15,34,-17,29,-68
-89,-6,81,45,-88,38,77,-15,28,-17,29,-68
-95,-12,81,51,-88,32,71,-15,34,-17,23,-68
-95,-6,87,45,-94,38,71,-15,34,-17,23,-62
-101,-12,87,57,-94,38,71,-15,34,-17,23,-56
-95,-6,87,45,-94,38,71,-15,34,-11,23,-56
-95,-12,81,51,-88,32,71,-21,34,-17,23,-56
-95,-12,81,51,-88,32,71,-21,34,-17,23,-50
-95,-12,81,51,-88,32,71,-21,34,-23,23,-50
-101,-12,87,57,-94,38,77,-21,34,-23,23,-50
-95,-6,87,45,-94,38,77,-21,34,-29,23,-50
-95,-6,87,45,-94,38,77,-21,28,-29,18,-50
-95,-6,87,45,-94,38,77,-21,28,-29,18,-56
-95,-6,87,45,-94,38,77,-21,22,-29,18,-62
-101,-6,93,51,-100,44,77,-21,22,-29,13,-62
-101,6,105,45,-106,56,77,-21,22,-29,13,-62
-101,6,105,45,-106,56,71,-21,16,-29,13,-56
-95,6,99,39,-100,50,71,-27,16,-35,7,-62
-95,6,99,39,-100,50,65,-27,10,-35,13,-56
-95,0,93,45,-94,44,71,-27,10,-35,13,-56
-89,-6,81,45,-88,38,71,-27,10,-35,13,-50
-95,-12,81,51,-88,32,71,-27,4,-35,7,-56
-101,-12,87,57,-94,38,71,-27,4,-29,7,-50
-107,-12,93,57,-100,38,77,-27,10,-29,13,-50
-101,-12,87,57,-94,38,77,-27,10,-23,13,-44
-101,-6,93,51,-100,44,83,-21,10,-23,13,-44
-95,-12,81,51,-88,32,83,-21,10,-23,13,-38
-95,-12,81,51,-88,32,77,-27,4,-23,13,-38
-101,-18,81,57,-94,32,77,-27,4,-23,13,-38
-89,-6,81,45,-88,38,77,-27,10,-29,13,-32
-89,0,87,45,-88,44,71,-33,4,-29,13,-32
-95,-12,81,51,-88,32,65,-33,-2,-35,7,-32
-95,-12,81,51,-88,32,65,-33,-2,-35,1,-38
-95,-12,81,51,-88,32,65,-33,-2,-35,1,-38
-101,-12,87,57,-94,38,65,-33,-2,-35,-5,-38
-101,-6,93,51,-100,44,65,-27,-2,-35,-5,-38
-101,-6,93,51,-100,44,71,-27,-2,-35,-5,-38
-107,-12,93,57,-100,38,71,-27,-2,-35,-5,-44
-107,-18,87,57,-100,32,65,-27,-2,-41,-5,-50
-107,-12,93,57,-100,38,65,-27,-2,-41,-5,-50
-101,-12,87,57,-94,38,65,-27,-2,-41,-5,-50
-107,-12,93,57,-100,38,71,-27,-2,-47,-11,-56
-101,-6,93,51,-100,44,71,-27,-2,-47,-17,-56
-95,-6,87,45,-94,38,71,-27,-2,-47,-17,-50
-95,-6,87,45,-94,38,71,-21,-2,-41,-17,-44
-95,-6,87,45,-94,38,71,-21,-2,-47,-17,-50
-101,-18,81,57,-94,32,71,-21,-2,-41,-11,-50
-101,-12,87,57,-94,38,71,-21,-8,-47,-11,-56
-101,-12,87,57,-94,38,71,-21,-8,-47,-11,-56
-95,-12,81,51,-88,32,65,-27,-8,-47,-11,-62
-101,-12,87,57,-94,38,65,-27,-8,-47,-11,-62
-101,-6,93,51,-100,44,71,-27,-2,-41,-11,-62
-101,-6,93,51,-100,44,65,-27,-8,-41,-11,-56
-107,-12,93,57,-100,38,65,-33,-8,-47,-17,-56
-119,-18,99,63,-112,38,65,-33,-8,-47,-17,-50
-113,-18,93,63,-106,38,65,-27,-14,-53,-17,-50
-113,-18,93,63,-106,38,59,-27,-14,-53,-17,-50
-107,-12,93,57,-100,38,59,-27,-14,-53,-17,-56
-101,-12,87,57,-94,38,59,-27,-14,-47,-11,-56
-101,-12,87,57,-94,38,59,-27,-14,-53,-11,-62
-95,-12,81,51,-88,32,65,-33,-14,-53,-17,-68
-95,-12,81,51,-88,32,65,-39,-14,-53,-23,-68
-101,-6,93,51,-100,44,71,-33,-14,-53,-23,-62
-101,-6,93,51,-100,44,71,-33,-14,-53,-23,-62
-101,-12,87,57,-94,38,65,-27,-14,-47,-23,-56
-107,-6,99,51,-106,44,65,-27,-14,-47,-23,-56
-107,-6,99,51,-106,44,65,-27,-14,-47,-23,-50
-107,-12,93,57,-100,38,59,-27,-14,-47,-23,-56
-107,-6,99,51,-106,44,59,-27,-14,-53,-29,-62
-113,-6,105,57,-112,50,59,-27,-14,-53,-29,-62
-113,-6,105,57,-112,50,59,-33,-14,-59,-29,-68
-107,-6,99,51,-106,44,53,-33,-20,-65,-35,-74
-101,0,99,51,-100,50,53,-27,-14,-59,-35,-74
-101,-6,93,51,-100,44,53,-27,-14,-59,-35,-74
-95,-6,87,45,-94,38,53,-21,-8,-47,-29,-62
-95,-6,87,45,-94,38,59,-15,-8,-47,-23,-56
-101,-12,87,57,-94,38,59,-21,-8,-47,-29,-50
-119,-24,93,69,-106,32,59,-27,-14,-47,-29,-50
-125,-24,99,75,-112,38,59,-27,-14,-47,-29,-44
-131,-18,111,69,-124,44,65,-27,-14,-41,-29,-44
-125,-18,105,69,-118,44,65,-33,-20,-47,-35,-44
-125,-18,105,69,-118,44,59,-39,-20,-47,-35,-50
-119,-18,99,63,-112,38,53,-44,-20,-53,-35,-56
-113,-18,93,63,-106,38,53,-44,-20,-53,-41,-62
-119,-24,93,69,-106,32,53,-39,-20,-53,-35,-62
-119,-24,93,69,-106,32,53,-39,-20,-53,-35,-62
-119,-18,99,63,-112,38,53,-33,-20,-53,-35,-62
-107,-12,93,57,-100,38,59,-33,-20,-53,-35,-56
-107,-12,93,57,-100,38,59,-33,-20,-59,-41,-50
-107,-12,93,57,-100,38,59,-39,-20,-53,-41,-50
-107,-12,93,57,-100,38,59,-33,-14,-53,-35,-50
-101,-12,87,57,-94,38,65,-27,-14,-47,-29,-50
-101,-18,81,57,-94,32,59,-27,-14,-47,-29,-62
-95,-12,81,51,-88,32,59,-27,-14,-47,-29,-62
-95,-12,81,51,-88,32,59,-27,-14,-47,-29,-68
-101,-18,81,57,-94,32,65,-27,-14,-47,-29,-68
-113,-18,93,63,-106,38,65,-21,-14,-47,-29,-62
-107,-18,87,57,-100,32,59,-27,-20,-47,-29,-62
-101,-18,81,57,-94,32,59,-27,-20,-53,-35,-62
-89,-18,69,51,-82,26,59,-27,-20,-59,-35,-68
-89,-12,75,51,-82,32,65,-27,-14,-53,-35,-62
-83,-12,69,45,-76,26,65,-21,-14,-53,-35,-62
-83,-6,75,39,-82,32,65,-21,-8,-53,-35,-68
-89,-6,81,45,-88,38,59,-21,-14,-53,-35,-74
-89,-6,81,45,-88,38,59,-21,-14,-53,-35,-80
-95,-6,87,45,-94,38,59,-15,-8,-47,-29,-74
-107,-12,93,57,-100,38,59,-15,-14,-47,-29,-80
-119,-12,105,63,-112,44,59,-15,-14,-53,-29,-80
-119,-6,111,57,-118,50,59,-15,-14,-53,-29,-80
-113,-12,99,63,-106,44,59,-21,-20,-53,-35,-80
-107,-12,93,57,-100,38,59,-21,-20,-59,-35,-80
-107,-12,93,57,-100,38,59,-21,-20,-59,-35,-86
-101,-18,81,57,-94,32,59,-21,-25,-59,-41,-86
-101,-24,75,63,-88,26,59,-27,-25,-65,-41,-92
-107,-24,81,63,-94,26,53,-27,-25,-65,-41,-92
-113,-18,93,63,-106,38,53,-27,-25,-59,-41,-98
-113,-12,99,63,-106,44,59,-33,-25,-59,-35,-98
-113,-6,105,57,-112,50,59,-33,-25,-53,-35,-92
-107,-6,99,51,-106,44,59,-33,-25,-53,-35,-92
-107,-6,99,51,-106,44,53,-39,-30,-59,-35,-98
-107,-12,93,57,-100,38,53,-39,-30,-59,-41,-98
-107,-24,81,63,-94,26,53,-39,-30,-59,-41,-98
-107,-24,81,63,-94,26,53,-39,-25,-59,-41,-98
-101,-18,81,57,-94,32,53,-33,-25,-59,-41,-98
-101,-12,87,57,-94,38,53,-33,-25,-65,-41,-92
-101,-6,93,51,-100,44,53,-27,-20,-65,-41,-86
-101,-6,93,51,-100,44,59,-27,-20,-65,-41,-80
-101,-6,93,51,-100,44,59,-27,-20,-59,-35,-80
-107,-6,99,51,-106,44,53,-33,-20,-65,-35,-80
-107,-12,93,57,-100,38,53,-33,-25,-59,-35,-74
-101,-12,87,57,-94,38,53,-33,-25,-59,-35,-74
-101,-12,87,57,-94,38,47,-33,-20,-65,-35,-80
-89,-12,75,51,-82,32,47,-33,-25,-65,-35,-80
-95,-18,75,51,-88,26,47,-33,-25,-65,-41,-86
-101,-24,75,63,-88,26,53,-33,-25,-65,-41,-86
-107,-18,87,57,-100,32,53,-27,-25,-65,-47,-86
-107,-12,93,57,-100,38,53,-33,-25,-65,-47,-92
-107,-12,93,57,-100,38,47,-39,-25,-65,-53,-98
-107,-12,93,57,-100,38,47,-39,-30,-71,-59,-98
-107,-12,93,57,-100,38,47,-39,-30,-71,-59,-92
-113,-12,99,63,-106,44,47,-39,-30,-71,-53,-86
-107,-12,93,57,-100,38,47,-39,-30,-71,-53,-80
-107,-12,93,57,-100,38,47,-44,-30,-71,-53,-80
-113,-18,93,63,-106,38,53,-39,-25,-65,-47,-80
-107,-18,87,57,-100,32,47,-39,-30,-65,-47,-80
-107,-18,87,57,-100,32,47,-39,-30,-65,-41,-86
-107,-18,87,57,-100,32,53,-33,-25,-65,-35,-86
-107,-18,87,57,-100,32,53,-27,-25,-65,-35,-86
-107,-12,93,57,-100,38,53,-27,-30,-59,-35,-80
-107,-18,87,57,-100,32,59,-27,-30,-59,-35,-74
-107,-18,87,57,-100,32,59,-27,-30,-59,-41,-74
-107,-18,87,57,-100,32,59,-27,-36,-59,-41,-74
-107,-18,87,57,-100,32,53,-33,-36,-65,-41,-74
-101,-12,87,57,-94,38,53,-33,-36,-59,-47,-68
-107,-6,99,51,-106,44,53,-33,-30,-59,-41,-62
-101,-6,93,51,-100,44,53,-33,-30,-65,-47,-62
-101,-6,93,51,-100,44,53,-27,-30,-65,-47,-62
-101,-6,93,51,-100,44,53,-33,-30,-65,-47,-62
-89,-6,81,45,-88,38,53,-33,-30,-59,-41,-62
-89,-6,81,45,-88,38,53,-33,-30,-59,-41,-62
-83,-12,69,45,-76,26,53,-33,-30,-59,-41,-68
-83,-6,75,39,-82,32,59,-27,-25,-53,-35,-62
-83,0,81,39,-82,38,65,-15,-20,-47,-35,-56
-83,6,87,33,-88,44,71,-9,-14,-41,-29,-56
-65,22,87,21,-76,56,77,-3,-2,-35,-23,-50
-65,34,99,15,-82,68,83,3,4,-29,-23,-50
-65,40,105,15,-82,74,89,15,10,-23,-17,-50
-53,58,111,-2,-82,86,95,27,16,-17,-11,-38
-35,64,99,-13,-64,80,95,27,22,-17,-5,-38
-29,58,87,-13,-58,74,95,33,22,-5,1,-26
-23,58,81,-19,-52,68,101,33,28,0,7,-20
-11,64,75,-25,-40,68,101,39,34,0,13,-14
-6,70,75,-31,-40,74,101,45,46,11,18,-2
-1,82,81,-37,-40,86,107,57,52,17,18,3
11,94,81,-49,-34,92,113,69,64,29,29,14
11,100,87,-49,-34,98,113,87,76,47,35,20
11,106,93,-55,-40,104,119,105,88,59,59,32
23,112,87,-61,-28,104,119,117,106,71,71,44
35,118,81,-73,-22,104,125,129,118,77,77,44
41,124,81,-79,-16,104,125,135,124,89,89,50
47,130,81,-85,-16,110,119,141,130,95,95,56
47,142,93,-91,-22,122,113,141,130,95,101,62
53,148,93,-97,-16,122,107,135,130,101,107,62
65,154,87,-109,-11,122,95,135,124,101,107,68
59,154,93,-103,-16,128,83,129,124,101,101,62
47,142,93,-91,-22,122,77,123,118,89,95,50
41,136,93,-85,-22,116,65,111,106,83,89,38
29,124,93,-73,-28,110,59,99,100,71,77,26
23,112,87,-61,-28,104,47,87,88,59,65,20
29,106,75,-67,-22,92,29,69,64,41,53,8
17,94,75,-55,-28,86,29,45,46,29,41,3
11,76,63,-37,-22,74,23,33,28,17,29,-2
5,58,51,-31,-22,56,23,15,10,11,18,-14
-1,52,51,-19,-22,56,23,9,4,0,13,-14
-1,40,39,-13,-16,44,17,3,-8,-11,-5,-20
-6,40,45,-13,-22,44,17,-3,-8,-23,-11,-32
-6,40,45,-13,-22,44,23,3,-8,-29,-17,-32
-23,28,51,-2,-34,38,29,9,-2,-35,-17,-38
-41,16,57,15,-46,38,35,15,-2,-29,-17,-38
-47,16,63,15,-52,38,35,21,4,-23,-11,-32
-47,22,69,9,-58,44,41,27,10,-17,-11,-26
-53,28,81,15,-64,56,47,39,22,-5,-5,-20
-59,22,81,15,-70,50,53,57,34,0,1,-20
-65,28,93,21,-76,62,59,69,46,11,7,-20
-59,28,87,15,-70,56,59,81,58,23,7,-20
-47,34,81,3,-64,56,53,87,64,29,18,-26
-35,34,69,-2,-52,50,47,105,76,35,18,-26
-41,34,75,3,-58,56,47,117,82,41,23,-20
-35,34,69,-2,-52,50,41,123,88,41,29,-14
-29,34,63,-2,-46,50,35,135,94,47,35,-14
-23,40,63,-7,-40,50,23,147,106,53,41,-8
-11,46,57,-19,-34,50,5,159,118,71,53,-2
-6,52,57,-19,-28,56,-17,171,130,77,59,3
5,46,39,-25,-16,44,-47,177,136,89,65,3
23,46,21,-31,0,38,-77,183,148,101,77,14
47,46,-1,-43,24,26,-107,189,166,119,95,26
77,58,-19,-67,48,20,-137,201,178,131,113,44
107,52,-55,-73,84,4,-185,195,184,143,125,50
131,52,-79,-85,108,-8,-233,201,196,155,143,62
155,52,-103,-97,132,-20,-281,201,202,167,155,74
167,40,-127,-97,150,-38,-335,189,202,179,161,80
185,22,-163,-103,174,-68,-389,171,190,179,167,80
203,11,-193,-103,198,-86,-437,141,178,179,161,80
221,11,-211,-115,216,-98,-473,111,166,179,161,80
239,0,-241,-115,240,-116,-503,81,154,185,167,86
263,-6,-271,-127,264,-134,-533,51,142,185,173,92
281,-12,-295,-133,288,-152,-569,9,124,179,173,98
305,-24,-331,-139,318,-176,-605,-44,94,161,161,92
323,-42,-367,-139,342,-200,-641,-91,64,149,161,92
335,-54,-391,-139,360,-218,-665,-127,40,143,161,92
341,-66,-409,-139,372,-236,-689,-157,28,143,161,98
365,-60,-427,-151,396,-242,-713,-193,10,143,161,110
401,-54,-457,-175,426,-254,-737,-235,-8,143,167,116
425,-48,-475,-187,450,-260,-761,-271,-25,149,173,122
455,-36,-493,-205,474,-260,-785,-313,-36,161,185,134
491,-36,-529,-223,510,-278,-815,-355,-54,173,203,146
515,-36,-553,-235,534,-290,-857,-421,-84,161,209,158
551,-42,-595,-253,570,-314,-905,-499,-132,149,215,164
587,-42,-631,-271,606,-332,-965,-589,-186,137,215,176
641,-36,-679,-301,660,-356,-1037,-691,-246,131,227,194
725,-36,-763,-343,744,-398,-1115,-799,-312,125,239,218
809,-48,-859,-379,834,-452,-1217,-907,-384,113,251,242
917,-60,-979,-427,948,-518,-1319,-1021,-462,101,263,266
1049,-66,-1117,-493,1080,-590,-1433,-1147,-558,89,275,296
1193,-78,-1273,-559,1230,-674,-1547,-1279,-642,77,299,344
1343,-66,-1411,-637,1374,-734,-1649,-1393,-714,95,353,416
1499,-48,-1549,-721,1524,-794,-1733,-1489,-774,107,413,512
1643,-30,-1675,-805,1656,-848,-1811,-1567,-822,131,485,608
1781,6,-1777,-895,1776,-884,-1871,-1621,-852,161,563,716
1907,28,-1879,-961,1896,-920,-1919,-1663,-882,191,641,824
2021,64,-1957,-1039,1992,-944,-1955,-1687,-894,221,707,926
2105,94,-2011,-1099,2058,-956,-1961,-1687,-894,257,773,1022
2171,130,-2041,-1147,2106,-950,-1955,-1669,-882,299,833,1106
2213,148,-2065,-1177,2142,-956,-1925,-1627,-870,329,875,1166
2219,148,-2071,-1177,2148,-956,-1871,-1579,-852,329,881,1190
2171,136,-2035,-1147,2106,-944,-1793,-1513,-846,293,833,1172
2075,112,-1963,-1087,2022,-920,-1679,-1453,-846,209,731,1100
1919,94,-1825,-1003,1872,-860,-1535,-1363,-828,113,599,1010
1721,82,-1639,-901,1680,-776,-1373,-1255,-798,11,467,902
1511,70,-1441,-787,1476,-680,-1211,-1141,-762,-71,341,782
1313,46,-1267,-679,1290,-608,-1055,-1027,-720,-143,221,656
1121,22,-1099,-571,1110,-536,-911,-913,-672,-191,125,530
929,0,-931,-463,930,-464,-779,-805,-624,-221,47,410
767,-18,-787,-373,774,-398,-659,-709,-564,-233,-5,314
635,-24,-661,-301,648,-338,-557,-613,-504,-227,-35,242
527,-24,-553,-247,540,-284,-461,-517,-432,-215,-47,194
431,-18,-451,-205,438,-230,-371,-427,-360,-191,-47,158
335,-18,-355,-157,342,-182,-287,-349,-294,-173,-47,128
263,-24,-289,-115,276,-152,-215,-277,-234,-155,-47,104
197,-30,-229,-85,210,-128,-161,-223,-198,-143,-47,80
137,-36,-175,-49,156,-104,-113,-181,-168,-125,-47,56
83,-42,-127,-19,102,-80,-77,-145,-150,-119,-47,26
47,-48,-97,3,72,-68,-53,-115,-138,-107,-53,8
11,-48,-61,21,36,-50,-29,-91,-120,-89,-53,-2
-11,-42,-31,21,6,-38,-6,-73,-102,-89,-59,-20
-35,-42,-7,33,-16,-26,23,-55,-84,-89,-65,-32
-59,-48,11,51,-34,-20,53,-39,-66,-95,-71,-44
-77,-42,33,57,-58,-2,77,-27,-54,-95,-77,-50
-95,-42,51,63,-76,4,95,-15,-42,-101,-83,-62
-113,-48,63,81,-88,10,107,3,-36,-101,-89,-74
-125,-48,75,87,-100,15,119,15,-36,-101,-89,-74
-143,-48,93,93,-118,20,119,21,-30,-95,-89,-80
-155,-48,105,99,-130,26,125,33,-25,-89,-89,-86
-167,-48,117,105,-142,32,137,45,-25,-83,-89,-80
-173,-48,123,111,-148,38,143,39,-20,-83,-83,-80
-179,-48,129,111,-154,38,155,45,-8,-83,-83,-80
-197,-54,141,123,-172,44,161,51,-2,-77,-83,-80
-203,-48,153,123,-178,50,173,57,4,-77,-77,-80
-197,-48,147,123,-172,50,179,63,10,-77,-77,-80
-203,-48,153,123,-178,50,185,69,10,-77,-83,-86
-203,-48,153,123,-178,50,185,81,16,-77,-83,-92
-197,-42,153,117,-178,56,191,87,22,-71,-83,-98
-203,-42,159,117,-184,56,197,93,28,-65,-77,-104
-203,-42,159,117,-184,56,203,105,34,-65,-77,-104
-215,-48,165,129,-190,56,203,111,40,-59,-77,-104
-215,-54,159,129,-190,50,209,117,46,-59,-77,-104
-221,-54,165,135,-196,56,215,123,46,-65,-83,-98
-227,-48,177,135,-202,62,221,129,52,-65,-83,-98
-227,-48,177,135,-202,62,227,135,52,-65,-83,-98
-233,-42,189,135,-214,74,233,141,52,-59,-77,-98
-227,-36,189,129,-208,74,233,147,52,-59,-77,-98
-227,-36,189,129,-208,74,233,147,52,-59,-83,-104
-227,-36,189,129,-208,74,233,153,58,-59,-83,-104
-227,-36,189,129,-208,74,233,159,64,-59,-77,-110
-227,-36,189,129,-208,74,239,165,70,-53,-71,-104
-227,-36,189,129,-208,74,245,171,76,-47,-65,-98
-233,-36,195,135,-214,80,251,177,82,-47,-65,-98
-233,-42,189,135,-214,74,251,177,82,-47,-71,-98
-233,-42,189,135,-214,74,257,183,88,-41,-65,-92
-227,-42,183,129,-208,68,257,183,88,-41,-65,-92
-227,-42,183,129,-208,68,257,183,94,-35,-65,-92
-227,-36,189,129,-208,74,263,189,94,-35,-65,-98
-221,-30,189,123,-208,80,263,189,100,-29,-65,-104
-221,-24,195,123,-208,86,269,195,106,-29,-65,-104
-221,-12,207,117,-214,98,269,201,106,-29,-65,-104
-221,-6,213,111,-220,104,275,207,112,-29,-65,-98
-233,-12,219,123,-226,104,281,207,118,-29,-65,-104
-245,-18,225,129,-238,104,287,213,118,-29,-65,-104
-239,-24,213,129,-226,92,287,219,118,-29,-65,-104
-233,-18,213,123,-226,98,293,225,124,-29,-65,-110
-233,-18,213,123,-226,98,299,231,124,-29,-59,-110
-233,-18,213,123,-226,98,299,237,130,-23,-59,-110
-227,-18,207,117,-220,92,305,243,130,-17,-53,-104
-227,-18,207,117,-220,92,311,249,136,-11,-53,-104
-233,-24,207,129,-220,92,311,255,136,-5,-53,-98
-233,-18,213,123,-226,98,317,261,142,0,-47,-92
-227,-12,213,117,-220,98,323,273,154,5,-47,-86
-227,-12,213,117,-220,98,323,279,160,11,-41,-80
-239,-12,225,123,-232,104,335,291,166,11,-29,-74
-245,-12,231,129,-238,110,341,297,172,5,-29,-80
-245,-6,237,123,-244,116,341,303,178,5,-35,-86
-239,0,237,117,-238,116,347,309,184,5,-29,-86
-239,11,249,111,-244,128,353,321,190,5,-29,-92
-245,11,255,117,-250,134,365,333,196,11,-29,-98
-239,16,255,111,-244,134,371,339,202,17,-29,-104
-245,11,255,117,-250,134,371,351,208,23,-29,-98
-251,11,261,117,-256,134,377,357,220,29,-29,-92
-251,16,267,117,-256,140,383,363,226,29,-29,-92
-251,22,273,111,-262,146,389,375,232,29,-29,-92
-251,16,267,117,-256,140,395,381,232,29,-29,-92
-251,16,267,117,-256,140,395,393,238,29,-35,-104
-257,16,273,123,-262,146,407,405,244,35,-29,-110
-251,28,279,111,-262,152,407,411,250,41,-29,-116
-245,40,285,105,-262,164,413,423,262,47,-23,-110
-251,34,285,105,-268,158,419,435,274,53,-17,-104
-251,34,285,105,-268,158,425,447,280,65,-17,-98
-245,34,279,105,-262,158,425,453,292,77,-11,-86
-239,40,279,99,-256,158,425,465,298,83,-11,-80
-227,52,279,87,-250,164,425,471,310,89,-5,-74
-227,52,279,87,-250,164,431,477,316,95,1,-74
-221,58,279,81,-250,170,431,483,322,95,1,-80
-227,70,297,75,-262,182,431,483,328,101,7,-80
-227,70,297,75,-262,182,431,489,334,101,13,-86
-227,70,297,75,-262,182,431,501,346,113,18,-80
-227,76,303,75,-262,188,431,513,358,125,23,-68
-215,88,303,63,-256,194,425,519,364,125,23,-56
-203,94,297,51,-250,194,419,525,370,131,29,-50
-203,94,297,51,-250,194,419,525,370,137,29,-44
-191,100,291,45,-238,194,419,531,376,143,29,-44
-179,106,285,33,-232,194,407,531,376,143,35,-44
-173,106,279,33,-226,194,407,531,382,143,41,-44
-167,106,273,27,-220,188,401,531,382,149,53,-38
-149,100,249,27,-196,176,389,519,382,149,53,-32
-149,94,243,27,-196,170,377,513,382,155,53,-26
-137,94,231,21,-184,164,365,507,376,155,53,-20
-131,94,225,15,-178,158,353,507,382,155,53,-8
-119,100,219,9,-166,158,347,501,382,155,53,-2
-113,94,207,9,-160,152,341,489,376,149,53,-2
-113,88,201,15,-154,146,335,483,370,149,59,3
-95,94,189,-2,-142,140,323,477,358,143,59,3
-71,94,165,-13,-118,128,311,465,346,143,59,-2
-59,94,153,-19,-106,122,299,453,340,143,59,-8
-53,94,147,-19,-100,122,287,441,328,143,53,-8
-41,94,135,-25,-88,116,275,423,316,137,53,-8
-29,100,129,-31,-76,116,263,405,310,131,53,-2
-23,106,129,-43,-76,116,251,393,298,125,47,3
-23,112,135,-43,-76,122,239,375,280,119,47,8
-11,112,123,-49,-64,116,221,357,268,107,41,14
-6,112,117,-49,-58,116,203,339,256,107,41,20
5,112,105,-55,-46,110,191,321,244,101,41,26
23,106,81,-61,-28,98,173,303,232,95,35,26
23,100,75,-55,-22,92,161,279,214,83,29,26
35,88,51,-55,-6,74,143,255,196,77,29,26
41,82,39,-61,0,62,137,237,184,71,29,32
47,76,27,-55,12,56,125,219,172,59,18,26
41,64,21,-49,12,44,113,195,154,53,18,26
35,64,27,-43,6,50,107,177,142,47,13,26
35,58,21,-43,6,44,95,165,130,41,13,26
29,52,21,-37,6,38,89,147,118,35,13,32
23,52,27,-31,0,44,89,135,106,29,7,26
23,46,21,-31,0,38,83,123,94,23,1,26
23,40,16,-25,6,32,77,111,82,11,-5,20
35,40,5,-31,18,26,77,99,70,5,-11,14
23,34,11,-25,6,26,71,93,64,0,-11,8
11,28,16,-13,0,26,71,87,58,0,-11,8
5,28,21,-13,-6,26,71,75,58,0,-17,3
-6,28,33,-7,-16,32,65,75,52,-5,-17,3
-11,22,33,-7,-22,26,71,69,52,0,-17,3
-23,16,39,3,-28,26,71,63,46,-5,-23,3
-29,11,39,9,-34,26,71,57,40,-11,-23,3
-29,0,27,15,-28,15,77,45,34,-11,-23,3
-23,-6,16,9,-22,4,71,39,28,-17,-29,-2
-29,-12,16,21,-22,4,77,33,22,-23,-23,-8
-41,-18,21,27,-34,4,77,33,22,-23,-17,-8
-53,-18,33,33,-46,10,77,27,16,-23,-17,-2
-59,-18,39,33,-52,10,77,27,10,-23,-17,-2
-65,-18,45,39,-58,15,71,27,10,-23,-17,-8
-71,-12,57,39,-64,20,71,27,4,-29,-23,-8
-71,-6,63,33,-70,26,71,27,4,-35,-23,-8
-65,-6,57,33,-64,26,77,21,4,-35,-23,-14
-65,-12,51,39,-58,20,77,21,-2,-41,-29,-20
-65,-24,39,45,-52,10,83,21,-2,-47,-29,-20
-71,-24,45,45,-58,10,83,21,-2,-41,-29,-20
-71,-30,39,45,-58,4,83,21,-2,-41,-35,-20
-83,-36,45,57,-64,4,77,15,-2,-41,-35,-20
-89,-36,51,63,-70,10,77,15,4,-41,-35,-14
-89,-36,51,63,-70,10,71,15,4,-47,-41,-14
-83,-30,51,51,-70,10,71,15,4,-47,-41,-14
-71,-30,39,45,-58,4,77,15,10,-47,-35,-14
-65,-36,27,51,-46,-2,77,15,4,-47,-35,-20
-71,-42,27,51,-52,-8,77,9,-2,-53,-35,-26
-77,-36,39,57,-58,4,77,3,-2,-47,-35,-32
-71,-30,39,45,-58,4,77,3,-2,-41,-29,-32
-77,-30,45,51,-64,10,77,3,-2,-41,-29,-38
-89,-30,57,57,-76,15,77,3,-2,-41,-29,-32
-89,-30,57,57,-76,15,77,-3,-8,-47,-29,-26
-95,-36,57,63,-76,10,71,-3,-8,-53,-41,-26
-95,-42,51,63,-76,4,71,-3,-8,-59,-41,-32
-95,-48,45,69,-70,-2,77,-3,-8,-53,-41,-26
-83,-48,33,63,-58,-8,77,3,-8,-59,-41,-26
-83,-60,21,69,-52,-20,77,3,-8,-59,-41,-26
-77,-54,21,63,-52,-14,83,3,-14,-59,-41,-26
-77,-42,33,57,-58,-2,83,3,-14,-53,-41,-26
-77,-36,39,57,-58,4,83,3,-14,-53,-41,-32
-83,-36,45,57,-64,4,77,3,-14,-53,-41,-32
-89,-36,51,63,-70,10,77,3,-14,-47,-41,-26
-101,-42,57,69,-82,10,77,3,-8,-47,-41,-26
-107,-48,57,75,-82,4,77,3,-8,-47,-41,-26
-101,-48,51,75,-76,4,77,3,-2,-47,-41,-26
-95,-48,45,69,-70,-2,77,3,-2,-53,-41,-32
-95,-48,45,69,-70,-2,77,3,-2,-53,-41,-32
-89,-54,33,69,-64,-8,71,-3,-8,-59,-47,-32
-83,-54,27,63,-58,-14,71,-3,-8,-59,-53,-38
-89,-54,33,69,-64,-8,77,-3,-8,-59,-59,-38
-83,-48,33,63,-58,-8,77,-3,-8,-59,-59,-32
-83,-48,33,63,-58,-8,83,-3,-8,-53,-59,-32
-83,-48,33,63,-58,-8,83,3,-8,-53,-53,-26
-83,-42,39,57,-64,-2,77,9,-8,-53,-53,-26
-83,-48,33,63,-58,-8,77,9,-8,-47,-47,-26
-83,-42,39,57,-64,-2,71,15,-8,-53,-47,-20
-83,-42,39,57,-64,-2,77,9,-8,-53,-53,-26
-83,-42,39,57,-64,-2,77,9,-8,-59,-53,-26
-83,-48,33,63,-58,-8,77,15,-8,-53,-53,-32
-95,-48,45,69,-70,-2,77,9,-8,-53,-53,-32
-95,-54,39,69,-70,-8,77,9,-8,-53,-53,-32
-95,-48,45,69,-70,-2,77,9,-8,-53,-53,-32
-89,-42,45,63,-70,4,77,15,-8,-47,-53,-32
-89,-36,51,63,-70,10,77,15,-2,-47,-53,-32
-83,-36,45,57,-64,4,77,21,-2,-47,-53,-32
-77,-36,39,57,-58,4,83,15,4,-47,-53,-32
-77,-42,33,57,-58,-2,83,15,4,-41,-47,-32
-77,-42,33,57,-58,-2,83,15,4,-41,-47,-32
-89,-48,39,69,-64,-2,83,21,4,-41,-47,-26
-89,-36,51,63,-70,10,83,21,-2,-41,-47,-26
-95,-36,57,63,-76,10,83,21,-2,-47,-53,-26
-101,-42,57,69,-82,10,89,27,-2,-47,-53,-26
-101,-48,51,75,-76,4,83,27,-2,-47,-53,-26
-89,-48,39,69,-64,-2,83,21,-2,-47,-53,-26
-83,-42,39,57,-64,-2,83,21,-2,-41,-47,-20
-83,-42,39,57,-64,-2,83,15,-2,-35,-47,-20
-77,-42,33,57,-58,-2,83,15,-2,-41,-47,-20
-77,-42,33,57,-58,-2,83,15,4,-41,-41,-20
-77,-42,33,57,-58,-2,89,21,4,-41,-41,-20
-77,-42,33,57,-58,-2,83,15,-2,-41,-47,-20
-89,-48,39,69,-64,-2,83,15,-2,-41,-47,-14
-95,-42,51,63,-76,4,83,21,-2,-41,-41,-8
-89,-42,45,63,-70,4,83,21,4,-35,-41,3
-83,-36,45,57,-64,4,83,21,4,-35,-35,3
-77,-36,39,57,-58,4,89,21,4,-35,-35,8
-71,-42,27,51,-52,-8,89,21,4,-35,-35,3
-65,-42,21,51,-46,-8,89,15,-2,-41,-41,-2
-65,-42,21,51,-46,-8,83,21,-2,-41,-41,-8
-71,-42,27,51,-52,-8,83,21,-2,-35,-41,-8
-83,-42,39,57,-64,-2,83,21,-8,-41,-41,-14
-89,-36,51,63,-70,10,83,21,-8,-47,-53,-14
-89,-30,57,57,-76,15,83,21,-8,-47,-53,-14
-95,-36,57,63,-76,10,83,15,-8,-47,-53,-8
-89,-42,45,63,-70,4,83,15,-8,-47,-53,-8
-83,-36,45,57,-64,4,83,9,-2,-41,-47,-8
-83,-42,39,57,-64,-2,77,9,-2,-41,-47,-2
-89,-48,39,69,-64,-2,77,15,-2,-41,-47,-2
-83,-48,33,63,-58,-8,71,15,-2,-41,-47,-2
-77,-42,33,57,-58,-2,71,21,-2,-41,-47,-2
-77,-36,39,57,-58,4,71,21,-8,-47,-53,-8
-77,-30,45,51,-64,10,71,21,-8,-53,-53,-8
-83,-30,51,51,-70,10,77,21,-8,-53,-59,-14
-83,-36,45,57,-64,4,77,21,-2,-59,-59,-20
-83,-36,45,57,-64,4,83,15,-2,-59,-59,-20
-89,-42,45,63,-70,4,83,9,-2,-65,-65,-26
-95,-48,45,69,-70,-2,77,9,-8,-65,-71,-32
-101,-48,51,75,-76,4,77,3,-8,-65,-71,-38
-95,-42,51,63,-76,4,71,3,-14,-65,-71,-38
-89,-42,45,63,-70,4,71,3,-14,-65,-71,-38
-83,-36,45,57,-64,4,71,3,-14,-65,-71,-38
-83,-36,45,57,-64,4,77,3,-14,-59,-71,-32
-83,-36,45,57,-64,4,77,9,-8,-59,-65,-26
-89,-42,45,63,-70,4,83,9,-8,-59,-59,-20
-101,-42,57,69,-82,10,83,9,-2,-59,-53,-14
-101,-42,57,69,-82,10,83,3,-8,-65,-59,-14
-83,-42,39,57,-64,-2,77,3,-14,-71,-65,-20
-83,-42,39,57,-64,-2,77,3,-20,-77,-65,-26
-77,-42,33,57,-58,-2,77,3,-20,-71,-65,-26
-77,-42,33,57,-58,-2,77,3,-20,-71,-65,-26
-77,-42,33,57,-58,-2,83,9,-14,-71,-65,-20
-83,-42,39,57,-64,-2,83,3,-14,-71,-65,-14
-95,-42,51,63,-76,4,83,3,-14,-71,-65,-14
-95,-42,51,63,-76,4,83,3,-14,-71,-71,-20
-89,-42,45,63,-70,4,83,-3,-14,-71,-71,-20
-89,-42,45,63,-70,4,83,-3,-14,-71,-71,-26
-89,-42,45,63,-70,4,83,-3,-14,-77,-65,-26
-89,-36,51,63,-70,10,83,3,-14,-77,-65,-32
-95,-36,57,63,-76,10,83,3,-20,-77,-71,-32
-95,-42,51,63,-76,4,83,3,-20,-83,-71,-32
-101,-42,57,69,-82,10,83,3,-25,-83,-77,-26
-107,-42,63,69,-88,10,83,3,-25,-83,-77,-20
-95,-42,51,63,-76,4,83,3,-25,-77,-77,-20
-101,-48,51,75,-76,4,83,3,-25,-77,-77,-20
-101,-54,45,75,-76,-2,83,3,-25,-77,-77,-20
-95,-60,33,75,-64,-14,83,3,-30,-77,-83,-26
-89,-60,27,75,-58,-14,83,9,-30,-77,-77,-26
-89,-60,27,75,-58,-14,83,3,-25,-77,-77,-26
-95,-60,33,75,-64,-14,77,-3,-30,-83,-83,-32
-89,-48,39,69,-64,-2,77,-3,-30,-89,-83,-26
-95,-48,45,69,-70,-2,77,-3,-30,-89,-83,-20
-101,-54,45,75,-76,-2,77,-9,-30,-89,-89,-14
-101,-54,45,75,-76,-2,77,-9,-25,-89,-89,-14
-101,-54,45,75,-76,-2,83,-3,-25,-83,-89,-8
-95,-48,45,69,-70,-2,89,-3,-25,-83,-89,-2
-95,-48,45,69,-70,-2,89,-3,-25,-83,-89,-8
-95,-54,39,69,-70,-8,89,-3,-30,-83,-89,-14
-95,-54,39,69,-70,-8,95,-3,-30,-83,-83,-20
-107,-60,45,81,-76,-8,89,-3,-36,-83,-83,-20
-107,-60,45,81,-76,-8,83,-3,-36,-89,-83,-20
-107,-54,51,75,-82,-2,83,-9,-36,-95,-89,-20
-119,-54,63,81,-94,4,77,-9,-36,-95,-89,-14
-113,-54,57,81,-88,4,77,-15,-36,-95,-89,-8
-107,-42,63,69,-88,10,77,-15,-36,-95,-89,-8
-101,-42,57,69,-82,10,77,-15,-36,-89,-89,-8
-101,-48,51,75,-76,4,77,-21,-36,-89,-83,-14
-101,-48,51,75,-76,4,77,-21,-42,-95,-89,-14
-101,-54,45,75,-76,-2,71,-21,-48,-101,-95,-20
-101,-54,45,75,-76,-2,77,-21,-48,-101,-89,-20
-107,-54,51,75,-82,-2,77,-15,-48,-101,-89,-14
-107,-60,45,81,-76,-8,77,-9,-48,-101,-83,-14
-101,-54,45,75,-76,-2,77,-9,-48,-95,-83,-20
-101,-54,45,75,-76,-2,83,-15,-42,-95,-83,-14
-101,-48,51,75,-76,4,83,-21,-42,-95,-83,-20
-107,-48,57,75,-82,4,77,-27,-42,-101,-89,-20
-113,-48,63,81,-88,10,83,-21,-36,-101,-89,-26
-107,-54,51,75,-82,-2,83,-21,-36,-101,-83,-26
-101,-54,45,75,-76,-2,77,-21,-36,-101,-83,-26
-101,-54,45,75,-76,-2,77,-21,-36,-101,-83,-26
-101,-48,51,75,-76,4,77,-21,-36,-101,-89,-20
-95,-48,45,69,-70,-2,77,-21,-36,-101,-89,-14
-95,-42,51,63,-76,4,83,-21,-36,-95,-95,-8
-101,-42,57,69,-82,10,83,-21,-30,-95,-95,-8
-95,-42,51,63,-76,4,83,-21,-30,-95,-89,-8
-95,-42,51,63,-76,4,89,-21,-30,-89,-89,-8
-101,-42,57,69,-82,10,89,-21,-30,-95,-89,-8
-101,-48,51,75,-76,4,89,-21,-30,-95,-83,-8
-101,-48,51,75,-76,4,83,-21,-36,-101,-83,-14
-101,-54,45,75,-76,-2,83,-15,-36,-101,-83,-14
-101,-54,45,75,-76,-2,83,-15,-30,-95,-83,-20
-101,-54,45,75,-76,-2,83,-15,-30,-95,-83,-14
-101,-48,51,75,-76,4,77,-21,-36,-95,-83,-14
-101,-48,51,75,-76,4,77,-21,-42,-95,-89,-14
-107,-48,57,75,-82,4,77,-21,-36,-95,-89,-8
-107,-48,57,75,-82,4,77,-21,-36,-95,-89,-8
-101,-54,45,75,-76,-2,77,-21,-36,-95,-83,-14
-101,-54,45,75,-76,-2,83,-27,-30,-95,-83,-14
-101,-60,39,81,-70,-8,77,-27,-36,-101,-89,-14
-95,-54,39,69,-70,-8,77,-33,-36,-101,-89,-14
-95,-48,45,69,-70,-2,77,-33,-36,-101,-89,-8
-95,-42,51,63,-76,4,77,-33,-36,-101,-89,-8
-95,-42,51,63,-76,4,77,-33,-36,-101,-89,-8
-95,-42,51,63,-76,4,77,-33,-36,-101,-89,-2
-101,-42,57,69,-82,10,77,-21,-30,-95,-83,3
-101,-42,57,69,-82,10,83,-15,-30,-95,-83,3
-101,-36,63,69,-82,15,77,-15,-36,-95,-83,3
-107,-42,63,69,-88,10,83,-15,-30,-95,-83,3
-107,-54,51,75,-82,-2,83,-21,-30,-95,-83,-2
-101,-48,51,75,-76,4,77,-27,-36,-101,-89,-8
-101,-48,51,75,-76,4,77,-27,-36,-101,-95,-8
-101,-48,51,75,-76,4,83,-33,-36,-101,-95,-8
-113,-42,69,75,-94,15,77,-33,-42,-101,-95,-8
-113,-42,69,75,-94,15,77,-33,-42,-95,-89,-8
-113,-48,63,81,-88,10,77,-33,-42,-95,-89,-8
-107,-42,63,69,-88,10,77,-33,-42,-95,-89,-8
-107,-48,57,75,-82,4,77,-33,-42,-95,-89,-8
-107,-54,51,75,-82,-2,77,-27,-42,-95,-89,-8
-101,-54,45,75,-76,-2,83,-27,-42,-95,-89,-8
-95,-48,45,69,-70,-2,83,-27,-42,-95,-95,-8
-95,-48,45,69,-70,-2,83,-27,-42,-95,-95,-14
-107,-54,51,75,-82,-2,77,-27,-42,-101,-101,-14
-113,-54,57,81,-88,4,77,-27,-42,-101,-101,-20
-107,-54,51,75,-82,-2,71,-33,-48,-101,-107,-20
-107,-48,57,75,-82,4,77,-27,-42,-95,-107,-20
-113,-42,69,75,-94,15,77,-33,-42,-95,-107,-20
-119,-48,69,81,-94,10,71,-33,-48,-101,-107,-26
-113,-42,69,75,-94,15,71,-27,-42,-101,-101,-26
-107,-42,63,69,-88,10,77,-27,-42,-101,-101,-26
-101,-36,63,69,-82,15,71,-33,-48,-101,-101,-26
-101,-42,57,69,-82,10,71,-33,-48,-107,-107,-26
-101,-42,57,69,-82,10,77,-33,-48,-101,-107,-26
-101,-42,57,69,-82,10,77,-27,-48,-101,-101,-26
-107,-48,57,75,-82,4,71,-27,-48,-101,-101,-26
-101,-42,57,69,-82,10,71,-33,-48,-101,-101,-26
-101,-42,57,69,-82,10,71,-33,-48,-101,-107,-26
-101,-42,57,69,-82,10,71,-39,-48,-95,-107,-26
-107,-48,57,75,-82,4,71,-39,-54,-95,-107,-26
-107,-42,63,69,-88,10,65,-39,-54,-101,-101,-20
-107,-42,63,69,-88,10,71,-39,-54,-95,-101,-20
-101,-42,57,69,-82,10,71,-39,-54,-101,-101,-20
-95,-36,57,63,-76,10,71,-33,-54,-101,-95,-20
-101,-36,63,69,-82,15,71,-33,-54,-101,-101,-20
-107,-36,69,69,-88,15,77,-33,-54,-101,-101,-20
-107,-36,69,69,-88,15,77,-33,-54,-101,-101,-20
-107,-48,57,75,-82,4,71,-33,-54,-101,-101,-14
-101,-42,57,69,-82,10,71,-33,-54,-101,-101,-14
-101,-48,51,75,-76,4,65,-33,-54,-101,-95,-14
-107,-48,57,75,-82,4,65,-33,-54,-101,-89,-8
-107,-48,57,75,-82,4,65,-33,-54,-101,-89,-2
-107,-54,51,75,-82,-2,59,-33,-54,-101,-89,-8
-107,-54,51,75,-82,-2,59,-39,-54,-101,-95,-8
-107,-54,51,75,-82,-2,59,-39,-54,-101,-95,-14
-107,-54,51,75,-82,-2,59,-39,-60,-101,-95,-20
-101,-42,57,69,-82,10,59,-33,-60,-101,-95,-20
-95,-42,51,63,-76,4,65,-33,-54,-95,-89,-14
-95,-36,57,63,-76,10,65,-27,-48,-95,-89,-8
-89,-30,57,57,-76,15,71,-21,-48,-95,-89,-2
-83,-18,63,45,-76,20,71,-15,-42,-89,-83,3
-77,-12,63,45,-70,26,77,-9,-36,-83,-77,3
-71,-6,63,33,-70,26,83,-3,-30,-77,-71,8
-65,0,63,33,-64,32,89,3,-25,-65,-65,14
-53,6,57,21,-58,32,95,21,-14,-59,-53,20
-47,11,57,15,-52,32,107,27,-8,-53,-47,26
-41,11,51,15,-46,32,107,33,-2,-53,-47,32
-41,11,51,15,-46,32,107,39,4,-47,-41,38
-35,11,45,9,-40,26,107,45,10,-41,-35,38
-29,11,39,9,-34,26,107,51,16,-35,-29,44
-23,11,33,3,-28,20,113,57,22,-29,-29,50
-11,22,33,-7,-22,26,113,63,28,-23,-29,56
-6,28,33,-7,-16,32,113,69,28,-17,-29,62
-1,40,39,-13,-16,44,113,81,46,-5,-17,80
5,58,51,-31,-22,56,119,99,64,5,1,92
11,70,57,-37,-22,68,125,117,76,17,13,104
23,88,63,-49,-16,80,125,129,88,29,23,116
23,100,75,-55,-22,92,131,141,100,41,35,122
23,112,87,-61,-28,104,131,153,112,59,47,128
29,124,93,-73,-28,110,125,159,118,65,53,134
29,130,99,-79,-34,116,119,153,118,71,53,134
41,142,99,-91,-28,122,107,153,118,71,59,140
41,130,87,-85,-22,110,101,147,118,65,59,140
41,118,75,-79,-16,98,89,141,112,59,59,134
35,106,69,-67,-16,92,77,129,100,47,47,122
29,82,51,-55,-11,68,65,111,76,23,29,110
11,58,45,-31,-16,56,53,87,58,0,13,92
11,46,33,-25,-11,44,47,63,40,-5,1,86
5,34,27,-19,-11,32,35,45,16,-17,-17,74
-6,28,33,-7,-16,32,29,21,4,-29,-29,68
-6,22,27,-7,-16,26,29,15,-8,-41,-41,62
-11,11,21,-2,-16,15,23,3,-20,-47,-47,62
-11,6,16,-2,-16,10,23,-3,-25,-59,-53,56
-11,-6,5,3,-11,-2,23,-9,-25,-65,-59,56
-29,-12,16,21,-22,4,29,-9,-25,-59,-53,62
-29,-12,16,21,-22,4,35,3,-20,-59,-53,62
-47,-12,33,27,-40,10,41,9,-14,-53,-53,62
-53,-12,39,33,-46,15,47,21,-8,-53,-47,68
-59,-12,45,33,-52,15,53,45,4,-41,-41,68
-59,-12,45,33,-52,15,65,57,16,-29,-35,68
-59,-12,45,33,-52,15,71,69,28,-23,-35,68
-59,-12,45,33,-52,15,71,81,34,-17,-29,62
-59,-18,39,33,-52,10,65,93,46,-11,-23,62
-59,-12,45,33,-52,15,65,105,52,0,-17,62
-47,0,45,21,-46,20,65,117,64,0,-11,62
-41,0,39,21,-40,20,59,123,70,5,-5,68
-41,-6,33,21,-40,15,53,135,82,11,-5,68
-35,-6,27,15,-34,10,47,141,88,17,-5,62
-23,0,21,9,-22,10,35,153,94,23,7,62
-17,-6,11,9,-16,4,23,165,106,41,18,74
-6,0,5,3,-6,4,5,177,118,53,23,80
11,0,-13,-2,12,-2,-23,183,130,65,35,92
23,-6,-31,-7,24,-14,-53,189,136,77,41,98
41,-6,-49,-19,42,-26,-89,195,148,83,53,104
65,0,-67,-31,66,-32,-125,207,166,101,71,110
77,0,-79,-37,78,-38,-167,219,178,119,83,116
95,6,-91,-49,90,-38,-215,219,190,131,101,122
125,11,-115,-67,120,-50,-263,213,202,143,113,134
143,6,-139,-73,138,-62,-317,201,202,155,125,140
167,0,-169,-79,168,-80,-371,177,196,161,131,146
197,-12,-211,-91,204,-110,-425,165,196,167,137,152
221,-24,-247,-97,234,-134,-467,141,190,173,149,158
245,-42,-289,-103,264,-164,-521,105,172,167,149,158
269,-60,-331,-103,300,-194,-563,51,142,161,143,158
287,-78,-367,-103,324,-218,-605,-3,112,155,137,152
299,-96,-397,-97,348,-242,-647,-55,76,149,137,152
311,-108,-421,-97,366,-260,-677,-115,46,143,131,152
335,-114,-451,-109,390,-278,-707,-157,22,137,131,152
359,-114,-475,-121,414,-290,-731,-193,4,137,131,158
383,-120,-505,-127,444,-308,-755,-229,-14,131,137,164
413,-114,-529,-151,468,-320,-785,-277,-42,125,149,176
443,-114,-559,-163,498,-332,-827,-337,-78,119,155,182
473,-114,-589,-181,528,-350,-869,-397,-102,113,155,194
509,-126,-637,-193,570,-380,-911,-457,-144,107,161,206
545,-138,-685,-205,612,-410,-959,-535,-186,101,167,212
587,-144,-733,-217,660,-434,-1013,-619,-234,95,173,218
635,-156,-793,-235,714,-470,-1079,-709,-288,83,173,236
689,-162,-853,-265,768,-506,-1157,-811,-360,77,179,254
779,-168,-949,-301,864,-554,-1235,-919,-432,65,191,278
887,-186,-1075,-349,978,-626,-1331,-1033,-504,53,203,302
1001,-216,-1219,-391,1110,-716,-1439,-1153,-594,29,209,326
1121,-246,-1369,-439,1242,-806,-1541,-1273,-690,11,227,362
1247,-264,-1513,-487,1380,-884,-1649,-1399,-774,0,257,404
1385,-258,-1645,-565,1512,-950,-1739,-1495,-828,23,323,488
1529,-228,-1759,-649,1644,-992,-1817,-1579,-864,71,407,584
1661,-192,-1855,-733,1758,-1022,-1877,-1639,-900,119,503,704
1793,-162,-1957,-817,1872,-1058,-1925,-1687,-930,155,593,818
1901,-126,-2029,-889,1962,-1076,-1961,-1711,-942,197,683,932
2003,-90,-2095,-955,2046,-1088,-1979,-1717,-948,233,761,1034
2075,-42,-2119,-1015,2094,-1076,-1967,-1693,-936,281,833,1136
2111,6,-2107,-1057,2106,-1046,-1925,-1657,-906,317,893,1220
2135,40,-2095,-1081,2118,-1022,-1871,-1603,-876,335,923,1274
2105,64,-2041,-1081,2076,-986,-1799,-1543,-852,335,923,1298
2027,58,-1969,-1039,1998,-950,-1697,-1477,-846,281,851,1268
1907,46,-1861,-973,1884,-902,-1577,-1405,-852,185,725,1190
1739,46,-1693,-889,1716,-818,-1427,-1309,-828,89,593,1088
1553,28,-1525,-787,1542,-746,-1265,-1195,-792,0,461,980
1361,16,-1345,-685,1356,-662,-1109,-1075,-738,-65,341,866
1181,6,-1177,-595,1176,-584,-965,-949,-684,-125,239,746
1001,-6,-1009,-499,1002,-506,-827,-835,-630,-167,149,632
833,-18,-853,-409,840,-434,-701,-727,-582,-203,71,518
695,-18,-715,-337,702,-362,-587,-631,-522,-215,18,434
575,-18,-595,-277,582,-302,-491,-541,-462,-209,-11,356
467,-12,-481,-223,474,-242,-401,-457,-402,-197,-35,302
371,-12,-385,-175,378,-194,-317,-379,-342,-185,-47,254
299,-18,-319,-139,306,-164,-245,-313,-288,-167,-59,218
227,-24,-253,-97,240,-134,-173,-247,-240,-149,-65,188
167,-30,-199,-67,180,-110,-125,-199,-198,-137,-65,164
113,-42,-157,-37,132,-98,-83,-157,-174,-131,-65,146
65,-48,-115,-7,90,-80,-53,-121,-156,-131,-71,122
29,-48,-79,9,54,-62,-23,-91,-138,-125,-71,98
-1,-48,-49,27,24,-44,5,-67,-120,-119,-77,80
-35,-48,-13,39,-11,-32,29,-44,-102,-113,-83,56
-59,-42,16,45,-40,-14,47,-27,-90,-113,-83,44
-83,-36,45,57,-64,4,71,-15,-72,-107,-89,38
-101,-42,57,69,-82,10,83,-3,-54,-107,-89,32
-113,-48,63,81,-88,10,101,9,-48,-107,-95,26
-125,-54,69,87,-100,10,113,21,-42,-107,-101,20
-137,-54,81,93,-112,15,119,27,-36,-107,-101,20
-149,-54,93,99,-124,20,131,39,-30,-101,-101,14
-155,-54,99,99,-130,20,143,51,-30,-95,-101,8
-173,-54,117,111,-148,32,155,63,-25,-95,-101,3
-191,-54,135,117,-166,38,167,75,-20,-95,-101,3
-197,-48,147,123,-172,50,173,81,-14,-95,-101,-2
-203,-48,153,123,-178,50,173,81,-8,-89,-95,-8
-203,-48,153,123,-178,50,185,93,4,-83,-95,-8
-203,-48,153,123,-178,50,191,99,10,-83,-101,-14
-203,-48,153,123,-178,50,197,105,16,-83,-101,-14
-209,-48,159,129,-184,56,203,111,16,-77,-95,-14
-209,-48,159,129,-184,56,209,117,16,-77,-95,-14
-215,-48,165,129,-190,56,209,123,22,-71,-95,-20
-221,-42,177,129,-202,68,209,129,28,-71,-95,-20
-227,-42,183,129,-208,68,215,135,34,-65,-89,-20
-227,-42,183,129,-208,68,221,141,34,-65,-89,-20
-233,-48,183,141,-208,68,227,147,40,-71,-89,-20
-233,-42,189,135,-214,74,233,153,40,-65,-89,-14
-227,-42,183,129,-208,68,233,153,40,-65,-83,-14
-221,-36,183,129,-202,74,239,153,46,-59,-83,-14
-215,-36,177,123,-196,68,239,153,46,-59,-77,-14
-221,-36,183,129,-202,74,239,153,46,-53,-77,-20
-215,-24,189,117,-202,80,245,159,58,-53,-71,-20
-221,-24,195,123,-208,86,245,159,58,-53,-71,-20
-221,-24,195,123,-208,86,251,165,64,-53,-77,-26
-221,-24,195,123,-208,86,257,171,70,-53,-77,-32
-221,-24,195,123,-208,86,257,177,70,-47,-77,-32
-221,-18,201,117,-214,92,263,183,76,-47,-77,-32
-227,-24,201,123,-214,86,263,183,76,-47,-77,-32
-233,-30,201,129,-220,86,263,189,82,-47,-71,-26
-227,-30,195,123,-214,80,263,189,88,-41,-71,-26
-227,-24,201,123,-214,86,269,201,88,-35,-65,-26
-233,-30,201,129,-220,86,275,207,94,-35,-65,-20
-233,-30,201,129,-220,86,275,207,94,-35,-65,-26
-233,-30,201,129,-220,86,281,213,94,-29,-59,-26
-239,-24,213,129,-226,92,287,219,100,-29,-53,-26
-233,-18,213,123,-226,98,293,231,100,-23,-53,-26
-239,-18,219,123,-232,98,299,237,106,-23,-53,-32
-233,-18,213,123,-226,98,299,237,112,-23,-53,-38
-233,-12,219,123,-226,104,299,243,112,-17,-53,-38
-233,0,231,117,-232,116,305,249,124,-17,-53,-32
-227,6,231,105,-232,116,305,249,124,-11,-53,-26
-233,6,237,111,-238,122,311,255,130,-11,-53,-20
-233,6,237,111,-238,122,317,261,130,-11,-53,-20
-245,6,249,117,-250,128,323,273,136,-5,-47,-20
-251,11,261,117,-256,134,335,285,148,0,-41,-14
-251,11,261,117,-256,134,341,291,154,5,-35,-14
-251,6,255,117,-256,128,347,297,166,11,-29,-8
-245,11,255,117,-250,134,347,297,166,11,-23,-8
-245,22,267,111,-256,146,353,303,172,17,-23,-2
-245,28,273,111,-256,152,359,309,178,23,-23,3
-245,34,279,105,-262,158,359,315,184,23,-23,8
-245,34,279,105,-262,158,365,321,184,23,-23,8
-257,34,291,111,-274,164,371,339,190,29,-23,14
-251,34,285,105,-268,158,377,351,202,29,-23,20
-251,34,285,105,-268,158,377,357,208,35,-23,26
-257,40,297,111,-274,170,389,369,220,35,-23,26
-257,40,297,111,-274,170,395,375,226,35,-17,26
-257,40,297,111,-274,170,401,387,232,41,-11,26
-251,46,297,99,-274,170,407,393,244,47,-11,26
-251,52,303,99,-274,176,407,399,250,53,-11,26
-257,58,315,99,-286,188,413,411,256,59,-11,32
-269,58,327,105,-298,194,413,417,262,65,-5,26
-257,64,321,99,-286,194,413,429,274,71,1,26
-257,64,321,99,-286,194,419,435,280,77,1,26
-251,70,321,87,-286,194,425,447,292,83,13,32
-263,76,339,93,-298,206,431,459,304,95,18,38
-263,76,339,93,-298,206,431,465,310,95,18,38
-251,82,333,81,-292,206,431,471,316,101,18,44
-251,88,339,81,-292,212,437,483,328,107,18,50
-245,100,345,75,-292,224,437,495,334,113,18,50
-245,106,351,69,-298,230,437,501,334,119,18,56
-239,118,357,57,-298,236,437,513,346,125,23,62
-239,124,363,57,-298,242,437,519,352,137,35,68
-239,118,357,57,-298,236,437,531,364,143,41,74
-227,124,351,51,-286,236,437,537,370,155,53,86
-215,136,351,39,-280,242,437,549,382,161,59,98
-203,136,339,33,-268,236,437,555,388,173,65,110
-197,136,333,33,-262,236,431,555,388,173,71,122
-191,136,327,27,-256,230,425,555,388,179,71,122
-185,142,327,21,-256,236,419,555,394,179,71,122
-179,142,321,15,-250,230,419,549,400,185,71,122
-179,148,327,15,-250,236,407,549,400,191,71,122
-179,154,333,9,-256,242,401,543,400,197,77,128
-173,148,321,15,-244,236,389,543,400,197,77,128
-161,154,315,3,-238,236,383,537,400,203,83,128
-149,142,291,3,-220,218,371,531,400,203,83,134
-131,136,267,-2,-196,200,359,519,394,203,83,134
-113,142,255,-13,-184,200,353,513,394,197,83,134
-101,148,249,-19,-172,200,341,507,388,197,89,140
-95,148,243,-25,-166,194,329,495,382,197,89,146
-89,154,243,-31,-166,200,317,483,376,191,89,158
-77,160,237,-37,-154,200,299,471,364,185,83,158
-65,166,231,-49,-148,200,281,453,352,179,83,164
-53,166,219,-55,-136,194,263,435,340,179,83,164
-35,160,195,-61,-112,176,251,417,328,179,83,164
-23,154,177,-67,-100,164,239,405,316,179,83,164
-17,148,165,-61,-88,158,227,387,304,173,83,164
-6,142,147,-67,-76,146,209,369,286,161,83,164
5,148,141,-73,-64,146,197,345,274,149,77,164
11,148,135,-73,-58,146,179,327,262,143,77,164
17,148,129,-79,-52,140,167,309,244,131,71,164
17,142,123,-79,-52,134,161,285,226,125,65,158
23,136,111,-73,-40,128,149,261,208,119,65,164
23,124,99,-67,-34,116,137,237,190,107,53,158
29,118,87,-73,-28,104,125,219,172,101,47,152
35,112,75,-67,-16,98,119,207,160,95,41,152
47,112,63,-73,-6,92,113,195,148,89,41,146
41,100,57,-67,-6,80,107,183,136,83,35,146
35,88,51,-55,-6,74,101,171,124,71,29,146
23,82,57,-49,-16,74,95,159,112,65,29,146
23,76,51,-43,-11,68,95,141,94,53,23,146
17,64,45,-37,-11,56,89,123,88,41,18,146
11,58,45,-31,-16,56,83,111,76,35,18,146
-1,52,51,-19,-22,56,83,99,70,29,13,140
-6,46,51,-19,-28,50,83,93,58,23,7,140
-17,46,63,-13,-40,56,83,87,52,17,7,134
-17,34,51,-7,-34,44,83,87,46,17,1,134
-11,28,39,-7,-22,32,77,81,40,11,-5,134
-17,22,39,-2,-28,32,71,75,34,5,-11,134
-29,11,39,9,-34,26,71,69,22,5,-17,128
-41,6,45,15,-46,26,71,63,16,0,-23,122
-53,0,51,27,-52,26,71,57,10,0,-23,122
-59,0,57,27,-58,26,65,45,4,-5,-29,116
-59,0,57,27,-58,26,65,39,4,-11,-29,110
-59,0,57,27,-58,26,65,39,4,-11,-29,110
-59,-6,51,27,-58,20,71,39,4,-17,-23,110
-65,-6,57,33,-64,26,71,39,4,-17,-29,110
-71,-6,63,33,-70,26,77,39,4,-23,-29,110
-71,-12,57,39,-64,20,77,39,-2,-23,-41,104
-83,-18,63,45,-76,20,77,33,-2,-23,-41,104
-83,-24,57,51,-70,15,77,33,-8,-23,-41,98
-83,-24,57,51,-70,15,77,33,-14,-23,-47,92
-83,-18,63,45,-76,20,77,27,-14,-23,-47,92
-83,-18,63,45,-76,20,77,21,-14,-23,-47,86
-89,-18,69,51,-82,26,77,21,-14,-29,-47,80
-83,-18,63,45,-76,20,77,21,-14,-29,-47,80
-77,-18,57,45,-70,20,77,27,-14,-29,-47,74
-77,-24,51,51,-64,15,77,27,-20,-35,-53,74
-83,-30,51,51,-70,10,77,27,-20,-41,-53,68
-95,-42,51,63,-76,4,71,21,-25,-41,-53,68
-95,-36,57,63,-76,10,71,21,-25,-41,-53,68
-95,-36,57,63,-76,10,71,15,-25,-41,-53,68
-95,-30,63,57,-82,15,71,9,-25,-41,-53,68
-95,-36,57,63,-76,10,71,9,-25,-41,-53,62
-95,-30,63,57,-82,15,71,3,-25,-41,-53,62
-89,-24,63,57,-76,20,71,3,-25,-41,-53,68
-89,-30,57,57,-76,15,71,3,-25,-41,-59,68
-89,-36,51,63,-70,10,71,3,-30,-35,-59,68
-89,-36,51,63,-70,10,77,9,-30,-35,-53,68
-95,-42,51,63,-76,4,77,3,-30,-35,-53,68
-95,-42,51,63,-76,4,77,3,-30,-41,-53,68
-95,-36,57,63,-76,10,71,-3,-36,-47,-53,62
-95,-36,57,63,-76,10,71,-3,-30,-47,-47,56
-101,-36,63,69,-82,15,71,-3,-30,-47,-47,50
-95,-42,51,63,-76,4,71,-3,-30,-47,-47,44
-89,-36,51,63,-70,10,77,3,-30,-41,-47,44
-89,-30,57,57,-76,15,77,3,-30,-35,-47,38
-89,-30,57,57,-76,15,77,9,-30,-35,-47,44
-95,-30,63,57,-82,15,77,9,-30,-35,-53,44
-95,-36,57,63,-76,10,77,9,-30,-35,-53,44
-89,-36,51,63,-70,10,71,3,-36,-35,-53,38
-83,-30,51,51,-70,10,71,3,-36,-35,-53,38
-83,-30,51,51,-70,10,71,3,-36,-35,-53,32
-83,-30,51,51,-70,10,71,3,-30,-35,-47,26
-83,-30,51,51,-70,10,71,9,-30,-35,-47,26
-89,-30,57,57,-76,15,71,9,-30,-35,-47,26
-89,-30,57,57,-76,15,71,9,-30,-35,-47,20
-89,-36,51,63,-70,10,71,9,-30,-35,-47,20
-89,-42,45,63,-70,4,77,9,-30,-35,-41,20
-89,-36,51,63,-70,10,77,9,-30,-29,-41,26
-83,-36,45,57,-64,4,77,9,-30,-29,-35,26
-83,-30,51,51,-70,10,71,3,-30,-29,-41,20
-89,-30,57,57,-76,15,71,3,-36,-35,-47,20
-89,-30,57,57,-76,15,77,3,-30,-29,-41,20
-95,-30,63,57,-82,15,77,9,-30,-29,-35,20
-101,-30,69,63,-88,20,71,9,-30,-29,-35,20
-101,-30,69,63,-88,20,71,9,-30,-35,-35,26
-101,-30,69,63,-88,20,65,9,-36,-35,-41,26
-95,-30,63,57,-82,15,65,3,-30,-35,-35,26
-95,-30,63,57,-82,15,65,3,-30,-35,-41,32
-95,-24,69,57,-82,20,65,3,-30,-35,-41,32
-89,-24,63,57,-76,20,65,3,-25,-35,-41,32
-95,-30,63,57,-82,15,65,3,-25,-41,-47,26
-101,-24,75,63,-88,26,65,3,-25,-35,-41,26
-101,-24,75,63,-88,26,71,9,-25,-35,-41,20
-101,-24,75,63,-88,26,71,15,-20,-35,-35,20
-101,-24,75,63,-88,26,71,15,-20,-35,-35,26
-95,-24,69,57,-82,20,71,15,-20,-35,-35,26
-89,-24,63,57,-76,20,71,15,-25,-35,-35,26
-89,-30,57,57,-76,15,65,9,-25,-35,-35,14
-95,-30,63,57,-82,15,71,9,-25,-35,-35,14
-89,-18,69,51,-82,26,71,9,-25,-35,-35,14
-89,-18,69,51,-82,26,71,15,-25,-35,-35,14
-89,-12,75,51,-82,32,71,9,-25,-35,-29,14
-89,-6,81,45,-88,38,71,9,-25,-35,-29,20
-89,6,93,39,-94,50,77,15,-25,-35,-29,20
-89,6,93,39,-94,50,71,15,-25,-35,-29,26
-89,0,87,45,-88,44,71,15,-25,-41,-29,26
-83,-12,69,45,-76,26,71,15,-25,-41,-29,26
-89,-18,69,51,-82,26,71,9,-25,-41,-29,26
-89,-18,69,51,-82,26,71,9,-25,-35,-29,26
-89,-12,75,51,-82,32,77,9,-20,-29,-23,26
-89,-12,75,51,-82,32,83,3,-20,-29,-23,26
-83,-6,75,39,-82,32,83,3,-20,-23,-23,26
-83,-12,69,45,-76,26,77,3,-20,-29,-23,32
-83,-12,69,45,-76,26,77,9,-25,-29,-23,32
-83,-6,75,39,-82,32,71,9,-25,-29,-23,32
-83,-6,75,39,-82,32,71,15,-20,-35,-23,32
-83,-6,75,39,-82,32,71,9,-25,-35,-23,26
-83,6,87,33,-88,44,71,15,-20,-35,-17,26
-83,6,87,33,-88,44,71,9,-20,-35,-17,26
-83,0,81,39,-82,38,71,9,-25,-35,-23,26
-95,-6,87,45,-94,38,71,3,-25,-35,-29,26
-95,-6,87,45,-94,38,71,3,-25,-41,-35,20
-101,-6,93,51,-100,44,71,3,-25,-35,-35,20
-101,-12,87,57,-94,38,71,-3,-30,-41,-35,14
-89,-12,75,51,-82,32,71,-3,-30,-35,-35,14
-89,-12,75,51,-82,32,65,-3,-30,-41,-35,14
-83,-12,69,45,-76,26,65,-3,-30,-41,-29,14
-83,-6,75,39,-82,32,65,-3,-30,-35,-29,14
-83,-12,69,45,-76,26,65,-9,-36,-41,-29,8
-89,-12,75,51,-82,32,65,-15,-42,-41,-35,3
-83,-12,69,45,-76,26,71,-15,-36,-41,-35,8
-89,-12,75,51,-82,32,71,-15,-36,-41,-35,3
-83,-12,69,45,-76,26,77,-15,-36,-41,-41,3
-83,-12,69,45,-76,26,77,-15,-36,-41,-41,-2
-83,-12,69,45,-76,26,71,-15,-36,-41,-47,-2
-77,-12,63,45,-70,26,65,-15,-36,-47,-47,-2
-71,-12,57,39,-64,20,65,-15,-36,-41,-41,3
-83,-18,63,45,-76,20,65,-9,-36,-41,-41,3
-89,-18,69,51,-82,26,59,-15,-42,-47,-41,-2
-89,-12,75,51,-82,32,59,-21,-48,-47,-41,-2
-89,-12,75,51,-82,32,65,-21,-48,-47,-41,-8
-95,-12,81,51,-88,32,65,-21,-48,-47,-41,-2
-95,-12,81,51,-88,32,71,-15,-42,-47,-41,-2
-95,-12,81,51,-88,32,65,-15,-42,-53,-47,-2
-101,-18,81,57,-94,32,65,-21,-48,-53,-47,-2
-101,-18,81,57,-94,32,71,-15,-48,-53,-47,-2
-95,-18,75,51,-88,26,65,-15,-48,-59,-47,-8
-101,-12,87,57,-94,38,65,-15,-48,-59,-53,-8
-101,-6,93,51,-100,44,65,-15,-48,-59,-53,-14
-95,-12,81,51,-88,32,65,-15,-48,-59,-53,-14
-95,-12,81,51,-88,32,65,-21,-54,-59,-53,-20
-101,-18,81,57,-94,32,65,-21,-54,-59,-53,-14
-107,-18,87,57,-100,32,65,-21,-54,-53,-47,-8
-101,-12,87,57,-94,38,65,-15,-48,-53,-47,-8
-101,-12,87,57,-94,38,71,-15,-42,-59,-53,-8
-101,-12,87,57,-94,38,65,-15,-42,-59,-53,-8
-95,-12,81,51,-88,32,65,-15,-42,-59,-53,-8
-101,-12,87,57,-94,38,65,-21,-48,-59,-53,-8
-95,0,93,45,-94,44,65,-21,-42,-59,-53,-2
-95,0,93,45,-94,44,65,-21,-42,-53,-47,-2
-101,-12,87,57,-94,38,65,-27,-42,-53,-47,-2
-101,-12,87,57,-94,38,65,-27,-48,-59,-47,-2
-95,-12,81,51,-88,32,65,-21,-48,-59,-47,-2
-101,-18,81,57,-94,32,59,-27,-48,-59,-47,-8
-107,-24,81,63,-94,26,59,-27,-48,-65,-47,-8
-107,-24,81,63,-94,26,65,-27,-48,-65,-53,-14
-107,-30,75,63,-94,20,71,-27,-48,-65,-53,-20
-113,-30,81,69,-100,26,71,-27,-48,-59,-53,-20
-113,-30,81,69,-100,26,71,-33,-48,-59,-53,-20
-113,-24,87,69,-100,32,71,-33,-54,-59,-53,-20
-113,-18,93,63,-106,38,71,-27,-54,-59,-53,-20
-107,-18,87,57,-100,32,65,-33,-60,-59,-47,-20
-107,-18,87,57,-100,32,65,-33,-60,-59,-47,-20
-107,-18,87,57,-100,32,65,-27,-54,-53,-47,-14
-113,-24,87,69,-100,32,65,-21,-48,-53,-41,-8
-113,-24,87,69,-100,32,65,-27,-54,-59,-47,-8
-113,-30,81,69,-100,26,59,-33,-60,-65,-47,-8
-119,-36,81,75,-100,20,59,-33,-54,-65,-53,-8
-119,-30,87,69,-106,26,59,-33,-54,-65,-53,-8
-113,-24,87,69,-100,32,65,-27,-54,-65,-47,-8
-107,-18,87,57,-100,32,65,-27,-60,-65,-47,-8
-107,-18,87,57,-100,32,65,-27,-54,-59,-47,-8
-101,-18,81,57,-94,32,65,-27,-60,-59,-47,-8
-101,-18,81,57,-94,32,65,-27,-54,-59,-47,-8
-107,-18,87,57,-100,32,59,-27,-54,-59,-47,-8
-107,-18,87,57,-100,32,59,-33,-54,-65,-47,-8
-101,-12,87,57,-94,38,59,-33,-48,-65,-47,-8
-95,-12,81,51,-88,32,65,-27,-42,-59,-47,-2
-101,-12,87,57,-94,38,71,-27,-42,-59,-41,-2
-107,-18,87,57,-100,32,65,-33,-48,-65,-41,-2
-113,-18,93,63,-106,38,65,-33,-48,-65,-47,-2
-113,-12,99,63,-106,44,71,-27,-48,-65,-47,-2
-107,-12,93,57,-100,38,65,-27,-48,-65,-47,-2
-107,-12,93,57,-100,38,65,-27,-54,-65,-47,-2
-113,-18,93,63,-106,38,59,-27,-60,-65,-53,-2
-113,-18,93,63,-106,38,59,-27,-60,-65,-47,-2
-113,-18,93,63,-106,38,59,-27,-60,-65,-47,-2
-113,-24,87,69,-100,32,59,-27,-60,-59,-47,-2
-113,-24,87,69,-100,32,59,-33,-60,-59,-53,-2
-107,-24,81,63,-94,26,53,-33,-60,-59,-53,-14
-107,-18,87,57,-100,32,53,-33,-60,-59,-53,-14
-119,-24,93,69,-106,32,59,-27,-54,-59,-53,-20
-119,-24,93,69,-106,32,59,-27,-54,-65,-53,-20
-113,-24,87,69,-100,32,59,-27,-54,-65,-53,-20
-113,-24,87,69,-100,32,59,-27,-54,-65,-47,-14
-107,-24,81,63,-94,26,65,-27,-54,-65,-47,-14
-101,-24,75,63,-88,26,65,-33,-54,-65,-47,-14
-113,-24,87,69,-100,32,65,-39,-60,-65,-47,-14
-107,-18,87,57,-100,32,65,-39,-66,-65,-53,-20
-107,-12,93,57,-100,38,65,-44,-66,-65,-53,-26
-107,-12,93,57,-100,38,65,-44,-66,-59,-47,-26
-107,-12,93,57,-100,38,65,-39,-60,-65,-47,-26
-107,-6,99,51,-106,44,65,-39,-60,-65,-47,-20
-107,-6,99,51,-106,44,65,-33,-60,-65,-41,-14
-113,-6,105,57,-112,50,59,-39,-60,-59,-41,-8
-113,-18,93,63,-106,38,65,-39,-60,-59,-41,-8
-107,-18,87,57,-100,32,65,-39,-60,-65,-41,-14
-107,-24,81,63,-94,26,65,-39,-60,-65,-53,-20
-113,-24,87,69,-100,32,71,-39,-54,-65,-53,-20
-113,-24,87,69,-100,32,65,-39,-54,-59,-59,-20
-107,-18,87,57,-100,32,65,-39,-54,-59,-53,-14
-107,-18,87,57,-100,32,65,-39,-54,-59,-53,-20
-113,-24,87,69,-100,32,65,-39,-54,-59,-47,-14
-119,-24,93,69,-106,32,59,-33,-54,-59,-47,-14
-119,-24,93,69,-106,32,59,-33,-54,-59,-47,-14
-113,-18,93,63,-106,38,59,-33,-54,-53,-41,-14
-107,-12,93,57,-100,38,59,-33,-48,-47,-41,-14
-107,-18,87,57,-100,32,59,-33,-48,-53,-41,-14
-119,-30,87,69,-106,26,59,-33,-54,-59,-53,-20
-125,-36,87,81,-106,26,65,-33,-54,-53,-59,-26
-119,-36,81,75,-100,20,65,-39,-60,-53,-65,-26
-119,-36,81,75,-100,20,65,-39,-60,-59,-71,-26
-113,-30,81,69,-100,26,59,-39,-60,-59,-65,-20
-101,-24,75,63,-88,26,65,-33,-54,-59,-59,-20
-107,-30,75,63,-94,20,65,-27,-48,-59,-59,-20
-119,-30,87,69,-106,26,65,-27,-48,-53,-53,-26
-113,-24,87,69,-100,32,59,-27,-48,-53,-53,-32
-107,-24,81,63,-94,26,59,-33,-54,-59,-53,-38
-107,-24,81,63,-94,26,59,-33,-54,-53,-53,-38
-107,-24,81,63,-94,26,59,-33,-54,-53,-59,-38
-107,-24,81,63,-94,26,59,-39,-54,-53,-65,-44
-119,-24,93,69,-106,32,59,-44,-60,-53,-71,-44
-113,-18,93,63,-106,38,53,-44,-60,-59,-71,-44
-113,-18,93,63,-106,38,59,-39,-60,-59,-71,-44
-113,-18,93,63,-106,38,59,-39,-60,-59,-71,-44
-113,-18,93,63,-106,38,59,-33,-60,-59,-65,-44
-119,-18,99,63,-112,38,53,-27,-60,-59,-71,-44
-119,-18,99,63,-112,38,53,-27,-60,-59,-65,-50
-107,-12,93,57,-100,38,53,-27,-60,-59,-65,-50
-107,-6,99,51,-106,44,53,-27,-54,-59,-65,-50
