,,,,,,,,,,,
2019-09-04 23:13:28,,,,,,,,,,,
,,,,,,,,,,,
I,II,III,aVR,aVL,aVF,V1,V2,V3,V4,V5,V6
-104,8,112,44,-108,58,252,69,71,24,-2,-35
-104,14,118,44,-108,64,258,75,71,24,-2,-35
-104,20,124,38,-114,70,252,75,71,24,-7,-41
-110,8,118,50,-114,64,252,81,71,24,-7,-35
-104,2,106,50,-102,52,258,87,77,24,-2,-35
-104,-3,100,50,-102,46,258,93,77,24,-2,-35
-104,-3,100,50,-102,46,270,99,83,30,4,-35
-98,-3,94,50,-96,46,270,99,89,30,10,-35
-98,2,100,50,-96,52,264,99,89,36,10,-35
-98,14,112,44,-102,64,264,99,95,36,10,-41
-98,20,118,38,-108,70,264,105,101,42,10,-35
-98,14,112,44,-102,64,270,111,107,42,16,-35
-104,20,124,38,-114,70,276,117,107,48,16,-35
-104,20,124,38,-114,70,282,123,113,48,16,-29
-110,14,124,50,-114,70,288,123,119,54,16,-29
-104,20,124,38,-114,70,288,129,125,60,16,-29
-104,32,136,32,-120,82,288,129,125,60,16,-29
-104,32,136,32,-120,82,288,135,131,60,16,-23
-110,32,142,38,-126,88,294,141,131,66,16,-23
-110,32,142,38,-126,88,300,147,131,66,22,-17
-110,26,136,44,-120,82,306,153,137,66,28,-17
-110,32,142,38,-126,88,306,165,137,72,28,-17
-110,32,142,38,-126,88,306,165,143,78,34,-17
-110,38,148,38,-126,94,312,171,149,78,34,-17
-110,38,148,38,-126,94,312,177,155,84,40,-23
-110,44,154,32,-132,100,312,183,161,84,40,-17
-110,44,154,32,-132,100,318,189,167,90,40,-11
-110,50,160,32,-132,106,318,195,173,96,46,-6
-104,56,160,20,-132,106,324,195,173,96,40,-6
-104,62,166,20,-132,112,330,195,179,96,46,-6
-98,62,160,20,-126,112,336,201,185,102,52,-1
-98,56,154,20,-126,106,336,213,191,108,52,5
-98,56,154,20,-126,106,342,219,197,114,58,-1
-98,56,154,20,-126,106,342,225,197,114,58,-1
-92,50,142,20,-114,94,348,237,209,120,64,5
-86,56,142,14,-114,100,354,243,215,132,70,5
-86,56,142,14,-114,100,360,261,227,138,76,11
-86,62,148,14,-114,106,372,273,233,144,76,17
-80,68,148,2,-114,106,378,279,239,150,76,17
-80,74,154,2,-114,112,378,285,245,150,82,17
-80,80,160,-3,-120,118,384,297,257,156,88,17
-80,86,166,-3,-120,124,390,303,263,162,94,23
-86,98,184,-3,-132,142,396,309,269,168,94,23
-80,104,184,-14,-132,142,396,321,275,174,94,29
-74,110,184,-14,-126,148,402,327,281,186,106,35
-74,104,178,-14,-126,142,408,339,287,198,112,41
-68,110,178,-20,-120,142,408,351,299,210,118,47
-68,122,190,-26,-126,154,414,357,311,210,124,59
-62,128,190,-32,-126,160,420,363,323,216,130,59
-56,134,190,-38,-120,160,426,381,341,222,136,65
-56,134,190,-38,-120,160,432,387,347,228,148,65
-62,140,202,-38,-132,172,432,405,359,234,154,71
-56,152,208,-50,-132,178,438,417,371,246,154,77
-62,152,214,-44,-138,184,450,429,383,258,166,83
-62,158,220,-44,-138,190,456,441,395,270,178,95
-62,170,232,-50,-144,202,456,453,401,282,178,101
-56,176,232,-62,-144,202,456,465,407,294,184,107
-50,188,238,-68,-144,214,456,477,419,306,196,119
-50,194,244,-68,-144,220,456,483,425,312,202,125
-44,194,238,-74,-138,214,456,495,437,324,214,131
-32,194,226,-80,-126,208,462,513,449,336,226,137
-26,194,220,-80,-120,208,474,519,461,348,238,149
-20,206,226,-92,-120,214,474,531,479,354,250,155
-14,218,232,-98,-120,226,468,537,491,360,256,167
-8,224,232,-110,-120,226,468,543,503,372,262,179
-2,236,238,-116,-120,238,462,555,515,390,274,185
4,242,238,-122,-114,238,462,567,521,402,280,191
4,248,244,-128,-120,244,468,579,527,408,292,203
4,254,250,-128,-120,250,468,579,533,414,298,209
9,260,250,-134,-120,256,462,585,539,420,304,215
14,266,250,-134,-114,262,462,591,545,426,316,227
14,272,256,-140,-120,268,456,591,545,438,328,233
26,284,256,-152,-114,274,450,597,551,444,334,239
32,296,262,-164,-114,280,450,597,557,456,340,251
38,296,256,-164,-108,280,450,603,563,468,346,257
44,302,256,-170,-102,280,444,609,569,474,352,269
44,308,262,-176,-108,286,438,609,569,480,364,275
44,314,268,-176,-108,292,432,609,581,486,370,281
50,320,268,-182,-108,298,420,609,587,486,376,293
56,326,268,-188,-102,298,408,603,587,492,376,305
68,338,268,-200,-96,304,408,603,587,492,376,305
68,338,268,-200,-96,304,396,603,587,498,382,311
74,338,262,-200,-90,304,378,597,581,498,382,317
80,344,262,-212,-90,304,366,591,575,498,382,317
86,338,250,-206,-78,298,354,585,569,498,388,323
92,332,238,-212,-72,286,342,573,569,498,400,335
92,332,238,-212,-72,286,330,567,563,498,406,335
98,332,232,-212,-66,286,318,561,557,492,406,341
104,326,220,-212,-54,274,306,549,551,492,400,341
110,326,214,-212,-48,274,294,543,545,486,400,341
110,320,208,-212,-48,268,276,531,545,492,394,341
104,320,214,-212,-54,268,264,513,533,486,388,335
104,314,208,-206,-48,262,252,501,521,480,382,329
110,302,190,-200,-36,250,246,489,509,474,382,335
104,296,190,-200,-42,244,240,471,497,462,376,329
104,290,184,-194,-36,238,234,459,479,456,376,323
98,284,184,-188,-42,238,222,447,467,444,364,311
92,278,184,-182,-42,232,216,429,449,432,358,305
92,272,178,-182,-42,226,210,411,437,420,346,293
92,266,172,-176,-36,220,198,393,419,402,334,287
86,254,166,-164,-36,214,192,369,401,390,316,275
80,248,166,-164,-42,208,180,345,377,372,298,257
74,242,166,-152,-42,208,180,321,359,354,280,245
68,224,154,-146,-42,190,174,297,341,336,262,227
62,206,142,-128,-36,178,168,279,323,318,250,215
56,194,136,-122,-36,166,162,261,311,306,232,203
50,188,136,-116,-42,166,156,243,293,282,220,191
44,176,130,-110,-42,154,150,225,275,264,208,179
32,152,118,-92,-42,136,150,213,257,252,196,167
26,128,100,-74,-36,118,138,195,233,234,184,155
14,116,100,-62,-42,112,132,177,209,216,172,137
9,104,94,-56,-42,100,126,153,191,204,148,119
9,92,82,-50,-36,88,120,135,173,192,130,107
4,80,76,-44,-36,76,120,117,161,180,118,101
-2,74,76,-32,-36,76,114,105,149,168,106,89
-8,74,82,-32,-42,76,114,99,143,162,100,83
-2,62,64,-26,-30,64,114,87,131,150,88,71
-2,56,58,-26,-30,58,114,75,119,138,82,65
-2,44,46,-20,-24,46,114,69,107,126,70,59
-2,32,34,-14,-18,34,102,57,89,108,58,53
-8,26,34,-8,-18,28,96,45,77,102,46,41
-14,20,34,-3,-24,28,90,33,71,96,46,29
-8,14,22,-3,-12,16,90,27,65,90,40,23
-8,2,10,2,-6,4,90,21,59,84,34,23
-14,-3,10,8,-12,4,84,15,53,84,28,17
-14,-3,10,8,-12,4,78,9,41,78,22,11
-20,-8,10,8,-18,-2,78,3,35,66,10,5
-14,-8,4,8,-12,-2,72,-3,29,60,10,-1
-8,-8,-2,2,-6,-7,66,-8,35,54,4,-1
-14,-14,-2,14,-6,-7,66,-13,29,54,-2,-6
-8,-20,-13,8,0,-18,60,-13,23,48,-2,-6
-8,-20,-13,8,0,-18,66,-19,23,48,-2,-6
-8,-20,-13,8,0,-18,60,-19,23,54,-2,5
-8,-20,-13,8,0,-18,60,-19,23,54,-2,-1
-8,-26,-18,14,6,-24,54,-19,17,54,-2,-1
-8,-20,-13,8,0,-18,54,-19,17,48,-2,-6
-8,-20,-13,8,0,-18,54,-19,11,48,-7,-6
-8,-26,-18,14,6,-24,54,-25,11,48,-7,-11
-8,-32,-24,14,6,-30,54,-25,5,48,-7,-11
-8,-32,-24,14,6,-30,54,-31,11,42,-12,-11
-8,-32,-24,14,6,-30,54,-31,11,42,-12,-11
-14,-38,-24,26,6,-30,54,-25,11,48,-12,-11
-14,-38,-24,26,6,-30,48,-25,11,48,-7,-11
-8,-44,-36,20,11,-42,60,-13,5,48,-7,-11
-8,-38,-30,20,11,-36,60,-13,5,48,-7,-11
-8,-32,-24,14,6,-30,60,-19,5,42,-7,-11
-8,-32,-24,14,6,-30,60,-19,5,42,-7,-6
-8,-38,-30,20,11,-36,60,-19,5,42,-7,-6
-8,-44,-36,20,11,-42,54,-25,11,42,-12,-11
-8,-32,-24,14,6,-30,54,-25,5,42,-12,-11
-8,-32,-24,14,6,-30,54,-31,5,36,-12,-11
-14,-38,-24,26,6,-30,54,-31,11,36,-18,-11
-20,-44,-24,26,0,-36,54,-31,11,36,-18,-11
-20,-38,-18,26,0,-30,60,-31,5,42,-18,-11
-20,-38,-18,26,0,-30,60,-31,-1,42,-18,-11
-26,-32,-8,26,-12,-18,66,-19,-1,42,-12,-6
-26,-32,-8,26,-12,-18,66,-19,5,42,-12,-1
-20,-32,-13,20,-6,-24,72,-13,5,42,-7,-1
-26,-32,-8,26,-12,-18,72,-13,5,42,-7,-1
-32,-38,-8,32,-12,-24,72,-19,11,48,-7,-1
-32,-32,-2,26,-18,-18,72,-25,11,48,-7,-1
-32,-38,-8,32,-12,-24,72,-25,11,48,-7,-1
-32,-32,-2,26,-18,-18,72,-25,17,48,-7,-1
-26,-38,-13,32,-6,-24,72,-25,17,54,-2,-1
-26,-32,-8,26,-12,-18,72,-25,17,54,-2,-1
-26,-32,-8,26,-12,-18,72,-25,11,54,4,-1
-26,-32,-8,26,-12,-18,72,-25,17,54,4,-1
-26,-26,-2,26,-12,-12,72,-19,17,48,-2,-1
-26,-26,-2,26,-12,-12,72,-19,11,54,-2,-6
-32,-20,10,20,-24,-7,72,-19,11,48,-7,-6
-26,-20,4,20,-18,-7,72,-25,5,48,-7,-6
-32,-20,10,20,-24,-7,72,-25,5,48,-7,-11
-38,-20,16,26,-30,-2,78,-25,5,48,-7,-11
-38,-20,16,26,-30,-2,78,-19,17,48,-12,-11
-44,-26,16,32,-30,-7,84,-19,17,48,-7,-11
-44,-20,22,26,-36,-2,84,-19,17,48,-7,-11
-44,-14,28,26,-36,4,78,-25,17,48,-7,-11
-44,-8,34,20,-42,10,78,-25,11,42,-7,-17
-44,-8,34,20,-42,10,84,-25,11,42,-7,-11
-44,-14,28,26,-36,4,84,-19,11,42,-7,-11
-44,-8,34,20,-42,10,84,-13,11,48,-7,-6
-38,-8,28,20,-36,10,84,-19,11,54,-7,-6
-38,-8,28,20,-36,10,84,-19,11,60,-7,-6
-32,-8,22,14,-30,4,84,-19,23,60,-7,-6
-38,-8,28,20,-36,10,84,-19,23,60,-7,-6
-32,-8,22,14,-30,4,84,-19,23,60,-7,-6
-26,2,28,14,-24,16,84,-13,23,54,-7,-6
-32,-3,28,14,-30,10,84,-13,23,54,-2,-6
-38,-8,28,20,-36,10,90,-13,23,54,-2,-6
-38,-8,28,20,-36,10,90,-19,17,54,-7,-6
-44,-3,40,20,-42,16,90,-19,17,54,-7,-11
-44,-3,40,20,-42,16,90,-19,11,48,-7,-11
-50,-8,40,26,-48,16,90,-19,11,54,-7,-11
-50,-8,40,26,-48,16,84,-19,17,54,-7,-6
-44,-8,34,20,-42,10,78,-25,17,60,-7,-6
-38,-14,22,26,-30,4,78,-25,17,60,-2,-6
-38,-3,34,20,-36,16,78,-25,17,54,-2,-1
-38,-3,34,20,-36,16,78,-31,17,48,-7,-6
-38,2,40,20,-36,22,72,-31,17,48,-7,-11
-44,2,46,20,-42,22,78,-37,17,48,-7,-6
-44,8,52,14,-48,28,78,-37,11,48,-12,-6
-44,8,52,14,-48,28,84,-43,11,48,-12,-11
-44,2,46,20,-42,22,84,-31,17,48,-7,-6
-38,-8,28,20,-36,10,84,-25,23,60,-2,-1
-38,-8,28,20,-36,10,78,-25,23,60,-2,-6
-38,-8,28,20,-36,10,78,-19,17,60,4,-6
-38,-14,22,26,-30,4,78,-19,17,66,4,-6
-38,-8,28,20,-36,10,78,-19,11,66,-2,-11
-38,-8,28,20,-36,10,78,-19,11,66,-2,-11
-38,-14,22,26,-30,4,78,-25,11,60,-7,-6
-44,-20,22,26,-36,-2,78,-31,11,60,-7,-6
-50,-14,34,32,-42,10,84,-37,11,54,-7,-6
-50,-14,34,32,-42,10,84,-43,11,54,-12,-6
-50,-14,34,32,-42,10,78,-43,11,48,-18,-6
-44,-8,34,20,-42,10,78,-37,5,48,-12,-6
-44,-8,34,20,-42,10,78,-31,5,48,-12,-6
-44,-20,22,26,-36,-2,72,-31,-1,54,-12,-6
-44,-26,16,32,-30,-7,72,-31,-7,54,-18,-6
-44,-20,22,26,-36,-2,66,-31,-7,54,-18,-6
-44,-20,22,26,-36,-2,66,-37,-7,48,-18,-6
-38,-20,16,26,-30,-2,66,-43,-7,42,-18,-6
-38,-20,16,26,-30,-2,66,-43,-7,42,-18,-11
-38,-14,22,26,-30,4,66,-49,-1,42,-18,-11
-38,-14,22,26,-30,4,66,-55,-7,36,-18,-11
-38,-3,34,20,-36,16,66,-49,-7,36,-18,-17
-38,-3,34,20,-36,16,60,-55,-7,36,-18,-17
-50,-3,46,26,-48,22,60,-61,-12,36,-18,-17
-50,-8,40,26,-48,16,54,-61,-12,36,-18,-17
-44,-8,34,20,-42,10,54,-55,-12,36,-24,-11
-50,-14,34,32,-42,10,60,-55,-12,36,-24,-11
-50,-14,34,32,-42,10,60,-61,-17,30,-30,-17
-50,-8,40,26,-48,16,60,-61,-23,30,-36,-17
-38,-14,22,26,-30,4,60,-67,-29,30,-30,-17
-38,-20,16,26,-30,-2,72,-67,-29,30,-30,-17
-38,-26,10,32,-24,-7,72,-67,-23,30,-30,-17
-38,-26,10,32,-24,-7,66,-67,-23,24,-30,-23
-44,-20,22,26,-36,-2,60,-67,-23,24,-30,-29
-44,-20,22,26,-36,-2,60,-67,-23,24,-30,-35
-44,-20,22,26,-36,-2,54,-67,-23,18,-36,-29
-44,-8,34,20,-42,10,54,-73,-23,18,-36,-35
-44,-8,34,20,-42,10,54,-73,-29,12,-36,-35
-44,-3,40,20,-42,16,54,-79,-29,12,-42,-35
-38,-3,34,20,-36,16,54,-79,-35,12,-42,-35
-38,-8,28,20,-36,10,60,-79,-29,12,-42,-35
-32,-14,16,20,-24,-2,60,-79,-29,12,-42,-29
-32,-14,16,20,-24,-2,60,-73,-29,18,-36,-23
-32,-20,10,20,-24,-7,60,-73,-29,24,-36,-23
-38,-26,10,32,-24,-7,60,-73,-35,24,-36,-23
-44,-26,16,32,-30,-7,54,-73,-29,24,-36,-23
-44,-26,16,32,-30,-7,48,-79,-29,24,-36,-29
-44,-32,10,32,-30,-12,48,-79,-29,24,-36,-29
-50,-26,22,38,-36,-2,48,-79,-29,24,-30,-29
-50,-26,22,38,-36,-2,48,-79,-35,24,-36,-35
-44,-38,4,38,-24,-18,54,-85,-35,24,-42,-35
-44,-32,10,32,-30,-12,54,-85,-41,24,-48,-35
-38,-32,4,32,-24,-12,54,-85,-41,18,-48,-35
-32,-32,-2,26,-18,-18,54,-79,-35,18,-48,-29
-32,-32,-2,26,-18,-18,54,-79,-35,18,-42,-29
-38,-32,4,32,-24,-12,54,-79,-35,12,-30,-35
-38,-26,10,32,-24,-7,54,-79,-41,6,-36,-41
-38,-26,10,32,-24,-7,54,-85,-35,6,-30,-41
-38,-26,10,32,-24,-7,54,-85,-35,6,-36,-41
-38,-32,4,32,-24,-12,54,-79,-35,12,-42,-41
-38,-32,4,32,-24,-12,54,-85,-41,12,-42,-41
-38,-32,4,32,-24,-12,48,-85,-41,12,-48,-41
-32,-26,4,26,-18,-12,48,-91,-41,12,-54,-35
-32,-26,4,26,-18,-12,48,-85,-41,12,-42,-35
-38,-26,10,32,-24,-7,42,-85,-47,6,-42,-35
-32,-32,-2,26,-18,-18,42,-85,-47,6,-48,-35
-32,-32,-2,26,-18,-18,36,-91,-47,0,-48,-41
-38,-38,-2,38,-18,-18,36,-97,-47,6,-48,-41
-32,-32,-2,26,-18,-18,36,-103,-53,0,-54,-47
-32,-26,4,26,-18,-12,36,-103,-53,0,-60,-47
-26,-32,-8,26,-12,-18,48,-103,-53,0,-60,-47
-26,-38,-13,32,-6,-24,42,-97,-53,0,-54,-47
-20,-38,-18,26,0,-30,42,-97,-53,-6,-54,-47
-26,-38,-13,32,-6,-24,36,-91,-59,-6,-54,-47
-26,-32,-8,26,-12,-18,36,-91,-59,-12,-54,-47
-26,-26,-2,26,-12,-12,36,-97,-53,-6,-54,-53
-20,-26,-8,20,-6,-18,36,-97,-53,-6,-60,-53
-20,-32,-13,20,-6,-24,36,-97,-53,0,-60,-53
-26,-26,-2,26,-12,-12,42,-97,-47,0,-60,-53
-26,-26,-2,26,-12,-12,36,-97,-53,0,-54,-53
-26,-32,-8,26,-12,-18,42,-97,-53,0,-54,-47
-26,-32,-8,26,-12,-18,36,-97,-59,0,-54,-41
-26,-32,-8,26,-12,-18,36,-97,-59,0,-54,-41
-26,-32,-8,26,-12,-18,36,-97,-59,6,-54,-47
-32,-38,-8,32,-12,-24,36,-91,-59,0,-54,-47
-32,-38,-8,32,-12,-24,36,-91,-65,-6,-60,-47
-32,-32,-2,26,-18,-18,36,-97,-65,-6,-66,-53
-38,-26,10,32,-24,-7,36,-97,-65,-6,-66,-53
-32,-26,4,26,-18,-12,36,-97,-59,-6,-66,-53
-26,-26,-2,26,-12,-12,42,-97,-65,-6,-72,-53
-26,-32,-8,26,-12,-18,42,-97,-65,-6,-66,-53
-26,-26,-2,26,-12,-12,42,-97,-65,-6,-66,-53
-20,-26,-8,20,-6,-18,36,-97,-71,-12,-66,-53
-20,-32,-13,20,-6,-24,36,-97,-71,-12,-66,-53
-14,-26,-13,20,0,-18,36,-97,-65,-17,-60,-59
-14,-26,-13,20,0,-18,30,-97,-65,-17,-60,-59
-20,-26,-8,20,-6,-18,30,-103,-65,-22,-60,-59
-20,-32,-13,20,-6,-24,30,-103,-71,-22,-66,-59
-26,-38,-13,32,-6,-24,30,-103,-71,-17,-66,-53
-20,-44,-24,26,0,-36,36,-103,-71,-17,-66,-53
-20,-38,-18,26,0,-30,36,-109,-71,-17,-72,-53
-26,-38,-13,32,-6,-24,36,-109,-65,-12,-72,-53
-26,-44,-18,32,-6,-30,36,-103,-59,-6,-66,-53
-26,-44,-18,32,-6,-30,36,-103,-59,-6,-60,-53
-26,-44,-18,32,-6,-30,36,-97,-59,0,-60,-53
-26,-38,-13,32,-6,-24,30,-103,-65,-12,-66,-53
-20,-32,-13,20,-6,-24,30,-103,-77,-17,-72,-59
-20,-32,-13,20,-6,-24,24,-109,-77,-22,-78,-59
-20,-32,-13,20,-6,-24,24,-109,-77,-28,-78,-59
-20,-32,-13,20,-6,-24,24,-109,-71,-28,-78,-59
-20,-32,-13,20,-6,-24,24,-109,-71,-28,-78,-59
-20,-32,-13,20,-6,-24,30,-109,-77,-22,-72,-59
-20,-26,-8,20,-6,-18,30,-103,-77,-17,-72,-59
-20,-26,-8,20,-6,-18,30,-97,-71,-17,-66,-53
-20,-26,-8,20,-6,-18,30,-103,-71,-17,-60,-47
-26,-26,-2,26,-12,-12,30,-103,-77,-17,-60,-47
-20,-26,-8,20,-6,-18,24,-103,-77,-22,-60,-53
-20,-26,-8,20,-6,-18,24,-109,-71,-22,-54,-53
-20,-26,-8,20,-6,-18,30,-115,-71,-17,-60,-53
-20,-26,-8,20,-6,-18,30,-115,-77,-17,-54,-59
-26,-38,-13,32,-6,-24,30,-115,-77,-17,-54,-53
-26,-44,-18,32,-6,-30,30,-109,-77,-22,-60,-47
-26,-44,-18,32,-6,-30,24,-109,-77,-22,-60,-47
-26,-38,-13,32,-6,-24,24,-103,-77,-28,-60,-47
-32,-32,-2,26,-18,-18,24,-103,-77,-22,-66,-53
-26,-32,-8,26,-12,-18,18,-109,-77,-28,-66,-59
-26,-26,-2,26,-12,-12,18,-109,-77,-28,-66,-59
-20,-26,-8,20,-6,-18,24,-109,-77,-28,-66,-59
-26,-26,-2,26,-12,-12,24,-109,-77,-28,-66,-59
-26,-20,4,20,-18,-7,24,-109,-77,-28,-66,-59
-26,-20,4,20,-18,-7,24,-109,-83,-28,-66,-53
-32,-26,4,26,-18,-12,24,-109,-83,-22,-72,-59
-32,-20,10,20,-24,-7,24,-115,-77,-22,-72,-65
-32,-26,4,26,-18,-12,24,-109,-77,-28,-72,-65
-32,-32,-2,26,-18,-18,24,-109,-77,-28,-66,-65
-32,-38,-8,32,-12,-24,24,-109,-77,-34,-66,-65
-38,-44,-8,38,-18,-24,24,-109,-77,-34,-72,-65
-38,-38,-2,38,-18,-18,24,-109,-83,-34,-78,-65
-38,-38,-2,38,-18,-18,24,-109,-83,-34,-78,-59
-38,-32,4,32,-24,-12,24,-115,-83,-34,-78,-59
-38,-26,10,32,-24,-7,18,-109,-77,-40,-78,-59
-44,-26,16,32,-30,-7,18,-109,-83,-40,-72,-65
-38,-32,4,32,-24,-12,24,-103,-77,-34,-66,-59
-32,-26,4,26,-18,-12,24,-97,-77,-34,-66,-59
-32,-32,-2,26,-18,-18,24,-103,-77,-34,-72,-59
-32,-32,-2,26,-18,-18,18,-109,-83,-34,-78,-65
-32,-32,-2,26,-18,-18,30,-109,-83,-34,-78,-59
-32,-38,-8,32,-12,-24,24,-115,-83,-34,-78,-59
-26,-32,-8,26,-12,-18,24,-121,-89,-40,-78,-59
-26,-26,-2,26,-12,-12,18,-121,-89,-40,-72,-65
-26,-32,-8,26,-12,-18,18,-115,-89,-28,-66,-59
-32,-38,-8,32,-12,-24,18,-115,-89,-28,-66,-59
-26,-38,-13,32,-6,-24,18,-103,-83,-28,-66,-59
-20,-44,-24,26,0,-36,18,-103,-83,-28,-66,-65
-26,-50,-24,38,0,-36,18,-103,-77,-34,-72,-59
-32,-44,-13,32,-12,-30,24,-109,-77,-34,-72,-65
-32,-38,-8,32,-12,-24,24,-109,-83,-40,-78,-71
-32,-32,-2,26,-18,-18,24,-115,-89,-40,-78,-71
-32,-26,4,26,-18,-12,30,-115,-89,-40,-78,-65
-32,-26,4,26,-18,-12,24,-115,-89,-46,-78,-71
-32,-32,-2,26,-18,-18,24,-109,-89,-40,-72,-65
-32,-38,-8,32,-12,-24,24,-109,-83,-40,-72,-59
-26,-32,-8,26,-12,-18,18,-109,-83,-34,-72,-53
-20,-20,-2,14,-12,-12,12,-109,-89,-40,-78,-59
-14,-20,-8,14,-6,-12,12,-109,-89,-40,-66,-53
-14,-20,-8,14,-6,-12,18,-109,-83,-40,-66,-53
-20,-20,-2,14,-12,-12,18,-103,-83,-40,-66,-53
-20,-26,-8,20,-6,-18,24,-103,-83,-40,-66,-53
-26,-20,4,20,-18,-7,24,-97,-77,-34,-66,-53
-26,-20,4,20,-18,-7,30,-97,-77,-28,-60,-47
-20,-8,10,8,-18,-2,36,-91,-71,-28,-60,-47
-20,-8,10,8,-18,-2,42,-91,-71,-22,-54,-41
-26,-3,22,14,-24,10,48,-79,-65,-17,-36,-35
-20,2,22,8,-18,10,54,-79,-59,-12,-30,-35
-14,14,28,2,-18,22,66,-79,-53,-12,-24,-29
-14,32,46,-8,-30,40,66,-73,-47,0,-24,-29
-14,56,70,-20,-42,64,72,-67,-35,6,-18,-23
-14,74,88,-26,-48,82,66,-61,-35,6,-18,-17
-8,80,88,-38,-48,82,66,-67,-35,6,-18,-11
-2,86,88,-38,-42,88,66,-61,-29,6,-18,-11
4,86,82,-44,-36,82,66,-61,-23,18,-18,-11
9,86,76,-44,-30,82,66,-55,-17,18,-18,-6
9,86,76,-44,-30,82,72,-49,-17,18,-18,-6
14,80,64,-44,-24,76,78,-43,-12,12,-18,-6
20,74,52,-44,-12,64,72,-43,-17,6,-24,-6
26,62,34,-38,0,52,66,-43,-23,0,-30,-6
20,50,28,-32,0,40,66,-43,-29,0,-24,-6
20,38,16,-26,6,28,66,-43,-35,0,-30,-11
14,32,16,-20,0,28,54,-49,-41,-6,-36,-17
14,32,16,-20,0,28,48,-55,-41,-12,-36,-17
9,32,22,-20,-6,28,42,-61,-35,-12,-36,-17
9,26,16,-14,0,22,42,-61,-41,-12,-36,-17
4,20,16,-14,-6,16,42,-67,-47,-12,-36,-23
-8,14,22,-3,-12,16,36,-73,-59,-17,-42,-23
-14,8,22,2,-18,16,30,-73,-59,-22,-30,-23
-20,2,22,8,-18,10,36,-79,-65,-22,-36,-29
-26,2,28,14,-24,16,36,-79,-65,-28,-42,-35
-32,-3,28,14,-30,10,30,-91,-65,-28,-48,-41
-32,-3,28,14,-30,10,30,-97,-71,-34,-60,-47
-38,2,40,20,-36,22,36,-97,-77,-34,-66,-53
-38,8,46,14,-42,28,42,-97,-77,-34,-66,-53
-44,2,46,20,-42,22,42,-97,-77,-40,-60,-53
-50,8,58,20,-54,34,48,-97,-71,-40,-54,-53
-56,8,64,20,-60,34,54,-91,-71,-34,-54,-59
-50,2,52,26,-48,28,66,-91,-65,-28,-48,-53
-50,2,52,26,-48,28,78,-91,-65,-34,-48,-53
-50,2,52,26,-48,28,84,-91,-65,-34,-54,-47
-44,8,52,14,-48,28,90,-97,-65,-34,-54,-47
-44,2,46,20,-42,22,84,-103,-71,-40,-66,-53
-44,2,46,20,-42,22,90,-109,-71,-34,-60,-53
-44,-3,40,20,-42,16,96,-97,-71,-34,-60,-47
-44,-3,40,20,-42,16,114,-91,-59,-34,-54,-47
-44,-8,34,20,-42,10,132,-79,-59,-34,-54,-53
-38,-32,4,32,-24,-12,150,-73,-59,-40,-54,-53
-38,-50,-13,44,-12,-30,174,-67,-59,-40,-54,-59
-38,-62,-24,50,-6,-42,204,-55,-47,-34,-60,-59
-38,-74,-36,56,0,-54,234,-37,-35,-34,-60,-59
-26,-86,-60,56,16,-72,240,-25,-23,-22,-48,-59
-14,-98,-84,56,34,-90,240,-8,-12,-17,-42,-47
-2,-104,-102,50,46,-102,234,15,-1,-12,-36,-29
20,-110,-132,44,76,-120,198,33,5,-6,-24,-11
50,-116,-168,32,106,-138,132,45,5,6,-12,-1
92,-116,-210,8,148,-162,18,51,-1,12,-2,23
140,-128,-270,-8,202,-198,-118,39,-12,18,16,41
188,-146,-336,-20,262,-240,-286,21,-17,18,28,65
248,-164,-414,-44,328,-288,-478,-3,-35,24,52,95
314,-188,-504,-62,406,-342,-682,-25,-71,24,58,119
374,-206,-582,-80,478,-390,-850,-43,-101,24,64,143
428,-230,-660,-98,544,-444,-988,-55,-125,12,70,155
482,-278,-762,-98,622,-516,-1132,-85,-173,-6,64,167
530,-332,-864,-98,694,-594,-1270,-121,-221,-28,58,173
590,-404,-996,-92,790,-696,-1396,-139,-263,-58,46,167
650,-482,-1134,-80,892,-804,-1522,-169,-305,-88,28,155
704,-566,-1272,-68,988,-918,-1630,-205,-359,-124,4,137
752,-632,-1386,-62,1066,-1008,-1720,-235,-407,-148,-12,125
806,-692,-1500,-56,1150,-1092,-1792,-247,-437,-172,-30,125
854,-746,-1602,-50,1228,-1170,-1846,-253,-461,-184,-48,113
908,-794,-1704,-56,1306,-1248,-1876,-247,-473,-184,-48,119
956,-836,-1794,-62,1372,-1314,-1900,-241,-467,-172,-36,137
1022,-836,-1860,-92,1438,-1344,-1924,-241,-455,-148,4,185
1088,-812,-1902,-140,1492,-1356,-1954,-247,-443,-100,70,257
1154,-764,-1920,-194,1534,-1338,-1966,-229,-407,-40,166,359
1208,-698,-1908,-254,1558,-1302,-1978,-211,-365,48,280,485
1274,-596,-1872,-338,1570,-1230,-1978,-205,-305,168,424,653
1310,-446,-1758,-428,1534,-1098,-1972,-193,-221,318,598,839
1334,-284,-1620,-524,1474,-948,-1942,-163,-125,462,766,1013
1316,-122,-1440,-596,1378,-780,-1882,-145,-47,576,904,1157
1268,14,-1254,-638,1264,-618,-1792,-133,5,654,1000,1259
1208,134,-1074,-668,1144,-468,-1678,-109,47,708,1054,1307
1148,206,-942,-674,1048,-366,-1546,-85,77,732,1078,1325
1070,248,-822,-656,946,-282,-1396,-73,89,714,1054,1295
956,272,-684,-614,820,-204,-1240,-97,65,648,982,1235
824,284,-540,-554,682,-126,-1090,-157,5,540,862,1115
686,278,-408,-476,550,-60,-946,-229,-65,408,718,971
542,260,-282,-398,412,-7,-796,-283,-131,282,556,803
416,224,-192,-320,304,16,-658,-301,-167,180,418,635
320,188,-132,-254,226,28,-538,-289,-179,108,298,485
248,146,-102,-194,178,22,-418,-247,-173,60,202,341
176,98,-78,-134,130,10,-304,-205,-161,30,124,221
134,68,-66,-98,100,4,-208,-163,-143,12,70,137
92,44,-48,-68,70,-2,-124,-139,-125,-6,40,77
62,20,-42,-38,52,-7,-64,-109,-113,-17,22,53
26,14,-13,-14,22,4,-16,-85,-89,-17,10,29
4,14,10,-8,0,10,12,-61,-59,-17,4,17
-26,20,46,2,-36,34,30,-37,-35,-12,-2,-1
-44,20,64,8,-54,40,48,-25,-23,-12,-7,-6
-56,20,76,14,-66,46,60,-19,-12,-12,-7,-6
-68,20,88,20,-78,52,72,-8,-12,-12,-12,-17
-62,26,88,20,-72,58,84,-13,-17,-17,-24,-29
-62,20,82,20,-72,52,96,-19,-29,-28,-30,-41
-68,14,82,26,-72,46,108,-25,-35,-34,-42,-53
-74,8,82,32,-78,46,114,-25,-41,-46,-54,-65
-74,8,82,32,-78,46,126,-25,-41,-58,-60,-71
-80,8,88,32,-84,46,132,-19,-35,-64,-66,-77
-92,14,106,38,-96,58,144,-13,-29,-58,-72,-77
-98,14,112,44,-102,64,144,-13,-29,-58,-78,-83
-104,20,124,38,-114,70,150,-13,-29,-58,-78,-89
-110,8,118,50,-114,64,156,-8,-23,-64,-72,-89
-110,8,118,50,-114,64,162,-8,-29,-64,-78,-95
-110,8,118,50,-114,64,162,-13,-29,-64,-78,-95
-110,8,118,50,-114,64,174,-13,-23,-64,-78,-95
-110,8,118,50,-114,64,180,-13,-23,-70,-78,-89
-110,8,118,50,-114,64,180,-8,-23,-64,-78,-95
-110,8,118,50,-114,64,186,-3,-17,-64,-78,-95
-110,8,118,50,-114,64,180,-3,-23,-64,-72,-95
-110,14,124,50,-114,70,180,-3,-23,-58,-72,-101
-110,14,124,50,-114,70,174,-8,-17,-64,-78,-107
-110,14,124,50,-114,70,174,-3,-17,-64,-78,-107
-110,20,130,44,-120,76,174,-3,-17,-70,-84,-107
-110,14,124,50,-114,70,186,3,-17,-70,-84,-107
-110,20,130,44,-120,76,186,-3,-23,-64,-84,-113
-116,20,136,44,-126,76,192,3,-23,-58,-78,-107
-110,14,124,50,-114,70,198,9,-17,-58,-72,-101
-110,14,124,50,-114,70,198,3,-17,-58,-72,-107
-110,14,124,50,-114,70,198,3,-17,-64,-72,-107
-110,20,130,44,-120,76,192,3,-7,-70,-72,-107
-110,20,130,44,-120,76,192,3,-7,-64,-78,-95
-110,20,130,44,-120,76,198,15,-7,-58,-78,-95
-104,20,124,38,-114,70,198,15,-1,-58,-78,-95
-110,14,124,50,-114,70,198,21,-1,-52,-72,-95
-110,14,124,50,-114,70,198,21,-1,-52,-78,-95
-110,8,118,50,-114,64,204,27,5,-46,-72,-95
-104,14,118,44,-108,64,204,33,17,-46,-72,-101
-104,14,118,44,-108,64,204,39,17,-46,-72,-101
-104,14,118,44,-108,64,204,39,23,-52,-72,-95
-104,20,124,38,-114,70,210,33,17,-52,-72,-95
-110,20,130,44,-120,76,210,33,17,-40,-66,-95
-110,26,136,44,-120,82,210,39,17,-40,-60,-89
-110,20,130,44,-120,76,222,39,17,-40,-60,-89
-110,20,130,44,-120,76,228,45,17,-40,-60,-95
-110,20,130,44,-120,76,228,51,29,-34,-60,-95
-110,26,136,44,-120,82,228,57,29,-28,-60,-89
-104,26,130,38,-114,76,228,63,29,-28,-60,-89
-104,32,136,32,-120,82,228,63,35,-34,-66,-95
-104,32,136,32,-120,82,228,69,41,-34,-60,-95
-110,32,142,38,-126,88,228,69,41,-34,-60,-95
-110,38,148,38,-126,94,228,69,47,-34,-66,-95
-116,44,160,32,-138,100,228,75,53,-28,-60,-95
-116,38,154,38,-132,94,234,81,59,-28,-60,-89
-116,38,154,38,-132,94,234,81,59,-22,-54,-83
-116,38,154,38,-132,94,234,87,59,-17,-54,-83
-116,38,154,38,-132,94,234,93,65,-17,-48,-83
-104,38,142,32,-120,88,234,93,65,-17,-42,-83
-110,44,154,32,-132,100,240,99,65,-12,-42,-83
-110,44,154,32,-132,100,246,99,71,-12,-48,-89
-110,38,148,38,-126,94,252,111,77,-12,-42,-83
-110,38,148,38,-126,94,258,117,83,-12,-42,-77
-110,44,154,32,-132,100,258,117,83,-12,-42,-71
-110,50,160,32,-132,106,258,123,77,-6,-42,-71
-104,56,160,20,-132,106,264,129,83,0,-30,-65
-104,50,154,26,-126,100,264,141,89,0,-30,-65
-110,44,154,32,-132,100,270,141,95,6,-24,-65
-104,44,148,26,-126,94,270,147,107,6,-24,-65
-104,44,148,26,-126,94,276,153,113,12,-24,-65
-104,50,154,26,-126,100,282,165,119,12,-24,-65
-104,62,166,20,-132,112,282,177,131,12,-24,-59
-104,62,166,20,-132,112,288,183,131,12,-24,-59
-104,62,166,20,-132,112,300,189,137,18,-12,-53
-98,62,160,20,-126,112,306,195,143,30,-12,-47
-98,74,172,14,-132,124,312,207,149,36,-12,-47
-92,74,166,8,-126,118,312,219,161,42,-7,-41
-86,74,160,8,-120,118,318,225,167,48,-2,-35
-80,80,160,-3,-120,118,318,237,185,60,4,-35
-80,80,160,-3,-120,118,324,243,191,60,10,-29
-80,80,160,-3,-120,118,324,249,197,72,16,-29
-80,80,160,-3,-120,118,324,261,209,78,28,-23
-80,86,166,-3,-120,124,330,267,215,84,28,-23
-80,86,166,-3,-120,124,336,279,221,90,34,-17
-86,92,178,-3,-132,136,336,297,233,96,40,-11
-86,104,190,-8,-138,148,336,309,239,102,40,-11
-86,110,196,-8,-138,154,336,321,245,114,46,-6
-86,110,196,-8,-138,154,348,333,257,120,52,-6
-74,116,190,-20,-132,154,354,339,263,126,64,5
-68,122,190,-26,-126,154,354,351,275,132,76,11
-68,128,196,-32,-132,160,360,363,287,144,82,17
-68,122,190,-26,-126,154,366,375,299,150,88,23
-62,128,190,-32,-126,160,372,381,317,162,94,29
-62,140,202,-38,-132,172,372,393,323,168,100,35
-56,152,208,-50,-132,178,378,405,329,174,106,35
-56,158,214,-50,-132,184,378,417,335,186,112,41
-50,164,214,-56,-132,190,372,429,341,198,118,59
-50,164,214,-56,-132,190,372,441,353,210,136,65
-44,170,214,-62,-126,190,378,447,365,216,142,71
-38,176,214,-68,-126,196,378,459,377,228,154,83
-38,182,220,-68,-126,202,378,465,395,234,166,89
-32,194,226,-80,-126,208,378,477,407,246,172,95
-32,200,232,-86,-132,214,384,483,413,264,184,107
-32,206,238,-86,-132,220,378,489,419,270,190,113
-20,218,238,-98,-126,226,378,489,419,282,196,125
-20,224,244,-104,-132,232,384,501,431,294,202,137
-14,224,238,-104,-126,232,378,507,437,306,220,149
-2,230,232,-110,-114,232,372,513,449,312,226,155
-2,236,238,-116,-120,238,372,519,461,318,238,161
4,242,238,-122,-114,238,366,525,467,324,244,173
9,254,244,-128,-114,250,360,537,473,330,256,185
9,254,244,-128,-114,250,354,537,479,336,268,191
9,260,250,-134,-120,256,354,537,479,342,274,197
14,260,244,-134,-114,256,354,531,485,354,280,209
14,266,250,-134,-114,262,348,531,485,366,292,215
20,272,250,-146,-114,262,342,531,485,366,298,221
26,284,256,-152,-114,274,330,531,491,366,298,227
32,290,256,-158,-108,274,324,531,497,366,304,239
32,284,250,-158,-108,268,318,531,497,366,304,245
44,284,238,-164,-96,262,306,531,497,372,310,245
50,290,238,-164,-90,268,294,525,485,372,310,251
56,290,232,-170,-84,262,282,519,479,366,310,257
56,290,232,-170,-84,262,270,507,473,366,316,257
62,290,226,-170,-78,262,258,495,467,366,322,257
62,296,232,-176,-84,268,240,483,461,360,322,257
68,302,232,-182,-78,268,228,471,455,360,316,257
74,302,226,-182,-72,268,216,465,455,360,316,263
74,296,220,-182,-72,262,210,453,449,354,310,263
74,284,208,-176,-66,250,204,441,437,348,304,263
68,278,208,-170,-66,244,192,429,431,342,304,263
74,272,196,-170,-60,238,192,417,413,336,304,269
68,266,196,-164,-60,232,186,405,401,324,304,257
62,266,202,-158,-66,238,174,387,383,312,298,251
62,260,196,-158,-66,232,162,375,359,300,286,239
50,254,202,-146,-72,232,156,357,341,288,274,233
38,254,214,-140,-84,238,144,339,329,282,262,221
32,254,220,-140,-90,238,138,321,317,270,250,203
26,236,208,-128,-90,226,132,309,305,258,232,197
20,224,202,-122,-90,214,126,291,299,246,226,191
14,212,196,-110,-90,208,126,273,281,228,214,179
14,206,190,-104,-84,202,120,255,257,204,196,161
9,194,184,-98,-84,190,120,243,239,192,178,149
9,176,166,-92,-78,172,114,225,221,168,166,131
-2,164,166,-80,-84,166,114,201,197,144,148,113
-2,158,160,-74,-78,160,108,183,185,126,124,95
-2,140,142,-68,-72,142,108,165,161,114,106,83
-14,128,142,-56,-78,136,102,141,143,102,94,71
-20,110,130,-44,-72,118,96,123,131,90,88,59
-32,98,130,-32,-78,112,90,105,113,72,76,53
-44,86,130,-20,-84,106,90,93,95,60,58,41
-44,80,124,-20,-84,100,84,75,77,42,46,23
-44,80,124,-20,-84,100,78,63,65,24,34,11
-50,68,118,-8,-84,94,78,57,47,18,16,-1
-50,62,112,-3,-78,88,78,45,35,6,4,-6
-50,56,106,-3,-78,82,72,33,35,-6,-7,-17
-56,50,106,2,-78,76,72,21,23,-17,-12,-23
-62,38,100,14,-78,70,66,15,17,-22,-24,-35
-62,26,88,20,-72,58,66,9,11,-34,-30,-41
-62,14,76,26,-66,46,60,-3,-1,-40,-30,-47
-68,2,70,32,-66,34,66,-8,-7,-52,-36,-47
-68,-8,58,32,-66,22,60,-13,-12,-58,-36,-53
-68,-20,46,38,-60,10,48,-19,-23,-64,-42,-59
-68,-26,40,44,-54,4,42,-25,-29,-70,-54,-65
-74,-26,46,50,-60,10,42,-31,-41,-70,-60,-71
-74,-26,46,50,-60,10,36,-37,-47,-76,-66,-71
-74,-32,40,50,-60,4,36,-43,-47,-82,-78,-83
-74,-32,40,50,-60,4,30,-43,-53,-88,-84,-83
-74,-38,34,56,-54,-2,24,-49,-59,-100,-90,-89
-74,-32,40,50,-60,4,24,-55,-59,-112,-90,-89
-74,-38,34,56,-54,-2,24,-55,-65,-112,-96,-95
-74,-44,28,56,-54,-7,24,-61,-65,-112,-96,-95
-68,-44,22,50,-48,-12,24,-61,-71,-112,-96,-95
-68,-50,16,56,-42,-18,24,-61,-77,-118,-96,-95
-68,-56,10,56,-42,-24,24,-61,-77,-112,-96,-89
-68,-56,10,56,-42,-24,24,-61,-77,-106,-96,-89
-68,-56,10,56,-42,-24,30,-55,-77,-106,-96,-89
-74,-62,10,68,-42,-24,24,-55,-77,-106,-96,-89
-74,-62,10,68,-42,-24,24,-55,-71,-112,-96,-89
-74,-56,16,62,-48,-18,30,-61,-71,-112,-96,-95
-80,-44,34,56,-60,-7,24,-61,-71,-112,-96,-89
-80,-38,40,56,-60,-2,24,-61,-77,-112,-96,-89
-74,-32,40,50,-60,4,18,-67,-83,-118,-96,-95
-74,-38,34,56,-54,-2,18,-61,-83,-118,-96,-95
-80,-50,28,62,-54,-12,18,-61,-89,-112,-96,-95
-80,-50,28,62,-54,-12,18,-61,-89,-112,-96,-101
-80,-50,28,62,-54,-12,24,-61,-83,-118,-96,-101
-80,-56,22,62,-54,-18,30,-61,-83,-112,-90,-101
-80,-62,16,68,-48,-24,30,-61,-77,-112,-90,-95
-80,-56,22,62,-54,-18,36,-61,-77,-112,-90,-95
-80,-56,22,62,-54,-18,36,-61,-77,-112,-90,-101
-80,-56,22,62,-54,-18,36,-61,-77,-118,-90,-95
-80,-50,28,62,-54,-12,30,-61,-77,-112,-90,-95
-80,-50,28,62,-54,-12,24,-61,-77,-112,-96,-95
-80,-44,34,56,-60,-7,24,-61,-77,-118,-102,-95
-80,-50,28,62,-54,-12,24,-67,-83,-118,-102,-101
-80,-50,28,62,-54,-12,24,-67,-83,-124,-108,-95
-74,-50,22,62,-48,-12,24,-61,-83,-124,-108,-101
-74,-50,22,62,-48,-12,24,-61,-77,-118,-96,-95
-74,-56,16,62,-48,-18,36,-61,-77,-118,-96,-95
-74,-62,10,68,-42,-24,36,-61,-77,-118,-90,-95
-80,-50,28,62,-54,-12,36,-61,-77,-118,-96,-95
-80,-50,28,62,-54,-12,36,-67,-71,-118,-102,-101
-80,-50,28,62,-54,-12,36,-67,-77,-124,-102,-107
-74,-50,22,62,-48,-12,36,-67,-83,-118,-102,-107
-80,-50,28,62,-54,-12,36,-67,-77,-118,-102,-101
-80,-44,34,56,-60,-7,36,-67,-77,-118,-102,-101
-86,-38,46,62,-66,4,36,-67,-83,-118,-102,-101
-86,-38,46,62,-66,4,36,-67,-83,-118,-96,-95
-86,-38,46,62,-66,4,42,-67,-77,-118,-96,-95
-86,-50,34,68,-60,-7,42,-67,-71,-118,-90,-95
-92,-50,40,68,-66,-7,42,-67,-71,-118,-90,-95
-92,-44,46,62,-72,-2,36,-73,-77,-118,-90,-95
-98,-44,52,68,-78,4,30,-73,-77,-118,-96,-101
-92,-38,52,62,-72,4,24,-73,-71,-124,-96,-101
-92,-38,52,62,-72,4,24,-67,-77,-124,-96,-101
-86,-38,46,62,-66,4,24,-61,-77,-112,-90,-95
-86,-38,46,62,-66,4,24,-61,-77,-112,-84,-95
-92,-38,52,62,-72,4,30,-61,-77,-112,-84,-95
-92,-38,52,62,-72,4,36,-61,-71,-118,-84,-95
-86,-32,52,56,-72,10,36,-67,-77,-118,-90,-101
-86,-26,58,56,-72,16,36,-73,-83,-118,-90,-101
-86,-20,64,50,-78,22,42,-73,-83,-112,-96,-101
-92,-26,64,56,-78,16,42,-73,-77,-112,-96,-101
-92,-32,58,56,-78,10,42,-79,-83,-118,-96,-101
-86,-38,46,62,-66,4,42,-73,-83,-118,-96,-95
-86,-38,46,62,-66,4,42,-67,-83,-118,-96,-95
-92,-38,52,62,-72,4,42,-61,-77,-124,-90,-89
-92,-38,52,62,-72,4,42,-61,-71,-118,-90,-89
-92,-32,58,56,-78,10,42,-61,-71,-112,-90,-89
-98,-32,64,62,-84,16,42,-61,-71,-112,-90,-89
-98,-32,64,62,-84,16,36,-61,-71,-112,-96,-89
-98,-26,70,62,-84,22,36,-61,-71,-118,-96,-95
-98,-26,70,62,-84,22,30,-67,-77,-124,-108,-95
-92,-20,70,50,-84,22,30,-73,-83,-124,-102,-89
-92,-20,70,50,-84,22,30,-79,-83,-124,-102,-95
-86,-20,64,50,-78,22,30,-73,-83,-118,-102,-95
-86,-26,58,56,-72,16,30,-73,-83,-118,-96,-95
-92,-32,58,56,-78,10,30,-73,-83,-118,-96,-101
-92,-38,52,62,-72,4,36,-73,-89,-124,-96,-95
-92,-44,46,62,-72,-2,36,-73,-83,-124,-90,-95
-92,-38,52,62,-72,4,36,-79,-89,-124,-96,-95
-92,-38,52,62,-72,4,36,-79,-95,-130,-102,-101
-92,-32,58,56,-78,10,36,-85,-95,-136,-108,-95
-98,-32,64,62,-84,16,36,-85,-95,-142,-108,-95
-98,-32,64,62,-84,16,30,-91,-95,-142,-108,-95
-104,-32,70,62,-90,16,30,-91,-101,-148,-114,-101
-98,-26,70,62,-84,22,24,-85,-101,-142,-114,-101
-98,-26,70,62,-84,22,24,-91,-101,-142,-114,-101
-98,-20,76,56,-90,28,30,-91,-107,-142,-120,-107
-104,-26,76,62,-90,22,30,-91,-107,-142,-114,-107
-104,-26,76,62,-90,22,30,-91,-113,-148,-114,-107
-104,-26,76,62,-90,22,30,-97,-113,-148,-120,-113
-104,-26,76,62,-90,22,30,-103,-107,-148,-108,-113
-104,-32,70,62,-90,16,36,-103,-101,-136,-102,-113
-104,-44,58,68,-84,4,36,-103,-101,-142,-108,-113
-110,-50,58,80,-84,4,30,-103,-101,-142,-108,-113
-98,-50,46,74,-72,-2,30,-103,-101,-142,-108,-107
-92,-44,46,62,-72,-2,30,-91,-101,-148,-114,-107
-92,-44,46,62,-72,-2,30,-85,-107,-148,-114,-107
-92,-38,52,62,-72,4,30,-85,-107,-148,-108,-107
-92,-32,58,56,-78,10,24,-91,-113,-148,-114,-107
-92,-32,58,56,-78,10,24,-97,-113,-154,-120,-101
-92,-38,52,62,-72,4,18,-97,-119,-154,-114,-101
-92,-38,52,62,-72,4,18,-103,-125,-154,-120,-107
-92,-32,58,56,-78,10,18,-109,-125,-154,-120,-107
-92,-32,58,56,-78,10,24,-109,-125,-154,-120,-107
-86,-38,46,62,-66,4,24,-109,-125,-148,-120,-107
-86,-50,34,68,-60,-7,18,-109,-125,-154,-120,-107
-80,-50,28,62,-54,-12,12,-109,-125,-160,-120,-107
-80,-56,22,62,-54,-18,18,-115,-125,-160,-126,-113
-80,-50,28,62,-54,-12,12,-115,-125,-160,-126,-113
-80,-38,40,56,-60,-2,12,-115,-125,-166,-126,-113
-86,-38,46,62,-66,4,18,-115,-125,-166,-126,-113
-92,-38,52,62,-72,4,18,-115,-131,-166,-132,-119
-92,-38,52,62,-72,4,18,-115,-131,-166,-132,-119
-86,-44,40,62,-66,-2,18,-115,-137,-166,-132,-119
-86,-50,34,68,-60,-7,18,-115,-137,-172,-132,-113
-86,-44,40,62,-66,-2,12,-121,-137,-172,-132,-113
-92,-32,58,56,-78,10,12,-115,-137,-172,-132,-113
-86,-32,52,56,-72,10,12,-115,-131,-166,-132,-113
-86,-32,52,56,-72,10,12,-121,-137,-166,-132,-113
-92,-32,58,56,-78,10,6,-127,-137,-172,-132,-113
-92,-38,52,62,-72,4,6,-127,-137,-166,-126,-113
-98,-50,46,74,-72,-2,18,-127,-137,-166,-126,-107
-98,-50,46,74,-72,-2,18,-127,-137,-166,-126,-107
-98,-44,52,68,-78,4,12,-133,-137,-172,-126,-113
-98,-44,52,68,-78,4,12,-133,-137,-166,-126,-119
-98,-50,46,74,-72,-2,18,-127,-137,-166,-126,-119
-98,-50,46,74,-72,-2,12,-127,-143,-172,-126,-125
-92,-50,40,68,-66,-7,18,-127,-137,-172,-126,-125
-86,-50,34,68,-60,-7,12,-121,-137,-178,-126,-125
-86,-44,40,62,-66,-2,18,-121,-137,-172,-126,-119
-86,-38,46,62,-66,4,12,-127,-143,-172,-126,-119
-86,-38,46,62,-66,4,12,-127,-143,-178,-126,-119
-86,-44,40,62,-66,-2,12,-127,-143,-172,-126,-119
-86,-44,40,62,-66,-2,12,-127,-143,-178,-126,-119
-92,-44,46,62,-72,-2,12,-127,-143,-178,-126,-119
-92,-44,46,62,-72,-2,6,-133,-149,-178,-132,-119
-92,-38,52,62,-72,4,6,-133,-143,-178,-138,-119
-92,-38,52,62,-72,4,0,-139,-149,-178,-138,-125
-92,-38,52,62,-72,4,0,-139,-149,-184,-138,-131
-92,-44,46,62,-72,-2,6,-133,-149,-178,-138,-131
-86,-50,34,68,-60,-7,0,-133,-149,-178,-138,-125
-92,-50,40,68,-66,-7,0,-139,-149,-184,-144,-125
-92,-50,40,68,-66,-7,0,-133,-143,-184,-132,-119
-92,-44,46,62,-72,-2,6,-133,-143,-184,-138,-125
-92,-38,52,62,-72,4,6,-139,-149,-184,-138,-125
-92,-38,52,62,-72,4,12,-133,-149,-184,-144,-125
-92,-38,52,62,-72,4,12,-133,-143,-178,-144,-125
-86,-38,46,62,-66,4,12,-133,-143,-178,-144,-125
-86,-32,52,56,-72,10,12,-133,-143,-172,-144,-125
-86,-26,58,56,-72,16,6,-139,-149,-178,-144,-125
-86,-32,52,56,-72,10,6,-133,-149,-178,-138,-119
-80,-26,52,50,-66,10,6,-133,-149,-178,-138,-119
-80,-26,52,50,-66,10,6,-133,-149,-178,-138,-119
-80,-26,52,50,-66,10,6,-133,-149,-184,-126,-119
-80,-26,52,50,-66,10,0,-133,-149,-178,-132,-119
-80,-26,52,50,-66,10,0,-133,-149,-178,-132,-119
-74,-26,46,50,-60,10,6,-133,-143,-178,-132,-119
-74,-20,52,44,-66,16,6,-139,-149,-184,-132,-119
-74,-26,46,50,-60,10,6,-133,-149,-178,-132,-119
-74,-32,40,50,-60,4,6,-133,-143,-178,-132,-125
-74,-32,40,50,-60,4,6,-127,-143,-178,-132,-125
-74,-38,34,56,-54,-2,12,-127,-137,-178,-126,-119
-74,-32,40,50,-60,4,12,-127,-137,-166,-126,-113
-68,-32,34,44,-54,-2,12,-127,-137,-166,-132,-113
-74,-32,40,50,-60,4,12,-133,-143,-172,-126,-113
-74,-32,40,50,-60,4,12,-133,-143,-178,-132,-113
-74,-32,40,50,-60,4,6,-133,-149,-184,-132,-113
-74,-26,46,50,-60,10,6,-133,-143,-184,-132,-119
-74,-20,52,44,-66,16,-6,-139,-149,-190,-132,-119
-74,-14,58,44,-66,22,-11,-145,-155,-196,-138,-119
-80,-8,70,38,-78,28,-11,-145,-155,-190,-144,-119
-80,-8,70,38,-78,28,-11,-151,-161,-190,-144,-125
-80,-14,64,44,-72,22,-6,-151,-155,-184,-144,-119
-80,-20,58,44,-72,16,0,-139,-149,-184,-144,-119
-74,-26,46,50,-60,10,6,-133,-149,-184,-138,-113
-74,-26,46,50,-60,10,6,-133,-149,-184,-138,-113
-74,-26,46,50,-60,10,6,-133,-149,-184,-132,-113
-74,-32,40,50,-60,4,6,-133,-143,-184,-126,-119
-68,-32,34,44,-54,-2,6,-133,-143,-184,-132,-119
-68,-26,40,44,-54,4,0,-133,-143,-184,-132,-125
-68,-26,40,44,-54,4,0,-139,-143,-184,-132,-125
-74,-26,46,50,-60,10,0,-139,-149,-184,-132,-131
-74,-26,46,50,-60,10,0,-145,-155,-190,-138,-137
-74,-26,46,50,-60,10,0,-145,-155,-184,-138,-131
-74,-20,52,44,-66,16,6,-151,-161,-190,-132,-131
-74,-20,52,44,-66,16,6,-139,-155,-184,-132,-125
-68,-20,46,38,-60,10,6,-139,-161,-184,-132,-125
-68,-20,46,38,-60,10,0,-139,-155,-178,-132,-119
-74,-14,58,44,-66,22,0,-139,-155,-178,-132,-119
-74,-14,58,44,-66,22,0,-139,-155,-178,-132,-119
-74,-14,58,44,-66,22,0,-139,-149,-178,-132,-119
-74,-14,58,44,-66,22,0,-139,-149,-184,-138,-119
-74,-20,52,44,-66,16,0,-139,-155,-184,-132,-119
-74,-26,46,50,-60,10,0,-139,-155,-184,-132,-119
-74,-20,52,44,-66,16,6,-139,-155,-184,-132,-119
-74,-14,58,44,-66,22,12,-139,-155,-184,-132,-113
-74,-14,58,44,-66,22,6,-145,-155,-184,-126,-113
-74,-14,58,44,-66,22,6,-133,-155,-178,-132,-113
-62,-20,40,38,-54,10,0,-127,-155,-178,-126,-113
-62,-14,46,38,-54,16,0,-127,-149,-178,-126,-119
-62,-14,46,38,-54,16,0,-127,-143,-178,-126,-119
-62,-20,40,38,-54,10,6,-127,-149,-178,-126,-119
-68,-26,40,44,-54,4,12,-127,-149,-178,-126,-113
-62,-26,34,44,-48,4,12,-121,-143,-178,-120,-113
-62,-20,40,38,-54,10,18,-121,-143,-178,-120,-107
-62,-14,46,38,-54,16,24,-121,-137,-172,-114,-107
-62,-8,52,32,-60,22,30,-115,-131,-166,-114,-107
-56,-3,52,26,-54,22,36,-115,-131,-166,-114,-101
-56,8,64,20,-60,34,36,-115,-131,-160,-108,-101
-56,14,70,20,-60,40,42,-109,-125,-154,-108,-95
-56,32,88,8,-72,58,48,-103,-125,-148,-102,-95
-56,44,100,2,-78,70,54,-97,-113,-136,-96,-83
-50,62,112,-3,-78,88,54,-91,-107,-130,-90,-77
-44,86,130,-20,-84,106,60,-85,-101,-130,-84,-71
-32,98,130,-32,-78,112,60,-85,-101,-124,-72,-65
-26,110,136,-38,-78,124,60,-85,-95,-124,-66,-59
-14,110,124,-44,-66,118,60,-79,-89,-118,-60,-53
-14,110,124,-44,-66,118,60,-79,-83,-112,-54,-47
-8,98,106,-44,-54,100,60,-73,-77,-112,-54,-47
-8,92,100,-44,-54,94,66,-67,-77,-112,-54,-41
-2,80,82,-38,-42,82,66,-61,-77,-112,-54,-41
-2,74,76,-32,-36,76,60,-55,-83,-118,-60,-41
4,68,64,-38,-30,64,60,-55,-83,-124,-72,-47
4,56,52,-32,-24,52,60,-55,-83,-124,-78,-53
4,44,40,-26,-18,40,54,-61,-89,-118,-78,-53
-2,44,46,-20,-24,46,48,-67,-89,-124,-84,-59
-8,44,52,-20,-30,46,36,-73,-95,-124,-78,-65
-8,44,52,-20,-30,46,24,-79,-101,-130,-78,-71
-8,38,46,-14,-24,40,18,-91,-107,-142,-78,-77
-14,26,40,-3,-24,34,12,-97,-113,-148,-84,-83
-20,26,46,-3,-30,34,6,-103,-119,-148,-90,-89
-26,32,58,-3,-42,46,12,-109,-119,-148,-90,-83
-32,20,52,2,-42,34,12,-109,-119,-148,-96,-83
-38,8,46,14,-42,28,12,-103,-119,-154,-96,-83
-38,2,40,20,-36,22,12,-115,-125,-154,-102,-83
-44,2,46,20,-42,22,12,-121,-125,-160,-108,-89
-44,8,52,14,-48,28,12,-127,-125,-160,-114,-89
-50,14,64,20,-54,40,24,-127,-119,-160,-108,-95
-50,20,70,14,-60,46,30,-133,-119,-160,-114,-95
-56,26,82,14,-66,52,36,-133,-125,-160,-114,-101
-62,26,88,20,-72,58,36,-133,-125,-166,-120,-101
-62,26,88,20,-72,58,42,-133,-125,-160,-108,-101
-68,20,88,20,-78,52,54,-127,-125,-154,-108,-101
-62,20,82,20,-72,52,60,-127,-125,-154,-102,-101
-62,26,88,20,-72,58,60,-133,-125,-148,-102,-101
-62,20,82,20,-72,52,66,-127,-131,-154,-102,-95
-62,14,76,26,-66,46,78,-127,-125,-154,-102,-95
-56,8,64,20,-60,34,90,-127,-125,-154,-96,-95
-56,2,58,26,-54,28,108,-115,-107,-148,-96,-95
-56,-20,34,32,-48,4,126,-109,-107,-148,-96,-95
-56,-32,22,38,-42,-7,144,-97,-107,-154,-102,-101
-62,-44,16,50,-42,-12,168,-91,-107,-154,-102,-107
-56,-56,-2,50,-30,-30,192,-73,-101,-154,-108,-107
-50,-68,-18,56,-18,-42,210,-55,-89,-148,-102,-95
-38,-80,-42,56,0,-60,216,-31,-77,-136,-96,-83
-26,-92,-66,56,16,-78,216,-19,-71,-130,-90,-71
-8,-98,-90,50,40,-96,198,-8,-59,-112,-72,-53
14,-110,-126,50,70,-114,150,3,-53,-100,-60,-35
50,-122,-174,38,112,-144,54,15,-53,-88,-42,-17
92,-128,-222,14,154,-174,-70,9,-53,-88,-30,-6
146,-140,-288,-3,214,-210,-226,3,-65,-82,-12,11
200,-164,-366,-20,280,-264,-406,-8,-77,-76,-2,35
266,-182,-450,-38,358,-312,-610,-25,-107,-76,10,65
326,-206,-534,-56,430,-366,-808,-43,-137,-82,16,95
380,-236,-618,-74,496,-426,-964,-49,-161,-82,22,119
428,-278,-708,-74,568,-492,-1096,-67,-185,-88,28,137
482,-332,-816,-74,646,-570,-1240,-97,-233,-112,28,149
542,-404,-948,-68,742,-672,-1372,-115,-269,-124,16,149
590,-482,-1074,-50,832,-774,-1492,-133,-311,-148,-2,137
650,-554,-1206,-44,928,-876,-1606,-163,-359,-184,-24,125
698,-626,-1326,-32,1012,-972,-1714,-181,-407,-220,-48,107
758,-692,-1452,-32,1102,-1068,-1804,-193,-443,-244,-54,101
812,-746,-1560,-32,1186,-1152,-1876,-205,-473,-262,-72,101
866,-800,-1668,-32,1264,-1230,-1918,-199,-485,-274,-78,101
914,-842,-1758,-32,1336,-1296,-1942,-181,-479,-262,-66,119
968,-866,-1836,-50,1402,-1350,-1960,-181,-467,-232,-30,155
1028,-854,-1884,-86,1456,-1368,-1984,-175,-455,-184,28,215
1094,-818,-1914,-134,1504,-1362,-1990,-163,-431,-118,112,305
1160,-764,-1926,-200,1540,-1344,-1996,-139,-389,-34,220,419
1220,-680,-1902,-272,1558,-1290,-2002,-145,-335,72,352,557
1274,-560,-1836,-356,1552,-1194,-2008,-139,-263,210,514,731
1304,-404,-1710,-452,1504,-1056,-1996,-127,-179,360,688,917
1304,-242,-1548,-530,1426,-894,-1948,-103,-95,480,838,1079
1268,-92,-1362,-590,1312,-726,-1870,-97,-29,576,946,1199
1208,32,-1176,-620,1192,-570,-1768,-97,11,630,1018,1265
1142,122,-1020,-626,1084,-444,-1642,-85,41,654,1048,1289
1070,188,-882,-626,976,-342,-1504,-79,59,654,1036,1283
968,224,-744,-596,856,-258,-1348,-91,47,612,988,1217
848,242,-606,-542,730,-180,-1186,-145,-7,522,886,1109
716,236,-480,-476,598,-120,-1030,-217,-71,396,736,965
578,224,-354,-398,466,-60,-874,-283,-161,252,574,791
452,206,-246,-326,352,-18,-730,-313,-209,120,412,623
350,182,-168,-260,262,10,-604,-313,-233,24,280,473
272,152,-120,-212,196,16,-490,-283,-227,-34,178,341
206,110,-96,-152,154,10,-376,-235,-209,-76,100,221
146,68,-78,-104,112,-2,-268,-187,-185,-94,46,137
98,44,-54,-68,76,-2,-184,-157,-167,-106,4,71
68,26,-42,-44,58,-7,-112,-133,-149,-106,-12,35
32,14,-18,-20,28,-2,-58,-109,-131,-106,-30,5
9,14,4,-8,6,10,-16,-85,-113,-94,-42,-6
-14,8,22,2,-18,16,12,-61,-89,-88,-54,-17
-32,14,46,8,-36,28,24,-43,-71,-94,-54,-35
-44,20,64,8,-54,40,36,-31,-65,-94,-54,-41
-50,32,82,8,-66,58,48,-31,-65,-106,-66,-59
-56,32,88,8,-72,58,60,-31,-59,-112,-72,-65
-62,26,88,20,-72,58,72,-31,-65,-118,-78,-77
-74,20,94,26,-84,58,84,-37,-71,-124,-84,-83
-74,14,88,32,-78,52,96,-43,-71,-124,-90,-95
-80,14,94,32,-84,52,108,-37,-71,-130,-96,-101
-92,14,106,38,-96,58,114,-31,-65,-130,-108,-107
-92,14,106,38,-96,58,120,-31,-65,-130,-108,-113
-98,14,112,44,-102,64,132,-25,-59,-130,-114,-113
-98,20,118,38,-108,70,132,-25,-59,-130,-114,-113
-98,20,118,38,-108,70,132,-25,-59,-130,-114,-113
-98,20,118,38,-108,70,138,-19,-59,-130,-114,-113
-98,14,112,44,-102,64,138,-19,-65,-130,-114,-113
-98,14,112,44,-102,64,144,-25,-65,-136,-108,-113
-92,20,112,32,-102,64,150,-25,-59,-136,-108,-119
-92,20,112,32,-102,64,156,-25,-53,-136,-102,-119
-92,14,106,38,-96,58,156,-25,-53,-136,-102,-119
-98,14,112,44,-102,64,156,-25,-47,-136,-96,-125
-104,14,118,44,-108,64,156,-19,-47,-130,-96,-119
-98,20,118,38,-108,70,156,-25,-47,-130,-102,-119
-98,20,118,38,-108,70,156,-25,-47,-130,-108,-113
-98,20,118,38,-108,70,162,-25,-47,-130,-114,-113
-98,20,118,38,-108,70,162,-19,-47,-124,-114,-113
-104,20,124,38,-114,70,162,-19,-47,-130,-114,-119
-104,20,124,38,-114,70,162,-19,-47,-130,-114,-125
-98,14,112,44,-102,64,162,-13,-47,-124,-108,-125
-98,14,112,44,-102,64,162,-13,-41,-124,-108,-125
-98,14,112,44,-102,64,168,-13,-35,-124,-102,-113
-104,14,118,44,-108,64,174,-13,-35,-124,-102,-113
-104,20,124,38,-114,70,174,-8,-41,-124,-96,-113
-104,26,130,38,-114,76,174,-8,-35,-118,-96,-107
-104,20,124,38,-114,70,180,-3,-29,-118,-90,-101
-104,20,124,38,-114,70,186,3,-23,-118,-90,-101
-98,14,112,44,-102,64,186,9,-17,-118,-84,-95
-98,26,124,38,-108,76,186,9,-12,-106,-84,-95
-98,38,136,32,-114,88,180,9,-17,-106,-90,-95
-98,38,136,32,-114,88,186,15,-17,-106,-90,-101
-92,38,130,26,-108,82,186,15,-12,-106,-90,-101
-92,38,130,26,-108,82,186,15,-12,-106,-90,-101
-86,38,124,26,-102,82,192,15,-12,-100,-84,-107
-86,38,124,26,-102,82,192,21,-7,-100,-84,-107
-86,44,130,20,-108,88,198,21,-1,-100,-84,-107
-86,32,118,26,-102,76,204,27,-1,-88,-84,-107
-80,26,106,26,-90,64,204,33,5,-88,-84,-107
-86,26,112,32,-96,70,210,39,5,-82,-84,-107
-80,32,112,20,-96,70,204,45,5,-88,-90,-107
-80,32,112,20,-96,70,204,51,11,-88,-84,-107
-86,32,118,26,-102,76,198,51,5,-88,-78,-107
-86,38,124,26,-102,82,198,51,5,-88,-84,-107
-86,38,124,26,-102,82,204,57,11,-88,-78,-101
-80,38,118,20,-96,76,204,63,23,-82,-72,-89
-80,38,118,20,-96,76,210,63,29,-82,-72,-89
-80,38,118,20,-96,76,210,63,35,-82,-72,-89
-80,44,124,14,-102,82,216,69,41,-70,-72,-89
-80,50,130,14,-102,88,222,75,47,-70,-72,-89
-80,50,130,14,-102,88,228,81,53,-64,-66,-89
-86,50,136,20,-108,94,234,87,53,-58,-60,-89
-86,50,136,20,-108,94,234,99,53,-58,-54,-83
-92,50,142,20,-114,94,234,105,59,-52,-54,-77
-92,56,148,14,-120,100,234,105,53,-52,-54,-77
-86,50,136,20,-108,94,240,111,59,-40,-42,-71
-86,56,142,14,-114,100,246,117,65,-40,-42,-65
-80,56,136,8,-108,94,246,123,77,-34,-42,-65
-80,56,136,8,-108,94,252,129,83,-34,-42,-71
-80,56,136,8,-108,94,252,135,89,-28,-42,-71
-80,62,142,8,-108,100,258,141,89,-28,-42,-65
-80,68,148,2,-114,106,258,147,95,-22,-42,-65
-80,74,154,2,-114,112,264,153,95,-22,-36,-65
-80,80,160,-3,-120,118,270,159,95,-22,-30,-65
-80,80,160,-3,-120,118,276,165,107,-17,-24,-53
-74,86,160,-3,-114,124,282,171,113,-17,-18,-53
-68,80,148,-8,-108,112,282,177,119,-12,-12,-47
-62,74,136,-3,-96,106,288,189,131,-6,-12,-41
-62,80,142,-8,-102,112,294,201,143,6,-7,-29
-62,86,148,-8,-102,118,300,213,155,18,-2,-29
-62,98,160,-14,-108,130,300,225,167,24,4,-29
-56,104,160,-26,-108,130,300,231,173,30,10,-29
-56,116,172,-32,-114,142,306,237,173,30,10,-29
-62,122,184,-26,-120,154,312,243,179,36,16,-23
-62,122,184,-26,-120,154,318,255,185,48,28,-11
-62,116,178,-26,-120,148,324,267,197,54,34,-11
-56,128,184,-38,-120,154,336,279,203,66,34,-6
-56,134,190,-38,-120,160,336,291,221,72,40,-6
-50,134,184,-38,-114,160,342,303,233,78,46,-1
-50,140,190,-44,-120,166,348,321,245,90,52,5
-50,146,196,-44,-120,172,348,333,251,96,64,11
-56,146,202,-44,-126,172,354,339,263,108,70,17
-56,146,202,-44,-126,172,360,345,275,120,76,23
-50,146,196,-44,-120,172,366,357,287,126,94,29
-44,158,202,-56,-120,178,366,363,293,138,94,35
-44,170,214,-62,-126,190,366,369,299,144,106,41
-44,176,220,-68,-132,196,372,381,311,156,112,47
-38,182,220,-68,-126,202,378,399,323,162,118,53
-32,182,214,-74,-120,196,378,411,335,174,130,65
-32,182,214,-74,-120,196,378,429,347,186,136,71
-26,188,214,-80,-120,202,384,441,359,198,148,83
-20,200,220,-92,-120,208,384,441,371,210,160,95
-20,206,226,-92,-120,214,384,447,383,216,172,107
-20,212,232,-98,-126,220,384,465,389,228,178,119
-14,218,232,-98,-120,226,390,471,395,234,184,125
-14,224,238,-104,-126,232,390,477,401,246,190,143
-2,230,232,-110,-114,232,384,489,413,258,202,149
4,242,238,-122,-114,238,378,495,419,270,214,155
9,254,244,-128,-114,250,372,501,425,282,226,161
14,266,250,-134,-114,262,366,507,431,288,232,173
20,272,250,-146,-114,262,360,513,437,294,238,179
20,272,250,-146,-114,262,360,519,449,300,250,185
20,278,256,-146,-114,268,354,525,461,306,256,191
26,278,250,-146,-108,268,360,525,461,306,262,197
26,278,250,-146,-108,268,360,525,461,318,268,209
32,284,250,-158,-108,268,354,525,467,330,286,221
38,290,250,-158,-102,274,354,531,473,342,292,233
38,290,250,-158,-102,274,348,531,479,348,304,239
44,296,250,-170,-102,274,336,531,479,354,310,251
50,296,244,-170,-96,274,330,531,485,354,322,257
56,308,250,-182,-96,280,318,531,491,360,334,263
68,308,238,-188,-84,274,306,525,491,366,334,263
74,314,238,-188,-78,280,294,525,485,366,334,269
74,320,244,-194,-84,286,282,513,479,366,334,275
74,320,244,-194,-84,286,270,507,473,366,340,275
80,326,244,-200,-78,286,258,501,473,366,340,281
80,332,250,-206,-84,292,252,489,461,366,340,281
86,332,244,-206,-78,292,240,477,455,366,340,281
92,320,226,-206,-66,274,228,465,449,366,346,287
92,314,220,-200,-60,268,216,459,437,354,340,287
92,314,220,-200,-60,268,198,453,437,348,340,293
92,314,220,-200,-60,268,186,441,431,342,328,287
92,314,220,-200,-60,268,180,429,419,336,322,287
92,308,214,-200,-60,262,174,417,407,324,316,275
92,308,214,-200,-60,262,168,399,395,318,310,269
92,302,208,-194,-54,256,168,387,383,306,298,257
86,290,202,-182,-54,250,156,369,371,306,298,245
80,278,196,-176,-54,238,156,345,353,288,286,233
68,272,202,-170,-66,238,150,333,335,276,280,227
56,254,196,-152,-66,226,150,315,317,258,262,221
44,236,190,-140,-72,214,144,297,299,240,244,209
32,224,190,-128,-78,208,138,285,281,222,226,197
26,206,178,-110,-72,196,138,261,269,204,208,185
20,200,178,-110,-78,190,132,249,251,186,190,167
14,188,172,-98,-78,184,132,225,233,174,178,149
9,182,172,-92,-78,178,126,207,209,156,160,131
9,176,166,-92,-78,172,120,183,191,144,142,113
9,170,160,-86,-72,166,114,165,167,126,124,101
4,152,148,-80,-72,148,114,147,161,108,112,95
-2,128,130,-62,-66,130,114,135,143,96,100,83
-8,104,112,-50,-60,106,108,123,131,78,82,71
-14,92,106,-38,-60,100,102,105,113,60,70,53
-20,80,100,-32,-60,88,90,87,101,42,58,35
-26,74,100,-20,-60,88,96,75,83,24,46,23
-26,68,94,-20,-60,82,90,57,65,12,28,11
-32,62,94,-14,-60,76,84,45,47,6,22,11
-38,56,94,-8,-66,76,84,33,41,0,16,11
-38,44,82,-3,-60,64,78,21,23,-6,4,-1
-32,38,70,-3,-48,52,72,15,11,-17,-2,-6
-32,26,58,2,-42,40,72,9,-1,-22,-7,-11
-38,14,52,14,-42,34,66,-3,-7,-34,-12,-17
-38,2,40,20,-36,22,66,-8,-12,-40,-18,-23
-44,2,46,20,-42,22,60,-13,-12,-52,-18,-29
-44,2,46,20,-42,22,60,-19,-23,-58,-30,-35
-44,-3,40,20,-42,16,54,-25,-29,-64,-36,-41
-44,-14,28,26,-36,4,54,-31,-35,-70,-42,-41
-44,-20,22,26,-36,-2,48,-31,-35,-70,-48,-47
-44,-26,16,32,-30,-7,54,-31,-35,-70,-48,-53
-38,-38,-2,38,-18,-18,54,-37,-41,-76,-54,-53
-38,-32,4,32,-24,-12,48,-37,-41,-70,-54,-53
-32,-32,-2,26,-18,-18,48,-43,-41,-76,-54,-53
-32,-32,-2,26,-18,-18,42,-43,-41,-82,-60,-47
-38,-38,-2,38,-18,-18,42,-49,-47,-82,-60,-47
-38,-38,-2,38,-18,-18,36,-55,-59,-82,-66,-53
-44,-38,4,38,-24,-18,30,-55,-59,-88,-72,-59
-44,-44,-2,38,-24,-24,24,-61,-59,-94,-72,-59
-44,-44,-2,38,-24,-24,24,-67,-65,-94,-66,-59
-44,-44,-2,38,-24,-24,24,-67,-59,-94,-66,-59
-50,-44,4,44,-30,-18,24,-67,-53,-88,-66,-59
-50,-38,10,44,-30,-12,24,-61,-53,-88,-72,-65
-50,-38,10,44,-30,-12,24,-61,-59,-94,-66,-65
-50,-38,10,44,-30,-12,24,-61,-59,-94,-66,-71
-44,-38,4,38,-24,-18,30,-61,-59,-94,-60,-71
-38,-38,-2,38,-18,-18,30,-61,-59,-94,-60,-71
-44,-38,4,38,-24,-18,24,-61,-65,-88,-66,-71
-44,-38,4,38,-24,-18,24,-61,-65,-94,-66,-71
-44,-44,-2,38,-24,-24,18,-61,-65,-94,-66,-71
-44,-44,-2,38,-24,-24,18,-61,-59,-88,-66,-71
-44,-44,-2,38,-24,-24,18,-61,-59,-94,-66,-65
-44,-38,4,38,-24,-18,24,-67,-59,-94,-66,-65
-50,-38,10,44,-30,-12,24,-67,-59,-94,-66,-65
-50,-38,10,44,-30,-12,24,-61,-59,-88,-60,-65
-56,-44,10,44,-36,-18,30,-61,-53,-88,-60,-65
-56,-44,10,44,-36,-18,30,-55,-53,-82,-60,-65
-62,-38,22,50,-42,-7,30,-55,-53,-88,-60,-65
-50,-38,10,44,-30,-12,36,-55,-53,-88,-54,-59
-50,-38,10,44,-30,-12,36,-55,-53,-88,-60,-59
-50,-44,4,44,-30,-18,42,-55,-53,-88,-60,-59
-50,-44,4,44,-30,-18,42,-55,-53,-88,-66,-59
-50,-50,-2,50,-24,-24,48,-49,-53,-88,-66,-59
-50,-44,4,44,-30,-18,42,-55,-53,-82,-60,-59
-56,-38,16,44,-36,-12,42,-55,-53,-82,-54,-59
-56,-32,22,38,-42,-7,42,-61,-53,-82,-54,-53
-62,-26,34,44,-48,4,42,-61,-59,-82,-54,-53
-62,-20,40,38,-54,10,42,-61,-59,-82,-54,-53
-62,-20,40,38,-54,10,42,-61,-59,-82,-54,-59
-62,-26,34,44,-48,4,42,-67,-59,-88,-54,-59
-62,-32,28,44,-48,-2,42,-67,-59,-88,-60,-53
-50,-32,16,38,-36,-7,48,-55,-53,-88,-60,-53
-50,-32,16,38,-36,-7,42,-55,-53,-88,-60,-59
-50,-26,22,38,-36,-2,42,-55,-53,-88,-60,-59
-50,-26,22,38,-36,-2,42,-49,-53,-82,-54,-59
-56,-32,22,38,-42,-7,48,-49,-53,-76,-54,-53
-62,-26,34,44,-48,4,48,-49,-47,-76,-54,-53
-68,-26,40,44,-54,4,48,-43,-41,-70,-54,-59
-68,-26,40,44,-54,4,48,-43,-41,-70,-48,-53
-68,-26,40,44,-54,4,48,-43,-41,-70,-48,-53
-68,-26,40,44,-54,4,54,-43,-35,-76,-48,-47
-68,-20,46,38,-60,10,54,-43,-35,-76,-42,-53
-74,-32,40,50,-60,4,54,-49,-29,-76,-42,-47
-68,-32,34,44,-54,-2,54,-49,-29,-76,-42,-47
-62,-20,40,38,-54,10,48,-55,-35,-82,-48,-53
-56,-20,34,32,-48,4,48,-55,-41,-82,-54,-53
-62,-26,34,44,-48,4,48,-55,-41,-82,-60,-53
-56,-20,34,32,-48,4,48,-49,-41,-76,-60,-53
-56,-20,34,32,-48,4,48,-49,-41,-76,-60,-53
-56,-20,34,32,-48,4,48,-49,-47,-76,-60,-53
-62,-20,40,38,-54,10,48,-49,-47,-76,-54,-53
-62,-26,34,44,-48,4,54,-49,-47,-76,-54,-53
-62,-26,34,44,-48,4,48,-55,-47,-76,-48,-53
-68,-32,34,44,-54,-2,48,-61,-53,-82,-48,-53
-68,-32,34,44,-54,-2,42,-61,-53,-82,-48,-53
-68,-32,34,44,-54,-2,42,-67,-53,-82,-48,-59
-62,-20,40,38,-54,10,42,-67,-53,-76,-48,-59
-68,-14,52,38,-60,16,36,-67,-53,-76,-48,-65
-68,-14,52,38,-60,16,42,-61,-53,-76,-54,-59
-68,-20,46,38,-60,10,42,-61,-53,-76,-54,-59
-62,-20,40,38,-54,10,42,-61,-53,-76,-54,-59
-62,-14,46,38,-54,16,48,-67,-59,-82,-54,-59
-56,-14,40,32,-48,10,48,-61,-59,-82,-54,-53
-56,-14,40,32,-48,10,54,-61,-53,-82,-54,-53
-56,-20,34,32,-48,4,54,-61,-47,-82,-54,-47
-62,-20,40,38,-54,10,54,-61,-47,-88,-54,-53
-62,-26,34,44,-48,4,60,-61,-47,-88,-48,-53
-68,-26,40,44,-54,4,60,-61,-47,-82,-48,-53
-62,-26,34,44,-48,4,54,-61,-47,-88,-48,-47
-62,-14,46,38,-54,16,48,-67,-53,-88,-54,-53
-62,-14,46,38,-54,16,48,-73,-59,-88,-60,-59
-62,-14,46,38,-54,16,48,-73,-65,-82,-66,-53
-56,-14,40,32,-48,10,48,-73,-65,-76,-60,-53
-56,-20,34,32,-48,4,48,-73,-65,-82,-60,-53
-62,-26,34,44,-48,4,48,-79,-59,-88,-66,-59
-62,-26,34,44,-48,4,42,-79,-59,-88,-60,-59
-62,-20,40,38,-54,10,42,-79,-65,-94,-60,-59
-62,-26,34,44,-48,4,42,-79,-59,-94,-48,-53
-62,-26,34,44,-48,4,42,-79,-65,-94,-48,-53
-68,-26,40,44,-54,4,48,-79,-65,-94,-54,-53
-74,-26,46,50,-60,10,48,-79,-71,-94,-60,-53
-68,-26,40,44,-54,4,42,-85,-77,-94,-66,-53
-74,-26,46,50,-60,10,48,-85,-77,-94,-66,-59
-74,-26,46,50,-60,10,42,-91,-77,-94,-72,-65
-80,-26,52,50,-66,10,42,-97,-77,-94,-72,-65
-80,-32,46,50,-66,4,36,-97,-77,-100,-72,-65
-74,-32,40,50,-60,4,36,-97,-77,-100,-66,-71
-74,-32,40,50,-60,4,36,-97,-83,-100,-66,-65
-74,-26,46,50,-60,10,36,-97,-83,-106,-72,-65
-74,-26,46,50,-60,10,36,-97,-83,-106,-72,-71
-74,-20,52,44,-66,16,30,-97,-89,-106,-72,-71
-74,-20,52,44,-66,16,30,-97,-89,-106,-72,-71
-74,-26,46,50,-60,10,30,-103,-83,-100,-72,-71
-68,-32,34,44,-54,-2,30,-97,-83,-100,-72,-77
-68,-38,28,50,-48,-7,30,-97,-83,-100,-66,-71
-68,-38,28,50,-48,-7,24,-97,-83,-100,-60,-71
-68,-38,28,50,-48,-7,24,-103,-83,-94,-60,-71
-74,-38,34,56,-54,-2,30,-109,-83,-94,-60,-71
-74,-44,28,56,-54,-7,30,-109,-77,-94,-54,-65
-74,-38,34,56,-54,-2,30,-109,-77,-94,-60,-65
-74,-38,34,56,-54,-2,36,-109,-77,-94,-66,-59
-74,-44,28,56,-54,-7,30,-109,-77,-94,-66,-59
-80,-50,28,62,-54,-12,30,-109,-83,-94,-72,-65
-80,-50,28,62,-54,-12,30,-103,-83,-100,-72,-65
-80,-50,28,62,-54,-12,24,-109,-83,-106,-66,-65
-86,-44,40,62,-66,-2,24,-109,-89,-106,-66,-71
-74,-44,28,56,-54,-7,24,-109,-89,-106,-66,-65
-68,-38,28,50,-48,-7,24,-109,-89,-106,-66,-65
-68,-38,28,50,-48,-7,24,-109,-89,-106,-66,-65
-68,-44,22,50,-48,-12,24,-103,-89,-106,-66,-65
-74,-44,28,56,-54,-7,30,-103,-89,-100,-66,-71
-74,-44,28,56,-54,-7,30,-109,-89,-100,-66,-71
-80,-44,34,56,-60,-7,30,-109,-83,-100,-66,-71
-80,-44,34,56,-60,-7,36,-109,-83,-100,-66,-77
-80,-44,34,56,-60,-7,36,-115,-83,-100,-66,-77
-80,-38,40,56,-60,-2,36,-115,-89,-100,-72,-77
-86,-32,52,56,-72,10,30,-115,-95,-100,-72,-77
-80,-44,34,56,-60,-7,30,-115,-95,-106,-72,-77
-74,-50,22,62,-48,-12,30,-115,-101,-106,-72,-77
-74,-56,16,62,-48,-18,30,-115,-101,-106,-72,-77
-68,-50,16,56,-42,-18,24,-115,-101,-106,-72,-77
-68,-56,10,56,-42,-24,18,-115,-95,-106,-72,-77
-68,-44,22,50,-48,-12,18,-121,-101,-106,-78,-83
-68,-38,28,50,-48,-7,12,-121,-101,-112,-78,-83
-74,-38,34,56,-54,-2,12,-121,-101,-112,-84,-89
-80,-38,40,56,-60,-2,18,-115,-101,-112,-84,-83
-80,-44,34,56,-60,-7,18,-115,-101,-118,-90,-83
-80,-44,34,56,-60,-7,18,-115,-101,-118,-90,-83
-74,-38,34,56,-54,-2,24,-121,-101,-118,-90,-83
-80,-38,40,56,-60,-2,18,-121,-101,-112,-90,-83
-80,-50,28,62,-54,-12,18,-115,-101,-112,-90,-77
-74,-62,10,68,-42,-24,18,-115,-95,-106,-78,-71
-74,-74,-2,74,-36,-36,18,-115,-95,-100,-72,-71
-74,-68,4,68,-42,-30,12,-121,-101,-100,-72,-71
-80,-62,16,68,-48,-24,18,-127,-101,-106,-72,-71
-86,-62,22,74,-54,-18,18,-127,-101,-106,-66,-71
-86,-56,28,68,-60,-12,18,-127,-101,-106,-66,-71
-86,-56,28,68,-60,-12,24,-127,-101,-106,-66,-77
-86,-56,28,68,-60,-12,18,-127,-101,-106,-66,-77
-86,-56,28,68,-60,-12,18,-127,-101,-100,-66,-77
-86,-56,28,68,-60,-12,18,-127,-107,-100,-72,-83
-80,-50,28,62,-54,-12,12,-127,-107,-106,-78,-83
-80,-50,28,62,-54,-12,12,-127,-107,-112,-78,-83
-74,-62,10,68,-42,-24,12,-127,-107,-112,-78,-83
-68,-62,4,62,-36,-30,18,-127,-107,-112,-78,-77
-74,-56,16,62,-48,-18,12,-127,-107,-112,-78,-83
-74,-50,22,62,-48,-12,12,-127,-107,-112,-78,-89
-74,-50,22,62,-48,-12,12,-127,-107,-112,-78,-89
-74,-50,22,62,-48,-12,12,-127,-107,-112,-78,-89
-74,-56,16,62,-48,-18,18,-127,-107,-112,-78,-83
-74,-62,10,68,-42,-24,18,-127,-107,-106,-78,-83
-74,-62,10,68,-42,-24,18,-127,-101,-106,-78,-83
-74,-62,10,68,-42,-24,18,-127,-101,-106,-78,-83
-74,-56,16,62,-48,-18,12,-133,-101,-106,-84,-83
-74,-50,22,62,-48,-12,12,-133,-101,-106,-84,-89
-74,-50,22,62,-48,-12,6,-133,-107,-112,-90,-89
-68,-62,4,62,-36,-30,6,-139,-101,-112,-84,-89
-68,-62,4,62,-36,-30,6,-139,-107,-106,-78,-89
-62,-62,-2,62,-30,-30,12,-127,-101,-106,-72,-83
-62,-62,-2,62,-30,-30,18,-127,-101,-112,-72,-77
-62,-56,4,56,-36,-24,24,-121,-95,-106,-66,-77
-62,-56,4,56,-36,-24,18,-121,-95,-106,-66,-71
-62,-56,4,56,-36,-24,18,-121,-95,-106,-66,-71
-68,-56,10,56,-42,-24,18,-121,-101,-106,-66,-65
-68,-56,10,56,-42,-24,18,-121,-101,-106,-66,-71
-68,-50,16,56,-42,-18,18,-121,-107,-100,-66,-71
-74,-50,22,62,-48,-12,18,-121,-107,-100,-66,-71
-74,-50,22,62,-48,-12,18,-127,-113,-100,-72,-71
-74,-50,22,62,-48,-12,18,-127,-113,-106,-72,-71
-74,-56,16,62,-48,-18,18,-127,-107,-100,-66,-71
-68,-56,10,56,-42,-24,18,-121,-101,-100,-66,-77
-68,-62,4,62,-36,-30,18,-127,-101,-100,-60,-77
-62,-56,4,56,-36,-24,12,-127,-101,-100,-60,-77
-62,-50,10,56,-36,-18,12,-127,-101,-106,-66,-77
-62,-50,10,56,-36,-18,18,-127,-107,-106,-72,-71
-62,-56,4,56,-36,-24,24,-133,-101,-100,-78,-71
-56,-56,-2,50,-30,-30,18,-133,-101,-100,-78,-71
-56,-56,-2,50,-30,-30,18,-133,-101,-94,-78,-71
-56,-50,4,50,-30,-24,18,-127,-101,-94,-78,-77
-56,-50,4,50,-30,-24,12,-127,-101,-94,-78,-77
-56,-50,4,50,-30,-24,12,-133,-107,-94,-72,-83
-50,-50,-2,50,-24,-24,12,-133,-101,-100,-72,-77
-50,-44,4,44,-30,-18,12,-133,-107,-100,-66,-77
-50,-44,4,44,-30,-18,6,-133,-107,-100,-72,-83
-56,-44,10,44,-36,-18,12,-133,-107,-106,-72,-83
-62,-50,10,56,-36,-18,12,-133,-101,-106,-72,-83
-62,-50,10,56,-36,-18,12,-139,-101,-106,-72,-83
-68,-56,10,56,-42,-24,12,-133,-101,-106,-72,-83
-68,-62,4,62,-36,-30,12,-127,-101,-106,-72,-83
-68,-56,10,56,-42,-24,18,-133,-107,-106,-78,-83
-62,-56,4,56,-36,-24,18,-133,-101,-100,-78,-83
-62,-56,4,56,-36,-24,12,-127,-101,-100,-78,-83
-62,-56,4,56,-36,-24,12,-127,-101,-106,-78,-83
-56,-56,-2,50,-30,-30,12,-127,-107,-106,-78,-83
-56,-56,-2,50,-30,-30,12,-127,-107,-112,-84,-83
-50,-56,-8,50,-24,-30,12,-127,-107,-106,-78,-83
-56,-56,-2,50,-30,-30,12,-127,-107,-106,-78,-83
-56,-56,-2,50,-30,-30,12,-127,-107,-106,-84,-89
-56,-50,4,50,-30,-24,12,-127,-107,-106,-78,-89
-62,-50,10,56,-36,-18,12,-127,-107,-100,-78,-83
-62,-44,16,50,-42,-12,12,-133,-107,-100,-78,-77
-62,-44,16,50,-42,-12,12,-133,-107,-100,-78,-83
-62,-50,10,56,-36,-18,12,-133,-107,-94,-72,-77
-62,-56,4,56,-36,-24,12,-133,-107,-100,-78,-77
-62,-50,10,56,-36,-18,6,-133,-113,-100,-78,-83
-56,-50,4,50,-30,-24,12,-139,-113,-112,-90,-83
-56,-50,4,50,-30,-24,12,-139,-107,-112,-84,-83
-56,-50,4,50,-30,-24,12,-127,-107,-106,-84,-77
-56,-56,-2,50,-30,-30,12,-127,-101,-106,-84,-77
-62,-56,4,56,-36,-24,12,-127,-101,-106,-84,-77
-62,-50,10,56,-36,-18,12,-127,-95,-100,-84,-77
-56,-44,10,44,-36,-18,12,-121,-95,-100,-78,-77
-56,-44,10,44,-36,-18,12,-121,-95,-100,-78,-77
-56,-50,4,50,-30,-24,6,-121,-95,-100,-78,-77
-62,-56,4,56,-36,-24,6,-121,-95,-100,-72,-77
-62,-56,4,56,-36,-24,6,-121,-95,-100,-72,-77
-62,-50,10,56,-36,-18,0,-127,-95,-100,-78,-83
-56,-44,10,44,-36,-18,6,-127,-95,-94,-72,-71
-56,-44,10,44,-36,-18,12,-127,-89,-94,-66,-65
-50,-38,10,44,-30,-12,18,-121,-89,-94,-66,-65
-50,-38,10,44,-30,-12,24,-121,-89,-94,-72,-65
-44,-38,4,38,-24,-18,24,-121,-89,-94,-72,-71
-44,-38,4,38,-24,-18,24,-121,-89,-94,-72,-71
-44,-38,4,38,-24,-18,24,-127,-89,-94,-78,-71
-44,-32,10,32,-30,-12,24,-115,-83,-94,-72,-71
-44,-32,10,32,-30,-12,30,-109,-77,-94,-66,-65
-44,-26,16,32,-30,-7,30,-109,-77,-88,-66,-65
-50,-20,28,32,-42,4,36,-109,-77,-82,-60,-59
-50,-8,40,26,-48,16,36,-109,-77,-82,-60,-59
-44,-3,40,20,-42,16,36,-103,-71,-76,-54,-59
-44,2,46,20,-42,22,42,-91,-65,-76,-42,-53
-38,20,58,8,-48,40,48,-91,-59,-64,-36,-47
-38,44,82,-3,-60,64,48,-85,-53,-58,-36,-47
-38,56,94,-8,-66,76,54,-79,-41,-46,-24,-35
-38,56,94,-8,-66,76,66,-73,-35,-40,-18,-29
-32,56,88,-14,-60,70,66,-67,-35,-40,-18,-23
-26,62,88,-14,-54,76,66,-67,-29,-34,-18,-17
-20,56,76,-20,-48,64,66,-67,-29,-28,-12,-11
-14,50,64,-14,-36,58,66,-61,-23,-28,-12,-6
-8,44,52,-20,-30,46,72,-55,-23,-28,-12,-6
-8,44,52,-20,-30,46,72,-49,-23,-34,-18,-6
-2,38,40,-14,-18,40,78,-49,-29,-34,-18,-6
4,32,28,-20,-12,28,78,-49,-29,-34,-18,-11
9,26,16,-14,0,22,66,-55,-35,-40,-24,-11
4,14,10,-8,0,10,60,-61,-35,-46,-30,-17
4,8,4,-8,0,4,54,-61,-35,-52,-30,-23
-2,2,4,2,0,4,42,-67,-41,-52,-30,-23
-8,2,10,2,-6,4,30,-73,-41,-52,-36,-29
-14,2,16,8,-12,10,24,-79,-47,-58,-42,-29
-20,-3,16,8,-18,4,24,-85,-53,-64,-48,-29
-26,-8,16,14,-24,4,24,-91,-59,-64,-48,-35
-32,-8,22,14,-30,4,24,-97,-65,-64,-48,-41
-38,-8,28,20,-36,10,30,-97,-65,-64,-48,-41
-38,-8,28,20,-36,10,30,-97,-71,-64,-48,-47
-44,-8,34,20,-42,10,24,-109,-77,-70,-54,-41
-50,-14,34,32,-42,10,24,-115,-77,-76,-66,-53
-56,-20,34,32,-48,4,30,-109,-71,-76,-60,-53
-56,-14,40,32,-48,10,42,-103,-65,-76,-60,-53
-68,-14,52,38,-60,16,48,-103,-65,-76,-66,-59
-74,-14,58,44,-66,22,60,-103,-71,-70,-66,-65
-74,-8,64,38,-72,28,66,-103,-71,-70,-66,-65
-74,-8,64,38,-72,28,72,-103,-71,-70,-54,-59
-74,-3,70,38,-72,34,78,-103,-65,-64,-54,-59
-74,-3,70,38,-72,34,78,-109,-65,-70,-54,-59
-74,-3,70,38,-72,34,84,-115,-59,-70,-54,-59
-74,-8,64,38,-72,28,84,-115,-59,-70,-54,-59
-68,-8,58,32,-66,22,96,-115,-59,-64,-54,-59
-62,-8,52,32,-60,22,108,-103,-53,-58,-54,-53
-62,-8,52,32,-60,22,126,-91,-47,-52,-48,-47
-56,-32,22,38,-42,-7,138,-79,-47,-52,-48,-47
-56,-56,-2,50,-30,-30,156,-73,-41,-52,-48,-53
-50,-80,-30,62,-12,-54,180,-61,-29,-58,-48,-47
-50,-92,-42,68,-6,-66,204,-43,-23,-52,-48,-47
-44,-110,-66,74,11,-90,216,-25,-12,-52,-36,-47
-38,-116,-78,74,16,-96,216,-8,-7,-40,-30,-47
-26,-122,-96,74,34,-108,210,3,-1,-34,-24,-41
-8,-122,-114,62,52,-120,192,15,5,-22,-18,-29
9,-128,-138,56,70,-132,156,27,5,-17,-7,-11
50,-140,-192,44,118,-162,72,39,11,0,4,11
98,-158,-258,32,178,-204,-46,45,5,6,22,41
146,-170,-318,14,232,-240,-208,39,-1,12,40,59
212,-194,-408,-8,310,-300,-394,27,-12,12,52,83
284,-218,-504,-32,394,-360,-598,15,-29,6,64,107
350,-242,-594,-50,472,-414,-790,-8,-59,6,70,119
404,-260,-666,-74,532,-462,-940,-8,-77,6,76,137
452,-296,-750,-80,598,-522,-1078,-25,-107,0,82,155
506,-344,-852,-80,676,-594,-1216,-61,-155,-12,82,167
560,-398,-960,-80,760,-678,-1342,-91,-197,-28,76,179
620,-452,-1074,-86,844,-762,-1462,-121,-239,-52,64,185
680,-512,-1194,-86,934,-852,-1588,-169,-287,-82,40,179
746,-578,-1326,-80,1036,-948,-1708,-211,-341,-124,16,161
806,-650,-1458,-74,1132,-1050,-1816,-247,-383,-160,-7,149
878,-716,-1596,-80,1234,-1152,-1900,-265,-419,-184,-12,137
926,-776,-1704,-74,1312,-1236,-1954,-271,-443,-196,-24,131
974,-812,-1788,-80,1378,-1296,-1984,-283,-461,-202,-30,131
1028,-824,-1854,-104,1438,-1338,-2008,-301,-473,-190,-18,149
1088,-818,-1908,-134,1498,-1362,-2032,-325,-485,-172,10,191
1154,-794,-1950,-176,1552,-1368,-2044,-337,-485,-142,58,257
1214,-758,-1974,-224,1594,-1362,-2038,-337,-467,-82,130,347
1274,-704,-1980,-284,1624,-1338,-2038,-337,-431,-17,226,455
1328,-614,-1944,-356,1636,-1278,-2032,-325,-371,90,358,587
1370,-482,-1854,-440,1612,-1164,-2020,-295,-281,216,514,755
1394,-326,-1722,-530,1558,-1020,-1978,-247,-185,354,670,917
1370,-170,-1542,-596,1456,-852,-1912,-229,-107,462,796,1055
1322,-26,-1350,-644,1336,-684,-1798,-199,-35,558,898,1163
1262,86,-1176,-668,1222,-540,-1666,-169,23,612,964,1229
1190,176,-1014,-680,1102,-414,-1516,-139,59,642,988,1259
1106,230,-876,-662,994,-318,-1360,-115,77,642,976,1253
992,260,-732,-626,862,-234,-1198,-115,77,612,934,1205
860,272,-588,-566,724,-156,-1048,-145,35,534,850,1109
722,278,-444,-494,586,-78,-910,-193,-23,426,724,977
584,260,-324,-422,454,-30,-778,-229,-77,306,580,821
452,230,-222,-338,340,4,-652,-247,-113,198,442,659
350,206,-144,-272,250,34,-532,-235,-119,120,334,509
260,170,-90,-212,178,40,-418,-211,-119,66,238,377
194,128,-66,-158,130,34,-298,-181,-107,36,154,257
140,80,-60,-110,100,10,-190,-157,-101,12,100,167
92,50,-42,-68,70,4,-100,-133,-95,0,64,113
62,26,-36,-38,52,-2,-34,-115,-83,-6,46,77
38,14,-24,-20,34,-2,0,-85,-65,-6,28,59
9,8,-2,-8,6,4,30,-49,-41,-6,22,41
-14,2,16,8,-12,10,42,-19,-17,0,16,29
-38,8,46,14,-42,28,54,3,-7,0,10,11
-56,14,70,20,-60,40,60,9,5,0,-2,-1
-68,14,82,26,-72,46,72,9,5,-6,-7,-11
-80,14,94,32,-84,52,84,-3,-1,-17,-18,-29
-80,8,88,32,-84,46,102,-8,-12,-22,-24,-41
-80,2,82,38,-78,40,114,-13,-12,-34,-36,-53
-86,-3,82,44,-84,40,132,-19,-17,-40,-42,-59
-92,-3,88,44,-90,40,138,-13,-17,-46,-48,-65
-98,-8,88,50,-96,40,150,-8,-12,-40,-48,-65
-110,-3,106,56,-108,52,156,-3,-12,-40,-42,-65
-116,2,118,56,-114,58,156,-3,-12,-46,-48,-71
-116,2,118,56,-114,58,156,3,-7,-46,-54,-77
-116,2,118,56,-114,58,162,3,-1,-46,-54,-83
-110,2,112,56,-108,58,168,3,-1,-46,-60,-89
-110,2,112,56,-108,58,174,-3,5,-46,-66,-83
-116,-3,112,56,-114,52,180,-8,5,-46,-66,-89
-116,-8,106,56,-114,46,186,-3,5,-40,-66,-89
-116,-8,106,56,-114,46,192,3,5,-40,-66,-89
-116,-3,112,56,-114,52,198,3,5,-34,-66,-89
-116,2,118,56,-114,58,198,3,5,-34,-66,-89
-122,2,124,62,-120,64,198,9,5,-40,-60,-89
-128,2,130,62,-126,64,198,9,5,-40,-60,-89
-122,8,130,56,-126,70,198,15,5,-40,-60,-89
-122,8,130,56,-126,70,192,15,-1,-40,-66,-89
-122,2,124,62,-120,64,192,9,-1,-40,-66,-95
-116,-3,112,56,-114,52,192,15,-1,-40,-66,-89
-116,-3,112,56,-114,52,198,15,5,-40,-66,-89
-116,-3,112,56,-114,52,198,15,5,-34,-54,-83
-116,-3,112,56,-114,52,204,15,5,-34,-54,-83
-122,-3,118,62,-120,58,204,21,11,-34,-48,-77
-128,-3,124,62,-126,58,210,27,23,-34,-48,-77
-128,2,130,62,-126,64,210,27,23,-28,-48,-83
-128,8,136,56,-132,70,210,27,23,-28,-48,-89
-128,8,136,56,-132,70,216,33,29,-28,-48,-83
-122,8,130,56,-126,70,222,39,29,-28,-48,-77
-122,14,136,56,-126,76,222,39,29,-28,-48,-77
-116,8,124,50,-120,64,228,45,35,-22,-42,-71
-116,8,124,50,-120,64,234,45,41,-22,-42,-71
-122,14,136,56,-126,76,228,51,47,-22,-48,-71
-116,26,142,44,-126,82,228,51,47,-22,-48,-71
-110,26,136,44,-120,82,228,57,53,-17,-48,-71
-116,32,148,38,-132,88,234,57,53,-17,-48,-71
-116,26,142,44,-126,82,234,63,53,-17,-48,-77
-116,26,142,44,-126,82,234,63,53,-12,-48,-77
-116,20,136,44,-126,76,246,69,59,-12,-36,-77
-116,20,136,44,-126,76,252,75,59,-6,-36,-71
-116,20,136,44,-126,76,252,81,59,-12,-30,-71
-116,20,136,44,-126,76,252,81,59,-12,-30,-77
-110,20,130,44,-120,76,252,93,65,-6,-24,-71
-116,20,136,44,-126,76,258,105,77,0,-24,-71
-116,20,136,44,-126,76,258,105,83,0,-30,-71
-116,26,142,44,-126,82,258,105,83,6,-30,-71
-110,32,142,38,-126,88,258,111,95,12,-30,-65
-110,38,148,38,-126,94,258,111,95,12,-30,-65
-116,38,154,38,-132,94,264,111,95,18,-30,-65
-110,44,154,32,-132,100,264,111,101,18,-24,-65
-110,50,160,32,-132,106,264,123,101,18,-24,-65
-110,50,160,32,-132,106,270,129,107,24,-18,-65
-110,50,160,32,-132,106,276,141,113,24,-18,-65
-110,56,166,26,-138,112,282,141,119,30,-18,-65
-110,56,166,26,-138,112,282,147,125,30,-18,-59
-104,56,160,20,-132,106,288,153,131,30,-7,-53
-104,56,160,20,-132,106,294,153,137,36,-7,-53
-104,56,160,20,-132,106,294,159,143,36,-7,-53
-104,62,166,20,-132,112,300,165,149,42,-7,-53
-110,56,166,26,-138,112,300,171,149,42,-7,-47
-116,50,166,32,-138,106,306,183,155,48,-2,-41
-116,56,172,26,-144,112,312,189,161,54,-2,-35
-110,62,172,26,-138,118,312,195,167,60,4,-35
-104,68,172,14,-138,118,318,207,179,66,10,-29
-104,74,178,14,-138,124,324,213,185,66,16,-29
-104,74,178,14,-138,124,324,219,191,72,16,-29
-104,80,184,8,-144,130,336,231,197,78,16,-35
-104,80,184,8,-144,130,336,237,203,84,22,-35
-104,80,184,8,-144,130,336,243,209,90,22,-29
-98,86,184,8,-138,136,342,249,209,96,22,-23
-98,92,190,2,-144,142,348,255,221,102,34,-17
-98,98,196,2,-144,148,348,267,227,108,40,-11
-92,98,190,-3,-138,142,354,279,233,114,46,-11
-92,104,196,-8,-144,148,360,291,245,120,52,-6
-98,104,202,-3,-150,154,366,303,257,126,58,-6
-98,116,214,-8,-156,166,366,315,263,132,64,-1
-98,116,214,-8,-156,166,366,327,275,138,70,-1
-98,128,226,-14,-162,178,372,339,281,144,76,5
-98,122,220,-8,-156,172,378,345,287,156,82,11
-98,122,220,-8,-156,172,384,351,293,162,94,11
-98,122,220,-8,-156,172,396,357,305,168,94,17
-92,128,220,-20,-156,172,402,369,311,180,100,23
-86,140,226,-26,-156,184,408,375,329,192,106,29
-80,152,232,-38,-156,190,408,387,341,204,112,41
-74,152,226,-38,-150,190,414,405,353,210,118,47
-74,158,232,-38,-150,196,414,417,359,216,124,53
-74,164,238,-44,-156,202,420,429,371,222,136,59
-68,164,232,-50,-150,196,420,441,383,228,148,65
-68,176,244,-56,-156,208,420,453,389,234,154,71
-68,176,244,-56,-156,208,420,459,395,246,160,77
-56,182,238,-62,-144,208,420,471,407,258,172,89
-50,194,244,-68,-144,220,432,483,419,276,184,95
-44,212,256,-86,-150,232,432,495,425,288,190,107
-38,218,256,-86,-144,238,438,501,443,300,202,113
-32,224,256,-98,-144,238,444,513,455,312,214,125
-32,230,262,-98,-144,244,444,519,467,324,220,137
-38,236,274,-98,-156,256,438,531,473,330,238,143
-38,242,280,-98,-156,262,432,537,479,336,244,155
-38,248,286,-104,-162,268,432,549,485,342,256,167
-32,248,280,-110,-156,262,438,555,497,354,262,173
-26,254,280,-110,-150,268,432,567,503,360,268,185
-14,266,280,-122,-144,274,432,573,509,372,280,191
-8,272,280,-134,-144,274,426,579,515,378,292,197
4,278,274,-140,-132,274,420,579,521,384,292,203
4,290,286,-146,-138,286,414,579,527,390,298,209
9,290,280,-146,-132,286,408,585,533,396,310,221
14,290,274,-146,-126,286,402,585,539,408,316,227
20,302,280,-158,-126,292,408,585,545,414,316,227
26,308,280,-164,-126,298,396,579,545,420,322,239
26,314,286,-164,-126,304,384,579,545,426,328,239
26,320,292,-170,-132,310,372,579,545,426,328,251
32,314,280,-170,-120,298,366,579,545,432,334,257
38,314,274,-170,-114,298,360,573,545,432,340,269
44,314,268,-176,-108,292,348,573,545,438,346,275
50,320,268,-182,-108,298,336,561,539,438,346,275
62,332,268,-194,-102,304,324,555,533,438,352,281
68,332,262,-200,-96,298,306,543,527,438,352,287
74,326,250,-194,-84,292,294,537,521,438,358,293
74,326,250,-194,-84,292,276,525,509,438,358,299
74,326,250,-194,-84,292,264,519,503,432,364,299
80,326,244,-200,-78,286,264,519,497,432,364,299
80,320,238,-200,-78,280,252,507,491,426,358,299
80,320,238,-200,-78,280,240,489,479,420,352,299
80,314,232,-194,-72,274,228,477,467,408,346,293
80,308,226,-194,-72,268,216,459,455,402,340,287
80,302,220,-188,-66,262,204,441,443,390,340,281
74,296,220,-182,-72,262,198,423,431,378,328,281
74,290,214,-176,-66,256,186,399,413,360,316,269
68,278,208,-170,-66,244,180,387,395,348,304,263
68,272,202,-170,-66,238,174,369,377,336,286,257
56,260,202,-158,-72,232,168,351,365,324,280,245
50,254,202,-146,-72,232,162,327,347,312,268,233
38,242,202,-134,-78,226,162,309,329,300,256,221
32,236,202,-134,-84,220,156,285,311,282,244,203
20,218,196,-116,-84,208,150,273,293,264,226,191
14,200,184,-104,-84,196,150,255,275,252,214,173
9,194,184,-98,-84,190,144,237,263,234,196,155
4,188,184,-98,-90,184,138,219,239,216,178,137
-2,176,178,-86,-90,178,132,195,215,198,160,125
-8,158,166,-74,-84,160,126,177,197,180,142,119
-8,134,142,-62,-72,136,120,159,179,162,130,101
-14,110,124,-44,-66,118,114,147,167,150,118,89
-14,98,112,-38,-60,106,108,129,149,138,106,77
-14,86,100,-32,-54,94,108,117,137,126,94,65
-26,80,106,-26,-66,94,102,99,125,108,88,53
-32,74,106,-20,-66,88,96,87,119,96,70,47
-32,68,100,-20,-66,82,96,75,107,84,64,41
-38,62,100,-8,-66,82,90,57,95,72,52,29
-44,50,94,-3,-66,70,84,51,83,60,40,17
-44,44,88,-3,-66,64,78,39,71,48,34,5
-50,38,88,8,-66,64,78,27,59,36,22,-1
-50,26,76,14,-60,52,72,15,53,30,16,-1
-50,20,70,14,-60,46,72,9,41,30,10,-1
-50,14,64,20,-54,40,66,3,35,24,-2,-6
-50,8,58,20,-54,34,60,-3,29,18,-7,-11
-56,2,58,26,-54,28,54,-3,17,12,-12,-11
-56,-3,52,26,-54,22,48,-8,5,6,-18,-17
-56,-8,46,26,-54,16,48,-13,-1,0,-18,-29
-62,-8,52,32,-60,22,42,-25,-7,0,-18,-35
-62,-14,46,38,-54,16,48,-31,-1,-6,-24,-35
-62,-14,46,38,-54,16,48,-37,-7,-6,-24,-35
-62,-20,40,38,-54,10,48,-37,-7,-12,-30,-35
-56,-26,28,38,-42,-2,48,-37,-7,-12,-30,-35
-50,-26,22,38,-36,-2,48,-37,-12,-17,-36,-35
-44,-26,16,32,-30,-7,42,-37,-12,-17,-42,-41
-50,-32,16,38,-36,-7,42,-37,-12,-17,-42,-35
-50,-32,16,38,-36,-7,36,-43,-17,-17,-42,-41
-50,-38,10,44,-30,-12,36,-49,-17,-17,-42,-41
-56,-38,16,44,-36,-12,30,-49,-23,-17,-42,-41
-56,-38,16,44,-36,-12,30,-49,-23,-17,-48,-41
-50,-38,10,44,-30,-12,30,-49,-23,-22,-36,-47
-44,-38,4,38,-24,-18,30,-55,-29,-28,-42,-53
-44,-32,10,32,-30,-12,24,-61,-35,-34,-42,-53
-44,-32,10,32,-30,-12,24,-61,-35,-34,-48,-59
-44,-38,4,38,-24,-18,30,-55,-29,-34,-48,-53
-44,-44,-2,38,-24,-24,30,-55,-29,-28,-42,-53
-44,-50,-8,44,-18,-30,36,-55,-29,-28,-42,-59
-44,-50,-8,44,-18,-30,36,-55,-29,-22,-42,-53
-50,-50,-2,50,-24,-24,36,-49,-29,-22,-42,-53
-56,-56,-2,50,-30,-30,36,-49,-29,-22,-42,-47
-56,-56,-2,50,-30,-30,36,-55,-29,-22,-42,-47
-56,-56,-2,50,-30,-30,36,-55,-35,-28,-48,-47
-56,-50,4,50,-30,-24,30,-55,-35,-22,-48,-47
-50,-44,4,44,-30,-18,30,-55,-35,-28,-42,-53
-56,-38,16,44,-36,-12,36,-55,-35,-28,-48,-53
-56,-44,10,44,-36,-18,42,-55,-35,-22,-42,-53
-56,-38,16,44,-36,-12,42,-55,-35,-22,-42,-53
-56,-32,22,38,-42,-7,36,-61,-35,-22,-48,-59
-56,-32,22,38,-42,-7,36,-61,-35,-28,-48,-65
-56,-32,22,38,-42,-7,42,-55,-35,-28,-48,-59
-56,-32,22,38,-42,-7,42,-55,-35,-28,-48,-53
-56,-32,22,38,-42,-7,48,-49,-35,-28,-48,-47
-56,-38,16,44,-36,-12,48,-55,-29,-22,-48,-41
-56,-38,16,44,-36,-12,48,-49,-23,-22,-48,-41
-56,-44,10,44,-36,-18,42,-49,-23,-22,-48,-35
-56,-38,16,44,-36,-12,36,-49,-29,-22,-42,-41
-56,-38,16,44,-36,-12,36,-49,-35,-22,-42,-41
-62,-38,22,50,-42,-7,48,-49,-35,-22,-42,-41
-62,-38,22,50,-42,-7,48,-49,-35,-22,-42,-41
-56,-38,16,44,-36,-12,54,-49,-35,-22,-42,-41
-62,-38,22,50,-42,-7,54,-49,-35,-22,-42,-47
-62,-38,22,50,-42,-7,60,-49,-29,-22,-42,-47
-62,-38,22,50,-42,-7,60,-49,-29,-22,-48,-47
-62,-38,22,50,-42,-7,60,-49,-23,-28,-48,-47
-56,-32,22,38,-42,-7,60,-49,-23,-28,-48,-53
-56,-20,34,32,-48,4,54,-49,-23,-28,-48,-53
-56,-14,40,32,-48,10,54,-55,-29,-22,-48,-53
-56,-20,34,32,-48,4,54,-55,-29,-22,-48,-47
-56,-20,34,32,-48,4,48,-55,-29,-22,-42,-53
-62,-26,34,44,-48,4,48,-49,-35,-22,-42,-53
-56,-26,28,38,-42,-2,54,-49,-35,-22,-42,-47
-56,-26,28,38,-42,-2,54,-49,-29,-22,-42,-47
-56,-20,34,32,-48,4,54,-49,-23,-22,-36,-47
-56,-20,34,32,-48,4,54,-43,-23,-22,-36,-47
-62,-20,40,38,-54,10,54,-49,-23,-28,-36,-53
-62,-20,40,38,-54,10,54,-49,-23,-22,-42,-47
-62,-26,34,44,-48,4,54,-55,-29,-22,-42,-47
-62,-20,40,38,-54,10,54,-55,-29,-22,-48,-53
-62,-20,40,38,-54,10,54,-49,-29,-17,-48,-53
-68,-26,40,44,-54,4,54,-43,-35,-17,-54,-53
-74,-26,46,50,-60,10,54,-43,-29,-17,-48,-53
-74,-26,46,50,-60,10,54,-43,-29,-17,-42,-53
-68,-20,46,38,-60,10,48,-43,-29,-22,-42,-53
-68,-20,46,38,-60,10,54,-43,-35,-22,-36,-53
-68,-14,52,38,-60,16,54,-43,-29,-22,-36,-53
-68,-14,52,38,-60,16,48,-49,-29,-22,-36,-53
-74,-14,58,44,-66,22,42,-49,-35,-22,-36,-53
-74,-14,58,44,-66,22,42,-49,-35,-17,-42,-47
-74,-14,58,44,-66,22,42,-49,-35,-17,-42,-47
-74,-14,58,44,-66,22,42,-55,-35,-17,-36,-47
-68,-20,46,38,-60,10,48,-55,-35,-12,-36,-47
-68,-20,46,38,-60,10,42,-55,-35,-12,-24,-47
-62,-14,46,38,-54,16,42,-49,-35,-12,-24,-47
-56,-14,40,32,-48,10,36,-55,-35,-12,-24,-47
-56,-8,46,26,-54,16,30,-61,-41,-17,-24,-53
-56,-8,46,26,-54,16,36,-61,-35,-17,-24,-53
-56,-14,40,32,-48,10,30,-61,-29,-17,-24,-53
-62,-8,52,32,-60,22,24,-61,-35,-17,-30,-59
-62,-8,52,32,-60,22,24,-67,-35,-22,-36,-65
-68,-8,58,32,-66,22,24,-67,-35,-28,-36,-59
-68,-20,46,38,-60,10,30,-67,-35,-28,-36,-53
-68,-26,40,44,-54,4,36,-67,-35,-28,-36,-47
-62,-20,40,38,-54,10,36,-73,-35,-28,-42,-47
-62,-20,40,38,-54,10,36,-73,-35,-22,-36,-47
-68,-20,46,38,-60,10,36,-73,-41,-22,-36,-53
-62,-26,34,44,-48,4,30,-73,-47,-17,-36,-53
-62,-26,34,44,-48,4,30,-73,-47,-17,-42,-53
-68,-26,40,44,-54,4,30,-73,-47,-22,-42,-53
-68,-26,40,44,-54,4,30,-79,-47,-22,-36,-53
-68,-38,28,50,-48,-7,30,-79,-41,-22,-36,-47
-62,-38,22,50,-42,-7,30,-79,-41,-22,-36,-47
-62,-32,28,44,-48,-2,30,-85,-41,-22,-36,-47
-62,-26,34,44,-48,4,30,-85,-47,-28,-42,-47
-68,-26,40,44,-54,4,24,-85,-53,-28,-42,-53
-74,-26,46,50,-60,10,18,-91,-53,-28,-42,-53
-74,-26,46,50,-60,10,18,-91,-59,-28,-42,-53
-68,-32,34,44,-54,-2,18,-91,-59,-28,-42,-53
-68,-26,40,44,-54,4,12,-91,-59,-28,-42,-59
-74,-32,40,50,-60,4,18,-85,-59,-34,-48,-59
-74,-32,40,50,-60,4,18,-85,-59,-34,-48,-53
-74,-38,34,56,-54,-2,18,-91,-53,-34,-48,-59
-74,-38,34,56,-54,-2,18,-91,-59,-34,-48,-59
-74,-38,34,56,-54,-2,18,-97,-65,-34,-48,-53
-74,-38,34,56,-54,-2,12,-97,-71,-34,-48,-59
-74,-38,34,56,-54,-2,12,-97,-77,-34,-48,-59
-74,-38,34,56,-54,-2,6,-97,-77,-34,-42,-65
-74,-38,34,56,-54,-2,12,-97,-77,-34,-48,-65
-68,-38,28,50,-48,-7,12,-97,-71,-34,-42,-59
-68,-38,28,50,-48,-7,12,-97,-71,-34,-48,-59
-68,-38,28,50,-48,-7,12,-103,-71,-34,-48,-59
-68,-38,28,50,-48,-7,12,-109,-77,-40,-48,-59
-74,-44,28,56,-54,-7,6,-103,-71,-40,-48,-59
-68,-44,22,50,-48,-12,12,-103,-71,-40,-48,-59
-68,-44,22,50,-48,-12,12,-103,-71,-40,-54,-53
-68,-44,22,50,-48,-12,12,-103,-71,-34,-54,-53
-68,-38,28,50,-48,-7,6,-103,-77,-34,-54,-53
-68,-38,28,50,-48,-7,6,-103,-77,-34,-48,-53
-74,-38,34,56,-54,-2,6,-103,-77,-34,-54,-59
-80,-38,40,56,-60,-2,6,-109,-83,-40,-54,-65
-74,-44,28,56,-54,-7,6,-109,-83,-40,-54,-65
-74,-50,22,62,-48,-12,6,-109,-83,-40,-54,-71
-74,-50,22,62,-48,-12,6,-109,-83,-40,-54,-71
-74,-44,28,56,-54,-7,0,-109,-77,-46,-54,-71
-74,-44,28,56,-54,-7,0,-109,-83,-40,-54,-71
-74,-44,28,56,-54,-7,0,-109,-77,-40,-54,-65
-80,-44,34,56,-60,-7,6,-109,-77,-34,-54,-65
-80,-38,40,56,-60,-2,0,-109,-77,-34,-54,-71
-80,-38,40,56,-60,-2,0,-109,-77,-34,-54,-71
-86,-38,46,62,-66,4,-6,-109,-83,-40,-54,-71
-86,-38,46,62,-66,4,-6,-115,-83,-40,-54,-71
-80,-50,28,62,-54,-12,0,-109,-83,-40,-48,-65
-86,-62,22,74,-54,-18,-6,-109,-83,-34,-48,-65
-86,-62,22,74,-54,-18,-6,-109,-83,-40,-54,-65
-86,-62,22,74,-54,-18,-6,-109,-83,-40,-54,-71
-92,-56,34,68,-66,-12,-6,-109,-83,-40,-54,-71
-86,-50,34,68,-60,-7,-6,-115,-83,-40,-54,-65
-86,-50,34,68,-60,-7,-6,-115,-83,-40,-54,-65
-86,-56,28,68,-60,-12,0,-115,-83,-46,-48,-65
-86,-50,34,68,-60,-7,0,-115,-89,-46,-54,-65
-86,-50,34,68,-60,-7,0,-115,-89,-46,-60,-65
-86,-62,22,74,-54,-18,0,-115,-89,-46,-60,-59
-86,-56,28,68,-60,-12,0,-109,-89,-46,-60,-59
-74,-44,28,56,-54,-7,-6,-109,-89,-46,-60,-59
-74,-44,28,56,-54,-7,-6,-109,-89,-46,-60,-65
-74,-44,28,56,-54,-7,-6,-109,-83,-40,-60,-65
-80,-44,34,56,-60,-7,-6,-109,-83,-34,-66,-65
-74,-44,28,56,-54,-7,-11,-115,-83,-40,-66,-59
-68,-50,16,56,-42,-18,-11,-121,-89,-46,-66,-59
-68,-56,10,56,-42,-24,-11,-127,-89,-46,-66,-65
-68,-56,10,56,-42,-24,-11,-127,-89,-46,-60,-65
-68,-62,4,62,-36,-30,-6,-127,-89,-46,-60,-71
-68,-56,10,56,-42,-24,-11,-127,-89,-52,-66,-71
-68,-56,10,56,-42,-24,-11,-127,-95,-46,-66,-77
-68,-62,4,62,-36,-30,-11,-121,-95,-40,-66,-77
-62,-62,-2,62,-30,-30,-11,-121,-89,-40,-66,-77
-62,-62,-2,62,-30,-30,-16,-121,-89,-40,-72,-77
-62,-62,-2,62,-30,-30,-11,-121,-83,-40,-78,-77
-62,-62,-2,62,-30,-30,-11,-121,-89,-46,-78,-71
-62,-56,4,56,-36,-24,-11,-121,-89,-46,-72,-77
-68,-56,10,56,-42,-24,-11,-121,-89,-46,-78,-77
-68,-56,10,56,-42,-24,-11,-121,-89,-52,-72,-71
-68,-50,16,56,-42,-18,-11,-121,-89,-46,-66,-71
-68,-50,16,56,-42,-18,-6,-115,-89,-46,-66,-71
-62,-50,10,56,-36,-18,-11,-109,-89,-40,-66,-65
-62,-44,16,50,-42,-12,-11,-109,-89,-40,-60,-65
-62,-38,22,50,-42,-7,-11,-115,-83,-40,-60,-71
-62,-38,22,50,-42,-7,-16,-115,-89,-40,-60,-71
-62,-44,16,50,-42,-12,-22,-115,-89,-46,-60,-77
-68,-44,22,50,-48,-12,-22,-121,-89,-40,-60,-71
-68,-50,16,56,-42,-18,-22,-121,-95,-46,-66,-71
-68,-50,16,56,-42,-18,-16,-121,-95,-46,-66,-71
-68,-56,10,56,-42,-24,-16,-121,-89,-46,-72,-65
-68,-50,16,56,-42,-18,-16,-121,-89,-46,-72,-65
-62,-56,4,56,-36,-24,-16,-121,-95,-46,-72,-65
-68,-56,10,56,-42,-24,-11,-127,-95,-40,-72,-65
-62,-56,4,56,-36,-24,-11,-121,-89,-40,-72,-59
-62,-56,4,56,-36,-24,-11,-121,-89,-40,-72,-65
-62,-56,4,56,-36,-24,-11,-121,-89,-40,-72,-65
-62,-56,4,56,-36,-24,-6,-121,-95,-46,-72,-65
-62,-50,10,56,-36,-18,-6,-121,-101,-40,-78,-65
-62,-44,16,50,-42,-12,-11,-121,-101,-46,-78,-65
-62,-44,16,50,-42,-12,-11,-127,-101,-52,-78,-71
-68,-44,22,50,-48,-12,-11,-127,-95,-46,-72,-71
-68,-50,16,56,-42,-18,-11,-121,-95,-40,-72,-71
-68,-56,10,56,-42,-24,-11,-121,-95,-40,-72,-71
-62,-50,10,56,-36,-18,-11,-121,-89,-40,-78,-77
-56,-44,10,44,-36,-18,-22,-127,-95,-46,-78,-77
-56,-44,10,44,-36,-18,-16,-127,-95,-46,-72,-83
-50,-50,-2,50,-24,-24,-22,-127,-95,-46,-72,-83
-50,-50,-2,50,-24,-24,-22,-127,-95,-46,-72,-71
-56,-56,-2,50,-30,-30,-22,-127,-95,-40,-72,-71
-56,-62,-8,56,-24,-36,-22,-127,-95,-40,-72,-65
-56,-56,-2,50,-30,-30,-16,-127,-95,-40,-72,-65
-56,-56,-2,50,-30,-30,-16,-127,-95,-40,-72,-65
-56,-56,-2,50,-30,-30,-16,-127,-95,-40,-78,-65
-62,-56,4,56,-36,-24,-16,-127,-89,-46,-78,-71
-62,-56,4,56,-36,-24,-16,-127,-89,-46,-84,-71
-56,-50,4,50,-30,-24,-16,-127,-89,-46,-72,-71
-50,-50,-2,50,-24,-24,-11,-121,-89,-40,-72,-71
-50,-56,-8,50,-24,-30,-11,-121,-89,-40,-72,-71
-50,-56,-8,50,-24,-30,-11,-115,-89,-34,-66,-71
-50,-56,-8,50,-24,-30,-6,-109,-89,-34,-66,-65
-50,-56,-8,50,-24,-30,-6,-115,-83,-28,-66,-65
-50,-56,-8,50,-24,-30,-6,-115,-83,-28,-66,-65
-56,-62,-8,56,-24,-36,-11,-115,-77,-28,-72,-65
-56,-62,-8,56,-24,-36,-11,-115,-77,-28,-72,-65
-56,-56,-2,50,-30,-30,-11,-115,-83,-28,-66,-71
-62,-56,4,56,-36,-24,-16,-121,-89,-34,-72,-71
-62,-56,4,56,-36,-24,-22,-127,-95,-40,-78,-71
-56,-50,4,50,-30,-24,-22,-127,-95,-34,-78,-65
-56,-50,4,50,-30,-24,-28,-121,-95,-34,-78,-65
-56,-56,-2,50,-30,-30,-22,-121,-89,-34,-78,-65
-56,-50,4,50,-30,-24,-16,-115,-89,-34,-72,-65
-56,-50,4,50,-30,-24,-11,-115,-83,-34,-72,-65
-56,-50,4,50,-30,-24,-16,-115,-83,-34,-72,-65
-56,-44,10,44,-36,-18,-16,-121,-83,-34,-72,-65
-56,-38,16,44,-36,-12,-22,-121,-83,-40,-78,-71
-62,-44,16,50,-42,-12,-22,-127,-83,-40,-78,-71
-56,-50,4,50,-30,-24,-22,-133,-89,-46,-84,-71
-56,-44,10,44,-36,-18,-22,-133,-95,-40,-84,-71
-50,-44,4,44,-30,-18,-22,-133,-101,-40,-84,-77
-50,-44,4,44,-30,-18,-16,-127,-101,-40,-78,-77
-50,-38,10,44,-30,-12,-16,-127,-101,-40,-78,-77
-50,-32,16,38,-36,-7,-16,-127,-89,-40,-78,-77
-50,-38,10,44,-30,-12,-16,-121,-89,-34,-72,-71
-50,-44,4,44,-30,-18,-11,-115,-89,-34,-66,-71
-50,-44,4,44,-30,-18,-11,-115,-89,-34,-72,-77
-50,-44,4,44,-30,-18,-11,-121,-89,-40,-72,-77
-50,-50,-2,50,-24,-24,-11,-121,-89,-34,-78,-77
-50,-50,-2,50,-24,-24,-11,-115,-83,-28,-78,-65
-50,-44,4,44,-30,-18,-6,-109,-83,-28,-72,-65
-38,-38,-2,38,-18,-18,-6,-109,-83,-28,-72,-65
-38,-32,4,32,-24,-12,-6,-109,-83,-28,-72,-65
-32,-20,10,20,-24,-7,-11,-109,-77,-28,-72,-65
-32,-20,10,20,-24,-7,-6,-109,-77,-28,-66,-59
-32,-26,4,26,-18,-12,0,-109,-71,-22,-60,-59
-32,-20,10,20,-24,-7,6,-103,-71,-22,-60,-59
-32,-14,16,20,-24,-2,6,-103,-71,-17,-60,-65
-32,-3,28,14,-30,10,12,-97,-65,-17,-60,-59
-32,2,34,14,-30,16,18,-91,-59,-12,-54,-53
-32,20,52,2,-42,34,24,-85,-53,-6,-48,-41
-32,32,64,-3,-48,46,30,-79,-41,0,-42,-29
-26,50,76,-8,-48,64,36,-73,-29,12,-30,-23
-20,56,76,-20,-48,64,42,-67,-23,18,-18,-17
-14,62,76,-20,-42,70,42,-67,-23,18,-7,-11
-8,68,76,-32,-42,70,42,-67,-23,24,-7,-11
-2,62,64,-26,-30,64,42,-61,-23,30,-7,-6
4,68,64,-38,-30,64,42,-55,-23,36,-7,-6
4,62,58,-32,-24,58,42,-43,-17,36,-12,-6
4,62,58,-32,-24,58,36,-43,-17,36,-12,-1
9,50,40,-26,-12,46,30,-43,-17,30,-12,-1
9,38,28,-20,-6,34,36,-43,-23,18,-18,-6
9,20,10,-14,0,16,30,-49,-23,12,-12,-6
9,14,4,-8,6,10,24,-49,-23,12,-18,-11
14,8,-8,-8,11,4,18,-49,-29,6,-18,-17
9,8,-2,-8,6,4,12,-61,-29,12,-24,-17
4,14,10,-8,0,10,6,-67,-35,6,-30,-23
-2,20,22,-8,-12,22,6,-73,-47,6,-42,-29
-8,14,22,-3,-12,16,0,-85,-53,6,-48,-35
-14,2,16,8,-12,10,0,-91,-59,6,-54,-35
-20,-3,16,8,-18,4,0,-91,-53,6,-54,-35
-20,-3,16,8,-18,4,0,-85,-53,0,-42,-35
-32,-8,22,14,-30,4,0,-85,-59,0,-42,-35
-38,-14,22,26,-30,4,0,-85,-65,-12,-42,-41
-50,-20,28,32,-42,4,6,-91,-65,-17,-42,-41
-50,-20,28,32,-42,4,6,-97,-65,-17,-42,-41
-56,-8,46,26,-54,16,12,-97,-65,-17,-48,-47
-56,-8,46,26,-54,16,24,-91,-59,-17,-48,-53
-56,-8,46,26,-54,16,30,-91,-59,-12,-54,-53
-62,-8,52,32,-60,22,36,-97,-53,-12,-54,-47
-62,-8,52,32,-60,22,42,-103,-53,-12,-54,-53
-74,-8,64,38,-72,28,42,-97,-53,-6,-54,-53
-74,-8,64,38,-72,28,54,-97,-53,-6,-54,-59
-74,-3,70,38,-72,34,60,-97,-53,-6,-60,-53
-74,2,76,38,-72,40,66,-103,-59,-6,-60,-53
-80,-3,76,38,-78,34,72,-97,-59,-6,-54,-53
-80,-3,76,38,-78,34,90,-91,-59,-6,-54,-53
-74,-14,58,44,-66,22,108,-85,-53,-6,-48,-53
-68,-20,46,38,-60,10,126,-73,-41,-6,-42,-53
-68,-38,28,50,-48,-7,144,-67,-35,0,-48,-53
-68,-62,4,62,-36,-30,162,-55,-29,0,-48,-59
-62,-80,-18,68,-24,-48,186,-37,-17,6,-48,-59
-56,-92,-36,68,-12,-66,204,-19,-12,12,-42,-53
-44,-104,-60,68,6,-84,210,-8,-1,12,-36,-47
-38,-116,-78,74,16,-96,204,9,5,24,-30,-35
-20,-122,-102,68,40,-114,192,21,11,24,-24,-23
4,-128,-132,56,64,-132,156,27,17,36,-12,-11
32,-134,-168,50,100,-150,84,39,17,42,-2,5
80,-140,-222,26,148,-180,-16,45,17,48,10,29
128,-146,-276,8,202,-210,-154,33,5,54,28,47
188,-170,-360,-8,274,-264,-328,21,-12,60,40,77
266,-194,-462,-32,364,-324,-526,3,-35,60,46,101
332,-218,-552,-56,442,-384,-724,-13,-65,54,58,119
392,-242,-636,-74,514,-438,-892,-25,-89,48,70,137
446,-272,-720,-86,580,-492,-1036,-37,-107,42,76,155
500,-308,-810,-98,652,-558,-1180,-85,-155,24,70,173
560,-356,-918,-104,736,-636,-1312,-127,-203,0,58,185
614,-422,-1038,-92,826,-726,-1426,-157,-245,-22,46,185
674,-488,-1164,-92,916,-822,-1546,-205,-305,-52,28,173
728,-560,-1290,-86,1006,-924,-1654,-253,-371,-88,4,155
788,-638,-1428,-74,1108,-1032,-1756,-289,-425,-118,-18,131
848,-704,-1554,-74,1198,-1128,-1852,-325,-473,-142,-42,125
902,-758,-1662,-68,1282,-1206,-1912,-343,-503,-172,-60,113
950,-794,-1746,-74,1348,-1266,-1948,-355,-515,-184,-72,107
1010,-812,-1824,-98,1414,-1314,-1966,-361,-521,-190,-60,119
1076,-800,-1878,-140,1474,-1338,-1990,-379,-527,-178,-36,155
1142,-782,-1926,-176,1534,-1350,-2008,-397,-533,-154,-2,209
1202,-746,-1950,-224,1576,-1344,-2002,-391,-509,-100,64,293
1268,-698,-1968,-284,1618,-1332,-2002,-397,-473,-28,160,401
1322,-620,-1944,-350,1630,-1278,-1996,-385,-425,72,286,533
1364,-506,-1872,-428,1618,-1188,-1984,-361,-347,204,436,695
1388,-362,-1752,-512,1570,-1056,-1966,-319,-251,342,598,869
1388,-206,-1596,-590,1492,-900,-1918,-277,-167,456,736,1019
1340,-56,-1398,-644,1366,-726,-1828,-247,-95,552,856,1139
1280,62,-1218,-668,1252,-576,-1702,-211,-29,612,928,1223
1220,158,-1062,-686,1144,-450,-1552,-175,17,642,958,1259
1142,224,-918,-680,1030,-342,-1396,-145,41,648,958,1253
1034,260,-774,-644,904,-252,-1240,-133,47,624,916,1205
902,278,-624,-584,766,-168,-1084,-163,17,558,838,1115
758,272,-486,-512,622,-102,-934,-211,-29,468,724,989
608,266,-342,-434,478,-36,-796,-253,-83,360,592,839
476,248,-228,-362,352,10,-664,-271,-119,264,460,677
368,224,-144,-296,256,40,-544,-259,-137,192,346,539
278,188,-90,-230,184,52,-436,-229,-137,144,250,413
206,146,-60,-170,136,46,-328,-193,-125,96,172,299
146,86,-60,-110,106,16,-208,-157,-113,66,112,197
92,50,-42,-68,70,4,-118,-133,-101,42,70,131
50,20,-30,-32,40,-2,-46,-109,-89,30,46,83
9,2,-8,-3,11,-2,-6,-85,-65,30,28,53
-20,-3,16,8,-18,4,30,-49,-41,36,16,35
-44,-8,34,20,-42,10,54,-25,-12,42,10,17
-62,-3,58,32,-60,28,66,-8,-1,42,4,5
-74,2,76,38,-72,40,72,3,11,42,-2,-6
-80,8,88,32,-84,46,78,3,5,30,-7,-11
-80,8,88,32,-84,46,96,-8,-7,24,-18,-23
-80,2,82,38,-78,40,114,-8,-12,12,-30,-41
-80,-3,76,38,-78,34,126,-19,-23,6,-36,-53
-86,-8,76,44,-84,34,144,-19,-17,0,-42,-59
-92,-14,76,50,-84,28,162,-19,-17,0,-48,-65
-98,-14,82,56,-90,34,168,-13,-12,-6,-48,-71
-110,-14,94,62,-102,40,168,-8,-12,-6,-54,-77
-122,-14,106,68,-114,46,168,3,-7,-12,-48,-83
-128,-8,118,62,-126,52,168,3,-7,-12,-54,-77
-128,-8,118,62,-126,52,180,9,-7,0,-54,-77
-128,-14,112,68,-120,46,186,9,-7,-6,-60,-77
-122,-20,100,68,-114,40,192,3,-1,-6,-66,-77
-122,-20,100,68,-114,40,192,3,-1,-12,-66,-77
-116,-14,100,62,-108,40,198,3,-7,-12,-72,-83
-122,-20,100,68,-114,40,204,3,-7,-17,-72,-83
-122,-14,106,68,-114,46,204,9,-1,-12,-72,-83
-122,-8,112,62,-120,52,198,9,-1,-6,-60,-83
-128,-3,124,62,-126,58,198,15,-1,-12,-66,-89
-128,-3,124,62,-126,58,198,15,-1,-12,-72,-89
-134,-3,130,68,-132,64,198,21,5,-12,-66,-83
-134,-3,130,68,-132,64,198,27,5,-6,-66,-83
-134,-3,130,68,-132,64,204,21,5,-6,-66,-77
-134,-3,130,68,-132,64,210,27,11,0,-60,-77
-134,-8,124,68,-132,58,216,27,11,0,-60,-83
-128,-3,124,62,-126,58,222,27,11,0,-54,-83
-128,-3,124,62,-126,58,228,27,11,6,-54,-83
-122,2,124,62,-120,64,222,27,11,0,-60,-83
-122,2,124,62,-120,64,222,33,17,-6,-60,-89
-128,14,142,56,-132,76,222,33,17,-6,-60,-89
-122,14,136,56,-126,76,228,33,17,-6,-60,-83
-122,8,130,56,-126,70,228,45,23,0,-60,-77
-122,8,130,56,-126,70,228,45,17,6,-60,-83
-122,8,130,56,-126,70,222,39,17,6,-60,-89
-122,8,130,56,-126,70,216,39,23,6,-54,-89
-122,2,124,62,-120,64,216,45,29,6,-54,-83
-122,-3,118,62,-120,58,222,45,35,12,-54,-83
-122,-8,112,62,-120,52,234,51,47,18,-48,-83
-122,-8,112,62,-120,52,234,57,47,18,-42,-83
-122,-8,112,62,-120,52,240,63,47,18,-42,-83
-122,-8,112,62,-120,52,240,69,47,24,-42,-77
-122,-3,118,62,-120,58,240,69,47,24,-42,-77
-122,-3,118,62,-120,58,240,75,47,30,-36,-77
-122,8,130,56,-126,70,240,81,53,30,-42,-77
-122,14,136,56,-126,76,234,81,53,24,-48,-83
-128,20,148,50,-138,82,234,87,59,24,-48,-77
-128,20,148,50,-138,82,240,87,65,18,-48,-77
-122,26,148,50,-132,88,240,93,65,18,-48,-71
-128,26,154,50,-138,88,246,99,71,24,-42,-77
-122,32,154,44,-138,94,246,105,77,24,-42,-71
-122,38,160,44,-138,100,252,105,77,24,-42,-71
-116,44,160,32,-138,100,258,105,83,30,-42,-77
-116,38,154,38,-132,94,264,111,83,30,-36,-77
-116,26,142,44,-126,82,270,117,95,36,-36,-77
-116,26,142,44,-126,82,270,123,95,48,-36,-77
-110,32,142,38,-126,88,270,129,101,48,-36,-71
-110,32,142,38,-126,88,276,135,101,48,-36,-71
-110,32,142,38,-126,88,276,135,101,54,-30,-65
-110,32,142,38,-126,88,282,141,107,54,-30,-59
-110,38,148,38,-126,94,288,147,107,54,-18,-59
-110,32,142,38,-126,88,288,153,113,60,-18,-59
-110,38,148,38,-126,94,288,159,125,60,-18,-59
-110,38,148,38,-126,94,288,165,131,66,-18,-59
-104,38,142,32,-120,88,294,177,143,66,-18,-59
-104,50,154,26,-126,100,300,183,149,72,-18,-65
-110,56,166,26,-138,112,300,189,149,72,-12,-59
-104,56,160,20,-132,106,300,195,149,72,-12,-59
-98,56,154,20,-126,106,306,201,155,84,-7,-47
-104,56,160,20,-132,106,306,213,161,84,-2,-41
-110,50,160,32,-132,106,312,219,167,90,4,-41
-110,50,160,32,-132,106,318,225,179,90,4,-35
-104,56,160,20,-132,106,324,231,179,96,4,-35
-104,68,172,14,-138,118,330,237,185,102,10,-35
-104,80,184,8,-144,130,330,243,185,108,16,-29
-104,80,184,8,-144,130,336,255,197,114,16,-29
-104,86,190,8,-144,136,336,267,203,120,16,-29
-104,86,190,8,-144,136,336,273,215,126,28,-29
-104,92,196,2,-150,142,342,285,221,132,28,-17
-92,98,190,-3,-138,142,342,291,233,138,34,-17
-86,104,190,-8,-138,148,348,303,245,150,46,-11
-86,116,202,-14,-144,160,354,315,257,156,52,-11
-86,122,208,-14,-144,166,360,321,263,162,58,-6
-86,122,208,-14,-144,166,366,333,269,168,58,-6
-86,122,208,-14,-144,166,378,351,281,180,64,5
-86,134,220,-20,-150,178,384,363,293,186,70,5
-86,134,220,-20,-150,178,390,375,299,204,82,11
-86,128,214,-20,-150,172,396,387,311,210,94,29
-86,128,214,-20,-150,172,402,399,323,216,100,29
-80,122,202,-20,-138,160,402,411,335,222,112,41
-80,122,202,-20,-138,160,408,417,347,234,118,47
-68,128,196,-32,-132,160,414,429,353,240,124,53
-68,140,208,-38,-138,172,414,435,371,252,130,59
-68,152,220,-44,-144,184,414,447,383,258,136,65
-62,164,226,-50,-144,196,414,453,389,270,148,71
-62,176,238,-56,-150,208,414,465,395,276,154,71
-56,188,244,-68,-150,214,414,477,401,282,160,83
-50,194,244,-68,-144,220,414,489,413,294,172,89
-50,200,250,-74,-150,226,414,501,419,306,178,101
-44,206,250,-80,-144,226,420,513,425,312,190,107
-38,212,250,-86,-144,232,420,525,437,324,196,119
-38,218,256,-86,-144,238,420,531,455,336,202,125
-26,218,244,-92,-132,232,420,537,467,348,220,137
-26,218,244,-92,-132,232,420,543,479,354,232,149
-20,230,250,-104,-132,238,414,549,485,366,238,155
-14,242,256,-110,-132,250,408,561,491,372,250,167
-8,248,256,-122,-132,250,408,567,503,378,256,179
-8,248,256,-122,-132,250,408,573,509,384,262,185
-8,254,262,-122,-132,256,402,573,509,390,268,191
-2,260,262,-128,-132,262,402,579,515,396,274,203
4,260,256,-134,-126,256,402,579,521,408,280,209
4,266,262,-134,-126,262,390,579,521,414,292,215
9,272,262,-140,-126,268,384,585,527,420,304,227
14,284,268,-146,-126,280,378,579,533,420,310,233
20,296,274,-158,-126,286,372,579,533,420,316,233
26,308,280,-164,-126,298,360,573,527,420,322,245
32,308,274,-170,-120,292,360,573,527,426,322,251
44,314,268,-176,-108,292,348,573,527,426,328,257
44,308,262,-176,-108,286,342,567,527,432,328,263
44,302,256,-170,-102,280,336,561,521,432,328,263
50,296,244,-170,-96,274,330,555,521,432,334,269
50,302,250,-170,-96,280,318,543,521,444,334,275
56,302,244,-176,-90,274,306,537,515,444,340,275
62,308,244,-182,-90,280,288,525,509,438,340,281
62,308,244,-182,-90,280,270,513,497,432,340,287
68,314,244,-188,-84,280,252,495,485,426,340,287
74,308,232,-188,-78,274,240,483,473,420,334,287
68,296,226,-182,-78,262,228,477,461,420,334,287
68,290,220,-176,-72,256,222,471,455,408,334,287
62,278,214,-164,-72,250,216,459,443,402,328,281
56,272,214,-164,-78,244,210,447,437,396,322,275
56,260,202,-158,-72,232,204,435,425,384,322,269
50,260,208,-152,-78,238,192,411,407,378,310,263
44,260,214,-152,-84,238,186,387,395,360,298,251
38,254,214,-140,-84,238,174,363,377,348,286,239
38,248,208,-140,-84,232,162,339,359,336,274,227
32,236,202,-134,-84,220,150,321,347,318,262,215
26,230,202,-122,-84,220,144,303,323,306,244,203
26,218,190,-116,-78,208,138,285,299,288,226,191
14,206,190,-104,-84,202,132,267,275,270,214,179
9,194,184,-98,-84,190,132,249,257,252,202,167
4,182,178,-92,-84,178,126,237,239,240,184,155
-2,170,172,-80,-84,172,126,213,221,216,166,137
-8,158,166,-74,-84,160,120,189,203,198,154,119
-14,146,160,-62,-84,154,114,171,185,174,136,101
-20,122,142,-50,-78,130,114,153,173,156,118,89
-32,98,130,-32,-78,112,114,141,161,144,106,77
-38,80,118,-20,-78,100,114,129,143,126,94,65
-44,68,112,-14,-78,88,108,117,125,114,82,53
-44,62,106,-8,-72,82,102,105,107,102,70,41
-50,56,106,-3,-78,82,96,87,95,90,52,35
-50,50,100,2,-72,76,90,75,83,78,46,23
-50,44,94,2,-72,70,90,57,65,60,28,11
-56,38,94,8,-72,64,78,45,53,54,10,-1
-62,32,94,14,-78,64,78,27,35,36,-2,-6
-68,20,88,20,-78,52,72,15,29,30,-7,-11
-68,2,70,32,-66,34,72,9,29,24,-7,-17
-74,-8,64,38,-72,28,66,-3,17,18,-12,-23
-74,-20,52,44,-66,16,66,-3,17,12,-18,-23
-74,-20,52,44,-66,16,66,-8,5,0,-24,-23
-74,-20,52,44,-66,16,60,-13,-7,-6,-24,-29
-68,-26,40,44,-54,4,54,-19,-12,-12,-30,-35
-74,-32,40,50,-60,4,48,-25,-17,-17,-36,-47
-68,-32,34,44,-54,-2,42,-31,-17,-17,-42,-47
-68,-32,34,44,-54,-2,48,-31,-23,-17,-48,-53
-74,-32,40,50,-60,4,48,-37,-17,-22,-48,-53
-80,-38,40,56,-60,-2,48,-37,-17,-22,-54,-59
-80,-44,34,56,-60,-7,48,-43,-17,-28,-48,-53
-80,-44,34,56,-60,-7,42,-37,-23,-34,-54,-53
-80,-50,28,62,-54,-12,42,-43,-29,-28,-54,-59
-80,-50,28,62,-54,-12,36,-43,-35,-34,-60,-65
-80,-56,22,62,-54,-18,36,-49,-41,-34,-66,-65
-80,-56,22,62,-54,-18,36,-55,-47,-40,-72,-65
-80,-62,16,68,-48,-24,30,-55,-41,-46,-72,-65
-80,-62,16,68,-48,-24,30,-61,-47,-46,-78,-71
-80,-62,16,68,-48,-24,24,-67,-47,-46,-72,-77
-80,-62,16,68,-48,-24,30,-73,-47,-52,-78,-71
-80,-62,16,68,-48,-24,30,-73,-47,-58,-78,-77
-74,-62,10,68,-42,-24,36,-67,-53,-58,-78,-77
-74,-62,10,68,-42,-24,36,-61,-53,-52,-72,-71
-74,-62,10,68,-42,-24,36,-61,-53,-58,-72,-71
-74,-62,10,68,-42,-24,30,-61,-53,-58,-78,-71
-74,-56,16,62,-48,-18,30,-61,-53,-58,-78,-71
-74,-56,16,62,-48,-18,24,-67,-53,-58,-72,-71
-80,-50,28,62,-54,-12,24,-73,-59,-58,-72,-71
-80,-50,28,62,-54,-12,24,-73,-65,-52,-72,-71
-80,-50,28,62,-54,-12,24,-73,-71,-58,-72,-71
-80,-56,22,62,-54,-18,24,-67,-65,-52,-72,-65
-80,-50,28,62,-54,-12,36,-73,-59,-58,-72,-65
-80,-50,28,62,-54,-12,36,-67,-59,-58,-72,-71
-80,-50,28,62,-54,-12,42,-67,-59,-58,-78,-71
-80,-50,28,62,-54,-12,48,-61,-53,-58,-72,-71
-80,-50,28,62,-54,-12,42,-67,-59,-58,-72,-71
-86,-56,28,68,-60,-12,42,-73,-59,-58,-72,-71
-86,-56,28,68,-60,-12,42,-73,-59,-58,-72,-71
-86,-62,22,74,-54,-18,42,-73,-53,-52,-72,-77
-92,-62,28,74,-60,-18,42,-73,-53,-52,-72,-77
-92,-62,28,74,-60,-18,42,-73,-53,-52,-72,-77
-92,-56,34,68,-66,-12,36,-79,-59,-52,-78,-77
-86,-50,34,68,-60,-7,42,-79,-59,-52,-72,-77
-86,-50,34,68,-60,-7,42,-73,-59,-46,-72,-77
-86,-44,40,62,-66,-2,48,-73,-59,-46,-78,-77
-86,-38,46,62,-66,4,42,-73,-59,-52,-78,-71
-80,-38,40,56,-60,-2,42,-73,-53,-52,-84,-71
-80,-38,40,56,-60,-2,42,-73,-59,-58,-84,-77
-86,-44,40,62,-66,-2,42,-73,-59,-52,-84,-71
-86,-38,46,62,-66,4,42,-73,-59,-52,-84,-71
-92,-44,46,62,-72,-2,42,-73,-59,-58,-84,-71
-92,-50,40,68,-66,-7,48,-73,-59,-58,-78,-71
-92,-56,34,68,-66,-12,48,-73,-53,-58,-78,-71
-92,-56,34,68,-66,-12,48,-73,-47,-58,-78,-65
-92,-44,46,62,-72,-2,48,-67,-47,-52,-78,-65
-92,-44,46,62,-72,-2,48,-67,-47,-52,-72,-65
-98,-38,58,68,-78,10,48,-67,-47,-52,-78,-71
-98,-32,64,62,-84,16,48,-67,-53,-58,-78,-71
-98,-32,64,62,-84,16,54,-73,-59,-58,-72,-71
-98,-32,64,62,-84,16,48,-73,-65,-52,-72,-77
-98,-20,76,56,-90,28,48,-79,-59,-58,-66,-83
-98,-20,76,56,-90,28,42,-79,-59,-58,-66,-83
-98,-26,70,62,-84,22,42,-73,-47,-64,-66,-71
-92,-26,64,56,-78,16,48,-67,-47,-64,-66,-71
-92,-20,70,50,-84,22,48,-67,-47,-58,-72,-71
-98,-20,76,56,-90,28,42,-67,-47,-58,-78,-71
-92,-20,70,50,-84,22,42,-73,-53,-58,-72,-71
-98,-26,70,62,-84,22,42,-73,-53,-58,-72,-71
-98,-32,64,62,-84,16,42,-67,-53,-58,-66,-71
-92,-26,64,56,-78,16,48,-67,-53,-52,-66,-71
-92,-26,64,56,-78,16,48,-67,-59,-58,-72,-71
-86,-32,52,56,-72,10,48,-67,-59,-58,-78,-65
-92,-32,58,56,-78,10,48,-67,-59,-64,-78,-65
-86,-32,52,56,-72,10,48,-73,-59,-64,-78,-71
-86,-32,52,56,-72,10,48,-67,-65,-64,-78,-71
-86,-32,52,56,-72,10,48,-73,-59,-64,-78,-77
-92,-32,58,56,-78,10,42,-73,-65,-64,-78,-77
-92,-26,64,56,-78,16,36,-73,-65,-64,-84,-83
-92,-14,76,50,-84,28,36,-79,-71,-70,-84,-89
-86,-14,70,50,-78,28,36,-85,-77,-64,-84,-83
-86,-14,70,50,-78,28,42,-85,-71,-64,-78,-83
-86,-14,70,50,-78,28,36,-79,-71,-70,-78,-83
-80,-20,58,44,-72,16,36,-79,-71,-76,-66,-77
-80,-26,52,50,-66,10,36,-73,-65,-76,-72,-71
-86,-26,58,56,-72,16,36,-73,-65,-76,-78,-77
-92,-32,58,56,-78,10,36,-79,-65,-76,-78,-77
-98,-38,58,68,-78,10,36,-79,-65,-76,-78,-77
-98,-38,58,68,-78,10,36,-85,-65,-76,-72,-77
-104,-38,64,68,-84,10,36,-91,-71,-76,-72,-77
-104,-38,64,68,-84,10,36,-91,-77,-76,-72,-77
-104,-32,70,62,-90,16,36,-91,-71,-70,-78,-77
-98,-32,64,62,-84,16,36,-91,-77,-76,-78,-83
-92,-38,52,62,-72,4,42,-91,-71,-76,-84,-83
-92,-38,52,62,-72,4,36,-91,-71,-76,-84,-83
-92,-38,52,62,-72,4,30,-85,-77,-82,-84,-83
-86,-38,46,62,-66,4,30,-85,-77,-82,-84,-83
-92,-32,58,56,-78,10,30,-91,-77,-88,-90,-83
-98,-32,64,62,-84,16,30,-97,-83,-88,-90,-83
-104,-26,76,62,-90,22,30,-103,-77,-94,-90,-83
-104,-26,76,62,-90,22,30,-109,-83,-88,-90,-83
-110,-32,76,68,-96,22,30,-109,-89,-94,-90,-83
-110,-32,76,68,-96,22,30,-109,-89,-94,-90,-89
-104,-32,70,62,-90,16,24,-103,-89,-88,-90,-89
-104,-26,76,62,-90,22,24,-109,-89,-94,-90,-89
-104,-26,76,62,-90,22,24,-109,-95,-94,-96,-95
-104,-38,64,68,-84,10,30,-109,-89,-94,-90,-89
-104,-44,58,68,-84,4,24,-109,-89,-94,-90,-83
-104,-50,52,74,-78,-2,24,-109,-95,-94,-90,-83
-104,-44,58,68,-84,4,18,-115,-101,-100,-96,-89
-104,-44,58,68,-84,4,18,-115,-107,-100,-102,-95
-104,-50,52,74,-78,-2,24,-115,-101,-94,-108,-95
-104,-50,52,74,-78,-2,30,-115,-101,-100,-108,-95
-104,-50,52,74,-78,-2,30,-115,-95,-100,-102,-89
-104,-44,58,68,-84,4,30,-121,-95,-100,-102,-95
-104,-38,64,68,-84,10,24,-121,-95,-112,-96,-95
-104,-44,58,68,-84,4,24,-121,-101,-112,-96,-89
-104,-50,52,74,-78,-2,24,-121,-101,-112,-102,-89
-110,-50,58,80,-84,4,30,-115,-107,-118,-102,-89
-110,-50,58,80,-84,4,24,-115,-107,-112,-102,-89
-110,-50,58,80,-84,4,24,-115,-107,-112,-102,-95
-110,-50,58,80,-84,4,18,-121,-107,-112,-102,-95
-110,-44,64,74,-90,10,18,-121,-101,-112,-102,-95
-104,-44,58,68,-84,4,18,-121,-101,-112,-102,-95
-104,-38,64,68,-84,10,12,-127,-107,-118,-102,-95
-98,-38,58,68,-78,10,12,-127,-113,-118,-102,-89
-98,-38,58,68,-78,10,12,-121,-113,-112,-102,-83
-98,-38,58,68,-78,10,6,-127,-113,-118,-102,-89
-104,-38,64,68,-84,10,6,-133,-119,-124,-108,-95
-104,-50,52,74,-78,-2,6,-127,-113,-124,-108,-95
-110,-56,52,80,-84,-2,12,-127,-113,-124,-108,-95
-110,-56,52,80,-84,-2,18,-127,-113,-118,-108,-101
-116,-50,64,80,-90,4,18,-133,-119,-118,-108,-101
-116,-50,64,80,-90,4,18,-133,-119,-118,-108,-101
-110,-44,64,74,-90,10,18,-133,-113,-124,-108,-95
-110,-44,64,74,-90,10,18,-139,-113,-124,-108,-95
-104,-44,58,68,-84,4,12,-133,-107,-124,-108,-101
-104,-50,52,74,-78,-2,12,-133,-107,-124,-114,-101
-104,-44,58,68,-84,4,6,-127,-113,-124,-120,-101
-104,-44,58,68,-84,4,0,-127,-119,-124,-120,-107
-110,-44,64,74,-90,10,0,-133,-125,-124,-120,-107
-104,-50,52,74,-78,-2,0,-127,-125,-118,-114,-107
-104,-50,52,74,-78,-2,6,-127,-125,-118,-108,-101
-104,-50,52,74,-78,-2,6,-133,-131,-118,-108,-95
-104,-56,46,74,-78,-7,6,-133,-125,-124,-102,-95
-104,-62,40,80,-72,-12,6,-133,-125,-124,-108,-95
-110,-62,46,86,-78,-7,6,-139,-125,-124,-114,-95
-110,-56,52,80,-84,-2,6,-133,-125,-124,-114,-95
-110,-56,52,80,-84,-2,6,-133,-125,-130,-120,-101
-104,-56,46,74,-78,-7,0,-133,-131,-130,-120,-107
-110,-56,52,80,-84,-2,0,-133,-131,-136,-120,-107
-110,-56,52,80,-84,-2,0,-139,-131,-136,-120,-113
-104,-56,46,74,-78,-7,-6,-139,-137,-136,-120,-113
-104,-50,52,74,-78,-2,-6,-139,-137,-136,-120,-119
-104,-44,58,68,-84,4,-6,-145,-137,-142,-120,-119
-104,-38,64,68,-84,10,-6,-145,-137,-142,-120,-119
-104,-26,76,62,-90,22,-6,-145,-137,-142,-120,-119
-110,-32,76,68,-96,22,-6,-145,-143,-136,-120,-119
-110,-38,70,74,-90,16,0,-145,-137,-130,-120,-119
-110,-50,58,80,-84,4,0,-145,-131,-130,-120,-119
-116,-50,64,80,-90,4,0,-145,-137,-136,-126,-119
-116,-56,58,80,-90,-2,0,-145,-137,-136,-126,-113
-122,-56,64,86,-96,4,-6,-145,-131,-136,-126,-113
-122,-62,58,92,-90,-2,-6,-145,-131,-136,-126,-113
-116,-56,58,80,-90,-2,-6,-145,-131,-136,-126,-113
-110,-56,52,80,-84,-2,-6,-145,-131,-142,-120,-113
-110,-56,52,80,-84,-2,-6,-145,-131,-142,-114,-113
-110,-56,52,80,-84,-2,-6,-145,-131,-142,-114,-119
-110,-56,52,80,-84,-2,-6,-139,-131,-142,-114,-119
-110,-62,46,86,-78,-7,-6,-139,-131,-142,-114,-119
-104,-50,52,74,-78,-2,0,-139,-137,-142,-120,-119
-104,-44,58,68,-84,4,-6,-145,-137,-148,-120,-119
-104,-44,58,68,-84,4,-6,-145,-143,-148,-126,-119
-104,-44,58,68,-84,4,0,-145,-143,-148,-126,-113
-110,-56,52,80,-84,-2,0,-145,-131,-148,-120,-113
-110,-62,46,86,-78,-7,0,-145,-131,-148,-120,-107
-110,-62,46,86,-78,-7,0,-145,-137,-148,-120,-113
-110,-62,46,86,-78,-7,0,-151,-143,-154,-120,-113
-104,-56,46,74,-78,-7,0,-145,-143,-148,-120,-113
-104,-56,46,74,-78,-7,-6,-145,-143,-148,-120,-113
-98,-56,40,74,-72,-7,0,-145,-143,-148,-126,-113
-98,-50,46,74,-72,-2,-6,-145,-149,-148,-126,-113
-98,-56,40,74,-72,-7,-6,-145,-143,-148,-126,-113
-98,-56,40,74,-72,-7,-6,-145,-143,-148,-120,-113
-98,-56,40,74,-72,-7,-6,-145,-143,-148,-120,-119
-98,-56,40,74,-72,-7,-6,-145,-143,-148,-120,-119
-92,-62,28,74,-60,-18,-6,-151,-143,-148,-120,-119
-98,-62,34,80,-66,-12,-11,-151,-143,-148,-126,-119
-98,-50,46,74,-72,-2,-11,-157,-149,-148,-132,-119
-98,-50,46,74,-72,-2,-11,-151,-149,-148,-132,-113
-98,-44,52,68,-78,4,-11,-151,-149,-154,-126,-113
-98,-50,46,74,-72,-2,-11,-151,-143,-154,-120,-107
-98,-50,46,74,-72,-2,0,-151,-143,-154,-120,-107
-98,-44,52,68,-78,4,0,-151,-143,-154,-120,-113
-98,-44,52,68,-78,4,-6,-151,-143,-148,-120,-113
-98,-44,52,68,-78,4,-6,-157,-143,-154,-126,-119
-104,-50,52,74,-78,-2,-11,-157,-143,-148,-126,-119
-98,-50,46,74,-72,-2,-11,-157,-149,-154,-126,-125
-104,-50,52,74,-78,-2,-16,-163,-143,-160,-126,-125
-104,-50,52,74,-78,-2,-11,-157,-143,-160,-132,-125
-104,-50,52,74,-78,-2,-11,-151,-143,-154,-126,-119
-110,-56,52,80,-84,-2,-11,-151,-143,-160,-126,-119
-104,-56,46,74,-78,-7,-11,-151,-143,-160,-126,-119
-104,-50,52,74,-78,-2,-6,-151,-149,-160,-132,-119
-104,-50,52,74,-78,-2,-6,-151,-155,-154,-132,-119
-104,-50,52,74,-78,-2,0,-151,-155,-154,-126,-119
-104,-50,52,74,-78,-2,-6,-151,-155,-154,-132,-119
-98,-50,46,74,-72,-2,-11,-151,-149,-154,-126,-113
-98,-56,40,74,-72,-7,-11,-145,-143,-154,-120,-107
-104,-56,46,74,-78,-7,-6,-145,-137,-154,-114,-107
-104,-56,46,74,-78,-7,-11,-145,-137,-148,-114,-107
-104,-56,46,74,-78,-7,-6,-139,-143,-148,-114,-113
-104,-56,46,74,-78,-7,0,-133,-137,-148,-108,-107
-104,-56,46,74,-78,-7,6,-133,-137,-148,-108,-107
-98,-56,40,74,-72,-7,6,-133,-131,-148,-114,-107
-86,-50,34,68,-60,-7,12,-133,-125,-142,-114,-107
-92,-38,52,62,-72,4,6,-133,-125,-142,-114,-113
-92,-32,58,56,-78,10,12,-133,-125,-136,-114,-107
-92,-20,70,50,-84,22,18,-133,-125,-136,-114,-101
-86,-8,76,44,-84,34,24,-127,-119,-136,-102,-95
-86,2,88,44,-84,46,30,-127,-113,-130,-96,-89
-80,20,100,26,-90,58,36,-115,-107,-124,-84,-89
-80,32,112,20,-96,70,36,-103,-107,-118,-78,-83
-80,44,124,14,-102,82,36,-103,-101,-118,-78,-77
-74,56,130,8,-102,94,36,-103,-101,-118,-72,-71
-68,62,130,2,-96,94,42,-97,-101,-112,-72,-65
-62,68,130,-3,-96,100,42,-91,-95,-106,-72,-59
-56,62,118,-3,-84,88,42,-85,-89,-106,-66,-59
-50,56,106,-3,-78,82,42,-79,-83,-100,-60,-47
-50,44,94,2,-72,70,42,-79,-83,-100,-60,-47
-44,44,88,-3,-66,64,36,-79,-83,-106,-60,-53
-44,32,76,2,-60,52,42,-73,-77,-106,-66,-59
-44,20,64,8,-54,40,42,-79,-77,-106,-66,-59
-50,2,52,26,-48,28,42,-73,-77,-106,-72,-59
-44,-8,34,20,-42,10,42,-73,-77,-112,-72,-59
-44,-8,34,20,-42,10,36,-79,-83,-112,-78,-65
-50,-8,40,26,-48,16,30,-85,-95,-118,-78,-65
-56,-8,46,26,-54,16,18,-91,-101,-118,-84,-65
-62,-8,52,32,-60,22,12,-103,-113,-124,-90,-71
-62,-3,58,32,-60,28,12,-109,-113,-124,-96,-77
-68,-3,64,32,-66,28,6,-115,-113,-130,-96,-83
-80,-3,76,38,-78,34,6,-121,-119,-136,-96,-89
-86,-8,76,44,-84,34,0,-127,-119,-142,-96,-95
-92,-20,70,50,-84,22,0,-133,-131,-142,-96,-101
-98,-20,76,56,-90,28,0,-139,-131,-142,-108,-107
-104,-20,82,56,-96,28,6,-139,-131,-142,-108,-107
-104,-26,76,62,-90,22,12,-139,-131,-142,-114,-113
-104,-26,76,62,-90,22,18,-139,-131,-142,-108,-113
-104,-26,76,62,-90,22,24,-139,-125,-148,-108,-113
-110,-26,82,68,-96,28,30,-139,-125,-142,-108,-107
-110,-26,82,68,-96,28,30,-145,-131,-148,-108,-107
-110,-20,88,62,-102,34,30,-145,-131,-148,-114,-107
-110,-20,88,62,-102,34,42,-145,-131,-148,-114,-107
-110,-14,94,62,-102,40,42,-145,-131,-148,-120,-107
-110,-14,94,62,-102,40,42,-151,-137,-154,-120,-107
-110,-14,94,62,-102,40,54,-157,-137,-148,-120,-107
-104,-14,88,56,-96,34,60,-151,-131,-148,-114,-107
-104,-26,76,62,-90,22,72,-145,-125,-142,-114,-107
-110,-44,64,74,-90,10,90,-133,-119,-142,-114,-107
-110,-68,40,86,-78,-12,108,-121,-119,-148,-114,-113
-98,-80,16,86,-60,-30,132,-115,-113,-148,-120,-107
-98,-98,-2,98,-48,-48,162,-103,-107,-136,-114,-107
-98,-104,-8,98,-48,-54,192,-85,-101,-130,-108,-107
-92,-110,-18,98,-36,-66,210,-67,-89,-124,-102,-101
-74,-116,-42,92,-18,-78,216,-49,-77,-112,-96,-89
-62,-128,-66,92,0,-96,204,-31,-59,-106,-90,-77
-50,-134,-84,92,16,-108,174,-19,-53,-106,-84,-71
-26,-146,-120,86,46,-132,120,-8,-53,-94,-66,-53
9,-158,-168,74,88,-162,18,-8,-53,-88,-54,-35
44,-164,-210,56,124,-186,-106,-13,-71,-88,-42,-17
98,-182,-282,44,190,-228,-262,-25,-89,-82,-24,-1
158,-206,-366,26,262,-282,-448,-37,-107,-76,-7,29
224,-236,-462,2,340,-348,-640,-61,-131,-76,10,65
284,-254,-540,-14,412,-396,-826,-79,-155,-76,22,101
338,-278,-618,-26,478,-444,-982,-91,-179,-82,28,113
386,-308,-696,-38,538,-498,-1132,-115,-215,-94,22,125
440,-362,-804,-38,622,-582,-1276,-151,-263,-112,16,137
494,-434,-930,-26,712,-678,-1408,-163,-299,-136,4,131
548,-512,-1062,-20,802,-786,-1516,-181,-341,-160,-7,119
602,-596,-1200,-3,898,-894,-1618,-205,-395,-196,-30,107
650,-686,-1338,20,994,-1008,-1702,-235,-443,-238,-60,89
704,-752,-1458,20,1078,-1104,-1780,-247,-479,-268,-72,83
758,-812,-1572,26,1162,-1188,-1834,-253,-503,-286,-90,77
806,-866,-1674,32,1240,-1266,-1876,-241,-509,-298,-96,77
854,-902,-1758,26,1306,-1326,-1900,-223,-503,-286,-90,95
914,-914,-1830,2,1372,-1368,-1930,-217,-491,-244,-48,137
974,-902,-1878,-32,1426,-1386,-1966,-211,-479,-184,10,209
1040,-866,-1908,-86,1474,-1386,-1978,-193,-449,-106,100,299
1106,-806,-1914,-146,1510,-1356,-1984,-175,-407,-17,220,431
1166,-704,-1872,-230,1516,-1284,-1990,-175,-347,96,370,587
1208,-560,-1770,-326,1486,-1164,-1978,-169,-269,234,550,767
1238,-404,-1644,-416,1438,-1020,-1960,-145,-173,372,724,947
1226,-242,-1470,-488,1348,-852,-1906,-127,-95,492,862,1097
1178,-92,-1272,-542,1222,-678,-1828,-121,-41,564,964,1205
1118,14,-1104,-560,1114,-540,-1726,-115,-7,612,1012,1265
1058,92,-966,-572,1012,-432,-1600,-103,23,636,1036,1283
980,140,-840,-560,910,-348,-1462,-97,29,630,1018,1259
878,176,-702,-524,790,-258,-1306,-121,5,582,952,1187
758,188,-570,-470,664,-186,-1144,-187,-53,486,838,1067
632,176,-456,-404,544,-138,-988,-259,-125,360,694,917
494,170,-324,-326,412,-72,-838,-325,-197,216,532,743
368,152,-216,-260,292,-30,-688,-343,-227,90,370,569
266,116,-150,-188,208,-12,-568,-325,-227,0,244,419
182,80,-102,-128,142,-7,-454,-277,-215,-52,142,293
110,44,-66,-74,88,-7,-352,-223,-197,-88,64,173
56,20,-36,-38,46,-7,-256,-181,-185,-100,10,89
20,-3,-24,-8,22,-12,-184,-151,-179,-112,-18,35
-2,-20,-18,8,6,-18,-112,-133,-167,-112,-30,11
-20,-32,-13,20,-6,-24,-58,-115,-149,-106,-42,-6
-44,-38,4,38,-24,-18,-16,-97,-119,-100,-48,-23
-62,-32,28,44,-48,-2,12,-73,-95,-94,-48,-35
-74,-20,52,44,-66,16,30,-61,-65,-88,-54,-41
-86,-14,70,50,-78,28,42,-49,-59,-94,-60,-59
-104,-14,88,56,-96,34,48,-49,-59,-100,-66,-65
-110,-14,94,62,-102,40,54,-49,-71,-112,-78,-77
-122,-26,94,74,-108,34,66,-43,-77,-118,-90,-89
-128,-32,94,74,-114,28,72,-43,-83,-130,-102,-101
-134,-32,100,80,-120,34,84,-43,-89,-130,-108,-101
-140,-32,106,80,-126,34,90,-43,-83,-136,-114,-113
-140,-26,112,80,-126,40,96,-43,-77,-136,-108,-119
-146,-20,124,80,-138,52,102,-43,-77,-142,-114,-125
-146,-20,124,80,-138,52,108,-37,-65,-136,-114,-125
-146,-20,124,80,-138,52,114,-37,-65,-136,-114,-125
-146,-20,124,80,-138,52,114,-37,-71,-130,-120,-125
-146,-20,124,80,-138,52,114,-43,-71,-130,-120,-125
-146,-20,124,80,-138,52,120,-43,-71,-130,-120,-125
-140,-20,118,74,-132,46,120,-43,-77,-130,-120,-125
-140,-14,124,74,-132,52,126,-43,-77,-136,-120,-125
-140,-8,130,68,-138,58,132,-37,-77,-142,-126,-125
-140,-14,124,74,-132,52,138,-25,-77,-148,-132,-131
-140,-20,118,74,-132,46,144,-25,-71,-136,-126,-131
-140,-20,118,74,-132,46,150,-25,-59,-136,-126,-131
-140,-14,124,74,-132,52,156,-25,-59,-136,-126,-137
-146,-14,130,80,-138,58,156,-25,-59,-136,-126,-137
-140,-8,130,68,-138,58,156,-25,-59,-130,-126,-137
-140,-3,136,68,-138,64,156,-25,-59,-130,-126,-137
-140,-3,136,68,-138,64,150,-31,-59,-136,-126,-143
-146,-8,136,74,-144,64,156,-25,-59,-136,-126,-143
-146,-14,130,80,-138,58,156,-25,-53,-136,-126,-137
-152,-8,142,74,-150,64,156,-19,-53,-136,-120,-137
-146,-3,142,74,-144,70,156,-19,-53,-136,-120,-137
-140,-8,130,68,-138,58,162,-19,-53,-130,-114,-137
-140,-8,130,68,-138,58,162,-8,-41,-130,-108,-137
-140,-8,130,68,-138,58,162,-13,-41,-130,-108,-131
-134,-3,130,68,-132,64,162,-8,-35,-124,-108,-131
-128,2,130,62,-126,64,168,-8,-35,-118,-108,-131
-134,8,142,62,-138,76,174,-3,-35,-118,-108,-131
-140,2,142,68,-138,70,180,-3,-35,-118,-114,-131
-140,2,142,68,-138,70,180,3,-35,-118,-114,-131
-140,8,148,62,-144,76,186,3,-35,-118,-120,-131
-134,14,148,62,-138,82,186,3,-29,-118,-114,-131
-140,14,154,62,-144,82,180,9,-29,-112,-114,-125
-140,14,154,62,-144,82,180,9,-23,-112,-102,-119
-134,14,148,62,-138,82,180,15,-23,-112,-102,-119
-134,20,154,56,-144,88,180,15,-23,-112,-96,-119
-128,26,154,50,-138,88,186,21,-17,-106,-96,-125
-122,32,154,44,-138,94,186,27,-12,-100,-102,-125
-122,32,154,44,-138,94,186,27,-12,-100,-102,-125
-122,32,154,44,-138,94,186,33,-7,-94,-96,-125
-122,38,160,44,-138,100,186,39,-7,-88,-102,-125
-122,38,160,44,-138,100,192,45,-7,-88,-102,-119
-122,38,160,44,-138,100,192,45,-7,-88,-102,-119
-116,38,154,38,-132,94,198,45,-1,-82,-96,-113
-116,44,160,32,-138,100,204,51,5,-76,-90,-113
-116,44,160,32,-138,100,204,51,17,-82,-90,-113
-116,44,160,32,-138,100,204,51,23,-82,-84,-113
-110,38,148,38,-126,94,210,57,23,-76,-84,-107
-116,44,160,32,-138,100,210,57,29,-76,-84,-113
-110,44,154,32,-132,100,210,63,29,-76,-84,-113
-110,44,154,32,-132,100,210,75,29,-76,-84,-113
-104,50,154,26,-126,100,210,87,35,-70,-78,-107
-104,50,154,26,-126,100,216,87,41,-70,-78,-107
-98,56,154,20,-126,106,216,93,41,-64,-78,-101
-98,56,154,20,-126,106,222,99,47,-64,-72,-101
-98,56,154,20,-126,106,228,105,47,-52,-72,-95
-92,56,148,14,-120,100,228,111,53,-52,-66,-95
-98,62,160,20,-126,112,228,111,65,-58,-66,-95
-98,68,166,14,-132,118,228,117,65,-58,-60,-101
-98,62,160,20,-126,112,234,117,71,-52,-54,-95
-92,62,154,14,-120,106,240,123,77,-46,-48,-89
-92,62,154,14,-120,106,240,129,77,-40,-48,-89
-86,62,148,14,-114,106,246,141,89,-34,-42,-89
-80,68,148,2,-114,106,252,147,95,-28,-42,-83
-80,68,148,2,-114,106,258,153,101,-22,-36,-83
-80,74,154,2,-114,112,258,171,107,-17,-30,-77
-86,80,166,2,-126,124,264,177,119,-17,-30,-77
-86,86,172,2,-126,130,258,189,125,-12,-24,-77
-92,86,178,2,-132,130,258,195,125,-6,-24,-77
-92,92,184,-3,-138,136,264,195,137,0,-18,-71
-92,98,190,-3,-138,142,270,201,149,0,-18,-71
-92,104,196,-8,-144,148,270,207,155,12,-12,-65
-92,104,196,-8,-144,148,282,219,161,18,-7,-65
-92,104,196,-8,-144,148,288,237,167,24,-7,-53
-92,104,196,-8,-144,148,288,249,185,36,10,-47
-86,110,196,-8,-138,154,294,267,197,48,16,-41
-80,116,196,-20,-138,154,300,279,209,54,22,-29
-80,116,196,-20,-138,154,312,291,221,66,28,-23
-86,116,202,-14,-144,160,318,297,227,72,34,-17
-80,116,196,-20,-138,154,324,303,233,72,46,-11
-74,128,202,-26,-138,166,330,309,239,84,52,-6
-74,128,202,-26,-138,166,336,321,245,96,58,-6
-68,140,208,-38,-138,172,336,327,257,102,64,-1
-68,152,220,-44,-144,184,336,339,269,108,70,5
-62,158,220,-44,-138,190,336,345,281,120,76,11
-56,158,214,-50,-132,184,336,357,287,126,88,17
-56,170,226,-56,-138,196,336,369,299,138,94,23
-56,176,232,-62,-144,202,336,375,311,144,106,35
-50,176,226,-62,-138,202,336,387,317,156,112,41
-50,182,232,-62,-138,208,342,393,329,174,124,47
-44,188,232,-74,-138,208,348,405,335,186,130,59
-44,194,238,-74,-138,214,342,417,347,192,136,65
-38,206,244,-80,-138,226,342,429,359,198,148,71
-38,206,244,-80,-138,226,336,441,365,204,160,83
-32,218,250,-92,-138,232,336,453,377,210,172,95
-26,218,244,-92,-132,232,342,459,389,222,184,113
-26,224,250,-98,-138,238,342,465,401,234,196,125
-20,230,250,-104,-132,238,342,471,407,246,202,131
-14,236,250,-110,-132,244,336,483,413,264,214,137
-14,248,262,-116,-138,256,330,483,413,270,220,143
-8,248,256,-122,-132,250,330,483,419,276,220,149
-2,254,256,-122,-126,256,330,489,431,288,232,161
4,260,256,-134,-126,256,330,495,437,288,238,167
9,260,250,-134,-120,256,324,501,443,300,250,179
9,272,262,-140,-126,268,318,501,449,306,256,185
14,278,262,-140,-120,274,306,501,449,312,262,191
14,290,274,-146,-126,286,300,495,443,312,268,191
20,290,268,-152,-120,280,294,495,449,318,280,203
20,296,274,-158,-126,286,282,483,443,324,286,209
26,290,262,-152,-114,280,276,483,449,324,292,215
26,290,262,-152,-114,280,270,483,455,330,304,233
26,290,262,-152,-114,280,258,477,455,330,304,239
26,296,268,-158,-120,286,246,465,449,324,310,245
38,296,256,-164,-108,280,240,471,443,324,310,245
38,296,256,-164,-108,280,228,459,443,324,310,245
38,296,256,-164,-108,280,222,453,437,330,310,251
38,290,250,-158,-102,274,204,441,431,330,310,251
44,290,244,-164,-96,268,198,435,425,330,310,251
44,290,244,-164,-96,268,186,423,419,324,310,257
44,284,238,-164,-96,262,180,417,407,318,304,257
44,284,238,-164,-96,262,168,405,401,312,298,251
50,278,226,-158,-84,256,156,387,389,306,292,245
38,266,226,-146,-90,250,150,375,383,294,292,239
32,266,232,-146,-96,250,144,363,371,282,286,233
32,260,226,-146,-96,244,138,345,353,276,280,221
26,254,226,-134,-96,244,138,333,335,264,268,209
26,242,214,-128,-90,232,132,315,317,252,256,197
20,230,208,-122,-90,220,126,297,299,240,238,191
9,218,208,-110,-96,214,114,285,275,222,220,179
9,212,202,-110,-96,208,108,261,257,204,202,167
4,200,196,-104,-96,196,102,243,245,186,184,149
-8,188,196,-92,-102,190,96,219,227,162,166,131
-14,170,184,-74,-96,178,96,195,209,144,148,113
-26,164,190,-68,-108,178,90,177,191,126,130,101
-32,152,184,-62,-108,166,90,159,173,114,112,83
-44,134,178,-44,-108,154,90,147,161,96,100,71
-50,122,172,-32,-108,148,84,129,143,84,88,59
-50,110,160,-26,-102,136,84,111,125,66,76,41
-56,92,148,-20,-102,118,84,93,107,48,64,29
-62,80,142,-8,-102,112,84,81,95,30,46,17
-68,68,136,-3,-102,100,78,69,83,18,34,5
-74,56,130,8,-102,94,78,57,65,6,16,-6
-80,50,130,14,-102,88,72,39,47,-6,-2,-11
-80,32,112,20,-96,70,72,27,29,-17,-7,-23
-86,26,112,32,-96,70,66,9,17,-28,-18,-35
-86,14,100,38,-90,58,60,-3,-1,-40,-30,-41
