,,,,,,,,,,,
2019-09-04 23:13:11,,,,,,,,,,,
,,,,,,,,,,,
I,II,III,aVR,aVL,aVF,V1,V2,V3,V4,V5,V6
-129,-190,-60,154,-37,-128,225,294,122,-64,-120,-200
-123,-190,-66,154,-31,-128,231,306,140,-52,-114,-200
-123,-184,-60,154,-31,-122,243,318,152,-46,-114,-206
-123,-184,-60,154,-31,-122,255,336,170,-34,-108,-206
-123,-178,-54,148,-37,-116,261,348,188,-28,-102,-206
-123,-184,-60,154,-31,-122,273,372,206,-16,-96,-200
-123,-184,-60,154,-31,-122,285,396,224,-6,-90,-194
-117,-178,-60,142,-31,-122,297,414,242,6,-84,-188
-105,-178,-72,136,-19,-128,303,432,260,18,-84,-182
-105,-178,-72,136,-19,-128,315,450,278,30,-72,-182
-93,-178,-84,130,-8,-134,333,468,296,42,-66,-176
-93,-178,-84,130,-8,-134,345,486,308,54,-54,-170
-87,-178,-90,130,-3,-134,357,504,326,60,-54,-170
-81,-178,-96,124,3,-140,363,522,338,66,-48,-170
-81,-166,-84,118,-3,-128,363,534,356,72,-48,-170
-75,-154,-78,112,-3,-116,369,552,368,78,-42,-170
-69,-154,-84,106,3,-122,369,564,380,90,-42,-170
-69,-148,-78,106,3,-116,369,576,392,96,-42,-176
-69,-148,-78,106,3,-116,375,582,404,102,-42,-170
-63,-136,-72,100,3,-104,381,588,410,102,-42,-164
-57,-136,-78,94,9,-110,387,594,422,114,-36,-164
-45,-142,-96,88,21,-122,393,606,428,126,-42,-164
-45,-136,-90,88,21,-116,393,612,434,132,-36,-164
-39,-136,-96,88,27,-116,399,618,434,132,-36,-158
-39,-142,-102,88,27,-122,393,618,434,132,-36,-158
-39,-130,-90,82,21,-110,387,618,434,132,-36,-158
-39,-124,-84,82,21,-104,387,618,440,132,-30,-152
-39,-118,-78,76,15,-98,381,612,440,132,-30,-146
-33,-106,-72,64,15,-92,375,606,440,132,-30,-146
-27,-100,-72,64,21,-86,369,600,434,132,-30,-140
-16,-94,-78,52,27,-86,363,588,428,126,-30,-134
-16,-88,-72,52,27,-80,357,582,422,126,-24,-128
-11,-88,-78,52,33,-80,351,570,416,120,-24,-128
-11,-88,-78,52,33,-80,345,558,410,120,-24,-122
-5,-82,-78,40,33,-80,333,546,398,120,-24,-110
1,-82,-84,40,39,-80,321,528,386,120,-24,-104
7,-82,-90,34,45,-86,309,510,368,120,-24,-98
13,-76,-90,34,51,-80,297,492,356,120,-24,-92
13,-70,-84,28,45,-74,279,462,332,114,-24,-92
7,-70,-78,28,39,-74,261,438,314,114,-24,-92
7,-70,-78,28,39,-74,249,414,290,102,-24,-80
1,-70,-72,34,33,-68,231,390,272,96,-24,-74
1,-76,-78,40,39,-74,219,366,248,84,-24,-74
-5,-70,-66,34,27,-68,207,336,224,72,-30,-62
-5,-64,-60,34,27,-62,195,318,206,66,-36,-62
1,-64,-66,34,33,-62,177,294,182,54,-42,-68
1,-58,-60,28,27,-56,165,270,164,48,-48,-68
1,-52,-54,28,27,-50,153,246,146,42,-54,-68
1,-52,-54,28,27,-50,141,222,122,36,-66,-74
1,-52,-54,28,27,-50,123,198,104,30,-66,-74
-11,-46,-36,28,9,-38,111,180,86,18,-66,-74
-11,-52,-42,34,15,-44,105,156,68,6,-72,-80
-11,-46,-36,28,9,-38,93,138,56,0,-78,-74
-11,-40,-30,28,9,-32,81,120,38,-11,-84,-74
-16,-40,-24,28,3,-32,75,102,20,-16,-90,-68
-16,-40,-24,28,3,-32,57,84,8,-28,-90,-68
-16,-46,-30,28,3,-38,51,66,-4,-34,-96,-74
-16,-46,-30,28,3,-38,45,54,-15,-34,-96,-74
-16,-46,-30,28,3,-38,39,42,-20,-40,-102,-80
-16,-52,-36,34,9,-44,39,36,-32,-40,-108,-80
-16,-52,-36,34,9,-44,33,24,-44,-46,-114,-74
-21,-52,-30,34,3,-44,33,18,-50,-52,-120,-80
-21,-58,-36,34,3,-50,33,12,-56,-58,-126,-80
-27,-58,-30,40,-3,-44,27,0,-68,-64,-132,-86
-33,-64,-30,46,-3,-50,21,-6,-74,-70,-132,-86
-33,-58,-24,40,-8,-44,15,-12,-80,-70,-138,-92
-33,-58,-24,40,-8,-44,15,-12,-80,-70,-138,-92
-33,-64,-30,46,-3,-50,15,-12,-80,-70,-138,-92
-33,-64,-30,46,-3,-50,9,-17,-86,-70,-138,-92
-45,-64,-18,52,-13,-44,9,-22,-92,-76,-144,-92
-51,-64,-12,58,-19,-38,9,-28,-98,-76,-144,-92
-51,-70,-18,58,-19,-44,9,-34,-104,-76,-150,-98
-51,-64,-12,58,-19,-38,9,-34,-104,-82,-156,-98
-51,-70,-18,58,-19,-44,15,-34,-104,-82,-156,-98
-51,-70,-18,58,-19,-44,15,-34,-98,-76,-156,-104
-45,-64,-18,52,-13,-44,15,-28,-92,-70,-144,-98
-45,-58,-12,46,-19,-38,9,-28,-86,-64,-144,-98
-45,-64,-18,52,-13,-44,15,-22,-80,-64,-144,-92
-45,-58,-12,46,-19,-38,9,-22,-80,-64,-144,-86
-51,-52,-1,52,-25,-26,9,-28,-86,-64,-150,-80
-51,-46,4,46,-31,-20,9,-28,-86,-64,-150,-80
-51,-34,16,40,-37,-9,9,-34,-86,-64,-150,-86
-57,-28,28,40,-43,-4,9,-34,-80,-58,-150,-86
-51,-22,28,34,-43,2,15,-34,-74,-58,-150,-92
-51,-17,34,34,-43,8,15,-28,-74,-52,-150,-92
-51,-12,40,34,-43,14,15,-28,-68,-58,-150,-98
-51,0,52,28,-49,26,9,-28,-68,-58,-150,-104
-51,6,58,22,-55,32,9,-28,-74,-58,-150,-110
-51,12,64,22,-55,38,15,-22,-68,-58,-150,-104
-51,18,70,17,-61,44,21,-22,-68,-58,-150,-98
-51,24,76,17,-61,50,21,-22,-62,-58,-150,-98
-51,30,82,12,-67,56,27,-22,-62,-52,-150,-98
-51,24,76,17,-61,50,27,-22,-62,-52,-156,-98
-51,24,76,17,-61,50,27,-22,-62,-52,-162,-98
-45,30,76,6,-61,50,27,-22,-62,-52,-162,-104
-51,30,82,12,-67,56,27,-22,-62,-52,-162,-104
-51,36,88,12,-67,62,27,-17,-56,-46,-162,-104
-57,36,94,12,-73,62,27,-17,-62,-46,-162,-104
-57,36,94,12,-73,62,21,-17,-62,-46,-168,-110
-57,18,76,17,-67,44,27,-17,-62,-46,-168,-116
-57,18,76,17,-67,44,27,-17,-56,-46,-174,-122
-51,24,76,17,-61,50,27,-12,-50,-46,-174,-122
-51,18,70,17,-61,44,27,-12,-50,-52,-174,-122
-51,24,76,17,-61,50,27,-12,-56,-52,-174,-116
-51,24,76,17,-61,50,21,-12,-56,-52,-174,-116
-57,30,88,12,-73,56,21,-12,-62,-52,-174,-110
-51,36,88,12,-67,62,21,-12,-62,-40,-162,-110
-51,36,88,12,-67,62,27,-12,-62,-34,-156,-104
-57,36,94,12,-73,62,21,-12,-62,-34,-156,-104
-51,42,94,6,-73,68,21,-12,-62,-34,-156,-110
-51,36,88,12,-67,62,15,-12,-68,-40,-168,-116
-51,42,94,6,-73,68,15,-12,-74,-46,-168,-122
-45,42,88,0,-67,62,9,-12,-74,-46,-174,-122
-51,36,88,12,-67,62,9,-12,-68,-46,-174,-128
-51,24,76,17,-61,50,9,-17,-74,-52,-174,-128
-51,24,76,17,-61,50,9,-17,-74,-58,-174,-122
-51,24,76,17,-61,50,9,-17,-74,-52,-174,-122
-51,24,76,17,-61,50,9,-22,-80,-58,-180,-116
-51,24,76,17,-61,50,15,-22,-74,-58,-180,-116
-51,24,76,17,-61,50,15,-22,-74,-58,-180,-116
-45,18,64,12,-55,38,9,-28,-80,-58,-180,-122
-45,18,64,12,-55,38,9,-28,-80,-52,-180,-122
-39,18,58,12,-49,38,3,-34,-80,-58,-180,-122
-39,18,58,12,-49,38,-3,-28,-80,-64,-180,-122
-39,18,58,12,-49,38,-3,-28,-80,-64,-186,-122
-39,18,58,12,-49,38,-3,-34,-86,-70,-186,-122
-45,18,64,12,-55,38,-3,-34,-92,-76,-192,-122
-51,18,70,17,-61,44,3,-34,-98,-76,-192,-128
-57,6,64,22,-61,32,-3,-40,-104,-82,-198,-128
-57,6,64,22,-61,32,-3,-46,-110,-76,-198,-134
-57,6,64,22,-61,32,-3,-46,-116,-82,-204,-134
-57,6,64,22,-61,32,-9,-46,-122,-88,-204,-140
-57,6,64,22,-61,32,-9,-46,-128,-94,-210,-140
-57,6,64,22,-61,32,-14,-52,-128,-100,-210,-140
-57,12,70,22,-61,38,-14,-58,-134,-112,-216,-140
-69,12,82,28,-73,44,-14,-58,-140,-118,-222,-146
-69,12,82,28,-73,44,-19,-64,-146,-124,-228,-146
-63,6,70,28,-67,38,-19,-64,-146,-124,-228,-152
-69,6,76,28,-73,38,-19,-58,-146,-124,-228,-146
-69,6,76,28,-73,38,-14,-58,-152,-118,-222,-146
-63,6,70,28,-67,38,-14,-58,-146,-112,-216,-146
-57,12,70,22,-61,38,-14,-64,-146,-112,-210,-146
-57,18,76,17,-67,44,-14,-64,-140,-106,-204,-146
-57,18,76,17,-67,44,-14,-64,-140,-100,-198,-140
-51,18,70,17,-61,44,-14,-64,-140,-94,-192,-140
-51,24,76,17,-61,50,-9,-58,-134,-94,-186,-134
-51,30,82,12,-67,56,-9,-58,-134,-88,-186,-134
-51,36,88,12,-67,62,-14,-58,-134,-88,-186,-134
-51,36,88,12,-67,62,-14,-52,-134,-88,-186,-128
-51,48,100,6,-73,74,-14,-52,-128,-88,-186,-128
-51,54,106,0,-79,80,-14,-52,-128,-94,-186,-122
-51,72,124,-6,-85,98,-14,-58,-128,-94,-186,-122
-51,84,136,-12,-91,110,-14,-58,-128,-100,-186,-116
-51,90,142,-18,-97,116,-14,-58,-128,-94,-186,-116
-57,90,148,-18,-103,116,-14,-52,-128,-94,-192,-116
-57,96,154,-18,-103,122,-9,-52,-122,-88,-186,-116
-57,96,154,-18,-103,122,-3,-46,-122,-88,-186,-116
-51,102,154,-24,-103,128,3,-46,-116,-82,-180,-110
-51,102,154,-24,-103,128,9,-40,-116,-76,-174,-110
-39,108,148,-30,-91,128,9,-40,-110,-76,-168,-110
-39,114,154,-36,-97,134,9,-40,-110,-70,-168,-110
-33,126,160,-48,-97,140,9,-34,-104,-64,-162,-104
-33,126,160,-48,-97,140,21,-22,-92,-58,-162,-104
-33,126,160,-48,-97,140,21,-17,-86,-52,-156,-98
-33,138,172,-54,-103,152,15,-12,-86,-46,-150,-98
-21,144,166,-60,-91,152,3,-17,-80,-46,-150,-92
-16,144,160,-60,-85,152,3,-22,-80,-46,-144,-92
-11,150,160,-66,-85,158,-3,-28,-80,-46,-138,-86
-5,150,154,-72,-79,152,-9,-34,-80,-46,-138,-80
7,156,148,-78,-67,152,-19,-52,-86,-52,-138,-80
7,156,148,-78,-67,152,-37,-64,-98,-64,-138,-74
7,144,136,-72,-61,140,-61,-82,-110,-70,-138,-74
19,132,112,-72,-43,122,-85,-88,-122,-70,-138,-74
25,114,88,-66,-31,104,-97,-82,-122,-76,-138,-74
31,102,70,-66,-19,86,-97,-88,-128,-82,-144,-80
31,96,64,-60,-13,80,-97,-88,-128,-94,-150,-86
37,90,52,-60,-8,74,-97,-88,-134,-100,-150,-86
37,78,40,-54,-3,62,-91,-88,-134,-100,-156,-86
37,72,34,-48,3,56,-91,-88,-128,-100,-156,-86
31,60,28,-42,3,44,-91,-88,-134,-100,-150,-86
25,48,22,-30,3,38,-91,-100,-140,-106,-156,-92
19,42,22,-30,-3,32,-91,-106,-152,-112,-162,-98
7,42,34,-24,-13,38,-85,-112,-158,-118,-162,-104
-5,36,40,-12,-19,38,-85,-112,-164,-118,-162,-104
-11,36,46,-6,-25,44,-85,-112,-164,-118,-168,-110
-16,30,46,-6,-31,38,-85,-112,-170,-118,-174,-116
-21,24,46,0,-31,32,-85,-118,-176,-130,-186,-116
-33,18,52,6,-43,32,-85,-124,-188,-142,-192,-122
-45,12,58,17,-49,32,-85,-130,-188,-148,-198,-128
-51,6,58,22,-55,32,-85,-130,-194,-154,-204,-128
-57,6,64,22,-61,32,-79,-124,-194,-160,-210,-134
-69,0,70,34,-67,32,-79,-124,-194,-166,-222,-146
-81,-6,76,40,-79,32,-73,-124,-200,-166,-228,-158
-87,-17,70,52,-79,26,-73,-124,-206,-172,-228,-164
-87,-17,70,52,-79,26,-67,-118,-212,-172,-228,-164
-87,-28,58,58,-73,14,-67,-118,-212,-172,-222,-164
-93,-34,58,58,-79,8,-61,-124,-212,-172,-222,-164
-93,-46,46,64,-73,-4,-61,-124,-206,-172,-222,-164
-87,-46,40,64,-67,-4,-61,-118,-200,-166,-222,-158
-93,-40,52,64,-73,2,-61,-118,-200,-166,-216,-158
-81,-40,40,58,-61,-4,-61,-118,-194,-160,-210,-158
-75,-46,28,58,-55,-9,-67,-118,-188,-154,-204,-158
-69,-40,28,52,-49,-9,-67,-106,-176,-142,-186,-152
-63,-34,28,46,-49,-4,-67,-94,-164,-124,-174,-140
-51,-28,22,40,-37,-4,-61,-76,-140,-112,-156,-128
-39,-22,16,28,-31,-4,-61,-64,-122,-94,-138,-116
-27,-17,10,22,-19,-4,-67,-58,-110,-82,-126,-104
-16,-12,4,17,-8,-4,-73,-52,-86,-64,-114,-92
7,-6,-12,0,9,-9,-85,-46,-62,-40,-90,-74
31,6,-24,-18,27,-9,-109,-40,-44,-16,-66,-56
61,18,-42,-36,51,-9,-127,-34,-20,6,-36,-38
91,18,-72,-54,81,-26,-151,-28,2,42,-8,-15
133,30,-102,-78,117,-32,-175,-28,32,72,34,8
181,48,-132,-108,159,-38,-211,-28,62,114,82,44
223,66,-156,-144,189,-44,-253,-22,110,156,130,86
277,90,-186,-180,231,-44,-283,0,182,222,196,128
349,108,-240,-222,297,-62,-295,72,302,318,280,188
421,126,-294,-270,357,-80,-283,180,470,468,394,260
499,150,-348,-324,423,-98,-247,318,662,630,520,332
583,192,-390,-384,489,-98,-205,444,866,810,670,422
655,240,-414,-444,537,-86,-169,522,1034,996,832,530
733,306,-426,-516,579,-56,-163,558,1190,1194,1018,662
829,408,-420,-612,627,-4,-193,516,1316,1398,1240,824
955,528,-426,-738,693,50,-289,372,1394,1596,1480,1016
1099,672,-426,-882,765,122,-445,150,1442,1794,1738,1226
1237,816,-420,-1020,831,200,-649,-130,1466,1998,2002,1460
1369,966,-402,-1164,885,284,-913,-472,1454,2202,2278,1706
1477,1122,-354,-1296,915,386,-1195,-838,1418,2382,2529,1958
1543,1248,-294,-1392,921,476,-1459,-1186,1328,2483,2703,2150
1573,1308,-264,-1434,921,524,-1675,-1498,1142,2441,2733,2246
1555,1320,-234,-1434,897,542,-1795,-1732,908,2298,2661,2258
1477,1296,-180,-1380,831,560,-1849,-1882,650,2088,2505,2198
1339,1254,-84,-1296,711,584,-1867,-1978,374,1818,2272,2066
1165,1206,40,-1182,561,626,-1855,-2032,74,1494,1972,1886
979,1110,130,-1044,423,620,-1813,-2056,-242,1080,1570,1628
757,978,220,-864,267,602,-1717,-2044,-620,552,1060,1286
529,828,298,-672,117,566,-1591,-1996,-980,30,532,914
331,672,340,-498,-3,506,-1453,-1900,-1190,-328,118,596
187,552,364,-366,-85,458,-1303,-1756,-1250,-526,-144,344
85,462,376,-270,-145,422,-1159,-1576,-1220,-604,-288,182
31,378,346,-204,-157,362,-997,-1372,-1136,-610,-360,68
-16,300,316,-138,-163,308,-841,-1150,-1040,-592,-390,-15
-39,228,268,-90,-151,248,-679,-934,-932,-556,-402,-74
-63,162,226,-48,-145,194,-529,-736,-818,-520,-396,-116
-87,108,196,-6,-139,152,-403,-580,-710,-484,-390,-152
-99,66,166,17,-133,116,-295,-454,-596,-436,-372,-170
-111,36,148,40,-127,92,-223,-364,-494,-388,-354,-188
-123,6,130,58,-127,68,-169,-298,-416,-346,-336,-200
-129,-22,106,70,-121,38,-127,-244,-356,-316,-324,-212
-135,-46,88,88,-115,20,-97,-196,-320,-292,-312,-224
-135,-58,76,94,-109,8,-67,-154,-302,-274,-306,-230
-147,-64,82,106,-115,8,-43,-112,-302,-274,-306,-236
-147,-64,82,106,-115,8,-19,-82,-296,-268,-306,-242
-153,-70,82,106,-121,2,3,-52,-278,-262,-294,-236
-159,-76,82,118,-121,2,21,-28,-260,-262,-294,-236
-159,-82,76,118,-121,-4,33,-17,-242,-262,-288,-242
-159,-88,70,124,-115,-9,45,-12,-230,-262,-288,-248
-159,-94,64,124,-115,-14,45,-12,-218,-262,-294,-260
-159,-100,58,130,-109,-20,51,-17,-212,-262,-300,-266
-165,-106,58,130,-115,-26,57,-12,-212,-268,-300,-266
-165,-106,58,130,-115,-26,63,-12,-218,-274,-300,-272
-165,-100,64,130,-115,-20,63,-6,-212,-268,-300,-266
-165,-100,64,130,-115,-20,69,0,-212,-268,-300,-266
-165,-94,70,124,-121,-14,69,12,-206,-262,-294,-260
-171,-100,70,136,-121,-14,69,18,-200,-256,-288,-260
-171,-112,58,142,-115,-26,75,30,-194,-250,-282,-248
-165,-112,52,136,-109,-32,75,30,-182,-244,-270,-242
-165,-112,52,136,-109,-32,75,36,-176,-238,-264,-242
-165,-112,52,136,-109,-32,75,36,-170,-232,-264,-236
-165,-112,52,136,-109,-32,81,42,-170,-226,-258,-236
-165,-112,52,136,-109,-32,81,42,-164,-226,-252,-236
-165,-112,52,136,-109,-32,81,54,-158,-220,-246,-236
-159,-112,46,136,-103,-32,87,60,-158,-220,-240,-236
-153,-100,52,124,-103,-26,87,60,-152,-220,-240,-230
-153,-100,52,124,-103,-26,93,66,-146,-214,-240,-230
-153,-94,58,118,-109,-20,93,72,-146,-214,-246,-236
-153,-94,58,118,-109,-20,87,72,-140,-214,-246,-236
-153,-88,64,118,-109,-14,87,78,-134,-208,-240,-242
-153,-88,64,118,-109,-14,87,78,-134,-214,-240,-236
-153,-88,64,118,-109,-14,87,66,-134,-214,-240,-242
-153,-82,70,112,-115,-9,87,66,-134,-220,-240,-242
-147,-82,64,112,-109,-9,87,66,-128,-220,-234,-242
-147,-88,58,118,-103,-14,81,66,-128,-220,-228,-236
-153,-88,64,118,-109,-14,75,72,-122,-214,-216,-230
-147,-82,64,112,-109,-9,75,78,-110,-208,-204,-224
-147,-82,64,112,-109,-9,81,84,-98,-202,-198,-218
-147,-88,58,118,-103,-14,81,96,-92,-190,-192,-212
-141,-88,52,112,-97,-20,87,102,-80,-184,-192,-206
-135,-88,46,112,-91,-20,93,114,-68,-184,-192,-200
-135,-88,46,112,-91,-20,99,120,-62,-178,-192,-200
-129,-88,40,106,-85,-26,99,126,-50,-178,-192,-200
-123,-82,40,100,-85,-20,105,132,-38,-178,-192,-206
-123,-88,34,106,-79,-26,111,144,-32,-172,-192,-206
-129,-88,40,106,-85,-26,117,150,-20,-172,-192,-212
-129,-88,40,106,-85,-26,123,162,-15,-166,-186,-206
-129,-82,46,100,-91,-20,129,174,-4,-154,-186,-212
-129,-82,46,100,-91,-20,135,186,8,-148,-186,-212
-129,-76,52,100,-91,-14,141,198,14,-142,-180,-212
-129,-76,52,100,-91,-14,147,210,26,-136,-174,-212
-123,-70,52,94,-91,-9,147,228,38,-124,-168,-212
-111,-70,40,88,-79,-14,159,246,56,-118,-162,-206
-105,-70,34,82,-73,-20,171,264,80,-106,-156,-200
-105,-70,34,82,-73,-20,183,276,104,-94,-150,-200
-99,-70,28,82,-67,-20,195,288,122,-82,-144,-194
-99,-70,28,82,-67,-20,207,306,140,-70,-132,-188
-99,-76,22,88,-61,-26,219,324,158,-58,-126,-188
-99,-82,16,88,-61,-32,225,342,176,-46,-114,-182
-99,-76,22,88,-61,-26,231,360,194,-28,-108,-176
-93,-76,16,82,-55,-32,237,384,212,-22,-108,-176
-87,-82,4,82,-49,-38,243,396,230,-11,-102,-182
-81,-76,4,76,-43,-38,249,420,248,-6,-96,-182
-69,-70,-1,64,-37,-38,261,438,260,0,-90,-182
-69,-76,-6,70,-31,-44,267,450,272,0,-84,-182
-69,-76,-6,70,-31,-44,273,462,284,6,-78,-182
-57,-70,-12,58,-25,-44,291,474,296,12,-72,-176
-51,-64,-12,58,-19,-38,297,486,308,24,-72,-176
-45,-52,-6,46,-19,-32,291,492,320,24,-66,-170
-45,-58,-12,46,-19,-38,291,498,326,36,-66,-164
-51,-58,-6,52,-25,-32,297,510,332,42,-60,-158
-51,-58,-6,52,-25,-32,303,516,338,42,-54,-158
-51,-46,4,46,-31,-20,303,516,338,42,-48,-152
-45,-40,4,40,-25,-20,303,522,344,48,-42,-146
-39,-40,-1,40,-19,-20,309,534,350,54,-36,-146
-39,-46,-6,40,-19,-26,315,540,356,60,-30,-140
-39,-46,-6,40,-19,-26,309,534,356,66,-24,-134
-21,-40,-18,28,-3,-32,303,528,362,66,-24,-134
-16,-34,-18,22,-3,-26,303,528,356,72,-18,-128
-16,-28,-12,22,-3,-20,297,516,350,60,-24,-128
-11,-34,-24,22,3,-26,291,510,344,60,-24,-122
-11,-34,-24,22,3,-26,297,510,344,60,-18,-110
-11,-34,-24,22,3,-26,291,504,338,60,-13,-104
-11,-28,-18,22,3,-20,279,492,332,60,-18,-98
-5,-17,-12,12,3,-14,273,468,326,54,-13,-86
1,-17,-18,12,9,-14,261,456,314,54,-13,-80
7,-12,-18,6,15,-14,249,438,308,48,-13,-74
7,-12,-18,6,15,-14,237,420,302,42,-8,-68
13,-6,-18,0,15,-9,225,396,290,42,-8,-62
19,0,-18,-6,21,-9,207,378,272,42,-2,-56
19,-6,-24,-6,21,-14,195,360,260,36,4,-50
13,-6,-18,0,15,-9,183,342,242,36,4,-44
13,-12,-24,6,21,-14,171,330,230,30,10,-38
7,-17,-24,6,15,-20,159,306,212,24,10,-38
7,-17,-24,6,15,-20,147,288,194,12,4,-38
7,-22,-30,6,15,-26,141,270,182,0,4,-32
7,-22,-30,6,15,-26,135,252,170,-6,4,-32
7,-17,-24,6,15,-20,123,234,158,-11,-2,-26
7,-17,-24,6,15,-20,111,216,140,-16,-8,-32
7,-17,-24,6,15,-20,99,192,116,-28,-8,-32
1,-17,-18,12,9,-14,87,174,98,-34,-13,-38
-5,-22,-18,12,3,-20,75,156,80,-40,-13,-38
-11,-22,-12,17,-3,-14,69,132,62,-46,-18,-38
-16,-22,-6,17,-8,-14,57,108,38,-58,-18,-44
-21,-22,-1,17,-13,-14,51,84,20,-70,-24,-44
-21,-34,-12,22,-8,-26,45,72,14,-76,-30,-44
-21,-34,-12,22,-8,-26,45,60,2,-76,-24,-38
-21,-40,-18,28,-3,-32,39,48,-10,-82,-24,-32
-16,-40,-24,28,3,-32,33,36,-15,-88,-36,-32
-16,-46,-30,28,3,-38,21,30,-26,-88,-36,-32
-16,-46,-30,28,3,-38,15,18,-32,-88,-36,-32
-21,-52,-30,34,3,-44,15,6,-44,-100,-36,-32
-27,-52,-24,40,-3,-38,9,0,-56,-100,-42,-32
-33,-64,-30,46,-3,-50,9,-6,-62,-106,-36,-32
-39,-70,-30,52,-8,-50,9,-12,-74,-106,-42,-32
-45,-76,-30,58,-8,-56,9,-12,-80,-112,-48,-32
-45,-70,-24,52,-13,-50,3,-17,-86,-112,-48,-32
-45,-70,-24,52,-13,-50,3,-22,-86,-112,-48,-32
-45,-76,-30,58,-8,-56,3,-22,-92,-112,-48,-32
-45,-76,-30,58,-8,-56,3,-22,-86,-112,-54,-32
-39,-82,-42,58,-3,-62,9,-17,-86,-112,-54,-32
-39,-82,-42,58,-3,-62,9,-22,-92,-118,-54,-32
-45,-82,-36,58,-8,-62,15,-22,-98,-124,-60,-32
-45,-76,-30,58,-8,-56,9,-28,-104,-124,-66,-32
-57,-76,-18,64,-19,-50,9,-28,-110,-130,-72,-38
-57,-70,-12,58,-25,-44,9,-28,-110,-130,-78,-32
-63,-70,-6,64,-31,-38,15,-28,-110,-124,-72,-32
-57,-70,-12,58,-25,-44,9,-28,-110,-124,-72,-38
-57,-70,-12,58,-25,-44,9,-28,-110,-130,-72,-44
-51,-58,-6,52,-25,-32,9,-28,-110,-130,-72,-44
-45,-52,-6,46,-19,-32,9,-22,-104,-118,-66,-38
-39,-52,-12,46,-13,-32,15,-17,-98,-112,-60,-32
-45,-58,-12,46,-19,-38,21,-17,-92,-106,-54,-26
-45,-64,-18,52,-13,-44,27,-12,-92,-106,-54,-26
-45,-64,-18,52,-13,-44,33,-12,-80,-100,-48,-20
-51,-64,-12,58,-19,-38,39,-6,-74,-94,-42,-20
-51,-64,-12,58,-19,-38,45,6,-68,-82,-36,-15
-57,-70,-12,58,-25,-44,45,12,-68,-82,-36,-15
-57,-64,-6,58,-25,-38,51,18,-68,-76,-30,-15
-57,-64,-6,58,-25,-38,57,24,-62,-70,-30,-20
-57,-64,-6,58,-25,-38,63,24,-62,-70,-24,-20
-57,-58,-1,52,-31,-32,69,18,-56,-70,-24,-20
-63,-58,4,58,-37,-26,63,18,-56,-70,-24,-20
-69,-58,10,58,-43,-26,63,12,-62,-70,-30,-26
-63,-52,10,58,-37,-20,63,12,-56,-70,-36,-32
-63,-46,16,52,-43,-14,69,18,-50,-70,-42,-38
-69,-46,22,52,-49,-14,75,24,-50,-70,-42,-38
-57,-40,16,46,-37,-14,75,24,-50,-70,-42,-38
-57,-40,16,46,-37,-14,75,24,-50,-64,-42,-38
-63,-40,22,52,-43,-9,81,18,-50,-70,-42,-38
-63,-34,28,46,-49,-4,81,18,-50,-70,-42,-38
-69,-46,22,52,-49,-14,87,24,-44,-64,-36,-32
-69,-58,10,58,-43,-26,93,30,-38,-70,-36,-32
-69,-58,10,58,-43,-26,93,30,-38,-70,-36,-32
-75,-58,16,64,-49,-20,87,30,-38,-70,-30,-32
-75,-58,16,64,-49,-20,81,30,-38,-64,-30,-32
-69,-58,10,58,-43,-26,81,30,-38,-64,-30,-38
-69,-58,10,58,-43,-26,75,30,-32,-64,-30,-38
-69,-58,10,58,-43,-26,75,24,-32,-64,-30,-38
-63,-52,10,58,-37,-20,75,24,-32,-64,-30,-38
-63,-52,10,58,-37,-20,75,24,-38,-70,-30,-38
-75,-58,16,64,-49,-20,75,24,-38,-76,-36,-38
-75,-58,16,64,-49,-20,81,18,-44,-82,-42,-38
-69,-58,10,58,-43,-26,87,18,-44,-82,-48,-38
-75,-64,10,70,-43,-26,87,12,-50,-82,-48,-38
-75,-70,4,70,-43,-32,93,12,-56,-82,-48,-38
-75,-64,10,70,-43,-26,93,12,-62,-88,-48,-38
-69,-58,10,58,-43,-26,93,12,-62,-88,-48,-44
-69,-52,16,58,-43,-20,93,12,-62,-88,-42,-44
-57,-46,10,46,-37,-20,93,12,-62,-88,-42,-44
-57,-46,10,46,-37,-20,87,6,-62,-94,-42,-44
-63,-46,16,52,-43,-14,87,6,-68,-94,-42,-38
-63,-46,16,52,-43,-14,87,0,-74,-94,-48,-38
-57,-40,16,46,-37,-14,87,0,-80,-100,-48,-44
-57,-34,22,40,-43,-9,87,-6,-86,-94,-54,-50
-57,-28,28,40,-43,-4,87,-12,-86,-94,-60,-56
-57,-28,28,40,-43,-4,81,-17,-92,-94,-72,-62
-51,-22,28,34,-43,2,75,-22,-98,-100,-78,-62
-51,-22,28,34,-43,2,75,-22,-104,-106,-78,-62
-45,-22,22,28,-37,-4,75,-22,-104,-112,-84,-62
-45,-17,28,28,-37,2,75,-22,-110,-118,-84,-68
-51,-17,34,34,-43,8,75,-28,-122,-130,-96,-80
-51,-17,34,34,-43,8,69,-28,-128,-130,-90,-80
-57,-17,40,34,-49,8,63,-28,-134,-130,-90,-86
-57,-17,40,34,-49,8,57,-34,-134,-136,-90,-86
-57,-17,40,34,-49,8,51,-34,-140,-136,-96,-92
-57,-17,40,34,-49,8,51,-34,-140,-142,-96,-92
-57,-22,34,34,-49,2,63,-34,-140,-142,-96,-98
-57,-22,34,34,-49,2,69,-28,-134,-142,-96,-92
-57,-22,34,34,-49,2,69,-28,-128,-136,-96,-86
-57,-22,34,34,-49,2,63,-40,-128,-142,-102,-86
-57,-22,34,34,-49,2,69,-40,-128,-142,-108,-86
-63,-28,34,46,-49,2,75,-34,-128,-142,-108,-86
-63,-22,40,40,-55,8,69,-34,-128,-142,-108,-86
-69,-22,46,40,-61,8,69,-28,-134,-148,-108,-86
-63,-22,40,40,-55,8,75,-28,-134,-148,-108,-86
-69,-28,40,46,-55,2,75,-28,-140,-148,-114,-80
-63,-17,46,40,-55,14,81,-28,-140,-142,-102,-74
-57,-17,40,34,-49,8,75,-28,-140,-142,-96,-68
-57,-6,52,28,-55,20,75,-34,-146,-142,-90,-68
-57,12,70,22,-61,38,69,-40,-146,-142,-90,-68
-57,24,82,17,-67,50,75,-40,-146,-142,-96,-68
-57,36,94,12,-73,62,81,-34,-140,-136,-90,-68
-57,42,100,6,-79,68,87,-28,-134,-136,-90,-68
-51,48,100,6,-73,74,93,-22,-128,-130,-90,-68
-51,54,106,0,-79,80,99,-17,-128,-130,-90,-68
-51,60,112,0,-79,86,87,-22,-128,-130,-90,-62
-45,66,112,-12,-79,86,81,-22,-134,-136,-90,-62
-39,72,112,-12,-73,92,81,-28,-134,-136,-90,-62
-39,72,112,-12,-73,92,81,-28,-128,-130,-84,-62
-45,66,112,-12,-79,86,87,-28,-128,-130,-84,-62
-51,66,118,-6,-85,92,87,-28,-128,-130,-90,-56
-57,66,124,-6,-91,92,93,-28,-128,-130,-90,-56
-51,72,124,-6,-85,98,93,-34,-134,-130,-90,-56
-51,72,124,-6,-85,98,87,-34,-134,-130,-90,-56
-45,72,118,-12,-79,92,99,-17,-122,-118,-78,-56
-39,84,124,-18,-79,104,111,-6,-110,-106,-72,-56
-33,90,124,-30,-79,104,123,6,-98,-100,-66,-50
-27,96,124,-30,-73,110,117,6,-98,-94,-66,-44
-27,102,130,-36,-79,116,111,0,-98,-88,-60,-38
-27,108,136,-36,-79,122,105,0,-92,-82,-48,-26
-21,108,130,-42,-73,116,99,-6,-92,-82,-42,-20
-16,108,124,-42,-67,116,93,-12,-98,-82,-42,-15
-11,102,112,-42,-61,110,75,-17,-98,-82,-42,-15
1,96,94,-42,-43,98,69,-28,-104,-88,-42,-10
19,90,70,-54,-25,80,57,-28,-104,-82,-42,-10
25,72,46,-42,-8,62,51,-40,-104,-88,-48,-15
31,66,34,-48,-3,50,45,-40,-110,-94,-60,-26
37,54,16,-42,9,38,45,-46,-116,-106,-66,-26
37,54,16,-42,9,38,45,-52,-122,-106,-66,-26
37,42,4,-36,15,26,45,-52,-128,-112,-72,-26
37,30,-6,-30,21,14,45,-52,-134,-118,-72,-26
25,12,-12,-12,21,2,45,-52,-140,-124,-72,-32
25,0,-24,-6,27,-9,45,-58,-146,-130,-78,-32
13,0,-12,0,15,-4,45,-64,-158,-142,-84,-38
1,0,-1,6,3,2,51,-58,-158,-136,-84,-38
-11,0,10,12,-8,8,57,-52,-158,-136,-84,-38
-16,0,16,12,-13,8,51,-58,-158,-142,-90,-44
-16,0,16,12,-13,8,51,-58,-164,-142,-96,-44
-21,0,22,12,-19,8,45,-58,-170,-142,-96,-50
-21,-6,16,12,-19,2,51,-58,-170,-148,-102,-62
-33,-17,16,22,-25,-4,51,-64,-176,-154,-108,-74
-39,-22,16,28,-31,-4,57,-64,-182,-160,-126,-86
-51,-34,16,40,-37,-9,63,-64,-182,-166,-126,-92
-69,-40,28,52,-49,-9,69,-70,-194,-178,-138,-98
-69,-40,28,52,-49,-9,69,-70,-200,-184,-138,-98
-75,-46,28,58,-55,-9,69,-64,-200,-190,-144,-104
-75,-52,22,64,-49,-14,69,-64,-200,-196,-150,-110
-81,-64,16,70,-49,-26,69,-64,-206,-202,-156,-110
-93,-76,16,82,-55,-32,63,-64,-212,-214,-168,-116
-99,-82,16,88,-61,-32,69,-58,-212,-208,-168,-116
-93,-76,16,82,-55,-32,69,-58,-212,-202,-168,-122
-87,-76,10,82,-49,-32,75,-52,-206,-196,-168,-122
-81,-70,10,70,-49,-32,75,-58,-206,-190,-162,-116
-75,-64,10,70,-43,-26,69,-58,-200,-184,-156,-116
-63,-52,10,58,-37,-20,69,-58,-188,-178,-144,-110
-57,-46,10,46,-37,-20,69,-52,-176,-172,-138,-104
-45,-40,4,40,-25,-20,69,-34,-158,-154,-126,-92
-39,-40,-1,40,-19,-20,63,-22,-140,-136,-102,-80
-33,-34,-1,28,-19,-20,63,-17,-122,-112,-78,-62
-16,-28,-12,22,-3,-20,63,-6,-98,-88,-54,-44
1,-22,-24,12,9,-20,57,6,-74,-52,-24,-20
25,-17,-42,0,33,-26,45,12,-50,-22,-2,2
49,-17,-66,-12,57,-38,27,12,-20,0,28,26
85,-12,-96,-30,93,-50,15,18,2,30,58,44
121,-12,-132,-48,129,-68,-14,18,32,60,88,68
151,0,-150,-72,153,-74,-49,12,62,84,124,98
199,12,-186,-102,195,-86,-85,12,98,126,166,128
247,30,-216,-138,231,-92,-121,36,158,186,226,170
313,54,-258,-180,285,-98,-133,90,266,288,310,224
379,78,-300,-228,339,-110,-127,186,422,426,424,296
451,108,-342,-276,399,-116,-97,312,608,594,562,374
535,156,-378,-342,459,-110,-49,450,818,786,718,470
607,204,-402,-402,507,-98,-14,540,1004,972,880,584
685,270,-414,-474,549,-68,-9,582,1166,1164,1060,716
775,366,-408,-570,591,-20,-31,564,1304,1374,1288,884
883,474,-408,-678,645,32,-103,468,1400,1584,1528,1088
1003,600,-402,-798,705,98,-241,282,1454,1800,1792,1316
1129,744,-384,-930,759,182,-433,12,1460,2010,2068,1562
1255,900,-354,-1074,807,272,-673,-304,1436,2214,2344,1820
1351,1050,-300,-1200,825,374,-949,-658,1382,2394,2601,2066
1411,1182,-228,-1296,819,476,-1201,-1000,1292,2501,2787,2258
1441,1248,-192,-1338,819,530,-1405,-1294,1136,2471,2835,2354
1417,1260,-156,-1332,789,554,-1525,-1510,914,2328,2763,2360
1333,1224,-108,-1272,723,560,-1555,-1648,668,2124,2595,2288
1195,1170,-24,-1182,609,572,-1537,-1714,404,1848,2338,2138
1027,1122,94,-1074,465,608,-1513,-1762,104,1518,2014,1928
847,1056,208,-948,321,632,-1477,-1780,-206,1116,1600,1652
655,954,298,-804,177,626,-1405,-1762,-554,624,1102,1316
439,816,376,-624,33,596,-1291,-1720,-896,102,568,932
259,672,412,-462,-73,542,-1171,-1642,-1112,-286,136,590
127,558,430,-342,-151,494,-1045,-1522,-1178,-508,-126,338
43,456,412,-246,-181,434,-919,-1384,-1154,-604,-276,164
-5,366,370,-180,-187,368,-787,-1222,-1088,-634,-348,62
-33,276,310,-120,-169,290,-655,-1042,-1004,-628,-384,-10
-63,204,268,-66,-163,236,-517,-856,-902,-598,-390,-56
-87,138,226,-24,-157,182,-373,-664,-794,-544,-384,-92
-99,90,190,6,-145,140,-241,-496,-680,-484,-366,-116
-111,42,154,34,-133,98,-133,-358,-566,-424,-342,-134
-123,6,130,58,-127,68,-55,-256,-470,-364,-318,-146
-129,-22,106,70,-121,38,3,-184,-380,-322,-294,-158
-129,-52,76,88,-103,8,39,-136,-314,-298,-282,-176
-135,-82,52,106,-97,-14,63,-106,-278,-298,-282,-188
-141,-100,40,118,-91,-32,87,-82,-254,-298,-282,-200
-141,-118,22,124,-85,-50,111,-52,-248,-292,-276,-194
-147,-130,16,136,-85,-56,129,-28,-242,-286,-270,-194
-153,-136,16,142,-85,-62,153,-6,-236,-286,-264,-194
-159,-136,22,148,-91,-56,171,24,-230,-280,-270,-194
-165,-130,34,142,-103,-50,183,36,-218,-280,-270,-200
-165,-130,34,142,-103,-50,189,42,-212,-280,-276,-212
-165,-130,34,142,-103,-50,189,48,-206,-286,-282,-218
-159,-130,28,142,-97,-50,189,48,-194,-286,-282,-224
-153,-136,16,142,-85,-62,195,48,-188,-280,-276,-224
-153,-148,4,148,-79,-74,201,54,-176,-280,-276,-218
-153,-160,-6,154,-73,-86,207,60,-176,-274,-270,-212
-159,-160,-1,160,-79,-80,213,72,-176,-274,-270,-212
-153,-148,4,148,-79,-74,219,84,-176,-274,-270,-212
-147,-136,10,142,-79,-62,213,90,-176,-274,-264,-212
-147,-130,16,136,-85,-56,213,84,-176,-268,-270,-218
-147,-130,16,136,-85,-56,213,90,-164,-262,-258,-212
-147,-136,10,142,-79,-62,213,90,-158,-256,-252,-212
-147,-142,4,142,-79,-68,213,96,-152,-250,-252,-206
-141,-142,-1,136,-73,-74,213,96,-158,-244,-246,-206
-141,-142,-1,136,-73,-74,213,96,-152,-244,-240,-206
-141,-142,-1,136,-73,-74,219,102,-158,-238,-240,-206
-135,-142,-6,136,-67,-74,219,108,-152,-232,-240,-206
-135,-136,-1,136,-67,-68,219,108,-146,-232,-240,-200
-141,-136,4,136,-73,-68,219,108,-146,-232,-234,-200
-141,-136,4,136,-73,-68,213,108,-146,-232,-234,-200
-141,-136,4,136,-73,-68,207,102,-146,-232,-240,-212
-141,-136,4,136,-73,-68,207,108,-134,-226,-234,-212
-141,-136,4,136,-73,-68,213,114,-128,-226,-240,-218
-135,-136,-1,136,-67,-68,213,114,-128,-220,-240,-218
-135,-124,10,130,-73,-56,219,120,-122,-220,-234,-218
-135,-118,16,124,-79,-50,213,120,-116,-214,-234,-218
-135,-118,16,124,-79,-50,219,120,-104,-208,-234,-206
-135,-118,16,124,-79,-50,213,126,-98,-202,-228,-200
-129,-112,16,118,-73,-50,213,126,-92,-196,-222,-200
-123,-106,16,112,-73,-44,213,132,-86,-196,-216,-188
-117,-106,10,106,-67,-50,213,138,-80,-184,-210,-182
-117,-100,16,106,-67,-44,219,144,-74,-184,-204,-176
-111,-106,4,106,-61,-50,219,150,-62,-178,-198,-170
-111,-106,4,106,-61,-50,225,168,-50,-172,-198,-164
-111,-112,-1,112,-55,-56,231,174,-44,-166,-198,-164
-111,-118,-6,112,-55,-62,237,174,-38,-166,-192,-164
-111,-112,-1,112,-55,-56,237,180,-32,-166,-192,-164
-111,-106,4,106,-61,-50,237,186,-20,-160,-186,-164
-111,-106,4,106,-61,-50,243,192,-15,-154,-186,-170
-105,-106,-1,100,-55,-56,249,210,-4,-142,-180,-170
-105,-106,-1,100,-55,-56,255,222,14,-136,-174,-170
-105,-118,-12,106,-49,-68,267,240,26,-124,-168,-164
-99,-124,-24,112,-37,-74,273,258,38,-106,-168,-164
-99,-124,-24,112,-37,-74,279,270,50,-100,-162,-164
-99,-130,-30,112,-37,-80,279,288,62,-100,-162,-164
-93,-124,-30,106,-31,-80,285,294,74,-94,-162,-164
-99,-124,-24,112,-37,-74,291,306,98,-82,-150,-164
-99,-118,-18,106,-43,-68,297,318,116,-70,-144,-164
-93,-106,-12,94,-43,-62,297,330,134,-58,-138,-164
-87,-100,-12,94,-37,-56,303,342,152,-52,-132,-164
-81,-100,-18,88,-31,-62,309,360,164,-34,-120,-158
-75,-94,-18,82,-31,-56,315,378,182,-16,-114,-158
-75,-94,-18,82,-31,-56,327,396,200,-11,-114,-152
-69,-100,-30,82,-19,-68,333,414,212,-6,-108,-152
-69,-100,-30,82,-19,-68,345,426,224,6,-108,-146
-69,-94,-24,76,-25,-62,351,438,242,12,-102,-146
-63,-100,-36,82,-13,-68,363,456,260,24,-96,-134
-57,-100,-42,76,-8,-74,375,468,278,36,-78,-128
-51,-100,-48,76,-3,-74,381,480,290,42,-72,-122
-45,-94,-48,64,-3,-74,381,486,302,48,-60,-122
-45,-94,-48,64,-3,-74,387,498,314,54,-48,-110
-39,-88,-48,64,3,-68,393,510,326,66,-42,-104
-39,-88,-48,64,3,-68,399,516,332,72,-36,-104
-39,-82,-42,58,-3,-62,399,522,338,78,-36,-98
-39,-76,-36,58,-3,-56,393,522,338,84,-36,-98
-39,-76,-36,58,-3,-56,387,528,338,84,-36,-98
-27,-76,-48,52,9,-62,387,528,344,90,-36,-92
-21,-76,-54,46,15,-68,381,528,350,96,-36,-92
-16,-70,-54,40,15,-62,381,528,350,96,-30,-86
-16,-70,-54,40,15,-62,375,534,356,96,-24,-80
-11,-70,-60,40,21,-62,369,534,356,96,-24,-74
-11,-70,-60,40,21,-62,363,528,356,96,-18,-68
-11,-58,-48,34,15,-50,363,522,350,90,-18,-68
-5,-52,-48,28,21,-50,357,510,338,84,-18,-62
1,-40,-42,22,21,-38,351,504,332,78,-18,-62
7,-34,-42,12,21,-38,339,492,320,72,-18,-56
7,-28,-36,12,21,-32,327,480,308,72,-18,-56
13,-22,-36,6,21,-26,315,468,302,66,-13,-56
19,-17,-36,0,27,-26,303,450,290,66,-18,-50
13,-17,-30,6,21,-20,285,432,272,66,-18,-44
19,-12,-30,0,27,-20,279,414,266,66,-13,-32
19,-12,-30,0,27,-20,273,396,254,66,-8,-20
19,-12,-30,0,27,-20,255,378,236,60,-8,-15
19,-6,-24,-6,21,-14,243,366,218,54,-8,-15
19,-17,-36,0,27,-26,231,342,206,48,-2,-10
13,-17,-30,6,21,-20,219,324,194,42,4,2
13,-17,-30,6,21,-20,207,306,176,36,4,8
7,-12,-18,6,15,-14,195,282,152,30,4,8
7,-6,-12,0,9,-9,189,264,140,18,-2,8
1,-6,-6,6,3,-4,183,246,122,18,-2,2
1,-12,-12,12,9,-9,171,234,110,12,-8,2
-5,-17,-12,12,3,-14,165,216,98,0,-13,2
-5,-17,-12,12,3,-14,153,204,74,-6,-13,-4
-5,-12,-6,12,3,-9,141,192,56,-11,-24,-10
1,-12,-12,12,9,-9,135,174,38,-22,-30,-15
1,-12,-12,12,9,-9,129,162,20,-28,-36,-15
-5,-17,-12,12,3,-14,123,150,8,-28,-42,-15
-5,-22,-18,12,3,-20,111,132,-4,-34,-48,-15
-11,-22,-12,17,-3,-14,99,120,-15,-40,-48,-15
-11,-22,-12,17,-3,-14,81,108,-20,-46,-54,-20
-11,-22,-12,17,-3,-14,75,96,-32,-52,-54,-15
-16,-28,-12,22,-3,-20,75,90,-44,-58,-54,-20
-21,-34,-12,22,-8,-26,69,84,-56,-64,-60,-20
-27,-34,-6,28,-13,-20,69,72,-68,-70,-66,-20
-39,-34,4,34,-25,-14,69,66,-80,-82,-66,-26
-45,-34,10,34,-31,-14,63,54,-86,-88,-72,-26
-51,-40,10,46,-31,-14,63,48,-98,-88,-78,-26
-51,-46,4,46,-31,-20,57,48,-104,-94,-84,-32
-45,-52,-6,46,-19,-32,57,42,-110,-94,-84,-32
-39,-58,-18,46,-13,-38,45,36,-116,-94,-84,-38
-33,-58,-24,40,-8,-44,39,30,-116,-100,-90,-38
-33,-52,-18,40,-8,-38,33,24,-128,-100,-90,-44
-33,-52,-18,40,-8,-38,33,30,-128,-106,-96,-50
-33,-52,-18,40,-8,-38,39,30,-134,-106,-96,-44
-33,-52,-18,40,-8,-38,33,24,-134,-106,-96,-38
-39,-46,-6,40,-19,-26,33,24,-128,-100,-96,-32
-39,-46,-6,40,-19,-26,33,30,-122,-100,-90,-26
-39,-40,-1,40,-19,-20,39,30,-116,-94,-90,-26
-39,-40,-1,40,-19,-20,39,36,-116,-94,-90,-26
-33,-34,-1,28,-19,-20,33,36,-116,-88,-90,-20
-33,-34,-1,28,-19,-20,33,42,-110,-88,-84,-20
-33,-34,-1,28,-19,-20,33,48,-110,-82,-84,-20
-39,-28,10,34,-25,-9,33,48,-110,-82,-84,-20
-45,-34,10,34,-31,-14,39,54,-110,-82,-84,-26
-51,-28,22,40,-37,-4,39,60,-104,-82,-84,-32
-57,-22,34,34,-49,2,39,60,-104,-76,-84,-32
-57,-28,28,40,-43,-4,39,54,-104,-70,-78,-32
-63,-28,34,46,-49,2,39,54,-98,-70,-78,-32
-57,-22,34,34,-49,2,39,54,-98,-70,-78,-32
-51,-22,28,34,-43,2,39,54,-98,-64,-78,-38
-45,-22,22,28,-37,-4,39,60,-98,-58,-78,-38
-45,-22,22,28,-37,-4,39,66,-98,-58,-78,-32
-45,-28,16,34,-31,-9,39,66,-92,-52,-78,-32
-39,-28,10,34,-25,-9,39,72,-86,-52,-84,-32
-45,-28,16,34,-31,-9,39,78,-80,-46,-78,-38
-39,-22,16,28,-31,-4,39,84,-74,-46,-78,-38
-45,-22,22,28,-37,-4,39,84,-74,-40,-78,-38
-45,-17,28,28,-37,2,45,84,-68,-40,-78,-32
-51,-17,34,34,-43,8,39,84,-68,-40,-72,-32
-51,-17,34,34,-43,8,39,78,-74,-40,-72,-32
-51,-12,40,34,-43,14,33,72,-68,-34,-72,-32
-45,-12,34,28,-37,8,33,72,-68,-34,-72,-38
-45,-12,34,28,-37,8,39,78,-68,-28,-66,-32
-39,-12,28,28,-31,8,45,78,-68,-28,-66,-32
-45,-12,34,28,-37,8,45,84,-62,-28,-60,-32
-45,-6,40,22,-43,14,45,84,-62,-22,-60,-32
-45,-12,34,28,-37,8,45,84,-62,-22,-54,-32
-45,-12,34,28,-37,8,45,84,-56,-16,-48,-26
-51,-17,34,34,-43,8,33,78,-56,-16,-42,-20
-51,-22,28,34,-43,2,33,78,-50,-11,-36,-15
-45,-28,16,34,-31,-9,33,84,-50,-11,-36,-15
-39,-34,4,34,-25,-14,33,84,-50,-11,-36,-15
-39,-34,4,34,-25,-14,27,84,-50,-22,-36,-20
-39,-28,10,34,-25,-9,21,78,-56,-28,-48,-20
-39,-22,16,28,-31,-4,21,72,-56,-34,-54,-26
-39,-22,16,28,-31,-4,21,72,-62,-34,-54,-26
-33,-22,10,22,-25,-9,27,72,-62,-34,-54,-26
-33,-22,10,22,-25,-9,21,66,-62,-34,-60,-32
-33,-22,10,22,-25,-9,21,60,-68,-40,-60,-38
-33,-22,10,22,-25,-9,15,54,-74,-46,-66,-38
-33,-28,4,28,-19,-14,15,54,-74,-52,-66,-38
-39,-28,10,34,-25,-9,9,48,-80,-58,-72,-38
-39,-34,4,34,-25,-14,3,48,-86,-64,-78,-44
-45,-34,10,34,-31,-14,3,54,-86,-64,-78,-44
-51,-28,22,40,-37,-4,3,48,-92,-64,-78,-44
-51,-28,22,40,-37,-4,-3,48,-110,-64,-78,-50
-51,-28,22,40,-37,-4,3,48,-110,-64,-84,-50
-51,-28,22,40,-37,-4,-3,42,-116,-76,-90,-56
-45,-28,16,34,-31,-9,-3,30,-122,-82,-96,-56
-45,-28,16,34,-31,-9,-9,24,-122,-88,-102,-56
-45,-28,16,34,-31,-9,-9,18,-128,-94,-102,-56
-45,-28,16,34,-31,-9,-14,18,-128,-88,-102,-56
-45,-28,16,34,-31,-9,-14,18,-128,-88,-102,-56
-45,-34,10,34,-31,-14,-19,12,-134,-94,-102,-56
-51,-28,22,40,-37,-4,-19,12,-134,-94,-102,-56
-51,-28,22,40,-37,-4,-19,12,-140,-94,-108,-56
-51,-34,16,40,-37,-9,-19,12,-146,-94,-108,-62
-51,-40,10,46,-31,-14,-25,12,-146,-94,-114,-62
-39,-40,-1,40,-19,-20,-31,18,-140,-94,-114,-62
-39,-40,-1,40,-19,-20,-31,12,-146,-94,-114,-62
-39,-46,-6,40,-19,-26,-31,12,-146,-94,-120,-68
-33,-40,-6,34,-13,-26,-31,6,-146,-94,-126,-74
-39,-40,-1,40,-19,-20,-25,6,-146,-94,-126,-74
-45,-46,-1,40,-25,-26,-25,6,-146,-100,-126,-74
-57,-46,10,46,-37,-20,-19,6,-146,-100,-126,-74
-63,-46,16,52,-43,-14,-25,6,-146,-100,-120,-68
-63,-46,16,52,-43,-14,-31,0,-158,-106,-120,-68
-63,-46,16,52,-43,-14,-37,0,-164,-106,-126,-68
-57,-46,10,46,-37,-20,-49,6,-164,-106,-126,-68
-57,-46,10,46,-37,-20,-49,12,-164,-112,-126,-74
-51,-46,4,46,-31,-20,-43,18,-158,-106,-126,-68
-51,-40,10,46,-31,-14,-43,12,-158,-112,-126,-68
-51,-34,16,40,-37,-9,-43,12,-152,-106,-132,-68
-51,-28,22,40,-37,-4,-37,12,-152,-106,-126,-62
-51,-22,28,34,-43,2,-37,12,-152,-106,-126,-62
-51,-12,40,34,-43,14,-37,6,-146,-106,-126,-56
-51,0,52,28,-49,26,-37,12,-146,-106,-120,-56
-51,12,64,22,-55,38,-37,6,-152,-106,-120,-56
-51,18,70,17,-61,44,-37,12,-152,-100,-114,-56
-45,24,70,12,-55,44,-37,12,-152,-94,-114,-50
-39,30,70,6,-55,50,-43,12,-158,-94,-114,-50
-39,36,76,6,-55,56,-49,12,-152,-100,-114,-50
-39,36,76,6,-55,56,-43,18,-152,-100,-108,-50
-39,42,82,0,-61,62,-43,18,-152,-100,-108,-50
-39,48,88,0,-61,68,-37,12,-146,-94,-108,-44
-39,54,94,-6,-67,74,-37,12,-146,-94,-102,-50
-33,60,94,-12,-61,74,-37,12,-146,-88,-108,-50
-33,54,88,-12,-61,68,-37,12,-146,-88,-108,-50
-27,48,76,-6,-49,62,-31,12,-140,-82,-108,-44
-33,48,82,-6,-55,62,-25,24,-134,-82,-108,-44
-33,48,82,-6,-55,62,-14,30,-128,-76,-102,-38
-33,54,88,-12,-61,68,-14,30,-122,-70,-96,-32
-27,60,88,-12,-55,74,-25,24,-122,-70,-90,-26
-27,66,94,-18,-61,80,-37,18,-122,-70,-90,-26
-21,78,100,-30,-61,86,-43,18,-122,-64,-84,-26
-16,72,88,-24,-49,80,-49,12,-122,-64,-78,-20
-11,72,82,-24,-43,80,-55,6,-116,-64,-72,-15
-5,66,70,-30,-37,68,-67,-6,-116,-64,-66,-10
7,66,58,-36,-25,62,-79,-6,-116,-58,-66,-4
25,66,40,-42,-8,56,-91,-12,-116,-64,-66,-4
37,60,22,-42,9,44,-97,-12,-116,-64,-66,-10
43,48,4,-42,21,26,-103,-12,-122,-70,-78,-15
49,36,-12,-36,33,14,-109,-12,-122,-70,-78,-15
49,24,-24,-30,39,2,-109,-17,-128,-76,-84,-20
43,18,-24,-30,33,-4,-109,-17,-134,-76,-90,-26
37,12,-24,-18,33,-4,-103,-22,-134,-82,-90,-26
37,6,-30,-18,33,-9,-103,-28,-134,-88,-90,-26
37,0,-36,-12,39,-14,-103,-34,-146,-94,-96,-26
31,-6,-36,-12,33,-20,-103,-40,-146,-100,-102,-32
25,-6,-30,-6,27,-14,-103,-46,-152,-106,-108,-32
19,-6,-24,-6,21,-14,-103,-46,-158,-106,-114,-32
13,-6,-18,0,15,-9,-103,-46,-158,-112,-114,-38
7,-12,-18,6,15,-14,-103,-46,-164,-118,-120,-44
-5,-17,-12,12,3,-14,-109,-46,-170,-130,-132,-50
-16,-17,-1,17,-8,-9,-109,-52,-176,-136,-138,-62
-21,-17,4,17,-13,-9,-109,-58,-182,-142,-150,-68
-39,-17,22,28,-31,2,-103,-58,-188,-148,-156,-74
-51,-22,28,34,-43,2,-97,-58,-188,-160,-168,-86
-57,-22,34,34,-49,2,-97,-64,-188,-166,-168,-92
-69,-40,28,52,-49,-9,-91,-70,-188,-172,-180,-104
-63,-52,10,58,-37,-20,-91,-64,-188,-172,-180,-104
-63,-64,-1,64,-31,-32,-97,-64,-194,-178,-186,-110
-69,-64,4,64,-37,-32,-91,-64,-194,-184,-186,-116
-69,-64,4,64,-37,-32,-91,-58,-194,-190,-186,-116
-75,-64,10,70,-43,-26,-85,-52,-194,-184,-186,-116
-75,-58,16,64,-49,-20,-85,-46,-188,-184,-186,-116
-69,-58,10,58,-43,-26,-85,-52,-188,-184,-186,-116
-69,-64,4,64,-37,-32,-85,-52,-188,-184,-186,-110
-63,-58,4,58,-37,-26,-91,-52,-182,-172,-174,-104
-45,-46,-1,40,-25,-26,-91,-46,-176,-154,-168,-92
-39,-40,-1,40,-19,-20,-91,-34,-164,-142,-156,-86
-33,-40,-6,34,-13,-26,-91,-28,-152,-124,-144,-74
-21,-40,-18,28,-3,-32,-91,-17,-134,-106,-126,-56
-16,-46,-30,28,3,-38,-97,-12,-110,-82,-102,-44
-5,-34,-30,17,9,-32,-103,0,-86,-58,-78,-26
7,-17,-24,6,15,-20,-115,6,-68,-40,-60,-15
31,-12,-42,-6,39,-26,-133,12,-44,-16,-36,-10
55,0,-54,-24,57,-26,-145,18,-15,6,-8,14
91,6,-84,-48,87,-38,-169,24,14,42,28,32
139,12,-126,-72,135,-56,-193,30,50,84,70,62
187,24,-162,-102,177,-68,-229,24,92,132,112,98
235,42,-192,-138,213,-74,-265,36,140,186,166,140
283,54,-228,-168,255,-86,-283,72,212,258,232,188
349,66,-282,-204,315,-104,-283,150,338,372,328,254
415,90,-324,-252,369,-116,-271,258,512,516,448,326
487,120,-366,-300,429,-122,-235,390,710,678,586,410
559,162,-396,-360,477,-116,-187,510,914,870,742,506
619,222,-396,-420,507,-86,-157,582,1088,1056,910,614
691,300,-390,-492,543,-44,-151,612,1250,1266,1102,752
787,402,-384,-594,585,8,-181,582,1388,1488,1330,926
907,516,-390,-708,651,62,-271,456,1478,1704,1582,1130
1039,654,-384,-846,711,134,-415,252,1526,1926,1852,1358
1165,804,-360,-978,765,224,-613,-17,1538,2148,2140,1610
1285,966,-318,-1122,801,326,-859,-334,1514,2352,2421,1874
1369,1128,-240,-1242,807,446,-1129,-688,1466,2531,2679,2126
1417,1254,-162,-1332,789,548,-1387,-1018,1376,2627,2853,2318
1435,1314,-120,-1374,777,596,-1585,-1300,1208,2597,2895,2413
1411,1320,-90,-1362,753,614,-1699,-1510,992,2453,2823,2419
1339,1284,-54,-1308,699,614,-1741,-1636,752,2238,2649,2348
1213,1242,28,-1224,591,638,-1741,-1720,470,1962,2398,2198
1063,1182,118,-1122,471,650,-1723,-1768,170,1626,2074,1994
901,1092,190,-990,357,644,-1675,-1792,-152,1200,1654,1712
709,972,262,-834,225,620,-1597,-1786,-524,672,1138,1364
499,822,322,-660,87,572,-1483,-1750,-872,132,598,980
307,672,364,-486,-25,518,-1357,-1672,-1088,-256,172,638
163,552,388,-354,-109,470,-1225,-1546,-1148,-478,-96,380
73,456,382,-258,-151,422,-1099,-1396,-1130,-580,-252,206
13,360,346,-180,-163,356,-961,-1222,-1058,-610,-330,92
-16,276,292,-126,-151,284,-823,-1030,-968,-598,-372,8
-33,204,238,-84,-133,218,-673,-838,-860,-562,-384,-44
-57,138,196,-42,-127,164,-529,-658,-752,-508,-384,-86
-69,84,154,-6,-109,116,-403,-496,-644,-454,-372,-122
-87,42,130,22,-109,86,-301,-376,-548,-406,-354,-146
-99,-6,94,52,-97,44,-229,-286,-452,-358,-336,-164
-105,-34,70,64,-91,14,-175,-226,-380,-334,-324,-170
-111,-64,46,88,-79,-9,-139,-178,-326,-316,-312,-182
-123,-88,34,106,-79,-26,-115,-148,-296,-310,-306,-194
-129,-100,28,112,-79,-38,-91,-118,-278,-304,-300,-200
-135,-112,22,124,-79,-44,-67,-88,-266,-298,-294,-200
-141,-112,28,124,-85,-44,-43,-58,-260,-292,-294,-200
-141,-118,22,124,-85,-50,-19,-34,-254,-286,-294,-206
-147,-118,28,130,-91,-44,-9,-17,-254,-286,-294,-212
-141,-112,28,124,-85,-44,-3,-12,-248,-280,-300,-218
-141,-118,22,124,-85,-50,3,0,-236,-280,-300,-224
-141,-118,22,124,-85,-50,9,6,-236,-280,-300,-230
-147,-124,22,136,-85,-50,9,6,-242,-280,-306,-236
-153,-136,16,142,-85,-62,3,6,-242,-280,-306,-242
-147,-136,10,142,-79,-62,9,6,-242,-280,-306,-248
-141,-130,10,130,-79,-62,15,18,-242,-274,-306,-242
-141,-130,10,130,-79,-62,21,24,-236,-274,-306,-242
-147,-124,22,136,-85,-50,33,30,-236,-274,-306,-242
-147,-112,34,130,-91,-38,33,36,-236,-274,-300,-248
-147,-112,34,130,-91,-38,33,36,-236,-274,-300,-248
-153,-112,40,130,-97,-38,33,42,-236,-268,-294,-248
-153,-124,28,136,-91,-50,39,48,-230,-268,-300,-248
-147,-118,28,130,-91,-44,39,48,-224,-262,-294,-236
-141,-118,22,124,-85,-50,39,54,-224,-262,-294,-236
-141,-112,28,124,-85,-44,39,54,-224,-262,-294,-242
-141,-112,28,124,-85,-44,45,60,-218,-256,-288,-236
-135,-118,16,124,-79,-50,45,60,-212,-250,-282,-236
-141,-124,16,130,-79,-56,45,66,-206,-250,-282,-230
-141,-124,16,130,-79,-56,51,66,-206,-244,-276,-230
-141,-118,22,124,-85,-50,51,72,-200,-244,-270,-230
-141,-124,16,130,-79,-56,51,72,-200,-238,-264,-230
-141,-124,16,130,-79,-56,51,72,-200,-238,-264,-230
-141,-130,10,130,-79,-62,51,72,-194,-238,-258,-230
-135,-124,10,130,-73,-56,57,66,-194,-238,-258,-230
-135,-124,10,130,-73,-56,51,72,-194,-232,-258,-230
-135,-118,16,124,-79,-50,51,72,-194,-232,-252,-230
-129,-112,16,118,-73,-50,51,78,-182,-220,-246,-230
-129,-112,16,118,-73,-50,51,84,-176,-220,-246,-230
-129,-100,28,112,-79,-38,51,90,-176,-214,-246,-236
-123,-100,22,112,-73,-38,57,90,-164,-208,-240,-242
-123,-94,28,106,-79,-32,57,96,-158,-202,-240,-242
-123,-94,28,106,-79,-32,63,102,-158,-196,-240,-242
-117,-94,22,100,-73,-38,69,108,-152,-190,-234,-236
-117,-100,16,106,-67,-44,69,114,-146,-190,-228,-236
-117,-100,16,106,-67,-44,75,120,-140,-184,-228,-236
-117,-100,16,106,-67,-44,75,126,-140,-184,-222,-230
-117,-106,10,106,-67,-50,75,132,-134,-178,-216,-224
-117,-100,16,106,-67,-44,75,144,-128,-172,-210,-224
-117,-94,22,100,-73,-38,75,150,-122,-166,-204,-218
-117,-82,34,94,-79,-26,81,168,-104,-154,-198,-212
-111,-76,34,94,-73,-20,93,180,-86,-142,-192,-206
-111,-76,34,94,-73,-20,105,192,-68,-136,-180,-200
-111,-82,28,94,-73,-26,111,204,-56,-130,-174,-200
-99,-82,16,88,-61,-32,117,216,-38,-118,-168,-200
-87,-76,10,82,-49,-32,129,234,-26,-112,-162,-194
-87,-76,10,82,-49,-32,135,246,-15,-100,-162,-200
-81,-76,4,76,-43,-38,141,264,-15,-94,-156,-200
-75,-76,-1,76,-37,-38,153,282,8,-82,-150,-194
-81,-76,4,76,-43,-38,159,300,26,-70,-150,-194
-75,-76,-1,76,-37,-38,171,318,50,-64,-144,-200
-81,-76,4,76,-43,-38,177,336,74,-52,-132,-200
-81,-64,16,70,-49,-26,183,354,92,-40,-126,-194
-81,-64,16,70,-49,-26,195,372,110,-28,-120,-194
-81,-64,16,70,-49,-26,207,390,128,-16,-114,-200
-81,-70,10,70,-49,-32,219,408,140,-11,-108,-200
-75,-64,10,70,-43,-26,231,426,158,-6,-96,-194
-75,-64,10,70,-43,-26,243,438,176,6,-90,-188
-69,-58,10,58,-43,-26,249,450,188,18,-78,-182
-69,-58,10,58,-43,-26,255,462,200,30,-72,-176
-63,-52,10,58,-37,-20,255,468,224,36,-66,-176
-57,-52,4,52,-31,-26,261,480,236,42,-60,-176
-51,-52,-1,52,-25,-26,261,492,248,48,-54,-176
-51,-46,4,46,-31,-20,267,498,260,54,-48,-170
-45,-40,4,40,-25,-20,273,504,266,60,-42,-164
-39,-34,4,34,-25,-14,273,510,272,66,-36,-158
-33,-34,-1,28,-19,-20,273,516,278,66,-30,-152
-27,-34,-6,28,-13,-20,279,522,284,72,-30,-146
-21,-40,-18,28,-3,-32,279,528,284,72,-30,-140
-16,-40,-24,28,3,-32,279,528,290,78,-24,-134
-16,-40,-24,28,3,-32,279,528,290,78,-18,-134
-11,-28,-18,22,3,-20,279,522,290,78,-18,-128
-5,-22,-18,12,3,-20,279,522,290,78,-13,-128
-5,-17,-12,12,3,-14,273,516,284,72,-13,-122
-5,-17,-12,12,3,-14,273,510,278,72,-13,-116
-5,-17,-12,12,3,-14,261,498,278,66,-13,-116
1,-17,-18,12,9,-14,255,486,278,66,-13,-110
7,-6,-12,0,9,-9,243,474,272,72,-8,-104
13,-6,-18,0,15,-9,231,456,260,66,-8,-98
19,6,-12,-12,15,-4,219,438,242,60,-8,-92
19,6,-12,-12,15,-4,207,420,224,54,-8,-86
19,12,-6,-12,15,2,195,402,212,54,-2,-80
19,12,-6,-12,15,2,189,384,200,48,-2,-68
19,18,-1,-18,9,8,177,360,188,36,-2,-68
19,18,-1,-18,9,8,171,342,170,30,-2,-62
13,18,4,-12,3,14,159,318,152,18,-2,-62
13,12,-1,-6,9,8,147,300,140,12,-2,-62
7,6,-1,-6,3,2,141,282,128,6,-2,-62
7,0,-6,0,9,-4,129,270,110,0,4,-62
1,0,-1,6,3,2,117,246,98,-6,-2,-62
1,-6,-6,6,3,-4,111,228,74,-11,-8,-56
1,-6,-6,6,3,-4,105,204,56,-16,-13,-56
-5,0,4,6,-3,2,99,186,44,-22,-13,-62
-11,6,16,6,-13,14,87,168,26,-34,-18,-62
-5,6,10,0,-8,8,81,150,8,-40,-24,-68
-5,12,16,0,-8,14,69,132,-10,-46,-30,-68
-5,12,16,0,-8,14,63,114,-15,-52,-30,-56
-5,12,16,0,-8,14,51,102,-26,-58,-30,-62
-5,18,22,-6,-13,20,45,84,-44,-70,-30,-62
-5,24,28,-6,-13,26,39,66,-56,-76,-30,-62
-16,18,34,0,-25,26,33,54,-80,-82,-36,-62
-16,12,28,6,-19,20,33,48,-86,-82,-36,-62
-21,6,28,6,-25,14,33,36,-98,-88,-36,-62
-27,6,34,12,-31,20,27,24,-104,-94,-36,-62
-27,6,34,12,-31,20,27,12,-116,-100,-36,-62
-27,0,28,17,-25,14,21,6,-128,-100,-36,-62
-27,0,28,17,-25,14,15,-6,-134,-106,-42,-62
-27,0,28,17,-25,14,15,-12,-146,-112,-48,-62
-27,0,28,17,-25,14,9,-17,-152,-112,-48,-68
-27,-6,22,17,-25,8,3,-22,-158,-118,-48,-68
-33,-6,28,17,-31,8,3,-28,-170,-118,-54,-74
-33,-12,22,22,-25,2,3,-34,-176,-124,-54,-80
-39,-12,28,28,-31,8,9,-40,-188,-130,-60,-80
-45,0,46,22,-43,20,3,-40,-194,-136,-66,-86
-51,0,52,28,-49,26,3,-46,-200,-136,-66,-86
-57,6,64,22,-61,32,-3,-46,-200,-136,-66,-86
-57,0,58,28,-55,26,-3,-46,-200,-136,-72,-80
-57,0,58,28,-55,26,-3,-46,-200,-130,-72,-86
-51,-6,46,28,-49,20,3,-46,-194,-130,-66,-80
-45,-12,34,28,-37,8,9,-40,-188,-124,-60,-80
-45,-12,34,28,-37,8,9,-46,-188,-130,-60,-86
-39,-6,34,22,-37,14,15,-40,-188,-124,-60,-86
-33,0,34,17,-31,14,15,-40,-182,-124,-60,-86
-33,6,40,12,-37,20,21,-34,-176,-118,-66,-86
-33,12,46,12,-37,26,27,-34,-176,-118,-66,-86
-39,12,52,17,-43,32,33,-34,-170,-112,-66,-86
-45,18,64,12,-55,38,39,-28,-170,-112,-60,-80
-51,18,70,17,-61,44,39,-22,-164,-112,-60,-80
-51,12,64,22,-55,38,39,-17,-164,-112,-54,-80
-51,12,64,22,-55,38,45,-17,-158,-112,-54,-80
-51,12,64,22,-55,38,45,-17,-164,-112,-54,-80
-51,12,64,22,-55,38,51,-12,-164,-106,-48,-80
-51,6,58,22,-55,32,57,-12,-164,-106,-42,-80
-51,6,58,22,-55,32,57,-12,-164,-100,-42,-74
-51,6,58,22,-55,32,57,-6,-158,-94,-30,-74
-51,0,52,28,-49,26,63,0,-152,-82,-30,-74
-51,0,52,28,-49,26,69,0,-146,-82,-30,-74
-51,6,58,22,-55,32,69,6,-140,-82,-30,-74
-63,6,70,28,-67,38,69,6,-140,-82,-30,-80
-69,6,76,28,-73,38,69,6,-134,-76,-24,-74
-63,12,76,28,-67,44,75,6,-128,-76,-18,-74
-57,18,76,17,-67,44,75,6,-122,-76,-13,-74
-63,18,82,22,-73,50,75,6,-122,-76,-8,-74
-57,24,82,17,-67,50,75,6,-122,-76,-8,-74
-57,18,76,17,-67,44,75,6,-128,-76,-13,-74
-57,18,76,17,-67,44,75,6,-122,-70,-8,-68
-51,24,76,17,-61,50,81,12,-116,-58,-8,-62
-45,24,70,12,-55,44,81,12,-110,-58,-2,-62
-39,30,70,6,-55,50,81,6,-110,-58,-8,-62
-39,30,70,6,-55,50,81,6,-110,-58,-8,-68
-45,30,76,6,-61,50,81,0,-110,-58,-8,-68
-45,24,70,12,-55,44,81,0,-104,-58,-2,-68
-45,24,70,12,-55,44,87,0,-104,-58,-2,-68
-45,24,70,12,-55,44,87,0,-104,-58,-2,-68
-45,24,70,12,-55,44,87,6,-104,-58,-2,-74
-51,18,70,17,-61,44,81,0,-110,-58,-2,-74
-51,18,70,17,-61,44,75,0,-116,-64,-8,-74
-51,18,70,17,-61,44,75,0,-110,-64,-2,-74
-45,24,70,12,-55,44,75,6,-110,-58,-2,-74
-45,24,70,12,-55,44,81,6,-116,-58,-2,-74
-45,24,70,12,-55,44,81,6,-116,-64,-2,-74
-51,12,64,22,-55,38,81,6,-116,-64,-8,-74
-57,6,64,22,-61,32,87,6,-122,-64,-8,-74
-57,6,64,22,-61,32,81,0,-128,-70,-13,-74
-63,0,64,34,-61,32,87,0,-128,-76,-13,-74
-63,-6,58,34,-61,26,87,0,-128,-76,-13,-74
-57,-6,52,28,-55,20,87,0,-128,-76,-13,-80
-57,-6,52,28,-55,20,87,0,-122,-82,-13,-80
-51,-6,46,28,-49,20,81,-6,-128,-82,-13,-86
-57,-6,52,28,-55,20,87,-6,-128,-82,-18,-86
-57,-12,46,34,-49,14,87,-6,-128,-88,-18,-86
-51,-12,40,34,-43,14,87,-6,-134,-88,-18,-86
-51,-17,34,34,-43,8,87,-6,-134,-94,-18,-86
-45,-17,28,28,-37,2,87,-6,-134,-88,-18,-86
-39,-17,22,28,-31,2,87,-6,-134,-88,-13,-86
-39,-17,22,28,-31,2,87,-12,-134,-94,-13,-86
-39,-17,22,28,-31,2,87,-12,-140,-94,-13,-86
-45,-17,28,28,-37,2,93,-17,-146,-94,-13,-80
-51,-17,34,34,-43,8,93,-17,-146,-100,-13,-86
-51,-22,28,34,-43,2,93,-22,-146,-100,-13,-86
-57,-28,28,40,-43,-4,93,-22,-146,-100,-8,-80
-51,-28,22,40,-37,-4,93,-22,-146,-100,-8,-80
-45,-34,10,34,-31,-14,93,-22,-146,-106,-13,-80
-45,-28,16,34,-31,-9,87,-22,-146,-112,-13,-86
-51,-34,16,40,-37,-9,93,-28,-152,-118,-24,-86
-57,-34,22,40,-43,-9,93,-28,-158,-130,-30,-92
-63,-34,28,46,-49,-4,93,-34,-164,-130,-30,-92
-69,-40,28,52,-49,-9,93,-34,-164,-130,-36,-98
-69,-40,28,52,-49,-9,87,-40,-170,-130,-36,-98
-69,-34,34,46,-55,-4,87,-40,-164,-136,-36,-98
-63,-28,34,46,-49,2,87,-40,-164,-136,-36,-98
-63,-28,34,46,-49,2,87,-40,-164,-142,-36,-104
-63,-28,34,46,-49,2,93,-40,-164,-142,-36,-104
-57,-28,28,40,-43,-4,93,-46,-170,-142,-42,-98
-57,-28,28,40,-43,-4,93,-46,-176,-142,-36,-92
-57,-28,28,40,-43,-4,93,-46,-176,-142,-36,-92
-51,-28,22,40,-37,-4,93,-46,-176,-130,-36,-92
-51,-17,34,34,-43,8,99,-46,-170,-124,-30,-92
-51,-17,34,34,-43,8,105,-40,-164,-124,-24,-86
-51,-12,40,34,-43,14,105,-34,-158,-118,-18,-86
-51,-6,46,28,-49,20,111,-34,-152,-118,-24,-92
-57,0,58,28,-55,26,111,-34,-152,-118,-24,-86
-57,12,70,22,-61,38,105,-34,-152,-118,-18,-86
-57,18,76,17,-67,44,105,-34,-152,-118,-18,-86
-51,30,82,12,-67,56,105,-34,-146,-112,-13,-86
-51,36,88,12,-67,62,111,-34,-140,-106,-13,-80
-51,48,100,6,-73,74,111,-34,-140,-100,-8,-74
-51,48,100,6,-73,74,111,-34,-134,-100,-2,-74
-51,54,106,0,-79,80,111,-28,-140,-94,4,-68
-45,60,106,-6,-73,80,111,-22,-134,-94,4,-62
-39,60,100,-6,-67,80,111,-22,-128,-88,10,-62
-39,66,106,-12,-73,86,117,-17,-128,-88,10,-62
-39,66,106,-12,-73,86,123,-17,-128,-88,4,-62
-39,72,112,-12,-73,92,123,-17,-128,-94,4,-56
-33,72,106,-18,-67,86,123,-17,-128,-88,4,-56
-27,66,94,-18,-61,80,123,-17,-122,-88,10,-56
-27,72,100,-18,-61,86,129,-12,-122,-82,10,-62
-21,78,100,-30,-61,86,141,-6,-110,-76,16,-62
-21,84,106,-30,-61,92,147,0,-104,-70,22,-62
-16,84,100,-30,-55,92,141,-6,-104,-64,28,-56
-16,96,112,-36,-61,104,135,-6,-104,-64,28,-50
-16,96,112,-36,-61,104,123,-6,-98,-58,28,-44
-11,96,106,-36,-55,104,123,-6,-98,-58,28,-44
1,102,100,-48,-49,104,111,-6,-104,-58,28,-44
7,102,94,-54,-43,98,99,-17,-104,-64,34,-38
13,102,88,-54,-37,98,81,-22,-110,-64,34,-38
25,102,76,-60,-25,92,69,-28,-116,-64,34,-32
31,96,64,-60,-13,80,57,-40,-122,-70,34,-38
37,84,46,-54,-3,68,57,-46,-122,-76,28,-38
43,78,34,-60,3,56,51,-46,-128,-82,22,-38
43,66,22,-54,9,44,45,-52,-140,-88,16,-44
49,60,10,-48,21,38,45,-58,-140,-94,10,-44
49,48,-1,-42,27,26,45,-58,-140,-100,4,-50
49,36,-12,-36,33,14,51,-52,-140,-100,4,-56
43,18,-24,-30,33,-4,57,-52,-140,-100,-2,-56
31,6,-24,-18,27,-9,51,-58,-146,-106,-8,-62
25,6,-18,-12,21,-4,51,-64,-152,-112,-8,-68
13,6,-6,-6,9,2,51,-64,-158,-112,-8,-68
1,6,4,0,-3,8,57,-64,-158,-112,-2,-62
-5,6,10,0,-8,8,57,-70,-158,-112,-2,-62
-11,0,10,12,-8,8,57,-70,-164,-118,-2,-62
-16,-6,10,12,-13,2,57,-76,-164,-118,-2,-68
-21,-12,10,17,-13,-4,57,-70,-170,-124,-8,-74
-33,-17,16,22,-25,-4,63,-70,-170,-124,-13,-74
-45,-22,22,28,-37,-4,69,-70,-182,-124,-13,-86
-51,-28,22,40,-37,-4,75,-70,-188,-130,-18,-92
-57,-40,16,46,-37,-14,81,-64,-188,-130,-30,-104
-69,-52,16,58,-43,-20,81,-64,-188,-130,-36,-104
-69,-64,4,64,-37,-32,81,-70,-182,-136,-36,-104
-69,-70,-1,64,-37,-38,81,-70,-188,-142,-42,-110
-75,-82,-6,76,-37,-44,81,-70,-188,-154,-42,-110
-75,-88,-12,82,-31,-50,81,-70,-194,-154,-42,-110
-81,-88,-6,82,-37,-50,81,-70,-194,-154,-42,-116
-81,-76,4,76,-43,-38,87,-64,-188,-154,-42,-110
-81,-76,4,76,-43,-38,87,-58,-188,-148,-36,-110
-81,-64,16,70,-49,-26,81,-58,-182,-142,-30,-104
-69,-58,10,58,-43,-26,81,-52,-176,-130,-24,-98
-57,-52,4,52,-31,-26,81,-46,-164,-118,-13,-92
-45,-52,-6,46,-19,-32,81,-28,-152,-100,-8,-80
-27,-46,-18,34,-8,-32,81,-22,-134,-82,4,-68
-16,-46,-30,28,3,-38,81,-17,-116,-64,16,-62
-11,-40,-30,28,9,-32,75,-6,-98,-46,34,-50
1,-34,-36,17,15,-32,75,0,-68,-22,58,-38
19,-22,-42,0,27,-32,63,18,-38,0,82,-20
43,-17,-60,-12,51,-38,51,24,-15,24,106,-15
67,-12,-78,-24,75,-44,33,30,8,48,136,2
103,-12,-114,-42,111,-62,9,42,44,78,172,32
151,-6,-156,-72,153,-80,-19,42,74,114,214,62
199,6,-192,-102,195,-92,-55,42,116,162,256,98
253,18,-234,-132,243,-104,-91,60,176,228,316,140
313,30,-282,-168,297,-122,-103,114,278,318,388,194
385,42,-342,-210,363,-146,-103,210,422,444,484,260
451,66,-384,-258,417,-158,-85,336,602,594,604,332
529,102,-426,-312,477,-158,-43,474,812,762,748,416
595,150,-444,-372,519,-146,-3,576,1004,942,904,518
667,222,-444,-444,555,-110,15,630,1172,1128,1078,632
757,306,-450,-528,603,-68,9,642,1334,1338,1282,776
865,414,-450,-636,657,-14,-37,564,1448,1554,1516,956
997,540,-456,-762,729,44,-151,402,1520,1776,1774,1166
1129,672,-456,-894,795,110,-319,156,1568,1998,2044,1394
1261,816,-444,-1032,855,188,-541,-148,1574,2208,2320,1646
1381,966,-414,-1170,897,278,-823,-520,1544,2394,2589,1892
1459,1110,-348,-1284,903,380,-1105,-892,1490,2555,2823,2120
1507,1218,-288,-1362,897,464,-1351,-1234,1376,2615,2955,2282
1519,1266,-252,-1392,885,506,-1537,-1522,1190,2537,2955,2354
1483,1266,-216,-1374,849,524,-1639,-1720,950,2370,2859,2342
1399,1248,-150,-1320,777,548,-1693,-1852,680,2136,2667,2258
1255,1212,-42,-1230,651,584,-1711,-1936,386,1848,2409,2114
1087,1164,76,-1122,507,620,-1687,-1984,68,1506,2080,1916
901,1062,160,-978,369,614,-1633,-1996,-272,1056,1642,1628
685,918,232,-798,225,578,-1531,-1984,-668,516,1114,1274
463,744,280,-600,93,512,-1399,-1936,-998,12,604,902
283,594,310,-438,-13,452,-1255,-1828,-1160,-316,226,584
145,480,334,-306,-91,410,-1111,-1672,-1196,-496,-2,356
61,384,322,-216,-127,356,-967,-1480,-1142,-562,-132,200
1,294,292,-144,-145,296,-811,-1264,-1052,-574,-198,92
-33,216,250,-90,-139,230,-655,-1042,-950,-556,-228,14
-57,150,208,-48,-133,176,-493,-820,-836,-514,-240,-26
-81,84,166,0,-121,122,-349,-634,-722,-460,-240,-62
-99,36,136,34,-115,86,-217,-478,-614,-406,-228,-98
-105,-6,100,52,-103,44,-115,-370,-518,-358,-216,-128
-123,-40,82,82,-103,20,-43,-286,-422,-322,-204,-146
-141,-82,58,106,-103,-14,3,-238,-356,-298,-198,-176
-153,-112,40,130,-97,-38,39,-190,-302,-286,-186,-194
-159,-136,22,148,-91,-56,75,-142,-278,-280,-180,-206
-171,-148,22,160,-97,-62,93,-106,-266,-274,-174,-218
-171,-154,16,160,-97,-68,117,-64,-260,-268,-168,-224
-177,-160,16,166,-97,-74,141,-28,-260,-256,-168,-218
-177,-154,22,160,-103,-68,165,-6,-248,-250,-162,-218
-177,-154,22,160,-103,-68,183,6,-236,-244,-168,-224
-183,-166,16,172,-103,-74,195,18,-224,-244,-174,-224
-183,-166,16,172,-103,-74,207,24,-206,-244,-180,-224
-189,-172,16,178,-103,-80,213,18,-200,-244,-186,-230
-201,-178,22,184,-115,-80,213,18,-194,-250,-186,-230
-201,-184,16,190,-109,-86,219,24,-188,-244,-180,-224
-201,-178,22,184,-115,-80,219,36,-188,-238,-180,-224
-207,-178,28,190,-121,-74,219,48,-188,-238,-180,-230
-189,-172,16,178,-103,-80,225,60,-176,-232,-168,-230
-183,-172,10,178,-97,-80,231,72,-170,-232,-162,-230
-183,-178,4,178,-97,-86,237,72,-158,-226,-162,-230
-177,-178,-1,172,-91,-92,237,72,-158,-226,-168,-230
-177,-178,-1,172,-91,-92,237,72,-158,-226,-168,-236
-177,-178,-1,172,-91,-92,243,72,-146,-226,-174,-230
-177,-172,4,172,-91,-86,249,78,-140,-220,-168,-230
-183,-160,22,172,-103,-68,249,84,-134,-220,-168,-230
-189,-160,28,172,-109,-68,249,84,-134,-220,-162,-230
-189,-160,28,172,-109,-68,249,90,-128,-214,-162,-224
-183,-160,22,172,-103,-68,249,96,-128,-208,-156,-230
-177,-160,16,166,-97,-74,249,96,-128,-208,-156,-230
-177,-160,16,166,-97,-74,249,102,-122,-202,-150,-224
-171,-160,10,166,-91,-74,249,96,-116,-196,-144,-224
-171,-166,4,166,-91,-80,249,96,-110,-196,-144,-224
-171,-166,4,166,-91,-80,249,102,-104,-196,-144,-224
-183,-166,16,172,-103,-74,249,96,-104,-196,-144,-224
-183,-166,16,172,-103,-74,249,102,-104,-190,-138,-224
-183,-166,16,172,-103,-74,249,108,-98,-190,-132,-218
-183,-160,22,172,-103,-68,249,108,-86,-184,-132,-224
-177,-148,28,160,-103,-62,249,114,-80,-178,-132,-224
-171,-148,22,160,-97,-62,255,120,-68,-172,-126,-224
-165,-148,16,154,-91,-68,261,126,-56,-166,-126,-218
-165,-148,16,154,-91,-68,261,126,-56,-160,-120,-218
-165,-148,16,154,-91,-68,261,132,-50,-160,-120,-218
-165,-154,10,154,-91,-74,261,138,-44,-160,-120,-212
-165,-154,10,154,-91,-74,261,144,-32,-154,-114,-206
-165,-148,16,154,-91,-68,261,156,-20,-148,-108,-206
-159,-148,10,154,-85,-68,261,168,-15,-142,-108,-200
-159,-148,10,154,-85,-68,267,174,-4,-136,-108,-200
-165,-142,22,148,-97,-62,273,186,2,-136,-102,-206
-165,-142,22,148,-97,-62,279,192,14,-130,-102,-206
-165,-142,22,148,-97,-62,279,198,26,-118,-96,-206
-159,-130,28,142,-97,-50,291,216,44,-106,-90,-200
-147,-124,22,136,-85,-50,297,228,56,-100,-84,-194
-147,-130,16,136,-85,-56,303,246,68,-94,-78,-194
-141,-130,10,130,-79,-62,309,258,80,-82,-84,-194
-135,-130,4,130,-73,-62,309,270,98,-70,-78,-188
-141,-136,4,136,-73,-68,315,288,116,-58,-72,-182
-147,-142,4,142,-79,-68,327,306,140,-40,-60,-182
-147,-136,10,142,-79,-62,339,330,158,-34,-54,-182
-141,-130,10,130,-79,-62,351,348,176,-22,-48,-182
-135,-130,4,130,-73,-62,363,372,200,-11,-36,-182
-129,-136,-6,130,-61,-74,375,396,218,-6,-24,-176
-129,-136,-6,130,-61,-74,387,414,236,6,-24,-170
-123,-136,-12,130,-55,-74,393,432,254,18,-18,-170
-117,-124,-6,118,-55,-68,399,450,272,30,-13,-164
-111,-124,-12,118,-49,-68,411,468,290,36,-13,-164
-105,-124,-18,112,-43,-74,423,486,308,48,-8,-164
-93,-118,-24,100,-37,-74,429,504,320,60,-2,-164
-93,-112,-18,100,-37,-68,441,522,338,72,4,-164
-93,-112,-18,100,-37,-68,441,534,350,84,16,-164
-93,-106,-12,94,-43,-62,447,552,368,90,16,-164
-87,-100,-12,94,-37,-56,453,564,386,102,22,-164
-81,-100,-18,88,-31,-62,459,582,404,108,28,-158
-75,-94,-18,82,-31,-56,465,594,416,114,34,-152
-69,-88,-18,76,-25,-56,471,600,416,114,34,-146
-63,-88,-24,76,-19,-56,471,606,422,120,40,-140
-57,-82,-24,64,-19,-56,477,612,428,120,40,-134
-51,-76,-24,64,-13,-50,477,612,434,126,46,-122
-45,-76,-30,58,-8,-56,477,618,440,132,52,-116
-45,-76,-30,58,-8,-56,483,624,452,138,52,-116
-45,-76,-30,58,-8,-56,483,624,458,144,58,-116
-39,-76,-36,58,-3,-56,483,630,446,138,58,-116
-39,-70,-30,52,-8,-50,477,630,446,132,52,-116
-33,-64,-30,46,-3,-50,471,624,446,132,52,-116
-27,-64,-36,46,3,-50,465,618,446,132,58,-110
-27,-64,-36,46,3,-50,459,606,440,132,58,-104
-16,-58,-42,34,9,-50,453,594,440,132,64,-104
-16,-58,-42,34,9,-50,441,588,434,132,64,-92
-16,-58,-42,34,9,-50,429,576,434,126,70,-86
-11,-52,-42,34,15,-44,417,558,416,120,70,-80
-5,-46,-42,22,15,-44,405,534,410,120,70,-68
-5,-40,-36,22,15,-38,393,516,398,120,76,-62
-11,-40,-30,28,9,-32,375,498,380,120,82,-56
-5,-40,-36,22,15,-38,363,480,362,114,88,-50
-5,-40,-36,22,15,-38,345,462,350,114,88,-44
1,-34,-36,17,15,-32,333,432,326,102,82,-44
1,-28,-30,17,15,-26,321,402,302,90,82,-44
1,-28,-30,17,15,-26,309,378,284,78,70,-44
1,-28,-30,17,15,-26,297,348,260,72,64,-44
1,-22,-24,12,9,-20,285,324,242,60,58,-50
1,-17,-18,12,9,-14,267,300,224,54,58,-50
1,-17,-18,12,9,-14,255,276,200,42,46,-56
-5,-17,-12,12,3,-14,237,252,176,30,40,-56
-16,-22,-6,17,-8,-14,225,228,158,18,40,-62
-21,-28,-6,22,-8,-20,213,210,134,12,40,-56
-27,-28,-1,28,-13,-14,207,192,110,0,34,-56
-33,-34,-1,28,-19,-20,195,168,86,-6,28,-62
-33,-34,-1,28,-19,-20,183,150,68,-11,22,-62
-33,-34,-1,28,-19,-20,171,126,56,-16,16,-62
-39,-46,-6,40,-19,-26,159,108,44,-22,10,-62
-45,-52,-6,46,-19,-32,153,90,32,-28,10,-62
-45,-52,-6,46,-19,-32,141,78,20,-34,4,-68
-51,-52,-1,52,-25,-26,129,60,2,-40,4,-68
-51,-52,-1,52,-25,-26,123,48,-10,-46,4,-68
-51,-52,-1,52,-25,-26,111,30,-15,-52,-2,-68
-51,-58,-6,52,-25,-32,111,18,-20,-52,-2,-68
-51,-58,-6,52,-25,-32,105,12,-26,-52,-2,-68
-51,-58,-6,52,-25,-32,99,6,-32,-58,4,-68
-57,-58,-1,52,-31,-32,99,0,-38,-64,-2,-62
-57,-52,4,52,-31,-26,93,-6,-44,-64,-8,-62
-51,-46,4,46,-31,-20,93,-12,-56,-70,-13,-62
-51,-46,4,46,-31,-20,87,-17,-62,-76,-13,-62
-51,-46,4,46,-31,-20,87,-17,-68,-76,-13,-62
-57,-58,-1,52,-31,-32,87,-22,-68,-76,-18,-62
-57,-58,-1,52,-31,-32,87,-28,-74,-82,-24,-68
-57,-64,-6,58,-25,-38,81,-28,-74,-82,-24,-68
-63,-64,-1,64,-31,-32,81,-28,-74,-88,-30,-68
-63,-58,4,58,-37,-26,75,-34,-86,-88,-36,-68
-63,-58,4,58,-37,-26,75,-34,-86,-88,-30,-68
-69,-64,4,64,-37,-32,75,-40,-92,-88,-30,-68
-69,-64,4,64,-37,-32,75,-34,-92,-88,-30,-68
-69,-70,-1,64,-37,-38,81,-34,-86,-82,-24,-68
-69,-70,-1,64,-37,-38,81,-34,-86,-82,-30,-68
-69,-70,-1,64,-37,-38,81,-34,-80,-82,-30,-68
-63,-64,-1,64,-31,-32,81,-34,-80,-76,-30,-74
-63,-64,-1,64,-31,-32,87,-34,-80,-70,-30,-68
-69,-64,4,64,-37,-32,87,-28,-74,-64,-30,-74
-69,-58,10,58,-43,-26,87,-22,-68,-64,-30,-74
-69,-58,10,58,-43,-26,87,-17,-68,-64,-30,-74
-75,-58,16,64,-49,-20,87,-12,-68,-64,-30,-74
-75,-58,16,64,-49,-20,93,-12,-62,-58,-24,-74
-75,-58,16,64,-49,-20,93,-6,-56,-52,-24,-74
-75,-58,16,64,-49,-20,99,-6,-56,-52,-24,-74
-81,-52,28,64,-55,-14,99,0,-62,-52,-24,-74
-81,-52,28,64,-55,-14,99,0,-62,-46,-18,-68
-81,-58,22,64,-55,-20,105,6,-56,-46,-18,-68
-81,-58,22,64,-55,-20,105,12,-50,-40,-13,-68
-69,-58,10,58,-43,-26,111,18,-44,-34,-8,-68
-63,-58,4,58,-37,-26,111,18,-44,-28,-8,-62
-69,-58,10,58,-43,-26,111,24,-38,-28,-2,-62
-69,-52,16,58,-43,-20,111,24,-32,-22,-2,-56
-69,-52,16,58,-43,-20,105,18,-32,-22,-2,-56
-75,-52,22,64,-49,-14,105,24,-32,-16,4,-56
-81,-52,28,64,-55,-14,105,30,-26,-16,4,-56
-81,-46,34,58,-61,-9,105,30,-26,-16,10,-56
-75,-46,28,58,-55,-9,105,30,-20,-16,10,-56
-75,-46,28,58,-55,-9,105,30,-15,-11,16,-56
-75,-46,28,58,-55,-9,111,36,-15,-11,16,-50
-75,-46,28,58,-55,-9,111,30,-15,-11,16,-50
-75,-46,28,58,-55,-9,111,30,-15,-11,10,-56
-81,-52,28,64,-55,-14,111,30,-15,-11,10,-62
-81,-52,28,64,-55,-14,117,30,-15,-11,10,-62
-81,-52,28,64,-55,-14,117,30,-10,-6,16,-62
-81,-58,22,64,-55,-20,111,24,-10,-6,16,-68
-75,-52,22,64,-49,-14,105,24,-15,-6,16,-62
-75,-52,22,64,-49,-14,105,24,-15,-11,16,-68
-63,-52,10,58,-37,-20,99,18,-20,-16,16,-68
-63,-52,10,58,-37,-20,99,18,-32,-22,10,-74
-63,-52,10,58,-37,-20,93,12,-32,-22,10,-74
-63,-52,10,58,-37,-20,93,12,-32,-28,4,-74
-63,-40,22,52,-43,-9,93,18,-32,-34,-2,-80
-63,-40,22,52,-43,-9,99,18,-32,-34,-2,-80
-63,-40,22,52,-43,-9,99,18,-38,-28,-2,-80
-63,-46,16,52,-43,-14,99,12,-38,-28,4,-74
-57,-52,4,52,-31,-26,99,12,-38,-28,-2,-74
-57,-58,-1,52,-31,-32,99,6,-44,-28,-2,-74
-63,-64,-1,64,-31,-32,99,6,-50,-34,-2,-68
-63,-64,-1,64,-31,-32,93,0,-44,-34,-2,-68
-63,-52,10,58,-37,-20,87,-6,-44,-40,-2,-68
-63,-52,10,58,-37,-20,87,-6,-50,-46,-8,-68
-63,-46,16,52,-43,-14,81,-6,-56,-46,-8,-74
-69,-52,16,58,-43,-20,75,-6,-56,-52,-13,-74
-63,-52,10,58,-37,-20,81,-12,-62,-58,-18,-80
-63,-58,4,58,-37,-26,69,-17,-74,-58,-24,-80
-63,-58,4,58,-37,-26,63,-17,-74,-64,-24,-86
-63,-58,4,58,-37,-26,57,-28,-74,-70,-30,-92
-63,-58,4,58,-37,-26,57,-34,-74,-76,-36,-92
-63,-58,4,58,-37,-26,57,-40,-74,-82,-42,-98
-69,-58,10,58,-43,-26,51,-46,-80,-82,-48,-98
-75,-64,10,70,-43,-26,51,-46,-80,-82,-48,-98
-75,-70,4,70,-43,-32,57,-40,-80,-76,-48,-98
-75,-76,-1,76,-37,-38,63,-40,-80,-76,-42,-98
-75,-82,-6,76,-37,-44,63,-40,-80,-76,-42,-92
-75,-82,-6,76,-37,-44,57,-40,-86,-82,-48,-92
-81,-82,-1,76,-43,-44,51,-46,-92,-88,-48,-98
-75,-76,-1,76,-37,-38,51,-46,-92,-88,-48,-98
-81,-76,4,76,-43,-38,51,-46,-92,-88,-48,-98
-81,-76,4,76,-43,-38,57,-46,-98,-88,-48,-104
-87,-88,-1,88,-43,-44,63,-52,-98,-88,-54,-110
-81,-88,-6,82,-37,-50,57,-64,-104,-100,-60,-116
-81,-82,-1,76,-43,-44,57,-64,-110,-106,-66,-116
-81,-88,-6,82,-37,-50,57,-64,-110,-112,-72,-116
-81,-88,-6,82,-37,-50,63,-58,-110,-112,-78,-110
-81,-94,-12,82,-37,-56,63,-58,-110,-112,-78,-110
-87,-94,-6,88,-43,-50,63,-52,-110,-106,-84,-110
-87,-94,-6,88,-43,-50,63,-46,-110,-106,-84,-110
-87,-94,-6,88,-43,-50,63,-52,-104,-106,-84,-104
-87,-94,-6,88,-43,-50,57,-52,-104,-106,-84,-104
-81,-94,-12,82,-37,-56,57,-52,-98,-106,-78,-104
-81,-88,-6,82,-37,-50,57,-52,-98,-106,-78,-104
-81,-82,-1,76,-43,-44,51,-52,-98,-106,-78,-98
-81,-82,-1,76,-43,-44,51,-52,-104,-112,-78,-98
-87,-88,-1,88,-43,-44,51,-58,-104,-112,-84,-98
-81,-88,-6,82,-37,-50,57,-58,-104,-112,-84,-98
-75,-88,-12,82,-31,-50,51,-58,-104,-106,-84,-98
-75,-88,-12,82,-31,-50,51,-58,-104,-106,-90,-92
-69,-82,-12,70,-31,-50,51,-58,-104,-100,-90,-92
-69,-82,-12,70,-31,-50,45,-58,-104,-100,-90,-92
-69,-82,-12,70,-31,-50,45,-64,-110,-100,-96,-98
-69,-76,-6,70,-31,-44,51,-64,-110,-100,-96,-98
-69,-76,-6,70,-31,-44,51,-64,-110,-100,-96,-98
-75,-76,-1,76,-37,-38,51,-64,-110,-100,-96,-104
-75,-70,4,70,-43,-32,57,-58,-104,-106,-96,-104
-81,-64,16,70,-49,-26,57,-58,-104,-106,-102,-104
-81,-58,22,64,-55,-20,57,-58,-104,-106,-102,-104
-75,-46,28,58,-55,-9,57,-58,-104,-106,-108,-98
-75,-40,34,58,-55,-4,57,-58,-98,-100,-108,-92
-69,-28,40,46,-55,2,63,-58,-98,-94,-108,-86
-63,-17,46,40,-55,14,63,-52,-86,-94,-102,-80
-63,-17,46,40,-55,14,63,-46,-74,-82,-96,-74
-69,-12,58,40,-61,20,69,-46,-68,-76,-90,-68
-75,-12,64,46,-67,26,69,-46,-68,-76,-96,-62
-75,-12,64,46,-67,26,63,-46,-68,-70,-96,-56
-63,-6,58,34,-61,26,69,-46,-74,-70,-84,-56
-63,-6,58,34,-61,26,69,-46,-74,-70,-84,-56
-63,0,64,34,-61,32,75,-40,-68,-64,-84,-50
-63,6,70,28,-67,38,69,-46,-74,-64,-84,-50
-63,6,70,28,-67,38,69,-46,-74,-70,-90,-56
-63,6,70,28,-67,38,69,-46,-80,-70,-102,-56
-63,12,76,28,-67,44,69,-40,-74,-64,-108,-56
-57,12,70,22,-61,38,75,-34,-74,-64,-120,-62
-57,12,70,22,-61,38,81,-28,-68,-64,-120,-62
-45,24,70,12,-55,44,87,-17,-56,-52,-114,-56
-39,30,70,6,-55,50,87,-12,-56,-52,-108,-50
-33,42,76,-6,-55,56,81,-17,-50,-46,-102,-38
-27,42,70,-6,-49,56,81,-17,-44,-40,-96,-32
-21,54,76,-18,-49,62,75,-17,-50,-40,-90,-26
-16,60,76,-18,-43,68,63,-22,-56,-34,-90,-26
-11,60,70,-18,-37,68,51,-28,-56,-34,-90,-15
1,54,52,-24,-25,56,33,-34,-56,-34,-90,-15
7,42,34,-24,-13,38,9,-46,-56,-34,-96,-15
7,30,22,-18,-8,26,3,-52,-56,-34,-96,-15
13,18,4,-12,3,14,-3,-52,-56,-40,-96,-15
13,6,-6,-6,9,2,-3,-58,-56,-46,-102,-15
7,-6,-12,0,9,-9,-3,-64,-74,-52,-114,-26
7,-17,-24,6,15,-20,-3,-70,-80,-58,-120,-32
13,-28,-42,12,27,-32,-3,-70,-80,-64,-126,-38
13,-34,-48,12,27,-38,-3,-70,-86,-70,-126,-44
19,-40,-60,12,39,-50,-3,-76,-92,-82,-132,-56
13,-52,-66,22,39,-56,-3,-82,-104,-94,-144,-62
19,-40,-60,12,39,-50,-3,-88,-110,-100,-150,-68
7,-40,-48,17,27,-44,-9,-94,-128,-112,-162,-74
1,-28,-30,17,15,-26,-9,-100,-140,-118,-168,-68
-11,-28,-18,22,3,-20,-14,-106,-146,-124,-174,-68
-16,-34,-18,22,-3,-26,-14,-112,-158,-136,-186,-68
-33,-40,-6,34,-13,-26,-14,-112,-158,-142,-186,-74
-39,-40,-1,40,-19,-20,-9,-112,-152,-142,-192,-74
-51,-52,-1,52,-25,-26,-9,-112,-152,-148,-192,-74
-57,-58,-1,52,-31,-32,3,-106,-152,-142,-192,-74
-69,-70,-1,64,-37,-38,9,-100,-152,-142,-192,-86
-81,-88,-6,82,-37,-50,15,-100,-152,-148,-192,-92
-87,-100,-12,94,-37,-56,21,-100,-152,-142,-198,-104
-87,-112,-24,100,-31,-68,33,-94,-152,-142,-198,-104
-87,-118,-30,100,-31,-74,33,-94,-152,-142,-204,-104
-93,-118,-24,100,-37,-74,33,-100,-152,-148,-204,-104
-93,-118,-24,100,-37,-74,33,-94,-152,-154,-204,-98
-93,-118,-24,100,-37,-74,27,-94,-158,-154,-210,-98
-99,-112,-12,106,-43,-62,27,-94,-158,-148,-210,-104
-99,-112,-12,106,-43,-62,27,-94,-152,-148,-210,-104
-93,-112,-18,100,-37,-68,15,-94,-146,-142,-210,-104
-81,-100,-18,88,-31,-62,15,-88,-140,-136,-198,-92
-69,-100,-30,82,-19,-68,15,-76,-122,-118,-180,-80
-63,-94,-30,76,-19,-62,15,-64,-104,-106,-156,-68
-51,-94,-42,70,-8,-68,21,-52,-92,-88,-138,-56
-39,-88,-48,64,3,-68,21,-46,-74,-70,-120,-38
-27,-76,-48,52,9,-62,15,-34,-56,-52,-102,-26
-16,-58,-42,34,9,-50,9,-28,-32,-28,-84,-15
7,-46,-54,17,27,-50,-3,-17,-4,-6,-66,-4
37,-46,-84,6,57,-62,-25,-17,20,18,-42,14
67,-46,-114,-12,87,-80,-55,-17,44,42,-18,26
109,-46,-156,-30,129,-98,-91,-17,68,72,4,50
151,-40,-192,-54,171,-116,-127,-22,92,96,40,80
199,-17,-216,-90,207,-116,-163,-28,128,144,88,116
247,6,-240,-126,243,-116,-199,-12,188,204,148,158
301,24,-276,-156,291,-122,-211,36,284,288,226,206
373,48,-324,-204,351,-134,-205,144,440,420,328,266
445,78,-366,-258,405,-140,-181,270,620,576,442,332
535,114,-420,-324,477,-152,-139,408,824,744,580,416
613,162,-450,-384,531,-140,-115,498,1010,924,742,518
697,228,-468,-456,585,-116,-103,540,1172,1110,922,644
793,312,-480,-546,639,-80,-127,534,1316,1308,1126,800
913,414,-498,-660,705,-38,-199,432,1430,1524,1366,998
1045,534,-510,-786,777,14,-319,252,1502,1740,1636,1220
1177,678,-498,-924,837,92,-487,-6,1526,1956,1906,1454
1303,834,-468,-1068,885,182,-715,-322,1508,2160,2182,1706
1423,996,-426,-1206,927,284,-985,-688,1466,2352,2451,1958
1495,1146,-348,-1320,921,398,-1255,-1054,1400,2501,2673,2180
1543,1242,-300,-1392,921,470,-1495,-1390,1262,2513,2775,2324
1549,1266,-282,-1404,915,494,-1663,-1660,1064,2411,2745,2372
1501,1242,-258,-1368,879,494,-1741,-1834,836,2238,2631,2348
1393,1200,-192,-1290,795,506,-1771,-1948,578,1998,2427,2252
1231,1158,-72,-1194,651,542,-1765,-2014,296,1704,2158,2090
1051,1086,34,-1068,507,560,-1741,-2044,-15,1350,1804,1856
841,972,130,-900,357,554,-1669,-2032,-368,876,1318,1526
607,828,220,-714,195,524,-1549,-2002,-764,324,766,1142
379,678,298,-528,39,488,-1417,-1930,-1064,-142,280,764
211,540,328,-372,-55,434,-1279,-1810,-1202,-430,-60,464
91,438,346,-264,-127,392,-1135,-1654,-1214,-568,-264,260
19,342,322,-180,-151,332,-991,-1474,-1154,-610,-366,128
-21,252,274,-114,-145,260,-841,-1264,-1052,-610,-414,44
-51,168,220,-54,-133,194,-679,-1048,-938,-580,-432,-15
-75,102,178,-12,-127,140,-517,-832,-818,-538,-438,-50
-93,48,142,22,-115,92,-379,-652,-704,-490,-432,-86
-111,6,118,52,-115,62,-265,-496,-596,-442,-414,-116
-123,-22,100,70,-115,38,-169,-376,-500,-400,-402,-146
-129,-46,82,82,-109,14,-109,-298,-416,-358,-384,-164
-135,-70,64,100,-103,-4,-61,-238,-344,-328,-372,-176
-147,-94,52,118,-103,-20,-25,-190,-296,-304,-360,-188
-153,-112,40,130,-97,-38,-3,-160,-272,-292,-348,-194
-153,-124,28,136,-91,-50,27,-124,-248,-274,-336,-194
-159,-130,28,142,-97,-50,57,-88,-230,-268,-324,-194
-159,-130,28,142,-97,-50,81,-58,-224,-262,-318,-194
-165,-136,28,148,-97,-56,105,-28,-212,-250,-312,-194
-171,-136,34,154,-103,-50,117,-12,-200,-244,-312,-194
-171,-136,34,154,-103,-50,123,0,-194,-244,-318,-194
-171,-142,28,154,-103,-56,123,6,-188,-250,-324,-200
-177,-142,34,154,-109,-56,123,0,-182,-256,-330,-206
-171,-154,16,160,-97,-68,123,0,-176,-250,-330,-212
-171,-154,16,160,-97,-68,129,-6,-170,-256,-336,-206
-171,-166,4,166,-91,-80,129,0,-170,-256,-330,-212
-171,-166,4,166,-91,-80,141,6,-170,-256,-330,-212
-165,-166,-1,160,-85,-86,147,12,-164,-244,-324,-206
-171,-166,4,166,-91,-80,153,24,-158,-238,-324,-200
-171,-172,-1,172,-85,-86,159,36,-158,-238,-330,-200
-171,-172,-1,172,-85,-86,159,42,-152,-232,-324,-194
-177,-172,4,172,-91,-86,159,42,-146,-232,-318,-194
-171,-166,4,166,-91,-80,153,42,-140,-232,-318,-194
-171,-172,-1,172,-85,-86,153,48,-128,-232,-318,-194
-171,-172,-1,172,-85,-86,153,48,-122,-232,-306,-194
-171,-160,10,166,-91,-74,159,54,-116,-232,-306,-194
-171,-160,10,166,-91,-74,159,54,-116,-232,-312,-200
-177,-160,16,166,-97,-74,159,54,-122,-232,-312,-200
-171,-154,16,160,-97,-68,159,60,-116,-226,-306,-200
-171,-148,22,160,-97,-62,159,66,-110,-220,-300,-200
-171,-148,22,160,-97,-62,159,66,-110,-214,-294,-200
-177,-154,22,160,-103,-68,159,72,-104,-214,-294,-194
-171,-148,22,160,-97,-62,153,72,-104,-214,-288,-188
-165,-148,16,154,-91,-68,147,72,-98,-214,-282,-188
-159,-148,10,154,-85,-68,147,72,-98,-208,-282,-188
-159,-148,10,154,-85,-68,147,78,-92,-208,-282,-194
-159,-154,4,154,-85,-74,147,90,-86,-208,-276,-194
-153,-160,-6,154,-73,-86,153,96,-80,-202,-276,-194
-147,-154,-6,148,-73,-80,153,96,-74,-196,-276,-194
-141,-142,-1,136,-73,-74,159,108,-62,-196,-276,-188
-141,-136,4,136,-73,-68,165,114,-56,-190,-276,-188
-141,-130,10,130,-79,-62,165,108,-50,-190,-276,-188
-141,-124,16,130,-79,-56,165,108,-50,-190,-270,-194
-135,-124,10,130,-73,-56,165,114,-38,-184,-264,-188
-135,-136,-1,136,-67,-68,171,132,-26,-178,-258,-182
-135,-142,-6,136,-67,-74,171,138,-15,-172,-252,-182
-141,-148,-6,142,-67,-80,177,144,-4,-166,-252,-182
-147,-154,-6,148,-73,-80,183,150,2,-166,-258,-182
-147,-148,-1,148,-73,-74,189,156,14,-166,-252,-182
-147,-148,-1,148,-73,-74,195,168,26,-154,-252,-182
-147,-148,-1,148,-73,-74,201,186,38,-148,-246,-182
-141,-142,-1,136,-73,-74,213,204,50,-136,-240,-182
-135,-136,-1,136,-67,-68,213,210,62,-118,-228,-176
-135,-136,-1,136,-67,-68,219,222,74,-106,-222,-170
-123,-124,-1,124,-61,-62,219,228,86,-100,-216,-170
-123,-118,4,118,-67,-56,225,240,104,-94,-216,-164
-117,-118,-1,112,-61,-62,237,258,122,-82,-210,-158
-111,-112,-1,112,-55,-56,249,276,146,-70,-198,-152
-111,-118,-6,112,-55,-62,261,294,176,-52,-192,-146
-105,-112,-6,106,-49,-62,273,312,194,-40,-180,-146
-105,-112,-6,106,-49,-62,279,330,212,-34,-180,-146
-99,-112,-12,106,-43,-62,285,342,224,-22,-174,-152
-93,-112,-18,100,-37,-68,291,366,242,-16,-162,-152
-87,-112,-24,100,-31,-68,303,390,266,-6,-156,-146
-81,-112,-30,94,-25,-74,315,414,290,6,-150,-140
-75,-118,-42,94,-19,-80,321,432,302,12,-144,-140
-69,-106,-36,82,-19,-74,321,450,320,24,-138,-140
-69,-94,-24,76,-25,-62,333,462,338,30,-138,-134
-69,-94,-24,76,-25,-62,345,480,356,42,-132,-128
-69,-100,-30,82,-19,-68,351,498,368,48,-126,-128
-75,-106,-30,88,-25,-68,357,510,386,54,-126,-128
-75,-106,-30,88,-25,-68,357,522,392,60,-120,-134
-69,-100,-30,82,-19,-68,363,528,398,60,-114,-134
-63,-88,-24,76,-19,-56,363,534,410,66,-108,-134
-57,-82,-24,64,-19,-56,369,540,410,78,-102,-128
-45,-82,-36,58,-8,-62,375,552,422,84,-102,-122
-39,-88,-48,64,3,-68,381,558,434,84,-96,-116
-39,-88,-48,64,3,-68,375,558,440,84,-96,-116
-33,-82,-48,52,3,-68,375,558,440,84,-96,-116
-27,-76,-48,52,9,-62,375,558,440,84,-96,-116
-27,-70,-42,46,3,-56,369,564,446,84,-96,-116
-21,-58,-36,34,3,-50,369,564,440,84,-90,-110
-16,-52,-36,34,9,-44,363,552,434,84,-90,-104
-11,-46,-36,28,9,-38,351,546,434,78,-90,-98
-5,-40,-36,22,15,-38,339,540,428,78,-90,-86
-5,-34,-30,17,9,-32,333,528,422,78,-78,-74
1,-28,-30,17,15,-26,333,522,422,84,-66,-62
1,-28,-30,17,15,-26,327,510,416,84,-60,-50
7,-22,-30,6,15,-26,315,498,410,84,-60,-38
13,-22,-36,6,21,-26,309,480,398,78,-60,-26
13,-28,-42,12,27,-32,297,462,386,72,-54,-20
13,-34,-48,12,27,-38,285,444,368,66,-54,-20
19,-34,-54,6,33,-44,273,420,350,54,-60,-20
19,-34,-54,6,33,-44,261,402,332,54,-60,-20
25,-34,-60,6,39,-44,243,384,320,48,-60,-20
25,-28,-54,6,39,-38,231,360,296,36,-66,-20
19,-22,-42,0,27,-32,219,342,278,24,-72,-20
13,-17,-30,6,21,-20,201,318,254,6,-84,-26
7,-22,-30,6,15,-26,189,294,236,0,-90,-20
7,-28,-36,12,21,-32,183,276,224,0,-84,-20
1,-28,-30,17,15,-26,171,258,212,-6,-78,-20
1,-28,-30,17,15,-26,159,234,194,-6,-78,-20
1,-28,-30,17,15,-26,141,210,182,-11,-78,-26
-11,-28,-18,22,3,-20,129,192,158,-16,-78,-26
-11,-28,-18,22,3,-20,117,168,140,-22,-84,-26
-16,-28,-12,22,-3,-20,105,150,116,-34,-84,-26
-16,-28,-12,22,-3,-20,99,132,98,-40,-90,-20
-16,-28,-12,22,-3,-20,93,120,80,-52,-96,-20
-21,-28,-6,22,-8,-20,81,102,62,-64,-102,-32
-21,-28,-6,22,-8,-20,75,84,50,-76,-108,-38
-21,-28,-6,22,-8,-20,69,66,32,-82,-114,-38
-21,-34,-12,22,-8,-26,63,54,20,-88,-120,-44
-21,-40,-18,28,-3,-32,57,42,8,-94,-126,-38
-21,-40,-18,28,-3,-32,51,30,-10,-94,-132,-38
-21,-34,-12,22,-8,-26,33,6,-32,-106,-138,-44
-27,-34,-6,28,-13,-20,27,0,-44,-112,-138,-44
-27,-40,-12,34,-8,-26,21,-6,-50,-118,-144,-50
-33,-40,-6,34,-13,-26,21,-12,-50,-124,-150,-56
-39,-52,-12,46,-13,-32,21,-17,-56,-130,-156,-56
-45,-52,-6,46,-19,-32,21,-17,-62,-130,-156,-56
-45,-52,-6,46,-19,-32,15,-28,-68,-130,-156,-50
-45,-52,-6,46,-19,-32,9,-34,-74,-130,-156,-50
-45,-46,-1,40,-25,-26,15,-34,-74,-130,-144,-44
-45,-46,-1,40,-25,-26,15,-34,-80,-130,-144,-38
-45,-46,-1,40,-25,-26,15,-34,-86,-136,-144,-38
-39,-46,-6,40,-19,-26,9,-34,-86,-136,-144,-32
-33,-40,-6,34,-13,-26,9,-34,-86,-130,-144,-32
-45,-46,-1,40,-25,-26,9,-34,-92,-124,-150,-32
-51,-46,4,46,-31,-20,9,-40,-92,-124,-156,-38
-57,-40,16,46,-37,-14,3,-40,-98,-130,-156,-50
-51,-22,28,34,-43,2,3,-40,-98,-130,-156,-56
-51,-17,34,34,-43,8,3,-40,-92,-130,-156,-56
-51,-17,34,34,-43,8,3,-34,-86,-130,-156,-56
-45,-12,34,28,-37,8,-3,-34,-86,-130,-162,-62
-45,-12,34,28,-37,8,-3,-28,-92,-130,-162,-68
-45,-17,28,28,-37,2,-3,-28,-92,-124,-162,-68
-45,-17,28,28,-37,2,3,-17,-86,-118,-162,-74
-45,-17,28,28,-37,2,9,-17,-86,-112,-162,-68
-51,-22,28,34,-43,2,15,-17,-80,-112,-168,-62
-51,-17,34,34,-43,8,15,-17,-80,-112,-168,-56
-51,-12,40,34,-43,14,15,-12,-80,-112,-168,-50
-57,-17,40,34,-49,8,27,-6,-74,-112,-168,-50
-57,-28,28,40,-43,-4,33,0,-68,-106,-162,-44
-57,-28,28,40,-43,-4,33,0,-62,-106,-156,-38
-57,-28,28,40,-43,-4,33,0,-62,-106,-150,-38
-57,-28,28,40,-43,-4,33,0,-62,-100,-144,-32
-57,-28,28,40,-43,-4,39,6,-50,-94,-138,-32
-57,-28,28,40,-43,-4,39,12,-50,-88,-132,-32
-57,-22,34,34,-49,2,33,6,-44,-82,-126,-26
-51,-17,34,34,-43,8,27,6,-44,-82,-120,-26
-51,-22,28,34,-43,2,27,6,-38,-82,-120,-26
-51,-22,28,34,-43,2,33,6,-32,-76,-120,-26
-51,-22,28,34,-43,2,39,12,-26,-64,-114,-20
-45,-22,22,28,-37,-4,45,18,-20,-64,-114,-20
-45,-22,22,28,-37,-4,45,18,-20,-64,-120,-26
-45,-28,16,34,-31,-9,45,30,-20,-64,-120,-26
-51,-28,22,40,-37,-4,45,24,-26,-76,-126,-38
-57,-22,34,34,-49,2,45,24,-32,-82,-132,-50
-51,-22,28,34,-43,2,45,24,-26,-82,-132,-50
-57,-22,34,34,-49,2,51,24,-32,-82,-126,-50
-51,-17,34,34,-43,8,51,18,-32,-82,-126,-50
-51,-12,40,34,-43,14,45,12,-38,-82,-132,-56
-51,-6,46,28,-49,20,39,6,-38,-76,-132,-56
-51,-6,46,28,-49,20,39,12,-32,-70,-132,-56
-45,-12,34,28,-37,8,33,12,-26,-70,-126,-44
-45,-17,28,28,-37,2,33,12,-26,-70,-126,-44
-45,-22,22,28,-37,-4,33,18,-26,-70,-126,-44
-45,-28,16,34,-31,-9,27,12,-26,-70,-126,-44
-45,-22,22,28,-37,-4,21,6,-32,-70,-126,-50
-57,-28,28,40,-43,-4,15,6,-38,-82,-132,-56
-57,-28,28,40,-43,-4,15,6,-38,-82,-126,-56
-51,-28,22,40,-37,-4,21,12,-38,-82,-126,-56
-51,-22,28,34,-43,2,27,6,-50,-88,-132,-56
-51,-22,28,34,-43,2,27,-6,-56,-94,-132,-62
-45,-17,28,28,-37,2,27,-6,-62,-100,-144,-62
-45,-22,22,28,-37,-4,27,-6,-62,-106,-150,-68
-51,-28,22,40,-37,-4,27,-6,-68,-112,-156,-68
-57,-34,22,40,-43,-9,21,-6,-68,-112,-150,-68
-57,-40,16,46,-37,-14,21,-6,-68,-106,-144,-68
-57,-46,10,46,-37,-20,15,-6,-62,-106,-144,-62
-57,-46,10,46,-37,-20,15,-6,-68,-100,-144,-56
-51,-46,4,46,-31,-20,21,-6,-74,-106,-138,-56
-51,-34,16,40,-37,-9,21,-6,-74,-106,-132,-50
-51,-34,16,40,-37,-9,15,-6,-80,-106,-132,-56
-51,-34,16,40,-37,-9,9,-12,-86,-106,-138,-62
-51,-46,4,46,-31,-20,9,-17,-92,-112,-144,-68
-57,-46,10,46,-37,-20,9,-17,-98,-118,-150,-74
-51,-34,16,40,-37,-9,3,-17,-98,-118,-150,-74
-51,-28,22,40,-37,-4,-3,-22,-104,-124,-156,-80
-51,-22,28,34,-43,2,-9,-28,-104,-130,-156,-80
-57,-22,34,34,-49,2,-9,-34,-116,-142,-168,-92
-57,-22,34,34,-49,2,-14,-40,-122,-142,-174,-92
-57,-22,34,34,-49,2,-3,-40,-122,-148,-180,-98
-63,-28,34,46,-49,2,-3,-40,-128,-154,-180,-104
-63,-28,34,46,-49,2,-3,-34,-122,-154,-174,-104
-63,-28,34,46,-49,2,-3,-28,-122,-154,-174,-98
-63,-34,28,46,-49,-4,-9,-28,-128,-154,-174,-104
-63,-34,28,46,-49,-4,-9,-28,-134,-154,-180,-110
-63,-34,28,46,-49,-4,-9,-28,-134,-160,-180,-110
-63,-34,28,46,-49,-4,-9,-22,-140,-154,-186,-110
-63,-46,16,52,-43,-14,-3,-22,-134,-154,-186,-104
-69,-52,16,58,-43,-20,-3,-22,-140,-154,-186,-104
-69,-46,22,52,-49,-14,-3,-22,-134,-154,-186,-98
-63,-40,22,52,-43,-9,3,-17,-122,-148,-174,-92
-57,-34,22,40,-43,-9,9,-17,-110,-142,-168,-80
-51,-22,28,34,-43,2,9,-22,-110,-136,-156,-74
-51,-22,28,34,-43,2,3,-22,-110,-130,-144,-62
-57,-17,40,34,-49,8,3,-28,-104,-124,-132,-56
-57,-17,40,34,-49,8,3,-28,-104,-118,-132,-44
-57,-6,52,28,-55,20,9,-22,-110,-118,-132,-44
-57,0,58,28,-55,26,9,-22,-110,-118,-138,-50
-63,12,76,28,-67,44,3,-17,-104,-118,-138,-50
-63,18,82,22,-73,50,-3,-22,-104,-118,-138,-50
-57,24,82,17,-67,50,-3,-17,-104,-118,-138,-56
-51,24,76,17,-61,50,3,-17,-104,-118,-144,-56
-45,36,82,6,-61,56,3,-22,-104,-118,-150,-62
-45,42,88,0,-67,62,3,-22,-98,-124,-156,-68
-45,36,82,6,-61,56,3,-22,-104,-130,-162,-86
-45,42,88,0,-67,62,3,-22,-104,-130,-162,-86
-45,42,88,0,-67,62,-3,-17,-104,-130,-162,-92
-39,48,88,0,-61,68,-3,-17,-98,-130,-162,-86
-45,54,100,-6,-73,74,3,-12,-98,-130,-162,-86
-45,54,100,-6,-73,74,3,-6,-92,-130,-156,-86
-39,66,106,-12,-73,86,3,-6,-80,-118,-144,-74
-33,78,112,-24,-73,92,-3,-12,-80,-112,-138,-62
-21,90,112,-36,-67,98,-9,-17,-74,-100,-126,-56
-16,96,112,-36,-61,104,-14,-17,-74,-100,-126,-50
-16,90,106,-36,-61,98,-14,-17,-74,-94,-126,-44
-11,78,88,-30,-49,86,-19,-17,-74,-100,-120,-38
-5,72,76,-30,-37,74,-25,-22,-74,-94,-120,-32
-5,66,70,-30,-37,68,-37,-28,-68,-94,-114,-26
7,66,58,-36,-25,62,-55,-28,-74,-100,-120,-26
19,54,34,-36,-8,44,-67,-34,-74,-100,-120,-32
19,42,22,-30,-3,32,-79,-40,-80,-106,-126,-38
25,30,4,-24,9,20,-79,-40,-86,-112,-126,-44
37,18,-18,-24,27,2,-79,-40,-80,-112,-120,-44
37,0,-36,-12,39,-14,-79,-40,-86,-112,-120,-38
31,-17,-48,-6,39,-32,-79,-46,-92,-118,-120,-38
25,-22,-48,0,33,-32,-85,-52,-104,-130,-132,-44
19,-28,-48,6,33,-38,-91,-58,-116,-142,-144,-50
13,-28,-42,12,27,-32,-85,-64,-122,-154,-156,-56
1,-22,-24,12,9,-20,-85,-58,-122,-154,-150,-62
1,-17,-18,12,9,-14,-73,-52,-122,-148,-150,-68
-5,-17,-12,12,3,-14,-67,-52,-122,-148,-156,-68
-11,-22,-12,17,-3,-14,-67,-52,-128,-148,-162,-74
-16,-22,-6,17,-8,-14,-73,-64,-140,-160,-168,-80
-21,-28,-6,22,-8,-20,-67,-70,-152,-160,-174,-92
-33,-40,-6,34,-13,-26,-67,-70,-164,-166,-180,-104
-45,-52,-6,46,-19,-32,-73,-76,-164,-178,-186,-110
-57,-64,-6,58,-25,-38,-73,-70,-164,-184,-192,-122
-69,-76,-6,70,-31,-44,-73,-70,-164,-190,-198,-128
-75,-88,-12,82,-31,-50,-79,-76,-164,-196,-204,-134
-81,-94,-12,82,-37,-56,-79,-70,-170,-202,-210,-140
-87,-94,-6,88,-43,-50,-73,-70,-170,-202,-216,-146
-81,-94,-12,82,-37,-56,-73,-70,-176,-202,-216,-152
-81,-94,-12,82,-37,-56,-67,-64,-182,-202,-216,-158
-81,-94,-12,82,-37,-56,-67,-64,-188,-202,-222,-164
-81,-94,-12,82,-37,-56,-61,-58,-182,-202,-222,-164
-81,-94,-12,82,-37,-56,-61,-64,-182,-202,-228,-164
-81,-88,-6,82,-37,-50,-73,-64,-170,-202,-222,-158
-75,-82,-6,76,-37,-44,-73,-58,-158,-196,-210,-146
-63,-88,-24,76,-19,-56,-73,-52,-146,-184,-198,-134
-57,-88,-30,70,-13,-62,-79,-40,-134,-172,-180,-122
-45,-88,-42,64,-3,-68,-79,-28,-116,-154,-162,-110
-39,-82,-42,58,-3,-62,-79,-17,-98,-136,-144,-98
-27,-70,-42,46,3,-56,-79,-6,-86,-112,-120,-80
-11,-52,-42,34,15,-44,-91,0,-68,-94,-96,-62
1,-52,-54,28,27,-50,-97,12,-50,-70,-78,-44
25,-46,-72,12,45,-56,-115,18,-32,-46,-54,-20
55,-40,-96,-6,75,-68,-139,18,-10,-16,-30,-4
85,-28,-114,-24,99,-68,-169,12,14,6,-8,8
121,-17,-138,-48,129,-74,-199,6,38,36,22,26
157,-12,-168,-66,165,-86,-229,0,68,72,58,50
193,0,-192,-90,195,-92,-265,0,110,114,106,80
247,12,-234,-126,243,-110,-295,18,176,180,160,116
301,24,-276,-156,291,-122,-301,72,278,276,244,170
373,42,-330,-204,351,-140,-295,168,440,408,358,242
445,72,-372,-252,411,-146,-277,288,620,570,490,320
529,114,-414,-318,471,-146,-235,426,830,768,652,422
607,180,-426,-390,519,-122,-211,516,1016,960,820,542
679,258,-420,-468,549,-80,-199,564,1178,1152,1012,680
775,354,-420,-564,597,-32,-223,552,1322,1374,1240,860
877,468,-408,-666,645,32,-295,456,1424,1590,1486,1064
997,588,-408,-786,705,92,-421,276,1484,1794,1750,1286
1123,732,-390,-924,759,170,-595,18,1496,2004,2020,1520
1249,888,-360,-1062,807,266,-829,-298,1472,2208,2296,1772
1345,1044,-300,-1188,825,374,-1093,-646,1418,2394,2565,2024
1399,1176,-222,-1284,813,476,-1351,-994,1328,2519,2763,2234
1423,1248,-174,-1332,801,536,-1555,-1282,1178,2507,2829,2348
1405,1278,-126,-1338,765,578,-1693,-1510,962,2388,2769,2366
1327,1248,-78,-1284,705,584,-1735,-1648,722,2184,2619,2306
1195,1200,4,-1194,597,602,-1729,-1720,458,1914,2374,2162
1033,1146,112,-1086,459,632,-1711,-1774,164,1584,2056,1958
859,1062,202,-960,327,632,-1669,-1780,-134,1188,1654,1694
673,942,268,-804,201,608,-1591,-1768,-470,696,1156,1352
457,798,340,-624,57,572,-1477,-1726,-824,162,610,956
277,654,376,-462,-49,518,-1351,-1660,-1058,-256,154,602
139,528,388,-330,-121,458,-1225,-1552,-1154,-508,-138,332
43,420,376,-228,-163,398,-1105,-1414,-1148,-616,-312,152
-16,324,340,-150,-175,332,-979,-1258,-1082,-646,-390,38
-45,246,292,-102,-169,266,-853,-1078,-992,-646,-432,-38
-63,186,250,-60,-157,218,-727,-892,-896,-616,-438,-92
-81,132,214,-24,-145,170,-589,-706,-788,-568,-432,-128
-93,72,166,12,-127,116,-457,-532,-668,-502,-414,-152
-105,18,124,40,-115,68,-337,-382,-542,-436,-396,-170
-111,-17,94,64,-103,38,-253,-280,-440,-388,-372,-182
-123,-46,76,82,-103,14,-199,-220,-368,-352,-354,-200
-129,-70,58,94,-97,-9,-163,-172,-308,-328,-342,-218
-129,-88,40,106,-85,-26,-139,-136,-272,-310,-336,-230
-135,-106,28,118,-85,-38,-115,-112,-254,-304,-330,-242
-141,-124,16,130,-79,-56,-103,-88,-248,-298,-324,-248
-147,-124,22,136,-85,-50,-91,-64,-242,-298,-318,-248
-141,-124,16,130,-79,-56,-79,-40,-236,-298,-318,-248
-147,-124,22,136,-85,-50,-61,-17,-224,-292,-318,-248
-147,-124,22,136,-85,-50,-43,0,-206,-292,-312,-254
-153,-136,16,142,-85,-62,-25,12,-188,-286,-318,-254
-153,-148,4,148,-79,-74,-19,18,-182,-286,-324,-260
-147,-154,-6,148,-73,-80,-19,24,-170,-280,-324,-260
-141,-166,-24,148,-61,-98,-14,30,-164,-286,-324,-266
-147,-166,-18,154,-67,-92,-14,30,-158,-292,-324,-272
-147,-166,-18,154,-67,-92,-14,36,-152,-286,-318,-278
-147,-166,-18,154,-67,-92,-9,48,-152,-286,-312,-278
-153,-160,-6,154,-73,-86,-9,54,-146,-280,-312,-278
-147,-154,-6,148,-73,-80,-3,60,-146,-268,-306,-278
-147,-154,-6,148,-73,-80,3,66,-140,-262,-306,-272
-141,-154,-12,142,-67,-86,3,72,-140,-256,-300,-266
-141,-154,-12,142,-67,-86,3,72,-140,-250,-294,-254
-141,-154,-12,142,-67,-86,-3,72,-134,-244,-282,-248
-135,-154,-18,142,-61,-86,-3,78,-128,-244,-282,-242
-135,-160,-24,148,-55,-92,-3,78,-122,-238,-276,-242
-135,-154,-18,142,-61,-86,-3,84,-122,-232,-276,-242
-141,-154,-12,142,-67,-86,-3,84,-116,-232,-276,-242
-141,-148,-6,142,-67,-80,-3,90,-116,-226,-270,-242
-141,-148,-6,142,-67,-80,3,90,-110,-226,-270,-236
-135,-148,-12,142,-61,-80,3,90,-104,-220,-264,-236
-135,-148,-12,142,-61,-80,3,90,-104,-220,-264,-230
-129,-148,-18,136,-55,-86,3,96,-98,-214,-252,-230
-123,-148,-24,136,-49,-86,3,96,-98,-214,-252,-236
-123,-148,-24,136,-49,-86,3,96,-98,-214,-252,-242
-123,-142,-18,130,-55,-80,3,96,-92,-214,-258,-242
-129,-142,-12,130,-61,-80,3,96,-86,-214,-258,-248
-129,-142,-12,130,-61,-80,3,102,-80,-208,-252,-248
-129,-142,-12,130,-61,-80,3,102,-80,-208,-252,-248
-129,-142,-12,130,-61,-80,-9,102,-80,-202,-246,-242
-129,-142,-12,130,-61,-80,-9,102,-74,-202,-240,-242
-123,-142,-18,130,-55,-80,-9,102,-68,-196,-240,-236
-111,-130,-18,118,-49,-74,-9,108,-62,-196,-234,-236
-105,-118,-12,106,-49,-68,-9,114,-62,-196,-234,-236
-99,-118,-18,106,-43,-68,-9,126,-50,-190,-228,-236
-99,-118,-18,106,-43,-68,-3,132,-38,-184,-228,-236
-105,-124,-18,112,-43,-74,3,144,-26,-178,-228,-242
-105,-124,-18,112,-43,-74,9,150,-15,-172,-222,-242
-105,-130,-24,112,-43,-80,9,156,-10,-166,-222,-236
-111,-130,-18,118,-49,-74,15,162,-4,-166,-222,-236
-111,-130,-18,118,-49,-74,15,168,14,-160,-216,-230
-111,-130,-18,118,-49,-74,27,186,32,-148,-210,-224
-105,-124,-18,112,-43,-74,33,204,50,-136,-198,-218
-99,-118,-18,106,-43,-68,33,216,62,-130,-192,-212
-99,-106,-6,100,-49,-56,39,222,68,-124,-186,-212
-105,-106,-1,100,-55,-56,45,234,80,-118,-180,-212
-105,-100,4,100,-55,-50,51,240,92,-106,-174,-206
-99,-100,-1,100,-49,-50,57,252,110,-94,-168,-206
-81,-100,-18,88,-31,-62,69,276,128,-82,-162,-200
-69,-94,-24,76,-25,-62,81,288,146,-76,-156,-200
-63,-88,-24,76,-19,-56,81,306,164,-58,-144,-194
-57,-88,-30,70,-13,-62,87,318,182,-46,-138,-182
-63,-88,-24,76,-19,-56,99,336,200,-34,-126,-182
-63,-94,-30,76,-19,-62,105,354,224,-16,-114,-182
-63,-94,-30,76,-19,-62,111,378,242,-11,-114,-188
-63,-94,-30,76,-19,-62,123,396,260,0,-102,-182
-57,-94,-36,70,-13,-68,129,408,278,12,-96,-182
-51,-88,-36,70,-8,-62,141,426,296,30,-84,-176
-45,-82,-36,58,-8,-62,153,438,308,42,-78,-176
-39,-82,-42,58,-3,-62,159,450,326,48,-72,-170
-39,-82,-42,58,-3,-62,159,456,338,54,-66,-164
-39,-76,-36,58,-3,-56,165,468,350,60,-60,-158
-33,-76,-42,52,3,-62,165,474,362,66,-60,-158
-33,-76,-42,52,3,-62,177,486,380,72,-48,-152
-27,-82,-54,52,9,-68,183,498,392,84,-42,-152
-27,-82,-54,52,9,-68,183,504,392,84,-42,-152
-27,-82,-54,52,9,-68,189,504,398,90,-30,-146
-27,-88,-60,58,15,-74,195,510,404,96,-24,-134
-21,-88,-66,52,21,-80,201,516,410,108,-24,-134
-21,-76,-54,46,15,-68,201,516,410,108,-18,-128
-16,-70,-54,40,15,-62,201,522,416,108,-18,-128
-16,-76,-60,46,21,-68,195,522,416,114,-13,-122
-11,-70,-60,40,21,-62,195,516,416,120,-8,-122
-11,-64,-54,40,21,-56,189,510,416,114,-8,-116
-11,-64,-54,40,21,-56,177,498,404,108,-8,-110
-5,-58,-54,28,21,-56,159,486,392,108,-8,-110
1,-52,-54,28,27,-50,159,480,386,102,-2,-104
13,-52,-66,22,39,-56,153,468,374,96,-8,-98
13,-46,-60,17,33,-50,147,456,374,96,-2,-86
13,-46,-60,17,33,-50,135,438,362,90,-2,-80
13,-40,-54,17,33,-44,129,426,344,84,-8,-80
7,-34,-42,12,21,-38,117,402,326,78,-13,-74
7,-34,-42,12,21,-38,105,384,308,72,-13,-68
7,-28,-36,12,21,-32,93,360,296,66,-13,-62
7,-22,-30,6,15,-26,81,342,278,54,-13,-50
13,-12,-24,6,21,-14,69,324,266,48,-13,-44
7,-17,-24,6,15,-20,57,306,248,36,-13,-38
7,-22,-30,6,15,-26,45,288,230,24,-13,-38
7,-22,-30,6,15,-26,33,270,212,18,-18,-38
13,-28,-42,12,27,-32,27,246,194,12,-24,-44
13,-28,-42,12,27,-32,15,234,170,12,-24,-44
13,-22,-36,6,21,-26,9,216,152,0,-24,-44
13,-22,-36,6,21,-26,3,198,128,-6,-30,-50
1,-28,-30,17,15,-26,-3,180,110,-11,-36,-50
-11,-28,-18,22,3,-20,-9,168,98,-16,-36,-56
-16,-34,-18,22,-3,-26,-14,150,80,-28,-42,-56
-21,-40,-18,28,-3,-32,-19,126,62,-40,-48,-56
-16,-40,-24,28,3,-32,-25,114,56,-46,-48,-50
-21,-46,-24,28,-3,-38,-31,96,38,-52,-54,-50
-27,-46,-18,34,-8,-32,-37,84,26,-64,-54,-50
-33,-46,-12,34,-13,-32,-43,72,14,-70,-60,-50
-33,-46,-12,34,-13,-32,-49,54,2,-76,-66,-50
-39,-52,-12,46,-13,-32,-55,48,-4,-82,-72,-56
-39,-58,-18,46,-13,-38,-55,42,-10,-88,-72,-56
-39,-58,-18,46,-13,-38,-67,36,-15,-88,-78,-62
-45,-64,-18,52,-13,-44,-67,30,-32,-94,-84,-68
-51,-58,-6,52,-25,-32,-67,18,-44,-100,-90,-74
-57,-52,4,52,-31,-26,-73,12,-56,-106,-96,-86
-51,-58,-6,52,-25,-32,-73,0,-62,-112,-102,-92
-57,-64,-6,58,-25,-38,-67,0,-68,-112,-102,-92
-63,-70,-6,64,-31,-38,-67,-6,-74,-118,-108,-98
-63,-70,-6,64,-31,-38,-67,-6,-74,-124,-108,-98
-63,-70,-6,64,-31,-38,-79,-12,-80,-130,-114,-98
-69,-70,-1,64,-37,-38,-79,-17,-92,-136,-114,-104
-69,-76,-6,70,-31,-44,-85,-17,-92,-136,-114,-104
-69,-76,-6,70,-31,-44,-85,-17,-92,-136,-120,-104
-69,-76,-6,70,-31,-44,-85,-17,-92,-130,-114,-104
-69,-82,-12,70,-31,-50,-85,-17,-92,-136,-114,-104
-63,-88,-24,76,-19,-56,-85,-17,-98,-136,-114,-104
-63,-94,-30,76,-19,-62,-79,-22,-92,-136,-114,-98
-63,-88,-24,76,-19,-56,-79,-22,-92,-136,-114,-98
-63,-88,-24,76,-19,-56,-79,-22,-92,-130,-120,-98
-69,-88,-18,76,-25,-56,-73,-22,-98,-130,-120,-98
-75,-88,-12,82,-31,-50,-61,-17,-92,-124,-120,-98
-75,-88,-12,82,-31,-50,-55,-12,-92,-118,-108,-92
-75,-88,-12,82,-31,-50,-55,-6,-86,-112,-102,-92
-69,-82,-12,70,-31,-50,-55,0,-86,-112,-96,-86
-75,-82,-6,76,-37,-44,-61,0,-80,-106,-96,-80
-75,-88,-12,82,-31,-50,-61,0,-74,-100,-96,-74
-75,-82,-6,76,-37,-44,-61,-6,-74,-94,-96,-68
-69,-82,-12,70,-31,-50,-61,0,-68,-94,-96,-62
-69,-76,-6,70,-31,-44,-61,-6,-68,-94,-90,-62
-69,-76,-6,70,-31,-44,-55,0,-68,-94,-90,-62
-69,-76,-6,70,-31,-44,-55,0,-62,-94,-90,-68
-75,-76,-1,76,-37,-38,-49,6,-56,-88,-90,-68
-63,-70,-6,64,-31,-38,-43,6,-50,-76,-84,-62
-57,-64,-6,58,-25,-38,-37,12,-44,-70,-78,-62
-57,-58,-1,52,-31,-32,-31,12,-38,-64,-78,-62
-57,-58,-1,52,-31,-32,-25,12,-44,-64,-72,-62
-51,-58,-6,52,-25,-32,-25,12,-38,-58,-66,-56
-51,-64,-12,58,-19,-38,-19,18,-26,-52,-60,-56
-51,-64,-12,58,-19,-38,-19,18,-20,-46,-54,-56
-51,-58,-6,52,-25,-32,-19,24,-20,-46,-54,-56
-51,-58,-6,52,-25,-32,-25,18,-20,-46,-54,-62
-51,-58,-6,52,-25,-32,-25,18,-15,-46,-54,-62
-45,-52,-6,46,-19,-32,-25,18,-15,-46,-54,-68
-57,-52,4,52,-31,-26,-25,24,-10,-40,-54,-68
-63,-52,10,58,-37,-20,-31,24,-10,-46,-54,-68
-57,-46,10,46,-37,-20,-31,24,-15,-40,-54,-62
-57,-40,16,46,-37,-14,-31,24,-15,-40,-48,-56
-57,-46,10,46,-37,-20,-25,24,-15,-34,-42,-56
-57,-58,-1,52,-31,-32,-25,24,-15,-34,-42,-56
-63,-70,-6,64,-31,-38,-25,24,-10,-40,-48,-56
-69,-70,-1,64,-37,-38,-19,24,-10,-40,-42,-50
-69,-64,4,64,-37,-32,-14,24,-10,-40,-48,-50
-69,-58,10,58,-43,-26,-14,24,-20,-46,-48,-50
-69,-52,16,58,-43,-20,-14,24,-20,-52,-54,-56
-69,-46,22,52,-49,-14,-14,18,-20,-58,-60,-56
-69,-52,16,58,-43,-20,-14,18,-26,-58,-60,-56
-63,-52,10,58,-37,-20,-14,12,-26,-58,-66,-62
-63,-52,10,58,-37,-20,-14,12,-32,-64,-72,-68
-63,-58,4,58,-37,-26,-19,6,-38,-64,-78,-68
-57,-52,4,52,-31,-26,-14,0,-38,-64,-78,-68
-57,-52,4,52,-31,-26,-14,0,-38,-70,-72,-68
-57,-52,4,52,-31,-26,-14,0,-44,-70,-72,-74
-57,-52,4,52,-31,-26,-19,0,-44,-70,-72,-74
-63,-58,4,58,-37,-26,-19,-6,-44,-76,-72,-74
-63,-64,-1,64,-31,-32,-19,0,-44,-76,-72,-68
-63,-70,-6,64,-31,-38,-19,0,-38,-76,-72,-68
-57,-64,-6,58,-25,-38,-19,0,-38,-76,-72,-68
-57,-64,-6,58,-25,-38,-19,0,-44,-82,-72,-68
-57,-64,-6,58,-25,-38,-14,-6,-50,-82,-72,-68
-51,-58,-6,52,-25,-32,-14,-12,-62,-82,-78,-74
-51,-58,-6,52,-25,-32,-14,-12,-62,-82,-84,-74
-57,-64,-6,58,-25,-38,-9,-12,-56,-82,-84,-74
-57,-70,-12,58,-25,-44,-9,-12,-62,-88,-96,-80
-63,-70,-6,64,-31,-38,-14,-12,-62,-88,-96,-86
-69,-64,4,64,-37,-32,-14,-17,-68,-94,-102,-92
-69,-64,4,64,-37,-32,-19,-22,-80,-94,-102,-98
-75,-64,10,70,-43,-26,-19,-28,-86,-94,-102,-98
-69,-64,4,64,-37,-32,-14,-28,-86,-94,-102,-98
-57,-64,-6,58,-25,-38,-14,-28,-86,-94,-102,-92
-57,-70,-12,58,-25,-44,-14,-28,-80,-100,-102,-92
-57,-76,-18,64,-19,-50,-9,-28,-80,-100,-102,-86
-57,-76,-18,64,-19,-50,-9,-28,-74,-100,-108,-86
-63,-76,-12,70,-25,-44,-9,-22,-74,-100,-102,-86
-57,-70,-12,58,-25,-44,-3,-17,-68,-94,-96,-86
-57,-64,-6,58,-25,-38,3,-17,-68,-88,-90,-86
-63,-52,10,58,-37,-20,3,-17,-68,-88,-84,-80
-69,-40,28,52,-49,-9,-3,-22,-74,-88,-84,-80
-69,-28,40,46,-55,2,-3,-22,-74,-88,-84,-80
-69,-17,52,40,-61,14,3,-22,-74,-88,-84,-80
-63,-6,58,34,-61,26,3,-28,-74,-88,-78,-74
-57,6,64,22,-61,32,9,-28,-74,-88,-84,-74
-57,12,70,22,-61,38,9,-34,-74,-94,-84,-74
-57,12,70,22,-61,38,9,-34,-68,-94,-84,-68
-57,12,70,22,-61,38,9,-28,-68,-88,-84,-68
-57,12,70,22,-61,38,9,-28,-62,-88,-84,-68
-57,18,76,17,-67,44,9,-22,-56,-88,-84,-68
-57,18,76,17,-67,44,15,-22,-56,-88,-78,-68
-57,18,76,17,-67,44,21,-22,-62,-82,-78,-68
-57,18,76,17,-67,44,21,-17,-68,-82,-78,-62
-57,18,76,17,-67,44,21,-17,-68,-82,-78,-62
-51,24,76,17,-61,50,21,-17,-68,-82,-78,-62
-51,12,64,22,-55,38,27,-17,-62,-88,-78,-68
-45,24,70,12,-55,44,33,-12,-56,-82,-72,-68
-39,42,82,0,-61,62,39,-17,-50,-76,-66,-62
-33,54,88,-12,-61,68,33,-17,-50,-70,-60,-56
-27,66,94,-18,-61,80,21,-22,-50,-70,-60,-50
-21,78,100,-30,-61,86,21,-28,-44,-64,-60,-50
-16,78,94,-30,-55,86,15,-28,-44,-58,-54,-50
-16,72,88,-24,-49,80,9,-28,-44,-58,-54,-50
1,72,70,-30,-31,74,3,-34,-44,-58,-48,-44
7,60,52,-30,-19,56,-3,-34,-44,-58,-48,-44
19,48,28,-30,-3,38,-14,-46,-44,-58,-42,-38
25,36,10,-24,9,26,-14,-46,-50,-58,-42,-38
25,24,-1,-18,15,14,-19,-52,-56,-58,-42,-38
31,12,-18,-18,27,-4,-25,-52,-56,-58,-42,-38
31,6,-24,-18,27,-9,-25,-52,-62,-58,-48,-32
25,0,-24,-6,27,-9,-19,-52,-56,-64,-48,-32
25,-6,-30,-6,27,-14,-19,-52,-56,-70,-48,-32
19,-17,-36,0,27,-26,-14,-58,-62,-82,-54,-32
13,-34,-48,12,27,-38,-14,-64,-74,-94,-60,-44
7,-46,-54,17,27,-50,-9,-70,-86,-100,-66,-50
1,-46,-48,22,21,-44,-9,-70,-92,-106,-72,-50
-11,-40,-30,28,9,-32,-9,-70,-98,-106,-72,-56
-16,-34,-18,22,-3,-26,-9,-64,-98,-106,-78,-62
-16,-34,-18,22,-3,-26,-9,-64,-104,-112,-84,-68
-27,-40,-12,34,-8,-26,-9,-70,-104,-112,-90,-68
-45,-46,-1,40,-25,-26,-9,-70,-104,-118,-90,-74
-51,-52,-1,52,-25,-26,-3,-76,-110,-118,-96,-74
-57,-58,-1,52,-31,-32,9,-76,-110,-124,-102,-80
-63,-70,-6,64,-31,-38,15,-70,-116,-130,-108,-86
-69,-76,-6,70,-31,-44,21,-70,-122,-136,-114,-98
-69,-76,-6,70,-31,-44,27,-70,-134,-142,-120,-110
-75,-88,-12,82,-31,-50,27,-70,-134,-142,-126,-116
-75,-88,-12,82,-31,-50,27,-70,-140,-148,-138,-116
-75,-94,-18,82,-31,-56,21,-70,-140,-148,-138,-116
-81,-100,-18,88,-31,-62,21,-76,-140,-154,-144,-116
-87,-100,-12,94,-37,-56,21,-70,-140,-154,-144,-116
-81,-94,-12,82,-37,-56,21,-70,-134,-148,-138,-116
-81,-88,-6,82,-37,-50,21,-70,-128,-148,-138,-116
-81,-88,-6,82,-37,-50,21,-70,-128,-148,-132,-116
-81,-88,-6,82,-37,-50,21,-64,-122,-136,-126,-110
-75,-88,-12,82,-31,-50,21,-58,-116,-124,-114,-104
-69,-94,-24,76,-25,-62,27,-52,-104,-112,-102,-98
-57,-88,-30,70,-13,-62,27,-46,-86,-94,-96,-86
-51,-88,-36,70,-8,-62,27,-34,-68,-88,-84,-80
-39,-82,-42,58,-3,-62,21,-28,-50,-76,-72,-74
-27,-76,-48,52,9,-62,15,-22,-32,-58,-54,-56
-11,-64,-54,40,21,-56,15,-12,-15,-28,-30,-38
13,-58,-72,22,39,-62,3,0,14,-6,-2,-20
43,-58,-102,6,69,-80,-9,6,38,24,28,8
67,-64,-132,0,99,-98,-19,12,62,54,58,26
91,-52,-144,-18,117,-98,-49,12,86,84,88,50
133,-34,-168,-48,147,-98,-85,6,116,114,124,74
175,-12,-186,-78,183,-98,-121,6,158,162,172,116
223,6,-216,-114,219,-104,-151,30,224,234,238,158
277,24,-252,-144,267,-110,-163,90,344,336,328,218
349,48,-300,-192,327,-122,-151,198,500,486,448,290
421,66,-354,-240,387,-140,-115,318,686,648,586,368
493,108,-384,-294,441,-134,-73,450,890,834,736,464
559,162,-396,-360,477,-116,-37,540,1076,1026,904,578
631,234,-396,-432,513,-80,-19,588,1256,1230,1090,710
715,324,-390,-516,555,-32,-31,582,1412,1452,1318,890
823,438,-384,-630,603,26,-103,498,1520,1680,1570,1094
937,564,-372,-744,657,98,-223,330,1592,1902,1834,1322
1057,708,-348,-876,705,182,-397,96,1616,2124,2116,1562
1177,870,-306,-1020,741,284,-619,-202,1604,2340,2404,1820
1279,1038,-240,-1158,759,398,-889,-556,1562,2537,2685,2078
1345,1188,-156,-1260,753,518,-1147,-904,1478,2681,2907,2300
1381,1272,-108,-1320,747,584,-1363,-1204,1328,2699,3003,2437
1375,1296,-78,-1332,729,608,-1507,-1438,1124,2597,2967,2479
1321,1272,-48,-1290,687,614,-1561,-1582,896,2406,2829,2431
1219,1224,4,-1218,609,614,-1573,-1660,632,2142,2595,2306
1069,1170,100,-1116,483,638,-1567,-1720,326,1806,2278,2114
907,1092,184,-996,363,638,-1537,-1744,14,1404,1876,1850
733,972,238,-846,249,608,-1465,-1744,-326,900,1384,1520
529,828,298,-672,117,566,-1369,-1726,-692,342,832,1136
343,678,334,-510,3,506,-1243,-1672,-962,-112,352,770
193,546,352,-366,-79,452,-1117,-1576,-1076,-394,28,470
91,444,352,-264,-127,398,-985,-1438,-1082,-526,-156,266
25,360,334,-186,-151,350,-853,-1276,-1034,-568,-258,128
-11,276,286,-126,-145,284,-721,-1090,-950,-574,-312,32
-39,198,238,-78,-139,218,-583,-904,-848,-550,-342,-26
-57,126,184,-36,-121,152,-439,-712,-740,-514,-354,-68
-75,72,148,6,-109,110,-307,-544,-626,-472,-348,-104
-87,18,106,34,-97,62,-193,-412,-518,-424,-336,-134
-99,-17,82,58,-91,32,-103,-316,-416,-370,-318,-158
-111,-52,58,82,-85,2,-37,-244,-338,-328,-300,-176
-117,-88,28,100,-73,-32,-3,-196,-272,-304,-282,-188
-123,-112,10,118,-67,-50,33,-160,-236,-280,-276,-200
-129,-130,-1,124,-67,-68,57,-130,-218,-274,-270,-206
-135,-142,-6,136,-67,-74,75,-100,-212,-268,-264,-206
-141,-142,-1,136,-73,-74,93,-70,-206,-268,-258,-206
-147,-148,-1,148,-73,-74,111,-46,-200,-268,-258,-206
-153,-160,-6,154,-73,-86,129,-17,-188,-268,-264,-212
-153,-154,-1,148,-79,-80,141,-6,-170,-262,-264,-218
-159,-160,-1,160,-79,-80,153,0,-164,-268,-270,-224
-159,-160,-1,160,-79,-80,159,0,-158,-268,-270,-236
-165,-166,-1,160,-85,-86,165,0,-152,-274,-276,-242
-165,-166,-1,160,-85,-86,165,0,-140,-268,-270,-242
-165,-172,-6,166,-79,-92,171,12,-134,-262,-270,-242
-165,-178,-12,166,-79,-98,177,24,-128,-262,-270,-242
-165,-184,-18,172,-73,-104,183,30,-128,-256,-270,-242
-165,-190,-24,172,-73,-110,189,36,-128,-256,-270,-242
-165,-184,-18,172,-73,-104,189,42,-122,-256,-276,-242
-165,-184,-18,172,-73,-104,195,42,-116,-250,-270,-242
-159,-178,-18,166,-73,-98,195,48,-116,-244,-270,-242
-159,-172,-12,166,-73,-92,195,48,-110,-238,-270,-242
-159,-172,-12,166,-73,-92,201,54,-104,-232,-264,-242
-153,-178,-24,160,-67,-104,201,60,-104,-226,-258,-242
-147,-184,-36,166,-55,-110,201,72,-92,-220,-246,-236
-147,-190,-42,166,-55,-116,207,78,-92,-220,-240,-230
-141,-178,-36,154,-55,-110,207,78,-86,-220,-240,-230
-141,-172,-30,154,-55,-104,207,72,-86,-220,-240,-230
-141,-172,-30,154,-55,-104,207,72,-86,-214,-234,-224
-141,-166,-24,148,-61,-98,213,78,-74,-208,-228,-218
-141,-160,-18,148,-61,-92,213,84,-68,-202,-222,-218
-141,-160,-18,148,-61,-92,213,84,-68,-196,-222,-212
-141,-160,-18,148,-61,-92,213,84,-62,-196,-216,-206
-141,-154,-12,142,-67,-86,213,84,-62,-190,-216,-206
-135,-154,-18,142,-61,-86,213,84,-62,-196,-210,-206
-129,-154,-24,136,-55,-92,213,90,-56,-190,-210,-206
-129,-154,-24,136,-55,-92,219,90,-50,-190,-210,-212
-135,-160,-24,148,-55,-92,219,96,-44,-190,-210,-212
-135,-154,-18,142,-61,-86,219,102,-38,-190,-210,-212
-135,-154,-18,142,-61,-86,219,108,-32,-190,-210,-212
-135,-148,-12,142,-61,-80,219,108,-26,-184,-204,-212
-135,-142,-6,136,-67,-74,219,114,-15,-184,-204,-212
-129,-142,-12,130,-61,-80,219,114,-15,-178,-198,-218
-129,-136,-6,130,-61,-74,225,120,-4,-172,-198,-218
-123,-136,-12,130,-55,-74,231,126,8,-160,-186,-218
-123,-130,-6,124,-61,-68,237,138,14,-148,-186,-218
-123,-130,-6,124,-61,-68,249,156,26,-148,-180,-218
-117,-130,-12,118,-55,-74,255,168,32,-148,-180,-218
-117,-130,-12,118,-55,-74,255,174,44,-136,-186,-212
-117,-130,-12,118,-55,-74,261,186,62,-124,-174,-212
-111,-124,-12,118,-49,-68,261,198,80,-112,-168,-206
-117,-130,-12,118,-55,-74,267,204,92,-106,-162,-206
-111,-136,-24,124,-43,-80,273,222,104,-100,-162,-206
-105,-142,-36,118,-37,-92,285,234,116,-94,-156,-206
-105,-130,-24,112,-43,-80,291,252,128,-94,-150,-206
-105,-124,-18,112,-43,-74,297,264,134,-82,-144,-206
-111,-124,-12,118,-49,-68,309,276,146,-76,-144,-206
-105,-112,-6,106,-49,-62,315,294,170,-64,-138,-206
-99,-112,-12,106,-43,-62,321,312,194,-52,-138,-200
-93,-106,-12,94,-43,-62,327,330,218,-34,-126,-194
-87,-106,-18,94,-37,-62,339,348,242,-11,-114,-188
-81,-100,-18,88,-31,-62,351,366,260,0,-108,-188
-81,-100,-18,88,-31,-62,363,384,278,12,-96,-182
-75,-100,-24,88,-25,-62,369,402,296,24,-84,-176
-75,-100,-24,88,-25,-62,375,426,308,30,-72,-176
-63,-100,-36,82,-13,-68,387,444,326,36,-66,-176
-57,-100,-42,76,-8,-74,399,468,350,48,-54,-170
-51,-100,-48,76,-3,-74,411,486,374,66,-42,-164
-45,-100,-54,70,3,-80,423,498,392,84,-36,-164
-45,-100,-54,70,3,-80,429,510,410,96,-30,-158
-45,-100,-54,70,3,-80,435,516,422,108,-24,-158
-45,-94,-48,64,-3,-74,441,528,434,114,-18,-158
-39,-94,-54,64,3,-74,447,540,446,120,-13,-146
-39,-94,-54,64,3,-74,453,546,452,126,-8,-140
-39,-94,-54,64,3,-74,453,558,464,132,-2,-134
-33,-94,-60,58,9,-80,453,564,470,138,4,-128
-33,-88,-54,58,9,-74,453,570,476,144,10,-116
-27,-82,-54,52,9,-68,453,576,476,144,16,-110
-16,-82,-66,46,21,-74,453,570,476,144,16,-104
-16,-82,-66,46,21,-74,447,570,476,144,16,-98
-16,-76,-60,46,21,-68,447,570,476,144,16,-92
-11,-58,-48,34,15,-50,447,564,476,150,28,-86
-5,-52,-48,28,21,-50,441,558,470,150,34,-86
-5,-52,-48,28,21,-50,441,552,464,138,34,-86
-5,-52,-48,28,21,-50,429,540,464,132,34,-86
-5,-46,-42,22,15,-44,429,534,458,132,40,-86
1,-46,-48,22,21,-44,423,528,446,126,40,-80
7,-40,-48,17,27,-44,417,516,434,126,40,-74
13,-34,-48,12,27,-38,411,504,428,126,40,-68
19,-28,-48,6,33,-38,399,492,416,126,40,-62
19,-34,-54,6,33,-44,387,468,398,126,40,-56
13,-34,-48,12,27,-38,375,450,386,120,40,-50
13,-34,-48,12,27,-38,357,420,368,108,34,-50
13,-28,-42,12,27,-32,345,396,350,102,34,-44
19,-28,-48,6,33,-38,333,378,332,90,40,-38
19,-28,-48,6,33,-38,327,354,308,84,34,-38
25,-17,-42,0,33,-26,309,336,284,72,34,-38
19,-17,-36,0,27,-26,297,312,260,60,28,-38
13,-22,-36,6,21,-26,285,288,236,48,22,-38
7,-22,-30,6,15,-26,273,264,212,36,16,-38
7,-22,-30,6,15,-26,267,246,194,30,10,-32
7,-22,-30,6,15,-26,255,222,176,18,4,-32
1,-22,-24,12,9,-20,249,204,158,12,-2,-38
-5,-22,-18,12,3,-20,237,192,140,6,-8,-38
-11,-22,-12,17,-3,-14,231,174,122,-6,-13,-44
-16,-34,-18,22,-3,-26,225,156,104,-11,-13,-44
-21,-40,-18,28,-3,-32,213,138,86,-16,-18,-50
-21,-40,-18,28,-3,-32,207,120,62,-28,-24,-56
-16,-46,-30,28,3,-38,201,108,44,-40,-30,-56
-16,-46,-30,28,3,-38,201,96,32,-46,-36,-56
-21,-52,-30,34,3,-44,189,84,20,-58,-42,-56
-21,-40,-18,28,-3,-32,177,72,2,-70,-54,-56
-21,-34,-12,22,-8,-26,171,54,-10,-76,-60,-62
-21,-34,-12,22,-8,-26,165,42,-20,-82,-66,-62
-27,-34,-6,28,-13,-20,159,36,-26,-88,-66,-62
-33,-46,-12,34,-13,-32,153,24,-38,-94,-72,-68
-39,-52,-12,46,-13,-32,153,24,-44,-94,-66,-62
-45,-58,-12,46,-19,-38,147,12,-50,-100,-72,-68
-51,-64,-12,58,-19,-38,147,12,-62,-106,-72,-62
-57,-64,-6,58,-25,-38,141,0,-62,-106,-72,-62
-57,-64,-6,58,-25,-38,141,0,-68,-112,-78,-68
-51,-64,-12,58,-19,-38,135,-6,-68,-118,-78,-68
-45,-70,-24,52,-13,-50,129,-12,-74,-124,-84,-68
-45,-70,-24,52,-13,-50,129,-17,-80,-124,-84,-74
-45,-64,-18,52,-13,-44,129,-17,-86,-124,-90,-74
-45,-52,-6,46,-19,-32,129,-17,-92,-130,-90,-74
-45,-52,-6,46,-19,-32,123,-17,-92,-130,-96,-80
-45,-46,-1,40,-25,-26,123,-17,-92,-130,-96,-80
-45,-40,4,40,-25,-20,123,-17,-92,-130,-96,-86
-45,-40,4,40,-25,-20,123,-17,-92,-130,-96,-86
-51,-40,10,46,-31,-14,123,-17,-92,-130,-102,-86
-57,-40,16,46,-37,-14,123,-17,-92,-130,-102,-86
-63,-46,16,52,-43,-14,123,-17,-92,-130,-102,-86
-69,-46,22,52,-49,-14,123,-17,-92,-124,-102,-92
-63,-46,16,52,-43,-14,123,-6,-92,-118,-102,-86
-57,-58,-1,52,-31,-32,129,-6,-86,-112,-96,-74
-51,-58,-6,52,-25,-32,135,0,-86,-112,-96,-74
-51,-52,-1,52,-25,-26,141,0,-80,-106,-96,-74
-51,-58,-6,52,-25,-32,147,6,-74,-100,-90,-68
-57,-46,10,46,-37,-20,147,6,-74,-100,-90,-68
-51,-34,16,40,-37,-9,147,12,-74,-94,-90,-74
-51,-28,22,40,-37,-4,153,12,-68,-88,-84,-68
-51,-34,16,40,-37,-9,153,18,-68,-88,-84,-62
-57,-28,28,40,-43,-4,159,24,-62,-88,-84,-62
-57,-34,22,40,-43,-9,159,24,-68,-94,-84,-62
-57,-40,16,46,-37,-14,165,24,-62,-94,-78,-62
-57,-40,16,46,-37,-14,165,24,-62,-94,-78,-62
-57,-34,22,40,-43,-9,165,24,-56,-94,-78,-68
-51,-34,16,40,-37,-9,165,24,-56,-94,-78,-80
-51,-34,16,40,-37,-9,165,30,-50,-88,-78,-80
-51,-34,16,40,-37,-9,165,36,-44,-82,-78,-80
-51,-34,16,40,-37,-9,165,36,-44,-76,-78,-80
-51,-34,16,40,-37,-9,165,36,-44,-76,-78,-80
-57,-28,28,40,-43,-4,171,36,-44,-70,-72,-74
-63,-34,28,46,-49,-4,165,36,-44,-64,-72,-74
-63,-40,22,52,-43,-9,165,42,-38,-64,-72,-80
-63,-46,16,52,-43,-14,177,42,-32,-58,-66,-80
-63,-40,22,52,-43,-9,177,48,-26,-58,-60,-80
-63,-40,22,52,-43,-9,183,48,-32,-58,-60,-80
-63,-34,28,46,-49,-4,183,48,-32,-58,-54,-74
-51,-28,22,40,-37,-4,183,42,-32,-58,-60,-74
-51,-22,28,34,-43,2,177,42,-32,-64,-60,-68
-51,-22,28,34,-43,2,177,42,-32,-58,-54,-62
-51,-22,28,34,-43,2,177,48,-32,-64,-54,-62
-51,-28,22,40,-37,-4,177,48,-38,-64,-60,-62
-51,-28,22,40,-37,-4,177,48,-38,-64,-60,-56
-51,-34,16,40,-37,-9,177,42,-44,-64,-66,-62
-51,-34,16,40,-37,-9,177,42,-44,-70,-72,-62
-51,-28,22,40,-37,-4,177,42,-50,-70,-72,-68
-51,-28,22,40,-37,-4,183,42,-56,-70,-78,-68
-51,-28,22,40,-37,-4,183,36,-56,-70,-78,-74
-57,-34,22,40,-43,-9,177,36,-56,-76,-84,-74
-57,-34,22,40,-43,-9,177,30,-56,-76,-84,-74
-51,-40,10,46,-31,-14,177,30,-56,-82,-84,-68
-51,-34,16,40,-37,-9,177,30,-56,-82,-84,-68
-51,-34,16,40,-37,-9,171,24,-62,-82,-84,-68
-51,-34,16,40,-37,-9,165,24,-68,-88,-90,-68
-51,-40,10,46,-31,-14,165,24,-68,-88,-90,-74
-51,-40,10,46,-31,-14,165,24,-74,-88,-90,-80
-51,-40,10,46,-31,-14,159,18,-74,-88,-96,-80
-51,-34,16,40,-37,-9,159,18,-74,-88,-96,-86
-51,-34,16,40,-37,-9,153,18,-80,-94,-96,-86
-51,-40,10,46,-31,-14,153,12,-80,-88,-102,-86
-57,-40,16,46,-37,-14,153,12,-80,-94,-102,-86
-63,-40,22,52,-43,-9,153,0,-86,-100,-108,-92
-63,-46,16,52,-43,-14,147,0,-86,-106,-108,-86
-57,-46,10,46,-37,-20,147,0,-86,-112,-108,-86
-57,-46,10,46,-37,-20,147,0,-92,-112,-108,-86
-57,-46,10,46,-37,-20,147,0,-98,-112,-114,-80
-57,-46,10,46,-37,-20,147,0,-98,-112,-108,-80
-57,-46,10,46,-37,-20,147,0,-98,-112,-108,-80
-57,-46,10,46,-37,-20,147,0,-104,-118,-114,-86
-57,-46,10,46,-37,-20,147,0,-98,-118,-114,-80
-57,-52,4,52,-31,-26,153,0,-98,-118,-114,-80
-57,-46,10,46,-37,-20,153,0,-104,-124,-120,-86
-57,-46,10,46,-37,-20,153,0,-104,-124,-120,-86
-51,-40,10,46,-31,-14,159,6,-104,-124,-120,-86
-51,-40,10,46,-31,-14,165,6,-104,-124,-120,-86
-51,-34,16,40,-37,-9,165,6,-104,-118,-126,-86
-51,-28,22,40,-37,-4,165,6,-98,-118,-126,-80
-51,-22,28,34,-43,2,159,6,-98,-112,-126,-80
-51,-17,34,34,-43,8,159,0,-98,-112,-126,-80
-51,-12,40,34,-43,14,159,6,-104,-106,-126,-74
-57,0,58,28,-55,26,165,6,-104,-106,-126,-74
-57,6,64,22,-61,32,171,12,-104,-100,-120,-74
-57,18,76,17,-67,44,177,18,-104,-100,-114,-74
-51,24,76,17,-61,50,177,12,-104,-100,-114,-68
-51,30,82,12,-67,56,177,12,-104,-100,-114,-62
-51,30,82,12,-67,56,177,6,-104,-100,-114,-62
-45,36,82,6,-61,56,177,6,-104,-100,-108,-62
-45,42,88,0,-67,62,183,12,-98,-94,-102,-56
-51,42,94,6,-73,68,183,18,-92,-94,-102,-56
-45,54,100,-6,-73,74,177,18,-92,-94,-96,-56
-39,54,94,-6,-67,74,177,18,-92,-94,-96,-56
-39,54,94,-6,-67,74,177,18,-86,-88,-90,-56
-39,54,94,-6,-67,74,177,24,-86,-88,-90,-56
-39,54,94,-6,-67,74,189,30,-80,-82,-90,-50
-33,54,88,-12,-61,68,195,30,-74,-82,-84,-50
-27,60,88,-12,-55,74,189,24,-74,-76,-84,-44
-27,66,94,-18,-61,80,183,24,-74,-76,-84,-44
-21,72,94,-24,-55,80,177,18,-68,-76,-84,-38
-16,78,94,-30,-55,86,171,18,-68,-76,-84,-32
-11,78,88,-30,-49,86,159,6,-68,-76,-78,-32
-5,84,88,-36,-43,86,141,0,-62,-76,-78,-20
7,84,76,-42,-31,80,129,-12,-62,-76,-72,-15
19,78,58,-48,-19,68,117,-12,-68,-76,-72,-15
31,72,40,-48,-3,56,105,-17,-74,-76,-72,-15
37,60,22,-42,9,44,99,-22,-80,-82,-78,-20
43,54,10,-48,15,32,93,-28,-86,-88,-84,-26
43,48,4,-42,21,26,87,-28,-92,-100,-96,-26
43,36,-6,-36,27,14,87,-28,-98,-112,-102,-32
43,24,-18,-30,33,2,93,-22,-98,-112,-102,-32
43,6,-36,-24,39,-14,93,-22,-98,-118,-108,-38
37,6,-30,-18,33,-9,93,-28,-110,-124,-120,-50
25,0,-24,-6,27,-9,93,-34,-116,-130,-126,-56
13,-6,-18,0,15,-9,93,-40,-122,-130,-126,-68
1,-6,-6,6,3,-4,93,-52,-128,-136,-126,-68
-5,-6,-1,6,-3,-4,99,-46,-128,-130,-126,-62
-11,-12,-1,17,-3,-4,105,-46,-128,-130,-120,-56
-16,-17,-1,17,-8,-9,99,-52,-134,-130,-126,-56
-16,-17,-1,17,-8,-9,99,-58,-146,-142,-138,-62
-21,-17,4,17,-13,-9,99,-58,-146,-148,-144,-68
-27,-22,4,22,-19,-9,99,-64,-158,-160,-156,-80
-45,-22,22,28,-37,-4,93,-64,-164,-172,-162,-86
-57,-28,28,40,-43,-4,93,-64,-164,-172,-174,-86
-69,-40,28,52,-49,-9,93,-58,-170,-178,-180,-98
-75,-52,22,64,-49,-14,99,-58,-170,-178,-186,-104
-81,-58,22,64,-55,-20,99,-58,-176,-178,-192,-110
-81,-70,10,70,-49,-32,105,-58,-176,-184,-198,-116
-81,-82,-1,76,-43,-44,105,-58,-176,-190,-198,-116
-81,-82,-1,76,-43,-44,105,-58,-182,-196,-198,-116
-87,-88,-1,88,-43,-44,105,-58,-182,-196,-192,-122
-87,-88,-1,88,-43,-44,117,-58,-176,-190,-192,-116
-87,-82,4,82,-49,-38,117,-52,-170,-184,-186,-116
-81,-70,10,70,-49,-32,111,-52,-158,-178,-180,-110
-69,-70,-1,64,-37,-38,117,-46,-152,-166,-168,-104
-69,-64,4,64,-37,-32,117,-40,-140,-154,-156,-92
-63,-58,4,58,-37,-26,117,-28,-128,-142,-144,-80
-57,-52,4,52,-31,-26,117,-17,-116,-124,-132,-68
-45,-46,-1,40,-25,-26,105,-12,-104,-106,-120,-56
-27,-46,-18,34,-8,-32,99,0,-86,-88,-102,-44
-16,-40,-24,28,3,-32,93,12,-56,-58,-78,-26
7,-28,-36,12,21,-32,81,24,-32,-34,-54,-15
31,-22,-54,-6,39,-38,69,30,-10,-11,-30,8
61,-22,-84,-18,69,-50,51,36,20,18,-2,32
97,-17,-114,-36,105,-62,33,42,50,42,28,56
133,-12,-144,-54,141,-74,-3,42,80,72,64,80
175,6,-168,-90,171,-80,-31,42,122,114,106,110
223,24,-198,-120,213,-86,-67,54,176,174,160,146
277,42,-234,-156,255,-92,-97,102,260,258,226,194
349,66,-282,-204,315,-104,-97,192,398,384,322,254
421,90,-330,-252,375,-116,-73,312,578,540,448,326
499,114,-384,-306,441,-134,-37,456,782,714,592,416
577,156,-420,-360,501,-128,3,564,980,894,754,512
649,222,-426,-432,537,-98,27,624,1154,1080,928,632
727,300,-426,-510,579,-62,33,642,1322,1290,1132,782
823,402,-420,-612,621,-9,-9,588,1454,1512,1360,962
937,534,-402,-732,669,68,-109,438,1538,1728,1612,1172
1063,672,-390,-864,729,140,-271,222,1592,1956,1888,1406
1189,822,-366,-1002,777,230,-475,-58,1610,2184,2176,1664
1315,978,-336,-1146,825,320,-745,-394,1586,2394,2457,1922
1405,1128,-276,-1260,843,428,-1021,-754,1544,2579,2721,2162
1465,1242,-222,-1350,843,512,-1273,-1090,1448,2675,2895,2348
1489,1296,-192,-1386,843,554,-1465,-1390,1268,2627,2925,2437
1459,1302,-156,-1380,807,572,-1573,-1606,1028,2471,2841,2437
1381,1272,-108,-1320,747,584,-1621,-1744,764,2244,2661,2360
1249,1236,-12,-1236,633,614,-1645,-1840,464,1944,2398,2216
1087,1188,100,-1134,495,644,-1639,-1894,146,1596,2068,2012
913,1098,184,-1002,363,644,-1597,-1900,-182,1158,1636,1736
715,966,250,-840,231,608,-1507,-1888,-560,630,1108,1388
499,798,298,-648,99,548,-1387,-1840,-902,90,568,998
313,642,328,-474,-8,488,-1249,-1744,-1094,-280,160,656
175,516,340,-342,-79,428,-1105,-1600,-1148,-484,-96,416
91,420,328,-252,-115,374,-967,-1438,-1112,-574,-246,242
31,330,298,-180,-133,314,-817,-1246,-1040,-598,-330,122
-11,258,268,-120,-139,266,-661,-1042,-950,-586,-372,38
-27,186,214,-78,-121,200,-505,-832,-842,-556,-390,-20
-51,126,178,-36,-115,152,-361,-646,-728,-514,-396,-56
-81,60,142,12,-109,98,-241,-484,-620,-472,-384,-92
-99,0,100,52,-97,50,-139,-352,-506,-424,-366,-110
-111,-46,64,76,-91,8,-67,-262,-410,-376,-342,-134
-123,-82,40,100,-85,-20,-19,-202,-332,-346,-330,-152
-135,-106,28,118,-85,-38,15,-160,-278,-322,-324,-170
-141,-124,16,130,-79,-56,45,-130,-254,-310,-318,-182
-147,-130,16,136,-85,-56,75,-106,-236,-310,-318,-194
-153,-130,22,136,-91,-56,99,-70,-236,-304,-318,-200
-159,-130,28,142,-97,-50,117,-34,-230,-298,-312,-200
-165,-124,40,142,-103,-44,135,-12,-218,-292,-312,-206
-159,-124,34,142,-97,-44,153,18,-206,-286,-312,-212
-159,-124,34,142,-97,-44,165,30,-194,-280,-318,-212
-165,-124,40,142,-103,-44,171,42,-176,-280,-318,-218
-159,-124,34,142,-97,-44,177,42,-164,-274,-318,-224
-159,-136,22,148,-91,-56,183,42,-152,-268,-312,-224
-159,-142,16,148,-91,-62,183,42,-152,-268,-318,-224
-165,-148,16,154,-91,-68,183,48,-152,-274,-318,-230
-159,-142,16,148,-91,-62,189,54,-146,-274,-324,-236
-165,-142,22,148,-97,-62,189,66,-146,-280,-324,-236
-171,-148,22,160,-97,-62,189,72,-140,-280,-324,-236
-165,-148,16,154,-91,-68,189,78,-140,-274,-324,-242
-165,-148,16,154,-91,-68,195,78,-134,-274,-318,-236
-165,-148,16,154,-91,-68,195,84,-134,-268,-318,-236
-165,-148,16,154,-91,-68,195,84,-122,-262,-312,-236
-165,-148,16,154,-91,-68,201,90,-116,-256,-312,-230
-159,-148,10,154,-85,-68,201,90,-110,-256,-306,-230
-159,-148,10,154,-85,-68,201,96,-110,-250,-306,-230
-165,-142,22,148,-97,-62,201,102,-110,-250,-300,-224
-159,-142,16,148,-91,-62,201,108,-104,-250,-300,-224
-153,-142,10,142,-85,-68,201,108,-104,-250,-300,-218
-159,-148,10,154,-85,-68,201,108,-98,-244,-294,-218
-159,-154,4,154,-85,-74,201,108,-92,-238,-294,-212
-159,-154,4,154,-85,-74,201,114,-86,-238,-288,-212
-153,-154,-1,148,-79,-80,207,120,-80,-232,-282,-212
-159,-154,4,154,-85,-74,207,126,-74,-232,-276,-206
-159,-148,10,154,-85,-68,207,126,-62,-226,-276,-212
-159,-142,16,148,-91,-62,207,132,-56,-214,-270,-212
-153,-136,16,142,-85,-62,213,132,-50,-214,-270,-212
-147,-136,10,142,-79,-62,207,138,-50,-208,-270,-212
-147,-136,10,142,-79,-62,207,138,-44,-208,-264,-212
-147,-136,10,142,-79,-62,207,138,-38,-208,-264,-212
-147,-130,16,136,-85,-56,207,144,-32,-202,-252,-212
-141,-130,10,130,-79,-62,207,150,-20,-196,-240,-206
-147,-130,16,136,-85,-56,201,156,-15,-190,-234,-206
-153,-130,22,136,-91,-56,201,162,-15,-184,-234,-200
-153,-130,22,136,-91,-56,207,174,-4,-178,-234,-200
-147,-130,16,136,-85,-56,207,186,8,-172,-228,-200
-147,-136,10,142,-79,-62,213,198,20,-166,-228,-200
-141,-136,4,136,-73,-68,213,204,32,-166,-228,-194
-141,-136,4,136,-73,-68,213,210,44,-160,-228,-194
-135,-130,4,130,-73,-62,219,222,50,-154,-222,-188
-135,-130,4,130,-73,-62,225,234,68,-148,-222,-188
-135,-130,4,130,-73,-62,237,246,80,-142,-222,-194
-141,-136,4,136,-73,-68,243,258,92,-136,-216,-194
-135,-130,4,130,-73,-62,243,276,110,-130,-210,-194
-135,-124,10,130,-73,-56,249,288,128,-124,-210,-200
-129,-124,4,124,-67,-62,255,306,140,-118,-204,-200
-123,-124,-1,124,-61,-62,267,318,158,-106,-204,-200
-111,-118,-6,112,-55,-62,273,336,170,-100,-198,-200
-111,-124,-12,118,-49,-68,279,360,188,-88,-192,-200
-117,-118,-1,112,-61,-62,285,378,206,-70,-186,-194
-117,-118,-1,112,-61,-62,297,402,230,-52,-174,-194
-111,-112,-1,112,-55,-56,303,420,254,-40,-162,-188
-111,-112,-1,112,-55,-56,321,444,278,-22,-156,-176
-111,-118,-6,112,-55,-62,327,462,302,-11,-144,-170
-105,-112,-6,106,-49,-62,339,480,326,0,-132,-170
-99,-106,-6,100,-49,-56,339,498,344,12,-126,-170
-93,-106,-12,94,-43,-62,345,510,362,24,-120,-170
-87,-112,-24,100,-31,-68,357,528,380,36,-114,-164
-81,-100,-18,88,-31,-62,363,546,392,42,-108,-164
-75,-82,-6,76,-37,-44,369,564,404,48,-102,-158
-75,-76,-1,76,-37,-38,381,576,416,60,-96,-158
-69,-76,-6,70,-31,-44,387,588,434,72,-90,-152
-63,-82,-18,70,-25,-50,393,600,452,84,-84,-146
-63,-88,-24,76,-19,-56,393,612,464,90,-78,-146
-57,-88,-30,70,-13,-62,399,618,476,102,-72,-140
-57,-94,-36,70,-13,-68,405,624,488,108,-60,-128
-51,-100,-48,76,-3,-74,405,636,494,120,-48,-122
-45,-100,-54,70,3,-80,411,642,500,126,-42,-116
-39,-100,-60,70,9,-80,411,648,500,132,-36,-110
-33,-94,-60,58,9,-80,411,648,506,132,-30,-104
-27,-88,-60,58,15,-74,405,648,512,132,-30,-98
-21,-76,-54,46,15,-68,405,648,512,132,-24,-92
-21,-70,-48,40,9,-62,399,648,512,132,-18,-86
-21,-64,-42,40,9,-56,393,642,512,132,-18,-80
-16,-64,-48,40,15,-56,387,630,506,126,-18,-80
-16,-58,-42,34,9,-50,381,624,500,126,-18,-80
-11,-52,-42,34,15,-44,375,612,494,132,-13,-74
-11,-46,-36,28,9,-38,363,600,488,126,-13,-74
-11,-46,-36,28,9,-38,357,588,476,120,-13,-68
1,-40,-42,22,21,-38,345,570,458,114,-13,-62
7,-28,-36,12,21,-32,333,546,440,108,-13,-62
13,-22,-36,6,21,-26,315,522,422,102,-13,-56
19,-22,-42,0,27,-32,303,498,404,102,-13,-50
19,-22,-42,0,27,-32,291,480,386,96,-13,-44
13,-22,-36,6,21,-26,273,450,368,90,-13,-44
13,-22,-36,6,21,-26,255,426,344,84,-13,-32
7,-17,-24,6,15,-20,237,402,326,72,-18,-32
-5,-17,-12,12,3,-14,219,378,302,60,-24,-32
