,,,,,,,,,,,
2019-09-04 23:12:44,,,,,,,,,,,
,,,,,,,,,,,
I,II,III,aVR,aVL,aVF,V1,V2,V3,V4,V5,V6
-34,-81,-49,57,7,-62,64,30,-27,-46,-119,-88
-28,-75,-49,45,7,-62,64,12,-33,-46,-113,-82
-28,-75,-49,45,7,-62,58,1,-45,-52,-107,-76
-34,-81,-49,57,7,-62,52,-10,-57,-46,-95,-76
-46,-81,-37,63,-5,-56,46,-22,-63,-34,-83,-70
-40,-69,-31,51,-5,-51,40,-28,-69,-28,-77,-70
-34,-63,-31,45,-5,-46,40,-40,-69,-28,-71,-64
-34,-57,-25,45,-5,-40,40,-40,-69,-28,-71,-64
-34,-57,-25,45,-5,-40,34,-52,-75,-28,-65,-64
-40,-57,-19,45,-11,-40,34,-58,-75,-28,-65,-64
-46,-57,-13,51,-17,-34,34,-70,-81,-34,-60,-58
-52,-57,-7,51,-23,-34,28,-76,-81,-34,-60,-52
-46,-51,-7,45,-23,-28,28,-82,-81,-34,-55,-46
-46,-51,-7,45,-23,-28,28,-82,-87,-34,-49,-40
-52,-57,-7,51,-23,-34,28,-88,-87,-34,-49,-40
-58,-57,-1,57,-29,-28,28,-88,-87,-40,-55,-40
-58,-63,-7,57,-29,-34,22,-88,-87,-34,-55,-40
-52,-57,-7,51,-23,-34,22,-94,-87,-34,-49,-34
-46,-46,-1,45,-23,-22,16,-100,-93,-28,-49,-28
-40,-46,-7,39,-17,-28,16,-100,-93,-22,-43,-28
-40,-46,-7,39,-17,-28,16,-106,-93,-22,-43,-28
-52,-51,-1,45,-29,-28,16,-106,-93,-22,-43,-28
-64,-57,5,57,-35,-28,16,-112,-93,-28,-43,-34
-58,-51,5,51,-35,-22,11,-112,-93,-34,-43,-40
-52,-46,5,45,-29,-22,11,-106,-87,-22,-37,-34
-46,-41,5,45,-23,-16,11,-106,-87,-22,-31,-34
-40,-35,5,33,-23,-16,6,-106,-93,-22,-25,-34
-40,-35,5,33,-23,-16,0,-106,-93,-22,-25,-34
-46,-41,5,45,-23,-16,0,-106,-93,-16,-31,-28
-52,-41,11,45,-29,-16,0,-106,-93,-16,-31,-28
-52,-41,11,45,-29,-16,6,-106,-93,-16,-37,-28
-58,-35,23,45,-41,-4,6,-106,-87,-22,-37,-28
-58,-35,23,45,-41,-4,6,-106,-87,-22,-43,-28
-64,-29,35,45,-47,2,6,-106,-87,-22,-37,-34
-52,-29,23,39,-35,-4,0,-100,-87,-16,-31,-34
-46,-29,17,39,-29,-4,0,-100,-75,-16,-25,-34
-46,-35,11,39,-29,-10,0,-94,-75,-22,-31,-34
-40,-35,5,33,-23,-16,6,-100,-81,-34,-37,-34
-46,-35,11,39,-29,-10,6,-94,-81,-28,-37,-28
-46,-35,11,39,-29,-10,6,-94,-75,-28,-31,-22
-52,-41,11,45,-29,-16,11,-94,-75,-16,-31,-16
-46,-35,11,39,-29,-10,11,-94,-75,-10,-31,-16
-46,-35,11,39,-29,-10,16,-88,-75,-10,-31,-16
-52,-35,17,39,-35,-10,16,-88,-75,-10,-31,-22
-46,-35,11,39,-29,-10,16,-82,-75,-16,-31,-28
-40,-35,5,33,-23,-16,16,-82,-69,-16,-31,-28
-40,-29,11,33,-23,-10,16,-82,-69,-16,-25,-28
-40,-29,11,33,-23,-10,16,-76,-63,-16,-25,-28
-40,-35,5,33,-23,-16,11,-76,-63,-16,-25,-28
-40,-35,5,33,-23,-16,11,-82,-69,-16,-31,-22
-40,-29,11,33,-23,-10,6,-82,-69,-22,-31,-22
-46,-29,17,39,-29,-4,11,-76,-69,-22,-31,-22
-52,-35,17,39,-35,-10,11,-76,-69,-28,-37,-22
-52,-41,11,45,-29,-16,16,-70,-63,-28,-37,-22
-52,-41,11,45,-29,-16,16,-70,-63,-28,-37,-22
-46,-41,5,45,-23,-16,16,-64,-57,-22,-37,-28
-46,-41,5,45,-23,-16,16,-64,-57,-22,-37,-28
-46,-35,11,39,-29,-10,22,-64,-51,-16,-31,-22
-52,-35,17,39,-35,-10,28,-64,-51,-16,-31,-22
-52,-41,11,45,-29,-16,28,-64,-57,-16,-31,-22
-46,-41,5,45,-23,-16,22,-64,-57,-22,-31,-28
-40,-35,5,33,-23,-16,22,-64,-57,-22,-25,-22
-34,-29,5,33,-17,-10,22,-58,-51,-22,-19,-22
-40,-35,5,33,-23,-16,22,-64,-51,-28,-25,-22
-52,-41,11,45,-29,-16,22,-64,-57,-28,-31,-28
-58,-41,17,51,-35,-10,28,-64,-57,-28,-31,-28
-64,-46,17,51,-41,-16,28,-58,-57,-28,-31,-28
-70,-41,29,57,-47,-4,28,-46,-51,-22,-31,-28
-70,-46,23,57,-47,-10,28,-46,-51,-28,-37,-28
-70,-46,23,57,-47,-10,34,-46,-51,-28,-37,-34
-58,-41,17,51,-35,-10,34,-40,-51,-34,-37,-34
-52,-41,11,45,-29,-16,28,-40,-51,-28,-37,-28
-52,-41,11,45,-29,-16,28,-46,-57,-34,-37,-28
-46,-35,11,39,-29,-10,28,-40,-63,-46,-37,-28
-52,-35,17,39,-35,-10,22,-40,-63,-46,-37,-22
-58,-35,23,45,-41,-4,22,-46,-63,-46,-37,-22
-58,-35,23,45,-41,-4,22,-46,-63,-52,-43,-22
-64,-35,29,45,-47,-4,22,-46,-57,-46,-43,-22
-64,-35,29,45,-47,-4,28,-46,-57,-46,-43,-22
-64,-35,29,45,-47,-4,34,-40,-51,-46,-37,-16
-58,-35,23,45,-41,-4,34,-40,-51,-46,-43,-16
-58,-41,17,51,-35,-10,40,-40,-45,-46,-43,-16
-58,-46,11,51,-35,-16,46,-40,-45,-52,-49,-22
-58,-46,11,51,-35,-16,52,-40,-51,-52,-49,-28
-64,-51,11,51,-41,-22,52,-40,-57,-58,-49,-40
-70,-57,11,63,-41,-22,52,-46,-63,-64,-43,-40
-70,-57,11,63,-41,-22,46,-46,-57,-64,-37,-40
-64,-57,5,57,-35,-28,34,-52,-57,-64,-37,-34
-64,-51,11,51,-41,-22,28,-52,-63,-64,-37,-34
-58,-46,11,51,-35,-16,28,-46,-57,-64,-37,-28
-52,-46,5,45,-29,-22,22,-46,-57,-64,-43,-28
-58,-46,11,51,-35,-16,22,-46,-63,-70,-49,-34
-64,-51,11,51,-41,-22,16,-52,-75,-70,-49,-40
-64,-57,5,57,-35,-28,16,-52,-75,-64,-43,-46
-64,-51,11,51,-41,-22,16,-52,-69,-64,-37,-40
-64,-51,11,51,-41,-22,22,-58,-69,-76,-43,-40
-76,-51,23,57,-53,-16,22,-58,-69,-82,-43,-34
-70,-46,23,57,-47,-10,16,-58,-63,-82,-43,-28
-64,-41,23,51,-41,-10,16,-64,-69,-88,-37,-28
-64,-46,17,51,-41,-16,16,-64,-69,-88,-37,-28
-64,-51,11,51,-41,-22,16,-64,-75,-88,-43,-28
-58,-51,5,51,-35,-22,16,-64,-75,-88,-43,-28
-58,-57,-1,57,-29,-28,11,-64,-81,-88,-43,-34
-58,-63,-7,57,-29,-34,11,-70,-81,-94,-49,-40
-58,-57,-1,57,-29,-28,11,-70,-81,-94,-49,-40
-58,-51,5,51,-35,-22,11,-64,-81,-94,-49,-40
-64,-57,5,57,-35,-28,16,-70,-81,-100,-55,-46
-76,-69,5,69,-41,-34,16,-76,-87,-106,-60,-52
-82,-63,17,69,-53,-22,16,-82,-93,-112,-60,-52
-76,-57,17,63,-47,-22,16,-82,-99,-112,-60,-46
-70,-51,17,57,-47,-16,16,-82,-99,-118,-60,-46
-64,-46,17,51,-41,-16,11,-82,-99,-118,-60,-52
-58,-46,11,51,-35,-16,11,-88,-99,-124,-60,-52
-64,-46,17,51,-41,-16,6,-88,-99,-124,-55,-52
-70,-46,23,57,-47,-10,11,-94,-99,-124,-55,-52
-70,-51,17,57,-47,-16,11,-100,-105,-124,-55,-46
-70,-51,17,57,-47,-16,11,-100,-105,-124,-55,-40
-70,-46,23,57,-47,-10,11,-106,-111,-130,-49,-34
-70,-46,23,57,-47,-10,6,-106,-111,-130,-49,-34
-64,-46,17,51,-41,-16,6,-106,-111,-130,-55,-34
-70,-51,17,57,-47,-16,0,-112,-117,-130,-55,-34
-70,-57,11,63,-41,-22,-6,-112,-117,-130,-55,-34
-70,-57,11,63,-41,-22,-6,-118,-123,-136,-55,-40
-70,-51,17,57,-47,-16,-6,-118,-123,-142,-55,-40
-76,-57,17,63,-47,-22,-6,-118,-123,-148,-55,-40
-88,-57,29,69,-59,-16,0,-124,-123,-142,-55,-46
-88,-57,29,69,-59,-16,0,-124,-123,-142,-60,-46
-88,-51,35,63,-65,-10,0,-124,-123,-148,-60,-40
-82,-46,35,63,-59,-4,0,-118,-123,-142,-65,-40
-76,-46,29,57,-53,-10,0,-118,-117,-142,-60,-40
-76,-46,29,57,-53,-10,0,-118,-123,-148,-65,-46
-76,-46,29,57,-53,-10,-6,-118,-123,-148,-65,-46
-70,-46,23,57,-47,-10,-6,-118,-123,-148,-65,-46
-64,-46,17,51,-41,-16,-6,-124,-129,-154,-65,-46
-64,-46,17,51,-41,-16,-6,-124,-129,-160,-65,-46
-70,-46,23,57,-47,-10,-12,-124,-135,-172,-71,-46
-82,-51,29,63,-59,-10,-12,-130,-135,-172,-71,-46
-82,-46,35,63,-59,-4,-6,-124,-135,-172,-65,-46
-70,-46,23,57,-47,-10,0,-124,-129,-166,-60,-40
-70,-46,23,57,-47,-10,0,-124,-129,-166,-60,-40
-70,-46,23,57,-47,-10,6,-118,-129,-166,-65,-46
-70,-51,17,57,-47,-16,6,-118,-135,-166,-71,-46
-70,-51,17,57,-47,-16,6,-124,-135,-166,-71,-40
-70,-51,17,57,-47,-16,6,-124,-135,-166,-65,-34
-64,-51,11,51,-41,-22,0,-130,-135,-172,-71,-28
-64,-51,11,51,-41,-22,-6,-130,-135,-178,-71,-28
-70,-63,5,63,-41,-28,-6,-136,-129,-178,-71,-34
-70,-63,5,63,-41,-28,-6,-130,-129,-172,-65,-34
-70,-63,5,63,-41,-28,0,-124,-129,-172,-65,-40
-70,-63,5,63,-41,-28,0,-124,-135,-178,-65,-40
-70,-63,5,63,-41,-28,0,-124,-141,-172,-60,-40
-76,-63,11,63,-47,-28,0,-124,-141,-178,-60,-40
-82,-63,17,69,-53,-22,0,-124,-141,-184,-65,-40
-82,-57,23,69,-53,-16,0,-124,-141,-184,-65,-40
-76,-57,17,63,-47,-22,-6,-124,-141,-184,-65,-46
-82,-63,17,69,-53,-22,-12,-130,-147,-190,-71,-52
-82,-69,11,75,-47,-28,-18,-130,-147,-190,-65,-52
-76,-63,11,63,-47,-28,-18,-124,-141,-190,-65,-46
-70,-63,5,63,-41,-28,-12,-124,-141,-190,-71,-46
-70,-63,5,63,-41,-28,-12,-118,-141,-196,-77,-46
-70,-69,-1,69,-35,-34,-12,-118,-141,-196,-77,-40
-76,-63,11,63,-47,-28,-6,-118,-141,-196,-65,-40
-76,-57,17,63,-47,-22,-6,-118,-135,-190,-60,-40
-70,-51,17,57,-47,-16,-6,-112,-135,-190,-60,-40
-64,-46,17,51,-41,-16,0,-106,-123,-190,-65,-46
-64,-35,29,45,-47,-4,6,-100,-111,-184,-60,-40
-58,-23,35,39,-47,8,11,-94,-99,-172,-49,-34
-58,-17,41,39,-47,14,16,-88,-93,-166,-37,-28
-58,-11,47,33,-53,20,16,-88,-93,-160,-31,-28
-64,-5,59,33,-59,26,16,-88,-93,-160,-31,-22
-64,-5,59,33,-59,26,22,-88,-87,-160,-31,-22
-70,-5,65,39,-65,32,22,-88,-87,-166,-37,-22
-76,-5,71,39,-71,32,22,-88,-93,-172,-43,-16
-76,-5,71,39,-71,32,22,-94,-93,-178,-43,-16
-76,-5,71,39,-71,32,22,-94,-99,-178,-37,-16
-70,-5,65,39,-65,32,16,-100,-99,-178,-31,-16
-64,1,65,27,-65,32,16,-100,-105,-172,-31,-16
-70,-5,65,39,-65,32,11,-106,-105,-172,-31,-16
-58,1,59,27,-59,32,6,-106,-105,-172,-31,-16
-52,7,59,21,-53,32,6,-100,-99,-166,-31,-10
-52,19,71,16,-59,44,6,-106,-93,-166,-25,-10
-52,25,77,11,-65,50,6,-106,-93,-172,-25,-10
-52,31,83,11,-65,56,0,-112,-87,-172,-25,-5
-58,37,95,11,-77,68,0,-112,-93,-166,-25,-5
-64,31,95,16,-77,62,-6,-118,-93,-166,-25,-5
-76,25,101,21,-89,62,-12,-124,-99,-172,-31,-10
-70,25,95,21,-83,62,-24,-130,-105,-178,-25,-5
-64,31,95,16,-77,62,-30,-136,-111,-178,-31,-5
-52,43,95,5,-71,68,-30,-136,-117,-184,-31,0
-40,43,83,-1,-59,62,-36,-142,-123,-190,-31,0
-40,43,83,-1,-59,62,-36,-154,-129,-196,-31,0
-40,43,83,-1,-59,62,-36,-154,-129,-190,-19,0
-34,49,83,-7,-59,68,-36,-148,-117,-190,-13,6
-34,49,83,-7,-59,68,-42,-148,-117,-190,-19,6
-34,43,77,-1,-53,62,-42,-148,-129,-196,-25,6
-28,49,77,-13,-53,62,-48,-148,-135,-196,-19,6
-16,55,71,-19,-41,62,-42,-136,-135,-184,-19,6
-16,49,65,-19,-41,56,-42,-130,-129,-184,-19,6
-22,37,59,-7,-41,50,-36,-124,-123,-184,-19,6
-22,31,53,-1,-35,44,-36,-124,-123,-196,-19,6
-22,25,47,-1,-35,38,-42,-118,-117,-190,-13,6
-16,19,35,-1,-23,26,-42,-112,-111,-190,-7,6
-10,13,23,-1,-17,20,-42,-106,-111,-190,-7,0
-22,1,23,11,-23,14,-42,-106,-111,-196,-19,-5
-34,-11,23,21,-29,8,-36,-100,-117,-196,-37,-10
-46,-17,29,33,-35,8,-30,-100,-117,-202,-49,-16
-52,-29,23,39,-35,-4,-24,-100,-117,-202,-55,-22
-52,-46,5,45,-29,-22,-18,-106,-123,-214,-65,-34
-58,-57,-1,57,-29,-28,-18,-112,-129,-220,-71,-40
-58,-63,-7,57,-29,-34,-24,-118,-135,-232,-77,-46
-58,-69,-13,63,-23,-40,-30,-124,-141,-232,-77,-46
-52,-75,-25,57,-17,-51,-42,-130,-153,-232,-77,-46
-52,-81,-31,63,-11,-56,-54,-142,-165,-238,-83,-52
-46,-87,-43,63,-5,-62,-66,-148,-171,-238,-83,-52
-40,-93,-55,63,7,-74,-78,-154,-177,-238,-77,-52
-28,-87,-60,51,13,-74,-90,-154,-177,-238,-71,-58
-16,-75,-60,39,19,-68,-108,-160,-171,-226,-60,-52
-10,-69,-60,39,25,-62,-120,-160,-165,-220,-55,-46
2,-57,-60,27,31,-56,-138,-166,-159,-208,-49,-34
13,-46,-60,16,36,-51,-150,-172,-159,-196,-25,-22
18,-41,-60,16,41,-46,-162,-178,-153,-178,-7,-5
36,-17,-55,-7,47,-34,-174,-178,-141,-160,17,6
48,-5,-55,-19,53,-28,-186,-178,-141,-142,29,18
66,7,-60,-31,65,-22,-210,-184,-135,-124,47,36
84,19,-65,-49,77,-22,-228,-202,-129,-106,71,48
102,37,-65,-67,83,-10,-252,-226,-135,-94,83,66
120,55,-65,-85,95,-4,-276,-250,-147,-76,101,84
132,73,-60,-103,95,8,-300,-274,-153,-58,125,108
150,97,-55,-121,101,26,-318,-292,-147,-34,155,132
162,127,-37,-139,101,50,-336,-310,-141,2,197,162
186,163,-25,-169,107,74,-360,-316,-123,36,239,198
204,205,-1,-205,101,104,-384,-328,-111,72,275,234
222,235,11,-223,107,128,-414,-334,-105,102,317,264
240,271,29,-253,107,152,-444,-352,-93,144,359,294
282,319,35,-295,125,182,-474,-346,-63,198,419,336
324,373,47,-349,137,212,-480,-298,-3,276,491,390
366,427,59,-391,155,248,-480,-214,85,372,563,432
420,487,65,-451,179,278,-486,-106,193,468,635,480
474,553,77,-511,197,320,-492,-4,307,582,713,534
510,619,107,-559,203,368,-480,78,409,690,797,594
546,679,131,-607,209,410,-468,168,505,774,857,642
576,733,155,-655,209,446,-462,270,607,870,923,690
612,805,191,-709,209,500,-456,354,721,972,995,738
648,883,233,-763,209,560,-456,384,805,1068,1073,792
666,979,311,-817,179,650,-474,306,817,1140,1157,864
684,1081,395,-883,143,740,-540,102,745,1170,1241,936
702,1195,491,-943,107,848,-654,-196,595,1188,1337,1032
714,1327,611,-1015,53,974,-786,-562,415,1212,1463,1152
720,1471,749,-1093,-11,1112,-936,-940,235,1260,1607,1290
738,1627,887,-1177,-71,1262,-1086,-1294,67,1320,1775,1440
768,1783,1013,-1273,-119,1400,-1236,-1576,-75,1392,1949,1608
798,1945,1145,-1369,-173,1550,-1398,-1828,-225,1452,2129,1782
840,2095,1253,-1465,-203,1676,-1566,-2038,-369,1524,2303,1950
888,2239,1349,-1561,-227,1796,-1734,-2206,-501,1596,2482,2112
924,2347,1421,-1633,-245,1886,-1896,-2344,-627,1656,2632,2256
954,2418,1463,-1681,-251,1946,-2010,-2416,-705,1740,2776,2376
960,2454,1493,-1705,-263,1976,-2076,-2427,-711,1860,2914,2465
954,2424,1469,-1687,-257,1952,-2064,-2344,-633,1998,3016,2507
942,2281,1337,-1609,-197,1814,-1974,-2122,-459,2142,3052,2459
918,2059,1139,-1483,-107,1604,-1836,-1858,-285,2190,2968,2334
876,1765,887,-1321,-5,1328,-1668,-1600,-195,2040,2722,2112
804,1435,629,-1117,89,1034,-1476,-1366,-201,1680,2285,1806
702,1123,419,-907,143,776,-1260,-1168,-273,1218,1781,1470
570,853,281,-709,143,572,-1062,-1024,-375,738,1295,1152
450,637,185,-541,131,416,-876,-892,-459,330,887,876
348,463,113,-403,119,290,-708,-766,-471,72,587,660
264,337,71,-301,95,206,-576,-646,-447,-64,383,492
192,241,47,-217,71,146,-462,-532,-399,-136,257,366
144,175,29,-157,59,104,-360,-430,-351,-172,173,276
96,121,23,-109,36,74,-282,-340,-309,-196,113,204
66,73,5,-67,31,44,-210,-256,-261,-208,71,144
24,25,-1,-25,13,14,-150,-190,-219,-220,29,96
2,-23,-25,11,13,-22,-108,-118,-183,-232,-7,42
-22,-57,-37,39,7,-46,-60,-52,-135,-226,-37,-5
-46,-93,-49,69,1,-68,-18,-4,-93,-226,-65,-40
-70,-129,-60,99,-5,-92,11,30,-69,-226,-89,-76
-82,-159,-77,117,-5,-116,46,54,-51,-232,-119,-106
-94,-171,-77,129,-11,-122,64,66,-51,-238,-143,-118
-94,-177,-83,135,-5,-128,70,72,-51,-256,-155,-130
-100,-189,-89,141,-5,-140,82,78,-57,-280,-173,-136
-106,-195,-89,147,-11,-140,88,78,-69,-298,-191,-148
-106,-201,-95,153,-5,-146,94,84,-69,-316,-203,-160
-106,-201,-95,153,-5,-146,106,96,-63,-328,-215,-166
-112,-219,-107,159,-5,-164,112,108,-51,-328,-221,-178
-118,-231,-113,171,-5,-170,118,120,-39,-328,-233,-190
-118,-237,-119,177,1,-176,124,132,-33,-328,-233,-202
-124,-237,-113,177,-5,-176,136,144,-27,-328,-239,-208
-136,-243,-107,183,-17,-176,148,144,-21,-328,-245,-208
-130,-243,-113,183,-11,-176,154,150,-21,-328,-251,-208
-130,-243,-113,183,-11,-176,166,156,-15,-328,-251,-208
-124,-243,-119,177,-5,-182,166,162,-15,-334,-257,-208
-130,-249,-119,189,-5,-182,166,168,-9,-334,-263,-208
-130,-249,-119,189,-5,-182,166,180,-9,-346,-275,-214
-130,-249,-119,189,-5,-182,172,192,-9,-346,-275,-214
-130,-255,-125,189,-5,-188,178,198,-3,-346,-275,-226
-136,-261,-125,195,-5,-194,184,198,3,-346,-275,-232
-142,-273,-131,207,-5,-200,190,204,3,-346,-281,-238
-142,-279,-137,207,-5,-206,196,210,3,-340,-281,-244
-142,-279,-137,207,-5,-206,196,216,9,-340,-287,-244
-142,-273,-131,207,-5,-200,196,222,9,-346,-287,-250
-142,-279,-137,207,-5,-206,196,228,14,-346,-287,-250
-148,-279,-131,207,-11,-206,196,240,14,-346,-293,-250
-136,-279,-143,201,1,-212,202,240,19,-352,-293,-256
-130,-273,-143,201,7,-206,208,252,19,-352,-293,-250
-130,-279,-149,201,7,-212,214,258,25,-340,-293,-250
-148,-285,-137,213,-5,-212,214,258,25,-340,-299,-256
-154,-291,-137,219,-11,-212,220,270,31,-340,-305,-262
-148,-291,-143,213,-5,-218,220,276,43,-334,-305,-262
-142,-291,-149,213,1,-218,226,288,43,-334,-311,-268
-136,-291,-155,207,7,-224,226,294,49,-334,-311,-268
-130,-291,-161,207,13,-224,232,306,55,-334,-311,-268
-130,-291,-161,207,13,-224,244,324,61,-334,-311,-268
-124,-291,-167,201,19,-230,250,336,61,-340,-317,-268
-130,-297,-167,213,19,-230,250,342,61,-340,-317,-274
-142,-303,-161,219,7,-230,256,348,67,-346,-323,-280
-148,-309,-161,225,7,-236,256,354,73,-346,-329,-280
-148,-303,-155,219,1,-230,256,366,85,-340,-329,-286
-148,-303,-155,219,1,-230,262,378,97,-334,-335,-286
-148,-303,-155,219,1,-230,268,396,109,-328,-341,-298
-148,-309,-161,225,7,-236,280,408,109,-328,-341,-304
-154,-321,-167,237,7,-242,286,426,115,-328,-347,-304
-154,-327,-173,237,7,-248,292,438,121,-334,-353,-310
-160,-333,-173,243,7,-254,304,456,127,-334,-365,-316
-160,-339,-179,243,7,-260,310,468,133,-340,-371,-316
-166,-351,-185,255,7,-266,322,474,139,-340,-377,-316
-172,-357,-185,261,7,-272,328,492,145,-340,-377,-322
-172,-363,-191,261,7,-278,340,504,157,-340,-377,-322
-166,-369,-203,267,19,-284,352,522,163,-340,-389,-328
-166,-369,-203,267,19,-284,364,546,175,-340,-395,-334
-172,-381,-209,273,19,-296,376,570,181,-340,-407,-346
-172,-387,-215,273,19,-302,388,588,187,-346,-413,-358
-178,-393,-215,285,19,-302,394,606,193,-346,-419,-364
-178,-393,-215,285,19,-302,406,630,205,-346,-419,-370
-178,-399,-221,285,19,-308,412,648,211,-346,-431,-376
-190,-411,-221,297,13,-314,424,666,223,-352,-437,-382
-184,-423,-239,297,25,-332,430,684,235,-352,-449,-394
-178,-423,-245,297,31,-332,448,708,247,-352,-455,-400
-178,-423,-245,297,31,-332,460,732,259,-346,-461,-406
-178,-441,-263,309,41,-350,460,750,265,-352,-467,-418
-172,-447,-275,303,47,-362,466,768,271,-358,-479,-424
-172,-453,-281,309,53,-368,478,792,289,-358,-479,-430
-184,-459,-275,315,41,-368,484,810,301,-358,-485,-436
-184,-465,-281,321,47,-374,496,828,313,-358,-491,-442
-184,-471,-287,321,47,-380,508,846,319,-364,-503,-448
-184,-471,-287,321,47,-380,520,864,331,-364,-509,-454
-190,-477,-287,333,47,-380,526,876,337,-358,-515,-460
-190,-477,-287,333,47,-380,532,894,349,-352,-521,-466
-184,-483,-299,327,53,-392,538,912,355,-352,-527,-466
-190,-489,-299,339,53,-392,544,924,361,-352,-533,-472
-190,-495,-305,339,53,-398,550,936,367,-352,-545,-478
-184,-501,-317,339,65,-410,556,948,373,-352,-551,-484
-178,-501,-323,339,71,-410,562,960,373,-352,-551,-484
-178,-507,-329,339,71,-416,568,966,373,-358,-557,-490
-178,-513,-335,345,77,-422,568,972,379,-358,-563,-496
-166,-507,-341,333,83,-422,562,978,385,-352,-563,-496
-160,-507,-347,327,89,-428,556,978,385,-352,-569,-496
-166,-501,-335,333,83,-416,556,984,385,-352,-569,-484
-172,-501,-329,333,77,-416,556,978,379,-352,-569,-484
-166,-495,-329,327,77,-410,550,966,379,-352,-575,-484
-166,-495,-329,327,77,-410,550,960,379,-346,-569,-484
-154,-489,-335,321,89,-410,544,954,379,-346,-569,-484
-148,-483,-335,309,89,-410,532,942,373,-340,-563,-484
-148,-477,-329,309,89,-404,520,930,373,-340,-557,-478
-148,-471,-323,303,83,-398,508,912,361,-340,-551,-472
-148,-465,-317,303,83,-392,496,894,355,-334,-545,-460
-142,-453,-311,297,83,-380,478,876,343,-328,-533,-442
-136,-441,-305,285,83,-374,466,846,337,-322,-521,-430
-130,-435,-305,279,83,-368,448,816,325,-310,-509,-412
-118,-417,-299,267,89,-356,424,786,319,-304,-497,-400
-112,-405,-293,255,89,-350,394,744,301,-298,-485,-388
-106,-393,-287,249,89,-338,370,708,289,-292,-473,-376
-100,-375,-275,231,83,-326,346,672,271,-286,-455,-364
-94,-357,-263,225,83,-308,328,630,247,-280,-431,-352
-82,-339,-257,207,83,-296,304,588,229,-274,-413,-334
-76,-321,-245,195,83,-284,286,546,205,-274,-389,-316
-70,-303,-233,183,77,-266,262,504,187,-262,-371,-298
-64,-291,-227,171,77,-260,238,462,169,-256,-353,-286
-58,-279,-221,165,77,-248,208,420,151,-250,-335,-268
-52,-267,-215,153,77,-242,184,378,127,-238,-323,-250
-52,-243,-191,141,65,-218,160,336,103,-226,-299,-232
-46,-219,-173,129,59,-194,142,300,85,-220,-281,-214
-46,-207,-161,123,53,-182,124,258,67,-220,-263,-196
-46,-201,-155,123,53,-176,106,222,37,-220,-245,-178
-52,-189,-137,117,41,-164,88,186,19,-220,-227,-160
-40,-171,-131,99,41,-152,76,150,9,-214,-209,-142
-28,-147,-119,81,41,-134,64,126,-3,-202,-191,-124
-28,-129,-101,75,36,-116,52,96,-9,-196,-179,-118
-34,-129,-95,81,31,-110,40,72,-21,-190,-167,-112
-46,-123,-77,81,13,-98,28,48,-27,-178,-149,-106
-46,-111,-65,75,7,-86,22,30,-33,-166,-137,-94
-46,-99,-55,69,1,-74,11,6,-39,-154,-125,-82
-46,-93,-49,69,1,-68,11,-4,-51,-154,-107,-76
-46,-93,-49,69,1,-68,6,-22,-69,-154,-101,-76
-46,-81,-37,63,-5,-56,6,-34,-75,-148,-89,-70
-40,-75,-37,51,-5,-56,0,-46,-87,-142,-77,-58
-40,-63,-25,45,-11,-46,-6,-58,-93,-142,-77,-52
-34,-63,-31,45,-5,-46,-12,-64,-93,-136,-65,-52
-40,-69,-31,51,-5,-51,-12,-70,-93,-130,-65,-52
-40,-69,-31,51,-5,-51,-18,-76,-93,-136,-71,-46
-40,-63,-25,45,-11,-46,-24,-82,-99,-124,-71,-46
-40,-63,-25,45,-11,-46,-24,-88,-99,-124,-71,-40
-40,-63,-25,45,-11,-46,-24,-88,-105,-118,-71,-40
-40,-63,-25,45,-11,-46,-36,-94,-105,-118,-65,-46
-46,-75,-31,57,-11,-51,-36,-100,-105,-112,-60,-46
-52,-75,-25,57,-17,-51,-36,-106,-105,-118,-55,-46
-58,-69,-13,63,-23,-40,-42,-100,-105,-112,-49,-40
-58,-63,-7,57,-29,-34,-36,-100,-105,-112,-43,-34
-58,-57,-1,57,-29,-28,-42,-106,-105,-106,-43,-28
-58,-51,5,51,-35,-22,-42,-106,-105,-100,-43,-28
-64,-51,11,51,-41,-22,-42,-106,-105,-100,-43,-28
-64,-51,11,51,-41,-22,-42,-106,-105,-94,-43,-28
-70,-51,17,57,-47,-16,-36,-106,-105,-94,-43,-28
-70,-51,17,57,-47,-16,-30,-106,-105,-88,-43,-34
-64,-57,5,57,-35,-28,-36,-106,-105,-88,-37,-34
-64,-57,5,57,-35,-28,-36,-106,-99,-88,-31,-28
-64,-51,11,51,-41,-22,-36,-112,-93,-82,-31,-28
-58,-51,5,51,-35,-22,-36,-106,-93,-82,-25,-22
-58,-51,5,51,-35,-22,-42,-106,-87,-76,-31,-22
-52,-46,5,45,-29,-22,-42,-106,-87,-76,-31,-22
-40,-46,-7,39,-17,-28,-42,-106,-93,-70,-31,-22
-34,-41,-7,39,-11,-22,-42,-106,-93,-64,-31,-22
-40,-41,-1,39,-17,-22,-36,-106,-93,-58,-25,-22
-52,-46,5,45,-29,-22,-36,-106,-93,-58,-19,-22
-58,-46,11,51,-35,-16,-36,-112,-99,-64,-25,-28
-52,-41,11,45,-29,-16,-42,-112,-93,-64,-25,-22
-46,-35,11,39,-29,-10,-36,-100,-81,-58,-25,-22
-46,-29,17,39,-29,-4,-36,-100,-75,-52,-25,-22
-46,-29,17,39,-29,-4,-36,-100,-75,-58,-25,-16
-46,-29,17,39,-29,-4,-42,-100,-75,-58,-19,-16
-46,-23,23,33,-35,2,-42,-106,-75,-58,-13,-10
-34,-17,17,27,-23,2,-42,-100,-75,-46,-7,-10
-28,-11,17,16,-23,2,-42,-100,-75,-40,-1,-5
-28,-17,11,21,-17,-4,-42,-100,-81,-46,5,-10
-28,-23,5,21,-17,-10,-36,-88,-69,-34,5,-10
-28,-23,5,21,-17,-10,-36,-88,-63,-34,-1,-16
-34,-29,5,33,-17,-10,-30,-88,-63,-34,-7,-22
-40,-23,17,27,-29,-4,-30,-82,-57,-34,-7,-22
-40,-23,17,27,-29,-4,-24,-70,-57,-34,-7,-28
-40,-23,17,27,-29,-4,-24,-70,-57,-22,-1,-22
-40,-29,11,33,-23,-10,-30,-70,-57,-22,-1,-16
-40,-29,11,33,-23,-10,-24,-76,-57,-22,-1,-16
-40,-29,11,33,-23,-10,-24,-76,-51,-22,-1,-16
-34,-29,5,33,-17,-10,-24,-70,-51,-16,-1,-22
-34,-29,5,33,-17,-10,-30,-70,-51,-16,-1,-22
-40,-41,-1,39,-17,-22,-30,-64,-45,-16,-1,-28
-34,-35,-1,33,-17,-16,-30,-64,-45,-22,-1,-28
-34,-35,-1,33,-17,-16,-30,-58,-39,-16,5,-28
-34,-23,11,27,-23,-4,-30,-52,-39,-16,5,-22
-34,-23,11,27,-23,-4,-30,-52,-39,-16,5,-22
-40,-23,17,27,-29,-4,-24,-46,-39,-16,5,-22
-40,-23,17,27,-29,-4,-24,-46,-33,-10,-1,-22
-40,-23,17,27,-29,-4,-24,-40,-33,-10,-1,-22
-46,-29,17,39,-29,-4,-18,-40,-27,-4,-1,-22
-46,-29,17,39,-29,-4,-18,-40,-27,-4,-1,-22
-40,-35,5,33,-23,-16,-18,-46,-27,-10,-1,-22
-40,-35,5,33,-23,-16,-12,-46,-21,-10,-1,-28
-46,-35,11,39,-29,-10,-6,-40,-21,-4,5,-28
-46,-35,11,39,-29,-10,-6,-34,-15,-4,11,-28
-58,-41,17,51,-35,-10,-6,-34,-9,-4,5,-28
-58,-41,17,51,-35,-10,-6,-34,-9,-4,5,-28
-58,-41,17,51,-35,-10,-6,-34,-15,-10,5,-28
-58,-41,17,51,-35,-10,-6,-34,-15,-10,-1,-28
-46,-41,5,45,-23,-16,-6,-34,-15,-10,-1,-22
-40,-41,-1,39,-17,-22,-6,-34,-21,-10,-1,-22
-40,-41,-1,39,-17,-22,-6,-40,-21,-10,-1,-22
-34,-35,-1,33,-17,-16,-6,-40,-21,-10,-1,-22
-34,-35,-1,33,-17,-16,-6,-34,-15,-10,-7,-22
-40,-35,5,33,-23,-16,0,-34,-15,-4,-7,-22
-46,-35,11,39,-29,-10,0,-34,-15,-10,-7,-28
-46,-35,11,39,-29,-10,0,-28,-15,-10,-7,-28
-52,-35,17,39,-35,-10,6,-28,-15,-10,-7,-28
-46,-35,11,39,-29,-10,6,-28,-15,-4,-13,-28
-52,-41,11,45,-29,-16,6,-34,-21,-10,-13,-28
-52,-41,11,45,-29,-16,6,-34,-21,-10,-19,-28
-58,-41,17,51,-35,-10,6,-34,-21,-10,-19,-28
-52,-35,17,39,-35,-10,6,-34,-15,-4,-19,-28
-52,-35,17,39,-35,-10,6,-34,-15,-4,-13,-22
-52,-35,17,39,-35,-10,6,-34,-15,-10,-13,-22
-52,-35,17,39,-35,-10,6,-34,-15,-10,-13,-28
-52,-35,17,39,-35,-10,6,-34,-21,-10,-19,-34
-46,-29,17,39,-29,-4,0,-40,-21,-10,-19,-34
-46,-35,11,39,-29,-10,0,-40,-15,-10,-19,-34
-52,-35,17,39,-35,-10,0,-40,-21,-16,-19,-28
-52,-35,17,39,-35,-10,-6,-40,-21,-16,-19,-28
-58,-41,17,51,-35,-10,-6,-40,-21,-22,-13,-34
-52,-35,17,39,-35,-10,-6,-40,-27,-22,-13,-34
-52,-29,23,39,-35,-4,-6,-40,-33,-22,-19,-34
-52,-29,23,39,-35,-4,-6,-46,-33,-22,-25,-34
-46,-29,17,39,-29,-4,0,-46,-39,-28,-25,-34
-46,-29,17,39,-29,-4,-6,-52,-39,-28,-37,-34
-52,-35,17,39,-35,-10,-6,-58,-45,-34,-43,-34
-58,-41,17,51,-35,-10,0,-58,-45,-40,-43,-28
-70,-46,23,57,-47,-10,0,-58,-45,-40,-37,-28
-70,-57,11,63,-41,-22,-6,-58,-39,-40,-43,-34
-70,-57,11,63,-41,-22,-12,-58,-39,-40,-43,-34
-64,-51,11,51,-41,-22,-12,-64,-39,-34,-37,-34
-58,-46,11,51,-35,-16,-12,-64,-39,-34,-43,-34
-52,-41,11,45,-29,-16,-12,-70,-45,-34,-43,-34
-52,-41,11,45,-29,-16,-6,-70,-45,-34,-37,-28
-58,-41,17,51,-35,-10,0,-76,-45,-34,-37,-28
-58,-41,17,51,-35,-10,0,-76,-51,-34,-31,-34
-58,-41,17,51,-35,-10,0,-82,-51,-34,-25,-40
-58,-35,23,45,-41,-4,0,-82,-57,-34,-31,-34
-52,-35,17,39,-35,-10,-6,-82,-57,-34,-31,-34
-46,-29,17,39,-29,-4,-6,-82,-51,-28,-25,-34
-52,-35,17,39,-35,-10,-6,-82,-57,-28,-25,-34
-58,-35,23,45,-41,-4,-6,-82,-51,-28,-25,-40
-64,-35,29,45,-47,-4,-6,-88,-57,-28,-25,-40
-58,-35,23,45,-41,-4,-6,-88,-57,-34,-19,-46
-52,-29,23,39,-35,-4,-6,-88,-57,-34,-19,-40
-58,-35,23,45,-41,-4,-6,-94,-57,-46,-19,-40
-64,-41,23,51,-41,-10,0,-100,-63,-46,-25,-34
-64,-46,17,51,-41,-16,0,-100,-63,-46,-31,-40
-64,-46,17,51,-41,-16,0,-100,-69,-46,-31,-40
-64,-46,17,51,-41,-16,0,-106,-69,-46,-37,-46
-58,-46,11,51,-35,-16,0,-106,-69,-52,-37,-46
-58,-46,11,51,-35,-16,-6,-106,-75,-58,-43,-52
-58,-46,11,51,-35,-16,-6,-106,-81,-58,-43,-52
-64,-46,17,51,-41,-16,-6,-106,-81,-58,-43,-46
-52,-41,11,45,-29,-16,-6,-106,-81,-52,-43,-46
-46,-35,11,39,-29,-10,-6,-106,-81,-52,-37,-40
-46,-35,11,39,-29,-10,0,-106,-75,-52,-37,-40
-46,-41,5,45,-23,-16,0,-106,-81,-52,-43,-40
-52,-46,5,45,-29,-22,0,-106,-81,-58,-49,-52
-64,-46,17,51,-41,-16,-6,-106,-81,-58,-49,-58
-64,-41,23,51,-41,-10,-6,-112,-81,-58,-49,-58
-64,-41,23,51,-41,-10,-6,-112,-81,-58,-43,-52
-64,-35,29,45,-47,-4,-6,-118,-81,-58,-49,-46
-64,-35,29,45,-47,-4,-12,-112,-81,-52,-49,-46
-70,-41,29,57,-47,-4,-12,-112,-81,-52,-49,-46
-64,-41,23,51,-41,-10,-12,-106,-81,-52,-49,-46
-58,-41,17,51,-35,-10,-18,-106,-81,-52,-49,-46
-58,-41,17,51,-35,-10,-12,-112,-81,-52,-49,-52
-64,-46,17,51,-41,-16,-12,-112,-81,-52,-49,-46
-64,-46,17,51,-41,-16,-24,-112,-81,-58,-49,-46
-64,-46,17,51,-41,-16,-18,-112,-81,-58,-43,-40
-70,-46,23,57,-47,-10,-12,-112,-81,-64,-43,-40
-76,-51,23,57,-53,-16,-18,-118,-87,-64,-43,-40
-76,-51,23,57,-53,-16,-18,-124,-87,-64,-49,-40
-70,-57,11,63,-41,-22,-12,-130,-93,-70,-49,-46
-70,-57,11,63,-41,-22,-12,-130,-87,-64,-55,-46
-70,-57,11,63,-41,-22,-6,-130,-87,-64,-60,-52
-64,-51,11,51,-41,-22,0,-130,-87,-70,-60,-46
-64,-51,11,51,-41,-22,0,-130,-87,-70,-60,-40
-64,-46,17,51,-41,-16,-6,-130,-87,-70,-60,-40
-58,-41,17,51,-35,-10,-6,-130,-93,-70,-65,-40
-64,-46,17,51,-41,-16,-6,-130,-87,-70,-65,-40
-58,-46,11,51,-35,-16,-12,-124,-87,-70,-60,-46
-58,-46,11,51,-35,-16,-12,-118,-93,-70,-60,-46
-52,-46,5,45,-29,-22,-12,-118,-93,-70,-60,-46
-52,-46,5,45,-29,-22,-6,-118,-93,-70,-60,-52
-52,-46,5,45,-29,-22,-6,-118,-93,-64,-60,-52
-58,-51,5,51,-35,-22,-6,-112,-93,-64,-60,-52
-64,-46,17,51,-41,-16,0,-112,-93,-64,-65,-46
-70,-46,23,57,-47,-10,11,-100,-87,-58,-65,-46
-70,-35,35,51,-53,2,11,-100,-81,-52,-60,-40
-58,-23,35,39,-47,8,11,-94,-75,-52,-60,-34
-52,-17,35,33,-41,8,16,-88,-69,-46,-49,-28
-52,1,53,21,-53,26,22,-82,-51,-34,-37,-16
-52,7,59,21,-53,32,22,-76,-45,-28,-31,-10
-58,13,71,21,-65,44,22,-76,-45,-28,-25,-10
-58,19,77,21,-65,50,28,-70,-39,-22,-25,-10
-58,25,83,16,-71,56,34,-70,-39,-22,-25,-5
-58,25,83,16,-71,56,40,-70,-39,-22,-19,-5
-52,25,77,11,-65,50,40,-70,-39,-16,-19,-5
-52,25,77,11,-65,50,34,-70,-39,-16,-13,-5
-40,31,71,5,-53,50,28,-76,-45,-22,-19,-10
-40,31,71,5,-53,50,22,-76,-51,-16,-19,-10
-52,31,83,11,-65,56,16,-82,-51,-22,-19,-10
-52,37,89,5,-71,62,16,-88,-57,-28,-19,-10
-58,43,101,11,-77,74,16,-88,-57,-22,-13,-10
-52,49,101,-1,-77,74,16,-88,-57,-22,-13,-10
-58,49,107,5,-83,80,16,-94,-57,-22,-19,-5
-58,55,113,5,-83,86,11,-94,-57,-22,-13,0
-46,55,101,-1,-71,80,6,-100,-63,-22,-13,0
-40,67,107,-13,-71,86,0,-106,-63,-22,-13,0
-46,61,107,-7,-77,86,-6,-106,-63,-22,-13,0
-64,55,119,5,-89,86,-12,-106,-69,-22,-13,-5
-64,55,119,5,-89,86,-18,-112,-75,-22,-13,-5
-58,67,125,-1,-89,98,-24,-112,-81,-28,-13,0
-58,73,131,-7,-95,104,-30,-118,-87,-34,-25,0
-58,67,125,-1,-89,98,-30,-124,-93,-46,-37,-5
-52,67,119,-7,-83,92,-30,-124,-93,-46,-37,0
-40,73,113,-19,-77,92,-30,-130,-93,-52,-37,0
-34,73,107,-19,-71,92,-30,-136,-93,-52,-31,6
-22,67,89,-19,-53,80,-36,-136,-99,-58,-31,6
-16,73,89,-31,-53,80,-48,-142,-105,-58,-31,6
-16,67,83,-25,-47,74,-54,-142,-105,-58,-31,0
-10,61,71,-25,-41,68,-48,-130,-105,-46,-31,0
-4,67,71,-31,-35,68,-48,-124,-99,-40,-25,0
-4,61,65,-31,-35,62,-42,-112,-93,-34,-25,0
-4,49,53,-25,-29,50,-42,-106,-93,-40,-25,-5
-10,43,53,-13,-29,50,-42,-106,-81,-40,-25,-5
-16,37,53,-13,-35,44,-36,-100,-75,-34,-25,0
-16,31,47,-7,-29,38,-36,-94,-69,-34,-25,0
-22,19,41,5,-29,32,-36,-94,-69,-34,-25,0
-28,7,35,11,-29,20,-42,-88,-69,-34,-31,0
-40,-5,35,21,-35,14,-36,-82,-69,-34,-37,-5
-46,-23,23,33,-35,2,-30,-82,-69,-34,-49,-5
-52,-41,11,45,-29,-16,-30,-82,-75,-46,-55,-22
-52,-46,5,45,-29,-22,-30,-88,-81,-58,-60,-34
-52,-51,-1,45,-29,-28,-36,-88,-87,-64,-71,-40
-52,-51,-1,45,-29,-28,-36,-100,-93,-70,-71,-46
-40,-57,-19,45,-11,-40,-42,-106,-99,-76,-77,-46
-28,-51,-25,33,-5,-40,-48,-106,-99,-70,-71,-46
-22,-57,-37,39,7,-46,-60,-112,-99,-64,-71,-46
-10,-57,-49,33,19,-51,-72,-112,-99,-58,-60,-46
-10,-57,-49,33,19,-51,-78,-106,-93,-46,-55,-40
2,-46,-49,21,25,-46,-90,-106,-87,-34,-43,-28
8,-41,-49,16,31,-46,-96,-100,-81,-16,-25,-22
13,-29,-43,11,31,-34,-114,-106,-75,-4,-19,-16
18,-11,-31,-1,25,-16,-126,-112,-69,8,-1,-10
24,1,-25,-13,25,-10,-132,-112,-57,24,17,-5
36,13,-25,-25,31,-4,-150,-112,-45,42,41,6
54,25,-31,-37,41,2,-174,-112,-33,66,59,30
66,37,-31,-49,47,8,-198,-118,-21,90,83,48
90,55,-37,-67,65,14,-222,-136,-21,114,107,72
108,73,-37,-91,71,20,-252,-148,-9,138,131,90
132,97,-37,-115,83,32,-270,-154,3,174,167,120
162,133,-31,-145,95,56,-294,-166,14,210,197,150
186,169,-19,-175,101,80,-318,-178,19,252,239,186
204,205,-1,-205,101,104,-342,-178,37,294,275,216
216,235,17,-223,101,128,-360,-190,49,336,317,246
240,265,23,-253,107,146,-378,-190,73,384,359,276
264,301,35,-283,113,170,-390,-184,109,432,407,306
294,349,53,-319,119,206,-402,-172,157,498,455,342
336,403,65,-367,137,236,-414,-136,217,570,527,390
378,457,77,-415,149,272,-426,-70,301,660,593,438
414,511,95,-457,161,308,-426,12,391,750,659,480
444,571,125,-505,161,350,-414,102,487,834,719,528
462,625,161,-541,149,398,-414,168,559,912,779,576
486,685,197,-583,143,446,-414,228,631,984,839,618
516,751,233,-631,143,494,-402,300,709,1056,899,660
540,817,275,-679,131,548,-384,318,775,1128,965,702
558,889,329,-721,113,614,-384,276,799,1182,1031,750
582,985,401,-781,89,698,-426,120,763,1224,1103,816
600,1105,503,-853,47,806,-522,-142,655,1248,1175,894
612,1237,623,-925,-5,932,-648,-496,493,1266,1265,990
624,1381,755,-1003,-65,1070,-804,-880,301,1284,1379,1110
642,1525,881,-1081,-119,1208,-972,-1228,127,1326,1517,1248
672,1681,1007,-1177,-167,1346,-1140,-1492,14,1398,1685,1398
720,1813,1091,-1267,-185,1454,-1326,-1708,-111,1470,1853,1542
774,1939,1163,-1351,-191,1556,-1524,-1894,-237,1548,2027,1692
828,2065,1235,-1447,-203,1652,-1722,-2056,-351,1626,2201,1848
882,2191,1307,-1531,-209,1754,-1902,-2206,-459,1722,2374,2010
918,2305,1385,-1609,-233,1850,-2034,-2314,-543,1818,2530,2154
954,2376,1421,-1663,-233,1904,-2118,-2362,-561,1944,2686,2274
972,2412,1439,-1693,-233,1928,-2142,-2350,-519,2088,2824,2376
978,2388,1409,-1681,-215,1904,-2106,-2248,-411,2250,2938,2423
966,2275,1307,-1615,-167,1796,-1992,-2014,-207,2412,2998,2406
936,2071,1133,-1501,-95,1604,-1842,-1726,-15,2489,2956,2310
894,1795,899,-1339,1,1352,-1662,-1444,97,2382,2746,2112
822,1483,659,-1147,83,1076,-1464,-1216,79,2052,2362,1830
720,1183,461,-949,131,824,-1266,-1048,-9,1596,1883,1512
594,913,317,-751,137,620,-1080,-940,-153,1098,1409,1200
468,685,215,-577,125,452,-900,-856,-285,660,983,924
366,511,143,-433,113,332,-738,-772,-357,354,659,696
282,385,101,-331,89,248,-600,-688,-375,168,431,522
222,289,65,-253,77,182,-486,-592,-363,60,287,396
168,217,47,-193,59,134,-390,-496,-327,2,185,300
114,145,29,-127,41,92,-300,-394,-291,-34,113,228
66,85,17,-73,25,56,-228,-298,-243,-58,65,162
24,37,11,-31,7,26,-162,-202,-189,-76,23,114
-4,-5,-1,5,1,-4,-96,-112,-129,-70,5,66
-28,-46,-19,33,-5,-34,-48,-46,-75,-58,-31,18
-52,-81,-31,63,-11,-56,0,1,-27,-52,-60,-22
-64,-111,-49,81,-11,-80,40,30,-3,-52,-89,-58
-76,-141,-65,105,-5,-104,64,42,3,-58,-119,-88
-88,-159,-71,117,-11,-116,82,54,3,-70,-143,-112
-94,-177,-83,135,-5,-128,94,54,-15,-100,-161,-130
-100,-189,-89,141,-5,-140,100,60,-27,-124,-179,-142
-100,-195,-95,141,-5,-146,106,66,-33,-142,-185,-148
-112,-201,-89,153,-11,-146,118,84,-33,-154,-191,-154
-118,-213,-95,165,-11,-152,130,96,-27,-160,-203,-166
-124,-219,-95,165,-17,-158,142,120,-15,-160,-215,-172
-124,-225,-101,171,-11,-164,160,138,3,-154,-227,-178
-130,-231,-101,177,-17,-164,172,150,9,-160,-239,-184
-136,-243,-107,183,-17,-176,184,156,3,-160,-245,-196
-142,-243,-101,189,-23,-170,190,162,3,-166,-251,-202
-148,-249,-101,195,-23,-176,196,162,3,-172,-257,-208
-142,-255,-113,195,-17,-182,202,168,3,-184,-257,-214
-142,-255,-113,195,-17,-182,202,174,3,-190,-257,-214
-148,-255,-107,195,-23,-182,202,180,3,-190,-257,-208
-154,-267,-113,207,-23,-188,202,186,9,-196,-263,-214
-160,-279,-119,213,-23,-200,208,192,14,-190,-269,-220
-160,-285,-125,219,-17,-206,214,192,14,-190,-281,-226
-160,-285,-125,219,-17,-206,226,198,19,-184,-281,-232
-160,-285,-125,219,-17,-206,232,204,19,-184,-281,-226
-154,-279,-125,213,-17,-200,238,216,25,-184,-275,-226
-154,-279,-125,213,-17,-200,244,222,25,-184,-275,-226
-148,-279,-131,207,-11,-206,244,228,31,-184,-281,-232
-148,-279,-131,207,-11,-206,244,240,31,-190,-287,-238
-160,-285,-125,219,-17,-206,250,246,37,-196,-293,-238
-166,-291,-125,225,-23,-206,256,252,43,-196,-299,-244
-172,-297,-125,231,-23,-212,256,264,49,-196,-299,-238
-166,-291,-125,225,-23,-206,256,270,55,-196,-299,-238
-160,-291,-131,219,-17,-212,268,270,61,-196,-299,-238
-160,-297,-137,225,-11,-218,274,282,61,-196,-305,-244
-154,-303,-149,225,-5,-224,280,288,61,-202,-311,-250
-160,-309,-149,231,-5,-230,286,294,67,-202,-311,-250
-166,-309,-143,237,-11,-224,292,306,73,-202,-311,-256
-160,-303,-143,225,-11,-224,298,324,79,-202,-317,-262
-160,-297,-137,225,-11,-218,304,330,91,-202,-323,-268
-166,-297,-131,231,-17,-212,310,342,103,-202,-323,-268
-172,-303,-131,231,-23,-218,316,360,115,-202,-323,-268
-184,-315,-131,243,-29,-224,322,366,115,-208,-323,-274
-178,-321,-143,249,-17,-230,328,378,121,-208,-323,-274
-166,-321,-155,243,-5,-236,334,390,127,-214,-329,-280
-160,-327,-167,237,1,-248,346,408,133,-214,-341,-280
-160,-333,-173,243,7,-254,358,414,139,-214,-347,-286
-166,-339,-173,249,1,-254,370,426,139,-214,-353,-292
-172,-345,-173,255,1,-260,376,438,145,-220,-353,-298
-172,-345,-173,255,1,-260,382,450,151,-220,-353,-304
-172,-357,-185,261,7,-272,388,462,157,-220,-359,-310
-178,-357,-179,267,1,-266,394,480,163,-220,-359,-310
-184,-357,-173,267,-5,-266,400,498,175,-220,-365,-316
-190,-369,-179,279,-5,-272,412,516,181,-220,-377,-322
-184,-369,-185,273,1,-278,412,528,187,-220,-389,-328
-184,-375,-191,273,1,-284,424,546,187,-220,-395,-334
-184,-381,-197,279,7,-290,436,558,187,-226,-401,-334
-190,-387,-197,285,1,-290,454,576,199,-232,-407,-346
-196,-393,-197,291,1,-296,466,594,211,-238,-413,-352
-196,-393,-197,291,1,-296,478,612,217,-250,-425,-358
-196,-399,-203,291,1,-302,496,630,229,-256,-437,-370
-202,-405,-203,303,1,-302,508,648,241,-256,-449,-376
-208,-417,-209,309,1,-314,520,672,247,-256,-461,-382
-208,-423,-215,309,1,-320,526,690,253,-256,-461,-388
-208,-435,-227,315,7,-332,532,708,253,-262,-467,-394
-214,-447,-233,327,7,-338,544,720,259,-268,-473,-406
-214,-447,-233,327,7,-338,556,738,271,-274,-479,-406
-220,-453,-233,333,7,-344,574,750,277,-280,-485,-418
-226,-465,-239,345,7,-350,586,768,283,-286,-497,-430
-244,-483,-239,357,-5,-362,592,786,295,-292,-515,-436
-244,-495,-251,363,1,-374,598,804,295,-298,-527,-448
-238,-501,-263,369,13,-380,610,822,301,-304,-539,-460
-238,-507,-269,369,13,-386,616,840,301,-298,-545,-466
-226,-513,-287,369,31,-398,628,858,307,-298,-545,-472
-226,-507,-281,363,25,-392,634,870,313,-304,-551,-472
-226,-513,-287,369,31,-398,640,888,319,-310,-563,-472
-226,-513,-287,369,31,-398,646,900,331,-310,-563,-478
-226,-513,-287,369,31,-398,652,912,337,-310,-569,-478
-232,-519,-287,369,25,-404,664,924,337,-316,-575,-484
-238,-525,-287,381,25,-404,664,930,343,-322,-581,-490
-238,-525,-287,381,25,-404,670,942,349,-322,-587,-496
-226,-519,-293,369,31,-404,676,948,355,-316,-593,-496
-220,-519,-299,363,36,-410,682,954,361,-316,-593,-502
-220,-531,-311,369,41,-422,676,954,355,-316,-599,-502
-226,-537,-311,381,41,-422,670,954,355,-316,-599,-496
-232,-537,-305,381,36,-422,664,960,361,-316,-593,-490
-220,-525,-305,369,41,-416,664,960,361,-310,-593,-484
-208,-519,-311,357,47,-416,658,954,367,-304,-587,-478
-202,-513,-311,357,53,-410,652,954,367,-304,-587,-478
-196,-507,-311,345,53,-410,646,942,367,-304,-587,-478
-190,-501,-311,345,59,-404,628,936,361,-304,-581,-472
-184,-489,-305,333,59,-398,616,924,355,-298,-575,-472
-178,-483,-305,327,59,-392,604,912,349,-292,-569,-460
-166,-471,-305,315,65,-386,580,894,343,-286,-551,-448
-166,-459,-293,309,59,-374,562,876,337,-274,-539,-436
-166,-447,-281,303,53,-362,538,846,331,-262,-515,-418
-154,-435,-281,291,59,-356,514,822,331,-250,-503,-406
-142,-423,-281,279,65,-350,490,786,319,-244,-491,-394
-136,-405,-269,267,65,-338,472,750,313,-238,-479,-388
-130,-387,-257,255,59,-320,448,720,301,-226,-467,-376
-118,-369,-251,243,65,-308,436,684,289,-220,-449,-358
-106,-345,-239,225,65,-290,412,648,277,-214,-425,-340
-94,-321,-227,207,65,-272,382,612,259,-202,-407,-316
-88,-303,-215,189,59,-260,358,570,235,-190,-389,-304
-88,-285,-197,183,53,-242,328,528,211,-184,-371,-280
-82,-267,-185,171,47,-224,298,486,199,-172,-347,-256
-76,-255,-179,159,47,-218,274,450,181,-160,-329,-238
-64,-237,-173,147,53,-206,250,408,163,-154,-311,-220
-58,-219,-161,135,47,-188,232,366,151,-142,-293,-208
-52,-195,-143,117,41,-170,208,330,139,-136,-275,-190
-52,-183,-131,111,36,-158,184,288,127,-124,-257,-172
-52,-171,-119,105,31,-146,160,252,109,-112,-233,-160
-64,-159,-95,105,13,-128,142,216,85,-106,-221,-148
-70,-147,-77,105,1,-110,124,186,67,-100,-209,-130
-58,-129,-71,93,7,-98,112,162,55,-94,-197,-112
-46,-117,-71,81,13,-92,94,144,43,-94,-185,-100
-40,-117,-77,75,19,-98,82,120,31,-100,-179,-94
-40,-111,-71,69,13,-92,70,102,19,-100,-167,-88
-34,-111,-77,69,19,-92,64,84,14,-94,-149,-82
-34,-99,-65,63,13,-80,58,66,9,-88,-137,-82
-34,-93,-60,63,13,-74,52,48,3,-82,-131,-76
-40,-81,-43,57,1,-62,40,24,-3,-76,-125,-70
-40,-75,-37,51,-5,-56,34,6,-9,-70,-119,-64
-40,-69,-31,51,-5,-51,28,-10,-15,-70,-113,-58
-46,-63,-19,51,-17,-40,28,-16,-21,-64,-107,-52
-52,-63,-13,51,-23,-40,22,-22,-21,-58,-101,-46
-52,-57,-7,51,-23,-34,22,-28,-27,-58,-95,-40
-58,-57,-1,57,-29,-28,16,-40,-27,-58,-89,-40
-58,-57,-1,57,-29,-28,16,-46,-33,-58,-83,-40
-58,-57,-1,57,-29,-28,16,-52,-39,-58,-77,-34
-52,-51,-1,45,-29,-28,11,-58,-39,-58,-71,-34
-58,-51,5,51,-35,-22,11,-64,-39,-58,-71,-34
-52,-46,5,45,-29,-22,6,-70,-39,-58,-71,-34
-46,-46,-1,45,-23,-22,0,-70,-39,-58,-65,-34
-40,-46,-7,39,-17,-28,0,-76,-45,-52,-65,-34
-40,-41,-1,39,-17,-22,-6,-76,-45,-52,-71,-34
-40,-41,-1,39,-17,-22,-12,-82,-45,-52,-71,-22
-46,-41,5,45,-23,-16,-12,-76,-39,-46,-65,-16
-40,-41,-1,39,-17,-22,-6,-76,-33,-46,-65,-16
-40,-35,5,33,-23,-16,-6,-70,-33,-40,-65,-16
-40,-41,-1,39,-17,-22,-6,-76,-39,-40,-60,-22
-52,-41,11,45,-29,-16,-6,-76,-39,-46,-60,-22
-46,-41,5,45,-23,-16,0,-76,-45,-40,-55,-22
-46,-46,-1,45,-23,-22,0,-76,-45,-40,-49,-22
-58,-46,11,51,-35,-16,-6,-82,-45,-46,-49,-22
-58,-51,5,51,-35,-22,-6,-76,-45,-46,-55,-22
-52,-46,5,45,-29,-22,-12,-76,-45,-40,-55,-22
-46,-46,-1,45,-23,-22,-6,-70,-39,-46,-55,-16
-46,-41,5,45,-23,-16,-6,-70,-39,-46,-55,-22
-52,-41,11,45,-29,-16,-6,-70,-39,-46,-55,-22
-52,-41,11,45,-29,-16,-6,-76,-39,-40,-55,-22
-52,-41,11,45,-29,-16,-12,-76,-39,-40,-49,-16
-46,-35,11,39,-29,-10,-12,-76,-45,-34,-49,-16
-46,-35,11,39,-29,-10,-12,-76,-39,-34,-49,-16
-40,-35,5,33,-23,-16,-18,-76,-33,-34,-49,-22
-34,-35,-1,33,-17,-16,-18,-70,-27,-34,-49,-22
-34,-29,5,33,-17,-10,-12,-70,-27,-34,-49,-22
-34,-35,-1,33,-17,-16,-12,-64,-27,-34,-49,-22
-34,-35,-1,33,-17,-16,-12,-64,-21,-34,-49,-22
-40,-35,5,33,-23,-16,-12,-64,-21,-34,-49,-22
-40,-35,5,33,-23,-16,-6,-58,-21,-28,-49,-16
-46,-35,11,39,-29,-10,-6,-58,-21,-22,-43,-10
-58,-35,23,45,-41,-4,-6,-58,-15,-22,-37,-10
-58,-29,29,45,-41,2,-6,-52,-15,-16,-37,-10
-46,-29,17,39,-29,-4,-12,-52,-15,-22,-37,-10
-46,-35,11,39,-29,-10,-12,-46,-9,-22,-43,-10
-40,-35,5,33,-23,-16,-12,-40,-9,-16,-43,-16
-40,-41,-1,39,-17,-22,0,-40,-9,-16,-49,-22
-34,-35,-1,33,-17,-16,6,-40,-15,-22,-49,-16
-34,-35,-1,33,-17,-16,6,-40,-15,-22,-49,-10
-40,-35,5,33,-23,-16,6,-40,-15,-22,-43,-10
-40,-35,5,33,-23,-16,6,-40,-21,-16,-37,-5
-46,-41,5,45,-23,-16,6,-40,-21,-16,-37,-5
-52,-41,11,45,-29,-16,0,-40,-21,-16,-43,-10
-46,-35,11,39,-29,-10,0,-34,-15,-10,-49,-10
-40,-35,5,33,-23,-16,0,-34,-9,-4,-49,-10
-46,-41,5,45,-23,-16,0,-34,-9,-16,-49,-10
-40,-41,-1,39,-17,-22,0,-28,-9,-16,-49,-16
-40,-46,-7,39,-17,-28,0,-28,-9,-16,-49,-16
-46,-51,-7,45,-23,-28,6,-34,-15,-22,-49,-16
-46,-46,-1,45,-23,-22,6,-28,-9,-22,-43,-16
-46,-46,-1,45,-23,-22,6,-28,-9,-22,-37,-10
-46,-41,5,45,-23,-16,6,-22,-3,-16,-37,-10
-40,-35,5,33,-23,-16,6,-22,-3,-16,-37,-10
-46,-35,11,39,-29,-10,11,-28,-3,-22,-49,-16
-46,-35,11,39,-29,-10,11,-22,-9,-22,-55,-16
-52,-46,5,45,-29,-22,16,-22,-9,-22,-55,-22
-58,-46,11,51,-35,-16,16,-22,-3,-22,-55,-16
-46,-41,5,45,-23,-16,22,-16,-3,-22,-49,-16
-46,-35,11,39,-29,-10,16,-22,-3,-22,-49,-16
-46,-41,5,45,-23,-16,11,-16,-3,-22,-49,-22
-46,-41,5,45,-23,-16,16,-16,3,-22,-55,-28
-40,-41,-1,39,-17,-22,11,-16,3,-28,-60,-28
-40,-41,-1,39,-17,-22,11,-22,3,-28,-65,-28
-40,-41,-1,39,-17,-22,16,-22,3,-28,-60,-28
-34,-29,5,33,-17,-10,16,-16,3,-22,-60,-22
-34,-29,5,33,-17,-10,22,-16,3,-16,-55,-16
-34,-29,5,33,-17,-10,22,-22,3,-16,-55,-22
-34,-35,-1,33,-17,-16,16,-22,-3,-22,-60,-22
-34,-41,-7,39,-11,-22,11,-22,-9,-22,-65,-28
-40,-41,-1,39,-17,-22,11,-16,-3,-28,-71,-28
-34,-35,-1,33,-17,-16,6,-16,-3,-34,-71,-28
-34,-35,-1,33,-17,-16,11,-22,-3,-40,-77,-22
-46,-41,5,45,-23,-16,11,-22,-9,-40,-77,-28
-58,-41,17,51,-35,-10,16,-28,-9,-40,-71,-22
-52,-41,11,45,-29,-16,16,-28,-9,-34,-60,-22
-52,-35,17,39,-35,-10,16,-28,-9,-28,-55,-22
-52,-41,11,45,-29,-16,16,-28,-15,-34,-60,-28
-46,-41,5,45,-23,-16,16,-28,-15,-34,-60,-28
-40,-41,-1,39,-17,-22,11,-34,-15,-40,-65,-28
-40,-35,5,33,-23,-16,11,-34,-15,-40,-71,-28
-46,-35,11,39,-29,-10,11,-34,-15,-40,-71,-22
-52,-35,17,39,-35,-10,11,-34,-15,-40,-71,-28
-58,-35,23,45,-41,-4,11,-34,-21,-46,-71,-28
-52,-35,17,39,-35,-10,6,-34,-27,-46,-77,-28
-46,-29,17,39,-29,-4,6,-40,-27,-46,-71,-34
-52,-35,17,39,-35,-10,6,-40,-33,-46,-71,-28
-58,-41,17,51,-35,-10,6,-46,-39,-58,-77,-34
-58,-41,17,51,-35,-10,6,-46,-39,-58,-71,-34
-52,-46,5,45,-29,-22,6,-52,-39,-58,-71,-34
-52,-46,5,45,-29,-22,6,-52,-39,-64,-77,-34
-46,-46,-1,45,-23,-22,0,-52,-45,-64,-77,-34
-46,-41,5,45,-23,-16,0,-46,-45,-64,-77,-28
-46,-41,5,45,-23,-16,0,-46,-39,-70,-77,-34
-46,-41,5,45,-23,-16,0,-52,-45,-76,-77,-34
-46,-35,11,39,-29,-10,-6,-52,-45,-76,-77,-28
-40,-35,5,33,-23,-16,6,-52,-51,-76,-77,-28
-40,-35,5,33,-23,-16,6,-52,-51,-76,-77,-34
-46,-35,11,39,-29,-10,6,-52,-51,-70,-77,-34
-46,-29,17,39,-29,-4,11,-52,-51,-70,-83,-34
-46,-23,23,33,-35,2,11,-58,-51,-70,-83,-34
-52,-29,23,39,-35,-4,11,-58,-57,-70,-83,-28
-58,-35,23,45,-41,-4,11,-58,-57,-70,-83,-34
-58,-35,23,45,-41,-4,6,-58,-57,-70,-77,-40
-52,-35,17,39,-35,-10,6,-58,-57,-70,-77,-40
-46,-35,11,39,-29,-10,0,-64,-63,-76,-83,-34
-40,-35,5,33,-23,-16,0,-64,-63,-76,-83,-34
-40,-35,5,33,-23,-16,0,-64,-69,-76,-83,-40
-40,-35,5,33,-23,-16,0,-64,-69,-76,-83,-40
-58,-46,11,51,-35,-16,6,-70,-75,-76,-83,-34
-64,-46,17,51,-41,-16,6,-76,-75,-76,-77,-34
-64,-46,17,51,-41,-16,6,-76,-75,-76,-77,-40
-64,-41,23,51,-41,-10,6,-76,-75,-76,-77,-34
-58,-41,17,51,-35,-10,0,-76,-75,-76,-77,-34
-52,-41,11,45,-29,-16,0,-70,-75,-70,-83,-34
-52,-41,11,45,-29,-16,6,-70,-75,-70,-83,-34
-52,-46,5,45,-29,-22,6,-70,-81,-76,-89,-40
-58,-46,11,51,-35,-16,0,-70,-75,-76,-89,-40
-58,-46,11,51,-35,-16,6,-70,-81,-76,-83,-40
-58,-46,11,51,-35,-16,6,-70,-75,-82,-83,-46
-58,-46,11,51,-35,-16,6,-70,-75,-82,-77,-46
-58,-46,11,51,-35,-16,6,-70,-81,-82,-77,-46
-58,-46,11,51,-35,-16,6,-70,-81,-82,-77,-40
-58,-46,11,51,-35,-16,6,-76,-81,-76,-77,-40
-64,-46,17,51,-41,-16,0,-76,-81,-76,-77,-40
-64,-46,17,51,-41,-16,11,-82,-93,-82,-83,-40
-58,-46,11,51,-35,-16,11,-82,-93,-76,-83,-46
-58,-46,11,51,-35,-16,11,-82,-93,-70,-77,-40
-58,-46,11,51,-35,-16,11,-82,-93,-70,-77,-40
-58,-46,11,51,-35,-16,11,-88,-93,-70,-77,-40
-52,-46,5,45,-29,-22,6,-88,-93,-64,-83,-34
-46,-46,-1,45,-23,-22,0,-88,-93,-70,-89,-34
-46,-41,5,45,-23,-16,0,-82,-93,-70,-89,-40
-46,-46,-1,45,-23,-22,0,-82,-99,-76,-89,-40
-46,-46,-1,45,-23,-22,0,-82,-99,-76,-89,-40
-46,-46,-1,45,-23,-22,6,-82,-93,-70,-83,-40
-46,-46,-1,45,-23,-22,6,-82,-87,-76,-83,-40
-46,-46,-1,45,-23,-22,6,-82,-87,-76,-89,-40
-52,-46,5,45,-29,-22,6,-82,-87,-76,-83,-40
-46,-46,-1,45,-23,-22,6,-88,-87,-76,-83,-40
-46,-46,-1,45,-23,-22,0,-88,-93,-76,-83,-40
-46,-46,-1,45,-23,-22,0,-88,-93,-76,-83,-40
-46,-46,-1,45,-23,-22,0,-94,-99,-76,-83,-40
-40,-41,-1,39,-17,-22,0,-94,-99,-76,-83,-40
-40,-41,-1,39,-17,-22,0,-94,-99,-76,-83,-40
-46,-41,5,45,-23,-16,0,-94,-99,-82,-89,-40
-52,-41,11,45,-29,-16,0,-94,-99,-82,-89,-34
-52,-41,11,45,-29,-16,0,-100,-99,-82,-89,-28
-52,-41,11,45,-29,-16,0,-100,-99,-76,-83,-34
-52,-35,17,39,-35,-10,0,-94,-93,-70,-83,-34
-46,-35,11,39,-29,-10,0,-94,-87,-64,-77,-40
-46,-29,17,39,-29,-4,6,-94,-87,-58,-71,-40
-46,-23,23,33,-35,2,6,-82,-75,-52,-60,-46
-46,-11,35,27,-41,14,11,-70,-63,-40,-55,-34
-46,1,47,21,-47,26,16,-58,-51,-34,-49,-28
-52,7,59,21,-53,32,28,-46,-51,-34,-49,-16
-46,13,59,16,-53,38,34,-46,-51,-28,-49,-16
-52,19,71,16,-59,44,34,-46,-45,-22,-49,-10
-52,19,71,16,-59,44,34,-40,-45,-22,-49,-10
-52,25,77,11,-65,50,34,-46,-51,-22,-49,-10
-40,25,65,5,-53,44,34,-52,-51,-16,-49,-5
-40,31,71,5,-53,50,34,-58,-51,-16,-49,0
-46,37,83,5,-65,62,34,-64,-57,-22,-49,0
-46,37,83,5,-65,62,34,-64,-51,-22,-49,0
-52,43,95,5,-71,68,34,-64,-51,-28,-49,0
-46,43,89,5,-65,68,28,-64,-57,-34,-49,0
-40,43,83,-1,-59,62,28,-58,-51,-34,-49,-5
-40,43,83,-1,-59,62,16,-64,-51,-34,-49,-5
-46,43,89,5,-65,68,16,-64,-51,-34,-37,0
-46,49,95,-1,-71,74,11,-70,-57,-28,-31,0
-46,55,101,-1,-71,80,11,-76,-57,-28,-31,6
-46,61,107,-7,-77,86,11,-82,-57,-28,-31,12
-40,55,95,-7,-65,74,11,-88,-63,-28,-25,12
-34,61,95,-13,-65,80,6,-94,-63,-28,-31,12
-28,61,89,-19,-59,74,0,-100,-69,-22,-31,12
-28,67,95,-19,-59,80,-6,-100,-69,-28,-31,12
-28,67,95,-19,-59,80,-12,-106,-75,-40,-43,12
-28,67,95,-19,-59,80,-18,-118,-87,-52,-55,6
-22,67,89,-19,-53,80,-18,-118,-87,-58,-60,6
-22,67,89,-19,-53,80,-12,-118,-93,-58,-60,6
-16,67,83,-25,-47,74,-18,-118,-87,-52,-49,6
-16,61,77,-25,-47,68,-24,-124,-93,-52,-43,12
-16,61,77,-25,-47,68,-36,-124,-99,-46,-43,12
-4,61,65,-31,-35,62,-36,-124,-87,-40,-37,12
2,61,59,-31,-29,62,-42,-124,-81,-34,-37,12
2,61,59,-31,-29,62,-36,-112,-69,-22,-31,18
2,61,59,-31,-29,62,-36,-100,-63,-22,-25,18
2,49,47,-25,-23,50,-36,-88,-63,-22,-31,12
2,37,35,-19,-17,38,-30,-88,-69,-22,-37,12
2,31,29,-13,-11,32,-30,-82,-63,-22,-37,6
8,19,11,-13,1,14,-24,-82,-69,-22,-37,6
8,13,5,-13,1,8,-18,-82,-69,-22,-37,6
2,1,-1,-1,1,2,-18,-82,-69,-28,-43,6
-16,-17,-1,16,-5,-10,-6,-76,-69,-22,-43,-5
-28,-35,-7,27,-11,-22,-6,-76,-69,-28,-55,-10
-34,-46,-13,39,-11,-28,-6,-76,-75,-40,-60,-22
-40,-51,-13,39,-17,-34,-12,-82,-81,-52,-71,-34
-40,-57,-19,45,-11,-40,-18,-94,-93,-64,-83,-46
-40,-63,-25,45,-11,-46,-24,-94,-99,-70,-83,-46
-40,-57,-19,45,-11,-40,-36,-100,-111,-70,-83,-40
-28,-63,-37,39,1,-51,-48,-106,-117,-70,-83,-40
-22,-69,-49,45,13,-56,-54,-106,-117,-64,-83,-40
-16,-69,-55,39,19,-62,-66,-100,-111,-52,-77,-40
2,-63,-65,27,31,-62,-72,-94,-99,-34,-65,-34
13,-51,-65,16,36,-56,-78,-88,-87,-28,-60,-22
30,-41,-71,11,53,-51,-96,-94,-87,-16,-49,-16
36,-29,-65,-1,53,-46,-114,-94,-75,2,-37,-10
48,-17,-65,-13,59,-40,-126,-100,-69,13,-13,0
60,1,-60,-31,59,-28,-138,-94,-57,36,11,18
72,19,-55,-43,65,-16,-150,-100,-45,60,35,42
90,31,-60,-55,77,-10,-168,-94,-27,84,59,66
102,49,-55,-73,77,2,-198,-100,-15,114,83,84
120,67,-55,-91,89,8,-216,-106,-3,144,101,102
138,85,-55,-109,95,20,-240,-112,3,162,125,114
162,109,-55,-133,107,32,-270,-124,14,192,155,132
204,145,-60,-175,131,44,-300,-124,25,234,191,156
240,181,-60,-211,149,62,-330,-130,43,282,233,180
252,217,-37,-235,143,92,-360,-136,61,324,281,222
264,253,-13,-259,137,122,-384,-142,91,366,329,252
288,289,-1,-289,143,146,-396,-136,115,408,377,288
318,325,5,-319,155,170,-402,-118,151,462,425,330
342,367,23,-349,161,200,-408,-94,199,528,473,372
378,421,41,-397,167,236,-420,-40,271,612,527,414
414,475,59,-439,179,272,-420,36,355,696,581,450
450,529,77,-487,185,308,-414,120,445,780,641,486
480,589,107,-535,185,350,-408,198,529,864,701,534
510,655,143,-577,185,404,-408,246,595,936,773,582
546,715,167,-625,191,446,-402,300,667,1002,833,630
570,781,209,-673,179,500,-390,342,739,1068,893,672
588,853,263,-721,161,560,-390,330,781,1122,947,720
600,925,323,-763,137,626,-414,234,775,1158,1007,774
612,1033,419,-823,95,728,-474,24,709,1188,1073,840
624,1153,527,-889,47,842,-582,-268,583,1200,1151,924
630,1291,659,-955,-11,980,-714,-628,403,1218,1241,1020
648,1435,785,-1039,-65,1112,-882,-1000,229,1254,1349,1140
678,1579,899,-1123,-107,1244,-1056,-1312,79,1314,1499,1272
720,1723,1001,-1219,-137,1364,-1242,-1558,-33,1398,1661,1416
786,1861,1073,-1321,-143,1472,-1440,-1774,-159,1470,1835,1572
846,1987,1139,-1411,-143,1568,-1644,-1966,-285,1542,2003,1728
906,2113,1205,-1507,-149,1664,-1830,-2134,-393,1614,2165,1884
966,2233,1265,-1597,-149,1754,-1980,-2278,-489,1692,2321,2034
1014,2323,1307,-1663,-143,1820,-2094,-2356,-537,1782,2458,2160
1050,2371,1319,-1705,-131,1850,-2148,-2362,-525,1902,2584,2256
1074,2371,1295,-1717,-107,1838,-2154,-2296,-453,2052,2692,2328
1074,2311,1235,-1687,-77,1778,-2100,-2128,-309,2220,2782,2352
1050,2173,1121,-1609,-35,1652,-1974,-1864,-105,2376,2818,2298
1008,1963,953,-1483,31,1460,-1818,-1588,55,2418,2746,2178
942,1681,737,-1309,101,1214,-1644,-1348,91,2226,2488,1962
846,1375,527,-1105,161,956,-1440,-1174,14,1806,2069,1674
732,1087,353,-907,191,722,-1230,-1048,-105,1320,1589,1368
594,829,233,-709,179,536,-1032,-952,-261,834,1145,1074
474,625,149,-547,161,392,-846,-868,-363,456,779,822
366,463,95,-409,137,284,-690,-766,-405,216,509,624
282,355,71,-313,107,218,-564,-664,-405,90,329,474
216,271,53,-241,83,164,-468,-568,-393,18,209,360
162,205,41,-181,59,128,-384,-466,-351,-16,131,276
108,139,29,-121,41,86,-312,-370,-315,-40,71,204
60,79,17,-67,25,50,-234,-280,-261,-58,29,150
30,25,-7,-25,19,14,-156,-196,-201,-64,5,102
2,-23,-25,11,13,-22,-84,-118,-141,-64,-19,60
-22,-69,-49,45,13,-56,-18,-46,-87,-58,-49,18
-40,-105,-65,69,13,-86,22,1,-45,-58,-77,-22
-70,-135,-65,99,-5,-98,46,36,-21,-58,-113,-58
-82,-159,-77,117,-5,-116,64,48,-21,-64,-137,-94
-94,-165,-71,129,-11,-116,70,60,-27,-76,-161,-112
-94,-171,-77,129,-11,-122,76,66,-39,-88,-173,-124
-88,-171,-83,123,-5,-128,82,72,-45,-106,-185,-130
-100,-183,-83,135,-11,-134,94,78,-57,-124,-191,-136
-112,-201,-89,153,-11,-146,118,84,-57,-136,-197,-136
-124,-213,-89,165,-17,-152,136,102,-51,-148,-209,-148
-130,-225,-95,177,-17,-158,148,114,-39,-154,-215,-154
-130,-237,-107,183,-11,-170,160,132,-33,-154,-233,-172
-136,-249,-113,189,-11,-182,172,138,-33,-154,-245,-184
-148,-255,-107,195,-23,-182,172,144,-27,-160,-257,-196
-154,-255,-101,201,-29,-176,166,144,-27,-160,-263,-196
-154,-255,-101,201,-29,-176,172,144,-27,-166,-263,-202
-148,-255,-107,195,-23,-182,178,144,-27,-172,-269,-208
-148,-255,-107,195,-23,-182,190,156,-21,-172,-257,-208
-154,-255,-101,201,-29,-176,196,168,-15,-178,-257,-208
-154,-261,-107,207,-23,-182,208,180,-9,-178,-263,-208
-160,-267,-107,207,-29,-188,214,186,-9,-184,-269,-214
-154,-261,-107,207,-23,-182,214,198,-3,-184,-275,-214
-142,-261,-119,201,-11,-188,214,204,-3,-178,-281,-220
-142,-261,-119,201,-11,-188,214,204,-3,-178,-293,-232
-142,-261,-119,201,-11,-188,226,210,3,-184,-299,-232
-142,-261,-119,201,-11,-188,232,210,3,-184,-299,-232
-148,-267,-119,201,-17,-194,238,216,3,-184,-299,-238
-154,-273,-119,213,-17,-194,244,222,9,-190,-299,-238
-160,-279,-119,213,-23,-200,250,234,14,-190,-299,-238
-160,-285,-125,219,-17,-206,256,246,14,-190,-305,-238
-160,-285,-125,219,-17,-206,256,258,19,-190,-305,-244
-154,-285,-131,219,-11,-206,262,264,19,-196,-311,-244
-148,-291,-143,213,-5,-218,262,264,25,-190,-305,-250
-154,-297,-143,225,-5,-218,262,276,37,-190,-311,-244
-160,-297,-137,225,-11,-218,268,282,43,-190,-311,-244
-166,-303,-137,231,-17,-218,274,294,43,-190,-317,-244
-160,-297,-137,225,-11,-218,280,306,49,-190,-317,-244
-160,-303,-143,225,-11,-224,286,318,55,-190,-317,-250
-166,-309,-143,237,-11,-224,298,324,55,-202,-323,-256
-166,-309,-143,237,-11,-224,304,336,61,-202,-323,-250
-160,-309,-149,231,-5,-230,310,348,73,-196,-323,-256
-160,-309,-149,231,-5,-230,322,354,73,-196,-323,-256
-160,-315,-155,231,-5,-236,328,366,73,-196,-323,-256
-166,-321,-155,243,-5,-236,334,378,79,-196,-329,-268
-166,-321,-155,243,-5,-236,340,384,91,-196,-329,-274
-172,-327,-155,243,-11,-242,346,396,97,-196,-335,-286
-166,-333,-167,249,1,-248,364,414,103,-202,-341,-286
-166,-339,-173,249,1,-254,370,432,109,-202,-347,-292
-166,-345,-179,255,7,-260,382,444,109,-202,-353,-292
-172,-345,-173,255,1,-260,388,456,115,-208,-353,-292
-184,-357,-173,267,-5,-266,394,468,115,-214,-359,-298
-196,-369,-173,279,-11,-272,400,480,121,-214,-371,-304
-190,-363,-173,273,-11,-266,412,498,127,-214,-377,-310
-190,-363,-173,273,-11,-266,424,510,133,-220,-383,-316
-196,-363,-167,273,-17,-266,436,528,145,-226,-383,-322
-196,-369,-173,279,-11,-272,448,546,157,-226,-389,-328
-202,-375,-173,285,-17,-272,454,564,163,-226,-395,-334
-208,-381,-173,291,-17,-278,466,582,175,-232,-407,-334
-214,-393,-179,303,-17,-284,478,600,181,-238,-419,-346
-214,-399,-185,303,-17,-290,490,618,181,-238,-425,-352
-214,-405,-191,309,-11,-296,502,636,181,-244,-431,-364
-214,-411,-197,309,-11,-302,514,654,187,-250,-443,-376
-214,-411,-197,309,-11,-302,520,672,193,-256,-455,-382
-220,-423,-203,315,-11,-314,532,684,199,-262,-461,-382
-226,-435,-209,327,-11,-320,538,702,205,-262,-461,-382
-220,-441,-221,327,1,-332,550,720,217,-262,-467,-388
-220,-441,-221,327,1,-332,562,738,223,-268,-479,-394
-220,-447,-227,327,1,-338,574,750,229,-268,-491,-400
-220,-453,-233,333,7,-344,580,768,229,-274,-503,-412
-232,-471,-239,345,1,-356,592,786,235,-286,-509,-424
-238,-483,-245,357,1,-362,610,804,241,-286,-515,-436
-238,-489,-251,363,7,-368,622,816,247,-298,-527,-442
-238,-489,-251,363,7,-368,628,834,253,-304,-533,-448
-238,-489,-251,363,7,-368,634,852,259,-310,-539,-454
-238,-483,-245,357,1,-362,640,864,265,-310,-545,-454
-238,-489,-251,363,7,-368,652,876,265,-316,-557,-460
-244,-495,-251,363,1,-374,652,888,265,-322,-563,-460
-238,-501,-263,369,13,-380,658,888,265,-322,-563,-466
-226,-501,-275,363,25,-386,658,900,271,-316,-569,-472
-220,-501,-281,357,31,-392,658,906,277,-316,-575,-460
-220,-513,-293,363,36,-404,658,918,283,-322,-581,-460
-226,-519,-293,369,31,-404,658,918,289,-328,-587,-460
-220,-519,-299,363,36,-410,658,924,289,-334,-587,-460
-220,-513,-293,363,36,-404,658,930,289,-334,-581,-460
-214,-513,-299,363,41,-404,658,924,283,-334,-581,-460
-214,-513,-299,363,41,-404,646,918,283,-328,-575,-460
-214,-507,-293,357,36,-398,640,912,283,-328,-575,-448
-214,-501,-287,357,36,-392,634,906,283,-328,-569,-448
-202,-489,-287,345,41,-386,622,894,277,-322,-563,-448
-190,-477,-287,333,47,-380,616,882,277,-322,-557,-442
-178,-465,-287,321,53,-374,604,870,283,-310,-545,-430
-178,-459,-281,315,47,-368,586,858,277,-310,-539,-424
-172,-447,-275,303,47,-362,568,840,277,-298,-533,-412
-178,-441,-263,309,41,-350,550,828,277,-286,-521,-400
-166,-429,-263,297,47,-344,526,804,265,-274,-509,-388
-148,-411,-263,273,53,-338,502,774,253,-268,-497,-370
-136,-393,-257,261,59,-326,484,738,241,-262,-479,-358
-130,-375,-245,249,53,-308,460,708,235,-250,-455,-340
-130,-369,-239,249,53,-302,436,666,223,-244,-437,-322
-118,-351,-233,231,53,-290,412,630,211,-232,-425,-310
-106,-339,-233,219,59,-284,388,594,199,-226,-407,-286
-94,-321,-227,207,65,-272,364,564,187,-220,-395,-274
-88,-303,-215,189,59,-260,340,528,169,-214,-377,-256
-76,-279,-203,171,59,-242,310,492,151,-196,-353,-238
-70,-261,-191,165,59,-224,280,456,139,-178,-329,-214
-70,-237,-167,153,47,-200,256,408,121,-172,-299,-202
-64,-213,-149,135,41,-182,232,372,109,-154,-275,-178
-64,-195,-131,123,31,-164,214,324,97,-148,-257,-166
-64,-189,-125,123,31,-158,196,288,79,-136,-239,-154
-58,-177,-119,117,31,-146,184,252,67,-130,-227,-136
-46,-165,-119,105,36,-140,166,222,55,-124,-221,-124
-40,-159,-119,93,36,-140,148,198,43,-124,-215,-112
-40,-147,-107,87,31,-128,136,174,37,-118,-203,-94
-40,-135,-95,81,25,-116,118,156,25,-112,-185,-76
-34,-123,-89,75,25,-104,100,126,14,-106,-167,-64
-40,-117,-77,75,19,-98,82,102,9,-100,-149,-58
-52,-105,-55,75,1,-80,64,72,-3,-88,-131,-52
-58,-93,-37,75,-11,-62,52,54,-9,-82,-113,-46
-52,-87,-37,63,-11,-62,40,36,-15,-76,-107,-34
-52,-81,-31,63,-11,-56,40,24,-21,-70,-101,-34
-46,-75,-31,57,-11,-51,34,12,-27,-64,-95,-22
-46,-75,-31,57,-11,-51,34,1,-33,-64,-89,-22
-52,-75,-25,57,-17,-51,28,-4,-45,-64,-83,-10
-58,-69,-13,63,-23,-40,22,-10,-45,-58,-77,-5
-58,-69,-13,63,-23,-40,16,-22,-51,-58,-71,-5
-52,-69,-19,57,-17,-46,16,-34,-57,-58,-65,-5
-46,-63,-19,51,-17,-40,16,-40,-57,-58,-60,-5
-46,-57,-13,51,-17,-34,16,-52,-57,-58,-55,-5
-46,-57,-13,51,-17,-34,11,-58,-57,-52,-49,-5
-46,-51,-7,45,-23,-28,11,-58,-57,-46,-49,-5
-52,-51,-1,45,-29,-28,11,-52,-57,-40,-43,-5
-52,-51,-1,45,-29,-28,11,-52,-57,-40,-43,0
-58,-51,5,51,-35,-22,11,-52,-51,-34,-37,0
-52,-46,5,45,-29,-22,11,-58,-51,-34,-43,12
-52,-41,11,45,-29,-16,11,-64,-57,-34,-43,12
-52,-46,5,45,-29,-22,6,-70,-57,-34,-43,18
-52,-51,-1,45,-29,-28,6,-76,-63,-40,-43,18
-52,-46,5,45,-29,-22,6,-76,-63,-40,-43,18
-58,-51,5,51,-35,-22,0,-76,-63,-46,-43,12
-58,-51,5,51,-35,-22,0,-82,-57,-40,-43,6
-58,-46,11,51,-35,-16,0,-82,-57,-40,-43,6
-58,-46,11,51,-35,-16,-6,-88,-57,-34,-43,0
-58,-46,11,51,-35,-16,-6,-82,-51,-28,-43,0
-64,-46,17,51,-41,-16,0,-88,-51,-28,-43,12
-64,-46,17,51,-41,-16,0,-82,-51,-28,-43,12
-52,-46,5,45,-29,-22,0,-82,-51,-28,-37,12
-40,-41,-1,39,-17,-22,-6,-82,-51,-34,-37,18
-34,-41,-7,39,-11,-22,-6,-82,-51,-28,-37,24
-34,-29,5,33,-17,-10,-6,-82,-51,-28,-37,24
-34,-29,5,33,-17,-10,-6,-82,-57,-34,-37,24
-40,-29,11,33,-23,-10,-6,-82,-57,-28,-31,18
-40,-29,11,33,-23,-10,-12,-82,-51,-28,-25,18
-52,-35,17,39,-35,-10,-12,-82,-57,-28,-25,24
-52,-35,17,39,-35,-10,-12,-82,-57,-22,-25,24
-52,-29,23,39,-35,-4,-12,-82,-57,-22,-25,24
-40,-29,11,33,-23,-10,-12,-82,-51,-28,-25,24
-28,-29,-1,27,-11,-16,-6,-82,-51,-22,-25,18
-22,-29,-7,27,-5,-16,-6,-76,-51,-22,-25,18
-16,-29,-13,21,1,-22,-6,-70,-45,-22,-19,18
-10,-29,-19,21,7,-22,-6,-70,-45,-16,-25,12
-22,-35,-13,27,-5,-22,-6,-70,-45,-22,-25,12
-28,-35,-7,27,-11,-22,0,-70,-39,-10,-19,24
-28,-29,-1,27,-11,-16,0,-64,-39,-4,-19,30
-34,-29,5,33,-17,-10,0,-64,-39,2,-19,30
-40,-29,11,33,-23,-10,0,-64,-39,2,-13,30
-40,-23,17,27,-29,-4,0,-64,-33,2,-13,30
-34,-17,17,27,-23,2,0,-58,-33,-4,-13,30
-40,-23,17,27,-29,-4,0,-52,-27,-4,-13,24
-40,-29,11,33,-23,-10,0,-52,-27,-10,-13,18
-34,-35,-1,33,-17,-16,-6,-52,-27,-10,-13,18
-40,-41,-1,39,-17,-22,-6,-52,-33,-16,-25,24
-40,-41,-1,39,-17,-22,-6,-52,-33,-16,-31,24
-40,-35,5,33,-23,-16,0,-46,-33,-16,-37,24
-34,-29,5,33,-17,-10,6,-46,-33,-16,-43,24
-40,-29,11,33,-23,-10,6,-52,-39,-16,-43,24
-40,-29,11,33,-23,-10,6,-58,-39,-22,-43,24
-40,-35,5,33,-23,-16,6,-58,-39,-22,-37,18
-40,-35,5,33,-23,-16,0,-58,-39,-28,-31,12
-40,-29,11,33,-23,-10,6,-52,-27,-22,-31,24
-40,-23,17,27,-29,-4,6,-40,-21,-16,-25,30
-40,-23,17,27,-29,-4,6,-40,-21,-16,-25,36
-40,-29,11,33,-23,-10,6,-46,-27,-16,-31,36
-40,-29,11,33,-23,-10,6,-46,-27,-22,-37,30
-40,-35,5,33,-23,-16,6,-46,-33,-22,-37,24
-40,-35,5,33,-23,-16,11,-46,-27,-22,-37,18
-34,-29,5,33,-17,-10,11,-46,-27,-16,-31,18
-40,-35,5,33,-23,-16,11,-46,-27,-22,-31,18
-34,-35,-1,33,-17,-16,16,-46,-27,-28,-31,18
-34,-35,-1,33,-17,-16,16,-40,-33,-34,-25,18
-34,-35,-1,33,-17,-16,16,-46,-33,-40,-25,18
-34,-41,-7,39,-11,-22,16,-46,-33,-46,-37,18
-40,-41,-1,39,-17,-22,16,-40,-33,-52,-37,18
-40,-41,-1,39,-17,-22,22,-40,-33,-46,-37,12
-40,-41,-1,39,-17,-22,22,-40,-33,-40,-37,12
-40,-35,5,33,-23,-16,16,-40,-33,-34,-43,12
-40,-35,5,33,-23,-16,16,-40,-33,-34,-43,18
-40,-35,5,33,-23,-16,16,-40,-27,-22,-43,24
-46,-41,5,45,-23,-16,22,-34,-21,-22,-37,24
-46,-41,5,45,-23,-16,22,-34,-21,-28,-31,24
-40,-41,-1,39,-17,-22,28,-40,-21,-34,-31,18
-40,-41,-1,39,-17,-22,28,-40,-21,-34,-25,12
-40,-46,-7,39,-17,-28,28,-46,-21,-40,-25,12
-40,-46,-7,39,-17,-28,28,-52,-27,-40,-31,6
-40,-46,-7,39,-17,-28,28,-52,-27,-40,-31,6
-40,-46,-7,39,-17,-28,28,-52,-33,-40,-43,6
-34,-46,-13,39,-11,-28,28,-52,-33,-46,-43,6
-34,-46,-13,39,-11,-28,22,-46,-33,-46,-49,6
-46,-46,-1,45,-23,-22,22,-46,-39,-52,-49,6
-40,-41,-1,39,-17,-22,22,-40,-33,-52,-49,6
-40,-35,5,33,-23,-16,22,-40,-33,-58,-55,0
-40,-35,5,33,-23,-16,22,-40,-27,-58,-55,0
-40,-35,5,33,-23,-16,22,-46,-33,-58,-49,12
-40,-46,-7,39,-17,-28,22,-46,-27,-52,-37,12
-46,-46,-1,45,-23,-22,28,-52,-33,-52,-37,12
-46,-51,-7,45,-23,-28,28,-58,-33,-52,-31,18
-40,-46,-7,39,-17,-28,22,-58,-33,-52,-31,18
-40,-41,-1,39,-17,-22,22,-64,-27,-46,-31,18
-34,-41,-7,39,-11,-22,16,-64,-33,-58,-37,12
-40,-41,-1,39,-17,-22,16,-70,-39,-70,-43,18
-52,-41,11,45,-29,-16,11,-70,-39,-70,-49,12
-52,-46,5,45,-29,-22,11,-70,-39,-70,-55,6
-46,-46,-1,45,-23,-22,11,-76,-39,-70,-55,6
-40,-41,-1,39,-17,-22,11,-76,-45,-70,-55,6
-40,-41,-1,39,-17,-22,16,-76,-45,-64,-49,12
-40,-46,-7,39,-17,-28,16,-70,-51,-58,-43,18
-46,-46,-1,45,-23,-22,16,-70,-51,-58,-43,18
-46,-41,5,45,-23,-16,22,-76,-51,-64,-49,18
-46,-41,5,45,-23,-16,16,-76,-51,-64,-49,18
-40,-35,5,33,-23,-16,16,-70,-51,-64,-49,12
-52,-35,17,39,-35,-10,16,-70,-51,-64,-49,6
-58,-41,17,51,-35,-10,16,-70,-51,-64,-55,6
-52,-41,11,45,-29,-16,11,-76,-57,-70,-55,0
-52,-35,17,39,-35,-10,6,-82,-63,-70,-55,-5
-46,-29,17,39,-29,-4,6,-82,-69,-76,-55,0
-46,-29,17,39,-29,-4,6,-82,-75,-82,-55,6
-46,-35,11,39,-29,-10,0,-88,-75,-88,-55,6
-40,-35,5,33,-23,-16,6,-88,-75,-82,-49,12
-34,-29,5,33,-17,-10,6,-88,-75,-82,-49,12
-34,-23,11,27,-23,-4,6,-88,-75,-82,-49,18
-40,-29,11,33,-23,-10,11,-94,-75,-82,-55,12
-52,-29,23,39,-35,-4,11,-100,-75,-82,-55,12
-58,-41,17,51,-35,-10,11,-106,-81,-88,-55,6
-64,-41,23,51,-41,-10,11,-106,-81,-88,-55,6
-52,-35,17,39,-35,-10,11,-100,-75,-82,-55,6
-40,-29,11,33,-23,-10,11,-100,-75,-82,-49,6
-40,-29,11,33,-23,-10,11,-100,-81,-88,-55,6
-40,-29,11,33,-23,-10,11,-94,-81,-88,-55,0
-34,-29,5,33,-17,-10,11,-100,-81,-88,-55,0
-34,-29,5,33,-17,-10,11,-100,-87,-88,-55,6
-40,-29,11,33,-23,-10,11,-106,-87,-88,-55,12
-46,-29,17,39,-29,-4,11,-106,-93,-88,-55,6
-58,-35,23,45,-41,-4,11,-100,-93,-88,-55,0
-64,-35,29,45,-47,-4,11,-106,-93,-88,-60,-5
-46,-29,17,39,-29,-4,11,-100,-87,-88,-60,0
-40,-23,17,27,-29,-4,11,-106,-87,-88,-55,-5
-40,-23,17,27,-29,-4,11,-106,-87,-88,-49,-5
-34,-23,11,27,-23,-4,6,-112,-87,-94,-43,0
-28,-23,5,21,-17,-10,0,-112,-87,-94,-49,6
-28,-23,5,21,-17,-10,6,-112,-87,-94,-55,6
-28,-23,5,21,-17,-10,6,-106,-93,-94,-60,0
-34,-29,5,33,-17,-10,6,-106,-93,-94,-60,6
-46,-41,5,45,-23,-16,6,-106,-99,-94,-65,6
-46,-41,5,45,-23,-16,6,-106,-99,-82,-65,6
-46,-35,11,39,-29,-10,-6,-112,-93,-82,-65,0
-46,-29,17,39,-29,-4,-6,-112,-93,-82,-65,6
-46,-29,17,39,-29,-4,-6,-118,-93,-82,-65,6
-46,-29,17,39,-29,-4,-6,-124,-93,-88,-65,12
-52,-29,23,39,-35,-4,-6,-124,-93,-94,-65,12
-58,-35,23,45,-41,-4,-12,-124,-99,-88,-65,6
-52,-41,11,45,-29,-16,-6,-118,-93,-88,-65,6
-52,-46,5,45,-29,-22,-6,-112,-93,-88,-65,6
-64,-46,17,51,-41,-16,-6,-112,-99,-88,-65,6
-70,-51,17,57,-47,-16,-6,-112,-99,-82,-65,0
-64,-46,17,51,-41,-16,0,-112,-99,-82,-65,0
-58,-41,17,51,-35,-10,-6,-112,-99,-82,-71,6
-46,-35,11,39,-29,-10,6,-106,-93,-82,-65,6
-40,-29,11,33,-23,-10,11,-100,-87,-76,-65,12
-34,-23,11,27,-23,-4,11,-94,-81,-64,-60,12
-34,-17,17,27,-23,2,16,-88,-75,-58,-55,18
-46,-17,29,33,-35,8,22,-82,-69,-52,-49,18
-46,-11,35,27,-41,14,34,-82,-63,-46,-43,18
-40,1,41,16,-41,20,40,-82,-57,-40,-37,24
-34,13,47,11,-41,32,40,-82,-51,-34,-37,30
-40,25,65,5,-53,44,40,-82,-51,-28,-31,36
-40,31,71,5,-53,50,46,-82,-51,-28,-31,42
-40,37,77,-1,-59,56,40,-82,-51,-28,-31,42
-40,37,77,-1,-59,56,40,-76,-57,-34,-31,42
-40,43,83,-1,-59,62,40,-76,-57,-34,-31,42
-40,49,89,-7,-65,68,40,-82,-57,-34,-25,42
-52,43,95,5,-71,68,40,-88,-57,-34,-25,42
-52,43,95,5,-71,68,34,-88,-57,-40,-31,42
-40,43,83,-1,-59,62,34,-94,-51,-46,-31,42
-40,37,77,-1,-59,56,28,-94,-51,-40,-31,36
-40,37,77,-1,-59,56,28,-94,-51,-34,-25,42
-28,49,77,-13,-53,62,22,-94,-45,-34,-19,54
-28,61,89,-19,-59,74,16,-94,-45,-28,-13,60
-28,67,95,-19,-59,80,11,-94,-51,-22,-13,72
-28,67,95,-19,-59,80,11,-94,-51,-22,-13,72
-28,73,101,-25,-65,86,11,-94,-51,-16,-7,72
-22,79,101,-25,-59,92,11,-94,-51,-16,-7,78
-22,79,101,-25,-59,92,6,-106,-63,-22,-7,72
-22,73,95,-25,-59,86,0,-118,-69,-28,-19,72
-22,73,95,-25,-59,86,-6,-124,-81,-40,-25,72
-28,67,95,-19,-59,80,-12,-130,-93,-46,-19,66
-28,67,95,-19,-59,80,-18,-136,-93,-46,-19,66
-16,73,89,-31,-53,80,-18,-130,-87,-40,-19,66
-10,79,89,-31,-47,86,-18,-130,-81,-34,-19,66
2,79,77,-37,-35,80,-18,-136,-87,-34,-19,78
13,79,65,-43,-23,74,-30,-142,-93,-34,-19,78
18,73,53,-43,-17,68,-24,-136,-87,-34,-13,78
13,67,53,-37,-17,62,-18,-124,-81,-28,-13,78
8,67,59,-37,-23,62,-18,-118,-69,-22,-7,78
8,61,53,-37,-23,56,-18,-106,-63,-16,-7,78
8,55,47,-31,-17,50,-12,-100,-57,-16,-13,78
13,43,29,-25,-5,38,-18,-88,-51,-10,-13,78
13,43,29,-25,-5,38,-18,-82,-45,-10,-13,84
13,31,17,-19,1,26,-18,-88,-45,-10,-13,72
13,19,5,-13,7,14,-24,-94,-51,-10,-19,60
8,7,-1,-7,7,2,-24,-94,-57,-16,-31,54
2,-5,-7,5,7,-4,-24,-100,-63,-22,-43,48
-10,-29,-19,21,7,-22,-12,-100,-75,-34,-55,30
-22,-41,-19,33,1,-28,-6,-100,-81,-46,-60,18
-22,-46,-25,33,1,-34,-12,-106,-93,-52,-60,12
-22,-46,-25,33,1,-34,-18,-112,-99,-64,-65,12
-22,-51,-31,33,1,-40,-30,-118,-111,-70,-65,6
-22,-51,-31,33,1,-40,-42,-130,-117,-70,-65,0
-22,-51,-31,33,1,-40,-54,-136,-123,-64,-71,0
-10,-57,-49,33,19,-51,-60,-142,-123,-58,-71,0
-4,-57,-55,27,25,-56,-72,-142,-123,-58,-65,0
2,-63,-65,27,31,-62,-84,-142,-117,-40,-60,6
18,-51,-71,16,41,-56,-96,-142,-111,-28,-49,18
36,-46,-83,5,59,-62,-108,-136,-99,-10,-31,24
48,-35,-83,-7,65,-56,-120,-136,-93,8,-19,36
60,-29,-89,-13,77,-56,-132,-142,-87,13,-7,42
66,-11,-77,-25,71,-40,-144,-142,-75,36,11,48
84,7,-77,-43,83,-34,-156,-142,-69,54,35,66
96,19,-77,-55,89,-28,-174,-142,-57,78,53,78
114,43,-71,-73,95,-10,-192,-148,-51,102,71,96
138,61,-77,-97,107,-4,-216,-154,-45,120,95,120
150,73,-77,-109,113,2,-240,-166,-39,132,107,132
168,91,-77,-127,125,8,-264,-178,-27,156,131,156
186,115,-71,-145,131,26,-288,-190,-15,180,161,180
210,145,-65,-175,137,44,-318,-196,-3,210,197,210
228,181,-49,-205,137,68,-342,-208,14,252,239,234
252,223,-31,-235,143,98,-366,-214,31,300,281,264
282,259,-25,-265,155,122,-396,-220,49,342,323,306
318,295,-25,-301,173,140,-408,-208,73,390,365,330
360,337,-25,-349,191,158,-414,-196,115,438,413,372
402,385,-19,-391,209,188,-420,-148,175,516,479,414
438,445,5,-439,215,230,-426,-70,259,594,539,462
474,493,17,-481,227,260,-420,18,349,672,605,504
510,553,41,-529,233,302,-408,114,445,756,665,546
534,619,83,-571,227,356,-402,186,523,840,719,588
564,679,113,-619,227,398,-408,234,583,906,779,630
588,733,143,-661,221,440,-396,294,655,972,827,666
612,805,191,-709,209,500,-390,336,727,1050,893,708
630,877,245,-751,191,566,-390,312,769,1104,953,750
654,967,311,-805,173,644,-420,198,769,1152,1025,816
678,1081,401,-877,137,746,-504,-28,703,1188,1103,900
696,1219,521,-955,89,872,-624,-370,571,1200,1193,1002
708,1357,647,-1033,31,1004,-768,-760,403,1218,1295,1116
708,1489,779,-1099,-35,1136,-936,-1138,235,1254,1421,1242
738,1633,893,-1183,-77,1268,-1110,-1444,103,1326,1565,1374
792,1765,971,-1279,-89,1370,-1290,-1702,-33,1386,1715,1506
852,1891,1037,-1369,-89,1466,-1488,-1924,-183,1446,1859,1650
918,2023,1103,-1465,-89,1568,-1692,-2116,-327,1512,2015,1800
978,2149,1169,-1561,-95,1664,-1866,-2284,-459,1578,2171,1950
1026,2257,1229,-1639,-101,1748,-2004,-2410,-549,1644,2315,2088
1068,2335,1265,-1699,-95,1802,-2094,-2457,-573,1746,2452,2202
1092,2359,1265,-1723,-83,1814,-2124,-2433,-531,1866,2572,2292
1104,2335,1229,-1717,-59,1784,-2112,-2320,-423,1998,2662,2334
1098,2227,1127,-1657,-11,1682,-2010,-2086,-237,2154,2704,2316
1068,2041,971,-1555,47,1508,-1866,-1798,-51,2238,2668,2232
1014,1789,773,-1399,119,1286,-1698,-1540,31,2142,2476,2058
942,1501,557,-1219,191,1034,-1518,-1342,-15,1812,2117,1794
828,1207,377,-1015,227,794,-1320,-1192,-141,1374,1667,1488
684,949,263,-817,209,608,-1116,-1084,-285,906,1223,1188
540,727,185,-631,179,458,-930,-994,-411,504,851,936
414,553,137,-481,137,350,-762,-892,-459,228,575,726
306,421,113,-361,95,272,-624,-778,-447,78,389,564
234,325,89,-277,71,212,-510,-676,-417,-4,263,438
180,253,71,-217,53,164,-408,-562,-375,-52,173,342
132,181,47,-157,41,116,-324,-448,-327,-76,107,270
90,121,29,-103,31,80,-246,-346,-279,-88,53,198
54,73,17,-61,19,50,-174,-250,-225,-94,17,150
30,25,-7,-25,19,14,-108,-166,-165,-76,-7,108
8,-17,-25,5,19,-22,-42,-100,-117,-70,-25,66
-28,-63,-37,39,1,-51,6,-52,-75,-64,-55,36
-58,-99,-43,75,-11,-68,34,-22,-45,-58,-77,-5
-76,-129,-55,99,-11,-92,64,1,-27,-58,-101,-28
-82,-141,-60,111,-11,-98,76,6,-33,-76,-131,-58
-88,-153,-65,117,-11,-110,88,18,-39,-100,-149,-88
-88,-159,-71,117,-11,-116,94,24,-51,-124,-167,-100
-88,-165,-77,123,-5,-122,106,36,-57,-142,-173,-112
-100,-171,-71,129,-17,-122,112,42,-63,-160,-185,-124
-106,-177,-71,141,-17,-122,118,54,-57,-160,-185,-124
-118,-189,-71,153,-23,-128,130,66,-45,-160,-197,-142
-130,-207,-77,165,-29,-140,148,84,-39,-154,-203,-154
-142,-225,-83,183,-29,-152,160,96,-33,-154,-209,-166
-148,-231,-83,183,-35,-158,166,114,-27,-148,-221,-184
-148,-237,-89,189,-29,-164,172,120,-27,-154,-227,-196
-148,-237,-89,189,-29,-164,178,126,-27,-160,-239,-208
-148,-237,-89,189,-29,-164,184,132,-27,-166,-239,-208
-148,-243,-95,189,-29,-170,190,132,-27,-172,-245,-214
-142,-249,-107,195,-17,-176,196,138,-21,-166,-245,-220
-136,-249,-113,189,-11,-182,202,144,-15,-166,-245,-220
-136,-249,-113,189,-11,-182,214,156,-15,-166,-245,-220
-136,-249,-113,189,-11,-182,220,168,-9,-166,-239,-232
-142,-255,-113,195,-17,-182,220,174,-3,-166,-245,-238
-148,-261,-113,201,-17,-188,226,186,-3,-178,-257,-250
-154,-261,-107,207,-23,-182,226,198,3,-178,-263,-262
-154,-267,-113,207,-23,-188,232,204,9,-178,-269,-268
-148,-267,-119,201,-17,-194,238,210,14,-178,-275,-268
-154,-261,-107,207,-23,-182,244,210,14,-178,-275,-262
-154,-273,-119,213,-17,-194,244,216,9,-172,-269,-274
-160,-279,-119,213,-23,-200,250,216,9,-172,-269,-274
-154,-273,-119,213,-17,-194,250,222,14,-172,-263,-280
-148,-273,-125,207,-11,-200,256,234,14,-178,-263,-286
-148,-279,-131,207,-11,-206,256,246,19,-178,-275,-292
-148,-279,-131,207,-11,-206,256,252,31,-184,-281,-298
-154,-285,-131,219,-11,-206,262,252,31,-190,-287,-304
-154,-291,-137,219,-11,-212,262,258,31,-190,-293,-316
-160,-297,-137,225,-11,-218,268,264,37,-190,-299,-322
-160,-297,-137,225,-11,-218,280,270,43,-190,-293,-334
-160,-297,-137,225,-11,-218,292,282,49,-190,-293,-328
-172,-297,-125,231,-23,-212,298,288,55,-184,-299,-334
-178,-303,-125,237,-29,-212,298,300,55,-190,-299,-340
-184,-309,-125,243,-29,-218,310,318,61,-190,-299,-346
-178,-303,-125,237,-29,-212,310,330,61,-190,-305,-352
-166,-297,-131,231,-17,-212,322,342,73,-190,-305,-346
-160,-297,-137,225,-11,-218,328,354,79,-184,-305,-346
-160,-303,-143,225,-11,-224,340,360,79,-190,-317,-352
-160,-303,-143,225,-11,-224,352,384,91,-190,-323,-358
-166,-309,-143,237,-11,-224,358,396,97,-190,-329,-364
-178,-321,-143,249,-17,-230,370,414,109,-190,-335,-370
-190,-333,-143,261,-23,-236,382,426,115,-190,-335,-370
-196,-345,-149,267,-23,-248,382,438,109,-196,-341,-370
-208,-351,-143,273,-35,-248,394,456,115,-196,-347,-376
-202,-351,-149,273,-29,-248,400,468,115,-202,-341,-382
-202,-357,-155,279,-23,-254,406,480,115,-208,-353,-388
-208,-357,-149,279,-29,-254,418,492,121,-208,-359,-400
-214,-369,-155,291,-29,-260,424,504,127,-214,-371,-412
-214,-369,-155,291,-29,-260,436,528,139,-214,-383,-412
-208,-375,-167,285,-23,-272,442,546,145,-220,-383,-424
-208,-381,-173,291,-17,-278,448,564,151,-220,-389,-430
-214,-387,-173,297,-23,-278,460,582,157,-232,-401,-436
-220,-393,-173,303,-23,-284,472,600,163,-226,-407,-436
-214,-399,-185,303,-17,-290,484,618,163,-232,-407,-448
-214,-399,-185,303,-17,-290,502,636,169,-232,-407,-454
-220,-411,-191,309,-17,-302,520,654,169,-250,-425,-466
-226,-417,-191,321,-17,-302,526,672,175,-256,-437,-484
-232,-429,-197,327,-17,-314,538,696,187,-262,-443,-496
-232,-435,-203,327,-17,-320,544,708,193,-268,-449,-496
-226,-447,-221,333,-5,-332,550,726,199,-274,-455,-502
-226,-453,-227,339,1,-338,556,738,205,-274,-461,-496
-232,-465,-233,345,1,-350,568,750,211,-274,-461,-502
-238,-477,-239,357,1,-356,574,768,217,-274,-467,-514
-238,-477,-239,357,1,-356,586,780,217,-274,-479,-526
-238,-477,-239,357,1,-356,598,798,223,-280,-491,-538
-232,-471,-239,345,1,-356,610,810,229,-286,-497,-550
-232,-477,-245,351,7,-362,610,828,235,-292,-509,-556
-238,-483,-245,357,1,-362,616,840,241,-298,-521,-562
-238,-489,-251,363,7,-368,622,852,241,-310,-533,-568
-238,-495,-257,363,7,-374,634,864,235,-316,-539,-568
-244,-507,-263,369,7,-386,640,870,235,-322,-545,-580
-238,-507,-269,369,13,-386,634,876,241,-322,-539,-586
-232,-501,-269,363,19,-386,634,888,241,-328,-539,-586
-232,-507,-275,363,19,-392,634,894,241,-328,-539,-586
-226,-513,-287,369,31,-398,628,894,241,-328,-539,-598
-232,-507,-275,363,19,-392,622,894,241,-328,-551,-598
-232,-507,-275,363,19,-392,622,888,241,-322,-557,-592
-226,-507,-281,363,25,-392,622,882,241,-322,-551,-592
-226,-507,-281,363,25,-392,622,864,229,-328,-551,-592
-214,-501,-287,357,36,-392,616,858,223,-328,-551,-592
-208,-495,-287,345,36,-392,604,846,223,-328,-551,-580
-196,-483,-287,333,41,-386,598,840,229,-328,-545,-568
-190,-471,-281,327,41,-374,580,828,223,-328,-533,-556
-184,-459,-275,315,41,-368,562,816,217,-322,-521,-550
-178,-453,-275,315,47,-362,544,798,211,-316,-509,-550
-178,-441,-263,309,41,-350,526,786,205,-310,-503,-544
-172,-435,-263,297,41,-350,508,762,199,-304,-497,-538
-166,-423,-257,291,41,-338,496,732,193,-292,-491,-526
-160,-411,-251,279,41,-332,478,696,181,-280,-479,-514
-148,-399,-251,267,47,-326,460,660,169,-274,-461,-502
-130,-375,-245,249,53,-308,436,630,163,-262,-443,-478
-112,-357,-245,231,65,-302,412,600,157,-256,-419,-460
-112,-333,-221,219,53,-278,382,564,145,-250,-395,-442
-106,-321,-215,213,53,-266,352,528,127,-238,-383,-424
-106,-297,-191,201,41,-242,328,492,115,-226,-359,-406
-94,-285,-191,189,47,-236,310,450,103,-214,-347,-394
-76,-261,-185,165,53,-224,286,414,97,-196,-329,-376
-70,-243,-173,153,47,-206,268,378,85,-184,-311,-352
-70,-225,-155,147,41,-188,250,336,73,-178,-287,-340
-70,-213,-143,141,36,-176,232,300,61,-172,-269,-322
-64,-201,-137,129,36,-170,208,264,49,-166,-251,-304
-64,-189,-125,123,31,-158,190,228,31,-160,-239,-286
-58,-171,-113,111,25,-140,166,198,19,-148,-215,-268
-40,-147,-107,87,31,-128,142,174,14,-136,-197,-256
-40,-135,-95,81,25,-116,130,144,3,-130,-179,-250
-46,-129,-83,87,19,-104,112,114,-15,-124,-167,-244
-46,-123,-77,81,13,-98,106,90,-21,-112,-155,-232
-52,-111,-60,75,1,-86,94,66,-21,-106,-137,-214
-46,-105,-60,75,7,-80,88,48,-27,-106,-131,-202
-40,-93,-55,63,7,-74,76,24,-27,-100,-125,-190
-40,-87,-49,57,1,-68,58,12,-27,-100,-119,-178
-40,-81,-43,57,1,-62,52,1,-33,-94,-101,-178
-52,-81,-31,63,-11,-56,46,-4,-39,-82,-95,-172
-52,-75,-25,57,-17,-51,46,-10,-45,-76,-83,-166
-58,-69,-13,63,-23,-40,46,-22,-51,-70,-77,-160
-52,-63,-13,51,-23,-40,40,-34,-57,-70,-71,-160
-46,-57,-13,51,-17,-34,40,-46,-57,-64,-65,-154
-40,-57,-19,45,-11,-40,34,-58,-63,-58,-60,-154
-34,-51,-19,39,-11,-34,34,-70,-69,-52,-55,-148
-46,-57,-13,51,-17,-34,34,-76,-63,-46,-49,-148
-52,-51,-1,45,-29,-28,28,-76,-63,-40,-49,-148
-46,-51,-7,45,-23,-28,22,-76,-57,-40,-37,-148
-46,-51,-7,45,-23,-28,22,-76,-57,-40,-37,-148
-58,-57,-1,57,-29,-28,16,-76,-63,-34,-37,-148
-58,-57,-1,57,-29,-28,16,-82,-63,-28,-37,-148
-58,-57,-1,57,-29,-28,11,-88,-63,-28,-25,-148
-58,-51,5,51,-35,-22,11,-94,-69,-28,-31,-148
-46,-51,-7,45,-23,-28,11,-94,-69,-34,-31,-148
-46,-46,-1,45,-23,-22,11,-100,-75,-34,-37,-148
-46,-46,-1,45,-23,-22,11,-100,-75,-34,-37,-148
-52,-46,5,45,-29,-22,11,-100,-75,-34,-37,-154
-46,-41,5,45,-23,-16,11,-100,-75,-28,-37,-154
-46,-41,5,45,-23,-16,11,-94,-75,-28,-31,-154
-52,-35,17,39,-35,-10,11,-88,-75,-22,-31,-160
-52,-35,17,39,-35,-10,11,-88,-75,-22,-25,-154
-52,-41,11,45,-29,-16,11,-88,-75,-22,-25,-154
-52,-46,5,45,-29,-22,11,-88,-81,-28,-19,-160
-52,-51,-1,45,-29,-28,6,-88,-81,-34,-19,-160
-52,-46,5,45,-29,-22,6,-82,-75,-40,-19,-166
-40,-46,-7,39,-17,-28,6,-82,-69,-40,-13,-166
-40,-41,-1,39,-17,-22,0,-88,-69,-40,-7,-172
-46,-46,-1,45,-23,-22,6,-94,-75,-34,-13,-172
-40,-41,-1,39,-17,-22,6,-88,-75,-28,-13,-178
-40,-35,5,33,-23,-16,6,-88,-75,-22,-13,-172
-34,-29,5,33,-17,-10,11,-82,-75,-16,-7,-172
-40,-35,5,33,-23,-16,11,-82,-75,-10,-7,-172
-46,-35,11,39,-29,-10,11,-82,-69,-10,-7,-172
-46,-41,5,45,-23,-16,11,-82,-69,-10,-7,-172
-46,-41,5,45,-23,-16,11,-82,-63,-10,-1,-172
-40,-41,-1,39,-17,-22,11,-82,-63,-10,-1,-172
-46,-41,5,45,-23,-16,11,-82,-63,-10,-7,-166
-46,-41,5,45,-23,-16,11,-82,-63,-16,-13,-166
-46,-35,11,39,-29,-10,11,-82,-63,-22,-13,-166
-40,-35,5,33,-23,-16,11,-82,-63,-22,-13,-166
-40,-35,5,33,-23,-16,11,-82,-63,-22,-13,-166
-46,-35,11,39,-29,-10,11,-82,-63,-22,-13,-172
-52,-41,11,45,-29,-16,11,-82,-63,-22,-13,-178
-52,-41,11,45,-29,-16,0,-88,-69,-22,-13,-178
-40,-35,5,33,-23,-16,6,-82,-63,-22,-13,-172
-40,-35,5,33,-23,-16,6,-82,-57,-22,-19,-172
-40,-35,5,33,-23,-16,0,-76,-51,-22,-19,-172
-28,-29,-1,27,-11,-16,6,-70,-51,-22,-19,-172
-28,-29,-1,27,-11,-16,6,-70,-57,-28,-13,-166
-28,-29,-1,27,-11,-16,11,-64,-63,-28,-13,-166
-28,-23,5,21,-17,-10,11,-64,-63,-28,-13,-166
-28,-29,-1,27,-11,-16,11,-58,-57,-28,-7,-166
-28,-29,-1,27,-11,-16,11,-58,-57,-28,-7,-172
-34,-29,5,33,-17,-10,11,-64,-57,-34,-1,-166
-34,-29,5,33,-17,-10,16,-64,-57,-28,-7,-166
-22,-23,-1,21,-11,-10,22,-70,-57,-16,-7,-166
-22,-23,-1,21,-11,-10,28,-70,-57,-16,-13,-178
-28,-23,5,21,-17,-10,22,-64,-51,-10,-7,-178
-34,-17,17,27,-23,2,22,-58,-51,-16,-7,-178
-40,-23,17,27,-29,-4,22,-58,-51,-22,-7,-184
-52,-35,17,39,-35,-10,28,-58,-57,-28,-13,-190
-58,-41,17,51,-35,-10,28,-64,-57,-40,-13,-196
-52,-41,11,45,-29,-16,34,-58,-51,-34,-7,-196
-40,-35,5,33,-23,-16,34,-52,-45,-34,-7,-196
-40,-35,5,33,-23,-16,34,-52,-39,-34,-13,-196
-34,-35,-1,33,-17,-16,34,-52,-45,-34,-13,-202
-34,-35,-1,33,-17,-16,28,-58,-45,-34,-19,-208
-40,-41,-1,39,-17,-22,28,-58,-51,-34,-19,-214
-46,-41,5,45,-23,-16,34,-52,-45,-34,-13,-220
-52,-41,11,45,-29,-16,34,-52,-45,-40,-13,-220
-58,-41,17,51,-35,-10,40,-58,-45,-40,-13,-220
-52,-46,5,45,-29,-22,34,-64,-51,-46,-13,-220
-40,-41,-1,39,-17,-22,28,-64,-45,-46,-19,-220
-34,-35,-1,33,-17,-16,28,-58,-45,-40,-19,-214
-34,-35,-1,33,-17,-16,28,-58,-45,-40,-25,-214
-34,-35,-1,33,-17,-16,28,-58,-51,-40,-25,-214
-40,-35,5,33,-23,-16,28,-52,-51,-34,-19,-214
-40,-29,11,33,-23,-10,34,-52,-51,-34,-13,-214
-40,-35,5,33,-23,-16,34,-52,-51,-34,-7,-214
-46,-35,11,39,-29,-10,40,-52,-57,-34,-7,-208
-58,-41,17,51,-35,-10,46,-52,-51,-40,-7,-208
-58,-46,11,51,-35,-16,46,-52,-57,-46,-7,-208
-58,-46,11,51,-35,-16,40,-58,-57,-52,-7,-214
-52,-46,5,45,-29,-22,34,-64,-57,-52,-13,-220
-46,-46,-1,45,-23,-22,28,-70,-57,-58,-19,-214
-46,-46,-1,45,-23,-22,28,-70,-57,-52,-19,-214
-46,-46,-1,45,-23,-22,28,-64,-57,-46,-13,-208
-40,-46,-7,39,-17,-28,28,-70,-63,-52,-13,-208
-34,-46,-13,39,-11,-28,28,-76,-69,-52,-19,-208
-40,-46,-7,39,-17,-28,28,-76,-75,-58,-25,-208
-46,-46,-1,45,-23,-22,22,-82,-75,-64,-25,-208
-52,-46,5,45,-29,-22,28,-82,-75,-64,-25,-208
-58,-41,17,51,-35,-10,28,-82,-69,-64,-19,-196
-64,-41,23,51,-41,-10,22,-82,-69,-64,-13,-196
-64,-35,29,45,-47,-4,22,-88,-75,-70,-19,-196
-58,-41,17,51,-35,-10,16,-88,-75,-64,-13,-202
-52,-46,5,45,-29,-22,16,-94,-75,-58,-19,-208
-52,-41,11,45,-29,-16,16,-94,-75,-52,-19,-208
-58,-46,11,51,-35,-16,22,-94,-87,-58,-19,-208
-64,-51,11,51,-41,-22,22,-100,-93,-58,-25,-208
-64,-46,17,51,-41,-16,28,-106,-93,-64,-19,-208
-64,-46,17,51,-41,-16,28,-106,-99,-76,-19,-208
-58,-46,11,51,-35,-16,28,-100,-99,-76,-19,-202
-64,-41,23,51,-41,-10,28,-100,-93,-76,-25,-202
-58,-41,17,51,-35,-10,22,-100,-93,-76,-31,-208
-52,-41,11,45,-29,-16,22,-100,-93,-76,-25,-208
-64,-46,17,51,-41,-16,22,-106,-99,-76,-25,-214
-70,-51,17,57,-47,-16,22,-112,-99,-76,-19,-220
-76,-51,23,57,-53,-16,22,-118,-99,-76,-19,-220
-76,-51,23,57,-53,-16,28,-118,-99,-82,-25,-220
-70,-51,17,57,-47,-16,28,-118,-99,-82,-31,-220
-70,-51,17,57,-47,-16,28,-118,-99,-88,-37,-220
-70,-51,17,57,-47,-16,22,-118,-105,-94,-43,-220
-64,-57,5,57,-35,-28,22,-118,-111,-100,-49,-226
-70,-51,17,57,-47,-16,16,-112,-111,-94,-49,-232
-64,-46,17,51,-41,-16,16,-106,-111,-88,-37,-238
-64,-46,17,51,-41,-16,11,-112,-111,-88,-37,-244
-64,-46,17,51,-41,-16,16,-118,-105,-94,-31,-244
-64,-46,17,51,-41,-16,16,-124,-105,-94,-31,-244
-58,-46,11,51,-35,-16,16,-124,-105,-94,-19,-238
-58,-41,17,51,-35,-10,16,-124,-105,-100,-25,-238
-58,-46,11,51,-35,-16,16,-136,-111,-100,-37,-238
-58,-46,11,51,-35,-16,16,-136,-117,-106,-37,-238
-58,-46,11,51,-35,-16,16,-130,-111,-100,-37,-238
-52,-46,5,45,-29,-22,16,-130,-111,-94,-43,-244
-52,-46,5,45,-29,-22,16,-130,-111,-100,-43,-244
-52,-46,5,45,-29,-22,11,-130,-111,-100,-37,-244
-58,-57,-1,57,-29,-28,11,-130,-111,-106,-43,-244
-64,-69,-7,63,-29,-40,11,-136,-117,-112,-43,-256
-70,-63,5,63,-41,-28,11,-130,-117,-112,-43,-256
-64,-57,5,57,-35,-28,11,-130,-117,-112,-43,-256
-64,-51,11,51,-41,-22,11,-130,-111,-112,-37,-256
-58,-46,11,51,-35,-16,11,-130,-105,-112,-37,-256
-64,-41,23,51,-41,-10,11,-130,-105,-106,-31,-250
-70,-41,29,57,-47,-4,6,-130,-111,-112,-31,-250
-70,-41,29,57,-47,-4,6,-130,-117,-112,-37,-250
-70,-46,23,57,-47,-10,11,-130,-117,-112,-37,-244
-76,-46,29,57,-53,-10,16,-130,-111,-112,-31,-244
-76,-51,23,57,-53,-16,16,-130,-111,-112,-31,-244
-76,-51,23,57,-53,-16,22,-130,-111,-112,-31,-244
-70,-57,11,63,-41,-22,28,-130,-111,-112,-37,-244
-70,-51,17,57,-47,-16,28,-130,-117,-118,-37,-244
-70,-51,17,57,-47,-16,28,-130,-117,-124,-37,-238
-64,-51,11,51,-41,-22,28,-136,-111,-118,-31,-238
-70,-51,17,57,-47,-16,22,-136,-117,-118,-31,-232
-76,-63,11,63,-47,-28,16,-136,-117,-118,-31,-232
-76,-63,11,63,-47,-28,11,-136,-123,-118,-37,-232
-70,-63,5,63,-41,-28,11,-142,-123,-118,-37,-232
-70,-63,5,63,-41,-28,11,-136,-117,-112,-37,-232
-76,-63,11,63,-47,-28,11,-136,-117,-118,-37,-232
-76,-57,17,63,-47,-22,16,-136,-117,-118,-37,-226
-70,-51,17,57,-47,-16,16,-136,-111,-112,-31,-226
-70,-51,17,57,-47,-16,22,-142,-111,-112,-25,-220
-64,-46,17,51,-41,-16,22,-136,-105,-112,-31,-214
-58,-35,23,45,-41,-4,22,-124,-99,-106,-25,-214
-58,-23,35,39,-47,8,28,-118,-93,-94,-19,-202
-58,-17,41,39,-47,14,28,-106,-81,-76,-13,-196
-64,-5,59,33,-59,26,40,-100,-75,-64,-1,-190
-64,1,65,27,-65,32,40,-100,-75,-58,-1,-190
-58,7,65,27,-59,38,52,-100,-75,-52,5,-178
-58,13,71,21,-65,44,58,-100,-75,-58,5,-178
-58,1,59,27,-59,32,58,-94,-75,-58,11,-172
-64,1,65,27,-65,32,52,-94,-75,-64,17,-172
-64,1,65,27,-65,32,52,-94,-69,-64,17,-166
-58,7,65,27,-59,38,52,-94,-69,-64,17,-166
-52,13,65,16,-59,38,46,-94,-69,-64,17,-166
-58,19,77,21,-65,50,52,-100,-69,-64,11,-172
-58,19,77,21,-65,50,46,-100,-69,-58,11,-172
-58,19,77,21,-65,50,40,-100,-63,-58,11,-172
-64,19,83,21,-71,50,40,-94,-63,-52,11,-166
-70,19,89,27,-77,56,46,-94,-69,-52,11,-166
-58,25,83,16,-71,56,40,-100,-75,-58,11,-160
-52,31,83,11,-65,56,34,-100,-75,-64,17,-160
-52,31,83,11,-65,56,28,-100,-75,-58,23,-160
-58,31,89,16,-71,62,22,-106,-75,-58,23,-160
-58,31,89,16,-71,62,11,-112,-81,-64,17,-160
-46,37,83,5,-65,62,0,-118,-81,-64,17,-142
-40,49,89,-7,-65,68,-6,-118,-81,-70,17,-142
-34,55,89,-7,-59,74,-6,-130,-87,-76,11,-142
-28,55,83,-13,-53,68,-6,-136,-93,-76,11,-142
-22,55,77,-13,-47,68,0,-136,-99,-82,11,-142
-10,61,71,-25,-41,68,-6,-130,-99,-82,11,-148
-4,55,59,-25,-29,56,-6,-124,-99,-88,11,-148
-4,55,59,-25,-29,56,-6,-124,-93,-82,17,-142
-4,55,59,-25,-29,56,-12,-124,-99,-88,17,-142
2,55,53,-25,-23,56,-24,-124,-99,-94,23,-142
2,55,53,-25,-23,56,-24,-124,-93,-88,23,-136
2,61,59,-31,-29,62,-12,-112,-81,-76,29,-130
2,55,53,-25,-23,56,-12,-106,-75,-76,29,-130
8,49,41,-31,-17,44,-6,-100,-69,-76,23,-136
8,37,29,-25,-11,32,-6,-94,-69,-82,23,-136
13,25,11,-19,1,20,-6,-88,-69,-76,29,-142
13,13,-1,-13,7,8,-6,-88,-69,-76,29,-142
13,1,-13,-7,13,-4,-6,-88,-75,-82,23,-148
-4,-17,-13,11,7,-16,-6,-94,-81,-82,23,-154
-16,-35,-19,21,1,-28,0,-94,-81,-88,23,-160
-22,-35,-13,27,-5,-22,0,-94,-81,-94,23,-160
-34,-41,-7,39,-11,-22,0,-94,-87,-100,17,-166
-46,-46,-1,45,-23,-22,0,-100,-99,-112,5,-172
-52,-57,-7,51,-23,-34,-6,-118,-111,-124,5,-178
-58,-63,-7,57,-29,-34,-18,-124,-117,-130,-1,-184
-58,-69,-13,63,-23,-40,-24,-136,-129,-142,-1,-190
-46,-69,-25,57,-11,-46,-36,-148,-135,-136,-1,-190
-34,-69,-37,51,1,-51,-60,-160,-135,-136,-1,-184
-16,-63,-49,33,13,-56,-84,-160,-135,-136,5,-184
-4,-63,-60,27,25,-62,-96,-166,-141,-136,5,-178
2,-57,-60,27,31,-56,-114,-172,-141,-130,17,-172
13,-46,-60,16,36,-51,-126,-172,-135,-118,35,-166
24,-41,-65,11,47,-51,-144,-172,-129,-106,47,-154
30,-35,-65,5,47,-46,-156,-178,-123,-88,59,-142
42,-23,-65,-7,53,-40,-168,-184,-117,-76,65,-136
54,-11,-65,-19,59,-34,-174,-184,-111,-58,83,-124
78,7,-71,-37,77,-28,-186,-184,-93,-34,107,-106
96,25,-71,-61,83,-22,-198,-184,-81,-10,137,-94
114,37,-77,-73,95,-16,-222,-184,-81,13,155,-76
126,49,-77,-85,101,-10,-252,-202,-81,18,179,-58
144,67,-77,-103,113,-4,-288,-220,-87,36,197,-34
180,97,-83,-139,131,8,-312,-232,-87,60,227,-5
216,139,-77,-175,149,32,-336,-244,-87,84,251,24
240,169,-71,-205,155,50,-360,-256,-75,114,281,48
258,199,-60,-223,161,74,-384,-268,-63,150,305,72
276,229,-49,-253,161,92,-402,-280,-45,186,335,102
294,253,-43,-271,167,110,-414,-292,-27,228,371,126
330,289,-43,-307,185,128,-432,-280,3,276,413,162
372,337,-37,-355,203,152,-438,-250,43,330,467,210
420,391,-31,-403,227,182,-444,-196,109,402,533,258
468,445,-25,-457,245,212,-450,-106,187,474,593,312
516,505,-13,-511,263,248,-444,1,277,552,659,360
558,565,5,-559,275,290,-438,102,373,642,725,408
588,625,35,-607,275,332,-438,174,457,726,779,450
618,679,59,-643,281,374,-438,252,535,798,827,486
654,733,77,-691,287,410,-426,330,631,882,881,522
678,805,125,-739,275,470,-408,378,721,966,947,564
708,889,179,-799,263,536,-414,360,775,1038,1019,612
732,991,257,-859,239,626,-462,216,769,1092,1103,684
744,1111,365,-925,191,740,-558,-52,685,1122,1205,780
762,1243,479,-997,143,866,-690,-424,535,1140,1301,888
780,1393,611,-1087,83,1004,-840,-832,373,1170,1421,1008
804,1543,737,-1171,36,1142,-1002,-1216,211,1224,1553,1140
828,1681,851,-1255,-11,1268,-1170,-1528,79,1284,1691,1272
876,1807,929,-1339,-23,1370,-1362,-1816,-75,1332,1823,1410
918,1927,1007,-1417,-41,1472,-1566,-2062,-225,1374,1961,1554
978,2047,1067,-1507,-41,1562,-1758,-2272,-375,1416,2105,1704
1038,2161,1121,-1597,-41,1646,-1920,-2439,-519,1452,2231,1836
1092,2245,1151,-1669,-29,1700,-2040,-2535,-609,1506,2357,1956
1146,2293,1145,-1717,1,1724,-2106,-2541,-615,1602,2476,2052
1164,2293,1127,-1729,19,1712,-2112,-2469,-561,1716,2572,2112
1170,2215,1043,-1687,65,1634,-2052,-2278,-411,1866,2638,2118
1158,2083,923,-1615,119,1508,-1926,-1990,-207,2004,2650,2064
1122,1885,761,-1501,179,1328,-1776,-1720,-69,1992,2542,1932
1056,1621,563,-1339,245,1094,-1608,-1492,-57,1764,2249,1716
954,1327,371,-1135,293,854,-1422,-1318,-153,1356,1841,1428
804,1045,239,-925,281,644,-1224,-1186,-279,912,1403,1134
636,811,173,-721,233,494,-1026,-1078,-411,498,1019,864
498,625,125,-559,185,380,-846,-964,-483,204,731,642
378,487,107,-427,137,302,-690,-832,-489,30,527,468
288,379,89,-331,101,236,-558,-712,-471,-64,395,336
216,301,83,-259,65,194,-456,-592,-435,-112,293,228
156,235,77,-193,41,158,-360,-478,-387,-130,221,144
114,175,59,-139,31,122,-282,-370,-327,-142,167,72
72,115,41,-91,19,80,-204,-280,-273,-142,119,12
42,61,17,-49,13,44,-132,-196,-213,-142,89,-34
13,7,-7,-7,13,2,-72,-118,-153,-136,71,-70
-10,-41,-31,27,13,-34,-24,-64,-105,-130,53,-112
-34,-75,-43,51,1,-56,11,-16,-81,-130,29,-148
-52,-99,-49,69,-5,-74,40,12,-69,-136,5,-178
-64,-117,-55,87,-5,-86,64,36,-63,-136,-19,-202
-82,-129,-49,105,-17,-86,82,48,-69,-148,-37,-220
-88,-141,-55,111,-17,-98,88,54,-81,-166,-60,-232
-94,-141,-49,117,-23,-92,100,66,-87,-184,-71,-238
-100,-153,-55,123,-23,-104,106,78,-93,-196,-83,-250
-112,-165,-55,135,-29,-110,112,90,-87,-208,-95,-256
-118,-177,-60,147,-29,-116,124,108,-75,-208,-95,-268
-124,-189,-65,153,-29,-128,136,126,-63,-214,-101,-274
-136,-207,-71,165,-35,-140,148,144,-57,-214,-107,-280
-142,-213,-71,177,-35,-140,160,150,-51,-214,-113,-286
-142,-219,-77,177,-35,-146,166,162,-45,-220,-125,-286
-148,-231,-83,183,-35,-158,172,168,-45,-214,-131,-292
-148,-231,-83,183,-35,-158,178,168,-45,-214,-131,-292
-148,-231,-83,183,-35,-158,184,174,-45,-214,-143,-298
-160,-231,-71,189,-47,-152,190,180,-45,-220,-143,-304
-160,-237,-77,195,-41,-158,196,186,-45,-226,-143,-310
-154,-237,-83,195,-35,-158,202,192,-39,-226,-137,-310
-148,-243,-95,189,-29,-170,202,198,-39,-226,-137,-310
-142,-243,-101,189,-23,-170,208,210,-33,-226,-137,-310
-142,-243,-101,189,-23,-170,214,216,-27,-226,-143,-310
-148,-255,-107,195,-23,-182,214,228,-27,-226,-149,-310
-148,-249,-101,195,-23,-176,226,240,-15,-226,-143,-310
-148,-249,-101,195,-23,-176,226,246,-15,-232,-155,-310
-154,-249,-95,201,-29,-170,226,246,-15,-238,-167,-316
-160,-255,-95,201,-35,-176,232,252,-15,-238,-173,-316
-160,-243,-83,195,-41,-164,238,264,-9,-238,-173,-310
-154,-243,-89,195,-35,-164,244,270,3,-226,-179,-310
-154,-243,-89,195,-35,-164,244,282,9,-220,-167,-310
-172,-255,-83,207,-47,-170,256,288,9,-226,-173,-316
-178,-267,-89,219,-47,-176,262,294,14,-232,-179,-316
-172,-273,-101,219,-35,-188,268,306,14,-232,-179,-316
-166,-279,-113,219,-29,-194,268,312,14,-232,-179,-322
-160,-273,-113,213,-23,-194,268,318,19,-232,-179,-316
-160,-273,-113,213,-23,-194,274,330,25,-232,-179,-322
-166,-267,-101,213,-35,-182,274,336,37,-238,-179,-322
-166,-267,-101,213,-35,-182,280,342,37,-238,-185,-322
-172,-267,-95,213,-41,-182,274,354,43,-244,-185,-328
-172,-273,-101,219,-35,-188,280,360,49,-244,-191,-328
-172,-273,-101,219,-35,-188,286,378,49,-244,-185,-328
-172,-267,-95,213,-41,-182,292,390,55,-244,-191,-334
-178,-279,-101,225,-41,-188,304,408,61,-238,-191,-340
-178,-285,-107,231,-35,-194,310,414,67,-238,-191,-346
-178,-297,-119,237,-29,-206,322,432,73,-238,-185,-346
-178,-303,-125,237,-29,-212,334,444,79,-238,-185,-352
-178,-303,-125,237,-29,-212,340,456,85,-244,-185,-358
-178,-309,-131,243,-23,-218,346,468,91,-244,-185,-358
-190,-315,-125,249,-35,-218,358,474,91,-250,-191,-364
-196,-321,-125,255,-35,-224,364,480,97,-256,-197,-370
-196,-321,-125,255,-35,-224,370,498,103,-256,-197,-370
-190,-321,-131,255,-29,-224,376,516,109,-256,-203,-370
-190,-327,-137,255,-29,-230,388,534,121,-262,-197,-370
-202,-339,-137,267,-35,-236,400,552,121,-268,-203,-376
-202,-351,-149,273,-29,-248,412,564,121,-274,-221,-382
-208,-357,-149,279,-29,-254,418,582,127,-280,-233,-388
-196,-351,-155,267,-23,-254,424,600,133,-274,-251,-394
-196,-351,-155,267,-23,-254,436,612,139,-274,-269,-400
-190,-363,-173,273,-11,-266,442,630,151,-280,-281,-406
-190,-369,-179,279,-5,-272,448,654,157,-286,-299,-412
-196,-375,-179,279,-11,-278,466,672,169,-280,-311,-412
-202,-393,-191,297,-5,-290,478,696,181,-286,-329,-418
-214,-405,-191,309,-11,-296,496,708,187,-292,-341,-424
-214,-405,-191,309,-11,-296,508,726,193,-298,-359,-424
-220,-411,-191,309,-17,-302,514,738,193,-298,-371,-430
-220,-417,-197,315,-11,-308,526,756,199,-304,-389,-442
-226,-423,-197,321,-17,-308,538,774,199,-310,-407,-454
-220,-429,-209,321,-5,-320,544,792,205,-316,-425,-466
-220,-435,-215,321,-5,-326,544,804,211,-322,-437,-472
-226,-441,-215,333,-5,-326,556,822,217,-328,-449,-478
-232,-453,-221,339,-5,-338,562,834,223,-334,-467,-484
-238,-459,-221,345,-11,-338,574,852,229,-334,-473,-484
-232,-453,-221,339,-5,-338,580,864,241,-334,-485,-484
-220,-447,-227,327,1,-338,586,876,235,-334,-503,-490
-214,-453,-239,333,13,-344,598,876,235,-340,-527,-496
-214,-465,-251,339,19,-356,598,888,241,-346,-545,-496
-214,-471,-257,339,19,-362,598,894,247,-346,-557,-502
-214,-477,-263,345,25,-368,604,900,247,-346,-575,-502
-214,-483,-269,345,25,-374,604,906,253,-346,-575,-508
-220,-489,-269,351,25,-380,610,906,259,-346,-581,-508
-226,-495,-269,357,19,-380,610,906,259,-346,-587,-508
-226,-495,-269,357,19,-380,604,906,259,-346,-599,-502
-220,-489,-269,351,25,-380,598,912,253,-352,-611,-496
-214,-489,-275,351,31,-380,586,912,253,-352,-617,-490
-208,-483,-275,339,31,-380,580,912,253,-352,-629,-490
-202,-477,-275,339,36,-374,580,906,253,-352,-635,-484
-202,-471,-269,333,31,-368,580,900,253,-352,-641,-490
-196,-465,-269,327,36,-368,568,888,247,-352,-647,-490
-196,-465,-269,327,36,-368,556,876,247,-346,-647,-484
-190,-459,-269,321,36,-362,544,858,241,-340,-647,-478
-184,-447,-263,309,36,-356,532,840,241,-334,-647,-472
-172,-441,-269,303,47,-356,520,822,235,-328,-647,-460
-160,-429,-269,291,53,-350,502,804,229,-334,-647,-448
-154,-423,-269,285,53,-344,484,774,217,-328,-641,-430
-142,-399,-257,267,53,-326,466,750,211,-322,-629,-412
-136,-387,-251,255,53,-320,448,714,205,-316,-617,-388
-124,-369,-245,243,59,-308,430,678,187,-316,-617,-376
-118,-357,-239,237,59,-296,406,642,175,-310,-605,-370
-112,-345,-233,225,59,-290,382,600,163,-298,-581,-352
-106,-327,-221,213,53,-272,364,564,151,-286,-563,-334
-100,-309,-209,201,53,-260,334,528,139,-274,-545,-316
-88,-291,-203,183,53,-248,304,480,121,-268,-533,-304
-82,-273,-191,177,53,-230,280,444,115,-256,-521,-286
-76,-255,-179,159,47,-218,256,408,103,-238,-503,-268
-70,-231,-161,147,41,-194,238,372,97,-226,-491,-250
-64,-213,-149,135,41,-182,220,336,79,-220,-479,-232
-52,-201,-149,123,47,-176,196,300,67,-214,-467,-214
-46,-189,-143,117,47,-164,178,258,49,-202,-455,-196
-46,-183,-137,111,41,-158,166,222,31,-196,-431,-190
-46,-171,-125,105,36,-146,148,180,19,-190,-413,-166
-40,-159,-119,93,36,-140,136,150,14,-184,-395,-154
-40,-147,-107,87,31,-128,124,126,9,-172,-383,-142
-40,-135,-95,81,25,-116,112,102,3,-172,-377,-136
-40,-123,-83,75,19,-104,94,78,-3,-172,-371,-124
-40,-117,-77,75,19,-98,82,54,-15,-166,-359,-118
-46,-111,-65,75,7,-86,70,36,-21,-154,-347,-112
-40,-105,-65,69,13,-86,58,24,-27,-148,-341,-100
-40,-99,-60,63,7,-80,52,6,-33,-142,-341,-100
-46,-93,-49,69,1,-68,46,-4,-39,-130,-335,-88
-46,-87,-43,63,-5,-62,40,-22,-51,-124,-323,-82
-46,-81,-37,63,-5,-56,34,-34,-51,-112,-311,-70
-40,-75,-37,51,-5,-56,28,-40,-57,-106,-305,-70
-46,-69,-25,57,-11,-46,28,-52,-57,-88,-293,-58
-46,-69,-25,57,-11,-46,28,-58,-57,-88,-287,-52
-46,-69,-25,57,-11,-46,28,-64,-57,-88,-281,-52
-52,-69,-19,57,-17,-46,28,-76,-57,-94,-281,-46
-46,-57,-13,51,-17,-34,28,-82,-57,-94,-275,-46
-40,-57,-19,45,-11,-40,28,-82,-57,-94,-275,-40
-40,-51,-13,39,-17,-34,22,-88,-63,-88,-269,-40
-40,-51,-13,39,-17,-34,22,-94,-63,-82,-269,-40
-52,-51,-1,45,-29,-28,22,-94,-63,-76,-263,-34
-64,-51,11,51,-41,-22,16,-100,-63,-76,-263,-34
-58,-46,11,51,-35,-16,16,-100,-63,-70,-263,-28
-58,-51,5,51,-35,-22,11,-100,-63,-64,-263,-28
-52,-51,-1,45,-29,-28,11,-106,-57,-64,-257,-22
-46,-51,-7,45,-23,-28,11,-106,-57,-58,-251,-28
-46,-51,-7,45,-23,-28,11,-106,-57,-58,-245,-22
-46,-57,-13,51,-17,-34,6,-112,-57,-58,-245,-22
-46,-57,-13,51,-17,-34,6,-106,-57,-58,-245,-22
-46,-57,-13,51,-17,-34,0,-112,-57,-58,-245,-22
-46,-51,-7,45,-23,-28,0,-112,-57,-58,-245,-22
-46,-51,-7,45,-23,-28,0,-112,-57,-52,-245,-16
-52,-46,5,45,-29,-22,0,-112,-51,-52,-239,-10
-58,-46,11,51,-35,-16,0,-112,-45,-46,-239,-16
-52,-41,11,45,-29,-16,0,-112,-45,-46,-245,-16
-52,-46,5,45,-29,-22,0,-112,-39,-46,-245,-16
-52,-46,5,45,-29,-22,6,-112,-45,-46,-239,-16
-46,-46,-1,45,-23,-22,0,-106,-45,-46,-239,-16
-40,-46,-7,39,-17,-28,-6,-106,-45,-46,-233,-10
-40,-46,-7,39,-17,-28,-6,-106,-45,-46,-233,-10
-40,-46,-7,39,-17,-28,-6,-106,-45,-52,-233,-10
-34,-46,-13,39,-11,-28,0,-100,-39,-52,-233,-16
-34,-46,-13,39,-11,-28,0,-100,-39,-46,-233,-16
-34,-41,-7,39,-11,-22,0,-100,-45,-46,-233,-10
-34,-41,-7,39,-11,-22,6,-100,-45,-46,-233,-10
-34,-46,-13,39,-11,-28,6,-100,-51,-46,-227,-10
-34,-46,-13,39,-11,-28,0,-106,-51,-46,-227,-10
-34,-51,-19,39,-11,-34,0,-106,-51,-40,-221,-10
-34,-46,-13,39,-11,-28,6,-100,-45,-34,-221,-10
-40,-46,-7,39,-17,-28,0,-100,-39,-34,-215,-10
-40,-41,-1,39,-17,-22,6,-94,-33,-34,-215,-16
-40,-41,-1,39,-17,-22,6,-88,-33,-34,-215,-10
-46,-41,5,45,-23,-16,6,-82,-33,-34,-215,-10
-46,-41,5,45,-23,-16,6,-82,-33,-40,-215,-5
-40,-46,-7,39,-17,-28,11,-88,-39,-34,-209,-5
-34,-46,-13,39,-11,-28,11,-82,-39,-34,-209,0
-28,-41,-13,33,-5,-28,11,-76,-39,-28,-209,0
-28,-46,-19,33,-5,-34,11,-70,-33,-28,-209,-5
-28,-46,-19,33,-5,-34,11,-70,-33,-28,-215,-10
-28,-46,-19,33,-5,-34,11,-76,-33,-28,-215,-16
-34,-46,-13,39,-11,-28,16,-70,-33,-22,-209,-16
-34,-46,-13,39,-11,-28,22,-70,-27,-22,-197,-5
-28,-46,-19,33,-5,-34,22,-70,-27,-22,-185,-5
-28,-41,-13,33,-5,-28,22,-64,-27,-22,-179,0
-28,-46,-19,33,-5,-34,22,-64,-21,-16,-179,0
-28,-46,-19,33,-5,-34,22,-58,-21,-10,-179,0
-34,-46,-13,39,-11,-28,22,-58,-27,-16,-185,-10
-34,-41,-7,39,-11,-22,22,-58,-27,-10,-191,-10
-34,-46,-13,39,-11,-28,22,-58,-21,-4,-191,-10
-40,-46,-7,39,-17,-28,22,-58,-21,2,-185,-10
-34,-41,-7,39,-11,-22,28,-58,-21,2,-185,-10
-28,-41,-13,33,-5,-28,34,-58,-21,2,-185,-10
-28,-41,-13,33,-5,-28,40,-52,-21,2,-185,-10
-34,-46,-13,39,-11,-28,34,-52,-21,-4,-185,-10
-40,-46,-7,39,-17,-28,34,-52,-21,-4,-179,-5
-40,-46,-7,39,-17,-28,34,-52,-15,-4,-173,0
-34,-41,-7,39,-11,-22,34,-52,-15,-4,-167,6
-46,-46,-1,45,-23,-22,34,-52,-21,-10,-173,0
-52,-46,5,45,-29,-22,34,-58,-21,-10,-167,0
-52,-51,-1,45,-29,-28,28,-58,-21,-16,-173,-5
-40,-46,-7,39,-17,-28,28,-52,-21,-16,-173,-5
-40,-35,5,33,-23,-16,34,-52,-21,-16,-167,-5
-40,-35,5,33,-23,-16,28,-52,-21,-16,-167,-10
-40,-29,11,33,-23,-10,34,-46,-27,-22,-173,-10
-52,-41,11,45,-29,-16,40,-46,-27,-22,-173,-10
-58,-46,11,51,-35,-16,40,-40,-27,-22,-161,-5
-52,-46,5,45,-29,-22,46,-40,-27,-22,-161,-5
-52,-46,5,45,-29,-22,46,-40,-27,-16,-161,-5
-52,-46,5,45,-29,-22,46,-46,-21,-22,-161,-5
-46,-46,-1,45,-23,-22,40,-46,-27,-22,-161,-5
-52,-46,5,45,-29,-22,40,-46,-27,-22,-167,0
-58,-46,11,51,-35,-16,34,-52,-27,-22,-167,-10
-52,-46,5,45,-29,-22,34,-52,-21,-22,-167,-10
-52,-46,5,45,-29,-22,34,-52,-21,-22,-167,-16
-52,-51,-1,45,-29,-28,34,-52,-27,-22,-161,-10
-52,-51,-1,45,-29,-28,34,-52,-27,-22,-155,-10
-52,-51,-1,45,-29,-28,40,-52,-27,-16,-155,-10
-52,-51,-1,45,-29,-28,40,-52,-27,-22,-161,-16
-52,-46,5,45,-29,-22,40,-52,-27,-22,-161,-16
-46,-46,-1,45,-23,-22,34,-52,-27,-22,-161,-22
-46,-46,-1,45,-23,-22,34,-58,-33,-22,-161,-16
-52,-46,5,45,-29,-22,34,-58,-39,-28,-149,-10
-58,-46,11,51,-35,-16,34,-64,-39,-28,-143,-5
-58,-46,11,51,-35,-16,34,-70,-45,-34,-143,-5
-64,-46,17,51,-41,-16,34,-70,-45,-40,-143,-5
-58,-46,11,51,-35,-16,34,-76,-45,-40,-143,-5
-58,-46,11,51,-35,-16,40,-76,-45,-40,-143,0
-64,-51,11,51,-41,-22,34,-76,-45,-40,-149,-5
-58,-51,5,51,-35,-22,34,-76,-39,-40,-149,-5
-52,-46,5,45,-29,-22,34,-76,-39,-34,-149,-5
-52,-46,5,45,-29,-22,34,-76,-39,-34,-149,-5
-52,-51,-1,45,-29,-28,34,-76,-39,-28,-143,-5
-52,-51,-1,45,-29,-28,34,-76,-45,-34,-149,-5
-46,-51,-7,45,-23,-28,34,-76,-51,-34,-149,-5
-46,-51,-7,45,-23,-28,34,-76,-57,-40,-149,-5
-46,-57,-13,51,-17,-34,34,-82,-57,-46,-149,-5
-46,-57,-13,51,-17,-34,34,-82,-57,-46,-149,-5
-40,-57,-19,45,-11,-40,28,-82,-57,-52,-149,-10
-40,-57,-19,45,-11,-40,28,-88,-57,-58,-155,-10
-52,-63,-13,51,-23,-40,28,-94,-69,-64,-155,-10
-58,-63,-7,57,-29,-34,22,-94,-69,-64,-155,-10
-52,-63,-13,51,-23,-40,22,-94,-63,-58,-149,-10
-52,-63,-13,51,-23,-40,22,-88,-63,-58,-149,-10
-58,-63,-7,57,-29,-34,22,-88,-63,-52,-143,-10
-52,-57,-7,51,-23,-34,34,-88,-63,-52,-143,-10
-52,-57,-7,51,-23,-34,28,-88,-63,-52,-143,-10
-52,-57,-7,51,-23,-34,28,-88,-63,-52,-143,-16
-58,-63,-7,57,-29,-34,28,-88,-63,-58,-143,-16
-64,-57,5,57,-35,-28,28,-88,-63,-58,-137,-10
-58,-57,-1,57,-29,-28,28,-88,-63,-58,-137,-10
-64,-57,5,57,-35,-28,22,-94,-69,-58,-143,-10
-70,-63,5,63,-41,-28,16,-94,-75,-64,-143,-5
-70,-57,11,63,-41,-22,11,-94,-81,-64,-137,-5
-64,-51,11,51,-41,-22,11,-94,-81,-64,-137,0
-58,-51,5,51,-35,-22,11,-94,-81,-64,-137,6
-58,-51,5,51,-35,-22,11,-94,-81,-64,-143,0
-58,-46,11,51,-35,-16,16,-94,-87,-70,-149,-5
-52,-46,5,45,-29,-22,16,-94,-87,-76,-149,-5
-46,-46,-1,45,-23,-22,16,-100,-87,-76,-149,-5
-46,-46,-1,45,-23,-22,11,-100,-87,-76,-149,-5
-46,-46,-1,45,-23,-22,11,-100,-87,-70,-137,0
-52,-46,5,45,-29,-22,16,-94,-87,-58,-131,0
-58,-46,11,51,-35,-16,16,-94,-87,-58,-125,6
-64,-51,11,51,-41,-22,22,-94,-93,-58,-125,0
-64,-51,11,51,-41,-22,22,-88,-87,-58,-131,0
-64,-51,11,51,-41,-22,22,-88,-87,-58,-131,6
-58,-51,5,51,-35,-22,22,-88,-93,-58,-131,6
-52,-46,5,45,-29,-22,22,-88,-93,-52,-125,6
-52,-51,-1,45,-29,-28,22,-88,-93,-52,-125,12
-52,-51,-1,45,-29,-28,16,-94,-93,-52,-119,12
-52,-51,-1,45,-29,-28,16,-94,-93,-52,-119,12
-52,-51,-1,45,-29,-28,16,-100,-99,-52,-125,6
-64,-57,5,57,-35,-28,11,-106,-99,-52,-125,6
-70,-51,17,57,-47,-16,16,-100,-99,-52,-119,12
-58,-46,11,51,-35,-16,22,-88,-93,-46,-113,24
-46,-35,11,39,-29,-10,28,-88,-87,-46,-113,24
-40,-23,17,27,-29,-4,34,-82,-81,-46,-113,30
-46,-23,23,33,-35,2,40,-76,-75,-40,-107,30
-52,-17,35,33,-41,8,46,-70,-63,-28,-101,30
-58,-11,47,33,-53,20,52,-70,-57,-22,-95,30
-64,-11,53,33,-59,20,52,-64,-51,-16,-89,30
-64,-11,53,33,-59,20,52,-64,-51,-16,-95,30
-58,-5,53,33,-53,26,58,-64,-51,-10,-89,36
-58,1,59,27,-59,32,58,-64,-51,-16,-89,36
-52,1,53,21,-53,26,58,-64,-57,-16,-83,36
-52,7,59,21,-53,32,52,-70,-51,-22,-77,36
-52,7,59,21,-53,32,46,-70,-51,-28,-77,30
-46,7,53,21,-47,32,46,-76,-51,-34,-83,30
-52,7,59,21,-53,32,46,-76,-51,-34,-77,30
-46,19,65,16,-53,44,46,-76,-51,-28,-77,36
-46,19,65,16,-53,44,46,-76,-57,-28,-83,36
-34,25,59,5,-47,44,46,-82,-51,-22,-77,42
-28,31,59,-1,-41,44,40,-88,-51,-22,-83,54
-28,31,59,-1,-41,44,34,-94,-57,-22,-83,60
-34,37,71,-1,-53,56,34,-94,-51,-16,-77,54
-34,37,71,-1,-53,56,34,-94,-45,-10,-65,60
-28,43,71,-7,-47,56,28,-94,-45,-10,-60,60
-22,55,77,-13,-47,68,16,-100,-45,-10,-60,60
-22,61,83,-19,-53,74,11,-106,-51,-16,-55,66
-22,55,77,-13,-47,68,6,-106,-63,-22,-60,54
-28,49,77,-13,-53,62,0,-112,-69,-28,-60,54
-28,49,77,-13,-53,62,-6,-118,-69,-28,-60,54
-22,49,71,-13,-47,62,0,-112,-69,-16,-55,48
-16,49,65,-19,-41,56,0,-112,-69,-10,-49,48
-10,43,53,-13,-29,50,0,-112,-69,-10,-55,48
-4,43,47,-19,-23,44,-6,-118,-75,-16,-55,48
-4,43,47,-19,-23,44,-12,-112,-75,-16,-55,48
8,43,35,-25,-11,38,-12,-106,-75,-10,-49,54
13,49,35,-31,-11,44,-12,-100,-69,2,-43,60
13,49,35,-31,-11,44,-12,-94,-63,2,-37,66
18,43,23,-25,1,38,-12,-88,-63,2,-37,60
18,31,11,-19,7,26,-12,-82,-63,8,-31,60
18,25,5,-19,7,20,-18,-82,-63,2,-31,60
24,25,-1,-25,13,14,-18,-82,-63,2,-31,60
13,13,-1,-13,7,8,-18,-82,-63,2,-43,60
2,1,-1,-1,1,2,-12,-76,-63,-4,-49,54
-10,-11,-1,11,-5,-4,-6,-70,-63,-10,-55,54
-22,-29,-7,27,-5,-16,0,-70,-63,-16,-60,42
-28,-46,-19,33,-5,-34,11,-70,-69,-22,-65,30
-40,-57,-19,45,-11,-40,11,-70,-69,-34,-77,6
-40,-69,-31,51,-5,-51,11,-82,-81,-40,-89,0
-34,-75,-43,51,1,-56,0,-94,-93,-46,-95,-5
-34,-81,-49,57,7,-62,-12,-106,-105,-52,-95,-10
-40,-93,-55,63,7,-74,-24,-118,-117,-52,-101,-10
-40,-99,-60,63,7,-80,-36,-130,-123,-58,-107,-16
-34,-105,-71,69,19,-86,-54,-136,-135,-64,-107,-16
-16,-105,-89,57,36,-98,-66,-142,-135,-64,-101,-10
-10,-99,-89,51,36,-92,-72,-148,-135,-58,-89,-5
2,-87,-89,39,41,-86,-84,-154,-129,-46,-77,-5
13,-69,-83,27,47,-74,-96,-154,-123,-34,-60,12
30,-51,-83,11,53,-62,-108,-154,-117,-22,-55,24
48,-41,-89,-1,71,-62,-120,-154,-111,-4,-43,36
66,-29,-95,-13,83,-56,-132,-160,-105,13,-25,42
78,-17,-95,-25,89,-51,-150,-166,-99,24,-1,66
96,-5,-101,-43,101,-51,-168,-172,-99,42,17,84
114,13,-101,-61,107,-40,-192,-178,-99,60,41,108
126,31,-95,-73,113,-28,-222,-196,-99,72,59,126
150,49,-101,-97,125,-22,-252,-214,-111,84,71,138
174,73,-101,-121,137,-10,-276,-244,-117,96,89,156
198,91,-107,-139,155,-4,-300,-262,-117,126,113,174
204,115,-89,-157,149,14,-312,-274,-117,150,137,198
216,145,-71,-181,143,38,-330,-286,-105,192,185,228
240,181,-60,-211,149,62,-342,-286,-87,234,233,264
264,217,-49,-241,155,86,-372,-292,-69,270,275,294
300,259,-43,-277,173,110,-402,-304,-57,306,317,318
336,307,-31,-319,185,140,-438,-310,-33,354,371,360
372,355,-19,-361,197,170,-456,-274,14,420,431,408
414,409,-7,-409,209,206,-456,-202,97,498,491,456
456,457,-1,-457,227,230,-462,-100,187,588,551,504
510,511,-1,-505,257,260,-462,6,289,690,623,552
552,583,29,-565,263,308,-456,108,403,804,701,606
594,643,47,-613,275,350,-444,204,505,900,773,654
636,703,65,-667,287,386,-444,306,607,990,845,696
678,769,89,-721,293,434,-438,420,727,1092,917,738
720,841,119,-781,299,482,-432,516,865,1200,995,786
750,937,185,-841,281,566,-432,540,955,1296,1079,852
774,1033,257,-901,257,650,-462,426,949,1350,1163,924
804,1135,329,-967,239,734,-552,174,853,1374,1241,1008
822,1261,437,-1039,191,854,-672,-178,703,1404,1355,1128
828,1399,569,-1111,131,986,-798,-574,523,1446,1487,1266
834,1549,713,-1189,59,1136,-948,-988,343,1494,1631,1416
858,1711,851,-1279,7,1286,-1098,-1336,193,1566,1805,1572
894,1879,983,-1381,-41,1436,-1260,-1624,49,1644,1991,1734
924,2041,1115,-1483,-95,1580,-1434,-1894,-99,1704,2171,1896
960,2197,1235,-1579,-137,1718,-1620,-2110,-237,1776,2351,2058
996,2317,1319,-1657,-161,1820,-1806,-2290,-375,1830,2512,2202
1032,2388,1355,-1711,-161,1874,-1944,-2404,-483,1896,2638,2322
1044,2436,1391,-1741,-173,1916,-2028,-2445,-525,1986,2752,2417
1050,2430,1379,-1735,-161,1910,-2034,-2386,-489,2106,2842,2477
1026,2317,1289,-1669,-131,1808,-1956,-2188,-351,2232,2872,2459
1002,2125,1121,-1561,-59,1628,-1830,-1930,-201,2286,2818,2358
972,1849,875,-1411,47,1364,-1668,-1660,-117,2172,2614,2160
900,1537,635,-1219,131,1088,-1488,-1426,-129,1854,2243,1866
792,1231,437,-1009,179,836,-1284,-1222,-189,1434,1793,1542
660,967,305,-811,179,638,-1086,-1066,-279,990,1361,1236
516,739,221,-625,149,482,-894,-940,-369,600,971,960
384,553,167,-469,107,362,-720,-802,-393,336,671,726
288,421,131,-355,77,278,-570,-670,-375,180,461,552
216,325,107,-271,53,218,-450,-544,-333,90,311,420
162,235,71,-193,47,158,-342,-424,-297,36,209,324
120,163,41,-139,41,104,-252,-328,-255,8,137,246
84,103,17,-91,36,62,-186,-238,-219,-10,89,186
48,43,-7,-43,31,20,-132,-166,-177,-10,59,138
18,-5,-25,-1,25,-10,-84,-100,-129,-10,35,90
-4,-46,-43,21,19,-46,-42,-52,-81,-10,11,48
-28,-75,-49,45,7,-62,0,-10,-45,-16,-19,6
-40,-105,-65,69,13,-86,28,24,-21,-22,-55,-34
-52,-129,-77,87,13,-104,58,54,-3,-34,-83,-70
-64,-153,-89,105,13,-122,76,72,-3,-58,-119,-100
-76,-165,-89,117,7,-128,88,90,-9,-76,-149,-118
-76,-171,-95,117,7,-134,100,102,-21,-94,-161,-124
-82,-177,-95,129,7,-134,106,102,-33,-106,-167,-130
-88,-189,-101,135,7,-146,112,102,-39,-118,-173,-136
-94,-201,-107,147,7,-152,124,108,-33,-130,-179,-142
-94,-207,-113,147,7,-158,130,120,-27,-136,-191,-148
-100,-219,-119,153,7,-170,142,132,-15,-130,-197,-160
-124,-237,-113,177,-5,-176,154,144,-15,-136,-215,-172
-130,-249,-119,189,-5,-182,160,156,-9,-142,-221,-184
-130,-255,-125,189,-5,-188,172,168,-3,-154,-233,-196
-130,-261,-131,195,1,-194,178,174,-3,-166,-245,-202
-130,-261,-131,195,1,-194,190,186,-3,-172,-245,-214
-136,-261,-125,195,-5,-194,190,192,-3,-166,-239,-214
-142,-261,-119,201,-11,-188,196,198,3,-166,-233,-214
-148,-267,-119,201,-17,-194,202,204,3,-166,-239,-214
-142,-255,-113,195,-17,-182,202,204,9,-166,-239,-214
-130,-255,-125,189,-5,-188,202,204,14,-166,-239,-208
-136,-255,-119,189,-11,-188,202,210,14,-166,-239,-208
-136,-261,-125,195,-5,-194,208,216,19,-166,-239,-214
-142,-267,-125,201,-11,-194,208,228,25,-172,-245,-220
-148,-267,-119,201,-17,-194,214,234,25,-172,-251,-226
-142,-267,-125,201,-11,-194,214,240,25,-178,-263,-232
-136,-267,-131,195,-5,-200,214,246,25,-178,-263,-232
-136,-273,-137,201,1,-206,214,252,25,-178,-263,-232
-130,-273,-143,201,7,-206,226,264,31,-178,-257,-232
-130,-279,-149,201,7,-212,232,276,43,-178,-257,-232
-130,-279,-149,201,7,-212,232,282,43,-184,-263,-238
-142,-285,-143,213,1,-212,238,282,43,-190,-275,-244
-154,-291,-137,219,-11,-212,250,288,43,-190,-281,-244
-160,-297,-137,225,-11,-218,250,294,49,-196,-281,-244
-166,-297,-131,231,-17,-212,244,300,55,-196,-281,-250
-172,-309,-137,237,-17,-224,244,306,61,-196,-275,-250
-166,-303,-137,231,-17,-218,250,318,67,-202,-275,-256
-160,-303,-143,225,-11,-224,250,324,73,-202,-275,-256
-154,-303,-149,225,-5,-224,250,336,79,-202,-281,-262
-154,-309,-155,231,1,-230,256,348,85,-202,-281,-262
-148,-315,-167,225,7,-242,262,360,85,-202,-287,-268
-154,-321,-167,237,7,-242,268,372,91,-202,-293,-274
-154,-327,-173,237,7,-248,280,384,97,-202,-305,-280
-160,-327,-167,237,1,-248,280,396,103,-208,-305,-286
-166,-333,-167,249,1,-248,286,402,109,-214,-311,-292
-166,-339,-173,249,1,-254,298,414,115,-214,-311,-298
-166,-339,-173,249,1,-254,304,426,115,-226,-317,-304
-160,-345,-185,249,13,-266,304,438,115,-232,-323,-304
-154,-345,-191,249,19,-266,310,444,115,-232,-329,-310
-160,-351,-191,249,13,-272,322,456,121,-232,-341,-310
-166,-357,-191,261,13,-272,328,468,127,-232,-353,-316
-166,-357,-191,261,13,-272,334,486,133,-232,-359,-322
-166,-363,-197,261,13,-278,340,498,145,-238,-365,-328
-172,-369,-197,267,13,-284,346,516,151,-238,-371,-334
-172,-375,-203,267,13,-290,358,528,157,-238,-377,-346
-184,-381,-197,279,7,-290,364,546,163,-244,-383,-352
-178,-387,-209,279,13,-296,376,564,169,-244,-383,-358
-178,-387,-209,279,13,-296,382,576,175,-244,-383,-358
-178,-393,-215,285,19,-302,400,594,181,-250,-389,-364
-178,-405,-227,291,25,-314,406,612,181,-262,-395,-370
-178,-411,-233,291,25,-320,418,630,187,-268,-407,-376
-178,-411,-233,291,25,-320,424,648,193,-274,-413,-382
-172,-423,-251,291,36,-338,436,666,199,-280,-425,-388
-178,-435,-257,303,36,-344,442,684,205,-280,-437,-394
-190,-447,-257,315,31,-350,448,708,217,-286,-449,-406
-190,-447,-257,315,31,-350,454,726,229,-292,-461,-418
-196,-459,-263,321,31,-362,466,744,235,-298,-467,-424
-202,-465,-263,333,31,-362,478,756,247,-304,-479,-430
-196,-465,-269,327,36,-368,484,774,253,-310,-491,-436
-208,-483,-275,339,31,-380,496,786,253,-316,-497,-448
-214,-489,-275,351,31,-380,508,798,253,-316,-509,-454
-214,-495,-281,351,31,-386,520,816,259,-316,-515,-460
-208,-501,-293,351,41,-398,526,828,265,-316,-521,-466
-208,-501,-293,351,41,-398,526,846,271,-316,-533,-478
-202,-501,-299,351,47,-398,532,858,277,-328,-545,-484
-202,-507,-305,351,47,-404,538,876,283,-328,-551,-484
-202,-513,-311,357,53,-410,544,888,283,-334,-551,-490
-196,-513,-317,351,59,-416,544,900,295,-334,-551,-496
-196,-519,-323,351,59,-422,544,912,301,-334,-557,-496
-196,-519,-323,351,59,-422,550,918,301,-334,-563,-502
-196,-519,-323,351,59,-422,550,918,295,-340,-569,-508
-196,-519,-323,351,59,-422,556,918,295,-346,-569,-508
-190,-525,-335,357,71,-428,550,924,295,-352,-575,-514
-184,-525,-341,351,77,-434,544,924,295,-358,-581,-520
-184,-525,-341,351,77,-434,538,918,295,-358,-587,-514
-184,-519,-335,345,71,-428,538,912,289,-364,-587,-514
-184,-519,-335,345,71,-428,526,900,289,-364,-587,-508
-184,-519,-335,345,71,-428,520,888,283,-370,-587,-502
-178,-519,-341,345,77,-428,514,876,277,-376,-581,-502
-172,-507,-335,333,77,-422,502,864,271,-364,-569,-490
-160,-495,-335,321,83,-416,490,846,265,-358,-563,-484
-148,-483,-335,309,89,-410,472,828,259,-358,-563,-484
-148,-465,-317,303,83,-392,460,804,253,-358,-551,-478
-142,-459,-317,297,83,-386,442,786,247,-352,-539,-466
-136,-447,-311,285,83,-380,424,756,235,-346,-533,-454
-124,-435,-311,273,89,-374,406,726,223,-346,-521,-448
-124,-417,-293,267,83,-356,382,696,211,-334,-503,-430
-118,-405,-287,261,83,-344,370,660,199,-334,-491,-412
-112,-387,-275,243,77,-332,346,624,181,-334,-473,-394
-106,-375,-269,237,77,-320,322,582,163,-328,-461,-376
-100,-363,-263,225,77,-314,298,540,151,-322,-437,-358
-100,-345,-245,219,71,-296,274,498,127,-322,-413,-340
-94,-327,-233,207,65,-278,250,456,109,-310,-395,-322
-94,-315,-221,201,59,-266,232,414,91,-304,-377,-304
-82,-297,-215,189,65,-254,214,378,73,-292,-353,-286
-76,-273,-197,171,59,-236,196,342,55,-280,-335,-268
-76,-255,-179,159,47,-218,172,312,43,-274,-317,-256
-70,-237,-167,153,47,-200,154,276,31,-268,-305,-238
-70,-219,-149,141,36,-182,136,246,25,-256,-287,-220
-64,-201,-137,129,36,-170,118,216,14,-244,-269,-202
-64,-189,-125,123,31,-158,106,186,9,-232,-239,-178
-52,-177,-125,111,36,-152,94,162,-3,-220,-215,-160
-52,-165,-113,105,31,-140,82,138,-9,-202,-191,-142
-52,-165,-113,105,31,-140,70,120,-15,-196,-173,-130
-58,-159,-101,105,19,-128,58,96,-27,-184,-167,-124
-58,-147,-89,99,13,-116,46,72,-39,-178,-161,-118
-52,-135,-83,87,13,-110,40,48,-45,-172,-149,-106
-52,-123,-71,81,7,-98,28,30,-51,-172,-137,-100
-52,-111,-60,75,1,-86,22,12,-57,-172,-125,-88
-46,-105,-60,75,7,-80,16,1,-57,-166,-119,-82
-52,-105,-55,75,1,-80,11,-4,-63,-160,-107,-76
-58,-105,-49,81,-5,-74,6,-10,-69,-154,-95,-70
-58,-99,-43,75,-11,-68,6,-16,-69,-148,-83,-64
-52,-93,-43,69,-5,-68,0,-22,-69,-142,-71,-58
-58,-93,-37,75,-11,-62,-6,-28,-69,-136,-60,-52
-58,-87,-31,69,-17,-56,-6,-40,-75,-130,-60,-52
-58,-81,-25,69,-17,-51,-6,-46,-75,-130,-55,-52
-64,-81,-19,69,-23,-51,-12,-52,-81,-130,-55,-46
-64,-81,-19,69,-23,-51,-6,-58,-81,-130,-55,-46
-64,-75,-13,63,-29,-46,-6,-64,-81,-124,-55,-34
-64,-75,-13,63,-29,-46,-6,-64,-81,-124,-49,-28
-64,-69,-7,63,-29,-40,-12,-64,-81,-118,-43,-28
-64,-69,-7,63,-29,-40,-12,-70,-81,-118,-43,-34
-64,-69,-7,63,-29,-40,-18,-64,-81,-112,-37,-34
-58,-69,-13,63,-23,-40,-18,-64,-81,-118,-31,-34
-58,-63,-7,57,-29,-34,-24,-64,-75,-112,-31,-34
-58,-57,-1,57,-29,-28,-24,-70,-75,-106,-25,-34
-58,-57,-1,57,-29,-28,-24,-64,-75,-106,-19,-34
-52,-57,-7,51,-23,-34,-24,-64,-75,-106,-25,-34
-58,-63,-7,57,-29,-34,-30,-64,-75,-112,-31,-34
-58,-63,-7,57,-29,-34,-36,-64,-75,-106,-25,-28
-58,-57,-1,57,-29,-28,-36,-64,-75,-100,-19,-22
-58,-57,-1,57,-29,-28,-36,-64,-75,-100,-19,-22
-58,-57,-1,57,-29,-28,-36,-64,-69,-100,-19,-22
-52,-51,-1,45,-29,-28,-36,-64,-63,-100,-19,-22
-52,-51,-1,45,-29,-28,-36,-64,-63,-100,-19,-22
-58,-51,5,51,-35,-22,-36,-64,-69,-106,-25,-22
-58,-51,5,51,-35,-22,-36,-58,-69,-106,-19,-28
-58,-51,5,51,-35,-22,-42,-58,-69,-106,-25,-28
-52,-51,-1,45,-29,-28,-36,-52,-63,-106,-31,-22
-52,-51,-1,45,-29,-28,-24,-46,-63,-106,-31,-22
-52,-46,5,45,-29,-22,-24,-46,-63,-100,-37,-22
-52,-51,-1,45,-29,-28,-24,-52,-57,-100,-37,-22
-52,-51,-1,45,-29,-28,-24,-46,-57,-94,-31,-22
-52,-51,-1,45,-29,-28,-24,-46,-57,-94,-19,-22
-52,-46,5,45,-29,-22,-24,-46,-51,-94,-13,-22
-52,-46,5,45,-29,-22,-24,-46,-51,-94,-7,-22
-52,-46,5,45,-29,-22,-24,-40,-51,-88,-13,-16
-46,-41,5,45,-23,-16,-24,-40,-45,-82,-1,-10
-46,-41,5,45,-23,-16,-24,-34,-45,-82,-1,-10
-40,-41,-1,39,-17,-22,-24,-34,-45,-82,5,-10
-40,-46,-7,39,-17,-28,-24,-34,-45,-82,-1,-10
-52,-51,-1,45,-29,-28,-24,-28,-45,-88,-1,-10
-58,-57,-1,57,-29,-28,-24,-22,-45,-88,-1,-16
-58,-57,-1,57,-29,-28,-24,-16,-39,-82,-1,-22
-58,-57,-1,57,-29,-28,-24,-16,-39,-82,-7,-22
-52,-51,-1,45,-29,-28,-24,-16,-39,-82,-7,-16
-40,-46,-7,39,-17,-28,-24,-16,-33,-82,-1,-10
-40,-41,-1,39,-17,-22,-18,-16,-33,-82,5,-10
-46,-46,-1,45,-23,-22,-18,-10,-33,-88,5,-16
-52,-51,-1,45,-29,-28,-12,-16,-33,-88,-1,-16
-52,-46,5,45,-29,-22,-12,-16,-33,-94,-7,-16
-52,-41,11,45,-29,-16,-12,-10,-27,-94,-13,-16
-52,-46,5,45,-29,-22,-6,-16,-27,-94,-13,-16
-46,-41,5,45,-23,-16,-6,-10,-21,-94,-13,-16
-46,-46,-1,45,-23,-22,-12,-10,-21,-94,-13,-16
-40,-46,-7,39,-17,-28,-12,-16,-21,-94,-13,-16
-40,-46,-7,39,-17,-28,-18,-10,-15,-88,-7,-22
-40,-46,-7,39,-17,-28,-12,-10,-15,-88,-7,-22
-46,-46,-1,45,-23,-22,-12,-10,-21,-82,-1,-22
-46,-46,-1,45,-23,-22,-6,-10,-21,-82,5,-22
-40,-35,5,33,-23,-16,-6,-4,-21,-82,5,-22
-40,-35,5,33,-23,-16,-6,-4,-21,-88,-1,-16
-46,-41,5,45,-23,-16,-6,-4,-27,-94,-7,-16
-46,-41,5,45,-23,-16,-12,-4,-27,-100,-7,-16
-46,-41,5,45,-23,-16,-12,1,-33,-100,-7,-16
-46,-41,5,45,-23,-16,-12,1,-27,-100,-13,-16
-46,-46,-1,45,-23,-22,-6,1,-21,-100,-13,-16
-46,-46,-1,45,-23,-22,0,1,-21,-100,-13,-22
-46,-46,-1,45,-23,-22,0,1,-15,-106,-13,-22
-40,-51,-13,39,-17,-34,0,-4,-21,-112,-13,-28
-40,-57,-19,45,-11,-40,-12,-4,-21,-106,-7,-28
-52,-63,-13,51,-23,-40,-12,1,-21,-106,-7,-28
-64,-57,5,57,-35,-28,-12,1,-21,-106,-7,-28
-64,-51,11,51,-41,-22,-12,1,-21,-106,-13,-28
-58,-51,5,51,-35,-22,-18,1,-21,-112,-19,-28
-46,-46,-1,45,-23,-22,-12,1,-21,-112,-19,-22
-46,-57,-13,51,-17,-34,-12,-4,-21,-118,-19,-22
-46,-63,-19,51,-17,-40,-6,1,-21,-118,-19,-28
-46,-63,-19,51,-17,-40,0,-4,-21,-124,-13,-34
-46,-63,-19,51,-17,-40,0,-4,-27,-124,-19,-28
-52,-63,-13,51,-23,-40,6,-4,-27,-118,-19,-28
-52,-57,-7,51,-23,-34,0,-4,-27,-118,-19,-28
-52,-51,-1,45,-29,-28,0,-4,-33,-118,-25,-28
-58,-46,11,51,-35,-16,0,-10,-33,-124,-25,-28
-58,-51,5,51,-35,-22,-6,-10,-33,-130,-25,-28
-52,-51,-1,45,-29,-28,-6,-16,-27,-130,-25,-28
-46,-51,-7,45,-23,-28,-12,-16,-27,-130,-25,-28
-46,-57,-13,51,-17,-34,-12,-22,-27,-136,-31,-34
-52,-69,-19,57,-17,-46,-12,-22,-27,-136,-31,-34
-52,-63,-13,51,-23,-40,-6,-28,-33,-142,-31,-34
-52,-57,-7,51,-23,-34,-6,-28,-39,-142,-25,-34
-58,-57,-1,57,-29,-28,-6,-34,-45,-142,-31,-46
-58,-57,-1,57,-29,-28,-6,-34,-45,-142,-31,-40
-64,-57,5,57,-35,-28,-6,-34,-45,-148,-37,-40
-70,-57,11,63,-41,-22,-6,-40,-45,-154,-37,-40
-70,-57,11,63,-41,-22,-12,-46,-45,-148,-37,-40
-70,-63,5,63,-41,-28,-12,-46,-45,-148,-31,-40
-64,-63,-1,57,-35,-34,-12,-46,-39,-148,-31,-40
-58,-63,-7,57,-29,-34,-12,-52,-39,-148,-37,-40
-58,-63,-7,57,-29,-34,-12,-52,-39,-154,-37,-40
-58,-69,-13,63,-23,-40,-12,-52,-45,-154,-37,-40
-64,-69,-7,63,-29,-40,-6,-52,-51,-154,-37,-40
-64,-69,-7,63,-29,-40,-6,-52,-51,-154,-43,-46
-64,-63,-1,57,-35,-34,-6,-52,-51,-154,-37,-52
-58,-57,-1,57,-29,-28,-6,-52,-51,-154,-31,-46
-58,-57,-1,57,-29,-28,-12,-52,-51,-154,-31,-40
-52,-57,-7,51,-23,-34,-12,-52,-51,-160,-31,-40
-52,-63,-13,51,-23,-40,-12,-52,-57,-166,-37,-40
-52,-57,-7,51,-23,-34,-12,-52,-63,-172,-43,-46
-46,-57,-13,51,-17,-34,-12,-52,-63,-172,-43,-46
-46,-57,-13,51,-17,-34,-12,-52,-63,-172,-49,-52
-52,-57,-7,51,-23,-34,-12,-52,-57,-172,-49,-52
-52,-57,-7,51,-23,-34,-12,-58,-63,-172,-49,-58
-52,-57,-7,51,-23,-34,-18,-58,-63,-172,-55,-58
-52,-57,-7,51,-23,-34,-18,-64,-63,-172,-55,-64
-58,-63,-7,57,-29,-34,-24,-64,-63,-172,-49,-58
-58,-57,-1,57,-29,-28,-24,-64,-69,-166,-49,-58
-58,-57,-1,57,-29,-28,-24,-64,-69,-166,-43,-52
-52,-57,-7,51,-23,-34,-24,-64,-69,-166,-43,-52
