,,,,,,,,,,,
2019-09-04 23:13:02,,,,,,,,,,,
,,,,,,,,,,,
I,II,III,aVR,aVL,aVF,V1,V2,V3,V4,V5,V6
-53,138,192,-41,-122,166,185,364,327,222,79,143
-53,144,198,-41,-122,172,173,334,297,198,73,137
-71,138,210,-35,-140,172,161,304,279,180,67,131
-83,120,204,-19,-140,160,149,274,255,162,61,125
-83,108,192,-13,-134,148,143,250,237,144,55,125
-77,102,180,-13,-128,142,143,226,219,132,49,119
-77,90,168,-7,-122,130,143,190,183,114,43,113
-71,78,150,-7,-110,112,131,160,153,102,31,113
-71,60,132,5,-98,94,125,136,129,90,31,107
-71,54,126,5,-98,88,119,118,111,84,25,101
-65,54,120,5,-92,88,107,106,101,72,13,89
-65,48,114,11,-86,82,95,100,95,66,13,89
-77,30,108,23,-92,70,89,88,89,54,1,83
-89,24,114,35,-98,70,89,82,77,42,-5,77
-83,24,108,29,-92,64,83,70,71,36,-17,77
-83,19,102,29,-92,58,83,58,59,24,-17,77
-89,8,96,41,-92,52,89,52,53,24,-17,83
-83,-4,78,41,-80,34,83,40,41,12,-17,77
-83,2,84,35,-86,40,83,22,23,6,-29,71
-83,2,84,35,-86,40,83,16,11,6,-29,71
-77,8,84,35,-80,46,83,4,5,0,-23,71
-65,14,78,23,-74,46,77,4,5,-6,-29,65
-59,19,78,17,-68,46,77,4,-1,-6,-23,59
-59,19,78,17,-68,46,71,-2,-1,-6,-23,53
-59,14,72,17,-68,40,66,-8,-7,-12,-23,53
-53,8,60,23,-56,34,66,-14,-13,-17,-29,53
-59,2,60,23,-62,28,61,-14,-25,-22,-35,47
-59,-4,54,29,-56,22,66,-14,-25,-22,-35,53
-59,2,60,23,-62,28,66,-14,-31,-28,-40,47
-59,2,60,23,-62,28,66,-14,-31,-34,-40,41
-71,2,72,29,-74,34,61,-20,-31,-40,-40,35
-77,-10,66,41,-74,28,55,-20,-31,-40,-45,35
-77,-10,66,41,-74,28,55,-20,-25,-34,-40,35
-65,-4,60,35,-62,28,55,-14,-19,-34,-40,35
-59,-4,54,29,-56,22,55,-14,-19,-28,-45,41
-53,2,54,23,-56,28,61,-20,-25,-22,-45,41
-59,2,60,23,-62,28,61,-20,-37,-28,-45,41
-71,-4,66,35,-68,28,61,-26,-43,-28,-40,41
-71,2,72,29,-74,34,55,-20,-43,-34,-40,41
-59,8,66,23,-62,34,49,-26,-43,-34,-35,47
-47,14,60,11,-56,34,55,-20,-43,-34,-29,47
-47,14,60,11,-56,34,49,-20,-31,-28,-29,53
-41,19,60,11,-50,40,55,-20,-25,-22,-23,47
-29,24,54,5,-38,40,61,-20,-19,-22,-17,47
-41,14,54,11,-50,34,49,-26,-19,-22,-23,47
-47,30,78,5,-62,52,55,-32,-19,-17,-23,47
-41,42,84,-1,-62,64,55,-32,-19,-22,-29,41
-41,30,72,5,-56,52,49,-38,-25,-28,-29,41
-53,24,78,17,-62,52,55,-38,-25,-22,-29,41
-53,19,72,17,-62,46,55,-26,-19,-22,-29,41
-53,19,72,17,-62,46,55,-26,-19,-22,-29,41
-53,19,72,17,-62,46,55,-20,-19,-22,-23,47
-47,19,66,11,-56,40,55,-26,-19,-22,-23,47
-53,8,60,23,-56,34,49,-32,-25,-22,-23,47
-71,2,72,29,-74,34,37,-38,-31,-28,-23,41
-77,2,78,35,-80,40,37,-43,-37,-34,-23,47
-89,-4,84,47,-86,40,31,-48,-37,-28,-23,47
-77,8,84,35,-80,46,43,-43,-31,-28,-23,47
-65,19,84,23,-74,52,43,-43,-25,-22,-17,47
-59,24,84,17,-68,52,43,-43,-19,-22,-17,47
-65,19,84,23,-74,52,37,-48,-25,-34,-23,47
-71,19,90,23,-80,52,31,-43,-19,-34,-23,47
-77,19,96,29,-86,58,37,-38,-13,-34,-17,47
-83,14,96,29,-92,52,37,-38,-13,-34,-17,47
-83,8,90,35,-86,46,43,-38,-13,-28,-17,53
-83,8,90,35,-86,46,37,-43,-13,-22,-17,53
-77,2,78,35,-80,40,49,-43,-13,-22,-11,47
-77,8,84,35,-80,46,49,-43,-13,-17,-11,47
-83,14,96,29,-92,52,49,-43,-13,-17,-11,47
-83,19,102,29,-92,58,43,-43,-19,-17,-11,47
-77,24,102,29,-86,64,49,-38,-13,-17,1,53
-77,30,108,23,-92,70,43,-32,-13,-17,7,59
-77,36,114,23,-92,76,43,-32,-13,-17,7,59
-71,30,102,17,-86,64,31,-38,-19,-22,1,53
-65,30,96,17,-80,64,25,-43,-19,-17,1,53
-65,36,102,17,-80,70,25,-43,-19,-17,7,53
-77,42,120,17,-98,82,31,-43,-13,-12,13,59
-77,36,114,23,-92,76,31,-43,-13,-12,13,53
-71,42,114,11,-92,76,37,-48,-7,-12,13,53
-47,54,102,-7,-74,76,49,-43,-1,-12,19,53
-41,60,102,-7,-68,82,55,-38,5,-6,31,65
-53,48,102,5,-74,76,49,-43,5,-12,31,65
-71,30,102,17,-86,64,37,-43,-7,-12,25,59
-77,36,114,23,-92,76,37,-43,-7,-12,25,65
-77,60,138,11,-104,100,37,-43,-7,-12,25,65
-71,66,138,-1,-104,100,43,-43,-1,-12,25,65
-71,66,138,-1,-104,100,43,-48,-1,-17,25,65
-65,60,126,5,-92,94,43,-60,-7,-17,19,59
-59,60,120,-1,-86,88,49,-60,-7,-22,19,59
-53,54,108,-1,-80,82,49,-60,-1,-17,19,65
-53,48,102,5,-74,76,49,-60,-1,-17,19,65
-47,54,102,-7,-74,76,43,-60,-7,-22,25,65
-53,42,96,5,-74,70,37,-60,-13,-17,25,65
-47,54,102,-7,-74,76,37,-54,-13,-12,31,65
-41,60,102,-7,-68,82,37,-54,-19,-6,37,65
-41,60,102,-7,-68,82,37,-54,-19,-6,37,71
-53,48,102,5,-74,76,37,-60,-25,-12,31,65
-65,42,108,11,-86,76,37,-66,-19,-17,31,65
-47,54,102,-7,-74,76,37,-60,-25,-17,25,71
-47,54,102,-7,-74,76,37,-60,-31,-22,25,65
-35,66,102,-19,-68,82,37,-66,-31,-28,25,65
-41,60,102,-7,-68,82,19,-78,-43,-34,13,59
-47,54,102,-7,-74,76,13,-78,-49,-34,13,59
-53,42,96,5,-74,70,13,-84,-55,-34,7,53
-65,30,96,17,-80,64,7,-90,-55,-40,7,47
-65,30,96,17,-80,64,13,-90,-55,-40,7,47
-59,36,96,11,-74,64,13,-90,-49,-40,13,47
-65,30,96,17,-80,64,19,-90,-49,-40,7,47
-71,24,96,23,-80,58,13,-90,-55,-40,7,53
-71,24,96,23,-80,58,13,-90,-55,-46,7,53
-65,24,90,23,-74,58,7,-90,-55,-40,7,53
-65,19,84,23,-74,52,7,-90,-55,-40,19,59
-71,19,90,23,-80,52,1,-90,-55,-40,19,59
-59,24,84,17,-68,52,7,-84,-55,-34,25,59
-53,30,84,11,-68,58,13,-84,-55,-34,25,59
-65,30,96,17,-80,64,13,-90,-55,-34,25,59
-65,30,96,17,-80,64,7,-96,-55,-40,19,53
-65,24,90,23,-74,58,13,-90,-49,-40,19,59
-71,24,96,23,-80,58,13,-90,-55,-46,13,59
-77,30,108,23,-92,70,7,-96,-67,-52,13,59
-59,30,90,11,-74,58,7,-96,-67,-52,19,59
-59,24,84,17,-68,52,1,-96,-67,-52,25,53
-59,19,78,17,-68,46,-5,-102,-73,-58,25,47
-59,14,72,17,-68,40,-11,-102,-67,-52,31,41
-47,8,54,17,-50,28,1,-102,-61,-46,31,41
-35,19,54,5,-44,34,7,-96,-55,-40,31,47
-35,19,54,5,-44,34,7,-90,-55,-40,25,47
-59,8,66,23,-62,34,1,-96,-67,-52,7,35
-77,8,84,35,-80,46,1,-96,-67,-58,7,35
-77,14,90,29,-86,52,1,-90,-67,-58,13,35
-77,19,96,29,-86,58,1,-96,-67,-58,19,35
-71,19,90,23,-80,52,1,-96,-67,-58,25,35
-59,19,78,17,-68,46,1,-102,-67,-58,25,41
-65,8,72,29,-68,40,-5,-108,-73,-58,25,41
-71,-4,66,35,-68,28,-11,-108,-73,-58,31,41
-65,8,72,29,-68,40,-11,-114,-73,-58,19,35
-59,19,78,17,-68,46,-11,-114,-79,-58,19,35
-53,24,78,17,-62,52,-11,-108,-73,-52,19,41
-59,19,78,17,-68,46,-5,-108,-67,-52,19,41
-77,14,90,29,-86,52,-5,-108,-73,-52,13,35
-77,14,90,29,-86,52,1,-102,-73,-52,19,35
-71,19,90,23,-80,52,1,-102,-73,-52,19,47
-77,8,84,35,-80,46,-5,-102,-79,-52,19,47
-77,-4,72,41,-74,34,-11,-108,-85,-58,19,53
-71,8,78,29,-74,40,-11,-114,-85,-52,13,47
-71,14,84,23,-80,46,-17,-120,-79,-52,7,47
-59,14,72,17,-68,40,-11,-114,-73,-46,13,41
-65,8,72,29,-68,40,-5,-114,-73,-46,19,41
-77,2,78,35,-80,40,-5,-108,-73,-46,13,35
-83,2,84,35,-86,40,-5,-108,-73,-52,13,35
-77,8,84,35,-80,46,-5,-108,-73,-46,19,41
-77,8,84,35,-80,46,1,-108,-79,-46,25,41
-71,19,90,23,-80,52,7,-114,-79,-52,25,41
-59,19,78,17,-68,46,7,-114,-79,-52,31,47
-65,8,72,29,-68,40,1,-120,-85,-58,25,41
-71,2,72,29,-74,34,-5,-126,-85,-64,19,35
-71,-4,66,35,-68,28,-5,-126,-85,-70,13,35
-77,-4,72,41,-74,34,-5,-120,-85,-70,13,29
-83,-10,72,41,-80,28,-11,-120,-91,-76,13,29
-83,-16,66,47,-74,22,-5,-114,-85,-64,19,29
-77,-16,60,47,-68,22,1,-114,-85,-64,19,29
-83,-28,54,53,-68,10,-5,-120,-91,-64,19,23
-77,-22,54,47,-68,16,-5,-126,-91,-64,13,23
-77,-16,60,47,-68,22,1,-120,-85,-64,19,23
-71,-10,60,35,-68,22,1,-120,-85,-64,19,23
-77,-16,60,47,-68,22,7,-120,-85,-58,19,29
-77,-16,60,47,-68,22,1,-126,-91,-64,13,23
-71,-10,60,35,-68,22,1,-126,-91,-64,13,23
-71,-16,54,41,-62,16,1,-120,-91,-64,19,29
-71,-4,66,35,-68,28,1,-120,-91,-70,25,29
-71,-10,60,35,-68,22,-11,-120,-91,-76,31,29
-65,2,66,29,-68,34,-11,-120,-91,-76,31,29
-65,14,78,23,-74,46,-5,-114,-91,-70,25,29
-71,8,78,29,-74,40,7,-114,-85,-64,25,35
-71,2,72,29,-74,34,7,-114,-85,-58,25,41
-65,14,78,23,-74,46,7,-114,-79,-58,25,41
-65,14,78,23,-74,46,7,-120,-85,-58,25,35
-53,14,66,17,-62,40,7,-126,-85,-64,25,35
-53,2,54,23,-56,28,7,-126,-85,-64,25,29
-53,-10,42,29,-50,16,7,-120,-91,-64,25,23
-53,-4,48,29,-50,22,1,-120,-91,-64,25,23
-47,2,48,17,-50,22,1,-120,-91,-64,31,23
-53,2,54,23,-56,28,1,-120,-97,-64,25,23
-59,14,72,17,-68,40,1,-120,-103,-70,25,23
-59,14,72,17,-68,40,1,-126,-103,-76,25,29
-53,14,66,17,-62,40,1,-126,-103,-76,25,23
-41,19,60,11,-50,40,7,-120,-97,-70,31,23
-41,19,60,11,-50,40,7,-114,-91,-70,37,23
-53,2,54,23,-56,28,13,-114,-91,-70,31,17
-59,-10,48,29,-56,16,13,-114,-91,-70,31,17
-41,19,60,11,-50,40,13,-114,-91,-64,25,17
-35,24,60,5,-44,40,19,-114,-91,-52,31,29
-35,24,60,5,-44,40,25,-114,-91,-52,31,29
-47,19,66,11,-56,40,13,-126,-103,-58,19,23
-41,14,54,11,-50,34,7,-126,-97,-64,19,23
-47,8,54,17,-50,28,7,-126,-91,-64,25,23
-53,2,54,23,-56,28,7,-126,-91,-64,25,23
-47,2,48,17,-50,22,7,-132,-85,-64,31,23
-53,-4,48,29,-50,22,7,-126,-85,-70,31,23
-59,2,60,23,-62,28,7,-126,-91,-76,31,23
-59,8,66,23,-62,34,7,-120,-91,-70,37,23
-59,14,72,17,-68,40,7,-120,-91,-64,37,29
-65,14,78,23,-74,46,13,-120,-91,-58,43,29
-59,14,72,17,-68,40,13,-114,-91,-58,37,35
-53,8,60,23,-56,34,13,-126,-97,-58,43,29
-41,14,54,11,-50,34,13,-120,-97,-58,43,41
-41,14,54,11,-50,34,19,-114,-85,-52,49,41
-47,2,48,17,-50,22,25,-120,-79,-52,49,41
-53,14,66,17,-62,40,25,-120,-73,-52,49,35
-53,19,72,17,-62,46,25,-120,-73,-52,49,35
-59,14,72,17,-68,40,25,-126,-79,-58,49,35
-59,8,66,23,-62,34,19,-126,-91,-58,49,29
-65,2,66,29,-68,34,19,-126,-97,-64,49,23
-71,-4,66,35,-68,28,19,-126,-103,-64,49,17
-77,-16,60,47,-68,22,25,-126,-103,-64,49,17
-83,-22,60,47,-74,16,25,-126,-103,-64,49,11
-89,-28,60,59,-74,16,19,-132,-103,-70,43,11
-89,-28,60,59,-74,16,19,-132,-103,-70,37,11
-77,-16,60,47,-68,22,25,-126,-91,-64,37,11
-53,2,54,23,-56,28,43,-108,-79,-46,43,35
-47,8,54,17,-50,28,43,-108,-79,-46,49,41
-59,2,60,23,-62,28,43,-114,-85,-52,49,41
-71,-4,66,35,-68,28,49,-120,-91,-58,49,35
-71,-4,66,35,-68,28,43,-120,-97,-58,49,35
-65,-10,54,35,-62,22,37,-126,-103,-64,55,47
-65,-10,54,35,-62,22,43,-126,-97,-58,55,41
-59,-16,42,35,-50,10,43,-126,-97,-64,55,41
-65,-16,48,41,-56,16,43,-126,-97,-70,55,35
-65,-16,48,41,-56,16,31,-126,-103,-76,49,29
-71,-16,54,41,-62,16,31,-126,-103,-82,49,29
-71,-10,60,35,-68,22,25,-120,-97,-76,55,35
-77,-10,66,41,-74,28,19,-120,-97,-76,49,35
-77,-22,54,47,-68,16,19,-126,-103,-70,49,29
-65,-22,42,41,-56,10,31,-126,-97,-64,49,35
-47,-16,30,29,-38,5,37,-126,-97,-58,55,35
-47,-4,42,23,-44,16,37,-132,-97,-58,49,35
-59,-10,48,29,-56,16,43,-132,-97,-58,49,35
-53,-4,48,29,-50,22,43,-126,-91,-58,55,41
-59,2,60,23,-62,28,31,-126,-103,-64,55,35
-65,2,66,29,-68,34,25,-120,-103,-70,55,41
-59,2,60,23,-62,28,25,-114,-103,-76,55,53
-53,8,60,23,-56,34,25,-114,-97,-76,61,59
-47,14,60,11,-56,34,37,-108,-85,-70,61,59
-41,19,60,11,-50,40,49,-102,-79,-58,67,71
-35,30,66,-1,-50,46,61,-96,-67,-40,85,77
-41,48,90,-1,-62,70,66,-96,-61,-34,91,83
-53,42,96,5,-74,70,71,-96,-55,-28,91,83
-47,48,96,-1,-68,70,77,-96,-55,-22,97,83
-35,60,96,-13,-62,76,89,-84,-43,-17,103,95
-35,66,102,-19,-68,82,89,-72,-37,-12,109,95
-35,66,102,-19,-68,82,95,-72,-37,0,115,101
-29,72,102,-19,-62,88,89,-78,-43,-6,115,101
-23,78,102,-29,-62,88,89,-72,-43,-12,115,101
-23,84,108,-29,-62,94,95,-72,-43,-12,115,95
-23,96,120,-35,-68,106,95,-78,-37,-12,121,101
-29,102,132,-35,-80,118,95,-78,-37,-6,115,107
-23,108,132,-41,-74,118,95,-78,-31,-6,121,107
-29,108,138,-35,-80,124,101,-78,-25,-6,127,113
-35,108,144,-35,-86,124,107,-72,-13,0,127,113
-41,102,144,-29,-92,124,107,-66,-7,6,133,119
-41,114,156,-35,-98,136,101,-60,-1,6,133,125
-35,126,162,-47,-98,142,95,-66,-1,6,139,131
-23,138,162,-59,-92,148,77,-72,-7,0,133,131
-17,150,168,-65,-92,160,66,-78,-13,0,133,131
-5,156,162,-71,-80,160,55,-84,-19,-6,139,131
1,144,144,-71,-68,142,43,-102,-25,-12,133,131
1,138,138,-71,-68,136,37,-108,-31,-12,133,131
1,126,126,-65,-62,124,25,-114,-31,-12,133,131
1,120,120,-59,-56,118,19,-120,-37,-17,127,137
-5,108,114,-47,-56,112,1,-132,-49,-28,115,125
-11,90,102,-41,-56,94,-11,-144,-61,-40,115,119
-5,78,84,-35,-44,82,-11,-144,-67,-46,115,113
13,90,78,-53,-32,82,-11,-138,-73,-52,115,107
19,96,78,-53,-26,88,-5,-132,-73,-52,115,101
7,78,72,-41,-32,76,-5,-132,-73,-46,109,95
1,66,66,-35,-32,64,-5,-132,-73,-46,103,89
1,60,60,-29,-26,58,1,-120,-73,-40,103,83
7,60,54,-29,-20,58,7,-120,-73,-40,103,83
1,60,60,-29,-26,58,13,-114,-67,-40,103,83
1,66,66,-35,-32,64,13,-108,-61,-40,109,83
-5,54,60,-24,-32,58,19,-114,-67,-34,103,83
-23,48,72,-13,-44,58,13,-114,-67,-46,91,77
-29,30,60,-1,-44,46,1,-120,-79,-52,85,71
-35,19,54,5,-44,34,-5,-120,-85,-52,85,71
-47,8,54,17,-50,28,-11,-132,-91,-58,79,71
-47,8,54,17,-50,28,-11,-138,-97,-58,73,65
-41,8,48,17,-44,28,-11,-144,-97,-64,73,65
-35,2,36,11,-38,16,-17,-144,-103,-64,67,59
-29,2,30,11,-32,16,-23,-138,-103,-70,61,47
-41,-4,36,23,-38,16,-41,-138,-103,-70,61,47
-29,-10,18,17,-26,5,-65,-132,-103,-70,61,41
-17,2,18,5,-20,10,-83,-126,-103,-64,67,41
-5,2,6,-1,-8,5,-107,-114,-97,-58,79,47
1,-10,-11,-1,4,-12,-137,-108,-97,-52,85,53
19,-16,-34,-1,26,-24,-179,-108,-97,-46,85,59
25,-22,-46,-7,32,-36,-227,-102,-103,-34,85,59
35,-22,-58,-7,44,-36,-263,-90,-91,-22,91,65
59,-10,-70,-24,62,-36,-299,-78,-85,-12,109,77
95,2,-94,-47,92,-42,-359,-66,-85,0,115,83
125,2,-124,-65,122,-60,-425,-54,-91,6,121,89
149,8,-142,-77,146,-66,-497,-43,-91,12,139,95
185,19,-166,-101,176,-72,-575,-20,-97,24,151,107
215,19,-196,-113,206,-84,-653,-2,-103,36,163,113
239,14,-226,-125,230,-102,-731,16,-109,48,163,113
281,19,-262,-149,272,-120,-815,34,-121,60,169,125
329,19,-310,-173,320,-144,-881,64,-127,66,175,131
377,24,-352,-197,368,-162,-959,82,-145,72,181,137
419,24,-394,-215,410,-180,-1055,94,-163,78,193,143
455,24,-430,-233,446,-198,-1139,112,-181,78,205,149
485,36,-448,-257,470,-204,-1217,124,-193,84,217,161
491,36,-454,-257,476,-204,-1295,142,-205,84,241,179
509,66,-442,-287,476,-186,-1337,160,-205,96,259,203
515,96,-418,-299,470,-156,-1361,172,-205,108,271,209
521,114,-406,-317,464,-144,-1379,184,-205,132,289,221
539,138,-400,-335,470,-126,-1397,184,-211,150,301,239
557,150,-406,-353,482,-126,-1421,190,-217,162,313,245
569,162,-406,-365,488,-120,-1451,202,-229,174,319,251
587,168,-418,-371,506,-120,-1469,208,-229,186,331,263
605,162,-442,-383,524,-138,-1481,196,-223,204,349,269
617,150,-466,-383,542,-156,-1493,130,-229,216,367,287
641,132,-508,-383,578,-186,-1505,34,-241,228,379,293
671,120,-550,-389,614,-210,-1493,-54,-247,246,385,293
701,114,-586,-407,644,-234,-1481,-138,-247,282,403,299
743,108,-634,-419,692,-258,-1463,-216,-235,336,421,305
791,96,-694,-437,746,-294,-1439,-276,-205,408,451,317
839,90,-748,-461,794,-324,-1403,-318,-169,498,487,323
899,90,-808,-491,854,-354,-1349,-348,-133,594,535,347
953,78,-874,-515,914,-396,-1289,-384,-109,690,583,359
995,54,-940,-521,968,-438,-1223,-420,-103,786,631,377
1031,30,-1000,-527,1016,-480,-1157,-450,-85,888,691,401
1055,2,-1054,-527,1052,-522,-1115,-480,-85,972,745,413
1085,-22,-1108,-533,1094,-564,-1091,-516,-109,1032,781,425
1109,-28,-1138,-539,1124,-582,-1055,-558,-145,1068,805,437
1103,-52,-1156,-521,1130,-600,-1025,-642,-211,1062,811,437
1073,-76,-1150,-497,1112,-612,-989,-732,-283,1044,817,443
1031,-112,-1144,-455,1088,-624,-953,-846,-397,960,787,431
983,-148,-1132,-413,1058,-636,-905,-978,-553,804,733,413
935,-178,-1114,-377,1022,-642,-857,-1098,-691,624,667,377
893,-202,-1096,-347,992,-648,-803,-1182,-811,438,595,341
815,-238,-1054,-287,932,-642,-725,-1266,-907,246,511,293
737,-280,-1018,-227,878,-648,-635,-1332,-979,54,421,233
659,-322,-982,-167,818,-648,-545,-1338,-1015,-94,325,179
587,-346,-934,-119,758,-636,-467,-1296,-1009,-190,253,131
521,-358,-880,-83,698,-618,-407,-1224,-973,-262,181,83
461,-370,-832,-47,644,-600,-353,-1134,-931,-304,115,47
407,-382,-790,-13,596,-582,-305,-1026,-877,-340,43,5
353,-388,-742,17,548,-564,-257,-924,-817,-370,-11,-35
293,-388,-682,47,488,-534,-215,-816,-751,-382,-45,-71
239,-382,-622,71,428,-498,-179,-702,-679,-388,-75,-95
197,-364,-562,83,380,-462,-149,-594,-601,-382,-93,-107
173,-340,-514,83,344,-426,-113,-492,-511,-364,-93,-113
149,-316,-466,83,308,-390,-77,-396,-433,-346,-105,-125
113,-292,-406,89,260,-348,-41,-318,-367,-328,-123,-143
89,-280,-370,95,230,-324,-11,-264,-319,-304,-129,-143
71,-262,-334,95,200,-294,7,-222,-289,-286,-129,-131
65,-250,-316,89,188,-282,25,-186,-265,-268,-123,-119
59,-232,-292,89,176,-258,37,-162,-241,-244,-111,-113
30,-214,-244,89,134,-228,37,-144,-223,-238,-105,-107
19,-196,-214,89,116,-204,49,-114,-199,-226,-93,-101
13,-166,-178,71,92,-174,61,-84,-163,-214,-81,-89
-11,-154,-142,77,62,-150,66,-66,-133,-208,-69,-89
-29,-136,-106,83,38,-120,77,-43,-103,-196,-69,-83
-53,-136,-82,95,16,-108,83,-32,-85,-190,-69,-77
-65,-136,-70,101,4,-102,89,-26,-67,-178,-63,-71
-71,-124,-52,95,-8,-90,95,-20,-55,-172,-51,-65
-71,-112,-40,89,-14,-78,107,-8,-37,-154,-45,-53
-71,-106,-34,83,-20,-72,113,4,-31,-142,-40,-47
-89,-100,-11,95,-38,-54,119,10,-25,-142,-35,-41
-95,-88,6,89,-50,-42,119,16,-13,-136,-29,-35
-107,-76,30,89,-68,-24,119,22,-1,-130,-23,-35
-113,-70,42,89,-80,-12,125,34,17,-118,-17,-30
-131,-76,54,101,-92,-12,125,46,23,-118,-23,-35
-143,-82,60,107,-104,-12,119,46,29,-124,-29,-47
-155,-88,66,119,-110,-12,119,52,29,-118,-29,-53
-155,-76,78,113,-116,0,119,58,35,-106,-23,-47
-143,-64,78,101,-110,5,125,64,47,-94,-11,-41
-137,-58,78,95,-110,10,131,70,53,-94,-5,-41
-137,-52,84,95,-110,16,131,70,65,-88,-5,-35
-143,-40,102,89,-122,28,137,76,77,-82,1,-30
-143,-40,102,89,-122,28,137,82,83,-82,1,-30
-149,-46,102,95,-128,28,137,82,83,-82,1,-25
-155,-46,108,95,-134,28,137,88,95,-76,1,-25
-149,-40,108,95,-128,34,143,100,106,-70,1,-25
-149,-34,114,89,-134,40,155,106,106,-64,7,-25
-149,-40,108,95,-128,34,155,112,111,-58,13,-25
-155,-40,114,95,-134,34,155,118,123,-52,19,-19
-155,-34,120,89,-140,40,155,118,123,-46,19,-19
-155,-22,132,83,-146,52,155,112,123,-52,13,-25
-155,-28,126,89,-140,46,155,112,123,-52,7,-19
-167,-28,138,95,-152,52,155,118,123,-52,1,-19
-173,-28,144,101,-158,58,161,118,123,-52,7,-19
-161,-16,144,89,-152,64,167,130,135,-46,7,-13
-161,-16,144,89,-152,64,173,142,147,-40,7,-19
-167,-16,150,89,-158,64,179,148,153,-34,13,-19
-173,-10,162,89,-170,76,185,154,159,-28,13,-25
-167,-4,162,83,-164,76,185,160,165,-22,13,-25
-167,2,168,77,-170,82,185,166,171,-17,19,-19
-167,2,168,77,-170,82,191,178,177,-17,25,-19
-167,-4,162,83,-164,76,197,184,183,-12,25,-19
-167,8,174,77,-170,88,203,190,183,-12,25,-19
-161,8,168,77,-164,88,209,196,189,-12,25,-13
-161,2,162,77,-164,82,209,202,195,-6,25,-7
-155,-4,150,77,-152,70,215,214,207,-6,31,-7
-143,14,156,59,-152,82,227,226,219,6,43,-1
-155,14,168,65,-164,88,221,232,225,6,37,-1
-167,8,174,77,-170,88,221,244,231,12,37,-7
-155,14,168,65,-164,88,227,256,243,18,37,-7
-143,19,162,59,-152,88,233,274,249,24,37,-1
-137,30,168,53,-152,100,239,286,267,24,43,-1
-131,48,180,41,-152,112,245,298,279,30,49,-1
-125,60,186,35,-152,124,245,304,291,36,49,-1
-137,54,192,41,-164,124,245,310,297,42,49,-7
-155,48,204,53,-176,124,251,322,309,48,49,-1
-155,60,216,47,-182,136,263,340,321,54,49,-1
-143,72,216,35,-176,142,275,352,333,66,55,5
-143,84,228,29,-182,154,281,364,345,78,61,5
-155,84,240,35,-194,160,281,376,357,90,61,5
-149,96,246,29,-194,172,287,382,369,96,61,5
-149,90,240,29,-194,166,287,400,387,108,67,11
-143,90,234,23,-188,160,293,418,405,114,73,11
-149,96,246,29,-194,172,299,430,417,114,73,11
-143,108,252,17,-194,178,299,442,429,114,73,11
-149,114,264,17,-206,190,311,466,453,126,79,11
-155,114,270,17,-212,190,323,484,471,138,85,17
-161,126,288,17,-224,208,335,496,483,144,79,17
-167,126,294,17,-230,208,347,520,501,150,85,23
-173,126,300,23,-236,214,347,532,513,162,85,29
-173,120,294,29,-230,208,353,556,537,174,85,35
-173,120,294,29,-230,208,359,574,555,186,91,41
-161,144,306,11,-230,226,365,592,573,192,91,41
-137,162,300,-13,-218,232,371,610,597,204,103,47
-137,174,312,-19,-224,244,383,634,615,228,115,53
-143,174,318,-19,-230,244,389,652,633,240,127,59
-155,174,330,-13,-242,250,401,670,651,258,133,59
-155,174,330,-13,-242,250,407,688,669,264,133,53
-149,186,336,-19,-242,262,425,712,687,276,139,59
-143,198,342,-29,-242,268,437,736,705,294,151,71
-143,204,348,-29,-242,274,443,754,723,306,157,77
-143,204,348,-29,-242,274,449,778,741,318,163,83
-137,210,348,-35,-242,280,449,796,765,330,163,89
-137,210,348,-35,-242,280,449,820,777,348,175,95
-137,210,348,-35,-242,280,455,838,795,360,181,95
-131,222,354,-47,-242,286,455,850,807,378,187,101
-131,228,360,-47,-242,292,467,868,819,384,199,107
-137,240,378,-47,-254,310,467,880,831,390,199,107
-131,246,378,-59,-254,310,473,892,837,402,205,113
-143,234,378,-47,-260,304,467,898,843,408,199,113
-149,228,378,-35,-260,304,467,910,849,414,199,113
-125,240,366,-53,-242,304,467,928,867,432,205,125
-107,258,366,-77,-236,310,473,946,879,450,223,131
-101,258,360,-77,-230,310,461,958,891,462,229,131
-95,264,360,-83,-224,310,455,964,897,474,241,137
-95,270,366,-89,-230,316,455,970,903,480,253,137
-89,276,366,-89,-224,322,461,976,909,492,265,137
-83,276,360,-95,-218,316,455,982,909,498,271,137
-83,264,348,-89,-212,304,449,982,909,498,277,143
-71,264,336,-95,-200,298,443,976,903,498,271,143
-65,264,330,-95,-194,298,431,976,903,504,265,143
-47,252,300,-101,-170,274,425,970,897,504,259,149
-35,252,288,-107,-158,268,413,964,885,498,259,149
-29,252,282,-107,-152,268,401,952,867,492,265,143
-23,258,282,-119,-152,268,389,940,849,480,271,143
-23,258,282,-119,-152,268,377,922,825,474,271,137
-29,258,288,-113,-158,274,365,898,795,462,265,131
-41,240,282,-95,-158,262,341,862,759,450,259,131
-41,228,270,-89,-152,250,329,832,735,444,259,131
-23,228,252,-101,-134,238,323,802,717,444,259,137
-11,222,234,-107,-122,226,305,766,687,426,247,131
-17,210,228,-95,-122,220,281,718,651,402,235,125
-23,204,228,-89,-122,214,263,676,615,384,235,119
-23,198,222,-89,-122,208,251,634,579,366,223,113
-23,186,210,-83,-116,196,233,598,531,342,211,113
-17,192,210,-83,-110,202,233,556,489,318,205,113
-29,174,204,-71,-116,190,227,514,447,300,199,107
-41,156,198,-53,-116,178,221,478,423,276,187,101
-47,144,192,-47,-116,166,209,442,393,246,175,89
-59,126,186,-35,-122,154,197,400,363,216,157,77
-59,108,168,-24,-110,136,191,370,339,198,157,71
-47,102,150,-29,-98,124,185,340,315,180,151,71
-41,102,144,-29,-92,124,173,304,285,168,139,59
-59,84,144,-13,-98,112,155,268,249,150,121,41
-59,84,144,-13,-98,112,149,238,219,132,115,41
-59,84,144,-13,-98,112,137,208,201,120,109,35
-59,66,126,-7,-92,94,131,184,177,108,97,29
-71,48,120,11,-92,82,125,166,159,90,85,29
-77,42,120,17,-98,82,119,154,147,72,79,23
-83,36,120,23,-98,76,119,136,129,60,73,11
-83,30,114,23,-98,70,113,124,117,48,61,5
-83,19,102,29,-92,58,107,112,106,36,55,-1
-89,14,102,35,-98,58,107,94,95,24,49,-7
-95,8,102,41,-98,52,107,82,77,24,49,-13
-83,8,90,35,-86,46,113,82,65,18,49,-7
-71,14,84,23,-80,46,119,70,59,6,43,-13
-71,2,72,29,-74,34,113,58,47,6,37,-19
-77,-10,66,41,-74,28,107,52,35,6,37,-25
-71,-4,66,35,-68,28,107,46,35,0,37,-25
-71,-4,66,35,-68,28,101,40,29,0,31,-25
-83,-10,72,41,-80,28,101,34,29,-12,19,-30
-89,-16,72,53,-80,28,89,22,17,-17,13,-30
-95,-22,72,53,-86,22,89,16,5,-28,7,-35
-101,-22,78,59,-92,28,89,10,-1,-34,1,-35
-101,-16,84,59,-92,34,89,4,-7,-40,-5,-35
-101,-28,72,65,-86,22,89,-2,-13,-52,-11,-47
-89,-34,54,59,-74,10,89,-8,-19,-52,-11,-47
-83,-34,48,53,-68,5,95,-2,-19,-52,-5,-41
-83,-46,36,59,-62,-6,95,-2,-19,-58,-5,-35
-83,-52,30,65,-56,-12,95,-2,-19,-58,-17,-41
-83,-52,30,65,-56,-12,95,-2,-19,-52,-17,-35
-89,-52,36,71,-62,-6,95,4,-19,-52,-11,-35
-89,-52,36,71,-62,-6,95,-2,-19,-58,-11,-41
-95,-58,36,71,-68,-12,95,-8,-25,-58,-17,-35
-101,-64,36,83,-68,-12,89,-14,-37,-64,-17,-35
-101,-64,36,83,-68,-12,89,-20,-37,-64,-17,-35
-95,-64,30,77,-62,-18,83,-20,-37,-58,-17,-35
-83,-52,30,65,-56,-12,89,-8,-25,-52,-17,-30
-83,-52,30,65,-56,-12,95,-8,-25,-52,-17,-30
-83,-46,36,59,-62,-6,95,-8,-25,-46,-17,-30
-77,-40,36,59,-56,0,95,-8,-25,-46,-23,-19
-77,-40,36,59,-56,0,95,-8,-31,-46,-23,-25
-77,-34,42,53,-62,5,101,-8,-31,-46,-17,-25
-77,-40,36,59,-56,0,107,-8,-25,-52,-11,-25
-83,-40,42,59,-62,0,101,-14,-25,-40,-5,-25
-89,-34,54,59,-74,10,101,-8,-19,-40,-11,-25
-89,-34,54,59,-74,10,101,-8,-19,-46,-17,-19
-83,-34,48,53,-68,5,95,-8,-25,-46,-17,-19
-89,-34,54,59,-74,10,95,-8,-19,-46,-17,-19
-95,-46,48,65,-74,0,89,-14,-25,-52,-17,-25
-95,-46,48,65,-74,0,89,-20,-25,-58,-17,-30
-95,-46,48,65,-74,0,89,-20,-25,-52,-11,-30
-89,-40,48,65,-68,5,101,-20,-19,-46,-11,-30
-65,-10,54,35,-62,22,107,-14,-13,-40,-5,-19
-59,2,60,23,-62,28,113,-8,-13,-40,1,-13
-83,-4,78,41,-80,34,107,-14,-25,-46,-5,-13
-95,-16,78,53,-86,28,107,-8,-13,-46,-5,-13
-95,-22,72,53,-86,22,107,-8,-13,-40,-5,-7
-89,-22,66,53,-80,22,113,-8,-7,-34,-5,-7
-83,-16,66,47,-74,22,119,-8,-1,-34,-11,-7
-83,-22,60,47,-74,16,107,-14,-7,-40,-17,-13
-89,-34,54,59,-74,10,107,-20,-13,-46,-11,-19
-95,-34,60,59,-80,10,107,-26,-19,-46,-11,-19
-89,-28,60,59,-74,16,107,-32,-25,-52,-11,-19
-89,-22,66,53,-80,22,107,-32,-25,-58,-17,-19
-89,-16,72,53,-80,28,113,-32,-19,-52,-11,-7
-83,-16,66,47,-74,22,113,-32,-19,-52,-11,-13
-83,-16,66,47,-74,22,107,-38,-19,-52,-17,-13
-71,-4,66,35,-68,28,107,-38,-13,-46,-17,-13
-65,2,66,29,-68,34,113,-32,-7,-40,-11,-7
-71,-4,66,35,-68,28,119,-32,-7,-40,-5,-7
-83,-4,78,41,-80,34,119,-32,-13,-40,-5,-1
-95,-16,78,53,-86,28,119,-32,-13,-34,-11,-7
-101,-16,84,59,-92,34,113,-32,-13,-34,-11,-7
-95,-16,78,53,-86,28,113,-38,-13,-34,-17,-7
-89,-10,78,47,-86,34,113,-38,-19,-34,-17,-7
-89,-10,78,47,-86,34,113,-38,-19,-40,-11,-7
-77,2,78,35,-80,40,113,-38,-19,-40,-5,5
-77,2,78,35,-80,40,113,-38,-19,-40,-5,5
-83,2,84,35,-86,40,113,-43,-19,-46,-11,-1
-83,2,84,35,-86,40,113,-43,-13,-52,-11,-1
-83,8,90,35,-86,46,119,-43,-13,-46,-5,-1
-77,2,78,35,-80,40,125,-38,-7,-46,-5,5
-71,8,78,29,-74,40,125,-32,-7,-46,-5,17
-77,-10,66,41,-74,28,125,-38,-7,-52,-11,11
-89,-22,66,53,-80,22,125,-38,-13,-46,-17,5
-89,-10,78,47,-86,34,131,-38,-13,-40,-17,5
-83,-4,78,41,-80,34,131,-38,-7,-34,-5,5
-83,-10,72,41,-80,28,131,-38,-7,-34,-5,5
-83,-10,72,41,-80,28,125,-43,-13,-46,-11,-1
-83,8,90,35,-86,46,119,-48,-19,-58,-17,-1
-77,8,84,35,-80,46,119,-48,-13,-52,-17,5
-77,2,78,35,-80,40,131,-43,-13,-52,-17,11
-65,14,78,23,-74,46,131,-43,-13,-52,-17,17
-65,19,84,23,-74,52,131,-48,-25,-52,-23,17
-65,14,78,23,-74,46,125,-54,-31,-58,-23,11
-65,14,78,23,-74,46,125,-48,-25,-58,-23,5
-71,19,90,23,-80,52,131,-43,-25,-58,-23,5
-77,8,84,35,-80,46,125,-48,-31,-64,-29,-1
-83,2,84,35,-86,40,119,-60,-43,-76,-35,-7
-83,2,84,35,-86,40,119,-66,-49,-76,-35,-7
-77,8,84,35,-80,46,131,-72,-43,-76,-35,-1
-77,2,78,35,-80,40,137,-72,-43,-82,-29,5
-77,-4,72,41,-74,34,137,-72,-43,-76,-29,11
-83,-16,66,47,-74,22,131,-72,-43,-76,-23,5
-95,-28,66,59,-80,16,125,-78,-49,-76,-29,-1
-89,-28,60,59,-74,16,125,-72,-55,-76,-29,5
-77,-10,66,41,-74,28,119,-72,-55,-76,-29,11
-71,-16,54,41,-62,16,119,-72,-55,-76,-29,11
-59,-10,48,29,-56,16,119,-72,-49,-76,-23,11
-59,-10,48,29,-56,16,113,-72,-49,-76,-23,5
-65,-16,48,41,-56,16,113,-72,-55,-82,-23,-1
-71,-22,48,41,-62,10,113,-78,-55,-82,-17,5
-71,-22,48,41,-62,10,113,-78,-61,-82,-17,5
-83,-22,60,47,-74,16,107,-84,-67,-88,-23,5
-89,-28,60,59,-74,16,107,-90,-67,-88,-29,5
-95,-34,60,59,-80,10,107,-90,-67,-94,-29,5
-95,-34,60,59,-80,10,101,-90,-67,-94,-35,5
-95,-34,60,59,-80,10,101,-90,-67,-100,-35,5
-89,-28,60,59,-74,16,95,-96,-73,-106,-40,5
-89,-22,66,53,-80,22,95,-90,-73,-112,-35,-1
-89,-28,60,59,-74,16,95,-90,-73,-112,-35,-7
-77,-28,48,53,-62,10,95,-90,-73,-112,-35,-7
-71,-22,48,41,-62,10,95,-90,-67,-106,-35,-1
-59,-16,42,35,-50,10,89,-90,-67,-106,-35,-1
-59,-10,48,29,-56,16,89,-96,-73,-112,-40,-1
-83,-16,66,47,-74,22,83,-102,-73,-112,-40,-7
-101,-22,78,59,-92,28,83,-102,-73,-112,-40,-7
-101,-22,78,59,-92,28,83,-108,-85,-112,-40,-13
-95,-28,66,59,-80,16,83,-108,-79,-106,-40,-13
-95,-34,60,59,-80,10,83,-102,-79,-106,-40,-7
-95,-40,54,65,-74,5,83,-102,-85,-112,-40,-7
-89,-52,36,71,-62,-6,89,-108,-91,-112,-45,-7
-89,-52,36,71,-62,-6,77,-108,-91,-112,-45,-13
-95,-52,42,71,-68,-6,71,-114,-85,-112,-51,-13
-95,-58,36,71,-68,-12,71,-114,-79,-106,-45,-13
-95,-52,42,71,-68,-6,77,-102,-73,-106,-45,-13
-95,-52,42,71,-68,-6,77,-102,-73,-100,-45,-13
-95,-52,42,71,-68,-6,77,-102,-73,-100,-45,-19
-101,-40,60,71,-80,10,71,-108,-85,-112,-51,-25
-95,-28,66,59,-80,16,77,-108,-91,-112,-51,-19
-89,-22,66,53,-80,22,77,-108,-85,-112,-45,-13
-95,-28,66,59,-80,16,77,-102,-85,-106,-40,-7
-95,-34,60,59,-80,10,77,-108,-85,-112,-40,-13
-95,-34,60,59,-80,10,71,-108,-85,-112,-40,-13
-101,-46,54,71,-80,5,66,-108,-85,-112,-40,-19
-113,-52,60,83,-86,5,66,-108,-85,-118,-51,-19
-101,-40,60,71,-80,10,61,-108,-85,-106,-45,-13
-101,-34,66,65,-86,16,61,-108,-85,-106,-45,-13
-107,-34,72,65,-92,16,61,-108,-91,-106,-45,-25
-95,-28,66,59,-80,16,66,-108,-97,-112,-45,-19
-89,-28,60,59,-74,16,66,-108,-97,-112,-40,-13
-101,-40,60,71,-80,10,66,-102,-91,-118,-45,-13
-101,-40,60,71,-80,10,66,-108,-91,-118,-45,-7
-95,-40,54,65,-74,5,61,-114,-91,-124,-57,-13
-89,-34,54,59,-74,10,61,-114,-91,-130,-63,-19
-101,-40,60,71,-80,10,55,-114,-91,-130,-69,-19
-101,-34,66,65,-86,16,49,-108,-97,-130,-69,-19
-95,-28,66,59,-80,16,49,-108,-97,-130,-63,-25
-95,-28,66,59,-80,16,49,-114,-97,-130,-63,-30
-89,-22,66,53,-80,22,49,-114,-103,-130,-63,-30
-89,-34,54,59,-74,10,49,-114,-109,-136,-57,-35
-89,-40,48,65,-68,5,49,-120,-103,-136,-57,-30
-89,-52,36,71,-62,-6,55,-120,-97,-130,-57,-30
-95,-58,36,71,-68,-12,55,-114,-91,-118,-57,-25
-101,-58,42,77,-74,-6,49,-114,-91,-118,-57,-25
-101,-52,48,77,-74,0,43,-114,-91,-112,-57,-25
-95,-46,48,65,-74,0,43,-108,-85,-100,-51,-19
-89,-34,54,59,-74,10,43,-108,-91,-100,-51,-19
-101,-34,66,65,-86,16,37,-108,-91,-112,-63,-30
-95,-40,54,65,-74,5,37,-102,-91,-118,-69,-30
-89,-40,48,65,-68,5,31,-108,-97,-130,-75,-35
-83,-34,48,53,-68,5,31,-108,-91,-136,-75,-41
-83,-40,42,59,-62,0,31,-114,-97,-136,-81,-35
-89,-46,42,65,-68,0,31,-120,-103,-136,-69,-35
-95,-52,42,71,-68,-6,31,-126,-103,-130,-63,-30
-89,-46,42,65,-68,0,37,-120,-103,-124,-57,-25
-65,-16,48,41,-56,16,43,-108,-97,-112,-51,-13
-65,-10,54,35,-62,22,37,-108,-97,-118,-51,-13
-83,-16,66,47,-74,22,31,-114,-109,-130,-63,-25
-83,-22,60,47,-74,16,25,-114,-103,-136,-69,-25
-77,-22,54,47,-68,16,31,-108,-97,-130,-57,-25
-65,-22,42,41,-56,10,37,-102,-91,-124,-57,-19
-59,-34,24,41,-44,-6,31,-102,-91,-124,-57,-25
-71,-40,30,53,-50,-6,25,-108,-103,-130,-63,-25
-77,-40,36,59,-56,0,19,-102,-97,-130,-63,-25
-77,-40,36,59,-56,0,19,-102,-97,-124,-57,-13
-89,-34,54,59,-74,10,13,-108,-103,-130,-63,-25
-89,-28,60,59,-74,16,7,-120,-103,-136,-75,-30
-95,-28,66,59,-80,16,1,-126,-103,-142,-81,-30
-89,-40,48,65,-68,5,7,-126,-97,-142,-81,-30
-83,-40,42,59,-62,0,13,-126,-91,-142,-81,-30
-83,-34,48,53,-68,5,13,-126,-91,-142,-81,-30
-89,-46,42,65,-68,0,13,-126,-103,-142,-81,-30
-77,-40,36,59,-56,0,13,-120,-103,-136,-75,-25
-71,-28,42,47,-56,5,7,-114,-97,-130,-69,-19
-83,-52,30,65,-56,-12,-5,-108,-103,-130,-69,-25
-89,-58,30,71,-62,-12,-11,-108,-103,-124,-69,-25
-89,-40,48,65,-68,5,-5,-114,-103,-130,-75,-25
-89,-34,54,59,-74,10,-5,-114,-97,-130,-75,-25
-89,-34,54,59,-74,10,-5,-114,-97,-130,-75,-25
-89,-40,48,65,-68,5,1,-120,-103,-136,-75,-25
-83,-46,36,59,-62,-6,1,-120,-103,-142,-81,-30
-77,-52,24,65,-50,-12,-5,-114,-103,-136,-69,-25
-77,-46,30,59,-56,-6,-5,-114,-109,-142,-69,-30
-83,-40,42,59,-62,0,-11,-114,-109,-142,-69,-30
-83,-34,48,53,-68,5,-11,-114,-109,-142,-69,-30
-89,-34,54,59,-74,10,-11,-114,-109,-142,-75,-35
-89,-22,66,53,-80,22,-5,-120,-109,-148,-81,-35
-83,-40,42,59,-62,0,-5,-120,-109,-136,-81,-30
-71,-46,24,53,-50,-12,-5,-120,-103,-130,-75,-25
-71,-52,18,59,-44,-18,-5,-120,-103,-130,-69,-19
-77,-64,12,71,-44,-24,-11,-120,-109,-136,-75,-25
-83,-64,18,71,-50,-24,-23,-120,-115,-136,-81,-30
-83,-64,18,71,-50,-24,-23,-120,-115,-136,-87,-35
-95,-58,36,71,-68,-12,-11,-114,-109,-142,-93,-35
-101,-46,54,71,-80,5,-11,-114,-109,-142,-99,-41
-83,-28,54,53,-68,10,-5,-126,-109,-148,-105,-47
-77,-28,48,53,-62,10,1,-138,-109,-148,-99,-47
-77,-34,42,53,-62,5,1,-138,-109,-142,-93,-47
-77,-52,24,65,-50,-12,7,-138,-109,-136,-87,-35
-71,-46,24,53,-50,-12,1,-138,-103,-136,-87,-35
-47,-34,12,35,-32,-12,7,-126,-103,-136,-81,-30
-53,-34,18,41,-38,-6,1,-120,-103,-136,-87,-30
-65,-28,36,47,-50,5,1,-120,-103,-136,-87,-35
-71,-22,48,41,-62,10,1,-120,-103,-142,-81,-35
-65,-16,48,41,-56,16,-5,-114,-97,-136,-81,-30
-65,-16,48,41,-56,16,-5,-114,-97,-130,-81,-30
-59,-28,30,41,-44,0,1,-120,-97,-124,-81,-30
-53,-34,18,41,-38,-6,-5,-126,-103,-124,-87,-30
-59,-46,12,47,-38,-18,1,-120,-103,-124,-87,-30
-59,-46,12,47,-38,-18,1,-120,-103,-124,-81,-30
-53,-46,6,47,-32,-18,1,-114,-103,-130,-87,-30
-59,-40,18,47,-38,-12,-5,-108,-97,-130,-81,-30
-59,-34,24,41,-44,-6,1,-102,-85,-124,-75,-30
-53,-22,30,35,-44,5,7,-90,-73,-124,-69,-30
-65,-28,36,47,-50,5,7,-90,-67,-124,-75,-30
-71,-22,48,41,-62,10,19,-84,-67,-124,-69,-25
-71,-10,60,35,-68,22,25,-84,-67,-124,-69,-19
-59,2,60,23,-62,28,37,-84,-67,-112,-63,-13
-53,19,72,17,-62,46,37,-84,-67,-106,-57,-7
-47,36,84,5,-62,58,43,-78,-67,-100,-51,-7
-47,30,78,5,-62,52,49,-78,-67,-100,-51,-1
-59,24,84,17,-68,52,43,-78,-67,-100,-51,-1
-65,19,84,23,-74,52,49,-84,-67,-94,-57,-1
-65,19,84,23,-74,52,61,-84,-55,-94,-57,-1
-65,19,84,23,-74,52,66,-84,-49,-88,-57,-1
-59,24,84,17,-68,52,77,-84,-43,-88,-51,5
-53,36,90,11,-68,64,77,-78,-43,-88,-51,-1
-47,60,108,-7,-74,82,71,-78,-37,-82,-45,-1
-47,66,114,-13,-80,88,71,-78,-37,-76,-40,5
-47,72,120,-13,-80,94,66,-78,-37,-76,-40,5
-59,66,126,-7,-92,94,61,-72,-31,-64,-35,17
-65,72,138,-1,-98,106,55,-72,-31,-64,-23,23
-53,78,132,-13,-92,106,49,-84,-37,-58,-23,29
-35,90,126,-29,-80,106,37,-90,-31,-64,-29,29
-29,90,120,-29,-74,106,31,-96,-31,-64,-23,29
-23,84,108,-29,-62,94,13,-108,-37,-64,-23,35
-23,84,108,-29,-62,94,1,-120,-37,-64,-23,35
-23,84,108,-29,-62,94,-11,-126,-43,-58,-29,29
-11,84,96,-35,-50,88,-17,-126,-43,-58,-23,29
-17,78,96,-29,-56,88,-23,-132,-55,-64,-29,17
-17,72,90,-24,-50,82,-29,-138,-67,-82,-40,11
-23,60,84,-19,-50,70,-35,-144,-79,-106,-40,5
-29,36,66,-1,-44,52,-41,-144,-91,-118,-45,-1
-11,36,48,-13,-26,40,-29,-138,-91,-118,-45,-1
-11,24,36,-7,-20,28,-29,-132,-91,-112,-45,-1
-11,24,36,-7,-20,28,-23,-126,-85,-106,-40,5
1,36,36,-19,-14,34,-17,-126,-85,-100,-45,11
1,30,30,-19,-14,28,-17,-126,-85,-106,-51,5
-11,14,24,-7,-20,16,-23,-132,-91,-112,-57,-7
-17,2,18,5,-20,10,-23,-132,-91,-118,-57,-13
-23,-10,12,11,-20,0,-17,-126,-91,-118,-63,-19
-41,-34,6,35,-26,-12,-17,-132,-103,-130,-75,-30
-41,-34,6,35,-26,-12,-29,-138,-115,-130,-81,-35
-29,-28,0,29,-14,-12,-23,-138,-115,-124,-87,-35
-35,-46,-11,35,-14,-30,-29,-144,-115,-124,-93,-35
-35,-40,-6,35,-14,-24,-35,-150,-115,-124,-99,-35
-41,-40,0,41,-20,-18,-41,-144,-121,-130,-99,-35
-47,-52,-6,47,-20,-30,-41,-144,-127,-136,-105,-35
-65,-64,0,65,-32,-30,-53,-150,-133,-142,-105,-41
-59,-70,-11,59,-26,-42,-53,-144,-121,-130,-99,-35
-47,-70,-22,53,-14,-48,-65,-132,-115,-130,-99,-35
-35,-70,-34,47,-2,-54,-89,-132,-115,-130,-99,-35
-23,-76,-52,47,16,-66,-113,-132,-115,-124,-93,-30
-5,-70,-64,35,26,-66,-143,-126,-115,-112,-87,-30
7,-64,-70,29,38,-66,-179,-126,-115,-106,-81,-25
13,-64,-76,23,44,-72,-221,-126,-121,-100,-69,-13
25,-58,-82,11,50,-72,-257,-120,-121,-94,-63,-1
35,-46,-82,5,56,-60,-287,-108,-109,-76,-51,11
53,-46,-100,-7,74,-72,-323,-90,-109,-58,-40,23
71,-46,-118,-13,92,-78,-383,-78,-115,-46,-35,23
95,-52,-148,-19,122,-96,-455,-72,-127,-40,-35,23
125,-52,-178,-35,152,-114,-533,-66,-133,-28,-17,41
167,-64,-232,-47,200,-144,-623,-48,-139,-17,-5,59
203,-52,-256,-71,230,-150,-701,-32,-145,0,13,71
239,-46,-286,-95,260,-162,-779,-2,-145,12,25,89
269,-40,-310,-113,290,-174,-851,22,-151,18,31,101
293,-40,-334,-125,314,-186,-917,46,-157,18,37,107
323,-40,-364,-137,344,-198,-995,58,-181,18,37,113
359,-28,-388,-161,374,-204,-1073,70,-199,24,43,119
395,-4,-400,-191,398,-198,-1145,82,-217,36,55,131
425,14,-412,-221,416,-198,-1223,100,-229,48,73,149
455,30,-424,-239,440,-192,-1289,118,-241,60,97,173
461,48,-412,-251,440,-180,-1325,130,-241,72,115,185
467,72,-394,-263,434,-156,-1343,148,-235,84,127,197
479,96,-382,-281,434,-138,-1349,166,-235,102,151,221
491,114,-376,-299,434,-126,-1355,178,-229,114,163,239
509,114,-394,-311,452,-138,-1373,196,-229,126,175,245
527,108,-418,-311,476,-150,-1397,214,-229,144,181,251
551,102,-448,-323,500,-168,-1409,208,-229,156,181,257
575,90,-484,-329,530,-192,-1421,178,-235,174,187,251
605,72,-532,-335,572,-228,-1427,106,-241,192,193,251
641,60,-580,-347,614,-258,-1427,28,-253,222,199,251
677,48,-628,-359,656,-288,-1415,-38,-253,264,223,257
719,48,-670,-377,698,-306,-1403,-102,-241,330,259,269
761,42,-718,-401,740,-336,-1373,-156,-217,414,307,293
785,19,-766,-401,776,-372,-1349,-204,-187,510,349,305
809,-4,-814,-401,812,-408,-1325,-252,-139,618,397,317
863,2,-862,-431,860,-426,-1265,-294,-97,738,463,341
917,2,-916,-461,914,-456,-1193,-342,-55,882,541,371
947,-10,-958,-467,950,-480,-1115,-390,-37,1014,619,401
989,-22,-1012,-485,998,-516,-1037,-426,-19,1134,679,425
1031,-40,-1072,-491,1052,-552,-971,-438,-25,1218,727,443
1031,-82,-1114,-473,1070,-594,-917,-468,-61,1260,757,449
1013,-130,-1144,-443,1076,-636,-857,-552,-133,1254,769,455
983,-148,-1132,-413,1058,-636,-797,-654,-217,1224,775,461
935,-184,-1120,-371,1028,-648,-737,-774,-343,1134,751,449
881,-232,-1114,-323,998,-672,-677,-906,-505,966,697,419
833,-268,-1102,-281,968,-684,-599,-1020,-661,762,625,389
791,-292,-1084,-245,938,-684,-527,-1104,-799,558,547,353
737,-322,-1060,-209,896,-690,-449,-1188,-913,348,451,299
671,-358,-1030,-155,848,-690,-371,-1236,-1003,120,331,227
599,-394,-994,-101,794,-690,-293,-1248,-1057,-64,211,167
533,-418,-952,-59,740,-684,-221,-1206,-1057,-190,121,113
461,-436,-898,-13,680,-666,-161,-1140,-1021,-274,49,71
401,-442,-844,17,620,-642,-113,-1056,-979,-340,-17,23
341,-454,-796,53,566,-624,-77,-972,-919,-388,-93,-25
281,-466,-748,89,512,-606,-41,-876,-859,-424,-153,-59
227,-472,-700,125,464,-582,1,-774,-793,-436,-207,-101
185,-460,-646,137,416,-552,37,-672,-727,-436,-243,-131
161,-430,-592,131,374,-510,66,-564,-649,-424,-255,-143
143,-400,-544,131,344,-468,95,-462,-571,-412,-267,-161
125,-376,-502,125,314,-438,119,-366,-487,-400,-279,-167
101,-364,-466,131,284,-414,131,-288,-421,-388,-291,-173
77,-346,-424,131,248,-384,137,-234,-367,-376,-297,-179
59,-334,-394,137,224,-360,143,-198,-331,-364,-291,-179
47,-316,-364,137,206,-336,149,-180,-301,-340,-279,-167
35,-304,-340,137,188,-318,149,-156,-283,-316,-267,-161
30,-286,-316,125,170,-300,155,-132,-259,-292,-261,-155
25,-262,-286,113,152,-276,161,-108,-241,-280,-249,-149
1,-244,-244,119,122,-246,167,-78,-205,-274,-249,-149
-11,-220,-208,113,98,-216,173,-54,-181,-268,-243,-143
-17,-190,-172,101,74,-180,173,-43,-157,-274,-237,-137
-23,-184,-160,101,68,-174,173,-38,-133,-262,-225,-131
-29,-172,-142,101,56,-156,173,-26,-109,-250,-219,-119
-29,-154,-124,89,44,-138,179,-20,-85,-232,-213,-107
-35,-136,-100,83,32,-120,185,-14,-79,-220,-207,-95
-41,-118,-76,77,16,-96,191,-2,-61,-208,-195,-83
-35,-88,-52,59,10,-72,197,16,-49,-190,-183,-71
-41,-70,-28,53,-8,-48,197,28,-37,-184,-177,-71
-65,-82,-16,71,-26,-48,191,28,-31,-178,-189,-83
-71,-76,-6,71,-32,-42,191,40,-13,-166,-183,-71
-65,-64,0,65,-32,-30,191,52,5,-160,-171,-65
-65,-58,6,59,-38,-24,191,52,17,-154,-171,-65
-71,-64,6,65,-38,-30,191,52,29,-148,-165,-59
-71,-70,0,65,-38,-36,191,58,41,-148,-159,-53
-89,-70,18,77,-56,-24,191,52,35,-148,-165,-53
-101,-70,30,83,-68,-18,191,52,35,-148,-171,-53
-95,-58,36,71,-68,-12,191,52,41,-136,-165,-53
-101,-46,54,71,-80,5,191,52,41,-136,-165,-47
-101,-46,54,71,-80,5,191,58,53,-130,-153,-41
-107,-46,60,71,-86,5,197,64,65,-124,-153,-30
-113,-52,60,83,-86,5,197,70,71,-124,-147,-30
-113,-58,54,83,-86,0,197,70,71,-118,-147,-35
-119,-64,54,89,-86,-6,191,76,77,-118,-141,-41
-119,-52,66,83,-92,5,191,76,89,-106,-135,-41
-113,-40,72,77,-92,16,197,82,95,-100,-135,-35
-113,-34,78,71,-98,22,197,88,95,-88,-135,-35
-119,-34,84,71,-104,22,191,88,101,-82,-135,-35
-125,-40,84,83,-104,22,197,88,106,-76,-129,-35
-131,-40,90,83,-110,22,197,94,111,-76,-135,-30
-131,-34,96,77,-116,28,203,106,117,-76,-135,-30
-137,-40,96,89,-116,28,203,112,117,-82,-135,-30
-137,-40,96,89,-116,28,203,112,123,-82,-123,-30
-149,-28,120,89,-134,46,197,112,123,-76,-123,-30
-143,-22,120,77,-134,46,197,118,135,-70,-123,-30
-155,-40,114,95,-134,34,191,112,135,-76,-129,-30
-143,-34,108,83,-128,34,197,118,135,-82,-135,-30
-143,-28,114,83,-128,40,203,124,147,-76,-135,-25
-137,-28,108,83,-122,40,209,130,153,-70,-123,-19
-131,-28,102,77,-116,34,215,142,165,-64,-123,-19
-137,-28,108,83,-122,40,215,148,171,-58,-123,-25
-137,-34,102,83,-122,34,215,154,177,-58,-117,-25
-131,-22,108,71,-122,40,215,154,183,-58,-117,-30
-137,-28,108,83,-122,40,215,160,195,-52,-117,-30
-131,-10,120,65,-128,52,221,166,201,-46,-117,-25
-131,-10,120,65,-128,52,221,172,207,-40,-117,-19
-125,2,126,59,-128,64,221,178,213,-34,-117,-25
-125,2,126,59,-128,64,233,190,225,-28,-117,-19
-119,2,120,53,-122,58,239,196,231,-22,-111,-13
-113,14,126,47,-122,70,239,208,243,-22,-105,-7
-119,14,132,47,-128,70,239,220,249,-17,-105,-7
-107,24,132,41,-116,76,245,244,261,-12,-93,-1
-95,42,138,23,-116,88,245,256,279,0,-87,5
-101,30,132,35,-116,82,245,268,297,12,-87,-1
-107,36,144,35,-122,88,251,280,315,24,-87,5
-107,48,156,29,-128,100,251,292,327,30,-87,5
-113,60,174,29,-140,118,257,298,339,42,-81,5
-113,60,174,29,-140,118,269,310,357,54,-69,5
-113,60,174,29,-140,118,275,322,369,60,-69,17
-107,66,174,17,-140,118,281,334,375,66,-69,23
-95,84,180,5,-134,130,293,358,399,72,-63,29
-71,102,174,-19,-122,136,299,376,417,84,-51,35
-77,96,174,-7,-122,136,305,388,429,96,-45,41
-95,84,180,5,-134,130,311,406,447,96,-51,41
-101,90,192,5,-146,142,317,418,465,102,-45,53
-101,102,204,-1,-152,154,323,436,483,114,-45,53
-107,108,216,-1,-158,160,329,448,495,120,-45,53
-101,114,216,-7,-158,166,341,466,513,126,-40,59
-101,120,222,-7,-158,172,353,484,531,144,-40,53
-101,132,234,-13,-164,184,353,502,555,162,-40,53
-95,144,240,-24,-164,190,365,520,579,180,-35,53
-89,150,240,-29,-164,196,371,544,603,198,-23,59
-89,156,246,-29,-164,202,383,568,627,216,-5,71
-83,168,252,-41,-164,208,395,586,651,234,7,83
-107,156,264,-24,-182,208,401,598,669,246,7,89
-107,168,276,-29,-188,220,401,616,687,258,13,89
-101,174,276,-35,-188,226,413,640,711,276,19,95
-95,192,288,-47,-188,238,425,658,729,300,25,101
-83,204,288,-59,-182,244,431,676,747,312,31,107
-83,210,294,-65,-188,250,437,694,765,324,37,113
-83,204,288,-59,-182,244,449,706,777,330,37,119
-89,198,288,-53,-188,244,449,718,783,336,43,119
-101,192,294,-41,-194,244,449,730,801,342,49,125
-101,210,312,-53,-206,262,455,748,819,354,55,131
-101,216,318,-53,-206,268,455,760,831,366,67,137
-101,228,330,-59,-212,280,455,772,843,372,73,137
-95,240,336,-71,-212,286,455,790,855,384,79,137
-83,240,324,-77,-200,280,461,796,867,396,85,143
-77,234,312,-77,-194,274,461,802,873,408,91,155
-59,246,306,-95,-182,274,461,808,879,414,91,155
-41,246,288,-101,-164,268,461,826,885,420,103,155
-47,252,300,-101,-170,274,467,838,897,432,115,155
-59,252,312,-95,-182,280,467,844,897,438,121,155
-59,264,324,-101,-188,292,461,856,903,450,133,149
-65,264,330,-95,-194,298,461,862,903,450,139,149
-59,270,330,-107,-194,298,455,868,897,456,139,149
-47,276,324,-113,-182,298,449,874,897,462,145,149
-23,282,306,-131,-164,292,437,874,897,468,151,149
-11,270,282,-131,-146,274,425,868,885,474,145,143
-5,264,270,-125,-134,268,413,856,867,468,145,137
-5,252,258,-119,-128,256,407,844,855,474,145,137
1,252,252,-125,-122,250,401,832,849,468,145,137
1,246,246,-125,-122,244,389,814,825,456,145,137
7,258,252,-131,-122,256,377,796,801,438,139,137
13,252,240,-131,-110,244,371,772,777,432,145,137
7,240,234,-119,-110,238,353,748,753,420,139,137
13,222,210,-119,-98,214,347,718,723,408,133,137
13,210,198,-113,-92,202,329,682,687,390,127,137
13,210,198,-113,-92,202,311,646,651,378,121,131
25,204,180,-113,-74,190,299,604,615,354,115,125
30,204,174,-113,-68,190,287,574,579,330,103,119
30,198,168,-113,-68,184,269,526,537,294,91,107
19,180,162,-95,-68,172,251,484,495,264,73,101
7,162,156,-83,-74,160,239,442,453,240,61,83
-5,144,150,-65,-74,148,227,412,417,222,55,77
-5,138,144,-65,-74,142,221,388,387,204,49,65
-17,120,138,-47,-74,130,209,352,357,186,37,65
-23,114,138,-47,-80,124,203,328,327,168,25,65
-23,102,126,-41,-74,112,191,292,297,144,13,59
-23,90,114,-35,-68,100,185,256,273,126,7,53
-17,90,108,-35,-62,100,179,226,243,102,-5,41
-23,72,96,-24,-56,82,173,202,213,84,-17,41
-23,60,84,-19,-50,70,173,184,195,60,-23,29
-17,66,84,-24,-50,76,161,160,171,42,-35,23
-23,48,72,-13,-44,58,155,142,153,24,-40,17
-29,42,72,-7,-50,58,143,124,129,12,-40,5
-29,42,72,-7,-50,58,143,106,117,0,-45,11
-17,42,60,-13,-38,52,143,100,106,-6,-51,5
-11,48,60,-19,-32,52,131,76,83,-22,-69,-7
-35,19,54,5,-44,34,119,52,53,-40,-81,-19
-47,8,54,17,-50,28,119,34,41,-52,-87,-25
-59,-4,54,29,-56,22,113,22,23,-64,-87,-30
-71,-22,48,41,-62,10,107,4,11,-76,-93,-35
-71,-22,48,41,-62,10,107,-2,-1,-82,-99,-47
-41,-4,36,23,-38,16,113,-2,5,-76,-93,-41
-23,-4,18,11,-20,5,113,-2,5,-76,-93,-41
-29,-10,18,17,-26,5,107,-8,-1,-76,-105,-47
-35,-16,18,23,-26,0,107,-14,-7,-76,-99,-47
-35,-16,18,23,-26,0,107,-14,-7,-82,-99,-47
-29,-16,12,23,-20,0,95,-26,-19,-88,-105,-59
-17,-10,6,11,-14,0,101,-26,-31,-100,-111,-59
-23,-16,6,17,-14,-6,101,-32,-37,-106,-111,-59
-29,-28,0,29,-14,-12,101,-32,-37,-106,-117,-65
-41,-34,6,35,-26,-12,101,-32,-43,-106,-123,-71
-47,-40,6,41,-26,-18,101,-32,-43,-106,-129,-77
-47,-52,-6,47,-20,-30,95,-32,-55,-106,-135,-77
-41,-46,-6,41,-20,-24,95,-32,-55,-106,-135,-83
-29,-34,-6,29,-14,-18,101,-32,-55,-106,-135,-83
-35,-46,-11,35,-14,-30,95,-43,-61,-106,-135,-89
-35,-52,-16,41,-8,-36,95,-43,-67,-112,-129,-89
-35,-46,-11,35,-14,-30,95,-43,-67,-112,-129,-83
-29,-34,-6,29,-14,-18,95,-43,-61,-106,-123,-83
-29,-34,-6,29,-14,-18,95,-43,-61,-100,-117,-77
-35,-34,0,29,-20,-18,95,-38,-55,-100,-111,-71
-41,-34,6,35,-26,-12,101,-38,-55,-100,-111,-65
-29,-34,-6,29,-14,-18,101,-43,-55,-100,-111,-65
-17,-28,-11,23,-2,-18,101,-48,-55,-106,-117,-71
-11,-34,-22,17,4,-30,95,-54,-61,-112,-123,-83
-11,-40,-28,23,10,-36,89,-60,-55,-112,-135,-89
-5,-28,-22,17,10,-24,89,-54,-55,-106,-135,-89
-17,-28,-11,23,-2,-18,89,-54,-61,-106,-135,-95
-35,-40,-6,35,-14,-24,89,-60,-61,-112,-141,-101
-35,-34,0,29,-20,-18,95,-48,-55,-106,-135,-95
-29,-28,0,29,-14,-12,107,-43,-55,-106,-117,-83
-23,-16,6,17,-14,-6,113,-43,-55,-106,-117,-71
-17,-4,12,11,-14,5,107,-43,-55,-106,-111,-77
-29,-10,18,17,-26,5,107,-43,-55,-112,-111,-77
-23,-10,12,11,-20,0,107,-43,-49,-106,-111,-77
-23,-28,-6,23,-8,-18,107,-43,-49,-106,-111,-77
-29,-40,-11,35,-8,-24,101,-38,-43,-106,-111,-77
-23,-28,-6,23,-8,-18,101,-38,-49,-106,-117,-83
-11,-10,0,5,-8,-6,101,-38,-49,-106,-123,-89
-11,-10,0,5,-8,-6,107,-38,-49,-106,-123,-83
-17,-4,12,11,-14,5,113,-38,-43,-100,-117,-83
-17,2,18,5,-20,10,119,-38,-43,-94,-117,-83
-23,2,24,5,-26,10,119,-38,-43,-88,-117,-89
-23,2,24,5,-26,10,119,-43,-37,-88,-111,-89
-23,-10,12,11,-20,0,119,-43,-37,-88,-105,-83
-23,-16,6,17,-14,-6,113,-43,-37,-88,-105,-77
-35,-22,12,23,-26,-6,107,-43,-43,-94,-111,-71
-41,-16,24,29,-32,5,107,-43,-37,-100,-111,-77
-23,-10,12,11,-20,0,107,-43,-37,-100,-111,-77
-11,-10,0,5,-8,-6,113,-43,-37,-100,-111,-71
-11,-4,6,5,-8,0,113,-43,-37,-94,-105,-77
-11,2,12,-1,-14,5,119,-43,-37,-88,-105,-77
-35,-4,30,17,-32,10,107,-43,-43,-94,-111,-83
-47,-10,36,23,-44,10,107,-43,-49,-94,-117,-89
-41,-10,30,23,-38,10,107,-38,-49,-94,-117,-83
-29,2,30,11,-32,16,113,-38,-49,-94,-117,-77
-23,8,30,5,-26,16,107,-43,-43,-100,-117,-71
-29,-4,24,17,-26,10,113,-48,-43,-106,-117,-77
-23,-4,18,11,-20,5,113,-48,-43,-112,-123,-77
-17,-4,12,11,-14,5,113,-48,-43,-118,-111,-71
-23,-10,12,11,-20,0,119,-48,-43,-118,-111,-71
-29,-10,18,17,-26,5,119,-43,-43,-112,-105,-59
-29,-4,24,17,-26,10,119,-43,-43,-106,-105,-59
-29,-4,24,17,-26,10,113,-43,-43,-106,-111,-59
-35,2,36,11,-38,16,113,-54,-55,-106,-111,-65
-29,8,36,11,-32,22,113,-60,-55,-100,-105,-65
-23,8,30,5,-26,16,113,-60,-55,-100,-105,-53
-23,14,36,-1,-32,22,113,-60,-49,-100,-99,-53
-23,14,36,-1,-32,22,107,-60,-49,-100,-99,-53
-35,8,42,11,-38,22,107,-60,-49,-106,-105,-53
-29,8,36,11,-32,22,113,-60,-49,-106,-105,-47
-35,14,48,5,-44,28,113,-60,-49,-106,-111,-47
-29,8,36,11,-32,22,119,-60,-49,-106,-105,-47
-29,2,30,11,-32,16,125,-60,-55,-106,-105,-47
-29,8,36,11,-32,22,125,-66,-61,-106,-111,-47
-17,14,30,-1,-26,22,125,-66,-67,-118,-111,-47
-5,19,24,-7,-14,22,131,-66,-67,-118,-105,-35
1,30,30,-19,-14,28,131,-66,-67,-118,-105,-35
7,42,36,-24,-14,40,137,-60,-61,-118,-99,-30
1,36,36,-19,-14,34,131,-60,-67,-124,-99,-30
-23,24,48,-1,-32,34,107,-72,-73,-130,-111,-47
-41,8,48,17,-44,28,95,-84,-85,-136,-123,-59
-47,-4,42,23,-44,16,95,-78,-85,-130,-123,-59
-41,-4,36,23,-38,16,107,-84,-91,-124,-117,-59
-35,2,36,11,-38,16,107,-90,-79,-118,-117,-59
-35,2,36,11,-38,16,113,-90,-85,-124,-123,-65
-23,8,30,5,-26,16,107,-90,-79,-124,-117,-59
-23,19,42,-1,-32,28,113,-90,-79,-124,-117,-53
-23,19,42,-1,-32,28,107,-90,-79,-124,-117,-53
-35,19,54,5,-44,34,101,-102,-85,-130,-123,-59
-35,19,54,5,-44,34,101,-102,-91,-130,-117,-65
-11,30,42,-13,-26,34,107,-90,-79,-118,-111,-59
19,66,48,-41,-14,58,119,-84,-73,-112,-99,-41
7,48,42,-24,-14,46,113,-84,-79,-112,-99,-35
-11,24,36,-7,-20,28,107,-96,-91,-124,-111,-47
-23,19,42,-1,-32,28,95,-96,-97,-130,-111,-53
-29,14,42,5,-38,28,95,-102,-103,-136,-117,-53
-29,2,30,11,-32,16,101,-108,-103,-136,-123,-59
-41,-10,30,23,-38,10,101,-114,-109,-136,-129,-59
-47,-16,30,29,-38,5,101,-120,-109,-148,-135,-59
-41,-10,30,23,-38,10,101,-120,-109,-148,-129,-59
-47,-16,30,29,-38,5,95,-120,-103,-160,-129,-59
-41,-16,24,29,-32,5,83,-120,-103,-160,-129,-59
-41,-22,18,29,-32,0,77,-120,-103,-154,-129,-65
-41,-28,12,35,-26,-6,77,-114,-97,-148,-129,-65
-47,-28,18,35,-32,-6,77,-114,-97,-142,-129,-65
-47,-28,18,35,-32,-6,77,-114,-103,-136,-129,-65
-53,-28,24,41,-38,0,83,-120,-109,-136,-135,-65
-47,-16,30,29,-38,5,83,-114,-109,-136,-129,-59
-35,-4,30,17,-32,10,89,-114,-109,-130,-123,-53
-41,-10,30,23,-38,10,83,-114,-109,-136,-123,-53
-65,-34,30,47,-50,0,77,-120,-115,-148,-129,-71
-71,-34,36,47,-56,0,71,-126,-115,-148,-129,-77
-41,-10,30,23,-38,10,83,-114,-103,-136,-117,-65
-47,-34,12,35,-32,-12,83,-114,-109,-136,-123,-71
-65,-40,24,53,-44,-6,77,-126,-115,-148,-135,-77
-71,-40,30,53,-50,-6,77,-126,-121,-154,-135,-83
-65,-40,24,53,-44,-6,77,-132,-121,-160,-135,-77
-65,-28,36,47,-50,5,83,-132,-121,-160,-135,-77
-59,-28,30,41,-44,0,83,-138,-121,-160,-135,-77
-59,-22,36,35,-50,5,83,-138,-121,-154,-135,-65
-71,-28,42,47,-56,5,77,-138,-121,-154,-135,-71
-77,-22,54,47,-68,16,77,-138,-121,-160,-135,-71
-65,-16,48,41,-56,16,71,-138,-121,-160,-129,-71
-65,-16,48,41,-56,16,66,-138,-121,-160,-129,-77
-47,-10,36,23,-44,10,71,-144,-121,-160,-123,-71
-29,-4,24,17,-26,10,77,-144,-121,-154,-117,-65
-41,-16,24,29,-32,5,77,-150,-127,-160,-123,-71
-35,-16,18,23,-26,0,77,-150,-121,-154,-123,-77
-29,-4,24,17,-26,10,77,-144,-115,-148,-123,-71
-35,-4,30,17,-32,10,77,-138,-115,-148,-123,-71
-47,-4,42,23,-44,16,77,-138,-115,-148,-129,-71
-47,-4,42,23,-44,16,71,-138,-115,-148,-129,-65
-47,-4,42,23,-44,16,71,-138,-121,-142,-123,-71
-47,-10,36,23,-44,10,77,-138,-121,-142,-123,-65
-41,-10,30,23,-38,10,77,-144,-121,-142,-123,-71
-41,-22,18,29,-32,0,71,-150,-121,-154,-129,-77
-41,-22,18,29,-32,0,77,-144,-121,-154,-129,-77
-35,-16,18,23,-26,0,83,-138,-115,-154,-123,-65
-41,-22,18,29,-32,0,83,-138,-121,-154,-129,-71
-35,-16,18,23,-26,0,89,-132,-115,-148,-123,-65
-29,-4,24,17,-26,10,83,-126,-115,-142,-117,-65
-35,-10,24,17,-32,5,77,-132,-115,-142,-117,-71
-47,-22,24,29,-38,0,71,-138,-121,-142,-123,-77
-41,-22,18,29,-32,0,77,-144,-121,-136,-123,-65
-35,-22,12,23,-26,-6,77,-150,-121,-136,-123,-65
-35,-16,18,23,-26,0,71,-150,-121,-136,-117,-65
-23,-4,18,11,-20,5,71,-144,-115,-136,-117,-65
-17,-4,12,11,-14,5,71,-138,-115,-142,-117,-65
-23,-4,18,11,-20,5,66,-138,-121,-148,-117,-65
-41,-16,24,29,-32,5,61,-138,-115,-154,-123,-77
-47,-16,30,29,-38,5,61,-132,-109,-148,-117,-71
-29,2,30,11,-32,16,66,-126,-103,-136,-111,-71
-23,8,30,5,-26,16,71,-126,-103,-130,-105,-65
-17,8,24,5,-20,16,77,-126,-103,-136,-105,-65
-5,8,12,-1,-8,10,77,-132,-103,-136,-111,-65
-17,-4,12,11,-14,5,77,-138,-103,-136,-105,-65
-23,-4,18,11,-20,5,71,-144,-109,-148,-117,-65
-17,14,30,-1,-26,22,66,-138,-109,-148,-111,-65
-29,8,36,11,-32,22,61,-138,-115,-154,-117,-65
-29,8,36,11,-32,22,49,-138,-121,-160,-117,-71
-29,8,36,11,-32,22,43,-138,-121,-160,-123,-77
-23,14,36,-1,-32,22,43,-138,-127,-154,-123,-83
-23,14,36,-1,-32,22,43,-138,-127,-148,-123,-83
-29,8,36,11,-32,22,43,-138,-121,-148,-123,-83
-29,-4,24,17,-26,10,43,-144,-127,-148,-123,-83
-35,-4,30,17,-32,10,43,-150,-127,-148,-123,-83
-35,2,36,11,-38,16,43,-150,-127,-160,-129,-83
-29,2,30,11,-32,16,43,-150,-127,-166,-123,-77
-35,-4,30,17,-32,10,37,-156,-127,-172,-129,-83
-35,-4,30,17,-32,10,37,-150,-121,-172,-129,-83
-35,-16,18,23,-26,0,37,-150,-121,-166,-129,-77
-35,-16,18,23,-26,0,25,-150,-133,-166,-129,-89
-47,-28,18,35,-32,-6,19,-150,-139,-160,-129,-89
-53,-34,18,41,-38,-6,19,-150,-145,-154,-135,-89
-41,-28,12,35,-26,-6,19,-150,-139,-154,-123,-89
-35,-22,12,23,-26,-6,25,-150,-139,-154,-117,-89
-47,-22,24,29,-38,0,25,-156,-139,-160,-117,-95
-53,-22,30,35,-44,5,19,-156,-139,-166,-123,-95
-59,-16,42,35,-50,10,25,-156,-133,-160,-117,-95
-53,-16,36,35,-44,10,25,-156,-133,-160,-117,-101
-41,-28,12,35,-26,-6,25,-150,-127,-154,-111,-101
-47,-28,18,35,-32,-6,19,-150,-133,-154,-111,-101
-59,-34,24,41,-44,-6,13,-156,-133,-160,-117,-101
-65,-28,36,47,-50,5,13,-150,-133,-160,-111,-101
-59,-28,30,41,-44,0,13,-150,-133,-160,-105,-101
-65,-34,30,47,-50,0,7,-156,-139,-172,-105,-101
-59,-28,30,41,-44,0,13,-156,-139,-172,-105,-101
-59,-22,36,35,-50,5,13,-156,-139,-166,-105,-101
-59,-16,42,35,-50,10,13,-156,-133,-166,-105,-101
-65,-22,42,41,-56,10,13,-162,-139,-166,-111,-101
-59,-22,36,35,-50,5,13,-162,-133,-160,-117,-95
-53,-16,36,35,-44,10,13,-156,-133,-154,-117,-95
-59,-28,30,41,-44,0,19,-156,-127,-148,-111,-89
-53,-40,12,47,-32,-12,19,-156,-127,-148,-105,-83
-53,-46,6,47,-32,-18,13,-162,-127,-148,-111,-89
-53,-34,18,41,-38,-6,7,-168,-127,-148,-111,-95
-53,-22,30,35,-44,5,7,-168,-127,-148,-111,-101
-77,-40,36,59,-56,0,-5,-168,-133,-160,-117,-107
-71,-34,36,47,-56,0,-11,-168,-133,-166,-117,-107
-65,-28,36,47,-50,5,-5,-168,-133,-172,-117,-101
-65,-28,36,47,-50,5,-5,-162,-133,-172,-117,-95
-59,-28,30,41,-44,0,-5,-162,-133,-166,-111,-95
-59,-16,42,35,-50,10,-5,-162,-139,-166,-111,-101
-47,-10,36,23,-44,10,1,-162,-139,-160,-111,-101
-41,-4,36,23,-38,16,7,-162,-133,-154,-111,-95
-35,-4,30,17,-32,10,7,-162,-127,-154,-105,-95
-47,-10,36,23,-44,10,7,-162,-121,-154,-105,-95
-41,-10,30,23,-38,10,7,-156,-121,-154,-105,-95
-35,-16,18,23,-26,0,7,-156,-121,-148,-99,-83
-29,-4,24,17,-26,10,7,-156,-115,-148,-99,-83
-17,14,30,-1,-26,22,7,-150,-115,-148,-99,-83
-17,19,36,-1,-26,28,13,-150,-115,-142,-93,-83
-23,14,36,-1,-32,22,19,-144,-109,-130,-87,-77
-29,8,36,11,-32,22,25,-132,-103,-124,-87,-71
-35,8,42,11,-38,22,31,-126,-97,-118,-81,-65
-35,14,48,5,-44,28,31,-114,-91,-112,-75,-65
-35,19,54,5,-44,34,37,-114,-85,-112,-69,-65
-29,30,60,-1,-44,46,37,-108,-85,-112,-63,-59
-29,48,78,-7,-50,64,37,-102,-79,-100,-57,-59
-41,48,90,-1,-62,70,43,-102,-79,-100,-57,-65
-29,60,90,-13,-56,76,49,-96,-73,-100,-57,-65
-29,66,96,-19,-62,82,49,-102,-73,-100,-63,-65
-23,66,90,-24,-56,76,49,-108,-67,-100,-63,-59
-17,66,84,-24,-50,76,49,-108,-67,-100,-63,-59
-17,60,78,-19,-44,70,43,-114,-67,-100,-69,-65
-23,48,72,-13,-44,58,43,-120,-73,-112,-69,-71
-17,48,66,-13,-38,58,37,-114,-79,-112,-63,-71
-17,54,72,-19,-44,64,31,-114,-79,-112,-57,-65
-17,54,72,-19,-44,64,31,-108,-79,-106,-57,-59
-11,60,72,-24,-38,64,31,-108,-73,-100,-57,-53
-11,54,66,-24,-38,58,13,-108,-73,-100,-57,-53
1,60,60,-29,-26,58,-5,-126,-79,-106,-69,-59
7,60,54,-29,-20,58,-23,-132,-85,-106,-69,-65
13,54,42,-35,-14,46,-35,-138,-91,-112,-75,-71
25,48,24,-35,4,34,-35,-138,-85,-112,-75,-71
25,36,12,-29,10,22,-35,-132,-85,-112,-75,-77
25,24,0,-24,16,10,-35,-132,-91,-112,-81,-83
30,30,0,-29,16,16,-35,-138,-97,-118,-81,-83
35,36,0,-29,21,22,-29,-138,-97,-118,-75,-83
30,42,12,-35,10,28,-29,-144,-103,-118,-75,-83
30,36,6,-29,16,22,-29,-150,-103,-118,-81,-89
25,24,0,-24,16,10,-35,-156,-109,-124,-93,-101
7,14,6,-13,-2,10,-41,-168,-121,-130,-99,-107
1,8,6,-7,-2,5,-41,-180,-133,-136,-105,-113
13,19,6,-19,4,10,-41,-180,-133,-142,-99,-107
19,14,-6,-19,10,5,-41,-180,-133,-142,-99,-107
1,-4,-6,-1,4,-6,-53,-192,-145,-154,-105,-113
-5,-4,0,5,-2,0,-65,-198,-157,-166,-117,-119
-17,-4,12,11,-14,5,-71,-198,-163,-172,-117,-119
-17,-10,6,11,-14,0,-71,-192,-157,-178,-117,-125
-17,-16,0,17,-8,-6,-65,-192,-157,-178,-123,-125
-17,-16,0,17,-8,-6,-65,-192,-157,-166,-117,-125
-11,-16,-6,11,-2,-12,-59,-186,-151,-154,-111,-125
-11,-16,-6,11,-2,-12,-65,-186,-145,-148,-105,-119
-11,-16,-6,11,-2,-12,-65,-186,-145,-148,-105,-119
-11,-16,-6,11,-2,-12,-65,-186,-139,-142,-99,-125
-17,-16,0,17,-8,-6,-59,-180,-133,-136,-99,-119
-11,-22,-11,11,-2,-18,-65,-168,-133,-130,-93,-119
-5,-22,-16,11,4,-18,-77,-168,-133,-130,-93,-113
-11,-46,-34,23,10,-42,-101,-168,-139,-130,-93,-113
-5,-40,-34,23,16,-36,-131,-168,-145,-130,-99,-119
13,-34,-46,5,26,-42,-167,-174,-157,-130,-93,-119
25,-58,-82,11,50,-72,-209,-168,-157,-124,-87,-107
35,-64,-100,17,68,-78,-251,-156,-151,-118,-81,-107
53,-40,-94,-7,74,-66,-287,-150,-145,-106,-69,-107
65,-22,-88,-24,74,-54,-323,-132,-133,-88,-57,-101
83,-22,-106,-29,92,-60,-371,-108,-127,-70,-45,-95
107,-22,-130,-41,116,-72,-425,-90,-127,-52,-35,-83
137,-16,-154,-59,146,-84,-491,-72,-127,-34,-23,-65
161,-16,-178,-71,170,-96,-569,-60,-133,-22,-11,-59
185,-16,-202,-83,194,-108,-653,-43,-145,-17,-5,-53
221,-10,-232,-107,224,-120,-743,-26,-151,0,7,-47
263,-4,-268,-125,266,-132,-827,-2,-157,12,19,-35
317,2,-316,-161,314,-156,-899,28,-163,30,37,-30
365,2,-364,-185,362,-180,-971,46,-163,42,49,-19
395,8,-388,-197,392,-186,-1055,58,-181,48,61,-13
431,19,-412,-221,422,-192,-1133,88,-187,54,73,-7
467,48,-418,-251,446,-180,-1199,106,-193,60,91,17
497,84,-412,-287,458,-162,-1265,130,-205,72,103,41
485,84,-400,-281,446,-156,-1307,148,-211,78,115,59
485,108,-376,-293,434,-132,-1337,166,-205,96,127,71
491,132,-358,-305,428,-108,-1361,166,-211,114,151,83
509,156,-352,-329,434,-96,-1379,178,-205,132,169,101
521,168,-352,-341,440,-90,-1391,196,-199,150,193,107
551,180,-370,-359,464,-90,-1409,226,-181,174,205,119
575,174,-400,-371,488,-108,-1421,250,-169,186,217,119
599,162,-436,-377,518,-132,-1433,244,-163,198,217,119
629,150,-478,-389,554,-162,-1445,184,-169,210,229,125
659,144,-514,-395,590,-180,-1445,100,-175,234,241,131
677,126,-550,-401,614,-210,-1439,28,-175,270,253,125
701,120,-580,-407,644,-228,-1421,-38,-157,336,277,131
731,120,-610,-419,674,-240,-1397,-102,-133,420,319,149
779,120,-658,-443,722,-264,-1367,-138,-91,522,373,167
839,126,-712,-479,776,-288,-1343,-180,-37,642,427,191
905,126,-778,-515,842,-324,-1307,-216,23,774,499,215
947,96,-850,-515,902,-372,-1247,-252,71,912,571,239
989,84,-904,-533,950,-408,-1175,-294,106,1044,649,269
1025,72,-952,-545,992,-438,-1097,-336,117,1164,715,299
1037,42,-994,-539,1016,-474,-1031,-360,117,1242,757,317
1037,14,-1024,-527,1028,-504,-971,-378,95,1290,787,323
1031,-16,-1048,-503,1040,-528,-917,-444,29,1290,799,323
1007,-46,-1054,-479,1028,-546,-869,-540,-55,1266,805,329
983,-64,-1048,-455,1016,-552,-821,-654,-181,1182,781,317
959,-100,-1060,-425,1010,-576,-767,-798,-349,1026,727,287
923,-148,-1072,-383,998,-606,-707,-930,-529,822,655,251
881,-184,-1066,-347,974,-624,-647,-1056,-697,600,571,215
797,-238,-1036,-281,914,-636,-581,-1182,-841,360,469,161
719,-286,-1006,-215,860,-642,-503,-1290,-967,120,349,101
629,-334,-964,-149,794,-648,-419,-1332,-1039,-82,241,35
539,-364,-904,-83,722,-630,-341,-1302,-1051,-220,145,-19
461,-382,-844,-41,650,-612,-269,-1230,-1021,-310,61,-71
407,-388,-796,-7,602,-588,-215,-1146,-979,-370,-11,-119
377,-388,-766,5,572,-576,-173,-1044,-919,-406,-75,-161
341,-400,-742,29,542,-570,-137,-948,-865,-430,-141,-209
293,-412,-706,59,500,-558,-101,-858,-811,-448,-189,-245
257,-400,-658,71,458,-528,-59,-762,-751,-448,-219,-263
215,-376,-592,83,404,-480,-17,-660,-679,-442,-231,-275
179,-352,-532,89,356,-438,13,-558,-607,-436,-237,-287
143,-334,-478,95,308,-402,37,-468,-529,-424,-249,-305
119,-316,-436,101,278,-372,61,-384,-457,-412,-261,-317
95,-304,-400,107,248,-348,66,-318,-391,-388,-267,-323
77,-286,-364,101,218,-324,77,-264,-343,-358,-261,-329
77,-256,-334,89,206,-294,89,-228,-307,-322,-249,-317
83,-214,-298,65,188,-252,101,-198,-277,-286,-231,-299
71,-190,-262,59,164,-222,113,-180,-259,-268,-219,-293
47,-172,-220,65,134,-192,119,-156,-247,-262,-219,-287
30,-154,-184,59,104,-168,125,-138,-229,-262,-219,-287
25,-142,-166,53,92,-156,131,-114,-199,-262,-219,-275
7,-142,-148,65,74,-144,137,-96,-169,-262,-219,-275
-11,-142,-130,71,56,-138,137,-78,-139,-262,-219,-269
-23,-136,-112,77,44,-126,143,-60,-115,-250,-207,-263
-29,-124,-94,77,32,-108,143,-48,-97,-232,-201,-257
-41,-100,-58,71,10,-78,143,-43,-85,-220,-189,-251
-41,-76,-34,59,-2,-54,143,-38,-73,-196,-171,-239
-47,-52,-6,47,-20,-30,149,-32,-61,-178,-159,-227
-47,-28,18,35,-32,-6,155,-26,-55,-166,-147,-227
-71,-34,36,47,-56,0,155,-20,-43,-160,-147,-221
-83,-34,48,53,-68,5,155,-14,-31,-154,-141,-209
-77,-34,42,53,-62,5,161,-8,-19,-154,-141,-203
-83,-52,30,65,-56,-12,155,-2,-13,-154,-147,-203
-101,-64,36,83,-68,-12,161,4,-1,-154,-141,-203
-107,-64,42,83,-74,-12,161,10,17,-148,-135,-203
-119,-58,60,83,-92,0,155,10,23,-142,-135,-203
-119,-40,78,77,-98,16,155,10,29,-136,-135,-203
-125,-34,90,77,-110,28,155,16,29,-130,-135,-203
-125,-34,90,77,-110,28,155,10,29,-124,-135,-203
-125,-28,96,77,-110,34,161,22,35,-112,-129,-209
-119,-16,102,65,-110,40,167,28,41,-106,-117,-197
-125,-16,108,71,-116,46,161,40,47,-106,-111,-197
-137,-22,114,77,-128,46,155,34,53,-112,-117,-197
-149,-28,120,89,-134,46,155,40,59,-112,-117,-197
-143,-22,120,77,-134,46,161,52,71,-106,-111,-197
-143,-16,126,77,-134,52,167,52,77,-100,-111,-203
-143,-10,132,71,-140,58,173,52,77,-94,-111,-203
-143,-10,132,71,-140,58,173,52,83,-88,-111,-209
-149,-10,138,77,-146,64,173,52,83,-88,-111,-215
-155,-16,138,83,-146,58,167,52,83,-88,-117,-221
-143,-4,138,71,-140,64,173,58,95,-82,-105,-215
-137,8,144,65,-140,76,179,70,101,-76,-105,-215
-137,8,144,65,-140,76,185,76,106,-70,-105,-221
-143,2,144,65,-146,70,191,82,106,-64,-105,-221
-137,2,138,65,-140,70,197,88,111,-58,-99,-215
-131,8,138,59,-134,70,197,88,117,-58,-105,-215
-125,14,138,53,-134,76,197,94,117,-58,-105,-221
-125,14,138,53,-134,76,197,100,123,-52,-105,-227
-125,14,138,53,-134,76,203,112,135,-46,-99,-221
-125,19,144,53,-134,82,209,124,141,-46,-105,-227
-131,36,168,47,-146,100,209,124,153,-46,-105,-233
-131,48,180,41,-152,112,209,130,153,-52,-105,-239
-131,42,174,41,-152,106,209,136,159,-46,-105,-245
-131,30,162,47,-146,94,221,148,171,-40,-99,-245
-125,36,162,47,-140,100,227,154,177,-34,-99,-239
-101,48,150,29,-122,100,233,166,189,-22,-87,-233
-95,54,150,17,-122,100,233,172,201,-17,-93,-239
-89,72,162,11,-122,118,239,190,213,-12,-81,-233
-83,78,162,-1,-122,118,245,208,225,0,-75,-233
-107,66,174,17,-140,118,245,214,225,0,-81,-245
-113,72,186,23,-146,130,251,220,243,6,-75,-245
-107,78,186,11,-146,130,251,238,255,12,-75,-239
-113,78,192,17,-152,136,251,244,261,18,-69,-233
-113,84,198,17,-152,142,257,256,285,30,-57,-221
-101,90,192,5,-146,142,263,268,291,36,-51,-215
-89,108,198,-7,-140,154,263,280,297,42,-45,-215
-77,126,204,-24,-140,166,269,298,309,48,-40,-209
-89,120,210,-13,-146,166,281,316,321,54,-35,-209
-119,108,228,5,-170,166,275,322,327,54,-35,-215
-131,102,234,11,-182,166,281,340,345,60,-35,-221
-125,108,234,11,-176,172,287,352,363,72,-35,-221
-113,126,240,-7,-176,184,299,376,387,90,-29,-215
-101,132,234,-13,-164,184,305,394,405,96,-29,-221
-95,132,228,-19,-158,178,311,412,423,108,-29,-221
-77,138,216,-29,-146,178,317,430,441,120,-23,-215
-77,150,228,-35,-152,190,323,448,459,132,-17,-215
-89,150,240,-29,-164,196,329,466,471,144,-11,-215
-107,150,258,-24,-182,202,329,478,483,156,-5,-215
-119,156,276,-19,-194,214,335,496,495,162,1,-215
-125,156,282,-13,-200,220,341,514,519,168,7,-215
-131,156,288,-13,-206,220,347,538,543,180,13,-215
-125,156,282,-13,-200,220,353,562,567,192,19,-209
-125,162,288,-19,-206,226,365,580,591,210,19,-209
-125,168,294,-19,-206,232,371,604,609,228,19,-209
-119,174,294,-29,-206,232,377,622,621,240,19,-209
-113,174,288,-29,-200,232,377,646,639,258,25,-203
-107,180,288,-35,-194,232,389,664,657,264,31,-203
-119,186,306,-35,-212,244,395,688,675,276,37,-203
-113,192,306,-35,-206,250,407,712,699,288,49,-203
-113,192,306,-35,-206,250,419,736,717,300,55,-203
-113,198,312,-41,-212,256,425,748,729,312,61,-203
-113,198,312,-41,-212,256,425,766,747,324,67,-197
-107,210,318,-53,-212,262,419,784,765,336,79,-197
-101,216,318,-53,-206,268,419,802,777,348,85,-191
-95,222,318,-65,-206,268,419,820,789,360,85,-191
-95,222,318,-65,-206,268,419,832,801,372,91,-191
-89,228,318,-65,-200,274,419,844,813,384,103,-185
-83,240,324,-77,-200,280,413,850,819,396,109,-191
-89,240,330,-71,-206,286,413,862,831,402,115,-185
-89,246,336,-77,-212,292,419,880,837,414,121,-179
-77,252,330,-83,-200,292,419,886,843,420,127,-179
-71,258,330,-95,-200,292,413,898,849,432,133,-173
-65,258,324,-95,-194,292,413,910,861,444,139,-173
-59,258,318,-101,-188,286,407,916,861,456,145,-173
-53,258,312,-101,-182,286,395,916,855,462,145,-179
-41,258,300,-107,-170,280,389,916,855,468,151,-167
-23,270,294,-125,-158,280,389,922,855,474,157,-161
-17,276,294,-125,-152,286,383,922,849,468,157,-161
-17,276,294,-125,-152,286,371,922,849,474,163,-155
-5,276,282,-131,-140,280,365,922,843,474,169,-155
7,300,294,-149,-140,298,353,904,825,468,169,-161
13,300,288,-155,-134,292,341,886,813,468,169,-155
13,294,282,-155,-134,286,335,868,801,474,175,-155
7,270,264,-137,-128,268,317,850,783,462,175,-161
1,252,252,-125,-122,250,299,826,753,450,175,-161
1,252,252,-125,-122,250,281,796,723,432,163,-167
1,246,246,-125,-122,244,263,760,687,420,157,-179
1,246,246,-125,-122,244,251,730,657,402,145,-179
19,246,228,-131,-104,238,239,694,627,384,139,-179
25,240,216,-131,-92,226,233,658,597,372,133,-179
30,234,204,-131,-86,220,221,616,561,354,133,-179
19,210,192,-113,-86,202,203,568,525,330,127,-191
7,186,180,-95,-86,184,179,520,489,300,121,-197
-5,162,168,-77,-86,166,167,478,453,276,115,-203
-17,150,168,-65,-92,160,155,442,417,252,103,-209
-41,126,168,-41,-104,148,143,406,375,228,91,-215
-47,114,162,-35,-104,136,137,376,345,216,79,-221
-53,96,150,-19,-98,124,131,346,321,192,73,-233
-53,96,150,-19,-98,124,119,310,285,174,61,-239
-59,96,156,-19,-104,124,107,268,255,144,43,-251
-47,90,138,-24,-92,112,95,226,231,126,37,-263
-47,84,132,-19,-86,106,89,190,207,114,25,-263
-53,66,120,-7,-86,94,71,160,183,90,13,-275
-47,54,102,-7,-74,76,66,130,159,72,1,-287
-53,54,108,-1,-80,82,61,112,141,60,-5,-293
-53,54,108,-1,-80,82,49,94,117,42,-11,-305
-53,54,108,-1,-80,82,55,82,106,36,-17,-311
-53,42,96,5,-74,70,55,70,89,24,-23,-317
-53,24,78,17,-62,52,55,58,77,12,-29,-317
-65,14,78,23,-74,46,55,40,53,0,-35,-323
-71,8,78,29,-74,40,49,22,41,-12,-40,-323
-65,2,66,29,-68,34,43,-2,23,-17,-45,-323
-59,8,66,23,-62,34,37,-14,11,-28,-45,-311
-53,8,60,23,-56,34,43,-14,11,-28,-45,-305
-47,14,60,11,-56,34,37,-14,5,-28,-45,-305
-47,19,66,11,-56,40,37,-20,5,-34,-45,-299
-59,8,66,23,-62,34,31,-26,-7,-40,-51,-299
-65,-4,60,35,-62,28,31,-26,-13,-46,-57,-293
-59,-10,48,29,-56,16,31,-32,-19,-52,-63,-293
-59,-16,42,35,-50,10,25,-26,-25,-58,-69,-299
-53,-16,36,35,-44,10,31,-32,-31,-58,-69,-299
-41,-10,30,23,-38,10,25,-32,-31,-58,-63,-299
-41,-10,30,23,-38,10,25,-32,-37,-58,-63,-311
-35,2,36,11,-38,16,31,-32,-37,-64,-63,-305
-41,8,48,17,-44,28,25,-32,-37,-70,-69,-311
-59,-16,42,35,-50,10,25,-38,-49,-82,-69,-311
-59,-16,42,35,-50,10,19,-38,-55,-82,-75,-311
-53,-16,36,35,-44,10,19,-43,-55,-88,-75,-311
-53,-22,30,35,-44,5,19,-48,-61,-88,-81,-317
-59,-28,30,41,-44,0,19,-48,-67,-88,-87,-311
-53,-22,30,35,-44,5,19,-48,-61,-82,-75,-305
-59,-28,30,41,-44,0,19,-43,-61,-76,-75,-305
-59,-28,30,41,-44,0,25,-48,-49,-70,-69,-305
-53,-28,24,41,-38,0,31,-48,-49,-70,-69,-305
-53,-22,30,35,-44,5,31,-48,-55,-70,-81,-305
-47,-16,30,29,-38,5,31,-48,-49,-70,-75,-299
-47,-4,42,23,-44,16,37,-48,-49,-64,-69,-299
-53,-10,42,29,-50,16,37,-43,-49,-64,-63,-293
-53,-10,42,29,-50,16,37,-43,-49,-64,-63,-293
-47,-4,42,23,-44,16,43,-43,-49,-70,-63,-293
-47,-10,36,23,-44,10,43,-43,-49,-70,-57,-293
-53,-28,24,41,-38,0,37,-48,-49,-70,-63,-299
-53,-34,18,41,-38,-6,43,-43,-43,-64,-63,-293
-47,-34,12,35,-32,-12,43,-43,-37,-64,-63,-287
-53,-28,24,41,-38,0,49,-43,-37,-64,-63,-287
-53,-22,30,35,-44,5,49,-43,-37,-58,-57,-287
-65,-22,42,41,-56,10,49,-43,-37,-58,-57,-281
-77,-28,48,53,-62,10,43,-48,-43,-58,-57,-287
-71,-34,36,47,-56,0,43,-43,-43,-52,-51,-281
-59,-40,18,47,-38,-12,43,-38,-37,-52,-51,-287
-59,-40,18,47,-38,-12,43,-38,-43,-58,-57,-293
-59,-40,18,47,-38,-12,31,-38,-43,-70,-63,-293
-53,-28,24,41,-38,0,31,-43,-37,-76,-69,-287
-59,-22,36,35,-50,5,37,-43,-37,-76,-69,-281
-59,-22,36,35,-50,5,37,-38,-37,-76,-69,-281
-71,-28,42,47,-56,5,37,-38,-31,-70,-75,-275
-77,-22,54,47,-68,16,37,-43,-37,-70,-75,-275
-71,-10,60,35,-68,22,37,-43,-37,-70,-69,-269
-71,-4,66,35,-68,28,37,-43,-37,-64,-63,-269
-71,-4,66,35,-68,28,37,-43,-37,-58,-63,-269
-71,-10,60,35,-68,22,37,-43,-37,-64,-63,-269
-71,-16,54,41,-62,16,31,-43,-43,-64,-63,-263
-77,-22,54,47,-68,16,37,-43,-37,-64,-63,-257
-65,-22,42,41,-56,10,43,-43,-31,-58,-57,-251
-53,-10,42,29,-50,16,49,-38,-31,-58,-57,-245
-53,-10,42,29,-50,16,49,-43,-31,-58,-57,-245
-53,-10,42,29,-50,16,49,-48,-31,-58,-63,-245
-65,-4,60,35,-62,28,55,-48,-25,-58,-63,-239
-71,-4,66,35,-68,28,55,-43,-25,-52,-63,-233
-71,-10,60,35,-68,22,49,-43,-25,-58,-63,-227
-71,-16,54,41,-62,16,49,-43,-31,-52,-57,-221
-65,-10,54,35,-62,22,43,-43,-31,-52,-51,-215
-65,-10,54,35,-62,22,43,-43,-31,-58,-51,-215
-65,-4,60,35,-62,28,49,-43,-31,-58,-51,-221
-65,2,66,29,-68,34,55,-43,-31,-58,-57,-221
-65,14,78,23,-74,46,55,-43,-25,-52,-51,-215
-65,14,78,23,-74,46,55,-43,-19,-52,-51,-209
-71,8,78,29,-74,40,55,-43,-19,-52,-57,-215
-71,8,78,29,-74,40,61,-43,-19,-58,-63,-215
-65,8,72,29,-68,40,61,-43,-19,-58,-63,-215
-59,2,60,23,-62,28,61,-43,-25,-58,-69,-215
-53,14,66,17,-62,40,66,-38,-19,-46,-57,-209
-53,19,72,17,-62,46,66,-38,-25,-46,-57,-209
-53,19,72,17,-62,46,66,-43,-25,-46,-57,-203
-59,14,72,17,-68,40,71,-43,-25,-46,-51,-209
-47,19,66,11,-56,40,66,-43,-25,-52,-51,-209
-47,24,72,11,-56,46,71,-48,-31,-58,-57,-209
-47,24,72,11,-56,46,77,-48,-31,-58,-57,-209
-53,24,78,17,-62,52,77,-54,-31,-64,-57,-209
-53,24,78,17,-62,52,77,-54,-37,-70,-63,-209
-47,30,78,5,-62,52,83,-54,-37,-64,-57,-203
-41,24,66,11,-50,46,77,-54,-37,-64,-63,-197
-53,14,66,17,-62,40,71,-60,-43,-70,-69,-203
-77,2,78,35,-80,40,71,-66,-49,-82,-81,-227
-71,8,78,29,-74,40,71,-72,-55,-76,-81,-233
-65,8,72,29,-68,40,71,-72,-55,-76,-69,-233
-65,14,78,23,-74,46,66,-78,-55,-76,-69,-227
-59,19,78,17,-68,46,66,-78,-55,-76,-63,-227
-59,19,78,17,-68,46,66,-78,-55,-76,-63,-221
-59,19,78,17,-68,46,66,-72,-55,-76,-63,-215
-65,8,72,29,-68,40,66,-72,-55,-76,-69,-221
-71,2,72,29,-74,34,66,-72,-55,-82,-75,-221
-77,2,78,35,-80,40,71,-72,-61,-88,-75,-221
-71,-4,66,35,-68,28,66,-84,-67,-94,-81,-221
-77,-16,60,47,-68,22,61,-96,-79,-100,-87,-227
-83,-10,72,41,-80,28,66,-108,-85,-100,-81,-227
-71,8,78,29,-74,40,66,-102,-85,-94,-75,-227
-65,8,72,29,-68,40,66,-102,-85,-100,-75,-227
-71,-4,66,35,-68,28,66,-102,-85,-100,-81,-233
-65,-4,60,35,-62,28,71,-102,-85,-100,-87,-233
-59,-4,54,29,-56,22,71,-102,-85,-100,-87,-227
-65,-10,54,35,-62,22,71,-102,-85,-100,-93,-233
-77,-16,60,47,-68,22,71,-108,-85,-100,-93,-245
-83,-22,60,47,-74,16,77,-108,-85,-94,-93,-245
-71,-10,60,35,-68,22,83,-108,-79,-88,-93,-239
-65,2,66,29,-68,34,89,-108,-85,-88,-87,-233
-53,8,60,23,-56,34,89,-108,-85,-88,-87,-233
-53,8,60,23,-56,34,83,-108,-85,-88,-87,-233
-71,-10,60,35,-68,22,71,-114,-97,-100,-93,-239
-83,-28,54,53,-68,10,66,-114,-103,-112,-99,-245
-83,-28,54,53,-68,10,66,-108,-97,-118,-93,-245
-83,-28,54,53,-68,10,66,-108,-97,-118,-93,-245
-77,-28,48,53,-62,10,71,-114,-97,-112,-93,-245
-83,-34,48,53,-68,5,71,-120,-97,-112,-99,-245
-83,-28,54,53,-68,10,77,-120,-97,-112,-105,-251
-89,-28,60,59,-74,16,77,-126,-103,-112,-105,-251
-89,-34,54,59,-74,10,77,-132,-109,-118,-105,-257
-89,-46,42,65,-68,0,77,-132,-109,-118,-105,-245
-95,-52,42,71,-68,-6,71,-126,-109,-118,-105,-227
-95,-52,42,71,-68,-6,71,-126,-103,-118,-111,-209
-89,-58,30,71,-62,-12,77,-126,-103,-118,-111,-203
-89,-52,36,71,-62,-6,77,-120,-97,-112,-105,-185
-83,-40,42,59,-62,0,83,-120,-91,-112,-99,-173
-77,-34,42,53,-62,5,89,-126,-97,-106,-99,-161
-77,-34,42,53,-62,5,89,-126,-97,-100,-99,-149
-77,-34,42,53,-62,5,89,-120,-97,-94,-99,-137
-77,-52,24,65,-50,-12,95,-114,-91,-94,-93,-119
-89,-58,30,71,-62,-12,83,-114,-97,-94,-105,-119
-89,-46,42,65,-68,0,83,-120,-97,-100,-117,-113
-89,-46,42,65,-68,0,89,-114,-91,-100,-111,-101
-77,-52,24,65,-50,-12,89,-114,-85,-100,-105,-95
-71,-34,36,47,-56,0,89,-114,-91,-112,-111,-101
-71,-16,54,41,-62,16,89,-126,-97,-112,-105,-95
-83,-28,54,53,-68,10,95,-132,-103,-112,-105,-89
-83,-28,54,53,-68,10,95,-138,-103,-112,-105,-89
-89,-34,54,59,-74,10,89,-144,-103,-112,-105,-83
-89,-34,54,59,-74,10,89,-138,-103,-106,-105,-83
-77,-28,48,53,-62,10,89,-132,-97,-106,-105,-71
-65,-22,42,41,-56,10,83,-132,-97,-106,-99,-71
-65,-22,42,41,-56,10,83,-132,-97,-106,-105,-65
-65,-28,36,47,-50,5,77,-138,-103,-112,-111,-65
-59,-34,24,41,-44,-6,77,-138,-103,-112,-105,-59
-65,-34,30,47,-50,0,77,-132,-97,-106,-105,-65
-77,-40,36,59,-56,0,83,-126,-97,-100,-105,-59
-83,-46,36,59,-62,-6,89,-120,-97,-106,-105,-53
-89,-52,36,71,-62,-6,89,-120,-97,-106,-105,-47
-95,-58,36,71,-68,-12,89,-126,-97,-106,-111,-41
-95,-58,36,71,-68,-12,89,-126,-97,-112,-111,-30
-89,-52,36,71,-62,-6,95,-132,-91,-112,-105,-19
-89,-52,36,71,-62,-6,89,-138,-91,-112,-105,-1
-77,-34,42,53,-62,5,89,-132,-91,-112,-99,11
-77,-28,48,53,-62,10,95,-132,-91,-106,-93,23
-83,-22,60,47,-74,16,95,-126,-97,-100,-93,29
-83,-28,54,53,-68,10,95,-126,-97,-100,-93,35
-89,-40,48,65,-68,5,89,-126,-97,-100,-99,41
-89,-46,42,65,-68,0,89,-132,-97,-100,-99,47
-77,-52,24,65,-50,-12,89,-132,-91,-100,-105,53
-71,-52,18,59,-44,-18,95,-132,-91,-100,-105,59
-71,-46,24,53,-50,-12,95,-132,-91,-100,-105,53
-71,-46,24,53,-50,-12,101,-132,-91,-100,-111,53
-71,-40,30,53,-50,-6,101,-132,-91,-100,-111,59
-71,-40,30,53,-50,-6,101,-132,-91,-94,-105,71
-71,-28,42,47,-56,5,95,-138,-97,-100,-105,71
-71,-22,48,41,-62,10,89,-144,-97,-106,-111,65
-71,-22,48,41,-62,10,89,-144,-91,-100,-105,71
-65,-28,36,47,-50,5,95,-138,-85,-100,-99,77
-65,-28,36,47,-50,5,95,-132,-85,-94,-93,77
-71,-40,30,53,-50,-6,101,-132,-85,-94,-93,77
-77,-46,30,59,-56,-6,107,-132,-97,-100,-93,71
-71,-46,24,53,-50,-12,107,-132,-103,-100,-99,65
-59,-28,30,41,-44,0,107,-132,-103,-100,-99,65
-47,-22,24,29,-38,0,107,-132,-103,-100,-99,71
-53,-22,30,35,-44,5,107,-132,-97,-94,-93,77
-53,-22,30,35,-44,5,107,-132,-91,-94,-93,77
-59,-28,30,41,-44,0,107,-132,-91,-94,-99,71
-59,-22,36,35,-50,5,107,-126,-91,-88,-93,77
-47,-10,36,23,-44,10,113,-126,-91,-82,-87,83
-59,-28,30,41,-44,0,107,-126,-91,-88,-87,83
-59,-28,30,41,-44,0,107,-132,-97,-94,-87,89
-71,-34,36,47,-56,0,107,-132,-97,-94,-93,83
-65,-40,24,53,-44,-6,107,-132,-97,-100,-99,83
-71,-52,18,59,-44,-18,107,-138,-97,-100,-105,83
-83,-70,12,71,-50,-30,107,-138,-91,-100,-105,83
-83,-58,24,65,-56,-18,101,-144,-91,-106,-111,77
-77,-46,30,59,-56,-6,101,-138,-85,-100,-105,71
-71,-40,30,53,-50,-6,95,-138,-85,-88,-99,77
-71,-52,18,59,-44,-18,95,-138,-91,-88,-99,77
-77,-58,18,65,-50,-18,89,-138,-97,-94,-99,77
-71,-64,6,65,-38,-30,89,-144,-109,-94,-99,83
-71,-58,12,59,-44,-24,89,-132,-109,-100,-105,83
-71,-46,24,53,-50,-12,89,-132,-109,-106,-111,83
-83,-46,36,59,-62,-6,89,-138,-109,-118,-117,83
-95,-46,48,65,-74,0,89,-138,-103,-118,-111,83
-95,-46,48,65,-74,0,95,-132,-97,-112,-111,77
-95,-34,60,59,-80,10,101,-132,-97,-106,-111,71
-89,-34,54,59,-74,10,107,-132,-97,-100,-105,77
-89,-34,54,59,-74,10,113,-132,-97,-100,-105,77
-83,-46,36,59,-62,-6,107,-132,-103,-100,-99,83
-89,-58,30,71,-62,-12,95,-138,-109,-106,-99,83
-89,-52,36,71,-62,-6,101,-132,-115,-106,-99,77
-83,-52,30,65,-56,-12,101,-132,-109,-100,-105,77
-71,-46,24,53,-50,-12,95,-138,-109,-100,-105,77
-77,-52,24,65,-50,-12,95,-144,-121,-106,-111,71
-83,-52,30,65,-56,-12,89,-144,-121,-112,-117,71
-83,-52,30,65,-56,-12,89,-144,-115,-106,-111,71
-89,-52,36,71,-62,-6,89,-138,-109,-100,-111,77
-89,-58,30,71,-62,-12,95,-138,-109,-100,-111,77
-83,-52,30,65,-56,-12,101,-138,-103,-100,-111,77
-83,-46,36,59,-62,-6,101,-144,-109,-100,-105,83
-83,-40,42,59,-62,0,107,-144,-109,-100,-105,77
-77,-34,42,53,-62,5,101,-144,-115,-106,-105,71
-71,-34,36,47,-56,0,95,-150,-115,-106,-105,77
-77,-40,36,59,-56,0,95,-150,-115,-106,-105,77
-77,-46,30,59,-56,-6,95,-150,-121,-112,-105,77
-83,-46,36,59,-62,-6,89,-156,-121,-118,-105,71
-83,-52,30,65,-56,-12,89,-156,-121,-112,-105,65
-77,-40,36,59,-56,0,95,-156,-121,-112,-105,65
-71,-28,42,47,-56,5,95,-150,-115,-112,-105,71
-71,-28,42,47,-56,5,101,-144,-115,-112,-105,77
-71,-34,36,47,-56,0,107,-138,-109,-112,-99,83
-65,-34,30,47,-50,0,113,-138,-109,-112,-99,77
-71,-40,30,53,-50,-6,113,-150,-115,-112,-105,77
-47,-28,18,35,-32,-6,113,-144,-103,-100,-99,83
-41,-16,24,29,-32,5,113,-138,-103,-100,-99,83
-59,-22,36,35,-50,5,95,-144,-103,-100,-99,83
-65,-22,42,41,-56,10,89,-144,-103,-94,-99,77
-71,-22,48,41,-62,10,83,-144,-103,-100,-105,71
-59,-10,48,29,-56,16,89,-150,-103,-106,-105,71
-53,-16,36,35,-44,10,101,-150,-103,-106,-99,77
-47,-16,30,29,-38,5,107,-138,-103,-106,-99,83
-41,-16,24,29,-32,5,113,-138,-103,-100,-93,77
-41,-16,24,29,-32,5,113,-132,-97,-94,-93,83
-35,-4,30,17,-32,10,113,-120,-91,-88,-87,83
-29,8,36,11,-32,22,119,-114,-79,-76,-81,89
-47,14,60,11,-56,34,119,-114,-73,-76,-81,89
-59,8,66,23,-62,34,119,-114,-73,-76,-75,83
-77,8,84,35,-80,46,119,-114,-67,-76,-75,89
-77,19,96,29,-86,58,125,-108,-61,-70,-63,95
-65,30,96,17,-80,64,125,-102,-55,-64,-63,107
-65,24,90,23,-74,58,131,-102,-55,-58,-63,107
-77,19,96,29,-86,58,131,-102,-61,-64,-69,101
-65,36,102,17,-80,70,143,-96,-55,-58,-63,101
-53,48,102,5,-74,76,155,-90,-49,-52,-63,107
-59,48,108,5,-80,76,161,-90,-49,-46,-57,113
-59,48,108,5,-80,76,155,-90,-49,-46,-57,119
-59,54,114,-1,-86,82,155,-90,-43,-40,-51,119
-77,42,120,17,-98,82,149,-96,-43,-40,-51,113
-83,42,126,17,-104,82,149,-96,-37,-34,-51,113
-65,42,108,11,-86,76,149,-90,-31,-28,-40,119
-59,48,108,5,-80,76,149,-84,-19,-17,-40,125
-47,54,102,-7,-74,76,143,-84,-19,-17,-29,131
-47,66,114,-13,-80,88,131,-96,-25,-22,-29,131
-53,72,126,-7,-86,100,113,-102,-31,-28,-35,125
-59,72,132,-7,-92,100,95,-114,-37,-40,-35,125
-59,78,138,-13,-98,106,83,-120,-43,-40,-35,125
-59,78,138,-13,-98,106,77,-126,-49,-40,-35,131
-65,66,132,-1,-98,100,71,-132,-55,-46,-35,125
-59,60,120,-1,-86,88,66,-138,-61,-46,-40,125
-59,60,120,-1,-86,88,55,-144,-67,-46,-40,125
-59,48,108,5,-80,76,49,-150,-79,-58,-51,113
-47,36,84,5,-62,58,43,-156,-85,-70,-57,113
-41,36,78,5,-56,58,49,-156,-85,-76,-57,113
-35,36,72,-1,-50,52,55,-150,-85,-76,-57,113
-23,42,66,-13,-44,52,61,-144,-79,-70,-51,113
-23,36,60,-7,-38,46,61,-144,-79,-70,-51,113
-23,30,54,-7,-38,40,55,-144,-91,-76,-51,107
-23,24,48,-1,-32,34,55,-144,-91,-76,-51,95
-35,24,60,5,-44,40,55,-138,-85,-76,-57,95
-35,30,66,-1,-50,46,61,-138,-85,-70,-57,89
-35,19,54,5,-44,34,61,-138,-91,-76,-63,83
-41,14,54,11,-50,34,55,-138,-91,-82,-69,83
-35,8,42,11,-38,22,55,-138,-91,-82,-69,77
-35,-4,30,17,-32,10,55,-138,-97,-82,-75,71
-53,-16,36,35,-44,10,43,-144,-103,-94,-87,71
-53,-28,24,41,-38,0,43,-144,-109,-100,-87,71
-59,-28,30,41,-44,0,43,-144,-109,-94,-93,71
-47,-22,24,29,-38,0,37,-144,-109,-94,-87,65
-35,-10,24,17,-32,5,37,-144,-109,-88,-81,65
-47,-28,18,35,-32,-6,13,-150,-115,-88,-81,53
-47,-40,6,41,-26,-18,-5,-138,-109,-76,-81,53
-17,-40,-22,29,4,-30,-17,-126,-97,-64,-75,59
13,-28,-40,5,26,-36,-35,-108,-97,-58,-63,65
25,-34,-58,-1,38,-48,-71,-102,-97,-58,-69,65
30,-46,-76,5,50,-60,-113,-102,-103,-52,-69,71
41,-46,-88,-1,62,-66,-155,-102,-109,-46,-63,77
41,-40,-82,-1,62,-60,-197,-96,-103,-40,-57,83
47,-34,-82,-7,62,-54,-245,-84,-97,-28,-45,89
71,-28,-100,-19,86,-60,-305,-72,-97,-17,-40,89
113,-22,-136,-47,122,-78,-371,-54,-103,-6,-29,95
137,-34,-172,-53,152,-102,-443,-38,-103,6,-23,101
161,-58,-220,-53,188,-138,-527,-14,-109,24,-11,113
197,-64,-262,-65,230,-162,-605,10,-115,30,1,125
245,-52,-298,-95,272,-174,-689,34,-121,48,19,131
287,-46,-334,-119,308,-186,-767,64,-127,54,31,137
311,-40,-352,-131,332,-192,-851,76,-145,54,37,143
353,-34,-388,-161,368,-210,-941,94,-163,60,43,149
389,-22,-412,-185,398,-216,-1025,112,-175,60,55,161
413,-16,-430,-197,422,-222,-1109,130,-187,66,67,173
443,2,-442,-221,440,-216,-1193,142,-199,78,73,185
467,19,-448,-239,458,-210,-1253,160,-205,90,79,203
479,36,-442,-251,464,-198,-1289,178,-205,102,97,215
485,42,-442,-263,464,-198,-1313,196,-199,120,115,227
497,54,-442,-275,470,-192,-1331,214,-193,138,139,239
521,90,-430,-305,476,-168,-1343,226,-193,156,163,263
551,114,-436,-329,494,-156,-1367,238,-199,168,175,275
557,108,-448,-329,506,-168,-1403,244,-211,174,187,287
569,108,-460,-335,518,-174,-1421,250,-205,192,193,293
593,120,-472,-353,536,-174,-1427,226,-199,210,199,305
617,120,-496,-365,560,-186,-1433,148,-199,234,211,305
635,108,-526,-365,584,-204,-1445,52,-211,252,217,305
665,90,-574,-377,620,-240,-1433,-38,-217,276,229,311
695,72,-622,-377,662,-270,-1421,-120,-217,324,253,311
731,60,-670,-389,704,-300,-1397,-198,-205,378,283,323
779,60,-718,-413,752,-324,-1367,-252,-169,450,331,329
839,66,-772,-449,806,-348,-1319,-294,-133,540,373,341
893,60,-832,-473,866,-384,-1265,-324,-97,636,421,353
953,36,-916,-491,938,-438,-1181,-348,-73,738,463,371
1001,24,-976,-509,992,-474,-1103,-384,-55,846,511,395
1037,14,-1024,-527,1028,-504,-1037,-408,-37,960,565,413
1067,-10,-1078,-527,1070,-540,-1001,-426,-43,1038,607,431
1085,-40,-1126,-521,1106,-582,-983,-456,-67,1086,637,437
1091,-70,-1162,-509,1124,-612,-959,-516,-121,1098,649,443
1079,-100,-1180,-485,1130,-636,-929,-606,-193,1074,661,443
1049,-118,-1168,-467,1106,-642,-893,-696,-271,1032,667,443
1019,-142,-1162,-437,1088,-648,-839,-822,-397,930,637,425
983,-166,-1150,-407,1064,-654,-779,-960,-547,768,577,395
935,-196,-1132,-365,1034,-660,-725,-1074,-685,588,505,359
881,-232,-1114,-323,998,-672,-665,-1164,-811,408,421,323
797,-280,-1078,-257,938,-678,-587,-1260,-907,210,325,275
701,-334,-1036,-185,866,-684,-509,-1320,-985,12,217,215
635,-364,-1000,-131,818,-678,-431,-1320,-1015,-130,133,161
575,-370,-946,-101,758,-654,-359,-1266,-997,-220,67,119
515,-376,-892,-65,704,-630,-305,-1188,-961,-280,13,83
455,-388,-844,-29,650,-612,-257,-1110,-919,-334,-45,35
389,-400,-790,5,590,-594,-197,-1014,-865,-364,-99,-7
341,-400,-742,29,542,-570,-137,-912,-811,-376,-153,-41
287,-400,-688,59,488,-540,-89,-810,-751,-388,-201,-71
251,-370,-622,59,434,-492,-41,-708,-673,-370,-225,-83
197,-364,-562,83,380,-462,-11,-600,-595,-364,-243,-89
143,-346,-490,101,314,-414,13,-498,-517,-352,-261,-101
101,-334,-436,113,266,-384,49,-396,-439,-334,-267,-113
65,-322,-388,125,224,-354,77,-312,-367,-316,-267,-125
47,-310,-358,131,200,-330,107,-252,-325,-298,-261,-131
41,-292,-334,125,188,-312,131,-210,-289,-280,-255,-125
30,-280,-310,125,170,-294,143,-186,-265,-262,-255,-119
25,-268,-292,119,158,-282,149,-174,-253,-256,-255,-113
13,-256,-268,119,140,-264,161,-156,-229,-238,-249,-107
1,-238,-238,113,116,-240,173,-126,-199,-220,-237,-89
-11,-214,-202,107,92,-210,179,-96,-175,-214,-231,-71
-29,-190,-160,107,62,-174,191,-66,-139,-202,-219,-65
-47,-166,-118,101,32,-144,203,-43,-115,-184,-207,-47
-71,-154,-82,107,4,-120,203,-38,-91,-172,-201,-47
-83,-154,-70,113,-8,-114,203,-38,-85,-166,-201,-59
-95,-148,-52,119,-20,-102,203,-32,-73,-154,-195,-59
-89,-136,-46,113,-20,-90,209,-26,-61,-142,-177,-47
-95,-124,-28,107,-32,-78,215,-20,-43,-130,-177,-35
-89,-112,-22,101,-32,-66,221,-8,-31,-124,-165,-30
-89,-94,-6,89,-44,-48,227,-2,-19,-118,-153,-19
-95,-82,12,83,-56,-36,233,4,-7,-112,-153,-13
-101,-70,30,83,-68,-18,233,22,5,-112,-153,-13
-119,-82,36,95,-80,-24,233,28,5,-112,-153,-13
-131,-94,36,107,-86,-30,233,34,17,-112,-147,-7
-131,-88,42,107,-86,-24,233,46,23,-112,-147,-7
-131,-82,48,101,-92,-18,239,52,29,-106,-141,-13
-125,-76,48,101,-86,-12,239,52,35,-100,-141,-13
-125,-52,72,89,-98,10,245,58,41,-94,-135,-7
-143,-58,84,95,-116,10,239,46,41,-94,-135,-7
-149,-58,90,101,-122,16,233,40,47,-88,-129,-1
-149,-52,96,101,-122,22,233,46,59,-76,-129,5
-155,-52,102,101,-128,22,233,58,65,-70,-129,5
-143,-46,96,89,-122,22,227,64,71,-64,-123,5
-131,-40,90,83,-110,22,227,76,83,-64,-117,17
-143,-46,96,89,-122,22,227,82,83,-64,-117,11
-149,-40,108,95,-128,34,227,88,83,-64,-117,11
-149,-34,114,89,-134,40,227,88,89,-58,-117,11
-149,-22,126,83,-140,52,227,100,101,-58,-117,11
-149,-10,138,77,-146,64,233,100,106,-58,-111,17
-149,-10,138,77,-146,64,239,106,106,-52,-111,29
-143,-10,132,71,-140,58,239,106,111,-58,-117,35
-143,-10,132,71,-140,58,233,106,117,-52,-117,29
-149,-22,126,83,-140,52,233,106,117,-52,-117,29
-149,-22,126,83,-140,52,233,118,123,-46,-111,23
-137,-10,126,71,-134,58,227,130,129,-34,-117,23
-137,-10,126,71,-134,58,239,142,135,-34,-123,23
-137,-4,132,71,-134,64,251,142,141,-28,-117,23
-131,2,132,59,-134,64,257,154,147,-22,-111,29
-137,-4,132,71,-134,64,257,154,159,-17,-111,23
-137,8,144,65,-140,76,257,154,159,-17,-111,23
-143,8,150,65,-146,76,251,154,159,-17,-111,17
-143,19,162,59,-152,88,251,160,165,-17,-105,17
-143,19,162,59,-152,88,257,178,177,-6,-99,29
-143,19,162,59,-152,88,257,190,189,0,-99,29
-137,24,162,59,-146,94,263,202,195,6,-99,23
-125,30,156,47,-140,94,269,214,201,12,-99,23
-143,30,174,53,-158,100,275,226,201,12,-105,29
-155,19,174,65,-164,94,275,226,207,12,-105,29
-155,24,180,65,-164,100,281,232,219,18,-99,29
-149,36,186,59,-164,112,293,244,231,30,-93,35
-143,42,186,47,-164,112,299,256,243,30,-81,41
-143,48,192,47,-164,118,305,274,261,42,-81,41
-137,60,198,41,-164,130,311,292,273,48,-69,41
-131,72,204,29,-164,136,317,304,279,54,-69,41
-137,78,216,29,-176,148,329,316,291,60,-63,41
-143,78,222,29,-182,148,335,328,297,66,-63,47
-149,72,222,41,-182,148,341,346,309,72,-63,47
-149,78,228,35,-188,154,341,364,321,78,-63,47
-149,96,246,29,-194,172,341,370,333,90,-63,47
-155,102,258,23,-206,178,341,382,345,90,-57,47
-161,114,276,23,-218,196,341,400,363,102,-51,47
-149,132,282,11,-212,208,359,424,387,114,-45,59
-143,144,288,-1,-212,214,377,442,405,120,-40,59
-143,132,276,5,-206,202,389,460,417,126,-40,59
-149,126,276,11,-212,202,395,478,429,126,-35,65
-149,126,276,11,-212,202,407,496,441,138,-29,65
-137,144,282,-1,-206,214,419,520,465,150,-23,77
-143,138,282,-1,-212,208,431,544,483,162,-17,89
-161,132,294,17,-224,214,437,556,507,180,-17,89
-167,138,306,11,-236,220,443,580,525,192,-5,89
-173,150,324,11,-248,238,449,592,543,204,1,89
-173,156,330,11,-248,244,455,616,561,216,1,89
-173,168,342,5,-254,256,467,628,573,228,7,95
-173,168,342,5,-254,256,479,652,597,240,13,95
-173,174,348,-1,-260,262,491,676,621,252,19,107
-161,174,336,-7,-248,256,503,706,639,270,25,107
-155,186,342,-19,-248,262,509,730,651,276,25,113
-161,180,342,-7,-248,262,509,742,657,282,31,119
-155,186,342,-19,-248,262,509,760,675,300,37,119
-149,210,360,-29,-254,286,527,784,699,318,49,131
-149,234,384,-41,-266,310,533,802,711,330,61,137
-161,234,396,-35,-278,316,533,826,729,336,61,131
-149,234,384,-41,-266,310,545,844,747,348,67,131
-149,240,390,-41,-266,316,557,862,765,366,79,143
-149,240,390,-41,-266,316,557,874,777,378,79,149
-149,240,390,-41,-266,316,557,880,783,384,79,149
-155,240,396,-41,-272,316,557,892,789,390,85,155
-149,246,396,-47,-272,322,563,910,801,402,85,155
-137,252,390,-53,-260,322,563,922,807,408,91,161
-131,264,396,-65,-260,328,563,940,819,414,103,161
-131,264,396,-65,-260,328,557,946,825,414,109,167
-131,264,396,-65,-260,328,557,952,825,414,115,167
-107,276,384,-83,-242,328,563,958,831,426,121,173
-89,282,372,-95,-230,328,563,970,843,438,121,179
-71,288,360,-107,-212,322,557,976,849,444,127,173
-71,282,354,-107,-212,316,551,982,843,450,127,173
-77,264,342,-89,-206,304,539,976,831,456,127,173
-77,264,342,-89,-206,304,527,976,825,456,127,173
-65,264,330,-95,-194,298,515,970,825,456,133,179
-53,276,330,-107,-188,304,509,970,819,462,139,185
-47,276,324,-113,-182,298,497,958,813,468,145,185
-35,276,312,-119,-170,292,485,952,807,468,139,179
-29,276,306,-119,-164,292,473,940,789,468,145,185
-23,270,294,-125,-158,280,461,922,771,468,151,185
-17,258,276,-119,-146,268,449,904,753,456,151,191
-17,246,264,-113,-140,256,425,868,723,438,151,185
-17,234,252,-107,-134,244,407,838,699,426,151,185
-17,222,240,-101,-128,232,389,796,669,414,151,191
-23,210,234,-95,-128,220,371,760,639,402,139,179
-17,210,228,-95,-122,220,359,712,609,384,127,173
-5,228,234,-107,-116,232,347,670,579,366,121,173
1,234,234,-119,-116,232,335,640,543,348,121,173
1,222,222,-113,-110,220,323,604,507,330,115,167
-11,204,216,-95,-110,208,299,556,465,306,109,155
-11,192,204,-89,-104,196,281,520,429,288,97,149
-17,168,186,-71,-98,178,263,472,387,264,85,137
-23,156,180,-65,-98,166,239,424,357,240,85,137
-29,126,156,-47,-92,142,239,394,333,228,79,137
-47,120,168,-35,-104,142,221,352,303,204,61,125
-53,126,180,-35,-116,154,203,316,273,186,49,107
-53,132,186,-35,-116,160,197,286,249,168,37,101
-47,108,156,-29,-98,130,197,262,231,156,37,101
-41,96,138,-24,-86,118,185,232,213,138,25,95
-47,78,126,-19,-86,100,179,202,189,126,19,89
-47,72,120,-13,-80,94,167,178,165,114,13,89
-53,60,114,-1,-80,88,167,154,141,96,13,89
-59,60,120,-1,-86,88,161,136,117,90,1,89
-59,60,120,-1,-86,88,155,118,106,72,-11,83
-59,66,126,-7,-92,94,155,100,89,60,-17,77
-47,66,114,-13,-80,88,149,82,77,48,-23,71
-47,54,102,-7,-74,76,143,64,65,42,-29,65
-47,48,96,-1,-68,70,143,58,59,36,-35,53
-53,30,84,11,-68,58,137,46,41,24,-40,53
-59,24,84,17,-68,52,131,28,29,18,-45,53
-47,30,78,5,-62,52,131,22,17,12,-40,53
-47,30,78,5,-62,52,125,10,17,6,-40,59
-59,19,78,17,-68,46,119,-8,5,-6,-45,59
-65,14,78,23,-74,46,113,-14,-7,-17,-45,59
-59,14,72,17,-68,40,119,-14,-7,-17,-45,53
-65,14,78,23,-74,46,119,-14,-13,-22,-51,41
-71,8,78,29,-74,40,125,-14,-19,-22,-51,41
-65,2,66,29,-68,34,125,-20,-19,-17,-57,35
-65,-4,60,35,-62,28,125,-20,-25,-22,-57,29
-53,-4,48,29,-50,22,113,-26,-37,-22,-63,29
-41,2,42,17,-44,22,113,-32,-37,-22,-69,29
-35,8,42,11,-38,22,119,-32,-31,-22,-63,29
-17,19,36,-1,-26,28,125,-26,-31,-17,-57,41
-35,2,36,11,-38,16,125,-32,-31,-17,-57,35
-53,-4,48,29,-50,22,119,-38,-43,-28,-63,29
-59,-16,42,35,-50,10,125,-38,-43,-28,-63,29
-53,-4,48,29,-50,22,125,-32,-43,-28,-57,29
-47,-4,42,23,-44,16,131,-32,-43,-28,-57,29
-47,-4,42,23,-44,16,125,-38,-49,-34,-63,23
-47,2,48,17,-50,22,119,-38,-49,-34,-63,29
-47,2,48,17,-50,22,119,-38,-49,-34,-63,29
-41,2,42,17,-44,22,125,-38,-49,-34,-57,29
-41,2,42,17,-44,22,119,-43,-49,-34,-57,23
-53,-10,42,29,-50,16,107,-48,-55,-40,-63,23
-47,-10,36,23,-44,10,113,-43,-49,-34,-57,23
-35,2,36,11,-38,16,125,-43,-49,-28,-57,29
-29,2,30,11,-32,16,119,-38,-43,-28,-57,29
-53,2,54,23,-56,28,119,-43,-49,-28,-63,23
-59,8,66,23,-62,34,119,-43,-43,-28,-57,23
-65,14,78,23,-74,46,119,-48,-43,-28,-57,23
-65,14,78,23,-74,46,113,-48,-43,-28,-51,17
-71,8,78,29,-74,40,107,-54,-37,-28,-51,17
-65,2,66,29,-68,34,107,-54,-37,-22,-51,23
-65,-10,54,35,-62,22,107,-48,-31,-22,-45,29
-59,-22,36,35,-50,5,107,-43,-25,-17,-40,35
-59,-16,42,35,-50,10,113,-43,-25,-17,-40,35
-59,2,60,23,-62,28,101,-48,-25,-22,-45,29
-65,-4,60,35,-62,28,101,-54,-31,-28,-51,29
-53,-4,48,29,-50,22,107,-48,-31,-28,-40,35
-59,-4,54,29,-56,22,101,-48,-31,-28,-40,29
-65,-10,54,35,-62,22,101,-48,-31,-28,-45,23
-65,-4,60,35,-62,28,101,-43,-37,-28,-45,17
-53,19,72,17,-62,46,101,-43,-31,-22,-45,23
-53,19,72,17,-62,46,101,-48,-25,-22,-45,23
-53,24,78,17,-62,52,101,-54,-19,-28,-51,23
-59,19,78,17,-68,46,101,-48,-13,-28,-45,29
-53,14,66,17,-62,40,101,-48,-13,-22,-40,35
-71,8,78,29,-74,40,101,-48,-19,-28,-45,35
-77,14,90,29,-86,52,101,-43,-19,-28,-40,41
-77,2,78,35,-80,40,101,-43,-19,-22,-35,41
-77,2,78,35,-80,40,101,-43,-25,-17,-29,41
-71,14,84,23,-80,46,107,-38,-19,-17,-29,41
-71,14,84,23,-80,46,107,-38,-13,-12,-29,41
-71,19,90,23,-80,52,107,-43,-13,-12,-29,41
-71,19,90,23,-80,52,101,-43,-13,-17,-35,41
-71,24,96,23,-80,58,101,-48,-13,-17,-35,41
-65,19,84,23,-74,52,95,-54,-13,-17,-29,47
-65,24,90,23,-74,58,89,-54,-19,-17,-29,35
-77,19,96,29,-86,58,83,-54,-25,-22,-29,35
-77,19,96,29,-86,58,83,-48,-25,-17,-23,41
-59,30,90,11,-74,58,89,-43,-19,-12,-11,41
-53,42,96,5,-74,70,95,-43,-19,-12,-11,47
-47,60,108,-7,-74,82,107,-38,-7,-6,-5,53
-53,60,114,-1,-80,88,107,-43,-7,-12,-11,53
-71,48,120,11,-92,82,101,-48,-13,-17,-23,47
-71,42,114,11,-92,76,89,-54,-13,-17,-23,47
-65,42,108,11,-86,76,83,-54,-13,-17,-17,47
-71,36,108,17,-86,70,77,-60,-19,-22,-23,41
-83,24,108,29,-92,64,71,-66,-25,-28,-23,41
-77,24,102,29,-86,64,71,-66,-25,-28,-23,41
-77,30,108,23,-92,70,71,-60,-25,-28,-23,35
-71,36,108,17,-86,70,71,-66,-31,-28,-29,35
-65,36,102,17,-80,70,66,-72,-31,-28,-29,29
-47,42,90,-1,-68,64,71,-72,-37,-28,-29,29
-47,42,90,-1,-68,64,71,-72,-37,-28,-23,29
-65,42,108,11,-86,76,71,-78,-37,-28,-23,29
-71,42,114,11,-92,76,71,-78,-43,-34,-23,29
-71,48,120,11,-92,82,77,-84,-49,-34,-23,29
-71,54,126,5,-98,88,71,-84,-49,-34,-17,35
-71,48,120,11,-92,82,66,-84,-43,-34,-17,35
-65,48,114,11,-86,82,66,-84,-43,-34,-17,41
-65,36,102,17,-80,70,61,-84,-43,-34,-17,41
-59,36,96,11,-74,64,61,-84,-43,-40,-17,35
-59,36,96,11,-74,64,55,-84,-49,-52,-23,35
-59,30,90,11,-74,58,55,-84,-49,-52,-23,35
-47,42,90,-1,-68,64,61,-84,-55,-52,-23,35
-41,54,96,-7,-68,76,61,-90,-55,-52,-23,35
-47,60,108,-7,-74,82,55,-96,-61,-52,-29,29
-53,54,108,-1,-80,82,43,-102,-67,-46,-35,29
-53,54,108,-1,-80,82,43,-102,-67,-46,-29,29
-53,42,96,5,-74,70,43,-102,-67,-46,-29,29
-47,36,84,5,-62,58,43,-102,-67,-46,-23,29
-47,42,90,-1,-68,64,37,-102,-67,-52,-23,29
-53,42,96,5,-74,70,31,-108,-73,-58,-29,29
-53,42,96,5,-74,70,19,-114,-73,-64,-29,29
-53,48,102,5,-74,76,19,-114,-73,-64,-29,29
-53,54,108,-1,-80,82,19,-114,-73,-70,-29,23
-53,48,102,5,-74,76,25,-114,-79,-64,-29,23
-59,48,108,5,-80,76,25,-108,-73,-58,-29,23
-59,54,114,-1,-86,82,25,-114,-73,-52,-23,23
-65,48,114,11,-86,82,25,-108,-79,-52,-23,29
-77,24,102,29,-86,64,19,-114,-85,-52,-23,23
-77,14,90,29,-86,52,19,-114,-85,-58,-29,23
-71,8,78,29,-74,40,13,-120,-85,-64,-29,23
-77,14,90,29,-86,52,7,-120,-85,-70,-29,23
-71,19,90,23,-80,52,7,-114,-79,-70,-29,23
-65,19,84,23,-74,52,1,-120,-79,-70,-29,23
-65,14,78,23,-74,46,7,-114,-79,-70,-23,23
-77,8,84,35,-80,46,7,-120,-85,-70,-29,17
-83,8,90,35,-86,46,1,-132,-91,-70,-29,17
-83,-10,72,41,-80,28,-5,-138,-97,-70,-29,17
-71,2,72,29,-74,34,1,-126,-91,-64,-29,17
-71,2,72,29,-74,34,1,-120,-91,-64,-29,11
-83,-10,72,41,-80,28,1,-120,-91,-70,-29,11
-89,-16,72,53,-80,28,1,-114,-91,-76,-29,11
-95,-16,78,53,-86,28,1,-114,-85,-76,-29,11
-89,-10,78,47,-86,34,1,-114,-85,-76,-23,17
-95,-10,84,47,-92,34,-5,-114,-85,-82,-35,11
-89,-10,78,47,-86,34,-5,-126,-91,-88,-35,11
-89,-10,78,47,-86,34,-11,-138,-103,-94,-35,11
-89,-16,72,53,-80,28,-11,-144,-103,-88,-35,17
-89,-10,78,47,-86,34,-17,-144,-103,-82,-29,17
-89,-4,84,47,-86,40,-17,-144,-97,-82,-29,17
-83,2,84,35,-86,40,-17,-138,-91,-82,-23,17
-83,2,84,35,-86,40,-17,-138,-91,-82,-23,23
-89,-10,78,47,-86,34,-23,-138,-91,-82,-23,17
-83,-10,72,41,-80,28,-23,-138,-97,-82,-17,23
-71,2,72,29,-74,34,-17,-138,-103,-82,-17,23
-59,19,78,17,-68,46,-11,-132,-97,-76,-17,23
-59,24,84,17,-68,52,-11,-132,-97,-70,-17,23
-65,19,84,23,-74,52,-5,-132,-91,-70,-17,23
-71,2,72,29,-74,34,-5,-132,-91,-70,-17,17
-77,8,84,35,-80,46,-11,-144,-97,-76,-23,11
-83,8,90,35,-86,46,-5,-150,-103,-82,-23,11
-83,2,84,35,-86,40,1,-144,-103,-76,-17,17
-77,2,78,35,-80,40,-5,-144,-97,-76,-17,23
-71,8,78,29,-74,40,1,-138,-97,-76,-5,29
-83,2,84,35,-86,40,-5,-138,-103,-76,-11,23
-89,-4,84,47,-86,40,-11,-150,-109,-82,-23,17
-89,-4,84,47,-86,40,-5,-150,-103,-82,-23,23
-89,-16,72,53,-80,28,-11,-150,-103,-88,-29,17
-83,-16,66,47,-74,22,-5,-150,-97,-88,-29,17
-83,-10,72,41,-80,28,1,-150,-91,-82,-23,23
-77,-4,72,41,-74,34,1,-150,-91,-76,-17,23
-83,-4,78,41,-80,34,7,-156,-97,-76,-17,23
-77,-4,72,41,-74,34,7,-156,-103,-76,-17,23
-71,8,78,29,-74,40,7,-156,-103,-82,-11,29
-83,19,102,29,-92,58,7,-156,-103,-82,-11,23
-95,14,108,35,-104,58,7,-150,-109,-88,-17,23
-95,2,96,41,-98,46,7,-150,-103,-88,-11,17
-101,-4,96,53,-98,46,7,-156,-103,-94,-23,11
-113,-22,90,65,-104,34,1,-156,-103,-94,-23,11
-95,-22,72,53,-86,22,1,-162,-103,-94,-23,11
-83,-4,78,41,-80,34,1,-168,-103,-88,-23,11
-83,-4,78,41,-80,34,1,-168,-103,-88,-23,5
-83,-10,72,41,-80,28,1,-156,-97,-82,-17,11
-77,2,78,35,-80,40,1,-150,-97,-76,-5,17
-77,14,90,29,-86,52,7,-150,-103,-82,-11,11
-83,14,96,29,-92,52,7,-150,-103,-82,-11,11
-83,14,96,29,-92,52,7,-150,-103,-82,-11,11
-71,14,84,23,-80,46,13,-150,-103,-76,-5,17
-71,8,78,29,-74,40,13,-150,-103,-76,-11,11
-65,2,66,29,-68,34,13,-156,-109,-82,-11,11
-71,-10,60,35,-68,22,7,-156,-109,-88,-11,11
-71,-16,54,41,-62,16,13,-150,-103,-88,-5,11
-71,-22,48,41,-62,10,19,-138,-103,-88,-5,17
-77,-28,48,53,-62,10,19,-132,-97,-88,-5,23
-83,-16,66,47,-74,22,19,-138,-97,-88,-11,17
-89,-10,78,47,-86,34,13,-144,-97,-94,-11,17
-83,-4,78,41,-80,34,13,-144,-97,-88,1,17
-71,8,78,29,-74,40,1,-150,-97,-88,1,23
-59,14,72,17,-68,40,7,-150,-91,-82,7,23
-53,14,66,17,-62,40,13,-144,-91,-82,7,29
-53,14,66,17,-62,40,13,-144,-97,-82,7,23
-59,8,66,23,-62,34,13,-150,-103,-88,7,23
-53,14,66,17,-62,40,19,-144,-103,-82,7,23
-59,14,72,17,-68,40,19,-150,-103,-82,7,29
-59,8,66,23,-62,34,19,-144,-97,-82,7,29
-59,2,60,23,-62,28,13,-144,-97,-82,7,29
-65,-10,54,35,-62,22,13,-138,-91,-76,13,29
-53,-4,48,29,-50,22,19,-126,-85,-64,19,35
-53,8,60,23,-56,34,25,-120,-85,-64,19,35
-71,-4,66,35,-68,28,19,-126,-91,-70,7,29
-83,-16,66,47,-74,22,19,-138,-97,-82,1,17
-77,-10,66,41,-74,28,25,-138,-103,-82,1,17
-77,-4,72,41,-74,34,25,-138,-103,-82,1,23
-71,-4,66,35,-68,28,19,-138,-103,-76,1,23
-53,2,54,23,-56,28,25,-132,-97,-64,7,29
-53,-10,42,29,-50,16,25,-132,-97,-64,13,29
-77,-34,42,53,-62,5,19,-138,-97,-70,13,29
-89,-46,42,65,-68,0,13,-144,-103,-76,7,23
-95,-46,48,65,-74,0,7,-150,-109,-82,7,23
-101,-52,48,77,-74,0,7,-150,-115,-88,7,23
-107,-46,60,71,-86,5,7,-150,-115,-94,7,23
-95,-46,48,65,-74,0,7,-150,-115,-94,1,29
-89,-46,42,65,-68,0,7,-150,-115,-94,1,23
-83,-46,36,59,-62,-6,13,-156,-109,-94,1,23
-83,-52,30,65,-56,-12,13,-156,-109,-94,1,23
-95,-58,36,71,-68,-12,13,-156,-109,-94,1,23
-89,-52,36,71,-62,-6,7,-162,-115,-94,-5,23
-83,-34,48,53,-68,5,7,-162,-109,-94,1,29
-89,-34,54,59,-74,10,7,-156,-109,-88,7,23
-83,-40,42,59,-62,0,13,-156,-103,-88,13,29
-83,-34,48,53,-68,5,19,-156,-109,-88,19,29
-83,-34,48,53,-68,5,19,-156,-109,-88,19,29
-77,-34,42,53,-62,5,19,-156,-109,-82,19,29
-77,-34,42,53,-62,5,13,-150,-109,-82,19,35
-77,-46,30,59,-56,-6,13,-144,-103,-76,19,35
-77,-40,36,59,-56,0,7,-144,-103,-76,13,35
-77,-40,36,59,-56,0,13,-138,-109,-82,13,35
-83,-40,42,59,-62,0,19,-138,-109,-82,13,41
-89,-34,54,59,-74,10,13,-138,-109,-88,7,35
-77,-34,42,53,-62,5,13,-144,-115,-88,7,35
-71,-28,42,47,-56,5,13,-150,-115,-88,7,35
-71,-28,42,47,-56,5,13,-150,-115,-88,7,29
-71,-22,48,41,-62,10,13,-150,-109,-88,13,29
-71,-28,42,47,-56,5,13,-150,-109,-88,13,29
-71,-40,30,53,-50,-6,13,-150,-115,-94,7,23
-65,-40,24,53,-44,-6,7,-150,-115,-100,13,29
-59,-22,36,35,-50,5,1,-150,-115,-94,13,29
-53,-10,42,29,-50,16,1,-144,-115,-94,19,35
-47,-4,42,23,-44,16,1,-138,-109,-94,19,35
-35,8,42,11,-38,22,7,-132,-103,-82,19,41
-41,2,42,17,-44,22,1,-132,-103,-82,19,41
-53,-16,36,35,-44,10,1,-138,-97,-76,19,35
-47,-16,30,29,-38,5,1,-138,-97,-76,19,35
-47,-4,42,23,-44,16,1,-138,-103,-76,25,35
-47,-4,42,23,-44,16,7,-138,-97,-76,25,35
-53,-10,42,29,-50,16,7,-144,-103,-82,19,35
-41,8,48,17,-44,28,13,-138,-97,-82,25,41
-41,8,48,17,-44,28,13,-138,-91,-82,31,41
-35,19,54,5,-44,34,19,-126,-79,-70,43,47
-23,36,60,-7,-38,46,31,-114,-67,-52,55,59
-41,42,84,-1,-62,64,31,-108,-67,-52,61,65
-41,54,96,-7,-68,76,43,-102,-61,-46,67,65
-53,42,96,5,-74,70,43,-102,-61,-46,67,65
-47,60,108,-7,-74,82,43,-96,-55,-34,73,71
-35,84,120,-24,-74,100,55,-90,-43,-28,67,71
-29,90,120,-29,-74,106,49,-96,-43,-28,67,71
-35,84,120,-24,-74,100,49,-102,-43,-22,67,71
-65,60,126,5,-92,94,43,-108,-49,-34,55,59
-83,42,126,17,-104,82,43,-114,-55,-40,55,59
-89,42,132,23,-110,88,49,-114,-55,-46,61,59
-83,42,126,17,-104,82,49,-108,-61,-40,67,65
-89,48,138,23,-110,94,55,-108,-55,-40,73,65
-83,54,138,11,-110,94,61,-102,-43,-28,79,71
-71,72,144,-1,-104,106,61,-96,-31,-28,91,77
-71,84,156,-7,-110,118,61,-90,-31,-22,91,83
-65,84,150,-7,-104,118,55,-90,-31,-22,97,89
-59,96,156,-19,-104,124,43,-96,-31,-22,109,95
-65,96,162,-13,-110,130,19,-102,-37,-22,109,95
-59,96,156,-19,-104,124,1,-108,-43,-34,103,95
-59,90,150,-19,-104,118,-17,-126,-55,-34,103,89
-59,78,138,-13,-98,106,-29,-138,-67,-34,103,95
-59,90,150,-19,-104,118,-41,-150,-67,-40,91,89
-59,78,138,-13,-98,106,-53,-156,-79,-40,85,83
-65,72,138,-1,-98,106,-59,-162,-79,-46,79,77
-71,54,126,5,-98,88,-59,-162,-91,-52,73,71
-65,48,114,11,-86,82,-59,-168,-97,-64,73,71
-65,36,102,17,-80,70,-59,-168,-103,-70,67,71
-65,8,72,29,-68,40,-59,-168,-103,-70,67,65
-59,2,60,23,-62,28,-53,-162,-103,-70,67,65
-47,19,66,11,-56,40,-47,-156,-97,-70,67,71
-41,30,72,5,-56,52,-47,-150,-97,-70,67,65
-47,24,72,11,-56,46,-59,-150,-103,-70,61,59
-47,19,66,11,-56,40,-59,-150,-103,-70,61,53
-41,24,66,11,-50,46,-53,-144,-97,-64,67,59
-41,19,60,11,-50,40,-47,-138,-97,-64,61,59
-47,8,54,17,-50,28,-47,-138,-103,-82,49,53
-59,-22,36,35,-50,5,-59,-150,-115,-94,37,47
-53,-34,18,41,-38,-6,-59,-156,-121,-100,37,47
-53,-34,18,41,-38,-6,-59,-156,-127,-100,31,41
-59,-40,18,47,-38,-12,-59,-162,-127,-100,31,35
-53,-28,24,41,-38,0,-65,-168,-133,-106,31,29
-47,-16,30,29,-38,5,-59,-156,-121,-94,37,35
-53,-10,42,29,-50,16,-65,-150,-115,-94,43,35
-59,-16,42,35,-50,10,-77,-150,-115,-94,43,29
-59,-28,30,41,-44,0,-95,-144,-109,-94,43,29
-59,-28,30,41,-44,0,-113,-138,-109,-88,49,29
-47,-34,12,35,-32,-12,-137,-144,-115,-82,55,35
-23,-34,-11,23,-8,-24,-155,-138,-115,-76,55,41
-5,-40,-34,23,16,-36,-191,-132,-121,-70,55,41
41,-16,-58,-13,50,-36,-215,-120,-121,-58,73,53
71,-4,-76,-29,74,-36,-251,-108,-121,-52,79,59
77,-4,-82,-35,80,-42,-299,-96,-121,-46,79,59
89,2,-88,-47,86,-42,-341,-84,-121,-28,91,65
83,-16,-100,-29,92,-54,-413,-72,-121,-22,97,71
95,-16,-112,-35,104,-60,-485,-60,-121,-12,103,77
131,-4,-136,-59,134,-66,-563,-43,-121,0,115,89
173,2,-172,-89,170,-84,-647,-38,-133,12,127,101
215,2,-214,-107,212,-102,-725,-20,-139,24,139,107
257,-4,-262,-125,260,-132,-803,4,-151,36,151,113
293,-22,-316,-137,302,-168,-881,22,-163,42,157,119
323,-22,-346,-149,332,-180,-953,40,-181,42,163,125
353,-16,-370,-167,362,-192,-1049,52,-205,42,163,125
383,-4,-388,-185,386,-192,-1133,70,-223,42,175,137
413,8,-406,-209,410,-198,-1211,88,-235,48,187,149
437,14,-424,-227,428,-204,-1289,100,-253,60,199,161
455,19,-436,-233,446,-204,-1337,112,-259,72,211,179
467,30,-436,-245,452,-198,-1355,124,-259,84,229,197
479,54,-424,-263,452,-180,-1373,130,-259,90,235,215
497,90,-406,-293,452,-156,-1385,142,-265,96,253,233
515,114,-400,-311,458,-138,-1391,148,-271,108,277,245
527,132,-394,-323,464,-126,-1415,160,-277,114,283,257
539,132,-406,-329,476,-132,-1439,166,-283,126,301,257
551,114,-436,-329,494,-156,-1451,172,-277,144,307,257
569,102,-466,-335,518,-180,-1457,136,-271,168,319,263
599,78,-520,-335,560,-216,-1463,64,-271,186,331,269
653,84,-568,-365,614,-240,-1463,-26,-277,210,343,275
695,72,-622,-377,662,-270,-1451,-108,-277,240,355,281
725,54,-670,-389,698,-306,-1439,-204,-277,288,379,281
767,42,-724,-401,746,-336,-1409,-276,-253,360,415,293
803,36,-766,-413,788,-360,-1373,-324,-211,444,457,299
851,42,-808,-443,830,-378,-1325,-354,-157,552,505,317
905,30,-874,-467,890,-420,-1265,-378,-115,660,565,335
953,24,-928,-485,944,-450,-1199,-414,-91,762,613,353
989,19,-970,-503,980,-474,-1121,-456,-79,870,667,389
1025,8,-1018,-515,1022,-504,-1061,-492,-73,960,721,407
1055,-22,-1078,-515,1064,-546,-1019,-528,-97,1020,757,425
1073,-70,-1144,-503,1106,-606,-983,-576,-139,1056,781,437
1067,-106,-1174,-479,1118,-636,-941,-642,-205,1050,793,437
1049,-124,-1174,-461,1112,-648,-905,-738,-283,1032,799,437
1025,-148,-1174,-437,1100,-660,-863,-840,-385,978,781,425
989,-178,-1168,-407,1076,-672,-803,-972,-523,846,733,401
941,-214,-1156,-365,1046,-684,-743,-1092,-673,684,673,371
881,-244,-1126,-317,1004,-684,-689,-1188,-799,504,601,347
803,-274,-1078,-263,938,-672,-629,-1278,-901,312,517,305
713,-322,-1036,-197,872,-678,-551,-1350,-985,108,421,245
641,-358,-1000,-143,818,-678,-473,-1368,-1033,-64,319,191
569,-394,-964,-89,764,-678,-389,-1332,-1039,-196,241,143
515,-412,-928,-47,722,-666,-311,-1254,-1003,-268,169,95
467,-406,-874,-29,668,-636,-257,-1170,-967,-328,103,53
413,-412,-826,-1,620,-618,-203,-1074,-913,-364,37,5
353,-418,-772,29,560,-594,-155,-972,-853,-382,-23,-41
281,-442,-724,77,500,-582,-101,-876,-793,-400,-69,-77
215,-454,-670,119,440,-558,-65,-780,-733,-406,-105,-107
155,-436,-592,143,374,-510,-41,-678,-655,-400,-123,-119
113,-400,-514,143,314,-456,-11,-564,-571,-382,-129,-125
101,-370,-472,131,284,-420,19,-456,-493,-370,-141,-131
95,-340,-436,125,266,-384,43,-360,-415,-352,-147,-137
107,-298,-406,95,254,-348,66,-276,-349,-322,-147,-137
65,-310,-376,119,218,-342,77,-228,-313,-310,-153,-143
30,-316,-346,143,188,-330,101,-204,-295,-292,-165,-149
13,-298,-310,137,158,-306,125,-180,-277,-262,-153,-137
-11,-280,-268,143,128,-276,137,-156,-259,-238,-153,-137
-35,-268,-232,149,98,-252,149,-138,-235,-232,-141,-125
-47,-256,-208,149,80,-234,155,-114,-205,-226,-129,-113
-59,-238,-178,143,56,-210,155,-90,-175,-220,-123,-107
-59,-214,-154,131,44,-186,155,-66,-145,-214,-111,-101
-59,-202,-142,125,38,-174,155,-48,-115,-208,-105,-89
-71,-196,-124,131,26,-162,155,-38,-97,-202,-99,-89
-77,-184,-106,131,16,-144,161,-32,-85,-190,-93,-83
-89,-166,-76,125,-8,-120,173,-26,-73,-172,-87,-77
-101,-154,-52,125,-26,-102,179,-14,-61,-154,-81,-65
-119,-148,-28,131,-44,-90,179,-2,-43,-148,-75,-59
-131,-136,-6,131,-62,-72,179,4,-31,-142,-63,-53
-131,-112,18,119,-74,-48,179,10,-19,-136,-51,-47
-119,-94,24,101,-74,-36,185,28,-1,-124,-40,-41
-113,-88,24,101,-68,-30,191,40,5,-124,-40,-35
-119,-94,24,101,-74,-36,191,40,11,-118,-35,-30
-131,-106,24,113,-80,-42,191,46,23,-112,-35,-30
-143,-100,42,119,-92,-30,185,46,29,-106,-35,-30
-143,-100,42,119,-92,-30,185,52,41,-100,-35,-25
-155,-94,60,119,-110,-18,191,58,47,-100,-35,-25
-161,-94,66,125,-116,-12,191,58,47,-100,-29,-25
-161,-94,66,125,-116,-12,191,58,53,-100,-29,-25
-161,-88,72,125,-116,-6,191,58,59,-100,-29,-30
-155,-88,66,119,-110,-12,191,70,71,-88,-29,-30
-143,-88,54,113,-98,-18,203,82,83,-70,-17,-19
-143,-76,66,107,-104,-6,203,94,89,-70,-17,-25
-143,-70,72,101,-110,0,197,94,95,-76,-23,-25
-155,-76,78,113,-116,0,191,94,89,-76,-23,-25
-173,-82,90,125,-134,5,191,94,95,-70,-23,-19
-179,-76,102,125,-140,10,191,106,101,-64,-17,-13
-173,-64,108,119,-140,22,197,112,106,-52,-11,-13
-161,-46,114,101,-140,34,203,118,111,-46,1,-7
-143,-16,126,77,-134,52,215,130,123,-40,13,-7
-137,-16,120,77,-128,52,221,142,129,-34,19,-7
-137,-16,120,77,-128,52,221,142,135,-34,7,-7
-155,-40,114,95,-134,34,215,142,135,-34,7,-13
-173,-64,108,119,-140,22,215,142,141,-40,1,-19
-173,-52,120,113,-146,34,215,148,147,-34,1,-13
-167,-40,126,101,-146,40,221,160,153,-22,7,-7
-167,-40,126,101,-146,40,221,172,165,-22,7,-1
-167,-40,126,101,-146,40,221,178,165,-22,1,-7
-161,-28,132,95,-146,52,221,178,165,-28,1,-7
-161,-22,138,89,-152,58,221,184,171,-22,1,-7
-161,-22,138,89,-152,58,221,190,177,-17,1,-13
-173,-28,144,101,-158,58,221,196,183,-17,1,-13
-161,-10,150,83,-158,70,221,202,189,-17,7,-7
-137,2,138,65,-140,70,233,214,201,-6,13,-1
-143,-4,138,71,-140,64,233,220,213,-6,19,-1
-149,-16,132,83,-140,58,239,232,225,6,19,5
-143,2,144,65,-146,70,245,250,237,12,25,5
-149,2,150,71,-152,76,245,256,243,12,31,5
-155,8,162,71,-158,82,251,268,255,18,31,5
-173,-4,168,89,-170,82,245,268,255,18,25,-1
-179,-4,174,89,-176,82,239,274,261,18,19,-1
-179,-4,174,89,-176,82,245,286,267,18,19,-1
-173,-4,168,89,-170,82,245,292,273,24,25,-1
-167,2,168,77,-170,82,251,298,279,24,25,-1
-161,8,168,77,-164,88,257,322,297,36,25,-1
-167,8,174,77,-170,88,269,340,315,54,31,5
-161,14,174,71,-170,94,269,358,327,66,37,5
-155,24,180,65,-164,100,275,382,351,78,37,11
-161,24,186,71,-170,106,287,400,363,90,43,23
-167,30,198,65,-182,112,293,412,375,96,49,23
-173,36,210,71,-188,124,299,430,393,108,55,35
-167,42,210,59,-188,124,311,442,411,120,61,41
-161,54,216,53,-188,136,317,460,423,126,67,53
-161,60,222,53,-188,142,323,472,435,132,67,53
-161,60,222,53,-188,142,335,484,459,138,73,47
-155,72,228,41,-188,148,347,508,477,150,73,47
-149,90,240,29,-194,166,359,538,495,168,79,47
-143,102,246,17,-194,172,365,562,513,180,85,53
-143,108,252,17,-194,178,377,586,525,192,91,59
-143,120,264,11,-200,190,383,604,537,204,103,65
-149,132,282,11,-212,208,401,616,561,216,109,71
-137,138,276,-1,-206,208,413,634,579,222,109,83
-137,144,282,-1,-206,214,413,640,603,228,115,89
-137,144,282,-1,-206,214,419,664,627,234,121,89
-143,144,288,-1,-212,214,431,694,645,252,127,89
-143,156,300,-7,-218,226,437,718,669,264,133,89
-155,144,300,5,-224,220,437,742,681,276,139,83
-149,144,294,5,-218,220,437,754,693,288,145,83
-137,162,300,-13,-218,232,443,772,711,306,151,89
-119,180,300,-29,-206,238,455,790,729,318,163,101
-113,198,312,-41,-212,256,461,802,747,336,169,113
-119,204,324,-41,-218,262,467,808,753,342,175,125
-125,204,330,-35,-224,268,473,820,765,348,175,131
-113,222,336,-53,-224,280,479,844,789,366,187,137
-119,216,336,-47,-224,274,479,856,801,372,187,131
-131,198,330,-35,-230,262,479,874,813,384,187,125
-137,198,336,-29,-236,268,485,892,825,390,193,119
-137,192,330,-24,-230,262,485,904,837,402,199,125
-131,198,330,-35,-230,262,491,916,843,414,205,131
-131,210,342,-41,-236,274,485,916,849,420,211,131
-119,216,336,-47,-224,274,485,922,855,426,217,137
-95,246,342,-77,-218,292,491,940,867,438,229,149
-95,246,342,-77,-218,292,479,946,861,444,229,143
-89,246,336,-77,-212,292,473,952,861,444,229,143
-77,252,330,-83,-200,292,467,958,873,456,229,143
-77,246,324,-83,-200,286,461,958,873,468,235,149
-71,234,306,-83,-188,268,449,958,873,474,241,149
-71,228,300,-77,-182,262,443,952,867,474,241,149
-71,228,300,-77,-182,262,425,946,861,474,241,155
-71,222,294,-77,-182,256,413,934,843,468,247,161
-77,216,294,-65,-182,256,407,928,831,462,247,155
-65,216,282,-71,-170,250,395,922,819,462,247,155
-47,222,270,-89,-158,244,383,910,801,456,247,155
-35,234,270,-101,-152,250,371,892,783,450,241,155
-29,228,258,-95,-140,244,365,874,765,444,241,155
-41,198,240,-77,-140,220,353,844,735,432,229,149
-41,186,228,-71,-134,208,341,814,711,414,229,149
-35,180,216,-71,-122,196,329,778,681,402,229,149
-41,168,210,-59,-122,190,311,742,645,390,223,143
-41,156,198,-53,-116,178,287,700,609,372,217,143
-41,144,186,-47,-110,166,263,658,573,348,211,137
-41,150,192,-53,-116,172,245,616,537,318,205,137
-41,138,180,-47,-110,160,227,574,495,294,193,125
-53,126,180,-35,-116,154,221,538,465,282,187,119
-65,114,180,-24,-122,148,215,502,423,264,175,119
-77,102,180,-13,-128,142,203,466,381,240,163,107
-71,102,174,-19,-122,136,197,424,351,222,157,107
-59,96,156,-19,-104,124,191,388,321,204,145,95
-53,84,138,-13,-92,112,185,346,291,180,133,89
-59,66,126,-7,-92,94,173,310,261,156,121,83
-47,60,108,-7,-74,82,173,280,237,132,115,83
-41,72,114,-13,-74,94,167,262,219,120,109,83
-53,60,114,-1,-80,88,161,232,195,102,91,71
-59,54,114,-1,-86,82,149,208,165,84,79,65
-65,48,114,11,-86,82,149,184,147,78,67,59
-65,42,108,11,-86,76,143,166,129,66,61,53
-77,36,114,23,-92,76,143,142,111,54,49,41
-83,19,102,29,-92,58,143,124,106,42,49,41
-77,19,96,29,-86,58,143,106,95,30,43,35
-71,2,72,29,-74,34,137,88,77,12,37,35
-71,2,72,29,-74,34,137,88,71,12,37,41
-65,2,66,29,-68,34,143,76,59,0,37,41
-47,8,54,17,-50,28,137,70,53,-12,37,47
-41,14,54,11,-50,34,131,58,41,-17,31,41
-71,-22,48,41,-62,10,119,46,17,-22,19,23
-95,-40,54,65,-74,5,113,28,5,-28,13,17
-95,-34,60,59,-80,10,119,22,5,-22,13,11
-101,-34,66,65,-86,16,119,16,-1,-22,7,11
-101,-34,66,65,-86,16,113,10,-7,-22,1,5
-101,-34,66,65,-86,16,113,-2,-19,-28,-5,-7
-101,-34,66,65,-86,16,107,-2,-25,-34,-5,-7
-101,-40,60,71,-80,10,101,-14,-25,-40,-17,-13
-101,-46,54,71,-80,5,95,-14,-31,-52,-23,-13
-95,-46,48,65,-74,0,89,-14,-31,-58,-23,-13
-89,-40,48,65,-68,5,89,-14,-31,-64,-23,-13
-83,-40,42,59,-62,0,95,-14,-37,-64,-17,-19
-89,-46,42,65,-68,0,95,-20,-43,-70,-17,-13
-83,-40,42,59,-62,0,101,-20,-43,-70,-11,-13
-83,-34,48,53,-68,5,107,-20,-43,-70,-17,-7
-83,-40,42,59,-62,0,107,-20,-43,-76,-23,-7
-71,-22,48,41,-62,10,113,-20,-43,-76,-23,-1
-71,-28,42,47,-56,5,113,-20,-43,-76,-23,5
-77,-40,36,59,-56,0,107,-26,-49,-76,-23,-1
-77,-46,30,59,-56,-6,101,-26,-55,-76,-29,-7
-83,-46,36,59,-62,-6,95,-26,-55,-76,-29,-19
-83,-34,48,53,-68,5,89,-26,-61,-76,-23,-25
-77,-28,48,53,-62,10,89,-32,-61,-82,-17,-30
-71,-22,48,41,-62,10,89,-32,-55,-64,-17,-25
-71,-28,42,47,-56,5,95,-26,-49,-64,-11,-13
-77,-28,48,53,-62,10,101,-32,-49,-64,-17,-13
-77,-28,48,53,-62,10,101,-32,-55,-70,-23,-13
-77,-28,48,53,-62,10,101,-32,-49,-76,-23,-7
-65,-22,42,41,-56,10,107,-26,-43,-70,-23,-1
-59,-16,42,35,-50,10,113,-26,-43,-64,-17,-1
-53,-16,36,35,-44,10,113,-26,-37,-52,-11,-1
-65,-22,42,41,-56,10,107,-20,-37,-52,-11,-13
-77,-28,48,53,-62,10,101,-26,-43,-52,-11,-19
-71,-16,54,41,-62,16,107,-26,-43,-52,-17,-19
-77,-16,60,47,-68,22,107,-32,-49,-58,-17,-13
-71,-16,54,41,-62,16,107,-32,-43,-64,-17,-7
-59,-4,54,29,-56,22,113,-32,-37,-64,-17,-1
-59,-16,42,35,-50,10,113,-20,-37,-64,-17,-1
-53,-4,48,29,-50,22,113,-20,-31,-58,-11,-1
-53,-4,48,29,-50,22,113,-20,-31,-52,-5,-7
-53,-10,42,29,-50,16,107,-20,-37,-58,-11,-13
-71,-22,48,41,-62,10,113,-20,-43,-58,-11,-13
-71,-4,66,35,-68,28,119,-20,-37,-58,-11,-7
-71,-4,66,35,-68,28,119,-26,-43,-64,-17,-7
-77,-10,66,41,-74,28,119,-32,-37,-70,-17,-13
-83,-22,60,47,-74,16,125,-32,-31,-70,-23,-7
-89,-22,66,53,-80,22,119,-32,-31,-70,-23,-1
-83,-16,66,47,-74,22,119,-32,-31,-70,-23,-7
-83,-16,66,47,-74,22,113,-32,-37,-70,-23,-7
-77,-10,66,41,-74,28,113,-32,-31,-64,-23,-7
-71,-10,60,35,-68,22,107,-26,-31,-58,-17,-7
-77,-10,66,41,-74,28,113,-32,-37,-58,-17,-7
-77,-10,66,41,-74,28,107,-38,-43,-64,-23,-7
-65,8,72,29,-68,40,107,-38,-37,-52,-11,-7
-53,14,66,17,-62,40,119,-32,-37,-52,1,-1
-65,-4,60,35,-62,28,119,-32,-37,-52,1,-1
-71,-16,54,41,-62,16,113,-32,-31,-52,-5,-7
-89,-22,66,53,-80,22,107,-32,-37,-64,-11,-7
-95,-22,72,53,-86,22,107,-32,-37,-70,-11,-13
-101,-16,84,59,-92,34,101,-38,-37,-70,-17,-19
-107,-28,78,65,-92,22,101,-38,-43,-76,-23,-19
-101,-22,78,59,-92,28,95,-38,-43,-70,-23,-19
-95,-10,84,47,-92,34,95,-38,-43,-70,-23,-25
-89,-10,78,47,-86,34,95,-43,-49,-70,-23,-25
-89,-10,78,47,-86,34,95,-38,-43,-70,-17,-25
-71,8,78,29,-74,40,95,-38,-43,-70,-11,-19
-65,19,84,23,-74,52,101,-38,-37,-70,-11,-19
-77,19,96,29,-86,58,101,-43,-37,-70,-17,-19
-65,19,84,23,-74,52,95,-48,-43,-76,-23,-19
-65,14,78,23,-74,46,95,-48,-49,-76,-29,-19
-59,14,72,17,-68,40,95,-48,-49,-70,-29,-13
-59,8,66,23,-62,34,95,-43,-49,-64,-29,-13
-59,8,66,23,-62,34,95,-43,-43,-58,-23,-19
-65,2,66,29,-68,34,89,-43,-49,-58,-29,-30
-65,2,66,29,-68,34,89,-43,-49,-58,-29,-30
-65,2,66,29,-68,34,89,-48,-49,-58,-29,-30
-77,-10,66,41,-74,28,83,-54,-55,-70,-35,-30
-77,-4,72,41,-74,34,77,-54,-61,-76,-40,-30
-83,-4,78,41,-80,34,77,-54,-67,-88,-45,-35
-83,2,84,35,-86,40,77,-60,-67,-82,-45,-30
-77,-4,72,41,-74,34,71,-60,-61,-82,-45,-30
-71,-10,60,35,-68,22,66,-60,-61,-82,-45,-30
-71,-4,66,35,-68,28,66,-60,-61,-88,-45,-35
-65,2,66,29,-68,34,66,-66,-67,-88,-45,-35
-65,-4,60,35,-62,28,61,-66,-67,-88,-45,-35
-71,-10,60,35,-68,22,61,-72,-67,-88,-45,-35
-77,-10,66,41,-74,28,66,-66,-61,-88,-45,-30
-77,-4,72,41,-74,34,71,-66,-61,-88,-40,-25
-77,-4,72,41,-74,34,66,-66,-67,-94,-40,-25
-77,2,78,35,-80,40,66,-66,-67,-94,-45,-25
-65,2,66,29,-68,34,71,-60,-61,-94,-45,-25
-59,2,60,23,-62,28,71,-60,-61,-94,-45,-25
-53,8,60,23,-56,34,71,-60,-61,-100,-45,-30
-59,2,60,23,-62,28,66,-66,-61,-100,-51,-35
-65,-4,60,35,-62,28,61,-72,-67,-106,-57,-35
-65,-16,48,41,-56,16,61,-72,-61,-106,-57,-35
-65,-16,48,41,-56,16,66,-72,-61,-100,-57,-35
-71,-16,54,41,-62,16,66,-72,-67,-106,-63,-41
-71,-16,54,41,-62,16,61,-78,-73,-106,-69,-35
-59,-4,54,29,-56,22,66,-78,-79,-106,-63,-30
-59,-4,54,29,-56,22,66,-78,-79,-106,-63,-35
-71,-16,54,41,-62,16,61,-78,-85,-106,-63,-41
-77,-16,60,47,-68,22,55,-84,-79,-106,-57,-41
-83,-28,54,53,-68,10,55,-78,-79,-106,-57,-35
-89,-40,48,65,-68,5,49,-78,-79,-112,-63,-41
-95,-40,54,65,-74,5,43,-84,-79,-118,-75,-47
-89,-40,48,65,-68,5,49,-84,-79,-112,-81,-53
-83,-28,54,53,-68,10,49,-84,-73,-112,-81,-47
-83,-22,60,47,-74,16,49,-84,-79,-112,-75,-53
-77,-10,66,41,-74,28,55,-84,-79,-112,-75,-53
-83,-4,78,41,-80,34,55,-84,-91,-118,-81,-59
-101,-28,72,65,-86,22,49,-90,-103,-124,-87,-65
-107,-46,60,71,-86,5,43,-90,-103,-124,-81,-53
-107,-52,54,77,-80,0,43,-96,-103,-118,-81,-53
-101,-52,48,77,-74,0,37,-96,-97,-118,-87,-53
-101,-52,48,77,-74,0,31,-102,-91,-124,-93,-59
-101,-52,48,77,-74,0,37,-96,-85,-124,-93,-59
-101,-52,48,77,-74,0,37,-96,-85,-124,-99,-65
-95,-46,48,65,-74,0,37,-96,-91,-130,-99,-65
-101,-46,54,71,-80,5,37,-96,-91,-136,-99,-71
-107,-46,60,71,-86,5,37,-96,-97,-136,-99,-77
-107,-40,66,71,-86,10,37,-96,-97,-130,-99,-71
-107,-28,78,65,-92,22,37,-102,-97,-130,-93,-71
-107,-34,72,65,-92,16,31,-108,-97,-130,-93,-77
-107,-40,66,71,-86,10,31,-108,-97,-130,-99,-77
-101,-46,54,71,-80,5,31,-108,-97,-130,-99,-77
-89,-46,42,65,-68,0,31,-120,-103,-130,-105,-71
-89,-52,36,71,-62,-6,37,-108,-97,-136,-99,-65
-95,-52,42,71,-68,-6,37,-108,-97,-136,-99,-65
-101,-52,48,77,-74,0,37,-108,-103,-136,-99,-65
-95,-40,54,65,-74,5,43,-102,-91,-130,-93,-59
-95,-28,66,59,-80,16,43,-102,-91,-124,-99,-59
-89,-22,66,53,-80,22,37,-108,-103,-136,-105,-59
-89,-22,66,53,-80,22,37,-114,-109,-142,-105,-65
-95,-34,60,59,-80,10,37,-108,-103,-142,-99,-71
-95,-46,48,65,-74,0,43,-108,-103,-142,-93,-59
-95,-52,42,71,-68,-6,43,-108,-97,-142,-93,-65
-89,-46,42,65,-68,0,43,-102,-97,-142,-87,-65
-89,-40,48,65,-68,5,43,-102,-97,-136,-87,-65
-89,-40,48,65,-68,5,49,-96,-91,-130,-87,-65
-89,-34,54,59,-74,10,49,-96,-91,-124,-87,-71
-89,-28,60,59,-74,16,49,-96,-91,-118,-93,-71
-89,-16,72,53,-80,28,43,-108,-91,-118,-99,-77
-83,-10,72,41,-80,28,43,-108,-91,-112,-105,-77
-65,2,66,29,-68,34,43,-108,-91,-112,-99,-71
-65,-4,60,35,-62,28,43,-108,-91,-112,-99,-71
-65,-10,54,35,-62,22,43,-102,-91,-112,-93,-71
-59,-10,48,29,-56,16,43,-102,-85,-112,-87,-71
-53,-10,42,29,-50,16,43,-102,-85,-112,-87,-71
-47,8,54,17,-50,28,49,-96,-85,-112,-87,-71
-47,8,54,17,-50,28,49,-96,-79,-124,-93,-71
-65,-16,48,41,-56,16,49,-102,-85,-130,-99,-77
-77,-28,48,53,-62,10,49,-102,-91,-142,-105,-77
-77,-28,48,53,-62,10,37,-102,-97,-142,-105,-83
-83,-28,54,53,-68,10,37,-108,-91,-136,-105,-77
-77,-28,48,53,-62,10,43,-108,-91,-130,-99,-65
-71,-16,54,41,-62,16,43,-108,-91,-130,-99,-65
-71,-16,54,41,-62,16,43,-108,-91,-136,-105,-65
-71,-16,54,41,-62,16,43,-114,-97,-130,-99,-65
