,,,,,,,,,,,
2019-09-04 23:50:37,,,,,,,,,,,
,,,,,,,,,,,
I,II,III,aVR,aVL,aVF,V1,V2,V3,V4,V5,V6
205,601,393,-403,-93,498,1,462,496,508,365,275
199,595,393,-391,-93,498,1,462,496,502,365,275
199,595,393,-391,-93,498,7,462,496,502,365,269
193,583,387,-385,-93,486,1,450,490,496,353,263
193,577,381,-385,-93,480,1,444,484,490,347,257
193,583,387,-385,-93,486,7,438,478,490,347,251
181,577,393,-379,-105,486,13,432,466,478,341,245
175,571,393,-367,-105,486,13,420,460,472,329,239
169,565,393,-367,-111,480,13,414,448,466,323,233
163,559,393,-355,-111,480,19,402,436,454,311,227
157,547,387,-349,-111,468,19,390,424,442,299,221
157,541,381,-349,-111,462,19,378,412,430,293,209
151,529,375,-337,-111,456,19,360,400,412,287,203
145,511,363,-325,-105,438,19,342,382,394,269,191
133,499,363,-313,-111,432,19,324,358,370,251,179
127,487,357,-301,-111,426,13,306,334,352,227,167
121,481,357,-301,-117,420,13,288,316,328,209,155
115,469,351,-289,-117,414,13,276,298,310,191,143
103,445,339,-271,-117,396,7,258,280,292,173,131
91,421,327,-253,-117,378,7,240,262,274,155,113
85,403,315,-241,-111,360,1,228,244,256,137,101
79,385,303,-229,-111,348,1,210,226,232,119,89
79,373,291,-223,-105,336,-5,192,202,214,101,83
73,361,285,-217,-105,324,-5,180,190,190,83,71
73,355,279,-211,-99,318,-5,156,166,172,65,59
67,343,273,-199,-99,312,-10,138,148,148,42,41
43,319,273,-175,-111,300,-10,114,124,124,31,23
31,301,267,-163,-117,288,-15,96,100,106,13,5
25,283,255,-151,-111,270,-21,78,76,94,1,-7
31,277,243,-151,-105,264,-27,66,64,82,-11,-13
31,271,237,-145,-99,258,-27,60,52,76,-17,-19
25,253,225,-139,-99,240,-33,42,40,64,-35,-37
19,223,201,-115,-87,216,-39,30,28,46,-53,-42
19,205,183,-109,-81,198,-45,18,16,36,-65,-53
19,199,177,-103,-75,192,-51,6,4,18,-77,-59
14,181,165,-97,-75,174,-57,0,-8,0,-95,-65
14,175,159,-91,-69,168,-51,-12,-20,-12,-107,-71
9,169,159,-91,-75,162,-57,-24,-32,-24,-119,-77
3,163,159,-79,-75,162,-51,-30,-38,-30,-125,-77
3,151,147,-73,-69,150,-51,-35,-43,-36,-137,-83
-3,139,141,-67,-69,138,-45,-40,-43,-42,-143,-89
-3,127,129,-61,-63,126,-45,-46,-54,-48,-149,-95
-3,121,123,-61,-63,120,-45,-52,-60,-48,-155,-101
-3,115,117,-55,-57,114,-51,-58,-66,-54,-155,-107
-3,109,111,-55,-57,108,-51,-58,-72,-60,-161,-107
-3,103,105,-49,-51,102,-57,-64,-78,-66,-167,-113
-3,103,105,-49,-51,102,-57,-64,-78,-66,-167,-107
-3,97,99,-49,-51,96,-51,-64,-84,-72,-167,-107
-15,85,99,-37,-57,90,-51,-70,-84,-72,-173,-113
-15,79,93,-31,-51,84,-57,-76,-84,-78,-173,-113
-15,79,93,-31,-51,84,-57,-76,-90,-78,-173,-113
-15,73,87,-31,-51,78,-57,-82,-90,-84,-173,-107
-9,67,75,-25,-39,72,-57,-82,-90,-84,-173,-107
-9,67,75,-25,-39,72,-57,-82,-90,-84,-167,-107
-9,61,69,-25,-39,66,-57,-88,-90,-84,-161,-107
-9,61,69,-25,-39,66,-63,-88,-90,-84,-155,-101
-15,55,69,-19,-39,60,-63,-88,-96,-78,-155,-101
-9,55,63,-19,-33,60,-69,-94,-96,-78,-161,-113
-9,55,63,-19,-33,60,-75,-94,-96,-78,-161,-113
-3,55,57,-25,-27,54,-75,-94,-90,-78,-161,-113
-9,55,63,-19,-33,60,-75,-94,-90,-78,-161,-113
-9,49,57,-19,-33,54,-75,-88,-90,-84,-155,-113
-3,49,51,-25,-27,48,-69,-88,-90,-84,-149,-107
3,49,45,-25,-21,48,-63,-82,-90,-78,-143,-101
3,49,45,-25,-21,48,-63,-88,-90,-78,-143,-101
3,43,39,-19,-15,42,-57,-88,-90,-72,-137,-95
-3,37,39,-19,-21,36,-57,-88,-90,-66,-137,-95
-15,31,45,-7,-27,36,-57,-88,-84,-66,-137,-95
-21,31,51,-2,-33,42,-57,-88,-84,-66,-143,-89
-15,31,45,-7,-27,36,-51,-82,-78,-66,-137,-89
-15,31,45,-7,-27,36,-51,-76,-78,-66,-137,-89
-9,31,39,-7,-21,36,-51,-64,-78,-60,-137,-83
-9,19,27,-2,-15,24,-51,-64,-78,-66,-131,-83
-9,19,27,-2,-15,24,-51,-64,-78,-66,-131,-83
-3,13,15,-7,-9,12,-51,-64,-84,-66,-131,-83
-3,13,15,-7,-9,12,-51,-70,-78,-60,-131,-83
-3,13,15,-7,-9,12,-51,-70,-78,-60,-131,-77
-3,7,9,-2,-3,6,-51,-70,-78,-60,-125,-77
-15,-5,9,9,-9,0,-57,-70,-84,-60,-131,-77
-21,-5,15,15,-15,6,-57,-70,-90,-60,-131,-77
-15,7,21,3,-15,12,-57,-70,-84,-60,-125,-77
-9,13,21,-2,-15,18,-51,-64,-78,-54,-119,-71
-9,7,15,3,-9,12,-51,-64,-78,-54,-119,-71
-15,-5,9,9,-9,0,-57,-64,-84,-54,-125,-71
-15,-10,3,9,-9,-6,-51,-64,-84,-54,-125,-65
-3,-10,-9,3,3,-12,-45,-52,-78,-48,-113,-53
3,-5,-9,3,9,-6,-45,-52,-78,-42,-113,-53
9,-5,-15,-2,15,-12,-45,-52,-78,-42,-113,-47
3,-10,-15,3,9,-12,-51,-52,-78,-48,-113,-47
-3,-10,-9,3,3,-12,-51,-58,-78,-54,-113,-47
-3,-10,-9,3,3,-12,-51,-64,-84,-60,-119,-47
-9,-10,-3,9,-3,-6,-51,-64,-84,-60,-119,-47
-9,-10,-3,9,-3,-6,-51,-70,-90,-60,-119,-53
-3,-5,-3,3,3,-6,-51,-70,-78,-60,-119,-53
-3,-10,-9,3,3,-12,-51,-70,-84,-60,-119,-47
-3,-15,-15,3,3,-17,-57,-70,-84,-66,-119,-53
-9,-21,-15,15,3,-17,-57,-70,-90,-66,-119,-53
-3,-21,-21,9,9,-22,-57,-64,-90,-60,-119,-53
-3,-21,-21,9,9,-22,-57,-64,-90,-60,-119,-47
-9,-27,-21,15,3,-22,-63,-64,-90,-66,-125,-53
-9,-27,-21,15,3,-22,-57,-70,-96,-66,-119,-53
-9,-27,-21,15,3,-22,-57,-70,-96,-66,-119,-53
-9,-33,-26,21,9,-28,-57,-76,-96,-66,-125,-53
-15,-33,-21,21,3,-28,-57,-76,-96,-66,-125,-47
-15,-33,-21,21,3,-28,-57,-70,-96,-72,-131,-53
-9,-33,-26,21,9,-28,-57,-70,-96,-72,-131,-53
-3,-33,-31,15,15,-34,-57,-76,-102,-72,-131,-53
-3,-39,-37,15,15,-40,-57,-82,-108,-78,-131,-59
-3,-39,-37,15,15,-40,-51,-88,-108,-72,-131,-65
-3,-45,-43,21,20,-46,-51,-82,-108,-72,-125,-65
-3,-45,-43,21,20,-46,-51,-82,-114,-72,-131,-71
-3,-45,-43,21,20,-46,-45,-82,-120,-72,-131,-77
-3,-45,-43,21,20,-46,-45,-82,-120,-72,-131,-77
-9,-51,-43,27,15,-46,-51,-82,-120,-78,-137,-77
-9,-51,-43,27,15,-46,-51,-82,-120,-78,-137,-71
-9,-57,-49,33,20,-52,-57,-88,-120,-84,-143,-71
-21,-63,-43,39,9,-52,-57,-94,-120,-90,-143,-65
-15,-57,-43,33,15,-52,-57,-94,-114,-90,-137,-59
-15,-57,-43,33,15,-52,-57,-94,-114,-90,-137,-59
-15,-57,-43,33,15,-52,-63,-94,-120,-96,-137,-59
-21,-63,-43,39,9,-52,-63,-94,-126,-102,-143,-59
-15,-69,-55,39,20,-64,-69,-100,-126,-102,-143,-59
-15,-69,-55,39,20,-64,-69,-100,-132,-102,-137,-59
-15,-75,-61,39,20,-70,-69,-100,-132,-102,-143,-59
-15,-75,-61,39,20,-70,-75,-106,-132,-102,-143,-53
-15,-69,-55,39,20,-64,-69,-100,-132,-102,-137,-47
-15,-69,-55,39,20,-64,-69,-106,-132,-102,-137,-47
-15,-69,-55,39,20,-64,-69,-112,-138,-108,-143,-53
-15,-69,-55,39,20,-64,-69,-112,-144,-102,-143,-47
-9,-69,-61,39,25,-64,-63,-112,-144,-102,-137,-47
-9,-75,-67,39,25,-70,-63,-118,-150,-102,-137,-47
-9,-81,-73,45,31,-76,-69,-130,-156,-108,-143,-53
-15,-87,-73,45,25,-82,-75,-130,-162,-114,-143,-59
-21,-99,-79,57,25,-88,-75,-136,-162,-114,-131,-65
-15,-93,-79,51,31,-88,-69,-136,-156,-114,-131,-65
-15,-93,-79,51,31,-88,-75,-136,-156,-120,-131,-59
-21,-99,-79,57,25,-88,-75,-142,-162,-126,-131,-65
-27,-99,-73,57,20,-88,-75,-142,-162,-132,-131,-59
-27,-99,-73,57,20,-88,-75,-136,-162,-126,-131,-53
-21,-93,-73,57,25,-82,-69,-136,-162,-126,-125,-53
-21,-87,-67,51,20,-76,-69,-142,-162,-126,-119,-53
-21,-93,-73,57,25,-82,-63,-142,-168,-126,-119,-53
-15,-99,-85,51,31,-94,-63,-148,-168,-126,-113,-53
-9,-99,-91,51,37,-94,-63,-154,-168,-126,-113,-53
-9,-99,-91,51,37,-94,-63,-154,-168,-126,-113,-47
-3,-99,-97,45,43,-100,-63,-154,-162,-126,-113,-47
-9,-99,-91,51,37,-94,-63,-148,-156,-132,-113,-47
-15,-99,-85,51,31,-94,-57,-154,-162,-138,-119,-53
-15,-93,-79,51,31,-88,-57,-148,-162,-132,-113,-47
-15,-93,-79,51,31,-88,-51,-148,-162,-132,-113,-53
-21,-99,-79,57,25,-88,-57,-154,-168,-138,-119,-59
-33,-105,-73,69,20,-88,-57,-154,-168,-144,-113,-59
-33,-111,-79,69,20,-94,-57,-154,-168,-144,-113,-59
-27,-111,-85,63,25,-100,-57,-154,-174,-144,-119,-59
-27,-105,-79,63,25,-94,-57,-160,-180,-144,-119,-59
-27,-111,-85,63,25,-100,-57,-160,-180,-144,-119,-59
-27,-111,-85,63,25,-100,-57,-160,-180,-144,-119,-59
-21,-111,-91,63,31,-100,-57,-160,-186,-144,-119,-59
-15,-105,-91,57,37,-100,-57,-160,-186,-144,-119,-59
-9,-99,-91,51,37,-94,-57,-160,-186,-144,-107,-59
-9,-99,-91,51,37,-94,-57,-166,-186,-144,-107,-59
-21,-99,-79,57,25,-88,-57,-160,-186,-144,-107,-59
-33,-105,-73,69,20,-88,-57,-160,-186,-150,-107,-65
-33,-111,-79,69,20,-94,-51,-166,-180,-150,-107,-65
-33,-105,-73,69,20,-88,-45,-166,-180,-150,-107,-65
-27,-111,-85,63,25,-100,-45,-166,-186,-150,-107,-71
-27,-111,-85,63,25,-100,-45,-172,-186,-150,-107,-71
-21,-111,-91,63,31,-100,-45,-172,-186,-150,-107,-71
-15,-111,-97,57,37,-106,-45,-178,-186,-150,-95,-71
-21,-111,-91,63,31,-100,-51,-178,-186,-150,-95,-71
-27,-117,-91,69,31,-106,-51,-172,-192,-150,-95,-71
-27,-117,-91,69,31,-106,-57,-172,-186,-150,-89,-71
-21,-111,-91,63,31,-100,-57,-172,-186,-150,-89,-71
-21,-99,-79,57,25,-88,-57,-172,-186,-156,-89,-65
-15,-99,-85,51,31,-94,-51,-172,-186,-156,-89,-65
-21,-99,-79,57,25,-88,-51,-166,-180,-156,-83,-65
-15,-99,-85,51,31,-94,-45,-166,-180,-156,-83,-65
-21,-105,-85,63,31,-94,-45,-166,-186,-162,-83,-65
-27,-111,-85,63,25,-100,-45,-166,-192,-162,-83,-65
-33,-123,-91,75,25,-106,-51,-166,-192,-162,-83,-71
-39,-129,-91,81,25,-112,-57,-166,-198,-162,-89,-71
-45,-129,-85,87,20,-106,-51,-160,-198,-162,-89,-71
-33,-123,-91,75,25,-106,-51,-160,-192,-162,-89,-65
-33,-117,-85,75,25,-100,-51,-166,-192,-156,-89,-65
-33,-117,-85,75,25,-100,-51,-172,-186,-156,-95,-65
-39,-117,-79,75,20,-100,-51,-166,-186,-156,-95,-65
-39,-117,-79,75,20,-100,-51,-172,-186,-162,-95,-65
-39,-123,-85,75,20,-106,-45,-172,-186,-162,-95,-65
-33,-123,-91,75,25,-106,-45,-172,-186,-162,-95,-65
-27,-117,-91,69,31,-106,-39,-172,-186,-162,-95,-65
-21,-111,-91,63,31,-100,-39,-166,-192,-156,-95,-59
-21,-117,-97,69,37,-106,-39,-166,-192,-156,-101,-59
-27,-129,-103,75,37,-118,-39,-166,-198,-156,-101,-59
-33,-135,-103,81,31,-118,-39,-166,-192,-156,-101,-59
-39,-129,-91,81,25,-112,-33,-166,-192,-162,-101,-65
-33,-117,-85,75,25,-100,-27,-166,-186,-156,-95,-65
-27,-117,-91,69,31,-106,-27,-166,-186,-156,-95,-65
-33,-111,-79,69,20,-94,-33,-166,-186,-156,-89,-65
-33,-105,-73,69,20,-88,-33,-166,-186,-156,-89,-65
-27,-105,-79,63,25,-94,-39,-166,-192,-162,-89,-71
-33,-105,-73,69,20,-88,-33,-166,-192,-162,-89,-71
-33,-111,-79,69,20,-94,-33,-166,-198,-162,-89,-77
-33,-117,-85,75,25,-100,-27,-166,-198,-162,-83,-83
-21,-117,-97,69,37,-106,-27,-160,-192,-162,-83,-77
-21,-111,-91,63,31,-100,-27,-160,-186,-162,-77,-77
-27,-117,-91,69,31,-106,-27,-166,-186,-162,-77,-71
-27,-117,-91,69,31,-106,-33,-166,-186,-162,-83,-77
-27,-111,-85,63,25,-100,-33,-172,-186,-156,-89,-77
-33,-117,-85,75,25,-100,-33,-172,-192,-162,-89,-83
-33,-117,-85,75,25,-100,-33,-178,-192,-162,-89,-83
-33,-117,-85,75,25,-100,-33,-172,-192,-168,-89,-89
-27,-123,-97,69,31,-112,-33,-172,-192,-168,-95,-89
-27,-129,-103,75,37,-118,-33,-172,-192,-168,-101,-89
-27,-129,-103,75,37,-118,-33,-172,-192,-162,-95,-89
-33,-129,-97,81,31,-112,-33,-172,-192,-162,-95,-89
-33,-123,-91,75,25,-106,-39,-172,-192,-162,-95,-89
-33,-123,-91,75,25,-106,-39,-172,-198,-168,-101,-95
-27,-117,-91,69,31,-106,-39,-172,-192,-162,-95,-89
-33,-117,-85,75,25,-100,-39,-172,-192,-162,-101,-95
-39,-123,-85,75,20,-106,-33,-172,-192,-162,-95,-95
-39,-117,-79,75,20,-100,-33,-172,-192,-162,-95,-95
-33,-117,-85,75,25,-100,-33,-172,-192,-162,-89,-95
-39,-123,-85,75,20,-106,-33,-172,-192,-162,-89,-95
-39,-123,-85,75,20,-106,-33,-172,-186,-156,-83,-95
-39,-129,-91,81,25,-112,-39,-178,-192,-156,-83,-95
-39,-129,-91,81,25,-112,-45,-172,-192,-162,-89,-101
-39,-129,-91,81,25,-112,-45,-172,-192,-156,-89,-101
-33,-123,-91,75,25,-106,-45,-172,-198,-156,-89,-101
-33,-123,-91,75,25,-106,-39,-172,-198,-156,-89,-107
-33,-123,-91,75,25,-106,-33,-172,-204,-150,-89,-107
-39,-129,-91,81,25,-112,-33,-178,-204,-156,-95,-107
-39,-123,-85,75,20,-106,-27,-178,-204,-156,-95,-101
-39,-129,-91,81,25,-112,-27,-178,-204,-162,-89,-101
-39,-129,-91,81,25,-112,-27,-184,-204,-156,-89,-101
-39,-129,-91,81,25,-112,-27,-184,-198,-150,-89,-95
-33,-129,-97,81,31,-112,-33,-178,-198,-150,-89,-95
-21,-123,-103,69,37,-112,-33,-178,-198,-150,-83,-89
-15,-117,-103,63,43,-112,-33,-184,-198,-150,-83,-89
-9,-117,-109,63,49,-112,-33,-184,-198,-144,-83,-95
-9,-117,-109,63,49,-112,-39,-184,-204,-150,-83,-101
-9,-117,-109,63,49,-112,-39,-184,-198,-150,-83,-95
-15,-117,-103,63,43,-112,-33,-184,-198,-150,-77,-95
-15,-123,-109,63,43,-118,-39,-178,-198,-150,-77,-95
-15,-123,-109,63,43,-118,-33,-178,-198,-150,-83,-89
-9,-123,-115,63,49,-118,-39,-178,-192,-150,-83,-89
-15,-123,-109,63,43,-118,-39,-178,-192,-150,-83,-95
-21,-135,-115,75,43,-124,-39,-184,-198,-150,-89,-95
-21,-135,-115,75,43,-124,-39,-184,-198,-150,-89,-101
-27,-135,-109,75,37,-124,-33,-184,-204,-150,-89,-101
-27,-135,-109,75,37,-124,-33,-184,-204,-150,-95,-101
-27,-135,-109,75,37,-124,-33,-184,-204,-150,-95,-101
-21,-129,-109,75,43,-118,-33,-184,-198,-144,-89,-95
-21,-129,-109,75,43,-118,-33,-184,-198,-150,-89,-95
-15,-135,-121,69,49,-130,-39,-184,-198,-156,-95,-89
-3,-129,-127,63,61,-130,-39,-178,-198,-162,-95,-89
3,-117,-121,57,61,-118,-39,-172,-192,-156,-89,-83
9,-105,-115,45,61,-112,-33,-166,-186,-150,-89,-83
9,-93,-103,39,55,-100,-21,-160,-174,-144,-83,-77
19,-69,-91,27,55,-76,-15,-154,-168,-138,-77,-71
14,-81,-97,33,55,-88,-15,-148,-162,-138,-77,-77
9,-87,-97,33,49,-94,-10,-142,-162,-126,-71,-77
3,-81,-85,39,43,-82,-10,-136,-150,-120,-65,-71
3,-75,-79,33,37,-76,-10,-124,-150,-114,-65,-65
9,-63,-73,21,37,-70,1,-118,-138,-102,-53,-59
9,-57,-67,21,37,-64,7,-118,-132,-90,-53,-47
14,-51,-67,15,37,-58,13,-112,-126,-84,-47,-47
25,-51,-79,9,49,-64,19,-100,-120,-84,-41,-47
25,-57,-85,15,55,-70,13,-106,-120,-84,-47,-47
31,-63,-97,15,61,-76,7,-112,-120,-90,-47,-47
43,-57,-103,9,73,-76,1,-112,-120,-90,-41,-47
49,-51,-103,-2,73,-76,-10,-118,-120,-90,-41,-47
49,-51,-103,-2,73,-76,-15,-130,-120,-90,-41,-53
55,-45,-103,-2,79,-70,-21,-130,-126,-90,-41,-53
55,-45,-103,-2,79,-70,-33,-130,-126,-90,-41,-53
55,-45,-103,-2,79,-70,-39,-130,-132,-90,-47,-53
61,-51,-115,-7,85,-82,-45,-130,-132,-90,-47,-47
61,-45,-109,-7,85,-76,-45,-130,-132,-90,-47,-42
61,-45,-109,-7,85,-76,-45,-136,-138,-90,-47,-37
55,-51,-109,-2,79,-76,-51,-142,-144,-96,-53,-37
49,-51,-103,-2,73,-76,-57,-148,-138,-96,-41,-37
49,-45,-97,-2,73,-70,-51,-148,-138,-96,-41,-42
43,-45,-91,3,67,-64,-51,-148,-132,-96,-41,-42
37,-57,-97,9,67,-76,-45,-154,-138,-96,-41,-42
31,-69,-103,21,67,-82,-45,-154,-144,-102,-53,-47
25,-81,-109,27,67,-94,-39,-160,-156,-108,-59,-47
25,-93,-121,33,73,-106,-39,-166,-162,-120,-65,-53
19,-93,-115,39,67,-100,-39,-166,-174,-120,-71,-59
19,-87,-109,33,61,-94,-39,-172,-180,-126,-71,-59
14,-93,-109,39,61,-100,-45,-172,-180,-126,-71,-65
9,-105,-115,45,61,-112,-51,-178,-186,-138,-83,-71
9,-105,-115,45,61,-112,-57,-184,-186,-144,-83,-71
3,-117,-121,57,61,-118,-63,-190,-198,-156,-89,-77
3,-123,-127,57,61,-124,-69,-196,-198,-156,-95,-77
3,-129,-133,63,67,-130,-69,-196,-198,-150,-95,-77
3,-129,-133,63,67,-130,-69,-196,-198,-150,-89,-77
3,-129,-133,63,67,-130,-63,-196,-198,-144,-89,-77
3,-129,-133,63,67,-130,-57,-196,-198,-144,-95,-83
-3,-129,-127,63,61,-130,-57,-202,-198,-144,-89,-83
-3,-129,-127,63,61,-130,-57,-202,-204,-150,-89,-89
-9,-129,-121,69,55,-124,-57,-202,-204,-150,-89,-95
-9,-123,-115,63,49,-118,-51,-202,-204,-156,-95,-101
-21,-129,-109,75,43,-118,-51,-208,-210,-156,-101,-101
-27,-135,-109,75,37,-124,-51,-208,-210,-162,-107,-107
-27,-141,-115,81,43,-130,-51,-208,-216,-162,-113,-113
-33,-153,-121,93,43,-136,-51,-214,-222,-168,-119,-113
-45,-171,-127,105,37,-148,-51,-220,-228,-180,-125,-113
-51,-177,-127,111,37,-154,-45,-226,-228,-186,-131,-107
-57,-183,-127,117,31,-154,-45,-226,-228,-186,-125,-107
-63,-189,-127,123,31,-160,-45,-232,-234,-186,-125,-107
-57,-183,-127,117,31,-154,-45,-226,-240,-186,-119,-107
-57,-171,-115,111,25,-142,-51,-226,-240,-186,-113,-107
-51,-159,-109,99,25,-136,-51,-226,-234,-186,-113,-107
-39,-147,-109,87,31,-130,-51,-220,-234,-186,-113,-107
-39,-147,-109,87,31,-130,-51,-220,-234,-186,-113,-107
-39,-153,-115,93,37,-136,-51,-214,-228,-180,-107,-107
-39,-153,-115,93,37,-136,-51,-214,-222,-174,-107,-101
-33,-147,-115,87,37,-130,-39,-208,-216,-168,-95,-95
-33,-141,-109,87,37,-124,-39,-202,-210,-162,-83,-89
-45,-147,-103,93,25,-124,-39,-202,-210,-156,-83,-89
-51,-141,-91,93,20,-118,-39,-196,-198,-156,-77,-83
-51,-135,-85,87,15,-112,-33,-190,-192,-150,-71,-83
-51,-135,-85,87,15,-112,-33,-184,-186,-144,-71,-77
-45,-129,-85,87,20,-106,-27,-172,-180,-138,-65,-77
-39,-117,-79,75,20,-100,-21,-160,-168,-126,-53,-71
-39,-111,-73,69,15,-94,-10,-142,-156,-114,-47,-71
-45,-111,-67,75,9,-88,-10,-130,-150,-102,-41,-65
-63,-111,-49,81,-9,-82,1,-118,-126,-90,-29,-65
-75,-111,-37,87,-21,-76,13,-100,-108,-78,-17,-65
-75,-105,-31,87,-21,-70,31,-82,-90,-60,-5,-65
-81,-105,-26,93,-27,-64,49,-64,-72,-54,1,-65
-93,-99,-9,93,-45,-52,67,-46,-54,-42,7,-65
-93,-93,-3,93,-45,-46,85,-18,-38,-30,13,-65
-93,-87,3,87,-51,-40,103,6,-20,-24,19,-65
-99,-81,15,87,-57,-34,127,36,4,-6,19,-65
-111,-81,27,93,-69,-28,151,66,28,6,25,-71
-117,-87,27,99,-75,-28,181,108,58,24,37,-77
-123,-93,27,105,-75,-34,217,156,94,41,42,-89
-135,-93,39,111,-87,-28,259,204,142,64,47,-95
-153,-81,69,117,-111,-6,307,264,190,88,59,-101
-159,-69,87,111,-123,6,361,336,262,136,83,-95
-153,-51,99,99,-129,24,415,414,346,208,131,-83
-141,-27,111,81,-129,42,469,516,442,286,179,-65
-129,-5,123,69,-123,60,523,648,556,388,245,-47
-117,19,135,51,-123,78,595,804,694,502,323,-25
-99,61,159,15,-129,108,673,978,844,628,407,11
-69,91,159,-7,-111,126,739,1152,988,754,503,59
-15,133,147,-61,-81,138,805,1332,1144,886,605,119
37,163,123,-97,-39,144,865,1512,1300,1036,719,191
103,199,93,-145,9,150,907,1668,1450,1180,845,269
175,235,57,-199,61,150,907,1776,1588,1330,965,353
241,271,27,-253,109,150,889,1824,1696,1462,1079,431
301,313,9,-307,145,162,859,1848,1786,1582,1181,503
367,349,-21,-355,193,168,817,1848,1864,1678,1265,563
427,379,-49,-397,241,168,757,1824,1906,1744,1331,617
457,391,-67,-421,265,162,697,1728,1900,1762,1355,647
457,367,-91,-409,277,138,631,1560,1810,1702,1319,635
439,307,-133,-367,289,90,571,1338,1630,1528,1199,581
385,241,-145,-313,265,48,517,1086,1414,1294,1031,497
283,175,-109,-223,199,36,475,828,1198,1066,857,407
175,121,-55,-145,115,36,451,606,994,850,677,311
49,55,3,-49,25,30,409,396,790,634,497,203
-75,-21,51,45,-63,12,349,192,562,430,323,83
-183,-81,99,129,-141,6,277,0,352,250,173,-25
-249,-117,129,183,-189,6,187,-166,172,118,59,-101
-291,-135,153,207,-225,6,97,-310,16,24,-17,-155
-321,-153,165,237,-243,6,7,-442,-114,-54,-77,-191
-315,-153,159,231,-237,0,-87,-562,-216,-102,-107,-191
-303,-153,147,225,-225,-6,-165,-646,-288,-144,-125,-185
-279,-153,123,213,-201,-17,-225,-706,-342,-186,-149,-185
-255,-171,81,207,-171,-46,-261,-748,-390,-228,-179,-185
-237,-189,45,213,-141,-70,-279,-754,-426,-276,-209,-191
-219,-195,21,201,-123,-88,-279,-724,-444,-306,-221,-197
-195,-201,-9,195,-93,-106,-273,-670,-456,-324,-227,-191
-177,-195,-21,183,-81,-106,-255,-598,-450,-330,-227,-191
-153,-183,-31,165,-63,-106,-231,-526,-438,-318,-215,-185
-117,-165,-49,141,-33,-106,-213,-454,-414,-306,-197,-173
-87,-153,-67,117,-9,-112,-189,-400,-378,-282,-179,-155
-63,-141,-79,99,9,-112,-171,-352,-342,-258,-161,-143
-45,-129,-85,87,20,-106,-141,-328,-306,-234,-143,-125
-27,-117,-91,69,31,-106,-117,-298,-264,-216,-125,-113
-27,-99,-73,57,20,-88,-93,-268,-228,-192,-107,-101
-21,-81,-61,51,20,-70,-63,-226,-204,-174,-95,-89
-15,-69,-55,39,20,-64,-39,-196,-186,-156,-83,-77
-15,-69,-55,39,20,-64,-33,-166,-180,-150,-77,-77
-27,-69,-43,45,9,-58,-27,-148,-180,-144,-65,-71
-21,-63,-43,39,9,-52,-27,-130,-168,-132,-53,-71
-9,-51,-43,27,15,-46,-27,-124,-162,-120,-47,-59
-9,-39,-31,21,9,-34,-27,-124,-150,-120,-47,-59
-9,-33,-26,21,9,-28,-27,-130,-138,-114,-41,-53
-3,-27,-26,9,9,-28,-27,-130,-132,-114,-41,-53
-9,-27,-21,15,3,-22,-27,-136,-132,-114,-41,-47
-3,-27,-26,9,9,-28,-27,-136,-132,-114,-41,-47
-3,-21,-21,9,9,-22,-21,-136,-132,-114,-41,-47
-3,-21,-21,9,9,-22,-21,-130,-132,-108,-35,-42
-3,-10,-9,3,3,-12,-27,-124,-126,-102,-29,-42
3,-10,-15,3,9,-12,-27,-124,-126,-96,-29,-37
-3,-15,-15,3,3,-17,-33,-124,-126,-102,-29,-37
-3,-10,-9,3,3,-12,-39,-124,-120,-102,-35,-37
-3,-10,-9,3,3,-12,-39,-124,-120,-102,-35,-42
-15,-10,3,9,-9,-6,-39,-118,-114,-96,-35,-42
-9,-10,-3,9,-3,-6,-39,-112,-114,-90,-35,-42
-3,1,3,-2,-3,0,-33,-112,-108,-90,-29,-42
-3,7,9,-2,-3,6,-27,-106,-108,-84,-29,-42
-3,1,3,-2,-3,0,-33,-112,-108,-90,-29,-42
-3,-5,-3,3,3,-6,-33,-112,-114,-90,-23,-42
3,1,-3,-2,3,0,-33,-106,-108,-84,-17,-47
14,7,-9,-7,15,0,-39,-106,-108,-84,-17,-42
14,13,-3,-13,9,6,-39,-100,-96,-78,-17,-42
19,19,-3,-13,15,12,-39,-100,-96,-78,-17,-42
14,19,3,-13,9,12,-39,-100,-96,-78,-23,-42
14,13,-3,-13,9,6,-39,-100,-96,-78,-23,-42
14,13,-3,-13,9,6,-39,-100,-90,-72,-23,-42
19,25,3,-19,9,18,-33,-88,-78,-60,-11,-42
25,31,3,-25,15,18,-27,-82,-78,-60,-5,-42
19,31,9,-19,9,24,-33,-82,-78,-60,-5,-42
14,25,9,-19,3,18,-27,-76,-72,-54,1,-37
9,13,3,-13,3,6,-27,-64,-72,-54,1,-37
9,13,3,-13,3,6,-27,-58,-66,-48,1,-31
19,19,-3,-13,15,12,-27,-46,-60,-42,7,-25
31,31,-3,-25,20,18,-27,-46,-54,-36,7,-19
37,37,-3,-37,20,18,-33,-40,-54,-30,7,-19
43,43,-3,-37,25,24,-27,-40,-48,-30,7,-19
43,49,3,-43,20,30,-27,-35,-48,-24,7,-13
37,49,9,-43,15,30,-27,-35,-43,-24,19,-19
31,49,15,-37,9,36,-27,-35,-43,-24,25,-19
31,55,21,-37,9,42,-27,-30,-38,-18,31,-19
37,61,21,-49,9,42,-21,-18,-32,-12,37,-19
49,73,21,-61,15,48,-21,-12,-20,-6,37,-7
43,67,21,-49,15,48,-27,-12,-20,-6,37,-7
49,61,9,-55,20,36,-33,-12,-20,-6,37,-1
55,67,9,-55,25,42,-33,-6,-14,12,37,-1
61,79,15,-67,25,48,-33,0,-8,18,42,11
61,79,15,-67,25,48,-33,12,-2,24,53,17
55,85,27,-67,15,60,-33,18,-2,24,53,17
61,85,21,-73,20,54,-33,18,4,24,59,11
67,91,21,-73,25,60,-33,24,10,30,65,17
73,97,21,-85,25,60,-33,30,22,41,71,23
79,103,21,-85,31,66,-33,36,28,46,71,29
73,109,33,-91,20,72,-33,48,40,52,77,35
73,109,33,-91,20,72,-33,54,40,58,77,35
79,115,33,-91,25,78,-39,60,46,58,77,41
79,121,39,-97,20,84,-39,66,52,58,83,41
79,127,45,-97,20,90,-39,72,58,64,83,47
85,139,51,-109,20,96,-39,84,64,70,95,53
85,151,63,-115,15,108,-39,84,70,82,107,53
91,157,63,-121,15,114,-39,96,88,94,113,59
97,169,69,-133,15,120,-39,108,100,100,125,71
103,175,69,-133,20,126,-39,114,112,106,131,77
115,181,63,-145,25,126,-39,132,118,118,137,89
115,181,63,-145,25,126,-39,144,124,118,143,89
121,193,69,-157,25,132,-33,156,136,130,149,95
127,205,75,-163,25,144,-33,168,148,142,161,107
127,223,93,-169,20,162,-27,174,154,154,167,107
133,235,99,-181,20,168,-27,186,166,172,185,119
139,241,99,-187,20,174,-27,198,178,184,197,125
145,247,99,-193,25,174,-27,210,196,196,209,137
151,253,99,-199,25,180,-21,222,208,208,221,149
157,265,105,-211,25,186,-21,240,220,220,227,155
163,271,105,-211,31,192,-21,258,232,232,239,161
169,277,105,-223,31,192,-21,270,244,244,245,167
175,289,111,-229,31,204,-21,282,256,256,251,167
187,295,105,-235,43,204,-21,300,268,274,263,173
193,307,111,-247,43,210,-15,312,286,286,275,185
193,319,123,-253,37,222,-10,324,298,304,293,197
205,331,123,-265,43,228,-10,342,322,322,311,203
199,343,141,-265,31,246,-10,354,334,328,323,209
205,349,141,-277,31,246,-10,372,346,340,335,215
217,367,147,-289,37,258,-5,390,358,352,347,221
217,367,147,-289,37,258,-5,402,364,364,353,221
223,379,153,-295,37,270,-5,414,376,382,365,227
229,391,159,-307,37,276,1,426,388,388,371,233
235,397,159,-313,37,282,7,438,400,400,383,239
241,409,165,-325,37,288,13,450,412,418,395,245
241,421,177,-331,31,300,19,468,424,430,413,245
247,427,177,-331,37,306,19,474,430,442,425,245
253,439,183,-343,37,312,19,480,448,448,431,251
253,451,195,-349,31,324,25,492,460,454,437,257
253,463,207,-355,25,336,25,498,472,466,443,263
247,469,219,-355,15,348,25,504,472,466,449,269
241,469,225,-355,9,348,31,510,478,472,449,269
241,469,225,-355,9,348,37,516,478,478,455,275
241,469,225,-355,9,348,43,522,484,484,455,281
235,469,231,-349,3,354,49,528,490,490,455,281
229,463,231,-343,3,348,49,528,490,490,455,281
235,463,225,-343,9,348,49,528,490,490,455,275
235,469,231,-349,3,354,55,540,496,496,455,275
229,469,237,-349,-3,354,61,540,502,502,455,275
229,475,243,-349,-3,360,61,540,502,502,449,269
229,475,243,-349,-3,360,67,540,502,502,443,275
229,475,243,-349,-3,360,73,534,502,496,437,275
217,469,249,-343,-15,360,73,528,496,496,431,275
211,463,249,-331,-15,360,73,522,496,490,431,269
205,451,243,-325,-15,348,73,516,484,484,425,263
205,451,243,-325,-15,348,73,516,478,478,425,263
205,451,243,-325,-15,348,73,504,466,472,413,251
193,445,249,-319,-27,348,67,492,454,460,395,239
193,445,249,-319,-27,348,67,480,448,448,383,239
193,439,243,-313,-21,342,67,468,436,442,371,233
181,421,237,-301,-27,330,67,450,424,424,359,221
169,409,237,-289,-33,324,67,432,406,400,341,215
157,397,237,-277,-39,318,67,414,388,382,329,209
151,385,231,-265,-39,312,67,396,376,364,311,197
139,367,225,-247,-39,300,67,378,352,346,299,185
133,361,225,-247,-45,294,73,354,334,328,281,179
127,355,225,-235,-45,294,73,336,310,316,263,167
127,343,213,-229,-39,282,67,318,292,298,239,155
127,337,207,-229,-39,276,67,300,274,280,215,149
127,325,195,-223,-33,264,61,288,256,262,191,143
115,307,189,-205,-33,252,49,264,238,244,173,131
97,283,183,-187,-39,234,43,240,214,220,155,125
85,265,177,-175,-45,222,37,216,190,202,137,119
67,241,171,-151,-51,210,25,192,166,178,119,107
55,223,165,-133,-51,198,25,168,148,154,101,101
55,223,165,-133,-51,198,19,150,124,130,83,95
55,211,153,-127,-45,186,13,132,106,112,65,83
49,199,147,-121,-45,174,13,114,88,100,42,71
49,181,129,-115,-39,156,7,102,76,82,31,59
43,169,123,-103,-39,150,7,78,64,64,13,41
37,157,117,-97,-39,138,1,66,46,46,1,29
31,145,111,-85,-39,132,1,48,28,30,-11,17
37,151,111,-91,-33,132,-5,36,16,18,-17,11
19,133,111,-73,-45,126,-10,18,-2,0,-29,5
14,121,105,-67,-45,114,-15,0,-20,-12,-41,-1
14,109,93,-61,-39,102,-15,-12,-26,-18,-53,-7
3,97,93,-49,-45,96,-15,-18,-38,-24,-65,-13
9,85,75,-49,-33,78,-21,-24,-43,-30,-77,-19
14,73,57,-43,-21,66,-21,-30,-43,-36,-83,-25
14,67,51,-37,-15,60,-27,-35,-48,-42,-89,-37
19,67,45,-37,-9,60,-27,-35,-54,-54,-95,-42
14,55,39,-31,-9,48,-33,-46,-66,-60,-101,-42
14,49,33,-31,-9,42,-33,-52,-72,-66,-101,-47
9,43,33,-25,-9,36,-33,-52,-78,-72,-107,-47
9,37,27,-25,-9,30,-33,-58,-84,-78,-113,-47
9,31,21,-19,-3,24,-33,-64,-84,-78,-119,-47
3,25,21,-13,-9,24,-39,-70,-84,-84,-119,-47
3,19,15,-7,-3,18,-39,-76,-84,-78,-125,-47
-3,13,15,-7,-9,12,-45,-82,-84,-78,-125,-47
-3,19,21,-7,-9,18,-45,-82,-90,-78,-131,-47
3,19,15,-7,-3,18,-51,-82,-90,-78,-125,-47
3,13,9,-7,-3,12,-51,-88,-90,-78,-125,-47
9,13,3,-13,3,6,-45,-88,-96,-78,-125,-47
3,7,3,-2,3,6,-45,-88,-96,-78,-125,-47
3,1,-3,-2,3,0,-45,-82,-102,-78,-119,-47
3,-5,-9,3,9,-6,-45,-82,-102,-84,-125,-47
3,-5,-9,3,9,-6,-39,-82,-102,-84,-125,-42
-3,-10,-9,3,3,-12,-39,-82,-102,-84,-125,-42
-9,-15,-9,9,-3,-12,-45,-82,-108,-84,-131,-37
-9,-15,-9,9,-3,-12,-45,-82,-108,-84,-131,-37
-3,-10,-9,3,3,-12,-39,-76,-102,-78,-125,-37
3,-10,-15,3,9,-12,-39,-76,-102,-72,-125,-37
3,-10,-15,3,9,-12,-39,-76,-102,-72,-125,-37
3,-10,-15,3,9,-12,-39,-76,-96,-72,-119,-37
3,-10,-15,3,9,-12,-39,-76,-96,-72,-119,-37
-3,-15,-15,3,3,-17,-39,-76,-96,-78,-119,-37
-9,-21,-15,15,3,-17,-39,-70,-96,-78,-119,-37
3,-21,-26,9,15,-22,-39,-70,-90,-78,-113,-31
3,-21,-26,9,15,-22,-39,-70,-90,-78,-113,-31
9,-21,-31,3,20,-28,-39,-76,-90,-78,-119,-31
3,-27,-31,9,15,-28,-39,-76,-96,-78,-119,-31
9,-27,-37,3,20,-34,-33,-70,-96,-72,-113,-25
-3,-27,-26,9,9,-28,-33,-70,-96,-72,-113,-25
-3,-33,-31,15,15,-34,-33,-70,-90,-72,-113,-25
-9,-33,-26,21,9,-28,-33,-70,-90,-72,-107,-25
3,-39,-43,15,20,-40,-27,-64,-84,-72,-107,-25
14,-33,-49,9,31,-40,-27,-64,-84,-72,-95,-19
14,-39,-55,9,31,-46,-21,-64,-84,-72,-101,-19
9,-39,-49,9,25,-46,-27,-64,-90,-72,-101,-13
3,-45,-49,21,25,-46,-33,-64,-96,-72,-107,-13
3,-45,-49,21,25,-46,-33,-70,-96,-78,-107,-13
3,-39,-43,15,20,-40,-33,-76,-102,-78,-107,-7
9,-33,-43,9,25,-40,-33,-76,-96,-78,-107,-13
9,-33,-43,9,25,-40,-33,-76,-96,-72,-101,-13
9,-33,-43,9,25,-40,-33,-76,-90,-72,-95,-13
9,-33,-43,9,25,-40,-39,-76,-90,-72,-95,-13
9,-27,-37,3,20,-34,-39,-76,-96,-72,-95,-13
9,-27,-37,3,20,-34,-39,-70,-96,-72,-89,-7
3,-45,-49,21,25,-46,-39,-64,-96,-72,-89,-7
-3,-57,-55,27,25,-58,-45,-64,-102,-72,-95,-7
-9,-63,-55,33,20,-58,-45,-64,-102,-78,-101,-7
-9,-63,-55,33,20,-58,-51,-64,-102,-78,-101,-7
-3,-57,-55,27,25,-58,-45,-64,-102,-78,-95,-1
-3,-51,-49,21,20,-52,-45,-64,-102,-78,-89,-1
3,-51,-55,21,25,-52,-45,-64,-102,-78,-89,5
3,-51,-55,21,25,-52,-51,-64,-102,-78,-83,5
3,-51,-55,21,25,-52,-45,-64,-96,-78,-83,5
9,-51,-61,15,31,-58,-45,-64,-96,-78,-83,11
9,-57,-67,21,37,-64,-39,-70,-96,-84,-83,11
3,-57,-61,27,31,-58,-39,-76,-96,-84,-83,11
-3,-63,-61,27,25,-64,-39,-76,-102,-78,-77,5
-3,-63,-61,27,25,-64,-45,-82,-102,-78,-83,5
-9,-57,-49,33,20,-52,-45,-82,-102,-78,-83,5
-9,-63,-55,33,20,-58,-45,-76,-108,-84,-89,5
-3,-63,-61,27,25,-64,-45,-76,-114,-84,-89,-1
-3,-69,-67,33,31,-70,-51,-76,-114,-84,-89,-1
9,-69,-79,27,43,-76,-51,-76,-114,-84,-89,-1
3,-75,-79,33,37,-76,-51,-82,-120,-84,-95,-1
9,-75,-85,27,43,-82,-57,-88,-120,-90,-95,-7
9,-75,-85,27,43,-82,-57,-88,-126,-90,-95,-7
9,-75,-85,27,43,-82,-63,-88,-126,-90,-95,-7
9,-75,-85,27,43,-82,-63,-88,-132,-90,-101,-7
3,-81,-85,39,43,-82,-69,-94,-138,-96,-107,-13
-9,-81,-73,45,31,-76,-63,-94,-138,-102,-113,-13
-9,-75,-67,39,25,-70,-63,-94,-132,-102,-113,-13
-9,-81,-73,45,31,-76,-63,-100,-138,-108,-119,-19
-3,-81,-79,39,37,-82,-63,-106,-144,-108,-119,-19
-3,-81,-79,39,37,-82,-63,-106,-144,-108,-119,-19
-3,-87,-85,39,37,-88,-69,-112,-144,-108,-119,-25
-3,-81,-79,39,37,-82,-69,-112,-144,-114,-119,-25
-3,-87,-85,39,37,-88,-69,-112,-150,-120,-113,-25
-3,-87,-85,39,37,-88,-63,-112,-150,-120,-113,-25
-3,-87,-85,39,37,-88,-69,-118,-150,-120,-113,-19
-9,-87,-79,45,31,-82,-69,-118,-150,-120,-113,-19
-15,-93,-79,51,31,-88,-69,-118,-150,-126,-113,-19
-15,-99,-85,51,31,-94,-69,-118,-156,-126,-119,-19
-15,-99,-85,51,31,-94,-75,-118,-156,-126,-119,-19
-9,-93,-85,51,37,-88,-69,-118,-156,-120,-119,-25
-3,-87,-85,39,37,-88,-69,-118,-156,-126,-119,-31
-3,-87,-85,39,37,-88,-69,-124,-156,-126,-119,-31
-9,-87,-79,45,31,-82,-69,-124,-162,-132,-113,-31
-9,-93,-85,51,37,-88,-69,-130,-168,-132,-113,-31
-15,-93,-79,51,31,-88,-69,-136,-168,-132,-113,-31
-15,-93,-79,51,31,-88,-69,-136,-174,-132,-113,-31
-9,-99,-91,51,37,-94,-69,-142,-174,-132,-107,-31
-9,-99,-91,51,37,-94,-69,-142,-174,-132,-107,-31
-3,-93,-91,45,43,-94,-69,-142,-180,-132,-107,-31
3,-93,-97,45,49,-94,-63,-142,-180,-132,-107,-31
-3,-99,-97,45,43,-100,-69,-148,-180,-132,-113,-37
-3,-99,-97,45,43,-100,-75,-148,-180,-138,-119,-37
-9,-99,-91,51,37,-94,-75,-148,-180,-144,-119,-37
-9,-93,-85,51,37,-88,-75,-142,-180,-144,-119,-37
-15,-99,-85,51,31,-94,-75,-148,-180,-144,-119,-42
-21,-105,-85,63,31,-94,-69,-148,-180,-144,-119,-42
-27,-111,-85,63,25,-100,-75,-154,-186,-150,-113,-47
-21,-105,-85,63,31,-94,-75,-154,-186,-144,-107,-53
-21,-99,-79,57,25,-88,-75,-154,-186,-150,-101,-53
-27,-105,-79,63,25,-94,-75,-154,-186,-150,-101,-53
-27,-105,-79,63,25,-94,-75,-154,-186,-150,-101,-53
-21,-105,-85,63,31,-94,-75,-154,-186,-150,-95,-53
-21,-105,-85,63,31,-94,-75,-154,-186,-150,-95,-53
-21,-99,-79,57,25,-88,-75,-154,-192,-150,-89,-53
-21,-105,-85,63,31,-94,-75,-154,-192,-156,-89,-53
-21,-105,-85,63,31,-94,-75,-154,-192,-156,-89,-59
-21,-99,-79,57,25,-88,-75,-154,-198,-156,-95,-59
-21,-105,-85,63,31,-94,-75,-160,-198,-156,-95,-53
-21,-105,-85,63,31,-94,-75,-154,-198,-156,-89,-53
-15,-105,-91,57,37,-100,-75,-154,-192,-156,-89,-53
-15,-105,-91,57,37,-100,-75,-160,-192,-156,-83,-53
-21,-111,-91,63,31,-100,-81,-166,-198,-156,-83,-53
-27,-105,-79,63,25,-94,-81,-166,-198,-156,-77,-53
-27,-105,-79,63,25,-94,-81,-166,-198,-156,-77,-53
-21,-93,-73,57,25,-82,-75,-160,-198,-150,-77,-53
-21,-93,-73,57,25,-82,-75,-160,-198,-156,-77,-53
-21,-99,-79,57,25,-88,-69,-160,-192,-162,-77,-53
-21,-93,-73,57,25,-82,-69,-160,-192,-162,-71,-53
-21,-99,-79,57,25,-88,-75,-160,-198,-162,-77,-59
-21,-105,-85,63,31,-94,-75,-166,-198,-162,-83,-65
-21,-105,-85,63,31,-94,-81,-172,-198,-156,-83,-65
-21,-93,-73,57,25,-82,-75,-172,-198,-150,-77,-59
-27,-93,-67,57,20,-82,-81,-172,-198,-150,-77,-65
-27,-93,-67,57,20,-82,-81,-172,-198,-156,-71,-65
-21,-93,-73,57,25,-82,-81,-172,-198,-156,-65,-65
-21,-93,-73,57,25,-82,-87,-172,-204,-162,-65,-65
-21,-93,-73,57,25,-82,-87,-172,-204,-162,-65,-71
-15,-87,-73,45,25,-82,-87,-172,-204,-162,-71,-71
-9,-93,-85,51,37,-88,-87,-172,-204,-156,-71,-71
-9,-93,-85,51,37,-88,-81,-172,-204,-156,-77,-65
-15,-99,-85,51,31,-94,-87,-172,-204,-150,-71,-65
-21,-99,-79,57,25,-88,-87,-172,-204,-150,-71,-71
-27,-105,-79,63,25,-94,-87,-178,-204,-156,-77,-77
-33,-111,-79,69,20,-94,-93,-184,-210,-162,-83,-89
-21,-93,-73,57,25,-82,-87,-184,-210,-156,-83,-95
-21,-81,-61,51,20,-70,-87,-184,-210,-162,-83,-95
-27,-87,-61,51,15,-76,-87,-184,-216,-168,-77,-101
-21,-93,-73,57,25,-82,-93,-184,-216,-174,-77,-101
-27,-99,-73,57,20,-88,-87,-178,-216,-174,-77,-101
-27,-105,-79,63,25,-94,-87,-172,-216,-174,-77,-95
-27,-105,-79,63,25,-94,-81,-172,-216,-168,-77,-95
-27,-99,-73,57,20,-88,-81,-172,-216,-168,-83,-95
-21,-93,-73,57,25,-82,-81,-172,-216,-168,-77,-95
-21,-93,-73,57,25,-82,-81,-166,-216,-168,-77,-95
-21,-87,-67,51,20,-76,-87,-172,-216,-174,-83,-95
-21,-87,-67,51,20,-76,-87,-172,-216,-180,-89,-95
-27,-93,-67,57,20,-82,-93,-178,-222,-180,-89,-101
-27,-93,-67,57,20,-82,-93,-178,-222,-180,-89,-101
-21,-93,-73,57,25,-82,-93,-178,-222,-180,-83,-101
-21,-99,-79,57,25,-88,-99,-178,-222,-186,-83,-101
-21,-99,-79,57,25,-88,-93,-178,-222,-186,-89,-101
-15,-93,-79,51,31,-88,-93,-178,-222,-180,-89,-101
-15,-87,-73,45,25,-82,-93,-178,-222,-180,-89,-101
-15,-87,-73,45,25,-82,-93,-184,-222,-180,-89,-101
-21,-81,-61,51,20,-70,-93,-184,-222,-180,-89,-101
-15,-81,-67,45,25,-76,-99,-184,-222,-180,-83,-101
-21,-87,-67,51,20,-76,-99,-184,-222,-180,-83,-107
-21,-87,-67,51,20,-76,-105,-184,-222,-180,-83,-107
-21,-87,-67,51,20,-76,-111,-184,-222,-180,-89,-107
-21,-93,-73,57,25,-82,-111,-184,-222,-180,-89,-113
-27,-93,-67,57,20,-82,-111,-190,-228,-186,-95,-113
-27,-81,-55,51,15,-70,-105,-190,-228,-186,-89,-113
-27,-81,-55,51,15,-70,-99,-190,-228,-186,-89,-113
-27,-81,-55,51,15,-70,-99,-190,-228,-186,-89,-113
-27,-81,-55,51,15,-70,-99,-190,-228,-186,-89,-113
-33,-87,-55,57,9,-70,-99,-184,-222,-186,-89,-113
-27,-81,-55,51,15,-70,-99,-184,-216,-180,-83,-113
-27,-81,-55,51,15,-70,-99,-184,-216,-180,-77,-113
-27,-87,-61,51,15,-76,-105,-184,-216,-186,-83,-113
-15,-87,-73,45,25,-82,-105,-184,-216,-180,-83,-107
-15,-87,-73,45,25,-82,-111,-184,-216,-180,-83,-107
-21,-99,-79,57,25,-88,-111,-184,-222,-186,-89,-107
-21,-93,-73,57,25,-82,-105,-190,-222,-186,-83,-107
-15,-87,-73,45,25,-82,-105,-190,-222,-186,-83,-101
-21,-81,-61,51,20,-70,-105,-190,-222,-180,-83,-101
-27,-81,-55,51,15,-70,-105,-196,-222,-180,-83,-101
-27,-87,-61,51,15,-76,-105,-196,-222,-180,-83,-101
-27,-81,-55,51,15,-70,-105,-190,-222,-180,-83,-101
-27,-81,-55,51,15,-70,-105,-190,-222,-180,-77,-101
-27,-87,-61,51,15,-76,-105,-190,-222,-186,-77,-101
-33,-93,-61,63,15,-76,-105,-184,-222,-186,-83,-101
-33,-93,-61,63,15,-76,-99,-184,-222,-186,-83,-101
-21,-81,-61,51,20,-70,-93,-184,-216,-180,-83,-107
-15,-75,-61,39,20,-70,-99,-184,-216,-180,-83,-107
-21,-75,-55,45,15,-64,-99,-190,-216,-180,-89,-107
-27,-75,-49,45,9,-64,-105,-196,-210,-180,-95,-107
-27,-75,-49,45,9,-64,-105,-196,-216,-180,-95,-107
-27,-75,-49,45,9,-64,-111,-196,-216,-180,-95,-107
-27,-75,-49,45,9,-64,-111,-190,-216,-180,-95,-107
-15,-69,-55,39,20,-64,-111,-190,-222,-180,-95,-107
-9,-63,-55,33,20,-58,-105,-184,-222,-180,-83,-107
-21,-69,-49,45,15,-58,-105,-184,-222,-186,-83,-107
-27,-81,-55,51,15,-70,-111,-190,-222,-192,-89,-107
-33,-81,-49,57,9,-64,-105,-190,-222,-192,-89,-107
-39,-87,-49,57,3,-70,-111,-196,-228,-198,-89,-107
-33,-87,-55,57,9,-70,-111,-202,-228,-198,-89,-107
-27,-81,-55,51,15,-70,-111,-196,-222,-186,-77,-107
-15,-75,-61,39,20,-70,-111,-196,-222,-186,-77,-107
-15,-75,-61,39,20,-70,-111,-196,-222,-180,-77,-107
-21,-81,-61,51,20,-70,-111,-190,-216,-180,-77,-101
-27,-75,-49,45,9,-64,-111,-184,-216,-180,-77,-101
-27,-75,-49,45,9,-64,-111,-184,-216,-180,-71,-101
-33,-75,-43,51,3,-58,-105,-184,-210,-180,-71,-101
-33,-75,-43,51,3,-58,-105,-178,-210,-180,-71,-101
-27,-75,-49,45,9,-64,-105,-178,-210,-180,-71,-101
-27,-75,-49,45,9,-64,-105,-178,-210,-180,-71,-101
-21,-75,-55,45,15,-64,-105,-172,-210,-174,-71,-101
-9,-63,-55,33,20,-58,-99,-172,-204,-168,-59,-101
-9,-57,-49,33,20,-52,-99,-166,-198,-162,-59,-95
-9,-45,-37,27,15,-40,-93,-160,-192,-162,-59,-95
-3,-39,-37,15,15,-40,-87,-154,-186,-156,-53,-83
3,-27,-31,9,15,-28,-87,-154,-180,-150,-53,-77
3,-21,-26,9,15,-22,-81,-148,-174,-150,-47,-77
9,-15,-26,-2,15,-22,-75,-142,-168,-144,-41,-71
9,-10,-21,-2,15,-17,-75,-136,-168,-138,-41,-71
14,1,-15,-7,15,-6,-69,-130,-156,-126,-35,-71
19,7,-15,-7,20,0,-63,-124,-150,-126,-29,-65
19,13,-9,-13,15,6,-57,-118,-138,-120,-23,-59
25,7,-21,-13,25,-6,-57,-112,-138,-120,-23,-53
31,1,-31,-13,31,-12,-57,-112,-138,-120,-23,-53
37,1,-37,-19,37,-17,-63,-118,-138,-120,-35,-53
37,1,-37,-19,37,-17,-69,-124,-132,-126,-41,-53
37,7,-31,-19,37,-12,-69,-124,-132,-120,-41,-53
37,7,-31,-19,37,-12,-81,-130,-138,-126,-47,-53
49,19,-31,-31,43,-6,-93,-136,-138,-126,-41,-47
55,25,-31,-37,43,0,-99,-136,-144,-126,-41,-47
61,25,-37,-43,49,-6,-105,-130,-144,-126,-35,-42
61,25,-37,-43,49,-6,-105,-124,-144,-126,-29,-42
49,13,-37,-31,43,-12,-105,-124,-144,-126,-29,-42
43,1,-43,-19,43,-17,-111,-130,-144,-132,-35,-47
43,1,-43,-19,43,-17,-111,-136,-144,-126,-35,-47
49,1,-49,-25,49,-22,-111,-136,-144,-120,-35,-47
49,7,-43,-25,49,-17,-111,-142,-150,-120,-35,-53
37,-5,-43,-13,43,-22,-111,-148,-156,-126,-41,-53
25,-10,-37,-7,31,-22,-111,-154,-162,-126,-47,-53
19,-15,-37,-2,25,-22,-105,-160,-174,-132,-41,-59
14,-15,-31,-2,20,-22,-105,-166,-180,-144,-41,-59
19,-10,-31,-2,25,-17,-93,-166,-180,-144,-41,-59
14,-21,-37,3,25,-28,-93,-172,-186,-144,-41,-65
9,-33,-43,9,25,-40,-93,-178,-198,-156,-47,-71
3,-45,-49,21,25,-46,-93,-190,-198,-162,-53,-71
-3,-51,-49,21,20,-52,-99,-196,-210,-168,-53,-77
3,-57,-61,27,31,-58,-99,-196,-216,-174,-59,-83
3,-69,-73,33,37,-70,-105,-202,-216,-174,-65,-83
3,-69,-73,33,37,-70,-105,-196,-216,-180,-65,-83
3,-63,-67,27,31,-64,-105,-196,-216,-180,-59,-83
9,-57,-67,21,37,-64,-99,-190,-210,-180,-59,-77
9,-57,-67,21,37,-64,-93,-190,-210,-180,-59,-77
-3,-57,-55,27,25,-58,-93,-190,-210,-180,-59,-83
-3,-63,-61,27,25,-64,-99,-196,-216,-186,-59,-89
-3,-57,-55,27,25,-58,-99,-196,-216,-186,-65,-95
-9,-63,-55,33,20,-58,-99,-196,-216,-186,-59,-95
-21,-75,-55,45,15,-64,-99,-202,-216,-186,-59,-101
-33,-81,-49,57,9,-64,-93,-202,-216,-192,-65,-101
-45,-93,-49,69,3,-70,-93,-208,-216,-198,-65,-101
-45,-99,-55,69,3,-76,-93,-208,-222,-204,-71,-107
-51,-99,-49,69,-3,-76,-93,-214,-228,-210,-71,-107
-45,-99,-55,69,3,-76,-87,-214,-234,-210,-77,-107
-45,-93,-49,69,3,-70,-87,-214,-234,-210,-71,-113
-51,-99,-49,69,-3,-76,-87,-220,-240,-210,-77,-113
-63,-105,-43,81,-9,-76,-99,-226,-240,-210,-77,-119
-75,-111,-37,87,-21,-76,-99,-232,-240,-210,-77,-119
-75,-111,-37,87,-21,-76,-99,-232,-234,-210,-71,-119
-63,-105,-43,81,-9,-76,-99,-232,-228,-204,-59,-113
-51,-93,-43,69,-3,-70,-99,-226,-222,-204,-53,-107
-57,-93,-37,75,-9,-64,-99,-226,-222,-204,-59,-107
-57,-99,-43,75,-9,-70,-99,-220,-222,-204,-53,-107
-57,-93,-37,75,-9,-64,-99,-220,-222,-204,-47,-101
-63,-87,-26,69,-21,-58,-93,-214,-216,-198,-41,-101
-63,-87,-26,69,-21,-58,-93,-214,-216,-198,-41,-101
-69,-81,-15,75,-27,-46,-87,-208,-216,-198,-35,-95
-69,-69,-3,69,-33,-34,-87,-208,-210,-192,-35,-95
-69,-63,3,63,-39,-28,-81,-202,-204,-180,-23,-89
-63,-57,3,57,-33,-28,-75,-190,-198,-174,-11,-89
-63,-57,3,57,-33,-28,-75,-184,-186,-168,-5,-89
-75,-63,9,63,-45,-28,-75,-178,-180,-162,1,-83
-75,-57,15,63,-45,-22,-63,-166,-168,-150,7,-83
-75,-45,27,57,-51,-12,-51,-154,-150,-138,13,-77
-87,-45,39,63,-63,-6,-33,-136,-132,-120,25,-77
-93,-39,51,63,-75,6,-15,-118,-114,-102,31,-77
-99,-39,57,63,-81,6,-5,-94,-96,-90,37,-77
-111,-39,69,69,-93,12,7,-70,-84,-78,42,-77
-111,-33,75,69,-93,18,25,-46,-60,-66,47,-83
-117,-39,75,75,-99,18,43,-30,-43,-60,53,-89
-117,-39,75,75,-99,18,61,-6,-32,-48,65,-95
-123,-39,81,75,-105,18,79,18,-8,-36,71,-95
-129,-45,81,87,-105,18,103,48,16,-24,77,-101
-135,-45,87,87,-111,18,133,84,46,0,77,-107
-147,-57,87,99,-117,12,163,132,76,18,77,-113
-159,-51,105,99,-135,24,211,192,124,36,89,-119
-165,-33,129,99,-147,48,259,264,178,70,119,-107
-171,-10,159,87,-165,72,313,342,250,118,149,-95
-171,13,183,75,-177,96,367,426,334,184,191,-77
-171,25,195,69,-183,108,421,522,424,256,239,-59
-159,37,195,57,-177,114,469,636,538,346,299,-42
-147,61,207,39,-177,132,535,786,664,460,377,-19
-111,91,201,9,-153,144,613,954,814,580,461,11
-75,127,201,-25,-135,162,679,1116,952,700,551,53
-21,151,171,-61,-93,162,739,1290,1102,826,647,101
31,193,159,-109,-63,180,799,1470,1264,970,767,173
97,223,123,-157,-9,174,853,1644,1420,1114,887,245
169,259,87,-211,43,174,865,1770,1546,1246,995,317
235,289,51,-259,91,174,853,1842,1654,1372,1103,389
301,331,27,-313,139,180,823,1872,1738,1486,1199,461
373,373,-3,-373,187,186,781,1884,1810,1582,1283,527
439,397,-43,-415,241,180,727,1860,1852,1654,1343,587
475,397,-79,-433,277,162,661,1788,1852,1684,1379,617
487,379,-109,-427,301,138,595,1632,1780,1624,1343,611
463,331,-133,-391,301,102,547,1416,1624,1468,1229,557
397,265,-133,-331,265,66,499,1170,1426,1252,1067,473
295,211,-85,-247,193,66,469,930,1228,1030,905,383
169,157,-15,-163,91,72,439,696,1030,820,737,281
55,109,51,-79,3,84,409,486,832,628,575,173
-69,37,105,15,-87,72,367,288,628,436,413,65
-183,-21,159,99,-171,66,295,90,412,268,269,-31
-273,-63,207,165,-243,72,205,-88,232,136,167,-101
-321,-81,237,201,-279,78,109,-250,76,36,89,-143
-345,-87,255,213,-303,84,7,-394,-48,-42,42,-173
-345,-81,261,213,-303,90,-87,-520,-150,-96,13,-179
-321,-75,243,195,-285,84,-171,-610,-216,-126,-5,-173
-303,-81,219,189,-261,66,-237,-670,-276,-162,-17,-173
-285,-105,177,195,-231,36,-279,-712,-336,-204,-47,-179
-261,-129,129,195,-195,0,-309,-730,-390,-246,-71,-185
-231,-141,87,183,-159,-28,-315,-706,-426,-288,-95,-185
-207,-147,57,171,-135,-46,-303,-670,-444,-318,-107,-185
-183,-141,39,159,-111,-52,-291,-622,-450,-330,-113,-179
-165,-135,27,147,-99,-52,-273,-562,-438,-330,-101,-173
-141,-123,15,129,-81,-52,-255,-508,-414,-318,-89,-167
-117,-111,3,111,-63,-52,-243,-454,-378,-300,-77,-161
-99,-99,-3,93,-51,-52,-219,-406,-348,-282,-65,-149
-81,-87,-9,81,-39,-46,-201,-364,-318,-264,-53,-143
-81,-81,-3,81,-39,-40,-177,-328,-294,-246,-41,-131
-75,-75,-3,69,-39,-40,-153,-292,-270,-222,-29,-119
-63,-63,-3,57,-33,-34,-129,-262,-246,-204,-11,-107
-57,-51,3,51,-33,-22,-117,-232,-228,-186,1,-101
-51,-45,3,45,-27,-22,-105,-208,-210,-168,13,-101
-39,-33,3,33,-21,-17,-93,-184,-192,-162,37,-89
-39,-21,15,27,-27,-6,-81,-166,-180,-150,42,-83
-39,-15,21,21,-33,0,-75,-154,-168,-144,53,-71
-33,-10,21,21,-27,6,-69,-142,-156,-132,65,-65
-33,1,33,15,-33,18,-63,-136,-150,-126,71,-53
-33,7,39,15,-33,24,-63,-130,-144,-114,83,-47
-27,7,33,9,-27,18,-57,-130,-138,-114,83,-42
-27,13,39,3,-33,24,-57,-136,-138,-108,83,-42
-21,13,33,3,-27,24,-57,-136,-132,-102,83,-42
-21,13,33,3,-27,24,-57,-136,-132,-102,95,-37
-21,13,33,3,-27,24,-63,-136,-132,-102,101,-37
-33,7,39,15,-33,24,-63,-136,-132,-108,107,-42
-33,19,51,9,-39,36,-69,-136,-126,-108,113,-37
-33,25,57,3,-45,42,-69,-130,-126,-108,107,-42
-27,25,51,-2,-39,36,-75,-130,-126,-114,107,-42
-21,37,57,-7,-39,48,-75,-124,-120,-102,107,-42
-15,49,63,-19,-39,54,-69,-118,-120,-96,107,-42
-9,43,51,-13,-27,48,-63,-118,-114,-90,101,-42
-9,49,57,-19,-33,54,-63,-112,-108,-90,101,-37
-9,49,57,-19,-33,54,-57,-118,-108,-90,101,-31
-9,43,51,-13,-27,48,-57,-118,-108,-90,107,-25
-9,43,51,-13,-27,48,-63,-118,-108,-96,107,-19
-3,49,51,-25,-27,48,-69,-112,-108,-96,107,-19
3,55,51,-25,-21,54,-63,-106,-102,-90,113,-19
9,61,51,-37,-21,54,-63,-100,-102,-84,125,-19
9,61,51,-37,-21,54,-63,-106,-102,-78,125,-25
9,73,63,-43,-27,66,-63,-106,-102,-78,125,-25
9,73,63,-43,-27,66,-63,-106,-102,-78,131,-25
3,73,69,-37,-33,72,-63,-100,-102,-78,131,-25
3,73,69,-37,-33,72,-63,-88,-102,-78,137,-19
3,73,69,-37,-33,72,-63,-88,-96,-78,143,-19
3,73,69,-37,-33,72,-63,-82,-90,-72,143,-13
3,79,75,-37,-33,78,-63,-82,-84,-66,143,-13
3,79,75,-37,-33,78,-63,-76,-78,-66,149,-13
9,85,75,-49,-33,78,-69,-70,-66,-54,155,-7
14,91,75,-49,-27,84,-69,-70,-60,-48,161,-7
14,97,81,-55,-33,90,-69,-64,-60,-48,167,-1
14,97,81,-55,-33,90,-69,-64,-60,-42,167,-1
14,103,87,-55,-33,96,-69,-64,-60,-42,167,-1
14,103,87,-55,-33,96,-69,-64,-60,-42,167,5
14,103,87,-55,-33,96,-63,-64,-60,-42,173,5
25,115,87,-67,-27,102,-57,-58,-48,-30,179,11
37,127,87,-79,-21,108,-57,-46,-43,-24,185,17
31,127,93,-73,-27,114,-63,-46,-38,-24,185,23
31,127,93,-73,-27,114,-63,-35,-32,-18,191,23
37,133,93,-85,-27,114,-69,-30,-26,-12,197,29
31,133,99,-79,-33,120,-81,-30,-26,-12,203,35
31,133,99,-79,-33,120,-87,-24,-20,-6,197,35
31,139,105,-79,-33,126,-81,-24,-14,0,203,41
43,145,99,-91,-27,126,-81,-18,-14,6,209,41
49,145,93,-97,-21,120,-81,-12,-8,6,215,35
43,145,99,-91,-27,126,-81,-6,-8,12,215,29
43,151,105,-91,-27,132,-81,0,-2,12,221,29
43,157,111,-97,-33,138,-87,0,4,18,227,29
43,163,117,-97,-33,144,-87,12,16,24,233,35
43,169,123,-103,-39,150,-87,18,22,30,245,41
49,181,129,-115,-39,156,-87,30,34,36,251,53
55,181,123,-115,-33,156,-87,42,40,41,251,59
55,181,123,-115,-33,156,-87,42,40,46,257,65
67,193,123,-127,-27,162,-75,48,46,58,269,77
85,211,123,-145,-15,168,-75,60,58,70,287,83
85,211,123,-145,-15,168,-75,60,64,76,293,83
91,223,129,-151,-15,180,-75,72,76,88,305,95
91,217,123,-151,-15,174,-81,84,88,100,311,95
85,211,123,-145,-15,168,-81,96,100,112,323,101
85,211,123,-145,-15,168,-75,108,118,118,335,107
91,223,129,-151,-15,180,-69,126,130,136,347,119
109,247,135,-175,-9,192,-63,144,142,148,359,131
121,265,141,-193,-9,204,-63,162,154,154,365,137
127,271,141,-193,-3,210,-57,174,166,166,377,143
133,277,141,-205,-3,210,-57,186,178,172,389,149
145,283,135,-211,9,210,-63,198,190,184,401,155
145,295,147,-217,3,222,-57,204,202,202,413,161
145,295,147,-217,3,222,-57,216,214,214,425,167
151,307,153,-223,3,234,-57,222,220,232,443,179
157,319,159,-235,3,240,-57,234,232,244,455,179
157,319,159,-235,3,240,-57,246,244,256,461,191
163,325,159,-241,3,246,-57,258,256,268,467,197
175,337,159,-253,9,252,-51,282,268,280,473,203
181,349,165,-265,9,258,-57,300,286,298,485,209
193,361,165,-277,15,264,-57,318,298,310,497,221
193,355,159,-271,20,258,-57,330,310,328,509,227
199,367,165,-277,20,270,-51,348,322,340,527,239
199,379,177,-283,15,282,-45,360,340,352,545,245
199,391,189,-289,9,294,-39,366,358,364,569,257
199,397,195,-295,3,300,-33,384,376,376,581,263
205,409,201,-307,3,306,-33,396,388,388,593,269
211,415,201,-307,9,312,-27,408,400,400,593,275
217,421,201,-319,9,312,-27,420,412,412,599,287
217,427,207,-319,9,318,-27,432,424,424,611,293
217,421,201,-319,9,312,-21,438,430,430,617,299
223,421,195,-319,15,312,-15,450,448,448,623,305
235,433,195,-331,20,318,-10,462,454,460,629,311
235,439,201,-331,20,324,-5,474,466,466,635,317
235,445,207,-337,15,330,-5,480,472,472,641,317
229,451,219,-337,9,336,1,486,478,472,647,323
223,451,225,-331,3,342,1,486,484,478,653,323
223,451,225,-331,3,342,7,492,490,484,659,323
217,457,237,-337,-9,348,13,492,496,490,665,329
211,451,237,-325,-9,348,19,498,496,496,671,329
199,439,237,-313,-15,342,13,498,496,496,671,323
199,433,231,-313,-15,336,19,498,502,502,671,323
199,439,237,-313,-15,342,25,498,502,508,677,323
211,451,237,-325,-9,348,31,504,508,520,689,329
211,457,243,-331,-15,354,31,498,508,520,695,335
205,463,255,-331,-21,360,31,498,502,514,689,329
199,457,255,-325,-27,360,31,492,502,508,677,329
199,451,249,-319,-21,354,31,486,502,502,671,329
199,451,249,-319,-21,354,31,480,502,502,665,323
187,439,249,-307,-27,348,37,474,490,496,653,311
181,427,243,-301,-27,336,43,468,484,484,635,299
169,415,243,-289,-33,330,49,456,472,472,623,287
145,391,243,-265,-45,318,49,438,454,454,599,275
139,385,243,-259,-51,318,49,432,442,448,587,269
151,391,237,-265,-39,318,49,420,430,442,569,269
139,385,243,-259,-51,318,43,402,418,424,551,263
127,379,249,-247,-57,318,37,384,394,406,521,257
121,361,237,-241,-57,300,37,372,376,388,497,245
121,355,231,-235,-51,294,31,354,358,370,479,233
121,343,219,-229,-45,282,31,336,340,346,455,221
115,331,213,-217,-45,276,31,318,328,334,431,203
109,313,201,-211,-45,258,31,300,316,316,407,185
103,301,195,-199,-45,252,31,282,292,298,389,167
97,283,183,-187,-39,234,25,264,274,274,359,155
85,265,177,-175,-45,222,25,240,250,256,323,137
73,253,177,-163,-51,216,25,216,232,232,293,125
55,235,177,-139,-57,210,19,192,208,208,269,119
49,223,171,-133,-57,198,19,174,190,184,257,107
37,211,171,-121,-63,192,13,150,172,166,233,101
25,193,165,-109,-69,180,7,138,154,148,215,89
25,175,147,-97,-57,162,7,120,136,136,191,77
25,157,129,-91,-51,144,1,102,124,118,173,71
19,151,129,-79,-51,144,1,90,106,106,149,59
25,145,117,-85,-45,132,1,78,94,88,131,53
19,133,111,-73,-45,126,1,54,82,76,107,41
14,115,99,-61,-39,108,-10,42,58,52,89,29
3,97,93,-49,-45,96,-10,24,40,41,77,17
-9,85,93,-37,-51,90,-15,12,34,30,59,11
-15,85,99,-37,-57,90,-15,12,22,24,42,5
-9,73,81,-31,-45,78,-21,0,10,18,25,-7
-15,61,75,-25,-45,66,-21,-12,-8,6,7,-13
-15,43,57,-13,-33,48,-27,-24,-14,-6,-11,-19
-9,37,45,-13,-27,42,-27,-35,-26,-6,-29,-25
-15,25,39,-7,-27,30,-33,-35,-32,-12,-47,-37
-15,19,33,-2,-21,24,-33,-46,-38,-24,-65,-42
-21,13,33,3,-27,24,-39,-58,-43,-30,-77,-42
-27,7,33,9,-27,18,-45,-58,-48,-36,-95,-47
-27,1,27,9,-27,12,-45,-64,-48,-36,-101,-47
-27,1,27,9,-27,12,-45,-64,-54,-42,-113,-53
-27,-10,15,15,-21,0,-45,-70,-54,-48,-125,-53
-39,-15,21,21,-33,0,-39,-70,-60,-48,-137,-53
-33,-15,15,21,-27,0,-33,-76,-66,-48,-149,-53
-21,-10,9,15,-15,0,-27,-76,-60,-48,-155,-47
-21,-15,3,15,-15,-6,-27,-82,-66,-48,-167,-47
-33,-15,15,21,-27,0,-27,-88,-78,-54,-173,-53
-33,-21,9,27,-21,-6,-21,-94,-84,-60,-185,-53
-27,-15,9,15,-21,-6,-10,-94,-84,-60,-197,-53
-27,-21,3,21,-15,-12,-10,-94,-84,-66,-203,-53
-33,-21,9,27,-21,-6,-10,-100,-84,-66,-203,-53
-39,-27,9,27,-27,-12,-10,-100,-78,-66,-209,-53
-39,-39,-3,33,-21,-22,-10,-100,-78,-72,-209,-53
-45,-51,-9,45,-21,-28,-10,-100,-78,-72,-221,-47
-39,-57,-21,45,-9,-40,-10,-100,-78,-66,-221,-47
-33,-51,-21,39,-9,-34,-5,-94,-78,-54,-221,-42
-21,-45,-26,33,3,-34,-10,-94,-78,-54,-221,-42
-15,-39,-26,21,3,-34,-10,-88,-84,-42,-227,-42
-21,-45,-26,33,3,-34,-10,-88,-84,-42,-227,-37
-27,-57,-31,39,3,-46,-10,-88,-78,-30,-239,-37
-27,-57,-31,39,3,-46,-10,-88,-78,-30,-233,-37
-33,-57,-26,45,-3,-40,-10,-82,-78,-30,-239,-31
-27,-57,-31,39,3,-46,-10,-82,-78,-30,-245,-31
-27,-57,-31,39,3,-46,-10,-82,-78,-36,-251,-31
-27,-57,-31,39,3,-46,-10,-82,-72,-36,-257,-37
-27,-57,-31,39,3,-46,-5,-82,-66,-30,-257,-37
-27,-57,-31,39,3,-46,-5,-82,-66,-36,-257,-37
-27,-69,-43,45,9,-58,-5,-88,-72,-42,-275,-42
-21,-69,-49,45,15,-58,-5,-88,-72,-48,-281,-42
-21,-69,-49,45,15,-58,1,-88,-78,-48,-293,-42
-21,-75,-55,45,15,-64,-5,-94,-84,-48,-293,-42
-27,-81,-55,51,15,-70,-10,-100,-84,-48,-299,-42
-21,-81,-61,51,20,-70,-10,-100,-78,-42,-299,-42
-21,-75,-55,45,15,-64,-10,-94,-78,-36,-305,-37
-27,-75,-49,45,9,-64,-10,-100,-78,-42,-305,-37
-39,-81,-43,57,3,-64,-15,-100,-78,-42,-305,-37
-33,-75,-43,51,3,-58,-10,-94,-78,-42,-305,-37
-27,-75,-49,45,9,-64,-10,-94,-78,-42,-305,-31
-27,-81,-55,51,15,-70,-10,-94,-78,-42,-305,-31
-21,-75,-55,45,15,-64,-5,-94,-84,-42,-311,-31
-21,-75,-55,45,15,-64,-5,-88,-90,-42,-305,-31
-21,-81,-61,51,20,-70,-5,-88,-90,-42,-311,-31
-27,-87,-61,51,15,-76,1,-88,-90,-42,-311,-31
-27,-93,-67,57,20,-82,1,-88,-90,-42,-317,-37
-27,-93,-67,57,20,-82,-10,-94,-84,-42,-323,-37
-27,-87,-61,51,15,-76,-10,-94,-84,-42,-311,-37
-27,-93,-67,57,20,-82,-10,-94,-84,-42,-311,-37
-33,-93,-61,63,15,-76,-10,-94,-90,-42,-311,-37
-45,-105,-61,75,9,-82,-10,-100,-90,-42,-317,-31
-27,-93,-67,57,20,-82,-10,-100,-90,-36,-317,-25
-21,-87,-67,51,20,-76,-10,-94,-90,-36,-317,-19
-21,-87,-67,51,20,-76,-5,-94,-90,-42,-317,-19
-21,-93,-73,57,25,-82,-5,-100,-90,-48,-323,-19
-27,-99,-73,57,20,-88,-5,-106,-96,-54,-329,-19
-27,-99,-73,57,20,-88,-10,-112,-102,-54,-335,-19
-27,-105,-79,63,25,-94,-10,-112,-102,-48,-329,-19
-33,-105,-73,69,20,-88,-10,-112,-102,-48,-329,-19
-33,-99,-67,63,15,-82,-10,-112,-102,-48,-329,-19
-33,-99,-67,63,15,-82,-15,-112,-102,-48,-335,-25
-33,-105,-73,69,20,-88,-10,-118,-102,-48,-341,-25
-33,-105,-73,69,20,-88,-10,-112,-96,-54,-341,-25
-27,-105,-79,63,25,-94,-5,-112,-96,-60,-341,-37
-27,-111,-85,63,25,-100,-5,-118,-96,-66,-347,-37
-27,-111,-85,63,25,-100,-5,-118,-96,-66,-347,-37
-33,-111,-79,69,20,-94,-5,-118,-102,-66,-353,-42
-27,-111,-85,63,25,-100,-10,-124,-102,-66,-353,-42
-27,-117,-91,69,31,-106,-10,-124,-108,-72,-359,-42
-27,-117,-91,69,31,-106,-10,-130,-114,-78,-365,-47
-33,-123,-91,75,25,-106,-10,-130,-114,-84,-377,-53
-39,-129,-91,81,25,-112,-15,-130,-114,-90,-383,-53
-33,-123,-91,75,25,-106,-10,-130,-114,-90,-377,-47
-33,-123,-91,75,25,-106,-15,-130,-120,-84,-371,-47
-33,-123,-91,75,25,-106,-10,-136,-120,-84,-371,-47
-33,-123,-91,75,25,-106,-15,-136,-120,-84,-371,-42
-33,-123,-91,75,25,-106,-15,-136,-126,-84,-371,-47
-33,-123,-91,75,25,-106,-21,-136,-126,-90,-377,-47
-33,-129,-97,81,31,-112,-21,-136,-132,-90,-377,-47
-33,-129,-97,81,31,-112,-21,-136,-132,-96,-383,-47
-39,-135,-97,81,25,-118,-15,-142,-132,-96,-383,-47
-39,-135,-97,81,25,-118,-15,-142,-132,-96,-383,-47
-39,-135,-97,81,25,-118,-15,-142,-132,-96,-389,-47
-45,-141,-97,93,25,-118,-21,-148,-138,-96,-395,-47
-45,-141,-97,93,25,-118,-21,-148,-150,-96,-389,-47
-45,-141,-97,93,25,-118,-21,-148,-150,-96,-389,-47
-45,-141,-97,93,25,-118,-21,-148,-150,-96,-389,-47
-45,-141,-97,93,25,-118,-21,-154,-156,-96,-389,-53
-45,-141,-97,93,25,-118,-27,-154,-156,-90,-395,-53
-45,-141,-97,93,25,-118,-27,-154,-156,-90,-395,-53
-45,-141,-97,93,25,-118,-33,-160,-162,-96,-395,-53
-51,-141,-91,93,20,-118,-33,-166,-162,-102,-407,-53
-57,-147,-91,99,15,-118,-27,-166,-162,-108,-407,-53
-57,-147,-91,99,15,-118,-27,-166,-162,-114,-413,-53
-57,-153,-97,105,20,-124,-21,-166,-162,-114,-419,-53
-51,-147,-97,93,20,-124,-21,-160,-156,-114,-413,-53
-51,-147,-97,93,20,-124,-21,-166,-150,-114,-407,-53
-51,-153,-103,99,25,-130,-21,-166,-150,-114,-407,-59
-51,-153,-103,99,25,-130,-21,-166,-150,-120,-413,-65
-51,-147,-97,93,20,-124,-21,-166,-150,-120,-413,-65
-51,-147,-97,93,20,-124,-21,-166,-156,-120,-413,-65
-51,-141,-91,93,20,-118,-27,-166,-156,-120,-419,-65
-63,-141,-79,99,9,-112,-33,-166,-168,-126,-413,-71
-69,-147,-79,105,3,-112,-33,-172,-168,-126,-413,-71
-63,-141,-79,99,9,-112,-33,-166,-168,-120,-407,-71
-63,-153,-91,105,15,-124,-39,-172,-174,-120,-413,-71
-57,-159,-103,105,20,-130,-39,-178,-174,-120,-413,-77
-51,-159,-109,99,25,-136,-39,-178,-174,-120,-413,-77
-51,-165,-115,105,31,-142,-39,-178,-180,-120,-413,-83
-51,-165,-115,105,31,-142,-39,-178,-180,-120,-419,-83
-51,-153,-103,99,25,-130,-33,-172,-174,-126,-425,-77
-57,-141,-85,99,15,-112,-33,-172,-174,-126,-425,-71
-63,-141,-79,99,9,-112,-39,-178,-174,-126,-431,-77
-69,-141,-73,105,3,-106,-39,-172,-180,-132,-431,-71
-69,-141,-73,105,3,-106,-39,-172,-180,-132,-419,-71
-63,-141,-79,99,9,-112,-39,-172,-180,-132,-419,-71
-63,-147,-85,99,9,-118,-39,-172,-186,-132,-419,-71
-57,-153,-97,105,20,-124,-39,-178,-186,-132,-419,-71
-57,-153,-97,105,20,-124,-39,-184,-192,-138,-425,-71
-57,-153,-97,105,20,-124,-45,-190,-192,-138,-425,-71
-57,-159,-103,105,20,-130,-45,-190,-198,-138,-425,-83
-57,-159,-103,105,20,-130,-51,-196,-198,-138,-425,-83
-57,-153,-97,105,20,-124,-51,-196,-192,-138,-425,-77
-45,-147,-103,93,25,-124,-51,-190,-192,-138,-425,-83
-45,-147,-103,93,25,-124,-45,-196,-192,-138,-431,-83
-45,-147,-103,93,25,-124,-45,-190,-186,-138,-425,-77
-51,-147,-97,93,20,-124,-39,-184,-192,-138,-425,-77
-45,-141,-97,93,25,-118,-39,-178,-192,-132,-419,-77
-45,-135,-91,87,20,-112,-33,-172,-186,-132,-413,-71
-45,-129,-85,87,20,-106,-33,-172,-186,-132,-413,-71
-45,-135,-91,87,20,-112,-33,-172,-186,-138,-413,-71
-51,-147,-97,93,20,-124,-27,-178,-186,-144,-419,-77
-51,-147,-97,93,20,-124,-33,-172,-186,-144,-425,-77
-51,-153,-103,99,25,-130,-27,-172,-186,-138,-425,-77
-51,-147,-97,93,20,-124,-27,-178,-186,-144,-425,-83
-45,-141,-97,93,25,-118,-33,-172,-186,-144,-419,-83
-51,-141,-91,93,20,-118,-33,-172,-186,-144,-419,-83
-51,-147,-97,93,20,-124,-33,-172,-186,-144,-425,-89
-45,-141,-97,93,25,-118,-39,-172,-186,-144,-425,-89
-45,-141,-97,93,25,-118,-39,-172,-186,-144,-425,-89
-45,-147,-103,93,25,-124,-39,-172,-186,-150,-431,-89
-45,-153,-109,99,31,-130,-45,-178,-186,-156,-425,-89
-45,-153,-109,99,31,-130,-45,-178,-186,-156,-425,-83
-39,-153,-115,93,37,-136,-39,-184,-186,-156,-425,-89
-39,-153,-115,93,37,-136,-39,-184,-186,-156,-419,-83
-45,-153,-109,99,31,-130,-39,-184,-186,-156,-413,-83
-45,-147,-103,93,25,-124,-33,-184,-180,-156,-413,-83
-39,-141,-103,87,31,-124,-27,-184,-174,-156,-407,-83
-39,-135,-97,81,25,-118,-21,-190,-174,-156,-407,-83
-51,-141,-91,93,20,-118,-27,-196,-186,-156,-407,-95
-51,-135,-85,87,15,-112,-27,-196,-186,-156,-401,-95
-51,-135,-85,87,15,-112,-27,-196,-192,-156,-401,-95
-57,-141,-85,99,15,-112,-27,-196,-192,-162,-401,-95
-51,-141,-91,93,20,-118,-27,-196,-198,-162,-401,-95
-51,-141,-91,93,20,-118,-27,-196,-198,-162,-401,-95
-51,-141,-91,93,20,-118,-27,-196,-198,-162,-395,-95
-45,-141,-97,93,25,-118,-27,-196,-192,-162,-389,-89
-45,-141,-97,93,25,-118,-27,-196,-192,-162,-389,-89
-39,-135,-97,81,25,-118,-27,-196,-192,-168,-389,-89
-45,-135,-91,87,20,-112,-27,-196,-192,-168,-389,-95
-45,-135,-91,87,20,-112,-21,-196,-192,-168,-383,-95
-51,-135,-85,87,15,-112,-21,-196,-192,-168,-383,-95
-57,-147,-91,99,15,-118,-21,-196,-198,-174,-383,-101
-51,-153,-103,99,25,-130,-21,-196,-198,-168,-383,-95
-45,-153,-109,99,31,-130,-15,-196,-204,-168,-383,-95
-45,-147,-103,93,25,-124,-21,-196,-204,-162,-377,-89
-45,-141,-97,93,25,-118,-21,-202,-204,-162,-377,-83
-51,-147,-97,93,20,-124,-27,-202,-204,-162,-377,-83
-51,-141,-91,93,20,-118,-27,-202,-198,-168,-377,-83
-45,-129,-85,87,20,-106,-21,-202,-198,-168,-377,-83
-45,-129,-85,87,20,-106,-21,-202,-198,-174,-377,-83
-51,-135,-85,87,15,-112,-21,-202,-204,-174,-377,-89
-51,-141,-91,93,20,-118,-27,-208,-204,-174,-377,-95
-51,-147,-97,93,20,-124,-27,-214,-210,-174,-365,-107
-45,-147,-103,93,25,-124,-27,-214,-210,-174,-365,-101
-45,-147,-103,93,25,-124,-21,-208,-204,-174,-365,-95
-33,-141,-109,87,37,-124,-21,-208,-204,-174,-365,-95
-33,-141,-109,87,37,-124,-21,-208,-204,-180,-365,-89
-33,-141,-109,87,37,-124,-21,-208,-204,-174,-359,-83
-33,-141,-109,87,37,-124,-21,-208,-198,-174,-353,-77
-27,-147,-121,81,43,-136,-27,-214,-198,-174,-353,-77
-33,-141,-109,87,37,-124,-21,-214,-198,-168,-347,-77
-33,-141,-109,87,37,-124,-21,-214,-198,-174,-347,-77
-33,-135,-103,81,31,-118,-21,-208,-198,-168,-341,-77
-33,-135,-103,81,31,-118,-21,-208,-192,-168,-341,-77
-39,-141,-103,87,31,-124,-27,-214,-198,-174,-347,-83
-39,-135,-97,81,25,-118,-27,-208,-198,-180,-347,-89
-39,-135,-97,81,25,-118,-27,-208,-198,-186,-347,-89
-39,-135,-97,81,25,-118,-33,-214,-204,-192,-353,-95
-33,-135,-103,81,31,-118,-33,-220,-204,-186,-353,-95
-33,-129,-97,81,31,-112,-39,-220,-204,-180,-347,-89
-27,-129,-103,75,37,-118,-39,-220,-204,-174,-341,-89
-21,-129,-109,75,43,-118,-39,-214,-204,-174,-335,-89
-27,-135,-109,75,37,-124,-39,-214,-204,-180,-335,-89
-33,-147,-115,87,37,-130,-45,-208,-198,-186,-341,-89
-27,-141,-115,81,43,-130,-45,-202,-192,-186,-341,-83
-21,-135,-115,75,43,-124,-51,-202,-192,-186,-341,-77
-27,-135,-109,75,37,-124,-51,-202,-192,-186,-341,-77
-21,-129,-109,75,43,-118,-51,-196,-180,-180,-335,-71
-15,-117,-103,63,43,-112,-39,-190,-174,-174,-329,-65
-15,-93,-79,51,31,-88,-27,-184,-174,-168,-323,-65
-21,-93,-73,57,25,-82,-27,-184,-174,-162,-311,-59
-21,-87,-67,51,20,-76,-21,-184,-168,-156,-293,-53
-9,-81,-73,45,31,-76,-15,-178,-168,-144,-287,-47
-3,-75,-73,33,31,-76,-10,-172,-156,-144,-281,-47
-3,-81,-79,39,37,-82,-10,-166,-150,-138,-275,-47
-3,-69,-67,33,31,-70,-5,-154,-144,-138,-275,-47
14,-51,-67,15,37,-58,-5,-142,-132,-132,-263,-42
19,-39,-61,9,37,-46,1,-142,-126,-114,-251,-31
25,-33,-61,3,43,-46,1,-136,-120,-114,-251,-25
25,-39,-67,3,43,-52,1,-142,-126,-114,-251,-25
19,-45,-67,15,43,-52,-5,-142,-132,-120,-251,-25
19,-51,-73,15,43,-58,-10,-148,-138,-126,-239,-25
25,-45,-73,9,49,-58,-15,-154,-132,-120,-233,-25
31,-45,-79,9,55,-58,-27,-154,-132,-120,-233,-25
31,-51,-85,9,55,-64,-39,-160,-132,-120,-227,-25
31,-51,-85,9,55,-64,-45,-160,-132,-120,-227,-19
37,-51,-91,3,61,-70,-51,-160,-132,-120,-221,-19
37,-45,-85,3,61,-64,-57,-160,-132,-120,-221,-19
37,-39,-79,-2,55,-58,-63,-160,-132,-114,-215,-19
37,-33,-73,-2,55,-52,-63,-166,-132,-114,-209,-19
43,-33,-79,-2,61,-52,-63,-166,-132,-114,-209,-13
37,-39,-79,-2,55,-58,-63,-166,-132,-108,-209,-13
31,-45,-79,9,55,-58,-57,-166,-138,-108,-209,-7
25,-51,-79,9,49,-64,-51,-172,-138,-108,-197,-7
14,-63,-79,21,43,-70,-51,-178,-138,-114,-197,-13
14,-69,-85,27,49,-76,-51,-184,-144,-114,-197,-19
9,-75,-85,27,43,-82,-51,-184,-150,-126,-197,-25
9,-81,-91,33,49,-88,-51,-184,-156,-132,-203,-31
3,-75,-79,33,37,-76,-51,-184,-162,-144,-209,-37
3,-75,-79,33,37,-76,-51,-190,-168,-150,-209,-37
-3,-81,-79,39,37,-82,-57,-196,-174,-156,-215,-42
-3,-87,-85,39,37,-88,-63,-202,-186,-162,-221,-47
-3,-93,-91,45,43,-94,-69,-208,-192,-168,-227,-47
-15,-105,-91,57,37,-100,-69,-214,-192,-168,-227,-59
-9,-111,-103,57,43,-106,-69,-214,-198,-174,-227,-65
-15,-117,-103,63,43,-112,-69,-214,-204,-174,-227,-71
-21,-129,-109,75,43,-118,-69,-220,-210,-186,-227,-77
-21,-117,-97,69,37,-106,-63,-214,-210,-186,-221,-77
-15,-111,-97,57,37,-106,-63,-214,-210,-186,-215,-77
-21,-111,-91,63,31,-100,-63,-214,-210,-186,-221,-77
-27,-117,-91,69,31,-106,-69,-220,-210,-186,-221,-71
-39,-123,-85,75,20,-106,-69,-226,-210,-186,-227,-71
-39,-129,-91,81,25,-112,-69,-226,-216,-186,-233,-77
-39,-135,-97,81,25,-118,-63,-232,-216,-192,-233,-83
-45,-141,-97,93,25,-118,-63,-232,-222,-204,-239,-89
-51,-147,-97,93,20,-124,-63,-238,-234,-210,-239,-95
-51,-153,-103,99,25,-130,-63,-238,-234,-222,-239,-101
-51,-159,-109,99,25,-136,-57,-244,-240,-228,-245,-101
-63,-165,-103,111,20,-136,-63,-244,-246,-234,-251,-101
-63,-165,-103,111,20,-136,-63,-250,-240,-234,-251,-107
-51,-153,-103,99,25,-130,-57,-244,-240,-228,-245,-101
-51,-147,-97,93,20,-124,-63,-250,-240,-228,-245,-101
-57,-141,-85,99,15,-112,-57,-256,-246,-222,-245,-101
-51,-135,-85,87,15,-112,-57,-250,-246,-216,-239,-107
-51,-135,-85,87,15,-112,-57,-244,-246,-210,-233,-107
-45,-135,-91,87,20,-112,-63,-244,-240,-210,-233,-101
-51,-141,-91,93,20,-118,-63,-238,-240,-204,-227,-95
-45,-135,-91,87,20,-112,-63,-232,-234,-204,-221,-89
-39,-129,-91,81,25,-112,-63,-226,-228,-198,-215,-83
-39,-123,-85,75,20,-106,-63,-226,-228,-198,-209,-83
-57,-135,-79,93,9,-106,-63,-232,-222,-198,-209,-83
-57,-129,-73,93,9,-100,-57,-226,-222,-198,-203,-77
-57,-129,-73,93,9,-100,-51,-214,-216,-192,-197,-77
-63,-123,-61,87,-3,-94,-45,-208,-204,-180,-191,-77
-57,-111,-55,81,-3,-82,-39,-202,-192,-168,-185,-77
-57,-99,-43,75,-9,-70,-33,-190,-180,-162,-179,-77
-57,-93,-37,75,-9,-64,-21,-178,-168,-156,-173,-77
-57,-87,-31,69,-15,-58,-10,-160,-150,-144,-167,-71
-63,-81,-21,69,-21,-52,-5,-142,-132,-138,-161,-71
-75,-81,-9,75,-33,-46,7,-124,-120,-126,-149,-71
-87,-87,-3,81,-45,-46,25,-106,-102,-114,-137,-71
-87,-75,9,75,-51,-34,37,-76,-72,-90,-119,-65
-81,-69,9,75,-45,-28,55,-52,-54,-72,-113,-59
-81,-63,15,69,-51,-22,73,-30,-38,-60,-107,-65
-99,-63,33,75,-69,-17,91,-6,-20,-42,-95,-65
-105,-57,45,81,-75,-6,115,24,4,-24,-89,-71
-117,-63,51,87,-87,-6,133,48,28,-6,-77,-77
-123,-75,45,93,-87,-17,157,90,52,6,-65,-77
-123,-75,45,93,-87,-17,187,138,88,18,-59,-83
-135,-81,51,105,-93,-17,229,192,130,36,-47,-89
-135,-69,63,99,-99,-6,277,258,184,64,-35,-95
-141,-51,87,93,-117,18,331,324,256,118,1,-89
-135,-27,105,75,-123,36,379,402,340,190,42,-77
-123,-10,111,63,-117,48,433,498,436,274,107,-65
-111,7,117,51,-111,60,493,618,556,370,179,-47
-99,25,123,33,-111,72,565,768,694,478,251,-25
-75,49,123,9,-99,84,643,936,838,598,341,17
-45,79,123,-13,-81,102,703,1104,988,724,437,65
-9,115,123,-49,-63,120,769,1278,1144,862,545,125
37,151,111,-91,-33,132,829,1464,1306,1024,665,197
97,187,87,-139,9,138,877,1638,1468,1186,791,275
163,223,57,-187,55,144,895,1770,1612,1348,917,353
229,253,21,-241,103,138,889,1860,1738,1486,1031,431
289,283,-9,-283,151,138,865,1896,1840,1606,1145,497
355,319,-37,-331,199,144,823,1902,1924,1714,1241,557
415,343,-73,-373,247,138,769,1878,1984,1792,1325,617
451,343,-109,-391,283,120,709,1806,1996,1828,1367,653
457,319,-139,-385,301,90,649,1662,1924,1786,1337,653
433,265,-169,-349,301,48,595,1440,1768,1624,1217,605
373,211,-163,-289,271,24,553,1200,1564,1402,1043,521
277,163,-115,-217,199,24,529,960,1348,1162,857,431
169,127,-43,-145,109,42,499,726,1132,928,665,323
49,85,33,-67,9,60,475,504,916,700,473,203
-69,25,93,21,-81,60,439,300,700,490,305,83
-165,-27,135,93,-153,54,367,102,478,310,155,-25
-237,-75,159,153,-201,42,265,-82,280,166,47,-101
-273,-99,171,183,-225,36,157,-238,112,58,-23,-155
-291,-105,183,195,-237,36,61,-382,-32,-24,-83,-179
-291,-99,189,189,-243,42,-39,-502,-144,-78,-119,-191
-279,-93,183,183,-231,42,-129,-598,-228,-114,-143,-185
-261,-99,159,177,-213,30,-207,-658,-288,-150,-167,-179
-237,-105,129,171,-183,12,-261,-694,-348,-198,-191,-185
-225,-135,87,177,-159,-22,-291,-718,-402,-252,-221,-191
-195,-153,39,171,-117,-58,-297,-706,-450,-300,-233,-197
-171,-165,3,165,-87,-82,-285,-670,-474,-336,-245,-197
-147,-171,-26,153,-63,-100,-267,-628,-486,-354,-245,-197
-123,-177,-55,147,-33,-118,-243,-568,-474,-360,-245,-191
-111,-177,-67,141,-21,-124,-219,-508,-462,-354,-245,-179
-105,-177,-73,141,-15,-124,-207,-454,-432,-342,-233,-167
-93,-165,-73,129,-9,-118,-195,-400,-396,-324,-227,-155
-75,-147,-73,105,-3,-112,-177,-352,-360,-306,-215,-143
-51,-135,-85,87,15,-112,-159,-316,-336,-288,-203,-137
-39,-123,-85,75,20,-106,-141,-286,-306,-270,-191,-125
-27,-117,-91,69,31,-106,-117,-256,-288,-252,-173,-113
-21,-111,-91,63,31,-100,-87,-232,-264,-240,-155,-107
-15,-105,-91,57,37,-100,-63,-208,-246,-222,-143,-101
-15,-99,-85,51,31,-94,-57,-184,-234,-210,-131,-95
-15,-81,-67,45,25,-76,-51,-166,-216,-192,-119,-83
-9,-69,-61,39,25,-64,-45,-148,-204,-174,-113,-77
-3,-57,-55,27,25,-58,-45,-130,-186,-162,-101,-59
-3,-51,-49,21,20,-52,-45,-118,-174,-150,-89,-53
-3,-45,-43,21,20,-46,-39,-112,-162,-144,-83,-42
-3,-39,-37,15,15,-40,-39,-106,-150,-144,-83,-42
3,-39,-43,15,20,-40,-39,-106,-150,-144,-83,-42
9,-33,-43,9,25,-40,-39,-106,-144,-144,-77,-42
9,-33,-43,9,25,-40,-39,-106,-144,-144,-77,-42
9,-27,-37,3,20,-34,-39,-112,-144,-138,-77,-42
9,-27,-37,3,20,-34,-39,-106,-144,-138,-71,-37
14,-21,-37,3,25,-28,-39,-106,-144,-138,-71,-37
14,-21,-37,3,25,-28,-33,-100,-138,-132,-65,-31
3,-21,-26,9,15,-22,-33,-94,-138,-126,-59,-25
9,-15,-26,-2,15,-22,-33,-94,-132,-126,-59,-25
14,-10,-26,-2,20,-17,-33,-94,-132,-126,-59,-25
14,-10,-26,-2,20,-17,-39,-94,-132,-120,-53,-25
14,-10,-26,-2,20,-17,-39,-94,-126,-120,-47,-31
9,-15,-26,-2,15,-22,-45,-100,-126,-120,-47,-37
9,-15,-26,-2,15,-22,-45,-94,-120,-114,-41,-31
14,-10,-26,-2,20,-17,-45,-88,-120,-108,-41,-25
14,-5,-21,-2,20,-12,-39,-76,-120,-114,-41,-19
19,1,-21,-7,20,-6,-39,-70,-120,-114,-41,-13
25,-5,-31,-7,31,-17,-39,-70,-120,-114,-35,-13
25,-5,-31,-7,31,-17,-39,-76,-114,-108,-35,-13
19,-5,-26,-2,25,-12,-39,-76,-114,-108,-35,-7
25,-5,-31,-7,31,-17,-39,-82,-114,-108,-29,-7
19,1,-21,-7,20,-6,-45,-82,-114,-102,-29,-13
19,7,-15,-7,20,0,-45,-82,-108,-102,-23,-13
14,7,-9,-7,15,0,-45,-82,-102,-102,-23,-19
37,25,-15,-31,25,6,-39,-76,-96,-96,-23,-13
37,37,-3,-37,20,18,-39,-76,-102,-96,-23,-19
31,31,-3,-25,20,18,-39,-76,-96,-90,-29,-13
31,31,-3,-25,20,18,-33,-70,-90,-90,-23,-13
37,31,-9,-31,25,12,-33,-58,-84,-84,-23,-7
43,31,-15,-31,31,12,-27,-52,-78,-78,-11,-1
43,31,-15,-31,31,12,-27,-46,-66,-72,-5,5
49,31,-21,-37,37,6,-27,-40,-60,-66,1,11
49,37,-15,-43,31,12,-33,-40,-60,-60,7,17
43,31,-15,-31,31,12,-33,-46,-60,-60,7,17
49,37,-15,-43,31,12,-39,-46,-54,-48,7,17
49,43,-9,-43,31,18,-33,-40,-48,-48,13,17
61,55,-9,-55,37,24,-33,-35,-43,-42,13,17
67,61,-9,-61,37,30,-39,-24,-38,-42,19,17
67,61,-9,-61,37,30,-39,-24,-38,-42,19,17
61,61,-3,-61,31,30,-45,-18,-38,-42,19,17
67,67,-3,-61,37,36,-51,-18,-38,-36,19,17
67,73,3,-67,31,42,-51,-18,-32,-30,31,23
79,91,9,-79,37,54,-51,-12,-20,-24,37,29
79,103,21,-85,31,66,-51,0,-14,-18,42,35
79,103,21,-85,31,66,-51,0,-14,-18,47,35
85,109,21,-97,31,66,-57,6,-8,-6,47,35
85,109,21,-97,31,66,-63,12,-2,0,53,41
85,109,21,-97,31,66,-63,18,4,12,59,53
91,115,21,-97,37,72,-63,18,16,18,71,65
91,115,21,-97,37,72,-63,24,16,24,77,71
97,121,21,-109,37,72,-57,30,22,30,83,77
91,127,33,-103,31,84,-63,36,28,36,89,77
91,139,45,-109,25,96,-63,42,34,41,101,83
97,157,57,-127,20,108,-69,54,40,46,113,83
109,169,57,-139,25,114,-69,72,52,64,119,89
115,175,57,-139,31,120,-69,84,58,76,125,89
115,175,57,-139,31,120,-63,96,70,88,137,101
115,175,57,-139,31,120,-63,108,82,94,143,107
127,187,57,-151,37,126,-57,120,94,106,149,113
121,181,57,-151,31,120,-57,132,106,106,155,119
115,181,63,-145,25,126,-57,144,118,118,167,125
115,187,69,-145,25,132,-57,156,130,124,179,131
127,199,69,-157,31,138,-51,168,148,142,197,143
133,211,75,-169,31,144,-51,180,160,154,215,149
139,217,75,-175,31,150,-57,192,166,172,227,155
145,223,75,-181,37,150,-63,198,178,190,233,161
157,247,87,-199,37,168,-51,216,196,208,245,173
163,259,93,-205,37,180,-51,228,208,220,257,185
169,277,105,-223,31,192,-51,240,220,226,263,185
175,289,111,-229,31,204,-45,252,232,238,269,191
181,295,111,-235,37,204,-45,270,244,250,281,197
187,307,117,-241,37,216,-45,282,262,268,293,203
187,313,123,-247,31,222,-45,294,274,280,305,209
187,313,123,-247,31,222,-45,312,286,292,317,215
187,313,123,-247,31,222,-45,324,298,304,323,227
199,331,129,-259,37,234,-39,336,316,322,335,239
211,355,141,-277,37,252,-27,348,334,340,347,251
223,367,141,-289,43,258,-21,366,358,352,359,263
223,379,153,-295,37,270,-15,378,370,370,371,275
223,385,159,-301,31,276,-15,396,382,382,383,281
229,391,159,-307,37,276,-15,408,400,394,395,293
229,397,165,-313,31,282,-15,414,406,406,401,299
223,397,171,-307,25,288,-10,420,412,406,407,299
229,397,165,-313,31,282,-10,432,424,418,413,299
229,403,171,-313,31,288,-5,444,436,424,419,305
229,403,171,-313,31,288,1,450,442,436,425,305
241,409,165,-325,37,288,7,456,448,442,437,305
241,409,165,-325,37,288,7,462,460,448,443,305
241,415,171,-325,37,294,13,468,460,454,449,311
235,421,183,-325,25,306,13,474,466,460,449,311
229,427,195,-325,20,312,19,480,472,466,455,311
223,427,201,-319,15,318,19,480,478,472,455,317
223,427,201,-319,15,318,19,480,490,478,461,317
223,427,201,-319,15,318,19,480,490,484,455,317
229,427,195,-325,20,312,19,480,496,484,455,317
235,439,201,-331,20,324,25,480,502,484,455,317
223,433,207,-325,9,324,31,480,496,490,449,317
217,421,201,-319,9,312,31,480,496,484,449,311
217,421,201,-319,9,312,37,486,490,484,443,305
217,427,207,-319,9,318,37,480,490,490,443,305
205,421,213,-313,-3,318,43,468,490,484,443,305
199,421,219,-307,-9,324,43,462,484,478,437,305
199,421,219,-307,-9,324,55,450,472,472,431,299
193,415,219,-301,-9,318,61,444,466,466,425,299
193,409,213,-301,-9,312,67,432,454,454,413,293
181,403,219,-289,-15,312,61,420,436,436,401,281
163,391,225,-271,-27,312,55,408,418,424,383,269
157,379,219,-265,-27,300,55,396,406,406,371,263
145,361,213,-253,-33,288,49,384,388,388,347,251
139,355,213,-241,-33,288,49,366,370,370,329,233
145,355,207,-247,-27,282,49,354,352,352,311,221
139,337,195,-235,-27,270,49,336,328,328,293,209
121,319,195,-217,-33,258,49,312,310,304,281,197
121,295,171,-205,-21,234,43,294,292,280,263,185
121,283,159,-199,-15,222,43,276,274,256,245,173
103,271,165,-181,-27,222,43,258,256,238,227,167
91,253,159,-169,-33,210,49,240,238,214,209,155
79,247,165,-157,-39,210,49,222,214,196,185,149
79,241,159,-157,-39,204,49,210,196,184,167,137
73,229,153,-151,-39,192,49,198,178,166,143,125
67,211,141,-133,-33,180,43,174,160,142,125,107
61,193,129,-127,-33,162,43,156,136,118,113,95
49,175,123,-109,-33,150,37,138,118,94,101,77
37,151,111,-91,-33,132,31,120,100,76,83,59
37,139,99,-85,-27,120,31,102,82,58,71,47
25,121,93,-73,-33,108,25,84,70,46,47,35
14,103,87,-55,-33,96,25,72,52,36,31,23
14,85,69,-49,-27,78,19,54,34,18,13,11
14,79,63,-43,-21,72,19,42,22,6,-5,5
3,79,75,-37,-33,78,13,30,10,-6,-11,5
9,73,63,-43,-27,66,7,24,-8,-24,-23,-7
9,67,57,-37,-21,60,7,12,-14,-36,-29,-7
9,55,45,-31,-15,48,1,6,-32,-54,-35,-19
9,43,33,-25,-9,36,-5,-6,-43,-66,-47,-25
3,37,33,-19,-15,36,-5,-12,-48,-78,-53,-31
3,31,27,-13,-9,30,-10,-24,-48,-84,-65,-37
3,31,27,-13,-9,30,-10,-30,-54,-84,-71,-42
-3,19,21,-7,-9,18,-10,-35,-60,-90,-83,-42
-9,19,27,-2,-15,24,-15,-46,-72,-102,-89,-47
-9,19,27,-2,-15,24,-21,-52,-78,-108,-95,-53
-9,7,15,3,-9,12,-21,-58,-78,-114,-95,-59
-9,1,9,3,-9,6,-21,-64,-90,-120,-101,-59
-9,-10,-3,9,-3,-6,-21,-64,-96,-126,-101,-65
-9,-10,-3,9,-3,-6,-15,-70,-102,-132,-101,-65
-15,-27,-15,15,-3,-22,-15,-70,-102,-138,-101,-65
-21,-33,-15,27,-3,-22,-10,-70,-108,-144,-107,-71
-21,-33,-15,27,-3,-22,-10,-70,-108,-138,-107,-71
-21,-39,-21,27,-3,-28,-10,-70,-108,-138,-113,-77
-27,-45,-21,33,-3,-34,-15,-76,-108,-138,-113,-77
-27,-45,-21,33,-3,-34,-15,-82,-108,-138,-113,-77
-21,-51,-31,33,3,-40,-21,-82,-102,-138,-107,-77
-15,-51,-37,27,9,-46,-27,-82,-108,-138,-107,-77
-15,-51,-37,27,9,-46,-33,-88,-108,-138,-113,-71
-9,-51,-43,27,15,-46,-33,-88,-114,-132,-113,-71
-9,-51,-43,27,15,-46,-33,-88,-114,-132,-113,-65
-15,-51,-37,27,9,-46,-39,-94,-114,-132,-113,-65
-21,-51,-31,33,3,-40,-39,-88,-114,-132,-119,-65
-27,-57,-31,39,3,-46,-39,-88,-108,-132,-113,-59
-33,-63,-31,45,-3,-46,-39,-88,-108,-132,-113,-65
-33,-63,-31,45,-3,-46,-39,-88,-114,-132,-113,-59
-21,-51,-31,33,3,-40,-39,-82,-114,-132,-113,-59
-15,-51,-37,27,9,-46,-39,-82,-114,-132,-113,-59
-15,-51,-37,27,9,-46,-39,-82,-114,-132,-107,-59
-21,-57,-37,39,9,-46,-45,-88,-120,-126,-107,-59
-3,-45,-43,21,20,-46,-51,-82,-114,-120,-107,-59
-3,-45,-43,21,20,-46,-51,-82,-108,-114,-101,-53
-9,-51,-43,27,15,-46,-51,-82,-114,-120,-101,-53
-15,-63,-49,33,15,-58,-51,-88,-114,-120,-107,-53
-21,-63,-43,39,9,-52,-45,-82,-120,-120,-107,-53
-21,-69,-49,45,15,-58,-45,-82,-120,-126,-107,-47
-9,-63,-55,33,20,-58,-39,-76,-114,-120,-107,-47
-9,-69,-61,39,25,-64,-39,-76,-114,-126,-107,-47
-9,-63,-55,33,20,-58,-39,-76,-114,-126,-107,-47
-9,-63,-55,33,20,-58,-39,-76,-108,-132,-107,-47
-15,-75,-61,39,20,-70,-39,-82,-114,-132,-113,-47
-15,-69,-55,39,20,-64,-39,-82,-114,-132,-113,-47
-15,-69,-55,39,20,-64,-45,-88,-114,-126,-107,-42
-15,-75,-61,39,20,-70,-45,-88,-114,-132,-107,-47
-15,-75,-61,39,20,-70,-51,-88,-120,-132,-101,-47
-9,-75,-67,39,25,-70,-51,-82,-120,-126,-101,-47
-9,-75,-67,39,25,-70,-51,-82,-120,-132,-101,-47
-9,-75,-67,39,25,-70,-51,-82,-120,-132,-101,-53
-9,-69,-61,39,25,-64,-45,-82,-114,-132,-101,-47
-3,-63,-61,27,25,-64,-45,-76,-108,-126,-101,-42
-3,-69,-67,33,31,-70,-45,-76,-108,-126,-95,-37
-15,-81,-67,45,25,-76,-45,-76,-114,-132,-101,-37
-21,-93,-73,57,25,-82,-45,-82,-114,-132,-101,-37
-15,-93,-79,51,31,-88,-45,-82,-120,-126,-101,-37
-21,-99,-79,57,25,-88,-45,-82,-120,-126,-101,-42
-21,-93,-73,57,25,-82,-45,-82,-126,-126,-101,-42
-15,-93,-79,51,31,-88,-45,-76,-126,-126,-107,-42
-15,-87,-73,45,25,-82,-45,-76,-126,-132,-107,-42
-15,-87,-73,45,25,-82,-45,-82,-126,-132,-107,-37
-15,-81,-67,45,25,-76,-45,-82,-120,-132,-107,-37
-15,-81,-67,45,25,-76,-45,-88,-120,-132,-107,-37
-15,-87,-73,45,25,-82,-51,-88,-120,-132,-113,-37
-9,-81,-73,45,31,-76,-45,-94,-120,-138,-113,-37
-3,-81,-79,39,37,-82,-45,-94,-120,-138,-113,-37
-3,-87,-85,39,37,-88,-45,-100,-126,-138,-113,-37
-3,-87,-85,39,37,-88,-45,-106,-126,-138,-119,-37
-3,-93,-91,45,43,-94,-45,-106,-132,-138,-119,-37
-21,-99,-79,57,25,-88,-45,-106,-138,-138,-125,-37
-15,-93,-79,51,31,-88,-39,-100,-138,-138,-119,-31
-9,-87,-79,45,31,-82,-39,-100,-138,-144,-119,-31
-9,-93,-85,51,37,-88,-39,-100,-144,-144,-125,-31
-15,-99,-85,51,31,-94,-45,-100,-144,-150,-131,-37
-21,-105,-85,63,31,-94,-45,-100,-144,-150,-131,-42
-21,-111,-91,63,31,-100,-51,-100,-150,-156,-131,-42
-27,-111,-85,63,25,-100,-57,-106,-150,-150,-125,-47
-27,-105,-79,63,25,-94,-51,-106,-156,-150,-125,-42
-21,-105,-85,63,31,-94,-51,-106,-150,-144,-125,-42
-21,-105,-85,63,31,-94,-51,-106,-144,-144,-125,-42
-15,-99,-85,51,31,-94,-51,-106,-138,-144,-125,-42
-9,-99,-91,51,37,-94,-51,-106,-138,-144,-131,-37
-21,-117,-97,69,37,-106,-51,-118,-138,-150,-143,-37
-21,-129,-109,75,43,-118,-51,-118,-144,-150,-143,-37
-21,-129,-109,75,43,-118,-51,-124,-150,-150,-137,-31
-15,-117,-103,63,43,-112,-45,-118,-150,-150,-137,-37
-21,-117,-97,69,37,-106,-51,-124,-156,-162,-143,-42
-33,-129,-97,81,31,-112,-51,-124,-162,-168,-149,-42
-33,-123,-91,75,25,-106,-57,-124,-168,-156,-155,-47
-33,-123,-91,75,25,-106,-57,-124,-168,-156,-155,-53
-33,-123,-91,75,25,-106,-57,-124,-168,-156,-161,-53
-33,-129,-97,81,31,-112,-51,-124,-168,-156,-161,-53
-33,-135,-103,81,31,-118,-51,-124,-168,-162,-167,-53
-27,-135,-109,75,37,-124,-51,-124,-162,-162,-161,-53
-21,-129,-109,75,43,-118,-51,-124,-168,-168,-167,-59
-21,-129,-109,75,43,-118,-51,-124,-168,-174,-173,-59
-27,-123,-97,69,31,-112,-57,-130,-174,-174,-179,-59
-27,-123,-97,69,31,-112,-57,-130,-174,-174,-179,-59
-27,-123,-97,69,31,-112,-57,-136,-180,-168,-173,-53
-21,-123,-103,69,37,-112,-57,-130,-186,-162,-173,-53
-21,-123,-103,69,37,-112,-51,-130,-186,-162,-173,-53
-33,-123,-91,75,25,-106,-51,-130,-186,-168,-173,-53
-33,-123,-91,75,25,-106,-51,-124,-186,-168,-173,-53
-33,-123,-91,75,25,-106,-51,-130,-186,-168,-173,-53
-33,-123,-91,75,25,-106,-45,-130,-186,-174,-173,-53
-27,-111,-85,63,25,-100,-39,-130,-192,-174,-173,-53
-27,-117,-91,69,31,-106,-45,-142,-192,-180,-179,-59
-27,-117,-91,69,31,-106,-51,-148,-192,-180,-185,-59
-27,-129,-103,75,37,-118,-51,-154,-192,-174,-191,-65
-27,-123,-97,69,31,-112,-51,-154,-192,-174,-191,-71
-27,-129,-103,75,37,-118,-57,-154,-192,-180,-191,-71
-27,-129,-103,75,37,-118,-51,-154,-192,-180,-197,-71
-33,-129,-97,81,31,-112,-51,-154,-192,-186,-197,-71
-33,-129,-97,81,31,-112,-51,-154,-198,-186,-197,-77
-33,-123,-91,75,25,-106,-51,-154,-198,-186,-197,-77
-33,-123,-91,75,25,-106,-51,-154,-204,-186,-197,-77
-39,-129,-91,81,25,-112,-51,-154,-210,-192,-197,-83
-39,-129,-91,81,25,-112,-51,-154,-210,-192,-191,-83
-39,-129,-91,81,25,-112,-51,-154,-210,-186,-191,-77
-33,-129,-97,81,31,-112,-45,-160,-210,-186,-197,-77
-33,-129,-97,81,31,-112,-51,-160,-210,-186,-203,-77
-33,-123,-91,75,25,-106,-51,-166,-210,-186,-197,-71
-33,-123,-91,75,25,-106,-51,-166,-210,-186,-197,-71
-45,-129,-85,87,20,-106,-51,-166,-210,-186,-197,-71
-45,-135,-91,87,20,-112,-45,-166,-204,-180,-197,-71
-51,-141,-91,93,20,-118,-45,-166,-204,-186,-197,-71
-51,-135,-85,87,15,-112,-45,-166,-204,-192,-203,-71
-45,-129,-85,87,20,-106,-51,-160,-204,-192,-203,-71
-39,-129,-91,81,25,-112,-51,-160,-204,-198,-203,-71
-39,-129,-91,81,25,-112,-51,-166,-204,-198,-203,-71
-39,-129,-91,81,25,-112,-57,-166,-204,-198,-203,-71
-45,-135,-91,87,20,-112,-63,-172,-210,-198,-203,-77
-45,-129,-85,87,20,-106,-63,-172,-210,-198,-203,-77
-45,-123,-79,81,15,-100,-63,-172,-210,-198,-203,-83
-45,-123,-79,81,15,-100,-57,-178,-216,-204,-209,-83
-39,-123,-85,75,20,-106,-57,-172,-216,-198,-203,-77
-45,-123,-79,81,15,-100,-57,-172,-216,-198,-203,-77
-45,-123,-79,81,15,-100,-57,-172,-216,-204,-203,-77
-51,-123,-73,81,9,-100,-57,-172,-222,-210,-209,-77
-51,-135,-85,87,15,-112,-57,-172,-216,-210,-209,-83
-51,-135,-85,87,15,-112,-57,-172,-216,-210,-209,-77
-51,-135,-85,87,15,-112,-57,-172,-210,-210,-203,-83
-45,-129,-85,87,20,-106,-57,-166,-210,-204,-203,-83
-45,-123,-79,81,15,-100,-57,-166,-210,-204,-197,-83
-45,-123,-79,81,15,-100,-57,-166,-210,-198,-197,-83
-45,-123,-79,81,15,-100,-63,-166,-210,-198,-197,-83
-51,-123,-73,81,9,-100,-69,-172,-216,-204,-203,-89
-45,-117,-73,81,15,-94,-69,-172,-216,-198,-197,-89
-45,-117,-73,81,15,-94,-69,-166,-210,-198,-197,-89
-45,-123,-79,81,15,-100,-69,-166,-210,-198,-197,-89
-45,-123,-79,81,15,-100,-69,-172,-216,-204,-197,-89
-45,-123,-79,81,15,-100,-63,-172,-216,-204,-191,-89
-45,-123,-79,81,15,-100,-63,-172,-222,-204,-191,-89
-45,-111,-67,75,9,-88,-57,-172,-222,-204,-185,-83
-39,-111,-73,69,15,-94,-57,-172,-222,-204,-185,-89
-33,-105,-73,69,20,-88,-51,-178,-222,-198,-185,-83
-33,-105,-73,69,20,-88,-57,-178,-222,-198,-191,-83
-33,-111,-79,69,20,-94,-57,-184,-222,-198,-197,-89
-45,-123,-79,81,15,-100,-57,-184,-222,-204,-197,-95
-39,-129,-91,81,25,-112,-63,-178,-222,-198,-191,-95
-45,-129,-85,87,20,-106,-63,-178,-222,-204,-191,-95
-39,-117,-79,75,20,-100,-57,-172,-222,-198,-185,-89
-39,-117,-79,75,20,-100,-57,-172,-222,-198,-191,-89
-51,-123,-73,81,9,-100,-57,-172,-222,-204,-191,-95
-57,-117,-61,87,3,-88,-57,-172,-222,-204,-191,-95
-51,-111,-61,75,3,-88,-51,-178,-222,-198,-197,-101
-51,-111,-61,75,3,-88,-51,-172,-222,-204,-191,-101
-45,-111,-67,75,9,-88,-51,-172,-222,-204,-191,-101
-39,-111,-73,69,15,-94,-51,-172,-222,-204,-197,-101
-45,-123,-79,81,15,-100,-57,-178,-228,-204,-191,-101
-45,-123,-79,81,15,-100,-57,-172,-228,-204,-191,-101
-45,-129,-85,87,20,-106,-57,-178,-228,-204,-185,-101
-51,-129,-79,87,15,-106,-63,-178,-228,-204,-185,-101
-51,-117,-67,81,9,-94,-63,-178,-228,-198,-185,-95
-45,-111,-67,75,9,-88,-63,-178,-222,-198,-185,-95
-51,-111,-61,75,3,-88,-69,-184,-222,-198,-185,-95
-57,-117,-61,87,3,-88,-69,-184,-222,-204,-185,-95
-45,-111,-67,75,9,-88,-69,-184,-216,-210,-185,-95
-39,-105,-67,69,15,-88,-69,-184,-216,-210,-179,-95
-39,-105,-67,69,15,-88,-69,-184,-216,-210,-179,-95
-45,-111,-67,75,9,-88,-69,-178,-216,-210,-185,-95
-51,-117,-67,81,9,-94,-69,-184,-222,-210,-191,-101
-51,-123,-73,81,9,-100,-69,-190,-228,-210,-191,-107
-51,-117,-67,81,9,-94,-69,-190,-228,-210,-191,-107
-51,-117,-67,81,9,-94,-69,-190,-228,-216,-191,-107
-51,-111,-61,75,3,-88,-69,-190,-228,-216,-185,-107
-51,-105,-55,75,3,-82,-63,-190,-222,-216,-185,-101
-45,-105,-61,75,9,-82,-63,-190,-216,-216,-179,-101
-45,-105,-61,75,9,-82,-69,-190,-210,-210,-179,-101
-45,-105,-61,75,9,-82,-63,-190,-210,-210,-173,-101
-45,-105,-61,75,9,-82,-69,-190,-210,-204,-167,-101
-45,-111,-67,75,9,-88,-69,-190,-210,-204,-167,-107
-45,-117,-73,81,15,-94,-69,-190,-210,-204,-167,-107
-45,-111,-67,75,9,-88,-69,-184,-210,-204,-167,-113
-39,-111,-73,69,15,-94,-63,-184,-216,-204,-161,-107
-39,-105,-67,69,15,-88,-63,-184,-216,-204,-161,-107
-39,-99,-61,63,9,-82,-63,-184,-216,-210,-161,-107
-33,-99,-67,63,15,-82,-63,-178,-222,-216,-155,-107
-33,-99,-67,63,15,-82,-57,-172,-222,-210,-155,-107
-33,-99,-67,63,15,-82,-63,-178,-222,-216,-155,-107
-39,-105,-67,69,15,-88,-69,-178,-222,-210,-149,-107
-27,-99,-73,57,20,-88,-69,-172,-216,-204,-137,-95
-27,-87,-61,51,15,-76,-57,-166,-210,-198,-131,-95
-27,-75,-49,45,9,-64,-51,-160,-204,-192,-125,-89
-27,-69,-43,45,9,-58,-39,-154,-192,-186,-125,-83
-27,-63,-37,39,3,-52,-39,-148,-192,-180,-125,-83
-27,-57,-31,39,3,-46,-33,-148,-186,-180,-119,-77
-21,-51,-31,33,3,-40,-33,-148,-186,-174,-113,-77
-15,-45,-31,27,9,-40,-27,-148,-180,-162,-107,-77
-15,-33,-21,21,3,-28,-27,-142,-174,-156,-107,-77
-3,-21,-21,9,9,-22,-21,-136,-168,-150,-101,-71
3,-15,-21,3,9,-17,-15,-124,-150,-144,-95,-59
3,-15,-21,3,9,-17,-21,-124,-144,-138,-95,-59
9,-10,-21,-2,15,-17,-21,-124,-144,-138,-95,-53
9,-10,-21,-2,15,-17,-27,-130,-144,-144,-101,-59
9,-15,-26,-2,15,-22,-33,-136,-150,-150,-95,-65
9,-15,-26,-2,15,-22,-39,-142,-150,-150,-95,-65
14,-10,-26,-2,20,-17,-45,-142,-156,-150,-95,-65
19,-10,-31,-2,25,-17,-51,-154,-156,-150,-95,-59
31,-5,-37,-7,37,-17,-63,-148,-162,-150,-95,-59
37,1,-37,-19,37,-17,-63,-148,-162,-150,-95,-53
31,-10,-43,-7,37,-22,-69,-148,-162,-144,-95,-53
19,-10,-31,-2,25,-17,-75,-148,-156,-144,-95,-47
19,-15,-37,-2,25,-22,-75,-154,-156,-144,-95,-47
19,-15,-37,-2,25,-22,-81,-160,-162,-144,-89,-42
14,-10,-26,-2,20,-17,-81,-160,-162,-138,-89,-42
14,-10,-26,-2,20,-17,-81,-160,-162,-138,-95,-42
9,-10,-21,-2,15,-17,-75,-160,-162,-138,-95,-42
9,-15,-26,-2,15,-22,-75,-160,-168,-138,-95,-42
-3,-27,-26,9,9,-28,-81,-166,-174,-150,-101,-53
3,-27,-31,9,15,-28,-75,-172,-180,-150,-101,-59
3,-33,-37,15,20,-34,-69,-172,-180,-156,-107,-59
3,-39,-43,15,20,-40,-69,-172,-180,-156,-107,-59
-9,-45,-37,27,15,-40,-75,-178,-186,-162,-119,-65
-15,-57,-43,33,15,-52,-75,-184,-192,-174,-125,-71
-15,-57,-43,33,15,-52,-81,-184,-198,-174,-125,-77
-9,-57,-49,33,20,-52,-81,-190,-204,-180,-137,-77
-9,-63,-55,33,20,-58,-87,-196,-210,-186,-143,-83
-9,-63,-55,33,20,-58,-93,-202,-216,-186,-143,-83
-3,-63,-61,27,25,-64,-87,-196,-222,-186,-143,-83
-3,-63,-61,27,25,-64,-87,-196,-222,-192,-149,-83
-9,-69,-61,39,25,-64,-87,-196,-216,-192,-149,-83
-15,-75,-61,39,20,-70,-87,-202,-222,-198,-149,-89
-27,-81,-55,51,15,-70,-93,-208,-222,-204,-149,-89
-27,-75,-49,45,9,-64,-93,-208,-222,-204,-155,-95
-27,-75,-49,45,9,-64,-93,-208,-222,-204,-155,-95
-33,-75,-43,51,3,-58,-93,-208,-222,-210,-161,-95
-33,-69,-37,51,3,-52,-81,-208,-228,-210,-167,-101
-39,-81,-43,57,3,-64,-81,-208,-228,-216,-173,-107
-57,-93,-37,75,-9,-64,-87,-220,-240,-228,-185,-113
-69,-105,-37,87,-15,-70,-93,-226,-246,-234,-191,-119
-75,-111,-37,87,-21,-76,-87,-232,-252,-240,-191,-125
-69,-111,-43,87,-15,-76,-87,-232,-258,-240,-191,-125
-75,-111,-37,87,-21,-76,-93,-238,-264,-246,-197,-131
-75,-111,-37,87,-21,-76,-93,-238,-264,-246,-203,-137
-69,-111,-43,87,-15,-76,-87,-244,-264,-246,-203,-131
-69,-117,-49,93,-9,-82,-87,-250,-270,-246,-203,-125
-69,-111,-43,87,-15,-76,-87,-250,-264,-246,-203,-125
-69,-111,-43,87,-15,-76,-81,-244,-264,-240,-197,-119
-69,-105,-37,87,-15,-70,-81,-244,-258,-240,-197,-113
-63,-99,-37,75,-15,-70,-87,-238,-258,-234,-191,-113
-63,-99,-37,75,-15,-70,-81,-238,-252,-234,-185,-107
-69,-93,-26,81,-21,-58,-81,-232,-252,-234,-185,-101
-75,-87,-15,75,-33,-52,-87,-226,-252,-228,-179,-95
-75,-81,-9,75,-33,-46,-87,-226,-246,-228,-173,-89
-69,-75,-9,69,-33,-40,-81,-214,-240,-216,-173,-83
-51,-63,-15,51,-21,-40,-81,-208,-228,-204,-167,-83
-57,-63,-9,57,-27,-34,-81,-202,-222,-198,-161,-83
-69,-69,-3,69,-33,-34,-75,-202,-216,-192,-161,-89
-69,-63,3,63,-39,-28,-63,-190,-204,-186,-161,-83
-63,-45,15,51,-39,-17,-51,-178,-186,-168,-143,-83
-69,-39,27,51,-51,-6,-39,-166,-174,-162,-137,-83
-81,-39,39,57,-63,0,-27,-154,-156,-150,-131,-83
-87,-33,51,57,-69,6,-15,-136,-138,-138,-125,-77
-87,-33,51,57,-69,6,-5,-112,-114,-126,-119,-77
-93,-27,63,57,-81,18,13,-82,-90,-108,-113,-77
-99,-27,69,57,-87,18,31,-52,-66,-96,-107,-77
-111,-33,75,69,-93,18,49,-30,-48,-90,-107,-83
-123,-33,87,75,-105,24,67,-12,-38,-78,-95,-89
-123,-27,93,69,-111,30,91,12,-20,-60,-89,-95
-117,-15,99,63,-111,42,109,42,4,-48,-77,-89
-117,-21,93,69,-105,36,127,72,28,-30,-71,-95
-129,-33,93,81,-111,30,157,108,58,-12,-65,-101
-147,-39,105,87,-129,30,193,156,106,12,-59,-113
-159,-27,129,87,-147,48,241,222,154,41,-47,-113
-159,-15,141,81,-153,60,295,294,226,82,-23,-107
-165,7,171,81,-165,90,349,366,304,148,13,-101
-153,31,183,63,-165,108,409,462,400,226,59,-83
-141,49,189,45,-165,120,469,582,508,322,119,-59
-135,67,201,33,-165,132,541,726,640,430,185,-37
-123,91,213,15,-165,150,613,888,784,550,269,-13
-93,115,207,-7,-147,162,679,1056,940,676,365,29
-45,157,201,-55,-123,180,739,1230,1096,814,473,89
3,193,189,-97,-93,192,799,1422,1270,970,599,161
55,235,177,-139,-57,210,853,1602,1438,1132,725,245
121,277,153,-199,-15,216,877,1746,1588,1288,857,329
181,313,129,-247,25,222,871,1830,1714,1438,977,407
241,355,111,-295,67,234,853,1872,1822,1576,1085,485
307,391,81,-343,115,240,817,1884,1912,1696,1193,551
367,427,57,-391,157,246,757,1860,1984,1786,1271,605
409,439,27,-421,193,234,697,1800,2008,1846,1319,647
427,415,-15,-415,223,204,631,1662,1960,1828,1313,653
409,361,-49,-385,229,156,565,1452,1816,1684,1217,611
355,289,-67,-319,211,114,517,1206,1600,1456,1049,533
271,235,-37,-247,157,102,469,954,1372,1204,857,437
163,187,21,-169,73,108,439,714,1150,964,665,341
49,133,81,-91,-15,108,409,492,922,730,467,233
-69,67,135,3,-99,102,367,282,694,514,281,113
-165,1,165,81,-165,84,301,84,466,310,119,5
-231,-33,195,129,-213,78,217,-94,262,154,-5,-83
-273,-63,207,165,-243,72,121,-256,88,41,-95,-149
-291,-75,213,177,-255,66,25,-394,-54,-54,-161,-191
-303,-87,213,189,-261,60,-75,-514,-174,-132,-203,-215
-297,-99,195,195,-249,48,-165,-604,-258,-180,-233,-215
-285,-105,177,195,-231,36,-231,-664,-318,-216,-251,-215
-273,-111,159,189,-219,24,-273,-694,-372,-258,-275,-209
-261,-129,129,195,-195,0,-303,-712,-426,-300,-305,-215
-237,-135,99,183,-171,-17,-315,-712,-462,-336,-329,-221
-213,-135,75,171,-147,-28,-303,-676,-480,-360,-335,-221
-183,-135,45,153,-117,-46,-285,-622,-486,-372,-341,-215
-165,-135,27,147,-99,-52,-267,-556,-474,-372,-335,-215
-141,-129,9,135,-75,-58,-243,-484,-456,-360,-323,-203
-117,-135,-21,123,-51,-76,-231,-418,-426,-348,-317,-197
-105,-135,-31,117,-39,-82,-219,-364,-390,-330,-299,-185
-81,-117,-37,99,-21,-76,-189,-316,-354,-306,-275,-167
-57,-93,-37,75,-9,-64,-159,-274,-318,-276,-257,-155
-45,-75,-31,57,-9,-52,-135,-244,-282,-252,-239,-137
-45,-63,-21,51,-15,-40,-111,-226,-258,-234,-221,-125
-45,-63,-21,51,-15,-40,-93,-214,-240,-216,-203,-119
-33,-45,-15,39,-9,-28,-75,-190,-222,-204,-191,-113
-27,-39,-15,27,-9,-28,-63,-172,-204,-192,-179,-101
-27,-33,-9,27,-9,-22,-57,-154,-198,-180,-167,-95
-27,-21,3,21,-15,-12,-57,-136,-186,-168,-161,-83
-27,-15,9,15,-21,-6,-57,-130,-174,-162,-149,-77
-27,-10,15,15,-21,0,-51,-124,-162,-156,-143,-71
-33,-10,21,21,-27,6,-45,-124,-156,-150,-137,-65
-33,1,33,15,-33,18,-45,-130,-150,-144,-131,-65
-27,7,33,9,-27,18,-39,-130,-144,-138,-131,-59
-27,7,33,9,-27,18,-45,-130,-144,-132,-137,-59
-21,7,27,9,-21,18,-39,-130,-138,-126,-131,-53
-21,13,33,3,-27,24,-45,-130,-138,-126,-131,-53
-21,13,33,3,-27,24,-45,-124,-138,-126,-125,-53
-21,13,33,3,-27,24,-45,-124,-138,-126,-119,-53
-27,13,39,3,-33,24,-45,-124,-132,-120,-113,-53
-21,19,39,3,-27,30,-45,-124,-132,-120,-113,-53
-27,19,45,3,-33,30,-45,-124,-132,-120,-113,-53
-21,31,51,-2,-33,42,-39,-118,-132,-114,-107,-53
-9,43,51,-13,-27,48,-39,-118,-126,-114,-101,-59
-9,43,51,-13,-27,48,-39,-118,-126,-108,-101,-59
-9,37,45,-13,-27,42,-45,-118,-126,-108,-101,-59
-9,37,45,-13,-27,42,-51,-112,-120,-108,-107,-53
3,37,33,-19,-15,36,-51,-100,-108,-102,-101,-53
-3,31,33,-13,-15,30,-51,-94,-108,-96,-101,-53
-9,31,39,-7,-21,36,-51,-94,-102,-96,-95,-47
-3,31,33,-13,-15,30,-51,-88,-96,-90,-89,-42
3,37,33,-19,-15,36,-51,-88,-102,-90,-83,-42
3,43,39,-19,-15,42,-51,-94,-102,-84,-77,-42
3,49,45,-25,-21,48,-45,-88,-96,-84,-71,-42
9,61,51,-37,-21,54,-45,-88,-84,-78,-59,-42
9,67,57,-37,-21,60,-45,-88,-84,-72,-53,-42
9,61,51,-37,-21,54,-45,-88,-78,-72,-53,-42
9,61,51,-37,-21,54,-45,-82,-72,-72,-53,-42
14,55,39,-31,-9,48,-39,-82,-72,-72,-47,-42
9,55,45,-31,-15,48,-39,-76,-72,-66,-41,-37
9,49,39,-31,-15,42,-39,-70,-72,-66,-35,-31
9,55,45,-31,-15,48,-39,-70,-72,-60,-29,-25
9,61,51,-37,-21,54,-39,-76,-72,-54,-23,-25
9,61,51,-37,-21,54,-39,-70,-66,-54,-23,-25
14,67,51,-37,-15,60,-39,-64,-60,-48,-11,-19
25,79,51,-49,-9,66,-39,-58,-54,-42,-5,-13
19,73,51,-43,-15,66,-39,-58,-54,-36,1,-13
19,73,51,-43,-15,66,-45,-52,-48,-36,1,-19
19,73,51,-43,-15,66,-45,-40,-43,-30,13,-13
31,85,51,-55,-9,72,-39,-35,-32,-24,19,-7
31,91,57,-55,-9,78,-45,-35,-26,-18,25,-7
31,91,57,-55,-9,78,-39,-30,-20,-6,31,-7
37,103,63,-67,-9,84,-45,-24,-20,-6,37,-1
37,109,69,-73,-15,90,-45,-24,-14,0,37,-1
37,109,69,-73,-15,90,-45,-18,-8,6,42,5
43,115,69,-73,-9,96,-45,-6,-8,12,47,5
43,115,69,-73,-9,96,-45,-6,-2,18,59,11
37,109,69,-73,-15,90,-51,-6,-2,18,53,11
43,109,63,-73,-9,90,-45,6,10,30,65,17
43,115,69,-73,-9,96,-51,12,16,36,71,23
43,121,75,-79,-15,102,-51,18,22,41,77,23
49,133,81,-91,-15,108,-45,30,28,41,83,29
43,139,93,-85,-21,120,-45,36,34,52,83,35
49,145,93,-97,-21,120,-45,42,40,58,95,41
55,151,93,-97,-15,126,-45,48,52,64,101,47
61,163,99,-109,-15,132,-51,60,58,76,107,53
67,163,93,-109,-9,132,-51,66,70,88,119,59
73,163,87,-115,-3,126,-51,78,82,100,131,59
79,169,87,-121,-3,132,-45,90,94,112,131,65
85,181,93,-133,-3,138,-45,96,106,118,137,71
85,187,99,-133,-3,144,-45,108,118,130,149,83
85,193,105,-139,-9,150,-45,120,130,142,161,89
85,199,111,-139,-9,156,-39,126,142,154,173,95
97,211,111,-151,-3,162,-39,138,148,166,179,101
109,223,111,-163,3,168,-33,150,160,172,191,107
121,235,111,-175,9,174,-27,168,172,184,203,113
121,235,111,-175,9,174,-27,180,190,196,215,119
127,235,105,-175,15,174,-27,198,202,214,227,125
139,241,99,-187,20,174,-27,204,214,226,233,131
133,247,111,-187,15,180,-21,216,232,244,251,137
127,253,123,-187,3,192,-15,234,250,262,269,149
133,265,129,-199,3,198,-15,252,268,280,281,161
145,277,129,-211,9,204,-10,264,280,286,293,167
145,283,135,-211,9,210,-10,282,298,304,299,173
151,289,135,-217,9,216,-10,306,316,322,317,179
157,301,141,-229,9,222,-10,324,334,346,329,197
157,313,153,-235,3,234,-5,336,346,364,341,203
163,313,147,-235,9,234,-5,348,364,376,359,215
169,325,153,-247,9,240,1,366,376,394,365,227
169,337,165,-253,3,252,7,378,388,406,377,227
175,343,165,-253,9,258,7,390,406,412,383,233
181,355,171,-265,9,264,13,408,424,424,395,239
175,361,183,-265,-3,276,13,414,436,436,401,251
175,367,189,-265,-3,282,13,426,448,448,407,257
181,373,189,-277,-3,282,19,432,460,460,419,263
193,391,195,-289,3,294,25,450,478,478,437,275
205,403,195,-301,9,300,31,456,490,496,449,281
217,415,195,-313,15,306,37,474,502,508,461,293
205,415,207,-307,3,312,37,480,508,514,473,293
205,415,207,-307,3,312,37,486,508,520,473,293
205,427,219,-313,-3,324,43,492,520,526,479,299
205,433,225,-319,-9,330,43,492,532,538,491,299
205,433,225,-319,-9,330,49,498,538,544,497,305
205,433,225,-319,-9,330,49,504,544,550,503,311
205,427,219,-313,-3,324,49,510,550,550,509,311
199,421,219,-307,-9,324,55,516,556,550,509,311
193,421,225,-307,-15,324,61,522,562,556,515,311
205,427,219,-313,-3,324,67,522,562,562,521,317
193,427,231,-307,-15,330,73,528,568,562,533,317
187,421,231,-301,-21,330,73,522,568,568,533,311
181,421,237,-301,-27,330,73,522,568,568,533,305
181,427,243,-301,-27,336,79,522,568,568,533,305
187,427,237,-301,-21,336,85,522,568,562,527,299
181,421,237,-301,-27,330,85,522,562,556,527,293
175,415,237,-289,-27,330,91,510,556,550,521,293
175,409,231,-289,-27,324,91,504,544,544,515,287
163,397,231,-277,-33,318,91,492,532,538,503,275
157,391,231,-271,-33,312,91,480,520,526,497,269
151,385,231,-265,-39,312,91,468,514,520,491,263
151,391,237,-265,-39,318,91,456,502,508,479,251
145,385,237,-265,-45,312,91,444,490,490,467,245
139,373,231,-253,-45,306,91,426,472,472,455,233
133,355,219,-241,-39,288,85,414,454,454,437,221
127,349,219,-235,-45,288,85,396,436,436,419,209
121,337,213,-229,-45,276,85,384,418,418,407,197
109,313,201,-211,-45,258,79,360,388,400,395,179
97,295,195,-193,-45,246,73,336,364,376,383,161
85,271,183,-175,-45,228,73,306,340,358,365,143
85,259,171,-169,-39,216,73,282,316,340,347,137
73,247,171,-157,-45,210,67,264,298,322,329,125
61,235,171,-145,-51,204,67,246,280,298,305,113
61,223,159,-139,-45,192,73,234,268,274,287,101
55,211,153,-127,-45,186,67,216,238,244,263,89
55,205,147,-127,-45,180,67,204,220,220,251,77
49,193,141,-121,-45,168,67,192,202,196,233,59
43,181,135,-109,-45,162,61,168,178,178,221,47
31,157,123,-91,-45,144,55,138,154,154,203,35
19,133,111,-73,-45,126,55,120,136,136,179,23
14,121,105,-67,-45,114,55,96,118,124,167,17
14,121,105,-67,-45,114,49,84,106,118,155,11
19,115,93,-61,-33,108,43,72,94,100,143,-1
14,103,87,-55,-33,96,31,54,76,82,125,-19
3,91,87,-43,-39,90,25,48,64,64,113,-37
-3,73,75,-37,-39,72,25,36,46,41,101,-42
-9,67,75,-25,-39,72,25,24,34,30,95,-53
-9,55,63,-19,-33,60,25,12,22,18,89,-59
-15,43,57,-13,-33,48,19,0,16,6,83,-65
-15,31,45,-7,-27,36,19,-6,4,0,77,-65
-21,19,39,3,-27,30,7,-12,-2,-6,65,-77
-21,7,27,9,-21,18,7,-18,-8,-12,59,-77
-21,1,21,9,-21,12,1,-24,-14,-18,47,-83
-27,-10,15,15,-21,0,-5,-30,-26,-30,37,-89
-39,-15,21,21,-33,0,-10,-35,-38,-36,31,-101
-45,-21,21,33,-33,0,-10,-46,-43,-42,25,-107
-45,-27,15,33,-33,-6,-5,-52,-43,-48,25,-107
-39,-27,9,27,-27,-12,-10,-58,-54,-48,25,-107
-39,-27,9,27,-27,-12,-10,-64,-60,-54,25,-107
-45,-39,3,39,-27,-17,-10,-70,-66,-66,19,-113
-39,-33,3,33,-21,-17,-10,-70,-66,-66,19,-113
-39,-33,3,33,-21,-17,-10,-76,-66,-66,13,-113
-33,-39,-9,33,-15,-22,-10,-76,-66,-66,13,-113
-33,-45,-15,39,-9,-28,-10,-76,-66,-66,13,-113
-33,-51,-21,39,-9,-34,-10,-82,-72,-66,13,-113
-33,-57,-26,45,-3,-40,-10,-82,-72,-66,13,-113
-33,-57,-26,45,-3,-40,-10,-76,-72,-66,19,-113
-27,-57,-31,39,3,-46,-10,-76,-72,-66,7,-119
-33,-51,-21,39,-9,-34,-10,-76,-66,-60,13,-119
-33,-45,-15,39,-9,-28,-10,-76,-60,-60,19,-119
-33,-51,-21,39,-9,-34,-15,-76,-60,-66,19,-119
-39,-63,-26,45,-9,-46,-15,-82,-66,-66,19,-125
-33,-69,-37,51,3,-52,-15,-82,-60,-60,19,-125
-27,-69,-43,45,9,-58,-10,-82,-60,-60,13,-119
-27,-69,-43,45,9,-58,-10,-82,-60,-60,13,-113
-27,-69,-43,45,9,-58,-10,-82,-60,-60,19,-113
-27,-69,-43,45,9,-58,-10,-82,-66,-54,25,-107
-27,-75,-49,45,9,-64,-10,-82,-66,-54,25,-107
-27,-75,-49,45,9,-64,-10,-82,-66,-54,25,-107
-27,-75,-49,45,9,-64,-10,-82,-60,-60,31,-101
-27,-75,-49,45,9,-64,-5,-82,-60,-60,37,-101
-27,-63,-37,39,3,-52,-10,-82,-66,-60,37,-101
-27,-75,-49,45,9,-64,-15,-82,-66,-66,31,-113
-27,-69,-43,45,9,-58,-10,-76,-66,-60,31,-113
-27,-69,-43,45,9,-58,-10,-70,-66,-60,31,-113
-33,-75,-43,51,3,-58,-15,-70,-66,-66,31,-113
-33,-75,-43,51,3,-58,-15,-64,-60,-60,31,-107
-33,-75,-43,51,3,-58,-15,-64,-60,-66,25,-101
-39,-81,-43,57,3,-64,-15,-70,-60,-60,19,-95
-39,-81,-43,57,3,-64,-15,-70,-60,-54,25,-89
-33,-87,-55,57,9,-70,-15,-70,-60,-48,31,-83
-21,-81,-61,51,20,-70,-10,-64,-54,-48,37,-77
-9,-75,-67,39,25,-70,-10,-58,-48,-42,37,-71
-15,-75,-61,39,20,-70,-10,-52,-48,-48,37,-71
-21,-81,-61,51,20,-70,-10,-52,-48,-48,37,-83
-21,-87,-67,51,20,-76,-10,-52,-48,-48,37,-77
-27,-93,-67,57,20,-82,-10,-52,-54,-48,31,-77
-21,-93,-73,57,25,-82,-10,-52,-54,-48,31,-65
-27,-93,-67,57,20,-82,-10,-58,-60,-48,31,-59
-27,-93,-67,57,20,-82,-15,-58,-66,-48,25,-59
-27,-93,-67,57,20,-82,-15,-58,-66,-48,19,-53
-33,-99,-67,63,15,-82,-21,-58,-72,-54,19,-53
-33,-93,-61,63,15,-76,-21,-58,-72,-60,13,-42
-33,-87,-55,57,9,-70,-15,-58,-72,-66,19,-42
-27,-81,-55,51,15,-70,-10,-52,-66,-66,25,-31
-27,-81,-55,51,15,-70,-10,-52,-72,-72,25,-25
-21,-81,-61,51,20,-70,-10,-52,-72,-66,25,-19
-21,-81,-61,51,20,-70,-10,-52,-78,-66,25,-19
-27,-87,-61,51,15,-76,-10,-58,-78,-66,25,-19
-33,-93,-61,63,15,-76,-10,-64,-78,-60,25,-19
-33,-93,-61,63,15,-76,-10,-70,-78,-66,25,-19
-27,-87,-61,51,15,-76,-10,-70,-78,-72,25,-19
-21,-87,-67,51,20,-76,-10,-76,-84,-78,13,-19
-27,-99,-73,57,20,-88,-15,-76,-90,-84,13,-19
-33,-111,-79,69,20,-94,-15,-82,-96,-90,7,-19
-27,-117,-91,69,31,-106,-21,-82,-96,-90,7,-25
-21,-111,-91,63,31,-100,-21,-76,-96,-84,13,-19
-15,-111,-97,57,37,-106,-15,-70,-96,-84,13,-13
-15,-105,-91,57,37,-100,-15,-70,-90,-78,13,-13
-15,-105,-91,57,37,-100,-10,-70,-90,-78,13,-7
-27,-111,-85,63,25,-100,-10,-70,-90,-84,7,-7
-33,-111,-79,69,20,-94,-15,-76,-96,-84,1,-13
-33,-111,-79,69,20,-94,-15,-76,-102,-90,1,-19
-27,-105,-79,63,25,-94,-10,-76,-102,-90,1,-19
-21,-105,-85,63,31,-94,-15,-82,-108,-90,1,-25
-21,-99,-79,57,25,-88,-15,-88,-114,-96,1,-25
-15,-99,-85,51,31,-94,-15,-88,-114,-96,1,-25
-15,-99,-85,51,31,-94,-21,-88,-114,-96,-5,-25
-15,-105,-91,57,37,-100,-21,-94,-114,-96,1,-25
-21,-111,-91,63,31,-100,-21,-94,-114,-96,-5,-19
-21,-111,-91,63,31,-100,-21,-100,-108,-102,-11,-19
-27,-117,-91,69,31,-106,-27,-106,-114,-102,-11,-25
-33,-123,-91,75,25,-106,-33,-112,-120,-108,-23,-31
-33,-117,-85,75,25,-100,-33,-106,-120,-108,-23,-25
-27,-117,-91,69,31,-106,-33,-106,-120,-108,-29,-31
-15,-111,-97,57,37,-106,-27,-106,-114,-108,-23,-31
-15,-123,-109,63,43,-118,-27,-106,-114,-108,-29,-31
-27,-135,-109,75,37,-124,-21,-106,-120,-108,-35,-37
-21,-135,-115,75,43,-124,-15,-106,-120,-108,-35,-37
-33,-141,-109,87,37,-124,-15,-106,-120,-120,-35,-37
-39,-141,-103,87,31,-124,-21,-112,-126,-126,-41,-37
-33,-129,-97,81,31,-112,-21,-112,-126,-126,-35,-42
-33,-123,-91,75,25,-106,-27,-118,-132,-132,-41,-42
-39,-123,-85,75,20,-106,-27,-118,-126,-132,-35,-42
-39,-123,-85,75,20,-106,-27,-118,-126,-132,-41,-42
-39,-123,-85,75,20,-106,-27,-124,-132,-132,-41,-42
-33,-129,-97,81,31,-112,-27,-124,-132,-132,-47,-42
-33,-129,-97,81,31,-112,-27,-124,-132,-138,-53,-42
-27,-129,-103,75,37,-118,-21,-124,-132,-138,-53,-42
-27,-129,-103,75,37,-118,-21,-124,-132,-138,-59,-42
-33,-135,-103,81,31,-118,-21,-124,-138,-138,-65,-42
-39,-141,-103,87,31,-124,-21,-124,-144,-144,-71,-42
-45,-135,-91,87,20,-112,-21,-124,-144,-144,-71,-47
-45,-135,-91,87,20,-112,-21,-124,-150,-144,-71,-47
-39,-135,-97,81,25,-118,-21,-124,-150,-150,-71,-47
-39,-135,-97,81,25,-118,-21,-130,-156,-150,-71,-47
-39,-141,-103,87,31,-124,-21,-130,-162,-150,-77,-47
-33,-141,-109,87,37,-124,-21,-136,-162,-150,-77,-42
-39,-141,-103,87,31,-124,-27,-136,-168,-156,-77,-42
-45,-153,-109,99,31,-130,-33,-136,-168,-156,-83,-47
-45,-153,-109,99,31,-130,-33,-142,-168,-156,-77,-47
-39,-147,-109,87,31,-130,-33,-136,-168,-156,-77,-47
-33,-141,-109,87,37,-124,-27,-136,-168,-150,-71,-42
-39,-141,-103,87,31,-124,-27,-142,-168,-144,-71,-42
-45,-147,-103,93,25,-124,-27,-148,-168,-150,-77,-47
-51,-153,-103,99,25,-130,-33,-154,-174,-150,-83,-53
-45,-153,-109,99,31,-130,-27,-154,-168,-156,-77,-53
-45,-147,-103,93,25,-124,-33,-154,-168,-156,-77,-53
-33,-135,-103,81,31,-118,-33,-148,-162,-156,-77,-53
-15,-129,-115,69,49,-124,-33,-148,-162,-156,-77,-59
-21,-129,-109,75,43,-118,-39,-154,-168,-156,-83,-59
-27,-141,-115,81,43,-130,-39,-148,-168,-156,-89,-65
-27,-135,-109,75,37,-124,-39,-148,-168,-156,-89,-65
-27,-135,-109,75,37,-124,-39,-148,-168,-150,-83,-59
-33,-135,-103,81,31,-118,-33,-148,-168,-150,-83,-59
-45,-135,-91,87,20,-112,-33,-148,-168,-150,-83,-59
-45,-141,-97,93,25,-118,-33,-154,-168,-150,-83,-59
-39,-135,-97,81,25,-118,-33,-154,-168,-150,-83,-59
-39,-135,-97,81,25,-118,-33,-160,-168,-156,-83,-59
-33,-135,-103,81,31,-118,-33,-160,-174,-156,-89,-59
-33,-135,-103,81,31,-118,-39,-160,-174,-156,-89,-59
-27,-129,-103,75,37,-118,-39,-160,-174,-150,-83,-53
-21,-129,-109,75,43,-118,-39,-160,-174,-150,-83,-59
-21,-129,-109,75,43,-118,-39,-160,-174,-150,-83,-65
-21,-129,-109,75,43,-118,-39,-160,-180,-162,-89,-65
-27,-129,-103,75,37,-118,-39,-160,-180,-168,-89,-65
-27,-129,-103,75,37,-118,-39,-160,-180,-162,-89,-65
-27,-135,-109,75,37,-124,-39,-160,-180,-168,-89,-65
-39,-141,-103,87,31,-124,-45,-166,-180,-162,-95,-65
-27,-147,-121,81,43,-136,-45,-160,-180,-162,-95,-65
-27,-141,-115,81,43,-130,-39,-160,-180,-162,-95,-65
-33,-141,-109,87,37,-124,-39,-154,-180,-156,-95,-65
-33,-141,-109,87,37,-124,-39,-154,-186,-162,-101,-71
-39,-141,-103,87,31,-124,-39,-154,-192,-162,-101,-77
-39,-129,-91,81,25,-112,-39,-154,-192,-162,-107,-77
-45,-123,-79,81,15,-100,-39,-160,-192,-162,-107,-77
-45,-123,-79,81,15,-100,-45,-160,-186,-162,-113,-77
-45,-123,-79,81,15,-100,-51,-166,-192,-162,-119,-77
-45,-129,-85,87,20,-106,-45,-166,-186,-162,-119,-71
-45,-135,-91,87,20,-112,-45,-166,-186,-162,-119,-71
-51,-141,-91,93,20,-118,-51,-166,-192,-162,-119,-71
-51,-141,-91,93,20,-118,-45,-166,-192,-156,-119,-71
-45,-135,-91,87,20,-112,-45,-166,-192,-156,-125,-71
-39,-135,-97,81,25,-118,-39,-166,-192,-156,-125,-71
-45,-135,-91,87,20,-112,-39,-166,-192,-156,-125,-77
-45,-129,-85,87,20,-106,-39,-160,-192,-156,-125,-77
-45,-129,-85,87,20,-106,-45,-160,-192,-162,-125,-77
-33,-123,-91,75,25,-106,-45,-160,-192,-162,-119,-77
-33,-123,-91,75,25,-106,-45,-160,-192,-162,-119,-71
-33,-129,-97,81,31,-112,-51,-166,-192,-162,-125,-77
-39,-129,-91,81,25,-112,-51,-166,-192,-168,-125,-77
-39,-123,-85,75,20,-106,-45,-166,-192,-162,-125,-71
-33,-117,-85,75,25,-100,-45,-166,-192,-162,-125,-71
-33,-117,-85,75,25,-100,-45,-172,-192,-162,-125,-71
-39,-117,-79,75,20,-100,-45,-172,-192,-156,-125,-65
-51,-123,-73,81,9,-100,-45,-172,-198,-162,-125,-71
-57,-129,-73,93,9,-100,-51,-178,-198,-162,-131,-71
-63,-135,-73,93,3,-106,-51,-178,-204,-168,-131,-77
-57,-129,-73,93,9,-100,-51,-178,-198,-168,-125,-77
-51,-123,-73,81,9,-100,-51,-172,-198,-168,-113,-71
-45,-123,-79,81,15,-100,-57,-172,-198,-168,-113,-71
-51,-129,-79,87,15,-106,-57,-172,-198,-168,-107,-77
-45,-129,-85,87,20,-106,-57,-172,-198,-174,-107,-77
-45,-129,-85,87,20,-106,-57,-172,-198,-174,-107,-77
-33,-129,-97,81,31,-112,-51,-172,-198,-174,-107,-77
-27,-129,-103,75,37,-118,-51,-178,-198,-174,-107,-71
-39,-135,-97,81,25,-118,-51,-184,-198,-174,-113,-71
-33,-129,-97,81,31,-112,-45,-184,-192,-174,-107,-77
-33,-129,-97,81,31,-112,-45,-184,-198,-174,-107,-77
-33,-123,-91,75,25,-106,-45,-190,-198,-174,-101,-83
-33,-117,-85,75,25,-100,-45,-190,-198,-174,-95,-83
-33,-111,-79,69,20,-94,-45,-184,-198,-168,-95,-83
-33,-111,-79,69,20,-94,-51,-184,-204,-174,-101,-89
-39,-117,-79,75,20,-100,-57,-184,-198,-174,-107,-95
-45,-123,-79,81,15,-100,-57,-184,-198,-174,-107,-89
-39,-123,-85,75,20,-106,-57,-184,-198,-174,-107,-89
-39,-117,-79,75,20,-100,-57,-178,-192,-174,-107,-89
-39,-117,-79,75,20,-100,-57,-178,-192,-174,-101,-89
-33,-111,-79,69,20,-94,-57,-178,-198,-174,-101,-89
-33,-111,-79,69,20,-94,-57,-178,-198,-180,-101,-83
-39,-117,-79,75,20,-100,-63,-178,-198,-180,-101,-83
-33,-111,-79,69,20,-94,-63,-172,-198,-180,-95,-83
-33,-111,-79,69,20,-94,-63,-172,-204,-174,-95,-83
-33,-117,-85,75,25,-100,-63,-172,-204,-180,-95,-89
-39,-117,-79,75,20,-100,-63,-172,-204,-180,-95,-95
-39,-117,-79,75,20,-100,-63,-172,-204,-180,-95,-95
-39,-117,-79,75,20,-100,-57,-166,-198,-180,-95,-95
-27,-111,-85,63,25,-100,-57,-166,-198,-174,-89,-89
-27,-105,-79,63,25,-94,-57,-166,-198,-174,-89,-89
-33,-111,-79,69,20,-94,-57,-166,-198,-174,-89,-95
-33,-105,-73,69,20,-88,-51,-166,-198,-168,-83,-89
-33,-99,-67,63,15,-82,-45,-166,-192,-162,-77,-83
-33,-99,-67,63,15,-82,-45,-166,-192,-162,-77,-89
-33,-105,-73,69,20,-88,-45,-160,-192,-162,-77,-83
-27,-105,-79,63,25,-94,-45,-160,-192,-162,-77,-83
-27,-99,-73,57,20,-88,-45,-154,-186,-162,-71,-83
-27,-93,-67,57,20,-82,-39,-148,-174,-162,-59,-77
-15,-81,-67,45,25,-76,-33,-136,-162,-150,-53,-65
-15,-75,-61,39,20,-70,-33,-130,-150,-150,-47,-59
-9,-63,-55,33,20,-58,-27,-130,-144,-144,-41,-53
-9,-51,-43,27,15,-46,-27,-124,-138,-144,-41,-53
-9,-45,-37,27,15,-40,-21,-124,-138,-138,-35,-47
-3,-33,-31,15,15,-34,-15,-118,-132,-132,-29,-42
-9,-33,-26,21,9,-28,-10,-112,-132,-126,-23,-42
-15,-39,-26,21,3,-34,-10,-106,-132,-120,-17,-42
3,-21,-26,9,15,-22,-5,-94,-126,-114,-11,-42
19,-15,-37,-2,25,-22,-10,-94,-126,-108,-11,-37
19,-27,-49,3,31,-34,-15,-94,-126,-114,-11,-37
19,-33,-55,9,37,-40,-21,-100,-126,-114,-11,-37
25,-45,-73,9,49,-58,-21,-106,-126,-120,-17,-37
25,-39,-67,3,43,-52,-27,-112,-126,-126,-17,-42
19,-39,-61,9,37,-46,-39,-118,-126,-126,-17,-42
19,-27,-49,3,31,-34,-45,-118,-132,-120,-11,-42
25,-15,-43,-7,31,-28,-51,-124,-132,-120,-5,-37
25,-10,-37,-7,31,-22,-57,-124,-126,-120,-5,-31
19,-15,-37,-2,25,-22,-63,-130,-132,-120,-5,-37
19,-21,-43,3,31,-28,-63,-130,-132,-114,1,-37
31,-15,-49,-7,37,-28,-63,-130,-132,-114,7,-31
31,-15,-49,-7,37,-28,-63,-130,-132,-108,7,-25
25,-27,-55,-2,37,-40,-63,-136,-138,-108,1,-25
19,-27,-49,3,31,-34,-57,-136,-138,-102,1,-25
19,-27,-49,3,31,-34,-57,-142,-144,-108,1,-25
19,-21,-43,3,31,-28,-57,-142,-150,-114,-5,-31
19,-21,-43,3,31,-28,-57,-154,-156,-120,-11,-37
14,-27,-43,3,25,-34,-57,-154,-162,-126,-17,-42
9,-33,-43,9,25,-40,-57,-160,-168,-138,-23,-42
3,-39,-43,15,20,-40,-57,-160,-174,-138,-29,-47
-3,-51,-49,21,20,-52,-57,-160,-174,-138,-29,-53
-3,-63,-61,27,25,-64,-57,-166,-180,-144,-29,-53
-9,-81,-73,45,31,-76,-63,-172,-186,-156,-35,-59
-3,-87,-85,39,37,-88,-69,-178,-192,-162,-41,-65
3,-87,-91,39,43,-88,-69,-178,-198,-162,-47,-65
9,-81,-91,33,49,-88,-69,-184,-198,-162,-47,-65
9,-81,-91,33,49,-88,-69,-184,-198,-162,-47,-65
-3,-87,-85,39,37,-88,-69,-190,-204,-168,-53,-71
-15,-87,-73,45,25,-82,-69,-190,-204,-168,-53,-71
-15,-93,-79,51,31,-88,-75,-190,-204,-168,-53,-71
-21,-99,-79,57,25,-88,-75,-190,-198,-174,-59,-71
-21,-93,-73,57,25,-82,-69,-184,-198,-174,-59,-71
-27,-105,-79,63,25,-94,-69,-184,-204,-174,-59,-71
-33,-111,-79,69,20,-94,-69,-184,-210,-180,-65,-77
-45,-129,-85,87,20,-106,-75,-196,-216,-186,-77,-83
-51,-129,-79,87,15,-106,-69,-202,-222,-192,-77,-89
-51,-123,-73,81,9,-100,-69,-208,-222,-192,-83,-89
-51,-117,-67,81,9,-94,-69,-214,-228,-198,-83,-89
-57,-117,-61,87,3,-88,-75,-220,-234,-210,-89,-89
-57,-117,-61,87,3,-88,-75,-226,-234,-210,-89,-95
-57,-123,-67,87,3,-94,-75,-232,-234,-216,-101,-95
-63,-123,-61,87,-3,-94,-75,-232,-240,-222,-101,-95
-63,-117,-55,87,-3,-88,-75,-232,-240,-222,-107,-95
-63,-117,-55,87,-3,-88,-81,-232,-240,-222,-107,-95
-63,-111,-49,81,-9,-82,-75,-232,-240,-216,-107,-95
-63,-105,-43,81,-9,-76,-75,-232,-234,-210,-107,-95
-57,-105,-49,81,-3,-76,-75,-226,-234,-204,-107,-95
-57,-99,-43,75,-9,-70,-75,-226,-228,-198,-107,-95
-57,-99,-43,75,-9,-70,-81,-226,-234,-198,-107,-101
-51,-99,-49,69,-3,-76,-75,-220,-228,-192,-107,-95
-51,-93,-43,69,-3,-70,-75,-214,-222,-186,-107,-89
-51,-87,-37,63,-9,-64,-69,-214,-222,-186,-101,-83
-57,-87,-31,69,-15,-58,-63,-208,-210,-180,-95,-77
-63,-87,-26,69,-21,-58,-57,-196,-204,-174,-95,-77
-63,-81,-21,69,-21,-52,-51,-190,-192,-174,-89,-71
-63,-75,-15,63,-27,-46,-39,-178,-180,-168,-83,-71
-63,-69,-9,63,-27,-40,-33,-160,-168,-156,-77,-71
-63,-63,-3,57,-33,-34,-21,-148,-156,-144,-71,-65
-69,-63,3,63,-39,-28,-15,-136,-144,-132,-71,-65
-69,-45,21,57,-45,-12,-5,-118,-126,-120,-59,-65
-75,-51,21,57,-51,-17,7,-100,-108,-108,-53,-65
-87,-45,39,63,-63,-6,25,-76,-84,-96,-47,-65
-87,-33,51,57,-69,6,37,-52,-60,-72,-35,-59
-93,-33,57,63,-75,12,49,-30,-43,-54,-29,-59
-105,-33,69,69,-87,18,61,-12,-26,-42,-23,-59
-117,-33,81,75,-99,24,79,12,-8,-30,-23,-65
-123,-33,87,75,-105,24,103,36,10,-18,-17,-65
-123,-39,81,75,-105,18,127,72,34,-6,-17,-71
-129,-45,81,87,-105,18,151,108,58,6,-17,-83
-141,-51,87,93,-117,18,187,162,94,18,-11,-95
-147,-57,87,99,-117,12,235,222,136,36,-5,-107
-159,-51,105,99,-135,24,283,288,196,70,13,-107
-165,-33,129,99,-147,48,337,360,274,124,42,-101
-171,-21,147,93,-159,60,391,438,358,196,83,-83
-165,1,165,81,-165,84,445,540,460,286,131,-65
-153,25,177,63,-165,102,505,654,574,388,197,-42
-129,61,189,33,-159,126,577,810,712,508,269,-19
-117,91,207,15,-159,150,655,972,856,628,347,17
-81,127,207,-19,-141,168,727,1146,1006,748,437,65
-27,163,189,-67,-105,174,793,1338,1168,886,545,131
31,205,171,-115,-69,192,859,1530,1336,1036,665,203
97,235,135,-163,-15,186,907,1704,1492,1192,791,281
163,259,93,-205,37,180,913,1824,1636,1348,917,353
229,307,75,-265,79,192,895,1890,1756,1498,1043,431
289,355,63,-319,115,210,865,1914,1858,1630,1151,509
349,397,45,-373,151,222,823,1914,1942,1744,1241,575
409,427,15,-415,199,222,775,1890,1990,1816,1301,635
445,427,-21,-433,235,204,715,1806,1978,1840,1325,665
457,403,-55,-427,259,174,661,1644,1900,1774,1283,665
433,349,-85,-391,259,132,601,1422,1732,1594,1163,605
361,271,-91,-313,229,90,553,1164,1510,1354,989,521
253,217,-37,-235,145,90,505,906,1288,1114,809,431
145,163,15,-151,67,90,469,666,1072,892,635,329
31,97,63,-61,-15,84,421,450,850,676,467,209
-81,25,105,27,-93,66,361,240,622,472,293,89
-177,-27,147,99,-165,60,289,42,400,298,143,-13
-255,-75,177,159,-219,48,199,-136,202,148,25,-95
-303,-105,195,201,-249,42,103,-298,34,41,-71,-149
-315,-111,201,207,-261,42,19,-430,-96,-54,-137,-179
-321,-117,201,219,-261,42,-75,-538,-198,-120,-173,-191
-315,-117,195,213,-255,36,-159,-616,-270,-162,-185,-185
-297,-117,177,207,-237,30,-219,-670,-324,-198,-203,-185
-273,-129,141,201,-207,6,-267,-700,-378,-234,-221,-191
-255,-147,105,195,-183,-22,-291,-712,-420,-270,-239,-197
-219,-153,63,183,-141,-46,-291,-682,-450,-288,-251,-191
-189,-153,33,171,-111,-58,-279,-640,-462,-306,-257,-185
-165,-147,15,153,-93,-64,-261,-580,-456,-318,-257,-179
-141,-141,-3,141,-69,-70,-231,-514,-444,-318,-257,-173
-123,-135,-15,123,-57,-76,-213,-448,-420,-312,-251,-167
-111,-129,-21,117,-45,-76,-189,-388,-390,-306,-239,-161
-93,-117,-26,105,-33,-70,-171,-340,-354,-288,-221,-149
-81,-111,-31,93,-27,-70,-153,-298,-318,-270,-197,-143
-69,-105,-37,87,-15,-70,-135,-262,-288,-240,-179,-131
-57,-93,-37,75,-9,-64,-117,-238,-252,-210,-155,-119
-45,-75,-31,57,-9,-52,-93,-202,-228,-186,-131,-101
-45,-69,-26,57,-9,-46,-75,-178,-204,-168,-119,-95
-51,-63,-15,51,-21,-40,-57,-160,-192,-156,-113,-83
-45,-45,-3,45,-21,-22,-45,-136,-180,-150,-101,-77
-39,-33,3,33,-21,-17,-39,-118,-168,-150,-95,-71
-39,-27,9,27,-27,-12,-33,-106,-162,-150,-95,-71
-33,-27,3,27,-21,-12,-33,-106,-156,-144,-83,-65
-27,-21,3,21,-15,-12,-33,-100,-150,-138,-71,-65
-21,-21,-3,21,-9,-12,-33,-100,-144,-126,-59,-65
-21,-15,3,15,-15,-6,-33,-106,-144,-114,-53,-59
-21,-15,3,15,-15,-6,-33,-106,-144,-114,-47,-59
-27,-10,15,15,-21,0,-33,-106,-144,-108,-47,-53
-21,-5,15,15,-15,6,-33,-106,-144,-108,-47,-53
-21,1,21,9,-21,12,-33,-106,-144,-108,-47,-47
-15,7,21,3,-15,12,-33,-106,-144,-108,-53,-42
-21,1,21,9,-21,12,-33,-106,-144,-102,-53,-42
-15,7,21,3,-15,12,-33,-100,-138,-96,-53,-37
-9,7,15,3,-9,12,-33,-100,-138,-96,-47,-31
-3,7,9,-2,-3,6,-33,-94,-132,-90,-47,-19
3,7,3,-2,3,6,-33,-94,-126,-90,-41,-19
3,7,3,-2,3,6,-33,-88,-114,-90,-41,-13
3,13,9,-7,-3,12,-27,-88,-108,-90,-41,-13
9,13,3,-13,3,6,-27,-88,-108,-84,-35,-13
9,19,9,-13,3,12,-27,-82,-102,-84,-35,-19
3,19,15,-7,-3,18,-27,-82,-102,-78,-35,-19
3,25,21,-13,-9,24,-27,-76,-102,-78,-35,-19
3,25,21,-13,-9,24,-27,-76,-102,-78,-35,-19
3,25,21,-13,-9,24,-33,-76,-102,-72,-29,-19
9,31,21,-19,-3,24,-27,-70,-96,-66,-23,-7
3,25,21,-13,-9,24,-33,-70,-96,-66,-29,-7
-9,19,27,-2,-15,24,-33,-70,-90,-72,-23,-7
3,31,27,-13,-9,30,-33,-64,-84,-72,-17,-7
14,37,21,-25,-3,30,-27,-64,-78,-66,-11,-7
14,49,33,-31,-9,42,-33,-58,-78,-66,-5,-7
14,43,27,-25,-3,36,-33,-58,-72,-60,-5,-1
14,43,27,-25,-3,36,-33,-58,-72,-54,-5,5
14,43,27,-25,-3,36,-33,-52,-72,-48,-5,11
14,49,33,-31,-9,42,-33,-46,-72,-48,1,17
14,49,33,-31,-9,42,-39,-46,-66,-42,7,17
19,55,33,-31,-3,48,-39,-46,-60,-36,7,17
19,61,39,-37,-9,54,-39,-40,-54,-36,13,23
19,67,45,-37,-9,60,-33,-35,-54,-30,19,23
19,67,45,-37,-9,60,-39,-35,-48,-30,25,29
19,67,45,-37,-9,60,-39,-30,-48,-30,31,23
25,67,39,-43,-3,54,-39,-30,-48,-24,31,29
25,67,39,-43,-3,54,-45,-24,-48,-18,37,29
31,73,39,-49,-3,60,-45,-18,-43,-12,42,23
37,79,39,-55,3,60,-51,-12,-43,-6,47,29
43,85,39,-61,3,66,-45,-6,-38,0,53,29
43,85,39,-61,3,66,-45,-6,-26,6,59,35
43,85,39,-61,3,66,-51,0,-20,12,59,35
37,85,45,-61,-3,66,-45,0,-20,12,71,41
43,91,45,-61,3,72,-45,12,-8,18,77,47
43,91,45,-61,3,72,-39,12,-2,24,89,53
43,103,57,-67,-3,84,-39,18,-2,30,101,59
43,109,63,-73,-9,90,-39,30,4,41,113,65
43,115,69,-73,-9,96,-39,42,16,52,125,77
49,121,69,-85,-9,96,-45,48,22,58,137,77
55,127,69,-85,-3,102,-45,54,28,64,143,77
61,133,69,-97,-3,102,-45,66,34,70,155,77
67,133,63,-97,3,102,-45,72,40,76,161,83
61,133,69,-97,-3,102,-45,78,40,82,167,83
67,133,63,-97,3,102,-45,84,46,82,173,89
67,139,69,-97,3,108,-45,90,58,94,179,95
73,145,69,-109,3,108,-39,102,64,100,185,101
79,151,69,-109,9,114,-39,108,70,112,191,113
85,157,69,-121,9,114,-39,120,82,124,197,119
85,163,75,-121,9,120,-33,126,94,130,203,125
85,175,87,-127,3,132,-33,138,106,142,215,125
91,187,93,-133,3,144,-33,156,118,154,227,131
97,199,99,-145,3,150,-33,168,130,160,233,137
97,205,105,-151,-3,156,-33,180,148,172,245,149
103,211,105,-151,3,162,-33,192,160,178,257,155
103,217,111,-157,-3,168,-33,204,172,196,263,167
115,217,99,-163,9,162,-27,216,184,208,281,167
121,229,105,-175,9,168,-27,228,196,220,293,179
121,241,117,-181,3,180,-21,240,214,238,299,185
127,253,123,-187,3,192,-21,252,232,256,317,197
133,265,129,-199,3,198,-15,270,250,268,335,209
139,271,129,-199,9,204,-15,282,268,280,347,215
145,277,129,-211,9,204,-15,294,280,292,359,227
163,289,123,-223,20,210,-10,306,298,310,371,233
181,301,117,-241,31,210,-5,324,310,328,383,245
181,307,123,-241,31,216,-5,336,322,340,395,251
187,313,123,-247,31,222,-5,348,334,352,401,257
187,319,129,-247,31,228,-5,360,340,364,413,263
187,331,141,-253,25,240,-5,378,358,382,425,263
187,343,153,-259,20,252,1,390,376,400,443,269
193,355,159,-271,20,258,1,402,388,412,455,275
193,355,159,-271,20,258,1,408,406,424,461,281
187,349,159,-265,15,258,7,420,412,430,467,293
187,349,159,-265,15,258,7,432,424,442,473,299
199,367,165,-277,20,270,19,450,436,454,485,305
217,385,165,-301,25,276,31,468,454,466,503,317
211,391,177,-295,20,288,37,474,460,478,509,317
205,385,177,-295,15,282,37,480,466,484,515,323
199,385,183,-289,9,288,37,486,472,490,515,329
199,391,189,-289,9,294,43,492,484,496,521,341
205,403,195,-301,9,300,49,498,490,508,527,347
205,415,207,-307,3,312,49,498,502,514,539,353
211,415,201,-307,9,312,55,504,508,526,551,359
217,409,189,-313,15,300,55,510,508,532,551,359
217,409,189,-313,15,300,55,510,514,538,557,359
205,403,195,-301,9,300,61,516,514,544,557,353
205,403,195,-301,9,300,61,522,520,544,557,353
205,409,201,-307,3,306,61,528,526,538,557,353
199,415,213,-301,-3,318,61,522,526,538,551,353
199,415,213,-301,-3,318,67,522,526,538,551,353
193,409,213,-301,-9,312,73,522,532,538,551,359
187,397,207,-289,-9,306,73,516,532,532,551,353
181,385,201,-283,-9,294,73,510,526,526,545,347
175,379,201,-271,-9,294,73,504,520,526,545,347
169,373,201,-271,-15,288,73,498,508,514,539,347
157,367,207,-259,-21,288,79,486,496,508,527,341
151,367,213,-253,-27,294,79,474,484,496,515,341
157,361,201,-259,-21,282,79,462,472,484,509,335
151,361,207,-253,-27,288,79,450,460,478,497,329
151,355,201,-247,-21,282,79,438,448,466,479,317
139,349,207,-241,-33,282,79,426,436,454,461,305
127,337,207,-229,-39,276,79,408,424,436,449,287
121,331,207,-223,-39,270,79,390,400,418,431,275
115,319,201,-211,-39,264,79,372,382,394,419,257
103,301,195,-199,-45,252,73,354,364,370,407,245
91,283,189,-181,-45,240,73,330,340,340,383,233
91,265,171,-175,-39,222,73,312,316,316,359,221
79,247,165,-157,-39,210,73,288,292,292,329,203
67,223,153,-139,-39,192,73,270,274,274,311,185
67,211,141,-133,-33,180,73,252,256,256,293,167
61,199,135,-127,-33,168,67,234,238,244,275,155
55,187,129,-115,-33,162,61,216,220,220,257,143
43,175,129,-103,-39,156,55,198,202,202,239,131
31,163,129,-91,-45,150,55,180,184,184,227,119
19,151,129,-79,-51,144,49,156,166,160,209,107
19,145,123,-79,-51,138,49,138,148,142,197,101
14,133,117,-73,-51,126,49,120,124,118,179,89
14,121,105,-67,-45,114,43,102,106,94,161,77
14,103,87,-55,-33,96,43,84,82,82,143,59
14,97,81,-55,-33,90,43,72,70,70,131,53
14,85,69,-49,-27,78,37,60,58,64,125,41
14,73,57,-43,-21,66,31,48,46,52,113,35
9,67,57,-37,-21,60,19,30,34,41,101,23
9,61,51,-37,-21,54,19,18,28,30,89,17
3,49,45,-25,-21,48,13,6,16,12,71,11
-3,37,39,-19,-21,36,7,-6,10,-6,59,5
-9,31,39,-7,-21,36,7,-12,-2,-18,47,-1
-15,19,33,-2,-21,24,7,-24,-14,-30,42,-1
-21,7,27,9,-21,18,1,-30,-20,-36,37,-7
-33,-10,21,21,-27,6,1,-35,-32,-42,31,-13
-33,-15,15,21,-27,0,-5,-40,-43,-42,25,-19
-33,-21,9,27,-21,-6,-5,-46,-43,-48,19,-19
-27,-21,3,21,-15,-12,-5,-46,-48,-54,19,-19
-27,-27,-3,21,-15,-17,-5,-52,-54,-54,19,-13
-27,-33,-9,27,-9,-22,-10,-58,-60,-60,13,-19
-33,-33,-3,33,-15,-17,-10,-64,-66,-72,7,-25
-45,-39,3,39,-27,-17,-10,-64,-72,-84,1,-25
-51,-45,3,45,-27,-22,-10,-70,-72,-90,1,-25
-45,-39,3,39,-27,-17,-10,-76,-72,-84,1,-31
-39,-39,-3,33,-21,-22,-10,-76,-72,-84,7,-31
-39,-39,-3,33,-21,-22,-10,-76,-72,-78,1,-31
-39,-45,-9,39,-15,-28,-10,-76,-66,-78,1,-37
-45,-57,-15,51,-15,-34,-10,-82,-72,-78,-5,-37
-33,-51,-21,39,-9,-34,-10,-82,-72,-78,-5,-37
-33,-51,-21,39,-9,-34,-5,-82,-72,-78,-5,-37
-39,-57,-21,45,-9,-40,-5,-88,-78,-78,-5,-37
