,,,,,,,,,,,
2019-09-04 23:11:59,,,,,,,,,,,
,,,,,,,,,,,
I,II,III,aVR,aVL,aVF,V1,V2,V3,V4,V5,V6
-64,-35,26,49,-45,-6,8,20,-60,-67,-137,-60
-64,-35,26,49,-45,-6,8,20,-60,-67,-137,-60
-64,-35,26,49,-45,-6,8,20,-60,-67,-137,-60
-64,-35,26,49,-45,-6,8,20,-60,-67,-137,-60
-70,-41,26,55,-51,-6,14,20,-66,-79,-143,-66
-70,-47,20,55,-45,-11,14,20,-66,-85,-149,-72
-76,-53,20,61,-51,-11,20,20,-72,-97,-155,-78
-76,-59,14,67,-45,-17,20,20,-72,-103,-161,-84
-82,-71,8,73,-45,-29,20,14,-78,-109,-167,-90
-82,-77,2,79,-45,-35,20,14,-84,-115,-173,-90
-88,-89,-4,85,-45,-41,20,14,-90,-121,-179,-96
-88,-95,-4,91,-39,-47,20,14,-96,-127,-185,-96
-88,-89,-4,85,-45,-41,20,14,-96,-133,-191,-102
-88,-83,2,85,-45,-35,20,14,-96,-139,-197,-102
-88,-77,8,79,-51,-29,20,14,-96,-145,-203,-108
-88,-71,14,79,-51,-23,20,14,-96,-151,-209,-108
-88,-77,8,79,-51,-29,20,14,-102,-157,-215,-114
-88,-77,8,79,-51,-29,20,14,-102,-157,-215,-114
-88,-83,2,85,-45,-35,20,9,-108,-163,-221,-120
-88,-83,2,85,-45,-35,20,9,-108,-163,-221,-120
-94,-83,8,85,-51,-35,20,9,-114,-163,-221,-120
-94,-83,8,85,-51,-35,20,9,-114,-163,-221,-120
-100,-83,14,91,-57,-29,20,9,-120,-163,-221,-120
-100,-83,14,91,-57,-29,20,9,-120,-163,-221,-120
-106,-89,14,97,-63,-35,20,3,-120,-169,-227,-126
-106,-89,14,97,-63,-35,20,3,-120,-169,-227,-126
-112,-95,14,103,-63,-35,20,-3,-120,-175,-227,-132
-112,-95,14,103,-63,-35,20,-3,-120,-175,-227,-132
-106,-89,14,97,-63,-35,26,3,-114,-175,-227,-132
-100,-83,14,91,-57,-29,26,3,-114,-175,-227,-132
-94,-77,14,85,-57,-29,32,9,-108,-175,-221,-132
-88,-71,14,79,-51,-23,32,9,-108,-175,-221,-132
-88,-65,20,73,-57,-17,32,9,-114,-175,-227,-138
-88,-65,20,73,-57,-17,32,9,-114,-175,-227,-138
-88,-59,26,73,-57,-11,32,9,-120,-175,-227,-144
-88,-59,26,73,-57,-11,32,9,-120,-175,-227,-144
-88,-59,26,73,-57,-11,32,14,-114,-175,-227,-138
-88,-59,26,73,-57,-11,32,14,-114,-175,-227,-138
-88,-59,26,73,-57,-11,32,14,-108,-175,-227,-132
-88,-59,26,73,-57,-11,32,14,-108,-175,-227,-132
-88,-59,26,73,-57,-11,32,14,-108,-175,-227,-132
-88,-59,26,73,-57,-11,32,14,-108,-175,-227,-132
-88,-59,26,73,-57,-11,32,14,-108,-175,-227,-132
-88,-59,26,73,-57,-11,32,14,-108,-175,-227,-132
-94,-59,32,73,-63,-11,38,14,-102,-175,-227,-132
-94,-59,32,73,-63,-11,38,14,-102,-175,-227,-132
-100,-59,38,79,-69,-6,44,20,-96,-175,-227,-132
-100,-59,38,79,-69,-6,44,20,-96,-175,-227,-132
-106,-65,38,85,-75,-11,38,20,-102,-175,-233,-138
-106,-71,32,85,-69,-17,38,20,-102,-175,-233,-138
-112,-77,32,91,-75,-17,32,20,-108,-175,-239,-144
-112,-83,26,97,-69,-23,32,20,-108,-175,-239,-144
-112,-77,32,91,-75,-17,32,20,-108,-175,-239,-150
-112,-77,32,91,-75,-17,32,20,-108,-175,-239,-150
-112,-71,38,91,-75,-11,32,20,-108,-175,-239,-156
-112,-71,38,91,-75,-11,32,20,-108,-175,-239,-156
-106,-65,38,85,-75,-11,38,20,-108,-175,-233,-156
-100,-59,38,79,-69,-6,38,20,-108,-175,-233,-156
-94,-53,38,73,-69,-6,44,20,-108,-175,-227,-156
-88,-47,38,67,-63,-6,44,20,-108,-175,-227,-156
-94,-53,38,73,-69,-6,44,20,-108,-175,-233,-156
-100,-59,38,79,-69,-6,44,20,-108,-175,-233,-156
-106,-65,38,85,-75,-11,44,20,-108,-175,-239,-156
-112,-71,38,91,-75,-11,44,20,-108,-175,-239,-156
-106,-65,38,85,-75,-11,44,26,-102,-175,-233,-156
-100,-59,38,79,-69,-6,44,26,-102,-175,-233,-156
-94,-53,38,73,-69,-6,44,32,-96,-175,-227,-156
-88,-47,38,67,-63,-6,44,32,-96,-175,-227,-156
-94,-53,38,73,-69,-6,38,32,-102,-181,-233,-162
-94,-59,32,73,-63,-11,38,32,-102,-181,-233,-162
-100,-65,32,79,-69,-11,32,32,-108,-187,-239,-168
-100,-71,26,85,-63,-17,32,32,-108,-187,-239,-168
-106,-71,32,85,-69,-17,38,32,-108,-187,-239,-174
-106,-71,32,85,-69,-17,38,32,-108,-187,-239,-174
-112,-71,38,91,-75,-11,44,32,-108,-187,-239,-180
-112,-71,38,91,-75,-11,44,32,-108,-187,-239,-180
-106,-71,32,85,-69,-17,44,38,-114,-187,-239,-174
-106,-71,32,85,-69,-17,44,38,-114,-187,-239,-174
-100,-71,26,85,-63,-17,44,44,-120,-187,-239,-168
-100,-71,26,85,-63,-17,44,44,-120,-187,-239,-168
-100,-65,32,79,-69,-11,44,44,-120,-193,-239,-168
-100,-65,32,79,-69,-11,44,44,-120,-193,-239,-168
-100,-59,38,79,-69,-6,44,44,-120,-199,-239,-168
-100,-59,38,79,-69,-6,44,44,-120,-199,-239,-168
-106,-65,38,85,-75,-11,44,38,-120,-199,-239,-174
-106,-65,38,85,-75,-11,44,38,-120,-199,-239,-174
-112,-71,38,91,-75,-11,44,32,-120,-199,-239,-180
-112,-71,38,91,-75,-11,44,32,-120,-199,-239,-180
-112,-71,38,91,-75,-11,44,32,-114,-199,-245,-180
-112,-71,38,91,-75,-11,44,32,-114,-199,-245,-180
-112,-71,38,91,-75,-11,44,32,-108,-199,-251,-180
-112,-71,38,91,-75,-11,44,32,-108,-199,-251,-180
-106,-65,38,85,-75,-11,44,32,-114,-205,-251,-180
-106,-65,38,85,-75,-11,44,32,-114,-205,-251,-180
-100,-59,38,79,-69,-6,44,32,-120,-211,-251,-180
-100,-59,38,79,-69,-6,44,32,-120,-211,-251,-180
-106,-65,38,85,-75,-11,44,32,-120,-211,-251,-180
-106,-65,38,85,-75,-11,44,32,-120,-211,-251,-180
-112,-71,38,91,-75,-11,44,32,-120,-211,-251,-180
-112,-71,38,91,-75,-11,44,32,-120,-211,-251,-180
-112,-77,32,91,-75,-17,44,26,-126,-217,-251,-180
-112,-77,32,91,-75,-17,44,26,-126,-217,-251,-180
-112,-83,26,97,-69,-23,44,20,-132,-223,-251,-180
-112,-83,26,97,-69,-23,44,20,-132,-223,-251,-180
-112,-83,26,97,-69,-23,38,20,-132,-223,-257,-180
-112,-83,26,97,-69,-23,38,20,-132,-223,-257,-180
-112,-83,26,97,-69,-23,32,20,-132,-223,-263,-180
-112,-83,26,97,-69,-23,32,20,-132,-223,-263,-180
-106,-77,26,91,-69,-23,38,20,-132,-223,-263,-180
-106,-71,32,85,-69,-17,38,20,-132,-223,-263,-180
-100,-65,32,79,-69,-11,44,20,-132,-223,-263,-180
-100,-59,38,79,-69,-6,44,20,-132,-223,-263,-180
-106,-65,38,85,-75,-11,38,14,-138,-229,-263,-180
-106,-65,38,85,-75,-11,38,14,-138,-229,-263,-180
-112,-71,38,91,-75,-11,32,14,-144,-235,-263,-180
-112,-71,38,91,-75,-11,32,14,-144,-235,-263,-180
-112,-65,44,85,-81,-6,32,14,-144,-235,-263,-180
-112,-65,44,85,-81,-6,32,14,-144,-235,-263,-180
-112,-59,50,85,-81,-6,32,14,-144,-235,-263,-180
-112,-59,50,85,-81,-6,32,14,-144,-235,-263,-180
-112,-65,44,85,-81,-6,32,14,-144,-235,-263,-180
-112,-65,44,85,-81,-6,32,14,-144,-235,-263,-180
-112,-71,38,91,-75,-11,32,9,-144,-235,-263,-180
-112,-71,38,91,-75,-11,32,9,-144,-235,-263,-180
-112,-65,44,85,-81,-6,32,14,-144,-235,-263,-180
-112,-65,44,85,-81,-6,32,14,-144,-235,-263,-180
-112,-59,50,85,-81,-6,32,14,-144,-235,-263,-180
-112,-59,50,85,-81,-6,32,14,-144,-235,-263,-180
-106,-65,38,85,-75,-11,32,14,-138,-235,-263,-180
-106,-65,38,85,-75,-11,32,14,-138,-235,-263,-180
-100,-71,26,85,-63,-17,32,14,-132,-235,-263,-180
-100,-71,26,85,-63,-17,32,14,-132,-235,-263,-180
-100,-65,32,79,-69,-11,32,14,-132,-235,-269,-180
-100,-65,32,79,-69,-11,32,14,-132,-235,-269,-180
-100,-59,38,79,-69,-6,32,14,-132,-235,-275,-180
-100,-59,38,79,-69,-6,32,14,-132,-235,-275,-180
-106,-59,44,79,-75,-6,38,14,-126,-235,-275,-180
-106,-59,44,79,-75,-6,38,14,-126,-235,-275,-180
-112,-59,50,85,-81,-6,44,9,-120,-235,-275,-180
-112,-59,50,85,-81,-6,44,9,-120,-235,-275,-180
-118,-65,50,91,-87,-6,44,9,-120,-235,-275,-180
-118,-65,50,91,-87,-6,44,9,-120,-235,-275,-180
-124,-71,50,97,-87,-6,44,9,-120,-235,-275,-180
-124,-71,50,97,-87,-6,44,9,-120,-235,-275,-180
-118,-65,50,91,-87,-6,44,9,-114,-235,-275,-180
-118,-65,50,91,-87,-6,44,9,-114,-235,-275,-180
-112,-59,50,85,-81,-6,44,9,-108,-235,-275,-180
-112,-59,50,85,-81,-6,44,9,-108,-235,-275,-180
-112,-65,44,85,-81,-6,38,9,-108,-241,-275,-186
-112,-65,44,85,-81,-6,38,9,-108,-241,-275,-186
-112,-71,38,91,-75,-11,32,9,-108,-241,-275,-192
-112,-71,38,91,-75,-11,32,9,-108,-241,-275,-192
-106,-65,38,85,-75,-11,38,9,-108,-241,-275,-186
-106,-65,38,85,-75,-11,38,9,-108,-241,-275,-186
-100,-59,38,79,-69,-6,44,9,-108,-241,-275,-180
-100,-59,38,79,-69,-6,44,9,-108,-241,-275,-180
-106,-65,38,85,-75,-11,38,9,-108,-241,-275,-180
-106,-65,38,85,-75,-11,38,9,-108,-241,-275,-180
-112,-71,38,91,-75,-11,32,9,-108,-241,-275,-180
-112,-71,38,91,-75,-11,32,9,-108,-241,-275,-180
-112,-65,44,85,-81,-6,32,9,-114,-241,-275,-180
-112,-65,44,85,-81,-6,32,9,-114,-241,-275,-180
-112,-59,50,85,-81,-6,32,9,-120,-241,-275,-180
-112,-59,50,85,-81,-6,32,9,-120,-241,-275,-180
-118,-59,56,85,-87,-6,32,9,-120,-241,-275,-186
-118,-59,56,85,-87,-6,32,9,-120,-241,-275,-186
-124,-59,62,91,-93,-6,32,9,-120,-241,-275,-192
-124,-59,62,91,-93,-6,32,9,-120,-241,-275,-192
-118,-65,50,91,-87,-6,32,9,-120,-241,-275,-192
-118,-65,50,91,-87,-6,32,9,-120,-241,-275,-192
-112,-71,38,91,-75,-11,32,9,-120,-241,-275,-192
-112,-71,38,91,-75,-11,32,9,-120,-241,-275,-192
-118,-71,44,91,-81,-11,38,9,-120,-241,-275,-192
-118,-71,44,91,-81,-11,38,9,-120,-241,-275,-192
-124,-71,50,97,-87,-6,44,9,-120,-241,-275,-192
-124,-71,50,97,-87,-6,44,9,-120,-241,-275,-192
-118,-71,44,91,-81,-11,38,9,-120,-241,-275,-198
-118,-71,44,91,-81,-11,38,9,-120,-241,-275,-198
-112,-71,38,91,-75,-11,32,9,-120,-241,-275,-204
-112,-71,38,91,-75,-11,32,9,-120,-241,-275,-204
-112,-65,44,85,-81,-6,32,14,-114,-241,-275,-198
-112,-65,44,85,-81,-6,32,14,-114,-241,-275,-198
-112,-59,50,85,-81,-6,32,14,-108,-241,-275,-192
-112,-59,50,85,-81,-6,32,14,-108,-241,-275,-192
-118,-65,50,91,-87,-6,32,14,-114,-247,-275,-198
-118,-65,50,91,-87,-6,32,14,-114,-247,-275,-198
-124,-71,50,97,-87,-6,32,9,-120,-253,-275,-204
-124,-71,50,97,-87,-6,32,9,-120,-253,-275,-204
-118,-65,50,91,-87,-6,38,9,-114,-247,-275,-198
-112,-65,44,85,-81,-6,38,9,-114,-247,-275,-198
-106,-59,44,79,-75,-6,44,9,-108,-241,-275,-192
-100,-59,38,79,-69,-6,44,9,-108,-241,-275,-192
-106,-59,44,79,-75,-6,44,9,-108,-241,-275,-198
-106,-59,44,79,-75,-6,44,9,-108,-241,-275,-198
-106,-59,44,79,-75,-6,44,14,-108,-241,-275,-198
-106,-59,44,79,-75,-6,44,14,-102,-241,-275,-198
-106,-53,50,79,-81,-6,50,14,-102,-241,-275,-198
-106,-53,50,79,-81,-6,50,14,-102,-241,-269,-198
-100,-47,50,73,-75,-6,50,14,-102,-241,-269,-198
-100,-47,50,73,-75,-6,50,14,-102,-241,-269,-198
-118,-59,56,85,-87,-6,50,14,-102,-241,-269,-198
-118,-59,56,85,-87,-6,50,14,-102,-241,-269,-198
-118,-59,56,85,-87,-6,50,14,-96,-241,-269,-198
-112,-53,56,79,-87,-6,50,14,-96,-235,-263,-192
-106,-35,68,67,-87,6,50,14,-96,-235,-263,-198
-94,-23,68,55,-81,12,56,14,-84,-223,-257,-186
-88,-11,74,49,-81,24,56,20,-78,-223,-251,-186
-88,-6,86,43,-87,36,68,20,-72,-217,-251,-186
-88,-6,92,37,-87,42,74,20,-72,-217,-245,-180
-88,-6,92,37,-87,42,80,26,-72,-217,-245,-180
-76,6,92,25,-81,48,80,26,-72,-211,-245,-174
-76,6,92,25,-81,48,80,26,-72,-211,-245,-174
-88,6,104,31,-93,54,80,20,-78,-211,-245,-174
-88,0,98,37,-93,48,86,20,-78,-217,-251,-180
-94,-6,98,43,-93,42,86,14,-84,-217,-251,-180
-88,-6,92,37,-87,42,86,26,-72,-211,-245,-174
-82,-6,86,37,-81,36,92,38,-60,-211,-245,-174
-76,-6,80,31,-75,36,92,44,-54,-205,-239,-174
-76,-6,80,31,-75,36,92,44,-42,-193,-227,-162
-64,6,80,19,-69,42,92,62,-36,-175,-227,-156
-58,18,86,13,-69,48,92,68,-18,-175,-215,-156
-58,30,98,7,-75,60,80,68,-18,-175,-215,-150
-58,42,110,1,-81,72,56,56,-36,-181,-215,-156
-52,48,110,1,-81,78,44,50,-36,-169,-203,-144
-52,54,116,1,-81,84,38,50,-24,-163,-197,-144
-58,54,122,1,-87,84,38,44,-24,-163,-197,-150
-58,42,110,1,-81,72,38,44,-24,-157,-191,-150
-58,36,104,1,-81,66,32,38,-30,-169,-191,-150
-58,12,80,13,-69,42,32,38,-36,-175,-203,-150
-58,6,74,19,-63,36,38,38,-36,-175,-203,-150
-58,0,68,19,-63,30,38,38,-30,-181,-209,-150
-52,0,62,19,-57,30,50,38,-30,-181,-203,-150
-46,0,56,13,-51,24,62,44,-24,-181,-203,-150
-46,-6,50,19,-45,18,68,44,-24,-181,-209,-156
-52,0,62,19,-57,30,74,44,-24,-181,-215,-162
-58,-6,62,25,-57,24,74,44,-24,-181,-221,-162
-64,-6,62,31,-63,24,92,50,-24,-187,-221,-162
-70,-6,62,37,-69,18,110,56,-24,-193,-221,-162
-82,-17,62,49,-75,12,128,62,-30,-199,-227,-174
-82,-17,62,49,-75,12,134,62,-30,-199,-227,-174
-88,-11,74,49,-81,24,152,80,-30,-193,-221,-180
-94,-17,74,55,-87,18,158,86,-30,-205,-227,-180
-106,-11,92,55,-99,30,158,92,-36,-205,-227,-186
-106,-17,86,61,-99,24,164,92,-36,-205,-233,-192
-106,-35,68,67,-87,6,176,104,-36,-211,-245,-198
-106,-29,74,67,-93,12,194,110,-36,-229,-239,-204
-112,-35,74,73,-93,12,218,128,-36,-223,-245,-216
-130,-47,80,85,-105,6,254,140,-36,-223,-251,-222
-94,-23,68,55,-81,12,296,176,-12,-223,-251,-210
-88,-17,68,49,-81,18,278,200,0,-211,-245,-210
-106,-23,80,61,-93,18,206,194,6,-205,-233,-210
-88,-6,92,37,-87,42,110,200,17,-187,-221,-210
-46,42,98,1,-69,66,26,224,17,-175,-215,-192
-34,48,92,1,-63,66,-10,236,29,-163,-221,-186
-34,54,98,-4,-63,72,-57,230,35,-169,-215,-186
-16,84,110,-28,-63,96,-141,242,59,-151,-203,-168
1,108,104,-52,-45,108,-219,260,71,-127,-191,-162
25,132,104,-76,-33,120,-345,266,89,-115,-173,-144
61,144,80,-100,-3,114,-519,266,113,-97,-149,-132
115,174,56,-142,26,114,-663,272,149,-55,-119,-102
151,210,56,-178,44,132,-741,296,173,-31,-83,-78
175,210,32,-190,68,120,-783,332,197,-2,-65,-60
187,180,-4,-184,92,84,-795,362,227,-2,-47,-48
199,180,-9,-190,104,78,-795,404,251,16,-29,-42
235,192,-33,-214,134,72,-831,452,299,46,1,-12
241,180,-57,-214,152,54,-867,500,335,76,12,6
235,144,-81,-190,158,24,-903,512,347,88,12,0
247,126,-117,-190,188,0,-903,542,371,100,18,17
295,138,-153,-220,230,-6,-879,608,437,142,54,35
361,168,-189,-262,272,-6,-885,686,491,190,96,71
391,180,-207,-280,296,-6,-921,710,509,220,126,101
415,180,-231,-292,320,-17,-969,680,491,244,156,113
427,162,-255,-292,344,-41,-1005,680,503,286,198,149
457,162,-285,-304,374,-59,-999,728,569,334,240,179
475,174,-291,-322,386,-53,-993,710,581,364,270,209
487,168,-309,-322,398,-65,-1017,590,503,364,276,221
475,144,-321,-304,398,-83,-1029,374,371,340,276,221
457,120,-327,-286,392,-101,-1065,44,167,286,252,221
421,72,-339,-244,380,-131,-1089,-267,-18,238,234,203
403,36,-357,-220,380,-155,-1101,-441,-114,226,240,227
391,48,-333,-220,362,-137,-1143,-603,-198,244,270,245
391,66,-315,-232,356,-119,-1221,-807,-282,268,306,281
409,102,-297,-250,356,-95,-1281,-981,-360,322,366,341
433,138,-285,-280,362,-71,-1377,-1173,-414,394,444,401
445,198,-243,-316,344,-17,-1509,-1401,-486,484,534,485
475,270,-195,-370,332,36,-1665,-1617,-552,604,672,599
511,318,-189,-418,350,60,-1779,-1785,-606,706,774,695
565,348,-213,-460,392,66,-1893,-1911,-660,772,876,767
631,396,-231,-508,434,78,-1995,-2061,-768,832,966,857
697,450,-243,-568,470,102,-2121,-2265,-942,862,1032,953
703,480,-219,-586,464,126,-2259,-2498,-1140,874,1098,1019
733,498,-231,-616,488,132,-2391,-2744,-1380,844,1158,1091
751,510,-237,-634,494,138,-2510,-2984,-1650,748,1158,1133
757,504,-243,-634,500,126,-2606,-3164,-1878,634,1146,1169
763,492,-261,-628,512,114,-2648,-3260,-2022,574,1170,1205
817,504,-303,-664,560,96,-2678,-3350,-2160,520,1182,1247
817,504,-303,-664,560,96,-2708,-3458,-2358,388,1170,1265
805,474,-327,-640,566,66,-2708,-3530,-2537,238,1128,1271
805,438,-363,-622,584,30,-2654,-3530,-2645,112,1086,1283
811,396,-411,-604,614,-6,-2588,-3494,-2735,-2,1044,1271
805,360,-441,-580,626,-35,-2516,-3458,-2825,-163,978,1247
781,306,-471,-544,626,-77,-2438,-3422,-2915,-325,894,1223
733,252,-477,-490,608,-107,-2337,-3374,-2993,-487,816,1181
703,222,-477,-460,590,-125,-2229,-3272,-3017,-625,744,1133
673,192,-477,-430,572,-137,-2091,-3146,-3017,-769,654,1091
637,150,-483,-394,560,-161,-1953,-3038,-3023,-925,558,1055
577,114,-459,-346,518,-167,-1845,-2960,-3035,-1081,450,995
535,96,-435,-316,488,-167,-1743,-2906,-3071,-1255,324,935
511,42,-465,-274,488,-209,-1653,-2834,-3083,-1423,216,875
487,-29,-519,-226,500,-275,-1569,-2720,-3035,-1537,120,827
475,-101,-573,-184,518,-335,-1479,-2612,-2939,-1585,60,791
487,-119,-609,-184,548,-365,-1407,-2492,-2843,-1585,36,791
487,-131,-621,-178,554,-377,-1329,-2391,-2741,-1567,24,791
457,-167,-621,-142,536,-395,-1263,-2289,-2645,-1525,24,785
439,-179,-615,-124,524,-395,-1209,-2181,-2495,-1417,90,827
463,-149,-609,-154,530,-377,-1155,-2073,-2352,-1249,204,893
481,-119,-597,-178,536,-359,-1107,-1959,-2196,-1105,294,959
481,-113,-591,-178,530,-353,-1053,-1845,-2046,-943,396,1001
499,-89,-591,-202,542,-341,-999,-1707,-1854,-745,510,1067
511,-59,-573,-226,542,-317,-969,-1593,-1680,-565,630,1139
505,-47,-555,-226,530,-299,-909,-1473,-1524,-427,702,1163
505,-35,-543,-232,524,-287,-843,-1329,-1350,-289,744,1163
517,-23,-543,-238,530,-281,-753,-1161,-1146,-163,786,1145
505,-35,-543,-232,524,-287,-681,-987,-960,-61,786,1097
481,-47,-525,-214,500,-287,-609,-843,-828,-7,768,1049
457,-53,-507,-196,482,-281,-519,-705,-690,10,732,989
421,-41,-465,-184,440,-251,-435,-549,-558,34,672,899
361,-47,-411,-154,386,-233,-339,-429,-450,10,558,749
319,-95,-417,-106,368,-251,-243,-321,-372,-31,420,611
283,-101,-387,-88,332,-245,-171,-231,-312,-73,300,473
205,-101,-303,-46,248,-203,-87,-141,-246,-97,186,335
109,-83,-195,-4,152,-137,-10,-45,-174,-109,84,209
43,-29,-75,1,56,-53,92,50,-72,-91,60,119
1,6,2,-4,2,6,170,146,17,-43,24,65
-28,-6,32,7,-27,12,206,212,65,-55,-23,6
-64,-29,32,43,-51,-6,236,230,83,-73,-89,-72
-100,-71,26,85,-63,-17,266,266,113,-85,-119,-126
-112,-83,26,97,-69,-23,296,308,143,-79,-137,-162
-112,-83,26,97,-69,-23,302,320,155,-79,-149,-174
-118,-77,38,97,-81,-17,314,332,167,-91,-155,-180
-136,-77,56,103,-99,-6,326,350,173,-91,-173,-192
-136,-71,62,103,-99,-6,338,368,185,-97,-179,-204
-142,-59,80,97,-111,0,356,386,197,-97,-191,-210
-154,-65,86,109,-123,0,368,398,209,-97,-197,-222
-160,-71,86,115,-123,0,374,410,221,-97,-209,-228
-172,-77,92,121,-135,0,386,416,233,-103,-209,-240
-178,-77,98,127,-141,0,392,428,245,-103,-215,-246
-172,-71,98,121,-135,6,398,440,251,-97,-215,-252
-172,-71,98,121,-135,6,416,458,257,-97,-221,-258
-172,-71,98,121,-135,6,428,470,263,-91,-221,-258
-184,-77,104,127,-147,6,434,482,269,-103,-227,-270
-178,-71,104,121,-141,6,440,494,275,-97,-227,-270
-172,-59,110,115,-141,18,446,500,287,-97,-227,-276
-172,-53,116,109,-147,24,452,500,293,-103,-227,-282
-166,-47,116,103,-141,24,458,518,305,-103,-227,-282
-166,-47,116,103,-141,24,464,524,311,-97,-227,-282
-166,-35,128,97,-147,36,476,536,317,-97,-227,-282
-172,-35,134,103,-153,42,476,542,323,-91,-227,-282
-178,-47,128,109,-153,30,482,554,335,-91,-227,-288
-184,-53,128,115,-159,30,494,560,341,-85,-233,-288
-184,-47,134,115,-159,36,500,578,347,-85,-233,-288
-190,-53,134,121,-165,30,518,590,359,-85,-239,-294
-190,-53,134,121,-165,30,530,602,371,-79,-233,-294
-196,-59,134,127,-165,30,530,614,377,-73,-233,-300
-196,-59,134,127,-165,30,536,626,383,-73,-239,-300
-202,-65,134,133,-171,24,536,644,395,-73,-239,-306
-208,-65,140,133,-177,30,548,656,401,-73,-239,-306
-202,-65,134,133,-171,24,566,662,407,-67,-233,-306
-202,-65,134,133,-171,24,572,680,425,-67,-233,-306
-196,-59,134,127,-165,30,578,698,443,-61,-227,-306
-196,-59,134,127,-165,30,596,710,449,-49,-227,-306
-196,-53,140,121,-171,36,614,734,461,-49,-227,-312
-196,-47,146,121,-171,42,626,746,473,-43,-227,-312
-190,-47,140,115,-165,36,632,770,485,-37,-227,-312
-190,-41,146,115,-171,42,650,794,491,-31,-227,-312
-190,-47,140,115,-165,36,662,812,503,-25,-227,-318
-190,-41,146,115,-171,42,674,842,515,-19,-221,-318
-196,-47,146,121,-171,42,686,866,533,-13,-227,-324
-202,-47,152,121,-177,42,698,878,551,-13,-227,-324
-196,-53,140,121,-171,36,710,908,563,-7,-227,-330
-196,-53,140,121,-171,36,722,932,587,-2,-221,-330
-184,-47,134,115,-159,36,728,956,605,-2,-221,-330
-184,-47,134,115,-159,36,740,980,611,-2,-221,-330
-202,-47,152,121,-177,42,752,998,629,4,-221,-336
-190,-47,140,115,-165,36,770,1022,653,16,-209,-336
-190,-41,146,115,-171,42,788,1052,671,22,-209,-336
-190,-41,146,115,-171,42,800,1076,689,28,-203,-336
-202,-47,152,121,-177,42,812,1100,707,40,-197,-330
-202,-47,152,121,-177,42,824,1130,731,46,-197,-330
-196,-41,152,115,-177,48,842,1154,749,64,-191,-324
-196,-41,152,115,-177,48,854,1184,767,70,-191,-324
-202,-47,152,121,-177,42,872,1208,791,76,-191,-330
-202,-41,158,121,-183,48,884,1232,809,88,-185,-330
-208,-41,164,121,-189,54,896,1256,827,94,-185,-336
-202,-41,158,121,-183,48,908,1286,851,106,-185,-336
-196,-29,164,109,-183,60,914,1310,869,118,-173,-336
-196,-29,164,109,-183,60,926,1340,893,130,-173,-336
-190,-23,164,103,-177,60,938,1364,911,136,-173,-336
-190,-17,170,103,-183,66,956,1388,929,142,-161,-336
-190,-11,176,97,-183,72,956,1406,947,160,-161,-336
-184,-6,176,91,-183,78,962,1430,971,166,-155,-336
-178,-6,170,91,-177,72,962,1448,977,178,-155,-336
-178,-6,170,91,-177,72,962,1460,989,190,-149,-336
-190,-6,188,91,-189,84,962,1478,1007,196,-149,-330
-190,0,200,85,-195,96,962,1478,1025,208,-137,-330
-184,6,200,79,-189,102,962,1496,1043,220,-131,-330
-184,24,218,73,-201,120,962,1502,1049,226,-125,-324
-184,24,218,73,-201,120,950,1502,1067,238,-113,-318
-172,42,224,55,-195,132,950,1508,1085,256,-107,-312
-172,48,230,55,-201,138,938,1502,1097,268,-101,-300
-172,48,230,55,-201,138,920,1502,1109,280,-95,-300
-172,48,230,55,-201,138,896,1484,1115,292,-83,-300
-172,54,236,49,-201,144,884,1484,1127,298,-77,-294
-160,66,236,37,-195,150,866,1478,1133,322,-59,-288
-154,78,236,31,-195,156,848,1472,1145,340,-47,-276
-154,84,242,25,-201,162,830,1448,1151,358,-35,-264
-154,84,242,25,-201,162,818,1436,1157,370,-23,-258
-148,96,248,19,-201,174,800,1418,1163,394,-11,-246
-136,108,248,7,-195,180,782,1406,1181,412,1,-240
-124,126,254,1,-189,192,764,1382,1181,436,12,-228
-124,126,254,1,-189,192,746,1364,1193,454,24,-222
-118,126,248,1,-183,186,722,1340,1199,484,36,-222
-106,126,236,-4,-171,180,710,1322,1211,508,60,-210
-106,144,254,-10,-183,198,692,1304,1217,532,84,-192
-100,156,260,-22,-183,210,662,1286,1229,556,102,-180
-94,162,260,-28,-177,210,650,1268,1235,574,126,-162
-94,162,260,-28,-177,210,626,1250,1235,604,144,-150
-82,162,248,-34,-165,204,602,1232,1247,634,168,-126
-76,162,242,-34,-159,204,578,1214,1253,664,198,-114
-64,168,236,-46,-153,204,566,1202,1265,700,228,-90
-52,168,230,-52,-141,198,548,1184,1271,736,252,-72
-28,180,218,-70,-123,198,530,1166,1277,766,276,-54
-28,186,224,-70,-123,204,506,1148,1283,796,300,-30
1,192,200,-88,-99,192,482,1130,1295,826,336,-12
1,198,206,-94,-99,198,476,1106,1295,856,366,12
1,204,200,-100,-93,204,452,1094,1295,880,396,23
13,210,194,-112,-81,204,440,1064,1295,922,420,41
31,222,188,-124,-69,204,416,1046,1301,958,456,71
43,228,182,-136,-63,204,392,1028,1301,988,492,95
49,222,170,-136,-51,198,368,998,1295,1018,516,125
61,216,152,-136,-39,186,350,986,1295,1048,546,149
67,216,146,-142,-33,180,320,956,1283,1078,576,179
79,210,128,-142,-15,168,296,932,1277,1102,606,203
85,222,134,-154,-15,180,278,902,1265,1132,642,233
97,228,128,-160,-9,180,248,878,1253,1156,672,257
121,240,122,-184,2,186,230,836,1241,1186,708,281
133,252,122,-196,2,192,224,812,1229,1204,726,305
145,258,116,-202,8,192,200,782,1205,1210,744,323
151,258,110,-208,14,186,182,746,1175,1210,756,347
163,264,104,-214,26,186,164,716,1145,1204,768,353
163,264,104,-214,26,186,146,680,1109,1198,774,371
157,258,104,-208,20,186,116,638,1073,1180,774,377
157,258,104,-208,20,186,104,602,1025,1162,774,389
151,252,104,-202,20,180,86,560,989,1138,768,395
151,246,98,-202,20,174,68,524,941,1108,750,401
145,246,104,-196,14,180,50,476,881,1072,744,395
145,252,110,-202,14,186,38,440,845,1036,726,395
139,252,116,-196,8,186,32,404,785,988,696,389
127,240,116,-184,2,180,20,368,749,952,672,377
127,234,110,-184,2,174,8,332,701,904,642,359
127,234,104,-178,8,168,-4,290,653,862,618,347
121,210,86,-166,14,150,-10,260,605,802,576,329
109,204,92,-154,2,150,-10,236,557,760,546,305
103,186,80,-142,8,132,-10,212,509,712,516,287
85,174,86,-130,2,132,-10,182,467,658,480,269
67,156,86,-112,-3,120,-10,158,419,592,438,239
49,150,98,-100,-15,126,-10,134,371,544,408,215
49,132,80,-88,-9,108,-10,116,341,502,366,197
43,126,80,-82,-9,102,-10,86,299,460,330,179
43,102,56,-70,2,78,-10,68,269,418,288,155
37,96,56,-64,-3,78,-10,44,245,376,252,131
25,84,56,-52,-9,72,-10,38,215,334,228,107
13,66,50,-40,-9,60,-10,20,179,292,198,83
1,60,56,-28,-21,60,-10,20,161,256,174,59
1,54,56,-22,-21,54,-4,14,131,232,144,41
-4,36,50,-10,-27,42,2,9,119,196,120,29
-4,24,38,-4,-21,30,2,3,101,160,96,17
-16,12,38,1,-27,24,14,-3,83,142,84,6
-22,0,32,1,-27,12,14,-15,71,118,60,-6
-28,-6,26,13,-27,6,14,-27,59,100,36,-30
-34,-6,26,19,-33,0,14,-27,41,76,18,-42
-34,-11,20,19,-27,-6,20,-39,35,52,12,-48
-52,-23,26,37,-39,-6,26,-45,23,28,-5,-60
-52,-23,26,37,-39,-6,26,-51,17,22,-17,-72
-58,-23,32,37,-45,-6,26,-51,12,-2,-35,-84
-58,-23,32,37,-45,-6,32,-57,0,-2,-47,-84
-64,-35,26,49,-45,-6,32,-63,-6,-13,-53,-96
-64,-35,26,49,-45,-6,32,-63,-6,-13,-53,-96
-64,-35,26,49,-45,-6,38,-63,-12,-25,-59,-102
-58,-41,14,49,-39,-11,38,-69,-12,-31,-65,-108
-58,-53,2,55,-33,-23,38,-69,-18,-43,-77,-120
-64,-59,2,61,-33,-23,38,-69,-24,-49,-77,-120
-70,-65,2,67,-39,-29,38,-69,-30,-55,-89,-132
-70,-77,-4,73,-33,-41,38,-75,-36,-55,-101,-138
-70,-83,-4,73,-27,-47,38,-75,-42,-67,-107,-138
-70,-77,-4,73,-33,-41,44,-75,-42,-67,-113,-138
-70,-77,-4,73,-33,-41,50,-75,-42,-73,-119,-144
-70,-65,2,67,-39,-29,56,-75,-42,-79,-119,-138
-70,-65,2,67,-39,-29,56,-75,-48,-85,-119,-144
-70,-71,-4,67,-33,-35,56,-81,-54,-91,-119,-150
-76,-71,2,73,-39,-29,56,-81,-60,-97,-125,-144
-82,-89,-4,85,-39,-47,56,-93,-66,-109,-125,-150
-82,-89,-4,85,-39,-47,56,-93,-66,-109,-131,-156
-76,-77,-4,73,-39,-35,56,-93,-60,-109,-131,-150
-76,-77,-4,73,-39,-35,56,-93,-60,-109,-131,-150
-76,-71,2,73,-39,-29,62,-93,-54,-103,-131,-144
-76,-71,2,73,-39,-29,62,-93,-54,-103,-143,-150
-82,-83,-4,79,-39,-41,62,-99,-54,-109,-143,-156
-82,-83,-4,79,-39,-41,62,-99,-60,-109,-143,-156
-82,-83,-4,79,-39,-41,62,-105,-60,-109,-143,-156
-82,-77,2,79,-45,-35,62,-105,-60,-115,-143,-156
-82,-77,2,79,-45,-35,62,-105,-60,-109,-143,-156
-76,-77,-4,73,-39,-35,62,-105,-60,-109,-143,-156
-76,-77,-4,73,-39,-35,56,-105,-60,-103,-137,-156
-88,-83,2,85,-45,-35,56,-105,-60,-103,-137,-156
-94,-89,2,91,-51,-41,56,-105,-60,-109,-155,-168
-94,-83,8,85,-51,-35,56,-105,-60,-109,-155,-168
-94,-89,2,91,-51,-41,56,-105,-60,-103,-149,-174
-94,-89,2,91,-51,-41,56,-105,-60,-103,-149,-174
-88,-83,2,85,-45,-35,62,-105,-54,-103,-149,-174
-82,-83,-4,79,-39,-41,62,-105,-54,-103,-149,-174
-82,-77,2,79,-45,-35,68,-105,-54,-103,-143,-168
-76,-65,8,67,-45,-23,68,-105,-54,-103,-143,-168
-76,-71,2,73,-39,-29,62,-111,-54,-97,-143,-168
-70,-65,2,67,-39,-29,62,-111,-54,-97,-143,-168
-76,-71,2,73,-39,-29,62,-111,-54,-91,-155,-168
-82,-71,8,73,-45,-29,62,-111,-48,-91,-155,-168
-88,-71,14,79,-51,-23,62,-111,-48,-91,-161,-174
-88,-83,2,85,-45,-35,62,-111,-48,-91,-161,-174
-88,-71,14,79,-51,-23,62,-111,-48,-91,-161,-174
-82,-65,14,73,-51,-23,62,-111,-48,-91,-161,-174
-82,-65,14,73,-51,-23,68,-111,-48,-91,-155,-174
-82,-65,14,73,-51,-23,68,-111,-48,-91,-155,-174
-82,-65,14,73,-51,-23,74,-111,-48,-91,-149,-174
-94,-71,20,79,-57,-23,74,-111,-42,-91,-149,-174
-94,-71,20,79,-57,-23,74,-111,-48,-91,-155,-174
-88,-71,14,79,-51,-23,74,-111,-48,-91,-155,-174
-88,-71,14,79,-51,-23,68,-105,-54,-91,-161,-174
-88,-77,8,79,-51,-29,68,-99,-54,-91,-161,-174
-82,-77,2,79,-45,-35,68,-105,-54,-91,-155,-174
-88,-71,14,79,-51,-23,62,-105,-54,-91,-155,-174
-82,-71,8,73,-45,-29,62,-111,-54,-91,-149,-180
-76,-71,2,73,-39,-29,62,-117,-54,-97,-155,-180
-76,-71,2,73,-39,-29,68,-117,-54,-91,-155,-180
-76,-71,2,73,-39,-29,68,-111,-54,-85,-149,-174
-82,-77,2,79,-45,-35,74,-111,-54,-79,-149,-174
-88,-71,14,79,-51,-23,74,-111,-54,-79,-149,-174
-88,-71,14,79,-51,-23,68,-117,-60,-85,-155,-180
-88,-77,8,79,-51,-29,68,-123,-60,-85,-155,-180
-88,-77,8,79,-51,-29,68,-129,-60,-91,-161,-186
-88,-77,8,79,-51,-29,68,-135,-60,-91,-161,-186
-82,-71,8,73,-45,-29,62,-129,-54,-85,-155,-180
-82,-71,8,73,-45,-29,62,-123,-54,-85,-155,-174
-70,-59,8,61,-39,-23,68,-111,-48,-79,-149,-168
-70,-59,8,61,-39,-23,68,-111,-48,-79,-155,-162
-88,-83,2,85,-45,-35,62,-123,-54,-91,-155,-168
-88,-83,2,85,-45,-35,62,-123,-54,-91,-155,-168
-82,-77,2,79,-45,-35,62,-129,-48,-85,-155,-162
-82,-59,20,67,-51,-17,68,-129,-48,-85,-155,-162
-82,-77,2,79,-45,-35,68,-129,-48,-85,-155,-162
-88,-77,8,79,-51,-29,62,-129,-54,-85,-161,-168
-82,-77,2,79,-45,-35,62,-129,-54,-85,-161,-168
-82,-77,2,79,-45,-35,62,-135,-54,-85,-161,-174
-82,-77,2,79,-45,-35,62,-129,-60,-85,-161,-174
-88,-77,8,79,-51,-29,62,-129,-60,-85,-161,-174
-94,-77,14,85,-57,-29,62,-123,-60,-79,-161,-174
-100,-77,20,85,-63,-23,62,-129,-60,-79,-161,-174
-106,-77,26,91,-69,-23,68,-129,-60,-79,-161,-168
-106,-77,26,91,-69,-23,68,-129,-60,-85,-161,-174
-106,-77,26,91,-69,-23,74,-129,-60,-85,-155,-168
-106,-77,26,91,-69,-23,74,-129,-66,-85,-155,-168
-112,-77,32,91,-75,-17,68,-135,-66,-85,-155,-168
-112,-77,32,91,-75,-17,68,-135,-66,-85,-155,-168
-118,-77,38,97,-81,-17,62,-141,-66,-85,-161,-168
-118,-83,32,97,-75,-23,62,-141,-72,-91,-167,-168
-112,-77,32,91,-75,-17,62,-141,-72,-85,-167,-168
-112,-77,32,91,-75,-17,62,-141,-72,-85,-167,-168
-106,-71,32,85,-69,-17,62,-147,-72,-85,-167,-168
-106,-71,32,85,-69,-17,62,-147,-78,-85,-167,-168
-100,-71,26,85,-63,-17,62,-147,-78,-85,-167,-168
-100,-71,26,85,-63,-17,62,-153,-78,-85,-173,-174
-100,-71,26,85,-63,-17,62,-153,-78,-91,-173,-174
-100,-71,26,85,-63,-17,62,-153,-84,-91,-173,-174
-100,-71,26,85,-63,-17,62,-153,-84,-91,-173,-174
-100,-71,26,85,-63,-17,62,-153,-84,-91,-179,-174
-106,-71,32,85,-69,-17,62,-153,-84,-91,-179,-174
-106,-71,32,85,-69,-17,62,-153,-84,-91,-179,-180
-106,-77,26,91,-69,-23,56,-153,-90,-91,-179,-174
-106,-77,26,91,-69,-23,56,-159,-90,-91,-179,-174
-106,-83,20,91,-63,-29,56,-159,-90,-97,-179,-168
-118,-89,26,103,-75,-29,56,-159,-90,-97,-179,-168
-118,-89,26,103,-75,-29,62,-165,-96,-97,-185,-174
-118,-89,26,103,-75,-29,62,-165,-96,-97,-185,-174
-112,-77,32,91,-75,-17,68,-165,-84,-103,-179,-180
-106,-65,38,85,-75,-11,68,-165,-84,-103,-173,-174
-112,-71,38,91,-75,-11,68,-165,-84,-103,-179,-174
-112,-77,32,91,-75,-17,68,-165,-84,-103,-179,-174
-118,-83,32,97,-75,-23,56,-165,-84,-103,-185,-174
-124,-83,38,103,-81,-17,56,-165,-84,-103,-185,-174
-118,-83,32,97,-75,-23,56,-165,-90,-109,-185,-180
-118,-83,32,97,-75,-23,56,-165,-90,-115,-185,-180
-112,-83,26,97,-69,-23,56,-159,-90,-121,-185,-180
-112,-95,14,103,-63,-35,56,-153,-90,-121,-185,-180
-112,-83,26,97,-69,-23,62,-159,-96,-121,-185,-174
-112,-83,26,97,-69,-23,62,-159,-96,-121,-185,-174
-112,-89,20,97,-69,-29,68,-165,-102,-121,-185,-168
-112,-89,20,97,-69,-29,68,-165,-102,-121,-191,-168
-106,-83,20,91,-63,-29,74,-159,-96,-115,-185,-168
-106,-83,20,91,-63,-29,74,-165,-102,-115,-185,-168
-100,-77,20,85,-63,-23,74,-159,-96,-109,-179,-168
-100,-77,20,85,-63,-23,68,-159,-96,-109,-179,-168
-112,-83,26,97,-69,-23,68,-159,-102,-115,-191,-180
-112,-83,26,97,-69,-23,68,-159,-102,-115,-191,-180
-112,-89,20,97,-69,-29,68,-159,-108,-121,-197,-180
-112,-89,20,97,-69,-29,68,-159,-108,-121,-197,-180
-112,-77,32,91,-75,-17,68,-159,-108,-121,-191,-174
-106,-71,32,85,-69,-17,68,-159,-108,-121,-185,-174
-106,-65,38,85,-75,-11,62,-159,-108,-121,-185,-168
-112,-65,44,85,-81,-6,62,-165,-108,-127,-191,-168
-118,-77,38,97,-81,-17,62,-165,-108,-121,-191,-168
-118,-83,32,97,-75,-23,62,-165,-108,-121,-191,-168
-112,-77,32,91,-75,-17,68,-165,-108,-115,-197,-168
-112,-83,26,97,-69,-23,68,-159,-108,-115,-197,-168
-112,-83,26,97,-69,-23,62,-159,-108,-121,-191,-168
-118,-89,26,103,-75,-29,62,-159,-108,-121,-191,-168
-118,-89,26,103,-75,-29,62,-159,-108,-127,-185,-168
-112,-83,26,97,-69,-23,62,-159,-108,-127,-185,-168
-106,-83,20,91,-63,-29,62,-159,-108,-127,-185,-168
-106,-83,20,91,-63,-29,62,-159,-108,-127,-185,-168
-100,-83,14,91,-57,-29,62,-153,-108,-127,-191,-168
-100,-89,8,91,-57,-35,56,-153,-108,-127,-197,-168
-106,-89,14,97,-63,-35,56,-165,-114,-133,-197,-168
-106,-89,14,97,-63,-35,56,-165,-114,-133,-197,-168
-112,-89,20,97,-69,-29,56,-171,-114,-133,-185,-174
-112,-83,26,97,-69,-23,56,-171,-114,-133,-185,-174
-106,-77,26,91,-69,-23,62,-165,-114,-133,-185,-168
-106,-77,26,91,-69,-23,62,-165,-114,-127,-185,-168
-100,-71,26,85,-63,-17,56,-159,-114,-127,-185,-168
-100,-71,26,85,-63,-17,56,-159,-114,-127,-185,-174
-106,-77,26,91,-69,-23,62,-165,-114,-127,-185,-174
-100,-77,20,85,-63,-23,62,-165,-114,-127,-185,-174
-106,-83,20,91,-63,-29,56,-171,-114,-127,-185,-174
-118,-89,26,103,-75,-29,56,-171,-114,-127,-185,-174
-124,-89,32,103,-81,-23,56,-171,-120,-133,-191,-180
-118,-89,26,103,-75,-29,56,-171,-120,-133,-191,-174
-124,-89,32,103,-81,-23,56,-171,-126,-133,-197,-180
-124,-83,38,103,-81,-17,56,-171,-126,-133,-197,-180
-118,-83,32,97,-75,-23,62,-165,-120,-133,-197,-180
-118,-83,32,97,-75,-23,62,-165,-120,-133,-197,-180
-112,-83,26,97,-69,-23,68,-165,-114,-133,-197,-180
-112,-83,26,97,-69,-23,56,-165,-114,-133,-203,-180
-100,-59,38,79,-69,-6,56,-177,-114,-133,-191,-180
-100,-59,38,79,-69,-6,56,-165,-114,-133,-191,-180
-112,-71,38,91,-75,-11,56,-165,-114,-133,-191,-180
-124,-77,44,97,-87,-11,56,-177,-120,-133,-191,-186
-112,-83,26,97,-69,-23,56,-171,-120,-139,-185,-180
-112,-83,26,97,-69,-23,56,-171,-126,-139,-191,-186
-112,-83,26,97,-69,-23,56,-171,-126,-139,-191,-186
-112,-83,26,97,-69,-23,56,-171,-132,-139,-197,-192
-112,-83,26,97,-69,-23,56,-171,-132,-139,-197,-192
-112,-83,26,97,-69,-23,56,-171,-132,-139,-197,-192
-112,-83,26,97,-69,-23,56,-171,-132,-139,-197,-192
-112,-83,26,97,-69,-23,56,-171,-132,-139,-197,-192
-112,-83,26,97,-69,-23,56,-171,-132,-139,-197,-192
-118,-83,32,97,-75,-23,56,-171,-132,-139,-197,-192
-118,-83,32,97,-75,-23,56,-171,-132,-139,-197,-192
-124,-83,38,103,-81,-17,56,-171,-132,-139,-197,-192
-124,-83,38,103,-81,-17,56,-171,-132,-139,-197,-192
-118,-83,32,97,-75,-23,56,-171,-126,-139,-197,-192
-118,-83,32,97,-75,-23,56,-171,-126,-139,-197,-192
-112,-83,26,97,-69,-23,56,-171,-120,-139,-197,-192
-112,-83,26,97,-69,-23,56,-171,-120,-139,-197,-192
-118,-83,32,97,-75,-23,50,-177,-126,-145,-197,-192
-118,-83,32,97,-75,-23,50,-177,-126,-145,-197,-192
-124,-83,38,103,-81,-17,44,-183,-132,-151,-197,-192
-124,-83,38,103,-81,-17,44,-183,-132,-151,-197,-192
-118,-77,38,97,-81,-17,50,-177,-126,-145,-197,-192
-112,-77,32,91,-75,-17,50,-177,-126,-145,-197,-192
-106,-71,32,85,-69,-17,56,-171,-120,-139,-197,-192
-100,-71,26,85,-63,-17,56,-171,-120,-139,-197,-192
-106,-77,26,91,-69,-23,62,-171,-120,-139,-191,-192
-106,-77,26,91,-69,-23,62,-171,-120,-139,-191,-192
-112,-83,26,97,-69,-23,68,-171,-120,-139,-185,-192
-112,-83,26,97,-69,-23,68,-171,-120,-139,-185,-192
-118,-83,32,97,-75,-23,62,-177,-120,-145,-191,-192
-124,-83,38,103,-81,-17,62,-177,-120,-145,-191,-192
-130,-83,44,103,-87,-17,56,-183,-120,-151,-197,-192
-136,-83,50,109,-93,-11,56,-183,-120,-151,-197,-192
-124,-77,44,97,-87,-11,62,-183,-114,-145,-191,-186
-118,-77,38,97,-81,-17,62,-183,-114,-145,-191,-186
-106,-71,32,85,-69,-17,68,-183,-108,-139,-185,-180
-100,-71,26,85,-63,-17,68,-183,-108,-139,-185,-180
-106,-71,32,85,-69,-17,62,-183,-114,-145,-191,-186
-106,-71,32,85,-69,-17,62,-183,-114,-145,-191,-186
-112,-71,38,91,-75,-11,56,-183,-120,-151,-197,-192
-112,-71,38,91,-75,-11,56,-183,-120,-151,-197,-192
-112,-71,38,91,-75,-11,56,-183,-114,-151,-191,-186
-112,-71,38,91,-75,-11,56,-183,-114,-151,-191,-186
-112,-71,38,91,-75,-11,56,-183,-108,-151,-185,-180
-112,-71,38,91,-75,-11,56,-183,-108,-151,-185,-180
-118,-77,38,97,-81,-17,56,-183,-114,-145,-185,-186
-118,-77,38,97,-81,-17,56,-183,-114,-145,-185,-186
-124,-83,38,103,-81,-17,56,-183,-120,-139,-185,-192
-124,-83,38,103,-81,-17,56,-183,-120,-139,-185,-192
-124,-83,38,103,-81,-17,50,-183,-114,-139,-185,-186
-124,-83,38,103,-81,-17,50,-183,-114,-139,-185,-186
-124,-83,38,103,-81,-17,44,-183,-108,-139,-185,-180
-124,-83,38,103,-81,-17,44,-183,-108,-139,-185,-180
-118,-89,26,103,-75,-29,44,-177,-108,-139,-185,-180
-118,-89,26,103,-75,-29,44,-177,-108,-139,-185,-180
-112,-95,14,103,-63,-35,44,-171,-108,-139,-185,-180
-112,-95,14,103,-63,-35,44,-171,-108,-139,-185,-180
-118,-89,26,103,-75,-29,50,-171,-108,-145,-185,-186
-118,-89,26,103,-75,-29,50,-171,-108,-145,-185,-186
-124,-83,38,103,-81,-17,56,-171,-108,-151,-185,-192
-124,-83,38,103,-81,-17,56,-171,-108,-151,-185,-192
-124,-83,38,103,-81,-17,50,-171,-114,-151,-185,-192
-124,-83,38,103,-81,-17,50,-171,-114,-151,-185,-192
-124,-83,38,103,-81,-17,44,-171,-120,-151,-185,-192
-124,-83,38,103,-81,-17,44,-171,-120,-151,-185,-192
-118,-83,32,97,-75,-23,50,-171,-114,-151,-185,-186
-118,-83,32,97,-75,-23,50,-171,-114,-151,-185,-186
-112,-83,26,97,-69,-23,56,-171,-108,-151,-185,-180
-112,-83,26,97,-69,-23,56,-171,-108,-151,-185,-180
-118,-83,32,97,-75,-23,50,-171,-114,-151,-185,-186
-118,-83,32,97,-75,-23,50,-171,-114,-151,-185,-186
-124,-83,38,103,-81,-17,44,-171,-120,-151,-185,-192
-124,-83,38,103,-81,-17,44,-171,-120,-151,-185,-192
-112,-77,32,91,-75,-17,50,-165,-114,-145,-179,-186
-112,-77,32,91,-75,-17,50,-165,-108,-145,-179,-186
-106,-65,38,85,-75,-11,62,-159,-102,-133,-173,-186
-106,-65,38,85,-75,-11,62,-159,-102,-133,-167,-186
-106,-65,38,85,-75,-11,62,-165,-102,-139,-173,-186
-106,-65,38,85,-75,-11,62,-159,-102,-139,-173,-186
-124,-77,44,97,-87,-11,62,-165,-102,-145,-179,-186
-124,-77,44,97,-87,-11,62,-165,-102,-145,-179,-186
-112,-65,44,85,-81,-6,68,-159,-96,-145,-179,-180
-100,-59,38,79,-69,-6,68,-159,-96,-139,-173,-174
-94,-41,50,67,-75,-6,74,-147,-96,-139,-173,-168
-76,-35,38,55,-57,-6,80,-147,-84,-127,-167,-156
-82,-29,50,55,-69,0,74,-135,-78,-127,-161,-156
-82,-23,56,49,-69,6,86,-135,-72,-121,-161,-156
-94,-17,74,55,-87,18,86,-135,-72,-121,-155,-162
-94,-17,74,55,-87,18,92,-129,-72,-121,-155,-162
-88,-6,86,43,-87,36,92,-123,-72,-115,-155,-162
-88,-6,86,43,-87,36,92,-123,-72,-115,-155,-162
-94,-6,98,43,-93,42,98,-117,-72,-115,-155,-162
-94,-6,92,43,-93,36,104,-117,-72,-121,-161,-168
-100,-11,86,55,-93,30,110,-117,-66,-115,-161,-168
-94,-17,74,55,-87,18,110,-105,-54,-109,-155,-162
-88,-17,68,49,-81,18,116,-93,-42,-103,-155,-162
-82,-23,56,49,-69,6,116,-87,-36,-97,-149,-162
-70,-11,56,37,-63,12,116,-87,-30,-85,-131,-144
-58,-6,62,25,-57,24,116,-69,-24,-67,-125,-138
-46,6,62,13,-51,30,116,-63,0,-61,-107,-126
-46,24,80,1,-63,48,104,-63,0,-61,-107,-120
-46,24,80,1,-63,48,80,-75,-18,-67,-113,-120
-40,30,80,1,-57,54,68,-81,-18,-55,-101,-108
-40,30,80,1,-57,54,62,-81,-18,-61,-107,-108
-46,30,86,1,-63,54,62,-87,-18,-61,-107,-114
-52,18,80,7,-63,48,62,-93,-18,-61,-107,-120
-52,12,74,13,-63,42,56,-99,-24,-73,-107,-120
-58,-6,62,25,-57,24,56,-105,-24,-73,-113,-126
-58,-6,56,25,-57,18,62,-105,-24,-73,-113,-126
-52,-6,56,19,-51,24,62,-99,-18,-73,-113,-126
-46,-6,50,19,-45,18,74,-99,-18,-73,-107,-126
-40,-6,44,13,-39,18,80,-87,-18,-79,-107,-126
-40,-6,38,19,-39,12,86,-87,-18,-79,-113,-132
-52,-6,44,25,-51,12,86,-87,-24,-85,-113,-132
-58,-11,44,31,-51,6,86,-87,-24,-85,-119,-132
-64,-17,44,37,-57,6,110,-87,-18,-85,-113,-126
-70,-23,44,43,-57,0,128,-81,-18,-91,-113,-126
-82,-23,56,49,-69,6,152,-75,-18,-85,-125,-138
-82,-23,56,49,-69,6,158,-75,-18,-85,-125,-138
-82,-17,62,49,-75,12,176,-57,-18,-79,-131,-144
-88,-23,62,55,-75,12,182,-51,-18,-91,-137,-144
-100,-29,68,61,-87,12,188,-51,-24,-97,-143,-150
-100,-41,56,67,-81,0,194,-51,-24,-97,-155,-156
-106,-53,50,79,-81,-6,212,-39,-24,-103,-155,-162
-106,-65,38,85,-75,-11,218,-33,-24,-109,-161,-168
-112,-59,50,85,-81,-6,236,-15,-24,-115,-167,-168
-118,-71,44,91,-81,-11,278,-3,-24,-127,-173,-174
-118,-83,32,97,-75,-23,308,9,-12,-127,-173,-186
-112,-65,44,85,-81,-6,302,20,0,-115,-167,-186
-106,-23,80,61,-93,18,260,26,17,-109,-155,-174
-76,-6,68,37,-75,24,182,32,17,-91,-137,-162
-70,-6,74,31,-69,30,86,32,29,-91,-143,-156
-70,12,92,19,-81,48,32,44,29,-91,-137,-162
-22,42,74,-4,-45,54,-10,62,47,-73,-119,-138
7,72,62,-40,-21,66,-69,74,59,-55,-107,-132
13,84,68,-46,-21,78,-147,98,83,-43,-95,-126
37,108,68,-70,-9,90,-285,104,101,-31,-77,-108
73,144,68,-106,2,108,-453,104,125,-2,-65,-84
103,162,56,-130,20,108,-591,122,149,16,-35,-66
139,174,32,-154,50,102,-669,134,173,40,1,-42
151,162,8,-154,68,84,-729,158,197,64,12,-24
175,156,-9,-166,92,66,-741,188,239,82,24,-12
211,156,-45,-184,128,48,-729,242,269,100,42,6
241,168,-69,-208,158,42,-759,284,311,142,60,17
253,168,-81,-214,170,36,-807,326,347,160,84,29
277,168,-105,-226,194,24,-831,362,371,184,96,47
295,150,-141,-226,224,0,-819,380,395,196,114,53
307,138,-165,-226,242,-6,-819,434,437,226,138,83
337,156,-177,-244,254,-6,-837,506,491,256,180,107
391,156,-231,-268,308,-29,-885,542,509,298,210,137
415,144,-261,-274,338,-53,-933,524,509,328,240,161
439,138,-291,-286,368,-71,-951,524,527,382,264,197
481,150,-321,-310,404,-83,-957,572,581,430,318,227
493,150,-339,-322,422,-89,-975,542,581,460,354,257
493,120,-369,-304,434,-119,-981,404,503,448,360,263
493,120,-369,-304,434,-119,-993,188,359,424,348,275
469,96,-363,-280,416,-131,-1029,-159,155,358,336,275
445,60,-375,-250,410,-155,-1065,-477,-30,292,300,257
439,36,-393,-238,416,-173,-1077,-615,-102,304,318,269
427,48,-369,-238,398,-155,-1119,-741,-162,340,354,311
427,66,-351,-244,392,-137,-1197,-981,-270,364,402,353
433,78,-345,-250,392,-131,-1257,-1185,-360,394,438,401
445,114,-321,-274,386,-101,-1365,-1383,-426,454,510,461
469,186,-273,-322,374,-41,-1497,-1611,-486,538,606,539
505,270,-231,-388,368,18,-1641,-1827,-540,652,732,659
535,318,-213,-430,374,48,-1755,-1983,-606,730,822,743
577,324,-243,-454,416,36,-1869,-2121,-696,784,900,815
631,360,-261,-490,452,42,-1971,-2283,-816,820,978,881
673,402,-261,-532,470,66,-2097,-2498,-972,838,1044,977
703,432,-261,-562,488,78,-2235,-2720,-1176,838,1110,1043
727,456,-261,-586,494,90,-2367,-2978,-1428,796,1158,1115
739,480,-255,-610,500,108,-2486,-3230,-1728,682,1146,1157
757,474,-279,-616,518,90,-2558,-3398,-1944,574,1146,1181
787,474,-309,-628,548,78,-2600,-3494,-2082,526,1158,1229
817,474,-339,-646,578,60,-2642,-3608,-2238,454,1170,1259
817,480,-327,-652,572,72,-2678,-3728,-2435,316,1146,1289
817,462,-351,-640,584,48,-2678,-3788,-2621,166,1104,1307
829,438,-387,-634,608,18,-2630,-3788,-2735,40,1062,1307
823,396,-423,-610,626,-6,-2576,-3764,-2831,-85,1020,1295
793,336,-453,-562,626,-53,-2504,-3728,-2915,-253,942,1259
769,294,-471,-532,620,-83,-2427,-3680,-3011,-409,870,1235
745,264,-477,-502,614,-101,-2325,-3632,-3089,-547,804,1205
715,234,-477,-472,596,-119,-2217,-3530,-3101,-685,738,1169
673,204,-465,-436,566,-125,-2091,-3410,-3101,-817,654,1127
625,186,-435,-406,530,-119,-1959,-3296,-3083,-937,570,1079
577,162,-411,-370,494,-119,-1833,-3194,-3071,-1069,474,1031
535,132,-399,-334,470,-131,-1731,-3116,-3083,-1219,360,983
511,66,-441,-286,482,-185,-1653,-3032,-3083,-1363,252,923
499,-6,-495,-244,500,-245,-1557,-2918,-3023,-1459,168,863
475,-41,-513,-214,488,-275,-1461,-2798,-2927,-1477,108,839
445,-107,-549,-166,494,-329,-1371,-2678,-2843,-1501,60,803
445,-167,-609,-136,524,-389,-1293,-2576,-2741,-1507,24,791
469,-191,-657,-136,560,-425,-1227,-2450,-2609,-1459,48,797
475,-203,-675,-130,572,-437,-1173,-2337,-2459,-1345,102,839
463,-209,-669,-124,560,-437,-1119,-2223,-2328,-1219,168,869
457,-227,-681,-112,566,-455,-1059,-2115,-2184,-1105,228,899
457,-245,-699,-100,572,-473,-993,-1995,-2058,-985,288,935
469,-245,-711,-106,584,-479,-933,-1863,-1890,-841,384,977
481,-215,-693,-130,584,-455,-885,-1743,-1722,-673,480,1019
493,-191,-687,-148,590,-437,-837,-1629,-1560,-505,582,1079
487,-191,-675,-142,578,-431,-795,-1503,-1410,-361,666,1103
487,-203,-687,-136,584,-443,-741,-1383,-1236,-241,708,1097
493,-179,-675,-154,584,-425,-681,-1245,-1092,-157,720,1073
499,-155,-657,-172,578,-407,-609,-1101,-936,-79,726,1049
487,-137,-627,-172,554,-383,-531,-951,-792,-25,708,995
457,-137,-591,-154,518,-365,-459,-819,-666,-2,648,911
409,-131,-537,-136,476,-335,-363,-675,-528,-2,582,821
379,-131,-507,-118,446,-317,-273,-531,-396,16,498,707
331,-113,-447,-106,386,-275,-195,-411,-300,10,396,575
271,-137,-411,-64,338,-269,-123,-327,-246,-37,264,431
205,-143,-345,-22,272,-245,-69,-267,-210,-73,168,323
151,-101,-249,-16,200,-179,-10,-201,-156,-79,120,251
73,-77,-153,1,110,-113,74,-105,-78,-43,84,173
19,-53,-75,7,44,-65,158,-3,17,-7,60,113
-16,-29,-4,19,-3,-17,230,74,107,22,54,71
-64,-35,26,49,-45,-6,254,128,149,22,12,17
-76,-59,14,67,-45,-17,284,146,155,4,-29,-42
-88,-59,26,73,-57,-11,302,170,179,-2,-53,-78
-100,-65,32,79,-69,-11,320,188,191,-2,-65,-96
-118,-71,44,91,-81,-11,332,206,197,-2,-83,-108
-124,-77,44,97,-87,-11,350,230,209,-2,-95,-132
-130,-71,56,97,-93,-6,368,248,221,-2,-107,-138
-136,-71,62,103,-99,-6,374,260,239,-2,-113,-150
-142,-77,62,109,-105,-6,380,272,251,-2,-125,-162
-148,-77,68,109,-111,-6,386,284,263,-7,-125,-174
-154,-77,74,115,-117,-6,392,296,275,-7,-131,-180
-148,-65,80,103,-117,0,404,308,281,-7,-137,-186
-148,-65,80,103,-117,0,422,326,293,-7,-143,-192
-148,-59,86,103,-117,6,440,338,299,-7,-149,-192
-160,-65,92,109,-129,6,446,350,305,-19,-155,-204
-166,-71,92,115,-129,0,452,362,311,-7,-155,-204
-166,-65,98,115,-135,6,458,368,323,-7,-155,-210
-178,-71,104,121,-141,6,464,374,329,-7,-155,-216
-178,-71,104,121,-141,6,470,392,341,-7,-161,-216
-172,-65,104,115,-141,12,476,404,353,-7,-161,-216
-172,-53,116,109,-147,24,482,416,359,-7,-161,-216
-172,-47,122,109,-147,30,488,428,371,-7,-161,-216
-178,-59,116,115,-147,18,494,440,383,-7,-161,-222
-178,-59,116,115,-147,18,500,446,383,-2,-167,-222
-178,-53,122,115,-153,24,506,464,389,-2,-167,-222
-178,-53,122,115,-153,24,518,476,395,-2,-173,-222
-178,-53,122,115,-153,24,530,488,407,-2,-167,-222
-184,-59,122,121,-153,24,542,500,413,-2,-167,-222
-184,-59,122,121,-153,24,548,512,419,-2,-173,-222
-190,-65,122,127,-159,18,560,536,431,-2,-173,-222
-196,-65,128,127,-165,24,572,548,437,-2,-173,-222
-196,-65,128,127,-165,24,590,554,443,4,-167,-222
-196,-65,128,127,-165,24,596,572,461,4,-167,-222
-196,-59,134,127,-165,30,602,590,479,10,-161,-222
-196,-59,134,127,-165,30,620,602,485,22,-161,-222
-196,-59,134,127,-165,30,632,626,497,22,-155,-228
-196,-59,134,127,-165,30,644,644,503,28,-155,-228
-190,-65,122,127,-159,18,644,668,515,34,-155,-228
-190,-65,122,127,-159,18,662,692,521,40,-155,-228
-184,-59,122,121,-153,24,674,710,545,46,-155,-228
-184,-53,128,115,-159,30,686,740,557,52,-143,-228
-184,-47,134,115,-159,36,698,758,581,58,-143,-228
-190,-47,140,115,-165,36,710,770,599,58,-143,-228
-196,-53,140,121,-171,36,722,800,605,64,-149,-234
-196,-53,140,121,-171,36,734,824,629,70,-143,-234
-196,-47,146,121,-171,42,752,848,641,76,-149,-234
-196,-47,146,121,-171,42,764,872,647,82,-149,-234
-208,-53,152,127,-183,42,776,890,665,88,-149,-234
-196,-59,134,127,-165,30,794,914,689,100,-137,-234
-190,-59,128,121,-159,24,812,938,707,106,-137,-228
-190,-65,122,127,-159,18,824,962,725,112,-131,-228
-202,-65,134,133,-171,24,830,986,737,112,-131,-228
-202,-65,134,133,-171,24,842,1010,755,118,-131,-228
-196,-53,140,121,-171,36,854,1034,773,124,-131,-228
-196,-53,140,121,-171,36,866,1064,791,130,-131,-228
-196,-47,146,121,-171,42,884,1088,815,136,-125,-228
-196,-41,152,115,-177,48,896,1118,833,148,-119,-228
-196,-29,164,109,-183,60,908,1142,851,154,-113,-228
-190,-29,158,109,-177,54,920,1172,875,166,-113,-228
-190,-29,158,109,-177,54,926,1196,893,178,-101,-228
-190,-29,158,109,-177,54,938,1226,917,190,-101,-228
-190,-35,152,109,-171,48,950,1244,935,196,-101,-228
-190,-29,158,109,-177,54,962,1268,953,202,-89,-228
-190,-11,176,97,-183,72,962,1292,977,220,-89,-222
-184,-6,176,91,-183,78,974,1316,995,226,-83,-222
-178,-6,182,85,-177,84,974,1340,1007,238,-83,-222
-178,-6,182,85,-177,84,974,1352,1025,244,-77,-222
-184,-6,188,85,-183,90,974,1370,1043,250,-77,-216
-184,0,194,85,-189,96,980,1376,1061,262,-65,-216
-172,0,182,79,-177,90,980,1394,1079,274,-59,-216
-172,12,194,73,-183,102,980,1400,1085,280,-53,-210
-178,12,200,73,-189,102,968,1406,1103,298,-41,-216
-172,24,206,67,-189,114,968,1412,1121,316,-35,-210
-178,30,218,67,-195,120,962,1412,1133,328,-29,-210
-184,24,218,73,-201,120,944,1412,1145,340,-23,-210
-178,36,224,61,-201,126,932,1400,1157,352,-11,-204
-172,48,230,55,-201,138,920,1400,1169,358,-5,-198
-154,72,236,31,-195,150,914,1394,1181,382,12,-186
-142,90,236,19,-189,162,896,1388,1193,400,12,-174
-148,90,242,19,-195,168,884,1376,1199,424,30,-168
-148,90,242,19,-195,168,872,1364,1205,436,42,-162
-148,96,248,19,-201,174,860,1358,1211,466,60,-156
-136,108,248,7,-195,180,842,1346,1229,484,72,-150
-130,126,260,1,-195,192,818,1328,1235,496,90,-132
-130,126,260,1,-195,192,800,1310,1241,514,102,-126
-130,126,260,1,-195,192,770,1292,1253,538,108,-120
-118,126,248,1,-183,186,752,1274,1265,568,132,-102
-112,138,254,-4,-183,198,734,1256,1271,592,156,-90
-106,150,260,-16,-183,204,710,1238,1283,616,174,-78
-94,150,248,-22,-171,198,698,1226,1289,634,198,-66
-94,150,248,-22,-171,198,674,1208,1295,664,216,-54
-76,162,242,-34,-159,204,650,1190,1307,688,240,-30
-70,168,242,-40,-159,204,626,1166,1313,712,264,-18
-52,186,242,-58,-147,216,614,1154,1325,736,294,6
-40,192,236,-70,-141,216,596,1136,1331,772,318,17
-22,192,224,-76,-123,204,578,1118,1337,802,342,29
-22,198,230,-82,-123,210,554,1100,1343,832,366,53
1,192,200,-88,-99,192,530,1082,1355,862,396,71
1,198,206,-94,-99,198,518,1058,1355,892,426,95
1,204,206,-100,-99,204,488,1046,1361,916,450,119
7,210,200,-106,-87,204,476,1016,1361,958,474,137
19,222,200,-118,-81,210,452,998,1373,988,498,167
31,228,194,-130,-75,210,428,986,1373,1024,534,191
43,234,188,-136,-63,210,410,962,1373,1054,570,215
55,234,176,-142,-51,204,392,944,1373,1084,600,239
67,240,176,-154,-45,210,368,920,1367,1114,636,257
79,240,164,-160,-33,204,344,896,1361,1138,666,281
79,246,170,-166,-39,210,326,872,1355,1168,696,305
91,246,158,-172,-27,204,296,848,1343,1192,726,329
109,258,152,-184,-15,210,278,812,1337,1216,750,353
121,264,146,-196,-3,210,266,788,1319,1234,768,377
133,276,146,-208,2,216,236,764,1301,1252,798,407
139,276,140,-208,2,210,224,728,1271,1258,822,431
151,288,140,-220,2,216,200,704,1247,1264,846,449
151,288,140,-220,2,216,182,668,1217,1264,858,467
157,288,134,-226,8,216,158,632,1193,1258,864,479
157,288,134,-226,8,216,146,596,1151,1246,870,491
163,288,128,-226,14,210,134,560,1121,1234,870,503
163,282,122,-226,14,204,116,524,1079,1216,858,503
163,276,116,-220,20,198,92,476,1025,1186,858,503
163,282,122,-226,14,204,80,440,989,1156,846,503
163,276,116,-220,20,198,68,404,941,1114,828,503
151,264,116,-208,14,192,56,368,899,1078,810,497
145,264,122,-208,8,198,38,326,845,1030,780,491
145,258,116,-202,8,192,26,284,797,988,756,479
133,240,110,-190,8,180,14,254,749,934,720,473
121,234,116,-178,2,180,8,224,701,892,690,449
127,222,92,-172,14,156,8,194,659,844,672,437
115,210,92,-160,8,150,8,164,611,796,630,419
109,192,80,-148,8,138,14,134,569,736,600,389
97,186,86,-142,2,138,14,110,521,700,570,365
97,174,74,-136,8,126,14,92,485,652,528,347
85,168,80,-124,2,126,14,62,443,604,498,329
85,150,62,-118,8,108,14,44,401,556,456,305
73,144,68,-106,2,108,14,20,371,514,420,281
55,120,62,-88,2,90,8,14,329,472,378,257
37,102,62,-70,-3,84,8,-3,293,424,348,239
19,84,62,-52,-15,72,2,-15,263,382,312,215
7,78,68,-40,-21,72,8,-33,239,346,282,197
1,66,62,-34,-21,66,14,-39,221,310,252,185
7,54,44,-28,-9,48,14,-45,203,274,234,161
1,48,44,-22,-15,48,26,-51,179,256,216,149
1,36,32,-16,-9,36,26,-63,167,238,192,137
1,24,26,-10,-9,24,32,-75,143,208,168,113
1,18,26,-4,-9,18,32,-75,125,184,150,101
1,12,20,1,-9,12,44,-87,107,148,138,95
-16,0,26,1,-21,12,50,-93,95,124,114,83
-22,-6,20,7,-21,0,44,-105,83,106,96,65
-28,-6,20,13,-27,0,44,-105,71,82,78,53
-34,-17,14,25,-27,-6,44,-117,59,64,60,47
-40,-35,2,37,-21,-11,44,-123,53,46,54,35
-46,-29,14,37,-33,-6,50,-117,47,40,42,29
-46,-29,14,37,-33,-6,56,-117,41,28,30,23
-46,-29,14,37,-33,-6,62,-117,35,16,12,17
-46,-41,2,43,-27,-17,62,-117,29,4,7,12
-58,-47,8,49,-33,-17,62,-123,23,-2,7,12
-64,-53,8,55,-39,-17,62,-123,17,-2,-5,0
-70,-65,2,67,-39,-29,62,-135,17,-7,-17,-6
-70,-71,-4,67,-33,-35,62,-135,17,-19,-23,-6
-70,-77,-4,73,-33,-41,62,-135,12,-19,-29,-12
-70,-77,-4,73,-33,-41,68,-135,12,-25,-35,-18
-70,-77,-4,73,-33,-41,68,-135,6,-31,-35,-18
-70,-77,-4,73,-33,-41,68,-135,0,-37,-35,-24
-70,-71,-4,67,-33,-35,74,-135,0,-37,-35,-30
-76,-71,2,73,-39,-29,74,-135,0,-43,-41,-24
-82,-77,2,79,-45,-35,80,-141,0,-49,-41,-30
-82,-77,2,79,-45,-35,80,-141,6,-49,-47,-36
-70,-77,-4,73,-33,-41,74,-141,0,-61,-53,-36
-70,-77,-4,73,-33,-41,74,-141,0,-61,-53,-36
-64,-83,-9,73,-21,-47,74,-141,-6,-67,-59,-36
-64,-83,-9,73,-21,-47,74,-141,-6,-67,-71,-42
-70,-89,-9,79,-27,-53,80,-141,-6,-73,-71,-48
-70,-83,-4,73,-27,-47,80,-141,-12,-73,-71,-48
-70,-77,-4,73,-33,-41,86,-141,-12,-73,-71,-48
-70,-65,2,67,-39,-29,86,-141,-12,-79,-71,-48
-70,-65,2,67,-39,-29,92,-141,-12,-79,-77,-48
-64,-65,-4,61,-33,-29,92,-141,-12,-79,-77,-48
-64,-65,-4,61,-33,-29,92,-141,-12,-79,-77,-48
-76,-71,2,73,-39,-29,92,-141,-12,-79,-77,-48
-82,-77,2,79,-45,-35,92,-141,-12,-85,-89,-60
-82,-71,8,73,-45,-29,92,-141,-12,-85,-89,-60
-82,-77,2,79,-45,-35,92,-141,-12,-79,-77,-66
-82,-77,2,79,-45,-35,92,-141,-12,-79,-77,-66
-88,-77,8,79,-51,-29,92,-141,-6,-79,-89,-72
-88,-83,2,85,-45,-35,92,-141,-6,-79,-89,-72
-100,-83,14,91,-57,-29,92,-141,-6,-79,-95,-72
-100,-77,20,85,-63,-23,92,-141,-6,-79,-95,-72
-88,-71,14,79,-51,-23,92,-135,-6,-79,-89,-72
-82,-65,14,73,-51,-23,92,-135,-6,-79,-89,-72
-76,-59,14,67,-45,-17,98,-123,-6,-79,-95,-72
-82,-59,20,67,-51,-17,98,-123,0,-79,-95,-72
-82,-59,20,67,-51,-17,98,-123,0,-79,-95,-72
-82,-71,8,73,-45,-29,98,-123,0,-79,-95,-72
-76,-59,14,67,-45,-17,98,-123,0,-79,-89,-66
-70,-53,14,61,-45,-17,98,-123,0,-79,-89,-66
-76,-59,14,67,-45,-17,92,-123,0,-85,-95,-72
-76,-59,14,67,-45,-17,92,-123,0,-85,-95,-72
-82,-65,14,73,-51,-23,86,-123,0,-91,-101,-78
-94,-71,20,79,-57,-23,86,-123,6,-91,-101,-78
-88,-71,14,79,-51,-23,92,-123,6,-85,-101,-78
-82,-71,8,73,-45,-29,92,-123,6,-85,-101,-78
-76,-71,2,73,-39,-29,92,-117,6,-79,-101,-78
-76,-77,-4,73,-39,-35,92,-111,6,-79,-101,-78
-76,-71,2,73,-39,-29,98,-117,6,-85,-101,-84
-82,-59,20,67,-51,-17,92,-117,6,-85,-101,-84
-82,-53,26,67,-57,-11,98,-123,6,-91,-101,-96
-76,-47,26,61,-51,-6,98,-129,6,-97,-107,-96
-76,-47,26,61,-51,-6,98,-129,6,-97,-107,-96
-76,-47,26,61,-51,-6,98,-123,6,-91,-101,-90
-82,-53,26,67,-57,-11,98,-123,6,-91,-101,-90
-88,-47,38,67,-63,-6,98,-123,6,-91,-101,-90
-88,-47,38,67,-63,-6,98,-117,6,-91,-101,-90
-88,-53,32,67,-63,-6,98,-123,6,-91,-101,-90
-88,-53,32,67,-63,-6,104,-117,12,-91,-101,-90
-88,-53,32,67,-63,-6,104,-123,12,-91,-101,-90
-88,-53,32,67,-63,-6,92,-123,6,-91,-101,-96
-88,-53,32,67,-63,-6,92,-117,6,-91,-101,-96
-82,-47,32,61,-57,-6,92,-111,0,-91,-101,-102
-82,-47,32,61,-57,-6,92,-111,0,-91,-107,-102
-94,-65,26,79,-63,-17,92,-117,0,-97,-101,-102
-94,-65,26,79,-63,-17,92,-117,0,-97,-101,-102
-82,-53,26,67,-57,-11,98,-117,12,-85,-95,-90
-82,-35,44,55,-63,-6,104,-117,12,-85,-95,-90
-88,-53,32,67,-63,-6,104,-117,12,-91,-101,-90
-94,-53,38,73,-69,-6,98,-117,6,-91,-107,-96
-94,-53,38,73,-69,-6,98,-117,6,-97,-113,-96
-94,-53,38,73,-69,-6,98,-123,6,-97,-113,-102
-88,-59,26,73,-57,-11,92,-123,0,-97,-113,-102
-88,-59,26,73,-57,-11,92,-123,0,-97,-113,-102
-88,-65,20,73,-57,-17,86,-123,0,-91,-113,-102
-88,-65,20,73,-57,-17,86,-129,0,-91,-113,-102
-94,-71,20,79,-57,-23,92,-123,-6,-97,-119,-102
-94,-71,20,79,-57,-23,92,-123,-6,-103,-119,-108
-94,-77,14,85,-57,-29,98,-117,-12,-109,-119,-108
-94,-77,14,85,-57,-29,98,-117,-18,-109,-119,-108
-88,-71,14,79,-51,-23,92,-117,-12,-103,-113,-108
-88,-65,20,73,-57,-17,92,-117,-12,-103,-113,-108
-82,-59,20,67,-51,-17,86,-117,-6,-97,-113,-108
-82,-59,20,67,-51,-17,86,-117,-12,-103,-119,-108
-88,-65,20,73,-57,-17,92,-123,-12,-103,-119,-108
-88,-65,20,73,-57,-17,92,-123,-12,-103,-119,-108
-94,-71,20,79,-57,-23,98,-135,-12,-109,-119,-108
-94,-71,20,79,-57,-23,98,-135,-18,-109,-119,-108
-94,-71,20,79,-57,-23,92,-135,-24,-115,-119,-114
-94,-71,20,79,-57,-23,92,-141,-24,-115,-125,-120
-100,-71,26,85,-63,-17,86,-141,-30,-127,-125,-126
-100,-71,26,85,-63,-17,86,-141,-36,-127,-125,-126
-88,-65,20,73,-57,-17,92,-135,-30,-121,-119,-120
-88,-65,20,73,-57,-17,92,-135,-30,-121,-125,-120
-82,-59,20,67,-51,-17,98,-129,-24,-115,-119,-114
-82,-59,20,67,-51,-17,98,-129,-24,-115,-119,-120
-88,-65,20,73,-57,-17,86,-129,-30,-121,-125,-120
-88,-65,20,73,-57,-17,86,-135,-30,-121,-125,-120
-94,-71,20,79,-57,-23,80,-135,-30,-133,-131,-120
-106,-77,26,91,-69,-23,80,-135,-30,-133,-131,-120
-112,-89,20,97,-69,-29,80,-141,-42,-133,-143,-126
-112,-89,20,97,-69,-29,80,-141,-42,-133,-143,-126
-112,-89,20,97,-69,-29,80,-141,-36,-139,-143,-132
-106,-77,26,91,-69,-23,80,-141,-36,-139,-137,-126
-94,-65,26,79,-63,-17,92,-135,-36,-133,-131,-120
-88,-65,20,73,-57,-17,92,-135,-36,-133,-131,-120
-76,-53,20,61,-51,-11,92,-129,-36,-127,-125,-114
-76,-47,26,61,-51,-6,92,-129,-36,-127,-125,-114
-82,-53,26,67,-57,-11,86,-141,-42,-127,-131,-120
-82,-53,26,67,-57,-11,86,-141,-42,-133,-131,-120
-88,-59,26,73,-57,-11,80,-147,-42,-133,-137,-120
-88,-71,14,79,-51,-23,80,-141,-42,-133,-137,-120
-88,-65,20,73,-57,-17,80,-141,-42,-133,-137,-120
-88,-65,20,73,-57,-17,80,-141,-42,-133,-137,-120
-88,-77,8,79,-51,-29,80,-141,-42,-133,-137,-120
-88,-77,8,79,-51,-29,80,-141,-42,-133,-143,-120
-94,-77,14,85,-57,-29,86,-135,-42,-139,-137,-120
-94,-77,14,85,-57,-29,86,-141,-48,-139,-137,-120
-100,-77,20,85,-63,-23,86,-135,-48,-145,-131,-120
-100,-77,20,85,-63,-23,80,-135,-48,-145,-131,-120
-106,-83,20,91,-63,-29,80,-141,-54,-145,-143,-132
-106,-83,20,91,-63,-29,80,-141,-54,-145,-143,-132
-100,-89,8,91,-57,-35,80,-147,-60,-145,-149,-132
-100,-89,8,91,-57,-35,80,-147,-60,-145,-149,-132
-94,-77,14,85,-57,-29,86,-141,-54,-145,-143,-126
-88,-77,8,79,-51,-29,86,-141,-54,-145,-137,-126
-82,-71,8,73,-45,-29,86,-135,-48,-145,-137,-120
-88,-77,8,79,-51,-29,86,-141,-48,-151,-143,-120
-100,-83,14,91,-57,-29,74,-141,-54,-151,-143,-126
-100,-83,14,91,-57,-29,74,-141,-54,-151,-143,-126
-100,-71,26,85,-63,-17,68,-141,-60,-151,-149,-132
-100,-71,26,85,-63,-17,68,-135,-60,-151,-149,-132
-100,-71,26,85,-63,-17,68,-141,-60,-151,-143,-126
-106,-77,26,91,-69,-23,68,-141,-60,-151,-143,-126
-106,-77,26,91,-69,-23,74,-147,-60,-151,-137,-120
-100,-71,26,85,-63,-17,74,-147,-60,-151,-137,-120
-94,-65,26,79,-63,-17,80,-147,-54,-151,-137,-120
-88,-59,26,73,-57,-11,80,-147,-54,-151,-137,-120
-82,-53,26,67,-57,-11,86,-141,-48,-151,-143,-120
-76,-53,20,61,-51,-11,80,-141,-48,-151,-149,-120
-82,-59,20,67,-51,-17,74,-147,-54,-157,-155,-126
-82,-59,20,67,-51,-17,74,-147,-54,-157,-155,-126
-88,-65,20,73,-57,-17,68,-147,-54,-157,-149,-138
-88,-59,26,73,-57,-11,68,-147,-54,-157,-149,-138
-88,-65,20,73,-57,-17,74,-141,-54,-157,-149,-126
-88,-65,20,73,-57,-17,74,-141,-54,-151,-149,-126
-88,-71,14,79,-51,-23,68,-135,-54,-151,-149,-120
-88,-71,14,79,-51,-23,68,-135,-54,-151,-149,-126
-88,-65,20,73,-57,-17,74,-141,-54,-151,-149,-126
-82,-65,14,73,-51,-23,74,-141,-54,-151,-149,-126
-82,-59,20,67,-51,-17,68,-147,-54,-151,-149,-126
-94,-65,26,79,-63,-17,68,-147,-54,-151,-149,-126
-94,-71,20,79,-57,-23,68,-141,-54,-157,-149,-126
-88,-71,14,79,-51,-23,68,-141,-54,-157,-149,-120
-88,-77,8,79,-51,-29,68,-135,-54,-157,-149,-120
-88,-71,14,79,-51,-23,68,-135,-54,-157,-149,-120
-88,-71,14,79,-51,-23,68,-135,-54,-157,-149,-114
-88,-71,14,79,-51,-23,68,-135,-54,-157,-149,-114
-88,-71,14,79,-51,-23,68,-141,-54,-157,-149,-108
-88,-71,14,79,-51,-23,56,-141,-54,-157,-155,-108
-100,-71,26,85,-63,-17,68,-129,-54,-145,-155,-108
-100,-83,14,91,-57,-29,80,-141,-54,-145,-155,-108
-112,-95,14,103,-63,-35,68,-141,-54,-157,-155,-120
-100,-89,8,91,-57,-35,80,-129,-60,-157,-155,-114
-64,-47,14,55,-39,-11,80,-123,-60,-151,-149,-108
-70,-53,14,61,-45,-17,80,-129,-60,-157,-149,-108
-76,-53,20,61,-51,-11,80,-129,-60,-157,-149,-108
-82,-59,20,67,-51,-17,80,-135,-60,-163,-149,-108
-88,-59,26,73,-57,-11,80,-135,-60,-163,-149,-108
-94,-65,26,79,-63,-17,80,-135,-60,-157,-149,-108
-94,-65,26,79,-63,-17,80,-135,-60,-157,-149,-108
-100,-71,26,85,-63,-17,80,-135,-60,-151,-149,-108
-100,-71,26,85,-63,-17,80,-135,-60,-151,-149,-108
-94,-71,20,79,-57,-23,80,-135,-60,-151,-155,-108
-94,-71,20,79,-57,-23,80,-135,-60,-151,-155,-108
-88,-71,14,79,-51,-23,80,-135,-60,-151,-161,-108
-88,-71,14,79,-51,-23,80,-135,-60,-151,-161,-108
-88,-71,14,79,-51,-23,74,-135,-60,-157,-161,-108
-88,-71,14,79,-51,-23,74,-135,-60,-157,-161,-108
-88,-71,14,79,-51,-23,68,-135,-60,-163,-161,-108
-88,-71,14,79,-51,-23,68,-135,-60,-163,-161,-108
-94,-77,14,85,-57,-29,68,-135,-60,-163,-161,-102
-94,-77,14,85,-57,-29,68,-135,-60,-163,-161,-102
-100,-83,14,91,-57,-29,68,-135,-60,-163,-161,-96
-100,-83,14,91,-57,-29,68,-135,-60,-163,-161,-96
-94,-77,14,85,-57,-29,74,-135,-60,-163,-161,-96
-94,-77,14,85,-57,-29,74,-135,-60,-163,-161,-96
-88,-71,14,79,-51,-23,80,-135,-60,-163,-161,-96
-88,-71,14,79,-51,-23,80,-135,-60,-163,-161,-96
-94,-71,20,79,-57,-23,74,-141,-60,-163,-161,-102
-94,-71,20,79,-57,-23,74,-141,-60,-163,-161,-102
-100,-71,26,85,-63,-17,68,-147,-60,-163,-161,-108
-100,-71,26,85,-63,-17,68,-147,-60,-163,-161,-108
-94,-65,26,79,-63,-17,74,-141,-60,-163,-167,-108
-94,-65,26,79,-63,-17,74,-141,-60,-163,-167,-108
-88,-59,26,73,-57,-11,80,-135,-60,-163,-173,-108
-88,-59,26,73,-57,-11,80,-135,-60,-163,-173,-108
-94,-65,26,79,-63,-17,80,-135,-66,-163,-167,-102
-94,-65,26,79,-63,-17,80,-135,-66,-163,-167,-102
-100,-71,26,85,-63,-17,80,-135,-72,-163,-161,-96
-100,-71,26,85,-63,-17,80,-135,-72,-163,-161,-96
-94,-71,20,79,-57,-23,80,-135,-72,-163,-167,-102
-94,-71,20,79,-57,-23,80,-135,-72,-163,-167,-102
-88,-71,14,79,-51,-23,80,-135,-72,-163,-173,-108
-88,-71,14,79,-51,-23,80,-135,-72,-163,-173,-108
-88,-71,14,79,-51,-23,80,-135,-72,-163,-167,-102
-88,-71,14,79,-51,-23,80,-135,-72,-163,-167,-102
-88,-71,14,79,-51,-23,80,-135,-72,-163,-161,-96
-88,-71,14,79,-51,-23,80,-135,-72,-163,-161,-96
-94,-71,20,79,-57,-23,80,-129,-72,-163,-167,-96
-94,-71,20,79,-57,-23,80,-129,-72,-163,-167,-96
-100,-71,26,85,-63,-17,80,-123,-72,-163,-173,-96
-100,-71,26,85,-63,-17,80,-123,-72,-163,-173,-96
-94,-71,20,79,-57,-23,80,-129,-72,-163,-173,-96
-94,-71,20,79,-57,-23,80,-129,-72,-163,-173,-96
-88,-71,14,79,-51,-23,80,-135,-72,-163,-173,-96
-88,-71,14,79,-51,-23,80,-135,-72,-163,-173,-96
-94,-71,20,79,-57,-23,80,-135,-66,-163,-173,-96
-94,-71,20,79,-57,-23,80,-135,-66,-163,-173,-96
-100,-71,26,85,-63,-17,80,-135,-60,-163,-173,-96
-100,-71,26,85,-63,-17,80,-135,-60,-163,-173,-96
-106,-77,26,91,-69,-23,74,-135,-66,-169,-173,-96
-106,-77,26,91,-69,-23,74,-135,-66,-169,-173,-96
-112,-83,26,97,-69,-23,68,-135,-72,-175,-173,-96
-112,-83,26,97,-69,-23,68,-135,-72,-175,-173,-96
-106,-77,26,91,-69,-23,74,-135,-66,-169,-173,-96
-100,-71,26,85,-63,-17,74,-135,-66,-169,-173,-96
-94,-65,26,79,-63,-17,80,-135,-60,-163,-173,-96
-88,-59,26,73,-57,-11,80,-135,-60,-163,-173,-96
-88,-59,26,73,-57,-11,80,-135,-60,-163,-173,-90
-88,-59,26,73,-57,-11,80,-135,-60,-163,-173,-90
-88,-59,26,73,-57,-11,80,-135,-60,-163,-173,-84
-88,-59,26,73,-57,-11,80,-135,-60,-163,-173,-84
-88,-59,26,73,-57,-11,80,-129,-60,-163,-173,-84
-88,-59,26,73,-57,-11,80,-129,-60,-163,-173,-84
-88,-59,26,73,-57,-11,80,-123,-60,-163,-173,-84
-88,-59,26,73,-57,-11,80,-123,-60,-163,-173,-84
-94,-65,26,79,-63,-17,80,-123,-66,-163,-173,-84
-94,-65,26,79,-63,-17,80,-123,-66,-163,-173,-84
-100,-71,26,85,-63,-17,80,-123,-72,-163,-173,-84
-100,-71,26,85,-63,-17,80,-123,-72,-163,-173,-84
-100,-71,26,85,-63,-17,80,-123,-72,-169,-173,-84
-100,-71,26,85,-63,-17,80,-123,-72,-169,-173,-84
-100,-71,26,85,-63,-17,80,-123,-72,-175,-173,-84
-100,-71,26,85,-63,-17,80,-123,-72,-175,-173,-84
-94,-71,20,79,-57,-23,80,-123,-72,-169,-173,-84
-94,-71,20,79,-57,-23,80,-123,-72,-169,-173,-84
-88,-71,14,79,-51,-23,80,-123,-72,-163,-173,-84
-88,-71,14,79,-51,-23,80,-123,-72,-163,-173,-84
-94,-71,20,79,-57,-23,74,-123,-72,-169,-173,-84
-100,-71,26,85,-63,-17,74,-123,-72,-169,-173,-84
-106,-71,32,85,-69,-17,68,-123,-72,-175,-173,-84
-112,-71,38,91,-75,-11,68,-123,-72,-175,-173,-84
-106,-71,32,85,-69,-17,74,-123,-66,-169,-173,-84
-106,-71,32,85,-69,-17,74,-123,-66,-169,-173,-84
-100,-71,26,85,-63,-17,80,-123,-60,-163,-173,-84
-100,-71,26,85,-63,-17,80,-123,-60,-163,-173,-84
-100,-71,26,85,-63,-17,80,-123,-60,-169,-173,-78
-100,-71,26,85,-63,-17,80,-123,-60,-169,-173,-78
-100,-71,26,85,-63,-17,80,-123,-60,-175,-173,-72
-100,-71,26,85,-63,-17,80,-123,-60,-175,-173,-72
-94,-65,26,79,-63,-17,80,-117,-60,-169,-173,-72
-94,-65,26,79,-63,-17,80,-117,-60,-169,-173,-72
-88,-59,26,73,-57,-11,80,-111,-60,-163,-173,-72
-88,-59,26,73,-57,-11,80,-111,-60,-163,-173,-72
-88,-65,20,73,-57,-17,74,-117,-66,-169,-173,-72
-88,-65,20,73,-57,-17,74,-117,-66,-169,-173,-72
-88,-71,14,79,-51,-23,68,-123,-72,-175,-173,-72
-88,-71,14,79,-51,-23,68,-123,-72,-175,-173,-72
-94,-71,20,79,-57,-23,68,-123,-72,-175,-173,-72
-100,-71,26,85,-63,-17,68,-123,-72,-175,-173,-72
-106,-71,32,85,-69,-17,68,-123,-72,-175,-173,-72
-112,-71,38,91,-75,-11,68,-123,-72,-175,-173,-72
-106,-65,38,85,-75,-11,74,-123,-72,-175,-173,-72
-100,-65,32,79,-69,-11,74,-123,-72,-175,-173,-72
-94,-59,32,73,-63,-11,80,-123,-72,-175,-173,-72
-88,-59,26,73,-57,-11,80,-123,-72,-175,-173,-72
-94,-65,26,79,-63,-17,74,-123,-72,-175,-179,-78
-94,-65,26,79,-63,-17,74,-123,-72,-175,-179,-78
-100,-71,26,85,-63,-17,68,-123,-72,-175,-185,-84
-100,-71,26,85,-63,-17,68,-123,-72,-175,-185,-84
-94,-71,20,79,-57,-23,68,-123,-72,-175,-185,-78
-94,-71,20,79,-57,-23,68,-123,-72,-175,-185,-78
-88,-71,14,79,-51,-23,68,-123,-72,-175,-185,-72
-88,-71,14,79,-51,-23,68,-123,-72,-175,-185,-72
-94,-71,20,79,-57,-23,74,-123,-72,-175,-179,-72
-94,-71,20,79,-57,-23,74,-123,-72,-175,-179,-72
-100,-71,26,85,-63,-17,80,-123,-72,-175,-173,-72
-100,-71,26,85,-63,-17,80,-123,-72,-175,-173,-72
-100,-65,32,79,-69,-11,74,-117,-72,-175,-173,-72
-100,-65,32,79,-69,-11,74,-117,-72,-175,-173,-72
-100,-59,38,79,-69,-6,68,-111,-72,-175,-173,-72
-94,-59,32,73,-63,-11,68,-105,-72,-175,-173,-66
-94,-59,32,73,-63,-11,74,-111,-60,-175,-179,-66
-94,-53,38,73,-69,-6,80,-105,-60,-169,-179,-66
-94,-53,38,73,-69,-6,86,-111,-54,-169,-179,-66
-88,-47,38,67,-63,-6,86,-111,-54,-169,-179,-66
-88,-47,38,67,-63,-6,86,-105,-54,-169,-179,-60
-100,-53,44,73,-75,-6,86,-105,-54,-169,-179,-60
-100,-53,44,73,-75,-6,86,-105,-54,-169,-179,-54
-94,-47,44,67,-69,-6,86,-105,-48,-169,-179,-54
-88,-41,44,61,-69,-6,86,-105,-48,-163,-167,-54
-88,-29,56,55,-75,6,86,-99,-48,-163,-167,-54
-76,-23,50,49,-63,6,92,-99,-36,-151,-155,-48
-76,-17,56,43,-69,12,92,-87,-30,-151,-149,-42
-76,-17,56,43,-69,12,104,-87,-24,-145,-149,-36
-82,-11,68,43,-75,18,110,-87,-24,-145,-143,-36
-82,-17,62,49,-75,12,116,-81,-24,-145,-143,-30
-76,-6,68,37,-75,24,116,-81,-24,-139,-143,-30
-76,-6,74,37,-75,30,116,-81,-24,-139,-149,-36
-82,-6,80,37,-81,30,122,-81,-24,-139,-149,-36
-82,-6,80,37,-81,30,128,-81,-24,-145,-161,-48
-82,-6,74,43,-81,24,134,-81,-24,-145,-161,-48
-76,-6,68,37,-75,24,134,-69,-18,-139,-155,-42
-64,-6,62,31,-63,24,140,-57,-12,-139,-155,-42
-58,-6,56,25,-57,18,140,-51,-12,-133,-149,-42
-52,-6,56,19,-51,24,140,-51,-6,-121,-137,-30
-34,6,50,7,-39,24,140,-33,0,-103,-131,-24
-28,12,50,1,-39,30,140,-27,17,-97,-119,-18
-22,24,56,1,-39,36,128,-27,17,-97,-119,-12
-22,30,62,1,-39,42,104,-39,12,-97,-119,-12
-22,30,62,1,-39,42,92,-45,17,-85,-107,0
-22,36,68,1,-45,48,86,-45,17,-85,-107,0
-34,30,74,1,-51,48,86,-51,17,-85,-107,-6
-34,18,62,1,-45,36,86,-51,17,-85,-107,-6
-28,18,56,1,-39,36,80,-57,17,-91,-101,0
-28,6,44,1,-33,24,80,-57,17,-91,-107,0
-22,6,38,1,-27,18,86,-57,17,-85,-101,6
-22,12,44,1,-33,24,86,-57,17,-85,-101,6
-22,6,38,1,-27,18,98,-57,17,-85,-101,0
-22,0,32,1,-27,12,104,-51,17,-91,-101,0
-28,-6,26,13,-27,6,110,-51,17,-91,-113,-12
-40,-6,38,19,-39,12,110,-51,17,-97,-119,-18
-46,-6,38,25,-45,6,110,-51,17,-103,-125,-18
-52,-6,44,25,-51,12,134,-51,17,-103,-125,-18
-58,-11,44,31,-51,6,152,-45,17,-115,-125,-18
-70,-17,50,43,-63,6,176,-45,17,-115,-131,-30
-70,-17,50,43,-63,6,182,-45,17,-109,-131,-24
-70,-17,50,43,-63,6,200,-33,17,-109,-131,-30
-76,-23,50,49,-63,6,206,-27,17,-115,-137,-24
-82,-23,56,49,-69,6,206,-27,17,-121,-143,-30
-70,-29,38,49,-57,-6,224,-15,23,-121,-143,-36
-70,-23,44,43,-57,0,224,-3,23,-127,-143,-42
-82,-29,50,55,-69,0,230,-9,17,-133,-149,-48
-88,-59,26,73,-57,-11,248,-3,17,-139,-155,-60
-106,-71,32,85,-69,-17,290,14,23,-151,-161,-66
-118,-71,44,91,-81,-11,320,20,23,-151,-173,-78
-112,-41,68,73,-93,6,302,32,35,-139,-167,-66
-70,-6,68,31,-69,24,248,50,53,-133,-155,-66
-40,42,92,1,-63,66,170,56,77,-115,-137,-54
-34,42,86,1,-57,60,86,68,89,-103,-131,-48
-34,36,80,1,-57,54,20,68,89,-103,-137,-42
-10,66,86,-22,-45,72,-21,86,95,-85,-131,-42
1,72,74,-34,-33,72,-93,98,131,-79,-119,-24
13,84,68,-46,-21,78,-183,110,143,-67,-107,-18
49,108,56,-76,2,84,-309,128,161,-43,-89,0
97,144,44,-118,20,96,-477,152,197,-13,-53,17
139,162,20,-148,56,90,-591,158,221,4,-35,41
163,174,8,-166,74,90,-669,170,245,28,1,65
175,174,-4,-172,86,84,-717,206,263,52,12,71
199,180,-9,-190,104,78,-717,236,293,70,12,83
235,180,-45,-208,140,60,-717,284,329,88,42,101
241,180,-57,-214,152,54,-741,332,371,118,60,131
277,168,-105,-226,194,24,-771,374,407,148,84,149
313,180,-129,-244,224,18,-795,398,431,172,96,155
331,162,-165,-244,248,-6,-783,428,455,184,114,173
331,150,-177,-238,254,-6,-783,494,497,214,138,179
373,156,-213,-262,290,-23,-801,554,533,244,180,203
415,156,-249,-280,332,-41,-849,554,533,274,210,233
427,144,-273,-280,350,-59,-885,500,521,304,228,257
439,138,-291,-286,368,-71,-915,494,539,334,252,275
481,138,-333,-304,410,-95,-921,512,581,382,294,317
505,162,-339,-334,428,-83,-939,464,569,400,330,347
505,156,-345,-328,428,-89,-951,284,467,400,336,359
493,120,-369,-304,434,-119,-981,20,299,364,324,359
457,84,-363,-268,410,-137,-1017,-345,71,298,288,347
445,48,-387,-244,416,-167,-1041,-597,-78,244,276,341
451,60,-381,-250,416,-155,-1065,-711,-126,268,306,365
439,84,-345,-256,392,-125,-1119,-885,-222,280,342,395
427,90,-327,-256,380,-113,-1209,-1125,-330,304,378,437
433,102,-321,-262,380,-107,-1281,-1311,-396,346,426,485
457,150,-297,-298,380,-71,-1377,-1497,-450,418,510,551
469,210,-249,-334,362,-17,-1509,-1713,-510,502,606,647
505,282,-219,-394,362,30,-1653,-1911,-576,592,720,749
571,330,-237,-454,404,42,-1755,-2067,-642,670,822,845
601,360,-237,-484,422,60,-1857,-2211,-750,706,888,911
631,384,-243,-502,440,66,-1971,-2414,-900,706,942,977
661,426,-231,-538,446,96,-2097,-2642,-1092,712,1008,1055
727,480,-243,-598,488,114,-2223,-2852,-1290,712,1074,1139
757,510,-243,-634,500,132,-2343,-3110,-1554,634,1098,1199
763,510,-243,-640,506,132,-2450,-3362,-1848,502,1086,1235
757,504,-243,-634,500,126,-2534,-3506,-2052,412,1086,1259
799,516,-273,-658,536,120,-2576,-3590,-2178,352,1098,1295
841,528,-303,-688,572,108,-2618,-3698,-2334,274,1110,1343
841,528,-303,-688,572,108,-2654,-3812,-2531,142,1086,1373
829,492,-327,-664,578,78,-2642,-3860,-2687,-2,1044,1379
841,474,-363,-658,602,48,-2582,-3848,-2783,-103,1014,1379
835,432,-399,-634,620,12,-2516,-3812,-2879,-241,966,1367
805,384,-417,-592,614,-11,-2456,-3764,-2975,-397,894,1343
781,366,-411,-574,596,-17,-2379,-3716,-3059,-547,822,1313
769,348,-417,-556,596,-29,-2289,-3650,-3101,-667,756,1283
727,312,-405,-514,566,-41,-2187,-3554,-3113,-787,702,1259
685,270,-405,-478,542,-59,-2055,-3422,-3089,-901,630,1223
661,252,-399,-460,530,-65,-1917,-3296,-3047,-979,558,1175
625,234,-387,-430,506,-71,-1797,-3206,-3035,-1093,486,1139
571,180,-387,-376,482,-101,-1719,-3140,-3059,-1219,384,1085
547,126,-417,-334,488,-143,-1629,-3056,-3035,-1351,270,1037
535,54,-477,-292,506,-209,-1533,-2930,-2975,-1435,204,1001
517,-6,-513,-256,518,-251,-1461,-2798,-2873,-1435,168,971
499,-47,-549,-226,524,-299,-1395,-2702,-2771,-1447,132,959
499,-83,-585,-208,542,-335,-1341,-2600,-2681,-1441,120,959
499,-83,-585,-208,542,-335,-1263,-2474,-2561,-1363,156,977
505,-83,-591,-208,548,-335,-1197,-2349,-2405,-1207,246,1037
505,-89,-597,-208,548,-341,-1143,-2235,-2244,-1051,342,1103
511,-95,-609,-208,560,-353,-1083,-2127,-2106,-931,426,1145
523,-89,-615,-214,566,-353,-1029,-1995,-1950,-763,522,1205
535,-65,-603,-232,566,-335,-987,-1863,-1758,-571,654,1265
583,-23,-609,-274,596,-317,-933,-1731,-1584,-403,768,1337
601,-6,-603,-292,602,-299,-873,-1593,-1422,-259,840,1361
553,-23,-579,-256,566,-299,-807,-1449,-1254,-151,864,1337
553,-35,-591,-250,572,-311,-741,-1275,-1074,-55,882,1283
577,-23,-603,-268,590,-311,-669,-1107,-906,-2,870,1247
559,-23,-585,-262,572,-305,-585,-957,-768,40,840,1193
511,-29,-543,-238,524,-287,-495,-819,-630,58,786,1115
481,-29,-507,-220,488,-269,-399,-657,-486,70,720,1013
445,-35,-483,-202,464,-257,-291,-507,-378,58,594,869
379,-83,-465,-142,422,-269,-219,-405,-312,4,444,695
295,-101,-399,-94,344,-245,-147,-327,-252,-49,312,539
229,-89,-315,-64,266,-203,-63,-231,-192,-73,198,407
145,-47,-195,-40,170,-119,14,-141,-102,-61,132,311
67,-17,-87,-16,74,-53,104,-33,-12,-31,108,239
1,-6,-9,1,2,-6,182,62,77,4,84,185
-28,-6,20,13,-27,0,230,128,125,4,48,113
-52,-29,20,37,-39,-6,260,158,143,-2,7,47
-76,-59,14,67,-45,-17,290,200,173,-13,-35,6
-88,-59,26,73,-57,-11,320,242,203,-7,-65,-30
-76,-47,26,61,-51,-6,338,260,227,-7,-65,-30
-88,-53,32,67,-63,-6,350,266,239,-19,-77,-48
-106,-65,38,85,-75,-11,362,284,245,-19,-95,-60
-112,-71,38,91,-75,-11,374,296,257,-25,-107,-84
-118,-71,44,91,-81,-11,392,314,263,-25,-119,-90
-124,-65,56,91,-93,-6,398,332,275,-25,-125,-102
-130,-71,56,97,-93,-6,404,344,287,-25,-137,-114
-136,-65,68,97,-105,-6,410,356,299,-31,-137,-126
-142,-65,74,103,-111,-6,416,368,311,-31,-143,-132
-142,-59,80,97,-111,0,428,386,317,-31,-149,-138
-142,-59,80,97,-111,0,446,404,329,-31,-155,-144
-148,-59,86,103,-117,6,464,422,335,-31,-161,-144
-160,-65,92,109,-129,6,470,434,341,-43,-167,-156
-166,-65,98,115,-135,6,470,446,347,-31,-167,-156
-166,-59,104,109,-135,12,476,452,359,-31,-167,-162
-178,-59,116,115,-147,18,476,458,365,-31,-167,-168
-178,-59,116,115,-147,18,476,476,377,-31,-173,-168
-172,-65,104,115,-141,12,488,488,383,-31,-173,-168
-172,-53,116,109,-147,24,500,500,389,-31,-173,-168
-172,-59,110,115,-141,18,512,506,395,-31,-173,-168
-178,-71,104,121,-141,6,518,518,407,-31,-173,-174
-178,-77,98,127,-141,0,518,524,413,-25,-179,-174
-178,-71,104,121,-141,6,524,542,419,-25,-179,-174
-178,-77,98,127,-141,0,530,554,431,-25,-185,-180
-178,-77,98,127,-141,0,542,566,443,-19,-179,-180
-178,-77,98,127,-141,0,548,578,443,-19,-179,-186
-178,-77,98,127,-141,0,554,590,449,-19,-185,-186
-178,-77,98,127,-141,0,560,608,455,-25,-185,-192
-184,-77,104,127,-147,6,572,620,461,-25,-185,-192
-178,-71,104,121,-141,6,590,638,473,-13,-179,-192
-178,-71,104,121,-141,6,596,656,491,-13,-179,-192
-172,-59,110,115,-141,18,602,686,509,-2,-173,-192
-172,-59,110,115,-141,18,620,698,515,-2,-173,-192
-184,-59,122,121,-153,24,632,716,527,-2,-167,-198
-184,-59,122,121,-153,24,644,734,539,-2,-167,-198
-190,-65,122,127,-159,18,644,746,551,-2,-167,-198
-190,-65,122,127,-159,18,662,770,557,4,-167,-198
-178,-71,104,121,-141,6,674,788,575,10,-173,-198
-178,-65,110,121,-147,12,686,818,587,16,-161,-198
-172,-71,98,121,-135,6,698,842,605,22,-167,-198
-178,-71,104,121,-141,6,710,854,623,22,-167,-198
-178,-71,104,121,-141,6,722,884,629,34,-167,-204
-178,-71,104,121,-141,6,728,908,653,40,-161,-204
-172,-59,110,115,-141,18,740,932,665,52,-161,-204
-172,-59,110,115,-141,18,752,956,671,58,-161,-204
-184,-59,122,121,-153,24,764,986,689,64,-155,-210
-172,-59,110,115,-141,18,782,1004,713,76,-143,-210
-166,-53,110,109,-141,18,800,1040,731,82,-137,-210
-166,-53,110,109,-141,18,812,1064,749,88,-131,-210
-184,-65,116,121,-153,18,824,1082,755,94,-137,-216
-184,-65,116,121,-153,18,836,1112,779,100,-137,-216
-184,-65,116,121,-153,18,854,1130,797,112,-143,-222
-184,-65,116,121,-153,18,866,1160,815,118,-143,-222
-178,-59,116,115,-147,18,878,1190,839,124,-131,-216
-178,-53,122,115,-153,24,890,1220,857,136,-125,-216
-172,-41,128,103,-153,36,896,1244,875,142,-113,-210
-166,-41,122,103,-147,30,908,1274,899,154,-113,-210
-172,-35,134,103,-153,42,914,1298,917,160,-107,-210
-172,-35,134,103,-153,42,926,1328,941,172,-107,-210
-178,-35,140,103,-159,42,938,1352,959,172,-113,-210
-178,-29,146,103,-165,48,956,1376,977,178,-101,-210
-172,-17,152,91,-165,60,962,1400,995,196,-95,-210
-166,-11,152,85,-159,60,968,1424,1019,202,-89,-210
-154,-6,146,79,-153,60,974,1448,1031,214,-83,-210
-154,-6,146,79,-153,60,974,1460,1049,226,-77,-210
-166,-6,158,85,-165,66,974,1478,1067,232,-83,-204
-166,-6,164,79,-165,72,980,1484,1085,238,-71,-204
-160,-6,158,79,-159,72,980,1508,1103,250,-71,-204
-160,0,170,73,-165,84,980,1514,1109,256,-65,-198
-160,0,170,73,-165,84,974,1520,1133,274,-53,-198
-148,12,170,61,-159,90,974,1526,1151,292,-47,-192
-148,18,176,55,-159,96,968,1526,1169,304,-41,-186
-148,12,170,61,-159,90,956,1526,1181,316,-35,-186
-154,18,182,61,-165,96,944,1520,1193,328,-23,-186
-154,24,188,55,-171,102,932,1520,1205,334,-17,-180
-148,42,200,43,-171,120,926,1520,1217,358,1,-174
-142,54,206,37,-171,126,908,1514,1229,376,12,-162
-142,54,206,37,-171,126,890,1496,1235,394,12,-156
-142,54,206,37,-171,126,878,1484,1235,406,18,-150
-136,60,206,31,-171,132,860,1478,1241,430,24,-144
-124,72,206,19,-165,138,842,1466,1259,448,36,-138
-118,90,218,7,-165,150,824,1448,1259,466,60,-126
-118,90,218,7,-165,150,806,1430,1271,484,72,-120
-118,90,218,7,-165,150,782,1412,1277,502,84,-120
-106,90,206,1,-153,144,764,1394,1289,532,108,-102
-94,108,212,1,-153,156,752,1382,1295,550,126,-84
-88,120,218,-10,-153,168,722,1364,1307,574,144,-72
-70,126,206,-22,-135,162,722,1352,1313,586,162,-54
-70,126,206,-22,-135,162,698,1334,1319,616,180,-42
-58,132,200,-28,-129,162,674,1316,1325,640,204,-24
-52,138,200,-34,-123,168,650,1292,1331,664,234,-12
-40,150,200,-46,-117,174,638,1280,1337,694,258,6
-28,156,194,-58,-111,174,620,1262,1343,730,282,17
-16,156,182,-64,-99,168,596,1238,1349,748,300,23
-22,162,194,-64,-105,174,572,1226,1355,778,324,47
-4,156,170,-70,-87,162,542,1202,1367,802,348,59
-10,162,182,-70,-93,168,530,1178,1367,832,378,83
1,168,170,-82,-81,168,506,1166,1367,850,402,101
7,174,164,-88,-69,168,494,1136,1367,886,426,119
31,186,152,-106,-51,168,476,1118,1373,916,456,143
43,192,146,-118,-45,168,452,1100,1373,946,492,167
55,198,140,-124,-33,168,428,1076,1373,970,516,191
67,198,128,-130,-21,162,410,1058,1373,1000,546,215
79,210,128,-142,-15,168,380,1034,1367,1030,576,239
91,210,116,-148,-3,162,356,1010,1361,1054,606,257
91,210,116,-148,-3,162,338,986,1349,1072,636,281
103,210,104,-154,2,156,308,968,1337,1096,666,305
121,216,92,-166,8,156,290,932,1325,1114,696,329
133,222,86,-178,20,156,278,908,1307,1132,714,353
145,228,80,-184,26,156,254,878,1295,1150,738,377
151,228,74,-190,32,150,236,836,1265,1156,750,401
163,234,68,-196,44,150,224,806,1247,1162,768,413
163,234,68,-196,44,150,206,770,1217,1162,774,431
169,234,62,-202,50,150,176,740,1193,1156,786,443
169,234,62,-202,50,150,164,704,1151,1144,798,461
175,234,56,-202,56,144,146,668,1121,1132,804,473
175,228,50,-202,56,138,128,632,1079,1108,798,485
181,228,44,-202,62,138,110,584,1031,1084,798,485
181,234,50,-208,62,144,98,548,995,1060,786,485
187,234,44,-208,68,138,92,518,953,1024,768,485
175,222,44,-196,62,132,80,488,911,994,750,473
169,228,56,-196,50,144,62,452,869,964,738,467
169,222,50,-196,56,138,50,410,821,922,714,455
157,210,50,-184,50,132,38,380,779,874,684,449
145,204,56,-172,38,132,32,350,737,832,654,425
139,192,50,-166,38,120,26,320,689,790,630,419
127,180,50,-154,32,114,26,290,641,742,588,401
109,168,56,-136,20,114,26,260,593,694,552,377
97,162,62,-130,14,114,26,242,545,652,522,353
91,144,50,-118,14,96,20,218,509,604,498,335
79,138,56,-106,8,96,20,188,473,556,462,317
73,114,38,-94,14,78,14,164,437,508,432,293
61,108,44,-82,2,78,14,140,407,472,396,269
55,96,38,-76,2,66,14,128,371,430,360,251
43,84,38,-64,2,60,14,110,335,388,330,227
37,78,38,-58,2,60,14,104,311,352,300,203
31,78,44,-52,2,60,20,86,281,322,270,185
19,60,38,-40,-3,48,26,74,257,280,246,161
19,42,20,-28,2,30,26,68,245,244,222,137
7,30,20,-16,2,24,38,56,215,226,204,113
1,12,8,-4,2,12,38,44,203,202,180,101
1,6,14,1,-3,6,38,32,179,172,150,77
-4,0,14,1,-9,6,38,32,161,148,132,65
-10,0,20,1,-15,6,44,20,143,112,114,59
-28,-6,26,13,-27,6,50,14,131,88,90,47
-22,-6,14,13,-21,-6,50,14,119,82,78,29
-28,-6,20,13,-27,0,50,14,107,58,60,17
-22,-11,8,13,-15,-6,56,14,95,52,48,17
-28,-23,2,25,-15,-6,56,14,89,34,42,12
-40,-29,8,31,-27,-6,56,14,83,22,30,6
-40,-35,2,37,-21,-11,62,14,77,10,18,0
-46,-47,-4,43,-21,-23,62,3,71,-2,12,-12
-46,-65,-9,55,-15,-41,62,3,65,-7,-5,-24
-52,-59,-4,55,-21,-29,62,3,59,-19,-5,-24
-58,-59,-4,55,-27,-29,62,3,53,-25,-17,-36
-58,-59,-4,55,-27,-29,62,-3,47,-31,-29,-42
-58,-59,-4,55,-27,-29,62,-3,41,-43,-35,-42
-64,-65,-4,61,-33,-29,62,-3,35,-43,-41,-48
-64,-71,-4,67,-27,-35,68,-3,35,-49,-47,-54
-70,-71,-4,67,-33,-35,68,-3,29,-55,-47,-54
-70,-77,-4,73,-33,-41,68,-3,23,-61,-47,-60
-64,-71,-4,67,-27,-35,68,-3,23,-61,-53,-60
-70,-71,-4,67,-33,-35,68,-3,17,-67,-59,-54
-70,-77,-4,73,-33,-41,68,-9,17,-73,-65,-54
-70,-77,-4,73,-33,-41,68,-9,17,-73,-71,-60
-64,-71,-4,67,-27,-35,74,-9,17,-85,-71,-66
-64,-71,-4,67,-27,-35,74,-9,17,-85,-71,-66
-64,-71,-4,67,-27,-35,86,-9,17,-91,-71,-72
-64,-71,-4,67,-27,-35,86,-9,17,-91,-83,-78
-70,-83,-4,73,-27,-47,86,-3,17,-97,-83,-78
-70,-83,-4,73,-27,-47,86,-3,17,-97,-83,-78
-70,-83,-4,73,-27,-47,86,3,17,-97,-83,-72
-70,-77,-4,73,-33,-41,86,3,17,-103,-83,-72
-76,-77,-4,73,-39,-35,86,-3,17,-103,-95,-78
-70,-77,-4,73,-33,-41,86,-3,17,-103,-95,-78
-76,-77,-4,73,-39,-35,80,-9,17,-103,-101,-84
-88,-83,2,85,-45,-35,80,-9,17,-103,-101,-84
-82,-77,2,79,-45,-35,80,-3,17,-109,-107,-90
-82,-71,8,73,-45,-29,80,-3,17,-109,-107,-90
-70,-65,2,67,-39,-29,80,3,17,-103,-89,-90
-70,-65,2,67,-39,-29,80,3,17,-103,-89,-90
-76,-71,2,73,-39,-29,74,3,17,-103,-101,-96
-82,-77,2,79,-45,-35,74,3,17,-103,-101,-96
-94,-83,8,85,-51,-35,68,3,17,-103,-107,-96
-100,-77,20,85,-63,-23,68,3,17,-103,-107,-96
-88,-77,8,79,-51,-29,74,3,17,-103,-101,-96
-76,-71,2,73,-39,-29,74,3,17,-103,-101,-96
-70,-71,-4,67,-33,-35,86,9,17,-103,-107,-96
-70,-71,-4,67,-33,-35,86,9,17,-103,-107,-96
-82,-71,8,73,-45,-29,80,9,17,-103,-107,-102
-82,-83,-4,79,-39,-41,80,9,17,-103,-107,-102
-88,-71,14,79,-51,-23,74,9,17,-103,-101,-102
-82,-65,14,73,-51,-23,74,9,17,-103,-101,-102
-76,-59,14,67,-45,-17,80,14,17,-103,-101,-102
-76,-53,20,61,-51,-11,80,14,17,-103,-101,-102
-70,-47,20,55,-45,-11,86,14,23,-103,-101,-102
-82,-47,32,61,-57,-6,86,14,29,-103,-101,-102
-82,-53,26,67,-57,-11,86,14,23,-103,-107,-102
-76,-53,20,61,-51,-11,86,14,23,-103,-107,-102
-76,-59,14,67,-45,-17,80,14,17,-103,-113,-102
-76,-65,8,67,-45,-23,80,14,17,-103,-113,-102
-82,-71,8,73,-45,-29,86,14,17,-103,-107,-102
-88,-65,20,73,-57,-17,80,14,17,-103,-107,-102
-94,-71,20,79,-57,-23,86,14,17,-103,-101,-108
-88,-71,14,79,-51,-23,86,14,17,-109,-107,-108
-82,-71,8,73,-45,-29,80,9,17,-109,-107,-108
-82,-71,8,73,-45,-29,80,14,17,-103,-101,-102
-82,-77,2,79,-45,-35,74,9,17,-103,-101,-102
-88,-71,14,79,-51,-23,74,9,17,-103,-101,-102
-82,-65,14,73,-51,-23,74,14,17,-103,-101,-102
-82,-71,8,73,-45,-29,74,9,17,-103,-101,-102
-76,-65,8,67,-45,-23,80,14,23,-103,-101,-102
-76,-65,8,67,-45,-23,80,9,23,-103,-101,-102
-82,-65,14,73,-51,-23,74,3,23,-109,-101,-108
-82,-65,14,73,-51,-23,74,9,23,-109,-101,-108
-82,-59,20,67,-51,-17,80,9,23,-115,-101,-114
-82,-59,20,67,-51,-17,80,9,23,-115,-107,-114
-94,-83,8,85,-51,-35,74,9,17,-121,-107,-114
-94,-83,8,85,-51,-35,74,9,17,-121,-107,-114
-82,-77,2,79,-45,-35,74,14,17,-109,-107,-102
-82,-59,20,67,-51,-17,80,14,17,-109,-107,-102
-88,-71,14,79,-51,-23,80,14,17,-115,-107,-102
-94,-71,20,79,-57,-23,74,14,17,-115,-113,-108
-94,-65,26,79,-63,-17,74,14,17,-121,-113,-108
-94,-65,26,79,-63,-17,74,9,17,-121,-113,-114
-88,-65,20,73,-57,-17,74,9,12,-127,-113,-114
-88,-65,20,73,-57,-17,74,9,12,-127,-113,-114
-88,-65,20,73,-57,-17,74,9,12,-127,-113,-114
-88,-65,20,73,-57,-17,74,3,12,-127,-113,-114
-94,-65,26,79,-63,-17,74,3,12,-127,-119,-114
-94,-65,26,79,-63,-17,74,3,12,-133,-119,-120
-94,-65,26,79,-63,-17,74,3,12,-133,-119,-120
-94,-65,26,79,-63,-17,74,3,6,-133,-119,-120
-94,-59,32,73,-63,-11,74,3,6,-133,-119,-120
-94,-59,32,73,-63,-11,74,3,6,-133,-119,-120
-94,-53,38,73,-69,-6,74,3,6,-133,-125,-120
-94,-59,32,73,-63,-11,74,3,0,-139,-131,-120
-100,-65,32,79,-69,-11,68,-3,0,-139,-131,-126
-100,-71,26,85,-63,-17,68,-3,0,-139,-131,-126
-106,-77,26,91,-69,-23,62,-15,0,-145,-131,-132
-106,-83,20,91,-63,-29,62,-15,-6,-145,-131,-132
-100,-77,20,85,-63,-23,68,-9,0,-145,-125,-126
-94,-71,20,79,-57,-23,68,-15,0,-145,-131,-132
-94,-65,26,79,-63,-17,74,-9,6,-151,-125,-126
-88,-59,26,73,-57,-11,74,-9,0,-151,-125,-126
-88,-65,20,73,-57,-17,68,-15,-6,-151,-131,-126
-88,-65,20,73,-57,-17,68,-15,-6,-151,-137,-126
-94,-71,20,79,-57,-23,62,-21,-12,-151,-143,-126
-94,-71,20,79,-57,-23,62,-21,-12,-151,-143,-132
-94,-77,14,85,-57,-29,62,-21,-18,-151,-137,-132
-94,-77,14,85,-57,-29,62,-27,-18,-151,-137,-132
-94,-83,8,85,-51,-35,68,-27,-18,-157,-131,-132
-106,-89,14,97,-63,-35,68,-27,-18,-157,-131,-132
-100,-89,8,91,-57,-35,62,-27,-24,-157,-143,-132
-100,-83,14,91,-57,-29,62,-27,-24,-157,-143,-132
-88,-71,14,79,-51,-23,56,-21,-12,-163,-143,-132
-82,-53,26,67,-57,-11,56,-21,-12,-163,-137,-126
-82,-59,20,67,-51,-17,62,-27,-18,-163,-137,-132
-82,-65,14,73,-51,-23,62,-27,-18,-163,-137,-132
-82,-71,8,73,-45,-29,56,-33,-24,-163,-137,-138
-88,-71,14,79,-51,-23,56,-33,-24,-163,-137,-138
-88,-65,20,73,-57,-17,62,-39,-30,-163,-137,-138
-88,-65,20,73,-57,-17,62,-39,-30,-169,-137,-138
-88,-59,26,73,-57,-11,68,-39,-30,-169,-137,-132
-88,-71,14,79,-51,-23,68,-33,-30,-169,-137,-132
-94,-65,26,79,-63,-17,62,-33,-36,-169,-143,-138
-100,-71,26,85,-63,-17,62,-33,-36,-169,-143,-138
-106,-83,20,91,-63,-29,56,-33,-42,-169,-149,-144
-112,-89,20,97,-69,-29,56,-33,-42,-169,-155,-144
-106,-83,20,91,-63,-29,62,-33,-36,-169,-149,-138
-100,-77,20,85,-63,-23,62,-39,-42,-169,-149,-138
-94,-71,20,79,-57,-23,62,-39,-36,-169,-143,-132
-88,-65,20,73,-57,-17,56,-39,-36,-169,-143,-132
-100,-65,32,79,-69,-11,56,-33,-30,-169,-149,-138
-100,-65,32,79,-69,-11,56,-33,-30,-169,-149,-138
-100,-65,32,79,-69,-11,56,-27,-24,-169,-149,-132
-100,-65,32,79,-69,-11,56,-27,-24,-169,-149,-132
-106,-65,38,85,-75,-11,62,-33,-18,-175,-143,-138
-100,-71,26,85,-63,-17,62,-33,-18,-175,-137,-138
-106,-77,26,91,-69,-23,62,-39,-12,-181,-137,-144
-112,-89,20,97,-69,-29,62,-45,-12,-187,-143,-144
-112,-89,20,97,-69,-29,56,-39,-12,-181,-143,-144
-106,-83,20,91,-63,-29,56,-39,-12,-181,-143,-144
-94,-65,26,79,-63,-17,56,-33,-12,-175,-149,-144
-88,-59,26,73,-57,-11,56,-27,-12,-175,-149,-144
-88,-59,26,73,-57,-11,56,-33,-12,-175,-149,-144
-94,-65,26,79,-63,-17,56,-33,-12,-175,-149,-144
-94,-65,26,79,-63,-17,62,-39,-12,-175,-149,-144
-88,-59,26,73,-57,-11,62,-39,-12,-175,-149,-144
-94,-65,26,79,-63,-17,56,-39,-12,-175,-143,-138
-94,-65,26,79,-63,-17,56,-39,-12,-175,-143,-138
-100,-71,26,85,-63,-17,50,-33,-12,-175,-143,-132
-100,-77,20,85,-63,-23,44,-33,-12,-175,-149,-132
-94,-71,20,79,-57,-23,50,-33,-12,-175,-149,-132
-94,-65,26,79,-63,-17,50,-33,-12,-175,-149,-132
-88,-59,26,73,-57,-11,56,-27,-6,-169,-137,-138
-88,-47,38,67,-63,-6,56,-27,-6,-169,-137,-138
-82,-47,32,61,-57,-6,68,-33,-12,-175,-137,-132
-82,-47,32,61,-57,-6,68,-33,-12,-169,-137,-132
-76,-47,26,61,-51,-6,68,-39,-18,-175,-137,-132
-76,-47,26,61,-51,-6,68,-39,-18,-175,-137,-138
-82,-53,26,67,-57,-11,68,-39,-24,-175,-143,-138
-82,-53,26,67,-57,-11,68,-39,-24,-175,-143,-138
-88,-59,26,73,-57,-11,56,-39,-30,-175,-149,-138
-106,-65,38,85,-75,-11,56,-39,-30,-175,-149,-138
-106,-71,32,85,-69,-17,56,-39,-30,-175,-149,-138
-100,-71,26,85,-63,-17,56,-39,-30,-175,-149,-132
-100,-77,20,85,-63,-23,56,-39,-30,-169,-149,-132
-100,-71,26,85,-63,-17,56,-39,-30,-169,-149,-132
-100,-71,26,85,-63,-17,56,-39,-36,-175,-149,-132
-100,-71,26,85,-63,-17,56,-39,-36,-175,-149,-132
-100,-71,26,85,-63,-17,56,-45,-42,-181,-149,-132
-100,-71,26,85,-63,-17,44,-45,-42,-181,-155,-132
-112,-71,38,91,-75,-11,56,-45,-42,-181,-155,-144
-88,-59,26,73,-57,-11,68,-33,-30,-181,-143,-132
-88,-71,14,79,-51,-23,68,-33,-30,-169,-143,-132
-88,-77,8,79,-51,-29,68,-33,-36,-181,-143,-138
-88,-71,14,79,-51,-23,68,-39,-48,-175,-149,-144
-94,-77,14,85,-57,-29,62,-39,-42,-175,-149,-144
-94,-77,14,85,-57,-29,62,-39,-42,-175,-149,-144
-100,-83,14,91,-57,-29,56,-39,-36,-175,-149,-144
-100,-83,14,91,-57,-29,56,-39,-36,-175,-149,-144
-100,-77,20,85,-63,-23,56,-39,-36,-175,-149,-138
-100,-71,26,85,-63,-17,56,-39,-36,-175,-149,-138
-100,-65,32,79,-69,-11,56,-39,-36,-175,-149,-132
-100,-59,38,79,-69,-6,56,-39,-36,-175,-149,-132
-100,-65,32,79,-69,-11,56,-45,-36,-175,-149,-138
-100,-65,32,79,-69,-11,56,-45,-36,-175,-149,-138
-100,-71,26,85,-63,-17,56,-51,-36,-175,-149,-144
-100,-71,26,85,-63,-17,56,-51,-36,-175,-149,-144
-100,-71,26,85,-63,-17,56,-51,-42,-181,-149,-138
-100,-71,26,85,-63,-17,56,-51,-42,-181,-149,-138
-100,-71,26,85,-63,-17,56,-51,-48,-187,-149,-132
-100,-71,26,85,-63,-17,56,-51,-48,-187,-149,-132
-100,-71,26,85,-63,-17,56,-51,-42,-181,-149,-132
-100,-71,26,85,-63,-17,56,-51,-42,-181,-149,-132
-100,-71,26,85,-63,-17,56,-51,-36,-175,-149,-132
-100,-71,26,85,-63,-17,56,-51,-36,-175,-149,-132
-100,-71,26,85,-63,-17,62,-51,-36,-175,-149,-132
-100,-71,26,85,-63,-17,62,-51,-36,-175,-149,-132
-100,-71,26,85,-63,-17,68,-51,-36,-175,-149,-132
-100,-71,26,85,-63,-17,68,-51,-36,-175,-149,-132
-106,-77,26,91,-69,-23,62,-57,-42,-181,-155,-138
-112,-83,26,97,-69,-23,56,-57,-42,-181,-155,-138
-118,-89,26,103,-75,-29,50,-63,-48,-187,-161,-144
-124,-95,26,109,-75,-29,44,-63,-48,-187,-161,-144
-112,-83,26,97,-69,-23,50,-57,-42,-181,-155,-138
-106,-77,26,91,-69,-23,56,-57,-42,-175,-155,-138
-94,-65,26,79,-63,-17,62,-51,-36,-169,-149,-132
-88,-59,26,73,-57,-11,68,-51,-36,-163,-149,-132
-82,-53,26,67,-57,-11,62,-51,-36,-169,-149,-132
-82,-53,26,67,-57,-11,62,-51,-36,-169,-149,-132
-76,-47,26,61,-51,-6,56,-51,-36,-175,-149,-132
-76,-47,26,61,-51,-6,56,-51,-36,-175,-149,-132
-88,-53,32,67,-63,-6,56,-57,-42,-175,-149,-138
-94,-59,32,73,-63,-11,56,-57,-42,-175,-149,-138
-106,-65,38,85,-75,-11,56,-63,-48,-175,-149,-144
-112,-71,38,91,-75,-11,56,-63,-48,-175,-149,-144
-106,-71,32,85,-69,-17,62,-57,-42,-175,-149,-138
-106,-71,32,85,-69,-17,62,-57,-42,-175,-149,-138
-100,-71,26,85,-63,-17,68,-51,-36,-175,-149,-132
-100,-71,26,85,-63,-17,68,-51,-36,-175,-149,-132
-100,-77,20,85,-63,-23,62,-57,-42,-175,-149,-132
-100,-77,20,85,-63,-23,62,-57,-42,-175,-149,-132
-100,-83,14,91,-57,-29,56,-63,-48,-175,-149,-132
-100,-83,14,91,-57,-29,56,-63,-48,-175,-149,-132
-100,-77,20,85,-63,-23,62,-63,-48,-175,-149,-132
-100,-77,20,85,-63,-23,62,-63,-48,-175,-149,-132
-100,-71,26,85,-63,-17,68,-63,-48,-175,-149,-132
-100,-71,26,85,-63,-17,68,-63,-48,-175,-149,-132
-106,-77,26,91,-69,-23,62,-69,-48,-181,-149,-132
-106,-77,26,91,-69,-23,62,-69,-48,-181,-149,-132
-112,-83,26,97,-69,-23,56,-75,-48,-187,-149,-132
-112,-83,26,97,-69,-23,56,-75,-48,-187,-149,-132
-106,-77,26,91,-69,-23,56,-75,-48,-181,-149,-138
-106,-77,26,91,-69,-23,56,-75,-48,-181,-149,-138
-100,-71,26,85,-63,-17,56,-75,-48,-175,-149,-144
-100,-71,26,85,-63,-17,56,-75,-48,-175,-149,-144
-94,-77,14,85,-57,-29,62,-69,-42,-175,-143,-138
-94,-77,14,85,-57,-29,62,-69,-42,-175,-143,-138
-88,-83,2,85,-45,-35,68,-63,-36,-175,-137,-132
-88,-83,2,85,-45,-35,68,-63,-36,-175,-137,-132
-94,-83,8,85,-51,-35,68,-69,-42,-175,-143,-132
-94,-83,8,85,-51,-35,68,-69,-42,-175,-143,-132
-100,-83,14,91,-57,-29,68,-75,-48,-175,-149,-132
-100,-83,14,91,-57,-29,68,-75,-48,-175,-149,-132
-100,-77,20,85,-63,-23,68,-75,-48,-175,-149,-132
-100,-77,20,85,-63,-23,68,-75,-48,-175,-149,-132
-100,-71,26,85,-63,-17,68,-75,-48,-175,-149,-132
-100,-71,26,85,-63,-17,68,-75,-48,-175,-149,-132
-106,-77,26,91,-69,-23,68,-75,-48,-175,-149,-132
-106,-83,20,91,-63,-29,68,-75,-48,-175,-149,-132
-112,-89,20,97,-69,-29,68,-75,-48,-175,-149,-132
-112,-95,14,103,-63,-35,68,-75,-48,-175,-149,-132
-106,-89,14,97,-63,-35,68,-75,-42,-175,-143,-132
-100,-83,14,91,-57,-29,68,-75,-42,-175,-143,-132
-94,-77,14,85,-57,-29,68,-75,-36,-175,-137,-132
-88,-71,14,79,-51,-23,68,-75,-36,-175,-137,-132
-94,-77,14,85,-57,-29,68,-75,-36,-175,-143,-132
-94,-77,14,85,-57,-29,68,-75,-36,-175,-143,-132
-100,-83,14,91,-57,-29,68,-75,-36,-175,-149,-132
-100,-83,14,91,-57,-29,68,-75,-36,-175,-149,-132
-106,-83,20,91,-63,-29,68,-81,-42,-175,-149,-132
-106,-83,20,91,-63,-29,68,-81,-42,-175,-149,-132
-112,-83,26,97,-69,-23,68,-87,-48,-175,-149,-132
-112,-83,26,97,-69,-23,68,-87,-48,-175,-149,-132
-106,-83,20,91,-63,-29,68,-81,-48,-175,-143,-132
-100,-83,14,91,-57,-29,68,-81,-48,-175,-143,-132
-94,-83,8,85,-51,-35,68,-75,-48,-175,-137,-132
-88,-83,2,85,-45,-35,68,-75,-48,-175,-137,-132
-88,-77,8,79,-51,-29,74,-75,-48,-169,-137,-132
-88,-77,8,79,-51,-29,74,-75,-48,-169,-137,-132
-88,-71,14,79,-51,-23,80,-75,-48,-163,-137,-132
-88,-71,14,79,-51,-23,80,-75,-48,-163,-137,-132
-94,-71,20,79,-57,-23,80,-75,-48,-169,-137,-132
-94,-71,20,79,-57,-23,80,-75,-48,-169,-137,-132
-100,-71,26,85,-63,-17,80,-75,-48,-175,-137,-132
-100,-71,26,85,-63,-17,80,-75,-48,-175,-137,-132
-100,-77,20,85,-63,-23,80,-75,-48,-175,-137,-132
-100,-77,20,85,-63,-23,80,-75,-48,-175,-137,-132
-100,-83,14,91,-57,-29,80,-75,-48,-175,-137,-132
-100,-83,14,91,-57,-29,80,-75,-48,-175,-137,-132
-100,-83,14,91,-57,-29,74,-75,-48,-175,-143,-138
-100,-83,14,91,-57,-29,74,-75,-48,-175,-143,-138
-100,-83,14,91,-57,-29,68,-75,-48,-175,-149,-144
-100,-83,14,91,-57,-29,68,-75,-48,-175,-149,-144
-100,-83,14,91,-57,-29,68,-75,-48,-169,-143,-138
-100,-83,14,91,-57,-29,68,-75,-48,-169,-143,-138
-100,-83,14,91,-57,-29,68,-75,-48,-163,-137,-132
-94,-83,8,85,-51,-35,68,-69,-48,-163,-137,-126
-94,-77,14,85,-57,-29,74,-69,-42,-163,-137,-126
-94,-71,20,79,-57,-23,80,-63,-42,-157,-137,-126
-94,-65,26,79,-63,-17,86,-63,-42,-157,-131,-126
-88,-59,26,73,-57,-11,86,-63,-42,-157,-131,-126
-88,-59,26,73,-57,-11,86,-57,-42,-157,-131,-126
-100,-65,32,79,-69,-11,86,-57,-42,-157,-131,-126
-100,-65,32,79,-69,-11,86,-57,-42,-157,-131,-126
-94,-59,32,73,-63,-11,86,-57,-36,-157,-131,-126
-82,-59,20,67,-51,-17,86,-57,-36,-157,-125,-126
-82,-47,32,61,-57,-6,86,-51,-36,-157,-125,-126
-64,-47,14,55,-39,-11,92,-51,-24,-151,-119,-120
-64,-41,20,49,-45,-6,92,-39,-18,-151,-113,-114
-70,-29,38,49,-57,-6,104,-33,-12,-139,-113,-114
-76,-23,50,49,-63,6,110,-33,-12,-139,-107,-114
-82,-17,62,49,-75,12,116,-21,-12,-133,-107,-114
-76,-6,68,37,-75,24,116,-21,-12,-127,-107,-114
-76,-11,62,43,-69,18,116,-21,-6,-127,-107,-108
-82,-11,68,43,-75,18,122,-21,-6,-127,-107,-108
-82,-23,56,49,-69,6,128,-21,0,-133,-113,-108
-82,-29,50,55,-69,0,134,-21,0,-133,-113,-108
-76,-29,44,49,-63,0,128,-15,6,-127,-107,-108
-64,-23,38,43,-51,0,134,-3,12,-127,-107,-108
-58,-23,32,37,-45,-6,128,-3,12,-121,-101,-114
-52,-17,32,31,-45,0,128,-3,17,-109,-89,-102
-40,-6,32,19,-39,6,128,14,17,-91,-83,-90
-34,-6,32,13,-33,6,128,14,35,-85,-71,-84
-34,0,44,7,-39,18,116,14,35,-85,-71,-72
-34,6,50,7,-39,24,92,9,23,-85,-71,-72
-22,12,44,1,-33,24,86,-3,23,-73,-59,-60
-22,18,50,1,-33,30,80,-3,29,-73,-59,-60
-22,18,50,1,-33,30,86,-15,29,-73,-59,-66
-22,6,38,1,-27,18,86,-15,23,-73,-59,-66
-22,6,38,1,-27,18,80,-21,17,-85,-59,-66
-22,-6,20,7,-21,0,80,-21,17,-85,-65,-66
-22,-6,20,7,-21,0,86,-21,17,-85,-65,-66
-22,-6,20,7,-21,0,86,-21,17,-85,-65,-66
-16,-6,14,7,-15,0,98,-21,17,-85,-59,-66
-16,-6,8,7,-15,-6,104,-15,17,-91,-59,-66
-16,-11,2,13,-9,-6,110,-15,17,-91,-65,-72
-28,-11,14,19,-21,-6,110,-15,17,-97,-71,-78
-34,-17,14,25,-27,-6,110,-15,17,-91,-77,-78
-40,-17,20,25,-33,-6,134,-15,17,-91,-77,-78
-46,-23,20,31,-33,-6,152,-9,17,-91,-77,-78
-58,-29,26,43,-45,-6,176,-9,17,-91,-83,-90
-64,-29,32,43,-51,-6,182,-9,17,-85,-83,-90
-64,-29,32,43,-51,-6,200,3,17,-85,-83,-96
-76,-35,38,55,-57,-6,206,9,17,-91,-89,-96
-82,-35,44,55,-63,-6,206,9,17,-97,-95,-102
-82,-65,14,73,-51,-23,212,9,17,-109,-95,-108
-82,-59,20,67,-51,-17,224,14,17,-115,-107,-102
-82,-53,26,67,-57,-11,230,14,17,-121,-101,-108
-76,-47,26,61,-51,-6,260,32,17,-115,-107,-108
-94,-59,32,73,-63,-11,302,44,17,-127,-125,-126
-106,-71,32,85,-69,-17,320,56,23,-127,-125,-126
-76,-41,32,55,-57,-6,302,80,35,-103,-107,-114
-58,-23,32,37,-45,-6,230,86,53,-85,-95,-114
-64,-17,44,37,-57,6,122,92,65,-79,-89,-102
-46,-6,50,19,-45,18,38,92,77,-67,-83,-96
-10,36,56,-4,-33,42,-10,116,89,-55,-77,-90
13,66,50,-40,-9,60,-57,122,95,-37,-71,-78
7,60,50,-34,-15,54,-117,146,119,-31,-59,-72
25,72,44,-46,-3,60,-195,158,131,-19,-47,-54
73,108,32,-88,14,72,-333,176,173,-2,-17,-36
109,144,32,-124,32,90,-477,188,197,22,12,0
151,162,8,-154,68,84,-591,206,209,52,24,17
187,174,-4,-178,98,78,-669,218,245,76,48,17
199,174,-15,-184,110,72,-705,242,263,100,66,35
211,156,-45,-184,128,48,-705,278,293,106,72,47
235,144,-81,-190,158,24,-705,320,317,124,102,65
265,168,-93,-220,182,30,-741,380,371,166,120,83
289,168,-117,-232,206,18,-771,410,407,196,144,101
301,144,-153,-226,230,-6,-783,434,419,196,144,107
319,138,-177,-232,248,-11,-783,452,431,208,162,125
355,150,-201,-250,278,-17,-783,512,485,238,186,143
385,156,-225,-268,302,-29,-801,578,509,280,228,167
415,144,-261,-274,338,-53,-837,554,509,298,246,185
439,132,-297,-280,368,-77,-885,494,503,328,270,221
463,138,-315,-298,392,-83,-891,482,515,370,312,245
499,138,-357,-316,434,-107,-897,500,557,418,354,281
505,126,-375,-316,446,-119,-915,428,521,436,378,299
493,108,-381,-298,440,-131,-939,242,419,412,372,311
487,108,-369,-292,428,-125,-975,-27,245,376,360,311
469,72,-387,-268,428,-155,-1005,-381,17,310,336,299
433,36,-387,-238,410,-173,-1029,-633,-126,256,324,293
415,12,-393,-214,404,-185,-1053,-741,-198,268,330,317
391,12,-369,-202,380,-173,-1119,-933,-288,292,366,347
403,42,-351,-226,380,-149,-1197,-1161,-390,316,414,389
457,90,-357,-268,410,-131,-1257,-1311,-432,370,486,461
481,138,-333,-304,410,-95,-1353,-1485,-468,442,558,527
499,198,-297,-346,404,-47,-1485,-1713,-546,514,654,623
553,282,-261,-418,410,6,-1629,-1911,-600,616,762,743
607,342,-255,-478,434,36,-1731,-2067,-678,682,870,821
637,360,-267,-496,458,42,-1833,-2223,-786,706,936,887
655,384,-261,-514,464,54,-1953,-2432,-954,718,984,953
673,426,-243,-544,458,90,-2085,-2666,-1152,712,1044,1031
727,456,-261,-586,494,90,-2223,-2888,-1350,700,1110,1115
769,486,-273,-628,524,102,-2343,-3146,-1626,622,1122,1175
775,498,-267,-640,524,114,-2450,-3386,-1920,490,1110,1205
781,492,-279,-640,530,102,-2522,-3530,-2112,388,1110,1235
811,492,-309,-652,560,90,-2564,-3626,-2244,316,1122,1271
841,504,-327,-676,584,84,-2606,-3734,-2417,232,1122,1319
841,504,-327,-676,584,84,-2642,-3848,-2603,106,1098,1349
829,492,-327,-664,578,78,-2630,-3884,-2747,-13,1068,1355
841,462,-375,-652,608,36,-2594,-3884,-2855,-127,1026,1343
835,420,-411,-628,626,0,-2540,-3848,-2933,-259,978,1343
817,372,-441,-592,632,-29,-2456,-3800,-3035,-421,918,1307
805,342,-459,-574,632,-53,-2379,-3752,-3119,-547,846,1289
781,324,-453,-550,620,-59,-2277,-3674,-3149,-667,792,1271
745,288,-453,-514,602,-77,-2175,-3566,-3149,-763,738,1235
709,234,-465,-472,584,-107,-2043,-3434,-3113,-853,678,1199
649,210,-435,-430,542,-107,-1917,-3308,-3071,-937,618,1175
625,198,-423,-412,524,-107,-1809,-3218,-3059,-1033,540,1139
595,180,-411,-388,500,-113,-1719,-3140,-3059,-1153,456,1085
571,138,-429,-352,500,-143,-1629,-3044,-3035,-1279,354,1037
559,54,-495,-304,530,-221,-1545,-2930,-2975,-1351,270,989
541,-17,-561,-256,548,-287,-1473,-2798,-2873,-1363,228,971
523,-59,-585,-232,554,-323,-1395,-2690,-2783,-1363,204,959
523,-83,-609,-220,566,-347,-1329,-2588,-2681,-1345,204,971
535,-95,-633,-220,584,-365,-1251,-2474,-2549,-1267,252,995
541,-95,-639,-220,590,-365,-1197,-2361,-2394,-1111,336,1049
541,-89,-633,-226,584,-359,-1143,-2235,-2244,-961,450,1115
535,-83,-621,-226,578,-353,-1095,-2127,-2094,-811,540,1169
547,-65,-615,-238,578,-341,-1041,-1995,-1920,-649,642,1229
559,-41,-603,-250,578,-323,-987,-1863,-1746,-481,756,1289
559,-35,-597,-256,578,-317,-969,-1743,-1596,-319,864,1337
577,-11,-591,-274,584,-299,-909,-1629,-1434,-193,924,1361
601,-6,-603,-292,602,-299,-819,-1449,-1242,-67,960,1349
601,-11,-615,-286,608,-311,-735,-1263,-1062,4,978,1307
565,-47,-615,-250,590,-329,-657,-1119,-918,46,942,1247
559,-35,-597,-256,578,-317,-573,-969,-780,76,900,1193
547,-6,-543,-268,548,-269,-489,-819,-642,106,858,1115
499,-6,-495,-244,500,-245,-387,-657,-510,106,762,989
433,-35,-471,-196,452,-251,-291,-531,-414,58,606,821
355,-83,-441,-130,398,-257,-219,-441,-336,4,456,659
283,-89,-375,-94,326,-233,-135,-339,-276,-25,336,503
205,-89,-291,-52,242,-191,-39,-231,-204,-49,234,383
109,-71,-183,-10,146,-125,38,-129,-102,-37,168,275
43,-29,-75,1,56,-53,128,-9,0,16,156,227
13,-6,-21,1,14,-11,206,74,77,52,144,173
-4,-17,-4,7,2,-11,248,128,113,28,84,101
-40,-65,-15,49,-9,-41,272,170,143,10,42,35
-64,-71,-4,67,-27,-35,314,212,173,22,12,-6
-52,-59,-4,55,-21,-29,344,254,203,16,-5,-30
-64,-71,-4,67,-27,-35,350,254,215,4,-17,-42
-82,-77,2,79,-45,-35,356,254,227,-2,-29,-60
-106,-89,14,97,-63,-35,368,272,227,-2,-47,-72
-118,-95,20,103,-69,-35,374,284,239,-2,-59,-96
-130,-95,32,109,-81,-29,392,302,245,-2,-71,-102
-130,-89,38,109,-87,-23,410,326,257,-2,-77,-108
-130,-95,32,109,-81,-29,416,338,269,-2,-89,-120
-130,-89,38,109,-87,-23,434,356,287,-2,-89,-126
-130,-89,38,109,-87,-23,440,368,299,-2,-95,-132
-130,-77,50,103,-93,-11,440,380,305,-2,-101,-144
-130,-77,50,103,-93,-11,458,398,317,-2,-107,-150
-136,-71,62,103,-99,-6,464,410,323,-2,-113,-156
-148,-77,68,109,-111,-6,470,422,329,-7,-119,-168
-148,-83,62,115,-105,-6,476,440,335,-2,-113,-162
-148,-77,68,109,-111,-6,482,446,347,-2,-113,-168
-154,-83,68,115,-111,-6,494,458,353,-2,-107,-168
-154,-83,68,115,-111,-6,500,476,365,-2,-113,-168
-154,-89,62,121,-111,-11,500,482,371,-2,-119,-174
-160,-83,74,121,-117,-6,512,494,377,-2,-119,-174
-166,-89,74,127,-123,-6,512,500,383,-7,-125,-180
-178,-107,68,139,-123,-17,518,506,395,-7,-125,-186
-172,-101,68,133,-123,-11,524,512,395,-2,-125,-186
-166,-89,74,127,-123,-6,530,530,401,-2,-125,-186
-160,-83,74,121,-117,-6,542,542,407,-2,-125,-192
-154,-77,74,115,-117,-6,554,554,419,4,-119,-192
-160,-83,74,121,-117,-6,560,572,431,10,-119,-192
-160,-83,74,121,-117,-6,566,584,437,10,-125,-192
-166,-89,74,127,-123,-6,572,608,455,10,-125,-192
-172,-89,80,127,-129,-6,584,620,461,10,-125,-192
-172,-83,86,127,-129,-6,602,626,461,16,-125,-192
-172,-83,86,127,-129,-6,608,644,479,16,-125,-192
-172,-71,98,121,-135,6,614,662,491,22,-125,-192
-172,-71,98,121,-135,6,632,674,497,34,-125,-192
-172,-77,92,121,-135,0,644,692,509,34,-119,-198
-172,-83,86,127,-129,-6,656,710,521,40,-119,-198
-166,-95,68,127,-117,-11,656,728,539,46,-119,-198
-166,-101,62,133,-117,-17,674,746,545,52,-119,-198
-166,-101,62,133,-117,-17,686,764,557,52,-119,-204
-166,-95,68,127,-117,-11,698,794,569,58,-107,-204
-172,-95,74,133,-123,-6,710,818,581,58,-107,-210
-178,-95,80,133,-129,-6,722,830,599,58,-107,-210
-172,-95,74,133,-123,-6,734,860,611,70,-101,-210
-172,-89,80,127,-129,-6,746,884,635,76,-95,-210
-160,-77,80,115,-123,-6,764,908,653,88,-89,-204
-160,-71,86,115,-123,0,776,932,659,94,-89,-204
-172,-77,92,121,-135,0,782,956,677,100,-89,-210
-160,-77,80,115,-123,-6,800,980,701,112,-77,-210
-154,-77,74,115,-117,-6,812,1004,719,118,-77,-210
-154,-77,74,115,-117,-6,824,1028,737,124,-71,-210
-172,-89,80,127,-129,-6,836,1052,749,130,-71,-216
-178,-89,86,133,-135,-6,848,1082,767,136,-71,-216
-178,-89,86,133,-135,-6,866,1106,785,148,-71,-222
-184,-89,92,133,-141,-6,878,1136,803,154,-71,-222
-178,-83,92,127,-135,-6,890,1160,827,160,-65,-216
-172,-77,92,121,-135,0,902,1190,845,172,-59,-216
-166,-65,98,115,-135,6,908,1214,863,178,-53,-210
-154,-65,86,109,-123,0,920,1238,887,190,-53,-210
-154,-59,92,103,-123,6,932,1268,905,202,-41,-210
-154,-59,92,103,-123,6,944,1298,929,214,-41,-210
-154,-59,92,103,-123,6,962,1328,947,220,-41,-210
-154,-53,98,103,-129,12,974,1352,965,226,-29,-210
-154,-41,110,97,-135,24,974,1370,989,238,-35,-210
-148,-35,110,91,-129,30,986,1394,1007,238,-29,-210
-142,-29,110,85,-129,30,986,1412,1019,244,-35,-210
-142,-29,110,85,-129,30,986,1424,1037,256,-29,-210
-160,-35,122,97,-141,36,986,1442,1055,262,-29,-204
-160,-29,128,91,-147,42,992,1448,1073,274,-17,-204
-160,-35,122,97,-141,36,992,1466,1091,286,-11,-204
-160,-23,134,91,-147,48,992,1472,1097,292,-5,-198
-154,-11,140,79,-147,54,992,1478,1121,316,12,-192
-136,0,146,61,-141,72,992,1490,1145,334,12,-186
-130,18,158,49,-141,84,992,1496,1163,352,18,-174
-124,24,158,43,-141,90,974,1502,1181,364,24,-174
-130,18,158,49,-141,84,962,1490,1187,376,30,-174
-130,18,158,49,-141,84,950,1490,1199,382,36,-168
-124,24,158,43,-141,90,938,1484,1205,406,48,-162
-118,30,158,37,-135,90,920,1478,1217,424,60,-150
-118,42,170,31,-141,102,908,1466,1229,436,72,-144
-118,42,170,31,-141,102,896,1454,1235,448,84,-138
-112,60,182,19,-147,120,884,1442,1241,466,96,-132
-100,72,182,7,-141,126,866,1430,1259,484,108,-126
-94,90,194,1,-141,138,848,1418,1259,496,132,-108
-94,90,194,1,-141,138,830,1400,1271,514,144,-102
-94,90,194,1,-141,138,806,1388,1277,538,156,-96
-82,90,182,1,-129,132,788,1370,1289,568,180,-78
-76,96,182,-4,-129,138,770,1346,1295,586,198,-66
-70,108,188,-10,-129,144,740,1328,1307,610,216,-54
-58,102,170,-16,-111,132,728,1304,1313,622,234,-42
-58,102,170,-16,-111,132,710,1286,1319,652,252,-30
-46,114,170,-28,-105,138,692,1268,1325,670,264,-12
-40,126,176,-34,-105,150,668,1244,1331,694,294,0
-28,144,182,-52,-105,162,662,1232,1337,718,318,17
-16,156,182,-64,-99,168,644,1220,1343,748,342,23
1,156,164,-70,-81,156,620,1196,1343,772,366,41
1,162,170,-76,-81,162,596,1178,1349,802,390,65
13,156,140,-82,-57,150,566,1154,1355,826,420,83
13,162,146,-88,-57,156,554,1130,1355,856,450,107
25,156,128,-88,-45,144,530,1112,1355,874,468,125
37,162,122,-100,-33,144,518,1082,1355,910,492,143
55,162,104,-106,-15,132,494,1058,1361,940,510,167
67,168,98,-118,-9,132,476,1040,1361,970,546,191
73,174,98,-124,-3,138,458,1016,1355,988,570,215
85,174,86,-130,2,132,440,998,1355,1018,600,239
91,186,92,-136,2,138,416,980,1343,1042,624,257
103,186,80,-142,8,132,392,956,1337,1066,654,281
109,192,80,-148,8,138,368,932,1331,1084,690,305
127,192,62,-160,26,126,338,908,1319,1108,720,329
151,204,50,-178,44,126,314,872,1313,1126,750,353
169,210,38,-190,62,126,302,848,1295,1144,768,377
175,216,38,-196,62,126,278,818,1277,1162,792,395
181,216,32,-196,68,126,260,776,1247,1168,810,419
187,222,32,-202,74,126,242,746,1229,1174,828,425
187,222,32,-202,74,126,230,716,1193,1174,834,443
193,228,32,-208,74,132,200,680,1169,1162,846,455
193,228,32,-208,74,132,188,644,1127,1150,852,473
199,234,32,-214,80,132,170,608,1097,1132,858,485
199,228,26,-214,80,126,152,572,1055,1108,846,497
199,228,26,-214,80,126,134,524,1007,1084,846,503
199,234,32,-214,80,132,122,494,977,1060,834,503
199,234,32,-214,80,132,116,464,929,1024,816,503
187,222,32,-202,74,126,104,428,887,994,798,497
187,222,32,-202,74,126,92,392,839,964,780,485
187,216,26,-202,74,120,80,350,791,922,756,473
181,198,14,-190,80,108,74,320,749,874,732,461
169,192,20,-178,68,108,68,290,701,832,702,437
163,174,8,-166,74,90,62,260,665,790,684,425
151,162,8,-154,68,84,62,236,617,742,642,407
133,144,8,-136,56,78,62,206,581,694,612,377
121,138,14,-130,50,78,62,182,533,652,582,353
109,126,14,-118,44,72,56,158,497,604,546,335
97,120,20,-106,32,72,56,128,455,556,510,317
85,102,14,-94,32,60,50,104,413,508,480,293
73,96,20,-82,20,60,50,80,383,472,444,269
67,78,8,-70,26,42,56,68,347,430,408,251
55,60,2,-58,20,30,56,50,311,388,378,227
49,48,-4,-46,20,24,62,44,287,352,348,203
43,42,-4,-40,20,18,68,26,257,322,318,185
25,30,2,-28,8,18,74,14,245,286,288,167
25,18,-4,-22,14,6,74,14,227,250,264,143
7,12,2,-10,2,6,86,9,203,238,252,125
1,0,-4,1,2,0,86,-3,191,214,228,113
1,-6,-4,1,2,-6,86,-15,167,190,198,95
1,-6,-4,1,2,-6,86,-15,149,166,180,83
1,-11,-4,1,2,-11,92,-27,131,136,162,83
-16,-23,-4,19,-3,-11,98,-33,119,112,138,71
-16,-29,-4,19,-3,-17,98,-39,107,100,126,47
-22,-29,-4,25,-9,-17,98,-39,95,76,108,35
-22,-35,-4,25,-3,-23,104,-45,83,64,96,23
-28,-47,-9,37,-3,-29,104,-51,77,46,90,17
-34,-47,-4,37,-9,-29,104,-51,71,40,78,17
-34,-47,-4,37,-9,-29,110,-51,65,28,72,17
-34,-53,-9,43,-9,-35,110,-57,59,16,54,12
-34,-65,-21,49,-3,-47,110,-57,53,4,42,0
-40,-65,-15,49,-9,-41,110,-57,47,-2,36,0
-46,-71,-15,55,-9,-47,110,-57,41,-2,24,-12
-46,-77,-21,61,-9,-53,110,-63,35,-7,12,-18
-46,-83,-27,61,-3,-59,110,-63,29,-19,12,-18
-52,-83,-21,67,-9,-53,116,-63,29,-19,12,-24
-52,-83,-21,67,-9,-53,122,-63,29,-25,7,-30
-58,-77,-9,67,-21,-47,128,-63,29,-31,12,-30
-58,-77,-9,67,-21,-47,128,-63,23,-37,12,-36
-52,-77,-15,61,-15,-47,122,-63,17,-37,7,-42
-58,-77,-9,67,-21,-47,122,-63,17,-43,1,-36
-58,-89,-21,73,-15,-59,116,-69,17,-49,-5,-42
-58,-89,-21,73,-15,-59,116,-69,17,-49,-11,-48
-52,-89,-27,67,-9,-59,122,-69,17,-61,-17,-48
-52,-89,-27,67,-9,-59,122,-69,17,-61,-17,-48
-52,-95,-33,73,-3,-65,134,-69,17,-67,-23,-48
-52,-95,-33,73,-3,-65,134,-69,17,-67,-35,-54
-64,-101,-27,79,-15,-65,134,-69,17,-73,-29,-60
-64,-101,-27,79,-15,-65,134,-69,12,-73,-29,-60
-70,-95,-15,79,-21,-59,134,-69,12,-73,-23,-60
-70,-89,-9,79,-27,-53,134,-69,12,-79,-23,-60
-70,-95,-15,79,-21,-59,140,-69,12,-79,-35,-66
-64,-95,-21,79,-15,-59,140,-69,12,-79,-35,-66
-64,-101,-27,79,-15,-65,140,-69,12,-79,-41,-72
-76,-107,-21,91,-21,-65,140,-69,12,-79,-41,-72
-70,-101,-21,85,-21,-65,140,-69,17,-85,-47,-78
-70,-95,-15,79,-21,-59,140,-69,17,-85,-47,-78
-58,-89,-21,73,-15,-59,140,-69,17,-79,-29,-78
-58,-89,-21,73,-15,-59,140,-69,17,-79,-29,-78
-64,-89,-15,73,-21,-53,140,-69,17,-79,-41,-84
-64,-95,-21,79,-15,-59,140,-69,17,-79,-41,-84
-76,-95,-9,85,-27,-53,140,-69,17,-79,-47,-84
-76,-89,-4,79,-33,-47,140,-69,17,-79,-47,-84
-64,-89,-15,73,-21,-53,146,-69,17,-79,-41,-84
-58,-83,-15,67,-15,-53,146,-69,17,-79,-41,-84
-52,-83,-21,67,-9,-53,158,-63,17,-79,-47,-84
-58,-83,-15,67,-15,-53,158,-63,23,-79,-47,-84
-70,-83,-4,73,-27,-47,152,-63,17,-85,-53,-90
-70,-95,-15,79,-21,-59,152,-63,17,-85,-53,-90
-76,-83,-4,79,-33,-41,146,-63,17,-91,-53,-90
-70,-77,-4,73,-33,-41,146,-63,17,-91,-53,-90
-70,-77,-4,73,-33,-41,152,-57,17,-91,-53,-90
-70,-77,-4,73,-33,-41,152,-57,17,-91,-53,-90
-70,-77,-4,73,-33,-41,158,-51,17,-91,-53,-90
-82,-83,-4,79,-39,-41,158,-51,17,-91,-53,-90
-82,-83,-4,79,-39,-41,164,-51,23,-85,-53,-90
-76,-83,-4,79,-33,-41,164,-51,23,-85,-53,-90
-76,-83,-4,79,-33,-41,164,-45,29,-79,-53,-90
-76,-89,-4,79,-33,-47,164,-39,29,-79,-53,-90
-76,-95,-9,85,-27,-53,164,-39,29,-79,-53,-90
-82,-89,-4,85,-39,-47,158,-39,29,-79,-53,-90
-82,-95,-4,85,-33,-53,158,-39,29,-79,-53,-96
-76,-95,-9,85,-27,-53,158,-45,29,-85,-59,-96
-70,-89,-9,79,-27,-53,158,-45,29,-85,-59,-96
-70,-89,-9,79,-27,-53,158,-39,29,-79,-53,-90
-70,-89,-9,79,-27,-53,158,-39,29,-79,-53,-90
-76,-83,-4,79,-33,-41,158,-39,29,-79,-53,-90
-76,-77,-4,73,-39,-35,158,-39,23,-79,-53,-90
-76,-83,-4,79,-33,-41,158,-45,23,-79,-53,-90
-76,-77,-4,73,-39,-35,164,-45,23,-79,-53,-90
-76,-77,-4,73,-39,-35,164,-51,23,-79,-53,-90
-70,-77,-4,73,-33,-41,164,-51,23,-79,-53,-84
-70,-77,-4,73,-33,-41,164,-45,23,-79,-53,-84
-58,-71,-4,61,-21,-41,176,-39,23,-79,-53,-78
-58,-71,-4,61,-21,-41,176,-39,23,-79,-59,-78
-70,-89,-9,79,-27,-53,170,-45,17,-85,-59,-90
-70,-89,-9,79,-27,-53,170,-45,17,-85,-59,-90
-58,-77,-9,67,-21,-47,170,-45,23,-73,-59,-90
-58,-59,-4,55,-27,-29,176,-45,23,-73,-59,-90
-70,-83,-4,73,-27,-47,170,-45,23,-79,-59,-90
-76,-83,-4,79,-33,-41,164,-45,17,-79,-65,-96
-82,-89,-4,85,-39,-47,158,-45,17,-85,-65,-96
-82,-89,-4,85,-39,-47,158,-51,17,-85,-65,-102
-76,-83,-4,79,-33,-41,158,-51,17,-97,-65,-102
-76,-83,-4,79,-33,-41,158,-51,17,-97,-65,-102
-76,-77,-4,73,-39,-35,158,-51,17,-103,-65,-102
-76,-77,-4,73,-39,-35,158,-57,17,-103,-65,-102
-82,-77,2,79,-45,-35,158,-57,17,-103,-65,-102
-82,-77,2,79,-45,-35,158,-57,17,-109,-65,-108
-82,-77,2,79,-45,-35,158,-57,12,-109,-59,-108
-82,-77,2,79,-45,-35,158,-57,6,-109,-59,-108
-76,-71,2,73,-39,-29,158,-57,12,-103,-59,-108
-76,-71,2,73,-39,-29,158,-57,12,-103,-59,-108
-70,-65,2,67,-39,-29,158,-57,17,-97,-65,-108
-70,-71,-4,67,-33,-35,158,-57,12,-103,-71,-108
-70,-71,-4,67,-33,-35,164,-57,12,-103,-71,-108
-70,-71,-4,67,-33,-35,164,-57,12,-103,-71,-108
-70,-71,-4,67,-33,-35,170,-63,12,-109,-71,-108
-70,-71,-4,67,-33,-35,170,-63,6,-109,-71,-108
-76,-77,-4,73,-39,-35,164,-63,6,-109,-71,-108
-76,-77,-4,73,-39,-35,164,-69,6,-109,-77,-114
-88,-83,2,85,-45,-35,158,-69,6,-115,-77,-114
-88,-83,2,85,-45,-35,158,-69,0,-115,-77,-114
-82,-83,-4,79,-39,-41,158,-69,-6,-121,-77,-114
-82,-83,-4,79,-39,-41,158,-69,-6,-121,-83,-114
-82,-83,-4,79,-39,-41,158,-69,-12,-127,-83,-114
-82,-83,-4,79,-39,-41,158,-69,-12,-127,-83,-120
-76,-77,-4,73,-39,-35,152,-69,-18,-127,-83,-114
-76,-77,-4,73,-39,-35,152,-75,-18,-127,-83,-114
-70,-71,-4,67,-33,-35,152,-75,-18,-133,-83,-108
-82,-77,2,79,-45,-35,152,-75,-18,-133,-83,-108
-82,-89,-4,85,-39,-47,158,-81,-24,-133,-95,-114
-82,-89,-4,85,-39,-47,158,-81,-24,-133,-95,-114
-76,-89,-4,79,-33,-47,164,-81,-12,-139,-95,-120
-70,-77,-4,73,-33,-41,164,-81,-12,-139,-89,-114
-70,-77,-4,73,-33,-41,170,-81,-12,-133,-89,-114
-70,-83,-4,73,-27,-47,170,-81,-12,-133,-89,-114
-70,-83,-4,73,-27,-47,164,-81,-12,-127,-89,-114
-76,-83,-4,79,-33,-41,164,-81,-12,-127,-89,-114
-82,-89,-4,85,-39,-47,158,-87,-18,-127,-89,-120
-82,-89,-4,85,-39,-47,158,-87,-18,-133,-89,-120
-88,-95,-4,91,-39,-47,152,-87,-18,-133,-89,-120
-88,-107,-9,97,-33,-59,152,-81,-18,-133,-89,-120
-82,-89,-4,85,-39,-47,152,-81,-18,-133,-89,-114
-82,-89,-4,85,-39,-47,152,-81,-18,-133,-89,-114
-76,-89,-4,79,-33,-47,152,-81,-18,-133,-89,-108
-76,-89,-4,79,-33,-47,152,-81,-18,-133,-95,-108
-82,-95,-4,85,-33,-53,158,-87,-24,-139,-95,-114
-88,-95,-4,91,-39,-47,158,-93,-30,-139,-95,-114
-94,-101,-4,97,-45,-53,158,-99,-36,-145,-95,-120
-100,-101,-4,97,-51,-47,152,-99,-36,-145,-95,-120
-94,-95,-4,91,-45,-47,158,-93,-30,-139,-95,-120
-88,-89,-4,85,-45,-41,158,-93,-30,-139,-95,-120
-70,-83,-4,73,-27,-47,164,-87,-24,-133,-89,-108
-64,-77,-4,67,-27,-41,164,-87,-24,-133,-89,-108
-70,-77,-4,73,-33,-41,164,-87,-24,-133,-89,-114
-70,-83,-4,73,-27,-47,164,-87,-24,-133,-83,-114
-76,-89,-4,79,-33,-47,158,-87,-24,-133,-89,-120
-88,-101,-4,91,-39,-53,158,-93,-24,-139,-95,-120
-88,-101,-4,91,-39,-53,152,-99,-30,-139,-95,-120
-88,-95,-4,91,-39,-47,152,-99,-30,-139,-95,-120
-76,-77,-4,73,-39,-35,152,-105,-36,-139,-101,-120
-76,-71,2,73,-39,-29,152,-99,-36,-139,-101,-120
-76,-77,-4,73,-39,-35,152,-99,-30,-139,-101,-120
-82,-83,-4,79,-39,-41,152,-99,-30,-139,-101,-120
-82,-89,-4,85,-39,-47,158,-99,-24,-139,-101,-120
-76,-83,-4,79,-33,-41,158,-99,-24,-139,-101,-120
-76,-83,-4,79,-33,-41,158,-99,-30,-139,-95,-120
-76,-83,-4,79,-33,-41,158,-99,-30,-139,-95,-120
-76,-83,-4,79,-33,-41,158,-93,-36,-139,-95,-120
-76,-89,-4,79,-33,-47,152,-93,-36,-139,-101,-120
-76,-89,-4,79,-33,-47,152,-99,-36,-145,-107,-120
-76,-89,-4,79,-33,-47,152,-99,-36,-145,-107,-120
-76,-89,-4,79,-33,-47,152,-99,-30,-145,-101,-126
-76,-83,-4,79,-33,-41,152,-99,-30,-145,-101,-126
-82,-89,-4,85,-39,-47,152,-99,-36,-151,-101,-126
-82,-89,-4,85,-39,-47,152,-99,-36,-145,-101,-126
-88,-95,-4,91,-39,-47,140,-99,-42,-151,-101,-132
-88,-95,-4,91,-39,-47,140,-99,-42,-151,-101,-138
-82,-89,-4,85,-39,-47,152,-93,-36,-151,-101,-132
-76,-89,-4,79,-33,-47,152,-93,-36,-151,-101,-126
-70,-83,-4,73,-27,-47,152,-87,-30,-151,-101,-120
-82,-89,-4,85,-39,-47,152,-87,-30,-151,-101,-114
-82,-89,-4,85,-39,-47,152,-87,-36,-151,-101,-120
-76,-89,-4,79,-33,-47,152,-87,-36,-151,-101,-114
-76,-89,-4,79,-33,-47,152,-87,-42,-145,-101,-120
-76,-83,-4,79,-33,-41,152,-87,-42,-145,-101,-120
-76,-83,-4,79,-33,-41,152,-93,-42,-145,-107,-120
-76,-83,-4,79,-33,-41,152,-93,-42,-145,-107,-120
-76,-83,-4,79,-33,-41,152,-105,-42,-145,-113,-120
-76,-83,-4,79,-33,-41,140,-105,-42,-145,-119,-120
-76,-95,-9,85,-27,-53,152,-93,-30,-145,-107,-120
-88,-107,-9,97,-33,-59,152,-93,-42,-145,-119,-120
-100,-119,-9,109,-39,-65,140,-105,-42,-157,-119,-120
-88,-113,-15,97,-33,-65,140,-105,-48,-145,-119,-126
-76,-95,-9,85,-27,-53,152,-99,-36,-151,-113,-120
-82,-101,-9,91,-33,-59,146,-99,-42,-157,-113,-120
-82,-101,-9,91,-33,-59,146,-99,-42,-157,-113,-120
-88,-107,-9,97,-33,-59,140,-99,-48,-163,-113,-120
-88,-107,-9,97,-33,-59,140,-99,-48,-163,-113,-120
-82,-101,-9,91,-33,-59,146,-93,-42,-157,-113,-120
-82,-95,-4,85,-33,-53,146,-93,-42,-157,-113,-120
-76,-89,-4,79,-33,-47,152,-87,-36,-151,-113,-120
-76,-83,-4,79,-33,-41,152,-87,-36,-151,-113,-120
-76,-89,-4,79,-33,-47,152,-87,-36,-151,-113,-126
-76,-89,-4,79,-33,-47,152,-87,-36,-151,-113,-126
-76,-95,-9,85,-27,-53,152,-87,-36,-151,-113,-132
-76,-95,-9,85,-27,-53,152,-87,-36,-151,-113,-132
-76,-89,-4,79,-33,-47,152,-93,-36,-151,-113,-132
-76,-89,-4,79,-33,-47,152,-93,-36,-151,-113,-132
-76,-83,-4,79,-33,-41,152,-99,-36,-151,-113,-132
-76,-83,-4,79,-33,-41,152,-99,-36,-151,-113,-132
-82,-89,-4,85,-39,-47,146,-99,-42,-157,-119,-132
-82,-95,-4,85,-33,-53,146,-99,-42,-157,-119,-132
-88,-101,-4,91,-39,-53,140,-99,-48,-163,-125,-132
-88,-107,-9,97,-33,-59,140,-99,-48,-163,-125,-132
-88,-101,-4,91,-39,-53,140,-99,-42,-163,-125,-132
-88,-101,-4,91,-39,-53,140,-99,-42,-163,-125,-132
-88,-95,-4,91,-39,-47,140,-99,-36,-163,-125,-132
-88,-95,-4,91,-39,-47,140,-99,-36,-163,-125,-132
-94,-101,-4,97,-45,-53,146,-99,-42,-163,-125,-138
-94,-101,-4,97,-45,-53,146,-99,-42,-163,-125,-138
-100,-107,-4,103,-45,-53,152,-99,-48,-163,-125,-144
-100,-107,-4,103,-45,-53,152,-99,-48,-163,-125,-144
-94,-101,-4,97,-45,-53,152,-93,-42,-157,-119,-138
-88,-101,-4,91,-39,-53,152,-93,-42,-157,-119,-138
-82,-95,-4,85,-33,-53,152,-87,-36,-151,-113,-132
-76,-95,-9,85,-27,-53,152,-87,-36,-151,-113,-132
-82,-101,-9,91,-33,-59,152,-93,-42,-157,-119,-138
-82,-101,-9,91,-33,-59,152,-93,-42,-157,-119,-138
-88,-107,-9,97,-33,-59,152,-99,-48,-163,-125,-144
-88,-107,-9,97,-33,-59,152,-99,-48,-163,-125,-144
-88,-107,-9,97,-33,-59,146,-99,-48,-163,-125,-138
-88,-107,-9,97,-33,-59,146,-99,-48,-163,-125,-138
-88,-107,-9,97,-33,-59,140,-99,-48,-163,-125,-132
-88,-107,-9,97,-33,-59,140,-99,-48,-163,-125,-132
-82,-101,-9,91,-33,-59,140,-93,-48,-163,-125,-132
-82,-95,-4,85,-33,-53,140,-93,-48,-163,-125,-132
-76,-89,-4,79,-33,-47,140,-87,-48,-163,-125,-132
-76,-83,-4,79,-33,-41,140,-87,-48,-163,-125,-132
-82,-89,-4,85,-39,-47,146,-87,-48,-163,-125,-132
-82,-95,-4,85,-33,-53,146,-87,-48,-163,-125,-132
-88,-101,-4,91,-39,-53,152,-87,-48,-163,-125,-132
-88,-107,-9,97,-33,-59,152,-87,-48,-163,-125,-132
-82,-107,-15,91,-27,-65,152,-87,-42,-163,-125,-132
-82,-107,-15,91,-27,-65,152,-87,-42,-163,-125,-132
-76,-107,-21,91,-21,-65,152,-87,-36,-163,-125,-132
-76,-107,-21,91,-21,-65,152,-87,-36,-163,-125,-132
-82,-101,-9,91,-33,-59,146,-87,-42,-163,-125,-132
-82,-101,-9,91,-33,-59,146,-87,-42,-163,-125,-132
-88,-95,-4,91,-39,-47,140,-87,-48,-163,-125,-132
-88,-95,-4,91,-39,-47,140,-87,-48,-163,-125,-132
-82,-95,-4,85,-33,-53,140,-87,-48,-163,-125,-132
-82,-95,-4,85,-33,-53,140,-87,-48,-163,-125,-132
-76,-95,-9,85,-27,-53,140,-87,-48,-163,-125,-132
-76,-95,-9,85,-27,-53,140,-87,-48,-163,-125,-132
-82,-95,-4,85,-33,-53,140,-87,-48,-163,-131,-132
-82,-95,-4,85,-33,-53,140,-87,-48,-163,-131,-132
-88,-95,-4,91,-39,-47,140,-87,-48,-163,-137,-132
-88,-95,-4,91,-39,-47,140,-87,-48,-163,-137,-132
-88,-95,-4,91,-39,-47,146,-81,-42,-163,-131,-132
-88,-95,-4,91,-39,-47,146,-81,-42,-163,-131,-132
-88,-95,-4,91,-39,-47,152,-75,-36,-163,-125,-132
-88,-95,-4,91,-39,-47,152,-75,-36,-163,-125,-132
-82,-95,-4,85,-33,-53,152,-75,-42,-163,-125,-132
-82,-95,-4,85,-33,-53,152,-75,-42,-163,-125,-132
-76,-95,-9,85,-27,-53,152,-75,-48,-163,-125,-132
