,,,,,,,,,,,
2019-09-04 23:12:08,,,,,,,,,,,
,,,,,,,,,,,
I,II,III,aVR,aVL,aVF,V1,V2,V3,V4,V5,V6
-110,-171,-56,140,-21,-113,413,334,-35,-451,-729,-315
-110,-171,-56,140,-21,-113,413,334,-35,-451,-729,-315
-110,-171,-56,140,-21,-113,413,334,-35,-451,-729,-315
-110,-171,-56,140,-21,-113,413,334,-35,-451,-729,-315
-116,-165,-51,140,-33,-107,419,340,-35,-451,-735,-321
-116,-165,-51,140,-33,-107,419,340,-35,-451,-735,-321
-122,-159,-45,140,-39,-95,419,346,-35,-451,-735,-327
-122,-159,-45,140,-39,-95,419,346,-35,-451,-735,-327
-122,-159,-45,140,-39,-95,425,352,-35,-457,-735,-321
-122,-159,-45,140,-39,-95,425,358,-35,-457,-735,-321
-122,-159,-45,140,-39,-95,431,364,-35,-463,-735,-315
-122,-159,-45,140,-39,-95,431,370,-35,-463,-735,-315
-128,-159,-39,140,-45,-95,437,376,-30,-457,-735,-315
-128,-159,-39,140,-45,-95,437,376,-30,-457,-735,-315
-134,-159,-33,146,-51,-89,443,382,-30,-451,-729,-315
-134,-159,-33,146,-51,-89,443,382,-30,-451,-729,-315
-128,-153,-33,140,-51,-89,443,388,-30,-457,-735,-321
-128,-153,-33,140,-51,-89,443,388,-30,-457,-735,-327
-122,-147,-33,134,-45,-83,443,394,-35,-463,-741,-333
-122,-147,-33,134,-45,-83,443,394,-35,-463,-747,-339
-128,-147,-27,134,-51,-83,449,400,-30,-463,-741,-333
-128,-147,-27,134,-51,-83,455,406,-30,-463,-735,-333
-134,-147,-21,140,-57,-77,461,412,-30,-463,-735,-327
-134,-147,-21,140,-57,-77,467,418,-30,-463,-729,-327
-140,-141,-9,140,-69,-71,473,424,-30,-463,-729,-327
-140,-141,-9,140,-69,-71,479,424,-30,-463,-729,-327
-146,-135,3,140,-75,-59,485,430,-24,-463,-729,-327
-146,-135,3,140,-75,-59,491,436,-24,-463,-729,-327
-140,-129,3,134,-75,-59,497,442,-30,-463,-735,-327
-140,-129,3,134,-75,-59,497,442,-30,-463,-735,-327
-134,-123,3,128,-69,-53,503,448,-30,-463,-735,-327
-134,-123,3,128,-69,-53,503,448,-30,-463,-735,-327
-140,-123,9,128,-75,-53,515,460,-30,-457,-729,-327
-146,-123,15,134,-81,-48,527,472,-24,-451,-723,-327
-152,-123,21,134,-87,-48,539,484,-18,-445,-711,-327
-158,-123,27,140,-93,-48,551,496,-12,-439,-705,-327
-152,-117,27,134,-93,-48,557,502,-18,-445,-711,-333
-152,-117,27,134,-93,-48,557,508,-18,-445,-711,-333
-146,-111,27,128,-87,-48,563,514,-24,-451,-717,-339
-146,-111,27,128,-87,-48,563,520,-24,-451,-717,-339
-152,-105,39,128,-99,-42,569,538,-18,-445,-711,-333
-152,-105,39,128,-99,-42,575,550,-12,-439,-705,-327
-158,-99,51,128,-105,-30,581,568,-6,-433,-699,-321
-158,-99,51,128,-105,-30,587,580,0,-427,-693,-315
-164,-93,63,128,-117,-24,599,598,6,-421,-687,-315
-164,-93,63,128,-117,-24,611,610,6,-415,-687,-315
-170,-87,75,128,-123,-12,623,628,12,-409,-681,-315
-170,-87,75,128,-123,-12,635,640,12,-403,-681,-315
-164,-81,75,122,-123,-12,647,658,12,-397,-675,-315
-164,-81,75,122,-123,-12,653,670,12,-397,-675,-315
-158,-75,75,116,-117,-6,665,682,12,-391,-669,-315
-158,-75,75,116,-117,-6,665,694,12,-391,-669,-315
-164,-69,87,116,-129,0,677,712,18,-385,-663,-315
-170,-69,93,116,-135,6,683,724,18,-379,-657,-315
-176,-63,105,116,-141,12,695,742,24,-373,-651,-309
-182,-63,111,122,-147,18,701,754,24,-367,-645,-309
-176,-57,111,116,-147,18,713,766,18,-361,-639,-309
-176,-57,111,116,-147,18,719,778,18,-361,-639,-309
-170,-51,111,110,-141,24,731,790,12,-355,-633,-309
-170,-51,111,110,-141,24,737,802,12,-355,-633,-309
-176,-46,123,110,-153,30,743,820,18,-343,-621,-297
-176,-46,123,110,-153,30,749,832,18,-337,-609,-285
-182,-46,135,110,-159,42,755,850,24,-325,-597,-273
-182,-46,135,110,-159,42,761,862,24,-319,-585,-261
-188,-46,147,110,-165,48,767,874,18,-307,-573,-255
-188,-46,147,110,-165,48,773,886,18,-301,-567,-255
-194,-40,159,110,-177,60,779,898,12,-289,-555,-249
-194,-40,159,110,-177,60,785,910,12,-283,-549,-249
-194,-34,165,104,-177,66,785,910,6,-277,-531,-237
-194,-34,165,104,-177,66,785,910,0,-271,-519,-225
-194,-28,171,104,-183,72,785,916,-6,-271,-501,-213
-194,-28,171,104,-183,72,785,916,-12,-265,-489,-201
-194,-22,177,98,-183,78,785,922,-18,-253,-477,-189
-194,-22,177,98,-183,78,785,922,-24,-241,-465,-177
-194,-16,183,98,-189,84,785,928,-30,-229,-447,-165
-194,-16,183,98,-189,84,785,928,-30,-217,-435,-153
-194,-16,183,98,-189,84,779,922,-35,-199,-411,-135
-194,-16,183,98,-189,84,779,916,-41,-187,-393,-123
-194,-16,183,98,-189,84,773,910,-53,-169,-369,-105
-194,-16,183,98,-189,84,773,910,-59,-157,-351,-93
-188,-16,177,92,-183,78,761,898,-71,-139,-327,-76
-182,-16,171,92,-177,78,755,886,-83,-127,-303,-64
-176,-16,165,86,-171,72,743,874,-95,-109,-279,-40
-170,-16,159,86,-165,72,737,862,-107,-97,-255,-22
-176,-22,159,92,-165,66,725,838,-119,-73,-237,2
-182,-28,159,98,-171,66,713,814,-131,-49,-213,20
-188,-34,159,104,-171,60,701,790,-143,-32,-189,44
-194,-40,159,110,-177,60,689,766,-155,-14,-165,62
-188,-46,147,110,-165,48,665,730,-173,10,-129,86
-182,-46,135,110,-159,42,647,700,-185,34,-99,110
-176,-46,123,110,-153,30,623,670,-203,58,-63,134
-170,-51,111,110,-141,24,599,640,-215,82,-33,158
-158,-57,93,104,-129,12,575,604,-233,106,-4,182
-152,-63,81,104,-117,0,557,568,-245,124,8,206
-140,-69,63,104,-105,-12,533,532,-263,148,38,236
-134,-75,51,104,-93,-18,515,496,-269,166,62,260
-128,-87,33,104,-81,-36,485,454,-281,196,98,284
-122,-93,21,104,-75,-42,461,424,-293,214,128,308
-116,-105,3,110,-63,-48,431,382,-305,244,164,332
-110,-111,-9,110,-51,-53,413,346,-317,268,194,356
-98,-117,-27,104,-39,-65,389,310,-329,292,224,380
-92,-123,-39,104,-27,-77,365,280,-341,310,242,404
-80,-129,-51,104,-15,-89,341,244,-353,334,272,422
-74,-135,-56,104,-3,-95,317,214,-365,352,296,446
-68,-147,-74,104,9,-113,299,184,-371,382,320,464
-68,-153,-80,110,9,-119,287,160,-371,406,338,482
-62,-165,-98,110,21,-131,269,130,-377,436,362,500
-62,-171,-104,116,26,-137,257,100,-377,454,380,518
-50,-171,-116,110,26,-143,233,76,-371,478,398,530
-44,-171,-122,104,32,-149,209,52,-371,496,410,536
-32,-171,-134,98,44,-155,185,28,-365,520,428,548
-26,-171,-140,98,50,-155,167,4,-365,538,440,554
-20,-177,-152,98,56,-167,155,-8,-353,562,440,554
-20,-177,-152,98,56,-167,143,-20,-347,580,440,554
-14,-183,-164,98,68,-173,131,-32,-335,604,440,554
-14,-183,-164,98,68,-173,119,-44,-329,622,440,554
-8,-177,-164,92,68,-173,107,-56,-317,622,434,548
-8,-177,-164,92,68,-173,95,-62,-305,622,428,542
-2,-171,-164,86,74,-167,83,-62,-293,622,422,536
-2,-171,-164,86,74,-167,71,-67,-281,622,416,530
3,-171,-176,80,86,-173,59,-67,-269,604,392,512
3,-171,-182,74,92,-173,53,-67,-263,592,368,494
15,-171,-194,68,104,-179,41,-67,-251,574,344,476
21,-171,-200,68,110,-185,35,-67,-239,562,320,458
15,-165,-188,68,98,-173,29,-62,-227,538,290,434
9,-165,-182,68,92,-173,29,-62,-221,514,266,410
3,-159,-170,68,86,-161,23,-62,-209,490,236,392
3,-159,-164,74,80,-161,23,-56,-203,466,218,368
3,-153,-164,68,80,-155,17,-50,-197,430,182,338
9,-147,-164,62,86,-155,11,-44,-191,394,146,308
15,-141,-164,56,86,-149,5,-38,-185,352,110,278
21,-135,-164,50,92,-149,-1,-32,-179,316,74,248
15,-129,-152,50,80,-137,-1,-20,-167,286,38,224
15,-123,-146,44,80,-131,-1,-8,-161,256,8,200
9,-117,-134,44,68,-125,-1,4,-149,226,-15,176
9,-111,-128,44,68,-119,-1,16,-143,202,-45,158
3,-105,-116,44,56,-107,-1,28,-137,178,-69,134
3,-99,-110,38,56,-101,-1,34,-131,154,-93,116
3,-93,-98,38,44,-95,-1,46,-125,130,-117,92
3,-87,-92,38,44,-89,-1,52,-119,106,-141,74
3,-81,-92,32,44,-83,-7,58,-113,82,-165,56
9,-75,-92,26,50,-83,-7,64,-113,58,-189,38
15,-69,-92,20,50,-77,-13,70,-107,34,-213,20
21,-63,-92,20,56,-77,-13,76,-107,10,-237,2
9,-57,-74,20,38,-65,-13,88,-101,-2,-243,-10
3,-57,-68,20,32,-59,-13,94,-95,-14,-249,-16
3,-51,-51,20,26,-53,-13,106,-89,-26,-261,-28
-2,-51,-51,26,26,-48,-13,112,-83,-32,-267,-34
3,-51,-51,20,26,-53,-7,118,-77,-37,-279,-46
3,-51,-51,20,26,-53,-7,118,-77,-43,-285,-58
3,-51,-56,20,26,-53,-1,124,-71,-55,-297,-70
3,-51,-56,20,26,-53,-1,124,-71,-61,-303,-76
3,-46,-51,20,26,-48,5,130,-65,-73,-315,-76
3,-46,-51,20,26,-48,5,130,-65,-79,-321,-76
3,-46,-51,20,26,-48,11,136,-59,-91,-333,-81
3,-46,-51,20,26,-48,11,136,-59,-97,-339,-81
3,-46,-51,20,26,-48,11,142,-53,-97,-339,-87
-2,-46,-45,20,21,-48,11,148,-53,-97,-339,-93
-8,-46,-39,20,15,-48,11,154,-47,-97,-339,-99
-14,-46,-33,26,9,-42,11,160,-47,-97,-339,-105
-8,-46,-33,20,15,-42,5,154,-47,-103,-345,-111
-2,-46,-39,20,21,-42,5,154,-47,-103,-351,-117
3,-40,-39,20,21,-42,-1,148,-47,-109,-357,-123
3,-40,-45,20,26,-42,-1,148,-47,-109,-363,-129
-2,-40,-33,20,15,-36,5,154,-41,-109,-363,-129
-8,-40,-27,20,9,-36,11,154,-41,-109,-363,-129
-20,-40,-15,20,-3,-30,17,160,-35,-109,-363,-129
-26,-40,-9,26,-9,-24,23,160,-35,-109,-363,-129
-20,-40,-15,20,-3,-30,17,160,-35,-109,-369,-135
-20,-40,-15,20,-3,-30,17,160,-35,-109,-369,-141
-14,-40,-21,20,3,-30,11,160,-35,-109,-375,-147
-14,-40,-21,20,3,-30,11,160,-35,-109,-375,-153
-8,-34,-21,20,9,-30,5,160,-35,-115,-375,-153
-8,-34,-21,20,9,-30,5,160,-35,-115,-375,-153
-2,-28,-21,20,9,-24,-1,160,-35,-121,-375,-153
-2,-28,-21,20,9,-24,-1,160,-35,-121,-375,-153
-8,-28,-15,20,3,-24,-1,160,-35,-121,-375,-153
-14,-28,-9,20,-3,-18,-1,160,-35,-121,-375,-153
-20,-28,-3,20,-9,-18,-1,160,-35,-121,-375,-153
-26,-28,3,20,-15,-12,-1,160,-35,-121,-375,-153
-20,-34,-9,20,-3,-24,-7,160,-35,-121,-381,-159
-20,-34,-9,20,-3,-24,-7,160,-35,-121,-381,-159
-14,-40,-21,20,3,-30,-13,160,-35,-121,-387,-165
-14,-40,-21,20,3,-30,-13,160,-35,-121,-387,-165
-20,-40,-15,20,-3,-30,-7,166,-30,-115,-381,-159
-26,-40,-9,26,-9,-24,-7,166,-30,-115,-375,-159
-32,-40,-3,26,-15,-24,-1,172,-30,-109,-369,-153
-38,-40,3,32,-21,-18,-1,172,-30,-109,-363,-153
-32,-40,-3,26,-15,-24,-7,166,-30,-115,-369,-159
-32,-40,-3,26,-15,-24,-7,166,-30,-115,-375,-165
-26,-40,-9,26,-9,-24,-13,160,-35,-121,-381,-171
-26,-40,-9,26,-9,-24,-13,160,-35,-121,-387,-177
-26,-40,-9,26,-9,-24,-13,166,-35,-115,-381,-171
-26,-40,-9,26,-9,-24,-13,166,-35,-115,-381,-171
-26,-40,-9,26,-9,-24,-13,172,-35,-109,-375,-165
-26,-40,-9,26,-9,-24,-13,172,-35,-109,-375,-165
-32,-40,-3,26,-15,-24,-13,172,-35,-103,-369,-165
-32,-40,-3,26,-15,-24,-13,172,-35,-103,-369,-165
-38,-40,3,32,-21,-18,-13,172,-35,-97,-363,-165
-38,-40,3,32,-21,-18,-13,172,-35,-97,-363,-165
-32,-40,-3,26,-15,-24,-19,166,-41,-97,-369,-171
-26,-40,-9,26,-9,-24,-19,166,-41,-97,-369,-171
-20,-40,-15,20,-3,-30,-25,160,-47,-97,-375,-177
-14,-40,-21,20,3,-30,-25,160,-47,-97,-375,-177
-20,-40,-15,20,-3,-30,-25,160,-41,-91,-369,-171
-26,-40,-9,26,-9,-24,-25,160,-41,-91,-369,-171
-32,-40,-3,26,-15,-24,-25,160,-35,-85,-363,-165
-38,-40,3,32,-21,-18,-25,160,-35,-85,-363,-165
-32,-40,-3,26,-15,-24,-31,160,-35,-91,-369,-171
-32,-40,-3,26,-15,-24,-31,160,-35,-91,-369,-171
-26,-40,-9,26,-9,-24,-37,160,-35,-97,-375,-177
-26,-40,-9,26,-9,-24,-37,160,-35,-97,-375,-177
-26,-40,-9,26,-9,-24,-37,160,-41,-97,-369,-177
-26,-40,-9,26,-9,-24,-37,160,-41,-97,-369,-177
-26,-40,-9,26,-9,-24,-37,160,-47,-97,-363,-177
-26,-40,-9,26,-9,-24,-37,160,-47,-97,-363,-177
-32,-46,-9,32,-9,-30,-37,166,-41,-97,-363,-171
-32,-46,-9,32,-9,-30,-37,166,-41,-97,-363,-171
-38,-46,-9,38,-15,-30,-37,172,-35,-97,-363,-165
-38,-46,-9,38,-15,-30,-37,172,-35,-97,-363,-165
-32,-46,-15,32,-9,-36,-37,172,-41,-97,-369,-171
-26,-46,-21,32,-3,-36,-37,172,-41,-97,-369,-171
-20,-46,-27,26,3,-42,-37,172,-47,-97,-375,-177
-14,-46,-33,26,9,-42,-37,172,-47,-97,-375,-177
-20,-46,-27,26,3,-42,-37,172,-41,-97,-369,-171
-26,-46,-21,32,-3,-36,-37,172,-41,-97,-363,-171
-32,-46,-15,32,-9,-36,-37,172,-35,-97,-357,-165
-38,-46,-9,38,-15,-30,-37,172,-35,-97,-351,-165
-32,-46,-15,32,-9,-36,-37,172,-35,-103,-363,-171
-32,-46,-15,32,-9,-36,-37,172,-35,-109,-369,-171
-26,-46,-21,32,-3,-36,-37,172,-35,-115,-381,-177
-26,-46,-21,32,-3,-36,-37,172,-35,-121,-387,-177
-26,-46,-21,32,-3,-36,-37,172,-41,-121,-381,-177
-26,-46,-21,32,-3,-36,-37,172,-41,-121,-375,-177
-26,-46,-21,32,-3,-36,-37,172,-47,-121,-369,-177
-26,-46,-21,32,-3,-36,-37,172,-47,-121,-363,-177
-26,-46,-27,32,-3,-42,-37,178,-41,-127,-363,-177
-26,-46,-27,32,-3,-42,-37,178,-41,-127,-363,-177
-26,-51,-33,38,3,-48,-37,178,-35,-133,-363,-177
-26,-51,-33,38,3,-48,-37,178,-35,-133,-363,-177
-20,-51,-39,32,9,-48,-43,178,-35,-139,-369,-177
-14,-51,-45,32,15,-48,-43,178,-35,-139,-375,-177
-8,-51,-51,26,21,-48,-49,172,-35,-145,-381,-177
-2,-51,-51,26,26,-48,-49,172,-35,-145,-387,-177
-8,-46,-45,26,15,-48,-43,178,-35,-145,-375,-177
-14,-46,-39,26,9,-48,-43,178,-35,-145,-369,-177
-20,-46,-27,26,3,-42,-37,178,-35,-145,-357,-177
-26,-46,-21,32,-3,-36,-37,178,-35,-145,-351,-177
-20,-46,-27,26,3,-42,-43,178,-35,-145,-363,-177
-20,-46,-27,26,3,-42,-43,178,-35,-145,-369,-177
-14,-46,-33,26,9,-42,-49,172,-35,-145,-381,-177
-14,-46,-33,26,9,-42,-49,172,-35,-145,-387,-177
-14,-46,-33,26,9,-42,-49,172,-41,-145,-381,-177
-14,-46,-33,26,9,-42,-49,172,-41,-145,-375,-177
-14,-46,-33,26,9,-42,-49,172,-47,-145,-369,-177
-14,-46,-33,26,9,-42,-49,172,-47,-145,-363,-177
-8,-46,-39,20,15,-48,-49,178,-41,-145,-363,-183
-8,-46,-39,20,15,-48,-49,178,-41,-145,-363,-183
-2,-46,-45,20,21,-48,-49,178,-35,-145,-363,-189
-2,-46,-45,20,21,-48,-49,178,-35,-145,-363,-189
-2,-46,-51,20,21,-48,-49,178,-35,-145,-369,-189
-2,-46,-51,20,21,-48,-49,178,-35,-145,-375,-189
-2,-51,-51,26,26,-48,-49,178,-35,-145,-381,-189
-2,-51,-51,26,26,-48,-49,178,-35,-145,-387,-189
-8,-51,-51,26,21,-48,-49,178,-35,-139,-375,-189
-8,-51,-51,26,21,-48,-49,178,-35,-139,-369,-189
-14,-51,-45,32,15,-48,-49,178,-35,-133,-357,-189
-14,-51,-45,32,15,-48,-49,178,-35,-133,-351,-189
-8,-51,-51,26,21,-48,-55,184,-35,-139,-357,-189
-8,-51,-51,26,21,-48,-55,184,-35,-139,-363,-189
-2,-51,-51,26,26,-48,-61,190,-35,-145,-369,-189
-2,-51,-51,26,26,-48,-61,190,-35,-145,-375,-189
-2,-51,-51,26,26,-48,-61,190,-35,-139,-369,-189
-2,-51,-51,26,26,-48,-61,190,-35,-139,-369,-189
-2,-51,-51,26,26,-48,-61,190,-35,-133,-363,-189
-2,-51,-51,26,26,-48,-61,190,-35,-133,-363,-189
-2,-51,-51,26,26,-48,-61,190,-35,-139,-363,-195
-2,-51,-51,26,26,-48,-61,190,-35,-139,-363,-195
-2,-51,-51,26,26,-48,-61,190,-35,-145,-363,-201
-2,-51,-51,26,26,-48,-61,190,-35,-145,-363,-201
3,-46,-51,20,26,-48,-61,184,-35,-145,-369,-195
3,-46,-51,20,26,-48,-61,184,-35,-145,-369,-195
3,-46,-51,20,26,-48,-61,178,-35,-145,-375,-189
9,-46,-56,20,32,-48,-61,178,-35,-145,-375,-189
3,-46,-51,20,26,-48,-55,178,-35,-139,-369,-195
3,-46,-51,20,26,-48,-55,178,-35,-139,-363,-195
3,-46,-51,20,26,-48,-49,178,-35,-133,-357,-201
-2,-46,-45,20,21,-48,-49,178,-35,-133,-351,-201
3,-46,-51,20,26,-48,-55,178,-41,-139,-363,-207
3,-46,-51,20,26,-48,-55,178,-41,-145,-369,-207
3,-46,-51,20,26,-48,-61,178,-47,-151,-381,-213
3,-46,-51,20,26,-48,-61,178,-47,-157,-387,-213
3,-46,-51,20,26,-48,-61,184,-41,-151,-381,-207
3,-46,-51,20,26,-48,-61,184,-41,-151,-375,-207
3,-46,-51,20,26,-48,-61,190,-35,-145,-369,-201
3,-46,-51,20,26,-48,-61,190,-35,-145,-363,-201
3,-46,-45,20,26,-48,-61,190,-35,-145,-363,-207
3,-46,-45,20,26,-48,-61,190,-35,-145,-363,-207
-2,-40,-33,20,15,-36,-61,190,-35,-145,-363,-213
-2,-40,-33,20,15,-36,-61,190,-35,-145,-363,-213
3,-46,-45,20,26,-48,-61,178,-35,-145,-369,-213
3,-46,-51,20,26,-48,-61,166,-35,-145,-369,-213
3,-46,-51,20,26,-48,-61,148,-35,-145,-375,-213
9,-46,-56,20,32,-48,-61,136,-35,-145,-375,-213
3,-46,-51,20,26,-48,-55,118,-30,-139,-363,-207
3,-46,-51,20,26,-48,-55,100,-30,-139,-357,-207
3,-46,-51,20,26,-48,-49,82,-30,-133,-345,-201
-2,-46,-45,20,21,-48,-49,64,-30,-133,-339,-201
3,-46,-45,20,26,-48,-55,46,-30,-139,-351,-207
3,-46,-45,20,26,-48,-55,28,-30,-139,-363,-207
3,-40,-45,20,26,-42,-61,10,-35,-145,-375,-213
3,-40,-45,20,26,-42,-61,-8,-35,-145,-387,-213
3,-40,-51,20,26,-42,-61,-32,-35,-145,-381,-195
3,-40,-51,20,26,-42,-61,-50,-35,-145,-375,-177
9,-40,-51,15,26,-48,-61,-62,-35,-145,-369,-159
9,-40,-51,15,26,-48,-61,-79,-35,-145,-363,-141
3,-40,-51,20,26,-42,-61,-79,-35,-145,-363,-123
3,-40,-45,20,26,-42,-61,-79,-35,-145,-363,-105
3,-40,-39,20,21,-42,-61,-79,-35,-145,-363,-87
-2,-40,-33,20,15,-36,-61,-79,-35,-145,-363,-76
3,-46,-45,20,26,-48,-61,-62,-35,-145,-369,-76
3,-46,-51,20,26,-48,-61,-62,-35,-145,-369,-76
3,-46,-51,20,26,-48,-61,-44,-35,-145,-375,-76
9,-46,-56,20,32,-48,-61,-32,-35,-145,-375,-76
3,-46,-51,20,26,-48,-55,-14,-30,-139,-363,-76
3,-46,-51,20,26,-48,-55,-2,-30,-139,-357,-70
3,-46,-51,20,26,-48,-49,16,-30,-133,-345,-64
-2,-46,-45,20,21,-48,-49,28,-30,-133,-339,-58
3,-46,-45,20,26,-48,-55,28,-30,-139,-351,-58
3,-46,-45,20,26,-48,-55,28,-30,-139,-357,-58
3,-40,-45,20,26,-42,-61,28,-35,-145,-369,-58
3,-40,-45,20,26,-42,-61,28,-35,-145,-375,-58
3,-40,-51,20,26,-42,-61,40,-35,-145,-369,-58
3,-40,-51,20,26,-42,-61,46,-35,-145,-363,-58
9,-40,-51,15,26,-48,-61,58,-35,-145,-357,-58
9,-40,-51,15,26,-48,-61,64,-35,-145,-351,-58
3,-40,-51,20,26,-42,-61,70,-30,-145,-351,-52
3,-40,-51,20,26,-42,-61,76,-30,-145,-351,-52
3,-40,-45,20,26,-42,-61,82,-30,-145,-351,-46
3,-40,-45,20,26,-42,-61,88,-30,-145,-351,-46
3,-34,-45,15,26,-36,-61,94,-30,-151,-357,-46
9,-34,-51,15,26,-42,-61,94,-30,-151,-357,-46
15,-28,-51,9,26,-36,-61,100,-35,-157,-363,-46
21,-28,-51,3,32,-42,-61,100,-35,-157,-363,-46
15,-28,-51,9,26,-36,-55,106,-35,-151,-357,-40
9,-28,-45,9,26,-36,-55,112,-35,-145,-351,-40
3,-28,-39,15,26,-30,-49,118,-35,-139,-345,-34
3,-28,-33,15,21,-30,-49,124,-35,-133,-339,-34
3,-28,-39,15,26,-30,-55,118,-35,-139,-351,-34
9,-28,-45,9,26,-36,-55,118,-35,-139,-357,-34
15,-28,-51,9,26,-36,-61,112,-35,-145,-369,-34
21,-28,-51,3,32,-42,-61,112,-35,-145,-375,-34
21,-28,-51,3,32,-42,-67,118,-35,-145,-369,-34
21,-28,-51,3,32,-42,-67,118,-35,-145,-363,-34
21,-28,-51,3,32,-42,-67,124,-35,-145,-357,-34
21,-28,-51,3,32,-42,-67,124,-35,-145,-351,-34
15,-22,-45,3,26,-30,-67,124,-35,-139,-345,-34
15,-22,-45,3,26,-30,-67,124,-35,-139,-345,-34
9,-16,-33,3,26,-24,-61,124,-35,-133,-339,-34
9,-16,-33,3,26,-24,-61,124,-35,-133,-339,-34
15,-16,-39,3,26,-24,-67,118,-35,-139,-345,-34
21,-16,-45,-3,26,-30,-67,112,-35,-139,-345,-34
27,-16,-51,-3,32,-30,-67,106,-35,-145,-351,-34
33,-16,-51,-9,38,-36,-67,100,-35,-145,-351,-34
27,-22,-51,-3,38,-36,-67,100,-35,-139,-345,-28
21,-22,-51,3,32,-36,-67,100,-35,-139,-339,-28
15,-28,-51,9,26,-36,-67,100,-35,-133,-333,-22
9,-28,-45,9,26,-36,-67,100,-35,-133,-327,-22
15,-28,-51,9,26,-36,-67,94,-41,-139,-339,-28
15,-28,-51,9,26,-36,-67,88,-41,-139,-345,-28
21,-28,-51,3,32,-42,-67,82,-47,-145,-357,-34
21,-28,-51,3,32,-42,-67,76,-47,-145,-363,-34
21,-22,-51,3,32,-36,-67,70,-41,-145,-357,-28
21,-22,-51,3,32,-36,-67,70,-41,-145,-351,-28
21,-16,-45,-3,26,-30,-67,64,-35,-145,-345,-22
21,-16,-45,-3,26,-30,-67,64,-35,-145,-339,-22
21,-16,-45,-3,26,-30,-67,64,-41,-145,-339,-28
21,-16,-45,-3,26,-30,-67,64,-41,-145,-339,-28
21,-16,-45,-3,26,-30,-67,64,-47,-145,-339,-34
21,-16,-45,-3,26,-30,-67,64,-47,-145,-339,-34
27,-16,-51,-3,32,-30,-67,58,-47,-145,-345,-34
27,-16,-51,-3,32,-30,-67,58,-47,-145,-345,-34
33,-16,-51,-9,38,-36,-67,52,-47,-145,-351,-34
33,-16,-51,-9,38,-36,-67,52,-47,-145,-351,-34
27,-16,-51,-3,32,-30,-67,58,-41,-139,-345,-34
27,-16,-51,-3,32,-30,-67,58,-41,-139,-339,-34
21,-16,-45,-3,26,-30,-67,64,-35,-133,-333,-34
21,-16,-45,-3,26,-30,-67,64,-35,-133,-327,-34
21,-16,-45,-3,26,-30,-67,64,-35,-139,-333,-40
21,-16,-45,-3,26,-30,-67,64,-35,-139,-339,-40
21,-16,-45,-3,26,-30,-67,64,-35,-145,-345,-46
21,-16,-45,-3,26,-30,-67,64,-35,-145,-351,-46
27,-16,-51,-3,32,-30,-67,70,-35,-145,-345,-40
27,-16,-51,-3,32,-30,-67,70,-35,-145,-345,-40
33,-16,-51,-9,38,-36,-67,76,-35,-145,-339,-34
33,-16,-51,-9,38,-36,-67,76,-35,-145,-339,-34
27,-16,-51,-3,32,-30,-67,82,-35,-145,-339,-34
27,-16,-51,-3,32,-30,-67,82,-35,-145,-339,-34
21,-16,-45,-3,26,-30,-67,88,-35,-145,-339,-34
21,-16,-45,-3,26,-30,-67,88,-35,-145,-339,-34
27,-16,-51,-3,32,-30,-67,88,-35,-145,-345,-34
27,-16,-51,-3,32,-30,-67,88,-35,-145,-345,-34
33,-16,-51,-9,38,-36,-67,88,-35,-145,-351,-34
33,-16,-51,-9,38,-36,-67,88,-35,-145,-351,-34
27,-22,-51,-3,38,-36,-67,94,-35,-139,-345,-34
27,-22,-51,-3,38,-36,-67,100,-35,-139,-339,-34
21,-28,-51,3,32,-42,-67,106,-35,-133,-333,-34
21,-28,-51,3,32,-42,-67,112,-35,-133,-327,-34
15,-22,-45,3,26,-30,-67,118,-35,-133,-333,-34
15,-22,-45,3,26,-30,-67,118,-35,-133,-339,-34
9,-16,-33,3,26,-24,-67,124,-35,-133,-345,-34
9,-16,-33,3,26,-24,-67,124,-35,-133,-351,-34
15,-16,-39,3,26,-24,-67,130,-35,-133,-345,-34
15,-16,-39,3,26,-24,-67,130,-35,-133,-339,-34
21,-16,-45,-3,26,-30,-67,136,-35,-133,-333,-34
21,-16,-45,-3,26,-30,-67,136,-35,-133,-327,-34
21,-16,-45,-3,26,-30,-67,142,-35,-133,-333,-34
21,-16,-45,-3,26,-30,-67,148,-35,-133,-333,-34
21,-16,-45,-3,26,-30,-67,154,-35,-133,-339,-34
21,-16,-45,-3,26,-30,-67,160,-35,-133,-339,-34
21,-16,-45,-3,26,-30,-67,160,-30,-139,-345,-34
21,-16,-45,-3,26,-30,-67,160,-30,-139,-345,-34
21,-16,-45,-3,26,-30,-67,160,-30,-145,-351,-34
21,-16,-45,-3,26,-30,-67,160,-30,-145,-351,-34
21,-16,-45,-3,26,-30,-67,166,-30,-139,-339,-28
21,-16,-45,-3,26,-30,-67,166,-30,-139,-333,-28
21,-16,-45,-3,26,-30,-67,172,-30,-133,-321,-22
21,-16,-45,-3,26,-30,-67,172,-30,-133,-315,-22
21,-10,-39,-3,26,-24,-67,178,-30,-133,-327,-28
33,-10,-51,-9,38,-30,-67,178,-30,-133,-333,-28
33,-4,-45,-15,32,-24,-67,178,-30,-139,-345,-34
27,2,-33,-15,26,-12,-61,184,-30,-139,-351,-34
33,-4,-45,-15,32,-24,-61,178,-30,-133,-345,-28
45,-4,-51,-21,44,-30,-61,178,-30,-133,-339,-28
39,2,-45,-21,38,-18,-55,178,-30,-133,-327,-28
39,2,-45,-21,38,-18,-55,178,-24,-127,-321,-28
39,2,-45,-21,38,-18,-55,178,-18,-127,-315,-22
39,2,-45,-21,38,-18,-55,178,-18,-127,-321,-22
33,8,-33,-21,26,-12,-67,178,-18,-127,-315,-28
51,8,-51,-27,44,-18,-67,178,-24,-127,-315,-28
63,2,-56,-33,62,-30,-67,178,-30,-127,-321,-28
63,2,-56,-33,62,-30,-67,178,-30,-127,-321,-28
75,-4,-74,-33,74,-42,-67,178,-30,-127,-327,-28
87,-10,-92,-39,92,-48,-72,178,-30,-127,-321,-22
93,-4,-92,-45,92,-48,-72,178,-30,-121,-315,-22
93,-4,-92,-45,92,-48,-72,178,-24,-121,-315,-10
99,8,-86,-51,92,-42,-72,178,-18,-109,-291,-4
99,14,-80,-57,92,-36,-72,184,-12,-103,-291,-4
93,20,-68,-57,80,-30,-67,184,0,-91,-297,2
93,26,-62,-57,80,-24,-67,190,6,-85,-285,8
87,26,-56,-57,74,-18,-67,190,30,-73,-291,14
87,26,-56,-57,74,-18,-61,196,36,-67,-291,20
105,20,-80,-63,92,-36,-61,208,42,-55,-273,20
117,20,-92,-69,104,-42,-61,208,48,-55,-267,26
105,8,-92,-57,98,-48,-67,208,48,-55,-261,26
105,8,-92,-57,98,-48,-67,202,60,-43,-243,32
129,8,-116,-69,122,-48,-72,196,66,-43,-237,38
117,14,-98,-63,110,-48,-72,190,66,-37,-237,50
117,32,-80,-75,98,-30,-78,184,66,-37,-237,56
117,38,-74,-75,98,-24,-84,166,66,-37,-225,62
129,38,-86,-81,110,-30,-90,148,66,-32,-231,56
117,38,-74,-75,98,-24,-102,124,60,-32,-243,44
111,38,-68,-75,92,-18,-108,106,48,-43,-249,26
111,50,-56,-81,86,-6,-108,82,36,-55,-249,26
99,62,-45,-81,68,12,-102,52,12,-73,-261,14
93,50,-51,-69,68,0,-102,28,6,-73,-261,14
111,32,-74,-69,92,-24,-102,-2,0,-85,-261,14
117,20,-92,-69,104,-42,-102,-20,-6,-97,-273,14
111,8,-98,-57,104,-48,-96,-32,-12,-97,-279,8
111,-4,-110,-51,110,-48,-96,-50,-18,-91,-279,2
117,-10,-122,-51,122,-59,-96,-67,-18,-91,-285,-4
87,-10,-92,-39,92,-48,-96,-85,-18,-97,-285,-4
93,-10,-98,-39,98,-48,-96,-121,-18,-97,-279,2
99,-10,-104,-45,104,-48,-90,-151,-18,-97,-273,8
99,-10,-104,-45,104,-48,-90,-187,-18,-97,-267,14
75,-22,-92,-27,86,-48,-78,-211,-18,-103,-279,2
63,-22,-80,-21,74,-48,-72,-235,-18,-109,-285,-4
51,-22,-68,-15,62,-48,-67,-259,-24,-115,-291,-22
33,-16,-51,-9,38,-36,-67,-289,-30,-121,-309,-34
27,-28,-51,3,38,-42,-67,-319,-30,-127,-321,-46
21,-34,-51,9,38,-48,-67,-349,-30,-133,-327,-52
15,-40,-51,15,32,-48,-67,-379,-41,-145,-339,-64
9,-46,-56,20,32,-48,-67,-409,-41,-151,-339,-64
21,-46,-68,15,44,-53,-67,-433,-47,-157,-339,-70
15,-46,-62,20,38,-48,-78,-457,-47,-157,-339,-70
3,-46,-56,20,26,-48,-78,-487,-47,-157,-339,-64
27,-46,-80,15,50,-59,-84,-511,-47,-157,-339,-64
15,-46,-68,20,38,-53,-84,-535,-47,-157,-339,-64
9,-46,-56,20,32,-48,-78,-547,-47,-151,-345,-64
9,-46,-56,20,32,-48,-78,-565,-47,-151,-345,-64
3,-46,-51,20,26,-48,-78,-583,-47,-145,-351,-64
3,-46,-51,20,26,-48,-78,-601,-47,-145,-363,-70
3,-46,-51,20,26,-48,-72,-619,-47,-151,-357,-76
21,-46,-62,15,44,-48,-72,-631,-47,-145,-351,-76
9,-46,-51,20,32,-48,-72,-649,-35,-151,-345,-76
15,-46,-56,15,38,-48,-67,-667,-35,-151,-345,-76
9,-46,-51,20,32,-48,-67,-679,-35,-151,-339,-76
3,-46,-51,20,26,-48,-67,-691,-35,-151,-339,-76
3,-46,-51,20,26,-48,-67,-691,-35,-151,-339,-76
3,-46,-51,20,26,-48,-67,-703,-35,-151,-339,-76
15,-40,-51,15,32,-48,-67,-739,-30,-133,-333,-64
3,-28,-27,20,15,-30,-67,-745,-30,-145,-345,-76
3,-22,-33,9,26,-24,-67,-763,-12,-127,-345,-76
39,-28,-62,-3,50,-48,-78,-775,-6,-109,-309,-58
15,-22,-45,3,26,-30,-90,-793,18,-97,-285,-46
15,-10,-33,-3,26,-18,-108,-793,42,-49,-261,-28
51,-10,-56,-21,56,-36,-132,-805,90,4,-219,2
45,8,-45,-27,38,-18,-168,-829,156,94,-165,44
39,32,-15,-33,26,12,-234,-871,222,208,-105,92
99,38,-56,-69,80,-12,-306,-883,336,304,-45,146
159,50,-104,-105,134,-30,-372,-907,486,418,14,170
171,62,-104,-117,140,-24,-438,-943,654,502,20,170
213,62,-146,-135,182,-48,-492,-985,834,574,20,164
279,50,-230,-165,260,-83,-546,-1021,1008,640,20,140
315,50,-266,-183,290,-101,-648,-1147,1188,724,32,140
345,62,-284,-207,314,-101,-798,-1339,1338,826,56,158
399,92,-302,-243,350,-101,-894,-1441,1512,910,74,158
447,110,-332,-273,392,-107,-948,-1447,1704,976,56,146
483,134,-344,-303,416,-101,-978,-1495,1866,1042,56,152
579,212,-362,-399,476,-65,-1074,-1735,1962,1162,158,236
669,398,-272,-531,470,60,-1296,-2095,2075,1396,362,410
747,602,-146,-675,452,222,-1656,-2461,2219,1744,662,656
867,806,-56,-837,464,372,-2058,-2790,2428,2259,1070,968
975,1064,81,-1017,446,576,-2448,-3144,2626,2870,1550,1340
1023,1376,345,-1197,338,864,-2807,-3630,2710,3578,2131,1784
1095,1694,597,-1395,248,1152,-3191,-4194,2764,4424,2862,2352
1173,1970,795,-1569,188,1386,-3557,-4770,2764,5257,3648,2958
1125,2221,1095,-1677,21,1656,-3845,-5321,2680,6025,4368,3492
975,2442,1461,-1707,-237,1956,-4025,-5825,2369,6511,4871,3864
777,2616,1833,-1695,-519,2225,-4181,-6521,1284,6103,4943,3954
549,2676,2126,-1617,-783,2398,-4307,-7468,-785,4718,4572,3792
351,2532,2174,-1443,-909,2357,-4337,-8110,-2854,3152,4032,3516
297,2101,1797,-1197,-741,1950,-4109,-7846,-3622,2145,3516,3210
291,1502,1203,-897,-453,1356,-3707,-7049,-3448,1522,3036,2886
231,962,729,-597,-243,852,-3293,-6383,-3454,832,2556,2580
177,602,423,-387,-117,510,-2963,-5843,-3730,40,2042,2239
153,302,147,-225,9,222,-2561,-5201,-3760,-739,1394,1766
87,44,-51,-63,62,0,-2100,-4482,-3514,-1549,398,1004
3,-129,-140,56,68,-131,-1638,-3798,-3100,-2071,-567,272
9,-231,-248,104,128,-239,-1236,-3186,-2530,-1903,-867,-46
3,-297,-296,146,146,-299,-888,-2628,-1979,-1519,-879,-213
-68,-321,-254,194,86,-287,-636,-2215,-1577,-1333,-1011,-441
-68,-309,-242,188,80,-281,-474,-1921,-1283,-1153,-975,-471
-32,-291,-260,164,104,-281,-354,-1687,-1043,-919,-789,-363
-68,-261,-188,164,50,-227,-234,-1471,-839,-781,-735,-369
-98,-249,-146,170,26,-197,-132,-1309,-677,-691,-735,-399
-86,-237,-146,158,26,-191,-61,-1177,-533,-571,-645,-369
-98,-213,-110,152,9,-161,11,-1075,-413,-493,-609,-351
-116,-201,-80,158,-15,-143,71,-1009,-341,-445,-621,-345
-68,-177,-104,122,21,-143,101,-961,-269,-403,-591,-315
-38,-147,-104,92,26,-125,131,-913,-209,-349,-543,-285
-62,-123,-56,92,3,-89,161,-847,-137,-307,-531,-273
-62,-99,-45,80,-9,-65,173,-805,-107,-283,-501,-267
-38,-99,-56,68,15,-77,173,-787,-83,-277,-489,-249
-68,-93,-33,80,-21,-59,173,-775,-89,-289,-501,-261
-86,-93,-15,86,-39,-48,191,-757,-77,-295,-507,-261
-86,-99,-21,92,-33,-53,203,-751,-59,-295,-507,-267
-86,-105,-27,92,-33,-59,209,-733,-59,-301,-519,-291
-86,-111,-33,98,-27,-65,221,-721,-47,-301,-537,-309
-74,-123,-51,98,-9,-83,233,-715,-35,-307,-543,-309
-50,-123,-68,86,15,-95,233,-715,-35,-313,-543,-315
-74,-123,-51,98,-9,-83,245,-721,-30,-307,-537,-309
-74,-111,-45,92,-15,-71,251,-715,-30,-301,-537,-303
-68,-111,-51,86,-9,-77,257,-697,-18,-301,-525,-291
-86,-111,-33,98,-27,-65,257,-697,-12,-301,-525,-285
-86,-111,-33,98,-27,-65,251,-673,-6,-289,-525,-285
-86,-111,-33,98,-27,-65,251,-667,0,-289,-513,-285
-80,-105,-33,92,-27,-65,263,-667,6,-295,-525,-297
-80,-105,-33,92,-27,-65,263,-667,6,-295,-537,-303
-68,-99,-39,80,-15,-65,269,-673,6,-313,-543,-315
-62,-99,-45,80,-9,-65,275,-685,6,-319,-549,-315
-68,-99,-39,80,-15,-65,281,-679,12,-319,-561,-321
-68,-99,-39,80,-15,-65,281,-679,12,-319,-561,-321
-74,-93,-27,80,-27,-53,287,-667,18,-319,-549,-315
-86,-93,-15,86,-39,-48,293,-661,18,-319,-543,-315
-98,-99,-9,98,-45,-48,305,-661,24,-319,-537,-315
-86,-99,-21,92,-33,-53,305,-667,24,-319,-537,-315
-80,-105,-33,92,-27,-65,311,-673,30,-325,-543,-327
-92,-105,-21,98,-39,-59,317,-679,30,-331,-555,-333
-80,-105,-33,92,-27,-65,317,-679,24,-325,-555,-333
-74,-105,-39,86,-21,-65,317,-679,24,-337,-561,-339
-80,-105,-33,92,-27,-65,317,-679,24,-337,-555,-339
-86,-105,-27,92,-33,-59,323,-673,18,-337,-549,-339
-80,-99,-27,86,-27,-59,323,-667,24,-331,-537,-333
-92,-99,-15,92,-39,-53,335,-667,24,-331,-531,-327
-98,-99,-9,98,-45,-48,329,-667,30,-331,-531,-327
-86,-99,-21,92,-33,-53,329,-667,36,-331,-531,-333
-86,-99,-21,92,-33,-53,335,-649,30,-331,-531,-327
-86,-99,-21,92,-33,-53,341,-637,24,-331,-543,-339
-74,-99,-33,86,-21,-59,341,-625,18,-343,-543,-339
-74,-99,-33,86,-21,-59,341,-613,18,-343,-543,-339
-80,-93,-21,86,-33,-53,353,-571,24,-343,-543,-345
-80,-93,-21,86,-33,-53,359,-547,24,-343,-543,-339
-80,-93,-21,86,-33,-53,371,-505,30,-343,-537,-339
-86,-93,-15,86,-39,-48,377,-469,30,-343,-537,-339
-98,-93,-3,92,-51,-48,383,-445,24,-343,-537,-333
-86,-87,-9,86,-39,-48,383,-427,24,-337,-531,-333
-86,-87,-9,86,-39,-48,389,-403,18,-337,-531,-339
-92,-81,3,86,-51,-48,389,-385,18,-343,-537,-345
-98,-81,9,86,-57,-42,389,-355,24,-343,-543,-351
-80,-81,-9,80,-39,-48,401,-325,24,-343,-543,-351
-98,-75,15,86,-57,-36,395,-301,30,-343,-555,-351
-98,-75,15,86,-57,-36,395,-271,30,-343,-555,-351
-92,-75,9,80,-51,-42,407,-235,30,-349,-549,-345
-98,-69,21,80,-63,-30,413,-205,36,-349,-549,-345
-92,-69,15,80,-57,-36,413,-157,36,-343,-549,-351
-86,-75,3,80,-45,-42,419,-133,36,-343,-543,-351
-92,-69,15,80,-57,-36,431,-103,42,-343,-537,-351
-92,-63,21,74,-57,-30,431,-85,42,-343,-543,-351
-98,-57,33,74,-69,-18,437,-62,42,-343,-537,-351
-86,-57,21,68,-57,-24,443,-50,42,-343,-537,-357
-104,-51,45,74,-75,-12,455,-26,54,-343,-543,-363
-104,-46,51,74,-81,-6,461,-2,54,-337,-543,-363
-86,-46,33,62,-63,-12,467,22,60,-337,-543,-357
-104,-46,51,74,-81,-6,473,52,66,-337,-543,-357
-104,-51,45,74,-75,-12,479,76,60,-331,-543,-351
-104,-51,45,74,-75,-12,497,100,72,-319,-537,-351
-110,-57,45,80,-81,-12,497,124,66,-313,-537,-351
-110,-57,45,80,-81,-12,503,148,66,-313,-537,-351
-116,-51,57,80,-87,-6,521,172,72,-307,-537,-351
-104,-46,51,74,-81,-6,527,184,84,-307,-531,-357
-128,-46,87,80,-105,18,533,202,90,-307,-531,-357
-128,-40,93,74,-111,24,545,226,102,-301,-531,-357
-110,-40,75,68,-93,18,557,256,102,-289,-525,-351
-110,-40,75,68,-93,18,569,280,108,-283,-525,-357
-116,-40,81,68,-99,18,581,316,102,-277,-531,-363
-116,-40,81,68,-99,18,587,340,108,-271,-519,-369
-116,-34,87,68,-99,24,599,364,114,-271,-513,-363
-122,-28,99,68,-111,36,611,382,114,-271,-513,-363
-122,-28,99,68,-111,36,629,406,132,-265,-507,-357
-110,-28,87,62,-99,30,641,430,132,-253,-489,-357
-134,-28,111,74,-123,42,659,454,132,-247,-495,-363
-134,-22,117,68,-123,48,665,478,132,-241,-501,-357
-134,-28,111,74,-123,42,671,520,144,-229,-495,-363
-134,-22,117,68,-123,48,683,544,144,-223,-495,-363
-134,-16,123,68,-129,54,695,562,144,-211,-495,-357
-116,-10,111,56,-111,48,707,592,150,-205,-489,-351
-140,2,147,62,-141,72,707,616,156,-193,-483,-345
-158,2,165,68,-159,84,725,640,162,-187,-483,-345
-146,2,153,62,-147,78,737,664,168,-175,-477,-345
-146,2,153,62,-147,78,743,682,168,-175,-471,-339
-152,8,165,62,-159,84,755,706,174,-175,-465,-345
-152,14,171,62,-159,90,767,724,174,-163,-465,-327
-146,14,165,56,-153,90,767,742,180,-157,-453,-321
-146,14,165,56,-153,90,773,754,180,-151,-441,-321
-146,20,171,56,-159,96,773,772,180,-145,-441,-321
-134,20,159,50,-147,90,779,796,180,-139,-423,-315
-146,14,165,56,-153,90,791,820,186,-121,-411,-315
-158,20,183,62,-171,102,797,826,186,-115,-405,-315
-158,14,177,62,-165,96,803,838,192,-109,-381,-297
-158,20,183,62,-171,102,803,850,192,-97,-357,-297
-158,26,189,56,-171,108,821,868,198,-97,-351,-291
-158,26,189,56,-171,108,821,874,186,-85,-357,-273
-158,26,189,56,-171,108,827,886,186,-73,-351,-261
-164,26,189,62,-177,108,827,898,180,-73,-333,-243
-164,26,189,62,-177,108,821,904,168,-55,-321,-237
-152,32,189,50,-171,108,821,904,168,-43,-303,-225
-152,38,189,50,-171,114,815,910,156,-32,-279,-219
-164,44,207,50,-189,126,815,904,150,-32,-273,-213
-170,38,207,56,-189,126,821,904,150,-26,-243,-189
-158,32,189,56,-177,114,809,898,150,-8,-225,-183
-176,26,201,68,-189,114,815,904,138,4,-213,-165
-176,20,195,68,-189,108,809,886,132,16,-189,-135
-158,14,177,62,-165,96,791,874,120,28,-165,-123
-152,14,171,62,-159,90,785,856,108,46,-147,-111
-146,8,159,62,-153,84,767,832,96,58,-135,-105
-128,2,135,56,-129,66,755,814,84,82,-105,-87
-134,-4,135,62,-135,66,743,790,72,94,-69,-76
-140,-10,135,68,-135,60,725,772,60,112,-63,-70
-146,-16,135,74,-141,60,701,736,36,124,-33,-34
-146,-22,129,74,-135,54,677,700,24,148,-4,-4
-146,-22,129,74,-135,54,665,664,12,166,8,2
-134,-28,111,74,-123,42,653,634,0,190,44,32
-122,-40,87,74,-105,24,623,598,-24,208,74,56
-110,-46,63,74,-87,6,599,568,-30,226,104,80
-104,-46,57,68,-81,0,575,532,-47,244,122,104
-92,-46,39,68,-69,-12,551,490,-65,268,158,140
-104,-46,57,68,-81,0,521,454,-89,280,176,158
-104,-46,51,74,-81,-6,497,412,-101,298,194,170
-104,-51,45,74,-75,-12,467,364,-119,322,230,194
-92,-57,27,74,-63,-24,443,316,-131,334,260,218
-92,-63,21,74,-57,-30,425,268,-143,358,290,242
-86,-69,9,74,-51,-36,407,232,-161,388,320,272
-62,-81,-27,68,-21,-48,377,202,-179,394,356,290
-56,-87,-39,68,-9,-59,353,172,-191,412,368,308
-50,-93,-51,68,-3,-65,323,136,-209,430,380,314
-20,-105,-80,62,26,-95,305,106,-209,454,404,344
-26,-111,-80,68,26,-95,281,82,-215,472,428,356
-26,-111,-80,68,26,-95,263,52,-221,490,434,368
-26,-117,-86,68,26,-101,239,28,-221,508,452,398
-14,-117,-98,62,32,-107,215,4,-221,532,476,410
-14,-111,-92,62,32,-101,203,-14,-221,556,488,410
-8,-123,-110,62,44,-119,185,-38,-221,580,494,416
-2,-117,-110,56,44,-113,173,-62,-215,592,506,428
-2,-117,-110,56,44,-113,155,-62,-203,604,512,428
3,-117,-122,50,56,-119,137,-79,-197,622,506,434
15,-123,-146,44,80,-131,131,-91,-191,640,506,428
21,-129,-158,44,86,-143,113,-103,-191,652,500,434
15,-129,-152,50,80,-137,95,-103,-173,664,500,434
9,-123,-140,50,74,-131,83,-115,-161,670,512,434
27,-123,-158,38,92,-137,71,-127,-149,670,494,422
21,-111,-140,38,80,-125,59,-139,-137,670,482,410
21,-111,-140,38,80,-125,47,-139,-131,664,458,398
39,-111,-158,26,98,-131,41,-139,-125,652,458,386
45,-111,-164,26,104,-137,29,-139,-113,622,422,362
57,-111,-176,20,116,-143,17,-133,-113,592,404,338
75,-105,-188,20,128,-143,17,-133,-113,568,380,320
69,-99,-176,20,122,-137,5,-133,-107,550,356,308
63,-93,-164,20,110,-125,-1,-127,-107,520,320,278
63,-93,-164,20,110,-125,-13,-133,-101,490,290,260
57,-87,-152,20,104,-119,-13,-133,-101,472,260,242
51,-75,-134,20,92,-101,-25,-127,-101,436,230,212
63,-69,-140,9,98,-101,-31,-127,-89,400,194,188
69,-57,-134,3,98,-95,-37,-115,-83,370,170,164
69,-51,-128,-3,98,-89,-37,-109,-77,328,134,146
75,-46,-122,-9,98,-77,-43,-109,-77,298,104,122
81,-46,-122,-15,104,-77,-43,-103,-71,268,74,104
87,-40,-122,-21,104,-71,-43,-97,-71,238,50,74
75,-34,-104,-21,92,-59,-43,-73,-65,214,20,50
69,-34,-98,-15,86,-59,-43,-67,-53,202,2,44
69,-34,-98,-15,86,-59,-43,-62,-47,178,-4,26
63,-34,-92,-15,80,-53,-37,-62,-35,166,-39,2
63,-22,-80,-21,74,-48,-37,-62,-30,148,-57,-4
81,-16,-92,-33,86,-48,-37,-56,-30,124,-69,-22
63,-10,-68,-27,68,-42,-37,-50,-30,106,-87,-40
69,-10,-74,-27,74,-48,-37,-44,-30,82,-111,-58
75,-10,-80,-33,80,-48,-37,-32,-30,64,-117,-64
69,-4,-68,-33,68,-42,-31,-26,-30,52,-123,-64
51,-4,-51,-21,50,-30,-25,-14,-30,40,-141,-76
57,-4,-56,-27,56,-36,-19,-14,-18,40,-141,-76
69,2,-62,-33,68,-36,-13,-8,-18,40,-141,-76
51,8,-51,-27,44,-18,-19,4,-12,34,-159,-93
51,8,-51,-27,44,-18,-19,10,-12,28,-171,-99
75,8,-62,-39,68,-30,-25,22,-6,16,-183,-105
57,14,-51,-33,50,-18,-19,28,-6,10,-189,-105
57,8,-51,-33,50,-24,-19,34,0,-2,-195,-111
63,8,-51,-33,56,-24,-19,34,6,-8,-201,-117
63,2,-56,-33,62,-30,-13,46,12,-8,-207,-123
57,2,-51,-27,56,-30,-13,46,12,-14,-213,-129
51,2,-51,-27,50,-24,-13,52,18,-8,-207,-123
63,2,-56,-33,62,-30,-13,52,18,-8,-207,-123
39,8,-39,-21,32,-12,-13,58,24,-8,-213,-123
39,8,-39,-21,32,-12,-13,58,24,-14,-213,-123
51,8,-51,-27,44,-18,-19,64,24,-20,-219,-135
57,8,-51,-33,50,-24,-13,64,24,-20,-225,-135
51,8,-51,-27,44,-18,-19,64,24,-32,-231,-141
69,8,-56,-39,62,-30,-19,58,24,-32,-231,-141
63,14,-51,-39,56,-18,-13,64,30,-32,-225,-135
51,14,-45,-33,44,-12,-13,70,30,-32,-231,-141
45,26,-27,-33,32,0,-7,76,24,-32,-225,-135
57,26,-39,-39,44,-6,-7,76,24,-32,-231,-135
39,26,-21,-33,26,6,-7,76,24,-32,-243,-141
39,26,-21,-33,26,6,-7,70,24,-32,-243,-141
51,20,-39,-33,38,-6,-7,70,24,-32,-243,-141
33,20,-21,-27,26,0,-7,70,24,-37,-249,-153
39,26,-21,-33,26,6,-13,76,24,-37,-249,-147
51,26,-33,-39,38,0,-13,76,24,-37,-243,-147
57,32,-33,-45,38,0,-13,82,24,-32,-243,-141
39,32,-15,-33,26,12,-13,82,24,-32,-249,-141
45,26,-27,-33,32,0,-7,88,30,-37,-249,-141
45,26,-27,-33,32,0,-7,88,30,-37,-249,-141
39,20,-27,-27,26,0,-1,82,36,-43,-261,-141
39,20,-27,-27,26,0,-1,82,36,-43,-249,-141
45,20,-33,-33,32,-6,-7,82,30,-43,-249,-147
45,20,-33,-33,32,-6,-7,76,24,-43,-249,-153
57,20,-45,-39,44,-12,-13,76,18,-49,-255,-159
57,20,-45,-39,44,-12,-13,76,18,-49,-255,-153
51,20,-39,-33,38,-6,-7,82,24,-43,-249,-147
33,20,-21,-27,26,0,-7,82,30,-43,-249,-153
27,14,-21,-21,26,0,-1,88,36,-37,-243,-147
45,14,-39,-27,38,-12,-1,88,36,-37,-249,-147
27,14,-21,-21,26,0,-1,88,24,-37,-255,-159
27,14,-21,-21,26,0,-1,76,24,-37,-255,-159
33,14,-27,-21,26,-6,-7,76,12,-37,-267,-153
15,14,-9,-15,21,6,-7,76,12,-37,-267,-153
15,14,-9,-15,21,6,-7,76,18,-37,-261,-159
27,8,-27,-15,26,-6,-7,76,18,-37,-255,-159
27,8,-27,-15,26,-6,-1,76,24,-37,-249,-165
21,8,-21,-15,26,-6,-1,76,24,-37,-249,-159
21,8,-21,-15,26,-6,-1,82,24,-37,-243,-153
21,2,-27,-9,26,-12,5,82,24,-37,-243,-159
9,2,-15,-3,21,-6,5,82,24,-43,-255,-153
9,2,-15,-3,21,-6,5,76,24,-37,-255,-153
21,2,-27,-9,26,-12,-1,76,18,-37,-261,-159
21,2,-27,-9,26,-12,-1,70,6,-43,-261,-159
27,2,-33,-15,26,-12,-7,64,0,-49,-267,-159
27,2,-33,-15,26,-12,-13,64,0,-49,-249,-159
21,2,-27,-9,26,-12,-7,64,-6,-43,-255,-159
21,2,-27,-9,26,-12,-7,64,-12,-43,-261,-153
15,2,-21,-9,26,-6,-1,64,-18,-37,-243,-153
15,2,-21,-9,26,-6,-1,58,-18,-37,-243,-159
9,8,-9,-9,15,0,-7,64,-30,-37,-249,-159
9,2,-15,-3,21,-6,-13,58,-30,-43,-261,-159
15,8,-15,-9,21,0,-19,52,-30,-43,-273,-159
15,14,-9,-15,21,6,-19,52,-30,-43,-279,-159
15,8,-15,-9,21,0,-13,46,-30,-49,-267,-159
15,2,-21,-9,26,-6,-19,46,-30,-49,-261,-159
9,-4,-21,-3,21,-12,-13,46,-30,-49,-255,-159
9,-4,-21,-3,21,-12,-7,46,-30,-43,-255,-159
15,2,-21,-9,26,-6,-13,46,-30,-49,-255,-159
27,2,-33,-15,26,-12,-13,46,-30,-49,-255,-159
9,8,-9,-9,15,0,-19,46,-30,-49,-255,-159
3,8,3,-3,3,6,-25,46,-30,-49,-255,-159
21,2,-27,-9,26,-12,-19,46,-30,-49,-261,-159
21,2,-27,-9,26,-12,-19,40,-35,-55,-267,-159
15,-4,-27,-3,26,-12,-13,34,-41,-55,-273,-159
27,-4,-39,-9,26,-18,-13,34,-41,-55,-279,-165
21,-4,-33,-9,26,-18,-19,34,-41,-61,-273,-159
21,-4,-33,-9,26,-18,-19,28,-41,-61,-267,-159
21,-10,-39,-3,26,-24,-25,28,-41,-67,-261,-153
33,-10,-51,-9,38,-30,-31,28,-41,-73,-261,-153
21,-10,-39,-3,26,-24,-37,28,-41,-73,-273,-159
21,-10,-39,-3,26,-24,-31,28,-41,-79,-279,-159
27,-10,-45,-9,32,-24,-37,28,-41,-79,-285,-171
27,-10,-45,-9,32,-24,-37,28,-41,-79,-285,-171
27,-10,-45,-9,32,-24,-31,34,-41,-85,-279,-165
39,-10,-51,-15,44,-30,-37,34,-41,-85,-279,-165
27,-10,-45,-9,32,-24,-31,34,-41,-85,-273,-159
27,-10,-45,-9,32,-24,-31,34,-41,-91,-273,-153
27,-10,-45,-9,32,-24,-31,34,-35,-91,-273,-159
27,-10,-45,-9,32,-24,-37,34,-35,-91,-273,-165
9,-10,-27,3,26,-18,-37,34,-41,-97,-291,-171
9,-10,-27,3,26,-18,-37,34,-41,-97,-291,-171
21,-10,-39,-3,26,-24,-43,34,-35,-103,-291,-177
27,-10,-45,-9,32,-24,-43,34,-35,-103,-291,-177
33,-16,-51,-9,38,-36,-55,34,-41,-103,-297,-171
45,-16,-56,-15,50,-42,-55,34,-41,-103,-297,-171
39,-16,-51,-9,44,-36,-55,34,-41,-103,-291,-171
39,-16,-51,-9,44,-36,-49,34,-41,-103,-285,-165
33,-16,-51,-9,38,-36,-49,34,-41,-103,-279,-165
33,-16,-51,-9,38,-36,-55,34,-41,-103,-273,-171
27,-22,-51,-3,38,-36,-49,34,-47,-109,-285,-177
27,-22,-51,-3,38,-36,-49,34,-47,-109,-285,-177
45,-28,-68,-9,56,-48,-43,34,-47,-109,-291,-177
45,-28,-68,-9,56,-48,-43,40,-41,-109,-291,-177
39,-28,-62,-3,50,-48,-43,34,-47,-109,-291,-177
45,-28,-68,-9,56,-48,-49,34,-47,-109,-285,-171
39,-28,-62,-3,50,-48,-49,28,-53,-109,-285,-177
33,-28,-56,-3,44,-48,-49,28,-53,-109,-285,-177
33,-28,-56,-3,44,-48,-49,28,-53,-109,-285,-171
33,-28,-56,-3,44,-48,-49,34,-53,-115,-285,-171
27,-28,-51,3,38,-42,-49,40,-47,-115,-303,-171
27,-28,-51,3,38,-42,-49,40,-41,-115,-285,-165
39,-28,-62,-3,50,-48,-55,34,-41,-121,-285,-177
39,-28,-62,-3,50,-48,-55,34,-41,-121,-285,-177
45,-28,-68,-9,56,-48,-61,34,-41,-127,-285,-177
51,-28,-74,-9,62,-48,-61,34,-41,-127,-279,-171
51,-28,-74,-9,62,-48,-61,34,-41,-127,-279,-171
33,-28,-56,-3,44,-48,-61,34,-41,-127,-291,-171
45,-28,-68,-9,56,-48,-61,40,-47,-121,-279,-171
57,-28,-80,-15,68,-48,-61,40,-53,-121,-279,-177
33,-28,-56,-3,44,-48,-61,34,-47,-127,-285,-177
33,-28,-56,-3,44,-48,-61,34,-47,-127,-285,-177
45,-28,-68,-9,56,-48,-61,28,-41,-127,-291,-171
45,-28,-68,-9,56,-48,-61,28,-41,-127,-291,-171
45,-28,-68,-9,56,-48,-67,28,-47,-133,-291,-177
57,-28,-80,-15,68,-48,-67,28,-47,-133,-291,-177
45,-28,-68,-9,56,-48,-61,34,-53,-139,-291,-183
45,-28,-68,-9,56,-48,-61,34,-53,-139,-291,-183
39,-28,-62,-3,50,-48,-61,34,-47,-133,-291,-183
39,-28,-62,-3,50,-48,-67,34,-47,-133,-291,-183
33,-28,-56,-3,44,-48,-67,34,-41,-127,-297,-183
33,-28,-56,-3,44,-48,-61,34,-41,-133,-297,-183
39,-28,-62,-3,50,-48,-67,34,-41,-139,-297,-183
39,-28,-62,-3,50,-48,-67,34,-41,-139,-303,-183
45,-28,-68,-9,56,-48,-67,34,-41,-145,-303,-183
45,-28,-68,-9,56,-48,-67,34,-35,-145,-297,-183
45,-28,-68,-9,56,-48,-67,34,-35,-139,-297,-177
33,-28,-56,-3,44,-48,-67,40,-35,-139,-297,-183
45,-34,-74,-3,62,-48,-67,40,-41,-133,-291,-177
45,-34,-74,-3,62,-48,-67,40,-47,-133,-291,-177
33,-28,-56,-3,44,-48,-67,46,-47,-139,-315,-183
33,-28,-56,-3,44,-48,-61,46,-47,-139,-303,-183
33,-28,-56,-3,44,-48,-61,52,-41,-145,-309,-189
33,-28,-56,-3,44,-48,-61,52,-35,-151,-315,-189
27,-22,-51,-3,38,-36,-61,52,-41,-151,-315,-189
39,-28,-62,-3,50,-48,-61,52,-35,-151,-309,-189
45,-22,-62,-9,56,-48,-61,52,-41,-151,-309,-189
45,-22,-62,-9,56,-48,-61,52,-41,-151,-309,-189
39,-28,-62,-3,50,-48,-61,52,-41,-151,-303,-189
57,-28,-80,-15,68,-48,-67,52,-41,-151,-303,-189
33,-34,-62,3,50,-48,-67,52,-35,-151,-309,-189
21,-34,-51,9,38,-48,-61,52,-35,-151,-309,-189
39,-34,-68,-3,56,-48,-61,58,-41,-145,-309,-195
39,-34,-68,-3,56,-48,-61,58,-35,-145,-309,-195
33,-34,-62,3,50,-48,-61,58,-41,-145,-309,-201
45,-34,-74,-3,62,-48,-61,52,-41,-145,-303,-201
75,-34,-104,-21,92,-59,-67,64,-41,-145,-297,-189
39,-22,-56,-9,50,-42,-55,64,-41,-145,-303,-189
45,-28,-68,-9,56,-48,-61,52,-35,-145,-303,-177
39,-28,-62,-3,50,-48,-61,58,-41,-145,-309,-183
39,-28,-62,-3,50,-48,-61,58,-41,-145,-309,-183
33,-28,-56,-3,44,-48,-61,64,-47,-145,-315,-189
33,-28,-56,-3,44,-48,-61,64,-47,-145,-315,-189
39,-28,-62,-3,50,-48,-61,58,-47,-145,-315,-195
39,-28,-62,-3,50,-48,-61,58,-47,-145,-315,-195
45,-28,-68,-9,56,-48,-61,52,-47,-145,-315,-201
45,-28,-68,-9,56,-48,-61,52,-47,-145,-315,-201
45,-34,-74,-3,62,-48,-67,52,-47,-151,-315,-201
45,-34,-74,-3,62,-48,-67,52,-47,-151,-315,-201
45,-40,-80,-3,62,-53,-67,52,-47,-157,-315,-201
45,-40,-80,-3,62,-53,-67,52,-47,-157,-315,-201
39,-40,-74,3,56,-48,-67,58,-41,-157,-321,-207
33,-40,-68,3,50,-48,-67,58,-41,-157,-321,-207
27,-40,-62,9,44,-48,-61,64,-35,-157,-327,-213
21,-40,-56,9,38,-48,-61,64,-35,-157,-327,-213
33,-34,-62,3,50,-48,-67,58,-41,-157,-321,-213
39,-34,-68,-3,56,-48,-67,58,-47,-157,-321,-213
51,-28,-74,-9,62,-48,-67,52,-53,-157,-315,-213
57,-28,-80,-15,68,-48,-67,52,-59,-157,-315,-213
51,-34,-80,-9,68,-48,-67,58,-53,-151,-321,-213
51,-34,-80,-9,68,-48,-67,58,-53,-151,-321,-213
45,-40,-80,-3,62,-53,-61,64,-47,-145,-327,-213
45,-40,-80,-3,62,-53,-61,64,-47,-145,-327,-213
45,-40,-80,-3,62,-53,-61,64,-47,-151,-327,-213
45,-40,-80,-3,62,-53,-61,64,-47,-151,-327,-213
45,-40,-80,-3,62,-53,-61,64,-47,-157,-327,-213
45,-40,-80,-3,62,-53,-61,64,-47,-157,-327,-213
45,-40,-80,-3,62,-53,-61,58,-53,-157,-321,-207
45,-40,-80,-3,62,-53,-61,58,-53,-157,-321,-207
45,-40,-80,-3,62,-53,-61,52,-59,-157,-315,-201
45,-40,-80,-3,62,-53,-61,52,-59,-157,-315,-201
39,-40,-74,3,56,-48,-61,58,-53,-163,-321,-207
33,-40,-68,3,50,-48,-61,58,-53,-163,-321,-207
27,-40,-62,9,44,-48,-61,64,-47,-169,-327,-213
21,-40,-56,9,38,-48,-61,64,-47,-169,-327,-213
33,-40,-68,3,50,-48,-67,64,-47,-163,-321,-213
39,-40,-74,3,56,-48,-67,64,-47,-163,-321,-213
51,-40,-86,-3,68,-53,-67,64,-47,-157,-315,-213
57,-40,-92,-9,74,-59,-67,64,-47,-157,-315,-213
51,-40,-86,-3,68,-53,-67,64,-47,-163,-321,-213
51,-40,-86,-3,68,-53,-67,64,-47,-163,-321,-213
45,-40,-80,-3,62,-53,-61,64,-47,-169,-327,-213
45,-40,-80,-3,62,-53,-61,64,-47,-169,-327,-213
45,-40,-80,-3,62,-53,-61,70,-53,-169,-333,-213
45,-40,-80,-3,62,-53,-61,70,-53,-169,-333,-213
45,-40,-80,-3,62,-53,-61,76,-59,-169,-339,-213
45,-40,-80,-3,62,-53,-61,76,-59,-169,-339,-213
45,-40,-80,-3,62,-53,-61,76,-53,-169,-333,-213
45,-40,-80,-3,62,-53,-61,76,-53,-169,-333,-213
45,-40,-80,-3,62,-53,-61,76,-47,-169,-327,-213
45,-40,-80,-3,62,-53,-61,76,-47,-169,-327,-213
39,-40,-74,3,56,-48,-61,76,-47,-175,-333,-213
39,-40,-74,3,56,-48,-61,76,-47,-175,-333,-213
33,-40,-68,3,50,-48,-61,76,-47,-181,-339,-213
33,-40,-68,3,50,-48,-61,76,-47,-181,-339,-213
39,-40,-74,3,56,-48,-67,76,-47,-181,-333,-213
39,-40,-74,3,56,-48,-67,76,-47,-181,-333,-213
45,-40,-80,-3,62,-53,-67,76,-47,-181,-327,-213
45,-40,-80,-3,62,-53,-67,76,-47,-181,-327,-213
39,-40,-74,3,56,-48,-67,82,-47,-181,-327,-213
39,-40,-74,3,56,-48,-61,82,-47,-181,-327,-213
33,-40,-68,3,50,-48,-55,88,-47,-181,-327,-213
33,-40,-68,3,50,-48,-49,88,-47,-181,-327,-213
39,-40,-74,3,56,-48,-55,82,-47,-181,-333,-213
39,-40,-74,3,56,-48,-55,82,-47,-181,-333,-213
45,-40,-80,-3,62,-53,-61,76,-47,-181,-339,-213
45,-40,-80,-3,62,-53,-61,76,-47,-181,-339,-213
45,-40,-80,-3,62,-53,-55,76,-47,-175,-333,-213
45,-40,-80,-3,62,-53,-55,76,-47,-175,-333,-213
45,-40,-80,-3,62,-53,-49,76,-47,-169,-327,-213
45,-40,-80,-3,62,-53,-49,76,-47,-169,-327,-213
39,-40,-74,3,56,-48,-49,76,-47,-175,-333,-219
39,-40,-74,3,56,-48,-49,76,-47,-175,-339,-219
33,-40,-68,3,50,-48,-49,76,-47,-181,-345,-225
33,-40,-68,3,50,-48,-49,76,-47,-181,-351,-225
39,-40,-74,3,56,-48,-55,76,-47,-187,-345,-219
45,-40,-80,-3,62,-53,-55,76,-47,-187,-339,-219
51,-40,-86,-3,68,-53,-61,76,-47,-193,-333,-213
57,-40,-92,-9,74,-59,-61,76,-47,-193,-327,-213
51,-40,-86,-3,68,-53,-55,82,-41,-193,-333,-219
51,-40,-86,-3,68,-53,-55,82,-41,-193,-333,-219
45,-40,-80,-3,62,-53,-49,88,-35,-193,-339,-225
45,-40,-80,-3,62,-53,-49,88,-35,-193,-339,-225
51,-34,-80,-9,68,-48,-49,88,-41,-193,-339,-219
51,-34,-80,-9,68,-48,-49,88,-41,-193,-339,-219
57,-28,-80,-15,68,-48,-49,88,-47,-193,-339,-213
57,-28,-80,-15,68,-48,-49,88,-47,-193,-339,-213
63,-28,-86,-15,74,-48,-49,88,-47,-193,-333,-213
63,-28,-86,-15,74,-48,-49,88,-47,-193,-333,-213
69,-28,-92,-21,80,-53,-49,88,-47,-193,-327,-213
69,-28,-92,-21,80,-53,-49,88,-47,-193,-327,-213
63,-28,-86,-15,74,-48,-43,88,-41,-193,-333,-213
57,-28,-80,-15,68,-48,-43,88,-41,-193,-333,-213
51,-28,-74,-9,62,-48,-37,88,-35,-193,-339,-213
45,-28,-68,-9,56,-48,-37,88,-35,-193,-339,-213
51,-28,-74,-9,62,-48,-43,88,-41,-193,-339,-213
57,-28,-80,-15,68,-48,-43,88,-41,-193,-339,-213
63,-28,-86,-15,74,-48,-49,88,-47,-193,-339,-213
69,-28,-92,-21,80,-53,-49,88,-47,-193,-339,-213
63,-28,-86,-15,74,-48,-43,88,-41,-199,-339,-213
57,-28,-80,-15,68,-48,-43,88,-41,-199,-339,-213
51,-28,-74,-9,62,-48,-37,88,-35,-205,-339,-213
45,-28,-68,-9,56,-48,-37,88,-35,-205,-339,-213
51,-28,-74,-9,62,-48,-37,88,-41,-205,-339,-213
51,-28,-74,-9,62,-48,-37,88,-41,-205,-339,-213
57,-28,-80,-15,68,-48,-37,88,-47,-205,-339,-213
57,-28,-80,-15,68,-48,-37,88,-47,-205,-339,-213
63,-34,-92,-15,80,-53,-37,88,-41,-199,-333,-207
63,-34,-92,-15,80,-53,-37,88,-41,-199,-333,-207
69,-40,-104,-15,86,-65,-37,88,-35,-193,-327,-201
69,-40,-104,-15,86,-65,-37,88,-35,-193,-327,-201
57,-40,-92,-9,74,-59,-31,94,-35,-193,-333,-207
51,-40,-86,-3,68,-53,-31,94,-35,-193,-333,-207
39,-40,-74,3,56,-48,-25,100,-35,-193,-339,-213
33,-40,-68,3,50,-48,-25,100,-35,-193,-339,-213
45,-34,-74,-3,62,-48,-31,100,-35,-199,-333,-201
51,-34,-80,-9,68,-48,-31,100,-35,-199,-333,-195
63,-28,-86,-15,74,-48,-37,100,-35,-205,-327,-183
69,-28,-92,-21,80,-53,-37,100,-35,-205,-327,-177
63,-28,-86,-15,74,-48,-37,100,-35,-205,-327,-171
63,-28,-86,-15,74,-48,-37,100,-35,-205,-327,-171
57,-28,-80,-15,68,-48,-37,100,-35,-205,-327,-165
57,-28,-80,-15,68,-48,-37,100,-35,-205,-327,-165
57,-28,-80,-15,68,-48,-37,100,-35,-199,-321,-165
57,-28,-80,-15,68,-48,-37,100,-35,-199,-321,-165
57,-28,-80,-15,68,-48,-37,100,-35,-193,-315,-165
57,-28,-80,-15,68,-48,-37,100,-35,-193,-315,-165
63,-28,-86,-15,74,-48,-37,100,-35,-199,-321,-165
69,-28,-92,-21,80,-53,-37,100,-35,-199,-321,-165
75,-28,-98,-21,86,-53,-37,100,-35,-205,-327,-165
81,-28,-104,-27,92,-59,-37,100,-35,-205,-327,-165
69,-28,-92,-21,80,-53,-31,106,-30,-205,-321,-165
63,-28,-86,-15,74,-48,-31,106,-30,-205,-321,-165
51,-28,-74,-9,62,-48,-25,112,-30,-205,-315,-165
45,-28,-68,-9,56,-48,-25,112,-30,-205,-315,-165
51,-28,-74,-9,62,-48,-31,112,-30,-205,-321,-159
57,-28,-80,-15,68,-48,-31,112,-35,-205,-321,-159
63,-28,-86,-15,74,-48,-37,112,-41,-205,-327,-153
69,-28,-92,-21,80,-53,-37,112,-47,-205,-327,-153
63,-28,-86,-15,74,-48,-31,118,-41,-199,-321,-141
63,-28,-86,-15,74,-48,-31,118,-41,-199,-315,-135
57,-28,-80,-15,68,-48,-25,124,-35,-193,-309,-123
57,-28,-80,-15,68,-48,-25,124,-35,-193,-303,-117
63,-28,-86,-15,74,-48,-31,118,-35,-199,-309,-117
63,-28,-86,-15,74,-48,-31,118,-35,-199,-315,-117
69,-28,-92,-21,80,-53,-37,118,-30,-205,-321,-117
81,-28,-104,-27,92,-59,-37,118,-30,-205,-327,-117
81,-22,-98,-27,92,-53,-31,124,-30,-205,-321,-117
75,-16,-86,-27,80,-48,-25,130,-30,-205,-315,-117
75,-10,-80,-33,80,-48,-25,130,-30,-193,-309,-111
87,-10,-92,-39,92,-48,-25,130,-30,-193,-297,-111
69,2,-62,-33,68,-36,-19,142,-30,-193,-297,-111
63,2,-56,-33,62,-30,-19,142,-30,-187,-291,-111
63,2,-56,-33,62,-30,-19,142,-18,-187,-297,-105
57,2,-51,-27,56,-30,-19,136,-18,-187,-303,-105
63,8,-51,-33,56,-24,-37,130,-24,-193,-309,-117
87,8,-74,-45,80,-36,-43,130,-30,-193,-309,-117
105,8,-92,-57,98,-48,-55,124,-30,-199,-315,-123
111,8,-98,-57,104,-48,-55,130,-35,-199,-315,-123
117,2,-110,-57,116,-48,-55,136,-30,-193,-309,-123
123,-4,-122,-57,122,-53,-61,136,-30,-193,-297,-117
117,-10,-122,-51,122,-59,-61,142,-30,-181,-291,-117
111,-10,-116,-51,116,-53,-61,142,-24,-181,-285,-105
117,-4,-116,-57,116,-53,-55,148,-18,-169,-273,-99
123,2,-116,-63,122,-48,-55,160,-12,-163,-279,-99
129,8,-116,-69,122,-48,-43,172,-6,-157,-285,-93
135,14,-116,-75,128,-48,-43,178,0,-151,-279,-87
135,20,-110,-75,122,-48,-37,178,18,-145,-273,-87
135,20,-110,-75,122,-48,-25,184,24,-139,-267,-81
153,26,-122,-87,140,-48,-25,202,30,-127,-249,-87
165,26,-134,-93,152,-48,-25,208,36,-127,-243,-81
141,14,-122,-75,134,-48,-31,214,36,-127,-243,-76
135,14,-116,-75,128,-48,-43,214,48,-115,-231,-76
147,8,-134,-75,140,-53,-49,214,54,-109,-225,-70
129,14,-110,-69,122,-48,-49,214,54,-103,-225,-58
141,32,-104,-87,122,-42,-55,214,54,-103,-231,-52
147,38,-104,-93,128,-36,-61,196,54,-103,-219,-46
177,38,-134,-105,158,-48,-67,190,54,-109,-225,-46
171,38,-128,-105,152,-48,-67,178,48,-109,-243,-58
165,38,-122,-99,146,-48,-67,178,36,-121,-237,-70
165,50,-110,-105,140,-36,-67,172,24,-133,-237,-70
141,62,-74,-99,110,-12,-67,166,6,-139,-243,-76
129,50,-74,-87,104,-18,-67,160,0,-139,-243,-76
141,32,-104,-87,122,-42,-67,142,-6,-145,-243,-70
141,20,-116,-81,128,-48,-67,136,-12,-157,-255,-70
141,14,-122,-75,134,-48,-61,142,-24,-157,-261,-70
147,2,-140,-75,146,-59,-61,136,-30,-151,-261,-76
165,-4,-164,-81,164,-77,-67,136,-30,-151,-255,-76
147,-4,-146,-69,146,-65,-67,136,-30,-157,-255,-76
153,-10,-158,-69,158,-77,-67,142,-30,-157,-249,-76
159,-10,-164,-75,164,-77,-61,142,-30,-157,-243,-70
141,-4,-140,-69,140,-65,-49,142,-24,-151,-243,-64
105,-16,-116,-45,110,-59,-37,148,-18,-157,-255,-76
87,-16,-98,-33,92,-48,-25,154,-12,-157,-261,-76
69,-16,-80,-27,74,-48,-19,154,-12,-163,-267,-81
69,-16,-80,-27,74,-48,-25,154,-24,-175,-291,-93
69,-28,-92,-21,80,-53,-25,142,-30,-187,-303,-105
81,-28,-104,-27,92,-59,-31,142,-30,-199,-315,-111
81,-34,-110,-21,98,-65,-31,136,-41,-217,-327,-123
69,-46,-110,-9,92,-71,-25,142,-35,-217,-321,-123
75,-46,-116,-15,98,-71,-25,142,-41,-223,-315,-129
51,-46,-98,3,74,-65,-25,148,-35,-217,-309,-129
33,-46,-86,15,56,-65,-25,142,-35,-217,-303,-123
51,-46,-98,3,74,-65,-25,136,-35,-217,-309,-129
39,-46,-86,9,62,-59,-25,136,-35,-217,-315,-129
39,-46,-80,3,62,-53,-25,130,-35,-217,-321,-135
39,-46,-80,3,62,-53,-25,130,-35,-217,-327,-135
45,-46,-92,3,68,-65,-31,130,-41,-217,-321,-129
45,-46,-98,9,68,-71,-31,130,-41,-217,-333,-135
51,-51,-110,9,80,-77,-25,130,-47,-217,-327,-129
69,-46,-122,-3,92,-83,-25,136,-47,-211,-321,-129
45,-46,-98,9,68,-71,-19,142,-30,-211,-321,-129
39,-46,-92,9,62,-65,-13,148,-30,-211,-321,-129
33,-46,-86,15,56,-65,-7,154,-30,-211,-315,-129
21,-46,-74,20,44,-59,-7,160,-30,-211,-315,-123
33,-46,-86,15,56,-65,-7,160,-30,-211,-339,-135
63,-46,-104,-9,86,-65,-19,160,-35,-223,-327,-135
39,-40,-74,3,56,-48,-19,160,-35,-217,-345,-135
51,-40,-86,-3,68,-53,-19,166,-30,-205,-333,-135
75,-34,-104,-21,92,-59,-19,172,-30,-187,-297,-123
27,-28,-51,3,38,-42,-7,172,-18,-181,-285,-105
15,-22,-45,3,26,-30,-19,166,6,-157,-285,-93
39,-22,-56,-9,50,-42,-25,160,30,-109,-243,-76
39,-22,-56,-9,50,-42,-49,148,90,-55,-207,-58
21,-16,-45,-3,26,-30,-67,148,144,-2,-177,-28
75,-4,-74,-33,74,-42,-114,118,210,100,-117,8
147,26,-116,-87,134,-48,-186,94,300,190,-45,62
171,38,-128,-105,152,-48,-270,82,420,274,-9,80
207,50,-152,-129,182,-48,-330,70,558,376,20,104
225,50,-170,-135,200,-53,-372,40,738,478,56,104
225,38,-182,-129,206,-65,-402,4,918,532,20,68
267,26,-242,-147,260,-101,-462,-67,1086,598,8,56
345,26,-314,-189,332,-137,-594,-253,1242,700,44,74
387,56,-326,-219,356,-131,-720,-421,1410,778,50,86
423,86,-332,-249,380,-119,-774,-463,1590,838,8,62
501,86,-416,-291,464,-161,-798,-451,1758,880,8,56
579,122,-458,-351,518,-161,-852,-547,1884,946,38,86
633,254,-374,-447,506,-53,-996,-841,1968,1090,152,176
735,446,-290,-591,512,78,-1284,-1231,2081,1372,392,386
855,656,-200,-753,524,222,-1674,-1561,2255,1804,764,674
921,890,-39,-903,476,432,-2058,-1891,2470,2367,1202,1022
975,1166,183,-1071,398,678,-2412,-2305,2608,3002,1706,1418
1083,1472,387,-1275,344,930,-2777,-2844,2668,3782,2395,1964
1161,1772,609,-1461,272,1188,-3161,-3426,2680,4634,3186,2586
1161,2035,873,-1599,140,1452,-3503,-4008,2626,5425,3942,3174
1131,2269,1137,-1695,3,1704,-3767,-4536,2482,6109,4644,3690
975,2472,1491,-1725,-249,1986,-3959,-5093,1950,6247,5027,3978
705,2622,1911,-1665,-603,2267,-4109,-5921,456,5305,4871,3942
483,2604,2120,-1539,-813,2363,-4217,-6821,-1709,3692,4404,3738
369,2323,1947,-1347,-783,2141,-4145,-7061,-3208,2355,3894,3480
291,1820,1521,-1053,-609,1668,-3821,-6485,-3448,1546,3342,3132
231,1256,1023,-741,-393,1146,-3413,-5723,-3352,868,2802,2790
213,812,597,-507,-189,702,-3053,-5153,-3592,124,2323,2472
177,500,321,-339,-69,414,-2693,-4572,-3796,-595,1778,2083
123,218,93,-171,21,162,-2274,-3852,-3646,-1303,926,1436
87,-22,-104,-33,98,-53,-1824,-3120,-3286,-1981,-159,602
57,-159,-224,44,140,-191,-1386,-2461,-2788,-2137,-807,38
15,-243,-266,104,140,-251,-996,-1855,-2219,-1765,-879,-165
-8,-285,-278,146,128,-287,-696,-1345,-1739,-1477,-957,-393
-20,-309,-290,164,128,-299,-498,-985,-1403,-1315,-1023,-531
-56,-291,-236,176,80,-269,-342,-727,-1151,-1093,-885,-471
-68,-261,-188,164,50,-227,-210,-487,-923,-889,-753,-393
-74,-249,-170,158,38,-209,-96,-295,-737,-769,-723,-411
-98,-237,-134,164,21,-185,-25,-133,-569,-667,-669,-393
-110,-225,-110,164,3,-167,59,-20,-449,-559,-621,-363
-68,-213,-140,140,26,-179,107,64,-341,-505,-609,-357
-44,-213,-164,128,50,-191,137,124,-269,-475,-591,-351
-62,-183,-116,122,26,-149,167,172,-221,-433,-591,-351
-38,-171,-128,104,38,-149,203,220,-161,-391,-555,-327
-14,-135,-116,74,44,-125,233,298,-107,-355,-501,-291
-62,-99,-45,80,-9,-65,251,334,-83,-325,-489,-285
-80,-93,-21,86,-33,-53,257,358,-77,-325,-501,-285
-86,-93,-15,86,-39,-48,263,370,-59,-331,-501,-285
-86,-99,-21,92,-33,-53,275,376,-41,-331,-501,-285
-74,-105,-39,86,-21,-65,269,388,-35,-337,-507,-309
-74,-111,-45,92,-15,-71,281,400,-30,-337,-525,-315
-56,-123,-62,86,9,-95,287,418,-30,-349,-537,-321
-32,-129,-92,80,26,-113,287,418,-30,-355,-537,-333
-50,-129,-74,86,15,-101,293,424,-24,-355,-537,-333
-50,-123,-68,86,15,-95,299,424,-18,-349,-537,-333
-56,-117,-56,86,3,-89,311,442,0,-349,-519,-315
-74,-117,-51,92,-15,-77,317,448,6,-349,-519,-315
-86,-111,-33,98,-27,-65,317,472,18,-337,-513,-309
-86,-111,-33,98,-27,-65,323,484,24,-337,-501,-309
-74,-111,-45,92,-15,-71,329,496,30,-343,-519,-315
-74,-111,-45,92,-15,-71,329,496,30,-349,-537,-321
-56,-111,-51,80,3,-83,329,502,30,-367,-549,-333
-50,-111,-56,80,9,-83,335,490,30,-379,-561,-339
-50,-117,-62,80,9,-89,341,496,36,-373,-561,-339
-50,-117,-62,80,9,-89,341,502,36,-373,-555,-339
-50,-117,-62,80,9,-89,347,514,42,-367,-531,-327
-62,-117,-51,86,-3,-83,353,526,42,-367,-519,-327
-86,-117,-39,98,-27,-71,359,538,48,-361,-513,-321
-74,-117,-51,92,-15,-77,359,538,48,-361,-513,-321
-80,-117,-45,98,-21,-77,359,544,54,-361,-519,-327
-92,-117,-33,104,-33,-71,365,544,54,-367,-531,-333
-68,-117,-51,92,-9,-83,359,544,48,-361,-537,-339
-56,-117,-56,86,3,-89,359,544,48,-373,-543,-345
-50,-117,-62,80,9,-89,353,544,48,-373,-543,-351
-50,-117,-62,80,9,-89,359,550,42,-373,-537,-351
-56,-111,-51,80,3,-83,371,562,48,-367,-519,-339
-74,-111,-45,92,-15,-71,383,568,48,-367,-513,-333
-92,-111,-27,98,-33,-65,389,574,54,-367,-507,-327
-86,-111,-33,98,-27,-65,389,580,60,-367,-507,-333
-86,-111,-33,98,-27,-65,395,586,54,-361,-513,-339
-86,-111,-33,98,-27,-65,401,586,48,-361,-525,-351
-74,-111,-45,92,-15,-71,401,586,42,-367,-531,-363
-74,-111,-45,92,-15,-71,401,586,42,-367,-531,-363
-74,-105,-39,86,-21,-65,407,592,42,-367,-525,-357
-74,-105,-39,86,-21,-65,413,592,42,-367,-525,-351
-68,-105,-45,86,-15,-71,419,598,42,-367,-513,-339
-74,-105,-39,86,-21,-65,419,604,42,-367,-513,-339
-86,-105,-27,92,-33,-59,425,610,42,-367,-513,-339
-74,-99,-33,86,-21,-59,425,616,42,-361,-507,-339
-74,-99,-33,86,-21,-59,431,622,42,-361,-507,-351
-80,-93,-21,86,-33,-53,431,628,42,-367,-513,-357
-74,-99,-33,86,-21,-59,437,628,42,-373,-513,-363
-56,-99,-51,74,-3,-71,449,634,42,-373,-513,-363
-62,-99,-45,80,-9,-65,449,634,42,-379,-519,-363
-62,-99,-45,80,-9,-65,449,640,42,-379,-519,-363
-68,-99,-39,80,-15,-65,467,652,48,-373,-501,-345
-86,-93,-15,86,-39,-48,473,658,60,-367,-495,-345
-92,-93,-9,92,-45,-48,479,676,66,-349,-489,-339
-98,-99,-9,98,-45,-48,491,676,72,-343,-477,-339
-98,-99,-9,98,-45,-48,491,688,72,-349,-483,-345
-98,-93,-3,92,-51,-48,491,694,66,-355,-489,-351
-98,-93,-3,92,-51,-48,485,706,60,-361,-495,-357
-86,-93,-15,86,-39,-48,491,712,54,-367,-501,-369
-104,-87,9,92,-57,-48,503,718,66,-361,-495,-369
-104,-81,15,92,-63,-42,509,724,66,-355,-495,-363
-86,-81,-3,80,-45,-48,515,730,72,-349,-489,-351
-104,-81,15,92,-63,-42,521,742,78,-349,-489,-345
-110,-87,15,98,-63,-42,533,760,78,-343,-483,-339
-110,-87,15,98,-63,-42,551,778,90,-331,-477,-339
-122,-93,21,104,-75,-42,557,796,90,-325,-471,-339
-122,-93,21,104,-75,-42,563,814,90,-325,-471,-339
-116,-93,15,104,-69,-48,569,820,90,-325,-477,-339
-104,-87,9,92,-57,-48,575,832,96,-325,-471,-345
-116,-81,27,98,-75,-36,569,832,96,-331,-477,-345
-116,-75,33,92,-75,-30,581,850,102,-325,-477,-345
-110,-75,27,92,-69,-30,593,862,108,-307,-459,-327
-116,-75,33,92,-75,-30,605,874,114,-301,-459,-327
-134,-75,51,104,-93,-18,617,892,114,-289,-453,-321
-140,-75,57,104,-99,-18,623,904,120,-283,-441,-321
-134,-75,51,104,-93,-18,629,916,126,-283,-447,-327
-140,-69,63,104,-105,-12,635,928,126,-283,-459,-327
-134,-75,51,104,-93,-18,647,946,144,-283,-465,-333
-122,-75,39,98,-81,-24,653,970,144,-271,-459,-333
-146,-69,69,104,-111,-6,671,982,144,-271,-453,-327
-146,-63,75,104,-111,0,677,994,144,-271,-453,-321
-146,-63,75,104,-111,0,695,1024,156,-265,-435,-315
-146,-57,81,98,-117,6,707,1036,156,-259,-429,-315
-152,-57,87,104,-123,6,719,1048,162,-247,-429,-315
-134,-51,75,92,-105,6,731,1078,174,-241,-417,-309
-164,-46,111,104,-141,24,731,1096,186,-229,-411,-303
-182,-46,129,110,-159,36,749,1120,198,-223,-411,-303
-164,-46,111,104,-141,24,749,1132,198,-217,-417,-297
-158,-46,105,98,-135,24,755,1150,198,-217,-411,-291
-158,-46,111,98,-135,30,755,1156,198,-223,-417,-291
-152,-46,111,92,-129,30,767,1168,198,-211,-417,-273
-158,-46,117,92,-135,36,779,1186,210,-193,-393,-261
-164,-46,123,98,-141,36,785,1198,210,-181,-375,-255
-176,-40,141,98,-159,48,797,1216,210,-163,-363,-249
-170,-40,135,98,-153,48,803,1240,210,-151,-339,-237
-176,-40,141,98,-159,48,803,1252,210,-145,-339,-243
-188,-34,159,104,-171,60,809,1252,210,-139,-345,-243
-182,-34,153,98,-165,60,803,1252,210,-145,-333,-237
-182,-28,159,98,-171,66,803,1258,210,-133,-321,-237
-176,-22,159,92,-165,66,815,1270,216,-127,-303,-225
-176,-22,159,92,-165,66,815,1276,210,-115,-303,-207
-170,-22,153,86,-159,66,815,1282,210,-97,-285,-189
-176,-22,159,92,-165,66,815,1294,204,-97,-261,-171
-182,-28,159,98,-171,66,821,1300,204,-79,-255,-159
-176,-22,159,92,-165,66,821,1300,204,-67,-243,-147
-182,-22,165,92,-171,72,827,1306,204,-55,-225,-135
-200,-16,189,98,-195,84,827,1300,198,-49,-219,-129
-188,-16,177,92,-183,78,821,1294,186,-43,-201,-117
-170,-22,153,86,-159,66,809,1288,180,-32,-177,-111
-170,-22,153,86,-159,66,803,1288,156,-32,-177,-105
-164,-28,141,86,-153,54,797,1270,144,-20,-153,-76
-164,-34,135,92,-147,48,791,1258,138,-2,-117,-58
-170,-34,141,92,-153,54,785,1240,126,16,-93,-34
-182,-40,147,104,-165,54,779,1216,120,34,-69,-10
-176,-46,135,104,-153,42,767,1198,108,58,-33,20
-176,-46,123,110,-153,30,755,1168,102,76,-4,38
-182,-51,123,116,-153,30,737,1156,90,94,-4,44
-182,-63,111,122,-147,18,713,1114,72,112,14,74
-182,-69,105,122,-147,12,689,1078,60,136,50,104
-176,-63,105,116,-141,12,671,1036,42,148,62,110
-164,-69,87,116,-129,0,659,1000,24,172,98,140
-146,-75,63,110,-105,-12,623,964,-6,190,122,164
-134,-87,39,110,-87,-30,599,928,-30,208,152,182
-134,-93,33,110,-87,-36,587,898,-30,226,182,212
-128,-105,15,116,-75,-48,563,856,-47,250,218,248
-146,-105,33,122,-93,-42,545,820,-65,268,242,272
-152,-117,27,134,-93,-48,521,772,-77,286,260,290
-134,-123,3,128,-69,-53,479,724,-95,304,290,308
-116,-129,-21,122,-51,-71,455,670,-113,310,320,332
-98,-135,-45,116,-27,-83,425,628,-125,328,344,350
-86,-141,-51,110,-15,-95,407,586,-149,352,368,380
-74,-153,-74,110,3,-113,389,550,-155,370,410,410
-80,-159,-74,116,3,-119,365,514,-167,388,428,422
-86,-165,-74,122,-3,-119,347,472,-173,418,446,440
-68,-177,-104,122,21,-143,329,442,-173,448,476,470
-68,-177,-104,122,21,-143,299,412,-185,454,494,476
-68,-177,-104,122,21,-143,281,376,-191,472,500,488
-62,-177,-110,116,26,-143,251,340,-197,484,518,512
-50,-177,-122,110,26,-149,227,310,-197,508,542,524
-38,-183,-140,110,44,-161,215,286,-197,532,560,530
-32,-195,-158,110,56,-179,197,256,-197,556,566,536
-14,-201,-182,104,74,-191,179,226,-191,568,578,548
-14,-201,-182,104,74,-191,167,208,-179,580,584,548
-14,-201,-182,104,74,-191,155,184,-173,604,590,560
-2,-207,-200,104,92,-203,149,178,-167,622,596,560
-8,-213,-200,110,86,-209,137,160,-167,640,602,572
-20,-213,-188,116,74,-203,119,160,-149,652,608,578
-8,-213,-200,110,86,-209,101,142,-143,658,614,572
3,-213,-224,98,110,-215,89,130,-131,658,596,560
15,-207,-230,86,122,-215,71,112,-125,658,572,536
21,-207,-236,86,128,-221,59,112,-119,652,548,524
21,-201,-230,80,122,-215,59,106,-113,646,548,518
15,-195,-218,80,116,-203,47,106,-95,622,512,500
9,-189,-206,80,104,-197,41,106,-95,598,494,482
15,-177,-200,74,104,-185,41,106,-89,580,476,470
15,-171,-194,68,104,-179,29,106,-83,562,452,452
15,-165,-188,68,98,-173,23,106,-83,532,416,422
21,-165,-194,62,104,-179,11,100,-77,502,386,404
21,-159,-188,62,104,-173,11,94,-77,484,356,386
15,-153,-176,62,92,-161,5,94,-77,448,320,350
27,-147,-182,50,104,-161,-1,94,-65,412,284,326
33,-141,-182,44,104,-161,-1,100,-59,382,260,296
33,-135,-176,44,104,-155,-1,106,-53,340,230,272
27,-129,-164,44,92,-143,-7,112,-47,310,200,260
33,-123,-164,38,98,-143,-7,118,-41,280,170,242
27,-123,-158,38,92,-137,-7,130,-35,250,146,224
15,-117,-140,44,74,-125,-7,154,-30,226,116,200
21,-117,-146,38,80,-131,-13,154,-30,202,92,182
27,-117,-152,38,86,-131,-13,160,-30,178,68,164
33,-117,-158,32,92,-137,-13,154,-24,154,26,128
39,-105,-152,26,92,-125,-13,154,-18,136,2,116
45,-93,-146,20,92,-119,-13,166,-12,124,-4,110
21,-87,-116,26,68,-101,-13,172,-6,106,-15,92
15,-81,-104,26,56,-89,-13,178,0,94,-39,86
15,-81,-104,26,56,-89,-13,190,6,76,-45,80
21,-69,-98,20,56,-83,-13,190,6,58,-57,74
3,-69,-80,26,38,-71,-7,202,6,40,-75,62
21,-63,-92,20,56,-77,-7,196,18,34,-81,56
33,-57,-98,20,62,-77,-1,202,18,28,-81,50
15,-57,-80,20,44,-65,-1,208,30,16,-105,26
15,-57,-80,20,44,-65,-1,214,30,4,-117,20
39,-63,-110,20,74,-83,-1,220,42,-14,-135,14
21,-57,-86,20,50,-71,5,226,42,-26,-141,14
15,-51,-74,20,44,-59,-1,232,42,-32,-147,8
15,-51,-74,20,44,-59,-1,232,48,-32,-153,2
9,-46,-62,20,32,-53,-1,244,48,-32,-159,-4
3,-46,-51,20,26,-48,-1,244,48,-32,-165,-10
3,-46,-56,20,26,-48,-1,238,48,-32,-165,-16
21,-46,-74,20,44,-59,-1,238,48,-32,-165,-16
9,-46,-56,20,32,-48,-1,232,48,-43,-177,-28
15,-46,-62,20,38,-48,-1,232,48,-49,-177,-28
15,-46,-62,20,38,-48,5,244,54,-49,-177,-34
9,-46,-56,20,32,-48,11,244,54,-49,-183,-34
3,-46,-51,20,26,-48,17,250,60,-55,-183,-34
3,-46,-51,20,26,-48,17,244,60,-55,-183,-34
3,-46,-51,20,26,-48,11,244,60,-49,-183,-28
3,-46,-51,20,26,-48,11,250,60,-49,-189,-34
3,-46,-45,20,26,-48,5,250,48,-49,-189,-28
9,-46,-51,20,32,-48,5,250,48,-49,-195,-28
3,-46,-51,20,26,-48,5,250,48,-55,-207,-34
3,-46,-51,20,26,-48,5,244,48,-55,-207,-34
15,-46,-62,20,38,-48,5,244,48,-61,-213,-34
3,-46,-51,20,26,-48,5,244,48,-73,-219,-46
3,-46,-51,20,26,-48,11,244,48,-67,-213,-40
3,-46,-51,20,26,-48,11,244,48,-67,-207,-40
3,-46,-51,20,26,-48,23,244,48,-55,-201,-34
-20,-46,-27,26,3,-42,23,244,48,-55,-207,-34
-2,-46,-45,20,21,-48,17,238,42,-61,-207,-34
3,-46,-51,20,26,-48,11,238,42,-61,-207,-34
3,-46,-51,20,26,-48,5,220,36,-67,-219,-34
3,-46,-51,20,26,-48,-1,220,36,-67,-207,-34
3,-46,-51,20,26,-48,-1,226,36,-67,-207,-34
3,-46,-51,20,26,-48,-1,220,30,-67,-207,-40
3,-46,-51,20,26,-48,-1,226,30,-73,-213,-40
3,-46,-51,20,26,-48,-1,226,30,-73,-213,-34
3,-46,-51,20,26,-48,-1,226,24,-73,-213,-40
-8,-46,-33,20,15,-42,-1,226,30,-73,-213,-52
-8,-46,-33,20,15,-42,-1,226,24,-73,-213,-58
3,-46,-51,20,26,-48,-1,226,24,-73,-219,-64
-2,-46,-45,20,21,-48,5,220,24,-73,-225,-70
-2,-46,-45,20,21,-48,5,208,24,-73,-225,-70
3,-46,-51,20,26,-48,5,202,24,-73,-237,-58
-8,-46,-45,26,15,-48,5,202,24,-73,-237,-58
-14,-46,-33,26,9,-42,5,208,24,-67,-231,-58
-2,-46,-51,20,21,-48,5,208,24,-67,-225,-58
-8,-46,-39,20,15,-48,11,214,24,-61,-219,-58
-14,-46,-33,26,9,-42,11,214,24,-61,-219,-52
-8,-46,-39,20,15,-48,5,208,24,-61,-219,-52
-2,-46,-51,20,21,-48,11,208,24,-61,-219,-58
-8,-46,-45,26,15,-48,5,196,24,-67,-237,-58
-2,-46,-51,20,21,-48,5,190,24,-61,-237,-58
-2,-46,-51,20,21,-48,5,196,24,-55,-231,-58
-2,-46,-51,20,21,-48,5,190,18,-61,-231,-58
-8,-46,-45,26,15,-48,5,190,18,-61,-225,-52
-8,-46,-45,26,15,-48,-1,190,24,-61,-207,-52
-14,-51,-45,32,15,-48,-1,190,24,-61,-219,-58
-14,-51,-45,32,15,-48,-1,190,18,-61,-231,-52
-20,-57,-45,38,9,-48,-1,190,18,-61,-219,-58
-20,-57,-45,38,9,-48,-1,184,18,-61,-219,-64
-20,-51,-39,32,9,-48,-1,178,12,-67,-219,-58
-14,-57,-51,32,15,-48,-7,178,12,-73,-225,-58
-2,-51,-51,26,26,-48,-7,160,12,-79,-225,-52
3,-46,-51,20,26,-48,-7,160,6,-79,-225,-52
-2,-51,-51,26,26,-48,-1,160,12,-79,-219,-46
-2,-57,-51,26,26,-53,-7,160,12,-73,-213,-46
-14,-63,-51,38,21,-53,-1,166,18,-67,-213,-40
-14,-63,-51,38,21,-53,5,166,18,-55,-213,-40
-8,-57,-51,32,21,-53,5,166,18,-61,-213,-40
3,-57,-56,26,26,-59,5,166,18,-61,-213,-40
-14,-51,-45,32,15,-48,5,166,12,-61,-213,-40
-26,-51,-33,38,3,-48,-1,166,12,-61,-213,-40
-2,-51,-51,26,26,-48,-7,166,12,-61,-207,-40
-2,-51,-51,26,26,-48,-7,160,6,-67,-207,-40
-8,-51,-51,26,21,-48,-13,154,6,-67,-201,-40
3,-51,-51,20,26,-53,-13,154,6,-67,-201,-46
-8,-51,-51,26,21,-48,-7,160,12,-67,-207,-52
-14,-51,-45,32,15,-48,-7,154,12,-67,-213,-52
-20,-57,-45,38,9,-48,-1,160,18,-67,-219,-58
-14,-57,-51,32,15,-48,-7,160,18,-73,-231,-58
-26,-57,-39,38,3,-48,-13,154,18,-73,-237,-52
-20,-57,-45,38,9,-48,-7,154,18,-79,-243,-52
-14,-57,-51,32,15,-48,-13,148,18,-79,-243,-52
-8,-57,-51,32,21,-53,-13,148,18,-79,-243,-52
-14,-63,-51,38,21,-53,-7,148,18,-85,-237,-58
-2,-63,-56,32,26,-59,-13,148,18,-85,-237,-58
-20,-69,-51,44,15,-59,-7,142,18,-85,-231,-64
-20,-69,-51,44,15,-59,-7,142,18,-91,-231,-58
-8,-69,-56,38,26,-65,-7,136,24,-91,-231,-58
-8,-69,-56,38,26,-65,-13,136,24,-91,-231,-64
-14,-69,-51,38,21,-59,-13,130,18,-97,-243,-64
-14,-69,-51,38,21,-59,-13,130,18,-97,-243,-64
-2,-69,-62,32,26,-65,-13,136,24,-97,-237,-64
-2,-69,-62,32,26,-65,-13,136,24,-97,-231,-64
3,-75,-74,32,32,-77,-19,142,18,-91,-225,-52
3,-75,-80,32,38,-77,-19,142,18,-91,-219,-52
-2,-75,-68,38,26,-71,-13,148,18,-97,-225,-58
-8,-75,-62,38,26,-71,-7,148,18,-97,-225,-58
-20,-75,-51,44,21,-65,-1,154,18,-103,-231,-64
-26,-75,-51,50,15,-59,-7,154,18,-103,-231,-76
-26,-69,-51,44,9,-53,-13,148,12,-109,-237,-76
-20,-69,-51,44,15,-59,-13,148,12,-109,-237,-76
3,-63,-62,26,26,-65,-19,142,12,-109,-237,-70
3,-63,-68,26,32,-65,-19,148,18,-109,-237,-70
3,-69,-68,32,26,-71,-19,154,24,-109,-237,-70
3,-69,-68,32,26,-71,-25,154,24,-109,-231,-70
-2,-75,-68,38,26,-71,-25,160,30,-109,-231,-76
-14,-75,-56,44,26,-65,-25,160,30,-109,-231,-76
-14,-75,-56,44,26,-65,-31,154,24,-115,-231,-76
-14,-75,-56,44,26,-65,-31,160,18,-121,-231,-76
-20,-75,-51,44,21,-65,-37,160,18,-127,-243,-76
-20,-75,-51,44,21,-65,-37,160,18,-127,-231,-76
-8,-75,-62,38,26,-71,-37,148,18,-121,-225,-76
-8,-75,-62,38,26,-71,-37,148,18,-121,-225,-76
-2,-75,-68,38,26,-71,-37,142,18,-115,-219,-76
3,-75,-74,32,32,-77,-37,142,18,-115,-213,-76
-2,-69,-62,32,26,-65,-31,148,24,-115,-213,-76
-26,-69,-51,44,9,-53,-31,148,24,-115,-225,-76
-20,-63,-51,38,15,-53,-25,160,24,-109,-213,-76
-14,-63,-51,38,21,-53,-25,160,18,-109,-213,-76
-26,-69,-51,44,9,-53,-31,154,18,-121,-219,-76
-20,-69,-51,44,15,-59,-31,154,18,-121,-219,-76
3,-75,-74,32,32,-77,-37,148,18,-127,-225,-70
3,-75,-80,32,38,-77,-37,148,18,-127,-225,-64
3,-75,-74,32,32,-77,-37,148,18,-127,-219,-64
3,-75,-80,32,38,-77,-37,148,18,-127,-219,-64
-8,-75,-62,38,26,-71,-25,154,18,-127,-213,-64
-14,-75,-56,44,26,-65,-25,154,18,-127,-213,-64
-14,-69,-51,38,21,-59,-31,154,18,-127,-219,-64
-14,-69,-51,38,21,-59,-37,154,18,-127,-219,-64
-14,-63,-51,38,21,-53,-43,154,18,-127,-231,-64
-14,-63,-51,38,21,-53,-37,154,18,-133,-231,-64
-8,-63,-51,32,26,-59,-37,148,12,-133,-231,-70
-2,-63,-56,32,26,-59,-37,148,12,-133,-237,-70
3,-63,-62,26,26,-65,-43,142,6,-133,-237,-76
3,-63,-68,26,32,-65,-43,142,12,-133,-231,-76
-2,-69,-62,32,26,-65,-37,148,24,-133,-231,-70
-20,-69,-51,44,15,-59,-37,154,24,-133,-231,-76
-20,-81,-56,50,21,-71,-31,160,30,-133,-225,-70
-26,-81,-51,50,15,-65,-31,160,24,-133,-225,-70
-26,-69,-51,44,9,-53,-37,154,18,-139,-243,-76
-20,-69,-51,44,15,-59,-31,154,18,-139,-231,-76
-8,-63,-51,32,26,-59,-37,148,18,-145,-231,-76
-2,-63,-56,32,26,-59,-37,148,24,-151,-237,-76
-14,-63,-51,38,21,-53,-37,148,18,-145,-237,-76
-2,-69,-62,32,26,-65,-37,148,24,-145,-231,-76
-2,-69,-62,32,26,-65,-37,148,18,-139,-231,-70
-2,-69,-62,32,26,-65,-37,148,18,-139,-231,-70
-8,-69,-56,38,26,-65,-37,154,18,-139,-231,-76
3,-69,-74,26,32,-71,-43,154,18,-139,-231,-76
-14,-69,-51,38,21,-59,-43,160,24,-139,-243,-76
-26,-69,-51,44,9,-53,-37,160,24,-139,-243,-76
-8,-75,-62,38,26,-71,-43,154,18,-139,-243,-76
-2,-75,-68,38,26,-71,-43,154,24,-139,-243,-76
-8,-81,-68,44,26,-77,-49,142,18,-145,-243,-76
3,-81,-86,32,38,-83,-49,136,18,-145,-237,-76
-32,-69,-45,50,3,-53,-19,160,30,-133,-231,-81
-20,-81,-56,50,21,-71,-19,160,30,-133,-225,-76
-14,-75,-56,44,26,-65,-25,160,36,-133,-225,-76
-8,-75,-62,38,26,-71,-31,154,30,-139,-231,-76
-8,-75,-62,38,26,-71,-31,154,30,-139,-237,-76
-2,-75,-68,38,26,-71,-37,148,24,-145,-243,-76
-2,-75,-68,38,26,-71,-37,148,24,-145,-243,-76
-2,-75,-68,38,26,-71,-31,154,24,-145,-243,-76
-2,-75,-68,38,26,-71,-31,154,24,-145,-243,-76
-2,-75,-68,38,26,-71,-25,160,24,-145,-243,-76
-2,-75,-68,38,26,-71,-25,160,24,-145,-243,-76
-8,-81,-68,44,26,-77,-25,160,24,-145,-243,-76
-8,-81,-68,44,26,-77,-25,160,24,-145,-243,-76
-14,-87,-68,50,26,-77,-25,160,24,-145,-243,-81
-14,-87,-68,50,26,-77,-25,160,24,-145,-243,-81
-2,-81,-74,38,26,-77,-25,154,18,-151,-249,-76
3,-81,-80,38,32,-83,-25,154,18,-151,-249,-76
3,-75,-86,26,44,-77,-25,148,12,-157,-255,-76
9,-75,-92,26,50,-83,-25,148,12,-157,-255,-76
3,-75,-80,32,38,-77,-25,154,12,-151,-249,-76
3,-75,-74,32,32,-77,-25,154,12,-151,-243,-76
-8,-75,-62,38,26,-71,-25,160,12,-145,-243,-81
-14,-75,-56,44,26,-65,-25,160,12,-145,-237,-81
-8,-75,-62,38,26,-71,-25,154,12,-145,-243,-81
-8,-75,-62,38,26,-71,-25,154,12,-145,-243,-81
-2,-75,-68,38,26,-71,-25,148,12,-145,-249,-81
-2,-75,-68,38,26,-71,-25,148,12,-145,-255,-81
-2,-75,-68,38,26,-71,-31,148,12,-151,-255,-81
-2,-75,-68,38,26,-71,-31,148,12,-151,-255,-81
-2,-75,-68,38,26,-71,-37,148,12,-157,-255,-81
-2,-75,-68,38,26,-71,-37,148,12,-157,-255,-81
-8,-81,-68,44,26,-77,-37,154,18,-151,-249,-81
-8,-81,-68,44,26,-77,-37,160,18,-151,-249,-81
-14,-87,-68,50,26,-77,-37,166,24,-145,-243,-81
-14,-87,-68,50,26,-77,-37,172,24,-145,-243,-81
-2,-87,-80,44,32,-83,-43,166,18,-151,-249,-81
3,-87,-86,38,38,-89,-43,166,18,-151,-249,-81
3,-87,-98,32,50,-89,-49,160,12,-157,-255,-81
9,-87,-104,32,56,-95,-49,160,12,-157,-255,-81
3,-81,-86,32,38,-83,-43,160,18,-157,-249,-81
3,-81,-80,38,32,-83,-43,160,18,-157,-249,-81
-8,-75,-62,38,26,-71,-37,160,24,-157,-243,-81
-14,-75,-56,44,26,-65,-37,160,24,-157,-243,-81
-8,-81,-68,44,26,-77,-43,160,18,-157,-249,-81
-8,-81,-68,44,26,-77,-43,160,18,-157,-249,-81
-2,-87,-80,44,32,-83,-49,160,12,-157,-255,-81
-2,-87,-80,44,32,-83,-49,160,12,-157,-255,-81
-2,-87,-80,44,32,-83,-49,166,12,-157,-255,-87
-2,-87,-80,44,32,-83,-49,166,12,-157,-255,-87
-2,-87,-80,44,32,-83,-49,172,12,-157,-255,-93
-2,-87,-80,44,32,-83,-49,172,12,-157,-255,-93
-8,-87,-74,44,26,-83,-43,172,18,-157,-255,-93
-8,-87,-74,44,26,-83,-43,172,18,-157,-255,-93
-14,-87,-68,50,26,-77,-37,172,24,-157,-255,-93
-14,-87,-68,50,26,-77,-37,172,24,-157,-255,-93
-8,-87,-74,44,26,-83,-43,166,24,-151,-261,-87
-2,-87,-80,44,32,-83,-43,166,24,-151,-261,-87
3,-87,-86,38,38,-89,-49,160,24,-145,-267,-81
3,-87,-92,38,44,-89,-49,160,24,-145,-267,-81
3,-87,-86,38,38,-89,-43,166,24,-151,-261,-81
3,-87,-86,38,38,-89,-43,166,24,-151,-255,-81
-2,-87,-80,44,32,-83,-37,172,24,-157,-249,-81
-2,-87,-80,44,32,-83,-37,172,24,-157,-243,-81
-2,-93,-86,44,32,-89,-37,172,24,-157,-249,-81
-2,-93,-86,44,32,-89,-37,172,24,-157,-249,-81
-2,-99,-92,50,38,-95,-37,172,24,-157,-255,-81
-2,-99,-92,50,38,-95,-37,172,24,-157,-255,-81
-2,-99,-92,50,38,-95,-43,172,24,-151,-255,-76
-2,-99,-92,50,38,-95,-43,172,24,-151,-255,-76
-2,-99,-92,50,38,-95,-49,172,24,-145,-255,-76
-2,-99,-92,50,38,-95,-49,172,24,-145,-255,-76
-8,-93,-80,50,26,-89,-43,178,24,-145,-249,-76
-8,-93,-80,50,26,-89,-43,178,24,-145,-249,-76
-14,-87,-68,50,26,-77,-37,178,24,-145,-243,-76
-14,-87,-68,50,26,-77,-37,178,24,-145,-243,-76
-2,-93,-86,44,32,-89,-37,178,24,-151,-249,-76
3,-93,-92,44,38,-95,-37,178,24,-151,-255,-76
3,-99,-110,38,56,-101,-37,172,24,-157,-261,-81
9,-99,-116,38,62,-107,-37,172,24,-157,-267,-81
3,-99,-104,44,50,-101,-37,172,24,-157,-261,-81
3,-99,-98,44,44,-101,-37,172,24,-157,-255,-81
-8,-99,-86,50,32,-95,-37,172,24,-157,-249,-81
-14,-99,-80,56,26,-89,-37,172,24,-157,-243,-81
-8,-93,-80,50,26,-89,-37,166,18,-157,-249,-87
-8,-93,-80,50,26,-89,-37,166,18,-157,-255,-87
-2,-87,-80,44,32,-83,-37,160,12,-157,-261,-93
-2,-87,-80,44,32,-83,-37,160,12,-157,-267,-93
-2,-87,-80,44,32,-83,-37,160,12,-163,-261,-93
-2,-87,-80,44,32,-83,-37,160,12,-163,-261,-93
-2,-87,-80,44,32,-83,-37,160,12,-169,-255,-93
-2,-87,-80,44,32,-83,-37,160,12,-169,-255,-93
-8,-93,-80,50,26,-89,-31,160,18,-163,-255,-87
-14,-93,-74,50,26,-83,-31,160,18,-157,-255,-87
-20,-99,-74,56,26,-89,-25,160,24,-151,-255,-81
-26,-99,-68,62,26,-83,-25,160,24,-145,-255,-81
-20,-99,-74,56,26,-89,-31,154,18,-151,-261,-81
-14,-99,-80,56,26,-89,-31,154,18,-151,-261,-81
-8,-99,-86,50,32,-95,-37,148,12,-157,-267,-81
-2,-99,-92,50,38,-95,-37,148,12,-157,-267,-81
-8,-99,-86,50,32,-95,-31,154,18,-151,-261,-76
-14,-99,-80,56,26,-89,-31,154,18,-151,-255,-76
-20,-99,-74,56,26,-89,-25,160,24,-145,-249,-76
-26,-99,-68,62,26,-83,-25,160,24,-145,-243,-76
-20,-93,-68,56,26,-83,-31,160,30,-145,-249,-76
-8,-93,-80,50,26,-89,-31,160,30,-145,-255,-76
-2,-87,-80,44,32,-83,-31,160,30,-151,-261,-81
-8,-81,-68,44,26,-77,-25,166,30,-151,-267,-81
-8,-87,-74,44,26,-83,-19,160,36,-145,-261,-76
3,-87,-86,38,38,-89,-19,160,36,-145,-255,-76
-8,-81,-68,44,26,-77,-7,160,42,-145,-243,-76
-8,-81,-68,44,26,-77,-7,160,48,-139,-243,-76
-8,-81,-68,44,26,-77,-13,160,48,-139,-243,-70
-8,-81,-68,44,26,-77,-13,160,48,-139,-243,-70
-14,-75,-56,44,26,-65,-31,166,42,-139,-243,-76
3,-75,-74,32,32,-77,-37,172,36,-139,-243,-76
9,-75,-92,26,50,-83,-43,166,30,-139,-249,-76
15,-75,-98,20,56,-83,-43,166,30,-139,-249,-76
33,-75,-116,20,74,-95,-43,160,24,-139,-255,-76
51,-81,-140,20,92,-107,-49,154,24,-139,-249,-76
45,-81,-134,20,86,-107,-49,160,24,-133,-243,-76
45,-81,-134,20,86,-107,-49,166,36,-133,-243,-64
39,-75,-122,20,80,-95,-49,172,42,-121,-219,-52
39,-69,-116,20,74,-89,-49,184,48,-115,-213,-52
45,-63,-116,15,80,-89,-49,190,54,-109,-219,-52
45,-57,-110,15,74,-83,-49,196,60,-103,-213,-46
51,-57,-116,9,80,-83,-49,202,78,-97,-219,-46
51,-57,-116,9,80,-83,-37,208,84,-91,-225,-40
69,-51,-128,-3,98,-89,-37,226,90,-79,-207,-46
81,-51,-140,-9,110,-95,-37,232,96,-79,-201,-40
69,-51,-128,-3,98,-89,-43,238,96,-79,-195,-46
69,-51,-128,-3,98,-89,-55,238,108,-67,-177,-40
87,-51,-146,-9,116,-95,-67,238,120,-55,-165,-28
69,-46,-122,-3,92,-83,-67,238,120,-49,-165,-16
63,-40,-98,-9,80,-59,-67,238,126,-37,-165,-4
57,-34,-86,-9,74,-53,-72,220,126,-37,-153,2
81,-28,-104,-27,92,-59,-84,214,120,-37,-153,-4
75,-28,-98,-21,86,-53,-96,202,114,-37,-171,-22
81,-22,-98,-27,92,-53,-108,196,96,-55,-171,-40
87,-10,-92,-39,92,-48,-108,184,84,-67,-171,-46
63,-4,-62,-27,62,-36,-102,172,66,-79,-177,-46
51,-16,-62,-15,56,-42,-102,160,60,-79,-177,-46
57,-40,-92,-9,74,-59,-102,142,60,-85,-171,-34
57,-46,-104,-3,80,-71,-102,136,54,-97,-183,-34
57,-46,-110,3,80,-77,-90,154,54,-97,-189,-34
63,-57,-128,3,92,-89,-84,154,48,-91,-195,-40
75,-57,-140,-3,104,-95,-78,154,54,-91,-201,-40
51,-57,-116,9,80,-83,-72,154,54,-97,-207,-40
57,-63,-128,9,92,-95,-72,148,48,-103,-207,-46
57,-63,-128,9,92,-95,-67,148,42,-103,-201,-40
57,-69,-134,15,92,-101,-67,142,36,-109,-201,-46
27,-81,-116,20,68,-95,-67,148,30,-115,-213,-58
15,-87,-110,26,62,-95,-61,160,36,-121,-219,-70
3,-87,-92,38,44,-89,-55,160,30,-127,-225,-76
-8,-87,-74,44,26,-83,-55,166,30,-133,-243,-93
-20,-99,-74,56,26,-89,-55,154,24,-139,-249,-105
-14,-99,-80,56,26,-89,-55,148,18,-145,-261,-111
-14,-105,-86,56,26,-95,-55,142,6,-157,-273,-123
-8,-111,-98,56,38,-107,-55,136,6,-163,-279,-123
3,-111,-116,50,56,-113,-55,136,0,-169,-279,-129
-2,-111,-104,56,44,-107,-61,142,0,-169,-273,-123
-14,-117,-98,62,32,-107,-61,136,0,-169,-267,-117
3,-117,-116,56,50,-119,-61,142,0,-169,-261,-111
-8,-117,-104,62,38,-113,-61,142,0,-169,-255,-111
-14,-117,-98,62,32,-107,-67,136,-6,-169,-261,-117
-14,-117,-98,62,32,-107,-67,136,-6,-169,-267,-123
-20,-117,-92,68,26,-107,-67,130,-12,-169,-273,-129
-26,-123,-92,74,26,-107,-67,130,-12,-169,-291,-141
-20,-123,-98,68,32,-113,-67,130,-12,-169,-285,-135
-8,-117,-104,62,38,-113,-67,136,-12,-163,-279,-135
-20,-117,-92,68,26,-107,-67,136,0,-163,-273,-129
-20,-117,-92,68,26,-107,-67,136,0,-163,-273,-129
-26,-123,-92,74,26,-107,-67,142,6,-157,-267,-129
-32,-123,-86,74,26,-107,-67,142,6,-151,-267,-123
-38,-129,-86,80,26,-107,-67,160,12,-145,-267,-123
-32,-129,-92,80,26,-113,-67,160,12,-139,-267,-123
-8,-123,-110,62,44,-119,-67,160,24,-121,-261,-111
-32,-123,-86,74,26,-107,-67,166,18,-121,-261,-123
-44,-117,-68,80,15,-95,-67,172,36,-115,-273,-123
-8,-111,-98,56,38,-107,-67,172,54,-97,-243,-105
-20,-105,-80,62,26,-95,-67,166,66,-85,-219,-93
-44,-105,-56,74,9,-83,-84,136,90,-61,-207,-87
-20,-93,-68,56,26,-83,-120,124,126,-8,-159,-58
3,-75,-80,32,38,-77,-156,112,192,94,-93,-16
3,-51,-62,20,32,-53,-222,70,258,196,-45,32
39,-46,-92,9,62,-65,-312,34,360,304,2,74
111,-46,-152,-33,134,-89,-384,46,498,418,74,116
123,-34,-152,-45,140,-83,-438,58,666,514,104,128
117,-46,-158,-33,140,-95,-468,64,846,574,80,104
189,-46,-242,-63,212,-143,-498,64,1020,628,68,80
225,-46,-278,-81,248,-161,-564,40,1224,724,104,80
249,-22,-272,-117,266,-137,-690,-73,1398,838,128,86
303,8,-290,-159,296,-137,-810,-235,1512,910,122,98
351,26,-320,-189,338,-143,-852,-253,1680,988,128,98
387,38,-344,-213,368,-149,-870,-253,1866,1078,140,104
441,110,-326,-273,386,-101,-948,-421,1986,1216,230,176
537,290,-248,-417,392,18,-1110,-775,2099,1450,434,356
621,506,-110,-561,368,192,-1398,-1159,2243,1816,728,596
681,722,39,-705,314,384,-1758,-1519,2440,2343,1142,920
777,968,189,-873,290,582,-2142,-1891,2626,2948,1646,1292
849,1280,429,-1065,212,858,-2525,-2389,2662,3626,2209,1724
909,1628,711,-1263,92,1170,-2933,-2976,2668,4436,2898,2245
951,1946,993,-1443,-15,1470,-3311,-3492,2668,5281,3636,2820
927,2233,1305,-1581,-189,1770,-3611,-3996,2566,6025,4308,3318
801,2466,1659,-1635,-429,2069,-3815,-4452,2273,6535,4752,3606
627,2634,2006,-1635,-687,2327,-3977,-5009,1296,6283,4782,3636
447,2712,2264,-1581,-909,2488,-4133,-5843,-773,5011,4386,3414
237,2628,2383,-1431,-1071,2506,-4211,-6623,-3160,3356,3774,3090
123,2251,2126,-1191,-993,2189,-4061,-6647,-4336,2145,3156,2718
141,1610,1461,-873,-657,1536,-3671,-5933,-4210,1438,2664,2406
135,938,801,-537,-327,876,-3233,-5165,-3982,820,2287,2191
69,506,435,-285,-177,468,-2903,-4614,-4084,16,1808,1898
57,194,135,-129,-33,168,-2561,-4056,-4102,-889,1172,1460
27,-63,-98,20,62,-77,-2136,-3336,-3796,-1735,266,782
-44,-237,-188,140,62,-215,-1710,-2652,-3298,-2203,-615,98
-74,-321,-248,200,80,-287,-1302,-2047,-2698,-2053,-975,-249
-56,-417,-356,236,146,-389,-948,-1495,-2123,-1687,-1005,-423
-104,-465,-356,278,122,-413,-672,-1051,-1673,-1465,-1059,-579
-128,-441,-308,278,86,-377,-510,-775,-1379,-1249,-987,-561
-92,-411,-314,254,104,-365,-390,-571,-1127,-1009,-789,-459
-92,-387,-290,242,92,-341,-270,-367,-911,-865,-711,-429
-146,-375,-230,260,32,-299,-168,-187,-737,-751,-687,-447
-146,-351,-206,248,26,-281,-84,-62,-581,-631,-621,-417
-122,-327,-206,224,32,-269,-37,40,-461,-535,-561,-387
-140,-291,-152,218,9,-227,-1,124,-365,-481,-573,-393
-116,-273,-152,194,21,-215,29,190,-281,-427,-555,-375
-74,-243,-164,158,38,-203,71,250,-197,-385,-489,-327
-74,-219,-140,146,26,-179,101,292,-137,-331,-465,-309
-98,-207,-104,152,9,-155,119,310,-107,-319,-459,-303
-86,-195,-104,140,15,-149,125,322,-95,-325,-423,-297
-92,-177,-80,134,-3,-131,131,334,-89,-313,-411,-285
-110,-177,-62,140,-21,-119,143,352,-71,-313,-417,-285
-116,-183,-62,146,-21,-125,155,358,-53,-313,-423,-291
-116,-189,-68,152,-21,-131,155,376,-47,-313,-435,-315
-122,-195,-68,158,-21,-131,167,388,-35,-313,-459,-327
-110,-201,-86,152,-9,-143,173,400,-30,-331,-477,-333
-86,-201,-110,140,15,-155,173,400,-30,-337,-477,-345
-110,-195,-80,152,-9,-137,173,400,-30,-343,-483,-345
-110,-183,-68,146,-15,-125,179,406,-30,-337,-483,-345
-104,-183,-74,140,-9,-131,185,418,-24,-337,-465,-327
-122,-183,-56,152,-27,-119,191,418,-18,-337,-465,-321
-122,-183,-56,152,-27,-119,185,430,-18,-325,-459,-315
-122,-183,-56,152,-27,-119,191,436,-12,-325,-447,-315
-116,-189,-68,152,-21,-131,197,448,0,-319,-459,-321
-116,-195,-74,152,-15,-137,197,448,0,-319,-471,-327
-104,-201,-92,152,-3,-149,197,454,6,-325,-477,-333
-98,-207,-104,152,9,-155,203,442,6,-331,-483,-339
-98,-201,-98,146,3,-149,203,448,6,-337,-483,-339
-98,-201,-98,146,3,-149,203,454,6,-337,-483,-339
-98,-189,-86,140,-3,-137,203,466,6,-343,-459,-327
-110,-189,-74,146,-15,-131,209,478,6,-343,-453,-327
-128,-189,-56,158,-33,-125,215,484,12,-343,-447,-327
-116,-189,-68,152,-21,-131,215,484,12,-343,-447,-327
-116,-189,-68,152,-21,-131,215,484,18,-349,-453,-339
-128,-189,-56,158,-33,-125,221,484,18,-355,-465,-345
-110,-189,-74,146,-15,-131,221,484,6,-355,-471,-351
-104,-189,-80,146,-9,-137,221,484,6,-367,-477,-357
-104,-189,-80,146,-9,-137,221,484,0,-373,-477,-363
-110,-189,-74,146,-15,-131,227,490,-6,-373,-471,-363
-110,-183,-68,146,-15,-125,227,502,0,-361,-459,-351
-122,-183,-56,152,-27,-119,239,508,0,-361,-453,-345
-134,-183,-51,158,-39,-113,233,514,6,-355,-453,-339
-122,-183,-56,152,-27,-119,233,520,12,-355,-453,-345
-122,-183,-56,152,-27,-119,239,526,6,-361,-459,-345
-122,-183,-56,152,-27,-119,245,526,0,-361,-471,-357
-110,-183,-68,146,-15,-125,245,526,-6,-379,-477,-363
-110,-183,-68,146,-15,-125,245,526,-6,-379,-477,-363
-116,-177,-56,146,-27,-119,251,538,-6,-379,-471,-363
-116,-177,-56,146,-27,-119,257,538,-6,-379,-471,-357
-116,-177,-56,146,-27,-119,263,550,-6,-379,-459,-351
-122,-177,-51,146,-33,-113,269,556,-6,-379,-459,-351
-134,-171,-45,152,-45,-101,263,562,-6,-379,-459,-345
-122,-165,-51,140,-39,-101,263,568,-6,-373,-453,-345
-122,-159,-45,140,-39,-95,257,574,-6,-373,-453,-351
-128,-153,-33,140,-51,-89,257,580,-6,-379,-459,-357
-128,-159,-39,140,-45,-95,263,580,-6,-379,-465,-363
-110,-159,-51,134,-27,-101,275,586,-6,-379,-471,-363
-122,-159,-45,140,-39,-95,275,586,-6,-379,-483,-363
-122,-159,-45,140,-39,-95,275,592,-6,-379,-489,-363
-116,-159,-51,134,-33,-101,287,598,-12,-385,-477,-351
-128,-153,-33,140,-51,-89,293,604,-6,-385,-471,-351
-122,-153,-39,134,-45,-89,293,622,-12,-379,-465,-351
-122,-159,-45,140,-39,-95,305,622,-12,-379,-453,-351
-128,-159,-39,140,-45,-95,311,634,-6,-385,-459,-357
-128,-153,-33,140,-51,-89,311,640,-6,-385,-465,-357
-134,-153,-27,140,-57,-83,311,652,-6,-391,-471,-363
-122,-153,-39,134,-45,-89,317,658,-6,-391,-471,-369
-134,-147,-21,140,-57,-77,329,658,-6,-385,-471,-369
-134,-141,-15,134,-63,-71,335,664,-6,-379,-471,-369
-110,-141,-39,122,-39,-83,341,664,-12,-373,-465,-357
-128,-141,-21,134,-57,-77,347,670,-6,-373,-465,-357
-134,-141,-15,134,-63,-71,359,682,-6,-379,-459,-351
-134,-141,-15,134,-63,-71,377,694,6,-367,-453,-351
-146,-141,-3,140,-75,-65,383,706,6,-373,-447,-351
-146,-141,-3,140,-75,-65,389,718,6,-373,-447,-351
-146,-135,3,140,-75,-59,395,724,0,-367,-453,-357
-134,-129,-3,128,-69,-59,401,736,6,-367,-453,-369
-152,-117,27,134,-93,-48,395,736,0,-367,-459,-375
-152,-111,33,128,-93,-48,407,754,6,-361,-465,-381
-134,-111,15,122,-75,-48,419,760,6,-355,-447,-369
-134,-111,15,122,-75,-48,425,772,12,-349,-441,-369
-140,-111,21,122,-81,-48,437,784,6,-349,-435,-369
-140,-111,21,122,-81,-48,443,796,12,-343,-417,-369
-146,-111,27,128,-87,-48,449,808,18,-337,-417,-363
-152,-105,39,128,-99,-42,455,820,18,-337,-423,-363
-158,-111,39,134,-99,-42,467,832,36,-331,-423,-357
-146,-111,27,128,-87,-48,473,856,36,-319,-411,-357
-164,-99,57,128,-111,-30,485,862,30,-325,-417,-357
-158,-93,57,122,-111,-24,485,874,30,-319,-417,-351
-152,-87,57,116,-105,-24,491,898,36,-319,-411,-351
-146,-81,57,110,-105,-18,497,910,36,-313,-405,-351
-152,-81,63,116,-111,-18,509,910,30,-313,-405,-351
-140,-75,57,104,-99,-18,521,934,36,-307,-393,-345
-170,-69,93,116,-135,6,521,946,36,-307,-387,-345
-194,-69,117,128,-159,18,539,964,42,-301,-387,-345
-176,-69,99,122,-141,6,539,970,36,-295,-387,-345
-176,-69,99,122,-141,6,545,988,36,-295,-381,-339
-176,-63,105,116,-141,12,545,994,30,-301,-381,-345
-176,-57,111,116,-147,18,557,1006,30,-289,-381,-327
-170,-57,105,110,-141,18,563,1018,30,-283,-363,-321
-170,-57,105,110,-141,18,569,1024,30,-277,-351,-315
-170,-51,111,110,-141,24,575,1036,24,-271,-345,-315
-158,-51,99,104,-129,18,581,1054,24,-271,-327,-309
-176,-51,117,110,-147,24,587,1066,18,-265,-321,-309
-188,-46,135,116,-165,36,593,1066,18,-259,-321,-309
-194,-46,141,116,-171,42,593,1066,12,-265,-303,-297
-194,-46,147,116,-171,48,593,1072,12,-253,-285,-297
-188,-40,153,104,-171,54,599,1078,6,-247,-273,-291
-182,-40,147,104,-165,54,599,1078,-6,-235,-273,-273
-176,-34,147,98,-159,54,593,1078,-18,-217,-261,-261
-176,-34,147,98,-159,54,593,1084,-24,-217,-243,-243
-182,-34,153,98,-165,60,593,1090,-30,-205,-225,-237
-176,-28,153,92,-165,60,593,1084,-30,-193,-207,-225
-182,-22,165,92,-171,72,593,1090,-41,-187,-177,-219
-200,-16,189,98,-195,84,593,1078,-53,-181,-171,-213
-200,-22,183,104,-189,78,593,1066,-59,-169,-141,-189
-188,-28,165,98,-177,66,581,1060,-65,-151,-117,-183
-200,-34,171,110,-183,66,581,1054,-83,-139,-105,-165
-200,-40,165,110,-183,60,575,1036,-95,-127,-81,-135
-182,-40,147,104,-165,54,563,1030,-107,-121,-51,-117
-182,-40,147,104,-165,54,557,1012,-119,-103,-33,-99
-176,-40,141,98,-159,48,545,994,-131,-97,-15,-87
-164,-46,123,98,-141,36,533,976,-143,-73,2,-76
-170,-46,129,98,-147,42,521,958,-155,-49,44,-52
-176,-46,129,104,-153,36,503,940,-167,-32,56,-46
-182,-46,135,110,-159,42,479,910,-191,-20,92,-10
-182,-46,129,110,-159,36,455,880,-203,4,134,20
-176,-51,117,110,-147,24,443,844,-215,28,152,32
-164,-57,99,110,-135,12,425,814,-227,52,188,62
-146,-75,63,110,-105,-12,401,784,-251,82,218,92
-134,-87,39,110,-87,-30,377,754,-269,100,242,116
-128,-93,27,110,-81,-42,365,724,-269,130,272,146
-116,-105,3,110,-63,-48,341,688,-287,160,314,176
-128,-105,15,116,-75,-48,323,664,-299,184,344,200
-128,-117,3,122,-69,-53,299,622,-311,208,368,218
-116,-117,-9,116,-57,-59,269,574,-329,232,404,242
-104,-123,-27,110,-39,-71,245,526,-341,244,434,266
-92,-123,-39,104,-27,-77,227,478,-353,274,464,290
-86,-129,-51,104,-21,-83,203,442,-371,304,482,320
-62,-147,-80,104,15,-113,173,418,-377,322,524,344
-62,-153,-86,104,15,-119,149,382,-389,340,542,362
-56,-165,-104,110,26,-137,119,346,-395,370,560,374
-32,-177,-140,104,44,-161,95,316,-395,400,590,404
-38,-177,-134,104,38,-155,77,292,-401,424,620,410
-38,-177,-134,104,38,-155,65,262,-407,442,632,422
-38,-177,-134,104,38,-155,47,238,-407,460,656,452
-26,-177,-146,98,50,-161,29,214,-407,484,686,464
-20,-177,-152,98,56,-167,11,190,-401,520,704,470
-14,-189,-170,98,68,-179,-7,172,-401,544,710,476
-2,-189,-182,92,80,-185,-31,142,-389,568,722,488
-2,-189,-182,92,80,-185,-49,130,-377,580,728,488
-2,-189,-182,92,80,-185,-55,118,-359,604,728,494
3,-195,-206,86,104,-197,-61,106,-353,622,728,488
3,-201,-206,92,98,-203,-67,100,-341,640,734,494
3,-201,-200,98,92,-203,-72,100,-323,652,734,494
3,-201,-200,98,92,-203,-78,82,-305,658,740,494
9,-201,-218,86,110,-209,-90,70,-293,658,728,482
9,-195,-212,86,110,-203,-96,52,-275,658,704,464
9,-195,-212,86,110,-203,-108,52,-269,652,680,452
21,-195,-224,80,122,-209,-120,46,-257,640,674,434
27,-195,-230,74,128,-209,-132,46,-233,616,638,410
33,-195,-236,74,134,-215,-150,46,-221,586,614,386
51,-189,-248,62,146,-215,-150,46,-209,568,590,368
45,-183,-236,62,140,-209,-150,58,-197,550,572,350
39,-183,-230,62,134,-203,-150,70,-191,520,536,320
39,-183,-230,62,134,-203,-150,76,-179,490,512,296
33,-183,-224,68,128,-203,-144,82,-173,472,482,278
21,-177,-206,68,110,-191,-150,88,-167,436,446,248
33,-171,-212,62,122,-191,-156,88,-149,400,410,224
33,-165,-206,56,116,-185,-156,100,-137,370,380,200
33,-159,-200,56,116,-179,-156,106,-125,328,344,176
33,-147,-188,50,110,-167,-162,100,-119,292,308,158
39,-141,-188,44,110,-161,-162,106,-113,256,272,134
39,-135,-182,38,110,-155,-162,106,-107,220,242,104
27,-129,-164,44,92,-143,-162,130,-101,196,212,74
21,-129,-158,44,86,-143,-156,142,-89,178,200,68
21,-129,-158,44,86,-143,-156,154,-83,160,182,50
15,-129,-152,50,80,-137,-144,160,-71,148,152,26
15,-117,-140,44,74,-125,-144,166,-65,136,134,20
33,-111,-152,32,92,-131,-144,172,-53,112,116,2
15,-105,-128,38,68,-113,-144,178,-47,94,98,-22
21,-105,-134,32,74,-119,-144,178,-35,70,68,-40
27,-105,-140,32,80,-119,-144,190,-30,52,62,-52
21,-99,-128,32,74,-113,-138,202,-30,34,56,-58
3,-99,-110,38,56,-101,-132,214,-30,16,38,-70
9,-99,-116,38,62,-107,-126,220,-30,10,38,-76
21,-93,-122,26,68,-107,-120,226,-30,4,38,-76
3,-87,-92,38,44,-89,-120,232,-24,-8,20,-93
3,-87,-92,38,44,-89,-120,238,-24,-20,8,-99
15,-87,-110,26,62,-95,-120,244,-18,-32,-4,-105
3,-81,-86,32,38,-83,-114,250,-18,-37,-4,-105
3,-81,-92,32,44,-83,-114,250,-12,-43,-4,-111
9,-81,-98,26,50,-89,-114,250,-6,-49,-9,-117
15,-81,-104,26,56,-89,-108,256,0,-43,-15,-123
9,-81,-98,26,50,-89,-108,256,0,-49,-21,-129
3,-81,-92,32,44,-83,-102,262,6,-55,-15,-123
9,-81,-98,26,50,-89,-102,262,6,-55,-15,-123
-2,-75,-68,38,26,-71,-96,268,12,-67,-21,-123
-8,-75,-62,38,26,-71,-96,268,12,-73,-21,-123
3,-69,-68,32,26,-71,-102,268,6,-79,-27,-135
3,-69,-74,26,32,-71,-102,268,6,-85,-39,-135
3,-63,-62,26,26,-65,-108,262,0,-97,-45,-141
9,-63,-80,20,44,-71,-114,256,0,-103,-51,-141
3,-69,-80,26,38,-71,-108,256,6,-97,-45,-141
3,-69,-68,32,26,-71,-108,262,6,-97,-51,-147
-2,-69,-62,32,26,-65,-102,262,0,-97,-45,-147
3,-69,-74,26,32,-71,-102,262,0,-97,-51,-147
-8,-63,-51,32,26,-59,-102,268,0,-91,-57,-147
-8,-63,-51,32,26,-59,-102,262,0,-91,-57,-147
3,-63,-62,26,26,-65,-102,268,0,-85,-57,-141
-14,-63,-51,38,21,-53,-102,268,0,-97,-63,-153
-8,-69,-56,38,26,-65,-102,262,0,-103,-57,-153
3,-69,-68,32,26,-71,-102,256,0,-103,-51,-153
3,-75,-80,32,38,-77,-96,250,0,-103,-45,-153
-8,-75,-62,38,26,-71,-96,244,0,-103,-51,-153
-8,-69,-56,38,26,-65,-90,250,0,-103,-51,-153
-14,-69,-51,38,21,-59,-90,250,0,-103,-51,-153
-26,-63,-45,44,9,-48,-84,244,0,-103,-63,-153
-32,-63,-39,44,3,-48,-84,244,0,-103,-51,-153
-20,-63,-51,38,15,-53,-90,244,0,-103,-57,-159
-14,-63,-51,38,21,-53,-96,238,-6,-103,-57,-165
3,-63,-62,26,26,-65,-102,238,-6,-109,-69,-171
3,-63,-68,26,32,-65,-108,238,-6,-109,-69,-165
3,-57,-56,26,26,-59,-102,238,-6,-103,-63,-159
-14,-57,-51,32,15,-48,-102,238,0,-103,-57,-165
-20,-57,-45,38,9,-48,-96,238,0,-97,-51,-159
-2,-57,-51,26,26,-53,-96,238,0,-97,-51,-159
-14,-57,-51,32,15,-48,-90,238,0,-91,-51,-171
-14,-57,-51,32,15,-48,-90,226,0,-91,-51,-171
-2,-57,-51,26,26,-53,-90,226,0,-85,-57,-165
-20,-57,-45,38,9,-48,-90,226,0,-85,-57,-165
-14,-51,-45,32,15,-48,-96,226,0,-85,-51,-171
-2,-57,-51,26,26,-53,-96,226,0,-85,-45,-171
3,-51,-51,20,26,-53,-96,226,0,-85,-39,-177
-2,-51,-51,26,26,-48,-96,226,0,-85,-39,-171
-8,-51,-51,26,21,-48,-96,232,0,-73,-33,-165
-14,-57,-51,32,15,-48,-90,232,0,-73,-33,-171
-32,-57,-33,44,-3,-48,-90,232,0,-67,-45,-165
-38,-57,-27,44,-9,-48,-90,226,0,-61,-45,-165
-20,-57,-45,38,9,-48,-90,226,0,-61,-45,-171
-14,-57,-51,32,15,-48,-90,220,-6,-67,-45,-171
-2,-57,-51,26,26,-53,-90,214,-6,-73,-45,-171
3,-57,-56,26,26,-59,-96,214,0,-73,-27,-171
-2,-57,-51,26,26,-53,-96,208,0,-67,-33,-171
-2,-57,-51,26,26,-53,-96,208,-6,-67,-45,-165
-8,-57,-51,32,21,-53,-96,202,-6,-61,-27,-165
-8,-57,-51,32,21,-53,-96,196,-6,-61,-27,-171
-14,-57,-51,32,15,-48,-96,202,-6,-61,-27,-177
-14,-63,-51,38,21,-53,-102,196,-6,-67,-33,-177
-8,-63,-51,32,26,-59,-102,190,0,-67,-33,-183
-8,-57,-51,32,21,-53,-102,190,-6,-67,-33,-183
-2,-51,-51,26,26,-48,-102,184,-12,-73,-33,-189
-2,-57,-51,26,26,-53,-108,184,-12,-73,-27,-195
-2,-51,-51,26,26,-48,-108,184,-18,-73,-33,-201
-2,-51,-51,26,26,-48,-102,184,-18,-67,-33,-207
-2,-51,-51,26,26,-48,-102,184,-6,-67,-33,-201
3,-51,-51,20,26,-53,-102,184,-6,-67,-33,-201
-20,-51,-39,32,9,-48,-102,184,0,-61,-33,-195
-38,-51,-21,44,-9,-42,-108,184,0,-61,-33,-195
-8,-57,-51,32,21,-53,-108,184,0,-67,-33,-189
-2,-57,-51,26,26,-53,-108,178,-6,-73,-33,-189
-2,-63,-56,32,26,-59,-108,178,-6,-79,-33,-183
3,-63,-74,20,38,-65,-108,178,-6,-79,-33,-189
3,-57,-62,20,26,-59,-102,178,-12,-73,-27,-189
3,-57,-56,26,26,-59,-102,172,-12,-73,-27,-189
3,-57,-56,26,26,-59,-96,172,-18,-67,-21,-189
3,-57,-62,20,26,-59,-102,172,-18,-73,-27,-189
-2,-57,-51,26,26,-53,-108,172,-12,-79,-33,-189
-2,-57,-51,26,26,-53,-102,172,-12,-85,-39,-189
3,-57,-56,26,26,-59,-108,172,-6,-91,-39,-195
3,-57,-56,26,26,-59,-108,172,-6,-91,-39,-195
3,-57,-56,26,26,-59,-102,172,-6,-103,-39,-195
3,-57,-68,20,32,-59,-108,172,-6,-103,-39,-195
3,-57,-56,26,26,-59,-102,166,-6,-109,-39,-195
3,-57,-56,26,26,-59,-102,166,-6,-115,-39,-189
3,-57,-56,26,26,-59,-102,166,0,-115,-39,-195
3,-57,-56,26,26,-59,-108,166,0,-115,-39,-201
-14,-57,-51,32,15,-48,-108,166,-6,-121,-57,-207
-14,-57,-51,32,15,-48,-108,166,-6,-121,-57,-207
-2,-51,-51,26,26,-48,-108,166,-6,-127,-57,-213
3,-51,-51,20,26,-53,-108,166,-6,-127,-57,-213
3,-51,-56,20,26,-53,-114,166,-18,-127,-63,-207
9,-51,-68,20,38,-59,-114,166,-18,-127,-63,-207
3,-51,-62,20,32,-53,-108,166,-12,-121,-57,-207
3,-51,-56,20,26,-53,-102,166,-12,-121,-57,-201
3,-51,-51,20,26,-53,-96,166,-6,-115,-51,-201
-2,-51,-51,26,26,-48,-102,166,-6,-115,-51,-207
-8,-57,-51,32,21,-53,-102,166,-12,-121,-57,-207
-8,-57,-51,32,21,-53,-102,166,-12,-121,-57,-207
3,-63,-68,26,32,-65,-102,166,-12,-121,-57,-201
3,-63,-68,26,32,-65,-102,172,-6,-121,-57,-201
3,-57,-68,20,32,-59,-102,172,-12,-121,-51,-201
9,-57,-74,20,38,-65,-108,172,-12,-121,-45,-195
15,-51,-74,20,44,-59,-108,172,-18,-121,-39,-201
9,-51,-68,20,38,-59,-108,172,-18,-121,-39,-201
3,-51,-62,20,32,-53,-102,172,-18,-115,-39,-201
3,-51,-62,20,32,-53,-102,178,-24,-121,-39,-207
3,-51,-51,20,26,-53,-96,178,-18,-115,-57,-213
3,-51,-51,20,26,-53,-96,178,-18,-115,-39,-213
3,-46,-56,20,26,-48,-102,178,-18,-115,-39,-213
9,-46,-62,20,32,-53,-102,178,-18,-115,-39,-213
15,-46,-62,20,38,-48,-108,178,-18,-115,-39,-201
27,-46,-74,15,50,-53,-108,178,-18,-115,-33,-195
21,-46,-68,15,44,-53,-108,172,-18,-121,-33,-201
3,-46,-51,20,26,-48,-108,172,-18,-121,-45,-207
9,-46,-56,20,32,-48,-108,172,-24,-121,-33,-213
21,-46,-68,15,44,-53,-108,172,-30,-121,-33,-225
3,-46,-51,20,26,-48,-108,172,-30,-127,-39,-225
3,-46,-51,20,26,-48,-108,172,-30,-127,-39,-225
9,-46,-56,20,32,-48,-108,172,-30,-127,-45,-219
9,-46,-56,20,32,-48,-108,172,-30,-127,-45,-219
15,-46,-62,20,38,-48,-114,166,-30,-127,-39,-219
27,-46,-74,15,50,-53,-114,166,-30,-127,-39,-219
21,-46,-68,15,44,-53,-108,166,-30,-127,-33,-219
21,-46,-68,15,44,-53,-108,166,-30,-127,-33,-219
9,-46,-62,20,32,-53,-102,172,-24,-127,-33,-213
3,-46,-56,20,26,-48,-102,172,-24,-127,-33,-213
3,-51,-51,20,26,-53,-96,178,-18,-127,-39,-207
-2,-51,-51,26,26,-48,-84,178,-18,-133,-39,-207
3,-46,-51,20,26,-48,-90,172,-24,-133,-39,-207
3,-46,-51,20,26,-48,-96,166,-24,-133,-45,-207
3,-46,-51,20,26,-48,-108,160,-30,-133,-45,-207
9,-46,-56,20,32,-48,-114,154,-24,-133,-39,-207
9,-46,-56,20,32,-48,-108,160,-18,-127,-39,-207
3,-46,-51,20,26,-48,-108,166,-18,-127,-39,-213
9,-46,-62,20,32,-53,-102,172,-18,-121,-33,-213
9,-46,-62,20,32,-53,-102,172,-24,-121,-33,-213
3,-46,-51,20,26,-48,-102,172,-24,-127,-51,-213
3,-46,-51,20,26,-48,-96,172,-24,-127,-39,-213
3,-51,-56,20,26,-53,-96,172,-18,-133,-39,-213
3,-51,-56,20,26,-53,-96,172,-12,-139,-45,-213
-2,-51,-51,26,26,-48,-102,166,-18,-139,-45,-213
3,-57,-62,20,26,-59,-102,166,-12,-139,-39,-213
3,-57,-62,20,26,-59,-108,160,-18,-139,-39,-213
3,-57,-62,20,26,-59,-108,160,-18,-139,-39,-213
3,-57,-56,26,26,-59,-102,166,-24,-133,-39,-213
3,-57,-68,20,32,-59,-108,166,-24,-133,-39,-213
-8,-57,-51,32,21,-53,-102,172,-24,-127,-51,-213
-26,-57,-39,38,3,-48,-96,172,-24,-127,-51,-213
-2,-57,-51,26,26,-53,-96,166,-24,-133,-57,-213
3,-57,-56,26,26,-59,-96,166,-18,-133,-57,-213
3,-57,-56,26,26,-59,-96,154,-18,-145,-63,-213
9,-57,-74,20,38,-65,-96,148,-18,-145,-57,-213
27,-46,-80,15,50,-59,-102,148,-18,-145,-39,-201
3,-46,-51,20,26,-48,-90,160,-18,-145,-45,-213
-14,-51,-45,32,15,-48,-84,160,-12,-145,-45,-213
-8,-51,-51,26,21,-48,-90,160,-18,-139,-45,-213
-8,-51,-51,26,21,-48,-90,160,-18,-139,-45,-213
-2,-51,-51,26,26,-48,-96,160,-24,-133,-45,-213
-2,-51,-51,26,26,-48,-96,160,-24,-133,-45,-213
3,-51,-51,20,26,-53,-102,154,-24,-139,-51,-219
3,-51,-56,20,26,-53,-102,154,-24,-139,-51,-219
3,-51,-62,20,32,-53,-108,148,-24,-145,-57,-225
9,-51,-68,20,38,-59,-108,148,-24,-145,-57,-225
3,-51,-62,20,32,-53,-102,154,-24,-139,-51,-219
3,-51,-56,20,26,-53,-96,154,-24,-139,-51,-219
3,-51,-51,20,26,-53,-90,160,-24,-133,-45,-213
-2,-51,-51,26,26,-48,-84,160,-24,-133,-45,-213
3,-51,-51,20,26,-53,-90,160,-30,-139,-51,-219
3,-51,-51,20,26,-53,-90,160,-30,-139,-51,-219
3,-51,-56,20,26,-53,-96,160,-30,-145,-57,-225
3,-51,-56,20,26,-53,-96,160,-30,-145,-57,-225
3,-51,-56,20,26,-53,-96,166,-30,-139,-51,-225
3,-51,-56,20,26,-53,-96,166,-30,-139,-51,-225
3,-51,-56,20,26,-53,-96,172,-24,-133,-45,-225
3,-51,-56,20,26,-53,-96,172,-24,-133,-45,-225
3,-51,-56,20,26,-53,-96,172,-24,-133,-45,-225
3,-51,-56,20,26,-53,-96,172,-24,-133,-45,-225
3,-51,-56,20,26,-53,-96,172,-24,-133,-45,-225
3,-51,-56,20,26,-53,-96,172,-24,-133,-45,-225
3,-51,-62,20,32,-53,-102,166,-30,-139,-51,-231
9,-51,-68,20,38,-59,-108,166,-30,-139,-51,-231
15,-51,-74,20,44,-59,-114,160,-30,-145,-57,-237
21,-51,-80,20,50,-65,-120,160,-30,-145,-57,-237
9,-46,-62,20,32,-53,-114,166,-30,-145,-51,-237
3,-46,-56,20,26,-48,-108,166,-30,-145,-45,-237
3,-46,-51,20,26,-48,-102,172,-24,-145,-39,-237
-2,-46,-45,20,21,-48,-96,172,-24,-145,-33,-237
3,-46,-51,20,26,-48,-96,166,-30,-151,-39,-237
3,-46,-51,20,26,-48,-96,166,-30,-151,-45,-237
3,-51,-56,20,26,-53,-96,160,-30,-157,-51,-237
3,-51,-56,20,26,-53,-96,160,-30,-157,-57,-237
3,-51,-56,20,26,-53,-96,166,-30,-151,-51,-237
3,-51,-56,20,26,-53,-96,166,-30,-151,-51,-237
3,-51,-56,20,26,-53,-96,172,-30,-145,-45,-237
3,-51,-56,20,26,-53,-96,172,-30,-145,-45,-237
3,-57,-56,26,26,-59,-96,172,-30,-145,-45,-237
3,-57,-56,26,26,-59,-96,172,-30,-145,-45,-237
-2,-63,-56,32,26,-59,-96,172,-24,-145,-45,-237
-2,-63,-56,32,26,-59,-96,172,-24,-145,-45,-237
3,-57,-62,20,26,-59,-102,166,-24,-151,-51,-237
3,-57,-68,20,32,-59,-102,166,-24,-151,-51,-237
15,-51,-74,20,44,-59,-108,160,-24,-157,-57,-237
21,-51,-80,20,50,-65,-108,160,-24,-157,-57,-237
15,-46,-68,20,38,-53,-102,166,-24,-157,-51,-237
9,-46,-62,20,32,-53,-102,166,-24,-157,-45,-237
3,-46,-51,20,26,-48,-96,172,-24,-157,-39,-237
3,-46,-51,20,26,-48,-96,172,-24,-157,-33,-237
3,-46,-51,20,26,-48,-102,166,-18,-157,-39,-237
3,-46,-51,20,26,-48,-102,166,-18,-157,-45,-237
9,-46,-56,20,32,-48,-108,160,-12,-157,-51,-237
9,-46,-56,20,32,-48,-108,160,-12,-157,-57,-237
9,-46,-56,20,32,-48,-108,160,-12,-157,-51,-231
9,-46,-56,20,32,-48,-108,160,-12,-157,-51,-231
9,-46,-56,20,32,-48,-108,160,-12,-157,-45,-225
9,-46,-56,20,32,-48,-108,160,-12,-157,-45,-225
3,-46,-56,20,26,-48,-102,160,-12,-151,-45,-225
3,-46,-56,20,26,-48,-102,160,-12,-151,-45,-225
3,-51,-56,20,26,-53,-96,160,-12,-145,-45,-225
3,-51,-56,20,26,-53,-96,160,-12,-145,-45,-225
3,-46,-56,20,26,-48,-102,154,-12,-151,-51,-225
9,-46,-62,20,32,-53,-102,154,-12,-151,-51,-225
15,-46,-62,20,38,-48,-108,148,-12,-157,-57,-225
21,-46,-68,15,44,-53,-108,148,-12,-157,-57,-225
9,-46,-56,20,32,-48,-102,154,-12,-151,-51,-225
3,-46,-51,20,26,-48,-102,154,-12,-151,-45,-225
3,-46,-51,20,26,-48,-96,160,-12,-145,-39,-225
-2,-46,-45,20,21,-48,-96,160,-12,-145,-33,-225
3,-46,-51,20,26,-48,-96,160,-6,-151,-39,-225
3,-46,-51,20,26,-48,-96,160,-6,-151,-45,-225
3,-51,-56,20,26,-53,-96,160,0,-157,-51,-225
3,-51,-56,20,26,-53,-96,160,0,-157,-57,-225
3,-46,-56,20,26,-48,-102,154,0,-157,-51,-225
9,-46,-62,20,32,-53,-102,154,0,-157,-51,-225
15,-46,-62,20,38,-48,-108,154,6,-157,-45,-225
33,-46,-80,9,56,-59,-108,154,6,-157,-45,-225
27,-46,-68,9,50,-48,-96,166,6,-157,-39,-231
15,-40,-51,15,32,-48,-90,172,6,-151,-39,-231
9,-34,-51,15,26,-42,-84,178,6,-139,-33,-231
15,-34,-51,9,32,-42,-84,178,6,-133,-27,-231
15,-28,-51,9,26,-36,-84,178,6,-139,-27,-225
27,-28,-51,3,38,-42,-84,178,12,-133,-21,-225
45,-34,-74,-3,62,-48,-90,166,18,-139,-27,-213
57,-34,-86,-9,74,-53,-90,160,18,-139,-33,-213
45,-28,-68,-9,56,-48,-96,166,18,-139,-27,-213
57,-28,-80,-15,68,-48,-102,166,12,-139,-27,-213
57,-28,-80,-15,68,-48,-102,172,12,-139,-21,-207
51,-28,-74,-9,62,-48,-102,178,12,-139,-21,-207
69,-28,-92,-21,80,-53,-102,178,12,-133,-27,-207
81,-34,-110,-21,98,-65,-108,178,12,-133,-21,-201
87,-34,-116,-27,104,-65,-108,178,12,-121,-27,-201
87,-34,-116,-27,104,-65,-108,178,24,-121,-27,-189
93,-22,-110,-33,104,-59,-108,178,30,-115,-4,-183
93,-16,-104,-39,98,-53,-108,184,36,-109,-4,-183
99,-4,-98,-45,98,-48,-102,190,42,-109,-4,-177
99,2,-92,-51,98,-48,-102,196,48,-103,2,-171
93,2,-86,-45,92,-48,-90,202,60,-97,2,-165
87,2,-80,-45,86,-42,-78,208,66,-91,2,-159
99,2,-92,-51,98,-48,-72,226,66,-79,14,-159
105,2,-98,-51,104,-48,-72,232,72,-79,20,-153
105,-4,-104,-51,104,-48,-84,238,72,-73,14,-153
111,-4,-110,-51,110,-48,-96,238,84,-61,32,-147
147,-4,-146,-69,146,-65,-108,238,90,-49,38,-141
141,2,-134,-69,140,-59,-108,238,90,-43,38,-129
135,20,-110,-75,122,-48,-114,244,96,-37,44,-123
129,26,-98,-75,116,-42,-120,232,102,-37,56,-117
141,26,-110,-81,128,-48,-126,232,108,-37,62,-117
123,26,-92,-75,110,-36,-138,226,108,-37,44,-129
129,26,-98,-75,116,-42,-144,214,90,-55,38,-141
129,38,-86,-81,110,-30,-144,196,78,-67,32,-141
117,50,-62,-81,92,-12,-138,178,54,-79,14,-147
105,38,-62,-69,86,-18,-138,172,48,-79,8,-147
117,26,-86,-69,104,-36,-138,154,42,-91,14,-141
117,14,-98,-63,110,-48,-138,154,36,-103,8,-141
117,14,-98,-63,110,-48,-132,160,24,-109,14,-141
123,2,-116,-63,122,-48,-132,160,18,-103,20,-147
129,2,-122,-63,128,-53,-132,160,24,-97,14,-147
105,2,-98,-51,104,-48,-132,160,24,-103,14,-147
99,2,-92,-51,98,-48,-126,166,30,-97,8,-147
99,2,-92,-51,98,-48,-120,166,30,-97,14,-141
105,-4,-104,-51,104,-48,-120,160,30,-97,14,-141
81,-16,-92,-33,86,-48,-108,166,30,-103,2,-153
87,-28,-110,-27,98,-59,-108,166,30,-109,-4,-159
81,-28,-104,-27,92,-59,-102,166,24,-115,-4,-177
57,-28,-80,-15,68,-48,-102,166,18,-121,-9,-189
45,-40,-80,-3,62,-53,-102,154,12,-127,-21,-201
33,-40,-68,3,50,-48,-102,154,6,-133,-21,-207
21,-46,-62,15,44,-48,-102,148,-6,-145,-33,-219
27,-46,-74,15,50,-53,-102,142,-6,-157,-39,-219
45,-46,-92,3,68,-65,-102,142,-12,-163,-39,-225
39,-46,-86,9,62,-59,-108,136,-12,-169,-45,-225
33,-46,-86,15,56,-65,-108,130,-12,-169,-45,-219
51,-46,-98,3,74,-65,-108,130,-12,-163,-45,-219
39,-46,-86,9,62,-59,-108,130,-12,-163,-45,-219
39,-46,-80,3,62,-53,-108,130,-12,-157,-45,-219
39,-46,-80,3,62,-53,-108,130,-12,-157,-45,-219
33,-46,-74,9,56,-53,-114,136,-12,-151,-45,-219
27,-46,-74,15,50,-53,-114,136,-12,-151,-57,-225
21,-46,-68,15,44,-53,-108,142,-12,-145,-57,-225
33,-46,-74,9,56,-53,-108,148,-12,-139,-51,-225
27,-46,-74,15,50,-53,-108,142,0,-145,-51,-225
33,-46,-80,9,56,-59,-102,142,0,-151,-51,-225
45,-46,-98,9,68,-71,-102,136,0,-157,-45,-225
45,-46,-98,9,68,-71,-102,136,0,-163,-45,-219
33,-46,-74,9,56,-53,-114,148,0,-151,-45,-219
15,-46,-56,15,38,-48,-102,148,12,-139,-45,-207
39,-40,-74,3,56,-48,-102,148,12,-133,-27,-195
15,-40,-51,15,32,-48,-102,142,18,-133,-27,-207
3,-34,-45,15,26,-36,-102,148,36,-127,-39,-207
39,-40,-74,3,56,-48,-114,136,42,-109,-15,-189
63,-22,-80,-21,74,-48,-138,118,54,-97,-4,-177
51,-10,-56,-21,56,-36,-156,100,78,-61,-4,-171
63,2,-56,-33,62,-30,-192,100,126,-20,44,-141
105,8,-92,-57,98,-48,-228,88,192,70,122,-87
87,32,-51,-57,68,-12,-282,46,282,184,182,-52
111,38,-68,-75,92,-18,-348,22,384,280,236,-10
171,50,-116,-111,146,-36,-432,22,534,406,308,32
183,62,-116,-123,152,-30,-498,10,708,514,338,56
189,74,-110,-129,152,-24,-552,-20,870,574,314,32
255,50,-206,-153,236,-71,-600,-44,1068,640,314,8
339,50,-290,-195,314,-113,-708,-103,1260,736,350,32
369,62,-302,-219,338,-113,-852,-265,1434,850,374,50
411,104,-302,-255,356,-95,-978,-385,1584,934,392,50
483,134,-344,-303,416,-101,-1020,-391,1776,1000,410,50
525,158,-368,-339,452,-101,-1044,-403,1956,1078,422,68
567,224,-338,-399,458,-48,-1146,-607,2081,1192,494,134
657,398,-260,-525,458,66,-1344,-973,2177,1432,692,296
747,614,-134,-681,446,234,-1668,-1357,2327,1780,974,548
819,830,3,-825,404,420,-2046,-1681,2548,2295,1364,866
933,1076,141,-999,392,612,-2436,-2029,2764,2900,1844,1220
1023,1388,357,-1203,332,876,-2795,-2502,2866,3602,2413,1652
1083,1694,609,-1389,236,1158,-3203,-3054,2914,4436,3108,2197
1137,2005,867,-1569,134,1434,-3581,-3612,2926,5293,3870,2784
1137,2269,1131,-1701,9,1698,-3881,-4152,2848,6061,4578,3306
987,2502,1509,-1743,-255,2009,-4073,-4644,2554,6589,5093,3666
789,2682,1893,-1737,-543,2291,-4223,-5279,1530,6325,5177,3732
573,2760,2180,-1671,-801,2470,-4355,-6203,-575,5023,4794,3534
375,2634,2258,-1503,-939,2446,-4409,-6935,-2842,3398,4218,3246
273,2239,1959,-1257,-837,2105,-4211,-6839,-3844,2283,3648,2916
279,1610,1323,-945,-513,1464,-3785,-6065,-3688,1666,3174,2616
261,998,729,-633,-225,870,-3353,-5315,-3538,1042,2766,2364
201,602,399,-399,-93,498,-3017,-4776,-3742,226,2299,2065
177,314,135,-243,26,222,-2657,-4200,-3832,-631,1688,1628
147,56,-86,-99,116,-18,-2220,-3486,-3622,-1483,794,956
63,-141,-212,32,134,-173,-1758,-2802,-3202,-2071,-159,224
21,-267,-290,116,158,-281,-1338,-2191,-2638,-2005,-573,-165
15,-345,-368,158,194,-353,-984,-1621,-2063,-1627,-609,-339
-20,-381,-356,200,164,-371,-708,-1183,-1637,-1429,-723,-549
-44,-357,-308,200,128,-335,-534,-889,-1331,-1249,-735,-609
-8,-327,-314,170,146,-323,-402,-667,-1091,-991,-543,-507
-20,-303,-284,164,122,-293,-282,-439,-875,-829,-441,-477
-62,-291,-230,176,74,-263,-168,-271,-701,-739,-441,-495
-74,-285,-206,176,56,-245,-96,-145,-545,-619,-375,-477
-50,-261,-206,152,68,-233,-49,-44,-425,-523,-315,-447
-68,-237,-164,152,38,-203,11,52,-317,-469,-303,-441
-68,-213,-140,140,26,-179,41,112,-263,-427,-297,-435
-26,-183,-152,104,56,-167,71,148,-185,-385,-249,-399
-14,-159,-140,86,56,-149,113,196,-125,-343,-231,-375
-38,-135,-92,86,26,-113,131,238,-83,-319,-225,-357
-26,-135,-104,80,32,-119,149,250,-71,-313,-213,-351
-32,-129,-92,80,26,-113,155,274,-65,-313,-201,-339
-50,-123,-68,86,15,-95,161,292,-47,-313,-207,-339
-56,-129,-68,92,9,-101,173,298,-30,-313,-207,-345
-56,-129,-68,92,9,-101,167,316,-30,-313,-219,-369
-62,-135,-68,98,9,-101,173,328,-24,-313,-237,-387
-50,-147,-92,98,26,-119,179,340,-18,-325,-243,-393
-26,-147,-116,86,38,-131,179,340,-18,-331,-243,-405
-50,-147,-92,98,26,-119,185,340,-12,-331,-243,-405
-50,-135,-80,92,21,-107,191,346,-6,-325,-243,-405
-44,-135,-86,86,26,-113,203,364,6,-325,-237,-387
-62,-135,-68,98,9,-101,209,364,12,-325,-237,-381
-62,-135,-68,98,9,-101,209,388,18,-313,-237,-375
-62,-135,-68,98,9,-101,215,394,24,-313,-225,-375
-56,-135,-74,92,15,-107,221,400,30,-307,-237,-387
-56,-135,-74,92,15,-107,221,400,30,-307,-243,-393
-44,-135,-86,86,26,-113,221,400,30,-313,-249,-405
-38,-135,-92,86,26,-113,227,388,30,-319,-255,-411
-44,-135,-86,86,26,-113,233,394,36,-325,-255,-411
-44,-135,-86,86,26,-113,233,400,36,-325,-255,-411
-50,-129,-74,86,15,-101,239,412,42,-331,-237,-399
-62,-129,-62,92,3,-95,245,424,42,-331,-231,-399
-74,-129,-51,98,-9,-89,251,424,42,-331,-231,-393
-62,-129,-62,92,3,-95,251,424,42,-331,-237,-393
-56,-129,-68,92,9,-101,251,424,42,-337,-243,-399
-68,-129,-56,98,-3,-95,257,424,42,-343,-261,-405
-50,-123,-68,86,15,-95,257,424,36,-337,-261,-405
-44,-123,-74,80,21,-101,257,424,36,-349,-267,-411
-44,-117,-68,80,15,-95,257,424,36,-349,-261,-411
-50,-117,-62,80,9,-89,263,430,30,-349,-255,-411
-50,-117,-62,80,9,-89,263,436,30,-349,-249,-405
-62,-117,-51,86,-3,-83,275,436,30,-349,-243,-399
-74,-123,-51,98,-9,-83,269,436,30,-355,-249,-399
-62,-123,-56,92,3,-89,269,436,36,-355,-249,-405
-62,-129,-62,92,3,-95,275,442,36,-349,-243,-399
-62,-129,-62,92,3,-95,281,442,30,-349,-255,-411
-50,-135,-80,92,21,-107,281,442,30,-355,-249,-411
-50,-135,-80,92,21,-107,281,442,30,-355,-249,-411
-62,-129,-62,92,3,-95,287,448,30,-355,-249,-411
-68,-129,-56,98,-3,-95,293,448,30,-355,-249,-405
-74,-129,-51,98,-9,-89,299,454,30,-355,-243,-399
-86,-129,-51,104,-21,-83,305,460,30,-355,-243,-399
-92,-123,-39,104,-27,-77,311,460,30,-361,-249,-393
-80,-117,-45,98,-21,-77,311,466,30,-355,-243,-393
-74,-111,-45,92,-15,-71,317,466,30,-361,-249,-399
-80,-105,-33,92,-27,-65,317,472,30,-367,-255,-405
-86,-111,-33,98,-27,-65,317,478,30,-361,-249,-411
-68,-117,-51,92,-9,-83,329,484,30,-361,-249,-411
-86,-117,-39,98,-27,-71,323,490,30,-355,-249,-411
-86,-123,-45,104,-21,-77,323,496,30,-355,-249,-411
-80,-123,-51,98,-15,-83,329,496,36,-367,-243,-399
-92,-117,-33,104,-33,-71,335,502,42,-367,-243,-399
-86,-117,-39,98,-27,-71,329,514,48,-367,-243,-399
-86,-123,-45,104,-21,-77,341,514,48,-367,-243,-399
-80,-123,-51,98,-15,-83,347,520,48,-367,-243,-399
-80,-117,-45,98,-21,-77,347,520,48,-367,-243,-399
-74,-117,-51,92,-15,-77,347,526,42,-367,-243,-399
-62,-117,-51,86,-3,-83,353,526,42,-367,-243,-405
-86,-111,-33,98,-27,-65,359,526,54,-367,-243,-405
-92,-105,-21,98,-39,-59,365,532,54,-361,-243,-405
-80,-105,-33,92,-27,-65,365,532,60,-361,-243,-393
-104,-105,-9,104,-51,-53,371,544,66,-361,-243,-393
-98,-105,-15,98,-45,-53,383,538,60,-367,-243,-393
-92,-105,-21,98,-39,-59,401,538,72,-355,-243,-393
-92,-105,-21,98,-39,-59,407,532,66,-361,-243,-399
-86,-105,-27,92,-33,-59,413,532,66,-361,-243,-399
-92,-105,-21,98,-39,-59,419,526,72,-349,-243,-393
-80,-99,-27,86,-27,-59,425,520,78,-349,-231,-399
-104,-93,3,98,-57,-48,425,508,84,-343,-225,-393
-104,-87,9,92,-57,-48,437,508,90,-337,-219,-393
-98,-87,3,92,-51,-48,449,508,90,-325,-213,-381
-98,-87,3,92,-51,-48,461,514,96,-319,-213,-381
-116,-87,21,98,-69,-42,473,520,90,-313,-219,-381
-116,-87,21,98,-69,-42,479,526,96,-307,-207,-381
-110,-87,15,98,-63,-42,485,544,96,-307,-201,-381
-116,-81,27,98,-75,-36,491,556,96,-307,-207,-381
-110,-87,15,98,-63,-42,503,574,108,-307,-201,-381
-98,-87,3,92,-51,-48,509,598,108,-295,-189,-381
-128,-81,39,104,-87,-30,533,616,114,-289,-189,-381
-128,-75,45,98,-87,-24,539,640,114,-283,-189,-375
-134,-75,51,104,-93,-18,557,670,132,-271,-177,-375
-134,-69,57,98,-99,-12,569,694,132,-271,-171,-375
-134,-69,57,98,-99,-12,575,700,126,-259,-171,-369
-116,-63,45,86,-81,-18,587,724,132,-253,-159,-363
-140,-57,75,98,-111,0,581,736,132,-241,-153,-357
-158,-57,93,104,-129,12,599,754,138,-235,-153,-357
-152,-63,81,104,-117,0,611,778,144,-229,-147,-357
-152,-63,81,104,-117,0,617,808,144,-229,-141,-351
-164,-63,93,110,-129,6,629,832,150,-235,-135,-357
-164,-57,99,110,-135,12,641,856,150,-223,-135,-339
-158,-57,93,104,-129,12,641,874,150,-211,-123,-333
-158,-57,93,104,-129,12,647,880,150,-205,-111,-327
-158,-51,99,104,-129,18,647,898,144,-193,-111,-327
-146,-51,87,98,-117,12,653,910,144,-187,-93,-315
-152,-46,99,98,-129,18,665,928,144,-175,-87,-315
-164,-46,117,98,-141,30,665,928,144,-169,-87,-315
-158,-46,117,92,-135,36,671,934,144,-169,-69,-297
-158,-40,123,92,-141,42,671,940,144,-157,-51,-297
-164,-34,135,92,-147,48,683,958,150,-145,-45,-291
-164,-34,135,92,-147,48,683,964,138,-133,-45,-273
-170,-34,141,92,-153,54,683,976,138,-109,-39,-261
-176,-34,147,98,-159,54,683,988,132,-109,-15,-243
-170,-40,135,98,-153,48,683,994,126,-97,-4,-231
-158,-34,129,86,-141,48,683,988,126,-85,2,-219
-152,-34,123,86,-135,42,683,994,120,-79,26,-207
-164,-28,141,86,-153,54,683,982,114,-73,32,-201
-170,-34,141,92,-153,54,683,976,108,-61,62,-177
-158,-40,123,92,-141,42,671,970,102,-43,86,-171
-176,-46,135,104,-153,42,671,970,84,-32,98,-153
-176,-46,129,104,-153,36,665,952,72,-32,122,-123
-170,-46,117,104,-147,30,653,946,60,-14,152,-105
-170,-46,117,104,-147,30,647,928,48,4,170,-87
-176,-51,117,110,-147,24,629,910,36,22,188,-76
-164,-57,99,110,-135,12,617,898,24,46,218,-64
-158,-63,87,110,-123,6,611,868,18,58,248,-46
-158,-69,81,110,-123,0,593,844,6,76,254,-40
-152,-75,69,110,-111,-12,575,802,-12,88,284,-10
-146,-81,57,110,-105,-18,551,760,-24,112,320,20
-152,-87,57,116,-105,-24,533,724,-30,130,338,32
-146,-93,45,116,-99,-30,515,694,-35,154,374,62
-140,-111,21,122,-81,-48,479,670,-59,178,404,92
-134,-123,3,128,-69,-53,455,640,-77,196,434,116
-128,-123,-3,122,-63,-59,431,598,-89,214,452,134
-116,-135,-27,122,-45,-77,413,556,-107,238,482,164
-128,-129,-9,128,-63,-65,383,514,-125,256,500,176
-128,-141,-21,134,-57,-77,359,466,-137,274,518,194
-116,-147,-39,128,-39,-89,323,424,-149,292,542,218
-104,-153,-51,128,-27,-101,299,382,-161,304,572,242
-92,-159,-62,122,-9,-113,275,340,-167,322,590,266
-86,-165,-74,122,-3,-119,251,304,-185,352,614,296
-74,-171,-92,122,15,-131,227,268,-197,370,656,320
-74,-177,-98,122,15,-137,203,232,-209,388,674,338
-80,-177,-92,128,9,-137,179,190,-221,418,692,350
-56,-189,-128,122,26,-161,167,166,-221,448,722,380
-50,-195,-140,122,38,-167,143,130,-227,454,734,386
-50,-195,-140,122,38,-167,125,100,-233,472,734,398
-38,-201,-158,116,50,-179,101,64,-233,484,746,416
-26,-201,-170,110,62,-185,77,40,-233,508,764,428
-20,-201,-176,110,68,-191,65,22,-233,538,788,434
-14,-213,-194,110,80,-203,47,-2,-233,562,794,440
-2,-213,-206,104,92,-209,29,-26,-227,580,812,452
-2,-213,-206,104,92,-209,11,-38,-215,592,818,452
-2,-213,-206,104,92,-209,-7,-62,-203,610,818,458
3,-219,-230,98,116,-221,-13,-62,-197,628,818,452
3,-225,-230,104,110,-227,-31,-79,-191,640,818,458
3,-225,-224,110,104,-227,-49,-79,-173,652,818,458
3,-219,-224,104,110,-221,-55,-97,-161,652,824,458
15,-219,-242,92,128,-227,-67,-109,-149,652,806,446
21,-207,-236,86,128,-221,-67,-127,-137,646,782,428
21,-207,-236,86,128,-221,-72,-127,-131,640,758,416
27,-207,-242,80,134,-221,-78,-139,-119,634,758,410
27,-207,-242,80,134,-221,-90,-139,-101,610,728,392
27,-207,-242,80,134,-221,-102,-145,-95,586,710,374
39,-201,-248,74,140,-221,-102,-145,-89,568,686,356
39,-189,-236,68,134,-209,-108,-145,-83,538,656,338
39,-183,-230,62,134,-203,-114,-139,-83,508,620,308
45,-177,-230,56,134,-203,-120,-145,-77,466,584,284
45,-171,-224,56,134,-197,-120,-145,-77,454,554,266
33,-165,-206,56,116,-185,-126,-133,-83,424,524,242
45,-159,-212,50,128,-185,-132,-133,-71,388,488,218
45,-153,-206,44,122,-179,-132,-115,-71,370,476,200
45,-147,-200,44,122,-173,-132,-109,-65,328,440,176
45,-135,-188,38,116,-161,-132,-109,-59,298,410,158
51,-129,-188,32,116,-155,-132,-103,-53,268,380,140
51,-123,-182,26,116,-149,-126,-97,-47,238,356,110
39,-117,-164,32,98,-137,-126,-73,-41,214,326,86
39,-111,-158,26,98,-131,-126,-67,-35,196,308,80
39,-111,-158,26,98,-131,-126,-62,-30,172,290,62
39,-105,-152,26,92,-125,-120,-62,-30,154,254,38
39,-93,-140,20,86,-113,-120,-62,-30,136,236,32
45,-93,-146,20,92,-119,-120,-62,-30,118,236,26
27,-87,-122,20,74,-101,-120,-62,-24,100,224,8
21,-93,-122,26,68,-107,-120,-56,-24,82,206,2
27,-93,-128,26,74,-107,-120,-44,-18,64,206,-4
33,-81,-122,20,74,-101,-120,-44,-18,34,188,-16
21,-81,-110,20,62,-95,-114,-32,-18,10,164,-28
39,-75,-122,20,80,-95,-114,-38,-6,-8,152,-40
