,,,,,,,,,,,
2019-09-04 23:49:35,,,,,,,,,,,
,,,,,,,,,,,
I,II,III,aVR,aVL,aVF,V1,V2,V3,V4,V5,V6
-126,4,129,59,-128,65,39,-311,-300,-160,-223,39
-126,4,129,59,-128,65,39,-311,-300,-160,-223,39
-126,4,129,59,-128,65,39,-311,-300,-160,-223,39
-126,4,129,59,-128,65,39,-311,-300,-160,-223,39
-114,10,129,47,-122,71,45,-311,-306,-166,-223,39
-108,16,129,41,-116,71,51,-311,-306,-172,-223,39
-96,28,129,29,-110,77,57,-311,-312,-178,-223,39
-90,34,129,23,-110,83,63,-311,-312,-184,-223,39
-84,40,129,17,-104,83,69,-317,-306,-178,-217,44
-84,40,129,17,-104,83,75,-317,-306,-178,-217,44
-78,46,129,11,-104,89,81,-323,-300,-172,-211,44
-78,46,129,11,-104,89,87,-323,-300,-172,-211,44
-90,34,129,23,-110,83,75,-329,-306,-172,-217,39
-96,28,129,29,-110,77,69,-329,-306,-172,-223,33
-108,16,129,41,-116,71,57,-335,-312,-172,-229,21
-114,10,129,47,-122,71,51,-335,-312,-172,-235,15
-114,10,129,47,-122,71,51,-329,-306,-166,-235,9
-114,10,129,47,-122,71,51,-329,-306,-166,-235,9
-114,10,129,47,-122,71,51,-323,-300,-160,-235,3
-114,10,129,47,-122,71,51,-323,-300,-160,-235,3
-120,4,129,53,-122,65,51,-323,-294,-160,-229,9
-120,4,129,53,-122,65,51,-323,-294,-160,-229,15
-126,4,129,59,-128,65,51,-323,-288,-160,-223,21
-126,4,129,59,-128,65,51,-323,-288,-160,-223,27
-114,4,123,47,-116,65,51,-323,-294,-166,-223,21
-108,10,123,41,-116,65,51,-323,-294,-166,-223,15
-96,16,117,35,-104,65,51,-323,-300,-172,-223,9
-90,22,117,29,-104,71,51,-323,-300,-172,-223,3
-102,16,123,35,-110,71,51,-329,-306,-172,-223,-3
-108,16,129,41,-116,71,51,-329,-306,-172,-223,-3
-120,10,135,47,-128,71,51,-335,-312,-172,-223,-9
-126,10,141,53,-134,77,51,-335,-312,-172,-223,-9
-132,4,141,59,-134,71,51,-329,-312,-172,-223,-3
-132,4,135,59,-134,65,51,-329,-312,-172,-223,-3
-138,4,135,65,-140,65,51,-323,-312,-172,-223,3
-138,-1,129,71,-134,59,51,-323,-312,-172,-223,3
-120,4,123,53,-122,59,57,-317,-306,-166,-223,9
-108,10,123,41,-116,65,57,-317,-300,-166,-223,9
-90,22,117,29,-104,71,63,-311,-294,-160,-223,15
-78,34,117,17,-98,77,63,-311,-288,-160,-223,15
-84,28,117,23,-98,71,63,-317,-288,-160,-217,9
-84,22,111,23,-98,65,63,-317,-288,-160,-217,3
-90,16,111,29,-98,65,63,-323,-288,-160,-211,-3
-90,10,105,35,-98,59,63,-323,-288,-160,-211,-9
-96,10,111,35,-104,59,63,-323,-294,-166,-217,-3
-96,10,111,35,-104,59,63,-323,-294,-166,-217,-3
-102,10,117,41,-110,65,63,-323,-300,-172,-223,3
-102,10,117,41,-110,65,63,-323,-300,-172,-223,3
-108,10,123,41,-116,65,63,-329,-306,-178,-229,-3
-114,10,129,47,-122,71,63,-329,-306,-184,-235,-9
-120,10,135,47,-128,71,63,-335,-312,-190,-241,-15
-126,10,141,53,-134,77,63,-335,-312,-196,-247,-21
-126,4,135,53,-128,71,57,-329,-312,-196,-241,-21
-126,4,129,59,-128,65,57,-329,-312,-196,-241,-21
-126,4,123,59,-128,59,51,-323,-312,-196,-235,-21
-126,-1,117,65,-122,53,51,-323,-312,-196,-235,-21
-114,4,123,47,-116,65,57,-317,-306,-184,-229,-15
-102,22,129,35,-116,77,63,-317,-300,-178,-223,-9
-90,40,135,17,-110,89,69,-311,-294,-166,-217,-3
-78,58,141,5,-110,101,75,-311,-288,-160,-211,3
-84,52,141,11,-110,95,75,-317,-288,-160,-211,-3
-84,46,135,11,-110,89,75,-317,-288,-160,-211,-9
-90,40,135,17,-110,89,75,-323,-288,-160,-211,-15
-90,34,129,23,-110,83,75,-323,-288,-160,-211,-21
-102,22,129,35,-116,77,69,-323,-294,-166,-211,-15
-114,16,135,41,-122,77,63,-323,-294,-166,-211,-15
-126,4,135,53,-128,71,57,-323,-300,-172,-211,-9
-138,4,141,65,-140,71,51,-323,-300,-172,-211,-9
-132,4,135,59,-134,65,45,-329,-306,-178,-217,-15
-132,4,135,59,-134,65,45,-329,-306,-184,-223,-15
-126,4,129,59,-128,65,39,-335,-312,-190,-229,-21
-126,4,129,59,-128,65,39,-335,-312,-196,-235,-21
-120,4,129,53,-122,65,33,-329,-312,-196,-229,-27
-120,4,129,53,-122,65,33,-329,-312,-196,-229,-33
-114,10,129,47,-122,71,27,-323,-312,-196,-223,-39
-114,10,129,47,-122,71,27,-323,-312,-196,-223,-45
-108,16,129,41,-116,71,39,-329,-306,-190,-223,-39
-108,16,129,41,-116,71,45,-329,-306,-184,-223,-39
-102,22,129,35,-116,77,57,-335,-300,-178,-223,-33
-102,22,129,35,-116,77,63,-335,-300,-172,-223,-33
-108,16,129,41,-116,71,57,-329,-306,-178,-229,-39
-108,16,129,41,-116,71,57,-329,-306,-184,-229,-39
-114,10,129,47,-122,71,51,-323,-312,-190,-235,-45
-114,10,129,47,-122,71,51,-323,-312,-196,-235,-45
-120,10,135,47,-128,71,45,-323,-306,-196,-241,-39
-120,10,135,47,-128,71,45,-323,-306,-196,-241,-39
-126,10,141,53,-134,77,39,-323,-300,-196,-247,-33
-126,10,141,53,-134,77,39,-323,-300,-196,-247,-33
-120,16,141,47,-128,77,39,-329,-300,-196,-241,-39
-114,22,141,41,-128,83,39,-329,-300,-196,-241,-39
-108,28,141,35,-122,83,39,-335,-300,-196,-235,-45
-102,34,141,29,-122,89,39,-335,-300,-196,-235,-45
-96,40,141,23,-116,89,51,-329,-294,-190,-223,-39
-90,40,135,17,-110,89,57,-323,-294,-184,-217,-39
-84,46,135,11,-110,89,69,-317,-288,-178,-205,-33
-78,46,129,11,-104,89,75,-311,-288,-172,-199,-33
-90,34,129,23,-110,83,69,-317,-294,-172,-205,-39
-102,28,135,29,-116,83,63,-317,-294,-172,-205,-39
-114,16,135,41,-122,77,57,-323,-300,-172,-211,-45
-126,10,141,53,-134,77,51,-323,-300,-172,-211,-45
-120,16,141,47,-128,77,57,-317,-300,-178,-211,-45
-114,16,135,41,-122,77,57,-317,-300,-178,-211,-45
-108,22,135,35,-122,77,63,-311,-300,-184,-211,-45
-102,22,129,35,-116,77,63,-311,-300,-184,-211,-45
-102,28,135,29,-116,83,63,-311,-294,-184,-211,-51
-102,28,135,29,-116,83,63,-311,-294,-184,-211,-51
-102,34,141,29,-122,89,63,-311,-288,-184,-211,-57
-102,34,141,29,-122,89,63,-311,-288,-184,-211,-57
-96,40,141,23,-116,89,63,-317,-294,-190,-217,-63
-90,40,135,17,-110,89,63,-317,-300,-196,-223,-69
-84,46,135,11,-110,89,63,-323,-306,-202,-229,-75
-78,46,129,11,-104,89,63,-323,-312,-208,-235,-81
-90,40,135,17,-110,89,63,-323,-306,-196,-229,-75
-102,34,141,29,-122,89,63,-323,-306,-190,-223,-69
-114,28,147,35,-128,89,63,-323,-300,-178,-217,-63
-126,22,153,47,-140,89,63,-323,-300,-172,-211,-57
-132,4,141,59,-134,71,57,-329,-306,-178,-217,-63
-138,4,135,65,-140,65,51,-329,-306,-184,-217,-63
-144,-13,123,77,-134,47,45,-335,-312,-190,-223,-69
-150,-25,117,89,-134,41,39,-335,-312,-196,-223,-69
-132,-7,117,71,-128,47,45,-329,-306,-190,-217,-75
-120,4,117,59,-122,53,45,-323,-306,-190,-217,-81
-102,10,117,41,-110,65,51,-317,-300,-184,-211,-87
-90,22,117,29,-104,71,51,-311,-300,-184,-211,-93
-96,28,129,29,-110,77,57,-311,-294,-178,-205,-81
-96,28,129,29,-110,77,57,-311,-294,-178,-205,-75
-102,34,141,29,-122,89,63,-311,-288,-172,-199,-63
-102,34,141,29,-122,89,63,-311,-288,-172,-199,-57
-102,34,141,29,-122,89,57,-311,-288,-172,-199,-63
-102,34,141,29,-122,89,57,-311,-288,-172,-199,-63
-102,34,141,29,-122,89,51,-311,-288,-172,-199,-69
-102,34,141,29,-122,89,51,-311,-288,-172,-199,-69
-108,22,135,35,-122,77,51,-317,-294,-178,-205,-75
-108,10,123,41,-116,65,51,-317,-300,-184,-205,-81
-114,4,117,53,-116,59,51,-323,-306,-190,-211,-87
-114,-1,105,59,-110,47,51,-323,-312,-196,-211,-93
-120,4,117,59,-122,53,45,-323,-306,-196,-217,-93
-120,4,117,59,-122,53,45,-323,-306,-196,-217,-93
-126,4,129,59,-128,65,39,-323,-300,-196,-223,-93
-126,4,129,59,-128,65,39,-323,-300,-196,-223,-93
-114,16,135,41,-122,77,45,-317,-294,-190,-217,-87
-108,28,141,35,-122,83,51,-311,-294,-184,-211,-81
-96,46,147,17,-122,95,57,-305,-288,-178,-205,-75
-90,58,153,11,-122,107,63,-299,-288,-172,-199,-69
-96,46,147,17,-122,95,63,-299,-282,-166,-193,-75
-96,40,141,23,-116,89,63,-299,-282,-166,-193,-75
-102,28,135,29,-116,83,63,-299,-276,-160,-187,-81
-102,22,129,35,-116,77,63,-299,-276,-160,-187,-81
-102,16,123,35,-110,71,51,-305,-282,-166,-199,-87
-102,16,123,35,-110,71,45,-311,-288,-172,-205,-93
-102,10,117,41,-110,65,33,-317,-294,-178,-217,-99
-102,10,117,41,-110,65,27,-323,-300,-184,-223,-105
-108,4,117,47,-110,59,33,-323,-300,-184,-223,-99
-114,4,123,47,-116,65,39,-323,-300,-184,-223,-99
-120,4,123,53,-122,59,45,-323,-300,-184,-223,-93
-126,4,129,59,-128,65,51,-323,-300,-184,-223,-93
-120,4,129,53,-122,65,57,-317,-294,-178,-217,-99
-120,10,135,47,-128,71,63,-317,-294,-178,-217,-99
-114,16,135,41,-122,77,69,-311,-288,-172,-211,-105
-114,22,141,41,-128,83,75,-311,-288,-172,-211,-105
-102,34,141,29,-122,89,75,-305,-288,-178,-205,-99
-90,40,135,17,-110,89,75,-305,-288,-178,-205,-99
-78,52,135,5,-104,95,75,-299,-288,-184,-199,-93
-66,58,129,-1,-98,95,75,-299,-288,-184,-199,-93
-78,40,123,11,-98,83,69,-305,-294,-184,-205,-99
-90,28,123,23,-104,77,69,-311,-294,-184,-205,-99
-102,10,117,41,-110,65,63,-317,-300,-184,-211,-105
-114,4,117,53,-116,59,63,-323,-300,-184,-211,-105
-126,4,129,59,-128,65,45,-323,-300,-190,-211,-111
-132,4,129,65,-134,59,45,-323,-300,-190,-211,-105
-132,4,135,59,-134,65,39,-329,-312,-190,-211,-111
-120,4,123,53,-122,59,45,-329,-300,-190,-205,-111
-114,4,123,47,-116,65,51,-323,-294,-184,-199,-117
-120,10,135,47,-128,71,57,-323,-294,-178,-199,-111
-102,22,129,35,-116,77,63,-317,-282,-166,-193,-105
-96,34,135,23,-116,83,69,-317,-282,-160,-193,-99
-102,28,135,29,-116,83,69,-317,-288,-166,-199,-111
-102,16,123,35,-110,71,69,-317,-294,-184,-199,-111
-108,10,123,41,-116,65,63,-317,-300,-190,-205,-123
-108,4,117,47,-110,59,63,-317,-306,-190,-205,-135
-114,4,117,53,-116,59,51,-317,-306,-184,-217,-135
-114,-1,105,59,-110,47,51,-329,-306,-190,-217,-141
-102,10,117,41,-110,65,51,-317,-306,-184,-217,-135
-90,28,123,23,-104,77,63,-311,-300,-178,-211,-117
-90,16,111,29,-98,65,69,-317,-300,-178,-217,-117
-90,16,111,29,-98,65,69,-311,-294,-184,-217,-117
-90,22,117,29,-104,71,75,-311,-294,-190,-217,-111
-90,34,129,23,-110,83,75,-299,-282,-178,-205,-111
-96,28,129,29,-110,77,75,-293,-270,-166,-193,-105
-96,34,135,23,-116,83,81,-287,-264,-166,-193,-105
-96,46,147,17,-122,95,87,-269,-258,-148,-181,-93
-90,70,165,5,-128,119,99,-251,-240,-142,-169,-87
-84,76,165,-1,-122,119,99,-245,-234,-130,-163,-81
-84,88,177,-1,-128,131,105,-239,-228,-118,-157,-75
-72,106,183,-6,-128,143,105,-239,-222,-100,-145,-69
-72,124,201,-18,-134,161,105,-239,-216,-94,-139,-69
-66,118,189,-18,-128,155,111,-239,-222,-100,-145,-69
-66,124,195,-18,-128,161,111,-245,-222,-100,-145,-63
-60,136,201,-30,-128,167,123,-245,-228,-106,-145,-63
-60,142,207,-30,-134,173,123,-251,-228,-112,-145,-63
-60,142,207,-30,-134,173,123,-245,-216,-112,-145,-51
-60,142,207,-30,-134,173,129,-239,-216,-100,-139,-51
-72,130,207,-18,-140,167,123,-233,-210,-106,-133,-45
-72,124,201,-18,-134,161,123,-227,-198,-106,-127,-45
-72,124,201,-18,-134,161,117,-221,-192,-94,-121,-51
-66,124,195,-18,-128,161,105,-209,-186,-82,-115,-57
-66,136,207,-24,-134,173,93,-197,-174,-70,-109,-45
-66,130,201,-24,-134,167,75,-197,-168,-64,-103,-33
-54,148,207,-36,-128,179,63,-191,-162,-52,-91,-27
-42,148,195,-42,-116,173,57,-203,-162,-46,-85,-27
-18,160,183,-60,-98,173,45,-203,-162,-34,-73,-27
-1,154,159,-66,-80,155,45,-215,-174,-40,-79,-45
-12,136,153,-54,-80,143,39,-227,-192,-58,-97,-57
-24,130,159,-42,-92,143,39,-239,-198,-70,-103,-57
-36,124,165,-36,-98,143,45,-239,-210,-76,-115,-63
-60,106,171,-12,-116,137,45,-245,-216,-88,-121,-63
-54,100,159,-12,-104,131,39,-245,-216,-100,-121,-63
-54,100,159,-12,-104,131,39,-251,-216,-100,-121,-57
-48,100,153,-18,-98,125,51,-251,-222,-106,-127,-63
-48,88,141,-12,-92,113,63,-257,-228,-124,-145,-81
-72,58,135,-1,-104,95,69,-269,-246,-130,-157,-99
-78,52,135,5,-104,95,75,-269,-246,-130,-157,-99
-84,64,153,5,-116,107,81,-269,-246,-118,-145,-93
-90,70,165,5,-128,119,87,-269,-246,-118,-145,-93
-102,64,171,11,-134,119,93,-269,-240,-124,-139,-93
-96,76,177,5,-134,125,105,-269,-240,-130,-151,-93
-84,88,177,-1,-128,131,111,-275,-246,-136,-145,-99
-72,88,165,-1,-116,125,105,-281,-252,-136,-151,-105
-78,70,153,-1,-116,113,93,-287,-258,-142,-163,-111
-78,76,159,-1,-116,119,93,-293,-258,-142,-163,-117
-84,70,159,-1,-122,113,93,-299,-258,-142,-169,-123
-90,58,153,11,-122,107,93,-299,-258,-142,-169,-129
-90,52,147,11,-116,101,93,-281,-252,-136,-163,-129
-72,52,129,5,-98,89,93,-275,-240,-124,-163,-129
-84,52,141,11,-110,95,93,-269,-234,-118,-145,-123
-96,40,141,23,-116,89,93,-263,-234,-112,-145,-123
-120,40,165,35,-140,101,87,-275,-234,-112,-163,-111
-126,52,183,29,-152,119,93,-269,-228,-118,-157,-123
-66,94,165,-6,-116,131,111,-257,-234,-112,-133,-105
-36,100,141,-24,-86,119,111,-257,-228,-94,-121,-87
-66,64,135,-1,-98,101,99,-251,-216,-82,-115,-69
-54,64,123,-1,-86,95,111,-245,-204,-58,-91,-69
-30,58,93,-6,-62,77,111,-245,-204,-70,-91,-63
-42,10,57,11,-50,35,99,-239,-204,-94,-97,-69
-30,-1,21,17,-26,5,87,-239,-210,-106,-97,-69
5,16,3,-6,-3,11,87,-215,-186,-76,-79,-51
5,16,3,-6,-3,11,87,-179,-150,-40,-55,-51
-18,-37,-14,29,-3,-24,99,-137,-126,-40,-61,-57
-18,-91,-68,53,15,-78,93,-89,-102,-46,-67,-87
29,-103,-140,29,81,-120,63,-5,-36,-16,-61,-75
71,-133,-212,23,141,-168,51,60,18,7,-43,-57
59,-169,-236,47,147,-198,16,114,59,31,-31,-45
71,-193,-266,53,171,-228,-80,186,125,67,5,-21
101,-217,-320,53,213,-264,-182,258,191,103,53,9
155,-235,-398,35,273,-312,-260,318,251,121,71,27
203,-247,-458,17,327,-348,-332,384,299,145,94,39
251,-259,-518,-1,387,-390,-416,486,371,175,130,56
311,-325,-644,-1,477,-480,-500,588,455,187,142,56
383,-409,-794,5,585,-600,-638,660,503,193,154,56
431,-475,-908,17,669,-690,-764,690,527,205,166,68
479,-535,-1016,23,741,-774,-860,732,575,217,178,74
491,-649,-1148,71,819,-894,-932,786,629,229,166,50
491,-769,-1268,137,879,-1014,-1022,852,713,235,178,39
587,-769,-1364,89,969,-1062,-1082,924,797,265,214,56
707,-751,-1460,17,1083,-1104,-1100,996,887,289,238,92
725,-817,-1544,41,1131,-1182,-1148,1056,965,283,250,92
719,-913,-1634,95,1173,-1266,-1172,1128,1025,301,256,80
767,-979,-1754,101,1257,-1368,-1148,1206,1103,319,268,68
791,-1099,-1898,149,1341,-1494,-1136,1260,1163,325,238,39
773,-1231,-2012,227,1395,-1620,-1148,1284,1199,313,214,3
791,-1297,-2096,245,1443,-1698,-1166,1236,1193,313,220,-21
797,-1369,-2174,281,1479,-1764,-1184,1152,1121,283,202,-51
779,-1477,-2264,347,1521,-1872,-1232,1038,1043,235,202,-75
845,-1489,-2342,317,1593,-1914,-1280,978,1055,265,286,-39
971,-1423,-2396,227,1683,-1908,-1310,1002,1139,379,418,44
1073,-1363,-2437,143,1755,-1902,-1352,1032,1241,535,586,140
1163,-1267,-2431,47,1797,-1848,-1382,996,1277,703,766,254
1211,-1159,-2372,-18,1785,-1758,-1454,918,1289,871,958,440
1229,-1057,-2294,-78,1761,-1674,-1538,798,1331,1057,1174,626
1283,-925,-2210,-174,1743,-1566,-1598,660,1301,1213,1360,782
1325,-787,-2120,-258,1719,-1452,-1592,504,1235,1327,1516,902
1331,-691,-2024,-312,1677,-1356,-1580,426,1229,1459,1678,1034
1325,-613,-1946,-348,1635,-1272,-1568,342,1223,1585,1822,1148
1361,-499,-1868,-426,1611,-1182,-1520,276,1217,1699,1936,1232
1385,-403,-1790,-486,1587,-1092,-1442,252,1235,1795,2038,1304
1349,-349,-1700,-492,1521,-1020,-1382,222,1211,1831,2074,1316
1253,-337,-1598,-456,1425,-966,-1286,144,1127,1789,2026,1280
1187,-295,-1484,-438,1335,-888,-1196,72,1049,1729,1966,1220
1109,-247,-1364,-426,1233,-804,-1082,30,1007,1651,1870,1166
1019,-235,-1262,-384,1143,-744,-962,12,935,1489,1708,1064
941,-259,-1208,-330,1071,-726,-836,0,815,1231,1426,896
863,-247,-1118,-300,987,-684,-698,6,701,943,1126,728
731,-223,-956,-246,837,-582,-584,12,593,697,850,560
569,-217,-788,-174,681,-498,-476,-5,479,541,670,428
413,-205,-620,-96,513,-408,-392,-53,353,445,544,332
275,-169,-452,-48,363,-306,-272,-83,245,355,412,236
221,-97,-320,-54,267,-210,-164,-71,191,295,322,158
167,-73,-242,-36,207,-156,-74,-47,143,265,274,122
101,-67,-176,-6,135,-120,-20,-59,83,205,196,68
95,-43,-146,-18,117,-90,21,-59,53,175,148,44
95,4,-86,-48,93,-30,39,-47,53,163,124,39
77,10,-62,-42,69,-18,57,-47,35,127,94,15
35,4,-32,-12,33,-6,63,-59,6,67,53,-33
23,-1,-32,-1,27,-12,75,-71,-18,31,17,-69
-1,-19,-26,5,9,-18,87,-89,-30,1,-13,-93
-12,-31,-14,23,-3,-24,93,-107,-60,1,-31,-111
-6,-25,-14,17,-3,-18,87,-107,-66,1,-37,-123
-1,-25,-26,11,9,-24,111,-101,-66,1,-49,-123
-12,-19,-2,17,-3,-12,123,-101,-78,-4,-61,-129
-24,-13,3,17,-14,0,141,-89,-78,-10,-67,-129
-54,-7,39,29,-50,11,147,-83,-90,-16,-85,-141
-66,4,63,29,-68,29,159,-71,-90,-22,-103,-153
-60,10,75,17,-68,41,171,-65,-90,-46,-115,-171
-66,4,69,29,-68,35,171,-59,-96,-58,-139,-177
-72,4,75,29,-74,35,177,-59,-90,-76,-151,-195
-66,-7,51,35,-62,17,189,-59,-90,-76,-151,-195
-60,-7,45,35,-56,11,189,-53,-102,-82,-157,-201
-60,-1,51,29,-56,17,183,-53,-102,-82,-151,-201
-66,4,63,29,-68,29,183,-47,-102,-70,-139,-195
-72,4,81,29,-74,41,177,-35,-102,-64,-127,-195
-66,4,75,23,-68,41,177,-23,-90,-58,-127,-195
-90,4,99,35,-92,53,183,-17,-90,-58,-145,-195
-84,10,99,29,-92,53,213,0,-84,-52,-151,-189
-78,16,99,23,-86,59,231,6,-78,-52,-157,-195
-66,10,81,23,-74,47,231,0,-72,-52,-151,-201
-96,-1,87,47,-92,35,231,0,-72,-58,-151,-201
-108,-13,87,59,-98,29,231,0,-66,-58,-145,-201
-108,-13,87,59,-98,29,237,0,-66,-58,-133,-195
-108,-7,93,59,-104,35,225,12,-66,-52,-121,-201
-108,-13,87,59,-98,29,213,18,-66,-46,-133,-189
-126,-13,105,71,-116,41,201,24,-66,-46,-133,-195
-132,-13,111,71,-122,41,195,36,-54,-40,-127,-195
-126,-1,117,65,-122,53,201,54,-48,-40,-127,-201
-114,-1,105,59,-110,47,213,66,-36,-46,-127,-213
-108,-7,93,59,-104,35,213,78,-30,-46,-133,-231
-108,-7,93,59,-104,35,213,84,-24,-52,-133,-231
-90,-1,81,47,-86,35,219,90,-12,-40,-127,-225
-84,4,81,41,-86,35,225,96,-6,-34,-121,-219
-72,22,99,17,-86,59,231,108,0,-28,-109,-207
-54,28,87,5,-68,59,243,120,6,-16,-103,-195
-54,34,93,5,-74,65,243,132,18,-10,-85,-189
-54,34,93,5,-74,65,249,156,23,1,-85,-189
-60,28,93,11,-74,59,255,174,41,1,-91,-189
-60,28,93,11,-74,59,261,186,47,7,-97,-189
-54,40,99,-1,-74,71,267,198,59,13,-91,-183
-48,40,93,-1,-68,65,273,210,65,19,-85,-189
-42,52,99,-1,-68,77,279,216,71,25,-79,-195
-30,58,93,-6,-62,77,279,228,77,37,-73,-183
-36,40,81,-1,-56,59,267,228,83,37,-67,-183
-42,34,81,-1,-62,59,261,240,95,31,-67,-195
-60,22,87,11,-74,53,261,252,101,37,-73,-195
-66,16,87,17,-74,53,261,270,113,43,-55,-195
-78,10,93,29,-86,53,273,288,137,55,-55,-195
-72,4,75,29,-74,35,273,312,143,49,-55,-195
-78,-1,69,41,-74,29,273,324,155,55,-61,-183
-78,4,75,35,-80,35,273,348,167,55,-55,-177
-48,16,69,11,-56,41,285,372,197,73,-43,-171
-18,40,63,-1,-38,53,291,396,209,85,-37,-165
-1,70,69,-30,-32,71,309,420,227,109,-19,-159
11,88,69,-48,-20,83,309,444,251,121,-13,-147
-1,76,69,-36,-26,77,309,468,263,121,-7,-147
-1,64,63,-24,-26,65,303,480,275,139,-7,-147
-18,58,81,-12,-50,71,297,492,281,133,-13,-159
-24,52,81,-6,-50,65,303,522,305,145,-7,-159
-12,58,75,-12,-44,65,321,552,335,169,17,-153
-12,58,75,-12,-44,65,321,576,353,181,23,-153
-24,40,69,-1,-44,53,321,612,377,193,29,-141
-24,40,69,-1,-44,53,321,630,389,205,29,-141
-18,46,69,-6,-44,59,327,654,413,217,35,-135
-6,58,69,-18,-38,65,333,678,431,217,53,-123
-1,82,75,-36,-32,83,339,714,461,223,59,-117
17,88,63,-48,-14,77,345,744,485,241,76,-93
17,82,57,-48,-14,71,357,774,509,259,76,-93
11,82,63,-42,-20,77,369,804,521,265,76,-93
11,76,57,-42,-14,71,369,834,551,283,76,-99
29,100,63,-60,-8,83,381,870,581,307,94,-87
35,94,51,-60,-3,77,387,912,605,313,106,-81
11,82,63,-42,-20,77,381,936,629,325,106,-81
5,76,63,-36,-20,71,375,966,653,343,124,-81
11,94,75,-48,-26,89,381,990,677,367,136,-69
23,100,69,-60,-14,89,381,1020,713,391,160,-69
35,112,69,-72,-8,95,387,1050,737,403,166,-63
47,118,63,-78,-3,95,387,1074,767,409,178,-51
59,124,57,-90,-3,95,387,1104,797,433,202,-39
65,124,51,-90,3,89,393,1146,833,457,214,-33
59,130,63,-90,-3,101,405,1176,863,487,220,-9
53,130,69,-90,-3,101,411,1212,893,499,232,-9
71,142,63,-102,-3,107,417,1236,929,511,256,3
89,172,75,-126,3,125,423,1278,965,535,268,9
83,166,75,-120,-3,125,423,1302,995,547,292,9
77,160,75,-114,-3,119,417,1326,1013,565,292,9
71,154,75,-108,-3,119,411,1350,1043,583,304,3
83,160,69,-120,3,119,411,1374,1073,607,316,15
101,178,69,-138,9,125,417,1416,1109,637,334,44
131,196,57,-162,33,131,417,1434,1145,661,358,62
137,202,57,-168,33,131,417,1464,1181,691,376,86
131,196,57,-162,33,131,405,1470,1211,715,394,92
137,208,63,-168,33,137,399,1494,1241,739,430,116
149,220,63,-180,39,143,393,1512,1277,769,472,134
167,220,45,-192,57,137,387,1524,1313,787,490,146
155,220,57,-186,45,143,369,1530,1337,823,514,152
173,238,57,-204,51,149,363,1554,1379,847,538,164
191,244,51,-216,63,155,351,1554,1409,877,550,170
197,250,51,-222,69,155,339,1560,1439,895,562,188
191,244,45,-216,69,149,321,1554,1457,907,574,200
203,250,45,-228,75,155,309,1554,1481,937,598,224
221,250,27,-234,93,143,297,1554,1499,961,622,236
215,250,33,-234,87,149,285,1560,1523,985,652,254
209,256,45,-234,75,155,267,1542,1535,1015,676,266
233,280,45,-252,87,167,255,1542,1571,1027,706,290
251,304,45,-276,99,179,231,1536,1595,1063,742,314
245,304,51,-270,93,185,219,1524,1619,1093,766,350
263,328,57,-294,99,197,195,1506,1637,1111,796,374
299,334,27,-312,135,185,189,1494,1649,1129,820,392
317,346,21,-330,147,191,177,1488,1661,1159,850,404
329,352,15,-336,153,191,153,1464,1673,1165,862,416
311,340,21,-324,141,185,111,1446,1679,1177,874,422
305,316,3,-306,147,167,87,1428,1679,1189,886,428
287,304,9,-294,135,161,63,1404,1685,1189,892,434
287,298,3,-288,141,155,51,1368,1685,1201,898,428
317,322,3,-318,159,167,33,1338,1685,1219,916,452
323,334,3,-324,159,173,16,1308,1685,1225,934,464
335,352,9,-342,159,185,-2,1278,1685,1225,952,470
335,340,3,-336,165,173,-8,1254,1679,1225,958,476
335,352,9,-342,159,185,-14,1230,1667,1237,964,488
341,358,9,-348,165,191,-32,1200,1649,1225,970,494
353,370,9,-360,171,197,-62,1176,1631,1225,970,500
383,376,-2,-378,195,185,-62,1146,1613,1225,970,506
353,370,9,-360,171,197,-74,1110,1589,1219,964,494
341,358,9,-348,165,191,-86,1062,1547,1201,946,476
335,352,9,-342,159,185,-104,1032,1523,1177,934,458
317,352,27,-330,141,197,-110,990,1481,1159,910,446
281,334,45,-306,117,197,-122,942,1415,1123,886,434
263,316,45,-288,105,185,-140,882,1349,1087,850,422
251,304,45,-276,99,179,-128,822,1277,1045,832,398
245,292,39,-264,99,173,-110,774,1235,1009,808,386
221,298,75,-252,69,191,-110,744,1187,985,784,368
203,298,93,-246,51,203,-110,702,1133,955,742,344
197,310,111,-246,39,215,-116,666,1079,913,712,326
197,316,117,-252,33,221,-104,618,1025,877,676,302
185,298,111,-240,33,209,-98,564,965,829,646,284
161,280,117,-222,15,203,-80,522,887,787,610,272
131,262,129,-198,-3,203,-86,462,815,733,568,242
101,238,129,-168,-8,185,-86,408,755,685,538,218
113,244,129,-180,-3,191,-74,372,695,637,502,188
137,262,123,-198,3,197,-56,330,641,589,460,164
131,274,141,-204,-3,215,-44,306,581,547,412,134
107,256,147,-180,-14,209,-38,270,521,493,370,98
71,238,159,-150,-38,203,-20,234,473,451,322,56
65,232,159,-144,-38,197,-20,198,425,409,298,33
47,226,171,-132,-56,203,-8,174,383,385,262,21
29,208,171,-114,-62,191,-8,138,335,355,214,15
29,196,159,-108,-56,179,-2,102,281,313,202,9
23,184,153,-102,-56,173,4,72,245,277,172,-3
5,166,153,-84,-68,161,-2,30,209,241,142,-33
-6,148,159,-60,-80,155,4,0,155,217,112,-63
-18,136,159,-48,-86,149,4,0,125,187,82,-81
-18,118,141,-42,-80,131,4,-11,101,163,76,-99
-24,106,135,-30,-80,119,4,-23,77,139,59,-111
-42,100,147,-18,-92,125,4,-41,53,109,41,-123
-48,82,135,-6,-92,107,16,-59,29,85,23,-135
-54,76,135,-1,-92,107,21,-71,23,73,23,-147
-60,52,117,-1,-86,83,21,-77,12,55,5,-153
-72,34,111,11,-92,71,16,-95,-12,37,-7,-165
-72,40,117,11,-92,77,21,-101,-36,19,-25,-183
-66,40,111,5,-86,77,21,-113,-48,7,-43,-201
-60,46,111,-1,-86,77,21,-125,-72,1,-67,-213
-60,34,99,5,-80,65,21,-125,-78,-4,-85,-207
-60,28,93,11,-74,59,21,-125,-84,-16,-91,-207
-54,28,87,5,-68,59,21,-131,-84,-16,-103,-213
-54,22,81,11,-68,53,16,-125,-90,-34,-97,-213
-66,16,87,17,-74,53,21,-131,-84,-34,-97,-219
-66,10,81,23,-74,47,21,-137,-96,-40,-97,-219
-66,4,69,29,-68,35,21,-149,-108,-46,-103,-231
-66,4,63,29,-68,29,21,-155,-120,-46,-103,-243
-66,4,63,29,-68,29,16,-155,-126,-52,-103,-249
-66,4,69,29,-68,35,16,-155,-126,-52,-103,-249
-60,4,69,23,-62,35,16,-155,-126,-58,-103,-243
-54,10,69,17,-62,41,21,-155,-126,-64,-115,-243
-54,10,69,17,-62,41,21,-155,-138,-70,-121,-249
-60,4,69,23,-62,35,16,-161,-144,-82,-115,-255
-48,10,63,11,-56,35,16,-149,-144,-70,-115,-255
-54,22,81,11,-68,53,21,-155,-138,-64,-97,-255
-48,4,51,17,-50,23,33,-155,-126,-64,-97,-255
-60,4,63,23,-62,29,33,-161,-138,-64,-97,-267
-66,4,63,29,-68,29,21,-161,-144,-70,-103,-255
-72,4,69,35,-74,29,33,-161,-144,-70,-103,-249
-78,4,75,35,-80,35,39,-161,-144,-70,-109,-249
-84,4,81,41,-86,35,33,-167,-144,-70,-121,-255
-84,4,81,41,-86,35,33,-173,-144,-82,-121,-261
-90,-1,81,47,-86,35,27,-167,-156,-82,-127,-261
-72,-1,63,35,-68,23,21,-161,-156,-82,-127,-255
-60,10,75,17,-68,41,21,-149,-150,-76,-121,-255
-54,4,63,17,-56,35,21,-149,-150,-76,-121,-255
-42,10,57,11,-50,35,21,-149,-144,-82,-115,-255
-30,16,51,-1,-38,35,27,-161,-138,-82,-115,-255
-48,10,63,11,-56,35,27,-161,-144,-88,-121,-249
-72,4,75,29,-74,35,33,-161,-144,-88,-121,-249
-84,4,81,41,-86,35,27,-155,-144,-82,-127,-243
-90,4,93,41,-92,47,27,-155,-150,-82,-127,-243
-84,4,93,35,-86,47,27,-155,-150,-82,-121,-261
-72,4,81,29,-74,41,27,-161,-150,-76,-115,-261
-60,4,69,23,-62,35,33,-173,-150,-70,-109,-267
-54,4,63,17,-56,35,33,-161,-150,-64,-97,-255
-48,4,57,17,-50,29,33,-155,-144,-58,-103,-249
-66,4,69,29,-68,35,21,-161,-156,-70,-103,-249
-66,4,69,29,-68,35,21,-167,-150,-82,-121,-249
-66,4,75,23,-68,41,39,-167,-150,-82,-121,-249
-66,10,81,23,-74,47,45,-161,-156,-76,-121,-249
-54,22,81,11,-68,53,51,-161,-156,-76,-121,-237
-54,34,93,5,-74,65,51,-167,-150,-76,-115,-237
-54,34,93,5,-74,65,51,-167,-150,-76,-115,-237
-60,28,93,11,-74,59,45,-173,-156,-82,-115,-243
-66,16,87,17,-74,53,27,-185,-168,-82,-115,-255
-84,4,81,41,-86,35,21,-185,-180,-106,-121,-267
-108,-1,99,53,-104,41,21,-191,-192,-106,-121,-267
-120,-7,105,65,-116,41,27,-197,-186,-100,-121,-267
-126,-13,105,71,-116,41,21,-197,-186,-100,-127,-267
-138,-19,111,77,-128,41,21,-203,-186,-88,-127,-267
-138,-13,117,77,-128,47,27,-203,-186,-88,-127,-255
-102,4,99,47,-104,47,33,-197,-180,-88,-121,-279
-84,10,99,29,-92,53,39,-197,-180,-88,-121,-267
-60,22,87,11,-74,53,51,-191,-180,-88,-115,-273
-42,34,81,-1,-62,59,57,-179,-180,-88,-115,-273
-30,46,81,-1,-56,65,57,-185,-180,-94,-115,-255
-30,46,81,-1,-56,65,57,-185,-180,-94,-121,-255
-42,52,99,-1,-68,77,45,-191,-186,-100,-121,-255
-60,40,105,5,-80,71,33,-203,-192,-106,-127,-267
-96,22,123,29,-110,71,39,-209,-204,-112,-139,-273
-90,4,93,41,-92,47,21,-209,-204,-124,-139,-273
-102,4,99,47,-104,47,27,-215,-210,-124,-157,-279
-108,-7,93,59,-104,35,39,-215,-216,-124,-157,-279
-96,4,99,41,-98,47,57,-215,-216,-124,-151,-273
-84,4,87,35,-86,41,57,-221,-216,-124,-145,-273
-96,4,105,41,-98,53,57,-221,-216,-124,-133,-273
-84,4,81,41,-86,35,57,-221,-216,-124,-127,-279
-72,16,93,23,-80,53,63,-215,-216,-118,-121,-273
-54,22,81,11,-68,53,63,-221,-216,-112,-121,-273
-60,28,93,11,-74,59,63,-215,-216,-106,-115,-279
-72,28,105,17,-86,65,69,-215,-216,-112,-121,-279
-78,22,105,23,-92,65,57,-215,-216,-118,-121,-273
-78,16,99,23,-86,59,51,-227,-216,-124,-133,-273
-96,4,105,41,-98,53,39,-227,-222,-130,-133,-273
-102,-7,87,53,-98,35,33,-227,-222,-136,-139,-273
-96,4,99,41,-98,47,33,-227,-216,-136,-139,-267
-78,10,93,29,-86,53,33,-227,-228,-136,-133,-267
-66,22,93,17,-80,59,45,-227,-222,-136,-133,-261
-60,22,87,11,-74,53,51,-227,-216,-130,-127,-261
-72,4,81,29,-74,41,51,-233,-222,-136,-127,-267
-78,4,87,29,-80,47,51,-239,-222,-136,-127,-267
-84,4,93,35,-86,47,51,-239,-228,-142,-127,-285
-96,4,105,41,-98,53,51,-239,-228,-142,-127,-285
-96,4,105,41,-98,53,39,-245,-246,-160,-139,-285
-96,4,105,41,-98,53,39,-245,-246,-160,-145,-267
-72,22,99,17,-86,59,33,-251,-246,-160,-151,-255
-84,4,87,35,-86,41,27,-263,-246,-160,-157,-267
-96,-13,75,53,-86,23,21,-263,-252,-160,-163,-291
-78,4,81,35,-80,41,21,-263,-252,-160,-163,-297
-72,22,99,17,-86,59,27,-245,-252,-154,-163,-309
-72,28,105,17,-86,65,27,-245,-252,-154,-163,-303
-72,22,99,17,-86,59,33,-245,-246,-160,-157,-297
-84,10,99,29,-92,53,27,-257,-258,-160,-157,-291
-90,4,87,41,-92,41,33,-263,-252,-160,-151,-291
-90,4,87,41,-92,41,33,-263,-252,-160,-151,-285
-90,4,99,35,-92,53,33,-257,-252,-160,-145,-285
-72,4,81,29,-74,41,45,-257,-252,-154,-145,-285
-78,10,93,29,-86,53,39,-251,-258,-154,-139,-291
-84,4,81,41,-86,35,39,-251,-258,-160,-145,-291
-90,-1,81,47,-86,35,33,-257,-258,-160,-151,-279
-78,-1,69,41,-74,29,33,-257,-258,-160,-151,-279
-102,-13,81,59,-92,29,33,-269,-258,-160,-151,-273
-114,-19,87,65,-104,29,21,-269,-270,-160,-151,-273
-96,-13,75,53,-86,23,27,-275,-264,-166,-151,-273
-96,-7,81,53,-92,29,27,-275,-270,-154,-151,-273
-90,-1,81,47,-86,35,27,-281,-270,-172,-139,-273
-84,4,87,35,-86,41,21,-281,-270,-172,-139,-273
-84,4,87,35,-86,41,33,-281,-270,-166,-139,-285
-72,4,81,29,-74,41,33,-281,-270,-166,-139,-285
-90,4,99,35,-92,53,45,-287,-270,-160,-139,-297
-90,4,99,35,-92,53,51,-287,-270,-160,-139,-309
-84,4,93,35,-86,47,51,-287,-258,-160,-145,-303
-84,4,93,35,-86,47,45,-287,-258,-160,-145,-303
-90,4,87,41,-92,41,39,-293,-258,-166,-163,-303
-108,-19,81,65,-98,23,39,-293,-264,-172,-163,-297
-108,-25,75,65,-92,17,33,-293,-276,-184,-163,-303
-108,-25,75,65,-92,17,27,-293,-276,-184,-163,-303
-108,-31,69,71,-92,11,21,-299,-282,-184,-163,-309
-102,-25,69,65,-86,17,21,-299,-282,-184,-163,-315
-96,-7,81,53,-92,29,33,-293,-276,-184,-163,-303
-84,4,93,35,-86,47,39,-293,-276,-184,-163,-321
-78,4,81,35,-80,41,45,-287,-276,-184,-163,-309
-90,4,99,35,-92,53,51,-287,-276,-196,-163,-303
-84,16,105,29,-92,59,45,-293,-282,-184,-163,-291
-72,28,105,17,-86,65,51,-293,-276,-178,-163,-291
-78,4,81,35,-80,41,45,-299,-282,-178,-163,-303
-78,-7,63,41,-74,23,39,-299,-288,-184,-163,-303
-90,-13,69,53,-80,23,45,-299,-288,-184,-163,-309
-96,-19,69,59,-86,17,57,-299,-288,-184,-163,-309
-120,-31,81,77,-104,17,57,-305,-294,-184,-163,-315
-150,-37,105,95,-128,29,51,-305,-294,-184,-163,-297
-120,-19,93,71,-110,29,45,-305,-282,-178,-157,-291
-96,-13,75,53,-86,23,51,-305,-282,-172,-151,-291
-90,-7,75,47,-86,29,45,-299,-276,-166,-145,-285
-78,-1,69,41,-74,29,51,-299,-276,-172,-139,-297
-78,4,75,35,-80,35,45,-299,-282,-178,-145,-291
-78,-1,69,41,-74,29,45,-305,-282,-172,-145,-297
-78,4,87,29,-80,47,39,-305,-282,-178,-139,-291
-78,10,93,29,-86,53,39,-305,-282,-178,-139,-285
-84,4,81,41,-86,35,45,-305,-282,-190,-157,-285
-90,-1,81,47,-86,35,51,-305,-282,-190,-157,-291
-90,4,87,41,-92,41,45,-305,-282,-190,-163,-297
-96,-1,87,47,-92,35,45,-305,-282,-190,-163,-297
-96,-1,87,47,-92,35,33,-305,-282,-184,-157,-297
-96,-1,87,47,-92,35,33,-299,-282,-184,-157,-297
-90,4,93,41,-92,47,39,-299,-282,-172,-151,-297
-90,-7,75,47,-86,29,39,-305,-282,-172,-151,-303
-78,-1,69,41,-74,29,45,-305,-276,-172,-151,-297
-84,4,87,35,-86,41,39,-305,-276,-172,-151,-303
-78,4,87,29,-80,47,45,-305,-270,-172,-151,-297
-78,16,99,23,-86,59,45,-305,-276,-172,-151,-309
-90,4,93,41,-92,47,45,-317,-282,-178,-163,-315
-78,4,75,35,-80,35,45,-317,-282,-184,-163,-321
-60,4,63,23,-62,29,45,-311,-282,-190,-163,-309
-84,-1,75,41,-80,29,51,-311,-282,-196,-163,-309
-96,-13,75,53,-86,23,51,-311,-288,-184,-157,-303
-102,-19,75,59,-92,23,51,-317,-288,-184,-157,-303
-120,-13,99,65,-110,35,45,-323,-294,-190,-151,-297
-120,-13,99,65,-110,35,45,-323,-294,-196,-151,-297
-102,4,111,41,-104,59,51,-317,-282,-184,-151,-303
-114,10,129,47,-122,71,51,-323,-288,-196,-157,-303
-120,4,117,59,-122,53,45,-323,-294,-202,-163,-303
-120,-7,105,65,-116,41,39,-323,-294,-202,-163,-303
-126,-25,93,77,-110,29,33,-323,-300,-208,-163,-303
-126,-37,81,83,-104,17,27,-323,-300,-208,-163,-303
-114,-25,81,71,-98,23,33,-317,-300,-202,-163,-309
-108,-19,81,65,-98,23,33,-317,-300,-202,-163,-309
-96,-7,81,53,-92,29,39,-311,-300,-196,-157,-315
-90,-1,81,47,-86,35,39,-311,-300,-196,-157,-315
-84,4,87,35,-86,41,45,-311,-294,-190,-151,-309
-84,4,93,35,-86,47,51,-311,-288,-190,-151,-303
-78,16,99,23,-86,59,57,-311,-282,-184,-145,-297
-78,22,105,23,-92,65,63,-311,-276,-184,-145,-291
-90,4,99,35,-92,53,51,-317,-282,-190,-151,-303
-96,4,93,47,-98,41,45,-323,-288,-196,-157,-309
-108,-13,87,59,-98,29,33,-329,-294,-202,-163,-321
-114,-25,81,71,-98,23,27,-335,-300,-208,-163,-327
-120,-31,81,77,-104,17,21,-335,-306,-214,-169,-321
-126,-37,81,83,-104,17,21,-335,-306,-214,-169,-321
-132,-43,81,89,-110,11,21,-335,-312,-220,-175,-315
-138,-49,81,95,-110,11,21,-335,-312,-220,-175,-315
-132,-43,81,89,-110,11,21,-329,-306,-214,-169,-315
-132,-37,87,83,-110,17,21,-329,-306,-214,-163,-315
-126,-31,87,77,-110,23,27,-323,-300,-208,-163,-315
-126,-25,93,77,-110,29,27,-323,-300,-208,-157,-315
-114,-13,93,65,-104,35,33,-323,-300,-208,-157,-309
-102,-7,87,53,-98,35,33,-323,-300,-208,-157,-309
-90,4,87,41,-92,41,39,-323,-300,-208,-157,-303
-78,4,81,35,-80,41,39,-323,-300,-208,-157,-303
-84,4,87,35,-86,41,33,-323,-294,-202,-151,-303
-90,4,93,41,-92,47,33,-323,-294,-196,-151,-303
-96,4,99,41,-98,47,27,-323,-288,-190,-145,-303
-102,4,105,47,-104,53,27,-323,-288,-184,-145,-303
-96,4,93,47,-98,41,27,-323,-294,-190,-151,-297
-96,4,93,47,-98,41,27,-323,-294,-190,-151,-297
-90,-1,81,47,-86,35,27,-323,-300,-196,-157,-291
-90,-1,81,47,-86,35,27,-323,-300,-196,-157,-291
-102,-7,87,53,-98,35,33,-329,-300,-196,-157,-291
-108,-7,93,59,-104,35,33,-329,-300,-196,-157,-291
-120,-13,99,65,-110,35,39,-335,-300,-196,-157,-291
-126,-13,105,71,-116,41,39,-335,-300,-196,-157,-291
-120,-7,105,65,-116,41,39,-335,-300,-196,-151,-291
-120,-7,105,65,-116,41,39,-335,-300,-196,-151,-291
-114,-1,105,59,-110,47,39,-335,-300,-196,-145,-291
-114,-1,105,59,-110,47,39,-335,-300,-196,-145,-291
-114,-7,99,59,-110,41,33,-329,-300,-196,-151,-297
-114,-7,99,59,-110,41,33,-329,-300,-196,-151,-303
-114,-13,93,65,-104,35,27,-323,-300,-196,-157,-309
-114,-13,93,65,-104,35,27,-323,-300,-196,-157,-315
-108,-7,93,59,-104,35,27,-323,-300,-196,-157,-315
-108,-1,99,53,-104,41,27,-323,-300,-196,-157,-315
-102,4,99,47,-104,47,27,-323,-300,-196,-157,-315
-102,4,105,47,-104,53,27,-323,-300,-196,-157,-315
-108,-1,99,53,-104,41,27,-329,-300,-202,-163,-309
-114,-7,99,59,-110,41,27,-329,-300,-202,-163,-309
-120,-19,93,71,-110,29,27,-335,-300,-208,-163,-303
-126,-25,93,77,-110,29,27,-335,-300,-208,-163,-303
-120,-19,93,71,-110,29,27,-329,-300,-202,-163,-297
-114,-13,93,65,-104,35,27,-329,-300,-202,-157,-297
-108,-7,93,59,-104,35,27,-323,-300,-196,-151,-291
-102,-1,93,53,-98,41,27,-323,-300,-196,-145,-291
-102,-7,87,53,-98,35,21,-329,-300,-202,-151,-303
-102,-7,87,53,-98,35,21,-329,-300,-202,-151,-309
-102,-13,81,59,-92,29,21,-335,-300,-208,-157,-321
-102,-13,81,59,-92,29,21,-335,-300,-208,-157,-327
-108,-19,81,65,-98,23,21,-335,-306,-214,-163,-321
-114,-19,87,65,-104,29,21,-335,-306,-214,-163,-321
-120,-25,87,71,-104,23,21,-335,-312,-220,-169,-315
-126,-25,93,77,-110,29,21,-335,-312,-220,-175,-315
-126,-25,93,77,-110,29,21,-341,-312,-220,-169,-309
-126,-25,93,77,-110,29,21,-341,-312,-220,-169,-309
-126,-25,93,77,-110,29,21,-347,-312,-220,-163,-303
-126,-25,93,77,-110,29,21,-347,-312,-220,-163,-303
-120,-13,99,65,-110,35,27,-341,-306,-214,-163,-297
-114,-7,99,59,-110,41,33,-335,-306,-208,-157,-297
-108,4,105,53,-110,47,45,-329,-300,-202,-151,-291
-102,4,105,47,-104,53,51,-323,-300,-196,-145,-291
-102,4,99,47,-104,47,45,-323,-300,-196,-145,-285
-102,4,99,47,-104,47,39,-323,-300,-196,-145,-285
-102,-1,93,53,-98,41,33,-323,-300,-196,-145,-279
-102,-1,93,53,-98,41,27,-323,-300,-196,-145,-279
-114,-13,93,65,-104,35,21,-329,-306,-208,-151,-291
-120,-19,93,71,-110,29,21,-335,-306,-214,-157,-303
-132,-31,93,83,-116,23,21,-341,-312,-226,-163,-315
-138,-37,93,89,-116,23,21,-347,-312,-232,-163,-327
-132,-31,93,83,-116,23,21,-341,-312,-226,-163,-315
-132,-31,93,83,-116,23,21,-341,-312,-220,-163,-309
-126,-25,93,77,-110,29,27,-335,-312,-214,-157,-297
-126,-25,93,77,-110,29,27,-335,-312,-208,-157,-291
-120,-19,93,71,-110,29,27,-329,-306,-202,-151,-291
-120,-13,99,65,-110,35,27,-329,-306,-202,-145,-291
-114,-7,99,59,-110,41,27,-323,-300,-196,-139,-291
-114,-1,105,59,-110,47,27,-323,-300,-196,-133,-291
-102,4,99,47,-104,47,33,-323,-300,-196,-139,-291
-96,4,93,47,-98,41,33,-323,-300,-196,-139,-291
-84,4,87,35,-86,41,39,-323,-300,-196,-145,-291
-78,4,81,35,-80,41,39,-323,-300,-196,-145,-291
-90,-1,81,47,-86,35,33,-329,-306,-202,-151,-297
-102,-13,81,59,-92,29,27,-329,-306,-208,-157,-297
-114,-25,81,71,-98,23,21,-335,-312,-214,-163,-303
-126,-37,81,83,-104,17,21,-335,-312,-220,-163,-303
-132,-31,93,83,-116,23,21,-335,-312,-214,-163,-303
-132,-31,93,83,-116,23,27,-335,-312,-214,-157,-303
-138,-25,105,83,-122,35,33,-335,-312,-208,-151,-303
-138,-25,105,83,-122,35,39,-335,-312,-208,-145,-303
-132,-19,105,77,-122,35,39,-335,-312,-208,-145,-297
-132,-19,105,77,-122,35,39,-335,-312,-208,-145,-297
-126,-13,105,71,-116,41,39,-335,-312,-208,-145,-291
-126,-13,105,71,-116,41,39,-335,-312,-208,-145,-291
-126,-19,99,71,-116,35,39,-335,-312,-208,-151,-297
-126,-19,99,71,-116,35,39,-335,-312,-208,-151,-297
-126,-25,93,77,-110,29,39,-335,-312,-208,-157,-303
-126,-25,93,77,-110,29,39,-335,-312,-208,-157,-303
-132,-31,93,83,-116,23,33,-341,-318,-214,-157,-303
-132,-37,87,83,-110,17,33,-341,-318,-214,-157,-303
-138,-43,87,89,-116,17,27,-347,-324,-220,-157,-303
-138,-49,81,95,-110,11,27,-347,-324,-220,-157,-303
-120,-31,81,77,-104,17,27,-341,-318,-214,-151,-297
-108,-13,87,59,-98,29,27,-335,-312,-208,-145,-291
-90,4,87,41,-92,41,27,-329,-306,-202,-139,-285
-78,10,93,29,-86,53,27,-323,-300,-196,-133,-279
-90,4,87,41,-92,41,27,-329,-306,-202,-139,-285
-102,-7,87,53,-98,35,27,-329,-306,-208,-145,-291
-114,-25,81,71,-98,23,27,-335,-312,-214,-151,-297
-126,-37,81,83,-104,17,27,-335,-312,-220,-157,-303
-126,-31,87,77,-110,23,21,-335,-312,-214,-157,-309
-126,-25,93,77,-110,29,21,-335,-312,-214,-157,-309
-126,-19,99,71,-116,35,21,-335,-312,-208,-157,-315
-126,-13,105,71,-116,41,21,-335,-312,-208,-157,-315
-114,-7,99,59,-110,41,21,-329,-306,-202,-151,-309
-108,-1,99,53,-104,41,21,-329,-306,-202,-151,-309
-96,4,93,47,-98,41,27,-323,-300,-196,-145,-303
-90,4,93,41,-92,47,27,-323,-300,-196,-145,-303
-108,-7,93,59,-104,35,21,-329,-306,-208,-151,-309
-120,-19,93,71,-110,29,21,-335,-312,-214,-157,-309
-138,-37,93,89,-116,23,21,-341,-318,-226,-163,-315
-150,-49,93,101,-122,17,21,-347,-324,-232,-163,-315
-144,-43,93,95,-122,17,21,-341,-318,-226,-163,-315
-138,-37,93,89,-116,23,21,-335,-318,-226,-157,-315
-132,-31,93,83,-116,23,27,-329,-312,-220,-151,-315
-126,-25,93,77,-110,29,27,-323,-312,-220,-145,-315
-114,-13,93,65,-104,35,27,-323,-306,-214,-139,-303
-108,-7,93,59,-104,35,27,-323,-306,-208,-139,-297
-96,4,93,47,-98,41,27,-323,-300,-202,-133,-285
-90,4,93,41,-92,47,27,-323,-300,-196,-133,-279
-96,4,93,47,-98,41,27,-329,-306,-196,-139,-285
-102,-1,93,53,-98,41,27,-329,-306,-196,-139,-291
-108,-7,93,59,-104,35,27,-335,-312,-196,-145,-297
-114,-13,93,65,-104,35,27,-335,-312,-196,-145,-303
-120,-19,93,71,-110,29,27,-335,-312,-202,-145,-309
-120,-19,93,71,-110,29,27,-335,-312,-202,-145,-309
-126,-25,93,77,-110,29,27,-335,-312,-208,-145,-315
-126,-25,93,77,-110,29,27,-335,-312,-208,-145,-315
-120,-19,93,71,-110,29,33,-341,-312,-214,-145,-309
-120,-19,93,71,-110,29,33,-341,-312,-214,-145,-309
-114,-13,93,65,-104,35,39,-347,-312,-220,-145,-303
-114,-13,93,65,-104,35,39,-347,-312,-220,-145,-303
-126,-19,99,71,-116,35,33,-347,-318,-220,-145,-303
-132,-25,99,77,-116,29,33,-347,-318,-220,-145,-303
-144,-31,105,89,-128,29,27,-347,-324,-220,-145,-303
-150,-37,105,95,-128,29,27,-347,-324,-220,-145,-303
-138,-31,99,83,-122,29,27,-341,-318,-214,-151,-309
-132,-25,99,77,-116,29,27,-341,-312,-214,-151,-309
-120,-19,93,71,-110,29,27,-335,-306,-208,-157,-315
-114,-13,93,65,-104,35,27,-335,-300,-208,-157,-315
-108,-13,87,59,-98,29,33,-335,-306,-208,-151,-309
-108,-13,87,59,-98,29,33,-335,-312,-208,-145,-303
-102,-13,81,59,-92,29,39,-335,-318,-208,-139,-297
-114,-19,87,65,-104,29,27,-329,-324,-208,-133,-291
-120,-25,87,71,-104,23,21,-329,-318,-208,-133,-285
-120,-25,87,71,-104,23,21,-329,-330,-202,-133,-285
-108,-25,75,65,-92,17,21,-329,-312,-202,-127,-285
-108,-25,75,65,-92,17,21,-329,-312,-202,-127,-297
-126,-25,93,77,-110,29,27,-335,-318,-208,-133,-297
-114,-19,87,65,-104,29,27,-335,-312,-202,-133,-297
-120,-13,99,65,-110,35,33,-341,-318,-208,-139,-297
-120,-13,99,65,-110,35,33,-341,-318,-208,-139,-297
-114,-19,87,65,-104,29,39,-335,-318,-220,-139,-297
-114,-19,87,65,-104,29,33,-335,-318,-220,-139,-297
-108,-19,81,65,-98,23,39,-329,-318,-214,-139,-309
-114,-25,81,71,-98,23,33,-329,-318,-214,-151,-315
-126,-43,75,83,-104,11,27,-341,-318,-220,-151,-315
-120,-19,93,71,-110,29,33,-329,-318,-220,-151,-315
-120,-7,105,65,-116,41,39,-323,-312,-214,-145,-291
-126,-19,99,71,-116,35,39,-323,-312,-208,-145,-291
-132,-25,99,77,-116,29,39,-323,-312,-208,-139,-297
-132,-25,99,77,-116,29,39,-317,-312,-208,-133,-291
-138,-19,111,77,-128,41,39,-311,-306,-190,-115,-297
-138,-25,105,83,-122,35,39,-311,-294,-184,-109,-291
-126,-7,111,65,-122,47,45,-299,-282,-178,-109,-285
-108,10,123,41,-116,65,51,-287,-276,-166,-103,-267
-90,46,141,17,-116,95,63,-263,-252,-154,-91,-255
-78,58,141,5,-110,101,69,-263,-252,-148,-85,-243
-72,70,147,-1,-110,107,81,-251,-246,-148,-79,-231
-66,82,153,-1,-110,119,87,-251,-246,-136,-73,-225
-60,100,165,-12,-110,131,93,-245,-240,-142,-67,-219
-60,88,153,-6,-104,119,93,-245,-240,-142,-67,-219
-66,82,153,-1,-110,119,93,-251,-240,-130,-67,-213
-72,88,165,-1,-116,125,99,-245,-240,-130,-61,-213
-78,82,165,-1,-122,125,99,-251,-240,-124,-61,-213
-78,94,177,-1,-128,137,105,-245,-228,-118,-61,-207
-84,94,183,-1,-134,137,111,-245,-228,-112,-61,-207
-96,88,189,-1,-140,137,111,-239,-222,-118,-55,-207
-102,82,189,5,-146,137,111,-239,-216,-124,-55,-207
-96,82,183,-1,-140,131,111,-233,-216,-124,-49,-207
-72,94,171,-1,-122,131,105,-215,-204,-106,-37,-207
-60,112,177,-18,-116,143,99,-203,-192,-94,-31,-195
-42,118,165,-30,-104,143,87,-197,-180,-82,-19,-177
-54,118,177,-24,-116,149,69,-197,-180,-76,-19,-177
-54,112,171,-18,-110,143,51,-209,-180,-76,-19,-177
-54,106,165,-18,-110,137,33,-215,-186,-76,-19,-183
-48,94,147,-12,-98,119,21,-227,-198,-88,-31,-195
-48,82,135,-6,-92,107,21,-239,-216,-100,-43,-207
-36,88,129,-18,-80,107,21,-239,-216,-112,-49,-201
-30,94,129,-24,-80,113,33,-239,-228,-118,-55,-207
-30,88,123,-18,-74,107,39,-245,-234,-130,-61,-201
-24,82,111,-18,-68,95,45,-245,-234,-142,-61,-195
-36,76,117,-12,-74,95,39,-257,-240,-142,-61,-195
-42,64,111,-1,-74,89,51,-257,-240,-142,-67,-195
-54,46,105,-1,-80,77,57,-269,-252,-160,-85,-219
-78,16,99,23,-86,59,57,-275,-264,-172,-97,-237
-78,16,99,23,-86,59,63,-269,-258,-166,-97,-231
-78,34,117,17,-98,77,69,-263,-252,-160,-85,-219
-78,46,129,11,-104,89,75,-257,-246,-154,-85,-213
-102,28,135,29,-116,83,75,-257,-246,-154,-85,-213
-120,22,147,41,-134,83,81,-257,-240,-154,-91,-219
-126,16,147,47,-134,83,81,-263,-252,-154,-91,-231
-138,4,141,65,-140,71,69,-269,-252,-148,-91,-243
-144,-7,129,77,-140,53,63,-275,-258,-154,-103,-243
-126,4,129,59,-128,65,57,-287,-264,-160,-109,-237
-120,4,129,53,-122,65,63,-293,-264,-166,-109,-237
-108,4,117,47,-110,59,57,-299,-270,-172,-115,-231
-102,4,111,41,-104,59,57,-287,-270,-178,-115,-231
-120,-7,105,65,-116,41,69,-269,-270,-184,-121,-219
-108,4,105,53,-110,47,69,-269,-258,-172,-109,-213
-96,16,117,35,-104,65,81,-263,-258,-160,-109,-213
-48,64,117,-1,-80,89,111,-233,-234,-136,-79,-195
-30,76,111,-12,-68,95,117,-227,-216,-118,-61,-195
-102,34,141,29,-122,89,99,-245,-222,-124,-73,-195
-108,16,129,41,-116,71,99,-257,-228,-118,-73,-195
-66,40,111,5,-86,77,99,-251,-228,-118,-67,-165
-42,40,87,-1,-62,65,87,-245,-216,-106,-55,-165
-42,34,81,-1,-62,59,87,-239,-216,-106,-55,-171
-42,22,69,5,-56,47,75,-233,-216,-106,-49,-177
-54,-13,33,35,-44,5,75,-227,-210,-118,-61,-195
-90,-55,27,71,-62,-6,75,-203,-198,-112,-55,-201
-78,-67,3,71,-44,-24,87,-167,-162,-100,-43,-195
-18,-61,-38,41,3,-48,87,-101,-114,-76,-25,-177
5,-103,-116,41,57,-108,69,-29,-54,-70,-19,-171
5,-163,-176,71,87,-168,51,18,-24,-52,-13,-171
35,-181,-224,65,129,-198,39,84,23,-16,5,-165
107,-169,-278,23,195,-222,21,162,83,7,41,-129
155,-169,-326,-1,237,-240,-56,240,161,43,65,-93
173,-193,-368,5,267,-276,-134,318,227,55,76,-75
179,-247,-434,29,303,-336,-218,378,263,61,82,-81
203,-283,-488,35,345,-384,-308,420,287,73,94,-81
263,-307,-578,17,423,-444,-416,528,359,103,118,-63
323,-349,-680,5,495,-510,-524,636,443,115,130,-63
383,-433,-818,17,597,-624,-662,708,491,109,130,-63
407,-505,-920,47,663,-714,-800,744,509,97,130,-63
443,-571,-1016,59,729,-792,-908,786,551,109,142,-45
515,-637,-1160,53,837,-894,-950,870,617,133,166,-33
575,-691,-1268,53,921,-972,-1022,948,701,151,178,-33
647,-703,-1352,23,993,-1020,-1094,1014,773,175,202,-39
683,-739,-1430,23,1053,-1080,-1160,1080,851,199,226,-27
689,-829,-1520,65,1101,-1176,-1202,1128,893,193,214,-51
731,-901,-1634,83,1179,-1260,-1238,1152,935,199,208,-63
767,-961,-1730,89,1245,-1344,-1250,1194,989,193,196,-75
767,-1075,-1850,149,1305,-1458,-1250,1248,1055,199,190,-117
731,-1213,-1946,239,1335,-1572,-1274,1260,1091,199,178,-165
743,-1273,-2024,257,1383,-1650,-1304,1206,1061,175,172,-177
809,-1285,-2102,239,1455,-1692,-1298,1104,959,121,154,-195
911,-1303,-2216,197,1563,-1758,-1304,1002,881,55,118,-213
965,-1339,-2306,185,1635,-1818,-1340,936,857,43,130,-213
977,-1339,-2324,179,1653,-1830,-1394,900,893,121,208,-165
1037,-1327,-2372,143,1701,-1848,-1412,906,965,223,316,-87
1079,-1327,-2414,119,1743,-1866,-1442,846,977,301,424,-21
1079,-1321,-2408,119,1737,-1860,-1526,738,965,415,568,62
1151,-1201,-2354,17,1749,-1770,-1610,648,1001,589,778,230
1295,-967,-2270,-156,1779,-1620,-1622,552,1055,787,1012,410
1373,-823,-2198,-264,1785,-1506,-1628,486,1079,943,1186,548
1379,-733,-2120,-312,1743,-1428,-1628,438,1109,1081,1312,674
1433,-613,-2048,-402,1737,-1326,-1592,414,1163,1219,1450,782
1463,-487,-1958,-486,1707,-1218,-1532,372,1193,1345,1558,866
1409,-451,-1862,-474,1635,-1152,-1490,360,1223,1423,1630,908
1349,-433,-1784,-456,1563,-1104,-1430,360,1253,1459,1666,944
1325,-409,-1736,-456,1527,-1068,-1346,318,1223,1453,1666,968
1289,-403,-1700,-438,1491,-1044,-1250,258,1157,1381,1612,938
1217,-367,-1586,-420,1401,-972,-1178,210,1115,1309,1552,896
1175,-295,-1472,-432,1323,-882,-1070,180,1073,1243,1486,854
1127,-271,-1406,-420,1263,-834,-962,132,971,1081,1330,746
1001,-331,-1340,-330,1173,-834,-860,66,791,811,1066,560
857,-349,-1214,-246,1029,-774,-722,24,617,541,784,374
731,-271,-1010,-228,873,-642,-572,18,509,391,586,278
599,-205,-806,-192,705,-498,-452,-5,401,301,472,254
479,-169,-650,-150,561,-408,-344,-71,257,205,352,188
335,-133,-476,-96,405,-300,-218,-95,155,133,256,122
227,-97,-326,-54,273,-210,-110,-71,119,103,214,86
173,-103,-278,-24,225,-192,-56,-71,71,73,184,44
119,-115,-236,-1,177,-174,-26,-83,23,43,124,-15
59,-103,-170,17,111,-132,16,-95,18,31,100,-45
41,-85,-134,17,87,-108,21,-95,0,19,76,-57
11,-73,-92,23,51,-78,27,-107,-30,1,41,-81
-1,-73,-68,35,27,-72,51,-119,-54,-28,-7,-129
-24,-67,-38,47,-3,-54,75,-113,-66,-58,-37,-141
-24,-67,-38,47,-3,-54,105,-119,-72,-94,-67,-147
-30,-73,-38,53,-3,-54,123,-119,-90,-112,-73,-135
-30,-97,-62,65,9,-78,123,-113,-114,-118,-85,-135
-36,-85,-44,59,-3,-66,135,-113,-126,-118,-79,-135
-42,-73,-26,59,-3,-48,153,-101,-126,-118,-79,-135
-60,-61,3,59,-26,-30,159,-95,-138,-118,-79,-141
-66,-43,15,53,-44,-6,171,-83,-138,-118,-91,-153
-66,-25,33,47,-50,5,189,-83,-144,-130,-109,-165
-78,-31,39,53,-62,5,189,-77,-150,-142,-133,-171
-90,-31,51,59,-74,5,201,-83,-150,-148,-151,-189
-90,-43,39,65,-68,5,213,-83,-150,-148,-151,-189
-84,-49,27,65,-56,-6,219,-77,-156,-160,-151,-189
-84,-43,33,65,-62,0,219,-77,-156,-160,-145,-189
-90,-43,39,65,-68,5,225,-71,-150,-154,-127,-171
-96,-31,57,65,-80,5,225,-59,-150,-148,-115,-171
-108,-43,57,77,-86,5,207,-59,-144,-154,-121,-183
-138,-49,81,95,-110,11,207,-53,-150,-154,-139,-183
-150,-55,87,101,-122,11,219,-47,-150,-160,-151,-189
-150,-55,87,101,-122,11,231,-29,-150,-160,-157,-195
-114,-43,63,77,-92,5,237,-23,-144,-154,-151,-195
-126,-55,63,89,-98,5,243,-23,-138,-160,-151,-195
-114,-49,57,83,-86,5,249,-17,-132,-154,-145,-189
-96,-37,51,65,-74,5,261,-11,-126,-154,-133,-177
-102,-37,57,71,-80,5,255,-5,-126,-154,-121,-183
-108,-49,51,77,-80,5,243,0,-126,-148,-133,-165
-132,-55,69,95,-104,5,237,0,-126,-154,-133,-171
-144,-61,75,101,-110,5,231,0,-114,-148,-127,-177
-132,-31,93,83,-116,23,255,24,-102,-136,-115,-165
-108,-13,87,59,-98,29,267,42,-84,-130,-115,-171
-96,-1,87,47,-92,35,285,60,-72,-118,-109,-171
-84,4,93,35,-86,47,291,72,-60,-112,-109,-165
-78,-1,69,41,-74,29,285,72,-54,-112,-115,-159
-78,-7,63,41,-74,23,279,78,-48,-106,-109,-153
-78,-1,69,41,-74,29,273,84,-48,-112,-109,-141
-66,-7,51,35,-62,17,273,96,-42,-100,-103,-123
-72,-1,63,35,-68,23,267,96,-42,-106,-91,-123
-84,-7,69,47,-80,23,273,120,-30,-94,-91,-129
-96,-13,75,53,-86,23,273,126,-18,-94,-103,-135
-108,-19,81,65,-98,23,285,138,-12,-88,-109,-141
-108,-19,81,65,-98,23,291,156,0,-88,-103,-135
-108,-25,75,65,-92,17,297,168,6,-88,-103,-141
-108,-25,75,65,-92,17,303,180,12,-88,-97,-153
-102,-25,69,65,-86,17,303,192,18,-82,-97,-135
-90,-25,57,59,-74,11,303,192,23,-76,-85,-129
-78,-19,51,47,-68,11,309,204,23,-76,-85,-135
-78,-13,57,47,-68,17,321,222,29,-64,-85,-135
-66,-7,51,35,-62,17,333,240,41,-52,-67,-129
-78,-7,63,41,-74,23,345,264,71,-34,-67,-129
-72,-7,57,41,-68,17,345,288,77,-34,-67,-129
-78,-13,57,47,-68,17,345,312,95,-22,-73,-123
-78,4,75,35,-80,35,345,336,107,-16,-67,-117
-66,4,63,29,-68,29,357,348,131,-10,-55,-111
-54,4,57,23,-56,29,363,366,137,-4,-49,-111
-48,4,57,17,-50,29,381,378,149,1,-31,-105
-48,4,57,17,-50,29,381,396,167,1,-25,-99
-48,4,51,17,-50,23,381,432,179,7,-19,-87
-48,4,45,23,-50,17,381,444,197,25,-19,-81
-60,4,57,29,-62,23,375,474,203,25,-25,-81
-60,4,57,29,-62,23,387,498,227,37,-19,-75
-36,10,51,5,-44,29,411,522,257,49,-1,-75
-36,10,51,5,-44,29,411,546,269,61,5,-75
-36,4,45,11,-38,23,417,576,293,61,5,-69
-36,4,45,11,-38,23,417,594,305,73,5,-69
-48,4,45,23,-50,17,405,612,323,85,11,-69
-48,4,45,23,-50,17,405,630,335,85,23,-63
-48,4,51,17,-50,23,393,660,359,91,29,-63
-42,4,39,17,-44,17,393,690,377,109,41,-45
-24,4,33,5,-26,17,405,726,407,133,47,-33
-18,10,33,-1,-26,23,417,756,425,139,53,-33
-1,22,27,-1,-14,23,417,792,461,157,59,-27
17,52,27,-30,-3,41,429,834,491,181,76,-15
35,64,21,-48,3,47,447,870,515,193,88,-3
23,64,33,-42,-3,53,453,894,539,205,88,-3
29,76,39,-48,-3,59,459,918,569,229,112,3
47,106,51,-72,-3,83,477,948,593,247,124,15
35,88,45,-60,-3,71,471,978,617,259,136,9
23,82,51,-48,-8,71,471,1008,635,265,136,15
11,64,45,-36,-8,59,465,1038,659,259,136,21
-1,52,45,-24,-14,53,459,1068,683,277,154,33
5,46,33,-24,-8,41,459,1110,713,301,160,39
-1,46,39,-18,-14,47,471,1140,743,331,166,44
-1,40,39,-12,-14,41,471,1176,761,343,172,44
11,46,27,-24,-3,41,477,1206,797,349,196,50
47,94,39,-66,-3,71,489,1242,845,379,214,68
59,100,33,-78,9,71,489,1266,875,397,238,74
71,112,33,-90,15,77,489,1290,911,421,244,86
83,118,27,-96,21,77,483,1314,941,445,256,86
83,112,21,-96,27,71,489,1350,971,463,274,86
89,118,21,-102,27,71,495,1392,1001,487,292,116
107,124,9,-114,45,71,501,1422,1037,505,316,128
101,118,9,-108,39,65,501,1452,1073,535,328,146
101,124,15,-108,39,71,489,1464,1103,553,328,152
113,142,21,-126,39,83,483,1488,1139,577,358,176
131,166,27,-144,45,101,477,1512,1175,601,382,194
155,172,9,-162,69,95,471,1524,1211,613,394,206
143,160,9,-150,63,89,447,1536,1235,637,418,218
155,172,9,-162,69,95,441,1566,1271,661,442,230
173,172,3,-168,87,83,423,1572,1301,679,454,242
173,172,3,-168,87,83,411,1584,1331,697,472,260
167,172,3,-168,81,89,399,1596,1367,721,496,278
179,190,3,-180,81,101,393,1608,1403,751,520,296
197,202,3,-198,93,101,387,1626,1445,787,556,314
191,208,9,-198,87,113,381,1644,1481,823,580,332
197,214,9,-204,87,113,357,1632,1487,847,592,326
233,238,3,-234,111,119,339,1632,1523,853,616,344
263,256,-2,-258,135,125,309,1632,1547,883,640,350
269,256,-8,-258,141,125,297,1620,1571,907,658,374
263,262,3,-258,135,131,261,1614,1595,925,676,398
281,256,-20,-264,153,119,255,1608,1607,937,700,416
275,250,-20,-258,153,113,231,1614,1625,967,718,428
269,244,-20,-252,147,113,201,1590,1637,967,724,440
281,250,-26,-264,159,113,171,1584,1661,991,754,458
293,244,-44,-264,171,101,147,1572,1679,1009,778,476
305,250,-50,-276,183,101,135,1560,1703,1027,802,494
323,262,-56,-288,195,101,123,1530,1721,1045,814,500
335,262,-68,-294,207,95,93,1512,1715,1057,820,518
329,256,-68,-288,201,95,63,1482,1709,1057,826,530
323,250,-68,-282,201,89,33,1464,1703,1045,832,530
311,226,-86,-264,201,65,27,1446,1691,1039,826,530
311,238,-74,-270,195,77,27,1428,1685,1057,838,548
317,244,-68,-276,195,89,21,1392,1679,1051,850,554
329,256,-68,-288,201,95,-2,1374,1667,1057,856,566
359,268,-86,-312,225,89,-2,1344,1661,1063,862,572
353,280,-68,-312,213,107,-8,1302,1637,1057,862,572
353,280,-68,-312,213,107,-20,1254,1595,1039,850,560
371,292,-74,-330,225,107,-32,1218,1571,1021,844,554
365,304,-56,-330,213,125,-38,1182,1523,1003,826,548
329,292,-32,-306,183,131,-56,1134,1475,979,808,542
305,286,-14,-294,165,137,-80,1080,1409,961,784,530
293,280,-8,-282,153,137,-74,1026,1349,931,772,518
281,280,3,-276,141,143,-62,984,1301,907,748,506
245,268,15,-252,111,149,-62,936,1241,883,730,488
233,262,27,-240,99,149,-62,876,1187,853,694,470
221,256,33,-240,87,149,-68,816,1121,811,670,452
221,256,33,-240,87,149,-56,756,1061,781,640,434
221,256,33,-240,87,149,-38,714,1001,739,610,422
203,250,45,-228,75,155,-20,672,929,703,574,404
185,250,63,-216,57,161,-14,612,863,649,538,380
161,238,69,-198,39,155,-14,558,797,601,502,356
143,220,69,-180,33,149,-14,504,737,565,478,326
137,214,69,-174,27,143,-8,456,677,517,436,302
101,196,87,-144,3,143,-8,414,611,487,400,278
47,154,99,-96,-20,131,-14,366,545,439,358,242
29,148,111,-84,-32,131,-2,312,491,397,316,218
35,154,111,-90,-32,137,-2,276,443,355,298,194
35,166,123,-96,-38,149,4,240,395,337,268,200
29,160,123,-90,-38,143,4,210,347,307,226,206
23,142,111,-78,-38,131,16,180,293,265,208,194
11,130,111,-66,-44,125,21,150,257,235,178,182
-1,106,111,-42,-56,107,21,114,221,199,142,146
-30,88,123,-18,-74,107,21,84,167,169,112,116
-30,82,117,-18,-74,101,21,60,137,139,82,98
-30,64,99,-6,-62,83,21,36,107,115,76,80
-24,58,87,-6,-56,71,27,6,83,91,59,68
-42,52,99,-1,-68,77,27,-5,53,61,41,56
-42,46,93,-1,-68,71,33,-23,29,37,23,44
-42,52,99,-1,-68,77,45,-35,23,25,17,44
-42,40,87,-1,-62,65,39,-41,6,7,-1,39
-48,34,87,-1,-68,59,27,-59,-24,1,-19,27
-60,22,87,11,-74,53,33,-65,-48,-22,-37,9
-66,16,87,17,-74,53,33,-83,-66,-34,-49,-15
-72,4,81,29,-74,41,39,-95,-90,-52,-73,-27
-84,-1,75,41,-80,29,39,-101,-102,-64,-85,-21
-90,-7,75,47,-86,29,39,-113,-108,-64,-91,-21
-84,-7,69,47,-80,23,39,-119,-114,-64,-103,-27
-90,-13,69,53,-80,23,39,-125,-120,-70,-97,-27
-102,-19,75,59,-92,23,45,-131,-120,-70,-97,-33
-90,-13,69,53,-80,23,57,-131,-132,-82,-97,-27
-84,-19,57,53,-74,11,57,-143,-138,-88,-103,-33
-72,-13,51,41,-62,11,51,-143,-150,-94,-103,-39
-66,-7,51,35,-62,17,39,-143,-150,-100,-103,-39
-90,-31,51,59,-74,5,21,-155,-162,-106,-115,-45
-108,-49,51,77,-80,5,21,-161,-168,-118,-121,-45
-126,-73,45,101,-86,-6,16,-173,-180,-130,-145,-51
-150,-97,45,125,-98,-18,4,-179,-198,-142,-157,-63
-132,-73,51,101,-92,-6,16,-167,-192,-142,-145,-51
-96,-43,45,71,-74,5,21,-149,-180,-118,-139,-45
-78,-1,69,41,-74,29,57,-137,-162,-100,-115,-27
-48,-1,39,23,-44,11,81,-131,-138,-88,-109,-21
-66,-7,51,35,-62,17,75,-143,-162,-100,-115,-51
-72,-13,51,41,-62,11,63,-149,-174,-112,-127,-45
-84,-19,57,53,-74,11,69,-155,-186,-124,-133,-57
-90,-19,63,53,-80,17,75,-161,-192,-130,-145,-63
-90,-13,69,53,-80,23,75,-167,-186,-124,-145,-63
-90,-13,69,53,-80,23,75,-167,-186,-136,-139,-63
-90,-13,69,53,-80,23,75,-161,-192,-130,-133,-57
-72,-13,51,41,-62,11,69,-149,-192,-130,-127,-45
-78,-1,69,41,-74,29,63,-149,-198,-130,-133,-51
-84,-19,57,53,-74,11,57,-155,-204,-130,-139,-57
-90,-25,57,59,-74,11,57,-167,-210,-142,-145,-63
-90,-31,51,59,-74,5,63,-185,-210,-142,-151,-69
-90,-25,57,59,-74,11,69,-185,-210,-142,-145,-63
-96,-25,63,59,-80,11,75,-185,-210,-142,-145,-57
-90,-19,63,53,-80,17,75,-179,-204,-130,-139,-51
-78,-1,69,41,-74,29,75,-179,-210,-130,-139,-45
-78,-1,69,41,-74,29,75,-173,-210,-130,-133,-51
-72,-1,63,35,-68,23,75,-179,-210,-130,-133,-51
-66,-7,51,35,-62,17,81,-185,-210,-124,-127,-45
-66,-7,51,35,-62,17,81,-173,-210,-124,-121,-33
-72,-25,39,47,-56,5,69,-179,-216,-124,-127,-45
-96,-43,45,71,-74,5,45,-191,-222,-142,-133,-51
-108,-61,39,83,-74,-6,39,-209,-228,-160,-151,-69
-114,-67,39,89,-80,-6,51,-215,-228,-166,-157,-75
-102,-43,51,71,-80,5,69,-197,-228,-154,-151,-63
-84,-19,57,53,-74,11,75,-191,-228,-148,-151,-45
-72,4,75,29,-74,35,87,-185,-216,-142,-139,-33
-66,10,81,23,-74,47,87,-179,-216,-136,-139,-27
-72,4,75,29,-74,35,87,-191,-216,-142,-139,-33
-72,-1,63,35,-68,23,75,-203,-222,-142,-139,-45
-90,-31,51,59,-74,5,75,-209,-228,-166,-145,-57
-108,-37,63,71,-86,5,81,-215,-234,-166,-145,-57
-108,-37,63,71,-86,5,81,-215,-234,-160,-145,-51
-108,-37,63,71,-86,5,69,-215,-234,-160,-151,-51
-108,-37,63,71,-86,5,69,-215,-240,-148,-151,-45
-102,-25,69,65,-86,17,75,-215,-240,-148,-151,-33
-84,-19,57,53,-74,11,75,-209,-240,-154,-157,-45
-84,-13,63,47,-74,17,75,-215,-240,-154,-163,-33
-78,-13,57,47,-68,17,81,-209,-246,-160,-163,-27
-78,-13,57,47,-68,17,81,-203,-246,-160,-169,-27
-72,-13,51,41,-62,11,81,-209,-246,-166,-163,-21
-84,-19,57,53,-74,11,75,-215,-246,-160,-163,-21
-102,-25,69,65,-86,17,63,-221,-252,-166,-163,-33
-132,-43,81,89,-110,11,45,-239,-258,-166,-163,-45
-150,-37,105,95,-128,29,51,-233,-258,-166,-163,-39
-132,-49,75,89,-104,5,33,-233,-258,-172,-157,-33
-126,-31,87,77,-110,23,39,-227,-252,-166,-163,-27
-120,-31,81,77,-104,17,51,-227,-258,-160,-157,-21
-108,-7,93,59,-104,35,69,-227,-252,-160,-163,-21
-90,-1,81,47,-86,35,69,-233,-252,-160,-163,-21
-102,4,105,47,-104,53,69,-233,-246,-160,-163,-27
-84,4,81,41,-86,35,69,-233,-252,-160,-163,-33
-84,4,93,35,-86,47,81,-227,-252,-160,-163,-33
-72,4,75,29,-74,35,81,-233,-252,-154,-163,-33
-90,4,87,41,-92,41,87,-227,-252,-154,-163,-45
-108,-7,93,59,-104,35,93,-227,-252,-160,-163,-45
-102,-1,93,53,-98,41,93,-233,-258,-154,-163,-33
-96,-1,87,47,-92,35,93,-239,-258,-160,-169,-33
-102,-1,93,53,-98,41,93,-245,-270,-154,-163,-27
-102,-19,75,59,-92,23,93,-245,-270,-160,-169,-27
-108,-7,93,59,-104,35,93,-239,-264,-166,-175,-33
-96,4,93,47,-98,41,93,-239,-276,-166,-169,-33
-96,4,99,41,-98,47,105,-239,-270,-172,-175,-39
-96,4,99,41,-98,47,111,-239,-264,-166,-169,-39
-102,-1,93,53,-98,41,105,-239,-264,-166,-163,-33
-102,-1,93,53,-98,41,105,-239,-264,-166,-163,-33
-102,4,99,47,-104,47,99,-239,-264,-166,-163,-39
-108,4,105,53,-110,47,99,-239,-264,-166,-163,-39
-120,-7,105,65,-116,41,93,-239,-276,-172,-163,-39
-120,-7,105,65,-116,41,93,-239,-276,-172,-163,-21
-108,-1,99,53,-104,41,93,-239,-270,-160,-163,-9
-120,-25,87,71,-104,23,87,-251,-270,-160,-163,-21
-132,-49,75,89,-104,5,75,-257,-276,-166,-175,-39
-114,-25,81,71,-98,23,75,-257,-276,-166,-175,-39
-108,-1,99,53,-104,41,75,-245,-276,-166,-169,-45
-108,4,105,53,-110,47,75,-245,-276,-166,-169,-33
-120,-1,111,59,-116,47,75,-251,-282,-178,-175,-33
-132,-19,105,77,-122,35,69,-263,-294,-178,-175,-33
-150,-37,105,95,-128,29,69,-275,-300,-184,-181,-39
-150,-43,99,95,-128,23,69,-275,-300,-184,-181,-39
-132,-19,105,77,-122,35,75,-269,-288,-178,-175,-33
-108,-13,87,59,-98,29,87,-269,-288,-172,-169,-27
-96,4,93,47,-98,41,87,-263,-282,-166,-163,-27
-96,-7,81,53,-92,29,87,-263,-282,-172,-163,-21
-102,-7,87,53,-98,35,75,-269,-288,-172,-169,-21
-90,-7,75,47,-86,29,75,-269,-288,-172,-175,-27
-114,-13,93,65,-104,35,69,-281,-294,-172,-175,-33
-126,-19,99,71,-116,35,51,-281,-306,-172,-181,-39
-114,-19,87,65,-104,29,69,-281,-300,-178,-193,-39
-114,-19,87,65,-104,29,75,-281,-306,-172,-193,-39
-114,-19,87,65,-104,29,81,-281,-306,-190,-193,-39
-108,-13,87,59,-98,29,81,-281,-306,-196,-193,-39
-102,-7,87,53,-98,35,93,-275,-300,-190,-187,-33
-90,-1,81,47,-86,35,93,-275,-300,-184,-181,-27
-102,4,99,47,-104,47,105,-275,-294,-178,-175,-21
-102,4,99,47,-104,47,111,-275,-294,-172,-169,-27
-90,4,93,41,-92,47,111,-275,-288,-166,-169,-21
-84,4,93,35,-86,47,105,-275,-288,-166,-169,-21
-84,4,87,35,-86,41,99,-281,-294,-166,-181,-21
-96,-7,81,53,-92,29,99,-281,-300,-172,-187,-15
-114,-25,81,71,-98,23,87,-287,-312,-184,-193,-21
-126,-37,81,83,-104,17,81,-287,-312,-190,-193,-15
-144,-55,81,101,-116,5,69,-299,-318,-190,-193,-21
-150,-61,81,107,-116,5,63,-299,-318,-196,-193,-21
-138,-49,81,95,-110,11,69,-299,-312,-190,-187,-15
-120,-25,87,71,-104,23,69,-299,-312,-190,-187,-39
-108,-37,63,71,-86,5,63,-299,-312,-184,-187,-33
-114,-31,75,71,-98,17,63,-299,-312,-196,-187,-33
-102,-1,93,53,-98,41,69,-293,-306,-184,-187,-9
-90,4,99,35,-92,53,81,-293,-300,-178,-181,-9
-90,4,87,41,-92,41,87,-287,-294,-178,-181,-9
-90,-7,75,47,-86,29,87,-287,-300,-184,-181,-9
-90,-1,81,47,-86,35,93,-287,-294,-178,-175,-9
-90,-1,81,47,-86,35,105,-287,-294,-178,-175,-9
-102,-1,93,53,-98,41,105,-293,-294,-172,-175,-9
-126,-1,117,65,-122,53,99,-293,-294,-172,-175,9
-120,-7,105,65,-116,41,93,-293,-294,-178,-175,3
-114,-13,93,65,-104,35,93,-293,-300,-178,-181,-3
-132,-31,93,83,-116,23,87,-287,-306,-184,-187,-9
-138,-37,93,89,-116,23,87,-287,-312,-196,-193,-27
-126,-25,93,77,-110,29,87,-287,-312,-190,-199,-21
-120,-31,81,77,-104,17,87,-293,-312,-184,-199,-27
-108,-7,93,59,-104,35,87,-293,-306,-178,-193,-21
-102,-1,93,53,-98,41,87,-293,-306,-178,-193,-15
-108,-19,81,65,-98,23,93,-293,-306,-184,-199,-15
-114,-19,87,65,-104,29,99,-293,-306,-184,-199,-21
-114,-13,93,65,-104,35,93,-293,-306,-178,-193,-27
-120,-13,99,65,-110,35,93,-293,-306,-178,-193,-27
-126,-13,105,71,-116,41,81,-293,-306,-178,-187,-15
-126,-13,105,71,-116,41,81,-287,-306,-178,-187,-9
-126,-1,117,65,-122,53,87,-287,-306,-172,-181,3
-126,-19,99,71,-116,35,87,-293,-306,-172,-181,3
-120,-31,81,77,-104,17,81,-299,-306,-172,-187,9
-132,-31,93,83,-116,23,75,-299,-306,-172,-187,3
-132,-43,81,89,-110,11,69,-305,-306,-172,-193,9
-138,-43,87,89,-116,17,69,-305,-312,-172,-193,-3
-132,-31,93,83,-116,23,75,-305,-306,-178,-199,-3
-108,-19,81,65,-98,23,75,-305,-306,-178,-199,-3
-72,4,81,29,-74,41,81,-287,-294,-184,-199,15
-84,10,99,29,-92,53,87,-287,-294,-184,-193,21
-90,4,87,41,-92,41,93,-287,-300,-172,-193,27
-96,-1,87,47,-92,35,93,-293,-300,-172,-193,27
-108,-1,99,53,-104,41,93,-299,-306,-178,-193,33
-108,-1,99,53,-104,41,93,-299,-306,-184,-193,33
-102,-19,75,59,-92,23,99,-293,-318,-184,-193,27
-162,-61,93,113,-128,11,75,-311,-324,-196,-211,15
-156,-49,99,101,-128,17,69,-305,-318,-190,-205,27
-150,-37,105,95,-128,29,69,-305,-312,-190,-199,33
-144,-25,111,83,-128,35,63,-299,-306,-184,-193,44
-138,-13,117,77,-128,47,63,-299,-300,-184,-187,44
-126,-7,111,65,-122,47,75,-293,-300,-178,-181,44
-114,-1,105,59,-110,47,81,-293,-300,-172,-181,44
-102,4,99,47,-104,47,93,-287,-300,-166,-175,44
-90,4,93,41,-92,47,99,-287,-300,-160,-175,44
-102,-1,93,53,-98,41,93,-293,-306,-166,-181,44
-108,-7,93,59,-104,35,93,-293,-306,-172,-187,39
-120,-19,93,71,-110,29,87,-299,-312,-178,-193,33
-126,-25,93,77,-110,29,87,-299,-312,-184,-199,27
-138,-37,93,89,-116,23,81,-299,-312,-184,-205,27
-144,-43,93,95,-122,17,81,-299,-312,-184,-205,27
-156,-55,93,107,-128,11,75,-299,-312,-184,-211,27
-162,-61,93,113,-128,11,75,-299,-312,-184,-211,27
-138,-43,87,89,-116,17,87,-293,-306,-178,-205,33
-120,-25,87,71,-104,23,93,-293,-300,-172,-199,39
-96,-7,81,53,-92,29,105,-287,-294,-166,-193,44
-78,4,81,35,-80,41,111,-287,-288,-160,-187,44
-96,-1,87,47,-92,35,99,-293,-294,-166,-193,44
-108,-13,87,59,-98,29,87,-299,-300,-172,-199,39
-126,-25,93,77,-110,29,75,-305,-306,-178,-205,33
-138,-37,93,89,-116,23,63,-311,-312,-184,-211,27
-126,-25,93,77,-110,29,69,-305,-312,-184,-205,33
-120,-13,99,65,-110,35,75,-305,-312,-184,-205,33
-108,-1,99,53,-104,41,81,-299,-312,-184,-199,39
-102,4,105,47,-104,53,87,-299,-312,-184,-199,39
-108,4,111,47,-110,53,93,-299,-306,-184,-205,39
-108,4,111,47,-110,53,93,-299,-306,-184,-205,39
-114,4,117,53,-116,59,99,-299,-300,-184,-211,39
-114,4,117,53,-116,59,99,-299,-300,-184,-211,39
-120,4,117,59,-122,53,99,-299,-300,-178,-211,44
-120,-1,111,59,-116,47,99,-299,-300,-178,-211,50
-126,-7,111,65,-122,47,99,-299,-300,-172,-211,62
-126,-13,105,71,-116,41,99,-299,-300,-172,-211,74
-126,-13,105,71,-116,41,93,-299,-300,-166,-205,80
-126,-13,105,71,-116,41,93,-299,-300,-166,-199,80
-126,-13,105,71,-116,41,87,-299,-300,-160,-193,86
-126,-13,105,71,-116,41,87,-299,-300,-160,-187,86
-120,-7,105,65,-116,41,93,-299,-300,-160,-187,92
-114,-7,99,59,-110,41,93,-299,-300,-160,-187,92
-108,-1,99,53,-104,41,99,-299,-300,-160,-187,98
-102,-1,93,53,-98,41,99,-299,-300,-160,-187,98
-108,4,105,53,-110,47,99,-299,-300,-160,-187,92
-108,4,105,53,-110,47,99,-299,-300,-160,-187,92
-114,4,117,53,-116,59,99,-299,-300,-160,-187,86
-114,4,117,53,-116,59,99,-299,-300,-160,-187,86
-114,4,111,53,-116,53,99,-293,-300,-166,-193,92
-114,4,111,53,-116,53,99,-293,-300,-166,-199,92
-114,-1,105,59,-110,47,99,-287,-300,-172,-205,98
-114,-1,105,59,-110,47,99,-287,-300,-172,-211,98
-126,-13,105,71,-116,41,87,-293,-306,-178,-211,92
-138,-25,105,83,-122,35,81,-299,-312,-178,-211,86
-150,-37,105,95,-128,29,69,-305,-318,-184,-211,80
-162,-49,105,107,-134,23,63,-311,-324,-184,-211,74
-150,-43,99,95,-128,23,69,-305,-318,-178,-205,86
-138,-37,93,89,-116,23,75,-299,-312,-178,-199,92
-126,-31,87,77,-110,23,81,-293,-306,-172,-193,104
-114,-25,81,71,-98,23,87,-287,-300,-172,-187,110
-120,-25,87,71,-104,23,81,-293,-306,-166,-193,104
-120,-25,87,71,-104,23,81,-293,-306,-166,-193,98
-126,-25,93,77,-110,29,75,-299,-312,-160,-199,92
-126,-25,93,77,-110,29,75,-299,-312,-160,-199,86
-120,-19,93,71,-110,29,81,-299,-312,-160,-193,92
-120,-13,99,65,-110,35,87,-299,-312,-160,-193,92
-114,-7,99,59,-110,41,93,-299,-312,-160,-187,98
-114,-1,105,59,-110,47,99,-299,-312,-160,-187,98
-120,-7,105,65,-116,41,99,-305,-306,-160,-187,98
-120,-13,99,65,-110,35,99,-305,-306,-160,-187,98
-126,-19,99,71,-116,35,99,-311,-300,-160,-187,98
-126,-25,93,77,-110,29,99,-311,-300,-160,-187,98
-114,-19,87,65,-104,29,93,-305,-300,-160,-187,98
-108,-13,87,59,-98,29,93,-299,-300,-160,-187,98
-96,-7,81,53,-92,29,87,-293,-300,-160,-187,98
-90,-1,81,47,-86,35,87,-287,-300,-160,-187,98
-102,-1,93,53,-98,41,93,-293,-306,-166,-193,104
-108,-1,99,53,-104,41,93,-293,-306,-166,-193,104
-120,-1,111,59,-116,47,99,-299,-312,-172,-199,110
-126,-1,117,65,-122,53,99,-299,-312,-172,-199,110
-132,-13,111,71,-122,41,93,-305,-318,-172,-205,104
-138,-19,111,77,-128,41,93,-305,-318,-172,-205,98
-144,-31,105,89,-128,29,87,-311,-324,-172,-211,92
-150,-37,105,95,-128,29,87,-311,-324,-172,-211,86
-138,-25,105,83,-122,35,93,-305,-318,-166,-205,92
-126,-13,105,71,-116,41,93,-305,-312,-160,-205,98
-114,-1,105,59,-110,47,99,-299,-306,-154,-199,104
-102,4,105,47,-104,53,99,-299,-300,-148,-199,110
-96,4,105,41,-98,53,99,-299,-300,-154,-199,104
-96,4,105,41,-98,53,99,-299,-300,-154,-199,98
-90,10,105,35,-98,59,99,-299,-300,-160,-199,92
-90,10,105,35,-98,59,99,-299,-300,-160,-199,86
-96,4,105,41,-98,53,93,-299,-306,-160,-199,92
-102,4,105,47,-104,53,93,-299,-306,-160,-199,98
-108,4,105,53,-110,47,87,-299,-312,-160,-199,104
-114,-1,105,59,-110,47,87,-299,-312,-160,-199,110
-120,-13,99,65,-110,35,87,-305,-318,-166,-205,98
-126,-19,99,71,-116,35,87,-311,-318,-172,-211,92
-132,-31,93,83,-116,23,87,-317,-324,-178,-217,80
-138,-37,93,89,-116,23,87,-323,-324,-184,-223,74
-132,-31,93,83,-116,23,93,-317,-318,-178,-217,80
-132,-25,99,77,-116,29,93,-311,-318,-172,-211,86
-126,-19,99,71,-116,35,99,-305,-312,-166,-205,92
-126,-13,105,71,-116,41,99,-299,-312,-160,-199,98
-120,-7,105,65,-116,41,99,-299,-306,-154,-199,98
-120,-1,111,59,-116,47,99,-299,-306,-154,-199,98
-114,4,111,53,-116,53,99,-299,-300,-148,-199,98
-114,4,117,53,-116,59,99,-299,-300,-148,-199,98
-114,4,111,53,-116,53,93,-299,-306,-154,-199,104
-114,4,111,53,-116,53,87,-299,-306,-160,-199,104
-114,-1,105,59,-110,47,81,-299,-312,-166,-199,110
-114,-1,105,59,-110,47,75,-299,-312,-172,-199,110
-114,-1,105,59,-110,47,81,-305,-312,-172,-205,104
-114,-1,105,59,-110,47,81,-305,-312,-172,-205,98
-114,-1,105,59,-110,47,87,-311,-312,-172,-211,92
-114,-1,105,59,-110,47,87,-311,-312,-172,-211,86
-126,-7,111,65,-122,47,87,-317,-318,-166,-211,86
-132,-13,111,71,-122,41,87,-317,-318,-166,-211,86
-144,-19,117,83,-134,41,87,-323,-324,-160,-211,86
-150,-25,117,89,-134,41,87,-323,-324,-160,-211,86
-144,-25,111,83,-128,35,87,-317,-324,-166,-217,92
-144,-25,111,83,-128,35,87,-317,-324,-172,-217,92
-138,-25,105,83,-122,35,87,-311,-324,-178,-223,98
-138,-25,105,83,-122,35,87,-311,-324,-184,-223,98
-126,-13,105,71,-116,41,87,-311,-324,-184,-223,92
-120,-7,105,65,-116,41,87,-311,-324,-184,-223,92
-108,4,105,53,-110,47,87,-311,-324,-184,-223,86
-102,4,105,47,-104,53,87,-311,-324,-184,-223,86
-108,4,105,53,-110,47,93,-305,-318,-178,-217,86
-114,4,111,53,-116,53,93,-305,-318,-178,-217,86
-120,-1,111,59,-116,47,99,-299,-312,-172,-211,86
-126,-1,117,65,-122,53,99,-299,-312,-172,-211,86
-126,-1,117,65,-122,53,93,-305,-318,-166,-205,86
-126,-1,117,65,-122,53,93,-305,-318,-160,-205,86
-126,-1,117,65,-122,53,87,-311,-324,-154,-199,86
-126,-1,117,65,-122,53,87,-311,-324,-148,-199,86
-114,4,117,53,-116,59,93,-305,-318,-148,-193,80
-108,4,117,47,-110,59,99,-305,-312,-148,-193,80
-96,16,117,35,-104,65,105,-299,-306,-148,-187,74
-90,22,117,29,-104,71,111,-299,-300,-148,-187,74
-102,4,111,41,-104,59,99,-305,-312,-160,-199,74
-114,-1,105,59,-110,47,87,-305,-318,-166,-211,74
-126,-19,99,71,-116,35,75,-311,-330,-178,-223,74
-138,-37,93,89,-116,23,63,-311,-336,-184,-235,74
-144,-43,93,95,-122,17,57,-317,-336,-178,-229,80
-150,-43,99,95,-128,23,57,-317,-336,-178,-229,80
-156,-49,99,101,-128,17,51,-323,-336,-172,-223,86
-162,-49,105,107,-134,23,51,-323,-336,-172,-223,86
-144,-25,111,83,-128,35,69,-317,-330,-166,-211,86
-132,-7,117,71,-128,47,87,-317,-324,-166,-205,86
-114,4,123,47,-116,65,105,-311,-318,-160,-193,86
-102,22,129,35,-116,77,123,-311,-312,-160,-187,86
-108,16,129,41,-116,71,111,-311,-318,-166,-199,86
-114,10,129,47,-122,71,111,-311,-318,-172,-205,92
-108,10,123,41,-116,65,111,-317,-336,-172,-217,92
-96,10,111,35,-104,59,117,-317,-324,-178,-217,92
-114,4,111,53,-116,53,111,-323,-330,-184,-223,74
-138,-7,123,71,-134,53,105,-323,-330,-184,-223,68
-144,-19,117,83,-134,41,99,-329,-330,-184,-229,62
-156,-25,123,89,-140,41,93,-329,-330,-184,-229,56
-138,-7,123,71,-134,53,93,-323,-324,-178,-223,62
-126,4,123,59,-128,59,93,-317,-324,-184,-223,74
-108,10,123,41,-116,65,87,-311,-318,-178,-217,80
-96,28,129,29,-110,77,87,-305,-318,-166,-217,80
-114,10,129,47,-122,71,81,-311,-324,-172,-229,68
-126,-1,117,65,-122,53,81,-323,-330,-178,-229,56
-126,4,129,59,-128,65,87,-317,-336,-184,-229,50
-126,4,135,53,-128,71,99,-311,-336,-178,-223,62
-126,4,123,59,-128,59,99,-317,-330,-172,-223,68
-126,4,123,59,-128,59,99,-311,-324,-172,-223,68
-126,4,129,59,-128,65,99,-311,-318,-172,-217,80
-126,10,141,53,-134,77,99,-299,-306,-154,-205,80
-114,22,141,41,-128,83,99,-293,-294,-148,-205,86
-102,40,147,23,-122,95,105,-281,-288,-148,-205,86
-84,70,159,-1,-122,113,111,-263,-282,-136,-205,98
-66,106,177,-12,-122,143,123,-239,-264,-130,-193,104
-78,88,171,-1,-122,131,129,-245,-264,-118,-187,110
-84,88,177,-1,-128,131,135,-245,-258,-112,-181,116
-90,82,177,-1,-134,131,141,-251,-258,-94,-175,122
-96,88,189,-1,-140,137,141,-257,-252,-94,-169,122
-102,82,189,5,-146,137,147,-257,-252,-94,-163,122
-102,82,189,5,-146,137,147,-257,-252,-88,-163,128
-108,94,207,-1,-158,149,159,-251,-252,-88,-157,128
-108,94,207,-1,-158,149,159,-251,-252,-88,-157,128
-90,124,219,-6,-152,173,165,-239,-234,-76,-151,134
-78,142,225,-24,-152,185,171,-233,-228,-64,-145,134
-72,160,237,-36,-152,197,171,-215,-216,-58,-133,134
-60,172,237,-48,-146,203,171,-203,-210,-58,-127,134
-54,166,225,-48,-140,197,177,-203,-204,-58,-127,128
-42,166,213,-54,-128,191,165,-191,-198,-46,-127,128
-36,172,213,-60,-122,191,165,-185,-186,-46,-127,140
-30,166,201,-60,-116,185,147,-185,-180,-40,-127,158
-36,172,213,-60,-122,191,123,-185,-186,-46,-133,164
-36,160,201,-54,-116,179,111,-197,-186,-46,-133,170
-30,160,195,-54,-110,179,87,-203,-198,-52,-139,170
-24,142,171,-48,-98,155,81,-215,-210,-64,-151,158
-42,112,159,-24,-98,137,63,-233,-228,-76,-157,140
-60,94,159,-6,-110,125,57,-239,-234,-82,-157,134
-78,76,159,-1,-116,119,51,-245,-252,-82,-157,122
-108,46,159,23,-134,101,45,-257,-258,-88,-157,116
-96,40,141,23,-116,89,51,-257,-252,-94,-157,128
-90,46,141,17,-116,95,57,-263,-252,-94,-157,134
-78,46,129,11,-104,89,81,-263,-246,-94,-163,140
-72,40,117,11,-92,77,99,-269,-252,-112,-175,122
-84,28,117,23,-98,71,111,-269,-258,-118,-181,104
-84,40,129,17,-104,83,123,-263,-258,-118,-181,104
-78,70,153,-1,-116,113,135,-251,-246,-106,-163,110
-78,94,177,-1,-128,137,147,-245,-246,-106,-163,110
-108,70,183,11,-146,125,147,-251,-252,-100,-163,98
-114,64,183,17,-146,125,153,-257,-252,-106,-175,98
-120,58,183,23,-152,119,153,-269,-270,-100,-175,80
-120,40,165,35,-140,101,141,-281,-276,-100,-181,74
-126,22,153,47,-140,89,123,-287,-282,-112,-199,74
-126,34,165,41,-146,101,117,-293,-282,-118,-205,74
-132,28,165,47,-146,95,111,-299,-282,-124,-211,74
-138,22,165,53,-152,95,105,-299,-282,-130,-217,74
-132,22,159,47,-146,89,105,-281,-276,-124,-211,74
-108,28,141,35,-122,83,105,-269,-264,-118,-199,74
-114,34,153,35,-134,95,105,-263,-258,-112,-181,80
-120,28,153,41,-134,89,105,-251,-258,-112,-175,80
-168,-7,153,89,-164,65,111,-275,-270,-124,-193,92
-126,40,171,35,-146,107,141,-281,-252,-94,-163,104
-114,82,201,11,-158,143,171,-269,-246,-76,-145,122
-96,100,201,-1,-146,149,171,-257,-228,-58,-133,128
-54,100,159,-12,-104,131,159,-239,-216,-46,-127,122
-54,100,159,-12,-104,131,147,-239,-216,-46,-127,122
-78,58,141,5,-110,101,135,-239,-222,-58,-139,116
-90,10,105,35,-98,59,99,-233,-222,-70,-157,98
-78,-1,69,41,-74,29,99,-203,-210,-70,-145,110
-78,-7,63,41,-74,23,111,-179,-186,-52,-127,128
-66,-43,15,53,-44,-6,123,-155,-162,-52,-127,140
-54,-97,-38,77,-3,-66,111,-113,-138,-52,-133,122
-6,-91,-80,47,27,-84,93,-41,-78,-34,-127,140
65,-67,-140,-1,99,-102,87,42,-24,1,-85,164
95,-73,-176,-1,135,-120,75,120,41,43,-43,182
119,-109,-236,-1,177,-168,16,198,107,79,-31,194
131,-157,-290,5,213,-222,-92,276,173,103,-7,218
149,-205,-356,23,249,-276,-170,342,215,115,5,224
203,-217,-422,-1,309,-312,-248,390,251,121,23,230
269,-217,-488,-18,381,-348,-332,456,299,145,47,230
323,-271,-602,-18,465,-438,-440,528,359,139,47,236
359,-361,-728,-1,537,-540,-536,600,407,139,47,236
383,-433,-818,17,597,-624,-674,636,431,133,59,236
395,-493,-896,47,645,-696,-812,654,437,121,47,224
443,-583,-1028,65,729,-804,-908,708,473,109,47,206
503,-625,-1136,53,819,-876,-974,786,545,121,59,218
587,-655,-1244,29,915,-948,-1046,864,641,151,76,230
623,-715,-1340,41,975,-1020,-1106,912,707,175,94,236
635,-799,-1442,77,1035,-1116,-1148,954,755,175,94,224
701,-841,-1544,65,1119,-1194,-1172,1008,809,181,94,212
749,-901,-1658,71,1203,-1272,-1172,1044,851,187,100,200
779,-1003,-1790,107,1281,-1398,-1160,1098,917,193,100,176
791,-1099,-1898,149,1341,-1494,-1160,1146,977,199,82,158
821,-1129,-1952,149,1389,-1536,-1172,1146,995,199,94,158
815,-1213,-2036,197,1425,-1626,-1196,1074,935,151,76,134
833,-1297,-2138,233,1479,-1710,-1226,942,815,61,35,92
899,-1315,-2216,209,1557,-1764,-1256,840,761,31,47,80
953,-1351,-2306,197,1629,-1824,-1316,804,773,79,94,104
971,-1387,-2360,209,1665,-1872,-1370,792,833,169,184,146
1037,-1327,-2372,143,1701,-1848,-1412,786,893,289,316,248
1139,-1219,-2366,35,1749,-1788,-1448,732,905,433,484,380
1229,-1123,-2360,-48,1791,-1734,-1526,636,941,601,700,530
1265,-997,-2270,-126,1767,-1632,-1574,528,983,799,928,734
1283,-877,-2168,-198,1719,-1518,-1598,426,989,967,1126,890
1337,-739,-2084,-288,1707,-1410,-1604,342,977,1093,1270,1010
1403,-643,-2048,-372,1719,-1344,-1604,294,1001,1213,1396,1094
1421,-553,-1976,-426,1701,-1260,-1568,246,1007,1315,1510,1172
1421,-457,-1880,-480,1647,-1164,-1508,222,1037,1405,1606,1244
1397,-379,-1778,-498,1587,-1074,-1442,222,1091,1489,1666,1292
1361,-349,-1712,-498,1533,-1026,-1358,186,1067,1489,1678,1292
1337,-325,-1670,-498,1497,-990,-1262,108,1007,1441,1618,1262
1277,-283,-1568,-486,1425,-924,-1148,60,971,1393,1576,1244
1181,-271,-1460,-450,1317,-864,-1058,30,929,1297,1486,1202
1067,-271,-1346,-390,1209,-804,-950,0,815,1117,1306,1076
995,-247,-1250,-366,1125,-744,-800,0,689,871,1048,932
887,-235,-1130,-318,1005,-684,-650,18,581,625,778,764
719,-235,-956,-240,831,-588,-536,0,467,439,550,596
581,-193,-776,-192,681,-480,-434,-41,347,331,400,512
473,-133,-608,-162,537,-366,-320,-77,251,277,310,440
311,-109,-428,-96,369,-264,-194,-95,149,217,214,362
173,-133,-308,-12,237,-222,-104,-107,83,157,124,296
143,-97,-242,-12,195,-168,-38,-107,35,139,94,266
125,-31,-164,-36,141,-96,27,-95,23,133,76,248
47,-19,-74,-6,57,-42,57,-83,18,115,65,236
-1,-43,-50,17,21,-42,63,-83,-6,91,29,206
5,-25,-38,5,21,-30,69,-95,-24,43,-13,170
-1,-13,-20,-1,9,-12,99,-95,-42,7,-55,146
-12,-25,-8,17,-3,-18,123,-95,-54,1,-91,110
-48,-43,3,47,-26,-18,135,-101,-66,-10,-121,86
-84,-91,-2,89,-38,-48,129,-131,-108,-46,-163,56
-102,-121,-14,113,-38,-66,123,-143,-138,-76,-175,33
-42,-61,-14,53,-8,-36,159,-125,-138,-70,-163,44
-54,-43,3,47,-32,-12,183,-119,-138,-64,-163,50
-60,-25,27,41,-44,5,207,-101,-132,-58,-157,56
-84,-7,69,47,-80,23,225,-89,-132,-52,-157,56
-90,4,99,35,-92,53,243,-71,-126,-46,-163,50
-78,22,105,23,-92,65,255,-59,-126,-58,-169,44
-78,16,99,23,-86,59,255,-47,-126,-70,-193,44
-78,16,99,23,-86,59,261,-41,-120,-76,-205,39
-66,4,75,23,-68,41,267,-35,-114,-76,-205,39
-66,4,63,29,-68,29,273,-41,-132,-94,-211,33
-72,4,69,35,-74,29,273,-47,-138,-100,-211,33
-84,-1,75,41,-80,29,279,-53,-144,-100,-199,44
-96,4,93,47,-98,41,279,-47,-150,-100,-193,44
-108,-1,99,53,-104,41,261,-41,-138,-100,-193,33
-144,-7,129,77,-140,53,261,-35,-138,-100,-211,33
-156,-7,141,83,-152,59,273,-23,-132,-100,-217,27
-162,-7,147,83,-158,65,285,-5,-126,-100,-223,21
-120,4,117,59,-122,53,285,0,-114,-88,-217,15
-132,-13,111,71,-122,41,285,0,-108,-82,-217,15
-114,-7,99,59,-110,41,285,0,-96,-70,-211,21
-96,-1,87,47,-92,35,291,12,-90,-58,-199,27
-96,-1,87,47,-92,35,297,18,-90,-58,-187,21
-102,-7,87,53,-98,35,297,24,-96,-58,-199,39
-120,-13,99,65,-110,35,303,24,-96,-64,-199,33
-132,-13,111,71,-122,41,309,36,-90,-64,-193,27
-132,-1,123,65,-128,53,315,54,-78,-52,-187,33
-120,4,117,59,-122,53,327,66,-60,-52,-187,21
-120,-1,111,59,-116,47,327,78,-48,-40,-187,15
-120,4,117,59,-122,53,327,84,-36,-40,-187,15
-108,-7,93,59,-104,35,321,96,-30,-34,-181,21
-108,-7,93,59,-104,35,321,102,-24,-28,-169,33
-102,4,99,47,-104,47,315,120,-24,-28,-163,44
-90,4,87,41,-92,41,321,132,-18,-16,-151,56
-90,4,93,41,-92,47,321,132,-18,-22,-145,44
-96,4,99,41,-98,47,327,156,-6,-10,-151,44
-102,4,99,47,-104,47,333,162,6,-10,-163,27
-108,4,105,53,-110,47,345,174,12,-4,-175,15
-96,4,105,41,-98,53,345,192,23,-4,-175,21
-90,4,99,35,-92,53,351,204,23,-4,-175,15
-78,16,99,23,-86,59,351,216,35,-4,-175,3
-66,22,93,17,-80,59,351,228,41,1,-175,21
-66,10,81,23,-74,47,351,234,53,7,-157,39
-66,10,81,23,-74,47,351,246,65,13,-145,44
-78,4,87,29,-80,47,363,270,77,37,-133,44
-78,4,87,29,-80,47,369,294,89,55,-103,62
-90,4,93,41,-92,47,375,312,113,61,-109,50
-90,-1,81,47,-86,35,369,330,119,49,-121,44
-96,-13,75,53,-86,23,363,342,131,49,-133,44
-102,-7,87,53,-98,35,357,360,143,43,-139,39
-90,-1,81,47,-86,35,369,378,167,49,-127,44
-72,4,69,35,-74,29,381,396,173,55,-121,44
-66,4,75,23,-68,41,399,414,185,67,-103,56
-60,4,69,23,-62,35,405,432,203,73,-97,68
-54,10,69,17,-62,41,411,468,227,91,-79,80
-48,16,69,11,-56,41,411,486,245,115,-73,86
-54,28,87,5,-68,59,411,510,263,127,-67,86
-48,40,93,-1,-68,65,423,546,281,145,-55,92
-42,34,81,-1,-62,59,435,564,299,157,-43,80
-48,22,75,5,-62,47,429,588,317,163,-43,68
-66,4,63,29,-68,29,423,612,329,163,-49,62
-72,-7,57,41,-68,17,417,630,341,169,-55,50
-78,-13,57,47,-68,17,423,648,365,193,-37,62
-72,-1,63,35,-68,23,429,672,383,199,-19,74
-66,4,69,29,-68,35,435,702,413,217,-1,86
-54,4,63,17,-56,35,441,732,437,241,17,110
-30,22,57,-1,-44,41,459,774,473,259,23,116
-18,40,63,-1,-38,53,477,810,497,265,29,116
-1,58,57,-24,-26,59,483,852,533,283,35,116
29,100,63,-60,-8,83,501,894,569,307,59,128
35,88,45,-60,-3,71,507,924,587,307,59,128
11,70,51,-36,-14,65,507,948,611,313,53,122
5,58,45,-30,-14,53,501,966,629,325,59,116
11,70,51,-36,-14,65,507,990,653,343,65,122
11,76,57,-42,-14,71,507,1020,677,361,76,134
11,82,63,-42,-20,77,513,1050,701,367,76,146
11,88,69,-48,-20,83,513,1074,725,367,82,170
11,88,69,-48,-20,83,513,1104,755,385,106,188
29,94,57,-60,-8,77,513,1152,791,421,130,194
35,100,57,-66,-3,83,525,1188,827,457,142,212
41,106,57,-72,-3,83,525,1224,863,481,166,212
71,118,39,-90,9,83,531,1260,905,487,196,218
83,142,51,-108,9,101,549,1296,941,517,208,224
77,130,45,-102,9,89,555,1314,965,529,232,230
65,118,45,-90,3,83,561,1332,989,553,232,230
59,106,39,-78,3,77,561,1350,1007,571,244,230
59,106,39,-78,3,77,555,1380,1049,595,262,242
71,118,39,-90,9,83,555,1422,1085,625,280,272
89,130,33,-108,21,83,549,1446,1133,649,304,290
89,130,33,-108,21,83,543,1470,1169,679,316,308
89,136,39,-108,21,89,525,1488,1193,697,328,320
101,148,39,-120,27,95,519,1512,1229,727,364,344
119,172,45,-144,33,113,507,1536,1253,745,400,368
143,172,21,-156,57,101,507,1548,1289,763,418,380
119,166,39,-138,33,107,489,1548,1313,793,442,386
131,184,45,-156,39,119,483,1572,1355,817,466,392
137,190,45,-162,39,119,471,1566,1385,841,478,398
137,196,51,-162,39,125,459,1572,1415,859,496,410
143,196,45,-168,45,125,441,1584,1451,877,514,428
167,214,39,-186,57,131,429,1590,1481,907,538,452
197,226,21,-210,81,125,417,1608,1517,937,562,470
203,232,21,-216,87,131,405,1620,1547,967,592,488
203,238,27,-216,81,137,393,1596,1559,991,610,500
233,256,21,-240,99,143,375,1596,1595,1003,634,530
257,280,15,-264,117,155,357,1584,1619,1039,664,548
257,280,15,-264,117,155,345,1572,1643,1069,682,584
251,286,27,-264,111,161,315,1554,1661,1075,700,590
275,280,3,-276,135,143,303,1542,1667,1087,724,602
269,274,3,-270,135,143,285,1536,1679,1105,742,596
269,268,3,-264,135,137,261,1506,1685,1105,748,602
263,262,3,-258,135,131,219,1488,1697,1129,772,614
263,250,-8,-252,141,119,195,1476,1703,1147,790,626
257,244,-8,-246,135,119,171,1458,1715,1159,808,638
263,250,-8,-252,141,119,159,1428,1721,1177,814,638
305,292,-8,-294,159,143,147,1410,1727,1207,838,674
329,316,-8,-318,171,155,129,1380,1727,1219,862,698
353,352,3,-348,177,179,117,1362,1727,1219,886,716
371,352,-14,-360,195,167,123,1338,1727,1225,898,734
347,346,3,-342,177,173,117,1314,1715,1231,904,728
329,340,3,-330,159,179,93,1272,1697,1219,904,722
317,334,9,-324,153,179,63,1248,1679,1219,904,710
323,328,3,-324,159,167,57,1218,1661,1219,898,704
305,328,15,-312,141,179,57,1176,1625,1201,886,704
293,316,15,-300,135,173,45,1122,1577,1177,862,686
299,316,9,-306,141,167,39,1086,1541,1147,844,680
281,316,27,-294,123,179,33,1038,1487,1123,814,668
263,316,45,-288,105,185,21,990,1439,1093,802,656
251,310,51,-276,99,185,16,942,1373,1063,766,644
257,316,51,-282,99,191,21,888,1313,1027,754,620
257,316,51,-282,99,191,33,846,1265,997,724,608
215,304,87,-252,57,203,39,804,1211,973,700,590
185,298,111,-240,33,209,39,744,1145,931,658,566
161,292,129,-228,9,215,39,702,1079,883,628,548
149,292,141,-222,-3,221,51,642,1013,841,592,530
149,280,129,-216,3,209,57,588,947,793,562,506
131,268,135,-198,-3,209,69,546,869,751,526,488
113,256,141,-186,-8,203,63,486,791,697,478,452
89,238,141,-162,-20,191,57,432,731,649,442,428
95,244,147,-168,-20,203,63,396,677,619,418,392
107,256,147,-180,-14,209,75,348,629,577,382,368
95,268,171,-180,-32,227,81,324,575,553,346,332
59,244,183,-150,-56,221,81,282,521,505,316,296
17,220,195,-114,-80,209,87,234,455,445,256,260
11,208,189,-108,-80,203,87,192,395,391,214,224
-1,196,201,-90,-98,197,87,156,335,349,166,212
-18,172,195,-66,-104,185,87,114,275,307,106,206
-12,166,183,-66,-98,173,93,84,233,265,88,194
-18,160,183,-60,-98,173,99,60,197,235,71,182
-30,148,183,-48,-104,167,93,24,167,199,35,146
-54,136,195,-30,-122,167,99,0,119,169,5,116
-66,124,195,-18,-128,161,111,0,101,151,-7,110
-66,106,177,-12,-122,143,117,-11,77,133,-19,92
-72,94,171,-1,-122,131,129,-23,65,121,-19,92
-90,88,183,-1,-134,137,135,-41,41,97,-31,80
-84,82,171,-1,-128,125,141,-65,23,79,-49,68
-78,88,171,-1,-122,131,153,-77,12,67,-49,50
-72,76,153,-1,-110,113,147,-89,-18,55,-67,44
-72,70,147,-1,-110,107,135,-107,-48,37,-79,39
-84,70,159,-1,-122,113,141,-101,-60,19,-97,21
-84,70,159,-1,-122,113,141,-113,-66,7,-109,-3
-90,70,165,5,-128,119,147,-113,-78,1,-133,-15
-96,58,159,11,-128,107,147,-113,-78,-4,-145,-9
-96,58,159,11,-128,107,141,-125,-96,-16,-163,-9
-90,58,153,11,-122,107,141,-131,-108,-22,-169,-15
-90,58,153,11,-122,107,135,-137,-126,-40,-175,-15
-102,52,159,17,-128,107,141,-143,-132,-46,-175,-21
-114,28,147,35,-128,89,147,-149,-144,-58,-181,-27
-126,4,135,53,-128,71,147,-167,-150,-70,-187,-39
-138,-7,123,71,-134,53,135,-173,-162,-76,-193,-57
-150,-19,123,83,-140,47,123,-179,-162,-88,-193,-63
-138,-1,129,71,-134,59,123,-173,-156,-76,-187,-63
-126,4,135,53,-128,71,129,-167,-150,-76,-181,-57
-108,22,135,35,-122,77,141,-161,-144,-70,-187,-57
-102,34,141,29,-122,89,147,-155,-150,-70,-187,-63
-102,28,135,29,-116,83,141,-161,-162,-88,-193,-57
-84,34,123,17,-104,77,141,-155,-168,-76,-199,-57
-84,46,135,11,-110,89,165,-161,-168,-76,-193,-45
-72,22,99,17,-86,59,177,-167,-162,-76,-199,-45
-90,28,123,23,-104,77,171,-167,-168,-76,-193,-57
-96,22,123,29,-110,71,159,-167,-168,-82,-199,-45
-108,28,141,35,-122,83,165,-161,-162,-82,-193,-39
-114,28,147,35,-128,89,171,-161,-156,-82,-199,-39
-120,22,147,41,-134,83,171,-179,-162,-82,-205,-51
-120,22,147,41,-134,83,171,-185,-168,-94,-205,-63
-126,10,141,53,-134,77,171,-191,-186,-94,-205,-69
-108,10,123,41,-116,65,165,-185,-192,-94,-205,-69
-102,34,141,29,-122,89,165,-179,-192,-82,-199,-63
-108,22,135,35,-122,77,159,-179,-198,-82,-199,-63
-102,28,135,29,-116,83,165,-185,-198,-82,-193,-57
-102,28,135,29,-116,83,171,-197,-198,-82,-193,-57
-114,22,141,41,-128,83,177,-197,-198,-88,-199,-63
-126,10,141,53,-134,77,183,-197,-198,-88,-199,-63
-132,4,141,59,-134,71,183,-191,-192,-82,-205,-69
-126,10,141,53,-134,77,183,-191,-198,-82,-205,-69
-120,16,141,47,-128,77,171,-197,-204,-94,-211,-75
-114,16,135,41,-122,77,165,-203,-210,-100,-211,-75
-102,16,123,35,-110,71,159,-221,-216,-106,-217,-69
-102,16,123,35,-110,71,153,-209,-216,-112,-211,-57
-108,16,129,41,-116,71,159,-203,-216,-106,-217,-69
-126,4,135,53,-128,71,141,-209,-228,-118,-217,-75
-138,4,147,59,-140,77,153,-215,-228,-130,-235,-93
-138,4,147,59,-140,77,171,-215,-228,-130,-235,-99
-138,10,153,59,-146,83,177,-209,-228,-130,-229,-99
-126,22,153,47,-140,89,183,-209,-228,-130,-229,-87
-126,34,165,41,-146,101,183,-215,-216,-136,-217,-87
-126,34,165,41,-146,101,183,-215,-216,-136,-217,-87
-126,34,165,41,-146,101,177,-215,-222,-130,-211,-87
-126,28,159,41,-140,95,165,-221,-228,-124,-211,-99
-138,10,153,59,-146,83,159,-215,-240,-136,-211,-105
-156,10,171,65,-164,89,165,-215,-246,-130,-211,-105
-156,10,171,65,-164,89,165,-221,-240,-130,-217,-111
-156,10,171,65,-164,89,153,-227,-240,-130,-229,-111
-156,10,171,65,-164,89,153,-233,-240,-124,-235,-117
-150,22,177,59,-164,101,159,-239,-240,-124,-241,-105
-132,34,171,41,-152,101,165,-233,-234,-124,-235,-117
-132,46,183,35,-158,113,171,-239,-234,-124,-229,-99
-126,52,183,29,-152,119,183,-233,-234,-124,-223,-93
-126,58,189,29,-158,125,189,-227,-234,-124,-217,-87
-102,76,183,5,-140,131,201,-221,-234,-118,-205,-75
-96,82,183,-1,-140,131,207,-221,-234,-106,-199,-75
-96,94,195,-1,-146,143,207,-215,-240,-100,-187,-81
-108,88,201,5,-152,143,201,-227,-246,-94,-181,-93
-138,82,225,23,-182,155,201,-233,-252,-106,-193,-99
-126,64,195,23,-158,131,183,-233,-252,-124,-199,-99
-132,70,207,23,-170,137,183,-239,-252,-130,-217,-105
-132,64,201,29,-164,131,195,-239,-258,-136,-223,-105
-132,76,213,23,-170,143,207,-233,-258,-130,-217,-99
-120,76,201,17,-158,137,207,-239,-258,-130,-217,-99
-144,76,225,29,-182,149,201,-233,-258,-124,-205,-99
-132,64,201,29,-164,131,201,-233,-264,-124,-205,-105
-120,82,207,11,-164,143,213,-233,-264,-130,-211,-99
-96,82,183,-1,-140,131,213,-239,-264,-124,-217,-99
-102,82,189,5,-146,137,219,-239,-264,-130,-223,-105
-108,76,189,11,-146,131,225,-239,-264,-136,-235,-105
-114,76,195,11,-152,137,219,-239,-270,-142,-235,-111
-120,76,201,17,-158,137,213,-245,-270,-148,-247,-117
-138,70,213,29,-176,143,207,-245,-282,-154,-247,-129
-150,52,207,41,-176,131,201,-245,-282,-160,-253,-135
-156,46,207,47,-182,125,189,-251,-282,-160,-259,-141
-150,46,201,47,-176,125,183,-251,-294,-160,-253,-141
-150,34,189,53,-170,113,183,-257,-294,-160,-259,-147
-156,22,183,59,-170,101,183,-257,-288,-154,-253,-147
-156,28,189,59,-170,107,189,-251,-282,-148,-241,-135
-150,46,201,47,-176,125,189,-257,-282,-148,-235,-123
-144,70,219,29,-182,143,195,-251,-276,-142,-223,-123
-144,88,237,23,-188,161,195,-251,-276,-142,-217,-111
-150,76,231,29,-188,155,183,-251,-288,-160,-229,-117
-150,70,225,35,-188,149,183,-251,-288,-160,-229,-105
-132,76,213,23,-170,143,177,-251,-282,-160,-235,-99
-144,46,195,41,-170,119,171,-263,-282,-160,-235,-117
-150,28,183,53,-164,107,171,-269,-294,-160,-247,-129
-126,64,195,23,-158,131,177,-269,-294,-160,-247,-129
-114,94,213,5,-164,155,189,-257,-300,-154,-241,-129
-108,112,225,-1,-164,167,195,-257,-300,-154,-241,-117
-126,100,231,5,-176,167,195,-263,-300,-172,-247,-123
-144,76,225,29,-182,149,189,-275,-312,-178,-253,-129
-168,52,225,53,-194,137,189,-287,-312,-190,-259,-141
-174,40,219,59,-194,131,189,-287,-312,-196,-265,-147
-174,46,225,59,-200,137,189,-287,-312,-202,-271,-153
-162,46,213,53,-188,131,201,-287,-318,-196,-271,-159
-168,46,219,53,-194,131,195,-287,-324,-202,-277,-171
-180,28,213,71,-194,119,195,-287,-330,-208,-283,-177
-156,52,213,47,-182,131,201,-281,-324,-202,-271,-159
-126,76,207,17,-164,143,207,-281,-318,-196,-265,-153
-120,94,219,5,-170,155,219,-281,-312,-190,-247,-141
-114,112,231,-1,-170,173,207,-281,-318,-184,-241,-135
-108,106,219,-1,-164,161,207,-281,-312,-184,-247,-141
-114,106,225,-1,-170,167,201,-281,-318,-172,-247,-141
-120,100,225,5,-170,161,189,-281,-318,-184,-241,-147
-120,106,231,-1,-176,167,177,-281,-318,-184,-241,-147
-126,94,225,11,-176,161,183,-281,-324,-184,-241,-141
-120,94,219,5,-170,155,183,-281,-324,-184,-241,-135
-144,82,231,23,-188,155,189,-287,-330,-184,-241,-129
-150,76,231,29,-188,155,195,-287,-330,-184,-241,-135
-132,88,225,17,-176,155,201,-287,-324,-190,-247,-141
-120,100,225,5,-170,161,201,-287,-324,-190,-247,-153
-114,100,219,-1,-164,161,201,-293,-330,-202,-265,-165
-120,88,213,11,-164,149,207,-293,-336,-208,-271,-171
-120,88,213,11,-164,149,207,-287,-336,-214,-271,-177
-120,88,213,11,-164,149,207,-287,-336,-214,-271,-171
-120,88,213,11,-164,149,207,-287,-330,-208,-265,-177
-114,94,213,5,-164,155,207,-287,-330,-208,-265,-177
-120,88,213,11,-164,149,213,-293,-330,-202,-259,-165
-120,100,225,5,-170,161,213,-293,-330,-202,-259,-183
-126,70,201,23,-164,137,207,-299,-336,-196,-259,-171
-150,64,219,35,-182,143,207,-299,-336,-208,-259,-165
-132,94,231,11,-182,161,201,-293,-342,-202,-259,-153
-120,112,237,-1,-176,173,213,-293,-336,-202,-253,-159
-114,100,219,-1,-164,161,207,-287,-342,-208,-253,-171
-114,88,207,5,-158,149,207,-287,-348,-220,-253,-177
-120,82,207,11,-164,143,207,-293,-354,-226,-259,-183
-120,82,207,11,-164,143,213,-299,-354,-232,-259,-189
-138,70,213,29,-176,143,207,-311,-366,-238,-271,-195
-162,70,237,41,-200,155,195,-317,-366,-238,-271,-183
-156,76,237,35,-194,155,189,-311,-360,-238,-265,-189
-144,76,225,29,-182,149,189,-311,-360,-232,-265,-189
-162,70,237,41,-200,155,183,-299,-360,-226,-265,-195
-162,70,237,41,-200,155,183,-299,-360,-232,-265,-201
-168,64,237,47,-200,149,189,-299,-366,-238,-271,-201
-168,52,225,53,-194,137,189,-305,-366,-232,-271,-207
-174,58,237,53,-206,149,195,-305,-366,-238,-265,-207
-174,58,237,53,-206,149,195,-305,-366,-238,-265,-201
-174,40,219,59,-194,131,201,-311,-372,-250,-277,-201
-174,40,219,59,-194,131,201,-311,-372,-250,-277,-201
-168,46,219,53,-194,131,195,-317,-378,-256,-277,-207
-168,46,219,53,-194,131,189,-317,-378,-256,-277,-201
-162,64,231,41,-194,149,189,-311,-366,-250,-259,-195
-156,82,243,29,-200,161,189,-299,-360,-244,-253,-189
-144,112,255,11,-200,185,207,-293,-348,-238,-235,-177
-138,112,249,5,-194,185,207,-293,-342,-232,-229,-177
-144,94,243,17,-194,167,201,-299,-348,-238,-235,-183
-162,88,249,29,-206,173,189,-305,-354,-238,-241,-195
-174,70,243,47,-212,161,183,-311,-360,-244,-247,-195
-186,64,249,53,-218,161,177,-317,-372,-250,-253,-213
-174,70,243,47,-212,161,183,-317,-366,-244,-253,-207
-138,82,225,23,-182,155,189,-311,-366,-244,-253,-207
-96,112,213,-1,-152,161,195,-293,-354,-238,-247,-189
-96,118,219,-1,-158,167,207,-287,-354,-238,-241,-183
-108,106,219,-1,-164,161,207,-293,-360,-238,-247,-189
-114,100,219,-1,-164,161,201,-299,-360,-238,-247,-195
-132,106,243,5,-188,173,195,-311,-366,-250,-253,-195
-132,106,243,5,-188,173,189,-311,-366,-262,-253,-201
-126,112,243,-1,-182,179,195,-293,-354,-250,-241,-195
-90,130,225,-12,-158,179,195,-287,-360,-250,-247,-195
-108,112,225,-1,-164,167,183,-293,-366,-256,-253,-201
-120,100,225,5,-170,161,177,-299,-372,-262,-253,-201
-138,82,225,23,-182,155,165,-305,-378,-268,-259,-207
-150,70,225,35,-188,149,159,-311,-384,-274,-259,-207
-162,64,231,41,-194,149,159,-311,-390,-274,-253,-207
-168,64,237,47,-200,149,159,-311,-390,-274,-253,-207
-180,58,243,53,-212,149,159,-311,-396,-274,-247,-207
-186,58,243,59,-218,155,159,-311,-396,-274,-247,-207
-168,70,243,41,-206,155,159,-311,-390,-268,-241,-213
-156,82,243,29,-200,161,159,-311,-390,-268,-235,-213
-138,94,237,17,-188,167,159,-311,-384,-262,-229,-219
-126,106,237,5,-182,173,159,-311,-384,-262,-223,-219
-144,94,243,17,-194,167,153,-311,-384,-268,-229,-225
-162,82,243,35,-206,167,153,-311,-384,-268,-235,-225
-180,70,249,47,-218,161,147,-311,-384,-274,-241,-231
-198,58,255,65,-230,161,147,-311,-384,-274,-247,-231
-186,64,249,53,-218,161,141,-317,-390,-280,-253,-231
-180,64,243,53,-212,155,141,-317,-390,-286,-253,-231
-168,70,243,41,-206,155,135,-323,-396,-292,-259,-231
-162,70,237,41,-200,155,135,-323,-396,-298,-259,-231
-150,76,231,29,-188,155,129,-317,-396,-298,-253,-225
-138,82,225,23,-182,155,129,-317,-396,-298,-253,-219
-126,88,219,11,-170,155,123,-311,-396,-298,-247,-213
-114,94,213,5,-164,155,123,-311,-396,-298,-247,-207
-126,100,231,5,-176,167,123,-317,-396,-292,-241,-213
-138,106,243,11,-194,179,123,-317,-396,-292,-235,-219
-150,112,261,11,-206,191,123,-323,-396,-286,-229,-225
-162,118,279,17,-224,203,123,-323,-396,-286,-223,-231
-162,106,267,23,-218,191,117,-323,-396,-286,-229,-225
-162,100,261,23,-212,185,117,-323,-396,-286,-229,-225
-162,88,249,29,-206,173,111,-323,-396,-286,-235,-219
-162,82,243,35,-206,167,111,-323,-396,-286,-235,-219
-174,76,249,41,-212,167,105,-329,-402,-292,-235,-219
-180,76,255,47,-218,167,105,-329,-402,-298,-235,-219
-192,70,261,53,-230,167,99,-335,-408,-304,-235,-219
-198,70,267,59,-236,173,99,-335,-408,-310,-235,-219
-192,70,261,53,-230,167,87,-341,-408,-310,-235,-225
-186,70,255,53,-224,167,81,-341,-408,-310,-235,-231
-180,70,249,47,-218,161,69,-347,-408,-310,-235,-237
-174,70,243,47,-212,161,63,-347,-408,-310,-235,-243
-186,64,249,53,-218,161,57,-347,-414,-316,-241,-249
-192,58,249,59,-224,155,51,-347,-414,-322,-247,-249
-204,52,255,71,-230,155,45,-347,-420,-328,-253,-255
-210,46,255,77,-236,155,39,-347,-420,-334,-259,-255
-204,58,261,65,-236,161,45,-341,-414,-328,-247,-249
-204,64,267,65,-236,167,51,-341,-414,-328,-241,-243
-198,76,273,53,-236,179,57,-335,-408,-322,-229,-237
-198,82,279,53,-242,185,63,-335,-408,-322,-223,-231
-204,70,273,59,-242,173,57,-341,-414,-322,-229,-237
-204,64,267,65,-236,167,51,-341,-414,-322,-229,-243
-210,52,261,71,-236,161,45,-347,-420,-322,-235,-249
-210,46,255,77,-236,155,39,-347,-420,-322,-235,-255
-210,52,261,71,-236,161,39,-347,-420,-322,-229,-249
-210,52,261,71,-236,161,39,-347,-420,-322,-229,-249
-210,58,267,71,-242,167,39,-347,-420,-322,-223,-243
-210,58,267,71,-242,167,39,-347,-420,-322,-223,-243
-198,70,267,59,-236,173,39,-347,-420,-328,-229,-243
-192,76,267,53,-230,173,39,-347,-420,-328,-229,-243
-180,88,267,41,-224,179,39,-347,-420,-334,-235,-243
-174,94,267,35,-224,185,39,-347,-420,-334,-235,-243
-174,100,273,29,-224,191,33,-347,-420,-334,-229,-243
-174,100,273,29,-224,191,33,-347,-420,-334,-229,-243
-174,106,279,29,-230,197,27,-347,-420,-334,-223,-243
-174,106,279,29,-230,197,27,-347,-420,-334,-223,-243
-186,94,279,41,-236,191,27,-353,-426,-340,-229,-249
-198,82,279,53,-242,185,27,-353,-432,-346,-229,-249
-210,70,279,65,-242,179,27,-359,-438,-352,-235,-255
-222,58,279,77,-248,173,27,-359,-444,-358,-235,-255
-216,64,279,71,-242,173,21,-359,-438,-352,-229,-249
-210,64,273,65,-242,173,21,-359,-438,-352,-229,-249
-204,70,273,59,-242,173,21,-359,-432,-346,-223,-243
-198,70,267,59,-236,173,21,-359,-432,-346,-223,-243
-216,58,273,71,-242,167,16,-365,-438,-346,-229,-249
-228,46,273,83,-248,161,10,-365,-438,-346,-229,-255
-240,34,279,101,-260,161,-2,-371,-444,-346,-235,-261
-252,22,279,113,-266,155,-8,-371,-444,-346,-235,-267
-240,40,279,95,-254,161,-2,-371,-438,-346,-229,-261
-228,58,285,77,-254,173,-2,-371,-432,-346,-229,-255
-210,76,285,59,-242,185,4,-371,-426,-346,-223,-249
-198,94,291,47,-242,197,4,-371,-420,-346,-223,-243
-204,88,291,53,-242,191,4,-365,-426,-352,-223,-249
-210,82,291,59,-248,191,4,-365,-426,-352,-223,-249
-216,76,291,65,-248,185,4,-359,-432,-358,-223,-255
-222,70,291,71,-254,185,4,-359,-432,-358,-223,-255
-216,64,279,71,-242,173,4,-365,-438,-364,-229,-261
-216,64,279,71,-242,173,4,-365,-438,-364,-229,-267
-210,58,267,71,-242,167,4,-371,-444,-370,-235,-273
-210,58,267,71,-242,167,4,-371,-444,-370,-235,-279
-204,64,267,65,-236,167,-8,-365,-438,-370,-235,-273
-198,70,267,59,-236,173,-14,-365,-438,-370,-235,-267
-192,76,267,53,-230,173,-26,-359,-432,-370,-235,-261
-186,82,267,47,-230,179,-32,-359,-432,-370,-235,-255
-192,82,273,47,-236,179,-32,-359,-432,-370,-235,-255
-198,82,279,53,-242,185,-32,-359,-432,-370,-235,-255
-204,82,285,53,-242,185,-32,-359,-432,-370,-235,-255
-210,82,291,59,-248,191,-32,-359,-432,-370,-235,-255
-210,70,279,65,-242,179,-26,-365,-438,-376,-235,-261
-210,64,273,65,-242,173,-20,-365,-438,-376,-235,-261
-210,52,261,71,-236,161,-14,-371,-444,-382,-235,-267
-210,46,255,77,-236,155,-8,-371,-444,-382,-235,-267
-204,58,261,65,-236,161,-2,-371,-444,-382,-235,-267
-204,70,273,59,-242,173,-2,-371,-444,-382,-235,-267
-198,82,279,53,-242,185,4,-371,-444,-382,-235,-267
-198,94,291,47,-242,197,4,-371,-444,-382,-235,-267
-216,70,285,65,-248,179,-8,-377,-450,-388,-241,-279
-240,40,279,95,-254,161,-26,-377,-450,-394,-241,-285
-258,10,273,119,-266,143,-38,-383,-456,-400,-247,-291
-270,-1,261,137,-266,125,-44,-389,-462,-400,-247,-297
-246,4,249,119,-248,125,-38,-383,-450,-400,-241,-291
-240,10,255,113,-248,137,-38,-383,-450,-400,-241,-297
-240,22,267,107,-254,149,-38,-377,-444,-400,-241,-291
-228,40,267,89,-242,155,-38,-377,-438,-394,-241,-285
-216,58,273,71,-242,167,-32,-371,-432,-388,-235,-285
-210,70,279,65,-242,179,-32,-365,-432,-382,-235,-285
-198,76,273,53,-236,179,-26,-359,-432,-388,-229,-279
-192,88,279,47,-236,185,-32,-353,-432,-382,-229,-279
-204,70,273,59,-242,173,-38,-365,-444,-382,-235,-291
-216,52,267,77,-242,161,-44,-371,-444,-388,-253,-297
-228,22,249,95,-242,137,-50,-395,-450,-400,-259,-309
-222,34,255,89,-242,149,-44,-389,-450,-406,-265,-309
-198,70,267,59,-236,173,-26,-377,-438,-394,-253,-285
-192,76,267,53,-230,173,-26,-371,-438,-388,-247,-285
-180,94,273,35,-230,185,-20,-359,-426,-382,-241,-279
-174,118,291,23,-236,209,-20,-347,-426,-382,-229,-273
-186,112,297,29,-242,209,-26,-341,-420,-370,-223,-279
-198,94,291,47,-242,197,-26,-341,-408,-364,-217,-279
-210,82,291,59,-248,191,-26,-341,-408,-370,-223,-285
-216,82,297,59,-254,191,-20,-329,-402,-358,-217,-279
-210,112,321,41,-260,221,-14,-311,-378,-346,-205,-273
-210,112,321,41,-260,221,-8,-311,-378,-340,-199,-267
-210,130,339,35,-272,239,-8,-305,-366,-328,-193,-261
-204,142,345,23,-272,245,-2,-305,-366,-316,-187,-255
-192,154,345,11,-266,245,4,-305,-360,-316,-181,-249
-186,142,327,17,-254,239,4,-305,-360,-316,-181,-249
-174,136,309,11,-242,227,10,-305,-360,-310,-181,-237
-168,142,309,5,-242,227,16,-299,-360,-310,-175,-237
-174,148,321,5,-242,239,10,-293,-360,-310,-169,-237
-168,160,327,-1,-242,245,16,-287,-348,-304,-169,-231
-174,172,345,-1,-254,257,16,-275,-342,-292,-163,-231
-180,172,351,-1,-260,257,16,-263,-336,-292,-157,-231
-180,178,357,-1,-266,263,16,-251,-318,-286,-157,-231
-168,190,357,-1,-260,269,16,-245,-312,-280,-151,-231
-150,202,351,-18,-248,275,4,-233,-300,-262,-151,-231
-138,226,363,-36,-248,293,-2,-221,-288,-256,-145,-213
-114,232,345,-48,-230,287,-14,-221,-276,-244,-133,-195
-114,232,345,-48,-230,287,-26,-221,-276,-244,-133,-195
-108,226,333,-48,-224,275,-32,-233,-270,-238,-127,-189
-96,220,315,-54,-206,263,-44,-239,-276,-238,-127,-195
-114,190,303,-30,-212,245,-50,-251,-294,-256,-139,-207
-126,166,291,-12,-212,233,-56,-263,-312,-268,-151,-219
-144,154,297,-1,-224,227,-56,-281,-324,-280,-151,-219
-156,142,297,-1,-230,221,-50,-281,-336,-280,-157,-225
-162,136,297,5,-230,221,-50,-287,-336,-286,-151,-225
-156,130,285,5,-224,209,-50,-281,-336,-292,-151,-219
-150,136,285,-1,-218,215,-50,-281,-330,-292,-145,-213
-144,136,279,-1,-212,209,-32,-275,-330,-292,-151,-213
-150,112,261,11,-206,191,-26,-287,-348,-316,-169,-237
-168,76,243,41,-206,161,-20,-299,-366,-328,-187,-261
-174,64,243,47,-206,155,-20,-305,-378,-334,-193,-267
-174,70,243,47,-212,161,-14,-305,-378,-328,-187,-267
-168,94,261,29,-218,179,-14,-299,-372,-322,-181,-267
-186,88,273,41,-230,185,-14,-299,-372,-322,-175,-273
-186,100,285,35,-236,197,-14,-293,-366,-322,-181,-273
-180,112,291,29,-236,203,-14,-299,-378,-322,-175,-285
-186,88,273,41,-230,185,-32,-311,-384,-328,-187,-291
-192,70,261,53,-230,167,-38,-317,-390,-334,-199,-291
-192,70,261,53,-230,167,-44,-329,-390,-340,-205,-291
-198,64,261,59,-230,167,-38,-335,-390,-340,-205,-291
-192,64,255,59,-224,161,-32,-329,-390,-340,-205,-285
-192,58,249,59,-224,155,-32,-317,-390,-340,-205,-285
-168,64,237,47,-200,149,-26,-305,-378,-334,-199,-279
-180,64,243,53,-212,155,-26,-305,-378,-334,-187,-273
-204,52,255,71,-230,155,-26,-287,-366,-322,-187,-285
-192,64,255,59,-224,161,-20,-287,-366,-322,-181,-273
-198,64,261,59,-230,167,-14,-293,-360,-316,-187,-273
-234,34,267,95,-248,155,-8,-305,-354,-298,-175,-267
-204,52,255,71,-230,155,4,-305,-348,-280,-163,-261
-114,148,261,-6,-188,209,16,-263,-324,-256,-127,-231
-66,172,243,-42,-152,209,21,-245,-294,-238,-103,-219
-102,94,201,-1,-152,149,4,-245,-306,-244,-127,-237
-126,22,153,47,-140,89,-20,-251,-318,-280,-157,-243
-126,10,141,53,-134,77,-32,-245,-324,-280,-157,-243
-138,4,135,65,-140,65,-20,-239,-312,-274,-151,-237
-150,4,147,71,-152,71,-8,-203,-276,-262,-139,-225
-102,4,105,47,-104,53,-8,-149,-240,-250,-121,-207
-42,-19,15,29,-32,5,-14,-77,-186,-226,-103,-195
-30,-67,-32,47,-3,-48,-32,-5,-120,-208,-97,-195
-24,-121,-92,71,27,-108,-56,48,-66,-184,-79,-195
-24,-181,-152,101,57,-168,-104,114,-24,-160,-55,-207
-48,-217,-164,131,51,-192,-188,186,29,-136,-43,-195
-6,-217,-206,113,93,-210,-260,258,95,-88,-7,-183
83,-205,-290,53,189,-240,-332,330,155,-46,23,-165
227,-145,-374,-30,297,-252,-404,432,233,1,71,-117
299,-157,-464,-66,381,-306,-494,540,311,19,76,-87
251,-289,-548,11,399,-420,-620,624,383,1,71,-99
251,-433,-692,83,471,-558,-764,684,431,1,76,-111
347,-463,-812,53,579,-636,-896,732,473,1,82,-99
407,-523,-938,53,669,-726,-986,786,497,1,82,-93
401,-625,-1028,107,717,-822,-1058,846,557,1,94,-93
437,-691,-1130,125,777,-906,-1130,936,641,31,118,-93
491,-727,-1220,113,855,-966,-1208,1014,719,67,154,-75
503,-811,-1322,149,915,-1062,-1274,1044,779,79,166,-75
545,-889,-1442,167,987,-1164,-1322,1104,857,85,166,-87
659,-889,-1550,113,1101,-1212,-1334,1188,935,103,196,-87
701,-949,-1652,119,1173,-1296,-1322,1248,995,121,196,-111
677,-1087,-1766,203,1215,-1428,-1298,1320,1079,103,166,-177
683,-1213,-1898,257,1287,-1548,-1298,1356,1127,91,130,-219
725,-1237,-1964,251,1341,-1602,-1304,1332,1121,91,148,-207
773,-1261,-2042,239,1407,-1650,-1298,1242,1073,73,154,-195
815,-1315,-2138,245,1473,-1722,-1328,1134,995,43,142,-195
845,-1363,-2210,251,1527,-1782,-1400,1074,995,67,202,-171
875,-1375,-2252,245,1563,-1812,-1460,1098,1103,181,334,-93
923,-1339,-2264,209,1593,-1800,-1514,1128,1223,349,508,-3
971,-1291,-2270,155,1623,-1776,-1592,1080,1265,511,694,98
1019,-1195,-2216,83,1617,-1698,-1658,1020,1313,685,898,266
1079,-1069,-2156,-1,1617,-1608,-1724,954,1415,895,1114,452
1193,-889,-2084,-144,1635,-1482,-1760,846,1445,1081,1324,620
1301,-685,-1988,-300,1647,-1332,-1754,720,1421,1231,1504,782
1331,-571,-1910,-372,1617,-1236,-1742,636,1415,1363,1666,932
1337,-481,-1826,-420,1581,-1152,-1706,564,1409,1477,1786,1016
1373,-361,-1736,-498,1551,-1044,-1664,510,1415,1591,1888,1088
1337,-319,-1664,-498,1497,-984,-1598,444,1385,1657,1948,1118
1253,-313,-1574,-468,1413,-942,-1508,348,1301,1621,1924,1070
1217,-265,-1490,-474,1353,-876,-1382,258,1199,1555,1876,1034
1175,-193,-1370,-486,1269,-774,-1262,180,1133,1483,1810,1028
1061,-217,-1280,-420,1173,-744,-1178,114,1043,1357,1684,968
941,-271,-1214,-324,1077,-738,-1070,48,899,1093,1438,806
845,-295,-1148,-264,993,-720,-944,24,737,787,1144,638
713,-283,-998,-210,855,-642,-812,30,605,541,868,470
575,-241,-824,-162,699,-528,-668,36,491,391,676,350
467,-169,-638,-144,549,-402,-548,6,371,307,562,278
329,-133,-470,-90,399,-294,-452,-41,239,211,436,182
185,-121,-308,-24,243,-216,-332,-59,137,109,298,68
89,-97,-194,-1,141,-144,-230,-59,71,49,220,-9
23,-109,-140,35,81,-120,-182,-83,23,-4,142,-105
-18,-103,-80,59,21,-90,-140,-107,-24,-70,65,-171
11,-31,-50,5,27,-36,-86,-95,-42,-88,41,-171
59,52,-2,-54,33,23,-56,-71,-42,-76,53,-129
17,34,9,-24,-3,23,-50,-95,-84,-112,11,-153
-36,4,39,11,-38,17,-44,-107,-126,-148,-43,-177
-72,-1,63,35,-68,23,-8,-95,-138,-172,-55,-189
-108,-7,93,59,-104,35,4,-89,-138,-190,-73,-195
-84,-7,69,47,-80,23,10,-95,-156,-202,-79,-237
-66,-37,21,53,-44,0,16,-107,-174,-220,-109,-273
-102,-61,33,83,-68,-6,16,-125,-174,-238,-121,-297
-108,-43,57,77,-86,5,21,-125,-186,-238,-127,-291
-114,-31,75,71,-98,17,33,-113,-186,-244,-133,-291
-132,-13,111,71,-122,41,39,-107,-198,-250,-145,-291
-138,4,135,65,-140,65,51,-95,-198,-256,-163,-303
-156,4,153,77,-158,71,57,-95,-216,-280,-175,-315
-180,-19,153,101,-170,59,51,-89,-222,-292,-199,-321
-210,-37,165,125,-188,59,51,-95,-234,-310,-217,-339
-222,-67,147,143,-188,35,57,-95,-240,-310,-217,-339
-198,-55,135,125,-170,35,69,-83,-234,-310,-211,-333
-186,-43,135,113,-164,41,69,-83,-222,-304,-199,-333
-174,-25,141,101,-158,53,81,-71,-210,-286,-175,-309
-168,-7,153,89,-164,65,81,-59,-198,-274,-163,-309
-162,-1,153,83,-158,71,81,-53,-192,-280,-163,-321
-186,4,183,89,-188,89,87,-47,-192,-280,-181,-321
-180,4,189,83,-182,95,117,-35,-192,-286,-193,-327
-174,16,195,71,-182,107,135,-17,-186,-286,-199,-333
-150,10,165,65,-158,89,129,-11,-192,-286,-199,-339
-174,-7,159,89,-170,71,129,-11,-192,-292,-199,-339
-174,-19,147,95,-164,59,123,-5,-198,-292,-199,-333
-168,-25,135,95,-152,47,129,0,-198,-292,-187,-327
-156,-1,147,77,-152,65,135,0,-186,-280,-169,-333
-150,4,153,71,-152,77,129,0,-180,-274,-181,-315
-156,16,177,65,-164,95,135,0,-168,-268,-175,-321
-156,34,195,53,-176,113,135,12,-150,-262,-169,-327
-162,34,201,59,-182,119,147,30,-150,-250,-163,-315
-156,28,189,59,-170,107,159,42,-138,-250,-163,-321
-162,10,177,71,-170,95,165,54,-138,-238,-163,-321
-168,4,177,77,-170,89,165,60,-132,-238,-163,-315
-168,-7,153,89,-164,65,159,60,-126,-238,-163,-327
-174,-19,147,95,-164,59,159,66,-120,-238,-163,-327
-180,-19,153,101,-170,59,153,72,-120,-238,-157,-333
-174,-31,135,101,-158,47,159,84,-114,-232,-151,-321
-162,-7,147,83,-158,65,165,84,-108,-232,-133,-315
-156,4,153,77,-158,71,171,108,-96,-220,-133,-315
-150,4,159,65,-152,83,183,114,-78,-214,-139,-315
-144,16,165,59,-152,89,195,126,-72,-208,-145,-315
-138,10,153,59,-146,83,195,150,-60,-208,-145,-315
-138,4,147,59,-140,77,201,162,-54,-208,-145,-327
-132,4,135,59,-134,65,201,180,-48,-208,-145,-345
-126,4,129,59,-128,65,201,192,-42,-202,-145,-333
-132,-1,123,65,-128,53,189,186,-42,-202,-139,-327
-138,-1,129,71,-134,59,183,198,-30,-208,-145,-327
-156,-7,141,83,-152,59,183,210,-30,-202,-151,-327
-162,-7,147,83,-158,65,183,228,-18,-196,-139,-315
-150,4,153,71,-152,77,213,252,18,-166,-127,-309
-132,4,141,59,-134,71,219,276,23,-160,-121,-303
-114,16,135,41,-122,77,237,300,41,-136,-115,-291
-102,40,147,23,-122,95,243,324,59,-124,-103,-279
-108,28,141,35,-122,83,249,342,83,-118,-91,-285
-102,28,135,29,-116,83,255,360,89,-112,-85,-291
-114,22,141,41,-128,83,261,378,101,-100,-67,-297
-120,16,141,47,-128,77,261,396,119,-94,-61,-297
-114,10,129,47,-122,71,261,420,131,-94,-55,-285
-114,4,123,47,-116,65,261,432,149,-76,-55,-285
-120,4,129,53,-122,65,261,450,155,-82,-61,-285
-120,4,129,53,-122,65,267,480,179,-70,-55,-285
-108,10,123,41,-116,65,285,498,197,-58,-43,-285
-114,10,129,47,-122,71,285,522,215,-46,-37,-285
-126,4,123,59,-128,59,285,552,227,-46,-43,-279
-132,4,129,65,-134,59,285,570,239,-34,-43,-279
-114,4,123,47,-116,65,285,600,263,-10,-31,-273
-96,22,123,29,-110,71,291,624,287,-10,-13,-261
-66,52,123,-1,-92,89,291,666,323,1,-1,-255
-42,64,111,-1,-74,89,297,702,353,13,17,-231
-42,58,105,-1,-74,83,315,726,371,37,23,-225
-48,58,111,-1,-80,83,327,750,389,43,23,-225
-48,52,105,-1,-74,77,333,774,413,61,29,-225
-30,76,111,-12,-68,95,345,810,443,85,47,-213
-12,82,99,-24,-56,89,363,852,473,91,65,-201
-24,70,99,-12,-62,83,369,876,503,103,65,-201
-18,76,99,-18,-56,89,375,906,527,121,76,-195
-1,94,99,-36,-50,95,393,936,557,145,88,-189
-12,82,99,-24,-56,89,387,966,581,157,100,-195
-18,76,99,-18,-56,89,393,984,599,163,100,-189
-30,64,99,-6,-62,83,387,1008,623,157,100,-183
-36,52,93,-1,-62,71,387,1032,647,175,118,-171
-18,58,81,-12,-50,71,399,1080,689,211,136,-153
-12,64,81,-18,-44,71,417,1116,725,247,148,-129
-6,70,81,-24,-44,77,429,1158,755,271,166,-117
11,82,63,-42,-20,77,441,1194,797,289,196,-105
41,124,75,-78,-8,101,447,1230,839,319,220,-99
41,124,75,-78,-8,101,441,1254,869,331,250,-93
47,130,75,-84,-8,107,435,1278,899,355,262,-93
47,130,75,-84,-8,107,423,1302,929,373,280,-93
59,130,63,-90,-3,101,423,1332,965,397,292,-81
71,142,63,-102,-3,107,429,1374,995,427,310,-51
101,154,45,-126,21,101,429,1398,1037,451,322,-27
101,154,45,-126,21,101,429,1428,1073,481,340,-9
101,160,51,-126,21,107,423,1452,1109,505,358,9
113,172,51,-138,27,113,417,1470,1145,535,394,33
131,196,57,-162,33,131,417,1500,1187,571,436,50
155,196,33,-174,57,119,411,1512,1223,589,454,62
137,184,39,-156,45,113,393,1518,1241,613,472,68
149,196,39,-168,51,119,387,1542,1277,631,496,80
161,196,27,-174,63,113,375,1542,1301,649,502,86
161,196,27,-174,63,113,363,1548,1331,661,520,104
155,190,27,-168,57,113,339,1548,1367,685,544,122
173,208,27,-186,69,119,327,1554,1397,715,562,146
191,214,15,-198,81,119,309,1560,1439,745,598,164
191,220,21,-204,81,125,297,1572,1469,775,628,182
197,226,21,-210,81,125,273,1560,1481,811,652,188
227,244,15,-234,99,137,261,1560,1511,823,682,212
257,268,3,-258,123,143,231,1560,1535,865,718,230
257,268,3,-258,123,143,219,1548,1559,895,742,260
251,274,15,-258,117,149,189,1536,1589,907,766,284
275,274,3,-270,141,137,177,1524,1601,919,790,296
269,268,3,-264,135,137,159,1524,1625,943,808,308
269,268,3,-264,135,137,129,1494,1637,943,814,320
275,274,3,-270,141,137,99,1482,1655,973,838,332
281,268,-8,-270,147,131,75,1470,1661,991,856,344
287,274,-8,-276,153,131,63,1458,1679,1009,874,356
299,286,-8,-288,159,137,51,1428,1685,1033,886,356
317,298,-14,-306,171,143,21,1398,1679,1045,892,374
317,298,-14,-306,171,143,4,1368,1673,1039,904,386
317,304,-8,-306,165,149,-26,1338,1667,1027,910,386
311,280,-26,-294,171,125,-32,1314,1655,1015,910,392
299,280,-14,-288,159,131,-38,1284,1637,1021,910,404
293,280,-8,-282,153,137,-56,1242,1613,1009,910,404
293,280,-8,-282,153,137,-86,1218,1589,1003,904,410
311,280,-26,-294,171,125,-86,1182,1565,1003,898,410
287,280,-2,-282,147,137,-86,1134,1529,991,898,398
275,274,3,-270,141,137,-98,1080,1487,973,880,380
275,274,3,-270,141,137,-104,1038,1451,949,874,362
257,280,15,-264,117,155,-110,990,1397,925,850,350
239,274,33,-252,99,161,-116,948,1337,889,820,344
227,268,39,-240,87,161,-134,894,1271,853,790,332
227,268,39,-240,87,161,-116,840,1211,811,766,314
227,268,39,-240,87,161,-98,798,1163,775,736,302
173,250,75,-210,45,167,-98,744,1097,739,706,284
143,244,93,-192,21,173,-104,690,1031,703,664,260
113,232,111,-168,-3,173,-110,630,965,649,628,236
101,226,117,-162,-3,173,-104,570,899,607,592,212
113,226,105,-168,-3,167,-86,528,833,571,568,194
107,226,111,-162,-3,173,-68,492,755,529,538,176
101,226,117,-162,-3,173,-62,444,689,487,502,146
89,214,117,-150,-8,167,-62,396,623,439,466,122
89,220,123,-150,-8,173,-56,348,563,391,430,80
101,232,123,-162,-3,179,-44,300,509,337,382,56
83,238,147,-156,-26,197,-38,264,455,295,334,27
47,214,159,-126,-50,191,-38,228,395,241,292,-9
11,184,165,-96,-68,179,-26,174,329,193,244,-51
5,172,159,-84,-68,167,-26,132,281,151,214,-87
-1,160,165,-72,-80,161,-20,96,233,127,178,-99
-18,136,159,-48,-86,149,-20,54,185,97,130,-105
-12,130,147,-48,-80,137,-14,42,143,67,124,-99
-18,118,141,-42,-80,131,-8,24,113,37,100,-105
-30,106,141,-30,-86,125,-14,6,89,13,76,-123
-54,88,147,-6,-98,119,-8,0,47,1,65,-147
-60,82,147,-1,-104,113,-2,-23,23,-28,41,-165
-60,70,135,-1,-98,101,-2,-47,6,-52,23,-183
-60,64,129,-1,-92,95,4,-77,-18,-76,11,-195
-78,64,147,-1,-110,107,4,-101,-42,-106,-7,-201
-78,52,135,5,-104,95,16,-107,-66,-118,-13,-207
-78,52,135,5,-104,95,21,-113,-72,-130,-13,-219
-78,34,117,17,-98,77,21,-107,-96,-136,-19,-219
-84,22,111,23,-98,65,16,-119,-120,-154,-31,-231
-96,16,117,35,-104,65,10,-131,-138,-184,-55,-261
-96,10,111,35,-104,59,4,-149,-150,-202,-79,-291
-102,4,111,41,-104,59,-2,-167,-168,-226,-109,-315
-108,-1,99,53,-104,41,-8,-173,-174,-238,-133,-315
-102,4,99,47,-104,47,-2,-173,-180,-238,-133,-297
-96,4,99,41,-98,47,-2,-179,-186,-238,-139,-291
-90,4,99,35,-92,53,4,-173,-192,-238,-127,-273
-102,4,111,41,-104,59,10,-179,-192,-238,-121,-267
-114,-1,105,59,-110,47,21,-179,-198,-238,-121,-279
-120,-25,87,71,-104,23,21,-191,-204,-244,-127,-297
-132,-43,81,89,-110,11,16,-191,-210,-244,-127,-321
-138,-55,75,95,-110,5,4,-191,-210,-250,-127,-333
-126,-31,87,77,-110,23,10,-191,-204,-244,-127,-327
-108,-13,87,59,-98,29,16,-191,-204,-250,-127,-315
-90,4,93,41,-92,47,21,-191,-198,-250,-139,-309
-78,10,93,29,-86,53,27,-191,-210,-256,-145,-309
-96,4,93,47,-98,41,21,-191,-216,-268,-139,-315
-90,-1,81,47,-86,35,21,-179,-216,-256,-139,-321
-108,-1,99,53,-104,41,27,-179,-210,-250,-121,-321
-108,-37,63,71,-86,5,33,-179,-198,-250,-121,-327
-108,-31,69,71,-92,11,21,-191,-216,-250,-127,-339
-108,-31,69,71,-92,11,16,-191,-216,-256,-133,-321
-102,-25,69,65,-86,17,16,-197,-222,-256,-139,-315
-102,-19,75,59,-92,23,16,-197,-222,-256,-145,-309
-108,-25,75,65,-92,17,21,-209,-222,-262,-157,-321
-114,-31,75,71,-98,17,21,-215,-222,-274,-157,-327
-120,-43,69,83,-98,5,21,-215,-234,-280,-163,-333
-108,-49,51,77,-80,5,21,-209,-234,-280,-163,-327
-102,-25,69,65,-86,17,21,-197,-222,-262,-151,-321
-102,-31,63,65,-86,11,21,-191,-222,-256,-145,-321
-96,-25,63,59,-80,11,21,-191,-216,-250,-133,-315
-90,-19,63,53,-80,17,27,-197,-210,-244,-127,-315
-96,-13,75,53,-86,23,27,-203,-216,-256,-133,-321
-108,-19,81,65,-98,23,27,-203,-222,-262,-139,-321
-108,-13,87,59,-98,29,21,-203,-228,-262,-145,-327
-102,-1,93,53,-98,41,21,-203,-240,-268,-151,-327
-114,-7,99,59,-110,41,21,-197,-234,-268,-145,-339
-120,-19,93,71,-110,29,16,-203,-234,-268,-139,-339
-126,-31,87,77,-110,23,16,-209,-228,-262,-133,-339
-138,-43,87,89,-116,17,10,-197,-228,-262,-121,-327
-120,-37,75,77,-98,11,16,-197,-222,-244,-121,-321
-126,-43,75,83,-104,11,4,-203,-234,-256,-121,-315
-114,-37,69,77,-92,11,16,-215,-228,-256,-133,-315
-102,-31,63,65,-86,11,27,-215,-228,-256,-133,-309
-102,-25,69,65,-86,17,39,-209,-240,-256,-133,-315
-90,-13,69,53,-80,23,45,-209,-240,-256,-133,-303
-90,-1,81,47,-86,35,51,-215,-240,-262,-127,-309
-90,-1,81,47,-86,35,51,-215,-240,-262,-127,-309
-84,4,81,41,-86,35,57,-209,-234,-256,-121,-303
-78,4,75,35,-80,35,45,-215,-240,-250,-121,-315
-84,-7,69,47,-80,23,51,-203,-240,-262,-121,-315
-96,-1,87,47,-92,35,57,-203,-246,-256,-121,-315
-108,-13,87,59,-98,29,45,-215,-252,-262,-127,-321
-114,-19,87,65,-104,29,27,-221,-252,-268,-133,-321
-126,-31,87,77,-110,23,21,-233,-264,-268,-139,-327
-126,-25,93,77,-110,29,21,-239,-264,-274,-139,-315
-114,-19,87,65,-104,29,21,-233,-258,-268,-139,-333
-114,-13,93,65,-104,35,21,-239,-258,-268,-139,-321
-114,-13,93,65,-104,35,33,-233,-258,-262,-139,-321
-114,-13,93,65,-104,35,33,-227,-258,-262,-139,-321
-90,-1,81,47,-86,35,39,-221,-252,-262,-127,-303
-84,4,81,41,-86,35,39,-221,-252,-256,-127,-303
-84,4,87,35,-86,41,33,-215,-252,-256,-115,-303
-96,4,93,47,-98,41,21,-227,-258,-256,-115,-315
-114,4,117,53,-116,59,33,-233,-264,-256,-121,-315
-102,-1,93,53,-98,41,27,-233,-264,-268,-121,-315
-96,4,105,41,-98,53,39,-239,-264,-262,-133,-315
-96,4,105,41,-98,53,63,-239,-270,-262,-133,-315
-96,4,105,41,-98,53,69,-239,-276,-268,-133,-315
-90,4,93,41,-92,47,63,-245,-276,-268,-133,-315
-114,-1,105,59,-110,47,51,-251,-282,-274,-127,-321
-108,-19,81,65,-98,23,45,-251,-288,-274,-127,-327
-108,-7,93,59,-104,35,51,-257,-294,-280,-133,-333
-90,-7,75,47,-86,29,45,-263,-294,-280,-133,-333
-108,-13,87,59,-98,29,45,-269,-300,-286,-139,-351
-120,-19,93,71,-110,29,45,-269,-300,-298,-145,-351
-114,-13,93,65,-104,35,45,-263,-300,-292,-139,-339
-114,-7,99,59,-110,41,45,-269,-300,-292,-151,-333
-120,-7,105,65,-116,41,45,-263,-306,-286,-145,-327
-126,-19,99,71,-116,35,45,-257,-306,-286,-151,-321
-126,-13,105,71,-116,41,33,-263,-306,-292,-157,-327
-114,-7,99,59,-110,41,33,-269,-318,-298,-151,-327
-108,-7,93,59,-104,35,33,-275,-318,-304,-157,-333
-108,-13,87,59,-98,29,39,-281,-312,-304,-151,-333
-120,-31,81,77,-104,17,33,-281,-318,-310,-157,-339
-126,-31,87,77,-110,23,33,-287,-318,-310,-157,-345
-132,-31,93,83,-116,23,27,-287,-324,-316,-163,-363
-144,-31,105,89,-128,29,27,-287,-324,-316,-163,-369
-138,-31,99,83,-122,29,27,-287,-330,-316,-163,-363
-132,-25,99,77,-116,29,33,-287,-324,-310,-163,-339
-102,-7,87,53,-98,35,39,-287,-312,-292,-157,-321
-108,-25,75,65,-92,17,39,-299,-306,-286,-157,-327
-120,-49,63,83,-92,5,33,-299,-312,-292,-163,-345
-102,-19,75,59,-92,23,33,-299,-312,-292,-163,-345
-96,4,93,47,-98,41,39,-281,-312,-292,-151,-351
-96,4,105,41,-98,53,39,-281,-312,-292,-151,-339
-96,4,105,41,-98,53,45,-275,-306,-298,-151,-333
-108,4,105,53,-110,47,39,-287,-318,-298,-151,-333
-114,-7,99,59,-110,41,45,-287,-312,-298,-151,-333
-114,-7,99,59,-110,41,45,-287,-312,-298,-151,-333
-114,4,111,53,-116,53,39,-293,-312,-304,-151,-333
-96,4,93,47,-98,41,39,-299,-318,-298,-151,-333
-102,4,105,47,-104,53,27,-305,-324,-304,-151,-339
-108,-7,93,59,-104,35,21,-311,-330,-310,-157,-339
-114,-7,99,59,-110,41,16,-311,-330,-310,-157,-339
-102,-7,87,53,-98,35,16,-311,-330,-310,-157,-339
-126,-13,105,71,-116,41,10,-317,-330,-310,-151,-345
-138,-19,111,77,-128,41,-8,-317,-342,-310,-151,-345
-126,-19,99,71,-116,35,-2,-317,-336,-316,-157,-345
