,,,,,,,,,,,
2019-09-04 23:49:44,,,,,,,,,,,
,,,,,,,,,,,
I,II,III,aVR,aVL,aVF,V1,V2,V3,V4,V5,V6
7,4,-10,-6,7,-3,-119,-18,-138,-2,21,-337
7,4,-10,-6,7,-3,-119,-18,-138,-2,21,-337
7,4,-10,-6,7,-3,-119,-18,-138,-2,21,-337
7,4,-10,-6,7,-3,-119,-18,-138,-2,21,-337
7,-2,-16,0,7,-9,-113,-12,-132,4,15,-349
7,-8,-16,0,7,-15,-107,-12,-132,4,15,-355
7,-14,-16,5,13,-15,-101,-6,-126,10,9,-367
7,-14,-21,5,13,-15,-95,-6,-126,10,9,-373
13,-14,-33,5,19,-20,-95,0,-120,4,3,-373
13,-19,-39,5,25,-26,-95,0,-120,4,3,-373
19,-25,-51,5,31,-38,-95,6,-114,-2,-3,-373
19,-31,-57,5,37,-44,-95,6,-114,-2,-3,-373
13,-31,-51,5,31,-38,-101,12,-108,-2,-9,-379
13,-31,-51,5,31,-38,-101,12,-108,-2,-9,-379
7,-31,-45,5,25,-38,-107,18,-102,-2,-15,-379
7,-31,-45,5,25,-38,-107,18,-102,-2,-15,-379
7,-43,-57,11,31,-50,-101,12,-102,4,-15,-379
7,-49,-63,11,31,-56,-101,12,-102,4,-15,-379
7,-61,-75,17,37,-68,-95,6,-102,10,-15,-379
7,-67,-81,23,43,-74,-95,6,-102,10,-15,-379
1,-67,-75,23,37,-68,-101,12,-102,4,-15,-385
1,-67,-75,23,37,-68,-107,12,-102,4,-15,-385
1,-67,-69,29,31,-68,-113,18,-102,-2,-15,-391
1,-67,-69,29,31,-68,-119,18,-102,-2,-15,-391
7,-61,-75,17,37,-68,-119,12,-108,-8,-21,-391
13,-61,-81,17,43,-68,-119,12,-108,-8,-21,-391
25,-55,-87,5,55,-68,-119,6,-114,-14,-27,-391
31,-55,-93,5,61,-74,-119,6,-114,-14,-27,-391
19,-61,-87,11,49,-74,-119,6,-114,-14,-27,-385
7,-61,-75,17,37,-68,-119,6,-114,-14,-27,-385
1,-67,-69,29,31,-68,-119,6,-114,-14,-27,-379
-4,-67,-57,35,19,-62,-119,6,-114,-14,-27,-379
1,-67,-63,29,25,-68,-119,6,-114,-20,-27,-379
1,-67,-69,29,31,-68,-119,6,-114,-20,-27,-379
1,-67,-75,23,37,-68,-119,6,-114,-26,-27,-379
7,-67,-81,23,43,-74,-119,6,-114,-26,-27,-379
1,-67,-75,23,37,-68,-119,6,-114,-20,-27,-379
1,-67,-75,23,37,-68,-119,6,-114,-20,-27,-379
1,-67,-69,29,31,-68,-119,6,-114,-14,-27,-373
1,-67,-69,29,31,-68,-119,6,-114,-14,-27,-373
1,-61,-69,23,31,-62,-125,6,-120,-20,-33,-379
1,-61,-69,23,31,-62,-125,6,-120,-20,-33,-379
7,-55,-69,17,37,-62,-131,6,-126,-26,-39,-379
7,-55,-69,17,37,-62,-131,6,-126,-26,-39,-379
1,-55,-63,17,31,-56,-131,6,-120,-20,-33,-379
1,-55,-63,17,31,-56,-131,6,-120,-20,-33,-379
1,-55,-57,23,25,-56,-131,6,-114,-14,-27,-373
1,-55,-57,23,25,-56,-131,6,-114,-14,-27,-373
1,-55,-57,23,25,-56,-131,12,-114,-14,-27,-373
1,-55,-57,23,25,-56,-131,12,-114,-14,-27,-373
1,-55,-57,23,25,-56,-131,18,-114,-14,-27,-373
1,-55,-57,23,25,-56,-131,18,-114,-14,-27,-373
1,-49,-57,17,25,-50,-131,24,-114,-14,-27,-367
1,-49,-57,17,25,-50,-131,24,-114,-14,-27,-367
7,-43,-57,11,31,-50,-131,30,-114,-14,-27,-361
7,-43,-57,11,31,-50,-131,30,-114,-14,-27,-361
7,-37,-51,5,25,-44,-137,24,-114,-14,-27,-361
7,-37,-51,5,25,-44,-137,24,-114,-14,-27,-361
7,-31,-45,5,25,-38,-143,18,-114,-14,-27,-361
7,-31,-45,5,25,-38,-143,18,-114,-14,-27,-361
7,-37,-51,5,25,-44,-143,24,-108,-8,-21,-355
7,-43,-57,11,31,-50,-143,24,-108,-8,-21,-355
7,-49,-63,11,31,-56,-143,30,-102,-2,-15,-349
7,-55,-69,17,37,-62,-143,30,-102,-2,-15,-349
13,-49,-69,11,37,-56,-143,35,-102,4,-15,-349
13,-49,-69,11,37,-56,-143,35,-102,4,-15,-349
19,-43,-69,5,43,-56,-143,35,-102,10,-15,-349
19,-43,-69,5,43,-56,-143,35,-102,10,-15,-349
13,-43,-63,5,37,-50,-143,35,-96,10,-9,-343
13,-43,-63,5,37,-50,-143,35,-96,10,-9,-343
7,-43,-57,11,31,-50,-143,35,-90,10,-3,-337
7,-43,-57,11,31,-50,-143,35,-90,10,-3,-337
13,-43,-63,5,37,-50,-143,35,-90,10,-3,-337
13,-43,-63,5,37,-50,-143,35,-90,10,-3,-337
19,-43,-69,5,43,-56,-143,41,-90,10,-3,-337
19,-43,-69,5,43,-56,-143,41,-90,10,-3,-337
13,-31,-51,5,31,-38,-149,35,-90,4,-9,-337
13,-25,-45,5,25,-32,-155,35,-90,4,-9,-337
7,-14,-27,5,13,-20,-161,35,-90,-2,-15,-337
7,-14,-21,5,13,-15,-167,35,-90,-2,-15,-337
13,-19,-39,5,25,-26,-161,35,-84,4,-9,-325
19,-31,-57,5,37,-44,-161,35,-84,4,-9,-319
25,-43,-75,5,49,-56,-155,41,-78,10,-3,-307
31,-55,-93,5,61,-74,-155,41,-78,10,-3,-301
19,-55,-81,11,49,-68,-161,41,-84,10,-9,-295
13,-55,-75,11,43,-62,-161,41,-84,10,-9,-295
7,-61,-75,17,37,-68,-167,41,-90,10,-9,-289
1,-61,-69,23,31,-62,-167,41,-90,4,-9,-289
1,-55,-63,17,31,-56,-167,41,-90,4,-9,-295
7,-49,-63,11,31,-56,-167,35,-90,4,-9,-301
31,-43,-81,5,55,-62,-173,35,-96,4,-21,-313
37,-31,-75,5,55,-50,-173,35,-96,4,-21,-319
19,-37,-63,5,37,-50,-173,41,-90,4,-15,-313
19,-31,-57,5,37,-44,-173,41,-90,4,-15,-307
1,-37,-45,11,19,-38,-167,47,-84,4,-15,-301
13,-43,-63,5,37,-50,-167,47,-84,4,-15,-301
13,-49,-69,11,37,-56,-161,41,-90,-2,-15,-301
13,-43,-63,5,37,-50,-161,41,-90,-2,-15,-301
7,-49,-63,11,31,-56,-167,35,-96,-2,-15,-301
7,-55,-69,17,37,-62,-179,35,-96,-2,-15,-295
13,-49,-69,11,37,-56,-185,35,-102,-8,-21,-301
19,-49,-75,5,43,-62,-185,35,-102,-8,-27,-307
19,-49,-75,5,43,-62,-191,35,-108,-8,-33,-307
7,-49,-63,11,31,-56,-185,35,-114,-8,-39,-313
7,-43,-57,11,31,-50,-185,35,-108,-8,-33,-307
13,-43,-63,5,37,-50,-191,35,-102,-8,-33,-301
19,-31,-57,5,37,-44,-191,41,-90,-14,-27,-301
19,-31,-57,5,37,-44,-185,41,-90,-14,-27,-301
13,-14,-27,5,19,-15,-167,47,-84,-8,-15,-301
13,-8,-16,0,13,-15,-161,53,-72,4,-3,-301
7,-2,-16,0,7,-9,-143,59,-78,10,3,-301
7,-2,-16,0,7,-9,-143,59,-78,10,3,-295
13,-2,-16,-6,13,-9,-131,59,-66,16,3,-289
13,16,-4,-12,7,9,-125,59,-60,22,3,-289
19,22,-4,-18,7,9,-119,65,-54,28,9,-283
19,28,2,-24,7,15,-113,71,-42,40,15,-283
19,46,20,-30,7,33,-113,71,-36,34,15,-283
19,58,32,-36,2,45,-113,71,-48,34,15,-277
19,70,44,-42,-4,57,-119,71,-54,28,15,-277
19,64,38,-42,-4,51,-119,71,-48,34,21,-265
13,76,56,-42,-16,69,-131,65,-42,40,27,-271
13,70,50,-42,-10,63,-137,65,-42,40,27,-271
7,52,38,-30,-10,45,-143,65,-48,46,27,-265
7,40,26,-24,-4,33,-149,65,-48,46,27,-265
13,40,20,-24,2,33,-161,59,-48,34,21,-277
19,34,8,-24,7,21,-167,47,-60,28,21,-277
25,28,-4,-24,7,15,-179,41,-60,28,9,-277
25,28,-4,-24,7,15,-185,35,-78,22,3,-283
19,22,-4,-18,7,9,-191,30,-90,4,-3,-295
13,22,2,-18,7,15,-203,24,-96,-2,-15,-295
13,28,8,-18,7,21,-203,18,-114,-14,-21,-295
13,28,8,-18,7,21,-209,18,-120,-20,-21,-295
19,10,-16,-12,13,-3,-215,24,-114,-20,-21,-295
19,-2,-16,-6,19,-15,-215,24,-114,-14,-21,-295
37,-14,-51,-6,43,-26,-227,30,-114,-14,-21,-295
25,-25,-57,5,37,-38,-227,30,-114,-20,-15,-295
19,-37,-63,5,37,-50,-221,35,-108,-14,-15,-295
19,-37,-63,5,37,-50,-221,35,-108,-14,-15,-295
13,-37,-57,5,31,-44,-215,35,-102,-8,-21,-295
19,-37,-63,5,37,-50,-215,35,-102,-14,-27,-295
25,-55,-87,5,55,-68,-215,35,-114,-14,-27,-295
19,-55,-81,11,49,-68,-215,35,-114,-14,-27,-301
19,-61,-87,11,49,-74,-209,30,-114,-26,-21,-295
13,-61,-81,17,43,-68,-209,24,-126,-32,-33,-301
13,-73,-93,23,49,-80,-215,24,-132,-38,-45,-313
13,-73,-93,23,49,-80,-209,18,-132,-44,-45,-319
19,-73,-99,17,55,-86,-215,18,-138,-50,-51,-325
7,-73,-87,23,43,-80,-215,18,-138,-50,-51,-325
1,-85,-93,35,43,-86,-209,24,-132,-50,-51,-331
7,-91,-105,35,55,-98,-209,24,-138,-56,-63,-331
1,-91,-99,35,49,-92,-203,30,-132,-56,-63,-325
1,-79,-87,29,43,-80,-203,24,-132,-56,-57,-325
1,-85,-93,35,43,-86,-203,24,-132,-44,-45,-325
1,-91,-99,35,49,-92,-215,24,-132,-44,-45,-325
13,-73,-93,23,49,-80,-221,24,-132,-44,-57,-325
19,-73,-99,17,55,-86,-221,30,-126,-44,-45,-313
1,-73,-69,35,25,-74,-203,35,-114,-26,-27,-295
-34,-61,-21,47,-4,-44,-203,35,-102,-20,-21,-295
-10,-37,-21,23,7,-32,-209,24,-114,-26,-27,-307
13,-31,-51,5,31,-38,-215,30,-114,-26,-33,-307
1,-43,-39,17,13,-44,-197,35,-102,-8,-15,-295
-10,-49,-33,29,7,-44,-185,41,-84,-8,-9,-295
1,-37,-39,11,13,-38,-191,41,-96,4,3,-289
19,-14,-33,0,25,-20,-179,35,-78,4,9,-283
19,-2,-16,-6,19,-15,-185,41,-66,16,3,-271
-10,-14,2,5,-4,-9,-179,65,-48,34,15,-259
-28,-14,14,17,-22,-3,-149,95,-24,64,51,-229
-22,-14,8,11,-16,-9,-137,107,-12,75,57,-223
-16,-14,2,11,-10,-9,-137,113,0,75,57,-235
-16,-14,2,11,-10,-9,-125,119,6,75,57,-247
-4,-14,-4,5,2,-9,-107,131,24,75,45,-253
-4,-2,8,5,-4,3,-95,143,30,75,39,-265
-16,-8,14,5,-16,3,-89,161,36,87,39,-283
-16,-19,-10,17,-4,-15,-71,185,54,87,33,-283
-16,-61,-39,35,7,-50,-41,209,71,105,27,-301
-4,-103,-93,53,37,-98,-5,263,107,129,27,-307
-28,-145,-111,83,31,-128,30,323,137,147,33,-313
-64,-187,-117,125,19,-152,66,377,173,159,9,-361
-76,-217,-135,143,19,-176,102,431,215,177,-9,-379
-34,-271,-237,155,91,-254,138,509,269,201,3,-397
-22,-325,-297,173,133,-314,204,599,335,237,-3,-409
-34,-349,-309,191,133,-332,264,713,449,291,27,-403
1,-361,-363,179,181,-362,336,863,587,399,86,-379
19,-373,-399,173,211,-386,438,1061,791,543,170,-355
7,-415,-429,197,217,-422,594,1319,1037,729,266,-319
1,-457,-453,227,223,-458,756,1583,1301,927,356,-277
1,-475,-477,233,235,-476,930,1841,1577,1143,482,-217
1,-475,-483,233,241,-476,1026,2110,1889,1425,656,-109
49,-421,-477,179,259,-446,1080,2368,2242,1743,878,53
97,-349,-453,119,271,-398,1098,2559,2511,1995,1052,172
109,-337,-453,107,277,-392,1104,2589,2553,2025,1070,190
79,-373,-459,143,265,-416,1032,2386,2326,1797,944,112
25,-397,-429,179,229,-410,900,1973,1835,1389,698,-19
-46,-385,-333,215,139,-362,690,1337,1145,831,344,-235
-130,-379,-249,251,49,-314,408,611,431,261,-3,-451
-190,-373,-183,275,2,-278,132,-24,-168,-194,-291,-619
-238,-379,-141,305,-46,-260,-53,-450,-630,-548,-519,-745
-250,-367,-111,305,-70,-242,-191,-690,-882,-722,-621,-787
-232,-307,-75,263,-76,-194,-341,-732,-894,-698,-579,-733
-202,-211,-16,203,-94,-110,-449,-672,-810,-620,-513,-667
-172,-121,44,143,-112,-32,-449,-540,-684,-518,-417,-595
-148,-91,50,119,-100,-15,-395,-396,-564,-410,-309,-511
-94,-73,14,83,-58,-26,-377,-282,-432,-308,-213,-427
-34,-67,-27,47,2,-50,-377,-198,-342,-218,-147,-379
1,-43,-51,11,25,-44,-359,-132,-270,-158,-93,-343
19,-19,-45,5,31,-32,-323,-90,-228,-116,-75,-331
19,-43,-69,5,43,-56,-305,-60,-210,-92,-63,-313
19,-55,-81,11,49,-68,-305,-60,-192,-80,-57,-307
7,-61,-75,17,37,-68,-287,-54,-198,-74,-51,-301
1,-67,-75,23,37,-68,-281,-54,-198,-80,-51,-301
1,-73,-75,29,31,-74,-281,-54,-204,-98,-51,-307
1,-67,-75,23,37,-68,-293,-60,-204,-110,-51,-301
7,-73,-87,23,43,-80,-293,-60,-204,-110,-51,-289
1,-79,-87,29,43,-80,-293,-60,-198,-104,-51,-289
1,-85,-93,35,43,-86,-293,-60,-204,-98,-51,-283
7,-91,-105,35,55,-98,-299,-60,-204,-98,-51,-283
13,-73,-93,23,49,-80,-311,-60,-204,-92,-51,-283
13,-61,-81,17,43,-68,-317,-60,-204,-92,-51,-283
13,-67,-87,17,49,-74,-323,-60,-198,-86,-45,-277
19,-67,-93,17,55,-80,-317,-54,-192,-74,-39,-271
7,-67,-81,23,43,-74,-311,-54,-186,-80,-39,-277
7,-67,-81,23,43,-74,-317,-54,-186,-86,-39,-277
1,-61,-69,23,31,-62,-317,-54,-180,-86,-39,-283
1,-55,-63,17,31,-56,-317,-48,-180,-92,-33,-277
13,-37,-57,5,31,-44,-323,-48,-180,-92,-33,-271
19,-31,-57,5,37,-44,-329,-54,-180,-92,-33,-271
25,-31,-63,5,43,-44,-335,-54,-192,-86,-33,-265
25,-43,-75,5,49,-56,-341,-54,-192,-86,-33,-265
25,-43,-75,5,49,-56,-341,-48,-192,-86,-33,-211
25,-37,-69,5,43,-50,-341,-54,-186,-86,-33,-157
19,-37,-63,5,37,-50,-347,-48,-180,-86,-27,-109
19,-43,-69,5,43,-56,-347,-42,-174,-80,-27,-55
25,-49,-81,5,49,-62,-329,-48,-174,-80,-21,-49
31,-31,-69,5,49,-50,-323,-48,-186,-80,-27,-43
25,-37,-69,5,43,-50,-305,-54,-186,-98,-21,-37
25,-43,-75,5,49,-56,-281,-54,-186,-98,-15,-31
31,-37,-75,5,49,-56,-263,-66,-186,-98,-21,-37
31,-37,-75,5,49,-56,-257,-72,-198,-98,-21,-37
37,-31,-75,5,55,-50,-239,-78,-198,-98,-21,-43
31,-31,-69,5,49,-50,-233,-72,-198,-98,-21,-43
31,-19,-57,0,43,-38,-227,-72,-198,-98,-21,-37
31,-19,-57,0,43,-38,-227,-72,-204,-98,-21,-37
37,-14,-57,-6,43,-32,-221,-84,-210,-104,-27,-43
37,-14,-57,-6,43,-32,-209,-84,-210,-104,-27,-43
37,-14,-45,-12,43,-20,-197,-78,-210,-104,-27,-49
37,-8,-39,-12,37,-15,-197,-84,-222,-110,-27,-49
37,-8,-39,-12,37,-15,-203,-84,-222,-110,-33,-49
37,-14,-51,-6,43,-26,-203,-84,-222,-110,-33,-37
37,-8,-39,-12,37,-15,-203,-90,-222,-104,-27,-43
31,4,-21,-18,25,-15,-203,-96,-222,-110,-27,-43
25,4,-16,-12,19,-9,-191,-90,-222,-110,-21,-49
19,-2,-16,-6,19,-15,-185,-96,-228,-110,-15,-49
19,-2,-16,-6,19,-15,-191,-96,-234,-116,-15,-43
25,10,-16,-18,19,-3,-197,-102,-246,-116,-21,-37
19,10,-16,-12,13,-3,-197,-102,-240,-122,-21,-31
19,10,-16,-12,13,-3,-197,-102,-240,-122,-21,-25
25,28,-4,-24,7,15,-203,-120,-252,-128,-21,-25
31,28,-10,-30,13,9,-221,-126,-258,-128,-21,-25
37,28,-16,-30,19,9,-221,-138,-264,-134,-15,-25
43,28,-16,-36,25,3,-221,-138,-264,-134,-15,-25
43,28,-16,-36,25,3,-215,-144,-276,-134,-9,-13
43,40,-10,-42,19,15,-227,-138,-276,-140,-3,-13
43,40,-10,-42,19,15,-233,-138,-276,-134,3,-7
55,46,-16,-48,31,15,-233,-144,-282,-134,9,-1
61,58,-10,-60,31,27,-245,-150,-288,-134,9,5
55,64,2,-60,19,33,-245,-156,-294,-134,9,11
49,82,26,-66,7,57,-245,-156,-300,-152,3,5
37,88,44,-60,2,69,-251,-162,-312,-152,-3,17
43,88,38,-66,7,63,-251,-168,-318,-152,9,23
49,106,50,-78,7,81,-257,-174,-318,-152,15,23
67,112,38,-90,7,75,-257,-186,-324,-152,21,23
73,118,38,-96,13,81,-275,-192,-330,-158,27,29
61,142,74,-102,2,111,-275,-198,-330,-152,33,35
61,142,74,-102,2,111,-281,-204,-330,-152,45,47
61,154,86,-108,-4,123,-287,-204,-330,-146,39,53
67,160,86,-114,-4,123,-287,-204,-342,-146,39,65
67,154,80,-108,2,117,-287,-210,-336,-146,51,77
61,172,104,-114,-16,141,-299,-210,-336,-146,51,77
61,178,110,-120,-16,147,-311,-222,-342,-146,51,77
79,190,104,-132,-4,147,-311,-234,-348,-146,62,77
79,202,116,-138,-10,159,-317,-228,-342,-146,62,89
79,214,128,-144,-16,171,-323,-228,-342,-146,62,95
79,214,128,-144,-16,171,-323,-222,-342,-140,68,106
79,226,140,-150,-22,183,-323,-228,-348,-140,74,106
79,232,152,-156,-28,195,-323,-228,-342,-146,80,106
85,232,146,-162,-22,195,-323,-228,-342,-146,80,112
91,232,140,-162,-16,189,-329,-222,-330,-134,86,112
91,244,152,-168,-22,201,-329,-222,-330,-134,98,112
85,250,164,-168,-34,213,-323,-216,-324,-122,110,124
79,250,170,-168,-40,213,-323,-216,-318,-122,110,124
73,268,194,-174,-52,231,-311,-216,-312,-134,104,130
73,268,194,-174,-52,231,-311,-216,-300,-134,110,136
79,280,200,-180,-52,237,-305,-204,-288,-122,116,136
79,280,200,-180,-52,237,-305,-198,-288,-122,122,136
85,280,194,-186,-46,237,-305,-174,-288,-116,128,142
79,280,200,-180,-52,237,-293,-168,-282,-116,134,142
85,280,194,-186,-46,237,-281,-156,-276,-110,134,142
85,280,194,-186,-46,237,-275,-132,-276,-104,122,142
91,274,182,-186,-40,225,-263,-120,-264,-98,134,148
91,262,170,-180,-34,219,-257,-96,-264,-98,134,148
79,250,170,-168,-40,213,-239,-84,-246,-92,140,142
73,244,170,-162,-40,213,-227,-78,-234,-92,128,136
61,238,176,-150,-52,213,-197,-66,-216,-86,134,142
55,238,182,-150,-58,213,-179,-60,-210,-86,128,142
61,226,164,-144,-46,201,-137,-54,-210,-86,122,124
61,226,158,-144,-40,195,-101,-48,-204,-86,122,106
61,214,146,-138,-34,183,-59,-36,-204,-86,122,106
49,202,146,-126,-40,177,-17,-18,-210,-80,110,106
49,190,134,-120,-34,165,1,-6,-204,-80,110,106
49,178,122,-114,-28,153,12,-6,-198,-80,104,101
43,178,128,-108,-34,153,30,0,-192,-86,92,77
43,172,122,-108,-34,147,42,12,-174,-86,86,65
37,154,110,-96,-28,135,54,18,-174,-86,86,65
25,130,98,-78,-28,117,78,30,-162,-80,86,65
19,112,86,-66,-28,99,102,35,-156,-80,80,59
13,106,86,-60,-28,99,120,41,-150,-80,74,53
13,100,80,-54,-28,93,138,47,-144,-86,68,47
7,88,74,-48,-28,81,150,47,-138,-68,68,41
13,76,56,-42,-16,69,162,59,-132,-68,62,29
13,64,44,-36,-10,57,168,71,-126,-62,62,5
13,64,44,-36,-10,57,162,71,-132,-62,57,-13
13,64,44,-36,-10,57,180,71,-138,-68,51,-13
19,58,32,-36,2,45,180,83,-132,-74,45,-13
7,40,26,-24,-4,33,198,89,-138,-74,39,-13
1,28,26,-12,-10,27,204,89,-138,-74,39,-13
1,28,20,-12,-4,27,198,95,-132,-74,39,-7
1,10,14,0,-4,9,198,95,-126,-74,51,-7
-10,4,20,5,-16,9,204,113,-114,-80,51,-7
1,4,8,5,-4,3,204,101,-126,-86,39,-13
1,4,2,0,2,3,204,95,-126,-86,33,-25
1,4,-4,0,7,3,198,89,-132,-92,27,-37
7,-8,-16,0,7,-15,198,83,-138,-86,21,-37
1,-14,-16,5,7,-15,204,95,-126,-80,27,-37
1,-19,-21,5,7,-20,210,95,-126,-74,21,-49
1,-31,-27,11,7,-32,222,107,-120,-68,21,-31
1,-37,-33,17,7,-38,222,107,-114,-68,21,-31
1,-37,-39,11,13,-38,222,101,-120,-74,21,-37
1,-37,-39,11,13,-38,216,101,-120,-80,21,-49
-4,-31,-21,17,7,-26,210,101,-120,-86,21,-55
-4,-31,-21,17,7,-26,204,101,-120,-92,21,-61
1,-31,-27,11,7,-32,198,95,-126,-98,15,-61
1,-37,-33,17,7,-38,198,95,-126,-98,15,-67
1,-43,-39,17,13,-44,204,89,-132,-86,15,-67
1,-43,-39,17,13,-44,204,89,-138,-86,15,-73
-4,-43,-33,23,7,-38,198,89,-150,-86,3,-67
-4,-43,-33,23,7,-38,192,89,-138,-86,3,-67
1,-43,-39,17,13,-44,186,83,-138,-92,3,-61
1,-43,-39,17,13,-44,186,83,-138,-92,3,-67
1,-49,-45,23,13,-50,198,89,-138,-92,3,-67
1,-49,-45,23,13,-50,198,89,-138,-92,3,-67
1,-55,-51,23,19,-56,192,95,-138,-92,-3,-61
-4,-55,-45,29,13,-50,192,95,-138,-92,-3,-55
-4,-55,-45,29,13,-50,192,89,-144,-92,3,-49
-4,-55,-45,29,13,-50,192,95,-144,-98,3,-55
-4,-55,-45,29,13,-50,192,89,-144,-104,9,-55
-4,-55,-45,29,13,-50,186,83,-144,-104,9,-55
1,-73,-69,35,25,-74,174,83,-144,-110,3,-61
1,-73,-75,29,31,-74,174,83,-150,-110,3,-61
1,-55,-63,17,31,-56,168,83,-150,-104,-3,-61
7,-55,-69,17,37,-62,174,83,-150,-104,3,-61
7,-55,-69,17,37,-62,180,83,-150,-104,9,-67
1,-55,-63,17,31,-56,186,83,-150,-104,9,-67
1,-61,-63,23,25,-62,180,89,-150,-92,15,-67
1,-61,-57,29,19,-62,168,89,-144,-92,15,-61
1,-55,-51,23,19,-56,168,83,-150,-98,9,-61
1,-49,-45,23,13,-50,168,77,-150,-104,-3,-67
1,-49,-45,23,13,-50,174,77,-156,-104,-3,-73
1,-43,-39,17,13,-44,174,77,-156,-104,-3,-31
1,-43,-39,17,13,-44,168,83,-156,-98,9,-43
1,-43,-39,17,13,-44,174,83,-150,-98,9,-49
1,-37,-39,11,13,-38,168,83,-150,-98,15,-61
1,-37,-39,11,13,-38,168,83,-150,-98,15,-61
1,-31,-33,11,13,-32,162,77,-150,-104,15,-55
1,-31,-33,11,13,-32,168,77,-150,-104,15,-49
1,-25,-21,11,7,-26,174,71,-150,-110,15,-49
1,-25,-21,11,7,-26,168,71,-150,-110,21,-55
-4,-37,-27,17,7,-32,168,71,-150,-104,21,-49
1,-43,-39,17,13,-44,168,77,-144,-104,21,-55
-4,-49,-39,23,7,-44,168,83,-138,-104,21,-55
-10,-49,-33,29,7,-44,174,83,-138,-110,21,-55
-4,-55,-45,29,13,-50,168,89,-138,-104,21,-49
1,-43,-39,17,13,-44,168,89,-138,-98,21,-43
1,-49,-51,17,19,-50,162,83,-132,-92,27,-37
1,-49,-57,17,25,-50,162,83,-132,-92,27,-37
1,-43,-45,17,19,-44,174,83,-138,-92,21,-43
1,-43,-45,17,19,-44,174,83,-138,-92,21,-43
1,-37,-33,17,7,-38,162,83,-138,-92,21,-49
-4,-37,-27,17,7,-32,156,83,-138,-86,27,-49
-4,-25,-16,11,7,-20,156,83,-138,-92,21,-49
1,-25,-27,5,7,-26,156,83,-138,-92,15,-43
1,-31,-33,11,13,-32,162,83,-138,-98,9,-43
1,-31,-27,11,7,-32,168,77,-138,-98,15,-43
1,-31,-33,11,13,-32,168,83,-132,-92,21,-43
1,-43,-45,17,19,-44,156,89,-126,-92,21,-43
1,-43,-45,17,19,-44,156,95,-120,-80,27,-31
1,-37,-39,11,13,-38,156,95,-108,-74,39,-31
1,-31,-33,11,13,-32,162,95,-108,-74,39,-31
1,-31,-27,11,7,-32,162,95,-108,-74,33,-31
-4,-31,-21,17,7,-26,162,95,-114,-74,21,-25
-10,-31,-16,17,7,-26,162,95,-114,-80,15,-25
-4,-25,-16,11,7,-20,162,89,-114,-80,15,-25
1,-25,-21,11,7,-26,168,95,-114,-74,15,-25
1,-31,-39,5,19,-32,162,89,-114,-74,15,-25
7,-37,-51,5,25,-44,162,83,-108,-74,21,-25
1,-43,-51,11,25,-44,156,89,-102,-68,27,-25
1,-37,-39,11,13,-38,150,89,-108,-68,21,-19
1,-37,-33,17,7,-38,138,95,-102,-68,27,-13
1,-37,-33,17,7,-38,138,95,-108,-68,27,-7
-4,-55,-45,29,13,-50,144,95,-114,-68,27,-1
-4,-55,-45,29,13,-50,144,95,-102,-68,33,-1
-10,-43,-27,23,7,-38,138,101,-102,-68,27,5
-10,-31,-16,17,7,-26,138,101,-102,-68,27,5
1,-43,-39,17,13,-44,132,83,-102,-74,27,-1
1,-31,-27,11,7,-32,138,83,-108,-80,27,-1
1,-19,-21,5,7,-20,132,77,-108,-80,27,-7
-4,-19,-16,11,7,-15,132,89,-108,-74,27,-7
-4,-25,-16,11,7,-20,126,83,-114,-80,21,-7
-4,-19,-16,11,7,-15,120,77,-126,-92,15,-13
1,-25,-27,5,7,-26,120,71,-132,-98,-3,-13
1,-37,-39,11,13,-38,120,71,-120,-86,9,-1
1,-37,-39,11,13,-38,114,77,-120,-86,15,-1
1,-37,-39,11,13,-38,120,71,-126,-86,9,-1
1,-37,-45,11,19,-38,114,77,-126,-86,9,-7
1,-37,-45,11,19,-38,120,77,-126,-92,9,-13
1,-31,-27,11,7,-32,120,77,-120,-92,15,-7
-16,-37,-16,23,2,-26,120,77,-120,-86,21,-7
-16,-43,-21,29,7,-32,120,83,-114,-80,27,-1
-22,-49,-21,35,2,-38,120,83,-114,-74,33,-1
-16,-49,-27,29,7,-38,114,71,-120,-86,27,-1
-4,-49,-39,23,7,-44,102,65,-120,-92,21,-13
1,-37,-33,17,7,-38,96,59,-126,-98,9,-13
1,-37,-33,17,7,-38,96,71,-126,-104,9,-19
1,-37,-45,11,19,-38,114,71,-132,-92,9,-1
-10,-37,-21,23,7,-32,114,77,-126,-92,15,-1
1,-31,-27,11,7,-32,102,77,-138,-98,9,-1
1,-31,-33,11,13,-32,96,65,-138,-98,9,-7
-4,-31,-21,17,7,-26,96,71,-138,-92,9,-7
-10,-31,-16,17,7,-26,96,71,-138,-92,9,-7
-22,-31,-16,23,-4,-20,96,77,-138,-86,9,-7
-28,-31,-10,29,-10,-15,96,77,-138,-86,9,-7
-22,-25,-10,23,-10,-15,90,71,-144,-92,3,-7
-16,-31,-16,23,2,-20,90,71,-144,-92,9,-7
-10,-25,-16,17,2,-20,84,65,-150,-104,3,-7
-22,-25,-10,23,-10,-15,84,65,-150,-104,3,-7
-16,-31,-16,23,2,-20,90,65,-144,-104,3,-7
-4,-37,-27,17,7,-32,84,65,-150,-104,-9,-13
1,-37,-33,17,7,-38,90,71,-144,-104,-9,-13
-10,-43,-27,23,7,-38,90,71,-144,-104,-3,-13
-10,-31,-16,17,7,-26,90,65,-144,-104,-3,-7
-22,-25,-10,23,-10,-15,96,65,-144,-104,-3,-7
-10,-25,-16,17,2,-20,96,59,-144,-104,-3,-7
-10,-19,-16,11,2,-15,108,59,-144,-104,-3,-7
-4,-14,-4,5,2,-9,120,65,-138,-98,3,-1
-10,-8,8,5,-10,-3,120,65,-132,-92,3,-1
-4,-2,8,5,-4,3,120,71,-126,-86,9,11
1,4,8,5,-4,3,120,71,-120,-92,9,11
1,16,8,-6,2,15,120,71,-114,-86,15,17
1,22,14,-12,2,21,120,71,-108,-86,15,23
1,34,32,-12,-10,33,126,71,-108,-80,21,29
1,52,50,-24,-22,51,126,71,-102,-74,21,35
1,46,44,-18,-16,45,126,77,-90,-68,27,47
1,52,44,-24,-16,51,126,83,-84,-68,27,47
1,46,44,-18,-16,45,138,89,-78,-62,33,53
1,64,62,-30,-28,63,150,95,-66,-56,45,53
1,70,62,-36,-22,69,138,89,-60,-56,45,47
1,76,68,-36,-28,75,138,89,-66,-56,45,47
7,70,56,-36,-16,63,120,77,-72,-68,33,47
7,70,56,-36,-16,63,114,65,-72,-74,21,47
1,76,74,-36,-34,75,108,65,-72,-74,27,53
1,76,80,-30,-40,75,108,65,-72,-74,27,53
-10,70,86,-24,-46,75,102,71,-66,-68,39,59
-16,70,92,-18,-52,81,108,71,-54,-68,39,59
-22,58,86,-12,-52,69,102,65,-72,-74,33,59
-22,46,74,-6,-46,57,102,65,-72,-74,27,53
-28,16,50,5,-40,33,96,59,-72,-74,27,59
-28,22,56,5,-40,39,84,53,-72,-74,21,41
-22,34,62,0,-40,45,78,47,-78,-80,15,41
-16,34,56,0,-34,45,72,41,-90,-86,9,41
-10,40,56,-6,-34,45,66,35,-96,-92,3,41
-4,52,62,-18,-34,57,60,35,-102,-116,-3,29
-4,34,44,-6,-22,39,60,35,-102,-110,3,29
-4,22,32,0,-16,27,54,35,-96,-110,-9,29
-10,10,26,5,-16,15,54,35,-102,-104,-9,23
-10,-8,8,5,-10,-3,48,35,-96,-110,-9,11
-10,-8,8,5,-10,-3,42,35,-90,-110,-15,17
-4,-8,2,5,-4,-3,42,35,-102,-116,-15,17
1,-8,-4,5,2,-9,42,35,-96,-116,-9,23
1,-14,-10,5,7,-15,42,35,-90,-116,-9,23
1,-14,-10,5,7,-15,42,35,-96,-116,-9,17
1,-14,-16,5,7,-15,36,35,-96,-116,-9,17
1,-14,-16,5,7,-15,36,30,-102,-128,-3,11
1,-31,-27,11,7,-32,36,35,-102,-128,-3,11
-4,-25,-16,11,7,-20,36,35,-102,-122,-3,11
-4,-31,-21,17,7,-26,36,35,-102,-122,-9,11
-4,-25,-16,11,7,-20,36,35,-102,-122,-15,11
-4,-37,-27,17,7,-32,36,35,-114,-122,-21,5
-4,-43,-33,23,7,-38,36,35,-114,-128,-27,-7
-10,-43,-27,23,7,-38,42,30,-114,-140,-27,-7
-10,-49,-33,29,7,-44,42,24,-126,-152,-45,-19
-16,-61,-39,35,7,-50,42,24,-126,-152,-51,-25
-22,-55,-27,35,7,-44,54,24,-120,-152,-45,-19
-28,-49,-16,35,-4,-32,54,30,-120,-146,-45,-13
-46,-43,-4,41,-22,-20,60,35,-114,-140,-39,-1
-52,-49,-4,47,-28,-20,60,35,-114,-134,-39,-7
-40,-55,-16,47,-10,-32,54,35,-120,-140,-45,-1
-34,-55,-16,41,-4,-38,54,35,-120,-140,-39,-1
-28,-43,-16,35,-4,-26,48,35,-120,-140,-27,5
-10,-37,-21,23,7,-32,36,35,-120,-140,-21,5
1,-43,-39,17,13,-44,48,35,-108,-116,-9,29
1,-49,-45,23,13,-50,54,35,-108,-116,-9,29
-16,-25,-16,17,-4,-15,54,35,-102,-116,-21,29
-34,-14,26,17,-28,3,48,35,-102,-122,-15,23
-22,-14,14,11,-16,-3,48,41,-102,-116,-9,35
-22,-14,14,11,-16,-3,54,59,-78,-98,9,59
-22,28,56,5,-40,39,60,65,-66,-86,15,59
-10,64,80,-18,-46,69,54,59,-66,-80,9,47
-22,34,62,0,-40,45,66,65,-48,-68,15,47
-52,22,80,5,-64,51,96,101,-12,-44,39,77
-64,28,98,11,-82,63,120,119,6,-20,57,95
-40,46,92,5,-64,69,126,113,18,-20,62,95
-46,46,98,5,-70,69,144,125,24,-14,62,95
-52,28,86,5,-70,57,150,143,36,-8,62,89
-58,28,92,5,-76,57,162,155,48,-2,62,83
-76,16,98,23,-88,57,174,185,71,22,62,83
-76,16,98,23,-88,57,198,215,89,28,62,83
-52,34,92,5,-70,63,204,227,95,28,45,53
-52,10,68,11,-58,39,228,263,113,34,39,41
-76,-43,26,59,-52,-15,264,311,155,64,51,35
-88,-103,-16,95,-34,-56,306,359,185,75,57,23
-76,-157,-75,113,2,-116,336,419,215,93,51,5
-76,-199,-117,137,13,-158,384,473,251,117,51,-13
-76,-181,-99,125,7,-140,408,515,281,111,33,-55
-64,-223,-153,143,37,-188,444,575,323,123,21,-79
-40,-307,-261,173,103,-284,498,689,413,177,39,-67
-34,-367,-327,203,139,-350,570,821,515,249,62,-49
-22,-361,-333,191,151,-350,636,977,653,351,104,-37
-46,-373,-321,209,133,-350,744,1193,881,513,206,17
-76,-409,-327,245,121,-368,912,1463,1151,729,308,65
-52,-421,-363,239,151,-392,1068,1739,1409,903,392,83
-28,-439,-405,233,181,-422,1224,1985,1655,1089,488,106
1,-445,-441,221,217,-446,1356,2236,1937,1311,626,196
55,-415,-477,173,259,-446,1398,2493,2236,1587,830,340
109,-379,-495,131,295,-434,1452,2751,2541,1869,1034,484
85,-385,-477,143,277,-428,1500,2907,2733,2001,1112,538
61,-421,-489,173,271,-452,1482,2841,2655,1911,1040,514
25,-433,-465,197,247,-446,1398,2481,2272,1587,836,388
-76,-385,-303,233,109,-344,1242,1871,1637,1071,512,184
-190,-337,-147,257,-16,-248,990,1115,911,489,146,-43
-226,-337,-111,275,-52,-230,666,377,245,-2,-153,-235
-244,-343,-93,293,-76,-224,396,-156,-288,-404,-393,-373
-292,-325,-27,305,-130,-182,240,-480,-630,-662,-537,-451
-268,-271,-10,269,-136,-140,102,-642,-768,-746,-555,-451
-220,-193,20,203,-124,-80,-23,-642,-738,-686,-501,-379
-196,-97,92,143,-148,-9,-95,-546,-636,-584,-393,-277
-166,-19,140,89,-154,51,-83,-402,-492,-452,-279,-175
-124,-14,116,59,-118,51,-59,-270,-384,-368,-201,-127
-76,-19,50,47,-64,9,-53,-186,-294,-284,-159,-91
-58,-14,38,35,-52,3,-23,-108,-210,-224,-99,-43
-34,4,44,5,-40,21,1,-54,-168,-182,-63,-19
1,4,-4,0,7,3,6,-36,-156,-164,-57,-13
1,-14,-16,5,7,-15,6,-42,-162,-164,-51,-13
-28,-19,2,23,-16,-15,24,-36,-156,-152,-39,5
-40,-14,26,23,-34,3,48,-36,-162,-152,-33,11
-40,-14,26,23,-34,3,48,-36,-168,-146,-33,17
-34,-14,14,23,-28,-9,42,-42,-168,-152,-39,11
-28,-14,8,17,-22,-9,24,-48,-174,-164,-45,5
-10,-14,-4,5,-4,-15,6,-60,-180,-176,-51,5
-4,-14,-16,5,2,-15,6,-54,-168,-170,-45,17
-10,-19,-16,11,2,-15,6,-54,-162,-164,-39,17
-10,-25,-16,17,2,-20,6,-48,-156,-158,-33,23
-4,-31,-21,17,7,-26,6,-48,-150,-158,-27,23
1,-19,-16,5,7,-20,6,-48,-156,-164,-33,23
-4,-14,-10,5,2,-15,1,-48,-156,-164,-33,23
-4,-19,-16,11,7,-15,6,-48,-156,-164,-33,29
-4,-19,-16,11,7,-15,6,-42,-150,-158,-27,35
-4,-19,-16,11,7,-15,6,-48,-156,-164,-33,29
-4,-19,-16,11,7,-15,1,-48,-156,-164,-39,29
1,-14,-16,5,7,-15,-11,-54,-162,-164,-45,23
1,-14,-16,5,7,-15,-11,-48,-162,-164,-45,29
1,-2,-4,5,7,-3,-17,-42,-150,-164,-33,35
1,4,-4,0,7,3,-17,-48,-144,-158,-27,41
1,4,-4,0,7,3,-23,-42,-144,-152,-15,47
1,-8,-16,5,7,-9,-23,-42,-138,-146,-9,53
1,-14,-16,5,7,-15,-17,-36,-144,-140,-3,53
1,-8,-10,5,7,-9,-17,-42,-138,-140,-3,59
-4,-14,-4,5,2,-9,-17,-36,-138,-134,9,59
-4,-14,-10,5,2,-15,-17,-30,-132,-128,9,65
1,-14,-16,5,7,-15,-23,-36,-138,-128,3,53
7,4,-10,-6,7,-3,-35,-36,-150,-134,-9,47
13,10,-10,-12,7,3,-41,-42,-156,-152,-15,35
13,4,-16,-6,7,-3,-35,-42,-156,-158,-15,29
19,4,-16,-12,13,-9,-35,-54,-156,-158,-21,23
19,4,-16,-12,13,-9,-41,-60,-168,-158,-21,23
25,4,-16,-12,19,-9,-41,-66,-168,-158,-21,17
19,4,-16,-12,13,-9,-47,-60,-168,-158,-21,17
13,10,-10,-12,7,3,-47,-60,-162,-158,-15,35
7,10,-4,-6,7,3,-59,-60,-168,-158,-15,35
7,10,-4,-6,7,3,-65,-72,-168,-164,-15,41
1,10,2,-6,7,9,-65,-72,-168,-164,-15,41
7,16,2,-12,7,9,-59,-72,-168,-158,-9,41
7,22,8,-12,7,15,-59,-78,-174,-164,-9,41
13,16,-4,-12,7,9,-71,-84,-174,-158,-9,47
13,4,-16,-6,7,-3,-71,-84,-174,-158,-9,59
13,16,-4,-12,7,9,-77,-90,-168,-152,-3,65
13,28,8,-18,7,21,-77,-96,-168,-158,3,71
7,28,14,-18,2,21,-71,-90,-168,-158,9,77
7,22,8,-12,7,15,-65,-96,-168,-158,21,83
19,22,-4,-18,7,9,-77,-102,-186,-164,15,77
25,34,2,-30,7,21,-83,-108,-198,-164,9,77
31,34,-4,-30,13,15,-89,-114,-204,-164,3,71
31,34,-4,-30,13,15,-89,-114,-204,-164,3,71
37,58,14,-48,7,39,-101,-126,-204,-170,3,77
37,58,14,-48,7,39,-119,-132,-210,-170,3,77
43,64,14,-54,7,39,-125,-138,-204,-176,9,83
43,64,14,-54,7,39,-125,-138,-204,-176,9,83
37,64,20,-48,7,45,-125,-156,-222,-182,9,95
37,76,32,-54,7,57,-137,-156,-222,-188,9,95
31,76,38,-54,2,57,-149,-168,-228,-188,9,101
43,82,32,-60,7,57,-155,-180,-234,-188,9,106
55,88,26,-72,7,57,-173,-186,-240,-188,9,106
55,94,32,-72,7,63,-173,-192,-246,-188,9,106
55,106,44,-78,7,75,-179,-192,-252,-206,3,106
49,112,56,-78,2,87,-185,-198,-264,-206,-3,106
49,106,50,-78,7,81,-197,-204,-270,-212,3,106
49,124,68,-84,-4,99,-203,-210,-270,-212,9,106
61,124,56,-90,7,93,-215,-228,-276,-218,9,106
61,130,62,-96,7,99,-233,-234,-282,-224,15,112
55,154,92,-102,-10,123,-233,-246,-282,-224,27,124
55,160,98,-108,-16,129,-233,-252,-282,-224,39,136
61,172,104,-114,-16,141,-239,-258,-282,-224,39,148
67,184,110,-126,-16,147,-239,-264,-294,-224,39,160
67,178,104,-120,-10,141,-239,-264,-294,-218,45,166
61,196,128,-126,-28,165,-251,-264,-300,-218,45,166
61,202,134,-132,-28,171,-263,-270,-312,-212,39,160
79,214,128,-144,-16,171,-263,-282,-324,-212,57,160
79,220,134,-150,-22,177,-275,-288,-324,-218,51,166
79,226,146,-156,-28,189,-281,-294,-324,-218,51,172
79,226,140,-150,-22,183,-287,-300,-330,-218,45,184
79,232,152,-156,-28,195,-287,-312,-336,-218,51,190
73,244,170,-162,-40,213,-287,-312,-342,-230,57,202
79,244,164,-162,-34,207,-287,-312,-342,-230,57,208
79,244,164,-162,-34,207,-293,-306,-342,-224,62,220
79,256,176,-168,-40,219,-293,-306,-342,-224,62,220
79,256,176,-168,-40,219,-293,-306,-336,-200,80,232
73,256,182,-168,-46,225,-293,-306,-330,-200,80,232
73,268,194,-174,-52,231,-287,-312,-324,-200,80,238
73,268,194,-174,-52,231,-287,-312,-312,-200,86,244
67,286,218,-180,-70,249,-281,-306,-306,-200,80,232
67,286,218,-180,-70,249,-281,-306,-312,-200,74,226
61,292,224,-180,-76,261,-281,-294,-318,-206,68,220
55,292,230,-174,-82,261,-269,-294,-318,-206,62,214
55,280,224,-168,-76,249,-257,-288,-312,-200,68,214
55,274,218,-168,-76,243,-251,-276,-312,-194,62,214
55,256,200,-156,-64,225,-239,-270,-300,-188,74,220
55,238,182,-150,-58,213,-233,-258,-300,-188,74,220
55,238,182,-150,-58,213,-233,-252,-288,-182,74,208
55,238,182,-150,-58,213,-221,-246,-282,-182,62,202
55,244,188,-150,-58,219,-203,-240,-270,-176,62,202
55,250,194,-156,-64,225,-191,-234,-270,-176,62,202
55,232,176,-144,-52,207,-179,-222,-258,-176,62,190
55,226,170,-144,-52,201,-167,-210,-246,-176,62,178
49,214,158,-132,-46,189,-155,-198,-234,-176,62,178
37,202,158,-120,-52,183,-137,-174,-234,-170,62,184
31,196,158,-114,-58,177,-125,-162,-234,-176,57,178
31,184,146,-108,-52,165,-107,-162,-234,-176,45,172
19,190,164,-102,-64,177,-95,-156,-234,-188,27,148
19,184,158,-102,-64,171,-89,-144,-222,-188,15,136
19,172,146,-96,-58,159,-83,-132,-210,-176,21,142
7,148,134,-78,-58,141,-65,-120,-192,-170,21,142
7,136,122,-72,-52,129,-47,-108,-174,-164,21,142
1,130,122,-66,-52,129,-35,-90,-168,-164,15,136
1,124,128,-54,-64,123,-17,-78,-156,-158,21,142
-4,112,122,-48,-64,117,-5,-72,-138,-140,21,142
-10,100,116,-36,-64,105,6,-54,-120,-128,21,142
-10,88,104,-30,-58,93,6,-36,-102,-122,15,124
-4,76,86,-30,-46,81,24,-18,-84,-116,39,136
7,88,74,-48,-28,81,6,-24,-90,-116,27,124
-16,70,92,-18,-52,81,36,6,-72,-104,39,142
-16,40,62,-6,-40,51,60,18,-66,-98,33,124
-10,46,62,-12,-34,51,54,18,-60,-104,21,112
-4,46,56,-12,-28,51,48,18,-60,-104,15,106
1,52,56,-18,-28,51,42,18,-54,-110,3,101
1,52,50,-24,-22,51,36,18,-54,-110,-3,89
1,46,44,-18,-16,45,42,24,-42,-98,3,95
1,40,38,-18,-16,39,48,30,-30,-92,3,95
1,34,32,-12,-10,33,54,35,-18,-80,9,101
1,28,26,-12,-10,27,60,35,-6,-74,9,101
1,16,20,0,-10,15,66,41,6,-62,21,106
-4,4,14,5,-10,9,66,47,12,-56,27,106
-10,-8,8,5,-10,-3,72,59,24,-44,39,118
-16,-14,2,11,-10,-9,72,65,30,-38,45,124
-16,-14,8,5,-10,-3,66,65,30,-38,39,118
-16,-14,8,5,-10,-3,60,65,30,-38,39,112
-16,-8,14,5,-16,3,54,65,30,-38,33,106
-16,-8,14,5,-16,3,48,65,30,-38,33,106
-10,-14,2,5,-4,-9,54,71,36,-38,33,106
-10,-14,2,5,-4,-9,54,71,36,-38,33,106
-4,-14,-10,5,2,-15,60,77,42,-38,33,106
-4,-14,-10,5,2,-15,60,77,42,-38,33,106
-4,-14,-10,5,2,-15,60,71,42,-44,27,106
-4,-14,-10,5,2,-15,60,71,42,-44,27,106
-4,-14,-10,5,2,-15,60,65,42,-50,21,106
-4,-14,-10,5,2,-15,60,65,42,-50,21,106
1,-14,-10,5,7,-15,54,59,42,-56,15,106
1,-14,-10,5,7,-15,54,59,42,-56,15,106
1,-8,-10,5,7,-9,48,53,42,-62,9,101
1,-8,-10,5,7,-9,48,53,42,-62,9,101
1,-8,-4,5,2,-9,54,53,36,-56,9,101
-4,-8,2,5,-4,-3,54,53,36,-56,9,101
-10,-8,8,5,-10,-3,60,53,30,-50,9,101
-16,-8,14,5,-16,3,60,53,30,-50,9,101
-16,-2,20,5,-16,9,54,47,36,-50,15,106
-16,-2,20,5,-16,9,54,47,36,-50,21,106
-16,4,26,5,-22,15,48,41,42,-50,27,106
-16,4,26,5,-22,15,48,41,42,-50,33,112
-16,-2,20,5,-16,9,48,41,42,-50,27,112
-16,-8,14,5,-16,3,48,41,42,-50,27,112
-16,-14,8,5,-10,-3,48,41,42,-50,21,112
-16,-14,2,11,-10,-9,48,41,42,-50,21,112
-16,-14,8,5,-10,-3,48,41,42,-50,21,118
-16,-14,8,5,-10,-3,48,41,42,-50,21,118
-16,-8,14,5,-16,3,48,41,42,-50,21,124
-16,-8,14,5,-16,3,48,41,42,-50,21,124
-10,-2,14,5,-10,3,54,47,48,-50,21,118
-4,-2,8,5,-4,3,60,47,48,-50,21,118
1,4,8,5,-4,3,66,53,54,-50,21,112
1,4,2,0,2,3,72,53,54,-50,21,112
1,-2,2,5,2,-3,78,59,60,-44,27,118
-4,-2,8,5,-4,3,84,59,66,-38,27,118
-10,-8,8,5,-10,-3,90,65,71,-32,33,124
-16,-8,14,5,-16,3,96,65,71,-26,33,124
-22,-14,8,11,-16,-9,102,71,71,-26,27,118
-22,-14,2,17,-16,-15,102,71,71,-26,27,118
-28,-25,-4,23,-16,-15,108,77,71,-26,21,112
-28,-31,-10,29,-10,-15,108,77,71,-26,21,112
-22,-25,-10,23,-10,-15,114,77,71,-20,27,118
-16,-25,-16,17,-4,-15,120,77,71,-20,27,124
-10,-19,-16,11,2,-15,126,77,77,-14,33,130
-4,-19,-16,11,7,-15,132,77,77,-14,33,136
-4,-14,-10,5,2,-15,126,77,83,-8,39,136
-4,-14,-4,5,2,-9,120,77,83,-2,45,136
-4,-2,8,5,-4,3,114,77,89,4,51,136
-4,4,14,5,-10,9,108,77,89,10,57,136
-10,-8,8,5,-10,-3,102,83,89,10,51,136
-16,-14,8,5,-10,-3,102,83,89,10,51,136
-22,-14,2,17,-16,-15,96,89,89,10,45,136
-28,-19,2,23,-16,-15,96,89,89,10,45,136
-22,-14,2,17,-16,-15,78,83,83,4,39,130
-22,-14,8,11,-16,-9,66,77,83,4,39,130
-16,-14,8,5,-10,-3,48,71,77,-2,33,124
-16,-8,14,5,-16,3,36,65,77,-2,33,124
-4,-14,-4,5,2,-9,42,71,83,4,45,136
1,-14,-10,5,7,-15,48,71,89,4,51,142
1,-14,-16,5,7,-15,54,77,95,10,62,154
7,-14,-21,5,13,-15,60,77,101,10,62,160
1,-14,-16,5,7,-15,54,71,95,10,62,154
1,-8,-4,5,2,-9,54,71,95,10,57,154
-10,-2,14,5,-10,3,48,65,89,10,51,148
-16,4,26,5,-22,15,48,65,89,10,45,148
7,4,-10,-6,7,-3,36,65,89,22,45,136
1,-14,-16,5,7,-15,48,77,101,22,45,148
-16,-19,-10,17,-4,-15,72,113,125,34,57,160
1,-19,-21,5,7,-20,72,137,161,58,68,172
31,-31,-69,5,49,-50,72,197,221,93,92,172
19,-19,-45,5,31,-32,84,287,311,177,152,208
31,4,-21,-18,25,-15,120,419,479,327,260,280
55,64,2,-60,19,33,156,581,689,507,374,370
79,100,14,-90,25,57,204,761,899,681,482,430
79,76,-10,-78,37,33,282,995,1133,879,596,502
103,64,-33,-84,67,9,378,1259,1439,1137,776,604
175,136,-33,-156,103,45,426,1529,1757,1431,974,748
223,208,-16,-216,115,93,450,1763,2015,1677,1172,886
253,262,2,-258,121,135,486,1883,2140,1791,1280,994
277,322,38,-300,115,183,492,1823,2069,1725,1268,1018
253,370,110,-312,67,237,462,1499,1709,1419,1112,934
163,406,236,-282,-34,321,390,875,1061,891,806,784
55,472,416,-264,-178,447,270,125,323,309,458,592
-16,556,578,-264,-298,567,72,-630,-360,-212,140,430
-64,604,674,-264,-370,639,-155,-1272,-930,-638,-87,328
-100,628,728,-258,-418,681,-353,-1638,-1236,-848,-225,256
-112,604,716,-240,-418,663,-473,-1728,-1344,-938,-309,184
-112,532,650,-210,-382,591,-539,-1728,-1410,-1022,-423,77
-124,454,578,-162,-352,513,-611,-1680,-1410,-1058,-495,-19
-124,370,494,-120,-310,435,-635,-1542,-1308,-1010,-507,-55
-124,274,404,-72,-262,339,-599,-1320,-1146,-902,-495,-79
-112,184,296,-30,-208,237,-515,-1086,-966,-800,-459,-91
-112,100,218,5,-166,159,-413,-840,-768,-656,-393,-67
-88,28,122,23,-106,75,-317,-630,-558,-506,-297,-31
-76,28,110,17,-94,69,-269,-498,-426,-404,-237,5
-88,88,182,5,-136,135,-227,-408,-324,-320,-177,41
-64,88,158,-6,-112,123,-167,-312,-228,-248,-147,41
-40,76,122,-12,-82,99,-107,-240,-138,-164,-99,77
-52,88,146,-12,-100,117,-71,-174,-66,-98,-39,112
-40,112,158,-30,-100,135,-59,-150,-30,-74,-15,124
-4,88,98,-36,-52,93,-47,-126,-30,-74,-15,124
-16,28,50,0,-34,39,-11,-78,-18,-62,-15,136
-16,4,26,5,-22,15,-11,-42,18,-50,9,148
1,-8,-10,5,7,-9,-23,-18,42,-26,21,148
1,-14,-16,5,7,-15,-11,-12,48,-20,21,142
1,-14,-16,5,7,-15,-5,-6,54,-20,21,142
1,-14,-16,5,7,-15,6,0,60,-14,21,136
1,-14,-16,5,7,-15,6,6,66,-14,21,136
1,-19,-16,5,7,-20,6,12,71,-8,21,142
-4,-25,-16,11,7,-20,6,18,71,-8,21,142
-10,-37,-21,23,7,-32,12,24,71,-2,21,148
-16,-43,-21,29,7,-32,12,30,77,-2,21,148
-10,-37,-21,23,7,-32,12,35,83,4,21,148
-10,-37,-21,23,7,-32,12,35,89,4,21,148
-4,-31,-21,17,7,-26,12,35,95,10,21,148
-4,-31,-21,17,7,-26,12,35,101,10,21,148
1,-37,-33,17,7,-38,18,35,107,16,27,142
1,-37,-33,17,7,-38,18,35,107,16,27,142
1,-43,-45,17,19,-44,24,41,113,22,33,136
1,-43,-45,17,19,-44,24,41,113,22,33,136
1,-43,-39,17,13,-44,24,41,119,28,39,142
1,-43,-39,17,13,-44,24,41,119,28,39,148
-4,-43,-33,23,7,-38,24,41,125,34,45,154
-4,-43,-33,23,7,-38,24,41,125,34,45,160
-4,-37,-27,17,7,-32,24,47,131,40,45,154
-4,-31,-21,17,7,-26,24,47,137,40,45,154
-4,-25,-16,11,7,-20,24,53,143,46,45,148
-4,-19,-16,11,7,-15,24,53,149,46,45,148
-4,-19,-16,11,7,-15,30,59,155,52,51,154
-4,-19,-16,11,7,-15,30,65,155,52,51,154
-4,-19,-16,11,7,-15,36,71,161,58,57,160
-4,-19,-16,11,7,-15,36,77,161,58,57,160
1,-25,-21,11,7,-26,36,83,161,58,57,154
1,-31,-27,11,7,-32,36,83,161,58,57,154
1,-37,-39,11,13,-38,36,89,161,58,57,148
1,-43,-45,17,19,-44,36,89,161,58,57,148
1,-31,-33,11,13,-32,36,95,161,64,62,154
1,-25,-27,5,7,-26,36,95,161,70,62,160
1,-14,-16,5,7,-15,36,101,161,75,62,166
1,-14,-16,5,7,-15,36,101,161,75,62,172
1,-14,-16,5,7,-15,36,113,173,75,68,178
1,-14,-16,5,7,-15,36,119,185,81,74,184
1,-19,-21,5,7,-20,36,131,197,87,86,190
1,-19,-21,5,7,-20,36,137,209,93,92,196
1,-14,-16,5,7,-15,42,143,215,99,86,190
1,-14,-16,5,7,-15,42,143,215,99,86,184
1,-14,-16,5,7,-15,48,149,221,105,80,178
1,-14,-16,5,7,-15,48,149,221,105,80,172
1,-14,-16,5,7,-15,42,155,227,111,86,178
7,-14,-21,5,13,-15,42,155,233,111,92,184
13,-14,-27,5,19,-15,36,161,239,117,98,190
19,-14,-33,0,25,-20,36,161,245,117,104,196
13,-14,-21,0,19,-15,42,173,257,129,110,202
13,-8,-16,0,13,-15,42,179,263,135,110,202
7,-2,-16,0,7,-9,48,191,275,147,116,208
7,4,-10,-6,7,-3,48,197,281,153,116,208
7,4,-10,-6,7,-3,54,209,287,165,128,214
7,4,-10,-6,7,-3,54,215,293,171,134,214
7,4,-10,-6,7,-3,60,227,299,183,146,220
7,4,-10,-6,7,-3,60,233,305,189,152,220
13,10,-10,-12,7,3,60,245,317,201,164,232
19,10,-16,-12,13,-3,60,257,335,213,170,238
25,16,-16,-18,13,3,60,269,353,225,182,250
31,16,-16,-24,19,-3,60,275,371,237,188,256
37,22,-16,-30,25,3,60,293,383,255,200,262
43,22,-16,-30,31,-3,60,305,395,267,206,262
49,28,-16,-36,31,3,60,323,407,285,218,268
55,28,-21,-42,37,-3,60,335,419,297,224,268
49,28,-16,-36,31,3,66,353,437,309,236,280
49,28,-16,-36,31,3,72,371,455,315,248,286
43,28,-16,-36,25,3,78,389,473,327,260,298
43,28,-16,-36,25,3,84,407,491,339,272,304
55,40,-16,-48,31,9,78,419,503,357,284,310
67,52,-16,-60,37,15,78,431,515,369,290,316
79,64,-16,-72,43,21,72,443,527,387,302,322
91,76,-16,-84,49,27,72,455,539,399,302,328
85,76,-16,-78,43,33,78,473,557,411,314,334
85,76,-16,-78,43,33,84,485,563,423,320,334
79,76,-10,-78,37,33,90,503,581,435,332,340
79,76,-10,-78,37,33,96,515,593,447,338,340
79,82,-4,-78,37,39,96,521,605,459,350,346
79,82,-4,-78,37,39,96,527,611,465,362,358
79,88,2,-84,31,45,96,539,623,477,374,370
79,88,2,-84,31,45,96,545,629,483,386,382
85,94,2,-90,37,51,96,545,623,477,386,388
85,100,8,-90,31,57,96,545,623,477,386,388
91,106,8,-96,37,57,96,545,617,471,386,394
91,112,14,-102,31,63,96,545,617,471,386,394
85,118,26,-102,25,75,96,545,617,477,386,388
85,124,32,-102,19,81,96,545,617,477,386,388
79,130,44,-102,13,87,96,545,617,483,386,382
79,136,50,-108,7,93,96,545,617,483,386,382
79,130,44,-102,13,87,102,533,605,471,380,376
79,124,38,-102,13,81,102,527,599,465,380,376
79,118,32,-96,19,75,108,521,587,453,374,370
79,112,26,-96,19,69,108,515,581,447,374,370
79,118,32,-96,19,75,102,497,563,429,362,358
79,124,38,-102,13,81,96,479,557,417,350,352
79,130,44,-102,13,87,90,461,539,399,338,346
79,136,50,-108,7,93,84,443,527,387,326,340
67,136,62,-102,7,99,78,419,509,375,320,334
61,136,68,-96,2,105,72,401,497,363,314,328
49,136,80,-90,-10,111,66,377,479,351,308,322
43,136,86,-90,-16,111,60,359,467,339,302,316
43,118,68,-78,-4,93,66,335,443,315,284,298
43,106,56,-72,2,81,66,317,419,297,260,286
43,88,38,-66,7,63,72,293,395,273,236,268
43,76,26,-60,7,51,72,275,371,249,212,256
37,70,26,-54,7,51,72,263,353,231,200,250
31,64,26,-48,7,45,72,245,341,213,194,244
25,58,26,-42,7,45,72,227,323,195,182,238
19,52,26,-36,2,39,72,209,311,177,176,232
13,52,32,-30,-4,45,66,191,299,159,158,208
13,52,32,-30,-4,45,60,173,287,147,146,190
7,52,38,-30,-10,45,54,155,269,129,128,166
7,52,38,-30,-10,45,48,137,257,117,116,148
1,40,32,-18,-10,39,48,131,245,99,104,142
1,28,20,-12,-4,27,48,125,233,87,98,142
1,16,14,-6,-4,15,48,119,221,75,86,136
1,4,2,0,2,3,48,113,209,70,80,136
1,-2,-4,5,7,-3,54,101,203,64,68,124
1,-2,-4,5,7,-3,54,95,203,58,62,112
1,-8,-10,5,7,-9,60,83,197,52,57,106
1,-8,-10,5,7,-9,60,77,197,46,45,101
1,-14,-16,5,7,-15,54,77,191,40,51,106
1,-14,-16,5,7,-15,48,77,191,40,51,106
1,-14,-16,5,7,-15,42,77,185,34,57,106
1,-14,-16,5,7,-15,36,77,185,34,57,106
1,-14,-10,5,7,-15,30,65,179,28,45,101
1,-8,-4,5,2,-9,30,59,179,28,39,95
-4,-2,8,5,-4,3,24,47,173,22,27,83
-4,4,14,5,-10,9,24,41,173,22,21,77
-4,-2,8,5,-4,3,30,53,173,28,33,89
-4,-8,2,5,-4,-3,30,59,173,28,39,95
-4,-14,-4,5,2,-9,36,71,173,34,51,106
-4,-14,-10,5,2,-15,36,77,173,34,57,106
-10,-14,-4,5,-4,-15,30,77,179,40,62,106
-10,-14,-4,5,-4,-15,30,77,185,46,62,106
-16,-14,2,11,-10,-9,24,77,191,52,62,112
-16,-14,2,11,-10,-9,24,77,197,58,68,112
-4,-14,-10,5,2,-15,18,71,191,52,62,106
1,-14,-16,5,7,-15,18,65,185,46,51,101
1,-14,-16,5,7,-15,12,59,179,40,33,89
7,-14,-21,5,13,-15,12,53,173,34,21,77
1,-14,-16,5,7,-15,12,53,173,34,27,83
1,-14,-16,5,7,-15,12,53,173,34,33,83
1,-8,-10,5,7,-9,12,53,173,34,39,89
1,-8,-10,5,7,-9,12,53,173,34,45,89
1,-14,-16,5,7,-15,18,59,179,40,51,95
1,-14,-16,5,7,-15,18,59,179,40,51,95
-4,-25,-16,11,7,-20,24,65,185,46,57,101
-4,-31,-21,17,7,-26,24,65,185,46,57,101
1,-19,-16,5,7,-20,18,59,191,52,57,95
1,-14,-16,5,7,-15,12,59,191,52,57,95
1,-14,-16,5,7,-15,6,53,197,58,57,89
7,-8,-16,0,7,-15,6,53,197,58,57,89
1,-14,-16,5,7,-15,6,53,191,52,51,89
1,-14,-16,5,7,-15,6,53,191,46,51,89
1,-14,-16,5,7,-15,1,53,185,40,45,89
1,-14,-16,5,7,-15,1,53,185,34,45,89
1,-14,-10,5,7,-15,6,47,179,40,51,89
1,-8,-4,5,2,-9,6,47,179,40,51,89
-4,-2,8,5,-4,3,6,41,173,46,57,89
-4,4,14,5,-10,9,6,41,173,46,57,89
1,-8,-4,5,2,-9,6,47,173,40,51,89
1,-14,-16,5,7,-15,6,47,173,40,51,89
1,-19,-21,5,7,-20,1,53,173,34,45,89
1,-31,-33,11,13,-32,1,53,173,34,45,89
1,-19,-27,5,13,-20,-5,47,167,34,39,83
1,-14,-21,5,7,-15,-5,41,167,34,33,77
7,-14,-16,5,13,-15,-11,35,161,34,27,71
7,-8,-16,0,7,-15,-11,35,161,34,21,65
1,-14,-16,5,7,-15,-11,35,167,40,27,71
1,-14,-16,5,7,-15,-11,35,167,40,33,77
1,-14,-16,5,7,-15,-11,41,173,46,39,83
1,-19,-21,5,7,-20,-11,41,173,46,45,89
-4,-14,-16,5,2,-15,-11,35,167,40,39,83
-10,-14,-10,11,-4,-15,-11,35,167,34,39,83
-22,-14,8,11,-16,-9,-11,35,161,28,33,77
-28,-14,14,17,-22,-3,-11,35,161,22,33,77
-16,-14,2,11,-10,-9,-17,35,155,22,27,65
-4,-14,-10,5,2,-15,-23,35,149,22,21,59
1,-14,-16,5,7,-15,-29,30,143,22,15,47
7,-14,-21,5,13,-15,-35,30,137,22,9,41
1,-14,-16,5,7,-15,-29,24,137,16,15,47
1,-14,-16,5,7,-15,-29,24,137,16,15,47
1,-8,-10,5,7,-9,-23,18,137,10,21,53
1,-8,-10,5,7,-9,-23,18,137,10,21,53
1,-14,-10,5,7,-15,-29,18,137,10,21,47
1,-14,-10,5,7,-15,-29,18,137,10,21,47
-4,-14,-10,5,2,-15,-35,18,137,10,21,41
-4,-14,-10,5,2,-15,-35,18,137,10,21,41
-4,-14,-16,5,2,-15,-35,12,131,4,15,41
-4,-19,-16,11,7,-15,-35,12,125,4,9,41
-4,-25,-16,11,7,-20,-35,6,119,-2,3,41
-4,-31,-21,17,7,-26,-35,6,113,-2,-3,41
1,-19,-16,5,7,-20,-41,0,107,-8,-3,41
1,-14,-16,5,7,-15,-47,0,107,-8,-3,41
1,-14,-16,5,7,-15,-53,-6,101,-14,-3,41
7,-8,-16,0,7,-15,-59,-6,101,-14,-3,41
1,-14,-16,5,7,-15,-59,-6,107,-8,-3,35
1,-14,-16,5,7,-15,-59,-6,107,-8,-3,35
1,-25,-21,11,7,-26,-59,-6,113,-2,-3,29
-4,-31,-21,17,7,-26,-59,-6,113,-2,-3,29
1,-25,-21,11,7,-26,-59,-12,107,-2,-3,35
1,-19,-16,5,7,-20,-59,-12,107,-2,-3,35
1,-14,-16,5,7,-15,-59,-18,101,-2,-3,41
1,-14,-16,5,7,-15,-59,-18,101,-2,-3,41
1,-14,-16,5,7,-15,-53,-12,101,-8,-3,35
-4,-14,-10,5,2,-15,-53,-12,101,-8,-3,35
-10,-14,-4,5,-4,-15,-47,-6,101,-14,-3,29
-16,-14,2,11,-10,-9,-47,-6,101,-14,-3,29
-10,-14,-4,5,-4,-15,-59,-12,95,-20,-9,17
-4,-14,-10,5,2,-15,-65,-18,95,-20,-15,11
1,-14,-16,5,7,-15,-77,-24,89,-26,-21,-1
1,-14,-16,5,7,-15,-83,-30,89,-26,-27,-7
1,-14,-16,5,7,-15,-77,-30,95,-20,-21,-1
1,-14,-16,5,7,-15,-77,-30,95,-20,-21,-1
1,-14,-16,5,7,-15,-71,-30,101,-14,-15,5
1,-14,-16,5,7,-15,-71,-30,101,-14,-15,5
1,-14,-16,5,7,-15,-71,-30,101,-20,-15,5
1,-14,-16,5,7,-15,-71,-30,101,-20,-15,5
-4,-14,-10,5,2,-15,-71,-30,101,-26,-15,5
-4,-14,-10,5,2,-15,-71,-30,101,-26,-15,5
1,-14,-16,5,7,-15,-77,-42,95,-32,-21,-1
1,-14,-16,5,7,-15,-83,-48,89,-38,-27,-1
1,-14,-16,5,7,-15,-89,-60,83,-44,-33,-7
1,-14,-16,5,7,-15,-95,-66,77,-50,-39,-7
1,-14,-16,5,7,-15,-89,-60,83,-44,-33,-1
1,-14,-16,5,7,-15,-83,-54,89,-44,-33,-1
-4,-14,-10,5,2,-15,-77,-48,95,-38,-27,5
-4,-14,-10,5,2,-15,-71,-42,101,-38,-27,5
-4,-14,-10,5,2,-15,-77,-48,95,-38,-27,-1
-4,-14,-10,5,2,-15,-83,-48,95,-38,-27,-1
-4,-14,-10,5,2,-15,-89,-54,89,-38,-27,-7
-4,-14,-10,5,2,-15,-95,-54,89,-38,-27,-7
-4,-14,-16,5,2,-15,-95,-54,89,-32,-27,-1
-4,-14,-16,5,2,-15,-95,-54,89,-32,-27,-1
-4,-19,-16,11,7,-15,-95,-54,89,-26,-27,5
-4,-19,-16,11,7,-15,-95,-54,89,-26,-27,5
-4,-14,-16,5,2,-15,-95,-60,89,-32,-33,-7
-4,-14,-16,5,2,-15,-95,-60,89,-38,-39,-13
-4,-14,-10,5,2,-15,-95,-66,89,-44,-45,-25
-4,-14,-10,5,2,-15,-95,-66,89,-50,-51,-31
-10,-14,2,5,-4,-9,-101,-66,83,-50,-45,-25
-10,-14,2,5,-4,-9,-101,-66,83,-50,-45,-25
-16,-8,14,5,-16,3,-107,-66,77,-50,-39,-19
-16,-8,14,5,-16,3,-107,-66,77,-50,-39,-19
-4,-8,2,5,-4,-3,-113,-66,77,-56,-45,-25
1,-8,-4,5,2,-9,-113,-66,77,-56,-45,-25
1,-8,-16,5,7,-9,-119,-66,77,-62,-51,-31
7,-8,-16,0,7,-15,-119,-66,77,-62,-51,-31
1,-14,-16,5,7,-15,-113,-66,83,-56,-51,-31
1,-14,-16,5,7,-15,-107,-66,83,-56,-51,-31
1,-14,-16,5,7,-15,-101,-66,89,-50,-51,-31
-4,-19,-16,11,7,-15,-95,-66,89,-50,-51,-31
-4,-14,-16,5,2,-15,-101,-72,83,-50,-51,-31
-4,-14,-16,5,2,-15,-101,-72,83,-50,-51,-31
-4,-14,-10,5,2,-15,-107,-78,77,-50,-51,-31
-4,-14,-10,5,2,-15,-107,-78,77,-50,-51,-31
-10,-14,-4,5,-4,-15,-107,-78,77,-50,-57,-37
-10,-14,-4,5,-4,-15,-107,-78,77,-50,-57,-37
-16,-14,2,11,-10,-9,-107,-78,77,-50,-63,-43
-16,-14,2,11,-10,-9,-107,-78,77,-50,-63,-43
-10,-14,2,5,-4,-9,-107,-78,77,-50,-63,-43
-10,-14,2,5,-4,-9,-107,-78,77,-50,-63,-43
-4,-8,2,5,-4,-3,-107,-78,77,-50,-63,-43
-4,-8,2,5,-4,-3,-107,-78,77,-50,-63,-43
-4,-14,-4,5,2,-9,-107,-78,83,-50,-57,-43
-4,-14,-4,5,2,-9,-107,-78,83,-50,-57,-43
-4,-14,-10,5,2,-15,-107,-78,89,-50,-51,-43
-4,-14,-10,5,2,-15,-107,-78,89,-50,-51,-43
-10,-14,2,5,-4,-9,-107,-78,89,-44,-51,-43
-10,-14,2,5,-4,-9,-107,-78,89,-44,-51,-43
-16,-8,14,5,-16,3,-107,-78,89,-38,-51,-43
-16,-8,14,5,-16,3,-107,-78,89,-38,-51,-43
-10,-14,2,5,-4,-9,-107,-78,89,-44,-57,-43
-10,-14,2,5,-4,-9,-107,-78,89,-44,-57,-43
-4,-14,-10,5,2,-15,-107,-78,89,-50,-63,-43
-4,-14,-10,5,2,-15,-107,-78,89,-50,-63,-43
1,-14,-10,5,7,-15,-107,-84,83,-50,-69,-49
1,-14,-10,5,7,-15,-107,-84,83,-50,-69,-49
1,-14,-16,5,7,-15,-107,-90,77,-50,-69,-55
1,-14,-16,5,7,-15,-107,-90,77,-56,-69,-55
-4,-14,-4,5,2,-9,-101,-84,83,-50,-63,-49
-4,-14,-4,5,2,-9,-101,-84,89,-44,-63,-49
1,-14,-10,5,7,-15,-101,-78,89,-38,-69,-49
1,-8,-4,5,2,-9,-101,-72,95,-32,-69,-49
-10,-8,8,5,-10,-3,-101,-78,95,-38,-69,-55
-10,-2,14,5,-10,3,-101,-84,95,-44,-69,-55
-22,-2,26,5,-22,9,-95,-90,95,-50,-75,-61
-10,-8,8,5,-10,-3,-95,-96,95,-56,-75,-67
-10,-8,8,5,-10,-3,-89,-96,95,-56,-75,-73
-10,-2,14,5,-10,3,-89,-96,95,-56,-75,-73
-16,-2,20,5,-16,9,-95,-96,95,-50,-75,-79
-16,-8,14,5,-16,3,-107,-96,95,-50,-75,-73
-10,-14,2,5,-4,-9,-101,-90,95,-50,-75,-73
-4,-14,-10,5,2,-15,-101,-90,95,-50,-75,-73
-4,-19,-16,11,7,-15,-95,-84,95,-44,-75,-67
-16,-25,-16,17,-4,-15,-89,-84,89,-44,-75,-67
-22,-14,2,17,-16,-15,-83,-84,89,-44,-75,-67
-16,-14,2,11,-10,-9,-83,-84,95,-44,-75,-61
-16,-2,20,5,-16,9,-77,-78,101,-50,-75,-67
-16,4,26,5,-22,15,-65,-78,101,-50,-75,-67
-4,22,32,0,-16,27,-53,-78,107,-44,-75,-73
1,28,32,-6,-16,27,-47,-78,113,-32,-69,-73
1,28,20,-12,-4,27,-35,-78,107,-26,-75,-79
7,22,8,-12,7,15,-35,-84,101,-26,-81,-73
1,22,14,-12,2,21,-17,-78,119,-14,-75,-67
1,40,38,-18,-16,39,-5,-66,125,-8,-69,-61
1,46,50,-18,-22,45,6,-54,137,4,-57,-55
-4,52,62,-18,-34,57,6,-36,149,16,-45,-49
-4,64,74,-24,-40,69,18,-36,161,16,-45,-55
-4,70,80,-24,-40,75,18,-36,149,16,-45,-49
-4,76,86,-30,-46,81,24,-36,149,16,-45,-55
-4,64,74,-24,-40,69,24,-36,155,22,-39,-43
1,82,86,-36,-40,81,12,-42,161,28,-39,-49
1,82,80,-36,-34,81,6,-42,167,28,-39,-49
1,70,62,-36,-22,69,6,-42,161,34,-45,-43
7,64,50,-36,-16,57,6,-42,167,34,-45,-43
1,70,62,-36,-22,69,6,-42,167,22,-45,-61
1,64,56,-30,-22,63,1,-48,155,16,-45,-61
1,64,62,-30,-28,63,1,-48,155,16,-51,-67
1,64,68,-24,-34,63,-5,-48,137,10,-57,-73
-4,58,68,-18,-34,63,-5,-66,131,-2,-57,-79
-4,52,62,-18,-34,57,-17,-72,131,-2,-69,-79
-4,58,68,-18,-34,63,-11,-78,119,-8,-69,-73
1,52,56,-18,-28,51,-17,-78,119,-8,-69,-73
1,46,50,-18,-22,45,-17,-78,125,-8,-69,-73
1,40,44,-12,-22,39,-17,-78,125,-2,-69,-73
1,34,26,-18,-4,33,-23,-78,125,-2,-69,-73
1,22,26,-6,-10,21,-23,-78,125,-8,-63,-73
1,10,8,0,2,9,-29,-72,125,-8,-57,-73
1,10,8,0,2,9,-29,-72,125,-8,-57,-73
1,10,2,-6,7,9,-35,-72,125,-8,-57,-73
7,10,-4,-6,7,3,-35,-72,125,-14,-63,-73
7,-2,-16,0,7,-9,-29,-66,119,-8,-69,-79
1,-2,-10,0,7,-3,-29,-66,119,-8,-69,-85
1,-2,-4,5,7,-3,-17,-66,125,-14,-69,-85
1,-2,2,5,2,-3,-17,-72,113,-20,-81,-91
1,-14,-16,5,7,-15,-17,-72,113,-26,-93,-103
1,-14,-16,5,7,-15,-11,-78,113,-32,-93,-109
1,-19,-21,5,7,-20,-11,-78,113,-38,-99,-115
-4,-25,-16,11,7,-20,-11,-78,113,-38,-99,-115
-10,-25,-16,17,2,-20,-5,-78,113,-32,-93,-121
-10,-25,-16,17,2,-20,-5,-78,107,-32,-105,-121
-16,-14,-4,11,-10,-15,1,-78,107,-26,-99,-115
-22,-8,20,5,-22,3,1,-84,107,-20,-93,-115
1,-25,-33,5,13,-26,-11,-96,95,-32,-105,-115
1,-19,-27,5,13,-20,-23,-108,83,-44,-129,-133
-10,-14,-10,11,-4,-15,-17,-96,83,-44,-117,-127
-16,-14,8,5,-10,-3,-5,-78,101,-32,-105,-115
-22,-14,2,17,-16,-15,6,-66,113,-26,-87,-97
-10,-14,2,5,-4,-9,1,-66,113,-20,-81,-97
-10,22,38,0,-22,27,-5,-72,101,-26,-87,-97
-22,-8,20,5,-22,3,6,-66,113,-14,-81,-97
-22,-8,20,5,-22,3,6,-48,125,4,-63,-85
-10,-2,14,5,-10,3,18,-42,143,16,-57,-85
-4,10,20,5,-10,15,24,-42,143,16,-57,-91
1,16,14,-6,-4,15,24,-48,161,16,-51,-85
1,46,44,-18,-16,45,30,-30,173,40,-45,-85
-10,46,62,-12,-34,51,48,-6,191,58,-21,-61
-16,28,50,0,-34,39,54,0,203,64,-21,-67
-46,40,92,5,-70,63,54,0,215,70,-27,-61
-52,76,134,-6,-94,105,66,18,227,75,-15,-49
-40,76,122,-12,-82,99,90,35,257,87,-3,-37
-28,94,128,-24,-76,111,84,35,263,99,-3,-55
-28,118,152,-36,-88,135,84,47,269,93,3,-55
-40,112,158,-30,-100,135,102,65,299,111,3,-49
-64,88,158,-6,-112,123,132,89,311,135,21,-37
-64,94,164,-6,-112,129,138,113,329,153,27,-43
-28,64,98,-12,-64,81,174,155,365,177,39,-49
-28,10,44,5,-34,27,210,221,419,207,57,-55
-40,-8,38,17,-40,15,246,275,455,231,57,-67
-28,-14,8,17,-22,-9,288,347,521,273,62,-79
-10,-25,-16,17,2,-20,324,437,605,339,86,-73
1,-31,-27,11,7,-32,378,563,749,459,152,-25
-22,-55,-27,35,7,-44,480,761,953,639,266,41
-28,-91,-57,59,7,-74,582,971,1175,819,368,89
1,-115,-117,53,55,-116,672,1169,1385,987,464,106
43,-133,-183,35,109,-158,756,1391,1619,1209,614,178
85,-127,-219,11,151,-170,852,1643,1913,1503,836,328
139,-109,-255,-6,193,-182,918,1889,2212,1797,1064,490
169,-97,-267,-30,217,-182,1002,2098,2452,2013,1220,610
157,-103,-261,-18,211,-182,1092,2206,2529,2055,1256,628
121,-127,-255,5,187,-188,1110,2069,2338,1851,1088,538
73,-163,-243,35,157,-200,1068,1715,1901,1413,782,346
7,-175,-189,77,97,-182,966,1193,1343,897,416,112
-70,-175,-99,119,7,-140,780,587,761,405,74,-91
-166,-211,-39,185,-58,-128,606,12,197,-74,-243,-307
-214,-229,-16,221,-100,-122,432,-414,-240,-446,-507,-487
-238,-223,8,227,-124,-104,270,-624,-438,-596,-609,-571
-268,-217,50,245,-166,-80,150,-666,-450,-572,-591,-559
-262,-193,68,227,-172,-56,48,-666,-444,-560,-573,-529
-232,-133,92,179,-166,-15,-23,-666,-468,-548,-531,-475
-214,-67,140,137,-178,27,-107,-636,-420,-488,-465,-409
-184,-49,128,113,-160,33,-131,-552,-348,-410,-405,-361
-112,-55,50,83,-82,-9,-125,-444,-246,-332,-345,-313
-58,-25,26,41,-46,-9,-119,-354,-168,-260,-285,-265
-46,4,56,11,-52,27,-143,-312,-108,-206,-249,-241
-34,4,44,5,-40,21,-125,-270,-72,-176,-219,-223
-28,-19,2,23,-16,-15,-89,-216,-42,-140,-177,-187
-28,-14,14,17,-22,-3,-83,-192,-12,-128,-171,-169
-28,-8,26,11,-28,9,-59,-192,-6,-128,-177,-175
-28,-14,20,11,-22,3,-35,-180,0,-110,-165,-169
-28,-14,8,17,-22,-9,-29,-174,6,-104,-165,-169
-22,-19,-4,17,-10,-15,-23,-168,12,-110,-159,-175
-10,-19,-16,11,2,-15,-35,-168,18,-110,-159,-169
-4,-25,-16,11,7,-20,-35,-156,30,-98,-153,-163
-4,-25,-16,11,7,-20,-35,-150,36,-86,-147,-163
-4,-31,-21,17,7,-26,-35,-138,42,-68,-141,-163
1,-31,-33,11,13,-32,-41,-132,42,-62,-135,-163
1,-31,-27,11,7,-32,-41,-132,42,-62,-135,-157
-4,-25,-16,11,7,-20,-47,-132,42,-62,-135,-157
-16,-49,-27,29,7,-38,-41,-132,48,-62,-129,-145
-16,-55,-33,35,7,-44,-35,-126,54,-50,-123,-139
-28,-55,-21,41,2,-38,-29,-120,54,-50,-123,-145
-28,-49,-16,35,-4,-32,-35,-120,54,-50,-123,-145
-34,-43,-16,35,-10,-26,-35,-114,54,-44,-123,-151
-34,-31,-4,29,-16,-15,-35,-108,54,-44,-117,-145
-16,-19,-10,17,-4,-15,-35,-114,60,-50,-123,-151
-4,-14,-16,5,2,-15,-35,-120,60,-50,-123,-151
1,-19,-21,5,7,-20,-35,-126,54,-50,-129,-157
1,-31,-39,5,19,-32,-35,-126,54,-50,-129,-157
1,-31,-33,11,13,-32,-29,-120,48,-50,-123,-151
1,-25,-27,5,7,-26,-29,-120,54,-50,-123,-145
-4,-25,-16,11,7,-20,-29,-114,54,-50,-111,-139
-4,-31,-21,17,7,-26,-29,-102,60,-44,-111,-133
1,-25,-33,5,13,-26,-29,-108,54,-44,-117,-139
7,-14,-21,5,13,-15,-41,-108,42,-44,-123,-145
13,-14,-21,0,19,-15,-41,-114,36,-62,-129,-151
13,-14,-27,5,19,-15,-35,-114,36,-62,-123,-157
7,-14,-21,5,13,-15,-29,-120,42,-56,-123,-151
1,-14,-16,5,7,-15,-35,-126,30,-50,-123,-151
1,-14,-16,5,7,-15,-29,-126,36,-44,-117,-145
-4,-14,-10,5,2,-15,-35,-120,36,-38,-117,-145
1,-14,-10,5,7,-15,-35,-114,42,-38,-111,-133
1,-14,-10,5,7,-15,-47,-114,36,-38,-111,-133
1,-14,-16,5,7,-15,-53,-120,36,-44,-111,-133
1,-14,-16,5,7,-15,-53,-120,36,-44,-111,-133
1,-8,-16,5,7,-9,-41,-120,42,-38,-105,-139
1,-8,-16,5,7,-9,-41,-126,30,-44,-105,-139
1,-14,-16,5,7,-15,-47,-132,36,-38,-105,-139
1,-19,-27,5,13,-20,-47,-132,36,-38,-105,-133
1,-14,-21,5,7,-15,-53,-138,36,-38,-105,-127
1,-14,-16,5,7,-15,-59,-144,36,-44,-105,-127
1,-14,-16,5,7,-15,-53,-138,36,-50,-105,-121
1,-14,-16,5,7,-15,-53,-144,30,-50,-99,-121
7,-14,-16,5,13,-15,-65,-144,18,-56,-105,-127
13,4,-16,-6,7,-3,-71,-150,6,-56,-111,-127
19,16,-10,-18,7,3,-77,-150,6,-62,-117,-133
19,22,-4,-18,7,9,-77,-150,6,-62,-117,-133
19,34,8,-24,7,21,-83,-162,6,-62,-111,-121
19,28,2,-24,7,15,-101,-168,0,-62,-111,-121
19,22,-4,-18,7,9,-101,-174,6,-62,-99,-109
19,16,-10,-18,7,3,-101,-174,6,-62,-99,-109
13,16,-4,-12,7,9,-95,-180,0,-62,-99,-109
13,22,2,-18,7,15,-107,-180,0,-68,-99,-109
7,22,8,-12,7,15,-113,-180,6,-62,-99,-115
19,22,-4,-18,7,9,-119,-192,0,-62,-99,-109
31,22,-16,-24,19,3,-131,-192,-6,-56,-93,-103
31,28,-10,-30,13,9,-131,-192,-12,-56,-87,-97
31,34,-4,-30,13,15,-131,-186,-18,-68,-87,-103
25,40,8,-30,7,27,-137,-186,-30,-68,-87,-91
25,34,2,-30,7,21,-143,-186,-30,-68,-87,-91
25,52,20,-36,7,39,-149,-192,-30,-68,-81,-91
37,52,8,-42,7,33,-155,-198,-30,-68,-87,-97
37,58,14,-48,7,39,-173,-204,-36,-74,-81,-91
31,70,32,-48,7,51,-167,-204,-42,-74,-75,-85
31,64,26,-48,7,45,-173,-210,-42,-74,-69,-73
37,64,20,-48,7,45,-173,-210,-48,-74,-75,-67
43,64,14,-54,7,39,-173,-216,-60,-74,-81,-55
37,58,14,-48,7,39,-173,-216,-54,-68,-69,-49
31,70,32,-48,7,51,-185,-216,-54,-68,-69,-49
25,76,44,-48,-4,63,-197,-222,-60,-62,-69,-55
43,82,32,-60,7,57,-197,-234,-66,-62,-51,-55
49,94,38,-72,7,69,-197,-228,-60,-62,-51,-49
49,106,50,-78,7,81,-203,-228,-60,-62,-51,-43
55,106,44,-78,7,75,-197,-222,-60,-56,-51,-31
55,118,56,-84,7,87,-197,-228,-66,-56,-45,-25
55,136,74,-96,-4,105,-203,-240,-72,-68,-45,-25
61,142,74,-102,2,111,-203,-240,-72,-68,-45,-25
67,148,74,-108,2,111,-215,-246,-72,-62,-45,-25
67,166,92,-114,-4,129,-215,-246,-72,-62,-33,-31
67,160,86,-114,-4,123,-215,-246,-72,-50,-21,-19
61,160,92,-108,-10,129,-215,-246,-72,-50,-21,-19
61,166,98,-114,-10,135,-209,-252,-72,-62,-27,-13
61,166,98,-114,-10,135,-209,-252,-66,-62,-21,-7
61,178,110,-120,-16,147,-209,-252,-66,-62,-15,-1
61,178,110,-120,-16,147,-215,-258,-78,-62,-15,-1
61,178,110,-120,-16,147,-221,-252,-90,-68,-9,11
55,178,116,-114,-22,147,-215,-258,-96,-68,-9,11
49,184,128,-114,-34,159,-209,-264,-102,-68,-9,5
49,190,134,-120,-34,165,-209,-258,-102,-62,-21,5
43,190,140,-114,-40,165,-203,-264,-102,-62,-9,5
43,184,134,-114,-40,159,-203,-258,-102,-62,-9,5
43,184,134,-114,-40,159,-203,-264,-102,-62,-9,-1
43,184,134,-114,-40,159,-197,-264,-102,-62,-21,-7
43,190,140,-114,-40,165,-185,-270,-102,-62,-21,-1
43,196,146,-120,-46,171,-179,-270,-108,-62,-27,-1
43,190,140,-114,-40,165,-179,-270,-114,-56,-27,-7
43,190,140,-114,-40,165,-173,-270,-108,-56,-21,-13
37,184,140,-108,-46,165,-173,-264,-114,-50,-15,-7
25,178,146,-102,-52,165,-161,-252,-120,-44,-21,5
31,172,134,-102,-46,153,-161,-246,-120,-44,-15,5
37,166,122,-102,-34,147,-149,-252,-120,-44,-21,5
37,172,128,-102,-40,153,-149,-252,-120,-50,-27,-13
43,172,122,-108,-34,147,-149,-246,-108,-50,-33,-19
43,166,116,-102,-28,141,-143,-240,-102,-44,-27,-13
31,148,110,-90,-34,129,-125,-228,-84,-38,-21,-13
31,142,104,-84,-28,123,-107,-222,-72,-32,-21,-13
25,142,110,-84,-34,129,-95,-204,-66,-32,-21,-19
19,142,116,-78,-40,129,-89,-204,-54,-32,-15,-13
13,130,110,-72,-40,123,-83,-198,-42,-14,-15,-13
13,124,104,-66,-40,117,-83,-186,-30,-8,-15,-13
13,112,92,-60,-34,105,-83,-168,-18,-2,-21,-31
13,112,92,-60,-34,105,-77,-156,-12,4,-27,-49
13,112,92,-60,-34,105,-59,-150,-6,4,-27,-49
19,106,80,-60,-22,93,-47,-126,12,4,-33,-49
7,88,74,-48,-28,81,-29,-114,18,10,-33,-49
7,82,68,-42,-22,75,-11,-96,36,28,-33,-43
19,82,56,-48,-10,69,-5,-84,54,40,-27,-37
19,70,44,-42,-4,57,6,-66,71,58,-15,-31
13,64,44,-36,-10,57,12,-42,89,64,-9,-31
7,64,50,-36,-16,57,24,-36,95,70,-9,-37
7,64,50,-36,-16,57,24,-30,101,75,-9,-49
1,64,62,-30,-28,63,30,-18,113,75,-3,-61
1,52,50,-24,-22,51,30,-12,113,81,-3,-61
1,40,38,-18,-16,39,36,0,131,87,-3,-67
1,34,32,-12,-10,33,48,6,131,93,-9,-79
1,22,14,-12,2,21,60,18,143,99,-15,-67
1,22,14,-12,2,21,66,24,149,99,-15,-67
1,16,8,-6,2,15,78,30,155,105,-9,-67
1,10,2,-6,7,9,78,30,155,105,-9,-73
-4,10,20,5,-10,15,84,35,167,111,-3,-73
-4,4,14,5,-10,9,84,35,167,111,-3,-73
1,4,8,5,-4,3,78,35,167,105,-9,-79
1,-2,2,5,2,-3,78,35,167,105,-9,-85
1,-8,-4,5,2,-9,84,41,167,117,-9,-91
1,-8,-4,5,2,-9,84,41,161,117,-9,-97
-10,-8,8,5,-10,-3,84,47,155,117,-21,-91
-10,-8,8,5,-10,-3,84,47,173,117,-21,-91
-10,-8,8,5,-10,-3,84,47,179,111,-21,-85
-10,-8,8,5,-10,-3,90,47,185,111,-21,-91
-4,-14,-4,5,2,-9,96,47,179,111,-21,-91
-4,-14,-4,5,2,-9,96,47,179,111,-21,-91
1,-14,-16,5,7,-15,84,47,173,111,-27,-85
-4,-14,-10,5,2,-15,84,47,173,111,-27,-79
-10,-14,-4,5,-4,-15,90,47,173,117,-27,-79
-10,-14,-4,5,-4,-15,90,53,173,111,-27,-85
-16,-14,2,11,-10,-9,96,53,179,111,-27,-91
-16,-14,2,11,-10,-9,90,47,179,111,-27,-91
-10,-25,-16,17,2,-20,84,41,179,105,-27,-97
-10,-25,-16,17,2,-20,84,41,173,105,-27,-97
-4,-14,-10,5,2,-15,84,35,173,111,-27,-97
-4,-14,-10,5,2,-15,90,35,173,111,-21,-97
1,-14,-10,5,7,-15,90,35,167,99,-27,-103
1,-14,-10,5,7,-15,90,35,161,99,-27,-103
1,-14,-10,5,7,-15,78,41,155,99,-33,-103
1,-14,-10,5,7,-15,60,41,155,99,-33,-97
-4,-8,2,5,-4,-3,60,41,161,99,-33,-97
-10,-2,14,5,-10,3,66,35,161,99,-39,-97
-16,-2,20,5,-16,9,72,41,167,105,-33,-103
-22,4,32,5,-28,15,78,41,167,111,-27,-55
-16,-2,20,5,-16,9,78,47,161,117,-21,-73
-16,-2,20,5,-16,9,84,47,167,117,-21,-85
-4,-2,8,5,-4,3,84,47,161,117,-21,-103
-4,-2,8,5,-4,3,84,47,161,117,-21,-109
-10,-8,8,5,-10,-3,78,53,167,123,-15,-97
-10,-8,8,5,-10,-3,90,53,167,123,-15,-85
-22,-14,14,11,-16,-3,96,59,173,129,-9,-79
-22,-14,14,11,-16,-3,96,59,173,129,-3,-79
-16,-14,8,5,-10,-3,84,53,167,135,-9,-85
-4,-8,2,5,-4,-3,78,53,173,135,-15,-91
1,-2,2,5,2,-3,66,53,173,135,-21,-103
1,10,14,0,-4,9,66,47,173,129,-27,-103
-22,10,38,5,-28,21,90,53,185,129,-3,-85
-22,10,38,5,-28,21,90,65,185,135,-3,-79
-16,16,38,5,-28,27,84,65,185,129,-3,-79
-10,10,26,5,-16,15,78,65,185,135,-3,-79
-10,10,26,5,-16,15,78,65,185,135,-3,-79
-4,4,14,5,-10,9,72,65,185,141,-3,-79
-4,4,14,5,-10,9,72,65,185,141,-3,-79
-4,4,14,5,-10,9,78,65,191,147,-3,-79
1,-2,2,5,2,-3,78,65,191,147,3,-79
1,-2,2,5,2,-3,84,65,197,147,3,-79
-10,-2,14,5,-10,3,84,65,197,147,3,-79
-16,-2,20,5,-16,9,84,65,203,147,3,-79
-4,-2,8,5,-4,3,78,65,197,147,-9,-85
-10,4,20,5,-16,9,78,71,203,147,-9,-85
-22,4,32,5,-28,15,78,71,203,147,-3,-85
-16,10,32,5,-22,21,72,65,197,141,-3,-79
-28,10,44,5,-34,27,78,59,197,141,-3,-79
-10,4,20,5,-16,9,72,53,191,135,-3,-79
-10,4,20,5,-16,9,84,47,191,135,-3,-79
-16,10,32,5,-22,21,84,53,191,141,-3,-79
-22,10,38,5,-28,21,84,53,191,147,-3,-79
-28,4,38,5,-34,21,72,59,191,153,-3,-73
-22,4,32,5,-28,15,72,59,191,147,-3,-73
-16,4,26,5,-22,15,72,59,191,147,-3,-79
-16,-2,20,5,-16,9,72,59,191,147,-3,-79
-28,-2,32,5,-28,15,78,59,185,147,-3,-85
-28,4,38,5,-34,21,78,59,185,153,-3,-85
-16,-2,20,5,-16,9,66,53,185,147,-9,-85
-4,10,20,5,-10,15,66,53,191,147,-9,-85
1,4,8,5,-4,3,66,47,185,141,-15,-91
1,28,26,-12,-10,27,78,47,197,147,-3,-91
1,40,44,-12,-22,39,78,47,203,153,3,-85
1,46,50,-18,-22,45,90,53,197,153,9,-85
-4,46,56,-12,-28,51,84,47,191,147,3,-73
-4,46,56,-12,-28,51,90,41,191,141,-3,-73
-10,70,86,-24,-46,75,96,47,197,147,3,-67
-10,76,92,-24,-52,81,102,47,197,147,3,-67
-16,88,110,-30,-64,99,108,59,209,159,15,-61
-16,94,116,-30,-64,105,120,59,221,159,15,-61
-16,94,116,-30,-64,105,132,65,215,165,15,-55
-16,94,116,-30,-64,105,138,71,215,171,15,-55
-16,76,98,-24,-58,87,150,77,227,183,21,-43
-16,94,116,-30,-64,105,144,77,227,189,21,-55
-16,100,122,-36,-70,111,138,77,227,183,27,-49
-16,94,116,-30,-64,105,132,77,215,183,21,-49
-16,94,116,-30,-64,105,126,77,215,177,27,-43
-16,100,122,-36,-70,111,120,71,209,159,21,-55
-10,100,116,-36,-64,105,108,53,197,159,15,-61
-10,94,110,-36,-58,99,96,47,191,153,3,-67
-10,100,116,-36,-64,105,84,35,173,153,-9,-79
-10,88,104,-30,-58,93,72,35,167,141,-9,-97
-16,76,98,-24,-58,87,60,24,161,135,-27,-97
-10,76,92,-24,-52,81,60,18,143,123,-27,-97
-10,64,80,-18,-46,69,54,12,137,117,-33,-97
-10,58,74,-18,-40,63,54,6,137,111,-33,-97
-16,58,80,-12,-46,69,48,0,131,117,-33,-97
-4,52,62,-18,-34,57,42,0,131,117,-33,-97
-22,46,74,-6,-46,57,36,-6,125,111,-27,-97
-22,28,56,5,-40,39,36,0,125,111,-27,-97
-16,28,50,0,-34,39,36,0,125,105,-27,-103
-10,22,38,0,-22,27,36,0,125,105,-33,-103
1,22,26,-6,-10,21,36,0,125,93,-39,-109
1,10,8,0,2,9,36,0,113,93,-45,-115
1,4,8,5,-4,3,30,0,113,99,-39,-115
-4,4,14,5,-10,9,36,-6,113,87,-39,-115
-10,-2,14,5,-10,3,30,-12,101,87,-45,-115
-16,-14,8,5,-10,-3,30,-12,101,87,-51,-121
-16,-14,2,11,-10,-9,36,-18,95,75,-57,-133
-16,-14,2,11,-10,-9,36,-18,95,75,-57,-133
-28,-14,8,17,-22,-9,36,-18,89,75,-63,-133
-28,-25,-4,23,-16,-15,36,-18,89,75,-63,-145
-28,-37,-16,29,-10,-20,36,-18,77,75,-81,-145
-34,-37,-10,35,-16,-20,36,-18,77,75,-81,-145
-40,-31,2,35,-22,-15,36,-24,71,75,-81,-145
-34,-25,2,29,-22,-15,24,-24,71,75,-81,-145
-46,-19,20,29,-34,-9,24,-12,71,75,-81,-145
-22,-25,-10,23,-10,-15,6,-24,71,75,-81,-145
-16,-14,8,5,-10,-3,6,-30,71,64,-93,-157
-10,-2,14,5,-10,3,1,-30,71,70,-87,-151
-22,-2,26,5,-22,9,6,-18,89,75,-57,-139
-58,-14,50,29,-52,15,18,-12,101,93,-39,-133
-46,-14,32,23,-40,3,24,-6,101,93,-45,-133
-22,-14,8,11,-16,-9,18,0,113,99,-39,-133
-46,-14,26,29,-40,-3,42,18,119,111,-33,-121
-40,22,68,5,-52,45,36,18,119,111,-33,-127
-4,52,62,-18,-34,57,36,12,113,99,-39,-133
-28,34,68,5,-46,51,54,30,137,123,-33,-121
-70,34,110,11,-88,69,72,41,179,153,3,-85
-52,52,110,5,-82,81,78,47,191,171,15,-79
-46,52,104,5,-76,75,78,59,203,177,21,-97
-76,52,134,5,-106,93,102,77,227,189,21,-97
-88,52,146,11,-118,99,114,83,233,195,21,-97
-64,58,128,5,-94,93,120,83,227,195,9,-115
-52,82,140,-6,-94,111,132,95,233,189,3,-127
-76,64,146,5,-112,105,162,125,263,195,15,-121
-100,40,146,23,-124,93,192,161,281,219,21,-121
-112,10,128,41,-118,69,222,197,311,237,15,-127
-112,-31,74,71,-94,15,264,239,329,249,3,-139
-100,-73,20,83,-64,-20,288,275,347,255,-3,-169
-88,-103,-16,95,-34,-56,300,305,359,255,-39,-217
-64,-145,-75,101,7,-110,348,359,389,273,-45,-241
-82,-229,-141,155,19,-188,396,461,455,315,-21,-247
-106,-301,-195,203,37,-254,450,551,527,351,-3,-247
-70,-313,-243,191,79,-278,498,653,599,381,-9,-265
-40,-313,-267,179,109,-290,558,761,707,459,15,-265
-28,-325,-291,179,127,-308,636,923,881,585,74,-235
-16,-331,-309,173,139,-320,756,1157,1139,789,182,-175
-22,-385,-357,203,163,-374,936,1433,1409,999,290,-127
-40,-427,-381,233,163,-404,1104,1703,1673,1191,398,-79
-22,-439,-411,233,187,-428,1224,1925,1913,1377,518,-25
1,-397,-405,191,205,-398,1302,2134,2170,1623,680,77
49,-373,-429,155,241,-398,1332,2374,2482,1923,902,220
73,-385,-465,149,265,-422,1398,2577,2745,2138,1046,322
55,-409,-471,173,259,-440,1422,2619,2769,2150,1046,328
13,-409,-429,191,223,-416,1380,2404,2511,1905,872,232
-46,-385,-333,215,139,-362,1272,1937,1979,1431,566,59
-154,-391,-237,269,31,-314,1110,1301,1295,855,200,-157
-244,-373,-123,305,-58,-254,846,587,617,315,-129,-349
-292,-355,-57,323,-118,-212,522,-18,42,-116,-393,-499
-298,-355,-51,323,-124,-206,282,-420,-378,-428,-573,-601
-310,-319,-16,311,-154,-164,120,-630,-600,-572,-639,-637
-280,-235,44,251,-166,-92,-23,-702,-648,-572,-609,-601
-238,-133,104,185,-178,-15,-143,-684,-594,-506,-519,-523
-196,-55,134,125,-166,33,-173,-582,-480,-392,-423,-427
-142,-14,122,77,-136,45,-155,-456,-378,-296,-345,-361
-82,4,92,29,-88,45,-131,-348,-270,-218,-285,-301
-70,16,92,17,-82,51,-101,-246,-168,-134,-219,-259
-52,16,74,11,-64,45,-77,-198,-90,-56,-171,-211
-40,4,50,11,-46,27,-59,-156,-48,-20,-135,-181
-40,-19,14,29,-28,-9,-35,-132,-30,4,-117,-175
-52,-14,32,29,-46,3,-23,-126,-36,10,-111,-169
-52,-19,26,35,-40,-3,-23,-126,-36,10,-111,-169
-58,-14,38,35,-52,3,-29,-126,-42,-8,-111,-175
-46,-14,32,23,-40,3,-47,-132,-42,-14,-111,-169
-40,-14,20,23,-34,-3,-41,-132,-42,-20,-111,-163
-40,-19,14,29,-28,-9,-41,-132,-36,-14,-111,-163
-40,-25,8,29,-28,-15,-35,-132,-42,-14,-111,-163
-28,-31,-10,29,-10,-15,-41,-132,-42,-14,-111,-163
-22,-14,2,17,-16,-15,-53,-138,-42,-14,-111,-157
-22,-14,14,11,-16,-3,-59,-138,-42,-14,-111,-157
-22,-14,8,11,-16,-9,-65,-144,-36,-14,-105,-145
-16,-14,2,11,-10,-9,-59,-138,-30,-2,-99,-139
-22,-14,2,17,-16,-15,-59,-138,-30,-2,-99,-145
-22,-14,2,17,-16,-15,-65,-138,-30,-2,-99,-145
-22,-14,2,17,-16,-15,-71,-138,-30,4,-99,-151
-22,-14,8,11,-16,-9,-71,-132,-30,4,-93,-145
-22,-8,20,5,-22,3,-65,-126,-24,4,-87,-139
-16,-8,14,5,-16,3,-65,-132,-24,4,-87,-139
-22,-14,14,11,-16,-3,-59,-126,-30,10,-81,-133
-22,-19,-4,17,-10,-15,-59,-126,-30,10,-81,-133
-28,-14,8,17,-22,-9,-59,-120,-24,10,-81,-133
-28,-14,14,17,-22,-3,-59,-126,-18,10,-81,-133
-40,-14,32,17,-34,9,-65,-120,-6,10,-75,-133
-40,-14,26,23,-34,3,-65,-114,0,16,-75,-127
-22,-14,14,11,-16,-3,-71,-120,-6,16,-81,-133
-10,10,26,5,-16,15,-83,-126,-24,10,-87,-133
-4,16,26,0,-16,21,-89,-132,-30,-8,-93,-139
1,16,20,0,-10,15,-83,-138,-36,-14,-87,-145
-4,10,20,5,-10,15,-83,-138,-30,-8,-81,-139
-4,10,20,5,-10,15,-89,-144,-42,-2,-81,-133
-10,4,20,5,-16,9,-89,-138,-36,4,-69,-133
-16,4,26,5,-22,15,-95,-132,-36,10,-69,-127
-16,4,26,5,-22,15,-89,-132,-30,10,-69,-115
-16,-2,20,5,-16,9,-101,-132,-36,10,-69,-115
-10,-8,8,5,-10,-3,-101,-144,-36,4,-75,-115
-10,-14,2,5,-4,-9,-101,-144,-36,4,-75,-115
-4,4,14,5,-10,9,-101,-144,-36,4,-69,-121
-4,16,26,0,-16,21,-101,-150,-48,-2,-69,-121
1,22,26,-6,-10,21,-119,-156,-48,-2,-69,-121
1,16,20,0,-10,15,-119,-156,-48,-2,-69,-109
1,34,26,-18,-4,33,-131,-162,-54,-8,-69,-109
1,46,38,-24,-10,45,-137,-168,-54,-14,-69,-109
7,52,38,-30,-10,45,-137,-162,-60,-26,-69,-109
7,46,32,-24,-4,39,-137,-168,-66,-26,-63,-109
7,40,26,-24,-4,33,-143,-174,-72,-20,-57,-103
7,52,38,-30,-10,45,-149,-180,-84,-20,-63,-103
1,46,38,-24,-10,45,-149,-186,-78,-14,-57,-97
1,46,44,-18,-16,45,-149,-186,-78,-14,-57,-97
1,70,62,-36,-22,69,-161,-204,-90,-26,-63,-97
1,70,62,-36,-22,69,-179,-204,-96,-26,-63,-97
7,76,62,-42,-22,69,-185,-216,-102,-38,-63,-97
7,76,62,-42,-22,69,-185,-216,-102,-38,-63,-97
7,88,74,-48,-28,81,-191,-228,-120,-44,-63,-91
7,100,86,-54,-34,93,-203,-228,-120,-50,-63,-91
7,112,98,-60,-40,105,-221,-234,-126,-50,-63,-91
19,118,92,-66,-28,105,-227,-246,-132,-50,-63,-85
37,118,74,-78,-10,99,-233,-252,-138,-50,-57,-67
37,118,74,-78,-10,99,-233,-258,-144,-50,-51,-61
43,124,74,-84,-10,99,-233,-258,-150,-68,-51,-55
37,124,80,-78,-16,105,-239,-264,-162,-68,-51,-43
31,130,92,-78,-22,111,-251,-270,-168,-68,-39,-37
31,154,116,-90,-34,135,-257,-276,-168,-68,-33,-37
37,166,122,-102,-34,147,-269,-288,-168,-68,-27,-37
37,178,134,-108,-40,159,-287,-294,-174,-74,-21,-31
31,190,152,-108,-52,171,-287,-294,-174,-74,-15,-19
31,190,152,-108,-52,171,-293,-300,-174,-74,-3,-7
37,190,146,-114,-46,171,-299,-294,-174,-74,-9,5
43,196,146,-120,-46,171,-299,-300,-186,-74,-9,17
49,196,140,-120,-40,171,-305,-312,-180,-74,9,23
43,214,164,-126,-52,189,-317,-312,-186,-74,9,23
49,226,170,-138,-52,201,-335,-330,-192,-74,15,17
67,232,164,-150,-40,201,-335,-342,-204,-74,33,17
61,250,188,-156,-58,225,-347,-348,-204,-74,33,23
61,268,206,-168,-64,237,-359,-348,-204,-74,33,29
55,274,218,-168,-76,243,-365,-354,-210,-68,33,41
55,292,230,-174,-82,261,-371,-360,-216,-68,39,47
61,292,224,-180,-76,261,-371,-360,-210,-68,45,59
67,286,218,-180,-70,249,-371,-360,-204,-68,51,65
79,274,194,-180,-52,231,-377,-354,-192,-50,57,77
79,280,200,-180,-52,237,-377,-354,-186,-50,62,77
73,280,206,-180,-58,243,-377,-342,-180,-38,74,89
67,280,212,-174,-64,243,-377,-342,-180,-38,74,89
61,292,224,-180,-76,261,-371,-336,-174,-50,68,95
61,292,224,-180,-76,261,-371,-336,-168,-50,74,101
67,310,236,-192,-82,273,-371,-336,-168,-50,68,95
73,316,236,-198,-76,279,-377,-342,-174,-50,68,89
79,322,236,-204,-76,279,-383,-336,-186,-56,62,89
79,328,242,-204,-76,285,-377,-342,-186,-56,62,83
73,322,242,-198,-82,285,-359,-336,-180,-50,68,83
67,322,248,-198,-88,285,-353,-324,-180,-44,62,83
61,310,242,-186,-88,279,-335,-318,-168,-38,74,89
55,298,236,-180,-88,267,-329,-306,-168,-38,74,89
43,298,248,-174,-100,273,-329,-306,-168,-44,68,71
43,298,248,-174,-100,273,-317,-300,-168,-44,62,59
31,304,266,-168,-112,285,-305,-300,-168,-50,62,53
31,310,272,-174,-118,291,-293,-294,-168,-50,57,47
31,286,248,-162,-106,267,-281,-282,-162,-50,51,35
31,274,236,-156,-100,255,-269,-276,-156,-50,51,17
25,250,224,-138,-94,237,-257,-258,-150,-50,51,17
13,232,218,-126,-94,225,-239,-240,-156,-44,39,17
7,220,206,-114,-94,213,-227,-222,-144,-44,39,11
7,208,194,-108,-88,201,-203,-222,-138,-44,33,5
1,202,200,-96,-94,201,-185,-210,-126,-50,21,-19
1,196,194,-96,-94,195,-173,-204,-108,-50,15,-31
7,184,170,-96,-76,177,-167,-192,-108,-50,9,-37
1,160,152,-78,-70,159,-149,-180,-90,-50,9,-43
13,148,128,-78,-52,141,-131,-168,-84,-50,-3,-55
13,142,122,-78,-46,135,-119,-150,-78,-56,-9,-67
1,142,134,-72,-58,141,-101,-138,-66,-62,-15,-73
1,130,134,-60,-64,129,-89,-132,-48,-44,-15,-73
-4,124,134,-54,-70,129,-77,-114,-36,-44,-27,-85
-10,112,128,-42,-70,117,-71,-96,-18,-38,-33,-103
-16,100,122,-36,-70,111,-65,-84,-6,-26,-27,-115
-16,94,116,-30,-64,105,-47,-78,6,-26,-27,-109
-16,76,98,-24,-58,87,-35,-54,30,-20,-21,-103
-28,52,86,-6,-58,69,-17,-42,42,-14,-21,-97
-22,40,68,0,-46,51,-5,-42,48,-14,-33,-109
-10,40,56,-6,-34,45,-5,-42,54,-8,-33,-109
-4,22,32,0,-16,27,1,-42,66,-8,-33,-121
-10,16,32,5,-22,21,6,-30,71,-8,-33,-127
-16,22,44,5,-28,33,6,-36,71,-2,-39,-127
-22,28,56,5,-40,39,6,-36,71,-2,-39,-133
-34,34,74,5,-52,51,6,-36,77,4,-39,-139
-40,28,74,5,-58,51,6,-36,77,10,-39,-139
-40,22,68,5,-52,45,6,-30,95,4,-33,-145
-34,16,56,5,-46,33,6,-30,101,10,-39,-157
-28,10,44,5,-34,27,6,-24,113,4,-39,-145
-22,10,38,5,-28,21,6,-24,125,4,-39,-145
-16,-2,20,5,-16,9,6,-24,125,-2,-45,-151
-16,-8,14,5,-16,3,6,-24,125,-2,-45,-157
-28,-14,20,11,-22,3,6,-18,131,-8,-51,-163
-28,-14,14,17,-22,-3,6,-18,131,-8,-51,-163
-28,-14,14,17,-22,-3,6,-18,131,-14,-51,-157
-34,-14,14,23,-28,-9,6,-18,131,-8,-51,-163
-40,-19,14,29,-28,-9,12,-18,131,4,-45,-157
-46,-19,20,29,-34,-9,12,-18,125,10,-45,-163
-46,-14,26,29,-40,-3,12,-18,113,4,-57,-163
-46,-14,26,29,-40,-3,6,-18,125,4,-57,-163
-34,-14,20,17,-28,-3,6,-24,125,-8,-57,-163
-34,-14,20,17,-28,-3,6,-24,125,-8,-57,-169
-40,-14,32,17,-34,9,18,-24,125,-2,-57,-163
-40,-14,32,17,-34,9,18,-24,125,-2,-57,-163
-46,-8,44,17,-46,15,12,-24,125,4,-63,-151
-52,-8,50,23,-52,21,12,-24,125,4,-63,-145
-40,-8,38,17,-40,15,12,-30,113,-2,-63,-151
-34,-8,32,11,-34,9,12,-24,113,-8,-63,-163
-22,-8,20,5,-22,3,12,-30,107,-20,-63,-175
-16,-8,14,5,-16,3,6,-36,107,-20,-63,-181
-22,-14,2,17,-16,-15,6,-30,113,-20,-63,-181
-22,-14,2,17,-16,-15,6,-30,107,-20,-63,-175
-28,-8,26,11,-28,9,6,-24,113,-8,-63,-169
-28,-8,26,11,-28,9,6,-24,113,-8,-57,-163
-28,-14,20,11,-22,3,18,-30,113,-14,-57,-163
-28,-14,20,11,-22,3,24,-30,113,-14,-57,-163
-34,-14,14,23,-28,-9,24,-30,113,-8,-57,-157
-34,-14,14,23,-28,-9,12,-30,119,-8,-57,-151
-28,-14,14,17,-22,-3,6,-30,113,-14,-57,-151
-28,-14,20,11,-22,3,6,-36,113,-20,-69,-157
-22,-14,14,11,-16,-3,6,-30,107,-20,-63,-163
-22,-8,20,5,-22,3,6,-30,107,-20,-63,-127
-28,-14,20,11,-22,3,6,-24,107,-14,-57,-139
-28,-14,20,11,-22,3,6,-24,113,-14,-57,-145
-28,-14,20,11,-22,3,6,-24,113,-14,-57,-163
-28,-14,20,11,-22,3,6,-24,113,-14,-57,-163
-28,-14,20,11,-22,3,6,-30,113,-14,-51,-157
-28,-14,20,11,-22,3,6,-30,113,-14,-51,-145
-34,-14,26,17,-28,3,6,-36,113,-14,-45,-145
-34,-14,26,17,-28,3,6,-36,113,-14,-39,-145
-34,-14,26,17,-28,3,6,-36,107,-8,-45,-139
-28,-8,26,11,-28,9,6,-30,113,-8,-45,-145
-28,-2,32,5,-28,15,6,-24,113,-8,-51,-145
-34,10,50,5,-40,27,6,-24,113,-14,-51,-145
-34,10,50,5,-40,27,6,-24,113,-14,-51,-145
-34,22,62,5,-46,39,6,-24,113,-8,-51,-139
-34,22,62,5,-46,39,6,-36,119,-8,-45,-139
-34,22,62,5,-46,39,6,-36,119,-8,-45,-139
-34,22,62,5,-46,39,6,-30,113,-14,-51,-145
-34,22,62,5,-46,39,6,-30,113,-14,-51,-145
-34,22,62,5,-46,39,1,-24,113,-20,-51,-151
-40,22,68,5,-52,45,-11,-24,113,-14,-45,-151
-34,28,68,5,-52,45,-11,-24,101,-8,-39,-145
-22,22,50,5,-34,33,-11,-24,95,-8,-45,-139
-16,10,32,5,-22,21,-5,-24,83,-2,-39,-133
-22,4,32,5,-28,15,1,-30,77,-2,-33,-133
-28,10,44,5,-34,27,1,-30,71,-2,-33,-139
-28,-2,32,5,-28,15,-11,-24,54,-2,-39,-139
-40,4,50,11,-46,27,-11,-24,36,4,-39,-133
-40,10,56,5,-46,33,-11,-24,24,10,-33,-133
-22,10,38,5,-28,21,1,0,6,10,-27,-121
-10,22,38,0,-22,27,-11,-12,-6,10,-27,-133
-22,28,56,5,-40,39,-5,-24,-6,-2,-33,-133
-22,16,44,5,-34,27,-5,-24,-6,4,-45,-133
-16,4,26,5,-22,15,-11,-18,6,10,-39,-127
-22,4,32,5,-28,15,-11,-18,6,10,-33,-127
-22,4,32,5,-28,15,-11,-18,6,10,-33,-127
-28,4,38,5,-34,21,-11,-18,6,10,-27,-127
-28,4,38,5,-34,21,-11,-18,6,10,-27,-127
-34,10,50,5,-40,27,-11,-12,6,10,-33,-127
-28,4,38,5,-34,21,-11,-12,6,10,-27,-127
-34,10,50,5,-40,27,-11,-6,6,4,-33,-127
-46,10,62,11,-52,33,-11,-6,6,4,-33,-127
-40,16,62,5,-52,39,-17,-18,0,-2,-33,-127
-22,16,44,5,-34,27,-23,-18,-6,-2,-45,-133
-16,28,50,0,-34,39,-29,-24,-12,-8,-45,-133
-22,28,56,5,-40,39,-29,-24,-12,-8,-39,-133
-28,22,56,5,-40,39,-23,-18,-18,-2,-39,-127
-40,10,56,5,-46,33,-17,-18,-18,-2,-39,-127
-34,-8,32,11,-34,9,-11,-12,-24,4,-39,-127
-34,-14,20,17,-28,-3,1,-12,-24,4,-39,-127
-40,-8,38,17,-40,15,1,-12,-36,-2,-39,-127
-46,-8,44,17,-46,15,1,-12,-42,4,-39,-127
-52,-8,50,23,-52,21,-11,-12,-54,-2,-39,-121
-46,-8,44,17,-46,15,-11,-12,-60,-8,-39,-121
-28,-2,32,5,-28,15,-17,-18,-72,-14,-45,-127
-22,-8,20,5,-22,3,-23,-18,-78,-14,-45,-127
-22,-2,26,5,-22,9,-23,-24,-96,-20,-51,-133
-16,4,26,5,-22,15,-29,-24,-102,-14,-51,-133
-16,10,32,5,-22,21,-29,-18,-96,-2,-39,-121
-16,22,44,5,-28,33,-23,-6,-90,4,-33,-115
-22,28,56,5,-40,39,-11,0,-90,16,-21,-109
-28,52,86,-6,-58,69,6,12,-78,28,-3,-103
-28,70,104,-12,-64,87,6,18,-72,34,3,-97
-28,76,110,-18,-70,93,12,24,-72,40,9,-97
-28,82,116,-18,-70,99,12,24,-78,34,3,-85
-28,82,116,-18,-70,99,18,18,-72,34,-3,-85
-28,100,134,-30,-82,117,24,24,-72,40,3,-79
-28,106,140,-30,-82,123,30,24,-72,40,3,-79
-28,112,146,-36,-88,129,36,35,-66,52,15,-73
-28,118,152,-36,-88,135,48,35,-54,52,15,-73
-28,124,158,-42,-94,141,42,35,-66,52,15,-67
-28,124,158,-42,-94,141,36,35,-66,52,15,-67
-28,112,146,-36,-88,129,30,35,-60,58,21,-55
-28,130,164,-42,-94,147,12,30,-60,58,21,-67
-28,130,164,-42,-94,147,6,24,-66,52,15,-67
-28,118,152,-36,-88,135,6,18,-78,52,9,-67
-28,112,146,-36,-88,129,-5,12,-84,46,3,-67
-28,112,146,-36,-88,129,-11,0,-90,28,-3,-79
-22,100,128,-30,-76,111,-17,-12,-108,16,-9,-85
-22,88,116,-24,-70,99,-23,-18,-120,10,-21,-85
-22,82,110,-24,-64,93,-29,-24,-144,-2,-33,-97
-22,64,92,-12,-58,75,-35,-36,-156,-14,-33,-109
-28,64,98,-12,-64,81,-47,-36,-150,-8,-39,-103
-28,64,98,-12,-64,81,-47,-36,-162,-14,-39,-103
-28,64,98,-12,-64,81,-53,-30,-156,-8,-33,-97
-34,58,98,-6,-64,75,-53,-30,-150,-8,-33,-97
-34,46,86,0,-58,63,-47,-24,-150,4,-33,-97
-22,40,68,0,-46,51,-53,-24,-150,4,-33,-97
-34,22,62,5,-46,39,-47,-18,-150,4,-27,-97
-34,4,44,5,-40,21,-47,-12,-150,4,-27,-97
-28,-2,32,5,-28,15,-47,-18,-150,-2,-21,-97
-22,-8,20,5,-22,3,-47,-18,-150,-2,-27,-97
-10,-14,2,5,-4,-9,-47,-24,-150,-14,-27,-97
-4,-14,-16,5,2,-15,-47,-24,-162,-14,-33,-103
-16,-14,2,11,-10,-9,-53,-24,-168,-20,-39,-109
-28,-14,20,11,-22,3,-47,-30,-168,-32,-39,-109
-40,-8,38,17,-40,15,-53,-36,-180,-44,-57,-115
-52,-14,44,23,-46,15,-53,-36,-180,-44,-63,-121
-46,-14,32,23,-40,3,-41,-36,-174,-50,-63,-121
-40,-14,26,23,-34,3,-41,-36,-174,-50,-63,-121
-46,-14,26,29,-40,-3,-35,-30,-168,-50,-63,-115
-40,-25,8,29,-28,-15,-35,-30,-168,-50,-63,-127
-40,-37,-4,35,-22,-15,-35,-36,-180,-56,-75,-127
-40,-37,-4,35,-22,-15,-35,-36,-180,-56,-75,-127
-46,-31,8,35,-28,-15,-35,-48,-186,-56,-69,-127
-34,-25,2,29,-22,-15,-47,-48,-186,-56,-69,-127
-58,-14,44,29,-52,9,-47,-36,-174,-44,-69,-127
-58,-14,38,35,-52,3,-41,-24,-174,-44,-69,-127
-52,-14,44,23,-46,15,-41,-18,-162,-32,-57,-115
-34,-2,38,11,-34,15,-35,-30,-168,-38,-51,-109
-34,10,50,5,-40,27,-47,-42,-168,-44,-45,-109
-34,22,62,5,-46,39,-41,-36,-162,-38,-51,-109
-46,40,92,5,-70,63,-23,-18,-150,-14,-33,-85
-46,40,92,5,-70,63,-17,0,-138,4,-15,-73
-46,34,86,5,-64,57,-5,6,-108,16,-9,-73
-64,34,104,5,-82,69,1,18,-96,28,3,-67
-64,64,134,5,-100,99,1,24,-90,40,9,-73
-40,94,140,-18,-88,117,-5,18,-90,40,3,-73
-46,94,146,-18,-94,117,1,30,-72,46,3,-73
-52,76,134,-6,-94,105,6,35,-60,52,15,-55
-70,76,152,5,-112,111,18,47,-48,58,21,-61
-64,88,158,-6,-112,123,30,65,-36,70,21,-61
-52,76,134,-6,-94,105,54,83,-18,87,33,-61
-52,58,116,5,-82,87,72,107,-12,87,33,-67
-88,46,140,11,-112,93,108,143,18,105,27,-79
-100,40,146,23,-124,93,138,185,48,123,39,-73
-76,4,86,29,-82,45,156,197,66,111,9,-109
-76,-25,44,47,-64,3,174,233,71,105,-9,-145
-124,-79,38,101,-82,-15,234,293,119,141,-9,-163
-148,-145,-4,143,-76,-68,288,359,185,171,9,-157
-112,-187,-69,149,-16,-128,312,413,209,183,-3,-193
-76,-217,-135,143,19,-176,324,479,227,189,-21,-229
-94,-259,-165,179,25,-218,384,587,311,237,-9,-235
-82,-301,-219,191,61,-260,462,743,443,315,45,-199
-58,-313,-255,185,91,-284,534,911,611,453,98,-169
-52,-313,-255,185,97,-284,642,1121,833,609,182,-133
-52,-337,-279,197,109,-308,798,1379,1091,807,278,-97
-64,-379,-309,221,115,-344,990,1649,1373,1011,368,-61
-46,-409,-357,227,151,-386,1134,1901,1643,1209,476,-7
-4,-379,-369,191,175,-374,1224,2146,1931,1461,644,89
13,-319,-339,149,175,-326,1272,2404,2266,1767,878,238
37,-289,-333,119,187,-308,1314,2601,2517,2001,1052,370
37,-313,-357,131,199,-332,1332,2643,2547,2007,1052,382
25,-349,-381,155,205,-362,1266,2428,2296,1785,908,298
-28,-349,-315,191,139,-332,1152,1967,1769,1341,626,124
-130,-325,-195,227,25,-260,960,1301,1073,783,266,-79
-226,-301,-75,257,-70,-194,702,551,371,213,-81,-283
-292,-343,-45,317,-124,-200,408,-84,-216,-236,-357,-451
-316,-361,-39,335,-136,-206,192,-504,-672,-584,-561,-571
-316,-319,-10,317,-160,-164,30,-732,-906,-746,-639,-607
-298,-217,80,251,-196,-62,-119,-804,-948,-734,-597,-565
-274,-121,152,197,-220,9,-233,-744,-870,-644,-507,-475
-238,-67,164,149,-202,39,-245,-588,-726,-524,-399,-367
-196,-25,164,107,-184,63,-203,-438,-594,-404,-285,-265
-136,16,158,53,-148,87,-197,-324,-480,-296,-225,-217
-82,22,110,23,-94,63,-179,-234,-378,-212,-171,-169
-58,16,80,11,-70,45,-143,-186,-294,-152,-123,-133
-46,40,92,5,-70,63,-113,-156,-258,-122,-105,-133
-40,52,98,0,-70,75,-101,-150,-252,-116,-111,-133
-40,28,74,5,-58,51,-95,-144,-246,-104,-99,-127
-52,16,74,11,-64,45,-83,-132,-252,-104,-81,-121
-58,10,74,17,-64,39,-77,-126,-258,-98,-75,-109
-58,4,68,17,-64,33,-77,-126,-258,-98,-75,-109
-58,-2,62,23,-58,27,-89,-126,-264,-116,-75,-109
-46,4,56,11,-52,27,-107,-132,-264,-122,-75,-103
-40,-2,44,11,-40,21,-107,-132,-258,-122,-75,-91
-40,-2,44,11,-40,21,-107,-132,-252,-116,-75,-91
-40,-8,38,17,-40,15,-107,-132,-252,-110,-75,-85
-28,-8,26,11,-28,9,-113,-132,-252,-110,-75,-85
-28,4,38,5,-34,21,-125,-132,-252,-110,-69,-85
-34,16,56,5,-46,33,-131,-132,-252,-110,-69,-85
-40,4,50,11,-46,27,-137,-132,-246,-110,-57,-79
-40,4,50,11,-46,27,-131,-126,-240,-98,-51,-73
-46,4,56,11,-52,27,-131,-126,-240,-98,-51,-73
-46,4,56,11,-52,27,-137,-126,-240,-98,-51,-73
-46,10,62,11,-52,33,-143,-126,-240,-92,-51,-73
-46,16,68,5,-58,39,-143,-120,-240,-92,-45,-67
-34,40,80,5,-58,57,-149,-126,-240,-104,-51,-73
-28,46,80,0,-52,63,-155,-132,-240,-104,-51,-73
-22,52,80,-6,-52,63,-161,-138,-252,-110,-57,-79
-22,40,68,0,-46,51,-167,-138,-252,-110,-57,-79
-22,34,62,0,-40,45,-161,-132,-252,-110,-57,-73
-22,40,68,0,-46,51,-161,-138,-246,-110,-57,-67
-28,34,68,5,-46,51,-161,-132,-240,-110,-51,-61
-28,28,62,5,-46,45,-161,-126,-234,-104,-51,-55
-22,28,56,5,-40,39,-161,-126,-234,-92,-51,-61
-16,46,68,-6,-40,57,-173,-126,-246,-92,-57,-61
-22,46,74,-6,-46,57,-173,-126,-246,-98,-57,-67
-22,40,68,0,-46,51,-167,-126,-246,-98,-51,-67
-22,46,74,-6,-46,57,-167,-132,-246,-98,-45,-55
-22,52,80,-6,-52,63,-173,-138,-258,-98,-45,-49
-22,58,86,-12,-52,69,-173,-138,-258,-98,-33,-37
-28,64,98,-12,-64,81,-179,-132,-258,-98,-33,-31
-28,64,98,-12,-64,81,-173,-132,-252,-98,-39,-25
-28,64,98,-12,-64,81,-185,-132,-258,-98,-39,-31
-22,58,86,-12,-52,69,-185,-144,-258,-104,-51,-37
-22,58,86,-12,-52,69,-185,-144,-258,-104,-51,-43
-16,70,92,-18,-52,81,-179,-150,-258,-110,-51,-43
-16,76,98,-24,-58,87,-179,-156,-270,-116,-51,-43
-10,76,92,-24,-52,81,-191,-168,-270,-122,-57,-37
-10,64,80,-18,-46,69,-191,-168,-270,-122,-57,-25
-10,76,92,-24,-52,81,-203,-180,-276,-122,-57,-31
-10,88,104,-30,-58,93,-209,-186,-276,-128,-57,-31
-16,88,110,-30,-64,99,-209,-186,-282,-134,-57,-37
-16,82,104,-24,-58,93,-209,-192,-288,-134,-51,-37
1,82,86,-36,-40,81,-221,-192,-294,-134,-45,-31
1,94,86,-48,-34,93,-227,-198,-306,-134,-51,-25
13,94,74,-54,-22,87,-233,-198,-300,-134,-45,-19
19,94,68,-54,-16,81,-233,-198,-300,-134,-45,-13
7,118,104,-60,-40,111,-233,-204,-300,-134,-39,-1
1,118,110,-60,-46,117,-245,-204,-306,-134,-39,5
1,124,128,-54,-64,123,-245,-204,-300,-134,-27,17
-4,124,134,-54,-70,129,-239,-204,-300,-134,-27,23
-4,130,140,-54,-70,135,-239,-216,-318,-140,-21,35
-4,142,152,-60,-76,147,-251,-216,-318,-146,-21,35
-4,148,158,-66,-82,153,-263,-222,-324,-146,-15,41
1,154,152,-72,-70,153,-269,-234,-330,-146,-15,47
13,154,134,-84,-52,147,-281,-240,-330,-140,-15,53
13,160,140,-84,-58,153,-281,-246,-336,-140,-9,53
19,166,140,-90,-52,153,-281,-246,-336,-152,-15,47
13,172,152,-90,-64,165,-287,-252,-348,-152,-15,53
7,178,164,-90,-70,171,-293,-258,-354,-152,-15,59
7,196,182,-102,-82,189,-299,-264,-354,-152,-9,59
13,208,188,-108,-82,201,-305,-276,-360,-152,-15,59
13,214,194,-114,-82,207,-323,-282,-366,-158,-9,65
1,226,224,-114,-106,225,-323,-282,-360,-158,3,71
1,226,224,-114,-106,225,-329,-288,-360,-158,15,83
1,232,224,-120,-106,231,-335,-282,-354,-158,15,89
7,238,224,-126,-106,231,-335,-288,-366,-158,15,101
13,238,224,-126,-100,231,-347,-294,-366,-158,27,106
7,256,242,-132,-112,249,-359,-294,-372,-158,27,106
13,268,248,-144,-112,261,-383,-306,-384,-158,27,106
31,280,242,-156,-100,261,-383,-318,-396,-158,45,106
31,286,248,-162,-106,267,-383,-312,-390,-152,45,112
31,292,254,-162,-106,273,-389,-312,-384,-152,45,118
31,286,248,-162,-106,267,-383,-306,-384,-140,45,136
31,292,254,-162,-106,273,-383,-312,-384,-140,51,142
25,310,278,-168,-124,297,-383,-312,-384,-140,57,148
31,310,272,-174,-118,291,-383,-312,-384,-140,62,154
31,316,278,-174,-118,297,-389,-306,-378,-122,62,160
31,328,290,-180,-124,309,-389,-306,-378,-122,74,160
37,328,284,-186,-118,309,-383,-300,-372,-110,86,160
37,328,284,-186,-118,309,-377,-300,-372,-110,80,160
43,340,290,-192,-118,315,-365,-300,-366,-122,74,154
49,340,284,-198,-112,315,-359,-300,-360,-122,74,160
43,340,290,-192,-118,315,-347,-288,-342,-110,80,160
43,334,284,-192,-118,309,-347,-282,-336,-110,86,160
37,322,278,-180,-118,303,-341,-264,-330,-104,92,166
31,316,278,-174,-118,297,-329,-258,-318,-104,98,166
31,322,284,-180,-124,303,-317,-264,-318,-98,92,160
31,322,284,-180,-124,303,-311,-252,-318,-92,80,154
31,322,284,-180,-124,303,-299,-258,-312,-86,86,154
31,310,272,-174,-118,291,-293,-246,-312,-86,86,148
19,310,284,-168,-130,297,-287,-234,-306,-92,80,130
19,310,284,-168,-130,297,-275,-228,-300,-92,68,124
7,316,302,-162,-142,309,-257,-216,-294,-98,62,118
7,322,308,-168,-148,315,-245,-210,-294,-98,62,118
13,304,284,-162,-130,297,-233,-204,-288,-98,62,106
13,298,278,-156,-130,291,-227,-198,-276,-98,62,101
13,280,260,-150,-118,273,-215,-180,-270,-98,62,101
1,268,260,-138,-124,267,-197,-162,-270,-92,62,101
1,250,248,-126,-124,249,-185,-150,-264,-86,62,106
1,238,236,-120,-118,237,-167,-150,-258,-86,62,106
-4,232,242,-108,-124,237,-155,-144,-252,-86,57,95
-4,226,236,-108,-124,231,-149,-132,-234,-86,51,89
1,226,224,-108,-112,225,-143,-120,-228,-80,51,83
-10,202,218,-90,-112,207,-125,-108,-210,-74,51,83
-4,196,206,-90,-106,201,-107,-96,-198,-68,45,71
-10,190,206,-84,-106,195,-95,-78,-192,-68,39,65
-22,184,212,-72,-118,195,-77,-66,-180,-68,39,59
-28,172,206,-66,-118,189,-65,-60,-168,-50,39,53
-34,160,200,-54,-118,177,-53,-42,-156,-44,33,41
-34,148,188,-48,-112,165,-47,-24,-138,-38,27,17
-46,148,200,-42,-124,171,-53,-24,-132,-38,27,-1
-46,148,200,-42,-124,171,-35,-24,-126,-38,27,5
-52,142,200,-36,-124,171,-35,-12,-108,-44,27,5
-64,124,194,-24,-130,159,-17,-6,-102,-38,27,11
-58,112,176,-18,-118,141,-11,0,-96,-32,21,5
-46,112,164,-24,-106,135,-17,6,-90,-26,21,11
-40,94,140,-18,-88,117,-17,12,-78,-20,27,5
-46,88,140,-12,-94,111,-11,30,-66,-20,27,5
-46,94,146,-18,-94,117,-5,30,-66,-20,15,5
-46,100,152,-18,-100,123,-5,30,-60,-20,15,-7
-52,106,164,-18,-106,135,-5,35,-54,-20,9,-13
-52,100,158,-18,-106,129,-5,35,-54,-14,9,-13
-52,88,146,-12,-100,117,-11,35,-42,-8,15,-19
-52,76,134,-6,-94,105,-5,35,-42,-2,9,-31
-46,64,116,0,-82,87,-5,47,-36,4,9,-19
-46,58,110,0,-76,81,-5,47,-30,4,9,-19
-46,46,98,5,-70,69,1,41,-30,4,9,-19
-46,40,92,5,-70,63,1,41,-30,4,9,-25
-64,34,104,5,-82,69,1,41,-24,4,9,-25
-64,28,98,11,-82,63,1,41,-24,4,9,-25
-58,40,104,5,-82,69,-11,41,-24,-8,9,-19
-58,40,104,5,-82,69,-11,41,-24,-8,9,-19
-58,46,110,5,-82,75,-11,41,-24,-2,15,-13
-58,52,116,5,-88,81,-11,41,-30,-2,15,-13
-58,46,110,5,-82,75,-17,35,-42,-8,3,-19
-52,46,104,5,-76,75,-23,35,-30,-8,3,-19
-40,40,86,5,-64,63,-29,35,-30,-20,3,-25
-34,40,80,5,-58,57,-29,35,-30,-20,3,-31
-40,40,86,5,-64,63,-17,35,-24,-14,9,-25
-40,40,86,5,-64,63,-17,35,-24,-8,9,-25
-46,40,92,5,-70,63,-23,35,-18,-2,9,-13
-52,40,98,5,-76,69,-23,35,-18,4,9,-7
-58,46,110,5,-82,75,-23,35,-30,-2,3,-13
-58,46,110,5,-82,75,-23,35,-30,-8,3,-19
-64,52,122,5,-94,87,-23,35,-36,-20,-3,-31
-64,52,122,5,-94,87,-29,35,-36,-20,-3,-31
-58,28,92,5,-76,57,-35,35,-42,-20,-3,-31
-52,28,86,5,-70,57,-35,35,-54,-20,-3,-31
-46,40,92,5,-70,63,-35,35,-60,-8,-3,-25
-40,40,86,5,-64,63,-29,35,-66,-8,3,-25
-40,34,80,5,-58,57,-17,35,-60,-8,9,-19
-40,28,74,5,-58,51,-11,35,-60,-8,15,-13
-46,16,68,5,-58,39,-11,41,-54,4,21,-1
-46,10,62,11,-52,33,-23,41,-48,4,27,11
-52,22,80,5,-64,51,-29,35,-48,-2,15,5
-58,34,98,5,-76,63,-29,35,-48,-8,3,-1
-64,40,110,5,-88,75,-29,30,-48,-8,-3,-13
-70,52,128,5,-100,87,-29,30,-48,-8,-3,29
-64,52,122,5,-94,87,-29,35,-54,-8,9,11
-64,52,122,5,-94,87,-23,35,-54,-8,9,5
-52,58,116,5,-82,87,-23,35,-60,-14,15,-13
-52,58,116,5,-82,87,-23,35,-66,-14,15,-13
-52,52,110,5,-82,81,-29,30,-60,-14,9,-7
-52,46,104,5,-76,75,-23,30,-60,-14,9,-1
-58,40,104,5,-82,69,-17,24,-54,-14,3,-1
-58,34,98,5,-76,63,-23,24,-54,-14,9,-7
-52,34,92,5,-70,63,-23,24,-54,-2,15,5
-40,40,86,5,-64,63,-29,30,-48,-2,21,11
-34,46,86,0,-58,63,-29,35,-42,4,27,17
-34,58,98,-6,-64,75,-29,35,-42,-2,33,29
-40,52,98,0,-70,75,-17,35,-36,4,33,29
-40,64,110,-6,-76,87,-5,35,-36,10,33,35
-46,58,110,0,-76,81,6,35,-24,16,39,35
-46,58,110,0,-76,81,6,35,-24,16,39,35
-46,64,116,0,-82,87,30,35,-30,10,33,23
-46,64,116,0,-82,87,36,35,-36,10,27,17
-46,70,122,-6,-82,93,36,35,-36,4,27,5
-52,70,128,0,-88,99,36,35,-42,10,27,-1
-46,76,128,-6,-88,99,36,35,-36,10,27,-1
-34,70,110,-12,-70,87,42,35,-36,10,21,5
-28,58,92,-6,-58,75,48,35,-30,10,21,5
-34,52,92,0,-64,69,60,35,-30,10,27,5
-34,46,86,0,-58,63,60,35,-24,16,39,11
-34,34,74,5,-52,51,48,41,-18,22,39,17
-40,28,74,5,-58,51,48,47,-12,34,51,35
-40,34,80,5,-58,57,48,47,0,46,62,41
-40,46,92,5,-64,69,48,41,0,40,62,29
-46,58,110,0,-76,81,48,41,-6,40,57,23
-52,64,122,0,-88,93,42,35,-12,34,45,17
-58,76,140,0,-100,105,42,35,-18,28,39,11
-52,76,134,-6,-94,105,42,35,-18,22,39,11
-46,70,122,-6,-82,93,48,41,-18,28,39,11
-34,58,98,-6,-64,75,42,41,-18,22,39,11
-28,46,80,0,-52,63,42,35,-12,22,45,11
-40,58,104,0,-70,81,42,35,0,28,45,17
-46,64,116,0,-82,87,36,47,18,52,62,29
-46,58,110,0,-76,81,30,59,18,64,62,41
-46,58,110,0,-76,81,30,59,12,52,62,53
-28,52,86,-6,-58,69,36,53,6,58,68,41
-34,58,98,-6,-64,75,36,47,0,52,62,35
-34,58,98,-6,-64,75,36,47,0,46,62,29
-40,64,110,-6,-76,87,36,41,-6,40,62,23
-40,64,110,-6,-76,87,36,41,-6,34,57,17
-40,58,104,0,-70,81,42,41,0,34,51,23
-34,52,92,0,-64,69,42,41,0,34,57,23
-34,46,86,0,-58,63,48,41,6,28,51,29
-46,46,98,5,-70,69,48,41,6,28,51,29
-52,52,110,5,-82,81,48,35,0,22,51,23
-40,52,98,0,-70,75,42,35,-6,22,39,17
-46,64,116,0,-82,87,42,35,-12,16,39,11
-58,64,128,5,-94,93,42,35,-12,16,45,11
-52,64,122,0,-88,93,42,35,-6,22,51,29
-64,58,128,5,-94,93,48,35,-6,28,51,35
-46,46,98,5,-70,69,48,35,0,34,57,47
-46,40,92,5,-70,63,60,35,0,40,57,53
-46,52,104,5,-76,75,60,35,-6,34,51,47
-52,52,110,5,-82,81,60,35,-6,34,51,41
-52,52,110,5,-82,81,48,35,-12,28,45,41
-46,52,104,5,-76,75,48,35,-12,16,45,35
-46,52,104,5,-76,75,48,35,-6,22,45,35
-46,46,98,5,-70,69,48,35,-6,22,45,41
-64,46,116,5,-88,81,54,35,-6,28,45,41
-64,52,122,5,-94,87,54,35,-6,34,45,47
-52,58,116,5,-82,87,54,35,6,34,45,53
-46,76,128,-6,-88,99,54,41,12,34,45,53
-40,82,128,-12,-82,105,66,41,18,34,45,53
-40,112,158,-30,-100,135,78,47,30,40,57,53
-46,118,170,-30,-106,141,90,59,36,58,62,65
-46,124,176,-30,-112,147,102,65,36,64,68,71
-52,118,176,-24,-112,147,108,71,30,70,74,89
-52,118,176,-24,-112,147,114,65,36,70,68,95
-46,142,194,-42,-118,165,114,65,36,70,68,89
-40,148,194,-48,-118,171,114,65,36,70,68,89
-34,160,200,-54,-118,177,114,71,42,75,74,83
-28,166,200,-60,-112,183,120,71,54,75,74,83
-34,166,206,-60,-118,183,114,65,42,75,74,89
-34,160,200,-54,-118,177,108,65,42,75,74,89
-40,142,188,-42,-112,165,102,59,48,75,80,101
-40,154,200,-48,-118,177,84,53,48,75,80,89
-46,148,200,-42,-124,171,78,59,48,75,80,95
-46,130,182,-36,-112,153,72,59,36,75,74,101
-52,118,176,-24,-112,147,66,65,36,70,74,106
-52,112,170,-24,-112,141,60,59,30,52,68,101
-52,112,170,-24,-112,141,60,41,18,52,68,95
-52,106,164,-18,-106,135,54,35,12,46,62,95
-58,112,176,-18,-118,141,54,35,-6,46,62,83
-58,100,164,-12,-112,129,48,24,-12,34,62,71
-52,94,152,-12,-100,123,42,24,-12,34,51,77
-46,94,146,-18,-94,117,42,24,-24,28,51,77
-34,88,128,-18,-82,105,42,30,-24,28,51,83
-34,82,122,-18,-76,99,42,30,-18,28,51,83
-34,70,110,-12,-70,87,36,30,-24,34,45,77
-22,64,92,-12,-58,75,30,30,-24,34,45,77
-34,46,86,0,-58,63,24,30,-30,28,45,71
-34,28,68,5,-52,45,24,35,-30,28,45,71
-40,34,80,5,-58,57,30,30,-24,28,45,77
-40,34,80,5,-58,57,30,24,-24,28,39,77
-40,40,86,5,-64,63,36,18,-18,22,33,83
-40,34,80,5,-58,57,36,12,-30,22,27,77
-46,28,80,5,-64,51,30,18,-30,22,27,71
-52,28,86,5,-70,57,36,12,-30,10,27,71
-58,22,86,11,-70,51,30,12,-42,4,15,65
-64,10,80,17,-70,45,30,12,-42,4,9,59
-64,10,80,17,-70,45,36,12,-42,-2,9,53
-64,10,80,17,-70,45,36,12,-42,-2,9,53
-76,10,92,23,-82,51,36,18,-42,-2,9,53
-76,-2,80,29,-76,39,36,18,-42,-2,9,41
-64,4,74,23,-70,39,30,12,-48,-8,-3,35
-64,10,80,17,-70,45,30,12,-48,-8,-3,35
-58,34,98,5,-76,63,24,0,-48,-8,3,29
-46,46,98,5,-70,69,12,0,-48,-8,3,29
-58,64,128,5,-94,93,24,0,-48,4,27,65
-46,70,122,-6,-82,93,18,12,-36,4,39,89
-52,58,116,5,-82,87,30,18,-18,16,51,101
-34,46,86,0,-58,63,24,18,-30,22,45,83
-22,10,38,5,-28,21,36,30,-18,28,51,83
-70,22,98,17,-82,57,54,47,30,58,68,106
-106,64,176,11,-142,117,60,65,54,81,98,130
-70,100,176,-6,-124,135,42,47,42,75,80,106
-58,118,182,-24,-118,147,30,41,36,75,74,106
-76,118,200,-12,-136,159,48,53,60,75,86,112
-76,100,182,-6,-130,141,60,71,66,87,104,118
-64,106,176,-12,-118,141,66,77,71,111,110,130
-82,118,206,-12,-142,159,84,101,95,141,134,130
-100,112,218,0,-160,165,102,119,119,147,134,136
-82,136,224,-18,-154,177,102,119,119,153,116,130
-64,172,236,-48,-154,207,102,137,131,153,116,130
-76,148,224,-30,-154,189,114,167,161,183,128,142
-124,118,242,5,-184,183,144,203,191,207,152,160
-148,94,242,17,-196,171,168,239,209,201,146,136
-124,52,182,29,-154,117,198,245,215,207,134,106
-112,16,134,41,-124,75,240,287,257,231,128,95
-112,-14,92,59,-106,33,264,347,299,261,134,77
-112,-55,50,83,-82,-9,288,413,341,285,134,47
-112,-73,32,89,-76,-15,312,467,359,267,104,17
-100,-115,-16,107,-40,-62,372,551,407,279,92,-7
-64,-181,-111,119,13,-146,432,689,521,363,134,5
-46,-229,-177,137,55,-206,492,857,689,495,206,35
-46,-253,-207,149,73,-236,588,1055,911,669,296,83
1,-265,-261,131,127,-266,714,1307,1163,861,392,112
19,-253,-279,113,151,-266,852,1577,1421,1065,524,160
1,-265,-267,131,133,-266,1008,1895,1751,1323,686,262
-16,-319,-297,167,133,-308,1158,2200,2075,1629,896,400
37,-325,-369,137,205,-344,1224,2481,2368,1911,1106,538
115,-307,-429,89,265,-368,1242,2697,2583,2091,1232,616
121,-295,-423,83,265,-356,1296,2823,2721,2174,1256,622
109,-349,-465,113,283,-404,1374,2811,2649,2067,1160,562
49,-373,-429,155,241,-398,1368,2511,2266,1701,914,430
-70,-361,-285,215,103,-326,1302,1961,1691,1179,578,238
-184,-313,-129,245,-22,-224,1188,1307,1073,675,266,65
-268,-289,-16,275,-124,-158,990,623,479,207,-21,-91
-328,-265,56,293,-196,-104,744,24,-66,-200,-279,-247
-352,-253,98,299,-232,-74,492,-342,-408,-446,-423,-337
-328,-223,104,269,-220,-56,282,-468,-498,-488,-441,-349
-316,-145,170,233,-244,3,150,-510,-498,-440,-381,-289
-310,-61,242,185,-280,87,60,-534,-504,-410,-327,-211
-274,22,302,119,-286,165,-35,-534,-504,-374,-273,-133
-226,88,314,59,-268,201,-119,-492,-456,-314,-219,-97
-160,94,254,23,-208,177,-119,-390,-384,-248,-171,-67
-88,76,170,5,-130,123,-89,-276,-306,-188,-135,-31
-46,58,110,0,-76,81,-83,-222,-246,-158,-99,-7
-70,40,116,5,-94,75,-83,-186,-198,-128,-75,17
-94,64,164,5,-130,111,-65,-156,-174,-110,-45,35
-88,64,158,5,-124,111,-53,-138,-168,-92,-39,35
-88,16,110,29,-100,63,-47,-120,-174,-92,-27,53
-100,-14,86,53,-94,33,-23,-96,-162,-80,-9,95
-100,-14,92,47,-94,39,-17,-96,-156,-62,-9,101
-94,-14,86,47,-88,33,-17,-102,-156,-62,-9,95
-88,-8,86,41,-88,39,-29,-108,-150,-68,-15,89
-70,4,80,23,-76,39,-47,-120,-150,-74,-15,89
-58,16,80,11,-70,45,-53,-120,-150,-80,-21,89
-58,22,86,11,-70,51,-53,-120,-144,-74,-21,83
-52,34,92,5,-70,63,-59,-120,-150,-74,-27,77
-40,40,86,5,-64,63,-65,-120,-150,-74,-27,71
-40,46,92,5,-64,69,-65,-120,-156,-80,-27,71
-46,58,110,0,-76,81,-65,-120,-162,-80,-27,71
-52,40,98,5,-76,69,-59,-120,-162,-86,-21,77
-52,40,98,5,-76,69,-47,-114,-162,-74,-15,83
-58,34,98,5,-76,63,-41,-108,-156,-68,-3,95
-58,34,98,5,-76,63,-47,-108,-150,-62,3,101
-58,34,98,5,-76,63,-47,-102,-144,-50,15,106
-58,40,104,5,-82,69,-47,-96,-138,-44,27,112
-52,52,110,5,-82,81,-47,-102,-138,-56,15,106
-46,58,110,0,-76,81,-47,-108,-138,-56,9,95
-46,52,104,5,-76,75,-47,-114,-150,-62,-3,77
-46,40,92,5,-70,63,-47,-114,-150,-62,-9,65
-52,34,92,5,-70,63,-35,-108,-144,-56,-3,77
-52,40,98,5,-76,69,-29,-114,-138,-56,3,95
-64,34,104,5,-82,69,-23,-108,-126,-50,15,106
-64,28,98,11,-82,63,-17,-102,-120,-44,21,112
-46,34,86,5,-64,57,-23,-108,-126,-44,21,112
-34,52,92,0,-64,69,-41,-108,-138,-44,15,112
-28,58,92,-6,-58,75,-47,-114,-144,-62,15,112
-22,52,80,-6,-52,63,-47,-114,-144,-62,21,112
-34,46,86,0,-58,63,-47,-114,-144,-56,27,118
-40,46,92,5,-64,69,-53,-114,-156,-56,33,124
-52,40,98,5,-76,69,-53,-108,-156,-50,45,130
-64,40,110,5,-88,75,-59,-96,-156,-50,51,136
-58,40,104,5,-82,69,-59,-102,-156,-44,45,142
-52,40,98,5,-76,69,-71,-102,-162,-44,45,136
-40,34,80,5,-58,57,-77,-120,-168,-44,33,130
-34,34,74,5,-52,51,-77,-120,-168,-44,33,124
-28,52,86,-6,-58,69,-71,-120,-168,-44,39,118
-28,58,92,-6,-58,75,-71,-126,-174,-50,39,118
-22,64,92,-12,-58,75,-83,-132,-174,-50,39,118
-22,52,80,-6,-52,63,-83,-132,-174,-50,39,130
-16,58,80,-12,-46,69,-95,-144,-180,-50,39,124
-16,64,86,-18,-52,75,-101,-150,-180,-56,39,124
-16,58,80,-12,-46,69,-101,-150,-186,-62,39,118
-16,46,68,-6,-40,57,-101,-156,-192,-62,45,118
-16,46,68,-6,-40,57,-101,-162,-198,-62,45,124
-10,58,74,-18,-40,63,-107,-168,-204,-62,39,130
-16,58,80,-12,-46,69,-101,-174,-198,-62,39,136
-16,58,80,-12,-46,69,-101,-174,-192,-62,39,142
-10,70,86,-24,-46,75,-119,-186,-204,-68,45,148
-10,70,86,-24,-46,75,-137,-192,-210,-68,45,148
-4,64,74,-24,-40,69,-149,-198,-216,-74,57,154
-4,64,74,-24,-40,69,-149,-198,-216,-74,57,154
-10,70,86,-24,-46,75,-155,-204,-228,-74,62,166
-10,82,98,-30,-52,87,-167,-204,-228,-74,62,166
-16,88,110,-30,-64,99,-185,-210,-228,-68,62,172
-4,94,104,-36,-52,99,-191,-222,-234,-62,62,178
1,94,92,-42,-40,93,-203,-228,-234,-56,68,196
1,94,92,-42,-40,93,-203,-234,-240,-56,80,208
1,100,98,-48,-46,99,-203,-234,-240,-68,86,214
1,100,104,-42,-52,99,-209,-240,-252,-68,92,232
1,94,92,-42,-40,93,-221,-246,-264,-74,92,226
1,112,110,-54,-52,111,-227,-252,-270,-74,92,220
13,112,92,-60,-34,105,-233,-264,-282,-80,86,208
13,118,98,-66,-34,111,-251,-270,-294,-86,86,208
1,130,122,-66,-52,129,-251,-282,-300,-92,92,220
1,130,128,-60,-58,129,-257,-288,-300,-92,104,232
1,130,128,-60,-58,129,-263,-294,-306,-98,98,244
1,136,134,-66,-64,135,-263,-300,-318,-98,98,256
7,142,128,-72,-52,135,-275,-312,-318,-98,104,262
7,166,152,-84,-64,159,-293,-312,-324,-98,98,256
19,184,158,-102,-64,171,-317,-330,-336,-98,92,250
43,202,152,-120,-46,177,-323,-342,-348,-98,104,244
37,208,164,-120,-58,189,-323,-342,-342,-92,110,256
37,220,176,-126,-64,201,-329,-342,-342,-92,110,262
31,214,176,-120,-64,195,-323,-342,-342,-80,116,280
31,226,188,-126,-70,207,-323,-348,-348,-80,122,286
25,226,200,-126,-82,219,-329,-360,-342,-86,128,292
31,226,194,-132,-76,213,-335,-360,-342,-86,128,298
31,226,188,-126,-70,207,-347,-366,-330,-74,134,304
31,232,200,-132,-76,219,-353,-366,-330,-74,146,304
37,226,188,-132,-70,213,-353,-366,-342,-68,152,298
37,226,182,-132,-64,207,-353,-372,-348,-80,140,292
43,226,182,-138,-64,207,-347,-378,-360,-98,128,280
49,226,170,-138,-52,201,-347,-384,-360,-110,122,280
43,226,182,-138,-64,207,-347,-384,-354,-98,128,280
37,226,188,-132,-70,213,-347,-384,-360,-98,128,280
31,226,188,-126,-70,207,-353,-378,-366,-92,134,286
19,226,200,-120,-82,213,-341,-378,-366,-92,134,286
19,226,206,-126,-88,219,-335,-384,-372,-98,128,280
19,232,212,-126,-88,225,-329,-378,-372,-92,116,280
19,232,212,-126,-88,225,-323,-384,-372,-98,122,280
19,226,206,-126,-88,219,-317,-378,-372,-98,122,280
13,220,200,-114,-88,213,-317,-378,-372,-104,116,268
13,208,188,-108,-82,201,-305,-372,-372,-104,104,262
7,202,188,-102,-82,195,-293,-372,-372,-110,98,262
7,196,182,-102,-82,189,-281,-366,-378,-110,92,262
7,184,170,-96,-76,177,-275,-366,-372,-116,80,238
7,178,164,-90,-70,171,-263,-360,-366,-116,80,220
1,166,158,-84,-70,165,-257,-354,-360,-122,74,208
1,154,158,-72,-76,153,-239,-336,-366,-116,62,208
-4,136,146,-60,-76,141,-227,-318,-354,-110,68,202
-10,124,140,-48,-76,129,-203,-312,-342,-110,62,196
-22,118,146,-42,-82,129,-185,-300,-330,-110,62,172
-28,112,146,-36,-88,129,-173,-282,-306,-110,62,160
-34,106,146,-30,-88,123,-161,-264,-300,-104,62,160
-46,82,134,-12,-88,105,-143,-252,-282,-98,62,160
-52,76,134,-6,-94,105,-119,-234,-270,-92,57,154
-58,70,134,0,-94,99,-107,-216,-264,-92,51,148
-52,70,128,0,-88,99,-89,-204,-240,-86,57,148
-52,64,122,0,-88,93,-77,-192,-222,-62,62,148
-40,58,104,0,-70,81,-65,-168,-198,-50,62,142
-34,52,92,0,-64,69,-59,-144,-180,-38,62,124
-46,52,104,5,-76,75,-53,-132,-168,-26,62,112
-46,52,104,5,-76,75,-35,-120,-162,-20,62,124
-52,46,104,5,-76,75,-23,-96,-138,-14,68,130
-64,28,98,11,-82,63,-5,-78,-126,-2,74,142
-70,10,86,23,-76,45,6,-66,-108,10,62,136
-58,10,74,17,-64,39,6,-60,-96,16,62,136
-64,-14,56,29,-58,21,12,-48,-72,28,62,130
-70,-14,56,35,-64,15,24,-30,-54,28,62,124
-64,-14,44,35,-58,9,36,-30,-60,22,62,118
-58,-14,38,35,-52,3,36,-30,-60,22,62,106
-58,-19,32,35,-46,-3,42,-24,-60,16,62,101
-52,-31,14,41,-34,-15,42,-24,-66,22,62,95
-64,-31,26,47,-46,-9,48,-12,-48,28,62,89
-64,-31,26,47,-46,-9,54,-12,-42,40,62,77
-70,-31,32,47,-52,-9,66,0,-30,46,62,89
-70,-25,38,47,-58,-3,66,0,-18,52,62,89
-58,-37,14,47,-40,-15,78,0,-18,52,62,101
-58,-43,8,47,-34,-15,78,0,-18,52,68,106
-64,-49,8,53,-40,-15,84,6,-12,52,74,106
-64,-55,2,59,-34,-20,84,6,-12,52,80,118
-64,-55,2,59,-34,-20,78,0,-18,40,68,112
-64,-61,-4,59,-34,-26,78,0,-24,40,62,106
-70,-67,-4,65,-34,-32,84,-6,-30,46,62,106
-70,-67,-4,65,-34,-32,84,-6,-42,46,62,95
-76,-67,2,71,-40,-26,84,-6,-48,40,51,89
-76,-67,2,71,-40,-26,78,-6,-36,40,51,89
-70,-67,-4,65,-34,-32,78,-12,-30,28,51,83
-70,-67,-4,65,-34,-32,78,-12,-30,28,51,77
-64,-61,-4,59,-34,-26,90,-6,-36,28,51,71
-64,-61,-4,59,-34,-26,90,-6,-42,28,51,71
-58,-55,-4,53,-28,-26,84,0,-48,28,45,71
-64,-55,2,59,-34,-20,84,0,-54,28,45,77
-64,-49,8,53,-40,-15,84,0,-54,40,57,83
-64,-49,8,53,-40,-15,84,6,-48,46,62,83
-64,-43,14,53,-40,-15,84,6,-42,52,62,83
-64,-43,14,53,-40,-15,78,0,-36,64,68,89
-64,-61,-4,59,-34,-26,78,6,-36,58,62,89
-64,-61,-4,59,-34,-26,84,6,-42,52,62,89
-64,-43,14,53,-40,-15,90,12,-42,58,62,95
-64,-43,14,53,-40,-15,102,12,-42,52,62,95
-64,-55,2,59,-34,-20,108,18,-36,52,62,101
-64,-61,-4,59,-34,-26,108,18,-30,58,68,106
-70,-79,-16,71,-28,-44,102,30,-24,70,80,106
-70,-85,-16,77,-28,-50,84,30,-12,75,86,118
-70,-67,-4,65,-34,-32,84,30,-12,75,86,112
-70,-55,8,59,-40,-20,84,24,-12,75,74,106
-70,-43,20,53,-46,-15,90,30,-12,75,80,101
-70,-31,32,47,-52,-9,90,30,-12,75,80,124
-64,-25,32,41,-52,-3,84,30,-18,75,80,106
-58,-25,26,41,-46,-9,90,30,-12,75,80,101
-46,-14,26,29,-40,-3,84,24,-18,75,74,77
-40,-14,20,23,-34,-3,84,24,-18,75,74,71
-52,-25,20,35,-40,-9,78,30,-6,75,80,89
-64,-31,26,47,-46,-9,90,35,0,81,86,101
-82,-43,32,59,-58,-15,96,35,12,87,92,106
-94,-49,38,71,-70,-15,96,35,18,93,104,106
-82,-55,20,65,-52,-15,84,35,12,99,104,106
-70,-55,8,59,-40,-20,78,35,18,99,104,106
-58,-55,-4,53,-28,-26,66,35,18,99,104,101
-58,-49,2,53,-34,-20,66,35,18,93,104,101
-58,-55,-4,53,-28,-26,66,41,18,99,110,106
-58,-43,8,47,-34,-15,66,41,18,105,110,106
-58,-49,2,53,-34,-20,66,35,24,111,122,106
-58,-49,2,53,-34,-20,66,35,24,111,122,106
-70,-85,-16,77,-28,-50,108,41,24,111,122,106
-46,-73,-21,59,-10,-50,96,41,36,111,122,106
-46,-49,-10,47,-22,-26,78,35,42,111,116,106
-52,-25,20,35,-40,-9,72,47,42,117,122,106
-40,-14,26,23,-34,3,60,41,30,117,140,124
-46,-19,20,29,-34,-9,66,35,24,111,134,118
-46,-25,14,35,-34,-15,66,35,24,111,128,118
-52,-37,8,41,-34,-15,72,35,18,105,122,112
-52,-43,2,47,-28,-15,72,35,18,105,116,112
-52,-37,8,41,-34,-15,66,35,18,105,110,106
-46,-43,-4,41,-22,-20,66,35,18,105,116,106
-46,-37,2,41,-28,-15,60,35,18,99,110,106
-58,-37,14,47,-40,-15,60,35,18,99,110,106
-52,-43,2,47,-28,-15,60,35,18,93,104,106
-40,-49,-16,41,-16,-26,54,35,12,93,92,101
-34,-49,-16,41,-10,-32,54,35,12,87,86,95
-46,-55,-16,47,-16,-32,54,35,12,87,92,95
-52,-43,2,47,-28,-15,54,35,12,93,98,95
-70,-37,26,53,-52,-15,60,35,12,93,98,95
-64,-37,20,47,-46,-15,60,35,12,99,104,89
-70,-31,32,47,-52,-9,72,35,12,99,104,89
-70,-31,32,47,-52,-9,72,30,6,93,98,83
-76,-37,32,53,-58,-9,66,30,0,93,92,83
-76,-49,20,59,-52,-15,54,24,-6,87,86,83
-70,-55,8,59,-40,-20,48,24,-12,75,80,83
-58,-55,-4,53,-28,-26,54,24,-6,81,86,77
-52,-61,-16,53,-22,-32,54,24,-6,87,86,83
-58,-61,-10,59,-28,-32,66,24,-6,93,92,77
-52,-55,-10,53,-22,-26,66,24,-6,105,92,83
-52,-55,-10,53,-22,-26,60,24,0,105,98,83
-46,-43,-4,41,-22,-20,60,30,6,105,98,83
-52,-43,2,47,-28,-15,66,30,6,105,104,77
-52,-19,26,35,-40,-3,78,35,18,111,116,77
-52,-14,38,29,-46,9,84,35,24,117,116,77
-52,-14,44,23,-46,15,96,35,18,117,116,77
-52,-14,44,23,-46,15,96,35,12,111,104,83
-52,-14,44,23,-46,15,102,30,12,105,92,83
-46,4,56,11,-52,27,108,35,18,111,98,83
-46,10,62,11,-52,33,108,35,18,111,98,83
-40,16,62,5,-52,39,114,35,30,123,110,83
-40,22,68,5,-52,45,120,35,42,123,110,83
-46,34,86,5,-64,57,114,35,30,123,116,89
-46,34,86,5,-64,57,114,35,30,123,116,89
-52,28,86,5,-70,57,108,35,36,129,128,101
-52,46,104,5,-76,75,96,35,36,129,128,89
-46,46,98,5,-70,69,84,35,24,117,116,77
-40,34,80,5,-58,57,78,30,6,111,104,71
-34,28,68,5,-52,45,66,24,-6,99,92,59
-28,28,62,5,-46,45,60,12,-18,75,80,41
-28,22,56,5,-40,39,48,-6,-30,75,80,47
-28,16,50,5,-40,33,36,-12,-36,75,68,47
-34,16,56,5,-46,33,24,-24,-54,75,62,47
-34,4,44,5,-40,21,12,-36,-60,70,62,35
-34,-2,38,11,-34,15,6,-42,-66,64,62,29
-28,-2,32,5,-28,15,6,-42,-78,58,62,29
-22,-8,20,5,-22,3,6,-42,-84,52,62,23
-22,-14,14,11,-16,-3,6,-42,-78,52,62,23
-28,-14,8,17,-22,-9,6,-42,-72,64,62,23
-16,-19,-10,17,-4,-15,6,-42,-72,64,62,23
-34,-37,-10,35,-16,-20,6,-42,-66,64,68,23
-34,-55,-16,41,-4,-38,6,-36,-66,64,68,23
-22,-49,-21,35,2,-38,6,-42,-72,58,62,17
-16,-49,-27,29,7,-38,1,-42,-72,58,62,17
1,-43,-39,17,13,-44,-5,-48,-78,46,57,11
1,-49,-51,17,19,-50,-11,-48,-90,46,51,5
-4,-55,-45,29,13,-50,-5,-54,-96,40,45,-7
-16,-55,-33,35,7,-44,1,-60,-96,22,45,-7
-28,-61,-27,41,2,-44,6,-72,-114,10,27,-19
-40,-73,-27,53,-4,-50,6,-72,-114,4,21,-25
-34,-79,-39,53,7,-62,6,-72,-108,4,27,-25
-34,-85,-45,59,7,-68,6,-72,-108,10,27,-25
-40,-91,-45,65,7,-68,6,-66,-102,16,33,-19
-40,-109,-63,71,7,-86,6,-66,-102,22,33,-31
-28,-109,-75,65,13,-92,6,-72,-114,10,15,-37
-22,-109,-81,65,19,-98,6,-72,-114,10,15,-37
-16,-91,-69,53,19,-80,6,-84,-120,4,15,-43
1,-85,-81,41,31,-86,1,-84,-120,4,15,-43
-22,-79,-51,47,7,-68,6,-72,-108,16,27,-19
-46,-73,-21,59,-10,-50,6,-72,-108,16,39,-19
-40,-73,-27,53,-4,-50,6,-54,-90,40,51,-19
1,-61,-57,29,19,-62,6,-66,-78,34,45,-25
-10,-49,-33,29,7,-44,6,-66,-90,28,27,-25
-22,-61,-33,41,7,-50,6,-48,-66,46,57,-13
-34,-79,-39,53,7,-62,36,-30,-42,75,62,11
-34,-55,-16,41,-4,-38,30,-36,-54,64,62,-13
-22,10,38,5,-28,21,6,-54,-60,52,51,-37
-4,34,44,-6,-22,39,24,-30,-36,75,62,-7
-28,16,50,5,-40,33,60,0,6,99,104,23
-28,22,56,5,-40,39,66,-6,-6,87,86,11
-10,10,26,5,-16,15,60,-6,0,81,74,-1
-16,16,38,5,-28,27,90,24,36,111,98,17
-22,28,56,5,-40,39,102,47,71,141,116,23
-52,16,74,11,-64,45,126,65,71,165,128,23
-88,16,110,29,-100,63,150,83,101,183,140,23
-52,34,92,5,-70,63,144,83,107,183,128,5
-40,22,68,5,-52,45,168,107,125,177,122,-19
-40,-31,2,35,-22,-15,198,137,131,183,110,-25
-40,-55,-16,47,-10,-32,216,161,149,183,92,-61
-52,-73,-16,59,-16,-44,234,197,179,201,98,-79
-76,-115,-33,95,-16,-74,276,251,227,237,110,-73
-76,-145,-63,107,-4,-104,324,299,281,267,128,-67
-52,-151,-93,101,13,-122,348,365,311,279,116,-79
-40,-193,-147,113,43,-170,384,467,365,309,122,-103
-34,-259,-225,149,85,-248,456,587,479,387,158,-97
-22,-289,-261,155,115,-278,516,743,629,507,236,-61
1,-301,-297,149,145,-302,606,923,845,687,344,-7
19,-325,-351,149,187,-338,726,1169,1103,903,476,41
19,-373,-399,173,211,-386,882,1439,1385,1125,602,106
19,-403,-429,185,223,-416,1014,1685,1655,1359,734,166
61,-409,-477,167,265,-440,1122,1913,1901,1581,884,256
103,-403,-507,143,301,-458,1188,2134,2164,1833,1064,358
133,-439,-573,149,349,-500,1248,2344,2404,2043,1220,472
157,-493,-651,161,403,-566,1302,2481,2541,2138,1268,490
133,-499,-639,179,385,-566,1368,2469,2482,2025,1172,418
61,-499,-567,215,313,-530,1386,2230,2158,1707,956,298
-16,-493,-471,251,223,-482,1314,1763,1637,1227,626,101
-118,-421,-297,263,85,-362,1158,1163,1043,699,278,-115
-202,-361,-159,275,-16,-260,960,539,455,237,-9,-307
-244,-343,-93,293,-76,-224,738,0,-66,-176,-285,-463
-268,-325,-51,293,-106,-194,504,-366,-414,-452,-453,-559
-268,-271,-10,269,-136,-140,300,-522,-534,-500,-471,-547
-250,-217,32,233,-148,-86,168,-558,-516,-440,-411,-469
-220,-157,56,185,-142,-44,72,-570,-528,-416,-357,-403
-214,-103,104,155,-160,-9,1,-588,-552,-416,-315,-355
-196,-73,116,131,-160,15,-71,-540,-510,-368,-249,-313
-136,-91,38,113,-88,-20,-77,-444,-420,-284,-189,-277
-70,-97,-21,83,-22,-62,-59,-354,-354,-236,-159,-277
-34,-103,-63,65,7,-86,-71,-312,-306,-194,-135,-265
-34,-79,-39,53,7,-62,-77,-294,-282,-176,-117,-247
-16,-55,-33,35,7,-44,-65,-264,-276,-164,-123,-223
1,-55,-57,23,25,-56,-47,-234,-234,-140,-99,-193
-16,-91,-69,53,19,-80,-23,-204,-204,-116,-69,-151
-34,-97,-57,65,7,-80,-5,-192,-204,-104,-57,-145
-40,-103,-57,71,7,-80,-5,-192,-204,-104,-57,-145
-52,-109,-51,77,2,-80,-5,-186,-204,-116,-51,-151
-46,-103,-51,71,7,-80,-23,-192,-204,-122,-51,-145
-28,-103,-69,65,13,-86,-29,-192,-192,-116,-45,-145
-28,-103,-69,65,13,-86,-29,-192,-186,-110,-45,-151
-16,-103,-81,59,25,-92,-35,-192,-180,-98,-39,-157
-4,-103,-93,53,37,-98,-41,-192,-180,-98,-39,-163
-4,-103,-93,53,37,-98,-41,-186,-180,-98,-39,-163
-10,-97,-81,53,25,-92,-41,-186,-180,-98,-39,-163
-16,-121,-99,65,31,-110,-35,-180,-174,-98,-33,-157
-16,-127,-105,71,37,-116,-23,-174,-168,-86,-27,-151
-16,-121,-99,65,31,-110,-29,-180,-174,-92,-33,-157
-16,-109,-87,59,25,-98,-35,-186,-174,-98,-33,-163
-10,-97,-81,53,25,-92,-47,-192,-180,-98,-39,-169
-10,-79,-63,41,19,-74,-47,-192,-180,-104,-33,-169
-4,-67,-57,35,19,-62,-47,-192,-174,-110,-39,-175
1,-61,-57,29,19,-62,-47,-198,-174,-110,-39,-175
1,-67,-63,29,25,-68,-47,-198,-180,-110,-45,-181
1,-79,-75,35,31,-80,-47,-198,-180,-110,-45,-181
1,-85,-81,41,31,-86,-41,-192,-180,-104,-39,-175
1,-79,-75,35,31,-80,-41,-192,-174,-104,-33,-169
-4,-85,-75,41,25,-80,-41,-186,-168,-98,-21,-163
-4,-91,-81,47,31,-86,-41,-174,-168,-92,-15,-157
1,-91,-93,41,43,-92,-41,-180,-168,-92,-21,-157
1,-73,-81,29,37,-74,-53,-186,-180,-92,-27,-157
1,-73,-81,29,37,-74,-53,-192,-186,-110,-33,-157
1,-79,-87,29,43,-80,-47,-198,-186,-110,-27,-157
1,-79,-87,29,43,-80,-47,-198,-186,-110,-27,-157
1,-79,-87,29,43,-80,-53,-198,-198,-110,-27,-157
1,-79,-87,29,43,-80,-53,-192,-198,-110,-21,-157
1,-79,-81,35,37,-80,-59,-180,-198,-110,-21,-157
1,-67,-69,29,31,-68,-53,-186,-198,-104,-15,-145
1,-67,-69,29,31,-68,-65,-186,-204,-104,-15,-145
1,-61,-69,23,31,-62,-65,-204,-210,-104,-15,-145
1,-61,-69,23,31,-62,-65,-204,-210,-104,-15,-145
7,-55,-69,17,37,-62,-65,-204,-204,-104,-15,-151
7,-49,-63,11,31,-56,-65,-204,-216,-110,-15,-151
13,-55,-75,11,43,-62,-83,-210,-210,-110,-21,-151
13,-67,-87,17,49,-74,-83,-210,-210,-110,-21,-139
13,-55,-75,11,43,-62,-95,-216,-210,-110,-21,-139
13,-43,-63,5,37,-50,-101,-222,-210,-116,-21,-139
7,-43,-57,11,31,-50,-101,-216,-210,-122,-21,-139
7,-49,-63,11,31,-56,-101,-222,-216,-122,-15,-139
19,-55,-81,11,49,-68,-107,-228,-222,-128,-15,-145
25,-43,-75,5,49,-56,-113,-234,-234,-128,-21,-145
31,-49,-87,5,55,-68,-113,-240,-228,-134,-21,-151
31,-49,-87,5,55,-68,-113,-240,-228,-134,-21,-151
25,-31,-63,5,43,-44,-125,-252,-240,-134,-15,-139
25,-31,-63,5,43,-44,-143,-258,-246,-134,-15,-139
19,-31,-57,5,37,-44,-149,-264,-252,-134,-3,-133
19,-31,-57,5,37,-44,-149,-264,-252,-134,-3,-133
13,-31,-51,5,31,-38,-149,-276,-264,-140,-3,-127
13,-19,-39,5,25,-26,-161,-276,-264,-146,-3,-127
7,-19,-33,5,19,-26,-173,-282,-264,-146,-3,-127
19,-14,-39,5,25,-26,-179,-294,-270,-146,-3,-121
37,-14,-45,-12,43,-20,-197,-300,-276,-146,-3,-115
37,-2,-33,-18,37,-15,-197,-306,-282,-146,3,-115
43,16,-21,-30,31,-9,-203,-306,-288,-164,-3,-121
37,28,-16,-30,19,9,-209,-312,-300,-164,-3,-115
43,28,-16,-36,25,3,-221,-318,-306,-158,3,-103
43,46,-4,-42,19,21,-227,-324,-306,-158,9,-103
61,52,-16,-54,31,21,-233,-336,-312,-152,9,-97
61,58,-10,-60,31,27,-251,-342,-318,-158,15,-91
61,70,2,-66,25,39,-257,-348,-324,-152,21,-85
67,70,-4,-66,31,33,-263,-354,-324,-152,33,-73
79,70,-16,-72,43,27,-275,-354,-330,-146,27,-67
91,76,-16,-84,49,27,-275,-360,-342,-146,27,-55
79,82,-4,-78,37,39,-275,-366,-342,-146,39,-43
67,100,26,-84,13,63,-287,-366,-348,-146,39,-43
55,118,56,-84,7,87,-299,-378,-360,-146,39,-43
67,130,56,-96,7,93,-299,-390,-372,-146,57,-43
73,148,68,-108,7,111,-305,-390,-378,-146,57,-37
79,160,74,-120,7,117,-311,-390,-384,-146,57,-31
85,166,74,-126,7,123,-311,-390,-396,-140,57,-19
91,178,80,-132,7,129,-311,-396,-408,-140,62,-13
85,184,92,-132,2,141,-317,-408,-414,-146,62,-13
91,178,80,-132,7,129,-317,-408,-414,-146,62,-7
91,172,74,-132,7,123,-329,-414,-414,-134,62,-7
91,178,80,-132,7,129,-329,-414,-414,-134,62,-7
91,178,80,-132,7,129,-335,-408,-414,-122,74,-1
85,178,86,-132,7,135,-335,-408,-414,-122,74,-1
85,190,98,-138,2,147,-335,-408,-414,-134,68,-1
85,190,98,-138,2,147,-335,-408,-408,-134,74,5
91,202,104,-144,2,153,-329,-402,-402,-122,80,5
91,202,104,-144,2,153,-329,-402,-402,-122,80,5
97,202,98,-150,7,153,-329,-390,-408,-116,86,11
91,202,104,-144,2,153,-317,-390,-402,-116,86,11
85,202,110,-144,-4,159,-311,-396,-402,-116,80,5
79,202,116,-138,-10,159,-305,-384,-402,-110,68,-1
73,196,116,-132,-16,159,-299,-390,-396,-110,74,-1
67,184,110,-126,-16,147,-293,-378,-396,-110,74,-7
61,172,104,-114,-16,141,-287,-372,-390,-110,80,-19
61,160,92,-108,-10,129,-275,-366,-384,-110,68,-25
55,154,92,-102,-10,123,-257,-360,-378,-110,74,-25
55,148,86,-102,-10,117,-245,-354,-378,-110,68,-25
55,142,80,-96,-4,111,-239,-354,-378,-116,62,-49
55,142,80,-96,-4,111,-233,-348,-372,-116,62,-67
49,136,80,-90,-10,111,-227,-342,-372,-122,62,-79
37,130,86,-84,-16,111,-209,-324,-378,-116,51,-79
37,118,74,-78,-10,99,-197,-312,-372,-116,45,-85
37,106,62,-72,-4,87,-179,-312,-366,-116,39,-91
31,106,68,-66,-10,87,-167,-306,-360,-122,21,-115
31,100,62,-66,-10,81,-161,-294,-342,-122,15,-127
25,82,50,-54,-4,69,-143,-276,-330,-110,21,-121
7,58,44,-30,-10,51,-119,-258,-306,-104,27,-121
1,40,32,-18,-10,39,-89,-240,-288,-92,27,-121
1,34,38,-12,-16,33,-71,-216,-276,-92,27,-127
1,34,32,-12,-10,33,-53,-204,-258,-92,27,-133
1,22,20,-6,-4,21,-41,-204,-240,-74,27,-133
7,16,2,-12,7,9,-29,-186,-222,-68,21,-139
13,4,-16,-6,7,-3,-23,-168,-204,-62,15,-157
1,10,2,-6,7,9,-17,-162,-198,-56,9,-175
1,10,2,-6,7,9,1,-156,-192,-56,9,-175
1,10,8,0,2,9,6,-138,-174,-56,3,-175
-4,-8,2,5,-4,-3,18,-126,-168,-50,3,-175
-4,-14,-10,5,2,-15,36,-120,-162,-38,-3,-181
1,-14,-16,5,7,-15,36,-114,-150,-32,-3,-181
1,-25,-27,5,7,-26,48,-108,-132,-20,3,-187
1,-31,-27,11,7,-32,60,-90,-114,-20,3,-193
-4,-37,-27,17,7,-32,72,-84,-108,-14,3,-187
-10,-43,-27,23,7,-38,78,-78,-102,-8,3,-199
-22,-49,-21,35,2,-38,84,-66,-90,-2,9,-199
-28,-67,-33,47,7,-50,90,-60,-90,10,9,-199
-28,-67,-33,47,7,-50,90,-54,-78,4,9,-205
-22,-73,-45,47,7,-62,96,-54,-78,10,3,-217
-16,-73,-51,41,7,-62,102,-48,-72,4,-3,-205
-10,-73,-57,41,13,-68,102,-48,-66,4,-3,-205
-10,-85,-69,47,19,-80,108,-42,-60,10,-3,-211
-10,-91,-75,47,25,-86,108,-42,-60,10,-3,-217
-28,-97,-63,59,7,-80,108,-30,-48,16,-3,-223
-28,-103,-69,65,13,-86,108,-30,-48,16,-3,-223
-22,-97,-69,59,13,-86,108,-36,-48,-2,-9,-223
-22,-103,-75,59,19,-92,108,-36,-48,-2,-9,-229
-22,-103,-75,59,19,-92,120,-42,-48,-2,-9,-229
-22,-103,-75,59,19,-92,120,-42,-54,-2,-9,-235
-28,-109,-75,65,13,-92,120,-36,-60,4,-15,-229
-28,-115,-81,71,19,-98,120,-36,-48,4,-15,-229
-22,-121,-93,71,25,-110,120,-36,-42,4,-9,-223
-22,-127,-99,71,31,-116,126,-36,-42,4,-9,-229
-16,-121,-99,65,31,-110,132,-36,-42,4,-9,-235
-16,-121,-99,65,31,-110,132,-36,-42,4,-9,-235
-10,-115,-99,59,37,-110,120,-36,-42,4,-15,-235
-16,-115,-93,65,31,-104,120,-36,-42,4,-15,-229
-22,-115,-87,65,25,-104,126,-30,-48,4,-15,-229
-22,-115,-87,65,25,-104,126,-24,-48,-2,-15,-235
-28,-115,-81,71,19,-98,132,-18,-48,-8,-15,-241
-28,-115,-81,71,19,-98,126,-24,-48,-8,-15,-241
-28,-127,-93,77,25,-110,120,-24,-42,-8,-15,-247
-28,-127,-93,77,25,-110,120,-24,-48,-8,-15,-247
-28,-103,-69,65,13,-86,120,-24,-42,4,-15,-247
-28,-103,-69,65,13,-86,126,-24,-42,4,-9,-247
-16,-103,-81,59,25,-92,132,-24,-36,-2,-9,-247
-16,-103,-81,59,25,-92,138,-24,-36,-2,-9,-247
-10,-109,-93,59,31,-104,132,-18,-30,4,-9,-241
-10,-109,-93,59,31,-104,120,-18,-24,4,-9,-235
-16,-109,-87,59,25,-98,120,-18,-24,4,-9,-235
-16,-109,-87,59,25,-98,120,-24,-24,4,-15,-235
-22,-115,-87,65,25,-104,126,-18,-24,10,-9,-241
-22,-115,-87,65,25,-104,126,-18,-24,16,-3,-193
-22,-121,-93,71,25,-110,132,-12,-18,28,9,-211
-22,-121,-93,71,25,-110,138,-12,-12,28,9,-217
-16,-121,-99,65,31,-110,144,-12,-6,34,15,-235
-16,-121,-99,65,31,-110,144,-12,-6,34,15,-235
-10,-121,-105,65,37,-116,132,-12,-6,28,15,-229
-4,-121,-111,59,43,-116,138,-12,-6,28,15,-223
-4,-121,-111,59,43,-116,138,-12,-6,22,15,-223
1,-121,-117,59,49,-122,132,-12,-6,22,21,-229
-4,-121,-111,59,43,-116,132,-6,0,34,27,-223
1,-121,-117,59,49,-122,126,0,6,34,27,-223
-4,-115,-105,59,43,-110,126,12,18,40,33,-223
-10,-109,-93,59,31,-104,126,12,18,34,33,-217
-10,-115,-99,59,37,-110,132,18,18,40,33,-217
-10,-103,-87,53,31,-98,132,18,18,52,33,-211
-10,-109,-93,59,31,-104,138,12,24,58,39,-211
-10,-109,-93,59,31,-104,138,12,24,64,39,-211
-4,-115,-105,59,43,-110,150,18,24,64,39,-217
-4,-115,-105,59,43,-110,144,18,24,64,39,-217
1,-121,-117,59,49,-122,132,24,30,64,45,-223
-4,-121,-111,59,43,-116,120,24,30,70,51,-223
-16,-109,-87,59,25,-98,138,24,42,70,39,-223
-4,-109,-99,53,37,-104,126,12,42,58,45,-217
-4,-103,-93,53,37,-98,126,12,42,70,45,-217
-16,-79,-57,47,13,-68,144,18,42,70,45,-217
-16,-91,-69,53,19,-80,144,18,48,64,45,-217
-16,-97,-75,53,19,-86,144,18,48,64,45,-217
-16,-109,-87,59,25,-98,144,18,54,58,45,-217
-16,-115,-93,65,31,-104,144,18,54,58,45,-217
-10,-121,-105,65,37,-116,144,24,60,64,51,-211
-4,-133,-123,65,49,-128,144,24,60,70,57,-211
1,-139,-135,65,61,-140,144,30,66,70,62,-205
-10,-145,-129,77,49,-140,144,30,66,75,62,-205
-4,-139,-129,71,55,-134,144,18,60,70,57,-211
1,-133,-135,59,61,-134,138,18,48,70,45,-223
1,-121,-129,53,61,-122,138,12,42,64,39,-229
1,-115,-111,53,49,-116,138,12,36,64,45,-235
-4,-115,-105,59,43,-110,138,18,42,64,45,-223
-16,-115,-93,65,31,-104,144,18,42,64,45,-223
-10,-127,-111,65,43,-122,144,24,48,64,45,-217
-10,-127,-111,65,43,-122,156,24,48,64,45,-217
-16,-121,-99,65,31,-110,156,24,42,64,45,-223
-22,-121,-93,71,25,-110,156,24,42,70,45,-229
