,,,,,,,,,,,
2019-09-04 23:12:26,,,,,,,,,,,
,,,,,,,,,,,
I,II,III,aVR,aVL,aVF,V1,V2,V3,V4,V5,V6
-221,-60,156,140,-189,42,237,222,87,103,-120,-448
-221,-60,156,140,-189,42,237,222,87,103,-120,-448
-221,-60,156,140,-189,42,237,222,87,103,-120,-448
-221,-60,156,140,-189,42,237,222,87,103,-120,-448
-221,-54,162,134,-195,48,249,228,93,115,-120,-448
-221,-48,168,134,-195,54,255,234,99,121,-120,-448
-221,-42,174,128,-201,60,261,240,105,133,-120,-448
-221,-36,180,128,-201,66,267,240,111,139,-120,-448
-221,-24,192,122,-207,78,261,246,117,139,-120,-448
-221,-12,204,116,-213,90,255,246,117,139,-120,-448
-221,0,216,110,-219,102,255,252,123,139,-120,-448
-221,5,228,104,-225,114,249,252,123,139,-120,-448
-215,5,216,104,-219,102,255,270,135,151,-108,-442
-209,0,204,104,-207,96,267,282,141,163,-102,-436
-203,-6,192,104,-201,84,279,300,153,175,-90,-430
-197,-12,180,104,-189,78,291,312,159,187,-84,-424
-203,5,210,92,-207,102,285,312,159,181,-90,-436
-209,17,234,86,-219,126,285,312,159,181,-96,-442
-215,41,258,80,-231,150,279,312,159,175,-102,-454
-221,59,282,74,-249,174,279,312,159,175,-108,-460
-215,47,264,74,-237,156,285,324,171,187,-96,-448
-209,41,252,74,-231,150,291,336,177,193,-84,-436
-203,29,234,80,-219,132,297,348,189,205,-72,-424
-197,23,228,80,-213,126,303,360,195,211,-60,-412
-191,35,234,68,-213,132,309,366,207,223,-54,-406
-191,41,234,68,-213,138,309,372,213,229,-54,-406
-185,53,240,56,-213,150,315,378,225,241,-48,-400
-185,59,246,56,-219,156,315,384,231,253,-48,-400
-179,65,246,50,-213,156,315,390,237,259,-36,-400
-179,65,246,50,-213,156,315,396,243,259,-30,-394
-173,71,246,44,-213,162,315,402,249,265,-18,-388
-173,71,246,44,-213,162,315,408,249,265,-12,-382
-161,89,252,26,-207,174,309,408,249,271,-18,-388
-155,101,258,20,-207,180,309,408,249,271,-18,-388
-143,119,264,2,-207,192,303,408,243,277,-24,-394
-137,131,270,-4,-207,204,303,408,243,277,-24,-394
-131,125,258,-4,-195,192,309,414,249,289,-12,-382
-131,125,258,-4,-195,192,309,420,249,295,-6,-376
-125,119,246,-4,-189,186,315,426,255,307,5,-364
-125,119,246,-4,-189,186,315,432,261,313,5,-358
-113,125,240,-10,-177,186,303,426,267,319,11,-352
-107,125,234,-10,-171,180,297,426,267,319,17,-346
-95,131,234,-10,-165,180,285,420,273,325,29,-340
-89,131,228,-15,-159,180,279,420,273,325,35,-334
-83,137,228,-21,-153,180,273,414,267,331,35,-328
-77,137,222,-21,-147,180,273,414,267,337,35,-328
-71,143,222,-27,-147,180,267,408,261,343,35,-322
-65,143,216,-33,-141,180,267,408,261,349,35,-322
-53,149,210,-39,-129,180,255,396,255,343,41,-316
-47,149,204,-45,-123,174,249,390,255,343,41,-316
-35,155,198,-51,-117,174,237,378,249,337,47,-310
-29,155,192,-57,-111,174,225,372,249,337,47,-310
-17,143,168,-57,-93,156,213,360,249,343,53,-304
-11,131,150,-51,-81,138,207,354,249,343,53,-304
1,119,126,-51,-63,120,195,342,243,349,59,-298
7,107,108,-51,-51,108,189,336,243,349,59,-298
12,119,114,-57,-51,114,177,318,231,337,53,-304
12,125,120,-63,-51,120,165,300,219,331,53,-310
12,137,126,-69,-51,132,153,282,207,319,47,-316
12,143,132,-75,-57,138,141,264,195,313,47,-322
12,131,120,-69,-51,126,129,246,183,307,41,-328
12,119,108,-63,-45,114,117,240,171,301,35,-334
12,107,96,-57,-39,102,105,222,159,295,29,-340
12,95,84,-51,-33,90,93,210,147,289,23,-346
12,89,78,-45,-27,84,87,198,141,283,17,-346
12,89,78,-45,-27,84,81,186,141,283,17,-346
12,83,72,-45,-27,78,75,174,135,277,11,-346
12,83,72,-45,-27,78,69,162,135,277,11,-346
12,77,72,-39,-27,72,63,150,123,265,5,-352
12,71,66,-33,-27,66,63,138,111,259,5,-358
7,65,66,-27,-27,66,57,126,99,247,5,-364
7,59,60,-27,-27,60,57,114,87,241,0,-370
-5,47,60,-15,-33,54,51,102,81,235,-6,-376
-11,41,60,-10,-33,48,51,90,75,229,-12,-382
-23,29,60,-10,-39,42,45,78,69,229,-18,-388
-29,23,60,-4,-45,42,45,66,63,223,-24,-394
-35,23,66,-4,-51,42,51,60,57,217,-30,-400
-41,23,72,2,-57,48,51,60,57,211,-36,-400
-47,23,78,2,-63,48,57,54,51,205,-42,-406
-53,23,84,8,-69,54,57,54,51,199,-48,-412
-59,11,78,14,-69,42,51,48,39,193,-54,-418
-59,5,72,20,-63,36,51,42,33,193,-54,-424
-65,5,66,26,-69,30,45,36,21,187,-60,-430
-65,0,60,32,-63,24,45,30,15,187,-60,-436
-71,-6,60,38,-69,18,45,24,9,181,-66,-442
-77,-12,60,44,-69,18,45,24,9,181,-72,-442
-83,-18,60,50,-75,12,45,18,9,175,-78,-448
-89,-24,60,56,-75,12,45,18,9,175,-84,-448
-89,-12,72,50,-81,24,45,12,9,181,-90,-454
-89,-6,78,44,-87,30,45,12,9,181,-90,-454
-89,5,90,38,-93,42,45,6,9,187,-96,-460
-89,5,96,38,-93,48,45,6,9,187,-96,-460
-95,5,96,44,-99,42,45,12,9,181,-90,-454
-95,5,96,44,-99,42,45,12,9,181,-90,-454
-101,0,96,50,-99,42,45,18,4,175,-84,-448
-101,0,96,50,-99,42,45,18,4,175,-84,-448
-95,-12,78,50,-87,24,45,18,4,175,-84,-442
-95,-24,66,56,-81,12,45,18,4,175,-84,-442
-89,-36,48,62,-69,0,45,18,4,175,-84,-436
-89,-48,36,68,-63,0,45,18,4,175,-84,-436
-95,-36,54,62,-75,0,39,6,-2,169,-90,-448
-95,-30,60,62,-81,6,39,0,-2,163,-96,-454
-101,-18,78,56,-93,24,33,0,-8,157,-102,-466
-101,-12,84,56,-93,30,33,-5,-8,151,-108,-472
-95,-6,84,50,-93,30,33,0,-8,157,-102,-466
-95,-6,84,50,-93,30,33,0,-8,157,-102,-466
-89,0,84,44,-87,36,33,0,-8,163,-96,-460
-89,0,84,44,-87,36,33,0,-8,163,-96,-460
-95,-6,84,50,-93,30,39,0,-2,169,-90,-460
-95,-12,78,50,-87,24,45,0,-2,169,-84,-460
-101,-18,78,56,-93,24,51,6,4,175,-78,-460
-101,-24,72,62,-87,18,57,6,4,175,-72,-460
-101,-24,72,62,-87,18,57,6,4,175,-72,-454
-101,-24,72,62,-87,18,57,6,4,175,-72,-454
-101,-24,72,62,-87,18,57,6,4,175,-72,-448
-101,-24,72,62,-87,18,57,6,4,175,-72,-448
-107,-18,84,62,-99,24,51,12,9,175,-78,-454
-107,-12,90,56,-99,30,51,12,9,175,-84,-454
-113,-6,102,56,-111,42,45,18,9,175,-90,-460
-113,0,108,56,-111,48,45,18,9,175,-96,-460
-107,5,108,50,-111,48,51,18,9,181,-96,-460
-107,5,114,44,-111,54,51,18,9,181,-96,-460
-101,5,114,38,-105,60,57,18,9,187,-96,-460
-101,11,120,38,-111,66,57,18,9,187,-96,-460
-101,5,114,38,-105,60,63,24,9,187,-90,-454
-101,5,114,38,-105,60,63,24,9,187,-90,-448
-101,5,108,44,-105,54,69,30,9,187,-84,-442
-101,5,108,44,-105,54,69,30,9,187,-84,-436
-101,5,102,44,-105,48,75,36,9,193,-78,-430
-101,5,102,44,-105,48,75,36,15,199,-72,-430
-101,0,96,50,-99,42,81,42,21,205,-66,-424
-101,0,96,50,-99,42,81,42,27,211,-60,-424
-107,0,102,50,-105,42,75,36,27,205,-66,-430
-113,0,108,56,-111,48,75,36,27,205,-72,-436
-119,0,114,56,-117,48,69,30,27,199,-78,-442
-125,0,120,62,-123,54,69,30,27,199,-84,-448
-125,-6,114,62,-123,48,75,36,33,205,-78,-442
-125,-6,114,62,-123,48,81,36,33,205,-78,-442
-125,-12,108,68,-117,42,87,42,39,211,-72,-436
-125,-12,108,68,-117,42,93,42,39,211,-72,-436
-125,0,120,62,-123,54,87,42,39,211,-72,-436
-125,5,132,56,-129,66,87,42,39,211,-72,-436
-125,11,144,50,-135,78,81,42,39,211,-72,-436
-125,23,156,44,-141,90,81,42,39,211,-72,-436
-119,29,156,38,-135,90,81,42,39,217,-66,-436
-119,29,156,38,-135,90,81,42,39,217,-66,-436
-113,35,156,32,-135,96,81,42,39,223,-60,-436
-113,35,156,32,-135,96,81,42,39,223,-60,-436
-119,29,156,38,-135,90,81,42,39,223,-60,-436
-119,29,156,38,-135,90,81,42,39,223,-60,-436
-125,23,156,44,-141,90,81,42,39,223,-60,-436
-125,23,156,44,-141,90,81,42,39,223,-60,-436
-125,11,144,50,-135,78,87,48,45,229,-54,-430
-125,5,132,56,-129,66,87,48,45,229,-54,-430
-125,0,120,62,-123,54,93,54,51,229,-48,-424
-125,-12,108,68,-117,42,93,54,51,229,-48,-424
-125,-6,114,62,-123,48,87,48,45,229,-54,-430
-125,0,120,62,-123,54,87,48,39,229,-60,-436
-125,5,126,56,-129,60,81,42,33,229,-66,-442
-125,5,132,56,-129,66,81,42,27,229,-72,-448
-125,5,138,50,-129,72,81,36,27,229,-72,-448
-125,5,138,50,-129,72,81,36,27,229,-72,-448
-125,11,144,50,-135,78,81,30,27,229,-72,-448
-125,11,144,50,-135,78,81,30,27,229,-72,-448
-119,11,138,44,-129,72,81,30,27,229,-72,-448
-119,11,138,44,-129,72,81,30,27,229,-72,-448
-113,11,132,44,-123,72,81,30,27,223,-72,-448
-113,11,132,44,-123,72,81,30,27,223,-72,-448
-113,11,132,44,-123,72,81,24,21,223,-72,-454
-113,11,132,44,-123,72,81,24,21,223,-72,-454
-113,11,132,44,-123,72,81,18,15,223,-72,-460
-113,11,132,44,-123,72,81,18,15,223,-72,-460
-119,11,138,44,-129,72,81,24,15,223,-78,-460
-119,11,138,44,-129,72,81,24,15,223,-78,-460
-125,11,144,50,-135,78,81,30,15,223,-84,-460
-125,11,144,50,-135,78,81,30,15,223,-84,-460
-119,5,132,50,-123,66,81,30,15,223,-84,-466
-119,5,126,50,-123,60,81,30,15,223,-84,-466
-113,5,114,50,-117,54,81,30,15,223,-84,-472
-113,0,108,56,-111,48,81,30,15,223,-84,-472
-113,5,114,50,-117,54,81,24,9,217,-84,-466
-113,5,120,50,-117,60,81,24,9,217,-84,-466
-113,5,126,44,-117,66,81,18,9,211,-84,-460
-113,11,132,44,-123,72,81,18,9,211,-84,-460
-107,17,132,38,-117,72,75,12,9,205,-90,-466
-107,17,132,38,-117,72,69,12,9,205,-90,-466
-101,23,132,32,-117,78,63,6,4,199,-96,-472
-101,23,132,32,-117,78,57,6,4,199,-96,-472
-107,11,126,38,-117,66,63,12,9,205,-90,-466
-113,5,120,50,-117,60,63,12,9,205,-84,-460
-119,0,114,56,-117,48,69,18,9,211,-78,-454
-125,-12,108,68,-117,42,69,18,9,211,-72,-448
-119,-6,108,62,-117,42,69,18,9,211,-78,-448
-119,-6,108,62,-117,42,69,18,9,211,-84,-448
-113,0,108,56,-111,48,69,18,15,211,-90,-448
-113,0,108,56,-111,48,69,18,15,211,-96,-448
-119,5,120,56,-123,54,69,18,9,211,-90,-454
-119,5,120,56,-123,54,69,18,9,211,-90,-454
-125,5,132,56,-129,66,69,18,9,211,-84,-460
-125,5,132,56,-129,66,69,18,9,211,-84,-460
-125,5,126,56,-129,60,69,18,9,217,-84,-454
-125,0,120,62,-123,54,69,18,9,217,-84,-454
-125,-6,114,62,-123,48,69,18,9,223,-84,-448
-125,-12,108,68,-117,42,69,18,9,223,-84,-448
-119,-6,108,62,-117,42,69,18,9,223,-90,-454
-119,0,114,56,-117,48,69,18,9,223,-90,-454
-113,5,114,50,-117,54,69,18,9,223,-96,-460
-113,5,120,50,-117,60,69,18,9,223,-96,-460
-119,5,120,56,-123,54,69,18,9,223,-90,-460
-119,0,114,56,-117,48,69,18,9,223,-90,-460
-125,-6,114,62,-123,48,69,18,9,223,-84,-460
-125,-12,108,68,-117,42,69,18,9,223,-84,-460
-131,-6,120,68,-129,48,75,18,9,223,-84,-454
-131,-6,120,68,-129,48,75,18,9,223,-84,-454
-137,0,132,68,-135,60,81,18,9,223,-84,-448
-137,0,132,68,-135,60,81,18,9,223,-84,-448
-131,-12,114,68,-123,42,81,24,9,229,-84,-448
-131,-18,108,74,-123,36,81,24,9,229,-84,-448
-125,-30,90,74,-111,24,81,30,9,229,-84,-448
-125,-36,84,80,-105,18,81,30,9,229,-84,-448
-119,-24,90,68,-105,24,75,24,9,229,-90,-454
-119,-12,102,62,-111,36,75,18,9,223,-90,-454
-113,0,108,56,-111,48,69,12,9,217,-96,-460
-113,5,120,50,-117,60,69,6,9,211,-96,-460
-119,5,120,56,-123,54,69,12,9,217,-90,-454
-119,5,120,56,-123,54,69,12,9,217,-90,-454
-125,0,120,62,-123,54,69,18,9,223,-84,-448
-125,0,120,62,-123,54,69,18,9,223,-84,-448
-119,0,114,56,-117,48,69,24,9,229,-84,-454
-119,0,114,56,-117,48,69,24,9,229,-84,-454
-113,0,108,56,-111,48,69,30,9,229,-84,-460
-113,0,108,56,-111,48,69,30,9,229,-84,-460
-119,0,114,56,-117,48,69,24,9,229,-84,-454
-119,0,114,56,-117,48,69,24,9,229,-84,-454
-125,0,120,62,-123,54,69,18,9,223,-84,-448
-125,0,120,62,-123,54,69,18,9,223,-84,-448
-125,0,120,62,-123,54,69,24,9,229,-84,-454
-125,0,120,62,-123,54,69,24,9,229,-84,-454
-125,0,120,62,-123,54,69,30,9,235,-84,-460
-125,0,120,62,-123,54,69,30,9,241,-84,-460
-125,-6,114,62,-123,48,69,24,9,235,-84,-454
-125,-6,114,62,-123,48,69,24,9,229,-84,-454
-125,-12,108,68,-117,42,69,18,9,229,-84,-448
-125,-12,108,68,-117,42,69,18,9,223,-84,-448
-131,-18,108,74,-123,36,75,24,9,229,-84,-448
-131,-24,102,74,-117,30,75,30,9,229,-84,-448
-125,-30,90,74,-111,24,75,36,9,235,-84,-454
-125,-30,90,74,-111,24,69,36,9,235,-84,-454
-119,-24,90,68,-105,24,63,30,9,229,-84,-460
-119,-6,108,62,-117,42,63,30,9,223,-90,-466
-113,0,108,56,-111,48,63,24,9,229,-90,-472
-113,0,108,56,-111,48,63,24,9,229,-90,-460
-113,0,108,56,-111,48,69,12,4,211,-102,-472
-113,0,108,56,-111,48,63,12,4,211,-102,-472
-113,0,108,56,-111,48,69,12,-2,205,-96,-472
-113,0,108,56,-111,48,69,12,-2,205,-96,-472
-119,-6,108,62,-117,42,75,18,4,217,-90,-460
-119,-12,102,62,-111,36,75,30,4,223,-78,-460
-125,-18,102,68,-117,36,81,36,9,229,-72,-448
-119,-24,90,68,-105,24,81,48,9,235,-72,-448
-113,-30,78,68,-99,18,81,42,9,229,-78,-454
-131,-24,102,74,-117,30,87,42,9,229,-84,-454
-113,-12,96,62,-105,36,81,36,9,229,-90,-460
-107,5,114,44,-111,54,81,36,9,229,-96,-460
-113,0,108,56,-111,48,81,42,9,229,-90,-454
-113,0,108,56,-111,48,81,48,9,229,-84,-448
-107,-12,90,56,-99,30,75,54,9,229,-78,-448
-107,-24,78,62,-93,18,75,54,9,229,-72,-454
-101,-12,84,56,-93,30,81,48,9,229,-78,-454
-89,-6,78,44,-87,30,81,54,9,229,-78,-454
-83,17,108,26,-93,60,93,54,9,229,-78,-448
-83,29,120,20,-99,72,99,54,9,241,-72,-448
-71,41,120,8,-93,78,111,72,15,253,-60,-436
-65,53,126,-4,-93,90,117,84,33,265,-60,-418
-53,53,114,-10,-81,84,129,102,51,271,-42,-412
-53,41,102,-4,-75,72,129,102,45,277,-42,-406
-41,65,114,-10,-75,90,129,102,45,277,-36,-406
-29,77,114,-15,-69,96,141,120,57,283,-36,-406
-29,83,120,-21,-75,102,141,126,69,277,-24,-400
-17,89,114,-27,-63,102,147,132,75,295,-12,-388
-5,95,108,-39,-57,102,141,126,81,295,-6,-382
1,113,120,-51,-57,114,129,132,87,301,-6,-382
7,119,120,-57,-57,120,123,132,93,301,-6,-370
12,143,132,-75,-57,138,117,150,111,313,5,-358
18,143,120,-81,-45,132,105,144,117,319,5,-352
18,173,150,-93,-57,162,105,150,129,337,23,-340
24,191,162,-105,-63,180,93,144,123,331,17,-334
24,191,162,-105,-63,180,87,144,123,331,23,-334
18,173,150,-93,-57,162,87,144,123,331,23,-340
18,155,132,-87,-51,144,81,132,117,331,23,-340
18,137,114,-75,-39,126,87,132,105,319,17,-352
12,107,90,-57,-33,102,93,114,105,313,11,-358
12,101,90,-51,-33,96,75,96,81,295,0,-370
12,77,66,-39,-21,72,69,84,63,283,-18,-376
7,59,60,-27,-27,60,57,72,45,271,-36,-394
7,35,36,-15,-15,36,57,60,27,253,-48,-400
12,41,36,-21,-9,36,57,60,21,247,-48,-406
12,47,30,-27,-3,42,57,60,15,241,-48,-406
12,23,12,-15,3,18,57,72,15,241,-42,-418
12,29,18,-15,3,24,57,72,15,247,-48,-418
12,29,18,-15,3,24,69,84,27,253,-42,-406
7,29,30,-10,-9,30,81,90,27,259,-42,-400
7,23,24,-10,-9,24,87,96,33,259,-42,-400
1,17,24,-10,-9,18,93,108,33,265,-42,-400
-29,23,60,-4,-45,42,111,114,45,277,-42,-406
-59,35,102,2,-81,66,135,144,57,289,-36,-400
-77,41,126,8,-99,84,153,144,69,295,-36,-400
-83,47,138,8,-111,90,153,162,75,295,-24,-400
-35,83,126,-15,-81,102,93,174,99,325,0,-394
-35,89,132,-21,-81,108,45,174,111,325,5,-394
-17,83,108,-27,-63,96,15,168,117,337,5,-376
12,107,102,-51,-45,102,15,180,141,361,11,-370
12,95,84,-51,-33,90,4,186,147,367,17,-364
24,71,42,-45,-3,60,-38,186,147,367,5,-358
78,71,-6,-75,38,30,-74,186,141,373,23,-340
84,89,0,-87,38,48,-98,204,141,385,29,-328
78,89,6,-81,32,48,-134,180,129,361,29,-358
96,77,-11,-87,56,30,-164,168,111,361,23,-364
108,65,-35,-87,74,12,-170,174,123,379,41,-352
96,77,-11,-87,56,30,-200,150,123,391,41,-364
120,59,-53,-87,86,0,-218,150,123,397,41,-346
144,23,-113,-81,128,-35,-212,150,147,415,65,-316
132,23,-101,-75,116,-29,-242,108,129,403,53,-310
144,77,-59,-111,104,6,-302,42,81,379,23,-340
192,101,-83,-147,140,6,-320,18,69,379,29,-328
198,101,-89,-147,146,0,-314,6,87,391,53,-316
192,113,-71,-153,134,18,-344,-35,51,367,59,-310
222,89,-125,-153,176,-11,-386,-95,9,367,71,-310
246,41,-197,-141,224,-71,-398,-119,21,391,101,-286
240,17,-215,-129,230,-89,-398,-131,21,379,95,-280
276,53,-221,-165,248,-77,-464,-179,-26,343,71,-286
348,59,-281,-207,314,-107,-548,-275,-98,307,59,-298
396,29,-359,-213,380,-161,-650,-389,-158,277,59,-292
468,5,-455,-237,464,-221,-758,-521,-230,259,71,-256
582,11,-563,-297,572,-269,-884,-677,-284,235,101,-214
660,29,-623,-345,644,-287,-1010,-833,-362,217,137,-161
744,77,-665,-411,710,-287,-1160,-1031,-458,175,161,-119
858,143,-713,-495,782,-275,-1310,-1223,-554,133,197,-59
942,161,-773,-549,860,-299,-1406,-1367,-638,109,245,-17
966,167,-791,-561,878,-305,-1448,-1463,-686,79,245,1
1020,173,-845,-597,938,-329,-1484,-1511,-746,43,227,-17
1062,155,-905,-609,980,-371,-1508,-1553,-800,-5,209,-41
1056,113,-941,-585,998,-407,-1514,-1583,-860,-40,173,-65
1092,101,-983,-597,1040,-437,-1508,-1607,-896,-82,143,-53
1170,95,-1067,-633,1118,-485,-1508,-1589,-914,-94,149,-29
1218,77,-1133,-645,1178,-521,-1502,-1589,-932,-94,191,13
1236,107,-1127,-675,1184,-503,-1490,-1565,-908,-70,233,61
1320,203,-1115,-759,1220,-455,-1454,-1493,-848,-11,329,151
1374,239,-1133,-801,1250,-443,-1400,-1379,-764,85,449,265
1368,239,-1127,-801,1244,-443,-1310,-1259,-668,193,557,349
1356,335,-1013,-843,1190,-335,-1244,-1139,-560,289,671,421
1356,449,-905,-903,1130,-227,-1172,-1019,-458,397,761,511
1320,461,-857,-891,1088,-197,-1082,-917,-374,475,827,571
1236,485,-749,-861,992,-131,-1016,-845,-332,511,845,577
1164,521,-635,-843,902,-47,-950,-773,-272,553,863,607
1062,533,-521,-795,794,0,-836,-671,-194,613,875,625
960,497,-455,-729,710,18,-740,-581,-128,631,863,589
846,461,-383,-651,614,36,-632,-473,-68,655,839,547
726,401,-317,-561,518,36,-494,-335,9,691,797,481
528,329,-197,-429,362,66,-350,-227,33,649,683,313
336,245,-83,-291,212,78,-230,-161,9,553,485,85
204,113,-83,-159,146,12,-128,-95,-14,457,287,-101
96,5,-83,-51,92,-29,-68,-53,-32,367,137,-226
24,-18,-47,-10,32,-29,-32,-53,-44,289,29,-334
7,-24,-23,8,8,-23,15,-35,-44,259,-12,-370
-53,-72,-11,62,-15,-41,51,-17,-38,241,-48,-394
-107,-66,36,86,-75,-11,69,-17,-56,223,-96,-436
-107,-36,66,68,-87,6,99,0,-50,229,-96,-454
-137,-60,72,98,-105,0,135,36,-26,235,-78,-454
-185,-84,96,134,-141,0,159,60,-20,241,-84,-466
-185,-72,108,128,-147,12,159,66,-2,253,-84,-484
-173,-96,72,134,-123,-5,183,108,15,271,-66,-460
-179,-90,84,134,-135,0,183,120,15,265,-78,-472
-185,-90,90,134,-141,0,195,138,27,283,-78,-472
-197,-78,114,134,-159,12,195,126,21,277,-90,-472
-209,-72,132,140,-171,24,189,114,9,265,-90,-484
-203,-90,108,146,-159,0,195,114,9,253,-102,-490
-221,-108,108,164,-165,0,201,114,9,253,-108,-496
-227,-132,90,176,-159,-17,213,114,4,247,-120,-514
-227,-114,108,170,-171,0,219,114,4,241,-132,-520
-227,-102,126,164,-183,6,225,132,9,241,-126,-520
-227,-96,132,164,-183,12,213,144,9,241,-132,-532
-227,-84,138,152,-183,18,207,150,15,247,-138,-538
-221,-78,138,146,-183,24,207,156,27,253,-138,-538
-215,-78,132,146,-177,18,219,168,21,253,-132,-532
-215,-84,126,146,-171,12,219,150,27,253,-126,-532
-209,-84,120,146,-165,12,225,144,21,253,-120,-526
-215,-84,126,146,-171,12,231,138,21,253,-120,-526
-221,-90,126,152,-177,12,237,138,15,247,-120,-526
-221,-90,126,152,-177,12,237,156,15,247,-126,-532
-221,-96,120,158,-171,6,243,174,21,253,-126,-532
-227,-96,132,164,-183,12,243,180,21,253,-132,-526
-227,-108,114,164,-171,0,243,192,27,265,-126,-520
-221,-102,114,158,-171,0,243,204,33,271,-120,-514
-227,-114,108,170,-171,0,243,210,45,283,-114,-514
-227,-126,102,176,-171,-5,243,216,51,295,-108,-520
-227,-114,108,170,-171,0,243,210,39,283,-108,-520
-227,-96,126,158,-177,6,243,204,45,277,-102,-520
-233,-102,132,170,-189,6,249,192,33,265,-120,-520
-239,-84,156,164,-201,30,249,186,21,259,-126,-520
-239,-84,156,164,-201,30,249,210,27,265,-120,-520
-227,-84,144,158,-189,24,249,210,33,271,-120,-520
-227,-84,144,158,-189,24,255,216,45,277,-114,-520
-227,-84,144,158,-189,24,255,222,57,283,-108,-526
-221,-96,120,158,-171,6,255,228,63,289,-108,-514
-221,-102,114,158,-171,0,255,228,63,289,-108,-514
-215,-102,108,158,-165,0,255,234,69,295,-102,-514
-215,-108,102,158,-159,0,255,240,69,295,-102,-514
-215,-102,108,158,-165,0,255,240,75,307,-108,-526
-215,-84,126,146,-171,12,261,240,75,307,-108,-526
-221,-90,126,152,-177,12,273,246,93,319,-108,-532
-221,-84,132,152,-177,18,279,252,93,307,-108,-532
-215,-78,132,146,-177,18,279,258,93,313,-108,-526
-209,-78,126,140,-171,18,279,264,93,319,-102,-526
-209,-72,132,140,-171,24,279,264,99,331,-96,-508
-209,-66,138,134,-177,30,279,264,99,337,-90,-508
-215,-66,144,140,-183,30,273,264,99,337,-96,-526
-215,-66,144,140,-183,30,273,264,99,337,-96,-526
-227,-72,150,146,-189,30,279,282,93,343,-96,-532
-227,-54,168,140,-201,48,285,288,99,355,-96,-532
-221,-60,156,140,-189,42,297,300,111,349,-96,-532
-215,-78,132,146,-177,18,297,300,111,355,-96,-532
-215,-72,138,140,-177,24,297,312,111,349,-84,-526
-215,-48,162,128,-189,48,297,318,111,355,-84,-520
-215,-48,162,128,-189,48,297,324,117,361,-84,-520
-209,-48,156,128,-183,48,297,324,123,361,-78,-520
-209,-42,162,122,-189,54,291,324,123,373,-78,-520
-209,-42,162,122,-189,54,291,336,123,385,-78,-520
-209,-18,186,110,-201,78,297,342,135,385,-72,-514
-209,-18,186,110,-201,78,303,348,135,385,-72,-526
-203,-18,180,110,-195,72,321,354,141,391,-66,-532
-203,-24,174,110,-189,66,333,372,147,397,-66,-532
-203,-24,174,110,-189,66,333,378,153,403,-60,-514
-191,-12,174,98,-183,72,333,384,159,403,-54,-508
-197,5,198,92,-201,96,333,390,171,403,-48,-502
-197,5,204,92,-201,102,333,396,177,409,-48,-502
-197,5,204,92,-201,102,333,402,171,409,-48,-502
-191,5,198,86,-195,96,333,402,189,415,-36,-496
-197,5,204,92,-201,102,333,402,189,421,-30,-496
-203,5,210,92,-207,102,345,402,189,427,-30,-496
-209,11,228,92,-219,120,369,420,201,439,-18,-496
-209,17,234,86,-219,126,369,432,207,439,-18,-490
-197,41,240,68,-219,144,363,450,213,445,-18,-490
-179,53,234,56,-207,144,363,462,225,445,-6,-478
-185,47,234,62,-213,144,357,462,225,451,0,-472
-179,59,240,50,-213,150,357,462,225,463,0,-472
-161,53,222,44,-189,138,363,468,237,469,5,-466
-155,53,216,44,-183,132,363,474,237,481,11,-466
-161,65,234,38,-195,150,363,474,249,487,11,-454
-143,47,198,38,-171,120,363,480,249,493,17,-454
-149,47,204,44,-177,126,369,486,255,493,17,-436
-149,59,216,38,-183,138,369,486,255,487,17,-430
-131,83,222,14,-177,150,357,486,255,487,23,-430
-125,89,222,8,-171,156,351,486,255,493,23,-436
-113,113,234,-10,-171,174,345,486,261,493,35,-442
-113,113,234,-10,-171,174,345,486,267,493,41,-436
-101,95,204,-4,-153,150,357,504,273,505,59,-418
-95,89,192,-4,-141,138,357,510,279,523,65,-412
-95,77,180,2,-135,126,363,516,285,541,65,-400
-83,77,168,-4,-123,120,369,522,285,541,71,-394
-77,83,168,-10,-123,126,351,516,279,535,65,-394
-77,83,168,-10,-123,126,345,498,279,529,65,-388
-59,89,156,-10,-105,120,333,492,273,523,71,-394
-47,89,144,-15,-93,114,327,486,267,523,71,-388
-47,101,156,-21,-99,126,315,480,261,523,65,-394
-35,125,168,-39,-99,144,315,480,261,523,71,-400
-23,137,168,-51,-93,150,297,474,255,523,71,-400
-23,137,168,-51,-93,150,291,474,255,523,71,-400
-23,119,150,-39,-87,132,279,462,255,529,77,-400
-11,107,126,-39,-69,114,273,456,255,523,83,-394
-5,89,102,-33,-51,96,273,462,255,529,89,-388
-5,83,96,-33,-51,90,273,450,261,529,95,-382
7,83,84,-39,-39,84,255,432,249,517,89,-388
12,83,72,-45,-27,78,237,414,237,517,89,-376
12,65,48,-39,-9,60,231,396,225,511,83,-376
24,53,24,-39,8,42,207,384,219,511,89,-376
42,59,12,-51,8,36,201,366,201,505,83,-382
42,77,30,-57,8,54,189,348,195,493,71,-388
42,83,36,-63,8,60,189,324,183,475,59,-400
42,71,24,-57,8,48,177,318,183,475,59,-400
54,65,6,-57,20,36,171,318,171,475,65,-400
54,65,6,-57,20,36,159,306,159,469,59,-400
54,41,-6,-45,32,12,135,294,135,463,65,-400
54,41,-6,-45,32,12,135,282,135,457,65,-400
36,59,18,-45,8,42,129,258,123,445,53,-406
36,65,24,-51,8,48,123,246,111,439,47,-412
30,59,24,-45,8,42,111,240,93,427,41,-424
18,65,42,-39,-3,54,99,222,87,409,29,-424
12,65,48,-39,-9,60,105,216,75,415,23,-430
12,47,30,-27,-3,42,111,216,81,415,29,-430
18,29,6,-21,8,18,117,228,81,421,35,-430
12,11,6,-10,3,6,123,228,87,421,35,-424
7,11,12,-10,-3,12,117,210,75,409,23,-430
-5,5,18,-10,-9,12,117,204,69,403,11,-442
-17,5,30,-4,-21,18,111,192,57,397,5,-454
-29,5,42,2,-33,24,105,174,45,379,5,-472
-29,0,24,14,-27,6,99,180,45,385,5,-466
-29,-6,18,14,-27,0,105,180,51,385,5,-466
-47,-24,18,32,-33,0,123,186,57,391,5,-466
-47,-30,12,38,-33,-5,129,186,63,391,5,-460
-47,-24,18,32,-33,0,129,180,51,373,5,-466
-53,-12,36,32,-45,6,123,174,39,373,-6,-466
-59,-24,30,38,-45,0,123,168,27,361,-18,-472
-65,-12,48,38,-57,12,123,162,27,361,-18,-478
-59,-6,48,32,-57,12,129,156,21,355,-18,-484
-59,-18,36,38,-51,0,129,156,15,355,-18,-484
-53,-42,6,44,-33,-11,123,150,15,349,-6,-478
-65,-24,36,44,-51,0,123,138,9,337,-6,-478
-71,-30,36,50,-57,0,129,144,9,343,-18,-484
-71,-30,36,50,-57,0,129,150,9,349,-18,-484
-77,-30,42,50,-63,0,135,150,15,355,-24,-490
-77,-30,42,50,-63,0,129,150,9,343,-36,-490
-89,-36,48,62,-69,0,123,144,9,337,-30,-484
-77,-42,30,56,-57,0,123,144,9,343,-30,-484
-77,-42,30,56,-57,0,123,138,9,337,-24,-484
-77,-42,30,56,-57,0,123,138,9,331,-18,-484
-77,-42,30,56,-57,0,117,132,9,319,-18,-484
-77,-42,30,56,-57,0,117,132,9,319,-18,-484
-89,-54,30,68,-63,-5,117,132,9,319,-30,-478
-89,-54,30,68,-63,-5,117,138,9,319,-30,-478
-89,-54,30,68,-63,-5,117,138,9,319,-24,-478
-89,-54,30,68,-63,-5,117,132,4,319,-24,-478
-89,-54,30,68,-63,-5,111,126,4,319,-36,-478
-83,-48,30,62,-57,-5,111,126,4,319,-36,-478
-83,-48,30,62,-57,-5,117,138,9,319,-36,-472
-83,-66,12,74,-51,-23,117,138,9,319,-36,-472
-83,-78,0,80,-45,-35,117,138,15,319,-24,-466
-83,-78,0,80,-45,-35,117,138,15,319,-24,-460
-89,-66,18,74,-57,-17,123,138,9,313,-30,-466
-83,-60,18,68,-51,-17,123,138,9,307,-30,-448
-71,-48,18,56,-45,-11,129,138,9,301,-30,-454
-65,-36,24,50,-45,0,129,138,9,301,-30,-454
-71,-30,36,50,-57,0,123,144,9,307,-30,-448
-71,-30,36,50,-57,0,123,144,9,307,-30,-448
-77,-30,42,50,-63,0,135,150,21,319,-30,-466
-77,-36,36,56,-57,0,135,156,21,319,-18,-466
-77,-30,42,50,-63,0,135,156,9,307,-24,-466
-89,-6,78,44,-87,30,135,150,9,307,-24,-454
-101,-24,72,62,-87,18,135,144,9,307,-30,-460
-83,-18,60,50,-75,12,135,144,15,319,-30,-460
-89,-24,60,56,-75,12,135,150,21,325,-24,-460
-89,-30,54,56,-75,6,141,156,21,313,-18,-466
-95,-48,42,68,-69,0,153,168,27,319,-12,-460
-95,-72,18,80,-57,-23,159,174,39,319,-6,-436
-89,-60,24,74,-57,-11,153,174,39,325,-12,-442
-89,-42,42,62,-69,0,153,174,39,325,-6,-448
-71,-12,54,38,-63,12,147,174,33,319,-12,-454
-89,-6,78,44,-87,30,159,174,33,319,-12,-460
-95,-6,84,50,-93,30,159,180,27,319,-12,-460
-89,-6,78,44,-87,30,159,180,27,319,-12,-460
-95,-12,78,50,-87,24,159,180,45,331,-12,-442
-101,-18,78,56,-93,24,159,174,45,331,-12,-442
-95,-24,66,56,-81,12,159,174,39,337,-6,-454
-89,-18,66,50,-81,18,159,180,39,337,-6,-454
-83,-24,54,50,-69,6,159,180,51,337,0,-448
-77,-18,54,44,-69,12,153,180,51,337,0,-448
-83,-12,66,44,-75,18,153,174,45,331,-6,-448
-95,-12,78,50,-87,24,153,180,51,337,-6,-454
-101,-6,90,50,-99,36,165,180,51,331,-12,-454
-101,-6,90,50,-99,36,165,180,51,325,-12,-442
-101,-6,90,50,-99,36,165,186,51,325,-6,-436
-101,-6,90,50,-99,36,165,174,51,325,-12,-442
-95,0,90,44,-93,36,165,180,45,325,-6,-442
-95,0,90,44,-93,36,165,186,39,325,-6,-442
-95,-6,84,50,-93,30,171,192,45,337,0,-436
-101,-18,78,56,-93,24,177,198,51,343,5,-436
-107,-30,72,68,-93,12,183,204,57,349,5,-430
-107,-36,66,68,-87,6,201,204,63,337,11,-418
-113,-30,78,68,-99,18,195,198,57,331,5,-424
-107,-24,78,62,-93,18,189,192,51,331,5,-424
-113,-18,90,62,-105,30,183,186,57,319,5,-436
-119,-18,96,68,-111,30,171,186,51,319,0,-442
-113,-12,96,62,-105,36,165,186,39,313,-12,-448
-101,-12,84,56,-93,30,165,186,39,313,-12,-448
-95,-12,78,50,-87,24,177,180,33,313,-12,-448
-95,-12,78,50,-87,24,183,180,33,313,-6,-448
-101,-18,78,56,-93,24,183,180,39,313,-6,-448
-101,-18,78,56,-93,24,177,180,45,313,-6,-448
-113,-24,84,68,-99,24,177,192,51,319,-12,-448
-113,-18,90,62,-105,30,177,192,57,319,-12,-448
-107,-12,90,56,-99,30,177,186,51,319,-12,-454
-101,-18,78,56,-93,24,177,186,39,319,-12,-454
-107,-18,84,62,-99,24,165,174,33,307,-6,-442
-83,-18,60,50,-75,12,165,168,39,319,0,-442
-89,-24,60,56,-75,12,171,174,39,313,-6,-448
-89,-24,60,56,-75,12,171,168,33,307,-6,-454
-101,-30,66,62,-87,12,171,168,27,307,-18,-460
-101,-36,60,68,-81,6,171,168,21,301,-24,-460
-89,-30,54,56,-75,6,171,174,21,307,-18,-448
-89,-30,54,56,-75,6,171,174,21,301,-18,-430
-89,-24,60,56,-75,12,171,174,21,301,-12,-442
-95,-24,66,56,-81,12,165,174,27,295,0,-454
-101,-18,78,56,-93,24,171,168,27,301,-6,-454
-95,-18,72,56,-87,18,171,168,21,295,-12,-442
-101,-18,78,56,-93,24,165,162,15,301,-18,-454
-101,-18,78,56,-93,24,165,162,15,295,-12,-454
-107,-36,66,68,-87,6,165,168,21,289,-12,-454
-107,-42,60,74,-87,0,183,174,15,301,-18,-454
-119,-48,66,80,-93,0,195,180,21,295,-18,-454
-119,-42,72,80,-99,6,183,168,21,295,-18,-448
-107,-30,72,68,-93,12,177,180,21,295,-18,-448
-101,-24,72,62,-87,18,177,174,21,289,-18,-454
-107,-18,84,62,-99,24,165,150,9,283,-30,-454
-89,-24,60,56,-75,12,165,144,9,283,-30,-448
-95,-36,54,62,-75,0,171,162,21,289,-24,-442
-95,-36,54,62,-75,0,171,150,21,283,-24,-442
-101,-36,60,68,-81,6,171,156,9,283,-18,-430
-107,-36,66,68,-87,6,171,156,9,289,-12,-430
-101,-42,54,68,-81,0,171,156,9,283,-18,-442
-95,-42,48,68,-75,0,171,150,9,283,-18,-454
-89,-30,54,56,-75,6,177,150,9,277,-24,-448
-101,-48,48,74,-75,0,183,150,15,277,-24,-442
-107,-42,60,74,-87,0,177,144,9,271,-24,-436
-101,-42,54,68,-81,0,177,144,9,271,-24,-436
-107,-42,60,74,-87,0,171,144,9,277,-24,-436
-107,-42,60,74,-87,0,171,144,9,277,-18,-442
-101,-30,66,62,-87,12,171,144,15,277,-12,-442
-101,-30,66,62,-87,12,171,150,9,277,-24,-436
-101,-30,66,62,-87,12,177,156,9,277,-18,-436
-101,-36,60,68,-81,6,177,156,9,277,-18,-430
-95,-42,48,68,-75,0,177,156,9,271,-18,-430
-107,-42,60,74,-87,0,177,150,15,271,-18,-436
-113,-48,60,80,-87,0,177,150,15,265,-12,-436
-113,-54,54,80,-87,0,177,150,15,265,-12,-430
-107,-48,54,74,-81,0,183,150,9,271,-18,-430
-107,-48,54,74,-81,0,183,150,9,271,-18,-442
-101,-36,60,68,-81,6,189,150,9,277,-24,-430
-101,-30,66,62,-87,12,189,150,9,277,-24,-424
-95,-30,60,62,-81,6,183,150,9,277,-18,-424
-95,-36,54,62,-75,0,183,150,9,277,-24,-424
-95,-42,48,68,-75,0,189,156,9,277,-18,-424
-101,-54,42,74,-75,0,189,156,9,277,-18,-424
-101,-36,60,68,-81,6,177,156,4,271,-24,-424
-95,-36,54,62,-75,0,177,156,9,271,-18,-418
-95,-48,42,68,-69,0,171,150,9,271,-24,-424
-107,-36,66,68,-87,6,171,138,9,271,-24,-424
-113,-42,66,74,-93,6,171,144,9,271,-18,-430
-113,-48,60,80,-87,0,171,150,9,271,-18,-430
-119,-54,60,86,-93,0,171,156,9,271,-24,-436
-113,-60,48,86,-81,0,165,156,9,271,-24,-418
-107,-60,42,80,-75,-5,177,150,9,277,-18,-412
-107,-54,48,80,-81,0,183,150,9,277,-18,-412
-107,-42,60,74,-87,0,189,150,15,277,-18,-424
-107,-42,60,74,-87,0,195,156,15,277,-18,-406
-107,-54,48,80,-81,0,195,156,15,277,-12,-400
-107,-66,36,86,-75,-11,201,156,21,277,-12,-400
-107,-60,42,80,-75,-5,195,156,15,283,-18,-406
-107,-60,42,80,-75,-5,195,156,15,283,-18,-406
-113,-72,36,92,-75,-11,195,156,15,283,-18,-412
-101,-60,36,80,-69,-5,195,156,9,277,-18,-412
-101,-66,30,80,-69,-11,195,156,9,277,-12,-418
-101,-72,24,86,-63,-17,195,156,9,283,-12,-418
-107,-90,12,98,-63,-35,195,162,15,289,-6,-406
-107,-78,24,92,-69,-23,189,162,15,289,-12,-406
-107,-66,36,86,-75,-11,183,156,21,289,-12,-412
-107,-66,36,86,-75,-11,183,156,27,289,-12,-412
-107,-72,30,86,-69,-17,189,162,27,295,-12,-400
-107,-72,30,86,-69,-17,189,162,21,289,-18,-418
-113,-66,42,86,-81,-5,195,156,9,283,-18,-424
-101,-48,48,74,-75,0,195,156,9,277,-24,-418
-113,-66,42,86,-81,-5,201,156,9,277,-24,-418
-119,-54,60,86,-93,0,201,150,9,277,-24,-424
-119,-36,78,74,-99,12,195,150,9,277,-24,-424
-119,-48,66,80,-93,0,195,156,9,277,-18,-412
-113,-48,60,80,-87,0,189,150,9,283,-12,-412
-113,-54,54,80,-87,0,189,150,9,277,-12,-418
-101,-48,48,74,-75,0,183,144,9,283,-24,-418
-95,-36,54,62,-75,0,183,138,9,283,-36,-424
-95,-36,54,62,-75,0,183,144,9,283,-36,-430
-101,-36,60,68,-81,6,183,138,9,283,-30,-412
-107,-48,54,74,-81,0,189,156,15,289,-18,-406
-107,-48,54,74,-81,0,201,162,27,289,-6,-400
-107,-60,42,80,-75,-5,201,156,21,289,-12,-406
-107,-54,48,80,-81,0,201,156,21,289,-6,-400
-107,-66,36,86,-75,-11,195,150,15,283,-12,-406
-107,-60,42,80,-75,-5,183,138,9,283,-18,-418
-107,-54,48,80,-81,0,189,144,9,283,-18,-418
-107,-60,42,80,-75,-5,189,144,15,289,-18,-418
-113,-72,36,92,-75,-11,195,150,21,289,-12,-418
-119,-84,30,98,-75,-23,201,150,21,289,-12,-412
-107,-72,30,86,-69,-17,201,150,15,283,-18,-412
-107,-60,42,80,-75,-5,201,156,15,289,-18,-418
-101,-48,48,74,-75,0,201,150,9,289,-24,-418
-89,-30,54,56,-75,6,189,156,15,295,-18,-418
-89,-36,48,62,-69,0,189,162,15,295,-12,-418
-89,-54,30,68,-63,-5,189,162,27,301,-6,-406
-95,-60,30,74,-63,-11,189,144,9,295,-12,-412
-89,-54,30,68,-63,-5,195,132,9,295,-12,-412
-95,-66,24,80,-63,-17,201,138,9,295,-12,-406
-95,-78,12,86,-57,-29,195,144,9,289,-12,-406
-101,-48,48,74,-75,0,189,144,9,289,-12,-400
-89,-30,54,56,-75,6,195,150,9,289,-12,-400
-95,-36,54,62,-75,0,189,144,9,283,-18,-406
-107,-48,54,74,-81,0,183,150,9,283,-30,-406
-113,-54,54,80,-87,0,177,144,9,283,-36,-406
-113,-42,66,74,-93,6,177,138,9,277,-36,-412
-143,-78,60,110,-105,-5,201,150,9,289,-18,-412
-95,-66,24,80,-63,-17,207,156,21,289,-6,-412
-95,-48,42,68,-69,0,207,162,27,301,5,-394
-125,-96,24,110,-75,-29,213,162,27,313,5,-394
-119,-90,24,104,-75,-29,207,162,21,307,5,-400
-113,-84,24,98,-69,-23,207,162,21,307,0,-400
-107,-78,24,92,-69,-23,201,162,15,301,-6,-400
-101,-72,24,86,-63,-17,201,162,15,301,-12,-400
-107,-84,18,92,-63,-29,207,168,21,307,-6,-400
-95,-90,0,92,-51,-41,207,168,21,307,-6,-400
-101,-96,0,98,-51,-41,207,168,27,307,0,-400
-101,-102,-6,98,-51,-47,213,168,27,307,0,-400
-101,-78,18,86,-63,-23,207,162,15,295,-6,-406
-101,-72,24,86,-63,-17,213,162,15,307,-6,-406
-101,-66,30,80,-69,-11,207,156,9,307,-6,-400
-101,-60,36,80,-69,-5,207,144,9,295,-18,-412
-107,-66,36,86,-75,-11,201,150,9,295,-18,-412
-107,-72,30,86,-69,-17,201,150,9,295,-12,-412
-113,-78,30,92,-75,-17,201,156,9,295,-12,-412
-113,-84,24,98,-69,-23,201,156,9,301,-12,-406
-107,-84,18,92,-63,-29,207,162,15,301,-6,-406
-107,-84,18,92,-63,-29,207,162,15,301,-6,-400
-95,-84,6,86,-51,-35,213,168,21,307,-12,-400
-95,-96,-6,92,-45,-47,219,168,27,307,-12,-400
-119,-90,24,104,-75,-29,225,168,21,313,-6,-400
-107,-84,18,92,-63,-29,225,168,21,313,-6,-400
-107,-60,42,80,-75,-5,225,168,15,319,0,-394
-107,-60,42,80,-75,-5,225,168,15,319,0,-388
-101,-48,48,74,-75,0,219,174,15,319,0,-388
-83,-48,30,62,-57,-5,213,174,15,319,0,-388
-77,-48,24,62,-51,-5,207,174,15,325,0,-400
-71,-48,18,56,-45,-11,207,174,21,325,0,-400
-65,-48,12,56,-39,-11,213,180,27,325,0,-400
-65,-24,36,44,-51,0,219,186,33,325,5,-394
-71,-18,48,44,-63,6,231,186,39,349,5,-394
-65,-6,54,32,-63,18,237,198,57,355,5,-388
-59,-6,48,32,-57,12,249,216,69,367,11,-364
-53,-12,36,32,-45,6,255,228,81,373,29,-358
-53,-36,12,44,-33,-5,261,234,69,379,35,-346
-41,-18,18,26,-33,0,267,234,69,391,41,-340
-23,5,30,2,-27,12,273,240,75,391,35,-346
-23,17,48,-4,-33,30,267,240,87,385,41,-346
-5,41,54,-10,-27,48,267,240,87,397,47,-334
1,53,60,-21,-27,54,261,240,93,397,59,-334
12,71,66,-33,-27,66,255,246,105,409,59,-334
12,71,66,-33,-27,66,255,258,111,421,65,-322
18,95,72,-57,-21,84,255,282,135,439,77,-310
36,95,54,-63,-3,78,255,288,147,457,95,-298
42,113,66,-75,-3,90,255,294,159,475,113,-286
54,125,66,-87,3,96,255,294,159,475,113,-274
60,113,48,-87,8,84,255,294,159,475,119,-274
54,107,48,-81,8,78,243,288,159,475,119,-274
42,95,48,-69,3,72,231,270,147,469,119,-274
36,89,48,-63,3,72,225,264,135,457,113,-280
18,65,42,-39,-3,54,225,240,129,445,107,-286
12,47,30,-27,-3,42,213,228,111,427,89,-298
12,23,6,-15,8,18,201,210,87,415,65,-310
12,5,-6,-10,8,0,195,198,69,403,47,-334
12,-12,-23,-4,14,-17,189,180,45,385,29,-346
12,-12,-23,-4,14,-17,189,174,33,379,17,-358
18,-6,-29,-10,20,-17,189,174,33,373,23,-352
12,-36,-47,8,26,-41,189,180,39,373,23,-352
12,-30,-41,2,20,-35,189,180,45,379,23,-346
12,-24,-35,2,20,-29,195,186,57,379,23,-340
12,-12,-17,-4,8,-17,207,192,57,385,23,-340
12,-12,-17,-4,8,-17,207,192,57,379,17,-352
12,-6,-11,-4,8,-11,213,204,57,385,17,-358
-11,-6,0,8,-9,0,237,216,69,397,17,-358
-47,-6,36,26,-45,6,255,240,75,409,29,-340
-59,-6,48,32,-57,12,273,246,87,415,29,-340
-71,-12,54,38,-63,12,267,264,87,415,47,-328
-71,-12,54,38,-63,12,255,276,99,433,59,-322
-47,-42,0,44,-27,-17,249,312,159,475,89,-274
-41,0,36,20,-39,12,225,318,165,475,89,-280
-11,47,66,-10,-39,54,171,294,153,457,71,-310
7,47,48,-21,-21,48,147,300,147,475,77,-304
12,23,18,-10,-3,18,153,312,159,493,89,-286
30,35,0,-33,8,18,117,312,165,499,95,-280
84,53,-23,-69,56,12,69,318,165,511,113,-268
90,41,-41,-63,68,0,21,318,153,511,113,-274
96,53,-35,-75,68,6,-8,306,147,499,95,-280
120,53,-59,-87,92,0,-26,300,147,505,113,-268
108,17,-83,-63,98,-23,-32,300,171,541,125,-256
96,5,-89,-45,92,-35,-50,288,159,547,125,-250
132,0,-137,-57,134,-65,-56,288,159,541,137,-244
144,11,-125,-75,134,-47,-68,270,165,553,137,-238
132,17,-107,-75,122,-35,-104,240,153,541,131,-256
156,17,-131,-87,146,-47,-146,186,129,517,125,-256
186,5,-185,-87,182,-89,-164,150,111,517,137,-256
168,-6,-179,-75,170,-89,-170,144,111,529,143,-238
174,-6,-185,-75,176,-95,-176,120,105,517,143,-226
222,29,-185,-123,206,-71,-212,72,81,505,137,-214
228,41,-179,-135,206,-59,-242,24,57,505,155,-220
222,17,-197,-117,212,-83,-260,0,45,505,167,-202
276,5,-269,-141,272,-131,-266,-17,21,505,155,-202
336,-6,-347,-159,338,-179,-332,-83,-26,469,131,-232
372,-30,-407,-165,386,-221,-434,-209,-86,427,131,-232
420,-36,-461,-189,440,-245,-530,-323,-158,391,125,-214
504,-30,-539,-237,518,-281,-614,-449,-224,367,137,-196
570,-18,-593,-267,578,-305,-716,-563,-278,337,161,-166
624,11,-605,-315,614,-287,-818,-701,-344,307,173,-143
744,41,-695,-393,722,-317,-938,-851,-440,271,173,-89
870,5,-863,-435,866,-425,-1028,-995,-506,241,197,-47
954,5,-953,-477,950,-473,-1124,-1127,-584,223,227,-17
1014,95,-917,-555,968,-407,-1196,-1247,-650,187,233,31
1068,161,-905,-615,986,-365,-1244,-1325,-698,151,233,55
1128,185,-941,-657,1034,-371,-1286,-1361,-728,133,245,67
1230,227,-995,-729,1112,-383,-1298,-1367,-746,145,311,121
1296,233,-1061,-759,1184,-413,-1304,-1331,-740,181,389,211
1332,227,-1103,-777,1220,-437,-1316,-1319,-728,217,455,295
1368,281,-1079,-825,1226,-395,-1316,-1283,-698,271,539,373
1410,377,-1025,-891,1220,-317,-1256,-1193,-602,379,659,499
1428,473,-953,-951,1190,-239,-1160,-1025,-470,529,803,619
1416,545,-863,-981,1142,-155,-1070,-881,-338,631,893,691
1392,599,-785,-993,1088,-89,-980,-773,-242,721,965,745
1332,623,-707,-981,1016,-35,-872,-659,-152,817,1061,847
1230,683,-539,-957,884,66,-794,-575,-74,889,1103,895
1116,713,-401,-915,758,156,-722,-515,-26,907,1097,865
1026,653,-371,-837,704,138,-626,-413,9,931,1097,847
912,533,-371,-723,644,78,-506,-299,75,967,1073,823
750,485,-263,-615,506,108,-386,-191,135,979,1013,733
546,425,-119,-489,332,150,-236,-77,183,949,893,583
330,269,-53,-297,194,108,-92,0,177,859,707,379
198,107,-83,-153,140,6,-8,18,81,685,461,157
156,-6,-167,-69,158,-83,27,36,9,535,245,-65
72,-66,-143,-10,104,-101,99,66,-20,463,113,-166
12,-90,-95,38,44,-95,123,78,-32,409,65,-226
-5,-96,-83,50,32,-89,129,60,-44,379,23,-250
-41,-120,-71,80,8,-95,171,78,-38,385,23,-238
-107,-114,-6,110,-51,-59,201,90,-8,421,35,-238
-143,-132,6,134,-75,-59,219,120,9,427,35,-244
-161,-156,0,158,-81,-71,243,132,9,427,29,-244
-185,-132,48,158,-117,-35,261,144,15,433,5,-268
-173,-84,84,128,-129,0,261,162,21,409,0,-286
-149,-120,24,134,-87,-41,285,192,27,403,-6,-286
-155,-120,30,134,-93,-41,285,210,27,397,-18,-304
-155,-126,24,140,-93,-47,303,234,45,415,-18,-304
-167,-120,42,140,-105,-35,303,228,39,409,-30,-310
-173,-120,48,146,-111,-29,303,222,33,397,-30,-322
-179,-132,42,152,-111,-41,297,210,21,391,-30,-316
-197,-150,42,170,-123,-47,303,210,21,391,-30,-310
-215,-168,42,188,-129,-59,303,198,15,391,-30,-316
-215,-150,60,182,-141,-41,309,198,15,385,-36,-310
-215,-156,54,182,-135,-47,327,222,21,385,-36,-310
-215,-162,48,188,-135,-53,315,234,27,391,-42,-322
-203,-168,30,182,-117,-65,321,240,33,397,-54,-328
-197,-174,18,182,-111,-71,321,246,39,409,-54,-328
-197,-168,24,182,-111,-65,327,264,39,415,-42,-322
-197,-174,18,182,-111,-71,327,252,45,415,-36,-316
-197,-168,24,182,-111,-65,327,252,45,421,-24,-310
-203,-168,30,182,-117,-65,333,252,45,421,-24,-304
-203,-162,36,182,-123,-59,327,240,33,403,-30,-310
-203,-156,42,176,-123,-53,321,246,33,403,-42,-316
-197,-150,42,170,-123,-47,315,246,33,397,-48,-322
-209,-144,60,176,-135,-35,309,246,33,397,-60,-316
-197,-138,54,164,-129,-35,315,252,39,403,-54,-316
-185,-126,54,152,-123,-29,315,264,39,403,-54,-310
-185,-120,60,152,-123,-23,321,264,51,409,-48,-316
-185,-126,54,152,-123,-29,321,270,51,415,-48,-322
-185,-144,36,164,-111,-47,327,270,51,421,-36,-316
-185,-144,36,164,-111,-47,327,270,63,421,-24,-310
-203,-180,18,188,-111,-77,339,264,63,427,-30,-304
-209,-180,24,194,-117,-71,339,264,57,427,-30,-298
-209,-168,36,188,-123,-59,333,282,63,427,-30,-298
-197,-162,30,176,-117,-59,333,282,63,427,-30,-292
-197,-150,42,170,-123,-47,333,282,75,427,-30,-292
-197,-144,48,170,-123,-41,339,288,81,427,-24,-292
-191,-138,48,164,-123,-41,339,288,81,433,-30,-286
-191,-138,48,164,-123,-41,345,288,81,433,-30,-286
-191,-120,66,152,-129,-23,345,288,81,439,-30,-292
-191,-120,66,152,-129,-23,345,294,81,439,-30,-292
-185,-114,66,146,-129,-17,345,294,75,445,-36,-298
-185,-102,78,140,-135,-5,345,294,75,445,-36,-298
-185,-108,72,146,-129,-11,351,306,81,451,-36,-298
-185,-108,72,146,-129,-11,351,312,81,439,-36,-298
-185,-114,66,146,-129,-17,357,324,81,445,-36,-292
-179,-120,54,146,-117,-29,357,336,81,451,-30,-286
-185,-126,54,152,-123,-29,363,342,87,463,-24,-268
-185,-126,54,152,-123,-29,363,348,87,469,-18,-262
-179,-120,54,146,-117,-29,363,342,99,475,-12,-268
-173,-120,48,146,-111,-29,363,342,99,475,-12,-262
-173,-120,48,146,-111,-29,375,354,105,481,0,-256
-167,-102,60,134,-117,-17,381,360,111,493,0,-250
-167,-108,54,134,-111,-23,387,366,117,487,-6,-250
-167,-126,36,146,-105,-41,387,366,117,493,-6,-250
-173,-120,48,146,-111,-29,381,372,111,487,0,-244
-179,-96,78,134,-129,-5,381,378,111,493,0,-238
-179,-102,72,140,-129,-11,393,384,123,499,0,-232
-173,-108,60,140,-117,-17,393,384,129,499,5,-232
-173,-108,60,140,-117,-17,399,384,135,511,5,-226
-173,-114,54,140,-117,-23,399,396,135,523,5,-226
-173,-90,78,128,-129,0,393,402,147,523,5,-208
-167,-90,72,128,-123,-5,393,408,147,523,5,-220
-161,-90,66,122,-117,-5,399,414,153,529,5,-214
-155,-96,54,122,-105,-17,405,432,159,535,5,-214
-155,-90,60,122,-111,-11,399,426,153,535,5,-208
-149,-78,66,110,-111,0,399,426,147,529,5,-202
-155,-54,96,104,-129,12,393,420,147,523,5,-208
-161,-48,108,104,-135,24,393,420,141,523,5,-208
-155,-48,102,98,-129,18,399,432,147,529,5,-196
-143,-48,90,92,-117,12,405,438,171,535,17,-184
-143,-48,90,92,-117,12,411,444,183,547,29,-172
-143,-48,90,92,-117,12,429,450,189,553,29,-166
-149,-48,96,98,-123,18,441,456,189,565,41,-161
-149,-48,96,98,-123,18,435,468,189,565,41,-161
-137,-36,96,86,-117,24,417,474,183,571,41,-149
-119,-30,84,74,-105,18,411,486,189,571,53,-137
-125,-24,96,74,-111,30,405,480,189,571,47,-143
-125,-12,108,68,-117,42,405,480,189,577,47,-143
-107,-6,96,56,-105,36,411,480,201,577,41,-149
-107,-6,96,56,-105,36,411,486,201,589,59,-149
-101,0,96,50,-99,42,411,486,207,595,65,-137
-77,-24,48,50,-63,6,411,492,213,601,71,-131
-71,-30,36,50,-57,0,417,504,213,601,77,-113
-65,-24,36,44,-51,0,417,504,213,595,77,-101
-59,5,60,26,-63,24,405,504,207,589,77,-101
-53,5,66,14,-57,36,399,498,207,595,77,-107
-53,35,96,2,-75,66,393,492,207,589,83,-113
-53,41,102,-4,-75,72,393,486,213,589,89,-107
-35,35,78,-10,-57,54,393,492,207,589,101,-95
-23,35,66,-10,-45,48,387,492,213,601,107,-89
-17,35,60,-10,-39,48,381,486,207,607,101,-83
1,41,48,-15,-21,42,381,486,207,601,107,-71
-5,29,42,-10,-21,36,375,498,213,607,113,-59
-5,23,36,-10,-21,30,381,492,219,607,113,-47
1,11,18,-10,-9,12,381,504,225,613,131,-41
12,5,0,-10,8,0,387,510,225,619,131,-29
12,5,-6,-10,8,0,375,498,213,619,125,-29
24,17,-6,-21,14,6,369,492,213,613,131,-29
48,17,-23,-33,38,0,351,486,201,613,131,-29
48,5,-35,-27,44,-5,339,486,201,607,131,-23
54,11,-35,-33,44,-5,321,462,189,601,125,-29
66,11,-47,-39,56,-11,309,450,183,589,125,-29
78,17,-53,-45,68,-11,303,444,171,583,119,-35
78,23,-47,-51,62,-5,297,426,171,577,119,-35
78,29,-41,-51,62,0,285,414,153,565,113,-41
90,35,-47,-63,68,0,267,402,141,565,113,-29
84,23,-53,-51,68,-5,267,390,129,559,107,-29
96,17,-71,-57,86,-17,255,384,123,559,113,-29
114,11,-95,-63,104,-35,249,372,117,559,119,-29
120,23,-89,-69,104,-23,237,354,111,547,107,-29
120,17,-95,-69,110,-29,237,336,111,535,107,-35
126,5,-119,-63,122,-53,225,330,111,529,107,-35
126,5,-125,-57,122,-59,225,330,99,529,101,-29
126,5,-125,-57,122,-59,213,318,87,517,95,-23
114,-18,-137,-39,122,-77,195,306,63,505,89,-29
114,-18,-137,-39,122,-77,195,294,63,499,89,-23
96,-18,-119,-33,104,-65,201,288,69,505,83,-17
96,-18,-119,-33,104,-65,201,282,63,505,83,-17
90,-42,-137,-15,110,-89,201,288,63,511,83,-17
78,-42,-125,-10,98,-83,195,276,63,499,77,-11
72,-18,-95,-21,80,-53,189,264,45,487,71,-17
72,-24,-101,-15,86,-59,189,258,45,481,71,-17
78,-18,-101,-21,86,-59,183,264,39,475,77,-17
60,-24,-89,-10,74,-53,183,258,39,469,71,-11
48,-30,-83,-10,62,-53,195,258,39,469,65,-11
30,-36,-71,-4,50,-53,201,258,39,475,59,-17
12,-42,-59,8,32,-47,213,264,39,475,53,-23
7,-42,-41,14,14,-41,213,252,33,475,53,-35
1,-54,-47,26,14,-53,201,252,33,475,53,-35
1,-54,-47,26,14,-53,201,252,33,475,47,-41
-23,-66,-35,44,8,-53,213,252,39,475,47,-47
-23,-66,-35,44,8,-53,213,252,39,475,47,-47
-17,-66,-41,38,8,-53,219,246,33,457,47,-47
-23,-54,-23,38,3,-41,213,240,21,457,35,-47
-23,-72,-41,44,8,-59,219,240,15,445,29,-47
-29,-60,-23,44,3,-41,219,234,15,445,29,-53
-35,-60,-17,44,-3,-41,225,234,9,445,23,-59
-41,-72,-23,56,-3,-47,231,240,9,445,23,-59
-47,-102,-47,74,3,-77,225,240,9,445,29,-53
-65,-84,-11,74,-21,-47,231,234,9,433,29,-53
-59,-78,-11,68,-21,-47,225,234,9,433,23,-59
-59,-72,-6,62,-21,-41,225,234,9,439,23,-59
-53,-60,-6,56,-21,-29,219,228,15,439,23,-65
-53,-54,-6,50,-27,-23,213,222,9,427,11,-65
-65,-66,-6,62,-33,-29,219,228,9,433,11,-59
-53,-78,-17,62,-15,-47,219,228,9,439,11,-59
-53,-84,-23,68,-9,-53,231,234,9,445,11,-59
-53,-90,-29,68,-9,-59,231,234,9,439,17,-59
-59,-84,-17,68,-15,-53,225,234,9,427,23,-59
-59,-78,-11,68,-21,-47,225,234,9,427,23,-59
-77,-84,-6,80,-33,-41,225,240,9,427,17,-53
-77,-78,-6,74,-39,-35,225,240,15,427,17,-53
-71,-84,-6,74,-27,-47,231,240,15,421,23,-47
-71,-84,-6,74,-27,-47,231,234,9,421,23,-47
-65,-90,-17,74,-21,-53,231,222,9,415,11,-41
-59,-84,-17,68,-15,-53,231,222,9,415,11,-41
-65,-78,-6,68,-27,-41,243,234,9,421,11,-35
-65,-96,-23,80,-15,-59,243,240,15,421,17,-35
-71,-102,-23,86,-21,-65,249,240,27,427,29,-29
-71,-102,-23,86,-21,-65,249,240,27,427,35,-23
-77,-90,-6,80,-33,-47,243,240,15,415,23,-29
-71,-78,-6,74,-33,-41,237,234,15,403,23,-17
-59,-66,-6,62,-27,-35,231,228,15,391,17,-23
-53,-48,0,50,-27,-17,225,222,15,385,17,-29
-59,-48,6,50,-33,-17,231,222,9,391,17,-17
-65,-54,6,56,-39,-17,231,222,9,391,17,-17
-71,-60,6,62,-39,-23,255,222,9,403,17,-29
-77,-72,0,74,-39,-29,255,228,9,403,29,-29
-77,-66,6,68,-45,-23,255,234,9,403,35,-17
-89,-48,36,68,-63,0,255,234,15,403,35,-5
-101,-66,30,80,-69,-11,255,234,21,415,41,1
-83,-66,12,74,-51,-23,255,240,39,427,41,1
-83,-66,12,74,-51,-23,255,240,33,421,35,-5
-83,-66,12,74,-51,-23,255,240,33,409,35,-17
-83,-78,0,80,-45,-35,261,240,27,403,29,-17
-83,-96,-6,86,-33,-53,261,240,39,403,29,1
-83,-90,-6,86,-39,-47,255,240,33,415,29,7
-83,-78,0,80,-45,-35,255,240,33,415,35,7
-71,-54,12,62,-45,-17,255,240,21,415,35,13
-89,-54,30,68,-63,-5,261,240,21,415,35,13
-83,-48,30,62,-57,-5,261,240,21,409,35,7
-77,-42,30,56,-57,0,261,240,21,403,35,7
-71,-42,24,56,-51,-5,261,240,45,409,35,19
-77,-42,30,56,-57,0,261,234,45,403,35,19
-77,-48,24,62,-51,-5,261,240,27,403,35,7
-71,-42,24,56,-51,-5,261,240,27,403,35,7
-71,-48,18,56,-45,-11,261,246,27,397,35,13
-65,-42,18,50,-45,-5,255,246,27,397,35,13
-71,-30,36,50,-57,0,249,240,21,391,35,7
-83,-24,54,50,-69,6,249,240,27,397,35,1
-89,-12,72,50,-81,24,249,234,27,391,35,-5
-89,-6,78,44,-87,30,249,228,27,385,35,7
-83,-24,54,50,-69,6,255,234,33,385,35,13
-83,-42,36,62,-63,0,255,228,39,385,29,13
-71,-54,12,62,-45,-17,261,234,39,385,29,13
-71,-72,-6,68,-33,-35,267,240,39,385,29,19
-77,-60,12,68,-45,-17,261,240,33,391,29,19
-83,-60,18,68,-51,-17,261,246,33,397,29,19
-95,-54,36,74,-69,-5,255,246,27,397,35,19
-95,-48,42,68,-69,0,267,246,27,385,35,31
-95,-42,48,68,-75,0,261,240,27,379,29,31
-89,-36,48,62,-69,0,255,234,27,379,29,31
-89,-30,54,56,-75,6,255,228,39,367,17,25
-95,-30,60,62,-81,6,243,222,39,367,11,19
-95,-30,60,62,-81,6,237,222,27,355,5,7
-83,-30,48,56,-69,0,243,222,27,349,5,7
-83,-36,42,56,-63,0,255,216,21,343,11,1
-83,-36,42,56,-63,0,261,216,21,337,17,1
-83,-42,36,62,-63,0,255,216,21,325,17,7
-83,-42,36,62,-63,0,255,216,21,325,17,7
-89,-48,36,68,-63,0,249,228,21,319,11,13
-89,-42,42,62,-69,0,249,228,21,319,11,13
-83,-48,30,62,-57,-5,255,228,27,313,11,7
-83,-54,24,68,-57,-11,255,228,15,313,11,7
-89,-66,18,74,-57,-17,255,222,21,295,17,19
-71,-66,0,68,-39,-29,255,216,27,307,23,19
-77,-66,6,68,-45,-23,255,222,27,307,23,19
-77,-66,6,68,-45,-23,255,216,27,307,23,13
-89,-66,18,74,-57,-17,255,216,21,313,17,13
-89,-72,12,80,-51,-23,255,216,21,313,11,13
-77,-60,12,68,-45,-17,249,216,15,307,5,13
-77,-54,18,62,-51,-11,249,210,9,301,5,25
-77,-42,30,56,-57,0,243,204,9,289,5,1
-83,-36,42,56,-63,0,237,198,9,283,5,-17
-83,-42,36,62,-63,0,243,198,9,283,5,-5
-77,-48,24,62,-51,-5,243,198,9,277,5,13
-77,-60,12,68,-45,-17,237,198,9,277,5,13
-77,-66,6,68,-45,-23,237,198,15,271,11,19
-77,-84,-6,80,-33,-41,237,204,15,271,11,19
-77,-90,-6,80,-33,-47,255,210,9,283,5,19
-83,-96,-6,86,-33,-53,261,216,9,283,5,19
-83,-90,-6,86,-39,-47,255,204,9,283,5,25
-77,-72,0,74,-39,-29,249,216,9,277,5,19
-77,-60,12,68,-45,-17,249,210,9,265,5,13
-89,-48,36,68,-63,0,237,186,-2,253,-6,7
-77,-48,24,62,-51,-5,237,180,-2,247,-6,13
-77,-60,12,68,-45,-17,243,192,9,247,-6,7
-77,-60,12,68,-45,-17,243,180,9,235,-6,7
-77,-60,12,68,-45,-17,243,180,-2,229,-6,7
-83,-60,18,68,-51,-17,243,180,-2,229,0,7
-83,-66,12,74,-51,-23,237,180,-2,229,0,1
-77,-72,0,74,-39,-29,237,174,-2,229,0,-11
-77,-60,12,68,-45,-17,237,174,-2,223,0,1
-89,-84,0,86,-45,-35,243,174,4,223,0,7
-83,-78,0,80,-45,-35,243,180,9,223,5,19
-77,-72,0,74,-39,-29,243,180,9,223,5,19
-71,-72,-6,68,-33,-35,243,192,9,229,5,25
-71,-66,0,68,-39,-29,243,192,9,229,5,19
-71,-54,12,62,-45,-17,231,180,9,229,5,19
-71,-54,12,62,-45,-17,231,174,9,229,0,19
-77,-54,18,62,-51,-11,225,168,-2,223,-6,19
-77,-60,12,68,-45,-17,225,156,-2,223,-6,19
-65,-66,-6,62,-33,-29,231,162,4,217,-6,19
-77,-60,12,68,-45,-17,231,162,9,211,-6,13
-77,-66,6,68,-45,-23,237,168,9,205,0,13
-77,-66,6,68,-45,-23,237,174,9,199,0,19
-77,-72,0,74,-39,-29,237,174,9,199,0,13
-77,-72,0,74,-39,-29,237,174,9,199,0,1
-77,-72,0,74,-39,-29,237,174,9,199,0,7
-77,-66,6,68,-45,-23,237,174,9,199,0,13
-71,-60,6,62,-39,-23,231,168,4,193,-6,19
-71,-66,0,68,-39,-29,225,168,4,193,-12,19
-71,-66,0,68,-39,-29,231,168,-2,187,-18,25
-77,-78,-6,74,-39,-35,225,168,-8,187,-18,25
-83,-72,6,74,-45,-29,225,174,-14,187,-12,25
-77,-78,-6,74,-39,-35,231,174,4,187,-6,25
-83,-102,-11,92,-33,-59,237,174,9,193,0,19
-95,-96,-6,92,-45,-47,243,162,9,193,0,13
-89,-84,0,86,-45,-35,237,156,9,187,-6,7
-89,-78,6,80,-51,-29,237,162,9,187,-6,7
-83,-66,12,74,-51,-23,231,156,4,181,-24,1
-77,-60,12,68,-45,-17,225,156,4,181,-24,19
-77,-66,6,68,-45,-23,231,156,4,181,-18,19
-83,-66,12,74,-51,-23,231,156,4,181,-18,19
-89,-60,24,74,-57,-11,231,162,4,175,-18,1
-95,-66,24,80,-63,-17,231,168,4,175,-18,19
-89,-90,-6,86,-45,-41,231,168,9,175,0,25
-89,-102,-6,92,-39,-53,237,168,9,175,0,25
-83,-108,-17,92,-27,-65,231,168,9,181,5,19
-83,-108,-17,92,-27,-65,231,168,9,181,5,19
-83,-102,-11,92,-33,-59,225,156,9,175,-6,19
-71,-84,-6,74,-27,-47,225,156,4,169,-12,19
-65,-72,-6,68,-27,-35,219,144,-2,163,-18,19
-65,-72,-6,68,-27,-35,219,144,-2,169,-24,19
-71,-90,-11,80,-27,-53,225,144,-2,169,-18,25
-71,-84,-6,74,-27,-47,219,144,-2,169,-18,25
-71,-72,-6,68,-33,-35,219,132,-2,163,-18,13
-71,-78,-6,74,-33,-41,219,132,4,163,-12,13
-71,-84,-6,74,-27,-47,213,138,9,169,-12,25
-71,-84,-6,74,-27,-47,213,138,4,169,-12,13
-77,-78,-6,74,-39,-35,207,132,-2,163,-12,7
-65,-60,0,62,-33,-23,207,132,-8,163,-12,19
-83,-90,-6,86,-39,-47,219,132,-2,145,-18,13
-89,-78,6,80,-51,-29,219,126,-2,133,-18,7
-95,-72,18,80,-57,-23,219,126,4,115,-24,1
-95,-84,6,86,-51,-35,219,132,4,103,-18,13
-95,-90,0,92,-51,-41,219,132,9,97,-6,13
-95,-96,-6,92,-45,-47,219,138,9,85,-6,7
-89,-96,-6,92,-39,-47,219,138,9,79,-12,7
-83,-84,-6,80,-39,-41,219,138,4,73,-24,1
-77,-72,0,74,-39,-29,213,132,-8,67,-42,-5
-77,-60,12,68,-45,-17,207,114,-8,61,-42,7
-77,-60,12,68,-45,-17,207,120,-14,61,-48,13
-71,-48,18,56,-45,-11,213,114,-8,55,-42,13
-47,-102,-47,74,3,-77,225,150,9,73,-6,37
-83,-102,-11,92,-33,-59,225,138,9,73,-24,19
-83,-84,-6,80,-39,-41,207,126,-2,61,-36,-5
-71,-48,18,56,-45,-11,195,114,-14,49,-30,-5
-89,-36,48,62,-69,0,201,114,-20,43,-36,-11
-89,-54,30,68,-63,-5,201,114,-14,49,-30,-5
-89,-72,12,80,-51,-23,201,114,-14,55,-30,-5
-89,-90,-6,86,-45,-41,201,114,-8,61,-24,1
-89,-108,-11,98,-33,-59,201,114,-8,67,-24,1
-89,-108,-11,98,-33,-59,201,120,-8,67,-30,1
-77,-102,-17,86,-27,-59,195,120,-8,67,-30,-5
-77,-96,-11,86,-27,-53,189,120,-8,61,-36,-5
-77,-90,-6,80,-33,-47,189,120,-8,61,-36,-5
-77,-84,-6,80,-33,-41,189,120,-8,55,-36,-11
-77,-84,-6,80,-33,-41,195,120,-8,67,-36,-11
-77,-96,-11,86,-27,-53,195,120,-2,73,-30,1
-77,-96,-11,86,-27,-53,195,108,-2,61,-42,-11
-71,-78,-6,74,-33,-41,183,102,-8,55,-48,-17
-71,-66,0,68,-39,-29,177,96,-14,49,-42,-23
-65,-48,12,56,-39,-11,171,90,-20,43,-48,-29
-65,-36,24,50,-45,0,165,84,-26,43,-48,-29
-65,-48,12,56,-39,-11,171,96,-20,49,-36,-23
-65,-60,0,62,-33,-23,171,102,-20,49,-36,-11
-59,-72,-6,62,-21,-41,177,114,-14,61,-36,-5
-59,-96,-29,74,-9,-65,183,120,-8,61,-36,1
-83,-90,-6,86,-39,-47,189,114,-8,61,-42,-5
-71,-84,-6,74,-27,-47,189,108,-8,61,-42,-5
-71,-60,6,62,-39,-23,189,102,-8,61,-48,-11
-71,-60,6,62,-39,-23,189,96,-8,61,-48,-5
-71,-60,6,62,-39,-23,189,96,-8,61,-48,-5
-59,-60,-6,56,-27,-29,183,96,-8,61,-48,-5
-59,-72,-6,62,-21,-41,183,90,-8,67,-48,-17
-59,-72,-6,62,-21,-41,183,90,-2,67,-48,-17
-47,-72,-17,56,-9,-47,183,96,-2,55,-48,-17
-47,-48,-6,44,-21,-23,189,102,-2,55,-42,-11
-47,-42,0,44,-27,-17,195,102,-2,67,-36,-11
-41,-30,6,32,-27,-5,201,114,9,73,-30,-5
-35,-12,18,20,-27,0,201,120,9,73,-36,1
-29,-6,18,14,-27,0,207,132,15,73,-24,1
-29,-12,12,20,-21,0,201,126,9,67,-30,-5
-17,5,30,-4,-21,18,201,126,9,73,-30,-5
-11,5,24,-4,-15,12,219,144,15,85,-24,1
-11,5,18,-4,-15,6,219,150,27,85,-18,13
-5,5,6,-4,-9,0,231,156,39,109,0,37
1,-6,-6,2,3,-5,231,156,45,115,5,49
7,5,-6,-10,3,0,225,156,45,109,5,43
7,5,-6,-10,3,0,225,162,51,109,5,55
12,11,0,-10,8,6,225,174,63,109,5,61
24,11,-6,-15,14,0,219,174,75,115,23,73
30,53,18,-39,8,36,219,186,93,139,47,79
48,77,24,-63,8,54,213,192,99,145,47,85
54,89,30,-69,8,60,207,198,105,151,59,79
54,95,36,-75,8,66,195,198,111,157,59,79
60,95,30,-75,8,66,189,192,111,157,65,85
60,95,30,-75,8,66,183,186,105,145,59,79
60,83,18,-69,14,54,189,174,111,139,59,79
60,71,6,-63,20,42,177,156,99,121,41,73
54,41,-6,-45,32,12,165,138,81,115,29,73
48,17,-23,-33,38,0,159,126,69,103,17,61
42,0,-47,-15,44,-23,153,108,51,91,11,61
42,0,-47,-15,44,-23,153,102,45,85,5,61
48,0,-53,-15,50,-23,141,90,33,73,5,55
36,-30,-71,-10,50,-47,135,90,27,67,5,43
30,-30,-65,-10,44,-47,123,78,21,67,0,37
30,-24,-59,-10,44,-41,123,78,21,61,0,31
24,-18,-47,-10,32,-29,123,72,15,55,-6,31
30,-18,-53,-10,38,-35,123,66,15,49,-12,19
30,-18,-53,-10,38,-35,117,66,9,43,-18,13
12,-18,-35,-4,20,-23,141,72,21,55,-18,13
-5,-12,-6,8,3,-5,165,96,27,61,-18,19
-17,-12,0,14,-9,0,189,102,39,61,-18,19
-23,-12,6,14,-15,0,189,114,39,55,-12,19
-23,-12,6,14,-15,0,177,126,51,67,0,25
-47,-54,-6,50,-21,-29,225,150,63,79,5,37
-53,-48,0,50,-27,-17,225,168,69,91,5,31
-35,0,30,14,-33,6,195,156,69,79,5,13
-5,23,36,-10,-21,30,171,162,87,97,5,19
1,23,30,-10,-15,24,141,174,111,109,5,25
7,59,60,-27,-27,60,81,150,93,91,0,7
24,113,84,-69,-21,102,33,132,81,91,5,19
30,77,42,-51,3,60,33,168,117,127,29,49
36,29,-6,-33,20,12,15,192,135,139,47,55
72,29,-35,-51,56,0,-14,186,123,145,41,55
96,41,-47,-69,74,0,-32,198,147,157,65,67
84,5,-77,-39,80,-29,-50,198,147,163,77,73
96,0,-101,-39,98,-47,-104,138,111,133,53,55
144,11,-125,-75,134,-47,-140,108,93,121,41,61
144,5,-131,-75,140,-53,-140,114,117,145,71,79
132,17,-107,-75,122,-35,-170,90,105,133,65,67
150,53,-89,-99,122,-11,-200,66,99,133,53,55
168,41,-119,-105,146,-29,-218,36,99,133,71,79
162,29,-125,-93,146,-41,-254,0,81,133,71,73
174,53,-113,-111,146,-23,-278,-35,57,121,53,61
192,65,-119,-129,158,-17,-278,-47,57,121,71,79
186,65,-113,-123,152,-17,-284,-71,45,121,83,103
210,83,-119,-147,164,-11,-326,-137,9,97,71,91
234,65,-161,-147,200,-41,-344,-179,9,91,71,97
222,5,-209,-111,218,-95,-350,-185,9,121,107,133
246,-24,-269,-105,254,-149,-368,-209,-2,109,101,127
306,-18,-329,-141,314,-173,-428,-257,-56,73,89,97
360,-18,-383,-165,368,-203,-476,-317,-92,67,101,115
402,-48,-455,-171,428,-245,-548,-395,-122,61,125,151
462,-18,-485,-219,470,-245,-644,-521,-206,25,125,169
528,5,-521,-261,524,-251,-758,-647,-272,-5,125,175
588,5,-587,-291,584,-287,-878,-797,-374,-40,131,205
690,35,-647,-363,668,-299,-1016,-971,-482,-100,137,229
822,89,-731,-459,776,-311,-1142,-1139,-554,-112,197,313
918,125,-785,-519,854,-323,-1214,-1253,-602,-106,281,415
984,167,-809,-573,896,-317,-1274,-1331,-656,-106,335,499
1062,221,-839,-639,956,-305,-1316,-1355,-662,-106,401,565
1134,269,-857,-705,992,-287,-1364,-1367,-662,-70,479,655
1194,329,-857,-759,1022,-257,-1424,-1391,-674,-58,539,727
1278,377,-899,-825,1088,-251,-1448,-1391,-674,-11,611,805
1320,437,-881,-879,1100,-221,-1418,-1319,-608,73,737,913
1296,491,-803,-891,1052,-155,-1364,-1229,-524,187,845,1021
1284,539,-737,-915,1010,-95,-1298,-1151,-434,277,929,1093
1260,599,-659,-933,962,-23,-1190,-1031,-326,361,1013,1165
1182,623,-551,-903,866,30,-1076,-917,-230,445,1091,1225
1092,653,-437,-873,764,108,-968,-821,-146,505,1157,1291
1038,689,-347,-861,698,168,-884,-749,-74,553,1193,1315
960,665,-287,-807,626,186,-776,-677,-20,571,1181,1297
846,599,-245,-723,542,180,-692,-587,15,571,1121,1225
738,551,-179,-645,458,186,-590,-479,75,583,1067,1135
576,527,-41,-549,308,240,-458,-365,141,589,977,1003
372,437,60,-405,152,246,-326,-287,153,553,821,823
240,323,84,-279,74,210,-230,-239,105,433,605,625
180,185,0,-183,86,96,-152,-209,27,247,371,397
108,5,-107,-51,104,-47,-68,-161,-20,103,173,211
42,-96,-143,20,92,-119,-2,-143,-56,1,47,91
18,-60,-83,14,50,-71,15,-149,-74,-52,-12,37
-11,-30,-11,20,3,-23,57,-149,-80,-76,-48,1
-83,-72,6,74,-45,-29,63,-143,-62,-58,-60,-17
-101,-84,12,92,-57,-29,87,-119,-38,-34,-54,-5
-89,-84,0,86,-45,-35,111,-95,-8,-11,-36,7
-113,-72,36,92,-75,-11,111,-77,-2,-16,-60,-23
-125,-48,72,86,-99,6,99,-83,-20,-46,-102,-59
-119,-66,48,92,-87,-5,117,-53,-8,-52,-108,-71
-119,-84,30,98,-75,-23,141,-29,9,-40,-108,-71
-119,-96,18,104,-69,-35,159,-23,9,-46,-114,-71
-125,-108,12,116,-69,-41,165,-29,9,-64,-114,-83
-119,-114,0,116,-63,-53,171,-29,4,-64,-114,-77
-137,-126,6,128,-75,-53,177,-29,4,-64,-114,-71
-143,-138,0,140,-75,-65,189,-29,4,-58,-114,-77
-143,-114,24,128,-87,-41,195,-29,4,-64,-120,-71
-155,-114,36,134,-99,-35,201,-17,4,-70,-120,-65
-161,-114,42,134,-105,-29,183,-5,9,-70,-126,-77
-161,-114,42,134,-105,-29,177,-5,9,-70,-138,-77
-161,-114,42,134,-105,-29,171,0,9,-64,-138,-77
-155,-108,42,128,-99,-29,183,0,9,-70,-144,-83
-149,-108,36,128,-93,-29,183,-5,9,-82,-144,-89
-143,-102,36,122,-93,-29,189,-11,4,-88,-150,-95
-143,-96,42,116,-93,-23,195,-17,-2,-100,-156,-101
-155,-102,48,128,-105,-23,189,-29,-2,-106,-156,-95
-161,-102,54,128,-111,-17,189,-17,-2,-106,-162,-101
-167,-108,54,134,-111,-23,183,-11,9,-100,-162,-95
-185,-108,72,146,-129,-11,183,-11,9,-100,-168,-89
-161,-108,48,134,-105,-23,189,0,9,-106,-162,-89
-143,-96,42,116,-93,-23,189,0,9,-106,-162,-83
-131,-96,30,110,-81,-29,195,6,15,-112,-156,-89
-125,-102,18,110,-75,-35,195,12,15,-106,-156,-95
-125,-102,18,110,-75,-35,189,6,9,-112,-156,-89
-125,-90,30,104,-81,-23,183,0,9,-112,-144,-89
-143,-108,30,122,-87,-35,183,0,9,-118,-162,-83
-149,-96,48,122,-99,-17,177,-5,-2,-118,-162,-83
-155,-96,54,122,-105,-17,177,6,4,-118,-162,-83
-143,-96,42,116,-93,-23,177,6,9,-118,-162,-77
-149,-96,48,122,-99,-17,183,12,9,-118,-162,-77
-149,-96,48,122,-99,-17,189,18,21,-118,-156,-77
-137,-90,42,110,-93,-17,183,18,21,-118,-162,-77
-137,-90,42,110,-93,-17,183,12,15,-124,-162,-77
-131,-72,54,98,-93,-5,177,12,15,-124,-162,-89
-131,-72,54,98,-93,-5,171,12,9,-130,-162,-89
-137,-78,54,104,-99,-5,171,6,9,-124,-162,-89
-137,-72,60,104,-99,0,171,6,9,-124,-162,-89
-149,-90,54,116,-105,-11,177,12,9,-118,-156,-83
-149,-96,48,122,-99,-17,177,18,9,-130,-156,-83
-137,-102,30,116,-87,-29,177,30,15,-130,-156,-77
-131,-102,24,116,-81,-35,177,36,21,-130,-156,-77
-125,-108,12,116,-69,-41,177,42,33,-124,-150,-59
-125,-102,18,110,-75,-35,177,42,39,-124,-150,-59
-125,-90,30,104,-81,-23,171,36,39,-130,-150,-65
-125,-90,30,104,-81,-23,171,30,33,-136,-150,-65
-131,-84,42,104,-87,-17,177,42,27,-136,-144,-59
-131,-66,60,98,-99,0,183,42,27,-130,-144,-59
-125,-90,30,104,-81,-23,195,54,45,-124,-138,-53
-119,-114,0,116,-63,-53,195,54,45,-118,-138,-53
-119,-126,-6,122,-57,-65,195,66,51,-112,-120,-41
-119,-108,6,110,-63,-47,195,72,51,-106,-120,-35
-113,-102,6,104,-63,-41,195,72,57,-112,-126,-41
-101,-96,0,98,-51,-41,195,72,63,-118,-126,-41
-95,-84,6,86,-51,-35,189,66,63,-118,-132,-47
-89,-78,6,80,-51,-29,189,78,63,-112,-138,-47
-101,-48,48,74,-75,0,183,72,69,-118,-138,-41
-101,-36,60,68,-81,6,177,72,63,-118,-144,-53
-107,-30,72,68,-93,12,183,66,63,-118,-144,-59
-107,-24,78,62,-93,18,183,78,63,-112,-150,-59
-107,-42,60,74,-87,0,189,84,75,-100,-138,-41
-95,-48,42,68,-69,0,195,90,81,-100,-126,-35
-101,-48,48,74,-75,0,201,96,99,-94,-114,-29
-101,-60,36,80,-69,-5,207,102,105,-88,-108,-29
-89,-48,36,68,-63,0,201,102,99,-94,-114,-35
-77,-42,30,56,-57,0,195,102,111,-94,-108,-29
-71,-30,36,50,-57,0,189,96,111,-94,-108,-35
-71,-24,42,44,-57,0,195,96,105,-94,-114,-35
-83,-24,54,50,-69,6,207,102,111,-94,-108,-35
-83,-24,54,50,-69,6,201,114,111,-94,-108,-29
-77,-12,60,44,-69,18,183,120,111,-100,-114,-29
-59,-6,48,32,-57,12,177,132,117,-100,-102,-17
-65,0,60,32,-63,24,171,126,117,-100,-102,-17
-65,5,72,26,-69,36,177,120,117,-88,-102,-17
-47,5,60,14,-51,30,183,120,129,-88,-102,-17
-47,5,60,14,-51,30,189,120,129,-70,-84,-17
-53,11,72,14,-63,42,183,126,135,-70,-78,-5
-41,5,42,14,-45,18,183,132,141,-64,-72,-5
-47,0,42,20,-45,12,183,144,141,-70,-66,13
-53,5,60,20,-57,30,183,144,141,-76,-66,19
-35,23,66,-4,-51,42,171,144,135,-82,-66,19
-23,35,66,-10,-45,48,165,138,135,-82,-66,13
-11,59,78,-15,-45,66,159,132,135,-88,-60,7
-5,65,78,-21,-39,72,159,126,141,-94,-54,13
7,53,54,-21,-21,54,165,132,135,-88,-36,31
12,47,42,-21,-15,42,159,132,141,-70,-30,37
12,41,36,-21,-9,36,159,126,135,-58,-30,49
12,41,24,-27,3,36,159,126,135,-58,-24,61
12,41,30,-21,-3,36,141,126,135,-64,-30,67
12,41,30,-21,-3,36,141,114,135,-64,-30,73
12,41,24,-27,3,36,129,114,135,-70,-24,73
24,41,12,-33,8,30,129,114,129,-64,-24,79
24,41,12,-33,8,30,117,102,123,-64,-30,73
36,53,12,-45,8,36,117,102,123,-70,-24,73
48,53,0,-51,20,30,99,96,117,-70,-24,67
48,41,-6,-45,26,18,93,96,117,-76,-24,73
54,35,-11,-45,32,6,81,84,105,-76,-24,73
66,35,-23,-51,44,0,69,72,99,-88,-24,73
78,29,-41,-51,62,0,69,78,87,-88,-24,73
78,35,-35,-57,56,0,63,60,87,-94,-24,73
78,41,-29,-57,56,0,57,48,81,-106,-24,73
90,41,-41,-63,68,0,39,36,69,-106,-24,79
84,29,-47,-57,68,0,45,24,69,-112,-24,85
96,17,-71,-57,86,-17,27,18,63,-112,-18,85
114,11,-95,-63,104,-35,21,12,57,-112,-18,85
114,23,-83,-69,98,-23,15,0,51,-124,-30,85
114,17,-89,-63,104,-29,15,-5,51,-136,-36,79
114,5,-107,-57,110,-47,10,-11,51,-142,-36,79
114,5,-101,-57,110,-41,10,-17,45,-142,-36,79
114,11,-95,-63,104,-35,-2,-29,33,-154,-42,79
102,5,-95,-51,98,-41,-20,-47,15,-166,-42,73
102,5,-89,-51,98,-35,-20,-59,15,-172,-42,73
96,17,-71,-57,86,-17,-26,-71,15,-178,-54,73
96,17,-71,-57,86,-17,-26,-77,9,-178,-54,67
102,5,-89,-51,98,-35,-38,-77,9,-184,-60,61
90,5,-77,-45,86,-29,-44,-89,9,-196,-66,61
78,11,-59,-45,68,-17,-44,-101,4,-190,-72,61
78,5,-77,-33,74,-35,-44,-101,9,-190,-66,67
78,-6,-89,-27,80,-47,-44,-95,9,-184,-60,73
60,-24,-89,-10,74,-53,-44,-95,9,-184,-60,79
54,-24,-83,-10,68,-53,-38,-101,9,-190,-60,79
42,-24,-71,-10,56,-47,-32,-101,9,-190,-66,79
30,-24,-59,-10,44,-41,-26,-101,9,-190,-66,73
18,-18,-41,-10,26,-29,-26,-113,-2,-202,-66,61
12,-36,-53,2,32,-41,-38,-119,4,-196,-66,61
12,-36,-53,2,32,-41,-38,-119,9,-190,-72,55
1,-54,-47,26,14,-53,-26,-125,9,-184,-72,49
1,-54,-47,26,14,-53,-26,-125,15,-178,-72,49
1,-42,-35,20,8,-41,-26,-137,15,-196,-72,49
-5,-24,-11,14,8,-17,-32,-143,9,-196,-84,49
-11,-30,-11,20,3,-23,-32,-155,9,-208,-90,49
-17,-12,0,14,-9,0,-32,-161,9,-208,-90,43
-23,-12,6,14,-15,0,-26,-161,9,-208,-102,25
-23,-24,-6,20,-9,-11,-26,-155,9,-208,-102,25
-29,-54,-17,38,-3,-35,-32,-155,9,-208,-102,19
-41,-36,0,38,-21,-11,-32,-161,9,-220,-102,19
-41,-42,-6,38,-21,-17,-32,-161,9,-220,-102,25
-41,-42,-6,38,-21,-17,-32,-161,9,-214,-102,25
-41,-42,-6,38,-21,-17,-32,-167,9,-214,-96,31
-41,-42,-6,38,-21,-17,-38,-173,9,-226,-108,31
-47,-36,6,38,-27,-11,-38,-173,9,-232,-114,25
-35,-36,-6,32,-15,-17,-38,-173,9,-226,-114,19
-29,-24,0,26,-15,-5,-32,-173,9,-232,-120,7
-29,-18,6,20,-21,0,-32,-173,9,-238,-114,1
-35,-18,12,26,-27,0,-44,-179,9,-238,-108,7
-35,-18,12,26,-27,0,-44,-179,9,-238,-108,7
-53,-30,18,38,-39,0,-50,-179,9,-226,-114,19
-53,-30,18,38,-39,0,-50,-173,9,-226,-114,19
-53,-42,6,44,-33,-11,-38,-167,15,-226,-102,19
-53,-48,0,50,-27,-17,-32,-173,9,-226,-102,19
-53,-60,-6,56,-21,-29,-26,-173,21,-226,-108,19
-47,-60,-6,50,-15,-35,-20,-173,27,-226,-108,19
-47,-36,6,38,-27,-11,-20,-173,21,-232,-114,19
-47,-42,0,44,-27,-17,-26,-173,21,-232,-114,13
-47,-30,12,38,-33,-5,-32,-185,21,-238,-108,13
-47,-18,24,32,-39,0,-38,-185,15,-238,-108,13
-59,-24,30,38,-45,0,-38,-185,15,-232,-108,13
-59,-30,24,44,-45,0,-38,-185,15,-238,-108,31
-53,-36,12,44,-33,-5,-38,-185,27,-232,-102,31
-53,-36,12,44,-33,-5,-38,-185,27,-232,-102,31
-53,-18,30,32,-45,0,-44,-185,27,-232,-102,43
-53,-12,36,32,-45,6,-44,-185,27,-232,-102,43
-53,0,48,26,-51,18,-32,-185,33,-226,-102,31
-53,0,48,26,-51,18,-32,-179,33,-226,-90,31
-53,-12,36,32,-45,6,-26,-167,33,-226,-90,37
-65,-6,54,32,-63,18,-20,-167,33,-226,-90,49
-77,-42,30,56,-57,0,-14,-161,39,-214,-90,49
-59,-54,0,56,-33,-23,-8,-155,51,-202,-90,49
-53,-30,18,38,-39,0,-20,-161,45,-208,-96,43
-53,-12,36,32,-45,6,-26,-167,45,-220,-96,31
-47,0,42,20,-45,12,-26,-167,39,-226,-102,31
-47,0,42,20,-45,12,-32,-173,51,-226,-102,49
-47,-6,36,26,-45,6,-32,-167,51,-214,-96,61
-47,0,42,20,-45,12,-32,-167,51,-208,-84,61
-35,5,42,8,-39,18,-32,-161,45,-208,-78,73
-53,5,54,20,-57,24,-20,-161,45,-202,-72,73
-53,5,60,20,-57,30,-20,-161,33,-208,-84,61
-47,5,54,14,-51,24,-26,-167,33,-214,-90,55
-47,5,54,14,-51,24,-26,-173,45,-208,-102,61
-53,5,54,20,-57,24,-32,-185,45,-214,-108,55
-53,0,48,26,-51,18,-32,-179,39,-208,-102,43
-47,0,42,20,-45,12,-32,-173,39,-208,-102,43
-47,-6,36,26,-45,6,-32,-167,51,-208,-96,49
-41,-6,30,20,-39,6,-38,-167,51,-208,-96,49
-41,0,36,20,-39,12,-38,-173,45,-214,-96,49
-53,0,48,26,-51,18,-38,-167,51,-208,-96,43
-53,5,54,20,-57,24,-26,-167,51,-214,-96,43
-53,5,54,20,-57,24,-26,-167,51,-220,-96,55
-53,5,60,20,-57,30,-32,-173,51,-226,-96,55
-53,5,60,20,-57,30,-32,-185,51,-226,-102,49
-47,11,66,8,-57,36,-38,-191,45,-232,-102,43
-47,11,66,8,-57,36,-38,-185,39,-232,-102,43
-41,17,66,2,-51,42,-44,-185,45,-232,-102,43
-47,11,66,8,-57,36,-44,-179,45,-226,-102,43
-47,11,66,8,-57,36,-50,-179,51,-232,-96,43
-47,11,66,8,-57,36,-38,-179,51,-244,-96,55
-47,5,60,14,-51,30,-44,-179,45,-244,-96,61
-41,11,60,8,-51,36,-44,-185,45,-244,-96,67
-41,5,54,8,-45,30,-50,-185,51,-250,-102,67
-47,5,60,14,-51,30,-56,-185,51,-250,-108,67
-47,5,54,14,-51,24,-56,-185,45,-256,-114,55
-35,5,42,8,-39,18,-50,-185,45,-256,-114,55
-35,0,30,14,-33,6,-32,-191,45,-262,-108,49
-35,0,30,14,-33,6,-20,-191,45,-262,-102,49
-35,-6,24,20,-33,0,-26,-191,45,-262,-102,49
-35,-6,24,20,-33,0,-32,-191,45,-262,-102,49
-41,-12,24,26,-33,0,-38,-179,45,-256,-108,49
-41,-6,30,20,-39,6,-38,-179,45,-256,-108,49
-41,0,36,20,-39,12,-32,-185,45,-262,-114,37
-41,0,36,20,-39,12,-32,-191,33,-262,-114,37
-53,0,48,26,-51,18,-38,-203,33,-280,-114,43
-35,5,36,14,-39,12,-38,-215,39,-268,-108,43
-41,5,48,14,-45,24,-38,-221,39,-280,-114,37
-41,5,48,14,-45,24,-44,-227,33,-286,-114,31
-53,5,66,14,-57,36,-50,-239,27,-292,-126,25
-53,5,60,20,-57,30,-56,-239,21,-298,-132,25
-53,5,54,20,-57,24,-50,-227,21,-292,-126,37
-53,5,54,20,-57,24,-50,-227,21,-292,-132,49
-65,0,60,32,-63,24,-44,-221,21,-292,-126,37
-71,0,66,32,-69,24,-50,-221,27,-292,-120,19
-65,5,66,26,-69,30,-50,-227,27,-292,-120,19
-59,5,60,26,-63,24,-56,-227,27,-298,-126,31
-53,5,54,20,-57,24,-68,-233,21,-298,-126,19
-53,5,54,20,-57,24,-74,-233,27,-304,-120,19
-53,0,48,26,-51,18,-74,-233,27,-310,-120,19
-53,-6,42,26,-51,12,-56,-227,21,-298,-126,19
-59,0,54,26,-57,18,-44,-227,21,-304,-126,19
-59,5,60,26,-63,24,-56,-239,21,-304,-126,25
-53,5,54,20,-57,24,-56,-227,21,-304,-120,25
-53,5,54,20,-57,24,-56,-227,21,-310,-120,19
-65,0,60,32,-63,24,-62,-245,9,-316,-126,19
-53,-12,36,32,-45,6,-62,-245,9,-316,-126,25
-59,-18,36,38,-51,0,-62,-239,15,-310,-126,25
-59,-18,36,38,-51,0,-62,-245,15,-322,-126,25
-65,-12,48,38,-57,12,-68,-245,9,-322,-126,31
-71,-12,54,38,-63,12,-68,-245,9,-322,-120,31
-65,-12,48,38,-57,12,-68,-245,9,-322,-126,25
-53,-12,36,32,-45,6,-68,-251,9,-322,-126,13
-47,5,48,20,-51,18,-62,-251,9,-322,-132,25
-53,-12,36,32,-45,6,-56,-251,15,-322,-132,31
-59,-12,42,32,-51,6,-62,-251,15,-322,-126,37
-59,-12,42,32,-51,6,-62,-251,15,-322,-126,37
-65,-18,42,38,-57,6,-68,-245,15,-310,-120,37
-71,-18,48,44,-63,6,-68,-245,21,-310,-114,31
-59,5,60,26,-63,24,-80,-257,15,-322,-120,25
-53,5,60,20,-57,30,-80,-257,9,-328,-138,25
-47,11,66,8,-57,36,-86,-263,9,-340,-144,19
-41,11,60,8,-51,36,-86,-269,9,-346,-150,19
-35,5,48,8,-39,24,-80,-263,9,-340,-144,19
-47,5,60,14,-51,30,-74,-269,9,-340,-144,13
-53,5,60,20,-57,30,-68,-263,9,-334,-132,13
-53,5,54,20,-57,24,-62,-263,9,-334,-132,19
-59,0,54,26,-57,18,-68,-263,9,-340,-132,19
-59,-6,48,32,-57,12,-68,-263,9,-340,-132,7
-65,-6,54,32,-63,18,-74,-263,9,-346,-132,19
-65,-6,54,32,-63,18,-74,-263,9,-346,-132,25
-59,0,54,26,-57,18,-80,-269,9,-352,-132,25
-59,0,54,26,-57,18,-80,-269,9,-352,-138,25
-59,0,54,26,-57,18,-74,-269,9,-358,-138,25
-65,-6,54,32,-63,18,-74,-269,9,-358,-138,25
-59,0,54,26,-57,18,-80,-269,4,-352,-132,31
-53,0,48,26,-51,18,-80,-269,9,-352,-126,37
-47,-24,18,32,-33,0,-80,-275,9,-340,-120,37
-59,-12,42,32,-51,6,-80,-287,9,-340,-120,37
-71,5,84,26,-75,42,-80,-275,9,-358,-132,25
-71,53,132,2,-99,90,-104,-293,-8,-382,-156,7
-47,35,90,-4,-69,60,-92,-293,4,-376,-144,7
-53,5,60,20,-57,30,-86,-275,9,-370,-144,13
-59,5,72,20,-63,36,-86,-281,9,-376,-144,13
-59,5,72,20,-63,36,-86,-281,9,-376,-144,13
-65,11,84,20,-75,48,-86,-287,4,-382,-144,13
-65,11,84,20,-75,48,-86,-287,4,-382,-144,13
-71,5,72,32,-75,30,-80,-281,9,-370,-138,19
-59,0,54,26,-57,18,-86,-281,9,-370,-138,19
-65,-12,48,38,-57,12,-86,-281,9,-364,-132,25
-65,-18,42,38,-57,6,-86,-281,9,-364,-132,31
-65,0,60,32,-63,24,-92,-287,4,-382,-144,19
-65,5,66,26,-69,30,-86,-287,4,-376,-144,13
-65,5,66,26,-69,30,-92,-293,-2,-382,-150,19
-65,5,72,26,-69,36,-92,-305,-2,-400,-162,1
-59,5,72,20,-63,36,-98,-305,-2,-394,-156,7
-59,5,72,20,-63,36,-98,-305,-2,-388,-144,7
-53,11,72,14,-63,42,-98,-305,-2,-382,-138,13
-53,11,72,14,-63,42,-98,-305,-2,-370,-132,19
-53,5,66,14,-57,36,-92,-293,4,-376,-126,25
-53,5,60,20,-57,30,-92,-293,9,-376,-126,31
-47,5,48,20,-51,18,-86,-281,9,-376,-132,37
-47,-12,30,26,-39,0,-80,-281,15,-376,-132,37
-71,-12,54,38,-63,12,-74,-287,9,-382,-138,31
-59,-6,48,32,-57,12,-74,-287,9,-382,-138,31
-59,5,66,20,-63,30,-74,-293,9,-388,-144,25
-59,5,66,20,-63,30,-74,-293,9,-388,-144,31
-53,11,72,14,-63,42,-80,-293,9,-388,-144,37
-41,17,66,2,-51,42,-86,-299,9,-388,-144,37
-35,17,60,2,-45,36,-92,-305,4,-382,-144,31
-35,23,66,-4,-51,42,-92,-311,9,-382,-144,31
-29,23,60,-4,-45,42,-98,-305,4,-394,-150,25
-29,47,84,-10,-57,66,-92,-299,4,-394,-144,25
-35,53,96,-10,-63,72,-92,-299,-2,-382,-144,19
-29,65,102,-10,-63,84,-86,-287,9,-376,-138,19
-23,65,96,-15,-57,78,-74,-281,9,-370,-132,31
-17,59,84,-15,-51,72,-68,-275,21,-370,-120,31
-17,35,60,-10,-39,48,-62,-281,9,-370,-114,31
-5,53,66,-15,-33,60,-62,-287,9,-364,-114,31
1,59,66,-21,-33,60,-50,-263,27,-352,-108,37
1,59,66,-21,-33,60,-50,-257,39,-352,-102,49
7,59,60,-27,-27,60,-44,-245,51,-328,-84,73
12,53,48,-27,-15,48,-44,-245,57,-322,-72,79
12,71,66,-33,-27,66,-44,-239,57,-322,-78,79
12,71,66,-33,-27,66,-44,-239,63,-322,-72,91
12,95,84,-51,-33,90,-38,-221,75,-316,-66,103
24,95,66,-57,-15,84,-44,-221,87,-310,-48,115
30,137,102,-81,-27,120,-50,-215,93,-298,-36,121
48,161,108,-105,-21,138,-56,-215,93,-298,-42,127
54,173,114,-111,-21,144,-68,-215,87,-304,-42,121
54,179,120,-117,-27,150,-80,-221,87,-304,-48,115
60,179,114,-117,-21,150,-86,-227,93,-292,-36,127
60,179,114,-117,-21,150,-92,-227,93,-292,-36,127
60,167,102,-111,-15,138,-86,-239,105,-286,-30,133
60,155,90,-105,-9,126,-98,-245,99,-292,-42,127
60,137,72,-99,3,108,-110,-257,75,-310,-54,121
54,119,60,-87,3,90,-116,-269,63,-322,-66,103
54,101,42,-75,8,72,-122,-281,39,-346,-72,97
54,107,48,-81,8,78,-122,-287,33,-352,-78,91
60,89,24,-75,14,60,-128,-293,27,-364,-84,91
48,47,-6,-45,20,24,-128,-287,27,-364,-84,85
42,29,-6,-33,26,6,-134,-293,27,-364,-96,85
42,23,-11,-33,26,0,-128,-287,33,-364,-96,85
36,29,-6,-33,20,12,-116,-287,27,-364,-90,85
36,29,-6,-33,20,12,-116,-287,27,-370,-96,79
36,29,-6,-33,20,12,-110,-281,21,-370,-90,73
12,29,12,-21,8,24,-86,-269,33,-358,-90,73
1,41,48,-15,-21,42,-68,-251,39,-352,-90,79
-11,41,60,-10,-33,48,-44,-251,45,-352,-96,79
-11,47,66,-10,-39,54,-50,-245,45,-358,-90,79
-11,47,66,-10,-39,54,-62,-239,51,-346,-84,79
-35,53,96,-10,-63,72,-26,-221,75,-346,-90,79
-29,71,108,-15,-69,90,-38,-203,81,-334,-78,97
-35,47,90,-10,-63,66,-68,-191,93,-322,-60,103
7,59,60,-27,-27,60,-92,-197,99,-304,-54,109
24,95,66,-57,-15,84,-122,-197,123,-292,-54,115
7,119,120,-57,-57,120,-170,-209,105,-310,-60,97
12,149,132,-81,-51,144,-218,-227,81,-334,-90,79
54,161,102,-105,-15,132,-224,-203,93,-322,-78,91
48,137,84,-93,-9,114,-254,-179,123,-298,-60,109
48,101,48,-75,8,78,-296,-173,111,-292,-54,109
96,89,-6,-93,50,42,-314,-149,135,-256,-18,109
108,95,-6,-99,56,42,-332,-137,159,-244,5,127
96,83,-6,-87,50,36,-374,-161,147,-250,-6,145
120,59,-53,-87,86,0,-410,-191,129,-250,5,151
132,77,-47,-105,92,12,-422,-197,129,-238,5,157
108,65,-35,-87,74,12,-440,-221,129,-238,5,157
126,53,-65,-87,98,0,-470,-239,123,-238,5,169
156,53,-95,-105,128,-11,-482,-269,111,-238,23,187
162,77,-77,-117,122,0,-536,-317,81,-256,11,175
162,89,-65,-123,116,6,-560,-341,57,-268,5,163
180,101,-71,-141,128,12,-536,-329,69,-250,11,181
186,125,-53,-153,122,30,-530,-341,69,-238,35,211
198,131,-59,-165,128,30,-584,-419,33,-250,35,211
222,125,-89,-171,158,12,-614,-473,33,-244,47,205
234,101,-125,-165,182,-5,-608,-485,45,-226,71,241
246,59,-179,-153,212,-53,-650,-521,-2,-256,53,223
282,29,-245,-159,266,-101,-716,-599,-68,-304,29,205
360,17,-335,-189,350,-155,-770,-659,-104,-298,65,247
390,35,-347,-213,368,-149,-854,-743,-146,-304,101,283
426,29,-389,-231,410,-173,-956,-875,-236,-328,101,289
516,47,-467,-279,494,-203,-1052,-983,-296,-346,125,325
612,77,-527,-345,572,-221,-1184,-1127,-374,-370,155,367
702,95,-599,-399,650,-245,-1322,-1295,-476,-394,197,403
786,149,-635,-471,716,-239,-1466,-1463,-554,-406,251,475
858,221,-635,-537,746,-203,-1556,-1595,-614,-424,305,571
900,257,-635,-579,764,-185,-1604,-1661,-680,-448,347,625
972,287,-677,-627,824,-191,-1646,-1703,-722,-460,377,679
1062,365,-695,-717,878,-161,-1682,-1715,-728,-424,467,787
1122,401,-719,-759,920,-155,-1712,-1697,-728,-388,563,877
1152,377,-767,-759,962,-191,-1700,-1685,-728,-340,635,943
1206,413,-785,-807,992,-185,-1676,-1625,-680,-268,737,1045
1218,479,-737,-843,980,-125,-1598,-1535,-572,-148,869,1159
1170,485,-683,-825,926,-95,-1496,-1409,-458,-40,977,1249
1134,527,-599,-831,866,-29,-1412,-1313,-350,31,1037,1297
1098,635,-461,-867,776,84,-1322,-1229,-284,79,1079,1315
996,689,-305,-843,656,192,-1226,-1175,-236,97,1097,1333
936,677,-251,-801,596,210,-1166,-1127,-206,133,1121,1375
900,689,-209,-789,554,240,-1094,-1061,-164,163,1121,1399
798,659,-137,-729,470,258,-992,-971,-116,175,1073,1327
678,587,-83,-633,380,246,-872,-863,-44,187,1007,1219
552,539,-6,-543,278,264,-722,-731,33,217,953,1105
396,473,72,-435,158,270,-572,-617,105,193,809,955
228,359,132,-291,44,246,-446,-551,81,79,593,721
156,245,84,-201,32,168,-374,-509,27,-70,371,505
120,113,-6,-117,62,54,-290,-455,-20,-232,161,325
42,5,-35,-21,38,-11,-224,-413,-44,-340,11,199
12,0,-11,-10,8,-5,-200,-407,-74,-406,-60,127
1,5,0,-4,-3,0,-170,-395,-68,-430,-96,103
-35,-24,6,26,-21,-5,-140,-365,-50,-412,-96,97
-77,-24,48,50,-63,6,-128,-353,-50,-400,-102,79
-65,-12,48,38,-57,12,-104,-341,-44,-394,-108,67
-77,-12,60,44,-69,18,-68,-311,-14,-382,-96,73
-113,-24,84,68,-99,24,-68,-305,-20,-400,-126,37
-107,-36,66,68,-87,6,-62,-287,-20,-412,-144,13
-107,-42,60,74,-87,0,-44,-263,-2,-400,-150,7
-107,-48,54,74,-81,0,-38,-269,-8,-412,-168,-5
-113,-48,60,80,-87,0,-38,-275,-14,-430,-174,-23
-113,-60,48,86,-81,0,-32,-269,-14,-430,-168,-11
-131,-72,54,98,-93,-5,-20,-257,-8,-430,-162,1
-143,-90,48,116,-99,-17,-8,-251,-2,-424,-156,1
-143,-66,72,104,-111,0,4,-239,4,-430,-156,13
-149,-66,78,104,-117,0,15,-233,-2,-436,-162,7
-149,-66,78,104,-117,0,4,-227,4,-436,-174,-11
-143,-66,72,104,-111,0,4,-227,-2,-436,-192,-23
-137,-66,66,98,-105,0,4,-227,4,-430,-198,-29
-131,-54,72,92,-105,0,4,-215,4,-430,-198,-29
-131,-54,72,92,-105,0,-2,-227,9,-436,-198,-29
-125,-42,78,80,-105,12,-8,-233,9,-436,-198,-29
-131,-36,90,80,-111,18,-8,-233,9,-442,-204,-29
-143,-42,96,92,-123,18,-2,-239,4,-448,-198,-29
-143,-48,90,92,-117,12,4,-227,4,-448,-204,-35
-149,-54,90,98,-123,12,10,-215,9,-442,-198,-35
-161,-60,96,110,-129,12,15,-215,9,-442,-204,-29
-143,-60,78,98,-111,0,15,-215,9,-442,-210,-35
-131,-48,78,86,-105,6,15,-203,9,-442,-210,-35
-125,-48,72,86,-99,6,15,-209,9,-442,-216,-47
-125,-54,66,86,-99,0,15,-203,9,-436,-216,-59
-125,-54,66,86,-99,0,15,-197,9,-436,-204,-47
-125,-42,78,80,-105,12,15,-191,15,-436,-186,-35
-143,-60,78,98,-111,0,15,-191,15,-436,-192,-23
-149,-48,96,98,-123,18,15,-185,9,-436,-186,-11
-149,-42,102,92,-129,24,15,-173,9,-436,-192,-17
-137,-42,90,86,-117,18,15,-173,9,-436,-192,-17
-137,-36,96,86,-117,24,15,-179,9,-436,-198,-23
-137,-36,96,86,-117,24,15,-173,9,-436,-192,-29
-131,-42,84,86,-111,12,15,-161,15,-430,-192,-23
-131,-48,78,86,-105,6,21,-161,15,-430,-192,-23
-131,-42,84,86,-111,12,27,-149,21,-424,-186,-29
-131,-48,78,86,-105,6,27,-143,21,-424,-186,-29
-125,-48,72,86,-99,6,21,-143,15,-418,-180,-29
-125,-36,84,80,-105,18,21,-143,15,-424,-180,-29
-125,-48,72,86,-99,6,21,-131,21,-418,-168,-23
-125,-48,72,86,-99,6,21,-125,21,-436,-168,-23
-119,-42,72,80,-99,6,15,-125,21,-430,-180,-29
-113,-36,72,74,-93,12,15,-119,21,-430,-180,-35
-113,-30,78,68,-99,18,15,-125,27,-418,-186,-29
-113,-18,90,62,-105,30,15,-125,27,-418,-186,-35
-113,-24,84,68,-99,24,15,-119,39,-418,-180,-35
-113,-30,78,68,-99,18,15,-119,39,-418,-180,-29
-119,-42,72,80,-99,6,33,-95,45,-412,-168,-17
-119,-30,84,74,-105,18,39,-89,51,-400,-168,-11
-119,-36,78,74,-99,12,39,-89,57,-400,-168,-11
-113,-48,60,80,-87,0,39,-89,51,-394,-168,-11
-119,-42,72,80,-99,6,27,-89,45,-394,-156,-5
-119,-12,102,62,-111,36,27,-83,39,-388,-156,1
-113,-24,84,68,-99,24,39,-71,51,-382,-156,1
-107,-30,72,68,-93,12,39,-71,57,-382,-150,1
-101,-36,60,68,-81,6,45,-65,63,-370,-150,1
-101,-42,54,68,-81,0,45,-53,63,-358,-150,1
-107,-18,84,62,-99,24,45,-53,69,-364,-150,7
-107,-12,90,56,-99,30,45,-47,69,-370,-150,-5
-107,-12,90,56,-99,30,57,-47,69,-370,-150,-11
-107,-12,90,56,-99,30,63,-29,75,-370,-150,-11
-95,-12,78,50,-87,24,57,-23,81,-358,-150,-5
-83,0,78,38,-81,30,57,-17,87,-358,-144,1
-77,5,90,26,-81,48,51,-11,99,-352,-144,-5
-77,11,96,26,-87,54,51,-5,105,-346,-144,-5
-77,5,84,32,-81,42,57,0,105,-340,-138,1
-65,0,60,32,-63,24,57,0,123,-334,-120,13
-71,-12,54,38,-63,12,63,6,129,-322,-108,19
-71,-24,42,44,-57,0,75,12,129,-316,-102,25
-83,-18,60,50,-75,12,99,18,141,-304,-90,31
-83,-18,60,50,-75,12,99,30,141,-304,-90,37
-77,0,72,38,-75,30,93,36,147,-298,-90,43
-59,5,60,26,-63,24,93,48,153,-298,-78,55
-71,11,90,20,-81,48,75,42,147,-304,-84,49
-71,35,114,8,-93,72,75,42,141,-298,-90,49
-59,53,120,-4,-87,84,69,42,147,-304,-96,43
-59,65,132,-10,-93,96,69,48,141,-292,-84,43
-59,77,144,-10,-99,108,75,48,141,-292,-84,49
-41,59,108,-10,-75,84,75,54,147,-286,-78,49
-41,59,108,-10,-75,84,87,60,141,-292,-78,61
-41,71,120,-10,-81,96,87,60,141,-298,-78,67
-29,83,120,-21,-75,102,87,72,147,-292,-66,73
-23,83,114,-21,-69,96,81,72,147,-286,-66,73
-17,95,120,-33,-69,108,87,78,159,-280,-48,73
-17,89,114,-27,-63,102,87,78,165,-280,-42,79
-5,89,102,-33,-51,96,81,84,159,-280,-30,79
1,89,96,-39,-45,90,69,84,165,-262,-24,79
1,95,102,-39,-51,96,57,78,159,-256,-30,79
12,101,96,-51,-39,96,51,78,159,-256,-24,79
12,107,96,-57,-39,102,45,78,159,-256,-24,91
12,107,96,-57,-39,102,45,66,159,-256,-24,97
24,113,84,-69,-21,102,45,66,159,-256,-12,103
36,113,72,-75,-9,96,45,66,153,-250,-12,109
36,101,60,-69,-3,84,45,72,153,-244,-6,115
42,101,54,-69,3,78,45,78,153,-244,5,121
54,89,30,-69,8,60,39,90,153,-232,5,127
48,65,12,-57,14,42,33,96,153,-232,11,139
48,71,18,-57,8,48,21,72,141,-238,5,133
60,77,12,-69,20,48,15,60,135,-250,5,133
66,83,12,-75,20,48,15,54,123,-250,5,127
66,95,24,-81,14,60,15,36,123,-256,5,127
72,95,18,-81,20,60,4,30,117,-256,5,121
84,95,6,-87,32,54,-14,18,105,-256,5,133
84,77,-6,-81,44,36,-14,12,105,-250,0,133
96,65,-23,-81,62,18,-32,6,99,-250,5,133
108,71,-29,-87,68,18,-44,0,81,-256,5,127
108,83,-17,-93,62,30,-56,-17,75,-268,0,127
102,89,-6,-93,56,36,-62,-41,63,-286,0,115
102,71,-23,-87,62,18,-74,-47,63,-292,0,115
108,77,-23,-93,68,24,-68,-41,63,-286,0,121
108,77,-23,-93,68,24,-74,-53,51,-298,-6,121
102,65,-29,-81,68,12,-86,-59,39,-304,-6,115
102,65,-29,-81,68,12,-80,-71,39,-310,-6,115
84,65,-11,-75,50,24,-80,-77,33,-304,-12,121
84,59,-17,-69,50,18,-80,-77,27,-304,-12,115
78,35,-35,-57,56,0,-86,-71,15,-298,-12,115
66,29,-29,-45,50,0,-92,-77,15,-310,-18,115
60,47,-6,-51,32,18,-86,-95,9,-316,-24,103
60,35,-17,-45,38,6,-86,-101,9,-322,-24,103
66,35,-23,-51,44,0,-80,-101,9,-328,-18,97
48,23,-17,-33,32,0,-80,-107,15,-334,-24,103
42,17,-17,-27,32,0,-80,-119,9,-340,-36,97
30,11,-11,-21,20,0,-74,-119,9,-340,-48,85
18,5,-6,-10,14,0,-74,-125,9,-340,-60,79
12,5,-6,-10,8,0,-74,-137,-2,-352,-66,61
12,5,-6,-10,8,0,-80,-137,-2,-346,-60,67
12,5,-6,-10,8,0,-80,-137,-2,-346,-66,61
1,-6,-6,2,3,-5,-62,-137,4,-340,-60,61
1,-6,-6,2,3,-5,-62,-137,4,-340,-60,61
-5,0,0,2,-3,0,-62,-137,4,-352,-66,55
-11,5,24,-4,-15,12,-68,-143,-2,-352,-78,55
-23,5,24,8,-27,6,-68,-143,-2,-358,-90,49
-29,11,48,2,-39,30,-68,-149,4,-358,-90,43
-23,11,42,-4,-33,24,-62,-155,-2,-358,-96,25
-23,5,30,2,-27,12,-62,-149,-8,-358,-96,25
-17,-18,-6,14,-9,-5,-68,-155,-8,-358,-90,19
-29,0,24,14,-27,6,-68,-161,-14,-370,-90,19
-35,-6,24,20,-33,0,-62,-155,-14,-364,-96,19
-35,-12,18,20,-27,0,-62,-149,-8,-358,-96,19
-41,-12,24,26,-33,0,-56,-149,-2,-352,-96,19
-41,-18,18,26,-33,0,-62,-149,-2,-364,-108,19
-47,-18,24,32,-39,0,-62,-155,-8,-364,-102,19
-35,-24,6,26,-21,-5,-62,-155,-8,-358,-102,13
-29,-18,6,20,-21,0,-56,-161,-14,-358,-96,7
-29,-18,6,20,-21,0,-56,-161,-14,-364,-90,1
-29,-6,18,14,-27,0,-62,-167,-20,-376,-90,1
-29,0,24,14,-27,6,-62,-167,-20,-376,-90,1
-41,0,36,20,-39,12,-62,-167,-26,-376,-102,7
-41,5,42,14,-45,18,-62,-161,-20,-376,-102,7
-41,-6,30,20,-39,6,-56,-149,-14,-370,-84,13
-41,-12,24,26,-33,0,-50,-149,-20,-364,-84,13
-41,-24,12,32,-27,0,-50,-143,-14,-358,-84,19
-35,-24,6,26,-21,-5,-44,-137,-8,-352,-84,19
-35,-12,18,20,-27,0,-44,-137,-8,-358,-90,13
-35,-24,6,26,-21,-5,-44,-137,-2,-358,-90,7
-35,-24,6,26,-21,-5,-50,-149,4,-364,-84,1
-35,-18,12,26,-27,0,-50,-149,4,-364,-84,1
-47,-6,36,26,-45,6,-56,-149,-8,-364,-96,-5
-47,0,42,20,-45,12,-56,-149,-8,-370,-96,13
-41,5,48,14,-45,24,-62,-149,-8,-370,-102,7
-41,11,60,8,-51,36,-62,-149,-8,-370,-102,7
-47,5,60,14,-51,30,-56,-143,-2,-364,-96,19
-47,5,54,14,-51,24,-56,-143,-2,-364,-90,19
-53,0,48,26,-51,18,-32,-137,9,-352,-84,7
-53,-12,36,32,-45,6,-32,-131,9,-352,-66,7
-47,-6,36,26,-45,6,-32,-125,-2,-364,-72,7
-59,5,66,20,-63,30,-32,-125,-2,-364,-72,19
-65,-6,54,32,-63,18,-32,-125,-8,-364,-78,13
-47,-6,36,26,-45,6,-32,-119,4,-352,-78,13
-53,5,60,20,-57,30,-32,-125,-2,-352,-84,1
-53,5,66,14,-57,36,-32,-125,-2,-364,-84,-11
-59,11,78,14,-69,42,-20,-125,-8,-364,-90,-17
-59,5,66,20,-63,30,-20,-125,4,-364,-90,1
-59,5,60,26,-63,24,-26,-125,-2,-358,-90,1
-59,5,72,20,-63,36,-26,-125,-2,-358,-84,1
-47,17,72,8,-57,42,-32,-125,-14,-364,-84,1
-65,17,90,14,-75,54,-20,-125,-14,-364,-84,1
-59,11,78,14,-69,42,-14,-113,-14,-364,-78,-5
-53,11,72,14,-63,42,-14,-113,-14,-364,-78,-5
-47,5,54,14,-51,24,-8,-107,9,-352,-72,7
-53,5,54,20,-57,24,-8,-113,9,-352,-72,7
-47,5,54,14,-51,24,-14,-113,-2,-352,-72,-11
-41,5,54,8,-45,30,-14,-107,-2,-352,-72,-11
-35,11,54,2,-45,30,-20,-107,4,-358,-72,-11
-29,17,54,-4,-39,36,-26,-107,4,-358,-72,-11
-35,11,54,2,-45,30,-26,-101,-2,-358,-72,-5
-47,11,66,8,-57,36,-20,-95,4,-352,-72,-11
-53,5,66,14,-57,36,-8,-83,4,-352,-72,-5
-53,5,66,14,-57,36,-2,-83,4,-358,-72,7
-53,5,66,14,-57,36,-2,-83,9,-352,-66,13
-53,5,66,14,-57,36,-2,-95,9,-352,-66,7
-47,11,66,8,-57,36,-2,-95,9,-346,-60,7
-47,11,66,8,-57,36,-2,-89,4,-346,-54,7
-41,23,72,2,-57,48,-8,-95,-2,-346,-66,1
-47,23,78,2,-63,48,-8,-89,-2,-346,-72,-5
-47,29,84,2,-63,54,-14,-95,-8,-352,-78,-11
-47,35,90,-4,-69,60,-2,-95,-8,-370,-84,-5
-53,23,84,8,-69,54,4,-89,-8,-364,-78,-5
-47,23,78,2,-63,48,4,-95,-8,-358,-78,-5
-53,11,72,14,-63,42,10,-89,4,-358,-78,-11
-59,5,72,20,-63,36,4,-89,4,-352,-84,-17
-59,11,78,14,-69,42,-8,-89,-8,-358,-90,-29
-47,17,72,8,-57,42,-8,-89,-8,-358,-90,-29
-47,17,72,8,-57,42,-2,-95,-14,-358,-84,-35
-47,23,78,2,-63,48,4,-95,-14,-358,-78,-35
-47,23,78,2,-63,48,-2,-101,-20,-370,-84,-29
-47,23,78,2,-63,48,-8,-101,-20,-370,-84,-29
-53,23,84,8,-69,54,-14,-95,-26,-376,-96,-23
-53,29,90,2,-69,60,-14,-95,-26,-376,-96,-23
-53,23,84,8,-69,54,-2,-95,-20,-370,-102,-41
-53,17,78,8,-63,48,-2,-95,-32,-370,-102,-41
-65,5,78,20,-69,42,-2,-101,-26,-376,-102,-41
-47,5,60,14,-51,30,-2,-107,-20,-364,-96,-41
-53,5,54,20,-57,24,10,-101,-14,-364,-90,-35
-53,0,48,26,-51,18,10,-101,-14,-364,-84,-41
-65,-12,48,38,-57,12,15,-101,-14,-358,-84,-35
-65,-24,36,44,-51,0,15,-95,-14,-358,-84,-35
-59,-12,42,32,-51,6,10,-95,-20,-364,-90,-35
-59,-6,48,32,-57,12,10,-95,-26,-370,-96,-29
-65,5,66,26,-69,30,4,-101,-32,-382,-102,-53
-71,5,78,26,-75,36,-2,-101,-32,-388,-96,-77
-65,5,72,26,-69,36,4,-107,-32,-388,-96,-71
-59,5,60,26,-63,24,-2,-107,-32,-394,-102,-53
-53,0,48,26,-51,18,-8,-113,-38,-394,-102,-59
-53,-6,42,26,-51,12,-14,-113,-32,-400,-96,-53
-53,-6,42,26,-51,12,-14,-113,-38,-400,-96,-53
-53,-6,42,26,-51,12,4,-107,-44,-388,-102,-53
-59,5,60,26,-63,24,15,-107,-50,-388,-102,-53
-59,5,72,20,-63,36,4,-119,-50,-388,-102,-47
-53,5,66,14,-57,36,4,-101,-44,-388,-102,-53
-53,11,72,14,-63,42,4,-101,-44,-394,-102,-65
-65,5,78,20,-69,42,-2,-119,-50,-400,-114,-71
-53,5,60,20,-57,30,-2,-119,-50,-400,-114,-71
-59,-12,42,32,-51,6,10,-101,-32,-394,-108,-65
-59,-18,36,38,-51,0,10,-113,-32,-400,-102,-59
-65,-30,30,44,-51,0,15,-107,-38,-400,-96,-47
-71,-36,30,50,-51,0,15,-107,-38,-394,-84,-41
-65,-30,30,44,-51,0,4,-107,-44,-394,-90,-53
-59,-24,30,38,-45,0,4,-113,-44,-394,-96,-65
-53,0,48,26,-51,18,-2,-113,-50,-394,-102,-59
-65,-12,48,38,-57,12,4,-113,-44,-394,-108,-53
-65,-12,48,38,-57,12,4,-113,-44,-400,-108,-59
-53,23,84,8,-69,54,-2,-113,-56,-406,-108,-71
-47,17,72,8,-57,42,4,-113,-56,-406,-108,-65
-47,11,66,8,-57,36,4,-113,-56,-406,-108,-65
-41,5,54,8,-45,30,10,-113,-56,-406,-108,-59
-41,5,48,14,-45,24,10,-113,-56,-406,-108,-59
-47,-6,36,26,-45,6,15,-107,-50,-394,-102,-53
-35,-18,12,26,-27,0,10,-107,-50,-394,-102,-59
-41,-30,6,32,-27,-5,10,-107,-44,-388,-96,-53
-41,-42,-6,38,-21,-17,10,-107,-44,-388,-96,-53
-47,-18,24,32,-39,0,4,-107,-50,-406,-102,-59
-53,-6,42,26,-51,12,10,-107,-50,-394,-102,-59
-59,0,54,26,-57,18,4,-107,-50,-400,-102,-47
-65,5,72,26,-69,36,4,-119,-50,-412,-114,-59
-59,5,60,26,-63,24,-2,-119,-50,-412,-114,-53
-59,5,60,26,-63,24,-2,-119,-50,-412,-108,-53
-53,0,48,26,-51,18,-2,-119,-50,-412,-108,-47
-53,0,48,26,-51,18,-2,-119,-50,-406,-108,-41
-59,0,54,26,-57,18,4,-107,-50,-400,-96,-41
-59,0,54,26,-57,18,4,-107,-50,-400,-96,-35
-59,0,54,26,-57,18,10,-95,-50,-388,-96,-35
-59,-12,42,32,-51,6,15,-95,-44,-388,-96,-35
-77,-12,60,44,-69,18,15,-101,-50,-394,-96,-41
-65,-6,54,32,-63,18,15,-101,-50,-394,-96,-41
-59,5,66,20,-63,30,10,-107,-56,-400,-96,-47
-59,5,66,20,-63,30,10,-107,-56,-400,-96,-41
-59,5,66,20,-63,30,15,-101,-50,-400,-96,-35
-47,5,48,20,-51,18,15,-101,-50,-400,-96,-35
-47,-6,36,26,-45,6,15,-101,-44,-394,-96,-41
-47,-12,30,26,-39,0,15,-101,-38,-394,-96,-41
-29,0,24,14,-27,6,15,-95,-44,-400,-96,-35
-29,17,54,-4,-39,36,15,-89,-44,-400,-90,-29
-23,35,66,-10,-45,48,15,-89,-50,-382,-84,-23
-17,53,78,-10,-45,66,21,-77,-38,-376,-78,-17
-11,53,72,-15,-39,60,33,-71,-26,-370,-78,-11
-5,47,60,-15,-33,54,39,-59,-14,-370,-66,-11
-5,23,36,-10,-21,30,45,-65,-26,-370,-66,-17
7,41,42,-15,-15,42,45,-65,-26,-364,-66,-17
12,59,54,-27,-21,54,63,-41,-14,-358,-66,-11
12,71,66,-33,-27,66,63,-35,-2,-358,-60,-5
12,83,72,-45,-27,78,75,-23,4,-340,-48,19
12,89,72,-51,-21,84,75,-23,9,-334,-36,25
18,95,72,-57,-21,84,63,-23,9,-328,-36,19
18,89,66,-51,-15,78,63,-17,9,-322,-30,31
30,101,66,-63,-9,84,57,-5,27,-310,-18,37
48,95,42,-69,8,72,51,-5,39,-298,0,49
48,137,84,-93,-9,114,51,0,51,-280,5,61
60,167,102,-111,-15,138,45,0,51,-280,5,73
60,179,114,-117,-21,150,39,0,51,-280,11,73
54,191,132,-123,-33,162,27,0,51,-280,11,73
48,167,114,-105,-27,144,21,0,51,-274,11,73
48,155,102,-99,-21,132,15,-5,39,-286,5,67
36,119,78,-75,-15,102,21,-17,45,-286,5,61
36,95,54,-63,-3,78,15,-35,27,-304,-6,49
42,77,30,-57,8,54,10,-53,9,-316,-24,49
42,53,6,-45,14,30,4,-65,4,-328,-36,31
48,35,-6,-39,26,12,-2,-83,-20,-346,-48,31
54,35,-11,-45,32,6,-2,-89,-26,-352,-54,25
60,41,-11,-51,38,12,4,-89,-26,-364,-60,19
48,11,-29,-27,38,0,4,-83,-26,-364,-60,7
42,17,-17,-27,32,0,10,-83,-20,-364,-72,1
42,23,-11,-33,26,0,15,-77,-14,-364,-72,-5
30,35,0,-33,8,18,15,-83,-20,-370,-72,1
30,35,0,-33,8,18,15,-83,-26,-376,-78,-11
24,41,12,-33,8,30,10,-83,-32,-382,-78,-11
12,41,36,-21,-9,36,21,-71,-26,-370,-78,-11
-23,35,66,-10,-45,48,57,-35,-8,-352,-66,1
-35,23,66,-4,-51,42,87,-29,4,-346,-66,1
-47,11,66,8,-57,36,99,-5,9,-340,-48,7
-47,5,54,14,-51,24,93,0,15,-322,-36,13
-11,29,48,-10,-27,36,93,0,15,-322,-42,1
-5,107,120,-45,-63,114,33,-11,9,-334,-66,-17
-11,83,102,-27,-57,90,15,-11,21,-334,-48,1
18,107,84,-63,-27,96,-20,-5,27,-328,-42,7
36,143,102,-87,-27,126,-50,0,27,-316,-42,1
12,95,84,-51,-33,90,-62,6,57,-298,-24,19
12,29,12,-21,8,24,-86,36,81,-262,5,43
78,17,-53,-45,68,-11,-122,48,81,-250,17,61
96,17,-71,-57,86,-17,-140,72,99,-244,35,85
84,41,-35,-63,62,0,-170,54,87,-256,17,79
108,89,-11,-99,62,36,-224,6,63,-268,5,55
108,71,-29,-87,68,18,-260,6,51,-262,5,61
96,35,-53,-63,74,0,-266,18,63,-256,17,79
156,71,-77,-111,116,0,-290,12,69,-250,17,61
192,101,-83,-147,140,6,-314,0,69,-238,23,67
156,65,-83,-111,122,0,-344,-17,69,-226,41,85
162,65,-89,-111,128,-5,-398,-77,39,-238,53,85
216,113,-95,-165,158,6,-428,-119,15,-250,47,79
210,125,-77,-165,146,18,-422,-131,21,-250,47,79
186,101,-77,-141,134,6,-422,-143,9,-250,53,91
228,65,-155,-147,194,-35,-446,-191,9,-256,47,97
252,77,-173,-165,218,-41,-464,-227,-14,-256,59,103
246,71,-167,-159,206,-41,-476,-251,-14,-256,59,103
264,41,-221,-153,248,-83,-506,-281,-50,-262,59,97
312,5,-311,-153,308,-155,-548,-347,-98,-268,71,121
336,-12,-353,-159,344,-185,-638,-443,-134,-268,89,139
402,5,-389,-207,398,-185,-752,-575,-224,-304,101,169
492,5,-491,-243,488,-239,-878,-719,-278,-322,137,223
540,0,-545,-261,542,-269,-980,-839,-344,-340,197,283
600,29,-563,-315,584,-257,-1124,-1013,-440,-376,221,325
720,95,-617,-405,668,-251,-1262,-1199,-530,-418,245,361
834,137,-695,-489,764,-269,-1394,-1337,-620,-442,269,403
888,155,-731,-519,806,-281,-1460,-1463,-710,-466,287,415
930,197,-731,-561,830,-257,-1514,-1547,-776,-490,299,451
996,233,-761,-615,884,-257,-1544,-1595,-812,-502,317,499
1014,203,-809,-609,914,-299,-1592,-1637,-866,-514,335,523
1062,185,-875,-621,974,-341,-1622,-1649,-896,-526,365,553
1146,239,-905,-693,1022,-329,-1622,-1637,-884,-502,431,631
1194,269,-917,-735,1052,-317,-1610,-1613,-860,-472,527,727
1224,317,-899,-765,1058,-281,-1610,-1601,-836,-424,599,805
1272,425,-845,-849,1058,-209,-1556,-1517,-758,-352,689,877
1272,491,-779,-879,1028,-143,-1454,-1385,-644,-250,785,961
1236,485,-749,-861,992,-131,-1346,-1241,-548,-160,881,1039
1218,491,-719,-855,968,-107,-1244,-1127,-458,-64,959,1117
1158,527,-623,-843,890,-41,-1136,-1031,-368,7,1007,1165
1056,557,-491,-807,776,30,-1076,-971,-308,61,1037,1195
984,605,-371,-789,680,114,-1022,-941,-272,73,1037,1177
936,605,-323,-765,632,138,-932,-863,-230,91,1025,1141
822,539,-275,-681,548,132,-818,-761,-152,127,1013,1105
702,515,-179,-609,440,168,-698,-641,-68,151,977,1057
576,473,-101,-519,338,186,-548,-503,-2,145,881,931
384,365,-11,-375,200,174,-386,-395,9,85,695,745
228,251,24,-243,98,144,-266,-329,-26,-52,467,511
156,125,-23,-141,92,48,-188,-275,-80,-202,245,295
120,5,-119,-57,116,-53,-116,-221,-104,-286,101,163
54,-36,-95,-10,74,-65,-74,-203,-104,-340,23,91
12,-24,-35,2,20,-29,-56,-221,-122,-394,-24,37
-11,-54,-35,32,8,-47,-14,-209,-104,-394,-36,1
-47,-108,-53,74,8,-83,15,-167,-86,-364,-24,-5
-77,-84,-6,80,-33,-41,27,-167,-86,-376,-42,-17
-77,-36,36,56,-57,0,39,-155,-104,-406,-72,-41
-101,-36,60,68,-81,6,63,-113,-86,-394,-84,-59
-137,-72,60,104,-99,0,87,-95,-68,-400,-114,-83
-131,-72,54,98,-93,-5,93,-71,-62,-406,-126,-95
-131,-78,48,104,-93,-11,111,-47,-44,-388,-126,-95
-131,-72,54,98,-93,-5,117,-47,-44,-394,-138,-95
-137,-72,60,104,-99,0,117,-53,-50,-406,-138,-107
-131,-78,48,104,-93,-11,111,-59,-56,-412,-138,-101
-143,-90,48,116,-99,-17,111,-59,-56,-412,-138,-101
-149,-102,42,122,-99,-23,111,-65,-56,-412,-138,-107
-143,-78,60,110,-105,-5,111,-65,-56,-418,-144,-107
-149,-72,72,110,-111,0,129,-53,-56,-424,-150,-113
-149,-72,72,110,-111,0,117,-41,-50,-424,-156,-125
-143,-66,72,104,-111,0,123,-41,-50,-424,-174,-137
-137,-66,66,98,-105,0,123,-35,-44,-418,-174,-137
-143,-66,72,104,-111,0,129,-11,-38,-406,-162,-137
-143,-72,66,104,-105,0,129,-23,-32,-406,-156,-137
-149,-72,72,110,-111,0,129,-17,-26,-394,-144,-137
-155,-72,78,110,-117,0,135,-17,-26,-394,-144,-137
-155,-84,66,116,-111,-5,135,-35,-38,-412,-144,-137
-155,-90,60,122,-111,-11,135,-23,-38,-412,-150,-143
-149,-102,42,122,-99,-23,135,-23,-38,-418,-150,-143
-161,-108,48,134,-105,-23,135,-23,-38,-418,-156,-137
-155,-96,54,122,-105,-17,141,-17,-38,-412,-162,-137
-143,-78,60,110,-105,-5,141,-5,-38,-412,-162,-137
-149,-66,78,104,-117,0,147,-5,-32,-406,-168,-143
-149,-66,78,104,-117,0,147,0,-32,-400,-168,-155
-137,-78,54,104,-99,-5,153,0,-32,-400,-156,-143
-137,-72,60,104,-99,0,153,0,-20,-400,-144,-137
-143,-102,36,122,-93,-29,165,0,-20,-400,-150,-125
-149,-96,48,122,-99,-17,165,0,-26,-400,-150,-119
-155,-90,60,122,-111,-11,159,6,-26,-400,-150,-119
-143,-84,54,110,-99,-11,159,6,-26,-400,-150,-119
-149,-78,66,110,-111,0,159,0,-20,-400,-150,-119
-149,-72,72,110,-111,0,165,6,-14,-400,-144,-125
-137,-66,66,98,-105,0,165,18,-2,-388,-144,-119
-137,-66,66,98,-105,0,171,18,-2,-388,-144,-119
-131,-48,78,86,-105,6,171,30,9,-376,-138,-125
-131,-48,78,86,-105,6,171,36,9,-376,-138,-125
-137,-54,78,92,-111,6,171,30,4,-370,-138,-125
-143,-48,90,92,-117,12,171,30,4,-376,-138,-125
-155,-66,84,110,-123,0,177,36,9,-370,-132,-119
-161,-72,84,116,-123,0,177,42,9,-388,-132,-119
-155,-60,90,104,-123,6,177,48,9,-382,-144,-125
-149,-54,90,98,-123,12,177,54,9,-382,-144,-125
-149,-42,102,92,-129,24,177,54,9,-370,-150,-119
-149,-30,114,86,-135,36,177,54,9,-370,-150,-119
-143,-30,108,86,-129,30,177,60,15,-364,-144,-125
-137,-36,96,86,-117,24,177,60,15,-364,-138,-119
-137,-42,90,86,-117,18,189,84,21,-352,-126,-113
-131,-30,96,80,-117,24,195,90,27,-340,-120,-107
-131,-48,78,86,-105,6,207,102,39,-334,-120,-107
-125,-66,54,92,-93,0,207,102,39,-328,-120,-107
-131,-72,54,98,-93,-5,207,114,39,-322,-108,-101
-131,-48,78,86,-105,6,207,120,39,-316,-108,-95
-131,-42,84,86,-111,12,207,120,39,-322,-114,-101
-125,-36,84,80,-105,18,207,120,45,-322,-114,-107
-125,-24,96,74,-111,30,201,114,39,-322,-120,-113
-125,-18,102,68,-117,36,201,126,39,-310,-126,-119
-125,-6,114,62,-123,48,207,132,57,-310,-114,-95
-125,-12,108,68,-117,42,213,138,57,-310,-108,-101
-119,-24,90,68,-105,24,231,144,69,-304,-96,-89
-119,-36,78,74,-99,12,243,162,75,-298,-90,-83
-119,-30,84,74,-105,18,237,168,75,-286,-90,-77
-113,-12,96,62,-105,36,237,174,75,-286,-84,-77
-119,5,126,50,-123,60,231,180,81,-280,-84,-83
-125,11,144,50,-135,78,231,186,81,-274,-84,-89
-113,11,132,44,-123,72,237,198,75,-280,-84,-83
-101,11,120,38,-111,66,237,198,93,-274,-72,-77
-95,11,114,32,-105,60,243,204,93,-274,-66,-71
-95,11,114,32,-105,60,255,204,93,-268,-66,-71
-107,23,138,32,-123,78,267,210,105,-262,-54,-65
-107,23,138,32,-123,78,261,222,105,-262,-54,-59
-101,47,156,20,-129,102,255,228,111,-262,-54,-53
-83,53,144,8,-111,96,249,240,117,-262,-42,-41
-89,59,156,8,-123,108,243,240,123,-256,-48,-41
-89,71,168,2,-129,120,243,240,123,-250,-48,-41
-71,77,156,-10,-111,114,249,240,141,-244,-54,-41
-71,77,156,-10,-111,114,249,246,141,-226,-36,-41
-77,77,162,-10,-117,120,255,252,153,-220,-30,-29
-59,47,114,-4,-87,78,255,264,159,-208,-18,-29
-65,35,108,8,-87,72,267,276,165,-208,-12,-11
-65,35,108,8,-87,72,273,282,165,-208,-6,-5
-47,65,120,-10,-81,90,261,282,165,-214,-6,-5
-41,77,126,-10,-81,102,255,282,165,-208,-6,-5
-29,107,144,-33,-87,126,249,276,171,-214,0,-11
-29,113,150,-33,-87,132,243,276,177,-214,5,1
-23,107,138,-33,-81,120,249,282,177,-202,11,13
-17,107,132,-39,-75,120,243,282,183,-184,17,13
-23,107,138,-33,-81,120,243,276,183,-166,17,19
-11,113,132,-45,-69,120,243,276,183,-166,23,25
-11,107,126,-39,-69,114,237,282,183,-166,23,31
-11,107,126,-39,-69,114,237,276,183,-166,23,37
1,101,108,-45,-51,102,237,282,183,-166,35,37
12,101,96,-51,-39,96,237,288,177,-160,35,43
12,101,90,-51,-33,96,225,276,177,-154,41,49
18,113,90,-63,-27,102,219,276,177,-154,53,55
36,113,72,-75,-9,96,201,270,177,-148,65,61
36,101,60,-69,-3,84,189,270,177,-148,71,73
36,113,72,-75,-9,96,171,246,165,-154,65,67
48,125,72,-87,-3,102,159,240,153,-166,59,67
54,137,78,-93,-3,108,153,234,141,-172,53,61
54,155,96,-105,-15,126,147,216,135,-178,47,61
60,143,78,-99,-3,114,141,210,129,-178,53,61
72,131,54,-99,8,96,129,204,123,-178,53,73
72,101,24,-87,20,66,135,198,123,-172,59,79
84,77,-6,-81,44,36,123,198,123,-172,65,79
96,83,-6,-87,50,36,111,180,105,-172,71,79
96,95,-6,-93,44,48,93,162,99,-184,59,79
90,101,6,-93,38,54,87,138,87,-196,59,73
90,83,-6,-87,44,36,69,132,87,-202,59,73
96,77,-11,-87,56,30,75,126,87,-196,59,73
96,71,-17,-81,56,24,63,114,75,-202,53,73
90,47,-35,-69,62,0,51,96,63,-208,53,61
90,41,-41,-63,68,0,51,84,63,-208,53,61
78,53,-17,-63,50,12,45,72,63,-208,41,61
78,59,-11,-69,44,18,45,66,57,-208,41,55
78,47,-23,-63,50,6,33,66,51,-208,35,49
66,53,-6,-57,38,18,27,54,51,-220,29,49
48,59,6,-51,14,36,27,30,33,-232,11,37
48,41,-6,-45,26,18,27,24,33,-238,11,37
42,29,-6,-33,26,6,27,18,27,-250,5,31
24,11,-6,-15,14,0,27,12,27,-250,5,37
24,11,-6,-15,14,0,27,6,15,-256,5,31
12,11,-6,-10,8,6,33,6,9,-256,0,19
12,11,0,-10,8,6,33,6,9,-256,-6,7
7,17,18,-10,-3,18,33,0,-2,-268,-6,-11
7,5,6,-10,3,6,21,0,-2,-268,-12,-11
7,5,6,-10,3,6,21,0,-2,-268,-18,-17
-11,5,12,2,-15,0,33,-5,4,-268,-24,-23
-11,5,12,2,-15,0,33,-5,4,-268,-24,-23
-5,5,6,-4,-9,0,27,-17,-8,-286,-30,-29
-5,5,18,-10,-9,12,21,-23,-20,-286,-42,-29
-5,0,0,2,-3,0,15,-35,-32,-298,-54,-35
-5,5,12,-4,-9,6,15,-41,-32,-298,-54,-41
-11,5,18,-4,-15,6,21,-41,-26,-292,-54,-47
-11,0,6,2,-9,0,27,-35,-26,-286,-48,-41
-17,-30,-6,20,-3,-17,21,-35,-14,-280,-36,-35
-29,-12,12,20,-21,0,27,-41,-14,-286,-30,-29
-23,-18,0,20,-15,-5,21,-41,-20,-286,-36,-29
-23,-18,0,20,-15,-5,21,-41,-20,-280,-36,-29
-17,-18,-6,14,-9,-5,15,-47,-20,-280,-36,-29
-17,-18,-6,14,-9,-5,15,-53,-26,-292,-48,-29
-35,-18,12,26,-27,0,15,-53,-26,-286,-48,-35
-23,-18,0,20,-15,-5,15,-53,-26,-280,-48,-41
-29,-12,12,20,-21,0,15,-53,-26,-274,-48,-53
-29,-6,18,14,-27,0,15,-53,-26,-280,-42,-59
-23,-6,12,14,-21,0,15,-53,-32,-286,-36,-53
-23,-6,12,14,-21,0,15,-53,-32,-286,-36,-47
-29,-18,6,20,-21,0,21,-47,-38,-280,-42,-35
-29,-18,6,20,-21,0,21,-41,-32,-280,-42,-29
-23,-12,6,14,-15,0,15,-41,-32,-280,-36,-35
-17,-12,0,14,-9,0,15,-47,-44,-280,-42,-41
-11,-6,0,8,-9,0,15,-53,-44,-280,-54,-47
1,0,-6,-4,3,0,15,-53,-44,-280,-60,-53
-11,0,6,2,-9,0,15,-47,-44,-286,-66,-53
-17,-18,-6,14,-9,-5,15,-47,-38,-286,-66,-59
-29,-30,-6,26,-15,-11,21,-53,-32,-292,-60,-59
-35,-30,0,32,-21,-11,21,-53,-32,-292,-60,-59
-41,-36,0,38,-21,-11,21,-47,-38,-286,-60,-53
-41,-42,-6,38,-21,-17,21,-47,-38,-292,-60,-35
-29,-48,-11,38,-3,-29,21,-41,-32,-286,-54,-29
-29,-48,-11,38,-3,-29,21,-41,-32,-286,-54,-29
-29,-30,-6,26,-15,-11,21,-41,-32,-286,-54,-23
-29,-24,0,26,-15,-5,21,-41,-32,-286,-54,-29
-29,-12,12,20,-21,0,39,-41,-26,-280,-54,-47
-29,-12,12,20,-21,0,39,-35,-26,-280,-42,-53
-29,-18,6,20,-21,0,39,-29,-26,-280,-36,-41
-41,-6,30,20,-39,6,39,-29,-26,-280,-36,-29
-53,-36,12,44,-33,-5,39,-29,-20,-268,-30,-23
-35,-42,-6,38,-15,-23,39,-23,-8,-256,-30,-23
-35,-36,-6,32,-15,-17,33,-17,-2,-250,-30,-29
-35,-30,0,32,-21,-11,33,-17,-2,-262,-30,-41
-35,-36,-6,32,-15,-17,39,-5,4,-256,-30,-41
-35,-48,-6,38,-9,-29,39,-5,9,-256,-30,-23
-41,-42,-6,38,-21,-17,45,-5,9,-256,-36,-23
-47,-30,12,38,-33,-5,45,-5,9,-256,-30,-29
-41,-6,30,20,-39,6,51,-5,-2,-268,-36,-29
-65,-6,54,32,-63,18,63,-5,-2,-268,-36,-35
-59,-6,48,32,-57,12,63,0,-2,-262,-30,-35
-53,-6,42,26,-51,12,63,0,-2,-256,-24,-35
-47,-12,30,26,-39,0,63,0,9,-244,-18,-17
-53,-18,30,32,-45,0,63,0,9,-238,-12,-17
-53,-12,36,32,-45,6,51,0,4,-244,-18,-41
-47,0,42,20,-45,12,51,0,4,-244,-24,-41
-47,5,48,20,-51,18,39,-5,4,-250,-30,-47
-41,5,54,8,-45,30,33,-11,4,-250,-36,-47
-41,0,36,20,-39,12,39,0,9,-250,-30,-41
-53,-12,36,32,-45,6,51,0,9,-238,-30,-41
-53,-30,18,38,-39,0,69,18,15,-232,-24,-35
-53,-42,6,44,-33,-11,81,24,15,-232,-24,-17
-53,-18,30,32,-45,0,69,12,9,-238,-30,-29
-53,0,48,26,-51,18,57,0,9,-244,-36,-41
-47,17,72,8,-57,42,45,-11,4,-250,-42,-59
-47,35,90,-4,-69,60,33,-17,-8,-250,-42,-65
-47,17,72,8,-57,42,45,-5,4,-244,-36,-53
-53,5,60,20,-57,30,51,0,9,-238,-30,-47
-59,-12,42,32,-51,6,63,6,9,-232,-18,-35
-59,-24,30,38,-45,0,81,12,15,-244,-12,-17
-59,-12,42,32,-51,6,69,6,9,-238,-12,-23
-53,0,48,26,-51,18,63,0,9,-238,-12,-23
-53,5,60,20,-57,30,51,0,9,-238,-18,-35
-59,5,72,20,-63,36,39,0,9,-238,-24,-41
-53,5,66,14,-57,36,27,0,4,-238,-30,-47
-41,5,54,8,-45,30,27,0,4,-238,-30,-47
-35,5,42,8,-39,18,33,0,-2,-232,-24,-47
-35,5,42,8,-39,18,39,0,-2,-232,-18,-47
-35,5,42,8,-39,18,45,0,4,-238,-24,-53
-35,5,42,8,-39,18,45,0,4,-238,-24,-53
-41,5,48,14,-45,24,51,0,9,-238,-36,-59
-41,5,54,8,-45,30,57,0,9,-238,-36,-59
-41,5,48,14,-45,24,57,0,9,-238,-42,-65
-41,0,36,20,-39,12,51,0,-2,-238,-42,-65
-53,-12,36,32,-45,6,39,-5,-2,-250,-42,-53
-35,-18,12,26,-27,0,33,-11,4,-238,-36,-53
-41,-24,12,32,-27,0,45,-5,9,-238,-30,-47
-41,-24,12,32,-27,0,45,-5,9,-238,-30,-53
-53,-30,18,38,-39,0,51,-5,9,-232,-30,-47
-53,-36,12,44,-33,-5,51,0,9,-232,-36,-47
-47,-36,6,38,-27,-11,51,0,-2,-226,-36,-47
-47,-36,6,38,-27,-11,51,0,-8,-232,-42,-35
-53,-36,12,44,-33,-5,51,-5,-20,-232,-42,-59
-59,-36,18,44,-39,-5,45,-5,-20,-238,-36,-77
-59,-18,36,38,-51,0,39,-17,-20,-244,-42,-83
-53,-6,42,26,-51,12,33,-17,-20,-250,-48,-71
-53,5,54,20,-57,24,15,-29,-26,-250,-54,-89
-53,5,66,14,-57,36,15,-29,-20,-256,-48,-89
-53,-6,42,26,-51,12,15,-23,-14,-250,-42,-77
-53,-24,24,38,-39,0,33,-17,-20,-244,-48,-71
-59,-36,18,44,-39,-5,51,-11,-14,-238,-42,-59
-59,-42,12,50,-39,-11,39,-23,-14,-238,-42,-47
-53,-30,18,38,-39,0,33,-11,-14,-232,-42,-53
-53,-24,24,38,-39,0,33,-11,-14,-238,-42,-65
-65,-18,42,38,-57,6,21,-35,-26,-238,-54,-71
-53,-24,24,38,-39,0,21,-35,-26,-238,-54,-71
-47,-42,0,44,-27,-17,27,-17,-14,-232,-48,-65
-47,-42,0,44,-27,-17,27,-29,-14,-244,-48,-59
-41,-48,-6,44,-15,-23,27,-23,-26,-244,-42,-47
-47,-48,-6,44,-21,-23,27,-23,-26,-244,-36,-41
-47,-42,0,44,-27,-17,21,-29,-32,-250,-42,-53
-41,-36,0,38,-21,-11,21,-35,-32,-250,-48,-71
-41,-12,24,26,-33,0,21,-41,-38,-250,-54,-65
-53,-24,24,38,-39,0,27,-41,-32,-250,-60,-65
-59,-30,24,44,-45,0,27,-35,-26,-250,-54,-59
-53,-30,18,38,-39,0,27,-35,-26,-250,-48,-59
-59,-42,12,50,-39,-11,27,-23,-20,-238,-42,-59
-59,-42,12,50,-39,-11,27,-23,-14,-232,-30,-65
-53,-36,12,44,-33,-5,27,-23,-14,-232,-36,-71
-53,-42,6,44,-33,-11,27,-23,-20,-232,-48,-71
-53,-48,0,50,-27,-17,33,-17,-26,-232,-54,-77
-53,-60,-6,56,-21,-29,33,-23,-26,-232,-54,-77
-41,-48,-6,44,-15,-23,27,-29,-26,-232,-54,-77
-53,-36,12,44,-33,-5,27,-35,-20,-232,-54,-83
-53,-24,24,38,-39,0,21,-41,-20,-232,-48,-83
-53,-18,30,32,-45,0,21,-41,-20,-232,-48,-77
-53,-30,18,38,-39,0,21,-29,-8,-232,-36,-65
-53,-18,30,32,-45,0,21,-41,-20,-244,-48,-77
-53,-12,36,32,-45,6,21,-29,-8,-232,-48,-71
-53,-18,30,32,-45,0,27,-23,-8,-226,-42,-71
-53,-18,30,32,-45,0,27,-23,-8,-226,-42,-71
-53,-24,24,38,-39,0,33,-17,-8,-220,-36,-71
-53,-24,24,38,-39,0,33,-17,-8,-220,-36,-71
-53,-36,12,44,-33,-5,33,-17,-14,-214,-36,-65
-41,-36,0,38,-21,-11,27,-23,-14,-214,-36,-71
-41,-42,-6,38,-21,-17,21,-29,-20,-214,-36,-65
-41,-42,-6,38,-21,-17,21,-35,-20,-214,-36,-65
-47,-30,12,38,-33,-5,27,-35,-26,-232,-48,-71
-53,-30,18,38,-39,0,33,-35,-26,-220,-48,-71
-59,-36,18,44,-39,-5,39,-35,-26,-226,-54,-59
-65,-36,24,50,-45,0,39,-47,-26,-238,-66,-71
-59,-30,24,44,-45,0,27,-41,-26,-232,-60,-71
-59,-30,24,44,-45,0,27,-41,-26,-226,-54,-71
-53,-24,24,38,-39,0,21,-35,-26,-220,-48,-71
-53,-24,24,38,-39,0,21,-35,-26,-208,-48,-65
-53,-18,30,32,-45,0,27,-29,-20,-214,-36,-65
-53,-18,30,32,-45,0,27,-29,-20,-214,-36,-59
-47,-12,30,26,-39,0,33,-23,-14,-214,-36,-59
-47,-24,18,32,-33,0,39,-23,-8,-214,-36,-59
-71,-30,36,50,-57,0,39,-23,-8,-208,-36,-53
-59,-30,24,44,-45,0,39,-23,-8,-208,-36,-53
-59,-18,36,38,-51,0,33,-23,-8,-202,-36,-47
-59,-24,30,38,-45,0,33,-23,-8,-202,-36,-41
-53,-12,36,32,-45,6,33,-17,-14,-208,-30,-41
-41,-12,24,26,-33,0,27,-17,-14,-208,-30,-41
-35,-12,18,20,-27,0,27,-17,-20,-208,-24,-53
-35,-12,18,20,-27,0,27,-17,-14,-208,-24,-53
-23,-18,0,20,-15,-5,33,-5,-2,-202,-30,-47
-23,0,18,8,-21,0,39,0,4,-196,-24,-41
-23,0,18,8,-21,0,51,0,9,-166,-24,-35
-17,5,18,2,-21,6,57,18,21,-154,-18,-29
1,5,12,-10,-3,6,63,24,27,-154,-18,-17
12,5,0,-10,8,0,69,30,39,-154,-6,-17
12,5,-11,-10,8,0,69,24,21,-160,-6,-17
30,17,-6,-21,20,0,69,18,21,-154,-6,-17
30,41,6,-33,8,24,75,36,27,-148,0,-11
24,53,24,-39,8,42,75,42,39,-148,5,-5
24,71,42,-45,-3,60,75,48,39,-130,11,19
24,77,48,-51,-3,66,75,48,45,-124,23,25
36,77,36,-57,8,60,69,60,57,-112,23,25
36,71,30,-51,8,54,69,66,63,-100,29,37
54,77,18,-63,14,48,69,90,87,-82,41,49
72,71,-6,-69,32,36,63,90,99,-64,59,61
66,101,30,-81,14,66,63,96,105,-52,71,67
78,119,36,-99,14,78,57,96,99,-58,71,79
72,119,42,-93,8,84,51,96,93,-64,71,73
66,119,48,-93,8,84,39,90,87,-70,71,73
60,113,48,-87,8,84,21,72,75,-76,65,67
60,113,48,-87,8,84,15,60,57,-94,53,55
48,95,42,-69,8,72,15,36,51,-106,41,43
48,83,30,-63,8,60,10,12,27,-130,17,25
54,53,-6,-51,26,24,4,6,15,-136,5,19
48,23,-17,-33,32,0,-2,0,9,-148,5,1
54,5,-53,-21,50,-23,-2,0,4,-160,0,-5
54,0,-59,-21,56,-29,-2,-5,-2,-166,-6,-11
66,5,-65,-27,62,-29,4,0,-2,-160,0,-5
54,-24,-83,-10,68,-53,10,0,4,-154,5,-5
54,-18,-77,-10,62,-47,15,0,9,-136,5,1
54,-12,-71,-15,62,-41,15,6,9,-130,5,7
36,0,-41,-10,38,-17,21,6,9,-136,5,1
36,5,-35,-15,32,-11,21,6,9,-142,0,-11
24,5,-17,-10,20,0,21,12,9,-148,-6,-23
12,5,0,-10,8,0,45,24,21,-136,-6,-23
-17,5,30,-4,-21,18,69,54,27,-124,0,-11
-29,5,42,2,-33,24,93,60,39,-118,0,-11
-35,5,42,8,-39,18,93,78,39,-118,5,-5
-35,5,42,8,-39,18,81,90,51,-100,11,1
-11,17,36,-10,-21,24,21,90,63,-88,17,13
42,47,0,-45,14,24,-2,96,81,-64,29,7
36,35,-6,-33,14,18,-20,108,105,-52,47,25
18,5,-11,-10,14,0,-44,114,111,-46,53,55
36,23,-6,-27,20,6,-74,102,99,-46,53,37
66,47,-11,-57,38,12,-122,102,93,-52,35,19
96,53,-35,-75,68,6,-146,108,93,-52,41,31
126,17,-101,-69,116,-35,-158,132,117,-28,77,61
120,5,-119,-57,116,-53,-176,132,123,-16,95,79
120,41,-71,-81,98,-5,-236,102,87,-34,77,67
144,101,-35,-123,92,30,-278,78,75,-46,65,31
156,83,-65,-117,110,6,-284,90,99,-16,89,49
144,59,-77,-99,110,0,-302,78,99,-11,89,67
144,47,-89,-93,116,-11,-338,48,93,-22,65,49
192,53,-131,-123,164,-29,-362,18,93,-11,71,67
216,65,-143,-141,182,-29,-392,0,81,-11,101,85
234,53,-173,-141,206,-53,-398,-17,63,-11,101,97
240,53,-179,-147,212,-53,-392,-23,75,-11,107,115
234,41,-185,-135,212,-65,-398,-59,57,1,131,127
246,29,-209,-135,230,-83,-458,-131,21,-11,125,115
282,53,-227,-171,254,-77,-500,-191,9,-22,119,121
300,65,-233,-183,266,-77,-530,-215,-2,-22,131,127
312,35,-269,-177,290,-113,-572,-263,-50,-34,119,115
360,5,-359,-177,356,-179,-662,-353,-110,-64,107,121
456,-18,-479,-213,464,-245,-734,-443,-158,-70,143,169
510,-36,-551,-237,530,-293,-836,-569,-230,-106,161,211
552,5,-539,-279,548,-257,-974,-737,-326,-154,161,217
642,101,-533,-369,590,-215,-1112,-917,-410,-184,185,247
744,143,-593,-441,668,-221,-1238,-1085,-482,-214,221,307
822,125,-695,-477,758,-275,-1382,-1271,-578,-250,251,343
906,107,-791,-501,848,-335,-1496,-1409,-662,-262,275,373
984,137,-845,-561,920,-347,-1544,-1487,-716,-262,305,415
1026,179,-845,-603,938,-329,-1592,-1553,-764,-310,299,439
1044,173,-869,-609,962,-341,-1622,-1619,-836,-358,275,439
1104,125,-977,-615,1040,-419,-1604,-1619,-860,-364,305,475
1146,95,-1043,-621,1094,-473,-1568,-1577,-842,-352,347,547
1182,137,-1037,-657,1112,-449,-1574,-1565,-860,-352,389,595
1248,203,-1043,-729,1148,-419,-1598,-1589,-872,-340,443,643
1296,239,-1055,-765,1178,-407,-1574,-1541,-824,-268,539,727
1326,293,-1025,-807,1178,-359,-1514,-1451,-728,-166,659,823
1368,377,-983,-873,1178,-299,-1448,-1307,-632,-46,779,937
1380,443,-935,-909,1160,-239,-1364,-1175,-500,79,905,1045
1308,485,-821,-897,1064,-167,-1262,-1043,-398,175,977,1105
1236,551,-683,-897,962,-59,-1178,-965,-338,223,1001,1129
1218,635,-575,-927,896,24,-1100,-893,-272,265,1043,1189
1104,605,-491,-855,800,54,-992,-809,-206,307,1061,1195
972,545,-419,-753,698,60,-896,-737,-170,307,1013,1141
900,569,-323,-735,614,120,-812,-641,-104,325,1001,1093
786,563,-221,-675,500,174,-692,-527,-20,373,971,1051
606,425,-179,-513,392,120,-530,-395,27,373,869,913
414,281,-125,-345,266,78,-386,-293,45,307,707,721
264,203,-59,-237,164,66,-290,-239,9,193,491,511
180,77,-95,-129,140,0,-230,-203,-50,43,275,301
108,-42,-155,-27,128,-95,-164,-161,-80,-46,137,163
72,-42,-119,-10,92,-77,-104,-137,-80,-100,53,91
42,-24,-71,-10,56,-47,-74,-131,-104,-142,5,49
12,-96,-107,38,56,-101,-20,-113,-86,-148,-12,37
-35,-126,-83,80,14,-107,15,-77,-56,-124,0,25
-59,-84,-17,68,-15,-53,27,-59,-50,-130,-12,7
-101,-84,12,92,-57,-29,39,-47,-50,-130,-18,-5
-101,-120,-11,110,-39,-65,63,-23,-32,-124,-24,-17
-113,-144,-23,128,-39,-83,75,0,-14,-112,-36,-35
-125,-144,-11,134,-51,-77,75,12,-8,-106,-42,-23
-119,-138,-11,128,-51,-77,75,24,-8,-112,-54,-41
-119,-132,-6,122,-51,-71,93,42,4,-100,-54,-41
-119,-120,-6,116,-57,-59,93,30,-2,-106,-66,-47
-125,-108,12,116,-69,-41,93,18,-14,-124,-66,-59
-125,-114,6,116,-69,-47,99,18,-20,-136,-78,-59
-143,-126,12,134,-81,-53,105,24,-20,-136,-78,-59
-155,-138,12,146,-87,-59,117,24,-20,-142,-90,-71
-155,-114,36,134,-99,-35,123,30,-20,-148,-96,-71
-155,-108,42,128,-99,-29,129,42,-14,-148,-90,-77
-155,-102,48,128,-105,-23,117,54,-8,-142,-96,-89
-143,-96,42,116,-93,-23,111,54,-2,-136,-102,-101
-137,-90,42,110,-93,-17,111,60,4,-124,-102,-101
-137,-102,30,116,-87,-29,117,78,-2,-124,-102,-95
-137,-114,18,122,-81,-41,117,66,4,-124,-96,-89
-137,-126,6,128,-75,-53,117,66,-2,-124,-96,-83
-143,-132,6,134,-75,-59,123,66,-2,-124,-96,-77
-155,-132,18,140,-87,-53,129,54,-8,-136,-96,-77
-155,-132,18,140,-87,-53,129,66,-8,-136,-102,-83
-161,-132,24,146,-93,-47,135,72,-2,-136,-102,-83
-173,-132,36,152,-105,-41,135,72,-2,-136,-108,-77
-161,-126,30,140,-99,-41,129,72,4,-130,-102,-77
-149,-108,36,128,-93,-29,129,84,4,-130,-102,-77
-149,-102,42,122,-99,-23,123,78,9,-124,-96,-83
-149,-102,42,122,-99,-23,123,84,9,-118,-96,-95
-149,-102,42,122,-99,-23,123,90,9,-124,-96,-89
-149,-90,54,116,-105,-11,123,90,9,-124,-84,-89
-167,-108,54,134,-111,-23,129,90,9,-130,-102,-83
-173,-96,72,134,-123,-5,129,90,9,-130,-102,-83
-167,-102,60,134,-117,-17,135,114,9,-124,-96,-83
-149,-102,42,122,-99,-23,135,114,9,-118,-96,-77
-143,-108,30,122,-87,-35,147,120,21,-112,-90,-77
-137,-108,24,122,-81,-35,153,126,33,-106,-84,-77
-137,-102,30,116,-87,-29,153,132,33,-100,-84,-65
-137,-102,30,116,-87,-29,159,132,33,-100,-84,-65
-143,-84,54,110,-99,-11,159,138,33,-94,-78,-65
-143,-84,54,110,-99,-11,159,144,33,-94,-78,-65
-149,-90,54,116,-105,-11,159,144,33,-82,-84,-65
-149,-84,60,116,-105,-5,159,144,33,-82,-84,-59
-161,-102,54,128,-111,-17,165,156,45,-70,-84,-53
-161,-108,48,134,-105,-23,165,162,45,-82,-84,-47
-149,-102,42,122,-99,-23,165,162,45,-76,-84,-53
-137,-102,30,116,-87,-29,165,168,45,-76,-84,-59
-131,-96,30,110,-81,-29,165,162,51,-64,-78,-53
-125,-90,30,104,-81,-23,165,162,51,-64,-78,-59
-131,-90,36,110,-87,-23,171,168,57,-58,-78,-65
-137,-90,42,110,-93,-17,171,168,57,-58,-78,-59
-149,-96,48,122,-99,-17,189,192,57,-46,-72,-53
-155,-78,72,116,-117,0,195,198,63,-34,-72,-47
-143,-84,54,110,-99,-11,195,204,69,-34,-72,-47
-137,-96,36,116,-87,-23,195,204,69,-28,-72,-47
-131,-90,36,110,-87,-23,183,210,63,-28,-60,-41
-131,-60,66,92,-99,0,183,216,63,-22,-60,-35
-131,-66,60,98,-99,0,195,228,69,-28,-60,-35
-125,-66,54,92,-93,0,195,228,75,-28,-54,-35
-125,-66,54,92,-93,0,201,234,75,-28,-54,-35
-125,-66,54,92,-93,0,201,240,75,-16,-54,-35
-137,-54,78,92,-111,6,201,246,93,-16,-48,-17
-137,-54,78,92,-111,6,201,252,93,-16,-48,-29
-143,-66,72,104,-111,0,213,258,105,-11,-42,-23
-143,-72,66,104,-105,0,219,276,111,-11,-42,-23
-125,-60,60,92,-93,0,213,276,111,-11,-42,-17
-107,-42,60,74,-87,0,213,282,111,-11,-36,-17
-95,-12,78,50,-87,24,207,282,117,-11,-36,-23
-89,0,84,44,-87,36,207,288,117,-5,-36,-29
-95,0,90,44,-93,36,219,300,123,1,-30,-17
-89,-6,78,44,-87,30,225,306,147,13,-18,-5
-101,-6,90,50,-99,36,237,312,159,25,-6,7
-107,-12,90,56,-99,30,255,318,165,37,-6,13
-107,0,102,50,-105,42,261,324,165,37,0,13
-107,0,102,50,-105,42,255,330,165,37,0,13
-89,11,108,32,-99,60,243,336,159,31,-6,13
-71,17,96,20,-81,54,237,342,165,31,5,19
-83,11,102,26,-93,54,231,348,171,43,5,25
-83,23,114,20,-99,66,237,348,177,55,5,25
-71,17,96,20,-81,54,243,360,195,67,5,31
-71,17,96,20,-81,54,249,366,201,85,11,31
-71,35,114,8,-93,72,249,366,201,91,11,43
-53,23,84,8,-69,54,249,372,207,97,17,49
-53,29,90,2,-69,60,255,378,201,97,17,67
-53,47,108,-4,-81,78,255,378,201,91,17,79
-35,65,108,-10,-69,84,243,378,201,91,29,79
-29,71,108,-15,-69,90,237,372,201,97,29,79
-17,89,114,-27,-63,102,231,366,207,97,47,73
-17,89,114,-27,-63,102,231,360,213,97,53,79
-5,77,90,-27,-45,84,231,372,213,103,65,91
1,77,84,-33,-39,78,225,372,219,121,71,91
1,71,78,-27,-39,72,219,372,219,133,65,97
12,77,72,-39,-27,72,219,372,219,133,71,103
12,83,78,-39,-33,78,213,378,219,127,77,109
12,89,84,-45,-33,84,213,366,219,127,77,115
12,95,78,-51,-27,90,213,372,219,121,95,115
24,101,72,-63,-15,90,213,372,213,127,95,121
36,107,66,-69,-9,90,195,360,213,133,89,115
48,119,66,-81,-3,96,189,354,213,133,95,115
72,125,48,-99,8,90,165,348,213,139,95,109
72,113,36,-93,14,78,153,342,213,139,95,115
66,101,30,-81,14,66,147,330,207,145,101,121
78,89,6,-81,32,48,141,318,201,133,101,127
78,77,-6,-75,38,36,147,324,195,139,107,133
78,71,-6,-75,38,30,147,306,195,133,107,139
90,71,-11,-81,50,24,129,294,183,121,101,133
102,71,-23,-87,62,18,111,282,171,121,101,145
108,53,-47,-81,80,0,105,270,165,115,95,145
120,41,-71,-81,98,-5,87,264,159,115,101,145
132,47,-77,-87,104,-5,75,252,141,115,107,151
132,65,-59,-99,98,0,63,240,129,103,95,151
126,71,-47,-99,86,6,57,222,117,91,95,151
126,59,-59,-93,92,0,45,216,111,85,95,151
126,65,-53,-93,92,0,45,210,111,91,101,151
126,65,-53,-93,92,0,33,198,99,79,95,151
114,53,-53,-81,86,0,15,180,87,73,101,139
114,53,-53,-81,86,0,15,168,87,67,101,139
102,47,-47,-75,74,0,21,162,93,73,89,145
102,35,-59,-69,80,-5,21,156,87,73,89,139
102,5,-89,-51,98,-35,21,162,87,79,83,139
90,5,-89,-39,86,-41,15,150,87,67,77,139
72,11,-53,-39,62,-11,15,126,63,55,59,127
72,5,-65,-33,68,-23,15,120,63,49,59,121
66,5,-59,-33,62,-23,15,114,51,37,53,115
48,0,-53,-15,50,-23,15,108,51,31,47,115
48,-6,-59,-15,50,-29,15,102,45,31,41,109
36,-12,-53,-10,44,-29,15,102,39,31,35,103
30,-18,-53,-10,38,-35,21,102,33,37,29,91
18,-18,-41,-10,26,-29,21,90,21,25,29,79
12,-24,-41,-4,26,-29,15,84,15,19,23,79
12,-18,-29,-4,14,-23,15,84,15,19,11,73
-5,-24,-11,14,8,-17,15,78,15,13,5,61
-11,-18,-6,14,-3,-11,15,78,15,13,5,61
1,-24,-17,8,8,-23,15,78,15,7,5,61
1,-18,-11,8,8,-17,15,72,9,7,5,61
7,-42,-41,14,14,-41,15,72,9,7,5,61
7,-36,-35,14,14,-35,15,66,9,7,5,55
1,-30,-23,14,8,-29,21,66,9,7,5,49
1,-42,-35,20,8,-41,27,72,9,7,0,55
-5,-66,-53,32,14,-59,21,72,9,7,0,61
-17,-48,-23,32,8,-35,27,66,9,-5,-6,67
-17,-48,-23,32,8,-35,27,72,4,1,-6,61
-17,-48,-23,32,8,-35,27,72,4,7,0,61
-17,-42,-17,26,3,-29,27,72,4,13,5,55
-17,-42,-17,26,3,-29,21,66,-2,1,0,55
-23,-60,-29,38,8,-47,21,66,-2,1,0,61
-11,-78,-59,44,14,-71,21,66,-2,7,0,55
-5,-90,-77,44,26,-83,27,66,-2,7,0,55
-5,-102,-89,50,32,-95,27,66,-2,1,5,49
-5,-84,-71,44,26,-77,21,60,-2,-5,5,49
-5,-72,-59,38,20,-65,21,60,-2,-5,0,49
-17,-66,-41,38,8,-53,21,60,-2,1,-12,55
-17,-54,-29,32,8,-41,21,66,4,1,-18,55
-11,-66,-47,38,8,-59,21,66,4,1,0,55
-11,-72,-53,38,14,-65,21,60,-8,1,0,55
-5,-84,-71,44,26,-77,15,54,-8,1,0,55
1,-84,-77,38,32,-83,15,54,-8,1,0,55
-5,-60,-47,32,14,-53,21,60,-8,7,-6,55
-5,-66,-53,32,14,-59,21,60,-2,7,-6,49
-11,-54,-35,32,8,-47,21,54,4,13,0,49
-11,-42,-23,26,8,-35,21,54,4,13,0,49
-29,-36,-6,32,-9,-17,21,48,-8,7,-12,43
-29,-36,-6,32,-9,-17,21,48,-8,-5,-12,61
-29,-30,-6,26,-15,-11,21,42,-8,-11,-18,55
-29,-24,0,26,-15,-5,21,42,-8,-11,-18,55
-29,-30,-6,26,-15,-11,21,48,-8,-11,-12,67
-29,-42,-6,32,-9,-23,21,54,-8,-5,-6,67
-29,-54,-17,38,-3,-35,39,60,-2,7,0,55
-29,-72,-35,50,8,-53,39,72,-2,13,5,55
-23,-66,-35,44,8,-53,39,78,-2,7,5,61
-35,-48,-6,38,-9,-29,39,78,-2,7,5,73
-41,-66,-17,50,-9,-41,39,78,4,13,5,73
-23,-66,-35,44,8,-53,39,84,9,25,5,73
-23,-48,-17,32,3,-35,33,78,9,19,0,67
-23,-36,-6,26,-3,-23,33,78,4,7,0,55
-23,-30,-6,26,-9,-17,39,78,-2,1,-6,55
-23,-36,-6,26,-3,-23,39,78,4,1,-6,73
-17,-42,-17,26,3,-29,39,84,9,13,0,73
-17,-30,-6,20,-3,-17,39,84,9,13,5,73
1,-18,-11,8,8,-17,39,90,9,13,5,73
-17,-18,-6,14,-9,-5,51,90,9,13,5,73
-23,-18,0,20,-15,-5,57,96,9,19,5,73
-23,-18,0,20,-15,-5,57,96,9,25,5,73
-29,-24,0,26,-15,-5,63,96,21,43,11,85
-41,-30,6,32,-27,-5,63,90,21,49,11,85
-47,-30,12,38,-33,-5,57,90,15,43,11,73
-41,-24,12,32,-27,0,57,96,15,43,11,73
-47,-24,18,32,-33,0,51,96,27,31,11,73
-41,-18,18,26,-33,0,45,96,27,31,11,73
-35,-12,18,20,-27,0,39,90,21,31,5,73
-41,-6,30,20,-39,6,39,96,21,37,5,67
-35,0,30,14,-33,6,45,96,21,37,5,67
-29,5,30,8,-33,12,45,96,15,31,5,79
-35,0,30,14,-33,6,45,96,21,31,5,79
-41,-6,30,20,-39,6,45,84,21,31,5,73
-41,-6,30,20,-39,6,45,84,21,31,5,67
