,,,,,,,,,,,
2019-09-04 23:49:52,,,,,,,,,,,
,,,,,,,,,,,
I,II,III,aVR,aVL,aVF,V1,V2,V3,V4,V5,V6
14,26,10,-21,-2,16,28,38,207,217,155,48
14,26,10,-21,-2,16,28,38,207,217,155,48
14,26,10,-21,-2,16,28,38,207,217,155,48
14,26,10,-21,-2,16,28,38,207,217,155,48
8,32,16,-21,-8,28,22,26,189,205,137,42
2,32,22,-15,-8,28,22,20,177,193,125,36
-4,38,34,-15,-13,40,16,8,159,181,107,30
-4,38,40,-15,-19,40,16,2,147,169,95,24
-4,44,52,-15,-25,46,10,-4,123,145,83,12
-9,44,58,-9,-31,52,4,-9,105,127,71,6
-15,50,70,-9,-43,58,-2,-21,81,103,59,-6
-21,50,76,-9,-49,64,-2,-33,63,85,47,-6
-27,50,82,-4,-55,64,-2,-45,51,73,35,-6
-33,50,88,-4,-61,70,-2,-51,39,61,29,-6
-39,50,94,-4,-67,70,-2,-63,27,49,17,-11
-45,50,100,-4,-73,76,-2,-69,15,37,11,-11
-51,50,106,-4,-79,76,-2,-75,3,25,5,-17
-51,50,106,-4,-79,76,-2,-75,-3,19,-1,-23
-57,50,112,-4,-85,82,-7,-81,-3,7,-7,-29
-57,50,112,-4,-85,82,-7,-81,-8,1,-7,-35
-63,50,118,-4,-91,82,-7,-87,-20,-5,-7,-41
-63,50,118,-4,-91,82,-7,-87,-32,-5,-12,-41
-69,50,124,2,-97,88,-7,-93,-44,-16,-18,-47
-69,50,124,2,-97,88,-7,-93,-56,-22,-24,-47
-69,44,118,2,-91,82,-2,-93,-56,-28,-30,-53
-69,38,112,8,-91,76,-2,-93,-56,-28,-36,-53
-69,32,106,8,-85,70,-2,-93,-56,-34,-42,-59
-69,26,100,14,-85,64,-2,-93,-56,-34,-48,-59
-75,14,94,20,-85,52,-2,-87,-56,-40,-48,-59
-75,8,88,26,-79,46,-2,-87,-56,-40,-48,-59
-81,8,82,32,-85,40,4,-81,-56,-46,-48,-59
-81,3,76,38,-79,34,4,-81,-56,-46,-48,-59
-81,3,76,38,-79,34,10,-75,-50,-46,-48,-65
-81,3,76,38,-79,34,10,-75,-50,-46,-48,-65
-81,3,76,38,-79,34,16,-69,-44,-46,-48,-71
-81,3,76,38,-79,34,16,-69,-44,-46,-48,-71
-81,-3,70,38,-79,28,22,-69,-38,-40,-48,-71
-81,-3,70,38,-79,28,28,-69,-38,-40,-48,-71
-81,-9,64,44,-73,22,34,-69,-32,-34,-48,-71
-81,-9,64,44,-73,22,40,-69,-32,-34,-48,-71
-81,-15,58,44,-73,16,46,-63,-26,-40,-54,-77
-81,-15,58,44,-73,16,52,-57,-26,-40,-54,-77
-81,-21,52,50,-67,10,58,-51,-20,-46,-60,-83
-81,-21,52,50,-67,10,64,-45,-20,-46,-60,-83
-81,-15,58,44,-73,16,70,-39,-20,-40,-54,-83
-81,-15,58,44,-73,16,76,-39,-20,-34,-54,-83
-81,-9,64,44,-73,22,82,-33,-20,-28,-48,-83
-81,-9,64,44,-73,22,88,-33,-20,-22,-48,-83
-81,3,76,38,-79,34,70,-45,-26,-22,-42,-71
-81,8,88,32,-85,46,52,-51,-26,-22,-42,-65
-81,14,100,26,-91,58,34,-63,-32,-22,-36,-53
-81,26,112,20,-97,70,16,-69,-32,-22,-36,-47
-75,38,118,8,-97,76,-2,-81,-38,-16,-36,-47
-69,44,118,2,-91,82,-19,-87,-44,-16,-36,-47
-63,56,124,-4,-91,88,-43,-99,-50,-10,-36,-47
-57,62,124,-4,-91,94,-67,-105,-56,-10,-36,-47
-51,68,124,-4,-85,94,-67,-105,-56,-16,-36,-47
-51,68,124,-4,-85,94,-67,-105,-56,-16,-36,-47
-45,74,124,-9,-85,100,-67,-105,-56,-22,-36,-47
-45,74,124,-9,-85,100,-67,-105,-56,-22,-36,-47
-45,68,118,-4,-79,94,-55,-93,-50,-16,-30,-41
-45,62,112,-4,-79,88,-49,-81,-44,-10,-24,-41
-45,56,106,-4,-73,82,-37,-69,-38,-5,-18,-35
-45,50,100,-4,-73,76,-31,-57,-32,-5,-12,-35
-39,50,94,-4,-67,70,-25,-51,-26,-5,-12,-35
-39,50,94,-4,-67,70,-19,-51,-26,-5,-12,-35
-33,50,88,-4,-61,70,-13,-45,-20,1,-12,-35
-33,50,88,-4,-61,70,-7,-45,-20,1,-12,-35
-39,56,100,-4,-67,76,-7,-45,-14,7,-12,-29
-39,62,106,-4,-73,82,-7,-45,-14,7,-12,-29
-45,68,118,-4,-79,94,-7,-45,-8,13,-12,-23
-45,74,124,-9,-85,100,-7,-45,-8,13,-12,-23
-45,74,124,-9,-85,100,-7,-45,-8,13,-7,-23
-45,74,124,-9,-85,100,-2,-45,-3,13,-7,-23
-45,74,124,-9,-85,100,-2,-45,-3,25,-7,-23
-45,74,124,-9,-85,100,-2,-45,-3,25,-1,-11
-57,86,148,-9,-103,118,4,-33,-3,37,11,-11
-69,86,160,-4,-115,124,4,-33,3,37,11,-11
-69,86,160,-4,-115,124,4,-21,15,49,11,-11
-69,86,160,-4,-115,124,16,-21,27,73,23,-6
-69,74,148,-4,-109,112,28,-9,51,85,35,-6
-93,62,160,8,-127,112,40,-4,63,97,35,-11
-81,50,136,8,-109,94,52,-4,75,109,35,-11
-81,38,124,14,-103,82,64,14,87,121,35,-11
-81,26,112,20,-97,70,64,26,99,121,35,-11
-69,8,76,26,-73,40,76,38,111,121,47,-11
-57,3,52,26,-55,22,76,50,135,157,59,-6
-33,-9,16,20,-25,10,88,74,159,181,95,-6
-21,-33,-7,26,-8,-19,88,98,195,205,107,0
-9,-69,-55,38,16,-61,112,134,219,229,119,12
-4,-93,-91,44,40,-91,124,158,237,235,131,12
2,-129,-139,56,70,-133,148,194,285,259,155,24
26,-153,-187,56,106,-169,160,230,333,295,167,36
62,-165,-229,44,148,-199,184,260,381,331,203,48
74,-177,-253,44,166,-217,208,296,429,379,233,72
98,-201,-301,44,202,-247,232,344,477,427,281,96
134,-201,-337,26,232,-265,232,380,531,475,317,120
170,-225,-397,20,280,-307,238,428,567,505,341,132
206,-267,-475,26,340,-373,262,476,627,541,377,156
236,-315,-559,32,400,-439,274,518,687,577,413,180
296,-327,-631,8,466,-475,286,566,729,613,449,204
332,-351,-691,2,508,-517,286,602,777,637,479,228
368,-351,-721,-4,544,-535,274,626,813,661,515,246
404,-339,-745,-27,574,-541,274,638,837,685,551,294
440,-363,-805,-33,622,-583,274,674,885,721,587,318
464,-387,-853,-33,658,-619,286,722,945,763,635,342
494,-387,-889,-51,694,-637,298,752,999,823,695,378
518,-387,-913,-63,718,-649,298,788,1059,871,737,414
554,-387,-949,-81,748,-667,298,824,1107,907,797,438
590,-387,-979,-99,784,-685,310,860,1143,943,833,474
626,-387,-1015,-117,820,-703,298,884,1179,955,857,504
650,-399,-1051,-123,850,-721,310,896,1191,931,869,516
674,-423,-1099,-123,886,-757,322,920,1203,895,869,516
722,-447,-1171,-135,946,-805,322,956,1179,823,857,528
740,-489,-1237,-123,988,-865,322,956,1119,709,821,516
776,-537,-1321,-117,1048,-931,310,968,1059,565,797,516
800,-573,-1381,-111,1090,-973,310,974,975,427,749,504
836,-609,-1453,-111,1144,-1027,298,986,897,283,695,492
860,-633,-1495,-111,1180,-1063,274,968,801,157,635,474
884,-657,-1543,-111,1210,-1099,250,932,711,37,575,450
908,-657,-1567,-123,1234,-1111,196,884,591,-70,515,426
932,-633,-1567,-147,1246,-1099,124,812,483,-154,491,426
956,-609,-1567,-171,1258,-1087,88,764,429,-190,479,450
974,-585,-1567,-195,1270,-1075,64,740,393,-226,479,462
974,-597,-1579,-189,1276,-1087,52,710,309,-304,437,426
956,-597,-1555,-177,1252,-1075,52,662,195,-412,365,378
944,-597,-1543,-171,1240,-1069,64,638,111,-484,305,354
932,-609,-1543,-159,1234,-1075,76,626,75,-502,281,342
920,-621,-1543,-147,1228,-1081,100,638,63,-502,269,318
908,-609,-1519,-147,1210,-1063,124,650,63,-490,257,294
872,-597,-1471,-135,1174,-1033,148,662,63,-472,245,270
824,-597,-1429,-111,1126,-1009,172,662,87,-436,233,246
776,-573,-1357,-99,1066,-961,172,650,99,-400,233,216
740,-537,-1285,-99,1012,-913,160,626,99,-364,227,180
698,-501,-1207,-93,952,-853,148,602,123,-304,227,156
662,-447,-1111,-105,886,-775,148,590,171,-226,233,156
614,-375,-991,-117,802,-685,136,566,219,-154,245,156
566,-315,-889,-123,724,-601,124,566,249,-94,233,144
518,-267,-793,-123,658,-529,136,554,273,-46,233,144
464,-225,-691,-117,574,-457,136,530,285,-22,215,132
404,-189,-595,-105,496,-391,160,518,285,-22,179,108
320,-177,-499,-69,412,-337,184,482,273,-22,143,72
260,-153,-421,-51,340,-283,196,440,249,-22,107,36
230,-117,-349,-51,286,-229,196,404,231,-34,59,0
170,-117,-289,-21,232,-205,208,356,183,-58,-1,-47
122,-105,-229,-4,178,-169,208,308,135,-94,-48,-83
86,-69,-163,-4,124,-115,184,248,87,-106,-84,-107
62,-45,-115,-4,88,-79,148,194,39,-106,-108,-107
26,-33,-67,-4,46,-49,100,134,-3,-118,-120,-107
-4,-9,-7,2,-2,-7,52,74,-44,-130,-120,-119
-33,8,40,8,-37,22,4,14,-80,-142,-120,-119
-69,8,76,26,-73,40,-2,-21,-104,-142,-132,-119
-105,8,112,44,-109,58,-2,-69,-128,-154,-132,-119
-105,14,124,38,-115,70,4,-93,-152,-154,-144,-119
-117,14,136,44,-127,76,4,-117,-164,-154,-144,-131
-129,14,148,50,-139,82,16,-141,-188,-166,-168,-131
-141,14,160,56,-151,88,16,-165,-200,-166,-180,-143
-141,14,160,56,-151,88,16,-177,-224,-178,-204,-155
-153,14,172,62,-163,94,4,-189,-242,-178,-204,-167
-177,14,196,74,-187,106,4,-201,-254,-190,-204,-167
-189,14,208,80,-199,112,-2,-225,-266,-202,-216,-179
-201,14,220,86,-211,118,4,-237,-266,-202,-216,-179
-201,38,244,74,-223,142,4,-237,-254,-190,-204,-167
-201,44,250,68,-223,148,-2,-243,-260,-184,-198,-161
-201,50,250,68,-229,154,-2,-243,-260,-184,-198,-161
-201,56,256,62,-229,160,-2,-249,-266,-178,-192,-155
-201,62,262,62,-235,166,-7,-255,-266,-178,-192,-155
-189,80,268,44,-229,178,-37,-267,-272,-178,-192,-149
-183,92,274,38,-229,184,-67,-279,-278,-178,-192,-149
-171,110,280,20,-229,196,-97,-291,-284,-178,-192,-143
-165,122,286,14,-229,208,-127,-303,-290,-178,-192,-143
-171,128,298,14,-235,214,-145,-309,-296,-184,-192,-143
-171,128,298,14,-235,214,-157,-315,-302,-190,-192,-143
-177,134,310,14,-247,226,-175,-321,-308,-196,-192,-143
-177,134,310,14,-247,226,-187,-327,-314,-202,-192,-143
-171,134,304,8,-241,220,-169,-315,-308,-196,-192,-143
-171,134,304,8,-241,220,-157,-309,-308,-190,-192,-143
-165,134,298,8,-235,220,-139,-297,-302,-184,-192,-143
-165,134,298,8,-235,220,-127,-291,-302,-178,-192,-143
-165,140,304,2,-235,226,-133,-291,-302,-178,-192,-143
-165,146,310,2,-241,232,-133,-291,-302,-178,-192,-143
-165,152,316,-4,-241,238,-139,-291,-302,-178,-192,-143
-165,158,322,-4,-247,244,-139,-291,-302,-178,-192,-143
-171,164,334,-4,-247,250,-139,-297,-302,-172,-186,-137
-177,164,340,-4,-253,250,-139,-297,-302,-172,-186,-137
-183,170,352,-4,-265,256,-139,-303,-302,-166,-180,-131
-189,170,358,2,-271,262,-139,-303,-302,-166,-180,-131
-195,176,370,2,-277,268,-139,-309,-308,-172,-186,-137
-201,176,376,2,-283,274,-139,-315,-308,-172,-192,-137
-207,182,388,2,-295,280,-139,-321,-314,-178,-198,-143
-213,182,394,8,-301,286,-139,-327,-314,-178,-204,-143
-219,188,406,8,-307,292,-145,-339,-326,-184,-210,-149
-225,194,418,8,-319,304,-145,-351,-332,-190,-210,-149
-231,200,430,8,-325,310,-151,-363,-344,-196,-216,-155
-237,206,442,8,-337,322,-151,-375,-350,-202,-216,-155
-243,212,460,8,-349,334,-157,-381,-362,-208,-222,-161
-249,212,466,14,-355,334,-157,-387,-368,-208,-228,-161
-261,218,484,14,-373,346,-163,-393,-380,-214,-234,-167
-267,218,490,20,-379,352,-163,-399,-386,-214,-240,-167
-273,230,502,14,-391,364,-169,-411,-392,-220,-246,-173
-279,236,514,14,-397,376,-169,-423,-398,-220,-246,-173
-285,248,532,14,-409,388,-175,-435,-404,-226,-246,-179
-291,248,544,14,-421,400,-175,-447,-410,-226,-246,-179
-303,254,562,14,-433,412,-175,-453,-416,-226,-252,-185
-309,260,574,14,-445,418,-175,-459,-416,-226,-258,-185
-321,266,592,20,-457,430,-175,-465,-422,-226,-264,-191
-327,272,604,20,-469,442,-175,-471,-422,-226,-270,-191
-333,284,622,14,-481,454,-181,-483,-434,-226,-276,-197
-339,290,634,14,-487,466,-187,-489,-440,-226,-276,-197
-345,302,652,14,-493,478,-193,-501,-452,-226,-282,-203
-351,308,664,14,-505,490,-199,-513,-458,-226,-282,-203
-363,320,688,14,-523,502,-205,-525,-464,-226,-288,-203
-375,326,706,14,-535,514,-205,-537,-464,-226,-288,-203
-387,338,730,14,-553,532,-211,-549,-470,-226,-294,-203
-399,344,742,20,-571,544,-211,-561,-470,-226,-294,-203
-405,356,760,14,-583,556,-211,-567,-464,-214,-288,-203
-405,362,766,14,-583,562,-211,-567,-464,-202,-288,-203
-411,374,784,8,-595,580,-211,-573,-458,-190,-282,-203
-411,380,790,8,-601,586,-211,-573,-458,-178,-282,-203
-405,392,796,-4,-601,592,-217,-579,-452,-166,-276,-197
-405,398,802,-4,-601,598,-217,-579,-452,-160,-270,-191
-399,410,808,-4,-601,610,-223,-585,-446,-148,-264,-185
-399,416,814,-4,-607,616,-223,-585,-446,-142,-258,-179
-399,422,820,-4,-607,622,-223,-579,-434,-130,-252,-173
-399,428,826,-9,-613,628,-223,-579,-428,-118,-246,-173
-399,434,832,-9,-613,634,-223,-573,-416,-106,-246,-167
-399,440,838,-15,-619,640,-223,-573,-410,-94,-240,-167
-393,446,838,-21,-613,640,-223,-579,-404,-82,-228,-161
-393,446,838,-21,-613,640,-223,-579,-398,-76,-222,-161
-387,452,838,-27,-613,646,-223,-585,-392,-64,-210,-155
-387,452,838,-27,-613,646,-223,-585,-386,-58,-204,-155
-381,446,826,-27,-601,634,-223,-585,-374,-46,-198,-149
-381,446,826,-27,-601,634,-223,-585,-368,-40,-198,-143
-375,440,814,-27,-595,628,-223,-585,-356,-28,-192,-137
-375,440,814,-27,-595,628,-223,-585,-350,-22,-192,-131
-363,434,796,-27,-577,616,-229,-579,-338,-16,-180,-125
-357,428,784,-27,-571,604,-229,-573,-326,-10,-168,-119
-345,422,766,-33,-553,592,-235,-567,-314,-5,-156,-113
-339,416,754,-33,-547,586,-235,-561,-302,-5,-144,-107
-327,404,736,-33,-529,568,-229,-549,-290,-5,-138,-101
-321,392,718,-27,-517,550,-229,-537,-278,-5,-132,-101
-309,380,694,-27,-499,532,-223,-525,-266,1,-126,-95
-303,368,676,-27,-493,520,-223,-513,-254,1,-120,-95
-285,356,646,-27,-469,496,-217,-501,-242,7,-114,-89
-273,350,628,-33,-451,490,-217,-495,-242,7,-108,-89
-255,338,598,-33,-427,472,-211,-489,-230,13,-102,-83
-243,332,580,-39,-415,460,-211,-483,-224,13,-96,-83
-237,320,556,-39,-397,442,-205,-465,-218,13,-90,-77
-225,308,532,-39,-379,424,-205,-453,-212,13,-84,-71
-213,296,508,-39,-361,406,-199,-435,-206,13,-78,-65
-201,284,490,-39,-343,388,-199,-423,-200,13,-72,-59
-195,266,466,-33,-325,364,-193,-411,-194,1,-72,-59
-189,254,448,-27,-313,352,-193,-405,-188,-5,-72,-59
-183,242,424,-21,-301,328,-187,-393,-182,-5,-72,-59
-177,230,406,-21,-289,316,-187,-387,-176,-10,-72,-59
-171,218,388,-15,-277,298,-175,-375,-170,-16,-66,-59
-165,206,370,-15,-265,286,-169,-363,-170,-16,-66,-59
-159,194,352,-9,-253,268,-157,-351,-164,-22,-60,-59
-153,182,334,-9,-247,256,-151,-339,-164,-22,-60,-59
-147,170,316,-4,-235,244,-145,-327,-158,-28,-66,-59
-141,164,304,-4,-223,238,-139,-315,-152,-34,-66,-59
-135,152,286,-4,-211,220,-133,-303,-146,-40,-72,-59
-129,146,274,-4,-205,214,-127,-291,-140,-46,-72,-59
-123,128,250,-4,-187,190,-115,-279,-134,-52,-72,-65
-117,116,238,-4,-175,178,-109,-267,-134,-52,-72,-65
-111,98,214,-4,-163,154,-97,-255,-128,-58,-72,-71
-105,86,196,2,-151,142,-91,-243,-128,-58,-72,-71
-105,74,184,8,-145,130,-79,-237,-122,-64,-72,-77
-105,62,172,14,-139,118,-73,-225,-122,-64,-72,-77
-105,50,160,20,-133,106,-61,-213,-116,-70,-72,-83
-105,38,148,26,-127,94,-55,-201,-116,-70,-72,-83
-99,32,136,26,-115,82,-49,-189,-110,-76,-72,-77
-99,26,130,26,-115,76,-43,-183,-104,-76,-72,-77
-93,20,118,26,-103,70,-37,-171,-98,-82,-72,-71
-93,14,112,32,-103,64,-31,-165,-92,-82,-72,-71
-93,8,106,32,-97,58,-25,-159,-86,-76,-66,-77
-93,8,100,38,-97,52,-19,-153,-86,-76,-66,-77
-93,8,94,38,-97,46,-13,-147,-80,-70,-60,-83
-93,3,88,44,-91,40,-7,-141,-80,-70,-60,-83
-99,-9,82,50,-91,28,-2,-129,-74,-76,-66,-83
-99,-15,76,56,-91,22,4,-123,-74,-76,-66,-83
-105,-27,70,62,-91,16,16,-111,-68,-82,-72,-83
-105,-33,64,68,-85,10,28,-105,-68,-82,-72,-83
-105,-27,70,62,-91,16,34,-105,-62,-82,-66,-83
-105,-21,76,62,-91,22,34,-105,-62,-82,-66,-83
-105,-15,82,56,-97,28,40,-105,-56,-82,-60,-83
-105,-9,88,56,-97,34,40,-105,-56,-82,-60,-83
-99,3,94,44,-97,40,28,-111,-56,-76,-60,-77
-99,8,106,38,-103,52,22,-117,-56,-76,-60,-77
-93,14,112,32,-103,64,10,-123,-56,-70,-60,-71
-93,26,124,26,-109,76,4,-129,-56,-70,-60,-71
-87,32,124,20,-103,76,-13,-141,-62,-70,-54,-71
-87,38,130,14,-109,82,-37,-147,-62,-70,-54,-71
-81,44,130,8,-103,88,-67,-159,-68,-70,-48,-71
-81,50,136,8,-109,94,-91,-165,-68,-70,-48,-71
-75,50,130,2,-103,88,-97,-165,-74,-76,-48,-65
-75,50,130,2,-103,88,-97,-165,-74,-76,-48,-65
-69,50,124,2,-97,88,-103,-165,-80,-82,-48,-59
-69,50,124,2,-97,88,-103,-165,-80,-82,-48,-59
-69,44,118,2,-91,82,-91,-153,-74,-82,-48,-59
-69,44,118,2,-91,82,-79,-147,-68,-82,-48,-59
-69,38,112,8,-91,76,-67,-135,-62,-82,-48,-59
-69,38,112,8,-91,76,-55,-129,-56,-82,-48,-59
-69,38,112,8,-91,76,-49,-123,-50,-76,-42,-53
-69,38,112,8,-91,76,-49,-117,-50,-70,-42,-53
-69,38,112,8,-91,76,-43,-111,-44,-64,-36,-47
-69,38,112,8,-91,76,-43,-105,-44,-58,-36,-47
-75,38,118,8,-97,76,-37,-105,-38,-52,-30,-47
-75,38,118,8,-97,76,-37,-105,-38,-52,-30,-47
-81,38,124,14,-103,82,-31,-105,-32,-46,-24,-47
-81,38,124,14,-103,82,-31,-105,-32,-46,-24,-47
-81,38,124,14,-103,82,-25,-105,-32,-46,-24,-47
-81,38,124,14,-103,82,-25,-105,-32,-46,-24,-47
-81,38,124,14,-103,82,-19,-105,-32,-46,-24,-47
-81,38,124,14,-103,82,-19,-105,-32,-46,-24,-47
-81,32,118,14,-97,76,-19,-99,-26,-46,-24,-47
-81,32,118,14,-97,76,-19,-99,-26,-46,-24,-47
-81,26,112,20,-97,70,-19,-93,-20,-46,-24,-47
-81,26,112,20,-97,70,-19,-93,-20,-46,-24,-47
-81,26,112,20,-97,70,-19,-93,-20,-34,-12,-47
-93,26,124,26,-109,76,-7,-81,-8,-22,-12,-47
-93,38,136,20,-115,88,-7,-69,-3,-10,-12,-47
-93,26,124,26,-109,76,-7,-69,3,-5,-7,-47
-93,26,124,26,-109,76,-2,-69,3,1,-7,-35
-105,26,136,32,-121,82,4,-57,15,13,-1,-35
-105,26,136,32,-121,82,16,-45,39,25,11,-35
-105,26,136,32,-121,82,16,-45,51,37,23,-23
-105,14,124,38,-115,70,16,-33,63,49,23,-35
-105,14,124,38,-115,70,40,-9,87,61,23,-35
-105,8,112,44,-109,58,52,-4,111,73,35,-35
-93,-9,76,50,-85,28,64,14,123,85,47,-23
-93,-33,52,62,-73,10,76,26,135,97,47,-23
-81,-57,16,68,-49,-13,76,50,159,121,71,-11
-45,-69,-19,56,-8,-43,76,74,195,145,83,-6
-33,-81,-43,56,-2,-61,88,98,231,169,95,-6
-9,-105,-91,56,34,-97,100,122,261,193,107,0
2,-117,-127,50,64,-121,124,158,309,229,131,12
26,-141,-175,50,100,-157,136,206,345,247,155,24
38,-165,-211,56,124,-187,160,236,381,271,179,36
62,-201,-265,62,166,-229,184,272,429,307,215,60
98,-213,-313,50,208,-259,196,320,477,355,245,72
146,-231,-385,38,262,-307,208,368,531,391,281,96
182,-255,-445,32,310,-349,220,404,567,427,329,120
218,-267,-487,20,352,-379,232,440,627,463,365,144
248,-303,-559,20,406,-433,238,482,675,505,389,156
272,-339,-619,26,448,-475,262,542,729,541,413,180
308,-375,-691,26,496,-529,274,590,789,577,449,204
344,-387,-733,14,538,-559,274,614,837,613,491,228
368,-387,-757,2,562,-571,262,638,873,649,539,270
416,-375,-793,-15,604,-583,262,650,909,697,599,330
464,-375,-841,-39,652,-607,250,674,945,727,647,366
494,-387,-889,-51,694,-637,250,698,999,775,707,390
530,-387,-925,-69,724,-655,250,728,1059,823,761,426
578,-375,-961,-99,766,-667,238,764,1119,883,809,474
614,-375,-991,-117,802,-685,250,800,1179,943,869,492
662,-375,-1039,-141,850,-709,250,860,1233,973,917,528
686,-375,-1063,-153,874,-721,250,896,1281,997,941,564
722,-387,-1111,-165,916,-745,262,932,1305,985,965,576
740,-435,-1183,-153,964,-805,298,986,1341,967,971,600
788,-471,-1261,-159,1024,-865,298,1022,1329,907,971,600
836,-513,-1357,-159,1096,-937,286,1010,1245,775,941,588
872,-561,-1441,-153,1156,-997,286,1022,1167,613,893,576
908,-597,-1507,-153,1210,-1051,286,1034,1095,475,845,564
932,-621,-1555,-153,1240,-1087,250,1010,1011,343,797,540
956,-633,-1591,-159,1270,-1111,208,986,921,217,737,528
974,-645,-1627,-165,1300,-1135,172,944,825,85,671,492
1010,-645,-1663,-183,1336,-1153,124,896,711,-10,611,492
1034,-621,-1663,-207,1348,-1141,64,848,627,-70,587,480
1034,-621,-1663,-207,1348,-1141,40,812,555,-118,563,480
1034,-621,-1663,-207,1348,-1141,28,776,465,-202,515,462
1034,-633,-1675,-201,1354,-1153,28,728,357,-292,461,414
1010,-633,-1651,-189,1330,-1141,28,686,261,-364,401,366
986,-633,-1627,-177,1306,-1129,40,662,207,-412,353,342
974,-633,-1615,-171,1294,-1123,64,662,195,-436,329,306
944,-633,-1579,-153,1258,-1105,76,674,183,-448,293,282
896,-633,-1531,-129,1210,-1081,100,698,183,-436,269,246
848,-621,-1471,-111,1162,-1045,148,710,219,-400,245,216
776,-609,-1393,-81,1084,-997,196,728,231,-364,215,180
728,-585,-1321,-69,1024,-955,196,722,237,-328,191,144
698,-537,-1237,-75,964,-889,196,698,231,-292,191,120
650,-489,-1147,-75,898,-817,184,650,219,-256,179,96
602,-447,-1051,-75,826,-745,172,602,231,-226,179,96
566,-387,-961,-87,760,-673,172,590,249,-178,191,96
530,-327,-865,-99,700,-595,160,578,285,-142,179,84
464,-303,-769,-75,616,-535,160,566,285,-130,131,48
368,-279,-655,-39,508,-469,184,554,285,-118,83,12
296,-267,-571,-9,436,-421,208,542,297,-94,47,-11
236,-243,-487,-4,364,-367,238,554,297,-94,11,-35
194,-225,-421,8,304,-319,262,530,273,-106,-24,-71
158,-201,-361,14,256,-277,262,476,231,-130,-60,-95
122,-165,-289,14,208,-229,250,416,195,-130,-84,-107
86,-141,-229,20,160,-187,238,344,159,-130,-96,-107
74,-105,-187,8,130,-145,208,284,111,-142,-108,-119
50,-57,-115,-4,82,-85,172,230,75,-142,-120,-131
14,-21,-43,-4,28,-31,136,182,51,-142,-120,-131
-33,-9,16,20,-25,10,100,122,27,-142,-120,-119
-69,-9,52,38,-61,16,52,86,-3,-142,-132,-119
-93,-9,76,50,-85,28,40,50,-32,-142,-132,-107
-105,-21,76,62,-91,22,52,26,-56,-130,-132,-107
-129,-33,88,80,-109,22,64,-4,-80,-130,-132,-107
-129,-21,100,74,-115,34,64,-33,-116,-142,-144,-119
-141,-9,124,74,-133,52,64,-93,-128,-154,-144,-119
-141,8,148,62,-145,76,52,-117,-140,-166,-156,-131
-141,26,172,50,-157,100,40,-141,-152,-166,-156,-143
-141,50,196,38,-169,124,16,-165,-164,-166,-168,-155
-165,62,232,44,-199,148,-2,-165,-164,-178,-168,-143
-165,86,250,32,-211,172,-31,-177,-164,-178,-168,-131
-165,98,262,26,-217,184,-79,-213,-188,-166,-168,-131
-165,110,274,20,-223,196,-115,-225,-188,-154,-156,-107
-159,116,274,14,-217,196,-127,-231,-194,-154,-150,-101
-153,116,268,8,-211,196,-133,-237,-200,-154,-150,-101
-147,122,268,2,-211,196,-145,-243,-206,-154,-144,-95
-141,122,262,2,-205,196,-151,-243,-212,-154,-144,-95
-141,128,268,-4,-205,202,-157,-249,-218,-160,-150,-101
-141,134,274,-4,-211,208,-157,-249,-224,-160,-150,-101
-141,140,280,-4,-211,214,-163,-255,-230,-166,-156,-107
-141,146,286,-4,-217,220,-163,-255,-236,-166,-156,-107
-141,140,280,-4,-211,214,-157,-249,-230,-160,-156,-101
-141,140,280,-4,-211,214,-151,-243,-224,-160,-156,-101
-141,134,274,-4,-211,208,-145,-243,-218,-154,-156,-95
-141,134,274,-4,-211,208,-139,-237,-212,-154,-156,-95
-147,134,280,-4,-217,208,-133,-231,-212,-148,-156,-95
-147,134,280,-4,-217,208,-127,-231,-212,-148,-156,-95
-153,134,286,2,-223,214,-121,-225,-212,-142,-156,-95
-153,134,286,2,-223,214,-115,-225,-212,-142,-156,-95
-159,140,298,2,-229,220,-121,-231,-212,-136,-150,-89
-165,146,310,2,-241,232,-121,-231,-212,-136,-150,-89
-171,152,322,2,-247,238,-127,-237,-212,-130,-144,-83
-177,158,334,2,-253,250,-127,-237,-212,-130,-144,-83
-183,164,346,2,-259,250,-133,-243,-224,-136,-150,-89
-183,170,352,-4,-265,256,-133,-249,-230,-136,-156,-89
-189,176,364,-4,-271,268,-139,-261,-242,-142,-162,-95
-189,182,370,-4,-277,274,-139,-267,-242,-142,-168,-95
-195,188,382,-4,-283,280,-145,-273,-248,-148,-174,-101
-201,188,388,-4,-289,286,-145,-273,-254,-148,-174,-101
-207,194,400,-4,-301,292,-151,-279,-260,-154,-180,-107
-213,194,406,2,-307,298,-151,-279,-266,-154,-180,-107
-219,200,418,2,-313,304,-157,-285,-272,-160,-186,-107
-225,200,424,2,-319,310,-157,-291,-278,-160,-186,-107
-231,206,436,2,-331,316,-163,-297,-284,-166,-192,-107
-237,206,442,8,-337,322,-163,-303,-290,-166,-192,-107
-243,218,466,8,-355,340,-169,-315,-296,-172,-198,-113
-249,224,478,8,-361,346,-169,-327,-302,-172,-204,-119
-261,236,496,8,-379,364,-175,-339,-308,-178,-210,-125
-267,242,508,8,-391,376,-175,-351,-314,-178,-216,-131
-273,248,520,8,-397,382,-175,-357,-320,-178,-216,-131
-279,248,526,8,-403,388,-175,-363,-326,-178,-216,-131
-285,248,538,8,-415,394,-175,-369,-332,-178,-216,-131
-291,248,544,14,-421,400,-175,-375,-338,-178,-216,-131
-303,260,568,14,-439,418,-181,-387,-344,-172,-222,-131
-309,272,586,8,-451,430,-181,-399,-350,-172,-222,-131
-321,284,610,8,-469,448,-187,-411,-356,-166,-228,-131
-327,296,628,8,-481,466,-187,-423,-362,-166,-228,-131
-333,308,646,2,-493,478,-193,-429,-368,-160,-228,-131
-339,314,658,2,-493,490,-193,-435,-368,-154,-228,-131
-345,326,676,2,-505,496,-199,-441,-374,-148,-228,-131
-351,332,688,2,-517,508,-199,-447,-374,-142,-228,-131
-351,344,700,-4,-523,520,-205,-453,-368,-130,-222,-125
-351,350,706,-4,-523,526,-205,-453,-368,-118,-216,-125
-351,362,718,-4,-529,538,-211,-459,-362,-106,-210,-119
-351,368,724,-4,-535,544,-211,-459,-362,-94,-204,-119
-357,380,742,-4,-547,556,-205,-465,-356,-82,-204,-113
-357,386,742,-9,-547,562,-205,-465,-350,-76,-204,-113
-363,398,760,-9,-559,580,-199,-471,-344,-64,-204,-107
-363,404,766,-15,-565,586,-199,-471,-338,-58,-204,-107
-369,416,784,-15,-577,598,-199,-477,-332,-46,-198,-101
-369,428,796,-21,-583,610,-199,-477,-326,-34,-192,-101
-375,440,814,-27,-595,628,-199,-483,-320,-22,-186,-95
-375,452,826,-33,-601,640,-199,-483,-314,-10,-180,-95
-375,458,832,-33,-601,646,-205,-489,-308,-5,-174,-89
-375,464,838,-39,-607,652,-205,-489,-302,1,-168,-83
-375,470,844,-39,-607,658,-211,-489,-296,13,-162,-77
-375,476,850,-45,-613,664,-211,-489,-290,25,-156,-71
-363,476,838,-51,-601,658,-217,-495,-284,31,-150,-65
-357,476,832,-51,-595,652,-217,-495,-278,31,-144,-59
-345,476,820,-57,-583,646,-223,-501,-272,37,-138,-53
-339,476,814,-63,-577,646,-223,-501,-266,37,-132,-47
-333,470,802,-63,-565,634,-223,-489,-260,43,-120,-41
-333,470,802,-63,-565,634,-223,-489,-254,49,-114,-35
-327,464,790,-63,-559,628,-223,-477,-248,55,-102,-29
-327,464,790,-63,-559,628,-223,-471,-242,61,-96,-23
-315,452,766,-63,-541,610,-223,-465,-236,67,-90,-23
-303,446,748,-63,-523,598,-223,-459,-230,67,-90,-23
-291,434,730,-63,-505,580,-223,-453,-218,73,-84,-23
-279,428,712,-69,-493,568,-223,-447,-212,73,-84,-23
-267,416,688,-69,-481,550,-217,-435,-206,79,-78,-17
-255,404,664,-69,-463,532,-217,-429,-200,79,-72,-17
-243,392,640,-69,-445,514,-211,-417,-194,85,-66,-11
-237,380,616,-69,-427,496,-211,-411,-188,85,-60,-11
-231,362,592,-63,-409,478,-205,-399,-182,79,-54,-6
-225,350,574,-57,-397,466,-205,-387,-176,79,-54,-6
-219,332,550,-51,-385,442,-199,-375,-170,73,-48,-6
-213,320,532,-51,-373,430,-199,-363,-164,73,-48,-6
-195,314,508,-57,-349,412,-205,-357,-164,61,-48,-6
-183,308,496,-57,-337,400,-205,-351,-164,55,-48,-6
-165,302,472,-63,-313,388,-211,-345,-164,43,-48,-6
-153,296,454,-69,-301,376,-211,-339,-164,37,-48,-6
-141,272,418,-63,-277,346,-199,-321,-158,31,-48,-6
-135,254,394,-57,-259,322,-193,-309,-152,25,-48,-6
-123,236,358,-51,-241,292,-181,-291,-146,19,-48,-6
-117,218,334,-45,-229,274,-175,-279,-140,13,-48,-6
-105,194,298,-39,-205,250,-163,-255,-134,1,-54,-6
-99,176,274,-33,-187,226,-151,-237,-134,-5,-54,-11
-87,152,244,-27,-163,196,-139,-213,-128,-5,-60,-17
-81,134,220,-21,-151,178,-127,-189,-128,-10,-60,-23
-75,122,202,-15,-139,160,-115,-177,-122,-16,-66,-23
-75,110,190,-9,-133,148,-109,-165,-116,-16,-66,-23
-69,98,172,-9,-121,136,-97,-153,-110,-22,-72,-23
-69,86,160,-4,-115,124,-91,-141,-104,-22,-72,-23
-69,74,148,-4,-109,112,-79,-129,-98,-28,-78,-29
-69,68,142,-4,-103,106,-67,-117,-98,-28,-78,-29
-69,56,130,-4,-97,94,-55,-105,-92,-34,-84,-35
-69,50,124,2,-97,88,-43,-93,-92,-34,-84,-35
-63,38,106,2,-85,70,-31,-75,-80,-40,-84,-41
-63,26,94,8,-79,58,-19,-63,-74,-40,-84,-41
-57,14,76,14,-67,46,-7,-45,-62,-46,-84,-47
-57,8,64,20,-61,34,-2,-33,-56,-46,-84,-47
-57,8,70,14,-61,40,10,-21,-50,-40,-78,-47
-57,8,70,14,-61,40,22,-15,-50,-40,-78,-47
-57,14,76,14,-67,46,40,-4,-44,-34,-72,-47
-57,14,76,14,-67,46,52,-4,-44,-34,-72,-47
-51,26,82,2,-67,52,46,-4,-38,-28,-66,-41
-51,32,88,2,-67,58,46,-4,-38,-28,-60,-41
-45,44,94,-4,-67,70,40,2,-32,-22,-54,-35
-45,50,100,-4,-73,76,40,2,-32,-22,-48,-35
-39,56,100,-4,-67,76,16,-4,-44,-28,-54,-35
-39,62,106,-4,-73,82,-2,-9,-50,-28,-60,-35
-33,68,106,-9,-67,88,-19,-21,-62,-34,-66,-35
-33,74,112,-15,-73,94,-43,-33,-68,-34,-72,-35
-33,80,118,-15,-73,100,-61,-39,-74,-40,-72,-29
-33,80,118,-15,-73,100,-79,-39,-80,-46,-72,-29
-33,86,124,-21,-79,106,-97,-45,-86,-52,-72,-23
-33,86,124,-21,-79,106,-115,-45,-92,-58,-72,-23
-27,86,118,-21,-73,100,-109,-39,-86,-52,-66,-23
-27,86,118,-21,-73,100,-103,-39,-86,-52,-66,-23
-21,86,112,-27,-67,100,-97,-33,-80,-46,-60,-23
-21,86,112,-27,-67,100,-91,-33,-80,-46,-60,-23
-21,80,106,-21,-61,94,-79,-21,-74,-40,-60,-23
-21,80,106,-21,-61,94,-73,-15,-74,-40,-60,-23
-21,74,100,-21,-61,88,-61,-4,-68,-34,-60,-23
-21,74,100,-21,-61,88,-55,-4,-68,-34,-60,-23
-27,74,106,-15,-67,88,-49,-4,-62,-34,-54,-17
-27,74,106,-15,-67,88,-43,-4,-62,-34,-54,-17
-33,74,112,-15,-73,94,-37,-4,-56,-34,-48,-11
-33,74,112,-15,-73,94,-31,-4,-56,-34,-48,-11
-33,74,112,-15,-73,94,-31,-4,-56,-40,-54,-11
-33,74,112,-15,-73,94,-31,-4,-56,-40,-54,-11
-33,74,112,-15,-73,94,-31,-4,-56,-46,-60,-11
-45,80,130,-9,-85,106,-31,-4,-80,-52,-78,-17
-33,74,112,-15,-73,94,-31,-4,-86,-58,-72,-29
-33,68,106,-9,-67,88,-31,-4,-98,-58,-72,-29
-33,44,82,-4,-55,64,-31,-9,-104,-64,-72,-41
-33,38,76,-4,-55,58,-31,-9,-98,-64,-78,-47
-33,50,88,-4,-61,70,-37,-4,-98,-64,-72,-41
-45,50,100,-4,-73,76,-37,-15,-98,-64,-78,-41
-51,56,112,-4,-79,82,-37,-4,-86,-70,-72,-35
-51,62,118,-4,-85,88,-37,-9,-92,-64,-78,-29
-57,68,130,-4,-91,100,-31,-4,-86,-64,-84,-29
-57,68,130,-4,-91,100,-31,-9,-98,-76,-90,-47
-57,68,130,-4,-91,100,-31,-15,-104,-64,-96,-41
-57,68,130,-4,-91,100,-31,-21,-104,-70,-102,-41
-57,62,124,-4,-91,94,-25,-15,-110,-70,-102,-41
-69,56,130,-4,-97,94,-31,-15,-116,-82,-102,-41
-63,50,118,-4,-91,82,-25,-15,-116,-82,-96,-41
-69,50,124,2,-97,88,-25,-15,-122,-88,-96,-41
-69,38,112,8,-91,76,-19,-15,-116,-82,-90,-41
-75,38,118,8,-97,76,-19,-9,-110,-76,-90,-41
-69,32,106,8,-85,70,-13,-4,-110,-82,-90,-41
-75,32,112,14,-91,70,-13,-4,-104,-88,-108,-47
-69,38,112,8,-91,76,-19,-4,-110,-76,-102,-41
-63,44,112,2,-85,76,-19,-9,-116,-76,-102,-41
-69,50,124,2,-97,88,-25,-9,-110,-76,-96,-47
-63,56,124,-4,-91,88,-25,-15,-104,-88,-96,-53
-51,68,124,-4,-85,94,-31,-15,-98,-82,-96,-47
-51,68,124,-4,-85,94,-31,-9,-98,-76,-90,-47
-39,80,124,-15,-79,100,-31,-4,-92,-70,-84,-41
-27,80,112,-21,-67,94,-31,-4,-110,-70,-84,-41
-33,74,112,-15,-73,94,-25,-4,-104,-70,-90,-47
-33,74,112,-15,-73,94,-25,-4,-110,-70,-90,-47
-39,68,112,-9,-73,88,-19,2,-104,-64,-96,-47
-39,68,112,-9,-73,88,-19,2,-104,-70,-96,-47
-39,62,106,-4,-73,82,-19,-4,-104,-70,-90,-41
-39,56,100,-4,-67,76,-19,-4,-104,-70,-90,-41
-45,56,106,-4,-73,82,-19,-4,-110,-70,-84,-35
-45,56,106,-4,-73,82,-19,-4,-110,-70,-84,-35
-39,62,106,-4,-73,82,-25,-4,-110,-64,-78,-29
-39,68,112,-9,-73,88,-25,-4,-110,-64,-78,-29
-33,80,118,-15,-73,100,-31,-15,-110,-58,-72,-29
-33,92,130,-21,-79,112,-31,-27,-110,-58,-72,-29
-33,86,124,-21,-79,106,-31,-27,-116,-64,-78,-29
-33,86,124,-21,-79,106,-31,-27,-122,-64,-78,-29
-39,86,130,-15,-85,106,-31,-33,-128,-64,-84,-29
-39,86,130,-15,-85,106,-31,-39,-128,-64,-84,-29
-45,80,130,-9,-85,106,-25,-39,-128,-76,-90,-35
-51,74,130,-4,-91,100,-25,-39,-128,-76,-90,-35
-57,68,130,-4,-91,100,-19,-33,-128,-82,-96,-41
-57,68,130,-4,-91,100,-19,-33,-134,-82,-96,-41
-45,74,124,-9,-85,100,-25,-33,-134,-88,-96,-41
-45,74,124,-9,-85,100,-25,-39,-134,-88,-96,-41
-39,80,124,-15,-79,100,-31,-39,-134,-94,-96,-41
-39,86,130,-15,-85,106,-31,-45,-134,-94,-96,-41
-45,86,136,-15,-91,112,-31,-45,-134,-94,-96,-41
-45,86,136,-15,-91,112,-31,-45,-140,-94,-96,-41
-51,86,142,-9,-97,112,-31,-45,-140,-94,-96,-41
-51,92,148,-15,-97,118,-31,-45,-140,-94,-96,-41
-51,86,142,-9,-97,112,-31,-51,-140,-94,-96,-47
-51,86,142,-9,-97,112,-31,-51,-140,-94,-96,-47
-51,80,136,-9,-91,106,-31,-63,-158,-94,-102,-53
-51,80,136,-9,-91,106,-31,-63,-158,-94,-102,-53
-51,86,142,-9,-97,112,-43,-57,-158,-94,-108,-53
-51,86,142,-9,-97,112,-43,-57,-158,-100,-108,-53
-51,92,148,-15,-97,118,-49,-51,-158,-100,-114,-53
-51,92,148,-15,-97,118,-49,-51,-164,-100,-114,-53
-51,92,148,-15,-97,118,-49,-57,-164,-106,-114,-53
-57,98,160,-15,-109,130,-49,-57,-164,-94,-114,-59
-57,98,160,-15,-109,130,-49,-57,-164,-88,-114,-59
-57,92,154,-9,-103,124,-49,-57,-164,-94,-114,-59
-51,86,142,-9,-97,112,-43,-51,-164,-100,-114,-59
-51,80,136,-9,-91,106,-37,-51,-164,-100,-114,-59
-45,74,124,-9,-85,100,-31,-45,-164,-106,-120,-59
-45,68,118,-4,-79,94,-25,-45,-164,-106,-120,-59
-45,62,112,-4,-79,88,-19,-45,-170,-112,-126,-59
-45,56,106,-4,-73,82,-19,-45,-170,-112,-126,-59
-45,50,100,-4,-73,76,-13,-45,-170,-112,-120,-59
-45,32,82,-4,-61,58,-13,-45,-170,-112,-120,-59
-57,26,88,8,-73,58,-2,-45,-164,-112,-126,-59
-57,14,76,14,-67,46,-2,-45,-158,-112,-126,-59
-63,8,76,20,-67,40,-2,-45,-152,-112,-126,-59
-63,3,58,26,-61,22,4,-45,-146,-112,-126,-65
-63,8,64,26,-67,28,-2,-39,-152,-112,-120,-65
-63,8,70,20,-67,34,4,-33,-146,-106,-114,-65
-63,8,70,20,-67,34,-2,-21,-152,-106,-108,-65
-63,8,76,20,-67,40,-2,-21,-140,-106,-108,-65
-57,14,76,14,-67,46,10,-21,-134,-94,-108,-65
-39,26,70,-4,-55,46,52,8,-110,-76,-90,-65
-39,26,70,-4,-55,46,82,38,-68,-52,-84,-47
-39,26,70,-4,-55,46,70,20,-56,-22,-78,-47
-27,44,76,-4,-49,58,70,20,-26,7,-48,-17
-33,74,112,-15,-73,94,88,20,-3,43,-7,6
-39,122,166,-33,-103,142,70,14,21,91,35,24
-27,188,220,-75,-121,202,28,-4,45,157,107,60
-4,242,244,-117,-121,244,-2,-21,81,235,191,132
-4,272,268,-135,-133,274,-7,-15,117,301,251,192
-15,260,280,-117,-151,268,-7,-21,141,337,275,204
-27,248,280,-105,-157,262,-2,-21,141,361,281,204
-33,248,286,-105,-163,268,22,-9,159,403,305,228
-51,272,328,-105,-193,298,34,-15,195,481,353,240
-63,278,346,-105,-205,310,70,-4,237,553,395,252
-75,278,358,-99,-217,316,106,14,297,631,455,276
-81,290,376,-99,-229,334,142,62,345,715,503,288
-57,302,364,-117,-211,334,154,68,357,775,545,306
-39,350,394,-153,-217,370,142,68,369,817,605,360
-9,410,424,-195,-217,418,130,68,393,847,665,420
14,428,406,-225,-193,418,112,86,363,805,641,432
56,428,364,-243,-151,400,82,98,309,697,575,414
110,410,292,-255,-85,352,22,92,225,523,467,384
182,404,220,-291,-13,310,-37,74,141,355,335,342
230,398,166,-309,28,280,-103,62,45,193,215,288
260,392,124,-327,64,256,-175,20,-74,7,83,228
278,386,100,-333,88,250,-253,-27,-236,-190,-54,144
290,380,82,-333,100,238,-319,-69,-404,-406,-210,60
302,356,46,-327,124,208,-385,-93,-536,-586,-324,-6
296,356,52,-327,118,208,-421,-117,-650,-712,-402,-59
266,338,64,-303,100,208,-439,-117,-692,-754,-456,-95
218,332,112,-273,46,226,-421,-123,-710,-778,-492,-131
140,296,154,-219,-8,232,-379,-141,-710,-778,-516,-161
86,248,160,-171,-31,208,-325,-99,-674,-748,-522,-191
56,224,160,-141,-43,196,-271,-63,-602,-694,-492,-179
32,194,154,-111,-55,178,-235,-33,-548,-634,-456,-179
2,176,166,-87,-73,172,-193,-15,-506,-592,-438,-191
-15,116,136,-45,-73,124,-151,8,-464,-550,-420,-203
-27,50,82,-4,-55,64,-103,62,-374,-478,-378,-191
-9,32,46,-4,-25,40,-79,122,-284,-376,-312,-173
-15,20,40,-4,-25,28,-49,158,-224,-298,-258,-137
-15,8,22,-4,-19,10,-13,182,-152,-244,-228,-125
-9,-3,10,2,-8,5,-2,194,-92,-190,-204,-113
2,-9,-19,-4,10,-13,10,194,-62,-160,-198,-113
14,-21,-43,-4,28,-31,10,170,-62,-154,-180,-101
14,-21,-43,-4,28,-31,10,158,-74,-142,-174,-95
2,-9,-19,-4,10,-13,4,128,-80,-148,-162,-95
-4,-9,-7,2,-2,-7,4,104,-92,-142,-156,-95
-9,-3,10,2,-8,5,-2,92,-98,-142,-144,-89
-27,3,22,8,-25,10,-2,80,-104,-142,-132,-89
-33,3,28,14,-31,10,-2,68,-104,-136,-126,-89
-27,8,28,8,-31,10,-13,50,-110,-124,-132,-89
-33,8,34,8,-37,16,-19,26,-116,-112,-126,-89
-33,8,34,8,-37,16,-19,8,-116,-112,-138,-89
-27,8,34,2,-31,16,-25,2,-128,-124,-144,-89
-27,8,40,2,-31,22,-31,-4,-140,-130,-150,-89
-21,8,28,2,-25,16,-37,-4,-146,-136,-156,-95
-15,8,28,-4,-19,16,-43,-4,-152,-142,-150,-95
-9,8,16,-4,-13,10,-37,-4,-146,-136,-144,-89
-15,8,22,-4,-19,10,-31,-4,-146,-136,-144,-89
-9,8,10,-4,-13,10,-25,-4,-140,-130,-138,-83
-9,8,10,-4,-13,10,-19,-4,-146,-130,-138,-83
-15,3,10,2,-13,10,-19,2,-140,-124,-138,-77
-15,-3,10,8,-13,5,-19,2,-134,-124,-138,-77
-9,-3,10,2,-8,5,-19,8,-122,-118,-138,-71
-4,3,10,-4,-8,5,-13,8,-116,-118,-138,-71
-4,8,10,-4,-8,10,-19,8,-122,-124,-138,-77
-4,8,10,-4,-8,10,-25,8,-122,-124,-138,-71
-4,8,10,-4,-8,10,-31,2,-128,-124,-138,-77
-4,8,10,-4,-8,10,-25,8,-122,-124,-138,-77
-4,14,16,-4,-8,16,-25,2,-128,-124,-138,-77
-4,14,16,-4,-8,16,-19,2,-134,-124,-138,-77
-4,20,28,-4,-13,22,-19,-4,-134,-118,-132,-77
-4,20,22,-4,-8,22,-25,-4,-140,-118,-132,-71
-4,20,22,-4,-8,22,-25,-4,-140,-130,-138,-77
-4,14,10,-4,-8,16,-25,-4,-140,-130,-138,-77
-4,14,16,-4,-8,16,-25,-9,-134,-136,-144,-83
-4,14,16,-4,-8,16,-25,-9,-134,-130,-138,-83
-4,20,16,-9,-8,22,-19,-4,-134,-130,-132,-77
-4,20,16,-9,-8,22,-13,-4,-134,-130,-132,-71
2,26,16,-15,-8,22,-13,-4,-134,-130,-126,-65
2,26,16,-15,-8,22,-19,-4,-128,-130,-126,-59
8,26,10,-15,-8,22,-13,-4,-128,-136,-132,-65
8,26,10,-15,-8,22,-19,-4,-128,-136,-132,-65
14,20,10,-15,4,10,-13,-4,-122,-136,-138,-71
14,14,5,-15,4,10,-7,-4,-116,-136,-132,-77
20,8,-7,-15,16,10,-2,2,-110,-136,-132,-71
26,8,-19,-15,22,-1,-2,2,-110,-136,-132,-71
26,3,-31,-9,28,-13,-2,20,-98,-136,-132,-65
32,-9,-49,-4,40,-25,-2,20,-92,-136,-132,-65
32,-9,-49,-4,40,-25,-2,20,-98,-136,-126,-65
44,-3,-55,-15,46,-25,-2,26,-86,-136,-126,-65
44,-3,-55,-15,46,-25,-7,26,-92,-136,-120,-65
56,3,-61,-21,58,-25,-7,38,-86,-136,-120,-65
50,3,-55,-21,52,-25,-2,44,-80,-130,-120,-65
50,-3,-61,-15,52,-31,-2,50,-80,-130,-120,-59
44,-9,-61,-9,52,-31,-2,56,-74,-130,-126,-59
62,-9,-79,-21,70,-43,-2,62,-62,-130,-120,-59
62,-21,-91,-15,76,-55,4,68,-62,-136,-120,-65
68,-27,-103,-15,82,-61,4,74,-56,-130,-114,-65
74,-33,-115,-15,94,-73,4,80,-56,-130,-120,-65
80,-33,-121,-15,100,-73,4,92,-50,-130,-114,-65
86,-51,-145,-9,112,-97,4,98,-38,-130,-120,-65
86,-57,-151,-9,118,-103,4,104,-20,-136,-120,-59
104,-63,-175,-15,136,-115,10,110,-14,-124,-114,-59
110,-69,-187,-15,148,-127,10,122,-3,-130,-114,-59
116,-81,-205,-9,160,-139,16,134,-3,-130,-120,-65
122,-93,-223,-9,172,-157,22,152,3,-124,-108,-59
128,-105,-235,-4,184,-169,28,170,15,-124,-108,-59
134,-129,-265,-4,202,-199,34,182,27,-124,-96,-59
134,-129,-265,-4,202,-199,40,188,33,-118,-96,-53
140,-135,-277,-4,208,-205,40,200,45,-112,-90,-53
140,-141,-283,-4,214,-211,58,206,63,-100,-84,-41
146,-147,-295,-4,220,-223,64,218,81,-82,-78,-41
158,-159,-319,-4,232,-235,76,236,105,-76,-72,-47
164,-171,-337,-4,244,-247,88,242,123,-70,-60,-35
176,-183,-361,-4,262,-265,100,260,135,-64,-48,-35
188,-189,-379,-4,280,-277,106,272,153,-46,-30,-29
188,-201,-391,-4,286,-289,112,284,171,-28,-18,-23
194,-201,-397,-4,292,-295,124,296,189,-16,-12,-17
194,-207,-403,-4,292,-301,130,314,201,-5,-12,-11
206,-213,-421,-4,310,-313,136,314,219,1,-7,-6
218,-207,-427,-4,316,-313,142,326,237,31,5,-6
224,-207,-433,-4,322,-313,142,332,255,37,17,-6
236,-195,-433,-15,328,-307,148,350,279,61,35,0
242,-189,-439,-21,340,-307,160,356,291,85,47,6
248,-171,-427,-33,334,-295,154,356,303,103,65,18
254,-153,-415,-45,334,-277,154,362,315,127,83,36
260,-135,-403,-57,328,-265,148,362,327,145,107,48
260,-123,-391,-63,322,-253,142,362,339,157,119,60
266,-129,-403,-63,334,-259,112,350,339,163,125,66
266,-123,-397,-69,328,-253,94,344,339,175,137,72
272,-117,-397,-75,334,-253,70,332,345,187,149,78
272,-117,-397,-75,334,-253,46,320,345,205,161,84
284,-105,-397,-87,340,-247,34,308,351,223,179,90
284,-87,-379,-93,328,-229,16,302,351,235,197,96
284,-93,-385,-93,334,-235,-2,284,351,241,203,102
284,-75,-367,-99,322,-223,-13,266,351,241,215,108
290,-75,-373,-105,328,-223,-7,278,363,265,221,120
290,-81,-379,-99,334,-229,-2,284,357,271,227,126
296,-75,-379,-105,334,-229,-2,290,363,289,233,132
296,-69,-373,-111,334,-223,-2,284,363,295,233,132
284,-69,-361,-105,322,-217,-2,290,375,307,239,144
284,-57,-349,-111,316,-205,4,290,381,319,251,144
278,-51,-337,-111,304,-193,16,296,381,331,263,150
272,-51,-331,-105,298,-193,28,302,393,337,269,150
260,-45,-313,-105,286,-181,34,296,387,349,275,156
254,-33,-295,-105,274,-163,34,290,387,355,275,156
236,-21,-265,-105,250,-145,40,278,387,367,281,162
236,-21,-259,-99,244,-139,40,266,375,367,281,150
236,-15,-253,-105,238,-133,34,260,369,367,281,156
224,-9,-235,-99,232,-121,40,254,357,355,275,150
218,-3,-229,-99,220,-115,40,248,345,361,275,156
206,-3,-217,-93,208,-109,40,242,333,355,263,150
200,3,-205,-93,202,-97,46,236,321,343,257,150
200,3,-205,-93,202,-97,46,224,315,325,245,144
182,3,-187,-87,184,-91,46,218,297,319,239,138
170,8,-169,-81,166,-79,46,206,279,301,233,132
146,8,-139,-75,142,-61,52,194,273,301,221,126
134,14,-115,-75,124,-43,52,182,255,295,203,126
116,26,-85,-69,100,-19,40,158,237,289,191,114
98,38,-55,-69,76,-1,40,146,207,271,179,108
92,38,-49,-63,70,5,34,140,195,247,167,96
86,38,-43,-63,64,5,34,134,189,235,155,90
80,38,-37,-57,58,10,28,128,177,211,143,78
74,38,-31,-57,52,10,28,122,171,193,131,72
62,38,-19,-51,40,10,28,116,141,181,107,60
62,44,-13,-51,40,10,28,104,123,163,95,48
56,38,-13,-45,34,10,28,92,93,151,83,42
44,26,-13,-33,28,10,28,68,75,133,65,30
32,32,5,-33,16,16,28,62,63,121,47,24
26,44,10,-33,4,28,22,56,39,109,41,18
8,50,34,-27,-8,46,22,38,21,91,23,12
-4,56,52,-27,-19,58,22,38,9,73,17,6
-4,68,64,-33,-25,70,16,26,-3,61,5,6
-4,74,82,-27,-43,76,16,26,-3,49,-7,0
-9,80,94,-27,-49,88,10,14,-3,25,-7,-6
-15,80,100,-27,-55,88,4,2,-14,25,-12,-6
-9,80,94,-27,-49,88,4,2,-14,19,-12,-6
-9,80,94,-27,-49,88,4,2,-32,7,-30,-11
-9,74,88,-27,-49,82,-2,8,-44,-5,-36,-17
-4,74,82,-27,-43,76,-2,2,-56,-5,-48,-23
-4,74,82,-27,-43,76,4,2,-62,-10,-54,-23
-4,68,76,-27,-37,70,4,-4,-62,-10,-48,-23
-4,68,76,-27,-37,70,10,2,-56,-5,-42,-17
-4,68,70,-27,-31,70,10,2,-62,-16,-42,-17
-4,68,76,-27,-37,70,10,-4,-62,-28,-54,-23
-4,68,76,-27,-37,70,10,-4,-68,-28,-60,-23
-4,68,76,-27,-37,70,10,-4,-74,-34,-60,-23
-15,68,88,-21,-49,76,10,-4,-68,-46,-66,-35
-21,74,100,-21,-61,88,10,-9,-68,-52,-72,-41
-21,80,106,-21,-61,94,4,-15,-68,-46,-78,-41
-39,86,130,-15,-85,106,4,-21,-68,-34,-78,-41
-39,92,136,-21,-85,112,4,-15,-68,-28,-78,-41
-33,92,130,-21,-79,112,-2,-21,-80,-34,-78,-35
-27,92,124,-27,-73,106,-2,-33,-80,-40,-78,-41
-21,92,118,-27,-67,106,-2,-39,-80,-40,-72,-35
-15,92,112,-33,-61,100,-2,-45,-80,-40,-72,-35
-15,92,112,-33,-61,100,-2,-39,-80,-46,-72,-35
-9,86,100,-33,-55,94,-2,-39,-74,-46,-72,-35
-9,80,94,-27,-49,88,4,-33,-74,-46,-72,-35
-9,80,94,-27,-49,88,4,-33,-74,-46,-72,-35
-9,74,88,-27,-49,82,10,-33,-74,-46,-66,-35
-9,68,82,-21,-43,76,10,-27,-74,-46,-66,-29
-9,62,76,-21,-43,70,16,-33,-74,-46,-60,-29
-9,62,76,-21,-43,70,16,-33,-74,-46,-60,-29
-9,74,88,-27,-49,82,10,-39,-74,-40,-60,-23
-9,80,94,-27,-49,88,10,-39,-74,-40,-60,-23
-9,86,100,-33,-55,94,4,-39,-80,-34,-60,-17
-15,98,118,-33,-67,106,4,-45,-80,-28,-60,-17
-15,98,118,-33,-67,106,4,-45,-80,-34,-60,-17
-15,98,118,-33,-67,106,4,-51,-80,-40,-60,-17
-21,98,124,-33,-73,112,4,-45,-80,-46,-60,-17
-21,98,124,-33,-73,112,4,-45,-80,-46,-60,-17
-21,98,124,-33,-73,112,10,-39,-86,-40,-60,-17
-15,98,118,-33,-67,106,10,-39,-86,-40,-60,-17
-15,86,106,-27,-61,94,16,-39,-86,-34,-60,-17
-15,86,106,-27,-61,94,16,-39,-86,-34,-60,-17
-9,86,100,-33,-55,94,16,-39,-80,-34,-60,-17
-9,86,100,-33,-55,94,16,-39,-80,-34,-60,-17
-4,86,94,-33,-49,88,16,-33,-80,-34,-60,-17
-4,86,94,-33,-49,88,16,-33,-80,-34,-60,-17
-9,92,106,-33,-55,100,16,-33,-80,-34,-60,-17
-9,92,106,-33,-55,100,16,-33,-74,-34,-60,-17
-15,92,112,-33,-61,100,16,-33,-74,-34,-60,-17
-15,92,112,-33,-61,100,16,-39,-86,-34,-66,-17
-15,86,106,-27,-61,94,22,-33,-80,-34,-66,-17
-15,86,106,-27,-61,94,16,-33,-80,-34,-66,-17
-15,80,100,-27,-55,88,22,-27,-74,-40,-66,-17
-15,80,100,-27,-55,88,22,-27,-74,-40,-66,-17
-15,74,94,-21,-55,82,28,-21,-80,-40,-60,-17
-15,68,88,-21,-49,76,34,-27,-80,-52,-60,-17
-21,68,94,-15,-55,82,40,-21,-80,-40,-54,-23
-21,62,88,-15,-55,76,46,-21,-80,-40,-54,-23
-15,50,70,-9,-43,58,52,-15,-74,-40,-54,-23
-15,50,70,-9,-43,58,58,-15,-74,-34,-54,-23
-9,44,58,-9,-31,52,64,-9,-68,-28,-54,-23
-9,44,58,-9,-31,52,70,-9,-68,-22,-60,-23
-15,38,58,-4,-37,46,76,-9,-68,-28,-54,-29
-15,32,52,-4,-31,40,76,-9,-74,-34,-60,-29
-21,26,52,-4,-37,40,82,-9,-74,-40,-54,-35
-21,20,46,-4,-31,34,82,-9,-74,-40,-48,-35
-21,14,40,-4,-31,28,94,-4,-68,-34,-48,-29
-27,20,52,-4,-37,34,106,-4,-68,-34,-54,-29
-27,20,52,-4,-37,34,118,-4,-62,-28,-54,-23
-27,26,58,-4,-43,40,124,-4,-62,-28,-54,-23
-27,26,58,-4,-43,40,130,-4,-56,-22,-54,-23
-27,38,70,-4,-49,52,124,-4,-56,-22,-54,-23
-27,50,82,-4,-55,64,130,-4,-44,-10,-48,-17
-27,56,88,-9,-55,70,124,-4,-44,-10,-48,-17
-15,92,112,-33,-61,100,70,-33,-56,-10,-36,-6
-21,110,136,-39,-79,124,22,-45,-62,-10,-36,-6
-15,122,142,-45,-79,130,-2,-63,-74,-16,-42,-6
-4,134,142,-57,-73,136,-25,-69,-68,-16,-36,-6
-4,146,142,-69,-67,148,-37,-75,-68,-10,-30,-6
-4,152,148,-75,-67,154,-49,-75,-74,-5,-12,-6
2,146,136,-75,-61,142,-43,-75,-56,7,-7,6
8,158,142,-81,-61,154,-25,-57,-26,43,11,24
8,176,160,-93,-67,172,-7,-57,-3,85,47,48
14,182,160,-99,-67,172,-2,-33,33,139,95,84
20,206,178,-111,-73,196,4,-15,93,223,161,120
20,242,214,-129,-91,232,28,2,165,301,233,168
8,248,238,-129,-109,250,58,14,213,385,281,204
-4,260,262,-129,-133,262,82,26,237,427,317,216
-4,260,268,-123,-139,262,106,20,237,451,329,234
-27,278,310,-123,-169,292,118,14,237,481,347,240
-63,302,370,-117,-217,334,154,14,261,547,395,264
-93,326,424,-111,-253,376,190,14,297,619,449,276
-105,326,436,-105,-265,382,226,32,321,685,497,294
-111,338,454,-111,-277,394,244,44,357,757,533,312
-105,362,472,-123,-283,418,244,56,393,835,581,348
-93,404,496,-153,-295,454,238,86,447,913,653,396
-39,440,484,-195,-259,460,214,98,465,943,707,450
14,458,436,-237,-205,448,166,92,435,901,701,480
62,476,406,-267,-169,442,106,74,363,763,629,462
110,482,364,-291,-121,424,52,50,267,577,503,432
158,476,310,-315,-73,394,-7,32,141,361,377,378
212,470,250,-339,-13,364,-91,-4,3,157,233,318
236,464,226,-345,-2,346,-169,-45,-122,-28,77,258
242,452,202,-345,16,328,-223,-69,-254,-226,-66,186
236,428,184,-333,22,304,-265,-105,-404,-430,-228,96
236,410,172,-321,28,292,-319,-165,-572,-640,-384,0
218,380,160,-297,22,268,-361,-243,-722,-790,-498,-71
188,332,142,-255,16,244,-367,-291,-812,-898,-576,-149
134,296,160,-219,-8,232,-349,-309,-848,-928,-618,-191
68,278,208,-177,-61,250,-307,-285,-812,-904,-606,-215
8,248,238,-129,-109,250,-253,-243,-734,-832,-570,-203
-21,224,250,-93,-133,238,-205,-195,-650,-742,-528,-191
-51,200,250,-69,-151,226,-175,-171,-590,-694,-498,-179
-75,182,256,-45,-169,220,-151,-153,-536,-628,-474,-179
-81,140,226,-21,-151,184,-127,-129,-476,-562,-456,-173
-87,80,172,-4,-127,124,-73,-93,-410,-508,-426,-173
-87,26,118,20,-103,70,-37,-57,-362,-454,-390,-173
-69,8,70,26,-73,34,-13,-33,-302,-388,-342,-161
-57,3,52,26,-55,22,-2,-9,-242,-334,-276,-137
-57,-9,40,32,-49,10,-2,-4,-194,-268,-228,-113
-57,-33,16,44,-37,-1,10,2,-158,-226,-186,-107
-57,-27,22,38,-43,5,10,-4,-152,-214,-174,-101
-57,-27,22,38,-43,5,16,-9,-158,-202,-168,-95
-57,-27,22,38,-43,5,16,-4,-152,-184,-156,-83
-63,-21,34,38,-49,10,16,-4,-152,-178,-144,-77
-57,-21,28,38,-43,10,16,-4,-140,-172,-138,-77
-45,-15,22,26,-37,10,10,-9,-140,-160,-144,-77
-39,-15,16,26,-31,5,10,-21,-134,-148,-138,-77
-33,-15,10,20,-25,5,16,-27,-128,-148,-150,-77
-39,-15,16,26,-31,5,22,-33,-128,-148,-138,-71
-45,-15,22,26,-37,10,22,-39,-128,-142,-138,-65
-51,-27,16,38,-37,-1,28,-45,-122,-136,-126,-65
-51,-27,16,38,-37,-1,28,-45,-116,-130,-114,-59
-57,-21,28,38,-43,10,28,-51,-122,-130,-120,-59
-63,-15,40,38,-55,10,28,-51,-128,-130,-120,-59
-69,-9,52,38,-61,16,28,-63,-134,-130,-126,-59
-69,-3,58,32,-67,22,28,-63,-146,-130,-126,-59
-69,-3,58,32,-67,22,22,-69,-146,-130,-126,-59
-69,-9,52,38,-61,16,22,-69,-146,-130,-126,-59
-57,-3,46,26,-55,16,16,-75,-140,-130,-126,-59
-51,3,46,20,-49,16,22,-75,-140,-130,-126,-59
-51,8,52,20,-55,22,16,-75,-140,-136,-126,-65
-45,8,46,14,-49,22,10,-75,-140,-136,-126,-59
-45,-3,34,20,-43,10,4,-81,-140,-136,-126,-65
-45,-3,34,20,-43,10,10,-75,-134,-136,-126,-65
-45,3,40,20,-43,16,16,-81,-134,-136,-126,-65
-45,-3,34,20,-43,10,22,-75,-134,-136,-126,-65
-51,-9,34,26,-43,10,28,-81,-128,-130,-120,-65
-45,-15,22,26,-37,10,22,-81,-128,-130,-120,-59
-45,-15,22,26,-37,10,22,-75,-128,-142,-120,-59
-45,-21,16,32,-31,5,22,-75,-128,-142,-120,-59
-51,-21,22,32,-37,5,22,-69,-122,-148,-120,-59
-57,-21,28,38,-43,10,22,-69,-122,-142,-114,-59
-51,-21,22,32,-37,5,22,-69,-122,-142,-120,-59
-51,-21,22,32,-37,5,28,-69,-122,-142,-120,-59
-45,-21,16,32,-31,5,22,-69,-122,-142,-126,-59
-45,-21,16,32,-31,5,16,-69,-116,-142,-126,-59
-39,-21,10,26,-25,-1,22,-63,-116,-148,-126,-65
-39,-21,10,26,-25,-1,16,-63,-116,-148,-126,-59
-33,-27,10,26,-19,-7,22,-63,-110,-148,-126,-65
-33,-33,5,32,-13,-13,28,-63,-104,-148,-120,-65
-33,-39,-1,32,-13,-19,28,-63,-110,-148,-120,-65
-27,-39,-7,32,-8,-25,28,-63,-110,-148,-120,-65
-33,-51,-13,38,-8,-31,34,-51,-110,-148,-120,-65
-27,-57,-25,38,-8,-43,34,-51,-104,-148,-120,-65
-33,-63,-25,44,-8,-43,34,-51,-104,-148,-126,-65
-21,-63,-37,38,-2,-49,34,-45,-92,-148,-126,-65
-27,-69,-37,44,-2,-55,28,-45,-92,-148,-132,-65
-15,-69,-49,38,10,-61,28,-33,-86,-148,-132,-65
-21,-75,-49,44,4,-61,40,-21,-80,-148,-126,-71
-21,-87,-61,50,10,-73,40,-15,-80,-148,-126,-65
-27,-99,-67,62,10,-85,52,-4,-74,-154,-126,-71
-9,-105,-91,56,34,-97,58,-4,-62,-154,-120,-71
-9,-117,-103,62,40,-109,64,-4,-50,-154,-120,-71
-4,-129,-121,62,52,-127,64,2,-44,-148,-114,-71
-4,-135,-133,62,58,-133,64,8,-32,-142,-120,-65
-4,-141,-145,62,70,-139,64,20,-26,-142,-114,-65
2,-159,-169,68,82,-163,70,32,-8,-142,-114,-65
2,-165,-175,74,88,-169,70,38,-3,-142,-114,-59
20,-171,-199,68,106,-181,82,50,9,-130,-102,-59
26,-177,-211,68,118,-193,82,62,21,-130,-102,-59
32,-189,-229,68,130,-205,88,68,27,-130,-102,-65
38,-195,-235,68,136,-217,88,86,39,-124,-90,-59
44,-207,-253,74,148,-229,94,98,51,-124,-84,-59
50,-225,-277,80,166,-247,94,110,63,-124,-72,-59
56,-225,-283,74,172,-247,106,128,75,-112,-66,-53
62,-231,-295,74,178,-259,118,140,87,-106,-60,-53
68,-231,-307,74,190,-265,142,158,111,-88,-48,-41
74,-237,-319,74,196,-277,160,170,129,-70,-42,-41
80,-237,-325,74,202,-277,154,176,159,-58,-36,-35
86,-237,-331,68,208,-283,154,188,177,-46,-24,-23
92,-237,-337,68,214,-283,148,194,195,-34,-12,-11
104,-231,-343,56,226,-283,142,206,213,-10,-7,-6
116,-225,-343,44,232,-277,118,200,225,-5,17,-6
128,-213,-343,32,232,-271,112,206,237,1,29,0
140,-195,-337,20,232,-259,88,206,237,13,41,12
158,-189,-349,8,250,-265,76,200,249,25,53,18
170,-189,-361,2,262,-271,46,200,261,49,65,24
170,-189,-361,2,262,-271,22,200,273,55,77,30
182,-183,-367,-4,268,-271,-2,206,285,73,83,36
188,-177,-367,-4,274,-265,-7,206,291,97,95,42
212,-171,-385,-15,292,-271,-13,212,315,109,107,60
218,-177,-397,-15,304,-283,-2,218,339,133,131,72
230,-177,-409,-21,316,-289,-2,236,357,145,155,72
230,-177,-409,-21,316,-289,4,248,369,163,167,78
230,-177,-409,-21,316,-289,10,254,381,175,173,84
230,-177,-409,-21,316,-289,22,266,393,193,185,90
230,-177,-409,-21,316,-289,28,272,405,205,191,96
224,-171,-397,-21,304,-277,34,278,405,223,191,96
224,-165,-391,-21,304,-271,40,278,411,229,203,96
224,-165,-391,-21,304,-271,46,278,411,241,215,102
212,-177,-391,-9,298,-277,52,266,417,247,221,102
212,-171,-385,-15,292,-271,46,266,435,265,233,108
212,-159,-373,-21,286,-259,40,266,435,277,239,114
206,-153,-361,-21,280,-253,34,254,447,289,251,120
200,-147,-349,-21,268,-241,34,260,459,295,263,126
206,-141,-349,-27,274,-241,40,260,459,313,269,138
194,-135,-331,-21,256,-229,40,266,471,325,275,138
194,-135,-331,-21,256,-229,46,266,471,331,287,132
188,-135,-325,-21,250,-229,40,260,471,355,293,138
176,-129,-307,-15,238,-217,40,254,477,361,299,144
170,-123,-295,-15,232,-211,40,248,465,367,287,144
152,-123,-277,-9,214,-199,34,248,459,367,287,144
152,-117,-271,-9,214,-193,34,236,453,373,281,144
146,-111,-259,-9,202,-187,28,230,441,373,281,144
140,-111,-253,-9,196,-181,28,224,435,379,287,138
134,-105,-241,-9,190,-175,22,218,435,391,299,144
134,-99,-235,-9,184,-169,22,218,423,385,299,138
116,-93,-217,-4,166,-151,22,200,411,367,275,132
110,-87,-205,-4,154,-145,22,194,393,367,269,132
98,-81,-187,-4,142,-133,22,176,375,355,257,132
80,-75,-163,-4,118,-115,22,170,369,343,251,120
74,-69,-151,-4,112,-109,16,152,351,313,233,108
68,-63,-139,-4,100,-97,10,134,339,307,227,108
50,-57,-115,-4,82,-85,4,122,321,295,215,102
44,-51,-103,-4,70,-73,4,116,309,289,209,102
32,-45,-85,-4,58,-61,-2,104,273,265,191,90
20,-45,-73,2,46,-55,-2,92,261,247,179,78
8,-39,-55,8,28,-43,-2,80,237,235,167,66
-4,-39,-43,14,16,-37,-2,74,231,223,155,60
-4,-33,-31,14,10,-31,-2,62,213,199,137,54
-4,-33,-31,14,10,-31,-2,56,201,187,125,48
-4,-33,-25,14,4,-31,-7,44,183,169,107,42
-9,-27,-13,14,-8,-19,-7,38,165,157,95,36
-15,-21,-1,14,-8,-13,-13,32,147,139,83,30
-15,-21,-1,14,-8,-13,-13,26,135,127,77,30
-21,-15,10,14,-13,-1,-19,14,117,109,65,24
-21,-9,10,14,-13,5,-19,2,105,97,59,18
-27,3,22,8,-25,10,-25,-4,93,85,47,12
-33,3,28,14,-31,10,-25,-4,87,73,41,6
-39,8,40,14,-43,16,-31,-4,69,61,29,0
-51,8,58,14,-55,28,-31,-4,63,55,23,-6
-57,8,70,14,-61,40,-31,-9,45,37,5,-6
-57,8,70,14,-61,40,-31,-21,33,19,-7,-6
-69,14,88,20,-79,52,-31,-27,15,1,-12,-11
-69,14,88,20,-79,52,-31,-33,3,-5,-24,-17
-75,20,100,20,-85,58,-31,-45,-3,-5,-30,-23
-75,20,100,20,-85,58,-31,-51,-3,-10,-30,-29
-81,14,100,26,-91,58,-31,-69,-8,-16,-36,-35
-87,14,106,26,-97,58,-31,-75,-14,-22,-36,-41
-87,20,112,26,-97,64,-37,-87,-20,-28,-42,-41
-87,20,112,26,-97,64,-37,-87,-20,-34,-42,-41
-87,26,118,20,-103,70,-43,-93,-32,-40,-48,-41
-87,26,118,20,-103,70,-43,-93,-32,-46,-48,-41
-87,26,118,20,-103,70,-43,-99,-38,-52,-54,-47
-87,26,118,20,-103,70,-43,-99,-32,-58,-60,-47
-87,20,112,26,-97,64,-43,-105,-38,-64,-66,-53
-87,20,112,26,-97,64,-43,-111,-50,-70,-78,-53
-87,20,112,26,-97,64,-37,-111,-50,-64,-78,-59
-87,20,112,26,-97,64,-43,-111,-50,-64,-78,-59
-87,20,112,26,-97,64,-37,-111,-50,-64,-78,-65
-87,20,112,26,-97,64,-37,-111,-50,-64,-78,-65
-93,20,118,26,-103,70,-37,-111,-56,-64,-78,-59
-93,20,118,26,-103,70,-37,-117,-56,-76,-78,-59
-105,26,136,32,-121,82,-37,-117,-56,-64,-78,-59
-105,26,136,32,-121,82,-37,-117,-56,-64,-78,-59
-99,14,118,32,-109,64,-37,-117,-56,-76,-78,-59
-99,14,118,32,-109,64,-37,-117,-56,-76,-78,-59
-93,8,106,32,-97,58,-37,-117,-56,-82,-78,-59
-93,8,106,32,-97,58,-37,-117,-56,-82,-84,-59
-93,14,112,32,-103,64,-37,-117,-56,-76,-78,-59
-93,14,112,32,-103,64,-37,-117,-62,-82,-84,-59
-93,20,118,26,-103,70,-37,-117,-62,-76,-78,-59
-93,20,118,26,-103,70,-37,-117,-62,-76,-72,-59
-93,14,112,32,-103,64,-43,-117,-56,-76,-72,-59
-99,14,118,32,-109,64,-37,-117,-56,-76,-78,-59
-99,14,118,32,-109,64,-43,-117,-50,-76,-78,-59
-99,14,118,32,-109,64,-43,-117,-50,-76,-78,-59
-99,8,106,38,-103,52,-37,-117,-50,-76,-78,-65
-99,8,106,38,-103,52,-37,-117,-50,-76,-78,-65
-99,8,106,38,-103,52,-31,-111,-44,-70,-72,-65
-99,8,100,44,-103,46,-31,-105,-44,-70,-72,-65
-87,-3,76,44,-85,28,-13,-105,-32,-58,-72,-53
-93,3,88,44,-91,40,-13,-93,-38,-58,-72,-65
-87,3,82,38,-85,34,-7,-87,-38,-64,-78,-65
-87,3,82,38,-85,34,-2,-81,-32,-52,-72,-59
-99,3,94,44,-97,40,-2,-75,-8,-46,-54,-47
-99,8,100,44,-103,46,-2,-75,-3,-16,-36,-41
-81,26,112,20,-97,70,-2,-75,15,19,-7,-17
-87,38,130,14,-109,82,-2,-81,45,67,11,-6
-99,56,160,14,-127,106,4,-81,81,133,59,12
-105,86,196,2,-151,142,16,-81,105,199,107,48
-111,110,226,-4,-169,166,40,-87,141,265,149,72
-135,110,250,2,-193,178,76,-81,153,301,173,72
-159,110,268,14,-217,190,94,-81,153,313,179,72
-177,122,298,20,-241,214,130,-81,159,331,191,84
-207,110,316,38,-259,214,178,-63,171,379,203,78
-219,128,346,38,-277,238,214,-57,207,439,239,102
-219,176,394,14,-301,280,238,-45,237,523,287,126
-213,188,400,2,-301,292,244,-21,273,607,341,150
-189,212,400,-4,-289,304,244,-4,321,685,407,192
-123,266,394,-69,-253,328,214,20,381,769,497,264
-33,326,364,-141,-199,346,166,32,453,823,581,348
14,344,322,-183,-151,334,112,38,435,769,569,372
80,356,268,-219,-91,316,22,14,345,613,479,354
146,374,226,-255,-31,298,-61,-4,267,433,383,324
206,368,160,-285,16,262,-145,-9,213,283,311,318
260,350,82,-303,88,220,-211,-33,117,109,215,276
284,320,28,-303,124,178,-241,-51,-3,-100,47,192
278,266,-7,-273,148,130,-265,-63,-152,-328,-126,84
278,206,-73,-243,178,64,-307,-93,-320,-568,-312,-11
278,158,-121,-219,202,16,-337,-129,-458,-760,-456,-101
284,122,-163,-207,226,-13,-349,-141,-518,-838,-516,-167
278,104,-175,-195,232,-25,-343,-153,-536,-850,-534,-191
248,98,-151,-177,202,-19,-325,-159,-506,-838,-522,-179
188,98,-85,-141,136,10,-271,-129,-440,-754,-492,-173
110,86,-19,-99,64,28,-187,-63,-332,-658,-444,-155
68,80,10,-75,28,46,-145,-27,-248,-550,-384,-143
44,74,22,-57,4,52,-115,-21,-188,-460,-336,-119
14,68,46,-39,-8,58,-97,-4,-146,-394,-294,-119
-4,56,52,-27,-19,58,-91,-4,-122,-328,-252,-119
-4,38,46,-9,-25,40,-79,-4,-104,-274,-228,-107
-4,32,34,-9,-13,34,-67,2,-74,-226,-186,-89
-15,20,40,-4,-25,28,-61,14,-32,-172,-144,-77
-15,8,22,-4,-19,10,-37,26,-3,-136,-120,-77
-21,-27,-1,20,-8,-13,-13,26,15,-118,-108,-77
-33,-45,-7,38,-8,-25,-13,26,21,-100,-90,-65
-33,-33,5,32,-13,-13,-13,14,21,-94,-72,-53
-33,-33,5,32,-13,-13,-13,2,9,-82,-78,-59
-45,-33,10,38,-25,-7,-13,-15,-3,-88,-78,-65
-57,-33,16,44,-37,-1,-13,-33,-8,-82,-78,-71
-69,-39,22,50,-49,-1,-13,-45,-20,-82,-78,-71
-87,-33,46,56,-67,10,-19,-51,-32,-82,-72,-77
-87,-27,52,56,-73,10,-25,-57,-38,-94,-78,-77
-81,-21,52,50,-67,10,-37,-63,-44,-94,-90,-77
-81,-15,58,44,-73,16,-43,-81,-56,-100,-96,-77
-81,-15,58,44,-73,16,-43,-87,-56,-112,-114,-77
-81,-15,58,44,-73,16,-43,-81,-62,-118,-114,-77
-87,-15,64,50,-79,16,-43,-87,-68,-118,-120,-77
-87,-27,52,56,-73,10,-43,-81,-68,-118,-120,-83
-87,-27,52,56,-73,10,-43,-81,-68,-118,-114,-83
-87,-33,46,56,-67,10,-37,-81,-74,-118,-114,-89
-93,-33,52,62,-73,10,-37,-81,-74,-118,-114,-89
-93,-39,46,62,-73,10,-31,-87,-80,-118,-114,-95
-93,-39,46,62,-73,10,-31,-87,-86,-118,-114,-95
-99,-45,46,68,-73,5,-37,-93,-86,-124,-114,-101
-99,-51,40,74,-73,-1,-37,-93,-86,-124,-114,-101
-93,-51,34,68,-67,-1,-43,-99,-80,-130,-114,-107
-87,-45,34,62,-61,-1,-37,-99,-80,-130,-114,-107
-93,-39,46,62,-73,10,-37,-93,-86,-136,-120,-107
-87,-39,40,62,-67,5,-43,-93,-86,-136,-120,-101
-93,-51,34,68,-67,-1,-43,-93,-92,-136,-126,-101
-93,-51,34,68,-67,-1,-37,-87,-86,-136,-126,-101
-81,-45,28,62,-55,-1,-37,-87,-86,-136,-126,-101
-81,-45,28,62,-55,-1,-31,-81,-86,-136,-126,-101
-75,-51,16,62,-49,-13,-31,-81,-80,-130,-120,-101
-69,-51,10,56,-43,-13,-37,-81,-80,-130,-120,-95
-57,-51,10,50,-31,-19,-37,-75,-74,-136,-114,-89
-51,-57,-1,50,-19,-31,-37,-75,-74,-136,-114,-83
-45,-57,-7,50,-13,-31,-37,-69,-62,-136,-108,-77
-45,-57,-7,50,-13,-31,-37,-69,-62,-130,-102,-71
-51,-57,-1,50,-19,-31,-31,-63,-62,-130,-102,-77
-51,-57,-1,50,-19,-31,-25,-63,-62,-130,-102,-83
-57,-57,5,56,-25,-25,-25,-57,-62,-130,-102,-89
-57,-57,5,56,-25,-25,-31,-57,-56,-130,-102,-95
-63,-57,10,56,-31,-25,-25,-57,-62,-136,-108,-95
-63,-57,10,56,-31,-25,-31,-57,-62,-136,-108,-89
-69,-63,10,62,-37,-25,-25,-63,-62,-136,-114,-89
-69,-69,5,68,-31,-31,-19,-63,-56,-136,-108,-89
-63,-63,5,62,-31,-31,-25,-69,-56,-136,-108,-83
-57,-63,-1,56,-25,-31,-25,-69,-56,-136,-108,-83
-57,-63,-1,56,-25,-31,-25,-63,-50,-136,-108,-77
-51,-69,-13,56,-13,-43,-25,-63,-44,-136,-108,-77
-45,-69,-19,56,-8,-43,-25,-63,-50,-130,-102,-77
-33,-69,-31,50,-8,-49,-25,-57,-38,-130,-102,-77
-27,-69,-37,44,-2,-55,-31,-57,-44,-124,-96,-77
-15,-69,-49,38,10,-61,-31,-45,-38,-124,-96,-77
-15,-69,-49,38,10,-61,-25,-39,-32,-118,-90,-77
-15,-75,-55,44,10,-67,-25,-33,-32,-118,-90,-71
-15,-81,-61,44,16,-73,-19,-27,-26,-118,-90,-71
-4,-81,-79,38,34,-79,-13,-21,-14,-118,-84,-71
-4,-87,-85,38,34,-85,-7,-15,-3,-118,-78,-71
-4,-93,-91,44,40,-91,-7,-9,-3,-112,-72,-71
-4,-93,-97,38,46,-91,-7,-4,3,-106,-72,-65
-4,-93,-97,38,46,-91,-7,-4,9,-106,-66,-65
2,-99,-109,38,52,-103,-7,-4,15,-100,-60,-65
2,-99,-109,38,52,-103,-7,2,33,-100,-60,-59
20,-93,-121,26,70,-103,-2,2,33,-82,-42,-59
26,-93,-127,26,76,-109,-2,14,45,-82,-42,-59
32,-99,-139,26,82,-115,-2,20,51,-76,-42,-53
38,-105,-151,26,94,-127,-2,38,63,-70,-30,-47
44,-111,-163,26,100,-133,-2,50,75,-64,-24,-35
50,-129,-187,32,118,-157,-2,62,87,-64,-12,-35
50,-123,-181,26,112,-151,-2,68,99,-52,-7,-29
56,-123,-187,26,118,-151,-2,74,111,-46,-7,-29
56,-123,-187,26,118,-151,-2,80,135,-28,-1,-17
62,-123,-193,20,124,-157,4,86,153,-10,5,-17
68,-123,-199,20,130,-157,4,92,171,-5,17,-17
74,-129,-211,20,142,-169,10,104,189,7,29,-6
80,-129,-217,14,148,-169,10,110,195,25,47,-6
92,-129,-229,8,160,-175,10,122,213,49,65,-6
98,-141,-241,14,172,-193,10,134,225,61,77,0
104,-141,-247,8,178,-193,22,146,237,73,89,6
110,-147,-259,8,184,-205,22,164,243,85,89,12
122,-153,-277,8,202,-217,28,164,261,97,101,18
128,-153,-283,2,208,-217,34,170,279,121,119,24
128,-159,-289,8,208,-223,34,176,297,127,131,30
134,-153,-289,2,214,-223,40,188,315,145,143,36
140,-153,-295,-4,220,-223,52,194,327,169,155,42
146,-147,-295,-4,220,-223,52,194,339,193,173,48
152,-141,-295,-4,226,-217,58,200,351,217,185,60
158,-135,-295,-4,226,-217,58,200,363,235,209,66
158,-135,-295,-4,226,-217,58,200,375,247,215,72
152,-141,-295,-4,226,-217,64,206,369,247,215,78
152,-141,-295,-4,226,-217,70,212,369,253,221,84
146,-135,-283,-4,214,-211,82,218,369,259,227,90
146,-141,-289,-4,220,-217,82,218,369,271,233,96
146,-135,-283,-4,214,-211,88,218,369,289,239,96
146,-123,-271,-4,208,-199,88,218,369,301,257,96
134,-135,-271,-4,202,-205,88,212,363,313,257,96
134,-123,-259,-4,196,-193,82,200,363,313,269,96
134,-105,-241,-9,190,-175,82,200,363,331,269,102
134,-99,-235,-9,184,-169,82,194,351,331,275,108
134,-75,-217,-21,172,-145,76,188,345,343,275,108
134,-57,-199,-33,166,-127,76,170,339,343,275,108
128,-45,-181,-33,154,-109,52,152,333,343,275,120
128,-21,-157,-45,142,-85,28,140,321,349,281,120
128,-3,-139,-57,130,-67,10,122,303,349,281,126
122,8,-121,-57,118,-55,-2,116,297,349,281,126
122,8,-121,-57,118,-55,-13,104,279,343,275,120
116,8,-103,-63,112,-37,-25,98,267,343,269,120
110,14,-91,-63,100,-31,-43,80,255,337,263,114
104,14,-85,-57,94,-25,-55,68,237,331,257,102
110,20,-85,-63,100,-25,-43,62,219,313,233,90
98,26,-67,-63,82,-13,-43,62,219,295,227,84
92,32,-55,-63,76,-1,-31,62,213,289,221,84
92,32,-55,-63,76,-1,-25,62,207,289,221,84
86,38,-43,-63,64,5,-13,62,201,283,215,84
86,38,-43,-63,64,5,-7,62,195,283,215,84
68,44,-19,-57,46,10,-2,62,171,271,191,78
62,50,-7,-57,34,16,-2,56,153,253,185,72
50,50,5,-51,22,22,-2,50,129,241,173,72
32,38,10,-33,10,22,-2,32,111,229,161,66
26,44,10,-33,4,28,-2,26,99,211,143,54
20,56,28,-39,-8,46,-2,20,81,193,131,42
8,62,46,-33,-13,58,-2,2,63,169,113,30
-4,68,64,-33,-25,70,-2,2,57,145,101,18
-4,68,70,-27,-31,70,-2,-4,33,133,89,18
-9,74,88,-27,-49,82,-2,-4,27,121,77,12
-21,68,94,-15,-55,82,-2,-21,3,97,71,-6
-27,68,100,-15,-61,82,-7,-33,-3,97,59,-6
-27,62,94,-9,-61,76,-13,-39,-14,79,47,-6
-33,62,100,-9,-67,82,-13,-39,-32,61,23,-6
-39,50,94,-4,-67,70,-25,-39,-56,37,5,-6
-39,50,94,-4,-67,70,-25,-45,-68,19,-7,-11
-51,50,106,-4,-79,76,-25,-51,-80,13,-7,-23
-57,44,106,-4,-79,76,-25,-57,-86,7,-7,-29
-69,44,118,2,-91,82,-25,-57,-86,13,-7,-35
-69,44,118,2,-91,82,-25,-57,-98,-5,-7,-41
-75,44,124,8,-97,82,-25,-69,-104,-10,-24,-47
-75,44,124,8,-97,82,-25,-69,-116,-10,-30,-47
-75,44,124,8,-97,82,-25,-81,-128,-22,-36,-47
-87,44,136,14,-109,88,-25,-81,-128,-34,-42,-59
-87,38,130,14,-109,82,-19,-87,-134,-52,-48,-71
-87,38,130,14,-109,82,-25,-93,-134,-52,-54,-71
-99,32,136,26,-115,82,-19,-93,-140,-52,-54,-77
-99,32,136,26,-115,82,-19,-87,-140,-52,-54,-77
-99,26,130,26,-115,76,-19,-93,-152,-58,-66,-71
-99,26,130,26,-115,76,-19,-99,-152,-64,-66,-77
-99,20,124,32,-109,70,-19,-105,-152,-64,-72,-71
-99,20,124,32,-109,70,-19,-105,-152,-64,-72,-71
-105,26,136,32,-121,82,-19,-99,-158,-70,-72,-77
-99,20,124,32,-109,70,-19,-99,-152,-70,-72,-77
-105,20,130,32,-115,76,-19,-93,-158,-70,-72,-83
-105,20,130,32,-115,76,-19,-93,-158,-70,-72,-83
-99,20,124,32,-109,70,-19,-87,-158,-70,-72,-77
-99,20,124,32,-109,70,-19,-81,-158,-70,-72,-71
-93,20,118,26,-103,70,-19,-81,-158,-70,-72,-65
-93,26,124,26,-109,76,-19,-81,-158,-70,-72,-65
-87,26,118,20,-103,70,-19,-81,-152,-64,-66,-65
-87,26,118,20,-103,70,-19,-81,-152,-64,-66,-65
-81,20,106,20,-91,64,-19,-75,-152,-58,-60,-65
-87,26,118,20,-103,70,-19,-81,-152,-52,-60,-65
-87,26,118,20,-103,70,-13,-81,-152,-58,-60,-59
-87,26,118,20,-103,70,-13,-87,-152,-64,-60,-59
-93,26,124,26,-109,76,-7,-81,-152,-70,-60,-53
-93,26,124,26,-109,76,-7,-81,-152,-70,-60,-53
-99,32,136,26,-115,82,-7,-87,-158,-70,-60,-53
-99,32,136,26,-115,82,-7,-87,-158,-70,-60,-53
-105,26,136,32,-121,82,-7,-99,-158,-70,-60,-53
-111,26,142,32,-127,82,-7,-99,-158,-70,-60,-53
-105,32,142,26,-121,88,-13,-111,-164,-70,-60,-59
-105,32,142,26,-121,88,-13,-111,-164,-70,-60,-59
-99,38,142,20,-121,88,-19,-117,-176,-70,-60,-65
-99,38,142,20,-121,88,-19,-117,-176,-70,-60,-65
-93,38,136,20,-115,88,-19,-117,-176,-70,-60,-65
-93,38,136,20,-115,88,-19,-117,-170,-70,-60,-65
-87,32,124,20,-103,76,-19,-117,-170,-70,-60,-65
-87,32,124,20,-103,76,-19,-123,-182,-70,-66,-65
-93,32,130,20,-109,82,-25,-123,-176,-70,-66,-65
-93,32,130,20,-109,82,-31,-123,-176,-70,-66,-65
-99,32,136,26,-115,82,-37,-123,-170,-76,-66,-65
-99,32,136,26,-115,82,-37,-123,-170,-76,-66,-65
-99,32,136,26,-115,82,-37,-123,-176,-76,-66,-59
-99,32,136,26,-115,82,-37,-129,-176,-88,-66,-59
-105,38,148,26,-127,94,-37,-129,-176,-76,-66,-59
-105,38,148,26,-127,94,-37,-129,-176,-76,-66,-59
-105,38,148,26,-127,94,-37,-135,-182,-82,-66,-59
-105,38,148,26,-127,94,-37,-135,-182,-82,-66,-59
-105,44,154,20,-127,100,-37,-141,-188,-82,-66,-59
-105,44,154,20,-127,100,-37,-141,-188,-82,-72,-59
-105,44,154,20,-127,100,-37,-147,-188,-88,-72,-59
-105,44,154,20,-127,100,-37,-147,-194,-94,-78,-59
-105,44,154,20,-127,100,-37,-153,-194,-100,-78,-59
-105,44,154,20,-127,100,-37,-153,-194,-100,-72,-59
-105,38,148,26,-127,94,-43,-153,-194,-94,-72,-59
-111,44,160,26,-133,100,-37,-153,-194,-94,-78,-59
-111,44,160,26,-133,100,-43,-153,-194,-88,-78,-59
-111,50,166,20,-139,106,-43,-153,-194,-88,-78,-59
-111,38,154,26,-133,94,-37,-153,-194,-94,-78,-65
-111,38,154,26,-133,94,-37,-153,-194,-94,-78,-65
-111,38,154,26,-133,94,-31,-147,-188,-94,-72,-65
-111,32,148,32,-127,88,-31,-141,-188,-94,-72,-65
-99,8,112,38,-103,58,-25,-129,-176,-82,-60,-65
-93,14,112,32,-103,64,-13,-117,-158,-46,-48,-53
-99,26,130,26,-115,76,-7,-99,-122,-5,-18,-41
-99,26,130,26,-115,76,-2,-93,-80,19,-7,-23
-99,38,142,20,-121,88,-2,-87,-56,61,29,-6
-87,56,148,8,-115,100,10,-75,-14,127,83,18
-93,74,172,2,-133,124,28,-75,27,187,143,54
-111,110,226,-4,-169,166,58,-81,57,241,179,84
-123,128,250,-4,-187,190,76,-81,69,283,203,96
-153,134,286,2,-223,214,112,-93,69,301,203,96
-183,134,316,14,-247,226,136,-87,69,337,209,96
-219,134,352,32,-283,244,184,-81,81,397,233,108
-249,134,388,50,-319,256,238,-45,141,457,257,120
-255,110,370,68,-313,244,280,-9,171,505,293,120
-261,122,388,62,-325,250,316,-4,195,565,317,138
-249,152,406,44,-325,274,340,2,231,613,359,150
-219,212,430,-4,-319,316,328,14,261,679,431,198
-165,266,436,-45,-295,352,292,26,273,703,473,240
-105,302,412,-93,-253,358,226,8,237,649,467,270
-51,326,382,-135,-217,352,142,-15,171,535,419,264
-4,350,352,-171,-175,352,46,-39,87,379,335,252
50,368,310,-213,-127,340,-31,-69,-3,211,239,222
104,368,256,-237,-73,316,-121,-105,-116,49,131,192
146,374,226,-255,-31,298,-205,-135,-230,-124,5,138
170,368,196,-267,-8,280,-259,-153,-320,-292,-114,96
194,350,154,-267,16,250,-301,-177,-428,-472,-240,42
206,320,112,-261,40,220,-361,-219,-578,-640,-354,-23
212,302,88,-255,58,202,-421,-297,-728,-796,-468,-83
188,284,94,-237,40,196,-451,-363,-824,-898,-534,-155
140,272,130,-207,-2,208,-433,-387,-878,-928,-582,-209
74,260,184,-171,-49,226,-385,-351,-848,-886,-576,-227
32,248,208,-141,-79,232,-331,-291,-758,-802,-522,-215
-4,230,232,-111,-115,232,-277,-249,-674,-712,-468,-203
-27,218,250,-87,-139,232,-241,-225,-590,-616,-426,-173
-45,194,244,-69,-145,220,-211,-207,-518,-538,-384,-143
-75,176,250,-45,-163,214,-169,-183,-476,-484,-348,-143
-75,122,202,-15,-139,160,-127,-153,-422,-436,-324,-143
-69,80,154,-4,-109,118,-97,-123,-368,-394,-294,-131
-51,56,112,-4,-79,82,-79,-87,-308,-340,-246,-107
-51,50,106,-4,-79,76,-79,-81,-266,-274,-192,-83
-57,32,94,2,-73,64,-67,-69,-242,-238,-150,-77
-51,8,52,20,-55,22,-49,-45,-212,-196,-132,-89
-51,-21,22,32,-37,5,-25,-21,-188,-172,-132,-101
-57,-27,22,38,-43,5,-25,-21,-176,-166,-132,-101
-57,-33,16,44,-37,-1,-13,-33,-170,-160,-126,-101
-57,-33,16,44,-37,-1,-13,-45,-182,-154,-120,-101
-81,-33,40,56,-61,10,-2,-57,-182,-154,-114,-95
-87,-33,46,56,-67,10,-2,-75,-176,-148,-108,-95
-93,-33,52,62,-73,10,-2,-93,-182,-136,-102,-95
-99,-39,52,68,-79,10,-2,-93,-176,-124,-96,-89
-111,-33,70,68,-91,10,-7,-99,-176,-118,-84,-89
-105,-33,64,68,-85,10,-7,-93,-182,-124,-90,-89
-99,-27,64,62,-85,10,-19,-99,-188,-124,-96,-89
-93,-27,58,56,-79,10,-19,-105,-200,-124,-102,-89
-93,-27,58,56,-79,10,-19,-111,-200,-136,-114,-89
-93,-27,58,56,-79,10,-19,-105,-206,-148,-114,-95
-99,-27,64,62,-85,10,-19,-111,-212,-148,-120,-95
-99,-39,52,68,-79,10,-19,-105,-212,-154,-120,-107
-99,-39,52,68,-79,10,-19,-105,-212,-154,-114,-107
-99,-39,52,68,-79,10,-19,-105,-206,-154,-114,-107
-105,-39,58,68,-85,10,-19,-105,-206,-154,-114,-107
-105,-39,58,68,-85,10,-19,-111,-200,-154,-114,-107
-105,-39,58,68,-85,10,-19,-111,-206,-154,-114,-107
-117,-51,58,80,-91,10,-19,-111,-206,-154,-120,-107
-117,-57,52,86,-85,5,-19,-111,-206,-154,-120,-107
-117,-63,46,86,-85,-1,-19,-111,-200,-154,-126,-107
-111,-57,46,80,-79,-1,-13,-111,-200,-154,-126,-107
-111,-45,58,74,-85,10,-13,-105,-200,-160,-126,-107
-105,-45,52,74,-79,10,-19,-105,-200,-160,-126,-101
-105,-51,46,74,-79,5,-19,-105,-200,-160,-126,-101
-105,-51,46,74,-79,5,-13,-99,-194,-160,-126,-101
-93,-39,46,62,-73,10,-19,-99,-194,-160,-120,-95
-93,-39,46,62,-73,10,-13,-93,-194,-160,-120,-95
-87,-39,40,62,-67,5,-19,-93,-188,-154,-108,-89
-81,-39,34,56,-61,5,-25,-93,-188,-154,-108,-83
-69,-45,16,56,-43,-7,-19,-87,-182,-154,-108,-83
-63,-51,10,56,-37,-19,-19,-81,-182,-154,-108,-83
-57,-57,5,56,-25,-25,-13,-75,-170,-148,-108,-83
-57,-57,5,56,-25,-25,-13,-69,-170,-142,-102,-83
-63,-51,10,56,-37,-19,-13,-69,-170,-142,-102,-83
-63,-51,10,56,-37,-19,-7,-69,-170,-142,-102,-83
-69,-45,16,56,-43,-7,-13,-69,-170,-142,-102,-83
-69,-45,16,56,-43,-7,-19,-69,-164,-142,-102,-83
-69,-45,16,56,-43,-7,-13,-69,-158,-148,-102,-83
-69,-45,16,56,-43,-7,-19,-69,-158,-148,-102,-77
-69,-51,10,56,-43,-13,-13,-75,-146,-148,-102,-77
-69,-57,10,62,-37,-19,-7,-75,-140,-148,-96,-77
-57,-57,5,56,-25,-25,-13,-81,-146,-154,-96,-77
-51,-57,-1,50,-19,-31,-13,-81,-146,-154,-96,-77
-45,-63,-13,50,-13,-37,-13,-75,-146,-160,-96,-77
-39,-69,-25,50,-8,-49,-13,-75,-140,-160,-96,-77
-39,-75,-31,56,-8,-55,-7,-69,-140,-154,-96,-77
-27,-75,-43,50,-2,-61,-7,-57,-128,-154,-96,-77
-27,-81,-49,50,4,-67,-7,-51,-128,-148,-96,-77
-15,-81,-61,44,16,-73,-7,-33,-122,-148,-96,-77
-15,-81,-61,44,16,-73,-2,-27,-110,-142,-84,-71
-15,-87,-67,50,16,-79,-2,-21,-110,-142,-84,-65
-15,-93,-73,50,22,-85,-2,-15,-98,-142,-78,-59
-4,-93,-91,44,40,-91,-2,-9,-86,-142,-72,-59
-4,-93,-97,38,46,-91,-2,-9,-74,-142,-72,-59
2,-99,-109,38,52,-103,-2,-4,-68,-136,-66,-59
14,-93,-115,32,64,-103,-2,-4,-56,-130,-72,-53
20,-93,-121,26,70,-103,-2,-4,-50,-130,-66,-53
20,-105,-133,32,76,-115,-2,2,-44,-130,-60,-53
20,-111,-139,38,76,-121,-2,8,-26,-130,-60,-47
32,-111,-151,32,88,-127,-2,14,-26,-118,-42,-47
38,-117,-163,32,100,-139,-2,26,-14,-118,-42,-47
44,-117,-169,26,106,-139,4,32,-3,-106,-42,-47
50,-123,-181,26,112,-151,4,50,3,-100,-30,-41
56,-123,-187,26,118,-151,10,62,27,-88,-24,-35
62,-141,-211,32,136,-175,10,74,39,-88,-12,-35
74,-135,-217,20,142,-175,10,80,57,-70,-7,-29
80,-141,-229,20,154,-181,10,92,69,-58,-7,-29
92,-141,-235,14,166,-187,22,98,99,-34,11,-17
98,-147,-247,14,172,-199,28,110,117,-10,17,-17
98,-147,-247,14,172,-199,34,128,141,-5,23,-17
104,-153,-259,14,184,-205,40,140,159,-5,35,-6
104,-153,-259,14,184,-205,46,158,171,1,47,-6
116,-153,-271,8,196,-211,46,170,189,25,65,-6
122,-165,-289,14,208,-229,46,176,213,49,77,-6
128,-165,-295,8,214,-229,58,188,231,61,89,0
134,-171,-307,8,220,-235,58,200,243,85,89,0
146,-177,-325,8,232,-247,64,200,261,97,101,6
152,-177,-331,2,238,-247,70,206,279,121,119,12
152,-183,-337,8,238,-253,70,212,297,127,131,18
158,-177,-337,2,244,-253,76,224,315,145,143,24
164,-177,-343,-4,250,-253,88,230,327,169,155,30
158,-177,-337,2,244,-253,94,236,339,187,173,42
164,-171,-337,-4,244,-247,100,236,351,211,185,54
158,-171,-331,-4,238,-247,106,242,363,229,209,66
158,-171,-331,-4,238,-247,106,242,375,235,215,72
152,-177,-331,2,238,-247,112,236,381,241,215,72
152,-171,-325,2,232,-241,124,242,387,253,221,72
146,-165,-313,2,232,-235,136,236,399,265,227,72
146,-165,-313,2,232,-235,142,236,405,283,233,72
152,-153,-307,-4,232,-229,148,242,417,301,239,84
152,-141,-295,-4,226,-217,142,242,417,313,257,90
146,-147,-295,-4,220,-223,142,242,423,325,257,102
146,-135,-283,-4,214,-211,130,236,423,325,269,108
140,-111,-253,-9,196,-181,112,224,417,337,269,108
140,-93,-235,-15,190,-163,100,206,405,337,275,114
134,-63,-205,-27,166,-133,76,188,393,343,275,108
134,-33,-175,-45,154,-103,64,158,387,343,275,108
122,-27,-157,-39,136,-91,40,140,381,343,275,120
122,-15,-145,-45,130,-79,22,128,369,349,281,120
116,-3,-127,-51,118,-61,4,110,351,349,281,126
110,-3,-121,-45,112,-61,-2,104,345,349,281,126
110,-3,-121,-45,112,-61,-2,98,327,337,269,120
104,8,-103,-51,100,-43,-7,98,315,331,263,120
98,8,-91,-51,94,-37,-13,86,303,319,251,114
92,8,-85,-45,88,-31,-19,80,279,307,245,102
86,8,-73,-45,82,-25,-7,86,273,289,233,90
74,26,-43,-51,58,-1,-2,74,261,283,227,96
68,26,-37,-45,52,5,-2,68,255,277,221,90
62,26,-31,-45,46,5,-2,68,249,271,215,90
56,26,-25,-39,40,10,4,62,243,265,209,84
50,26,-19,-39,34,10,4,62,237,259,203,84
32,32,5,-33,16,16,4,56,213,241,179,72
32,38,10,-33,10,22,4,44,195,229,173,66
20,38,10,-27,-2,28,4,32,165,211,161,60
8,26,10,-15,-8,22,4,8,147,193,149,54
2,38,28,-21,-8,34,-2,-4,135,181,131,48
-4,50,46,-21,-19,52,-2,-4,117,163,125,42
-4,62,70,-21,-37,64,-2,-21,99,145,107,36
-15,68,88,-21,-49,76,-2,-21,93,121,101,30
-15,68,88,-21,-49,76,-2,-33,69,109,83,24
-27,68,100,-15,-61,82,-2,-33,57,91,65,18
-33,62,100,-9,-67,82,-2,-45,33,67,53,-6
-39,56,100,-4,-67,76,-7,-57,9,61,35,-6
-51,56,112,-4,-79,82,-13,-69,3,43,29,-6
-63,56,124,-4,-91,88,-13,-75,-3,31,11,-6
-81,50,136,8,-109,94,-25,-81,-20,7,-1,-17
-87,50,142,8,-115,94,-25,-93,-32,-5,-7,-23
-93,50,148,14,-121,100,-19,-99,-44,-5,-12,-29
-99,44,148,20,-121,94,-19,-105,-50,-10,-12,-35
-105,44,154,20,-127,100,-13,-105,-50,-10,-12,-35
-105,44,154,20,-127,100,-13,-105,-62,-28,-18,-41
-105,44,154,20,-127,100,-13,-111,-62,-40,-30,-47
-105,44,154,20,-127,100,-13,-111,-74,-40,-36,-47
-99,44,148,20,-121,94,-13,-117,-80,-46,-36,-47
-111,44,160,26,-133,100,-13,-117,-80,-58,-42,-59
-111,38,154,26,-133,94,-19,-123,-86,-76,-48,-59
-111,44,160,26,-133,100,-25,-129,-92,-76,-54,-59
-123,38,166,32,-145,100,-31,-129,-98,-76,-54,-53
-123,44,172,32,-145,106,-31,-123,-104,-76,-54,-53
-129,38,172,38,-151,106,-31,-123,-116,-82,-60,-53
-129,38,172,38,-151,106,-31,-129,-116,-88,-60,-59
-135,32,172,44,-151,100,-31,-129,-116,-88,-60,-59
-135,32,172,44,-151,100,-31,-129,-116,-88,-60,-59
-129,38,172,38,-151,106,-31,-129,-122,-94,-66,-59
-123,32,160,38,-139,94,-31,-129,-116,-94,-66,-59
-117,32,154,32,-133,94,-31,-129,-122,-94,-72,-59
-117,32,154,32,-133,94,-31,-129,-122,-94,-72,-59
-111,32,148,32,-127,88,-31,-123,-116,-94,-66,-59
-111,32,148,32,-127,88,-31,-117,-110,-94,-66,-53
-105,32,142,26,-121,88,-31,-117,-104,-94,-60,-53
-105,38,148,26,-127,94,-31,-117,-98,-94,-60,-53
-111,38,154,26,-133,94,-25,-117,-98,-94,-60,-59
-111,38,154,26,-133,94,-25,-117,-98,-94,-60,-59
-117,32,154,32,-133,94,-19,-111,-104,-94,-60,-65
-123,38,166,32,-145,100,-19,-117,-104,-88,-60,-65
-123,44,172,32,-145,106,-19,-123,-104,-88,-60,-65
-123,44,172,32,-145,106,-19,-129,-104,-94,-60,-65
-129,50,184,32,-157,118,-19,-129,-104,-94,-60,-65
-129,50,184,32,-157,118,-19,-129,-104,-94,-60,-65
-129,50,184,32,-157,118,-25,-135,-104,-94,-60,-59
-123,50,178,26,-151,112,-25,-135,-104,-94,-60,-59
-123,38,166,32,-145,100,-31,-147,-98,-94,-60,-53
-123,38,166,32,-145,100,-31,-147,-98,-94,-60,-53
-123,38,166,32,-145,100,-31,-147,-98,-94,-60,-53
-123,38,166,32,-145,100,-31,-147,-98,-94,-60,-53
-123,38,166,32,-145,100,-31,-141,-104,-94,-60,-53
-123,38,166,32,-145,100,-31,-141,-104,-94,-60,-53
-123,44,172,32,-145,106,-31,-141,-104,-94,-54,-53
-123,44,172,32,-145,106,-31,-141,-98,-94,-54,-53
-123,44,172,32,-145,106,-31,-141,-98,-94,-48,-53
-123,44,172,32,-145,106,-31,-147,-110,-94,-54,-53
-123,44,172,32,-145,106,-37,-147,-110,-94,-60,-53
-123,44,172,32,-145,106,-43,-147,-110,-94,-60,-53
-123,44,172,32,-145,106,-49,-147,-110,-100,-66,-53
-123,44,172,32,-145,106,-49,-147,-110,-100,-66,-53
-123,44,172,32,-145,106,-49,-147,-116,-100,-66,-53
-123,44,172,32,-145,106,-49,-153,-116,-112,-66,-53
-129,50,184,32,-157,118,-49,-153,-116,-100,-66,-59
-129,50,184,32,-157,118,-49,-153,-116,-100,-66,-59
-129,50,184,32,-157,118,-49,-159,-116,-106,-66,-53
-129,50,184,32,-157,118,-49,-159,-116,-106,-66,-53
-129,56,190,26,-157,124,-49,-165,-116,-106,-66,-47
-129,56,190,26,-157,124,-49,-165,-116,-106,-72,-47
-129,56,190,26,-157,124,-49,-171,-122,-106,-66,-47
-129,56,190,26,-157,124,-49,-171,-128,-112,-72,-47
-129,56,190,26,-157,124,-49,-177,-134,-112,-66,-47
-129,56,190,26,-157,124,-49,-177,-134,-112,-60,-47
-135,50,190,32,-163,118,-49,-177,-134,-112,-60,-53
-141,50,196,38,-169,124,-43,-177,-134,-112,-66,-53
-147,50,202,38,-175,124,-43,-177,-134,-112,-66,-59
-147,50,202,38,-175,124,-43,-177,-134,-112,-66,-59
-147,32,184,50,-163,106,-37,-171,-128,-112,-66,-65
-147,32,184,50,-163,106,-37,-171,-128,-112,-66,-65
-147,26,178,50,-163,100,-31,-159,-116,-106,-60,-65
-147,20,172,56,-157,94,-31,-153,-116,-106,-60,-65
-135,8,148,56,-139,76,-25,-141,-104,-94,-60,-53
-117,14,136,44,-127,76,-25,-129,-98,-82,-60,-53
-111,14,130,38,-121,70,-7,-123,-74,-64,-54,-41
-111,14,130,38,-121,70,-2,-117,-44,-40,-24,-35
-111,38,154,26,-133,94,-2,-111,-20,-5,-7,-11
-111,68,184,14,-145,124,-2,-111,9,43,35,6
-117,86,208,8,-163,148,-2,-111,51,115,95,42
-135,98,238,8,-187,166,22,-105,105,199,167,72
-147,116,262,8,-205,190,64,-93,141,259,215,108
-165,110,274,20,-223,196,100,-81,165,301,227,108
-195,110,304,32,-247,208,136,-87,153,325,233,108
-219,122,340,38,-277,232,172,-93,165,349,239,108
-249,146,400,44,-325,268,226,-69,201,409,269,120
-267,146,418,56,-343,280,268,-45,231,475,305,132
-273,158,436,50,-355,292,292,-39,261,529,341,150
-273,176,454,44,-361,310,304,-21,285,589,383,174
-261,212,478,20,-367,340,304,-9,333,655,431,198
-213,266,484,-21,-343,376,268,-4,357,715,479,252
-153,314,472,-75,-307,394,214,-4,357,721,521,294
-99,338,442,-117,-265,388,118,-27,297,643,497,312
-33,362,400,-159,-217,382,22,-51,231,505,431,300
26,392,358,-213,-163,376,-43,-69,141,349,335,276
80,392,304,-237,-109,352,-121,-93,39,181,233,246
122,386,256,-249,-61,322,-217,-135,-62,-5,125,198
170,380,208,-273,-13,292,-283,-165,-182,-190,-7,144
194,350,154,-267,16,250,-301,-165,-296,-364,-144,90
194,320,124,-255,28,226,-337,-183,-428,-544,-282,12
200,290,88,-243,52,196,-385,-249,-584,-730,-408,-47
188,272,82,-231,46,184,-439,-315,-734,-874,-510,-119
164,242,70,-201,40,160,-433,-351,-794,-940,-570,-173
122,218,88,-171,10,154,-397,-339,-788,-922,-576,-203
68,224,148,-147,-31,190,-355,-303,-728,-874,-546,-203
2,206,196,-105,-91,202,-301,-273,-638,-778,-498,-191
-27,194,226,-75,-127,208,-247,-237,-542,-700,-450,-161
-45,194,244,-69,-145,220,-235,-219,-488,-610,-396,-143
-63,176,244,-51,-151,208,-217,-219,-440,-550,-360,-131
-87,134,226,-15,-157,178,-175,-189,-386,-502,-336,-131
-93,92,190,-4,-139,142,-145,-147,-332,-454,-294,-119
-87,56,148,8,-115,100,-103,-99,-284,-388,-252,-107
-75,50,130,2,-103,88,-91,-81,-236,-334,-216,-83
-69,44,118,2,-91,82,-103,-81,-194,-268,-162,-65
-63,32,100,8,-79,64,-73,-69,-140,-232,-132,-53
-75,-9,58,38,-67,16,-49,-45,-104,-196,-120,-77
-81,-51,22,62,-55,-7,-37,-45,-80,-178,-120,-77
-81,-45,28,62,-55,-1,-37,-57,-86,-172,-102,-77
-81,-57,16,68,-49,-13,-25,-57,-86,-166,-96,-65
-93,-57,28,74,-61,-7,-37,-69,-98,-166,-102,-71
-99,-45,46,68,-73,5,-37,-87,-98,-160,-102,-71
-105,-39,58,68,-85,10,-31,-105,-104,-154,-96,-71
-111,-33,70,68,-91,10,-31,-105,-104,-142,-96,-65
-123,-21,94,68,-109,28,-31,-111,-104,-142,-84,-65
-123,-21,94,68,-109,28,-37,-105,-104,-142,-84,-65
-117,-15,94,62,-109,34,-49,-111,-110,-142,-90,-65
-117,-15,94,62,-109,34,-55,-117,-116,-136,-90,-65
-117,-15,94,62,-109,34,-55,-123,-116,-148,-102,-65
-123,-21,94,68,-109,28,-49,-117,-116,-154,-96,-65
-129,-21,100,74,-115,34,-49,-117,-122,-154,-102,-65
-135,-39,88,86,-115,16,-43,-111,-116,-154,-96,-71
-135,-39,88,86,-115,16,-43,-105,-116,-154,-90,-71
-129,-39,82,80,-109,16,-43,-111,-116,-160,-96,-71
-135,-39,88,86,-115,16,-43,-117,-116,-160,-96,-71
-129,-39,82,80,-109,16,-43,-129,-116,-166,-102,-71
-129,-39,82,80,-109,16,-43,-135,-122,-166,-102,-71
-135,-45,82,86,-109,10,-43,-129,-128,-166,-102,-77
-135,-51,76,92,-109,10,-43,-129,-128,-166,-102,-77
-129,-51,70,86,-103,10,-43,-123,-128,-166,-102,-83
-123,-45,70,80,-97,10,-37,-123,-128,-166,-102,-83
-123,-45,70,80,-97,10,-37,-111,-122,-172,-102,-77
-117,-45,64,80,-91,10,-43,-111,-122,-172,-102,-71
-117,-63,46,86,-85,-1,-43,-105,-116,-172,-102,-65
-117,-63,46,86,-85,-1,-37,-99,-110,-172,-102,-65
-105,-51,46,74,-79,5,-37,-93,-104,-166,-102,-65
-105,-51,46,74,-79,5,-31,-87,-104,-166,-102,-65
-99,-51,40,74,-73,-1,-31,-81,-92,-154,-96,-65
-93,-51,34,68,-67,-1,-37,-81,-92,-154,-96,-59
-81,-51,22,62,-55,-7,-37,-81,-86,-160,-90,-59
-75,-57,10,62,-43,-19,-37,-81,-86,-160,-90,-59
-69,-57,10,62,-37,-19,-37,-81,-74,-160,-84,-59
-69,-57,10,62,-37,-19,-37,-81,-74,-154,-78,-59
-75,-51,16,62,-49,-13,-31,-81,-74,-154,-78,-53
-75,-51,16,62,-49,-13,-25,-81,-74,-154,-78,-53
-81,-45,28,62,-55,-1,-25,-81,-74,-154,-78,-47
-81,-45,28,62,-55,-1,-31,-81,-68,-154,-78,-47
-75,-51,16,62,-49,-13,-31,-81,-74,-160,-78,-47
-75,-51,16,62,-49,-13,-37,-81,-74,-160,-78,-41
-69,-63,10,62,-37,-25,-37,-87,-74,-160,-78,-41
-69,-69,5,68,-31,-31,-31,-87,-68,-160,-72,-41
-63,-75,-7,68,-25,-43,-31,-81,-62,-160,-72,-47
-57,-75,-13,62,-19,-43,-31,-75,-62,-160,-72,-47
-57,-87,-25,68,-13,-55,-25,-57,-50,-160,-72,-53
-51,-93,-37,68,-8,-67,-25,-51,-44,-160,-72,-53
-51,-99,-43,74,-8,-73,-19,-45,-44,-160,-72,-53
-39,-99,-55,68,-2,-79,-19,-39,-32,-160,-72,-53
-39,-105,-61,68,4,-85,-19,-33,-32,-160,-72,-53
-27,-105,-73,62,16,-91,-19,-21,-26,-160,-72,-53
-27,-105,-73,62,16,-91,-13,-21,-20,-154,-66,-53
-27,-111,-79,68,16,-97,-13,-15,-20,-154,-66,-47
-27,-117,-85,68,22,-103,-7,-15,-14,-154,-66,-47
-9,-117,-103,62,40,-109,-2,-9,-3,-154,-60,-47
-9,-117,-103,62,40,-109,-2,-4,-3,-160,-60,-41
-4,-123,-115,62,46,-121,-2,-4,-3,-154,-54,-41
-4,-117,-115,56,52,-115,-7,8,-3,-154,-60,-29
-4,-117,-121,50,58,-115,-7,20,-3,-154,-54,-29
-4,-123,-127,56,58,-121,-7,32,9,-148,-54,-29
-4,-129,-133,56,64,-127,-7,38,27,-148,-54,-23
8,-123,-139,50,70,-127,-2,50,33,-130,-42,-23
14,-129,-151,50,82,-139,-2,62,45,-130,-42,-23
26,-135,-169,44,94,-151,-2,68,63,-118,-36,-23
38,-141,-187,44,112,-163,-2,86,75,-112,-24,-17
50,-147,-205,38,124,-175,-2,98,99,-100,-12,-11
62,-165,-229,44,148,-199,-2,110,111,-100,-7,-11
68,-165,-235,38,154,-199,-2,116,123,-88,-7,-6
74,-171,-247,38,160,-211,-2,128,135,-82,-1,-6
80,-177,-259,38,172,-217,10,134,159,-64,11,6
86,-183,-271,38,178,-229,16,146,177,-46,17,6
92,-195,-289,44,190,-235,28,164,195,-40,17,0
98,-201,-301,44,202,-247,34,176,213,-28,29,12
104,-213,-319,44,214,-259,46,194,219,-22,35,12
116,-213,-331,38,226,-265,46,206,237,-5,53,18
116,-219,-337,44,226,-271,52,218,255,13,65,18
122,-219,-343,38,232,-277,64,230,279,25,71,24
122,-219,-343,38,232,-277,70,242,297,49,71,24
134,-225,-361,38,244,-289,76,242,321,61,77,30
140,-231,-373,38,250,-295,82,254,339,85,101,42
140,-231,-379,38,256,-301,82,260,357,91,113,48
146,-231,-385,38,262,-307,88,278,375,109,131,60
152,-231,-391,32,268,-307,100,284,387,133,143,66
152,-231,-391,32,268,-307,112,296,399,151,155,66
158,-231,-397,32,274,-313,118,302,411,175,167,78
158,-231,-397,32,274,-313,130,314,423,193,185,78
158,-237,-403,32,274,-319,130,314,435,205,191,84
152,-243,-403,38,274,-319,136,320,447,217,197,90
152,-243,-403,38,274,-319,148,326,459,229,209,96
146,-237,-391,38,262,-313,160,332,477,241,221,102
146,-243,-397,44,268,-319,166,332,483,259,233,108
152,-225,-379,26,262,-295,172,332,489,283,239,114
152,-201,-355,14,250,-271,166,326,489,295,257,120
146,-195,-343,14,238,-265,166,320,489,313,257,126
146,-171,-319,2,232,-241,154,302,489,313,269,132
152,-159,-313,-4,232,-229,130,290,489,331,275,144
152,-153,-307,-4,232,-229,112,278,483,331,281,150
158,-135,-295,-4,226,-217,82,260,477,343,287,156
158,-117,-277,-15,220,-199,64,236,471,343,287,156
146,-117,-265,-9,208,-193,40,230,465,343,287,162
146,-105,-253,-15,202,-181,22,224,453,349,293,162
140,-99,-241,-15,190,-169,4,212,435,349,293,162
134,-99,-235,-9,184,-169,-2,212,429,349,293,162
134,-93,-229,-15,184,-163,-2,206,417,343,287,162
128,-81,-217,-15,172,-145,4,206,411,343,281,162
122,-69,-199,-21,160,-133,10,194,405,337,275,162
116,-69,-193,-15,154,-127,16,188,387,331,269,150
122,-63,-193,-21,154,-127,28,206,393,325,275,174
110,-69,-187,-15,148,-127,34,212,381,313,257,156
98,-63,-169,-9,130,-115,52,218,381,313,251,156
98,-57,-163,-15,130,-109,52,206,369,307,257,156
86,-57,-151,-9,118,-103,52,194,357,301,251,150
80,-57,-145,-4,112,-97,52,182,345,295,245,150
68,-57,-133,-4,100,-91,52,170,333,289,239,144
62,-57,-127,-4,94,-91,52,158,321,283,233,144
44,-51,-103,-4,70,-73,46,152,285,265,215,132
38,-45,-91,-4,64,-67,46,140,261,241,203,126
26,-45,-79,2,52,-61,40,128,231,229,191,120
8,-57,-73,14,40,-61,40,104,207,205,173,114
2,-57,-67,20,34,-61,34,98,195,193,155,102
-4,-51,-55,20,22,-49,28,92,177,181,143,96
-4,-51,-43,26,10,-49,22,74,159,163,125,84
-15,-51,-31,32,-2,-43,22,74,153,145,113,78
-15,-45,-25,26,-2,-37,22,56,129,133,95,72
-27,-39,-7,32,-8,-25,22,56,123,115,83,66
-33,-39,-1,32,-13,-19,22,38,99,91,71,42
-39,-39,5,38,-19,-19,16,26,81,85,59,42
-39,-45,-1,38,-13,-25,22,20,81,73,59,48
-45,-45,5,44,-19,-19,22,20,63,61,41,42
-51,-57,-1,50,-19,-31,22,20,51,43,35,42
-51,-57,-1,50,-19,-31,22,14,39,31,23,36
-63,-63,5,62,-31,-31,22,2,21,19,11,24
-69,-69,5,68,-31,-31,22,-4,15,13,11,18
-81,-75,10,74,-43,-31,22,-4,9,13,11,12
-81,-75,10,74,-43,-31,22,-4,-3,-5,5,6
-87,-81,10,80,-43,-37,28,-4,-3,-5,-7,6
-87,-81,10,80,-43,-37,28,-4,-3,-5,-7,6
-87,-87,5,86,-43,-43,34,-4,-8,-5,-12,12
-99,-87,10,92,-55,-37,34,-4,-8,-10,-18,0
-93,-81,10,86,-49,-31,34,-4,-14,-22,-18,0
-93,-75,10,80,-55,-25,28,-9,-14,-22,-24,0
-99,-69,22,80,-61,-19,28,-9,-20,-16,-18,6
-99,-63,28,80,-67,-13,28,-4,-20,-16,-18,6
-93,-69,16,80,-55,-19,28,-4,-32,-22,-18,6
-93,-69,16,80,-55,-19,28,-9,-26,-28,-18,0
-87,-75,10,80,-49,-31,28,-9,-26,-28,-12,0
-87,-75,10,80,-49,-31,28,-9,-20,-28,-12,0
-81,-81,5,80,-37,-37,28,-4,-20,-28,-18,6
-69,-87,-13,74,-25,-49,28,-4,-14,-28,-18,6
-63,-99,-31,80,-13,-67,28,-4,-14,-22,-24,12
-57,-99,-37,74,-8,-67,28,2,-14,-22,-24,12
-63,-105,-37,80,-8,-73,34,8,-8,-22,-18,6
-63,-105,-37,80,-8,-73,34,14,-8,-22,-18,12
-69,-111,-37,86,-13,-73,40,14,-3,-22,-12,6
-69,-105,-31,86,-13,-67,40,14,-3,-22,-12,6
-75,-105,-25,86,-19,-67,40,8,-8,-16,-12,12
-75,-105,-25,86,-19,-67,40,8,-8,-16,-12,12
-81,-111,-25,92,-25,-67,40,8,-20,-10,-12,18
-87,-105,-13,92,-31,-61,40,2,-20,-5,-12,18
-81,-99,-13,86,-31,-55,40,-4,-20,-10,-12,18
-81,-99,-13,86,-31,-55,40,-4,-20,-16,-12,18
-81,-93,-7,86,-31,-49,40,-4,-20,-22,-12,18
-81,-93,-7,86,-31,-49,40,-4,-20,-22,-12,18
-75,-93,-13,80,-25,-55,34,-4,-20,-16,-7,18
-69,-99,-25,80,-19,-61,34,-4,-20,-16,-7,18
-63,-111,-43,86,-8,-79,28,-4,-14,-10,-7,18
-63,-117,-49,86,-8,-85,28,-4,-14,-10,-7,18
-63,-117,-49,86,-8,-85,28,-4,-14,-10,-7,18
-63,-117,-49,86,-8,-85,28,-4,-14,-10,-7,18
-63,-117,-49,86,-8,-85,28,-4,-20,-10,-12,18
-63,-117,-49,86,-8,-85,28,-4,-20,-10,-12,18
-63,-105,-37,80,-8,-73,28,-4,-20,-10,-12,18
-63,-99,-31,80,-13,-67,28,-4,-14,-10,-12,18
-63,-93,-25,74,-13,-61,28,-4,-14,-10,-12,18
-63,-87,-19,74,-19,-55,28,-4,-26,-10,-18,18
-63,-93,-25,74,-13,-61,28,-4,-32,-16,-18,18
-63,-93,-25,74,-13,-61,22,-4,-32,-16,-18,18
-63,-99,-31,80,-13,-67,22,-4,-38,-28,-18,18
-63,-99,-31,80,-13,-67,22,-4,-38,-28,-18,18
-63,-93,-25,74,-13,-61,22,-4,-44,-22,-18,18
-63,-93,-25,74,-13,-61,22,-9,-44,-34,-18,18
-69,-81,-7,74,-25,-43,22,-9,-44,-16,-18,12
-69,-81,-7,74,-25,-43,22,-9,-44,-16,-18,12
-63,-81,-13,68,-19,-49,16,-9,-44,-22,-24,12
-63,-75,-7,68,-25,-43,16,-9,-44,-22,-24,12
-57,-69,-7,62,-19,-37,10,-9,-44,-22,-30,12
-57,-63,-1,56,-25,-31,10,-9,-44,-22,-36,12
-63,-69,-1,62,-25,-37,16,-9,-44,-22,-30,12
-63,-75,-7,68,-25,-43,16,-9,-50,-28,-36,12
-69,-81,-7,74,-25,-43,22,-9,-50,-28,-30,12
-69,-87,-13,74,-25,-49,22,-9,-50,-28,-24,12
-69,-105,-31,86,-13,-67,28,-4,-56,-28,-24,12
-75,-105,-25,86,-19,-67,34,-4,-56,-28,-30,12
-75,-117,-37,92,-13,-79,40,-4,-62,-28,-30,12
-75,-117,-37,92,-13,-79,40,-4,-62,-28,-30,12
-69,-123,-49,92,-8,-85,52,-4,-56,-28,-36,6
-69,-123,-49,92,-8,-85,52,-4,-56,-28,-36,6
-63,-117,-49,86,-8,-85,64,8,-44,-22,-36,6
-63,-123,-55,92,-8,-91,64,14,-44,-22,-36,6
-63,-111,-43,86,-8,-79,58,2,-44,-22,-24,18
-57,-105,-43,80,-8,-73,58,26,-26,-22,-24,18
-51,-117,-61,80,-2,-91,64,32,-26,-16,-18,6
-51,-117,-61,80,-2,-91,58,26,-8,-5,-12,12
-51,-93,-37,68,-8,-67,70,32,3,37,17,36
-39,-99,-55,68,-2,-79,70,44,33,79,47,54
-45,-93,-43,68,-8,-67,76,44,63,115,83,78
-51,-69,-13,56,-13,-43,82,38,81,151,119,108
-39,-27,10,32,-25,-7,100,38,129,217,167,144
-45,3,40,20,-43,16,124,38,177,301,233,192
-63,8,70,20,-67,34,160,56,213,361,275,216
-75,14,94,20,-85,52,184,62,225,385,311,228
-87,38,130,14,-109,82,214,50,243,445,341,246
-129,62,196,26,-163,130,238,50,273,529,401,270
-159,86,250,26,-205,166,256,56,333,625,473,300
-159,116,274,14,-217,196,280,86,405,727,533,336
-147,140,286,-4,-217,214,292,122,465,805,605,384
-129,188,316,-21,-223,250,280,122,483,865,647,396
-117,248,364,-57,-241,304,244,104,495,907,701,438
-63,290,358,-111,-211,322,214,80,495,937,731,480
-4,338,340,-165,-169,340,178,56,465,895,725,510
38,344,298,-195,-127,322,124,38,387,757,641,480
104,332,226,-219,-55,280,46,38,273,589,503,414
146,314,166,-231,-8,244,-2,32,165,397,371,372
182,296,112,-243,28,208,-49,14,45,217,239,306
194,266,70,-231,58,172,-103,2,-74,25,83,222
194,242,40,-219,70,142,-151,-4,-194,-148,-72,132
200,200,5,-201,100,100,-175,-4,-302,-316,-210,60
212,158,-49,-183,130,52,-193,2,-392,-442,-312,-6
224,134,-85,-177,154,22,-187,2,-458,-526,-384,-53
218,122,-91,-171,154,10,-211,-21,-518,-592,-426,-107
176,128,-43,-153,112,40,-229,-81,-596,-640,-456,-131
110,146,28,-129,34,88,-241,-147,-662,-652,-468,-155
20,146,118,-81,-43,136,-217,-129,-662,-640,-462,-149
-9,146,160,-63,-85,154,-187,-75,-614,-586,-420,-143
-27,152,184,-57,-103,166,-181,-51,-554,-526,-384,-131
-39,134,178,-39,-109,154,-163,-21,-512,-490,-372,-119
-69,92,166,-4,-115,130,-133,-4,-452,-454,-342,-119
-75,56,136,2,-103,94,-67,20,-380,-388,-312,-107
-75,8,82,26,-79,40,-7,62,-314,-322,-282,-107
-33,-51,-13,38,-8,-31,16,86,-248,-292,-252,-89
-4,-75,-67,38,22,-73,22,110,-200,-250,-204,-65
-4,-105,-97,50,40,-103,34,146,-140,-208,-168,-65
-9,-147,-133,74,52,-139,46,170,-104,-166,-144,-65
-9,-153,-139,80,58,-145,46,194,-74,-136,-126,-65
-9,-141,-127,74,52,-133,34,194,-50,-106,-96,-53
-9,-129,-115,68,46,-121,34,182,-50,-82,-90,-47
-21,-123,-97,68,28,-109,34,152,-56,-88,-90,-53
-33,-123,-85,74,16,-103,40,128,-62,-88,-90,-53
-45,-123,-73,80,4,-97,40,116,-68,-88,-90,-53
-63,-117,-49,86,-8,-85,40,104,-68,-94,-84,-53
-57,-117,-55,86,-8,-85,28,86,-74,-94,-84,-47
-51,-111,-55,80,-8,-85,16,62,-80,-94,-90,-47
-45,-111,-61,74,-2,-85,4,32,-92,-88,-90,-41
-45,-111,-61,74,-2,-85,4,8,-92,-100,-102,-41
-51,-111,-55,80,-8,-85,-2,8,-104,-106,-96,-41
-57,-111,-49,80,-8,-79,-2,2,-116,-106,-102,-41
-63,-123,-55,92,-8,-91,-2,2,-122,-106,-96,-47
-63,-123,-55,92,-8,-91,-7,2,-128,-106,-90,-47
-57,-117,-55,86,-8,-85,-2,-4,-128,-106,-96,-47
-63,-117,-49,86,-8,-85,-2,-4,-128,-106,-96,-47
-57,-111,-49,80,-8,-79,-2,-4,-128,-106,-102,-47
-57,-111,-49,80,-8,-79,-2,-4,-134,-106,-102,-47
-57,-111,-49,80,-8,-79,-2,-4,-128,-106,-96,-41
-51,-111,-55,80,-8,-85,-2,-4,-128,-106,-96,-41
-39,-105,-61,68,4,-85,-2,-4,-116,-106,-90,-35
-27,-93,-61,56,10,-79,-2,-4,-116,-106,-90,-35
-21,-93,-67,56,16,-79,-2,2,-116,-112,-96,-41
-15,-93,-73,50,22,-85,-2,2,-116,-112,-96,-35
-9,-111,-97,56,34,-103,-2,2,-116,-112,-102,-41
-9,-111,-97,56,34,-103,-2,8,-110,-112,-102,-41
-4,-93,-85,44,34,-91,4,14,-110,-106,-96,-41
-4,-93,-85,44,34,-91,10,20,-110,-106,-96,-41
-4,-87,-79,44,28,-85,16,26,-104,-94,-84,-41
-4,-87,-85,38,34,-85,10,26,-104,-94,-84,-35
-4,-93,-91,44,40,-91,10,20,-110,-100,-84,-35
-4,-99,-97,44,40,-97,10,14,-110,-100,-84,-35
-4,-105,-97,50,40,-103,10,8,-110,-100,-84,-35
-9,-105,-91,56,34,-97,10,2,-110,-94,-78,-35
-9,-105,-91,56,34,-97,10,-4,-110,-100,-84,-35
-9,-105,-91,56,34,-97,16,-4,-110,-100,-84,-35
-9,-105,-91,56,34,-97,10,-4,-110,-106,-90,-35
-9,-105,-91,56,34,-97,4,-4,-104,-106,-90,-35
-4,-99,-91,50,34,-97,4,2,-110,-112,-90,-41
-4,-99,-91,50,34,-97,-2,8,-110,-112,-90,-35
-4,-99,-97,44,40,-97,-2,14,-110,-112,-90,-41
-4,-105,-103,50,46,-103,4,20,-104,-112,-84,-41
2,-105,-115,44,58,-109,4,20,-98,-106,-78,-35
8,-105,-121,38,64,-109,4,20,-98,-106,-78,-35
14,-111,-133,38,70,-121,10,32,-86,-100,-72,-29
20,-117,-145,38,82,-127,10,32,-80,-100,-72,-29
20,-117,-145,38,82,-127,10,26,-86,-100,-78,-29
32,-117,-157,32,94,-133,10,32,-74,-100,-78,-29
32,-117,-157,32,94,-133,4,26,-80,-100,-84,-29
44,-117,-169,26,106,-139,4,38,-74,-100,-84,-29
44,-111,-163,26,100,-133,4,38,-74,-100,-78,-29
44,-117,-169,26,106,-139,4,44,-74,-106,-78,-23
44,-117,-169,26,106,-139,4,44,-74,-112,-78,-23
62,-117,-187,20,124,-151,10,50,-62,-118,-72,-23
62,-123,-193,20,124,-157,10,62,-50,-118,-72,-23
62,-129,-199,26,130,-163,10,68,-44,-112,-66,-23
68,-129,-205,20,136,-163,4,80,-32,-106,-72,-17
68,-129,-205,20,136,-163,4,92,-26,-106,-66,-17
80,-141,-229,20,154,-181,4,98,-20,-106,-66,-23
86,-147,-235,20,160,-193,4,104,-3,-106,-66,-17
110,-147,-259,8,184,-205,10,110,-3,-94,-54,-23
122,-153,-277,8,202,-217,10,122,-3,-94,-54,-23
122,-165,-289,14,208,-229,16,122,3,-94,-54,-23
128,-171,-301,14,214,-229,16,140,15,-88,-42,-17
128,-183,-313,20,220,-241,22,146,27,-88,-36,-11
134,-201,-337,26,232,-265,22,158,39,-88,-24,-11
146,-207,-355,20,244,-277,22,170,51,-88,-24,-11
152,-213,-367,20,256,-283,22,182,63,-82,-18,-11
164,-225,-391,20,274,-301,34,194,87,-76,-12,-6
170,-231,-403,20,280,-313,40,206,105,-58,-7,-6
182,-231,-421,20,298,-325,46,224,123,-46,-7,-6
188,-237,-433,20,304,-331,52,236,141,-34,-7,-6
200,-243,-451,14,322,-343,58,248,147,-22,-1,0
212,-243,-463,8,334,-349,58,260,165,-5,17,6
224,-243,-475,2,346,-355,64,266,189,7,41,18
230,-237,-475,-4,346,-355,76,278,207,19,53,24
236,-231,-475,-4,358,-355,82,290,225,37,65,36
248,-231,-487,-4,370,-361,88,290,237,49,77,42
248,-249,-505,-4,376,-379,94,302,249,73,89,42
248,-267,-523,2,388,-397,100,308,267,79,95,42
248,-279,-535,8,394,-409,106,326,279,97,101,42
254,-291,-553,8,406,-421,124,332,291,121,107,42
254,-279,-541,2,400,-409,136,338,309,145,125,54
260,-267,-535,-4,400,-403,142,344,327,169,143,66
260,-255,-523,-4,394,-391,154,350,345,193,167,78
260,-249,-517,-4,388,-385,154,350,363,205,179,84
260,-249,-517,-4,388,-385,160,350,375,217,191,90
260,-243,-511,-4,388,-379,166,356,381,235,203,96
260,-231,-499,-9,382,-367,178,356,399,247,221,102
260,-231,-499,-9,382,-367,178,356,405,271,233,108
272,-213,-487,-27,382,-349,160,344,405,295,245,120
272,-189,-469,-39,370,-325,136,338,405,307,263,132
272,-183,-463,-39,364,-319,112,320,399,325,269,144
272,-159,-439,-51,352,-295,82,302,399,325,281,156
278,-147,-433,-63,352,-283,58,290,393,337,281,156
278,-141,-427,-63,352,-277,40,272,381,337,287,162
284,-123,-415,-75,346,-265,10,254,369,343,287,156
284,-105,-397,-87,340,-247,-2,230,363,343,287,156
284,-93,-385,-93,334,-235,-2,236,351,343,299,186
260,-93,-361,-81,310,-229,-2,236,345,349,305,186
254,-87,-349,-81,298,-217,-2,236,345,349,305,162
248,-87,-343,-75,292,-217,16,236,345,361,305,162
248,-93,-349,-75,298,-223,16,230,345,367,293,156
242,-87,-337,-75,286,-211,22,224,339,367,293,156
236,-87,-331,-69,280,-211,28,224,333,367,293,156
236,-81,-319,-69,274,-199,34,218,327,367,293,156
230,-81,-313,-69,268,-199,40,218,321,367,293,156
212,-69,-283,-63,244,-175,40,218,303,355,269,156
206,-57,-265,-69,232,-163,40,212,285,337,263,150
194,-51,-247,-63,220,-151,40,206,267,325,251,156
176,-57,-235,-51,208,-145,40,188,249,307,239,150
170,-45,-223,-57,196,-133,40,176,237,301,233,138
164,-33,-205,-57,184,-115,34,164,225,289,227,132
152,-21,-181,-57,166,-97,34,140,207,277,215,120
140,-15,-163,-57,148,-85,34,134,201,259,209,114
134,-9,-151,-57,142,-79,34,122,177,247,191,108
122,-3,-133,-51,124,-67,34,122,165,235,173,102
110,-3,-121,-45,112,-61,34,110,141,217,161,78
104,-3,-115,-45,106,-55,28,98,117,217,143,78
86,3,-91,-39,88,-43,34,92,111,199,131,72
74,8,-73,-33,70,-31,34,86,93,187,113,66
50,8,-49,-21,46,-19,34,86,75,163,95,54
44,8,-37,-21,40,-7,34,74,63,151,83,48
32,8,-31,-15,28,-7,28,62,39,133,65,36
26,3,-31,-9,28,-13,28,50,33,121,59,24
14,-3,-25,-4,16,-13,22,44,21,115,53,18
14,-3,-25,-4,16,-13,22,38,9,91,41,6
14,-3,-25,-4,16,-13,22,32,-3,73,17,0
14,-3,-25,-4,16,-13,22,32,-3,67,11,0
20,-3,-31,-4,22,-13,22,26,-20,55,-1,0
8,-3,-19,-4,10,-7,22,26,-20,37,-7,-6
2,3,-7,-4,4,-1,16,14,-32,19,-7,-6
-4,8,10,-4,-8,10,10,2,-38,19,-12,-6
-9,8,22,-4,-13,16,4,-4,-50,19,-18,-6
-15,20,40,-4,-25,28,4,-4,-56,19,-18,-6
-15,26,46,-4,-31,34,4,-4,-80,7,-30,-11
-15,26,46,-4,-31,34,4,-4,-86,-5,-36,-23
-15,32,52,-4,-31,40,4,-4,-98,-5,-42,-29
-15,32,52,-4,-31,40,4,-4,-104,-5,-48,-35
-15,26,46,-4,-31,34,10,-4,-98,-10,-48,-29
-9,14,28,-4,-19,22,10,-4,-92,-10,-48,-29
-9,8,16,-4,-13,10,16,2,-86,-10,-48,-23
-9,8,10,-4,-13,10,16,2,-86,-10,-48,-23
-9,8,10,-4,-13,10,16,2,-86,-10,-48,-23
-9,8,10,-4,-13,10,16,8,-86,-10,-48,-17
-9,8,10,-4,-13,10,16,2,-86,-10,-48,-17
-9,8,16,-4,-13,10,16,2,-86,-10,-48,-17
-9,8,22,-4,-13,16,16,2,-92,-16,-54,-23
-9,8,22,-4,-13,16,16,2,-92,-16,-60,-29
-9,8,22,-4,-13,16,16,8,-104,-22,-66,-35
-15,14,34,-4,-25,22,16,2,-104,-16,-72,-41
-15,20,40,-4,-25,28,10,2,-98,-10,-66,-35
-15,20,40,-4,-25,28,10,-4,-98,-16,-60,-29
-21,26,52,-4,-37,40,4,2,-92,-10,-54,-23
-21,26,52,-4,-37,40,4,2,-92,-10,-48,-17
-15,26,46,-4,-31,34,4,-4,-98,-10,-48,-17
-9,26,40,-4,-25,34,4,-4,-98,-10,-48,-17
-4,14,22,-4,-13,16,4,-4,-98,-10,-48,-17
-4,14,22,-4,-13,16,4,-4,-98,-10,-48,-17
-9,14,28,-4,-19,22,4,-4,-98,-10,-54,-17
-9,14,28,-4,-19,22,4,-4,-98,-10,-54,-17
-15,14,34,-4,-25,22,4,-4,-104,-10,-60,-17
-15,14,34,-4,-25,22,4,-4,-104,-10,-60,-17
-15,26,46,-4,-31,34,10,-4,-98,-10,-54,-17
-15,26,46,-4,-31,34,10,-4,-92,-10,-54,-17
-15,32,52,-4,-31,40,16,2,-86,-10,-48,-17
-15,32,52,-4,-31,40,16,-4,-98,-10,-54,-17
-9,38,52,-9,-31,46,10,-4,-98,-5,-48,-17
-4,38,46,-9,-25,40,4,-4,-98,-5,-48,-17
-4,44,46,-15,-19,46,-2,-4,-98,-5,-42,-17
-4,44,40,-21,-13,46,-2,-4,-98,-5,-42,-17
-4,50,52,-21,-25,52,-2,-9,-104,-5,-42,-17
-4,50,52,-21,-25,52,-2,-15,-104,-16,-42,-17
-9,62,76,-21,-43,70,-2,-21,-104,-5,-42,-23
-9,62,76,-21,-43,70,-2,-21,-104,-5,-42,-23
-4,62,70,-21,-37,64,-2,-21,-104,-10,-42,-23
-4,62,70,-21,-37,64,-2,-21,-104,-10,-42,-23
-4,68,70,-27,-31,70,-2,-21,-104,-10,-42,-23
-4,68,70,-27,-31,70,-2,-21,-104,-10,-48,-23
-4,68,70,-27,-31,70,-2,-21,-104,-5,-48,-23
-4,68,70,-27,-31,70,-2,-21,-110,-10,-54,-23
-4,68,70,-27,-31,70,-2,-21,-110,-5,-54,-23
-4,68,70,-27,-31,70,-2,-21,-110,-5,-48,-23
-4,56,64,-21,-31,58,-2,-21,-116,-5,-48,-23
-9,56,70,-15,-37,64,-2,-21,-116,-5,-54,-23
-15,50,70,-9,-43,58,-2,-21,-122,-5,-54,-23
-15,50,70,-9,-43,58,-2,-21,-122,-5,-54,-23
-9,38,52,-9,-31,46,-2,-27,-128,-10,-60,-35
-9,38,52,-9,-31,46,-2,-27,-128,-10,-60,-35
-4,38,46,-9,-25,40,4,-27,-128,-10,-60,-41
-4,32,40,-9,-19,34,4,-21,-128,-10,-60,-41
-4,32,28,-15,-8,34,22,-4,-116,-10,-60,-29
-4,26,28,-9,-13,28,10,2,-98,-5,-60,-29
8,26,10,-15,-8,22,16,8,-86,7,-30,-17
8,26,10,-15,-8,22,22,26,-56,43,-7,-11
8,26,10,-15,-8,22,34,32,-20,85,17,0
8,44,28,-27,-8,40,22,20,-3,151,71,42
14,86,64,-51,-19,76,28,20,39,211,131,78
20,134,106,-75,-37,124,34,14,81,289,203,132
8,164,148,-87,-61,160,28,14,117,367,269,180
-4,170,172,-81,-85,172,64,14,141,409,305,204
-15,158,178,-63,-97,166,100,20,153,445,323,216
-27,158,190,-57,-109,172,124,26,165,481,335,216
-63,194,256,-57,-163,226,154,38,201,547,413,246
-81,230,310,-69,-199,268,214,62,261,661,479,282
-87,242,328,-69,-211,280,268,92,333,751,551,312
-75,254,334,-87,-205,292,292,110,381,835,605,336
-75,278,358,-99,-217,316,316,122,405,877,629,348
-69,314,388,-117,-229,352,316,122,429,925,671,384
-21,374,400,-171,-211,388,280,116,441,955,701,438
8,434,418,-225,-199,430,226,92,393,901,689,468
38,446,400,-243,-175,424,166,80,297,751,581,432
86,452,358,-267,-133,406,64,50,189,559,455,384
152,452,292,-297,-67,376,-13,26,87,379,341,342
194,422,226,-303,-8,322,-73,-4,-3,211,197,276
206,380,172,-291,10,274,-145,-21,-122,13,41,192
236,362,118,-297,58,244,-211,-57,-242,-166,-96,102
260,344,76,-303,88,214,-241,-87,-332,-298,-216,36
266,326,52,-297,106,196,-265,-75,-398,-400,-312,-11
266,308,34,-285,112,178,-271,-81,-464,-490,-384,-71
266,308,34,-285,112,178,-301,-117,-548,-586,-444,-125
206,308,100,-255,46,208,-301,-141,-626,-640,-504,-167
116,302,184,-213,-25,250,-271,-141,-668,-664,-522,-203
38,296,250,-171,-103,274,-235,-111,-662,-664,-534,-215
-4,272,268,-135,-133,274,-217,-93,-626,-628,-504,-221
-4,260,262,-129,-133,262,-187,-75,-578,-574,-468,-215
-4,248,250,-117,-127,250,-145,-51,-518,-526,-444,-203
-15,218,238,-93,-127,226,-115,-45,-470,-460,-396,-191
-21,188,214,-75,-115,202,-85,-39,-404,-382,-354,-167
-27,128,160,-45,-91,142,-43,-4,-332,-316,-312,-143
-27,86,118,-21,-73,100,-2,50,-266,-262,-270,-131
-9,44,58,-9,-31,52,4,74,-230,-238,-246,-125
-4,20,28,-4,-13,22,10,86,-188,-196,-216,-113
-4,-21,-25,2,10,-19,34,122,-152,-160,-180,-101
2,-51,-61,14,28,-55,46,134,-116,-130,-156,-89
2,-57,-67,20,34,-61,46,134,-110,-100,-138,-101
14,-45,-67,8,40,-55,34,122,-110,-82,-132,-89
14,-21,-43,-4,28,-31,22,74,-122,-82,-126,-95
8,-15,-31,-4,16,-19,22,50,-122,-82,-120,-89
2,-15,-25,-4,10,-19,28,32,-128,-76,-114,-89
-4,-15,-19,2,4,-13,28,26,-128,-70,-108,-77
-4,-9,-1,2,-8,-7,28,20,-128,-70,-96,-77
-4,-9,-1,2,-8,-7,22,20,-128,-70,-96,-71
-4,-3,-1,-4,-8,-1,10,14,-134,-64,-102,-71
-4,-3,-1,-4,-8,-1,4,2,-140,-58,-102,-65
-4,-3,-1,-4,-8,-1,4,-4,-140,-64,-114,-65
-4,-3,-1,-4,-8,-1,4,-4,-152,-76,-120,-71
-4,-3,5,2,-8,-1,4,-4,-158,-76,-126,-71
-4,-15,-7,8,-8,-13,4,-9,-164,-82,-132,-83
-4,-15,-7,8,-8,-13,4,-9,-164,-82,-126,-83
-4,-21,-13,8,-2,-19,10,-9,-158,-88,-126,-83
-9,-21,-7,14,-8,-13,10,-9,-158,-88,-126,-83
-9,-27,-13,14,-8,-19,16,-15,-152,-94,-126,-83
-9,-27,-13,14,-8,-19,16,-15,-158,-94,-126,-83
-15,-21,-1,14,-8,-13,10,-21,-164,-88,-120,-83
-15,-15,5,14,-8,-7,10,-21,-164,-88,-120,-83
-9,-3,10,2,-8,5,4,-27,-164,-82,-114,-83
-4,8,10,-4,-8,10,10,-27,-164,-82,-114,-83
-4,8,10,-4,-8,10,10,-21,-164,-94,-120,-83
-4,8,10,-4,-8,10,4,-21,-164,-94,-120,-77
-4,-9,-7,2,-2,-7,4,-21,-164,-100,-126,-77
-4,-15,-13,2,-2,-13,10,-15,-158,-100,-126,-77
-4,-9,-13,-4,4,-7,10,-15,-152,-100,-120,-77
-4,-15,-19,2,4,-13,16,-9,-152,-100,-120,-77
-4,-21,-25,2,10,-19,16,-9,-140,-94,-108,-77
2,-27,-37,2,16,-31,10,-9,-140,-94,-108,-71
2,-33,-43,8,22,-37,16,-4,-140,-94,-108,-71
8,-39,-55,8,28,-43,16,-4,-140,-94,-108,-71
2,-45,-55,14,28,-49,22,-4,-134,-88,-108,-71
2,-45,-55,14,28,-49,22,-4,-134,-82,-102,-71
8,-33,-49,2,28,-37,22,-4,-134,-88,-96,-65
8,-27,-43,2,22,-31,22,-4,-134,-88,-96,-65
14,-15,-37,-4,22,-25,16,-9,-134,-94,-90,-59
14,-9,-31,-4,22,-19,4,-9,-128,-94,-90,-59
20,-9,-37,-4,28,-19,10,-4,-122,-94,-90,-53
20,-9,-37,-4,28,-19,10,-4,-122,-94,-90,-47
26,-15,-49,-4,34,-31,16,-4,-110,-88,-90,-41
26,-21,-55,-4,40,-37,28,-4,-104,-88,-84,-41
26,-27,-61,-4,40,-43,22,-4,-110,-88,-84,-47
32,-27,-67,-4,46,-43,22,-4,-110,-88,-84,-47
26,-39,-73,-4,46,-55,22,-4,-110,-88,-84,-53
32,-45,-85,-4,58,-61,22,-4,-104,-88,-84,-53
32,-57,-97,2,64,-73,28,-4,-98,-88,-84,-53
44,-57,-109,-4,76,-79,34,2,-86,-88,-84,-53
44,-69,-121,2,82,-91,34,2,-80,-88,-84,-53
56,-69,-133,-4,94,-97,40,14,-74,-88,-84,-53
62,-69,-139,-4,100,-103,40,20,-68,-82,-78,-53
62,-75,-145,-4,100,-109,40,26,-68,-82,-78,-47
68,-81,-157,-4,112,-115,40,32,-62,-82,-78,-47
86,-81,-175,-4,130,-127,46,38,-50,-82,-72,-47
92,-81,-181,-4,136,-127,46,44,-38,-88,-66,-41
98,-87,-193,-4,142,-139,46,50,-32,-82,-60,-41
110,-81,-199,-9,154,-139,40,56,-20,-82,-60,-29
116,-81,-205,-9,160,-139,40,68,-14,-82,-54,-29
122,-87,-217,-9,166,-151,46,74,-3,-70,-48,-29
122,-93,-223,-9,172,-157,46,80,9,-70,-48,-23
140,-87,-229,-21,184,-157,58,86,21,-46,-30,-23
146,-93,-241,-21,196,-169,58,98,33,-46,-30,-23
152,-99,-253,-21,202,-175,64,104,39,-34,-24,-17
158,-105,-265,-21,214,-187,64,122,51,-28,-12,-11
164,-111,-277,-21,220,-193,70,134,63,-16,-7,-6
170,-129,-301,-15,232,-217,70,146,75,-16,-1,-6
182,-129,-313,-21,244,-223,70,152,93,-10,5,-6
194,-135,-331,-21,256,-229,70,158,105,-5,11,-6
206,-141,-349,-27,274,-241,82,164,135,-5,23,6
218,-147,-367,-27,286,-253,88,170,153,13,29,6
218,-147,-367,-27,286,-253,94,182,177,31,41,12
224,-153,-379,-27,298,-259,100,194,195,43,53,24
224,-153,-379,-27,298,-259,106,206,207,61,71,36
236,-153,-391,-33,310,-265,106,218,225,85,89,42
236,-171,-409,-27,316,-283,112,230,237,103,107,42
236,-177,-421,-27,328,-295,124,242,255,115,119,48
236,-189,-433,-21,334,-307,130,260,267,133,125,48
248,-201,-457,-21,352,-325,136,266,285,145,137,54
254,-213,-475,-15,364,-337,142,266,309,169,149,60
254,-225,-481,-9,370,-349,148,272,327,175,155,66
260,-231,-493,-9,376,-361,154,278,351,193,161,72
266,-231,-505,-9,388,-367,172,284,363,217,167,78
260,-231,-493,-9,376,-361,172,290,369,235,185,84
266,-225,-493,-15,382,-355,178,296,381,247,197,96
260,-219,-481,-15,370,-349,178,302,387,265,221,102
260,-219,-481,-15,370,-349,178,302,399,271,227,108
260,-213,-475,-21,370,-343,184,302,399,277,233,108
260,-207,-475,-21,364,-337,196,308,405,289,239,108
260,-189,-457,-33,358,-319,208,308,411,301,251,108
260,-189,-457,-33,358,-319,214,308,417,319,263,108
260,-177,-445,-39,352,-307,220,308,429,337,269,120
260,-165,-433,-45,346,-295,214,308,429,349,287,126
248,-171,-427,-33,334,-295,214,302,435,361,281,138
248,-159,-415,-39,328,-283,202,290,435,361,293,144
248,-135,-391,-51,316,-259,184,278,429,379,293,150
248,-117,-373,-63,310,-241,172,260,417,379,299,156
248,-87,-343,-75,292,-217,148,242,405,391,299,156
248,-57,-313,-93,280,-187,136,218,399,391,299,156
242,-51,-301,-93,268,-175,112,200,387,385,299,162
242,-39,-289,-99,262,-163,88,188,375,385,305,162
242,-27,-277,-105,256,-151,70,170,351,379,305,162
236,-27,-271,-99,250,-151,52,164,345,373,305,162
230,-33,-265,-93,244,-151,58,158,327,367,293,162
224,-27,-253,-93,232,-139,58,152,321,367,287,162
206,-27,-235,-81,220,-133,64,140,309,361,275,162
200,-33,-235,-75,220,-133,64,128,291,355,269,150
188,-27,-223,-75,202,-121,70,128,291,343,263,144
176,-21,-205,-69,190,-109,76,128,279,331,257,138
158,-15,-181,-63,166,-97,88,128,273,325,251,132
146,-15,-169,-57,154,-91,88,128,261,319,239,126
140,8,-139,-69,136,-61,106,128,255,313,233,126
128,8,-115,-69,124,-43,118,116,237,295,221,120
122,14,-103,-69,112,-37,106,98,219,283,209,114
110,26,-79,-69,94,-19,100,86,195,271,191,108
104,32,-67,-69,88,-7,94,74,183,253,179,102
104,32,-67,-69,88,-7,94,62,177,241,173,96
98,38,-55,-69,76,-1,88,50,165,229,161,90
98,38,-55,-69,76,-1,88,38,159,217,155,84
80,44,-31,-63,58,10,88,38,129,199,125,72
74,50,-19,-63,46,10,88,32,111,175,113,60
62,50,-7,-57,34,16,88,26,81,157,95,54
44,38,-1,-39,22,16,88,8,63,133,77,42
38,38,5,-39,16,16,88,8,57,121,59,30
32,44,10,-39,10,28,82,2,39,109,53,24
20,44,16,-33,-2,34,82,-4,27,91,35,12
8,44,28,-27,-8,40,82,-4,21,73,29,6
8,44,28,-27,-8,40,82,-9,9,67,17,6
-4,50,46,-21,-19,52,82,-9,3,55,5,0
-4,44,46,-15,-19,46,82,-21,-3,37,-1,-6
-4,44,52,-15,-25,46,76,-33,-14,37,-7,-6
-9,38,52,-9,-31,46,82,-39,-14,25,-7,-11
-15,38,58,-4,-37,46,82,-39,-32,13,-18,-17
-27,26,58,-4,-43,40,82,-39,-44,-5,-24,-29
-27,26,58,-4,-43,40,82,-45,-56,-5,-36,-35
-33,32,70,-4,-49,52,82,-51,-68,-10,-48,-35
-39,26,70,-4,-55,46,82,-57,-68,-16,-48,-35
-45,32,82,-4,-61,58,82,-57,-68,-10,-48,-29
-45,32,82,-4,-61,58,82,-57,-74,-28,-54,-29
-45,32,82,-4,-61,58,82,-57,-74,-34,-66,-41
-45,32,82,-4,-61,58,82,-57,-80,-34,-72,-41
-39,32,76,-4,-55,52,82,-57,-86,-34,-72,-47
-51,32,88,2,-67,58,82,-57,-80,-46,-78,-59
-45,26,76,2,-61,52,88,-57,-74,-58,-78,-59
-39,26,70,-4,-55,46,88,-63,-74,-52,-78,-53
-45,20,70,2,-55,46,94,-57,-68,-46,-72,-47
-39,20,64,2,-49,40,100,-51,-68,-40,-66,-41
-33,26,64,-4,-49,46,94,-45,-74,-40,-66,-35
-27,26,58,-4,-43,40,94,-51,-68,-40,-60,-35
-21,32,58,-4,-37,46,88,-45,-62,-34,-54,-29
-15,32,52,-4,-31,40,88,-45,-56,-28,-48,-23
-15,32,52,-4,-31,40,94,-39,-50,-28,-48,-23
-9,26,40,-4,-25,34,94,-39,-44,-28,-48,-23
-9,20,34,-4,-19,28,100,-33,-38,-22,-48,-23
-9,20,34,-4,-19,28,100,-33,-38,-22,-48,-23
-15,20,40,-4,-25,28,106,-33,-44,-22,-54,-29
-21,20,46,-4,-31,34,106,-27,-44,-22,-54,-23
-27,20,52,-4,-37,34,112,-33,-50,-22,-60,-29
-33,26,64,-4,-49,46,112,-33,-50,-22,-60,-29
-27,26,58,-4,-43,40,106,-45,-50,-22,-54,-29
-27,26,58,-4,-43,40,106,-45,-50,-22,-54,-29
-21,20,46,-4,-31,34,100,-51,-56,-22,-48,-29
-27,26,58,-4,-43,40,100,-57,-56,-16,-48,-29
-21,32,58,-4,-37,46,94,-63,-62,-16,-42,-23
-21,38,64,-4,-43,52,94,-69,-62,-22,-42,-23
-21,44,70,-4,-43,58,88,-69,-68,-22,-36,-17
-21,50,76,-9,-49,64,88,-69,-68,-22,-36,-17
-21,56,82,-9,-49,70,94,-63,-68,-16,-42,-17
-15,56,76,-15,-43,64,94,-63,-68,-16,-42,-17
-15,50,70,-9,-43,58,100,-63,-62,-10,-48,-17
-15,50,70,-9,-43,58,100,-63,-62,-10,-48,-17
-15,50,70,-9,-43,58,100,-69,-56,-10,-48,-17
-15,50,70,-9,-43,58,100,-69,-56,-10,-48,-17
-15,50,70,-9,-43,58,100,-69,-56,-10,-48,-17
-15,50,70,-9,-43,58,100,-69,-56,-10,-48,-17
-21,56,82,-9,-49,70,100,-75,-62,-16,-48,-17
-21,56,82,-9,-49,70,100,-75,-56,-16,-48,-17
-27,56,88,-9,-55,70,100,-81,-62,-22,-48,-17
-27,56,88,-9,-55,70,100,-87,-74,-22,-54,-17
-27,62,94,-9,-61,76,94,-87,-74,-22,-54,-17
-27,68,100,-15,-61,82,88,-87,-74,-22,-54,-17
-27,74,106,-15,-67,88,82,-87,-74,-28,-54,-17
-27,80,112,-21,-67,94,82,-87,-74,-28,-54,-17
-27,74,106,-15,-67,88,88,-87,-80,-28,-54,-11
-27,68,100,-15,-61,82,88,-93,-80,-40,-54,-11
-33,68,106,-9,-67,88,94,-93,-80,-28,-54,-11
-33,62,100,-9,-67,82,94,-93,-80,-28,-54,-11
-33,56,94,-4,-61,76,100,-87,-80,-28,-54,-11
-33,56,94,-4,-61,76,100,-87,-80,-28,-54,-11
-33,56,94,-4,-61,76,106,-81,-80,-22,-54,-11
-33,56,94,-4,-61,76,106,-81,-80,-22,-60,-11
-33,50,88,-4,-61,70,106,-81,-80,-28,-54,-11
-33,50,88,-4,-61,70,106,-81,-86,-34,-60,-11
-33,44,82,-4,-55,64,106,-81,-86,-40,-54,-11
-33,44,82,-4,-55,64,106,-81,-86,-40,-48,-11
-33,32,70,-4,-49,52,112,-81,-86,-40,-54,-17
-39,32,76,-4,-55,52,124,-81,-86,-40,-60,-17
-39,26,70,-4,-55,46,130,-81,-86,-40,-66,-23
-39,26,70,-4,-55,46,136,-81,-86,-40,-66,-23
-33,14,52,2,-43,34,148,-75,-86,-40,-66,-23
-33,14,52,2,-43,34,148,-75,-86,-40,-66,-23
-27,14,46,-4,-37,28,160,-63,-80,-34,-60,-17
-27,8,40,2,-31,22,160,-57,-80,-34,-60,-17
-27,8,40,2,-31,22,166,-45,-56,-22,-48,-17
-21,8,28,2,-25,16,166,-45,-38,-5,-36,-17
-27,14,46,-4,-37,28,184,-27,-3,19,-7,-6
-15,14,34,-4,-25,22,190,-21,3,55,11,0
-15,14,34,-4,-25,22,190,-15,39,97,41,12
-15,44,64,-9,-37,52,202,-15,81,163,95,42
-21,74,100,-21,-61,88,232,-4,135,253,167,90
-15,98,118,-33,-67,106,256,2,201,337,227,144
-27,128,160,-45,-91,142,298,26,243,403,269,180
-45,146,196,-45,-121,172,334,26,255,445,293,192
-63,158,226,-39,-145,190,358,32,267,481,311,204
-87,182,268,-39,-181,226,370,38,279,523,359,216
-111,218,328,-45,-223,268,388,38,303,583,389,216
-141,230,370,-39,-253,298,400,50,321,637,425,228
-135,242,376,-45,-253,304,388,44,333,685,461,240
-135,266,406,-63,-265,334,364,50,345,751,497,264
-111,302,418,-93,-259,358,352,50,381,805,545,300
-69,362,436,-141,-247,400,328,50,405,877,623,360
-9,410,424,-195,-217,418,244,32,393,871,641,414
20,422,394,-225,-181,412,178,8,309,745,581,408
74,434,352,-249,-133,394,118,-4,219,577,479,372
122,440,310,-279,-91,376,76,-9,129,397,359,336
176,440,256,-303,-37,352,10,-33,27,217,245,306
206,434,226,-315,-8,328,-49,-63,-86,31,113,252
236,428,184,-333,22,304,-85,-81,-206,-154,-30,192
248,410,154,-327,46,280,-115,-105,-332,-352,-180,114
248,392,136,-321,52,262,-163,-147,-488,-568,-330,24
242,362,112,-303,64,244,-235,-219,-656,-736,-456,-47
236,344,106,-285,58,232,-271,-291,-776,-850,-534,-107
212,320,106,-261,46,220,-289,-327,-830,-892,-582,-173
170,296,124,-237,16,214,-265,-327,-812,-898,-612,-191
104,290,184,-201,-31,244,-229,-291,-746,-838,-582,-191
38,272,232,-159,-91,250,-163,-243,-650,-742,-522,-167
-4,248,250,-123,-121,250,-121,-213,-566,-640,-474,-149
-9,242,250,-111,-133,250,-103,-207,-506,-562,-420,-131
-27,236,262,-99,-145,250,-73,-183,-464,-502,-384,-131
-51,194,250,-63,-151,220,-31,-165,-434,-460,-360,-143
-45,140,190,-39,-115,166,-2,-123,-380,-430,-342,-143
-39,80,124,-15,-79,100,16,-87,-320,-376,-300,-131
-39,38,82,-4,-61,58,40,-57,-266,-322,-258,-119
-33,20,58,-4,-43,40,40,-45,-230,-280,-222,-89
-15,8,16,2,-19,10,46,-33,-188,-244,-192,-77
-27,-21,10,20,-13,-7,70,-21,-164,-208,-168,-89
-33,-39,-1,32,-13,-19,82,-9,-140,-178,-156,-101
-21,-33,-7,26,-8,-19,82,-9,-134,-160,-150,-89
-21,-33,-7,26,-8,-19,82,-9,-122,-142,-144,-77
-33,-33,5,32,-13,-13,94,-21,-122,-118,-126,-71
-39,-33,10,32,-19,-13,100,-33,-110,-112,-120,-71
-45,-39,10,38,-25,-13,106,-45,-110,-106,-114,-71
-51,-45,10,44,-25,-19,112,-39,-98,-94,-108,-65
-63,-45,10,50,-37,-13,112,-39,-92,-94,-96,-65
-57,-45,10,50,-31,-13,100,-39,-92,-100,-102,-71
-51,-39,10,44,-31,-13,88,-45,-98,-100,-108,-71
-45,-39,10,38,-25,-13,76,-57,-104,-100,-114,-77
-45,-39,10,38,-25,-13,76,-63,-104,-112,-126,-77
-51,-45,10,44,-25,-19,76,-57,-116,-124,-126,-77
-57,-45,10,50,-31,-13,76,-63,-128,-124,-132,-77
-63,-63,5,62,-31,-31,76,-57,-134,-130,-132,-83
-63,-63,5,62,-31,-31,76,-57,-140,-130,-126,-83
-57,-57,5,56,-25,-25,76,-51,-134,-124,-126,-83
-63,-57,10,56,-31,-25,76,-51,-128,-124,-126,-83
-57,-51,10,50,-31,-19,76,-51,-122,-118,-126,-83
-57,-51,10,50,-31,-19,76,-51,-122,-118,-126,-83
-57,-51,10,50,-31,-19,70,-51,-116,-118,-126,-77
-51,-57,-1,50,-19,-31,70,-51,-116,-118,-126,-77
-39,-51,-7,44,-13,-31,64,-51,-104,-118,-126,-71
-27,-45,-13,32,-8,-31,70,-51,-104,-118,-126,-71
-27,-39,-7,32,-8,-25,64,-45,-104,-124,-120,-71
-21,-39,-13,26,-8,-25,58,-45,-104,-124,-120,-65
-21,-51,-25,32,-8,-37,52,-45,-104,-124,-114,-65
-21,-51,-25,32,-8,-37,58,-39,-98,-124,-114,-65
-21,-45,-19,32,-8,-31,52,-39,-104,-124,-120,-71
-21,-45,-19,32,-8,-31,58,-33,-104,-124,-120,-71
-27,-51,-19,38,-8,-37,52,-33,-104,-118,-120,-77
-21,-51,-25,32,-8,-37,46,-33,-104,-118,-120,-71
-21,-45,-19,32,-8,-31,46,-39,-104,-124,-120,-71
-15,-51,-31,32,-2,-43,46,-45,-104,-124,-120,-71
-21,-45,-19,32,-8,-31,46,-51,-98,-124,-120,-71
-21,-45,-19,32,-8,-31,46,-57,-98,-118,-114,-71
-21,-51,-25,32,-8,-37,46,-57,-92,-124,-108,-71
-21,-51,-25,32,-8,-37,46,-57,-92,-124,-108,-71
-21,-57,-31,38,-2,-43,40,-57,-86,-130,-102,-71
-21,-57,-31,38,-2,-43,28,-57,-80,-130,-102,-71
-15,-63,-43,38,4,-55,34,-45,-80,-136,-102,-71
-15,-63,-43,38,4,-55,28,-45,-80,-136,-102,-65
-9,-75,-61,38,16,-67,34,-39,-74,-136,-102,-65
-9,-81,-67,44,22,-73,40,-39,-68,-136,-96,-65
-4,-81,-73,38,28,-79,34,-39,-68,-130,-102,-65
-4,-81,-79,38,34,-79,34,-39,-68,-130,-102,-65
-4,-87,-85,38,34,-85,34,-27,-62,-124,-108,-65
-4,-93,-97,38,46,-91,34,-27,-56,-124,-108,-65
-4,-93,-97,38,46,-91,28,-27,-62,-130,-102,-65
8,-93,-109,32,58,-97,28,-21,-50,-130,-102,-65
8,-93,-109,32,58,-97,16,-21,-56,-136,-96,-65
20,-93,-121,26,70,-103,16,-9,-50,-136,-96,-65
20,-99,-127,32,70,-109,22,-4,-44,-130,-96,-65
20,-105,-133,32,76,-115,22,-4,-44,-130,-96,-59
20,-117,-145,38,82,-127,28,-4,-38,-130,-102,-59
38,-117,-163,32,100,-139,34,2,-26,-130,-96,-59
38,-123,-169,32,100,-145,34,8,-14,-136,-96,-59
44,-129,-181,32,112,-151,28,14,-8,-130,-90,-59
50,-129,-187,32,118,-157,22,20,-3,-130,-96,-53
56,-129,-193,26,124,-157,16,32,-3,-130,-90,-53
56,-141,-205,32,130,-169,16,38,3,-124,-84,-53
56,-147,-211,38,130,-175,16,44,21,-124,-84,-47
68,-147,-223,32,142,-181,22,50,21,-106,-66,-47
74,-153,-229,32,154,-193,22,62,33,-106,-66,-47
80,-165,-247,32,166,-205,28,74,51,-94,-66,-53
86,-171,-259,32,172,-217,28,92,63,-88,-54,-47
92,-183,-277,38,184,-229,34,110,87,-76,-48,-47
98,-201,-301,44,202,-247,34,122,99,-76,-36,-47
98,-207,-307,44,202,-253,40,134,117,-64,-30,-41
104,-219,-325,50,214,-265,46,146,129,-58,-24,-41
104,-231,-337,56,220,-277,64,158,159,-40,-12,-29
110,-237,-355,56,232,-295,76,170,177,-22,-7,-29
116,-243,-367,56,238,-301,76,182,201,-5,-7,-23
122,-249,-379,56,244,-313,82,194,219,-5,5,-11
128,-255,-391,56,256,-319,82,206,231,13,23,-6
140,-255,-403,50,268,-325,82,218,243,37,41,-6
152,-255,-415,44,280,-331,82,224,267,55,59,-6
158,-249,-415,38,280,-331,94,236,285,67,71,0
170,-243,-421,32,292,-331,94,242,303,85,77,0
182,-243,-433,26,304,-337,100,242,321,97,89,6
182,-255,-445,32,310,-349,106,248,333,121,107,12
176,-267,-451,38,310,-355,112,254,351,127,119,18
176,-273,-457,44,310,-361,118,266,363,145,131,24
176,-279,-463,44,316,-367,136,272,375,169,143,30
176,-273,-457,44,310,-361,148,278,393,199,155,36
182,-267,-457,38,316,-361,160,284,405,223,167,48
182,-261,-451,32,310,-355,172,290,423,247,185,54
182,-261,-451,32,310,-355,178,290,435,259,191,60
182,-243,-433,26,304,-337,166,278,435,265,203,66
182,-231,-415,14,292,-319,160,278,435,277,215,72
182,-201,-385,2,280,-289,154,266,441,289,233,78
182,-189,-373,-4,274,-277,142,260,441,307,239,84
188,-165,-355,-4,268,-253,106,242,441,319,245,96
188,-147,-337,-15,256,-235,70,230,435,325,263,108
182,-141,-325,-15,250,-229,28,206,429,331,257,120
182,-123,-307,-21,238,-217,-2,176,423,325,269,132
182,-117,-301,-27,238,-211,-7,176,423,343,275,132
182,-117,-301,-27,238,-211,-13,170,411,343,281,132
182,-105,-289,-33,232,-199,-25,164,405,355,287,126
182,-93,-277,-39,232,-187,-31,146,399,355,287,120
170,-99,-271,-27,220,-187,-19,152,405,355,287,126
170,-87,-259,-33,214,-175,-13,158,399,361,293,126
164,-87,-253,-33,208,-169,-2,164,393,361,293,126
158,-87,-247,-27,202,-169,4,176,393,361,293,126
140,-87,-229,-21,184,-157,28,176,405,373,287,138
134,-81,-223,-21,178,-151,28,170,393,367,293,132
122,-69,-199,-21,160,-133,28,158,381,361,287,126
116,-63,-187,-21,148,-121,28,152,375,361,281,126
104,-51,-163,-21,130,-103,28,140,363,355,275,120
98,-45,-151,-21,124,-97,28,134,357,355,269,120
80,-33,-121,-15,100,-73,22,122,321,337,245,108
74,-27,-109,-15,88,-67,22,110,297,319,233,102
62,-21,-91,-15,76,-55,16,92,261,301,227,96
44,-33,-85,-4,64,-55,16,68,237,283,209,90
32,-33,-73,-4,52,-49,10,62,231,265,191,78
26,-27,-61,-4,40,-43,4,56,213,247,179,72
8,-27,-43,2,22,-31,-2,38,195,229,161,60
-4,-27,-31,8,10,-25,-2,38,189,205,149,54
-4,-21,-19,8,4,-19,-2,20,159,187,131,48
-9,-15,-1,8,-8,-7,-2,20,147,169,113,42
-21,-15,10,14,-13,-1,-2,2,117,139,101,18
-27,-15,10,20,-19,-1,-2,-4,93,133,83,18
-33,-9,16,20,-25,10,-2,-9,87,115,71,12
-39,-9,22,20,-31,10,-2,-15,69,103,53,6
-51,-9,34,26,-43,10,-13,-21,51,79,35,-6
-51,-9,34,26,-43,10,-13,-33,39,67,23,-6
-57,-3,46,26,-55,16,-13,-39,15,49,5,-6
-63,-9,46,32,-55,10,-13,-45,9,43,5,-11
-69,-3,58,32,-67,22,-13,-45,-3,37,-1,-11
-69,-3,58,32,-67,22,-13,-45,-3,19,-7,-17
-81,-9,64,44,-73,22,-13,-57,-14,7,-12,-29
-81,-9,64,44,-73,22,-13,-63,-26,7,-18,-29
-87,-15,64,50,-79,16,-13,-75,-44,1,-24,-35
-99,-15,76,56,-91,22,-13,-81,-44,-5,-30,-47
-99,-21,70,56,-85,16,-13,-87,-50,-22,-42,-53
-99,-15,76,56,-91,22,-19,-93,-50,-22,-48,-53
-111,-21,82,62,-97,22,-19,-93,-56,-28,-54,-53
-111,-15,88,62,-103,28,-19,-87,-56,-28,-54,-53
-111,-21,82,62,-97,22,-19,-93,-74,-40,-66,-53
-111,-21,82,62,-97,22,-19,-99,-74,-46,-66,-59
-111,-27,76,68,-97,16,-19,-105,-80,-52,-72,-59
-111,-27,76,68,-97,16,-19,-105,-80,-52,-72,-59
-105,-21,76,62,-91,22,-19,-99,-80,-58,-72,-59
-99,-21,70,56,-85,16,-19,-99,-74,-58,-72,-59
-93,-21,64,56,-79,16,-19,-93,-74,-58,-72,-59
-93,-15,70,50,-85,22,-19,-93,-74,-58,-72,-59
-93,-21,64,56,-79,16,-13,-87,-74,-58,-72,-65
-93,-21,64,56,-79,16,-13,-81,-74,-58,-72,-59
-93,-27,58,56,-79,10,-7,-81,-74,-58,-72,-65
-93,-21,64,56,-79,16,-7,-81,-74,-58,-72,-65
-99,-21,70,56,-85,16,-7,-87,-80,-58,-72,-65
