,,,,,,,,,,,
2019-09-04 23:13:55,,,,,,,,,,,
,,,,,,,,,,,
I,II,III,aVR,aVL,aVF,V1,V2,V3,V4,V5,V6
-125,-75,19,97,-66,1,350,282,354,1,-11,-15
-131,-93,25,115,-78,-5,248,186,156,-22,-59,-57
-131,-99,25,121,-78,-11,206,144,108,-46,-83,-81
-131,-105,19,121,-78,-23,176,120,78,-58,-95,-93
-131,-111,19,121,-78,-23,164,114,72,-64,-107,-105
-137,-117,19,121,-78,-23,158,114,72,-70,-113,-111
-137,-123,13,127,-78,-29,158,114,72,-70,-113,-111
-137,-129,7,127,-78,-35,152,114,66,-76,-119,-117
-137,-129,7,127,-78,-35,152,114,66,-82,-119,-117
-137,-129,7,127,-78,-35,152,114,66,-82,-119,-117
-137,-129,7,127,-78,-35,152,108,60,-82,-119,-117
-137,-129,7,127,-78,-35,152,102,60,-82,-119,-117
-131,-129,7,127,-72,-35,152,102,54,-82,-119,-117
-125,-129,1,127,-66,-35,152,102,54,-82,-119,-117
-125,-129,1,127,-60,-35,152,102,54,-82,-119,-117
-119,-129,-5,127,-54,-35,146,102,54,-88,-125,-117
-119,-129,-5,127,-54,-35,146,102,54,-88,-131,-117
-125,-129,-5,127,-54,-35,146,102,54,-88,-131,-117
-125,-129,-5,127,-60,-35,146,102,54,-88,-131,-117
-125,-129,-5,127,-60,-35,146,102,54,-88,-131,-117
-125,-129,-5,127,-60,-35,146,102,54,-88,-131,-117
-125,-129,-5,127,-60,-35,146,102,54,-88,-131,-117
-125,-129,-5,127,-60,-35,146,102,48,-88,-131,-117
-125,-129,1,127,-60,-35,146,102,48,-88,-131,-117
-131,-129,7,127,-66,-35,146,102,48,-88,-131,-117
-131,-129,7,127,-66,-35,146,102,54,-88,-131,-117
-131,-129,7,127,-66,-35,146,102,54,-88,-131,-117
-125,-123,7,121,-66,-35,146,102,54,-88,-131,-117
-125,-123,7,121,-66,-35,146,102,54,-88,-131,-117
-125,-123,7,121,-66,-35,146,108,54,-88,-131,-117
-125,-123,7,121,-66,-35,146,108,54,-82,-131,-117
-125,-117,7,121,-66,-35,146,108,60,-76,-131,-117
-125,-105,19,121,-66,-29,140,108,66,-70,-131,-117
-125,-99,31,115,-72,-17,134,108,72,-64,-125,-111
-125,-93,43,115,-78,-11,128,108,84,-58,-113,-99
-125,-87,43,109,-78,-5,122,108,96,-52,-107,-93
-113,-81,43,97,-78,-5,116,108,108,-46,-101,-87
-101,-63,43,85,-78,1,104,102,120,-40,-95,-87
-95,-51,43,73,-78,12,92,96,132,-34,-89,-87
-89,-45,43,67,-72,12,86,96,138,-28,-89,-87
-83,-39,37,61,-60,12,80,96,144,-22,-89,-87
-71,-39,25,55,-48,12,80,96,150,-16,-89,-87
-59,-39,13,49,-36,12,80,102,156,-10,-89,-81
-53,-39,13,49,-36,12,80,108,156,-4,-83,-75
-47,-39,13,49,-36,12,80,114,156,-4,-77,-69
-47,-39,13,43,-36,12,74,114,156,-4,-77,-63
-47,-39,7,43,-36,12,68,114,144,-4,-77,-63
-47,-39,7,43,-36,12,62,102,132,-4,-71,-57
-47,-33,7,43,-36,12,50,78,120,1,-65,-51
-47,-27,7,37,-30,12,38,60,102,1,-65,-51
-35,-27,1,31,-18,12,26,30,84,1,-65,-51
-23,-27,-5,25,-6,12,20,18,66,-4,-65,-51
-23,-27,-5,25,-6,12,20,12,54,-16,-65,-57
-23,-27,-10,25,-6,12,20,12,42,-22,-71,-63
-17,-27,-22,25,-1,1,20,12,36,-28,-83,-63
-5,-33,-40,25,11,-11,20,12,30,-40,-89,-69
6,-39,-52,25,23,-23,20,12,24,-52,-95,-75
6,-45,-58,25,23,-29,26,12,24,-58,-101,-81
0,-57,-58,31,23,-35,38,24,24,-58,-101,-81
-5,-69,-58,37,23,-41,50,36,24,-64,-101,-87
-11,-81,-58,43,23,-47,62,42,24,-64,-101,-87
-11,-81,-58,43,23,-53,68,42,24,-64,-107,-87
-11,-81,-58,43,23,-53,68,42,24,-64,-113,-93
-11,-81,-58,43,23,-53,74,42,30,-64,-113,-93
-23,-81,-58,49,17,-53,80,48,42,-64,-113,-93
-41,-87,-52,61,5,-53,86,60,72,-64,-113,-93
-53,-93,-46,73,-6,-53,98,78,96,-64,-113,-93
-65,-99,-46,79,-12,-53,110,96,114,-64,-113,-93
-71,-105,-40,85,-18,-53,122,108,126,-64,-113,-93
-77,-111,-40,91,-24,-53,128,120,132,-64,-113,-93
-83,-117,-34,97,-24,-53,134,132,144,-64,-113,-93
-89,-123,-34,103,-24,-53,134,138,174,-58,-113,-93
-89,-129,-34,109,-24,-53,134,150,216,-52,-113,-93
-95,-129,-28,115,-30,-53,140,156,276,-40,-113,-93
-95,-129,-28,115,-36,-53,140,162,330,-34,-113,-93
-95,-129,-28,115,-36,-53,140,162,384,-28,-107,-93
-89,-123,-28,109,-36,-53,134,168,474,-10,-95,-93
-83,-111,-28,97,-30,-53,122,168,570,19,-83,-87
-65,-93,-28,73,-24,-47,110,174,624,49,-71,-81
-59,-75,-22,61,-24,-35,98,180,654,79,-47,-69
-59,-51,-10,55,-30,-5,92,186,690,115,-29,-57
-53,-33,1,43,-30,6,86,198,702,145,-11,-51
-41,-21,7,31,-30,12,74,204,690,169,0,-45
-17,8,7,7,-24,24,62,204,618,187,12,-39
6,38,13,-22,-18,36,32,204,468,205,24,-27
18,62,25,-40,-18,48,2,198,306,217,36,-15
30,86,25,-64,-12,60,-33,186,120,223,48,-4
60,98,25,-76,-1,60,-63,168,-113,223,54,8
72,104,25,-88,11,66,-93,132,-305,223,60,20
84,116,25,-100,17,78,-123,90,-473,223,72,32
126,140,25,-130,41,90,-171,48,-641,223,84,44
186,158,7,-172,89,90,-225,-5,-773,223,96,50
228,176,-10,-202,131,90,-261,-41,-881,223,108,62
258,206,-16,-232,149,96,-291,-65,-935,223,114,68
288,236,-22,-262,161,102,-321,-71,-983,211,114,74
330,248,-46,-292,191,102,-339,-77,-1085,169,114,80
396,260,-94,-334,239,102,-399,-113,-1271,103,114,92
492,302,-154,-400,317,102,-489,-221,-1499,55,126,128
606,350,-208,-478,389,102,-609,-383,-1727,13,174,206
726,410,-274,-568,485,102,-735,-563,-1967,-10,282,308
870,470,-346,-670,611,96,-885,-743,-2219,-40,378,422
1032,518,-466,-790,755,84,-1023,-911,-2464,-100,498,536
1218,584,-586,-892,911,66,-1155,-1079,-2692,-142,618,662
1386,650,-682,-1018,1043,54,-1299,-1229,-2854,-160,774,806
1506,734,-724,-1120,1109,54,-1419,-1355,-2926,-160,930,950
1560,806,-730,-1186,1139,60,-1485,-1433,-2926,-148,1068,1082
1590,866,-730,-1228,1145,84,-1527,-1475,-2902,-106,1188,1178
1596,896,-706,-1240,1145,114,-1539,-1493,-2770,-52,1242,1220
1572,896,-670,-1240,1115,126,-1539,-1493,-2620,-22,1248,1232
1482,884,-634,-1198,1049,126,-1491,-1469,-2428,-22,1236,1226
1350,776,-616,-1066,989,120,-1335,-1355,-2243,-58,1062,1112
1158,566,-610,-862,905,36,-1107,-1163,-2027,-226,756,878
936,326,-610,-634,803,-89,-879,-929,-1769,-394,420,620
750,152,-610,-448,713,-173,-681,-749,-1523,-484,174,416
624,56,-598,-328,629,-209,-567,-641,-1301,-526,6,272
528,-9,-580,-262,563,-239,-483,-557,-1103,-538,-101,152
444,-51,-544,-202,491,-251,-393,-473,-941,-538,-179,74
318,-81,-436,-124,365,-251,-315,-395,-791,-532,-215,20
192,-93,-328,-64,239,-227,-243,-317,-659,-502,-227,-9
114,-99,-238,-28,167,-185,-195,-257,-557,-460,-233,-27
72,-105,-190,7,125,-155,-147,-215,-461,-400,-233,-51
12,-111,-148,37,83,-131,-99,-173,-365,-334,-233,-63
-35,-117,-106,61,41,-113,-63,-125,-293,-292,-221,-69
-71,-123,-70,91,-1,-101,-27,-83,-209,-244,-209,-75
-107,-129,-40,115,-30,-89,8,-35,-131,-202,-197,-87
-131,-129,-16,127,-60,-83,50,12,-53,-160,-185,-93
-143,-135,-10,133,-72,-77,74,48,-11,-148,-179,-99
-149,-141,-5,139,-78,-71,86,66,18,-142,-173,-105
-155,-141,-5,145,-84,-71,98,78,36,-136,-173,-111
-155,-147,-5,151,-90,-71,110,84,48,-130,-173,-117
-167,-153,-5,157,-90,-71,122,96,60,-124,-173,-123
-179,-159,1,163,-96,-71,134,102,72,-118,-173,-123
-179,-159,1,163,-96,-71,134,108,84,-112,-173,-129
-179,-159,1,163,-96,-71,134,108,90,-106,-173,-135
-179,-159,1,163,-96,-71,140,114,102,-100,-173,-141
-179,-159,1,163,-96,-71,146,120,120,-94,-173,-141
-179,-159,1,163,-96,-71,152,126,126,-94,-173,-141
-179,-159,1,163,-96,-71,158,132,132,-88,-173,-141
-179,-159,1,163,-96,-71,158,132,138,-88,-173,-141
-179,-159,1,163,-96,-71,158,132,138,-88,-173,-141
-179,-159,7,163,-96,-65,158,132,138,-88,-173,-141
-179,-153,7,163,-96,-59,158,132,138,-88,-173,-141
-179,-153,13,163,-96,-59,158,132,138,-82,-173,-141
-179,-153,25,163,-102,-59,158,138,150,-76,-167,-141
-179,-153,37,163,-108,-53,158,138,162,-70,-167,-141
-179,-153,43,163,-114,-53,158,138,168,-70,-167,-141
-179,-153,43,163,-114,-53,164,138,174,-70,-167,-141
-179,-159,43,163,-114,-53,164,144,180,-70,-167,-141
-185,-159,43,163,-114,-53,164,150,186,-64,-161,-141
-191,-159,43,169,-120,-53,164,150,186,-58,-161,-141
-197,-159,43,175,-120,-53,170,150,192,-52,-161,-141
-197,-159,43,175,-120,-53,170,150,192,-52,-161,-141
-203,-159,43,175,-120,-53,170,156,198,-52,-155,-141
-209,-159,43,181,-126,-53,176,156,198,-52,-149,-141
-209,-159,43,181,-126,-53,176,156,198,-52,-149,-141
-209,-159,43,181,-126,-53,176,156,198,-52,-149,-141
-209,-159,43,181,-126,-53,176,156,204,-52,-149,-141
-209,-159,43,181,-126,-53,176,156,204,-52,-149,-141
-197,-159,43,175,-126,-53,176,156,204,-52,-149,-141
-191,-159,37,175,-114,-53,176,156,204,-52,-149,-141
-185,-159,31,175,-108,-53,176,156,204,-52,-149,-141
-179,-159,31,175,-102,-53,176,156,204,-52,-149,-141
-179,-159,31,175,-102,-53,176,150,204,-52,-149,-147
-179,-159,31,169,-102,-53,176,150,204,-52,-149,-147
-179,-159,31,169,-102,-53,176,150,210,-52,-149,-147
-179,-159,31,169,-102,-53,176,150,210,-52,-149,-147
-179,-159,31,169,-102,-53,176,150,210,-46,-149,-147
-179,-159,31,169,-102,-53,176,150,216,-46,-149,-147
-185,-159,37,169,-114,-47,176,150,222,-40,-149,-147
-197,-159,49,169,-126,-41,176,150,228,-40,-143,-147
-209,-159,61,169,-132,-35,176,150,234,-34,-137,-147
-209,-159,67,169,-138,-29,176,150,240,-28,-137,-147
-209,-159,67,169,-138,-29,176,150,246,-22,-137,-147
-215,-159,67,175,-144,-29,176,150,252,-22,-137,-147
-215,-159,67,175,-150,-29,176,156,258,-16,-137,-147
-215,-159,67,175,-150,-29,176,156,258,-16,-137,-147
-209,-159,61,169,-138,-29,176,156,258,-16,-137,-147
-203,-159,55,169,-132,-29,170,156,258,-16,-137,-147
-197,-153,55,169,-132,-29,170,156,258,-16,-137,-147
-191,-147,55,163,-126,-29,170,156,258,-16,-137,-147
-191,-147,55,163,-126,-29,170,156,258,-16,-137,-147
-185,-147,55,163,-126,-29,170,156,258,-16,-137,-147
-179,-147,55,157,-120,-29,170,156,264,-16,-137,-147
-167,-141,49,151,-114,-29,164,156,270,-16,-137,-147
-161,-135,43,145,-108,-29,158,156,276,-16,-137,-147
-161,-135,43,145,-108,-29,158,156,276,-16,-137,-147
-161,-135,43,145,-108,-29,158,156,282,-16,-137,-147
-161,-135,43,145,-108,-29,158,156,288,-16,-137,-141
-161,-135,43,145,-108,-29,158,156,294,-10,-137,-141
-161,-135,49,145,-108,-23,158,156,300,-4,-131,-141
-167,-135,49,145,-108,-23,158,156,312,1,-125,-135
-173,-135,49,145,-114,-23,158,156,324,7,-119,-129
-179,-129,55,145,-120,-17,158,156,336,13,-107,-123
-185,-123,67,145,-126,-17,158,156,348,19,-101,-123
-191,-123,73,145,-132,-17,158,156,354,19,-95,-117
-191,-117,73,145,-132,-17,158,156,360,25,-89,-117
-191,-111,73,145,-132,-17,158,156,366,25,-89,-117
-179,-111,73,139,-120,-17,152,156,372,25,-89,-117
-161,-111,61,133,-108,-17,146,156,378,25,-89,-117
-149,-111,55,127,-96,-17,140,150,384,25,-89,-117
-149,-105,55,121,-96,-17,134,150,396,31,-89,-117
-149,-93,61,121,-96,-5,134,150,408,43,-83,-117
-149,-87,61,115,-102,1,134,144,414,49,-83,-117
-149,-81,61,115,-102,1,128,144,420,55,-83,-117
-149,-81,67,109,-102,6,122,144,426,61,-77,-117
-149,-75,67,103,-102,6,122,144,438,67,-77,-111
-143,-69,67,97,-102,6,122,144,450,73,-71,-105
-143,-63,79,97,-108,18,122,144,462,79,-65,-93
-143,-57,91,97,-114,24,122,144,474,85,-59,-87
-137,-51,91,91,-114,24,116,144,480,97,-53,-81
-137,-45,91,85,-114,30,116,144,492,109,-47,-75
-131,-39,91,79,-114,36,110,144,504,121,-41,-75
-125,-33,91,79,-114,36,104,144,516,127,-35,-75
-125,-33,91,79,-108,36,98,138,528,133,-29,-69
-119,-27,91,73,-108,36,92,132,534,145,-17,-63
-113,-15,97,61,-108,42,86,132,546,151,-11,-51
-107,-4,97,55,-108,48,80,126,552,157,-5,-45
-107,-4,97,49,-108,48,80,126,558,169,0,-39
-101,2,97,43,-108,54,74,126,564,175,6,-33
-89,14,97,31,-108,60,68,120,564,181,12,-33
-83,26,97,25,-108,66,62,114,564,187,18,-27
-77,38,103,19,-108,72,56,108,570,199,24,-21
-65,44,103,13,-102,78,50,102,576,211,36,-15
-41,50,103,1,-90,78,38,96,576,217,42,-9
-29,56,103,-10,-78,78,32,90,576,223,48,-4
-23,62,103,-16,-72,84,26,90,576,235,60,8
-23,68,103,-22,-72,90,20,90,576,241,84,14
-17,74,103,-28,-72,90,14,90,576,247,96,26
-11,80,103,-34,-66,90,8,84,576,253,108,32
0,86,103,-46,-60,90,2,78,576,259,114,38
12,98,103,-58,-54,96,-9,66,576,265,120,44
12,110,109,-64,-54,108,-15,60,576,271,132,50
12,122,115,-70,-54,120,-15,60,576,277,144,62
18,128,115,-70,-54,126,-21,54,570,283,150,68
42,128,103,-82,-36,126,-33,42,552,283,150,74
72,134,85,-106,-6,126,-51,30,528,283,150,74
84,140,79,-118,5,126,-63,18,516,283,162,86
84,140,73,-124,5,126,-69,12,504,283,168,92
84,140,67,-124,11,126,-75,0,492,283,174,92
90,140,55,-130,23,120,-81,-11,468,283,180,92
96,146,55,-130,23,120,-87,-17,456,283,186,92
96,152,55,-130,23,120,-93,-17,444,283,192,98
102,152,55,-136,23,120,-93,-17,414,283,198,110
114,152,49,-142,29,120,-99,-17,390,283,198,116
132,158,37,-148,47,120,-111,-23,354,283,204,122
144,158,25,-154,65,114,-117,-29,324,277,204,122
144,158,25,-154,65,114,-123,-35,312,277,204,128
144,158,31,-154,65,114,-123,-35,306,277,210,134
144,158,37,-154,59,114,-123,-35,294,271,216,134
144,158,37,-154,59,114,-123,-35,264,259,216,134
144,158,31,-154,59,108,-123,-41,234,247,210,134
144,152,25,-154,59,102,-123,-41,210,235,204,134
144,146,25,-148,59,96,-123,-41,192,223,204,134
144,140,19,-142,59,90,-123,-41,174,217,198,134
144,140,13,-142,65,84,-123,-41,156,205,192,128
144,140,7,-142,65,84,-123,-41,144,199,186,128
138,140,7,-142,65,84,-123,-41,138,193,180,122
132,140,7,-142,65,84,-123,-41,126,181,168,116
132,128,7,-142,65,78,-123,-41,114,169,156,104
126,110,1,-130,65,66,-117,-41,108,157,144,92
114,98,1,-112,65,60,-105,-41,102,151,138,86
102,86,1,-100,59,54,-99,-41,96,139,126,74
96,80,1,-88,59,54,-93,-41,90,127,114,62
90,74,1,-76,59,48,-81,-35,84,121,108,56
78,62,1,-64,53,42,-69,-29,78,115,102,50
48,50,1,-52,41,42,-57,-23,72,103,90,44
36,38,1,-40,29,36,-51,-17,66,91,78,32
30,26,1,-28,29,30,-45,-11,66,79,72,26
24,14,1,-16,29,24,-39,-5,66,67,66,20
18,2,1,-10,29,18,-33,0,66,61,54,14
12,-9,1,-4,29,12,-27,6,60,49,42,8
6,-15,1,1,29,6,-21,6,54,43,30,2
0,-21,1,7,23,6,-15,12,54,37,24,-4
-11,-21,1,13,11,6,-9,18,54,37,18,-9
-17,-27,1,19,-1,6,-3,18,54,37,18,-9
-29,-27,7,25,-12,6,-3,24,54,37,18,-9
-35,-27,7,31,-18,6,-3,24,54,37,18,-15
-41,-27,7,37,-24,6,-3,24,54,37,12,-21
-41,-27,7,37,-24,6,-3,24,60,37,12,-21
-41,-27,7,37,-24,6,-3,24,66,37,12,-21
-41,-27,7,37,-24,6,-3,18,72,37,12,-21
-41,-27,7,37,-24,6,-3,12,78,37,12,-21
-35,-27,7,31,-18,6,-3,0,84,37,12,-21
-23,-21,7,19,-12,6,-9,-5,90,43,24,-21
0,-9,1,7,-1,6,-21,-17,102,49,36,-15
12,2,1,-4,5,12,-39,-23,120,61,48,-9
18,26,7,-16,5,24,-57,-29,150,85,60,-4
24,38,13,-28,5,36,-69,-35,186,109,90,8
30,50,13,-40,5,48,-75,-41,234,139,114,20
36,68,19,-52,5,60,-87,-65,282,175,144,38
36,98,61,-64,-1,90,-99,-107,336,217,186,74
30,140,145,-76,-42,150,-135,-173,396,271,240,122
24,218,223,-100,-84,234,-195,-287,438,337,300,176
18,290,319,-136,-126,318,-285,-425,468,421,366,248
12,392,415,-178,-180,420,-381,-569,510,499,432,320
12,488,511,-220,-228,516,-489,-719,540,583,516,404
6,584,607,-262,-294,618,-579,-863,564,661,582,470
-5,674,715,-292,-354,708,-645,-1001,576,739,648,530
-41,746,823,-310,-438,804,-693,-1109,576,793,678,584
-101,794,949,-316,-528,882,-747,-1241,510,829,708,626
-143,854,1039,-322,-582,954,-801,-1355,348,847,720,662
-179,896,1117,-334,-642,1014,-849,-1439,156,853,726,692
-197,950,1201,-346,-690,1086,-891,-1499,-23,853,726,722
-233,992,1285,-358,-750,1140,-933,-1541,-167,853,726,752
-257,1058,1369,-388,-798,1224,-975,-1577,-311,853,726,782
-269,1148,1471,-418,-864,1320,-1023,-1619,-515,859,732,824
-299,1220,1585,-436,-948,1416,-1071,-1673,-767,853,732,860
-347,1286,1681,-448,-1014,1488,-1101,-1721,-1013,817,732,896
-383,1340,1753,-454,-1062,1554,-1119,-1757,-1253,733,726,932
-401,1376,1801,-460,-1104,1602,-1143,-1793,-1529,601,714,962
-413,1394,1831,-466,-1116,1620,-1161,-1817,-1799,427,684,986
-419,1394,1831,-466,-1116,1620,-1167,-1817,-2021,229,642,992
-419,1382,1807,-466,-1104,1602,-1167,-1805,-2213,1,594,992
-413,1310,1735,-460,-1074,1530,-1155,-1739,-2357,-208,552,992
-413,1238,1669,-442,-1050,1458,-1113,-1655,-2446,-376,516,992
-413,1190,1597,-430,-1020,1404,-1083,-1589,-2500,-496,498,992
-395,1160,1531,-424,-972,1362,-1065,-1547,-2542,-604,486,992
-347,1154,1465,-424,-912,1326,-1059,-1529,-2572,-676,474,992
-305,1148,1435,-424,-876,1314,-1059,-1517,-2584,-712,462,992
-293,1148,1423,-424,-864,1308,-1053,-1505,-2584,-742,450,998
-293,1148,1423,-424,-864,1302,-1047,-1493,-2572,-754,426,1004
-293,1148,1423,-424,-864,1302,-1047,-1475,-2494,-760,402,1010
-293,1148,1435,-424,-870,1302,-1041,-1457,-2393,-760,390,1010
-317,1148,1471,-418,-894,1308,-1017,-1415,-2267,-760,348,1004
-347,1124,1471,-394,-900,1308,-963,-1325,-2135,-760,288,962
-365,1058,1459,-352,-900,1278,-909,-1235,-1985,-754,216,902
-377,986,1393,-322,-894,1200,-837,-1139,-1835,-742,126,788
-377,908,1297,-286,-870,1110,-765,-1049,-1685,-736,30,668
-377,806,1183,-238,-810,1002,-675,-959,-1529,-724,-47,548
-377,698,1069,-184,-750,888,-585,-839,-1367,-706,-95,458
-377,590,967,-136,-702,780,-495,-725,-1193,-646,-125,374
-365,512,853,-112,-612,684,-435,-617,-1019,-574,-143,302
-317,446,727,-100,-516,588,-375,-527,-851,-496,-143,254
-263,380,613,-88,-432,504,-321,-431,-707,-430,-143,206
-221,290,475,-76,-342,396,-249,-329,-563,-388,-143,128
-185,200,355,-46,-264,294,-183,-227,-437,-346,-149,68
-167,116,241,-22,-210,198,-111,-125,-311,-304,-155,20
-149,26,133,7,-150,102,-45,-41,-221,-268,-155,-27
-131,-39,43,37,-102,24,8,24,-149,-238,-155,-69
-119,-81,-5,61,-66,-29,56,72,-95,-214,-155,-99
-107,-111,-46,73,-36,-71,86,102,-65,-190,-155,-123
-89,-129,-64,79,-12,-89,104,126,-35,-178,-155,-153
-83,-141,-70,85,-6,-101,116,150,-17,-172,-155,-165
-83,-159,-76,97,-6,-107,128,168,6,-160,-155,-165
-83,-171,-82,103,-1,-113,140,186,18,-154,-155,-165
-77,-177,-94,109,5,-119,146,198,24,-154,-161,-171
-77,-183,-106,109,11,-125,152,210,36,-154,-167,-171
-77,-189,-118,109,17,-137,158,222,48,-154,-167,-177
-77,-201,-130,121,23,-155,170,228,60,-148,-167,-183
-77,-213,-142,127,23,-167,182,240,66,-142,-167,-189
-71,-219,-154,127,35,-179,188,246,72,-142,-173,-195
-59,-225,-172,127,53,-185,188,246,78,-142,-179,-207
-47,-225,-178,127,65,-191,188,246,84,-142,-185,-219
-41,-225,-184,127,71,-197,188,246,90,-142,-185,-219
-41,-231,-190,127,71,-203,188,252,90,-142,-185,-219
-41,-231,-202,127,77,-203,194,258,90,-142,-191,-219
-35,-231,-208,127,83,-209,194,264,90,-142,-191,-219
-35,-231,-208,127,83,-209,194,270,90,-142,-191,-225
-35,-237,-214,127,89,-209,194,276,90,-142,-191,-225
-35,-237,-214,127,89,-215,194,282,96,-136,-191,-225
-35,-237,-214,127,89,-215,200,288,108,-130,-191,-225
-35,-237,-214,133,89,-215,206,294,108,-130,-191,-225
-35,-243,-214,133,89,-215,212,294,108,-130,-191,-225
-29,-243,-220,133,89,-221,218,300,114,-130,-191,-225
-17,-243,-232,133,95,-221,218,300,114,-130,-191,-231
-5,-243,-244,133,107,-221,218,300,114,-130,-191,-231
-5,-249,-244,133,107,-227,218,306,114,-130,-191,-231
-11,-249,-244,133,107,-227,224,318,120,-124,-191,-231
-11,-249,-244,133,107,-227,230,324,126,-124,-191,-231
-11,-249,-244,133,107,-227,230,330,132,-124,-191,-231
-17,-255,-244,133,107,-227,230,330,138,-124,-191,-231
-17,-255,-244,133,107,-233,236,336,138,-118,-191,-231
-11,-255,-256,133,119,-239,236,336,138,-118,-191,-231
6,-255,-274,133,131,-251,236,336,138,-118,-191,-231
18,-255,-286,127,143,-257,236,336,138,-118,-191,-237
24,-255,-292,127,149,-263,236,342,138,-118,-191,-237
24,-261,-298,127,155,-269,236,342,138,-118,-191,-237
24,-267,-304,127,155,-275,236,342,138,-118,-191,-237
30,-267,-304,127,167,-281,236,342,138,-118,-191,-243
42,-267,-316,127,179,-287,236,348,138,-118,-191,-249
48,-267,-328,121,185,-293,236,348,138,-118,-191,-255
54,-267,-334,121,191,-293,236,354,138,-118,-191,-261
54,-267,-334,121,191,-293,242,360,138,-118,-191,-261
54,-273,-334,121,191,-293,242,366,138,-118,-191,-261
54,-279,-340,121,191,-299,242,366,138,-118,-191,-261
54,-285,-352,121,203,-305,242,372,138,-118,-191,-261
60,-291,-382,121,227,-317,242,378,138,-118,-191,-267
72,-303,-394,121,239,-341,248,384,138,-124,-197,-267
78,-315,-406,121,245,-353,254,396,138,-124,-197,-267
84,-327,-418,121,251,-371,260,402,138,-130,-203,-273
90,-351,-448,121,263,-395,260,408,138,-142,-209,-285
90,-375,-466,127,269,-419,266,414,138,-154,-221,-297
90,-387,-478,133,275,-431,272,420,138,-160,-227,-309
90,-399,-502,139,287,-443,278,432,138,-160,-227,-315
96,-411,-544,139,317,-461,290,444,138,-160,-227,-321
114,-429,-580,145,353,-491,296,456,138,-172,-233,-333
126,-459,-616,151,371,-521,308,480,138,-178,-239,-345
132,-471,-628,157,383,-539,320,492,138,-184,-245,-351
138,-483,-640,163,389,-551,338,510,150,-184,-245,-357
144,-495,-646,169,395,-563,344,522,162,-184,-245,-357
150,-501,-658,169,401,-575,350,528,168,-184,-245,-363
162,-507,-676,169,413,-587,356,540,174,-184,-251,-369
168,-507,-688,169,425,-593,356,552,174,-184,-251,-369
168,-513,-700,169,431,-605,362,564,180,-184,-251,-369
174,-525,-730,169,443,-623,368,576,186,-178,-245,-369
198,-531,-772,169,485,-641,368,576,192,-178,-239,-369
270,-531,-802,151,533,-647,368,576,198,-172,-233,-369
306,-531,-826,127,569,-653,356,576,216,-160,-221,-369
324,-531,-838,115,587,-659,350,576,246,-136,-209,-369
336,-531,-844,103,593,-665,344,576,276,-112,-191,-357
348,-525,-850,91,605,-665,344,576,306,-100,-185,-351
360,-507,-850,79,611,-665,338,576,342,-82,-173,-345
372,-477,-850,67,611,-659,326,576,372,-58,-161,-333
384,-447,-850,37,611,-653,314,582,414,-34,-143,-321
396,-435,-850,19,611,-647,308,594,444,-16,-113,-315
402,-423,-844,13,611,-635,302,606,456,1,-95,-309
402,-417,-838,1,611,-623,302,612,462,19,-83,-303
414,-411,-832,-4,617,-611,302,612,462,31,-71,-297
420,-405,-832,-10,617,-605,296,612,444,37,-65,-297
420,-405,-832,-10,617,-605,290,600,414,37,-65,-291
420,-405,-832,-10,617,-605,284,594,402,37,-59,-285
420,-405,-832,-10,623,-605,278,588,396,37,-53,-285
432,-405,-838,-16,629,-611,272,588,396,43,-47,-285
444,-405,-856,-22,641,-623,266,582,396,55,-41,-285
462,-405,-880,-28,665,-629,260,576,396,61,-35,-285
474,-405,-880,-34,671,-629,254,576,396,67,-29,-279
474,-405,-880,-40,671,-629,254,570,396,79,-17,-273
480,-405,-880,-40,671,-629,248,570,396,91,-5,-273
486,-405,-880,-40,677,-629,248,570,402,103,0,-267
492,-399,-880,-46,683,-629,242,564,408,115,6,-261
504,-387,-880,-58,689,-629,230,558,408,127,12,-255
504,-375,-880,-64,689,-623,224,558,420,139,24,-243
504,-363,-874,-70,683,-617,224,558,432,169,42,-225
504,-357,-874,-76,683,-611,218,552,432,175,54,-213
516,-345,-874,-88,683,-605,206,540,432,181,60,-207
522,-339,-874,-100,689,-599,194,516,432,187,66,-207
528,-327,-862,-106,689,-587,188,504,432,199,84,-201
528,-321,-850,-112,689,-581,182,492,432,211,96,-189
534,-309,-844,-118,689,-575,170,480,432,217,108,-183
540,-285,-838,-124,689,-563,158,462,432,223,114,-171
540,-267,-826,-130,689,-551,146,444,432,229,120,-165
540,-255,-808,-136,677,-527,134,426,432,241,126,-153
540,-243,-784,-142,659,-503,122,408,432,253,132,-141
534,-231,-760,-142,647,-491,110,378,432,259,144,-129
522,-225,-730,-142,623,-473,98,354,432,265,156,-105
516,-219,-700,-142,611,-455,92,336,426,271,168,-93
510,-207,-688,-148,599,-437,80,318,414,277,174,-87
510,-177,-652,-154,587,-407,68,288,402,277,180,-81
504,-147,-610,-160,563,-377,50,258,390,277,180,-75
468,-135,-568,-160,521,-347,38,240,384,277,186,-69
402,-123,-502,-154,455,-311,38,234,378,283,192,-57
372,-111,-448,-148,407,-275,38,222,378,283,192,-39
354,-81,-424,-148,383,-245,32,204,372,283,192,-27
342,-69,-406,-148,365,-233,26,186,366,283,192,-15
312,-63,-370,-142,341,-215,20,174,354,283,192,-4
294,-57,-334,-136,311,-197,14,150,336,277,192,8
276,-51,-304,-130,287,-173,8,138,318,271,192,14
258,-39,-268,-130,263,-143,2,120,300,271,192,20
228,-27,-226,-124,233,-119,-3,102,282,265,192,20
198,-15,-190,-118,197,-95,-3,84,270,259,192,20
186,-4,-160,-112,173,-83,-9,72,258,253,186,26
174,2,-148,-106,161,-71,-15,60,246,235,180,26
162,8,-142,-100,149,-59,-21,48,234,223,168,32
156,14,-124,-100,137,-47,-21,36,222,211,156,32
126,20,-82,-94,107,-17,-21,30,210,205,150,32
96,26,-40,-82,77,-5,-21,30,204,193,144,32
78,26,-28,-70,59,1,-21,24,198,181,138,32
72,26,-22,-64,47,6,-21,18,192,175,138,32
66,32,-10,-64,35,12,-21,18,186,169,132,32
36,32,1,-52,23,18,-21,18,180,163,126,32
12,32,13,-40,5,24,-21,18,174,157,120,32
0,26,19,-28,-6,24,-21,18,162,145,108,32
0,26,19,-28,-6,24,-21,18,156,133,96,32
0,26,19,-28,-6,30,-21,12,144,121,84,32
6,26,19,-28,-6,30,-21,6,138,109,72,26
6,26,19,-28,-6,30,-21,6,138,97,60,20
0,26,25,-22,-6,30,-15,6,132,91,54,20
-5,26,31,-16,-12,36,-15,6,132,85,48,20
-11,26,37,-16,-18,42,-15,6,132,79,42,20
-11,26,37,-16,-24,42,-9,6,126,73,36,14
-11,26,37,-16,-24,42,-3,6,126,73,36,14
-23,26,43,-10,-30,42,2,6,126,73,36,14
-35,26,49,-4,-42,42,8,6,126,73,30,14
-35,26,49,1,-42,42,8,6,126,67,24,8
-35,26,49,1,-42,42,8,6,126,67,24,2
-35,26,49,1,-42,42,8,6,126,61,24,2
-35,20,43,1,-36,42,8,6,126,61,24,-4
-35,14,37,1,-36,36,8,6,126,61,24,-4
-35,8,37,1,-36,36,8,6,126,55,18,-4
-35,8,31,1,-36,36,8,6,126,55,12,-9
-35,8,31,1,-36,36,8,6,126,55,12,-9
-35,8,25,1,-36,30,8,6,126,55,12,-9
-29,8,19,1,-30,24,8,6,126,49,12,-9
-29,8,19,1,-30,24,8,6,120,49,12,-9
-29,8,25,1,-30,24,8,12,120,49,12,-9
-29,8,25,1,-30,24,8,12,120,49,12,-9
-29,8,25,7,-30,24,8,12,120,49,12,-9
-29,2,25,7,-30,24,14,12,120,49,12,-9
-29,2,25,7,-30,24,20,12,120,49,6,-9
-35,2,25,7,-30,24,20,12,120,49,0,-15
-41,2,31,7,-36,30,20,12,120,49,0,-21
-41,2,37,7,-36,30,20,12,120,49,0,-21
-47,2,37,7,-36,30,20,18,120,49,0,-21
-53,2,37,13,-42,30,20,24,120,49,0,-21
-59,2,43,19,-48,30,20,24,120,49,0,-21
-65,2,55,25,-54,36,20,24,120,49,0,-21
-65,2,61,25,-60,42,20,24,120,49,0,-21
-65,8,61,25,-60,42,20,24,120,49,0,-21
-65,8,61,25,-60,42,20,24,120,49,0,-21
-65,2,55,25,-60,36,20,24,120,49,0,-21
-59,2,49,25,-54,36,20,24,126,49,0,-21
-59,2,43,25,-54,36,20,24,126,49,0,-21
-59,2,43,25,-54,36,20,24,126,49,0,-21
-59,2,43,25,-54,36,20,24,126,49,0,-21
-59,2,43,25,-54,36,20,24,132,49,0,-21
-59,2,43,25,-54,36,26,30,132,49,0,-21
-59,2,43,25,-54,36,26,30,132,49,0,-21
-59,2,49,25,-54,36,26,30,132,49,0,-21
-59,2,55,25,-54,42,26,30,132,49,0,-21
-59,2,61,25,-60,42,26,30,132,49,0,-21
-65,2,67,25,-66,42,26,30,132,49,0,-21
-71,2,67,31,-66,42,26,30,138,49,0,-21
-71,2,67,31,-66,42,26,30,138,49,0,-21
-71,2,67,31,-66,42,26,30,138,49,0,-21
-71,2,67,31,-66,42,26,30,138,49,0,-21
-71,2,67,31,-66,42,26,30,138,49,0,-21
-71,2,67,31,-66,42,26,30,138,49,0,-21
-65,2,67,31,-60,42,26,30,138,49,0,-21
-65,8,67,31,-60,42,26,30,138,49,0,-21
-65,8,73,31,-66,42,26,30,138,49,0,-21
-65,8,73,31,-66,42,26,30,132,49,0,-21
-65,8,73,31,-66,42,26,30,132,49,0,-21
-59,8,67,31,-60,42,26,30,132,49,0,-21
-47,8,61,31,-54,42,26,30,132,49,0,-21
-47,8,55,31,-54,42,26,30,132,49,0,-21
-47,8,55,31,-54,42,26,30,132,49,0,-21
-47,8,55,31,-54,42,26,30,132,49,0,-21
-53,8,55,31,-54,36,26,30,132,43,0,-21
-53,8,55,31,-54,36,26,30,132,43,0,-21
-59,8,61,31,-54,36,26,30,132,43,-5,-21
-65,8,67,31,-60,36,26,30,126,43,-5,-21
-65,8,67,31,-60,36,26,30,126,43,-5,-21
-65,8,67,31,-60,36,26,30,120,43,-5,-21
-65,8,67,31,-60,36,26,30,114,43,-5,-21
-65,8,67,31,-60,42,26,30,108,43,-5,-21
-65,8,67,31,-60,42,26,30,108,37,-5,-21
-65,8,67,31,-60,42,26,30,108,37,-5,-21
-65,8,67,31,-60,42,26,30,108,31,-5,-21
-65,8,67,31,-60,42,26,30,108,31,-11,-21
-65,8,67,31,-60,42,26,30,102,31,-17,-21
-65,2,67,31,-60,42,26,30,96,31,-17,-21
-65,2,67,37,-60,42,26,30,96,31,-23,-21
-71,2,67,37,-66,42,26,30,96,31,-23,-21
-77,8,73,37,-72,48,26,30,96,31,-23,-21
-83,8,85,37,-78,54,26,30,96,31,-23,-21
-83,8,91,37,-78,54,26,30,96,31,-23,-21
-83,8,91,37,-78,54,26,30,96,31,-23,-21
-83,8,91,37,-78,54,26,30,96,31,-23,-21
-83,8,91,37,-78,54,26,30,96,31,-23,-21
-83,8,97,37,-78,54,26,30,96,31,-29,-21
-83,8,97,37,-84,54,26,30,96,31,-29,-21
-83,8,97,43,-84,54,26,30,96,25,-29,-21
-83,2,97,43,-84,48,26,30,96,25,-29,-21
-83,2,97,43,-84,48,26,30,96,25,-35,-27
-83,2,97,43,-84,48,26,30,96,19,-35,-27
-83,2,97,43,-84,48,32,30,96,19,-35,-27
-83,2,97,43,-84,48,32,30,90,13,-41,-33
-83,2,91,43,-84,48,32,30,84,7,-47,-33
-83,2,91,43,-84,48,32,30,84,7,-47,-33
-83,2,91,43,-84,48,32,30,84,7,-47,-33
-77,2,85,43,-78,42,32,30,84,1,-47,-33
-77,-4,73,43,-72,36,32,30,78,1,-47,-33
-77,-4,67,43,-66,30,32,30,78,1,-47,-33
-77,-4,61,43,-66,30,32,30,78,-4,-47,-33
-77,-9,61,43,-66,30,38,30,72,-4,-47,-33
-77,-9,61,43,-66,30,38,30,72,-4,-47,-33
-77,-9,61,43,-66,30,38,30,72,-4,-47,-39
-77,-9,55,43,-60,30,38,30,72,-4,-47,-39
-77,-15,55,43,-60,24,38,30,72,-4,-47,-45
-77,-21,55,49,-60,24,38,30,72,-4,-47,-51
-77,-21,55,49,-60,24,38,30,72,-4,-47,-51
-77,-21,55,49,-60,24,38,30,72,-4,-47,-51
-83,-27,55,55,-60,24,38,30,72,-4,-47,-51
-83,-27,55,55,-60,24,38,30,66,-10,-47,-51
-83,-27,55,55,-60,24,38,30,60,-16,-47,-51
-83,-21,61,55,-66,30,38,36,60,-16,-47,-51
-83,-21,67,55,-72,30,38,36,60,-16,-47,-51
-83,-21,67,61,-72,30,38,36,60,-16,-47,-51
-83,-21,67,61,-72,30,38,36,54,-16,-47,-51
-83,-21,67,61,-72,30,44,36,54,-16,-47,-51
-89,-21,67,61,-72,30,44,36,54,-16,-47,-51
-101,-21,67,61,-78,30,44,36,54,-22,-47,-51
-107,-27,67,61,-78,30,44,36,54,-22,-47,-51
-107,-33,67,67,-78,24,44,36,54,-22,-47,-51
-95,-33,61,67,-72,18,44,36,54,-22,-47,-51
-77,-33,55,61,-60,18,44,36,54,-28,-47,-51
-71,-33,49,61,-54,18,44,36,48,-34,-47,-51
-71,-33,49,61,-54,18,44,36,42,-40,-47,-51
-77,-33,49,67,-60,18,44,36,42,-40,-47,-51
-83,-33,49,67,-66,18,44,36,42,-40,-47,-51
-83,-33,49,67,-66,18,44,36,42,-40,-47,-51
-83,-33,49,67,-66,18,44,36,42,-40,-47,-51
-83,-39,49,67,-66,18,44,36,42,-40,-47,-51
-83,-39,49,67,-66,18,44,36,42,-40,-47,-51
-83,-39,49,67,-66,18,44,36,42,-40,-47,-57
-83,-39,49,67,-66,18,44,36,42,-40,-47,-57
-83,-39,43,67,-66,12,44,36,42,-40,-47,-57
-83,-45,43,67,-66,6,44,36,42,-40,-47,-57
-89,-51,43,67,-66,6,44,36,42,-40,-47,-57
-95,-51,49,67,-72,6,50,36,42,-40,-47,-57
-95,-51,49,67,-72,6,56,42,42,-40,-47,-57
-89,-51,43,67,-72,6,56,42,42,-40,-47,-57
-89,-51,37,67,-72,6,56,42,42,-40,-53,-57
-89,-51,43,67,-72,6,56,42,42,-40,-53,-57
-95,-51,49,73,-78,6,56,42,42,-40,-53,-57
-95,-51,49,73,-78,6,56,42,42,-40,-53,-57
-95,-51,49,73,-78,6,56,42,42,-40,-53,-57
-95,-51,49,73,-78,6,56,42,42,-40,-53,-57
-89,-51,49,73,-72,6,56,42,42,-40,-59,-57
-77,-51,49,73,-66,6,56,42,36,-46,-59,-57
-77,-51,43,73,-60,6,56,42,30,-52,-65,-57
-77,-51,43,73,-60,6,56,42,30,-52,-65,-57
-77,-51,43,73,-60,6,56,42,30,-52,-65,-57
-77,-51,43,73,-60,6,56,42,30,-52,-65,-57
-77,-51,43,73,-60,6,56,42,30,-52,-65,-57
-77,-51,43,73,-60,6,56,42,30,-52,-65,-57
-83,-51,43,73,-60,6,56,42,30,-52,-65,-57
-83,-51,43,73,-60,6,56,42,30,-52,-65,-57
-83,-51,43,73,-60,6,56,42,30,-52,-65,-57
-83,-51,49,73,-60,6,56,42,30,-52,-65,-57
-89,-51,49,73,-60,6,56,42,30,-52,-65,-57
-89,-51,43,73,-60,1,56,42,30,-52,-65,-57
-89,-51,37,73,-54,1,56,42,30,-52,-65,-57
-89,-51,31,73,-54,1,56,42,30,-52,-65,-57
-89,-51,31,73,-54,1,56,42,30,-52,-65,-57
-89,-51,31,73,-54,1,56,42,30,-52,-65,-57
-89,-51,31,73,-54,1,56,42,30,-52,-65,-57
-89,-51,31,73,-54,1,56,42,30,-52,-65,-57
-89,-51,31,73,-54,1,56,42,30,-52,-65,-57
-95,-51,37,73,-60,1,56,42,30,-52,-65,-57
-95,-51,37,73,-60,1,56,42,30,-52,-65,-57
-89,-51,31,73,-60,1,56,42,30,-52,-65,-57
-83,-51,25,73,-54,-5,56,42,30,-52,-65,-57
-83,-51,25,73,-54,-5,56,42,30,-52,-65,-57
-95,-51,31,79,-60,-5,56,42,30,-52,-65,-57
-107,-57,37,85,-72,-5,62,48,30,-52,-65,-57
-113,-57,43,85,-72,-5,62,48,30,-52,-65,-57
-113,-57,43,85,-72,-5,62,48,30,-52,-65,-57
-107,-57,43,85,-72,-5,62,48,30,-52,-65,-57
-101,-57,43,85,-72,-5,62,48,30,-52,-65,-57
-101,-57,43,85,-72,-5,62,48,30,-52,-65,-57
-101,-57,43,85,-72,-5,62,48,30,-52,-65,-57
-101,-57,43,85,-72,-5,62,48,30,-52,-65,-57
-101,-57,43,85,-72,-5,62,48,30,-52,-65,-57
-95,-57,37,85,-66,-5,62,48,30,-52,-65,-57
-95,-57,37,85,-66,-5,62,48,30,-52,-65,-57
-95,-57,37,85,-66,-5,62,48,30,-52,-65,-57
-95,-57,37,85,-66,-5,62,48,30,-52,-65,-57
-95,-57,37,85,-66,-5,62,48,30,-52,-65,-57
-95,-57,37,85,-66,-5,62,48,30,-52,-65,-57
-95,-57,37,85,-66,-5,62,48,30,-52,-65,-57
-95,-57,37,85,-66,-5,62,48,30,-52,-65,-57
-95,-57,37,85,-66,-5,62,48,30,-52,-65,-57
-95,-57,37,85,-66,-5,62,48,30,-52,-65,-57
-95,-57,37,85,-66,-5,62,48,30,-52,-59,-57
-95,-63,37,85,-66,-5,62,48,30,-52,-59,-57
-95,-63,37,85,-66,-5,62,48,30,-52,-59,-57
-95,-63,37,85,-66,-5,62,48,30,-52,-59,-57
-95,-57,37,79,-66,-5,62,48,30,-52,-59,-57
-95,-57,37,79,-66,-5,62,48,30,-52,-59,-57
-95,-57,31,79,-60,-11,62,48,30,-52,-59,-57
-95,-57,31,79,-54,-11,62,48,30,-52,-59,-57
-95,-57,31,79,-54,-11,62,48,30,-52,-59,-57
-95,-57,31,79,-60,-11,62,48,30,-52,-59,-57
-95,-57,31,79,-60,-11,62,48,30,-52,-59,-57
-83,-57,31,73,-54,-11,56,48,30,-52,-59,-57
-77,-57,31,73,-54,-11,56,48,30,-52,-59,-57
-71,-57,25,67,-48,-11,56,48,30,-52,-59,-57
-71,-57,25,67,-48,-11,56,48,30,-52,-59,-57
-71,-57,25,67,-48,-11,56,48,30,-52,-59,-57
-71,-57,25,67,-48,-11,56,48,30,-52,-59,-57
-71,-57,13,67,-42,-17,56,48,30,-52,-59,-57
-71,-57,7,67,-42,-23,56,48,30,-52,-59,-57
-71,-57,7,67,-42,-23,56,48,30,-52,-59,-57
-71,-57,7,67,-42,-23,56,48,30,-52,-59,-57
-71,-57,7,67,-42,-23,56,48,30,-52,-59,-57
-71,-57,7,67,-42,-23,56,48,30,-52,-59,-57
-65,-57,7,67,-42,-23,56,48,30,-52,-59,-57
-65,-57,7,67,-42,-23,56,48,30,-52,-59,-57
-71,-57,13,67,-42,-23,56,48,30,-52,-59,-57
-77,-57,19,67,-48,-23,56,48,30,-52,-59,-57
-77,-57,19,67,-54,-23,56,48,30,-52,-59,-57
-77,-57,19,67,-54,-23,62,48,30,-52,-59,-57
-77,-57,25,67,-60,-17,62,48,30,-52,-59,-57
-77,-57,25,67,-60,-11,62,48,30,-52,-59,-57
-77,-57,25,67,-60,-11,56,48,30,-52,-59,-57
-77,-57,25,67,-60,-11,56,48,24,-52,-59,-57
-77,-57,31,67,-60,-5,56,48,24,-52,-59,-57
-77,-57,31,67,-60,-5,56,48,24,-52,-59,-57
-77,-57,31,67,-60,-5,56,48,24,-52,-59,-57
-77,-57,31,67,-60,-5,56,48,24,-52,-59,-57
-77,-57,31,67,-60,-5,56,48,24,-52,-59,-57
-77,-57,31,67,-60,-5,56,48,24,-52,-59,-57
-77,-57,25,67,-60,-5,56,48,24,-52,-59,-57
-77,-57,25,67,-60,-5,56,48,24,-52,-59,-57
-77,-57,25,67,-60,-5,56,54,24,-52,-59,-57
-77,-57,25,67,-60,-5,56,54,24,-52,-59,-57
-77,-57,25,67,-60,-5,56,54,24,-52,-59,-57
-83,-57,31,67,-60,-5,56,54,24,-52,-59,-57
-83,-57,37,67,-60,-5,56,54,24,-52,-59,-57
-83,-57,43,67,-60,-5,56,54,24,-52,-59,-57
-89,-57,43,67,-66,-5,56,54,24,-46,-59,-57
-89,-57,43,67,-66,-5,56,54,24,-46,-59,-57
-83,-57,43,67,-60,-5,56,54,24,-46,-59,-57
-83,-57,43,67,-60,-5,56,54,24,-46,-59,-57
-83,-57,43,67,-60,-5,56,54,24,-46,-59,-57
-83,-57,43,67,-60,-5,56,54,24,-46,-59,-57
-83,-57,37,67,-60,-5,56,54,24,-46,-59,-57
-77,-57,25,67,-54,-11,56,54,24,-46,-59,-57
-77,-57,19,67,-48,-17,56,54,24,-46,-59,-57
-77,-57,19,67,-48,-23,56,54,24,-46,-59,-57
-77,-57,19,67,-48,-23,56,54,24,-46,-59,-57
-77,-57,19,67,-48,-23,56,54,24,-46,-59,-57
-77,-57,19,67,-48,-23,56,54,24,-46,-59,-57
-77,-57,19,67,-48,-23,56,54,24,-46,-59,-57
-77,-57,19,67,-48,-23,56,54,24,-46,-59,-57
-77,-57,19,67,-48,-23,56,54,24,-46,-59,-57
-71,-51,19,61,-48,-23,56,54,24,-46,-59,-57
-65,-45,19,55,-42,-23,56,54,24,-46,-59,-57
-65,-45,19,55,-42,-23,56,54,24,-46,-59,-57
-65,-45,19,55,-42,-23,56,54,24,-46,-59,-57
-65,-45,19,55,-42,-23,56,54,24,-46,-59,-57
-71,-45,25,55,-48,-17,56,54,24,-46,-59,-57
-71,-45,31,55,-54,-5,56,54,24,-46,-59,-57
-71,-45,31,55,-54,-5,56,54,24,-46,-59,-57
-71,-45,31,55,-54,-5,56,54,24,-46,-59,-57
-71,-45,31,55,-54,-5,56,54,24,-46,-59,-57
-65,-45,25,55,-48,-5,56,54,24,-46,-59,-57
-65,-45,19,55,-42,-11,56,54,24,-46,-59,-57
-65,-51,13,61,-42,-17,56,54,24,-46,-59,-57
-65,-57,1,61,-36,-29,56,54,24,-46,-59,-57
-59,-63,-10,61,-24,-35,50,54,24,-46,-65,-57
-53,-63,-16,61,-18,-35,50,54,24,-46,-71,-57
-53,-63,-16,61,-18,-35,50,54,24,-46,-71,-57
-53,-63,-10,61,-24,-29,50,54,24,-46,-71,-57
-59,-63,-5,61,-30,-29,50,54,24,-46,-71,-57
-59,-63,1,61,-30,-29,50,60,24,-46,-71,-57
-59,-63,7,61,-30,-23,50,60,24,-46,-71,-57
-59,-57,7,61,-30,-23,50,60,24,-46,-71,-57
-59,-57,7,61,-30,-17,50,60,24,-46,-71,-57
-65,-57,13,61,-42,-11,50,60,24,-46,-71,-57
-71,-57,19,61,-48,-11,50,60,24,-46,-71,-57
-71,-57,25,61,-48,-11,50,60,24,-46,-71,-57
-71,-57,25,61,-48,-11,50,60,24,-46,-71,-57
-65,-51,25,61,-42,-11,50,60,24,-46,-71,-57
-53,-45,25,55,-36,-11,50,60,24,-46,-71,-57
-47,-45,19,49,-30,-11,50,60,24,-46,-71,-57
-47,-45,19,49,-30,-11,50,60,24,-46,-71,-57
-47,-45,19,49,-30,-11,50,60,24,-46,-71,-57
-47,-45,19,49,-30,-11,50,60,24,-46,-71,-57
-47,-45,13,49,-30,-11,50,60,24,-46,-71,-57
-47,-45,7,49,-30,-11,50,60,24,-46,-71,-57
-47,-45,7,49,-30,-11,50,60,24,-46,-71,-57
-47,-45,7,49,-30,-11,50,60,24,-46,-71,-57
-53,-45,13,49,-30,-11,50,60,24,-46,-65,-57
-65,-45,19,49,-36,-11,50,60,24,-46,-65,-57
-71,-45,31,49,-48,-5,56,60,24,-40,-59,-57
-71,-45,37,55,-48,-5,62,66,24,-40,-59,-57
-71,-45,37,55,-48,-5,68,66,24,-40,-59,-57
-71,-45,37,55,-48,-5,68,66,24,-40,-59,-57
-71,-45,31,55,-48,-5,68,66,24,-40,-59,-57
-65,-45,19,55,-42,-5,68,66,24,-40,-59,-57
-65,-45,13,55,-36,-5,68,66,24,-40,-59,-57
-65,-45,7,55,-30,-11,68,66,24,-40,-59,-57
-59,-45,1,55,-24,-17,68,66,24,-40,-59,-57
-53,-45,-5,49,-18,-23,68,66,24,-40,-59,-57
-47,-45,-5,49,-18,-23,68,66,24,-40,-59,-57
-47,-45,1,49,-24,-23,68,66,24,-40,-59,-57
-47,-45,13,49,-30,-17,68,72,24,-40,-59,-57
-47,-45,13,49,-30,-11,68,72,24,-40,-59,-57
-47,-45,13,49,-30,-11,68,72,24,-40,-59,-57
-47,-45,13,49,-30,-5,68,72,24,-40,-59,-57
-53,-45,13,49,-30,-5,74,72,24,-40,-59,-57
-59,-45,13,49,-36,-5,80,72,24,-40,-59,-57
-65,-45,13,49,-42,-5,80,72,24,-40,-59,-51
-65,-45,13,49,-48,-5,80,72,24,-40,-59,-51
-65,-45,13,49,-48,-5,80,72,24,-40,-59,-51
-59,-45,13,49,-42,-5,80,72,24,-40,-59,-51
-53,-51,1,49,-36,-11,80,72,24,-40,-59,-51
-53,-57,-5,49,-30,-17,80,72,24,-40,-59,-51
-53,-57,-5,49,-30,-17,80,72,24,-40,-59,-51
-53,-57,-5,49,-30,-17,80,72,24,-40,-59,-51
-47,-57,-10,49,-24,-17,80,72,24,-40,-59,-51
-41,-57,-10,49,-24,-17,80,72,24,-40,-59,-51
-41,-57,-10,49,-24,-17,80,72,24,-40,-59,-51
-47,-57,1,49,-30,-17,80,72,24,-40,-59,-51
-59,-57,13,49,-36,-17,80,72,24,-40,-59,-51
-59,-57,13,49,-36,-17,80,72,24,-40,-59,-51
-53,-51,13,43,-30,-17,80,72,24,-40,-59,-57
-47,-51,7,43,-24,-17,80,72,24,-40,-59,-57
-47,-51,1,43,-24,-17,80,72,24,-40,-59,-57
-47,-51,1,43,-24,-17,80,72,24,-40,-59,-57
-47,-51,-5,43,-18,-17,80,72,24,-40,-59,-57
-41,-51,-10,43,-12,-17,80,72,24,-40,-59,-57
-41,-51,-10,43,-12,-23,80,72,24,-40,-59,-57
-41,-51,-5,43,-12,-23,80,72,24,-40,-59,-57
-53,-51,7,49,-24,-23,80,78,24,-40,-59,-57
-59,-51,13,49,-30,-23,80,78,24,-40,-59,-57
-59,-51,13,49,-30,-23,80,78,24,-40,-59,-57
-59,-51,13,49,-30,-23,80,78,24,-40,-59,-57
-59,-51,13,49,-30,-23,80,78,24,-40,-59,-57
-65,-51,13,49,-36,-23,80,78,24,-40,-59,-57
-65,-51,13,49,-36,-23,80,78,24,-40,-59,-57
-65,-51,13,49,-36,-23,80,78,24,-40,-59,-57
-59,-51,7,49,-30,-23,80,78,24,-40,-59,-57
-59,-51,7,49,-30,-23,80,78,24,-40,-59,-57
-59,-51,7,49,-30,-23,80,78,24,-40,-59,-57
-59,-51,7,49,-30,-23,80,78,24,-40,-59,-57
-59,-51,1,49,-30,-29,80,78,24,-40,-59,-57
-59,-51,1,49,-30,-29,80,78,24,-40,-59,-57
-59,-51,1,49,-30,-29,80,78,24,-40,-59,-57
-59,-51,1,49,-30,-29,80,78,24,-40,-59,-57
-53,-51,1,49,-24,-29,80,78,24,-46,-59,-57
-47,-51,1,49,-18,-29,80,78,24,-46,-59,-57
-47,-51,1,49,-18,-29,80,78,24,-46,-59,-57
-47,-51,1,49,-18,-29,80,78,24,-46,-59,-57
-47,-57,-5,49,-18,-29,80,78,24,-40,-59,-57
-47,-57,-5,49,-18,-29,80,78,24,-40,-59,-57
-53,-57,-5,49,-24,-29,80,78,24,-40,-59,-57
-59,-57,1,55,-30,-29,80,78,24,-34,-59,-57
-65,-57,7,55,-36,-29,80,78,24,-34,-59,-57
-65,-57,7,55,-36,-29,80,78,24,-34,-59,-57
-65,-57,7,55,-36,-29,80,78,24,-34,-59,-57
-65,-57,7,61,-36,-29,80,78,24,-34,-59,-57
-71,-57,13,61,-42,-23,86,84,24,-34,-59,-57
-71,-57,13,61,-42,-23,86,84,24,-34,-59,-57
-65,-57,7,55,-36,-23,86,84,24,-40,-59,-57
-65,-57,7,55,-36,-23,86,84,24,-40,-59,-57
-65,-57,7,55,-36,-23,86,84,24,-40,-59,-57
-65,-57,7,55,-36,-23,86,84,24,-40,-59,-57
-65,-57,7,55,-36,-23,86,90,24,-40,-59,-57
-65,-57,7,55,-36,-23,86,90,24,-40,-59,-57
-65,-57,7,55,-36,-23,86,90,24,-40,-59,-57
-65,-57,7,55,-36,-23,86,90,24,-40,-59,-57
-59,-57,7,55,-36,-23,86,90,24,-40,-59,-57
-59,-57,7,55,-36,-23,86,90,24,-40,-59,-57
-59,-57,7,55,-36,-23,86,90,24,-40,-59,-57
-59,-57,1,55,-30,-23,86,90,24,-40,-59,-57
-53,-57,-5,55,-24,-23,86,90,24,-40,-59,-57
-47,-57,-10,49,-12,-29,86,90,24,-40,-59,-57
-47,-57,-10,49,-12,-29,86,90,24,-40,-59,-57
-47,-57,-10,49,-12,-29,86,90,24,-40,-59,-57
-47,-63,-10,55,-12,-29,86,90,24,-40,-59,-57
-47,-69,-10,55,-12,-35,86,90,24,-40,-59,-57
-47,-69,-10,55,-12,-35,86,90,24,-40,-59,-57
-47,-69,-10,55,-12,-35,86,90,24,-40,-59,-57
-47,-69,-10,55,-18,-35,86,90,24,-40,-59,-57
-53,-69,-5,55,-24,-35,86,90,24,-40,-59,-57
-53,-69,-5,55,-24,-35,86,90,24,-40,-59,-57
-53,-63,-5,55,-24,-35,86,90,24,-40,-59,-57
-47,-57,-5,49,-24,-29,86,90,24,-40,-59,-57
-47,-57,-5,49,-24,-29,86,90,24,-40,-59,-57
-47,-57,-5,49,-24,-29,86,90,24,-40,-59,-57
-47,-57,-5,49,-24,-29,86,90,24,-40,-59,-57
-47,-57,-5,49,-24,-29,86,96,24,-40,-59,-57
-53,-57,-5,55,-30,-29,86,96,24,-40,-59,-57
-65,-57,1,61,-42,-29,86,96,24,-40,-59,-57
-71,-63,1,67,-42,-29,92,102,24,-40,-53,-57
-71,-63,1,67,-42,-29,92,102,24,-40,-53,-57
-71,-63,1,67,-36,-29,92,102,24,-40,-53,-57
-65,-63,1,67,-30,-29,92,102,24,-40,-53,-57
-65,-63,1,67,-30,-29,92,102,24,-40,-53,-57
-65,-63,1,67,-30,-29,92,102,24,-40,-53,-57
-65,-63,1,67,-30,-29,92,102,24,-40,-53,-57
-65,-63,1,67,-30,-29,92,102,24,-40,-53,-57
-65,-63,1,67,-30,-29,92,102,24,-40,-53,-57
-59,-63,1,67,-30,-29,92,102,24,-40,-53,-57
-59,-63,1,67,-30,-29,92,102,24,-40,-53,-57
-59,-63,1,67,-30,-29,92,102,24,-40,-53,-57
-59,-63,1,67,-30,-29,92,102,24,-40,-53,-57
-65,-63,1,67,-30,-29,92,102,24,-40,-53,-57
-71,-63,1,67,-30,-29,92,108,24,-40,-53,-51
-71,-63,1,67,-30,-29,92,108,24,-40,-53,-51
-65,-63,-5,67,-30,-29,92,108,24,-40,-53,-51
-65,-69,-5,67,-30,-29,92,108,24,-40,-53,-51
-65,-69,-5,67,-30,-29,92,108,30,-40,-53,-51
-65,-69,-5,67,-30,-29,92,108,30,-40,-53,-51
-65,-69,-5,67,-30,-29,92,108,30,-40,-53,-51
-65,-69,-5,67,-30,-29,92,114,30,-40,-53,-51
-65,-69,1,67,-30,-29,92,114,30,-40,-53,-51
-65,-69,1,67,-30,-29,92,114,30,-40,-53,-51
-65,-69,1,67,-30,-29,92,114,30,-40,-53,-51
-65,-75,1,67,-30,-29,92,120,30,-40,-53,-51
-65,-75,1,67,-30,-29,92,126,30,-40,-53,-51
-65,-75,1,67,-30,-29,98,132,30,-40,-53,-51
-59,-75,1,67,-30,-29,98,138,30,-40,-53,-51
-53,-75,-5,61,-24,-29,98,144,36,-40,-53,-51
-53,-75,-5,61,-24,-29,98,144,42,-40,-53,-51
-47,-69,-5,55,-24,-29,92,144,48,-34,-47,-45
-41,-57,-5,43,-18,-29,80,138,60,-28,-41,-45
-35,-33,-5,31,-18,-23,68,132,72,-22,-35,-39
-29,-21,-5,19,-18,-11,62,132,84,-16,-29,-33
-17,-9,-5,7,-12,-11,50,126,96,-10,-23,-27
6,2,-5,-4,-1,-11,38,120,108,-4,-17,-21
18,8,-5,-16,5,-11,32,114,120,1,-11,-21
18,14,1,-16,5,-5,26,114,132,7,-5,-21
18,14,7,-16,5,1,26,114,144,13,-5,-15
18,14,7,-16,5,1,26,114,144,19,-5,-9
18,14,7,-22,5,1,20,114,144,25,-5,-9
24,14,1,-22,5,1,14,114,144,25,0,-9
24,14,1,-22,5,1,14,114,144,25,0,-4
24,14,1,-22,5,1,14,114,138,31,0,-4
30,20,1,-28,11,1,2,108,120,31,6,2
42,20,-5,-34,23,1,-9,84,102,31,6,8
48,20,-10,-34,29,1,-15,72,78,31,6,8
54,20,-16,-34,35,1,-21,66,66,31,6,8
54,20,-22,-34,41,1,-27,60,54,31,6,8
54,20,-22,-34,41,1,-27,54,48,31,6,8
54,20,-22,-34,41,1,-27,54,42,25,6,2
54,14,-28,-34,41,-5,-27,54,36,19,0,-4
54,2,-40,-28,41,-17,-21,54,36,13,-5,-9
54,-9,-52,-22,41,-29,-9,60,36,1,-11,-15
54,-15,-58,-16,41,-35,2,66,36,-4,-17,-21
48,-21,-64,-10,41,-41,14,72,36,-10,-23,-21
48,-27,-70,-4,41,-41,20,78,30,-16,-29,-27
42,-33,-76,1,41,-47,26,84,30,-22,-35,-33
36,-33,-76,7,41,-47,32,90,30,-22,-35,-33
36,-33,-76,7,41,-47,32,90,30,-22,-35,-33
30,-33,-76,7,41,-47,32,90,36,-22,-35,-33
24,-39,-76,7,41,-47,32,90,42,-22,-35,-33
12,-45,-70,13,35,-47,44,96,54,-22,-35,-33
-17,-51,-58,25,17,-47,56,108,78,-22,-35,-33
-23,-57,-52,37,5,-47,68,126,90,-22,-35,-33
-29,-63,-46,43,-1,-47,80,138,96,-22,-35,-33
-41,-63,-40,55,-12,-47,86,144,102,-22,-35,-33
-47,-63,-34,61,-18,-47,92,150,108,-22,-35,-39
-53,-63,-28,67,-24,-47,98,156,114,-22,-35,-39
-65,-69,-22,73,-30,-47,104,162,138,-22,-35,-39
-71,-75,-16,79,-36,-47,116,174,180,-22,-35,-45
-71,-75,-16,79,-36,-47,122,180,222,-22,-35,-45
-65,-75,-22,79,-30,-53,122,180,276,-22,-35,-45
-53,-75,-34,73,-18,-59,122,180,318,-16,-35,-45
-35,-75,-40,61,-6,-59,116,180,390,-4,-35,-45
-17,-63,-40,43,-1,-53,110,180,468,25,-29,-45
-5,-51,-40,31,5,-47,104,180,540,55,-17,-45
0,-39,-40,25,5,-41,98,180,558,85,-5,-39
6,-27,-40,13,5,-29,86,180,564,115,6,-33
18,-4,-40,-4,5,-17,80,186,570,145,18,-27
24,8,-34,-16,5,-11,80,198,570,175,30,-15
30,20,-28,-28,5,-5,74,210,540,187,48,-9
36,32,-16,-34,5,6,68,216,420,211,60,-4
48,44,-10,-46,11,18,56,216,264,223,72,2
60,74,1,-58,17,30,44,216,108,253,84,14
66,98,13,-70,17,54,32,216,-6,271,96,20
72,110,19,-76,17,66,20,216,-107,283,102,26
78,116,19,-88,23,66,8,216,-173,295,102,26
96,116,7,-100,35,66,-3,216,-239,307,102,26
174,128,-22,-142,77,66,-33,216,-353,319,108,26
288,176,-64,-232,155,66,-93,192,-497,337,150,50
378,248,-82,-328,215,72,-201,120,-671,349,234,116
480,350,-94,-418,281,90,-315,24,-851,361,348,236
618,434,-136,-520,371,108,-417,-71,-1043,373,498,380
762,542,-172,-646,473,138,-549,-197,-1247,397,678,548
930,680,-202,-790,563,192,-729,-383,-1475,415,858,734
1050,824,-202,-934,611,276,-909,-605,-1709,439,1038,926
1122,962,-196,-1042,641,366,-1065,-803,-1877,469,1224,1106
1182,1058,-172,-1114,647,450,-1185,-983,-2003,493,1404,1286
1224,1124,-154,-1174,653,492,-1293,-1127,-2111,493,1518,1400
1254,1154,-142,-1204,659,510,-1353,-1217,-2213,457,1560,1454
1260,1160,-136,-1210,665,516,-1383,-1259,-2255,349,1560,1472
1248,1148,-130,-1198,665,516,-1383,-1259,-2255,223,1506,1466
1122,998,-130,-1054,641,456,-1269,-1199,-2189,67,1278,1334
954,734,-172,-838,617,288,-1035,-983,-1955,-100,972,1094
810,452,-298,-622,593,78,-825,-767,-1685,-268,666,830
690,248,-370,-460,581,-65,-639,-599,-1433,-382,378,608
570,128,-400,-352,533,-131,-507,-467,-1211,-454,156,410
450,62,-400,-250,437,-149,-399,-383,-1019,-484,-23,248
306,14,-340,-160,305,-149,-303,-299,-863,-490,-119,134
198,-9,-256,-100,209,-149,-231,-233,-713,-484,-161,74
126,-21,-196,-58,149,-137,-183,-173,-611,-448,-173,38
78,-33,-154,-28,107,-125,-135,-125,-503,-394,-173,14
48,-45,-124,1,83,-113,-105,-77,-413,-340,-173,-9
30,-51,-112,13,71,-107,-69,-41,-347,-298,-167,-21
18,-57,-100,25,59,-101,-27,-11,-281,-250,-155,-27
-11,-63,-70,37,35,-89,-3,24,-209,-202,-143,-27
-35,-63,-46,49,5,-77,20,54,-143,-166,-131,-27
-41,-69,-40,55,-6,-71,44,84,-101,-142,-119,-33
-41,-75,-40,61,-6,-71,56,96,-71,-130,-113,-39
-41,-81,-40,61,-6,-71,68,108,-35,-118,-107,-45
-47,-87,-40,67,-12,-71,80,120,-17,-112,-107,-51
-59,-93,-40,79,-18,-71,92,132,-6,-106,-107,-63
-65,-99,-40,85,-18,-71,98,138,6,-100,-107,-75
-65,-99,-40,85,-18,-71,104,144,12,-100,-107,-81
-71,-99,-40,85,-18,-71,110,150,24,-100,-107,-87
-77,-99,-34,91,-24,-71,116,156,30,-100,-107,-93
-83,-99,-34,97,-24,-71,122,162,36,-100,-107,-99
-83,-105,-34,97,-24,-71,128,162,42,-100,-107,-99
-89,-105,-34,103,-30,-71,128,168,48,-100,-107,-99
-95,-105,-34,103,-36,-71,134,174,60,-100,-107,-99
-95,-105,-34,103,-36,-71,134,180,66,-94,-107,-99
-95,-105,-34,103,-36,-71,140,186,72,-94,-107,-99
-101,-105,-28,103,-42,-71,140,192,78,-88,-107,-99
-107,-105,-16,109,-48,-71,140,198,84,-82,-107,-99
-113,-105,-10,109,-54,-65,146,204,90,-76,-107,-99
-113,-105,-10,109,-54,-65,146,204,96,-76,-107,-99
-113,-105,-10,109,-54,-65,146,204,102,-76,-107,-99
-113,-105,-10,109,-60,-65,146,204,102,-70,-107,-99
-119,-105,-5,109,-72,-59,146,204,108,-70,-107,-99
-119,-105,-5,109,-72,-59,146,204,114,-70,-107,-99
-119,-105,-10,109,-72,-59,146,204,114,-70,-107,-99
-119,-105,-10,109,-72,-59,146,204,114,-70,-107,-99
-119,-105,-10,109,-72,-59,146,204,114,-70,-107,-99
-119,-105,-10,109,-72,-59,146,204,114,-70,-107,-99
-119,-105,-10,109,-66,-59,146,204,114,-70,-107,-99
-113,-99,-10,103,-60,-59,146,204,114,-70,-107,-99
-107,-99,-10,103,-54,-59,146,204,114,-70,-107,-99
-107,-99,-16,103,-48,-59,146,204,114,-70,-107,-99
-101,-105,-22,103,-42,-65,146,204,114,-70,-107,-99
-95,-105,-28,103,-42,-65,146,204,120,-64,-107,-99
-95,-105,-28,103,-42,-65,146,204,126,-64,-107,-99
-95,-105,-22,103,-48,-65,146,204,132,-58,-107,-99
-101,-105,-16,103,-54,-65,146,204,132,-58,-107,-99
-107,-105,-10,103,-54,-65,146,204,138,-58,-107,-99
-113,-105,-10,103,-54,-59,146,204,144,-52,-107,-99
-113,-105,-10,103,-54,-59,146,204,144,-52,-107,-99
-113,-105,-10,103,-54,-59,146,204,144,-52,-107,-99
-113,-105,-5,103,-54,-59,146,204,144,-52,-107,-99
-113,-105,-5,103,-54,-59,146,204,144,-52,-107,-99
-107,-99,-5,97,-54,-59,146,204,150,-46,-107,-99
-101,-93,-5,97,-54,-53,146,204,150,-46,-101,-99
-101,-93,-5,97,-54,-53,146,204,156,-46,-101,-99
-101,-93,-5,103,-54,-53,146,204,156,-46,-101,-99
-101,-93,-5,103,-54,-53,146,204,156,-46,-101,-99
-107,-93,-5,103,-54,-53,146,204,162,-46,-95,-93
-107,-93,-5,103,-54,-53,146,204,162,-46,-89,-93
-107,-93,7,103,-60,-47,146,210,162,-40,-89,-93
-113,-93,13,103,-66,-41,146,210,168,-34,-83,-87
-113,-93,13,103,-66,-41,146,210,168,-28,-83,-87
-113,-93,13,103,-66,-41,140,210,168,-28,-83,-87
-113,-87,13,103,-66,-41,140,210,168,-28,-83,-87
-107,-87,13,97,-66,-41,140,210,168,-28,-83,-87
-101,-87,13,91,-60,-41,140,210,168,-28,-83,-87
-95,-87,13,91,-54,-41,134,210,168,-28,-83,-87
-89,-87,13,91,-54,-41,128,210,168,-28,-83,-87
-83,-81,13,85,-54,-41,128,210,168,-28,-83,-87
-77,-81,13,79,-54,-41,128,210,168,-28,-83,-87
-77,-81,13,79,-54,-41,128,210,174,-28,-83,-87
-83,-81,13,79,-54,-41,128,210,180,-28,-83,-87
-83,-81,13,79,-54,-41,128,210,186,-22,-77,-87
-83,-81,13,79,-54,-41,128,210,192,-16,-77,-81
-83,-81,13,79,-54,-41,128,210,198,-16,-77,-81
-77,-81,7,79,-48,-41,128,210,198,-16,-77,-81
-71,-81,1,79,-42,-41,128,210,198,-10,-71,-75
-71,-81,1,79,-42,-41,128,210,204,-10,-65,-75
-71,-75,7,79,-48,-41,128,210,210,-10,-65,-69
-77,-69,13,79,-54,-35,128,210,216,-10,-59,-69
-83,-63,25,79,-60,-29,128,210,222,-4,-53,-69
-89,-63,31,79,-66,-23,128,210,228,-4,-53,-63
-89,-57,31,79,-66,-23,122,210,228,-4,-53,-63
-77,-51,25,73,-54,-23,110,210,228,-4,-53,-63
-65,-51,13,61,-36,-23,98,204,228,-4,-53,-63
-59,-45,13,55,-30,-23,92,204,228,1,-47,-63
-59,-39,13,55,-30,-17,92,198,234,7,-47,-57
-53,-39,13,55,-30,-17,86,198,240,13,-41,-57
-47,-39,13,49,-30,-17,86,198,246,19,-35,-51
-41,-39,13,43,-30,-17,86,198,252,25,-35,-51
-35,-33,13,37,-30,-17,86,198,258,25,-35,-51
-35,-33,7,31,-24,-17,80,198,258,31,-29,-45
-35,-33,1,31,-18,-17,80,192,264,31,-29,-39
-29,-33,-5,31,-12,-17,80,186,270,37,-23,-33
-29,-27,-5,31,-12,-17,80,186,282,43,-11,-27
-29,-27,-5,31,-12,-17,80,186,294,55,0,-21
-29,-21,-5,31,-12,-11,80,186,300,61,6,-15
-23,-15,1,25,-12,-5,74,186,306,67,12,-9
-17,-9,1,19,-12,-5,68,186,312,67,18,-4
-11,-4,1,13,-12,-5,62,186,318,73,24,-4
-11,2,1,7,-12,1,56,180,318,79,30,2
-11,14,7,1,-12,6,56,180,324,85,36,8
-11,26,13,-4,-12,12,50,174,324,91,42,14
-5,38,19,-10,-12,24,44,168,330,97,48,20
0,50,25,-16,-12,30,38,168,336,103,60,26
0,56,31,-22,-12,36,32,162,342,115,78,38
6,56,31,-28,-12,36,26,162,348,121,90,44
18,62,31,-34,-12,42,14,156,354,127,96,50
30,62,31,-40,-6,42,8,150,354,133,102,56
42,62,31,-46,-6,42,8,150,354,139,102,56
42,62,31,-52,-1,42,2,144,354,145,114,62
42,68,31,-58,-1,48,2,144,354,157,126,74
42,80,31,-64,-1,54,-3,138,354,163,132,86
48,86,31,-70,5,54,-9,132,354,169,138,92
54,92,31,-70,11,54,-21,126,354,175,144,98
66,98,31,-76,17,54,-33,120,354,175,150,104
78,110,31,-88,17,60,-39,114,354,181,156,110
90,122,31,-100,23,66,-45,108,354,187,162,116
102,128,31,-112,29,66,-51,102,348,187,168,122
108,134,31,-124,29,72,-57,96,342,187,174,122
114,146,31,-136,29,78,-57,90,336,187,180,122
114,152,31,-142,29,84,-63,90,330,187,192,128
114,158,31,-142,29,90,-69,84,330,193,204,140
120,164,31,-142,35,90,-75,78,324,199,210,152
126,170,31,-148,47,90,-81,66,312,199,216,158
132,170,31,-148,53,90,-93,54,300,199,222,164
144,176,31,-154,59,90,-99,48,288,199,228,170
150,176,31,-160,59,90,-105,42,282,199,234,176
150,176,31,-160,59,90,-111,42,276,205,246,188
150,182,37,-160,59,96,-117,36,264,205,252,194
156,188,37,-166,59,96,-129,30,240,205,258,200
174,194,25,-178,71,96,-135,24,216,205,258,206
186,200,19,-190,83,96,-141,18,198,205,270,218
192,206,19,-196,89,96,-147,12,186,205,276,224
192,218,19,-202,89,102,-147,6,168,205,282,230
192,218,19,-202,89,108,-153,6,156,205,288,230
192,218,19,-202,89,108,-153,6,144,205,288,236
192,218,19,-202,89,108,-153,0,132,205,288,236
192,218,19,-202,89,114,-159,0,108,205,288,242
192,218,19,-202,89,114,-165,0,84,205,288,242
198,218,19,-202,95,114,-165,-5,72,199,288,242
204,218,13,-208,101,114,-165,-11,54,199,288,242
210,218,7,-208,107,108,-165,-11,36,193,288,242
210,218,1,-208,107,108,-165,-11,24,187,288,242
210,218,1,-208,107,108,-165,-11,12,181,288,242
210,218,1,-208,107,102,-165,-11,0,175,288,242
216,218,-5,-208,113,96,-165,-11,-6,175,288,236
216,212,-10,-208,113,96,-165,-11,-11,175,288,236
216,206,-10,-208,113,96,-165,-11,-17,175,288,230
204,200,-10,-202,113,96,-165,-11,-23,169,282,230
192,194,-10,-190,107,96,-165,-11,-29,163,276,224
186,188,-5,-184,101,96,-159,-5,-35,163,270,224
174,182,7,-178,89,96,-147,0,-35,163,264,218
156,176,19,-166,77,96,-141,6,-35,157,258,212
150,164,19,-154,71,90,-135,12,-41,151,246,200
150,152,19,-148,71,84,-129,12,-41,139,234,188
150,146,19,-142,71,78,-129,12,-41,133,216,176
144,140,19,-136,71,72,-123,18,-41,127,204,170
120,134,19,-124,65,72,-117,30,-41,127,198,164
90,128,19,-112,47,72,-105,36,-41,127,186,158
78,122,25,-100,35,72,-93,42,-41,127,180,152
72,116,25,-94,29,72,-87,48,-47,121,168,140
72,110,25,-94,29,66,-87,48,-47,109,156,122
78,104,19,-94,29,60,-81,48,-47,97,138,104
78,92,13,-88,29,54,-75,54,-47,85,126,92
72,80,13,-82,29,48,-69,66,-47,79,120,86
60,74,19,-70,23,48,-63,78,-47,79,114,80
54,68,19,-64,17,48,-57,84,-47,79,108,74
48,62,19,-58,17,42,-57,84,-47,73,102,74
48,62,19,-52,17,42,-51,90,-47,67,96,74
48,56,19,-52,17,36,-45,90,-47,61,84,68
48,56,13,-52,17,30,-39,90,-47,55,78,56
48,50,7,-46,17,24,-39,96,-47,55,66,50
36,38,7,-40,11,24,-33,102,-47,55,60,44
24,32,13,-28,5,24,-27,102,-47,55,54,44
12,26,19,-16,-1,24,-27,108,-47,55,48,38
6,26,19,-10,-6,24,-21,114,-41,49,48,38
0,20,19,-4,-6,24,-15,120,-35,49,42,38
-11,20,19,1,-12,24,-9,126,-35,49,42,38
-23,20,25,1,-24,24,-3,126,-35,49,42,32
-23,20,25,1,-24,24,-3,126,-35,43,42,32
-23,20,25,1,-24,24,-3,132,-29,43,36,26
-23,14,25,1,-24,24,-3,132,-29,43,30,26
-23,8,25,7,-24,24,2,132,-29,43,30,26
-17,8,25,7,-24,12,2,132,-29,43,24,20
-11,8,19,7,-18,6,2,132,-29,37,24,14
-11,8,19,7,-18,6,2,132,-29,37,18,8
-11,8,19,7,-18,6,2,132,-29,37,18,2
-17,2,19,13,-18,6,2,132,-23,37,18,2
-23,2,19,19,-18,6,2,132,-17,37,18,2
-23,2,19,19,-18,6,2,132,-17,37,18,-4
-23,2,19,19,-18,6,2,132,-17,31,12,-9
-23,2,19,19,-18,6,2,132,-17,31,12,-9
-23,2,19,19,-18,6,8,138,-11,31,12,-9
-29,2,25,19,-24,6,14,144,-6,31,12,-9
-29,2,25,19,-30,6,20,144,0,31,12,-9
-29,2,25,19,-30,6,20,144,0,31,12,-9
-29,2,25,19,-30,6,20,144,0,31,12,-9
-35,-4,25,19,-30,6,20,144,0,31,12,-9
-35,-4,25,19,-30,6,20,144,0,31,12,-9
-41,-4,25,19,-36,6,20,144,0,31,12,-9
-47,-4,25,25,-36,6,20,144,0,31,12,-9
-47,-4,25,31,-36,6,20,144,0,31,12,-9
-47,-4,25,31,-36,6,26,144,6,31,6,-9
-41,-4,25,31,-36,6,26,144,6,31,6,-9
-41,-4,25,31,-36,6,26,144,6,31,6,-9
-47,-4,31,31,-42,6,26,150,6,31,6,-9
-47,-4,31,31,-42,6,26,150,6,31,6,-9
-47,-9,31,31,-42,6,26,150,6,31,6,-9
-47,-9,31,31,-42,6,26,150,12,31,0,-9
-47,-9,31,31,-42,6,26,150,18,31,0,-9
-47,-9,31,31,-42,6,26,150,18,31,0,-9
-47,-9,31,31,-42,6,32,150,18,31,0,-9
-47,-15,31,37,-42,6,32,150,24,31,0,-9
-53,-15,31,43,-42,6,32,156,24,31,0,-9
-53,-21,31,43,-42,6,32,156,24,31,-5,-9
-53,-27,31,49,-42,6,32,156,24,31,-11,-15
-53,-27,31,49,-42,6,32,156,24,31,-11,-15
-53,-27,31,49,-42,6,32,162,24,31,-11,-15
-53,-27,31,49,-42,6,32,162,24,31,-17,-15
-53,-27,31,49,-42,6,32,162,24,31,-17,-15
-53,-27,31,49,-42,6,32,162,24,31,-17,-21
-53,-27,31,49,-42,6,32,162,24,31,-17,-21
-53,-27,31,49,-42,6,32,162,24,31,-17,-21
-53,-27,31,49,-42,6,32,162,24,31,-23,-21
-53,-27,31,49,-42,6,32,162,24,31,-23,-21
-53,-27,31,49,-42,6,32,162,24,31,-23,-21
-53,-27,31,49,-42,6,32,162,24,25,-29,-27
-53,-27,31,49,-42,1,32,162,24,25,-29,-33
-53,-33,31,49,-42,-5,32,162,30,25,-29,-33
-53,-33,31,49,-42,-5,38,168,30,25,-29,-33
-53,-33,31,49,-42,-5,38,168,30,25,-29,-33
-53,-33,31,49,-42,-5,38,168,30,25,-29,-33
-53,-33,31,49,-42,-5,38,168,30,25,-29,-33
-53,-33,31,49,-42,-5,38,174,30,25,-29,-33
-59,-33,31,49,-48,-5,38,180,36,25,-29,-33
-65,-33,37,49,-54,1,38,180,36,25,-29,-33
-71,-33,43,49,-60,1,38,180,36,25,-29,-33
-77,-33,43,49,-60,1,38,180,36,25,-29,-33
-77,-33,49,49,-60,1,38,186,36,19,-29,-33
-77,-33,49,49,-60,1,38,186,36,19,-29,-33
-77,-33,43,49,-60,1,38,186,36,19,-35,-33
-71,-33,31,49,-48,-5,38,186,36,19,-35,-33
-65,-33,25,49,-42,-11,38,186,36,13,-35,-33
-59,-33,19,49,-36,-17,38,186,36,7,-35,-39
-59,-33,19,49,-30,-17,38,186,36,1,-35,-45
-59,-33,19,49,-30,-17,38,186,36,1,-35,-45
-59,-33,13,49,-30,-17,38,186,36,1,-35,-45
-59,-33,13,49,-30,-17,38,186,36,1,-35,-45
-59,-39,13,49,-30,-17,38,186,36,-4,-35,-45
-59,-45,13,49,-30,-17,38,186,36,-4,-35,-45
-59,-45,13,55,-36,-17,38,186,36,-4,-35,-45
-65,-45,19,55,-42,-17,44,186,36,-4,-35,-45
-65,-45,19,55,-42,-17,44,186,36,-4,-35,-45
-71,-45,19,55,-42,-17,44,186,36,-4,-35,-45
-77,-51,19,61,-48,-17,44,186,36,-4,-35,-45
-77,-51,19,61,-48,-17,50,192,36,-4,-35,-45
-77,-51,19,61,-48,-17,50,192,36,-10,-41,-45
-71,-51,19,61,-42,-17,50,192,36,-16,-47,-51
-71,-51,19,61,-42,-17,50,192,36,-22,-47,-51
-65,-51,13,61,-42,-17,50,192,36,-22,-47,-51
-65,-51,13,61,-42,-17,50,192,36,-22,-47,-51
-65,-51,13,61,-42,-17,50,192,36,-22,-47,-51
-65,-51,13,61,-42,-17,50,192,36,-22,-47,-51
-65,-51,7,61,-42,-23,50,192,36,-22,-47,-51
-65,-51,7,61,-42,-23,50,192,36,-22,-47,-51
-65,-51,7,61,-42,-23,50,192,36,-22,-47,-51
-65,-51,7,61,-42,-23,50,192,36,-22,-47,-51
-65,-51,7,61,-42,-29,50,192,36,-28,-47,-51
-65,-51,7,61,-42,-29,50,192,30,-28,-47,-51
-65,-51,7,61,-42,-29,50,192,30,-28,-47,-51
-71,-57,7,61,-42,-29,50,192,30,-28,-47,-57
-71,-63,7,61,-42,-29,50,192,30,-28,-53,-57
-71,-63,7,61,-42,-29,50,192,30,-28,-53,-57
-71,-63,7,61,-42,-29,50,192,30,-28,-53,-57
-71,-63,7,61,-42,-29,50,192,30,-34,-59,-57
-71,-63,7,61,-42,-29,50,192,30,-34,-59,-57
-71,-63,7,61,-42,-29,50,192,30,-34,-59,-57
-71,-63,7,61,-42,-29,50,192,30,-34,-59,-57
-71,-63,13,61,-42,-29,50,192,30,-34,-59,-57
-65,-63,13,61,-42,-29,50,192,30,-34,-59,-57
-65,-63,13,61,-42,-29,56,192,30,-34,-59,-57
-71,-63,19,61,-48,-29,62,198,30,-34,-59,-57
-83,-63,19,67,-54,-29,62,198,30,-34,-59,-57
-89,-63,19,67,-54,-29,62,198,30,-34,-59,-57
-95,-63,19,73,-54,-29,62,198,30,-34,-59,-57
-95,-63,19,73,-54,-29,62,204,30,-34,-59,-57
-95,-63,19,73,-54,-29,68,204,30,-34,-59,-57
-95,-63,19,73,-54,-29,68,204,30,-34,-59,-63
-95,-63,19,73,-54,-29,68,204,30,-34,-65,-63
-89,-63,19,73,-54,-29,68,204,30,-40,-65,-63
-83,-63,13,73,-54,-29,68,204,30,-40,-65,-63
-83,-63,13,73,-54,-29,68,204,30,-40,-65,-63
-83,-63,13,73,-54,-29,68,204,30,-40,-65,-63
-83,-63,13,73,-54,-29,68,204,30,-40,-65,-69
-83,-63,13,73,-54,-29,68,204,30,-40,-65,-69
-83,-63,13,73,-54,-29,68,204,30,-40,-65,-69
-83,-63,13,73,-54,-29,68,204,30,-40,-65,-69
-83,-63,13,73,-54,-29,68,204,30,-40,-65,-69
-89,-63,19,73,-54,-29,68,204,30,-40,-65,-69
-95,-63,31,73,-60,-23,74,204,30,-40,-65,-69
-101,-63,37,73,-66,-23,74,204,30,-40,-65,-69
-101,-63,37,79,-66,-23,74,204,30,-40,-65,-69
-101,-63,37,79,-66,-23,74,204,30,-46,-71,-69
-95,-63,31,79,-60,-23,74,204,30,-52,-77,-75
-95,-63,31,79,-60,-23,74,204,30,-52,-77,-75
-95,-63,31,79,-60,-23,74,204,30,-52,-77,-75
-95,-63,31,79,-60,-23,74,204,30,-52,-77,-75
-95,-63,31,79,-60,-23,74,204,24,-52,-77,-75
-95,-63,31,79,-60,-23,74,204,24,-52,-77,-75
-95,-63,31,79,-60,-23,74,204,24,-52,-77,-75
-95,-63,37,79,-60,-23,74,204,24,-52,-77,-75
-95,-63,37,79,-60,-23,74,204,24,-52,-77,-75
-83,-63,31,73,-54,-23,74,204,24,-52,-83,-75
-71,-63,19,73,-42,-23,74,204,24,-52,-83,-75
-71,-63,13,73,-42,-29,74,204,24,-52,-83,-75
-71,-63,7,73,-42,-29,74,204,24,-52,-83,-75
-71,-63,1,73,-42,-29,74,204,24,-52,-83,-75
-71,-63,1,73,-42,-29,74,204,24,-52,-83,-75
-71,-63,1,73,-36,-29,74,204,24,-52,-83,-75
-65,-63,-5,73,-30,-29,74,204,24,-52,-89,-75
-65,-63,-5,73,-30,-29,74,204,24,-52,-89,-75
-71,-63,1,79,-36,-29,74,204,24,-52,-89,-75
-77,-63,7,79,-42,-29,74,204,24,-52,-89,-75
-83,-63,13,79,-42,-29,74,204,24,-52,-89,-75
-83,-63,13,79,-42,-29,74,204,24,-52,-89,-75
-83,-63,13,79,-42,-29,74,204,24,-52,-89,-75
-83,-63,13,79,-42,-29,74,204,24,-52,-89,-75
-83,-63,13,79,-42,-29,74,204,24,-52,-89,-75
-83,-63,13,79,-42,-29,74,204,24,-52,-89,-75
-83,-63,13,79,-42,-29,74,204,24,-52,-89,-75
-83,-63,13,73,-42,-29,74,204,24,-52,-89,-75
-83,-63,13,73,-42,-29,74,204,24,-52,-89,-75
-83,-63,13,73,-48,-29,74,204,24,-52,-89,-75
-83,-63,13,79,-48,-29,74,204,24,-52,-89,-75
-83,-63,13,79,-48,-29,74,204,24,-52,-89,-75
-83,-63,13,79,-48,-29,74,204,24,-52,-89,-75
-83,-63,13,79,-48,-29,74,204,24,-52,-89,-75
-83,-63,13,79,-48,-29,74,204,24,-52,-89,-75
-83,-63,13,79,-48,-29,74,204,24,-52,-89,-75
-83,-63,13,79,-48,-29,74,204,24,-52,-89,-75
-83,-63,13,79,-48,-29,74,204,24,-52,-89,-75
-83,-63,13,79,-48,-29,74,204,24,-52,-89,-75
-83,-63,13,79,-48,-29,74,204,24,-52,-89,-75
-83,-63,13,79,-48,-29,74,204,24,-52,-89,-75
-89,-69,13,79,-48,-29,74,204,24,-52,-89,-75
-89,-75,13,79,-48,-29,74,204,24,-52,-89,-75
-89,-75,13,79,-48,-29,74,204,24,-52,-89,-75
-89,-75,13,79,-48,-29,74,204,24,-52,-89,-75
-89,-75,13,79,-48,-29,74,204,24,-52,-89,-75
-89,-75,13,79,-48,-29,74,204,24,-52,-89,-75
-89,-75,13,79,-48,-29,74,204,24,-52,-89,-75
-89,-75,13,79,-48,-29,74,204,24,-52,-89,-75
-89,-75,19,79,-48,-29,74,204,24,-52,-89,-75
-89,-75,19,79,-54,-29,74,204,24,-52,-89,-75
-89,-75,19,79,-54,-29,74,204,24,-52,-89,-75
-89,-75,19,79,-54,-29,74,204,24,-52,-89,-75
-89,-75,25,79,-54,-23,74,204,24,-52,-89,-75
-89,-75,25,79,-54,-23,74,204,24,-52,-89,-75
-89,-75,25,79,-54,-23,74,204,24,-52,-89,-75
-89,-75,25,79,-54,-23,74,204,24,-52,-89,-75
-89,-75,25,79,-54,-23,74,204,24,-52,-89,-75
-89,-75,25,79,-54,-23,74,204,24,-52,-89,-75
-89,-75,25,79,-54,-23,74,204,24,-52,-89,-75
-89,-75,19,79,-54,-23,74,204,24,-52,-89,-75
-83,-75,19,79,-48,-23,74,204,24,-52,-89,-75
-83,-75,19,79,-48,-23,74,204,24,-52,-89,-75
-77,-75,19,79,-48,-23,74,204,24,-52,-89,-75
-71,-75,7,73,-42,-23,74,204,24,-52,-89,-75
-59,-69,1,61,-30,-23,68,204,24,-52,-89,-75
-53,-57,1,55,-30,-17,62,204,24,-52,-89,-75
-53,-45,13,49,-30,-11,56,198,30,-52,-89,-75
-53,-39,19,49,-30,-5,56,198,42,-52,-83,-69
-53,-33,19,49,-30,-5,56,198,66,-40,-71,-63
-47,-21,25,37,-30,1,50,198,84,-34,-65,-57
-47,-9,31,31,-30,12,44,192,90,-22,-53,-51
-47,2,61,25,-42,36,38,192,102,-10,-41,-45
-47,8,73,25,-54,48,32,186,120,1,-35,-39
-47,14,73,25,-60,54,32,186,132,13,-29,-33
-47,14,73,25,-60,54,32,186,144,19,-23,-27
-47,14,73,25,-60,54,26,186,150,25,-23,-27
-29,14,55,19,-48,42,20,186,150,25,-23,-27
0,14,19,7,-18,30,14,186,150,25,-23,-27
18,14,-5,1,5,18,14,186,150,25,-23,-27
24,14,-10,-4,11,12,8,186,150,31,-17,-27
30,14,-10,-10,17,12,2,186,144,37,-11,-21
36,14,-16,-16,23,12,-9,180,132,37,-5,-21
42,14,-16,-22,23,12,-21,162,102,37,-5,-21
42,14,-16,-28,23,12,-33,132,84,37,-5,-21
42,14,-16,-34,23,12,-39,120,66,37,-5,-21
42,14,-16,-34,23,12,-39,114,54,31,-5,-21
36,8,-16,-28,23,1,-39,114,42,19,-11,-21
36,-4,-28,-22,29,-11,-39,114,36,7,-17,-21
42,-4,-40,-22,41,-23,-39,114,30,-4,-23,-21
48,-4,-46,-22,47,-23,-39,114,24,-16,-29,-27
48,-4,-52,-22,53,-29,-33,114,18,-22,-35,-33
42,-15,-58,-16,53,-35,-21,120,12,-28,-41,-39
30,-27,-58,-4,41,-41,-9,126,12,-34,-47,-39
12,-33,-52,1,29,-41,2,132,12,-34,-53,-39
0,-39,-52,7,23,-41,8,138,12,-34,-53,-39
-5,-39,-52,13,17,-41,14,138,12,-34,-53,-45
-5,-39,-46,19,11,-41,14,138,18,-34,-53,-45
-11,-39,-40,25,5,-41,14,138,24,-34,-53,-45
-17,-39,-34,31,-1,-41,20,138,36,-34,-53,-45
-23,-45,-28,43,-1,-41,32,144,54,-34,-53,-51
-29,-51,-28,49,-1,-41,44,156,72,-34,-59,-51
-41,-63,-28,55,-6,-41,56,162,84,-34,-59,-51
-71,-75,-22,61,-18,-41,68,174,96,-34,-59,-51
-77,-81,-16,67,-30,-41,80,186,102,-34,-59,-51
-77,-81,-16,73,-30,-41,86,192,108,-34,-65,-57
-77,-81,-16,73,-30,-41,86,198,120,-34,-65,-57
-77,-81,-10,73,-36,-41,92,204,150,-34,-65,-57
-77,-81,-5,73,-42,-41,92,210,204,-34,-65,-57
-77,-81,1,79,-48,-41,92,216,270,-28,-65,-57
-77,-81,1,79,-48,-41,92,222,330,-22,-59,-57
-65,-75,1,73,-36,-41,92,222,390,-10,-53,-57
-41,-63,1,49,-24,-41,86,222,462,1,-47,-57
-29,-51,1,37,-18,-35,80,222,552,37,-35,-57
-17,-39,1,19,-12,-35,74,222,594,73,-23,-51
-5,-27,1,7,-6,-29,62,222,624,103,-11,-45
12,8,1,-16,-1,-17,50,222,660,139,0,-39
36,50,1,-40,5,6,38,228,678,163,24,-33
48,74,7,-52,5,30,32,240,678,175,42,-27
48,86,13,-58,5,42,26,246,600,187,54,-21
48,98,25,-64,5,54,2,246,432,199,66,-9
54,110,37,-76,5,72,-15,240,240,211,78,2
60,128,43,-88,5,84,-45,228,30,217,90,14
72,140,49,-100,5,96,-69,210,-185,217,102,26
84,146,49,-118,5,102,-99,180,-383,217,114,38
96,158,49,-130,11,108,-135,138,-527,223,120,50
114,182,49,-160,23,114,-171,96,-653,235,132,62
138,212,55,-172,29,126,-201,66,-713,241,144,74
168,224,55,-184,47,126,-219,48,-755,241,144,80
240,230,13,-214,107,120,-243,42,-797,235,144,80
300,236,-28,-250,155,114,-273,36,-887,211,144,86
354,272,-58,-298,197,114,-333,6,-1031,181,156,110
438,320,-82,-388,257,114,-429,-77,-1253,151,210,182
564,392,-124,-490,329,126,-543,-233,-1523,139,312,272
732,494,-190,-622,455,132,-705,-407,-1811,127,420,398
948,578,-310,-766,629,132,-867,-587,-2081,103,546,530
1110,656,-406,-886,755,132,-1023,-767,-2297,91,708,686
1230,734,-442,-976,839,132,-1161,-929,-2482,85,882,854
1332,836,-472,-1072,893,144,-1299,-1097,-2644,79,1062,1004
1440,914,-484,-1168,953,174,-1431,-1253,-2758,79,1218,1154
1494,986,-484,-1234,983,216,-1515,-1361,-2794,79,1350,1280
1512,1028,-484,-1264,989,252,-1539,-1391,-2788,85,1428,1340
1506,1034,-466,-1270,983,282,-1539,-1391,-2662,97,1458,1370
1434,1028,-424,-1246,929,294,-1491,-1367,-2476,109,1458,1370
1284,950,-394,-1132,839,288,-1359,-1271,-2285,97,1350,1328
1122,728,-394,-940,797,192,-1155,-1091,-2099,-70,1056,1100
954,482,-430,-718,743,30,-939,-893,-1859,-256,720,848
792,290,-460,-538,683,-89,-747,-713,-1607,-394,402,602
666,176,-466,-412,605,-143,-609,-599,-1385,-484,174,422
540,80,-466,-298,533,-179,-501,-503,-1163,-514,18,284
420,8,-454,-196,443,-197,-399,-395,-971,-514,-71,182
324,-21,-400,-142,353,-197,-315,-317,-815,-514,-119,98
234,-39,-334,-106,269,-191,-255,-257,-713,-502,-149,50
168,-45,-250,-70,209,-179,-207,-203,-611,-460,-161,20
114,-51,-208,-40,161,-155,-165,-161,-521,-412,-167,-4
48,-63,-160,-4,119,-143,-117,-119,-437,-352,-167,-21
-17,-69,-94,37,41,-113,-75,-77,-329,-298,-167,-27
-59,-75,-40,61,-6,-83,-33,-29,-245,-238,-155,-33
-83,-81,-10,73,-30,-71,-9,12,-179,-202,-149,-39
-95,-87,-5,85,-42,-65,14,42,-107,-178,-143,-51
-107,-93,1,97,-54,-59,44,72,-59,-154,-137,-57
-113,-99,1,103,-54,-59,68,90,-23,-142,-131,-63
-113,-105,1,109,-54,-59,80,108,-6,-136,-125,-63
-113,-111,-5,109,-54,-59,86,120,6,-130,-125,-69
-113,-111,-10,109,-48,-65,92,126,12,-130,-125,-81
-113,-117,-16,109,-48,-71,98,132,18,-130,-125,-87
-113,-123,-16,115,-48,-71,104,132,24,-124,-125,-93
-125,-123,-10,115,-54,-71,104,138,36,-118,-125,-93
-131,-123,1,115,-66,-71,110,138,48,-112,-125,-99
-131,-123,1,115,-66,-71,116,144,60,-112,-125,-105
-131,-123,1,115,-66,-71,116,144,72,-112,-125,-105
-131,-123,1,115,-66,-71,116,144,78,-106,-125,-105
-131,-123,1,121,-66,-71,122,150,84,-100,-125,-105
-131,-123,1,121,-66,-71,122,156,90,-100,-125,-105
-131,-123,7,121,-66,-71,128,156,96,-94,-125,-105
-131,-123,7,121,-66,-71,128,162,102,-94,-125,-105
-131,-123,7,121,-66,-71,128,162,102,-94,-125,-105
-131,-123,7,121,-66,-71,128,162,102,-94,-125,-105
-131,-123,7,121,-66,-71,128,162,102,-94,-125,-105
-131,-123,7,121,-66,-71,134,162,108,-88,-125,-105
-137,-123,7,127,-66,-71,140,162,114,-88,-125,-105
-143,-123,13,133,-72,-71,140,162,120,-88,-125,-105
-149,-123,19,139,-84,-71,140,162,126,-88,-125,-105
-155,-123,25,139,-90,-65,140,162,132,-82,-119,-105
-161,-123,31,139,-96,-65,140,162,132,-76,-119,-105
-161,-123,37,139,-96,-65,140,162,132,-76,-119,-105
-167,-123,37,145,-102,-65,140,162,132,-76,-119,-105
-167,-123,37,145,-102,-59,140,162,138,-76,-119,-105
-167,-123,37,145,-102,-53,140,168,144,-76,-119,-105
-161,-117,37,139,-102,-47,140,168,144,-76,-119,-105
-155,-117,37,133,-96,-47,140,168,144,-76,-119,-105
-149,-117,37,133,-96,-47,140,168,144,-76,-119,-105
-143,-117,37,133,-90,-47,140,168,144,-76,-119,-105
-143,-117,37,133,-90,-47,140,168,144,-76,-119,-105
-143,-117,37,133,-90,-47,140,168,144,-70,-119,-105
-143,-117,37,133,-90,-47,140,168,144,-70,-119,-105
-143,-117,37,133,-90,-47,140,168,150,-70,-119,-105
-143,-117,37,133,-90,-47,140,168,150,-70,-119,-105
-143,-117,37,133,-90,-47,140,168,156,-70,-113,-105
-149,-117,43,133,-96,-41,140,168,162,-64,-107,-105
-155,-117,43,133,-102,-41,140,168,162,-64,-101,-105
-155,-117,43,133,-102,-41,140,168,168,-58,-101,-105
-155,-117,43,133,-102,-41,140,168,168,-58,-101,-105
-149,-117,43,127,-96,-41,140,168,168,-58,-101,-105
-143,-117,43,127,-90,-41,140,168,174,-58,-101,-105
-137,-117,43,127,-84,-41,140,162,174,-58,-101,-105
-137,-117,43,127,-84,-41,140,162,174,-58,-101,-105
-137,-117,43,127,-84,-41,140,162,174,-58,-101,-105
-137,-111,43,127,-84,-41,140,162,174,-58,-101,-105
-137,-111,43,127,-84,-41,140,162,180,-58,-101,-105
-137,-111,43,127,-84,-41,140,162,186,-52,-101,-105
-137,-111,43,127,-84,-41,140,162,192,-52,-101,-105
-137,-111,43,127,-84,-41,140,162,198,-52,-101,-105
-137,-111,37,127,-84,-41,134,162,204,-52,-101,-105
-137,-111,37,127,-84,-41,134,162,210,-52,-95,-105
-137,-105,43,127,-84,-35,134,162,210,-52,-89,-105
-137,-99,49,121,-84,-29,134,162,210,-52,-89,-99
-137,-99,49,121,-84,-29,134,162,210,-46,-89,-99
-137,-99,49,121,-84,-29,134,162,216,-40,-89,-99
-137,-99,49,121,-84,-29,134,156,222,-34,-89,-99
-137,-93,49,115,-84,-29,134,156,228,-28,-89,-99
-131,-87,49,109,-84,-29,134,150,234,-28,-89,-99
-131,-81,49,109,-84,-29,128,144,240,-22,-89,-99
-131,-81,49,109,-84,-23,128,144,246,-16,-83,-99
-131,-81,55,109,-84,-17,128,144,252,-16,-83,-99
-131,-81,61,109,-90,-17,128,144,258,-10,-83,-93
-131,-81,61,109,-90,-17,128,144,264,-4,-77,-87
-131,-75,61,109,-90,-17,122,144,270,-4,-77,-87
-131,-75,61,109,-90,-17,116,138,276,1,-77,-81
-131,-75,61,109,-90,-17,116,138,282,7,-71,-75
-131,-69,61,109,-90,-11,116,138,294,13,-65,-75
-131,-69,61,103,-90,-11,110,138,300,19,-65,-69
-131,-69,61,97,-90,-11,110,138,306,19,-65,-69
-131,-69,61,97,-90,-11,110,138,318,25,-59,-69
-125,-63,61,97,-90,-11,110,132,324,31,-53,-69
-119,-57,61,91,-90,-11,104,126,330,31,-47,-69
-113,-51,61,85,-84,-11,98,126,336,37,-41,-69
-107,-51,61,85,-84,-11,92,126,348,43,-41,-69
-107,-51,61,85,-84,-11,92,126,360,49,-35,-69
-107,-51,61,85,-84,-11,92,126,366,55,-35,-69
-101,-51,61,79,-84,-5,92,126,372,61,-29,-63
-101,-45,61,73,-84,1,92,126,378,73,-23,-51
-101,-39,67,73,-84,6,92,126,390,85,-11,-39
-101,-39,73,73,-84,12,92,126,402,91,-5,-33
-101,-33,73,67,-84,18,86,120,408,97,0,-27
-95,-27,73,61,-84,24,80,114,414,97,6,-27
-83,-15,73,49,-78,24,74,108,420,103,12,-27
-71,-9,73,43,-72,24,68,102,426,109,18,-27
-65,-4,73,37,-72,30,62,102,432,115,24,-21
-65,2,73,31,-72,36,56,102,444,121,30,-21
-59,14,73,25,-72,42,50,96,450,127,36,-15
-47,20,73,19,-72,42,44,90,456,133,42,-9
-41,26,73,13,-66,42,44,90,462,139,48,-4
-41,32,73,7,-66,48,38,84,468,151,54,8
-41,38,73,1,-66,54,32,84,474,157,66,14
-35,44,73,-4,-60,54,26,78,474,163,78,26
-23,50,73,-10,-54,54,20,72,474,169,90,32
-17,62,73,-16,-48,60,14,66,474,175,96,38
-11,74,79,-22,-48,66,8,60,474,187,108,44
-5,80,79,-28,-48,72,2,54,480,193,114,50
0,92,79,-34,-48,78,-9,48,480,199,120,56
12,98,79,-46,-36,78,-15,42,480,205,126,62
24,104,79,-58,-30,78,-21,42,480,211,132,68
30,110,79,-64,-30,90,-27,36,480,217,138,74
30,122,85,-76,-30,96,-33,30,480,223,144,80
36,128,85,-82,-24,102,-39,24,480,223,150,86
36,128,85,-88,-24,102,-45,12,474,223,156,92
42,128,85,-94,-18,102,-51,6,468,229,162,98
54,134,79,-100,-6,102,-57,-5,462,229,168,104
66,140,73,-106,-1,102,-63,-11,450,235,168,104
78,146,67,-112,11,102,-75,-17,432,235,174,110
96,152,61,-118,23,102,-87,-29,420,235,174,116
108,158,55,-124,29,102,-93,-35,408,235,174,116
120,158,49,-130,35,102,-99,-41,396,235,180,122
126,158,49,-136,47,102,-105,-47,384,235,192,128
138,164,49,-148,53,102,-111,-53,354,235,198,140
144,170,49,-154,53,102,-117,-59,342,235,204,146
150,170,43,-154,59,102,-117,-59,318,235,210,152
150,170,43,-154,59,102,-117,-59,300,235,216,152
150,170,43,-154,59,102,-123,-59,282,235,222,158
150,170,43,-154,59,102,-123,-65,258,235,228,164
150,170,43,-154,59,102,-123,-71,240,235,228,164
156,170,37,-154,59,102,-123,-77,222,235,228,164
156,170,37,-154,59,102,-123,-77,198,235,228,164
156,170,37,-154,59,102,-123,-77,186,229,228,164
150,170,37,-154,59,102,-123,-77,168,223,228,164
138,164,37,-148,59,102,-123,-77,156,217,228,164
132,164,37,-142,53,102,-123,-77,150,211,228,164
126,158,37,-136,47,102,-123,-77,138,205,228,164
114,158,43,-130,41,102,-123,-77,126,205,222,164
114,158,43,-124,35,102,-123,-77,114,199,216,164
114,152,37,-124,35,96,-123,-77,90,193,204,158
114,146,31,-118,35,90,-123,-77,78,187,198,146
102,134,31,-112,35,84,-117,-77,72,175,192,140
96,122,25,-106,35,78,-111,-77,66,163,180,134
96,116,13,-106,41,66,-111,-77,54,139,168,122
96,110,7,-106,47,60,-111,-77,42,127,150,110
96,104,7,-106,47,54,-105,-77,30,115,138,92
96,98,7,-100,47,48,-99,-77,24,109,120,80
96,86,7,-94,47,42,-93,-77,18,103,108,68
90,74,7,-82,47,36,-87,-77,18,97,96,62
78,68,7,-70,41,36,-81,-77,12,91,90,56
54,56,7,-58,29,36,-69,-71,12,85,84,50
24,44,7,-40,17,30,-57,-65,12,79,84,44
6,38,13,-28,5,30,-51,-59,12,73,72,44
-5,32,13,-16,-1,30,-45,-47,12,67,60,38
-11,26,13,-10,-6,30,-33,-41,12,61,48,32
-11,20,13,-4,-6,24,-27,-35,12,55,36,26
-17,8,13,1,-6,18,-21,-35,12,49,24,20
-23,2,13,7,-12,18,-15,-35,12,49,18,20
-23,-4,13,13,-12,18,-9,-29,12,49,12,14
-23,-15,13,13,-12,12,-9,-29,12,43,6,8
-23,-21,13,13,-12,6,-3,-29,12,31,0,2
-29,-21,13,13,-12,6,-3,-29,12,19,-5,-4
-41,-21,19,19,-18,6,2,-29,12,13,-11,-9
-59,-21,25,31,-30,6,8,-29,12,7,-11,-9
-65,-27,25,37,-36,6,14,-29,12,7,-11,-9
-65,-27,25,37,-36,1,14,-23,6,1,-17,-15
-59,-27,19,37,-30,-5,14,-23,0,1,-23,-21
-53,-33,13,37,-24,-11,14,-23,0,-4,-29,-21
-53,-39,13,37,-24,-11,14,-23,0,-4,-29,-21
-53,-45,13,43,-24,-11,14,-23,0,-10,-29,-21
-53,-51,13,43,-24,-11,14,-23,0,-10,-29,-21
-53,-51,13,43,-24,-11,20,-23,0,-16,-29,-21
-53,-51,13,43,-24,-11,20,-23,0,-16,-29,-21
-53,-51,13,49,-24,-11,20,-23,0,-16,-29,-21
-53,-51,13,49,-24,-17,20,-23,0,-16,-29,-27
-53,-51,13,49,-24,-17,20,-23,0,-16,-35,-27
-59,-51,13,49,-24,-17,26,-17,0,-16,-35,-27
-65,-51,13,49,-30,-17,32,-17,0,-16,-35,-27
-65,-51,13,49,-30,-17,32,-17,0,-22,-35,-27
-65,-51,13,49,-30,-17,32,-17,0,-22,-41,-27
-65,-51,19,49,-30,-17,32,-17,-6,-22,-41,-27
-65,-51,19,49,-30,-17,32,-17,-6,-22,-41,-27
-65,-51,19,49,-30,-17,32,-17,-6,-22,-41,-27
-65,-51,19,49,-30,-17,32,-17,-6,-22,-41,-27
-65,-51,19,49,-30,-17,32,-17,-6,-22,-41,-27
-65,-51,19,55,-30,-17,32,-17,-6,-22,-41,-27
-65,-51,19,55,-30,-17,32,-17,-6,-22,-41,-27
-71,-51,19,55,-36,-17,32,-17,-6,-22,-41,-27
-71,-51,19,55,-36,-17,32,-17,-6,-22,-41,-27
-71,-51,19,55,-36,-23,32,-17,-6,-22,-41,-27
-71,-51,19,61,-36,-23,32,-17,-6,-22,-41,-27
-77,-51,25,67,-48,-23,32,-17,-6,-22,-41,-27
-83,-51,31,67,-54,-17,32,-17,-6,-22,-41,-27
-83,-51,37,67,-60,-11,32,-17,-6,-22,-41,-27
-83,-51,37,67,-60,-11,32,-17,-6,-22,-41,-27
-77,-51,31,67,-54,-11,32,-17,-6,-22,-47,-27
-71,-51,19,67,-42,-11,32,-17,-6,-22,-47,-27
-71,-51,13,67,-42,-17,32,-17,-6,-22,-53,-27
-71,-51,13,67,-42,-17,32,-17,-6,-22,-53,-27
-71,-51,13,67,-42,-17,32,-17,-6,-22,-53,-27
-71,-51,13,67,-42,-17,32,-17,-6,-22,-53,-27
-71,-51,13,67,-42,-17,32,-17,-6,-22,-53,-27
-77,-51,13,67,-48,-17,32,-17,-6,-22,-53,-27
-77,-51,13,67,-54,-17,32,-17,-6,-28,-53,-27
-77,-51,13,67,-54,-17,32,-17,-6,-28,-53,-27
-77,-51,13,67,-48,-17,32,-17,0,-28,-53,-27
-65,-51,7,61,-36,-17,32,-23,0,-28,-53,-27
-65,-51,7,61,-36,-17,32,-23,0,-28,-53,-27
-71,-51,19,61,-42,-17,32,-23,0,-28,-53,-27
-83,-51,31,61,-48,-11,32,-23,6,-28,-53,-27
-83,-51,31,61,-48,-11,32,-23,6,-28,-53,-27
-83,-51,31,61,-48,-11,32,-23,6,-28,-53,-27
-83,-51,31,61,-48,-11,32,-23,12,-28,-53,-27
-83,-51,31,61,-48,-11,32,-23,18,-28,-53,-27
-83,-51,31,61,-54,-11,32,-23,24,-28,-53,-27
-89,-51,31,67,-60,-11,38,-23,24,-28,-53,-27
-89,-51,31,67,-60,-11,44,-23,24,-28,-53,-27
-89,-51,31,67,-60,-11,44,-23,24,-28,-53,-27
-89,-51,31,67,-60,-11,44,-23,24,-28,-53,-27
-89,-51,37,67,-66,-11,44,-23,24,-28,-53,-27
-95,-51,37,67,-66,-11,44,-23,24,-28,-53,-27
-95,-51,37,67,-66,-11,44,-23,24,-28,-53,-27
-89,-51,31,67,-54,-11,44,-29,24,-28,-53,-27
-77,-51,25,67,-48,-11,38,-35,24,-28,-53,-33
-77,-51,25,67,-48,-11,38,-35,24,-28,-53,-33
-77,-51,25,67,-48,-11,38,-35,30,-28,-53,-33
-77,-51,31,67,-54,-11,38,-35,30,-28,-53,-33
-77,-51,31,67,-54,-11,38,-35,30,-28,-53,-33
-77,-51,31,67,-54,-11,38,-35,30,-28,-53,-33
-83,-51,31,73,-54,-11,38,-35,30,-28,-53,-33
-95,-51,37,79,-60,-11,38,-35,30,-28,-53,-33
-101,-51,43,85,-66,-11,38,-35,30,-28,-53,-33
-101,-51,43,85,-66,-11,38,-35,30,-28,-53,-39
-101,-51,43,85,-66,-11,38,-35,30,-28,-53,-39
-101,-51,43,85,-72,-11,44,-35,30,-28,-53,-39
-107,-51,49,85,-84,-11,44,-35,36,-28,-53,-39
-107,-51,55,85,-90,-11,44,-35,36,-28,-53,-39
-107,-51,55,85,-90,-11,44,-35,36,-28,-59,-39
-107,-51,55,85,-90,-11,44,-35,36,-28,-59,-39
-113,-51,55,85,-90,-11,44,-35,36,-28,-59,-39
-119,-51,61,85,-90,-5,50,-35,36,-28,-59,-39
-119,-51,61,85,-90,-5,56,-35,36,-28,-59,-39
-113,-51,55,85,-84,-5,56,-41,36,-34,-65,-45
-107,-51,49,85,-78,-5,56,-41,36,-34,-65,-51
-101,-51,43,85,-72,-5,56,-41,36,-34,-71,-51
-101,-51,37,85,-66,-5,56,-47,36,-34,-77,-51
-101,-51,37,85,-66,-5,50,-47,36,-40,-83,-51
-95,-51,37,79,-60,-5,50,-47,36,-40,-83,-51
-95,-51,31,79,-60,-5,50,-47,36,-40,-83,-51
-95,-57,31,79,-60,-5,50,-47,36,-40,-83,-51
-95,-57,31,79,-60,-5,50,-47,36,-40,-83,-51
-95,-57,31,79,-60,-5,50,-47,36,-40,-83,-51
-95,-63,25,79,-60,-11,50,-47,36,-46,-83,-51
-95,-69,25,79,-60,-17,50,-47,36,-46,-83,-51
-107,-69,37,85,-72,-17,56,-47,36,-46,-83,-51
-113,-69,49,85,-84,-17,62,-47,36,-46,-83,-51
-113,-69,55,85,-90,-17,62,-47,36,-46,-83,-51
-113,-69,55,85,-90,-17,62,-47,36,-46,-83,-51
-113,-69,55,85,-90,-17,62,-47,36,-46,-83,-51
-113,-69,55,85,-84,-17,62,-53,36,-46,-83,-51
-107,-69,49,85,-78,-17,62,-53,36,-46,-83,-51
-101,-69,43,85,-72,-17,62,-59,30,-46,-83,-51
-101,-69,43,85,-72,-17,62,-59,30,-46,-83,-51
-101,-69,43,85,-72,-17,62,-59,30,-46,-83,-51
-101,-69,43,85,-72,-17,62,-59,30,-46,-83,-51
-101,-69,43,85,-72,-17,62,-59,24,-46,-83,-51
-101,-69,43,85,-72,-17,62,-59,24,-46,-83,-51
-101,-69,43,85,-72,-17,62,-59,24,-46,-83,-51
-101,-69,43,85,-72,-17,62,-59,24,-46,-83,-51
-101,-69,43,85,-72,-17,62,-59,24,-46,-83,-51
-101,-69,43,85,-72,-11,62,-59,24,-46,-83,-51
-107,-69,43,85,-78,-11,62,-59,24,-46,-83,-51
-113,-69,43,85,-84,-11,62,-59,24,-46,-83,-51
-113,-69,43,85,-84,-11,62,-59,24,-46,-83,-51
-113,-69,43,85,-84,-11,62,-59,24,-46,-83,-51
-113,-69,43,85,-78,-11,62,-59,24,-46,-83,-51
-113,-69,37,85,-78,-17,62,-59,24,-46,-83,-51
-113,-69,37,85,-78,-23,62,-59,24,-46,-83,-51
-113,-69,31,91,-78,-23,62,-59,24,-46,-83,-51
-107,-69,19,91,-72,-29,62,-59,24,-52,-89,-51
-101,-69,13,91,-66,-29,62,-65,18,-52,-95,-57
-101,-69,13,91,-66,-29,62,-65,18,-52,-95,-57
-101,-69,13,91,-66,-29,62,-65,18,-52,-95,-57
-101,-69,13,91,-66,-29,62,-71,18,-52,-95,-57
-101,-69,13,91,-66,-29,62,-71,18,-52,-95,-57
-101,-69,19,91,-66,-29,62,-71,18,-52,-95,-57
-101,-69,25,91,-66,-29,62,-71,18,-52,-95,-57
-101,-69,31,91,-72,-29,62,-71,18,-52,-95,-57
-101,-69,31,91,-72,-29,62,-71,18,-52,-95,-57
-101,-69,31,91,-72,-29,62,-71,18,-52,-95,-57
-101,-69,31,91,-72,-29,62,-77,18,-52,-95,-57
-101,-69,31,91,-72,-29,62,-77,18,-52,-95,-57
-101,-69,31,91,-72,-29,62,-77,18,-52,-95,-57
-101,-69,31,91,-72,-29,62,-77,18,-52,-95,-57
-101,-69,31,91,-72,-29,62,-77,18,-52,-95,-57
-101,-69,31,91,-72,-29,62,-77,18,-52,-95,-57
-101,-69,31,91,-72,-29,62,-83,18,-52,-95,-57
-101,-69,31,91,-72,-29,62,-83,18,-52,-95,-57
-101,-69,31,91,-72,-29,62,-83,18,-52,-95,-57
-101,-69,31,91,-72,-29,62,-83,18,-52,-95,-57
-101,-69,31,91,-72,-29,62,-83,18,-52,-95,-57
-101,-69,31,91,-72,-29,62,-83,18,-52,-95,-57
-101,-75,31,91,-72,-29,62,-83,18,-52,-95,-57
-101,-75,31,91,-72,-29,62,-83,18,-52,-95,-57
-101,-75,31,91,-72,-29,62,-83,18,-52,-95,-57
-101,-75,31,91,-72,-29,62,-83,18,-52,-95,-57
-101,-75,31,91,-72,-29,62,-83,18,-52,-95,-57
-101,-75,25,91,-72,-29,62,-83,18,-52,-95,-57
-101,-75,25,91,-72,-29,62,-83,18,-52,-95,-57
-101,-75,25,91,-72,-29,62,-83,18,-52,-95,-57
-101,-75,25,91,-66,-29,62,-89,18,-52,-95,-57
-101,-75,25,91,-66,-29,62,-89,18,-58,-95,-57
-101,-75,25,91,-66,-29,62,-89,18,-58,-95,-57
-107,-75,31,91,-72,-29,62,-89,18,-58,-95,-57
-107,-75,31,91,-72,-29,62,-89,18,-58,-95,-57
-107,-75,31,91,-72,-29,62,-89,18,-58,-95,-57
-107,-75,31,91,-72,-29,62,-89,18,-58,-95,-57
-107,-75,31,91,-72,-29,62,-89,18,-58,-95,-57
-107,-75,31,91,-72,-29,62,-89,18,-58,-95,-57
-107,-75,31,91,-72,-29,62,-89,18,-58,-95,-57
-107,-75,31,91,-72,-29,62,-89,18,-58,-95,-57
-107,-75,31,91,-72,-29,62,-95,18,-58,-95,-57
-107,-75,31,91,-72,-29,62,-95,18,-58,-95,-57
-107,-75,31,91,-72,-29,62,-95,18,-58,-95,-57
-107,-75,31,91,-72,-29,62,-95,18,-58,-95,-57
-107,-75,31,91,-72,-29,62,-95,18,-58,-95,-57
-107,-75,31,91,-72,-29,62,-95,18,-58,-95,-57
-107,-75,31,91,-72,-29,62,-95,18,-58,-95,-57
-107,-75,31,91,-72,-29,62,-95,18,-58,-95,-57
-107,-75,31,91,-72,-29,62,-95,18,-58,-95,-57
-107,-75,31,91,-72,-29,62,-95,18,-58,-95,-57
-107,-75,31,91,-72,-29,62,-95,18,-58,-95,-57
-101,-75,31,91,-72,-29,62,-95,18,-58,-95,-57
-101,-75,31,91,-72,-29,62,-95,18,-58,-95,-57
-101,-75,31,91,-72,-29,62,-95,18,-58,-95,-57
-101,-75,31,91,-72,-29,62,-95,18,-58,-95,-57
-101,-75,31,91,-72,-29,62,-95,18,-58,-95,-57
-101,-75,31,91,-72,-29,62,-95,18,-58,-95,-57
-101,-75,31,91,-72,-29,62,-95,18,-58,-95,-57
-107,-75,31,91,-72,-29,62,-101,18,-58,-95,-57
-113,-75,31,91,-72,-29,62,-101,18,-58,-95,-57
-113,-75,31,91,-72,-29,62,-101,18,-58,-95,-57
-113,-75,31,91,-72,-29,62,-107,18,-58,-95,-57
-113,-75,31,91,-72,-29,62,-107,18,-58,-95,-57
-107,-75,31,91,-66,-29,62,-107,12,-58,-95,-63
-107,-75,31,91,-66,-29,62,-107,12,-58,-95,-63
-107,-75,31,91,-66,-29,62,-107,12,-58,-95,-63
-107,-75,31,91,-66,-29,62,-107,12,-58,-95,-63
-107,-75,31,91,-66,-29,62,-107,12,-58,-95,-63
-107,-75,31,91,-66,-29,62,-113,12,-58,-95,-63
-101,-75,31,91,-60,-29,62,-119,12,-58,-95,-63
-95,-75,31,91,-54,-29,62,-119,12,-58,-95,-63
-89,-75,25,91,-48,-29,62,-119,12,-58,-95,-63
-83,-75,19,91,-42,-29,62,-119,12,-64,-95,-63
-83,-75,19,91,-42,-29,62,-119,12,-64,-95,-63
-95,-75,25,91,-48,-29,62,-119,12,-64,-95,-63
-101,-75,31,91,-60,-29,62,-119,12,-64,-95,-63
-107,-75,31,91,-60,-29,62,-119,12,-64,-95,-63
-107,-75,31,91,-60,-29,62,-119,12,-64,-95,-69
-107,-75,31,91,-60,-29,62,-119,12,-64,-95,-69
-107,-75,31,91,-60,-29,62,-119,12,-64,-95,-69
-107,-75,31,91,-60,-29,62,-119,12,-64,-95,-69
-113,-75,31,91,-66,-29,62,-119,12,-64,-95,-69
-119,-75,31,91,-66,-29,62,-119,12,-64,-95,-69
-119,-75,31,91,-66,-29,62,-119,12,-64,-95,-69
-119,-75,31,91,-66,-29,62,-119,12,-64,-95,-69
-119,-75,31,91,-66,-29,62,-119,12,-64,-95,-69
-119,-75,31,91,-66,-29,62,-119,12,-64,-95,-69
-119,-75,31,91,-66,-29,62,-119,12,-64,-95,-69
-119,-75,31,91,-66,-29,62,-119,18,-64,-95,-69
-113,-69,31,85,-66,-29,62,-119,18,-64,-95,-69
-113,-63,37,85,-66,-23,62,-119,24,-64,-95,-69
-113,-63,43,85,-66,-17,62,-119,30,-58,-89,-63
-113,-57,43,79,-66,-11,62,-119,36,-52,-83,-57
-107,-51,43,73,-66,-5,62,-119,42,-46,-77,-57
-95,-39,43,67,-66,1,56,-119,54,-40,-71,-51
-83,-21,43,55,-66,6,50,-119,66,-34,-65,-45
-77,-9,49,43,-66,12,38,-125,84,-28,-59,-39
-71,2,55,37,-66,18,26,-131,96,-16,-53,-33
-59,8,55,25,-60,24,20,-131,108,-10,-53,-27
-53,8,55,19,-54,24,14,-131,120,-4,-47,-21
-47,8,55,19,-54,24,8,-131,132,1,-41,-21
-41,14,55,13,-48,24,2,-131,138,1,-41,-21
-29,20,49,1,-30,24,2,-131,144,7,-35,-21
-5,20,25,-10,-1,24,2,-131,144,13,-29,-15
6,20,1,-16,11,18,-3,-131,144,13,-29,-15
18,20,-10,-22,17,12,-9,-125,144,19,-23,-15
24,26,-10,-28,17,12,-21,-125,144,25,-17,-9
24,32,-10,-28,17,12,-27,-125,138,31,-11,-4
24,32,-10,-28,17,12,-33,-137,126,37,-5,2
24,32,-10,-28,17,12,-39,-167,96,37,-5,2
24,32,-10,-28,17,12,-51,-197,66,37,-5,2
24,26,-10,-28,17,12,-51,-209,42,37,-5,2
18,20,-10,-22,17,12,-51,-209,30,25,-11,2
6,14,-10,-16,17,12,-45,-209,24,13,-17,-4
6,14,-10,-10,17,6,-45,-209,18,7,-23,-4
6,8,-16,-4,17,1,-45,-209,12,1,-29,-4
6,-4,-22,-4,17,-5,-39,-209,6,-10,-35,-9
6,-15,-28,1,17,-17,-33,-203,0,-22,-47,-21
6,-33,-34,13,17,-29,-27,-197,0,-28,-53,-27
6,-39,-40,19,17,-35,-21,-191,0,-34,-59,-33
6,-39,-46,19,23,-41,-21,-191,0,-34,-65,-39
6,-45,-58,19,35,-47,-21,-185,0,-40,-65,-45
6,-45,-64,19,35,-47,-15,-185,0,-40,-71,-45
0,-45,-58,25,35,-47,-3,-185,0,-40,-71,-45
-23,-45,-52,37,29,-47,8,-179,12,-40,-71,-45
-35,-51,-46,43,17,-47,14,-173,24,-40,-71,-45
-41,-57,-40,49,5,-47,20,-161,42,-40,-77,-51
-53,-63,-34,55,-6,-47,32,-149,54,-40,-77,-57
-65,-69,-28,67,-18,-47,44,-137,66,-40,-77,-57
-77,-69,-16,73,-24,-47,56,-125,78,-40,-77,-57
-83,-69,-5,73,-30,-47,62,-119,90,-40,-77,-57
-83,-69,1,73,-36,-47,62,-113,102,-40,-77,-57
-83,-69,7,73,-42,-47,62,-107,132,-34,-77,-57
-89,-69,13,73,-48,-41,68,-95,168,-28,-77,-57
-89,-69,13,73,-48,-41,74,-89,222,-22,-77,-57
-89,-69,13,73,-48,-41,74,-83,282,-16,-77,-57
-89,-69,13,73,-48,-41,74,-77,354,1,-65,-51
-89,-63,13,73,-48,-35,74,-71,450,25,-53,-45
-77,-45,13,61,-48,-29,68,-65,534,43,-35,-39
-41,-21,13,37,-30,-23,56,-65,582,67,-23,-33
-11,-4,13,13,-18,-17,38,-65,612,97,-11,-33
0,14,13,-4,-6,-5,20,-59,648,127,0,-27
18,26,13,-16,5,1,8,-47,666,151,12,-21
30,32,13,-28,17,6,2,-35,666,169,24,-15
42,50,13,-40,17,18,-3,-29,624,193,42,2
48,68,13,-52,17,30,-15,-29,498,211,60,20
54,86,19,-64,17,42,-45,-35,318,229,72,32
60,116,31,-76,17,66,-63,-41,138,235,90,44
72,146,37,-106,17,78,-99,-53,-77,241,96,56
90,158,37,-124,23,90,-129,-77,-281,241,102,62
114,170,37,-142,35,96,-165,-101,-449,241,114,74
138,188,37,-160,47,102,-201,-143,-605,247,126,86
168,200,37,-184,59,108,-237,-179,-689,247,138,98
192,218,37,-202,71,114,-267,-197,-749,247,144,110
222,236,31,-232,101,126,-279,-197,-779,247,150,116
276,266,7,-274,143,126,-291,-197,-839,247,150,122
384,308,-52,-334,227,126,-339,-209,-1007,217,150,128
474,350,-106,-406,287,126,-435,-305,-1217,175,162,152
570,410,-142,-502,359,126,-567,-455,-1475,145,228,218
696,488,-184,-598,449,126,-723,-641,-1751,133,336,326
858,560,-268,-712,575,126,-885,-845,-2027,121,456,440
1044,614,-382,-832,719,126,-1053,-1043,-2291,91,582,572
1218,680,-484,-946,863,120,-1215,-1241,-2506,73,726,710
1380,752,-568,-1066,983,114,-1365,-1445,-2710,61,858,842
1524,866,-616,-1192,1079,114,-1509,-1625,-2854,55,1002,998
1620,962,-634,-1288,1133,138,-1617,-1763,-2902,55,1146,1124
1656,1004,-640,-1324,1151,162,-1659,-1811,-2902,67,1242,1208
1656,1022,-640,-1330,1151,174,-1659,-1817,-2818,79,1290,1244
1632,1028,-610,-1324,1127,186,-1641,-1805,-2626,103,1308,1256
1512,1004,-568,-1264,1055,192,-1539,-1721,-2434,109,1302,1244
1356,836,-562,-1096,971,162,-1365,-1565,-2249,49,1110,1100
1170,578,-568,-880,911,18,-1137,-1355,-2033,-148,774,848
960,338,-580,-640,827,-113,-903,-1139,-1775,-322,456,608
762,164,-580,-472,719,-179,-723,-983,-1535,-442,198,416
624,68,-580,-352,629,-221,-603,-887,-1319,-484,12,266
510,20,-538,-262,545,-233,-513,-797,-1121,-496,-101,170
384,-15,-466,-184,431,-233,-417,-701,-935,-496,-155,98
276,-33,-376,-124,335,-227,-327,-623,-779,-484,-185,44
204,-39,-298,-82,257,-209,-261,-557,-671,-448,-197,14
126,-51,-238,-52,179,-179,-213,-503,-569,-406,-197,-15
78,-63,-178,-16,125,-155,-171,-437,-473,-358,-197,-27
24,-69,-112,19,77,-125,-129,-389,-389,-292,-191,-33
-17,-75,-52,49,17,-89,-93,-353,-311,-250,-179,-39
-53,-75,-16,61,-12,-71,-57,-317,-233,-208,-167,-45
-83,-81,1,73,-30,-59,-15,-275,-155,-166,-155,-51
-113,-87,13,85,-48,-53,20,-239,-89,-148,-143,-57
-125,-93,19,97,-54,-53,50,-215,-47,-136,-137,-57
-131,-99,13,109,-54,-59,62,-203,-17,-130,-137,-63
-131,-111,1,115,-54,-71,74,-185,0,-124,-137,-69
-131,-117,1,115,-54,-77,80,-173,12,-118,-137,-75
-131,-117,1,115,-54,-77,86,-161,18,-118,-137,-81
-137,-117,7,121,-66,-77,92,-149,30,-106,-137,-87
-143,-117,19,127,-78,-65,98,-143,42,-94,-137,-93
-143,-117,25,127,-78,-59,104,-143,48,-88,-137,-93
-143,-117,25,127,-78,-59,104,-137,54,-88,-137,-99
-143,-117,25,127,-78,-59,104,-137,60,-88,-137,-99
-155,-117,31,127,-84,-59,110,-131,72,-88,-137,-99
-173,-117,37,133,-96,-59,116,-125,84,-82,-137,-99
-185,-117,43,139,-108,-53,122,-119,90,-76,-137,-99
-191,-117,43,145,-114,-53,128,-113,96,-76,-137,-99
-191,-117,43,145,-114,-53,134,-113,102,-76,-137,-99
-191,-117,43,145,-114,-53,134,-113,108,-76,-137,-99
-191,-117,43,145,-114,-53,134,-113,114,-76,-137,-105
-191,-117,49,145,-114,-47,134,-113,114,-70,-137,-105
-191,-123,49,145,-114,-47,140,-113,120,-64,-137,-105
-191,-123,49,145,-114,-41,140,-107,126,-58,-137,-105
-191,-117,49,145,-114,-35,140,-107,132,-58,-137,-105
-191,-111,49,145,-114,-35,140,-107,132,-58,-137,-105
-191,-111,49,145,-108,-35,140,-107,132,-58,-137,-105
-185,-111,43,145,-102,-41,140,-107,132,-58,-137,-105
-179,-111,43,145,-102,-41,140,-107,132,-58,-137,-105
-173,-111,43,145,-102,-41,140,-107,132,-58,-137,-105
-173,-111,43,145,-102,-41,140,-107,132,-58,-137,-105
-173,-111,43,145,-102,-41,140,-107,132,-58,-137,-105
-167,-111,37,145,-96,-41,140,-107,132,-58,-137,-111
-167,-111,37,145,-90,-41,140,-107,132,-58,-137,-111
-161,-111,31,145,-84,-41,140,-107,132,-58,-137,-111
-155,-111,25,145,-84,-47,140,-107,138,-58,-137,-111
-155,-111,25,145,-84,-47,140,-107,144,-58,-137,-111
-161,-111,31,145,-90,-47,140,-107,150,-52,-137,-111
-161,-111,37,145,-90,-41,140,-107,156,-46,-131,-111
-161,-111,37,139,-90,-41,140,-107,156,-46,-131,-111
-161,-111,37,139,-90,-41,140,-107,156,-46,-131,-111
-161,-111,37,139,-90,-41,140,-107,156,-46,-125,-111
-167,-111,49,139,-102,-35,140,-107,156,-46,-125,-111
-167,-105,61,139,-108,-29,140,-107,162,-46,-125,-111
-167,-105,67,139,-108,-29,140,-107,162,-46,-125,-111
-167,-105,73,139,-114,-23,140,-107,168,-46,-125,-111
-167,-105,79,139,-114,-17,140,-107,174,-46,-125,-111
-167,-105,79,139,-114,-17,140,-107,180,-46,-125,-111
-167,-105,79,139,-114,-17,140,-107,186,-46,-119,-111
-167,-105,79,139,-114,-17,140,-107,186,-40,-113,-111
-167,-105,79,139,-114,-17,140,-107,192,-40,-113,-111
-167,-105,79,139,-114,-17,140,-107,192,-40,-113,-111
-167,-105,79,139,-114,-17,140,-107,192,-40,-107,-111
-167,-105,79,139,-114,-17,140,-107,198,-34,-107,-111
-167,-105,79,139,-114,-17,140,-107,198,-34,-107,-111
-167,-105,79,139,-108,-17,140,-107,198,-34,-107,-111
-167,-105,73,139,-108,-17,140,-107,204,-34,-101,-111
-167,-105,73,139,-108,-17,140,-107,210,-28,-101,-111
-167,-105,73,139,-114,-17,140,-107,216,-22,-95,-111
-167,-99,73,139,-114,-17,140,-107,222,-16,-89,-111
-167,-93,73,133,-114,-17,140,-107,222,-10,-83,-111
-167,-93,73,133,-114,-17,140,-107,222,-10,-83,-105
-167,-93,73,133,-114,-17,134,-107,228,-10,-83,-105
-167,-93,73,133,-114,-17,134,-107,234,-4,-77,-99
-167,-93,73,127,-114,-17,134,-101,246,-4,-71,-93
-167,-87,73,127,-114,-17,134,-101,252,-4,-71,-93
-167,-87,73,127,-114,-17,128,-101,258,-4,-71,-93
-155,-87,73,127,-108,-17,122,-101,258,-4,-71,-93
-149,-81,73,121,-102,-17,122,-101,258,-4,-71,-93
-149,-81,73,121,-102,-17,122,-101,258,1,-71,-93
-143,-81,73,115,-96,-17,116,-107,258,1,-71,-93
-137,-75,67,103,-84,-17,110,-107,264,1,-71,-93
-131,-69,67,97,-84,-17,104,-107,270,7,-71,-93
-131,-63,67,91,-84,-17,104,-107,276,13,-71,-93
-131,-63,67,91,-84,-17,104,-107,288,19,-71,-93
-125,-63,67,91,-84,-17,104,-113,294,25,-71,-93
-125,-57,67,91,-84,-11,104,-113,306,31,-65,-87
-125,-51,67,91,-84,-5,104,-113,318,37,-59,-81
-125,-51,67,91,-84,1,104,-113,330,43,-47,-75
-125,-51,67,91,-84,1,104,-113,336,49,-41,-69
-125,-51,67,91,-84,1,98,-113,342,55,-35,-63
-125,-51,67,91,-84,1,92,-113,348,61,-29,-63
-125,-51,67,91,-84,6,92,-113,354,67,-23,-57
-119,-51,67,85,-84,6,86,-113,366,67,-23,-57
-113,-45,67,73,-84,12,86,-113,378,73,-17,-57
-107,-39,67,67,-84,18,86,-113,384,79,-17,-51
-107,-27,73,61,-84,30,80,-113,390,85,-17,-51
-107,-15,79,61,-84,36,80,-119,402,91,-11,-45
-107,-4,91,55,-84,42,80,-125,414,103,0,-39
-107,8,103,49,-84,54,74,-125,426,115,12,-33
-101,14,103,43,-84,54,68,-125,432,121,18,-27
-89,20,103,37,-78,54,56,-131,438,127,24,-27
-83,26,103,31,-78,54,50,-131,438,133,30,-21
-83,32,103,25,-78,66,50,-131,444,139,36,-15
-83,38,109,19,-84,72,44,-131,456,145,48,-4
-83,44,115,19,-90,78,44,-131,462,157,54,2
-83,44,115,19,-90,84,38,-137,468,163,60,8
-77,50,115,13,-90,84,32,-143,474,169,66,8
-65,56,115,7,-84,84,26,-149,480,181,72,14
-59,62,115,1,-78,84,20,-149,486,193,84,26
-53,74,115,-4,-78,90,14,-155,492,205,96,38
-47,80,115,-16,-78,90,8,-161,492,211,108,44
-29,86,115,-28,-66,90,-3,-167,492,217,114,44
-11,92,109,-40,-54,90,-9,-173,492,217,120,50
0,98,109,-52,-48,96,-21,-179,492,223,126,56
12,104,109,-58,-42,96,-27,-185,492,229,132,62
24,110,103,-64,-30,96,-39,-191,492,235,138,68
36,122,97,-76,-24,96,-45,-197,486,235,144,68
48,134,97,-88,-18,102,-51,-203,480,235,150,74
48,146,97,-94,-18,108,-57,-203,480,241,162,86
48,152,97,-100,-18,114,-57,-209,480,247,174,98
54,158,97,-106,-12,120,-63,-215,474,253,186,104
66,164,91,-118,-6,120,-75,-221,456,259,192,110
78,164,85,-124,-1,120,-87,-227,444,259,198,116
84,170,79,-130,5,120,-93,-233,432,265,204,122
96,176,79,-136,11,120,-99,-239,420,265,204,128
102,176,79,-142,17,120,-105,-245,402,265,204,128
108,176,73,-142,23,120,-111,-251,390,265,204,134
108,176,73,-142,23,120,-117,-257,366,265,210,140
108,176,73,-142,23,120,-117,-257,354,265,216,146
114,176,73,-148,29,120,-123,-263,342,259,222,152
126,182,67,-154,41,120,-129,-269,324,259,222,158
132,182,61,-160,47,120,-135,-269,300,259,228,158
132,188,61,-160,47,120,-135,-275,276,259,228,158
138,188,49,-160,53,120,-135,-281,246,253,234,158
144,188,37,-166,59,120,-141,-287,216,247,234,158
156,188,25,-166,71,114,-147,-293,192,241,234,158
162,188,25,-166,71,114,-147,-293,180,241,234,164
162,188,25,-172,71,114,-147,-293,168,235,234,164
168,188,19,-172,71,108,-147,-293,150,223,234,164
168,182,7,-172,77,96,-147,-293,138,211,234,164
168,176,-5,-172,83,84,-147,-293,120,199,234,164
168,170,-5,-172,83,78,-147,-293,108,193,234,164
162,164,-5,-166,83,78,-147,-293,102,187,234,164
156,158,-5,-154,83,72,-147,-293,90,181,228,158
150,152,-5,-148,83,72,-147,-293,78,175,216,152
144,146,-5,-142,83,72,-141,-293,66,169,210,146
138,140,-5,-136,83,72,-135,-287,60,163,198,140
132,134,-5,-130,83,72,-129,-287,54,151,186,128
132,122,-10,-124,83,60,-129,-287,42,133,174,116
126,116,-16,-118,83,54,-123,-281,36,121,162,104
114,110,-16,-112,71,54,-117,-269,30,115,150,98
84,104,-5,-100,53,54,-105,-263,30,109,144,98
60,92,1,-82,41,54,-99,-257,30,97,138,92
54,86,1,-70,35,54,-87,-251,30,91,126,86
54,86,1,-70,29,54,-75,-245,30,85,114,80
42,80,7,-64,23,54,-69,-239,30,79,108,68
30,68,13,-52,11,54,-63,-233,24,79,96,62
18,56,13,-34,5,48,-57,-227,18,73,84,50
12,50,13,-28,5,42,-45,-221,18,67,72,38
12,44,13,-28,5,36,-39,-215,18,55,60,32
12,32,7,-22,5,30,-33,-209,18,43,48,20
12,20,1,-22,5,24,-33,-203,18,37,36,14
12,14,1,-22,5,18,-27,-197,18,31,30,8
0,8,1,-10,-1,18,-21,-191,18,31,24,2
-11,-4,1,1,-6,12,-15,-179,18,31,24,2
-11,-4,-5,7,-6,6,-9,-179,18,25,18,-4
-11,-4,-5,7,-6,1,-9,-173,18,19,12,-9
-17,-9,-5,13,-6,1,-3,-167,18,19,6,-15
-29,-9,1,19,-18,1,2,-167,18,19,6,-21
-35,-9,7,25,-24,1,2,-161,18,19,6,-21
-35,-9,7,25,-24,1,8,-161,18,13,0,-27
-35,-9,7,25,-24,1,8,-161,18,7,-5,-33
-35,-9,7,25,-24,1,8,-161,18,1,-11,-33
-41,-15,7,25,-24,1,14,-161,18,-4,-17,-33
-47,-21,7,31,-24,-5,14,-161,18,-4,-17,-33
-47,-27,1,37,-24,-11,14,-161,18,-10,-23,-33
-47,-33,1,37,-24,-17,14,-161,18,-10,-23,-33
-47,-33,1,43,-24,-17,20,-155,18,-10,-23,-33
-53,-33,7,43,-30,-17,20,-149,18,-10,-23,-33
-53,-39,7,49,-30,-17,26,-143,18,-10,-23,-33
-59,-45,7,49,-30,-17,26,-143,18,-10,-29,-33
-59,-51,7,49,-30,-17,26,-143,18,-16,-35,-33
-59,-51,7,49,-30,-17,26,-143,18,-16,-35,-33
-59,-51,7,49,-30,-17,26,-137,18,-16,-35,-33
-59,-51,1,49,-30,-17,26,-137,18,-16,-35,-33
-59,-51,-5,49,-30,-17,26,-137,18,-16,-35,-33
-53,-51,-5,49,-30,-17,26,-137,12,-16,-35,-33
-53,-51,-5,49,-30,-17,26,-137,6,-16,-41,-39
-53,-51,-5,49,-30,-17,26,-137,6,-16,-41,-39
-53,-51,-10,49,-30,-23,26,-137,6,-16,-41,-39
-53,-51,-10,49,-30,-23,26,-137,6,-16,-41,-39
-53,-51,-10,49,-30,-23,26,-131,6,-16,-47,-39
-53,-51,-10,49,-30,-23,26,-131,6,-16,-47,-39
-53,-51,-10,49,-24,-23,26,-131,6,-16,-47,-39
-53,-51,-10,49,-24,-23,26,-131,6,-16,-47,-39
-53,-51,-10,49,-24,-23,26,-131,6,-22,-47,-39
-53,-51,-10,49,-24,-23,26,-131,6,-28,-47,-39
-53,-51,-10,49,-24,-23,26,-125,6,-28,-47,-39
-53,-51,-10,49,-24,-23,26,-125,6,-28,-47,-39
-53,-51,-10,49,-24,-23,26,-125,6,-28,-47,-39
-53,-51,-10,49,-24,-23,32,-119,6,-28,-47,-39
-53,-51,-10,49,-24,-23,32,-119,6,-28,-47,-39
-53,-51,-5,49,-30,-17,32,-119,6,-28,-47,-39
-59,-51,7,49,-42,-11,32,-119,12,-28,-47,-39
-65,-51,19,49,-48,-5,38,-113,12,-28,-47,-39
-65,-45,19,49,-48,-5,38,-113,12,-28,-47,-39
-65,-45,19,49,-48,-5,38,-113,12,-28,-47,-39
-65,-45,7,49,-48,-11,38,-113,12,-28,-47,-39
-65,-45,1,49,-42,-17,38,-113,12,-28,-47,-39
-65,-45,-5,49,-36,-17,38,-113,12,-28,-47,-39
-59,-45,-10,49,-30,-23,38,-113,12,-28,-47,-39
-59,-45,-10,49,-30,-23,38,-113,12,-28,-47,-39
-59,-45,-5,49,-30,-23,38,-113,18,-22,-47,-39
-59,-45,1,49,-30,-23,38,-107,18,-16,-47,-39
-59,-45,1,49,-30,-23,38,-107,24,-16,-47,-39
-59,-45,1,49,-30,-23,38,-107,24,-16,-47,-39
-59,-45,7,49,-30,-17,38,-107,24,-16,-47,-39
-59,-45,13,49,-30,-11,38,-107,24,-16,-47,-39
-65,-45,19,49,-36,-11,38,-107,30,-16,-47,-39
-65,-45,19,49,-42,-11,38,-107,30,-16,-47,-39
-65,-45,19,49,-42,-11,38,-107,30,-16,-47,-39
-65,-45,19,55,-42,-11,38,-107,30,-16,-47,-39
-65,-45,19,55,-42,-11,38,-107,30,-16,-47,-39
-65,-45,19,55,-42,-11,44,-107,30,-16,-47,-39
-65,-45,19,55,-42,-11,44,-107,30,-16,-47,-39
-71,-45,25,55,-42,-11,44,-107,30,-16,-47,-39
-77,-45,31,55,-48,-11,44,-101,30,-16,-47,-39
-77,-45,37,55,-54,-5,44,-95,36,-16,-47,-39
-77,-45,37,55,-54,-5,44,-95,36,-16,-47,-39
-77,-45,37,55,-54,-5,44,-95,36,-16,-47,-39
-77,-45,37,55,-54,-5,44,-95,36,-16,-47,-39
-77,-45,37,55,-54,-5,44,-95,36,-16,-47,-39
-77,-45,37,55,-54,-5,44,-89,36,-16,-47,-45
-77,-45,37,55,-54,-5,44,-83,36,-16,-47,-45
-77,-45,37,55,-54,-5,44,-83,36,-16,-47,-45
-77,-45,37,55,-54,-5,44,-83,36,-16,-47,-45
-77,-45,37,55,-54,-5,44,-83,36,-16,-47,-45
-77,-45,31,55,-54,-5,44,-83,36,-16,-47,-45
-77,-45,25,55,-54,-5,44,-83,36,-16,-47,-45
-77,-45,25,55,-54,-5,44,-83,36,-16,-47,-45
-83,-45,25,55,-54,-5,44,-77,36,-16,-47,-45
-83,-45,25,55,-54,-5,44,-71,36,-16,-47,-45
-83,-45,25,55,-54,-11,44,-71,36,-16,-53,-51
-83,-45,25,61,-54,-11,44,-71,36,-16,-59,-51
-83,-45,25,61,-48,-11,44,-71,36,-16,-59,-51
-77,-45,19,61,-42,-17,44,-71,36,-16,-59,-51
-77,-45,19,61,-42,-17,44,-71,36,-16,-59,-57
-77,-45,19,61,-42,-17,44,-71,36,-16,-59,-57
-71,-45,19,61,-42,-17,44,-71,36,-16,-65,-57
-71,-45,19,61,-42,-17,44,-71,36,-16,-65,-57
-71,-51,19,61,-42,-17,44,-71,36,-22,-65,-57
-77,-51,19,67,-48,-17,44,-65,36,-22,-65,-57
-77,-51,19,67,-48,-17,50,-59,36,-22,-65,-57
-77,-51,19,67,-48,-17,50,-59,36,-22,-65,-57
-77,-51,19,67,-48,-17,50,-59,36,-22,-65,-57
-77,-51,19,67,-48,-17,56,-53,36,-22,-65,-57
-77,-51,19,67,-48,-17,62,-53,36,-22,-65,-57
-77,-51,19,67,-48,-17,68,-53,36,-22,-65,-57
-77,-51,19,67,-48,-17,68,-53,36,-22,-65,-57
-77,-51,13,67,-42,-17,68,-47,36,-28,-65,-57
-77,-51,7,67,-36,-23,68,-47,36,-28,-65,-57
-77,-51,7,67,-36,-23,68,-47,36,-28,-65,-57
-77,-51,7,67,-36,-23,68,-47,36,-28,-65,-57
-77,-51,7,67,-36,-23,68,-47,36,-28,-65,-57
-77,-57,7,67,-36,-23,68,-47,36,-28,-65,-57
-77,-57,7,67,-36,-23,68,-47,36,-34,-65,-57
-77,-57,7,67,-36,-23,68,-47,36,-40,-65,-57
-77,-57,7,67,-36,-23,68,-47,36,-40,-65,-57
-77,-57,7,67,-36,-23,68,-47,36,-46,-65,-57
-77,-57,7,67,-36,-23,68,-47,36,-46,-65,-57
-77,-57,7,67,-36,-23,68,-47,36,-46,-65,-63
-77,-57,7,67,-36,-23,68,-47,36,-46,-65,-63
-77,-57,7,67,-36,-23,68,-41,36,-46,-65,-63
-83,-57,13,73,-42,-23,68,-41,36,-46,-65,-63
-83,-57,13,73,-42,-23,68,-35,36,-46,-65,-63
-83,-57,13,73,-42,-23,68,-35,36,-46,-65,-63
-83,-57,13,73,-42,-23,68,-35,36,-46,-65,-63
-89,-57,13,73,-48,-23,68,-35,36,-46,-65,-63
-95,-57,19,73,-54,-23,68,-29,36,-46,-65,-63
-95,-57,19,73,-54,-23,68,-29,36,-46,-65,-63
-95,-63,13,73,-54,-29,68,-29,36,-46,-65,-63
-89,-69,7,73,-54,-29,68,-29,36,-46,-65,-63
-83,-69,7,73,-54,-29,68,-29,36,-46,-71,-63
-77,-63,7,73,-54,-29,68,-29,36,-46,-71,-63
-77,-63,13,73,-54,-23,68,-29,36,-46,-71,-63
-77,-63,13,73,-54,-23,68,-29,36,-46,-71,-63
-77,-63,13,73,-54,-23,68,-29,36,-46,-71,-63
-77,-63,13,73,-54,-23,68,-29,36,-46,-71,-63
-83,-63,13,73,-54,-23,68,-29,36,-46,-71,-63
-83,-63,13,73,-54,-23,68,-29,30,-52,-77,-63
-83,-63,13,73,-48,-23,68,-29,30,-52,-77,-63
-83,-63,13,73,-48,-23,68,-29,30,-52,-77,-63
-83,-63,13,73,-48,-23,68,-23,30,-52,-77,-63
-77,-63,1,73,-42,-29,68,-23,30,-52,-77,-63
-71,-63,-5,73,-36,-35,68,-23,30,-52,-77,-63
-71,-63,-5,73,-36,-35,68,-23,30,-52,-77,-63
-71,-63,-5,73,-36,-35,68,-23,30,-52,-77,-63
-83,-63,7,73,-48,-35,68,-17,30,-52,-77,-63
-89,-63,13,73,-54,-35,68,-11,30,-52,-77,-63
-89,-63,13,73,-54,-35,68,-11,30,-52,-77,-63
-89,-63,13,73,-54,-35,68,-11,30,-52,-77,-63
-89,-63,19,73,-54,-35,68,-11,30,-52,-77,-63
-89,-63,25,73,-54,-35,68,-11,30,-52,-77,-63
-89,-63,25,73,-54,-35,68,-11,30,-52,-77,-63
-83,-63,13,73,-48,-35,68,-11,30,-58,-83,-69
-77,-63,7,73,-42,-35,68,-11,24,-58,-83,-69
-71,-63,1,73,-36,-35,68,-11,24,-58,-83,-69
-65,-63,-5,67,-30,-35,68,-11,24,-58,-83,-69
-59,-63,-10,67,-24,-35,68,-11,24,-58,-83,-69
-59,-63,-10,67,-24,-35,68,-11,24,-58,-83,-69
-59,-63,-10,67,-24,-35,68,-11,24,-58,-83,-69
-59,-63,-10,67,-24,-35,68,-11,24,-58,-83,-69
-59,-63,-10,67,-24,-35,68,-11,24,-58,-83,-69
-59,-63,-10,67,-24,-35,68,-11,24,-58,-83,-69
-59,-63,-10,67,-24,-35,68,-11,24,-58,-83,-69
-59,-63,-10,67,-24,-35,68,-5,24,-58,-83,-69
-65,-63,-5,67,-30,-35,68,0,24,-58,-83,-69
-65,-63,1,67,-30,-35,68,0,24,-58,-83,-69
-65,-63,1,67,-30,-35,68,0,24,-58,-83,-69
-71,-63,7,67,-36,-35,68,6,24,-58,-83,-69
-71,-63,7,67,-36,-35,68,6,24,-58,-83,-69
-71,-63,7,67,-36,-35,68,12,24,-58,-83,-69
-77,-63,13,73,-48,-29,68,12,24,-58,-83,-69
-83,-63,19,73,-54,-23,68,12,24,-58,-83,-69
-83,-63,19,73,-54,-23,68,12,24,-58,-83,-69
-83,-63,19,73,-54,-23,68,12,24,-58,-83,-69
-83,-63,19,73,-54,-23,68,12,24,-58,-83,-69
-83,-63,19,73,-54,-23,68,12,24,-58,-83,-69
-83,-63,19,73,-54,-23,68,12,24,-58,-83,-69
-83,-63,19,67,-54,-23,68,12,24,-58,-83,-69
-83,-63,19,67,-54,-23,68,12,24,-58,-83,-69
-83,-63,19,67,-54,-23,68,12,24,-58,-83,-69
-83,-63,7,67,-48,-23,68,12,24,-58,-83,-69
-77,-63,1,67,-42,-23,68,12,24,-58,-83,-69
-71,-63,-5,67,-36,-29,68,12,24,-58,-83,-69
-71,-63,-5,67,-36,-29,68,12,24,-58,-89,-69
-71,-63,-5,67,-36,-29,68,12,24,-58,-95,-69
-71,-63,7,67,-42,-29,68,12,24,-58,-95,-69
-71,-63,13,67,-48,-23,68,18,24,-58,-95,-69
-71,-63,13,67,-48,-23,68,18,24,-58,-95,-69
-71,-63,13,67,-48,-23,68,18,24,-58,-95,-69
-71,-63,13,67,-48,-23,68,18,24,-58,-95,-69
-77,-63,13,67,-48,-23,68,18,24,-58,-95,-69
-77,-63,13,67,-48,-23,68,18,24,-58,-95,-69
-77,-63,13,67,-48,-23,68,18,24,-58,-95,-69
-71,-63,13,67,-48,-23,68,18,24,-58,-101,-69
-71,-63,13,67,-48,-23,68,18,24,-58,-107,-69
-71,-63,13,67,-48,-23,68,18,24,-58,-107,-69
-71,-63,13,67,-48,-23,68,18,24,-58,-107,-69
-65,-63,1,67,-42,-29,68,18,24,-58,-107,-69
-53,-63,-10,61,-30,-35,68,18,24,-58,-107,-69
-53,-63,-10,61,-30,-35,68,18,24,-58,-107,-69
-53,-57,-10,55,-30,-35,68,18,24,-58,-107,-69
-53,-57,-5,55,-30,-35,68,18,24,-58,-107,-69
-53,-57,1,55,-30,-35,68,18,24,-58,-107,-69
-65,-57,7,61,-36,-29,68,18,24,-58,-107,-69
-71,-57,13,61,-42,-29,68,24,30,-58,-107,-69
-71,-57,13,61,-42,-29,68,24,30,-58,-107,-69
-71,-57,13,61,-42,-29,74,24,36,-58,-107,-69
-71,-57,13,61,-42,-29,74,30,36,-58,-107,-69
-71,-57,13,61,-42,-29,74,36,36,-58,-107,-69
-71,-57,13,61,-42,-29,74,42,36,-52,-107,-69
-71,-45,19,55,-42,-17,74,42,36,-46,-101,-69
-65,-33,25,43,-42,-11,74,42,36,-46,-95,-63
-59,-27,25,37,-42,-5,74,42,42,-46,-95,-57
-53,-21,25,31,-42,1,68,42,48,-46,-95,-57
-47,-9,31,19,-42,12,56,36,60,-40,-89,-51
-41,8,43,13,-42,24,50,36,90,-28,-83,-45
-41,20,49,7,-42,36,44,36,120,-4,-71,-39
-41,20,49,1,-42,42,38,36,132,7,-65,-33
-35,20,49,1,-42,42,32,36,138,13,-59,-27
-29,20,49,1,-42,36,32,36,144,13,-53,-27
-29,20,49,1,-42,36,32,36,150,19,-53,-27
-29,20,49,-4,-42,36,32,36,156,31,-47,-27
-17,20,43,-4,-30,36,32,42,156,31,-47,-27
0,20,31,-10,-18,30,26,42,156,31,-47,-27
30,20,7,-22,5,30,20,42,156,31,-47,-27
42,26,-5,-34,23,30,8,42,156,37,-41,-27
48,26,-10,-40,29,30,2,42,138,37,-41,-27
48,26,-10,-40,29,30,-3,30,108,37,-35,-27
48,26,-16,-40,29,30,-15,0,78,37,-35,-21
54,26,-22,-46,35,24,-21,-23,54,37,-35,-21
54,26,-28,-46,41,18,-21,-29,42,31,-35,-21
54,20,-28,-46,41,12,-21,-29,36,25,-35,-21
54,14,-28,-40,41,1,-21,-29,30,13,-47,-21
54,8,-34,-34,41,-5,-21,-29,24,1,-53,-21
54,2,-46,-34,41,-11,-15,-29,24,-10,-59,-27
54,-9,-58,-28,41,-23,-9,-23,24,-22,-59,-27
48,-21,-64,-22,41,-29,2,-17,24,-28,-65,-33
36,-27,-64,-16,41,-35,14,-11,18,-34,-65,-39
30,-27,-64,-10,41,-35,20,-5,18,-40,-71,-39
24,-27,-64,-4,41,-41,26,0,18,-40,-77,-45
18,-27,-58,-4,41,-41,26,0,18,-40,-77,-45
12,-27,-52,-4,35,-41,32,0,24,-40,-77,-45
6,-27,-46,1,29,-41,38,6,36,-40,-77,-45
-5,-33,-40,13,17,-41,56,18,54,-40,-77,-45
-23,-45,-34,37,5,-41,68,30,84,-40,-77,-45
-35,-57,-34,49,-1,-41,80,42,102,-40,-77,-51
-41,-57,-28,55,-6,-41,92,54,108,-40,-77,-57
-41,-57,-28,55,-12,-41,98,66,108,-40,-77,-63
-41,-57,-22,55,-18,-41,104,72,114,-40,-77,-63
-47,-57,-16,55,-18,-41,110,78,120,-34,-77,-63
-47,-57,-16,55,-18,-41,110,84,132,-34,-77,-63
-47,-57,-16,55,-18,-41,110,90,162,-34,-77,-63
-41,-57,-22,55,-12,-41,110,90,210,-34,-77,-63
-41,-57,-22,55,-12,-41,110,90,282,-28,-77,-63
-41,-57,-22,55,-12,-35,110,90,348,-22,-77,-63
-41,-57,-22,49,-12,-29,110,96,408,-10,-71,-63
-35,-45,-22,43,-12,-29,110,102,486,19,-65,-63
-29,-39,-22,31,-12,-23,110,102,540,49,-53,-63
-17,-27,-22,19,-12,-23,104,102,564,85,-41,-57
-5,-9,-22,1,-12,-17,98,108,570,127,-17,-45
6,2,-16,-10,-12,-11,92,120,576,163,12,-27
12,26,-5,-22,-12,1,86,132,576,193,36,-15
18,44,7,-34,-12,24,80,144,540,205,54,-4
30,74,19,-46,-12,54,74,144,438,217,66,8
36,86,31,-58,-12,66,56,144,270,223,78,20
42,98,37,-70,-12,72,32,138,90,229,84,26
48,110,43,-82,-12,78,2,126,-83,235,90,32
60,134,43,-94,-6,90,-21,102,-257,235,96,38
96,158,43,-124,5,96,-51,72,-437,235,102,50
138,188,43,-160,29,102,-81,42,-569,235,114,62
156,200,43,-178,41,102,-111,12,-665,235,126,80
162,206,43,-184,53,108,-141,-11,-749,235,138,92
174,212,43,-190,65,108,-153,-23,-791,235,138,98
204,218,31,-202,77,108,-165,-29,-815,223,138,98
252,224,-16,-238,119,108,-183,-29,-863,187,138,98
360,236,-106,-292,221,102,-231,-47,-1007,145,138,98
492,290,-160,-394,317,96,-327,-125,-1211,91,162,122
618,392,-202,-508,401,96,-459,-269,-1451,49,234,212
756,470,-244,-616,497,96,-603,-431,-1721,13,342,338
900,530,-316,-724,605,96,-741,-581,-1967,-22,498,500
1044,584,-400,-808,725,96,-873,-737,-2177,-46,654,656
1164,644,-460,-910,821,96,-1011,-905,-2369,-70,834,842
1266,734,-490,-1000,881,102,-1137,-1067,-2518,-82,1008,1010
1338,836,-490,-1096,905,156,-1257,-1217,-2638,-88,1170,1184
1380,950,-478,-1168,911,234,-1341,-1331,-2686,-88,1320,1340
1392,986,-454,-1198,911,276,-1383,-1379,-2686,-82,1416,1424
1398,992,-448,-1204,911,282,-1383,-1385,-2572,-70,1434,1442
1398,986,-448,-1204,911,282,-1371,-1379,-2405,-70,1422,1430
1338,914,-448,-1126,899,258,-1275,-1319,-2243,-100,1278,1334
1158,716,-448,-940,827,168,-1083,-1139,-2039,-226,1002,1130
972,470,-466,-724,761,12,-861,-929,-1793,-382,660,872
804,266,-496,-532,707,-113,-687,-761,-1565,-496,348,638
654,134,-496,-394,611,-161,-549,-653,-1331,-562,114,440
504,50,-484,-280,521,-185,-447,-557,-1115,-574,-29,308
408,-4,-448,-202,431,-197,-339,-461,-935,-574,-113,194
312,-39,-406,-148,353,-197,-267,-383,-803,-562,-173,92
240,-57,-334,-106,281,-197,-201,-329,-695,-532,-203,32
180,-63,-274,-76,221,-185,-147,-263,-599,-484,-209,2
108,-69,-214,-34,155,-155,-99,-203,-497,-412,-209,-9
36,-69,-136,-4,83,-125,-57,-155,-395,-340,-209,-15
6,-69,-94,13,47,-95,-27,-125,-311,-280,-203,-27
-5,-69,-76,19,41,-83,-15,-101,-257,-250,-197,-39
-11,-69,-64,25,35,-77,2,-83,-185,-220,-191,-51
-23,-69,-52,37,23,-71,32,-47,-107,-178,-179,-63
-53,-75,-40,55,-6,-65,74,-11,-41,-142,-155,-69
-89,-81,-16,67,-42,-59,104,18,0,-118,-143,-69
-101,-87,-10,79,-60,-59,116,42,24,-112,-131,-69
-101,-93,-10,85,-60,-59,122,54,36,-106,-131,-75
-101,-99,-10,85,-60,-59,128,66,42,-100,-131,-81
-101,-105,-10,91,-60,-59,134,78,48,-94,-131,-87
-113,-105,1,103,-66,-59,140,84,54,-88,-131,-87
-119,-105,13,109,-72,-59,146,84,60,-82,-131,-93
-119,-105,13,109,-72,-59,146,84,72,-76,-131,-93
-119,-105,13,109,-72,-59,146,84,84,-70,-131,-93
-119,-105,13,109,-72,-59,152,90,96,-70,-131,-93
-119,-105,13,109,-72,-59,158,96,108,-70,-131,-93
-119,-105,7,109,-72,-59,158,96,114,-64,-131,-93
-119,-105,7,109,-72,-59,158,96,120,-64,-131,-93
-119,-105,7,109,-72,-59,158,96,120,-64,-131,-99
-119,-105,1,109,-66,-59,158,96,120,-64,-131,-105
-119,-105,1,109,-66,-59,158,96,126,-64,-131,-105
-119,-105,7,109,-66,-59,158,102,132,-58,-131,-105
-125,-105,13,109,-72,-59,158,108,138,-52,-125,-105
-125,-105,13,109,-72,-59,158,108,138,-46,-125,-105
-125,-105,13,109,-72,-59,158,108,138,-46,-125,-105
-125,-105,13,109,-72,-59,164,108,144,-46,-125,-105
-131,-105,13,109,-72,-59,170,108,150,-40,-125,-105
-131,-105,19,109,-72,-53,176,108,156,-40,-125,-105
-131,-105,19,109,-72,-53,176,108,156,-40,-125,-105
-131,-105,19,109,-72,-47,176,108,156,-40,-125,-105
-131,-105,25,109,-72,-47,176,108,162,-40,-119,-105
-131,-105,25,109,-72,-47,176,108,162,-40,-113,-105
-131,-105,25,109,-72,-47,176,108,162,-40,-113,-105
-131,-105,25,109,-78,-47,176,114,162,-40,-113,-105
-137,-105,25,109,-78,-47,176,114,162,-40,-113,-105
-137,-105,25,109,-78,-47,176,114,162,-40,-113,-105
-131,-105,19,109,-72,-47,176,114,162,-40,-113,-105
-125,-105,19,103,-72,-47,176,114,162,-40,-113,-105
-125,-105,19,103,-72,-41,176,114,162,-40,-113,-105
-125,-105,25,103,-78,-41,176,114,168,-40,-113,-105
-125,-105,25,103,-78,-41,176,114,168,-34,-113,-105
-125,-105,25,103,-72,-41,176,114,168,-34,-113,-105
-119,-105,19,103,-66,-41,170,114,168,-34,-113,-105
-113,-105,19,97,-60,-41,170,114,168,-34,-113,-105
-113,-105,19,97,-60,-41,170,114,174,-34,-113,-105
-113,-105,19,97,-60,-41,170,114,180,-28,-113,-105
-113,-105,19,97,-66,-41,170,114,186,-22,-107,-105
-113,-105,19,97,-66,-41,170,114,186,-16,-107,-105
-113,-105,19,97,-66,-41,170,114,192,-16,-107,-105
-113,-105,19,97,-66,-41,170,114,198,-16,-101,-105
-125,-105,25,103,-72,-41,170,114,204,-10,-95,-99
-125,-105,25,109,-72,-41,170,114,210,-4,-89,-93
-125,-105,25,109,-72,-41,170,114,210,1,-89,-93
-113,-99,19,103,-60,-41,170,114,210,1,-89,-93
-113,-99,19,103,-60,-41,170,114,210,1,-89,-93
-113,-99,25,103,-66,-41,170,114,210,1,-89,-93
-113,-99,25,103,-66,-41,170,114,216,1,-89,-93
-107,-99,25,103,-66,-41,170,114,216,1,-89,-93
-101,-99,19,97,-60,-41,170,114,216,1,-89,-93
-101,-99,19,97,-60,-41,170,114,216,1,-89,-93
-101,-99,19,97,-60,-35,164,114,216,7,-89,-93
-101,-93,19,97,-60,-35,164,114,216,7,-89,-93
-101,-93,19,97,-60,-35,164,114,222,7,-89,-93
-101,-93,19,97,-60,-35,164,114,234,13,-83,-93
-101,-93,19,97,-60,-35,164,114,246,13,-77,-93
-101,-93,19,97,-60,-35,164,114,252,19,-71,-93
-101,-93,19,97,-60,-35,164,114,252,25,-71,-87
-101,-93,19,97,-60,-35,158,114,252,31,-65,-81
-101,-93,19,97,-60,-35,152,114,258,37,-59,-81
-101,-87,19,97,-60,-35,152,114,264,43,-53,-75
-101,-87,25,97,-60,-35,152,114,276,49,-53,-69
-101,-87,25,97,-60,-35,152,114,282,49,-53,-69
-95,-81,25,91,-60,-35,152,114,282,49,-53,-69
-95,-69,25,85,-60,-29,152,114,288,55,-47,-69
-95,-63,25,79,-60,-23,152,114,288,55,-41,-63
-95,-57,25,73,-60,-17,152,114,294,55,-41,-63
-95,-51,31,73,-60,-11,152,114,306,61,-35,-57
-89,-51,31,67,-60,-11,146,114,312,67,-35,-57
-89,-51,31,67,-60,-11,140,114,318,73,-35,-57
-89,-51,31,67,-60,-11,140,114,324,79,-35,-57
-89,-51,31,67,-60,-11,140,114,330,85,-29,-51
-89,-51,31,67,-60,-11,134,114,336,85,-29,-51
-83,-51,31,67,-54,-11,134,114,348,91,-23,-51
-77,-51,31,61,-54,-11,134,114,360,103,-17,-45
-71,-51,31,55,-54,-11,134,114,366,109,-11,-45
-71,-39,31,49,-54,-5,128,114,372,115,-5,-39
-71,-33,31,43,-54,1,122,108,378,121,0,-39
-65,-33,31,37,-54,1,116,102,384,127,6,-39
-53,-27,31,37,-48,1,104,96,390,127,6,-39
-47,-21,31,31,-42,6,98,96,402,133,12,-27
-41,-9,37,25,-42,18,98,96,420,151,24,-15
-41,2,43,19,-42,24,92,96,426,163,36,-9
-35,14,43,7,-42,30,86,90,432,169,42,-4
-35,20,43,1,-42,30,80,84,432,175,42,2
-29,20,43,-4,-42,30,80,78,438,175,48,8
-17,20,43,-10,-36,30,74,72,438,181,54,14
-11,26,43,-16,-36,30,68,72,444,187,60,20
-11,32,49,-16,-36,36,68,72,450,199,72,32
-11,38,49,-16,-36,42,62,72,450,211,84,38
-5,44,49,-22,-36,48,56,72,450,223,96,50
0,50,49,-28,-30,54,50,72,450,229,108,56
6,62,49,-34,-24,54,44,66,450,235,114,62
12,74,49,-40,-24,60,32,54,456,241,120,68
18,86,49,-52,-24,66,26,48,462,253,126,74
24,98,49,-64,-24,72,20,48,468,265,138,86
30,104,49,-76,-18,72,20,48,468,271,150,98
48,110,49,-88,-6,72,14,42,468,277,162,110
60,116,43,-94,5,72,8,36,468,277,174,116
72,122,43,-106,11,78,-3,24,456,277,180,116
90,128,37,-112,23,78,-15,12,444,277,186,122
102,128,31,-118,35,78,-21,6,438,283,198,134
108,128,25,-118,41,78,-27,0,438,283,204,146
114,134,25,-124,47,78,-39,-5,432,283,210,152
120,146,25,-130,47,78,-45,-11,420,283,216,152
120,152,25,-136,47,78,-51,-17,414,283,216,158
126,152,19,-142,53,78,-51,-23,402,283,216,164
138,152,19,-142,59,78,-51,-23,390,283,228,170
138,152,19,-142,59,78,-57,-23,372,283,234,182
138,152,19,-148,59,84,-57,-29,360,283,240,188
144,164,19,-154,59,90,-63,-35,336,283,246,194
156,170,19,-160,65,90,-75,-47,318,283,246,194
168,170,13,-166,77,90,-81,-53,306,283,252,200
174,176,7,-172,77,90,-87,-59,276,283,258,206
174,176,1,-172,77,90,-93,-59,258,283,264,206
174,176,1,-178,77,90,-99,-65,246,277,264,206
174,176,1,-178,83,90,-99,-71,222,271,270,206
180,176,-10,-178,89,84,-99,-71,210,265,270,206
180,176,-16,-178,95,78,-99,-71,186,259,270,206
180,176,-16,-178,95,78,-99,-71,174,253,270,206
180,176,-16,-178,95,78,-99,-71,156,247,270,206
180,176,-16,-178,95,78,-99,-71,138,241,270,206
180,170,-16,-172,95,78,-99,-71,126,235,264,206
174,170,-16,-172,95,78,-99,-71,114,229,258,206
162,164,-10,-160,89,78,-93,-71,102,217,252,200
150,158,-10,-148,83,78,-93,-71,90,205,240,194
144,152,-10,-148,77,78,-87,-71,78,187,228,188
144,146,-10,-148,77,72,-87,-71,72,175,216,182
138,140,-10,-142,71,66,-81,-71,66,169,204,182
126,122,-10,-130,65,60,-75,-71,60,163,192,176
114,110,-10,-118,59,54,-69,-71,54,157,174,164
108,104,-10,-106,53,54,-63,-65,54,145,162,152
96,98,-10,-100,47,54,-57,-59,54,139,150,140
84,92,-5,-88,41,54,-51,-53,54,133,144,128
72,86,-5,-76,35,54,-39,-47,54,127,132,122
66,80,-5,-70,29,48,-33,-41,54,121,120,116
60,74,-5,-70,29,48,-21,-35,48,115,114,110
48,68,7,-64,23,48,-9,-29,48,109,108,104
24,56,13,-52,11,48,-3,-23,42,103,102,98
12,44,13,-40,5,42,2,-17,42,97,90,86
12,32,13,-28,5,30,8,-17,36,91,78,74
12,26,13,-22,5,24,8,-17,36,85,72,68
12,20,13,-22,5,18,8,-17,36,79,66,62
12,14,7,-22,5,12,8,-17,30,67,54,56
12,8,1,-16,5,6,14,-11,30,61,42,50
12,2,1,-10,5,1,20,-5,30,55,36,50
12,-4,-5,-4,5,-5,26,0,30,49,30,44
12,-9,-10,1,5,-11,32,0,30,37,18,32
12,-9,-16,1,5,-11,32,0,30,25,6,26
12,-15,-16,1,5,-11,38,6,30,19,0,20
12,-21,-16,7,5,-17,44,6,30,13,-5,14
12,-27,-22,13,5,-23,44,6,24,7,-11,8
12,-27,-22,13,5,-23,44,6,24,1,-17,2
6,-27,-22,13,5,-23,44,6,24,1,-23,-4
-5,-27,-22,19,-1,-23,50,12,24,1,-23,-4
-11,-33,-22,25,-6,-23,50,12,24,1,-23,-4
-17,-39,-22,31,-6,-23,50,12,24,-4,-23,-4
-17,-45,-22,31,-6,-23,50,12,24,-10,-23,-4
-17,-45,-22,31,-6,-23,50,18,24,-10,-29,-9
-23,-45,-22,37,-6,-23,56,24,24,-10,-35,-9
-29,-45,-22,37,-6,-23,62,24,24,-10,-35,-9
-29,-51,-22,37,-6,-29,62,24,24,-10,-35,-9
-29,-57,-22,37,-6,-35,68,30,24,-10,-35,-9
-35,-57,-22,37,-12,-35,74,30,24,-10,-35,-9
-41,-57,-16,43,-18,-35,74,30,24,-10,-35,-9
-41,-57,-16,43,-18,-35,74,30,18,-10,-35,-9
-41,-57,-16,43,-12,-35,74,30,18,-10,-35,-9
-41,-57,-16,43,-12,-35,74,30,18,-10,-35,-9
-47,-57,-10,43,-18,-35,74,30,18,-10,-35,-9
-53,-57,1,43,-24,-29,74,30,18,-10,-35,-9
-53,-57,1,43,-24,-29,74,30,18,-10,-41,-9
-53,-57,1,43,-24,-29,74,30,18,-10,-41,-9
-53,-57,1,43,-24,-29,74,30,18,-10,-41,-9
-53,-57,1,43,-24,-29,74,30,18,-10,-41,-9
-53,-57,1,43,-24,-29,74,30,18,-10,-41,-9
-53,-57,1,43,-24,-29,74,30,18,-10,-41,-9
-53,-57,1,43,-24,-29,74,30,18,-16,-41,-9
-53,-57,1,43,-24,-29,74,30,18,-16,-41,-9
-53,-57,1,43,-24,-29,74,30,18,-16,-41,-9
-53,-57,1,43,-24,-29,74,30,18,-16,-41,-9
-53,-57,1,43,-24,-29,74,30,18,-16,-41,-15
-47,-57,1,43,-24,-29,74,30,18,-16,-41,-21
-47,-57,1,43,-24,-29,74,30,18,-16,-41,-21
-47,-57,1,49,-24,-29,74,30,18,-16,-41,-21
-53,-57,1,49,-30,-29,74,30,18,-16,-41,-21
-53,-57,1,49,-30,-29,74,30,18,-16,-41,-21
-53,-57,1,49,-30,-29,74,30,18,-16,-41,-21
-53,-57,-5,49,-30,-29,74,30,18,-16,-41,-21
-53,-57,-5,49,-30,-29,74,30,24,-16,-41,-21
-53,-57,-5,49,-30,-29,74,30,24,-16,-41,-21
-53,-57,-5,49,-30,-29,74,30,24,-16,-41,-21
-53,-57,-5,49,-30,-29,74,30,24,-16,-41,-21
-53,-57,-5,49,-30,-29,74,30,24,-16,-41,-21
-53,-57,-5,49,-30,-29,74,30,30,-16,-41,-21
-53,-57,-5,49,-30,-29,74,30,36,-16,-41,-21
-53,-57,-5,49,-30,-29,74,30,36,-16,-41,-21
-53,-57,-5,49,-30,-29,74,30,36,-16,-41,-21
-59,-57,1,55,-30,-29,74,30,36,-16,-41,-21
-59,-57,1,55,-36,-29,74,30,36,-16,-41,-21
-59,-57,1,55,-36,-29,74,30,36,-16,-41,-21
-59,-57,1,55,-36,-29,74,30,36,-16,-41,-21
-59,-57,7,55,-36,-29,74,30,36,-16,-41,-21
-65,-57,7,55,-42,-29,74,30,36,-16,-41,-21
-65,-57,7,55,-42,-29,74,30,36,-16,-41,-21
-65,-57,7,55,-42,-29,74,30,36,-16,-41,-21
-65,-57,7,55,-42,-29,74,30,36,-16,-41,-21
-65,-57,7,55,-42,-29,74,30,36,-16,-47,-21
-59,-57,7,55,-42,-29,74,30,36,-16,-47,-21
-53,-57,7,55,-36,-29,74,30,36,-16,-47,-21
-53,-57,7,55,-36,-29,74,30,42,-16,-47,-21
-53,-57,7,55,-36,-29,74,30,42,-16,-53,-21
-53,-57,7,55,-36,-29,74,30,42,-16,-53,-21
-53,-57,7,55,-36,-29,74,30,42,-16,-53,-21
-59,-57,7,61,-36,-29,74,30,42,-16,-53,-21
-65,-57,7,61,-36,-29,74,30,42,-16,-53,-21
-71,-57,7,61,-36,-29,74,30,42,-16,-53,-27
-77,-57,13,61,-42,-23,74,30,42,-16,-53,-27
-77,-57,19,61,-42,-23,74,30,48,-16,-53,-27
-77,-57,19,61,-42,-23,74,30,48,-16,-53,-27
-77,-57,19,61,-42,-23,74,30,48,-16,-53,-27
-77,-57,19,61,-42,-23,74,30,48,-22,-59,-27
-77,-57,19,61,-42,-23,74,30,48,-22,-59,-27
-77,-57,19,61,-42,-23,74,30,48,-22,-59,-27
-77,-57,19,61,-42,-23,74,30,48,-22,-59,-27
-77,-57,19,61,-42,-23,74,30,48,-22,-59,-33
-77,-57,19,61,-42,-23,74,30,48,-22,-59,-39
-83,-57,25,61,-48,-17,74,30,48,-22,-59,-39
-89,-57,31,61,-54,-11,74,30,48,-22,-59,-39
-89,-57,37,61,-60,-5,74,30,48,-22,-65,-39
-89,-57,37,61,-60,-5,74,30,48,-22,-65,-39
-89,-57,37,61,-60,-5,74,30,48,-22,-65,-39
-89,-57,37,61,-60,-5,74,30,48,-28,-71,-39
-89,-57,37,61,-60,-5,74,30,48,-28,-71,-39
-89,-51,37,61,-60,-5,74,30,48,-28,-71,-39
-89,-51,37,61,-60,-5,74,30,48,-28,-71,-39
-89,-51,31,67,-60,-11,74,30,48,-28,-71,-39
-89,-57,25,67,-60,-17,74,30,48,-34,-71,-45
-83,-57,19,67,-54,-17,74,30,48,-40,-77,-51
-77,-57,13,61,-48,-17,74,30,48,-40,-77,-51
-71,-57,13,61,-48,-17,74,30,48,-40,-77,-51
-71,-57,13,61,-48,-17,74,30,42,-40,-77,-51
-71,-63,13,61,-48,-23,74,30,42,-40,-77,-51
-71,-63,13,61,-48,-23,74,30,42,-40,-77,-51
-71,-63,13,61,-48,-23,74,30,42,-40,-77,-51
-71,-63,13,61,-48,-23,74,30,42,-40,-77,-57
-71,-63,13,61,-42,-23,74,30,42,-40,-77,-57
-71,-63,13,61,-42,-23,74,30,42,-40,-77,-57
-71,-63,13,61,-42,-23,74,30,42,-40,-77,-63
