,,,,,,,,,,,
2019-09-04 23:14:13,,,,,,,,,,,
,,,,,,,,,,,
I,II,III,aVR,aVL,aVF,V1,V2,V3,V4,V5,V6
-61,-151,-88,102,2,-119,135,-56,-73,-177,-170,-123
-73,-109,-34,90,-15,-71,147,-26,-55,-159,-152,-105
-85,-91,-5,84,-39,-47,159,-20,-37,-147,-146,-99
-91,-85,-5,84,-45,-41,177,-14,-31,-135,-134,-93
-79,-61,7,66,-45,-23,189,-9,-25,-153,-134,-99
-85,-61,13,72,-51,-17,201,-9,-13,-135,-128,-81
-91,-67,13,78,-57,-23,201,-20,-19,-141,-146,-87
-79,-61,7,66,-45,-23,207,-26,-25,-135,-128,-93
-79,-61,7,66,-45,-23,195,-26,-31,-135,-134,-87
-85,-73,1,78,-45,-29,201,-20,-31,-135,-140,-105
-85,-73,1,78,-45,-29,201,-14,-25,-135,-134,-93
-73,-37,25,54,-51,-6,207,-14,-13,-117,-110,-69
-67,-19,37,42,-57,0,225,-9,10,-69,-86,-51
-61,-2,61,24,-63,30,213,-9,-2,-75,-86,-39
-67,10,79,18,-75,42,207,-20,-8,-87,-74,-27
-55,34,91,6,-75,60,213,-44,-8,-93,-80,-21
-43,46,91,6,-69,66,195,-56,-8,-105,-86,-39
-49,52,103,6,-75,78,189,-62,-2,-93,-86,-39
-25,70,97,-17,-63,84,141,-86,-8,-99,-86,-27
-8,88,85,-41,-39,90,99,-98,-8,-99,-92,-39
-8,88,97,-35,-51,90,87,-80,-2,-87,-80,-27
-13,88,103,-29,-57,96,93,-74,4,-69,-68,-21
-31,64,97,-11,-63,78,99,-50,10,-63,-50,-10
-13,34,49,-5,-33,42,57,-68,-13,-81,-68,-15
-8,10,7,1,-4,12,45,-80,-19,-81,-80,-15
-8,-8,-10,6,-4,-6,39,-86,-19,-99,-80,-15
4,-13,-28,6,14,-17,51,-68,-19,-105,-80,-27
-13,-25,-10,18,-4,-17,75,-38,-2,-75,-68,-27
-19,-43,-22,30,-4,-35,87,-44,-8,-87,-86,-45
-31,-73,-40,48,-4,-59,93,-50,-31,-105,-110,-75
-55,-97,-40,72,-4,-71,105,-44,-31,-117,-116,-87
-67,-109,-40,84,-9,-77,111,-62,-55,-135,-140,-105
-73,-133,-58,102,-4,-95,123,-62,-61,-147,-140,-99
-67,-139,-70,102,-4,-107,159,-50,-67,-153,-164,-111
-73,-163,-88,114,-4,-125,237,-9,-67,-171,-170,-123
-85,-193,-106,138,2,-149,285,3,-61,-171,-176,-135
-73,-199,-124,132,14,-161,279,15,-73,-183,-194,-141
-85,-205,-118,144,8,-161,279,27,-73,-177,-182,-135
-109,-199,-88,150,-9,-143,303,21,-73,-183,-182,-135
-115,-193,-76,150,-15,-137,351,33,-61,-183,-182,-135
-103,-199,-94,150,-4,-149,441,69,-55,-189,-200,-153
-97,-211,-112,150,-4,-161,555,111,-43,-189,-194,-153
-97,-211,-112,150,-4,-161,555,159,-13,-177,-182,-147
-73,-199,-124,132,14,-161,435,195,-2,-171,-182,-153
-49,-181,-130,114,32,-155,213,231,16,-153,-170,-141
-19,-157,-136,84,50,-149,39,243,40,-141,-158,-135
-8,-127,-118,66,44,-125,-32,255,52,-135,-158,-135
-25,-109,-82,66,20,-95,-56,285,82,-117,-140,-129
-2,-85,-94,36,44,-89,-188,327,112,-93,-128,-117
40,-55,-106,6,68,-77,-374,351,130,-93,-122,-105
76,-37,-124,-11,98,-77,-542,369,160,-75,-122,-105
94,-13,-118,-35,104,-65,-734,405,184,-51,-98,-87
88,10,-76,-47,80,-23,-824,477,232,-27,-74,-75
112,58,-52,-83,80,0,-866,573,286,-10,-56,-51
112,88,-22,-101,68,30,-950,615,304,2,-38,-33
130,100,-28,-113,80,30,-1052,609,262,-4,-44,-51
160,100,-58,-131,110,18,-1136,591,238,-4,-44,-45
190,142,-46,-167,116,42,-1220,579,232,14,-32,-39
220,172,-46,-197,134,60,-1256,561,238,44,-9,-10
232,184,-52,-209,146,60,-1274,537,262,74,9,-10
268,178,-94,-227,182,36,-1292,537,310,116,39,14
298,178,-124,-233,212,24,-1286,543,370,146,57,32
334,172,-166,-251,248,0,-1340,345,340,170,81,38
388,184,-208,-281,296,-6,-1436,-26,154,188,117,92
424,136,-286,-275,356,-71,-1496,-362,-37,176,165,140
478,76,-406,-275,446,-161,-1544,-578,-199,194,189,164
520,94,-430,-305,476,-161,-1616,-872,-343,224,237,206
550,172,-382,-359,470,-101,-1778,-1274,-493,254,315,296
610,262,-346,-437,482,-35,-1946,-1580,-529,386,447,422
694,316,-376,-503,530,-23,-2102,-1772,-421,596,633,548
748,406,-346,-575,548,24,-2246,-2036,-337,866,885,722
814,574,-244,-695,524,168,-2461,-2653,-553,1124,1155,956
856,766,-88,-809,476,336,-2743,-3415,-1003,1352,1455,1220
928,940,1,-935,458,474,-2995,-3991,-1447,1616,1797,1532
982,1096,103,-1037,440,600,-3259,-4489,-1885,1856,2150,1832
976,1222,235,-1103,368,732,-3391,-4837,-2197,2047,2413,2077
910,1294,379,-1103,260,840,-3337,-4932,-2496,2083,2521,2191
796,1324,517,-1061,134,924,-3223,-4884,-2856,1940,2509,2227
688,1330,637,-1007,20,984,-2977,-4585,-2910,1826,2461,2209
610,1222,607,-917,-4,918,-2713,-4159,-2808,1694,2372,2113
556,1006,445,-779,50,726,-2431,-3715,-2652,1556,2234,1964
502,766,253,-635,122,510,-2066,-3145,-2251,1550,2114,1784
406,532,121,-473,140,330,-1682,-2509,-1753,1496,1941,1538
274,238,-34,-257,158,102,-1226,-1922,-1375,1118,1461,1154
154,-109,-268,-17,212,-191,-824,-1382,-1123,380,705,632
22,-349,-382,156,200,-365,-464,-926,-913,-363,-56,152
-31,-337,-304,186,128,-323,-254,-650,-709,-513,-308,-39
-49,-259,-214,156,74,-239,-170,-482,-493,-273,-182,-33
-61,-229,-166,144,44,-197,-68,-314,-313,-171,-128,-45
-61,-199,-136,126,26,-167,-14,-218,-229,-117,-116,-75
-73,-181,-106,126,8,-143,21,-128,-139,-57,-74,-51
-67,-157,-88,108,2,-125,81,-50,-67,-33,-74,-57
-61,-151,-88,102,2,-119,105,-9,-25,-21,-68,-63
-61,-139,-76,96,-4,-107,171,57,34,-10,-62,-63
-61,-145,-82,102,2,-113,189,75,34,-27,-74,-63
-79,-151,-70,114,-4,-113,213,93,46,-51,-86,-69
-85,-157,-70,120,-4,-113,243,129,82,-51,-110,-93
-73,-169,-94,120,2,-131,237,147,70,-63,-122,-105
-73,-181,-106,126,8,-143,255,165,88,-75,-134,-117
-79,-193,-112,132,8,-155,249,183,82,-87,-140,-129
-103,-199,-94,150,-4,-149,243,189,88,-93,-158,-147
-91,-193,-100,138,-4,-149,255,201,94,-99,-176,-153
-97,-205,-106,150,-4,-155,267,213,100,-105,-164,-141
-103,-199,-94,150,-4,-149,291,231,124,-117,-170,-153
-103,-205,-100,150,-4,-155,309,237,136,-105,-158,-141
-103,-211,-106,156,-4,-161,321,261,148,-93,-164,-135
-91,-193,-100,138,-4,-149,333,261,160,-111,-176,-147
-91,-193,-100,138,-4,-149,333,261,160,-99,-170,-147
-85,-199,-112,138,2,-155,327,279,178,-105,-182,-159
-79,-199,-118,138,8,-161,321,285,160,-93,-182,-153
-91,-205,-112,144,2,-161,309,291,172,-93,-176,-171
-85,-187,-100,132,-4,-143,309,291,172,-105,-188,-171
-109,-175,-64,138,-21,-119,309,309,184,-99,-170,-165
-121,-181,-58,150,-27,-119,321,315,196,-81,-164,-159
-97,-163,-64,126,-15,-113,321,309,202,-93,-164,-153
-79,-181,-100,126,2,-143,333,327,214,-87,-164,-147
-67,-169,-100,114,8,-137,345,333,208,-87,-176,-153
-55,-175,-118,114,20,-149,333,333,220,-93,-170,-153
-67,-175,-106,120,8,-143,339,351,226,-81,-164,-141
-55,-151,-94,102,8,-125,339,357,226,-81,-170,-147
-85,-163,-76,120,-4,-119,339,387,250,-51,-152,-147
-85,-157,-70,120,-4,-113,345,393,250,-45,-146,-135
-97,-151,-52,120,-21,-101,339,405,250,-57,-134,-129
-109,-151,-40,126,-33,-95,351,423,268,-39,-128,-123
-91,-139,-46,114,-21,-95,351,405,268,-45,-128,-123
-79,-133,-52,102,-9,-95,351,429,274,-51,-128,-123
-61,-133,-70,96,-4,-101,369,423,280,-51,-134,-123
-49,-127,-76,84,2,-101,363,435,298,-39,-128,-123
-55,-127,-70,90,-4,-101,369,459,310,-21,-116,-117
-55,-115,-58,84,-4,-89,363,459,310,-21,-122,-123
-67,-109,-40,84,-9,-77,375,477,334,-10,-104,-117
-73,-97,-22,84,-21,-59,375,489,340,-4,-98,-105
-79,-97,-16,84,-27,-59,369,501,346,-10,-92,-105
-79,-85,-5,78,-33,-47,387,513,370,8,-86,-105
-73,-79,-5,72,-33,-41,387,513,364,-4,-86,-99
-61,-79,-16,66,-21,-47,405,537,376,-4,-80,-93
-61,-67,-5,60,-27,-35,411,543,388,8,-80,-87
-49,-61,-10,54,-15,-35,405,561,394,20,-86,-99
-49,-61,-10,54,-15,-35,411,573,412,26,-74,-93
-43,-49,-5,42,-15,-29,417,597,418,32,-74,-81
-49,-37,1,42,-27,-11,411,609,436,44,-62,-81
-43,-19,13,30,-33,-6,411,615,442,44,-56,-81
-49,-13,25,30,-39,0,411,633,448,50,-56,-75
-55,-8,37,30,-51,6,429,663,472,62,-44,-69
-43,-2,43,12,-45,18,423,663,466,50,-44,-69
-49,10,61,12,-57,36,429,681,478,62,-32,-63
-37,16,55,6,-45,36,429,693,484,68,-32,-63
-31,28,61,6,-45,42,441,717,502,74,-32,-57
-37,22,61,6,-51,42,447,735,520,92,-14,-39
-31,46,79,1,-57,60,435,753,526,98,-14,-39
-25,64,91,-11,-57,78,435,771,532,98,-14,-45
-8,70,79,-23,-45,72,441,783,544,116,-9,-27
-25,82,109,-23,-69,96,441,813,562,128,3,-21
-31,100,133,-29,-81,114,459,843,574,140,9,-10
-25,118,145,-41,-87,132,447,837,586,134,15,-10
-19,124,145,-47,-81,132,465,873,604,146,33,-4
-19,142,163,-53,-93,150,465,879,610,158,39,2
-13,154,169,-65,-93,162,471,903,622,176,45,2
-8,172,181,-77,-93,174,459,909,628,170,45,8
-2,196,187,-95,-87,192,447,921,634,176,57,8
-8,214,217,-101,-111,216,459,951,658,206,81,32
-2,232,223,-113,-105,228,447,957,658,212,87,44
-13,238,253,-107,-135,246,447,969,682,236,117,68
-13,256,271,-119,-147,264,459,981,682,248,117,68
-8,280,283,-137,-147,282,459,981,682,254,141,74
4,298,283,-155,-135,294,447,993,694,248,141,80
16,316,289,-167,-135,306,441,993,694,260,141,80
34,328,283,-185,-123,306,429,987,688,260,147,86
34,346,301,-191,-129,324,423,993,694,278,159,98
46,370,313,-209,-129,342,405,999,700,290,177,110
28,382,343,-209,-153,366,399,1023,712,314,207,140
22,400,367,-215,-171,384,393,1017,724,332,231,158
28,418,379,-227,-171,402,369,1023,724,338,231,170
22,436,403,-233,-189,420,369,1017,724,356,249,188
28,454,415,-239,-189,438,369,1011,724,362,273,206
40,472,421,-251,-189,450,357,1005,718,362,267,206
52,478,421,-263,-183,456,339,981,724,392,285,230
76,502,421,-287,-171,468,321,969,718,386,297,230
88,514,421,-299,-165,474,303,963,712,392,303,230
94,526,427,-311,-165,480,285,945,700,398,315,236
88,544,451,-317,-177,498,273,933,700,416,327,254
94,556,457,-323,-177,504,255,915,694,434,345,272
100,556,451,-329,-171,504,225,885,688,440,363,284
100,562,457,-329,-177,510,213,855,670,452,375,284
94,568,469,-329,-183,516,201,819,676,458,393,308
112,562,445,-335,-165,504,177,795,652,464,399,326
118,562,439,-341,-159,498,147,753,628,476,411,326
124,550,421,-335,-147,486,135,723,616,476,429,332
142,562,415,-353,-135,486,99,681,598,476,417,338
148,562,409,-353,-129,486,75,651,580,470,429,338
130,550,415,-341,-141,480,45,603,574,476,429,350
148,544,391,-347,-117,474,39,567,562,476,429,356
148,526,373,-335,-111,456,15,537,538,476,429,350
136,514,373,-323,-117,450,-3,489,526,488,435,356
136,514,373,-323,-117,450,-3,465,520,482,435,350
142,484,337,-311,-93,414,-20,417,490,476,429,344
136,478,331,-305,-93,408,-26,387,478,464,411,320
136,460,313,-293,-87,390,-32,357,454,452,405,314
130,430,289,-275,-75,360,-44,327,430,434,381,302
136,418,271,-275,-63,348,-56,297,418,404,363,290
124,388,253,-251,-63,324,-44,273,394,404,357,278
112,352,235,-233,-57,294,-38,255,394,374,339,260
94,316,217,-209,-57,264,-38,231,370,356,309,242
88,292,199,-191,-51,246,-38,225,352,326,273,224
76,274,193,-179,-51,234,-32,213,340,314,261,212
70,238,163,-155,-39,204,-26,177,304,284,225,188
52,226,163,-137,-51,198,-14,165,280,248,207,158
58,196,127,-125,-27,162,-8,153,262,230,189,146
52,178,115,-113,-27,150,-8,129,226,200,159,116
40,154,103,-95,-27,132,-3,123,208,176,135,98
22,118,85,-71,-27,102,3,99,184,158,105,86
16,106,79,-59,-27,96,3,93,172,128,81,62
-2,76,67,-35,-27,72,9,87,154,128,69,50
-8,64,61,-29,-27,66,15,75,130,86,45,26
-8,34,37,-11,-21,36,39,51,112,68,27,14
-13,22,37,1,-27,30,45,45,94,32,-3,8
-19,10,31,6,-27,18,45,27,64,2,-9,-10
-25,-8,13,12,-21,0,63,21,46,-4,-20,-21
-19,-13,-5,12,-9,-6,51,9,22,-21,-32,-33
-31,-37,-5,30,-9,-23,57,3,10,-15,-56,-33
-37,-43,-5,36,-15,-23,51,3,-2,-27,-68,-39
-55,-55,-5,54,-27,-29,51,-3,4,-39,-62,-39
-61,-55,-5,54,-33,-23,45,-9,-8,-51,-74,-51
-61,-79,-16,66,-21,-47,51,-9,-19,-69,-80,-63
-61,-85,-22,72,-15,-53,63,-14,-19,-75,-86,-63
-61,-85,-22,72,-15,-53,63,-14,-31,-93,-92,-69
-49,-85,-34,66,-4,-59,63,-32,-43,-99,-98,-75
-55,-91,-34,72,-9,-65,75,-44,-49,-111,-110,-75
-61,-97,-34,78,-9,-65,63,-44,-67,-123,-122,-87
-67,-97,-28,78,-15,-65,63,-44,-55,-123,-116,-93
-73,-97,-22,84,-21,-59,51,-50,-49,-123,-128,-87
-73,-115,-40,90,-15,-77,63,-50,-67,-117,-122,-87
-73,-115,-40,90,-15,-77,51,-50,-55,-123,-128,-87
-73,-115,-40,90,-15,-77,57,-44,-61,-117,-116,-93
-67,-115,-46,90,-9,-83,63,-50,-67,-117,-122,-87
-73,-121,-46,96,-9,-83,51,-62,-73,-141,-134,-99
-79,-121,-40,96,-15,-83,63,-62,-85,-135,-128,-99
-67,-121,-52,90,-4,-89,63,-68,-73,-141,-134,-105
-67,-127,-58,96,-4,-95,69,-62,-79,-135,-134,-105
-61,-133,-70,96,-4,-101,63,-62,-79,-135,-140,-105
-79,-121,-40,96,-15,-83,63,-62,-67,-135,-134,-105
-85,-127,-40,102,-21,-83,69,-62,-73,-129,-134,-111
-73,-127,-52,96,-9,-89,57,-56,-61,-129,-134,-105
-79,-133,-52,102,-9,-95,57,-62,-61,-123,-128,-105
-85,-127,-40,102,-21,-83,57,-68,-67,-135,-134,-99
-73,-127,-52,96,-9,-89,69,-56,-67,-135,-128,-99
-67,-127,-58,96,-4,-95,57,-68,-67,-123,-140,-105
-73,-133,-58,102,-4,-95,63,-62,-61,-129,-134,-99
-73,-133,-58,102,-4,-95,69,-62,-67,-141,-140,-105
-67,-127,-58,96,-4,-95,63,-56,-67,-129,-134,-111
-61,-115,-52,84,-4,-83,63,-62,-61,-129,-140,-105
-61,-121,-58,90,-4,-89,63,-50,-55,-111,-134,-93
-67,-121,-52,90,-4,-89,57,-50,-37,-117,-134,-93
-61,-115,-52,84,-4,-83,45,-44,-49,-111,-128,-111
-55,-115,-58,84,-4,-89,51,-50,-49,-105,-134,-105
-67,-115,-46,90,-9,-83,63,-38,-49,-123,-122,-99
-67,-109,-40,84,-9,-77,57,-50,-55,-123,-128,-105
-61,-109,-46,84,-4,-77,75,-44,-37,-123,-122,-105
-61,-115,-52,84,-4,-83,69,-44,-43,-123,-122,-105
-61,-115,-52,84,-4,-83,75,-38,-43,-111,-134,-93
-61,-115,-52,84,-4,-83,81,-38,-43,-111,-128,-93
-73,-121,-46,96,-9,-83,75,-32,-37,-105,-122,-93
-73,-121,-46,96,-9,-83,63,-26,-37,-105,-116,-93
-91,-115,-22,102,-33,-71,63,-26,-31,-93,-110,-99
-79,-115,-34,96,-21,-77,75,-26,-25,-111,-122,-93
-67,-103,-34,84,-15,-71,81,-14,-25,-111,-116,-87
-55,-103,-46,78,-4,-77,93,-32,-31,-105,-128,-99
-61,-109,-46,84,-4,-77,105,-20,-25,-111,-122,-93
-55,-91,-34,72,-9,-65,81,-26,-37,-111,-134,-105
-49,-103,-52,72,-4,-77,87,-14,-37,-111,-122,-105
-61,-103,-40,78,-9,-71,81,-14,-31,-93,-128,-105
-73,-103,-28,84,-21,-65,81,-20,-31,-105,-134,-105
-73,-109,-34,90,-15,-71,81,-9,-25,-99,-122,-93
-79,-109,-28,90,-21,-71,75,-9,-19,-87,-122,-99
-85,-115,-28,96,-27,-71,93,-9,-25,-105,-122,-87
-85,-109,-22,96,-27,-65,87,-14,-31,-111,-128,-93
-73,-97,-22,84,-21,-59,93,-14,-37,-111,-134,-99
-61,-103,-40,78,-9,-71,105,-9,-37,-117,-122,-111
-55,-97,-40,72,-4,-71,99,-9,-37,-111,-128,-99
-49,-103,-52,72,-4,-77,99,-9,-37,-111,-134,-99
-67,-103,-34,84,-15,-71,99,-9,-31,-99,-134,-87
-61,-97,-34,78,-9,-65,93,-9,-49,-111,-134,-105
-61,-97,-34,78,-9,-65,87,-9,-43,-111,-140,-105
-73,-97,-22,84,-21,-59,87,-9,-43,-105,-140,-99
-67,-103,-34,84,-15,-71,93,-9,-49,-123,-134,-99
-73,-97,-22,84,-21,-59,99,-9,-55,-135,-146,-111
-67,-97,-28,78,-15,-65,99,-9,-55,-129,-152,-111
-67,-103,-34,84,-15,-71,99,-14,-55,-141,-146,-111
-67,-103,-34,84,-15,-71,93,-20,-67,-141,-140,-111
-67,-109,-40,84,-9,-77,99,-9,-67,-141,-158,-111
-67,-97,-28,78,-15,-65,87,-20,-79,-135,-152,-117
-61,-109,-46,84,-4,-77,87,-20,-67,-135,-146,-123
-73,-103,-28,84,-21,-65,87,-9,-73,-135,-152,-123
-73,-109,-34,90,-15,-71,99,-9,-79,-135,-146,-123
-79,-109,-28,90,-21,-71,99,-26,-79,-147,-164,-111
-79,-115,-34,96,-21,-77,93,-14,-79,-141,-146,-123
-61,-121,-58,90,-4,-89,105,-20,-91,-141,-146,-117
-73,-109,-34,90,-15,-71,93,-20,-85,-141,-152,-117
-73,-121,-46,96,-9,-83,87,-26,-91,-153,-158,-135
-85,-121,-34,102,-21,-77,93,-20,-85,-153,-152,-123
-79,-115,-34,96,-21,-77,99,-26,-97,-153,-152,-117
-67,-127,-58,96,-4,-95,93,-20,-91,-153,-152,-117
-85,-127,-40,102,-21,-83,99,-14,-85,-147,-152,-111
-73,-115,-40,90,-15,-77,87,-26,-97,-141,-152,-117
-73,-109,-34,90,-15,-71,93,-20,-97,-147,-152,-111
-73,-109,-34,90,-15,-71,87,-20,-97,-147,-158,-111
-73,-109,-34,90,-15,-71,87,-32,-97,-159,-164,-129
-85,-109,-22,96,-27,-65,87,-32,-109,-153,-158,-129
-79,-97,-16,84,-27,-59,69,-38,-109,-165,-170,-141
-73,-91,-16,78,-27,-53,75,-38,-109,-165,-170,-135
-73,-103,-28,84,-21,-65,75,-38,-109,-165,-176,-129
-79,-115,-34,96,-21,-77,63,-38,-109,-159,-170,-129
-79,-121,-40,96,-15,-83,75,-32,-109,-153,-158,-123
-85,-115,-28,96,-27,-71,87,-38,-109,-153,-152,-117
-91,-115,-22,102,-33,-71,75,-38,-109,-171,-158,-111
-85,-121,-34,102,-21,-77,87,-38,-121,-165,-158,-117
-73,-115,-40,90,-15,-77,87,-50,-115,-171,-170,-129
-67,-109,-40,84,-9,-77,75,-50,-115,-171,-164,-135
-73,-103,-28,84,-21,-65,81,-56,-121,-177,-164,-141
-67,-115,-46,90,-9,-83,69,-44,-121,-171,-170,-135
-67,-121,-52,90,-4,-89,75,-50,-121,-159,-164,-135
-79,-109,-28,90,-21,-71,57,-50,-127,-165,-170,-129
-79,-121,-40,96,-15,-83,69,-56,-127,-165,-164,-123
-73,-121,-46,96,-9,-83,75,-56,-127,-165,-170,-135
-79,-121,-40,96,-15,-83,75,-56,-127,-177,-164,-123
-79,-115,-34,96,-21,-77,75,-68,-127,-177,-170,-135
-85,-121,-34,102,-21,-77,75,-68,-127,-177,-170,-129
-91,-127,-34,108,-27,-83,75,-62,-133,-171,-170,-123
-79,-121,-40,96,-15,-83,75,-68,-133,-183,-182,-135
-73,-127,-52,96,-9,-89,69,-68,-133,-177,-182,-141
-73,-133,-58,102,-4,-95,75,-68,-145,-171,-170,-129
-85,-133,-46,108,-15,-89,69,-68,-127,-177,-170,-135
-85,-133,-46,108,-15,-89,75,-62,-127,-171,-176,-141
-85,-133,-46,108,-15,-89,81,-68,-133,-171,-170,-129
-79,-133,-52,102,-9,-95,81,-74,-145,-177,-176,-135
-79,-127,-46,102,-15,-89,87,-74,-133,-171,-176,-141
-79,-133,-52,102,-9,-95,81,-92,-145,-189,-188,-141
-85,-133,-46,108,-15,-89,81,-74,-139,-177,-170,-123
-85,-133,-46,108,-15,-89,87,-74,-139,-177,-176,-135
-79,-127,-46,102,-15,-89,75,-74,-145,-183,-176,-141
-85,-133,-46,108,-15,-89,81,-68,-133,-183,-170,-141
-91,-127,-34,108,-27,-83,69,-80,-133,-189,-176,-141
-91,-127,-34,108,-27,-83,69,-74,-133,-183,-170,-141
-79,-127,-46,102,-15,-89,69,-92,-139,-195,-188,-153
-79,-139,-58,108,-9,-101,81,-86,-145,-195,-182,-141
-91,-145,-52,114,-15,-101,75,-86,-139,-183,-176,-147
-91,-139,-46,114,-21,-95,75,-92,-151,-201,-188,-159
-109,-145,-34,126,-33,-89,75,-86,-145,-189,-176,-141
-97,-145,-46,120,-21,-95,69,-92,-151,-195,-188,-153
-91,-127,-34,108,-27,-83,69,-86,-145,-189,-188,-153
-85,-121,-34,102,-21,-77,75,-92,-145,-195,-182,-153
-103,-139,-34,120,-33,-89,69,-86,-151,-189,-182,-147
-97,-145,-46,120,-21,-95,81,-86,-139,-189,-182,-147
-79,-127,-46,102,-15,-89,75,-92,-139,-195,-176,-153
-85,-139,-52,108,-15,-95,81,-86,-151,-195,-182,-141
-85,-139,-52,108,-15,-95,81,-98,-145,-195,-182,-153
-85,-139,-52,108,-15,-95,69,-98,-145,-189,-182,-147
-79,-133,-52,102,-9,-95,75,-92,-145,-201,-188,-147
-79,-139,-58,108,-9,-101,87,-98,-151,-189,-176,-153
-91,-133,-40,108,-21,-89,63,-92,-151,-195,-176,-153
-91,-133,-40,108,-21,-89,75,-92,-139,-195,-182,-147
-79,-145,-64,108,-4,-107,75,-98,-151,-195,-182,-147
-91,-139,-46,114,-21,-95,69,-104,-145,-183,-176,-141
-91,-145,-52,114,-15,-101,81,-98,-133,-177,-176,-141
-91,-133,-40,108,-21,-89,75,-104,-133,-195,-182,-141
-91,-139,-46,114,-21,-95,81,-86,-139,-195,-182,-141
-85,-145,-58,114,-9,-101,75,-92,-145,-195,-188,-153
-79,-139,-58,108,-9,-101,75,-86,-157,-207,-194,-147
-85,-133,-46,108,-15,-89,81,-92,-151,-207,-200,-159
-85,-133,-46,108,-15,-89,69,-92,-151,-195,-188,-165
-85,-145,-58,114,-9,-101,69,-92,-151,-195,-188,-159
-97,-151,-52,120,-21,-101,81,-98,-139,-189,-182,-141
-85,-133,-46,108,-15,-89,63,-92,-139,-189,-182,-153
-91,-145,-52,114,-15,-101,81,-86,-121,-189,-182,-141
-97,-139,-40,114,-27,-89,87,-98,-133,-183,-182,-141
-91,-145,-52,114,-15,-101,87,-98,-133,-183,-182,-147
-91,-151,-58,120,-15,-107,81,-98,-133,-189,-188,-147
-91,-139,-46,114,-21,-95,87,-98,-151,-207,-182,-159
-91,-139,-46,114,-21,-95,93,-104,-145,-195,-188,-147
-85,-145,-58,114,-9,-101,75,-98,-151,-195,-188,-159
-91,-157,-64,120,-9,-113,75,-86,-145,-195,-188,-153
-91,-151,-58,120,-15,-107,87,-98,-145,-189,-182,-147
-91,-157,-64,120,-9,-113,81,-98,-145,-195,-182,-153
-97,-163,-64,126,-15,-113,81,-92,-133,-183,-188,-147
-97,-157,-58,126,-15,-107,87,-104,-145,-195,-182,-147
-97,-163,-64,126,-15,-113,93,-110,-139,-195,-188,-153
-91,-163,-70,126,-9,-119,87,-104,-139,-195,-176,-153
-97,-157,-58,126,-15,-107,93,-98,-145,-201,-182,-141
-103,-151,-46,126,-27,-101,99,-98,-133,-189,-194,-153
-97,-151,-52,120,-21,-101,75,-104,-139,-195,-200,-159
-97,-157,-58,126,-15,-107,81,-104,-145,-195,-188,-153
-103,-157,-52,126,-21,-107,81,-92,-139,-195,-182,-147
-97,-157,-58,126,-15,-107,75,-86,-139,-189,-176,-153
-85,-151,-64,114,-9,-107,75,-98,-145,-201,-182,-153
-97,-151,-52,120,-21,-101,81,-104,-145,-201,-182,-159
-91,-151,-58,120,-15,-107,93,-98,-139,-189,-176,-141
-97,-151,-52,120,-21,-101,87,-110,-133,-195,-176,-147
-97,-151,-52,120,-21,-101,93,-98,-133,-195,-188,-147
-91,-145,-52,114,-15,-101,99,-110,-139,-201,-182,-153
-97,-145,-46,120,-21,-95,87,-104,-139,-201,-188,-147
-97,-145,-46,120,-21,-95,93,-98,-133,-207,-188,-153
-91,-151,-58,120,-15,-107,87,-104,-139,-207,-188,-153
-97,-151,-52,120,-21,-101,75,-98,-145,-201,-194,-159
-97,-151,-52,120,-21,-101,81,-104,-145,-207,-194,-159
-97,-157,-58,126,-15,-107,87,-98,-139,-201,-188,-153
-103,-151,-46,126,-27,-101,93,-110,-133,-195,-176,-153
-97,-151,-52,120,-21,-101,87,-104,-139,-201,-188,-153
-91,-157,-64,120,-9,-113,93,-116,-139,-207,-188,-153
-109,-163,-52,132,-27,-107,99,-104,-133,-195,-188,-141
-97,-151,-52,120,-21,-101,87,-104,-133,-201,-194,-159
-97,-151,-52,120,-21,-101,99,-110,-133,-195,-182,-153
-97,-157,-58,126,-15,-107,99,-104,-133,-195,-188,-147
-97,-145,-46,120,-21,-95,93,-92,-133,-183,-176,-141
-91,-145,-52,114,-15,-101,93,-86,-121,-195,-182,-141
-97,-157,-58,126,-15,-107,105,-92,-127,-201,-176,-141
-97,-157,-58,126,-15,-107,105,-92,-127,-213,-194,-147
-91,-163,-70,126,-9,-119,99,-98,-133,-219,-194,-159
-85,-151,-64,114,-9,-107,99,-116,-139,-213,-188,-153
-91,-151,-58,120,-15,-107,93,-104,-139,-201,-182,-153
-97,-157,-58,126,-15,-107,99,-104,-145,-195,-164,-153
-91,-157,-64,120,-9,-113,99,-98,-139,-189,-176,-147
-97,-145,-46,120,-21,-95,105,-98,-139,-195,-176,-147
-97,-145,-46,120,-21,-95,99,-110,-133,-189,-170,-141
-97,-139,-40,114,-27,-89,99,-92,-133,-195,-188,-153
-97,-157,-58,126,-15,-107,117,-98,-133,-201,-176,-141
-103,-151,-46,126,-27,-101,105,-104,-127,-195,-188,-147
-97,-151,-52,120,-21,-101,93,-110,-139,-219,-206,-165
-97,-157,-58,126,-15,-107,111,-116,-133,-207,-188,-153
-91,-157,-64,120,-9,-113,99,-110,-145,-219,-200,-165
-91,-157,-64,120,-9,-113,105,-110,-139,-207,-194,-159
-91,-133,-40,108,-21,-89,111,-92,-121,-189,-176,-147
-85,-127,-40,102,-21,-83,123,-92,-127,-189,-170,-135
-79,-109,-28,90,-21,-71,117,-80,-121,-183,-164,-135
-91,-109,-16,96,-33,-65,141,-50,-103,-177,-158,-123
-73,-91,-16,78,-27,-53,159,-56,-85,-159,-146,-105
-73,-55,7,60,-45,-17,165,-32,-67,-153,-140,-111
-67,-43,13,54,-45,-11,183,-44,-61,-159,-140,-111
-67,-25,31,42,-51,-6,207,-32,-49,-141,-134,-105
-67,-13,43,36,-57,6,219,-14,-49,-135,-116,-99
-73,-13,49,42,-63,12,219,-20,-37,-129,-116,-93
-79,-19,49,48,-69,6,219,-26,-37,-129,-128,-99
-79,-31,37,54,-63,-6,231,-32,-49,-129,-122,-93
-79,-25,43,48,-63,0,219,-38,-55,-135,-128,-99
-85,-19,55,48,-75,12,225,-32,-61,-147,-134,-105
-91,-8,79,42,-87,30,231,-32,-43,-117,-116,-81
-73,10,85,24,-81,48,225,-26,-31,-123,-110,-87
-61,22,85,12,-75,54,213,-14,-19,-111,-98,-81
-61,52,115,6,-87,84,207,-44,-19,-111,-80,-63
-49,76,127,-5,-87,102,207,-50,-13,-105,-86,-63
-49,94,145,-17,-99,120,183,-56,-8,-81,-74,-51
-49,100,151,-17,-99,126,183,-62,-13,-93,-68,-51
-49,106,157,-23,-105,132,153,-92,-31,-93,-68,-45
-37,106,145,-29,-93,126,123,-92,-19,-87,-62,-33
-31,112,145,-35,-87,126,111,-104,-31,-99,-62,-39
-31,106,139,-29,-87,120,111,-92,-19,-81,-62,-27
-13,100,115,-35,-63,108,105,-86,-25,-93,-68,-27
-13,52,67,-11,-39,60,75,-92,-43,-99,-80,-45
-13,34,49,-5,-33,42,45,-98,-43,-111,-80,-57
-8,4,1,1,-4,6,45,-86,-61,-129,-104,-63
-8,-8,-10,6,-4,-6,57,-80,-43,-117,-98,-69
4,-8,-22,6,8,-11,81,-62,-37,-111,-92,-63
-8,-19,-22,6,2,-17,99,-56,-49,-105,-98,-75
-13,-37,-22,24,-4,-29,99,-62,-73,-141,-122,-81
-31,-61,-28,42,-4,-47,105,-68,-79,-141,-116,-81
-55,-85,-28,66,-9,-59,135,-68,-91,-165,-134,-111
-67,-103,-34,84,-15,-71,135,-68,-97,-177,-152,-117
-85,-121,-34,102,-21,-77,177,-44,-79,-159,-158,-135
-85,-133,-46,108,-15,-89,249,-14,-79,-177,-164,-135
-91,-139,-46,114,-21,-95,297,3,-73,-159,-152,-135
-91,-157,-64,120,-9,-113,303,9,-73,-171,-170,-153
-97,-169,-70,132,-9,-119,303,9,-85,-171,-158,-135
-97,-163,-64,126,-15,-113,339,27,-73,-171,-152,-135
-97,-163,-64,126,-15,-113,387,33,-85,-195,-170,-141
-91,-181,-88,132,-4,-137,477,51,-79,-195,-182,-159
-103,-193,-88,144,-4,-143,567,81,-85,-213,-200,-171
-91,-187,-94,138,-4,-143,537,117,-67,-207,-194,-165
-67,-169,-100,114,8,-137,417,177,-25,-171,-182,-171
-31,-133,-100,78,26,-119,171,195,-8,-165,-164,-165
-8,-115,-112,54,44,-113,39,231,28,-141,-146,-153
-8,-91,-82,48,26,-89,15,255,40,-135,-140,-153
-8,-67,-70,30,26,-65,-26,273,52,-123,-122,-123
22,-31,-64,6,38,-47,-164,309,82,-93,-110,-123
40,-8,-52,-11,44,-23,-326,333,106,-111,-104,-99
64,4,-58,-35,62,-17,-494,369,136,-81,-86,-99
88,34,-52,-59,68,-6,-680,393,154,-69,-92,-99
100,64,-34,-83,68,12,-752,477,202,-51,-74,-81
124,112,-10,-119,68,48,-782,567,262,-15,-56,-81
142,124,-16,-131,80,48,-896,597,256,-15,-50,-69
172,124,-46,-149,110,36,-998,615,244,-10,-38,-75
190,160,-28,-173,110,60,-1100,633,256,-10,-38,-75
214,190,-22,-203,116,78,-1208,681,280,32,-9,-33
244,226,-22,-233,134,96,-1232,723,322,68,9,-10
286,214,-76,-245,182,66,-1250,747,340,98,39,14
310,202,-112,-251,212,42,-1262,801,406,146,69,26
334,214,-124,-269,230,42,-1268,783,460,164,75,32
370,220,-154,-293,260,30,-1370,471,406,200,129,80
424,226,-202,-323,308,6,-1520,-20,220,194,141,80
478,160,-322,-317,404,-77,-1616,-386,28,194,165,122
544,112,-436,-329,488,-155,-1694,-596,-79,242,225,146
616,142,-478,-377,542,-161,-1826,-926,-223,260,261,194
676,208,-472,-443,572,-125,-1994,-1274,-307,344,363,302
754,280,-478,-515,614,-89,-2174,-1556,-241,506,525,434
838,376,-466,-605,650,-35,-2336,-1832,-139,728,735,608
904,478,-424,-695,662,24,-2485,-2210,-121,968,957,776
976,640,-340,-809,662,150,-2749,-2947,-307,1208,1221,992
1054,838,-220,-947,638,306,-3031,-3697,-619,1502,1575,1298
1144,1000,-142,-1073,644,432,-3283,-4183,-931,1778,1899,1562
1198,1126,-70,-1163,632,522,-3481,-4579,-1183,2053,2216,1838
1210,1246,31,-1223,584,642,-3559,-4831,-1369,2305,2527,2077
1144,1348,199,-1241,470,774,-3487,-4956,-1705,2329,2653,2203
1018,1378,349,-1199,332,864,-3349,-4932,-2053,2251,2683,2275
904,1396,481,-1151,206,942,-3127,-4681,-2125,2167,2659,2269
808,1336,517,-1073,140,930,-2863,-4273,-2077,2089,2611,2221
730,1180,439,-959,146,810,-2569,-3817,-1933,2036,2521,2119
658,928,259,-791,194,594,-2228,-3283,-1633,1994,2390,1928
574,688,103,-629,236,396,-1850,-2689,-1285,1898,2180,1676
406,406,-5,-407,206,204,-1430,-2126,-1069,1472,1713,1298
244,28,-220,-137,236,-89,-974,-1568,-985,680,963,782
112,-271,-394,72,248,-329,-590,-1064,-901,-165,165,266
-8,-331,-334,162,164,-329,-338,-740,-751,-543,-248,-10
-19,-265,-244,144,104,-257,-212,-554,-535,-363,-200,-51
-55,-235,-178,144,50,-209,-104,-362,-343,-201,-116,-57
-43,-193,-148,114,44,-173,-20,-242,-241,-177,-122,-81
-49,-175,-124,108,26,-149,21,-152,-163,-117,-98,-81
-73,-151,-76,108,-4,-113,93,-68,-67,-81,-80,-81
-61,-121,-58,90,-4,-89,123,-14,-37,-81,-74,-81
-79,-121,-40,96,-15,-83,177,45,16,-63,-56,-69
-85,-115,-28,96,-27,-71,225,87,52,-63,-68,-81
-97,-133,-34,114,-27,-83,231,99,34,-93,-86,-99
-91,-139,-46,114,-21,-95,243,129,46,-123,-110,-117
-73,-157,-82,114,-4,-119,255,141,34,-123,-146,-141
-91,-175,-82,132,-4,-131,273,177,46,-135,-152,-141
-85,-175,-88,126,-4,-131,285,201,58,-147,-170,-153
-97,-181,-82,138,-4,-131,291,213,46,-153,-182,-177
-109,-181,-70,144,-15,-125,303,225,76,-141,-188,-177
-103,-181,-76,138,-9,-131,321,231,64,-153,-188,-189
-121,-187,-64,150,-27,-125,339,249,82,-159,-176,-177
-115,-181,-64,144,-21,-125,339,255,94,-153,-188,-183
-121,-187,-64,150,-27,-125,351,279,118,-147,-182,-171
-121,-181,-58,150,-27,-119,357,285,118,-153,-182,-177
-97,-175,-76,132,-9,-125,357,285,112,-159,-188,-189
-91,-175,-82,132,-4,-131,351,309,112,-165,-194,-195
-79,-175,-94,126,-4,-137,351,315,118,-159,-200,-195
-91,-175,-82,132,-4,-131,345,309,118,-159,-206,-207
-97,-169,-70,132,-9,-119,345,321,124,-147,-200,-201
-97,-163,-64,126,-15,-113,357,327,130,-153,-194,-183
-109,-169,-58,138,-21,-113,369,333,136,-141,-188,-183
-97,-163,-64,126,-15,-113,363,339,154,-147,-182,-189
-115,-163,-46,138,-33,-107,375,357,166,-135,-176,-177
-103,-157,-52,126,-21,-107,381,375,166,-135,-176,-177
-85,-151,-64,114,-9,-107,369,381,172,-129,-170,-183
-79,-151,-70,114,-4,-113,375,387,172,-129,-182,-189
-85,-151,-64,114,-9,-107,381,411,184,-123,-176,-171
-85,-145,-58,114,-9,-101,375,411,178,-129,-170,-189
-73,-139,-64,102,-4,-101,369,417,184,-123,-170,-189
-85,-133,-46,108,-15,-89,393,429,190,-117,-170,-177
-97,-139,-40,114,-27,-89,405,447,196,-99,-152,-165
-85,-127,-40,102,-21,-83,393,441,202,-105,-164,-171
-91,-115,-22,102,-33,-71,405,459,214,-99,-152,-159
-85,-109,-22,96,-27,-65,405,459,220,-105,-146,-165
-85,-115,-28,96,-27,-71,417,477,232,-93,-140,-159
-85,-115,-28,96,-27,-71,417,495,244,-81,-140,-159
-85,-109,-22,96,-27,-65,411,507,238,-81,-140,-153
-85,-97,-10,90,-33,-53,417,525,250,-75,-134,-153
-91,-91,-5,90,-45,-47,417,537,268,-51,-122,-141
-91,-85,-5,84,-45,-41,435,543,280,-57,-116,-135
-79,-67,1,72,-45,-29,447,549,286,-57,-116,-141
-79,-73,-5,72,-39,-35,447,555,304,-57,-122,-141
-79,-67,1,72,-45,-29,459,585,316,-57,-122,-141
-67,-61,-5,60,-33,-29,471,597,316,-45,-110,-135
-61,-55,-5,54,-33,-23,465,615,328,-39,-98,-135
-61,-31,19,42,-45,-6,453,633,334,-27,-104,-141
-61,-43,7,48,-39,-11,459,657,340,-15,-86,-123
-61,-25,25,42,-45,-6,459,675,352,-15,-98,-123
-61,-13,37,36,-51,6,459,687,370,-10,-80,-105
-73,-8,55,36,-69,18,477,711,382,-4,-74,-99
-67,-8,61,30,-63,24,489,717,394,-4,-68,-105
-55,4,61,18,-57,30,489,723,406,-10,-68,-93
-49,10,61,12,-57,36,495,741,418,-10,-68,-111
-49,16,67,6,-57,42,501,759,430,14,-56,-93
-43,40,85,6,-63,60,495,771,436,14,-56,-99
-37,52,91,1,-63,72,489,795,448,20,-44,-99
-49,58,109,1,-81,84,495,831,460,38,-38,-81
-49,76,127,-5,-87,102,495,855,472,38,-44,-87
-43,76,121,-11,-81,96,507,873,490,56,-26,-69
-55,88,145,-11,-99,114,513,897,508,74,-20,-63
-49,106,157,-23,-105,132,519,909,490,68,-20,-57
-43,118,163,-29,-105,138,519,921,520,74,-20,-57
-37,130,169,-41,-105,150,519,951,532,74,-9,-51
-31,142,175,-47,-105,156,537,963,532,86,-3,-39
-19,166,187,-65,-105,174,531,963,538,92,-3,-39
-13,178,193,-77,-105,186,519,999,550,104,15,-33
-19,190,211,-77,-117,198,537,1029,568,116,27,-15
-25,208,235,-83,-129,222,543,1035,580,128,39,-10
-19,220,235,-95,-129,228,531,1059,586,140,45,-4
-25,232,259,-101,-147,246,537,1083,604,164,57,8
-13,250,265,-113,-141,258,537,1083,592,158,75,14
-13,268,283,-125,-153,276,537,1095,616,176,81,20
-8,298,307,-143,-159,300,525,1107,616,176,93,32
-8,298,295,-149,-147,300,531,1101,634,188,105,50
-8,328,331,-161,-171,330,525,1113,640,200,111,50
-2,352,343,-179,-171,348,507,1119,622,206,117,50
4,370,355,-191,-171,366,513,1131,640,224,147,80
16,388,361,-203,-171,378,495,1131,646,230,165,86
16,406,379,-215,-177,396,489,1137,664,248,171,110
16,424,397,-221,-189,414,477,1143,664,254,195,122
28,448,409,-233,-189,432,477,1137,652,266,201,128
34,466,421,-245,-189,444,465,1137,676,290,219,152
40,478,427,-257,-189,456,459,1143,658,296,237,170
46,478,427,-263,-189,456,447,1131,676,308,249,170
46,502,451,-275,-201,480,429,1113,682,326,255,182
64,520,451,-293,-189,486,411,1101,670,332,261,188
64,520,451,-293,-189,486,393,1095,658,344,285,212
64,532,463,-299,-195,498,369,1065,664,362,303,224
70,544,469,-305,-195,504,357,1035,658,380,321,236
82,556,469,-317,-189,510,333,1017,658,386,327,242
76,562,481,-317,-201,522,327,981,652,398,351,254
88,574,481,-329,-195,528,291,957,640,392,345,248
100,580,475,-341,-183,528,267,933,634,392,369,266
106,574,463,-341,-177,516,249,891,622,410,375,272
118,568,445,-341,-159,504,213,855,610,410,381,278
130,568,433,-347,-147,498,195,801,598,422,393,290
130,556,421,-341,-141,486,171,771,586,428,393,308
118,556,433,-335,-153,492,147,729,586,452,417,314
130,544,409,-335,-135,480,123,693,574,452,417,320
130,544,409,-335,-135,480,93,651,562,458,423,326
136,532,391,-335,-123,468,93,603,544,464,429,326
148,520,367,-335,-105,450,75,555,526,452,417,320
136,502,361,-317,-111,438,63,519,526,458,429,320
148,496,343,-323,-93,426,45,477,490,434,417,296
136,472,325,-299,-93,402,33,453,484,428,399,290
130,448,307,-287,-87,378,33,411,472,422,399,290
130,424,283,-275,-75,354,9,369,442,398,375,272
118,406,277,-257,-75,342,9,339,436,392,351,254
124,382,247,-251,-57,318,-3,315,406,374,339,248
94,346,241,-221,-69,294,3,285,394,368,327,236
82,328,235,-209,-75,282,9,273,370,338,297,218
76,298,217,-191,-63,258,15,243,340,314,273,182
64,268,199,-167,-63,234,27,231,322,296,255,170
70,256,181,-167,-51,222,27,207,292,248,231,152
46,226,169,-137,-57,198,33,189,268,230,207,128
40,196,145,-119,-45,174,39,165,238,206,177,104
40,178,127,-107,-39,156,39,147,208,170,153,74
28,154,115,-89,-39,138,45,129,190,158,123,68
10,124,103,-65,-39,114,57,111,178,134,105,56
-8,94,91,-41,-45,96,51,93,148,98,75,38
-8,76,85,-29,-45,78,69,75,130,80,63,20
-8,58,67,-17,-39,60,63,57,100,62,39,-10
-19,34,55,1,-39,42,69,45,82,44,21,-10
-13,28,43,1,-27,36,81,39,58,20,3,-21
-31,4,37,6,-33,18,93,39,40,8,-9,-15
-37,-8,25,18,-33,6,87,9,16,-10,-20,-39
-37,-19,7,24,-27,-6,93,3,-2,-27,-26,-51
-43,-19,13,30,-33,-6,93,3,-8,-33,-50,-63
-49,-19,19,30,-39,-6,93,3,-8,-45,-56,-57
-49,-49,-5,48,-21,-23,93,-9,-13,-57,-62,-57
-49,-49,-5,48,-21,-23,93,-9,-37,-69,-74,-69
-49,-55,-5,48,-21,-29,99,-20,-49,-75,-86,-75
-61,-61,-5,60,-27,-29,99,-20,-55,-81,-86,-81
-61,-73,-10,66,-21,-41,93,-32,-67,-93,-98,-81
-73,-79,-5,72,-33,-41,99,-38,-85,-99,-98,-81
-67,-79,-10,72,-27,-47,99,-44,-85,-99,-104,-87
-73,-97,-22,84,-21,-59,99,-44,-91,-111,-104,-81
-67,-103,-34,84,-15,-71,87,-68,-97,-117,-104,-93
-79,-103,-22,90,-27,-65,81,-56,-91,-105,-104,-87
-85,-103,-16,90,-33,-59,81,-74,-97,-111,-104,-99
-79,-109,-28,90,-21,-71,99,-74,-103,-123,-104,-99
-73,-103,-28,84,-21,-65,105,-80,-103,-117,-116,-105
-67,-97,-28,78,-15,-65,93,-92,-115,-135,-122,-111
-73,-103,-28,84,-21,-65,105,-80,-115,-129,-116,-105
-79,-115,-34,96,-21,-77,105,-74,-127,-129,-116,-99
-67,-109,-40,84,-9,-77,93,-74,-121,-135,-122,-105
-67,-115,-46,90,-9,-83,93,-74,-127,-129,-116,-93
-67,-115,-46,90,-9,-83,87,-74,-121,-129,-122,-99
-73,-109,-34,90,-15,-71,81,-86,-121,-129,-122,-99
-73,-115,-40,90,-15,-77,75,-80,-133,-129,-116,-105
-73,-109,-34,90,-15,-71,81,-86,-121,-123,-116,-99
-73,-103,-28,84,-21,-65,81,-92,-121,-135,-116,-105
-61,-109,-46,84,-4,-77,75,-98,-133,-135,-128,-105
-67,-115,-46,90,-9,-83,87,-92,-133,-129,-122,-99
-73,-121,-46,96,-9,-83,93,-74,-133,-135,-122,-99
-67,-121,-52,90,-4,-89,93,-80,-121,-153,-128,-105
-73,-127,-52,96,-9,-89,99,-74,-115,-141,-116,-93
-61,-127,-64,90,-4,-95,75,-80,-127,-141,-128,-105
-73,-121,-46,96,-9,-83,87,-74,-109,-135,-122,-87
-73,-121,-46,96,-9,-83,75,-74,-109,-135,-116,-93
-79,-127,-46,102,-15,-89,87,-80,-115,-135,-110,-99
-79,-121,-40,96,-15,-83,87,-68,-109,-129,-116,-93
-67,-115,-46,90,-9,-83,75,-74,-109,-129,-122,-87
-67,-115,-46,90,-9,-83,93,-74,-103,-123,-116,-81
-61,-121,-58,90,-4,-89,99,-68,-109,-117,-122,-87
-67,-121,-52,90,-4,-89,87,-68,-103,-123,-116,-87
-67,-121,-52,90,-4,-89,87,-62,-115,-123,-116,-81
-67,-127,-58,96,-4,-95,93,-56,-97,-123,-116,-93
-61,-115,-52,84,-4,-83,87,-56,-103,-123,-116,-93
-67,-115,-46,90,-9,-83,81,-44,-103,-123,-122,-93
-79,-127,-46,102,-15,-89,99,-44,-91,-117,-116,-81
-67,-103,-34,84,-15,-71,93,-50,-97,-117,-122,-93
-67,-103,-34,84,-15,-71,93,-50,-109,-123,-128,-81
-67,-109,-40,84,-9,-77,111,-44,-103,-117,-116,-81
-73,-109,-34,90,-15,-71,105,-50,-103,-123,-110,-93
-67,-109,-40,84,-9,-77,111,-50,-103,-123,-104,-87
-67,-109,-40,84,-9,-77,105,-38,-103,-111,-110,-81
-67,-121,-52,90,-4,-89,111,-38,-103,-111,-116,-87
-67,-109,-40,84,-9,-77,117,-26,-97,-105,-110,-87
-61,-115,-52,84,-4,-83,99,-32,-91,-111,-110,-87
-61,-115,-52,84,-4,-83,111,-26,-109,-117,-110,-81
-73,-115,-40,90,-15,-77,111,-38,-91,-111,-116,-93
-67,-109,-40,84,-9,-77,93,-44,-109,-123,-110,-99
-73,-103,-28,84,-21,-65,105,-44,-115,-129,-110,-99
-73,-97,-22,84,-21,-59,105,-50,-115,-135,-122,-99
-73,-103,-28,84,-21,-65,111,-56,-115,-141,-122,-93
-67,-109,-40,84,-9,-77,105,-26,-121,-141,-122,-99
-73,-109,-34,90,-15,-71,105,-32,-109,-123,-122,-93
-79,-109,-28,90,-21,-71,99,-38,-109,-123,-116,-93
-97,-103,-5,96,-45,-53,99,-26,-103,-129,-116,-81
-79,-97,-16,84,-27,-59,99,-38,-127,-141,-122,-105
-79,-91,-10,84,-33,-53,111,-44,-115,-141,-116,-105
-73,-91,-16,78,-27,-53,111,-44,-121,-129,-116,-99
-61,-97,-34,78,-9,-65,111,-38,-127,-135,-128,-93
-79,-109,-28,90,-21,-71,105,-26,-121,-141,-122,-87
-73,-115,-40,90,-15,-77,99,-32,-121,-141,-128,-93
-67,-103,-34,84,-15,-71,99,-26,-139,-147,-128,-93
-67,-97,-28,78,-15,-65,99,-38,-127,-135,-128,-93
-61,-103,-40,78,-9,-71,93,-32,-133,-147,-122,-93
-67,-103,-34,84,-15,-71,93,-50,-139,-135,-128,-93
-73,-103,-28,84,-21,-65,93,-44,-151,-141,-134,-99
-79,-103,-22,90,-27,-65,111,-44,-139,-147,-122,-99
-85,-103,-16,90,-33,-59,111,-50,-139,-141,-122,-99
-73,-115,-40,90,-15,-77,111,-44,-139,-141,-122,-99
-85,-115,-28,96,-27,-71,105,-44,-139,-141,-134,-99
-73,-115,-40,90,-15,-77,117,-44,-145,-153,-140,-105
-79,-109,-28,90,-21,-71,105,-32,-139,-159,-122,-99
-79,-121,-40,96,-15,-83,105,-38,-133,-141,-134,-105
-85,-121,-34,102,-21,-77,111,-50,-139,-147,-134,-99
-85,-115,-28,96,-27,-71,105,-44,-139,-153,-134,-99
-79,-121,-40,96,-15,-83,111,-50,-145,-153,-128,-99
-85,-115,-28,96,-27,-71,105,-56,-139,-153,-134,-99
-67,-115,-46,90,-9,-83,99,-56,-157,-147,-128,-99
-67,-115,-46,90,-9,-83,111,-56,-157,-159,-128,-105
-73,-115,-40,90,-15,-77,99,-56,-157,-153,-140,-111
-67,-133,-64,96,-4,-101,105,-56,-151,-153,-140,-99
-79,-133,-52,102,-9,-95,111,-50,-145,-165,-128,-105
-85,-127,-40,102,-21,-83,99,-56,-145,-159,-146,-111
-85,-121,-34,102,-21,-77,105,-62,-151,-165,-140,-111
-85,-133,-46,108,-15,-89,111,-44,-151,-159,-134,-99
-73,-133,-58,102,-4,-95,93,-68,-157,-153,-140,-105
-85,-133,-46,108,-15,-89,111,-62,-145,-153,-140,-105
-79,-127,-46,102,-15,-89,111,-68,-163,-171,-146,-105
-91,-133,-40,108,-21,-89,105,-62,-157,-171,-140,-99
-85,-139,-52,108,-15,-95,111,-62,-163,-171,-146,-105
-85,-133,-46,108,-15,-89,111,-74,-157,-171,-146,-99
-85,-127,-40,102,-21,-83,105,-68,-163,-171,-146,-111
-85,-133,-46,108,-15,-89,105,-62,-151,-165,-152,-99
-91,-133,-40,108,-21,-89,99,-74,-157,-171,-146,-111
-91,-145,-52,114,-15,-101,99,-68,-151,-171,-140,-99
-85,-133,-46,108,-15,-89,105,-80,-163,-177,-146,-111
-79,-133,-52,102,-9,-95,111,-86,-169,-165,-152,-117
-73,-145,-70,108,-4,-107,111,-80,-157,-171,-158,-111
-85,-145,-58,114,-9,-101,105,-86,-175,-183,-152,-117
-97,-145,-46,120,-21,-95,117,-86,-169,-177,-152,-105
-91,-139,-46,114,-21,-95,111,-98,-163,-183,-158,-105
-79,-145,-64,108,-4,-107,105,-80,-175,-183,-158,-105
-85,-151,-64,114,-9,-107,111,-80,-169,-171,-152,-111
-91,-151,-58,120,-15,-107,105,-80,-169,-171,-158,-105
-97,-151,-52,120,-21,-101,105,-86,-157,-183,-146,-105
-85,-145,-58,114,-9,-101,117,-98,-175,-171,-152,-123
-91,-145,-52,114,-15,-101,117,-104,-163,-183,-152,-111
-85,-139,-52,108,-15,-95,111,-98,-169,-183,-152,-123
-85,-145,-58,114,-9,-101,117,-104,-181,-195,-164,-117
-79,-151,-70,114,-4,-113,117,-98,-181,-195,-164,-123
-91,-145,-52,114,-15,-101,123,-92,-175,-171,-158,-117
-85,-151,-64,114,-9,-107,105,-98,-163,-171,-158,-105
-85,-151,-64,114,-9,-107,117,-98,-175,-177,-176,-111
-97,-151,-52,120,-21,-101,105,-98,-169,-183,-170,-123
-91,-151,-58,120,-15,-107,111,-104,-175,-189,-158,-117
-91,-157,-64,120,-9,-113,111,-110,-181,-183,-170,-123
-97,-145,-46,120,-21,-95,117,-116,-175,-183,-170,-123
-97,-151,-52,120,-21,-101,123,-110,-175,-183,-170,-129
-97,-157,-58,126,-15,-107,111,-110,-169,-183,-164,-111
-85,-139,-52,108,-15,-95,117,-122,-181,-189,-170,-129
-79,-139,-58,108,-9,-101,117,-116,-175,-189,-182,-123
-85,-145,-58,114,-9,-101,105,-116,-175,-201,-176,-129
-97,-157,-58,126,-15,-107,123,-110,-175,-183,-158,-123
-91,-157,-64,120,-9,-113,111,-110,-175,-183,-176,-117
-85,-145,-58,114,-9,-101,105,-116,-181,-195,-164,-117
-97,-151,-52,120,-21,-101,117,-116,-181,-195,-158,-123
-91,-157,-64,120,-9,-113,111,-128,-187,-195,-170,-123
-85,-151,-64,114,-9,-107,117,-116,-181,-201,-170,-123
-97,-145,-46,120,-21,-95,123,-116,-175,-195,-164,-123
-91,-151,-58,120,-15,-107,129,-122,-187,-195,-170,-123
-91,-157,-64,120,-9,-113,129,-122,-187,-195,-170,-123
-85,-157,-70,120,-4,-113,129,-128,-193,-195,-170,-123
-97,-151,-52,120,-21,-101,129,-122,-187,-189,-176,-117
-91,-151,-58,120,-15,-107,117,-122,-187,-189,-170,-117
-97,-163,-64,126,-15,-113,117,-116,-181,-189,-152,-117
-85,-157,-70,120,-4,-113,117,-122,-187,-189,-170,-117
-97,-157,-58,126,-15,-107,123,-116,-175,-189,-170,-111
-91,-163,-70,126,-9,-119,123,-116,-181,-189,-164,-123
-85,-157,-70,120,-4,-113,123,-110,-181,-195,-170,-111
-85,-151,-64,114,-9,-107,129,-110,-181,-195,-164,-105
-97,-151,-52,120,-21,-101,123,-116,-187,-189,-176,-123
-85,-151,-64,114,-9,-107,129,-116,-193,-183,-170,-117
-97,-151,-52,120,-21,-101,123,-116,-187,-189,-176,-117
-97,-157,-58,126,-15,-107,123,-116,-181,-195,-170,-111
-85,-151,-64,114,-9,-107,123,-122,-187,-189,-164,-111
-91,-151,-58,120,-15,-107,111,-122,-175,-189,-170,-123
-91,-157,-64,120,-9,-113,123,-122,-187,-201,-170,-117
-97,-157,-58,126,-15,-107,123,-116,-181,-195,-164,-105
-91,-163,-70,126,-9,-119,117,-116,-175,-195,-170,-111
-97,-163,-64,126,-15,-113,129,-116,-175,-201,-170,-111
-91,-151,-58,120,-15,-107,123,-128,-181,-195,-170,-117
-79,-151,-70,114,-4,-113,117,-122,-193,-207,-176,-123
-91,-163,-70,126,-9,-119,129,-122,-181,-183,-164,-111
-91,-157,-64,120,-9,-113,123,-116,-169,-189,-170,-111
-91,-175,-82,132,-4,-131,123,-110,-163,-195,-164,-105
-97,-157,-58,126,-15,-107,129,-116,-175,-183,-164,-111
-97,-151,-52,120,-21,-101,123,-134,-193,-195,-182,-111
-85,-157,-70,120,-4,-113,129,-134,-199,-195,-164,-105
-79,-139,-58,108,-9,-101,129,-128,-187,-201,-170,-111
-79,-157,-76,114,-4,-119,123,-122,-193,-201,-176,-105
-91,-157,-64,120,-9,-113,111,-134,-199,-201,-170,-105
-97,-145,-46,120,-21,-95,111,-128,-199,-225,-188,-117
-109,-157,-46,132,-27,-101,117,-128,-187,-195,-182,-111
-91,-157,-64,120,-9,-113,111,-134,-181,-201,-170,-105
-91,-163,-70,126,-9,-119,117,-122,-187,-213,-170,-99
-97,-157,-58,126,-15,-107,111,-122,-193,-201,-182,-111
-91,-151,-58,120,-15,-107,111,-134,-187,-213,-188,-111
-103,-151,-46,126,-27,-101,117,-122,-187,-195,-170,-99
-97,-157,-58,126,-15,-107,123,-116,-187,-213,-176,-105
-91,-157,-64,120,-9,-113,111,-134,-199,-219,-182,-111
-91,-145,-52,114,-15,-101,111,-122,-193,-207,-182,-111
-97,-139,-40,114,-27,-89,111,-116,-187,-213,-182,-111
-103,-151,-46,126,-27,-101,123,-116,-187,-201,-182,-111
-97,-151,-52,120,-21,-101,123,-128,-187,-207,-188,-105
-85,-157,-70,120,-4,-113,117,-122,-181,-201,-176,-93
-85,-151,-64,114,-9,-107,117,-128,-175,-207,-176,-105
-91,-157,-64,120,-9,-113,111,-140,-187,-219,-182,-105
-97,-163,-64,126,-15,-113,123,-122,-187,-195,-176,-99
-91,-157,-64,120,-9,-113,111,-128,-193,-207,-164,-105
-85,-157,-70,120,-4,-113,111,-134,-193,-201,-176,-105
-79,-145,-64,108,-4,-107,111,-128,-193,-213,-176,-111
-79,-151,-70,114,-4,-113,117,-116,-187,-219,-176,-99
-91,-151,-58,120,-15,-107,117,-122,-187,-195,-176,-99
-85,-151,-64,114,-9,-107,111,-122,-181,-201,-176,-105
-97,-163,-64,126,-15,-113,117,-116,-181,-207,-170,-93
-85,-151,-64,114,-9,-107,105,-122,-175,-195,-170,-99
-91,-157,-64,120,-9,-113,111,-128,-187,-207,-182,-99
-91,-163,-70,126,-9,-119,117,-128,-181,-201,-176,-87
-91,-163,-70,126,-9,-119,111,-122,-175,-207,-176,-93
-97,-169,-70,132,-9,-119,111,-128,-181,-195,-176,-99
-91,-157,-64,120,-9,-113,105,-134,-187,-207,-170,-105
-73,-151,-76,108,-4,-113,111,-128,-181,-213,-176,-105
-85,-157,-70,120,-4,-113,111,-128,-169,-189,-164,-93
-91,-157,-64,120,-9,-113,111,-134,-169,-201,-182,-99
-97,-157,-58,126,-15,-107,117,-122,-169,-201,-164,-81
-97,-151,-52,120,-21,-101,105,-134,-163,-201,-170,-93
-91,-151,-58,120,-15,-107,105,-134,-169,-207,-182,-99
-103,-157,-52,126,-21,-107,111,-122,-169,-195,-164,-99
-91,-151,-58,120,-15,-107,117,-122,-175,-207,-170,-99
-85,-163,-76,120,-4,-119,111,-134,-181,-207,-170,-105
-85,-157,-70,120,-4,-113,117,-140,-175,-195,-176,-117
-85,-163,-76,120,-4,-119,105,-128,-187,-213,-194,-111
-103,-175,-70,138,-15,-125,111,-134,-181,-201,-182,-105
-97,-169,-70,132,-9,-119,105,-122,-175,-195,-182,-99
-79,-157,-76,114,-4,-119,117,-110,-151,-189,-176,-93
-79,-145,-64,108,-4,-107,141,-104,-151,-177,-158,-87
-85,-121,-34,102,-21,-77,153,-92,-139,-177,-158,-87
-79,-103,-22,90,-27,-65,165,-86,-121,-171,-134,-75
-61,-73,-10,66,-21,-41,183,-68,-97,-147,-122,-63
-55,-55,-5,54,-27,-29,183,-62,-97,-141,-122,-57
-67,-37,19,48,-45,-6,195,-62,-97,-135,-116,-51
-73,-37,25,54,-51,-6,207,-38,-73,-129,-116,-33
-79,-31,37,54,-63,-6,219,-44,-67,-117,-98,-27
-85,-31,43,54,-69,0,231,-32,-55,-117,-104,-39
-79,-37,31,54,-57,-6,231,-38,-73,-123,-110,-51
-67,-25,31,42,-51,-6,237,-32,-55,-105,-92,-45
-73,-19,43,42,-63,6,231,-38,-61,-111,-104,-39
-67,-19,37,42,-57,0,225,-50,-79,-135,-110,-57
-67,-8,61,30,-63,24,231,-26,-61,-117,-104,-45
-55,16,73,12,-63,42,225,-32,-49,-117,-104,-39
-61,28,91,6,-75,60,225,-38,-37,-93,-80,-15
-43,52,97,1,-69,72,201,-68,-55,-111,-86,-15
-43,70,115,-5,-81,90,201,-68,-43,-87,-74,-10
-55,88,145,-11,-99,114,207,-62,-31,-75,-56,-4
-43,94,139,-17,-93,114,189,-74,-25,-87,-50,-10
-43,94,139,-17,-93,114,165,-92,-25,-75,-50,-4
-31,106,139,-29,-87,120,135,-98,-37,-69,-50,-4
-8,118,127,-47,-69,120,105,-98,-37,-75,-50,-4
-8,124,133,-53,-69,126,111,-92,-25,-69,-50,2
-8,82,85,-35,-45,84,99,-86,-25,-93,-62,-4
-8,46,55,-11,-33,48,63,-92,-49,-93,-68,-10
4,22,7,-11,-4,18,33,-116,-79,-111,-98,-10
4,-8,-16,6,8,-6,33,-110,-67,-111,-92,-21
-2,-8,-16,6,2,-11,57,-86,-61,-93,-86,-21
4,-13,-28,6,14,-17,87,-62,-55,-99,-80,-21
-8,-13,-10,6,-4,-11,93,-62,-43,-87,-80,-33
-13,-37,-22,24,-4,-29,105,-68,-67,-105,-98,-51
-25,-61,-34,42,-4,-47,99,-92,-91,-135,-116,-57
-49,-67,-16,54,-15,-41,111,-98,-97,-141,-128,-69
-67,-109,-40,84,-9,-77,135,-98,-115,-171,-146,-87
-79,-121,-40,96,-15,-83,177,-80,-109,-165,-146,-93
-85,-139,-52,108,-15,-95,249,-38,-91,-171,-152,-93
-103,-151,-46,126,-27,-101,297,-9,-73,-159,-158,-99
-103,-157,-52,126,-21,-107,285,-9,-85,-153,-158,-105
-91,-163,-70,126,-9,-119,297,-3,-85,-171,-176,-111
-91,-145,-52,114,-15,-101,333,9,-67,-159,-170,-123
-85,-151,-64,114,-9,-107,393,21,-73,-165,-176,-123
-85,-163,-76,120,-4,-119,483,27,-91,-189,-188,-147
-85,-163,-76,120,-4,-119,567,57,-85,-195,-194,-153
-67,-175,-106,120,8,-143,519,105,-67,-183,-194,-135
-49,-157,-106,102,20,-131,375,147,-37,-159,-170,-117
-8,-127,-130,60,56,-125,135,195,-8,-129,-146,-117
-8,-85,-76,42,26,-83,57,243,46,-87,-104,-81
-8,-73,-70,36,26,-71,27,261,64,-69,-98,-63
-2,-61,-70,24,32,-65,-26,279,76,-81,-98,-57
28,-19,-58,1,38,-35,-182,303,100,-69,-98,-75
40,-8,-58,-11,44,-29,-338,327,118,-75,-110,-75
70,-2,-70,-35,68,-29,-524,369,142,-75,-122,-81
118,28,-88,-71,104,-23,-704,393,148,-69,-116,-99
136,70,-64,-101,98,0,-758,477,208,-33,-80,-69
142,124,-16,-131,80,48,-794,591,274,-4,-50,-51
166,124,-40,-143,104,36,-896,609,268,20,-32,-21
178,148,-28,-161,104,54,-980,615,256,26,-20,-21
196,172,-22,-185,110,72,-1100,627,250,38,-9,-10
220,202,-16,-209,116,90,-1214,651,268,68,3,8
250,232,-22,-239,140,102,-1214,675,292,92,21,14
286,214,-76,-245,182,66,-1244,681,316,104,27,20
316,202,-118,-257,218,36,-1256,723,382,128,45,26
352,214,-142,-281,242,30,-1280,651,418,146,63,38
388,220,-172,-299,278,18,-1388,273,340,194,117,98
436,232,-208,-329,320,6,-1526,-212,160,218,165,134
478,160,-316,-317,398,-71,-1610,-524,-8,230,213,188
550,124,-430,-335,488,-149,-1700,-746,-133,272,255,230
610,160,-454,-383,530,-143,-1832,-1076,-265,296,309,284
676,214,-466,-443,566,-119,-2006,-1412,-343,368,411,374
754,286,-472,-521,614,-83,-2192,-1676,-277,536,549,482
838,364,-478,-599,656,-47,-2366,-1958,-199,734,741,638
910,472,-442,-689,674,12,-2515,-2366,-223,932,933,776
970,616,-358,-791,668,126,-2761,-3079,-433,1178,1203,998
1042,820,-226,-935,632,294,-3037,-3793,-751,1454,1545,1304
1156,1000,-154,-1079,656,426,-3271,-4285,-1099,1718,1893,1586
1210,1120,-88,-1163,650,510,-3463,-4663,-1357,2012,2228,1898
1210,1240,25,-1223,584,636,-3535,-4902,-1555,2263,2533,2149
1132,1336,199,-1229,464,768,-3469,-5034,-1933,2281,2671,2281
1000,1366,355,-1187,320,864,-3355,-5022,-2293,2179,2695,2347
886,1366,475,-1127,206,924,-3115,-4747,-2383,2083,2659,2317
766,1306,529,-1037,116,924,-2851,-4369,-2329,1994,2617,2281
712,1156,439,-935,134,798,-2581,-3931,-2185,1940,2521,2155
664,910,235,-785,212,576,-2240,-3397,-1903,1880,2372,1940
562,664,91,-611,236,378,-1850,-2767,-1483,1826,2186,1700
424,406,-16,-413,224,192,-1430,-2186,-1213,1424,1725,1322
256,40,-220,-149,236,-83,-998,-1610,-1081,650,987,830
118,-247,-376,60,242,-311,-596,-1076,-907,-147,177,302
-8,-313,-316,156,152,-311,-338,-746,-733,-489,-230,14
-49,-253,-208,150,68,-233,-200,-548,-511,-315,-164,-10
-49,-223,-172,132,50,-197,-98,-386,-325,-189,-116,-27
-61,-199,-136,126,26,-167,-26,-266,-241,-171,-116,-45
-73,-163,-88,114,-4,-125,33,-170,-163,-117,-98,-57
-55,-151,-94,102,8,-125,87,-86,-97,-99,-98,-75
-55,-145,-88,96,8,-119,129,-14,-43,-69,-62,-51
-55,-127,-70,90,-4,-101,189,51,16,-39,-56,-63
-61,-133,-70,96,-4,-101,213,81,40,-51,-62,-69
-55,-151,-94,102,8,-125,231,87,40,-81,-92,-75
-49,-163,-112,102,20,-137,237,117,34,-111,-122,-87
-55,-175,-118,114,20,-149,243,129,40,-135,-146,-117
-79,-175,-94,126,-4,-137,279,171,64,-123,-140,-117
-85,-181,-94,132,-4,-137,279,189,76,-135,-158,-135
-91,-181,-88,132,-4,-137,303,207,88,-123,-152,-135
-115,-181,-64,144,-21,-125,321,231,100,-123,-146,-141
-121,-193,-70,156,-21,-131,327,237,112,-117,-152,-147
-115,-187,-70,150,-21,-131,333,243,112,-123,-170,-153
-97,-181,-82,138,-4,-131,339,249,124,-147,-182,-153
-91,-187,-94,138,-4,-143,351,279,130,-135,-176,-153
-73,-175,-100,120,2,-137,345,285,130,-141,-182,-159
-73,-187,-112,126,8,-149,351,285,136,-147,-194,-159
-91,-193,-100,138,-4,-149,345,297,148,-141,-182,-171
-97,-193,-94,144,-4,-143,357,327,166,-123,-176,-159
-97,-199,-100,144,-4,-149,363,321,184,-123,-170,-165
-121,-193,-70,156,-21,-131,363,339,190,-123,-164,-153
-115,-181,-64,144,-21,-125,369,345,190,-117,-164,-153
-103,-175,-70,138,-15,-125,369,351,208,-111,-176,-159
-97,-175,-76,132,-9,-125,375,351,208,-111,-182,-165
-103,-187,-82,144,-9,-137,381,375,220,-99,-176,-153
-79,-163,-82,120,-4,-125,381,387,214,-105,-176,-159
-67,-157,-88,108,2,-125,375,381,220,-111,-176,-153
-79,-163,-82,120,-4,-125,381,393,226,-111,-164,-159
-79,-151,-70,114,-4,-113,375,399,226,-105,-170,-147
-85,-151,-64,114,-9,-107,381,411,238,-99,-152,-147
-97,-145,-46,120,-21,-95,393,423,244,-87,-146,-135
-97,-157,-58,126,-15,-107,399,441,256,-81,-140,-135
-91,-139,-46,114,-21,-95,393,447,256,-75,-152,-147
-73,-127,-52,96,-9,-89,399,441,250,-87,-152,-141
-67,-127,-58,96,-4,-95,405,465,256,-87,-152,-141
-67,-109,-40,84,-9,-77,411,477,262,-87,-140,-135
-79,-115,-34,96,-21,-77,411,477,286,-75,-146,-129
-79,-103,-22,90,-27,-65,423,495,292,-75,-134,-141
-73,-97,-22,84,-21,-59,429,519,310,-69,-140,-129
-79,-91,-10,84,-33,-53,435,525,310,-63,-128,-129
-91,-91,-5,90,-45,-47,435,549,316,-45,-110,-111
-97,-103,-5,96,-45,-53,453,561,334,-39,-116,-117
-85,-85,-5,84,-39,-41,435,573,340,-39,-116,-117
-67,-79,-10,72,-27,-47,435,585,352,-33,-104,-105
-61,-73,-10,66,-21,-41,447,585,364,-27,-104,-111
-55,-49,-5,48,-27,-23,453,603,364,-27,-104,-111
-49,-49,-5,48,-21,-23,447,615,376,-21,-110,-105
-55,-43,1,48,-33,-17,459,633,394,-21,-98,-99
-49,-49,-5,48,-21,-23,471,663,412,-10,-86,-93
-55,-25,19,36,-39,-6,459,663,418,-10,-92,-99
-67,-19,37,42,-57,0,459,687,424,-10,-80,-87
-61,-13,37,36,-51,6,465,711,442,-4,-80,-93
-61,-8,55,24,-57,24,471,717,454,8,-74,-87
-61,4,67,18,-63,36,483,729,472,32,-56,-81
-55,10,67,12,-63,36,489,753,478,26,-50,-69
-49,22,73,6,-63,48,489,771,484,32,-38,-75
-55,10,67,12,-63,36,495,795,496,38,-44,-63
-37,34,73,6,-57,54,483,813,496,32,-44,-69
-31,46,79,1,-57,60,489,831,514,44,-38,-69
-37,58,97,-5,-69,78,495,861,532,50,-32,-63
-49,70,121,-5,-87,96,489,873,532,68,-20,-51
-61,76,139,1,-99,108,507,903,562,86,-9,-33
-43,112,157,-29,-99,132,507,921,574,86,-3,-39
-31,118,151,-35,-93,132,519,939,604,116,15,-10
-37,124,163,-35,-99,144,519,963,610,110,21,-4
-25,148,175,-53,-99,162,513,969,610,110,21,-10
-19,160,181,-65,-99,168,507,987,622,122,39,2
-19,184,205,-77,-111,192,495,999,616,110,27,-4
-8,190,199,-83,-105,192,501,1023,634,146,39,2
-8,214,223,-95,-117,216,513,1035,658,146,45,8
-8,232,235,-107,-123,234,501,1047,670,158,57,14
-8,244,253,-113,-135,246,513,1071,682,182,69,26
-8,262,271,-125,-141,264,507,1071,694,194,87,38
-8,274,283,-131,-147,276,507,1083,706,218,99,56
-8,292,289,-143,-147,294,507,1107,718,218,123,80
10,316,295,-167,-141,306,495,1101,706,224,123,68
-2,334,325,-167,-159,330,489,1113,724,230,129,80
10,358,337,-185,-159,348,465,1107,718,224,135,86
16,364,337,-191,-159,354,477,1113,724,248,147,104
16,388,361,-203,-171,378,465,1119,742,260,171,134
28,406,367,-221,-165,390,453,1125,748,278,195,140
28,430,391,-233,-177,414,453,1125,760,290,207,152
28,448,409,-233,-189,432,435,1119,760,296,213,158
28,460,421,-239,-195,444,435,1119,778,326,225,164
46,484,433,-263,-189,462,417,1125,778,320,249,194
58,490,427,-275,-183,462,405,1119,796,350,261,206
58,508,445,-281,-189,480,381,1107,796,356,273,224
70,520,445,-293,-183,480,363,1089,796,362,291,230
70,532,457,-299,-189,492,357,1077,802,380,303,242
64,544,475,-305,-201,510,333,1053,796,374,309,254
76,544,463,-311,-189,504,315,1047,808,398,333,266
88,562,469,-323,-189,516,297,1017,790,410,345,272
100,568,463,-335,-177,516,273,981,784,416,351,284
94,562,463,-329,-183,510,267,951,766,434,363,296
100,568,463,-335,-177,516,231,909,748,416,375,302
118,580,457,-347,-165,516,213,879,742,428,381,308
118,580,457,-347,-165,516,183,837,736,434,393,320
124,586,457,-353,-165,522,165,807,724,440,405,332
124,574,445,-347,-159,510,153,771,724,470,417,338
130,574,439,-353,-153,504,123,723,712,464,423,338
148,568,415,-359,-129,492,93,687,700,476,429,338
136,556,415,-347,-135,486,87,651,688,470,429,344
136,544,403,-341,-129,480,69,603,676,482,435,344
136,532,391,-335,-123,468,45,549,640,476,447,344
142,502,355,-323,-105,432,39,507,634,476,441,350
130,478,343,-305,-105,414,21,477,610,470,435,350
118,472,343,-293,-111,408,15,441,598,464,417,332
124,448,313,-281,-93,384,3,411,592,452,405,320
130,430,289,-275,-75,360,-3,381,556,440,387,302
112,406,283,-257,-81,348,-3,339,544,434,381,308
112,394,271,-251,-75,336,-8,321,514,404,363,296
100,364,253,-233,-75,312,-3,291,490,386,333,266
100,328,223,-215,-57,276,-3,273,472,362,315,254
94,304,205,-203,-51,252,-3,237,424,332,285,230
70,268,193,-173,-57,234,9,225,418,302,255,206
58,238,175,-149,-51,210,9,213,376,266,225,194
58,220,151,-137,-39,186,21,177,346,230,195,158
46,202,145,-125,-45,174,15,165,328,218,177,140
28,166,127,-95,-45,150,33,153,304,200,159,122
16,130,103,-71,-39,120,39,135,292,182,129,104
4,124,109,-65,-45,120,39,111,250,146,99,86
-2,100,91,-47,-39,96,39,105,232,128,87,68
-8,70,67,-29,-33,72,51,87,214,104,63,56
-8,58,61,-23,-33,60,57,63,190,80,39,44
-13,40,55,-5,-33,48,51,45,154,44,27,26
-25,16,43,6,-33,30,63,39,124,20,21,8
-19,-2,19,6,-21,6,69,33,124,8,-9,-4
-19,-8,1,12,-15,-6,75,27,100,-10,-20,-10
-37,-25,1,30,-21,-6,75,21,76,-15,-32,-15
-37,-43,-5,36,-15,-23,81,3,70,-33,-44,-33
-43,-37,-5,36,-21,-17,87,-3,52,-51,-56,-45
-49,-43,-5,42,-27,-17,81,-3,46,-51,-74,-51
-61,-67,-5,60,-27,-35,81,-9,34,-69,-74,-57
-67,-73,-5,66,-27,-41,93,-9,10,-81,-86,-63
-43,-67,-22,54,-9,-47,75,-14,-8,-99,-92,-69
-55,-73,-16,60,-15,-47,81,-20,-8,-111,-104,-51
-55,-85,-28,66,-9,-59,87,-38,-8,-117,-110,-69
-61,-103,-40,78,-9,-71,99,-32,-8,-123,-110,-63
-67,-97,-28,78,-15,-65,93,-26,-13,-117,-110,-57
-55,-103,-46,78,-4,-77,87,-50,-13,-123,-110,-69
-67,-109,-40,84,-9,-77,93,-44,-19,-129,-122,-75
-73,-115,-40,90,-15,-77,81,-56,-25,-135,-128,-87
-79,-127,-46,102,-15,-89,81,-44,-31,-129,-122,-87
-67,-103,-34,84,-15,-71,93,-56,-25,-117,-128,-87
-55,-109,-52,78,-4,-83,81,-44,-31,-129,-122,-81
-73,-115,-40,90,-15,-77,81,-50,-31,-129,-128,-81
-67,-121,-52,90,-4,-89,75,-74,-43,-147,-134,-87
-67,-133,-64,96,-4,-101,87,-62,-37,-147,-128,-81
-61,-121,-58,90,-4,-89,87,-62,-43,-135,-128,-93
-67,-121,-52,90,-4,-89,81,-62,-37,-141,-134,-93
-67,-121,-52,90,-4,-89,81,-56,-43,-135,-134,-87
-61,-121,-58,90,-4,-89,81,-50,-37,-135,-128,-93
-67,-133,-64,96,-4,-101,93,-50,-31,-135,-116,-93
-73,-127,-52,96,-9,-89,93,-56,-31,-129,-122,-87
-67,-127,-58,96,-4,-95,93,-56,-37,-135,-122,-81
-67,-145,-76,102,-4,-113,99,-50,-25,-135,-122,-63
-61,-145,-82,102,2,-113,93,-62,-37,-141,-122,-75
-61,-139,-76,96,-4,-107,87,-62,-37,-153,-128,-81
-61,-151,-88,102,2,-119,93,-44,-31,-129,-128,-75
-61,-133,-70,96,-4,-101,87,-56,-25,-129,-128,-81
-67,-139,-70,102,-4,-107,93,-62,-31,-135,-128,-93
-67,-133,-64,96,-4,-101,87,-50,-37,-135,-128,-99
-73,-133,-58,102,-4,-95,93,-38,-31,-129,-128,-87
-73,-127,-52,96,-9,-89,93,-44,-19,-123,-122,-75
-73,-121,-46,96,-9,-83,93,-38,-25,-147,-122,-81
-67,-127,-58,96,-4,-95,87,-44,-19,-147,-128,-81
-67,-121,-52,90,-4,-89,87,-38,-25,-147,-128,-81
-67,-109,-40,84,-9,-77,93,-32,-13,-141,-128,-81
-73,-127,-52,96,-9,-89,93,-26,-13,-129,-122,-81
-73,-121,-46,96,-9,-83,99,-32,-13,-135,-128,-93
-61,-127,-64,90,-4,-95,93,-44,-19,-135,-134,-93
-73,-121,-46,96,-9,-83,99,-20,-13,-123,-128,-93
-73,-121,-46,96,-9,-83,105,-26,-13,-117,-122,-81
-79,-121,-40,96,-15,-83,111,-26,-8,-117,-110,-75
-67,-115,-46,90,-9,-83,99,-20,-13,-123,-116,-81
-73,-121,-46,96,-9,-83,111,-20,-8,-123,-122,-69
-79,-127,-46,102,-15,-89,111,-26,-13,-129,-122,-75
-73,-127,-52,96,-9,-89,111,-26,-8,-135,-128,-81
-67,-133,-64,96,-4,-101,111,-14,-8,-123,-122,-81
-73,-121,-46,96,-9,-83,123,-14,-13,-123,-122,-81
-73,-115,-40,90,-15,-77,111,-26,-8,-117,-122,-87
-67,-115,-46,90,-9,-83,111,-14,-8,-123,-122,-93
-79,-127,-46,102,-15,-89,117,-9,-8,-117,-116,-81
-97,-127,-28,108,-33,-77,117,-9,-8,-117,-116,-81
-91,-121,-28,102,-27,-77,117,-9,-13,-123,-116,-81
-79,-121,-40,96,-15,-83,111,-9,-8,-117,-116,-75
-73,-115,-40,90,-15,-77,117,-9,-8,-123,-116,-81
-79,-115,-34,96,-21,-77,123,-9,-13,-123,-128,-87
-67,-121,-52,90,-4,-89,111,-9,-19,-135,-146,-99
-61,-121,-58,90,-4,-89,105,-14,-25,-147,-140,-105
-55,-109,-52,78,-4,-83,105,-14,-25,-141,-146,-99
-55,-103,-46,78,-4,-77,111,-9,-31,-135,-140,-99
-73,-109,-34,90,-15,-71,111,-20,-37,-147,-128,-99
-79,-109,-28,90,-21,-71,111,-14,-31,-147,-134,-105
-73,-103,-28,84,-21,-65,123,-9,-31,-135,-128,-93
-67,-109,-40,84,-9,-77,129,3,-19,-147,-116,-87
-61,-109,-46,84,-4,-77,117,-9,-31,-153,-128,-87
-73,-127,-52,96,-9,-89,123,-3,-31,-153,-128,-87
-79,-127,-46,102,-15,-89,117,-9,-31,-141,-134,-81
-67,-115,-46,90,-9,-83,111,-3,-31,-153,-134,-81
-67,-109,-40,84,-9,-77,117,-9,-37,-153,-146,-81
-73,-109,-34,90,-15,-71,111,-9,-43,-165,-152,-87
-73,-121,-46,96,-9,-83,117,-9,-43,-159,-134,-93
-85,-127,-40,102,-21,-83,123,-9,-37,-159,-134,-87
-85,-115,-28,96,-27,-71,123,-14,-43,-165,-140,-87
-85,-121,-34,102,-21,-77,123,-3,-37,-165,-140,-93
-85,-115,-28,96,-27,-71,123,-9,-31,-165,-134,-81
-73,-109,-34,90,-15,-71,111,-9,-43,-165,-140,-105
-67,-115,-46,90,-9,-83,99,-9,-49,-165,-146,-99
-79,-109,-28,90,-21,-71,105,-14,-43,-165,-152,-105
-85,-115,-28,96,-27,-71,105,-9,-55,-153,-146,-99
-85,-115,-28,96,-27,-71,99,-9,-55,-159,-152,-105
-97,-121,-22,108,-33,-71,111,-9,-61,-153,-146,-105
-91,-127,-34,108,-27,-83,117,-9,-49,-165,-146,-87
-79,-127,-46,102,-15,-89,105,-9,-61,-171,-164,-93
-79,-133,-52,102,-9,-95,111,-9,-67,-171,-158,-87
-73,-127,-52,96,-9,-89,111,-26,-61,-171,-158,-93
-79,-133,-52,102,-9,-95,111,-26,-73,-183,-176,-105
-79,-139,-58,108,-9,-101,105,-26,-67,-183,-170,-105
-85,-133,-46,108,-15,-89,105,-20,-67,-171,-170,-111
-91,-145,-52,114,-15,-101,105,-20,-85,-177,-176,-111
-91,-139,-46,114,-21,-95,93,-26,-85,-177,-176,-117
-73,-133,-58,102,-4,-95,93,-26,-85,-177,-164,-111
-79,-139,-58,108,-9,-101,99,-14,-73,-165,-158,-99
-85,-145,-58,114,-9,-101,99,-20,-85,-177,-152,-99
-85,-151,-64,114,-9,-107,105,-14,-91,-177,-158,-93
-79,-145,-64,108,-4,-107,105,-44,-85,-189,-170,-99
-85,-151,-64,114,-9,-107,117,-32,-85,-189,-164,-111
-85,-145,-58,114,-9,-101,105,-44,-97,-189,-170,-111
-79,-133,-52,102,-9,-95,93,-44,-91,-195,-164,-105
-73,-139,-64,102,-4,-101,93,-50,-97,-195,-176,-123
-91,-145,-52,114,-15,-101,93,-44,-97,-183,-164,-117
-91,-145,-52,114,-15,-101,93,-50,-97,-183,-176,-123
-91,-145,-52,114,-15,-101,99,-56,-97,-183,-170,-117
-91,-139,-46,114,-21,-95,75,-50,-109,-201,-176,-129
-97,-145,-46,120,-21,-95,87,-50,-97,-183,-182,-135
-85,-163,-76,120,-4,-119,87,-56,-97,-195,-176,-129
-91,-157,-64,120,-9,-113,81,-56,-103,-195,-176,-129
-91,-157,-64,120,-9,-113,93,-50,-103,-195,-182,-129
-79,-157,-76,114,-4,-119,93,-56,-97,-201,-176,-135
-79,-151,-70,114,-4,-113,93,-62,-115,-201,-176,-141
-85,-157,-70,120,-4,-113,93,-50,-115,-201,-176,-141
-85,-157,-70,120,-4,-113,93,-56,-109,-201,-182,-141
-85,-151,-64,114,-9,-107,99,-56,-109,-195,-182,-135
-79,-151,-70,114,-4,-113,87,-74,-121,-207,-188,-159
-85,-157,-70,120,-4,-113,87,-68,-121,-207,-182,-153
-97,-163,-64,126,-15,-113,81,-62,-115,-201,-176,-129
-79,-157,-76,114,-4,-119,87,-62,-115,-195,-176,-147
-91,-163,-70,126,-9,-119,93,-62,-115,-195,-170,-135
-91,-157,-64,120,-9,-113,87,-68,-121,-195,-182,-141
-85,-163,-76,120,-4,-119,99,-68,-121,-201,-176,-135
-91,-163,-70,126,-9,-119,87,-62,-127,-201,-182,-135
-97,-169,-70,132,-9,-119,93,-74,-121,-213,-188,-153
-91,-163,-70,126,-9,-119,93,-74,-115,-207,-188,-153
-97,-169,-70,132,-9,-119,87,-74,-127,-219,-182,-153
-103,-169,-64,132,-15,-119,81,-62,-115,-213,-188,-141
-91,-175,-82,132,-4,-131,81,-74,-133,-225,-200,-153
-85,-169,-82,126,-4,-125,81,-68,-133,-219,-200,-153
-85,-181,-94,132,-4,-137,75,-74,-139,-207,-200,-147
-91,-181,-88,132,-4,-137,81,-62,-133,-201,-200,-153
-97,-163,-64,126,-15,-113,75,-68,-145,-201,-188,-159
-109,-175,-64,138,-21,-119,81,-62,-139,-219,-188,-159
-97,-163,-64,126,-15,-113,81,-74,-145,-213,-200,-159
-79,-163,-82,120,-4,-125,75,-80,-133,-207,-188,-153
-91,-163,-70,126,-9,-119,87,-74,-139,-219,-188,-159
-97,-157,-58,126,-15,-107,81,-80,-145,-213,-206,-171
-85,-169,-82,126,-4,-125,93,-74,-133,-213,-194,-153
-79,-157,-76,114,-4,-119,87,-62,-139,-207,-200,-159
-61,-157,-94,108,8,-125,69,-68,-145,-213,-194,-159
-79,-157,-76,114,-4,-119,69,-86,-145,-213,-188,-153
-79,-151,-70,114,-4,-113,69,-92,-151,-219,-200,-165
-79,-163,-82,120,-4,-125,75,-86,-145,-219,-188,-153
-91,-163,-70,126,-9,-119,87,-86,-151,-219,-188,-159
-85,-163,-76,120,-4,-119,69,-92,-163,-231,-194,-165
-91,-169,-76,126,-4,-125,75,-80,-157,-219,-188,-165
-85,-163,-76,120,-4,-119,87,-86,-151,-219,-188,-165
-85,-175,-88,126,-4,-131,87,-74,-151,-219,-188,-165
-91,-169,-76,126,-4,-125,75,-74,-157,-225,-206,-177
-79,-169,-88,120,-4,-131,75,-80,-163,-237,-200,-177
-91,-169,-76,126,-4,-125,81,-62,-139,-213,-194,-159
-85,-175,-88,126,-4,-131,75,-74,-145,-213,-188,-165
-85,-163,-76,120,-4,-119,63,-74,-157,-231,-194,-177
-85,-157,-70,120,-4,-113,69,-74,-163,-225,-194,-165
-91,-175,-82,132,-4,-131,63,-80,-163,-225,-188,-159
-97,-163,-64,126,-15,-113,69,-80,-175,-225,-200,-159
-91,-169,-76,126,-4,-125,75,-68,-163,-219,-188,-165
-91,-175,-82,132,-4,-131,69,-74,-163,-207,-176,-147
-91,-175,-82,132,-4,-131,69,-74,-169,-213,-200,-159
-79,-187,-106,132,2,-149,69,-80,-169,-225,-200,-159
-97,-169,-70,132,-9,-119,69,-80,-169,-207,-188,-153
-91,-169,-76,126,-4,-125,69,-80,-163,-213,-200,-153
-85,-169,-82,126,-4,-125,69,-68,-169,-213,-194,-159
-97,-169,-70,132,-9,-119,63,-74,-163,-207,-194,-159
-85,-175,-88,126,-4,-131,69,-74,-169,-219,-200,-153
-91,-163,-70,126,-9,-119,75,-80,-175,-213,-200,-153
-85,-175,-88,126,-4,-131,69,-68,-175,-219,-194,-159
-91,-175,-82,132,-4,-131,63,-68,-163,-231,-194,-159
-79,-175,-94,126,-4,-137,57,-68,-163,-225,-200,-171
-85,-187,-100,132,-4,-143,63,-62,-163,-213,-194,-159
-103,-175,-70,138,-15,-125,57,-62,-163,-219,-200,-153
-97,-175,-76,132,-9,-125,63,-74,-163,-219,-194,-159
-85,-175,-88,126,-4,-131,63,-68,-163,-207,-188,-165
-79,-163,-82,120,-4,-125,69,-68,-169,-213,-194,-159
-79,-175,-94,126,-4,-137,63,-68,-163,-219,-194,-165
-91,-181,-88,132,-4,-137,69,-68,-163,-225,-194,-159
-97,-187,-88,138,-4,-137,63,-80,-169,-231,-188,-165
-85,-181,-94,132,-4,-137,69,-80,-163,-231,-194,-165
-73,-163,-88,114,-4,-125,69,-68,-169,-213,-200,-165
-85,-169,-82,126,-4,-125,63,-68,-175,-213,-188,-153
-97,-181,-82,138,-4,-131,57,-74,-169,-219,-212,-165
-91,-181,-88,132,-4,-137,51,-86,-175,-225,-212,-171
-97,-169,-70,132,-9,-119,45,-86,-187,-237,-212,-171
-97,-163,-64,126,-15,-113,63,-80,-181,-231,-206,-171
-97,-157,-58,126,-15,-107,69,-68,-175,-225,-200,-165
-97,-163,-64,126,-15,-113,63,-68,-169,-237,-206,-165
-97,-169,-70,132,-9,-119,57,-74,-175,-219,-200,-171
-79,-169,-88,120,-4,-131,69,-68,-163,-213,-188,-165
-91,-175,-82,132,-4,-131,69,-68,-169,-207,-188,-165
-85,-163,-76,120,-4,-119,57,-74,-169,-207,-188,-159
-97,-169,-70,132,-9,-119,57,-68,-187,-213,-194,-165
-91,-181,-88,132,-4,-137,63,-80,-175,-207,-188,-165
-91,-175,-82,132,-4,-131,51,-74,-181,-219,-194,-165
-91,-181,-88,132,-4,-137,57,-74,-181,-219,-188,-159
-103,-181,-76,138,-9,-131,57,-80,-193,-219,-212,-165
-115,-187,-70,150,-21,-131,69,-74,-187,-225,-206,-165
-85,-169,-82,126,-4,-125,75,-74,-175,-225,-200,-159
-85,-163,-76,120,-4,-119,75,-68,-181,-225,-194,-171
-85,-163,-76,120,-4,-119,63,-74,-181,-219,-200,-177
-79,-175,-94,126,-4,-137,63,-68,-181,-219,-194,-165
-85,-175,-88,126,-4,-131,69,-68,-181,-213,-194,-171
-79,-169,-88,120,-4,-131,57,-74,-181,-207,-194,-171
-91,-175,-82,132,-4,-131,57,-68,-187,-207,-200,-171
-91,-175,-82,132,-4,-131,63,-80,-187,-219,-206,-171
-85,-169,-82,126,-4,-125,63,-74,-175,-207,-206,-171
-85,-169,-82,126,-4,-125,75,-62,-175,-213,-194,-171
-91,-169,-76,126,-4,-125,75,-56,-163,-201,-182,-159
-85,-157,-70,120,-4,-113,87,-50,-163,-195,-182,-153
-67,-139,-70,102,-4,-107,87,-44,-151,-201,-188,-153
-85,-133,-46,108,-15,-89,99,-32,-139,-183,-176,-141
-79,-115,-34,96,-21,-77,105,-32,-139,-183,-170,-141
-61,-91,-28,72,-15,-59,123,-14,-127,-159,-146,-123
-67,-67,-5,66,-33,-35,141,-9,-103,-165,-152,-123
-61,-61,-5,60,-27,-29,159,-9,-103,-159,-146,-117
-67,-43,13,54,-45,-11,165,-3,-85,-141,-140,-111
-79,-37,31,54,-57,-6,159,-9,-97,-153,-146,-117
-67,-55,1,60,-39,-23,165,-9,-109,-147,-146,-117
-67,-55,1,60,-39,-23,165,-9,-97,-159,-152,-129
-67,-55,1,60,-39,-23,171,-9,-109,-159,-152,-117
-85,-55,19,66,-57,-11,159,-9,-97,-147,-152,-117
-79,-37,31,54,-57,-6,165,-9,-103,-153,-152,-117
-61,-19,31,36,-51,0,177,-9,-91,-135,-134,-105
-61,10,73,18,-69,42,171,-9,-73,-117,-110,-87
-55,34,91,6,-75,60,165,-9,-67,-111,-110,-87
-61,52,115,6,-87,84,159,-20,-85,-111,-110,-75
-55,64,121,1,-87,90,165,-14,-67,-99,-86,-45
-55,70,127,1,-93,96,153,-44,-67,-99,-86,-57
-49,70,121,-5,-87,96,123,-62,-85,-123,-104,-63
-25,70,97,-17,-63,84,81,-68,-85,-93,-86,-69
-13,88,103,-29,-57,96,45,-68,-79,-99,-98,-75
-13,100,115,-35,-63,108,63,-38,-49,-75,-68,-39
-8,94,103,-35,-57,96,57,-50,-67,-69,-80,-57
-25,58,85,-11,-57,72,39,-44,-79,-81,-74,-45
-19,16,37,6,-27,24,15,-56,-85,-99,-80,-45
-8,-8,1,6,-4,-6,-3,-86,-127,-135,-116,-69
-8,-13,-10,6,-4,-11,9,-62,-103,-129,-104,-57
-2,-8,-16,6,2,-11,15,-50,-109,-123,-110,-69
-8,-25,-22,12,2,-23,33,-32,-103,-129,-110,-75
-19,-43,-22,30,-4,-35,39,-44,-115,-123,-122,-99
-37,-85,-46,60,-4,-65,39,-50,-139,-153,-146,-117
-61,-97,-34,78,-9,-65,69,-44,-133,-153,-152,-129
-55,-109,-52,78,-4,-83,75,-62,-157,-183,-176,-153
-73,-127,-52,96,-9,-89,105,-32,-151,-183,-164,-135
-103,-145,-40,120,-27,-95,171,-9,-139,-177,-176,-147
-97,-163,-64,126,-15,-113,237,-3,-145,-201,-200,-171
-91,-175,-82,132,-4,-131,261,27,-133,-195,-194,-165
-85,-193,-106,138,2,-149,243,33,-139,-201,-200,-171
-103,-193,-88,144,-4,-143,255,27,-145,-207,-200,-165
-85,-193,-106,138,2,-149,285,39,-139,-195,-206,-171
-73,-187,-112,126,8,-149,345,45,-145,-219,-212,-195
-85,-205,-118,144,8,-161,483,99,-121,-207,-206,-189
-91,-205,-112,144,2,-161,537,129,-115,-207,-236,-207
-79,-193,-112,132,8,-155,465,189,-97,-183,-200,-183
-55,-175,-118,114,20,-149,285,219,-61,-177,-194,-177
-43,-163,-118,102,26,-143,75,243,-37,-159,-176,-153
-25,-121,-94,72,26,-107,-14,285,-8,-141,-146,-135
-25,-115,-88,66,20,-101,-86,279,-8,-153,-164,-153
-8,-103,-94,54,32,-101,-158,309,22,-135,-146,-135
16,-55,-82,12,44,-65,-320,351,52,-99,-134,-117
52,-25,-88,-5,68,-53,-494,375,64,-105,-134,-129
64,-8,-76,-23,68,-35,-686,405,100,-75,-128,-123
100,10,-88,-53,92,-29,-842,447,124,-51,-116,-111
118,58,-58,-89,86,-6,-884,537,190,-21,-86,-93
142,94,-46,-119,92,18,-938,615,232,-4,-62,-69
142,106,-34,-125,86,30,-1046,627,214,-10,-68,-69
136,112,-22,-125,80,42,-1118,621,184,-10,-56,-69
166,130,-34,-149,98,42,-1220,597,148,-10,-68,-75
208,178,-28,-191,116,72,-1286,579,148,-10,-50,-57
232,202,-28,-215,128,84,-1286,567,178,32,-14,-21
262,190,-76,-227,170,54,-1310,531,208,56,-9,-15
280,190,-94,-233,188,42,-1304,549,274,110,27,-10
328,196,-136,-257,236,24,-1310,483,298,140,33,2
352,190,-166,-269,254,6,-1382,183,184,158,81,50
388,184,-208,-281,296,-6,-1472,-206,-13,164,129,92
442,112,-328,-275,386,-101,-1502,-464,-187,170,171,110
508,76,-436,-293,476,-173,-1562,-692,-343,164,195,152
526,130,-400,-329,464,-131,-1682,-1070,-505,194,243,230
568,226,-346,-395,458,-53,-1856,-1448,-601,278,351,332
652,286,-364,-473,506,-29,-2024,-1694,-553,470,513,470
724,364,-358,-539,536,0,-2168,-1880,-427,722,729,614
796,502,-292,-653,542,102,-2360,-2312,-493,980,987,806
832,700,-136,-761,482,276,-2617,-3043,-871,1220,1281,1052
880,880,-5,-881,440,438,-2875,-3709,-1321,1454,1593,1334
964,1030,61,-995,446,546,-3151,-4225,-1759,1712,1941,1640
982,1180,187,-1079,398,684,-3355,-4663,-2137,1940,2258,1928
952,1282,325,-1115,308,804,-3373,-4866,-2401,2047,2431,2107
844,1318,469,-1079,188,894,-3277,-4884,-2760,1940,2449,2167
724,1318,589,-1019,62,960,-3097,-4705,-2976,1790,2408,2167
634,1294,655,-965,-4,972,-2845,-4327,-2910,1694,2348,2125
574,1132,547,-851,8,840,-2581,-3907,-2796,1544,2228,2006
526,892,355,-713,80,624,-2258,-3409,-2502,1466,2096,1844
448,646,193,-545,122,420,-1874,-2779,-2017,1496,1995,1640
340,394,43,-365,146,222,-1448,-2186,-1591,1274,1671,1310
214,52,-160,-131,188,-47,-1016,-1616,-1285,698,1035,848
82,-247,-340,78,212,-293,-620,-1106,-1051,-75,231,314
-8,-343,-340,174,164,-341,-344,-752,-859,-567,-302,-33
-55,-283,-232,168,80,-257,-206,-554,-631,-417,-272,-87
-67,-241,-172,150,44,-209,-104,-386,-427,-219,-152,-63
-61,-205,-142,132,32,-173,-38,-248,-301,-171,-152,-99
-61,-175,-112,114,14,-143,-3,-170,-217,-105,-98,-81
-43,-151,-106,96,20,-131,33,-104,-151,-75,-98,-93
-61,-139,-76,96,-4,-107,69,-38,-103,-57,-80,-87
-49,-133,-82,90,8,-107,129,9,-49,-57,-86,-99
-55,-127,-70,90,-4,-101,165,51,-19,-57,-98,-105
-73,-151,-76,108,-4,-113,195,69,-8,-75,-110,-117
-67,-145,-76,102,-4,-113,219,99,4,-93,-134,-129
-61,-157,-94,108,8,-125,237,135,28,-81,-140,-123
-61,-169,-106,114,14,-137,243,141,40,-87,-152,-129
-67,-181,-112,120,14,-149,249,159,34,-111,-170,-153
-85,-193,-106,138,2,-149,255,159,40,-111,-176,-159
-79,-193,-112,132,8,-155,249,171,28,-129,-176,-177
-91,-193,-100,138,-4,-149,255,177,34,-141,-182,-189
-91,-193,-100,138,-4,-149,273,189,46,-135,-188,-183
-73,-181,-106,126,8,-143,291,207,58,-135,-200,-201
-79,-187,-106,132,2,-149,309,225,82,-141,-206,-195
-85,-175,-88,126,-4,-131,327,243,106,-135,-188,-189
-85,-175,-88,126,-4,-131,339,243,112,-129,-194,-195
-91,-187,-94,138,-4,-143,327,261,124,-117,-200,-183
-91,-181,-88,132,-4,-137,321,279,124,-123,-194,-195
-85,-169,-82,126,-4,-125,309,273,130,-117,-194,-189
-79,-175,-94,126,-4,-137,309,267,124,-123,-200,-195
-85,-169,-82,126,-4,-125,303,267,130,-123,-194,-195
-79,-181,-100,126,2,-143,309,279,136,-117,-188,-183
-79,-175,-94,126,-4,-137,327,291,142,-117,-188,-189
-79,-175,-94,126,-4,-137,339,291,160,-99,-176,-177
-73,-169,-94,120,2,-131,345,303,166,-111,-176,-171
-67,-163,-94,114,2,-131,345,297,160,-111,-188,-183
-61,-163,-100,108,8,-131,345,315,166,-123,-194,-183
-61,-163,-100,108,8,-131,339,327,166,-111,-194,-183
-55,-151,-94,102,8,-125,333,345,178,-93,-188,-183
-61,-139,-76,96,-4,-107,345,351,184,-99,-188,-177
-73,-139,-64,102,-4,-101,339,357,190,-87,-176,-177
-79,-133,-52,102,-9,-95,339,357,196,-87,-164,-171
-85,-133,-46,108,-15,-89,363,381,220,-69,-158,-165
-73,-121,-46,96,-9,-83,351,381,226,-63,-158,-165
-79,-109,-28,90,-21,-71,363,387,238,-75,-140,-153
-67,-121,-52,90,-4,-89,375,405,238,-63,-152,-159
-49,-109,-58,78,-4,-83,363,405,244,-63,-152,-159
-37,-85,-46,60,-4,-65,363,417,250,-57,-152,-159
-37,-79,-40,54,-4,-59,369,429,256,-39,-152,-159
-49,-79,-28,60,-9,-53,375,447,274,-33,-140,-147
-67,-85,-16,72,-21,-53,369,465,292,-21,-128,-141
-67,-73,-5,66,-27,-41,375,471,298,-15,-122,-129
-61,-61,-5,60,-27,-29,381,477,310,-10,-110,-135
-55,-61,-5,54,-21,-35,387,477,328,-10,-116,-123
-67,-67,-5,66,-33,-35,399,501,340,-10,-104,-111
-55,-55,-5,54,-27,-29,405,507,346,-10,-104,-117
-37,-31,-5,30,-21,-11,399,519,358,-10,-104,-123
-37,-25,1,30,-21,-6,393,537,376,-10,-98,-117
-43,-25,7,30,-27,-6,399,549,382,8,-98,-123
-55,-13,31,30,-45,0,405,567,400,14,-86,-123
-55,-8,43,24,-51,12,405,591,418,32,-68,-117
-49,-8,43,18,-45,18,417,597,412,44,-62,-99
-49,-2,49,18,-51,24,423,615,430,56,-50,-99
-49,-2,49,18,-51,24,423,633,454,56,-50,-81
-37,10,49,6,-45,30,429,645,460,44,-44,-81
-25,28,55,6,-39,42,429,651,454,56,-44,-87
-25,34,61,1,-45,48,435,675,478,56,-38,-81
-25,40,67,1,-45,54,429,711,484,74,-32,-75
-25,64,91,-11,-57,78,429,717,496,80,-32,-75
-25,76,103,-17,-63,90,435,723,514,92,-14,-63
-19,88,109,-29,-63,96,435,747,526,98,-9,-57
-25,100,127,-29,-75,114,435,765,538,116,-9,-57
-19,112,133,-41,-75,120,435,777,556,128,-3,-57
-31,124,157,-41,-93,138,447,801,580,146,9,-27
-25,148,175,-53,-99,162,447,825,586,146,27,-21
-13,154,169,-65,-93,162,459,831,604,164,39,-10
-8,160,163,-71,-81,162,459,843,616,170,51,-4
-8,190,193,-89,-99,192,441,855,616,164,39,-10
-8,214,211,-101,-105,216,435,873,622,170,45,-10
-8,232,235,-113,-117,234,429,879,640,182,63,-4
-2,256,247,-131,-123,252,429,891,652,194,81,8
-2,262,253,-131,-123,258,435,909,658,212,93,20
-2,280,271,-143,-135,276,435,915,670,218,105,26
-2,292,283,-149,-141,288,435,915,676,230,117,50
4,310,295,-161,-141,306,447,927,688,230,123,56
10,322,301,-167,-141,312,435,927,694,242,135,74
28,346,307,-191,-135,330,423,933,706,248,153,80
28,364,325,-197,-147,348,411,951,718,266,165,86
40,388,337,-215,-147,366,393,951,712,284,177,98
40,412,361,-227,-159,390,363,951,718,302,189,110
40,430,379,-233,-165,408,351,951,724,314,213,122
40,436,385,-233,-171,414,351,951,718,326,231,146
34,448,403,-239,-183,426,357,951,724,350,243,170
40,478,427,-257,-189,456,339,933,736,362,261,182
64,490,421,-275,-177,462,333,927,724,362,255,182
70,490,415,-281,-171,456,315,915,724,374,273,200
70,508,433,-287,-177,474,303,891,724,374,279,224
82,520,433,-299,-171,480,285,879,718,386,303,230
100,532,427,-317,-159,480,261,861,712,398,309,230
100,538,433,-317,-165,486,249,843,706,422,333,242
106,550,439,-329,-165,492,225,825,712,440,351,248
100,562,457,-329,-177,510,207,783,670,434,357,260
100,568,463,-335,-177,516,189,771,664,440,381,260
106,568,457,-335,-171,510,171,729,664,446,393,290
106,568,457,-335,-171,510,147,711,646,458,393,296
124,562,433,-341,-153,498,123,675,634,464,405,308
136,574,433,-353,-147,504,99,627,622,458,411,320
136,562,421,-347,-141,492,81,597,622,476,441,332
136,550,409,-341,-135,480,51,555,604,482,435,326
142,550,403,-347,-129,480,39,507,580,482,429,326
136,532,391,-335,-123,468,15,477,574,494,435,332
142,532,385,-335,-117,462,-3,435,538,482,429,338
130,514,379,-323,-123,450,-3,393,526,482,471,332
148,508,355,-329,-99,438,-20,357,502,476,453,332
160,484,319,-323,-75,408,-32,327,478,464,447,332
142,478,325,-305,-87,402,-50,285,460,452,429,314
148,460,301,-299,-75,384,-50,249,424,434,411,308
130,424,283,-275,-75,354,-44,243,430,434,405,302
124,406,271,-263,-69,342,-62,201,406,416,369,272
118,382,253,-245,-63,318,-56,183,382,386,351,254
100,346,235,-227,-63,294,-50,171,370,380,339,242
100,322,217,-215,-51,270,-44,141,346,356,315,230
82,298,211,-191,-57,252,-38,129,334,332,297,212
70,268,193,-173,-57,234,-38,105,304,296,255,194
58,244,181,-155,-57,216,-26,99,274,272,243,182
52,226,163,-137,-51,198,-20,75,256,242,225,164
52,202,139,-125,-39,174,-14,57,220,218,183,122
28,184,145,-107,-51,168,-3,39,214,188,159,104
28,154,115,-89,-39,138,3,33,184,164,135,80
28,130,91,-77,-27,114,15,21,166,140,117,68
10,106,85,-59,-33,96,33,27,154,128,105,50
-8,70,67,-29,-33,72,27,3,130,104,75,26
-13,40,55,-5,-33,48,39,-9,106,62,39,8
-13,22,37,1,-27,30,45,-9,88,50,39,-10
-13,16,31,6,-21,24,51,-9,76,14,21,-10
-19,-2,19,6,-21,6,63,-9,52,2,-9,-15
-8,-2,1,6,-4,0,57,-32,40,-10,-20,-27
-8,-8,-5,6,-4,-6,81,-44,22,-21,-32,-21
-25,-25,-5,24,-9,-11,75,-50,4,-21,-38,-39
-43,-31,1,36,-27,-11,81,-50,-8,-45,-50,-51
-49,-37,1,42,-27,-11,81,-50,-8,-33,-56,-45
-49,-37,1,42,-27,-11,63,-74,-19,-63,-62,-63
-49,-67,-16,54,-15,-41,93,-68,-37,-75,-74,-75
-55,-79,-22,66,-15,-53,87,-80,-31,-93,-74,-81
-43,-73,-28,54,-4,-53,75,-80,-43,-123,-98,-87
-43,-85,-40,60,-4,-65,93,-92,-49,-111,-104,-81
-49,-85,-34,66,-4,-59,75,-110,-67,-135,-110,-99
-55,-97,-40,72,-4,-71,93,-104,-67,-129,-116,-93
-43,-91,-46,66,-4,-71,87,-116,-79,-129,-128,-105
-55,-97,-40,72,-4,-71,99,-110,-79,-129,-128,-99
-61,-91,-28,72,-15,-59,87,-110,-85,-123,-128,-105
-61,-97,-34,78,-9,-65,81,-116,-79,-123,-128,-99
-67,-103,-34,84,-15,-71,87,-110,-91,-123,-128,-99
-67,-109,-40,84,-9,-77,81,-110,-73,-123,-116,-93
-67,-115,-46,90,-9,-83,81,-110,-73,-123,-116,-99
-61,-109,-46,84,-4,-77,69,-128,-91,-135,-128,-105
-67,-127,-58,96,-4,-95,75,-110,-67,-141,-122,-99
-61,-127,-64,90,-4,-95,87,-116,-79,-129,-134,-105
-49,-121,-70,84,2,-95,75,-122,-91,-135,-140,-111
-55,-115,-58,84,-4,-89,87,-122,-97,-141,-134,-105
-67,-133,-64,96,-4,-101,87,-122,-79,-117,-116,-93
-67,-121,-52,90,-4,-89,93,-110,-79,-117,-122,-105
-67,-115,-46,90,-9,-83,93,-110,-85,-117,-122,-99
-61,-115,-52,84,-4,-83,87,-116,-67,-129,-122,-99
-67,-127,-58,96,-4,-95,87,-104,-73,-129,-128,-99
-67,-115,-46,90,-9,-83,87,-110,-67,-135,-122,-105
-61,-127,-64,90,-4,-95,81,-98,-67,-135,-122,-99
-61,-121,-58,90,-4,-89,81,-104,-61,-135,-128,-105
-61,-115,-52,84,-4,-83,81,-104,-67,-135,-128,-111
-67,-121,-52,90,-4,-89,81,-110,-73,-147,-140,-111
-61,-121,-58,90,-4,-89,81,-98,-55,-123,-128,-105
-49,-115,-64,78,-4,-89,87,-98,-61,-123,-122,-105
-67,-121,-52,90,-4,-89,87,-104,-61,-123,-134,-105
-73,-121,-46,96,-9,-83,81,-92,-55,-117,-122,-93
-61,-115,-52,84,-4,-83,87,-80,-37,-105,-110,-87
-55,-103,-46,78,-4,-77,99,-86,-37,-111,-110,-99
-55,-121,-64,84,-4,-95,99,-80,-37,-117,-104,-81
-55,-115,-58,84,-4,-89,93,-86,-37,-117,-116,-99
-61,-115,-52,84,-4,-83,99,-68,-19,-111,-110,-93
-61,-115,-52,84,-4,-83,105,-68,-25,-105,-110,-93
-61,-115,-52,84,-4,-83,105,-80,-25,-99,-116,-99
-61,-115,-52,84,-4,-83,105,-68,-25,-105,-110,-93
-61,-97,-34,78,-9,-65,105,-68,-19,-105,-104,-93
-67,-103,-34,84,-15,-71,99,-74,-25,-117,-104,-93
-67,-109,-40,84,-9,-77,123,-74,-13,-117,-116,-105
-49,-121,-70,84,2,-95,117,-74,-19,-129,-128,-111
-49,-127,-76,84,2,-101,105,-68,-13,-123,-122,-93
-37,-127,-88,78,14,-107,111,-68,-19,-123,-116,-105
-37,-127,-88,78,14,-107,99,-62,-8,-111,-116,-105
-49,-121,-70,84,2,-95,111,-74,-8,-111,-122,-105
-55,-109,-52,78,-4,-83,105,-56,-13,-111,-122,-87
-61,-115,-52,84,-4,-83,111,-56,-8,-111,-110,-93
-61,-103,-40,78,-9,-71,111,-62,-19,-123,-128,-93
-79,-109,-28,90,-21,-71,117,-38,-19,-117,-110,-81
-67,-115,-46,90,-9,-83,129,-44,-19,-123,-116,-99
-61,-121,-58,90,-4,-89,117,-44,-13,-117,-128,-105
-61,-121,-58,90,-4,-89,117,-44,-19,-123,-134,-99
-55,-115,-58,84,-4,-89,111,-50,-25,-129,-134,-123
-61,-133,-70,96,-4,-101,111,-32,-19,-117,-122,-93
-55,-121,-64,84,-4,-95,117,-38,-19,-123,-128,-105
-67,-115,-46,90,-9,-83,105,-38,-19,-123,-134,-105
-73,-121,-46,96,-9,-83,117,-26,-13,-111,-128,-99
-55,-121,-64,84,-4,-95,117,-32,-19,-123,-140,-99
-67,-133,-64,96,-4,-101,117,-20,-25,-129,-134,-99
-67,-121,-52,90,-4,-89,117,-38,-31,-141,-146,-117
-73,-115,-40,90,-15,-77,117,-38,-37,-153,-146,-111
-73,-121,-46,96,-9,-83,123,-32,-31,-153,-146,-105
-61,-121,-58,90,-4,-89,123,-38,-37,-147,-152,-105
-61,-133,-70,96,-4,-101,123,-32,-25,-135,-146,-105
-55,-121,-64,84,-4,-95,117,-50,-49,-147,-152,-117
-55,-139,-82,96,2,-113,105,-38,-49,-153,-140,-105
-79,-139,-58,108,-9,-101,117,-32,-43,-135,-140,-105
-73,-133,-58,102,-4,-95,105,-44,-49,-141,-152,-111
-73,-127,-52,96,-9,-89,111,-38,-43,-147,-140,-111
-61,-121,-58,90,-4,-89,111,-32,-43,-153,-146,-117
-67,-127,-58,96,-4,-95,117,-38,-43,-153,-140,-111
-73,-139,-64,102,-4,-101,111,-32,-37,-147,-140,-105
-67,-127,-58,96,-4,-95,111,-44,-49,-147,-158,-111
-67,-121,-52,90,-4,-89,105,-56,-55,-165,-158,-123
-55,-115,-58,84,-4,-89,99,-56,-55,-171,-164,-129
-61,-109,-46,84,-4,-77,99,-56,-61,-171,-164,-129
-61,-127,-64,90,-4,-95,105,-56,-61,-165,-164,-123
-79,-115,-34,96,-21,-77,111,-56,-61,-165,-158,-117
-85,-139,-52,108,-15,-95,117,-44,-55,-165,-158,-123
-79,-139,-58,108,-9,-101,111,-44,-67,-165,-170,-123
-79,-133,-52,102,-9,-95,111,-50,-55,-171,-164,-123
-73,-139,-64,102,-4,-101,105,-50,-61,-165,-158,-123
-79,-139,-58,108,-9,-101,105,-50,-67,-165,-158,-117
-73,-157,-82,114,-4,-119,105,-50,-67,-165,-158,-123
-73,-151,-76,108,-4,-113,105,-62,-79,-171,-164,-117
-79,-145,-64,108,-4,-107,99,-56,-79,-165,-158,-117
-73,-145,-70,108,-4,-107,99,-56,-73,-159,-158,-111
-61,-133,-70,96,-4,-101,93,-68,-85,-177,-164,-123
-79,-139,-58,108,-9,-101,111,-56,-73,-171,-152,-117
-85,-157,-70,120,-4,-113,111,-56,-73,-165,-152,-111
-85,-151,-64,114,-9,-107,117,-50,-67,-171,-164,-111
-79,-157,-76,114,-4,-119,111,-50,-73,-177,-170,-123
-73,-145,-70,108,-4,-107,105,-62,-85,-171,-164,-129
-67,-151,-82,108,-4,-119,99,-68,-91,-177,-176,-135
-73,-163,-88,114,-4,-125,105,-68,-85,-177,-170,-129
-73,-151,-76,108,-4,-113,99,-68,-91,-177,-170,-135
-85,-151,-64,114,-9,-107,105,-68,-91,-177,-164,-129
-79,-139,-58,108,-9,-101,99,-86,-97,-183,-176,-123
-73,-151,-76,108,-4,-113,93,-80,-97,-189,-170,-123
-73,-157,-82,114,-4,-119,99,-80,-97,-177,-164,-129
-85,-151,-64,114,-9,-107,111,-68,-85,-177,-170,-123
-73,-163,-88,114,-4,-125,105,-74,-91,-189,-182,-123
-61,-157,-94,108,8,-125,105,-80,-97,-195,-182,-135
-67,-169,-100,114,8,-137,105,-74,-103,-183,-176,-135
-73,-151,-76,108,-4,-113,93,-86,-97,-183,-170,-129
-73,-145,-70,108,-4,-107,93,-80,-97,-177,-176,-135
-79,-157,-76,114,-4,-119,99,-80,-97,-171,-170,-129
-73,-145,-70,108,-4,-107,93,-98,-103,-183,-176,-135
-91,-157,-64,120,-9,-113,99,-74,-91,-177,-176,-123
-85,-157,-70,120,-4,-113,99,-98,-97,-177,-164,-123
-73,-151,-76,108,-4,-113,93,-98,-109,-189,-176,-129
-73,-157,-82,114,-4,-119,93,-92,-115,-183,-182,-135
-73,-157,-82,114,-4,-119,99,-98,-121,-183,-182,-135
-79,-163,-82,120,-4,-125,99,-98,-121,-183,-182,-129
-73,-151,-76,108,-4,-113,93,-98,-115,-195,-182,-135
-67,-157,-88,108,2,-125,93,-92,-121,-201,-182,-141
-79,-151,-70,114,-4,-113,93,-92,-133,-207,-188,-147
-73,-151,-76,108,-4,-113,93,-104,-127,-201,-194,-141
-79,-157,-76,114,-4,-119,105,-104,-121,-201,-188,-141
-85,-169,-82,126,-4,-125,99,-98,-121,-189,-182,-135
-85,-169,-82,126,-4,-125,105,-98,-121,-201,-176,-141
-73,-163,-88,114,-4,-125,105,-110,-133,-201,-182,-141
-85,-169,-82,126,-4,-125,105,-98,-121,-195,-176,-129
-85,-169,-82,126,-4,-125,99,-98,-121,-201,-182,-135
-73,-175,-100,120,2,-137,105,-98,-121,-201,-182,-135
-85,-163,-76,120,-4,-119,93,-104,-133,-195,-182,-141
-85,-169,-82,126,-4,-125,99,-92,-127,-189,-182,-141
-67,-169,-100,114,8,-137,99,-92,-115,-189,-182,-135
-67,-169,-100,114,8,-137,99,-92,-115,-195,-176,-135
-85,-163,-76,120,-4,-119,99,-104,-121,-201,-176,-141
-73,-163,-88,114,-4,-125,99,-116,-127,-201,-182,-147
-73,-163,-88,114,-4,-125,93,-110,-127,-207,-182,-141
-73,-151,-76,108,-4,-113,99,-116,-127,-195,-182,-141
-67,-157,-88,108,2,-125,99,-110,-127,-201,-188,-141
-73,-169,-94,120,2,-131,87,-104,-121,-195,-182,-129
-73,-169,-94,120,2,-131,93,-104,-133,-195,-182,-135
-79,-169,-88,120,-4,-131,93,-110,-133,-201,-188,-141
-73,-163,-88,114,-4,-125,93,-98,-127,-183,-182,-135
-73,-163,-88,114,-4,-125,93,-104,-127,-195,-176,-147
-79,-169,-88,120,-4,-131,93,-104,-133,-201,-188,-147
-79,-169,-88,120,-4,-131,99,-110,-133,-201,-188,-135
-79,-175,-94,126,-4,-137,99,-92,-127,-195,-176,-129
-73,-181,-106,126,8,-143,99,-92,-133,-183,-176,-135
-73,-175,-100,120,2,-137,93,-98,-139,-189,-188,-147
-79,-169,-88,120,-4,-131,93,-98,-145,-189,-188,-147
-79,-181,-100,126,2,-143,93,-98,-133,-189,-176,-129
-79,-169,-88,120,-4,-131,87,-104,-139,-201,-188,-141
-79,-175,-94,126,-4,-137,99,-104,-127,-189,-176,-141
-73,-169,-94,120,2,-131,87,-104,-127,-201,-188,-153
-85,-169,-82,126,-4,-125,93,-92,-139,-201,-182,-147
-79,-163,-82,120,-4,-125,99,-110,-139,-207,-188,-135
-85,-175,-88,126,-4,-131,99,-110,-127,-201,-176,-141
-85,-181,-94,132,-4,-137,105,-98,-133,-195,-176,-141
-73,-175,-100,120,2,-137,87,-104,-139,-195,-188,-147
-79,-169,-88,120,-4,-131,81,-104,-139,-195,-182,-141
-79,-175,-94,126,-4,-137,87,-98,-133,-189,-176,-135
-91,-169,-76,126,-4,-125,99,-98,-133,-195,-176,-147
-85,-187,-100,132,-4,-143,105,-92,-121,-183,-170,-129
-85,-175,-88,126,-4,-131,99,-86,-121,-189,-170,-135
-91,-175,-82,132,-4,-131,99,-92,-127,-189,-176,-141
-85,-181,-94,132,-4,-137,93,-98,-121,-195,-176,-147
-85,-181,-94,132,-4,-137,99,-98,-127,-195,-176,-147
-91,-187,-94,138,-4,-143,105,-86,-127,-183,-170,-141
-91,-181,-88,132,-4,-137,111,-80,-121,-189,-164,-135
-85,-187,-100,132,-4,-143,99,-86,-127,-201,-176,-135
-79,-187,-106,132,2,-149,87,-98,-139,-201,-188,-147
-73,-169,-94,120,2,-131,87,-98,-145,-201,-182,-153
-73,-169,-94,120,2,-131,81,-98,-139,-195,-188,-129
-79,-175,-94,126,-4,-137,87,-92,-145,-201,-170,-141
-85,-181,-94,132,-4,-137,87,-98,-151,-207,-182,-141
-79,-181,-100,126,2,-143,93,-86,-139,-201,-188,-135
-79,-175,-94,126,-4,-137,93,-86,-133,-201,-188,-141
-85,-187,-100,132,-4,-143,99,-80,-133,-183,-176,-135
-73,-181,-106,126,8,-143,93,-80,-133,-195,-176,-147
-85,-187,-100,132,-4,-143,93,-80,-127,-189,-176,-135
-97,-193,-94,144,-4,-143,111,-74,-115,-183,-170,-129
-85,-187,-100,132,-4,-143,99,-74,-133,-183,-170,-135
-79,-175,-94,126,-4,-137,93,-92,-133,-189,-188,-147
-79,-169,-88,120,-4,-131,93,-80,-127,-201,-182,-147
-79,-175,-94,126,-4,-137,99,-80,-133,-195,-182,-129
-91,-181,-88,132,-4,-137,105,-80,-121,-189,-176,-129
-73,-181,-106,126,8,-143,111,-86,-127,-195,-176,-135
-73,-175,-100,120,2,-137,105,-86,-121,-207,-176,-153
-79,-163,-82,120,-4,-125,105,-74,-121,-189,-170,-135
-73,-163,-88,114,-4,-125,117,-56,-97,-183,-164,-135
-67,-145,-76,102,-4,-113,123,-68,-103,-183,-164,-135
-73,-133,-58,102,-4,-95,129,-56,-97,-177,-158,-129
-67,-127,-58,96,-4,-95,141,-38,-85,-165,-152,-129
-67,-103,-34,84,-15,-71,159,-32,-79,-159,-134,-105
-55,-85,-28,66,-9,-59,165,-32,-79,-165,-146,-111
-43,-85,-40,60,-4,-65,177,-26,-67,-153,-140,-93
-37,-67,-28,48,-4,-47,177,-26,-67,-159,-146,-105
-49,-67,-16,54,-15,-41,183,-32,-73,-147,-128,-99
-55,-79,-22,66,-15,-53,171,-26,-61,-141,-134,-99
-61,-85,-22,72,-15,-53,195,-14,-55,-135,-122,-99
-67,-61,-5,60,-33,-29,207,-9,-43,-117,-110,-81
-67,-49,7,54,-39,-17,213,-9,-43,-123,-116,-87
-73,-55,7,60,-45,-17,213,-20,-55,-135,-116,-93
-61,-67,-5,60,-27,-35,219,-14,-49,-135,-128,-87
-55,-55,-5,54,-27,-29,213,-14,-49,-141,-116,-87
-67,-61,-5,60,-33,-29,189,-14,-43,-135,-116,-69
-49,-49,-5,48,-21,-23,171,-32,-55,-141,-122,-81
-37,-25,1,30,-21,-6,171,-32,-37,-117,-92,-63
-19,-2,19,6,-21,6,165,-9,-2,-81,-68,-39
-13,28,43,1,-27,36,165,3,10,-69,-62,-45
-13,28,43,1,-27,36,141,-9,10,-57,-56,-33
-8,22,25,-5,-15,24,87,-14,-8,-75,-74,-51
-8,16,25,1,-15,18,69,-38,-8,-81,-68,-39
-8,-2,1,6,-4,0,57,-32,-19,-99,-86,-51
-8,-19,-16,6,-4,-17,69,-32,-37,-111,-92,-57
-2,-49,-58,18,26,-53,63,-32,-49,-117,-98,-63
4,-67,-82,24,38,-71,45,-44,-73,-141,-122,-81
-2,-97,-106,42,50,-101,39,-56,-85,-147,-116,-81
4,-109,-124,42,62,-113,39,-68,-97,-153,-128,-87
-8,-103,-106,48,44,-101,45,-74,-109,-159,-122,-93
-8,-109,-100,54,38,-107,45,-62,-97,-153,-116,-81
-13,-109,-94,60,32,-101,69,-68,-109,-165,-134,-99
-37,-115,-76,72,8,-95,99,-62,-109,-171,-140,-99
-43,-121,-76,78,8,-101,159,-32,-103,-165,-140,-93
-55,-115,-58,84,-4,-89,183,-26,-97,-165,-140,-105
-61,-121,-58,90,-4,-89,195,-20,-85,-165,-146,-105
-67,-133,-64,96,-4,-101,255,-3,-73,-171,-152,-117
-85,-151,-64,114,-9,-107,297,27,-61,-171,-158,-123
-85,-181,-94,132,-4,-137,321,57,-73,-177,-170,-147
-85,-187,-100,132,-4,-143,345,63,-67,-177,-176,-141
-91,-175,-82,132,-4,-131,315,39,-79,-195,-176,-147
-73,-163,-88,114,-4,-125,315,63,-67,-183,-176,-165
-79,-175,-94,126,-4,-137,423,75,-67,-189,-182,-147
-91,-175,-82,132,-4,-131,519,93,-85,-201,-194,-165
-91,-157,-64,120,-9,-113,501,135,-67,-195,-188,-153
-61,-139,-76,96,-4,-107,453,183,-19,-177,-170,-141
-31,-115,-82,72,14,-101,333,237,10,-147,-152,-135
-8,-91,-82,48,26,-89,171,285,46,-117,-128,-105
-8,-73,-70,36,26,-71,27,321,76,-117,-128,-129
-2,-49,-58,18,26,-53,-110,321,76,-111,-134,-123
22,-25,-58,6,38,-41,-242,327,94,-93,-110,-99
52,-2,-52,-23,50,-17,-392,345,100,-99,-116,-117
76,28,-46,-53,62,-6,-614,357,112,-75,-98,-93
94,52,-40,-71,68,0,-836,369,124,-87,-116,-111
118,94,-22,-107,68,30,-920,447,178,-57,-98,-93
154,136,-16,-143,86,54,-974,525,232,-33,-92,-87
172,160,-10,-167,92,72,-1142,573,268,2,-32,-39
214,160,-52,-185,134,48,-1280,609,250,14,-9,-21
226,136,-88,-179,158,18,-1322,657,268,38,3,-10
244,124,-124,-185,188,-6,-1334,723,310,80,39,14
280,124,-160,-203,224,-11,-1346,777,322,86,45,14
304,130,-178,-221,236,-17,-1358,795,364,110,69,32
334,130,-208,-233,266,-29,-1340,819,382,128,63,32
352,106,-244,-233,296,-65,-1316,873,460,152,75,20
400,70,-328,-233,362,-125,-1334,741,490,212,117,38
442,58,-382,-245,410,-155,-1424,363,352,230,141,68
466,58,-406,-257,434,-167,-1526,-44,160,266,207,122
526,76,-454,-299,488,-185,-1640,-362,-31,272,249,176
580,94,-490,-335,530,-191,-1748,-698,-169,314,321,248
628,142,-490,-383,554,-167,-1880,-1052,-247,380,411,320
706,178,-526,-443,614,-173,-2048,-1370,-283,476,501,404
766,232,-532,-497,650,-143,-2240,-1658,-205,674,681,548
838,334,-502,-587,674,-77,-2431,-2006,-211,842,843,680
910,436,-478,-671,692,-11,-2647,-2569,-349,1070,1065,860
970,634,-340,-803,656,144,-2923,-3307,-661,1358,1395,1124
1054,832,-226,-947,638,300,-3193,-3907,-1033,1598,1695,1394
1126,964,-166,-1043,644,396,-3385,-4285,-1291,1892,2048,1688
1168,1102,-64,-1133,614,516,-3505,-4561,-1465,2173,2378,1946
1126,1204,67,-1163,524,636,-3463,-4693,-1663,2323,2587,2149
1012,1282,259,-1151,374,774,-3361,-4741,-2011,2251,2629,2221
892,1294,397,-1091,242,846,-3205,-4633,-2269,2071,2563,2209
772,1270,487,-1019,140,882,-2953,-4291,-2257,1964,2503,2185
706,1210,493,-959,98,852,-2707,-3925,-2173,1880,2425,2107
640,1006,361,-821,134,690,-2425,-3487,-1993,1784,2282,1958
562,790,223,-677,170,504,-2048,-2917,-1621,1760,2162,1760
466,568,97,-515,182,336,-1676,-2354,-1273,1592,1887,1460
316,232,-82,-275,200,72,-1220,-1778,-1075,1052,1335,1052
196,-115,-316,-35,248,-215,-794,-1232,-967,230,561,542
52,-319,-382,126,218,-347,-458,-836,-835,-405,-80,134
-8,-277,-268,144,122,-275,-266,-590,-619,-423,-206,-10
-43,-217,-172,126,56,-197,-182,-446,-427,-249,-128,-27
-67,-205,-136,132,26,-173,-74,-284,-277,-171,-98,-27
-55,-163,-106,108,14,-137,-8,-206,-211,-147,-116,-69
-61,-151,-88,102,2,-119,27,-128,-139,-129,-110,-87
-67,-127,-58,96,-4,-95,93,-32,-61,-87,-86,-87
-55,-115,-58,84,-4,-89,117,15,-25,-87,-86,-81
-61,-115,-52,84,-4,-83,177,87,46,-45,-68,-75
-61,-109,-46,84,-4,-77,207,117,58,-69,-68,-87
-79,-121,-40,96,-15,-83,231,129,58,-75,-86,-93
-73,-133,-58,102,-4,-95,249,159,70,-69,-98,-99
-73,-139,-64,102,-4,-101,237,147,58,-117,-122,-117
-91,-169,-76,126,-4,-125,255,177,76,-123,-128,-129
-91,-169,-76,126,-4,-125,255,177,58,-147,-164,-159
-115,-169,-52,138,-27,-113,279,231,94,-129,-158,-159
-115,-175,-58,144,-27,-119,291,237,106,-129,-158,-153
-127,-187,-58,156,-33,-125,303,261,106,-123,-158,-159
-121,-175,-52,144,-33,-113,309,255,106,-129,-170,-171
-103,-181,-76,138,-9,-131,315,243,100,-159,-182,-177
-91,-175,-82,132,-4,-131,321,261,106,-165,-188,-183
-67,-163,-94,114,2,-131,321,255,106,-171,-206,-195
-73,-163,-88,114,-4,-125,333,279,112,-159,-194,-189
-85,-157,-70,120,-4,-113,327,291,124,-153,-200,-189
-97,-157,-58,126,-15,-107,339,309,136,-141,-200,-177
-115,-157,-40,132,-33,-101,339,327,154,-129,-194,-171
-121,-157,-34,138,-39,-95,333,333,172,-123,-176,-171
-121,-151,-28,132,-45,-89,339,345,172,-129,-182,-171
-109,-151,-40,126,-33,-95,351,333,184,-111,-170,-165
-91,-145,-52,114,-15,-101,351,327,178,-129,-182,-165
-79,-133,-52,102,-9,-95,345,339,172,-135,-188,-177
-67,-145,-76,102,-4,-113,345,333,172,-135,-194,-177
-73,-139,-64,102,-4,-101,357,351,184,-135,-194,-177
-79,-127,-46,102,-15,-89,351,369,190,-129,-182,-183
-85,-133,-46,108,-15,-89,357,393,202,-117,-188,-171
-115,-121,-5,114,-51,-65,357,411,220,-99,-176,-153
-127,-121,-5,120,-63,-59,357,411,220,-99,-170,-153
-127,-115,1,120,-69,-53,357,429,226,-99,-170,-159
-109,-115,-5,108,-51,-59,363,423,232,-87,-170,-153
-91,-103,-10,96,-39,-59,363,429,238,-105,-170,-159
-79,-91,-10,84,-33,-53,381,435,244,-99,-158,-153
-67,-91,-22,78,-21,-59,375,435,250,-93,-164,-153
-73,-79,-5,72,-33,-41,381,441,262,-93,-152,-147
-67,-79,-10,72,-27,-47,393,465,274,-93,-158,-135
-79,-73,-5,72,-39,-35,399,477,280,-81,-158,-141
-97,-61,25,78,-63,-11,399,489,304,-63,-140,-135
-91,-55,25,72,-63,-11,399,507,322,-51,-128,-123
-103,-61,31,78,-69,-11,417,531,328,-45,-122,-123
-91,-55,25,72,-63,-11,423,531,346,-27,-128,-123
-91,-37,43,60,-69,-6,405,543,340,-45,-122,-129
-85,-31,43,54,-69,0,423,555,340,-45,-122,-135
-73,-31,31,48,-57,-6,423,555,340,-39,-128,-123
-73,-19,43,42,-63,6,441,567,364,-33,-122,-123
-79,-13,55,42,-69,12,447,597,382,-21,-104,-111
-79,-8,61,42,-75,18,447,609,382,-21,-110,-123
-79,-8,73,36,-75,30,453,639,400,-10,-104,-105
-79,-2,79,30,-81,36,453,657,412,-10,-92,-93
-85,4,91,30,-87,48,477,675,430,-4,-74,-81
-73,16,91,18,-81,54,477,681,436,8,-80,-75
-67,34,103,6,-87,66,459,699,442,8,-68,-81
-67,46,115,6,-93,78,465,717,448,20,-68,-81
-61,52,115,6,-87,84,471,723,454,20,-68,-81
-55,70,127,1,-93,96,483,729,466,20,-56,-81
-55,82,139,-5,-99,108,477,759,478,32,-56,-69
-61,100,163,-11,-111,132,483,771,478,26,-56,-81
-61,106,169,-17,-117,138,477,801,490,44,-44,-63
-67,118,187,-17,-129,150,477,825,496,62,-32,-63
-67,130,199,-23,-135,162,483,843,526,62,-20,-57
-67,154,223,-35,-147,186,501,861,532,80,-9,-39
-61,160,223,-41,-141,192,507,879,532,74,-9,-39
-49,178,229,-59,-141,204,507,891,550,74,-9,-33
-43,184,229,-65,-135,204,519,915,556,92,-9,-27
-31,208,235,-83,-135,222,513,927,574,104,3,-21
-37,214,247,-83,-147,234,513,957,580,122,21,-10
-37,238,277,-95,-159,258,501,957,568,122,9,-10
-31,244,277,-101,-159,258,495,963,592,128,21,-10
-37,256,295,-107,-171,276,495,987,598,152,51,8
-43,280,325,-113,-189,300,501,999,610,158,45,8
-43,298,343,-125,-195,318,507,999,616,164,63,26
-25,316,343,-143,-189,330,501,1005,622,158,75,20
-19,328,349,-149,-189,336,513,1023,634,176,81,38
-19,346,367,-161,-195,354,507,1035,622,188,93,44
-8,370,373,-179,-189,372,489,1035,646,206,105,62
-8,388,391,-191,-201,390,489,1047,646,206,129,80
-8,406,403,-203,-201,408,483,1041,646,218,117,74
-8,412,409,-203,-207,414,477,1053,652,242,147,98
-8,430,427,-215,-213,432,453,1053,658,254,165,110
4,448,433,-227,-213,444,453,1059,664,260,177,128
10,472,451,-239,-219,462,441,1053,664,272,201,134
10,478,457,-239,-219,468,429,1047,670,284,201,140
4,490,481,-245,-237,486,423,1047,676,302,219,158
22,496,469,-257,-219,480,417,1035,670,296,225,158
34,514,475,-275,-219,492,399,1017,682,314,231,182
34,538,493,-287,-231,516,369,1011,670,326,255,194
46,532,481,-287,-213,504,357,999,670,344,255,194
40,538,487,-287,-225,516,339,981,676,356,273,218
64,556,481,-311,-207,522,309,963,670,368,297,230
82,562,475,-323,-195,516,303,957,664,380,303,236
76,568,481,-323,-201,528,279,921,670,392,327,254
82,568,481,-323,-195,522,255,891,664,386,333,248
88,568,475,-329,-189,522,237,873,652,410,345,266
100,562,457,-329,-177,510,219,819,646,416,351,272
100,556,451,-329,-171,504,195,789,640,422,363,272
112,562,445,-335,-165,504,165,765,628,434,387,290
118,550,427,-335,-153,486,147,723,622,446,387,290
124,550,421,-335,-147,486,117,681,598,446,393,296
124,538,409,-329,-141,480,99,645,598,452,399,302
142,520,373,-329,-111,450,75,597,580,452,393,302
136,508,367,-323,-111,444,63,561,562,452,405,302
124,490,361,-305,-117,432,39,531,556,458,393,314
136,490,349,-311,-105,426,27,495,532,458,399,314
136,478,331,-305,-93,408,21,453,520,440,387,290
124,448,313,-281,-93,384,3,423,496,434,381,284
118,430,301,-269,-87,366,-3,393,484,422,363,284
118,400,271,-257,-75,336,-3,357,472,398,345,266
106,382,265,-239,-75,324,-3,333,460,386,327,248
100,352,241,-227,-69,300,-3,309,448,374,309,236
82,328,235,-209,-75,282,-3,279,418,350,285,224
70,298,223,-185,-69,258,-3,249,388,320,255,200
58,274,211,-167,-69,240,3,231,364,290,243,176
58,256,193,-161,-63,228,-3,213,328,254,219,152
58,232,169,-149,-51,204,21,201,316,242,207,134
40,196,145,-119,-45,174,21,171,274,224,177,116
34,160,115,-95,-33,138,15,165,244,182,135,98
28,142,103,-83,-33,126,21,147,232,170,123,86
10,124,103,-65,-39,114,27,129,208,152,87,74
-8,94,91,-41,-45,96,45,117,196,128,81,68
-2,76,67,-35,-27,72,45,87,166,98,57,50
-8,52,49,-23,-21,54,63,75,142,80,39,26
-13,40,55,-5,-33,48,57,57,112,56,15,14
-19,22,43,6,-33,30,57,51,94,38,-3,2
-19,4,25,6,-21,12,81,27,82,20,-9,-10
-31,-8,25,12,-27,6,75,9,58,-10,-20,-21
-25,-8,7,12,-21,-6,81,21,40,-15,-32,-33
-25,-19,-5,18,-15,-6,81,3,16,-21,-44,-39
-43,-37,-5,36,-21,-17,75,-3,4,-33,-56,-45
-55,-31,13,42,-39,-6,81,-9,-2,-51,-68,-51
-55,-55,-5,54,-27,-29,81,-9,-8,-57,-74,-57
-55,-73,-16,60,-15,-47,93,-14,-8,-69,-86,-63
-55,-79,-22,66,-15,-53,81,-26,-19,-87,-92,-63
-61,-73,-10,66,-21,-41,75,-38,-37,-93,-98,-81
-55,-85,-28,66,-9,-59,99,-44,-37,-99,-98,-81
-55,-85,-28,66,-9,-59,87,-56,-37,-105,-98,-87
-67,-97,-28,78,-15,-65,87,-50,-43,-111,-110,-93
-67,-103,-34,84,-15,-71,87,-56,-61,-111,-122,-105
-73,-115,-40,90,-15,-77,93,-50,-67,-105,-116,-93
-67,-103,-34,84,-15,-71,93,-50,-67,-111,-110,-99
-61,-103,-40,78,-9,-71,81,-50,-61,-105,-122,-105
-73,-121,-46,96,-9,-83,105,-56,-55,-111,-116,-99
-73,-127,-52,96,-9,-89,99,-62,-67,-117,-122,-99
-67,-121,-52,90,-4,-89,87,-74,-73,-117,-122,-105
-61,-115,-52,84,-4,-83,105,-68,-73,-135,-128,-105
-55,-121,-64,84,-4,-95,105,-80,-67,-129,-134,-111
-73,-127,-52,96,-9,-89,99,-62,-73,-129,-122,-105
-73,-127,-52,96,-9,-89,93,-62,-73,-129,-128,-105
-67,-121,-52,90,-4,-89,87,-68,-67,-135,-134,-111
-79,-115,-34,96,-21,-77,93,-62,-73,-129,-122,-105
-73,-127,-52,96,-9,-89,87,-56,-79,-123,-122,-111
-73,-127,-52,96,-9,-89,87,-56,-85,-135,-140,-111
-73,-127,-52,96,-9,-89,93,-68,-73,-129,-128,-117
-73,-133,-58,102,-4,-95,87,-62,-79,-123,-122,-117
-73,-133,-58,102,-4,-95,93,-68,-73,-123,-122,-111
-67,-127,-58,96,-4,-95,105,-56,-55,-117,-122,-111
-73,-127,-52,96,-9,-89,99,-56,-55,-123,-128,-111
-73,-127,-52,96,-9,-89,105,-62,-61,-123,-116,-117
-55,-127,-70,90,-4,-101,87,-62,-49,-111,-116,-117
-61,-127,-64,90,-4,-95,93,-56,-55,-111,-122,-99
-61,-121,-58,90,-4,-89,81,-56,-49,-117,-110,-111
-61,-127,-64,90,-4,-95,93,-50,-55,-111,-122,-111
-67,-121,-52,90,-4,-89,99,-50,-61,-117,-116,-105
-67,-121,-52,90,-4,-89,105,-44,-61,-117,-116,-111
-67,-127,-58,96,-4,-95,111,-44,-55,-111,-116,-99
-67,-121,-52,90,-4,-89,105,-50,-49,-123,-122,-117
-67,-127,-58,96,-4,-95,123,-32,-43,-105,-104,-87
-67,-127,-58,96,-4,-95,111,-32,-55,-117,-116,-99
-67,-133,-64,96,-4,-101,99,-32,-43,-117,-116,-105
-73,-133,-58,102,-4,-95,111,-32,-37,-99,-116,-93
-55,-121,-64,84,-4,-95,111,-26,-31,-99,-110,-99
-67,-127,-58,96,-4,-95,129,-32,-37,-111,-104,-99
-73,-121,-46,96,-9,-83,123,-32,-31,-105,-104,-99
-67,-109,-40,84,-9,-77,117,-20,-37,-111,-110,-105
-61,-103,-40,78,-9,-71,129,-26,-43,-117,-116,-99
-61,-109,-46,84,-4,-77,117,-44,-43,-123,-110,-111
-67,-115,-46,90,-9,-83,129,-26,-37,-117,-104,-99
-61,-115,-52,84,-4,-83,129,-26,-37,-111,-116,-105
-55,-115,-58,84,-4,-89,117,-20,-43,-105,-122,-111
-79,-115,-34,96,-21,-77,135,-14,-31,-99,-116,-93
-55,-121,-64,84,-4,-95,111,-14,-37,-117,-116,-111
-67,-127,-58,96,-4,-95,129,-14,-43,-111,-122,-105
-79,-121,-40,96,-15,-83,135,-20,-31,-105,-110,-93
-79,-115,-34,96,-21,-77,141,-14,-49,-105,-104,-105
-73,-109,-34,90,-15,-71,147,-9,-37,-111,-110,-111
-73,-109,-34,90,-15,-71,141,-14,-37,-117,-110,-117
-73,-127,-52,96,-9,-89,147,-9,-43,-117,-122,-105
-67,-115,-46,90,-9,-83,141,-20,-55,-117,-116,-111
-61,-115,-52,84,-4,-83,129,-14,-55,-111,-122,-99
-61,-115,-52,84,-4,-83,135,-9,-49,-123,-122,-105
-61,-121,-58,90,-4,-89,129,-9,-61,-117,-110,-111
-61,-115,-52,84,-4,-83,129,-9,-61,-117,-128,-93
-73,-115,-40,90,-15,-77,135,-14,-49,-129,-110,-93
-67,-121,-52,90,-4,-89,129,-9,-61,-129,-116,-105
-73,-121,-46,96,-9,-83,141,-9,-49,-123,-110,-99
-67,-115,-46,90,-9,-83,123,-9,-61,-135,-116,-105
-67,-115,-46,90,-9,-83,129,-9,-61,-135,-128,-93
-61,-115,-52,84,-4,-83,135,-14,-73,-135,-122,-105
-67,-121,-52,90,-4,-89,129,-9,-79,-141,-128,-111
-73,-121,-46,96,-9,-83,147,-9,-61,-129,-122,-99
-67,-115,-46,90,-9,-83,129,-9,-73,-129,-128,-111
-73,-121,-46,96,-9,-83,141,-14,-67,-129,-134,-105
-61,-115,-52,84,-4,-83,135,-20,-67,-147,-122,-111
-67,-121,-52,90,-4,-89,129,-14,-85,-141,-134,-117
-67,-115,-46,90,-9,-83,123,-20,-85,-147,-134,-117
-73,-109,-34,90,-15,-71,123,-26,-85,-135,-134,-117
-73,-121,-46,96,-9,-83,135,-20,-85,-147,-134,-105
-73,-121,-46,96,-9,-83,129,-20,-85,-135,-140,-117
-73,-115,-40,90,-15,-77,123,-26,-91,-141,-152,-117
-73,-121,-46,96,-9,-83,123,-14,-85,-129,-134,-111
-79,-121,-40,96,-15,-83,129,-14,-85,-141,-140,-105
-73,-121,-46,96,-9,-83,123,-26,-91,-147,-146,-123
-85,-127,-40,102,-21,-83,135,-26,-85,-153,-134,-117
-79,-133,-52,102,-9,-95,135,-32,-91,-153,-146,-117
-79,-121,-40,96,-15,-83,117,-38,-103,-159,-152,-123
-67,-127,-58,96,-4,-95,123,-50,-103,-165,-158,-117
-61,-127,-64,90,-4,-95,129,-38,-109,-165,-152,-117
-67,-127,-58,96,-4,-95,129,-32,-103,-153,-146,-111
-73,-133,-58,102,-4,-95,123,-32,-103,-165,-152,-111
-73,-133,-58,102,-4,-95,123,-32,-103,-159,-146,-111
-73,-133,-58,102,-4,-95,123,-32,-97,-159,-152,-111
-67,-127,-58,96,-4,-95,123,-38,-103,-153,-146,-111
-73,-127,-52,96,-9,-89,129,-44,-103,-171,-152,-117
-73,-127,-52,96,-9,-89,129,-44,-97,-165,-158,-129
-61,-139,-76,96,-4,-107,117,-44,-109,-165,-164,-123
-67,-127,-58,96,-4,-95,123,-56,-109,-177,-164,-123
-73,-139,-64,102,-4,-101,123,-50,-115,-177,-146,-117
-73,-139,-64,102,-4,-101,117,-50,-109,-165,-158,-117
-79,-133,-52,102,-9,-95,123,-44,-109,-171,-158,-123
-79,-139,-58,108,-9,-101,117,-38,-115,-165,-158,-117
-85,-151,-64,114,-9,-107,117,-38,-103,-171,-152,-111
-73,-151,-76,108,-4,-113,117,-56,-109,-177,-152,-123
-79,-151,-70,114,-4,-113,129,-44,-103,-171,-152,-111
-79,-145,-64,108,-4,-107,117,-56,-121,-177,-158,-123
-79,-139,-58,108,-9,-101,117,-56,-121,-183,-164,-129
-97,-151,-52,120,-21,-101,129,-56,-103,-177,-152,-123
-85,-157,-70,120,-4,-113,117,-56,-127,-177,-164,-129
-91,-157,-64,120,-9,-113,123,-62,-121,-171,-170,-129
-85,-163,-76,120,-4,-119,117,-68,-127,-177,-164,-129
-85,-163,-76,120,-4,-119,123,-62,-121,-171,-170,-123
-97,-169,-70,132,-9,-119,123,-62,-115,-177,-170,-129
-85,-169,-82,126,-4,-125,123,-62,-127,-183,-176,-129
-91,-169,-76,126,-4,-125,117,-56,-127,-177,-170,-123
-85,-157,-70,120,-4,-113,123,-62,-127,-177,-164,-129
-79,-157,-76,114,-4,-119,129,-68,-115,-177,-164,-123
-85,-151,-64,114,-9,-107,123,-74,-121,-183,-170,-123
-79,-151,-70,114,-4,-113,117,-68,-127,-195,-164,-129
-97,-163,-64,126,-15,-113,123,-68,-121,-177,-170,-123
-85,-151,-64,114,-9,-107,111,-74,-127,-189,-170,-135
-97,-163,-64,126,-15,-113,129,-68,-121,-177,-158,-123
-85,-157,-70,120,-4,-113,111,-74,-133,-189,-176,-129
-91,-169,-76,126,-4,-125,117,-68,-127,-177,-170,-123
-85,-157,-70,120,-4,-113,111,-74,-133,-195,-182,-129
-85,-151,-64,114,-9,-107,117,-68,-139,-183,-176,-135
-91,-175,-82,132,-4,-131,129,-68,-133,-183,-170,-123
-91,-169,-76,126,-4,-125,123,-80,-133,-195,-176,-141
-85,-169,-82,126,-4,-125,123,-68,-133,-183,-170,-129
-85,-163,-76,120,-4,-119,123,-80,-139,-189,-176,-135
-85,-169,-82,126,-4,-125,123,-68,-115,-171,-170,-123
-85,-157,-70,120,-4,-113,123,-86,-127,-177,-164,-135
-97,-163,-64,126,-15,-113,123,-62,-121,-183,-170,-123
-91,-157,-64,120,-9,-113,123,-86,-121,-195,-176,-129
-79,-157,-76,114,-4,-119,129,-86,-139,-201,-170,-141
-97,-169,-70,132,-9,-119,129,-80,-145,-195,-176,-123
-73,-163,-88,114,-4,-125,129,-86,-145,-195,-176,-141
-85,-157,-70,120,-4,-113,129,-86,-133,-201,-176,-141
-79,-169,-88,120,-4,-131,123,-74,-133,-195,-176,-135
-79,-169,-88,120,-4,-131,123,-80,-139,-189,-182,-141
-79,-169,-88,120,-4,-131,111,-92,-145,-195,-182,-141
-79,-181,-100,126,2,-143,123,-80,-139,-183,-170,-135
-85,-169,-82,126,-4,-125,123,-68,-139,-189,-176,-123
-79,-169,-88,120,-4,-131,123,-86,-145,-189,-176,-135
-85,-157,-70,120,-4,-113,129,-92,-133,-201,-176,-123
-85,-181,-94,132,-4,-137,129,-74,-145,-189,-164,-135
-79,-175,-94,126,-4,-137,123,-86,-145,-189,-176,-135
-79,-169,-88,120,-4,-131,123,-98,-145,-189,-182,-135
-79,-175,-94,126,-4,-137,135,-92,-139,-183,-170,-129
-91,-169,-76,126,-4,-125,129,-86,-133,-177,-176,-135
-85,-175,-88,126,-4,-131,123,-80,-127,-189,-176,-129
-91,-163,-70,126,-9,-119,129,-92,-133,-189,-170,-129
-85,-169,-82,126,-4,-125,129,-92,-133,-189,-176,-129
-79,-169,-88,120,-4,-131,117,-92,-133,-195,-182,-147
-91,-157,-64,120,-9,-113,123,-86,-139,-189,-176,-135
-79,-163,-82,120,-4,-125,123,-86,-151,-189,-176,-129
-85,-169,-82,126,-4,-125,135,-80,-145,-177,-176,-129
-79,-169,-88,120,-4,-131,129,-92,-145,-201,-182,-129
-79,-181,-100,126,2,-143,123,-86,-151,-189,-176,-129
-91,-181,-88,132,-4,-137,129,-86,-139,-177,-176,-129
-79,-187,-106,132,2,-149,123,-86,-133,-195,-170,-123
-85,-187,-100,132,-4,-143,141,-80,-133,-183,-170,-129
-85,-175,-88,126,-4,-131,135,-86,-145,-189,-176,-129
-85,-181,-94,132,-4,-137,141,-92,-139,-183,-182,-129
-91,-181,-88,132,-4,-137,147,-86,-133,-189,-164,-123
-85,-193,-106,138,2,-149,141,-80,-139,-189,-164,-129
-85,-181,-94,132,-4,-137,129,-92,-145,-189,-182,-135
-91,-181,-88,132,-4,-137,147,-98,-151,-195,-176,-129
-85,-181,-94,132,-4,-137,135,-80,-151,-189,-176,-129
-85,-169,-82,126,-4,-125,129,-92,-145,-201,-176,-129
-91,-193,-100,138,-4,-149,129,-92,-139,-201,-170,-123
-85,-187,-100,132,-4,-143,135,-86,-151,-201,-194,-135
-73,-181,-106,126,8,-143,129,-86,-157,-195,-182,-141
-85,-187,-100,132,-4,-143,135,-80,-151,-183,-164,-135
-85,-175,-88,126,-4,-131,123,-98,-151,-195,-182,-135
-97,-193,-94,144,-4,-143,135,-92,-151,-183,-164,-129
-97,-175,-76,132,-9,-125,135,-80,-151,-183,-176,-135
-79,-169,-88,120,-4,-131,135,-98,-151,-195,-176,-141
-97,-175,-76,132,-9,-125,141,-86,-133,-183,-176,-135
-91,-175,-82,132,-4,-131,135,-92,-139,-189,-194,-141
-97,-175,-76,132,-9,-125,147,-86,-145,-177,-176,-135
-97,-181,-82,138,-4,-131,141,-80,-139,-177,-170,-135
-97,-181,-82,138,-4,-131,135,-68,-133,-189,-182,-135
-97,-181,-82,138,-4,-131,135,-80,-133,-189,-188,-147
-85,-181,-94,132,-4,-137,129,-92,-133,-195,-194,-141
-91,-181,-88,132,-4,-137,141,-86,-145,-189,-182,-135
-85,-181,-94,132,-4,-137,135,-92,-145,-201,-188,-153
-91,-163,-70,126,-9,-119,141,-92,-151,-195,-188,-135
-85,-181,-94,132,-4,-137,141,-92,-139,-189,-176,-135
-85,-163,-76,120,-4,-119,135,-92,-145,-201,-188,-141
-91,-169,-76,126,-4,-125,147,-74,-127,-177,-170,-129
-91,-169,-76,126,-4,-125,153,-68,-115,-177,-170,-129
-91,-163,-70,126,-9,-119,159,-50,-115,-183,-170,-123
-97,-169,-70,132,-9,-119,165,-56,-115,-177,-164,-135
-79,-139,-58,108,-9,-101,159,-56,-121,-177,-170,-129
-79,-127,-46,102,-15,-89,165,-50,-115,-171,-164,-129
-85,-121,-34,102,-21,-77,171,-50,-103,-159,-164,-123
-79,-121,-40,96,-15,-83,189,-32,-91,-159,-152,-111
-67,-103,-34,84,-15,-71,201,-32,-91,-153,-140,-105
-61,-79,-16,66,-21,-47,207,-32,-91,-153,-140,-99
-67,-67,-5,66,-33,-35,225,-14,-73,-135,-128,-93
-73,-67,-5,66,-39,-29,225,-20,-73,-129,-134,-87
-79,-67,1,72,-45,-29,237,-20,-79,-141,-128,-93
-79,-79,-5,78,-39,-41,237,-20,-67,-129,-134,-99
-67,-61,-5,60,-33,-29,237,-9,-61,-135,-122,-87
-67,-55,1,60,-39,-23,243,-9,-67,-129,-128,-93
-61,-61,-5,60,-27,-29,243,-9,-73,-135,-140,-99
-73,-37,25,54,-51,-6,237,-9,-61,-135,-122,-81
-49,-31,7,36,-33,-6,219,-14,-55,-123,-116,-81
-43,-8,25,24,-39,0,207,-32,-61,-117,-98,-63
-43,-8,31,18,-39,6,189,-50,-55,-105,-98,-51
-49,-2,49,18,-51,24,177,-50,-49,-93,-86,-39
-25,28,55,6,-39,42,171,-38,-37,-87,-74,-33
-19,34,55,1,-39,42,165,-14,-8,-57,-62,-27
-13,46,61,-11,-39,54,129,-32,-19,-75,-56,-21
-8,46,55,-11,-33,48,87,-50,-25,-81,-74,-39
-8,28,37,-5,-21,30,69,-62,-43,-93,-80,-45
-8,16,25,1,-15,18,75,-68,-49,-105,-74,-57
-8,-2,1,6,-4,0,87,-44,-37,-81,-74,-45
-8,-8,-5,6,-4,-6,93,-38,-55,-99,-80,-51
-8,-43,-46,18,14,-41,99,-44,-61,-105,-92,-69
-8,-55,-58,24,20,-53,87,-68,-79,-117,-104,-75
-8,-67,-70,30,26,-65,87,-62,-85,-123,-110,-69
-8,-79,-82,36,32,-77,93,-62,-85,-117,-104,-69
-2,-85,-94,36,44,-89,105,-44,-91,-135,-116,-63
-13,-97,-82,54,26,-89,141,-44,-79,-129,-116,-75
-31,-115,-82,72,14,-101,183,-32,-97,-147,-134,-87
-37,-115,-76,72,8,-95,195,-44,-103,-159,-140,-99
-55,-115,-58,84,-4,-89,237,-9,-85,-141,-146,-105
-67,-115,-46,90,-9,-83,279,9,-85,-147,-140,-99
-67,-151,-82,108,-4,-119,321,39,-61,-135,-134,-111
-79,-151,-70,114,-4,-113,357,51,-61,-129,-134,-117
-91,-175,-82,132,-4,-131,363,57,-61,-135,-134,-105
-103,-163,-58,132,-21,-113,345,57,-61,-141,-134,-99
-91,-157,-64,120,-9,-113,375,63,-55,-159,-158,-129
-97,-169,-70,132,-9,-119,495,99,-61,-177,-170,-147
-91,-163,-70,126,-9,-119,567,105,-61,-189,-200,-165
-73,-151,-76,108,-4,-113,531,153,-37,-177,-200,-171
-61,-127,-64,90,-4,-95,471,213,-8,-147,-176,-153
-19,-103,-82,60,20,-95,267,243,28,-129,-164,-159
-8,-79,-76,36,26,-77,117,303,70,-93,-122,-117
-8,-67,-64,30,20,-65,9,315,76,-87,-110,-99
4,-55,-70,18,32,-59,-116,339,88,-69,-98,-81
16,-8,-28,1,20,-11,-236,357,112,-63,-86,-81
52,10,-40,-29,44,-6,-392,357,118,-69,-92,-81
82,46,-34,-65,56,0,-602,399,148,-45,-74,-57
130,94,-34,-113,80,24,-788,411,160,-39,-80,-81
148,124,-22,-137,86,48,-842,507,220,-15,-56,-57
154,148,-5,-149,80,66,-932,591,262,2,-32,-39
202,136,-64,-167,134,30,-1136,585,232,8,-44,-45
226,100,-124,-161,176,-6,-1220,645,268,50,-9,-15
262,88,-178,-179,224,-35,-1262,705,304,68,3,-10
286,76,-214,-185,248,-59,-1310,777,328,98,33,8
310,94,-220,-203,260,-53,-1304,831,364,134,75,32
352,112,-244,-233,296,-59,-1322,837,382,158,75,44
358,112,-244,-233,302,-59,-1286,879,436,176,87,50
394,88,-304,-239,350,-101,-1256,867,484,206,99,44
424,64,-358,-239,392,-143,-1316,543,454,242,123,62
454,76,-376,-263,416,-143,-1424,45,298,254,171,110
508,70,-442,-287,476,-179,-1568,-374,88,266,213,158
556,88,-472,-323,512,-185,-1712,-716,-85,296,267,206
622,100,-520,-359,572,-209,-1856,-1070,-211,356,339,266
688,94,-592,-389,638,-245,-1994,-1352,-259,440,423,338
766,118,-652,-443,710,-257,-2168,-1598,-223,566,549,446
868,226,-646,-545,752,-209,-2390,-1958,-187,722,705,584
928,328,-598,-629,758,-131,-2587,-2437,-271,860,879,728
1012,424,-592,-719,800,-77,-2821,-3055,-493,1034,1065,896
1096,598,-496,-845,794,48,-3073,-3697,-751,1310,1365,1136
1174,796,-376,-983,770,210,-3301,-4207,-1081,1544,1689,1412
1246,904,-346,-1073,794,276,-3475,-4525,-1333,1784,1989,1676
1264,988,-274,-1127,770,354,-3505,-4675,-1435,2077,2318,1922
1252,1126,-130,-1193,692,492,-3481,-4831,-1675,2221,2551,2125
1162,1222,55,-1193,548,642,-3415,-4896,-2011,2197,2647,2245
1042,1246,199,-1145,422,726,-3241,-4795,-2275,2065,2629,2263
946,1234,283,-1091,326,762,-3037,-4531,-2323,1958,2593,2251
826,1258,427,-1043,200,846,-2803,-4207,-2203,1964,2611,2251
742,1138,385,-941,176,762,-2503,-3769,-2017,1940,2521,2137
682,910,223,-791,230,564,-2186,-3235,-1723,1886,2366,1946
592,706,103,-647,236,408,-1820,-2689,-1375,1802,2168,1700
466,424,-40,-443,248,192,-1400,-2132,-1189,1340,1689,1334
292,52,-244,-173,266,-89,-944,-1544,-1069,566,939,812
136,-247,-388,48,254,-311,-554,-1016,-895,-183,147,284
40,-301,-352,126,194,-323,-308,-710,-727,-459,-206,20
-2,-235,-244,108,116,-239,-188,-518,-499,-303,-176,-15
-31,-211,-178,120,62,-197,-92,-344,-337,-189,-122,-39
-43,-175,-130,108,32,-155,-8,-224,-229,-147,-104,-51
-61,-151,-88,102,2,-119,39,-122,-133,-93,-80,-51
-67,-145,-76,102,-4,-113,105,-38,-67,-69,-80,-57
-91,-133,-40,108,-21,-89,165,9,-19,-57,-74,-69
-79,-127,-46,102,-15,-89,207,63,4,-57,-68,-75
-61,-121,-58,90,-4,-89,237,99,28,-63,-80,-81
-85,-127,-40,102,-21,-83,267,123,28,-87,-104,-93
-73,-151,-76,108,-4,-113,273,129,16,-105,-128,-117
-79,-157,-76,114,-4,-119,291,159,46,-117,-146,-129
-79,-175,-94,126,-4,-137,291,189,46,-123,-164,-135
-85,-169,-82,126,-4,-125,297,195,52,-141,-164,-147
-91,-199,-106,144,-4,-155,303,219,76,-141,-176,-159
-103,-193,-88,144,-4,-143,321,237,76,-147,-182,-171
-109,-181,-70,144,-15,-125,345,243,88,-147,-188,-165
-115,-181,-64,144,-21,-125,345,261,94,-165,-200,-183
-109,-175,-64,138,-21,-119,369,273,106,-147,-200,-171
-115,-181,-64,144,-21,-125,375,285,106,-159,-200,-183
-97,-181,-82,138,-4,-131,375,285,106,-159,-206,-189
-103,-181,-76,138,-9,-131,387,309,118,-159,-206,-177
-103,-181,-76,138,-9,-131,375,321,130,-153,-200,-177
-103,-187,-82,144,-9,-137,381,327,130,-147,-194,-171
-103,-187,-82,144,-9,-137,369,333,142,-147,-212,-189
-109,-175,-64,138,-21,-119,375,351,142,-147,-200,-189
-109,-169,-58,138,-21,-113,375,351,142,-141,-194,-177
-103,-169,-64,132,-15,-119,393,363,148,-147,-194,-171
-103,-157,-52,126,-21,-107,393,363,154,-141,-194,-177
-103,-151,-46,126,-27,-101,405,375,154,-147,-188,-171
-97,-151,-52,120,-21,-101,411,387,172,-129,-176,-165
-109,-151,-40,126,-33,-95,411,399,184,-129,-188,-159
-115,-163,-46,138,-33,-107,423,417,190,-123,-176,-165
-97,-145,-46,120,-21,-95,411,411,190,-123,-176,-165
-91,-151,-58,120,-15,-107,405,429,196,-129,-176,-165
-91,-145,-52,114,-15,-101,411,441,208,-123,-170,-165
-97,-139,-40,114,-27,-89,411,453,208,-123,-176,-153
-97,-121,-22,108,-33,-71,423,459,214,-117,-170,-171
-85,-109,-22,96,-27,-65,429,465,232,-123,-164,-159
-97,-115,-16,102,-39,-65,435,477,232,-117,-158,-141
-97,-109,-10,102,-39,-59,435,477,238,-99,-158,-147
-91,-103,-10,96,-39,-59,447,495,250,-93,-158,-147
-97,-103,-5,96,-45,-53,459,513,256,-99,-152,-147
-97,-103,-5,96,-45,-53,453,513,262,-87,-146,-147
-103,-103,-5,102,-51,-53,453,537,280,-75,-152,-147
-91,-85,-5,84,-45,-41,465,555,286,-69,-140,-153
-85,-79,-5,78,-45,-35,465,561,280,-69,-134,-141
-85,-73,1,78,-45,-29,471,567,286,-75,-146,-159
-103,-61,31,78,-69,-11,483,591,304,-57,-122,-141
-103,-55,37,78,-75,-6,483,597,310,-63,-128,-135
-103,-55,37,78,-75,-6,483,609,322,-57,-128,-135
-85,-43,31,60,-63,-6,489,615,334,-69,-134,-147
-91,-37,43,60,-69,-6,489,633,352,-63,-128,-141
-79,-25,43,48,-63,0,483,645,346,-63,-140,-141
-85,-8,67,42,-81,24,495,675,370,-39,-122,-135
-103,-8,91,48,-99,36,507,693,376,-33,-116,-129
-85,-2,85,36,-87,42,507,711,382,-21,-104,-111
-97,10,109,36,-105,60,519,723,412,-10,-86,-105
-91,16,109,30,-99,60,519,741,418,-10,-80,-105
-85,28,115,18,-99,72,531,759,424,-15,-74,-93
-79,40,121,12,-99,78,531,777,436,-4,-68,-93
-73,52,127,6,-99,90,537,795,448,-4,-68,-87
-67,64,133,6,-99,96,531,813,454,-10,-80,-93
-67,76,145,1,-105,108,531,825,454,-4,-74,-93
-73,94,169,-5,-123,132,543,849,466,2,-74,-87
-67,100,169,-11,-117,132,555,873,484,26,-50,-81
-73,124,199,-17,-135,162,555,897,484,32,-44,-69
-79,130,211,-17,-147,168,561,921,490,38,-38,-81
-85,142,229,-23,-159,186,573,939,508,44,-26,-63
-79,154,235,-29,-159,192,573,951,514,50,-9,-51
-73,172,241,-41,-159,210,573,963,520,68,-14,-57
-61,190,247,-59,-159,222,567,975,532,62,-9,-51
-55,202,253,-65,-159,228,579,993,544,56,-3,-27
-49,220,265,-77,-159,240,585,1017,544,74,3,-21
-55,232,289,-83,-177,258,579,1035,568,92,3,-21
-49,238,289,-89,-171,264,579,1053,580,104,15,-15
-43,262,307,-107,-177,282,573,1071,586,110,27,-10
-37,274,313,-113,-177,294,573,1089,604,122,45,-10
-43,292,337,-119,-195,312,573,1095,610,134,51,-4
-49,310,361,-125,-207,336,573,1107,622,146,69,26
-31,328,361,-143,-201,342,573,1113,622,152,87,26
-25,352,379,-161,-207,366,561,1125,640,164,87,38
-13,364,379,-173,-201,372,567,1137,646,182,105,44
-13,376,391,-179,-207,384,561,1125,640,188,111,62
-19,400,421,-185,-225,408,549,1143,658,200,129,68
-2,424,415,-215,-207,420,537,1137,664,200,135,80
-2,442,433,-221,-213,438,537,1143,658,230,153,98
-8,448,445,-221,-225,450,537,1161,682,242,171,104
-2,472,463,-233,-231,468,507,1143,688,242,177,116
-2,478,475,-239,-237,480,495,1155,694,260,207,140
10,490,475,-251,-231,480,489,1137,682,272,213,140
10,496,481,-251,-231,486,483,1137,700,290,231,170
22,508,481,-263,-225,492,465,1137,700,290,243,176
22,520,487,-269,-231,504,453,1107,700,308,249,194
28,526,487,-275,-231,510,435,1107,700,326,267,200
52,532,475,-293,-207,504,411,1077,688,320,273,212
52,538,481,-293,-213,510,393,1047,694,338,285,224
58,544,481,-299,-207,510,369,1029,694,350,285,224
70,544,469,-305,-195,504,345,993,688,362,303,230
64,544,475,-305,-201,510,321,963,676,356,321,248
82,538,451,-311,-183,492,303,933,664,368,321,254
94,544,445,-317,-171,492,279,897,670,380,333,266
100,538,433,-317,-165,486,255,855,664,398,345,278
112,538,421,-323,-153,480,225,813,658,398,357,272
106,526,415,-317,-153,474,195,777,652,416,369,284
124,520,391,-323,-129,462,171,735,652,422,375,284
124,520,391,-323,-129,462,147,699,634,434,387,290
118,508,385,-311,-129,450,129,657,622,440,387,296
124,502,373,-311,-123,444,111,609,616,434,393,296
124,490,361,-305,-117,432,93,561,586,422,393,302
124,478,343,-299,-105,414,75,507,574,416,381,290
112,448,325,-275,-105,390,69,483,562,410,375,296
112,418,295,-263,-87,360,63,453,532,398,357,272
100,394,283,-245,-87,342,45,423,508,386,339,260
106,376,259,-239,-75,318,33,375,478,368,321,236
112,358,235,-233,-57,300,33,357,466,356,315,230
112,328,211,-221,-45,270,45,333,442,344,297,218
88,304,211,-197,-57,258,45,297,406,320,279,194
70,292,217,-185,-69,252,45,285,382,284,249,170
64,256,187,-161,-57,228,39,249,346,260,231,152
52,226,163,-137,-51,198,57,231,328,230,207,140
40,208,157,-125,-51,186,63,207,304,206,177,122
40,178,127,-107,-39,156,63,183,274,182,159,110
46,160,103,-101,-21,132,57,159,244,152,129,86
16,124,97,-71,-33,114,57,159,226,146,117,74
10,94,73,-53,-27,84,63,135,202,116,99,68
10,70,49,-41,-15,60,69,117,184,92,69,38
-8,64,61,-29,-27,66,75,99,154,68,45,20
-8,58,61,-23,-33,60,63,69,118,32,15,-4
-13,28,43,1,-27,36,75,57,88,8,-3,-10
-13,22,37,1,-27,30,87,39,64,-10,-9,-15
-19,4,25,6,-21,12,81,27,52,-27,-26,-39
-37,-8,25,18,-33,6,93,21,46,-39,-32,-39
-31,-25,-5,24,-15,-11,93,15,28,-39,-38,-45
-37,-43,-5,36,-15,-23,99,9,16,-39,-44,-45
-43,-43,-5,42,-21,-23,99,3,4,-57,-56,-51
-43,-61,-16,48,-9,-41,93,-9,-8,-69,-68,-63
-67,-79,-10,72,-27,-47,93,-14,-19,-87,-74,-69
-67,-79,-10,72,-27,-47,93,-14,-31,-99,-86,-81
-49,-73,-22,60,-9,-47,93,-26,-43,-105,-92,-75
-49,-79,-28,60,-9,-53,87,-38,-55,-111,-104,-87
-61,-79,-16,66,-21,-47,87,-38,-55,-123,-110,-99
-67,-91,-22,78,-21,-59,93,-44,-61,-129,-104,-99
