,,,,,,,,,,,
2019-09-04 23:50:46,,,,,,,,,,,
,,,,,,,,,,,
I,II,III,aVR,aVL,aVF,V1,V2,V3,V4,V5,V6
-75,23,105,19,-88,63,-29,-128,-99,-27,4,16
-57,23,87,7,-70,57,-41,-104,-63,-10,16,34
-57,17,81,13,-70,51,-35,-80,-33,14,34,52
-33,23,63,1,-46,45,-53,-68,-15,26,46,52
-27,17,51,1,-40,33,-41,-26,2,44,70,70
-9,23,39,1,-22,33,-29,-14,20,74,82,82
-4,17,27,1,-16,21,-29,-9,56,104,106,106
2,23,15,-10,-5,21,-41,9,80,122,118,100
20,11,-2,-16,13,3,-47,45,104,134,118,106
32,-1,-38,-10,31,-14,-35,81,158,164,154,124
50,5,-38,-28,43,-8,-29,105,194,188,178,142
86,-1,-80,-40,85,-32,-29,141,206,206,184,154
92,-6,-104,-34,97,-50,-23,165,212,212,196,154
104,-18,-128,-34,115,-68,-17,213,230,224,196,154
140,-60,-206,-34,169,-128,-29,243,266,254,220,166
164,-78,-242,-34,205,-158,-6,297,308,290,250,184
206,-78,-284,-58,241,-182,-6,345,368,332,262,190
230,-132,-362,-40,289,-242,12,435,440,380,274,190
236,-162,-398,-28,313,-272,54,537,518,416,298,202
266,-192,-464,-34,361,-320,78,639,656,512,352,220
326,-198,-524,-58,427,-356,90,747,770,590,394,232
386,-198,-584,-88,481,-386,114,873,932,692,454,268
428,-246,-680,-82,547,-464,108,1029,1118,818,526,292
470,-246,-722,-106,589,-482,114,1209,1322,956,580,334
530,-264,-800,-130,667,-530,138,1413,1556,1118,682,388
590,-264,-860,-160,727,-560,174,1611,1772,1262,742,424
644,-240,-884,-202,757,-554,234,1797,2053,1454,862,478
686,-204,-890,-238,781,-542,234,1923,2359,1688,988,544
734,-114,-854,-304,793,-482,240,1989,2652,1904,1120,628
788,-18,-812,-382,799,-416,234,2013,2976,2161,1276,724
824,65,-752,-448,787,-338,246,1983,3222,2347,1390,796
842,119,-722,-484,781,-290,294,1887,3366,2460,1468,850
818,125,-692,-472,751,-272,288,1689,3312,2436,1468,850
776,161,-614,-472,697,-224,228,1413,3168,2377,1432,850
740,143,-596,-442,673,-224,144,1125,3090,2335,1414,838
698,59,-632,-376,667,-278,132,969,2916,2185,1294,754
650,-78,-728,-280,691,-404,210,945,2670,1982,1156,634
542,-240,-782,-148,661,-506,288,903,2299,1694,958,478
410,-318,-728,-40,565,-518,300,723,1832,1364,748,358
308,-390,-704,31,499,-542,234,489,1364,1040,574,250
176,-444,-620,127,397,-524,258,297,764,578,292,76
8,-498,-512,241,259,-500,354,93,116,50,-25,-115
-135,-528,-392,331,121,-464,396,-68,-315,-261,-229,-241
-231,-522,-290,373,25,-410,384,-98,-411,-351,-313,-271
-261,-516,-248,391,-5,-386,318,-68,-387,-345,-313,-277
-243,-486,-242,361,-5,-368,222,-86,-399,-345,-301,-265
-207,-450,-236,325,7,-344,126,-110,-399,-327,-283,-253
-195,-432,-236,307,13,-332,78,-116,-399,-321,-271,-235
-195,-396,-200,289,-5,-296,54,-116,-399,-315,-265,-229
-183,-360,-176,265,-5,-266,36,-104,-369,-297,-247,-217
-171,-318,-146,241,-10,-236,18,-74,-357,-285,-217,-193
-141,-270,-128,205,-5,-200,12,-68,-345,-273,-199,-169
-153,-246,-92,199,-28,-170,30,-68,-327,-249,-193,-151
-153,-228,-68,187,-40,-146,30,-62,-333,-255,-187,-139
-171,-210,-32,187,-64,-122,48,-56,-309,-243,-163,-121
-165,-162,3,163,-82,-74,60,-62,-297,-243,-169,-115
-159,-120,33,139,-100,-38,48,-68,-285,-225,-151,-97
-171,-120,45,145,-112,-32,36,-68,-267,-207,-139,-85
-171,-96,69,133,-124,-8,42,-104,-291,-213,-145,-85
-171,-90,75,127,-124,-2,42,-104,-279,-201,-121,-85
-165,-84,75,121,-124,3,24,-116,-291,-219,-127,-91
-141,-72,63,103,-106,3,12,-116,-285,-225,-121,-85
-147,-72,69,109,-112,3,24,-116,-279,-201,-121,-67
-147,-72,69,109,-112,3,24,-122,-297,-207,-127,-79
-153,-78,69,115,-112,3,18,-134,-291,-219,-133,-91
-165,-78,81,121,-124,3,24,-134,-285,-207,-127,-85
-147,-60,81,103,-118,3,18,-140,-279,-213,-127,-85
-159,-60,93,109,-130,9,18,-140,-273,-207,-127,-67
-183,-60,117,121,-154,21,18,-164,-291,-207,-121,-73
-183,-66,111,121,-148,15,18,-164,-279,-201,-121,-73
-183,-60,117,121,-154,21,30,-158,-291,-207,-109,-61
-147,-48,93,97,-124,15,18,-170,-309,-225,-133,-73
-153,-60,87,103,-124,9,6,-164,-297,-201,-133,-73
-147,-54,87,97,-118,9,6,-158,-303,-207,-133,-73
-153,-66,81,109,-118,3,12,-158,-285,-207,-115,-67
-147,-54,87,97,-118,9,18,-158,-285,-195,-115,-61
-147,-54,87,97,-118,9,18,-158,-279,-189,-109,-67
-159,-66,87,109,-124,3,6,-152,-285,-201,-121,-67
-189,-60,123,121,-160,27,12,-170,-297,-201,-121,-61
-189,-66,117,127,-154,21,24,-164,-273,-195,-103,-55
-183,-54,123,115,-154,27,30,-158,-273,-183,-103,-43
-153,-48,99,97,-130,21,18,-164,-285,-201,-109,-61
-159,-60,93,109,-130,9,18,-152,-279,-195,-109,-61
-159,-48,105,103,-136,21,0,-158,-285,-207,-127,-73
-153,-42,105,97,-130,27,-6,-152,-279,-213,-127,-85
-153,-36,111,91,-136,33,12,-146,-279,-201,-127,-73
-153,-36,111,91,-136,33,6,-146,-267,-189,-121,-73
-171,-42,123,103,-148,33,0,-152,-255,-195,-127,-73
-177,-48,123,109,-154,33,0,-146,-273,-201,-127,-73
-177,-42,129,109,-154,39,6,-140,-249,-183,-109,-61
-177,-42,129,109,-154,39,12,-134,-249,-177,-91,-43
-153,-36,111,91,-136,33,0,-146,-255,-177,-97,-55
-165,-42,117,103,-142,33,-6,-140,-249,-171,-109,-49
-159,-36,117,97,-142,33,0,-140,-267,-201,-127,-73
-165,-36,123,97,-148,39,6,-122,-249,-201,-115,-73
-159,-30,123,91,-142,39,0,-116,-255,-195,-121,-73
-153,-18,129,85,-142,51,0,-116,-249,-177,-109,-67
-165,-24,135,91,-154,51,0,-110,-231,-177,-97,-55
-159,-30,123,91,-142,39,-6,-122,-249,-177,-109,-55
-171,-30,135,97,-154,45,-6,-98,-231,-165,-97,-49
-165,-24,135,91,-154,51,6,-98,-225,-159,-97,-49
-141,-12,123,73,-136,51,6,-98,-237,-165,-97,-55
-159,-24,129,91,-148,45,0,-92,-207,-165,-97,-49
-153,-18,129,85,-142,51,0,-80,-219,-165,-109,-55
-153,-24,123,85,-142,45,-6,-68,-201,-165,-97,-61
-153,-18,129,85,-142,51,0,-68,-207,-159,-103,-61
-159,-6,147,79,-154,63,-6,-68,-195,-159,-97,-49
-141,-1,135,67,-142,63,-6,-62,-201,-165,-97,-61
-141,-1,141,67,-142,69,-6,-80,-207,-171,-109,-61
-165,-12,147,85,-160,63,-6,-56,-189,-159,-97,-61
-153,-6,141,79,-148,63,-6,-38,-171,-135,-79,-43
-135,5,147,55,-142,75,-6,-32,-165,-135,-79,-43
-135,5,147,55,-142,75,-6,-26,-171,-141,-91,-49
-153,-1,153,73,-154,75,-6,-9,-153,-135,-91,-37
-147,-1,141,73,-148,63,-6,-9,-141,-123,-67,-19
-141,5,153,61,-148,81,-6,-9,-129,-111,-61,-31
-147,11,165,61,-154,87,-6,9,-111,-105,-61,-19
-141,11,159,55,-148,87,-6,15,-99,-105,-55,-37
-159,5,171,67,-166,87,-6,15,-87,-105,-79,-37
-153,11,171,61,-160,93,0,27,-75,-93,-67,-43
-141,5,153,61,-148,81,-6,51,-57,-81,-55,-37
-129,11,147,49,-136,81,-6,69,-51,-81,-55,-13
-117,17,141,43,-130,81,-6,81,-57,-69,-49,-25
-123,29,159,37,-142,93,-6,87,-39,-63,-55,-19
-141,29,177,49,-160,105,6,123,-15,-45,-43,-8
-135,41,183,37,-160,111,12,123,-10,-51,-31,-8
-123,53,183,25,-154,117,0,135,8,-39,-37,-13
-117,53,177,25,-148,117,-6,153,20,-21,-31,-19
-123,47,177,31,-148,111,-6,153,44,-21,-37,-8
-123,53,183,25,-154,117,6,177,68,-10,-25,-8
-105,47,159,19,-130,105,0,195,92,8,-8,-2
-87,59,153,7,-118,105,-6,201,92,2,-8,-2
-81,59,147,1,-112,105,0,225,104,8,-8,4
-93,59,159,7,-124,111,-6,231,116,8,-8,-8
-99,65,171,7,-136,117,-6,243,134,32,-8,-2
-87,83,177,1,-130,129,0,249,152,26,-8,-2
-87,95,189,1,-136,141,0,273,170,44,4,4
-75,101,183,-4,-130,141,-6,279,188,56,4,-2
-69,101,177,-10,-124,141,-6,267,182,38,-8,-8
-87,89,183,1,-136,135,-6,297,218,74,22,22
-69,107,183,-10,-124,147,-6,297,236,92,28,28
-51,107,165,-22,-106,135,-6,315,236,92,34,28
-45,101,153,-22,-100,129,-6,321,242,116,40,34
-45,101,153,-22,-100,129,-6,333,266,128,40,34
-57,101,165,-16,-112,135,-6,363,302,152,64,46
-57,113,177,-22,-118,147,0,363,308,146,64,52
-57,119,183,-22,-118,153,6,375,320,146,70,52
-45,113,165,-28,-106,141,-6,369,326,158,52,34
-51,107,165,-22,-106,135,-6,387,338,146,58,52
-51,107,165,-22,-106,135,12,405,362,176,70,52
-33,113,153,-34,-94,135,6,417,374,182,76,58
-27,119,153,-40,-88,135,0,417,374,170,76,52
-21,113,141,-40,-82,129,0,417,374,182,70,46
-15,119,141,-46,-76,129,-6,429,374,176,70,52
-21,113,141,-40,-82,129,0,435,392,188,82,52
-21,119,147,-40,-82,135,6,447,404,194,94,64
-4,119,129,-52,-64,123,6,465,422,212,106,76
-4,113,123,-46,-64,117,6,459,428,224,94,64
-21,107,135,-34,-76,123,12,453,428,206,82,58
-27,113,147,-34,-88,129,18,459,434,218,94,64
-15,113,135,-40,-76,123,24,471,446,230,94,70
-4,113,117,-52,-58,117,18,453,422,212,100,70
-9,107,123,-40,-64,117,24,441,404,206,100,70
-9,113,129,-46,-70,123,24,423,386,206,88,52
-15,89,111,-28,-64,99,18,429,392,206,106,70
-15,101,123,-34,-70,111,24,405,374,200,106,70
-15,113,135,-40,-76,123,30,393,380,200,112,88
-21,95,123,-28,-70,111,18,357,356,188,106,76
-27,107,141,-34,-82,123,24,327,326,164,76,52
-27,95,129,-28,-76,111,36,297,320,170,76,64
-27,95,129,-28,-76,111,36,279,278,146,70,40
-15,101,123,-34,-70,111,30,249,248,122,52,40
-27,83,117,-22,-70,99,18,225,206,98,58,34
-45,89,141,-16,-94,117,24,195,176,92,40,34
-57,65,129,1,-94,99,42,183,170,80,46,40
-57,71,135,1,-94,105,30,147,116,62,34,28
-57,77,141,-4,-100,111,18,129,122,56,34,28
-69,47,123,1,-94,87,18,99,98,38,40,28
-75,59,141,1,-106,99,24,63,56,14,10,4
-81,47,135,7,-106,93,30,51,62,2,16,22
-69,47,123,1,-94,87,30,27,20,2,10,16
-57,47,111,1,-82,81,18,9,-4,-10,4,10
-75,41,123,7,-100,81,12,-14,-33,-27,-8,4
-87,29,123,19,-106,75,18,-26,-39,-39,-8,4
-87,11,105,31,-94,57,0,-26,-51,-45,-8,10
-93,23,123,25,-106,75,6,-44,-75,-45,-19,-8
-81,29,117,19,-100,75,6,-62,-75,-63,-19,-8
-99,11,117,37,-106,63,-6,-74,-93,-63,-31,-13
-105,5,117,43,-112,63,-6,-98,-105,-75,-31,-13
-111,-1,117,49,-112,57,-6,-92,-105,-69,-25,-8
-99,17,123,31,-112,69,-6,-116,-123,-81,-37,-25
-87,11,105,31,-94,57,6,-110,-123,-81,-37,-8
-99,-1,99,43,-100,45,-6,-116,-135,-81,-37,-8
-105,-1,111,43,-106,57,-6,-146,-159,-105,-61,-31
-117,-6,105,61,-112,45,-6,-122,-153,-99,-43,-19
-123,-1,123,55,-124,57,6,-134,-147,-93,-37,-19
-105,5,117,43,-112,63,6,-134,-147,-93,-31,-19
-117,-6,105,61,-112,45,0,-134,-147,-87,-37,-13
-111,-12,93,61,-106,33,-6,-158,-165,-111,-55,-31
-117,-18,93,67,-106,33,0,-140,-159,-99,-37,-19
-111,-6,99,55,-106,39,-6,-164,-159,-105,-55,-31
-81,-1,87,31,-82,45,-6,-164,-177,-123,-67,-37
-105,-1,99,49,-106,45,-6,-164,-189,-129,-67,-31
-105,-6,93,55,-100,39,-6,-176,-201,-129,-79,-43
-111,-24,81,67,-100,21,0,-158,-183,-117,-55,-25
-117,-12,99,61,-112,39,-6,-164,-183,-117,-61,-31
-105,-6,93,55,-100,39,-6,-152,-177,-111,-49,-25
-135,-30,99,79,-118,27,-6,-152,-177,-111,-55,-25
-123,-30,87,73,-106,21,-6,-176,-195,-123,-67,-31
-135,-18,111,73,-124,39,-6,-152,-183,-111,-55,-13
-123,-6,111,61,-118,45,-6,-176,-183,-123,-67,-25
-99,-1,93,49,-100,39,-6,-158,-195,-129,-67,-31
-105,-24,75,61,-94,21,-17,-176,-201,-135,-73,-49
-117,-30,81,73,-100,21,-6,-176,-201,-135,-73,-49
-123,-36,81,79,-106,15,-6,-164,-207,-129,-73,-37
-123,-36,81,79,-106,15,-6,-158,-201,-129,-67,-31
-117,-24,87,67,-106,27,-6,-170,-195,-117,-61,-19
-111,-18,87,61,-100,27,-11,-182,-207,-129,-73,-43
-111,-18,87,61,-100,27,-6,-188,-219,-153,-85,-61
-123,-30,87,73,-106,21,-6,-188,-213,-135,-79,-43
-111,-24,81,67,-100,21,-6,-176,-213,-141,-85,-43
-105,-24,75,61,-94,21,-6,-176,-207,-141,-79,-37
-105,-24,75,61,-94,21,-6,-182,-213,-141,-79,-43
-105,-30,69,67,-88,15,-6,-170,-207,-129,-67,-37
-123,-42,75,79,-100,9,-11,-170,-207,-129,-73,-37
-117,-24,87,67,-106,27,-6,-176,-201,-135,-73,-43
-111,-6,99,55,-106,39,-6,-176,-195,-129,-61,-25
-117,-6,105,61,-112,45,-6,-176,-213,-129,-67,-37
-117,-6,105,61,-112,45,-6,-182,-219,-141,-73,-37
-129,-24,99,73,-118,33,-6,-182,-207,-117,-61,-25
-105,-12,87,55,-100,33,-6,-188,-213,-129,-73,-37
-99,-6,87,49,-94,33,-6,-182,-213,-135,-67,-37
-99,-24,69,61,-88,15,-6,-182,-207,-135,-73,-43
-111,-24,81,67,-100,21,-6,-176,-213,-129,-73,-55
-117,-30,81,73,-100,21,-11,-182,-219,-141,-73,-49
-117,-18,93,67,-106,33,-6,-170,-207,-141,-67,-31
-105,-1,99,49,-106,45,0,-176,-207,-141,-73,-19
-105,-12,87,55,-100,33,-6,-176,-213,-135,-67,-37
-117,-12,99,61,-112,39,-6,-182,-225,-147,-79,-43
-123,-18,99,67,-112,33,-6,-188,-213,-141,-73,-31
-99,-18,75,55,-88,21,-6,-176,-225,-141,-73,-49
-99,-18,75,55,-88,21,-6,-182,-213,-135,-61,-43
-99,-24,69,61,-88,15,-11,-188,-219,-135,-67,-43
-105,-18,81,61,-94,27,-6,-188,-219,-135,-67,-43
-111,-24,81,67,-100,21,-6,-176,-207,-123,-61,-31
-105,-12,87,55,-100,33,-6,-182,-207,-123,-61,-31
-99,-1,93,49,-100,39,-6,-182,-207,-123,-61,-25
-111,-18,87,61,-100,27,-17,-188,-213,-135,-73,-31
-111,-12,93,61,-106,33,-6,-182,-225,-147,-73,-31
-111,-12,93,61,-106,33,-11,-188,-219,-141,-67,-31
-99,-1,93,49,-100,39,-6,-182,-225,-135,-67,-31
-99,-6,87,49,-94,33,-6,-176,-207,-135,-61,-25
-99,-6,87,49,-94,33,-17,-200,-219,-147,-73,-37
-99,-1,93,49,-100,39,-11,-194,-225,-147,-79,-43
-111,-12,93,61,-106,33,-17,-182,-213,-141,-67,-37
-111,-30,75,67,-94,15,-6,-188,-219,-129,-73,-37
-99,-1,99,43,-100,45,-17,-182,-219,-129,-67,-31
-93,-6,81,49,-88,33,-23,-194,-219,-129,-67,-31
-105,-18,81,61,-94,27,-17,-194,-225,-135,-73,-37
-111,-24,81,67,-100,21,-6,-188,-213,-129,-61,-19
-99,-12,81,55,-94,27,-17,-194,-219,-129,-67,-25
-99,-1,93,49,-100,39,-11,-182,-207,-123,-49,-13
-105,-12,87,55,-100,33,-6,-188,-219,-117,-49,-19
-105,-12,87,55,-100,33,-17,-188,-207,-129,-61,-31
-99,-18,75,55,-88,21,-11,-182,-213,-123,-61,-31
-93,-6,81,49,-88,33,-17,-182,-207,-129,-67,-37
-87,-1,81,43,-88,33,-11,-182,-207,-129,-55,-19
-105,-6,93,55,-100,39,-11,-194,-213,-135,-73,-31
-105,-1,105,49,-106,51,-29,-200,-219,-135,-79,-31
-99,-1,99,43,-100,45,-29,-206,-219,-135,-55,-25
-99,-1,93,49,-100,39,-17,-188,-201,-123,-61,-13
-93,-1,87,43,-94,39,-23,-200,-219,-129,-49,-19
-93,-12,75,49,-88,27,-23,-194,-219,-123,-55,-25
-105,-12,87,55,-100,33,-23,-188,-225,-123,-67,-25
-99,-18,75,55,-88,21,-17,-188,-219,-135,-67,-25
-105,-18,81,61,-94,27,-23,-194,-207,-135,-67,-31
-87,-6,75,43,-82,27,-23,-200,-213,-123,-61,-19
-93,-6,81,49,-88,33,-17,-200,-207,-129,-67,-31
-99,-12,81,55,-94,27,-29,-200,-219,-129,-73,-31
-105,-12,87,55,-100,33,-23,-206,-213,-123,-61,-31
-105,-1,99,49,-106,45,-23,-206,-207,-129,-73,-31
-87,-1,87,37,-88,39,-17,-212,-207,-129,-61,-25
-99,-6,87,49,-94,33,-17,-206,-213,-141,-61,-25
-105,-18,81,61,-94,27,-17,-200,-225,-135,-73,-37
-105,-12,87,55,-100,33,-23,-194,-219,-129,-73,-31
-105,-6,93,55,-100,39,-29,-200,-219,-129,-73,-31
-81,-1,75,37,-82,33,-29,-212,-213,-129,-55,-19
-87,-12,69,49,-82,21,-29,-206,-207,-123,-61,-25
-87,-18,63,49,-76,15,-41,-206,-207,-129,-61,-31
-99,-18,75,55,-88,21,-23,-212,-195,-123,-49,-19
-93,-6,81,49,-88,33,-23,-200,-213,-129,-55,-25
-87,-1,87,37,-88,39,-17,-212,-219,-117,-61,-31
-99,-6,87,49,-94,33,-23,-218,-231,-135,-73,-37
-105,-6,93,55,-100,39,-29,-218,-231,-141,-67,-43
-99,-6,87,49,-94,33,-29,-218,-219,-141,-73,-43
-93,-18,69,55,-82,21,-23,-212,-219,-141,-67,-43
-87,-1,81,43,-88,33,-23,-212,-219,-135,-61,-19
-93,-6,81,49,-88,33,-29,-212,-219,-135,-73,-25
-87,-18,63,49,-76,15,-35,-212,-225,-141,-67,-37
-105,-18,81,61,-94,27,-29,-224,-219,-129,-61,-31
-93,-12,75,49,-88,27,-29,-206,-225,-129,-67,-25
-81,-6,69,43,-76,27,-23,-212,-225,-123,-55,-19
-93,-1,87,43,-94,39,-23,-212,-219,-135,-67,-31
-93,-12,75,49,-88,27,-23,-218,-225,-141,-73,-25
-105,-24,75,61,-94,21,-29,-218,-225,-135,-61,-25
-99,-6,87,49,-94,33,-17,-218,-225,-129,-67,-25
-81,-1,75,37,-82,33,-17,-212,-225,-129,-73,-19
-93,-12,75,49,-88,27,-29,-224,-237,-153,-85,-43
-105,-18,81,61,-94,27,-23,-218,-231,-153,-79,-37
-105,-6,93,55,-100,39,-23,-224,-225,-141,-79,-49
-105,-1,99,49,-106,45,-17,-212,-213,-141,-73,-49
-87,-1,81,43,-88,33,-29,-224,-225,-129,-61,-37
-87,-12,69,49,-82,21,-29,-224,-231,-135,-61,-25
-99,-6,87,49,-94,33,-29,-230,-243,-135,-67,-37
-87,-6,75,43,-82,27,-35,-230,-231,-147,-73,-43
-93,-6,81,49,-88,33,-23,-218,-219,-135,-61,-25
-81,-1,75,37,-82,33,-23,-218,-207,-129,-67,-31
-105,-12,87,55,-100,33,-23,-212,-213,-117,-67,-31
-111,-6,99,55,-106,39,-23,-218,-219,-135,-67,-37
-105,-1,105,49,-106,51,-35,-212,-213,-123,-67,-31
-105,-1,99,49,-106,45,-17,-218,-231,-135,-61,-31
-87,-6,75,43,-82,27,-17,-224,-225,-135,-55,-31
-93,-12,75,49,-88,27,-29,-224,-225,-135,-55,-25
-99,-12,81,55,-94,27,-29,-230,-231,-147,-79,-43
-81,-1,75,37,-82,33,-29,-230,-231,-147,-79,-37
-93,-1,87,43,-94,39,-29,-224,-225,-135,-67,-31
-81,-1,81,37,-82,39,-17,-218,-207,-129,-73,-25
-93,-1,87,43,-94,39,-17,-218,-201,-123,-55,-25
-105,5,117,43,-112,63,-11,-218,-207,-117,-55,-31
-93,11,111,31,-100,63,-6,-194,-207,-111,-43,-19
-87,23,117,25,-100,69,6,-194,-201,-117,-43,-8
-69,41,117,7,-94,81,-6,-206,-201,-123,-55,-13
-75,35,117,13,-94,75,12,-182,-201,-117,-37,-8
-81,53,141,7,-112,99,24,-188,-201,-123,-55,-13
-81,53,141,7,-112,99,36,-176,-177,-105,-49,-8
-81,71,159,1,-118,117,42,-170,-177,-105,-43,-13
-69,89,165,-4,-118,129,42,-170,-171,-99,-43,-8
-81,71,159,1,-118,117,48,-164,-165,-87,-31,-8
-81,71,159,1,-118,117,42,-182,-171,-93,-31,-8
-75,77,159,1,-118,117,60,-158,-165,-93,-25,-8
-69,83,159,1,-112,123,60,-170,-165,-87,-25,-8
-63,107,177,-16,-118,141,54,-176,-153,-75,-19,-8
-69,119,195,-16,-130,159,36,-188,-159,-87,-19,-8
-75,149,231,-28,-154,189,18,-188,-153,-81,-25,4
-57,167,231,-46,-142,201,0,-194,-141,-63,-8,16
-63,173,243,-46,-154,207,-11,-218,-141,-51,-8,28
-39,197,243,-70,-142,219,-59,-242,-153,-57,-8,34
-39,215,255,-82,-148,237,-89,-248,-159,-63,10,34
-45,233,279,-88,-166,255,-107,-254,-153,-39,16,58
-27,239,267,-100,-148,249,-137,-260,-147,-39,22,58
-15,233,249,-100,-136,243,-155,-272,-147,-45,22,64
-4,239,243,-118,-118,243,-155,-260,-141,-57,22,64
-4,239,243,-118,-118,243,-155,-254,-135,-39,28,76
-4,245,243,-124,-118,249,-155,-254,-135,-39,22,70
-4,239,237,-118,-112,243,-155,-254,-147,-45,22,64
2,239,237,-124,-112,243,-143,-254,-147,-33,34,76
32,239,201,-136,-76,225,-137,-236,-135,-33,34,76
20,209,183,-112,-76,201,-143,-224,-123,-21,34,82
2,185,177,-94,-82,183,-143,-242,-123,-27,34,70
-4,167,171,-76,-82,171,-113,-224,-129,-27,40,70
-4,149,153,-70,-76,153,-107,-218,-135,-39,28,58
-4,119,117,-58,-52,123,-95,-206,-135,-45,22,46
-4,89,99,-34,-52,93,-101,-218,-147,-57,-2,40
-33,89,129,-22,-82,111,-101,-206,-153,-81,-31,4
-63,47,117,1,-88,81,-71,-206,-171,-81,-31,-2
-81,35,123,13,-100,81,-65,-224,-189,-111,-49,-19
-93,17,117,31,-106,69,-41,-206,-195,-105,-43,-13
-99,-6,87,49,-94,33,-47,-218,-207,-123,-49,-19
-111,-18,87,61,-100,27,-41,-218,-213,-135,-67,-37
-117,-30,81,73,-100,21,-23,-212,-207,-123,-55,-25
-105,-12,87,55,-100,33,-35,-236,-225,-135,-73,-43
-93,-24,63,55,-82,15,-41,-242,-231,-141,-85,-37
-87,-30,51,55,-70,3,-59,-248,-231,-153,-79,-37
-93,-24,63,55,-82,15,-53,-236,-219,-159,-91,-49
-93,-36,51,61,-76,3,-59,-224,-207,-123,-73,-37
-81,-18,57,49,-70,15,-47,-212,-189,-117,-67,-37
-81,-12,63,43,-76,21,-41,-188,-189,-99,-55,-19
-81,-1,75,37,-82,33,-35,-188,-177,-99,-43,-13
-75,-12,57,43,-70,15,-41,-188,-171,-105,-49,-31
-81,-12,63,43,-76,21,-35,-170,-153,-75,-19,-8
-51,-1,51,19,-52,21,-35,-158,-135,-69,-19,-8
-33,5,45,7,-40,27,-41,-146,-111,-57,-19,-8
-21,5,33,1,-28,21,-41,-158,-99,-45,-8,-2
-15,-1,21,1,-16,9,-41,-116,-75,-27,-8,4
-9,5,21,1,-16,15,-41,-98,-63,-4,28,40
2,23,15,-10,-5,21,-35,-74,-33,8,28,40
14,23,3,-16,1,15,-23,-38,-10,32,40,46
20,11,-2,-16,13,3,-11,-20,2,56,70,58
26,5,-14,-16,19,3,-23,-9,32,62,70,58
38,-1,-32,-16,37,-8,-17,21,62,86,82,76
74,-1,-74,-34,73,-32,-17,51,98,110,94,94
122,-1,-116,-58,121,-50,-29,87,128,128,112,82
122,-1,-116,-58,121,-50,-23,117,158,164,142,100
128,-1,-128,-58,127,-56,-17,153,176,176,136,100
128,-18,-152,-46,139,-80,0,201,212,200,154,112
164,-18,-188,-64,175,-98,0,231,236,206,166,118
194,-18,-218,-82,205,-116,12,267,266,236,178,142
200,-60,-260,-64,229,-158,12,297,296,278,220,154
230,-90,-320,-64,271,-206,24,357,332,284,220,148
236,-102,-344,-64,289,-224,60,453,404,326,244,160
284,-126,-416,-76,349,-266,90,561,494,374,262,172
344,-144,-488,-94,415,-314,114,681,608,446,298,178
374,-168,-542,-100,457,-350,126,807,740,530,346,214
416,-192,-608,-106,505,-398,132,939,896,644,400,232
458,-204,-662,-124,553,-428,150,1119,1106,788,484,262
536,-192,-728,-172,631,-458,138,1299,1328,932,550,310
590,-192,-782,-196,685,-482,180,1521,1532,1064,616,346
638,-216,-854,-208,739,-530,222,1713,1742,1208,706,370
698,-180,-878,-250,781,-524,246,1857,1994,1376,784,418
740,-132,-878,-298,805,-500,276,1965,2293,1604,934,502
836,-48,-890,-388,859,-470,270,2037,2592,1826,1066,586
878,53,-818,-466,847,-374,294,2072,2916,2065,1210,688
914,119,-788,-514,853,-326,330,2042,3150,2263,1330,754
920,137,-776,-526,847,-314,324,1905,3240,2359,1396,796
890,155,-728,-520,811,-278,276,1671,3156,2323,1384,802
860,173,-686,-514,769,-248,162,1323,3042,2263,1354,796
824,143,-680,-484,751,-260,72,1047,2958,2191,1318,760
794,-1,-788,-400,793,-386,96,963,2796,2047,1192,658
728,-138,-866,-286,793,-494,168,927,2568,1838,1024,526
620,-252,-878,-178,745,-560,210,837,2185,1556,850,400
488,-318,-812,-82,649,-560,210,657,1736,1250,682,286
404,-354,-758,-16,577,-554,150,405,1244,926,490,190
248,-450,-704,91,475,-572,216,213,692,500,232,22
38,-510,-554,235,295,-530,288,-9,56,14,-73,-151
-99,-528,-428,313,157,-482,306,-170,-357,-267,-241,-241
-177,-516,-338,343,73,-428,246,-194,-441,-351,-307,-265
-207,-480,-266,337,25,-374,180,-164,-405,-351,-295,-259
-183,-462,-272,319,37,-368,90,-158,-411,-351,-289,-259
-177,-438,-254,301,31,-344,48,-158,-381,-315,-271,-241
-153,-402,-242,271,37,-320,12,-164,-375,-321,-259,-235
-147,-372,-224,253,31,-296,-6,-140,-363,-297,-253,-217
-123,-324,-200,223,31,-260,-6,-122,-351,-279,-235,-199
-117,-282,-164,199,13,-224,-6,-104,-339,-261,-217,-187
-117,-246,-128,181,-5,-188,-6,-92,-333,-261,-217,-175
-111,-228,-110,169,-5,-170,18,-86,-339,-249,-199,-163
-111,-186,-68,145,-16,-128,18,-80,-315,-237,-187,-145
-105,-162,-50,133,-22,-104,18,-98,-309,-243,-175,-115
-111,-138,-20,121,-40,-80,24,-98,-315,-237,-175,-115
-135,-120,9,127,-76,-50,30,-110,-273,-219,-157,-103
-129,-90,33,109,-82,-20,30,-128,-285,-213,-139,-103
-111,-78,27,91,-70,-20,36,-122,-279,-213,-139,-109
-105,-72,27,85,-70,-14,30,-146,-291,-207,-133,-85
-111,-72,33,91,-76,-14,12,-158,-309,-213,-139,-109
-111,-84,21,97,-70,-26,0,-158,-303,-225,-157,-109
-117,-90,21,103,-70,-26,18,-146,-309,-213,-145,-85
-117,-72,39,91,-82,-8,6,-152,-303,-213,-139,-97
-111,-66,39,85,-76,-8,6,-158,-297,-219,-121,-85
-105,-66,33,85,-70,-8,12,-152,-303,-213,-133,-73
-129,-54,69,91,-100,3,-6,-170,-291,-219,-133,-79
-123,-66,51,91,-88,-2,12,-176,-303,-207,-127,-85
-117,-60,51,85,-88,3,12,-170,-291,-207,-133,-85
-105,-42,57,73,-82,3,0,-194,-303,-213,-133,-79
-99,-48,45,73,-76,3,-6,-200,-315,-225,-151,-91
-105,-60,39,79,-76,-2,-6,-182,-309,-219,-139,-97
-105,-60,39,79,-76,-2,0,-182,-309,-213,-127,-85
-99,-48,45,73,-76,3,0,-176,-297,-207,-133,-91
-99,-54,39,73,-70,-2,6,-176,-291,-213,-121,-85
-105,-36,63,67,-88,9,0,-182,-303,-213,-139,-85
-123,-30,87,73,-106,21,-6,-182,-279,-195,-127,-67
-123,-42,75,79,-100,9,12,-182,-297,-207,-121,-85
-111,-36,69,73,-94,9,12,-176,-285,-213,-127,-85
-93,-24,63,55,-82,15,-6,-182,-291,-213,-127,-79
-87,-42,39,61,-64,3,-6,-194,-291,-219,-127,-85
-99,-42,51,67,-76,3,-6,-182,-309,-231,-145,-91
-99,-30,63,61,-82,9,-6,-176,-297,-225,-133,-73
-105,-36,63,67,-88,9,0,-170,-291,-219,-133,-73
-99,-24,69,61,-88,15,6,-170,-297,-213,-127,-73
-99,-30,63,61,-82,9,0,-152,-273,-201,-127,-79
-123,-30,87,73,-106,21,6,-158,-273,-207,-139,-79
-111,-24,81,67,-100,21,0,-164,-261,-201,-133,-73
-99,-24,69,61,-88,15,-6,-158,-273,-201,-133,-85
-87,-6,75,43,-82,27,-6,-170,-285,-225,-139,-85
-81,-12,63,43,-76,21,-11,-170,-285,-225,-145,-97
-93,-24,63,55,-82,15,-6,-152,-285,-225,-139,-97
-93,-18,69,55,-82,21,-6,-140,-279,-207,-121,-79
-93,-6,81,49,-88,33,0,-122,-261,-195,-121,-79
-87,-1,87,37,-88,39,6,-128,-273,-201,-121,-73
-81,-6,69,43,-76,27,6,-134,-255,-189,-115,-67
-105,-6,93,55,-100,39,6,-134,-255,-195,-133,-79
-87,-12,69,49,-82,21,6,-128,-243,-183,-109,-67
-81,-12,63,43,-76,21,6,-116,-231,-165,-109,-61
-69,-1,63,31,-70,27,0,-110,-231,-165,-97,-43
-69,-12,51,37,-64,15,-6,-110,-213,-153,-97,-55
-69,-12,51,37,-64,15,-6,-104,-237,-183,-109,-67
-75,-6,63,37,-70,21,0,-86,-219,-177,-103,-55
-81,-1,75,37,-82,33,0,-74,-219,-171,-103,-55
-63,-1,63,25,-64,27,0,-80,-219,-177,-103,-61
-75,-1,75,31,-76,33,6,-62,-213,-171,-109,-55
-87,-1,81,43,-88,33,6,-62,-213,-171,-115,-61
-75,-1,69,37,-76,27,-6,-62,-195,-159,-103,-61
-75,-1,81,31,-76,39,6,-44,-183,-159,-109,-55
-57,11,75,13,-64,45,-6,-50,-189,-159,-109,-55
-63,-1,57,31,-64,21,-6,-44,-183,-147,-109,-73
-63,-1,69,25,-64,33,-6,-32,-189,-177,-115,-67
-63,5,75,19,-70,39,-6,-14,-165,-153,-103,-61
-63,5,75,19,-70,39,0,-9,-165,-153,-103,-67
-57,29,93,7,-76,63,6,-3,-159,-147,-97,-61
-63,23,93,13,-76,57,6,9,-141,-135,-85,-61
-75,29,111,13,-94,69,-6,9,-141,-141,-109,-55
-69,23,99,13,-82,63,-6,33,-111,-111,-79,-43
-63,35,105,7,-82,69,0,51,-87,-105,-79,-37
-39,47,93,1,-64,69,0,63,-87,-111,-73,-25
-33,35,75,1,-52,57,-6,69,-81,-99,-67,-43
-45,35,87,1,-64,63,-6,75,-81,-99,-67,-37
-51,41,99,1,-76,69,0,99,-57,-81,-49,-25
-39,47,93,1,-64,69,6,117,-39,-75,-49,-37
-27,47,81,-4,-52,63,0,129,-33,-75,-49,-25
-39,41,87,1,-64,63,0,153,-10,-63,-49,-31
-51,53,111,1,-82,81,-6,165,-10,-57,-61,-43
-51,53,111,1,-82,81,12,183,14,-39,-43,-37
-39,71,117,-10,-76,93,6,201,26,-45,-49,-25
-15,77,99,-22,-58,87,0,207,38,-27,-37,-8
-15,71,93,-22,-52,81,-6,225,50,-27,-31,-25
-9,71,87,-22,-46,81,-6,237,56,-15,-25,-8
-21,71,99,-16,-58,87,-6,249,80,-10,-31,-8
-33,71,111,-10,-70,93,12,273,98,2,-13,-8
-15,83,105,-28,-58,93,18,297,122,14,-8,4
-15,83,105,-28,-58,93,6,303,146,14,-8,-2
-15,95,117,-34,-64,105,6,315,170,38,-2,4
-9,89,105,-34,-58,99,24,339,194,44,10,-2
-4,101,105,-46,-52,105,6,333,200,56,4,-2
20,113,87,-64,-28,105,6,351,212,68,4,10
14,113,93,-64,-34,105,-6,345,212,62,16,-2
14,107,87,-58,-28,99,0,357,218,68,16,16
8,107,93,-58,-34,105,6,387,236,80,22,22
2,113,105,-58,-46,111,12,405,242,98,34,28
26,113,81,-70,-22,99,18,411,260,104,46,28
20,119,93,-70,-28,111,12,423,278,110,34,22
14,131,111,-70,-40,123,6,429,290,110,34,28
20,131,105,-76,-34,123,6,447,302,128,40,28
32,125,87,-76,-22,111,6,459,320,128,46,34
50,143,87,-94,-10,117,12,465,332,146,52,22
44,131,81,-88,-10,111,0,471,338,140,46,22
50,131,75,-88,-5,105,-6,477,332,140,52,28
56,137,75,-94,-5,111,12,483,350,152,64,34
56,131,69,-94,-5,105,12,495,356,158,70,40
74,131,51,-100,7,93,12,519,374,170,70,40
68,125,51,-94,1,93,24,531,398,182,76,58
56,131,69,-94,-5,105,18,531,410,188,76,58
56,125,63,-88,-5,99,24,537,428,206,76,40
74,119,39,-94,13,81,36,543,440,206,94,70
92,149,51,-118,13,105,30,531,434,206,88,58
92,137,39,-112,19,93,12,519,416,206,76,40
92,119,21,-106,31,75,18,501,404,194,76,46
74,119,39,-94,13,81,30,495,398,188,82,40
74,113,33,-94,13,75,30,477,386,182,76,46
80,119,33,-100,19,81,30,465,374,182,94,52
68,113,39,-88,7,81,30,429,362,170,76,34
62,119,51,-88,1,87,24,417,338,164,64,34
50,107,51,-76,-5,81,36,405,326,164,64,34
56,107,45,-82,1,81,36,363,308,146,64,40
74,125,45,-100,7,87,24,339,278,134,52,22
62,95,27,-76,13,63,24,297,254,116,46,34
44,89,39,-64,-5,69,18,267,224,98,52,28
38,83,39,-58,-5,63,18,249,200,92,46,22
38,77,33,-58,-5,57,18,219,164,68,40,16
38,83,39,-58,-5,63,18,183,146,62,40,22
20,71,45,-46,-5,63,12,147,110,38,10,10
8,59,45,-34,-10,57,12,123,98,32,16,16
2,59,51,-28,-16,57,18,99,74,8,-2,4
8,59,45,-34,-10,57,12,75,56,8,4,10
20,65,39,-40,-5,57,6,39,26,2,-8,-2
2,47,39,-22,-10,45,-6,21,2,-10,-8,-8
-4,41,39,-16,-16,45,-6,-9,-21,-27,-25,-19
-4,17,27,1,-16,21,-6,-9,-45,-45,-19,-8
-4,29,39,-4,-22,33,-6,-26,-57,-57,-31,-13
-4,23,27,-4,-10,27,0,-38,-63,-51,-31,-13
-4,17,27,1,-16,21,-6,-74,-75,-69,-37,-19
-15,17,39,1,-28,27,-6,-92,-87,-69,-43,-25
-15,5,27,1,-22,15,-6,-98,-93,-75,-37,-25
-9,11,27,1,-16,21,-6,-116,-105,-75,-31,-25
-4,11,15,1,-5,15,-6,-122,-129,-93,-55,-31
-15,11,33,1,-22,21,-11,-128,-141,-99,-49,-37
-15,-1,21,1,-16,9,-11,-140,-159,-111,-67,-49
-27,-1,27,7,-28,9,-17,-134,-159,-111,-73,-37
-27,-1,33,7,-28,15,-6,-140,-165,-105,-67,-31
-15,5,27,1,-22,15,-11,-164,-165,-117,-55,-25
-27,-1,27,7,-28,9,-11,-158,-159,-117,-67,-31
-33,-1,39,7,-34,21,-17,-170,-177,-123,-67,-37
-45,-6,33,25,-40,9,-6,-158,-165,-111,-67,-37
-27,-1,27,7,-28,9,-11,-176,-165,-123,-67,-55
-9,-1,3,1,-10,3,-11,-176,-183,-129,-79,-49
-33,-18,9,25,-22,3,-17,-182,-189,-135,-73,-49
-33,-12,15,19,-28,3,-11,-188,-201,-141,-85,-61
-39,-18,15,25,-28,3,-11,-176,-207,-129,-79,-49
-45,-6,33,25,-40,9,-11,-170,-195,-141,-79,-61
-27,-6,15,13,-22,3,-11,-182,-201,-147,-91,-49
-33,-18,9,25,-22,3,-11,-182,-195,-135,-85,-55
-39,-24,9,31,-28,-2,-17,-182,-195,-135,-79,-49
-51,-24,21,37,-40,3,-17,-182,-195,-135,-79,-49
-39,-12,21,25,-34,3,-11,-188,-189,-123,-67,-49
-21,-18,3,19,-10,-2,-17,-182,-195,-135,-79,-61
-27,-24,3,25,-16,-8,-17,-176,-189,-141,-73,-55
-27,-30,3,25,-10,-14,-23,-194,-207,-147,-97,-55
-45,-24,15,31,-34,3,-17,-176,-195,-135,-85,-49
-33,-18,9,25,-22,3,-11,-176,-201,-147,-85,-55
-21,-12,3,13,-16,3,-17,-182,-207,-141,-85,-43
-27,-30,3,25,-10,-14,-11,-188,-195,-135,-91,-55
-39,-30,3,31,-22,-8,-17,-188,-195,-135,-85,-55
-51,-30,15,37,-34,-2,-11,-176,-183,-141,-73,-49
-33,-24,3,25,-22,-2,-17,-188,-195,-135,-79,-55
-27,-18,3,19,-16,-2,-6,-182,-195,-129,-73,-49
-27,-18,3,19,-16,-2,-17,-182,-195,-141,-85,-55
-27,-18,3,19,-16,-2,-23,-194,-207,-147,-103,-61
-45,-24,15,31,-34,3,-11,-188,-207,-147,-85,-49
-21,-12,3,13,-16,3,-23,-176,-207,-147,-91,-55
-15,-12,3,13,-10,-2,-17,-182,-207,-153,-79,-49
-33,-12,15,19,-28,3,-29,-182,-207,-153,-85,-61
-33,-12,15,19,-28,3,-29,-188,-213,-147,-91,-61
-39,-18,15,25,-28,3,-6,-188,-213,-147,-79,-55
-21,-18,3,19,-10,-2,-6,-182,-207,-135,-85,-55
-15,-6,3,7,-10,3,-6,-188,-213,-141,-85,-49
-15,-12,3,13,-10,-2,-35,-182,-219,-147,-85,-43
-27,-18,3,19,-16,-2,-23,-194,-231,-141,-73,-43
-33,-30,3,31,-16,-8,-11,-176,-213,-135,-79,-49
-33,-12,15,19,-28,3,-11,-182,-207,-147,-91,-49
-21,-6,9,13,-16,3,-6,-188,-213,-141,-79,-43
-21,-12,3,13,-16,3,-17,-200,-201,-147,-91,-49
-33,-12,15,19,-28,3,-11,-194,-207,-135,-67,-43
-39,-1,33,19,-40,9,-23,-194,-207,-141,-79,-55
-27,-1,27,7,-28,9,-17,-200,-207,-135,-73,-49
-9,-1,3,1,-10,3,-17,-194,-213,-129,-61,-55
-9,-1,9,1,-10,3,-47,-200,-225,-147,-91,-67
-27,-1,33,7,-28,15,-29,-206,-237,-159,-91,-61
-33,-12,15,19,-28,3,-17,-194,-225,-141,-85,-49
-15,-1,15,1,-16,3,-23,-200,-219,-147,-85,-49
-4,5,15,1,-10,9,-17,-206,-213,-141,-73,-55
-21,-1,21,7,-22,9,-17,-212,-207,-135,-91,-49
-33,-1,33,13,-34,15,-6,-206,-213,-135,-61,-43
-33,-1,27,13,-34,9,-6,-200,-207,-135,-73,-49
-27,-1,27,7,-28,9,-17,-206,-213,-147,-79,-43
-4,11,21,1,-10,15,-17,-206,-213,-135,-73,-43
-9,-1,9,1,-10,3,-41,-206,-225,-141,-79,-43
-27,-12,9,19,-22,3,-35,-212,-237,-153,-91,-43
-39,-12,21,25,-34,3,-23,-188,-231,-147,-85,-49
-21,-1,15,7,-22,3,-29,-200,-237,-153,-91,-43
-15,-1,21,1,-16,9,-29,-206,-225,-141,-79,-49
-21,5,33,1,-28,21,-35,-212,-219,-141,-91,-49
-27,-1,33,7,-28,15,-29,-212,-213,-135,-73,-43
-45,-1,39,19,-46,15,-6,-188,-207,-117,-55,-37
-21,-1,27,1,-22,15,-29,-212,-213,-129,-61,-37
-4,-1,9,1,-5,3,-23,-218,-219,-129,-67,-37
-15,-1,9,7,-16,3,-29,-206,-219,-135,-73,-37
-15,-1,15,1,-16,3,-41,-218,-225,-141,-73,-37
-33,-1,27,13,-34,9,-41,-200,-219,-123,-73,-37
-27,-1,27,7,-28,9,-41,-194,-225,-141,-79,-37
-15,5,27,1,-22,15,-23,-212,-219,-141,-67,-43
-15,-1,15,1,-16,3,-29,-212,-219,-135,-85,-49
-27,-1,21,13,-28,3,-29,-206,-219,-135,-73,-37
-33,-1,27,13,-34,9,-23,-212,-219,-135,-67,-37
-27,-1,33,7,-28,15,-35,-212,-213,-135,-67,-31
-15,5,27,1,-22,15,-23,-218,-213,-129,-61,-43
-15,-1,15,1,-16,3,-41,-206,-219,-141,-79,-49
-15,-1,15,1,-16,3,-35,-212,-231,-141,-85,-43
-39,-1,33,19,-40,9,-29,-218,-219,-141,-79,-43
-21,-1,21,7,-22,9,-41,-206,-225,-141,-85,-43
-21,11,39,1,-28,27,-35,-224,-219,-135,-73,-43
-21,-1,27,1,-22,15,-41,-218,-225,-141,-79,-43
-27,5,39,1,-34,21,-47,-218,-225,-141,-73,-49
-39,-1,39,13,-40,15,-35,-218,-213,-141,-67,-37
-15,-1,21,1,-16,9,-35,-224,-213,-135,-67,-37
-9,5,21,1,-16,15,-35,-230,-219,-129,-67,-37
-15,-1,15,1,-16,3,-41,-218,-225,-141,-73,-37
-27,-1,33,7,-28,15,-41,-230,-231,-141,-85,-49
-27,-1,21,13,-28,3,-41,-218,-213,-123,-73,-37
-27,5,39,1,-34,21,-41,-212,-231,-135,-79,-49
-27,5,39,1,-34,21,-41,-230,-219,-123,-61,-19
-33,-1,33,13,-34,15,-29,-218,-207,-123,-61,-37
-33,11,51,1,-40,33,-41,-236,-219,-117,-67,-31
-39,5,51,7,-46,27,-47,-236,-207,-123,-61,-43
-33,5,45,7,-40,27,-23,-230,-219,-129,-67,-49
-21,-1,15,7,-22,3,-29,-236,-219,-129,-61,-31
-21,-1,21,7,-22,9,-41,-218,-225,-141,-73,-37
-33,-1,27,13,-34,9,-35,-224,-225,-141,-73,-37
-33,-1,27,13,-34,9,-47,-218,-225,-135,-67,-31
-27,-1,27,7,-28,9,-35,-230,-219,-141,-73,-43
-27,-1,27,7,-28,9,-41,-230,-207,-129,-55,-25
-21,-1,27,1,-22,15,-41,-230,-225,-135,-79,-37
-33,-1,39,7,-34,21,-41,-248,-231,-141,-85,-43
-45,-1,39,19,-46,15,-35,-218,-207,-135,-61,-31
-21,5,33,1,-28,21,-35,-242,-231,-141,-85,-49
-15,11,33,1,-22,21,-47,-242,-225,-141,-67,-43
-15,11,33,1,-22,21,-59,-242,-231,-147,-91,-55
-21,-1,27,1,-22,15,-47,-248,-231,-141,-79,-49
-33,-1,27,13,-34,9,-47,-224,-219,-135,-67,-37
-21,-1,21,7,-22,9,-41,-242,-219,-141,-85,-43
-27,-6,15,13,-22,3,-41,-236,-213,-123,-55,-31
-21,-1,21,7,-22,9,-53,-242,-219,-141,-79,-43
-27,-1,21,13,-28,3,-47,-242,-225,-141,-73,-37
-33,-1,27,13,-34,9,-41,-236,-213,-135,-67,-43
-15,-1,21,1,-16,9,-41,-254,-231,-135,-79,-49
-15,-1,21,1,-16,9,-47,-242,-219,-129,-61,-31
-27,-1,33,7,-28,15,-47,-242,-231,-141,-73,-43
-33,-1,33,13,-34,15,-53,-254,-237,-147,-85,-43
-51,-6,39,25,-46,9,-47,-236,-225,-129,-67,-37
-21,-1,15,7,-22,3,-41,-248,-225,-147,-79,-49
-21,-1,27,1,-22,15,-53,-242,-219,-135,-49,-31
-39,-1,33,19,-40,9,-47,-242,-225,-135,-79,-55
-39,-12,21,25,-34,3,-47,-248,-231,-135,-79,-43
-45,-6,33,25,-40,9,-47,-242,-225,-129,-73,-43
-39,-1,39,13,-40,15,-35,-248,-237,-135,-85,-43
-33,-1,39,7,-34,21,-47,-248,-231,-135,-67,-37
-27,-1,21,13,-28,3,-35,-242,-237,-135,-79,-49
-39,-1,39,13,-40,15,-53,-254,-249,-153,-85,-55
-57,-1,51,25,-58,21,-41,-242,-237,-135,-73,-49
-33,-1,33,13,-34,15,-35,-248,-231,-141,-85,-43
-33,-1,33,13,-34,15,-47,-230,-213,-129,-55,-25
-27,-1,27,7,-28,9,-53,-242,-219,-147,-73,-43
-39,-1,39,13,-40,15,-53,-248,-225,-147,-79,-49
-57,-1,51,25,-58,21,-47,-236,-213,-135,-73,-43
-33,-1,39,7,-34,21,-41,-248,-225,-141,-73,-49
-33,11,51,1,-40,33,-41,-230,-207,-117,-55,-13
-27,17,51,1,-40,33,-41,-242,-201,-123,-67,-31
-33,23,63,1,-46,45,-29,-236,-213,-117,-67,-31
-33,29,69,1,-52,51,-23,-224,-219,-123,-61,-31
-39,35,81,1,-58,57,-6,-212,-189,-105,-61,-19
-15,65,87,-16,-52,75,-6,-218,-207,-111,-49,-13
-27,65,99,-10,-64,81,0,-212,-189,-105,-43,-8
-33,65,105,-10,-70,87,12,-206,-189,-111,-49,-8
-21,71,99,-16,-58,87,18,-206,-177,-105,-37,-13
-15,83,105,-28,-58,93,36,-188,-159,-87,-31,-13
-4,95,93,-46,-40,99,24,-200,-171,-93,-37,-13
-4,77,81,-34,-40,81,24,-194,-159,-87,-37,-8
-4,89,99,-34,-52,93,24,-200,-189,-105,-55,-19
-9,101,117,-40,-64,111,30,-188,-177,-93,-31,-8
-15,113,135,-40,-76,123,48,-182,-159,-81,-25,-2
-4,143,147,-64,-70,147,30,-194,-177,-93,-25,4
-9,149,165,-64,-88,159,18,-200,-147,-81,-8,4
-4,179,183,-82,-88,183,-6,-218,-147,-63,-8,16
-4,191,195,-88,-94,195,-35,-236,-147,-69,-8,10
-4,197,195,-94,-94,201,-65,-248,-147,-57,-2,22
32,221,183,-124,-70,207,-101,-266,-153,-63,-2,28
32,233,195,-130,-76,219,-119,-260,-135,-45,16,58
44,239,195,-142,-70,225,-161,-284,-147,-57,10,46
38,233,189,-136,-70,213,-173,-278,-147,-39,22,58
50,239,183,-142,-58,213,-185,-266,-135,-33,22,64
74,245,171,-160,-40,213,-167,-266,-141,-33,28,76
62,251,189,-160,-58,225,-167,-260,-117,-21,46,88
56,239,177,-148,-52,213,-161,-260,-129,-27,40,64
62,233,165,-148,-46,201,-161,-272,-147,-21,40,76
86,239,147,-160,-22,195,-161,-248,-135,-27,28,76
104,239,129,-172,-5,189,-155,-254,-135,-33,28,70
86,215,123,-148,-10,171,-161,-248,-123,-21,40,64
62,197,129,-130,-28,165,-155,-248,-141,-45,10,40
50,167,111,-106,-22,141,-131,-230,-135,-33,34,52
44,155,105,-100,-22,135,-125,-218,-135,-45,16,40
38,125,81,-82,-16,105,-107,-224,-147,-51,-2,28
-4,95,93,-46,-40,99,-107,-218,-153,-63,-8,22
-27,65,99,-10,-64,81,-83,-218,-171,-75,-19,-8
-45,35,87,1,-64,63,-59,-236,-189,-93,-37,-8
-63,23,93,13,-76,57,-65,-218,-171,-105,-49,-8
-39,5,51,7,-46,27,-59,-230,-183,-111,-43,-25
-51,-1,51,19,-52,21,-65,-242,-201,-123,-67,-43
-63,-1,57,31,-64,21,-59,-242,-201,-129,-79,-49
-63,-6,51,31,-58,15,-71,-248,-219,-129,-85,-61
-63,-18,39,37,-52,3,-59,-248,-219,-153,-85,-55
-51,-24,21,37,-40,3,-53,-260,-225,-135,-67,-49
-51,-24,21,37,-40,3,-71,-248,-213,-135,-73,-37
-51,-12,33,31,-46,3,-71,-248,-213,-129,-73,-43
-57,-18,33,37,-46,3,-53,-230,-201,-111,-61,-25
-45,-6,33,25,-40,9,-65,-218,-183,-117,-61,-25
-21,-1,21,7,-22,9,-65,-224,-177,-105,-49,-25
-21,-1,21,7,-22,9,-53,-206,-171,-99,-49,-25
-27,-6,15,13,-22,3,-53,-194,-177,-93,-55,-8
-27,-1,27,7,-28,9,-35,-164,-147,-75,-31,-8
-27,-1,21,13,-28,3,-47,-164,-141,-75,-31,-8
-4,11,15,1,-5,15,-47,-158,-111,-51,-13,-2
-4,29,27,-10,-10,33,-59,-164,-105,-51,-13,-8
-4,17,15,-4,-5,21,-77,-134,-69,-10,-2,16
14,29,9,-22,-5,21,-47,-110,-33,-4,28,34
38,29,-2,-34,19,9,-59,-80,-39,8,28,34
56,23,-26,-40,43,3,-35,-38,-10,44,46,52
62,23,-32,-40,49,3,-23,-14,2,44,64,46
74,11,-56,-40,67,-14,-29,-9,32,56,52,52
98,11,-80,-52,91,-26,-23,39,74,86,76,70
134,5,-122,-70,127,-50,-29,75,92,110,88,76
146,17,-122,-82,133,-44,-23,111,146,140,124,106
158,17,-134,-88,145,-50,-17,135,170,152,136,94
164,-1,-158,-82,163,-68,-6,171,200,188,148,100
188,-1,-188,-88,187,-86,-6,225,230,212,166,106
212,-24,-236,-88,223,-128,-6,255,248,230,172,118
248,-18,-272,-112,259,-146,0,279,272,236,184,130
272,-36,-314,-112,289,-176,18,339,296,254,196,124
284,-60,-350,-106,313,-206,48,429,356,278,208,136
320,-84,-410,-112,361,-242,78,531,428,320,226,142
356,-108,-470,-118,409,-284,102,645,518,380,244,142
392,-120,-512,-130,451,-314,126,777,662,476,304,172
434,-132,-566,-148,493,-344,126,915,806,572,352,190
482,-156,-638,-160,553,-392,120,1083,998,698,418,232
542,-162,-710,-190,625,-434,144,1287,1208,836,496,268
608,-156,-764,-226,685,-458,168,1497,1406,968,556,292
674,-168,-842,-244,751,-500,216,1713,1616,1106,634,328
728,-162,-890,-274,805,-518,252,1881,1826,1256,706,364
788,-114,-908,-334,847,-506,264,1989,2089,1436,808,424
866,-42,-914,-406,889,-476,282,2078,2377,1640,934,502
920,47,-866,-484,895,-404,300,2144,2682,1862,1066,592
968,125,-836,-544,901,-350,342,2144,2952,2071,1204,682
986,149,-836,-568,913,-338,360,2042,3096,2191,1276,718
968,155,-806,-556,889,-320,294,1815,3054,2185,1288,730
932,179,-746,-550,841,-278,186,1479,2928,2125,1252,724
914,155,-752,-532,835,-290,72,1149,2832,2071,1210,694
890,53,-830,-472,859,-380,66,1029,2712,1964,1132,628
836,-84,-926,-370,877,-500,132,969,2466,1754,964,484
734,-228,-968,-250,847,-590,180,897,2155,1508,796,364
596,-282,-884,-154,733,-578,192,723,1748,1220,634,268
482,-348,-830,-58,655,-584,138,459,1286,914,460,172
350,-432,-782,31,565,-602,144,219,788,554,250,34
158,-492,-656,163,403,-572,228,-9,200,98,-31,-151
-33,-534,-494,283,229,-512,258,-224,-267,-237,-229,-247
-117,-504,-386,307,127,-446,210,-284,-435,-345,-295,-283
-165,-480,-308,319,67,-392,144,-248,-417,-351,-313,-289
-153,-438,-278,289,55,-356,78,-212,-387,-327,-289,-247
-111,-438,-320,271,97,-380,6,-218,-393,-345,-301,-265
-99,-390,-284,241,85,-338,-23,-218,-387,-333,-295,-259
-87,-372,-278,229,91,-326,-23,-200,-369,-303,-265,-241
-99,-312,-212,205,49,-260,-11,-176,-351,-285,-235,-199
-63,-252,-188,157,55,-224,-17,-164,-345,-261,-217,-181
-81,-240,-152,157,25,-194,-11,-140,-333,-249,-187,-169
-99,-198,-92,145,-5,-146,-6,-146,-321,-249,-181,-151
-105,-186,-74,145,-10,-128,0,-128,-315,-231,-163,-127
-105,-162,-50,133,-22,-104,18,-122,-303,-231,-163,-133
-63,-120,-50,91,-5,-86,6,-128,-309,-231,-175,-115
-69,-120,-44,91,-10,-80,-6,-140,-297,-225,-157,-115
-69,-90,-14,79,-22,-50,-6,-164,-303,-237,-163,-121
-75,-96,-14,85,-28,-56,0,-170,-291,-213,-151,-109
-81,-78,3,79,-40,-32,-6,-182,-285,-207,-133,-103
-63,-54,3,55,-34,-20,-6,-182,-291,-207,-139,-91
-93,-72,15,79,-58,-20,6,-170,-303,-207,-127,-91
-111,-54,51,79,-82,3,12,-176,-297,-213,-139,-91
-111,-54,51,79,-82,3,-6,-176,-297,-213,-121,-85
-105,-60,39,79,-76,-2,6,-164,-297,-207,-121,-91
-63,-42,15,49,-40,-8,-6,-188,-303,-213,-139,-85
-87,-54,27,67,-58,-8,-6,-194,-291,-213,-133,-91
-75,-54,15,61,-46,-14,-11,-212,-303,-219,-139,-97
-81,-54,21,67,-52,-8,-6,-218,-285,-207,-139,-91
-81,-48,27,61,-58,-2,-6,-218,-285,-195,-133,-97
-75,-36,33,55,-58,3,-6,-200,-285,-189,-121,-85
-99,-48,45,73,-76,3,-6,-212,-291,-201,-121,-85
-105,-42,57,73,-82,3,-6,-212,-303,-201,-127,-79
-111,-48,57,79,-88,3,0,-200,-297,-195,-133,-85
-105,-42,57,73,-82,3,0,-200,-297,-207,-127,-85
-75,-36,33,55,-58,3,-6,-212,-291,-219,-127,-73
-87,-36,45,61,-70,3,-11,-206,-285,-213,-139,-97
-87,-42,39,61,-64,3,-17,-212,-291,-219,-145,-97
-87,-36,45,61,-70,3,-17,-218,-297,-225,-145,-85
-93,-42,45,67,-70,3,-6,-206,-267,-195,-139,-79
-75,-30,39,49,-58,3,-11,-200,-279,-195,-115,-79
-93,-36,51,61,-76,3,-6,-200,-291,-201,-115,-85
-99,-36,57,67,-82,3,-6,-194,-279,-201,-121,-79
-111,-36,69,73,-94,9,-6,-182,-273,-195,-115,-67
-99,-30,63,61,-82,9,-6,-176,-273,-201,-127,-73
-63,-24,33,43,-52,3,-6,-182,-267,-207,-115,-55
-81,-24,51,49,-70,9,-6,-188,-261,-195,-121,-79
-75,-30,39,49,-58,3,-11,-182,-267,-207,-121,-79
-69,-18,45,43,-58,9,-11,-188,-267,-207,-133,-85
-81,-18,57,49,-70,15,-6,-164,-255,-189,-115,-73
-69,-24,39,43,-58,3,-11,-170,-273,-183,-109,-79
-81,-24,51,49,-70,9,-11,-176,-261,-183,-115,-79
-81,-24,51,49,-70,9,-6,-170,-261,-183,-121,-67
-99,-24,69,61,-88,15,6,-146,-261,-183,-109,-67
-69,-18,45,43,-58,9,0,-152,-261,-195,-127,-85
-57,-1,51,25,-58,21,-6,-152,-261,-201,-121,-61
-75,-12,57,43,-70,15,-6,-134,-249,-189,-121,-73
-87,-6,75,43,-82,27,-11,-140,-249,-195,-127,-85
-75,-6,63,37,-70,21,-6,-140,-243,-189,-115,-67
-87,-6,75,43,-82,27,-6,-116,-231,-177,-121,-79
-69,-1,69,31,-70,33,-6,-122,-237,-171,-115,-73
-69,-6,57,37,-64,21,-6,-122,-243,-189,-115,-67
-81,-1,75,37,-82,33,-6,-110,-243,-195,-139,-79
-75,-6,63,37,-70,21,-6,-98,-231,-177,-115,-67
-75,-1,69,37,-76,27,0,-80,-225,-177,-115,-73
-39,11,57,7,-46,33,-6,-92,-231,-189,-121,-67
-69,-1,69,31,-70,33,-6,-68,-207,-153,-109,-67
-81,-1,75,37,-82,33,-6,-74,-207,-171,-103,-61
-81,-1,81,37,-82,39,-6,-62,-177,-165,-97,-61
-75,5,87,25,-82,45,-6,-38,-177,-141,-97,-61
-63,17,87,13,-76,51,-6,-44,-177,-135,-97,-49
-63,-1,69,25,-64,33,-6,-32,-159,-129,-91,-55
-63,5,75,19,-70,39,-6,-26,-171,-147,-103,-67
-69,-1,75,25,-70,39,-6,-9,-159,-135,-91,-43
-69,5,81,25,-76,45,6,-3,-135,-117,-73,-43
-39,35,81,1,-58,57,-6,-9,-141,-129,-85,-43
-57,23,87,7,-70,57,-6,21,-123,-117,-73,-43
-63,23,93,13,-76,57,0,33,-123,-123,-73,-49
-63,17,87,13,-76,51,0,45,-99,-105,-67,-31
-57,29,93,7,-76,63,-6,63,-93,-99,-67,-43
-45,41,93,1,-70,69,-6,63,-87,-93,-73,-37
-51,41,99,1,-76,69,-6,81,-75,-81,-61,-37
-51,53,111,1,-82,81,-6,87,-75,-99,-79,-49
-63,35,105,7,-82,69,18,129,-39,-69,-43,-19
-51,59,117,1,-82,87,12,135,-33,-69,-49,-37
-27,71,105,-16,-64,87,-6,141,-33,-57,-43,-19
-45,59,111,1,-76,87,0,171,-10,-57,-49,-25
-39,65,111,-4,-76,87,0,177,-10,-51,-43,-25
-45,59,111,1,-76,87,0,201,26,-33,-25,-8
-33,71,111,-10,-70,93,6,231,44,-27,-19,-13
-21,77,105,-22,-64,93,6,237,50,-10,-19,-8
-27,65,99,-10,-64,81,12,255,80,-4,-8,-8
-27,77,111,-16,-70,93,0,255,74,-4,-19,-8
-15,71,93,-22,-52,81,0,285,104,8,-8,4
-4,89,99,-34,-52,93,12,303,104,8,-8,-8
-4,107,105,-52,-46,111,12,309,116,14,-2,-2
-4,95,99,-40,-46,99,12,327,146,26,4,-2
-4,95,99,-40,-46,99,18,339,158,38,-2,4
-9,89,105,-34,-58,99,12,369,194,62,22,28
-4,89,99,-34,-52,93,0,375,206,56,16,22
-4,107,105,-52,-46,111,12,393,212,74,28,28
-4,113,111,-52,-52,117,6,399,218,74,28,16
8,125,111,-64,-46,123,0,399,212,68,10,-2
-4,107,111,-46,-52,111,12,429,236,92,34,28
2,113,105,-58,-46,111,18,435,248,98,34,22
32,125,87,-76,-22,111,6,453,254,110,52,34
26,125,93,-76,-28,111,12,471,272,104,46,28
20,131,105,-76,-34,123,12,477,272,98,34,22
32,131,93,-82,-22,117,0,465,290,110,34,16
26,131,99,-76,-28,117,12,495,326,146,58,40
44,143,93,-94,-16,123,12,495,320,158,58,46
38,131,87,-82,-16,111,18,507,344,170,76,40
26,137,105,-82,-34,123,24,537,332,170,76,40
38,131,87,-82,-16,111,30,561,356,176,82,64
50,131,75,-88,-5,105,42,561,368,182,88,46
62,143,75,-100,-5,111,30,561,368,182,82,58
62,125,57,-94,-5,93,30,567,392,176,76,46
62,131,63,-94,-5,99,30,579,386,176,76,40
56,119,57,-88,-5,93,30,567,404,194,82,52
56,125,63,-88,-5,99,24,567,398,194,88,46
62,131,63,-94,-5,99,42,573,410,212,94,58
56,119,57,-88,-5,93,48,549,410,206,106,70
56,131,69,-94,-5,105,36,543,380,194,88,58
50,119,63,-82,-5,93,42,537,386,200,106,70
50,119,63,-82,-5,93,54,513,374,182,106,58
74,131,51,-100,7,93,36,477,350,176,100,64
62,125,57,-94,-5,93,36,459,332,164,76,46
50,107,51,-76,-5,81,42,435,314,146,64,40
38,101,57,-70,-5,81,36,405,308,146,64,34
44,107,57,-76,-5,87,36,387,278,134,52,34
44,107,57,-76,-5,87,42,357,266,134,70,46
26,89,57,-58,-10,75,30,315,230,110,64,34
8,89,75,-46,-28,87,36,279,212,98,58,34
14,89,69,-52,-22,81,30,255,194,98,58,34
8,89,75,-46,-28,87,36,231,158,80,40,22
20,83,57,-52,-10,75,24,201,140,68,52,28
14,71,51,-40,-10,63,18,165,110,50,28,16
2,65,57,-34,-22,63,18,129,80,32,10,10
-4,59,63,-22,-28,63,12,105,74,26,16,10
-4,53,51,-22,-22,57,24,75,56,14,4,16
-4,59,57,-28,-22,63,18,51,38,2,4,10
-9,47,63,-10,-34,57,12,27,2,-10,-8,4
-15,29,51,1,-34,39,0,-9,-10,-21,-8,-8
-21,23,51,1,-34,39,-6,-9,-21,-21,-2,-8
-27,29,63,1,-46,45,0,-26,-39,-45,-13,-8
-4,35,45,-10,-22,39,-6,-50,-69,-51,-19,-8
-9,35,51,-4,-28,45,-6,-62,-75,-69,-49,-31
-27,17,51,1,-40,33,-6,-86,-111,-81,-61,-37
-45,5,57,13,-52,33,-6,-92,-105,-69,-43,-31
-45,5,57,13,-52,33,-6,-86,-99,-75,-37,-31
-21,23,51,1,-34,39,-6,-116,-105,-87,-43,-25
-45,11,63,7,-52,39,-6,-116,-105,-75,-37,-19
-57,5,69,19,-64,39,-6,-134,-123,-93,-37,-19
-63,-1,63,25,-64,27,-6,-134,-123,-87,-37,-19
-45,-1,45,19,-46,21,-6,-146,-147,-93,-43,-25
-27,-1,33,7,-28,15,-6,-158,-141,-93,-37,-19
-39,-1,33,19,-40,9,-6,-152,-153,-99,-49,-31
-57,-6,45,31,-52,15,-6,-158,-153,-105,-55,-13
-63,-12,45,37,-58,9,-11,-164,-147,-111,-61,-37
-69,-12,51,37,-64,15,-6,-152,-141,-105,-55,-31
-51,-1,45,25,-52,15,-6,-170,-159,-105,-55,-31
-51,-1,45,25,-52,15,-6,-176,-165,-117,-61,-43
-63,-1,63,25,-64,27,-17,-182,-177,-117,-67,-37
-57,-1,51,25,-58,21,-6,-164,-177,-111,-67,-37
-57,-12,39,31,-52,9,0,-170,-165,-99,-61,-25
-45,-6,33,25,-40,9,-6,-170,-165,-111,-61,-25
-51,-12,33,31,-46,3,-6,-176,-171,-111,-61,-43
-57,-12,39,31,-52,9,-23,-182,-171,-123,-73,-49
-69,-24,39,43,-58,3,-17,-188,-165,-123,-73,-55
-63,-24,33,43,-52,3,-6,-176,-171,-117,-73,-43
-57,-12,39,31,-52,9,-6,-176,-177,-117,-61,-31
-57,-12,39,31,-52,9,-6,-176,-183,-123,-67,-55
-63,-12,45,37,-58,9,-11,-188,-189,-129,-67,-49
-69,-18,45,43,-58,9,-6,-170,-183,-129,-67,-43
-63,-12,45,37,-58,9,-6,-176,-171,-117,-73,-49
-51,-6,39,25,-46,9,-17,-176,-177,-123,-73,-37
-45,-12,27,25,-40,3,-11,-182,-189,-135,-85,-61
-63,-24,33,43,-52,3,-17,-182,-183,-129,-79,-55
-75,-30,39,49,-58,3,-6,-170,-165,-129,-73,-55
-63,-18,39,37,-52,3,-6,-176,-177,-129,-79,-61
-57,-18,33,37,-46,3,-6,-176,-183,-117,-73,-49
-69,-24,39,43,-58,3,-6,-188,-183,-129,-79,-55
-69,-18,45,43,-58,9,-6,-194,-195,-129,-79,-37
-63,-18,39,37,-52,3,-6,-170,-189,-129,-91,-49
-63,-18,39,37,-52,3,-6,-182,-171,-123,-73,-49
-57,-18,33,37,-46,3,-11,-188,-177,-129,-67,-43
-63,-6,51,31,-58,15,-17,-188,-189,-135,-79,-55
-63,-12,45,37,-58,9,-29,-188,-201,-129,-79,-49
-69,-30,33,49,-52,3,-11,-176,-189,-123,-79,-43
-57,-24,27,37,-46,3,-6,-176,-189,-123,-61,-43
-57,-18,33,37,-46,3,-11,-182,-195,-117,-61,-43
-63,-24,33,43,-52,3,-6,-182,-195,-129,-73,-49
-63,-12,45,37,-58,9,-17,-200,-207,-129,-67,-61
-63,-1,57,31,-64,21,-11,-188,-201,-129,-73,-49
-69,-6,57,37,-64,21,-6,-182,-207,-129,-73,-55
-63,-24,33,43,-52,3,-6,-188,-189,-129,-73,-43
-57,-12,39,31,-52,9,-11,-188,-195,-135,-79,-49
-63,-12,45,37,-58,9,-29,-194,-213,-141,-73,-55
-81,-12,63,43,-76,21,-17,-200,-207,-129,-79,-61
-63,-6,51,31,-58,15,-6,-194,-207,-129,-73,-37
-45,-6,33,25,-40,9,-6,-188,-207,-129,-73,-31
-63,-6,51,31,-58,15,-6,-188,-195,-141,-73,-43
-57,-18,33,37,-46,3,-11,-206,-201,-141,-79,-43
-63,-12,45,37,-58,9,-11,-188,-201,-141,-67,-37
-57,-1,63,19,-58,33,-11,-200,-201,-123,-61,-43
-51,-1,45,25,-52,15,-17,-194,-189,-123,-55,-25
-57,-12,39,31,-52,9,-17,-200,-201,-117,-73,-31
-57,-6,45,31,-52,15,-11,-200,-207,-141,-79,-49
-75,-18,51,43,-64,9,-23,-206,-201,-129,-79,-37
-69,-18,45,43,-58,9,-11,-194,-189,-135,-73,-43
-51,-1,57,19,-52,27,-17,-212,-213,-135,-85,-43
-63,-6,51,31,-58,15,-23,-194,-201,-123,-73,-37
-69,-1,63,31,-70,27,-17,-206,-213,-135,-67,-43
-69,-1,63,31,-70,27,-23,-200,-201,-123,-67,-37
-57,-6,45,31,-52,15,-6,-194,-201,-129,-67,-31
-51,-1,51,19,-52,21,-17,-206,-201,-123,-49,-25
-57,-6,45,31,-52,15,-23,-206,-195,-117,-55,-31
-57,-1,57,25,-58,27,-35,-218,-225,-147,-79,-55
-75,-6,63,37,-70,21,-29,-212,-201,-123,-67,-31
-75,-1,75,31,-76,33,-6,-212,-195,-135,-67,-37
-57,-1,63,19,-58,33,-17,-218,-195,-129,-61,-31
-63,-1,57,31,-64,21,-17,-212,-195,-117,-49,-25
-63,-1,63,25,-64,27,-29,-218,-207,-135,-67,-43
-75,-6,63,37,-70,21,-23,-200,-201,-117,-49,-31
-63,-6,51,31,-58,15,-11,-200,-183,-117,-55,-25
-63,-1,69,25,-64,33,-11,-212,-201,-123,-55,-25
-63,-6,51,31,-58,15,-23,-212,-201,-123,-67,-37
-69,-1,63,31,-70,27,-29,-218,-225,-147,-85,-55
-81,-12,63,43,-76,21,-35,-218,-207,-117,-73,-43
-57,-6,45,31,-52,15,-23,-212,-201,-129,-61,-37
-57,-1,57,25,-58,27,-23,-224,-207,-117,-67,-19
-69,-1,63,31,-70,27,-23,-212,-201,-129,-61,-31
-63,-1,57,31,-64,21,-23,-224,-207,-135,-61,-37
-81,-6,69,43,-76,27,-17,-206,-195,-111,-49,-19
-69,-6,57,37,-64,21,-17,-212,-195,-129,-55,-37
-57,-1,57,25,-58,27,-35,-218,-207,-123,-61,-31
-63,-6,51,31,-58,15,-35,-218,-201,-111,-61,-25
-63,-1,63,25,-64,27,-41,-236,-225,-141,-73,-49
-75,-12,57,43,-70,15,-29,-230,-207,-129,-67,-37
-63,-1,57,31,-64,21,-29,-218,-201,-129,-61,-31
-45,-1,45,19,-46,21,-35,-236,-219,-117,-61,-25
-57,-1,63,19,-58,33,-41,-218,-207,-123,-67,-43
-63,-1,57,31,-64,21,-35,-236,-213,-123,-61,-31
-69,-12,51,37,-64,15,-35,-218,-195,-123,-55,-25
-57,-1,57,25,-58,27,-35,-224,-207,-129,-67,-43
-45,-1,45,19,-46,21,-41,-230,-219,-123,-67,-31
-63,-12,45,37,-58,9,-41,-230,-207,-135,-67,-43
-57,-1,51,25,-58,21,-41,-236,-231,-135,-73,-49
-69,-1,63,31,-70,27,-35,-230,-213,-123,-67,-49
-63,-1,57,31,-64,21,-29,-230,-201,-123,-61,-37
-39,-1,39,13,-40,15,-41,-248,-219,-135,-67,-25
-63,-12,45,37,-58,9,-35,-242,-201,-129,-61,-31
-57,-6,45,31,-52,15,-35,-236,-213,-135,-67,-25
-69,-6,57,37,-64,21,-35,-230,-213,-129,-61,-37
-69,-1,63,31,-70,27,-23,-230,-213,-129,-67,-43
-51,-1,45,25,-52,15,-41,-230,-207,-123,-55,-37
-51,-18,27,31,-40,3,-29,-236,-207,-129,-73,-31
-57,-12,39,31,-52,9,-35,-236,-225,-135,-73,-37
-69,-18,45,43,-58,9,-35,-248,-207,-123,-73,-37
-63,-12,45,37,-58,9,-29,-230,-213,-135,-79,-31
-51,5,63,13,-58,33,-35,-236,-219,-123,-61,-31
-57,-1,63,19,-58,33,-41,-242,-213,-123,-67,-49
-63,-1,63,25,-64,27,-41,-242,-225,-129,-55,-37
-69,-1,63,31,-70,27,-35,-236,-195,-117,-49,-31
-57,-6,45,31,-52,15,-29,-236,-207,-123,-61,-37
-51,-1,45,25,-52,15,-29,-236,-207,-123,-55,-37
-45,-12,27,25,-40,3,-41,-248,-213,-147,-85,-43
-57,-18,33,37,-46,3,-41,-248,-219,-141,-73,-43
-69,-18,45,43,-58,9,-47,-236,-213,-117,-73,-43
-57,-6,45,31,-52,15,-35,-236,-201,-129,-67,-37
-51,-1,51,19,-52,21,-29,-242,-213,-111,-61,-31
-69,-1,69,31,-70,33,-35,-242,-219,-129,-73,-49
-63,-1,63,25,-64,27,-41,-248,-231,-135,-73,-43
-69,-1,69,31,-70,33,-35,-242,-213,-129,-61,-49
-51,-1,45,25,-52,15,-41,-248,-213,-141,-73,-43
-39,-1,39,13,-40,15,-47,-248,-213,-129,-67,-37
-57,-12,39,31,-52,9,-47,-242,-207,-135,-67,-37
-69,-18,45,43,-58,9,-35,-248,-225,-135,-73,-37
-81,-24,51,49,-70,9,-35,-248,-195,-129,-73,-55
-63,-12,45,37,-58,9,-35,-248,-207,-141,-79,-43
-51,-1,51,19,-52,21,-35,-242,-207,-117,-67,-37
-63,-6,51,31,-58,15,-41,-242,-213,-135,-79,-43
-69,-1,63,31,-70,27,-53,-254,-231,-135,-67,-43
-75,-1,69,37,-76,27,-47,-248,-213,-141,-73,-49
-75,-6,63,37,-70,21,-35,-242,-213,-129,-61,-37
-57,-1,51,25,-58,21,-35,-242,-207,-129,-67,-37
-75,-18,51,43,-64,9,-35,-248,-207,-129,-73,-37
-75,-18,51,43,-64,9,-47,-254,-231,-135,-73,-37
-87,-24,57,55,-76,9,-35,-248,-207,-129,-67,-49
-75,-18,51,43,-64,9,-35,-248,-207,-129,-55,-31
-51,-1,45,25,-52,15,-29,-248,-207,-123,-61,-25
-69,-12,51,37,-64,15,-35,-236,-207,-129,-61,-31
-81,-1,81,37,-82,39,-41,-248,-219,-123,-61,-31
-75,-1,75,31,-76,33,-35,-224,-201,-123,-61,-37
-75,-1,81,31,-76,39,-23,-230,-201,-123,-55,-19
-57,17,81,13,-70,51,-11,-224,-195,-105,-43,-13
-69,17,93,19,-82,57,-6,-218,-183,-111,-49,-19
-57,29,93,7,-76,63,-6,-236,-195,-111,-43,-19
-57,29,93,7,-76,63,0,-218,-165,-111,-43,-19
-57,47,111,1,-82,81,18,-206,-177,-99,-37,-8
-33,65,105,-10,-70,87,24,-194,-171,-87,-37,-8
-33,77,117,-16,-76,99,24,-194,-159,-99,-37,-13
-45,83,135,-10,-88,111,36,-200,-159,-93,-43,-8
-51,77,135,-4,-94,105,48,-182,-141,-87,-37,-8
-45,89,141,-16,-94,117,54,-188,-153,-81,-19,-8
-27,89,123,-22,-76,105,60,-176,-153,-81,-13,-2
-33,83,123,-16,-76,105,60,-188,-159,-93,-19,-8
-33,95,135,-22,-82,117,48,-200,-159,-87,-31,-8
-39,113,159,-28,-100,135,36,-188,-147,-75,-25,-2
-33,137,177,-46,-106,159,30,-194,-135,-63,-8,4
-15,179,201,-76,-106,189,6,-206,-129,-51,-8,22
-9,197,213,-88,-112,207,-23,-230,-135,-57,-8,16
-15,191,213,-82,-112,201,-71,-260,-147,-63,-8,22
-9,197,213,-88,-112,207,-83,-248,-141,-57,4,34
2,209,201,-106,-94,207,-95,-248,-129,-45,10,40
26,227,195,-124,-76,213,-125,-254,-123,-33,22,58
26,215,183,-118,-70,201,-149,-254,-129,-33,22,64
38,215,171,-124,-58,195,-173,-272,-141,-45,10,58
38,233,189,-136,-70,213,-161,-254,-111,-27,40,64
50,239,183,-142,-58,213,-161,-254,-111,-27,34,82
68,251,183,-160,-52,225,-155,-266,-111,-15,40,82
62,239,177,-154,-52,213,-149,-260,-117,-21,46,76
62,239,177,-154,-52,213,-173,-260,-129,-33,40,70
74,227,147,-148,-28,189,-149,-248,-123,-27,40,70
74,215,135,-142,-22,177,-137,-242,-123,-21,34,76
80,203,117,-142,-10,165,-137,-236,-117,-33,46,70
44,167,117,-106,-28,147,-113,-230,-111,-33,28,58
32,131,93,-82,-22,117,-107,-218,-123,-39,10,46
2,107,99,-52,-40,105,-101,-218,-129,-45,-2,16
-4,83,81,-40,-34,87,-107,-218,-135,-69,-8,10
-9,83,99,-28,-52,93,-77,-218,-141,-57,-13,-2
-51,47,105,1,-76,75,-59,-230,-159,-81,-37,-13
-63,17,87,13,-76,51,-71,-242,-183,-99,-43,-19
-69,-1,69,31,-70,33,-41,-230,-183,-93,-43,-19
-63,-1,57,31,-64,21,-53,-236,-189,-117,-55,-31
-51,-1,45,25,-52,15,-53,-236,-183,-117,-55,-25
-69,-18,45,43,-58,9,-41,-242,-195,-129,-67,-43
-81,-24,51,49,-70,9,-53,-260,-219,-147,-85,-31
-75,-30,39,49,-58,3,-65,-260,-213,-141,-91,-55
-69,-30,33,49,-52,3,-65,-248,-207,-135,-79,-43
-63,-12,45,37,-58,9,-59,-242,-195,-111,-61,-31
-69,-18,45,43,-58,9,-59,-230,-189,-111,-67,-49
-69,-6,57,37,-64,21,-59,-224,-183,-117,-61,-25
-63,-6,51,31,-58,15,-53,-218,-183,-105,-43,-37
-39,-1,39,13,-40,15,-47,-218,-171,-99,-49,-25
-21,-1,21,7,-22,9,-47,-194,-141,-87,-31,-13
-27,-1,27,7,-28,9,-35,-182,-135,-69,-25,-8
-21,-1,15,7,-22,3,-47,-176,-129,-63,-25,-8
-27,-1,33,7,-28,15,-35,-152,-105,-45,-13,-8
-9,17,33,1,-22,27,-47,-140,-87,-33,-8,4
2,17,9,-10,-5,15,-41,-116,-57,-10,10,28
20,17,3,-16,7,9,-41,-104,-45,-10,16,22
26,23,3,-22,13,9,-35,-74,-21,-4,16,34
26,23,3,-22,13,9,-17,-38,-4,26,40,28
44,17,-20,-28,31,3,-17,-14,20,38,52,40
80,11,-62,-46,73,-14,-17,9,56,68,76,64
92,-1,-86,-46,91,-32,-11,45,80,92,88,70
122,5,-110,-64,115,-44,-23,69,98,92,76,58
134,5,-122,-70,127,-50,-35,87,128,116,94,64
152,17,-128,-82,139,-44,-23,117,158,146,112,70
176,23,-146,-100,163,-50,-6,171,194,158,142,88
188,-1,-194,-88,187,-92,6,219,224,194,160,100
200,-6,-212,-88,205,-104,12,261,242,218,166,112
212,-42,-254,-76,235,-146,24,309,278,248,202,160
254,-54,-314,-94,283,-182,42,363,320,266,208,142
296,-60,-362,-112,325,-212,60,441,362,278,220,142
314,-90,-410,-106,361,-242,84,525,422,320,232,142
350,-114,-470,-112,409,-284,102,651,500,350,232,118
380,-132,-512,-118,445,-320,114,771,632,434,262,148
422,-144,-566,-136,487,-350,144,915,788,542,316,172
488,-132,-626,-178,553,-374,132,1083,956,662,394,208
548,-150,-704,-196,625,-422,150,1299,1166,812,478,262
614,-150,-764,-232,691,-458,174,1521,1364,926,538,292
662,-186,-848,-238,751,-512,222,1749,1562,1070,622,328
734,-168,-908,-280,817,-530,258,1941,1802,1208,694,358
812,-96,-914,-352,859,-500,270,2042,2053,1400,790,418
878,-42,-926,-412,901,-482,282,2132,2335,1598,898,484
938,47,-884,-490,913,-410,306,2186,2622,1808,1012,556
968,113,-854,-538,913,-362,354,2186,2868,1982,1144,640
1010,155,-854,-580,937,-344,354,2072,2982,2083,1192,670
1010,173,-836,-592,925,-326,288,1845,2934,2095,1210,682
962,173,-782,-562,871,-296,198,1503,2820,2047,1204,694
944,155,-782,-544,865,-308,72,1191,2730,1988,1168,676
890,35,-848,-466,871,-398,78,1059,2598,1880,1084,592
836,-96,-938,-364,883,-512,132,1011,2377,1664,916,460
752,-222,-974,-262,865,-596,168,915,2053,1418,748,334
608,-306,-920,-148,757,-608,174,723,1658,1136,580,232
482,-354,-842,-58,661,-596,120,441,1202,830,400,112
344,-444,-788,43,565,-614,132,183,710,476,190,-8
146,-510,-662,181,403,-584,222,-44,146,32,-85,-187
-9,-510,-494,259,235,-500,258,-278,-321,-273,-253,-271
-123,-510,-386,313,127,-452,210,-332,-447,-363,-295,-295
-183,-480,-290,325,49,-386,144,-266,-405,-345,-313,-283
-183,-462,-272,319,37,-368,78,-224,-381,-309,-265,-241
-141,-420,-272,277,61,-344,24,-212,-375,-303,-259,-235
-105,-372,-260,241,73,-314,-6,-230,-375,-303,-253,-229
-105,-360,-248,235,67,-302,-23,-212,-357,-297,-247,-217
-93,-312,-218,205,55,-260,-35,-224,-369,-309,-259,-235
-87,-276,-188,181,43,-236,-35,-188,-357,-285,-235,-205
-75,-240,-164,157,37,-206,-29,-170,-345,-279,-235,-199
-63,-210,-140,133,31,-176,-6,-164,-327,-255,-205,-163
-87,-192,-98,139,-5,-146,-6,-140,-303,-237,-181,-139
-87,-150,-56,115,-10,-104,18,-140,-297,-243,-169,-139
-99,-144,-38,121,-28,-92,36,-128,-273,-201,-133,-85
-87,-120,-26,103,-28,-74,24,-128,-273,-201,-133,-97
-81,-90,-2,85,-34,-44,18,-146,-267,-195,-121,-85
-75,-96,-14,85,-28,-56,0,-170,-267,-195,-139,-103
-105,-78,21,91,-64,-20,-6,-182,-273,-201,-139,-97
-99,-96,3,97,-52,-44,-6,-182,-267,-195,-133,-97
-99,-96,3,97,-52,-44,6,-176,-267,-189,-115,-85
-75,-60,9,67,-46,-20,0,-182,-297,-207,-127,-85
-75,-84,-2,79,-34,-44,-6,-188,-291,-207,-133,-91
-87,-72,9,79,-52,-26,6,-194,-303,-219,-145,-91
-69,-66,3,67,-34,-26,0,-194,-297,-219,-139,-91
-69,-66,3,67,-34,-26,-6,-200,-285,-207,-133,-97
-57,-42,9,49,-34,-8,-6,-212,-297,-213,-145,-97
-57,-60,3,55,-28,-26,-11,-224,-279,-213,-145,-115
-93,-54,33,73,-64,-2,-11,-224,-291,-219,-145,-115
-87,-72,9,79,-52,-26,-6,-218,-285,-213,-151,-103
-105,-66,33,85,-70,-8,-6,-200,-285,-207,-145,-91
-81,-48,27,61,-58,-2,-6,-200,-291,-207,-133,-85
-75,-60,9,67,-46,-20,-6,-194,-297,-201,-127,-79
-75,-48,21,61,-52,-8,-6,-224,-309,-225,-151,-103
-69,-54,9,61,-40,-14,-6,-218,-297,-213,-139,-91
-57,-42,9,49,-34,-8,-11,-212,-291,-219,-133,-85
-45,-36,3,37,-28,-8,-6,-218,-291,-207,-139,-85
-63,-54,3,55,-34,-20,-6,-224,-279,-213,-127,-97
-87,-48,33,67,-64,-2,-17,-212,-285,-213,-127,-97
-75,-66,3,67,-40,-26,-11,-212,-273,-195,-127,-85
-93,-60,27,73,-64,-8,-6,-200,-273,-201,-121,-79
-69,-48,15,55,-46,-8,-6,-200,-279,-207,-121,-85
-75,-60,9,67,-46,-20,-6,-182,-279,-213,-127,-67
-75,-42,27,55,-52,-2,-11,-200,-297,-231,-139,-91
-63,-54,3,55,-34,-20,-6,-200,-285,-207,-133,-91
-57,-36,15,43,-40,-2,-6,-182,-261,-201,-139,-85
-33,-30,3,31,-16,-8,-6,-188,-267,-201,-139,-91
-57,-42,9,49,-34,-8,-17,-182,-267,-207,-139,-103
-81,-42,33,61,-58,3,-17,-182,-261,-219,-133,-91
-75,-54,15,61,-46,-14,-6,-164,-249,-189,-115,-73
-93,-42,45,67,-70,3,-11,-158,-255,-189,-109,-79
-63,-30,27,43,-46,3,-6,-170,-261,-195,-115,-79
-75,-48,21,61,-52,-8,-6,-158,-261,-189,-121,-73
-75,-48,21,61,-52,-8,-6,-164,-267,-201,-127,-91
-69,-36,27,49,-52,3,-6,-158,-261,-195,-121,-73
-63,-30,27,43,-46,3,-6,-140,-249,-189,-121,-67
-39,-36,3,37,-22,-14,-6,-140,-249,-177,-115,-67
-45,-30,9,37,-28,-2,-6,-140,-243,-189,-127,-79
-57,-18,33,37,-46,3,-11,-146,-243,-201,-127,-91
-63,-36,21,49,-46,-2,-6,-128,-237,-183,-115,-91
-75,-30,39,49,-58,3,-6,-110,-231,-195,-115,-85
-51,-12,33,31,-46,3,-6,-110,-243,-183,-121,-73
-69,-30,33,49,-52,3,-11,-92,-225,-177,-109,-73
-63,-24,33,43,-52,3,-6,-104,-237,-183,-121,-73
-63,-24,33,43,-52,3,-6,-80,-219,-165,-115,-73
-57,-12,39,31,-52,9,-6,-74,-201,-171,-109,-73
-33,-6,21,19,-28,3,-6,-68,-207,-177,-115,-73
-57,-6,45,31,-52,15,-11,-56,-189,-165,-103,-73
-69,-6,57,37,-64,21,-11,-56,-177,-159,-103,-85
-63,-24,33,43,-52,3,-6,-38,-177,-147,-103,-73
-63,-12,45,37,-58,9,-6,-26,-177,-153,-103,-73
-51,-1,57,19,-52,27,-6,-26,-177,-153,-97,-73
-45,-1,51,13,-46,27,-6,-14,-189,-159,-103,-67
-63,-1,63,25,-64,27,-6,-3,-171,-153,-109,-61
-69,-1,75,25,-70,39,-6,9,-159,-153,-97,-67
-51,11,69,13,-58,39,-6,15,-135,-123,-91,-61
-45,17,69,7,-58,45,-6,45,-111,-129,-85,-55
-45,5,57,13,-52,33,-6,51,-105,-111,-73,-49
-51,11,69,13,-58,39,-6,63,-81,-105,-73,-43
-51,5,63,13,-58,33,-6,81,-75,-99,-67,-49
-39,11,57,7,-46,33,-6,93,-69,-93,-61,-31
-33,35,75,1,-52,57,-6,111,-75,-87,-55,-31
-33,23,63,1,-46,45,-6,129,-63,-87,-61,-37
-39,35,81,1,-58,57,-6,141,-57,-87,-67,-37
-45,35,87,1,-64,63,0,165,-27,-69,-49,-31
-21,47,75,-4,-46,63,-6,183,-15,-57,-49,-31
-15,53,75,-10,-46,63,-6,207,-10,-63,-43,-19
-15,35,57,-4,-34,45,-6,213,14,-39,-31,-25
-15,41,63,-4,-40,51,0,231,32,-27,-25,-25
-9,41,57,-10,-34,51,0,243,38,-21,-19,-19
-9,47,63,-10,-34,57,-6,261,62,-10,-25,-19
-4,65,75,-22,-40,69,-6,279,74,-10,-13,-8
-4,65,69,-28,-34,69,-6,285,68,-10,-19,-13
-4,77,87,-28,-46,81,0,315,74,-4,-19,-13
-9,65,81,-22,-46,75,0,339,110,14,-13,-8
-4,83,87,-34,-40,87,6,333,128,20,-8,-8
8,95,81,-52,-28,93,6,363,152,26,-8,-8
8,83,69,-46,-22,81,0,375,164,38,-2,-8
8,77,63,-40,-22,75,0,393,170,50,4,-8
14,89,69,-52,-22,81,6,405,194,68,10,4
26,89,57,-58,-10,75,-6,417,212,80,22,16
32,95,57,-64,-5,81,6,429,218,80,28,22
38,95,51,-64,-5,75,6,435,224,86,28,16
38,107,63,-70,-5,87,-6,447,224,74,16,10
38,101,57,-70,-5,81,6,465,242,92,22,10
50,107,51,-76,-5,81,12,477,254,110,34,22
62,125,57,-94,-5,93,6,495,266,110,46,28
62,119,51,-88,1,87,6,489,284,122,34,22
50,113,57,-82,-5,87,6,507,296,134,52,22
50,107,51,-76,-5,81,18,531,308,146,58,22
68,113,39,-88,7,81,0,537,326,146,58,28
80,125,39,-100,13,87,12,555,332,152,64,34
80,125,39,-100,13,87,0,549,326,158,58,28
74,125,45,-100,7,87,6,561,338,158,58,40
74,113,33,-94,13,75,18,585,362,170,70,40
98,119,15,-106,37,69,12,585,368,164,64,34
98,125,21,-112,31,75,24,591,368,176,70,34
98,101,3,-100,43,51,12,597,398,188,82,34
92,107,9,-100,37,63,18,591,386,188,76,28
98,107,3,-100,43,57,6,567,380,188,88,34
104,107,3,-106,49,57,18,561,374,194,82,40
122,131,3,-124,55,69,30,549,362,182,100,52
110,119,3,-112,49,63,18,543,356,182,82,40
92,119,21,-106,31,75,24,513,332,158,64,34
80,107,21,-94,25,69,24,495,344,164,70,40
80,113,27,-94,19,75,30,483,326,164,64,40
98,119,15,-106,37,69,42,471,314,152,76,40
98,101,3,-100,43,51,12,423,302,140,52,28
86,95,3,-88,37,51,18,393,272,122,52,16
80,89,3,-82,31,51,12,345,248,122,52,16
80,83,3,-82,37,45,12,321,224,104,46,10
80,83,3,-82,37,45,24,297,200,116,58,28
62,83,15,-70,19,51,18,255,176,80,46,16
62,83,15,-70,19,51,30,225,140,50,22,4
44,71,21,-58,7,51,12,195,140,44,22,10
38,59,15,-46,7,39,18,177,110,32,16,10
50,65,9,-58,13,39,24,141,80,26,16,4
38,53,9,-46,7,33,6,111,68,14,-2,-8
20,41,15,-28,-5,33,6,75,38,-10,-8,-19
32,41,3,-34,7,27,0,45,8,-10,-13,-13
20,41,15,-28,-5,33,-6,21,-10,-33,-25,-19
32,47,9,-40,7,33,-6,-9,-27,-33,-19,-8
14,35,15,-22,-5,27,-6,-20,-39,-51,-25,-19
2,23,15,-10,-5,21,-6,-38,-75,-75,-43,-31
-4,17,15,-4,-5,21,-6,-44,-75,-57,-37,-25
2,23,15,-10,-5,21,0,-56,-87,-75,-49,-31
20,29,3,-22,1,21,-6,-68,-93,-75,-31,-25
8,17,3,-10,-5,15,-11,-98,-105,-93,-55,-37
-4,11,9,-4,-5,15,-11,-116,-117,-99,-67,-43
-9,-1,9,1,-10,3,-6,-104,-123,-81,-55,-43
-4,-1,3,1,-5,3,-11,-128,-135,-105,-67,-49
2,11,3,-4,-5,9,-17,-146,-135,-99,-55,-43
-4,-1,3,1,-5,3,-17,-152,-159,-111,-73,-49
-4,-1,9,1,-5,3,-17,-170,-171,-117,-67,-43
-27,-6,15,13,-22,3,-6,-158,-153,-117,-55,-37
-15,-1,15,1,-16,3,-6,-152,-159,-129,-67,-37
-4,-1,3,1,-5,3,-11,-164,-171,-117,-61,-43
-4,-6,3,1,-5,-2,-11,-164,-153,-117,-79,-55
-9,-1,3,1,-10,3,-17,-176,-159,-123,-73,-55
-21,-12,3,13,-16,3,-11,-170,-165,-111,-67,-49
-9,-6,3,7,-5,3,-29,-176,-165,-117,-67,-55
-4,-1,3,1,-5,3,-23,-188,-171,-117,-67,-43
-9,-12,3,7,-5,-2,-17,-188,-183,-141,-85,-67
-9,-12,3,7,-5,-2,-17,-200,-207,-147,-91,-73
-15,-18,3,13,-5,-8,-17,-188,-195,-147,-85,-73
-9,-6,3,7,-5,3,-6,-182,-201,-159,-91,-67
-4,-1,3,1,-5,3,-11,-188,-207,-147,-97,-67
-15,-30,-8,19,-5,-20,-23,-188,-189,-135,-91,-61
-9,-12,3,7,-5,-2,-29,-200,-183,-153,-91,-67
-9,-30,-14,19,-5,-20,-23,-188,-189,-147,-85,-55
-9,-24,-8,13,-5,-14,-23,-194,-183,-141,-91,-67
-4,-1,-2,1,-5,3,-11,-206,-195,-141,-79,-49
-9,-12,3,7,-5,-2,-11,-194,-207,-141,-73,-55
-15,-6,3,7,-10,3,-11,-194,-201,-141,-73,-55
-15,-24,-2,19,-5,-14,-11,-188,-195,-135,-67,-49
-21,-12,3,13,-16,3,-11,-182,-183,-141,-73,-55
-4,-12,-8,1,-5,-8,-6,-176,-189,-129,-73,-49
-9,-36,-20,19,-5,-26,-11,-182,-183,-123,-79,-61
-4,-18,-8,7,-5,-14,-23,-194,-189,-147,-103,-73
-4,-30,-26,13,7,-26,-23,-200,-195,-159,-97,-73
-9,-24,-8,13,-5,-14,-23,-200,-201,-153,-109,-79
-4,-1,-2,1,-5,3,-23,-194,-207,-159,-97,-61
-4,-12,-2,7,-5,-8,-6,-194,-195,-147,-103,-73
-15,-6,3,7,-10,3,-6,-200,-225,-153,-103,-73
-27,-24,3,25,-16,-8,-11,-200,-219,-159,-91,-61
-15,-6,3,7,-10,3,-6,-194,-195,-135,-79,-55
-4,-6,3,1,-5,-2,-11,-188,-207,-135,-73,-49
-15,-24,-2,19,-5,-14,-17,-206,-201,-141,-85,-61
-15,-12,3,13,-10,-2,-23,-200,-201,-141,-91,-55
-4,-18,-8,7,-5,-14,-23,-200,-213,-141,-91,-61
-9,-6,3,7,-5,3,-23,-218,-213,-147,-91,-73
-4,-12,-2,7,-5,-8,-23,-206,-219,-147,-91,-55
-15,-18,3,13,-5,-8,-23,-206,-213,-147,-85,-55
-9,-6,3,7,-5,3,-29,-212,-231,-159,-97,-61
-21,-24,3,19,-10,-8,-17,-200,-207,-135,-79,-55
-9,-6,3,7,-5,3,-17,-200,-201,-141,-79,-55
2,5,3,-4,-5,3,-29,-200,-219,-141,-73,-55
-4,-1,3,1,-5,3,-23,-212,-207,-129,-73,-67
-9,-6,3,7,-5,3,-35,-200,-225,-153,-97,-61
-21,-12,3,13,-16,3,-23,-212,-213,-159,-91,-61
-4,-1,3,1,-5,3,-35,-218,-219,-165,-103,-73
-4,-1,3,1,-5,3,-29,-212,-225,-165,-97,-61
-4,-1,9,1,-5,3,-17,-218,-225,-165,-97,-73
-4,-1,9,1,-5,3,-23,-218,-225,-165,-103,-73
-15,-1,15,1,-16,3,-17,-218,-219,-153,-97,-67
-4,-1,3,1,-5,3,-23,-200,-207,-141,-79,-49
2,5,3,-4,-5,3,-29,-218,-219,-147,-79,-49
-9,-1,9,1,-10,3,-6,-218,-201,-141,-73,-49
-4,-1,3,1,-5,3,-23,-206,-225,-141,-85,-49
-21,-1,15,7,-22,3,-11,-206,-207,-129,-67,-43
-4,-1,3,1,-5,3,-17,-224,-213,-141,-73,-49
2,-1,-2,1,1,3,-29,-218,-219,-135,-67,-37
-4,-1,3,1,-5,3,-23,-218,-213,-135,-79,-49
-4,-1,3,1,-5,3,-35,-224,-225,-159,-91,-55
-21,-1,21,7,-22,9,-17,-218,-219,-141,-79,-55
-4,-1,3,1,-5,3,-17,-218,-219,-147,-79,-55
14,11,3,-10,7,3,-23,-236,-237,-147,-85,-55
2,-1,3,1,1,3,-35,-236,-213,-141,-85,-61
-4,5,3,1,-5,9,-35,-230,-231,-153,-97,-49
-15,-1,9,7,-16,3,-41,-224,-207,-147,-79,-55
-4,5,9,1,-5,9,-35,-224,-231,-159,-97,-61
2,11,3,-4,-5,9,-29,-230,-225,-147,-79,-43
-4,5,9,1,-5,9,-23,-230,-225,-147,-79,-55
-4,11,21,1,-10,15,-29,-236,-237,-159,-79,-55
-15,-1,21,1,-16,9,-23,-218,-207,-141,-61,-43
-9,-1,15,1,-10,9,-29,-218,-213,-141,-67,-49
2,11,3,-4,-5,9,-29,-236,-207,-129,-67,-37
8,-1,-2,-4,7,3,-47,-236,-207,-141,-91,-73
8,-1,-8,1,7,3,-47,-242,-225,-147,-97,-67
-4,-1,3,1,-5,3,-35,-236,-213,-135,-73,-67
-4,5,9,1,-5,9,-35,-236,-231,-147,-85,-61
2,11,3,-4,-5,9,-41,-236,-225,-147,-79,-49
-4,-1,3,1,-5,3,-47,-236,-225,-153,-85,-49
-4,5,9,1,-5,9,-41,-248,-237,-159,-91,-43
-15,-1,21,1,-16,9,-23,-224,-219,-135,-61,-31
-4,17,21,-4,-10,21,-35,-242,-231,-153,-73,-49
8,17,3,-10,-5,15,-35,-242,-219,-147,-73,-37
-4,5,3,1,-5,9,-41,-236,-201,-141,-67,-55
8,-1,-2,-4,7,3,-59,-248,-225,-159,-91,-49
-4,-1,3,1,-5,3,-41,-230,-207,-135,-73,-37
-4,-1,3,1,-5,3,-47,-242,-225,-159,-85,-55
-4,5,3,1,-5,9,-41,-242,-225,-129,-67,-43
-4,5,3,1,-5,9,-41,-230,-231,-141,-73,-55
-4,11,9,-4,-5,15,-47,-248,-243,-159,-85,-61
-15,-1,21,1,-16,9,-35,-230,-219,-135,-61,-43
-4,5,9,1,-5,9,-41,-242,-219,-147,-73,-43
2,17,9,-10,-5,15,-35,-248,-213,-135,-61,-37
-4,5,3,1,-5,9,-35,-248,-213,-135,-79,-49
8,-1,-2,-4,7,3,-65,-248,-219,-147,-85,-49
-4,-1,3,1,-5,3,-47,-236,-213,-123,-61,-43
2,5,3,-4,-5,3,-41,-248,-225,-141,-85,-49
8,-1,-2,-4,7,3,-47,-248,-219,-123,-73,-49
-4,11,9,-4,-5,15,-41,-248,-225,-147,-85,-49
-4,11,9,-4,-5,15,-47,-260,-237,-153,-91,-55
-4,-1,3,1,-5,3,-29,-248,-219,-141,-79,-49
-4,-1,3,1,-5,3,-35,-248,-225,-147,-91,-61
-4,11,9,-4,-5,15,-41,-248,-225,-147,-73,-43
-4,-1,3,1,-5,3,-47,-248,-225,-147,-79,-55
-4,-1,3,1,-5,3,-59,-266,-243,-153,-97,-61
-9,-1,9,1,-10,3,-47,-248,-219,-141,-85,-55
-4,-1,3,1,-5,3,-47,-254,-225,-147,-91,-61
-4,5,3,1,-5,9,-41,-254,-219,-129,-61,-43
-4,5,15,1,-10,9,-53,-248,-237,-153,-85,-55
-9,-1,9,1,-10,3,-47,-260,-243,-153,-79,-49
-9,-1,3,1,-10,3,-41,-248,-225,-147,-79,-49
-4,-1,3,1,-5,3,-41,-248,-237,-153,-85,-55
-4,5,15,1,-10,9,-47,-254,-231,-147,-73,-49
-4,-1,3,1,-5,3,-59,-254,-231,-153,-85,-61
-4,5,9,1,-5,9,-53,-266,-231,-159,-91,-55
-9,-1,9,1,-10,3,-47,-260,-219,-153,-73,-55
-9,-1,3,1,-10,3,-47,-248,-219,-147,-85,-49
-4,11,15,1,-5,15,-53,-248,-231,-135,-85,-49
-9,-1,15,1,-10,9,-41,-242,-219,-129,-79,-43
-15,-1,15,1,-16,3,-53,-242,-237,-147,-85,-49
-21,-1,15,7,-22,3,-41,-224,-225,-141,-79,-43
-9,-1,15,1,-10,9,-35,-224,-213,-135,-85,-37
-4,5,3,1,-5,9,-41,-242,-219,-135,-79,-43
-4,-1,3,1,-5,3,-47,-230,-213,-135,-79,-43
-4,-1,3,1,-5,3,-59,-236,-219,-141,-85,-49
-21,-1,27,1,-22,15,-47,-230,-213,-129,-79,-49
-9,11,27,1,-16,21,-47,-242,-225,-141,-79,-49
-4,11,21,1,-10,15,-53,-242,-225,-135,-73,-49
-15,5,27,1,-22,15,-53,-230,-225,-135,-85,-43
-21,5,33,1,-28,21,-47,-242,-237,-141,-85,-49
-27,-1,27,7,-28,9,-35,-236,-219,-135,-79,-49
-9,-1,15,1,-10,9,-35,-236,-219,-135,-79,-43
-4,5,15,1,-10,9,-35,-236,-225,-141,-85,-37
-9,-1,3,1,-10,3,-35,-230,-207,-135,-67,-49
-4,-1,9,1,-5,3,-53,-236,-231,-147,-85,-55
-27,-1,27,7,-28,9,-29,-230,-207,-135,-67,-37
-27,5,39,1,-34,21,-35,-230,-207,-135,-61,-37
-15,5,27,1,-22,15,-53,-242,-213,-123,-61,-37
-21,5,33,1,-28,21,-41,-236,-219,-129,-61,-31
-33,11,51,1,-40,33,-41,-248,-225,-135,-67,-37
-33,11,51,1,-40,33,-29,-230,-207,-135,-67,-25
-27,17,51,1,-40,33,-23,-224,-207,-123,-61,-25
-4,35,39,-10,-16,39,-23,-230,-207,-129,-55,-25
-4,41,51,-10,-28,45,-11,-218,-183,-123,-61,-19
-4,47,51,-16,-22,51,-17,-218,-201,-111,-55,-19
-15,47,69,-10,-40,57,-6,-212,-177,-99,-37,-8
-4,65,69,-28,-34,69,6,-194,-171,-99,-43,-13
2,77,69,-40,-28,75,12,-200,-177,-93,-49,-13
-4,89,87,-40,-40,93,24,-182,-165,-99,-55,-13
-4,89,99,-34,-52,93,36,-182,-171,-105,-37,-13
-9,101,117,-40,-64,111,36,-182,-171,-111,-43,-8
2,113,105,-58,-46,111,30,-188,-177,-105,-49,-19
14,107,87,-58,-28,99,36,-182,-165,-93,-43,-8
8,113,99,-58,-40,111,48,-176,-159,-87,-37,-13
8,125,111,-64,-46,123,36,-188,-171,-93,-37,-8
-4,143,147,-64,-70,147,42,-188,-153,-69,-25,4
-4,155,153,-76,-70,159,24,-194,-153,-75,-13,4
20,185,159,-100,-64,177,0,-200,-141,-63,-8,16
26,209,177,-118,-70,195,-6,-200,-129,-51,4,34
20,203,177,-112,-70,195,-47,-242,-153,-69,-8,34
14,221,201,-118,-88,213,-47,-242,-147,-57,4,34
26,251,225,-142,-94,243,-71,-248,-135,-45,10,46
56,269,213,-166,-70,243,-101,-248,-117,-27,22,70
68,239,171,-154,-46,213,-131,-248,-117,-21,34,82
68,251,183,-160,-52,225,-167,-266,-141,-39,28,58
62,239,177,-154,-52,213,-161,-248,-111,-27,46,76
68,269,201,-172,-58,243,-143,-248,-123,-27,46,70
86,275,189,-184,-46,237,-155,-248,-129,-39,28,70
92,275,183,-184,-40,237,-161,-266,-135,-45,16,64
92,275,183,-184,-40,237,-155,-272,-147,-45,16,58
86,239,153,-166,-28,201,-137,-236,-111,-10,34,76
92,239,141,-166,-16,195,-137,-236,-105,-10,46,76
86,233,141,-160,-22,189,-143,-248,-123,-21,40,88
80,185,99,-130,-5,147,-137,-236,-111,-21,40,70
62,155,87,-106,-5,123,-119,-224,-129,-33,34,58
38,107,63,-70,-5,87,-119,-206,-123,-39,16,46
26,95,63,-58,-10,81,-101,-218,-129,-39,4,22
-4,89,87,-40,-40,93,-95,-218,-141,-63,-8,16
-15,65,87,-16,-52,75,-83,-224,-171,-87,-37,-8
-27,53,87,-4,-58,69,-89,-248,-207,-117,-49,-25
-51,23,81,7,-64,51,-53,-224,-189,-111,-55,-13
-51,11,69,13,-58,39,-53,-230,-195,-111,-55,-19
-45,11,63,7,-52,39,-47,-230,-189,-123,-67,-31
-39,-6,27,19,-34,3,-65,-242,-195,-135,-73,-37
-57,-6,45,31,-52,15,-77,-266,-225,-147,-91,-61
-63,-24,33,43,-52,3,-65,-248,-219,-135,-85,-49
-39,-6,27,19,-34,3,-71,-254,-213,-141,-73,-55
-39,-1,39,13,-40,15,-59,-236,-207,-129,-61,-25
-27,-6,15,13,-22,3,-59,-224,-189,-123,-61,-31
-33,5,45,7,-40,27,-71,-236,-195,-129,-73,-37
-39,-1,39,13,-40,15,-53,-200,-183,-111,-67,-25
-21,11,39,1,-28,27,-53,-194,-159,-93,-43,-31
-9,17,33,1,-22,27,-53,-188,-147,-93,-49,-19
-4,11,15,1,-5,15,-59,-182,-129,-69,-37,-8
-4,17,21,-4,-10,21,-59,-176,-123,-57,-19,-8
-9,11,27,1,-16,21,-41,-140,-93,-27,-8,16
14,29,9,-22,-5,21,-53,-134,-75,-21,4,4
26,41,9,-34,1,27,-59,-116,-57,-15,10,22
38,47,3,-40,13,27,-59,-86,-33,2,22,40
56,41,-8,-46,31,15,-65,-92,-15,8,34,40
50,23,-20,-34,37,3,-41,-38,2,32,58,52
80,35,-38,-58,61,3,-35,-9,38,56,70,70
104,35,-62,-70,85,-2,-35,3,68,80,88,70
122,29,-86,-76,103,-20,-41,45,98,116,106,82
134,23,-104,-76,121,-32,-65,51,116,128,106,82
140,5,-128,-70,133,-50,-47,105,152,158,130,100
164,29,-128,-94,145,-38,-53,129,182,176,136,100
200,11,-182,-106,193,-74,-35,165,212,188,148,118
212,-1,-206,-106,211,-92,-11,225,230,212,172,130
236,-6,-248,-112,241,-128,-11,243,260,218,178,130
242,-30,-278,-100,259,-152,-11,285,290,254,202,148
290,-42,-338,-118,313,-188,-11,333,326,284,220,160
326,-60,-392,-130,355,-224,0,411,386,314,232,160
356,-102,-464,-124,409,-278,18,495,446,350,238,148
380,-114,-494,-130,439,-302,36,615,536,398,250,154
428,-144,-572,-136,493,-356,54,723,656,476,298,178
458,-138,-596,-154,523,-362,66,849,806,578,352,190
530,-138,-674,-196,601,-404,66,987,968,686,424,232
590,-150,-740,-220,667,-446,66,1185,1166,836,502,274
632,-162,-794,-232,715,-476,78,1407,1376,974,574,310
698,-192,-890,-244,787,-536,114,1605,1580,1106,646,352
758,-180,-944,-286,847,-554,162,1803,1814,1250,712,382
836,-120,-962,-352,895,-536,180,1947,2089,1454,814,442
914,-66,-980,-418,949,-518,180,2042,2377,1664,940,496
968,5,-956,-484,961,-470,186,2114,2694,1904,1084,592
998,89,-908,-544,955,-404,204,2132,2988,2125,1222,688
1040,149,-890,-592,967,-362,234,2060,3156,2263,1306,736
1034,167,-866,-598,955,-344,240,1893,3162,2299,1354,778
992,191,-800,-592,901,-296,192,1593,3018,2227,1342,772
950,191,-752,-568,853,-272,84,1251,2916,2173,1306,766
908,101,-800,-502,853,-344,66,1071,2814,2083,1228,706
860,-36,-902,-406,877,-470,126,1005,2586,1880,1066,562
770,-174,-950,-292,859,-554,192,939,2263,1634,892,436
632,-258,-896,-184,757,-572,210,759,1850,1304,682,304
506,-318,-830,-88,667,-572,144,489,1406,998,508,196
374,-390,-764,1,565,-572,144,243,890,632,304,64
170,-462,-632,139,397,-542,246,45,290,152,-8,-127
-4,-486,-482,241,235,-482,330,-176,-237,-213,-235,-247
-123,-486,-356,301,109,-422,318,-248,-429,-357,-313,-283
-183,-468,-278,319,43,-374,246,-224,-435,-375,-343,-301
-189,-468,-272,325,37,-368,156,-200,-417,-357,-307,-265
-147,-432,-278,283,61,-356,96,-200,-423,-351,-301,-259
-123,-408,-278,259,73,-344,36,-218,-411,-339,-289,-247
-105,-372,-260,241,73,-314,-6,-212,-411,-339,-295,-253
-105,-336,-230,223,55,-278,-11,-200,-399,-333,-283,-253
-105,-300,-194,205,37,-242,-23,-176,-375,-297,-247,-223
-87,-264,-176,175,37,-224,-23,-152,-357,-279,-229,-199
-63,-234,-164,145,43,-200,-11,-146,-339,-255,-199,-157
-63,-192,-122,127,19,-158,-6,-134,-339,-249,-193,-145
-81,-168,-80,121,-5,-122,-6,-128,-333,-249,-193,-139
-93,-138,-38,115,-22,-86,6,-122,-309,-237,-175,-115
-75,-102,-20,85,-22,-62,18,-122,-309,-231,-175,-127
-69,-84,-8,73,-28,-44,12,-122,-303,-219,-145,-103
-69,-84,-8,73,-28,-44,6,-146,-285,-231,-157,-109
-81,-84,3,79,-40,-38,6,-164,-291,-231,-163,-109
-93,-84,3,85,-52,-32,-6,-170,-297,-219,-151,-103
-81,-78,3,79,-40,-32,-6,-176,-309,-237,-163,-121
-63,-72,-2,67,-28,-38,-6,-164,-309,-225,-145,-109
-75,-72,3,73,-40,-32,-6,-164,-297,-213,-139,-91
-93,-72,15,79,-58,-20,0,-164,-297,-213,-145,-85
-105,-66,33,85,-70,-8,-6,-170,-297,-213,-133,-73
-93,-36,51,61,-76,3,12,-176,-291,-207,-145,-85
-81,-36,39,55,-64,3,-6,-182,-291,-207,-139,-85
-87,-48,33,67,-64,-2,-6,-200,-291,-225,-145,-91
-99,-48,45,73,-76,3,-11,-206,-297,-225,-133,-91
-93,-72,15,79,-58,-20,-11,-200,-285,-231,-139,-91
-105,-60,39,79,-76,-2,-6,-200,-297,-219,-127,-79
-87,-48,33,67,-64,-2,0,-200,-309,-219,-127,-79
-93,-54,33,73,-64,-2,-6,-188,-309,-213,-133,-79
-93,-42,45,67,-70,3,-6,-194,-333,-225,-139,-79
-93,-48,39,67,-70,3,-6,-200,-321,-237,-145,-91
-81,-36,39,55,-64,3,-6,-200,-297,-213,-145,-79
-81,-42,33,61,-58,3,-6,-200,-285,-219,-133,-79
-81,-54,21,67,-52,-8,-11,-206,-285,-219,-151,-91
-93,-54,33,73,-64,-2,-6,-206,-279,-213,-145,-97
-99,-54,39,73,-70,-2,-6,-188,-279,-207,-145,-97
-99,-42,51,67,-76,3,-6,-194,-285,-219,-145,-91
-81,-42,33,61,-58,3,-11,-188,-297,-225,-133,-85
-81,-42,33,61,-58,3,-11,-182,-303,-231,-139,-91
-93,-24,63,55,-82,15,-17,-194,-309,-219,-139,-91
-99,-36,57,67,-82,3,-6,-176,-291,-219,-139,-85
-93,-30,57,61,-76,9,-6,-176,-285,-213,-139,-85
-75,-24,45,49,-64,3,-6,-176,-273,-213,-139,-91
-81,-36,39,55,-64,3,-6,-176,-273,-219,-139,-91
-87,-36,45,61,-70,3,-23,-182,-273,-213,-139,-103
-93,-36,51,61,-76,3,-11,-164,-261,-201,-133,-85
-87,-42,39,61,-64,3,-6,-164,-267,-207,-139,-73
-75,-36,33,55,-58,3,-6,-158,-279,-195,-127,-67
-81,-36,39,55,-64,3,-6,-140,-273,-213,-133,-73
-81,-30,45,55,-64,3,-6,-152,-285,-213,-139,-67
-93,-36,51,61,-76,3,-6,-140,-279,-213,-121,-73
-81,-24,51,49,-70,9,-6,-146,-267,-207,-127,-73
-69,-12,51,37,-64,15,-11,-140,-255,-195,-121,-67
-75,-30,39,49,-58,3,-11,-140,-249,-189,-127,-79
-75,-12,57,43,-70,15,-23,-140,-255,-189,-133,-91
-87,-24,57,55,-76,9,-6,-116,-243,-183,-115,-67
-75,-12,57,43,-70,15,-6,-122,-237,-189,-121,-73
-63,-6,51,31,-58,15,-6,-122,-237,-189,-121,-73
-81,-6,69,43,-76,27,-11,-104,-237,-177,-115,-55
-69,-12,51,37,-64,15,-17,-110,-237,-189,-127,-67
-81,-12,63,43,-76,21,-6,-92,-243,-195,-133,-67
-69,-1,63,31,-70,27,-17,-86,-231,-189,-133,-85
-57,-1,57,25,-58,27,-23,-74,-225,-177,-121,-79
-63,-1,57,31,-64,21,-17,-68,-207,-177,-115,-73
-63,-1,57,31,-64,21,-29,-68,-195,-171,-115,-85
-75,-1,69,37,-76,27,-11,-50,-189,-165,-109,-67
-69,5,81,25,-76,45,-11,-50,-183,-165,-121,-73
-63,-1,69,25,-64,33,-11,-38,-183,-159,-121,-67
-69,-1,69,31,-70,33,-11,-20,-183,-159,-115,-61
-51,-1,51,19,-52,21,-23,-26,-171,-153,-103,-67
-75,-6,63,37,-70,21,-11,-9,-153,-141,-97,-49
-57,-1,63,19,-58,33,-17,-3,-141,-129,-91,-67
-33,11,51,1,-40,33,-17,9,-141,-129,-85,-55
-45,-1,51,13,-46,27,-23,15,-111,-117,-91,-49
-63,5,75,19,-70,39,-23,33,-99,-105,-79,-37
-51,17,75,7,-64,45,-17,51,-93,-111,-79,-61
-51,17,75,7,-64,45,-17,57,-81,-93,-67,-49
-39,23,69,1,-52,45,-11,69,-81,-99,-73,-37
-39,35,81,1,-58,57,-35,81,-87,-87,-73,-49
-57,41,105,1,-82,75,-29,105,-69,-93,-73,-31
-51,35,93,1,-70,63,-6,129,-51,-75,-67,-37
-39,35,81,1,-58,57,-17,147,-21,-57,-43,-25
-21,53,81,-10,-52,69,-23,165,-10,-51,-31,-19
-21,29,57,1,-40,45,-29,159,14,-39,-43,-19
-33,23,63,1,-46,45,-23,183,38,-15,-25,-8
-15,47,69,-10,-40,57,-29,201,44,-10,-25,-13
-9,53,69,-16,-40,63,-41,207,50,-15,-25,-8
-4,71,75,-28,-34,75,-29,219,56,-10,-31,-8
-4,77,81,-34,-40,81,-29,231,56,-10,-25,-8
-4,77,87,-28,-46,81,-29,249,80,-10,-19,-8
-4,77,87,-28,-46,81,-23,255,98,-10,-19,-8
-4,77,81,-34,-40,81,-17,285,128,32,-8,-2
8,95,81,-52,-28,93,-17,303,146,38,-2,4
8,77,63,-40,-22,75,-29,303,170,38,-8,-2
-4,71,75,-28,-34,75,-23,315,170,56,-8,10
-4,95,93,-46,-40,99,-35,327,194,50,-8,-2
2,95,87,-46,-34,93,-29,339,206,68,4,4
14,101,81,-58,-28,93,-17,351,218,74,4,10
20,101,75,-58,-22,93,-29,357,224,74,10,-2
14,101,81,-58,-28,93,-29,369,230,80,10,10
20,119,93,-70,-28,111,-35,381,242,86,10,4
20,107,81,-64,-22,99,-17,405,278,122,52,22
38,113,69,-76,-10,93,-17,411,284,128,52,28
32,107,69,-70,-10,93,-29,417,302,134,58,22
26,95,63,-58,-10,81,-11,435,314,164,76,34
32,101,63,-64,-10,87,-17,441,338,158,64,22
44,107,57,-76,-5,87,-29,447,344,164,64,34
56,125,63,-88,-5,99,-29,453,344,164,58,40
56,125,63,-88,-5,99,-17,477,362,176,70,34
50,119,63,-82,-5,93,-17,483,362,170,70,40
44,113,63,-76,-5,93,-17,489,374,164,70,40
56,107,45,-82,1,81,-6,513,398,206,88,52
80,125,39,-100,13,87,-6,513,398,206,100,58
68,119,45,-94,7,87,-11,501,398,200,88,40
56,101,39,-76,1,75,-6,507,410,206,100,58
56,107,45,-82,1,81,-6,519,428,206,88,70
62,107,39,-82,7,75,-11,501,410,200,88,46
74,101,21,-88,19,63,-6,495,404,194,100,58
56,107,45,-82,1,81,-6,477,392,200,88,46
56,101,39,-76,1,75,-6,471,380,188,82,46
62,113,45,-88,1,81,-6,447,368,182,76,40
62,95,27,-76,13,63,-6,441,368,188,94,58
62,101,33,-82,7,69,12,423,350,182,94,64
56,95,33,-76,7,69,-6,381,326,164,76,34
56,95,33,-76,7,69,-6,351,314,152,76,34
44,83,33,-64,1,63,-6,333,278,146,64,34
38,83,39,-58,-5,63,-6,291,242,128,58,28
32,83,45,-58,-5,69,-6,267,224,110,52,34
26,71,39,-46,-5,57,-6,237,182,86,40,34
20,71,45,-46,-5,63,6,231,182,80,28,28
-4,59,57,-28,-22,63,6,201,158,62,22,16
2,53,45,-28,-16,51,6,171,146,56,28,16
14,59,39,-34,-5,51,0,147,116,44,16,10
-4,47,51,-16,-22,51,-6,99,68,14,-2,-8
-4,41,39,-16,-16,45,-17,63,44,-10,-8,-25
-9,35,51,-4,-28,45,-11,33,14,-10,-25,-25
-15,29,51,1,-34,39,-6,9,-10,-27,-19,-25
-4,35,45,-10,-22,39,-6,-9,-21,-33,-13,-19
-9,17,33,1,-22,27,-6,-14,-45,-51,-31,-19
-33,17,57,1,-46,39,-6,-20,-45,-51,-31,-13
-45,11,63,7,-52,39,-6,-26,-63,-63,-25,-13
-45,11,63,7,-52,39,-6,-50,-63,-45,-19,-8
-21,5,33,1,-28,21,-6,-56,-57,-45,-19,-8
-27,-1,33,7,-28,15,-11,-98,-87,-69,-37,-31
-27,-1,27,7,-28,9,-23,-110,-87,-69,-31,-25
-39,-12,21,25,-34,3,-11,-104,-111,-75,-37,-31
-33,-1,27,13,-34,9,-29,-134,-135,-99,-43,-37
-33,-1,39,7,-34,21,-17,-134,-135,-87,-43,-31
-51,-6,39,25,-46,9,-11,-134,-141,-117,-67,-43
-57,-6,45,31,-52,15,-23,-146,-165,-117,-79,-43
-69,-12,51,37,-64,15,-11,-146,-171,-129,-85,-49
-57,-6,45,31,-52,15,-6,-140,-159,-123,-79,-37
-33,-12,15,19,-28,3,-6,-146,-159,-117,-73,-37
-51,-30,15,37,-34,-2,-11,-170,-171,-129,-79,-49
-57,-36,15,43,-40,-2,-23,-164,-165,-117,-67,-49
-63,-36,21,49,-46,-2,-6,-152,-165,-111,-61,-49
-57,-36,15,43,-40,-2,-6,-170,-177,-117,-67,-43
-51,-30,15,37,-34,-2,-6,-176,-189,-129,-79,-49
-51,-36,9,43,-34,-8,-6,-182,-195,-153,-79,-61
-63,-30,27,43,-46,3,-17,-170,-195,-141,-85,-61
-81,-24,51,49,-70,9,-11,-176,-201,-159,-97,-61
-63,-18,39,37,-52,3,-11,-170,-195,-147,-97,-55
-39,-18,15,25,-28,3,-11,-158,-183,-147,-85,-55
-57,-18,33,37,-46,3,-6,-188,-195,-147,-91,-55
-51,-30,15,37,-34,-2,-23,-182,-195,-141,-97,-67
-63,-42,15,49,-40,-8,-11,-176,-201,-135,-91,-61
-51,-30,15,37,-34,-2,-23,-188,-207,-135,-79,-67
-51,-24,21,37,-40,3,-6,-170,-189,-135,-73,-37
-51,-24,21,37,-40,3,-17,-182,-201,-147,-85,-55
-51,-24,21,37,-40,3,-29,-188,-207,-159,-97,-61
-75,-36,33,55,-58,3,-6,-182,-213,-159,-91,-49
-69,-30,33,49,-52,3,-6,-182,-201,-153,-91,-61
-57,-30,21,43,-40,3,-6,-164,-201,-147,-85,-55
-51,-30,15,37,-34,-2,-11,-188,-195,-141,-91,-61
-57,-30,21,43,-40,3,-23,-194,-201,-153,-103,-67
-63,-42,15,49,-40,-8,-29,-200,-201,-147,-97,-73
-63,-42,15,49,-40,-8,-23,-188,-213,-159,-91,-61
-45,-24,15,31,-34,3,-23,-194,-225,-153,-91,-49
-57,-24,27,37,-46,3,-17,-188,-231,-165,-91,-67
-69,-36,27,49,-52,3,-11,-188,-231,-159,-97,-61
-75,-30,39,49,-58,3,-11,-188,-219,-153,-85,-67
-75,-18,51,43,-64,9,-6,-164,-201,-147,-85,-55
-51,-24,21,37,-40,3,-11,-182,-207,-147,-79,-55
-63,-36,21,49,-46,-2,-17,-188,-195,-147,-85,-67
-63,-36,21,49,-46,-2,-23,-188,-213,-153,-103,-67
-63,-36,21,49,-46,-2,-23,-194,-225,-153,-97,-67
-45,-30,9,37,-28,-2,-17,-194,-231,-159,-97,-67
-45,-12,27,25,-40,3,-17,-200,-231,-159,-85,-55
-63,-18,39,37,-52,3,-17,-194,-225,-165,-85,-61
-69,-24,39,43,-58,3,-6,-182,-237,-165,-97,-55
-75,-24,45,49,-64,3,-17,-188,-231,-159,-91,-67
-75,-18,51,43,-64,9,-6,-176,-213,-153,-97,-55
-57,-18,33,37,-46,3,-6,-182,-201,-135,-73,-43
-63,-24,33,43,-52,3,-17,-194,-201,-135,-85,-67
-69,-30,33,49,-52,3,-29,-206,-225,-165,-103,-67
-69,-30,33,49,-52,3,-23,-200,-219,-147,-103,-73
-57,-24,27,37,-46,3,-29,-194,-237,-165,-109,-79
-51,-12,33,31,-46,3,-29,-200,-237,-165,-97,-55
-57,-12,39,31,-52,9,-17,-200,-237,-177,-97,-61
-51,-18,27,31,-40,3,-23,-200,-243,-165,-97,-49
-69,-24,39,43,-58,3,-11,-194,-225,-147,-91,-55
-63,-18,39,37,-52,3,-11,-188,-219,-153,-85,-49
-45,-12,27,25,-40,3,-11,-188,-219,-141,-73,-43
-51,-24,21,37,-40,3,-17,-206,-213,-141,-103,-61
-63,-24,33,43,-52,3,-29,-218,-225,-171,-109,-73
-63,-18,39,37,-52,3,-23,-212,-213,-153,-91,-55
-63,-12,45,37,-58,9,-17,-200,-219,-141,-79,-49
-51,-12,33,31,-46,3,-17,-206,-219,-135,-79,-43
-57,-12,39,31,-52,9,-17,-206,-231,-141,-67,-55
-63,-18,39,37,-52,3,-17,-200,-237,-147,-61,-43
-63,-12,45,37,-58,9,-23,-194,-231,-141,-73,-43
-57,-12,39,31,-52,9,-11,-200,-237,-165,-85,-49
-51,-6,39,25,-46,9,-6,-182,-213,-141,-61,-25
-45,-1,39,19,-46,15,-23,-200,-213,-147,-79,-49
-51,-12,33,31,-46,3,-17,-206,-213,-147,-79,-37
-63,-12,45,37,-58,9,-11,-194,-213,-129,-79,-31
-63,-12,45,37,-58,9,-11,-200,-213,-129,-79,-37
-45,-12,27,25,-40,3,-17,-200,-201,-123,-55,-37
-45,-6,33,25,-40,9,-23,-200,-213,-129,-67,-49
-45,-12,27,25,-40,3,-11,-200,-231,-147,-79,-49
-63,-18,39,37,-52,3,-6,-200,-225,-141,-79,-37
-63,-6,51,31,-58,15,-6,-194,-219,-153,-73,-31
-51,-1,45,25,-52,15,-11,-194,-219,-147,-67,-37
-57,-12,39,31,-52,9,-17,-206,-219,-153,-85,-49
-57,-1,51,25,-58,21,-35,-200,-219,-141,-85,-43
-69,-1,63,31,-70,27,-29,-212,-219,-141,-97,-49
-75,-1,69,37,-76,27,-35,-206,-219,-141,-85,-49
-51,-1,57,19,-52,27,-17,-212,-225,-147,-79,-43
-45,-1,51,13,-46,27,-11,-206,-237,-147,-67,-49
-51,-1,57,19,-52,27,-11,-206,-243,-141,-73,-43
-75,-1,69,37,-76,27,-6,-200,-225,-135,-67,-37
-57,-1,57,25,-58,27,-6,-188,-225,-141,-67,-31
-51,-6,39,25,-46,9,-17,-194,-213,-141,-73,-43
-45,-1,39,19,-46,15,-29,-212,-207,-159,-85,-55
-57,-1,57,25,-58,27,-29,-218,-207,-153,-85,-49
-69,-6,57,37,-64,21,-17,-212,-201,-135,-73,-25
-57,-6,45,31,-52,15,-23,-206,-207,-129,-67,-37
-51,-1,51,19,-52,21,-17,-218,-219,-135,-67,-37
-51,-1,51,19,-52,21,-17,-212,-225,-129,-67,-37
-63,-1,57,31,-64,21,-23,-206,-243,-141,-67,-37
-87,-1,81,43,-88,33,-6,-206,-225,-141,-79,-43
-57,-1,57,25,-58,27,-6,-206,-219,-147,-67,-37
-45,-1,45,19,-46,21,-6,-200,-201,-129,-67,-31
-51,-1,45,25,-52,15,-23,-212,-213,-141,-67,-37
-75,-1,69,37,-76,27,-17,-218,-213,-135,-61,-31
-75,-1,69,37,-76,27,-6,-212,-201,-123,-67,-37
-57,-1,57,25,-58,27,-29,-218,-213,-123,-67,-31
-51,-1,57,19,-52,27,-23,-218,-207,-123,-55,-25
-57,-1,57,25,-58,27,-23,-218,-237,-141,-73,-49
-63,-1,63,25,-64,27,-23,-224,-243,-141,-79,-37
-75,-1,69,37,-76,27,-6,-212,-225,-141,-73,-31
-51,-1,57,19,-52,27,-6,-212,-225,-141,-67,-31
-39,5,51,7,-46,27,-11,-206,-207,-123,-49,-13
-57,-1,51,25,-58,21,-23,-212,-201,-129,-61,-25
-75,-18,51,43,-64,9,-11,-212,-195,-117,-43,-25
-63,-6,51,31,-58,15,-29,-218,-195,-123,-61,-37
-69,-6,57,37,-64,21,-23,-224,-213,-123,-67,-31
-57,-1,57,25,-58,27,-17,-230,-219,-135,-67,-37
-63,-1,57,31,-64,21,-11,-224,-225,-129,-73,-49
-69,-1,63,31,-70,27,-23,-230,-225,-135,-79,-37
-81,-1,87,31,-82,45,-17,-224,-225,-135,-73,-31
-57,-1,57,25,-58,27,-6,-212,-231,-153,-79,-49
-57,-1,63,19,-58,33,-6,-206,-225,-141,-79,-43
-57,-1,63,19,-58,33,-17,-218,-225,-147,-79,-49
-63,-1,57,31,-64,21,-11,-212,-213,-147,-79,-49
-81,-1,75,37,-82,33,-11,-218,-225,-159,-91,-61
-69,-1,75,25,-70,39,-17,-224,-225,-159,-91,-55
-57,-1,63,19,-58,33,-23,-230,-219,-153,-85,-43
-63,-1,63,25,-64,27,-17,-224,-219,-141,-79,-43
-75,-6,63,37,-70,21,-17,-230,-225,-135,-73,-37
-87,-1,81,43,-88,33,-17,-224,-219,-135,-73,-43
-69,-6,57,37,-64,21,-6,-224,-213,-123,-61,-31
-63,-1,57,31,-64,21,-6,-206,-213,-123,-61,-25
-69,-1,63,31,-70,27,-17,-218,-213,-123,-61,-13
-69,-1,63,31,-70,27,-29,-236,-219,-135,-61,-31
-81,-6,69,43,-76,27,-29,-248,-219,-135,-67,-31
-69,-6,57,37,-64,21,-11,-236,-219,-141,-73,-43
-63,-1,57,31,-64,21,-23,-236,-219,-129,-67,-49
-81,-1,81,37,-82,39,-17,-230,-225,-135,-73,-49
-81,-6,69,43,-76,27,-6,-230,-237,-147,-79,-61
-99,-6,87,49,-94,33,-6,-218,-225,-135,-67,-49
-75,-1,69,37,-76,27,-6,-212,-207,-141,-55,-31
-57,-1,51,25,-58,21,-6,-206,-201,-123,-55,-25
-69,-1,63,31,-70,27,-23,-230,-213,-135,-73,-31
-75,-6,63,37,-70,21,-23,-224,-213,-135,-73,-31
-93,-12,75,49,-88,27,-17,-230,-207,-129,-61,-19
-81,-1,81,37,-82,39,-11,-242,-219,-141,-79,-31
-75,5,87,25,-82,45,-17,-236,-219,-135,-67,-43
-87,5,99,31,-94,51,-6,-230,-225,-147,-73,-43
-75,5,87,25,-82,45,-6,-224,-225,-141,-79,-43
-93,5,105,37,-100,57,-6,-206,-207,-117,-67,-31
-75,17,99,19,-88,57,0,-206,-201,-117,-49,-37
-51,35,93,1,-70,63,6,-194,-177,-105,-37,-25
-57,35,99,1,-76,69,12,-194,-171,-93,-37,-8
-57,41,105,1,-82,75,6,-188,-171,-99,-43,-8
-75,41,123,7,-100,81,30,-188,-165,-93,-37,-8
-63,59,129,1,-94,93,42,-188,-165,-105,-43,-13
-51,77,135,-4,-94,105,48,-176,-171,-99,-43,-8
-69,71,147,1,-106,111,60,-176,-177,-99,-49,-13
-63,83,153,-4,-106,117,54,-170,-183,-123,-49,-31
-75,77,159,1,-118,117,60,-164,-177,-105,-49,-13
-57,89,153,-10,-106,123,66,-164,-159,-99,-31,-8
-39,101,147,-22,-94,123,60,-158,-153,-87,-19,-2
-45,95,147,-16,-94,123,60,-164,-147,-81,-13,4
-45,101,153,-22,-100,129,48,-176,-147,-81,-13,4
-63,113,183,-16,-124,147,60,-176,-129,-51,4,40
-45,155,207,-46,-124,183,36,-176,-135,-57,-2,28
-33,191,231,-70,-130,213,12,-182,-129,-51,4,46
-21,191,219,-76,-118,207,-6,-218,-147,-57,-8,34
-21,209,237,-88,-130,225,-41,-230,-153,-75,-8,22
-27,233,261,-94,-148,243,-53,-236,-141,-51,4,58
-4,269,273,-130,-136,273,-89,-248,-129,-45,22,58
-4,275,273,-136,-136,279,-107,-236,-111,-21,40,76
2,257,249,-130,-118,255,-131,-260,-129,-33,22,70
8,257,243,-136,-112,255,-131,-248,-123,-33,40,70
2,251,243,-130,-118,249,-131,-242,-105,-15,52,88
8,263,249,-136,-118,261,-137,-242,-117,-27,40,70
14,251,237,-136,-106,243,-131,-248,-129,-21,40,88
26,239,213,-136,-88,231,-125,-248,-129,-27,40,94
26,227,195,-124,-76,213,-125,-242,-129,-39,34,76
8,203,189,-106,-82,201,-125,-230,-123,-21,34,76
8,209,195,-106,-88,207,-113,-236,-129,-21,34,76
8,191,177,-100,-76,189,-95,-218,-117,-21,46,58
-4,155,153,-76,-70,159,-101,-218,-117,-27,28,52
-9,131,147,-52,-76,141,-89,-224,-135,-63,-8,16
-33,83,123,-16,-76,105,-65,-206,-129,-63,-2,22
-57,89,153,-10,-106,123,-65,-206,-147,-69,-8,-2
-87,65,159,1,-124,111,-35,-200,-153,-81,-25,4
-111,35,153,31,-130,93,-23,-194,-171,-87,-19,4
-129,17,153,49,-142,87,-23,-218,-195,-117,-61,-25
-141,-6,129,73,-136,57,-6,-194,-177,-111,-49,-8
-123,-1,117,61,-124,51,-6,-206,-171,-93,-43,-13
-111,-18,87,61,-100,27,-6,-206,-177,-111,-55,-13
-117,-36,75,73,-100,15,-23,-230,-195,-111,-43,-25
-111,-24,81,67,-100,21,-35,-248,-213,-135,-79,-37
-105,-24,75,61,-94,21,-35,-224,-189,-117,-61,-25
-87,-1,81,43,-88,33,-35,-224,-189,-123,-55,-37
-99,-1,99,43,-100,45,-29,-212,-189,-117,-55,-31
-99,-1,93,49,-100,39,-17,-200,-171,-105,-49,-25
-117,-6,105,61,-112,45,-17,-182,-165,-105,-43,-31
-111,-6,99,55,-106,39,-11,-158,-153,-81,-37,-13
-99,-1,99,43,-100,45,-11,-158,-123,-63,-25,-8
-75,-6,63,37,-70,21,-6,-140,-111,-51,-13,4
-69,-1,69,31,-70,33,-11,-146,-93,-39,-8,4
-63,-1,69,25,-64,33,-23,-140,-93,-45,-8,4
-63,-1,69,25,-64,33,-11,-110,-69,-10,16,40
-39,23,69,1,-52,45,-23,-104,-51,-10,16,34
-15,23,45,1,-28,33,-23,-80,-39,-4,28,40
-9,17,33,1,-22,27,-23,-56,-10,20,52,52
-9,11,27,1,-16,21,-6,-20,2,26,58,52
-9,17,33,1,-22,27,-11,-3,32,74,88,82
14,17,3,-16,1,9,-17,9,68,92,94,82
38,11,-20,-22,31,3,-6,45,110,122,118,100
50,5,-38,-28,43,-8,-23,63,164,158,148,118
86,5,-74,-46,79,-26,-41,81,176,158,142,118
92,-1,-92,-40,91,-38,-35,129,206,200,172,142
104,-6,-116,-40,109,-56,-35,165,224,206,178,130
128,-12,-146,-52,133,-74,-11,207,248,224,190,136
152,-30,-188,-52,169,-104,-6,243,284,254,214,148
170,-54,-230,-52,199,-140,-6,267,284,254,214,154
182,-84,-266,-40,223,-176,12,321,338,296,238,172
218,-114,-332,-46,271,-224,30,393,404,332,238,166
254,-138,-398,-52,325,-260,72,489,464,368,262,178
278,-168,-452,-52,361,-302,90,609,572,440,298,196
320,-180,-500,-64,409,-338,96,711,686,494,322,202
350,-204,-554,-70,451,-374,102,825,818,596,394,220
410,-228,-638,-88,517,-428,102,963,992,716,442,238
464,-234,-698,-112,577,-464,114,1131,1196,842,520,292
524,-240,-764,-142,643,-494,126,1323,1400,986,598,322
578,-252,-836,-160,709,-542,156,1521,1586,1118,658,346
620,-246,-872,-184,739,-554,210,1737,1838,1292,760,400
698,-198,-896,-244,793,-542,222,1905,2131,1496,868,454
764,-126,-896,-316,829,-506,234,2001,2424,1724,1012,550
848,-42,-896,-400,871,-470,216,2066,2736,1952,1132,610
878,41,-830,-460,853,-386,234,2084,3042,2185,1276,730
896,95,-794,-490,847,-344,264,2025,3228,2353,1396,790
878,119,-752,-496,817,-308,300,1887,3270,2401,1426,808
848,131,-716,-484,781,-284,276,1641,3156,2353,1426,832
812,149,-662,-484,733,-248,180,1317,3018,2275,1390,820
764,107,-656,-436,715,-266,144,1101,2904,2185,1318,790
722,-30,-752,-340,733,-392,186,1011,2682,1994,1174,646
644,-168,-812,-238,727,-482,258,969,2383,1742,976,484
518,-276,-800,-118,661,-536,306,843,1964,1430,790,382
422,-318,-740,-46,577,-524,246,585,1514,1106,592,238
296,-384,-686,37,487,-530,216,339,1010,752,388,130
110,-480,-590,181,349,-530,300,141,398,254,76,-73
-75,-510,-434,289,175,-476,390,-56,-153,-147,-187,-217
-189,-510,-320,349,61,-416,414,-152,-375,-315,-247,-241
-249,-498,-242,373,-5,-374,390,-122,-393,-345,-301,-271
-261,-486,-224,373,-16,-356,282,-104,-387,-351,-301,-247
-231,-474,-236,349,-5,-356,198,-122,-393,-345,-283,-247
-201,-444,-236,319,13,-338,120,-128,-387,-327,-283,-241
-171,-414,-236,289,25,-326,72,-140,-381,-315,-265,-223
-153,-372,-218,259,25,-290,30,-146,-375,-309,-271,-241
-159,-336,-176,241,1,-254,12,-140,-357,-285,-235,-205
-153,-300,-146,229,-5,-224,12,-110,-357,-279,-211,-199
-147,-252,-104,199,-16,-182,24,-92,-333,-261,-211,-163
-141,-216,-68,175,-34,-140,42,-80,-327,-243,-175,-133
-147,-192,-38,169,-52,-116,54,-80,-321,-249,-181,-133
-177,-174,3,175,-88,-80,66,-68,-291,-225,-151,-97
-159,-156,3,157,-82,-74,72,-68,-279,-219,-151,-109
-153,-120,27,133,-94,-38,72,-68,-279,-207,-139,-97
-135,-84,45,109,-94,-14,54,-80,-279,-207,-133,-79
-117,-84,27,97,-76,-20,42,-116,-279,-219,-151,-115
-135,-84,45,109,-94,-14,30,-128,-273,-207,-133,-97
-153,-84,63,115,-112,-2,24,-134,-285,-201,-139,-103
-141,-78,57,109,-100,-2,24,-140,-279,-195,-133,-91
-141,-60,75,97,-112,3,48,-128,-273,-183,-103,-55
-141,-84,51,109,-100,-8,48,-134,-273,-189,-109,-67
-165,-72,87,115,-130,3,60,-122,-273,-183,-97,-43
-165,-66,93,115,-130,9,42,-128,-267,-195,-115,-61
-147,-60,81,103,-118,3,42,-140,-267,-195,-121,-67
-135,-48,81,91,-112,9,42,-134,-267,-183,-109,-61
-129,-42,81,85,-106,15,30,-164,-285,-213,-139,-91
-147,-48,93,97,-124,15,24,-176,-291,-213,-145,-91
-159,-66,87,109,-124,3,24,-182,-291,-207,-145,-103
-153,-54,93,103,-124,15,24,-188,-291,-213,-133,-97
-141,-36,99,85,-124,27,18,-176,-285,-195,-115,-73
-147,-54,87,97,-118,9,30,-164,-273,-189,-115,-73
-165,-54,105,109,-136,21,36,-152,-267,-177,-103,-49
-165,-54,105,109,-136,21,36,-152,-261,-177,-103,-55
-153,-42,105,97,-130,27,36,-158,-255,-189,-109,-49
-141,-36,99,85,-124,27,30,-158,-261,-183,-103,-43
-159,-48,105,103,-136,21,30,-164,-255,-177,-91,-61
-153,-30,117,91,-136,39,18,-176,-249,-183,-97,-55
-171,-54,111,109,-142,21,24,-152,-249,-171,-85,-43
-159,-60,93,109,-130,9,18,-152,-261,-183,-97,-49
-129,-36,87,79,-112,21,12,-152,-261,-183,-97,-49
-147,-36,105,91,-130,27,18,-140,-267,-183,-103,-49
-123,-24,93,73,-112,27,18,-164,-279,-225,-151,-79
-141,-24,111,79,-130,39,24,-152,-267,-213,-133,-79
-141,-18,117,79,-130,45,24,-158,-255,-201,-121,-73
-129,-24,99,73,-118,33,30,-152,-237,-189,-121,-67
-147,-30,111,85,-130,33,18,-140,-237,-171,-97,-67
-153,-18,129,85,-142,51,12,-146,-243,-177,-109,-67
-165,-36,123,97,-148,39,24,-134,-231,-165,-97,-49
-153,-24,123,85,-142,45,6,-140,-249,-171,-103,-67
-123,-12,105,67,-118,39,18,-128,-249,-177,-103,-49
-141,-24,111,79,-130,39,24,-116,-243,-177,-91,-49
-135,-12,117,73,-130,45,12,-134,-243,-195,-121,-55
-153,-30,117,91,-136,39,36,-116,-225,-171,-109,-55
-141,-18,117,79,-130,45,24,-110,-225,-177,-115,-61
-123,-12,105,67,-118,39,24,-104,-213,-165,-103,-49
-141,-12,123,73,-136,51,18,-104,-213,-159,-91,-43
-147,-18,123,79,-136,45,12,-98,-201,-159,-91,-37
-165,-24,135,91,-154,51,18,-92,-189,-153,-79,-43
-153,-12,135,79,-148,57,18,-86,-201,-153,-79,-31
-123,-6,111,61,-118,45,24,-74,-195,-153,-85,-25
-141,-12,123,73,-136,51,24,-74,-207,-153,-85,-43
-135,-6,123,67,-130,51,6,-80,-213,-171,-115,-49
-153,-12,135,79,-148,57,24,-56,-195,-147,-91,-49
-129,-1,123,61,-130,57,24,-56,-183,-147,-97,-37
-123,-1,129,55,-124,63,24,-44,-177,-141,-85,-31
-135,-1,141,61,-136,69,12,-38,-177,-135,-85,-43
-135,-1,135,61,-136,63,6,-32,-165,-123,-67,-25
-147,-1,141,73,-148,63,18,-14,-141,-105,-61,-25
-141,5,153,61,-148,81,6,-14,-147,-117,-61,-31
-99,11,117,37,-106,63,6,-3,-135,-105,-55,-13
-135,-1,141,61,-136,69,6,-3,-135,-105,-61,-25
-117,5,129,49,-124,69,0,-9,-147,-129,-85,-37
-129,-1,135,55,-130,69,24,21,-117,-111,-67,-37
-117,17,141,43,-130,81,18,21,-105,-105,-79,-37
-105,23,135,31,-118,81,18,33,-93,-93,-55,-19
-123,17,147,43,-136,81,12,45,-69,-75,-49,-25
-111,23,141,37,-124,81,0,57,-69,-75,-43,-13
-129,29,165,43,-148,99,6,81,-45,-63,-37,-13
-117,35,159,31,-136,99,0,87,-51,-63,-31,-13
-105,35,147,25,-124,93,0,105,-27,-51,-25,-8
-111,35,153,31,-130,93,-6,117,-10,-39,-25,-8
-87,41,135,13,-112,87,-6,117,-10,-69,-43,-8
-111,35,153,31,-130,93,12,141,-4,-51,-31,-13
-99,47,153,19,-124,99,0,159,14,-33,-31,-8
-81,65,153,1,-118,111,6,177,20,-21,-19,-8
-87,47,141,13,-112,93,12,189,56,-10,-13,-8
-87,59,153,7,-118,105,-6,183,56,-10,-8,-8
-87,59,153,7,-118,105,-6,195,68,-4,-13,-8
-75,77,159,1,-118,117,0,201,74,-10,-13,-13
-63,89,159,-4,-112,123,6,231,98,20,-8,10
-81,77,165,1,-124,123,24,261,116,32,4,16
-81,77,165,1,-124,123,6,273,122,20,4,10
-87,53,147,7,-118,99,24,297,152,62,22,28
-75,71,153,1,-112,111,18,303,188,56,22,34
-51,89,147,-10,-100,117,0,303,194,80,28,28
-63,71,141,1,-100,105,6,309,212,92,22,22
-63,83,153,-4,-106,117,-11,303,212,74,22,10
-57,89,153,-10,-106,123,-6,321,230,92,22,16
-39,107,153,-28,-94,129,6,327,236,80,28,22
-21,119,147,-40,-82,135,-6,351,236,104,34,40
-51,101,159,-16,-106,129,18,387,248,110,34,40
-45,107,159,-22,-100,135,6,381,260,104,40,40
-51,107,165,-22,-106,135,12,393,290,140,52,52
-51,101,159,-16,-106,129,12,423,320,146,70,52
-39,107,153,-28,-94,129,12,423,338,164,76,58
-21,107,135,-34,-76,123,6,417,344,164,64,46
-15,101,123,-34,-70,111,0,435,344,164,76,58
-33,101,141,-28,-88,123,6,447,362,188,88,64
-21,107,135,-34,-76,123,12,453,368,182,82,58
-4,119,123,-52,-58,123,12,465,374,188,76,64
-15,119,141,-46,-76,129,18,477,374,194,88,64
-27,125,159,-40,-94,141,18,483,386,200,94,70
-33,101,141,-28,-88,123,24,501,410,218,100,70
-21,107,135,-34,-76,123,24,507,422,212,112,70
-4,119,129,-52,-64,123,24,507,440,224,118,82
-9,101,117,-40,-64,111,24,501,440,230,118,88
-4,101,99,-46,-46,105,12,483,422,218,106,76
-4,101,105,-46,-52,105,18,483,428,212,112,76
-4,101,105,-46,-52,105,24,477,410,212,118,76
2,101,93,-52,-40,99,30,477,410,218,118,82
8,113,99,-58,-40,111,18,453,386,200,100,70
-4,101,105,-46,-52,105,24,435,380,200,94,64
-15,83,105,-28,-58,93,42,435,392,206,100,70
-4,95,105,-40,-52,99,36,417,350,194,100,64
-4,95,105,-40,-52,99,48,393,344,188,94,70
-15,95,117,-34,-64,105,30,345,320,164,88,52
-15,83,105,-28,-58,93,24,315,290,158,76,52
-21,71,99,-16,-58,87,30,291,272,140,76,52
-21,83,111,-22,-64,99,24,255,230,110,58,46
-4,71,81,-28,-40,75,24,249,224,110,64,46
-21,77,105,-22,-64,93,24,207,170,92,40,34
-39,65,111,-4,-76,87,24,189,140,74,34,16
-63,47,117,1,-88,81,36,177,140,62,34,28
-57,59,123,1,-88,93,24,141,98,50,4,22
-57,47,111,1,-82,81,36,117,104,56,34,40
-57,47,111,1,-82,81,12,63,68,38,22,22
-63,47,117,1,-88,81,6,51,50,20,10,16
-63,35,105,7,-82,69,6,33,14,2,10,16
-69,29,105,13,-88,69,12,-3,-4,-4,-2,10
-75,41,123,7,-100,81,12,3,-10,-10,-2,10
-87,29,123,19,-106,75,18,-9,-33,-10,-8,10
-93,23,123,25,-106,75,24,-26,-39,-21,-8,10
-99,-1,99,43,-100,45,24,-26,-57,-21,-8,16
-87,-1,93,37,-88,45,12,-44,-63,-27,-13,-2
-87,17,111,25,-100,63,12,-68,-69,-39,-8,-8
-87,-1,93,37,-88,45,-6,-92,-87,-57,-19,-8
-93,-1,99,37,-94,51,-6,-104,-99,-75,-37,-13
-105,-1,111,43,-106,57,6,-98,-117,-69,-37,-19
-117,-1,123,49,-118,63,-6,-122,-129,-87,-49,-13
-99,-1,99,43,-100,45,-6,-116,-135,-93,-43,-13
-99,-1,99,43,-100,45,-6,-128,-153,-99,-49,-19
-117,-1,111,55,-118,51,0,-128,-141,-99,-49,-13
-123,-30,87,73,-106,21,0,-128,-147,-99,-43,-13
-123,-6,111,61,-118,45,0,-128,-147,-87,-37,-13
-105,-1,105,49,-106,51,0,-140,-147,-93,-43,-19
-123,-12,105,67,-118,39,6,-158,-153,-99,-49,-25
-117,-24,87,67,-106,27,0,-158,-159,-111,-61,-37
-129,-30,93,79,-112,27,0,-152,-171,-111,-55,-31
-129,-24,99,73,-118,33,-6,-152,-153,-105,-61,-19
-117,-24,87,67,-106,27,-6,-152,-165,-105,-55,-19
-117,-30,81,73,-100,21,-6,-152,-171,-117,-67,-25
-123,-24,93,73,-112,27,-6,-146,-177,-117,-67,-25
-135,-30,99,79,-118,27,-6,-152,-171,-117,-61,-19
-129,-12,111,67,-124,45,-6,-164,-183,-129,-61,-37
-123,-18,99,67,-112,33,6,-164,-183,-123,-67,-37
-135,-30,99,79,-118,27,-6,-152,-177,-111,-55,-25
-129,-30,93,79,-112,27,-6,-164,-183,-123,-73,-37
-141,-42,93,91,-118,21,0,-158,-177,-117,-61,-37
-129,-30,93,79,-112,27,-6,-170,-171,-117,-67,-31
-117,-24,87,67,-106,27,-6,-164,-177,-111,-61,-25
-117,-30,81,73,-100,21,-6,-164,-195,-117,-61,-25
-129,-30,93,79,-112,27,-6,-170,-201,-135,-79,-31
-147,-30,111,85,-130,33,-6,-158,-189,-129,-73,-37
-129,-12,111,67,-124,45,-6,-152,-183,-117,-61,-31
-123,-12,105,67,-118,39,12,-146,-177,-111,-49,-25
-129,-18,105,73,-118,39,0,-152,-177,-105,-43,-25
-129,-36,87,79,-112,21,-6,-158,-171,-117,-55,-25
-147,-48,93,97,-124,15,0,-164,-171,-117,-55,-37
-129,-36,87,79,-112,21,-6,-164,-177,-117,-67,-25
-123,-30,87,73,-106,21,0,-158,-183,-117,-61,-25
-129,-30,93,79,-112,27,-6,-164,-189,-135,-67,-37
-135,-30,99,79,-118,27,-6,-164,-207,-135,-79,-37
-153,-30,117,91,-136,39,-6,-170,-195,-135,-73,-43
-147,-24,117,85,-136,39,-6,-158,-195,-117,-55,-25
-129,-24,99,73,-118,33,-6,-152,-177,-105,-49,-19
-141,-36,99,85,-124,27,-11,-164,-183,-111,-55,-19
-129,-30,93,79,-112,27,-6,-170,-195,-135,-61,-19
-129,-36,87,79,-112,21,-11,-176,-195,-129,-55,-31
-123,-30,87,73,-106,21,-6,-164,-201,-135,-73,-37
-123,-12,105,67,-118,39,-6,-176,-207,-117,-55,-25
-135,-12,117,73,-130,45,-6,-176,-213,-129,-73,-37
-135,-12,117,73,-130,45,-6,-182,-207,-141,-73,-37
-159,-24,129,91,-148,45,-6,-170,-195,-117,-67,-31
-147,-12,129,79,-142,51,-6,-164,-201,-135,-73,-37
-117,-12,99,61,-112,39,-11,-164,-195,-129,-67,-37
-129,-18,105,73,-118,39,-11,-176,-195,-123,-73,-31
-129,-24,99,73,-118,33,-17,-182,-201,-135,-61,-37
-135,-30,99,79,-118,27,-6,-176,-201,-129,-67,-43
-123,-18,99,67,-112,33,-6,-176,-207,-135,-73,-31
-135,-6,123,67,-130,51,-6,-176,-207,-123,-55,-25
-135,-18,111,73,-124,39,-6,-176,-195,-123,-61,-31
-135,-24,105,79,-124,33,-6,-170,-201,-129,-61,-25
-159,-42,111,97,-136,27,-6,-158,-183,-111,-55,-13
-141,-30,105,85,-124,33,0,-158,-183,-111,-55,-19
-117,-18,93,67,-106,33,-11,-164,-189,-111,-43,-13
-129,-30,93,79,-112,27,-11,-176,-189,-117,-55,-19
-123,-24,93,73,-112,27,-11,-194,-201,-135,-55,-31
-129,-30,93,79,-112,27,-11,-176,-195,-117,-55,-25
-135,-24,105,79,-124,33,-6,-182,-201,-129,-67,-25
-129,-12,111,67,-124,45,-6,-170,-195,-123,-55,-19
-129,-6,117,67,-124,51,-6,-164,-201,-117,-55,-19
-135,-12,117,73,-130,45,-17,-188,-219,-135,-67,-25
-159,-24,129,91,-148,45,-11,-164,-201,-117,-61,-19
-135,-6,123,67,-130,51,-6,-170,-201,-123,-67,-25
-111,-12,93,61,-106,33,-23,-176,-207,-117,-49,-8
-117,-18,93,67,-106,33,-11,-176,-201,-117,-61,-19
-117,-6,105,61,-112,45,-29,-194,-213,-129,-55,-31
-129,-24,99,73,-118,33,-11,-176,-201,-117,-55,-19
-129,-18,105,73,-118,39,-11,-182,-201,-123,-55,-25
-123,-6,111,61,-118,45,-17,-182,-201,-105,-49,-13
-117,-6,105,61,-112,45,-23,-182,-213,-117,-55,-19
-129,-12,111,67,-124,45,-23,-188,-219,-129,-55,-19
-147,-30,111,85,-130,33,-17,-182,-201,-111,-55,-19
-129,-18,105,73,-118,39,-11,-188,-207,-123,-73,-19
-117,-18,93,67,-106,33,-6,-176,-201,-105,-43,-8
-111,-18,87,61,-100,27,-17,-182,-207,-117,-61,-19
-111,-18,87,61,-100,27,-35,-200,-201,-123,-55,-19
-129,-36,87,79,-112,21,-17,-188,-189,-105,-49,-19
-105,-12,87,55,-100,33,-29,-194,-207,-123,-49,-25
-105,-6,93,55,-100,39,-23,-194,-201,-117,-49,-13
-111,-6,99,55,-106,39,-29,-188,-213,-123,-49,-25
-117,-6,105,61,-112,45,-29,-206,-231,-129,-67,-25
-135,-24,105,79,-124,33,-29,-194,-207,-111,-55,-25
-117,-12,99,61,-112,39,-17,-206,-213,-123,-61,-25
-117,-12,99,61,-112,39,-11,-188,-207,-99,-37,-8
-123,-18,99,67,-112,33,-23,-200,-201,-117,-55,-19
-111,-18,87,61,-100,27,-41,-218,-207,-141,-67,-37
-117,-18,93,67,-106,33,-41,-212,-213,-129,-61,-31
-111,-18,87,61,-100,27,-47,-206,-219,-123,-61,-31
-105,-6,93,55,-100,39,-35,-212,-219,-129,-67,-25
-123,-18,99,67,-112,33,-35,-206,-225,-117,-55,-19
-129,-18,105,73,-118,39,-29,-212,-237,-135,-67,-31
-141,-30,105,85,-124,33,-17,-194,-213,-117,-61,-19
-129,-12,111,67,-124,45,-17,-200,-213,-123,-61,-31
-117,-18,93,67,-106,33,-17,-200,-201,-117,-61,-25
-123,-18,99,67,-112,33,-35,-212,-207,-117,-61,-31
-111,-24,81,67,-100,21,-35,-218,-207,-135,-61,-31
-123,-36,81,79,-106,15,-29,-212,-201,-123,-55,-25
-111,-24,81,67,-100,21,-35,-212,-213,-129,-61,-31
-111,-12,93,61,-106,33,-29,-218,-207,-129,-61,-31
-123,-18,99,67,-112,33,-29,-200,-213,-129,-55,-31
-117,-12,99,61,-112,39,-35,-224,-231,-135,-73,-43
-147,-18,123,79,-136,45,-23,-218,-225,-123,-67,-31
-135,-18,111,73,-124,39,-11,-200,-207,-117,-49,-25
-123,-24,93,73,-112,27,-29,-218,-213,-117,-61,-31
-123,-24,93,73,-112,27,-41,-224,-219,-129,-67,-31
-117,-6,105,61,-112,45,-47,-230,-219,-129,-61,-31
-117,-24,87,67,-106,27,-35,-218,-213,-123,-61,-31
-117,-24,87,67,-106,27,-35,-218,-219,-129,-61,-37
-111,-18,87,61,-100,27,-35,-230,-231,-135,-67,-25
-111,-24,81,67,-100,21,-35,-218,-219,-129,-61,-13
-117,-18,93,67,-106,33,-29,-224,-237,-135,-61,-31
-141,-24,111,79,-130,39,-23,-218,-231,-129,-61,-19
-129,-24,99,73,-118,33,-11,-212,-225,-129,-55,-19
-123,-18,99,67,-112,33,-17,-218,-219,-129,-61,-25
-117,-12,99,61,-112,39,-41,-230,-225,-129,-67,-37
-129,-24,99,73,-118,33,-41,-230,-213,-135,-61,-37
-141,-36,99,85,-124,27,-35,-224,-213,-123,-61,-25
-129,-24,99,73,-118,33,-35,-230,-213,-129,-61,-37
-123,-18,99,67,-112,33,-35,-230,-219,-129,-61,-25
-123,-24,93,73,-112,27,-35,-236,-225,-123,-61,-25
-123,-24,93,73,-112,27,-41,-230,-237,-129,-67,-43
-123,-30,87,73,-106,21,-29,-230,-219,-129,-67,-37
-123,-24,93,73,-112,27,-23,-224,-225,-135,-61,-37
-117,-12,99,61,-112,39,-23,-224,-237,-135,-67,-37
-111,-12,93,61,-106,33,-29,-230,-219,-141,-67,-37
-123,-18,99,67,-112,33,-47,-230,-231,-147,-61,-43
-135,-24,105,79,-124,33,-47,-230,-231,-141,-67,-43
-123,-24,93,73,-112,27,-41,-230,-231,-141,-67,-43
-117,-12,99,61,-112,39,-41,-236,-225,-141,-67,-25
-123,-24,93,73,-112,27,-47,-230,-213,-123,-61,-25
-123,-24,93,73,-112,27,-41,-236,-237,-141,-73,-37
-135,-24,105,79,-124,33,-29,-230,-225,-135,-73,-37
-129,-6,117,67,-124,51,-17,-230,-225,-135,-67,-31
-111,-6,99,55,-106,39,-29,-230,-225,-129,-73,-31
-111,-1,105,55,-112,45,-47,-242,-219,-135,-61,-25
-117,-1,117,55,-118,57,-35,-236,-219,-129,-61,-25
-123,-1,117,61,-124,51,-17,-218,-201,-117,-43,-19
-105,17,129,37,-118,75,-6,-212,-195,-129,-61,-31
-93,23,123,25,-106,75,-6,-200,-201,-117,-49,-19
-93,35,135,19,-112,87,0,-194,-195,-105,-49,-8
-105,41,153,25,-130,99,12,-194,-195,-111,-49,-13
-111,35,153,31,-130,93,24,-176,-171,-87,-37,-8
-99,53,159,13,-130,105,30,-182,-165,-87,-37,-2
-87,65,159,1,-124,111,42,-170,-165,-81,-19,-2
-75,71,153,1,-112,111,24,-182,-171,-87,-25,-8
-75,59,141,1,-106,99,24,-194,-171,-93,-37,-8
-87,59,153,7,-118,105,36,-170,-165,-87,-19,-8
-75,71,153,1,-112,111,30,-188,-165,-93,-37,-8
-69,89,165,-4,-118,129,48,-176,-171,-75,-19,4
-63,113,183,-16,-124,147,30,-182,-165,-87,-25,-2
-75,119,201,-16,-136,159,30,-182,-171,-87,-25,-8
-87,149,243,-22,-166,195,18,-188,-147,-75,-8,16
-69,179,249,-46,-160,219,-6,-200,-147,-63,-8,22
-51,185,243,-58,-148,213,-29,-224,-147,-63,-2,34
-45,179,231,-58,-136,207,-71,-248,-147,-69,-2,34
-51,197,249,-64,-154,225,-101,-254,-153,-63,-2,34
-39,221,261,-82,-154,243,-113,-260,-147,-51,10,52
-9,239,249,-106,-130,243,-149,-278,-147,-63,10,52
-9,227,243,-100,-124,237,-155,-266,-153,-33,22,58
-9,233,243,-106,-130,243,-155,-266,-141,-27,34,70
-4,239,249,-112,-130,243,-155,-248,-135,-27,40,70
-4,233,243,-106,-124,237,-155,-266,-135,-21,40,82
-4,233,231,-112,-112,237,-161,-260,-135,-21,52,82
8,233,219,-118,-100,231,-149,-254,-129,-15,58,94
20,215,189,-118,-76,207,-149,-248,-123,-15,52,94
20,197,171,-106,-70,189,-155,-242,-129,-27,34,76
2,179,171,-88,-76,177,-143,-242,-135,-33,28,70
2,173,165,-88,-76,171,-131,-236,-135,-45,16,64
-4,143,147,-64,-70,147,-107,-212,-141,-39,22,52
-4,107,117,-46,-58,111,-107,-212,-141,-57,10,46
-39,83,129,-16,-82,105,-95,-212,-165,-69,-8,16
-75,53,135,1,-106,93,-89,-212,-147,-69,-8,28
-81,47,135,7,-106,93,-83,-224,-171,-81,-13,-2
-99,17,123,31,-112,69,-65,-224,-183,-87,-19,-8
-99,-1,93,49,-100,39,-59,-236,-189,-111,-37,-8
-105,-12,87,55,-100,33,-65,-236,-195,-123,-55,-31
-123,-30,87,73,-106,21,-53,-224,-195,-111,-49,-25
-111,-18,87,61,-100,27,-59,-230,-213,-135,-79,-49
-117,-24,87,67,-106,27,-53,-242,-225,-129,-73,-49
-105,-30,69,67,-88,15,-53,-248,-231,-153,-79,-37
-117,-48,63,79,-94,3,-53,-242,-231,-159,-79,-49
-117,-42,69,79,-94,9,-59,-248,-213,-123,-61,-37
-99,-30,63,61,-82,9,-59,-224,-213,-123,-55,-37
-99,-24,69,61,-88,15,-53,-212,-195,-105,-43,-25
-81,-24,51,49,-70,9,-53,-218,-177,-105,-37,-19
-87,-24,57,55,-76,9,-53,-212,-171,-99,-37,-13
-87,-24,57,55,-76,9,-47,-188,-165,-87,-31,-8
-75,-18,51,43,-64,9,-35,-182,-147,-75,-19,-8
-63,-12,45,37,-58,9,-35,-152,-129,-57,-13,-8
-57,-1,51,25,-58,21,-47,-152,-135,-57,-13,4
-69,-6,57,37,-64,21,-53,-152,-105,-45,-8,-2
-45,-1,45,19,-46,21,-47,-134,-75,-15,4,16
-33,17,57,1,-46,39,-47,-104,-51,2,34,28
-4,17,27,1,-16,21,-53,-86,-21,2,40,34
8,11,3,-10,1,9,-47,-62,-10,14,40,34
8,-1,-2,-4,7,3,-47,-32,2,38,46,46
26,-1,-20,-10,25,-2,-23,3,26,56,64,52
44,5,-32,-22,37,-2,-17,27,56,92,82,70
68,-1,-62,-34,67,-20,-29,63,98,104,88,82
86,-1,-80,-40,85,-32,-35,93,134,134,124,94
92,-1,-98,-40,91,-44,-29,117,170,164,136,100
110,-12,-128,-40,115,-68,-17,159,200,194,160,112
140,-24,-170,-52,151,-92,-6,213,230,224,172,130
176,-24,-206,-70,187,-110,-11,255,266,242,196,148
212,-42,-254,-76,235,-146,-6,267,290,254,220,154
224,-72,-296,-70,253,-182,-17,303,302,260,220,148
248,-102,-356,-70,301,-230,6,387,356,290,232,166
278,-114,-398,-76,337,-248,42,477,422,332,238,172
296,-144,-446,-70,367,-290,78,591,518,392,268,172
338,-156,-494,-88,415,-320,102,711,632,464,304,190
374,-174,-548,-94,463,-356,108,831,770,554,346,208
422,-198,-620,-106,517,-404,114,975,962,680,424,238
488,-192,-686,-148,583,-434,108,1161,1154,818,496,268
566,-186,-752,-190,661,-470,114,1359,1370,962,568,316
626,-204,-830,-208,727,-512,156,1575,1568,1100,640,340
680,-204,-884,-238,775,-536,180,1761,1790,1238,712,370
728,-174,-902,-268,811,-530,228,1917,2065,1442,826,436
794,-108,-908,-340,847,-500,234,2007,2353,1658,958,514
854,-18,-878,-412,865,-446,252,2078,2670,1892,1102,616
896,83,-806,-484,853,-356,294,2096,2952,2107,1234,706
914,107,-800,-508,859,-338,324,2025,3144,2251,1324,760
908,119,-782,-508,847,-326,324,1863,3180,2305,1366,778
884,155,-728,-514,805,-278,234,1575,3054,2251,1336,778
872,155,-716,-508,793,-272,120,1221,2946,2191,1318,766
854,89,-758,-472,805,-326,66,1017,2838,2101,1240,700
800,-54,-860,-370,829,-458,108,945,2622,1916,1084,580
716,-192,-908,-256,805,-542,174,897,2323,1670,928,460
584,-276,-866,-148,727,-566,222,759,1928,1376,748,340
464,-324,-788,-64,625,-554,180,531,1484,1070,568,244
356,-402,-758,13,553,-578,150,291,974,728,370,124
164,-492,-662,163,409,-572,216,75,392,248,64,-67
-27,-540,-506,283,235,-524,294,-122,-159,-159,-181,-223
-135,-528,-392,331,121,-464,276,-230,-417,-327,-277,-259
-177,-492,-314,331,61,-404,216,-212,-435,-363,-325,-295
-171,-474,-296,319,55,-386,108,-212,-429,-369,-319,-289
-159,-462,-296,307,61,-380,36,-200,-417,-339,-289,-265
-141,-438,-290,283,67,-362,0,-188,-411,-321,-277,-247
-123,-396,-266,253,67,-332,-23,-182,-393,-333,-265,-241
-129,-342,-212,235,31,-272,-11,-152,-375,-303,-235,-211
-117,-300,-182,211,25,-236,-6,-140,-363,-285,-235,-193
-135,-270,-134,205,-5,-206,-6,-128,-339,-267,-199,-169
-129,-240,-110,187,-5,-176,0,-122,-333,-267,-193,-163
-117,-216,-92,163,-10,-152,0,-116,-327,-261,-187,-151
-105,-192,-80,145,-10,-134,12,-104,-309,-237,-163,-139
-93,-162,-62,127,-10,-110,-6,-116,-315,-243,-175,-127
-99,-138,-32,115,-28,-86,-6,-122,-309,-231,-163,-115
-99,-114,-8,103,-40,-62,6,-122,-303,-225,-157,-115
-99,-90,3,91,-52,-38,6,-134,-291,-213,-133,-97
-99,-72,21,85,-64,-20,12,-140,-285,-213,-133,-97
-105,-66,33,85,-70,-8,0,-158,-303,-219,-139,-97
-117,-72,39,91,-82,-8,12,-158,-309,-219,-139,-103
-129,-78,45,103,-88,-8,18,-152,-297,-219,-133,-85
-111,-72,33,91,-76,-14,-6,-158,-297,-219,-133,-97
-111,-72,33,91,-76,-14,6,-152,-291,-201,-115,-85
-93,-60,27,73,-64,-8,-6,-170,-291,-219,-139,-85
-99,-60,33,79,-70,-8,-6,-176,-297,-213,-133,-91
-105,-54,45,79,-76,3,-6,-176,-297,-213,-127,-85
-99,-48,45,73,-76,3,-6,-200,-297,-219,-127,-91
-99,-42,51,67,-76,3,-6,-182,-291,-207,-121,-79
-105,-54,45,79,-76,3,-6,-194,-297,-219,-139,-85
-111,-60,45,85,-82,-2,-6,-194,-309,-213,-127,-85
-111,-54,51,79,-82,3,-6,-200,-309,-219,-133,-85
-99,-54,39,73,-70,-2,-6,-188,-297,-213,-121,-73
-93,-48,39,67,-70,3,-6,-182,-297,-207,-109,-67
-93,-42,45,67,-70,3,-17,-194,-291,-213,-127,-79
-99,-54,39,73,-70,-2,-11,-188,-291,-207,-121,-73
-99,-42,51,67,-76,3,-11,-188,-285,-213,-121,-79
-99,-36,57,67,-82,3,-6,-194,-279,-207,-115,-73
-99,-24,69,61,-88,15,-6,-188,-279,-189,-121,-73
-99,-24,69,61,-88,15,-11,-200,-297,-213,-133,-85
-105,-36,63,67,-88,9,-11,-200,-303,-207,-133,-85
-117,-30,81,73,-100,21,-6,-200,-297,-207,-133,-85
-93,-36,51,61,-76,3,-11,-182,-291,-213,-127,-85
-93,-30,57,61,-76,9,-6,-164,-261,-195,-109,-73
-81,-30,45,55,-64,3,-11,-182,-279,-213,-121,-79
-93,-36,51,61,-76,3,-6,-170,-273,-201,-127,-79
-99,-30,63,61,-82,9,-6,-170,-267,-207,-127,-85
-99,-36,57,67,-82,3,-6,-164,-267,-189,-121,-73
-87,-18,63,49,-76,15,-6,-176,-255,-189,-121,-73
-87,-12,69,49,-82,21,-6,-176,-267,-201,-127,-79
-105,-24,75,61,-94,21,-11,-176,-273,-207,-133,-79
-117,-30,81,73,-100,21,-6,-164,-267,-201,-133,-73
-105,-30,69,67,-88,15,-6,-146,-261,-189,-115,-61
-93,-18,69,55,-82,21,0,-134,-249,-189,-115,-61
-81,-18,57,49,-70,15,0,-140,-249,-189,-121,-73
-81,-12,63,43,-76,21,-6,-134,-243,-189,-121,-73
-87,-18,63,49,-76,15,-11,-128,-237,-189,-121,-67
-99,-18,75,55,-88,21,-6,-122,-231,-177,-103,-55
-87,-1,81,43,-88,33,-6,-134,-225,-177,-103,-61
-93,-1,93,43,-94,45,-6,-128,-243,-171,-115,-73
-111,-1,111,49,-112,51,-6,-110,-243,-177,-109,-67
-111,-6,99,55,-106,39,-6,-122,-231,-177,-109,-55
-93,-1,87,43,-94,39,-6,-104,-225,-171,-115,-61
-81,-1,75,37,-82,33,-6,-86,-213,-165,-103,-55
-75,-6,63,37,-70,21,0,-86,-207,-159,-109,-49
-75,-6,63,37,-70,21,-6,-68,-201,-159,-103,-67
-87,-6,75,43,-82,27,-6,-68,-195,-159,-109,-55
-93,-1,93,43,-94,45,0,-56,-177,-141,-91,-49
-75,-1,81,31,-76,39,-6,-44,-177,-153,-91,-49
-81,5,93,31,-88,51,-6,-44,-177,-141,-103,-55
-99,-1,99,43,-100,45,0,-26,-165,-147,-85,-49
-99,-1,99,43,-100,45,-6,-38,-159,-153,-91,-43
-81,17,105,25,-94,63,-6,-14,-147,-147,-85,-43
-69,17,93,19,-82,57,-6,-9,-141,-135,-79,-43
-57,17,81,13,-70,51,-6,-9,-135,-135,-85,-49
-63,11,81,19,-70,45,-6,9,-123,-123,-91,-61
-75,11,93,25,-82,51,-6,21,-105,-111,-85,-49
-81,23,111,19,-94,69,0,45,-99,-99,-73,-37
-69,29,105,13,-88,69,-6,51,-81,-93,-61,-37
-69,35,111,7,-88,75,-6,57,-75,-99,-67,-31
-75,29,111,13,-94,69,-6,81,-69,-87,-49,-25
-81,23,111,19,-94,69,0,93,-51,-81,-49,-19
-63,29,99,7,-82,63,0,105,-45,-75,-61,-25
-45,47,99,1,-70,75,-6,129,-33,-69,-49,-25
-39,53,99,1,-70,75,-6,129,-10,-69,-49,-25
-45,53,105,1,-76,81,-6,159,-4,-45,-49,-31
-57,41,105,1,-82,75,-6,171,14,-39,-37,-19
-39,59,105,-4,-70,81,-6,183,26,-33,-31,-19
-39,65,111,-4,-76,87,0,201,50,-10,-19,-8
-39,71,117,-10,-76,93,-6,219,56,-10,-31,-8
-39,77,123,-10,-82,99,-6,231,68,-15,-25,-8
-45,65,117,-4,-82,93,-6,237,80,-10,-19,-8
-33,83,123,-16,-76,105,-6,261,98,-10,-13,-8
-15,83,105,-28,-58,93,0,285,104,2,-8,-8
-9,89,105,-34,-58,99,-6,285,134,14,-8,-2
-9,89,105,-34,-58,99,-6,303,158,26,-8,-8
-15,83,105,-28,-58,93,-6,321,170,44,-2,-2
-9,101,117,-40,-64,111,0,339,200,62,16,10
-4,107,117,-46,-58,111,12,357,212,74,28,16
-4,113,117,-52,-58,117,0,369,224,74,22,28
-4,107,117,-46,-58,111,0,381,230,86,22,22
-4,101,111,-40,-58,105,6,387,242,86,34,28
2,125,117,-64,-52,123,-6,393,248,86,28,22
2,125,117,-64,-52,123,6,423,260,110,40,40
8,119,105,-64,-40,117,0,411,272,104,40,22
8,119,105,-64,-40,117,0,429,290,122,52,22
8,119,105,-64,-40,117,0,447,308,128,46,22
14,119,99,-64,-34,111,12,447,320,134,46,22
26,143,111,-82,-34,129,18,459,338,152,64,28
26,143,111,-82,-34,129,24,477,338,146,64,34
14,131,111,-70,-40,123,18,495,350,170,70,46
14,119,99,-64,-34,111,24,507,374,176,76,58
26,131,99,-76,-28,117,18,519,380,176,70,52
50,137,81,-94,-10,111,18,537,404,194,88,58
62,125,57,-94,-5,93,6,513,386,182,82,46
44,125,75,-82,-10,105,6,519,404,200,88,46
44,125,75,-82,-10,105,12,537,416,194,94,46
44,125,75,-82,-10,105,24,537,410,206,94,40
44,125,75,-82,-10,105,42,549,434,218,100,64
56,125,63,-88,-5,99,30,525,404,206,82,52
44,131,81,-88,-10,111,36,537,422,224,100,58
44,113,63,-76,-5,93,48,525,410,212,100,64
44,119,69,-82,-5,99,30,513,404,206,94,64
50,119,63,-82,-5,93,36,501,404,218,106,76
50,113,57,-82,-5,87,24,465,380,188,94,58
44,113,63,-76,-5,93,24,435,368,188,88,46
26,101,69,-64,-16,87,24,417,350,170,82,46
32,101,63,-64,-10,87,36,387,314,158,82,46
32,107,69,-70,-10,93,48,369,314,164,82,58
26,107,75,-64,-16,93,24,333,266,134,58,34
8,89,75,-46,-28,87,30,315,248,128,64,40
-4,83,81,-40,-34,87,36,279,224,122,58,40
2,95,87,-46,-34,93,30,249,194,110,46,28
20,83,57,-52,-10,75,30,231,182,98,40,40
14,83,63,-46,-16,75,0,177,140,68,22,10
2,71,63,-34,-22,69,6,147,122,56,10,4
-9,59,75,-16,-40,69,12,117,98,32,16,4
-9,59,75,-16,-40,69,12,87,68,26,4,-8
-4,59,69,-22,-34,63,24,75,62,20,10,16
-9,59,75,-16,-40,69,0,33,8,-10,-8,-8
-27,35,69,1,-46,51,12,21,2,-10,-8,4
-33,29,69,1,-52,51,12,-9,-15,-15,-8,-2
-27,35,69,1,-46,51,0,-9,-27,-21,-13,-8
-21,29,57,1,-40,45,0,-14,-33,-33,-8,-8
-27,29,63,1,-46,45,-6,-62,-69,-45,-25,-19
-45,17,69,7,-58,45,-6,-62,-57,-39,-19,-8
-45,11,63,7,-52,39,-6,-80,-87,-51,-37,-19
-33,17,57,1,-46,39,-6,-104,-99,-63,-43,-19
-33,29,69,1,-52,51,-6,-116,-99,-69,-37,-8
-33,29,69,1,-52,51,-6,-122,-129,-81,-37,-25
-39,5,51,7,-46,27,-11,-122,-123,-81,-43,-19
-51,-1,45,25,-52,15,-6,-140,-141,-81,-43,-25
-51,-1,57,19,-52,27,-6,-134,-147,-93,-49,-25
-33,-1,33,13,-34,15,-6,-134,-141,-75,-43,-25
-33,-1,33,13,-34,15,-6,-152,-153,-111,-67,-43
-33,-1,33,13,-34,15,-6,-164,-153,-111,-73,-37
-57,-6,45,31,-52,15,-6,-158,-159,-99,-61,-37
-51,-1,45,25,-52,15,-6,-170,-165,-111,-55,-43
-45,-1,51,13,-46,27,-6,-176,-159,-105,-55,-31
-57,-1,63,19,-58,33,-6,-170,-171,-111,-61,-25
-57,-1,57,25,-58,27,-23,-188,-189,-117,-61,-37
