,,,,,,,,,,,
2019-09-04 23:14:04,,,,,,,,,,,
,,,,,,,,,,,
I,II,III,aVR,aVL,aVF,V1,V2,V3,V4,V5,V6
-54,91,152,-19,-104,121,92,-65,50,-71,-117,-33
-54,79,140,-19,-98,109,92,-65,50,-77,-123,-33
-54,67,128,-13,-92,97,92,-65,50,-77,-123,-39
-54,55,116,-7,-86,85,92,-53,50,-77,-123,-39
-54,25,86,5,-68,55,92,-47,44,-83,-123,-57
-54,1,56,23,-56,25,92,-47,44,-107,-141,-69
-54,-40,8,47,-32,-17,86,-65,14,-137,-153,-99
-66,-64,-4,65,-32,-28,86,-71,-10,-155,-183,-117
-90,-76,8,83,-50,-28,92,-77,-16,-167,-201,-147
-114,-88,20,101,-68,-28,104,-71,-22,-173,-219,-165
-114,-100,8,107,-62,-40,110,-65,-22,-173,-231,-189
-120,-106,8,113,-68,-46,128,-65,-22,-179,-243,-189
-120,-124,-10,119,-56,-64,128,-53,-16,-179,-249,-195
-120,-148,-34,131,-44,-88,134,-47,-16,-179,-255,-195
-120,-166,-39,143,-38,-106,152,-35,-10,-185,-261,-195
-120,-184,-57,149,-26,-124,182,-29,-10,-185,-273,-195
-120,-184,-57,149,-26,-124,194,-24,-10,-191,-267,-195
-120,-184,-57,149,-26,-124,212,-24,2,-191,-261,-195
-120,-184,-57,149,-26,-124,236,-12,2,-197,-255,-189
-120,-184,-57,149,-26,-124,290,18,14,-197,-255,-189
-120,-172,-45,143,-32,-112,356,48,32,-185,-243,-183
-132,-190,-51,161,-38,-124,458,84,38,-185,-249,-195
-132,-190,-51,161,-38,-124,536,108,38,-197,-249,-213
-120,-190,-63,155,-26,-130,554,138,44,-197,-255,-213
-120,-184,-57,149,-26,-124,566,150,44,-191,-261,-213
-114,-184,-63,149,-20,-124,560,192,56,-191,-261,-225
-102,-172,-63,137,-14,-118,524,240,74,-185,-261,-219
-66,-160,-87,113,16,-124,428,324,104,-167,-249,-207
-30,-130,-93,77,33,-112,272,408,134,-155,-231,-189
-6,-82,-69,41,33,-76,92,504,194,-125,-213,-177
35,1,-34,-19,33,-17,-105,582,248,-77,-171,-147
71,55,-22,-60,39,19,-333,618,290,-35,-141,-123
107,109,-4,-108,51,55,-501,624,314,-23,-129,-105
125,133,2,-126,57,67,-627,672,344,-12,-123,-99
155,157,-4,-156,75,79,-729,726,362,12,-99,-75
191,157,-34,-174,111,61,-819,774,374,12,-99,-75
209,151,-51,-180,129,43,-849,798,374,18,-99,-63
221,163,-51,-192,135,49,-879,792,362,12,-93,-57
227,181,-39,-204,135,67,-915,744,362,24,-87,-39
245,187,-51,-216,147,61,-939,708,392,54,-57,-27
257,187,-63,-222,159,55,-963,642,422,78,-39,-15
251,193,-51,-222,153,67,-963,606,452,84,-45,-27
263,211,-45,-234,153,79,-933,630,494,108,-45,-39
263,223,-34,-240,147,91,-909,654,566,132,-57,-45
293,241,-45,-264,171,97,-927,624,662,186,-33,-27
353,289,-57,-318,207,115,-963,570,794,276,2,2
455,325,-123,-390,285,97,-1041,486,896,372,92,86
527,337,-189,-432,357,73,-1107,390,944,450,170,170
629,349,-273,-492,453,31,-1155,396,1052,510,254,230
749,361,-381,-552,561,-17,-1221,384,1190,618,368,314
869,421,-447,-642,657,-17,-1371,198,1316,810,572,476
1031,583,-447,-804,741,67,-1587,-59,1502,1134,926,764
1217,787,-423,-996,819,181,-1845,-359,1754,1524,1346,1094
1415,985,-423,-1200,921,277,-2151,-779,1946,1920,1778,1448
1583,1219,-357,-1404,975,433,-2438,-1259,2113,2333,2239,1826
1703,1489,-207,-1596,957,643,-2642,-1679,2287,2794,2736,2215
1751,1735,-22,-1740,885,859,-2804,-2093,2365,3262,3228,2580
1763,1963,200,-1866,777,1081,-2912,-2494,2341,3694,3648,2916
1685,2112,428,-1896,627,1267,-2900,-2710,2341,4090,4002,3156
1541,1987,446,-1764,543,1213,-2678,-2584,2550,4510,4242,3228
1379,1621,236,-1494,567,931,-2325,-2171,2976,4935,4368,3138
1235,1309,74,-1266,573,697,-2013,-1829,3150,5199,4416,3030
1127,1207,74,-1164,519,643,-1839,-1757,2856,5235,4422,2976
1037,1075,32,-1056,501,553,-1695,-1697,2406,4959,4290,2862
911,805,-99,-858,507,349,-1443,-1439,2041,4300,3858,2550
749,553,-189,-648,471,181,-1137,-1157,1598,3454,3252,2149
557,385,-171,-474,363,103,-819,-917,1112,2620,2538,1682
365,169,-195,-264,279,-17,-525,-623,770,1692,1664,1118
197,-70,-273,-54,231,-172,-255,-317,530,768,746,500
83,-208,-291,53,189,-250,-93,-125,398,264,188,98
35,-196,-237,71,135,-214,-33,-35,410,210,80,2
35,-154,-183,59,99,-172,-21,-12,434,228,128,26
24,-142,-159,59,81,-154,-3,36,404,210,122,-10
12,-148,-153,65,75,-154,26,84,404,198,86,-45
-12,-172,-153,89,63,-166,62,126,404,180,56,-75
-36,-208,-165,119,57,-190,110,138,392,132,-4,-99
-54,-220,-159,137,45,-190,170,162,368,90,-51,-117
-72,-232,-153,149,33,-196,218,186,350,42,-111,-141
-72,-244,-171,161,39,-214,248,216,320,-18,-177,-165
-72,-256,-183,167,45,-226,254,222,302,-83,-219,-177
-78,-244,-165,161,33,-208,254,246,272,-137,-225,-183
-90,-256,-165,173,33,-214,248,246,260,-167,-231,-177
-96,-256,-159,179,33,-214,248,252,242,-191,-231,-177
-96,-262,-165,179,33,-220,248,252,230,-191,-231,-177
-108,-256,-147,185,22,-208,248,264,224,-197,-225,-177
-114,-256,-141,185,16,-202,266,270,224,-197,-231,-189
-114,-262,-147,191,22,-208,290,288,230,-191,-243,-207
-120,-262,-141,191,16,-208,308,300,230,-203,-255,-213
-114,-274,-159,197,28,-220,314,300,236,-203,-255,-231
-108,-274,-165,191,33,-226,326,312,224,-221,-267,-243
-108,-274,-165,191,33,-226,326,324,224,-221,-279,-249
-108,-274,-165,191,33,-226,320,330,218,-227,-285,-249
-108,-274,-165,191,33,-226,320,336,218,-227,-291,-249
-108,-274,-165,191,33,-226,320,342,218,-227,-297,-249
-114,-268,-153,191,22,-214,320,342,218,-227,-297,-249
-114,-268,-153,191,22,-214,326,348,218,-227,-297,-249
-114,-262,-147,191,22,-208,332,348,218,-227,-291,-249
-114,-262,-147,191,22,-208,338,354,224,-227,-291,-249
-114,-262,-147,191,22,-208,344,366,224,-221,-285,-249
-114,-262,-147,191,22,-208,344,384,236,-221,-285,-249
-114,-268,-153,191,22,-214,344,384,236,-215,-273,-237
-108,-262,-153,185,28,-214,350,390,242,-209,-273,-237
-108,-262,-153,185,28,-214,350,402,248,-209,-261,-231
-108,-262,-153,185,28,-214,356,408,254,-209,-261,-231
-108,-256,-147,185,22,-208,362,414,260,-203,-255,-225
-108,-256,-147,185,22,-208,362,420,272,-197,-243,-219
-102,-244,-141,173,22,-196,362,432,278,-191,-237,-219
-102,-244,-141,173,22,-196,374,450,284,-191,-237,-213
-102,-238,-135,173,22,-190,374,450,296,-191,-231,-213
-96,-238,-135,167,22,-190,380,462,302,-185,-219,-213
-96,-238,-135,167,22,-190,380,468,308,-185,-225,-219
-96,-232,-129,161,22,-184,386,468,314,-173,-225,-225
-96,-226,-123,161,16,-178,392,480,320,-167,-231,-231
-96,-226,-123,161,16,-178,392,486,326,-167,-225,-225
-90,-220,-123,155,22,-172,386,486,320,-167,-219,-225
-90,-214,-117,149,16,-166,386,492,320,-167,-225,-225
-84,-208,-117,143,22,-166,386,492,314,-173,-225,-219
-84,-208,-117,143,22,-166,386,498,314,-167,-231,-213
-84,-202,-111,143,16,-160,386,504,320,-161,-225,-201
-84,-196,-105,137,16,-154,392,510,320,-161,-225,-189
-78,-190,-105,131,16,-148,398,516,326,-161,-219,-183
-78,-184,-99,131,16,-142,398,516,326,-161,-213,-171
-78,-184,-99,131,16,-142,398,522,326,-155,-207,-165
-78,-178,-93,125,10,-136,398,522,326,-155,-207,-165
-78,-172,-87,125,10,-130,404,528,326,-143,-207,-159
-72,-166,-87,119,10,-130,404,528,326,-143,-195,-153
-72,-166,-87,119,10,-130,404,534,320,-143,-189,-153
-72,-160,-81,113,10,-124,404,534,314,-143,-189,-153
-72,-154,-75,113,4,-118,404,528,302,-143,-183,-159
-72,-148,-69,107,4,-112,410,528,296,-137,-183,-153
-78,-142,-57,107,-8,-100,422,528,284,-137,-177,-153
-78,-142,-57,107,-8,-100,422,528,278,-137,-177,-147
-84,-136,-45,107,-14,-94,428,522,260,-137,-171,-147
-84,-130,-39,107,-20,-88,428,510,254,-143,-171,-147
-78,-130,-45,101,-14,-88,440,504,236,-149,-177,-147
-78,-130,-45,101,-14,-88,440,492,224,-149,-177,-147
-72,-124,-45,95,-8,-88,440,468,200,-167,-183,-153
-72,-124,-45,95,-8,-88,440,462,182,-173,-183,-153
-78,-130,-45,101,-14,-88,446,456,158,-185,-177,-147
-78,-124,-39,101,-14,-82,446,432,140,-191,-177,-147
-78,-130,-45,101,-14,-88,458,420,104,-203,-177,-141
-78,-124,-39,101,-14,-82,458,402,80,-215,-177,-147
-78,-124,-39,101,-14,-82,452,390,56,-221,-183,-147
-78,-124,-39,101,-14,-82,458,366,20,-233,-183,-147
-84,-124,-34,101,-20,-82,452,342,-16,-239,-189,-147
-84,-124,-34,101,-20,-82,452,312,-33,-257,-189,-147
-90,-130,-34,107,-26,-82,446,282,-69,-269,-195,-147
-96,-130,-34,113,-32,-82,446,252,-105,-293,-201,-159
-102,-142,-34,119,-32,-88,446,216,-141,-311,-213,-159
-102,-154,-45,125,-26,-100,446,186,-183,-329,-225,-159
-108,-154,-39,131,-32,-100,440,150,-237,-359,-243,-177
-108,-160,-45,131,-26,-106,428,114,-279,-389,-255,-183
-108,-154,-39,131,-32,-100,422,78,-327,-419,-261,-195
-114,-160,-39,137,-32,-100,416,42,-375,-449,-273,-201
-114,-166,-45,137,-32,-106,404,0,-417,-461,-279,-207
-120,-172,-45,143,-32,-112,392,-24,-471,-485,-291,-207
-120,-178,-51,149,-32,-118,380,-65,-513,-503,-303,-213
-120,-184,-57,149,-26,-124,374,-107,-549,-521,-303,-219
-126,-196,-63,161,-26,-130,368,-149,-597,-551,-321,-231
-126,-202,-69,161,-26,-136,356,-191,-657,-575,-333,-237
-132,-214,-75,173,-26,-148,350,-239,-711,-605,-339,-249
-132,-220,-81,173,-20,-154,338,-263,-765,-629,-351,-249
-132,-220,-81,173,-20,-154,314,-305,-813,-653,-363,-249
-132,-226,-87,179,-20,-160,296,-341,-855,-677,-375,-255
-138,-226,-81,179,-26,-154,284,-377,-891,-695,-381,-249
-138,-232,-87,185,-20,-160,266,-413,-933,-725,-393,-255
-138,-238,-93,185,-20,-166,248,-449,-981,-737,-399,-267
-138,-238,-99,191,-14,-172,236,-485,-1005,-749,-411,-267
-138,-244,-105,191,-14,-178,212,-509,-1047,-767,-435,-273
-138,-250,-111,197,-8,-184,206,-539,-1083,-785,-441,-273
-138,-256,-117,197,-8,-190,188,-569,-1107,-809,-453,-267
-138,-256,-117,197,-8,-190,176,-593,-1137,-815,-459,-267
-138,-256,-117,197,-8,-190,164,-611,-1155,-833,-465,-261
-138,-256,-117,197,-8,-190,158,-623,-1167,-839,-465,-261
-138,-268,-129,203,-2,-202,146,-647,-1185,-839,-459,-255
-138,-268,-129,203,-2,-202,134,-653,-1191,-845,-459,-255
-138,-274,-135,209,4,-208,122,-671,-1197,-845,-453,-249
-138,-274,-135,209,4,-208,122,-671,-1197,-839,-453,-249
-138,-268,-129,203,-2,-202,116,-665,-1197,-845,-453,-249
-138,-274,-135,209,4,-208,104,-665,-1185,-839,-441,-255
-132,-268,-135,203,4,-208,104,-653,-1167,-839,-435,-255
-132,-268,-135,203,4,-208,98,-641,-1149,-821,-429,-255
-138,-274,-135,209,4,-208,92,-623,-1101,-803,-429,-261
-138,-268,-129,203,-2,-202,92,-599,-1053,-773,-423,-249
-144,-274,-129,209,-2,-208,92,-569,-999,-749,-423,-255
-138,-268,-129,203,-2,-202,92,-533,-963,-719,-417,-255
-138,-262,-123,203,-2,-196,92,-503,-909,-701,-399,-249
-138,-262,-123,203,-2,-196,92,-467,-861,-683,-393,-237
-138,-250,-111,197,-8,-184,92,-437,-819,-665,-381,-231
-138,-250,-111,197,-8,-184,98,-401,-765,-647,-375,-225
-132,-250,-117,191,-2,-190,104,-365,-705,-617,-363,-219
-132,-244,-111,191,-8,-184,110,-335,-657,-599,-357,-219
-132,-244,-111,191,-8,-184,116,-299,-591,-563,-351,-207
-126,-238,-111,185,-2,-178,116,-263,-537,-539,-345,-207
-120,-238,-117,179,4,-184,122,-233,-465,-503,-333,-213
-120,-238,-117,179,4,-184,128,-197,-405,-485,-321,-213
-114,-232,-111,173,4,-172,134,-167,-351,-455,-309,-219
-114,-232,-111,173,4,-172,134,-143,-309,-431,-297,-213
-114,-232,-111,173,4,-172,140,-107,-267,-419,-291,-219
-114,-232,-111,173,4,-172,146,-89,-225,-401,-285,-219
-114,-232,-111,173,4,-172,152,-59,-183,-383,-291,-225
-108,-226,-111,167,4,-172,152,-47,-141,-365,-285,-225
-114,-226,-105,167,-2,-166,152,-29,-99,-341,-285,-225
-114,-226,-105,167,-2,-166,152,-18,-51,-323,-285,-219
-120,-226,-99,173,-8,-166,158,0,-28,-305,-285,-219
-120,-220,-93,167,-8,-160,158,18,8,-287,-279,-219
-114,-214,-93,161,-8,-154,170,36,38,-281,-273,-219
-108,-214,-99,161,-2,-160,170,48,56,-275,-273,-219
-102,-202,-93,149,-2,-148,176,60,74,-263,-267,-213
-102,-202,-93,149,-2,-148,176,60,86,-263,-261,-213
-102,-202,-93,149,-2,-148,170,66,92,-257,-261,-207
-102,-202,-93,149,-2,-148,176,66,104,-251,-255,-207
-102,-202,-93,149,-2,-148,170,72,110,-245,-255,-201
-102,-202,-93,149,-2,-148,170,72,122,-239,-255,-201
-102,-202,-93,149,-2,-148,170,72,134,-221,-255,-207
-102,-202,-93,149,-2,-148,170,72,146,-215,-255,-207
-102,-202,-93,149,-2,-148,170,78,146,-209,-255,-213
-96,-196,-93,143,4,-148,170,78,146,-209,-255,-213
-96,-196,-93,143,4,-148,164,72,140,-209,-255,-213
-96,-196,-93,143,4,-148,164,72,134,-209,-255,-213
-96,-196,-93,143,4,-148,164,66,128,-203,-255,-207
-96,-196,-93,143,4,-148,164,60,122,-203,-249,-207
-102,-196,-87,149,-2,-142,164,54,116,-203,-243,-201
-102,-196,-87,149,-2,-142,164,48,110,-203,-243,-201
-108,-196,-81,149,-8,-142,158,54,104,-197,-237,-195
-108,-196,-81,149,-8,-142,158,48,98,-197,-231,-195
-102,-202,-93,149,-2,-148,158,42,86,-197,-237,-195
-102,-202,-93,149,-2,-148,158,36,80,-197,-237,-195
-96,-208,-105,149,10,-160,158,30,74,-197,-243,-189
-96,-208,-105,149,10,-160,152,24,62,-197,-243,-189
-96,-202,-99,149,4,-154,146,24,50,-197,-243,-195
-96,-202,-99,149,4,-154,146,18,50,-197,-243,-195
-96,-196,-93,143,4,-148,140,24,44,-203,-243,-189
-96,-196,-93,143,4,-148,134,18,44,-203,-243,-189
-108,-196,-81,149,-8,-142,146,12,38,-203,-255,-201
-102,-196,-87,149,-2,-142,146,6,26,-203,-249,-195
-102,-196,-87,149,-2,-142,140,6,20,-209,-255,-201
-102,-196,-87,149,-2,-142,140,6,14,-209,-255,-201
-102,-196,-87,149,-2,-142,134,6,8,-215,-255,-207
-102,-196,-87,149,-2,-142,134,6,2,-215,-255,-207
-102,-208,-99,155,4,-154,134,0,-4,-215,-261,-207
-102,-208,-99,155,4,-154,134,-6,-10,-215,-261,-207
-108,-214,-99,161,-2,-160,134,-6,-16,-221,-267,-207
-108,-214,-99,161,-2,-160,128,-12,-16,-221,-267,-207
-114,-208,-87,161,-8,-148,128,-18,-22,-221,-267,-207
-114,-214,-93,161,-8,-154,128,-18,-28,-221,-267,-207
-120,-208,-81,161,-14,-148,128,-24,-28,-221,-261,-207
-120,-208,-81,161,-14,-148,128,-24,-33,-221,-261,-207
-120,-214,-87,167,-14,-154,128,-24,-33,-221,-261,-213
-120,-214,-87,167,-14,-154,122,-24,-45,-227,-267,-213
-120,-220,-93,167,-8,-160,122,-24,-45,-227,-267,-213
-120,-220,-93,167,-8,-160,122,-24,-45,-227,-267,-213
-120,-220,-93,167,-8,-160,128,-24,-45,-233,-267,-213
-120,-208,-81,161,-14,-148,128,-24,-45,-233,-261,-213
-108,-202,-87,155,-8,-148,140,-12,-33,-233,-255,-207
-108,-196,-81,149,-8,-142,146,0,-28,-227,-255,-195
-108,-178,-63,143,-20,-124,152,0,-28,-215,-249,-201
-108,-166,-51,137,-26,-112,170,6,-28,-209,-249,-201
-108,-154,-39,131,-32,-100,176,6,-28,-197,-243,-201
-114,-142,-34,125,-44,-82,182,12,-22,-191,-243,-195
-114,-136,-28,125,-44,-76,188,12,-22,-191,-243,-189
-114,-130,-22,119,-50,-70,194,12,-22,-191,-237,-189
-120,-118,-4,119,-62,-58,206,24,-16,-185,-237,-177
-120,-112,2,113,-62,-52,212,30,-10,-173,-225,-171
-120,-106,8,113,-68,-46,218,30,-10,-173,-225,-165
-120,-88,26,101,-74,-28,224,30,-4,-167,-219,-153
-120,-76,38,95,-80,-17,230,42,-4,-161,-213,-141
-114,-52,56,83,-86,-5,230,48,14,-149,-201,-129
-102,-34,62,65,-86,7,236,60,20,-131,-189,-123
-96,-4,86,47,-92,31,242,66,32,-119,-177,-117
-90,7,104,35,-98,55,248,72,32,-107,-165,-111
-84,25,116,23,-98,67,236,54,32,-107,-153,-111
-84,49,140,11,-110,91,218,42,44,-95,-153,-99
-84,67,158,-1,-122,109,206,36,44,-89,-141,-81
-84,85,176,-7,-128,127,200,30,50,-89,-135,-63
-84,91,182,-13,-134,133,188,18,44,-89,-135,-57
-78,97,182,-19,-128,139,152,-6,20,-83,-135,-63
-78,97,182,-19,-128,139,128,-24,14,-83,-135,-63
-72,103,182,-19,-128,139,116,-24,8,-77,-129,-63
-72,103,182,-19,-128,139,110,-24,2,-77,-129,-63
-60,109,176,-19,-116,139,104,-35,-4,-83,-135,-57
-54,109,170,-19,-110,139,92,-41,-10,-95,-135,-57
-54,103,164,-19,-110,133,92,-53,-22,-107,-141,-57
-54,91,152,-19,-104,121,92,-53,-22,-113,-147,-57
-54,79,140,-19,-98,109,92,-53,-22,-113,-141,-63
-54,67,128,-13,-92,97,92,-41,-22,-113,-141,-63
-54,37,98,-1,-74,67,98,-35,-22,-113,-141,-75
-54,7,68,17,-62,37,98,-35,-22,-137,-159,-87
-48,-34,8,41,-32,-17,98,-47,-33,-155,-177,-111
-60,-58,-4,59,-32,-28,98,-53,-57,-173,-207,-129
-78,-82,-10,77,-38,-40,104,-47,-63,-185,-219,-153
-102,-94,2,95,-56,-40,116,-41,-69,-191,-237,-171
-102,-112,-16,107,-44,-58,128,-35,-75,-203,-249,-195
-108,-118,-16,113,-50,-64,146,-35,-75,-215,-255,-195
-108,-130,-28,119,-44,-76,152,-35,-81,-221,-261,-207
-108,-148,-34,125,-32,-94,158,-29,-81,-227,-261,-207
-114,-160,-39,137,-32,-100,170,-24,-81,-227,-267,-207
-114,-172,-51,143,-26,-112,200,-24,-81,-227,-273,-207
-120,-172,-45,143,-32,-112,212,-12,-75,-221,-273,-213
-120,-172,-45,143,-32,-112,230,-6,-63,-221,-273,-213
-120,-184,-57,149,-26,-124,248,18,-57,-221,-273,-201
-120,-184,-57,149,-26,-124,290,54,-45,-221,-261,-213
-108,-184,-69,143,-14,-130,368,84,-39,-221,-261,-219
-120,-178,-51,149,-32,-118,482,120,-33,-221,-267,-219
-120,-190,-63,155,-26,-130,548,132,-33,-233,-279,-225
-120,-190,-63,155,-26,-130,566,138,-28,-233,-279,-225
-120,-184,-57,149,-26,-124,578,162,-28,-227,-273,-225
-114,-184,-63,149,-20,-124,572,204,-28,-227,-273,-237
-114,-172,-51,143,-26,-112,536,264,2,-221,-273,-231
-90,-160,-63,125,-8,-112,476,360,32,-203,-267,-219
-54,-142,-81,95,16,-112,344,444,74,-179,-255,-213
-18,-70,-45,41,16,-58,164,528,122,-137,-225,-189
35,1,-34,-19,33,-17,-45,582,170,-101,-195,-159
83,55,-34,-66,51,13,-249,606,200,-71,-165,-135
119,97,-28,-108,69,37,-423,624,212,-59,-153,-117
149,133,-22,-138,81,55,-567,672,236,-35,-135,-99
179,169,-16,-174,93,79,-687,726,254,-23,-123,-87
191,169,-28,-180,105,73,-783,786,254,-23,-111,-87
209,151,-51,-180,129,43,-837,822,266,-18,-111,-75
209,163,-39,-186,123,55,-879,828,266,-12,-93,-69
227,193,-34,-210,129,79,-915,816,278,12,-75,-51
245,199,-39,-222,141,73,-951,798,308,42,-45,-39
269,187,-75,-228,171,49,-975,756,338,66,-39,-39
275,205,-63,-240,171,67,-963,732,368,84,-45,-39
281,235,-45,-258,165,91,-921,792,440,108,-45,-39
293,253,-34,-270,165,109,-909,828,518,144,-45,-33
329,289,-34,-306,183,127,-939,762,614,198,-21,-15
401,337,-57,-366,231,139,-987,702,722,264,38,26
491,361,-123,-426,303,115,-1077,594,812,372,128,98
563,373,-189,-468,375,91,-1167,528,884,450,218,182
665,385,-273,-522,471,49,-1221,510,992,522,302,242
779,397,-381,-588,579,1,-1317,432,1124,642,416,338
929,481,-447,-702,687,13,-1485,198,1244,846,620,500
1103,655,-447,-876,771,103,-1701,-35,1466,1170,956,776
1295,859,-435,-1074,867,211,-1971,-335,1742,1548,1358,1106
1487,1045,-435,-1260,963,301,-2289,-791,1934,1920,1778,1448
1631,1267,-357,-1452,999,457,-2558,-1271,2113,2321,2227,1814
1727,1537,-183,-1632,957,679,-2732,-1643,2323,2794,2712,2203
1787,1783,-10,-1782,897,889,-2900,-2045,2442,3262,3192,2592
1775,1999,218,-1890,771,1111,-3002,-2441,2430,3670,3630,2910
1709,2136,428,-1920,639,1279,-2966,-2644,2466,4066,3942,3126
1577,2023,446,-1800,561,1231,-2750,-2524,2736,4510,4170,3180
1427,1681,248,-1548,585,961,-2397,-2135,3174,4947,4284,3102
1253,1381,122,-1314,561,751,-2061,-1817,3318,5199,4314,2970
1127,1249,122,-1188,501,691,-1863,-1733,3030,5235,4284,2898
1037,1123,80,-1080,477,601,-1701,-1625,2652,4947,4128,2754
911,853,-51,-882,483,397,-1443,-1343,2227,4264,3690,2454
737,613,-117,-672,429,241,-1149,-1085,1670,3394,3114,2065
533,433,-99,-486,315,163,-855,-869,1112,2584,2466,1646
341,205,-135,-270,243,31,-549,-575,746,1674,1664,1106
197,-46,-249,-66,219,-148,-279,-269,458,744,746,488
95,-184,-279,35,189,-232,-105,-77,326,264,176,74
47,-172,-225,53,135,-196,-45,-12,314,198,56,-10
35,-130,-171,41,99,-148,-21,24,314,222,104,14
35,-130,-159,47,87,-148,-3,72,296,198,86,2
12,-136,-141,59,69,-142,14,120,296,186,50,-21
-12,-148,-129,77,51,-142,62,162,296,156,20,-39
-36,-184,-141,107,45,-166,110,198,260,108,-16,-63
-66,-208,-135,137,33,-172,146,216,236,66,-51,-105
-84,-232,-141,155,33,-190,194,240,218,6,-99,-141
-84,-238,-147,161,33,-196,230,258,194,-41,-141,-177
-96,-238,-135,167,22,-190,248,270,152,-95,-195,-201
-90,-238,-141,161,28,-190,248,270,122,-137,-225,-219
-90,-238,-141,161,28,-190,242,294,98,-167,-243,-225
-96,-238,-141,167,28,-196,236,294,80,-191,-249,-225
-96,-244,-147,173,28,-202,236,294,68,-191,-249,-225
-108,-244,-135,179,16,-196,242,300,62,-197,-249,-225
-114,-244,-129,179,10,-190,254,306,62,-197,-255,-237
-114,-244,-129,179,10,-190,278,324,62,-197,-261,-249
-120,-244,-123,185,4,-190,296,336,62,-209,-273,-249
-114,-250,-135,185,16,-196,302,336,62,-215,-279,-255
-108,-250,-141,179,22,-202,314,348,50,-233,-291,-261
-108,-250,-141,179,22,-202,320,354,44,-233,-291,-261
-108,-250,-141,179,22,-202,314,360,38,-239,-291,-261
-108,-250,-141,179,22,-202,320,360,32,-239,-285,-255
-108,-250,-141,179,22,-202,320,366,32,-239,-285,-255
-114,-250,-135,185,16,-196,314,372,32,-227,-279,-249
-114,-250,-135,185,16,-196,320,378,32,-227,-279,-249
-114,-250,-135,185,16,-196,320,384,32,-215,-267,-249
-114,-250,-135,185,16,-196,326,390,38,-215,-267,-249
-114,-244,-129,179,10,-190,332,402,44,-215,-267,-249
-114,-244,-129,179,10,-190,332,420,56,-215,-267,-249
-114,-244,-129,179,10,-190,332,420,62,-215,-261,-249
-108,-238,-129,173,16,-190,338,426,68,-209,-261,-249
-108,-238,-129,173,16,-190,338,438,68,-209,-261,-249
-108,-238,-129,173,16,-190,344,444,74,-209,-261,-249
-108,-238,-123,173,10,-184,350,450,74,-203,-261,-249
-108,-238,-123,173,10,-184,350,456,86,-197,-255,-243
-102,-220,-111,161,10,-166,350,462,92,-191,-255,-243
-102,-220,-111,161,10,-166,362,480,98,-191,-255,-237
-102,-208,-99,155,4,-154,362,480,110,-191,-255,-237
-96,-202,-99,149,4,-154,368,492,116,-185,-243,-237
-96,-202,-99,149,4,-154,368,504,122,-185,-243,-231
-96,-196,-93,143,4,-148,374,504,128,-173,-243,-231
-96,-190,-87,143,-2,-142,380,516,134,-167,-243,-225
-96,-190,-87,143,-2,-142,380,522,140,-167,-237,-213
-90,-190,-93,137,4,-142,374,528,134,-161,-225,-219
-90,-184,-87,137,4,-136,374,534,134,-161,-225,-219
-84,-184,-93,131,10,-142,374,540,128,-161,-219,-219
-84,-184,-93,131,10,-142,374,546,128,-155,-219,-213
-84,-172,-81,125,4,-130,374,552,134,-149,-213,-207
-84,-166,-75,125,-2,-124,380,558,134,-149,-213,-201
-78,-154,-69,113,-2,-112,386,564,140,-149,-207,-201
-78,-148,-63,113,-2,-106,386,564,140,-149,-201,-195
-84,-148,-57,113,-8,-106,386,564,140,-149,-195,-195
-84,-142,-51,113,-14,-100,386,564,140,-149,-195,-195
-90,-136,-39,113,-20,-88,392,564,140,-143,-195,-195
-84,-130,-39,107,-20,-88,392,564,140,-143,-183,-189
-84,-130,-39,107,-20,-88,398,570,134,-143,-177,-183
-84,-124,-34,101,-20,-82,398,570,134,-143,-177,-183
-84,-118,-34,101,-26,-76,404,564,122,-143,-171,-183
-84,-112,-34,95,-26,-70,410,564,122,-137,-171,-177
-84,-112,-34,95,-26,-70,422,558,104,-131,-165,-171
-84,-112,-34,95,-26,-70,422,558,98,-131,-165,-165
-84,-112,-34,95,-26,-70,428,546,74,-125,-159,-159
-84,-106,-28,95,-32,-64,428,534,68,-131,-159,-159
-84,-100,-22,89,-32,-58,440,534,50,-131,-159,-153
-84,-100,-22,89,-32,-58,440,522,38,-131,-159,-153
-84,-88,-10,83,-38,-46,440,504,8,-143,-159,-153
-84,-88,-10,83,-38,-46,440,492,-10,-149,-159,-153
-90,-94,-10,89,-44,-46,440,480,-28,-161,-165,-159
-90,-88,-4,89,-44,-40,440,462,-33,-167,-165,-165
-90,-94,-10,89,-44,-46,446,444,-63,-179,-177,-171
-90,-88,-4,89,-44,-40,446,426,-87,-191,-177,-183
-90,-88,-4,89,-44,-40,446,408,-111,-203,-183,-177
-90,-88,-4,89,-44,-40,452,384,-147,-215,-183,-177
-96,-88,2,89,-50,-40,452,354,-183,-227,-189,-171
-96,-88,2,89,-50,-40,452,324,-213,-245,-189,-171
-96,-88,2,89,-50,-40,446,294,-255,-257,-195,-171
-102,-88,8,95,-56,-34,446,264,-285,-275,-201,-183
-102,-94,2,95,-56,-40,446,228,-327,-287,-213,-183
-102,-106,-10,101,-50,-52,446,198,-369,-305,-225,-183
-108,-112,-10,107,-50,-58,440,168,-411,-323,-237,-189
-108,-118,-16,113,-50,-64,428,132,-453,-347,-243,-195
-108,-118,-16,113,-50,-64,422,102,-489,-365,-249,-195
-114,-124,-16,119,-50,-64,416,66,-525,-389,-255,-201
-114,-130,-22,119,-50,-70,410,18,-573,-407,-255,-207
-120,-136,-22,125,-50,-76,398,-18,-627,-431,-267,-207
-120,-142,-28,131,-50,-82,392,-53,-675,-455,-279,-213
-120,-148,-34,131,-44,-88,386,-95,-717,-479,-279,-219
-126,-154,-34,137,-50,-88,374,-131,-759,-497,-297,-225
-126,-160,-34,143,-44,-94,362,-173,-807,-515,-309,-231
-132,-166,-34,149,-50,-100,350,-215,-855,-533,-315,-237
-132,-172,-34,149,-44,-106,338,-245,-909,-557,-327,-243
-126,-178,-45,149,-38,-112,314,-287,-957,-581,-345,-249
-126,-184,-51,155,-32,-118,296,-323,-999,-605,-357,-255
-126,-190,-57,155,-32,-124,284,-365,-1029,-623,-369,-261
-126,-196,-63,161,-26,-130,266,-401,-1071,-653,-381,-267
-126,-202,-69,161,-26,-136,254,-437,-1113,-665,-375,-267
-126,-208,-75,167,-20,-142,248,-473,-1143,-683,-381,-267
-126,-214,-81,167,-20,-148,242,-503,-1179,-701,-393,-261
-126,-220,-87,173,-14,-154,242,-527,-1215,-719,-393,-261
-126,-232,-99,179,-8,-166,212,-563,-1239,-737,-399,-267
-126,-232,-99,179,-8,-166,200,-587,-1263,-743,-405,-267
-126,-238,-105,179,-8,-172,176,-611,-1281,-749,-405,-273
-126,-238,-105,179,-8,-172,170,-623,-1293,-755,-405,-273
-126,-238,-105,179,-8,-172,158,-647,-1317,-761,-411,-273
-126,-238,-105,179,-8,-172,146,-659,-1323,-767,-411,-273
-126,-232,-99,179,-8,-166,134,-677,-1335,-773,-417,-273
-126,-232,-99,179,-8,-166,134,-683,-1335,-767,-417,-273
-126,-232,-99,179,-8,-166,128,-677,-1335,-761,-417,-267
-126,-238,-105,179,-8,-172,116,-677,-1323,-755,-405,-267
-120,-238,-111,179,-2,-178,116,-665,-1305,-749,-399,-261
-120,-238,-111,179,-2,-178,110,-653,-1287,-731,-393,-255
-120,-238,-111,179,-2,-178,110,-635,-1245,-719,-387,-255
-120,-232,-105,173,-2,-172,110,-611,-1203,-695,-381,-249
-120,-232,-105,173,-2,-172,116,-581,-1155,-671,-375,-249
-114,-226,-105,167,-2,-166,116,-545,-1113,-647,-369,-249
-120,-220,-93,167,-8,-160,116,-509,-1059,-629,-357,-249
-120,-220,-93,167,-8,-160,116,-473,-1017,-611,-351,-237
-126,-208,-75,167,-20,-142,116,-443,-981,-593,-345,-237
-126,-208,-75,167,-20,-142,122,-401,-933,-575,-339,-237
-120,-214,-87,167,-14,-154,128,-377,-873,-551,-327,-231
-120,-208,-81,161,-14,-148,134,-347,-825,-533,-321,-231
-120,-214,-87,167,-14,-154,140,-323,-765,-503,-315,-219
-114,-208,-87,161,-8,-148,140,-287,-717,-485,-309,-219
-114,-208,-87,161,-8,-148,152,-245,-651,-449,-303,-225
-114,-208,-87,161,-8,-148,158,-203,-597,-431,-297,-225
-114,-196,-75,155,-14,-136,170,-161,-555,-407,-291,-231
-114,-196,-75,155,-14,-136,170,-131,-519,-383,-285,-225
-114,-190,-69,149,-20,-130,176,-101,-483,-371,-279,-225
-114,-190,-69,149,-20,-130,182,-83,-435,-353,-273,-225
-114,-184,-63,149,-20,-124,188,-59,-393,-335,-279,-225
-108,-178,-63,143,-20,-124,188,-47,-351,-317,-273,-225
-108,-178,-63,143,-20,-124,194,-24,-315,-305,-267,-225
-108,-178,-63,143,-20,-124,194,-12,-267,-287,-267,-219
-108,-178,-63,143,-20,-124,206,12,-243,-281,-261,-219
-108,-172,-57,137,-20,-118,206,30,-207,-263,-255,-219
-108,-172,-57,137,-20,-118,206,54,-177,-257,-255,-219
-102,-172,-63,137,-14,-118,206,66,-159,-245,-255,-219
-102,-166,-57,131,-20,-112,200,84,-141,-227,-255,-213
-102,-166,-57,131,-20,-112,200,84,-129,-221,-255,-213
-102,-166,-57,131,-20,-112,200,84,-117,-215,-255,-213
-102,-166,-57,131,-20,-112,206,84,-105,-209,-249,-213
-102,-166,-57,131,-20,-112,206,84,-93,-209,-249,-213
-102,-166,-57,131,-20,-112,206,84,-81,-203,-243,-213
-102,-160,-51,131,-20,-106,206,90,-63,-191,-243,-213
-102,-160,-51,131,-20,-106,206,90,-51,-185,-243,-213
-102,-154,-45,125,-26,-100,206,102,-45,-185,-243,-213
-96,-148,-45,119,-20,-100,206,102,-45,-185,-243,-213
-96,-148,-45,119,-20,-100,194,102,-39,-185,-243,-207
-96,-148,-45,119,-20,-100,194,102,-39,-185,-243,-207
-96,-148,-45,119,-20,-100,188,102,-33,-179,-243,-195
-96,-148,-45,119,-20,-100,188,96,-33,-179,-237,-195
-96,-154,-51,125,-20,-106,182,90,-33,-179,-237,-201
-96,-160,-57,125,-14,-112,182,84,-33,-179,-237,-201
-96,-166,-63,131,-14,-118,170,90,-33,-173,-237,-207
-96,-172,-69,131,-8,-124,170,84,-33,-173,-231,-207
-96,-166,-63,131,-14,-118,170,84,-39,-173,-225,-213
-96,-166,-63,131,-14,-118,170,78,-39,-173,-225,-213
-96,-160,-57,125,-14,-112,170,78,-39,-173,-219,-213
-96,-160,-57,125,-14,-112,164,72,-45,-173,-219,-213
-96,-160,-57,125,-14,-112,164,66,-57,-173,-225,-213
-96,-160,-57,125,-14,-112,164,60,-57,-173,-225,-213
-96,-160,-57,125,-14,-112,164,60,-63,-179,-231,-201
-96,-160,-57,125,-14,-112,158,54,-63,-179,-231,-201
-96,-160,-57,125,-14,-112,158,60,-69,-179,-231,-201
-102,-160,-51,131,-20,-106,158,54,-81,-179,-225,-195
-102,-160,-51,131,-20,-106,152,48,-87,-179,-225,-195
-102,-160,-51,131,-20,-106,152,48,-87,-179,-225,-195
-102,-160,-51,131,-20,-106,146,42,-93,-179,-225,-195
-102,-160,-51,131,-20,-106,146,42,-93,-179,-225,-195
-102,-166,-57,131,-20,-112,146,36,-99,-185,-225,-201
-102,-166,-57,131,-20,-112,146,30,-105,-185,-225,-201
-108,-166,-51,137,-26,-112,146,30,-111,-197,-225,-207
-108,-166,-51,137,-26,-112,140,24,-111,-197,-225,-207
-108,-166,-51,137,-26,-112,140,18,-111,-197,-237,-207
-108,-172,-57,137,-20,-118,140,18,-111,-197,-237,-207
-108,-172,-57,137,-20,-118,140,12,-111,-197,-243,-207
-108,-172,-57,137,-20,-118,140,12,-117,-197,-243,-207
-108,-172,-57,137,-20,-118,140,6,-117,-203,-243,-207
-108,-172,-57,137,-20,-118,134,6,-129,-209,-249,-207
-108,-172,-57,137,-20,-118,134,6,-129,-215,-249,-201
-108,-172,-57,137,-20,-118,134,6,-129,-215,-249,-201
-114,-172,-51,143,-26,-112,140,6,-129,-209,-249,-207
-114,-160,-39,137,-32,-100,140,6,-129,-209,-243,-207
-108,-154,-39,131,-32,-100,152,12,-117,-197,-237,-207
-108,-148,-34,125,-32,-94,158,24,-111,-191,-231,-195
-108,-130,-28,119,-44,-76,164,24,-105,-179,-225,-195
-108,-118,-16,113,-50,-64,182,30,-99,-173,-225,-195
-108,-106,-4,107,-56,-52,188,30,-87,-161,-219,-189
-114,-94,14,101,-68,-34,194,36,-81,-155,-219,-183
-114,-88,20,101,-68,-28,200,42,-75,-155,-213,-177
-114,-82,26,95,-74,-22,206,48,-75,-155,-207,-177
-120,-70,44,95,-86,-17,218,66,-63,-149,-201,-165
-120,-64,50,89,-86,-17,224,78,-57,-137,-189,-159
-114,-64,44,89,-80,-17,224,72,-57,-137,-195,-159
-114,-46,62,77,-92,1,230,72,-51,-131,-189,-147
-108,-40,62,71,-86,1,230,78,-51,-125,-189,-141
-102,-16,80,59,-92,25,230,84,-33,-113,-177,-129
-96,-4,86,47,-92,31,236,90,-28,-101,-165,-123
-90,13,110,29,-98,61,242,96,-28,-89,-153,-111
-90,31,128,23,-110,79,248,96,-28,-83,-141,-105
-84,49,140,11,-110,91,236,78,-28,-83,-129,-99
-78,73,158,-7,-116,115,212,60,-28,-71,-129,-93
-78,91,176,-13,-128,133,194,54,-28,-65,-117,-81
-72,109,188,-19,-128,145,182,42,-28,-65,-111,-69
-72,115,194,-19,-134,151,164,30,-28,-65,-111,-69
-72,121,200,-19,-134,157,122,6,-39,-65,-111,-69
-72,121,200,-19,-134,157,98,-12,-45,-65,-111,-69
-72,127,206,-19,-140,163,80,-18,-39,-65,-105,-63
-72,127,206,-19,-140,163,74,-24,-45,-65,-105,-63
-60,133,200,-30,-128,163,68,-24,-57,-65,-111,-57
-54,133,194,-30,-122,163,56,-29,-63,-77,-111,-57
-54,127,188,-30,-122,157,56,-41,-81,-83,-117,-57
-54,115,176,-24,-116,145,56,-41,-81,-89,-123,-57
-48,103,158,-19,-104,127,56,-35,-81,-89,-123,-57
-48,91,146,-19,-98,115,56,-24,-81,-89,-123,-57
-42,61,110,-19,-74,85,62,-24,-81,-89,-129,-63
-42,31,80,-1,-62,55,62,-24,-81,-113,-147,-75
-42,-4,32,23,-38,7,62,-35,-105,-131,-159,-99
-54,-28,20,41,-38,-11,62,-41,-129,-149,-183,-117
-78,-46,26,59,-56,-17,68,-47,-135,-161,-189,-141
-102,-58,38,77,-74,-17,80,-41,-141,-167,-201,-159
-108,-82,20,95,-68,-28,92,-29,-141,-173,-213,-177
-114,-88,20,101,-68,-28,110,-29,-141,-179,-225,-177
-120,-106,8,113,-68,-46,116,-24,-141,-179,-231,-183
-120,-124,-10,119,-56,-64,122,-24,-141,-179,-231,-183
-114,-136,-28,125,-44,-76,140,-24,-141,-185,-237,-189
-114,-148,-34,131,-38,-88,170,-18,-141,-185,-243,-189
-108,-148,-34,125,-32,-94,188,0,-135,-185,-243,-201
-108,-148,-34,125,-32,-94,206,6,-123,-185,-243,-201
-108,-148,-34,125,-32,-94,224,30,-117,-185,-231,-201
-108,-148,-34,125,-32,-94,278,66,-105,-185,-231,-201
-108,-148,-34,125,-32,-94,380,108,-99,-185,-231,-207
-120,-166,-39,143,-38,-106,458,120,-93,-197,-237,-207
-120,-166,-39,143,-38,-106,494,132,-93,-197,-249,-213
-120,-166,-39,143,-38,-106,506,162,-87,-185,-249,-213
-108,-160,-45,131,-26,-106,518,198,-75,-179,-243,-213
-102,-160,-51,131,-20,-106,494,234,-63,-167,-243,-213
-78,-136,-51,107,-8,-94,434,324,-45,-161,-243,-207
-42,-100,-51,71,10,-76,320,420,-16,-143,-225,-207
6,-46,-45,17,28,-46,170,510,38,-119,-195,-189
41,13,-34,-24,33,-11,-27,588,86,-77,-153,-165
83,67,-22,-72,45,25,-225,630,146,-41,-123,-135
119,103,-22,-108,63,43,-393,654,164,-18,-117,-123
155,133,-28,-144,87,55,-513,684,188,0,-93,-105
185,157,-34,-168,105,61,-639,738,206,24,-75,-75
203,157,-39,-180,123,55,-753,786,212,24,-87,-63
227,157,-63,-192,147,43,-819,810,212,24,-75,-63
233,175,-51,-204,141,55,-873,798,212,30,-63,-63
245,199,-39,-222,141,73,-915,792,218,48,-57,-45
275,217,-51,-246,165,79,-951,768,242,72,-39,-27
311,199,-111,-258,213,37,-993,696,260,90,-16,-10
323,199,-123,-258,225,31,-1023,606,278,114,8,-4
329,229,-99,-276,219,61,-993,618,344,156,14,8
341,265,-69,-300,207,97,-975,642,428,216,38,20
365,313,-45,-336,207,133,-999,570,494,270,74,50
377,349,-34,-360,201,163,-1017,480,566,324,98,80
437,385,-45,-408,243,169,-1071,462,668,396,158,122
533,409,-123,-474,327,139,-1173,432,776,474,230,194
647,433,-213,-534,429,109,-1281,330,860,564,332,272
761,445,-309,-600,531,61,-1377,198,944,642,434,362
875,457,-417,-666,645,13,-1503,-6,1016,744,566,458
1031,523,-507,-774,765,7,-1689,-245,1130,942,770,620
1211,703,-507,-954,855,97,-1929,-485,1328,1212,1076,872
1415,859,-549,-1134,987,151,-2193,-875,1496,1524,1430,1166
1577,1009,-561,-1290,1071,223,-2450,-1439,1574,1812,1778,1454
1691,1213,-477,-1452,1083,367,-2654,-1907,1688,2171,2179,1790
1793,1447,-345,-1620,1071,547,-2816,-2225,1856,2572,2622,2149
1871,1669,-201,-1764,1035,727,-2942,-2536,1952,2980,3078,2496
1883,1897,8,-1890,933,955,-3014,-2824,1952,3346,3486,2814
1835,2064,224,-1950,801,1147,-2990,-2956,2023,3700,3816,3042
1739,2023,278,-1884,729,1153,-2834,-2866,2281,4114,4068,3150
1601,1723,122,-1662,741,925,-2498,-2506,2628,4504,4200,3090
1397,1393,-10,-1392,699,697,-2145,-2111,2814,4756,4218,2958
1223,1219,-10,-1218,609,607,-1899,-1901,2736,4839,4188,2862
1097,1087,-16,-1092,549,535,-1695,-1739,2514,4630,4044,2730
971,889,-75,-930,519,403,-1455,-1493,2101,4030,3678,2478
815,673,-141,-744,483,259,-1161,-1229,1586,3256,3156,2125
629,487,-135,-558,381,175,-891,-995,1112,2548,2574,1724
449,283,-159,-366,303,61,-621,-719,704,1752,1838,1244
269,37,-225,-150,249,-88,-351,-389,380,864,968,644
155,-136,-291,-19,225,-214,-165,-137,230,312,302,170
83,-172,-261,35,171,-214,-81,-24,218,186,68,-10
59,-130,-195,29,123,-160,-45,12,218,186,92,-10
47,-118,-171,29,105,-142,-15,36,212,186,98,-10
35,-124,-153,41,87,-142,8,72,224,186,74,-21
0,-136,-129,65,57,-136,62,114,224,168,44,-51
-36,-160,-117,95,33,-142,110,150,206,132,-4,-75
-66,-184,-111,125,28,-148,158,186,182,78,-39,-105
-84,-196,-105,137,16,-154,206,216,152,30,-87,-129
-96,-214,-111,155,10,-166,230,258,134,-18,-129,-153
-96,-214,-111,155,10,-166,236,294,92,-83,-171,-177
-78,-226,-141,149,33,-184,224,306,50,-125,-201,-207
-78,-226,-141,149,33,-184,230,306,26,-155,-219,-225
-84,-232,-141,155,33,-190,230,300,14,-173,-231,-225
-84,-238,-147,161,33,-196,230,300,8,-173,-231,-225
-96,-238,-135,167,22,-190,242,300,8,-173,-237,-225
-102,-238,-129,167,16,-184,254,306,14,-173,-243,-237
-114,-238,-117,173,4,-178,284,330,14,-173,-249,-237
-120,-238,-111,179,-2,-178,302,342,14,-185,-255,-237
-126,-238,-111,185,-2,-178,314,348,14,-191,-255,-237
-120,-238,-117,179,4,-184,326,360,2,-209,-267,-243
-120,-238,-111,179,-2,-178,326,366,2,-209,-279,-249
-120,-238,-111,179,-2,-178,320,372,-4,-215,-279,-249
-120,-232,-105,173,-2,-172,320,372,-4,-215,-285,-255
-120,-232,-105,173,-2,-172,320,378,-4,-215,-285,-255
-120,-232,-105,173,-2,-172,320,384,-4,-209,-279,-249
-120,-232,-105,173,-2,-172,326,390,-4,-209,-279,-249
-114,-232,-111,173,4,-172,332,396,-4,-203,-267,-249
-114,-232,-111,173,4,-172,338,402,2,-203,-267,-249
-120,-226,-99,173,-8,-166,344,414,2,-203,-267,-249
-120,-226,-99,173,-8,-166,344,432,14,-203,-267,-249
-126,-226,-93,173,-14,-160,344,432,14,-203,-261,-249
-120,-220,-93,167,-8,-160,350,438,20,-197,-261,-249
-114,-220,-99,167,-2,-160,350,450,26,-197,-255,-249
-114,-220,-99,167,-2,-160,356,456,32,-197,-255,-249
-108,-214,-99,161,-2,-160,362,462,38,-191,-255,-249
-108,-214,-99,161,-2,-160,362,462,50,-185,-243,-243
-102,-202,-93,149,-2,-148,362,474,56,-179,-243,-237
-102,-202,-93,149,-2,-148,374,492,62,-179,-243,-231
-102,-196,-87,149,-2,-142,374,492,74,-179,-243,-225
-96,-190,-87,143,-2,-142,380,504,80,-173,-231,-225
-96,-190,-87,143,-2,-142,380,516,80,-179,-237,-231
-96,-184,-81,137,-2,-136,386,516,86,-167,-237,-231
-96,-178,-75,137,-8,-130,392,528,86,-167,-243,-237
-96,-178,-75,137,-8,-130,392,534,92,-167,-237,-225
-102,-178,-69,137,-14,-124,398,540,92,-155,-231,-231
-102,-172,-63,137,-14,-118,398,546,92,-155,-231,-231
-108,-172,-57,137,-20,-118,410,552,92,-149,-231,-231
-108,-172,-57,137,-20,-118,410,558,92,-143,-231,-225
-108,-166,-51,137,-26,-112,410,564,92,-137,-219,-219
-108,-160,-45,131,-26,-106,416,570,92,-137,-219,-213
-102,-154,-45,125,-26,-100,422,576,92,-137,-207,-213
-102,-148,-39,125,-26,-94,422,576,92,-137,-201,-207
-102,-142,-34,119,-32,-88,422,576,92,-137,-195,-201
-102,-136,-34,119,-32,-82,422,576,92,-137,-195,-201
-102,-124,-28,113,-38,-70,428,576,92,-131,-195,-195
-96,-118,-28,107,-38,-70,428,576,92,-131,-183,-189
-96,-124,-34,107,-32,-76,434,576,86,-131,-183,-189
-96,-118,-28,107,-38,-70,434,576,80,-131,-183,-189
-96,-118,-28,107,-38,-70,440,564,68,-131,-183,-195
-96,-112,-22,101,-38,-64,446,564,62,-125,-183,-189
-96,-106,-16,101,-44,-58,452,558,50,-125,-177,-183
-96,-106,-16,101,-44,-58,452,558,44,-125,-177,-177
-96,-100,-10,95,-44,-52,452,546,26,-125,-171,-171
-96,-94,-4,95,-50,-46,452,534,20,-131,-171,-171
-96,-88,2,89,-50,-40,464,534,2,-131,-171,-171
-96,-88,2,89,-50,-40,464,522,-10,-131,-171,-171
-96,-76,14,83,-56,-28,464,504,-28,-143,-171,-177
-96,-76,14,83,-56,-28,464,492,-45,-149,-171,-177
-102,-82,14,89,-62,-28,464,480,-63,-155,-171,-177
-102,-76,20,89,-62,-22,464,462,-81,-161,-171,-177
-102,-82,14,89,-62,-28,470,444,-111,-167,-177,-177
-102,-76,20,89,-62,-22,470,426,-135,-179,-177,-183
-108,-76,26,89,-68,-22,470,408,-159,-191,-183,-183
-108,-76,26,89,-68,-22,476,384,-195,-203,-183,-183
-120,-76,38,95,-80,-17,476,354,-231,-215,-189,-183
-120,-76,38,95,-80,-17,476,324,-261,-233,-189,-183
-114,-70,38,89,-80,-17,470,288,-297,-245,-195,-183
-120,-70,44,95,-86,-17,470,258,-333,-263,-201,-195
-114,-70,38,89,-80,-17,470,216,-375,-275,-213,-195
-114,-82,26,95,-74,-22,470,186,-417,-293,-225,-195
-120,-88,26,101,-74,-28,464,150,-459,-305,-243,-207
-120,-94,20,107,-74,-34,452,114,-501,-329,-255,-213
-120,-94,20,107,-74,-34,446,78,-531,-341,-261,-219
-126,-100,20,113,-74,-34,440,42,-573,-365,-273,-225
-126,-112,8,119,-68,-46,428,6,-621,-383,-273,-225
-132,-118,8,125,-74,-52,416,-24,-675,-407,-285,-225
-132,-130,-4,131,-68,-64,404,-53,-723,-431,-291,-225
-132,-136,-10,131,-62,-70,398,-95,-759,-455,-291,-231
-138,-142,-10,137,-68,-70,380,-137,-795,-473,-309,-243
-138,-148,-16,143,-62,-76,368,-179,-849,-497,-321,-249
-144,-154,-16,149,-68,-82,350,-227,-891,-509,-327,-255
-144,-160,-22,149,-62,-88,338,-257,-945,-533,-339,-261
-138,-160,-28,149,-56,-88,314,-293,-987,-551,-351,-261
-138,-166,-34,149,-56,-94,296,-329,-1023,-575,-363,-267
-138,-166,-34,149,-56,-94,284,-365,-1053,-587,-369,-261
-138,-172,-34,155,-50,-100,266,-401,-1095,-617,-381,-267
-138,-178,-34,155,-50,-106,248,-437,-1143,-635,-381,-273
-138,-184,-39,161,-44,-112,242,-473,-1173,-653,-387,-273
-138,-190,-45,161,-44,-118,224,-503,-1215,-677,-405,-273
-138,-196,-51,167,-38,-124,218,-527,-1245,-695,-405,-273
-138,-202,-57,167,-38,-130,194,-557,-1263,-707,-411,-279
-138,-202,-57,167,-38,-130,182,-581,-1293,-707,-417,-279
-138,-202,-57,167,-38,-130,164,-599,-1305,-713,-417,-285
-138,-202,-57,167,-38,-130,158,-611,-1317,-713,-417,-285
-144,-208,-57,173,-38,-136,146,-629,-1329,-713,-417,-279
-144,-208,-57,173,-38,-136,134,-635,-1335,-719,-417,-279
-150,-208,-51,179,-44,-130,122,-647,-1335,-719,-417,-273
-150,-208,-51,179,-44,-130,122,-647,-1335,-713,-417,-273
-150,-208,-51,179,-44,-130,116,-647,-1329,-719,-411,-267
-150,-214,-57,179,-44,-136,104,-647,-1317,-713,-399,-267
-144,-214,-63,179,-38,-142,104,-641,-1293,-713,-387,-261
-144,-214,-63,179,-38,-142,98,-629,-1275,-695,-381,-255
-138,-214,-69,173,-32,-142,86,-611,-1245,-683,-375,-255
-138,-208,-63,173,-32,-136,86,-587,-1197,-659,-369,-249
-132,-208,-69,167,-26,-142,80,-557,-1155,-635,-363,-249
-126,-202,-69,161,-26,-136,80,-521,-1113,-611,-357,-249
-126,-202,-69,161,-26,-136,80,-497,-1065,-593,-345,-249
-126,-202,-69,161,-26,-136,80,-461,-1023,-575,-339,-237
-126,-196,-63,161,-26,-130,80,-437,-993,-557,-333,-237
-126,-196,-63,161,-26,-130,86,-401,-945,-539,-327,-237
-126,-196,-63,161,-26,-130,98,-371,-891,-515,-315,-243
-126,-190,-57,155,-32,-124,104,-341,-843,-503,-309,-243
-132,-190,-51,161,-38,-124,116,-311,-789,-473,-303,-243
-126,-184,-51,155,-32,-118,116,-275,-741,-449,-297,-243
-126,-184,-51,155,-32,-118,116,-239,-675,-419,-291,-243
-126,-184,-51,155,-32,-118,122,-203,-621,-407,-285,-243
-126,-172,-39,149,-38,-106,122,-167,-579,-389,-279,-243
-126,-172,-39,149,-38,-106,122,-143,-543,-371,-273,-237
-126,-166,-34,143,-44,-100,134,-119,-507,-359,-267,-231
-126,-166,-34,143,-44,-100,140,-101,-465,-341,-261,-231
-126,-160,-34,143,-44,-94,152,-83,-423,-323,-267,-225
-120,-154,-34,137,-44,-94,152,-71,-387,-305,-261,-225
-114,-154,-34,131,-38,-94,152,-47,-357,-287,-255,-225
-114,-154,-34,131,-38,-94,152,-24,-309,-269,-255,-219
-108,-154,-39,131,-32,-100,158,-12,-285,-257,-255,-219
-108,-148,-34,125,-32,-94,158,6,-255,-245,-249,-219
-108,-148,-34,125,-32,-94,164,18,-225,-239,-249,-225
-102,-148,-39,125,-26,-94,164,30,-207,-233,-249,-225
-102,-142,-34,119,-32,-88,164,36,-189,-221,-249,-225
-102,-142,-34,119,-32,-88,164,36,-177,-221,-243,-225
-108,-142,-34,125,-38,-88,164,42,-165,-209,-243,-225
-108,-142,-34,125,-38,-88,170,42,-153,-203,-237,-225
-114,-142,-34,125,-44,-82,170,48,-141,-197,-237,-225
-114,-142,-34,125,-44,-82,170,48,-129,-191,-231,-225
-114,-142,-34,125,-44,-82,170,54,-117,-185,-231,-225
-114,-142,-34,125,-44,-82,170,54,-111,-179,-231,-225
-114,-142,-34,125,-44,-82,170,66,-111,-185,-231,-225
-108,-136,-34,119,-38,-82,170,66,-117,-185,-231,-225
-108,-136,-34,119,-38,-82,170,60,-111,-185,-231,-225
-108,-136,-34,119,-38,-82,170,60,-111,-185,-231,-225
-108,-136,-34,119,-38,-82,176,54,-105,-179,-231,-219
-108,-136,-34,119,-38,-82,176,48,-105,-179,-225,-219
-102,-136,-34,119,-32,-82,170,42,-105,-179,-231,-213
-102,-136,-34,119,-32,-82,170,36,-105,-179,-231,-213
-96,-136,-34,113,-26,-88,158,42,-105,-173,-237,-207
-96,-136,-34,113,-26,-88,158,36,-105,-173,-231,-207
-102,-136,-34,119,-32,-82,158,30,-111,-173,-231,-213
-102,-136,-34,119,-32,-82,158,24,-111,-173,-231,-213
-108,-136,-34,119,-38,-82,158,18,-111,-173,-231,-213
-108,-136,-34,119,-38,-82,152,12,-117,-173,-231,-213
-108,-136,-34,119,-38,-82,152,6,-123,-173,-219,-207
-96,-136,-34,113,-26,-88,152,12,-123,-173,-219,-207
-96,-136,-34,113,-26,-88,164,0,-123,-167,-207,-201
-108,-148,-34,125,-32,-94,158,6,-123,-167,-207,-201
-114,-136,-28,125,-44,-76,158,-6,-129,-167,-213,-195
-108,-136,-34,119,-38,-82,152,-12,-135,-173,-219,-201
-108,-136,-34,119,-38,-82,152,-12,-135,-173,-219,-201
-102,-136,-34,119,-32,-82,146,-18,-141,-179,-225,-207
-102,-136,-34,119,-32,-82,146,-18,-141,-179,-225,-207
-102,-142,-34,119,-32,-88,146,-24,-147,-179,-225,-207
-102,-142,-34,119,-32,-88,146,-24,-153,-179,-225,-207
-108,-142,-34,125,-38,-88,146,-24,-159,-185,-225,-207
-108,-142,-34,125,-38,-88,140,-24,-159,-185,-225,-207
-108,-142,-34,125,-38,-88,134,-29,-165,-185,-225,-207
-108,-148,-34,125,-32,-94,134,-29,-165,-185,-225,-207
-108,-148,-34,125,-32,-94,128,-35,-171,-185,-219,-207
-108,-148,-34,125,-32,-94,128,-35,-177,-185,-219,-207
-108,-154,-39,131,-32,-100,128,-47,-177,-185,-219,-213
-108,-154,-39,131,-32,-100,122,-47,-189,-191,-225,-213
-108,-160,-45,131,-26,-106,122,-53,-189,-191,-225,-213
-108,-160,-45,131,-26,-106,122,-53,-189,-191,-225,-213
-108,-154,-39,131,-32,-100,128,-53,-189,-191,-231,-219
-108,-142,-34,125,-38,-88,128,-53,-189,-191,-225,-219
-96,-130,-34,113,-32,-82,140,-47,-177,-185,-225,-219
-96,-124,-34,107,-32,-76,146,-35,-171,-179,-219,-207
-102,-106,-10,101,-50,-52,152,-35,-165,-173,-213,-201
-102,-94,2,95,-56,-40,170,-29,-159,-167,-213,-201
-108,-82,20,95,-68,-28,176,-29,-147,-161,-207,-189
-114,-70,38,89,-80,-17,182,-24,-141,-155,-207,-183
-114,-64,44,89,-80,-17,188,-24,-141,-149,-207,-183
-114,-58,50,83,-86,-11,194,-24,-141,-149,-201,-183
-120,-46,68,83,-98,1,206,-12,-135,-137,-201,-177
-120,-40,74,77,-98,7,212,-6,-129,-125,-189,-171
-114,-40,68,77,-92,7,212,-6,-129,-131,-195,-177
-114,-22,86,65,-104,25,218,-6,-123,-131,-189,-165
-108,-16,86,59,-98,25,218,6,-123,-131,-189,-165
-102,1,104,47,-104,49,218,12,-105,-125,-177,-153
-96,13,116,35,-104,61,224,12,-99,-107,-159,-135
-90,43,140,17,-116,91,230,18,-87,-95,-147,-123
-90,67,164,5,-128,115,236,12,-87,-83,-129,-105
-84,85,176,-7,-128,127,224,-6,-87,-83,-117,-99
-84,103,194,-19,-140,145,206,-12,-81,-71,-117,-99
-84,121,206,-19,-146,163,194,-18,-81,-65,-105,-87
-84,133,218,-19,-152,175,188,-18,-81,-65,-99,-81
-84,139,224,-19,-158,181,176,-24,-87,-65,-99,-81
-72,151,224,-30,-152,187,134,-47,-105,-71,-99,-81
-72,151,224,-30,-152,187,110,-71,-111,-71,-99,-81
-60,163,224,-42,-146,193,92,-83,-111,-77,-93,-75
-60,163,224,-42,-146,193,86,-95,-117,-77,-93,-75
-54,169,224,-48,-140,199,74,-101,-123,-71,-93,-69
-48,169,218,-54,-134,193,62,-107,-129,-83,-93,-69
-54,163,218,-48,-140,193,56,-113,-141,-83,-93,-69
-54,151,206,-42,-134,181,56,-113,-141,-89,-99,-69
-48,133,188,-36,-116,157,56,-113,-141,-89,-99,-69
-48,121,176,-30,-110,145,56,-101,-141,-89,-99,-69
-42,85,134,-19,-86,109,62,-95,-141,-89,-105,-75
-42,55,104,-13,-74,79,62,-95,-141,-113,-123,-87
-36,13,56,5,-44,31,62,-113,-165,-137,-135,-111
-48,1,44,23,-50,13,62,-119,-189,-155,-165,-129
-66,-10,50,35,-62,13,68,-119,-195,-173,-171,-153
-90,-22,62,53,-80,13,80,-113,-201,-179,-189,-171
-96,-46,44,71,-74,-11,92,-101,-195,-185,-201,-189
-108,-52,50,77,-80,-11,110,-101,-195,-191,-219,-189
-114,-70,38,89,-80,-17,116,-95,-189,-191,-225,-195
-120,-88,26,101,-74,-28,122,-89,-189,-191,-231,-195
-120,-100,14,107,-68,-40,134,-83,-195,-197,-231,-195
-120,-112,2,113,-62,-52,164,-77,-195,-197,-237,-195
-120,-112,2,113,-62,-52,176,-59,-195,-197,-231,-201
-120,-112,2,113,-62,-52,194,-53,-183,-197,-231,-201
-108,-112,-10,107,-50,-58,212,-41,-177,-197,-219,-213
-108,-100,2,101,-56,-46,254,-18,-165,-185,-219,-213
-108,-112,-10,107,-50,-58,344,24,-159,-185,-231,-219
-120,-130,-16,125,-56,-70,446,48,-153,-185,-237,-219
-120,-142,-28,131,-50,-82,494,72,-153,-185,-237,-225
-120,-130,-16,125,-56,-70,494,90,-147,-185,-237,-225
-120,-124,-10,119,-56,-64,506,126,-135,-179,-231,-225
-114,-112,-4,113,-56,-52,494,180,-111,-179,-243,-225
-90,-100,-16,95,-38,-52,422,252,-93,-173,-231,-231
-42,-64,-28,53,-8,-40,320,336,-63,-155,-225,-231
-6,-22,-22,11,4,-17,170,432,-22,-119,-207,-213
35,25,-10,-24,28,7,-3,528,26,-65,-165,-165
95,91,-10,-90,45,43,-213,582,86,-29,-135,-123
131,127,-10,-126,63,61,-381,606,104,-18,-117,-111
155,157,-4,-156,75,79,-501,624,128,0,-105,-105
185,193,2,-186,87,97,-603,684,146,12,-75,-75
215,205,-16,-210,111,97,-711,726,176,24,-63,-63
227,193,-34,-210,129,79,-771,750,176,24,-51,-63
233,199,-34,-216,129,79,-825,750,164,30,-51,-63
245,223,-28,-234,129,97,-867,720,164,36,-45,-45
263,241,-28,-252,141,109,-915,678,176,60,-27,-27
299,235,-63,-264,183,79,-963,600,206,90,-16,-27
323,235,-87,-276,207,67,-999,486,212,114,-16,-15
329,259,-63,-294,201,97,-981,462,248,144,2,-15
329,301,-34,-312,177,139,-957,486,320,192,26,-4
353,337,-22,-342,183,163,-963,456,404,234,62,26
365,373,2,-366,177,193,-993,378,470,276,86,56
413,397,-22,-402,213,193,-1011,360,572,348,134,98
515,433,-75,-474,291,175,-1101,336,698,432,212,158
611,457,-153,-528,381,151,-1209,282,788,516,296,236
725,481,-243,-600,483,115,-1293,198,866,606,398,314
851,481,-369,-666,609,49,-1425,6,926,702,518,410
1001,535,-459,-762,729,37,-1581,-257,986,846,680,524
1175,691,-483,-930,825,103,-1785,-497,1154,1086,950,740
1379,859,-519,-1116,951,169,-2043,-779,1346,1374,1286,1046
1553,997,-549,-1272,1053,223,-2301,-1271,1424,1650,1640,1328
1691,1177,-513,-1434,1101,331,-2522,-1799,1514,1956,2018,1652
1793,1411,-381,-1602,1089,511,-2696,-2171,1670,2339,2442,1994
1883,1633,-249,-1752,1065,691,-2864,-2464,1802,2746,2904,2371
1919,1849,-63,-1884,993,889,-2966,-2788,1814,3124,3336,2706
1895,2041,146,-1968,873,1093,-2966,-2992,1826,3466,3684,2958
1811,2094,278,-1956,765,1189,-2858,-2980,2023,3856,3948,3114
1697,1867,170,-1776,765,1015,-2582,-2686,2383,4246,4140,3102
1499,1531,26,-1512,735,781,-2211,-2273,2628,4534,4206,2970
1313,1297,-22,-1302,663,643,-1923,-2003,2598,4636,4200,2862
1169,1171,-4,-1170,579,583,-1725,-1859,2406,4528,4104,2754
1049,991,-51,-1020,549,469,-1497,-1625,2053,4018,3798,2550
887,763,-117,-822,507,319,-1227,-1355,1550,3256,3288,2215
689,571,-111,-630,399,223,-951,-1115,1076,2572,2724,1832
497,379,-111,-438,303,133,-681,-857,692,1884,2059,1388
323,145,-177,-234,255,-17,-411,-527,344,1038,1202,806
191,-52,-249,-60,219,-148,-189,-257,152,372,434,248
107,-124,-237,-1,171,-178,-69,-95,116,150,80,-21
71,-82,-159,-1,111,-118,-21,-47,116,150,68,-45
59,-58,-123,-7,87,-88,-3,-24,110,138,86,-21
35,-76,-117,11,75,-94,14,0,134,126,62,-45
12,-88,-93,35,45,-94,62,54,146,120,32,-63
-24,-112,-81,65,33,-100,122,102,134,96,8,-75
-66,-136,-63,101,4,-100,170,126,110,42,-27,-105
-84,-148,-57,113,-8,-106,218,174,92,-6,-87,-141
-84,-154,-63,119,-8,-112,248,222,62,-41,-117,-165
-96,-154,-51,125,-20,-106,266,246,20,-95,-159,-201
-90,-166,-69,125,-8,-118,254,246,-10,-149,-201,-243
-90,-166,-69,125,-8,-118,260,246,-33,-179,-231,-255
-96,-172,-69,131,-8,-124,254,240,-51,-203,-243,-255
-96,-178,-75,137,-8,-130,254,240,-57,-203,-249,-255
-108,-178,-63,143,-20,-124,260,240,-63,-209,-255,-255
-114,-178,-57,143,-26,-118,278,246,-57,-209,-261,-267
-120,-178,-51,149,-32,-118,296,270,-57,-203,-267,-267
-126,-178,-45,149,-38,-112,314,282,-57,-215,-279,-267
-126,-184,-51,155,-32,-118,314,288,-57,-215,-279,-267
-120,-184,-57,149,-26,-124,326,300,-69,-233,-291,-273
-120,-184,-57,149,-26,-124,332,312,-69,-239,-291,-279
-120,-184,-57,149,-26,-124,326,324,-75,-245,-291,-279
-120,-184,-57,149,-26,-124,332,330,-75,-251,-285,-279
-120,-184,-57,149,-26,-124,332,342,-75,-251,-285,-279
-120,-178,-51,149,-32,-118,332,342,-75,-245,-291,-273
-120,-178,-51,149,-32,-118,338,348,-75,-245,-291,-273
-114,-172,-51,143,-26,-112,344,348,-75,-239,-291,-273
-114,-172,-51,143,-26,-112,350,354,-69,-239,-291,-273
-120,-172,-45,143,-32,-112,356,366,-69,-233,-285,-273
-120,-172,-45,143,-32,-112,356,384,-57,-233,-285,-273
-126,-178,-45,149,-38,-112,356,384,-57,-227,-273,-267
-120,-172,-45,143,-32,-112,362,390,-51,-221,-273,-267
-120,-166,-39,143,-38,-106,362,402,-45,-227,-273,-261
-120,-166,-39,143,-38,-106,368,408,-39,-227,-273,-261
-120,-154,-34,137,-44,-94,374,414,-33,-227,-273,-255
-120,-154,-34,137,-44,-94,374,420,-28,-221,-261,-249
-114,-148,-34,131,-38,-88,374,432,-28,-221,-261,-255
-114,-148,-34,131,-38,-88,386,450,-28,-221,-261,-255
-114,-148,-34,131,-38,-88,386,450,-22,-227,-261,-261
-108,-142,-34,125,-38,-88,392,462,-16,-221,-255,-267
-108,-136,-34,119,-38,-82,392,474,-10,-215,-255,-261
-108,-130,-28,119,-44,-76,398,474,-4,-203,-255,-261
-108,-118,-16,113,-50,-64,404,492,2,-191,-261,-255
-108,-118,-16,113,-50,-64,404,498,8,-191,-255,-249
-102,-118,-22,107,-44,-64,410,498,14,-185,-249,-249
-102,-112,-16,107,-44,-58,410,504,14,-185,-249,-249
-96,-112,-22,101,-38,-64,422,504,20,-185,-243,-243
-96,-112,-22,101,-38,-64,422,510,20,-179,-243,-237
-96,-100,-10,95,-44,-52,422,516,20,-173,-237,-231
-96,-94,-4,95,-50,-46,428,522,20,-173,-237,-225
-90,-82,2,83,-50,-34,434,528,20,-173,-231,-225
-90,-76,8,83,-50,-28,434,528,20,-173,-225,-219
-96,-76,14,83,-56,-28,434,528,20,-167,-219,-219
-96,-70,20,83,-62,-22,434,528,20,-167,-219,-219
-102,-64,32,83,-68,-17,440,528,20,-155,-219,-219
-96,-58,32,77,-68,-17,440,528,20,-155,-207,-213
-96,-58,32,77,-68,-17,452,534,14,-161,-201,-213
-96,-52,38,71,-68,-17,452,534,14,-161,-201,-213
-96,-46,44,71,-74,-11,464,528,2,-167,-195,-219
-96,-40,50,65,-74,-5,470,528,2,-161,-195,-213
-90,-40,44,65,-68,-5,470,522,-16,-161,-195,-207
-90,-40,44,65,-68,-5,470,522,-22,-161,-195,-201
-84,-40,38,59,-62,-11,464,510,-33,-161,-195,-195
-84,-34,44,59,-68,-5,464,498,-39,-167,-195,-195
-84,-28,50,53,-68,1,476,498,-51,-167,-195,-195
-84,-28,50,53,-68,1,476,486,-63,-167,-195,-195
-84,-16,62,47,-74,13,476,468,-87,-179,-195,-201
-84,-16,62,47,-74,13,476,462,-105,-185,-195,-201
-90,-16,68,53,-80,19,476,444,-129,-191,-189,-195
-90,-10,74,47,-86,25,476,420,-147,-197,-189,-195
-90,-10,74,47,-86,25,482,396,-183,-203,-189,-189
-90,-4,80,47,-86,31,482,378,-207,-215,-189,-195
-90,-10,74,47,-86,25,476,366,-231,-227,-195,-195
-90,-10,74,47,-86,25,482,342,-267,-239,-195,-195
-96,-16,74,53,-86,19,476,318,-297,-251,-201,-195
-96,-16,74,53,-86,19,476,288,-327,-263,-201,-195
-102,-10,86,53,-98,31,470,258,-363,-269,-213,-195
-108,-10,92,59,-104,31,470,228,-399,-293,-219,-207
-114,-10,98,59,-110,37,470,198,-435,-299,-237,-207
-114,-22,86,65,-104,25,470,162,-477,-317,-249,-207
-120,-28,86,71,-104,19,458,126,-519,-335,-255,-219
-120,-34,80,77,-104,13,446,90,-561,-359,-267,-225
-120,-34,80,77,-104,13,434,54,-603,-377,-273,-231
-126,-40,80,83,-104,13,428,18,-645,-401,-285,-237
-126,-46,74,83,-104,7,422,-24,-687,-419,-291,-243
-132,-52,74,89,-104,1,410,-47,-741,-443,-303,-243
-132,-58,68,95,-104,-5,404,-89,-777,-467,-315,-249
-132,-64,62,95,-98,-11,398,-131,-819,-491,-315,-249
-138,-70,62,101,-104,-11,386,-173,-861,-503,-327,-255
-138,-76,56,107,-98,-17,374,-215,-915,-527,-339,-261
-144,-82,56,113,-104,-17,362,-263,-963,-545,-339,-267
-144,-88,50,113,-98,-17,350,-287,-1011,-569,-351,-273
-144,-94,44,119,-98,-22,326,-329,-1053,-587,-363,-279
-144,-100,38,119,-92,-28,308,-365,-1095,-611,-375,-285
-150,-106,38,125,-98,-28,296,-401,-1125,-623,-381,-285
-150,-112,32,131,-92,-34,278,-437,-1167,-653,-393,-291
-150,-118,26,131,-92,-40,260,-473,-1209,-665,-393,-291
-150,-124,20,137,-86,-46,248,-509,-1239,-683,-399,-291
-150,-130,14,137,-86,-52,236,-533,-1269,-701,-417,-285
-150,-136,8,143,-80,-58,230,-563,-1305,-719,-417,-285
-144,-142,-4,143,-74,-70,206,-593,-1335,-737,-423,-291
-144,-142,-4,143,-74,-70,194,-617,-1365,-743,-429,-291
-138,-142,-10,137,-68,-70,176,-635,-1389,-749,-429,-297
-138,-142,-10,137,-68,-70,170,-647,-1401,-755,-429,-297
-138,-148,-16,143,-62,-76,152,-665,-1413,-755,-435,-297
-138,-148,-16,143,-62,-76,140,-671,-1413,-761,-435,-297
-138,-148,-16,143,-62,-76,122,-683,-1413,-761,-441,-297
-138,-148,-16,143,-62,-76,122,-683,-1407,-755,-441,-297
-138,-148,-16,143,-62,-76,116,-683,-1413,-755,-435,-285
-138,-154,-22,143,-62,-82,104,-683,-1401,-749,-423,-285
-132,-154,-28,143,-56,-88,104,-677,-1389,-749,-411,-273
-132,-154,-28,143,-56,-88,98,-665,-1371,-731,-405,-267
-132,-154,-28,143,-56,-88,92,-647,-1329,-725,-405,-273
-132,-148,-22,137,-56,-82,92,-623,-1281,-701,-399,-261
-132,-148,-22,137,-56,-82,92,-593,-1239,-683,-399,-267
-126,-142,-22,131,-56,-76,92,-557,-1197,-659,-393,-267
-126,-148,-28,137,-50,-82,92,-533,-1149,-647,-381,-273
-126,-148,-28,137,-50,-82,92,-503,-1107,-629,-375,-261
-126,-148,-28,137,-50,-82,92,-485,-1071,-617,-369,-267
-126,-148,-28,137,-50,-82,98,-449,-1023,-599,-363,-267
-120,-142,-28,131,-50,-82,98,-413,-975,-575,-351,-261
-120,-136,-22,125,-50,-76,104,-383,-927,-557,-345,-255
-120,-130,-16,125,-56,-70,104,-347,-873,-527,-339,-249
-114,-124,-16,119,-50,-64,104,-311,-819,-503,-333,-243
-114,-124,-16,119,-50,-64,104,-275,-753,-473,-327,-243
-114,-124,-16,119,-50,-64,110,-245,-699,-455,-321,-243
-114,-112,-4,113,-56,-52,110,-215,-651,-431,-315,-243
-114,-112,-4,113,-56,-52,110,-191,-615,-407,-309,-237
-114,-112,-4,113,-56,-52,122,-161,-579,-401,-297,-243
-114,-112,-4,113,-56,-52,128,-143,-537,-383,-291,-243
-114,-112,-4,113,-56,-52,140,-119,-507,-371,-291,-249
-108,-106,-4,107,-56,-52,140,-107,-471,-353,-285,-249
-108,-106,-4,107,-56,-52,140,-89,-429,-335,-279,-243
-108,-106,-4,107,-56,-52,140,-65,-381,-317,-279,-237
-108,-106,-4,107,-56,-52,146,-47,-345,-305,-273,-231
-108,-100,2,101,-56,-46,146,-29,-309,-287,-267,-231
-108,-100,2,101,-56,-46,152,-24,-279,-275,-267,-231
-102,-100,-4,101,-50,-46,152,-12,-261,-269,-267,-231
-102,-94,2,95,-56,-40,152,0,-243,-257,-267,-225
-102,-94,2,95,-56,-40,152,0,-225,-257,-261,-225
-102,-94,2,95,-56,-40,152,12,-219,-251,-255,-225
-102,-94,2,95,-56,-40,158,12,-207,-245,-255,-225
-102,-94,2,95,-56,-40,158,24,-201,-245,-249,-225
-102,-94,2,95,-56,-40,158,24,-189,-239,-243,-225
-102,-94,2,95,-56,-40,158,24,-171,-227,-249,-231
-102,-94,2,95,-56,-40,158,24,-159,-221,-249,-231
-102,-94,2,95,-56,-40,158,30,-153,-221,-255,-237
-96,-88,2,89,-50,-40,158,30,-153,-221,-255,-237
-96,-88,2,89,-50,-40,152,24,-159,-215,-255,-231
-96,-88,2,89,-50,-40,152,24,-159,-215,-255,-231
-96,-88,2,89,-50,-40,152,18,-165,-203,-255,-219
-96,-88,2,89,-50,-40,152,12,-165,-203,-249,-219
-96,-88,2,89,-50,-40,152,6,-165,-203,-249,-219
-96,-88,2,89,-50,-40,152,0,-165,-203,-249,-219
-96,-88,2,89,-50,-40,146,6,-165,-197,-249,-219
-96,-88,2,89,-50,-40,146,0,-165,-197,-243,-219
-96,-88,2,89,-50,-40,140,0,-171,-203,-249,-225
-96,-88,2,89,-50,-40,140,-6,-171,-203,-249,-225
-96,-88,2,89,-50,-40,134,-6,-171,-209,-255,-225
-96,-88,2,89,-50,-40,128,-12,-177,-209,-255,-225
-96,-88,2,89,-50,-40,128,-18,-183,-209,-255,-231
-96,-88,2,89,-50,-40,128,-24,-183,-209,-255,-231
-96,-88,2,89,-50,-40,128,-24,-183,-215,-255,-225
-96,-88,2,89,-50,-40,122,-24,-183,-215,-255,-225
-96,-100,-10,95,-44,-52,122,-24,-189,-203,-243,-225
-96,-100,-10,95,-44,-52,122,-29,-195,-209,-243,-213
-96,-100,-10,95,-44,-52,122,-29,-207,-209,-249,-213
-96,-100,-10,95,-44,-52,122,-35,-201,-209,-249,-213
-90,-100,-16,95,-38,-52,122,-41,-213,-215,-249,-219
-96,-106,-16,101,-44,-58,116,-47,-213,-221,-249,-219
-96,-106,-16,101,-44,-58,116,-47,-213,-221,-249,-219
-102,-112,-16,107,-44,-58,110,-53,-213,-227,-249,-219
-102,-112,-16,107,-44,-58,110,-53,-213,-227,-249,-219
-102,-118,-22,107,-44,-64,110,-59,-219,-227,-249,-219
-102,-118,-22,107,-44,-64,110,-65,-225,-227,-249,-219
-108,-118,-16,113,-50,-64,110,-65,-231,-233,-249,-219
-108,-118,-16,113,-50,-64,104,-71,-231,-233,-249,-219
-108,-112,-10,107,-50,-58,104,-77,-237,-233,-255,-219
-108,-118,-16,113,-50,-64,104,-77,-237,-233,-255,-219
-108,-112,-10,107,-50,-58,104,-83,-243,-233,-255,-219
-108,-112,-10,107,-50,-58,104,-83,-249,-233,-255,-219
-108,-112,-10,107,-50,-58,104,-89,-249,-233,-255,-219
-108,-112,-10,107,-50,-58,98,-89,-261,-239,-261,-219
-108,-112,-10,107,-50,-58,98,-89,-261,-239,-267,-213
-108,-112,-10,107,-50,-58,98,-89,-261,-239,-267,-213
-114,-112,-4,113,-56,-52,104,-83,-255,-233,-267,-219
-114,-100,8,107,-62,-40,104,-83,-255,-233,-261,-219
-108,-94,8,101,-62,-40,116,-71,-237,-221,-255,-219
-108,-88,14,95,-62,-34,122,-59,-231,-215,-255,-207
-108,-70,32,89,-74,-17,128,-53,-225,-209,-243,-207
-108,-58,44,83,-80,-17,146,-47,-219,-203,-243,-207
-108,-46,56,77,-86,-5,152,-41,-207,-197,-231,-201
-114,-34,74,71,-98,13,158,-35,-201,-191,-231,-195
-108,-34,68,71,-92,7,158,-41,-201,-197,-237,-189
-108,-28,74,65,-92,13,164,-41,-201,-197,-231,-189
-108,-22,80,65,-98,19,170,-35,-195,-197,-237,-177
-108,-16,86,59,-98,25,176,-29,-189,-185,-225,-171
-114,-10,98,59,-110,37,188,-29,-189,-185,-225,-177
-114,1,116,53,-116,55,194,-29,-189,-179,-219,-165
-120,7,134,47,-128,67,206,-24,-189,-173,-213,-165
-114,31,152,35,-134,91,206,-24,-177,-161,-201,-153
-102,55,164,17,-134,109,206,-12,-165,-143,-189,-141
-96,85,188,-1,-140,133,206,-6,-147,-131,-177,-129
-90,115,206,-19,-152,163,206,0,-141,-119,-165,-117
-84,133,218,-19,-152,175,188,-18,-135,-119,-153,-111
-78,145,224,-24,-152,187,164,-24,-129,-107,-153,-99
-78,163,242,-36,-164,205,152,-24,-129,-101,-141,-87
-72,169,242,-42,-158,205,140,-29,-129,-101,-135,-69
-72,175,248,-42,-164,211,128,-41,-135,-101,-135,-69
-66,187,254,-54,-164,223,98,-71,-159,-101,-135,-75
-66,187,254,-54,-164,223,74,-89,-165,-101,-135,-75
-60,199,260,-60,-164,223,68,-101,-171,-101,-129,-75
-60,199,260,-60,-164,223,62,-107,-177,-101,-129,-75
-54,193,248,-60,-152,223,50,-107,-177,-101,-129,-75
-48,193,242,-66,-146,217,38,-113,-183,-113,-129,-75
-54,175,230,-54,-146,205,32,-113,-189,-119,-129,-81
-54,163,218,-48,-140,193,32,-113,-189,-125,-135,-81
-54,145,206,-36,-128,175,38,-113,-189,-125,-135,-81
-54,133,194,-30,-122,163,38,-101,-189,-125,-135,-81
-54,97,158,-19,-104,127,50,-95,-189,-125,-141,-87
-54,67,128,-13,-92,97,50,-95,-189,-149,-159,-99
-54,25,86,5,-68,55,50,-113,-219,-179,-183,-123
-66,7,80,23,-74,43,50,-119,-243,-197,-213,-141
-90,1,92,41,-92,43,56,-119,-255,-221,-231,-165
-114,1,110,53,-116,49,68,-113,-261,-227,-249,-183
-108,-22,80,65,-98,19,74,-101,-255,-227,-249,-201
-114,-28,80,71,-98,19,92,-101,-255,-233,-255,-201
-108,-46,56,77,-86,-5,92,-95,-249,-227,-255,-207
-108,-64,38,83,-74,-17,98,-89,-249,-227,-255,-207
-114,-76,32,95,-74,-17,116,-83,-249,-233,-255,-207
-114,-88,20,101,-68,-28,146,-77,-249,-233,-255,-207
-120,-88,26,101,-74,-28,164,-59,-243,-233,-255,-213
-120,-88,26,101,-74,-28,182,-53,-231,-233,-255,-213
-108,-88,14,95,-62,-34,200,-24,-225,-233,-255,-201
-108,-88,14,95,-62,-34,254,6,-213,-221,-255,-201
-108,-88,14,95,-62,-34,356,36,-207,-221,-255,-207
-120,-106,8,113,-68,-46,446,60,-213,-233,-267,-219
-120,-106,8,113,-68,-46,482,84,-201,-233,-267,-225
-108,-106,-4,107,-56,-52,494,102,-195,-233,-267,-225
-108,-88,14,95,-62,-34,488,138,-183,-227,-273,-237
-102,-76,20,89,-62,-22,446,192,-159,-203,-273,-225
-66,-64,-4,65,-32,-28,362,264,-129,-197,-273,-219
-30,-40,-16,35,-8,-22,230,372,-99,-179,-255,-219
6,1,2,-13,4,1,38,462,-45,-155,-231,-213
41,73,26,-54,16,49,-147,564,-10,-113,-201,-177
95,139,38,-114,33,91,-351,594,38,-89,-183,-147
131,175,38,-150,39,109,-519,606,56,-59,-165,-123
155,193,32,-174,57,115,-633,636,80,-47,-153,-105
173,229,50,-198,57,139,-729,684,98,-35,-123,-99
203,241,32,-222,81,139,-801,738,116,-23,-111,-87
215,241,20,-228,93,133,-855,750,128,-18,-99,-75
233,241,8,-240,105,127,-885,726,116,-18,-87,-63
233,253,20,-246,99,139,-915,678,116,-12,-81,-57
251,271,20,-258,111,151,-951,606,128,12,-63,-51
275,265,-16,-270,141,127,-1005,504,146,30,-45,-39
287,265,-28,-276,153,121,-1011,420,164,54,-39,-39
293,283,-16,-288,153,139,-993,408,224,84,-33,-27
293,325,26,-306,129,181,-975,444,296,132,-21,-27
317,349,26,-330,141,193,-975,408,392,192,-16,-10
353,385,26,-366,159,211,-993,366,482,240,14,20
413,421,2,-414,201,217,-1047,336,584,312,86,86
515,445,-63,-480,285,187,-1149,264,674,408,176,158
611,469,-141,-534,375,163,-1221,216,752,480,260,236
713,469,-243,-588,477,109,-1281,174,854,570,350,302
839,481,-357,-660,597,55,-1413,-6,938,678,470,398
989,571,-411,-774,699,79,-1605,-275,1022,882,704,572
1163,757,-399,-960,777,181,-1821,-515,1220,1182,1040,848
1391,931,-459,-1158,927,229,-2091,-863,1418,1512,1442,1166
1565,1105,-459,-1332,1011,319,-2397,-1379,1490,1824,1814,1490
1691,1327,-357,-1506,1023,481,-2606,-1847,1610,2189,2251,1862
1781,1561,-219,-1674,1005,673,-2756,-2183,1760,2644,2736,2251
1847,1807,-34,-1824,945,883,-2900,-2536,1838,3088,3216,2628
1847,2023,176,-1938,831,1099,-2978,-2860,1790,3448,3618,2940
1763,2136,368,-1950,699,1249,-2930,-2980,1850,3808,3930,3150
1661,1987,326,-1824,663,1159,-2702,-2758,2167,4228,4158,3180
1499,1645,146,-1566,675,895,-2361,-2309,2580,4612,4272,3078
1325,1369,38,-1344,639,709,-2049,-2003,2628,4816,4302,2958
1187,1237,50,-1212,561,649,-1875,-1913,2329,4792,4284,2886
1073,1087,8,-1080,525,547,-1683,-1763,1988,4420,4092,2730
947,841,-99,-894,519,367,-1419,-1475,1610,3688,3636,2424
761,625,-129,-690,447,241,-1113,-1217,1142,2908,3054,2041
557,457,-99,-504,327,175,-831,-977,734,2195,2401,1610
365,229,-135,-294,255,43,-549,-659,458,1368,1544,1034
209,1,-213,-96,207,-106,-291,-353,224,558,656,434
107,-100,-213,-13,159,-154,-141,-161,140,186,140,50
59,-88,-153,5,105,-118,-93,-83,176,138,32,-21
47,-46,-99,-7,69,-70,-81,-47,188,138,80,-10
35,-46,-87,-1,57,-64,-51,-12,182,126,74,-10
24,-64,-81,17,45,-76,3,36,194,114,50,-21
0,-88,-81,41,33,-88,38,66,194,84,20,-39
-36,-112,-69,71,22,-94,86,102,170,36,-16,-75
-66,-136,-63,101,4,-100,134,138,158,-6,-75,-117
-84,-148,-57,113,-8,-106,182,186,152,-41,-123,-141
-84,-154,-63,119,-8,-112,206,204,134,-89,-177,-177
-84,-142,-51,113,-14,-100,212,222,116,-143,-231,-213
-78,-142,-57,107,-8,-100,200,234,86,-185,-255,-243
-78,-154,-69,113,-2,-112,206,234,74,-215,-273,-237
-84,-160,-69,119,-2,-118,206,234,56,-233,-273,-237
-84,-166,-75,125,-2,-124,206,234,50,-233,-273,-237
-96,-166,-63,131,-14,-118,218,240,44,-233,-267,-237
-102,-166,-57,131,-20,-112,236,246,50,-233,-273,-249
-108,-166,-51,137,-26,-112,248,270,50,-233,-285,-249
-114,-166,-45,137,-32,-106,266,282,50,-245,-297,-249
-114,-172,-51,143,-26,-112,266,288,50,-251,-303,-255
-108,-172,-57,137,-20,-118,278,300,38,-263,-315,-261
-108,-172,-57,137,-20,-118,284,306,44,-263,-315,-267
-108,-172,-57,137,-20,-118,278,312,44,-269,-315,-267
-108,-172,-57,137,-20,-118,284,312,50,-269,-309,-267
-108,-172,-57,137,-20,-118,284,318,56,-269,-309,-267
-114,-172,-51,143,-26,-112,284,324,56,-263,-309,-267
-114,-172,-51,143,-26,-112,290,330,56,-263,-309,-267
-114,-172,-51,143,-26,-112,296,336,56,-257,-303,-273
-114,-172,-51,143,-26,-112,302,342,62,-257,-303,-273
-114,-160,-39,137,-32,-100,308,354,68,-257,-303,-267
-114,-160,-39,137,-32,-100,308,372,80,-257,-303,-267
-114,-154,-34,131,-38,-94,308,372,86,-257,-297,-255
-108,-148,-34,125,-32,-94,314,378,92,-257,-297,-255
-108,-148,-34,125,-32,-94,314,396,98,-257,-291,-255
-108,-148,-34,125,-32,-94,320,402,104,-257,-291,-255
-108,-142,-34,125,-38,-88,326,414,110,-251,-285,-255
-108,-142,-34,125,-38,-88,326,420,122,-245,-273,-249
-102,-136,-34,119,-32,-82,326,426,134,-239,-279,-249
-102,-136,-34,119,-32,-82,338,444,140,-239,-279,-249
-102,-136,-34,119,-32,-82,338,438,158,-239,-285,-249
-96,-130,-34,113,-32,-82,344,450,164,-233,-273,-249
-96,-130,-34,113,-32,-82,344,462,164,-239,-273,-249
-96,-124,-34,107,-32,-76,350,462,170,-227,-273,-249
-96,-118,-28,107,-38,-70,356,468,170,-227,-273,-249
-96,-118,-28,107,-38,-70,356,474,176,-227,-267,-237
-96,-118,-28,107,-38,-70,362,486,182,-215,-255,-237
-96,-112,-22,101,-38,-64,362,492,188,-215,-255,-237
-96,-112,-22,101,-38,-64,374,504,194,-209,-255,-231
-96,-112,-22,101,-38,-64,374,510,200,-203,-255,-225
-96,-100,-10,95,-44,-52,374,510,206,-191,-243,-219
-96,-94,-4,95,-50,-46,380,516,206,-191,-243,-213
-90,-82,2,83,-50,-34,386,516,212,-185,-231,-213
-90,-76,8,83,-50,-28,386,516,212,-185,-225,-207
-84,-76,2,77,-44,-34,386,522,212,-185,-225,-207
-84,-70,8,77,-50,-28,386,522,212,-185,-225,-207
-78,-64,8,71,-44,-22,392,528,212,-179,-231,-207
-72,-58,8,65,-44,-22,392,528,212,-179,-219,-201
-78,-58,14,65,-50,-17,398,528,206,-185,-225,-195
-78,-52,20,65,-50,-17,398,528,206,-185,-225,-195
-84,-46,32,65,-62,-17,404,516,194,-191,-231,-195
-84,-40,38,59,-62,-11,410,516,194,-185,-231,-189
-78,-34,38,53,-62,-5,416,510,182,-185,-219,-189
-78,-34,38,53,-62,-5,416,510,176,-185,-219,-183
-72,-28,38,47,-56,-5,416,498,158,-185,-207,-183
-72,-22,44,47,-62,1,416,486,152,-191,-207,-183
-78,-28,44,53,-62,1,434,492,140,-197,-207,-177
-78,-28,44,53,-62,1,434,480,128,-197,-207,-177
-84,-28,50,53,-68,1,440,468,104,-215,-207,-177
-84,-28,50,53,-68,1,440,462,86,-221,-207,-177
-90,-28,56,59,-74,7,446,450,68,-221,-207,-177
-90,-22,62,53,-80,13,446,426,50,-227,-207,-177
-90,-22,62,53,-80,13,458,408,20,-227,-213,-177
-90,-16,68,53,-80,19,458,390,-4,-239,-213,-183
-90,-16,68,53,-80,19,464,372,-28,-251,-219,-183
-90,-16,68,53,-80,19,470,348,-51,-257,-219,-183
-96,-16,74,53,-86,19,476,318,-87,-269,-225,-183
-96,-16,74,53,-86,19,476,288,-117,-287,-225,-183
-96,-16,74,53,-86,19,470,264,-147,-299,-225,-177
-102,-16,80,59,-92,25,470,234,-177,-323,-231,-189
-102,-22,74,59,-92,19,470,210,-207,-335,-237,-183
-102,-34,62,65,-86,7,470,174,-243,-353,-249,-183
-108,-40,62,71,-86,1,464,138,-291,-371,-261,-195
-108,-46,56,77,-86,-5,452,102,-333,-395,-273,-201
-108,-46,56,77,-86,-5,446,66,-381,-413,-285,-207
-114,-52,56,83,-86,-5,440,30,-423,-437,-297,-213
-120,-58,56,89,-92,-11,428,-6,-471,-461,-309,-225
-126,-64,56,95,-92,-11,416,-29,-519,-491,-321,-231
-132,-70,56,101,-98,-17,404,-65,-567,-515,-339,-243
-132,-76,50,101,-92,-17,398,-107,-609,-545,-339,-249
-138,-82,50,107,-98,-17,380,-137,-651,-569,-357,-249
-138,-88,44,113,-92,-17,368,-179,-705,-593,-369,-255
-144,-94,44,119,-98,-22,350,-215,-753,-617,-375,-255
-144,-100,38,119,-92,-28,338,-245,-801,-641,-387,-261
-144,-112,26,125,-86,-40,320,-281,-849,-659,-393,-261
-144,-118,20,131,-86,-46,302,-317,-891,-683,-405,-267
-150,-130,14,137,-86,-52,296,-353,-927,-695,-405,-261
-150,-136,8,143,-80,-58,278,-389,-969,-725,-417,-267
-150,-142,2,143,-80,-64,254,-425,-999,-743,-423,-279
-150,-148,-4,149,-74,-70,248,-461,-1029,-755,-429,-279
-150,-154,-10,149,-74,-76,224,-491,-1059,-779,-453,-285
-150,-160,-16,155,-68,-82,218,-515,-1095,-797,-453,-285
-150,-166,-22,155,-68,-88,200,-539,-1125,-809,-465,-291
-150,-166,-22,155,-68,-88,188,-563,-1155,-815,-471,-291
-150,-166,-22,155,-68,-88,176,-575,-1179,-821,-477,-297
-150,-166,-22,155,-68,-88,170,-587,-1191,-827,-477,-297
-144,-172,-34,155,-56,-100,152,-611,-1203,-833,-477,-297
-144,-172,-34,155,-56,-100,140,-617,-1209,-839,-477,-297
-138,-172,-34,155,-50,-100,122,-635,-1209,-845,-477,-297
-138,-172,-34,155,-50,-100,122,-635,-1209,-839,-477,-297
-144,-172,-34,155,-56,-100,116,-629,-1209,-839,-471,-285
-144,-178,-34,161,-56,-106,104,-629,-1197,-833,-459,-285
-144,-178,-34,161,-56,-106,104,-617,-1179,-827,-447,-273
-144,-178,-34,161,-56,-106,98,-605,-1161,-809,-441,-267
-144,-178,-34,161,-56,-106,98,-581,-1113,-797,-435,-267
-144,-172,-34,155,-56,-100,98,-557,-1065,-773,-429,-255
-144,-172,-34,155,-56,-100,104,-521,-1011,-749,-423,-255
-138,-166,-34,149,-56,-94,104,-491,-975,-731,-417,-255
-138,-172,-34,155,-50,-100,104,-455,-921,-707,-405,-255
-138,-172,-34,155,-50,-100,104,-419,-873,-689,-399,-249
-138,-172,-34,155,-50,-100,104,-389,-831,-665,-393,-249
-138,-172,-34,155,-50,-100,110,-353,-777,-647,-387,-249
-132,-172,-34,149,-44,-106,110,-323,-717,-623,-381,-249
-132,-166,-34,149,-50,-100,116,-293,-669,-605,-375,-249
-132,-166,-34,149,-50,-100,116,-263,-603,-575,-375,-243
-126,-160,-34,143,-44,-94,116,-233,-549,-551,-369,-243
-126,-160,-34,143,-44,-94,128,-197,-483,-515,-357,-243
-126,-160,-34,143,-44,-94,134,-161,-423,-503,-351,-243
-126,-148,-28,137,-50,-82,146,-131,-375,-479,-339,-243
-126,-148,-28,137,-50,-82,146,-107,-333,-455,-333,-237
-126,-142,-22,131,-56,-76,152,-77,-291,-437,-321,-231
-126,-142,-22,131,-56,-76,158,-59,-249,-419,-315,-231
-126,-136,-16,131,-56,-70,164,-35,-207,-395,-315,-225
-120,-130,-16,125,-56,-70,164,-24,-165,-377,-309,-225
-114,-130,-22,119,-50,-70,170,-12,-123,-359,-309,-225
-114,-130,-22,119,-50,-70,170,12,-75,-341,-309,-219
-108,-130,-28,119,-44,-76,182,36,-39,-329,-309,-219
-108,-124,-22,113,-44,-70,182,54,-16,-311,-303,-219
-108,-124,-22,113,-44,-70,188,66,8,-299,-297,-225
-102,-124,-28,113,-38,-70,188,78,26,-293,-297,-225
-102,-118,-22,107,-44,-64,188,84,38,-275,-291,-225
-102,-118,-22,107,-44,-64,188,84,50,-275,-285,-225
-102,-118,-22,107,-44,-64,182,90,62,-263,-285,-225
-102,-118,-22,107,-44,-64,188,90,74,-257,-279,-225
-102,-118,-22,107,-44,-64,182,96,86,-257,-279,-225
-102,-118,-22,107,-44,-64,182,96,98,-251,-273,-225
-102,-112,-16,107,-44,-58,182,96,110,-239,-267,-225
-102,-112,-16,107,-44,-58,182,96,116,-233,-267,-225
-102,-106,-10,101,-50,-52,182,102,116,-233,-261,-225
-96,-100,-10,95,-44,-52,182,102,110,-233,-261,-225
-96,-100,-10,95,-44,-52,176,102,104,-233,-267,-219
-96,-100,-10,95,-44,-52,176,102,104,-233,-267,-219
-96,-100,-10,95,-44,-52,176,102,98,-227,-273,-207
-96,-100,-10,95,-44,-52,176,96,98,-227,-267,-207
-96,-106,-16,101,-44,-58,176,90,92,-227,-267,-201
-96,-106,-16,101,-44,-58,176,90,92,-227,-267,-201
-96,-112,-22,101,-38,-64,170,96,86,-221,-267,-195
-96,-112,-22,101,-38,-64,170,96,86,-221,-261,-195
-96,-112,-22,101,-38,-64,170,90,74,-221,-255,-201
-96,-112,-22,101,-38,-64,170,84,68,-221,-255,-201
-96,-112,-22,101,-38,-64,170,78,62,-221,-255,-201
-96,-112,-22,101,-38,-64,164,72,50,-221,-255,-201
-96,-112,-22,101,-38,-64,158,66,38,-215,-255,-207
-96,-112,-22,101,-38,-64,158,60,32,-215,-255,-207
-96,-112,-22,101,-38,-64,152,60,26,-215,-261,-201
-96,-112,-22,101,-38,-64,146,54,20,-215,-261,-201
-96,-112,-22,101,-38,-64,158,48,14,-227,-261,-213
-96,-112,-22,101,-38,-64,170,54,8,-221,-273,-213
-102,-124,-28,113,-38,-70,158,54,2,-239,-267,-219
-102,-124,-28,113,-38,-70,158,48,-4,-239,-273,-219
-102,-124,-28,113,-38,-70,158,48,-10,-239,-273,-219
-102,-124,-28,113,-38,-70,158,42,-16,-239,-279,-219
-102,-124,-28,113,-38,-70,158,42,-22,-239,-279,-219
-102,-130,-34,113,-38,-76,152,36,-28,-245,-279,-219
-102,-130,-34,113,-38,-76,152,30,-28,-245,-279,-219
-108,-130,-28,119,-44,-76,146,30,-33,-257,-279,-219
-108,-130,-28,119,-44,-76,140,24,-39,-257,-279,-219
-108,-124,-22,113,-44,-70,146,24,-45,-257,-285,-219
-108,-130,-28,119,-44,-76,146,24,-45,-257,-285,-219
-108,-124,-22,113,-44,-70,152,24,-51,-257,-285,-219
-108,-124,-22,113,-44,-70,152,24,-57,-257,-285,-219
-108,-130,-28,119,-44,-76,158,18,-57,-257,-279,-219
-108,-136,-34,119,-38,-82,152,18,-69,-257,-285,-219
-108,-142,-34,125,-38,-88,158,18,-69,-257,-279,-213
-108,-148,-34,125,-32,-94,158,18,-69,-257,-279,-213
-108,-142,-34,125,-38,-88,158,18,-63,-257,-279,-207
-108,-130,-28,119,-44,-76,158,18,-63,-257,-273,-207
-96,-118,-28,107,-38,-70,164,24,-45,-257,-267,-195
-96,-112,-22,101,-38,-64,170,36,-39,-251,-261,-183
-102,-100,-4,101,-50,-46,176,48,-33,-239,-261,-189
-102,-88,8,95,-56,-34,194,54,-28,-233,-261,-195
-108,-82,20,95,-68,-28,200,66,-28,-221,-261,-195
-114,-70,38,89,-80,-17,206,72,-22,-215,-261,-195
-120,-70,44,95,-86,-17,212,66,-22,-215,-261,-195
-120,-64,50,89,-86,-17,218,66,-22,-215,-255,-195
-132,-58,68,95,-104,-5,230,72,-16,-209,-255,-189
-132,-52,74,89,-104,1,236,78,-10,-197,-249,-183
-126,-40,80,83,-104,13,242,78,-4,-203,-249,-183
-126,-22,98,71,-116,31,248,78,2,-197,-243,-171
-120,-4,110,59,-116,43,248,90,8,-197,-237,-165
-114,7,128,47,-122,67,248,96,26,-185,-225,-153
-102,31,140,29,-122,85,248,108,32,-161,-219,-141
-96,61,164,11,-128,109,248,114,44,-149,-213,-129
-90,91,188,-7,-140,139,248,120,44,-131,-207,-117
-84,109,200,-19,-140,151,236,102,44,-131,-201,-111
-78,127,206,-19,-146,169,218,90,50,-113,-189,-99
-78,145,224,-24,-152,187,206,84,50,-107,-171,-87
-72,157,230,-36,-152,193,200,78,50,-101,-153,-69
-72,163,236,-36,-158,199,188,66,44,-101,-147,-69
-72,169,242,-42,-158,205,158,42,26,-107,-141,-63
-72,169,242,-42,-158,205,134,24,20,-107,-141,-63
-72,175,248,-42,-164,211,128,18,20,-113,-129,-51
-72,175,248,-42,-164,211,122,12,14,-113,-129,-51
-60,175,236,-48,-152,205,110,6,8,-113,-135,-51
-54,175,230,-54,-146,205,98,0,2,-125,-135,-51
-54,163,218,-48,-140,193,92,-6,-10,-131,-141,-57
-54,151,206,-42,-134,181,92,-6,-10,-137,-147,-57
-54,133,194,-30,-122,163,98,-6,-10,-137,-147,-69
-54,121,182,-24,-116,151,98,6,-10,-137,-147,-69
-54,85,146,-19,-98,115,110,12,-10,-137,-153,-87
-54,55,116,-7,-86,85,110,12,-10,-161,-171,-99
-54,7,68,17,-62,37,104,0,-28,-191,-195,-123
-66,-4,56,35,-62,19,104,-6,-45,-209,-231,-141
-90,-22,62,53,-80,13,104,0,-51,-233,-249,-165
-114,-34,74,71,-98,13,116,6,-57,-239,-267,-183
-114,-52,56,83,-86,-5,122,12,-63,-245,-273,-201
-120,-58,56,89,-92,-11,140,12,-63,-251,-285,-201
-120,-70,44,95,-86,-17,140,12,-69,-251,-285,-207
-120,-88,26,101,-74,-28,146,18,-69,-251,-285,-207
-120,-106,8,113,-68,-46,164,24,-63,-257,-285,-207
-120,-118,-4,119,-62,-58,194,30,-57,-257,-291,-207
-120,-124,-10,119,-56,-64,212,48,-45,-257,-285,-213
-120,-124,-10,119,-56,-64,230,54,-28,-257,-285,-213
-108,-112,-10,107,-50,-58,254,78,-28,-257,-285,-213
-108,-112,-10,107,-50,-58,290,102,-22,-257,-297,-213
-108,-112,-10,107,-50,-58,380,144,-16,-245,-285,-219
-120,-118,-4,119,-62,-58,494,168,-10,-245,-291,-231
-120,-130,-16,125,-56,-70,548,180,-10,-245,-303,-237
-120,-130,-16,125,-56,-70,566,198,-4,-245,-303,-225
-120,-124,-10,119,-56,-64,578,228,8,-251,-297,-213
-126,-112,8,119,-68,-46,572,270,20,-239,-297,-213
-114,-112,-4,113,-56,-52,524,336,38,-233,-297,-219
-78,-88,-16,83,-32,-46,404,432,68,-227,-279,-219
-30,-46,-22,35,-8,-28,230,510,110,-191,-261,-201
18,1,-10,-19,16,-5,32,600,170,-161,-237,-189
47,79,26,-60,16,55,-189,654,224,-113,-219,-171
95,139,38,-114,33,91,-405,666,254,-71,-189,-147
119,169,44,-144,33,109,-549,696,278,-47,-177,-129
137,205,62,-168,33,133,-663,738,296,-35,-147,-99
167,217,44,-192,57,133,-765,810,326,-23,-135,-87
191,217,20,-204,81,121,-819,870,338,-23,-123,-75
209,223,8,-216,93,115,-861,882,338,-29,-123,-63
221,235,8,-228,99,121,-891,852,326,-23,-117,-57
227,247,20,-240,99,139,-927,816,326,-12,-111,-51
245,241,-4,-246,117,121,-963,774,368,6,-93,-39
269,241,-28,-258,141,109,-975,708,398,42,-87,-39
263,259,-4,-258,129,133,-951,702,440,60,-81,-39
263,277,14,-264,117,151,-921,732,494,96,-81,-51
281,301,14,-288,129,163,-909,732,578,132,-81,-45
329,337,2,-330,159,175,-927,684,698,186,-33,-15
401,385,-22,-390,207,187,-987,618,806,264,26,38
467,409,-51,-438,261,175,-1065,522,884,360,104,110
551,421,-129,-486,339,145,-1131,468,950,426,194,182
653,421,-231,-534,441,91,-1179,486,1076,498,266,230
767,433,-333,-600,549,43,-1269,408,1190,630,380,326
917,523,-387,-720,651,67,-1455,150,1316,846,608,524
1091,715,-375,-900,735,169,-1659,-107,1526,1194,968,812
1283,919,-363,-1098,825,271,-1941,-443,1754,1572,1382,1154
1475,1117,-351,-1290,915,379,-2265,-911,1934,1974,1838,1514
1619,1351,-267,-1482,945,541,-2510,-1355,2101,2404,2335,1922
1715,1609,-99,-1662,909,751,-2684,-1733,2275,2878,2844,2323
1751,1855,98,-1800,825,973,-2840,-2141,2329,3334,3324,2694
1733,2070,338,-1902,693,1201,-2930,-2506,2293,3742,3732,3012
1625,2172,542,-1896,537,1357,-2864,-2668,2317,4144,4038,3192
1487,1975,488,-1728,495,1231,-2612,-2458,2610,4606,4254,3216
1331,1597,260,-1464,531,931,-2241,-2027,3012,5007,4356,3114
1199,1345,146,-1266,519,745,-1953,-1769,3036,5223,4392,3006
1103,1237,134,-1170,483,691,-1803,-1727,2664,5211,4374,2940
1007,1087,80,-1044,459,583,-1635,-1601,2293,4845,4182,2790
875,817,-51,-846,465,379,-1371,-1307,1946,4126,3714,2466
701,589,-105,-642,405,235,-1053,-1025,1466,3268,3102,2053
503,409,-87,-456,291,157,-759,-773,1004,2416,2365,1574
305,181,-123,-246,219,25,-459,-473,692,1446,1448,974
161,-46,-213,-48,183,-130,-213,-191,458,570,560,374
59,-148,-213,35,135,-178,-69,-24,374,198,80,38
35,-112,-153,29,93,-130,-21,36,398,198,32,-10
35,-70,-99,17,57,-88,-9,72,410,222,80,2
35,-70,-99,17,57,-88,8,108,392,186,62,-10
12,-88,-93,35,45,-94,50,156,392,162,50,-21
-24,-112,-81,65,33,-100,86,186,380,132,32,-27
-36,-136,-93,83,33,-118,134,210,344,72,-16,-63
-66,-160,-87,113,16,-124,182,240,320,18,-63,-105
-84,-172,-81,125,4,-130,230,276,302,-18,-123,-153
-84,-178,-87,131,4,-136,248,294,284,-77,-189,-189
-84,-178,-87,131,4,-136,254,306,254,-131,-243,-213
-90,-178,-81,131,-2,-130,254,318,236,-185,-267,-231
-90,-178,-81,131,-2,-130,248,318,212,-215,-285,-249
-96,-184,-81,137,-2,-136,248,324,206,-233,-285,-243
-96,-190,-87,143,-2,-142,248,324,200,-233,-285,-237
-108,-190,-75,149,-14,-136,260,336,200,-233,-279,-231
-114,-190,-69,149,-20,-130,278,342,206,-233,-285,-237
-114,-196,-75,155,-14,-136,296,360,200,-233,-291,-243
-120,-196,-69,155,-20,-136,308,372,200,-245,-303,-243
-114,-208,-87,161,-8,-148,308,372,194,-251,-303,-249
-108,-208,-93,155,-2,-154,314,384,182,-263,-315,-249
-108,-208,-93,155,-2,-154,320,390,182,-263,-321,-255
-108,-208,-93,155,-2,-154,314,396,176,-269,-321,-255
-108,-208,-93,155,-2,-154,320,396,176,-269,-321,-255
-108,-208,-93,155,-2,-154,320,402,176,-269,-321,-255
-114,-202,-81,155,-14,-142,320,408,170,-269,-321,-255
-114,-202,-81,155,-14,-142,326,414,170,-269,-321,-255
-114,-196,-75,155,-14,-136,332,420,164,-269,-315,-261
-114,-196,-75,155,-14,-136,338,426,170,-269,-315,-261
-114,-190,-69,149,-20,-130,344,432,170,-263,-315,-255
-114,-190,-69,149,-20,-130,344,450,182,-263,-315,-255
-114,-190,-69,149,-20,-130,344,444,182,-257,-309,-249
-108,-184,-69,143,-14,-130,350,450,188,-257,-309,-249
-102,-184,-75,143,-8,-130,344,462,194,-257,-303,-243
-102,-184,-75,143,-8,-130,350,462,200,-257,-303,-243
-96,-178,-75,137,-8,-130,350,468,206,-251,-297,-237
-96,-178,-75,137,-8,-130,350,474,212,-245,-285,-231
-96,-166,-63,131,-14,-118,350,486,224,-239,-279,-231
-96,-166,-63,131,-14,-118,362,504,230,-239,-279,-225
-102,-160,-51,131,-20,-106,362,504,248,-239,-273,-225
-96,-154,-51,125,-20,-106,368,516,254,-233,-261,-225
-96,-160,-57,125,-14,-112,362,528,260,-233,-261,-225
-96,-154,-51,125,-20,-106,368,528,266,-221,-261,-225
-96,-154,-51,125,-20,-106,368,540,272,-215,-261,-225
-96,-154,-51,125,-20,-106,368,546,278,-215,-255,-213
-96,-148,-45,119,-20,-100,368,552,278,-209,-255,-219
-96,-142,-39,119,-26,-94,368,558,278,-209,-255,-219
-96,-136,-34,113,-26,-88,374,564,278,-209,-255,-219
-96,-136,-34,113,-26,-88,374,570,278,-203,-255,-213
-90,-130,-34,107,-26,-82,374,576,284,-191,-243,-201
-90,-124,-34,107,-26,-76,380,582,284,-191,-243,-195
-78,-118,-34,95,-20,-76,386,588,290,-185,-231,-189
-78,-112,-34,95,-20,-70,386,588,290,-185,-225,-183
-78,-106,-34,89,-26,-64,386,588,284,-179,-219,-177
-78,-100,-28,89,-26,-58,386,588,284,-179,-219,-177
-78,-88,-16,83,-32,-46,392,588,278,-167,-219,-171
-72,-82,-16,77,-32,-46,392,588,278,-167,-207,-165
-72,-82,-16,77,-32,-46,398,594,272,-173,-207,-159
-72,-76,-10,71,-32,-40,398,594,272,-173,-207,-159
-72,-70,-4,71,-38,-34,404,588,260,-179,-207,-159
-72,-64,2,65,-38,-28,410,588,260,-173,-207,-153
-72,-64,2,65,-38,-28,422,588,242,-173,-201,-159
-72,-64,2,65,-38,-28,422,588,236,-173,-201,-153
-72,-64,2,65,-38,-28,428,582,212,-173,-195,-159
-72,-58,8,65,-44,-22,428,570,212,-179,-195,-159
-72,-58,8,65,-44,-22,440,570,194,-179,-195,-153
-72,-58,8,65,-44,-22,440,558,182,-179,-195,-153
-72,-52,14,59,-44,-17,440,540,152,-191,-195,-153
-72,-52,14,59,-44,-17,440,528,134,-197,-195,-153
-78,-52,20,65,-50,-17,446,516,116,-203,-195,-153
-78,-46,26,59,-56,-17,446,492,98,-209,-195,-153
-78,-46,26,59,-56,-17,458,474,68,-215,-201,-153
-78,-40,32,59,-56,-11,458,462,44,-227,-201,-159
-78,-46,26,59,-56,-17,458,450,20,-239,-213,-159
-78,-46,26,59,-56,-17,464,426,-16,-251,-213,-159
-84,-52,26,65,-56,-17,464,402,-39,-257,-225,-159
-84,-52,26,65,-56,-17,464,372,-69,-275,-225,-159
-84,-52,26,65,-56,-17,458,342,-111,-293,-225,-159
-90,-52,32,71,-62,-17,458,312,-147,-317,-231,-171
-90,-58,26,71,-62,-17,458,276,-189,-335,-237,-171
-90,-70,14,77,-56,-22,458,240,-231,-353,-249,-171
-96,-70,20,83,-62,-22,452,210,-273,-371,-255,-183
-96,-76,14,83,-56,-28,440,174,-315,-395,-267,-189
-96,-70,20,83,-62,-22,434,138,-357,-413,-273,-195
-102,-76,20,89,-62,-22,428,102,-399,-437,-285,-201
-102,-88,8,95,-56,-34,416,60,-447,-461,-297,-207
-108,-94,8,101,-62,-40,404,24,-501,-485,-309,-207
-108,-106,-4,107,-56,-52,392,-18,-543,-509,-327,-213
-108,-112,-10,107,-50,-58,386,-47,-585,-533,-327,-219
-114,-118,-10,113,-56,-58,374,-89,-633,-557,-345,-225
-114,-124,-16,119,-50,-64,362,-131,-687,-581,-357,-231
-120,-130,-16,125,-56,-70,350,-179,-741,-605,-363,-237
-120,-136,-22,125,-50,-76,338,-209,-789,-629,-375,-243
-120,-148,-34,131,-44,-88,314,-245,-837,-653,-393,-249
-120,-154,-34,137,-44,-94,296,-275,-879,-677,-405,-249
-126,-166,-34,143,-44,-100,284,-305,-915,-695,-417,-249
-126,-172,-39,149,-38,-106,266,-341,-957,-725,-429,-255
-132,-172,-34,149,-44,-106,248,-377,-999,-743,-429,-267
-132,-178,-39,155,-44,-112,236,-413,-1029,-755,-435,-267
-138,-178,-34,155,-50,-106,212,-443,-1071,-779,-453,-273
-138,-184,-39,161,-44,-112,206,-473,-1107,-797,-453,-273
-132,-190,-51,161,-38,-124,188,-503,-1131,-809,-459,-273
-132,-190,-51,161,-38,-124,176,-521,-1161,-815,-465,-273
-126,-190,-57,155,-32,-124,164,-539,-1179,-821,-465,-273
-126,-190,-57,155,-32,-124,158,-551,-1191,-827,-465,-273
-126,-196,-63,161,-26,-130,140,-569,-1209,-833,-465,-273
-126,-196,-63,161,-26,-130,128,-575,-1215,-839,-465,-273
-126,-196,-63,161,-26,-130,110,-587,-1221,-845,-465,-273
-126,-196,-63,161,-26,-130,110,-587,-1221,-839,-465,-273
-126,-196,-63,161,-26,-130,104,-587,-1215,-833,-465,-261
-126,-202,-69,161,-26,-136,92,-587,-1203,-827,-453,-261
-120,-202,-75,161,-20,-142,92,-581,-1179,-815,-447,-249
-120,-202,-75,161,-20,-142,86,-569,-1161,-797,-441,-249
-126,-202,-69,161,-26,-136,74,-545,-1113,-785,-435,-249
-126,-196,-63,161,-26,-130,74,-521,-1065,-761,-429,-237
-132,-196,-57,161,-32,-130,68,-491,-1011,-743,-423,-237
-126,-190,-57,155,-32,-124,68,-455,-975,-719,-417,-237
-126,-184,-51,155,-32,-118,68,-425,-921,-695,-399,-243
-126,-184,-51,155,-32,-118,68,-389,-879,-677,-393,-231
-126,-172,-39,149,-38,-106,68,-365,-837,-653,-381,-237
-126,-172,-39,149,-38,-106,74,-329,-789,-635,-375,-237
-120,-178,-51,149,-32,-118,80,-293,-729,-605,-363,-231
-120,-172,-45,143,-32,-112,86,-263,-681,-587,-357,-231
-120,-178,-51,149,-32,-118,92,-233,-615,-551,-351,-219
-114,-172,-51,143,-26,-112,92,-197,-561,-527,-345,-219
-114,-172,-51,143,-26,-112,98,-155,-495,-497,-345,-219
-114,-172,-51,143,-26,-112,104,-119,-441,-479,-339,-219
-114,-160,-39,137,-32,-100,110,-83,-393,-455,-339,-219
-114,-160,-39,137,-32,-100,110,-59,-357,-431,-333,-213
-114,-154,-34,131,-38,-94,116,-29,-315,-413,-321,-219
-114,-154,-34,131,-38,-94,122,-24,-267,-395,-315,-219
-114,-148,-34,131,-38,-88,128,0,-231,-371,-315,-225
-108,-142,-34,125,-38,-88,128,12,-189,-353,-309,-225
-108,-136,-34,119,-38,-82,134,36,-147,-341,-303,-219
-108,-136,-34,119,-38,-82,134,60,-99,-323,-303,-213
-108,-130,-28,119,-44,-76,146,84,-63,-317,-297,-207
-108,-124,-22,113,-44,-70,146,102,-28,-299,-291,-207
-108,-124,-22,113,-44,-70,152,120,-22,-287,-291,-207
-102,-124,-28,113,-38,-70,152,132,-4,-275,-291,-207
-102,-118,-22,107,-44,-64,152,144,2,-257,-291,-201
-102,-118,-22,107,-44,-64,152,144,14,-257,-285,-201
-96,-124,-34,107,-32,-76,158,144,20,-251,-285,-207
-96,-124,-34,107,-32,-76,164,144,32,-245,-279,-207
-90,-130,-34,107,-26,-82,170,144,38,-245,-279,-213
-90,-130,-34,107,-26,-82,170,144,50,-239,-273,-213
-96,-130,-34,113,-32,-82,164,150,62,-221,-273,-213
-96,-130,-34,113,-32,-82,164,150,68,-215,-273,-213
-102,-130,-34,113,-38,-76,158,162,68,-209,-273,-213
-96,-124,-34,107,-32,-76,158,162,62,-209,-273,-213
-96,-124,-34,107,-32,-76,152,156,56,-209,-267,-213
-96,-124,-34,107,-32,-76,152,156,56,-209,-267,-213
-96,-124,-34,107,-32,-76,152,150,50,-203,-261,-207
-96,-124,-34,107,-32,-76,152,144,50,-203,-255,-207
-96,-118,-28,107,-38,-70,152,132,44,-209,-261,-207
-96,-118,-28,107,-38,-70,152,126,44,-209,-261,-207
-96,-112,-22,101,-38,-64,146,126,38,-209,-267,-207
-96,-112,-22,101,-38,-64,146,120,38,-209,-261,-207
-96,-112,-22,101,-38,-64,146,120,32,-209,-267,-201
-96,-112,-22,101,-38,-64,146,114,32,-209,-267,-201
-96,-112,-22,101,-38,-64,146,114,32,-209,-273,-189
-96,-112,-22,101,-38,-64,140,108,26,-209,-273,-189
-96,-118,-28,107,-38,-70,140,102,14,-209,-267,-201
-96,-118,-28,107,-38,-70,140,96,14,-209,-267,-201
-96,-124,-34,107,-32,-76,140,96,8,-215,-261,-201
-96,-124,-34,107,-32,-76,134,90,8,-215,-261,-201
-96,-112,-22,101,-38,-64,134,84,2,-215,-273,-201
-96,-112,-22,101,-38,-64,134,78,-4,-209,-273,-201
-102,-124,-28,113,-38,-70,134,90,-10,-215,-267,-207
-102,-124,-28,113,-38,-70,128,84,-16,-215,-267,-207
-102,-124,-28,113,-38,-70,128,84,-16,-215,-267,-207
-102,-124,-28,113,-38,-70,122,78,-22,-215,-267,-207
-102,-124,-28,113,-38,-70,122,78,-22,-215,-267,-207
-102,-136,-34,119,-32,-82,128,72,-28,-221,-273,-207
-102,-136,-34,119,-32,-82,128,66,-28,-227,-273,-207
-108,-142,-34,125,-38,-88,134,66,-33,-239,-279,-207
-108,-142,-34,125,-38,-88,128,60,-39,-245,-279,-207
-108,-136,-34,119,-38,-82,128,54,-39,-245,-285,-207
-108,-142,-34,125,-38,-88,128,54,-39,-245,-285,-207
-108,-136,-34,119,-38,-82,128,48,-39,-245,-285,-207
-108,-136,-34,119,-38,-82,128,48,-45,-245,-285,-207
-108,-136,-34,119,-38,-82,128,42,-51,-245,-291,-213
-108,-136,-34,119,-38,-82,122,42,-63,-251,-297,-213
-108,-136,-34,119,-38,-82,122,42,-69,-251,-303,-213
-108,-136,-34,119,-38,-82,122,42,-69,-251,-303,-213
-114,-136,-28,125,-44,-76,128,42,-69,-251,-297,-219
-114,-124,-16,119,-50,-64,128,42,-69,-251,-291,-219
-108,-118,-16,113,-50,-64,140,48,-57,-245,-279,-219
-108,-112,-10,107,-50,-58,146,60,-51,-239,-273,-207
-102,-94,2,95,-56,-40,152,66,-45,-233,-267,-207
-102,-82,14,89,-62,-28,170,72,-39,-227,-267,-207
-96,-70,20,83,-62,-22,176,78,-28,-221,-261,-201
-102,-58,38,77,-74,-17,182,84,-28,-215,-261,-195
-102,-52,44,77,-74,-11,188,84,-28,-209,-261,-189
-102,-46,50,71,-80,-5,194,84,-28,-209,-255,-189
-108,-34,68,71,-92,7,206,96,-28,-197,-255,-177
-108,-28,74,65,-92,13,212,102,-22,-185,-249,-171
-108,-22,80,65,-98,19,212,96,-22,-185,-249,-171
-108,-4,98,53,-104,37,218,96,-16,-179,-243,-159
-108,1,110,47,-110,49,218,102,-16,-173,-237,-153
-102,19,128,35,-116,73,218,108,2,-161,-225,-141
-96,37,140,23,-116,85,224,120,14,-137,-213,-129
-90,67,164,5,-128,115,224,126,32,-125,-201,-117
-90,91,188,-7,-140,139,230,132,38,-107,-189,-105
-84,109,200,-19,-140,151,212,114,44,-107,-177,-99
-84,127,212,-19,-152,169,188,96,44,-101,-177,-87
-84,145,230,-24,-158,187,176,90,44,-95,-165,-75
-84,157,242,-30,-164,199,164,78,38,-101,-159,-57
-84,163,248,-30,-170,205,152,66,32,-101,-159,-57
-78,169,248,-36,-164,211,116,36,14,-101,-153,-63
-78,169,248,-36,-164,211,92,18,8,-101,-153,-63
-72,175,248,-42,-164,211,80,6,8,-101,-141,-63
-72,175,248,-42,-164,211,74,0,2,-101,-141,-63
-60,175,236,-48,-152,205,62,-6,-4,-101,-147,-57
-54,175,230,-54,-146,205,50,-12,-10,-113,-147,-57
-54,163,218,-48,-140,193,44,-18,-22,-119,-153,-57
-54,151,206,-42,-134,181,44,-18,-22,-125,-159,-57
-48,145,200,-42,-122,169,44,-18,-28,-125,-159,-57
-48,133,188,-36,-116,157,44,-6,-28,-125,-159,-57
-42,109,158,-24,-98,133,50,0,-28,-125,-165,-63
-42,79,128,-19,-86,103,50,0,-28,-149,-183,-75
-42,31,80,-1,-62,55,44,-18,-45,-173,-195,-99
-54,7,68,17,-62,37,44,-24,-69,-191,-225,-117
-78,1,74,35,-80,31,44,-24,-75,-209,-231,-141
-102,-10,86,53,-98,31,56,-18,-81,-215,-249,-159
-102,-34,62,65,-86,7,68,-6,-75,-227,-255,-177
-108,-46,56,77,-86,-5,86,-6,-75,-233,-261,-177
-108,-64,38,83,-74,-17,92,0,-69,-239,-261,-183
-108,-88,14,95,-62,-34,98,6,-69,-239,-261,-183
-114,-94,14,101,-68,-34,116,12,-69,-245,-273,-189
-114,-106,2,107,-62,-46,146,18,-69,-245,-279,-189
-120,-100,14,107,-68,-40,164,36,-63,-245,-285,-201
-120,-100,14,107,-68,-40,182,42,-51,-245,-285,-201
-108,-100,2,101,-56,-46,200,54,-57,-233,-285,-213
-96,-100,-10,95,-44,-52,254,78,-45,-233,-273,-213
-108,-100,2,101,-56,-46,344,120,-39,-233,-285,-219
-120,-118,-4,119,-62,-58,446,156,-45,-245,-291,-231
-120,-118,-4,119,-62,-58,494,168,-33,-245,-291,-237
-120,-118,-4,119,-62,-58,494,198,-28,-245,-291,-237
-108,-112,-10,107,-50,-58,506,216,-28,-239,-285,-225
-102,-100,-4,101,-50,-46,494,258,-16,-227,-285,-213
-90,-100,-16,95,-38,-52,446,336,2,-221,-285,-195
-54,-76,-28,65,-14,-46,356,420,44,-203,-279,-195
-18,-22,-10,17,-8,-17,218,510,86,-167,-261,-177
30,37,14,-24,10,25,8,588,134,-137,-225,-153
71,103,26,-84,28,67,-213,642,182,-101,-183,-123
107,151,38,-126,33,97,-393,666,212,-71,-153,-111
143,181,32,-162,51,109,-525,696,218,-59,-141,-105
173,217,38,-192,63,127,-651,750,248,-35,-123,-87
191,229,32,-210,75,133,-765,810,266,-23,-123,-87
215,217,-4,-216,105,109,-843,834,266,-23,-123,-75
221,223,-4,-222,105,109,-885,846,254,-18,-123,-75
233,241,8,-240,105,127,-927,828,266,-18,-105,-57
251,271,20,-258,111,151,-963,828,290,0,-75,-39
275,253,-28,-264,147,115,-993,774,308,42,-45,-27
299,253,-39,-276,171,103,-1023,690,314,54,-39,-15
305,271,-34,-288,171,121,-1005,708,368,84,-33,-27
317,301,-22,-306,165,145,-975,756,452,132,-33,-15
329,337,2,-330,159,175,-975,720,530,180,-21,-10
365,385,14,-372,171,205,-1005,648,614,228,2,32
425,421,-10,-420,213,211,-1059,606,722,300,74,98
515,445,-63,-480,285,187,-1161,534,824,396,164,170
599,469,-129,-528,363,169,-1245,468,908,480,260,248
713,481,-231,-594,471,121,-1317,420,1016,570,362,338
851,487,-357,-672,603,61,-1437,252,1112,690,494,422
989,583,-399,-780,693,91,-1617,6,1244,906,716,596
1163,769,-387,-966,771,193,-1845,-215,1478,1224,1040,860
1367,955,-411,-1158,891,265,-2139,-557,1706,1572,1430,1178
1529,1117,-411,-1320,975,349,-2420,-1085,1832,1908,1826,1490
1655,1339,-309,-1494,987,511,-2642,-1553,1982,2297,2239,1850
1745,1585,-159,-1668,957,715,-2804,-1901,2167,2746,2712,2227
1811,1819,2,-1812,903,913,-2954,-2267,2257,3190,3192,2592
1811,2035,218,-1926,789,1129,-3038,-2614,2257,3592,3594,2910
1739,2160,416,-1950,663,1285,-2990,-2770,2305,3970,3918,3126
1637,2058,422,-1848,603,1237,-2786,-2632,2598,4414,4158,3180
1475,1723,248,-1596,609,985,-2426,-2237,3000,4845,4296,3102
1289,1429,134,-1356,573,781,-2109,-1913,3096,5085,4314,2970
1151,1285,134,-1218,507,715,-1899,-1793,2856,5115,4284,2886
1037,1147,104,-1092,465,625,-1713,-1649,2538,4833,4104,2754
911,913,-4,-912,453,457,-1455,-1367,2113,4132,3678,2466
737,673,-57,-702,399,301,-1161,-1097,1562,3304,3102,2101
545,499,-39,-522,291,223,-867,-881,1064,2512,2454,1682
377,271,-99,-324,243,85,-585,-587,692,1626,1640,1130
221,25,-189,-120,207,-76,-315,-281,416,720,746,512
119,-112,-237,-13,177,-172,-153,-77,290,240,188,86
71,-112,-189,11,129,-148,-93,12,302,174,44,-10
59,-58,-123,-7,87,-88,-69,48,302,174,92,2
47,-58,-111,-1,75,-82,-51,96,296,162,74,-10
24,-76,-93,23,51,-88,-9,144,308,150,38,-21
-12,-88,-69,47,33,-82,26,186,296,132,20,-27
-48,-112,-57,77,10,-88,86,210,272,84,-16,-51
-66,-148,-75,107,10,-112,134,228,236,30,-63,-81
-84,-160,-69,119,-2,-118,170,276,218,-18,-111,-117
-96,-166,-63,131,-14,-118,194,294,182,-65,-153,-153
-84,-166,-75,125,-2,-124,200,306,152,-119,-195,-189
-78,-166,-81,119,4,-124,200,318,110,-161,-225,-219
-78,-166,-81,119,4,-124,194,318,98,-203,-243,-225
-84,-172,-81,125,4,-130,194,324,80,-221,-255,-225
-84,-178,-87,131,4,-136,194,324,74,-221,-255,-225
-96,-178,-75,137,-8,-130,206,336,68,-221,-255,-225
-102,-178,-69,137,-14,-124,224,342,74,-221,-261,-237
-108,-184,-69,143,-14,-130,242,366,68,-221,-273,-237
-114,-184,-63,149,-20,-124,254,378,68,-233,-285,-237
-114,-196,-75,155,-14,-136,254,384,62,-239,-291,-237
-108,-196,-81,149,-8,-142,266,396,50,-257,-303,-243
-108,-190,-75,149,-14,-136,272,396,44,-257,-303,-249
-108,-190,-75,149,-14,-136,266,402,38,-257,-303,-249
-108,-184,-69,143,-14,-130,272,396,32,-257,-297,-249
-108,-184,-69,143,-14,-130,272,402,32,-257,-297,-249
-114,-184,-63,149,-20,-124,272,414,32,-251,-297,-243
-114,-184,-63,149,-20,-124,278,420,32,-251,-297,-243
-114,-184,-63,149,-20,-124,284,432,32,-239,-291,-243
-114,-184,-63,149,-20,-124,290,438,38,-239,-291,-243
-114,-178,-57,143,-26,-118,296,450,32,-245,-291,-243
-114,-178,-57,143,-26,-118,296,462,44,-245,-291,-243
-114,-178,-57,143,-26,-118,296,462,38,-251,-285,-237
-108,-172,-57,137,-20,-118,302,468,44,-245,-285,-237
-108,-172,-57,137,-20,-118,302,474,56,-239,-285,-237
-108,-172,-57,137,-20,-118,308,480,62,-239,-285,-237
-108,-166,-51,137,-26,-112,314,480,74,-227,-285,-237
-108,-166,-51,137,-26,-112,314,486,86,-221,-273,-231
-102,-154,-45,125,-26,-100,308,498,92,-221,-273,-237
-102,-154,-45,125,-26,-100,320,516,98,-221,-273,-231
-102,-148,-39,125,-26,-94,314,516,110,-227,-273,-237
-96,-142,-39,119,-26,-94,320,528,116,-221,-261,-237
-96,-142,-39,119,-26,-94,326,540,122,-221,-255,-231
-96,-136,-34,113,-26,-88,332,540,128,-209,-255,-231
-96,-130,-34,113,-32,-82,344,552,134,-203,-255,-225
-96,-130,-34,113,-32,-82,344,558,140,-203,-249,-213
-96,-130,-34,113,-32,-82,344,564,146,-191,-237,-213
-96,-124,-34,107,-32,-76,344,570,146,-191,-237,-213
-96,-124,-34,107,-32,-76,350,576,152,-185,-231,-207
-96,-124,-34,107,-32,-76,350,582,152,-179,-231,-201
-96,-112,-22,101,-38,-64,350,588,158,-167,-225,-195
-96,-106,-16,101,-44,-58,356,594,158,-167,-225,-189
-90,-94,-10,89,-44,-46,362,600,164,-161,-219,-189
-90,-88,-4,89,-44,-40,362,600,164,-161,-213,-183
-84,-88,-10,83,-38,-46,356,600,164,-167,-207,-183
-84,-82,-4,83,-44,-40,356,600,164,-167,-207,-183
-78,-76,-4,77,-38,-34,356,600,164,-167,-207,-183
-72,-70,-4,71,-38,-34,356,600,164,-167,-195,-177
-78,-70,2,71,-44,-28,368,606,170,-161,-189,-165
-78,-64,8,71,-44,-22,368,606,170,-161,-189,-165
-84,-58,20,71,-56,-17,380,600,170,-155,-183,-159
-84,-52,26,65,-56,-17,386,600,170,-149,-183,-153
-84,-52,26,65,-56,-17,392,594,152,-155,-177,-159
-84,-52,26,65,-56,-17,392,594,146,-155,-177,-153
-84,-52,26,65,-56,-17,392,582,122,-161,-171,-159
-84,-46,32,65,-62,-17,392,570,116,-167,-171,-159
-84,-46,32,65,-62,-17,398,570,104,-167,-171,-153
-84,-46,32,65,-62,-17,398,558,92,-167,-171,-153
-84,-40,38,59,-62,-11,392,540,68,-179,-171,-153
-84,-40,38,59,-62,-11,392,528,50,-185,-171,-153
-90,-40,44,65,-68,-5,392,516,32,-191,-177,-153
-90,-34,50,59,-74,1,392,492,14,-197,-177,-153
-90,-34,50,59,-74,1,398,474,-16,-203,-189,-153
-90,-28,56,59,-74,7,398,462,-28,-215,-189,-159
-90,-28,56,59,-74,7,398,444,-45,-227,-195,-153
-90,-28,56,59,-74,7,404,420,-81,-239,-195,-153
-96,-28,62,59,-80,7,404,390,-111,-251,-201,-147
-96,-28,62,59,-80,7,404,360,-141,-263,-201,-147
-96,-34,56,65,-80,1,398,330,-183,-275,-201,-147
-102,-34,62,65,-86,7,398,300,-219,-299,-207,-159
-102,-46,50,71,-80,-5,398,264,-261,-311,-213,-159
-102,-58,38,77,-74,-17,398,228,-297,-329,-225,-159
-108,-58,44,83,-80,-17,398,198,-345,-341,-243,-171
-108,-64,38,83,-74,-17,386,162,-387,-365,-255,-177
-108,-58,44,83,-80,-17,386,126,-429,-377,-261,-183
-114,-64,44,89,-80,-17,380,90,-471,-401,-273,-189
-114,-70,38,89,-80,-17,362,48,-513,-425,-279,-201
-120,-76,38,95,-80,-17,350,12,-561,-449,-291,-201
-120,-82,32,101,-80,-22,332,-24,-603,-479,-303,-213
-120,-88,26,101,-74,-28,326,-59,-645,-503,-303,-219
-120,-100,14,107,-68,-40,314,-95,-681,-521,-315,-219
-120,-106,8,113,-68,-46,302,-137,-735,-545,-327,-225
-120,-118,-4,119,-62,-58,290,-179,-771,-569,-327,-225
-120,-124,-10,119,-56,-64,278,-209,-825,-593,-339,-231
-120,-124,-10,119,-56,-64,254,-251,-867,-611,-351,-231
-120,-130,-16,125,-56,-70,242,-281,-909,-635,-363,-237
-126,-130,-10,125,-62,-64,230,-317,-939,-647,-369,-231
-126,-136,-16,131,-56,-70,212,-353,-981,-677,-381,-237
-126,-142,-22,131,-56,-76,188,-395,-1017,-683,-381,-249
-126,-148,-28,137,-50,-82,176,-431,-1047,-701,-387,-249
-126,-154,-34,137,-50,-88,152,-467,-1083,-713,-405,-249
-126,-160,-34,143,-44,-94,146,-497,-1119,-731,-405,-249
-126,-166,-34,143,-44,-100,122,-521,-1149,-749,-411,-255
-126,-166,-34,143,-44,-100,110,-545,-1179,-755,-417,-255
-126,-166,-34,143,-44,-100,92,-563,-1203,-773,-417,-261
-126,-166,-34,143,-44,-100,86,-575,-1215,-779,-417,-261
-126,-178,-45,149,-38,-112,74,-593,-1227,-779,-417,-255
-126,-178,-45,149,-38,-112,62,-599,-1233,-785,-417,-255
-126,-184,-51,155,-32,-118,50,-611,-1233,-785,-417,-249
-126,-184,-51,155,-32,-118,50,-611,-1233,-779,-417,-249
-126,-178,-45,149,-38,-112,44,-611,-1239,-779,-417,-249
-126,-184,-51,155,-32,-118,32,-611,-1233,-773,-405,-249
-120,-178,-51,149,-32,-118,32,-605,-1221,-767,-399,-243
-120,-178,-51,149,-32,-118,26,-593,-1209,-749,-393,-237
-126,-178,-45,149,-38,-112,26,-581,-1173,-743,-387,-243
-126,-172,-39,149,-38,-106,26,-557,-1125,-719,-381,-231
-132,-172,-34,149,-44,-106,32,-533,-1083,-695,-375,-237
-126,-166,-34,143,-44,-100,32,-503,-1041,-671,-369,-237
-126,-166,-34,143,-44,-100,32,-473,-999,-647,-363,-231
-126,-166,-34,143,-44,-100,32,-437,-963,-629,-357,-219
-126,-160,-34,143,-44,-94,32,-413,-933,-605,-357,-213
-126,-160,-34,143,-44,-94,38,-377,-885,-587,-351,-213
-120,-160,-34,137,-38,-100,44,-353,-831,-569,-339,-213
-120,-154,-34,137,-44,-94,50,-323,-789,-551,-333,-213
-120,-154,-34,137,-44,-94,56,-299,-741,-527,-327,-207
-114,-148,-34,131,-38,-88,56,-263,-693,-503,-321,-207
-114,-154,-34,131,-38,-94,62,-221,-627,-479,-315,-213
-114,-154,-34,131,-38,-94,68,-185,-573,-461,-309,-213
-114,-148,-34,131,-38,-88,74,-143,-531,-443,-303,-219
-114,-148,-34,131,-38,-88,74,-119,-501,-419,-297,-213
-114,-142,-34,125,-44,-82,80,-89,-459,-407,-291,-213
-114,-142,-34,125,-44,-82,86,-71,-417,-389,-285,-213
-114,-136,-28,125,-44,-76,92,-47,-375,-371,-291,-213
-108,-130,-28,119,-44,-76,92,-35,-339,-353,-285,-213
-108,-130,-28,119,-44,-76,92,-24,-303,-335,-279,-213
-108,-130,-28,119,-44,-76,92,-6,-261,-317,-279,-207
-108,-130,-28,119,-44,-76,98,12,-231,-305,-273,-207
-108,-124,-22,113,-44,-70,98,30,-195,-287,-267,-207
-108,-118,-16,113,-50,-64,104,48,-165,-281,-267,-207
-102,-118,-22,107,-44,-64,104,60,-147,-275,-267,-207
-102,-106,-10,101,-50,-52,104,72,-129,-263,-267,-201
-102,-106,-10,101,-50,-52,104,72,-117,-263,-261,-201
-102,-106,-10,101,-50,-52,104,78,-111,-257,-255,-201
-102,-106,-10,101,-50,-52,110,78,-99,-251,-255,-201
-102,-106,-10,101,-50,-52,110,84,-93,-245,-249,-201
-102,-106,-10,101,-50,-52,110,84,-81,-239,-243,-201
-108,-112,-10,107,-50,-58,110,84,-63,-233,-249,-201
-108,-112,-10,107,-50,-58,110,84,-51,-227,-249,-201
-114,-118,-10,113,-56,-58,110,90,-45,-233,-255,-201
-108,-112,-10,107,-50,-58,110,90,-45,-233,-255,-201
-108,-112,-10,107,-50,-58,104,84,-45,-233,-249,-195
-108,-112,-10,107,-50,-58,104,84,-45,-233,-249,-195
-108,-112,-10,107,-50,-58,104,78,-45,-227,-243,-183
-108,-112,-10,107,-50,-58,104,72,-45,-227,-237,-183
-102,-112,-16,107,-44,-58,104,60,-45,-227,-243,-189
-102,-112,-16,107,-44,-58,104,54,-45,-227,-243,-189
-96,-112,-22,101,-38,-64,98,54,-45,-221,-249,-195
-96,-112,-22,101,-38,-64,98,48,-45,-221,-243,-195
-96,-112,-22,101,-38,-64,98,48,-51,-221,-243,-195
-96,-112,-22,101,-38,-64,98,42,-51,-221,-243,-195
-96,-112,-22,101,-38,-64,98,42,-51,-221,-243,-189
-96,-112,-22,101,-38,-64,92,36,-57,-221,-243,-189
-102,-118,-22,107,-44,-64,92,30,-63,-215,-237,-189
-102,-118,-22,107,-44,-64,92,24,-63,-215,-237,-183
-108,-124,-22,113,-44,-70,92,24,-63,-215,-231,-171
-108,-124,-22,113,-44,-70,86,18,-63,-215,-231,-165
-108,-124,-22,113,-44,-70,86,12,-69,-215,-231,-165
-108,-124,-22,113,-44,-70,86,6,-75,-221,-231,-165
-108,-124,-22,113,-44,-70,74,-6,-87,-221,-237,-165
-102,-112,-16,107,-44,-58,74,-6,-93,-227,-237,-171
-102,-118,-22,107,-44,-64,74,-12,-99,-233,-243,-177
-102,-118,-22,107,-44,-64,74,-18,-99,-233,-243,-177
-102,-124,-28,113,-38,-70,74,-24,-105,-239,-249,-183
-102,-124,-28,113,-38,-70,74,-24,-105,-239,-249,-183
-102,-130,-34,113,-38,-76,68,-24,-105,-239,-249,-189
-102,-130,-34,113,-38,-76,68,-29,-111,-239,-249,-189
-108,-130,-28,119,-44,-76,62,-29,-111,-245,-249,-195
-108,-130,-28,119,-44,-76,56,-35,-111,-245,-249,-195
-108,-130,-28,119,-44,-76,56,-35,-111,-245,-255,-195
-108,-136,-34,119,-38,-82,56,-35,-111,-245,-255,-195
-108,-136,-34,119,-38,-82,56,-35,-111,-245,-261,-195
-108,-136,-34,119,-38,-82,56,-35,-117,-245,-261,-195
-108,-130,-28,119,-44,-76,56,-47,-117,-245,-255,-195
-108,-130,-28,119,-44,-76,50,-53,-129,-251,-261,-195
-108,-124,-22,113,-44,-70,50,-59,-129,-251,-255,-189
-108,-124,-22,113,-44,-70,50,-65,-129,-251,-255,-189
-114,-124,-16,119,-50,-64,62,-65,-129,-251,-255,-189
-114,-112,-4,113,-56,-52,62,-65,-129,-251,-249,-189
-108,-106,-4,107,-56,-52,80,-59,-117,-245,-237,-183
-108,-100,2,101,-56,-46,86,-47,-111,-239,-231,-171
-108,-82,20,95,-68,-28,92,-47,-105,-227,-231,-171
-108,-70,32,89,-74,-17,110,-41,-99,-221,-231,-171
-108,-58,44,83,-80,-17,116,-41,-87,-209,-231,-165
-114,-46,62,77,-92,1,122,-35,-81,-203,-231,-159
-114,-40,68,77,-92,7,128,-29,-81,-203,-231,-159
-114,-34,74,71,-98,13,134,-29,-81,-203,-225,-159
-120,-22,92,71,-110,25,146,-24,-75,-197,-225,-153
-120,-16,98,65,-110,31,152,-18,-69,-185,-213,-147
-120,-10,104,65,-116,37,158,-18,-69,-191,-213,-147
-120,1,122,53,-122,55,164,-18,-63,-185,-207,-135
-120,7,134,47,-128,67,170,-6,-63,-185,-201,-129
-114,31,152,35,-134,91,170,0,-45,-173,-189,-117
-102,43,152,23,-128,97,170,0,-33,-149,-171,-105
-96,73,176,5,-134,121,170,6,-28,-137,-159,-93
-90,91,188,-7,-140,139,170,0,-28,-119,-141,-81
-84,109,200,-19,-140,151,152,-18,-28,-119,-129,-75
-84,127,212,-19,-152,169,134,-24,-28,-113,-135,-75
-84,145,230,-24,-158,187,122,-24,-28,-107,-123,-63
-84,157,242,-30,-164,199,116,-29,-28,-113,-123,-57
-84,163,248,-30,-170,205,104,-41,-28,-113,-123,-57
-78,169,248,-36,-164,211,68,-65,-39,-113,-123,-51
-78,169,248,-36,-164,211,44,-83,-45,-113,-123,-51
-72,175,248,-42,-164,211,32,-89,-39,-113,-117,-39
-72,175,248,-42,-164,211,26,-95,-45,-113,-117,-39
-60,175,236,-48,-152,205,20,-107,-57,-113,-123,-33
-54,175,230,-54,-146,205,8,-113,-63,-125,-123,-33
-54,163,218,-48,-140,193,8,-125,-81,-131,-129,-33
-54,151,206,-42,-134,181,8,-125,-81,-137,-135,-33
-54,133,194,-30,-122,163,8,-125,-81,-137,-135,-39
-54,121,182,-24,-116,151,8,-113,-81,-137,-135,-39
-54,85,146,-19,-98,115,14,-107,-81,-137,-141,-51
-54,55,116,-7,-86,85,14,-107,-81,-161,-159,-63
-54,13,74,11,-62,43,8,-119,-99,-185,-177,-87
-66,1,62,29,-68,25,8,-125,-123,-203,-207,-105
-90,-10,74,47,-86,25,8,-119,-123,-221,-219,-129
-114,-22,86,65,-104,25,20,-113,-129,-227,-237,-147
-120,-46,68,83,-98,1,32,-101,-129,-233,-243,-165
-126,-52,68,89,-98,1,50,-101,-129,-239,-255,-165
-132,-70,56,101,-98,-17,56,-95,-129,-239,-255,-171
-132,-88,38,107,-86,-22,62,-89,-129,-239,-255,-171
-126,-100,20,113,-74,-34,80,-89,-129,-239,-255,-165
-126,-112,8,119,-68,-46,110,-83,-129,-239,-255,-165
-120,-112,2,113,-62,-52,128,-71,-123,-233,-255,-165
-120,-112,2,113,-62,-52,146,-65,-111,-233,-255,-165
-120,-112,2,113,-62,-52,176,-29,-93,-233,-243,-165
-120,-124,-10,119,-56,-64,236,-6,-81,-233,-243,-177
-120,-124,-10,119,-56,-64,332,36,-75,-233,-255,-183
-120,-118,-4,119,-62,-58,410,48,-81,-233,-255,-195
-120,-130,-16,125,-56,-70,434,60,-81,-233,-255,-201
-120,-118,-4,119,-62,-58,452,78,-75,-233,-255,-201
-108,-112,-10,107,-50,-58,452,126,-63,-227,-255,-201
-102,-112,-16,107,-44,-58,422,180,-51,-227,-255,-189
-78,-100,-28,89,-26,-58,350,252,-28,-209,-255,-183
-42,-64,-28,53,-8,-40,230,360,8,-191,-237,-171
6,1,-10,-7,4,-11,50,444,62,-155,-207,-153
41,49,2,-42,28,25,-135,516,122,-113,-177,-129
95,115,14,-102,33,67,-327,558,158,-65,-147,-99
131,139,2,-132,57,73,-483,570,176,-47,-129,-87
155,169,8,-162,69,91,-621,600,188,-35,-117,-81
185,205,14,-192,81,109,-741,672,212,-18,-99,-63
215,205,-16,-210,111,97,-837,714,218,-18,-87,-51
227,193,-34,-210,129,79,-891,738,218,-18,-87,-39
233,211,-28,-222,123,91,-945,726,218,-18,-75,-39
233,235,-4,-234,111,115,-981,708,218,0,-57,-21
263,247,-16,-258,135,121,-1017,678,242,24,-27,-10
299,235,-63,-264,183,79,-1065,588,260,54,-16,-4
311,241,-63,-276,189,85,-1083,498,278,78,-4,8
317,283,-34,-300,177,127,-1053,522,344,120,14,20
329,325,-10,-324,165,163,-1035,534,428,168,26,32
353,349,-10,-348,177,175,-1059,456,494,222,50,50
377,397,14,-384,177,211,-1089,378,566,264,86,80
437,421,-22,-426,225,205,-1143,360,680,336,134,134
533,433,-99,-486,315,163,-1239,324,776,420,212,206
635,457,-177,-540,405,139,-1329,246,872,504,308,296
737,469,-267,-600,501,97,-1425,138,956,594,410,374
863,487,-369,-678,615,55,-1563,-65,1028,714,530,470
1019,571,-447,-792,735,61,-1743,-323,1142,906,746,644
1211,745,-459,-978,831,145,-1971,-551,1352,1200,1076,908
1415,919,-495,-1164,957,211,-2253,-935,1520,1500,1442,1202
1565,1057,-507,-1308,1035,271,-2510,-1493,1598,1788,1790,1478
1691,1255,-429,-1476,1059,415,-2708,-1967,1700,2147,2191,1826
1781,1501,-273,-1644,1029,613,-2864,-2285,1880,2560,2646,2191
1847,1723,-117,-1782,987,799,-3002,-2608,1964,2968,3102,2544
1871,1945,68,-1908,897,1003,-3074,-2896,1964,3346,3498,2862
1811,2088,272,-1950,765,1183,-3038,-3016,2047,3712,3840,3090
1721,2035,314,-1878,699,1177,-2858,-2902,2317,4126,4080,3180
1565,1735,170,-1650,699,955,-2522,-2530,2658,4516,4212,3114
1373,1429,50,-1398,657,739,-2187,-2159,2802,4756,4242,2982
1199,1249,50,-1224,567,655,-1953,-1979,2664,4804,4212,2886
1085,1111,20,-1098,525,565,-1749,-1835,2406,4552,4056,2742
959,901,-51,-930,507,421,-1497,-1565,1994,3910,3666,2478
779,673,-105,-726,447,277,-1215,-1307,1478,3142,3126,2125
593,487,-99,-540,345,193,-939,-1067,1028,2428,2514,1724
401,283,-111,-342,261,85,-657,-773,644,1614,1754,1208
245,37,-201,-138,225,-76,-399,-449,344,744,878,608
131,-112,-249,-19,189,-178,-225,-209,212,240,242,146
71,-124,-201,17,135,-160,-141,-107,212,126,56,-10
59,-82,-147,5,99,-112,-117,-71,212,150,80,2
47,-82,-135,11,87,-106,-99,-47,212,150,86,2
24,-88,-105,29,57,-100,-57,-24,224,138,50,-10
-12,-100,-81,53,33,-94,3,18,224,108,20,-27
-48,-136,-81,89,22,-112,38,54,212,60,-16,-51
-90,-160,-63,125,-8,-112,86,90,194,18,-51,-81
-96,-172,-69,131,-8,-124,134,138,164,-29,-99,-117
-96,-166,-63,131,-14,-118,158,180,122,-77,-141,-141
-96,-166,-63,131,-14,-118,176,204,80,-131,-171,-165
-90,-166,-69,125,-8,-118,176,216,50,-173,-201,-195
-90,-178,-81,131,-2,-130,170,204,26,-203,-231,-201
-96,-184,-81,137,-2,-136,164,198,14,-227,-243,-207
-96,-190,-87,143,-2,-142,164,198,8,-227,-243,-207
-108,-190,-75,149,-14,-136,170,198,8,-233,-249,-213
-114,-190,-69,149,-20,-130,188,204,14,-233,-255,-225
-120,-196,-69,155,-20,-136,206,222,14,-233,-261,-225
-126,-196,-63,161,-26,-130,224,234,14,-245,-273,-225
-126,-208,-75,167,-20,-142,224,240,14,-251,-279,-225
-120,-208,-81,161,-14,-148,236,252,2,-263,-291,-231
-120,-202,-75,161,-20,-142,242,264,-4,-263,-297,-243
-120,-202,-75,161,-20,-142,242,270,-10,-269,-297,-243
-120,-196,-69,155,-20,-136,248,276,-16,-269,-297,-249
-120,-196,-69,155,-20,-136,248,282,-16,-269,-297,-249
-126,-196,-63,161,-26,-130,248,282,-10,-257,-291,-237
-126,-196,-63,161,-26,-130,254,288,-10,-257,-291,-231
-126,-196,-63,161,-26,-130,260,288,-4,-251,-279,-225
-126,-196,-63,161,-26,-130,266,294,2,-251,-279,-219
-126,-190,-57,155,-32,-124,272,312,-4,-251,-279,-225
-126,-190,-57,155,-32,-124,272,330,8,-251,-279,-225
-126,-190,-57,155,-32,-124,272,336,2,-251,-273,-225
-120,-184,-57,149,-26,-124,278,342,8,-245,-273,-225
-120,-184,-57,149,-26,-124,278,354,14,-245,-273,-231
-120,-184,-57,149,-26,-124,284,360,20,-245,-273,-231
-120,-178,-51,149,-32,-118,290,366,26,-239,-273,-237
-120,-178,-51,149,-32,-118,290,372,38,-233,-261,-231
-114,-172,-51,143,-26,-112,290,378,44,-227,-261,-225
-114,-172,-51,143,-26,-112,302,396,50,-227,-261,-219
-114,-172,-51,143,-26,-112,302,390,62,-227,-261,-213
-108,-166,-51,137,-26,-112,308,402,68,-221,-255,-213
-108,-160,-45,131,-26,-106,308,420,74,-227,-249,-207
-108,-154,-39,131,-32,-100,314,420,80,-215,-249,-207
-108,-142,-34,125,-38,-88,320,438,86,-215,-243,-201
-108,-142,-34,125,-38,-88,320,444,92,-215,-237,-189
-108,-142,-34,125,-38,-88,320,444,92,-203,-225,-189
-108,-136,-34,119,-38,-82,320,450,92,-203,-225,-189
-108,-136,-34,119,-38,-82,326,450,92,-197,-219,-183
-108,-136,-34,119,-38,-82,326,456,92,-191,-219,-177
-108,-130,-28,119,-44,-76,332,462,98,-185,-213,-177
-108,-124,-22,113,-44,-70,338,462,98,-185,-213,-171
-102,-118,-22,107,-44,-64,350,468,104,-185,-207,-177
-102,-112,-16,107,-44,-58,350,468,104,-185,-201,-171
-102,-112,-16,107,-44,-58,350,474,98,-179,-195,-177
-102,-106,-10,101,-50,-52,350,474,98,-179,-195,-177
-102,-100,-4,101,-50,-46,356,480,92,-167,-195,-183
-96,-94,-4,95,-50,-46,356,480,92,-167,-183,-177
-96,-88,2,89,-50,-40,362,480,86,-167,-189,-177
-96,-82,8,89,-56,-34,362,480,86,-167,-189,-177
-96,-70,20,83,-62,-22,368,468,74,-167,-195,-183
-96,-64,26,77,-62,-17,374,468,74,-161,-195,-177
-96,-64,26,77,-62,-17,380,462,56,-167,-183,-171
-96,-64,26,77,-62,-17,380,462,50,-167,-183,-159
-96,-64,26,77,-62,-17,380,456,26,-173,-171,-153
-96,-58,32,77,-68,-17,380,444,20,-179,-171,-147
-96,-58,32,77,-68,-17,392,450,2,-179,-171,-141
-96,-58,32,77,-68,-17,392,438,-10,-179,-171,-141
-96,-52,38,71,-68,-17,392,426,-28,-191,-171,-141
-96,-52,38,71,-68,-17,392,414,-45,-197,-171,-141
-102,-46,50,71,-80,-5,392,396,-63,-203,-177,-147
-102,-40,56,71,-80,1,392,372,-81,-209,-177,-147
-102,-34,62,65,-86,7,398,348,-111,-215,-189,-153
-102,-28,68,65,-86,13,398,330,-135,-227,-189,-159
-102,-34,62,65,-86,7,398,318,-159,-233,-189,-159
-102,-34,62,65,-86,7,404,294,-195,-245,-189,-159
-108,-40,62,71,-86,1,404,270,-231,-251,-189,-159
-108,-40,62,71,-86,1,404,240,-261,-263,-189,-159
-108,-40,62,71,-86,1,392,216,-291,-275,-195,-159
-114,-40,68,77,-92,7,392,186,-327,-299,-201,-171
-114,-46,62,77,-92,1,386,150,-363,-311,-213,-171
-114,-58,50,83,-86,-11,386,114,-405,-329,-225,-171
-120,-64,50,89,-86,-17,386,78,-453,-341,-237,-183
-120,-70,44,95,-86,-17,374,42,-495,-365,-249,-189
-120,-70,44,95,-86,-17,374,6,-531,-377,-255,-195
-126,-76,44,101,-86,-17,368,-24,-573,-401,-261,-201
-126,-76,44,101,-86,-17,350,-53,-615,-425,-267,-201
-132,-82,44,107,-92,-17,338,-89,-669,-449,-279,-201
-132,-82,44,107,-92,-17,320,-125,-711,-479,-291,-201
-132,-88,38,107,-86,-22,314,-167,-753,-503,-291,-207
-138,-94,38,113,-92,-22,302,-209,-789,-515,-309,-213
-138,-100,32,119,-86,-28,290,-251,-843,-539,-321,-219
-144,-106,32,125,-92,-34,278,-293,-891,-557,-327,-225
-144,-112,26,125,-86,-40,266,-323,-945,-581,-339,-231
-138,-124,8,131,-74,-52,248,-365,-987,-599,-345,-237
-138,-130,2,131,-74,-58,230,-401,-1023,-623,-357,-243
-138,-142,-10,137,-68,-70,218,-437,-1053,-635,-357,-243
-138,-148,-16,143,-62,-76,200,-473,-1095,-665,-369,-249
-138,-148,-16,143,-62,-76,176,-509,-1137,-677,-369,-249
-138,-154,-22,143,-62,-82,164,-539,-1167,-695,-375,-249
-138,-154,-22,143,-62,-82,140,-569,-1203,-713,-393,-249
-138,-160,-28,149,-56,-88,134,-599,-1239,-731,-393,-249
-138,-166,-34,149,-56,-94,110,-629,-1257,-743,-399,-255
-138,-166,-34,149,-56,-94,98,-653,-1287,-749,-405,-255
-138,-166,-34,149,-56,-94,80,-671,-1305,-749,-405,-261
-138,-166,-34,149,-56,-94,74,-683,-1317,-755,-405,-261
-138,-172,-34,155,-50,-100,56,-701,-1335,-755,-411,-261
-138,-172,-34,155,-50,-100,44,-707,-1341,-761,-411,-261
-138,-172,-34,155,-50,-100,26,-719,-1347,-761,-417,-261
-138,-172,-34,155,-50,-100,26,-719,-1347,-755,-417,-261
-138,-178,-34,155,-50,-106,20,-719,-1347,-761,-417,-255
-138,-184,-39,161,-44,-112,8,-719,-1335,-755,-405,-255
-132,-190,-51,161,-38,-124,8,-713,-1317,-755,-399,-249
-132,-190,-51,161,-38,-124,8,-701,-1299,-743,-393,-249
-132,-184,-45,155,-38,-118,8,-689,-1257,-725,-381,-249
-132,-178,-39,155,-44,-112,8,-665,-1215,-701,-375,-237
-132,-172,-34,149,-44,-106,8,-641,-1167,-671,-363,-237
-126,-166,-34,143,-44,-100,8,-605,-1125,-647,-357,-237
-126,-172,-39,149,-38,-106,8,-575,-1071,-629,-345,-237
-126,-172,-39,149,-38,-106,8,-539,-1029,-611,-339,-225
-126,-172,-39,149,-38,-106,8,-515,-993,-593,-333,-225
-126,-172,-39,149,-38,-106,14,-485,-945,-575,-327,-225
-120,-172,-45,143,-32,-112,20,-455,-891,-557,-321,-225
-120,-166,-39,143,-38,-106,26,-425,-843,-539,-315,-225
-120,-166,-39,143,-38,-106,32,-395,-789,-515,-315,-219
-114,-160,-39,137,-32,-100,32,-359,-741,-497,-309,-219
-114,-154,-34,131,-38,-94,38,-317,-675,-461,-297,-213
-114,-154,-34,131,-38,-94,44,-281,-621,-443,-291,-213
-114,-136,-28,125,-44,-76,50,-251,-579,-419,-279,-207
-114,-136,-28,125,-44,-76,50,-227,-543,-395,-273,-201
-114,-130,-22,119,-50,-70,56,-197,-507,-389,-267,-201
-114,-130,-22,119,-50,-70,62,-179,-465,-371,-261,-201
-114,-124,-16,119,-50,-64,68,-155,-423,-359,-267,-201
-108,-118,-16,113,-50,-64,68,-143,-387,-341,-261,-201
-108,-124,-22,113,-44,-70,68,-125,-351,-323,-255,-201
-108,-124,-22,113,-44,-70,68,-101,-303,-305,-255,-195
-108,-130,-28,119,-44,-76,74,-83,-273,-293,-255,-195
-108,-124,-22,113,-44,-70,74,-65,-243,-275,-249,-195
-108,-118,-16,113,-50,-64,86,-47,-213,-269,-243,-195
-102,-118,-22,107,-44,-64,86,-35,-195,-263,-243,-195
-102,-106,-10,101,-50,-52,92,-24,-177,-257,-237,-189
-102,-106,-10,101,-50,-52,92,-24,-165,-257,-231,-189
-102,-106,-10,101,-50,-52,92,-24,-159,-251,-237,-195
-102,-106,-10,101,-50,-52,98,-24,-147,-245,-231,-195
-102,-106,-10,101,-50,-52,98,-24,-141,-245,-237,-201
-102,-106,-10,101,-50,-52,98,-24,-129,-239,-231,-201
-102,-100,-4,101,-50,-46,98,-24,-111,-227,-231,-201
-102,-100,-4,101,-50,-46,98,-24,-99,-221,-231,-201
-102,-94,2,95,-56,-40,98,-18,-93,-221,-231,-201
-96,-88,2,89,-50,-40,98,-18,-93,-221,-231,-201
-96,-94,-4,95,-50,-46,92,-18,-93,-221,-231,-201
-96,-94,-4,95,-50,-46,92,-18,-93,-221,-231,-201
-96,-100,-10,95,-44,-52,92,-18,-93,-215,-231,-195
-96,-100,-10,95,-44,-52,92,-24,-93,-215,-225,-195
-96,-100,-10,95,-44,-52,92,-24,-93,-215,-225,-189
-96,-100,-10,95,-44,-52,92,-29,-93,-215,-225,-189
-96,-100,-10,95,-44,-52,86,-29,-93,-209,-225,-183
-96,-100,-10,95,-44,-52,86,-35,-93,-209,-219,-183
-96,-100,-10,95,-44,-52,86,-35,-99,-209,-219,-183
-96,-100,-10,95,-44,-52,86,-41,-99,-209,-219,-183
-96,-100,-10,95,-44,-52,86,-41,-99,-209,-219,-177
-96,-100,-10,95,-44,-52,80,-47,-105,-209,-219,-177
-96,-106,-16,101,-44,-58,86,-53,-111,-209,-213,-183
-96,-106,-16,101,-44,-58,86,-59,-111,-209,-213,-183
-96,-112,-22,101,-38,-64,92,-59,-111,-215,-207,-177
-96,-112,-22,101,-38,-64,86,-65,-111,-215,-207,-177
-96,-112,-22,101,-38,-64,86,-71,-117,-209,-207,-177
-96,-112,-22,101,-38,-64,86,-77,-123,-215,-207,-177
-96,-112,-22,101,-38,-64,86,-77,-135,-209,-213,-177
-96,-112,-22,101,-38,-64,86,-83,-141,-209,-213,-177
-96,-118,-28,107,-38,-70,80,-83,-135,-209,-213,-177
-96,-118,-28,107,-38,-70,80,-83,-141,-209,-225,-177
-90,-112,-28,101,-32,-64,86,-101,-141,-215,-225,-183
-96,-118,-28,107,-38,-70,80,-107,-141,-215,-225,-183
-96,-118,-28,107,-38,-70,80,-107,-141,-215,-225,-183
-102,-124,-28,113,-38,-70,74,-113,-141,-215,-225,-183
-102,-124,-28,113,-38,-70,74,-113,-141,-215,-225,-183
-102,-130,-34,113,-38,-76,74,-113,-147,-221,-225,-183
-102,-130,-34,113,-38,-76,74,-119,-159,-221,-225,-183
-108,-130,-28,119,-44,-76,74,-113,-165,-233,-225,-183
-108,-130,-28,119,-44,-76,68,-119,-171,-233,-225,-183
-102,-130,-34,113,-38,-76,68,-125,-171,-233,-225,-183
-102,-136,-34,119,-32,-82,68,-125,-171,-233,-225,-183
-96,-136,-34,113,-26,-88,68,-131,-171,-233,-219,-183
-96,-136,-34,113,-26,-88,68,-131,-177,-233,-219,-183
-96,-136,-34,113,-26,-88,68,-137,-171,-233,-225,-189
-96,-136,-34,113,-26,-88,62,-137,-183,-239,-231,-189
-96,-136,-34,113,-26,-88,62,-137,-177,-239,-237,-189
-96,-136,-34,113,-26,-88,62,-137,-177,-239,-237,-189
-102,-130,-34,113,-38,-76,68,-137,-177,-233,-231,-183
-102,-118,-22,107,-44,-64,68,-137,-177,-233,-225,-183
-96,-106,-16,101,-44,-58,80,-131,-165,-221,-213,-171
-96,-100,-10,95,-44,-52,86,-119,-159,-215,-207,-159
-96,-82,8,89,-56,-34,98,-113,-153,-209,-201,-159
-96,-70,20,83,-62,-22,116,-107,-147,-203,-201,-159
-96,-58,32,77,-68,-17,128,-101,-135,-197,-195,-153
-102,-46,50,71,-80,-5,134,-95,-129,-191,-195,-147
-102,-46,50,71,-80,-5,140,-89,-129,-191,-195,-147
-102,-40,56,71,-80,1,146,-89,-129,-191,-189,-147
-108,-34,68,71,-92,7,158,-71,-123,-185,-189,-141
-108,-28,74,65,-92,13,164,-65,-117,-173,-177,-135
-108,-22,80,65,-98,19,170,-65,-111,-173,-177,-135
-108,-4,98,53,-104,37,176,-65,-105,-167,-171,-123
-108,1,110,47,-110,49,182,-53,-99,-161,-165,-117
-102,19,128,35,-116,73,182,-47,-81,-149,-153,-105
-90,43,140,17,-116,91,182,-47,-69,-131,-141,-99
-84,73,164,-1,-122,115,182,-41,-57,-119,-129,-87
-78,103,188,-19,-134,145,182,-47,-51,-107,-117,-81
-72,121,200,-19,-134,157,164,-65,-51,-107,-105,-75
-66,133,206,-24,-134,169,140,-71,-51,-95,-105,-63
-66,145,212,-30,-140,181,128,-77,-51,-89,-93,-51
-60,151,212,-36,-140,181,116,-77,-57,-89,-87,-33
-60,151,212,-36,-140,181,104,-89,-63,-89,-87,-33
-60,157,218,-42,-140,187,68,-113,-81,-95,-87,-33
-60,157,218,-42,-140,187,44,-131,-87,-95,-87,-33
-60,163,224,-42,-146,193,32,-137,-87,-101,-81,-27
-60,163,224,-42,-146,193,26,-143,-93,-101,-81,-27
