,,,,,,,,,,,
2019-09-04 23:15:51,,,,,,,,,,,
,,,,,,,,,,,
I,II,III,aVR,aVL,aVF,V1,V2,V3,V4,V5,V6
-151,-98,50,123,-102,-24,172,29,2,-23,-74,-91
-151,-98,50,123,-102,-24,172,29,2,-23,-74,-91
-145,-98,44,117,-96,-30,178,40,8,-17,-74,-91
-145,-98,44,117,-96,-30,178,40,14,-17,-74,-91
-145,-104,38,117,-96,-36,184,46,14,-11,-68,-91
-145,-104,38,117,-96,-36,190,46,20,-11,-68,-91
-145,-98,44,117,-96,-30,190,46,26,-11,-62,-91
-145,-92,50,111,-102,-24,196,52,26,-11,-62,-91
-145,-92,50,111,-102,-24,196,52,32,-11,-62,-91
-151,-92,56,117,-108,-18,202,58,32,-5,-56,-91
-145,-86,56,111,-102,-18,208,64,38,-5,-56,-97
-145,-86,56,111,-102,-18,208,64,38,-5,-56,-97
-151,-86,62,117,-108,-12,208,70,38,-5,-56,-97
-151,-80,68,111,-114,-6,202,76,38,-5,-62,-103
-145,-92,50,111,-102,-24,202,76,44,-5,-56,-103
-145,-98,44,117,-96,-30,202,82,44,-5,-56,-103
-145,-98,44,117,-96,-30,202,88,44,1,-50,-103
-145,-98,44,117,-96,-30,202,88,50,1,-50,-103
-145,-104,38,117,-96,-36,202,88,50,1,-50,-109
-145,-104,38,117,-96,-36,208,94,50,1,-44,-109
-151,-104,44,123,-102,-30,208,94,55,1,-44,-109
-151,-104,44,123,-102,-30,214,106,55,1,-38,-109
-157,-104,50,123,-108,-30,214,106,60,1,-38,-109
-157,-104,50,123,-108,-30,214,112,60,-5,-38,-109
-163,-104,56,129,-114,-24,208,118,66,1,-38,-103
-157,-104,50,123,-108,-30,208,118,66,1,-38,-103
-151,-98,50,123,-102,-24,208,118,72,7,-44,-97
-151,-98,50,123,-102,-24,208,124,78,13,-44,-97
-145,-98,44,117,-96,-30,208,130,84,19,-38,-97
-145,-104,38,117,-96,-36,214,130,84,25,-32,-97
-145,-98,44,117,-96,-30,214,130,90,25,-32,-97
-139,-92,44,111,-96,-24,214,136,90,31,-32,-91
-139,-80,56,105,-102,-12,214,136,96,31,-26,-91
-139,-80,56,105,-102,-12,214,142,102,37,-26,-91
-145,-86,56,111,-102,-18,214,142,102,37,-26,-91
-145,-86,56,111,-102,-18,214,148,102,37,-26,-91
-145,-86,56,111,-102,-18,214,148,108,37,-20,-91
-139,-86,50,111,-96,-18,208,154,108,43,-26,-91
-139,-86,50,111,-96,-18,208,154,108,49,-26,-91
-145,-98,44,117,-96,-30,214,154,114,55,-20,-85
-151,-92,56,117,-108,-18,214,160,120,60,-20,-79
-151,-86,62,117,-108,-12,214,166,126,60,-14,-79
-151,-74,74,111,-114,0,214,178,132,65,-8,-79
-145,-68,74,99,-114,0,214,178,138,71,-2,-73
-139,-68,68,99,-108,0,214,184,144,77,4,-73
-133,-68,62,93,-102,-6,214,190,150,77,4,-73
-127,-63,62,93,-96,0,214,196,150,83,4,-67
-127,-63,62,93,-96,0,220,202,156,83,4,-61
-121,-63,56,87,-90,-6,226,208,162,89,10,-61
-121,-58,62,87,-90,0,232,214,162,95,10,-55
-127,-52,74,87,-102,12,232,214,168,95,16,-55
-127,-52,74,87,-102,12,232,226,180,95,16,-49
-127,-52,74,87,-102,12,238,238,186,101,28,-43
-121,-52,68,81,-96,6,238,250,192,107,34,-37
-115,-40,74,75,-96,18,238,256,198,107,34,-37
-109,-34,74,69,-90,18,238,268,204,107,39,-31
-109,-28,80,63,-96,24,238,280,204,107,39,-25
-109,-28,80,63,-96,24,244,286,216,119,44,-25
-115,-28,86,69,-102,30,244,292,222,125,50,-25
-109,-28,80,63,-96,24,244,298,222,131,50,-25
-103,-22,80,63,-90,30,244,304,228,137,56,-25
-103,-22,80,63,-90,30,244,310,240,137,62,-25
-97,-22,74,57,-84,24,244,316,252,143,62,-25
-85,-10,74,46,-78,30,244,328,258,149,68,-19
-79,8,86,35,-84,48,244,334,264,155,74,-13
-85,8,92,35,-90,48,244,340,264,161,80,-13
-85,20,104,29,-96,60,244,352,270,167,86,-7
-85,20,104,29,-96,60,244,364,276,173,92,5
-79,26,104,29,-90,66,244,370,288,173,98,11
-73,26,98,23,-84,60,256,382,294,185,104,11
-73,26,98,23,-84,60,256,388,300,191,110,17
-73,26,98,23,-84,60,256,394,312,197,116,17
-67,26,92,23,-78,60,250,394,318,203,122,23
-67,38,104,17,-84,72,244,400,318,209,122,28
-61,50,110,5,-84,78,250,406,330,215,128,28
-61,50,110,5,-84,78,244,412,336,215,134,33
-67,50,116,11,-90,84,244,418,336,215,134,39
-61,56,116,-1,-90,84,244,418,336,221,140,39
-55,68,122,-7,-90,96,244,424,342,221,152,45
-55,74,128,-7,-90,102,244,430,348,227,158,51
-61,74,134,-7,-96,102,244,430,348,233,164,57
-55,80,134,-13,-96,108,244,430,354,245,170,69
-49,92,140,-25,-96,114,238,436,360,251,176,75
-49,92,140,-25,-96,114,238,430,360,257,176,81
-49,98,146,-25,-96,120,238,436,366,269,182,93
-43,104,146,-31,-96,126,238,442,372,269,188,99
-32,110,140,-37,-84,126,232,448,372,275,194,105
-32,116,146,-43,-90,132,232,442,378,269,200,111
-27,110,134,-37,-78,126,226,442,372,269,200,111
-27,122,146,-43,-84,138,226,454,378,275,206,117
-32,128,158,-49,-96,144,220,448,378,275,206,123
-32,134,164,-49,-96,150,214,448,384,275,224,129
-32,134,164,-49,-96,150,214,448,384,281,224,135
-32,140,170,-55,-102,156,202,442,384,293,230,141
-32,152,182,-61,-108,168,202,442,384,293,230,147
-21,164,182,-73,-102,174,196,436,378,299,230,153
-21,164,182,-73,-102,174,196,436,378,299,230,153
-15,164,176,-73,-96,174,190,436,372,299,230,159
-15,170,182,-73,-96,180,178,424,366,293,224,159
-9,170,176,-79,-90,174,172,418,360,293,224,165
-9,170,176,-79,-90,174,166,412,354,293,230,165
-9,164,170,-79,-90,168,160,406,354,293,236,171
-3,164,164,-79,-84,168,160,400,354,293,242,177
-3,170,170,-79,-84,174,154,394,348,287,248,183
3,164,158,-85,-78,162,148,388,342,287,248,183
15,164,146,-91,-66,156,142,376,336,287,242,183
15,164,146,-91,-66,156,142,370,330,287,242,189
21,170,146,-91,-60,162,136,364,324,287,236,189
27,170,140,-97,-54,156,130,358,324,287,242,189
33,176,140,-103,-54,162,124,352,318,287,242,189
39,182,140,-109,-48,162,106,340,306,281,236,183
33,176,140,-103,-54,162,100,334,312,269,236,183
39,170,128,-103,-42,150,94,322,306,269,236,183
45,164,116,-103,-36,144,88,310,300,263,236,183
45,158,110,-97,-30,138,76,298,288,251,230,183
45,158,110,-97,-30,138,70,280,276,245,224,183
51,152,98,-103,-24,126,64,268,270,239,224,183
45,152,104,-97,-30,132,64,262,258,233,218,183
45,146,98,-91,-24,126,58,250,252,227,212,183
45,146,98,-91,-24,126,52,238,240,227,206,177
45,146,98,-91,-24,126,40,226,228,221,200,171
45,146,98,-91,-24,126,34,214,216,209,194,165
39,128,86,-85,-24,108,23,208,204,203,188,159
45,122,74,-79,-12,102,18,196,192,191,182,153
45,110,62,-73,-6,90,18,184,180,179,176,147
45,98,50,-67,-1,78,23,172,168,173,170,147
45,80,32,-61,4,60,23,160,156,161,158,135
39,74,32,-55,4,54,23,142,144,149,146,129
39,74,32,-55,4,54,23,124,132,137,134,117
33,62,26,-43,4,48,23,112,120,125,122,111
27,62,32,-43,-1,48,23,100,108,113,110,105
27,56,26,-43,-1,42,23,88,90,101,104,93
21,56,32,-37,-6,48,23,76,78,95,98,81
15,62,44,-37,-12,54,23,64,66,89,92,75
21,62,38,-37,-6,54,23,58,55,83,80,63
15,56,38,-37,-12,48,18,46,50,77,74,57
9,44,32,-25,-12,42,18,40,50,65,68,51
3,38,32,-19,-12,36,18,34,44,60,56,45
-3,32,32,-13,-18,36,18,29,32,49,44,33
-9,20,26,-7,-18,24,23,24,26,37,39,28
-15,2,14,11,-12,12,23,18,20,31,34,28
-27,-4,20,17,-24,12,23,12,8,25,22,17
-32,-16,14,23,-24,0,23,6,2,19,16,11
-37,-22,14,29,-24,-6,23,0,-4,13,10,5
-43,-16,26,29,-36,6,23,-6,-16,7,4,-7
-43,-16,26,29,-36,6,28,-12,-22,1,-2,-13
-43,-28,14,35,-30,-6,28,-18,-22,1,-2,-19
-49,-40,8,41,-30,-18,34,-24,-28,1,-8,-25
-49,-40,8,41,-30,-18,34,-30,-34,-5,-14,-31
-43,-40,2,41,-24,-18,34,-36,-40,-11,-20,-37
-43,-40,2,41,-24,-18,40,-36,-46,-17,-26,-43
-43,-40,2,41,-24,-18,34,-36,-52,-23,-32,-43
-49,-40,8,41,-30,-18,34,-42,-58,-29,-38,-49
-49,-46,2,46,-24,-24,34,-42,-64,-29,-44,-49
-55,-52,2,51,-30,-24,34,-42,-70,-35,-44,-43
-61,-52,8,51,-36,-24,28,-48,-70,-35,-44,-43
-61,-58,2,57,-30,-30,28,-48,-76,-41,-50,-49
-61,-58,2,57,-30,-30,28,-54,-76,-47,-50,-55
-61,-63,-4,57,-30,-36,28,-54,-76,-47,-50,-61
-61,-63,-4,57,-30,-36,28,-60,-76,-53,-50,-61
-67,-68,-4,63,-36,-36,34,-60,-76,-53,-56,-61
-67,-63,2,63,-36,-30,34,-54,-76,-53,-56,-55
-73,-68,2,63,-42,-36,34,-54,-76,-53,-62,-55
-73,-63,8,63,-42,-30,34,-54,-82,-53,-62,-49
-79,-58,20,69,-48,-18,34,-54,-76,-59,-62,-49
-73,-63,8,63,-42,-30,40,-48,-76,-59,-62,-49
-73,-63,8,63,-42,-30,40,-42,-70,-59,-62,-55
-73,-63,8,63,-42,-30,40,-42,-70,-59,-62,-55
-67,-63,2,63,-36,-30,46,-42,-70,-59,-62,-55
-61,-63,-4,57,-30,-36,52,-42,-70,-59,-62,-49
-61,-63,-4,57,-30,-36,46,-42,-70,-59,-62,-49
-61,-63,-4,57,-30,-36,46,-48,-70,-59,-74,-49
-73,-68,2,63,-42,-36,46,-42,-64,-53,-68,-43
-79,-63,14,69,-48,-24,46,-42,-58,-47,-62,-37
-73,-63,8,63,-42,-30,46,-36,-52,-41,-56,-43
-73,-68,2,63,-42,-36,46,-36,-58,-47,-56,-43
-73,-63,8,63,-42,-30,52,-30,-58,-53,-50,-49
-73,-63,8,63,-42,-30,58,-24,-58,-47,-50,-49
-73,-63,8,63,-42,-30,58,-24,-52,-47,-50,-49
-67,-63,2,63,-36,-30,58,-18,-52,-41,-44,-43
-67,-58,8,63,-36,-24,58,-18,-46,-35,-44,-37
-67,-52,14,57,-42,-18,58,-18,-46,-35,-44,-31
-67,-52,14,57,-42,-18,58,-18,-46,-29,-38,-25
-67,-46,20,57,-42,-12,58,-18,-46,-29,-38,-25
-67,-52,14,57,-42,-18,52,-18,-46,-35,-38,-31
-73,-58,14,63,-42,-24,58,-12,-40,-29,-38,-37
-73,-58,14,63,-42,-24,58,-12,-40,-29,-38,-37
-79,-52,26,63,-54,-12,58,-12,-40,-29,-38,-43
-79,-52,26,63,-54,-12,58,-6,-40,-29,-38,-43
-79,-52,26,63,-54,-12,58,-6,-34,-23,-38,-31
-79,-52,26,63,-54,-12,58,-6,-34,-17,-38,-25
-79,-58,20,69,-48,-18,58,0,-28,-11,-32,-19
-85,-63,20,69,-54,-24,58,0,-28,-11,-32,-19
-85,-58,26,69,-54,-18,58,0,-22,-11,-32,-19
-85,-58,26,69,-54,-18,58,-6,-16,-11,-26,-25
-91,-58,32,75,-60,-12,64,-6,-4,-5,-20,-37
-97,-58,38,75,-66,-12,64,-6,-4,-5,-20,-43
-97,-63,32,75,-66,-18,64,-6,2,-11,-20,-43
-103,-58,44,81,-72,-6,70,-6,-4,-5,-20,-43
-97,-52,44,69,-72,-6,70,-6,-10,-11,-26,-43
-91,-46,44,69,-66,0,76,6,-4,-5,-20,-31
-85,-46,38,63,-60,-6,82,6,2,1,-20,-31
-85,-46,38,63,-60,-6,82,18,2,7,-20,-37
-85,-40,44,57,-66,0,82,18,2,13,-20,-37
-85,-40,44,57,-66,0,82,18,2,13,-20,-43
-91,-40,50,63,-72,6,82,18,2,13,-20,-49
-91,-40,50,63,-72,6,82,18,-4,7,-20,-49
-91,-40,50,63,-72,6,82,18,-4,1,-20,-49
-91,-40,50,63,-72,6,88,18,2,1,-20,-49
-97,-46,50,69,-72,0,82,18,2,1,-20,-43
-97,-40,56,63,-78,6,76,18,2,1,-20,-43
-103,-46,56,75,-78,6,76,12,2,1,-20,-49
-103,-46,56,75,-78,6,76,12,2,7,-14,-49
-97,-40,56,63,-78,6,76,12,2,13,-14,-49
-97,-40,56,63,-78,6,76,12,2,13,-14,-49
-97,-40,56,63,-78,6,82,12,-4,7,-14,-55
-97,-34,62,63,-78,12,82,12,-4,1,-14,-49
-103,-46,56,75,-78,6,82,12,-4,1,-20,-49
-97,-40,56,63,-78,6,82,12,2,1,-20,-49
-91,-34,56,63,-72,12,88,18,8,7,-14,-43
-97,-40,56,63,-78,6,88,18,2,1,-14,-43
-103,-40,62,69,-84,12,88,18,2,7,-14,-37
-97,-40,56,63,-78,6,88,18,8,7,-14,-43
-91,-34,56,63,-72,12,88,18,2,7,-14,-43
-91,-34,56,63,-72,12,82,12,-4,7,-20,-49
-91,-34,56,63,-72,12,82,12,2,1,-26,-49
-97,-46,50,69,-72,0,82,6,-4,1,-26,-55
-97,-46,50,69,-72,0,82,0,-10,-5,-26,-49
-97,-52,44,69,-72,-6,88,0,-10,-5,-26,-43
-97,-52,44,69,-72,-6,88,0,-10,1,-26,-43
-97,-52,44,69,-72,-6,88,0,-10,1,-20,-43
-103,-52,50,75,-78,0,88,0,-16,-5,-20,-43
-97,-52,44,69,-72,-6,88,0,-22,-5,-20,-43
-97,-52,44,69,-72,-6,88,0,-22,-5,-26,-49
-97,-52,44,69,-72,-6,88,0,-22,-11,-26,-37
-97,-46,50,69,-72,0,82,-6,-16,-11,-32,-37
-97,-46,50,69,-72,0,82,-12,-22,-17,-38,-43
-97,-52,44,69,-72,-6,76,-18,-22,-17,-44,-49
-97,-58,38,75,-66,-12,76,-18,-28,-23,-50,-55
-97,-58,38,75,-66,-12,76,-18,-34,-23,-50,-49
-103,-52,50,75,-78,0,76,-18,-34,-23,-44,-43
-109,-46,62,75,-84,6,76,-18,-34,-23,-44,-43
-103,-46,56,75,-78,6,76,-12,-34,-23,-44,-37
-103,-58,44,81,-72,-6,82,-12,-34,-17,-38,-37
-103,-58,44,81,-72,-6,82,-18,-34,-17,-32,-31
-103,-58,44,81,-72,-6,76,-24,-40,-23,-38,-37
-91,-52,38,69,-66,-6,76,-24,-40,-23,-38,-37
-91,-52,38,69,-66,-6,76,-24,-40,-29,-38,-43
-91,-52,38,69,-66,-6,82,-18,-34,-35,-44,-43
-85,-46,38,63,-60,-6,82,-18,-34,-35,-44,-43
-85,-40,44,57,-66,0,82,-18,-40,-41,-50,-49
-85,-34,50,57,-66,6,82,-24,-40,-41,-50,-49
-91,-46,44,69,-66,0,82,-30,-40,-47,-50,-49
-91,-52,38,69,-66,-6,76,-30,-40,-41,-50,-49
-97,-58,38,75,-66,-12,76,-36,-40,-41,-50,-43
-97,-58,38,75,-66,-12,76,-36,-34,-41,-44,-43
-97,-58,38,75,-66,-12,70,-42,-40,-35,-44,-43
-97,-58,38,75,-66,-12,70,-42,-46,-35,-44,-49
-91,-52,38,69,-66,-6,70,-42,-46,-41,-44,-49
-97,-58,38,75,-66,-12,70,-42,-46,-41,-44,-55
-97,-58,38,75,-66,-12,64,-42,-52,-47,-50,-55
-97,-63,32,75,-66,-18,64,-48,-52,-47,-50,-55
-97,-63,32,75,-66,-18,64,-48,-58,-53,-56,-55
-97,-63,32,75,-66,-18,64,-48,-52,-47,-56,-55
-97,-58,38,75,-66,-12,58,-54,-58,-47,-62,-55
-97,-52,44,69,-72,-6,64,-60,-58,-47,-62,-55
-103,-52,50,75,-78,0,64,-60,-58,-47,-62,-55
-103,-52,50,75,-78,0,64,-60,-64,-47,-56,-55
-103,-52,50,75,-78,0,64,-60,-64,-47,-56,-55
-97,-46,50,69,-72,0,64,-60,-64,-47,-50,-55
-97,-52,44,69,-72,-6,64,-60,-64,-53,-50,-55
-97,-52,44,69,-72,-6,70,-54,-64,-53,-56,-55
-97,-52,44,69,-72,-6,70,-54,-64,-53,-56,-61
-103,-52,50,75,-78,0,70,-54,-64,-53,-56,-55
-103,-52,50,75,-78,0,70,-54,-70,-53,-62,-55
-103,-52,50,75,-78,0,70,-48,-64,-53,-56,-55
-103,-52,50,75,-78,0,70,-48,-64,-53,-56,-55
-103,-46,56,75,-78,6,70,-48,-64,-53,-62,-55
-97,-46,50,69,-72,0,70,-48,-64,-53,-62,-55
-97,-46,50,69,-72,0,70,-48,-64,-47,-56,-55
-91,-52,38,69,-66,-6,64,-48,-64,-47,-56,-55
-91,-58,32,75,-60,-12,70,-42,-58,-53,-56,-55
-91,-52,38,69,-66,-6,70,-42,-64,-59,-56,-61
-91,-52,38,69,-66,-6,64,-42,-64,-59,-56,-61
-97,-52,44,69,-72,-6,64,-48,-64,-59,-56,-61
-103,-52,50,75,-78,0,64,-48,-64,-53,-56,-61
-103,-46,56,75,-78,6,70,-48,-64,-47,-50,-55
-103,-40,62,69,-84,12,70,-42,-58,-47,-56,-55
-109,-40,68,69,-90,12,64,-42,-58,-47,-56,-61
-103,-40,62,69,-84,12,64,-42,-58,-41,-56,-61
-103,-46,56,75,-78,6,64,-42,-58,-47,-56,-67
-103,-52,50,75,-78,0,64,-42,-64,-53,-56,-67
-103,-52,50,75,-78,0,64,-48,-64,-53,-56,-67
-97,-58,38,75,-66,-12,70,-48,-64,-53,-50,-61
-91,-58,32,75,-60,-12,70,-48,-64,-47,-44,-61
-91,-58,32,75,-60,-12,76,-54,-64,-47,-44,-61
-91,-58,32,75,-60,-12,70,-60,-70,-53,-44,-61
-91,-58,32,75,-60,-12,70,-60,-70,-53,-50,-61
-91,-58,32,75,-60,-12,64,-60,-76,-53,-50,-67
-91,-58,32,75,-60,-12,64,-54,-76,-53,-50,-67
-91,-52,38,69,-66,-6,64,-54,-76,-53,-50,-67
-91,-52,38,69,-66,-6,64,-54,-76,-53,-50,-67
-91,-46,44,69,-66,0,64,-54,-76,-47,-50,-67
-91,-46,44,69,-66,0,64,-54,-82,-47,-50,-67
-97,-46,50,69,-72,0,64,-60,-82,-47,-56,-73
-97,-46,50,69,-72,0,64,-60,-82,-47,-56,-67
-103,-52,50,75,-78,0,64,-54,-76,-47,-56,-67
-103,-52,50,75,-78,0,64,-60,-76,-47,-56,-67
-97,-58,38,75,-66,-12,64,-60,-76,-59,-62,-73
-97,-58,38,75,-66,-12,64,-60,-76,-65,-62,-73
-97,-58,38,75,-66,-12,64,-66,-76,-65,-62,-67
-97,-58,38,75,-66,-12,70,-60,-70,-65,-56,-61
-91,-58,32,75,-60,-12,70,-60,-70,-59,-50,-61
-91,-52,38,69,-66,-6,70,-66,-76,-53,-50,-67
-91,-46,44,69,-66,0,64,-66,-76,-53,-50,-61
-91,-40,50,63,-72,6,64,-66,-82,-47,-50,-61
-97,-52,44,69,-72,-6,64,-66,-82,-47,-56,-61
-103,-63,38,81,-72,-12,64,-60,-76,-47,-56,-61
-103,-63,38,81,-72,-12,64,-60,-70,-47,-56,-61
-103,-68,32,81,-72,-18,64,-54,-64,-47,-56,-61
-109,-68,38,81,-78,-18,70,-54,-64,-47,-44,-49
-109,-74,32,87,-72,-24,70,-48,-64,-41,-44,-49
-103,-74,26,87,-66,-24,70,-48,-70,-47,-44,-49
-109,-74,32,87,-72,-24,70,-48,-70,-47,-38,-49
-109,-80,26,87,-72,-30,76,-48,-70,-47,-38,-43
-115,-80,32,93,-78,-24,76,-48,-70,-47,-38,-43
-115,-80,32,93,-78,-24,76,-54,-70,-53,-44,-43
-115,-80,32,93,-78,-24,76,-48,-64,-53,-44,-43
-115,-86,26,99,-72,-30,76,-48,-64,-53,-50,-43
-115,-86,26,99,-72,-30,76,-48,-64,-53,-56,-43
-115,-86,26,99,-72,-30,76,-48,-70,-53,-56,-43
-109,-86,20,93,-66,-36,70,-48,-70,-53,-56,-49
-109,-86,20,93,-66,-36,76,-48,-70,-53,-56,-49
-109,-80,26,87,-72,-30,76,-48,-70,-59,-56,-49
-109,-74,32,87,-72,-24,70,-54,-70,-59,-56,-49
-109,-63,44,81,-78,-12,70,-54,-64,-53,-56,-49
-109,-63,44,81,-78,-12,70,-54,-64,-53,-56,-49
-109,-63,44,81,-78,-12,70,-54,-64,-53,-56,-43
-97,-63,32,75,-66,-18,70,-54,-64,-47,-50,-43
-97,-58,38,75,-66,-12,70,-54,-64,-47,-50,-37
-97,-63,32,75,-66,-18,70,-54,-70,-53,-50,-43
-91,-74,14,81,-54,-30,70,-48,-70,-47,-50,-43
-85,-80,2,75,-48,-42,76,-48,-70,-47,-44,-43
-91,-74,14,81,-54,-30,76,-48,-70,-47,-44,-37
-91,-74,14,81,-54,-30,70,-54,-82,-53,-50,-43
-91,-74,14,81,-54,-30,70,-60,-82,-53,-50,-43
-103,-80,20,87,-66,-30,70,-66,-88,-53,-56,-43
-103,-80,20,87,-66,-30,70,-66,-82,-47,-56,-43
-109,-86,20,93,-66,-36,70,-66,-82,-53,-56,-43
-103,-80,20,87,-66,-30,70,-60,-82,-53,-50,-49
-97,-80,14,81,-60,-36,64,-60,-82,-53,-50,-49
-97,-86,8,87,-54,-42,64,-60,-76,-53,-56,-49
-97,-80,14,81,-60,-36,70,-54,-70,-59,-44,-43
-97,-74,20,81,-60,-30,76,-48,-64,-53,-44,-37
-97,-74,20,81,-60,-30,70,-48,-64,-53,-44,-37
-97,-74,20,81,-60,-30,70,-54,-70,-53,-50,-43
-97,-74,20,81,-60,-30,76,-54,-70,-53,-50,-37
-103,-74,26,87,-66,-24,76,-48,-70,-53,-50,-37
-103,-68,32,81,-72,-18,76,-42,-70,-53,-44,-37
-91,-63,26,75,-60,-18,70,-42,-70,-53,-44,-37
-91,-58,32,75,-60,-12,70,-42,-76,-53,-44,-37
-91,-58,32,75,-60,-12,70,-42,-76,-53,-50,-37
-91,-58,32,75,-60,-12,70,-48,-76,-59,-50,-43
-91,-63,26,75,-60,-18,70,-48,-82,-53,-50,-43
-97,-74,20,81,-60,-30,70,-54,-82,-53,-50,-43
-97,-68,26,75,-66,-24,76,-54,-82,-53,-56,-43
-91,-68,20,75,-60,-24,76,-54,-82,-53,-50,-43
-85,-68,14,69,-54,-30,76,-48,-76,-53,-50,-43
-85,-68,14,69,-54,-30,76,-48,-76,-53,-50,-49
-79,-68,8,69,-48,-30,76,-42,-76,-53,-50,-43
-79,-68,8,69,-48,-30,82,-42,-76,-47,-50,-43
-79,-68,8,69,-48,-30,82,-42,-70,-47,-44,-43
-79,-63,14,69,-48,-24,82,-42,-70,-47,-44,-43
-79,-63,14,69,-48,-24,76,-42,-76,-47,-44,-43
-79,-58,20,69,-48,-18,76,-48,-76,-47,-44,-43
-79,-63,14,69,-48,-24,70,-48,-76,-47,-50,-43
-85,-68,14,69,-54,-30,70,-48,-76,-53,-50,-43
-85,-68,14,69,-54,-30,70,-48,-76,-59,-50,-49
-91,-68,20,75,-60,-24,70,-42,-76,-59,-50,-49
-97,-74,20,81,-60,-30,70,-48,-76,-59,-44,-43
-97,-80,14,81,-60,-36,70,-54,-76,-59,-50,-43
-91,-74,14,81,-54,-30,70,-54,-76,-53,-44,-37
-91,-74,14,81,-54,-30,64,-54,-76,-53,-38,-37
-91,-74,14,81,-54,-30,70,-54,-76,-47,-38,-31
-91,-80,8,81,-54,-36,70,-54,-76,-47,-44,-31
-97,-74,20,81,-60,-30,76,-48,-82,-47,-44,-31
-97,-74,20,81,-60,-30,76,-48,-82,-47,-50,-37
-97,-86,8,87,-54,-42,76,-48,-76,-47,-50,-43
-103,-86,14,93,-60,-36,70,-48,-82,-53,-50,-49
-97,-80,14,81,-60,-36,70,-48,-82,-53,-50,-49
-91,-74,14,81,-54,-30,70,-48,-82,-47,-50,-37
-91,-80,8,81,-54,-36,70,-48,-82,-47,-50,-37
-91,-86,2,87,-48,-42,70,-48,-82,-47,-44,-31
-97,-86,8,87,-54,-42,76,-54,-82,-47,-44,-31
-97,-80,14,81,-60,-36,76,-54,-82,-47,-44,-31
-97,-80,14,81,-60,-36,76,-54,-82,-47,-44,-31
-103,-86,14,93,-60,-36,76,-54,-82,-53,-50,-31
-103,-86,14,93,-60,-36,82,-54,-82,-53,-50,-37
-115,-98,14,105,-66,-42,82,-48,-82,-53,-50,-37
-109,-98,8,99,-60,-47,82,-48,-82,-47,-50,-37
-97,-92,2,87,-54,-47,88,-42,-76,-41,-38,-31
-85,-92,-10,81,-42,-52,82,-42,-76,-41,-38,-31
-79,-86,-10,81,-36,-47,82,-36,-70,-35,-32,-19
-85,-74,8,75,-48,-36,88,-36,-64,-35,-32,-19
-79,-63,14,69,-48,-24,88,-30,-64,-29,-38,-19
-79,-63,14,69,-48,-24,94,-24,-58,-23,-38,-19
-85,-58,26,69,-54,-18,100,-18,-46,-23,-32,-19
-85,-52,32,63,-60,-12,100,-12,-46,-17,-32,-13
-79,-34,44,57,-60,6,106,-6,-40,-11,-20,-7
-73,-22,50,46,-60,12,112,0,-40,-11,-14,-7
-67,-4,62,35,-66,30,118,0,-34,-5,-14,-1
-67,-10,56,41,-60,24,124,0,-34,1,-2,5
-67,-10,56,41,-60,24,130,0,-34,1,-2,5
-61,-4,56,29,-60,24,136,0,-28,1,-2,5
-61,2,62,29,-60,30,142,0,-22,7,-2,11
-61,8,68,23,-66,36,148,6,-16,7,4,17
-55,20,74,17,-66,48,148,6,-16,7,4,23
-55,32,86,11,-72,60,148,12,-16,13,10,23
-49,44,92,-1,-72,66,142,18,-16,13,10,23
-43,44,86,-1,-66,66,136,18,-10,13,10,23
-37,38,74,-1,-54,54,130,18,-10,19,10,28
-32,32,62,-1,-48,48,124,24,-4,25,22,33
-32,26,56,5,-42,42,112,29,-4,31,28,39
-27,20,44,5,-36,36,94,29,8,37,34,45
-21,14,32,5,-24,24,88,29,14,37,34,51
-21,20,38,-1,-30,30,82,29,14,37,34,51
-15,26,38,-1,-24,36,76,29,14,37,34,57
-15,26,38,-1,-24,36,70,29,14,37,34,51
-9,14,20,-1,-12,18,70,29,8,37,28,45
-3,2,2,5,-1,6,58,29,8,37,28,45
-9,-16,-10,11,-1,-12,52,24,2,37,22,45
-21,-34,-16,29,-1,-24,52,24,2,31,16,45
-27,-40,-16,35,-6,-24,52,18,-4,19,10,39
-27,-40,-16,35,-6,-24,52,12,-10,13,4,33
-27,-40,-16,35,-6,-24,58,6,-16,7,4,28
-27,-40,-16,35,-6,-24,64,0,-22,7,-2,28
-27,-46,-22,41,-1,-30,82,0,-28,7,-8,23
-32,-52,-22,41,-6,-36,94,6,-22,1,-8,17
-37,-58,-22,46,-6,-42,118,12,-16,1,-14,17
-43,-63,-22,51,-12,-42,136,24,-10,1,-14,17
-55,-63,-10,57,-24,-36,148,29,2,7,-2,17
-61,-63,-4,57,-30,-36,148,34,8,7,4,11
-55,-52,2,51,-30,-24,124,34,20,13,10,11
-43,-46,-4,46,-18,-24,94,46,26,19,10,17
-37,-40,-4,35,-18,-24,70,58,32,25,16,17
-37,-34,2,35,-18,-18,58,76,44,37,22,23
-37,-34,2,35,-18,-18,46,100,55,55,34,23
-32,-28,2,29,-18,-12,34,124,78,65,39,33
-9,-22,-16,17,4,-18,12,142,90,77,44,45
9,-4,-16,-1,10,-6,-30,154,108,83,50,57
27,8,-22,-19,22,-6,-66,178,132,107,68,69
45,20,-28,-31,34,0,-96,202,156,125,86,81
57,32,-28,-43,40,6,-102,226,186,143,104,93
63,50,-16,-55,40,18,-108,250,210,161,116,99
69,62,-10,-61,40,30,-114,274,228,173,128,105
87,74,-16,-79,52,30,-114,298,246,185,140,111
105,86,-22,-91,64,36,-138,310,252,197,146,117
129,86,-44,-103,88,24,-162,316,258,203,146,129
153,80,-74,-115,112,6,-204,310,246,209,146,135
177,80,-98,-127,136,-6,-258,292,228,197,140,135
201,68,-134,-133,166,-30,-306,268,210,185,140,135
231,44,-188,-139,208,-70,-372,214,174,161,122,129
255,20,-236,-139,244,-106,-450,148,138,137,110,123
285,8,-278,-145,280,-130,-528,82,108,119,110,123
327,2,-326,-163,328,-160,-600,29,78,101,110,135
369,-16,-386,-175,376,-196,-666,-12,55,95,116,147
417,-34,-452,-187,436,-238,-738,-48,32,89,116,165
471,-40,-512,-217,490,-274,-816,-84,8,77,116,177
525,-46,-572,-235,550,-304,-900,-126,-16,60,122,195
579,-46,-626,-265,604,-334,-984,-174,-40,55,128,219
615,-46,-662,-283,640,-352,-1062,-222,-70,37,128,237
645,-52,-698,-295,670,-370,-1122,-288,-112,19,128,249
669,-52,-722,-307,694,-382,-1170,-366,-154,-5,122,255
705,-40,-746,-331,724,-388,-1206,-438,-196,-23,122,273
735,-34,-770,-349,754,-400,-1248,-510,-250,-47,110,279
771,-40,-812,-367,790,-424,-1278,-588,-304,-95,86,285
813,-52,-866,-379,838,-454,-1314,-654,-370,-143,56,279
885,-63,-950,-409,916,-502,-1374,-726,-442,-203,28,279
987,-68,-1058,-463,1018,-562,-1458,-804,-502,-251,10,279
1107,-68,-1178,-523,1138,-622,-1554,-882,-562,-287,4,297
1227,-63,-1292,-583,1258,-676,-1662,-966,-610,-305,16,345
1347,-46,-1394,-649,1372,-718,-1746,-1008,-622,-299,50,411
1443,-10,-1454,-715,1450,-730,-1782,-1008,-592,-257,122,507
1515,44,-1472,-781,1492,-712,-1788,-996,-568,-209,194,627
1551,104,-1448,-829,1498,-670,-1776,-984,-544,-167,278,759
1557,146,-1412,-847,1486,-628,-1752,-984,-544,-149,332,861
1551,188,-1364,-871,1456,-586,-1716,-984,-562,-149,368,945
1515,236,-1280,-877,1396,-520,-1668,-984,-580,-155,398,1005
1449,290,-1160,-865,1306,-430,-1596,-966,-586,-137,428,1053
1359,344,-1016,-853,1186,-334,-1494,-930,-574,-125,446,1083
1245,380,-866,-811,1054,-238,-1380,-894,-568,-113,452,1077
1101,398,-704,-745,904,-148,-1248,-864,-574,-125,428,1041
945,404,-542,-673,742,-64,-1104,-846,-592,-149,368,975
801,398,-404,-595,604,0,-966,-816,-598,-185,290,879
663,356,-308,-511,484,24,-840,-768,-586,-215,206,759
543,278,-266,-409,406,6,-708,-690,-550,-227,116,597
435,206,-230,-319,334,-12,-582,-600,-490,-233,56,447
339,152,-188,-247,262,-18,-468,-504,-424,-215,22,327
255,104,-152,-181,202,-24,-354,-408,-346,-197,-2,231
183,62,-122,-121,154,-30,-258,-312,-274,-179,-14,165
117,32,-86,-73,100,-24,-168,-234,-214,-155,-26,117
57,-4,-62,-25,58,-30,-96,-168,-166,-137,-32,87
9,-46,-56,23,34,-47,-36,-120,-130,-119,-38,63
-32,-74,-44,51,4,-58,0,-90,-106,-101,-44,51
-67,-92,-28,75,-24,-58,23,-72,-94,-83,-44,33
-91,-104,-16,93,-42,-58,46,-60,-82,-71,-38,23
-103,-104,-4,99,-54,-52,64,-48,-70,-59,-38,11
-109,-98,8,99,-60,-47,76,-36,-52,-53,-38,-1
-115,-98,14,105,-66,-42,88,-24,-46,-53,-44,-13
-121,-92,26,99,-78,-36,100,-18,-40,-53,-50,-25
-127,-98,26,111,-78,-36,118,-6,-34,-59,-56,-31
-133,-116,14,117,-78,-52,136,0,-28,-65,-62,-37
-139,-128,8,129,-78,-58,148,6,-28,-65,-62,-37
-151,-134,14,141,-84,-58,160,12,-28,-59,-68,-37
-163,-128,32,141,-102,-47,166,18,-28,-53,-68,-43
-169,-128,38,141,-108,-47,166,18,-22,-47,-68,-43
-169,-122,44,141,-108,-42,166,24,-16,-47,-68,-49
-169,-122,44,141,-108,-42,160,24,-16,-47,-74,-55
-169,-122,44,141,-108,-42,160,29,-10,-47,-80,-55
-169,-122,44,141,-108,-42,160,34,-4,-41,-74,-61
-163,-128,32,141,-102,-47,166,40,-4,-35,-74,-61
-163,-122,38,141,-102,-42,172,46,2,-35,-74,-67
-169,-122,44,141,-108,-42,172,46,2,-35,-68,-67
-175,-122,50,147,-114,-36,178,52,2,-35,-62,-67
-181,-122,56,147,-120,-36,184,52,2,-35,-62,-73
-181,-122,56,147,-120,-36,190,58,2,-35,-62,-73
-187,-134,50,159,-120,-42,196,58,8,-29,-62,-61
-181,-140,38,153,-114,-52,196,58,14,-29,-68,-61
-181,-140,38,153,-114,-52,202,64,20,-23,-68,-67
-181,-134,44,153,-114,-47,202,64,26,-29,-74,-67
-175,-128,44,147,-114,-42,202,64,26,-29,-74,-73
-175,-116,56,141,-120,-30,202,64,26,-23,-74,-73
-175,-116,56,141,-120,-30,202,64,20,-23,-74,-73
-175,-116,56,141,-120,-30,202,64,20,-23,-68,-79
-181,-110,68,141,-126,-24,202,64,14,-23,-68,-79
-187,-122,62,153,-126,-30,202,64,20,-29,-62,-85
-187,-128,56,153,-126,-36,202,64,20,-29,-62,-85
-181,-122,56,147,-120,-36,202,70,26,-29,-56,-85
-181,-128,50,147,-120,-42,202,76,26,-29,-62,-85
-181,-122,56,147,-120,-36,202,82,32,-29,-62,-91
-181,-116,62,141,-126,-30,196,88,32,-29,-62,-91
-175,-110,62,141,-120,-24,196,94,38,-23,-62,-85
-169,-104,62,129,-120,-24,196,94,38,-23,-62,-85
-169,-104,62,129,-120,-24,196,100,44,-23,-62,-85
-175,-110,62,141,-120,-24,202,106,50,-17,-62,-85
-169,-110,56,135,-114,-30,208,106,50,-17,-56,-85
-175,-110,62,141,-120,-24,208,106,55,-17,-50,-91
-175,-110,62,141,-120,-24,208,112,55,-17,-50,-85
-175,-110,62,141,-120,-24,208,112,60,-17,-44,-85
-175,-110,62,141,-120,-24,208,112,66,-17,-38,-85
-175,-110,62,141,-120,-24,202,118,66,-11,-38,-79
-181,-116,62,141,-126,-30,202,124,66,-11,-38,-79
-175,-116,56,141,-120,-30,202,130,72,-5,-32,-79
-175,-122,50,147,-114,-36,202,136,72,-5,-32,-79
-169,-128,38,141,-108,-47,202,136,78,1,-32,-79
-163,-116,44,135,-108,-36,202,136,78,1,-32,-79
-163,-116,44,135,-108,-36,202,142,84,13,-32,-73
-163,-116,44,135,-108,-36,202,142,90,13,-32,-73
-163,-104,56,129,-114,-24,202,148,90,13,-32,-73
-157,-92,62,117,-114,-18,202,154,96,19,-26,-61
-157,-80,74,111,-120,-6,202,160,102,31,-20,-61
-163,-80,80,117,-126,0,202,166,108,37,-14,-55
-157,-74,80,111,-120,0,202,172,114,43,-8,-55
-157,-74,80,111,-120,0,208,172,120,49,-8,-55
-151,-80,68,111,-114,-6,208,172,126,55,-2,-49
-145,-74,68,105,-108,-6,214,178,132,60,-2,-49
-151,-74,74,111,-114,0,214,184,132,55,-2,-49
-157,-74,80,111,-120,0,214,184,132,49,-8,-49
-157,-68,86,105,-126,6,220,196,138,49,-8,-43
-151,-58,92,105,-120,18,220,202,150,55,-8,-37
-139,-46,92,93,-114,24,220,208,156,60,-2,-31
-139,-46,92,93,-114,24,220,220,162,60,4,-25
-139,-46,92,93,-114,24,214,226,168,65,4,-25
-127,-40,86,81,-108,24,214,226,168,71,10,-19
-127,-34,92,81,-108,30,214,226,174,77,22,-19
-133,-28,104,75,-120,36,214,226,174,77,22,-19
-133,-28,104,75,-120,36,214,232,180,77,28,-25
-127,-22,104,75,-114,42,214,238,186,83,34,-25
-121,-22,98,69,-108,36,214,250,192,89,34,-25
-109,-16,92,57,-102,36,214,256,204,89,34,-25
-109,-16,92,57,-102,36,214,262,204,89,39,-19
-103,-10,92,57,-96,42,214,268,210,89,39,-13
-103,-4,98,51,-102,48,220,280,216,95,44,-7
-109,2,110,51,-108,54,220,292,222,95,50,-1
-115,2,116,57,-114,60,226,298,228,101,50,-1
-115,-10,104,63,-108,48,232,310,240,113,56,-1
-109,-10,98,57,-102,42,232,322,252,119,62,-1
-103,8,110,46,-108,60,232,328,258,125,62,-1
-103,14,116,46,-108,66,232,328,258,125,68,5
-103,14,116,46,-108,66,238,334,264,131,80,17
-103,20,122,41,-114,72,238,340,276,137,86,23
-97,20,116,35,-108,66,238,346,282,143,92,23
-97,38,134,29,-114,84,238,352,288,149,98,28
-91,50,140,23,-114,96,232,352,288,149,104,28
-91,56,146,17,-120,102,232,364,294,155,110,33
-91,62,152,17,-120,108,232,364,300,161,110,33
-85,56,140,11,-114,96,226,376,300,161,110,33
-85,56,140,11,-114,96,226,382,306,167,116,39
-85,62,146,11,-114,102,220,388,312,173,116,45
-79,74,152,5,-114,114,220,388,318,173,116,51
-79,86,164,-1,-120,126,220,388,324,173,122,51
-73,92,164,-13,-120,126,220,394,330,185,122,57
-67,98,164,-13,-114,132,220,394,330,191,134,63
-67,104,170,-19,-120,138,214,394,330,197,140,69
-61,104,164,-25,-114,132,214,394,336,203,146,75
-55,110,164,-25,-108,138,208,394,342,209,152,75
-55,110,164,-25,-108,138,202,394,348,215,158,87
-55,98,152,-19,-102,126,196,400,348,215,158,93
-55,98,152,-19,-102,126,196,400,348,215,158,99
-55,104,158,-25,-108,132,190,400,354,221,164,105
-49,110,158,-31,-102,132,184,400,360,227,170,123
-49,122,170,-37,-108,144,184,400,360,233,170,129
-55,128,182,-37,-120,156,184,400,360,239,176,135
-55,134,188,-37,-120,162,178,400,360,245,182,135
-43,140,182,-49,-114,162,172,394,360,245,188,135
-43,146,188,-49,-114,168,172,394,360,245,194,141
-37,152,188,-61,-114,168,172,394,354,245,194,147
-32,158,188,-61,-108,174,166,388,348,239,200,153
-27,164,188,-67,-108,180,160,388,348,239,194,153
-21,176,194,-79,-108,186,154,382,348,239,194,153
-15,182,194,-79,-102,192,148,382,342,239,200,165
-9,194,200,-91,-102,198,136,376,336,233,194,165
-3,194,194,-91,-96,198,130,370,324,227,194,159
-3,188,188,-91,-96,192,130,364,324,233,194,165
3,182,176,-91,-84,180,136,358,318,227,194,165
3,182,176,-91,-84,180,136,352,318,227,194,171
3,188,182,-97,-90,186,130,340,306,221,194,171
3,182,176,-91,-84,180,130,334,300,221,194,171
3,182,176,-91,-84,180,124,328,300,215,194,177
9,176,164,-91,-78,174,118,322,300,215,194,177
9,176,164,-91,-78,174,106,310,294,209,200,177
9,164,152,-85,-72,162,94,298,288,203,194,177
9,152,140,-79,-66,150,88,292,282,197,194,177
15,152,134,-85,-60,144,82,280,276,191,194,177
21,158,134,-85,-54,150,76,268,270,185,194,171
27,158,128,-91,-48,144,70,262,258,185,194,171
27,164,134,-97,-54,150,64,256,252,179,194,171
33,170,134,-97,-48,156,58,244,240,173,188,171
39,170,128,-103,-42,150,58,238,234,167,188,165
45,170,122,-103,-36,150,52,232,222,161,182,159
51,164,110,-109,-30,138,46,220,216,155,176,159
57,158,98,-103,-18,132,40,208,210,149,170,153
57,152,92,-103,-18,126,34,196,204,143,164,147
63,146,80,-103,-6,114,23,184,198,131,158,141
57,140,80,-97,-12,114,23,166,186,119,152,135
51,134,80,-91,-12,108,18,154,180,113,146,129
51,128,74,-91,-12,102,12,148,168,101,134,123
45,116,68,-79,-12,96,6,130,156,95,128,117
39,110,68,-73,-12,90,6,118,144,89,116,105
39,104,62,-73,-12,84,6,112,132,83,110,99
33,92,56,-61,-12,78,0,100,120,71,98,87
27,86,56,-55,-12,72,0,88,108,60,86,81
21,86,62,-49,-18,78,0,76,96,60,80,75
15,80,62,-49,-24,72,0,64,84,49,74,69
3,68,62,-37,-30,66,-6,52,72,37,62,63
3,56,50,-31,-24,54,-6,46,60,25,56,57
3,44,38,-25,-18,42,-6,34,55,19,50,51
-3,32,32,-13,-18,36,-6,29,50,13,39,39
-9,26,32,-7,-18,30,-6,24,44,7,34,28
-9,20,26,-7,-18,24,0,18,32,1,28,23
-21,14,32,5,-24,24,6,12,32,-5,22,17
-21,14,32,5,-24,24,12,6,26,-17,16,11
-27,8,32,11,-30,24,12,0,14,-23,4,-1
-32,2,32,17,-30,18,18,-6,2,-29,-2,-7
-32,-10,20,23,-24,6,23,-12,-4,-29,-8,-13
-37,-16,20,23,-30,0,23,-18,-10,-35,-20,-19
-37,-22,14,29,-24,-6,28,-24,-16,-41,-26,-25
-49,-28,20,35,-36,-6,28,-30,-16,-53,-32,-31
-55,-40,14,46,-36,-12,28,-36,-22,-59,-38,-31
-55,-40,14,46,-36,-12,28,-36,-22,-59,-38,-37
-55,-40,14,46,-36,-12,28,-42,-34,-65,-50,-43
-55,-40,14,46,-36,-12,23,-42,-40,-65,-56,-43
-55,-46,8,51,-30,-18,23,-48,-52,-65,-62,-43
-55,-46,8,51,-30,-18,23,-48,-58,-71,-68,-49
-55,-46,8,51,-30,-18,23,-48,-64,-77,-68,-49
-55,-52,2,51,-30,-24,23,-54,-64,-77,-74,-49
-61,-58,2,57,-30,-30,28,-54,-64,-77,-74,-49
-73,-58,14,63,-42,-24,34,-54,-58,-77,-74,-49
-67,-58,8,63,-36,-24,34,-54,-58,-77,-80,-49
-73,-63,8,63,-42,-30,40,-54,-58,-71,-80,-49
-79,-68,8,69,-48,-30,40,-60,-58,-77,-86,-55
-85,-74,8,75,-48,-36,40,-54,-58,-71,-86,-61
-85,-74,8,75,-48,-36,46,-48,-58,-71,-86,-61
-85,-74,8,75,-48,-36,46,-48,-58,-77,-86,-61
-85,-74,8,75,-48,-36,40,-54,-58,-77,-86,-61
-85,-74,8,75,-48,-36,40,-54,-64,-83,-92,-67
-85,-80,2,75,-48,-42,40,-54,-64,-83,-92,-67
-85,-74,8,75,-48,-36,40,-54,-64,-89,-86,-73
-85,-74,8,75,-48,-36,46,-60,-64,-89,-80,-73
-85,-74,8,75,-48,-36,52,-54,-64,-89,-74,-67
-91,-74,14,81,-54,-30,52,-54,-64,-83,-74,-67
-91,-74,14,81,-54,-30,52,-54,-58,-83,-68,-61
-91,-80,8,81,-54,-36,46,-54,-58,-77,-68,-55
-85,-80,2,75,-48,-42,46,-42,-58,-65,-62,-49
-79,-74,2,75,-42,-36,46,-36,-58,-59,-62,-49
-79,-68,8,69,-48,-30,52,-36,-52,-59,-62,-49
-85,-68,14,69,-54,-30,52,-36,-52,-59,-68,-55
-85,-68,14,69,-54,-30,52,-36,-52,-59,-68,-49
-85,-63,20,69,-54,-24,58,-30,-52,-59,-68,-49
-79,-63,14,69,-48,-24,64,-30,-52,-53,-56,-49
-73,-63,8,63,-42,-30,64,-24,-46,-53,-56,-49
-73,-63,8,63,-42,-30,58,-30,-46,-53,-56,-49
-79,-58,20,69,-48,-18,58,-36,-46,-53,-62,-49
-79,-52,26,63,-54,-12,64,-36,-46,-53,-62,-49
-79,-52,26,63,-54,-12,64,-36,-40,-47,-62,-55
-79,-58,20,69,-48,-18,64,-36,-40,-47,-62,-55
-79,-58,20,69,-48,-18,64,-36,-40,-47,-62,-55
-79,-63,14,69,-48,-24,64,-36,-34,-53,-62,-55
-79,-63,14,69,-48,-24,64,-30,-34,-47,-56,-55
-73,-63,8,63,-42,-30,64,-30,-34,-47,-50,-55
-73,-63,8,63,-42,-30,64,-30,-34,-47,-50,-55
-73,-63,8,63,-42,-30,64,-24,-34,-41,-50,-49
-79,-68,8,69,-48,-30,64,-24,-28,-35,-50,-49
-85,-68,14,69,-54,-30,64,-24,-22,-29,-50,-49
-85,-68,14,69,-54,-30,70,-18,-16,-23,-50,-49
-91,-63,26,75,-60,-18,76,-12,-16,-17,-44,-43
-85,-58,26,69,-54,-18,76,-12,-16,-11,-38,-49
-79,-46,32,63,-54,-6,82,0,-10,-11,-38,-49
-79,-52,26,63,-54,-12,82,0,-4,-11,-38,-55
-85,-58,26,69,-54,-18,88,6,2,-5,-32,-61
-85,-58,26,69,-54,-18,88,6,8,-5,-32,-55
-79,-52,26,63,-54,-12,94,6,8,-5,-32,-55
-73,-40,32,51,-54,-6,94,6,8,1,-32,-49
-79,-40,38,57,-60,0,94,12,8,1,-26,-49
-85,-34,50,57,-66,6,94,6,8,1,-26,-49
-85,-34,50,57,-66,6,94,6,8,1,-26,-49
-91,-40,50,63,-72,6,94,12,8,1,-26,-49
-91,-40,50,63,-72,6,88,12,8,1,-26,-55
-85,-40,44,57,-66,0,88,12,8,1,-26,-55
-85,-40,44,57,-66,0,88,12,2,-5,-26,-61
-85,-34,50,57,-66,6,88,12,-4,1,-20,-61
-91,-40,50,63,-72,6,88,12,2,1,-20,-49
-91,-40,50,63,-72,6,88,12,2,7,-20,-49
-91,-40,50,63,-72,6,88,12,8,7,-20,-49
-91,-40,50,63,-72,6,88,12,8,7,-20,-49
-91,-40,50,63,-72,6,88,12,14,1,-20,-49
-97,-34,62,63,-78,12,82,6,14,-5,-20,-49
-97,-34,62,63,-78,12,82,6,8,-5,-26,-49
-97,-46,50,69,-72,0,82,6,14,-5,-26,-49
-97,-52,44,69,-72,-6,88,12,14,1,-20,-49
-103,-52,50,75,-78,0,94,12,8,1,-20,-43
-103,-58,44,81,-72,-6,94,12,8,7,-20,-43
-97,-58,38,75,-66,-12,94,12,8,7,-20,-43
-97,-52,44,69,-72,-6,88,6,2,7,-20,-43
-91,-40,50,63,-72,6,88,0,2,1,-26,-49
-91,-28,62,57,-78,18,82,-6,-4,-5,-26,-55
-91,-22,68,57,-78,24,82,-6,-10,-5,-26,-61
-91,-28,62,57,-78,18,88,-6,-10,-11,-26,-61
-91,-40,50,63,-72,6,88,-6,-4,-11,-26,-61
-91,-46,44,69,-66,0,94,-6,-4,-11,-26,-61
-85,-46,38,63,-60,-6,94,-6,2,-11,-32,-55
-91,-46,44,69,-66,0,88,-12,-4,-11,-32,-55
-91,-52,38,69,-66,-6,88,-18,-4,-11,-38,-55
-91,-52,38,69,-66,-6,88,-18,-10,-17,-44,-61
-91,-52,38,69,-66,-6,88,-18,-10,-17,-38,-55
-91,-63,26,75,-60,-18,88,-18,-16,-23,-38,-55
-91,-68,20,75,-60,-24,94,-12,-16,-23,-38,-55
-91,-68,20,75,-60,-24,100,-12,-16,-23,-32,-49
-103,-63,38,81,-72,-12,94,-12,-16,-29,-32,-55
-97,-63,32,75,-66,-18,88,-18,-22,-35,-38,-55
-97,-52,44,69,-72,-6,82,-18,-34,-41,-44,-55
-91,-52,38,69,-66,-6,76,-24,-34,-35,-44,-55
-91,-52,38,69,-66,-6,82,-30,-40,-35,-44,-55
-85,-46,38,63,-60,-6,82,-30,-40,-29,-44,-61
-85,-52,32,63,-60,-12,76,-36,-40,-29,-50,-67
-85,-58,26,69,-54,-18,82,-30,-40,-29,-50,-67
-85,-58,26,69,-54,-18,82,-30,-40,-35,-50,-61
-85,-52,32,63,-60,-12,88,-30,-46,-35,-56,-61
-97,-52,44,69,-72,-6,88,-30,-46,-41,-62,-67
-91,-52,38,69,-66,-6,82,-36,-46,-47,-62,-73
-91,-52,38,69,-66,-6,82,-42,-52,-47,-68,-61
-91,-58,32,75,-60,-12,76,-42,-52,-47,-68,-61
-97,-58,38,75,-66,-12,76,-42,-52,-47,-68,-61
-97,-63,32,75,-66,-18,76,-48,-52,-41,-62,-55
-97,-68,26,75,-66,-24,70,-54,-52,-41,-62,-61
-97,-63,32,75,-66,-18,64,-54,-58,-47,-62,-61
-97,-58,38,75,-66,-12,64,-54,-58,-47,-62,-67
-97,-58,38,75,-66,-12,64,-54,-64,-47,-62,-67
-97,-58,38,75,-66,-12,64,-54,-64,-47,-56,-67
-97,-58,38,75,-66,-12,70,-48,-58,-41,-50,-67
-103,-52,50,75,-78,0,70,-48,-58,-41,-50,-61
-103,-46,56,75,-78,6,76,-54,-64,-47,-56,-61
-97,-40,56,63,-78,6,82,-54,-58,-47,-56,-61
-97,-34,62,63,-78,12,82,-54,-52,-47,-56,-61
-97,-40,56,63,-78,6,82,-54,-52,-47,-62,-61
-103,-46,56,75,-78,6,82,-54,-52,-47,-62,-61
-97,-52,44,69,-72,-6,82,-54,-58,-47,-62,-61
-97,-46,50,69,-72,0,82,-54,-58,-53,-62,-61
-91,-34,56,63,-72,12,82,-54,-58,-53,-62,-67
-91,-40,50,63,-72,6,82,-48,-58,-53,-56,-67
-91,-40,50,63,-72,6,82,-54,-58,-53,-56,-61
-91,-40,50,63,-72,6,82,-54,-58,-53,-56,-61
-91,-46,44,69,-66,0,82,-60,-64,-53,-56,-61
-97,-46,50,69,-72,0,82,-60,-64,-53,-56,-61
-91,-52,38,69,-66,-6,82,-60,-64,-53,-56,-61
-91,-52,38,69,-66,-6,82,-54,-64,-53,-56,-61
-91,-52,38,69,-66,-6,88,-60,-64,-53,-56,-67
-91,-52,38,69,-66,-6,82,-60,-70,-59,-56,-67
-91,-52,38,69,-66,-6,82,-60,-76,-59,-62,-73
-91,-52,38,69,-66,-6,76,-60,-76,-59,-62,-79
-91,-52,38,69,-66,-6,82,-60,-76,-59,-62,-79
-91,-46,44,69,-66,0,82,-60,-70,-59,-62,-79
-85,-52,32,63,-60,-12,82,-60,-70,-59,-62,-79
-91,-46,44,69,-66,0,76,-60,-70,-59,-68,-79
-97,-46,50,69,-72,0,76,-54,-70,-65,-74,-73
-97,-46,50,69,-72,0,70,-54,-70,-65,-74,-73
-103,-46,56,75,-78,6,70,-54,-70,-65,-80,-73
-109,-52,56,75,-84,0,70,-54,-70,-71,-80,-73
-109,-63,44,81,-78,-12,70,-48,-64,-65,-80,-79
-109,-63,44,81,-78,-12,70,-48,-64,-65,-80,-79
-103,-63,38,81,-72,-12,70,-54,-58,-59,-80,-85
-97,-58,38,75,-66,-12,70,-60,-58,-53,-68,-73
-97,-58,38,75,-66,-12,76,-60,-58,-53,-62,-79
-97,-46,50,69,-72,0,76,-60,-64,-53,-62,-79
-97,-46,50,69,-72,0,76,-66,-64,-59,-62,-79
-91,-52,38,69,-66,-6,82,-60,-64,-59,-62,-79
-91,-52,38,69,-66,-6,76,-54,-64,-59,-62,-79
-97,-58,38,75,-66,-12,70,-54,-70,-59,-62,-79
-97,-63,32,75,-66,-18,64,-60,-70,-59,-62,-85
-97,-63,32,75,-66,-18,64,-60,-70,-65,-68,-91
-97,-58,38,75,-66,-12,64,-66,-76,-65,-68,-91
-97,-52,44,69,-72,-6,70,-66,-76,-65,-68,-91
-97,-46,50,69,-72,0,70,-72,-76,-65,-68,-91
-97,-58,38,75,-66,-12,76,-72,-76,-65,-68,-85
-97,-63,32,75,-66,-18,76,-72,-76,-65,-68,-85
-97,-68,26,75,-66,-24,76,-72,-76,-71,-68,-85
-97,-63,32,75,-66,-18,76,-72,-82,-71,-68,-85
-97,-63,32,75,-66,-18,70,-78,-88,-77,-68,-85
-97,-68,26,75,-66,-24,70,-78,-82,-71,-68,-91
-97,-63,32,75,-66,-18,70,-78,-82,-71,-74,-85
-97,-58,38,75,-66,-12,70,-78,-82,-71,-74,-85
-97,-63,32,75,-66,-18,70,-78,-82,-71,-68,-79
-103,-63,38,81,-72,-12,70,-78,-82,-71,-68,-79
-109,-68,38,81,-78,-18,70,-78,-82,-71,-68,-79
-103,-68,32,81,-72,-18,64,-72,-76,-71,-68,-73
-103,-68,32,81,-72,-18,70,-72,-76,-65,-68,-73
-97,-63,32,75,-66,-18,76,-60,-70,-65,-62,-73
-97,-52,44,69,-72,-6,82,-66,-70,-71,-62,-73
-97,-58,38,75,-66,-12,82,-60,-76,-71,-68,-79
-97,-63,32,75,-66,-18,82,-60,-76,-71,-68,-79
-103,-63,38,81,-72,-12,82,-60,-82,-65,-74,-79
-109,-63,44,81,-78,-12,82,-60,-76,-65,-74,-73
-109,-68,38,81,-78,-18,82,-66,-82,-65,-74,-67
-109,-63,44,81,-78,-12,76,-72,-82,-65,-74,-67
-109,-58,50,81,-78,-6,70,-72,-82,-65,-74,-67
-103,-63,38,81,-72,-12,70,-66,-88,-65,-68,-67
-103,-58,44,81,-72,-6,70,-66,-88,-65,-68,-67
-97,-58,38,75,-66,-12,70,-66,-88,-71,-68,-67
-97,-63,32,75,-66,-18,70,-66,-82,-71,-68,-73
-97,-63,32,75,-66,-18,76,-66,-82,-71,-68,-73
-97,-68,26,75,-66,-24,76,-60,-82,-71,-68,-67
-97,-63,32,75,-66,-18,70,-54,-82,-65,-68,-67
-97,-63,32,75,-66,-18,70,-60,-82,-65,-68,-67
-97,-63,32,75,-66,-18,70,-66,-82,-65,-74,-67
-97,-68,26,75,-66,-24,64,-66,-82,-65,-68,-67
-91,-63,26,75,-60,-18,70,-66,-76,-65,-68,-67
-97,-63,32,75,-66,-18,64,-66,-76,-65,-74,-73
-97,-63,32,75,-66,-18,64,-72,-82,-71,-74,-79
-103,-63,38,81,-72,-12,64,-78,-82,-77,-74,-79
-97,-63,32,75,-66,-18,64,-72,-82,-77,-74,-79
-97,-58,38,75,-66,-12,70,-78,-82,-77,-74,-73
-91,-52,38,69,-66,-6,70,-78,-82,-77,-74,-67
-91,-46,44,69,-66,0,70,-78,-88,-71,-74,-67
-85,-52,32,63,-60,-12,70,-78,-88,-71,-68,-67
-85,-58,26,69,-54,-18,70,-78,-88,-77,-74,-67
-91,-68,20,75,-60,-24,70,-78,-88,-77,-74,-73
-91,-68,20,75,-60,-24,70,-72,-82,-71,-74,-73
-91,-63,26,75,-60,-18,70,-72,-82,-71,-74,-79
-91,-63,26,75,-60,-18,70,-72,-82,-71,-74,-79
-97,-63,32,75,-66,-18,76,-66,-82,-71,-68,-79
-97,-58,38,75,-66,-12,76,-66,-82,-71,-68,-79
-97,-63,32,75,-66,-18,76,-72,-88,-71,-74,-79
-97,-68,26,75,-66,-24,82,-72,-88,-77,-80,-73
-97,-74,20,81,-60,-30,76,-72,-88,-77,-80,-73
-97,-68,26,75,-66,-24,76,-72,-82,-71,-80,-73
-91,-63,26,75,-60,-18,76,-72,-82,-71,-80,-73
-91,-63,26,75,-60,-18,76,-72,-82,-71,-86,-73
-91,-68,20,75,-60,-24,76,-72,-82,-71,-80,-73
-85,-74,8,75,-48,-36,76,-72,-76,-71,-80,-73
-85,-68,14,69,-54,-30,76,-72,-76,-77,-86,-73
-85,-63,20,69,-54,-24,70,-72,-82,-71,-80,-73
-85,-68,14,69,-54,-30,76,-72,-76,-71,-74,-67
-91,-80,8,81,-54,-36,82,-72,-76,-65,-62,-61
-97,-86,8,87,-54,-42,76,-72,-76,-65,-62,-67
-91,-80,8,81,-54,-36,70,-78,-82,-71,-62,-67
-91,-68,20,75,-60,-24,70,-78,-88,-71,-62,-73
-85,-68,14,69,-54,-30,64,-78,-88,-77,-68,-73
-85,-63,20,69,-54,-24,64,-78,-88,-83,-74,-73
-85,-63,20,69,-54,-24,64,-78,-82,-77,-80,-79
-91,-63,26,75,-60,-18,70,-78,-76,-77,-80,-79
-97,-63,32,75,-66,-18,70,-78,-76,-77,-80,-79
-97,-63,32,75,-66,-18,70,-84,-76,-77,-80,-85
-97,-63,32,75,-66,-18,64,-84,-76,-77,-80,-85
-103,-63,38,81,-72,-12,64,-78,-76,-77,-86,-85
-97,-63,32,75,-66,-18,64,-78,-76,-77,-86,-79
-91,-58,32,75,-60,-12,70,-72,-76,-71,-80,-79
-91,-58,32,75,-60,-12,70,-72,-70,-71,-80,-73
-91,-58,32,75,-60,-12,70,-72,-76,-71,-80,-73
-97,-63,32,75,-66,-18,70,-78,-76,-77,-86,-79
-97,-63,32,75,-66,-18,70,-78,-76,-77,-86,-79
-103,-68,32,81,-72,-18,70,-72,-70,-77,-86,-73
-103,-74,26,87,-66,-24,70,-72,-70,-77,-86,-73
-109,-80,26,87,-72,-30,70,-72,-70,-77,-86,-73
-103,-74,26,87,-66,-24,70,-72,-70,-77,-86,-73
-103,-74,26,87,-66,-24,70,-78,-76,-77,-86,-73
-103,-80,20,87,-66,-30,70,-84,-76,-77,-86,-73
-91,-74,14,81,-54,-30,70,-90,-76,-83,-86,-73
-91,-68,20,75,-60,-24,76,-84,-76,-77,-80,-67
-91,-68,20,75,-60,-24,76,-78,-76,-77,-86,-73
-91,-68,20,75,-60,-24,76,-66,-76,-77,-86,-73
-91,-74,14,81,-54,-30,76,-66,-76,-77,-86,-73
-85,-68,14,69,-54,-30,82,-60,-70,-77,-86,-73
-85,-63,20,69,-54,-24,88,-60,-70,-71,-80,-73
-85,-58,26,69,-54,-18,88,-54,-64,-65,-74,-67
-79,-46,32,63,-54,-6,94,-54,-58,-59,-68,-61
-79,-40,38,57,-60,0,100,-54,-52,-53,-68,-61
-79,-34,44,57,-60,6,106,-54,-46,-53,-62,-61
-73,-28,44,46,-60,6,106,-48,-40,-47,-56,-55
-73,-22,50,46,-60,12,112,-48,-34,-41,-56,-61
-73,-10,62,41,-66,24,118,-42,-34,-35,-56,-61
-73,2,74,35,-72,36,118,-36,-34,-29,-56,-49
-73,2,74,35,-72,36,124,-30,-28,-29,-50,-43
-73,2,74,35,-72,36,130,-30,-22,-23,-38,-31
-67,8,74,29,-72,42,124,-36,-22,-17,-38,-31
-55,14,68,23,-60,42,124,-36,-16,-17,-32,-31
-55,14,68,23,-60,42,124,-36,-16,-17,-26,-31
-55,2,56,29,-54,30,130,-36,-16,-17,-20,-25
-49,2,50,23,-48,24,130,-36,-16,-17,-20,-31
-49,8,56,17,-54,30,124,-36,-16,-17,-14,-25
-43,14,56,17,-48,36,112,-30,-16,-11,-8,-19
-43,26,68,11,-54,48,100,-30,-16,-11,-8,-19
-37,26,62,5,-48,42,82,-30,-16,-11,-8,-13
-32,32,62,-1,-48,48,70,-18,-10,-5,-2,-13
-32,26,56,5,-42,42,64,-12,2,-5,-2,-7
-27,20,44,5,-36,36,64,-12,2,1,-2,-7
-27,14,38,11,-30,30,58,-12,2,1,-8,-7
-27,2,26,17,-24,18,52,-12,-4,-5,-14,-7
-27,-4,20,17,-24,12,52,-6,-4,1,-8,-7
-27,-10,14,23,-18,6,46,-12,-10,1,-8,-7
-27,-16,8,23,-18,0,46,-18,-10,1,-14,-13
-27,-28,-4,29,-12,-12,52,-18,-16,-5,-14,-19
-27,-34,-10,35,-6,-18,52,-18,-22,-11,-14,-19
-27,-46,-22,41,-1,-30,58,-24,-28,-17,-26,-25
-27,-46,-22,41,-1,-30,64,-24,-22,-23,-32,-31
-27,-46,-22,41,-1,-30,70,-30,-22,-23,-38,-25
-32,-52,-22,41,-6,-36,82,-30,-22,-29,-44,-31
-43,-58,-16,51,-12,-36,94,-24,-22,-35,-44,-37
-43,-63,-22,51,-12,-42,112,-24,-16,-41,-44,-37
-49,-58,-10,51,-18,-36,136,-12,-16,-41,-44,-43
-55,-46,8,51,-30,-18,148,-6,-16,-41,-44,-49
-55,-40,14,46,-36,-12,136,-6,-4,-35,-38,-49
-55,-46,8,51,-30,-18,106,6,2,-23,-32,-43
-49,-46,2,46,-24,-24,82,18,8,-11,-32,-37
-43,-40,2,41,-24,-18,58,29,20,1,-26,-37
-43,-40,2,41,-24,-18,40,40,38,19,-20,-31
-37,-28,8,29,-24,-12,28,64,55,31,-8,-19
-32,-16,14,23,-24,0,-6,76,66,55,10,-13
-21,-4,14,11,-18,6,-48,82,78,60,22,-7
-9,8,14,-1,-12,12,-96,94,96,77,34,-1
9,20,8,-13,-1,18,-126,118,126,101,39,11
33,44,8,-37,10,30,-150,148,150,119,50,28
45,50,2,-43,22,30,-162,172,168,143,62,33
57,62,2,-55,28,36,-168,196,186,155,74,45
75,68,-10,-73,40,30,-186,214,198,167,86,51
93,80,-16,-85,52,36,-210,226,210,179,92,63
111,92,-22,-103,64,36,-234,226,210,179,98,63
117,86,-33,-97,76,30,-270,226,204,179,104,63
135,80,-56,-109,94,12,-312,214,192,173,104,63
159,74,-86,-115,124,-6,-348,220,186,167,104,63
189,56,-134,-121,160,-36,-390,208,174,155,98,63
219,32,-188,-127,202,-76,-450,166,138,131,86,63
255,8,-248,-133,250,-118,-516,118,90,107,80,69
285,-10,-296,-133,292,-148,-588,76,66,95,80,81
321,-22,-344,-145,334,-178,-654,29,44,89,80,99
369,-46,-416,-157,394,-226,-732,-6,26,89,80,117
417,-58,-476,-175,448,-262,-816,-48,8,89,98,135
471,-58,-530,-205,502,-292,-900,-90,-10,83,110,153
519,-63,-584,-229,550,-322,-990,-144,-22,71,116,171
567,-63,-632,-253,598,-346,-1062,-192,-46,60,122,189
597,-68,-668,-265,628,-364,-1116,-240,-70,49,122,207
621,-86,-710,-265,664,-394,-1152,-294,-100,31,110,213
645,-98,-746,-271,694,-418,-1194,-348,-142,13,104,219
681,-86,-770,-295,724,-424,-1230,-408,-184,-11,98,225
723,-92,-818,-319,766,-454,-1260,-474,-244,-59,68,219
765,-116,-884,-325,820,-496,-1284,-534,-298,-101,44,213
825,-140,-968,-343,892,-550,-1326,-588,-352,-143,22,213
903,-158,-1064,-373,982,-610,-1398,-648,-406,-179,16,225
1005,-158,-1166,-421,1084,-658,-1488,-720,-448,-197,28,261
1119,-140,-1262,-493,1186,-700,-1596,-798,-484,-203,56,321
1233,-110,-1346,-559,1288,-724,-1692,-864,-514,-191,104,411
1323,-63,-1388,-631,1354,-724,-1746,-894,-508,-161,176,525
1383,-10,-1394,-685,1390,-700,-1758,-900,-496,-113,260,663
1407,56,-1352,-733,1378,-646,-1746,-906,-502,-83,338,783
1419,116,-1304,-769,1360,-592,-1722,-912,-514,-71,386,879
1407,164,-1244,-787,1324,-538,-1692,-918,-538,-77,422,945
1353,200,-1154,-775,1252,-472,-1638,-918,-556,-89,434,987
1275,230,-1046,-751,1162,-406,-1554,-912,-556,-83,452,1005
1185,260,-926,-721,1054,-328,-1452,-888,-544,-83,446,1011
1071,284,-788,-679,928,-250,-1326,-858,-544,-83,428,987
939,308,-632,-625,784,-160,-1188,-834,-556,-113,380,945
801,320,-482,-559,640,-76,-1044,-828,-580,-161,302,867
681,302,-380,-487,532,-36,-906,-792,-592,-203,212,753
567,254,-314,-409,442,-30,-786,-738,-580,-239,116,609
471,182,-290,-325,382,-52,-666,-666,-538,-251,34,453
375,122,-254,-247,316,-64,-546,-576,-478,-245,-14,321
291,80,-212,-187,250,-64,-438,-480,-406,-215,-38,213
207,38,-170,-121,190,-64,-336,-384,-328,-179,-56,141
135,14,-122,-73,130,-52,-240,-306,-256,-149,-62,81
75,-22,-98,-25,88,-58,-150,-234,-196,-125,-68,39
27,-52,-80,11,52,-64,-78,-186,-148,-107,-74,17
-9,-74,-68,41,28,-70,-24,-144,-112,-89,-74,5
-32,-92,-62,57,10,-76,6,-120,-88,-77,-68,-13
-49,-104,-56,69,-1,-82,23,-102,-76,-59,-68,-25
-67,-116,-50,87,-12,-82,34,-84,-70,-47,-68,-37
-73,-110,-38,87,-18,-76,40,-66,-64,-41,-68,-49
-79,-110,-33,93,-24,-70,52,-60,-58,-35,-68,-61
-91,-104,-16,93,-42,-58,64,-48,-52,-29,-74,-73
-103,-104,-4,99,-54,-52,88,-42,-46,-29,-80,-79
-115,-116,-4,111,-60,-58,106,-36,-40,-35,-92,-91
-127,-128,-4,123,-66,-64,112,-36,-34,-35,-98,-97
-139,-134,2,135,-72,-64,124,-30,-28,-35,-98,-97
-145,-146,-4,141,-72,-76,130,-18,-22,-35,-98,-103
-151,-140,8,141,-84,-64,142,-18,-22,-29,-98,-103
-151,-134,14,141,-84,-58,142,-12,-16,-29,-92,-109
-163,-134,26,147,-96,-52,154,-12,-16,-23,-92,-109
-157,-128,26,135,-96,-52,154,-6,-16,-17,-92,-109
-157,-122,32,135,-96,-47,154,-6,-10,-17,-92,-109
-157,-122,32,135,-96,-47,160,0,-4,-11,-92,-109
-151,-122,26,135,-90,-47,160,0,-4,-11,-92,-109
-157,-134,20,141,-90,-58,166,6,2,-11,-98,-115
-157,-140,14,141,-90,-64,172,12,2,-11,-92,-109
-157,-146,8,147,-84,-70,172,12,8,-11,-92,-103
-157,-146,8,147,-84,-70,172,12,2,-11,-92,-109
-163,-146,14,153,-90,-64,172,18,2,-11,-98,-109
-163,-146,14,153,-90,-64,172,24,2,-11,-98,-109
-163,-146,14,153,-90,-64,172,29,8,-5,-98,-109
-157,-134,20,141,-90,-58,172,29,14,-5,-98,-109
-157,-122,32,135,-96,-47,178,29,14,-5,-98,-115
-163,-110,50,135,-108,-30,178,29,8,-5,-98,-121
-157,-110,44,129,-102,-36,178,29,14,-5,-98,-121
-151,-110,38,129,-96,-36,178,29,20,-5,-92,-127
-151,-122,26,135,-90,-47,184,40,26,1,-86,-121
-145,-128,14,129,-84,-58,184,46,32,7,-86,-115
-145,-116,26,123,-90,-47,178,52,38,7,-86,-115
-157,-116,38,129,-102,-42,178,52,38,7,-86,-121
-157,-116,38,129,-102,-42,178,52,38,7,-80,-127
-151,-110,38,129,-96,-36,178,52,38,7,-80,-127
-145,-104,38,117,-96,-36,184,64,44,13,-74,-121
-145,-104,38,117,-96,-36,190,70,44,13,-68,-121
-139,-98,38,117,-90,-30,190,70,50,7,-68,-121
-133,-98,32,111,-84,-36,190,76,50,7,-68,-121
-139,-104,32,117,-90,-36,190,82,55,7,-68,-121
-145,-116,26,123,-90,-47,184,82,60,7,-68,-121
-145,-122,20,129,-84,-52,190,88,66,13,-62,-115
-151,-122,26,135,-90,-47,184,88,66,19,-56,-109
-151,-122,26,135,-90,-47,184,94,72,25,-56,-109
-151,-116,32,129,-96,-42,190,94,72,25,-56,-109
-151,-110,38,129,-96,-36,196,100,72,25,-56,-109
-145,-104,38,117,-96,-36,196,106,72,25,-56,-109
-139,-92,44,111,-96,-24,196,106,72,25,-56,-109
-133,-98,32,111,-84,-36,190,106,72,25,-56,-109
-127,-104,20,111,-78,-42,190,106,78,25,-56,-109
-127,-104,20,111,-78,-42,190,112,78,31,-56,-109
-115,-98,14,105,-66,-42,190,118,90,37,-50,-103
-121,-92,26,99,-78,-36,184,118,96,37,-50,-103
-133,-80,50,99,-96,-18,190,124,102,43,-50,-103
-139,-86,50,111,-96,-18,190,130,108,49,-44,-103
-139,-86,50,111,-96,-18,196,136,114,60,-38,-91
-133,-86,44,105,-90,-24,202,142,126,60,-26,-79
-133,-86,44,105,-90,-24,208,148,126,65,-26,-73
-133,-86,44,105,-90,-24,202,154,126,71,-32,-73
-127,-86,38,105,-84,-24,202,154,132,71,-26,-67
-121,-80,38,93,-84,-24,202,160,138,77,-26,-67
-121,-74,44,93,-84,-18,202,166,144,83,-26,-67
-127,-74,50,99,-90,-12,202,172,144,83,-20,-67
-127,-74,50,99,-90,-12,202,178,150,89,-20,-67
-127,-68,56,93,-96,-6,202,184,156,95,-14,-61
-121,-68,50,87,-90,-12,202,190,162,101,-8,-61
-121,-68,50,87,-90,-12,202,196,162,107,-2,-61
-115,-68,44,87,-84,-12,208,196,168,113,4,-55
-115,-63,50,87,-84,-6,214,202,174,113,10,-49
-109,-63,44,81,-78,-12,214,214,180,119,10,-49
-103,-63,38,81,-72,-12,214,220,186,125,16,-43
-103,-58,44,81,-72,-6,208,232,192,125,16,-37
-109,-52,56,75,-84,0,208,238,192,125,16,-37
-115,-58,56,87,-84,0,208,244,204,131,16,-31
-103,-58,44,81,-72,-6,214,256,210,137,28,-25
-97,-52,44,69,-72,-6,220,262,216,137,34,-25
-91,-52,38,69,-66,-6,220,268,228,137,39,-25
-97,-46,50,69,-72,0,226,274,234,143,39,-31
-91,-40,50,63,-72,6,220,280,234,149,44,-31
-91,-34,56,63,-72,12,214,286,246,155,50,-25
-91,-28,62,57,-78,18,208,292,252,161,50,-25
-85,-16,68,46,-78,24,202,298,252,167,50,-19
-85,-10,74,46,-78,30,202,304,258,167,56,-13
-85,-10,74,46,-78,30,202,310,258,167,62,-13
-79,2,80,41,-78,42,208,316,264,173,62,-13
-79,2,80,41,-78,42,208,328,270,179,68,-7
-79,14,92,35,-84,54,208,334,276,179,80,-7
-79,26,104,29,-90,66,214,340,276,185,86,-1
-73,26,98,23,-84,60,214,352,282,197,92,5
-73,26,98,23,-84,60,214,358,294,203,98,11
-67,26,92,23,-78,60,214,364,300,203,98,17
-79,32,110,23,-96,72,214,370,312,209,104,23
-73,32,104,17,-90,66,214,376,318,221,110,28
-61,26,86,17,-72,54,214,382,330,221,116,33
-61,32,92,11,-78,60,214,382,336,227,122,33
-55,38,92,11,-72,66,214,394,342,239,128,39
-55,50,104,5,-78,78,214,394,342,245,134,45
-55,56,110,-1,-84,84,214,400,342,245,140,45
-55,62,116,-1,-84,90,214,400,342,257,146,51
-49,74,122,-13,-84,96,208,400,342,263,152,57
-43,74,116,-13,-78,96,208,406,348,269,152,69
-37,80,116,-25,-78,96,202,406,348,269,158,75
-43,86,128,-19,-84,108,196,406,348,269,158,87
-43,86,128,-19,-84,108,196,406,354,269,158,93
-37,104,140,-37,-90,120,196,412,354,275,164,105
-32,116,146,-43,-90,132,190,412,354,275,170,105
-32,122,152,-43,-90,138,184,412,354,287,176,111
-27,128,152,-49,-90,144,184,412,360,287,182,117
-27,128,152,-49,-90,144,178,412,354,287,182,123
-32,134,164,-49,-96,150,178,412,354,287,182,123
-37,140,176,-55,-108,156,172,406,348,287,182,129
-32,146,176,-55,-102,162,166,406,348,287,182,135
-27,152,176,-61,-102,168,160,406,348,287,188,141
-27,152,176,-61,-102,168,160,400,348,287,188,147
-21,152,170,-67,-96,162,160,400,348,287,188,153
-15,152,164,-67,-90,162,154,394,348,287,194,153
-9,158,164,-73,-84,162,154,394,348,287,200,159
3,164,158,-85,-78,162,148,394,342,293,200,159
15,170,152,-91,-66,162,148,388,342,293,206,165
21,170,146,-91,-60,162,142,382,336,287,206,165
21,176,152,-97,-66,168,142,376,330,287,206,171
21,176,152,-97,-66,168,136,364,324,287,200,171
21,176,152,-97,-66,168,130,358,318,281,200,171
27,176,146,-103,-60,162,118,346,306,275,194,171
27,176,146,-103,-60,162,112,334,300,269,194,165
27,182,152,-103,-60,168,106,328,288,263,188,159
33,188,152,-109,-60,174,94,316,282,251,182,153
33,182,146,-103,-54,168,94,304,276,245,182,153
33,182,146,-103,-54,168,82,292,264,239,182,153
27,182,152,-103,-60,168,76,280,258,227,176,153
33,176,140,-103,-54,162,70,268,252,227,176,153
33,164,128,-97,-48,150,64,262,246,227,176,153
39,164,122,-103,-42,144,58,250,240,221,176,153
33,152,116,-91,-42,138,52,244,234,215,170,147
33,146,110,-85,-36,132,52,232,222,209,164,141
39,146,104,-91,-30,126,46,220,216,203,158,141
39,140,98,-91,-30,120,40,202,210,191,146,129
39,140,98,-91,-30,120,34,190,198,179,140,123
39,140,98,-91,-30,120,23,178,186,167,134,123
45,146,98,-91,-24,126,23,172,174,161,134,123
45,134,86,-85,-18,114,18,166,168,155,134,117
45,134,86,-85,-18,114,18,154,162,149,128,111
51,134,80,-91,-12,108,12,142,150,143,128,105
45,128,80,-85,-18,108,12,130,138,131,122,93
45,128,80,-85,-18,108,6,118,126,125,110,87
39,116,74,-79,-18,96,0,106,120,113,104,81
27,98,68,-61,-18,84,0,88,108,101,86,69
15,86,68,-49,-24,78,0,88,96,95,80,69
15,74,56,-43,-18,66,6,76,84,89,68,63
9,68,56,-37,-24,66,6,70,72,83,56,57
-3,68,68,-31,-36,72,0,52,66,71,44,45
-3,62,62,-25,-30,66,0,40,55,60,39,28
-9,56,62,-25,-36,60,0,34,50,60,34,28
-9,38,44,-13,-24,42,0,29,44,49,28,17
-15,32,44,-7,-30,42,6,24,32,43,22,11
-21,32,50,-7,-36,42,6,12,20,37,16,-1
-27,26,50,5,-36,42,6,6,14,25,4,-7
-27,26,50,5,-36,42,6,-6,2,13,-2,-13
-27,14,38,11,-30,30,12,-12,-4,13,-8,-13
-32,8,38,11,-36,24,12,-18,-10,7,-14,-13
-32,8,38,11,-36,24,18,-24,-16,1,-26,-25
-37,2,38,17,-36,18,18,-30,-22,-5,-32,-37
-43,-10,32,29,-36,12,18,-30,-28,-11,-38,-37
-49,-22,26,35,-36,0,18,-36,-34,-17,-44,-43
-49,-28,20,35,-36,-6,18,-36,-40,-23,-50,-43
-61,-28,32,41,-48,0,23,-36,-46,-29,-50,-49
-61,-34,26,46,-42,-6,23,-42,-46,-29,-56,-49
-67,-40,26,51,-48,-6,23,-48,-52,-35,-62,-55
-73,-40,32,51,-54,-6,23,-54,-58,-35,-62,-55
-67,-46,20,57,-42,-12,28,-48,-64,-41,-68,-55
-67,-40,26,51,-48,-6,34,-54,-64,-41,-68,-55
-61,-40,20,46,-42,-12,34,-54,-64,-47,-74,-61
-61,-52,8,51,-36,-24,34,-60,-70,-53,-74,-67
-61,-52,8,51,-36,-24,34,-60,-70,-47,-74,-67
-61,-58,2,57,-30,-30,40,-60,-70,-47,-74,-67
-61,-63,-4,57,-30,-36,40,-54,-76,-47,-74,-67
-61,-63,-4,57,-30,-36,40,-54,-76,-47,-74,-67
-67,-58,8,63,-36,-24,40,-54,-82,-53,-80,-73
-61,-52,8,51,-36,-24,46,-54,-76,-53,-80,-67
-55,-46,8,51,-30,-18,46,-54,-82,-53,-80,-67
-49,-40,8,41,-30,-18,46,-60,-82,-59,-80,-73
-49,-46,2,46,-24,-24,46,-60,-76,-59,-80,-67
-55,-52,2,51,-30,-24,46,-60,-70,-53,-74,-61
-61,-52,8,51,-36,-24,46,-60,-70,-53,-80,-61
-61,-52,8,51,-36,-24,46,-54,-64,-53,-80,-61
-67,-46,20,57,-42,-12,46,-48,-64,-53,-80,-67
-73,-46,26,57,-48,-12,46,-42,-64,-53,-80,-67
-79,-40,38,57,-60,0,46,-36,-64,-53,-80,-73
-79,-46,32,63,-54,-6,52,-30,-64,-47,-80,-67
-73,-46,26,57,-48,-12,52,-30,-58,-41,-74,-67
-73,-46,26,57,-48,-12,52,-30,-58,-41,-74,-67
-73,-40,32,51,-54,-6,52,-30,-52,-41,-74,-67
-79,-40,38,57,-60,0,58,-24,-52,-41,-68,-61
-73,-40,32,51,-54,-6,58,-24,-46,-41,-68,-61
-73,-40,32,51,-54,-6,58,-24,-46,-41,-68,-61
-73,-34,38,51,-54,0,52,-24,-40,-35,-62,-55
-73,-34,38,51,-54,0,58,-18,-40,-35,-62,-55
-67,-28,38,46,-54,6,58,-12,-34,-29,-62,-55
-61,-28,32,41,-48,0,58,-6,-34,-29,-62,-55
-61,-28,32,41,-48,0,58,-6,-34,-23,-56,-49
-73,-22,50,46,-60,12,52,-6,-34,-23,-56,-49
-79,-22,56,51,-66,18,52,-6,-34,-23,-56,-55
-85,-28,56,51,-72,12,52,-12,-28,-17,-62,-61
-85,-34,50,57,-66,6,58,-12,-28,-17,-56,-55
-79,-28,50,51,-66,12,58,-6,-22,-17,-50,-55
-73,-28,44,46,-60,6,64,-6,-10,-17,-44,-43
-79,-28,50,51,-66,12,64,-6,-10,-17,-44,-43
-73,-28,44,46,-60,6,58,-6,-10,-23,-50,-49
-67,-16,50,41,-60,18,52,-6,-4,-17,-44,-49
-67,-16,50,41,-60,18,52,-6,-4,-11,-44,-49
-73,-16,56,41,-66,18,52,-6,-4,-5,-44,-49
-73,-22,50,46,-60,12,58,-6,2,1,-38,-43
-73,-22,50,46,-60,12,64,-6,2,1,-38,-49
-79,-22,56,51,-66,18,64,-12,-4,-5,-44,-55
-79,-22,56,51,-66,18,64,-6,2,-5,-44,-49
-79,-16,62,46,-72,24,70,0,2,1,-44,-49
-79,-22,56,51,-66,18,70,0,-4,1,-44,-49
-79,-22,56,51,-66,18,70,6,-4,1,-44,-49
-85,-16,68,46,-78,24,70,6,-4,1,-38,-49
-79,-10,68,46,-72,30,70,12,-4,1,-38,-55
-79,-10,68,46,-72,30,70,6,2,1,-38,-55
-73,-4,68,35,-72,30,64,0,2,1,-38,-55
-79,-4,74,41,-78,36,70,0,-4,1,-38,-61
-85,-10,74,46,-78,30,76,0,2,-5,-38,-61
-85,-10,74,46,-78,30,76,-6,2,-5,-38,-61
-91,-22,68,57,-78,24,76,-6,2,-5,-38,-61
-85,-34,50,57,-66,6,76,0,2,-5,-32,-61
-79,-40,38,57,-60,0,70,0,2,-5,-32,-61
-79,-28,50,51,-66,12,70,0,2,-5,-32,-61
-79,-16,62,46,-72,24,64,-6,-4,-5,-38,-61
-79,-10,68,46,-72,30,64,-6,-4,1,-32,-61
-79,-16,62,46,-72,24,70,-6,2,1,-32,-55
-79,-22,56,51,-66,18,70,-12,2,-5,-32,-61
-79,-28,50,51,-66,12,76,-12,2,-5,-32,-61
-79,-34,44,57,-60,6,76,-6,2,-5,-32,-61
-85,-28,56,51,-72,12,70,-6,-4,-5,-32,-67
-91,-22,68,57,-78,24,70,-12,-10,-11,-38,-67
-97,-22,74,57,-84,24,70,-12,-10,-11,-38,-67
-103,-16,86,57,-96,36,70,-12,-10,-17,-44,-73
-103,-10,92,57,-96,42,70,-6,-4,-11,-38,-67
-103,-10,92,57,-96,42,70,-12,-4,-11,-38,-67
-97,-10,86,51,-90,36,76,-12,-10,-5,-38,-67
-91,-10,80,51,-84,36,76,-18,-10,-11,-38,-67
-91,-16,74,51,-84,30,76,-18,-10,-11,-38,-67
-91,-16,74,51,-84,30,76,-18,-16,-11,-44,-67
-91,-16,74,51,-84,30,76,-24,-16,-11,-50,-67
-85,-4,80,41,-84,36,76,-24,-22,-11,-50,-67
-91,-4,86,46,-90,42,76,-24,-28,-17,-50,-67
-91,-4,86,46,-90,42,76,-24,-28,-17,-50,-73
-85,2,86,41,-84,42,76,-18,-22,-17,-44,-67
-85,2,86,41,-84,42,82,-18,-22,-17,-44,-73
-91,2,92,46,-90,48,76,-18,-16,-17,-44,-73
-97,-4,92,46,-96,42,76,-24,-16,-23,-44,-73
-97,-4,92,46,-96,42,76,-24,-22,-23,-44,-79
-91,2,92,46,-90,48,76,-30,-22,-29,-50,-79
-91,2,92,46,-90,48,76,-30,-22,-29,-50,-73
-85,-4,80,41,-84,36,76,-30,-22,-29,-56,-73
-79,-10,68,46,-72,30,76,-36,-28,-29,-62,-73
-79,-16,62,46,-72,24,70,-36,-34,-29,-62,-79
-79,-16,62,46,-72,24,76,-36,-40,-35,-62,-79
-85,-22,62,51,-72,18,76,-36,-40,-29,-62,-79
-91,-22,68,57,-78,24,82,-36,-40,-29,-62,-73
-91,-22,68,57,-78,24,82,-36,-40,-35,-56,-73
-91,-22,68,57,-78,24,82,-36,-40,-35,-56,-73
-91,-22,68,57,-78,24,82,-36,-40,-35,-56,-73
-85,-22,62,51,-72,18,76,-48,-46,-41,-62,-73
-85,-22,62,51,-72,18,76,-48,-52,-47,-62,-73
-85,-28,56,51,-72,12,82,-48,-52,-41,-68,-73
-85,-28,56,51,-72,12,76,-48,-52,-41,-68,-73
-85,-16,68,46,-78,24,76,-48,-46,-41,-68,-73
-79,-16,62,46,-72,24,70,-48,-46,-41,-68,-73
-79,-10,68,46,-72,30,70,-48,-46,-41,-68,-73
-85,-16,68,46,-78,24,64,-54,-46,-41,-74,-79
-85,-28,56,51,-72,12,64,-54,-52,-47,-74,-79
-85,-34,50,57,-66,6,70,-60,-52,-53,-74,-79
-85,-40,44,57,-66,0,76,-54,-46,-53,-74,-73
-85,-40,44,57,-66,0,76,-60,-52,-53,-80,-73
-91,-34,56,63,-72,12,76,-60,-58,-53,-80,-73
-91,-22,68,57,-78,24,76,-60,-58,-53,-80,-67
-91,-16,74,51,-84,30,70,-60,-64,-47,-74,-73
-91,-22,68,57,-78,24,76,-60,-64,-47,-74,-73
-91,-16,74,51,-84,30,76,-60,-64,-47,-68,-73
-85,-22,62,51,-72,18,70,-66,-64,-47,-68,-73
-85,-34,50,57,-66,6,70,-66,-70,-53,-68,-79
-79,-34,44,57,-60,6,70,-72,-70,-53,-74,-79
-85,-34,50,57,-66,6,70,-72,-64,-53,-74,-79
-79,-34,44,57,-60,6,70,-66,-64,-53,-74,-79
-73,-28,44,46,-60,6,70,-66,-58,-53,-80,-79
-79,-22,56,51,-66,18,70,-66,-58,-59,-80,-79
-85,-28,56,51,-72,12,64,-66,-64,-59,-80,-79
-91,-40,50,63,-72,6,64,-60,-64,-59,-80,-73
-91,-40,50,63,-72,6,70,-60,-58,-59,-80,-67
-91,-28,62,57,-78,18,70,-60,-58,-59,-80,-67
-91,-28,62,57,-78,18,70,-60,-58,-59,-80,-67
-91,-22,68,57,-78,24,64,-66,-58,-53,-80,-73
-85,-22,62,51,-72,18,64,-66,-64,-59,-86,-85
-91,-22,68,57,-78,24,64,-66,-70,-59,-80,-91
-91,-22,68,57,-78,24,70,-66,-70,-65,-74,-91
-91,-22,68,57,-78,24,76,-66,-70,-65,-74,-91
-91,-22,68,57,-78,24,70,-66,-70,-59,-74,-91
-91,-16,74,51,-84,30,70,-66,-70,-59,-74,-91
-91,-16,74,51,-84,30,70,-66,-70,-59,-74,-85
-97,-22,74,57,-84,24,70,-66,-70,-59,-74,-85
-91,-22,68,57,-78,24,76,-72,-70,-59,-74,-85
-91,-28,62,57,-78,18,76,-72,-70,-59,-74,-85
-91,-28,62,57,-78,18,76,-66,-64,-59,-74,-91
-91,-28,62,57,-78,18,76,-66,-64,-59,-68,-91
-97,-34,62,63,-78,12,76,-66,-64,-59,-68,-91
-97,-28,68,57,-84,18,76,-60,-64,-59,-68,-91
-97,-34,62,63,-78,12,76,-60,-64,-59,-68,-91
-91,-28,62,57,-78,18,70,-66,-64,-59,-74,-91
-91,-22,68,57,-78,24,70,-66,-64,-59,-74,-91
-91,-34,56,63,-72,12,70,-66,-64,-59,-74,-91
-85,-46,38,63,-60,-6,64,-72,-76,-65,-80,-91
-91,-52,38,69,-66,-6,58,-78,-88,-71,-86,-91
-85,-52,32,63,-60,-12,58,-84,-88,-71,-80,-91
-91,-52,38,69,-66,-6,58,-78,-82,-71,-80,-91
-97,-52,44,69,-72,-6,58,-84,-76,-77,-74,-91
-109,-46,62,75,-84,6,58,-84,-76,-77,-74,-91
-103,-46,56,75,-78,6,58,-78,-70,-71,-74,-91
-103,-46,56,75,-78,6,58,-78,-70,-71,-74,-91
-103,-46,56,75,-78,6,58,-78,-64,-71,-74,-85
-97,-40,56,63,-78,6,64,-78,-64,-71,-74,-85
-91,-34,56,63,-72,12,64,-84,-64,-65,-74,-79
-85,-28,56,51,-72,12,64,-84,-64,-65,-80,-79
-85,-34,50,57,-66,6,64,-78,-70,-65,-80,-79
-85,-40,44,57,-66,0,64,-78,-70,-65,-80,-79
-85,-34,50,57,-66,6,70,-72,-70,-65,-74,-79
-85,-34,50,57,-66,6,70,-72,-70,-65,-80,-85
-91,-34,56,63,-72,12,70,-72,-76,-71,-80,-85
-91,-40,50,63,-72,6,70,-72,-76,-65,-80,-79
-97,-46,50,69,-72,0,70,-66,-76,-65,-80,-79
-97,-40,56,63,-78,6,76,-66,-70,-65,-74,-73
-97,-40,56,63,-78,6,70,-72,-70,-65,-74,-73
-97,-40,56,63,-78,6,70,-72,-76,-65,-74,-73
-97,-34,62,63,-78,12,64,-72,-76,-65,-74,-73
-97,-28,68,57,-84,18,64,-78,-76,-65,-74,-73
-103,-34,68,69,-84,18,64,-72,-76,-65,-74,-67
-109,-46,62,75,-84,6,64,-72,-76,-65,-68,-67
-103,-40,62,69,-84,12,70,-66,-76,-59,-68,-67
-97,-40,56,63,-78,6,70,-66,-70,-59,-68,-67
-97,-28,68,57,-84,18,70,-66,-70,-65,-74,-73
-97,-22,74,57,-84,24,64,-72,-70,-65,-74,-73
-97,-34,62,63,-78,12,64,-72,-70,-71,-68,-73
-91,-40,50,63,-72,6,70,-72,-70,-71,-68,-73
-91,-40,50,63,-72,6,70,-72,-70,-71,-68,-67
-91,-40,50,63,-72,6,70,-72,-76,-71,-68,-67
-85,-46,38,63,-60,-6,76,-72,-82,-71,-74,-73
-85,-40,44,57,-66,0,76,-72,-82,-71,-68,-73
-79,-40,38,57,-60,0,76,-78,-82,-65,-68,-67
-85,-40,44,57,-66,0,76,-78,-82,-59,-68,-67
-91,-40,50,63,-72,6,76,-78,-82,-59,-74,-67
-91,-40,50,63,-72,6,70,-78,-82,-59,-74,-61
-91,-40,50,63,-72,6,70,-78,-82,-59,-74,-67
-85,-34,50,57,-66,6,70,-84,-82,-59,-74,-67
-85,-34,50,57,-66,6,70,-84,-82,-65,-80,-67
-79,-34,44,57,-60,6,70,-84,-82,-65,-80,-67
-79,-40,38,57,-60,0,70,-84,-82,-71,-80,-67
-79,-40,38,57,-60,0,70,-84,-82,-71,-80,-67
-79,-40,38,57,-60,0,70,-78,-82,-71,-74,-67
-79,-46,32,63,-54,-6,70,-78,-76,-71,-68,-67
-85,-46,38,63,-60,-6,76,-78,-76,-71,-68,-61
-85,-52,32,63,-60,-12,70,-78,-76,-71,-62,-61
-79,-58,20,69,-48,-18,76,-78,-70,-65,-62,-67
-73,-52,20,57,-48,-18,76,-72,-70,-65,-62,-67
-73,-46,26,57,-48,-12,76,-72,-76,-71,-68,-67
-73,-46,26,57,-48,-12,76,-72,-76,-71,-68,-67
-79,-40,38,57,-60,0,76,-72,-82,-77,-74,-67
-79,-22,56,51,-66,18,70,-72,-82,-77,-74,-67
-79,-28,50,51,-66,12,70,-78,-82,-77,-80,-73
-85,-40,44,57,-66,0,70,-78,-76,-71,-74,-67
-91,-46,44,69,-66,0,70,-78,-76,-65,-74,-67
-91,-40,50,63,-72,6,70,-78,-82,-65,-80,-73
-91,-46,44,69,-66,0,70,-78,-76,-59,-80,-73
-85,-46,38,63,-60,-6,70,-84,-76,-65,-80,-79
-73,-46,26,57,-48,-12,64,-84,-82,-65,-74,-79
-79,-40,38,57,-60,0,64,-84,-82,-71,-74,-79
-73,-34,38,51,-54,0,64,-84,-82,-77,-80,-79
-79,-34,44,57,-60,6,64,-90,-82,-83,-74,-73
-85,-34,50,57,-66,6,64,-84,-82,-83,-74,-73
-85,-40,44,57,-66,0,70,-84,-76,-77,-74,-67
-85,-40,44,57,-66,0,70,-84,-76,-77,-80,-67
-79,-34,44,57,-60,6,70,-84,-82,-71,-80,-67
-79,-22,56,51,-66,18,70,-84,-82,-71,-80,-67
-91,-28,62,57,-78,18,70,-84,-88,-71,-80,-73
-85,-28,56,51,-72,12,70,-78,-88,-71,-74,-67
-79,-34,44,57,-60,6,70,-72,-94,-77,-68,-67
-79,-28,50,51,-66,12,70,-72,-94,-71,-68,-67
-79,-22,56,51,-66,18,70,-72,-94,-71,-74,-67
-85,-22,62,51,-72,18,70,-72,-94,-71,-68,-67
-85,-28,56,51,-72,12,70,-72,-94,-65,-68,-67
-85,-28,56,51,-72,12,70,-72,-94,-65,-74,-67
-85,-28,56,51,-72,12,70,-72,-88,-65,-74,-73
-79,-22,56,51,-66,18,70,-72,-88,-65,-74,-73
-67,-16,50,41,-60,18,70,-78,-88,-71,-80,-73
-67,-16,50,41,-60,18,70,-78,-88,-71,-74,-67
-73,-22,50,46,-60,12,70,-78,-88,-71,-74,-73
-85,-28,56,51,-72,12,76,-78,-88,-71,-74,-67
-85,-28,56,51,-72,12,70,-78,-88,-71,-74,-73
-85,-28,56,51,-72,12,70,-78,-88,-71,-80,-73
-85,-28,56,51,-72,12,64,-84,-94,-71,-80,-73
-91,-34,56,63,-72,12,64,-84,-88,-71,-80,-73
-91,-28,62,57,-78,18,64,-84,-88,-71,-80,-73
-85,-34,50,57,-66,6,70,-84,-88,-71,-80,-73
-73,-34,38,51,-54,0,70,-84,-88,-71,-80,-73
-67,-34,32,51,-48,0,76,-72,-82,-65,-74,-67
-61,-22,38,41,-48,6,82,-60,-76,-65,-68,-67
-61,-10,50,35,-54,18,88,-54,-70,-59,-68,-61
-61,-10,50,35,-54,18,88,-54,-64,-53,-62,-55
-61,-4,56,29,-60,24,88,-48,-64,-47,-56,-55
-61,8,68,23,-66,36,88,-48,-58,-47,-56,-49
-61,14,74,23,-66,42,94,-42,-58,-41,-50,-49
-55,14,68,23,-60,42,106,-30,-46,-35,-38,-37
-49,20,68,11,-60,42,112,-30,-40,-29,-32,-31
-43,26,68,11,-54,48,118,-24,-34,-29,-26,-31
-43,38,80,5,-60,60,124,-24,-34,-23,-26,-25
-43,32,74,5,-60,54,124,-18,-28,-17,-20,-25
-43,50,92,-1,-66,72,136,-18,-28,-11,-14,-19
-43,62,104,-7,-72,84,136,-18,-28,-5,-8,-19
-37,74,110,-19,-72,90,136,-12,-22,1,-8,-13
-32,74,104,-19,-66,90,142,-12,-16,7,-2,-7
-32,80,110,-25,-72,96,148,-6,-16,7,4,-1
-32,74,104,-19,-66,90,142,-6,-16,7,10,-1
-37,74,110,-19,-72,90,130,-6,-16,13,10,5
-37,68,104,-19,-72,84,124,-6,-10,13,10,5
-32,68,98,-19,-66,84,112,-6,-10,19,4,5
-21,62,80,-19,-48,72,94,0,-4,25,4,11
-9,62,68,-25,-36,66,88,0,-4,31,10,17
-3,62,62,-25,-30,66,82,0,2,31,10,17
-3,62,62,-25,-30,66,76,0,2,31,10,17
-3,56,56,-25,-30,60,70,6,2,31,10,17
-3,56,56,-25,-30,60,58,6,2,25,10,17
3,56,50,-31,-24,54,46,6,-4,25,4,11
-3,44,44,-19,-24,48,40,6,-4,19,4,11
-9,38,44,-13,-24,42,40,0,-4,13,-2,5
-9,26,32,-7,-18,30,40,0,-4,13,-8,-1
-9,20,26,-7,-18,24,52,-6,-10,7,-14,-7
-9,14,20,-1,-12,18,58,-12,-22,1,-20,-13
-15,8,20,5,-18,18,70,-12,-22,1,-14,-7
-9,8,14,-1,-12,12,82,-12,-28,-5,-20,-13
-9,8,14,-1,-12,12,94,-12,-34,-11,-26,-19
-15,2,14,11,-12,12,106,-12,-40,-17,-32,-25
-27,-4,20,17,-24,12,124,-6,-34,-17,-32,-25
-32,-4,26,17,-30,12,148,6,-22,-17,-32,-31
-43,-10,32,29,-36,12,160,12,-16,-11,-32,-31
-43,-4,38,23,-42,18,148,24,-4,-5,-26,-31
-37,-4,32,17,-36,12,118,29,2,1,-20,-31
-32,2,32,17,-30,18,94,34,8,7,-14,-25
-27,8,32,11,-30,24,64,46,20,19,-2,-19
-21,14,32,5,-24,24,46,58,32,31,4,-7
-9,14,20,-1,-12,18,34,76,50,43,16,5
3,32,26,-19,-12,30,6,88,60,55,28,11
9,56,44,-31,-18,54,-48,100,72,60,39,17
15,68,50,-43,-18,60,-96,112,84,77,44,23
27,80,50,-55,-12,66,-132,136,102,95,56,28
39,80,38,-61,-1,60,-156,166,126,113,68,33
57,86,26,-67,16,60,-162,196,144,131,80,45
69,110,38,-85,16,78,-168,214,162,143,86,51
87,122,32,-103,28,78,-186,232,174,149,98,63
105,128,20,-115,40,78,-204,244,192,161,110,69
123,134,8,-127,58,72,-228,256,204,173,116,75
141,140,-4,-139,70,72,-264,256,204,173,122,75
165,134,-33,-145,100,54,-300,250,204,173,122,81
189,122,-68,-151,130,30,-336,256,204,173,122,81
225,110,-116,-163,172,0,-378,238,192,161,116,87
255,86,-170,-169,214,-42,-444,196,156,149,104,87
291,56,-236,-175,262,-88,-516,142,120,131,104,87
333,32,-302,-181,316,-130,-582,100,96,119,110,99
375,20,-356,-199,364,-166,-654,52,60,107,116,117
411,8,-404,-211,406,-196,-732,12,44,101,122,135
453,8,-446,-229,448,-214,-816,-30,26,95,134,153
501,-4,-506,-247,502,-250,-900,-78,8,83,140,171
555,-10,-566,-271,562,-286,-984,-126,-10,77,146,189
603,-16,-620,-295,610,-316,-1068,-174,-28,65,146,207
645,-22,-668,-307,658,-340,-1128,-222,-52,60,146,225
675,-28,-704,-325,688,-364,-1170,-282,-94,37,140,237
705,-22,-728,-337,718,-370,-1212,-354,-136,13,134,249
735,-10,-746,-361,742,-376,-1254,-426,-190,-17,134,261
765,-16,-782,-373,772,-394,-1290,-498,-262,-59,116,273
795,-22,-818,-385,808,-418,-1326,-576,-322,-101,92,273
843,-34,-878,-403,862,-454,-1368,-654,-388,-149,62,267
909,-52,-962,-427,934,-502,-1434,-726,-448,-191,39,267
999,-63,-1064,-469,1030,-562,-1518,-804,-496,-221,34,285
1113,-63,-1178,-523,1144,-616,-1620,-876,-532,-233,44,327
1227,-46,-1274,-589,1252,-658,-1704,-936,-562,-239,68,387
1335,-4,-1340,-667,1336,-670,-1758,-954,-556,-215,128,477
1413,50,-1364,-727,1390,-652,-1770,-948,-532,-179,200,585
1473,122,-1352,-793,1414,-610,-1770,-942,-526,-143,290,711
1497,170,-1328,-829,1414,-574,-1758,-942,-532,-125,362,831
1485,200,-1286,-841,1384,-538,-1728,-948,-544,-119,404,915
1455,236,-1220,-847,1336,-490,-1680,-948,-556,-119,434,975
1401,284,-1118,-841,1258,-412,-1620,-936,-568,-113,452,1011
1329,332,-998,-829,1162,-328,-1536,-912,-562,-101,464,1041
1233,368,-866,-799,1048,-244,-1428,-876,-544,-89,470,1047
1119,398,-722,-757,922,-160,-1296,-846,-544,-95,452,1023
987,410,-578,-697,784,-82,-1158,-822,-562,-125,398,969
855,416,-440,-637,646,-12,-1020,-810,-580,-167,320,885
729,392,-338,-559,532,30,-894,-774,-580,-203,242,777
615,344,-272,-481,442,36,-774,-720,-562,-233,152,645
507,266,-242,-385,376,12,-660,-642,-520,-245,74,489
411,200,-212,-307,310,-6,-546,-552,-460,-233,28,357
315,152,-164,-235,238,-6,-432,-456,-388,-209,-8,249
231,98,-134,-163,184,-18,-318,-360,-322,-179,-20,165
171,56,-116,-115,142,-30,-222,-270,-250,-149,-32,111
117,32,-86,-73,100,-24,-132,-198,-190,-125,-38,75
69,8,-62,-37,64,-24,-66,-150,-142,-107,-44,45
27,-16,-44,-7,34,-30,-18,-120,-112,-95,-50,28
-15,-34,-22,29,4,-24,12,-96,-88,-83,-50,11
-37,-46,-10,41,-12,-30,23,-78,-76,-77,-56,-1
-55,-52,2,51,-30,-24,28,-66,-64,-65,-50,-19
-67,-52,14,57,-42,-18,40,-54,-58,-53,-50,-31
-79,-63,14,69,-48,-24,58,-36,-52,-41,-56,-43
-85,-63,20,69,-54,-24,76,-24,-46,-35,-56,-55
-97,-58,38,75,-66,-12,94,-18,-46,-35,-62,-61
-103,-63,38,81,-72,-12,112,-12,-40,-35,-68,-73
-109,-68,38,81,-78,-18,124,-6,-34,-35,-68,-73
-115,-68,44,87,-84,-12,130,-6,-34,-35,-74,-79
-115,-68,44,87,-84,-12,136,0,-28,-41,-80,-79
-115,-68,44,87,-84,-12,142,0,-22,-35,-80,-79
-121,-74,44,93,-84,-18,142,12,-16,-35,-74,-85
-127,-80,44,99,-90,-18,142,12,-10,-35,-74,-85
-133,-92,38,105,-90,-30,148,18,-10,-35,-74,-91
-139,-104,32,117,-90,-36,148,24,-4,-29,-68,-97
-139,-110,26,123,-84,-42,154,24,-4,-29,-74,-97
-139,-104,32,117,-90,-36,160,24,-4,-23,-74,-97
-145,-104,38,117,-96,-36,160,29,-4,-17,-80,-97
-157,-98,56,123,-108,-24,166,29,-10,-17,-80,-97
-157,-98,56,123,-108,-24,166,29,-4,-17,-80,-97
-157,-98,56,123,-108,-24,166,34,2,-17,-80,-97
-163,-104,56,129,-114,-24,172,40,8,-17,-74,-97
-157,-98,56,123,-108,-24,172,40,14,-17,-74,-103
-151,-98,50,123,-102,-24,172,46,14,-17,-68,-109
-151,-98,50,123,-102,-24,172,46,20,-17,-68,-115
-151,-98,50,123,-102,-24,178,52,20,-17,-68,-115
-151,-86,62,117,-108,-12,178,52,14,-17,-68,-115
-145,-80,62,105,-108,-12,184,52,14,-17,-68,-109
-145,-80,62,105,-108,-12,184,58,20,-11,-68,-109
-145,-86,56,111,-102,-18,184,64,20,-11,-62,-109
-145,-92,50,111,-102,-24,184,76,26,-5,-56,-109
-145,-98,44,117,-96,-30,184,76,26,-5,-56,-109
-151,-92,56,117,-108,-18,184,82,32,-5,-56,-115
-145,-80,62,105,-108,-12,190,88,38,-5,-56,-115
-145,-80,62,105,-108,-12,190,94,44,-5,-56,-109
-145,-80,62,105,-108,-12,196,94,50,-5,-56,-109
-145,-80,62,105,-108,-12,196,100,50,1,-56,-103
-139,-74,62,105,-102,-6,202,100,50,1,-50,-97
-133,-68,62,93,-102,-6,196,100,50,7,-44,-97
-133,-68,62,93,-102,-6,202,100,50,7,-38,-97
-133,-74,56,99,-96,-12,202,106,55,7,-38,-97
-127,-80,44,99,-90,-18,202,106,60,7,-32,-97
-121,-80,38,93,-84,-24,202,112,60,7,-32,-97
-133,-80,50,99,-96,-18,202,118,66,7,-26,-97
-127,-86,38,105,-84,-24,196,124,66,7,-26,-97
-127,-80,44,99,-90,-18,196,124,72,7,-32,-103
-127,-80,44,99,-90,-18,202,130,78,13,-32,-103
-121,-74,44,93,-84,-18,202,136,84,19,-32,-97
-133,-74,56,99,-96,-12,202,136,84,19,-32,-91
-145,-74,68,105,-108,-6,208,142,90,31,-26,-85
-139,-74,62,105,-102,-6,202,142,96,31,-26,-85
-139,-68,68,99,-108,0,202,148,102,37,-26,-79
-133,-63,68,93,-102,0,202,148,102,37,-26,-79
-121,-58,62,87,-90,0,202,148,108,43,-20,-79
-121,-52,68,81,-96,6,202,160,108,49,-20,-79
-115,-52,62,81,-90,6,202,166,114,60,-14,-73
-115,-52,62,81,-90,6,202,172,120,60,-8,-73
-109,-52,56,75,-84,0,202,172,120,65,-8,-67
-109,-52,56,75,-84,0,202,172,126,65,-2,-67
-97,-46,50,69,-72,0,208,178,126,65,4,-67
-85,-40,44,57,-66,0,208,184,138,71,10,-55
-85,-34,50,57,-66,6,208,184,150,83,10,-49
-85,-34,50,57,-66,6,208,190,156,89,16,-49
-85,-28,56,51,-72,12,208,196,162,89,22,-49
-85,-28,56,51,-72,12,208,202,168,95,22,-49
-85,-22,62,51,-72,18,208,208,168,101,28,-49
-91,-16,74,51,-84,30,214,214,174,107,28,-43
-85,-16,68,46,-78,24,208,220,180,107,28,-43
-91,-16,74,51,-84,30,214,232,186,107,28,-43
-91,-16,74,51,-84,30,214,238,192,113,34,-37
-97,-28,68,57,-84,18,220,250,198,119,39,-31
-91,-28,62,57,-78,18,220,262,204,125,39,-25
-91,-22,68,57,-78,24,226,268,216,131,44,-25
-91,-16,74,51,-84,30,226,274,222,137,50,-19
-91,-10,80,51,-84,36,220,280,228,143,56,-19
-91,-4,86,46,-90,42,220,286,234,143,56,-19
-91,2,92,46,-90,48,220,292,234,143,62,-19
-85,2,86,41,-84,42,226,292,234,143,62,-19
-91,2,92,46,-90,48,226,304,240,143,62,-19
-79,2,80,41,-78,42,226,310,246,149,62,-19
-73,8,80,29,-78,42,220,316,246,155,68,-19
-67,14,80,29,-72,48,226,328,258,167,74,-13
-67,20,86,23,-78,54,226,340,270,173,80,-13
-67,26,92,23,-78,60,232,352,282,179,86,-1
-67,38,104,17,-84,72,226,358,288,185,92,5
-67,50,116,11,-90,84,226,364,288,185,98,11
-73,44,116,11,-96,78,232,370,294,185,104,17
-61,44,104,5,-84,72,232,376,294,191,116,23
-61,44,104,5,-84,72,232,382,300,197,122,23
-55,50,104,5,-78,78,232,388,300,203,128,28
-49,56,104,-7,-78,78,226,388,312,203,128,28
-43,68,110,-13,-78,90,226,400,318,215,128,28
-37,80,116,-25,-78,96,226,400,318,215,128,33
-37,86,122,-25,-78,102,220,400,324,221,134,39
-37,98,134,-31,-84,114,220,400,336,227,140,45
-32,98,128,-31,-78,114,220,406,342,233,152,51
-32,98,128,-31,-78,114,220,412,342,239,152,57
-32,98,128,-31,-78,114,220,418,348,245,158,63
-32,98,128,-31,-78,114,220,424,348,251,158,69
-32,98,128,-31,-78,114,220,430,354,257,164,75
-32,110,140,-37,-84,126,220,436,360,263,170,87
-27,116,140,-43,-84,132,214,436,360,269,176,93
-21,134,152,-55,-84,144,214,436,360,269,182,99
-15,140,152,-61,-84,150,208,436,366,275,194,111
-9,146,152,-67,-78,150,202,436,366,275,200,117
-9,146,152,-67,-78,150,202,436,366,281,200,117
-9,152,158,-73,-84,156,196,436,372,287,206,123
-3,158,158,-73,-78,162,190,436,372,287,212,129
-3,164,164,-79,-84,168,190,436,372,287,212,135
3,170,164,-85,-78,168,184,436,372,287,212,135
3,176,170,-91,-84,174,178,430,366,293,218,141
9,176,164,-91,-78,174,178,424,360,287,218,147
9,176,164,-91,-78,174,172,418,354,287,224,147
9,176,164,-91,-78,174,166,418,354,293,224,153
3,170,164,-85,-78,168,160,406,348,293,224,159
9,176,164,-91,-78,174,154,400,354,293,224,159
21,182,158,-97,-66,174,154,400,354,293,230,165
27,182,152,-103,-60,168,154,400,354,293,236,171
27,188,158,-109,-66,174,148,394,348,293,230,171
33,194,158,-109,-60,180,142,394,348,287,230,177
39,200,158,-121,-60,180,136,382,342,281,230,171
33,200,164,-115,-66,186,130,376,336,281,230,177
33,200,164,-115,-66,186,124,364,330,281,230,171
45,218,170,-127,-60,198,118,358,324,281,230,177
51,224,170,-139,-60,198,118,352,324,281,236,177
63,230,164,-145,-48,198,118,346,318,281,236,183
69,230,158,-145,-42,198,112,340,312,275,236,189
63,224,158,-145,-48,192,100,334,306,269,236,189
63,218,152,-139,-42,186,88,322,294,263,236,183
63,218,152,-139,-42,186,76,310,294,257,230,183
63,218,152,-139,-42,186,70,304,288,257,230,183
63,212,146,-139,-42,180,64,292,282,251,230,183
63,212,146,-139,-42,180,58,274,276,245,224,177
69,212,140,-139,-36,180,52,262,270,233,218,171
75,206,128,-139,-24,168,46,256,258,221,212,171
81,200,116,-139,-18,162,40,244,252,215,206,165
87,194,104,-139,-6,150,34,226,240,203,200,159
93,194,98,-139,-1,150,28,214,234,197,194,159
87,188,98,-139,-6,144,23,202,222,191,188,153
87,188,98,-139,-6,144,23,190,210,185,182,147
81,188,104,-133,-12,150,18,178,198,179,182,141
81,182,98,-127,-6,144,12,166,186,167,176,135
81,170,86,-121,-1,132,6,160,174,155,170,129
81,158,74,-115,4,120,6,148,162,143,164,123
75,152,74,-115,-1,114,0,136,150,137,152,111
75,152,74,-115,-1,114,0,124,132,131,140,105
75,140,62,-109,4,102,0,112,126,119,128,99
75,134,56,-103,10,96,6,94,114,107,122,93
69,122,50,-91,10,90,6,82,102,101,116,81
57,104,44,-79,4,78,6,70,90,89,104,75
51,98,44,-73,4,72,0,58,78,77,92,63
39,92,50,-67,-6,72,-6,46,66,71,80,51
39,74,32,-55,4,54,-6,40,55,60,68,39
33,68,32,-49,-1,54,-6,29,44,60,62,33
33,68,32,-49,-1,54,-6,29,32,55,50,28
21,68,44,-43,-12,60,-6,18,20,43,39,23
9,68,56,-37,-24,66,0,12,8,31,34,17
9,62,50,-31,-18,60,6,6,2,19,28,11
9,50,38,-25,-12,48,6,0,-4,7,22,5
3,38,32,-19,-12,36,12,-6,-4,7,16,-1
-3,38,38,-13,-18,42,6,-18,-10,-5,10,-13
-9,32,38,-13,-24,36,6,-24,-16,-11,-2,-19
-9,20,26,-7,-18,24,6,-24,-22,-11,-8,-25
-9,14,20,-1,-12,18,12,-24,-28,-11,-14,-31
-15,14,26,5,-18,24,6,-30,-40,-17,-20,-37
-15,14,26,5,-18,24,12,-36,-46,-23,-26,-37
-15,14,26,5,-18,24,12,-42,-52,-23,-32,-43
-15,8,20,5,-18,18,18,-42,-58,-29,-32,-43
-21,8,26,5,-24,18,23,-48,-58,-35,-38,-49
-21,-4,14,11,-18,6,28,-48,-58,-35,-44,-49
-27,-4,20,17,-24,12,28,-48,-58,-35,-44,-49
-27,-10,14,23,-18,6,28,-42,-58,-35,-44,-49
-27,-10,14,23,-18,6,23,-42,-58,-41,-44,-49
-27,-10,14,23,-18,6,23,-48,-58,-47,-44,-55
-32,-10,20,23,-24,6,23,-48,-64,-53,-50,-55
-37,-4,32,17,-36,12,28,-54,-64,-53,-50,-61
-43,-10,32,29,-36,12,28,-60,-76,-59,-62,-67
-49,-10,38,29,-42,12,28,-60,-82,-65,-68,-67
-49,-10,38,29,-42,12,28,-54,-82,-65,-62,-67
-49,-16,32,29,-42,6,28,-54,-82,-65,-56,-67
-49,-22,26,35,-36,0,28,-54,-82,-65,-56,-67
-43,-28,14,35,-30,-6,23,-60,-82,-65,-56,-73
-37,-28,8,29,-24,-12,23,-60,-82,-65,-56,-73
-37,-28,8,29,-24,-12,23,-60,-76,-65,-62,-73
-37,-28,8,29,-24,-12,23,-60,-76,-65,-62,-73
-37,-28,8,29,-24,-12,23,-54,-76,-71,-62,-73
-43,-22,20,35,-30,0,23,-54,-76,-71,-62,-73
-43,-22,20,35,-30,0,23,-48,-70,-77,-62,-67
-43,-16,26,29,-36,6,28,-48,-70,-71,-62,-67
-43,-16,26,29,-36,6,34,-42,-70,-65,-56,-61
-43,-10,32,29,-36,12,34,-42,-70,-59,-50,-55
-37,-10,26,23,-30,6,40,-42,-64,-59,-50,-49
-32,-10,20,23,-24,6,40,-42,-58,-59,-50,-49
-32,-4,26,17,-30,12,40,-36,-58,-53,-50,-49
-37,2,38,17,-36,18,40,-36,-52,-47,-50,-49
-37,-4,32,17,-36,12,40,-30,-52,-47,-44,-49
-37,-10,26,23,-30,6,40,-24,-46,-47,-44,-49
-37,-16,20,23,-30,0,40,-24,-46,-47,-38,-49
-37,-10,26,23,-30,6,40,-24,-46,-47,-44,-49
-43,-4,38,23,-42,18,40,-24,-46,-47,-44,-49
-43,-4,38,23,-42,18,46,-18,-40,-47,-38,-43
-37,2,38,17,-36,18,52,-18,-40,-41,-38,-43
-32,2,32,17,-30,18,52,-18,-40,-41,-38,-43
-32,8,38,11,-36,24,52,-24,-40,-35,-38,-43
-32,2,32,17,-30,18,46,-24,-34,-35,-38,-49
-32,-4,26,17,-30,12,46,-18,-34,-35,-38,-49
-37,-4,32,17,-36,12,46,-18,-34,-35,-32,-43
-32,-4,26,17,-30,12,46,-24,-34,-35,-32,-43
-32,2,32,17,-30,18,46,-24,-34,-35,-32,-43
-27,2,26,17,-24,18,46,-24,-34,-35,-32,-49
-27,2,26,17,-24,18,52,-18,-28,-23,-32,-49
-27,-4,20,17,-24,12,58,-18,-22,-23,-26,-49
-27,-4,20,17,-24,12,58,-12,-16,-17,-26,-49
-32,-4,26,17,-30,12,64,-6,-10,-11,-20,-49
-37,-4,32,17,-36,12,64,-6,-10,-11,-26,-49
-37,-4,32,17,-36,12,64,0,-10,-11,-20,-49
-49,2,50,23,-48,24,64,0,-10,-11,-20,-43
-49,8,56,17,-54,30,64,0,-10,-17,-20,-43
-49,14,62,17,-54,36,70,0,-10,-17,-20,-49
-43,14,56,17,-48,36,70,6,-4,-17,-20,-49
-43,14,56,17,-48,36,70,12,2,-11,-20,-49
-43,14,56,17,-48,36,70,12,2,-11,-14,-49
-43,20,62,11,-54,42,70,12,2,-5,-20,-49
-49,14,62,17,-54,36,64,6,2,-5,-20,-55
-55,14,68,23,-60,42,64,0,-4,1,-26,-55
-55,14,68,23,-60,42,70,0,-4,1,-26,-55
-61,8,68,23,-66,36,64,-6,-10,1,-26,-61
-61,2,62,29,-60,30,64,0,-10,1,-20,-55
-67,-4,62,35,-66,30,70,6,-4,1,-20,-55
-61,-4,56,29,-60,24,70,12,-4,1,-14,-55
-61,2,62,29,-60,30,70,12,-4,-5,-14,-49
-61,8,68,23,-66,36,76,18,-4,-5,-14,-49
-61,14,74,23,-66,42,76,12,-10,-11,-14,-49
-61,14,74,23,-66,42,76,18,-10,-5,-14,-43
-67,14,80,29,-72,48,82,12,-10,-5,-14,-43
-61,20,80,17,-72,48,82,6,-4,1,-20,-43
-61,26,86,17,-72,54,76,6,-4,1,-26,-49
-61,14,74,23,-66,42,76,6,-4,1,-20,-43
-61,8,68,23,-66,36,70,6,-4,1,-20,-43
-55,2,56,29,-54,30,76,6,-4,1,-20,-43
-55,8,62,23,-60,36,76,6,-4,-5,-20,-43
-61,8,68,23,-66,36,76,6,-4,-11,-20,-49
-61,14,74,23,-66,42,76,0,-4,-11,-14,-49
-61,14,74,23,-66,42,76,0,-4,-5,-14,-49
-67,14,80,29,-72,48,76,0,-4,-5,-14,-43
-67,2,68,35,-66,36,76,0,-4,-5,-14,-43
-61,-4,56,29,-60,24,70,0,-10,-11,-20,-49
-55,-4,50,29,-54,24,70,-6,-10,-11,-20,-43
-61,-4,56,29,-60,24,76,-6,-16,-11,-26,-49
-67,8,74,29,-72,42,76,-6,-16,-17,-32,-49
-67,14,80,29,-72,48,76,-6,-22,-17,-32,-49
-67,20,86,23,-78,54,82,-6,-22,-23,-38,-49
-67,14,80,29,-72,48,82,-6,-22,-23,-32,-49
-67,14,80,29,-72,48,82,-6,-22,-23,-38,-49
-61,8,68,23,-66,36,82,-12,-28,-23,-38,-55
-55,-4,50,29,-54,24,76,-18,-34,-29,-38,-55
-61,-10,50,35,-54,18,76,-24,-34,-29,-38,-61
-61,-4,56,29,-60,24,70,-24,-40,-29,-38,-61
-61,-4,56,29,-60,24,70,-24,-40,-23,-38,-61
-61,2,62,29,-60,30,70,-24,-40,-23,-38,-55
-67,-4,62,35,-66,30,70,-24,-40,-29,-38,-55
-67,-4,62,35,-66,30,70,-18,-40,-29,-38,-49
-67,-10,56,41,-60,24,70,-18,-40,-29,-32,-49
-61,-10,50,35,-54,18,70,-18,-40,-35,-32,-49
-55,-4,50,29,-54,24,64,-12,-40,-35,-38,-49
-55,-4,50,29,-54,24,64,-18,-46,-29,-38,-49
-55,-10,44,35,-48,18,70,-12,-46,-29,-32,-49
-61,-10,50,35,-54,18,76,-18,-46,-29,-38,-49
-67,2,68,35,-66,36,82,-18,-52,-29,-38,-49
-61,14,74,23,-66,42,82,-24,-52,-29,-44,-49
-61,14,74,23,-66,42,82,-30,-52,-35,-44,-49
-61,8,68,23,-66,36,82,-24,-46,-35,-44,-43
-61,8,68,23,-66,36,76,-30,-52,-35,-38,-43
-61,8,68,23,-66,36,70,-30,-52,-41,-38,-49
-67,8,74,29,-72,42,64,-42,-64,-41,-32,-49
-73,8,80,29,-78,42,64,-42,-64,-47,-38,-55
-73,8,80,29,-78,42,64,-48,-64,-47,-38,-55
-67,14,80,29,-72,48,70,-48,-64,-41,-38,-55
-61,20,80,17,-72,48,70,-48,-64,-41,-44,-55
-55,20,74,17,-66,48,70,-48,-64,-47,-50,-55
-49,20,68,11,-60,42,70,-48,-64,-47,-50,-55
-49,8,56,17,-54,30,64,-48,-64,-47,-50,-49
-49,2,50,23,-48,24,70,-48,-64,-35,-44,-49
-55,2,56,29,-54,30,70,-48,-64,-35,-44,-49
-61,2,62,29,-60,30,70,-48,-64,-41,-44,-49
-67,2,68,35,-66,36,70,-54,-64,-41,-44,-49
-73,-4,68,35,-72,30,70,-60,-70,-47,-50,-49
-73,-22,50,46,-60,12,76,-54,-64,-41,-50,-43
-73,-22,50,46,-60,12,76,-48,-64,-41,-44,-43
-73,-22,50,46,-60,12,76,-48,-64,-41,-44,-43
-73,-22,50,46,-60,12,76,-48,-64,-47,-44,-49
-73,-16,56,41,-66,18,76,-48,-64,-47,-50,-49
-73,-10,62,41,-66,24,76,-48,-64,-41,-50,-49
-67,-4,62,35,-66,30,76,-48,-70,-41,-50,-55
-67,2,68,35,-66,36,70,-54,-76,-47,-50,-55
-67,8,74,29,-72,42,64,-60,-76,-53,-50,-55
-61,8,68,23,-66,36,64,-60,-76,-59,-56,-49
-61,2,62,29,-60,30,64,-54,-76,-53,-50,-49
-55,-4,50,29,-54,24,64,-54,-76,-53,-50,-49
-55,-4,50,29,-54,24,64,-54,-76,-53,-56,-55
-49,-4,44,23,-48,18,58,-60,-82,-59,-56,-55
-49,2,50,23,-48,24,64,-60,-82,-59,-50,-55
-61,-4,56,29,-60,24,70,-60,-82,-59,-50,-55
-61,-10,50,35,-54,18,70,-60,-82,-59,-50,-55
-67,-10,56,41,-60,24,70,-66,-82,-59,-50,-61
-67,-10,56,41,-60,24,70,-66,-76,-65,-50,-61
-67,-4,62,35,-66,30,64,-66,-82,-65,-50,-67
-67,2,68,35,-66,36,64,-60,-76,-59,-56,-67
-73,-4,68,35,-72,30,58,-60,-76,-59,-56,-67
-67,-4,62,35,-66,30,58,-60,-76,-59,-62,-67
-61,-4,56,29,-60,24,58,-66,-76,-65,-62,-67
-55,-4,50,29,-54,24,58,-66,-76,-71,-62,-67
-55,-16,38,35,-48,12,58,-66,-70,-65,-56,-61
-61,-16,44,35,-54,12,64,-66,-70,-65,-56,-61
-61,-16,44,35,-54,12,64,-72,-70,-65,-56,-55
-61,-22,38,41,-48,6,70,-72,-70,-65,-56,-61
-67,-16,50,41,-60,18,70,-72,-70,-59,-56,-61
-73,-4,68,35,-72,30,64,-66,-70,-53,-56,-61
-67,8,74,29,-72,42,64,-66,-76,-53,-62,-61
-67,-4,62,35,-66,30,64,-72,-82,-59,-62,-67
-61,-10,50,35,-54,18,64,-66,-82,-53,-56,-55
-61,-16,44,35,-54,12,64,-66,-82,-53,-56,-55
-61,-16,44,35,-54,12,64,-66,-82,-59,-56,-55
-67,-16,50,41,-60,18,64,-66,-76,-59,-62,-55
-67,-22,44,46,-54,12,58,-72,-76,-59,-62,-55
-73,-22,50,46,-60,12,58,-72,-70,-59,-62,-61
-73,-22,50,46,-60,12,58,-78,-76,-65,-68,-67
-67,-16,50,41,-60,18,58,-78,-76,-65,-68,-67
-67,-16,50,41,-60,18,64,-66,-70,-53,-62,-67
-61,-22,38,41,-48,6,64,-66,-70,-53,-62,-67
-61,-10,50,35,-54,18,64,-66,-70,-53,-62,-73
-67,-10,56,41,-60,24,64,-66,-76,-53,-68,-73
-73,-10,62,41,-66,24,64,-72,-76,-53,-62,-67
-73,-4,68,35,-72,30,64,-72,-76,-47,-62,-61
-73,-10,62,41,-66,24,64,-72,-76,-47,-68,-55
-67,-16,50,41,-60,18,64,-66,-76,-47,-62,-55
-67,-22,44,46,-54,12,70,-66,-70,-53,-62,-55
-73,-22,50,46,-60,12,64,-66,-70,-53,-68,-55
-73,-16,56,41,-66,18,64,-66,-70,-59,-68,-55
-73,-10,62,41,-66,24,70,-66,-70,-59,-62,-61
-67,-10,56,41,-60,24,70,-66,-70,-53,-56,-61
-73,-10,62,41,-66,24,70,-66,-70,-59,-56,-61
-73,-10,62,41,-66,24,64,-66,-76,-59,-62,-61
-73,-10,62,41,-66,24,64,-72,-76,-65,-62,-61
-67,-10,56,41,-60,24,58,-78,-76,-65,-56,-61
-67,-10,56,41,-60,24,58,-78,-82,-65,-56,-61
-61,-10,50,35,-54,18,58,-78,-82,-65,-56,-61
-61,-10,50,35,-54,18,52,-78,-82,-65,-56,-61
-67,-16,50,41,-60,18,46,-78,-88,-65,-56,-61
-73,-16,56,41,-66,18,46,-78,-88,-65,-62,-61
-73,-16,56,41,-66,18,46,-66,-94,-65,-62,-55
-73,-16,56,41,-66,18,52,-66,-94,-65,-56,-49
-67,-22,44,46,-54,12,52,-66,-94,-59,-56,-49
-67,-16,50,41,-60,18,58,-66,-88,-59,-56,-49
-61,-16,44,35,-54,12,58,-66,-88,-59,-56,-49
-55,-16,38,35,-48,12,58,-66,-88,-53,-62,-49
-55,-10,44,35,-48,18,58,-66,-82,-53,-62,-49
-61,2,62,29,-60,30,58,-60,-76,-53,-62,-49
-67,8,74,29,-72,42,58,-60,-76,-53,-62,-49
-73,8,80,29,-78,42,58,-60,-82,-59,-62,-43
-67,8,74,29,-72,42,58,-60,-82,-59,-62,-49
-73,8,80,29,-78,42,58,-66,-82,-65,-62,-49
-73,2,74,35,-72,36,58,-66,-88,-71,-62,-49
-79,-10,68,46,-72,30,64,-66,-82,-65,-62,-49
-79,-16,62,46,-72,24,70,-66,-82,-65,-56,-43
-73,-10,62,41,-66,24,64,-66,-82,-65,-56,-49
-61,-10,50,35,-54,18,64,-72,-88,-71,-62,-49
-61,-4,56,29,-60,24,58,-72,-82,-71,-56,-49
-61,-10,50,35,-54,18,58,-66,-82,-71,-56,-49
-55,-10,44,35,-48,18,58,-72,-82,-71,-56,-49
-61,-4,56,29,-60,24,58,-72,-82,-71,-56,-49
-67,-4,62,35,-66,30,52,-72,-88,-71,-50,-55
-67,-10,56,41,-60,24,52,-66,-88,-71,-50,-55
-61,-10,50,35,-54,18,58,-66,-82,-71,-50,-55
-61,-10,50,35,-54,18,58,-72,-82,-71,-50,-55
-61,-10,50,35,-54,18,58,-66,-76,-59,-50,-49
-79,-10,68,46,-72,30,64,-60,-70,-59,-50,-49
-79,-10,68,46,-72,30,64,-60,-76,-59,-56,-49
-79,-4,74,41,-78,36,70,-66,-76,-65,-62,-49
-79,2,80,41,-78,42,58,-66,-82,-71,-68,-55
-73,14,86,29,-78,48,58,-72,-88,-71,-68,-55
-67,8,74,29,-72,42,52,-72,-82,-71,-68,-61
-67,8,74,29,-72,42,46,-72,-82,-71,-62,-67
-67,8,74,29,-72,42,46,-72,-88,-77,-62,-73
-67,14,80,29,-72,48,40,-78,-94,-77,-62,-73
-61,14,74,23,-66,42,46,-78,-100,-77,-62,-67
-61,8,68,23,-66,36,52,-78,-94,-71,-62,-67
-55,8,62,23,-60,36,58,-78,-94,-71,-62,-67
-61,8,68,23,-66,36,52,-78,-94,-71,-68,-67
-61,2,62,29,-60,30,52,-78,-94,-71,-74,-67
-61,-4,56,29,-60,24,52,-78,-88,-71,-74,-73
-55,-4,50,29,-54,24,52,-78,-88,-77,-80,-73
-55,-10,44,35,-48,18,52,-78,-82,-71,-74,-73
-61,-4,56,29,-60,24,52,-72,-82,-71,-68,-73
-61,-4,56,29,-60,24,52,-78,-82,-71,-68,-73
-55,2,56,29,-54,30,52,-78,-82,-71,-68,-73
-55,2,56,29,-54,30,52,-78,-88,-71,-68,-73
-61,-4,56,29,-60,24,58,-78,-88,-71,-68,-73
-61,2,62,29,-60,30,58,-72,-82,-71,-68,-67
-61,2,62,29,-60,30,58,-72,-82,-71,-68,-67
-67,2,68,35,-66,36,52,-72,-82,-71,-68,-67
-61,8,68,23,-66,36,52,-72,-82,-71,-74,-67
-67,2,68,35,-66,36,46,-66,-82,-71,-74,-67
-67,2,68,35,-66,36,46,-72,-82,-65,-74,-67
-67,-4,62,35,-66,30,46,-72,-82,-71,-74,-73
-79,2,80,41,-78,42,40,-78,-94,-77,-74,-73
-79,-4,74,41,-78,36,40,-84,-94,-77,-74,-73
-85,-10,74,46,-78,30,40,-84,-94,-77,-74,-73
-85,-10,74,46,-78,30,46,-84,-94,-77,-74,-73
-85,-10,74,46,-78,30,46,-84,-94,-77,-74,-73
-85,-10,74,46,-78,30,52,-84,-94,-77,-68,-73
-79,-16,62,46,-72,24,52,-78,-88,-71,-68,-67
-73,-16,56,41,-66,18,52,-72,-88,-65,-68,-67
-73,-10,62,41,-66,24,52,-72,-88,-65,-68,-67
-73,2,74,35,-72,36,58,-66,-88,-59,-62,-67
-73,-4,68,35,-72,30,52,-66,-82,-59,-62,-61
-79,-4,74,41,-78,36,52,-66,-82,-59,-62,-61
-79,-4,74,41,-78,36,58,-66,-82,-59,-62,-61
-79,2,80,41,-78,42,64,-66,-88,-65,-62,-61
-73,8,80,29,-78,42,64,-66,-88,-65,-62,-61
-67,2,68,35,-66,36,64,-66,-88,-71,-62,-67
-67,-10,56,41,-60,24,58,-66,-88,-71,-62,-67
-61,-10,50,35,-54,18,58,-66,-82,-65,-56,-67
-55,-10,44,35,-48,18,52,-66,-82,-65,-56,-67
-55,-4,50,29,-54,24,46,-72,-82,-65,-56,-67
-61,-4,56,29,-60,24,46,-72,-88,-59,-56,-67
-67,-4,62,35,-66,30,52,-66,-82,-59,-56,-67
-73,-4,68,35,-72,30,52,-66,-82,-53,-62,-67
-79,-10,68,46,-72,30,52,-66,-88,-53,-62,-67
-73,-10,62,41,-66,24,52,-60,-88,-59,-62,-61
-73,-16,56,41,-66,18,52,-60,-88,-59,-62,-61
-73,-22,50,46,-60,12,58,-60,-94,-59,-56,-61
-67,-16,50,41,-60,18,52,-60,-94,-59,-62,-61
-67,-10,56,41,-60,24,52,-66,-94,-65,-62,-67
-67,-10,56,41,-60,24,52,-66,-82,-65,-56,-61
-73,-10,62,41,-66,24,58,-66,-76,-59,-56,-61
-73,-4,68,35,-72,30,58,-60,-76,-59,-50,-55
-73,-4,68,35,-72,30,52,-60,-76,-59,-44,-55
-67,2,68,35,-66,36,58,-60,-76,-53,-44,-55
-61,14,74,23,-66,42,58,-54,-76,-53,-44,-55
-61,20,80,17,-72,48,64,-48,-70,-47,-44,-49
-61,20,80,17,-72,48,64,-48,-64,-41,-38,-49
-55,32,86,11,-72,60,70,-42,-64,-41,-38,-43
-55,32,86,11,-72,60,88,-36,-64,-35,-32,-37
-55,44,98,5,-78,72,88,-30,-64,-41,-32,-37
-43,62,104,-7,-72,84,94,-24,-58,-35,-26,-31
-43,74,116,-13,-78,96,100,-18,-46,-29,-26,-19
-49,86,134,-19,-90,108,106,-12,-46,-23,-14,-19
-49,86,134,-19,-90,108,106,-6,-40,-17,-8,-13
-49,92,140,-25,-96,114,112,-6,-40,-11,-8,-13
-43,98,140,-25,-90,120,112,-6,-40,-11,-2,-13
-37,92,128,-31,-84,108,112,-12,-34,-11,-2,-7
-32,98,128,-31,-78,114,112,-12,-34,-11,4,-7
-32,104,134,-37,-84,120,118,-6,-28,-11,4,-1
-27,104,128,-37,-78,120,118,-6,-28,-5,4,-1
-27,104,128,-37,-78,120,112,-12,-28,-5,-2,-1
-21,104,122,-43,-72,114,106,-6,-28,-5,-2,-1
-15,116,128,-49,-72,126,94,-6,-22,1,-2,-1
-3,116,116,-55,-60,120,82,-6,-16,7,-2,-1
3,116,110,-61,-54,114,64,-6,-10,13,10,5
15,116,98,-67,-42,108,52,0,-4,13,10,11
21,122,98,-67,-36,114,40,0,-4,13,10,11
15,116,98,-67,-42,108,34,0,-4,13,16,17
15,104,86,-61,-36,96,34,0,-4,13,22,23
21,86,62,-49,-18,78,28,6,-4,13,22,23
21,74,50,-43,-12,66,28,6,-4,13,22,17
15,68,50,-43,-18,60,23,0,-10,7,16,11
15,56,38,-37,-12,48,28,-12,-16,1,4,5
9,44,32,-25,-12,42,28,-12,-16,1,-2,5
3,38,32,-19,-12,36,34,-18,-22,-5,-8,-1
3,38,32,-19,-12,36,40,-18,-28,-17,-14,-7
3,38,32,-19,-12,36,40,-18,-34,-23,-26,-13
-3,20,20,-7,-12,24,52,-12,-34,-29,-26,-19
-9,14,20,-1,-12,18,64,-6,-34,-23,-26,-19
-21,2,20,11,-18,12,82,-6,-40,-23,-26,-19
-27,-4,20,17,-24,12,106,0,-40,-23,-32,-25
-32,2,32,17,-30,18,124,12,-28,-17,-32,-25
-32,2,32,17,-30,18,124,24,-16,-11,-26,-25
-32,2,32,17,-30,18,106,29,2,-5,-20,-25
-21,14,32,5,-24,24,82,46,14,7,-8,-19
-15,20,32,-1,-24,30,58,58,32,13,-2,-13
-15,26,38,-1,-24,36,34,70,44,25,10,-7
-9,32,38,-13,-24,36,23,82,55,37,16,5
3,50,44,-25,-18,48,-6,100,66,55,34,17
15,62,44,-37,-12,54,-42,106,78,65,39,23
33,68,32,-49,-1,54,-72,130,90,77,50,28
57,86,26,-67,16,60,-108,148,114,95,56,39
69,98,26,-79,22,66,-132,178,138,113,68,45
75,104,26,-91,22,66,-144,214,168,125,86,57
75,116,38,-97,16,78,-150,244,192,137,98,63
81,128,44,-103,16,90,-162,268,216,149,110,69
93,146,50,-115,22,102,-186,286,234,167,122,81
111,152,38,-133,34,96,-204,292,246,179,134,87
135,158,20,-145,58,90,-234,286,234,179,134,93
159,158,-4,-157,82,78,-270,274,222,179,134,99
195,146,-50,-169,124,48,-300,262,216,173,134,99
231,140,-92,-187,160,24,-336,244,198,161,128,99
261,122,-140,-187,202,-6,-396,190,156,137,116,105
297,104,-194,-199,244,-42,-474,124,108,107,104,105
327,86,-242,-205,286,-76,-564,58,72,83,104,105
363,68,-296,-217,328,-112,-654,12,44,71,98,111
399,56,-344,-229,370,-142,-738,-36,26,65,98,117
447,50,-398,-247,424,-172,-816,-78,8,60,104,135
501,38,-464,-265,484,-208,-894,-114,-10,55,110,159
549,38,-512,-289,532,-232,-960,-150,-34,49,116,183
603,50,-554,-325,580,-250,-1026,-198,-64,37,116,201
651,44,-608,-349,628,-280,-1086,-246,-88,19,116,213
681,44,-638,-361,658,-292,-1128,-312,-130,1,116,231
711,44,-668,-379,688,-310,-1176,-378,-166,-17,110,243
741,44,-698,-391,718,-322,-1224,-450,-208,-41,104,255
777,44,-734,-409,754,-340,-1266,-528,-262,-77,86,255
819,32,-788,-427,802,-376,-1314,-612,-328,-131,50,249
867,8,-860,-439,862,-424,-1362,-678,-394,-179,28,243
939,-16,-956,-463,946,-484,-1428,-750,-460,-227,4,249
1041,-22,-1064,-505,1054,-538,-1512,-822,-520,-269,-8,267
1161,-16,-1178,-571,1168,-592,-1602,-894,-574,-287,4,303
1287,8,-1280,-649,1282,-634,-1692,-966,-610,-287,34,363
1395,32,-1364,-715,1378,-664,-1752,-990,-604,-269,80,447
1479,74,-1406,-775,1444,-664,-1782,-990,-574,-227,158,549
1533,140,-1394,-835,1462,-622,-1794,-990,-556,-185,242,669
1563,200,-1364,-883,1462,-580,-1788,-990,-550,-161,308,777
1563,248,-1316,-907,1438,-532,-1776,-984,-556,-149,356,867
1545,296,-1250,-919,1396,-472,-1734,-978,-568,-149,392,939
1497,344,-1154,-919,1324,-400,-1668,-966,-586,-143,416,999
1413,398,-1016,-901,1216,-304,-1572,-942,-586,-131,440,1041
1311,440,-872,-877,1090,-214,-1458,-906,-580,-119,446,1059
1179,476,-704,-829,940,-112,-1320,-876,-574,-113,440,1047
1029,494,-536,-757,784,-18,-1170,-858,-592,-131,398,999
885,494,-392,-685,640,54,-1038,-846,-604,-173,332,903
759,464,-296,-613,526,84,-918,-804,-604,-203,248,789
639,398,-242,-517,442,78,-804,-738,-574,-227,164,645
531,314,-218,-421,376,48,-690,-654,-526,-239,86,489
435,242,-194,-337,316,24,-570,-558,-460,-221,39,357
345,182,-164,-259,256,12,-456,-456,-394,-197,4,255
255,134,-122,-193,190,6,-342,-366,-328,-179,-20,183
183,92,-92,-139,136,0,-234,-282,-262,-155,-32,129
123,50,-74,-85,100,-12,-138,-210,-208,-131,-38,87
63,26,-38,-43,52,-6,-66,-162,-160,-119,-44,57
15,2,-16,-7,16,-6,-18,-120,-136,-101,-50,28
-21,-22,-4,23,-6,-12,6,-96,-118,-89,-56,5
-43,-34,8,41,-24,-12,18,-72,-100,-83,-56,-13
-61,-34,26,46,-42,-6,18,-60,-88,-71,-56,-31
-79,-40,38,57,-60,0,23,-42,-76,-59,-56,-43
-79,-46,32,63,-54,-6,40,-30,-64,-53,-50,-49
-79,-52,26,63,-54,-12,64,-18,-58,-53,-56,-61
-97,-63,32,75,-66,-18,94,-6,-52,-59,-62,-67
-109,-63,44,81,-78,-12,112,0,-52,-59,-62,-67
-115,-68,44,87,-84,-12,124,0,-52,-59,-68,-73
-127,-74,50,99,-90,-12,130,0,-52,-59,-74,-79
-133,-74,56,99,-96,-12,136,6,-40,-59,-74,-85
-139,-80,56,105,-102,-12,136,12,-34,-53,-74,-85
-139,-74,62,105,-102,-6,136,12,-28,-47,-74,-85
-139,-74,62,105,-102,-6,136,24,-22,-41,-68,-85
-145,-74,68,105,-108,-6,136,29,-22,-35,-68,-85
-151,-80,68,111,-114,-6,142,29,-22,-35,-74,-91
-151,-80,68,111,-114,-6,142,29,-16,-41,-80,-91
-151,-80,68,111,-114,-6,148,34,-16,-41,-86,-91
-151,-80,68,111,-114,-6,148,29,-16,-41,-86,-91
-151,-74,74,111,-114,0,148,29,-22,-41,-86,-97
-151,-74,74,111,-114,0,154,34,-16,-35,-80,-91
-151,-74,74,111,-114,0,154,40,-16,-35,-80,-91
-145,-80,62,105,-108,-12,160,40,-10,-29,-80,-91
-151,-92,56,117,-108,-18,160,46,-4,-35,-80,-91
-151,-86,62,117,-108,-12,160,46,-4,-35,-80,-97
-151,-80,68,111,-114,-6,166,52,2,-29,-74,-97
-145,-86,56,111,-102,-18,178,58,8,-29,-74,-97
-139,-92,44,111,-96,-24,184,64,14,-29,-74,-97
-133,-86,44,105,-90,-24,184,64,14,-23,-68,-103
-133,-80,50,99,-96,-18,184,64,14,-23,-68,-103
-133,-74,56,99,-96,-12,184,64,14,-29,-68,-103
-133,-74,56,99,-96,-12,178,64,14,-23,-74,-109
-139,-74,62,105,-102,-6,178,64,14,-23,-74,-109
-133,-80,50,99,-96,-18,178,70,14,-17,-74,-103
-133,-80,50,99,-96,-18,184,76,20,-11,-74,-103
-127,-80,44,99,-90,-18,190,88,26,-11,-68,-103
-133,-74,56,99,-96,-12,190,88,26,-11,-68,-103
-133,-68,62,93,-102,-6,190,88,32,-11,-56,-103
-133,-74,56,99,-96,-12,190,88,32,-17,-56,-103
-139,-92,44,111,-96,-24,190,88,38,-17,-56,-103
-145,-98,44,117,-96,-30,196,94,44,-17,-50,-103
-145,-92,50,111,-102,-24,196,100,50,-17,-50,-103
-151,-74,74,111,-114,0,196,100,50,-11,-44,-103
-151,-74,74,111,-114,0,196,106,50,-11,-44,-97
-145,-74,68,105,-108,-6,202,112,55,-5,-38,-91
-139,-74,62,105,-102,-6,202,118,55,1,-38,-91
-139,-80,56,105,-102,-12,196,118,55,1,-38,-91
-133,-80,50,99,-96,-18,196,118,60,1,-38,-91
-133,-86,44,105,-90,-24,196,124,66,7,-38,-91
-127,-86,38,105,-84,-24,190,130,72,7,-32,-91
-127,-80,44,99,-90,-18,196,130,78,13,-26,-85
-133,-80,50,99,-96,-18,196,136,84,13,-26,-85
-133,-86,44,105,-90,-24,196,136,84,25,-26,-85
-133,-80,50,99,-96,-18,196,142,84,19,-26,-85
-133,-74,56,99,-96,-12,196,136,84,25,-26,-85
-139,-63,74,99,-108,6,202,142,90,31,-20,-79
-133,-63,68,93,-102,0,202,148,96,37,-20,-73
-133,-58,74,93,-102,6,202,154,102,43,-20,-73
-133,-46,86,87,-108,18,196,160,108,43,-20,-73
-139,-40,98,87,-120,30,196,160,114,49,-14,-73
-127,-34,92,81,-108,30,196,166,120,55,-8,-67
-121,-28,92,69,-108,30,196,172,126,55,-8,-67
-115,-22,92,69,-102,36,196,178,132,60,4,-61
-115,-22,92,69,-102,36,202,184,138,65,4,-67
-121,-22,98,69,-108,36,202,184,138,65,4,-67
-121,-22,98,69,-108,36,196,190,138,65,4,-67
-127,-22,104,75,-114,42,196,196,144,71,4,-61
-127,-22,104,75,-114,42,196,202,144,71,10,-61
-127,-22,104,75,-114,42,196,208,150,77,10,-55
-115,-16,98,63,-108,42,196,214,156,77,10,-55
-109,-16,92,57,-102,36,202,220,162,83,10,-49
-103,-16,86,57,-96,36,202,226,168,89,16,-43
-97,-10,86,51,-90,36,202,232,174,95,28,-31
-97,-10,86,51,-90,36,202,238,174,101,28,-25
-97,-4,92,46,-96,42,202,238,180,107,34,-19
-97,2,98,46,-96,48,208,250,186,107,39,-19
-97,8,104,41,-102,54,208,256,192,107,44,-19
-97,8,104,41,-102,54,208,262,192,107,44,-13
-91,14,104,41,-96,60,214,268,198,113,50,-13
-85,14,98,35,-90,54,214,280,198,119,50,-13
-79,14,92,35,-84,54,208,292,204,125,50,-13
-79,20,98,29,-90,60,202,292,210,125,50,-19
-67,26,92,23,-78,60,208,298,216,125,56,-13
-67,38,104,17,-84,72,208,298,222,131,56,-13
-67,38,104,17,-84,72,208,304,228,131,56,-7
-67,44,110,11,-90,78,208,310,240,137,62,-7
-67,50,116,11,-90,84,208,322,246,143,74,-1
-67,56,122,5,-96,90,208,334,252,149,80,5
-67,56,122,5,-96,90,208,346,258,155,86,5
-67,62,128,5,-96,96,208,352,264,161,92,11
-61,62,122,-1,-90,90,208,358,264,161,92,11
-61,74,134,-7,-96,102,208,364,270,161,98,17
-61,86,146,-13,-102,114,208,364,276,167,98,23
-67,86,152,-7,-108,120,202,364,282,173,104,23
-67,92,158,-13,-114,126,202,364,288,179,98,23
-61,98,158,-19,-108,126,196,364,288,185,104,28
-55,98,152,-19,-102,126,196,370,294,197,110,33
-49,104,152,-31,-102,126,196,370,294,197,116,33
-43,116,158,-37,-102,138,196,370,300,203,122,45
-43,116,158,-37,-102,138,202,376,312,209,134,51
-43,116,158,-37,-102,138,202,382,324,215,146,63
-43,128,170,-43,-108,150,202,388,330,221,152,69
-37,134,170,-49,-102,150,196,394,330,221,152,75
-32,140,170,-55,-102,156,190,400,330,227,152,81
-32,152,182,-61,-108,168,184,400,330,227,158,87
-27,158,182,-61,-102,174,184,406,330,233,158,93
-21,164,182,-73,-102,174,178,400,330,239,158,99
-21,170,188,-73,-102,180,172,400,330,239,158,99
-15,182,194,-79,-102,192,172,400,330,239,158,99
-15,188,200,-85,-108,198,166,400,330,239,158,99
-15,194,206,-85,-108,204,160,400,330,239,158,105
-9,200,206,-97,-108,204,160,394,330,245,164,111
-15,206,218,-91,-114,216,154,394,330,251,170,117
-9,212,218,-103,-114,216,154,394,330,251,176,129
-3,206,206,-97,-102,210,154,394,330,257,182,135
-3,206,206,-97,-102,210,148,388,330,257,188,141
-3,212,212,-103,-108,216,142,382,330,257,194,141
-3,212,212,-103,-108,216,142,376,324,257,194,147
3,218,212,-109,-102,216,136,376,324,263,194,153
9,224,212,-115,-102,222,130,370,318,263,200,153
9,224,212,-115,-102,222,124,358,312,257,194,153
15,224,206,-121,-96,216,118,352,306,251,200,153
15,230,212,-121,-96,222,112,346,300,245,194,153
15,236,218,-127,-102,228,106,334,294,239,194,147
27,230,200,-127,-84,216,100,328,288,239,194,147
27,230,200,-127,-84,216,88,316,282,233,188,147
39,236,194,-139,-78,216,82,310,276,227,188,147
45,242,194,-139,-72,222,76,298,276,227,188,147
45,248,200,-145,-78,228,64,292,264,221,188,141
51,242,188,-145,-66,216,64,280,264,221,182,141
51,242,188,-145,-66,216,52,274,252,215,182,141
51,242,188,-145,-66,216,46,262,246,209,176,147
57,242,182,-145,-60,216,40,256,240,203,176,147
63,236,170,-151,-54,204,34,244,234,197,176,147
63,236,170,-151,-54,204,23,238,222,191,170,141
69,230,158,-145,-42,198,23,220,216,179,164,135
75,224,146,-151,-36,186,18,208,210,173,164,135
69,224,152,-145,-42,192,12,196,198,167,158,129
69,218,146,-139,-36,186,6,184,186,161,152,123
63,212,146,-139,-42,180,-6,166,180,149,140,117
63,206,140,-133,-36,174,-12,154,162,137,134,111
63,200,134,-133,-36,168,-24,148,156,131,122,111
69,200,128,-133,-30,168,-30,136,138,119,122,105
69,200,128,-133,-30,168,-36,118,132,107,116,99
63,194,128,-127,-30,162,-36,106,126,101,110,93
63,194,128,-127,-30,162,-42,94,114,89,104,87
63,194,128,-127,-30,162,-42,76,102,89,98,81
63,188,122,-127,-30,156,-36,70,96,83,98,75
57,182,122,-115,-30,156,-30,64,84,83,86,69
51,170,116,-109,-30,144,-30,52,72,77,74,63
51,158,104,-103,-24,132,-30,52,60,71,68,57
57,146,86,-97,-12,120,-30,46,55,71,62,57
57,134,74,-91,-6,108,-24,40,55,65,56,51
51,128,74,-91,-12,102,-30,29,44,55,44,39
45,128,80,-85,-18,108,-30,24,38,43,39,28
33,116,80,-73,-24,102,-30,12,26,31,28,23
21,104,80,-61,-30,96,-24,0,20,25,28,17
3,92,86,-49,-42,90,-18,-6,14,25,22,5
-3,86,86,-37,-42,90,-18,-6,2,19,10,-1
-9,92,98,-43,-54,96,-18,-18,-16,7,-2,-13
-9,92,98,-43,-54,96,-18,-30,-28,-5,-14,-19
-15,80,92,-31,-54,90,-12,-36,-28,-11,-26,-19
-21,68,86,-25,-54,78,-12,-42,-34,-17,-32,-19
-15,56,68,-19,-42,66,-6,-48,-40,-23,-38,-25
-21,44,62,-13,-42,54,-12,-54,-46,-29,-44,-31
-32,38,68,-1,-48,54,-12,-60,-52,-35,-44,-37
-32,44,74,-7,-54,60,-12,-66,-64,-35,-50,-49
-32,32,62,-1,-48,48,-12,-66,-64,-41,-56,-49
-37,26,62,5,-48,42,-6,-66,-64,-41,-62,-55
-37,20,56,5,-48,36,-6,-66,-64,-41,-62,-61
-37,26,62,5,-48,42,0,-66,-64,-47,-68,-61
-37,26,62,5,-48,42,0,-72,-70,-53,-74,-67
-43,26,68,11,-54,48,0,-72,-76,-59,-80,-67
-43,20,62,11,-54,42,6,-78,-76,-65,-80,-73
-49,14,62,17,-54,36,12,-78,-76,-65,-80,-73
-49,14,62,17,-54,36,12,-78,-70,-65,-80,-79
-55,14,68,23,-60,42,18,-78,-76,-65,-86,-85
-55,8,62,23,-60,36,18,-84,-76,-65,-86,-85
-49,8,56,17,-54,30,12,-84,-76,-65,-92,-85
-49,-4,44,23,-48,18,12,-84,-82,-65,-98,-85
-49,-10,38,29,-42,12,18,-78,-82,-65,-92,-79
-55,-16,38,35,-48,12,18,-72,-82,-65,-86,-73
-55,-16,38,35,-48,12,23,-72,-76,-65,-80,-73
-61,-22,38,41,-48,6,23,-66,-76,-65,-80,-67
-55,-22,32,41,-42,6,23,-66,-76,-65,-80,-67
-55,-22,32,41,-42,6,23,-66,-76,-65,-80,-67
-61,-22,38,41,-48,6,28,-72,-76,-65,-86,-67
-55,-22,32,41,-42,6,28,-72,-70,-65,-86,-67
-55,-22,32,41,-42,6,28,-66,-70,-65,-86,-67
-55,-28,26,41,-42,0,28,-60,-70,-65,-86,-67
-49,-28,20,35,-36,-6,28,-60,-64,-65,-86,-67
-49,-28,20,35,-36,-6,28,-60,-64,-65,-80,-67
-49,-22,26,35,-36,0,28,-54,-58,-59,-74,-67
-49,-28,20,35,-36,-6,34,-48,-52,-59,-74,-67
-49,-28,20,35,-36,-6,34,-48,-52,-59,-74,-67
-49,-22,26,35,-36,0,34,-54,-52,-59,-74,-67
-55,-22,32,41,-42,6,40,-48,-52,-59,-74,-67
-55,-16,38,35,-48,12,46,-48,-46,-53,-68,-61
-49,-4,44,23,-48,18,52,-42,-46,-47,-68,-55
-49,-10,38,29,-42,12,52,-42,-40,-41,-68,-55
-55,-10,44,35,-48,18,58,-36,-40,-41,-68,-55
-55,-16,38,35,-48,12,58,-30,-34,-35,-62,-55
-55,-16,38,35,-48,12,58,-30,-34,-35,-62,-55
-55,-10,44,35,-48,18,58,-30,-28,-35,-56,-55
-55,-10,44,35,-48,18,58,-30,-22,-35,-56,-49
-55,-10,44,35,-48,18,58,-30,-16,-35,-56,-49
-55,-16,38,35,-48,12,52,-30,-16,-35,-50,-49
-55,-22,32,41,-42,6,58,-30,-10,-29,-44,-43
-61,-22,38,41,-48,6,64,-24,-10,-23,-38,-43
-61,-22,38,41,-48,6,64,-24,-10,-23,-38,-37
-55,-28,26,41,-42,0,64,-24,-16,-23,-38,-43
-55,-22,32,41,-42,6,70,-24,-22,-17,-38,-43
-61,-22,38,41,-48,6,64,-24,-22,-17,-44,-49
-67,-28,38,46,-54,6,64,-18,-16,-17,-44,-49
-67,-28,38,46,-54,6,64,-18,-16,-17,-50,-49
-73,-28,44,46,-60,6,64,-18,-10,-17,-44,-43
-73,-28,44,46,-60,6,58,-12,-10,-17,-44,-43
-73,-28,44,46,-60,6,64,-12,-10,-17,-44,-49
-79,-28,50,51,-66,12,64,-12,-10,-17,-44,-49
-85,-28,56,51,-72,12,64,-12,-10,-17,-44,-49
-79,-34,44,57,-60,6,64,-12,-16,-17,-44,-55
-79,-28,50,51,-66,12,64,-12,-22,-11,-44,-55
-79,-22,56,51,-66,18,64,-6,-16,-5,-38,-55
-79,-34,44,57,-60,6,70,0,-10,1,-38,-55
-73,-40,32,51,-54,-6,70,0,-10,1,-32,-49
-73,-40,32,51,-54,-6,64,0,-10,-5,-38,-49
-73,-34,38,51,-54,0,64,-6,-10,-11,-38,-55
-73,-34,38,51,-54,0,64,-12,-10,-11,-38,-55
-73,-34,38,51,-54,0,70,-12,-4,-11,-38,-55
-73,-34,38,51,-54,0,76,-12,2,-11,-32,-49
-73,-40,32,51,-54,-6,82,-6,2,-5,-32,-49
-73,-40,32,51,-54,-6,88,-6,2,-5,-32,-49
-73,-28,44,46,-60,6,88,-6,-4,-5,-32,-55
-73,-22,50,46,-60,12,88,-6,-4,-5,-32,-55
-73,-22,50,46,-60,12,82,-6,-4,-5,-32,-55
-73,-22,50,46,-60,12,76,-12,-10,-11,-32,-55
-79,-28,50,51,-66,12,76,-12,-4,-11,-38,-55
-85,-34,50,57,-66,6,76,-12,-4,-11,-38,-61
-79,-34,44,57,-60,6,82,-12,-4,-11,-44,-61
-73,-34,38,51,-54,0,82,-6,-4,-11,-44,-61
-79,-28,50,51,-66,12,88,-6,-4,-5,-38,-55
-73,-28,44,46,-60,6,88,-6,-4,-5,-38,-55
-79,-28,50,51,-66,12,82,-12,-10,-11,-38,-55
-79,-34,44,57,-60,6,82,-18,-10,-17,-38,-55
-79,-34,44,57,-60,6,82,-12,-10,-11,-32,-49
-73,-28,44,46,-60,6,82,-12,-10,-11,-32,-49
-73,-28,44,46,-60,6,82,-12,-16,-17,-32,-49
-73,-34,38,51,-54,0,82,-12,-16,-17,-32,-49
-73,-34,38,51,-54,0,82,-12,-16,-17,-38,-49
-73,-34,38,51,-54,0,82,-12,-16,-17,-38,-49
-73,-28,44,46,-60,6,82,-18,-16,-23,-38,-55
-79,-34,44,57,-60,6,82,-18,-16,-23,-44,-55
-79,-40,38,57,-60,0,88,-24,-16,-23,-44,-55
-79,-40,38,57,-60,0,88,-30,-22,-29,-44,-55
-73,-46,26,57,-48,-12,88,-30,-22,-23,-50,-61
-73,-46,26,57,-48,-12,82,-30,-22,-29,-50,-61
-73,-52,20,57,-48,-18,82,-30,-28,-35,-56,-67
-73,-46,26,57,-48,-12,82,-30,-28,-35,-56,-67
-73,-46,26,57,-48,-12,82,-30,-28,-35,-56,-61
-73,-46,26,57,-48,-12,88,-30,-28,-35,-56,-61
-67,-46,20,57,-42,-12,88,-30,-28,-35,-56,-61
-73,-46,26,57,-48,-12,88,-30,-28,-35,-56,-61
-73,-40,32,51,-54,-6,88,-36,-34,-35,-56,-61
-79,-40,38,57,-60,0,88,-36,-34,-35,-56,-61
-79,-40,38,57,-60,0,88,-42,-40,-35,-56,-61
-73,-40,32,51,-54,-6,82,-42,-46,-35,-62,-67
-73,-40,32,51,-54,-6,82,-48,-46,-41,-62,-67
-73,-46,26,57,-48,-12,82,-48,-52,-41,-62,-67
-73,-52,20,57,-48,-18,76,-48,-52,-41,-62,-67
-73,-46,26,57,-48,-12,76,-48,-52,-47,-62,-67
-79,-46,32,63,-54,-6,76,-48,-46,-47,-62,-67
-79,-52,26,63,-54,-12,70,-48,-46,-47,-62,-67
-79,-58,20,69,-48,-18,64,-48,-52,-47,-62,-67
-79,-58,20,69,-48,-18,64,-54,-52,-47,-56,-67
-79,-58,20,69,-48,-18,58,-54,-58,-53,-56,-67
-79,-58,20,69,-48,-18,52,-54,-58,-53,-56,-67
-85,-52,32,63,-60,-12,52,-54,-64,-59,-62,-67
-85,-46,38,63,-60,-6,58,-54,-64,-59,-62,-67
-73,-46,26,57,-48,-12,70,-54,-64,-53,-56,-61
-67,-52,14,57,-42,-18,70,-54,-64,-53,-56,-61
-61,-52,8,51,-36,-24,70,-54,-64,-53,-62,-61
-61,-52,8,51,-36,-24,70,-54,-70,-53,-62,-61
-61,-52,8,51,-36,-24,70,-60,-64,-47,-62,-61
-61,-58,2,57,-30,-30,70,-54,-64,-47,-62,-61
-67,-52,14,57,-42,-18,76,-54,-64,-53,-62,-55
-73,-52,20,57,-48,-18,70,-54,-70,-53,-68,-55
-73,-58,14,63,-42,-24,70,-54,-70,-53,-68,-61
-79,-58,20,69,-48,-18,70,-54,-64,-53,-68,-61
-79,-58,20,69,-48,-18,64,-54,-64,-47,-68,-61
-79,-63,14,69,-48,-24,64,-54,-64,-53,-68,-67
-85,-63,20,69,-54,-24,64,-54,-70,-53,-62,-67
-85,-63,20,69,-54,-24,64,-54,-76,-59,-68,-67
-79,-58,20,69,-48,-18,64,-60,-76,-59,-74,-67
-79,-68,8,69,-48,-30,70,-54,-76,-59,-68,-67
-85,-74,8,75,-48,-36,70,-54,-76,-59,-68,-67
-91,-80,8,81,-54,-36,70,-54,-76,-59,-68,-73
-85,-74,8,75,-48,-36,64,-54,-76,-59,-68,-73
-85,-68,14,69,-54,-30,70,-60,-76,-59,-74,-73
-85,-63,20,69,-54,-24,70,-60,-76,-59,-74,-73
-85,-63,20,69,-54,-24,70,-60,-76,-65,-74,-73
-85,-58,26,69,-54,-18,70,-66,-76,-71,-74,-73
-79,-52,26,63,-54,-12,70,-66,-76,-71,-74,-73
-79,-46,32,63,-54,-6,70,-66,-76,-65,-68,-73
-79,-52,26,63,-54,-12,70,-60,-70,-65,-62,-73
-73,-52,20,57,-48,-18,70,-60,-70,-59,-62,-73
-73,-40,32,51,-54,-6,70,-60,-70,-59,-62,-73
-73,-40,32,51,-54,-6,70,-54,-70,-59,-62,-67
-73,-40,32,51,-54,-6,70,-54,-70,-53,-62,-67
-73,-52,20,57,-48,-18,76,-54,-70,-53,-68,-67
-79,-63,14,69,-48,-24,76,-60,-64,-59,-68,-67
-79,-63,14,69,-48,-24,82,-60,-64,-59,-68,-67
-79,-63,14,69,-48,-24,82,-60,-64,-59,-62,-67
-73,-63,8,63,-42,-30,76,-66,-64,-65,-68,-73
-73,-52,20,57,-48,-18,76,-66,-64,-65,-68,-73
-73,-52,20,57,-48,-18,70,-66,-70,-65,-68,-73
-73,-58,14,63,-42,-24,70,-66,-70,-59,-68,-73
-73,-58,14,63,-42,-24,70,-66,-70,-59,-68,-67
-73,-58,14,63,-42,-24,70,-66,-76,-59,-68,-67
-73,-46,26,57,-48,-12,64,-66,-76,-65,-74,-67
-73,-40,32,51,-54,-6,64,-66,-76,-71,-80,-73
-73,-46,26,57,-48,-12,64,-72,-82,-71,-80,-73
-73,-58,14,63,-42,-24,64,-72,-76,-65,-74,-67
-73,-63,8,63,-42,-30,64,-66,-76,-59,-74,-67
-79,-63,14,69,-48,-24,64,-72,-82,-59,-74,-67
-79,-63,14,69,-48,-24,64,-72,-82,-59,-74,-73
-73,-63,8,63,-42,-30,64,-72,-76,-53,-68,-79
-73,-63,8,63,-42,-30,70,-72,-64,-53,-68,-73
-73,-63,8,63,-42,-30,76,-72,-64,-53,-68,-73
-73,-63,8,63,-42,-30,76,-72,-58,-53,-74,-73
-79,-63,14,69,-48,-24,82,-72,-58,-59,-74,-73
-85,-68,14,69,-54,-30,82,-72,-58,-65,-80,-73
-85,-68,14,69,-54,-30,82,-78,-64,-65,-80,-73
-85,-63,20,69,-54,-24,76,-72,-64,-65,-74,-73
-91,-63,26,75,-60,-18,70,-72,-64,-65,-74,-73
-91,-63,26,75,-60,-18,70,-72,-70,-59,-74,-73
-97,-68,26,75,-66,-24,64,-66,-70,-59,-74,-73
-91,-74,14,81,-54,-30,70,-66,-76,-59,-74,-73
-91,-68,20,75,-60,-24,70,-66,-70,-59,-74,-73
-85,-68,14,69,-54,-30,70,-66,-70,-59,-80,-73
-73,-63,8,63,-42,-30,70,-66,-70,-65,-80,-73
-73,-68,2,63,-42,-36,70,-66,-70,-65,-80,-73
-73,-68,2,63,-42,-36,70,-66,-64,-65,-80,-73
-79,-68,8,69,-48,-30,70,-60,-58,-59,-68,-73
-79,-63,14,69,-48,-24,70,-60,-58,-59,-68,-73
-79,-63,14,69,-48,-24,64,-66,-58,-59,-68,-79
-85,-63,20,69,-54,-24,64,-66,-52,-59,-68,-79
-91,-63,26,75,-60,-18,64,-66,-52,-59,-68,-73
-91,-63,26,75,-60,-18,58,-72,-52,-59,-74,-73
-91,-63,26,75,-60,-18,58,-72,-46,-59,-74,-73
-91,-63,26,75,-60,-18,58,-66,-46,-59,-74,-73
-91,-63,26,75,-60,-18,58,-66,-52,-65,-74,-73
-85,-68,14,69,-54,-30,64,-66,-52,-65,-68,-73
-85,-63,20,69,-54,-24,64,-60,-52,-65,-68,-73
-85,-58,26,69,-54,-18,64,-66,-52,-71,-68,-79
-91,-63,26,75,-60,-18,70,-66,-58,-71,-68,-79
-91,-68,20,75,-60,-24,70,-66,-58,-71,-68,-73
-97,-74,20,81,-60,-30,70,-72,-64,-71,-74,-73
-97,-68,26,75,-66,-24,64,-72,-64,-77,-74,-79
-91,-68,20,75,-60,-24,64,-72,-64,-71,-74,-79
-91,-68,20,75,-60,-24,64,-72,-58,-65,-74,-79
-91,-74,14,81,-54,-30,64,-72,-52,-71,-74,-79
-79,-63,14,69,-48,-24,58,-78,-52,-77,-74,-79
-73,-63,8,63,-42,-30,58,-78,-52,-77,-80,-79
-73,-68,2,63,-42,-36,58,-72,-52,-71,-80,-79
-73,-68,2,63,-42,-36,58,-78,-58,-71,-80,-73
-79,-74,2,75,-42,-36,58,-78,-58,-65,-80,-73
-79,-68,8,69,-48,-30,52,-78,-64,-65,-80,-67
-91,-74,14,81,-54,-30,52,-84,-64,-71,-86,-73
-97,-80,14,81,-60,-36,52,-84,-70,-77,-86,-73
-91,-74,14,81,-54,-30,58,-78,-70,-77,-86,-73
-91,-74,14,81,-54,-30,64,-78,-64,-77,-86,-73
-91,-80,8,81,-54,-36,70,-72,-64,-77,-86,-73
-85,-74,8,75,-48,-36,70,-72,-64,-71,-80,-67
-85,-68,14,69,-54,-30,70,-72,-58,-65,-80,-67
-85,-63,20,69,-54,-24,76,-72,-58,-65,-80,-67
-85,-63,20,69,-54,-24,70,-72,-58,-59,-74,-67
-85,-68,14,69,-54,-30,76,-78,-58,-59,-74,-67
-85,-68,14,69,-54,-30,76,-78,-52,-59,-74,-67
-91,-68,20,75,-60,-24,76,-78,-58,-59,-80,-67
-97,-68,26,75,-66,-24,76,-78,-58,-65,-80,-73
-91,-68,20,75,-60,-24,76,-78,-52,-65,-80,-73
-91,-68,20,75,-60,-24,82,-78,-52,-59,-74,-67
-91,-74,14,81,-54,-30,76,-72,-52,-65,-68,-67
-91,-74,14,81,-54,-30,76,-72,-46,-59,-68,-67
-85,-74,8,75,-48,-36,82,-72,-46,-47,-68,-67
-79,-74,2,75,-42,-36,82,-72,-46,-47,-68,-67
-73,-68,2,63,-42,-36,76,-72,-46,-47,-74,-61
-73,-68,2,63,-42,-36,76,-78,-46,-53,-74,-67
-73,-68,2,63,-42,-36,70,-78,-52,-59,-80,-67
-73,-68,2,63,-42,-36,70,-72,-52,-59,-74,-73
-79,-68,8,69,-48,-30,70,-66,-52,-59,-74,-73
-79,-68,8,69,-48,-30,70,-66,-52,-59,-68,-67
-79,-68,8,69,-48,-30,76,-66,-58,-59,-68,-67
-73,-68,2,63,-42,-36,76,-66,-64,-65,-74,-67
-73,-68,2,63,-42,-36,76,-72,-64,-65,-80,-73
-73,-74,-4,69,-36,-42,76,-60,-58,-53,-74,-67
-73,-80,-10,69,-36,-47,88,-60,-58,-53,-74,-61
-79,-86,-10,81,-36,-47,82,-60,-52,-53,-74,-67
-73,-74,-4,69,-36,-42,82,-66,-58,-53,-74,-67
-73,-74,-4,69,-36,-42,82,-66,-58,-59,-74,-67
-79,-74,2,75,-42,-36,82,-72,-52,-53,-68,-67
-79,-68,8,69,-48,-30,82,-66,-52,-53,-68,-61
-79,-68,8,69,-48,-30,82,-72,-52,-59,-68,-67
-79,-74,2,75,-42,-36,82,-72,-52,-59,-68,-67
-79,-80,-4,75,-42,-42,82,-72,-52,-59,-68,-67
-73,-80,-10,69,-36,-47,82,-72,-52,-59,-74,-67
-73,-80,-10,69,-36,-47,82,-72,-52,-59,-74,-73
-85,-80,2,75,-48,-42,82,-72,-52,-59,-74,-73
-85,-80,2,75,-48,-42,82,-72,-52,-65,-74,-73
-91,-80,8,81,-54,-36,76,-72,-58,-59,-74,-73
-91,-74,14,81,-54,-30,76,-78,-58,-65,-80,-73
-91,-74,14,81,-54,-30,76,-72,-58,-59,-74,-73
-91,-80,8,81,-54,-36,76,-72,-58,-59,-74,-73
-85,-80,2,75,-48,-42,76,-72,-58,-59,-80,-73
-85,-86,-4,81,-42,-47,76,-72,-58,-59,-74,-73
-85,-86,-4,81,-42,-47,70,-72,-52,-59,-74,-73
-91,-92,-4,87,-48,-47,70,-72,-46,-53,-74,-73
-91,-92,-4,87,-48,-47,70,-72,-52,-53,-74,-73
-97,-86,8,87,-54,-42,70,-72,-52,-59,-74,-79
-91,-86,2,87,-48,-42,70,-72,-58,-65,-80,-79
-91,-80,8,81,-54,-36,76,-72,-52,-65,-74,-73
-91,-74,14,81,-54,-30,76,-66,-52,-65,-68,-67
-85,-74,8,75,-48,-36,76,-66,-46,-59,-62,-67
-73,-74,-4,69,-36,-42,76,-60,-46,-59,-62,-67
-67,-74,-10,69,-30,-42,76,-60,-40,-53,-56,-61
-61,-68,-10,57,-30,-42,82,-54,-40,-53,-56,-61
-55,-63,-10,57,-24,-36,82,-48,-40,-47,-56,-55
-49,-58,-10,51,-18,-36,88,-48,-34,-41,-56,-49
-55,-52,2,51,-30,-24,94,-48,-28,-41,-50,-49
-61,-46,14,51,-36,-18,100,-36,-28,-35,-50,-43
-61,-46,14,51,-36,-18,106,-30,-22,-35,-44,-37
-67,-40,26,51,-48,-6,118,-24,-16,-29,-38,-37
-67,-28,38,46,-54,6,124,-24,-10,-23,-32,-31
-67,-22,44,46,-54,12,130,-18,-4,-17,-26,-31
-67,-16,50,41,-60,18,130,-24,-4,-11,-26,-31
-67,-10,56,41,-60,24,130,-18,-4,-11,-26,-25
-61,-4,56,29,-60,24,136,-18,2,1,-26,-19
-55,-10,44,35,-48,18,136,-12,2,7,-26,-13
-49,-4,44,23,-48,18,130,-18,8,7,-26,-13
-49,2,50,23,-48,24,130,-18,14,7,-20,-13
-37,8,44,11,-42,24,124,-12,20,7,-14,-13
-32,14,44,11,-36,30,118,-6,26,7,-8,-7
-27,14,38,11,-30,30,106,-6,26,13,-2,-1
-32,14,44,11,-36,30,94,-6,26,13,4,-1
-27,20,44,5,-36,36,88,-6,32,13,10,5
-27,20,44,5,-36,36,82,0,38,25,16,11
-21,20,38,-1,-30,30,76,6,38,25,16,11
-21,14,32,5,-24,24,70,6,38,25,16,11
-15,14,26,5,-18,24,64,6,38,25,16,11
-15,2,14,11,-12,12,52,0,38,25,10,11
-9,-10,-4,11,-1,-6,46,0,38,25,10,5
-3,-22,-22,17,10,-18,40,0,32,19,4,-1
-9,-28,-22,17,4,-24,40,-6,32,13,-2,-1
-9,-28,-22,17,4,-24,46,-12,26,7,-8,-1
-15,-28,-16,23,-1,-18,52,-12,20,1,-8,-7
-15,-28,-16,23,-1,-18,64,-18,20,1,-8,-7
-15,-34,-22,29,4,-24,82,-12,20,1,-8,-7
-21,-40,-22,29,-1,-30,94,-12,26,1,-8,-7
-27,-46,-22,41,-1,-30,106,-12,20,-5,-20,-13
-32,-58,-28,46,-1,-42,130,-6,14,-11,-26,-25
-32,-58,-28,46,-1,-42,148,6,14,-11,-26,-31
-37,-52,-16,41,-12,-36,166,18,20,-11,-26,-37
-43,-52,-10,46,-18,-30,160,24,32,1,-14,-31
-37,-52,-16,41,-12,-36,130,29,38,1,-14,-31
-32,-46,-16,41,-6,-30,100,29,44,7,-14,-31
-27,-40,-16,35,-6,-24,70,34,55,19,-8,-31
-21,-28,-10,23,-6,-18,46,40,60,25,-2,-19
-21,-28,-10,23,-6,-18,23,58,72,37,10,-13
-9,-28,-22,17,4,-24,6,76,84,49,16,-7
9,-22,-33,11,22,-24,-36,88,96,55,28,5
15,-10,-28,-1,22,-18,-78,100,108,60,34,11
39,2,-38,-19,40,-18,-120,118,126,71,44,23
57,20,-38,-37,46,-6,-138,148,150,95,62,28
69,38,-33,-49,52,6,-150,166,174,119,74,39
81,56,-28,-67,52,18,-162,184,186,131,86,45
93,74,-22,-79,58,30,-174,202,204,149,92,51
105,86,-22,-91,64,36,-192,214,216,155,98,51
111,86,-28,-97,70,30,-216,220,228,167,104,57
129,80,-50,-103,88,18,-246,226,228,167,110,63
147,80,-68,-115,106,6,-282,220,216,155,110,69
171,80,-92,-127,130,-6,-324,220,210,149,110,69
201,68,-134,-133,166,-30,-366,208,198,137,104,69
219,38,-182,-127,202,-70,-414,178,162,119,98,69
243,14,-230,-127,238,-106,-480,124,120,95,86,69
279,-4,-284,-139,280,-142,-540,76,90,77,86,75
315,-22,-338,-145,328,-178,-606,29,66,65,86,81
357,-46,-404,-151,382,-220,-678,-12,50,65,98,99
405,-52,-458,-175,430,-250,-756,-42,32,71,110,123
453,-52,-506,-199,478,-274,-846,-84,8,65,116,147
507,-52,-560,-229,532,-304,-936,-132,-10,60,122,165
555,-52,-608,-253,580,-328,-1020,-180,-34,55,116,183
591,-63,-656,-265,622,-358,-1086,-228,-58,37,122,201
627,-68,-698,-283,658,-382,-1140,-282,-88,19,116,207
657,-80,-740,-289,694,-406,-1176,-336,-124,-5,110,213
681,-92,-776,-295,724,-430,-1212,-396,-166,-29,98,219
711,-98,-812,-307,760,-454,-1248,-462,-220,-71,80,219
753,-98,-854,-325,802,-472,-1272,-522,-274,-113,56,213
801,-110,-914,-343,856,-508,-1308,-576,-328,-155,34,213
873,-128,-1004,-373,934,-562,-1374,-642,-382,-191,16,219
963,-140,-1106,-415,1030,-622,-1458,-708,-424,-209,16,243
1071,-122,-1196,-475,1132,-658,-1566,-786,-466,-221,39,297
1185,-92,-1280,-547,1228,-682,-1674,-858,-490,-209,92,381
1287,-52,-1340,-619,1312,-694,-1746,-906,-502,-197,164,483
1347,8,-1340,-679,1342,-664,-1770,-918,-496,-155,248,609
1389,80,-1310,-733,1348,-610,-1764,-930,-502,-125,332,741
1401,140,-1262,-769,1330,-556,-1740,-930,-508,-101,392,855
1395,182,-1214,-787,1306,-514,-1704,-930,-520,-95,428,933
1347,224,-1124,-787,1234,-448,-1656,-936,-544,-95,440,981
1275,272,-1004,-775,1138,-364,-1578,-930,-556,-95,446,1011
1191,302,-890,-745,1042,-292,-1482,-906,-544,-95,446,1011
1089,338,-752,-709,922,-202,-1362,-870,-532,-95,434,987
981,356,-626,-667,802,-130,-1224,-846,-538,-125,392,945
849,368,-482,-607,664,-52,-1080,-834,-562,-173,326,867
729,344,-386,-535,556,-18,-936,-804,-574,-221,236,759
615,296,-320,-457,466,-12,-804,-762,-562,-257,146,633
507,230,-278,-367,394,-24,-684,-690,-532,-275,56,477
411,164,-248,-289,328,-42,-576,-606,-478,-269,-2,339
315,110,-206,-211,262,-47,-462,-510,-412,-239,-32,237
237,74,-164,-151,202,-42,-360,-414,-334,-203,-50,153
177,50,-128,-109,154,-36,-264,-324,-256,-173,-62,93
123,14,-110,-67,118,-47,-162,-240,-184,-143,-62,51
75,-16,-92,-31,82,-52,-84,-174,-130,-119,-68,28
39,-40,-80,-1,58,-58,-24,-132,-88,-101,-62,11
3,-58,-62,29,34,-58,18,-108,-64,-89,-62,-7
-21,-63,-44,41,10,-52,34,-90,-52,-77,-50,-19
-43,-68,-28,51,-12,-47,46,-78,-46,-65,-44,-31
-55,-74,-22,63,-18,-47,52,-72,-40,-65,-44,-43
-67,-74,-10,69,-30,-42,58,-60,-34,-59,-50,-55
-73,-74,-4,69,-36,-42,76,-48,-22,-47,-50,-67
-85,-86,-4,81,-42,-47,94,-30,-16,-47,-56,-73
-85,-86,-4,81,-42,-47,106,-18,-16,-47,-68,-85
-91,-98,-10,93,-42,-52,118,-12,-10,-53,-74,-97
-103,-98,2,99,-54,-47,124,-6,-10,-53,-86,-103
-115,-104,8,105,-66,-47,136,0,-4,-47,-80,-109
-115,-104,8,105,-66,-47,142,6,-4,-47,-80,-109
-121,-98,20,105,-72,-42,148,0,2,-47,-80,-109
-127,-92,32,105,-84,-30,148,0,8,-41,-86,-109
-127,-92,32,105,-84,-30,154,6,8,-41,-86,-115
-121,-86,32,99,-78,-30,160,6,14,-41,-86,-115
-115,-86,26,99,-72,-30,166,12,14,-41,-86,-115
-115,-86,26,99,-72,-30,166,18,20,-35,-86,-121
-121,-92,26,99,-78,-36,172,24,26,-29,-80,-115
-121,-92,26,99,-78,-36,172,24,26,-29,-80,-121
-121,-98,20,105,-72,-42,172,24,26,-29,-74,-121
-127,-98,26,111,-78,-36,172,29,26,-23,-74,-115
-133,-86,44,105,-90,-24,172,29,32,-23,-68,-115
-133,-86,44,105,-90,-24,178,29,32,-23,-68,-115
-133,-86,44,105,-90,-24,178,34,32,-23,-68,-115
-127,-86,38,105,-84,-24,178,34,38,-23,-68,-115
-127,-86,38,105,-84,-24,178,40,38,-23,-68,-121
-133,-86,44,105,-90,-24,178,46,38,-23,-68,-121
-139,-86,50,111,-96,-18,172,52,38,-17,-68,-127
-139,-86,50,111,-96,-18,172,52,44,-17,-68,-127
-133,-86,44,105,-90,-24,172,52,44,-17,-62,-127
-127,-86,38,105,-84,-24,172,52,50,-17,-68,-127
-127,-86,38,105,-84,-24,178,52,50,-17,-68,-127
-121,-86,32,99,-78,-30,178,52,55,-11,-68,-127
-121,-86,32,99,-78,-30,184,52,55,-17,-68,-127
-121,-92,26,99,-78,-36,184,58,50,-17,-68,-133
-121,-86,32,99,-78,-30,178,58,50,-17,-74,-139
-121,-80,38,93,-84,-24,178,58,50,-17,-68,-139
-121,-80,38,93,-84,-24,178,64,55,-17,-68,-139
-127,-80,44,99,-90,-18,178,70,60,-17,-62,-133
-127,-74,50,99,-90,-12,178,76,60,-17,-62,-133
-127,-74,50,99,-90,-12,178,76,60,-17,-62,-133
-127,-80,44,99,-90,-18,178,88,66,-11,-56,-133
