,,,,,,,,,,,
2019-09-04 23:51:04,,,,,,,,,,,
,,,,,,,,,,,
I,II,III,aVR,aVL,aVF,V1,V2,V3,V4,V5,V6
-102,-97,3,93,-57,-50,-25,-170,-169,-159,-118,-151
-108,-103,3,105,-57,-50,-31,-176,-175,-165,-118,-151
-108,-103,3,105,-57,-50,-37,-188,-187,-171,-124,-157
-108,-109,-3,105,-57,-56,-43,-194,-193,-183,-136,-163
-114,-115,-3,111,-57,-62,-43,-206,-211,-189,-148,-175
-108,-115,-9,111,-51,-62,-49,-212,-223,-195,-160,-187
-114,-115,-3,111,-57,-62,-55,-218,-229,-201,-166,-193
-120,-121,-3,117,-63,-62,-55,-224,-235,-213,-172,-193
-126,-121,3,117,-69,-62,-49,-230,-241,-219,-178,-193
-126,-121,3,117,-69,-62,-55,-230,-241,-219,-172,-193
-120,-127,-9,123,-57,-68,-49,-230,-235,-213,-178,-187
-120,-133,-15,123,-57,-74,-43,-224,-235,-213,-178,-187
-114,-133,-21,117,-51,-80,-43,-224,-235,-213,-178,-181
-108,-139,-33,123,-39,-86,-43,-218,-235,-213,-178,-181
-114,-145,-33,123,-45,-91,-37,-218,-235,-213,-178,-181
-114,-145,-33,123,-45,-91,-37,-218,-241,-219,-178,-181
-114,-133,-21,117,-51,-80,-37,-224,-241,-219,-178,-181
-114,-121,-9,111,-57,-68,-37,-224,-241,-213,-178,-187
-120,-121,-3,117,-63,-62,-37,-218,-241,-213,-178,-187
-126,-115,9,117,-69,-56,-43,-218,-235,-219,-178,-187
-126,-115,9,117,-69,-56,-43,-218,-235,-219,-178,-187
-126,-121,3,117,-69,-62,-43,-218,-229,-207,-178,-181
-138,-127,9,129,-75,-62,-43,-218,-229,-213,-172,-175
-144,-133,9,135,-81,-62,-49,-218,-235,-219,-172,-175
-144,-133,9,135,-81,-62,-43,-218,-241,-225,-178,-175
-138,-127,9,129,-75,-62,-43,-218,-241,-231,-172,-175
-132,-121,9,123,-75,-56,-43,-218,-241,-225,-172,-175
-132,-121,9,123,-75,-56,-43,-218,-241,-225,-172,-175
-132,-121,9,123,-75,-56,-43,-218,-241,-225,-172,-175
-132,-121,9,123,-75,-56,-43,-218,-235,-225,-172,-169
-126,-121,3,117,-69,-62,-43,-224,-235,-225,-166,-169
-126,-121,3,117,-69,-62,-49,-224,-235,-231,-172,-169
-132,-115,15,123,-75,-50,-49,-224,-235,-231,-172,-175
-126,-103,21,111,-75,-44,-49,-224,-235,-225,-172,-175
-126,-103,21,111,-75,-44,-49,-224,-235,-225,-166,-175
-126,-109,15,111,-75,-50,-49,-224,-235,-225,-160,-175
-126,-109,15,111,-75,-50,-49,-224,-235,-219,-154,-169
-126,-109,15,111,-75,-50,-49,-230,-235,-219,-148,-169
-132,-115,15,123,-75,-50,-49,-230,-235,-219,-148,-175
-138,-115,21,123,-81,-50,-49,-236,-235,-225,-154,-175
-144,-115,27,129,-87,-44,-49,-236,-241,-237,-154,-175
-144,-109,33,123,-93,-38,-55,-242,-241,-237,-160,-175
-138,-109,27,117,-87,-44,-55,-242,-241,-237,-160,-175
-138,-115,21,123,-81,-50,-61,-236,-241,-237,-166,-175
-138,-109,27,117,-87,-44,-61,-236,-241,-237,-172,-181
-138,-103,33,117,-87,-38,-61,-242,-241,-243,-178,-187
-138,-109,27,117,-87,-44,-67,-242,-241,-249,-172,-193
-144,-109,33,123,-93,-38,-67,-242,-247,-249,-166,-193
-144,-109,33,123,-93,-38,-67,-248,-247,-249,-166,-193
-150,-115,33,129,-93,-44,-67,-254,-247,-249,-160,-187
-150,-115,33,129,-93,-44,-67,-254,-253,-249,-160,-187
-150,-109,39,123,-99,-38,-61,-254,-253,-249,-160,-187
-138,-109,27,117,-87,-44,-55,-248,-253,-249,-160,-187
-138,-109,27,117,-87,-44,-61,-248,-259,-249,-154,-187
-138,-109,27,117,-87,-44,-61,-248,-259,-249,-160,-187
-138,-103,33,117,-87,-38,-67,-248,-265,-249,-160,-187
-132,-103,27,117,-81,-38,-67,-254,-265,-249,-166,-193
-132,-103,27,117,-81,-38,-67,-254,-265,-249,-172,-193
-132,-103,27,117,-81,-38,-67,-254,-271,-249,-178,-187
-126,-103,21,111,-75,-44,-67,-260,-271,-249,-172,-187
-126,-103,21,111,-75,-44,-67,-260,-271,-249,-172,-181
-126,-103,21,111,-75,-44,-67,-266,-271,-249,-166,-175
-126,-103,21,111,-75,-44,-73,-272,-271,-249,-166,-175
-132,-109,21,117,-81,-44,-79,-272,-271,-255,-166,-187
-132,-109,21,117,-81,-44,-73,-272,-271,-255,-166,-187
-132,-109,21,117,-81,-44,-73,-272,-271,-255,-166,-193
-138,-109,27,117,-87,-44,-79,-272,-271,-261,-166,-193
-138,-109,27,117,-87,-44,-79,-278,-277,-261,-166,-193
-138,-109,27,117,-87,-44,-73,-284,-283,-261,-172,-199
-144,-109,33,123,-93,-38,-73,-284,-289,-267,-178,-199
-144,-109,33,123,-93,-38,-73,-284,-289,-267,-184,-205
-138,-115,21,123,-81,-50,-79,-284,-295,-273,-184,-205
-138,-109,27,117,-87,-44,-85,-284,-295,-273,-178,-211
-138,-109,27,117,-87,-44,-91,-284,-301,-273,-184,-217
-138,-115,21,123,-81,-50,-91,-284,-295,-273,-184,-217
-132,-115,15,123,-75,-50,-91,-284,-295,-273,-184,-217
-132,-115,15,123,-75,-50,-91,-284,-295,-267,-190,-223
-132,-121,9,123,-75,-56,-91,-284,-295,-267,-196,-229
-126,-121,3,117,-69,-62,-85,-284,-295,-273,-190,-223
-126,-121,3,117,-69,-62,-79,-284,-295,-273,-190,-223
-126,-121,3,117,-69,-62,-79,-278,-295,-273,-190,-217
-132,-121,9,123,-75,-56,-79,-278,-295,-279,-202,-217
-132,-121,9,123,-75,-56,-79,-278,-301,-279,-202,-217
-132,-121,9,123,-75,-56,-85,-284,-313,-285,-208,-217
-126,-127,-3,123,-63,-68,-91,-284,-313,-285,-214,-223
-126,-127,-3,123,-63,-68,-91,-290,-313,-291,-208,-223
-120,-121,-3,117,-63,-62,-91,-290,-313,-285,-202,-217
-120,-121,-3,117,-63,-62,-91,-290,-319,-285,-196,-217
-120,-115,3,117,-63,-56,-97,-290,-319,-279,-196,-217
-126,-121,3,117,-69,-62,-97,-290,-319,-285,-196,-217
-132,-121,9,123,-75,-56,-97,-290,-319,-285,-196,-211
-138,-121,15,123,-81,-56,-103,-290,-319,-285,-196,-211
-138,-121,15,123,-81,-56,-103,-290,-319,-279,-196,-205
-144,-127,15,135,-81,-56,-103,-290,-319,-285,-196,-205
-138,-133,3,129,-75,-68,-91,-290,-319,-285,-202,-205
-132,-133,-3,129,-69,-68,-91,-290,-325,-285,-202,-205
-138,-139,-3,135,-69,-74,-91,-296,-319,-285,-196,-211
-132,-139,-9,135,-63,-74,-91,-296,-325,-291,-202,-211
-132,-139,-9,135,-63,-74,-91,-302,-325,-297,-202,-217
-132,-139,-9,135,-63,-74,-91,-302,-325,-303,-208,-217
-132,-133,-3,129,-69,-68,-97,-302,-325,-303,-208,-217
-126,-133,-9,123,-63,-74,-103,-302,-325,-309,-208,-223
-132,-133,-3,129,-69,-68,-103,-302,-331,-315,-220,-223
-132,-133,-3,129,-69,-68,-115,-308,-331,-315,-220,-223
-138,-133,3,129,-75,-68,-115,-314,-337,-315,-220,-217
-138,-127,9,129,-75,-62,-109,-308,-337,-315,-220,-217
-138,-127,9,129,-75,-62,-109,-308,-337,-315,-220,-223
-144,-127,15,135,-81,-56,-103,-308,-343,-321,-214,-223
-144,-133,9,135,-81,-62,-103,-308,-337,-315,-214,-217
-144,-133,9,135,-81,-62,-109,-302,-337,-309,-208,-217
-144,-139,3,141,-75,-68,-109,-302,-337,-309,-202,-217
-144,-139,3,141,-75,-68,-103,-302,-337,-309,-202,-211
-144,-139,3,141,-75,-68,-103,-308,-331,-303,-202,-211
-138,-139,-3,135,-69,-74,-103,-308,-331,-303,-202,-211
-138,-139,-3,135,-69,-74,-103,-308,-331,-303,-202,-211
-132,-133,-3,129,-69,-68,-103,-314,-337,-309,-208,-217
-126,-133,-9,123,-63,-74,-109,-320,-337,-315,-214,-223
-132,-133,-3,129,-69,-68,-109,-314,-337,-321,-226,-229
-132,-133,-3,129,-69,-68,-109,-314,-343,-327,-226,-235
-132,-133,-3,129,-69,-68,-109,-314,-343,-327,-226,-235
-138,-133,3,129,-75,-68,-109,-308,-343,-327,-226,-235
-138,-133,3,129,-75,-68,-103,-308,-337,-327,-226,-235
-132,-127,3,129,-69,-62,-103,-308,-337,-315,-226,-229
-138,-127,9,129,-75,-62,-109,-308,-337,-309,-220,-223
-138,-133,3,129,-75,-68,-109,-314,-337,-309,-214,-217
-132,-127,3,129,-69,-62,-109,-308,-331,-303,-208,-211
-132,-121,9,123,-75,-56,-109,-308,-331,-309,-208,-211
-132,-127,3,129,-69,-62,-109,-308,-325,-315,-202,-217
-132,-133,-3,129,-69,-68,-115,-308,-325,-321,-202,-223
-132,-133,-3,129,-69,-68,-109,-308,-331,-327,-208,-217
-132,-127,3,129,-69,-62,-109,-302,-331,-327,-208,-217
-132,-127,3,129,-69,-62,-109,-302,-331,-321,-208,-217
-126,-121,3,117,-69,-62,-109,-296,-331,-321,-208,-223
-120,-115,3,117,-63,-56,-103,-296,-331,-321,-208,-223
-120,-103,15,111,-69,-44,-97,-290,-331,-321,-208,-223
-126,-103,21,111,-75,-44,-91,-290,-325,-321,-208,-229
-132,-91,39,111,-87,-26,-91,-284,-319,-309,-202,-223
-126,-73,51,93,-93,-14,-85,-278,-307,-297,-184,-211
-120,-63,57,93,-87,-2,-85,-272,-295,-285,-178,-205
-102,-33,69,63,-87,16,-79,-266,-283,-273,-166,-193
-102,-21,81,57,-93,28,-79,-260,-277,-261,-160,-181
-90,-9,81,45,-87,34,-79,-254,-265,-255,-154,-175
-90,-3,87,45,-87,40,-73,-254,-259,-249,-148,-169
-90,3,93,39,-93,46,-73,-254,-259,-243,-148,-163
-90,3,93,39,-93,46,-73,-254,-259,-249,-148,-163
-84,9,93,39,-87,52,-73,-254,-259,-249,-142,-169
-84,9,93,39,-87,52,-73,-254,-259,-255,-142,-169
-78,15,93,27,-87,52,-73,-254,-265,-261,-148,-175
-72,15,87,27,-81,52,-67,-248,-259,-261,-148,-181
-60,15,75,21,-69,46,-67,-248,-253,-255,-148,-175
-54,15,69,15,-63,40,-67,-242,-247,-243,-142,-169
-42,27,69,5,-57,46,-67,-242,-235,-231,-142,-163
-24,39,63,-7,-45,52,-85,-242,-229,-219,-130,-151
-18,51,69,-19,-45,58,-103,-242,-229,-213,-124,-145
-12,51,63,-19,-39,58,-115,-236,-229,-207,-112,-139
-12,51,63,-19,-39,58,-121,-236,-235,-213,-106,-139
-12,51,63,-19,-39,58,-133,-242,-241,-213,-106,-139
-12,51,63,-19,-39,58,-139,-248,-247,-213,-112,-127
-18,45,63,-13,-39,52,-139,-254,-247,-213,-112,-127
-18,39,57,-13,-39,46,-145,-266,-259,-225,-118,-133
-18,33,51,-7,-33,40,-151,-272,-271,-231,-130,-139
-18,21,39,-1,-27,28,-151,-278,-283,-237,-136,-145
-18,3,21,5,-21,10,-151,-284,-289,-243,-142,-151
-18,-15,3,15,-9,-8,-151,-278,-295,-243,-142,-151
-18,-27,-9,21,-3,-20,-145,-272,-295,-237,-142,-151
-18,-33,-15,21,-3,-26,-139,-272,-295,-243,-142,-151
-24,-45,-21,33,-3,-32,-139,-272,-295,-243,-142,-151
-30,-51,-21,39,-3,-38,-139,-272,-295,-249,-148,-157
-36,-51,-15,45,-9,-32,-133,-272,-295,-255,-154,-163
-42,-51,-9,45,-15,-32,-139,-278,-295,-255,-154,-163
-42,-57,-15,45,-15,-38,-139,-278,-295,-261,-154,-163
-42,-63,-21,51,-9,-44,-139,-284,-301,-267,-160,-163
-48,-68,-21,57,-15,-44,-139,-290,-313,-279,-166,-163
-54,-79,-27,63,-15,-56,-145,-296,-319,-291,-178,-169
-66,-91,-27,75,-21,-62,-145,-302,-331,-303,-184,-175
-72,-91,-21,81,-27,-56,-139,-302,-337,-303,-184,-181
-84,-91,-9,87,-39,-50,-145,-302,-337,-303,-190,-187
-96,-103,-9,99,-45,-56,-139,-302,-343,-309,-196,-187
-108,-109,-3,105,-57,-56,-133,-296,-337,-309,-196,-193
-114,-115,-3,111,-57,-62,-133,-290,-331,-303,-196,-193
-126,-121,3,117,-69,-62,-133,-290,-325,-303,-196,-199
-126,-121,3,117,-69,-62,-121,-284,-319,-303,-202,-205
-126,-127,-3,123,-63,-68,-115,-278,-313,-297,-202,-211
-126,-133,-9,123,-63,-74,-103,-266,-307,-291,-196,-205
-120,-133,-15,123,-57,-74,-85,-254,-289,-279,-184,-193
-120,-133,-15,123,-57,-74,-79,-236,-271,-261,-166,-181
-114,-133,-21,117,-51,-80,-73,-218,-253,-249,-154,-163
-102,-127,-27,111,-39,-80,-67,-206,-241,-231,-142,-151
-90,-121,-33,99,-33,-80,-61,-188,-223,-213,-124,-133
-84,-127,-45,105,-21,-86,-49,-170,-205,-183,-106,-115
-78,-121,-45,93,-21,-86,-37,-152,-181,-159,-88,-97
-72,-115,-45,93,-15,-80,-25,-128,-157,-135,-70,-79
-66,-109,-45,81,-15,-80,-13,-110,-133,-117,-58,-61
-60,-103,-45,81,-9,-74,-1,-92,-115,-99,-40,-55
-48,-97,-51,69,-3,-74,11,-74,-91,-87,-34,-49
-36,-97,-63,63,9,-80,11,-62,-85,-75,-22,-37
-24,-91,-69,57,21,-80,11,-50,-67,-63,-4,-25
-6,-97,-93,45,39,-96,17,-26,-55,-45,14,-8
18,-103,-121,39,69,-114,17,-2,-37,-21,32,9
36,-103,-139,33,85,-120,23,22,-19,3,49,33
52,-115,-169,33,109,-138,35,40,5,20,60,51
76,-115,-193,21,133,-150,46,52,22,43,72,75
100,-121,-223,10,157,-168,46,62,45,67,96,99
124,-115,-241,-1,181,-174,63,92,75,97,120,123
142,-103,-247,-19,193,-174,87,134,117,133,150,153
148,-97,-247,-25,193,-168,135,206,183,175,186,177
154,-91,-247,-31,199,-168,219,320,279,217,216,195
166,-91,-259,-37,211,-174,321,470,399,265,234,213
208,-103,-313,-49,259,-204,435,662,549,325,270,243
274,-91,-367,-91,319,-228,549,878,735,427,330,303
346,-85,-433,-133,385,-258,669,1130,951,571,420,381
442,-79,-523,-181,481,-300,813,1436,1215,745,546,489
544,-73,-619,-235,577,-342,963,1790,1527,973,708,639
664,-68,-733,-295,697,-396,1125,2168,1863,1249,912,831
796,-57,-853,-367,823,-450,1263,2503,2181,1561,1158,1065
934,-27,-961,-451,949,-492,1347,2731,2439,1897,1434,1329
1066,21,-1045,-541,1057,-510,1335,2761,2570,2215,1722,1617
1198,99,-1099,-649,1147,-498,1239,2677,2624,2532,2022,1917
1330,213,-1117,-769,1225,-450,1095,2557,2666,2874,2352,2229
1444,321,-1123,-877,1285,-396,939,2426,2702,3222,2681,2546
1522,417,-1105,-967,1315,-342,795,2300,2738,3558,2993,2834
1528,507,-1021,-1015,1273,-252,687,2126,2744,3852,3275,3068
1450,573,-877,-1009,1165,-150,615,1898,2696,4020,3443,3212
1312,591,-721,-949,1015,-62,591,1676,2582,4032,3473,3224
1150,531,-619,-841,883,-44,567,1460,2397,3882,3335,3098
964,441,-523,-697,745,-38,567,1238,2139,3588,3071,2864
736,327,-409,-529,571,-38,567,992,1815,3150,2693,2516
478,189,-289,-331,385,-50,591,746,1431,2586,2220,2061
208,33,-175,-115,193,-68,621,494,999,1933,1674,1539
-48,-103,-57,75,3,-80,639,236,567,1237,1122,999
-252,-205,45,225,-153,-80,645,34,225,667,660,543
-378,-277,99,321,-243,-91,603,-128,-13,271,324,213
-450,-313,135,375,-297,-91,513,-266,-193,9,96,-3
-486,-361,123,417,-309,-120,417,-386,-331,-165,-58,-145
-516,-409,105,459,-315,-150,309,-494,-445,-291,-178,-247
-516,-451,63,483,-291,-192,195,-572,-541,-381,-268,-307
-492,-487,3,489,-249,-240,63,-632,-607,-441,-328,-337
-456,-493,-39,471,-213,-264,-61,-668,-655,-483,-364,-355
-426,-481,-57,447,-189,-270,-163,-680,-679,-513,-388,-373
-402,-445,-45,417,-183,-246,-217,-656,-679,-525,-400,-379
-378,-409,-33,387,-177,-222,-229,-620,-655,-531,-400,-385
-360,-373,-15,363,-177,-192,-217,-572,-631,-537,-412,-391
-342,-337,3,333,-177,-168,-199,-536,-595,-537,-406,-391
-318,-301,15,303,-171,-144,-169,-488,-547,-519,-394,-373
-294,-265,27,273,-165,-120,-133,-434,-487,-483,-370,-349
-270,-235,33,249,-153,-102,-109,-374,-433,-447,-334,-325
-252,-205,45,225,-153,-80,-91,-332,-385,-417,-310,-295
-234,-181,51,201,-147,-68,-79,-284,-349,-393,-298,-289
-222,-163,57,189,-141,-56,-61,-254,-325,-387,-298,-289
-222,-151,69,183,-147,-44,-55,-230,-319,-387,-298,-283
-222,-139,81,177,-153,-32,-49,-224,-313,-387,-304,-289
-216,-133,81,171,-153,-26,-49,-218,-319,-393,-304,-295
-216,-133,81,171,-153,-26,-49,-224,-319,-393,-304,-295
-216,-145,69,177,-147,-38,-55,-236,-319,-393,-304,-295
-210,-145,63,171,-141,-44,-61,-236,-313,-375,-298,-301
-198,-133,63,159,-135,-38,-67,-236,-301,-363,-292,-289
-192,-127,63,159,-129,-32,-73,-236,-301,-357,-292,-289
-192,-115,75,153,-135,-20,-79,-230,-301,-357,-286,-289
-192,-109,81,147,-141,-14,-73,-224,-295,-351,-286,-289
-192,-103,87,147,-141,-8,-73,-218,-295,-351,-286,-283
-192,-97,93,141,-147,-2,-67,-212,-301,-345,-286,-283
-180,-97,81,135,-135,-8,-67,-206,-295,-339,-286,-283
-180,-91,87,135,-135,-2,-67,-206,-289,-339,-280,-277
-174,-91,81,129,-129,-8,-67,-200,-289,-339,-274,-277
-174,-91,81,129,-129,-8,-67,-194,-283,-333,-274,-277
-168,-91,75,129,-123,-8,-67,-194,-277,-333,-274,-265
-168,-91,75,129,-123,-8,-67,-188,-277,-339,-274,-265
-174,-91,81,129,-129,-8,-67,-182,-265,-333,-268,-259
-168,-85,81,123,-129,-2,-61,-176,-259,-327,-268,-259
-168,-85,81,123,-129,-2,-55,-176,-253,-321,-268,-253
-168,-85,81,123,-129,-2,-49,-170,-247,-327,-268,-253
-168,-79,87,123,-129,4,-49,-164,-247,-327,-268,-253
-162,-79,81,117,-123,-2,-55,-164,-241,-333,-268,-247
-156,-79,75,117,-117,-2,-55,-158,-241,-333,-262,-247
-150,-73,75,105,-117,-2,-55,-152,-235,-333,-262,-241
-144,-73,69,105,-111,-2,-55,-134,-229,-333,-256,-235
-144,-73,69,105,-111,-2,-49,-128,-229,-333,-256,-235
-144,-68,75,105,-111,4,-43,-122,-223,-333,-250,-229
-144,-63,81,105,-111,10,-43,-116,-217,-333,-244,-223
-138,-63,75,99,-105,4,-43,-110,-211,-333,-244,-217
-138,-57,81,93,-111,10,-43,-104,-205,-333,-238,-217
-132,-51,81,93,-105,16,-37,-98,-193,-333,-232,-211
-132,-45,87,87,-111,22,-43,-92,-187,-321,-226,-205
-126,-39,87,81,-105,22,-49,-86,-187,-309,-226,-205
-132,-39,93,87,-111,28,-43,-80,-181,-303,-226,-199
-126,-45,81,81,-105,16,-43,-74,-175,-291,-226,-199
-132,-45,87,87,-111,22,-43,-68,-169,-285,-226,-187
-138,-45,93,87,-117,22,-31,-62,-163,-279,-220,-187
-132,-33,99,81,-117,34,-31,-56,-157,-267,-208,-175
-126,-33,93,75,-111,28,-37,-50,-145,-255,-208,-169
-126,-33,93,75,-111,28,-37,-44,-139,-243,-208,-163
-120,-27,93,75,-105,34,-37,-38,-127,-237,-208,-163
-108,-15,93,63,-99,40,-31,-38,-121,-225,-202,-157
-102,-9,93,51,-99,40,-25,-32,-115,-213,-202,-157
-102,-3,99,51,-99,46,-19,-26,-103,-195,-184,-151
-108,3,111,51,-111,58,-19,-26,-91,-177,-178,-145
-108,9,117,51,-111,64,-25,-26,-85,-159,-172,-139
-102,15,117,39,-111,64,-25,-14,-73,-135,-160,-127
-102,21,123,39,-111,70,-13,-8,-55,-117,-148,-121
-96,27,123,33,-111,76,-19,-2,-49,-117,-148,-115
-96,27,123,33,-111,76,-13,-2,-37,-117,-142,-121
-90,27,117,27,-105,70,-7,10,-25,-111,-136,-121
-84,33,117,27,-99,76,-7,22,-13,-99,-136,-121
-78,39,117,15,-99,76,5,34,-1,-87,-130,-121
-78,45,123,15,-99,82,11,46,11,-81,-130,-115
-72,51,123,10,-99,88,17,57,22,-63,-124,-103
-72,57,129,10,-99,94,17,62,27,-45,-112,-85
-66,63,129,-1,-99,94,23,74,45,-33,-100,-73
-60,63,123,-1,-93,94,29,86,57,-27,-94,-67
-60,75,135,-7,-99,106,35,98,69,-21,-88,-61
-54,81,135,-13,-93,106,29,110,81,-9,-76,-55
-48,87,135,-19,-93,112,41,134,105,9,-64,-49
-48,87,135,-19,-93,112,41,152,123,25,-46,-37
-42,93,135,-25,-87,112,41,170,141,43,-34,-31
-30,99,129,-37,-81,112,46,188,153,55,-28,-19
-30,105,135,-37,-81,118,46,212,171,67,-16,-8
-30,111,141,-43,-87,124,51,230,189,79,-4,3
-24,123,147,-49,-87,136,51,260,213,91,14,21
-12,135,147,-61,-81,142,57,284,231,109,32,39
0,147,147,-73,-75,148,57,308,255,133,49,51
6,153,147,-79,-69,148,69,338,285,157,66,69
12,159,147,-85,-69,154,75,362,309,175,78,75
24,171,147,-97,-63,160,75,392,339,199,96,87
30,171,141,-103,-57,154,81,416,369,217,108,99
36,183,147,-109,-57,166,87,434,399,235,132,117
42,189,147,-115,-51,166,99,458,423,259,156,135
52,207,153,-127,-51,184,111,476,453,283,174,153
58,219,159,-139,-51,190,123,500,477,307,186,171
70,231,159,-151,-45,196,129,530,501,337,204,189
76,243,165,-157,-45,208,135,554,525,361,222,207
88,255,165,-169,-39,214,147,578,549,385,240,219
94,261,165,-175,-33,214,153,602,573,409,264,231
106,267,159,-187,-27,214,159,620,603,433,282,243
124,267,141,-193,-9,208,165,644,627,457,306,255
136,279,141,-205,-3,214,165,662,657,475,318,267
142,285,141,-211,3,214,171,674,675,499,336,273
148,303,153,-223,-3,232,177,692,699,523,360,285
154,309,153,-229,3,232,183,710,723,547,372,309
160,321,159,-235,3,244,189,722,741,565,384,321
160,321,159,-235,3,244,195,734,759,589,402,339
160,333,171,-241,-3,256,207,752,777,619,420,357
172,339,165,-253,3,256,213,764,801,637,444,375
190,351,159,-271,15,256,213,770,819,661,468,387
202,351,147,-277,27,250,207,776,831,679,486,399
214,345,129,-277,45,238,207,782,849,691,498,405
226,345,117,-283,57,232,207,788,855,703,504,411
232,345,111,-283,63,232,213,794,867,721,510,417
226,339,111,-283,57,226,213,800,867,727,516,429
220,339,117,-277,51,232,219,800,867,733,522,441
220,333,111,-271,57,226,213,794,855,733,522,441
214,321,105,-265,57,214,213,782,843,727,528,447
214,315,99,-265,57,208,207,770,831,721,528,447
214,303,87,-259,63,196,195,758,819,709,522,435
208,297,87,-247,63,196,189,740,795,691,516,429
208,291,81,-247,63,190,183,716,771,685,516,417
202,285,81,-241,63,184,177,686,747,661,504,411
196,273,75,-229,63,178,165,656,723,643,492,405
184,261,75,-217,57,172,165,620,693,613,474,387
172,249,75,-205,51,166,159,584,651,577,456,369
160,243,81,-199,39,166,147,554,615,541,432,357
142,231,87,-187,27,160,141,524,573,499,414,333
130,213,81,-169,27,148,135,488,531,457,390,309
118,201,81,-157,21,142,117,452,489,415,366,279
106,183,75,-145,15,130,111,416,441,373,336,255
100,171,69,-133,15,124,99,374,399,337,306,231
88,153,63,-115,15,112,93,332,351,295,270,201
70,135,63,-103,3,100,75,290,303,253,240,165
58,117,57,-85,3,88,63,242,255,211,210,135
47,105,57,-73,-3,82,51,200,213,169,174,111
36,93,57,-61,-9,76,46,170,183,133,150,87
24,81,57,-49,-15,70,35,140,147,97,126,69
12,57,45,-31,-15,52,35,110,111,61,102,51
6,39,33,-25,-15,34,23,80,75,31,84,27
-6,27,33,-13,-21,28,5,52,39,9,60,3
-12,15,27,-1,-21,22,-1,22,17,-21,38,-13
-24,3,27,10,-27,16,-7,-8,-13,-39,8,-37
-42,-9,33,21,-39,10,-13,-26,-43,-63,-16,-55
-60,-27,33,45,-45,4,-25,-50,-73,-93,-34,-73
-66,-33,33,45,-51,-2,-25,-74,-91,-111,-58,-91
-72,-39,33,57,-51,-2,-31,-92,-103,-129,-76,-103
-72,-51,21,63,-45,-14,-43,-104,-121,-147,-88,-109
-72,-57,15,63,-45,-20,-43,-116,-133,-159,-100,-121
-72,-63,9,69,-39,-26,-49,-128,-145,-165,-112,-133
-78,-68,9,69,-45,-32,-55,-146,-163,-171,-124,-145
-84,-73,9,75,-51,-32,-61,-158,-175,-183,-130,-157
-78,-79,-3,75,-39,-44,-67,-170,-193,-189,-142,-163
-84,-85,-3,81,-45,-44,-73,-182,-205,-201,-154,-169
-90,-91,-3,87,-45,-50,-73,-194,-211,-207,-160,-169
-90,-97,-9,87,-45,-56,-79,-200,-223,-207,-166,-175
-96,-97,-3,93,-51,-50,-85,-200,-229,-207,-166,-175
-96,-103,-9,99,-45,-56,-91,-206,-229,-213,-172,-175
-102,-115,-15,105,-45,-68,-85,-206,-229,-219,-172,-181
-102,-115,-15,105,-45,-68,-85,-206,-229,-225,-172,-181
-108,-121,-15,111,-51,-68,-85,-206,-235,-225,-178,-175
-108,-115,-9,111,-51,-62,-79,-206,-235,-225,-172,-175
-108,-115,-9,111,-51,-62,-85,-212,-241,-225,-172,-175
-108,-115,-9,111,-51,-62,-85,-218,-247,-231,-178,-175
-108,-115,-9,111,-51,-62,-85,-218,-253,-237,-178,-175
-114,-115,-3,111,-57,-62,-85,-218,-253,-237,-178,-175
-108,-121,-15,111,-51,-68,-85,-218,-253,-243,-184,-181
-108,-115,-9,111,-51,-62,-91,-212,-247,-249,-178,-169
-102,-109,-9,99,-51,-62,-85,-212,-247,-237,-178,-163
-102,-109,-9,99,-51,-62,-79,-212,-247,-237,-178,-163
-102,-109,-9,99,-51,-62,-85,-212,-247,-237,-184,-163
-108,-109,-3,105,-57,-56,-85,-218,-253,-237,-190,-169
-114,-115,-3,111,-57,-62,-85,-218,-253,-243,-190,-169
-108,-109,-3,105,-57,-56,-85,-218,-259,-243,-190,-169
-108,-109,-3,105,-57,-56,-85,-212,-253,-243,-184,-163
-108,-109,-3,105,-57,-56,-85,-212,-253,-237,-184,-163
-108,-115,-9,111,-51,-62,-85,-212,-253,-243,-184,-163
-108,-115,-9,111,-51,-62,-85,-212,-253,-243,-184,-163
-114,-115,-3,111,-57,-62,-79,-206,-253,-243,-178,-157
-120,-115,3,117,-63,-56,-79,-206,-253,-243,-172,-157
-120,-121,-3,117,-63,-62,-85,-212,-253,-249,-166,-163
-120,-109,9,111,-69,-50,-85,-206,-253,-243,-166,-157
-114,-103,9,105,-63,-50,-85,-206,-247,-249,-166,-163
-114,-103,9,105,-63,-50,-85,-212,-253,-255,-172,-163
-120,-103,15,111,-69,-44,-79,-218,-253,-261,-166,-163
-126,-109,15,111,-75,-50,-79,-218,-253,-261,-166,-163
-126,-109,15,111,-75,-50,-79,-224,-247,-261,-166,-163
-114,-103,9,105,-63,-50,-79,-218,-241,-261,-166,-163
-108,-103,3,105,-57,-50,-79,-218,-241,-255,-166,-163
-108,-103,3,105,-57,-50,-79,-218,-241,-255,-166,-163
-108,-97,9,99,-63,-44,-85,-218,-235,-255,-166,-169
-114,-103,9,105,-63,-50,-91,-218,-241,-255,-166,-169
-120,-103,15,111,-69,-44,-97,-224,-241,-255,-166,-169
-126,-103,21,111,-75,-44,-97,-230,-247,-255,-166,-169
-114,-97,15,99,-69,-44,-97,-236,-253,-255,-166,-175
-114,-91,21,99,-69,-38,-97,-236,-247,-249,-166,-175
-108,-85,21,93,-69,-32,-97,-236,-247,-255,-154,-175
-114,-85,27,93,-75,-32,-97,-236,-253,-261,-160,-181
-114,-85,27,93,-75,-32,-91,-236,-247,-267,-166,-175
-114,-85,27,93,-75,-32,-91,-236,-247,-267,-166,-181
-120,-91,27,105,-75,-32,-91,-236,-247,-267,-172,-181
-126,-91,33,105,-81,-32,-91,-236,-247,-267,-166,-181
-120,-91,27,105,-75,-32,-91,-236,-247,-267,-172,-181
-120,-91,27,105,-75,-32,-91,-236,-247,-267,-166,-181
-120,-91,27,105,-75,-32,-91,-236,-253,-267,-166,-181
-114,-91,21,99,-69,-38,-91,-236,-253,-261,-166,-181
-114,-85,27,93,-75,-32,-97,-242,-253,-267,-166,-181
-114,-91,21,99,-69,-38,-97,-242,-253,-267,-160,-187
-120,-91,27,105,-75,-32,-103,-242,-253,-267,-154,-187
-126,-91,33,105,-81,-32,-103,-242,-253,-267,-160,-181
-126,-97,27,105,-81,-38,-103,-248,-259,-273,-160,-187
-120,-97,21,105,-75,-38,-103,-248,-259,-273,-166,-187
-114,-103,9,105,-63,-50,-103,-254,-259,-273,-166,-193
-114,-103,9,105,-63,-50,-103,-254,-265,-279,-166,-193
-114,-103,9,105,-63,-50,-103,-260,-265,-285,-166,-193
-108,-97,9,99,-63,-44,-103,-254,-271,-279,-172,-193
-108,-91,15,99,-63,-38,-103,-248,-271,-273,-172,-193
-108,-91,15,99,-63,-38,-103,-254,-271,-273,-178,-193
-114,-97,15,99,-69,-44,-97,-254,-271,-279,-178,-199
-120,-103,15,111,-69,-44,-97,-254,-265,-285,-166,-199
-126,-103,21,111,-75,-44,-103,-254,-265,-285,-166,-199
-126,-97,27,105,-81,-38,-103,-254,-265,-285,-166,-199
-120,-103,15,111,-69,-44,-103,-260,-271,-285,-172,-199
-120,-103,15,111,-69,-44,-103,-266,-277,-285,-178,-193
-114,-103,9,105,-63,-50,-103,-266,-277,-285,-184,-193
-114,-103,9,105,-63,-50,-103,-266,-283,-285,-184,-199
-114,-103,9,105,-63,-50,-103,-272,-283,-291,-190,-205
-114,-103,9,105,-63,-50,-103,-272,-289,-291,-196,-205
-114,-103,9,105,-63,-50,-103,-272,-289,-297,-196,-211
-114,-103,9,105,-63,-50,-103,-266,-295,-297,-202,-217
-120,-103,15,111,-69,-44,-103,-266,-295,-291,-202,-217
-120,-109,9,111,-69,-50,-103,-260,-295,-291,-190,-205
-114,-109,3,105,-63,-56,-103,-260,-295,-291,-184,-199
-114,-109,3,105,-63,-56,-103,-266,-295,-291,-184,-199
-114,-109,3,105,-63,-56,-103,-266,-301,-297,-190,-199
-114,-109,3,105,-63,-56,-109,-272,-301,-297,-196,-199
-114,-109,3,105,-63,-56,-109,-272,-301,-303,-196,-205
-120,-109,9,111,-69,-50,-115,-272,-295,-297,-196,-205
-120,-109,9,111,-69,-50,-109,-266,-295,-291,-196,-199
-108,-109,-3,105,-57,-56,-103,-266,-295,-291,-196,-199
-108,-109,-3,105,-57,-56,-103,-272,-295,-291,-202,-199
-108,-109,-3,105,-57,-56,-103,-278,-295,-297,-208,-199
-102,-109,-9,99,-51,-62,-103,-278,-301,-297,-208,-199
-108,-109,-3,105,-57,-56,-109,-278,-307,-297,-208,-193
-108,-103,3,105,-57,-50,-115,-284,-313,-303,-208,-199
-108,-103,3,105,-57,-50,-115,-284,-313,-303,-208,-199
-108,-103,3,105,-57,-50,-121,-284,-313,-297,-208,-193
-114,-103,9,105,-63,-50,-121,-284,-313,-297,-208,-193
-120,-109,9,111,-69,-50,-127,-284,-313,-297,-214,-193
-120,-109,9,111,-69,-50,-127,-278,-313,-297,-214,-193
-126,-115,9,117,-69,-56,-127,-284,-313,-303,-214,-199
-120,-115,3,117,-63,-56,-121,-284,-313,-309,-214,-205
-114,-109,3,105,-63,-56,-121,-290,-319,-315,-214,-205
-108,-109,-3,105,-57,-56,-127,-296,-319,-315,-214,-205
-108,-109,-3,105,-57,-56,-127,-296,-325,-315,-214,-205
-114,-109,3,105,-63,-56,-127,-296,-325,-315,-214,-205
-108,-103,3,105,-57,-50,-127,-290,-325,-309,-214,-211
-108,-97,9,99,-63,-44,-127,-290,-325,-309,-214,-211
-108,-103,3,105,-57,-50,-121,-290,-325,-309,-208,-211
-102,-103,-3,99,-51,-56,-121,-290,-325,-309,-208,-199
-102,-103,-3,99,-51,-56,-121,-290,-325,-315,-208,-199
-102,-103,-3,99,-51,-56,-115,-296,-331,-315,-208,-199
-102,-103,-3,99,-51,-56,-115,-296,-331,-315,-214,-199
-102,-103,-3,99,-51,-56,-115,-296,-331,-315,-214,-205
-102,-103,-3,99,-51,-56,-115,-296,-325,-315,-220,-205
-102,-103,-3,99,-51,-56,-115,-296,-325,-315,-220,-205
-102,-109,-9,99,-51,-62,-121,-296,-325,-321,-214,-205
-108,-109,-3,105,-57,-56,-127,-296,-325,-321,-214,-205
-114,-109,3,105,-63,-56,-127,-302,-331,-321,-220,-211
-120,-109,9,111,-69,-50,-127,-302,-331,-321,-214,-205
-114,-109,3,105,-63,-56,-127,-302,-331,-309,-208,-205
-108,-103,3,105,-57,-50,-127,-302,-331,-309,-202,-205
-108,-103,3,105,-57,-50,-127,-302,-331,-303,-202,-199
-108,-103,3,105,-57,-50,-127,-296,-337,-303,-202,-199
-108,-103,3,105,-57,-50,-133,-296,-337,-303,-202,-205
-108,-103,3,105,-57,-50,-133,-296,-337,-303,-202,-205
-108,-103,3,105,-57,-50,-133,-296,-343,-309,-202,-205
-108,-103,3,105,-57,-50,-133,-302,-343,-309,-208,-205
-108,-109,-3,105,-57,-56,-121,-302,-337,-309,-214,-211
-108,-109,-3,105,-57,-56,-121,-308,-337,-315,-220,-211
-108,-115,-9,111,-51,-62,-127,-308,-337,-321,-226,-217
-108,-109,-3,105,-57,-56,-127,-308,-337,-321,-232,-223
-108,-103,3,105,-57,-50,-121,-308,-337,-321,-232,-217
-108,-97,9,99,-63,-44,-127,-302,-337,-309,-220,-211
-102,-91,9,93,-57,-44,-127,-296,-337,-309,-220,-211
-96,-79,15,87,-57,-32,-121,-290,-331,-309,-214,-211
-84,-68,15,75,-51,-26,-121,-290,-325,-303,-208,-205
-78,-63,15,69,-45,-26,-115,-284,-319,-297,-202,-205
-72,-51,21,63,-45,-14,-109,-284,-307,-285,-196,-199
-72,-39,33,57,-51,-2,-109,-278,-301,-279,-190,-187
-72,-21,51,45,-63,16,-109,-272,-289,-273,-178,-175
-66,-3,63,33,-63,28,-103,-272,-283,-267,-172,-169
-66,9,75,27,-69,40,-103,-266,-277,-255,-160,-163
-60,21,81,21,-69,52,-97,-260,-271,-249,-154,-163
-54,33,87,10,-69,58,-91,-254,-265,-249,-154,-163
-54,39,93,5,-75,64,-85,-254,-265,-249,-154,-163
-54,39,93,5,-75,64,-85,-254,-265,-249,-154,-163
-60,39,99,10,-81,70,-79,-248,-271,-243,-160,-169
-66,39,105,10,-87,70,-79,-248,-265,-237,-160,-169
-60,45,105,10,-81,76,-79,-248,-265,-237,-154,-163
-48,45,93,5,-69,70,-79,-242,-259,-231,-148,-163
-36,45,81,-1,-57,64,-79,-242,-253,-225,-148,-157
-24,45,69,-7,-45,58,-85,-236,-241,-219,-142,-151
-6,57,63,-25,-33,58,-97,-242,-235,-213,-130,-139
0,63,63,-31,-33,64,-109,-242,-229,-207,-124,-121
6,69,63,-37,-27,64,-115,-248,-229,-201,-118,-115
6,69,63,-37,-27,64,-127,-248,-229,-201,-118,-109
0,69,69,-31,-33,70,-139,-254,-235,-207,-124,-109
0,69,69,-31,-33,70,-151,-260,-247,-207,-118,-109
0,63,63,-31,-33,64,-157,-266,-253,-207,-118,-109
6,57,51,-31,-21,52,-163,-272,-265,-207,-124,-109
6,45,39,-25,-15,40,-163,-284,-277,-207,-136,-109
0,39,39,-19,-21,40,-163,-284,-283,-207,-142,-115
0,27,27,-13,-15,28,-169,-296,-289,-213,-142,-115
0,21,21,-7,-9,22,-163,-296,-295,-225,-154,-115
0,21,21,-7,-9,22,-157,-290,-289,-225,-160,-121
0,9,9,-1,-3,10,-157,-284,-277,-225,-160,-121
0,3,3,-1,-3,4,-151,-272,-277,-225,-160,-121
6,-3,-9,-1,9,-8,-145,-266,-277,-231,-166,-121
0,-9,-9,5,3,-8,-139,-266,-277,-231,-166,-121
-6,-27,-21,15,9,-26,-139,-266,-283,-231,-166,-121
-18,-39,-21,27,3,-32,-139,-272,-289,-237,-172,-127
-24,-45,-21,33,-3,-32,-139,-284,-301,-243,-178,-127
-36,-57,-21,45,-9,-38,-139,-296,-307,-255,-184,-133
-48,-63,-15,57,-15,-38,-139,-308,-313,-261,-190,-133
-54,-68,-15,57,-21,-44,-139,-314,-319,-267,-190,-133
-60,-68,-9,63,-27,-38,-139,-308,-319,-267,-190,-133
-66,-73,-9,63,-33,-44,-139,-308,-319,-267,-190,-139
-78,-79,-3,75,-39,-44,-139,-308,-325,-273,-196,-145
-84,-79,3,81,-45,-38,-139,-308,-325,-279,-202,-151
-90,-85,3,81,-51,-44,-139,-308,-331,-279,-208,-163
-108,-91,15,99,-63,-38,-133,-302,-325,-279,-208,-163
-108,-97,9,99,-63,-44,-127,-296,-319,-279,-208,-157
-108,-97,9,99,-63,-44,-121,-290,-313,-273,-196,-151
-108,-97,9,99,-63,-44,-109,-278,-301,-267,-184,-145
-108,-91,15,99,-63,-38,-97,-272,-289,-261,-178,-139
-96,-91,3,93,-51,-44,-91,-254,-271,-249,-166,-133
-90,-85,3,81,-51,-44,-85,-242,-247,-237,-154,-121
-78,-85,-9,75,-39,-50,-79,-224,-223,-219,-142,-109
-72,-79,-9,75,-33,-44,-73,-206,-211,-201,-136,-97
-66,-85,-21,69,-27,-56,-67,-188,-193,-177,-124,-85
-66,-85,-21,69,-27,-56,-61,-170,-169,-159,-112,-73
-60,-85,-27,69,-21,-56,-49,-146,-145,-135,-94,-61
-60,-85,-27,69,-21,-56,-37,-134,-127,-111,-76,-43
-54,-85,-33,63,-15,-62,-25,-116,-109,-93,-58,-31
-42,-79,-39,57,-3,-62,-7,-98,-97,-81,-46,-19
-30,-79,-51,51,9,-68,5,-86,-79,-69,-34,-3
-18,-79,-63,45,21,-74,11,-74,-61,-57,-22,9
-6,-79,-75,39,33,-80,23,-62,-49,-45,-10,27
12,-85,-99,33,51,-91,23,-44,-31,-27,2,39
36,-97,-133,27,80,-114,23,-26,-13,-9,14,51
52,-109,-163,27,103,-132,23,-8,11,15,38,69
76,-109,-187,15,127,-144,29,10,22,37,54,93
100,-115,-217,10,157,-162,41,34,45,67,78,111
124,-109,-235,-7,175,-168,57,62,81,97,102,141
136,-97,-235,-19,181,-162,87,110,129,133,126,165
142,-85,-229,-31,181,-156,129,176,189,163,150,189
142,-63,-205,-37,175,-132,213,278,285,199,174,201
148,-51,-199,-43,175,-120,321,422,405,241,192,213
172,-45,-217,-61,193,-126,435,596,543,295,234,237
220,-39,-259,-85,241,-144,549,806,717,391,294,297
292,-27,-319,-127,307,-168,687,1052,933,529,384,381
376,-27,-403,-169,391,-210,831,1346,1191,709,504,489
484,-27,-511,-223,499,-264,1005,1706,1497,937,660,627
622,-15,-637,-301,631,-324,1173,2090,1839,1207,858,807
754,3,-751,-379,751,-372,1323,2438,2151,1507,1086,1029
886,27,-859,-457,871,-414,1407,2671,2409,1825,1344,1281
1018,81,-937,-547,979,-426,1395,2725,2552,2143,1638,1557
1144,165,-979,-649,1063,-402,1293,2653,2612,2454,1938,1845
1276,261,-1015,-763,1147,-372,1143,2539,2654,2790,2256,2151
1402,375,-1027,-889,1213,-324,969,2408,2702,3144,2585,2468
1498,465,-1033,-979,1267,-282,819,2288,2750,3498,2903,2768
1528,549,-979,-1033,1255,-210,693,2132,2774,3816,3185,3026
1468,603,-865,-1033,1165,-126,615,1922,2738,4014,3359,3188
1360,603,-757,-979,1057,-74,567,1706,2630,4050,3401,3212
1210,543,-667,-877,937,-62,537,1490,2456,3918,3293,3116
1036,459,-577,-745,805,-56,525,1292,2229,3648,3053,2900
814,363,-451,-589,631,-44,531,1058,1917,3228,2705,2564
556,231,-325,-391,439,-44,555,806,1533,2670,2244,2121
286,87,-199,-187,241,-56,579,542,1107,2041,1734,1629
30,-57,-87,10,57,-74,591,272,669,1369,1194,1113
-186,-163,21,171,-105,-74,591,40,291,781,714,645
-324,-241,81,279,-207,-80,537,-146,22,367,360,309
-402,-301,99,345,-255,-102,447,-296,-163,85,108,81
-444,-349,93,393,-273,-126,345,-416,-313,-93,-58,-67
-468,-391,75,429,-273,-156,243,-512,-427,-231,-178,-169
-468,-421,45,441,-261,-186,135,-578,-511,-321,-262,-241
-456,-439,15,447,-237,-210,11,-632,-571,-393,-316,-295
-426,-433,-9,423,-213,-222,-109,-668,-613,-441,-358,-319
-402,-415,-15,405,-195,-216,-199,-674,-631,-471,-382,-331
-378,-385,-9,375,-189,-198,-241,-656,-625,-483,-400,-343
-348,-355,-9,351,-171,-180,-247,-626,-607,-489,-406,-343
-318,-337,-21,321,-153,-180,-235,-590,-583,-489,-418,-343
-294,-313,-21,297,-141,-168,-217,-548,-553,-477,-406,-337
-276,-283,-9,279,-135,-144,-193,-500,-517,-453,-400,-325
-252,-241,9,243,-135,-114,-163,-440,-463,-423,-376,-307
-234,-199,33,213,-135,-86,-133,-368,-403,-399,-352,-283
-216,-157,57,183,-141,-50,-109,-320,-355,-369,-334,-271
-204,-127,75,165,-141,-26,-91,-272,-313,-351,-322,-259
-198,-103,93,147,-147,-8,-73,-248,-295,-351,-310,-253
-192,-91,99,141,-147,4,-61,-236,-289,-351,-310,-253
-192,-91,99,141,-147,4,-55,-236,-295,-351,-310,-253
-186,-91,93,135,-141,-2,-55,-242,-301,-345,-316,-253
-180,-103,75,141,-129,-14,-61,-254,-307,-345,-316,-259
-174,-97,75,129,-129,-14,-67,-260,-307,-345,-322,-253
-168,-97,69,129,-123,-14,-73,-260,-301,-345,-316,-253
-162,-91,69,123,-117,-14,-79,-254,-289,-339,-310,-247
-162,-91,69,123,-117,-14,-79,-248,-283,-333,-304,-247
-162,-85,75,117,-123,-8,-73,-242,-277,-327,-304,-241
-156,-79,75,117,-117,-2,-73,-236,-271,-315,-298,-235
-150,-79,69,111,-111,-8,-73,-230,-265,-303,-298,-229
-150,-73,75,105,-117,-2,-67,-230,-265,-297,-298,-229
-144,-68,75,105,-111,4,-67,-230,-265,-291,-292,-229
-144,-63,81,105,-111,10,-67,-224,-265,-291,-292,-223
-144,-63,81,105,-111,10,-67,-218,-265,-291,-292,-223
-150,-63,87,105,-117,10,-67,-212,-259,-297,-286,-223
-150,-57,93,99,-123,16,-67,-212,-259,-297,-286,-223
-150,-51,99,99,-123,22,-61,-206,-253,-297,-286,-223
-150,-51,99,99,-123,22,-61,-200,-247,-291,-280,-217
-144,-51,93,99,-117,22,-61,-194,-241,-291,-274,-217
-144,-51,93,99,-117,22,-61,-194,-235,-291,-280,-211
-144,-51,93,99,-117,22,-61,-188,-235,-297,-280,-211
-144,-51,93,99,-117,22,-55,-188,-229,-297,-280,-211
-138,-51,87,93,-111,16,-55,-182,-223,-297,-280,-205
-126,-39,87,81,-105,22,-49,-170,-229,-297,-274,-205
-126,-33,93,75,-111,28,-49,-164,-223,-291,-268,-199
-126,-33,93,75,-111,28,-49,-158,-217,-291,-268,-199
-120,-33,87,75,-105,28,-49,-152,-211,-285,-262,-193
-120,-33,87,75,-105,28,-43,-146,-205,-291,-256,-187
-114,-27,87,69,-99,28,-43,-140,-193,-291,-250,-187
-108,-21,87,63,-99,34,-43,-134,-187,-291,-250,-175
-108,-21,87,63,-99,34,-43,-122,-181,-291,-244,-175
-114,-21,93,63,-105,34,-43,-116,-175,-291,-238,-169
-108,-15,93,63,-99,40,-43,-110,-169,-285,-238,-169
-108,-9,99,57,-105,46,-43,-98,-163,-279,-238,-169
-108,-9,99,57,-105,46,-43,-92,-157,-267,-238,-163
-108,-9,99,57,-105,46,-43,-86,-151,-261,-238,-163
-114,-9,105,57,-111,46,-37,-80,-145,-249,-232,-157
-108,3,111,51,-111,58,-31,-68,-133,-237,-226,-157
-102,3,105,45,-105,52,-31,-62,-127,-231,-220,-157
-96,9,105,45,-99,58,-31,-62,-115,-219,-214,-145
-96,9,105,45,-99,58,-31,-56,-103,-207,-214,-145
-102,15,117,39,-111,64,-31,-50,-97,-201,-214,-139
-96,21,117,39,-105,70,-31,-44,-85,-189,-208,-133
-96,27,123,33,-111,76,-31,-38,-79,-171,-202,-133
-90,33,123,27,-105,76,-25,-32,-73,-159,-190,-127
-90,39,129,21,-111,82,-25,-26,-61,-147,-184,-115
-84,33,117,27,-99,76,-13,-20,-49,-135,-178,-115
-84,39,123,21,-105,82,-7,-14,-37,-123,-178,-109
-78,39,117,15,-99,76,-1,-8,-31,-117,-178,-103
-78,45,123,15,-99,82,-7,-2,-19,-105,-172,-103
-72,45,117,15,-93,82,-1,4,-7,-93,-160,-91
-60,51,111,5,-87,82,-1,16,5,-75,-148,-79
-60,57,117,5,-87,88,5,28,11,-63,-142,-73
-60,63,123,-1,-93,94,17,40,22,-51,-136,-67
-60,69,129,-1,-93,100,17,52,22,-39,-130,-61
-54,75,129,-13,-93,100,23,57,27,-27,-124,-61
-48,81,129,-13,-87,106,23,68,45,-15,-118,-55
-36,87,123,-25,-81,106,35,86,69,-9,-106,-49
-30,93,123,-31,-75,106,41,104,87,3,-94,-43
-30,99,129,-37,-81,112,46,122,105,20,-88,-37
-30,105,135,-37,-81,118,46,140,123,25,-82,-25
-24,111,135,-43,-81,124,57,158,135,37,-76,-13
-18,123,141,-55,-81,130,57,170,147,49,-64,-8
-12,129,141,-55,-75,136,63,194,165,67,-52,9
-6,135,141,-67,-75,136,69,218,183,85,-34,21
6,141,135,-73,-63,136,75,248,201,97,-16,33
18,153,135,-85,-57,142,81,278,225,115,-4,45
18,165,147,-91,-63,154,93,308,249,139,8,51
18,171,153,-97,-69,160,99,332,267,157,26,63
24,177,153,-97,-63,166,105,362,291,175,38,75
30,183,153,-109,-63,166,105,380,309,187,49,87
42,189,147,-115,-51,166,117,404,333,205,60,105
47,201,153,-121,-51,178,123,428,357,217,72,117
58,207,147,-133,-45,178,129,452,381,235,90,135
70,213,141,-139,-33,178,141,482,411,259,102,153
76,225,147,-145,-33,190,147,506,441,283,126,171
82,231,147,-157,-33,190,153,536,471,307,138,189
94,243,147,-169,-27,196,171,566,501,331,156,201
100,255,153,-175,-27,208,177,590,525,361,180,219
112,267,153,-187,-21,214,183,614,555,385,198,243
118,279,159,-199,-21,220,195,638,573,409,210,261
118,291,171,-205,-27,232,195,656,597,433,228,279
130,303,171,-217,-21,238,207,686,627,457,240,291
142,315,171,-229,-15,244,213,704,651,481,252,303
154,321,165,-235,-3,244,219,728,675,499,276,315
166,327,159,-247,3,244,225,746,705,523,294,327
178,333,153,-253,15,244,231,764,729,541,312,339
184,339,153,-259,15,250,243,788,747,565,330,351
190,351,159,-271,15,256,249,806,771,589,348,369
202,357,153,-277,27,256,255,818,795,607,366,387
208,357,147,-277,33,256,261,830,813,631,378,399
220,363,141,-289,39,256,267,842,825,655,402,417
226,369,141,-295,45,256,267,854,837,673,414,423
238,375,135,-307,51,256,267,866,855,691,426,435
238,381,141,-307,51,262,267,872,861,703,438,441
244,381,135,-307,57,262,261,884,873,715,450,447
244,387,141,-313,51,268,267,890,885,733,462,453
256,387,129,-319,63,262,273,890,891,745,486,465
262,381,117,-319,75,250,273,890,891,751,492,477
262,375,111,-319,75,244,267,884,885,751,498,477
262,369,105,-313,80,238,267,872,879,745,504,483
256,363,105,-307,75,238,267,860,873,733,492,483
250,357,105,-301,75,232,261,842,861,721,486,477
250,351,99,-301,75,226,261,824,843,715,474,477
244,345,99,-289,75,226,249,806,831,709,474,471
244,339,93,-289,75,220,243,776,801,691,462,459
238,321,81,-277,80,202,231,746,765,667,450,447
232,309,75,-265,80,196,219,710,723,637,432,429
214,291,75,-253,69,184,207,674,681,601,414,411
208,267,57,-235,75,166,195,632,633,559,390,393
196,255,57,-223,69,160,189,590,597,523,366,363
178,243,63,-211,57,154,183,554,561,487,342,339
160,231,69,-193,45,154,171,518,519,451,318,315
142,213,69,-175,39,142,153,470,477,409,288,291
130,201,69,-163,33,136,141,428,435,367,264,267
118,183,63,-151,27,124,129,386,387,331,240,237
100,165,63,-127,21,118,117,344,345,295,216,213
88,147,57,-115,15,106,105,302,297,259,186,195
76,129,51,-97,15,94,87,260,249,217,162,165
58,111,51,-85,3,82,75,218,201,187,144,135
47,93,45,-67,3,70,63,188,159,145,114,111
36,81,45,-55,-3,64,51,152,129,109,84,87
24,69,45,-43,-9,58,41,116,99,73,60,63
12,57,45,-31,-15,52,29,86,69,37,38,39
6,45,39,-25,-15,40,23,57,39,15,14,21
0,33,33,-13,-15,34,17,28,11,-9,-10,3
-6,27,33,-13,-21,28,5,-2,-13,-27,-28,-8
-18,15,33,-1,-27,22,-1,-20,-43,-45,-52,-31
-30,3,33,10,-33,16,-7,-32,-73,-63,-76,-49
-42,-3,39,21,-39,16,-19,-50,-97,-81,-88,-67
-48,-15,33,33,-39,10,-31,-68,-109,-105,-106,-85
-54,-27,27,39,-39,-2,-37,-86,-127,-123,-124,-97
-54,-33,21,39,-39,-8,-43,-104,-139,-141,-136,-109
-54,-33,21,39,-39,-8,-43,-122,-151,-153,-148,-121
-48,-39,9,45,-27,-14,-49,-134,-163,-165,-160,-127
-48,-45,3,45,-27,-20,-55,-146,-175,-171,-172,-121
-54,-51,3,51,-27,-26,-55,-158,-187,-177,-178,-133
-60,-57,3,57,-33,-26,-61,-170,-199,-183,-184,-139
-72,-68,3,69,-39,-32,-61,-176,-211,-189,-190,-145
-78,-73,3,69,-45,-38,-67,-182,-217,-189,-190,-151
-78,-73,3,69,-45,-38,-73,-182,-223,-183,-190,-151
-78,-73,3,69,-45,-38,-73,-182,-223,-183,-196,-151
-78,-73,3,69,-45,-38,-67,-188,-223,-189,-202,-151
-78,-73,3,69,-45,-38,-73,-194,-223,-189,-208,-145
-78,-79,-3,75,-39,-44,-73,-200,-229,-195,-208,-145
-84,-79,3,81,-45,-38,-79,-200,-229,-195,-208,-145
-78,-79,-3,75,-39,-44,-79,-200,-235,-189,-202,-151
-78,-79,-3,75,-39,-44,-79,-200,-235,-189,-208,-151
-78,-79,-3,75,-39,-44,-85,-200,-235,-189,-208,-151
-84,-85,-3,81,-45,-44,-85,-200,-241,-195,-214,-157
-84,-85,-3,81,-45,-44,-85,-200,-241,-195,-214,-151
-90,-85,3,81,-51,-44,-79,-200,-241,-201,-214,-151
-90,-79,9,81,-51,-38,-79,-200,-241,-201,-220,-145
-90,-79,9,81,-51,-38,-79,-200,-235,-201,-214,-139
-96,-79,15,87,-57,-32,-73,-200,-235,-201,-208,-139
-90,-79,9,81,-51,-38,-73,-200,-235,-195,-208,-139
-90,-73,15,75,-57,-32,-73,-200,-235,-201,-208,-139
-84,-68,15,75,-51,-26,-73,-194,-235,-207,-214,-133
-78,-68,9,69,-45,-32,-79,-194,-235,-213,-214,-133
-78,-68,9,69,-45,-32,-79,-194,-235,-213,-214,-133
-78,-68,9,69,-45,-32,-73,-188,-235,-207,-208,-127
-78,-68,9,69,-45,-32,-73,-188,-235,-213,-202,-121
-78,-68,9,69,-45,-32,-79,-194,-241,-213,-196,-121
-84,-68,15,75,-51,-26,-79,-194,-241,-213,-196,-121
-84,-68,15,75,-51,-26,-79,-194,-235,-213,-196,-121
-84,-63,21,75,-51,-20,-79,-200,-235,-213,-190,-121
-84,-63,21,75,-51,-20,-79,-200,-235,-207,-196,-115
-90,-68,21,75,-57,-26,-79,-200,-229,-201,-190,-115
-90,-68,21,75,-57,-26,-79,-200,-235,-207,-190,-121
-84,-63,21,75,-51,-20,-73,-200,-235,-207,-196,-115
-84,-63,21,75,-51,-20,-73,-206,-241,-207,-202,-115
-84,-57,27,69,-57,-14,-73,-206,-241,-213,-208,-121
-84,-57,27,69,-57,-14,-79,-212,-247,-219,-208,-121
-78,-57,21,63,-51,-20,-79,-218,-247,-213,-208,-121
-78,-57,21,63,-51,-20,-79,-218,-247,-213,-202,-121
-78,-57,21,63,-51,-20,-79,-218,-241,-213,-196,-121
-78,-57,21,63,-51,-20,-79,-218,-241,-213,-190,-121
-78,-57,21,63,-51,-20,-85,-212,-235,-213,-190,-121
-78,-57,21,63,-51,-20,-79,-212,-235,-213,-190,-121
-84,-57,27,69,-57,-14,-79,-212,-241,-213,-190,-121
-84,-57,27,69,-57,-14,-85,-218,-241,-219,-196,-127
-90,-57,33,69,-63,-14,-85,-218,-241,-219,-196,-127
-84,-51,33,69,-57,-8,-91,-224,-247,-219,-202,-127
-78,-51,27,63,-51,-14,-91,-224,-247,-219,-202,-127
-84,-57,27,69,-57,-14,-91,-224,-247,-219,-202,-127
-90,-63,27,75,-57,-20,-91,-230,-247,-225,-208,-127
-96,-63,33,81,-63,-14,-97,-230,-247,-225,-208,-133
-96,-63,33,81,-63,-14,-91,-230,-253,-231,-202,-133
-96,-57,39,75,-69,-8,-91,-230,-253,-231,-196,-133
-96,-57,39,75,-69,-8,-97,-230,-259,-231,-202,-133
-96,-57,39,75,-69,-8,-91,-236,-259,-237,-202,-133
-96,-51,45,75,-69,-2,-91,-242,-259,-237,-202,-133
-96,-51,45,75,-69,-2,-97,-242,-259,-237,-202,-139
-90,-51,39,69,-63,-8,-97,-248,-259,-231,-202,-139
-90,-45,45,63,-69,-2,-103,-248,-259,-231,-202,-139
-90,-51,39,69,-63,-8,-103,-248,-265,-231,-202,-145
-90,-63,27,75,-57,-20,-103,-254,-265,-237,-208,-151
-90,-68,21,75,-57,-26,-103,-254,-271,-237,-208,-157
-96,-68,27,81,-63,-20,-103,-254,-271,-237,-202,-151
-90,-68,21,75,-57,-26,-103,-260,-271,-231,-202,-151
-90,-68,21,75,-57,-26,-109,-254,-271,-237,-208,-151
-96,-68,27,81,-63,-20,-109,-260,-271,-243,-214,-157
-102,-68,33,81,-69,-20,-115,-266,-277,-243,-214,-151
-96,-63,33,81,-63,-14,-115,-266,-277,-249,-214,-157
-90,-57,33,69,-63,-14,-115,-266,-277,-249,-220,-163
-90,-57,33,69,-63,-14,-115,-266,-277,-249,-220,-163
-96,-57,39,75,-69,-8,-109,-266,-277,-243,-220,-163
-96,-63,33,81,-63,-14,-109,-266,-283,-243,-226,-169
-96,-63,33,81,-63,-14,-109,-266,-283,-243,-232,-169
-96,-68,27,81,-63,-20,-115,-266,-283,-243,-226,-175
-90,-73,15,75,-57,-32,-115,-272,-289,-249,-226,-175
-90,-73,15,75,-57,-32,-115,-266,-289,-255,-226,-175
-90,-85,3,81,-51,-44,-115,-272,-295,-255,-232,-175
-96,-79,15,87,-57,-32,-115,-266,-301,-249,-232,-175
-96,-73,21,81,-63,-26,-115,-266,-301,-249,-232,-181
-96,-73,21,81,-63,-26,-109,-272,-301,-249,-238,-181
-96,-73,21,81,-63,-26,-115,-272,-307,-249,-232,-181
-90,-68,21,75,-57,-26,-115,-272,-301,-249,-232,-175
-90,-68,21,75,-57,-26,-115,-272,-301,-255,-238,-175
-90,-68,21,75,-57,-26,-121,-272,-301,-255,-238,-175
-90,-68,21,75,-57,-26,-121,-272,-301,-255,-238,-169
-90,-68,21,75,-57,-26,-121,-272,-307,-255,-238,-175
-90,-68,21,75,-57,-26,-121,-272,-307,-261,-238,-175
-96,-68,27,81,-63,-20,-121,-278,-313,-261,-238,-181
-90,-73,15,75,-57,-32,-115,-278,-313,-267,-238,-181
-90,-73,15,75,-57,-32,-115,-278,-313,-273,-238,-181
-90,-73,15,75,-57,-32,-115,-278,-313,-273,-232,-181
-96,-79,15,87,-57,-32,-115,-278,-313,-273,-232,-175
-96,-79,15,87,-57,-32,-121,-272,-313,-267,-238,-175
-96,-79,15,87,-57,-32,-121,-272,-319,-273,-238,-175
-96,-85,9,87,-57,-38,-121,-272,-319,-273,-238,-175
-96,-79,15,87,-57,-32,-121,-278,-319,-273,-238,-169
-96,-79,15,87,-57,-32,-127,-278,-319,-273,-238,-169
-90,-79,9,81,-51,-38,-127,-278,-319,-273,-226,-175
-90,-79,9,81,-51,-38,-121,-278,-319,-273,-226,-175
-96,-85,9,87,-57,-38,-121,-278,-319,-267,-226,-169
-96,-85,9,87,-57,-38,-127,-278,-319,-267,-232,-163
-102,-85,15,87,-63,-38,-127,-284,-319,-273,-232,-169
-96,-85,9,87,-57,-38,-127,-284,-319,-273,-232,-169
-96,-85,9,87,-57,-38,-133,-284,-319,-273,-238,-169
-90,-85,3,81,-51,-44,-133,-284,-319,-273,-244,-175
-90,-85,3,81,-51,-44,-133,-284,-319,-273,-244,-175
-90,-85,3,81,-51,-44,-133,-284,-319,-273,-238,-175
-90,-85,3,81,-51,-44,-133,-290,-325,-273,-244,-175
-90,-85,3,81,-51,-44,-127,-290,-325,-273,-244,-175
-90,-79,9,81,-51,-38,-127,-290,-331,-273,-244,-169
-90,-79,9,81,-51,-38,-127,-290,-331,-273,-244,-163
-84,-79,3,81,-45,-38,-127,-284,-331,-279,-244,-163
-90,-85,3,81,-51,-44,-127,-284,-331,-285,-244,-163
-96,-91,3,93,-51,-44,-133,-290,-331,-285,-244,-169
-96,-91,3,93,-51,-44,-133,-290,-331,-285,-238,-169
-102,-91,9,93,-57,-44,-133,-296,-331,-285,-232,-169
-102,-85,15,87,-63,-38,-133,-296,-331,-273,-232,-169
-102,-79,21,87,-63,-32,-133,-296,-331,-273,-226,-175
-102,-79,21,87,-63,-32,-133,-296,-331,-267,-226,-175
-102,-79,21,87,-63,-32,-139,-296,-331,-273,-226,-175
-102,-79,21,87,-63,-32,-133,-296,-331,-267,-226,-175
-96,-79,15,87,-57,-32,-133,-296,-331,-273,-220,-169
-96,-79,15,87,-57,-32,-133,-296,-331,-273,-226,-169
-90,-73,15,75,-57,-32,-133,-296,-331,-273,-226,-175
-96,-73,21,81,-63,-26,-133,-296,-331,-279,-232,-181
-102,-85,15,87,-63,-38,-139,-296,-337,-279,-232,-181
-108,-85,21,93,-69,-32,-139,-302,-337,-285,-232,-187
-114,-91,21,99,-69,-38,-145,-302,-343,-285,-238,-193
-108,-91,15,99,-63,-38,-145,-302,-337,-291,-238,-193
-102,-91,9,93,-57,-44,-145,-302,-331,-291,-238,-193
-102,-91,9,93,-57,-44,-151,-302,-331,-291,-244,-199
-102,-91,9,93,-57,-44,-145,-302,-325,-291,-244,-199
-108,-97,9,99,-63,-44,-139,-296,-325,-291,-238,-187
-108,-91,15,99,-63,-38,-139,-296,-319,-285,-238,-187
-108,-85,21,93,-69,-32,-133,-290,-319,-285,-232,-187
-102,-85,15,87,-63,-38,-127,-290,-319,-279,-226,-187
-96,-79,15,87,-57,-32,-127,-284,-319,-279,-226,-187
-84,-63,21,75,-51,-20,-127,-278,-313,-273,-220,-187
-72,-45,27,57,-51,-8,-121,-278,-301,-261,-214,-181
-66,-27,39,45,-51,4,-121,-272,-295,-255,-208,-181
-66,-15,51,39,-57,16,-121,-266,-283,-249,-202,-175
-66,-3,63,33,-63,28,-115,-260,-277,-243,-196,-169
-72,3,75,33,-75,40,-115,-260,-271,-237,-190,-169
-66,15,81,21,-75,46,-115,-254,-265,-231,-178,-163
-66,27,93,15,-81,58,-109,-248,-259,-225,-166,-145
-60,39,99,10,-81,70,-97,-248,-265,-225,-160,-139
-54,45,99,5,-75,70,-97,-248,-259,-219,-154,-139
-54,45,99,5,-75,70,-97,-248,-259,-219,-154,-139
-54,45,99,5,-75,70,-97,-242,-253,-219,-154,-139
-48,45,93,5,-69,70,-97,-248,-247,-219,-160,-139
-48,45,93,5,-69,70,-97,-242,-241,-207,-160,-133
-36,45,81,-1,-57,64,-85,-230,-235,-195,-148,-127
-30,51,81,-13,-57,64,-85,-218,-223,-189,-142,-121
-18,51,69,-19,-45,58,-91,-218,-217,-177,-130,-109
0,63,63,-31,-33,64,-103,-218,-217,-171,-118,-97
6,69,63,-37,-27,64,-121,-224,-217,-171,-112,-97
12,75,63,-43,-27,70,-139,-236,-223,-171,-112,-91
12,75,63,-43,-27,70,-151,-248,-235,-177,-112,-85
12,81,69,-43,-27,76,-157,-254,-241,-183,-118,-85
12,81,69,-43,-27,76,-169,-266,-241,-183,-118,-85
12,75,63,-43,-27,70,-175,-272,-247,-189,-124,-85
12,69,57,-37,-21,64,-181,-278,-259,-195,-130,-91
12,63,51,-37,-21,58,-181,-278,-265,-195,-136,-91
12,51,39,-31,-15,46,-181,-284,-277,-201,-142,-97
12,45,33,-25,-9,40,-181,-284,-277,-207,-148,-103
6,33,27,-19,-9,28,-175,-290,-289,-213,-154,-109
0,21,21,-7,-9,22,-175,-284,-283,-219,-148,-109
-6,9,15,-1,-9,10,-169,-284,-283,-219,-148,-109
-6,3,9,-1,-9,4,-163,-284,-283,-219,-148,-103
-6,-9,-3,5,-3,-8,-163,-278,-283,-225,-154,-103
-6,-15,-9,10,3,-14,-163,-278,-283,-225,-160,-97
-6,-21,-15,10,3,-20,-157,-278,-289,-225,-166,-103
-12,-27,-15,21,3,-20,-157,-278,-289,-231,-166,-103
-18,-39,-21,27,3,-32,-157,-284,-295,-237,-172,-103
-30,-51,-21,39,-3,-38,-163,-290,-301,-243,-184,-115
-42,-57,-15,45,-15,-38,-163,-302,-313,-249,-190,-127
-48,-63,-15,57,-15,-38,-163,-308,-319,-261,-196,-133
-54,-68,-15,57,-21,-44,-163,-308,-319,-261,-202,-139
-66,-68,-3,63,-33,-38,-163,-308,-319,-261,-202,-139
-78,-73,3,69,-45,-38,-169,-308,-319,-261,-202,-139
-90,-73,15,75,-57,-32,-163,-308,-319,-267,-202,-139
-102,-79,21,87,-63,-32,-157,-302,-325,-267,-202,-151
-108,-85,21,93,-69,-32,-151,-296,-319,-261,-202,-151
-108,-85,21,93,-69,-32,-145,-284,-313,-255,-202,-151
-108,-91,15,99,-63,-38,-133,-278,-307,-255,-202,-151
-108,-97,9,99,-63,-44,-127,-266,-295,-243,-196,-145
-108,-97,9,99,-63,-44,-121,-260,-283,-231,-190,-139
-108,-103,3,105,-57,-50,-109,-242,-265,-225,-178,-139
-108,-103,3,105,-57,-50,-97,-230,-247,-213,-172,-127
-102,-97,3,93,-57,-50,-91,-212,-235,-201,-154,-115
-96,-97,-3,93,-51,-50,-85,-200,-223,-189,-142,-103
-84,-91,-9,87,-39,-50,-73,-182,-205,-171,-124,-85
-78,-97,-21,81,-33,-62,-67,-164,-187,-153,-112,-73
-78,-91,-15,81,-33,-56,-55,-152,-169,-135,-106,-67
-66,-91,-27,75,-21,-62,-43,-134,-145,-117,-88,-55
-54,-79,-27,63,-15,-56,-25,-110,-121,-99,-76,-37
-42,-79,-39,57,-3,-62,-13,-86,-97,-75,-64,-19
-36,-79,-45,57,3,-62,-1,-74,-79,-63,-52,-8
-24,-79,-57,51,15,-68,5,-62,-67,-51,-40,-3
-6,-79,-75,39,33,-80,11,-50,-55,-33,-22,15
18,-85,-105,27,57,-96,11,-26,-37,-15,-10,27
42,-91,-133,21,85,-114,23,-2,-19,3,2,45
58,-97,-157,15,103,-126,23,22,-1,25,20,63
76,-97,-175,10,121,-132,29,40,17,43,32,75
100,-103,-205,5,151,-150,41,62,39,61,49,87
124,-103,-229,-7,175,-162,46,86,63,85,66,111
142,-91,-235,-25,187,-162,69,122,111,115,90,141
148,-79,-229,-31,187,-150,117,182,171,151,126,171
148,-68,-217,-37,181,-138,195,278,267,205,156,201
166,-57,-223,-55,193,-138,303,416,387,259,186,219
190,-57,-247,-67,217,-150,423,596,531,313,216,243
238,-63,-301,-85,271,-180,561,806,693,403,270,285
298,-57,-355,-121,325,-204,687,1052,891,523,348,351
376,-57,-433,-157,403,-240,831,1340,1119,673,450,441
466,-63,-529,-199,499,-294,999,1682,1395,871,582,561
586,-57,-643,-265,613,-348,1173,2060,1707,1105,750,717
730,-39,-769,-343,751,-402,1329,2402,2013,1381,960,921
874,-15,-889,-427,883,-450,1437,2659,2283,1687,1206,1167
1024,21,-1003,-517,1015,-486,1461,2779,2486,2011,1470,1431
1168,81,-1087,-619,1129,-498,1383,2755,2588,2317,1752,1701
1312,159,-1153,-733,1231,-492,1257,2683,2672,2646,2052,1989
1444,261,-1183,-847,1315,-456,1107,2587,2744,2982,2364,2289
1558,357,-1201,-955,1381,-420,945,2491,2804,3312,2663,2570
1600,435,-1165,-1015,1381,-360,837,2378,2852,3618,2933,2828
1558,513,-1045,-1033,1303,-264,765,2198,2846,3840,3125,3002
1456,543,-913,-997,1183,-180,711,1988,2774,3900,3191,3062
1318,513,-805,-913,1063,-144,663,1760,2618,3810,3107,2996
1144,435,-709,-787,925,-132,627,1538,2397,3570,2897,2810
940,333,-607,-631,775,-132,609,1292,2109,3210,2591,2528
676,195,-481,-433,577,-138,609,1016,1749,2706,2172,2127
400,51,-349,-223,373,-144,621,734,1329,2125,1704,1671
118,-85,-205,-19,157,-144,627,446,879,1495,1212,1179
-132,-199,-69,165,-33,-132,627,182,471,901,756,711
-312,-271,39,291,-177,-114,585,-26,159,463,402,351
-414,-313,99,357,-261,-108,501,-188,-61,157,150,111
-468,-349,117,405,-297,-114,399,-326,-229,-45,-16,-43
-498,-379,117,435,-309,-132,285,-446,-361,-195,-142,-151
-498,-409,87,447,-297,-162,165,-542,-457,-303,-238,-217
-474,-439,33,453,-255,-204,29,-620,-535,-375,-310,-265
-444,-439,3,441,-225,-216,-109,-668,-583,-423,-346,-301
-414,-427,-15,417,-201,-222,-217,-686,-607,-441,-364,-313
-390,-403,-15,393,-189,-210,-253,-662,-601,-453,-376,-325
-360,-373,-15,363,-177,-192,-253,-614,-583,-453,-382,-325
-342,-343,-3,339,-171,-174,-235,-566,-559,-459,-388,-331
-324,-313,9,315,-171,-150,-211,-518,-541,-459,-388,-319
-306,-277,27,285,-171,-126,-181,-470,-511,-447,-376,-307
-288,-235,51,261,-171,-91,-157,-422,-463,-423,-358,-289
-264,-187,75,225,-171,-56,-139,-380,-409,-393,-334,-271
-240,-151,87,195,-165,-32,-115,-338,-361,-363,-310,-253
-222,-127,93,171,-159,-20,-109,-308,-319,-345,-298,-241
-204,-109,93,153,-153,-8,-91,-284,-295,-333,-292,-241
-204,-103,99,153,-153,-2,-79,-260,-283,-327,-292,-229
-198,-103,93,147,-147,-8,-73,-242,-283,-327,-298,-229
-198,-97,99,141,-153,-2,-67,-242,-289,-327,-298,-235
-198,-97,99,141,-153,-2,-67,-242,-301,-333,-298,-235
-192,-91,99,141,-147,4,-67,-248,-307,-333,-304,-241
-198,-91,105,141,-153,4,-79,-254,-307,-333,-298,-241
-192,-91,99,141,-147,4,-79,-254,-301,-327,-298,-241
-192,-91,99,141,-147,4,-79,-254,-295,-321,-292,-241
-186,-85,99,129,-147,4,-85,-254,-289,-309,-292,-235
-180,-79,99,129,-141,10,-91,-254,-283,-303,-292,-235
-174,-79,93,123,-135,4,-91,-248,-283,-303,-292,-235
-174,-68,105,117,-141,16,-85,-242,-277,-303,-292,-235
-174,-68,105,117,-141,16,-85,-242,-277,-303,-292,-235
-168,-68,99,117,-135,16,-85,-230,-271,-303,-298,-235
-162,-63,99,111,-129,16,-91,-224,-271,-303,-298,-235
-162,-63,99,111,-129,16,-91,-224,-271,-297,-292,-229
-162,-63,99,111,-129,16,-91,-218,-271,-297,-292,-229
-162,-63,99,111,-129,16,-91,-212,-265,-291,-292,-223
-162,-63,99,111,-129,16,-91,-206,-259,-291,-286,-217
-162,-63,99,111,-129,16,-85,-200,-259,-291,-280,-217
-156,-63,93,111,-123,16,-85,-194,-247,-291,-280,-217
-156,-57,99,105,-129,22,-85,-194,-241,-291,-280,-217
-156,-63,93,111,-123,16,-79,-188,-235,-285,-280,-217
-156,-57,99,105,-129,22,-73,-188,-229,-285,-280,-217
-156,-57,99,105,-129,22,-73,-182,-223,-291,-280,-223
-150,-51,99,99,-123,22,-73,-170,-217,-291,-274,-217
-156,-51,105,105,-129,28,-73,-170,-217,-291,-268,-217
-156,-45,111,99,-135,34,-73,-158,-211,-297,-262,-217
-150,-45,105,93,-129,28,-73,-152,-211,-297,-262,-217
-138,-33,105,81,-123,34,-67,-146,-205,-291,-250,-205
-132,-27,105,81,-117,40,-67,-140,-199,-285,-244,-199
-126,-21,105,69,-117,40,-67,-134,-193,-285,-244,-193
-126,-15,111,69,-117,46,-67,-128,-187,-279,-238,-193
-126,-15,111,69,-117,46,-61,-122,-187,-273,-232,-187
-126,-9,117,63,-123,52,-61,-110,-181,-267,-232,-187
-126,-9,117,63,-123,52,-61,-104,-181,-261,-226,-187
-126,-3,123,63,-123,58,-67,-98,-169,-249,-226,-181
-126,3,129,57,-129,64,-67,-98,-157,-237,-220,-169
-126,9,135,57,-129,70,-73,-86,-151,-237,-220,-169
-120,9,129,57,-123,70,-73,-80,-145,-231,-214,-163
-120,9,129,57,-123,70,-73,-74,-133,-225,-208,-157
-114,3,117,51,-117,58,-73,-74,-127,-219,-208,-151
-108,3,111,51,-111,58,-73,-68,-121,-207,-202,-145
-108,9,117,51,-111,64,-67,-62,-115,-201,-196,-139
-102,9,111,45,-105,58,-61,-56,-103,-183,-190,-127
-102,9,111,45,-105,58,-61,-56,-97,-171,-190,-127
-96,15,111,39,-105,64,-61,-50,-85,-153,-178,-121
-102,21,123,39,-111,70,-61,-38,-79,-141,-172,-115
-102,27,129,33,-117,76,-67,-26,-73,-135,-166,-109
-102,33,135,33,-117,82,-67,-20,-61,-129,-166,-103
-96,39,135,27,-117,88,-61,-14,-49,-123,-160,-103
-90,45,135,21,-111,88,-55,-2,-37,-105,-148,-97
-84,51,135,15,-111,94,-49,4,-25,-99,-142,-85
-78,57,135,10,-105,94,-37,10,-13,-87,-136,-85
-78,63,141,5,-111,100,-31,22,-1,-75,-130,-79
-78,63,141,5,-111,100,-31,28,11,-63,-118,-73
-78,63,141,5,-111,100,-25,40,22,-57,-112,-67
-78,69,147,5,-111,106,-13,46,27,-45,-94,-55
-72,69,141,5,-105,106,-7,57,39,-27,-88,-43
-66,75,141,-7,-105,106,-1,74,51,-9,-76,-25
-60,87,147,-13,-105,118,5,92,63,3,-64,-19
-60,87,147,-13,-105,118,5,116,75,15,-58,-19
-54,93,147,-19,-99,118,17,134,93,20,-52,-19
-48,105,153,-25,-99,130,17,146,105,31,-40,-13
-42,105,147,-31,-93,124,23,170,123,37,-28,-8
-36,117,153,-37,-93,136,23,188,141,55,-16,-3
-30,123,153,-49,-93,136,29,212,165,67,-4,3
-24,129,153,-49,-87,142,35,236,183,79,2,15
-24,135,159,-55,-93,148,41,260,207,91,20,27
-12,147,159,-67,-87,154,46,284,231,115,26,39
-6,153,159,-73,-81,154,51,308,255,133,38,45
6,165,159,-85,-75,160,51,332,273,145,49,57
12,177,165,-91,-75,172,63,356,297,169,60,69
18,183,165,-103,-75,172,69,380,315,181,72,81
30,189,159,-109,-63,172,75,404,339,193,90,93
36,201,165,-115,-63,184,87,434,363,211,108,105
47,207,159,-127,-57,184,93,458,387,235,126,117
47,213,165,-127,-57,190,99,488,417,259,144,135
58,231,171,-145,-57,202,105,518,441,283,168,153
70,243,171,-157,-51,208,111,548,465,313,186,171
88,255,165,-169,-39,214,117,572,489,331,198,189
94,261,165,-175,-33,214,123,596,519,349,216,213
106,267,159,-187,-27,214,135,620,543,373,234,231
112,279,165,-193,-27,226,147,644,567,391,252,243
124,291,165,-205,-21,232,159,668,597,415,276,267
136,297,159,-211,-9,232,165,686,615,439,294,279
142,303,159,-223,-9,232,171,710,639,463,312,291
154,309,153,-229,3,232,177,728,663,487,330,309
166,315,147,-241,9,232,177,746,681,511,354,333
178,327,147,-253,15,238,177,764,705,535,366,345
190,333,141,-259,27,238,177,782,723,559,378,357
202,345,141,-271,33,244,183,794,741,577,396,363
208,351,141,-277,33,250,189,806,759,607,408,369
220,351,129,-283,45,244,195,818,771,619,426,381
226,357,129,-289,51,244,201,830,783,631,438,393
232,357,123,-289,57,244,201,842,801,649,456,417
238,363,123,-301,57,244,207,854,813,661,468,429
238,363,123,-301,57,244,207,866,825,673,480,435
244,363,117,-301,63,244,207,866,831,679,486,441
244,363,117,-301,63,244,201,860,831,691,492,441
244,357,111,-295,69,238,201,860,831,691,498,447
244,351,105,-295,69,232,201,854,831,697,504,447
244,339,93,-289,75,220,201,842,819,691,498,447
250,339,87,-295,80,214,195,824,807,685,492,447
244,327,81,-283,80,208,189,806,789,673,486,441
238,315,75,-277,80,196,177,782,765,655,480,435
232,309,75,-265,80,196,171,758,741,643,474,429
226,303,75,-265,75,190,165,728,711,625,462,417
226,303,75,-265,75,190,159,692,681,601,450,405
214,291,75,-253,69,184,153,656,651,571,438,387
202,273,69,-235,69,172,147,620,615,547,420,375
190,255,63,-223,63,160,135,584,579,511,402,357
172,237,63,-199,57,154,117,542,537,475,378,333
160,219,57,-187,51,142,105,500,495,445,348,303
148,201,51,-169,51,130,99,464,453,409,318,279
130,189,57,-157,39,124,87,422,411,367,288,249
118,177,57,-145,33,118,75,374,363,331,264,213
106,159,51,-133,27,106,63,332,321,295,240,189
94,147,51,-121,21,100,51,284,273,253,210,165
76,129,51,-97,15,94,46,236,231,217,180,135
58,111,51,-85,3,82,35,200,195,187,156,111
47,99,51,-73,-3,76,23,164,153,151,138,87
36,81,45,-55,-3,64,5,128,117,115,114,63
24,69,45,-43,-9,58,-7,98,81,79,90,39
6,51,45,-31,-21,46,-13,68,51,49,72,21
-6,39,45,-19,-27,40,-19,46,22,25,54,9
-18,21,39,-1,-27,28,-31,10,-7,3,32,-13
-30,9,39,10,-33,22,-37,-26,-31,-21,8,-31
-36,3,39,15,-39,22,-43,-50,-55,-45,-10,-49
-36,-9,27,21,-33,10,-55,-74,-73,-69,-28,-73
-48,-27,21,39,-33,-2,-55,-86,-91,-87,-40,-85
-54,-33,21,39,-39,-8,-61,-98,-109,-105,-52,-97
-66,-51,15,57,-39,-20,-67,-116,-127,-117,-64,-103
-78,-63,15,69,-45,-26,-73,-128,-145,-123,-76,-115
-84,-68,15,75,-51,-26,-79,-140,-157,-141,-88,-127
-90,-73,15,75,-57,-32,-85,-152,-169,-147,-100,-139
-84,-68,15,75,-51,-26,-85,-164,-181,-153,-106,-139
-84,-68,15,75,-51,-26,-85,-170,-187,-159,-112,-139
-84,-68,15,75,-51,-26,-91,-182,-193,-171,-118,-145
-90,-73,15,75,-57,-32,-97,-194,-205,-177,-124,-151
-96,-79,15,87,-57,-32,-97,-200,-217,-183,-130,-157
-96,-85,9,87,-57,-38,-103,-206,-223,-183,-130,-157
-96,-85,9,87,-57,-38,-103,-206,-229,-189,-136,-157
-96,-85,9,87,-57,-38,-103,-212,-229,-189,-142,-163
-102,-85,15,87,-63,-38,-97,-212,-235,-189,-148,-169
-102,-85,15,87,-63,-38,-91,-212,-235,-183,-142,-163
-102,-91,9,93,-57,-44,-91,-212,-235,-189,-148,-163
-102,-91,9,93,-57,-44,-97,-218,-235,-189,-148,-169
-108,-97,9,99,-63,-44,-97,-212,-235,-195,-148,-169
-108,-97,9,99,-63,-44,-97,-212,-235,-201,-148,-169
-108,-97,9,99,-63,-44,-97,-218,-241,-207,-154,-175
-102,-97,3,93,-57,-50,-97,-212,-241,-207,-154,-175
-102,-97,3,93,-57,-50,-97,-212,-241,-207,-160,-175
-108,-97,9,99,-63,-44,-91,-212,-247,-207,-160,-175
-108,-103,3,105,-57,-50,-91,-206,-253,-207,-166,-169
-108,-97,9,99,-63,-44,-85,-206,-253,-207,-160,-169
-108,-91,15,99,-63,-38,-85,-212,-253,-207,-154,-163
-114,-85,27,93,-75,-32,-85,-212,-253,-213,-154,-157
-108,-85,21,93,-69,-32,-85,-212,-247,-207,-154,-157
-108,-85,21,93,-69,-32,-91,-212,-247,-213,-154,-151
-108,-85,21,93,-69,-32,-91,-206,-247,-213,-154,-145
-108,-85,21,93,-69,-32,-91,-206,-241,-213,-154,-139
-114,-85,27,93,-75,-32,-97,-212,-241,-207,-148,-139
-114,-91,21,99,-69,-38,-97,-212,-241,-207,-154,-139
-120,-91,27,105,-75,-32,-97,-218,-247,-201,-154,-145
-114,-85,27,93,-75,-32,-97,-218,-247,-201,-154,-145
-108,-79,27,93,-69,-26,-91,-218,-247,-201,-148,-139
-108,-79,27,93,-69,-26,-91,-218,-247,-201,-148,-139
-114,-79,33,93,-75,-26,-97,-224,-247,-207,-142,-139
-114,-79,33,93,-75,-26,-91,-224,-247,-207,-148,-139
-114,-79,33,93,-75,-26,-91,-230,-247,-207,-148,-145
-108,-73,33,87,-75,-20,-97,-230,-247,-207,-148,-145
-108,-73,33,87,-75,-20,-103,-230,-247,-213,-148,-145
-114,-73,39,87,-81,-20,-103,-230,-241,-213,-148,-139
-114,-68,45,87,-81,-14,-103,-230,-241,-213,-154,-145
-114,-68,45,87,-81,-14,-103,-230,-241,-213,-154,-145
-120,-68,51,93,-87,-8,-109,-230,-241,-213,-154,-151
-120,-68,51,93,-87,-8,-103,-230,-241,-213,-148,-151
-120,-68,51,93,-87,-8,-103,-236,-247,-213,-148,-151
-126,-68,57,93,-93,-8,-103,-236,-247,-219,-148,-151
-120,-68,51,93,-87,-8,-103,-236,-247,-225,-154,-145
-120,-68,51,93,-87,-8,-103,-242,-247,-225,-154,-151
-114,-68,45,87,-81,-14,-109,-242,-253,-231,-154,-151
-114,-73,39,87,-81,-20,-109,-236,-253,-225,-160,-157
-114,-73,39,87,-81,-20,-109,-236,-253,-231,-160,-163
-120,-73,45,93,-87,-14,-109,-242,-253,-231,-166,-163
-120,-73,45,93,-87,-14,-115,-242,-259,-237,-166,-157
-120,-68,51,93,-87,-8,-103,-242,-265,-237,-166,-157
-114,-63,51,87,-81,-8,-103,-242,-259,-231,-154,-151
-114,-57,57,81,-87,-2,-109,-248,-253,-225,-154,-151
-114,-63,51,87,-81,-8,-109,-254,-253,-237,-160,-151
-108,-63,45,87,-75,-8,-115,-254,-253,-243,-160,-157
-114,-68,45,87,-81,-14,-115,-260,-259,-243,-160,-157
-108,-68,39,87,-75,-14,-115,-260,-259,-249,-166,-157
-108,-68,39,87,-75,-14,-115,-266,-265,-249,-166,-163
-114,-68,45,87,-81,-14,-121,-260,-271,-243,-166,-169
-114,-68,45,87,-81,-14,-127,-266,-271,-243,-166,-175
-114,-68,45,87,-81,-14,-127,-272,-277,-249,-166,-181
-114,-68,45,87,-81,-14,-133,-272,-277,-249,-160,-181
-114,-68,45,87,-81,-14,-127,-272,-277,-249,-160,-175
-108,-63,45,87,-75,-8,-127,-278,-283,-249,-160,-169
-108,-57,51,81,-81,-2,-127,-278,-283,-249,-160,-169
-102,-57,45,75,-75,-8,-127,-278,-283,-243,-160,-169
-102,-57,45,75,-75,-8,-127,-284,-283,-249,-166,-175
-90,-63,27,75,-57,-20,-133,-284,-289,-255,-172,-181
-90,-63,27,75,-57,-20,-133,-290,-289,-255,-172,-187
-102,-68,33,81,-69,-20,-133,-290,-289,-261,-178,-193
-108,-68,39,87,-75,-14,-133,-290,-289,-261,-178,-193
-108,-68,39,87,-75,-14,-139,-296,-289,-255,-184,-193
-108,-68,39,87,-75,-14,-139,-290,-289,-255,-190,-193
-102,-68,33,81,-69,-20,-127,-290,-289,-255,-184,-199
-96,-68,27,81,-63,-20,-127,-290,-289,-255,-178,-199
-102,-68,33,81,-69,-20,-127,-290,-289,-261,-184,-199
-96,-68,27,81,-63,-20,-127,-290,-289,-261,-184,-199
-96,-68,27,81,-63,-20,-127,-290,-295,-261,-178,-193
-96,-68,27,81,-63,-20,-127,-290,-295,-255,-184,-187
-102,-68,33,81,-69,-20,-133,-290,-301,-261,-184,-187
-114,-68,45,87,-81,-14,-133,-290,-301,-261,-184,-193
-120,-79,39,99,-81,-20,-139,-296,-301,-261,-184,-193
-114,-73,39,87,-81,-20,-139,-296,-301,-267,-184,-193
-108,-73,33,87,-75,-20,-139,-290,-295,-261,-184,-193
-108,-73,33,87,-75,-20,-139,-290,-295,-267,-190,-193
-114,-79,33,93,-75,-26,-133,-290,-295,-261,-196,-193
-114,-79,33,93,-75,-26,-133,-290,-295,-261,-196,-193
-108,-79,27,93,-69,-26,-133,-284,-301,-267,-202,-199
-108,-79,27,93,-69,-26,-133,-284,-301,-267,-208,-199
-108,-79,27,93,-69,-26,-133,-284,-301,-267,-214,-199
-108,-85,21,93,-69,-32,-133,-284,-307,-273,-214,-199
-108,-85,21,93,-69,-32,-133,-290,-307,-273,-208,-199
-108,-85,21,93,-69,-32,-133,-290,-307,-273,-208,-193
-108,-85,21,93,-69,-32,-133,-296,-307,-273,-208,-193
-102,-79,21,87,-63,-32,-139,-296,-307,-273,-208,-187
-102,-79,21,87,-63,-32,-139,-302,-313,-279,-208,-187
-102,-79,21,87,-63,-32,-139,-296,-313,-279,-214,-187
-96,-79,15,87,-57,-32,-139,-296,-319,-285,-214,-187
-96,-79,15,87,-57,-32,-133,-296,-319,-285,-214,-193
-96,-73,21,81,-63,-26,-127,-290,-319,-279,-214,-193
-102,-73,27,81,-69,-26,-127,-290,-319,-273,-208,-187
-108,-73,33,87,-75,-20,-127,-290,-319,-273,-208,-187
-108,-73,33,87,-75,-20,-127,-296,-319,-279,-208,-187
-108,-73,33,87,-75,-20,-133,-296,-319,-279,-214,-193
-108,-79,27,93,-69,-26,-133,-296,-319,-279,-220,-187
-114,-85,27,93,-75,-32,-139,-296,-319,-279,-220,-187
-114,-85,27,93,-75,-32,-139,-296,-319,-279,-220,-187
-108,-91,15,99,-63,-38,-139,-302,-319,-273,-220,-187
-114,-91,21,99,-69,-38,-139,-302,-319,-279,-220,-181
-108,-85,21,93,-69,-32,-139,-302,-325,-285,-220,-187
-108,-85,21,93,-69,-32,-139,-302,-325,-285,-226,-187
-108,-85,21,93,-69,-32,-133,-302,-325,-291,-220,-193
-108,-85,21,93,-69,-32,-127,-302,-325,-291,-220,-193
-102,-79,21,87,-63,-32,-127,-302,-325,-291,-220,-193
-96,-79,15,87,-57,-32,-133,-302,-325,-291,-214,-187
-90,-79,9,81,-51,-38,-133,-302,-325,-285,-214,-187
-90,-79,9,81,-51,-38,-133,-308,-319,-285,-214,-181
-96,-85,9,87,-57,-38,-133,-308,-319,-291,-214,-187
-96,-85,9,87,-57,-38,-139,-308,-319,-291,-220,-187
-102,-85,15,87,-63,-38,-139,-308,-319,-291,-220,-193
-108,-85,21,93,-69,-32,-139,-308,-319,-291,-220,-193
-108,-85,21,93,-69,-32,-145,-308,-325,-291,-220,-193
-114,-79,33,93,-75,-26,-145,-308,-325,-291,-220,-193
-114,-79,33,93,-75,-26,-145,-308,-319,-285,-220,-193
-120,-85,33,99,-81,-26,-145,-308,-319,-285,-220,-187
-120,-91,27,105,-75,-32,-145,-308,-319,-285,-226,-187
-114,-85,27,93,-75,-32,-139,-314,-319,-291,-226,-187
-108,-85,21,93,-69,-32,-139,-314,-325,-291,-226,-187
-108,-85,21,93,-69,-32,-139,-314,-325,-291,-226,-193
-102,-79,21,87,-63,-32,-139,-308,-331,-297,-226,-199
-96,-79,15,87,-57,-32,-133,-308,-331,-297,-226,-205
-96,-79,15,87,-57,-32,-133,-308,-331,-291,-226,-205
-96,-79,15,87,-57,-32,-139,-308,-331,-291,-226,-199
-102,-79,21,87,-63,-32,-139,-308,-331,-285,-232,-205
-102,-79,21,87,-63,-32,-139,-308,-331,-291,-232,-205
-102,-85,15,87,-63,-38,-145,-314,-337,-291,-238,-211
-102,-91,9,93,-57,-44,-145,-308,-331,-291,-238,-211
-102,-85,15,87,-63,-38,-139,-308,-325,-285,-238,-211
-102,-85,15,87,-63,-38,-145,-308,-325,-285,-238,-205
-108,-91,15,99,-63,-38,-151,-314,-325,-291,-238,-211
-114,-97,15,99,-69,-44,-151,-314,-325,-291,-244,-211
-120,-103,15,111,-69,-44,-151,-314,-325,-297,-244,-205
-120,-103,15,111,-69,-44,-151,-320,-325,-297,-250,-211
-108,-91,15,99,-63,-38,-145,-314,-325,-291,-244,-205
-108,-85,21,93,-69,-32,-139,-314,-325,-291,-244,-205
-108,-85,21,93,-69,-32,-145,-314,-331,-291,-244,-211
-102,-79,21,87,-63,-32,-139,-314,-331,-291,-244,-217
-96,-79,15,87,-57,-32,-139,-308,-331,-291,-244,-223
-102,-79,21,87,-63,-32,-139,-308,-331,-291,-244,-223
-102,-79,21,87,-63,-32,-139,-308,-331,-291,-244,-223
-96,-73,21,81,-63,-26,-139,-308,-325,-291,-244,-217
-90,-68,21,75,-57,-26,-139,-302,-325,-285,-238,-205
-90,-63,27,75,-57,-20,-133,-296,-319,-279,-238,-193
-90,-57,33,69,-63,-14,-133,-290,-307,-267,-232,-187
-84,-51,33,69,-57,-8,-127,-290,-301,-261,-226,-187
-84,-45,39,63,-63,-2,-121,-290,-295,-261,-220,-181
-78,-33,45,51,-63,4,-115,-284,-289,-255,-214,-175
-72,-15,57,45,-63,22,-109,-278,-283,-249,-202,-169
-66,3,69,27,-69,34,-109,-272,-277,-237,-184,-163
-66,15,81,21,-75,46,-109,-266,-271,-231,-178,-157
-66,21,87,21,-75,52,-103,-260,-265,-225,-172,-145
-60,33,93,15,-75,64,-103,-254,-259,-219,-172,-139
-60,33,93,15,-75,64,-97,-248,-259,-219,-172,-127
-54,39,93,5,-75,64,-91,-248,-253,-213,-178,-127
-54,33,87,10,-69,58,-91,-248,-247,-213,-178,-127
-48,39,87,5,-69,64,-85,-242,-241,-207,-178,-127
-42,45,87,-1,-63,64,-85,-242,-235,-207,-178,-133
-30,45,75,-7,-51,58,-85,-236,-235,-207,-172,-133
-24,45,69,-7,-45,58,-85,-236,-229,-201,-166,-127
-12,51,63,-19,-39,58,-85,-224,-223,-189,-160,-121
6,75,69,-43,-33,70,-85,-218,-211,-177,-142,-103
18,87,69,-55,-27,76,-103,-218,-211,-165,-130,-91
24,93,69,-55,-21,82,-115,-218,-211,-165,-130,-85
24,93,69,-55,-21,82,-127,-224,-217,-165,-130,-85
24,93,69,-55,-21,82,-145,-230,-223,-171,-130,-85
30,93,63,-61,-15,76,-157,-236,-229,-165,-130,-79
30,93,63,-61,-15,76,-163,-248,-235,-165,-136,-79
36,93,57,-61,-9,76,-169,-260,-241,-171,-136,-85
36,81,45,-55,-3,64,-175,-266,-253,-177,-148,-85
30,69,39,-49,-3,52,-169,-272,-259,-183,-154,-91
24,63,39,-43,-9,52,-169,-272,-265,-195,-160,-97
18,51,33,-37,-9,40,-163,-278,-277,-201,-166,-103
12,45,33,-25,-9,40,-157,-278,-277,-201,-172,-109
12,39,27,-25,-9,34,-151,-272,-283,-201,-172,-103
12,27,15,-19,-3,22,-151,-272,-283,-207,-172,-103
12,9,-3,-7,9,4,-151,-266,-283,-207,-178,-109
12,3,-9,-7,9,-2,-151,-266,-283,-213,-184,-115
6,-9,-15,-1,9,-14,-145,-266,-283,-219,-190,-115
0,-21,-21,10,9,-20,-151,-272,-289,-225,-202,-127
-12,-33,-21,21,3,-26,-157,-278,-301,-231,-208,-133
-24,-45,-21,33,-3,-32,-157,-284,-307,-237,-214,-139
-36,-45,-9,39,-15,-26,-157,-296,-313,-243,-208,-145
-48,-51,-3,51,-21,-26,-157,-302,-319,-249,-208,-151
-54,-57,-3,51,-27,-32,-157,-302,-319,-255,-214,-157
-66,-57,9,57,-39,-26,-157,-302,-325,-261,-214,-157
-72,-51,21,63,-45,-14,-157,-308,-325,-267,-214,-163
-72,-57,15,63,-45,-20,-145,-308,-319,-273,-220,-169
-78,-57,21,63,-51,-20,-139,-302,-313,-273,-226,-169
-84,-63,21,75,-51,-20,-133,-296,-307,-273,-226,-175
-84,-63,21,75,-51,-20,-127,-290,-295,-261,-226,-175
-90,-68,21,75,-57,-26,-121,-284,-283,-249,-220,-169
-96,-68,27,81,-63,-20,-115,-278,-271,-243,-214,-169
-90,-68,21,75,-57,-26,-115,-266,-259,-231,-208,-169
-90,-73,15,75,-57,-32,-103,-248,-235,-219,-202,-157
-84,-73,9,75,-51,-32,-91,-236,-211,-207,-190,-145
-72,-68,3,69,-39,-32,-79,-218,-187,-195,-178,-133
-66,-68,-3,63,-33,-38,-73,-200,-163,-177,-166,-121
-60,-68,-9,63,-27,-38,-67,-188,-139,-165,-154,-115
-54,-68,-15,57,-21,-44,-61,-176,-109,-147,-136,-103
-42,-63,-21,51,-9,-44,-49,-158,-85,-129,-118,-91
-36,-57,-21,45,-9,-38,-43,-140,-61,-111,-106,-79
-24,-57,-33,39,3,-44,-31,-122,-37,-93,-94,-67
-18,-57,-39,33,9,-50,-19,-104,-19,-75,-82,-49
-18,-57,-39,33,9,-50,-7,-86,5,-69,-70,-31
-6,-57,-51,27,21,-56,-1,-68,17,-57,-52,-13
6,-57,-63,21,33,-62,5,-56,27,-45,-40,-8
24,-63,-87,21,57,-74,11,-38,45,-27,-28,9
42,-68,-111,10,75,-91,17,-20,69,-9,-10,27
70,-73,-145,-1,103,-108,23,4,93,15,2,45
94,-73,-169,-13,127,-120,29,28,123,31,20,63
112,-79,-193,-13,151,-132,35,52,147,49,38,81
142,-85,-229,-31,181,-156,41,74,171,73,54,99
166,-85,-253,-43,205,-168,46,104,201,103,78,123
184,-79,-265,-49,223,-168,69,146,243,133,114,153
196,-68,-265,-61,229,-162,123,212,309,187,150,189
208,-57,-265,-73,235,-156,207,320,411,247,186,225
220,-63,-283,-73,253,-168,315,470,531,301,222,249
256,-63,-319,-91,289,-186,447,656,669,367,258,285
310,-63,-373,-121,343,-216,567,872,831,457,318,333
376,-68,-445,-151,409,-252,687,1112,1011,577,396,405
466,-85,-553,-193,505,-318,825,1400,1221,721,504,495
574,-91,-667,-241,619,-378,975,1754,1491,919,636,609
712,-85,-799,-313,751,-438,1149,2144,1803,1159,810,771
868,-73,-943,-397,901,-504,1305,2503,2109,1447,1014,969
1024,-45,-1069,-487,1045,-552,1413,2761,2379,1747,1254,1203
1162,-21,-1183,-571,1171,-600,1449,2887,2570,2047,1494,1449
1300,33,-1267,-661,1285,-612,1401,2863,2678,2335,1758,1713
1426,105,-1321,-763,1375,-606,1293,2785,2756,2640,2040,1995
1540,201,-1339,-865,1441,-564,1143,2671,2810,2958,2328,2283
1636,273,-1363,-949,1501,-540,999,2557,2858,3258,2597,2546
1678,345,-1333,-1009,1507,-492,891,2438,2900,3528,2837,2762
1642,429,-1213,-1033,1429,-390,819,2264,2894,3726,3023,2924
1534,471,-1063,-1003,1297,-294,777,2054,2828,3792,3089,2972
1384,453,-931,-913,1159,-234,753,1838,2678,3684,2999,2888
1198,381,-817,-787,1009,-216,723,1604,2456,3432,2789,2696
970,279,-691,-625,829,-204,711,1346,2163,3066,2483,2414
688,159,-529,-421,607,-180,723,1070,1809,2580,2076,2025
388,27,-361,-205,373,-162,741,794,1407,2023,1632,1593
100,-91,-193,-1,145,-138,741,500,975,1423,1170,1125
-150,-187,-39,165,-57,-114,729,230,567,859,732,675
-318,-253,63,279,-195,-96,675,28,261,439,402,333
-402,-295,105,345,-255,-96,567,-140,39,157,174,93
-450,-331,117,387,-285,-108,447,-284,-133,-39,14,-61
-480,-361,117,417,-303,-120,333,-416,-265,-177,-100,-163
-492,-397,93,441,-297,-150,207,-512,-367,-273,-190,-235
-480,-415,63,447,-273,-174,69,-596,-451,-351,-256,-271
-462,-421,39,435,-255,-192,-61,-650,-505,-399,-310,-301
-444,-403,39,423,-243,-180,-157,-674,-535,-435,-334,-313
-426,-373,51,393,-243,-162,-205,-656,-535,-453,-346,-319
-396,-343,51,369,-225,-144,-217,-614,-523,-465,-352,-325
-360,-307,51,333,-207,-126,-211,-566,-511,-471,-358,-331
-324,-283,39,303,-183,-120,-205,-518,-487,-465,-352,-331
-294,-247,45,267,-171,-102,-193,-476,-457,-447,-346,-319
-270,-211,57,237,-165,-80,-175,-428,-415,-423,-328,-307
-246,-169,75,201,-165,-50,-157,-380,-361,-387,-304,-283
-234,-139,93,183,-165,-26,-145,-338,-313,-357,-280,-265
-222,-115,105,165,-165,-8,-127,-302,-277,-333,-268,-253
-222,-97,123,153,-177,10,-109,-278,-259,-327,-262,-247
-222,-91,129,153,-177,16,-97,-260,-259,-327,-262,-247
-210,-85,123,141,-171,16,-79,-248,-259,-321,-256,-247
-198,-73,123,129,-165,22,-79,-248,-259,-327,-256,-247
-186,-68,117,123,-153,22,-85,-248,-265,-327,-256,-247
-180,-68,111,123,-147,22,-97,-254,-271,-327,-262,-247
-174,-63,111,117,-141,22,-103,-260,-265,-321,-256,-247
-174,-57,117,111,-147,28,-109,-266,-259,-315,-250,-247
-180,-57,123,117,-153,34,-115,-260,-253,-309,-244,-235
-174,-51,123,111,-147,34,-115,-260,-253,-297,-238,-235
-168,-45,123,105,-147,40,-109,-254,-247,-291,-238,-229
-162,-39,123,99,-141,40,-109,-248,-247,-285,-232,-229
-156,-39,117,99,-135,40,-103,-242,-241,-279,-232,-229
-156,-33,123,93,-141,46,-103,-242,-241,-279,-226,-229
-156,-33,123,93,-141,46,-109,-236,-241,-279,-226,-235
-156,-33,123,93,-141,46,-109,-236,-241,-279,-226,-229
-156,-33,123,93,-141,46,-109,-230,-241,-273,-226,-223
-156,-27,129,93,-141,52,-109,-230,-235,-273,-220,-223
-156,-27,129,93,-141,52,-103,-224,-229,-273,-220,-223
-150,-27,123,87,-135,46,-97,-218,-229,-273,-220,-223
-150,-33,117,87,-135,40,-103,-218,-223,-279,-214,-229
-150,-27,123,87,-135,46,-97,-212,-217,-279,-214,-223
-144,-27,117,87,-129,46,-97,-206,-211,-279,-214,-217
-144,-27,117,87,-129,46,-97,-200,-205,-279,-214,-211
-138,-21,117,75,-129,46,-91,-188,-205,-279,-214,-205
-144,-21,123,81,-135,52,-91,-182,-199,-279,-214,-211
-138,-21,117,75,-129,46,-91,-170,-193,-285,-208,-205
-132,-9,123,69,-129,58,-91,-164,-193,-279,-208,-205
-132,-3,129,69,-129,64,-91,-158,-187,-285,-208,-199
-132,-3,129,69,-129,64,-97,-152,-181,-285,-202,-193
-126,3,129,57,-129,64,-97,-140,-175,-279,-196,-187
-126,3,129,57,-129,64,-103,-134,-169,-267,-190,-181
-132,3,135,63,-135,70,-103,-122,-163,-267,-190,-175
-138,3,141,63,-141,70,-103,-122,-157,-261,-190,-175
-138,-3,135,69,-135,64,-103,-122,-157,-261,-184,-169
-138,3,141,63,-141,70,-97,-116,-151,-255,-178,-163
-132,9,141,63,-135,76,-97,-110,-145,-249,-172,-163
-126,15,141,51,-135,76,-97,-104,-133,-243,-166,-151
-114,15,129,45,-123,70,-109,-98,-127,-237,-166,-151
-108,15,123,45,-117,70,-109,-92,-121,-225,-166,-151
-102,15,117,39,-111,64,-103,-86,-115,-213,-166,-145
-102,21,123,39,-111,70,-103,-80,-103,-201,-166,-139
-96,33,129,33,-111,82,-103,-80,-97,-195,-160,-133
-96,39,135,27,-117,88,-103,-74,-97,-189,-154,-133
-90,51,141,15,-117,94,-103,-74,-91,-183,-142,-127
-90,51,141,15,-117,94,-103,-68,-85,-177,-142,-121
-96,51,147,21,-123,100,-103,-62,-73,-165,-136,-115
-96,51,147,21,-123,100,-103,-62,-67,-159,-130,-115
-90,57,147,15,-117,100,-97,-50,-61,-147,-124,-109
-84,63,147,10,-117,106,-97,-44,-55,-141,-124,-103
-84,63,147,10,-117,106,-97,-38,-43,-135,-124,-97
-78,69,147,5,-111,106,-97,-32,-31,-129,-118,-91
-72,75,147,-1,-111,112,-85,-26,-19,-123,-112,-91
-72,75,147,-1,-111,112,-79,-14,-13,-111,-106,-85
-66,81,147,-7,-105,112,-79,-2,-1,-99,-100,-85
-66,87,153,-13,-111,118,-79,4,11,-87,-94,-85
-66,93,159,-13,-111,124,-73,10,17,-75,-88,-79
-60,99,159,-19,-111,130,-67,22,22,-63,-82,-73
-54,105,159,-25,-105,130,-61,40,33,-51,-70,-67
-48,111,159,-31,-105,136,-49,52,45,-39,-52,-49
-42,117,159,-37,-99,136,-43,62,57,-33,-40,-43
-36,117,153,-37,-93,136,-43,74,75,-15,-34,-37
-36,123,159,-43,-99,142,-31,92,87,-9,-28,-31
-30,129,159,-49,-93,142,-25,104,99,3,-16,-25
-18,135,153,-61,-87,142,-19,128,111,20,-10,-19
-18,141,159,-61,-87,148,-19,146,123,25,2,-13
-6,147,153,-73,-81,148,-13,170,141,37,14,-8
0,159,159,-79,-81,160,-7,200,159,55,26,3
12,171,159,-91,-75,166,-7,218,177,73,38,15
18,183,165,-103,-75,172,5,242,201,79,44,21
24,189,165,-103,-69,178,17,266,219,91,49,27
30,201,171,-115,-69,184,23,290,243,109,60,39
42,207,165,-127,-63,184,29,308,261,127,84,45
52,219,165,-133,-57,196,35,338,279,145,96,63
52,225,171,-133,-57,202,35,368,303,163,114,81
58,237,177,-145,-57,208,41,392,321,181,126,93
70,243,171,-157,-51,208,46,422,345,199,144,105
76,249,171,-157,-45,214,51,446,369,223,162,117
82,261,177,-169,-45,220,57,470,393,241,180,135
94,267,171,-181,-39,220,69,494,417,259,192,153
100,279,177,-187,-39,232,75,518,441,277,204,165
106,285,177,-193,-33,232,81,542,465,295,222,183
124,297,171,-205,-21,238,87,566,495,319,234,201
136,303,165,-217,-15,238,93,596,519,343,252,213
142,303,159,-223,-9,232,99,620,537,361,270,225
154,309,153,-229,3,232,99,638,549,379,282,237
166,321,153,-241,9,238,111,662,573,403,306,249
184,333,147,-253,21,244,123,680,591,421,318,261
190,345,153,-265,21,250,129,698,615,439,330,273
196,351,153,-271,21,256,141,716,633,463,348,291
208,357,147,-277,33,256,141,728,657,475,360,303
214,363,147,-289,33,256,141,746,675,487,366,309
220,363,141,-289,39,256,147,758,687,505,372,327
226,363,135,-295,45,250,153,776,705,523,384,339
232,363,129,-295,51,250,147,788,717,541,396,345
238,369,129,-301,57,250,153,800,729,559,408,357
244,369,123,-301,63,250,159,812,747,571,420,369
256,381,123,-313,69,256,165,824,759,589,432,393
268,381,111,-319,80,250,171,836,771,607,438,405
274,381,105,-325,85,244,171,836,777,613,450,411
286,381,93,-331,97,238,171,842,777,619,450,423
292,381,87,-331,103,238,165,836,783,625,456,423
292,375,81,-331,103,232,165,830,783,637,468,429
292,375,81,-331,103,232,159,824,771,631,468,429
286,369,81,-325,103,226,153,812,759,619,468,423
280,363,81,-319,97,226,153,794,747,607,462,423
274,351,75,-313,97,214,153,770,729,595,456,417
268,333,63,-295,103,202,141,752,705,583,444,405
256,321,63,-283,97,196,135,722,681,565,432,399
244,303,57,-271,91,184,129,692,651,547,414,381
238,297,57,-265,91,178,123,662,621,529,396,363
232,291,57,-259,85,178,117,632,591,505,378,351
220,279,57,-247,80,172,105,596,561,481,360,333
208,261,51,-229,80,160,99,560,531,451,348,321
190,243,51,-217,69,148,99,530,495,421,330,309
172,225,51,-193,63,142,87,494,459,391,312,291
160,213,51,-181,57,136,81,452,429,361,294,273
148,201,51,-169,51,130,75,416,387,331,270,255
136,183,45,-157,45,118,63,374,351,301,246,225
124,171,45,-145,39,112,57,332,309,265,228,201
112,153,39,-127,39,100,46,290,273,223,198,177
94,129,33,-109,33,82,41,242,237,187,174,147
76,111,33,-91,21,76,29,200,195,151,150,117
52,93,39,-67,9,70,11,164,153,115,132,93
47,87,39,-67,3,64,5,140,123,91,108,75
36,75,39,-55,-3,58,-7,110,93,67,90,57
30,69,39,-49,-3,52,-13,86,63,43,66,33
24,57,33,-37,-3,46,-19,57,39,25,49,21
12,45,33,-25,-9,40,-31,34,11,3,26,-3
0,27,27,-13,-15,28,-37,4,-13,-27,8,-19
-12,15,27,-1,-21,22,-43,-26,-43,-51,-10,-43
-18,9,27,5,-21,16,-49,-56,-67,-69,-22,-61
-24,-3,21,15,-21,10,-55,-80,-85,-87,-34,-73
-36,-9,27,21,-33,10,-55,-92,-97,-99,-46,-85
-42,-15,27,27,-33,4,-61,-104,-115,-111,-58,-91
-54,-21,33,33,-45,4,-67,-116,-121,-123,-64,-103
-60,-27,33,45,-45,4,-67,-128,-133,-135,-76,-115
-60,-27,33,45,-45,4,-73,-134,-145,-141,-88,-121
-66,-33,33,45,-51,-2,-79,-140,-151,-147,-94,-133
-66,-45,21,51,-45,-14,-79,-152,-163,-159,-106,-139
-66,-51,15,57,-39,-20,-79,-170,-175,-159,-112,-145
-66,-57,9,57,-39,-26,-91,-182,-181,-171,-118,-151
-72,-63,9,69,-39,-26,-97,-188,-187,-177,-118,-151
-72,-63,9,69,-39,-26,-103,-188,-181,-183,-118,-151
-78,-68,9,69,-45,-32,-103,-188,-187,-183,-124,-151
-78,-68,9,69,-45,-32,-109,-188,-193,-183,-124,-151
-78,-73,3,69,-45,-38,-103,-188,-193,-183,-130,-151
-78,-73,3,69,-45,-38,-103,-188,-193,-183,-130,-145
-78,-73,3,69,-45,-38,-103,-188,-199,-189,-136,-145
-78,-79,-3,75,-39,-44,-97,-194,-199,-189,-142,-151
-78,-79,-3,75,-39,-44,-97,-194,-205,-195,-148,-157
-78,-79,-3,75,-39,-44,-97,-194,-205,-195,-148,-163
-84,-79,3,81,-45,-38,-97,-200,-211,-201,-154,-163
-90,-79,9,81,-51,-38,-97,-206,-211,-207,-154,-169
-84,-79,3,81,-45,-38,-97,-206,-217,-213,-154,-163
-84,-73,9,75,-51,-32,-97,-206,-217,-207,-154,-163
-84,-73,9,75,-51,-32,-97,-200,-211,-207,-154,-157
-84,-68,15,75,-51,-26,-97,-200,-211,-201,-148,-151
-84,-68,15,75,-51,-26,-97,-200,-211,-195,-148,-145
-90,-68,21,75,-57,-26,-97,-194,-205,-189,-148,-145
-90,-68,21,75,-57,-26,-91,-194,-205,-189,-148,-145
-96,-73,21,81,-63,-26,-91,-200,-205,-189,-148,-139
-96,-68,27,81,-63,-20,-91,-200,-211,-189,-148,-133
-96,-68,27,81,-63,-20,-91,-200,-211,-195,-142,-133
-96,-63,33,81,-63,-14,-91,-200,-211,-189,-136,-133
-96,-68,27,81,-63,-20,-91,-200,-217,-189,-136,-133
-96,-68,27,81,-63,-20,-91,-200,-211,-189,-136,-133
-84,-63,21,75,-51,-20,-91,-200,-211,-189,-136,-127
-78,-57,21,63,-51,-20,-97,-200,-211,-183,-142,-121
-78,-57,21,63,-51,-20,-97,-200,-211,-189,-148,-127
-84,-57,27,69,-57,-14,-97,-206,-211,-189,-148,-133
-84,-57,27,69,-57,-14,-97,-206,-211,-183,-148,-133
-90,-57,33,69,-63,-14,-97,-206,-211,-183,-148,-133
-84,-51,33,69,-57,-8,-97,-212,-211,-183,-142,-133
-90,-57,33,69,-63,-14,-91,-212,-211,-189,-148,-133
-96,-57,39,75,-69,-8,-97,-212,-211,-195,-148,-127
-96,-57,39,75,-69,-8,-97,-206,-217,-195,-142,-127
-96,-57,39,75,-69,-8,-97,-206,-217,-201,-142,-121
-90,-57,33,69,-63,-14,-97,-212,-223,-201,-142,-127
-90,-51,39,69,-63,-8,-97,-212,-223,-201,-148,-127
-90,-51,39,69,-63,-8,-97,-212,-223,-201,-148,-127
-90,-51,39,69,-63,-8,-97,-212,-223,-201,-148,-121
-90,-51,39,69,-63,-8,-97,-218,-229,-201,-148,-121
-96,-45,51,69,-75,4,-103,-218,-229,-201,-148,-121
-102,-45,57,69,-81,4,-103,-224,-223,-195,-148,-121
-102,-45,57,69,-81,4,-109,-224,-223,-195,-142,-121
-108,-45,63,75,-87,10,-103,-230,-223,-195,-142,-121
-108,-51,57,81,-81,4,-109,-236,-223,-201,-142,-127
-108,-51,57,81,-81,4,-115,-236,-223,-207,-142,-121
-102,-45,57,69,-81,4,-109,-236,-223,-207,-136,-121
-102,-45,57,69,-81,4,-109,-230,-223,-207,-136,-121
-96,-45,51,69,-75,4,-109,-230,-229,-207,-136,-127
-90,-39,51,63,-69,4,-109,-236,-229,-207,-136,-133
-96,-39,57,69,-75,10,-103,-236,-229,-207,-136,-133
-96,-39,57,69,-75,10,-103,-236,-235,-207,-136,-133
-96,-39,57,69,-75,10,-103,-242,-235,-207,-136,-127
-96,-45,51,69,-75,4,-103,-242,-235,-213,-142,-133
-96,-39,57,69,-75,10,-109,-248,-235,-213,-142,-133
-90,-39,51,63,-69,4,-115,-254,-241,-213,-142,-139
-90,-45,45,63,-69,-2,-121,-260,-247,-213,-142,-145
-90,-39,51,63,-69,4,-115,-260,-247,-219,-142,-151
-90,-39,51,63,-69,4,-115,-260,-253,-219,-142,-151
-96,-45,51,69,-75,4,-115,-266,-259,-219,-142,-145
-96,-45,51,69,-75,4,-115,-266,-265,-219,-142,-145
-96,-45,51,69,-75,4,-121,-266,-259,-219,-136,-145
-90,-45,45,63,-69,-2,-121,-260,-259,-213,-136,-145
-84,-45,39,63,-63,-2,-121,-254,-259,-213,-130,-145
-84,-45,39,63,-63,-2,-121,-254,-253,-213,-136,-145
-78,-45,33,57,-57,-8,-121,-254,-253,-219,-136,-151
-78,-39,39,57,-57,-2,-121,-260,-253,-219,-136,-157
-84,-39,45,63,-63,4,-121,-260,-253,-219,-136,-157
-84,-39,45,63,-63,4,-121,-266,-259,-219,-136,-157
-78,-45,33,57,-57,-8,-127,-266,-259,-225,-136,-163
-84,-51,33,69,-57,-8,-121,-260,-265,-225,-142,-163
-90,-51,39,69,-63,-8,-121,-260,-265,-225,-142,-169
-96,-57,39,75,-69,-8,-121,-260,-265,-231,-148,-169
-90,-57,33,69,-63,-14,-121,-260,-271,-237,-148,-175
-84,-57,27,69,-57,-14,-121,-260,-271,-243,-160,-175
-78,-57,21,63,-51,-20,-121,-266,-271,-249,-160,-181
-78,-57,21,63,-51,-20,-109,-266,-271,-249,-166,-187
-78,-57,21,63,-51,-20,-109,-266,-277,-249,-166,-187
-78,-57,21,63,-51,-20,-109,-272,-277,-243,-166,-187
-84,-51,33,69,-57,-8,-115,-272,-277,-243,-166,-187
-90,-51,39,69,-63,-8,-121,-272,-283,-243,-160,-187
-90,-51,39,69,-63,-8,-127,-278,-283,-243,-160,-181
-90,-51,39,69,-63,-8,-121,-272,-283,-249,-160,-181
-84,-57,27,69,-57,-14,-121,-266,-283,-249,-160,-175
-78,-63,15,69,-45,-26,-115,-266,-283,-249,-160,-175
-78,-63,15,69,-45,-26,-115,-266,-289,-249,-154,-175
-78,-63,15,69,-45,-26,-121,-272,-289,-249,-154,-181
-84,-63,21,75,-51,-20,-121,-272,-295,-249,-160,-187
-84,-63,21,75,-51,-20,-121,-278,-301,-255,-160,-187
-96,-63,33,81,-63,-14,-127,-278,-301,-261,-160,-187
-96,-57,39,75,-69,-8,-127,-272,-301,-261,-160,-187
-90,-57,33,69,-63,-14,-127,-272,-301,-261,-154,-181
-90,-57,33,69,-63,-14,-133,-272,-295,-267,-154,-181
-90,-63,27,75,-57,-20,-133,-272,-295,-261,-154,-181
-90,-63,27,75,-57,-20,-133,-278,-295,-261,-154,-181
-84,-57,27,69,-57,-14,-127,-278,-295,-261,-154,-181
-84,-63,21,75,-51,-20,-121,-284,-295,-261,-154,-181
-78,-63,15,69,-45,-26,-127,-284,-295,-261,-160,-175
-78,-63,15,69,-45,-26,-127,-284,-295,-261,-160,-175
-84,-63,21,75,-51,-20,-127,-284,-295,-255,-154,-175
-84,-63,21,75,-51,-20,-127,-284,-301,-255,-148,-175
-90,-57,33,69,-63,-14,-133,-284,-301,-255,-148,-175
-96,-57,39,75,-69,-8,-139,-284,-301,-255,-142,-175
-96,-63,33,81,-63,-14,-127,-284,-301,-255,-142,-175
-96,-63,33,81,-63,-14,-127,-278,-301,-255,-148,-175
-96,-63,33,81,-63,-14,-127,-284,-301,-255,-148,-169
-96,-68,27,81,-63,-20,-127,-284,-307,-261,-154,-169
-96,-68,27,81,-63,-20,-127,-284,-307,-267,-160,-175
-96,-68,27,81,-63,-20,-133,-284,-307,-261,-160,-175
-90,-63,27,75,-57,-20,-133,-284,-307,-261,-160,-181
-90,-63,27,75,-57,-20,-139,-290,-307,-261,-160,-181
-96,-63,33,81,-63,-14,-139,-290,-307,-261,-154,-181
-96,-63,33,81,-63,-14,-139,-290,-307,-261,-154,-175
-96,-63,33,81,-63,-14,-139,-290,-313,-267,-154,-181
-90,-63,27,75,-57,-20,-139,-290,-313,-267,-154,-175
-90,-68,21,75,-57,-26,-133,-290,-319,-267,-160,-175
-90,-68,21,75,-57,-26,-133,-296,-313,-273,-160,-181
-90,-73,15,75,-57,-32,-133,-296,-313,-267,-160,-181
-90,-73,15,75,-57,-32,-133,-296,-313,-267,-160,-187
-96,-73,21,81,-63,-26,-139,-296,-319,-267,-166,-193
-102,-73,27,81,-69,-26,-139,-302,-319,-267,-166,-193
-102,-68,33,81,-69,-20,-139,-296,-313,-267,-160,-187
-96,-68,27,81,-63,-20,-139,-296,-313,-267,-160,-187
-96,-68,27,81,-63,-20,-133,-296,-313,-267,-160,-187
-96,-73,21,81,-63,-26,-139,-296,-313,-273,-166,-187
-96,-79,15,87,-57,-32,-139,-296,-319,-273,-166,-187
-96,-85,9,87,-57,-38,-145,-296,-319,-273,-172,-193
-96,-85,9,87,-57,-38,-145,-296,-325,-267,-172,-199
-96,-85,9,87,-57,-38,-145,-302,-325,-267,-166,-199
-96,-79,15,87,-57,-32,-139,-302,-325,-267,-166,-193
-96,-79,15,87,-57,-32,-139,-296,-319,-267,-166,-193
-102,-79,21,87,-63,-32,-133,-296,-319,-273,-166,-199
-102,-79,21,87,-63,-32,-133,-290,-319,-273,-160,-193
-96,-73,21,81,-63,-26,-139,-284,-313,-273,-160,-193
-96,-73,21,81,-63,-26,-139,-284,-313,-273,-166,-199
-90,-73,15,75,-57,-32,-133,-284,-313,-273,-172,-199
-90,-73,15,75,-57,-32,-133,-284,-313,-273,-172,-199
-90,-73,15,75,-57,-32,-133,-284,-307,-273,-166,-199
-96,-73,21,81,-63,-26,-133,-284,-307,-267,-166,-199
-90,-68,21,75,-57,-26,-127,-284,-307,-267,-160,-199
-90,-68,21,75,-57,-26,-127,-290,-313,-267,-166,-199
-90,-68,21,75,-57,-26,-127,-290,-319,-267,-166,-199
-96,-68,27,81,-63,-20,-127,-296,-319,-267,-166,-199
-90,-73,15,75,-57,-32,-133,-290,-319,-267,-166,-199
-90,-73,15,75,-57,-32,-133,-290,-319,-267,-172,-199
-84,-73,9,75,-51,-32,-139,-290,-319,-267,-172,-199
-84,-68,15,75,-51,-26,-133,-290,-313,-267,-172,-199
-84,-68,15,75,-51,-26,-133,-290,-319,-267,-172,-199
-84,-63,21,75,-51,-20,-127,-290,-319,-267,-172,-193
-84,-57,27,69,-57,-14,-127,-284,-319,-261,-172,-187
-78,-45,33,57,-57,-8,-127,-284,-313,-255,-166,-181
-78,-39,39,57,-57,-2,-121,-284,-307,-243,-166,-181
-78,-33,45,51,-63,4,-121,-284,-301,-243,-160,-181
-78,-27,51,51,-63,10,-121,-272,-289,-237,-154,-175
-78,-15,63,45,-69,22,-115,-272,-289,-237,-154,-175
-66,3,69,27,-69,34,-109,-266,-277,-237,-142,-169
-60,15,75,21,-69,46,-103,-260,-271,-231,-136,-163
-54,33,87,10,-69,58,-97,-254,-265,-225,-136,-157
-48,45,93,5,-69,70,-97,-254,-259,-219,-130,-151
-48,51,99,-1,-75,76,-97,-248,-247,-213,-130,-139
-48,57,105,-1,-75,82,-91,-248,-247,-207,-124,-133
-42,63,105,-13,-75,82,-91,-242,-241,-201,-118,-133
-42,63,105,-13,-75,82,-91,-236,-235,-201,-112,-133
-36,69,105,-13,-69,88,-85,-236,-235,-195,-112,-133
-30,69,99,-19,-63,82,-85,-230,-235,-195,-112,-133
-18,69,87,-25,-51,76,-79,-224,-229,-189,-100,-127
-12,69,81,-25,-45,76,-79,-218,-217,-183,-94,-121
0,69,69,-31,-33,70,-79,-206,-211,-177,-82,-109
12,81,69,-43,-27,76,-85,-200,-199,-165,-76,-97
18,93,75,-55,-27,82,-97,-200,-199,-159,-70,-85
30,99,69,-67,-21,82,-109,-206,-199,-159,-70,-79
30,99,69,-67,-21,82,-115,-212,-205,-159,-64,-73
36,105,69,-67,-15,88,-127,-218,-211,-159,-58,-73
42,111,69,-79,-15,88,-139,-224,-217,-165,-58,-73
47,117,69,-79,-9,94,-151,-236,-223,-165,-58,-73
47,117,69,-79,-9,94,-157,-248,-229,-165,-64,-79
42,99,57,-73,-9,76,-163,-260,-241,-171,-70,-85
36,81,45,-55,-3,64,-163,-260,-253,-183,-82,-91
30,69,39,-49,-3,52,-163,-266,-259,-189,-82,-97
24,57,33,-37,-3,46,-163,-266,-265,-195,-88,-103
24,51,27,-37,-3,40,-157,-266,-265,-201,-94,-103
18,45,27,-31,-3,34,-157,-260,-259,-201,-88,-109
18,39,21,-31,-3,28,-151,-260,-259,-201,-88,-109
12,27,15,-19,-3,22,-151,-260,-259,-201,-94,-109
12,15,3,-13,3,10,-151,-260,-265,-207,-100,-115
6,3,-3,-7,3,-2,-151,-266,-271,-207,-100,-115
0,-9,-9,5,3,-8,-151,-272,-283,-219,-112,-121
-12,-21,-9,15,-3,-14,-151,-278,-289,-219,-118,-127
-12,-21,-9,15,-3,-14,-151,-284,-295,-225,-124,-139
-18,-27,-9,21,-3,-20,-151,-284,-301,-231,-130,-151
-36,-33,3,33,-21,-14,-151,-290,-307,-243,-142,-157
-42,-39,3,39,-21,-20,-157,-296,-313,-255,-154,-169
-54,-39,15,45,-33,-14,-157,-296,-313,-255,-160,-169
-66,-39,27,51,-45,-8,-151,-296,-307,-261,-166,-169
-72,-45,27,57,-51,-8,-145,-302,-313,-261,-166,-169
-84,-45,39,63,-63,-2,-145,-302,-313,-261,-166,-175
-84,-51,33,69,-57,-8,-139,-308,-313,-267,-160,-175
-84,-57,27,69,-57,-14,-127,-296,-307,-261,-160,-181
-84,-63,21,75,-51,-20,-121,-290,-295,-255,-154,-181
-84,-63,21,75,-51,-20,-115,-278,-295,-243,-148,-175
-78,-68,9,69,-45,-32,-109,-266,-283,-231,-136,-163
-72,-68,3,69,-39,-32,-97,-248,-271,-213,-124,-157
-72,-68,3,69,-39,-32,-85,-230,-253,-201,-118,-151
-66,-68,-3,63,-33,-38,-73,-212,-229,-183,-106,-139
-60,-63,-3,63,-27,-32,-67,-200,-205,-165,-94,-127
-54,-63,-9,57,-21,-38,-61,-182,-187,-147,-82,-109
-42,-63,-21,51,-9,-44,-49,-170,-169,-129,-64,-97
-30,-63,-33,45,3,-50,-37,-152,-151,-117,-52,-79
-24,-63,-39,45,9,-50,-31,-134,-133,-99,-40,-67
-18,-57,-39,33,9,-50,-19,-110,-115,-87,-22,-55
-6,-57,-51,27,21,-56,-7,-86,-97,-69,-16,-37
6,-51,-57,21,33,-56,-1,-68,-85,-51,-4,-25
12,-51,-63,21,39,-56,11,-44,-73,-39,2,-13
24,-57,-81,15,51,-68,17,-32,-61,-27,8,-8
42,-57,-99,5,69,-80,23,-14,-43,-15,20,3
58,-68,-127,5,91,-96,23,4,-25,3,32,15
76,-73,-151,-1,109,-108,29,22,-7,15,44,27
100,-79,-181,-7,139,-126,35,40,17,25,54,45
118,-79,-199,-19,157,-138,41,57,33,37,66,63
142,-85,-229,-31,181,-156,46,74,57,61,78,81
172,-85,-259,-43,211,-168,63,110,87,91,108,111
196,-85,-283,-55,235,-180,81,146,123,127,132,141
214,-79,-295,-67,253,-186,111,206,177,175,162,177
220,-68,-289,-73,253,-174,177,296,255,229,204,207
232,-68,-301,-79,265,-180,261,422,363,283,240,237
256,-73,-331,-91,289,-198,375,590,495,343,282,267
304,-79,-385,-109,343,-228,489,776,639,415,324,303
370,-79,-451,-145,409,-264,609,992,813,511,390,363
448,-91,-541,-175,493,-312,741,1244,1017,637,474,435
538,-109,-649,-217,589,-378,891,1544,1257,811,582,543
658,-115,-775,-271,715,-444,1065,1928,1557,1033,732,687
802,-115,-919,-343,859,-516,1239,2330,1875,1297,918,867
946,-97,-1045,-427,991,-570,1383,2671,2181,1585,1140,1077
1090,-85,-1177,-505,1129,-630,1473,2917,2439,1891,1380,1299
1228,-57,-1285,-583,1255,-666,1473,2989,2600,2185,1626,1539
1354,15,-1339,-685,1345,-660,1395,2947,2702,2478,1896,1803
1480,105,-1375,-787,1429,-630,1275,2857,2792,2790,2184,2085
1594,195,-1399,-895,1495,-600,1125,2743,2852,3096,2460,2361
1672,255,-1417,-961,1543,-576,1017,2635,2912,3384,2705,2612
1684,345,-1339,-1009,1513,-492,933,2497,2948,3642,2927,2822
1612,423,-1189,-1015,1399,-378,897,2306,2924,3792,3065,2954
1474,441,-1033,-955,1255,-294,867,2096,2822,3786,3065,2948
1306,411,-895,-859,1099,-240,837,1868,2636,3612,2927,2816
1114,339,-775,-727,943,-216,807,1628,2385,3318,2681,2576
868,237,-631,-547,751,-192,789,1358,2067,2910,2346,2247
586,123,-463,-355,523,-168,789,1076,1689,2395,1932,1833
304,-3,-307,-145,307,-150,789,782,1275,1831,1476,1389
30,-115,-145,39,85,-132,783,476,837,1231,1014,927
-198,-199,-3,195,-99,-102,765,212,465,709,606,519
-342,-259,81,297,-213,-91,699,16,189,343,300,225
-414,-295,117,351,-267,-91,597,-146,-19,91,96,27
-456,-337,117,393,-291,-108,483,-284,-187,-81,-46,-103
-486,-379,105,429,-297,-138,369,-398,-319,-213,-142,-199
-486,-415,69,447,-279,-174,237,-488,-415,-309,-220,-259
-474,-433,39,447,-261,-198,99,-554,-481,-375,-268,-307
-438,-421,15,423,-231,-204,-37,-596,-511,-411,-298,-325
-408,-391,15,399,-213,-186,-139,-608,-517,-423,-310,-337
-384,-361,21,369,-207,-168,-187,-596,-499,-435,-322,-337
-360,-331,27,345,-195,-150,-199,-560,-481,-441,-334,-343
-342,-307,33,321,-189,-138,-187,-524,-463,-453,-346,-343
-324,-277,45,297,-189,-114,-169,-488,-445,-453,-352,-337
-300,-247,51,273,-177,-96,-145,-446,-409,-441,-334,-325
-276,-211,63,243,-171,-74,-115,-392,-361,-411,-310,-307
-246,-169,75,201,-165,-50,-85,-338,-301,-375,-286,-283
-222,-133,87,171,-159,-26,-73,-296,-253,-351,-262,-265
-204,-103,99,153,-153,-2,-67,-260,-211,-327,-244,-259
-204,-85,117,141,-165,16,-55,-236,-187,-321,-238,-253
-192,-79,111,135,-153,16,-55,-224,-175,-321,-244,-253
-192,-79,111,135,-153,16,-55,-224,-175,-327,-250,-259
-186,-68,117,123,-153,22,-49,-230,-175,-321,-256,-259
-186,-68,117,123,-153,22,-49,-230,-181,-321,-256,-259
-180,-63,117,123,-147,28,-55,-242,-181,-315,-256,-259
-180,-57,123,117,-153,34,-55,-242,-175,-309,-256,-259
-180,-57,123,117,-153,34,-55,-242,-163,-297,-250,-253
-174,-51,123,111,-147,34,-55,-236,-157,-297,-250,-259
-174,-51,123,111,-147,34,-55,-230,-145,-291,-244,-259
-174,-51,123,111,-147,34,-55,-224,-139,-291,-238,-253
-174,-51,123,111,-147,34,-55,-218,-139,-285,-238,-253
-168,-45,123,105,-147,40,-61,-218,-139,-285,-238,-247
-168,-45,123,105,-147,40,-67,-212,-145,-285,-244,-253
-168,-45,123,105,-147,40,-67,-212,-151,-285,-244,-253
-168,-45,123,105,-147,40,-73,-212,-157,-291,-244,-247
-162,-45,117,99,-141,34,-73,-206,-157,-291,-244,-247
-150,-39,111,93,-129,34,-67,-206,-157,-291,-244,-253
-150,-33,117,87,-135,40,-67,-200,-163,-285,-238,-253
-150,-33,117,87,-135,40,-61,-200,-163,-285,-226,-253
-150,-33,117,87,-135,40,-55,-194,-163,-285,-226,-253
-156,-27,129,93,-141,52,-55,-188,-163,-285,-232,-253
-156,-21,135,87,-147,58,-49,-182,-169,-291,-232,-241
-150,-15,135,81,-141,58,-49,-176,-157,-285,-226,-235
-144,-9,135,75,-141,64,-43,-170,-151,-285,-220,-229
-138,-3,135,69,-135,64,-43,-158,-151,-285,-214,-223
-138,-3,135,69,-135,64,-49,-158,-145,-279,-208,-223
-138,-3,135,69,-135,64,-49,-152,-139,-279,-208,-217
-138,-3,135,69,-135,64,-49,-146,-133,-279,-208,-211
-132,-3,129,69,-129,64,-49,-134,-133,-279,-208,-205
-126,-3,123,63,-123,58,-43,-122,-133,-279,-202,-193
-120,-3,117,63,-117,58,-43,-116,-133,-279,-208,-193
-120,3,123,57,-123,64,-43,-110,-133,-279,-208,-193
-126,9,135,57,-129,70,-43,-98,-133,-273,-208,-193
-120,9,129,57,-123,70,-43,-98,-133,-267,-202,-187
-120,9,129,57,-123,70,-49,-92,-127,-261,-196,-181
-120,9,129,57,-123,70,-43,-86,-121,-255,-190,-175
-114,9,123,51,-117,64,-43,-86,-115,-243,-184,-163
-114,9,123,51,-117,64,-43,-80,-103,-231,-184,-151
-108,15,123,45,-117,70,-43,-74,-97,-225,-178,-145
-108,21,129,45,-117,76,-37,-68,-91,-213,-172,-139
-108,21,129,45,-117,76,-37,-62,-85,-207,-172,-139
-102,27,129,33,-117,76,-43,-62,-79,-195,-166,-139
-90,33,123,27,-105,76,-37,-56,-73,-183,-166,-133
-90,45,135,21,-111,88,-31,-56,-67,-177,-160,-133
-84,51,135,15,-111,94,-25,-50,-61,-171,-160,-127
-84,57,141,15,-111,100,-25,-50,-55,-159,-154,-127
-84,57,141,15,-111,100,-25,-38,-49,-153,-148,-127
-84,57,141,15,-111,100,-25,-38,-49,-147,-148,-121
-84,57,141,15,-111,100,-31,-32,-37,-129,-142,-121
-78,63,141,5,-111,100,-25,-26,-25,-123,-142,-121
-72,69,141,5,-105,106,-19,-20,-13,-111,-136,-115
-66,75,141,-7,-105,106,-13,-8,-1,-105,-130,-109
-60,81,141,-7,-99,112,-13,-2,5,-99,-130,-103
-60,81,141,-7,-99,112,-7,4,11,-93,-124,-103
-60,81,141,-7,-99,112,-1,16,17,-87,-118,-97
-66,87,153,-13,-111,118,5,28,22,-75,-106,-97
-66,93,159,-13,-111,124,11,40,27,-57,-100,-91
-60,99,159,-19,-111,130,11,46,39,-45,-88,-85
-54,105,159,-25,-105,130,17,57,51,-33,-82,-79
-42,111,153,-37,-99,130,17,62,69,-21,-70,-73
-36,117,153,-37,-93,136,23,80,81,-9,-58,-61
-36,123,159,-43,-99,142,29,98,93,-3,-46,-55
-24,129,153,-49,-87,142,29,122,105,3,-40,-43
-18,141,159,-61,-87,148,29,146,117,20,-34,-31
-12,147,159,-67,-87,154,35,164,135,25,-22,-25
0,159,159,-79,-81,160,41,176,147,37,-10,-19
6,159,153,-85,-75,154,41,194,165,49,2,-8
6,171,165,-91,-81,166,46,218,183,61,14,-3
6,177,171,-91,-81,172,46,236,201,73,20,3
12,189,177,-97,-81,184,51,260,219,85,32,9
18,201,183,-109,-81,190,57,284,237,97,44,21
24,207,183,-115,-81,196,63,308,261,115,54,33
30,213,183,-121,-75,196,69,332,285,139,72,51
36,219,183,-127,-75,202,81,356,309,157,84,63
42,231,189,-139,-75,208,87,380,327,175,90,81
47,237,189,-139,-69,214,93,404,351,193,102,99
58,243,183,-151,-63,214,99,428,375,211,120,111
70,249,177,-157,-51,214,99,452,405,229,138,129
76,261,183,-163,-51,226,105,476,423,247,156,141
88,273,183,-175,-45,232,111,500,447,271,168,153
94,279,183,-187,-45,232,117,524,465,295,180,165
100,291,189,-193,-45,244,123,542,483,319,198,177
112,297,183,-199,-33,244,129,566,507,337,210,189
130,309,177,-217,-21,244,135,590,525,355,234,201
142,315,171,-229,-15,244,141,608,549,373,252,219
148,321,171,-229,-9,250,147,626,573,397,270,231
154,333,177,-241,-9,256,147,638,591,415,282,249
166,339,171,-253,-3,256,147,656,615,433,300,261
172,345,171,-253,3,262,153,674,639,451,312,273
184,345,159,-259,15,256,165,686,657,469,318,285
196,357,159,-271,21,262,171,704,675,487,330,297
202,363,159,-283,21,262,177,716,693,505,342,303
214,369,153,-289,33,262,183,728,711,523,354,315
220,375,153,-295,33,268,189,740,723,535,366,333
226,375,147,-301,39,262,189,746,741,553,378,339
232,375,141,-301,45,262,195,758,753,571,396,357
244,381,135,-307,57,262,201,770,765,583,414,369
244,375,129,-307,57,256,201,776,771,595,420,375
244,375,129,-307,57,256,195,782,771,607,426,381
250,369,117,-307,69,244,201,788,771,607,432,381
250,369,117,-307,69,244,207,788,777,613,438,381
256,369,111,-307,75,244,201,782,771,613,444,387
256,363,105,-307,75,238,201,770,771,613,444,393
256,357,99,-301,80,232,195,764,765,613,450,399
262,351,87,-307,85,220,189,752,759,607,450,405
256,345,87,-295,85,220,189,734,747,607,444,399
250,339,87,-295,80,214,189,716,729,595,438,393
238,327,87,-283,75,208,177,692,699,577,432,381
226,309,81,-265,75,196,171,662,663,553,414,363
214,285,69,-247,75,178,171,632,633,523,396,345
208,273,63,-235,75,172,165,596,597,493,378,333
202,255,51,-229,75,154,153,566,561,463,360,309
190,243,51,-217,69,148,147,530,531,427,336,291
178,231,51,-205,63,142,135,494,495,397,312,267
166,213,45,-187,63,130,129,458,453,367,282,243
142,201,57,-169,45,130,117,422,417,337,258,219
130,189,57,-157,39,124,111,386,375,301,240,195
112,171,57,-139,27,118,105,344,345,265,222,171
94,147,51,-121,21,100,93,302,303,223,198,153
76,129,51,-97,15,94,81,260,267,187,180,129
70,117,45,-91,15,82,75,224,225,163,156,105
58,99,39,-79,9,70,63,182,189,127,126,87
47,75,27,-61,9,52,46,152,147,97,96,57
36,63,27,-49,3,46,41,122,111,67,72,39
24,51,27,-37,-3,40,29,98,81,43,44,9
18,45,27,-31,-3,34,17,68,57,15,20,-13
6,33,27,-19,-9,28,11,52,27,-9,2,-31
-6,27,33,-13,-21,28,5,28,5,-27,-10,-49
-12,15,27,-1,-21,22,-1,4,-19,-45,-28,-61
-24,3,27,10,-27,16,-1,-20,-37,-69,-46,-79
-42,-9,33,21,-39,10,-7,-44,-55,-87,-58,-91
-54,-27,27,39,-39,-2,-13,-74,-79,-105,-82,-103
-54,-33,21,39,-39,-8,-19,-92,-91,-117,-94,-115
-60,-45,15,51,-39,-14,-25,-104,-109,-129,-112,-121
-60,-51,9,57,-33,-20,-31,-116,-121,-135,-130,-133
-60,-51,9,57,-33,-20,-37,-128,-133,-147,-142,-151
-66,-57,9,57,-39,-26,-43,-140,-139,-153,-148,-157
-66,-63,3,63,-33,-32,-43,-146,-145,-165,-154,-169
-72,-63,9,69,-39,-26,-43,-158,-157,-171,-166,-181
-72,-63,9,69,-39,-26,-49,-170,-169,-183,-172,-187
-72,-63,9,69,-39,-26,-49,-176,-169,-189,-184,-193
-78,-68,9,69,-45,-32,-55,-182,-175,-195,-190,-193
-78,-73,3,69,-45,-38,-55,-182,-181,-201,-196,-187
-78,-79,-3,75,-39,-44,-61,-188,-181,-195,-196,-181
-84,-85,-3,81,-45,-44,-61,-194,-187,-195,-202,-181
-84,-91,-9,87,-39,-50,-61,-194,-187,-195,-196,-181
-90,-97,-9,87,-45,-56,-61,-194,-187,-195,-202,-181
-96,-97,-3,93,-51,-50,-55,-194,-193,-195,-202,-181
-90,-91,-3,87,-45,-50,-55,-194,-199,-195,-202,-175
-90,-91,-3,87,-45,-50,-55,-194,-199,-201,-202,-175
-96,-91,3,93,-51,-44,-55,-194,-199,-201,-208,-175
-96,-91,3,93,-51,-44,-55,-194,-205,-207,-214,-181
-96,-91,3,93,-51,-44,-61,-194,-199,-207,-220,-181
-90,-85,3,81,-51,-44,-61,-194,-199,-207,-220,-181
-84,-85,-3,81,-45,-44,-67,-194,-199,-201,-220,-181
-84,-79,3,81,-45,-38,-67,-194,-205,-201,-220,-187
-84,-79,3,81,-45,-38,-55,-188,-199,-207,-220,-175
-84,-85,-3,81,-45,-44,-55,-188,-199,-207,-220,-175
-84,-79,3,81,-45,-38,-55,-188,-205,-213,-214,-169
-84,-79,3,81,-45,-38,-49,-188,-205,-213,-208,-169
-84,-73,9,75,-51,-32,-55,-188,-205,-201,-208,-169
-84,-73,9,75,-51,-32,-61,-188,-205,-195,-208,-169
-90,-73,15,75,-57,-32,-61,-182,-199,-195,-208,-169
-90,-73,15,75,-57,-32,-55,-182,-199,-195,-208,-169
-96,-73,21,81,-63,-26,-61,-182,-205,-201,-202,-169
-96,-73,21,81,-63,-26,-61,-182,-205,-207,-202,-169
-96,-73,21,81,-63,-26,-61,-188,-205,-219,-208,-169
-96,-73,21,81,-63,-26,-67,-194,-205,-219,-202,-163
-90,-68,21,75,-57,-26,-67,-200,-211,-219,-208,-169
-90,-68,21,75,-57,-26,-67,-200,-205,-219,-208,-169
-84,-63,21,75,-51,-20,-73,-206,-205,-219,-214,-169
-84,-63,21,75,-51,-20,-73,-206,-211,-219,-214,-163
-84,-63,21,75,-51,-20,-67,-200,-205,-219,-214,-163
-84,-63,21,75,-51,-20,-67,-200,-205,-219,-214,-169
-90,-63,27,75,-57,-20,-67,-200,-211,-219,-214,-169
-90,-63,27,75,-57,-20,-73,-206,-211,-219,-208,-169
-90,-63,27,75,-57,-20,-73,-206,-205,-219,-202,-169
-90,-63,27,75,-57,-20,-79,-206,-205,-225,-196,-169
-90,-68,21,75,-57,-26,-73,-212,-211,-231,-202,-175
-90,-68,21,75,-57,-26,-73,-212,-217,-225,-202,-169
-96,-63,33,81,-63,-14,-73,-218,-217,-225,-202,-169
-96,-63,33,81,-63,-14,-79,-218,-223,-225,-208,-169
-102,-68,33,81,-69,-20,-79,-212,-223,-231,-202,-175
-102,-63,39,81,-69,-14,-79,-218,-223,-231,-202,-175
-102,-63,39,81,-69,-14,-79,-218,-223,-231,-202,-175
-102,-68,33,81,-69,-20,-73,-218,-223,-237,-202,-181
-102,-68,33,81,-69,-20,-73,-218,-217,-237,-208,-181
-96,-68,27,81,-63,-20,-73,-224,-217,-243,-214,-175
-96,-68,27,81,-63,-20,-73,-224,-217,-237,-214,-175
-96,-68,27,81,-63,-20,-79,-230,-217,-237,-220,-175
-96,-57,39,75,-69,-8,-79,-236,-217,-237,-220,-181
-96,-51,45,75,-69,-2,-85,-242,-223,-237,-214,-181
-90,-45,45,63,-69,-2,-85,-236,-223,-237,-208,-187
-90,-51,39,69,-63,-8,-79,-236,-229,-237,-202,-187
-90,-51,39,69,-63,-8,-79,-242,-235,-243,-202,-187
-90,-57,33,69,-63,-14,-79,-236,-235,-237,-208,-181
-90,-57,33,69,-63,-14,-79,-236,-241,-243,-208,-181
-96,-63,33,81,-63,-14,-85,-242,-241,-249,-214,-181
-96,-68,27,81,-63,-20,-91,-242,-241,-255,-220,-187
-96,-68,27,81,-63,-20,-91,-248,-247,-261,-226,-187
-96,-68,27,81,-63,-20,-91,-254,-247,-261,-226,-187
-96,-68,27,81,-63,-20,-103,-260,-253,-261,-232,-193
-90,-68,21,75,-57,-26,-97,-260,-253,-261,-226,-193
-90,-68,21,75,-57,-26,-97,-266,-253,-255,-220,-193
-84,-68,15,75,-51,-26,-97,-260,-259,-255,-220,-199
-84,-63,21,75,-51,-20,-97,-260,-259,-261,-226,-205
-90,-63,27,75,-57,-20,-103,-260,-259,-261,-226,-205
-90,-63,27,75,-57,-20,-103,-260,-259,-261,-226,-211
-90,-63,27,75,-57,-20,-103,-260,-265,-261,-226,-211
-84,-63,21,75,-51,-20,-97,-260,-265,-255,-226,-211
-78,-63,15,69,-45,-26,-97,-266,-265,-255,-220,-211
-84,-68,15,75,-51,-26,-97,-266,-265,-255,-226,-211
-90,-73,15,75,-57,-32,-97,-272,-271,-267,-232,-211
-90,-79,9,81,-51,-38,-97,-272,-271,-273,-226,-211
-90,-73,15,75,-57,-32,-97,-272,-271,-273,-226,-211
-96,-73,21,81,-63,-26,-97,-278,-271,-273,-232,-211
-102,-73,27,81,-69,-26,-97,-272,-271,-273,-232,-217
-102,-73,27,81,-69,-26,-97,-266,-271,-267,-232,-217
-102,-73,27,81,-69,-26,-103,-266,-277,-267,-232,-223
-102,-79,21,87,-63,-32,-109,-266,-277,-273,-238,-223
-96,-73,21,81,-63,-26,-109,-266,-277,-267,-238,-223
-96,-73,21,81,-63,-26,-109,-266,-277,-267,-238,-217
-96,-73,21,81,-63,-26,-109,-266,-283,-267,-238,-217
-96,-73,21,81,-63,-26,-109,-272,-283,-267,-238,-211
-96,-79,15,87,-57,-32,-109,-272,-283,-267,-238,-211
-102,-79,21,87,-63,-32,-115,-278,-283,-261,-232,-217
-96,-85,9,87,-57,-38,-109,-278,-283,-267,-232,-217
-90,-85,3,81,-51,-44,-109,-278,-283,-267,-232,-223
-90,-85,3,81,-51,-44,-115,-278,-289,-267,-232,-223
-96,-91,3,93,-51,-44,-109,-272,-295,-273,-238,-229
-90,-91,-3,87,-45,-50,-109,-272,-295,-279,-244,-223
-90,-91,-3,87,-45,-50,-109,-272,-289,-285,-250,-223
-90,-91,-3,87,-45,-50,-109,-272,-289,-291,-250,-223
-96,-91,3,93,-51,-44,-109,-272,-289,-291,-250,-223
-96,-91,3,93,-51,-44,-109,-272,-295,-291,-250,-217
-102,-91,9,93,-57,-44,-109,-278,-295,-297,-250,-223
-108,-85,21,93,-69,-32,-109,-278,-295,-291,-244,-223
-102,-79,21,87,-63,-32,-115,-278,-301,-291,-238,-223
-102,-79,21,87,-63,-32,-121,-278,-301,-291,-238,-217
-102,-79,21,87,-63,-32,-121,-284,-307,-291,-238,-217
-102,-85,15,87,-63,-38,-115,-278,-307,-291,-232,-211
-102,-91,9,93,-57,-44,-115,-278,-307,-291,-232,-205
-108,-97,9,99,-63,-44,-115,-284,-307,-285,-232,-205
-108,-97,9,99,-63,-44,-115,-284,-307,-285,-226,-205
-108,-91,15,99,-63,-38,-115,-284,-301,-279,-226,-205
-114,-97,15,99,-69,-44,-115,-290,-301,-279,-226,-205
-114,-97,15,99,-69,-44,-115,-290,-301,-285,-232,-205
-108,-103,3,105,-57,-50,-121,-290,-301,-279,-232,-211
-102,-97,3,93,-57,-50,-127,-290,-301,-285,-232,-211
-102,-91,9,93,-57,-44,-127,-296,-301,-291,-238,-211
-102,-91,9,93,-57,-44,-121,-302,-307,-285,-238,-211
-102,-85,15,87,-63,-38,-121,-302,-313,-291,-244,-217
-108,-91,15,99,-63,-38,-115,-302,-319,-291,-244,-217
-102,-85,15,87,-63,-38,-115,-296,-319,-291,-244,-217
-102,-85,15,87,-63,-38,-115,-296,-319,-285,-238,-217
-108,-91,15,99,-63,-38,-115,-296,-319,-291,-238,-217
-102,-97,3,93,-57,-50,-115,-296,-319,-291,-238,-217
-102,-109,-9,99,-51,-62,-121,-296,-313,-291,-238,-217
-108,-115,-9,111,-51,-62,-121,-290,-313,-297,-238,-217
-102,-109,-9,99,-51,-62,-121,-296,-313,-285,-238,-211
-96,-109,-15,99,-45,-62,-115,-296,-313,-285,-238,-211
-90,-103,-15,93,-39,-62,-115,-302,-313,-285,-244,-211
-102,-103,-3,99,-51,-56,-121,-296,-319,-291,-238,-217
-102,-97,3,93,-57,-50,-121,-296,-319,-297,-238,-223
-102,-91,9,93,-57,-44,-127,-296,-325,-303,-238,-229
-102,-85,15,87,-63,-38,-127,-296,-325,-303,-238,-229
-96,-85,9,87,-57,-38,-127,-296,-325,-303,-232,-235
-90,-85,3,81,-51,-44,-127,-296,-319,-303,-226,-235
-84,-85,-3,81,-45,-44,-127,-296,-319,-297,-226,-235
-90,-91,-3,87,-45,-50,-127,-296,-313,-297,-226,-235
-96,-91,3,93,-51,-44,-133,-296,-319,-297,-226,-235
-102,-85,15,87,-63,-38,-133,-290,-319,-291,-226,-229
-102,-85,15,87,-63,-38,-127,-290,-319,-291,-226,-229
-102,-91,9,93,-57,-44,-127,-290,-319,-297,-226,-229
-108,-97,9,99,-63,-44,-127,-296,-319,-297,-226,-235
-102,-103,-3,99,-51,-56,-127,-296,-319,-303,-226,-235
-96,-97,-3,93,-51,-50,-127,-296,-313,-297,-226,-235
-90,-97,-9,87,-45,-56,-121,-296,-313,-297,-226,-235
-90,-97,-9,87,-45,-56,-121,-296,-319,-297,-226,-235
-90,-97,-9,87,-45,-56,-115,-284,-319,-297,-220,-241
-84,-97,-15,87,-39,-56,-115,-284,-319,-291,-220,-235
-84,-97,-15,87,-39,-56,-121,-284,-319,-291,-226,-241
-90,-91,-3,87,-45,-50,-121,-290,-319,-291,-226,-235
-84,-91,-9,87,-39,-50,-121,-290,-319,-291,-226,-235
-90,-85,3,81,-51,-44,-121,-290,-319,-291,-226,-235
-90,-79,9,81,-51,-38,-121,-284,-313,-291,-220,-229
-90,-73,15,75,-57,-32,-121,-284,-313,-291,-220,-229
-84,-68,15,75,-51,-26,-121,-284,-307,-285,-214,-223
-84,-63,21,75,-51,-20,-121,-284,-307,-291,-214,-223
-72,-57,15,63,-45,-20,-115,-278,-301,-285,-214,-217
-72,-45,27,57,-51,-8,-109,-272,-289,-273,-202,-211
-66,-27,39,45,-51,4,-103,-260,-283,-267,-196,-199
-60,-9,51,33,-57,22,-97,-254,-271,-255,-184,-187
-54,3,57,21,-57,28,-91,-248,-265,-237,-178,-181
-48,21,69,15,-57,46,-91,-248,-259,-231,-166,-169
-48,27,75,10,-63,52,-85,-242,-253,-225,-154,-163
-48,33,81,10,-63,58,-85,-242,-247,-225,-154,-157
-54,33,87,10,-69,58,-85,-242,-247,-225,-154,-157
-54,27,81,10,-69,52,-85,-242,-241,-225,-154,-157
-54,27,81,10,-69,52,-85,-242,-241,-225,-160,-157
-54,27,81,10,-69,52,-85,-242,-241,-225,-154,-157
-54,27,81,10,-69,52,-85,-242,-241,-225,-154,-157
-42,33,75,5,-57,52,-79,-236,-229,-219,-148,-151
-36,39,75,-1,-57,58,-79,-230,-217,-213,-142,-139
-24,51,75,-13,-51,64,-79,-218,-211,-201,-130,-133
-12,57,69,-19,-39,64,-85,-218,-211,-189,-118,-127
-6,63,69,-31,-39,64,-103,-218,-211,-177,-112,-115
0,63,63,-31,-33,64,-109,-218,-211,-171,-106,-109
6,63,57,-37,-27,58,-121,-224,-217,-171,-100,-109
6,69,63,-37,-27,64,-133,-236,-223,-177,-106,-109
18,75,57,-49,-21,64,-145,-242,-229,-177,-100,-109
24,75,51,-49,-15,64,-157,-248,-235,-183,-100,-109
18,69,51,-43,-15,58,-169,-260,-247,-189,-100,-109
6,57,51,-31,-21,52,-169,-272,-253,-195,-106,-115
0,57,57,-25,-27,58,-175,-272,-259,-207,-118,-127
0,45,45,-19,-21,46,-169,-272,-265,-219,-130,-139
0,33,33,-13,-15,34,-163,-272,-277,-231,-142,-139
0,27,27,-13,-15,28,-163,-266,-277,-231,-148,-145
6,15,9,-13,-3,10,-151,-260,-277,-237,-148,-145
0,-3,-3,5,3,-2,-151,-260,-271,-225,-148,-145
0,-9,-9,5,3,-8,-145,-260,-271,-231,-148,-145
0,-15,-15,10,9,-14,-145,-260,-271,-231,-148,-139
-6,-27,-21,15,9,-26,-145,-260,-277,-237,-148,-145
-18,-39,-21,27,3,-32,-151,-266,-289,-249,-160,-145
-24,-45,-21,33,-3,-32,-151,-272,-295,-249,-160,-145
-30,-57,-27,39,-3,-44,-157,-278,-301,-255,-166,-151
-42,-68,-27,51,-9,-50,-157,-284,-313,-267,-172,-163
-54,-73,-21,57,-21,-50,-163,-296,-319,-273,-178,-175
-54,-73,-21,57,-21,-50,-157,-296,-319,-279,-178,-181
-60,-73,-15,63,-27,-44,-157,-302,-325,-279,-184,-187
-66,-68,-3,63,-33,-38,-151,-296,-331,-285,-190,-193
-72,-68,3,69,-39,-32,-145,-296,-331,-291,-190,-193
-78,-68,9,69,-45,-32,-139,-290,-325,-279,-190,-193
-78,-73,3,69,-45,-38,-133,-290,-319,-279,-184,-193
-84,-79,3,81,-45,-38,-127,-284,-307,-267,-184,-193
-90,-85,3,81,-51,-44,-121,-278,-301,-261,-178,-193
-90,-85,3,81,-51,-44,-115,-266,-283,-255,-184,-193
-90,-85,3,81,-51,-44,-103,-254,-271,-249,-178,-193
-84,-85,-3,81,-45,-44,-97,-242,-253,-237,-172,-193
-78,-85,-9,75,-39,-50,-91,-230,-241,-225,-160,-181
-72,-85,-15,75,-33,-50,-79,-206,-223,-207,-148,-169
-66,-79,-15,69,-27,-50,-73,-194,-205,-195,-136,-157
-60,-79,-21,69,-21,-50,-61,-176,-193,-171,-106,-139
-54,-85,-33,63,-15,-62,-49,-158,-169,-153,-94,-121
-48,-79,-33,63,-9,-56,-43,-134,-145,-129,-76,-109
-36,-79,-45,57,3,-62,-25,-110,-121,-105,-58,-85
-30,-79,-51,51,9,-68,-19,-92,-97,-93,-46,-67
-24,-73,-51,45,9,-62,-7,-80,-79,-75,-28,-55
-12,-73,-63,39,21,-68,-1,-68,-61,-57,-16,-43
0,-73,-75,33,33,-74,-1,-56,-49,-39,2,-25
18,-73,-93,21,51,-86,-1,-44,-37,-21,20,-13
30,-79,-111,21,69,-96,5,-26,-19,-9,38,-3
47,-85,-133,15,85,-108,11,-14,-7,9,49,9
70,-85,-157,5,109,-120,17,10,17,20,66,33
94,-85,-181,-7,133,-132,23,34,33,37,78,51
118,-91,-211,-13,163,-150,29,57,51,61,96,75
142,-97,-241,-25,187,-168,41,80,81,85,120,105
166,-91,-259,-37,211,-174,46,110,111,121,150,135
184,-79,-265,-49,223,-168,69,146,153,157,174,165
196,-63,-259,-61,229,-156,123,224,225,199,210,195
214,-51,-265,-79,241,-156,213,344,339,253,240,219
232,-51,-283,-85,259,-162,321,506,471,301,276,243
268,-57,-325,-103,295,-186,435,704,627,379,318,279
322,-63,-385,-127,355,-222,555,926,807,487,390,339
394,-73,-469,-163,427,-270,675,1196,1017,625,480,423
496,-79,-577,-205,535,-324,819,1508,1281,805,606,537
616,-79,-697,-265,655,-384,987,1880,1599,1039,768,693
748,-68,-817,-337,781,-438,1155,2264,1941,1321,978,897
886,-51,-937,-415,913,-492,1293,2587,2259,1639,1230,1131
1018,-27,-1045,-493,1033,-534,1377,2797,2510,1969,1500,1395
1144,15,-1129,-577,1135,-552,1365,2821,2642,2281,1776,1659
1264,93,-1171,-673,1219,-534,1269,2737,2702,2592,2076,1947
1372,189,-1183,-775,1279,-492,1131,2629,2756,2934,2394,2247
1480,303,-1177,-889,1327,-432,969,2509,2792,3276,2717,2552
1558,381,-1177,-967,1369,-396,837,2396,2834,3606,3011,2828
1558,477,-1081,-1015,1321,-300,735,2228,2846,3882,3263,3050
1474,549,-925,-1009,1201,-186,681,2024,2798,4032,3413,3176
1348,573,-775,-955,1063,-96,657,1796,2684,4032,3425,3182
1180,519,-661,-847,919,-68,639,1568,2492,3852,3269,3044
982,429,-553,-703,769,-62,627,1322,2217,3528,2993,2792
748,309,-439,-523,595,-62,639,1070,1881,3078,2615,2426
484,177,-307,-325,397,-62,663,812,1491,2514,2142,1971
214,21,-193,-115,205,-86,681,554,1071,1879,1626,1467
-36,-109,-75,69,15,-91,693,296,645,1225,1098,945
-234,-205,27,213,-135,-91,693,86,303,679,648,507
-360,-271,87,315,-225,-91,633,-86,51,301,324,201
-432,-325,105,375,-273,-108,543,-230,-127,49,108,-3
-468,-367,99,417,-285,-132,429,-362,-271,-135,-46,-133
-486,-397,87,435,-291,-156,309,-476,-391,-267,-160,-229
-474,-427,45,447,-261,-192,189,-554,-481,-357,-244,-289
-450,-445,3,441,-231,-222,57,-620,-559,-429,-304,-331
-420,-439,-21,429,-201,-228,-61,-656,-607,-471,-346,-361
-390,-415,-27,399,-183,-222,-151,-662,-625,-489,-364,-373
-360,-379,-21,369,-171,-198,-193,-632,-613,-495,-370,-373
-336,-343,-9,339,-165,-174,-199,-590,-583,-495,-376,-379
-312,-307,3,309,-159,-150,-187,-548,-553,-501,-376,-385
-294,-277,15,279,-159,-132,-163,-506,-523,-489,-370,-379
-276,-241,33,255,-159,-102,-139,-458,-481,-471,-358,-361
-252,-211,39,231,-147,-86,-121,-410,-433,-435,-328,-331
-228,-181,45,201,-141,-68,-109,-362,-385,-399,-304,-307
-216,-157,57,183,-141,-50,-91,-314,-343,-375,-286,-295
-204,-139,63,171,-135,-38,-85,-284,-319,-357,-274,-283
-198,-121,75,153,-141,-26,-73,-254,-295,-351,-268,-277
-180,-109,69,141,-129,-20,-55,-236,-283,-351,-268,-283
-168,-97,69,129,-123,-14,-49,-230,-277,-357,-274,-283
-168,-91,75,129,-123,-8,-49,-230,-277,-357,-268,-283
-168,-91,75,129,-123,-8,-49,-230,-277,-357,-268,-289
-168,-85,81,123,-129,-2,-61,-230,-271,-345,-268,-289
-168,-85,81,123,-129,-2,-67,-236,-271,-345,-268,-289
-162,-79,81,117,-123,-2,-67,-236,-271,-345,-268,-289
-162,-79,81,117,-123,-2,-73,-236,-271,-333,-274,-289
-162,-73,87,111,-129,4,-79,-230,-265,-327,-268,-277
-156,-73,81,111,-123,4,-73,-224,-259,-321,-268,-277
-150,-73,75,105,-117,-2,-73,-224,-259,-315,-274,-277
-144,-68,75,105,-111,4,-73,-212,-253,-309,-268,-271
-144,-63,81,105,-111,10,-73,-212,-253,-303,-262,-271
-144,-63,81,105,-111,10,-73,-206,-253,-303,-268,-271
-144,-57,87,99,-117,16,-73,-206,-253,-309,-274,-277
-144,-57,87,99,-117,16,-73,-206,-253,-315,-280,-277
-138,-63,75,99,-105,4,-73,-200,-253,-321,-274,-277
-138,-51,87,93,-111,16,-73,-200,-247,-321,-268,-271
-132,-45,87,87,-111,22,-67,-194,-247,-327,-262,-271
-132,-45,87,87,-111,22,-67,-188,-241,-321,-256,-265
-132,-45,87,87,-111,22,-61,-182,-235,-321,-250,-259
-138,-45,93,87,-117,22,-61,-176,-229,-321,-250,-253
-138,-51,87,93,-111,16,-55,-170,-229,-321,-250,-247
-138,-51,87,93,-111,16,-55,-164,-223,-321,-238,-241
-138,-51,87,93,-111,16,-55,-152,-211,-315,-232,-235
-144,-51,93,99,-117,22,-55,-152,-211,-315,-226,-229
-144,-57,87,99,-117,16,-55,-140,-205,-315,-220,-223
-144,-57,87,99,-117,16,-55,-128,-199,-315,-220,-217
-138,-51,87,93,-111,16,-55,-122,-193,-309,-220,-205
-132,-45,87,87,-111,22,-55,-116,-181,-309,-220,-205
-126,-39,87,81,-105,22,-49,-110,-175,-309,-220,-199
-126,-33,93,75,-111,28,-49,-104,-169,-309,-226,-199
-126,-33,93,75,-111,28,-49,-104,-169,-303,-226,-199
-126,-27,99,75,-111,34,-49,-98,-163,-297,-226,-199
-114,-15,99,63,-105,40,-43,-92,-157,-291,-214,-193
-108,-9,99,57,-105,46,-43,-86,-151,-273,-208,-187
-108,-3,105,57,-105,52,-49,-80,-145,-261,-208,-181
-108,-9,99,57,-105,46,-49,-74,-133,-249,-208,-175
-108,-9,99,57,-105,46,-49,-68,-127,-243,-202,-169
-108,-9,99,57,-105,46,-49,-68,-121,-237,-196,-163
-102,-9,93,51,-99,40,-49,-68,-109,-225,-190,-157
-90,3,93,39,-93,46,-49,-62,-103,-213,-184,-145
-90,15,105,33,-99,58,-43,-56,-103,-201,-184,-145
-90,15,105,33,-99,58,-37,-56,-97,-189,-178,-139
-84,21,105,33,-93,64,-37,-50,-91,-171,-166,-139
-84,27,111,27,-99,70,-31,-38,-79,-153,-166,-133
-84,27,111,27,-99,70,-31,-38,-73,-147,-166,-133
-84,33,117,27,-99,76,-31,-38,-61,-135,-160,-133
-84,33,117,27,-99,76,-25,-32,-43,-129,-160,-121
-78,33,111,21,-93,70,-25,-32,-31,-117,-154,-121
-78,39,117,15,-99,76,-25,-26,-19,-111,-154,-121
-78,39,117,15,-99,76,-25,-20,-13,-105,-148,-121
-84,39,123,21,-105,82,-25,-14,-13,-93,-142,-121
-78,39,117,15,-99,76,-25,-2,-1,-81,-136,-115
-66,57,123,5,-93,88,-19,10,11,-69,-124,-115
-54,63,117,-7,-87,88,-13,16,22,-63,-118,-109
-42,69,111,-13,-75,88,-7,34,33,-57,-106,-103
-36,81,117,-19,-75,100,-1,46,51,-45,-100,-97
-36,87,123,-25,-81,106,-1,57,63,-39,-94,-91
-36,93,129,-25,-81,112,5,62,75,-33,-88,-79
-30,99,129,-37,-81,112,11,80,87,-21,-76,-67
-24,111,135,-43,-81,124,11,98,99,-3,-64,-61
-24,117,141,-43,-81,130,17,122,117,9,-52,-43
-24,123,147,-49,-87,136,23,146,135,20,-40,-31
-18,129,147,-55,-81,136,29,170,153,31,-28,-19
-12,129,141,-55,-75,136,35,188,171,43,-16,-13
-12,135,147,-61,-81,142,46,206,189,55,8,-8
-6,141,147,-67,-75,142,51,230,213,73,26,3
0,147,147,-73,-75,148,51,248,225,85,38,21
12,159,147,-85,-69,154,51,266,249,103,49,33
18,165,147,-91,-63,154,57,290,267,121,54,45
30,177,147,-103,-57,160,57,314,291,139,66,57
42,189,147,-115,-51,166,63,338,309,157,78,69
47,195,147,-121,-51,172,63,362,333,175,90,81
47,207,159,-127,-57,184,69,386,357,199,108,93
52,213,159,-127,-51,190,75,416,375,217,132,111
58,225,165,-139,-51,196,81,440,405,241,150,129
70,231,159,-151,-45,196,93,458,429,265,168,141
82,231,147,-157,-33,190,105,476,453,283,186,147
88,243,153,-163,-33,202,111,488,477,307,198,159
94,255,159,-175,-33,208,117,506,501,325,216,177
