,,,,,,,,,,,
2019-09-04 23:51:21,,,,,,,,,,,
,,,,,,,,,,,
I,II,III,aVR,aVL,aVF,V1,V2,V3,V4,V5,V6
-233,949,1240,-308,-738,1095,-227,257,6,-29,-30,-104
-65,343,352,-200,-210,345,-41,47,-41,-71,-90,-104
-29,313,298,-182,-168,303,-23,17,-65,-89,-114,-104
-17,295,280,-170,-150,291,-11,5,-77,-101,-126,-104
-11,289,274,-164,-144,285,-5,-1,-83,-113,-132,-104
-6,289,274,-164,-144,285,0,-1,-89,-119,-138,-110
-6,283,274,-158,-144,279,0,-6,-89,-119,-138,-110
-6,277,268,-158,-138,273,6,-6,-95,-125,-144,-110
0,271,262,-152,-138,267,6,-6,-95,-125,-144,-110
0,265,256,-146,-138,261,6,-6,-95,-125,-144,-110
0,259,250,-146,-138,255,6,-6,-95,-125,-144,-110
0,259,250,-146,-138,255,12,-6,-95,-125,-144,-110
6,259,244,-146,-132,255,12,-6,-95,-125,-144,-110
12,259,244,-146,-126,255,12,-6,-95,-125,-144,-110
12,259,244,-146,-126,255,12,-6,-95,-125,-144,-110
12,259,244,-146,-126,255,12,-6,-95,-125,-144,-110
12,259,244,-146,-126,255,12,-6,-95,-125,-144,-110
12,259,244,-146,-126,255,12,-6,-95,-125,-144,-110
12,259,244,-146,-126,255,12,-12,-95,-125,-144,-110
12,253,244,-140,-126,249,12,-12,-95,-125,-144,-110
12,247,244,-140,-126,243,12,-12,-95,-125,-144,-110
12,247,238,-140,-120,243,12,-12,-95,-125,-144,-110
12,247,238,-140,-120,243,12,-12,-95,-125,-144,-110
12,247,238,-134,-120,243,12,-18,-95,-125,-144,-110
12,247,238,-134,-120,243,12,-18,-95,-125,-144,-110
12,241,238,-128,-120,243,12,-18,-95,-125,-144,-110
12,229,226,-122,-120,231,18,-18,-95,-125,-144,-104
12,199,196,-116,-114,201,24,-18,-89,-119,-144,-104
12,187,172,-110,-102,183,24,-18,-83,-119,-138,-98
12,163,160,-98,-96,165,30,-18,-77,-113,-138,-98
12,151,148,-92,-90,153,36,-18,-65,-107,-132,-92
12,145,148,-86,-90,147,42,-18,-59,-107,-126,-86
12,139,136,-80,-78,141,42,-18,-53,-107,-126,-86
12,133,124,-80,-66,129,42,-18,-53,-107,-126,-86
12,133,118,-80,-60,129,42,-18,-53,-107,-126,-86
12,133,118,-80,-60,129,42,-18,-53,-101,-126,-86
12,127,112,-80,-60,123,42,-18,-53,-101,-126,-86
12,121,106,-80,-60,117,42,-18,-53,-101,-126,-86
12,121,106,-80,-60,117,42,-18,-53,-101,-126,-86
12,121,106,-80,-54,117,42,-18,-53,-101,-126,-86
12,121,106,-80,-54,111,42,-18,-53,-101,-126,-86
12,121,106,-80,-54,111,42,-18,-53,-101,-126,-86
12,121,106,-80,-54,111,42,-18,-53,-101,-126,-86
12,121,100,-80,-54,111,48,-18,-53,-101,-126,-86
12,121,100,-80,-54,111,48,-18,-53,-101,-126,-86
12,121,100,-80,-54,111,48,-18,-53,-101,-126,-86
12,121,100,-80,-54,111,48,-18,-53,-95,-126,-86
12,115,100,-80,-54,111,48,-18,-53,-95,-126,-86
12,115,100,-80,-54,111,48,-18,-53,-95,-126,-86
12,115,100,-80,-54,111,48,-18,-53,-95,-126,-86
12,115,100,-80,-54,111,48,-18,-53,-95,-126,-86
12,115,100,-80,-54,111,48,-18,-53,-95,-126,-86
18,115,100,-80,-54,111,48,-18,-53,-95,-126,-80
18,115,94,-80,-48,105,48,-24,-53,-95,-126,-80
18,109,94,-74,-48,105,48,-30,-53,-95,-126,-80
18,109,94,-74,-48,105,48,-30,-53,-95,-126,-80
18,109,94,-74,-42,105,48,-30,-53,-95,-126,-80
18,109,94,-74,-42,105,48,-30,-53,-95,-126,-80
18,109,88,-74,-42,99,48,-30,-53,-95,-126,-80
18,109,88,-74,-42,99,48,-30,-53,-95,-120,-74
12,103,88,-68,-48,99,48,-30,-53,-95,-120,-74
12,103,88,-68,-48,99,48,-30,-53,-95,-120,-74
12,97,82,-68,-42,93,48,-30,-53,-95,-120,-74
12,97,76,-68,-36,87,48,-30,-53,-95,-120,-74
12,97,76,-68,-36,87,48,-30,-53,-95,-120,-74
12,91,76,-68,-36,87,48,-30,-53,-95,-120,-74
12,91,76,-62,-36,87,48,-30,-53,-95,-120,-74
12,91,76,-62,-36,87,48,-30,-53,-95,-120,-74
12,91,70,-62,-36,87,48,-30,-53,-95,-120,-74
12,85,64,-56,-36,81,48,-30,-53,-95,-120,-74
12,85,64,-56,-36,81,48,-30,-53,-95,-120,-74
12,85,64,-56,-36,81,48,-36,-53,-95,-120,-74
12,85,64,-56,-36,75,48,-36,-53,-95,-120,-74
12,85,64,-56,-36,75,48,-36,-53,-95,-120,-74
12,85,64,-50,-36,75,48,-36,-53,-95,-114,-74
12,85,64,-50,-36,75,48,-36,-53,-95,-114,-74
18,85,64,-50,-36,75,48,-36,-53,-95,-114,-74
24,85,64,-50,-36,75,48,-36,-53,-95,-108,-68
24,85,64,-50,-36,75,48,-36,-53,-95,-108,-68
18,85,64,-50,-36,75,48,-36,-53,-89,-102,-62
18,85,64,-50,-36,75,48,-36,-53,-83,-96,-56
18,85,64,-50,-36,75,48,-36,-53,-77,-96,-56
24,91,64,-56,-36,81,48,-36,-47,-71,-90,-50
24,103,70,-62,-36,87,48,-36,-41,-65,-84,-44
24,103,76,-62,-42,93,48,-36,-41,-59,-78,-38
24,103,88,-62,-48,99,54,-36,-35,-53,-72,-38
24,109,94,-62,-48,105,54,-36,-35,-53,-72,-32
24,121,106,-68,-54,117,54,-36,-29,-47,-66,-26
24,145,118,-80,-54,129,54,-36,-29,-41,-60,-26
24,151,124,-86,-60,141,54,-36,-23,-35,-54,-20
24,151,130,-86,-60,147,60,-36,-23,-29,-48,-20
24,157,142,-86,-60,153,60,-36,-23,-29,-48,-20
24,169,148,-92,-60,159,66,-36,-17,-29,-48,-20
24,181,154,-98,-60,165,66,-36,-17,-29,-48,-14
24,187,160,-98,-66,171,66,-36,-17,-29,-48,-8
24,193,172,-98,-72,183,66,-36,-11,-29,-42,-8
24,205,178,-110,-78,189,66,-36,-11,-23,-36,-2
30,211,178,-122,-78,195,60,-48,-11,-23,-36,4
30,223,184,-134,-78,207,48,-60,-11,-23,-36,4
36,235,196,-140,-78,219,42,-66,-11,-23,-30,15
36,247,214,-146,-84,231,42,-72,-11,-17,-18,21
36,259,226,-152,-90,243,36,-72,-11,-11,-12,27
36,271,238,-158,-96,255,30,-78,-11,-5,-6,33
36,283,250,-164,-102,261,18,-84,-11,-5,0,39
36,289,256,-170,-102,267,12,-84,-11,1,0,45
36,295,262,-170,-108,279,6,-84,-11,1,5,51
36,307,268,-176,-108,285,0,-84,-5,6,11,63
42,325,274,-188,-114,297,0,-84,1,12,23,75
48,331,274,-194,-114,303,-5,-84,1,18,29,81
48,331,274,-194,-114,303,-5,-90,1,18,29,87
48,331,274,-194,-114,303,-5,-90,1,18,29,87
48,325,268,-194,-114,297,-5,-90,1,18,29,93
48,319,262,-194,-108,291,-11,-96,1,18,29,93
54,313,250,-194,-102,279,-17,-102,1,18,29,93
60,301,238,-194,-90,267,-23,-108,-5,12,29,93
60,283,220,-188,-84,255,-29,-114,-11,6,29,93
60,253,202,-176,-84,225,-29,-120,-17,-5,23,87
60,241,184,-170,-78,207,-29,-126,-29,-17,11,75
60,235,172,-164,-72,201,-29,-126,-35,-23,5,69
54,217,166,-152,-72,189,-29,-126,-35,-29,0,57
54,187,154,-134,-72,177,-29,-126,-35,-35,-6,45
54,163,136,-122,-66,153,-29,-126,-41,-41,-18,33
54,145,118,-110,-60,135,-23,-126,-47,-47,-30,21
42,127,112,-92,-54,123,-17,-126,-47,-47,-36,15
30,103,100,-68,-54,111,-5,-126,-47,-47,-42,9
24,85,88,-56,-54,93,0,-126,-53,-59,-54,-2
24,79,76,-50,-48,81,0,-126,-59,-65,-60,-8
24,73,64,-44,-42,69,6,-126,-59,-71,-66,-14
24,67,58,-44,-36,63,12,-126,-59,-77,-72,-20
24,55,46,-38,-30,57,12,-126,-65,-77,-72,-26
18,43,40,-26,-30,45,12,-126,-71,-77,-78,-32
12,31,34,-20,-30,33,12,-126,-71,-77,-78,-38
12,25,28,-14,-30,21,12,-126,-71,-77,-78,-38
12,19,22,-14,-24,15,12,-126,-71,-77,-78,-38
12,13,16,-14,-18,9,18,-120,-71,-77,-78,-38
12,13,16,-14,-18,3,24,-114,-71,-77,-78,-38
12,13,16,-14,-18,3,30,-102,-65,-77,-78,-38
12,13,16,-14,-18,9,36,-84,-53,-65,-72,-38
12,13,16,-14,-18,9,48,-66,-17,-47,-66,-32
12,13,16,-14,-18,9,60,-36,24,-17,-48,-26
12,13,16,-14,-12,9,72,-1,54,18,-24,-20
18,13,4,-14,-1,9,84,35,96,48,0,-8
24,7,-25,-14,17,-2,96,65,126,78,11,-2
30,-4,-55,-14,29,-32,102,101,156,108,23,9
42,-16,-97,-14,53,-62,114,143,198,132,41,15
66,-22,-115,-14,71,-74,126,179,240,168,59,27
78,-28,-127,-14,83,-86,132,221,282,198,83,39
84,-40,-139,-14,95,-98,138,239,312,228,101,51
90,-52,-151,-14,107,-110,144,257,342,258,113,63
96,-52,-157,-20,119,-110,150,293,384,294,143,75
102,-52,-157,-26,119,-110,162,335,438,348,185,99
108,-46,-157,-32,125,-104,174,389,504,414,215,117
114,-40,-157,-44,125,-98,222,479,582,468,239,129
114,-40,-157,-50,125,-98,306,629,672,516,257,135
120,-46,-175,-50,137,-110,408,821,798,576,269,141
138,-82,-247,-50,179,-176,474,1013,960,684,305,141
186,-112,-343,-50,245,-224,498,1169,1194,906,413,165
264,-118,-415,-56,323,-260,498,1265,1476,1212,599,249
336,-118,-457,-86,401,-290,468,1277,1740,1542,815,363
390,-118,-487,-128,437,-296,348,1241,1944,1860,1055,513
462,-76,-499,-194,473,-296,198,1061,2117,2195,1313,669
546,19,-499,-290,515,-266,36,911,2315,2548,1595,855
618,133,-499,-380,533,-200,-125,689,2440,2836,1853,1035
666,259,-457,-470,533,-104,-323,359,2440,2986,2068,1209
690,355,-385,-518,533,-20,-479,-18,2267,2986,2152,1335
696,355,-385,-518,533,-20,-557,-348,1830,2704,2140,1335
696,211,-463,-482,545,-128,-593,-660,1104,1998,1793,1233
630,19,-553,-326,551,-272,-611,-996,114,960,1265,981
492,-154,-589,-170,551,-374,-611,-1302,-851,-119,665,681
366,-328,-643,-20,539,-476,-581,-1356,-1355,-821,143,369
300,-406,-661,57,509,-518,-461,-1296,-1361,-1013,-144,147
240,-412,-649,75,455,-518,-353,-1062,-1193,-1001,-204,69
192,-412,-595,93,389,-506,-293,-828,-947,-857,-222,9
138,-418,-559,129,341,-500,-221,-582,-725,-749,-252,-68
96,-418,-523,147,299,-488,-143,-384,-557,-677,-306,-152
66,-418,-475,153,251,-458,-95,-258,-449,-593,-336,-200
54,-394,-421,153,221,-416,-53,-204,-377,-533,-342,-224
48,-358,-367,153,191,-368,-29,-168,-335,-485,-342,-230
36,-328,-325,153,179,-326,-17,-156,-305,-449,-342,-230
30,-298,-295,153,155,-290,-11,-144,-293,-419,-336,-230
24,-268,-265,147,143,-254,-5,-132,-269,-389,-324,-224
18,-232,-229,135,131,-224,6,-120,-239,-359,-300,-218
6,-208,-187,123,101,-188,12,-114,-227,-329,-276,-206
-6,-184,-145,117,65,-164,18,-114,-215,-317,-258,-188
-11,-166,-133,105,53,-152,18,-114,-203,-305,-246,-176
-11,-136,-127,81,53,-140,24,-114,-197,-299,-240,-170
-11,-118,-103,69,41,-116,24,-114,-191,-293,-234,-164
-11,-106,-73,63,29,-92,24,-114,-185,-281,-228,-158
-11,-100,-61,63,17,-86,30,-114,-179,-275,-228,-152
-11,-94,-55,63,17,-80,36,-114,-179,-269,-228,-152
-11,-94,-49,63,11,-68,36,-114,-179,-263,-228,-152
-11,-94,-43,63,5,-68,36,-114,-179,-263,-228,-152
-11,-88,-43,57,5,-68,36,-108,-179,-263,-228,-152
-11,-76,-43,45,5,-62,36,-108,-179,-263,-228,-152
-11,-70,-43,45,5,-62,36,-108,-179,-263,-228,-152
-17,-70,-37,45,-1,-62,36,-108,-179,-263,-228,-146
-17,-64,-31,45,-7,-56,36,-108,-173,-263,-228,-140
-17,-58,-25,45,-12,-50,36,-108,-173,-257,-222,-140
-17,-58,-25,45,-12,-44,36,-108,-167,-251,-216,-140
-17,-58,-19,45,-12,-38,36,-108,-167,-251,-216,-140
-23,-58,-13,45,-12,-38,36,-108,-161,-245,-216,-140
-23,-58,-13,45,-12,-32,36,-108,-161,-239,-216,-140
-23,-52,-13,45,-12,-32,42,-108,-155,-233,-210,-140
-23,-52,-13,45,-12,-32,42,-108,-155,-233,-204,-140
-29,-52,-7,45,-18,-32,42,-108,-149,-227,-204,-140
-29,-52,-7,45,-18,-32,48,-102,-149,-227,-204,-140
-29,-46,-7,45,-18,-32,48,-102,-149,-227,-204,-140
-29,-40,-7,45,-18,-26,48,-102,-149,-227,-204,-134
-29,-34,-1,45,-18,-20,48,-102,-149,-227,-204,-134
-29,-28,-1,39,-18,-14,54,-96,-143,-221,-204,-134
-29,-22,-1,33,-18,-14,54,-90,-137,-215,-204,-134
-29,-22,-1,33,-18,-14,54,-90,-131,-215,-204,-128
-29,-22,4,33,-18,-14,54,-90,-131,-215,-204,-128
-29,-22,4,33,-18,-14,54,-90,-131,-215,-204,-128
-29,-22,10,27,-24,-8,54,-90,-131,-215,-198,-128
-29,-22,10,27,-24,-8,54,-90,-131,-215,-192,-122
-29,-22,10,27,-24,-8,54,-84,-131,-209,-192,-122
-29,-22,16,27,-30,-8,54,-84,-131,-209,-192,-122
-29,-22,16,27,-30,-8,54,-84,-131,-209,-192,-122
-29,-22,16,27,-30,-8,54,-84,-131,-209,-192,-122
-29,-22,16,27,-30,-2,54,-84,-131,-209,-192,-122
-29,-22,22,27,-36,-2,54,-78,-131,-209,-192,-122
-29,-16,22,27,-36,3,54,-78,-131,-209,-192,-122
-29,-10,22,21,-36,9,54,-78,-131,-209,-192,-122
-29,-10,22,21,-36,9,54,-78,-131,-209,-192,-122
-29,-10,22,21,-36,9,54,-78,-131,-209,-192,-122
-29,-10,22,21,-36,9,54,-78,-131,-209,-192,-122
-29,-4,28,21,-36,9,54,-72,-125,-209,-192,-122
-29,1,28,15,-36,9,54,-72,-125,-209,-192,-122
-29,7,28,15,-36,15,54,-72,-125,-209,-192,-122
-29,13,34,9,-36,21,54,-72,-125,-209,-192,-122
-29,19,40,9,-42,27,54,-72,-125,-209,-186,-122
-29,19,46,9,-42,33,54,-72,-125,-209,-186,-122
-29,19,46,9,-42,33,54,-72,-125,-209,-186,-122
-29,19,46,9,-42,33,54,-72,-125,-209,-186,-122
-29,25,46,9,-42,39,54,-72,-125,-209,-186,-122
-29,25,52,9,-42,39,54,-72,-125,-209,-186,-122
-29,25,58,9,-48,39,54,-72,-125,-209,-186,-122
-29,25,58,9,-48,45,54,-72,-125,-209,-186,-122
-29,25,58,9,-48,45,54,-66,-125,-209,-186,-122
-29,25,58,9,-48,51,54,-60,-125,-209,-186,-116
-29,25,64,9,-48,51,54,-60,-119,-209,-186,-116
-29,25,70,9,-54,51,54,-54,-119,-209,-186,-116
-35,25,76,9,-60,51,54,-48,-119,-209,-186,-116
-35,31,76,9,-60,57,60,-48,-119,-209,-186,-116
-35,37,82,9,-60,63,60,-48,-119,-209,-186,-116
-35,43,82,9,-60,69,60,-48,-119,-209,-186,-116
-35,49,82,9,-60,69,60,-42,-119,-209,-186,-116
-35,55,82,3,-66,69,60,-36,-113,-209,-186,-116
-35,55,88,3,-66,69,66,-36,-113,-209,-186,-116
-35,55,94,3,-72,69,66,-30,-113,-209,-186,-116
-35,55,100,3,-72,75,66,-24,-113,-209,-186,-116
-35,61,100,3,-72,81,66,-18,-113,-209,-186,-116
-35,61,106,3,-72,81,72,-12,-113,-209,-186,-116
-35,61,106,3,-72,87,78,-6,-113,-209,-186,-116
-35,61,112,-3,-78,93,84,-1,-113,-209,-186,-116
-35,67,118,-8,-84,99,90,5,-113,-209,-186,-116
-41,73,124,-8,-90,105,96,11,-113,-209,-186,-116
-53,79,136,-8,-102,111,96,17,-113,-209,-186,-116
-53,79,142,-8,-102,111,96,23,-113,-209,-186,-116
-53,85,142,-14,-102,111,102,23,-113,-209,-186,-116
-53,91,148,-14,-102,117,108,29,-113,-209,-186,-116
-59,91,154,-14,-108,123,108,35,-113,-215,-192,-116
-65,91,160,-14,-114,123,108,35,-113,-227,-204,-116
-65,91,166,-14,-114,129,108,41,-113,-233,-210,-116
-65,97,172,-20,-114,135,114,47,-113,-239,-216,-116
-65,103,178,-26,-120,141,120,53,-113,-245,-222,-116
-65,109,184,-26,-126,147,126,59,-113,-251,-228,-116
-71,115,190,-26,-138,153,132,65,-119,-257,-234,-116
-71,121,196,-26,-144,159,138,71,-119,-263,-234,-116
-71,127,202,-26,-144,165,144,83,-125,-269,-234,-116
-71,133,208,-26,-144,171,156,95,-125,-275,-234,-116
-71,139,220,-26,-150,183,168,101,-125,-281,-234,-116
-71,139,226,-26,-156,189,174,107,-125,-287,-240,-116
-77,139,226,-26,-156,189,174,107,-131,-299,-252,-122
-77,139,232,-26,-156,189,174,107,-137,-311,-264,-122
-77,151,238,-32,-156,195,180,113,-137,-317,-270,-122
-83,157,244,-32,-162,195,186,119,-137,-323,-276,-122
-89,157,244,-32,-162,195,192,119,-143,-335,-288,-128
-89,157,244,-32,-162,195,192,125,-149,-347,-294,-134
-89,157,244,-32,-162,195,198,137,-149,-347,-300,-134
-95,157,250,-32,-168,201,204,143,-149,-347,-306,-140
-101,157,250,-32,-174,201,210,149,-149,-347,-306,-146
-101,151,250,-26,-174,201,210,155,-149,-353,-312,-146
-101,151,250,-26,-174,201,210,161,-149,-353,-312,-146
-101,151,250,-26,-174,201,216,167,-149,-353,-312,-146
-101,151,250,-26,-174,201,222,173,-149,-353,-312,-146
-101,151,250,-26,-174,201,222,179,-149,-353,-318,-146
-101,151,244,-26,-174,201,228,185,-149,-353,-318,-146
-101,151,244,-26,-174,195,234,197,-149,-353,-318,-146
-101,151,244,-26,-174,195,234,209,-143,-353,-318,-146
-101,151,238,-26,-174,195,240,221,-137,-353,-318,-146
-95,151,232,-26,-168,195,246,227,-125,-353,-318,-146
-95,145,232,-26,-168,189,246,233,-119,-347,-318,-146
-95,133,232,-20,-168,183,246,239,-113,-341,-318,-146
-95,127,226,-20,-168,177,246,245,-101,-335,-318,-146
-95,127,220,-20,-162,171,246,257,-83,-323,-318,-146
-89,127,208,-26,-156,165,246,263,-71,-311,-312,-146
-89,127,196,-26,-150,159,246,263,-53,-299,-300,-146
-89,121,190,-26,-150,153,246,269,-41,-281,-288,-140
-89,115,184,-26,-150,147,246,269,-29,-263,-276,-140
-77,115,172,-26,-138,141,246,269,-17,-239,-264,-134
-47,115,160,-32,-114,135,246,269,-5,-221,-252,-128
-41,115,154,-32,-108,129,240,269,6,-209,-234,-116
-41,109,148,-32,-102,123,228,263,12,-191,-210,-110
-41,103,148,-32,-102,123,216,257,18,-173,-198,-98
-41,103,148,-32,-102,123,204,245,24,-155,-186,-92
-41,103,142,-32,-96,117,192,227,24,-143,-174,-86
-41,97,130,-32,-90,111,174,197,24,-131,-162,-80
-35,97,124,-32,-84,111,162,173,24,-119,-150,-74
-35,97,124,-32,-84,111,156,161,30,-95,-126,-68
-35,97,118,-32,-84,111,144,149,30,-83,-114,-56
-29,97,112,-32,-78,105,138,131,30,-71,-102,-50
-23,97,106,-32,-72,105,126,119,30,-65,-90,-44
-17,97,100,-32,-66,99,102,95,30,-53,-78,-38
-11,97,100,-38,-66,99,90,83,30,-41,-66,-26
-11,97,100,-38,-66,99,84,71,30,-35,-54,-20
-6,97,100,-44,-60,99,78,59,30,-29,-48,-14
0,97,88,-50,-54,93,72,35,30,-29,-42,-14
0,97,88,-50,-48,93,66,23,30,-23,-36,-8
0,97,88,-50,-48,93,60,11,30,-17,-30,-8
0,97,82,-50,-48,87,54,5,30,-17,-24,-8
0,97,76,-50,-42,81,48,-6,24,-17,-18,-8
0,91,70,-50,-36,75,42,-18,18,-17,-18,-8
0,85,70,-50,-36,69,30,-30,12,-17,-18,-8
6,85,64,-50,-30,69,24,-36,12,-17,-18,-2
18,85,64,-56,-24,69,18,-42,12,-17,-12,4
18,79,58,-56,-24,69,12,-48,6,-17,-12,4
12,67,58,-50,-24,63,0,-60,1,-17,-12,4
6,61,58,-50,-24,63,-5,-72,-5,-17,-12,4
6,61,58,-50,-24,63,-5,-78,-11,-17,-12,4
6,61,58,-50,-24,63,-5,-78,-11,-17,-12,4
6,61,58,-50,-24,63,-5,-84,-11,-17,-12,4
6,61,52,-50,-24,63,-11,-90,-11,-17,-12,4
6,61,52,-50,-24,63,-11,-90,-11,-17,-12,4
6,61,52,-50,-24,63,-11,-90,-11,-17,-12,4
6,61,52,-50,-24,63,-11,-90,-11,-17,-12,4
6,61,52,-50,-24,57,-17,-96,-17,-17,-12,4
6,61,52,-50,-24,57,-17,-102,-23,-23,-12,4
12,61,52,-50,-24,57,-17,-102,-23,-23,-12,4
12,61,52,-50,-24,57,-17,-108,-29,-29,-12,4
12,55,52,-44,-24,57,-17,-108,-35,-29,-12,4
12,49,52,-38,-24,51,-23,-108,-35,-29,-12,4
12,49,52,-38,-24,51,-23,-108,-35,-29,-12,4
12,49,52,-38,-24,51,-23,-108,-35,-35,-12,4
12,49,52,-38,-24,51,-23,-108,-35,-35,-12,4
12,49,52,-38,-24,51,-29,-108,-35,-35,-12,4
12,49,52,-38,-24,51,-29,-114,-35,-41,-12,4
12,49,52,-38,-24,51,-29,-114,-35,-41,-12,4
12,49,52,-38,-24,51,-35,-114,-35,-41,-12,4
18,49,52,-44,-24,51,-35,-114,-35,-41,-12,4
18,49,52,-44,-24,51,-35,-114,-35,-47,-12,4
18,49,52,-44,-24,51,-35,-114,-41,-47,-12,4
12,49,52,-44,-24,51,-35,-114,-41,-47,-12,4
12,49,52,-44,-24,51,-35,-114,-41,-47,-12,4
12,49,52,-44,-24,51,-35,-114,-41,-47,-12,4
12,49,52,-44,-24,51,-35,-114,-47,-53,-12,4
12,49,52,-44,-24,51,-35,-120,-53,-53,-12,4
12,49,52,-44,-24,51,-35,-120,-53,-53,-12,4
12,49,52,-44,-24,51,-35,-120,-53,-53,-12,4
12,49,52,-44,-24,51,-41,-120,-53,-53,-12,4
12,49,52,-44,-24,51,-47,-120,-53,-53,-12,4
12,49,52,-44,-24,51,-47,-120,-53,-53,-18,4
12,49,52,-44,-24,51,-47,-126,-59,-53,-18,4
12,49,52,-44,-24,51,-47,-126,-59,-59,-18,4
12,55,52,-44,-24,51,-47,-126,-59,-59,-18,4
12,55,52,-44,-24,51,-47,-126,-59,-59,-18,4
12,55,52,-38,-24,51,-47,-126,-59,-65,-18,4
12,55,52,-38,-24,51,-53,-126,-59,-71,-18,4
12,55,52,-38,-24,51,-53,-126,-59,-71,-18,4
12,55,52,-38,-24,51,-53,-126,-59,-71,-18,4
12,55,52,-38,-24,51,-53,-126,-59,-71,-18,4
12,55,52,-38,-24,51,-53,-126,-65,-71,-18,4
12,55,52,-38,-24,51,-53,-132,-65,-71,-18,4
12,55,52,-38,-24,51,-53,-132,-65,-71,-18,4
12,55,52,-38,-24,51,-53,-132,-65,-71,-18,4
12,55,52,-38,-24,51,-53,-132,-65,-71,-18,4
12,55,52,-38,-24,51,-59,-132,-71,-71,-18,4
12,55,52,-38,-24,51,-59,-132,-71,-71,-18,4
12,55,52,-38,-24,51,-59,-132,-71,-71,-18,4
12,55,52,-38,-24,51,-59,-132,-71,-71,-18,4
12,55,52,-38,-24,51,-59,-138,-71,-77,-18,4
12,55,58,-38,-24,51,-59,-138,-71,-77,-18,4
12,55,58,-38,-24,51,-59,-138,-71,-77,-18,4
12,61,58,-38,-24,51,-59,-138,-71,-77,-18,4
12,61,58,-38,-24,51,-59,-138,-71,-77,-18,4
12,61,58,-38,-24,51,-59,-138,-71,-77,-18,4
12,61,58,-38,-24,57,-59,-138,-71,-77,-18,4
12,61,58,-38,-24,57,-59,-138,-71,-77,-18,4
12,61,58,-38,-24,57,-59,-138,-71,-77,-18,4
12,61,58,-38,-24,57,-59,-138,-71,-77,-18,4
12,67,58,-38,-30,63,-59,-138,-71,-77,-18,4
12,67,58,-38,-30,63,-59,-138,-71,-77,-18,4
12,67,64,-38,-30,63,-59,-138,-71,-77,-18,4
12,67,64,-38,-30,63,-59,-138,-71,-77,-18,4
6,67,64,-38,-36,63,-59,-138,-71,-77,-18,4
6,67,64,-38,-36,63,-65,-138,-71,-77,-18,4
6,67,64,-38,-36,63,-65,-138,-71,-77,-18,4
6,67,64,-38,-36,63,-65,-138,-71,-77,-18,4
6,67,64,-38,-36,63,-65,-138,-71,-77,-18,4
6,67,64,-38,-36,63,-65,-138,-71,-77,-18,4
6,67,64,-38,-36,63,-65,-138,-71,-77,-18,4
6,67,64,-38,-36,63,-65,-138,-71,-77,-18,4
6,67,64,-38,-36,63,-65,-138,-71,-77,-18,4
6,67,64,-38,-36,63,-65,-138,-71,-77,-18,4
6,67,64,-38,-36,63,-65,-138,-71,-77,-18,4
6,67,64,-38,-36,63,-65,-138,-71,-77,-18,4
6,67,64,-38,-36,63,-65,-138,-71,-77,-18,4
6,67,64,-38,-36,63,-65,-138,-71,-77,-18,4
0,67,70,-38,-42,63,-65,-138,-71,-77,-18,4
0,67,70,-38,-42,63,-65,-138,-71,-77,-18,4
6,67,64,-38,-42,63,-71,-138,-71,-77,-18,4
6,67,64,-38,-42,63,-71,-138,-71,-77,-18,4
6,67,64,-38,-42,63,-71,-144,-71,-77,-18,4
6,67,64,-38,-42,63,-71,-150,-71,-77,-18,4
6,67,64,-38,-42,63,-71,-150,-71,-77,-18,4
6,67,64,-38,-42,63,-71,-150,-71,-77,-18,4
6,67,64,-38,-42,63,-71,-150,-71,-77,-18,4
6,67,64,-38,-42,63,-71,-150,-71,-77,-18,4
6,67,64,-38,-42,63,-71,-150,-71,-77,-18,4
6,67,64,-38,-42,63,-71,-150,-71,-77,-18,4
6,67,64,-38,-42,63,-71,-150,-71,-77,-18,4
6,67,64,-38,-42,63,-71,-150,-71,-77,-18,4
6,67,64,-38,-42,63,-77,-150,-71,-77,-18,4
6,67,64,-38,-42,63,-77,-150,-71,-77,-18,4
6,67,64,-38,-42,63,-77,-150,-71,-77,-18,4
6,67,64,-38,-42,63,-77,-150,-71,-77,-18,4
6,67,64,-38,-42,63,-77,-150,-71,-77,-18,4
6,67,64,-38,-42,63,-83,-150,-71,-77,-18,4
6,67,64,-38,-42,63,-83,-150,-77,-77,-18,4
6,67,64,-38,-42,63,-83,-150,-77,-77,-18,4
6,67,64,-38,-42,63,-83,-150,-77,-83,-18,4
6,67,64,-38,-42,63,-83,-150,-77,-83,-18,4
6,67,64,-38,-42,63,-83,-150,-77,-83,-18,4
6,67,64,-38,-42,63,-89,-150,-77,-83,-18,4
6,67,64,-38,-42,63,-95,-150,-83,-83,-18,4
6,67,64,-38,-42,63,-95,-150,-83,-83,-18,4
6,67,64,-38,-42,63,-95,-150,-83,-83,-18,4
6,67,64,-38,-42,63,-95,-150,-83,-83,-18,4
6,67,64,-38,-42,63,-95,-150,-89,-83,-24,4
6,67,64,-38,-42,63,-95,-150,-89,-89,-24,4
6,67,64,-38,-42,63,-95,-150,-89,-89,-24,4
6,67,64,-38,-42,63,-95,-150,-89,-89,-24,4
6,67,64,-38,-42,63,-95,-150,-89,-89,-24,4
6,67,64,-38,-42,63,-95,-156,-89,-89,-24,4
6,67,64,-38,-42,63,-95,-156,-89,-89,-24,4
6,67,64,-38,-42,63,-95,-156,-89,-89,-24,4
6,67,64,-38,-42,63,-95,-156,-89,-89,-24,4
6,67,64,-38,-42,63,-95,-156,-89,-89,-24,4
6,67,64,-38,-42,63,-95,-162,-89,-89,-24,4
6,67,64,-38,-42,63,-95,-162,-89,-89,-24,4
6,73,64,-38,-42,63,-95,-162,-89,-89,-24,4
6,73,64,-38,-42,63,-95,-162,-89,-89,-24,4
6,73,64,-38,-42,63,-95,-162,-89,-89,-24,4
6,73,64,-38,-42,63,-95,-162,-89,-89,-24,4
6,73,64,-38,-36,63,-95,-162,-89,-89,-24,4
6,73,70,-38,-36,63,-95,-162,-89,-89,-24,4
0,73,76,-38,-42,63,-95,-162,-89,-89,-24,4
0,73,76,-38,-42,69,-95,-162,-89,-89,-24,9
0,85,82,-38,-42,75,-95,-162,-89,-89,-18,15
6,97,82,-44,-42,81,-95,-162,-89,-83,-12,21
12,109,88,-56,-42,93,-95,-162,-83,-77,-12,21
12,115,94,-62,-42,105,-95,-162,-77,-71,-6,27
12,121,106,-68,-54,117,-89,-162,-71,-65,0,33
12,133,118,-68,-60,129,-89,-156,-65,-59,5,39
12,139,124,-74,-60,135,-89,-150,-59,-53,11,45
12,145,130,-80,-60,147,-83,-144,-53,-53,17,51
18,157,136,-86,-60,153,-83,-144,-53,-47,23,51
18,169,142,-92,-60,159,-83,-144,-47,-41,29,51
18,175,154,-92,-66,165,-83,-144,-47,-41,29,51
18,181,160,-98,-66,171,-83,-144,-47,-41,35,57
18,187,166,-104,-66,177,-83,-144,-47,-41,35,57
18,193,172,-104,-72,183,-83,-144,-47,-41,35,63
18,205,178,-110,-78,195,-89,-144,-47,-35,41,63
24,217,178,-122,-78,201,-95,-156,-47,-35,41,69
30,241,190,-134,-78,207,-101,-156,-47,-35,47,75
36,253,202,-140,-84,225,-107,-162,-47,-29,53,81
36,259,214,-146,-90,237,-113,-162,-47,-23,59,87
36,265,226,-152,-96,249,-119,-162,-47,-17,65,93
36,271,238,-152,-102,255,-125,-168,-47,-17,71,99
36,271,244,-152,-108,261,-131,-174,-47,-17,77,105
36,277,250,-152,-108,267,-137,-180,-47,-17,83,111
36,289,256,-158,-108,273,-143,-180,-41,-11,89,123
36,295,256,-164,-108,279,-149,-180,-35,1,95,129
36,295,256,-164,-108,279,-155,-180,-35,1,101,135
36,295,256,-164,-108,279,-161,-186,-35,1,101,141
36,295,256,-164,-108,279,-167,-186,-35,1,101,141
42,295,250,-164,-108,279,-167,-186,-35,1,101,141
48,295,244,-164,-108,273,-167,-192,-35,1,101,147
54,289,226,-164,-96,261,-173,-192,-35,1,101,147
60,277,196,-164,-78,237,-179,-198,-35,1,101,147
66,265,178,-164,-66,225,-179,-198,-41,-5,101,147
66,253,166,-164,-60,213,-179,-198,-47,-11,101,147
60,223,160,-152,-60,195,-179,-198,-53,-23,95,147
54,211,160,-140,-60,183,-179,-204,-59,-29,89,141
48,205,160,-134,-60,177,-179,-204,-65,-35,83,135
42,193,154,-122,-60,171,-179,-204,-71,-41,71,123
36,163,148,-110,-60,159,-179,-210,-77,-53,59,99
30,133,136,-86,-60,147,-173,-210,-83,-59,47,87
24,121,130,-74,-60,135,-161,-210,-89,-65,41,75
18,115,124,-68,-60,123,-155,-204,-89,-71,35,69
18,103,100,-62,-60,111,-149,-204,-95,-83,23,57
12,91,88,-56,-60,93,-149,-204,-107,-89,11,45
6,85,82,-50,-60,81,-149,-204,-113,-101,0,39
6,79,76,-50,-60,75,-149,-204,-113,-101,-6,33
6,73,70,-44,-54,63,-149,-204,-113,-101,-12,21
6,61,64,-38,-54,57,-149,-204,-113,-101,-18,15
0,55,64,-32,-54,57,-143,-204,-113,-101,-24,9
0,43,64,-26,-54,51,-137,-204,-113,-101,-24,9
0,37,58,-26,-48,45,-137,-204,-119,-107,-24,4
0,37,52,-26,-42,45,-137,-198,-119,-107,-24,4
0,37,46,-26,-42,45,-137,-192,-119,-107,-24,4
-6,31,46,-20,-42,45,-131,-186,-113,-107,-24,4
-11,31,46,-20,-42,45,-119,-174,-101,-95,-18,4
-6,37,46,-26,-42,45,-101,-156,-71,-65,-12,4
0,37,46,-26,-42,45,-89,-126,-29,-41,-6,4
0,37,46,-26,-42,45,-83,-84,12,1,5,9
12,37,40,-26,-36,39,-71,-42,54,30,29,15
24,37,10,-26,-12,21,-59,-1,84,60,47,21
36,25,-19,-26,11,-2,-47,41,120,90,65,33
42,13,-49,-26,23,-14,-35,83,156,120,89,45
48,1,-73,-26,35,-26,-23,119,198,144,113,57
54,-10,-97,-26,59,-38,-17,149,234,174,143,69
66,-16,-109,-26,71,-50,-5,185,276,216,161,81
78,-16,-121,-32,83,-56,0,215,312,246,185,93
90,-16,-127,-38,95,-62,6,245,354,294,203,111
102,-10,-127,-50,101,-62,12,287,414,354,233,135
114,-4,-127,-56,107,-62,36,341,474,414,275,153
120,1,-127,-62,107,-62,90,437,558,468,305,171
126,7,-127,-68,107,-62,180,593,648,528,323,183
126,1,-139,-68,119,-74,270,773,738,570,335,183
132,-40,-205,-62,155,-122,312,935,858,630,353,183
156,-76,-283,-62,215,-176,342,1061,1050,810,431,195
210,-88,-343,-68,269,-206,342,1133,1314,1080,593,249
300,-88,-415,-80,347,-230,288,1139,1566,1386,791,363
396,-76,-457,-140,407,-242,168,1079,1788,1722,1025,489
498,-10,-469,-236,461,-242,30,881,2004,2069,1277,645
588,85,-475,-326,503,-224,-119,713,2231,2434,1553,825
648,163,-475,-398,527,-182,-293,491,2387,2734,1817,1005
678,265,-451,-470,533,-98,-491,179,2405,2914,2033,1173
708,361,-385,-542,533,-8,-641,-186,2321,2932,2152,1305
714,367,-385,-554,533,-2,-743,-522,1944,2764,2152,1323
714,289,-433,-530,545,-62,-779,-810,1290,2177,1919,1269
678,109,-541,-410,557,-206,-809,-1152,330,1224,1439,1041
564,-64,-583,-254,557,-314,-809,-1482,-701,114,839,765
438,-238,-625,-92,545,-422,-785,-1602,-1355,-683,287,453
324,-334,-637,21,515,-476,-665,-1554,-1433,-989,-66,219
258,-352,-625,57,431,-476,-575,-1308,-1319,-989,-150,123
210,-352,-559,75,365,-470,-509,-1044,-1067,-863,-156,75
144,-352,-517,93,311,-458,-431,-768,-827,-755,-168,9
84,-352,-445,111,251,-422,-329,-528,-629,-647,-204,-80
48,-346,-385,117,209,-380,-263,-366,-479,-563,-222,-152
36,-334,-355,117,191,-344,-233,-294,-413,-503,-246,-194
30,-316,-331,117,179,-314,-209,-264,-371,-461,-252,-224
24,-280,-295,117,149,-278,-179,-246,-347,-425,-252,-230
18,-238,-247,117,131,-236,-167,-228,-311,-383,-252,-230
18,-202,-205,111,107,-206,-155,-198,-269,-341,-240,-218
12,-178,-169,105,83,-182,-143,-186,-245,-311,-228,-212
6,-160,-145,99,71,-158,-137,-180,-233,-281,-216,-200
0,-142,-121,93,53,-140,-131,-180,-227,-269,-204,-188
-6,-124,-97,81,41,-116,-125,-174,-221,-263,-192,-176
-11,-106,-79,69,29,-98,-119,-168,-215,-251,-180,-170
-17,-88,-61,63,17,-68,-113,-162,-209,-245,-174,-164
-17,-82,-49,57,5,-56,-107,-156,-197,-233,-168,-158
-23,-76,-31,51,-1,-44,-107,-156,-191,-227,-162,-152
-29,-70,-13,51,-12,-38,-101,-156,-185,-221,-156,-152
-35,-70,-7,51,-24,-32,-101,-156,-179,-215,-156,-152
-41,-70,-7,51,-30,-32,-101,-150,-179,-209,-156,-152
-41,-70,-7,51,-30,-32,-101,-150,-179,-209,-156,-152
-41,-64,-7,51,-30,-32,-101,-150,-179,-203,-150,-152
-41,-64,-7,51,-30,-32,-101,-150,-179,-203,-150,-152
-47,-58,-1,51,-36,-32,-101,-150,-179,-203,-150,-152
-47,-52,4,51,-42,-26,-95,-144,-179,-197,-150,-152
-47,-46,10,45,-42,-20,-95,-144,-173,-197,-150,-152
-47,-40,10,39,-42,-14,-95,-144,-173,-191,-150,-152
-47,-40,16,39,-42,-8,-95,-144,-167,-191,-150,-152
-47,-34,22,39,-42,-2,-95,-138,-161,-191,-150,-152
-47,-28,22,39,-42,3,-95,-132,-155,-185,-150,-152
-47,-22,28,39,-42,3,-95,-132,-155,-179,-150,-152
-47,-16,34,39,-42,3,-89,-132,-149,-173,-144,-146
-47,-10,34,33,-42,9,-83,-132,-143,-173,-138,-146
-47,-10,34,33,-42,9,-83,-132,-143,-173,-138,-146
-47,-10,34,33,-42,9,-83,-132,-143,-173,-138,-146
-47,-10,34,33,-48,9,-83,-132,-143,-173,-138,-146
-47,-10,40,33,-54,15,-83,-126,-143,-173,-138,-146
-47,-4,40,33,-54,21,-77,-120,-137,-167,-138,-146
-47,-4,40,33,-54,21,-77,-120,-137,-161,-138,-146
-47,-4,40,33,-54,21,-77,-120,-137,-161,-138,-146
-47,-4,40,33,-54,21,-77,-120,-131,-161,-138,-146
-47,-4,46,33,-60,21,-77,-120,-131,-161,-138,-146
-47,-4,46,33,-60,21,-77,-120,-131,-161,-138,-146
-47,-4,52,33,-60,21,-77,-120,-131,-161,-138,-146
-53,-4,58,33,-66,21,-77,-120,-131,-161,-138,-146
-59,-4,64,33,-72,27,-77,-120,-125,-161,-138,-146
-59,1,70,33,-72,33,-71,-114,-119,-155,-138,-146
-59,7,70,33,-72,33,-71,-108,-119,-149,-138,-146
-59,7,70,33,-72,33,-71,-102,-119,-149,-138,-146
-59,7,70,27,-72,33,-71,-96,-119,-149,-138,-146
-59,7,70,21,-72,33,-71,-96,-119,-149,-138,-146
-53,13,70,15,-72,33,-71,-96,-119,-149,-138,-146
-53,13,70,15,-72,33,-71,-90,-119,-149,-138,-146
-53,13,70,15,-72,33,-71,-90,-119,-149,-138,-146
-53,13,70,9,-72,33,-71,-90,-119,-149,-138,-146
-53,13,70,9,-72,33,-71,-90,-119,-149,-138,-146
-53,13,70,9,-72,39,-71,-90,-119,-149,-138,-146
-53,19,70,9,-72,45,-71,-84,-119,-149,-138,-146
-53,19,76,9,-72,51,-71,-84,-119,-149,-138,-146
-53,19,82,9,-72,51,-71,-84,-119,-149,-138,-146
-53,19,88,9,-72,57,-71,-78,-119,-149,-138,-146
-53,19,88,9,-72,57,-71,-78,-119,-149,-138,-146
-53,25,88,9,-72,57,-65,-78,-119,-149,-138,-146
-53,31,88,9,-72,63,-65,-78,-119,-149,-138,-146
-53,37,88,9,-72,63,-65,-78,-119,-149,-138,-146
-53,37,94,9,-78,63,-65,-72,-119,-149,-138,-146
-53,37,100,9,-84,69,-65,-72,-119,-149,-138,-146
-53,43,106,9,-84,75,-65,-66,-119,-149,-138,-146
-53,49,112,3,-84,81,-59,-66,-119,-149,-138,-146
-53,55,118,-3,-84,87,-59,-66,-119,-149,-138,-146
-53,55,118,-3,-90,87,-59,-60,-119,-149,-138,-146
-59,55,118,-3,-96,87,-59,-54,-119,-149,-138,-146
-65,55,118,-3,-96,87,-59,-54,-119,-149,-138,-146
-65,61,118,-3,-96,87,-53,-48,-119,-149,-138,-146
-65,61,124,-3,-102,93,-47,-42,-119,-149,-138,-146
-71,61,136,3,-114,99,-47,-36,-119,-149,-138,-146
-71,61,136,3,-114,99,-47,-30,-119,-149,-138,-146
-71,67,136,3,-114,99,-47,-30,-119,-149,-138,-146
-71,67,142,3,-114,105,-41,-30,-119,-149,-138,-146
-77,67,154,3,-126,111,-41,-24,-119,-149,-138,-146
-77,73,160,3,-126,117,-41,-18,-119,-149,-138,-146
-77,79,160,-3,-126,123,-41,-12,-119,-149,-138,-146
-77,85,160,-3,-126,129,-35,-6,-119,-149,-138,-146
-77,91,166,-3,-126,135,-35,-6,-119,-155,-138,-146
-77,91,172,-3,-126,135,-35,-1,-119,-155,-144,-146
-77,97,184,-3,-132,141,-29,5,-119,-161,-144,-146
-77,109,190,-8,-138,147,-23,11,-119,-161,-150,-146
-77,121,196,-14,-138,159,-17,17,-119,-167,-150,-146
-77,127,202,-14,-144,159,-17,23,-119,-173,-156,-146
-83,127,208,-14,-150,159,-17,29,-119,-179,-162,-146
-83,127,214,-14,-156,165,-11,35,-125,-185,-168,-146
-89,133,226,-14,-168,177,0,47,-125,-185,-168,-146
-95,139,238,-14,-174,183,6,53,-125,-185,-168,-146
-95,145,244,-14,-174,189,12,59,-125,-191,-168,-146
-95,145,250,-14,-174,195,18,65,-131,-197,-174,-146
-95,151,250,-14,-174,201,24,71,-131,-209,-180,-146
-95,157,250,-26,-174,207,24,71,-137,-215,-186,-146
-95,169,262,-32,-180,213,30,77,-137,-221,-192,-146
-95,175,274,-32,-192,219,36,83,-137,-227,-198,-146
-101,175,280,-32,-198,225,42,89,-143,-233,-204,-146
-101,175,286,-32,-204,225,48,101,-149,-239,-210,-146
-101,181,292,-32,-204,231,60,107,-155,-251,-216,-146
-101,181,292,-32,-210,237,66,113,-161,-257,-222,-146
-101,181,292,-32,-210,237,72,119,-161,-269,-228,-146
-107,181,298,-32,-216,237,78,125,-167,-281,-234,-152
-119,181,310,-32,-222,243,84,131,-173,-287,-246,-158
-125,181,316,-32,-228,243,90,131,-179,-299,-252,-158
-125,181,316,-32,-228,243,96,137,-179,-305,-258,-164
-125,181,316,-32,-228,243,96,143,-179,-311,-264,-164
-125,181,316,-32,-228,243,102,155,-179,-317,-270,-164
-125,181,316,-32,-228,243,114,167,-179,-317,-276,-164
-125,181,316,-32,-228,243,120,173,-179,-317,-282,-170
-125,181,316,-32,-228,243,126,185,-179,-317,-282,-176
-125,181,316,-32,-228,243,132,197,-179,-317,-288,-176
-125,181,316,-32,-228,243,132,203,-179,-323,-288,-176
-125,181,316,-32,-228,243,138,209,-179,-323,-288,-176
-125,181,316,-32,-228,243,138,215,-179,-323,-288,-176
-125,181,316,-32,-228,243,144,227,-179,-323,-288,-176
-125,181,316,-32,-228,243,150,239,-173,-323,-294,-176
-125,181,310,-32,-228,243,150,251,-161,-323,-294,-176
-125,181,298,-32,-222,237,156,263,-149,-317,-294,-176
-125,175,292,-32,-216,231,162,275,-137,-311,-294,-176
-125,169,280,-32,-216,225,162,281,-125,-305,-294,-176
-125,163,274,-32,-216,219,162,293,-113,-299,-294,-176
-125,163,268,-32,-210,213,162,299,-101,-293,-294,-176
-125,157,262,-32,-204,207,162,305,-89,-281,-294,-176
-125,157,256,-32,-198,201,162,305,-77,-269,-288,-176
-125,151,250,-32,-192,195,162,311,-65,-257,-282,-176
-125,145,244,-32,-186,189,162,311,-47,-239,-270,-176
-113,139,232,-32,-174,183,162,311,-29,-221,-258,-176
-101,139,220,-32,-162,177,162,311,-17,-203,-240,-170
-89,139,214,-32,-156,177,156,311,-5,-185,-228,-164
-83,133,208,-32,-156,171,144,305,1,-167,-216,-164
-83,127,202,-32,-156,165,132,293,6,-149,-204,-158
-83,127,196,-32,-156,159,126,281,12,-125,-192,-146
-77,127,190,-32,-150,159,114,251,12,-107,-174,-140
-71,127,184,-32,-144,159,102,233,18,-89,-156,-134
-65,127,184,-32,-138,159,90,221,18,-77,-132,-122
-59,127,178,-32,-132,159,78,197,24,-59,-114,-110
-59,127,178,-38,-126,159,66,185,30,-41,-96,-98
-59,127,178,-38,-120,159,54,173,30,-23,-78,-86
-59,127,178,-38,-120,159,42,155,30,-11,-66,-80
-53,127,172,-38,-114,159,30,125,30,1,-54,-74
-41,127,160,-44,-108,153,12,101,30,12,-48,-68
-35,127,154,-50,-102,147,0,83,30,18,-42,-68
-29,127,148,-50,-96,147,-11,71,30,24,-30,-62
-23,127,148,-50,-96,147,-17,59,30,30,-24,-56
-23,121,148,-50,-96,141,-23,47,30,36,-12,-56
-23,121,142,-50,-96,135,-35,35,30,36,-6,-56
-23,121,136,-50,-90,129,-47,23,30,36,0,-56
-23,121,136,-50,-90,129,-53,11,30,42,0,-56
-23,121,130,-50,-90,123,-59,-1,30,42,5,-56
-23,121,124,-50,-84,117,-65,-12,24,42,5,-56
-17,121,118,-50,-78,117,-71,-24,18,42,5,-56
-17,121,118,-50,-78,117,-71,-30,18,42,11,-50
-17,121,118,-50,-78,117,-71,-36,18,42,11,-44
-17,115,112,-50,-78,111,-77,-48,12,42,11,-44
-17,103,112,-50,-78,111,-83,-54,6,42,11,-44
-17,103,112,-50,-78,105,-83,-60,1,42,11,-44
-11,103,106,-50,-66,105,-89,-66,1,42,11,-44
-11,103,100,-50,-60,105,-89,-66,1,42,11,-44
-11,103,100,-50,-60,105,-89,-66,1,42,11,-44
-11,103,100,-50,-60,105,-95,-66,-5,42,11,-44
-11,103,100,-50,-60,105,-95,-66,-5,42,11,-44
-11,103,100,-50,-60,105,-95,-66,-5,42,11,-44
-11,97,100,-50,-60,99,-95,-66,-5,42,11,-44
-11,91,94,-50,-60,99,-95,-72,-5,42,11,-44
-11,85,88,-50,-60,93,-95,-72,-5,42,11,-44
-11,85,88,-50,-60,87,-95,-72,-5,42,11,-44
-11,85,88,-50,-60,87,-95,-72,-5,42,11,-44
-11,85,82,-50,-60,87,-95,-78,-5,42,11,-44
-6,79,82,-50,-60,81,-95,-78,-5,42,11,-44
-6,73,82,-50,-60,75,-95,-78,-5,42,11,-44
-6,67,82,-44,-60,75,-95,-78,-5,42,11,-44
-6,61,76,-44,-60,69,-95,-78,-5,42,11,-44
-6,61,76,-44,-54,69,-95,-78,-5,42,11,-44
-6,61,76,-44,-48,69,-95,-78,-5,42,11,-44
-6,61,70,-44,-48,69,-95,-78,-5,36,11,-44
-6,61,70,-44,-48,69,-95,-78,-5,36,11,-44
-6,61,70,-44,-48,69,-95,-78,-5,36,11,-44
-6,61,70,-38,-48,69,-95,-78,-5,36,11,-44
-6,55,70,-32,-48,63,-95,-78,-5,36,11,-44
-6,55,70,-32,-48,63,-95,-78,-5,36,11,-44
-6,55,70,-32,-48,63,-95,-78,-5,36,11,-44
-6,55,70,-32,-48,63,-95,-78,-5,36,11,-44
-11,55,70,-32,-48,63,-95,-78,-5,36,11,-44
-11,55,70,-32,-48,63,-95,-78,-5,36,11,-44
-11,55,70,-32,-48,63,-101,-84,-11,36,11,-44
-11,55,70,-32,-48,63,-101,-84,-11,30,11,-44
-17,55,70,-32,-48,63,-101,-84,-11,30,11,-44
-17,55,70,-32,-48,63,-101,-84,-11,30,11,-44
-17,55,70,-32,-48,63,-101,-84,-11,30,11,-44
-17,55,70,-32,-48,63,-101,-84,-17,30,11,-44
-17,55,70,-32,-48,63,-101,-84,-17,30,11,-44
-17,55,70,-32,-48,63,-101,-84,-17,30,11,-44
-17,55,70,-32,-48,63,-101,-84,-17,30,11,-44
-23,55,70,-32,-48,63,-101,-84,-23,30,11,-44
-23,55,70,-32,-48,63,-101,-84,-23,30,11,-44
-23,55,70,-32,-48,63,-101,-84,-23,30,11,-44
-23,55,70,-32,-48,63,-107,-84,-23,30,11,-44
-23,55,70,-32,-48,63,-107,-84,-23,30,11,-44
-23,55,70,-32,-48,63,-107,-90,-23,30,11,-44
-23,55,70,-32,-48,63,-107,-90,-23,24,11,-44
-23,55,70,-32,-48,63,-113,-90,-23,24,11,-44
-23,55,70,-32,-48,63,-113,-90,-23,24,11,-44
-23,55,70,-32,-48,63,-113,-90,-23,24,11,-44
-23,55,70,-32,-48,69,-113,-90,-23,24,11,-44
-23,55,70,-32,-48,75,-113,-90,-23,24,11,-44
-23,55,70,-32,-48,75,-113,-90,-29,18,11,-44
-23,55,70,-32,-48,75,-113,-96,-29,18,11,-44
-23,61,70,-32,-48,75,-113,-96,-29,18,11,-44
-17,61,70,-32,-48,75,-113,-96,-29,18,11,-44
-17,61,76,-32,-48,75,-113,-96,-29,18,11,-44
-17,61,76,-32,-48,75,-113,-96,-29,18,11,-44
-17,61,76,-32,-48,75,-113,-96,-29,18,11,-44
-17,61,76,-32,-48,75,-113,-96,-29,12,11,-44
-17,61,76,-32,-48,75,-113,-96,-29,12,11,-44
-17,61,76,-32,-48,75,-113,-96,-29,12,11,-44
-17,61,76,-32,-48,75,-113,-96,-29,12,11,-44
-17,61,76,-32,-48,75,-113,-96,-29,12,11,-44
-17,61,76,-32,-48,75,-113,-96,-29,12,11,-44
-17,61,76,-32,-48,75,-113,-96,-29,12,11,-44
-17,61,76,-32,-48,75,-113,-96,-29,12,11,-44
-17,61,76,-32,-48,75,-113,-96,-29,12,11,-44
-17,61,76,-32,-48,75,-113,-96,-29,12,11,-44
-17,61,76,-32,-48,75,-113,-96,-29,12,11,-44
-17,61,76,-32,-48,75,-113,-96,-29,12,11,-44
-23,61,76,-32,-54,75,-113,-96,-29,12,11,-44
-23,61,82,-32,-54,75,-113,-96,-29,12,11,-44
-23,61,82,-32,-54,75,-113,-96,-29,12,11,-44
-23,61,82,-32,-54,75,-113,-96,-29,12,11,-44
-17,61,76,-32,-48,75,-113,-96,-29,12,11,-44
-17,61,76,-32,-48,75,-113,-96,-29,12,11,-44
-17,61,76,-32,-48,75,-113,-96,-29,12,11,-44
-17,61,76,-32,-48,75,-119,-96,-29,12,11,-44
-17,61,76,-32,-48,75,-119,-96,-29,12,11,-44
-17,61,76,-32,-48,75,-119,-96,-29,12,11,-44
-17,61,76,-32,-48,75,-119,-96,-29,12,11,-44
-17,61,76,-32,-48,75,-119,-96,-29,12,11,-44
-17,61,76,-32,-48,75,-125,-102,-29,12,11,-44
-17,61,76,-32,-48,75,-125,-102,-29,12,11,-44
-17,61,76,-32,-48,75,-125,-102,-29,12,11,-44
-17,61,76,-32,-48,75,-125,-102,-29,12,11,-44
-17,61,76,-32,-48,75,-125,-102,-29,6,11,-44
-17,61,76,-32,-48,75,-125,-102,-29,1,11,-44
-17,67,76,-32,-48,75,-125,-102,-29,1,11,-44
-11,67,76,-32,-48,75,-131,-102,-29,1,11,-44
-11,67,76,-32,-48,75,-131,-102,-29,1,11,-44
-17,67,76,-32,-48,75,-131,-102,-29,1,11,-44
-23,67,76,-32,-54,75,-131,-102,-29,1,11,-44
-23,67,76,-32,-54,75,-131,-108,-29,1,11,-44
-23,67,76,-32,-54,75,-131,-114,-35,1,11,-44
-23,67,76,-32,-54,75,-131,-114,-35,-5,11,-44
-23,67,76,-38,-54,75,-131,-114,-35,-5,11,-44
-23,67,76,-38,-54,75,-131,-114,-35,-5,11,-44
-23,67,76,-38,-54,75,-131,-114,-35,-5,11,-44
-23,67,76,-38,-54,75,-131,-114,-35,-5,11,-44
-23,67,76,-38,-54,75,-131,-114,-41,-5,11,-44
-23,67,76,-38,-54,75,-131,-114,-41,-5,11,-44
-23,37,46,-26,-42,51,-131,-114,-41,-5,17,-38
-23,-28,-7,3,-30,-8,-125,-102,-35,6,23,-32
-23,-52,-37,9,-12,-38,-113,-96,-29,12,29,-26
-23,-58,-49,15,-1,-44,-107,-90,-29,18,35,-20
-23,-64,-55,21,5,-50,-107,-90,-29,18,41,-14
-23,-76,-61,27,11,-62,-107,-90,-29,24,41,-14
-23,-88,-67,33,11,-68,-107,-90,-23,24,41,-14
-29,-94,-67,39,11,-74,-107,-90,-23,24,41,-14
-29,-100,-73,39,17,-80,-107,-90,-23,24,41,-14
-29,-100,-79,39,17,-86,-107,-90,-23,24,41,-14
-29,-100,-79,39,17,-86,-107,-90,-23,24,41,-14
-29,-100,-79,39,17,-86,-107,-84,-23,24,41,-14
-29,-100,-79,39,17,-86,-107,-84,-23,24,41,-8
-29,-100,-85,39,17,-86,-107,-78,-23,24,41,-2
-29,-100,-91,39,23,-86,-107,-78,-23,24,41,-2
-29,-100,-97,39,29,-92,-107,-78,-23,24,41,-2
-29,-100,-97,45,29,-92,-107,-78,-23,24,41,-2
-29,-100,-97,45,29,-92,-107,-78,-23,24,47,-2
-29,-100,-97,45,29,-92,-101,-78,-23,24,47,-2
-29,-100,-97,45,29,-92,-101,-78,-23,24,47,-2
-29,-100,-97,45,29,-92,-101,-78,-23,24,47,-2
-29,-106,-97,45,29,-92,-101,-78,-23,24,47,-2
-29,-106,-97,45,29,-92,-101,-78,-23,24,47,-2
-29,-106,-97,45,29,-92,-101,-78,-23,24,47,-2
-29,-106,-97,45,29,-92,-95,-78,-23,24,47,-2
-29,-106,-97,45,29,-98,-95,-78,-23,24,47,-2
-29,-106,-97,45,29,-98,-95,-78,-23,24,47,-2
-29,-106,-97,45,29,-98,-95,-78,-23,24,47,-2
-29,-106,-97,45,29,-98,-95,-78,-23,24,47,-2
-29,-106,-97,45,29,-98,-95,-78,-23,24,47,-2
-29,-106,-97,45,29,-98,-95,-78,-23,24,47,-2
-29,-106,-97,45,29,-98,-95,-72,-23,30,47,4
-29,-106,-97,45,29,-98,-95,-72,-17,36,47,4
-29,-106,-91,45,29,-92,-89,-72,-11,42,53,4
-29,-100,-91,39,29,-86,-83,-66,-5,48,59,9
-29,-94,-85,33,29,-86,-77,-60,1,54,65,15
-29,-88,-79,33,23,-80,-71,-54,1,60,71,21
-29,-76,-67,27,23,-68,-65,-48,6,66,77,27
-29,-64,-55,21,17,-56,-59,-42,12,72,83,33
-29,-58,-43,21,11,-44,-53,-42,18,78,95,39
-29,-52,-31,15,11,-32,-47,-36,18,84,101,45
-29,-46,-31,15,11,-32,-47,-36,18,90,107,45
-29,-40,-31,15,11,-32,-47,-36,18,90,107,51
-29,-28,-31,9,11,-26,-47,-36,24,90,113,57
-29,-22,-25,3,5,-20,-47,-36,24,90,119,63
-29,-16,-19,3,-7,-14,-47,-36,30,90,119,69
-29,-10,-13,3,-7,-8,-47,-36,30,96,125,75
-23,1,-13,-8,-7,-2,-47,-36,30,96,125,75
-17,7,-13,-14,-7,3,-53,-36,30,102,125,75
-11,13,-7,-20,-7,9,-59,-42,30,102,125,75
-11,25,4,-26,-7,21,-65,-48,30,108,131,81
-11,37,16,-32,-7,33,-71,-48,30,114,137,87
-11,49,28,-32,-12,45,-77,-48,36,120,143,93
-11,55,40,-38,-12,57,-89,-54,36,120,149,99
-11,67,46,-44,-12,63,-101,-60,36,120,155,105
-11,73,46,-44,-12,63,-107,-66,36,126,155,111
-11,73,46,-44,-18,63,-113,-66,36,126,161,117
-11,79,52,-50,-24,69,-113,-66,42,132,167,123
-6,79,58,-56,-24,75,-119,-66,42,132,173,129
0,79,58,-56,-24,75,-119,-66,42,132,179,135
0,79,58,-56,-24,75,-125,-66,42,132,179,141
0,79,58,-56,-24,75,-125,-66,42,132,179,147
0,79,52,-56,-24,69,-131,-66,42,132,179,147
12,73,40,-56,-12,63,-137,-72,42,132,179,147
24,73,10,-56,-1,51,-137,-78,42,132,179,147
30,67,-1,-62,11,45,-143,-84,42,132,179,147
36,61,-7,-62,17,33,-143,-84,42,132,179,147
36,37,-19,-62,23,21,-143,-90,36,120,179,147
36,13,-31,-56,23,-2,-143,-96,24,108,173,141
30,1,-37,-44,23,-14,-143,-96,18,102,167,135
18,-10,-37,-32,23,-20,-143,-96,12,96,161,129
12,-28,-43,-14,23,-32,-143,-96,6,90,149,123
0,-52,-55,9,23,-44,-137,-96,1,78,137,99
-11,-64,-61,21,23,-62,-131,-96,1,66,125,87
-17,-70,-67,27,23,-68,-125,-96,-5,60,119,75
-23,-82,-73,33,23,-74,-119,-96,-5,54,113,63
-29,-94,-79,45,23,-80,-113,-96,-11,48,107,57
-35,-106,-85,51,23,-86,-107,-96,-17,42,95,45
-35,-118,-91,57,23,-98,-107,-96,-23,36,89,39
-35,-124,-91,63,23,-104,-107,-96,-23,36,83,33
-35,-130,-91,63,23,-110,-101,-96,-23,36,83,33
-41,-142,-97,75,23,-116,-95,-96,-23,36,77,27
-53,-154,-97,87,23,-122,-95,-96,-23,36,71,21
-59,-154,-97,87,23,-122,-95,-96,-29,30,65,15
-59,-154,-109,87,29,-128,-95,-96,-29,24,65,15
-59,-154,-121,87,35,-134,-89,-96,-29,18,65,15
-59,-154,-121,87,35,-134,-83,-90,-29,18,65,15
-59,-154,-121,87,35,-134,-77,-72,-17,24,65,15
-59,-154,-121,87,35,-134,-71,-42,6,48,77,15
-59,-154,-115,87,35,-134,-59,-6,48,78,89,21
-59,-154,-115,87,35,-134,-47,29,90,120,101,27
-53,-154,-121,87,35,-134,-29,59,126,156,119,33
-41,-160,-139,87,53,-146,-11,101,162,186,131,39
-29,-166,-169,87,83,-164,0,137,204,216,143,45
-17,-178,-205,87,95,-194,12,179,240,234,161,51
-6,-190,-235,87,125,-212,24,221,270,258,173,57
12,-196,-259,81,143,-224,30,263,300,288,197,69
24,-202,-271,81,155,-236,36,293,348,318,227,93
36,-208,-283,75,167,-242,42,323,390,354,257,111
48,-208,-295,69,173,-248,48,353,426,390,281,129
60,-208,-301,63,179,-248,60,395,474,444,311,159
72,-208,-301,57,185,-248,72,437,534,516,353,183
78,-202,-301,51,185,-248,108,515,606,570,383,195
78,-202,-295,51,185,-242,180,635,696,630,401,207
78,-202,-295,51,185,-242,264,797,774,672,413,213
84,-208,-313,45,197,-254,348,971,864,702,425,213
96,-250,-391,45,245,-308,390,1109,978,774,443,213
126,-268,-469,45,293,-356,396,1199,1194,978,557,237
216,-274,-535,33,365,-386,378,1223,1446,1260,737,315
306,-274,-589,-8,443,-416,264,1211,1680,1566,935,435
378,-262,-619,-56,503,-422,138,1055,1908,1902,1169,567
450,-196,-625,-140,539,-416,0,845,2123,2243,1421,735
534,-118,-625,-224,575,-398,-155,647,2351,2584,1685,879
630,-10,-625,-326,617,-356,-317,419,2488,2866,1925,1047
696,109,-613,-428,635,-260,-497,95,2494,3004,2116,1227
714,181,-577,-470,635,-188,-623,-252,2351,3004,2200,1335
714,175,-577,-470,635,-188,-707,-576,1896,2716,2176,1335
702,37,-655,-404,647,-308,-749,-906,1134,2016,1835,1221
624,-142,-733,-272,653,-434,-779,-1266,84,984,1325,975
480,-316,-775,-98,647,-530,-779,-1548,-899,-71,725,699
360,-472,-805,45,623,-632,-731,-1590,-1385,-731,215,393
270,-550,-811,129,569,-674,-623,-1488,-1385,-893,-48,189
180,-556,-775,171,485,-674,-533,-1218,-1205,-863,-78,129
126,-562,-715,195,431,-662,-461,-930,-935,-719,-84,93
84,-562,-673,207,383,-644,-365,-636,-713,-605,-102,27
30,-562,-607,225,329,-602,-275,-408,-521,-521,-132,-62
-11,-550,-535,231,269,-548,-209,-264,-377,-431,-150,-116
-29,-526,-487,237,227,-506,-167,-186,-311,-371,-162,-146
-41,-496,-457,237,209,-470,-137,-150,-275,-335,-168,-152
-47,-454,-409,237,191,-434,-119,-132,-251,-299,-168,-152
-53,-424,-367,237,161,-392,-107,-114,-221,-269,-162,-152
-59,-400,-331,231,143,-368,-95,-90,-191,-227,-150,-152
-65,-370,-301,219,131,-344,-83,-78,-179,-197,-138,-140
-65,-346,-283,207,119,-320,-77,-78,-167,-179,-126,-134
-71,-328,-253,195,107,-290,-65,-72,-155,-167,-114,-122
-77,-316,-229,189,95,-272,-59,-66,-143,-161,-102,-116
-77,-304,-223,183,89,-260,-53,-66,-137,-155,-90,-110
-77,-292,-217,177,77,-248,-53,-66,-131,-149,-84,-104
-77,-280,-205,171,65,-236,-47,-66,-125,-143,-78,-98
-77,-268,-193,171,59,-224,-47,-54,-125,-137,-72,-92
-77,-256,-181,171,53,-212,-47,-48,-119,-131,-72,-92
-77,-250,-169,165,47,-206,-41,-42,-113,-119,-72,-92
-77,-244,-163,159,47,-200,-35,-42,-113,-113,-72,-92
-83,-244,-163,159,41,-200,-35,-42,-113,-113,-72,-92
-83,-238,-157,159,41,-194,-35,-42,-113,-107,-72,-92
-83,-232,-157,159,41,-188,-35,-42,-113,-107,-72,-92
-83,-232,-157,159,41,-182,-35,-36,-113,-107,-72,-92
-83,-232,-151,159,41,-182,-35,-36,-107,-107,-72,-92
-83,-226,-145,159,35,-176,-35,-36,-107,-101,-72,-92
-89,-226,-139,159,29,-176,-35,-36,-107,-101,-72,-92
-89,-226,-133,153,23,-176,-35,-36,-107,-101,-72,-92
-89,-220,-127,147,23,-170,-35,-30,-101,-95,-66,-86
-95,-220,-121,147,17,-170,-29,-30,-95,-95,-60,-80
-101,-220,-121,147,11,-170,-29,-30,-95,-95,-60,-80
-101,-214,-121,147,11,-170,-29,-30,-89,-95,-60,-80
-101,-208,-115,147,11,-164,-23,-24,-89,-89,-60,-80
-101,-202,-115,141,11,-158,-23,-24,-83,-89,-54,-80
-101,-196,-115,135,11,-152,-17,-24,-83,-89,-54,-80
-101,-196,-115,135,11,-152,-17,-24,-83,-89,-54,-80
-101,-190,-109,135,11,-152,-17,-18,-83,-83,-54,-80
-101,-184,-109,135,11,-152,-17,-18,-83,-83,-54,-80
-101,-184,-109,135,11,-152,-17,-18,-83,-83,-54,-80
-101,-184,-103,135,5,-152,-11,-18,-77,-83,-54,-80
-101,-184,-103,129,5,-152,-11,-12,-77,-83,-54,-80
-101,-184,-103,129,5,-152,-11,-12,-71,-77,-54,-80
-101,-184,-103,129,5,-152,-11,-12,-71,-77,-54,-80
-101,-184,-97,129,5,-152,-11,-6,-71,-77,-54,-80
-101,-178,-91,123,5,-146,-5,-1,-65,-77,-48,-74
-101,-172,-85,123,5,-134,0,5,-65,-71,-48,-74
-101,-172,-85,123,5,-134,0,11,-65,-71,-48,-74
-101,-172,-85,123,5,-134,0,11,-65,-71,-48,-74
-101,-172,-85,123,5,-134,0,11,-65,-71,-48,-74
-101,-172,-85,123,5,-128,0,11,-65,-71,-48,-74
-101,-166,-85,123,-1,-128,6,11,-65,-71,-48,-68
-101,-166,-79,123,-7,-122,6,17,-65,-71,-48,-68
-101,-166,-73,123,-7,-116,6,17,-65,-71,-48,-68
-101,-166,-73,117,-7,-116,6,17,-65,-71,-48,-68
-101,-166,-73,117,-7,-116,6,17,-65,-71,-48,-68
-101,-166,-73,117,-7,-116,6,17,-65,-71,-48,-68
-101,-160,-73,117,-7,-116,6,17,-65,-71,-48,-68
-101,-160,-73,117,-7,-116,6,17,-65,-71,-48,-68
-101,-160,-67,117,-7,-116,6,17,-65,-71,-48,-68
-101,-154,-61,117,-7,-110,6,23,-65,-71,-48,-68
-101,-148,-61,111,-7,-104,6,23,-65,-71,-48,-68
-101,-148,-61,111,-7,-104,6,23,-65,-71,-48,-68
-101,-148,-61,111,-12,-104,6,23,-65,-71,-48,-68
-101,-142,-55,105,-12,-98,12,29,-59,-71,-48,-62
-101,-142,-49,105,-12,-98,12,35,-59,-71,-48,-62
-101,-142,-43,105,-18,-98,12,35,-59,-71,-48,-62
-101,-142,-43,105,-24,-92,12,41,-59,-71,-48,-62
-107,-142,-43,105,-24,-86,18,47,-59,-71,-48,-62
-107,-142,-37,105,-30,-86,18,47,-59,-71,-48,-62
-107,-136,-37,105,-30,-80,18,47,-59,-71,-48,-62
-107,-130,-37,99,-30,-80,18,47,-59,-71,-48,-62
-107,-124,-31,93,-30,-74,24,53,-59,-71,-48,-62
-107,-124,-25,93,-36,-74,24,53,-59,-71,-48,-62
-107,-124,-19,93,-42,-74,30,59,-59,-71,-48,-62
-107,-118,-19,87,-42,-68,30,65,-59,-71,-48,-62
-107,-112,-19,87,-42,-68,30,65,-59,-71,-48,-62
-107,-112,-19,87,-42,-62,30,65,-59,-71,-48,-62
-107,-106,-19,87,-42,-56,36,71,-59,-71,-48,-62
-107,-100,-13,87,-42,-50,42,71,-59,-71,-48,-56
-107,-100,-7,87,-48,-50,42,77,-59,-77,-48,-56
-113,-100,4,87,-54,-50,48,83,-59,-83,-54,-56
-113,-94,10,87,-54,-44,48,89,-59,-83,-54,-56
-113,-88,16,87,-54,-44,54,95,-59,-89,-54,-56
-113,-88,28,87,-66,-38,60,101,-59,-95,-54,-56
-119,-82,40,87,-72,-32,66,107,-59,-95,-60,-56
-119,-76,40,87,-72,-26,66,113,-59,-101,-66,-56
-119,-70,46,87,-78,-20,72,113,-65,-101,-72,-56
-119,-64,52,87,-84,-14,78,119,-65,-107,-78,-56
-119,-58,58,87,-84,-8,84,125,-71,-113,-84,-56
-119,-52,64,81,-84,3,90,137,-71,-113,-84,-56
-119,-46,70,81,-90,9,96,143,-71,-119,-84,-56
-125,-46,76,81,-96,15,96,149,-77,-125,-90,-56
-131,-46,82,81,-102,21,102,155,-77,-137,-96,-56
-131,-40,94,75,-108,27,108,161,-77,-143,-102,-56
-131,-28,100,69,-108,33,114,167,-77,-149,-108,-56
-131,-22,106,69,-114,39,120,173,-77,-155,-114,-56
-137,-16,112,69,-126,45,120,179,-83,-161,-114,-56
-143,-16,118,69,-132,45,126,185,-89,-167,-120,-56
-143,-16,124,69,-132,51,132,197,-95,-173,-120,-56
-143,-10,130,69,-138,57,144,203,-95,-179,-120,-56
-149,-10,136,69,-138,63,150,215,-101,-185,-126,-56
-149,-10,136,69,-138,69,156,221,-107,-197,-138,-56
-149,-4,142,69,-138,75,162,227,-113,-209,-150,-56
-149,1,148,69,-138,75,168,233,-119,-221,-162,-62
-155,1,154,69,-144,75,174,239,-119,-227,-168,-62
-155,1,154,69,-150,75,180,239,-119,-233,-174,-62
-155,1,160,69,-150,81,186,245,-125,-239,-180,-62
-155,7,160,69,-150,81,192,251,-125,-245,-186,-62
-155,7,160,69,-150,81,192,257,-125,-251,-192,-62
-155,7,160,69,-150,81,198,263,-125,-257,-198,-68
-161,7,160,69,-150,81,204,269,-125,-257,-204,-74
-161,7,160,69,-156,81,210,281,-125,-263,-204,-74
-161,7,160,69,-156,81,216,293,-125,-263,-210,-74
-161,7,160,63,-156,81,222,305,-125,-263,-216,-74
-161,7,160,63,-156,81,228,311,-125,-263,-216,-74
-161,7,160,63,-156,81,234,317,-125,-263,-216,-74
-167,7,160,63,-156,81,234,329,-125,-263,-216,-74
-167,7,160,63,-156,81,240,341,-119,-263,-216,-74
-167,1,160,63,-156,81,246,353,-113,-263,-216,-74
-167,1,154,63,-156,75,246,365,-107,-263,-216,-74
-167,1,148,63,-150,75,252,377,-95,-257,-216,-80
-161,1,142,63,-150,75,258,395,-77,-251,-216,-80
-161,-4,136,63,-144,69,258,401,-65,-245,-216,-80
-161,-10,130,69,-138,57,258,413,-53,-239,-216,-80
-155,-16,124,69,-138,51,258,419,-41,-233,-216,-80
-155,-22,118,69,-132,45,258,425,-29,-221,-210,-80
-155,-28,112,69,-126,39,258,431,-5,-197,-204,-80
-149,-34,100,69,-120,33,258,437,6,-179,-198,-80
-143,-40,82,69,-108,27,258,437,18,-161,-186,-80
-137,-40,70,69,-96,21,258,437,30,-149,-180,-80
-131,-40,64,69,-96,21,258,437,42,-125,-168,-74
-131,-40,64,69,-96,21,258,437,54,-113,-156,-68
-125,-46,52,69,-90,9,234,425,60,-101,-144,-62
-113,-46,40,69,-78,-2,216,401,66,-89,-132,-56
-101,-46,34,63,-66,-2,204,389,72,-65,-102,-50
-95,-46,28,57,-66,-2,192,377,78,-41,-78,-38
-89,-46,28,57,-60,-2,180,347,84,-17,-66,-32
-83,-46,22,57,-60,-2,168,329,84,1,-48,-26
-77,-46,16,57,-48,-2,156,305,84,12,-36,-14
-71,-46,16,57,-42,-2,144,293,84,30,-24,-8
-71,-46,16,57,-42,-2,138,281,90,48,0,4
-65,-46,16,51,-36,-2,126,251,90,60,11,9
-59,-46,4,45,-30,-14,96,221,90,66,17,15
-59,-46,-1,45,-30,-20,84,203,90,72,23,21
-59,-46,-1,45,-30,-26,72,191,90,78,35,27
-59,-46,-1,45,-30,-26,60,173,90,84,47,27
-53,-46,-7,45,-24,-26,54,155,90,90,53,33
-53,-46,-13,45,-18,-26,48,143,90,96,59,39
-53,-46,-13,45,-18,-26,42,131,90,102,65,39
-53,-46,-19,45,-18,-26,36,119,90,102,71,39
-53,-46,-19,45,-18,-26,30,107,84,102,77,39
-53,-46,-19,45,-18,-26,24,101,84,102,77,39
-47,-46,-25,45,-12,-32,18,89,78,102,77,39
-41,-46,-31,39,-7,-38,12,77,72,102,77,39
-41,-46,-31,39,-7,-38,6,71,66,102,77,39
-41,-46,-31,39,-7,-38,0,59,60,102,77,39
-35,-52,-37,39,-1,-44,-5,53,54,102,77,39
-35,-52,-43,39,5,-44,-5,47,54,102,77,39
-35,-58,-43,39,5,-50,-11,41,54,102,77,39
-35,-64,-43,39,5,-50,-11,35,54,102,77,39
-35,-64,-43,39,5,-50,-11,35,54,102,77,39
-35,-64,-43,39,5,-50,-11,35,54,102,77,39
-35,-64,-43,39,5,-50,-11,35,54,102,77,39
-35,-64,-43,39,5,-50,-11,35,48,102,77,39
-35,-64,-43,39,5,-50,-11,35,48,96,77,39
-35,-64,-49,39,5,-50,-11,29,48,96,77,39
-35,-64,-49,39,5,-56,-11,29,48,96,77,39
-35,-64,-49,39,5,-56,-11,29,48,96,77,39
-35,-64,-49,39,5,-56,-11,29,48,90,77,39
-35,-64,-55,39,5,-56,-11,29,42,90,77,39
-35,-70,-55,39,5,-56,-17,29,42,90,77,39
-35,-76,-55,39,5,-56,-17,23,42,90,77,39
-35,-76,-55,39,5,-62,-17,23,42,90,77,39
-35,-76,-55,39,11,-62,-17,23,42,90,77,39
-35,-76,-55,39,11,-62,-17,17,42,90,77,39
-35,-76,-55,39,11,-68,-17,17,42,90,77,39
-35,-76,-55,39,11,-68,-17,17,42,90,77,39
-35,-76,-55,39,11,-68,-17,17,36,90,77,39
-35,-76,-55,39,11,-68,-17,17,36,90,77,39
-35,-76,-55,39,11,-68,-17,17,36,90,77,39
-35,-76,-55,39,11,-68,-17,17,36,90,77,39
-35,-76,-55,39,11,-68,-17,11,36,84,77,39
-35,-76,-55,45,11,-68,-17,11,36,84,77,39
-35,-76,-55,45,11,-68,-17,11,36,84,77,39
-29,-76,-55,45,17,-68,-17,11,36,78,77,39
-29,-76,-55,45,17,-68,-17,11,36,72,77,39
-35,-76,-55,51,11,-68,-17,11,36,72,77,39
-35,-76,-55,51,11,-68,-17,11,36,72,77,39
-35,-76,-55,51,11,-68,-17,11,36,72,77,39
-35,-76,-55,51,11,-68,-17,11,36,72,77,39
-35,-76,-55,51,11,-68,-17,5,30,72,77,39
-29,-76,-55,51,11,-68,-17,5,24,72,77,39
-29,-76,-55,45,11,-68,-17,-1,24,72,77,39
-29,-76,-55,45,11,-68,-17,-1,24,72,77,39
-29,-76,-55,45,11,-68,-17,-1,24,66,77,39
-29,-76,-55,45,11,-68,-17,-1,24,66,77,39
-29,-76,-55,45,11,-68,-17,-1,24,66,77,39
-29,-76,-55,45,11,-68,-17,-1,24,66,77,39
-29,-76,-55,45,11,-68,-17,-1,24,66,77,39
-29,-76,-55,45,11,-68,-17,-6,24,66,77,39
-29,-76,-55,45,11,-68,-23,-6,24,66,71,39
-29,-76,-55,45,11,-68,-23,-12,24,66,71,39
-29,-76,-55,45,11,-68,-23,-12,24,66,71,39
-29,-76,-55,45,11,-68,-23,-12,24,66,71,45
-29,-76,-55,45,11,-68,-23,-12,24,66,71,45
-29,-76,-55,45,11,-68,-23,-12,18,60,71,45
-29,-76,-55,45,11,-68,-23,-12,12,60,71,45
-29,-76,-55,45,11,-62,-23,-12,12,60,71,45
-29,-76,-55,45,11,-62,-23,-12,12,60,71,45
-29,-76,-49,45,11,-56,-23,-12,12,60,71,45
-29,-76,-43,45,11,-56,-23,-12,12,60,71,45
-29,-76,-43,45,11,-56,-23,-12,6,60,71,45
-29,-76,-43,45,11,-56,-23,-12,6,60,71,45
-29,-76,-43,45,11,-56,-23,-12,6,54,71,45
-29,-76,-43,45,11,-56,-23,-12,6,54,71,45
-29,-76,-43,45,11,-56,-23,-12,6,54,71,45
-29,-76,-43,45,11,-56,-23,-12,6,54,71,45
-29,-76,-43,45,11,-56,-23,-12,6,54,71,45
-29,-76,-43,45,11,-56,-23,-12,6,54,71,45
-29,-76,-43,45,11,-56,-23,-12,6,48,71,45
-29,-76,-43,45,11,-56,-23,-12,6,48,71,45
-35,-76,-43,45,11,-56,-23,-12,6,48,71,45
-41,-76,-37,45,11,-56,-23,-12,6,48,71,45
-41,-70,-37,45,11,-56,-23,-12,6,48,71,45
-35,-70,-37,45,11,-56,-23,-18,6,48,71,45
-35,-70,-37,45,11,-56,-29,-18,1,48,65,45
-35,-70,-37,45,11,-56,-29,-18,1,48,65,45
-35,-70,-37,45,11,-56,-29,-18,1,48,65,45
-29,-70,-43,45,11,-56,-29,-18,1,48,65,45
-29,-70,-43,45,11,-56,-29,-18,1,48,65,45
-29,-70,-43,45,11,-56,-29,-18,1,48,65,45
-29,-70,-43,45,11,-56,-29,-18,1,48,65,45
-29,-70,-43,45,11,-56,-29,-18,1,48,65,45
-29,-70,-43,45,11,-56,-29,-18,1,48,65,45
-29,-70,-43,45,11,-56,-29,-18,1,48,65,45
-29,-70,-43,45,11,-56,-29,-18,1,48,65,45
-29,-70,-43,45,11,-56,-29,-18,1,48,65,45
-29,-70,-43,45,11,-56,-35,-18,1,48,65,45
-29,-70,-43,45,11,-56,-35,-18,1,48,65,45
-29,-70,-43,45,11,-56,-35,-24,1,48,65,45
-29,-70,-43,45,11,-56,-35,-24,1,48,65,45
-29,-70,-43,45,11,-56,-35,-24,1,48,65,45
-29,-70,-43,45,11,-56,-35,-24,1,48,65,45
-29,-70,-43,45,11,-56,-35,-24,1,48,65,45
-29,-70,-43,45,11,-56,-35,-24,1,48,65,45
-29,-70,-43,45,11,-56,-35,-24,1,48,65,45
-29,-70,-43,45,11,-56,-35,-24,1,48,65,45
-29,-70,-43,45,11,-56,-35,-24,1,48,59,45
-29,-70,-43,45,11,-56,-35,-24,1,48,59,45
-29,-70,-43,45,11,-56,-35,-24,1,48,59,45
-29,-70,-43,45,11,-56,-35,-24,1,48,59,45
-29,-70,-43,45,11,-56,-35,-24,-5,48,59,45
-29,-70,-43,45,11,-56,-35,-24,-5,48,59,45
-29,-70,-43,45,11,-56,-35,-24,-5,48,59,45
-29,-70,-43,45,11,-56,-35,-30,-5,48,59,45
-29,-70,-43,45,11,-56,-35,-30,-11,48,59,45
-29,-70,-43,45,11,-56,-35,-30,-11,48,59,45
-29,-70,-43,45,11,-56,-35,-30,-11,42,53,45
-29,-70,-43,39,17,-56,-35,-30,-11,42,53,45
-29,-70,-43,39,17,-56,-35,-30,-11,42,53,45
-35,-70,-43,39,17,-56,-35,-30,-11,42,53,45
-35,-70,-43,39,17,-56,-35,-30,-11,42,53,45
-35,-70,-43,39,17,-56,-35,-30,-11,42,53,45
-35,-70,-43,39,17,-56,-35,-30,-11,42,53,45
-41,-70,-43,39,17,-56,-35,-30,-11,42,53,45
-41,-70,-43,39,11,-56,-35,-30,-11,42,53,45
-41,-70,-43,39,11,-56,-35,-30,-11,42,53,45
-41,-70,-43,39,11,-56,-35,-30,-11,42,53,45
-41,-70,-43,39,11,-56,-35,-36,-11,42,53,45
-41,-70,-43,39,11,-56,-35,-42,-17,42,53,45
-35,-64,-43,39,11,-56,-35,-42,-17,42,53,45
-35,-58,-43,39,11,-56,-35,-42,-17,42,53,45
-41,-58,-43,39,11,-56,-35,-42,-23,42,53,45
-41,-58,-43,39,11,-56,-35,-42,-23,36,53,45
-41,-58,-43,39,11,-56,-35,-42,-23,36,53,45
-41,-58,-43,39,11,-56,-35,-42,-29,36,53,45
-41,-58,-43,39,11,-56,-35,-42,-29,36,53,45
-41,-58,-43,39,11,-56,-35,-42,-29,36,53,45
-41,-58,-37,39,11,-56,-35,-42,-29,36,53,45
-41,-58,-37,39,11,-56,-35,-42,-29,36,53,45
-41,-58,-37,39,11,-56,-35,-42,-29,30,53,45
-41,-58,-37,39,11,-56,-35,-42,-29,30,53,45
-41,-58,-37,39,11,-56,-35,-42,-29,30,53,45
-41,-58,-37,39,11,-56,-35,-42,-29,30,53,45
-41,-58,-37,39,11,-56,-35,-48,-29,30,53,45
-41,-58,-37,39,11,-56,-35,-48,-29,30,53,45
-41,-58,-37,39,11,-56,-35,-48,-29,24,53,45
-41,-58,-37,39,11,-56,-35,-48,-29,24,53,45
-41,-58,-37,39,11,-56,-35,-48,-29,24,53,45
-41,-58,-37,39,11,-56,-35,-48,-29,24,53,45
-41,-58,-37,39,11,-56,-35,-48,-29,24,53,45
-41,-58,-37,39,11,-56,-35,-48,-29,24,53,45
-41,-58,-37,39,11,-56,-35,-48,-29,24,53,45
-41,-58,-37,39,11,-56,-35,-48,-29,24,53,45
-41,-58,-37,39,11,-56,-35,-48,-29,24,53,45
-41,-58,-37,39,11,-56,-35,-48,-29,24,53,45
-41,-58,-37,39,11,-56,-35,-48,-29,24,53,45
-41,-58,-37,39,11,-56,-35,-48,-29,24,53,45
-41,-58,-37,39,11,-50,-35,-48,-29,24,53,45
-41,-52,-37,33,11,-44,-35,-48,-29,24,53,45
-41,-46,-37,33,11,-38,-35,-48,-29,24,53,45
-41,-40,-31,33,11,-32,-35,-48,-29,24,53,45
-41,-34,-19,33,5,-20,-35,-48,-29,24,53,51
-41,-22,-7,27,5,-8,-29,-42,-23,30,53,57
-41,-10,-1,21,5,3,-23,-42,-17,36,59,63
-41,1,10,15,5,15,-17,-36,-11,42,65,69
-41,13,16,9,5,21,-17,-36,-5,48,71,75
-35,19,22,3,-1,27,-17,-36,-5,54,77,81
-35,25,34,-3,-1,33,-17,-36,1,60,83,87
-35,31,40,-8,-7,39,-17,-36,6,66,89,93
-29,37,46,-14,-7,45,-17,-36,6,66,95,99
-23,49,52,-26,-7,51,-17,-36,6,66,95,99
-23,55,58,-32,-12,57,-17,-36,6,66,95,99
-23,61,64,-32,-18,63,-17,-36,6,66,101,99
-23,67,64,-38,-18,69,-23,-36,6,66,101,99
-23,73,70,-38,-18,75,-29,-36,6,66,101,99
-23,85,82,-38,-30,87,-29,-42,6,72,107,111
-23,97,94,-44,-36,99,-35,-48,6,78,119,117
-17,115,100,-56,-36,111,-41,-48,6,84,125,123
-11,121,106,-62,-36,117,-47,-54,6,84,131,129
-11,127,118,-68,-42,123,-53,-60,6,90,131,135
-11,133,124,-68,-48,129,-59,-66,6,90,137,141
-11,139,130,-74,-48,135,-65,-66,6,96,143,147
-6,145,130,-80,-48,141,-71,-66,12,96,149,153
0,151,130,-86,-48,147,-77,-66,12,102,155,159
6,157,130,-92,-48,147,-83,-66,18,108,161,165
6,157,130,-92,-48,147,-83,-72,18,108,161,171
12,157,130,-92,-48,147,-89,-78,18,108,161,177
18,157,124,-98,-42,141,-95,-78,18,108,161,183
24,157,112,-98,-30,135,-101,-84,18,108,161,183
30,157,100,-98,-24,123,-107,-90,18,108,161,183
36,157,88,-98,-12,117,-107,-90,18,108,167,189
42,151,82,-98,-7,111,-107,-90,18,108,167,189
42,139,76,-98,-1,99,-107,-96,12,102,167,189
42,109,64,-86,-1,87,-107,-102,1,84,161,183
30,91,58,-74,-1,75,-107,-108,-11,72,155,177
24,79,52,-62,-1,63,-107,-114,-17,66,149,171
18,67,46,-56,-1,57,-107,-114,-23,60,143,165
12,55,40,-44,-1,45,-107,-114,-29,54,137,153
6,25,28,-32,-1,33,-101,-114,-29,48,125,141
-6,13,16,-20,-1,21,-95,-114,-29,42,113,129
-11,1,10,-8,-1,9,-89,-114,-29,36,101,117
-11,-4,4,-3,-1,-2,-83,-114,-35,30,89,105
-17,-16,-1,3,-1,-14,-83,-114,-41,18,77,93
-17,-28,-7,9,-1,-26,-83,-114,-47,12,71,81
-17,-34,-13,15,-1,-32,-83,-114,-47,6,65,75
-17,-40,-13,21,-1,-32,-77,-114,-47,1,65,69
-23,-46,-19,27,-1,-38,-71,-114,-47,1,59,63
-29,-58,-25,33,-1,-44,-71,-114,-53,1,59,57
-29,-58,-31,39,5,-50,-65,-114,-53,-5,53,51
-35,-58,-37,39,5,-56,-65,-114,-53,-5,53,45
-41,-58,-37,45,5,-56,-65,-108,-53,-5,53,39
-41,-64,-43,45,5,-62,-65,-108,-53,-5,53,39
-41,-70,-49,45,5,-62,-65,-102,-53,-5,53,39
-41,-70,-49,45,5,-62,-59,-90,-47,1,53,39
-41,-70,-43,45,5,-62,-47,-60,-29,12,59,39
-41,-70,-43,45,5,-62,-23,-18,12,42,71,45
-35,-70,-43,45,11,-62,-5,23,54,84,89,51
-23,-70,-55,45,23,-68,12,65,108,120,107,57
-17,-76,-85,45,41,-80,24,107,150,150,125,63
-11,-88,-127,45,71,-110,36,149,192,180,137,69
0,-100,-163,45,101,-134,48,185,234,210,155,81
12,-112,-181,45,113,-146,54,221,264,240,179,93
18,-124,-187,45,119,-158,66,257,306,276,203,123
30,-130,-199,45,131,-164,78,293,348,312,227,135
72,-136,-229,39,161,-176,84,317,378,330,239,147
90,-142,-241,33,173,-188,90,347,408,360,269,159
96,-142,-247,27,179,-188,96,389,450,402,299,189
108,-136,-247,21,185,-188,114,437,534,468,335,207
114,-130,-247,15,185,-188,150,533,600,534,371,225
114,-118,-247,9,185,-188,222,677,696,594,401,237
114,-118,-247,9,185,-188,312,839,780,636,413,243
114,-130,-271,9,197,-206,378,1001,870,678,419,243
126,-166,-343,9,245,-254,414,1127,1014,792,461,249
192,-178,-403,-3,311,-290,420,1193,1230,1020,581,291
288,-178,-475,-32,383,-320,384,1199,1476,1290,767,387
360,-178,-523,-74,449,-332,258,1139,1710,1590,971,513
432,-160,-547,-128,491,-332,126,953,1926,1920,1205,639
516,-100,-577,-200,545,-332,-17,743,2147,2249,1445,777
606,-10,-595,-296,605,-326,-173,557,2351,2572,1697,939
690,103,-601,-398,641,-284,-353,281,2452,2806,1925,1095
732,229,-577,-488,647,-188,-533,-60,2446,2902,2092,1263
750,271,-535,-524,647,-146,-641,-432,2201,2884,2134,1341
750,247,-547,-524,659,-158,-713,-762,1662,2470,2051,1335
738,61,-643,-422,671,-290,-755,-1104,810,1698,1661,1167
654,-112,-691,-278,671,-404,-773,-1458,-251,624,1115,927
522,-268,-721,-128,659,-488,-767,-1686,-1139,-353,545,633
384,-412,-745,21,617,-572,-683,-1692,-1493,-893,83,351
270,-466,-745,111,539,-590,-581,-1536,-1481,-959,-108,177
186,-478,-703,141,455,-590,-521,-1242,-1211,-917,-126,135
138,-478,-649,159,401,-578,-443,-936,-941,-755,-126,99
96,-478,-601,171,365,-560,-341,-660,-713,-653,-138,27
54,-466,-523,177,305,-518,-263,-426,-527,-545,-162,-38
24,-442,-451,177,257,-458,-191,-282,-401,-449,-174,-86
6,-424,-409,177,221,-416,-149,-222,-341,-407,-180,-116
0,-400,-367,177,191,-374,-113,-198,-311,-377,-180,-122
-6,-376,-325,177,167,-344,-95,-174,-281,-347,-180,-122
-11,-346,-283,177,143,-314,-83,-144,-251,-311,-174,-122
-23,-304,-253,177,125,-272,-65,-120,-221,-269,-162,-116
-29,-268,-229,165,113,-248,-53,-108,-203,-245,-150,-110
-29,-238,-217,153,101,-230,-47,-102,-197,-227,-144,-104
-29,-214,-199,141,89,-218,-41,-96,-185,-215,-132,-98
-29,-202,-181,129,83,-194,-35,-96,-179,-209,-120,-86
-35,-190,-151,123,71,-176,-29,-96,-173,-197,-108,-74
-47,-184,-121,123,53,-164,-29,-90,-167,-191,-102,-68
-53,-178,-109,123,41,-152,-29,-90,-161,-185,-96,-62
-53,-172,-103,117,35,-140,-29,-90,-155,-179,-90,-62
-53,-160,-97,111,35,-134,-23,-84,-149,-173,-90,-62
-53,-148,-91,105,29,-122,-17,-78,-143,-161,-90,-56
-53,-148,-85,105,23,-116,-11,-72,-137,-155,-90,-56
-59,-148,-85,105,23,-116,-11,-72,-137,-155,-90,-56
-65,-148,-85,105,23,-116,-11,-72,-137,-155,-90,-56
-71,-148,-85,105,23,-116,-11,-72,-137,-155,-90,-56
-71,-148,-85,105,17,-116,-11,-72,-137,-149,-90,-56
-71,-142,-85,99,17,-110,-5,-72,-137,-149,-90,-56
-71,-136,-79,93,17,-104,-5,-66,-137,-143,-90,-56
-71,-136,-73,93,17,-104,-5,-66,-137,-143,-90,-56
-71,-136,-67,93,11,-104,-5,-66,-137,-143,-90,-56
-71,-136,-67,93,11,-98,-5,-60,-137,-143,-90,-56
-71,-130,-67,93,11,-98,0,-60,-131,-137,-90,-56
-71,-130,-61,93,5,-98,0,-60,-131,-137,-90,-56
-71,-130,-61,93,-1,-98,0,-60,-125,-137,-84,-56
-71,-124,-61,93,-1,-98,0,-60,-125,-137,-84,-56
-71,-118,-61,93,-1,-98,0,-60,-125,-137,-84,-50
-71,-112,-55,93,-1,-92,6,-60,-125,-137,-84,-50
-71,-112,-49,93,-1,-86,6,-60,-125,-137,-84,-50
-71,-112,-49,93,-1,-86,12,-60,-125,-131,-84,-50
-71,-112,-49,93,-1,-86,18,-54,-119,-131,-84,-50
-71,-112,-49,93,-1,-86,24,-48,-113,-125,-84,-50
-71,-112,-49,93,-1,-86,24,-48,-107,-119,-84,-50
-71,-112,-49,93,-1,-80,24,-42,-107,-119,-78,-50
-71,-112,-49,93,-1,-80,24,-36,-101,-119,-78,-50
-71,-112,-49,93,-1,-80,24,-36,-101,-119,-78,-50
-71,-112,-43,93,-1,-80,24,-30,-101,-113,-78,-50
-71,-106,-43,87,-1,-74,24,-24,-95,-113,-78,-50
-71,-106,-43,87,-1,-74,24,-24,-95,-113,-78,-50
-71,-106,-43,87,-7,-74,24,-24,-95,-113,-78,-44
-71,-106,-43,87,-7,-74,24,-24,-95,-113,-78,-44
-71,-106,-43,87,-7,-74,24,-24,-95,-113,-78,-44
-71,-106,-43,87,-7,-74,24,-24,-95,-113,-78,-44
-71,-100,-31,87,-18,-68,30,-18,-95,-113,-72,-44
-71,-100,-19,87,-24,-62,30,-18,-95,-113,-72,-44
-71,-100,-13,87,-30,-62,36,-18,-95,-113,-72,-38
-71,-100,-13,87,-30,-62,36,-18,-95,-113,-72,-38
-71,-100,-13,81,-24,-62,36,-18,-95,-113,-72,-38
-71,-94,-13,81,-24,-56,36,-18,-95,-113,-72,-38
-71,-88,-7,81,-30,-50,42,-12,-95,-113,-72,-38
-71,-88,-1,81,-30,-50,42,-12,-95,-113,-72,-38
-71,-82,-1,75,-30,-50,42,-12,-95,-113,-72,-38
-71,-76,-1,69,-30,-44,42,-6,-95,-113,-72,-38
-71,-76,-1,69,-30,-44,42,-6,-95,-113,-72,-38
-71,-70,-1,69,-30,-44,42,-6,-95,-113,-72,-38
-71,-70,-1,69,-30,-38,42,-6,-95,-113,-72,-38
-71,-70,4,69,-30,-38,42,-1,-95,-113,-72,-38
-71,-70,10,69,-30,-32,42,5,-95,-113,-72,-38
-71,-70,16,69,-30,-32,42,11,-95,-113,-72,-38
-71,-70,16,69,-36,-26,42,17,-95,-113,-72,-38
-71,-64,16,69,-36,-20,42,17,-95,-113,-72,-38
-71,-58,16,63,-36,-14,42,23,-95,-113,-72,-38
-71,-52,16,63,-36,-8,42,29,-95,-113,-72,-38
-71,-52,22,63,-42,-8,42,29,-95,-113,-72,-38
-71,-52,22,63,-42,-8,42,29,-95,-113,-72,-38
-71,-46,28,57,-42,-8,42,29,-95,-113,-72,-38
-71,-40,34,57,-42,-2,48,35,-95,-113,-72,-38
-71,-34,34,51,-42,-2,54,41,-95,-113,-72,-38
-71,-34,40,51,-48,-2,60,41,-95,-113,-72,-38
-71,-34,46,51,-54,-2,60,47,-95,-113,-72,-38
-71,-28,46,51,-54,3,66,47,-95,-113,-72,-38
-71,-22,52,51,-60,9,66,47,-95,-113,-72,-38
-77,-22,58,51,-66,15,72,53,-95,-119,-72,-38
-83,-22,64,51,-72,21,72,59,-95,-125,-72,-38
-83,-16,76,51,-78,27,72,65,-95,-131,-72,-38
-83,-10,82,51,-78,27,78,71,-95,-137,-72,-38
-83,-4,88,45,-78,33,84,77,-95,-137,-72,-38
-89,1,94,45,-84,39,84,83,-95,-137,-78,-38
-89,1,94,45,-90,45,84,89,-95,-137,-84,-38
-89,7,94,45,-96,45,90,95,-95,-143,-90,-38
-89,13,100,45,-102,51,96,95,-95,-149,-96,-38
-95,13,106,45,-102,57,102,101,-101,-155,-102,-38
-95,19,118,39,-102,63,108,107,-101,-161,-102,-38
-95,31,130,33,-108,75,114,119,-101,-161,-102,-38
-95,37,136,33,-114,81,120,125,-101,-167,-108,-38
-101,37,142,33,-120,81,120,131,-107,-173,-114,-38
-107,37,142,33,-126,87,126,137,-113,-185,-114,-38
-107,43,148,33,-126,93,132,143,-119,-191,-120,-38
-107,55,154,27,-126,105,138,149,-119,-197,-120,-38
-107,61,166,27,-132,111,144,155,-119,-203,-126,-38
-113,61,178,27,-138,117,150,161,-119,-209,-132,-38
-113,67,184,27,-144,123,156,167,-125,-215,-138,-38
-113,67,184,21,-144,129,162,167,-131,-227,-150,-38
-113,73,190,21,-144,135,168,173,-137,-239,-156,-38
-119,73,196,21,-150,135,174,179,-143,-251,-168,-38
-125,73,202,21,-156,135,180,185,-149,-257,-180,-38
-125,73,202,21,-162,135,186,191,-155,-269,-186,-38
-125,73,202,21,-162,141,192,197,-161,-275,-192,-44
-131,73,208,21,-168,141,198,203,-167,-287,-198,-50
-137,73,214,21,-174,141,204,215,-167,-293,-204,-50
-137,79,220,21,-180,147,210,221,-167,-299,-210,-50
-137,79,220,21,-186,147,216,227,-167,-305,-216,-50
-143,79,220,21,-186,147,222,233,-167,-311,-222,-56
-143,79,220,21,-186,147,234,245,-167,-317,-222,-56
-143,79,220,21,-186,147,240,257,-167,-317,-222,-56
-143,79,220,21,-186,147,246,269,-167,-317,-222,-56
-143,79,220,21,-186,147,252,275,-167,-317,-228,-56
-149,79,220,27,-186,147,258,281,-167,-317,-228,-56
-149,79,220,27,-186,147,264,287,-167,-317,-228,-62
-149,79,220,27,-186,147,264,299,-167,-317,-228,-62
-149,79,220,27,-186,147,270,311,-161,-317,-228,-62
-149,79,220,27,-186,147,276,323,-149,-317,-228,-62
-149,79,214,27,-180,147,282,335,-137,-317,-228,-62
-149,79,208,27,-174,141,288,347,-125,-311,-228,-62
-149,79,208,27,-174,141,288,371,-113,-305,-228,-62
-143,79,202,27,-168,141,294,383,-101,-299,-228,-62
-137,73,190,27,-162,129,294,389,-89,-293,-228,-62
-131,67,178,27,-156,117,294,395,-77,-281,-228,-62
-125,55,172,27,-150,111,294,401,-65,-269,-228,-62
-119,49,160,27,-144,105,294,407,-47,-251,-222,-62
-113,43,148,27,-138,99,294,407,-35,-239,-216,-62
-113,43,142,27,-132,93,294,407,-17,-215,-204,-62
-107,37,130,27,-126,87,294,407,-5,-197,-192,-56
-101,37,118,27,-114,81,294,407,6,-179,-180,-50
-95,37,112,27,-108,75,288,407,18,-161,-168,-44
-95,31,106,27,-108,69,282,401,30,-149,-156,-38
-95,31,106,27,-102,63,270,389,36,-119,-138,-32
-89,31,100,27,-96,63,258,377,42,-95,-114,-26
-83,31,94,27,-90,57,240,347,42,-83,-102,-20
-77,31,88,27,-84,51,228,317,42,-59,-78,-14
-71,31,88,27,-84,51,210,293,48,-41,-54,-2
-65,31,82,21,-78,51,198,275,54,-23,-42,15
-59,31,76,15,-72,51,186,245,54,-11,-30,27
-53,31,70,15,-66,45,168,221,54,1,-18,33
-47,31,64,15,-60,39,150,209,54,6,-12,39
-41,31,58,15,-54,39,138,191,54,12,0,45
-41,31,58,15,-54,39,126,179,54,24,11,51
-35,31,52,9,-48,39,114,167,54,36,23,57
-29,31,46,3,-42,39,102,143,54,48,35,57
-29,31,46,3,-36,39,96,125,54,54,41,57
-29,31,40,3,-30,33,84,107,54,54,47,57
-23,25,40,3,-30,33,78,95,54,54,53,57
-23,25,40,3,-30,33,72,83,54,54,59,63
-23,25,34,3,-24,33,66,71,48,54,59,69
-23,25,28,3,-24,33,60,65,48,60,65,69
-23,25,28,3,-24,27,54,53,42,60,65,69
-23,25,28,3,-24,21,48,47,36,60,65,69
-23,19,22,3,-24,15,42,41,30,60,65,69
-17,13,16,3,-18,9,36,29,30,60,65,69
-17,13,16,3,-18,3,30,23,30,60,65,69
-17,13,16,3,-18,3,30,23,30,60,65,69
-17,13,16,3,-18,3,30,17,30,60,65,69
-17,1,16,9,-18,3,30,11,24,60,65,69
-17,1,10,9,-18,3,24,5,18,60,65,69
-17,1,4,9,-12,3,24,5,12,60,65,69
-17,1,-1,9,-12,-2,18,5,6,60,65,69
-17,1,-1,9,-12,-2,18,-1,6,60,65,69
-17,1,-1,9,-12,-2,12,-6,6,54,65,69
-17,1,-1,9,-7,-2,12,-6,6,54,65,69
-11,1,-1,9,-7,-2,12,-6,6,54,65,69
-6,1,-1,9,-1,-2,12,-12,6,54,65,69
-6,1,-1,9,-1,-2,6,-18,6,54,65,69
-6,1,-1,9,-1,-2,6,-18,6,54,65,69
-6,1,-1,9,-1,-2,6,-18,6,54,65,69
-6,-4,-1,9,-1,-8,6,-18,6,54,65,69
-6,-10,-7,9,-1,-14,6,-18,1,54,65,69
-6,-10,-13,9,-1,-14,6,-18,1,54,65,69
-6,-10,-13,9,-1,-14,6,-18,1,54,65,69
-6,-10,-13,9,-1,-14,6,-18,1,54,65,69
-6,-10,-13,9,-1,-14,6,-18,1,54,65,69
-6,-10,-13,9,-1,-14,6,-18,-5,48,65,69
-6,-16,-13,9,-1,-14,6,-24,-5,42,65,69
-6,-16,-13,9,-1,-14,6,-24,-5,42,65,69
-6,-16,-13,9,-1,-14,6,-24,-5,42,59,69
-6,-16,-13,9,-1,-14,6,-30,-5,42,59,69
-6,-16,-13,9,-1,-14,6,-30,-5,42,59,69
-6,-16,-13,9,-1,-14,6,-30,-5,42,59,69
-11,-16,-13,15,-1,-14,6,-30,-11,42,59,69
-11,-16,-13,15,-1,-14,6,-36,-11,36,59,69
-11,-16,-13,15,-1,-14,6,-36,-11,36,59,69
-11,-16,-13,15,-1,-14,6,-36,-11,36,59,69
-11,-16,-13,15,-1,-14,6,-36,-17,36,59,69
-6,-16,-13,15,-1,-14,6,-36,-17,36,59,69
-6,-16,-13,15,-1,-14,6,-36,-17,36,59,69
-6,-16,-13,15,-1,-14,6,-36,-17,36,59,69
-17,-16,-13,21,-7,-14,6,-36,-17,36,59,69
-17,-16,-13,21,-7,-14,6,-36,-17,36,59,69
-11,-16,-13,15,-1,-14,6,-36,-23,30,53,69
-11,-16,-13,9,-1,-14,6,-36,-23,30,53,69
-11,-16,-13,9,-1,-14,6,-36,-23,24,53,69
-11,-16,-13,9,-1,-14,6,-42,-23,24,53,69
-11,-16,-13,9,-1,-14,6,-42,-29,24,53,69
-11,-16,-13,9,-1,-14,6,-42,-29,24,53,69
-11,-16,-13,9,-1,-14,6,-42,-35,24,47,69
-11,-16,-13,9,-1,-14,6,-42,-35,24,47,69
-11,-16,-13,9,-1,-14,6,-42,-35,24,47,69
-11,-16,-13,9,-1,-14,6,-48,-41,24,47,69
-11,-16,-13,9,-1,-14,0,-54,-41,24,47,69
-11,-16,-7,9,-1,-14,0,-54,-41,24,47,69
-11,-16,-7,9,-1,-14,0,-54,-41,24,47,69
-11,-16,-7,9,-1,-14,-5,-54,-41,18,47,69
-11,-16,-7,9,-1,-14,-5,-54,-41,18,47,69
-11,-16,-7,9,-1,-14,-5,-54,-41,18,47,63
-11,-16,-7,9,-1,-14,-5,-54,-41,18,47,63
-17,-16,-7,9,-1,-14,-5,-54,-41,18,47,63
-23,-16,-1,9,-7,-14,-5,-54,-41,18,47,63
-23,-16,-1,9,-7,-14,-5,-54,-41,12,47,63
-17,-16,-1,3,-1,-14,-5,-54,-41,12,41,63
-11,-16,-1,3,-1,-14,-5,-54,-41,12,41,63
-11,-16,-1,3,-1,-14,-5,-54,-41,12,41,63
-11,-16,-1,3,-1,-14,-5,-54,-41,12,41,63
-11,-16,-1,3,-1,-14,-5,-54,-41,12,41,63
-11,-16,-1,3,-1,-14,-5,-54,-41,12,41,63
-11,-16,-1,3,-1,-8,-5,-54,-41,12,41,63
-11,-16,-1,3,-1,-8,-5,-54,-41,12,41,63
-11,-16,-1,3,-1,-8,-11,-54,-41,12,35,63
-11,-16,-1,3,-1,-8,-11,-54,-41,12,35,63
-11,-16,4,3,-1,-8,-11,-54,-41,12,35,63
-11,-16,4,3,-1,-8,-11,-54,-41,12,35,63
-11,-16,4,3,-1,-8,-11,-54,-41,12,29,57
-11,-16,4,3,-1,-8,-11,-54,-41,12,29,57
-11,-10,4,3,-1,-8,-11,-54,-41,12,29,57
-11,-10,4,3,-1,-8,-11,-54,-41,12,29,57
-11,-10,4,3,-1,-8,-17,-54,-41,12,29,57
-11,-10,4,3,-1,-8,-17,-54,-41,12,29,57
-11,-10,4,3,-1,-8,-17,-54,-41,12,29,57
-11,-10,4,3,-1,-8,-17,-54,-41,12,29,57
-11,-10,-1,3,-1,-8,-17,-54,-41,12,29,57
-11,-10,-1,3,-1,-8,-17,-54,-41,12,29,57
-11,-10,-1,3,-1,-8,-17,-54,-41,12,29,57
-11,-10,-1,3,-1,-8,-17,-54,-41,12,29,57
-11,-10,-1,3,-1,-8,-17,-54,-41,6,29,57
-11,-10,-1,3,-1,-8,-17,-54,-41,6,29,57
-11,-10,-1,3,-1,-8,-17,-54,-41,6,23,51
-11,-4,-1,3,-1,-8,-17,-54,-41,6,23,51
-11,-4,-1,3,-1,-8,-17,-54,-41,6,23,51
-11,-4,-1,3,-1,-8,-17,-54,-41,6,17,51
-11,-4,-1,3,-1,-8,-17,-54,-47,6,11,51
-11,-4,-1,3,-1,-8,-17,-54,-47,6,11,51
-11,-4,-1,3,-1,-8,-17,-54,-47,6,11,51
-11,-4,-1,3,-1,-8,-17,-54,-47,6,11,51
-11,-4,-1,3,-7,-8,-17,-54,-47,6,11,51
-11,-4,-1,3,-7,-8,-17,-54,-47,6,11,51
-11,-4,-1,3,-7,-8,-17,-54,-47,6,11,51
-11,-4,-1,3,-7,-8,-17,-54,-47,6,11,51
-11,-4,-1,3,-7,-8,-17,-54,-47,6,11,51
-17,-4,-1,9,-7,-8,-23,-54,-47,6,11,45
-17,-4,-1,9,-7,-8,-23,-54,-47,6,11,45
-11,-4,-1,9,-7,-2,-23,-54,-47,6,11,45
-11,-4,4,9,-7,3,-23,-54,-47,6,11,45
-11,-4,4,9,-7,3,-23,-54,-47,1,5,45
-11,-10,4,9,-7,-2,-29,-60,-47,-5,0,39
-11,-10,4,9,-7,-2,-29,-60,-47,-5,0,39
-11,-10,4,9,-7,-2,-29,-60,-47,-5,0,39
-11,-10,4,9,-7,-2,-29,-66,-47,-5,0,39
-11,-10,4,9,-7,-2,-29,-72,-47,-5,0,39
-11,-10,4,9,-7,3,-29,-72,-47,-5,0,39
-11,-10,4,9,-7,3,-29,-72,-47,-5,0,39
-11,-10,4,9,-7,3,-29,-72,-53,-5,0,39
-11,-10,4,9,-7,3,-29,-72,-53,-5,0,33
-11,-10,4,9,-7,3,-29,-72,-53,-5,0,33
-11,-10,4,9,-7,3,-29,-72,-53,-5,0,33
-11,-10,4,9,-7,3,-29,-72,-53,-5,0,33
-11,-10,4,9,-7,3,-29,-72,-53,-5,0,33
-11,-10,4,9,-7,3,-29,-72,-53,-5,0,33
-11,-10,4,9,-7,3,-29,-72,-53,-5,0,33
-11,-10,4,9,-7,3,-29,-72,-53,-5,0,27
-11,-10,4,9,-7,3,-29,-72,-53,-5,0,27
-11,-10,-1,9,-7,3,-29,-72,-53,-5,0,27
-11,-10,-1,9,-7,3,-29,-72,-53,-5,0,27
-11,-10,-1,9,-7,3,-29,-72,-53,-5,0,27
-11,-10,-1,9,-7,3,-29,-72,-53,-5,0,27
-11,-10,-1,9,-7,3,-29,-72,-53,-5,0,27
-11,-10,-1,9,-7,3,-29,-72,-53,-5,0,27
-11,-10,-1,9,-7,3,-29,-72,-53,-5,0,27
-11,-10,-1,9,-7,3,-29,-72,-53,-5,0,27
-11,-10,-1,9,-7,3,-29,-72,-53,-5,0,27
-11,-10,-1,9,-7,3,-29,-72,-53,-5,0,27
-11,-10,-1,9,-7,3,-29,-72,-53,-5,0,27
-11,-10,-1,9,-7,3,-29,-72,-53,-5,0,27
-11,-10,-1,9,-7,3,-29,-72,-53,-5,0,27
-11,-10,-1,9,-7,3,-29,-72,-53,-5,0,27
-11,-10,-1,9,-7,3,-29,-72,-53,-5,0,27
-23,-10,4,15,-12,3,-29,-72,-53,-5,0,27
-29,-10,4,15,-12,3,-29,-72,-53,-5,0,27
-23,-10,-1,15,-12,3,-29,-72,-53,-11,-6,27
-17,-10,-7,15,-7,-2,-29,-72,-59,-17,-12,21
-17,-10,-7,15,-7,-2,-29,-72,-59,-17,-12,21
-17,-10,-7,15,-7,-2,-29,-72,-65,-17,-12,21
-23,-10,-7,21,-7,-2,-29,-72,-65,-17,-12,21
-23,-10,-7,21,-7,-2,-29,-72,-65,-17,-12,21
-17,-10,-7,21,-7,-2,-29,-72,-65,-17,-12,21
-11,-10,-7,15,-7,-2,-29,-72,-65,-17,-12,21
-11,-10,-7,15,-7,-2,-29,-72,-65,-17,-12,21
-11,-10,-7,15,-7,-2,-29,-72,-65,-17,-12,21
-11,-10,-7,15,-7,-2,-29,-72,-65,-17,-12,21
-11,-4,-7,9,-7,-2,-29,-72,-65,-17,-12,21
-11,1,-1,9,-7,3,-29,-72,-65,-17,-12,21
-11,1,4,9,-7,9,-29,-72,-65,-17,-12,21
-11,7,4,9,-7,9,-29,-72,-65,-17,-12,21
-11,13,10,3,-7,15,-29,-72,-59,-17,-12,21
-11,25,16,-3,-7,21,-23,-72,-53,-11,-6,21
-11,31,34,-8,-12,33,-17,-66,-47,-5,0,27
-11,37,46,-14,-18,39,-17,-66,-41,1,0,27
-11,43,58,-20,-24,51,-11,-60,-35,6,0,33
-11,55,64,-26,-24,57,-11,-60,-29,6,5,39
-11,61,70,-32,-24,63,-11,-60,-29,12,11,39
-11,67,70,-38,-24,69,-11,-60,-29,12,11,39
-6,79,70,-44,-24,75,-11,-60,-29,12,17,39
0,91,76,-50,-24,81,-11,-54,-23,18,23,45
0,97,82,-50,-30,87,-11,-54,-23,24,29,45
0,97,94,-50,-42,93,-11,-54,-23,24,29,45
0,103,100,-50,-42,99,-11,-54,-23,24,29,45
6,109,106,-56,-42,111,-11,-54,-17,24,29,51
6,115,112,-62,-42,123,-11,-54,-17,24,35,57
6,121,118,-68,-48,129,-17,-60,-17,30,35,63
6,139,124,-74,-48,135,-23,-66,-17,30,41,69
6,151,130,-80,-54,141,-29,-66,-17,36,41,69
6,163,142,-80,-60,153,-35,-72,-11,42,47,75
6,175,154,-86,-66,165,-41,-78,-11,48,53,81
6,187,160,-92,-66,171,-53,-84,-11,54,59,87
6,193,160,-98,-66,177,-59,-84,-11,54,65,93
6,199,160,-104,-66,183,-65,-84,-11,54,65,99
6,205,172,-110,-66,189,-65,-84,-5,60,71,111
6,211,178,-110,-66,195,-65,-84,1,66,77,123
12,211,178,-116,-66,195,-71,-84,1,66,83,129
18,211,178,-116,-60,195,-77,-90,1,66,83,129
24,211,172,-116,-60,189,-77,-90,1,66,89,135
30,205,166,-116,-60,177,-83,-90,1,66,89,135
42,205,154,-116,-54,171,-89,-90,1,66,89,135
54,205,142,-116,-42,165,-95,-90,1,66,89,135
54,193,136,-110,-42,159,-95,-96,1,66,89,141
54,175,118,-104,-36,147,-95,-96,1,66,89,141
54,157,88,-104,-24,123,-95,-102,-5,60,89,141
54,145,82,-98,-18,111,-95,-108,-11,54,89,141
54,127,82,-92,-18,105,-95,-108,-23,48,89,141
48,115,82,-86,-18,99,-95,-108,-29,36,83,135
36,91,76,-68,-18,87,-95,-108,-35,30,71,123
24,73,70,-38,-18,69,-89,-108,-41,18,53,99
12,61,64,-26,-18,57,-83,-108,-47,6,41,87
12,49,52,-20,-18,39,-83,-108,-53,1,29,69
12,37,34,-14,-12,27,-77,-108,-59,-5,17,57
12,25,22,-8,-12,21,-71,-108,-59,-11,5,45
6,13,16,-3,-12,15,-71,-108,-59,-17,0,39
0,1,10,3,-12,9,-71,-108,-65,-23,-6,27
0,-10,4,3,-12,3,-65,-108,-71,-29,-12,21
0,-16,-7,3,-7,-8,-65,-108,-77,-35,-24,15
0,-22,-13,9,-1,-20,-65,-108,-83,-41,-36,4
0,-28,-19,15,5,-26,-65,-108,-83,-47,-42,-2
-6,-34,-19,21,5,-32,-65,-108,-83,-53,-42,-8
-11,-34,-19,21,5,-32,-59,-108,-83,-53,-42,-14
-11,-34,-25,21,5,-32,-53,-102,-83,-53,-42,-14
-11,-34,-25,21,5,-32,-47,-96,-77,-53,-42,-14
-17,-34,-25,21,5,-32,-35,-78,-65,-41,-36,-8
-17,-34,-19,21,-1,-32,-17,-54,-41,-23,-24,-2
-17,-34,-19,21,-1,-32,-5,-30,-11,1,-12,-2
-11,-34,-19,21,-1,-32,6,-1,18,30,0,4
-6,-34,-19,21,5,-32,18,41,60,72,11,9
0,-40,-31,21,17,-44,24,77,96,102,23,15
12,-64,-85,21,47,-80,30,101,126,114,35,21
24,-76,-127,21,71,-110,42,143,168,144,47,27
30,-88,-145,21,83,-122,54,191,216,174,77,39
36,-94,-157,21,95,-134,66,221,258,216,107,51
48,-100,-187,21,125,-146,72,251,294,246,125,69
78,-100,-229,15,155,-152,78,281,324,276,149,87
102,-100,-235,9,173,-158,90,323,366,312,179,105
108,-100,-235,9,173,-158,96,365,408,360,203,123
108,-100,-235,9,173,-158,108,407,474,426,233,135
114,-100,-229,3,173,-158,138,497,552,486,263,153
114,-94,-223,-3,173,-158,222,623,648,552,287,165
114,-94,-223,-8,173,-158,330,809,762,606,305,171
126,-100,-259,-8,197,-182,402,995,876,672,323,171
144,-154,-355,-8,251,-242,438,1133,1050,810,377,177
180,-184,-421,-8,299,-290,444,1223,1290,1050,521,219
264,-184,-469,-20,371,-314,414,1241,1554,1362,719,327
372,-178,-517,-74,449,-326,300,1217,1788,1674,941,447
462,-148,-547,-140,503,-332,156,1037,1986,1998,1169,585
522,-94,-565,-206,539,-332,0,833,2195,2351,1427,747
618,-10,-571,-308,581,-320,-149,641,2405,2674,1685,915
660,109,-565,-392,593,-254,-323,383,2482,2902,1925,1107
684,235,-511,-464,593,-140,-497,41,2464,2974,2098,1275
702,271,-493,-500,593,-116,-605,-312,2159,2908,2110,1317
714,235,-535,-500,617,-146,-659,-636,1560,2387,1961,1293
702,55,-643,-392,641,-284,-689,-984,612,1482,1505,1083
582,-118,-667,-224,641,-386,-707,-1362,-497,348,935,831
474,-262,-697,-86,623,-476,-701,-1596,-1325,-575,353,537
366,-400,-709,33,581,-548,-641,-1596,-1553,-1001,-54,261
258,-442,-703,105,491,-560,-521,-1398,-1475,-1007,-198,141
168,-442,-595,123,377,-542,-425,-1098,-1175,-899,-204,99
126,-442,-565,135,341,-524,-353,-810,-911,-767,-210,33
96,-442,-553,147,323,-518,-287,-564,-713,-695,-252,-68
48,-442,-523,171,281,-494,-215,-360,-533,-605,-282,-152
18,-430,-451,177,239,-452,-161,-240,-419,-509,-294,-182
6,-400,-397,177,209,-398,-119,-186,-353,-455,-300,-200
0,-370,-361,177,191,-356,-95,-162,-329,-413,-300,-206
-6,-340,-319,177,161,-320,-83,-150,-311,-383,-300,-206
-11,-316,-277,171,137,-290,-71,-132,-287,-353,-294,-206
-17,-292,-241,165,119,-266,-59,-108,-257,-323,-282,-200
-17,-262,-205,159,101,-236,-47,-96,-239,-293,-270,-188
-17,-232,-187,147,89,-218,-41,-90,-227,-275,-258,-182
-17,-208,-175,135,77,-206,-35,-90,-215,-263,-246,-176
-17,-190,-169,123,71,-188,-29,-90,-209,-257,-234,-164
-23,-178,-151,117,65,-170,-23,-84,-203,-245,-222,-152
-35,-166,-121,117,47,-140,-17,-78,-191,-233,-210,-146
-41,-154,-97,117,35,-116,-11,-72,-185,-221,-204,-134
-41,-142,-85,105,29,-104,-11,-72,-179,-215,-198,-128
-41,-136,-79,99,23,-98,-5,-66,-173,-209,-192,-128
-41,-130,-73,93,17,-92,-5,-66,-167,-203,-192,-128
-47,-124,-67,93,11,-92,0,-60,-167,-197,-186,-128
-47,-118,-61,93,5,-92,0,-60,-167,-191,-186,-128
-47,-118,-61,93,5,-92,0,-60,-161,-185,-186,-128
-47,-118,-61,93,5,-92,0,-60,-161,-185,-186,-128
-47,-118,-61,87,5,-92,0,-60,-161,-185,-180,-128
-47,-112,-61,87,5,-86,6,-60,-155,-185,-180,-128
-47,-112,-61,87,5,-80,6,-54,-155,-185,-180,-128
-47,-112,-55,87,-1,-80,6,-48,-155,-185,-180,-128
-47,-112,-49,87,-1,-80,6,-48,-155,-179,-174,-128
-47,-112,-43,87,-7,-80,6,-48,-149,-179,-174,-128
-47,-112,-37,81,-7,-80,6,-48,-149,-173,-174,-128
-47,-106,-31,81,-7,-80,6,-48,-149,-167,-174,-128
-53,-106,-25,81,-12,-74,12,-48,-143,-161,-174,-122
-59,-106,-25,81,-18,-74,12,-42,-143,-161,-174,-122
-59,-100,-25,81,-18,-68,12,-42,-143,-161,-174,-122
-53,-88,-25,75,-18,-62,18,-36,-137,-155,-174,-116
-53,-82,-19,69,-18,-56,24,-36,-137,-155,-174,-116
-53,-82,-19,69,-18,-56,24,-36,-137,-155,-174,-116
-53,-76,-19,69,-18,-56,30,-36,-131,-155,-174,-116
-53,-76,-19,63,-18,-50,30,-36,-131,-155,-174,-116
-53,-70,-19,63,-18,-50,30,-36,-131,-155,-174,-116
-53,-70,-19,63,-18,-50,30,-30,-125,-149,-174,-116
-53,-70,-19,63,-18,-50,30,-30,-125,-149,-174,-116
-53,-70,-19,63,-18,-50,30,-30,-125,-149,-174,-116
-53,-70,-13,63,-18,-44,30,-30,-125,-149,-174,-116
-53,-70,-7,63,-24,-38,30,-30,-125,-149,-174,-116
-53,-64,-7,63,-24,-38,30,-24,-125,-149,-174,-116
-53,-64,-7,63,-24,-38,30,-24,-125,-149,-174,-116
-59,-64,-7,63,-24,-38,30,-24,-125,-149,-174,-116
-59,-64,-7,63,-24,-38,30,-24,-125,-149,-174,-116
-59,-64,-7,63,-24,-38,30,-18,-119,-149,-174,-116
-59,-58,-7,57,-24,-38,30,-12,-113,-149,-174,-116
-59,-58,-7,57,-24,-32,30,-12,-113,-143,-174,-116
-59,-58,-7,57,-24,-32,30,-12,-113,-143,-174,-116
-59,-58,-7,57,-24,-32,30,-12,-113,-143,-174,-116
-59,-58,-7,57,-24,-32,30,-12,-113,-143,-174,-116
-59,-58,-1,57,-24,-26,30,-6,-113,-143,-174,-116
-59,-52,4,51,-24,-20,30,-6,-113,-143,-174,-116
-59,-46,10,51,-24,-20,30,-6,-113,-143,-174,-116
-59,-46,10,51,-30,-20,30,-6,-113,-143,-174,-116
-59,-46,16,51,-30,-20,30,-1,-113,-143,-174,-116
-59,-46,16,51,-30,-20,30,-1,-113,-143,-174,-116
-53,-40,16,45,-30,-14,30,-1,-113,-143,-174,-116
-53,-34,16,39,-30,-14,30,5,-113,-143,-174,-116
-53,-34,22,39,-36,-8,30,11,-113,-143,-174,-116
-53,-34,22,39,-42,-8,30,11,-113,-143,-174,-116
-53,-34,22,39,-42,-8,30,11,-113,-143,-174,-116
-53,-28,28,39,-42,-2,30,11,-113,-143,-174,-116
-53,-22,34,39,-42,3,36,17,-113,-143,-174,-116
-53,-22,34,39,-42,3,42,23,-113,-143,-174,-116
-53,-22,34,39,-42,3,42,23,-113,-143,-174,-116
-53,-22,34,39,-42,3,42,29,-107,-143,-174,-110
-53,-22,40,39,-42,9,48,35,-101,-143,-168,-104
-53,-22,40,39,-42,9,48,35,-101,-143,-168,-98
-53,-22,40,39,-42,9,48,35,-101,-143,-168,-98
-53,-16,40,39,-42,15,54,41,-95,-143,-168,-98
-53,-10,40,39,-42,21,54,47,-95,-143,-168,-98
-53,-10,46,39,-48,21,54,47,-95,-143,-168,-98
-53,-4,52,39,-54,27,54,53,-95,-143,-168,-98
-53,1,52,33,-54,33,60,59,-95,-143,-168,-98
-53,7,58,33,-54,39,66,65,-95,-143,-168,-98
-53,7,70,33,-66,45,72,71,-95,-143,-168,-98
-59,13,82,33,-72,51,72,71,-95,-143,-168,-92
-59,19,88,27,-72,51,72,71,-95,-149,-168,-92
-59,25,88,27,-72,57,72,71,-95,-155,-168,-92
-59,31,94,27,-72,63,78,77,-95,-155,-168,-92
-59,31,100,27,-72,69,84,83,-95,-155,-174,-92
-59,31,106,27,-78,75,90,83,-95,-161,-174,-92
-59,37,112,27,-84,75,96,89,-95,-167,-174,-92
-59,43,118,21,-84,75,96,95,-95,-173,-180,-92
-59,49,124,15,-84,81,96,101,-95,-179,-192,-92
-59,55,130,15,-90,87,96,107,-95,-185,-198,-92
-65,61,136,15,-96,93,102,113,-95,-191,-204,-92
-65,61,142,15,-102,99,108,119,-101,-197,-210,-92
-71,67,148,15,-108,105,108,125,-101,-209,-216,-92
-77,73,160,15,-114,117,114,131,-107,-215,-222,-92
-77,79,172,9,-120,129,120,137,-113,-221,-228,-92
-77,85,178,3,-120,135,126,143,-113,-227,-234,-98
-77,85,178,3,-126,141,138,149,-113,-233,-240,-104
-83,91,184,3,-132,147,144,155,-119,-239,-240,-104
-83,91,190,3,-144,153,150,161,-125,-245,-246,-104
-89,91,202,3,-150,153,156,167,-125,-251,-246,-104
-89,97,208,3,-150,153,162,173,-125,-257,-252,-104
-89,103,214,3,-156,153,162,179,-125,-263,-258,-104
-89,103,220,3,-156,153,168,185,-125,-269,-264,-104
-89,103,220,3,-156,159,180,197,-125,-275,-270,-104
-89,109,220,3,-156,165,186,203,-125,-281,-276,-104
-89,109,220,3,-156,165,192,209,-131,-287,-282,-110
-95,109,220,3,-156,165,198,215,-131,-293,-294,-116
-101,109,226,3,-156,165,204,221,-131,-299,-300,-116
-101,109,226,3,-156,165,210,227,-131,-299,-306,-116
-101,109,226,3,-156,165,216,233,-131,-299,-306,-116
-101,109,226,3,-162,165,222,239,-131,-299,-306,-116
-101,109,226,3,-168,165,228,257,-131,-299,-306,-122
-101,109,226,3,-168,165,234,269,-131,-299,-306,-122
-101,109,226,3,-168,165,240,275,-131,-299,-312,-128
-101,109,226,3,-168,165,246,281,-125,-299,-312,-128
-101,109,226,3,-168,165,258,293,-119,-299,-312,-128
-101,109,226,3,-168,165,270,311,-107,-299,-312,-128
-101,109,226,3,-168,165,276,323,-101,-299,-312,-128
-101,103,226,3,-168,165,276,329,-95,-299,-312,-134
-101,97,226,3,-168,165,276,335,-89,-293,-312,-134
-101,97,226,3,-168,165,276,347,-77,-287,-312,-134
-101,91,226,3,-168,159,276,359,-59,-281,-306,-134
-107,85,220,3,-168,153,276,365,-41,-275,-306,-134
-107,79,208,3,-162,141,276,371,-29,-269,-300,-134
-107,73,196,3,-156,135,276,377,-17,-257,-300,-134
-107,73,184,3,-150,129,276,383,1,-233,-294,-134
-95,73,172,3,-138,123,276,383,12,-221,-288,-134
-89,73,166,3,-126,117,276,383,24,-203,-276,-134
-83,73,160,3,-120,117,276,383,36,-191,-264,-128
-77,73,154,3,-114,117,276,383,48,-167,-252,-122
-71,73,148,3,-102,111,270,383,54,-149,-228,-116
-65,73,142,3,-96,105,258,377,60,-137,-216,-110
-59,73,130,3,-90,99,252,365,66,-119,-204,-104
-59,73,124,3,-90,93,240,353,66,-107,-192,-98
-59,73,124,3,-90,93,228,335,72,-83,-180,-86
-53,73,118,3,-84,93,216,317,78,-53,-162,-74
-41,73,106,-3,-78,87,204,287,78,-41,-150,-62
-35,73,100,-8,-72,81,192,263,78,-29,-138,-56
-29,67,94,-8,-66,75,174,239,78,-23,-126,-50
-29,61,88,-8,-60,69,156,215,78,-17,-114,-44
-29,55,82,-8,-60,69,144,203,78,-11,-102,-38
-29,55,82,-8,-60,69,132,191,78,-5,-90,-32
-23,55,76,-8,-54,69,120,179,78,1,-84,-26
-23,55,70,-8,-48,69,108,167,78,6,-72,-20
-23,49,64,-8,-48,69,102,143,78,12,-66,-14
-17,43,58,-8,-42,63,96,125,72,18,-60,-14
-11,43,52,-8,-42,63,90,113,66,18,-54,-8
-11,43,52,-8,-42,63,84,101,60,24,-48,-2
-11,43,52,-8,-42,63,78,95,60,30,-42,-2
-11,43,52,-8,-42,63,72,89,54,30,-36,-2
-11,43,46,-8,-30,57,66,77,48,30,-30,-2
-6,37,34,-8,-18,45,54,65,42,30,-30,-2
-6,37,28,-8,-18,39,54,59,42,30,-24,-2
-6,37,28,-8,-12,33,48,53,36,30,-24,-2
-6,31,22,-8,-12,27,42,47,30,30,-24,-2
-6,25,22,-8,-12,27,42,41,30,30,-24,-2
-6,25,16,-8,-12,27,42,35,30,30,-24,-2
0,25,10,-8,-7,27,36,29,30,30,-24,-2
6,25,4,-8,-1,21,36,29,24,30,-24,-2
6,19,4,-8,-1,15,36,29,24,30,-24,-2
6,13,4,-8,-1,15,36,23,24,30,-24,-2
6,7,4,-8,-1,9,36,17,18,24,-24,-2
6,7,4,-8,-1,9,30,11,12,18,-24,-2
6,7,4,-8,-1,9,30,11,12,18,-24,-2
6,7,4,-8,-1,3,30,11,12,18,-24,-2
6,7,4,-8,-1,3,30,11,12,18,-24,-2
6,7,4,-8,-1,3,30,5,12,18,-24,-2
6,7,4,-8,-1,3,30,5,12,12,-24,-2
6,1,-1,-8,5,-2,24,5,6,12,-24,-2
6,1,-1,-8,5,-2,24,5,6,12,-24,-2
6,1,-7,-8,5,-2,24,5,6,12,-24,-2
6,1,-7,-8,11,-2,24,5,6,12,-24,-2
6,1,-7,-8,11,-2,24,5,6,12,-24,-2
6,1,-7,-8,11,-2,24,-1,6,12,-24,-2
6,1,-7,-8,11,-2,24,-1,6,12,-24,-2
6,1,-7,-8,11,-2,24,-1,1,6,-24,-2
6,-4,-7,-8,11,-2,18,-6,-5,1,-24,-8
6,-4,-7,-8,11,-2,18,-6,-5,1,-30,-8
6,-4,-7,-8,11,-2,18,-6,-5,1,-30,-8
6,-4,-7,-8,11,-2,18,-6,-5,1,-30,-8
6,-4,-7,-8,11,-2,18,-6,-11,1,-30,-14
6,-4,-7,-8,11,-2,18,-12,-11,-5,-30,-14
6,-4,-7,-8,11,-2,18,-12,-11,-5,-30,-14
6,-4,-7,-8,11,-2,18,-12,-11,-5,-30,-14
6,-4,-7,-8,11,-2,18,-12,-11,-5,-30,-14
6,-4,-7,-8,11,-2,18,-12,-11,-5,-30,-14
6,-4,-7,-8,11,-2,18,-12,-11,-5,-30,-14
6,-4,-7,-8,11,-2,18,-12,-11,-5,-30,-14
6,-4,-7,-8,11,-2,18,-12,-11,-5,-30,-14
6,-4,-7,-8,11,-2,18,-12,-11,-5,-30,-14
-6,-10,-7,-3,5,-2,12,-18,-17,-11,-30,-14
-6,-16,-7,3,5,-2,12,-24,-17,-17,-30,-14
-6,-16,-7,3,5,-2,12,-24,-17,-17,-30,-14
0,-10,-7,-3,5,-2,12,-24,-17,-17,-30,-14
0,-4,-7,-3,5,-2,12,-24,-17,-17,-30,-14
0,-4,-7,-3,5,-2,12,-24,-17,-17,-30,-14
0,-4,-7,-3,5,-2,6,-30,-23,-17,-30,-14
0,-4,-7,-3,5,-2,6,-30,-23,-17,-30,-14
0,-4,-7,-3,5,-2,6,-30,-23,-17,-30,-14
0,-4,-7,-3,5,-2,6,-30,-23,-17,-30,-14
0,-4,-7,-3,5,-2,6,-30,-23,-17,-30,-14
0,-4,-7,-3,5,-2,6,-30,-23,-17,-36,-14
0,-4,-7,-3,5,-2,6,-30,-23,-23,-36,-14
0,-4,-1,-3,-1,-2,6,-30,-23,-23,-36,-14
0,-4,-1,-3,-1,-2,6,-30,-23,-23,-36,-14
0,-4,-1,-3,-1,-2,6,-30,-23,-23,-36,-14
0,-4,-1,-3,-1,-2,6,-30,-23,-23,-42,-20
0,-4,-1,-3,-1,3,6,-30,-23,-23,-42,-20
0,-4,-1,-3,-1,3,6,-30,-23,-23,-42,-20
0,-4,-1,-3,-1,3,6,-30,-23,-23,-42,-20
0,-4,-1,-3,-1,3,6,-30,-23,-23,-42,-20
0,-4,-1,-3,-1,3,6,-30,-23,-23,-42,-20
0,-4,-1,-3,-1,3,6,-30,-23,-23,-42,-20
0,-4,-1,-3,-1,3,6,-30,-23,-23,-42,-20
0,-4,-1,-3,-1,3,6,-30,-23,-23,-42,-20
0,-4,-1,-3,-1,3,6,-30,-23,-23,-42,-20
0,-4,-1,-3,-1,3,6,-30,-23,-29,-42,-26
0,-4,-1,-3,-1,3,6,-30,-23,-29,-42,-26
0,-4,-1,-3,-1,3,6,-30,-23,-29,-42,-26
0,-4,-1,-3,-1,3,6,-30,-23,-35,-42,-26
0,-4,-1,-3,-1,3,6,-30,-23,-35,-42,-26
0,-4,-1,-3,-1,3,6,-30,-23,-35,-42,-26
0,-4,-1,-3,-1,3,6,-30,-23,-35,-42,-26
0,-4,-1,-3,-1,3,6,-30,-23,-35,-42,-26
0,-4,-1,-3,-1,3,6,-30,-23,-35,-42,-26
0,-4,-1,-3,-1,3,6,-30,-23,-35,-42,-26
0,-4,-1,-3,-1,3,6,-30,-23,-35,-42,-26
0,-4,-1,-3,-1,3,6,-30,-23,-35,-42,-26
0,-4,-1,-3,-1,3,6,-30,-23,-35,-42,-26
0,-4,-1,-3,-1,3,0,-36,-23,-35,-42,-26
0,-4,-1,-3,-1,3,-5,-36,-23,-35,-42,-26
0,-4,-1,-3,-1,3,-5,-36,-23,-35,-42,-26
0,-4,-1,-3,-1,3,-5,-36,-23,-35,-42,-26
0,-4,-1,-3,-1,3,-5,-36,-23,-35,-42,-26
0,-4,-1,-3,-1,3,-5,-36,-23,-35,-42,-26
0,-4,-1,-3,-1,3,-5,-36,-23,-35,-42,-26
0,-4,-1,-3,-1,3,-5,-36,-23,-35,-42,-26
0,-4,-1,-3,-1,3,-5,-36,-23,-35,-42,-26
0,-4,-1,-3,5,3,-5,-36,-23,-35,-42,-26
0,-4,-1,-3,11,3,-5,-36,-23,-35,-42,-26
0,-4,-1,-3,11,3,-5,-36,-23,-35,-42,-26
0,-4,-1,-3,11,3,-5,-36,-23,-35,-42,-26
0,-4,-1,-3,11,3,-5,-36,-23,-35,-42,-26
0,-4,-1,-3,11,3,-5,-36,-23,-35,-42,-26
0,-4,-1,-3,11,3,-5,-36,-23,-35,-42,-26
6,-4,-1,-3,11,3,-5,-36,-23,-35,-42,-26
6,-4,-1,-3,11,3,-5,-36,-23,-35,-42,-26
6,-4,-1,-3,11,3,-5,-36,-23,-35,-42,-26
6,-4,-1,-3,11,3,-5,-36,-23,-35,-42,-26
6,-4,-1,-3,11,3,-5,-36,-23,-35,-42,-26
6,-4,-1,-3,11,3,-5,-36,-23,-35,-42,-26
6,-4,-1,-3,11,3,-5,-36,-23,-35,-42,-26
6,-4,-1,-3,11,3,-5,-42,-23,-35,-42,-26
6,-4,-1,-3,11,3,-5,-42,-23,-35,-42,-26
6,-4,-1,-3,11,3,-5,-42,-23,-35,-42,-26
6,-4,-1,-3,11,3,-5,-42,-23,-35,-42,-26
6,-4,-1,-3,11,3,-5,-42,-23,-35,-42,-26
6,-4,-1,-3,11,3,-5,-42,-23,-35,-42,-26
6,-4,-1,-3,11,3,-5,-48,-23,-35,-42,-26
6,-10,-1,-3,11,3,-5,-54,-23,-35,-42,-26
6,-10,-1,-3,11,3,-5,-54,-23,-35,-42,-26
6,-10,-1,-3,11,3,-5,-54,-23,-35,-42,-26
6,-10,-1,-3,11,3,-5,-54,-23,-35,-42,-26
6,-10,-1,-3,11,3,-5,-54,-23,-35,-48,-26
6,-10,-1,-3,11,3,-5,-54,-23,-35,-48,-26
0,-10,-1,-3,11,3,-5,-54,-23,-35,-54,-26
0,-10,-1,-3,5,3,-5,-54,-23,-35,-54,-26
0,-10,-1,-3,5,3,-5,-54,-23,-35,-54,-26
0,-10,-1,-3,5,3,-5,-54,-23,-35,-54,-26
0,-10,-1,-3,5,3,-11,-54,-23,-35,-54,-26
0,-10,-1,-3,5,3,-11,-54,-23,-35,-54,-26
0,-10,-1,-3,5,3,-11,-54,-23,-35,-54,-26
0,-10,-1,-3,5,3,-11,-54,-23,-35,-54,-26
0,-10,-1,-3,5,3,-11,-54,-23,-35,-54,-26
0,-10,-1,-3,5,3,-11,-54,-29,-35,-54,-26
0,-10,-1,-3,5,3,-11,-54,-29,-35,-54,-26
0,-10,-1,-3,5,3,-11,-54,-29,-35,-54,-26
0,-10,-1,-3,5,3,-11,-54,-29,-35,-54,-26
0,-4,-1,-3,5,3,-17,-54,-29,-35,-54,-26
0,1,-1,-3,5,3,-17,-54,-29,-35,-54,-26
0,1,-1,-3,5,3,-17,-54,-29,-35,-54,-26
0,1,-1,3,5,3,-17,-54,-29,-35,-54,-26
0,-4,-1,3,5,3,-17,-54,-29,-35,-54,-26
0,-4,-1,3,5,3,-17,-54,-29,-35,-54,-26
0,-4,-1,3,5,3,-17,-54,-29,-35,-54,-26
0,-4,-1,3,5,3,-17,-54,-29,-35,-54,-26
0,-4,-1,3,5,3,-17,-54,-35,-35,-54,-26
0,-4,-1,3,5,3,-17,-54,-35,-35,-54,-26
0,-4,-1,3,5,3,-17,-60,-35,-35,-54,-26
0,-4,-1,3,5,3,-17,-60,-35,-35,-54,-26
0,-4,-1,3,5,3,-17,-66,-35,-35,-54,-26
0,-4,-1,3,5,3,-17,-66,-35,-35,-54,-26
0,-4,-1,3,5,3,-17,-66,-35,-35,-54,-26
0,-4,-1,3,5,3,-17,-66,-35,-35,-54,-26
0,-4,-1,3,5,9,-17,-66,-35,-35,-54,-26
0,1,-1,-3,5,9,-17,-66,-35,-35,-54,-26
0,13,4,-3,5,15,-17,-66,-35,-35,-54,-26
0,25,16,-8,-1,21,-17,-66,-35,-35,-48,-26
0,37,34,-14,-7,33,-11,-60,-29,-29,-42,-20
0,49,52,-20,-18,45,-5,-54,-23,-23,-36,-14
0,61,64,-26,-24,57,-5,-54,-17,-17,-30,-8
6,67,70,-32,-24,69,-5,-54,-11,-17,-24,-2
6,79,76,-38,-24,81,-5,-48,-5,-11,-18,4
6,85,82,-44,-24,93,-5,-48,1,1,-12,9
6,91,82,-50,-24,99,-5,-48,1,6,-6,15
6,97,82,-50,-24,105,-5,-48,1,6,0,15
6,109,88,-56,-24,111,-5,-48,1,12,0,15
6,115,94,-62,-30,117,-5,-48,1,12,0,15
6,121,100,-62,-36,117,-5,-48,1,12,0,15
12,133,106,-68,-36,123,-5,-48,1,12,0,15
18,145,112,-74,-36,123,-11,-48,1,12,5,21
18,151,118,-80,-36,129,-17,-54,1,12,11,27
18,157,130,-86,-42,147,-23,-60,1,12,17,39
18,169,154,-92,-54,177,-29,-66,6,18,23,51
18,181,166,-98,-66,201,-35,-72,6,24,29,63
18,187,172,-104,-66,207,-47,-72,6,30,35,69
18,193,184,-104,-78,207,-59,-78,6,36,41,75
6,199,196,-104,-90,213,-65,-84,12,42,47,81
6,211,202,-110,-96,213,-71,-90,12,48,53,81
18,235,202,-122,-96,219,-71,-90,18,54,65,87
30,247,202,-134,-96,225,-71,-90,24,60,77,93
30,253,208,-134,-96,231,-71,-90,24,60,83,99
30,253,208,-134,-96,231,-71,-90,24,60,83,99
30,253,208,-134,-96,231,-71,-90,24,60,83,99
36,253,208,-134,-90,231,-77,-90,24,60,83,99
42,247,196,-134,-78,225,-77,-90,24,60,83,99
48,241,184,-134,-72,219,-83,-96,24,60,83,99
54,235,172,-134,-60,207,-89,-102,24,60,83,99
54,229,148,-134,-54,189,-95,-108,24,54,83,99
54,211,136,-128,-48,171,-95,-108,18,48,83,99
54,181,130,-116,-42,153,-95,-108,12,36,83,99
48,157,118,-104,-42,141,-95,-108,6,30,83,99
42,145,112,-98,-42,135,-95,-108,1,24,77,99
36,121,106,-86,-36,123,-95,-108,1,18,71,93
30,79,82,-62,-30,87,-89,-108,-5,12,59,81
24,43,40,-50,-18,51,-83,-108,-11,6,47,69
18,25,22,-38,-12,33,-71,-108,-11,1,35,57
12,19,10,-26,-7,21,-65,-108,-11,-5,23,45
12,13,-1,-20,-1,9,-59,-108,-11,-11,11,33
6,1,-7,-8,5,-2,-59,-108,-17,-23,0,21
0,-16,-13,3,5,-14,-59,-108,-23,-29,-6,15
-6,-28,-13,9,5,-20,-53,-108,-29,-35,-12,9
-6,-40,-19,15,11,-26,-47,-108,-35,-41,-18,9
-6,-52,-31,15,17,-38,-47,-108,-35,-47,-24,4
-6,-58,-37,21,23,-44,-47,-108,-41,-53,-30,-2
-11,-64,-37,27,23,-44,-47,-108,-47,-53,-36,-8
-17,-70,-37,33,17,-44,-41,-102,-47,-53,-36,-8
-23,-70,-37,39,17,-44,-41,-102,-47,-53,-36,-8
-23,-70,-43,39,17,-50,-35,-102,-47,-53,-36,-8
-17,-70,-49,39,17,-50,-29,-96,-47,-53,-36,-8
-11,-64,-49,39,17,-50,-23,-84,-41,-41,-30,-8
-11,-64,-49,39,17,-50,-17,-66,-11,-23,-24,-8
-6,-64,-49,39,17,-50,-5,-36,24,12,-12,-2
-6,-64,-49,39,23,-50,6,-6,66,48,11,4
-6,-64,-49,39,23,-50,18,29,108,78,35,9
0,-64,-61,39,35,-56,30,71,144,108,47,15
12,-70,-103,33,59,-74,42,107,186,132,59,27
18,-82,-127,33,71,-92,48,137,216,162,71,33
24,-94,-151,33,83,-116,60,167,246,186,89,45
42,-106,-181,33,107,-140,66,191,276,210,107,51
66,-112,-205,33,125,-158,72,221,306,240,137,63
72,-124,-217,33,137,-170,78,251,348,276,167,75
78,-124,-223,33,149,-176,84,293,396,318,191,93
90,-124,-223,21,161,-176,96,347,444,366,221,117
96,-112,-223,9,161,-170,108,389,516,432,257,129
102,-106,-223,3,161,-170,150,455,588,492,275,141
108,-100,-223,-3,161,-170,228,587,672,546,287,147
114,-100,-229,-3,173,-170,312,749,780,594,299,147
126,-118,-277,-3,203,-206,396,953,918,678,329,147
150,-160,-349,-3,245,-260,450,1121,1128,852,395,159
204,-190,-421,-3,311,-302,462,1247,1404,1146,575,219
282,-196,-499,-14,377,-338,450,1301,1692,1470,785,333
348,-196,-541,-50,443,-356,354,1295,1920,1794,1001,459
402,-184,-559,-98,479,-356,222,1175,2093,2111,1247,615
492,-88,-565,-200,521,-338,78,1007,2309,2464,1529,789
606,19,-565,-308,575,-296,-83,833,2482,2788,1787,963
660,145,-553,-398,593,-212,-275,551,2512,2986,2009,1137
678,247,-469,-440,587,-110,-455,167,2446,3016,2158,1287
684,277,-439,-464,581,-92,-581,-192,2081,2890,2164,1329
684,229,-469,-458,581,-128,-617,-492,1458,2315,1985,1305
666,25,-577,-344,593,-284,-647,-828,528,1380,1517,1083
546,-154,-649,-194,593,-404,-653,-1188,-521,258,929,807
426,-328,-691,-38,581,-512,-647,-1374,-1235,-605,353,495
318,-466,-721,81,557,-590,-551,-1362,-1385,-971,-36,225
222,-490,-715,129,491,-590,-431,-1146,-1271,-971,-168,93
162,-490,-649,147,407,-578,-353,-906,-1007,-851,-180,45
120,-490,-619,165,377,-566,-287,-666,-779,-737,-198,-26
90,-490,-601,189,353,-560,-221,-438,-587,-653,-252,-128
60,-490,-553,201,311,-530,-149,-276,-449,-569,-282,-188
30,-478,-481,207,263,-488,-119,-198,-359,-497,-288,-224
18,-448,-433,207,221,-446,-101,-162,-311,-443,-288,-236
12,-418,-391,207,203,-410,-71,-144,-281,-413,-288,-236
6,-382,-349,201,179,-368,-59,-132,-263,-383,-282,-230
0,-346,-319,195,167,-332,-47,-114,-233,-347,-270,-224
-6,-322,-295,183,155,-302,-35,-96,-209,-317,-258,-218
-6,-286,-265,171,143,-272,-29,-84,-197,-287,-246,-206
-6,-256,-235,153,119,-242,-23,-78,-185,-269,-234,-194
-11,-232,-205,141,101,-212,-17,-78,-173,-257,-222,-182
-17,-202,-175,129,89,-194,-11,-78,-167,-245,-210,-170
-23,-190,-157,123,77,-182,-5,-78,-155,-233,-198,-164
-23,-178,-145,117,65,-170,0,-78,-149,-221,-186,-158
-23,-166,-133,111,59,-158,0,-78,-143,-215,-180,-152
-23,-160,-121,105,53,-152,0,-78,-137,-209,-174,-152
-29,-160,-109,105,47,-140,0,-78,-137,-203,-168,-152
-35,-160,-103,105,41,-134,6,-72,-131,-191,-162,-152
-41,-160,-97,105,35,-134,6,-66,-125,-185,-162,-152
-41,-160,-97,105,35,-134,6,-66,-125,-185,-162,-146
-41,-148,-97,105,35,-128,6,-66,-125,-185,-162,-146
-41,-142,-91,105,29,-122,6,-66,-125,-185,-162,-146
-41,-142,-91,105,29,-122,6,-66,-125,-185,-162,-146
-41,-136,-91,99,29,-116,6,-66,-125,-185,-162,-146
-41,-130,-85,99,29,-110,12,-66,-119,-179,-156,-140
-41,-130,-79,99,29,-110,12,-66,-119,-173,-156,-140
-41,-130,-79,99,29,-104,12,-66,-119,-167,-156,-140
-41,-130,-79,99,23,-104,12,-60,-113,-167,-150,-140
-41,-124,-79,93,23,-104,12,-60,-107,-167,-150,-140
-41,-118,-79,93,23,-98,12,-60,-107,-161,-150,-140
-47,-118,-79,93,17,-98,12,-60,-107,-161,-150,-140
-47,-118,-79,93,17,-98,12,-60,-107,-161,-144,-140
-47,-112,-73,87,17,-98,18,-54,-101,-155,-138,-134
-47,-112,-67,87,17,-98,18,-54,-101,-155,-138,-134
-47,-112,-61,87,17,-98,18,-54,-101,-155,-138,-134
-47,-112,-61,81,17,-92,24,-54,-95,-149,-138,-134
-47,-106,-55,81,17,-86,30,-48,-95,-143,-138,-128
-47,-106,-55,81,17,-86,30,-42,-95,-143,-138,-128
-47,-106,-55,81,17,-80,30,-42,-95,-143,-138,-128
-47,-106,-49,81,11,-80,30,-42,-89,-143,-138,-128
-47,-106,-49,81,5,-80,30,-42,-83,-143,-138,-128
-47,-100,-49,81,5,-80,30,-42,-83,-143,-138,-128
-47,-100,-49,81,5,-80,30,-42,-83,-143,-138,-128
-47,-100,-49,81,5,-74,30,-36,-83,-143,-138,-128
-47,-94,-43,75,5,-68,36,-30,-77,-137,-138,-128
-47,-94,-37,75,-1,-68,42,-30,-71,-131,-138,-128
-47,-94,-37,75,-1,-68,42,-30,-71,-131,-138,-128
-47,-94,-37,75,-1,-68,42,-30,-71,-131,-138,-128
-47,-94,-37,75,-1,-68,42,-30,-71,-131,-138,-128
-47,-94,-37,75,-1,-68,42,-30,-71,-131,-138,-128
-47,-88,-37,75,-1,-62,42,-30,-71,-131,-138,-128
-47,-82,-37,69,-1,-62,42,-24,-71,-131,-138,-128
-47,-82,-37,69,-1,-62,42,-24,-71,-131,-138,-128
-47,-82,-37,69,-1,-62,42,-24,-71,-131,-138,-128
-47,-82,-37,69,-1,-56,42,-24,-71,-131,-138,-128
-47,-82,-31,69,-1,-50,42,-18,-71,-131,-138,-128
-47,-82,-31,69,-1,-50,42,-18,-71,-131,-138,-128
-47,-76,-31,69,-1,-50,42,-18,-71,-131,-138,-128
-47,-70,-25,69,-7,-44,42,-18,-71,-131,-138,-128
-47,-64,-25,63,-7,-44,42,-12,-71,-131,-138,-128
-47,-64,-19,63,-12,-38,42,-12,-65,-131,-138,-128
-53,-58,-7,63,-24,-32,42,-12,-59,-131,-138,-128
-59,-58,4,63,-30,-26,48,-6,-59,-131,-138,-122
-59,-52,4,63,-30,-26,48,-6,-59,-131,-138,-122
-59,-46,4,57,-30,-26,48,-6,-59,-131,-138,-122
-59,-40,4,57,-30,-20,48,-1,-59,-131,-138,-122
-59,-34,4,57,-30,-20,48,5,-59,-125,-138,-116
-59,-34,4,57,-30,-20,48,5,-59,-125,-138,-116
-59,-34,10,57,-30,-14,48,5,-59,-125,-138,-116
-59,-34,16,57,-36,-14,48,5,-59,-125,-138,-116
-59,-34,16,57,-42,-14,48,5,-59,-125,-138,-116
-59,-34,22,57,-48,-14,48,5,-59,-125,-138,-116
-59,-28,28,51,-48,-8,48,5,-59,-125,-138,-116
-59,-16,34,45,-48,3,54,11,-59,-125,-138,-116
-59,-10,40,39,-48,9,54,17,-59,-125,-138,-116
-59,-10,40,39,-48,9,54,17,-59,-125,-138,-116
-59,-10,40,39,-48,9,54,23,-59,-125,-138,-116
-59,-10,46,39,-48,9,54,29,-59,-125,-138,-116
-59,-10,46,39,-48,15,54,35,-59,-125,-138,-116
-59,-10,52,39,-48,21,60,35,-59,-125,-138,-116
-59,-4,64,39,-54,27,66,41,-59,-125,-138,-110
-59,1,70,39,-60,33,72,47,-59,-125,-138,-110
-59,1,70,39,-60,33,72,47,-59,-131,-138,-110
-59,1,70,33,-60,33,72,47,-59,-137,-144,-110
-59,7,76,27,-66,39,78,53,-59,-137,-144,-110
-59,13,82,27,-66,45,84,65,-59,-143,-150,-110
-65,13,88,27,-72,51,84,71,-59,-149,-156,-110
-65,19,100,27,-78,57,84,77,-59,-155,-162,-110
-65,25,106,21,-78,63,90,83,-59,-155,-162,-110
-65,31,112,21,-84,69,96,89,-59,-161,-162,-110
-65,37,118,21,-90,75,96,95,-65,-167,-162,-110
-65,43,124,21,-96,81,102,101,-65,-167,-168,-110
-65,49,130,21,-102,87,102,107,-65,-173,-174,-110
-71,55,136,21,-108,93,108,113,-71,-179,-174,-110
-77,61,142,21,-114,99,120,119,-71,-191,-180,-110
-77,67,148,21,-114,105,132,131,-71,-203,-186,-110
-77,73,154,15,-114,111,138,137,-71,-209,-192,-110
-77,73,160,15,-120,117,144,143,-77,-215,-204,-110
-83,73,166,15,-126,117,150,149,-83,-221,-210,-110
-83,79,172,15,-132,123,150,149,-83,-227,-216,-110
-89,79,178,15,-138,123,156,155,-89,-233,-222,-110
-95,79,184,15,-144,123,156,161,-95,-245,-228,-116
-101,79,190,15,-150,129,162,167,-95,-251,-234,-122
-101,85,202,15,-150,135,168,173,-95,-257,-240,-122
-101,85,208,15,-156,141,174,179,-101,-263,-246,-128
-101,85,208,15,-156,141,180,179,-107,-269,-252,-134
-101,85,208,15,-156,141,186,185,-113,-275,-258,-134
-101,85,208,15,-156,141,192,191,-113,-281,-264,-134
-101,85,208,15,-156,141,198,197,-113,-287,-270,-134
-101,91,208,15,-156,141,204,203,-113,-293,-276,-140
-101,91,208,15,-156,141,210,209,-113,-299,-282,-140
-101,91,208,15,-156,141,216,215,-113,-299,-288,-146
-101,91,208,15,-156,141,216,221,-113,-299,-294,-146
-101,91,208,15,-156,141,222,227,-113,-299,-294,-152
-101,91,208,15,-156,141,222,233,-113,-299,-300,-152
-107,91,214,15,-162,141,222,245,-113,-299,-300,-152
-113,91,214,15,-168,141,228,263,-107,-299,-300,-152
-113,91,214,15,-168,141,234,275,-101,-299,-300,-152
-113,91,208,15,-168,141,234,281,-95,-299,-300,-152
-113,91,202,15,-162,141,240,287,-89,-299,-300,-152
-113,91,202,15,-162,141,246,293,-83,-299,-300,-152
-113,91,196,15,-156,141,246,299,-71,-299,-300,-152
-107,91,190,15,-150,135,246,305,-59,-287,-300,-152
-101,91,184,15,-144,129,246,311,-47,-275,-300,-152
-101,85,178,15,-138,123,246,317,-35,-263,-294,-152
-101,79,178,15,-138,117,246,323,-29,-251,-282,-152
-101,73,172,15,-132,117,246,323,-17,-239,-270,-152
-95,73,160,15,-126,111,246,323,-5,-227,-258,-152
-89,67,148,15,-120,105,246,323,6,-203,-246,-146
-83,67,142,9,-114,99,240,323,18,-191,-234,-140
-71,67,136,3,-108,99,234,317,30,-167,-222,-134
-65,67,130,3,-102,99,228,311,36,-155,-210,-128
-59,67,124,3,-96,99,216,305,42,-143,-192,-122
-53,67,118,3,-90,93,204,293,48,-119,-174,-116
-53,67,112,3,-84,87,192,281,54,-89,-156,-104
-53,67,112,3,-84,87,186,269,54,-77,-132,-92
-47,67,106,-3,-78,87,180,257,60,-65,-120,-80
-35,67,100,-8,-72,87,168,227,66,-53,-108,-74
-29,61,94,-8,-66,81,144,209,66,-41,-96,-68
-29,49,88,-8,-66,69,132,179,66,-29,-90,-62
-29,49,82,-8,-60,69,120,167,66,-17,-78,-56
-23,49,82,-8,-54,69,108,155,66,-11,-66,-50
-23,49,76,-8,-54,63,96,137,66,-5,-60,-50
-23,49,76,-8,-54,57,84,125,66,1,-54,-44
-17,49,70,-14,-54,57,78,113,66,12,-42,-38
-17,49,64,-14,-48,57,72,101,66,18,-30,-32
-17,49,64,-14,-42,57,60,89,60,24,-24,-26
-17,43,64,-14,-42,57,54,77,60,24,-18,-26
-17,43,64,-14,-42,57,48,65,60,30,-12,-26
-17,43,64,-14,-42,57,42,59,60,36,-6,-26
-17,43,64,-14,-42,51,36,47,60,36,0,-26
-17,43,58,-14,-36,45,30,35,54,36,0,-26
-17,43,52,-14,-30,39,24,23,48,36,0,-26
-11,43,46,-14,-24,39,24,17,42,36,0,-26
-6,43,40,-14,-24,39,24,11,42,36,0,-26
-6,37,34,-14,-24,33,18,5,36,36,0,-26
-6,31,34,-14,-24,27,12,-1,30,36,0,-26
-6,31,34,-14,-24,27,12,-1,24,36,0,-26
-6,31,34,-14,-24,27,12,-1,24,36,0,-26
-6,31,28,-14,-24,21,12,-6,24,36,0,-26
-6,31,22,-14,-18,21,6,-12,24,36,0,-26
-6,31,16,-14,-12,21,0,-18,24,36,0,-26
-6,25,16,-8,-12,15,-5,-18,18,36,0,-26
-6,19,16,-3,-12,15,-5,-18,12,36,0,-26
-6,13,16,-3,-12,15,-5,-18,6,30,0,-26
-6,13,16,-3,-12,15,-5,-24,6,24,0,-26
-6,13,16,-3,-12,15,-5,-24,6,24,0,-26
-6,13,16,-3,-12,15,-5,-24,6,24,0,-26
-6,13,16,-3,-12,15,-5,-24,6,24,0,-26
-6,13,16,-3,-12,15,-5,-24,6,24,0,-26
-6,13,10,-3,-7,15,-5,-24,6,24,0,-26
-6,13,10,-3,-7,15,-5,-24,6,18,0,-26
-6,13,10,-3,-7,15,-5,-30,1,18,0,-26
-6,13,10,-3,-7,15,-5,-30,1,18,0,-26
-6,13,10,-3,-7,15,-5,-30,1,18,0,-26
-6,13,10,-3,-7,15,-11,-30,1,18,0,-26
-6,13,10,-3,-7,15,-17,-30,1,12,0,-26
-6,13,10,-3,-7,15,-17,-30,1,12,0,-26
-6,13,10,-3,-7,15,-17,-30,1,12,0,-26
-6,13,10,-3,-7,15,-17,-30,1,12,0,-26
-6,13,10,-3,-7,15,-17,-30,-5,12,0,-26
-6,13,10,-3,-7,15,-17,-30,-5,12,0,-26
-6,13,10,-3,-7,9,-17,-36,-5,12,0,-26
-6,13,10,-3,-7,9,-17,-36,-5,12,0,-26
-6,13,10,-3,-7,9,-17,-36,-5,12,0,-26
-6,13,10,-3,-7,9,-17,-36,-5,12,0,-26
-6,13,10,-3,-7,9,-17,-36,-5,12,0,-26
-6,13,10,-3,-7,9,-17,-36,-5,6,0,-26
-6,13,10,-3,-7,9,-17,-36,-5,6,0,-26
-6,13,10,-3,-7,9,-17,-36,-5,6,0,-26
-6,13,10,-3,-7,9,-17,-36,-5,6,0,-26
-6,13,10,-3,-7,9,-17,-36,-5,6,0,-26
-6,13,10,-3,-7,9,-17,-36,-5,6,0,-26
-6,13,10,-3,-7,9,-17,-36,-11,1,0,-26
-6,13,10,-3,-7,9,-17,-36,-17,1,0,-26
-6,13,10,-3,-7,9,-17,-36,-17,1,0,-26
-6,13,10,-3,-7,9,-17,-36,-17,1,0,-26
-6,13,10,-3,-7,9,-17,-36,-17,1,0,-26
-6,13,10,-3,-7,9,-17,-36,-17,1,0,-26
-6,13,10,-3,-7,9,-17,-36,-17,1,0,-26
-6,19,10,-3,-7,9,-17,-36,-17,1,0,-26
-6,19,10,-3,-7,9,-17,-36,-17,1,0,-26
-6,19,10,-3,-7,9,-23,-42,-17,1,0,-26
-6,19,10,-3,-7,9,-23,-42,-17,1,0,-26
-6,19,10,-3,-7,9,-23,-42,-17,1,0,-26
-6,19,10,-3,-7,9,-23,-42,-17,1,0,-26
-6,19,10,-3,-7,9,-23,-42,-17,1,0,-26
-6,19,10,-3,-7,9,-23,-42,-17,1,0,-26
-6,19,10,-3,-7,9,-23,-42,-17,1,0,-26
-6,19,10,-3,-7,9,-23,-42,-17,1,0,-26
-6,19,10,-3,-7,15,-23,-42,-17,1,0,-26
-6,19,16,-3,-12,15,-23,-42,-17,1,0,-26
-6,19,16,-3,-12,15,-23,-42,-17,-5,0,-26
-6,19,16,-3,-12,15,-23,-42,-17,-5,0,-26
-6,19,16,-3,-12,15,-23,-42,-17,-5,0,-26
-6,19,16,-3,-12,15,-23,-42,-17,-5,0,-26
-6,19,16,-3,-12,15,-23,-42,-17,-5,0,-26
-6,19,16,-3,-12,15,-23,-42,-17,-5,0,-26
-6,19,16,-3,-12,15,-23,-42,-17,-5,0,-26
-6,19,16,-3,-12,15,-23,-42,-17,-5,0,-26
-6,19,22,3,-18,15,-23,-42,-17,-5,0,-26
-6,19,22,3,-18,15,-23,-42,-17,-5,0,-26
-6,19,22,3,-18,15,-29,-42,-17,-5,0,-26
-6,19,22,3,-18,15,-29,-42,-17,-5,0,-26
-11,19,28,3,-24,15,-29,-42,-17,-5,0,-26
-11,19,28,3,-24,15,-29,-42,-17,-5,0,-26
-11,19,28,3,-24,15,-35,-42,-17,-5,0,-26
-6,19,28,-3,-24,15,-35,-42,-17,-5,0,-26
-6,19,22,-3,-24,15,-35,-42,-17,-5,0,-26
-6,19,22,-3,-24,15,-35,-42,-17,-5,0,-26
-11,19,28,-3,-30,15,-35,-42,-17,-5,0,-26
-11,19,28,-3,-30,15,-35,-42,-17,-5,0,-26
-6,19,22,-8,-18,15,-35,-42,-17,-5,0,-26
-6,19,22,-8,-18,15,-35,-42,-17,-5,0,-26
-11,19,28,-8,-24,15,-35,-42,-17,-5,0,-26
-17,19,28,-8,-30,15,-35,-42,-17,-5,0,-26
-17,19,28,-8,-30,15,-35,-42,-17,-11,0,-26
-17,19,28,-8,-30,15,-35,-42,-17,-11,0,-26
-11,19,28,-8,-24,15,-35,-42,-17,-11,0,-26
-6,19,28,-8,-18,15,-35,-42,-17,-11,0,-26
-6,19,28,-8,-18,15,-35,-42,-17,-11,-6,-26
-6,19,28,-8,-18,15,-35,-42,-17,-11,-6,-26
-6,19,28,-8,-18,15,-35,-42,-17,-11,-6,-26
-6,19,28,-8,-18,15,-35,-42,-17,-11,-6,-26
-6,19,28,-8,-18,15,-35,-42,-17,-11,-6,-26
-6,19,28,-8,-18,15,-35,-42,-17,-11,-6,-26
-11,19,28,-8,-18,15,-41,-42,-23,-17,-6,-26
-11,19,28,-8,-18,15,-41,-42,-29,-17,-6,-26
-11,19,28,-8,-18,15,-41,-42,-29,-17,-6,-26
-11,19,28,-8,-18,15,-41,-42,-29,-17,-6,-26
-11,19,28,-8,-18,15,-41,-42,-29,-17,-6,-26
-11,19,28,-8,-18,15,-41,-48,-29,-17,-6,-26
-11,19,28,-8,-18,15,-41,-48,-29,-17,-6,-26
-11,19,28,-8,-18,15,-41,-48,-29,-17,-6,-26
-11,19,28,-8,-18,15,-41,-48,-29,-17,-6,-26
-11,19,28,-8,-18,15,-41,-48,-29,-17,-6,-26
-11,19,28,-8,-18,15,-41,-48,-29,-17,-6,-26
-11,19,28,-8,-18,15,-41,-48,-29,-17,-6,-26
-11,19,28,-8,-18,15,-41,-48,-29,-17,-6,-26
-11,19,28,-8,-24,15,-41,-48,-29,-17,-6,-26
-11,19,28,-8,-24,15,-41,-54,-29,-17,-6,-26
-11,19,28,-8,-24,15,-41,-60,-35,-23,-12,-26
-11,19,28,-8,-24,15,-41,-60,-35,-23,-12,-26
-11,19,28,-8,-24,15,-41,-60,-35,-23,-12,-26
-11,19,28,-8,-24,15,-41,-60,-35,-23,-12,-26
-11,19,28,-8,-24,15,-47,-60,-41,-23,-12,-26
-11,19,28,-8,-24,15,-47,-60,-41,-23,-12,-26
-11,19,28,-8,-24,15,-47,-60,-41,-23,-12,-26
-17,19,34,-8,-24,15,-47,-60,-41,-23,-12,-26
-17,19,34,-8,-24,21,-47,-60,-41,-23,-12,-26
-17,19,34,-8,-24,21,-47,-60,-41,-23,-12,-26
-17,19,34,-8,-24,21,-47,-60,-47,-23,-12,-26
-17,19,34,-8,-24,21,-47,-60,-47,-23,-12,-26
-17,19,34,-8,-24,21,-47,-60,-47,-23,-12,-26
-17,19,34,-3,-24,21,-47,-60,-47,-23,-12,-26
-17,19,34,-3,-24,21,-53,-60,-47,-23,-12,-26
-17,19,34,-3,-24,21,-53,-60,-47,-29,-12,-26
-17,19,34,-3,-24,21,-53,-60,-47,-29,-12,-26
-17,19,34,-3,-24,21,-53,-60,-47,-29,-12,-26
-17,19,34,-3,-24,21,-53,-60,-53,-29,-18,-26
-17,19,34,-3,-24,21,-53,-60,-53,-29,-18,-26
-17,19,34,-3,-24,21,-53,-60,-53,-29,-18,-26
-17,19,34,-3,-18,21,-53,-60,-53,-29,-18,-26
-17,19,34,-3,-18,21,-53,-60,-53,-29,-18,-26
-17,19,34,-3,-18,21,-53,-60,-53,-29,-18,-26
-17,19,34,-3,-18,21,-53,-60,-53,-29,-18,-26
-17,19,34,-3,-18,21,-53,-60,-53,-29,-18,-26
-23,19,34,-3,-18,21,-53,-60,-53,-29,-18,-26
-23,19,34,-3,-18,21,-53,-66,-53,-29,-18,-26
-23,19,34,-3,-18,21,-53,-66,-53,-29,-18,-26
-23,25,34,-3,-18,27,-53,-66,-53,-29,-18,-26
-23,25,34,-3,-18,27,-53,-66,-53,-29,-18,-26
-23,25,34,-3,-24,27,-53,-66,-53,-29,-18,-26
-23,31,34,-8,-24,27,-53,-66,-53,-29,-18,-26
-17,37,34,-14,-24,33,-53,-66,-53,-29,-18,-26
-17,43,40,-20,-24,39,-53,-66,-53,-29,-18,-26
-17,55,52,-26,-30,51,-53,-66,-53,-23,-18,-26
-17,67,64,-32,-36,63,-53,-60,-47,-23,-18,-20
-17,79,76,-38,-36,75,-47,-60,-41,-17,-12,-14
-17,91,88,-44,-36,87,-47,-54,-35,-17,-6,-8
-17,97,94,-44,-42,93,-47,-48,-29,-11,-6,-8
-17,103,100,-44,-48,99,-47,-48,-29,-11,-6,-8
-17,109,106,-44,-54,105,-47,-48,-29,-5,-6,-8
-17,121,118,-50,-60,117,-41,-48,-29,1,0,-8
-17,133,130,-56,-66,129,-41,-48,-23,6,5,-2
-17,139,136,-62,-72,135,-41,-48,-23,12,11,4
-17,139,136,-68,-72,141,-41,-54,-23,12,11,4
-11,145,136,-74,-72,141,-41,-60,-23,12,17,4
-6,157,136,-80,-72,147,-41,-60,-23,12,17,9
0,169,142,-86,-72,159,-47,-60,-23,12,23,15
0,181,172,-92,-84,171,-53,-60,-23,18,29,21
0,193,190,-92,-90,183,-59,-66,-23,24,35,27
0,205,196,-104,-90,195,-65,-72,-23,24,41,33
0,217,202,-110,-90,207,-77,-72,-23,30,47,33
0,223,208,-116,-96,213,-89,-78,-23,36,53,39
0,229,214,-122,-96,219,-95,-84,-23,42,59,45
0,241,214,-128,-96,225,-101,-90,-23,42,59,51
0,247,220,-128,-102,237,-107,-90,-17,42,65,57
0,253,226,-128,-102,243,-107,-90,-17,48,71,69
6,259,226,-134,-102,249,-107,-90,-17,54,83,81
12,259,226,-134,-102,249,-113,-90,-17,54,89,93
12,259,226,-134,-102,249,-119,-90,-17,54,89,93
12,259,226,-134,-96,249,-119,-90,-17,54,89,93
18,259,220,-134,-90,249,-125,-90,-17,54,89,93
24,259,214,-134,-90,243,-125,-90,-17,54,89,93
24,247,202,-134,-90,231,-131,-96,-17,54,89,99
24,235,178,-134,-84,207,-137,-102,-17,48,89,99
30,223,148,-134,-72,195,-137,-108,-17,48,89,99
36,211,142,-134,-66,183,-137,-114,-23,42,83,99
42,199,136,-134,-60,171,-137,-114,-29,36,83,99
42,169,130,-122,-60,159,-137,-120,-35,30,77,93
30,139,130,-98,-60,147,-137,-120,-47,18,65,81
18,127,124,-80,-60,135,-137,-120,-53,6,53,69
12,115,118,-68,-60,123,-131,-120,-59,-5,41,45
6,103,106,-56,-60,105,-125,-120,-65,-17,29,33
6,91,94,-50,-60,93,-119,-120,-71,-23,23,27
0,85,88,-44,-60,87,-113,-120,-71,-29,17,21
0,79,76,-38,-54,81,-107,-120,-77,-35,11,15
0,73,64,-38,-48,75,-107,-120,-77,-41,0,4
0,61,58,-26,-48,69,-107,-120,-77,-41,-6,-2
-6,31,58,-14,-48,57,-107,-120,-83,-47,-12,-8
-11,19,52,-3,-48,45,-107,-120,-89,-53,-24,-20
-17,13,46,3,-42,33,-107,-120,-95,-59,-30,-32
-17,7,40,3,-36,27,-101,-120,-95,-59,-36,-38
-17,7,34,3,-36,27,-95,-120,-95,-59,-42,-44
-17,7,34,3,-36,27,-95,-120,-95,-65,-42,-44
-17,7,34,3,-36,27,-95,-120,-95,-65,-42,-44
-17,7,34,3,-36,27,-89,-114,-95,-65,-42,-44
-17,7,34,3,-36,27,-83,-102,-83,-53,-36,-44
-23,7,40,3,-36,27,-71,-78,-65,-29,-30,-38
-23,7,40,3,-36,27,-59,-48,-23,1,-18,-26
-17,7,40,3,-24,27,-47,-18,12,36,0,-20
-6,7,28,3,-12,21,-35,11,48,66,11,-14
0,1,10,3,-7,9,-17,53,90,96,35,-8
6,-10,-19,3,5,-8,-5,95,132,126,53,-2
12,-16,-55,3,35,-38,6,131,174,144,65,4
30,-28,-91,3,65,-62,18,161,204,168,77,9
42,-40,-109,3,77,-74,24,203,240,204,101,21
48,-46,-121,3,83,-80,36,245,282,246,131,51
54,-52,-133,3,89,-86,48,275,318,288,161,75
66,-52,-145,-3,107,-92,54,299,348,318,185,87
72,-52,-151,-8,119,-92,60,335,408,360,215,105
78,-52,-151,-14,125,-92,72,389,468,420,251,135
84,-46,-151,-20,125,-92,114,467,552,492,287,147
84,-40,-151,-26,125,-92,180,599,642,546,311,159
90,-40,-151,-26,125,-92,270,767,726,588,323,165
102,-52,-175,-26,137,-116,354,947,834,648,335,165
132,-76,-253,-26,179,-164,396,1091,996,774,371,165
174,-100,-331,-26,251,-212,402,1187,1212,990,497,189
252,-112,-397,-44,329,-248,378,1211,1482,1284,689,291
360,-112,-451,-104,407,-260,276,1211,1716,1596,899,405
420,-88,-475,-158,449,-260,150,1067,1920,1926,1145,555
480,-40,-481,-224,479,-254,0,869,2117,2255,1391,717
570,43,-487,-314,521,-242,-155,671,2315,2572,1643,873
642,163,-487,-404,557,-194,-335,407,2399,2812,1877,1053
696,295,-451,-494,557,-86,-515,65,2393,2902,2056,1221
708,349,-409,-530,557,-32,-647,-288,2141,2878,2098,1299
708,337,-415,-530,557,-44,-713,-612,1614,2464,2033,1299
696,163,-517,-452,575,-182,-749,-942,798,1692,1637,1137
618,-10,-571,-308,581,-296,-773,-1290,-239,636,1103,885
486,-196,-631,-146,575,-410,-773,-1530,-1115,-347,521,585
372,-358,-673,-14,563,-506,-719,-1542,-1451,-899,53,303
288,-400,-673,63,515,-524,-593,-1392,-1427,-959,-150,141
210,-406,-625,93,413,-518,-491,-1122,-1175,-911,-168,87
138,-406,-553,123,347,-500,-431,-858,-929,-785,-174,33
84,-412,-517,147,299,-488,-341,-594,-719,-683,-210,-56
48,-412,-457,153,251,-458,-251,-390,-545,-599,-240,-146
18,-394,-409,159,215,-410,-203,-276,-449,-521,-264,-200
6,-370,-367,165,185,-368,-173,-228,-389,-467,-276,-224
0,-340,-325,165,173,-332,-155,-198,-353,-425,-276,-230
-6,-304,-283,159,149,-290,-143,-174,-317,-383,-276,-230
-11,-268,-241,153,125,-248,-131,-156,-281,-347,-270,-224
-17,-238,-199,147,101,-212,-107,-126,-251,-311,-252,-212
-23,-214,-169,141,83,-182,-95,-108,-233,-287,-228,-200
-23,-184,-145,129,71,-164,-89,-102,-221,-275,-216,-194
-23,-160,-127,117,59,-146,-83,-102,-215,-263,-204,-182
-29,-148,-109,105,47,-134,-77,-102,-209,-251,-192,-176
-35,-130,-97,93,35,-116,-71,-102,-203,-245,-186,-170
-41,-118,-67,87,23,-92,-65,-102,-197,-233,-180,-164
-53,-112,-37,87,-1,-80,-59,-102,-191,-221,-174,-158
-53,-106,-25,87,-7,-68,-59,-102,-185,-215,-174,-152
-53,-100,-25,81,-7,-62,-59,-102,-179,-209,-174,-152
-53,-100,-19,81,-12,-56,-59,-96,-179,-203,-174,-152
-65,-100,-13,81,-18,-56,-53,-90,-173,-197,-168,-152
-71,-100,-7,81,-24,-50,-53,-90,-173,-197,-168,-152
-71,-94,-7,81,-24,-50,-53,-90,-173,-197,-168,-146
-71,-88,-7,81,-24,-50,-53,-84,-173,-197,-168,-146
-71,-82,-7,81,-24,-50,-53,-84,-173,-197,-168,-146
-71,-76,-7,81,-24,-50,-53,-84,-173,-197,-168,-146
-71,-70,-7,75,-24,-50,-53,-84,-173,-191,-168,-140
-71,-70,-1,75,-30,-44,-53,-78,-173,-185,-162,-140
-71,-70,4,75,-30,-38,-53,-78,-173,-179,-162,-140
-71,-70,4,75,-30,-32,-47,-78,-167,-173,-156,-140
-71,-64,4,69,-30,-32,-47,-72,-161,-173,-156,-140
-71,-58,10,63,-30,-26,-41,-72,-155,-167,-150,-140
-71,-52,10,57,-30,-20,-35,-66,-149,-161,-150,-134
-71,-46,16,51,-30,-20,-29,-66,-143,-161,-144,-134
-71,-46,16,51,-30,-20,-29,-66,-143,-161,-144,-134
-71,-46,16,51,-30,-20,-29,-66,-143,-161,-144,-134
-71,-46,16,51,-36,-20,-29,-66,-143,-161,-144,-134
-71,-46,16,51,-36,-20,-23,-66,-143,-155,-144,-134
-71,-46,16,51,-36,-14,-23,-60,-143,-155,-144,-134
-71,-46,22,51,-36,-14,-23,-60,-143,-155,-144,-134
-71,-46,22,51,-36,-14,-23,-60,-143,-155,-144,-134
-71,-46,22,51,-42,-14,-23,-54,-143,-155,-144,-134
-71,-46,22,51,-48,-14,-23,-48,-137,-155,-144,-134
-71,-46,22,51,-48,-14,-23,-48,-131,-155,-144,-134
-71,-46,22,51,-48,-14,-23,-48,-131,-155,-144,-134
-71,-46,22,51,-48,-14,-23,-48,-131,-149,-144,-134
-71,-46,22,51,-48,-14,-23,-42,-131,-149,-144,-134
-71,-46,22,51,-48,-14,-23,-42,-131,-149,-144,-134
-71,-46,28,51,-54,-8,-23,-42,-125,-143,-144,-128
-71,-46,40,51,-60,-2,-17,-36,-119,-137,-144,-122
-71,-46,40,51,-60,-2,-17,-36,-119,-137,-144,-122
-59,-46,34,45,-54,-2,-17,-36,-119,-137,-144,-122
-53,-40,34,39,-48,-2,-17,-36,-119,-137,-144,-122
-53,-34,34,39,-48,-2,-17,-36,-119,-137,-144,-122
-53,-34,34,39,-48,-2,-17,-36,-119,-137,-138,-122
-53,-34,34,39,-48,-2,-17,-36,-119,-137,-138,-122
-59,-34,40,39,-48,-2,-17,-36,-119,-137,-138,-122
-59,-34,40,39,-48,-2,-17,-36,-119,-137,-138,-122
-59,-28,40,39,-48,3,-17,-30,-119,-137,-138,-122
-59,-28,40,39,-48,3,-17,-24,-119,-137,-138,-122
-59,-28,40,39,-54,3,-17,-24,-119,-137,-138,-122
-59,-28,40,39,-54,3,-17,-24,-119,-137,-138,-122
-59,-22,46,39,-54,9,-17,-24,-119,-137,-138,-122
-65,-16,58,39,-66,15,-11,-18,-113,-137,-138,-116
-65,-10,64,39,-66,21,-11,-18,-113,-137,-138,-116
-65,-10,64,39,-66,21,-11,-18,-113,-137,-138,-116
-65,-10,64,39,-66,21,-11,-12,-113,-137,-138,-116
-65,-4,64,33,-66,27,-11,-12,-113,-137,-138,-116
-65,1,70,33,-66,33,-11,-12,-113,-137,-138,-116
-65,1,76,33,-66,39,-5,-12,-113,-137,-138,-110
-65,1,76,33,-66,39,-5,-6,-113,-137,-138,-110
-65,1,82,33,-72,39,-5,-6,-113,-137,-138,-110
-65,1,82,33,-78,39,-5,-1,-113,-137,-138,-110
-65,1,82,33,-78,39,-5,5,-113,-137,-138,-110
-65,1,88,33,-78,45,-5,11,-113,-137,-138,-110
-65,7,94,33,-78,45,0,17,-113,-137,-138,-110
-65,7,94,33,-78,45,0,17,-113,-137,-138,-110
-65,13,100,33,-78,51,0,23,-113,-137,-138,-110
-65,19,100,33,-84,51,0,23,-113,-137,-138,-110
-71,19,106,33,-90,57,6,23,-113,-137,-138,-110
-71,19,112,33,-96,63,12,29,-113,-137,-138,-110
-71,25,118,33,-96,69,18,35,-113,-143,-138,-110
-71,31,124,27,-96,81,24,41,-113,-143,-138,-110
-77,37,130,27,-102,87,24,47,-113,-143,-138,-110
-83,43,136,27,-108,93,30,53,-113,-149,-138,-110
-83,49,142,21,-108,99,30,59,-113,-155,-138,-110
-83,49,142,15,-108,99,30,59,-113,-155,-144,-110
-89,49,154,15,-120,105,30,65,-113,-155,-144,-110
-89,55,160,15,-126,111,36,65,-113,-161,-144,-110
-89,61,160,9,-126,111,42,65,-119,-167,-150,-110
-89,67,166,9,-126,117,48,71,-119,-173,-156,-110
-89,73,178,9,-132,123,60,77,-119,-179,-156,-110
-89,85,184,3,-132,135,72,89,-119,-185,-162,-110
-89,91,184,-3,-132,141,78,95,-119,-191,-168,-110
