,,,,,,,,,,,
2019-09-04 23:17:20,,,,,,,,,,,
,,,,,,,,,,,
I,II,III,aVR,aVL,aVF,V1,V2,V3,V4,V5,V6
-91,-131,-34,111,-23,-82,1,-1,-57,-28,15,-17
-91,-131,-34,111,-23,-82,1,-1,-57,-28,15,-17
-91,-131,-34,111,-23,-82,1,-1,-57,-28,15,-17
-91,-131,-34,111,-23,-82,1,-1,-57,-28,15,-17
-97,-137,-34,117,-29,-88,1,-1,-63,-34,9,-11
-97,-137,-34,117,-29,-88,1,-1,-63,-34,9,-11
-103,-143,-34,123,-29,-88,1,-1,-69,-40,3,-5
-103,-143,-34,123,-29,-88,1,-1,-69,-40,3,-5
-103,-143,-34,123,-29,-88,1,-1,-69,-40,9,-5
-103,-143,-34,123,-29,-88,1,-1,-69,-40,9,-5
-103,-143,-34,123,-29,-88,1,-1,-69,-40,15,-5
-103,-143,-34,123,-29,-88,1,-1,-69,-40,15,-5
-109,-143,-28,123,-35,-88,1,-1,-69,-40,9,-11
-109,-143,-28,123,-35,-88,1,-1,-69,-40,9,-11
-115,-143,-22,129,-41,-82,1,-1,-69,-40,3,-17
-115,-143,-22,129,-41,-82,1,-1,-69,-40,3,-17
-109,-137,-22,123,-41,-82,-5,-1,-69,-46,3,-17
-109,-137,-22,123,-41,-82,-5,-1,-69,-46,3,-17
-103,-131,-22,117,-35,-76,-11,-1,-69,-52,3,-17
-103,-131,-22,117,-35,-76,-11,-1,-69,-52,3,-17
-103,-131,-22,117,-35,-76,-5,5,-63,-46,9,-11
-103,-131,-22,117,-35,-76,-5,5,-63,-46,9,-11
-103,-131,-22,117,-35,-76,1,11,-57,-40,15,-5
-103,-131,-22,117,-35,-76,1,11,-57,-40,15,-5
-109,-131,-17,117,-41,-76,-5,5,-63,-40,15,-11
-109,-131,-17,117,-41,-76,-5,5,-63,-40,15,-11
-115,-131,-17,123,-47,-70,-11,-1,-69,-40,15,-17
-115,-131,-17,123,-47,-70,-11,-1,-69,-40,15,-17
-109,-131,-17,117,-41,-76,-11,-1,-69,-46,9,-17
-109,-131,-17,117,-41,-76,-11,-1,-69,-46,3,-17
-103,-131,-22,117,-35,-76,-11,-1,-69,-52,-3,-17
-103,-131,-22,117,-35,-76,-11,-1,-69,-52,-9,-17
-103,-131,-22,117,-35,-76,-11,-1,-69,-52,-3,-11
-103,-131,-22,117,-35,-76,-11,-1,-69,-52,-3,-11
-103,-131,-22,117,-35,-76,-11,-1,-69,-52,3,-5
-103,-131,-22,117,-35,-76,-11,-1,-69,-52,3,-5
-103,-137,-28,117,-35,-82,-11,-1,-69,-52,9,-5
-103,-137,-28,117,-35,-82,-11,-1,-69,-52,9,-5
-103,-143,-34,123,-29,-88,-11,-1,-69,-52,15,-5
-103,-143,-34,123,-29,-88,-11,-1,-69,-52,15,-5
-109,-137,-22,123,-41,-82,-5,-1,-63,-46,15,-11
-109,-137,-22,123,-41,-82,-5,-1,-63,-40,15,-11
-115,-131,-17,123,-47,-70,1,-1,-57,-34,15,-17
-115,-131,-17,123,-47,-70,1,-1,-57,-28,15,-17
-115,-137,-17,123,-47,-76,-5,-7,-63,-34,9,-17
-115,-137,-17,123,-47,-76,-5,-7,-63,-34,3,-17
-115,-143,-22,129,-41,-82,-11,-13,-69,-40,-3,-17
-115,-143,-22,129,-41,-82,-11,-13,-69,-40,-9,-17
-115,-143,-22,129,-41,-82,-11,-13,-69,-40,-9,-17
-115,-143,-22,129,-41,-82,-11,-13,-69,-40,-9,-17
-115,-143,-22,129,-41,-82,-11,-13,-69,-40,-9,-17
-115,-143,-22,129,-41,-82,-11,-13,-69,-40,-9,-17
-115,-143,-22,129,-41,-82,-5,-13,-69,-46,-15,-17
-115,-143,-22,129,-41,-82,-5,-13,-69,-46,-15,-17
-115,-143,-22,129,-41,-82,1,-13,-69,-52,-21,-17
-115,-143,-22,129,-41,-82,1,-13,-69,-52,-27,-23
-115,-143,-22,129,-41,-82,1,-13,-69,-52,-27,-17
-109,-143,-28,123,-35,-88,1,-13,-69,-52,-27,-11
-109,-143,-28,123,-35,-88,1,-13,-69,-52,-27,-5
-109,-143,-28,123,-35,-88,7,-13,-69,-52,-21,1
-109,-143,-28,123,-35,-88,1,-7,-63,-46,-9,1
-109,-143,-28,123,-35,-88,1,-7,-57,-40,-3,1
-109,-137,-22,123,-41,-82,-5,-1,-51,-34,3,1
-109,-131,-17,117,-41,-76,-5,-1,-45,-28,3,1
-103,-125,-17,111,-41,-70,1,-1,-51,-34,-3,-5
-103,-125,-17,111,-41,-70,1,5,-51,-34,-9,-5
-109,-125,-17,117,-47,-70,7,5,-57,-40,-15,-11
-103,-113,-17,105,-47,-58,7,11,-51,-40,-9,-5
-97,-107,-17,99,-41,-58,13,17,-39,-28,3,-5
-91,-101,-17,93,-41,-52,18,23,-33,-22,3,1
-85,-95,-17,87,-35,-52,18,40,-33,-10,3,7
-85,-77,1,81,-47,-34,36,40,-21,-4,15,12
-91,-65,19,75,-59,-29,48,46,-4,1,21,12
-85,-65,13,75,-53,-29,48,46,-4,1,21,12
-91,-65,19,75,-59,-29,54,46,-4,1,27,18
-91,-65,19,75,-59,-29,48,46,-4,1,27,18
-91,-77,7,81,-53,-29,36,40,-4,1,32,12
-85,-59,19,69,-53,-29,18,40,-4,1,32,12
-73,-53,13,63,-47,-29,18,40,-9,1,32,12
-61,-47,7,51,-35,-29,7,40,-4,7,32,24
-43,-42,1,39,-23,-23,-17,40,-4,13,38,30
-37,-30,13,33,-23,-11,-23,40,2,19,44,36
-31,-30,7,33,-17,-11,-35,46,2,19,44,48
-43,-24,25,33,-35,1,-35,40,2,19,44,48
-55,-24,37,33,-47,7,-23,40,-4,19,44,42
-55,-30,31,33,-41,1,-23,23,-4,13,44,42
-67,-36,37,45,-53,1,-17,17,-4,13,32,30
-67,-36,37,45,-53,1,-17,17,-9,7,32,30
-61,-42,13,51,-41,-23,-17,11,-9,1,38,36
-61,-53,1,57,-35,-29,-17,17,-9,1,38,36
-61,-65,-11,63,-29,-34,-17,11,-15,1,38,30
-61,-71,-17,63,-23,-40,-17,11,-21,1,32,30
-55,-71,-17,63,-17,-40,-29,5,-27,1,32,36
-55,-71,-17,63,-17,-40,-35,-13,-33,-4,32,24
-55,-71,-17,63,-17,-40,-47,-7,-39,-10,32,24
-49,-65,-17,57,-17,-40,-47,-13,-51,-16,27,24
-49,-77,-22,63,-11,-52,-47,-13,-51,-22,27,24
-55,-83,-22,69,-11,-52,-41,-7,-45,-22,27,24
-61,-89,-22,75,-17,-58,-41,-1,-39,-22,27,18
-79,-95,-17,87,-29,-52,-35,-1,-39,-22,27,18
-85,-101,-17,93,-35,-58,-35,-7,-45,-28,15,12
-97,-119,-17,105,-35,-70,-35,-13,-45,-34,9,12
-103,-131,-22,117,-35,-76,-23,-13,-45,-28,3,7
-115,-131,-17,123,-47,-70,-23,-13,-51,-34,-3,-11
-121,-143,-17,129,-47,-82,-23,-19,-57,-46,-3,-17
-127,-149,-17,135,-53,-82,-23,-25,-57,-46,-21,-23
-133,-155,-17,141,-53,-88,-23,-25,-63,-52,-15,-35
-139,-167,-22,153,-53,-94,-23,-31,-81,-64,-27,-35
-139,-167,-22,153,-53,-94,-35,-37,-81,-82,-39,-41
-133,-167,-28,147,-47,-100,-35,-49,-87,-82,-51,-47
-133,-167,-28,147,-47,-100,-35,-55,-87,-94,-63,-47
-133,-179,-40,153,-41,-112,-35,-55,-87,-94,-69,-47
-133,-185,-46,159,-41,-118,-35,-55,-87,-88,-63,-41
-145,-185,-34,165,-53,-112,-35,-55,-87,-88,-57,-41
-145,-191,-40,165,-47,-118,-35,-55,-93,-94,-57,-35
-139,-191,-46,165,-41,-118,-35,-55,-93,-94,-51,-41
-139,-191,-46,165,-41,-118,-29,-61,-99,-100,-51,-41
-139,-191,-46,165,-41,-118,-29,-61,-99,-100,-63,-41
-139,-191,-46,165,-41,-118,-23,-67,-105,-100,-63,-35
-139,-191,-46,165,-41,-118,-23,-55,-99,-94,-51,-35
-127,-191,-58,159,-29,-124,-23,-55,-87,-82,-39,-35
-127,-191,-58,159,-29,-124,-5,-37,-87,-82,-51,-29
-139,-191,-46,165,-41,-118,7,-25,-87,-94,-51,-29
-151,-191,-34,171,-53,-112,18,-13,-87,-88,-51,-29
-151,-191,-34,171,-53,-112,24,-1,-69,-82,-33,-23
-151,-179,-22,165,-59,-100,42,35,-63,-76,-33,-35
-139,-167,-22,153,-53,-94,78,46,-51,-70,-27,-35
-139,-179,-34,159,-47,-106,138,94,-27,-46,-15,-41
-139,-185,-40,159,-47,-112,210,154,-15,-40,-27,-53
-139,-185,-40,159,-47,-112,294,220,-4,-46,-33,-65
-139,-185,-40,159,-47,-112,354,268,8,-46,-45,-53
-139,-191,-46,165,-41,-118,384,298,20,-40,-45,-41
-133,-191,-52,159,-35,-124,372,322,20,-34,-33,-35
-115,-173,-52,141,-29,-112,306,298,32,-28,-33,-35
-91,-137,-40,111,-23,-88,156,280,32,-22,-15,-35
-61,-113,-46,87,-6,-82,-29,214,32,-4,3,-5
-26,-77,-46,51,0,-64,-221,142,32,1,27,12
-20,-53,-40,33,6,-46,-371,76,38,13,32,12
-8,-30,-17,22,6,-29,-449,52,38,25,38,24
10,-12,-17,4,12,-17,-467,52,56,25,44,24
22,-6,-22,-8,24,-17,-449,100,80,37,50,18
28,12,-17,-20,18,-5,-437,154,122,55,44,12
40,42,-5,-38,18,19,-431,184,176,97,56,42
52,90,31,-68,6,61,-431,166,236,157,104,60
76,150,67,-110,0,109,-431,160,296,223,164,102
94,222,127,-158,-11,181,-461,196,404,337,248,174
142,306,163,-218,-6,235,-491,220,518,463,350,264
196,390,193,-290,-6,289,-563,154,602,571,482,366
250,462,211,-356,18,337,-707,-79,614,673,608,462
316,528,211,-422,48,373,-953,-529,512,745,746,564
388,564,175,-470,102,373,-1199,-979,380,823,884,684
472,594,115,-530,180,355,-1403,-1225,320,955,1040,792
580,666,79,-620,246,373,-1583,-1375,332,1123,1238,942
676,786,109,-728,276,451,-1757,-1573,332,1285,1436,1110
730,924,187,-824,270,553,-1871,-1699,350,1465,1628,1260
760,1026,259,-896,246,649,-1931,-1747,374,1633,1808,1392
796,1128,325,-956,234,727,-1973,-1807,374,1783,1982,1512
796,1182,385,-986,204,787,-2021,-1855,356,1885,2101,1602
718,1224,499,-968,108,865,-1967,-1849,356,1933,2119,1644
592,1200,607,-896,-6,907,-1811,-1729,374,1891,2042,1620
448,1026,577,-734,-59,805,-1613,-1579,308,1633,1730,1410
310,750,439,-530,-59,595,-1361,-1369,176,1213,1250,1038
208,528,319,-368,-53,427,-1115,-1147,104,859,866,744
118,402,277,-254,-77,343,-917,-955,44,613,584,528
28,306,271,-170,-119,289,-749,-823,-57,355,350,372
-37,210,253,-80,-149,229,-605,-721,-159,145,188,270
-91,138,229,-14,-161,187,-485,-613,-201,13,92,204
-121,72,199,33,-161,133,-377,-505,-219,-46,50,132
-133,30,169,45,-149,97,-299,-421,-219,-52,32,96
-133,12,151,51,-143,79,-257,-355,-183,-52,32,78
-127,-6,127,57,-125,61,-209,-301,-159,-40,27,54
-139,-42,91,87,-119,19,-155,-259,-129,-40,15,48
-133,-65,61,99,-101,-11,-107,-205,-105,-28,9,30
-139,-77,55,105,-101,-17,-65,-169,-87,-28,3,12
-145,-89,49,117,-101,-29,-47,-133,-69,-34,-9,12
-157,-107,43,129,-101,-29,-11,-103,-63,-46,-21,7
-145,-107,31,123,-89,-34,7,-73,-63,-40,-27,1
-151,-113,31,129,-95,-34,18,-61,-63,-58,-39,-5
-151,-137,7,141,-83,-58,24,-43,-63,-64,-45,-23
-157,-143,7,147,-83,-64,42,-31,-63,-70,-57,-29
-163,-143,13,153,-89,-58,48,-25,-63,-76,-63,-29
-163,-149,7,153,-89,-64,60,-13,-63,-82,-63,-35
-163,-155,1,159,-83,-70,60,-19,-63,-82,-63,-41
-163,-161,-5,159,-83,-76,72,-7,-63,-88,-63,-47
-169,-167,-5,165,-83,-82,84,11,-63,-88,-75,-47
-175,-167,1,171,-89,-76,90,11,-63,-88,-75,-53
-181,-167,7,171,-95,-76,102,23,-63,-88,-81,-53
-187,-167,13,177,-101,-70,108,29,-57,-94,-81,-53
-187,-167,13,177,-101,-70,108,35,-63,-94,-87,-53
-187,-167,13,177,-101,-70,114,40,-57,-94,-87,-53
-181,-167,7,171,-95,-76,108,40,-63,-94,-93,-53
-175,-167,1,171,-89,-76,114,40,-63,-94,-93,-53
-175,-179,-11,177,-83,-88,120,40,-57,-100,-93,-53
-181,-179,-5,177,-89,-88,126,40,-57,-100,-93,-59
-181,-185,-11,183,-89,-94,126,40,-51,-106,-93,-59
-181,-185,-11,183,-89,-94,126,40,-51,-106,-93,-59
-181,-185,-11,183,-89,-94,132,46,-45,-106,-87,-59
-181,-185,-11,183,-89,-94,132,46,-45,-106,-87,-59
-181,-185,-11,183,-89,-94,132,52,-45,-106,-81,-65
-181,-185,-11,183,-89,-94,138,52,-45,-106,-81,-65
-181,-179,-5,177,-89,-88,144,52,-45,-100,-81,-65
-181,-179,-5,177,-89,-88,144,52,-45,-100,-81,-65
-181,-173,1,177,-95,-82,156,58,-45,-94,-81,-59
-187,-173,7,177,-101,-76,162,64,-39,-94,-81,-65
-187,-173,7,177,-101,-76,162,64,-39,-94,-81,-65
-187,-173,7,177,-101,-76,162,64,-39,-94,-81,-65
-187,-173,7,177,-101,-76,162,64,-39,-94,-75,-59
-187,-173,7,177,-101,-76,168,64,-39,-94,-75,-59
-187,-173,7,177,-101,-76,168,70,-39,-94,-87,-65
-187,-173,7,177,-101,-76,168,70,-39,-94,-87,-65
-187,-173,7,177,-101,-76,174,70,-39,-94,-93,-65
-187,-173,7,177,-101,-76,174,76,-39,-94,-93,-65
-187,-179,1,183,-95,-82,180,70,-39,-100,-87,-59
-187,-179,1,183,-95,-82,180,76,-39,-100,-93,-59
-187,-185,-5,183,-95,-88,174,70,-33,-106,-87,-59
-193,-191,-5,189,-95,-94,174,70,-33,-106,-87,-59
-187,-185,-5,183,-95,-88,174,82,-33,-100,-93,-65
-187,-185,-5,183,-95,-88,180,88,-27,-100,-93,-71
-181,-179,-5,177,-89,-88,180,94,-27,-94,-99,-77
-175,-179,-11,177,-83,-88,186,94,-27,-100,-99,-83
-175,-179,-11,177,-83,-88,192,100,-27,-94,-99,-77
-175,-179,-11,177,-83,-88,192,100,-27,-94,-99,-77
-187,-179,1,183,-95,-82,204,106,-27,-88,-99,-71
-187,-179,1,183,-95,-82,204,106,-27,-88,-99,-71
-193,-179,7,183,-101,-82,204,112,-21,-94,-99,-77
-193,-179,7,183,-101,-82,216,118,-21,-94,-105,-77
-199,-179,13,189,-107,-76,216,118,-15,-100,-105,-83
-199,-179,13,189,-107,-76,216,118,-15,-100,-111,-83
-193,-185,1,189,-101,-88,210,118,-15,-100,-117,-83
-199,-185,7,189,-107,-82,216,118,-15,-106,-117,-83
-193,-191,-5,189,-95,-94,210,118,-15,-106,-117,-89
-193,-191,-5,189,-95,-94,210,130,-15,-106,-117,-89
-205,-185,13,195,-113,-82,216,136,-21,-106,-117,-83
-205,-185,13,195,-113,-82,216,136,-21,-106,-117,-83
-211,-185,19,195,-119,-76,222,136,-27,-106,-117,-83
-211,-185,19,195,-119,-76,222,136,-27,-106,-117,-83
-211,-191,13,201,-113,-82,228,142,-15,-100,-111,-83
-211,-191,13,201,-113,-82,228,154,-15,-100,-111,-83
-211,-197,7,201,-113,-88,234,148,-9,-94,-99,-83
-211,-197,7,201,-113,-88,234,148,-9,-94,-99,-89
-205,-191,7,195,-107,-88,240,148,-9,-94,-105,-95
-205,-185,13,195,-113,-82,240,160,-9,-94,-105,-95
-199,-179,13,189,-107,-76,252,166,-4,-94,-105,-89
-211,-179,25,195,-119,-70,258,172,-4,-94,-105,-89
-217,-179,31,195,-125,-70,258,172,-9,-94,-111,-89
-211,-179,25,195,-119,-70,258,178,-9,-94,-111,-89
-217,-179,31,195,-125,-70,258,178,-9,-94,-117,-89
-223,-173,43,195,-137,-58,258,184,-9,-94,-117,-89
-217,-173,37,195,-131,-64,264,190,-4,-88,-111,-95
-217,-173,37,195,-131,-64,270,196,-4,-88,-111,-95
-211,-167,37,189,-125,-58,276,208,-4,-88,-105,-89
-211,-167,37,189,-125,-58,282,214,2,-82,-105,-83
-217,-173,37,195,-131,-64,288,220,2,-82,-105,-83
-217,-173,37,195,-131,-64,288,220,2,-82,-105,-89
-223,-167,49,195,-137,-52,288,226,8,-76,-105,-89
-223,-167,49,195,-137,-52,300,244,20,-70,-99,-89
-217,-161,49,189,-137,-52,306,256,14,-64,-99,-89
-217,-161,49,189,-137,-52,306,256,20,-64,-99,-89
-205,-149,49,177,-131,-46,306,268,14,-64,-105,-89
-205,-143,55,171,-131,-40,312,274,20,-58,-105,-89
-211,-143,61,177,-137,-34,318,280,32,-52,-99,-77
-211,-143,61,177,-137,-34,324,292,38,-46,-93,-77
-217,-131,79,171,-149,-29,324,292,50,-40,-87,-59
-217,-131,79,171,-149,-29,324,292,56,-34,-75,-59
-211,-125,79,165,-149,-29,330,304,62,-28,-69,-59
-211,-119,85,165,-149,-23,330,316,68,-22,-63,-59
-199,-125,67,159,-137,-29,336,328,74,-16,-57,-47
-199,-119,73,159,-137,-29,342,334,86,-4,-57,-41
-199,-113,79,153,-143,-23,348,340,92,1,-51,-35
-193,-107,79,147,-137,-23,354,358,104,1,-45,-29
-187,-101,79,141,-137,-17,360,358,110,13,-33,-29
-175,-95,73,135,-125,-17,360,370,116,19,-33,-29
-175,-83,85,129,-131,-5,354,376,122,25,-27,-29
-175,-77,91,123,-137,1,354,382,134,37,-21,-29
-175,-71,97,123,-137,7,348,388,140,49,-9,-11
-175,-65,103,117,-143,13,348,394,152,61,-3,1
-169,-59,103,111,-137,13,354,394,164,79,9,7
-169,-53,109,111,-143,19,354,394,164,79,27,12
-169,-47,115,105,-143,25,354,400,170,97,32,24
-169,-42,127,99,-149,37,348,400,176,109,44,30
-163,-42,127,93,-143,43,342,394,188,115,50,36
-151,-36,121,87,-137,43,336,394,194,133,68,42
-145,-30,121,81,-131,43,330,394,206,139,68,54
-145,-24,127,75,-137,49,324,382,212,151,80,54
-145,-18,133,75,-137,55,318,382,218,157,80,54
-133,-12,127,63,-131,55,300,376,224,169,92,60
-133,-6,133,63,-131,61,300,370,224,175,92,60
-127,0,133,57,-131,67,288,364,224,181,98,66
-121,0,127,51,-125,61,276,358,224,181,98,72
-121,6,133,51,-125,67,264,340,230,187,110,84
-109,12,127,39,-119,67,258,328,230,187,110,90
-109,18,133,39,-119,73,252,322,230,193,122,96
-103,12,121,39,-113,67,234,310,236,199,128,108
-91,18,115,33,-101,67,222,298,236,205,134,114
-85,12,103,33,-95,55,204,286,236,217,140,126
-79,12,97,33,-89,55,192,280,236,223,146,126
-79,18,103,33,-89,61,186,274,242,229,152,132
-79,24,109,33,-95,67,180,262,242,229,158,138
-79,30,115,33,-95,73,168,244,236,229,164,132
-67,30,103,28,-83,67,156,232,236,229,164,132
-67,30,103,28,-83,67,144,208,230,235,164,138
-67,30,103,28,-83,67,132,196,230,235,164,144
-67,18,91,33,-77,55,126,184,224,241,158,144
-61,12,79,33,-71,43,114,172,224,235,158,132
-61,12,79,33,-71,43,108,148,218,229,152,132
-61,12,79,33,-71,43,96,136,206,223,152,126
-55,6,67,33,-59,37,84,118,200,217,158,126
-55,0,61,33,-59,31,84,118,194,211,158,126
-55,0,61,33,-59,31,78,106,182,199,152,126
-55,-6,55,33,-53,25,72,94,176,193,152,114
-61,-6,61,33,-59,25,66,94,170,187,146,114
-61,-12,55,33,-59,19,60,76,164,181,140,108
-61,-24,43,33,-53,7,54,70,158,169,128,108
-61,-30,37,39,-47,1,48,58,146,163,122,102
-67,-42,25,51,-47,-11,42,58,134,151,116,84
-67,-42,25,51,-47,-11,42,40,122,139,110,78
-61,-42,13,51,-41,-23,36,40,104,127,92,72
-61,-47,7,51,-35,-29,36,40,104,115,80,72
-61,-53,1,57,-35,-29,36,29,92,109,62,66
-67,-59,1,63,-35,-29,36,23,80,97,44,54
-67,-65,-5,63,-35,-29,36,17,74,85,38,54
-67,-71,-11,69,-29,-34,36,11,74,85,38,48
-67,-77,-17,69,-29,-40,36,11,74,73,32,54
-67,-83,-17,75,-23,-46,30,-1,68,67,32,48
-73,-89,-17,81,-29,-52,24,-7,62,61,32,48
-73,-89,-17,81,-29,-52,18,-7,56,55,32,42
-79,-95,-17,87,-29,-52,18,-19,50,49,32,36
-79,-101,-17,87,-29,-58,24,-25,44,43,32,30
-79,-107,-22,93,-23,-64,24,-25,38,49,32,24
-79,-113,-28,93,-23,-70,24,-25,38,43,32,24
-79,-119,-34,99,-17,-76,24,-31,38,43,32,18
-79,-125,-40,99,-17,-82,18,-37,32,43,32,12
-79,-119,-34,99,-17,-76,18,-37,26,37,32,12
-79,-119,-34,99,-17,-76,24,-37,20,37,15,18
-79,-113,-28,93,-23,-70,24,-31,20,31,9,24
-79,-113,-28,93,-23,-70,24,-31,20,25,3,24
-79,-119,-34,99,-17,-76,18,-31,20,25,3,24
-79,-119,-34,99,-17,-76,18,-31,20,25,9,24
-79,-119,-34,99,-17,-76,18,-43,20,19,9,24
-79,-119,-34,99,-17,-76,18,-43,20,19,9,24
-73,-119,-40,93,-11,-82,18,-37,20,13,9,24
-73,-119,-40,93,-11,-82,18,-43,20,13,9,24
-67,-119,-46,93,-6,-82,18,-37,14,7,15,24
-67,-125,-52,93,-6,-88,18,-43,14,7,15,24
-67,-125,-52,93,-6,-88,18,-43,8,1,9,18
-67,-125,-52,93,-6,-88,18,-43,8,1,3,18
-67,-125,-52,93,-6,-88,18,-43,2,1,-3,12
-61,-125,-58,93,-6,-94,18,-43,2,1,-15,12
-61,-125,-58,93,-6,-94,18,-43,2,1,-9,12
-61,-125,-58,93,-6,-94,18,-43,2,1,-9,12
-61,-125,-58,93,-6,-94,18,-49,2,1,-3,18
-67,-125,-52,93,-6,-88,18,-49,2,1,-3,24
-73,-125,-46,99,-11,-88,18,-55,2,1,-3,18
-73,-125,-46,99,-11,-88,18,-55,2,1,-3,12
-79,-125,-40,99,-17,-82,18,-61,2,1,-3,12
-79,-125,-40,99,-17,-82,18,-61,2,1,-3,12
-73,-125,-46,99,-11,-88,18,-55,2,1,3,18
-73,-125,-46,99,-11,-88,18,-55,-4,1,3,12
-67,-125,-52,93,-6,-88,18,-49,-4,1,-3,18
-67,-125,-52,93,-6,-88,18,-49,2,1,-3,18
-67,-119,-46,93,-6,-82,18,-49,2,1,-3,12
-67,-119,-46,93,-6,-82,18,-49,2,1,-3,12
-73,-113,-34,93,-17,-76,18,-55,-4,1,-3,12
-73,-113,-34,93,-17,-76,18,-55,-4,1,-3,12
-79,-119,-34,99,-17,-76,18,-49,-4,1,3,12
-79,-119,-34,99,-17,-76,24,-49,-4,1,3,12
-85,-125,-34,105,-23,-82,24,-49,-4,1,9,18
-79,-125,-40,99,-17,-82,24,-49,-4,1,9,18
-79,-131,-46,105,-11,-88,24,-49,-4,1,3,18
-79,-131,-46,105,-11,-88,24,-43,2,-4,3,12
-85,-131,-40,105,-17,-88,18,-37,2,-4,-3,12
-85,-131,-40,105,-17,-88,18,-37,-4,-4,-15,12
-79,-125,-40,99,-17,-82,18,-43,-4,-10,-15,12
-79,-125,-40,99,-17,-82,18,-43,-4,-10,-21,12
-67,-119,-46,93,-6,-82,18,-55,-4,-10,-15,12
-67,-119,-46,93,-6,-82,24,-55,-4,-10,-15,12
-73,-119,-40,93,-11,-82,24,-49,-4,-10,-3,12
-79,-119,-34,99,-17,-76,24,-43,2,-4,-3,12
-85,-119,-28,99,-23,-76,24,-31,2,-4,9,12
-85,-119,-28,99,-23,-76,24,-31,2,-4,9,12
-85,-119,-28,99,-23,-76,24,-37,2,-4,3,12
-85,-119,-28,99,-23,-76,24,-37,2,-4,-3,12
-85,-119,-28,99,-23,-76,24,-43,2,-4,-9,12
-79,-119,-34,99,-17,-76,24,-43,2,-4,-15,12
-79,-119,-34,99,-17,-76,24,-37,2,-10,-21,12
-85,-119,-28,99,-23,-76,24,-37,2,-10,-21,12
-85,-119,-28,99,-23,-76,24,-31,2,-10,-27,7
-79,-113,-28,93,-23,-70,24,-31,2,-10,-33,7
-79,-113,-28,93,-23,-70,24,-31,2,-4,-27,12
-79,-113,-28,93,-23,-70,24,-31,8,-4,-27,12
-79,-113,-28,93,-23,-70,24,-31,8,1,-21,12
-79,-113,-28,93,-23,-70,24,-31,2,1,-15,12
-79,-113,-28,93,-23,-70,30,-25,2,1,-9,12
-79,-113,-28,93,-23,-70,30,-31,2,1,-9,12
-79,-113,-28,93,-23,-70,36,-25,2,1,-3,12
-79,-107,-22,93,-23,-64,36,-25,2,1,-3,12
-91,-107,-17,99,-35,-58,30,-31,2,1,-9,12
-79,-107,-22,93,-23,-64,30,-31,8,1,-15,12
-79,-107,-22,93,-23,-64,24,-43,8,1,-21,12
-79,-107,-22,93,-23,-64,24,-43,8,1,-27,12
-79,-107,-22,93,-23,-64,30,-37,2,1,-21,12
-73,-107,-28,87,-17,-70,24,-37,2,1,-21,12
-73,-107,-28,87,-17,-70,30,-31,2,1,-15,12
-73,-107,-28,87,-17,-70,30,-31,2,1,-15,12
-73,-107,-28,87,-17,-70,24,-31,8,1,-15,12
-73,-107,-28,87,-17,-70,24,-31,8,1,-9,12
-73,-107,-28,87,-17,-70,18,-37,8,7,-9,12
-73,-107,-28,87,-17,-70,18,-37,8,7,-9,12
-73,-101,-22,87,-23,-64,24,-37,8,1,-9,12
-67,-101,-28,81,-17,-64,24,-37,8,1,-3,12
-67,-101,-28,81,-17,-64,30,-31,2,1,3,18
-67,-101,-28,81,-17,-64,30,-31,2,1,3,18
-67,-107,-34,87,-11,-70,24,-37,2,1,-3,18
-67,-107,-34,87,-11,-70,24,-37,2,1,-3,18
-67,-107,-34,87,-11,-70,18,-43,8,1,-3,18
-73,-107,-28,87,-17,-70,18,-43,8,1,-3,12
-73,-107,-28,87,-17,-70,18,-43,2,1,-9,12
-73,-113,-34,93,-17,-76,18,-43,2,1,-9,12
-67,-113,-40,87,-11,-76,18,-49,2,1,-9,12
-61,-113,-46,87,-6,-82,18,-49,2,1,-15,18
-61,-113,-46,87,-6,-82,18,-49,-4,1,-15,12
-61,-113,-46,87,-6,-82,18,-49,-4,1,-15,12
-67,-113,-40,87,-11,-76,18,-49,-4,1,-15,12
-67,-107,-34,87,-11,-70,18,-49,-4,1,-15,12
-67,-107,-34,87,-11,-70,18,-55,-4,1,-15,12
-67,-113,-40,87,-11,-76,18,-55,-4,1,-15,12
-67,-113,-40,87,-11,-76,18,-55,-9,-4,-15,12
-67,-113,-40,87,-11,-76,18,-55,-9,-10,-15,12
-67,-107,-34,87,-11,-70,18,-61,-4,-4,-9,12
-67,-107,-34,87,-11,-70,18,-61,-9,-4,-9,12
-67,-101,-28,81,-17,-64,18,-67,-4,1,-9,12
-61,-101,-34,81,-11,-70,18,-67,-9,1,-9,12
-61,-101,-34,81,-11,-70,18,-67,-9,-4,-15,12
-61,-101,-34,81,-11,-70,18,-67,-4,-4,-21,12
-67,-107,-34,87,-11,-70,13,-73,-4,-4,-27,12
-67,-107,-34,87,-11,-70,13,-79,-15,-10,-33,12
-67,-107,-34,87,-11,-70,7,-79,-21,-16,-39,7
-67,-101,-28,81,-17,-64,7,-85,-21,-16,-39,7
-73,-101,-22,87,-23,-64,1,-91,-27,-22,-45,7
-73,-101,-22,87,-23,-64,1,-91,-33,-28,-45,7
-73,-101,-22,87,-23,-64,7,-91,-27,-22,-45,7
-73,-107,-28,87,-17,-70,7,-91,-27,-22,-39,7
-73,-107,-28,87,-17,-70,13,-79,-21,-16,-39,12
-73,-107,-28,87,-17,-70,13,-79,-21,-22,-33,12
-73,-107,-28,87,-17,-70,13,-85,-27,-34,-39,12
-73,-107,-28,87,-17,-70,13,-91,-27,-34,-39,12
-73,-107,-28,87,-17,-70,13,-97,-33,-40,-45,12
-79,-107,-22,93,-23,-64,7,-103,-39,-40,-45,1
-79,-107,-22,93,-23,-64,7,-97,-39,-46,-45,-5
-73,-107,-28,87,-17,-70,7,-97,-39,-46,-45,1
-67,-101,-28,81,-17,-64,7,-91,-39,-46,-45,-5
-67,-101,-28,81,-17,-64,7,-103,-39,-46,-51,-5
-79,-107,-22,93,-23,-64,7,-103,-39,-46,-51,-11
-79,-107,-22,93,-23,-64,7,-103,-39,-46,-51,-11
-85,-113,-22,99,-29,-70,7,-97,-33,-46,-51,-23
-85,-119,-28,99,-23,-76,7,-97,-33,-46,-57,-23
-91,-119,-22,105,-29,-70,7,-97,-33,-46,-57,-17
-97,-113,-17,105,-41,-64,7,-97,-33,-46,-57,-17
-97,-113,-17,105,-41,-64,7,-103,-39,-46,-57,-11
-97,-113,-17,105,-41,-64,7,-103,-39,-46,-57,-11
-85,-119,-28,99,-23,-76,1,-109,-45,-46,-57,-11
-85,-125,-34,105,-23,-82,1,-109,-45,-46,-57,-11
-79,-125,-40,99,-17,-82,1,-115,-45,-46,-63,-11
-73,-125,-46,99,-11,-88,1,-115,-45,-46,-63,-11
-73,-119,-40,93,-11,-82,1,-115,-45,-46,-57,-11
-79,-119,-34,99,-17,-76,1,-115,-45,-46,-57,-11
-85,-125,-34,105,-23,-82,1,-115,-45,-52,-51,-11
-85,-125,-34,105,-23,-82,1,-115,-45,-52,-45,-17
-85,-119,-28,99,-23,-76,1,-115,-45,-52,-51,-17
-79,-119,-34,99,-17,-76,1,-115,-45,-58,-51,-17
-73,-113,-34,93,-17,-76,1,-115,-45,-52,-57,-17
-73,-113,-34,93,-17,-76,1,-115,-51,-52,-63,-17
-79,-113,-28,93,-23,-70,1,-115,-51,-58,-69,-23
-79,-113,-28,93,-23,-70,1,-115,-51,-52,-69,-23
-79,-107,-22,93,-23,-64,1,-115,-51,-58,-75,-29
-79,-107,-22,93,-23,-64,1,-115,-51,-58,-75,-29
-79,-113,-28,93,-23,-70,1,-109,-45,-52,-69,-29
-85,-119,-28,99,-23,-76,1,-109,-45,-52,-69,-29
-85,-119,-28,99,-23,-76,1,-109,-39,-52,-69,-23
-85,-113,-22,99,-29,-70,1,-115,-39,-52,-69,-23
-79,-113,-28,93,-23,-70,-5,-121,-39,-52,-69,-23
-79,-119,-34,99,-17,-76,-5,-121,-39,-46,-69,-23
-79,-119,-34,99,-17,-76,-11,-121,-39,-46,-69,-23
-79,-119,-34,99,-17,-76,-11,-121,-39,-46,-69,-23
-79,-119,-34,99,-17,-76,-5,-121,-45,-52,-69,-23
-73,-119,-40,93,-11,-82,-11,-121,-45,-52,-75,-23
-73,-119,-40,93,-11,-82,-5,-121,-57,-58,-75,-29
-85,-119,-28,99,-23,-76,-5,-121,-57,-58,-69,-29
-91,-125,-28,105,-29,-76,1,-115,-51,-58,-63,-23
-91,-119,-22,105,-29,-70,1,-115,-51,-58,-63,-23
-85,-125,-34,105,-23,-82,-5,-115,-45,-58,-57,-23
-79,-125,-40,99,-17,-82,-5,-121,-45,-58,-57,-23
-79,-131,-46,105,-11,-88,-11,-121,-45,-58,-63,-23
-73,-131,-52,99,-6,-94,-11,-121,-45,-58,-63,-23
-73,-131,-52,99,-6,-94,-17,-121,-45,-58,-69,-29
-73,-131,-52,99,-6,-94,-17,-121,-45,-58,-69,-29
-85,-131,-40,105,-17,-88,-11,-121,-45,-64,-69,-29
-91,-131,-34,111,-23,-82,-11,-121,-45,-64,-69,-29
-97,-131,-28,111,-29,-82,-5,-121,-45,-70,-63,-29
-97,-131,-28,111,-29,-82,-5,-121,-45,-70,-57,-29
-91,-131,-34,111,-23,-82,-11,-127,-51,-82,-57,-29
-91,-131,-34,111,-23,-82,-11,-121,-51,-82,-57,-29
-97,-131,-28,111,-29,-82,-17,-121,-57,-82,-57,-29
-97,-131,-28,111,-29,-82,-17,-115,-57,-76,-57,-29
-97,-131,-28,111,-29,-82,-17,-121,-57,-70,-57,-29
-97,-131,-28,111,-29,-82,-17,-121,-63,-70,-57,-29
-97,-131,-28,111,-29,-82,-17,-133,-63,-76,-57,-29
-97,-125,-22,111,-35,-76,-17,-133,-63,-76,-57,-29
-97,-125,-22,111,-35,-76,-11,-133,-57,-76,-57,-29
-97,-131,-28,111,-29,-82,-11,-133,-51,-76,-57,-29
-97,-131,-28,111,-29,-82,-5,-127,-45,-76,-63,-35
-91,-131,-34,111,-23,-82,-5,-127,-51,-76,-63,-35
-73,-119,-40,93,-11,-82,-17,-127,-51,-76,-75,-23
-73,-119,-40,93,-11,-82,-17,-127,-51,-88,-75,-35
-85,-119,-28,99,-23,-76,-11,-121,-51,-88,-75,-29
-97,-125,-22,111,-35,-76,-11,-121,-51,-88,-75,-29
-103,-131,-22,117,-35,-76,1,-121,-45,-88,-69,-29
-97,-131,-28,111,-29,-82,-5,-121,-51,-88,-69,-23
-97,-131,-28,111,-29,-82,-5,-121,-51,-88,-69,-23
-91,-131,-34,111,-23,-82,-11,-121,-57,-88,-69,-17
-91,-131,-34,111,-23,-82,-11,-121,-57,-88,-69,-17
-91,-125,-28,105,-29,-76,-11,-121,-57,-82,-63,-23
-91,-125,-28,105,-29,-76,-11,-121,-57,-82,-63,-23
-91,-119,-22,105,-29,-70,-11,-121,-57,-76,-57,-29
-91,-119,-22,105,-29,-70,-11,-121,-57,-76,-57,-29
-91,-125,-28,105,-29,-76,-11,-121,-57,-82,-63,-29
-91,-125,-28,105,-29,-76,-11,-121,-57,-82,-63,-29
-91,-131,-34,111,-23,-82,-11,-121,-57,-88,-69,-29
-91,-131,-34,111,-23,-82,-11,-121,-57,-88,-69,-29
-85,-131,-40,105,-17,-88,-11,-121,-57,-88,-69,-23
-85,-131,-40,105,-17,-88,-11,-121,-57,-88,-69,-23
-79,-131,-46,105,-11,-88,-11,-121,-57,-88,-69,-17
-79,-131,-46,105,-11,-88,-11,-121,-57,-88,-69,-17
-85,-131,-40,105,-17,-88,-11,-121,-57,-82,-63,-23
-85,-131,-40,105,-17,-88,-11,-121,-57,-82,-63,-23
-91,-131,-34,111,-23,-82,-11,-121,-57,-76,-57,-29
-91,-131,-34,111,-23,-82,-11,-121,-57,-76,-57,-29
-91,-131,-34,111,-23,-82,-17,-121,-63,-82,-63,-29
-91,-131,-34,111,-23,-82,-17,-121,-63,-82,-63,-29
-91,-131,-34,111,-23,-82,-23,-121,-69,-88,-69,-29
-91,-131,-34,111,-23,-82,-23,-121,-69,-88,-69,-29
-91,-131,-34,111,-23,-82,-17,-121,-63,-88,-69,-23
-91,-131,-34,111,-23,-82,-17,-121,-63,-88,-69,-23
-91,-131,-34,111,-23,-82,-11,-121,-57,-88,-69,-17
-91,-131,-34,111,-23,-82,-11,-121,-57,-88,-69,-17
-85,-131,-40,105,-17,-88,-17,-121,-63,-94,-75,-23
-85,-131,-40,105,-17,-88,-17,-121,-63,-94,-75,-23
-79,-131,-46,105,-11,-88,-23,-121,-69,-100,-81,-29
-79,-131,-46,105,-11,-88,-23,-121,-69,-100,-81,-29
-79,-131,-46,105,-11,-88,-23,-121,-69,-94,-81,-29
-79,-131,-46,105,-11,-88,-23,-121,-69,-94,-81,-29
-79,-131,-46,105,-11,-88,-23,-121,-69,-88,-81,-29
-79,-131,-46,105,-11,-88,-23,-121,-69,-88,-81,-29
-85,-131,-40,105,-17,-88,-17,-121,-69,-88,-81,-23
-85,-131,-40,105,-17,-88,-17,-121,-69,-88,-81,-23
-91,-131,-34,111,-23,-82,-11,-121,-69,-88,-81,-17
-91,-131,-34,111,-23,-82,-11,-121,-69,-88,-81,-17
-97,-131,-28,111,-29,-82,-17,-121,-69,-82,-75,-17
-97,-131,-28,111,-29,-82,-17,-121,-69,-82,-69,-17
-103,-131,-22,117,-35,-76,-23,-121,-69,-76,-63,-17
-103,-131,-22,117,-35,-76,-23,-121,-69,-76,-57,-17
-97,-131,-28,111,-29,-82,-23,-121,-69,-82,-63,-23
-97,-131,-28,111,-29,-82,-23,-121,-69,-82,-63,-23
-91,-131,-34,111,-23,-82,-23,-121,-69,-88,-69,-29
-91,-131,-34,111,-23,-82,-23,-121,-69,-88,-69,-29
-91,-131,-34,111,-23,-82,-23,-121,-69,-94,-69,-23
-91,-131,-34,111,-23,-82,-23,-121,-69,-94,-69,-23
-91,-131,-34,111,-23,-82,-23,-121,-69,-100,-69,-17
-91,-131,-34,111,-23,-82,-23,-121,-69,-100,-69,-17
-91,-131,-34,111,-23,-82,-17,-121,-69,-106,-69,-17
-91,-131,-34,111,-23,-82,-17,-121,-69,-106,-69,-17
-91,-131,-34,111,-23,-82,-11,-121,-69,-112,-69,-17
-91,-131,-34,111,-23,-82,-11,-121,-69,-112,-69,-17
-91,-131,-34,111,-23,-82,-11,-121,-63,-112,-75,-23
-91,-131,-34,111,-23,-82,-11,-121,-63,-112,-75,-23
-91,-131,-34,111,-23,-82,-11,-121,-57,-112,-81,-29
-91,-131,-34,111,-23,-82,-11,-121,-57,-112,-81,-29
-91,-131,-34,111,-23,-82,-11,-121,-57,-112,-75,-29
-91,-131,-34,111,-23,-82,-11,-121,-57,-112,-75,-29
-91,-131,-34,111,-23,-82,-11,-121,-57,-112,-69,-29
-91,-131,-34,111,-23,-82,-11,-121,-57,-112,-69,-29
-91,-131,-34,111,-23,-82,-11,-115,-63,-106,-69,-23
-91,-131,-34,111,-23,-82,-11,-115,-63,-106,-69,-23
-91,-131,-34,111,-23,-82,-11,-109,-69,-100,-69,-17
-91,-131,-34,111,-23,-82,-11,-109,-69,-100,-69,-17
-91,-131,-34,111,-23,-82,-11,-109,-69,-100,-69,-23
-91,-131,-34,111,-23,-82,-11,-109,-69,-100,-69,-23
-91,-131,-34,111,-23,-82,-11,-109,-69,-100,-69,-29
-91,-131,-34,111,-23,-82,-11,-109,-69,-100,-69,-29
-97,-131,-28,111,-29,-82,-11,-103,-69,-100,-75,-29
-97,-131,-28,111,-29,-82,-11,-103,-69,-100,-75,-29
-103,-131,-22,117,-35,-76,-11,-97,-69,-100,-81,-29
-103,-131,-22,117,-35,-76,-11,-97,-69,-100,-81,-29
-97,-125,-22,111,-35,-76,-11,-103,-69,-100,-75,-29
-97,-125,-22,111,-35,-76,-11,-109,-69,-100,-75,-29
-91,-119,-22,105,-29,-70,-11,-115,-69,-100,-69,-29
-91,-119,-22,105,-29,-70,-11,-121,-69,-100,-69,-29
-97,-125,-22,111,-35,-76,-11,-115,-69,-106,-69,-23
-97,-125,-22,111,-35,-76,-11,-115,-69,-106,-69,-23
-103,-131,-22,117,-35,-76,-11,-109,-69,-112,-69,-17
-103,-131,-22,117,-35,-76,-11,-109,-69,-112,-69,-17
-103,-131,-22,117,-35,-76,-11,-109,-69,-112,-75,-23
-103,-131,-22,117,-35,-76,-11,-109,-69,-112,-75,-29
-103,-131,-22,117,-35,-76,-11,-109,-69,-112,-81,-35
-103,-131,-22,117,-35,-76,-11,-109,-69,-112,-81,-41
-97,-131,-28,111,-29,-82,-11,-109,-69,-112,-81,-35
-97,-131,-28,111,-29,-82,-11,-109,-69,-112,-81,-35
-91,-131,-34,111,-23,-82,-11,-109,-69,-112,-81,-29
-91,-131,-34,111,-23,-82,-11,-109,-69,-112,-81,-29
-91,-131,-34,111,-23,-82,-11,-109,-69,-112,-87,-35
-91,-131,-34,111,-23,-82,-11,-109,-69,-112,-87,-35
-91,-131,-34,111,-23,-82,-11,-109,-69,-112,-93,-41
-91,-131,-34,111,-23,-82,-11,-109,-69,-112,-93,-41
-97,-131,-28,111,-29,-82,-11,-115,-69,-106,-87,-35
-97,-131,-28,111,-29,-82,-11,-115,-69,-106,-87,-35
-103,-131,-22,117,-35,-76,-11,-121,-69,-100,-81,-29
-103,-131,-22,117,-35,-76,-11,-121,-69,-100,-81,-29
-103,-131,-22,117,-35,-76,-17,-115,-69,-100,-81,-29
-103,-131,-22,117,-35,-76,-17,-115,-69,-100,-81,-29
-103,-131,-22,117,-35,-76,-23,-109,-69,-100,-81,-29
-103,-131,-22,117,-35,-76,-23,-109,-69,-100,-81,-29
-97,-131,-28,111,-29,-82,-23,-109,-69,-106,-75,-23
-97,-131,-28,111,-29,-82,-23,-109,-69,-106,-75,-23
-91,-131,-34,111,-23,-82,-23,-109,-69,-112,-69,-17
-91,-131,-34,111,-23,-82,-23,-109,-69,-112,-69,-17
-91,-125,-28,105,-29,-76,-23,-109,-69,-112,-75,-23
-91,-125,-28,105,-29,-76,-23,-109,-69,-112,-81,-23
-91,-119,-22,105,-29,-70,-23,-109,-69,-112,-87,-29
-91,-119,-22,105,-29,-70,-23,-109,-69,-112,-93,-29
-97,-125,-22,111,-35,-76,-23,-115,-75,-112,-93,-35
-97,-125,-22,111,-35,-76,-23,-115,-75,-112,-93,-35
-97,-131,-28,111,-29,-82,-23,-121,-81,-112,-87,-29
-97,-131,-28,111,-29,-82,-23,-121,-81,-112,-87,-29
-97,-131,-28,111,-29,-82,-23,-121,-81,-112,-87,-23
-97,-131,-28,111,-29,-82,-23,-115,-81,-112,-81,-23
-97,-131,-28,111,-29,-82,-29,-115,-75,-106,-81,-23
-97,-125,-22,111,-35,-76,-29,-109,-75,-106,-81,-23
-91,-119,-22,105,-29,-70,-23,-103,-63,-94,-75,-23
-79,-113,-28,93,-23,-70,-17,-103,-63,-94,-75,-23
-73,-113,-34,93,-17,-76,-11,-91,-57,-88,-75,-23
-73,-113,-34,93,-17,-76,-5,-91,-57,-88,-75,-23
-73,-101,-22,87,-23,-64,-11,-91,-57,-94,-69,-23
-73,-95,-17,81,-23,-58,-5,-85,-45,-82,-57,-23
-73,-89,-17,81,-29,-52,-5,-85,-45,-82,-57,-23
-73,-83,-17,75,-29,-46,7,-67,-45,-70,-57,-17
-73,-59,7,63,-41,-29,18,-55,-27,-64,-45,-11
-73,-47,19,57,-47,-23,18,-49,-15,-58,-45,-5
-67,-42,19,51,-47,-17,18,-49,-9,-58,-45,-5
-67,-42,19,51,-47,-17,18,-49,-9,-58,-45,-5
-67,-47,13,57,-41,-23,18,-43,-9,-58,-45,1
-67,-59,1,63,-35,-29,18,-49,-9,-58,-39,1
-61,-47,7,51,-35,-29,7,-43,-9,-52,-39,7
-49,-42,1,45,-29,-29,-5,-43,-9,-46,-33,12
-31,-42,-11,33,-11,-29,-23,-43,-4,-46,-39,12
-26,-36,-11,33,-6,-23,-41,-43,-4,-34,-21,12
-20,-18,-5,22,-6,-11,-53,-37,2,-34,-21,12
-20,-18,-5,22,-6,-11,-59,-37,2,-28,-15,24
-26,-12,13,22,-17,1,-53,-49,2,-22,-9,30
-26,-12,19,28,-23,1,-47,-55,-4,-28,-9,30
-26,-18,13,28,-17,-5,-41,-73,-4,-28,-3,36
-31,-24,13,33,-23,-5,-41,-79,-4,-34,-15,30
-31,-24,13,33,-23,-5,-47,-79,-15,-40,-21,24
-26,-36,-5,33,-11,-23,-47,-79,-15,-46,-21,24
-26,-42,-17,33,-6,-29,-53,-73,-21,-46,-27,18
-26,-42,-17,33,-6,-29,-53,-73,-27,-52,-33,12
-31,-42,-17,33,-11,-29,-47,-73,-27,-52,-45,12
-26,-47,-17,33,-6,-34,-59,-85,-33,-58,-45,12
-31,-47,-17,39,-6,-29,-59,-103,-33,-64,-51,7
-31,-53,-17,39,-6,-34,-71,-103,-39,-70,-63,1
-26,-53,-28,33,-6,-40,-77,-115,-57,-82,-69,-5
-26,-59,-40,33,6,-46,-71,-115,-63,-82,-69,1
-26,-65,-46,39,6,-52,-71,-115,-63,-88,-69,-5
-26,-65,-46,39,6,-52,-65,-109,-63,-82,-69,-5
-37,-77,-34,57,-6,-58,-53,-103,-63,-82,-69,1
-55,-83,-22,69,-11,-52,-53,-109,-75,-94,-75,-5
-73,-107,-28,87,-17,-70,-47,-109,-75,-100,-81,-11
-91,-119,-22,105,-29,-70,-35,-109,-81,-100,-81,-17
-103,-113,-17,105,-47,-58,-41,-115,-87,-106,-87,-41
-103,-125,-17,111,-41,-70,-41,-121,-93,-118,-93,-41
-109,-125,-17,117,-47,-70,-47,-133,-93,-118,-111,-53
-109,-131,-17,117,-41,-76,-47,-133,-99,-124,-111,-59
-109,-143,-28,123,-35,-88,-47,-139,-111,-136,-123,-59
-109,-143,-28,123,-35,-88,-59,-145,-111,-148,-123,-65
-97,-143,-40,117,-23,-94,-59,-157,-111,-148,-129,-71
-97,-143,-40,117,-23,-94,-59,-163,-111,-154,-129,-71
-103,-155,-46,129,-23,-100,-59,-157,-117,-154,-135,-77
-103,-155,-46,129,-23,-100,-59,-157,-117,-148,-135,-77
-121,-155,-28,135,-41,-94,-59,-151,-123,-148,-141,-83
-121,-155,-28,135,-41,-94,-59,-151,-129,-154,-147,-83
-109,-155,-40,129,-29,-100,-59,-151,-129,-154,-141,-83
-109,-155,-40,129,-29,-100,-59,-151,-129,-160,-141,-83
-103,-155,-46,129,-23,-100,-59,-151,-129,-160,-147,-77
-103,-155,-46,129,-23,-100,-59,-151,-129,-160,-147,-71
-103,-143,-34,123,-29,-88,-59,-139,-111,-154,-123,-71
-103,-155,-46,129,-23,-100,-47,-127,-111,-154,-123,-71
-103,-155,-46,129,-23,-100,-29,-109,-99,-154,-123,-77
-103,-155,-46,129,-23,-100,-17,-109,-99,-154,-123,-77
-103,-155,-46,129,-23,-100,-5,-97,-99,-148,-123,-77
-103,-155,-46,129,-23,-100,13,-73,-93,-142,-117,-71
-103,-155,-46,129,-23,-100,30,-49,-75,-136,-117,-59
-103,-155,-46,129,-23,-100,54,-13,-63,-118,-111,-59
-91,-155,-58,123,-11,-106,102,35,-51,-118,-111,-77
-91,-149,-52,117,-17,-100,186,82,-39,-112,-111,-77
-103,-161,-52,129,-23,-106,258,148,-21,-118,-117,-89
-91,-161,-64,123,-11,-112,318,196,-4,-118,-117,-77
-91,-155,-58,123,-11,-106,348,232,-4,-112,-117,-77
-97,-143,-40,117,-23,-94,324,256,8,-94,-117,-71
-79,-125,-40,99,-17,-82,240,232,20,-88,-105,-59
-31,-101,-64,63,6,-82,72,184,20,-82,-87,-59
-14,-77,-70,39,24,-70,-113,118,20,-76,-69,-41
10,-42,-58,22,30,-46,-293,58,20,-52,-57,-23
16,-18,-28,4,24,-29,-419,5,26,-34,-27,1
16,6,-17,-8,12,-5,-479,-19,38,-22,-21,1
46,12,-28,-26,36,-11,-503,-7,56,-10,-15,1
46,18,-22,-32,36,-5,-479,29,80,1,-21,12
52,36,-17,-44,30,7,-461,58,110,19,-3,12
76,78,-5,-74,36,37,-455,76,152,37,9,12
100,114,7,-104,42,61,-443,70,212,85,32,24
100,174,67,-134,12,121,-467,52,272,163,80,78
142,246,103,-194,12,181,-503,40,356,265,176,150
178,330,151,-248,6,241,-539,52,464,379,272,222
214,426,205,-320,0,313,-587,40,554,499,398,318
274,486,211,-380,30,349,-713,-139,578,601,524,414
328,528,199,-428,60,367,-929,-541,488,667,638,516
400,576,175,-482,108,379,-1181,-967,368,751,776,624
496,630,127,-560,186,379,-1403,-1225,308,871,950,744
616,690,67,-650,270,379,-1571,-1399,284,1015,1118,870
706,786,73,-746,312,433,-1745,-1585,284,1183,1328,1026
766,912,139,-836,312,523,-1859,-1735,314,1369,1544,1194
796,1038,235,-920,276,643,-1919,-1795,350,1549,1730,1332
844,1152,301,-992,264,727,-1973,-1855,350,1705,1898,1476
844,1206,361,-1022,234,787,-2021,-1921,320,1801,2030,1578
766,1236,469,-998,150,853,-1979,-1909,308,1861,2072,1632
640,1236,595,-938,18,919,-1847,-1813,338,1855,2018,1608
502,1098,589,-800,-35,847,-1649,-1663,296,1645,1736,1434
370,822,451,-596,-35,637,-1421,-1459,176,1231,1262,1098
238,588,343,-416,-47,463,-1175,-1225,80,883,854,774
154,444,289,-296,-65,373,-953,-1015,44,625,572,552
64,342,271,-206,-101,307,-797,-895,-33,391,326,384
-2,258,253,-128,-125,259,-653,-793,-135,169,164,258
-43,198,241,-68,-143,217,-521,-685,-189,25,68,180
-73,132,211,-20,-143,169,-413,-565,-219,-46,15,120
-97,78,181,16,-137,127,-335,-487,-231,-88,-21,72
-97,60,163,28,-131,109,-281,-427,-207,-88,-39,42
-91,30,127,33,-107,79,-239,-373,-171,-88,-45,18
-103,-6,103,45,-101,49,-191,-307,-141,-76,-45,12
-121,-30,97,69,-107,31,-143,-253,-105,-64,-39,7
-115,-42,79,69,-95,19,-113,-211,-87,-64,-57,-11
-109,-42,61,75,-89,1,-83,-193,-93,-70,-69,-23
-109,-59,43,81,-77,-17,-59,-163,-87,-82,-81,-29
-109,-71,31,87,-71,-29,-29,-133,-75,-88,-87,-35
-103,-89,7,93,-59,-34,1,-97,-63,-94,-87,-29
-115,-101,7,105,-65,-40,13,-91,-63,-100,-81,-35
-133,-107,19,117,-77,-40,18,-79,-75,-106,-93,-41
-139,-107,25,123,-83,-34,18,-67,-81,-118,-111,-47
-139,-113,19,123,-83,-40,24,-55,-81,-124,-111,-59
-139,-119,13,129,-77,-46,24,-55,-87,-130,-123,-71
-139,-125,7,129,-77,-52,36,-43,-87,-136,-123,-83
-139,-131,1,135,-71,-58,48,-31,-81,-136,-135,-89
-139,-131,1,135,-71,-58,54,-31,-81,-136,-135,-95
-139,-131,1,135,-71,-58,66,-25,-75,-136,-141,-101
-139,-131,1,135,-71,-58,72,-19,-69,-142,-141,-101
-145,-131,7,135,-77,-58,78,-7,-69,-142,-147,-95
-145,-131,7,135,-77,-58,84,-1,-63,-142,-147,-95
-145,-131,7,135,-77,-58,84,11,-63,-142,-153,-89
-139,-131,1,135,-71,-58,90,11,-63,-142,-153,-89
-139,-137,-5,135,-71,-64,96,11,-63,-142,-147,-89
-145,-137,1,141,-77,-64,102,17,-63,-142,-147,-95
-145,-137,1,141,-77,-64,102,17,-63,-142,-141,-95
-145,-137,1,141,-77,-64,102,17,-63,-142,-141,-95
-145,-137,1,141,-77,-64,114,23,-57,-142,-147,-89
-145,-137,1,141,-77,-64,114,23,-57,-142,-147,-89
-145,-137,1,141,-77,-64,120,29,-57,-142,-153,-89
-145,-137,1,141,-77,-64,126,29,-57,-142,-153,-89
-145,-137,1,141,-77,-64,120,29,-63,-148,-159,-101
-145,-137,1,141,-77,-64,120,29,-63,-148,-159,-101
-145,-137,1,141,-77,-64,120,35,-69,-154,-165,-107
-151,-137,7,141,-83,-58,126,40,-63,-154,-165,-113
-151,-137,7,141,-83,-58,126,40,-63,-148,-159,-107
-151,-137,7,141,-83,-58,126,40,-63,-148,-159,-107
-151,-137,7,141,-83,-58,126,40,-63,-142,-147,-95
-151,-137,7,141,-83,-58,132,40,-63,-142,-147,-95
-151,-137,7,141,-83,-58,132,40,-57,-142,-153,-107
-151,-137,7,141,-83,-58,132,40,-57,-142,-153,-107
-151,-137,7,141,-83,-58,138,40,-51,-142,-153,-113
-151,-137,7,141,-83,-58,138,40,-51,-142,-153,-113
-151,-137,7,141,-83,-58,144,40,-51,-142,-153,-119
-151,-137,7,141,-83,-58,144,46,-51,-142,-159,-119
-151,-137,7,141,-83,-58,138,46,-45,-142,-159,-131
-157,-143,7,147,-83,-64,138,46,-45,-142,-159,-131
-157,-143,7,147,-83,-64,144,52,-45,-142,-159,-125
-157,-143,7,147,-83,-64,150,58,-39,-142,-159,-125
-157,-143,7,147,-83,-64,156,58,-39,-142,-159,-119
-151,-143,1,147,-77,-64,162,58,-39,-148,-159,-119
-157,-143,7,147,-83,-64,162,64,-39,-148,-159,-119
-157,-143,7,147,-83,-64,162,64,-39,-148,-159,-119
-175,-143,25,159,-101,-52,168,70,-39,-148,-159,-119
-175,-143,25,159,-101,-52,168,70,-39,-148,-159,-119
-169,-149,13,159,-95,-64,168,76,-39,-154,-159,-113
-169,-149,13,159,-95,-64,180,82,-39,-154,-165,-113
-163,-155,1,159,-83,-70,180,82,-39,-160,-165,-107
-163,-155,1,159,-83,-70,180,82,-39,-160,-171,-107
-163,-155,1,159,-83,-70,180,82,-45,-154,-171,-113
-169,-155,7,159,-89,-70,186,82,-45,-160,-165,-113
-169,-155,7,159,-89,-70,186,82,-51,-154,-159,-125
-169,-155,7,159,-89,-70,186,94,-51,-154,-153,-125
-175,-149,19,159,-101,-58,192,106,-45,-160,-159,-125
-175,-149,19,159,-101,-58,192,106,-45,-160,-165,-125
-175,-149,19,159,-101,-58,198,112,-39,-166,-171,-131
-175,-149,19,159,-101,-58,198,112,-39,-166,-177,-131
-175,-149,19,159,-101,-58,204,118,-33,-160,-177,-131
-175,-149,19,159,-101,-58,204,130,-33,-160,-177,-131
-175,-149,19,159,-101,-58,210,124,-33,-154,-171,-131
-175,-149,19,159,-101,-58,210,124,-33,-154,-171,-137
-175,-149,19,159,-101,-58,216,124,-39,-160,-177,-143
-175,-143,25,159,-101,-52,216,136,-39,-160,-177,-143
-175,-143,25,159,-101,-52,228,142,-39,-166,-177,-137
-187,-143,37,165,-113,-46,234,148,-39,-166,-177,-137
-187,-143,37,165,-113,-46,234,154,-33,-166,-177,-143
-181,-143,31,159,-107,-52,234,160,-33,-166,-177,-149
-181,-143,31,159,-107,-52,240,166,-21,-166,-177,-155
-187,-137,43,159,-119,-40,240,172,-21,-166,-177,-161
-187,-137,43,159,-119,-40,246,172,-21,-160,-183,-161
-187,-137,43,159,-119,-40,252,178,-15,-160,-183,-161
-187,-131,49,159,-119,-34,258,184,-15,-160,-189,-149
-187,-131,49,159,-119,-34,258,190,-9,-154,-189,-143
-193,-137,49,165,-125,-40,264,202,-9,-154,-183,-143
-193,-137,49,165,-125,-40,264,208,-9,-154,-183,-149
-199,-131,61,165,-131,-29,264,220,-4,-148,-177,-149
-199,-131,61,165,-131,-29,276,244,-4,-142,-171,-149
-199,-125,67,159,-137,-29,282,250,-4,-136,-159,-143
-199,-125,67,159,-137,-29,282,250,2,-136,-159,-143
-193,-113,73,153,-137,-29,282,256,2,-136,-153,-137
-193,-107,79,147,-137,-23,288,262,8,-130,-153,-137
-193,-107,79,147,-137,-23,294,274,14,-124,-153,-131
-193,-107,79,147,-137,-23,300,286,20,-118,-147,-131
-193,-95,91,141,-143,-11,300,292,26,-112,-147,-119
-193,-95,91,141,-143,-11,300,292,32,-106,-135,-119
-187,-89,91,135,-143,-5,306,304,38,-106,-135,-125
-187,-83,97,135,-143,1,306,316,44,-100,-129,-125
-175,-89,79,129,-131,-11,312,328,50,-100,-129,-119
-175,-83,85,129,-131,-5,318,334,62,-88,-129,-113
-181,-77,97,129,-143,1,312,334,62,-76,-117,-101
-175,-71,97,123,-137,7,318,352,74,-70,-111,-95
-175,-65,103,117,-143,13,312,346,74,-58,-93,-89
-163,-59,97,111,-131,13,312,358,80,-52,-93,-89
-157,-47,103,99,-131,19,312,364,86,-46,-87,-89
-157,-42,109,99,-137,25,312,370,98,-34,-81,-89
-151,-42,109,93,-131,31,312,376,104,-22,-69,-71
-151,-42,115,87,-131,37,312,382,116,-10,-63,-59
-139,-36,109,81,-125,37,318,388,128,1,-57,-59
-139,-30,115,75,-125,43,318,388,128,1,-45,-47
-133,-24,115,69,-125,43,318,400,134,1,-39,-35
-133,-12,127,63,-131,55,312,400,140,13,-27,-29
-139,-6,139,63,-137,67,300,388,146,13,-27,-29
-127,0,133,57,-131,67,294,388,152,31,-9,-23
-133,6,145,57,-137,73,282,382,158,31,-15,-17
-133,12,151,51,-143,79,276,370,164,43,-3,-17
-127,12,145,51,-137,79,276,370,170,49,3,-5
-115,18,139,39,-125,79,258,364,176,61,15,1
-109,18,133,39,-119,73,264,358,176,67,21,12
-103,24,133,33,-119,79,258,352,176,73,27,12
-103,24,133,33,-119,79,246,352,182,85,32,12
-103,30,139,33,-119,85,234,334,188,91,32,18
-97,36,139,33,-119,85,228,328,194,103,38,18
-97,42,145,33,-119,91,216,322,194,109,50,24
-91,48,145,28,-119,97,204,310,194,109,56,30
-79,54,139,22,-107,97,192,298,194,115,62,36
-73,60,139,16,-107,97,180,286,194,121,68,42
-67,60,133,10,-101,97,168,280,194,127,74,42
-73,60,139,16,-107,97,162,268,200,133,74,60
-73,66,145,10,-107,103,156,256,200,133,80,66
-79,66,151,16,-113,109,144,232,194,133,80,72
-67,66,139,10,-101,103,132,220,188,133,80,72
-67,60,133,10,-101,97,120,202,182,133,92,72
-67,60,133,10,-101,97,108,190,182,133,92,78
-67,42,115,22,-89,79,102,184,176,133,98,72
-61,36,103,22,-83,67,90,172,176,127,98,60
-55,36,97,16,-77,67,84,154,170,121,86,60
-55,36,97,16,-77,67,72,142,158,115,80,54
-43,30,79,16,-59,55,60,130,152,109,80,54
-43,24,73,16,-59,49,60,130,146,103,74,54
-49,18,73,22,-59,43,54,118,134,91,68,54
-49,12,67,28,-59,37,48,106,128,85,68,42
-61,6,73,33,-65,37,42,106,122,79,62,42
-61,0,67,33,-65,31,36,88,116,73,56,36
-55,-6,55,33,-53,25,24,76,110,67,44,36
-55,-12,49,33,-53,19,18,64,98,61,38,30
-55,-24,37,33,-47,7,18,58,86,55,32,12
-55,-24,37,33,-47,7,18,40,74,43,32,12
-49,-30,25,33,-35,-5,18,40,68,37,32,12
-49,-36,19,33,-35,-11,18,40,68,25,32,12
-49,-42,13,39,-29,-17,18,40,68,25,27,18
-55,-42,13,45,-35,-17,18,40,56,13,21,12
-61,-42,13,51,-41,-23,18,40,44,1,15,12
-61,-47,7,51,-35,-29,18,35,44,1,9,7
-67,-53,7,57,-41,-29,18,35,38,1,3,7
-67,-59,1,63,-35,-29,18,23,32,-4,-9,1
-61,-65,-11,63,-29,-34,13,17,26,-16,-15,-5
-61,-65,-11,63,-29,-34,7,17,20,-22,-27,-11
-55,-71,-17,63,-17,-40,7,5,14,-34,-45,-23
-55,-77,-17,63,-17,-46,13,-1,8,-40,-51,-29
-61,-71,-17,63,-23,-40,7,-1,-4,-40,-57,-29
-61,-77,-17,69,-23,-46,7,-1,-4,-46,-57,-29
-67,-71,-11,69,-29,-34,1,-7,-4,-52,-57,-29
-67,-77,-17,69,-29,-40,-5,-13,-4,-52,-57,-41
-73,-83,-17,75,-29,-46,1,-13,-4,-52,-51,-35
-73,-83,-17,75,-29,-46,7,-13,-9,-52,-63,-29
-79,-89,-17,81,-35,-46,13,-7,-4,-52,-57,-23
-79,-89,-17,81,-35,-46,13,-7,-4,-58,-57,-23
-73,-89,-17,81,-29,-52,7,-7,-9,-58,-57,-23
-73,-89,-17,81,-29,-52,7,-7,-9,-58,-51,-23
-67,-83,-17,75,-23,-46,7,-19,-15,-64,-51,-23
-67,-83,-17,75,-23,-46,7,-19,-15,-64,-51,-23
-73,-89,-17,81,-29,-52,7,-19,-9,-64,-51,-29
-73,-89,-17,81,-29,-52,7,-25,-9,-64,-45,-29
-79,-95,-17,87,-29,-52,7,-25,-9,-64,-39,-35
-79,-101,-17,87,-29,-58,7,-31,-9,-64,-33,-35
-73,-101,-22,87,-23,-64,1,-31,-15,-70,-45,-41
-73,-101,-22,87,-23,-64,1,-31,-15,-70,-51,-41
-67,-101,-28,81,-17,-64,1,-31,-21,-70,-63,-53
-61,-101,-34,81,-11,-70,1,-31,-21,-70,-75,-53
-67,-95,-22,81,-17,-58,1,-19,-21,-70,-75,-53
-67,-95,-22,81,-17,-58,1,-19,-21,-70,-75,-53
-73,-89,-17,81,-29,-52,1,-13,-21,-70,-75,-53
-79,-89,-17,81,-35,-46,1,-13,-21,-70,-75,-47
-79,-89,-17,81,-35,-46,1,-7,-21,-70,-75,-53
-79,-89,-17,81,-35,-46,7,-7,-21,-70,-75,-59
-79,-89,-17,81,-35,-46,7,-1,-21,-70,-75,-65
-79,-89,-17,81,-35,-46,7,-1,-21,-70,-75,-59
-73,-83,-17,75,-29,-46,7,-1,-21,-70,-69,-53
-73,-83,-17,75,-29,-46,7,-1,-27,-70,-69,-59
-67,-77,-17,69,-29,-40,7,-1,-27,-70,-75,-53
-67,-77,-17,69,-29,-40,7,-1,-21,-70,-75,-53
-73,-83,-17,75,-29,-46,7,5,-21,-64,-69,-53
-73,-89,-17,81,-29,-52,7,5,-21,-64,-69,-53
-85,-95,-17,87,-35,-52,7,5,-27,-58,-63,-53
-85,-101,-17,93,-35,-58,7,5,-27,-58,-63,-53
-85,-101,-17,93,-35,-58,7,11,-27,-58,-57,-47
-85,-101,-17,93,-35,-58,13,11,-27,-58,-57,-47
-85,-101,-17,93,-35,-58,13,11,-27,-58,-51,-41
-79,-101,-17,87,-29,-58,13,11,-27,-58,-51,-41
-79,-101,-17,87,-29,-58,13,11,-27,-58,-57,-47
-79,-101,-17,87,-29,-58,13,17,-21,-64,-57,-53
-85,-95,-17,87,-35,-52,7,23,-21,-64,-63,-59
-85,-95,-17,87,-35,-52,7,23,-27,-64,-75,-59
-91,-101,-17,93,-41,-52,13,23,-27,-64,-75,-59
-91,-101,-17,93,-41,-52,13,23,-27,-64,-81,-59
-91,-107,-17,99,-35,-58,18,17,-27,-58,-75,-53
-91,-107,-17,99,-35,-58,18,17,-27,-58,-75,-53
-85,-107,-17,93,-29,-64,18,17,-21,-58,-69,-47
-91,-107,-17,99,-35,-58,18,23,-15,-52,-69,-47
-85,-107,-17,93,-29,-64,18,29,-9,-52,-63,-35
-85,-107,-17,93,-29,-64,18,29,-9,-52,-63,-35
-91,-107,-17,99,-35,-58,18,29,-15,-52,-63,-35
-91,-107,-17,99,-35,-58,18,29,-15,-52,-63,-35
-97,-107,-17,99,-41,-58,18,29,-21,-52,-63,-35
-91,-107,-17,99,-35,-58,18,29,-21,-52,-63,-35
-91,-101,-17,93,-41,-52,18,29,-21,-58,-69,-41
-97,-101,-11,99,-47,-52,18,29,-21,-58,-69,-47
-97,-95,-5,93,-47,-46,13,29,-21,-58,-75,-59
-91,-89,-5,87,-47,-40,13,29,-21,-58,-81,-65
-85,-95,-17,87,-35,-52,18,35,-21,-58,-75,-59
-85,-95,-17,87,-35,-52,18,35,-15,-58,-75,-59
-79,-101,-17,87,-29,-58,18,40,-15,-52,-69,-53
-79,-101,-17,87,-29,-58,18,40,-21,-52,-63,-53
-79,-95,-17,87,-29,-52,18,40,-15,-52,-63,-47
-79,-95,-17,87,-29,-52,18,35,-15,-52,-63,-47
-79,-89,-17,81,-35,-46,18,35,-9,-52,-63,-47
-79,-83,-11,81,-35,-40,18,35,-9,-52,-63,-53
-91,-83,1,87,-47,-34,18,40,-9,-52,-63,-53
-79,-83,-11,81,-35,-40,18,40,-4,-52,-63,-53
-79,-83,-11,81,-35,-40,18,40,-4,-52,-63,-47
-79,-83,-11,81,-35,-40,18,40,-4,-52,-63,-47
-79,-89,-17,81,-35,-46,18,35,-15,-52,-69,-47
-73,-89,-17,81,-29,-52,18,35,-15,-52,-69,-47
-73,-95,-17,81,-23,-58,18,29,-21,-58,-75,-47
-73,-95,-17,81,-23,-58,18,29,-21,-58,-75,-47
-73,-89,-17,81,-29,-52,18,35,-15,-52,-75,-47
-73,-89,-17,81,-29,-52,18,35,-15,-52,-69,-47
-73,-83,-17,75,-29,-46,18,35,-15,-52,-69,-41
-73,-83,-17,75,-29,-46,18,35,-15,-52,-69,-41
-73,-77,-11,75,-35,-40,18,35,-9,-52,-63,-41
-67,-77,-17,69,-29,-40,18,35,-9,-52,-57,-41
-67,-77,-17,69,-29,-40,18,40,-9,-46,-45,-41
-67,-77,-17,69,-29,-40,18,40,-9,-46,-45,-41
-67,-77,-17,69,-29,-40,18,35,-15,-46,-51,-47
-67,-77,-17,69,-29,-40,18,35,-15,-46,-51,-53
-67,-71,-11,69,-29,-34,13,29,-15,-46,-51,-59
-73,-71,-5,69,-35,-34,13,29,-15,-46,-51,-71
-73,-77,-11,75,-35,-40,13,29,-21,-46,-63,-65
-73,-83,-17,75,-29,-46,13,29,-21,-52,-63,-59
-67,-89,-17,75,-23,-52,13,23,-21,-52,-69,-53
-61,-89,-22,75,-17,-58,13,23,-21,-52,-75,-41
-67,-89,-17,75,-23,-52,7,23,-27,-58,-75,-41
-67,-89,-17,75,-23,-52,7,23,-33,-58,-75,-41
-79,-89,-17,81,-35,-46,7,23,-33,-64,-75,-41
-79,-83,-11,81,-35,-40,7,23,-27,-64,-75,-41
-79,-77,-5,75,-41,-34,13,17,-27,-64,-75,-53
-79,-83,-11,81,-35,-40,13,17,-27,-64,-75,-53
-79,-77,-5,75,-41,-34,7,17,-33,-64,-75,-59
-79,-77,-5,75,-41,-34,7,17,-33,-70,-75,-59
-79,-77,-5,75,-41,-34,13,17,-33,-64,-75,-59
-79,-77,-5,75,-41,-34,13,17,-39,-64,-75,-59
-79,-77,-5,75,-41,-34,18,17,-39,-58,-81,-59
-73,-77,-11,75,-35,-40,18,17,-45,-58,-81,-59
-73,-83,-17,75,-29,-46,13,17,-51,-70,-81,-59
-73,-83,-17,75,-29,-46,13,11,-45,-70,-81,-59
-79,-95,-17,87,-29,-52,1,5,-51,-76,-81,-59
-79,-95,-17,87,-29,-52,1,-7,-63,-82,-81,-59
-73,-89,-17,81,-29,-52,1,-1,-63,-88,-81,-65
-73,-83,-17,75,-29,-46,1,-7,-63,-88,-81,-65
-73,-77,-11,75,-35,-40,1,-7,-63,-94,-81,-65
-73,-77,-11,75,-35,-40,1,-7,-69,-100,-81,-65
-79,-77,-5,75,-41,-34,1,-7,-69,-94,-87,-77
-79,-83,-11,81,-35,-40,1,-7,-69,-94,-87,-77
-85,-83,-5,81,-41,-40,1,5,-69,-88,-93,-83
-85,-83,-5,81,-41,-40,1,5,-69,-94,-93,-83
-85,-83,-5,81,-41,-40,7,-1,-69,-94,-87,-77
-85,-83,-5,81,-41,-40,7,-7,-69,-94,-81,-71
-85,-83,-5,81,-41,-40,13,-13,-69,-88,-75,-65
-91,-83,1,87,-47,-34,7,-19,-75,-88,-69,-71
-97,-89,1,93,-53,-40,7,-19,-75,-94,-75,-77
-91,-89,-5,87,-47,-40,7,-19,-75,-94,-75,-71
-91,-89,-5,87,-47,-40,7,-19,-75,-94,-81,-77
-91,-89,-5,87,-47,-40,7,-31,-75,-94,-87,-77
-97,-89,1,93,-53,-40,7,-37,-87,-100,-93,-83
-97,-89,1,93,-53,-40,7,-37,-87,-100,-99,-83
-97,-89,1,93,-53,-40,7,-37,-93,-106,-105,-95
-97,-95,-5,93,-47,-46,7,-37,-93,-106,-117,-95
-97,-95,-5,93,-47,-46,7,-31,-87,-112,-117,-89
-97,-89,1,93,-53,-40,7,-31,-87,-112,-117,-89
-91,-89,-5,87,-47,-40,7,-31,-87,-118,-117,-83
-85,-89,-11,87,-41,-46,7,-31,-87,-118,-117,-83
-85,-95,-17,87,-35,-52,1,-37,-93,-118,-111,-89
-85,-101,-17,93,-35,-58,1,-37,-93,-118,-111,-89
-91,-101,-17,93,-41,-52,1,-43,-93,-118,-111,-95
-85,-101,-17,93,-35,-58,1,-43,-93,-118,-111,-95
-85,-95,-17,87,-35,-52,1,-43,-93,-118,-111,-89
-91,-95,-11,93,-41,-46,1,-43,-93,-118,-111,-89
-97,-101,-11,99,-47,-52,1,-43,-93,-124,-111,-83
-97,-101,-11,99,-47,-52,1,-43,-93,-124,-105,-89
-97,-101,-11,99,-47,-52,1,-43,-93,-124,-105,-89
-91,-101,-17,93,-41,-52,1,-43,-93,-124,-105,-89
-85,-101,-17,93,-35,-58,1,-43,-93,-118,-105,-89
-85,-101,-17,93,-35,-58,1,-43,-99,-112,-111,-89
-97,-101,-11,99,-47,-52,1,-43,-99,-118,-105,-83
-97,-101,-11,99,-47,-52,1,-43,-99,-112,-105,-83
-103,-95,1,99,-53,-40,1,-43,-99,-118,-99,-77
-103,-95,1,99,-53,-40,1,-43,-99,-118,-99,-77
-97,-101,-11,99,-47,-52,1,-37,-99,-118,-93,-89
-103,-107,-11,105,-47,-52,1,-37,-99,-118,-93,-89
-97,-107,-17,99,-41,-58,1,-37,-99,-124,-93,-95
-97,-101,-11,99,-47,-52,1,-43,-99,-124,-93,-95
-97,-95,-5,93,-47,-46,1,-43,-105,-124,-105,-101
-97,-101,-11,99,-47,-52,1,-43,-105,-118,-111,-107
-103,-95,1,99,-53,-40,1,-37,-111,-118,-123,-113
-103,-95,1,99,-53,-40,1,-37,-111,-118,-129,-119
-103,-101,-5,99,-53,-46,1,-43,-105,-118,-123,-113
-97,-101,-11,99,-47,-52,-5,-43,-105,-118,-123,-107
-97,-107,-17,99,-41,-58,-5,-49,-105,-118,-117,-107
-109,-107,-5,105,-53,-52,-5,-49,-105,-118,-105,-101
-109,-113,-11,111,-53,-58,1,-49,-105,-118,-111,-101
-109,-107,-5,105,-53,-52,1,-49,-105,-118,-111,-101
-97,-113,-17,105,-41,-64,-5,-55,-105,-118,-117,-107
-91,-113,-17,99,-35,-64,-5,-61,-105,-118,-117,-107
-97,-113,-17,105,-41,-64,-5,-55,-105,-118,-117,-107
-91,-113,-17,99,-35,-64,-5,-55,-105,-118,-117,-107
-97,-107,-17,99,-41,-58,-5,-49,-105,-118,-117,-113
-97,-107,-17,99,-41,-58,-5,-49,-105,-118,-117,-113
-97,-107,-17,99,-41,-58,-5,-49,-105,-118,-117,-107
-103,-107,-11,105,-47,-52,-5,-49,-105,-118,-117,-107
-97,-107,-17,99,-41,-58,-5,-49,-105,-118,-111,-101
-97,-107,-17,99,-41,-58,-5,-49,-105,-118,-105,-101
-97,-107,-17,99,-41,-58,-5,-55,-105,-124,-111,-107
-97,-107,-17,99,-41,-58,-5,-49,-105,-124,-111,-107
-109,-107,-5,105,-53,-52,-5,-49,-105,-118,-117,-113
-109,-107,-5,105,-53,-52,-5,-43,-105,-112,-117,-113
-103,-101,-5,99,-53,-46,-5,-49,-105,-112,-111,-107
-103,-101,-5,99,-53,-46,-5,-49,-111,-112,-111,-107
-97,-95,-5,93,-47,-46,-5,-61,-111,-124,-105,-101
-97,-89,1,93,-53,-40,-5,-61,-111,-124,-105,-101
-97,-95,-5,93,-47,-46,-5,-61,-111,-124,-111,-107
-97,-101,-11,99,-47,-52,-5,-61,-105,-124,-111,-107
-97,-107,-17,99,-41,-58,-5,-55,-105,-124,-123,-119
-91,-107,-17,99,-35,-58,-5,-55,-111,-124,-123,-119
-97,-95,-5,93,-47,-46,7,-43,-111,-124,-123,-131
-97,-95,-5,93,-47,-46,-5,-55,-111,-124,-123,-119
-97,-95,-5,93,-47,-46,-11,-49,-123,-124,-123,-113
-109,-101,1,105,-59,-46,1,-49,-111,-124,-123,-101
-115,-107,1,111,-59,-46,1,-37,-105,-112,-105,-101
-109,-107,-5,105,-53,-52,1,-37,-111,-118,-105,-101
-103,-107,-11,105,-47,-52,1,-37,-111,-118,-105,-101
-97,-107,-17,99,-41,-58,1,-37,-117,-124,-105,-101
-91,-107,-17,99,-35,-58,1,-37,-117,-124,-105,-101
-97,-101,-11,99,-47,-52,-5,-49,-117,-130,-111,-107
-97,-101,-11,99,-47,-52,-5,-55,-117,-130,-117,-113
-103,-95,1,99,-53,-40,-11,-67,-117,-136,-123,-119
-103,-95,1,99,-53,-40,-11,-73,-117,-136,-129,-125
-103,-95,1,99,-53,-40,-5,-67,-117,-136,-123,-119
-103,-95,1,99,-53,-40,-5,-67,-117,-136,-117,-119
-103,-95,1,99,-53,-40,1,-61,-117,-136,-111,-113
-103,-95,1,99,-53,-40,1,-61,-117,-136,-105,-113
-103,-101,-5,99,-53,-46,1,-61,-117,-136,-111,-113
-103,-101,-5,99,-53,-46,1,-61,-117,-136,-111,-113
-103,-107,-11,105,-47,-52,1,-61,-117,-136,-117,-113
-103,-107,-11,105,-47,-52,1,-61,-117,-136,-117,-113
-103,-107,-11,105,-47,-52,-5,-61,-123,-142,-123,-113
-103,-107,-11,105,-47,-52,-5,-61,-123,-142,-123,-113
-103,-107,-11,105,-47,-52,-11,-61,-129,-148,-129,-113
-103,-107,-11,105,-47,-52,-11,-61,-129,-148,-129,-113
-97,-101,-11,99,-47,-52,-5,-61,-129,-142,-123,-113
-97,-101,-11,99,-47,-52,-5,-61,-129,-142,-117,-113
-91,-95,-11,93,-41,-46,1,-61,-129,-136,-111,-113
-91,-95,-11,93,-41,-46,1,-61,-129,-136,-105,-113
-97,-95,-5,93,-47,-46,1,-61,-123,-136,-105,-113
-103,-95,1,99,-53,-40,1,-61,-123,-136,-105,-113
-109,-95,7,99,-59,-40,1,-61,-117,-136,-105,-113
-115,-95,13,105,-65,-34,1,-61,-117,-136,-105,-113
-109,-101,1,105,-59,-46,1,-61,-123,-142,-111,-113
-103,-101,-5,99,-53,-46,1,-61,-123,-142,-117,-113
-97,-107,-17,99,-41,-58,1,-61,-129,-148,-123,-113
-91,-107,-17,99,-35,-58,1,-61,-129,-148,-129,-113
-97,-107,-17,99,-41,-58,1,-61,-123,-148,-123,-119
-103,-107,-11,105,-47,-52,1,-61,-123,-148,-123,-119
-109,-107,-5,105,-53,-52,1,-61,-117,-148,-117,-125
-115,-107,1,111,-59,-46,1,-61,-117,-148,-117,-125
-109,-101,1,105,-59,-46,1,-61,-117,-148,-123,-125
-109,-101,1,105,-59,-46,1,-61,-117,-148,-123,-125
-103,-95,1,99,-53,-40,1,-61,-117,-148,-129,-125
-103,-95,1,99,-53,-40,1,-61,-117,-148,-129,-125
-103,-95,1,99,-53,-40,1,-61,-123,-154,-123,-119
-103,-95,1,99,-53,-40,1,-61,-129,-154,-123,-119
-103,-95,1,99,-53,-40,1,-61,-135,-160,-117,-113
-103,-95,1,99,-53,-40,1,-61,-141,-160,-117,-113
-103,-101,-5,99,-53,-46,-5,-61,-135,-160,-123,-119
-103,-101,-5,99,-53,-46,-5,-61,-135,-160,-123,-119
-103,-107,-11,105,-47,-52,-11,-61,-129,-160,-129,-125
-103,-107,-11,105,-47,-52,-11,-61,-129,-160,-129,-125
-103,-107,-11,105,-47,-52,-5,-55,-129,-160,-129,-125
-103,-107,-11,105,-47,-52,-5,-55,-129,-160,-129,-125
-103,-107,-11,105,-47,-52,1,-49,-129,-160,-129,-125
-103,-107,-11,105,-47,-52,1,-49,-129,-160,-129,-125
-103,-101,-5,99,-53,-46,1,-55,-129,-154,-123,-125
-103,-101,-5,99,-53,-46,1,-55,-129,-154,-123,-125
-103,-95,1,99,-53,-40,1,-61,-129,-148,-117,-125
-103,-95,1,99,-53,-40,1,-61,-129,-148,-117,-125
-103,-101,-5,99,-53,-46,1,-55,-129,-154,-117,-125
-103,-101,-5,99,-53,-46,1,-55,-129,-154,-117,-125
-103,-107,-11,105,-47,-52,1,-49,-129,-160,-117,-125
-103,-107,-11,105,-47,-52,1,-49,-129,-160,-117,-125
-103,-107,-11,105,-47,-52,-5,-55,-123,-154,-117,-125
-103,-107,-11,105,-47,-52,-5,-55,-123,-154,-117,-125
-103,-107,-11,105,-47,-52,-11,-61,-117,-148,-117,-125
-103,-107,-11,105,-47,-52,-11,-61,-117,-148,-117,-125
-103,-107,-11,105,-47,-52,-11,-61,-117,-148,-111,-119
-103,-107,-11,105,-47,-52,-11,-61,-117,-148,-111,-119
-103,-107,-11,105,-47,-52,-11,-61,-117,-148,-105,-113
-103,-107,-11,105,-47,-52,-11,-61,-117,-148,-105,-113
-103,-107,-11,105,-47,-52,-5,-61,-123,-148,-99,-119
-103,-107,-11,105,-47,-52,-5,-61,-123,-148,-99,-119
-103,-107,-11,105,-47,-52,1,-61,-129,-148,-93,-125
-103,-107,-11,105,-47,-52,1,-61,-129,-148,-93,-125
-109,-107,-5,105,-53,-52,1,-61,-129,-148,-99,-125
-109,-107,-5,105,-53,-52,1,-61,-129,-148,-111,-131
-115,-107,1,111,-59,-46,1,-61,-129,-148,-117,-131
-109,-107,-5,105,-53,-52,1,-61,-129,-148,-123,-125
-109,-107,-5,105,-53,-52,-5,-61,-129,-154,-129,-131
-109,-107,-5,105,-53,-52,1,-61,-129,-154,-123,-125
-109,-107,-5,105,-53,-52,-5,-55,-129,-160,-123,-131
-109,-107,-5,105,-53,-52,-5,-55,-123,-154,-117,-131
-103,-101,-5,99,-53,-46,-5,-49,-117,-154,-117,-131
-103,-95,1,99,-53,-40,-5,-49,-111,-148,-117,-131
-85,-89,-11,87,-41,-46,1,-49,-105,-148,-117,-131
-85,-89,-11,87,-41,-46,1,-43,-105,-148,-123,-131
-91,-89,-5,87,-47,-40,13,-43,-105,-142,-117,-125
-85,-77,1,81,-47,-34,13,-37,-99,-142,-105,-113
-91,-71,13,81,-53,-29,18,-31,-87,-124,-87,-107
-85,-65,13,75,-53,-29,18,-25,-81,-118,-81,-95
-79,-59,13,69,-47,-29,24,-13,-87,-112,-87,-95
-79,-42,31,57,-59,-11,42,-1,-75,-106,-75,-89
-73,-42,37,51,-53,-5,42,-1,-69,-106,-81,-89
-67,-42,31,45,-47,-5,42,-1,-69,-106,-81,-89
-73,-42,37,51,-53,-5,42,-1,-69,-106,-87,-89
-73,-42,37,51,-53,-5,36,-1,-69,-106,-87,-89
-79,-42,31,57,-59,-11,24,-7,-69,-106,-87,-89
-73,-36,43,45,-59,1,18,-7,-69,-100,-87,-89
-55,-30,31,33,-41,1,7,-7,-63,-88,-75,-83
-43,-24,25,33,-35,1,-5,-7,-51,-82,-75,-71
-26,-12,19,28,-23,1,-23,-7,-39,-64,-51,-65
-26,6,31,16,-23,19,-29,-1,-33,-58,-45,-59
-26,12,43,16,-35,25,-35,5,-33,-46,-33,-47
-43,18,67,22,-53,43,-35,-7,-33,-46,-33,-47
-55,24,85,22,-71,55,-29,-7,-39,-46,-27,-47
-61,18,85,28,-71,49,-29,-25,-45,-52,-27,-47
-61,6,73,33,-65,37,-29,-37,-51,-58,-39,-53
-61,6,73,33,-65,37,-29,-37,-57,-64,-39,-53
-49,-12,43,33,-47,13,-29,-43,-57,-70,-39,-53
-49,-24,31,33,-41,1,-29,-37,-57,-70,-39,-53
-43,-24,25,33,-35,1,-29,-43,-69,-76,-39,-65
-43,-30,19,33,-29,-5,-29,-43,-75,-76,-45,-65
-31,-30,7,33,-17,-11,-41,-61,-87,-82,-39,-65
-31,-36,1,33,-17,-17,-47,-79,-93,-88,-39,-77
-37,-42,-5,33,-17,-29,-59,-73,-93,-94,-57,-83
-31,-42,-11,33,-11,-29,-59,-79,-105,-100,-63,-83
-37,-47,-17,39,-11,-29,-53,-73,-99,-100,-69,-77
-43,-53,-17,45,-17,-29,-47,-67,-93,-100,-69,-77
-43,-53,-17,45,-17,-29,-41,-61,-87,-100,-75,-77
-61,-59,-5,57,-29,-29,-35,-61,-87,-100,-75,-77
-67,-65,-5,63,-35,-29,-35,-67,-99,-118,-87,-83
-79,-83,-11,81,-35,-40,-35,-73,-99,-124,-93,-95
-91,-95,-11,93,-41,-46,-23,-73,-105,-124,-93,-107
-103,-95,1,99,-53,-40,-23,-73,-111,-130,-99,-125
-103,-107,-11,105,-47,-52,-23,-79,-117,-142,-105,-131
-109,-113,-11,111,-53,-58,-23,-85,-117,-142,-123,-137
-115,-119,-11,117,-53,-58,-23,-85,-123,-142,-129,-137
-121,-131,-17,123,-53,-70,-23,-91,-141,-154,-141,-137
-127,-131,-11,129,-59,-64,-35,-97,-141,-160,-147,-137
-121,-131,-17,123,-53,-70,-35,-109,-147,-160,-153,-143
-115,-131,-17,123,-47,-70,-35,-109,-147,-166,-147,-143
-115,-143,-22,129,-41,-82,-35,-109,-147,-166,-147,-143
-109,-143,-28,123,-35,-88,-35,-103,-147,-160,-141,-143
-121,-143,-17,129,-47,-82,-35,-103,-147,-160,-141,-143
-121,-143,-17,129,-47,-82,-29,-103,-153,-166,-141,-143
-115,-143,-22,129,-41,-82,-29,-103,-153,-166,-141,-149
-115,-143,-22,129,-41,-82,-23,-103,-153,-172,-135,-149
-115,-143,-22,129,-41,-82,-23,-103,-153,-172,-147,-149
-127,-143,-17,135,-53,-76,-23,-91,-141,-172,-147,-155
-115,-131,-17,123,-47,-70,-23,-91,-147,-166,-147,-167
-115,-143,-22,129,-41,-82,-11,-79,-147,-166,-147,-155
-115,-143,-22,129,-41,-82,7,-73,-135,-166,-135,-137
-115,-143,-22,129,-41,-82,18,-61,-123,-154,-123,-137
-127,-143,-17,135,-53,-76,18,-37,-123,-148,-123,-137
-115,-143,-22,129,-41,-82,24,-25,-117,-154,-129,-131
-115,-131,-17,123,-47,-70,66,11,-111,-148,-129,-143
-115,-131,-17,123,-47,-70,114,40,-87,-142,-123,-143
-115,-131,-17,123,-47,-70,174,82,-63,-130,-111,-161
-127,-137,-17,129,-59,-70,258,166,-39,-124,-123,-161
-139,-149,-17,141,-65,-76,318,232,-21,-118,-129,-137
-127,-149,-17,135,-53,-82,354,268,-4,-106,-117,-125
-115,-143,-22,129,-41,-82,372,286,-4,-100,-105,-125
-97,-131,-28,111,-29,-82,324,286,8,-106,-105,-131
-79,-101,-17,87,-29,-58,204,256,-4,-100,-105,-143
-55,-77,-17,63,-17,-46,36,196,-4,-82,-87,-131
-49,-53,-11,51,-23,-29,-161,130,-4,-64,-57,-113
-26,-42,-11,33,-6,-29,-329,58,-4,-52,-45,-95
-8,-6,-5,10,-6,-5,-467,5,-4,-46,-51,-83
4,6,-5,-2,0,1,-515,-7,2,-34,-45,-71
10,24,7,-14,-6,19,-515,5,20,-34,-39,-71
22,30,1,-26,6,19,-491,40,44,-10,-33,-77
40,48,1,-44,12,25,-479,70,98,1,-27,-71
40,90,43,-62,-6,67,-485,64,152,37,-3,-53
52,150,91,-98,-11,121,-473,40,212,97,32,-11
88,216,127,-152,-11,175,-497,40,284,187,116,30
118,282,163,-200,-17,223,-551,40,392,301,212,102
166,366,199,-260,-11,283,-599,29,494,439,326,186
214,444,223,-332,-6,337,-683,-73,566,559,470,282
250,510,253,-380,-6,385,-821,-337,542,661,608,390
292,552,253,-422,12,409,-1031,-739,434,745,746,504
388,588,199,-482,90,397,-1271,-1099,308,859,896,624
484,618,127,-548,180,373,-1445,-1297,236,985,1052,744
592,696,103,-644,240,403,-1619,-1441,230,1159,1268,894
652,822,169,-734,234,493,-1745,-1621,236,1369,1496,1062
700,942,241,-818,228,595,-1835,-1711,266,1567,1700,1230
736,1062,319,-902,210,697,-1895,-1771,302,1771,1916,1392
760,1164,397,-956,180,781,-1949,-1819,290,1939,2095,1536
724,1206,475,-962,120,847,-1949,-1855,248,1999,2173,1602
592,1236,643,-914,-17,943,-1853,-1825,230,2011,2155,1596
454,1176,721,-812,-131,949,-1691,-1705,224,1867,1964,1488
352,942,589,-650,-113,769,-1481,-1531,122,1489,1526,1188
250,690,439,-470,-89,565,-1241,-1321,8,1069,1052,828
160,504,343,-332,-89,427,-1019,-1111,-27,751,704,576
70,402,325,-230,-125,367,-833,-943,-87,493,446,378
4,318,307,-164,-149,313,-695,-823,-189,229,224,210
-49,246,301,-92,-179,271,-557,-721,-249,37,80,120
-79,186,265,-44,-173,223,-455,-613,-279,-58,9,48
-97,132,229,-8,-167,181,-353,-505,-273,-118,-33,12
-97,102,205,4,-149,151,-287,-433,-249,-124,-33,-11
-109,60,175,33,-143,115,-233,-355,-219,-100,-39,-17
-103,30,139,33,-119,85,-173,-289,-183,-100,-45,-41
-103,-6,103,45,-101,49,-119,-235,-153,-88,-45,-47
-109,-18,97,57,-101,37,-95,-199,-129,-88,-51,-53
-103,-30,79,57,-89,25,-65,-169,-123,-88,-57,-71
-109,-42,73,69,-89,13,-35,-145,-117,-82,-69,-95
-109,-42,67,69,-89,7,-11,-103,-99,-94,-81,-101
-121,-59,55,87,-89,-11,18,-85,-87,-100,-87,-95
-127,-77,43,99,-89,-23,36,-61,-87,-106,-99,-101
-139,-77,55,105,-101,-17,48,-55,-87,-124,-105,-107
-145,-71,67,105,-107,-11,54,-43,-75,-130,-105,-113
-145,-77,61,111,-107,-17,60,-31,-81,-142,-117,-113
-145,-89,49,117,-101,-29,72,-19,-81,-148,-117,-119
-139,-101,31,117,-89,-29,72,-19,-87,-154,-123,-125
-139,-113,19,123,-83,-40,84,-7,-87,-160,-123,-131
-139,-113,19,123,-83,-40,90,11,-87,-160,-129,-137
-139,-107,25,123,-83,-34,96,11,-87,-160,-129,-143
-139,-101,31,117,-89,-29,102,23,-87,-160,-129,-149
-139,-95,37,117,-89,-29,108,29,-81,-166,-129,-149
-145,-101,37,123,-95,-29,114,29,-81,-160,-135,-149
-145,-101,37,123,-95,-29,120,35,-75,-160,-135,-149
-145,-107,31,123,-89,-34,120,35,-75,-154,-141,-149
-139,-107,25,123,-83,-34,126,35,-75,-154,-141,-149
-133,-107,19,117,-77,-40,126,35,-75,-154,-141,-149
-139,-107,25,123,-83,-34,132,40,-75,-154,-141,-155
-133,-101,25,117,-83,-34,126,40,-75,-154,-141,-155
-133,-101,25,117,-83,-34,126,40,-75,-154,-141,-155
-139,-107,25,123,-83,-34,138,40,-69,-148,-135,-149
-139,-107,25,123,-83,-34,138,40,-69,-148,-135,-149
-145,-113,25,129,-89,-40,144,40,-69,-142,-129,-149
-145,-113,25,129,-89,-40,150,40,-69,-142,-129,-149
-145,-107,31,123,-89,-34,150,40,-69,-148,-129,-155
-145,-107,31,123,-89,-34,150,40,-69,-148,-129,-155
-145,-101,37,123,-95,-29,156,46,-69,-154,-129,-155
-151,-101,43,123,-101,-29,162,52,-63,-154,-129,-161
-145,-107,31,123,-89,-34,162,46,-69,-154,-135,-161
-145,-107,31,123,-89,-34,162,46,-69,-154,-135,-161
-139,-113,19,123,-83,-40,162,40,-75,-154,-135,-155
-139,-113,19,123,-83,-40,168,40,-75,-154,-135,-155
-139,-107,25,123,-83,-34,168,52,-75,-154,-135,-155
-139,-107,25,123,-83,-34,168,52,-75,-154,-135,-155
-139,-101,31,117,-89,-29,174,58,-75,-154,-129,-149
-139,-101,31,117,-89,-29,174,64,-75,-154,-129,-149
-139,-107,25,123,-83,-34,186,58,-75,-154,-135,-155
-139,-107,25,123,-83,-34,186,64,-75,-154,-141,-155
-139,-113,19,123,-83,-40,186,58,-69,-154,-147,-167
-145,-119,19,129,-83,-46,186,58,-69,-154,-147,-167
-151,-119,25,135,-89,-40,186,64,-69,-148,-141,-167
-151,-119,25,135,-89,-40,192,70,-63,-148,-141,-167
-157,-119,31,135,-95,-40,192,70,-63,-142,-135,-167
-151,-119,25,135,-89,-40,198,70,-63,-148,-135,-167
-145,-113,25,129,-89,-40,192,76,-63,-154,-141,-167
-145,-113,25,129,-89,-40,192,76,-63,-154,-141,-167
-151,-107,37,129,-95,-29,192,82,-63,-160,-147,-167
-151,-107,37,129,-95,-29,192,82,-63,-160,-147,-167
-157,-113,37,135,-101,-34,192,94,-57,-154,-141,-167
-157,-113,37,135,-101,-34,204,100,-57,-148,-141,-167
-163,-119,37,141,-101,-34,204,106,-51,-142,-135,-167
-163,-119,37,141,-101,-34,204,106,-51,-136,-135,-167
-157,-119,31,135,-95,-40,204,112,-57,-142,-141,-161
-163,-119,37,141,-101,-34,210,112,-57,-148,-141,-161
-157,-119,31,135,-95,-40,210,118,-63,-154,-141,-161
-157,-119,31,135,-95,-40,210,130,-63,-154,-141,-161
-157,-119,31,135,-95,-40,216,130,-63,-154,-147,-167
-157,-119,31,135,-95,-40,216,130,-63,-154,-147,-167
-151,-125,19,135,-89,-46,222,124,-63,-154,-153,-179
-151,-125,19,135,-89,-46,222,124,-63,-154,-153,-179
-157,-125,25,141,-95,-46,228,142,-57,-148,-153,-173
-157,-125,25,141,-95,-46,228,154,-57,-148,-153,-173
-163,-125,31,141,-101,-40,234,160,-57,-142,-147,-167
-163,-125,31,141,-101,-40,234,160,-57,-142,-147,-173
-157,-119,31,135,-95,-40,240,160,-57,-142,-147,-179
-157,-113,37,135,-101,-34,240,172,-57,-142,-147,-179
-151,-107,37,129,-95,-29,252,178,-51,-142,-141,-173
-163,-107,49,135,-107,-29,258,184,-51,-142,-141,-173
-169,-107,55,135,-113,-29,258,190,-57,-142,-141,-173
-163,-107,49,135,-107,-29,258,196,-57,-142,-141,-173
-169,-107,55,135,-113,-29,258,202,-57,-142,-141,-173
-175,-101,67,135,-125,-23,258,208,-57,-142,-141,-173
-169,-107,55,135,-113,-29,264,214,-57,-136,-141,-173
-169,-107,55,135,-113,-29,270,220,-51,-136,-141,-173
-163,-107,49,135,-107,-29,276,232,-51,-136,-141,-161
-163,-107,49,135,-107,-29,282,238,-45,-130,-141,-155
-157,-107,43,129,-101,-29,288,244,-45,-130,-135,-155
-157,-107,43,129,-101,-29,288,244,-45,-130,-135,-161
-151,-95,49,123,-101,-29,288,250,-39,-124,-129,-161
-151,-95,49,123,-101,-29,300,268,-27,-118,-123,-161
-163,-89,67,123,-119,-17,306,280,-21,-106,-111,-161
-169,-89,73,129,-125,-17,306,280,-15,-106,-111,-161
-175,-77,91,123,-137,1,306,286,-9,-100,-105,-161
-181,-71,103,123,-143,7,312,292,-4,-94,-105,-161
-175,-71,97,123,-137,7,318,298,-4,-94,-111,-155
-175,-71,97,123,-137,7,324,316,-4,-88,-105,-155
-169,-59,103,111,-137,13,324,316,-4,-88,-111,-143
-169,-59,103,111,-137,13,324,316,-4,-82,-99,-143
-163,-53,103,105,-137,19,324,322,8,-70,-93,-137
-163,-47,109,105,-137,25,324,334,14,-64,-87,-137
-151,-53,91,99,-125,13,324,340,26,-52,-81,-119
-151,-47,97,99,-125,19,330,346,38,-40,-81,-113
-151,-42,103,93,-131,25,330,352,38,-28,-69,-107
-145,-42,103,87,-125,25,336,370,50,-22,-63,-101
-139,-42,103,81,-119,31,336,370,50,-10,-45,-101
-127,-36,97,75,-113,31,336,382,56,-4,-45,-101
-127,-24,109,69,-119,43,336,388,62,1,-33,-101
-127,-18,115,63,-119,49,336,394,74,7,-27,-101
-127,-12,121,63,-125,55,336,400,80,25,-9,-83
-127,-6,127,57,-125,61,336,406,92,37,-3,-71
-121,0,127,51,-125,61,330,406,98,43,-3,-77
-121,6,133,51,-125,67,330,406,98,43,9,-65
-121,12,139,45,-131,73,318,412,98,49,9,-59
-121,24,151,39,-137,85,312,412,104,61,21,-53
-121,30,157,39,-137,91,306,400,110,67,27,-41
-109,36,151,33,-131,91,300,400,116,85,32,-29
-109,42,157,33,-131,97,294,394,122,91,32,-11
-109,48,163,33,-137,103,288,382,128,103,44,-5
-103,54,163,33,-131,109,282,376,128,103,50,1
-91,60,157,22,-125,109,264,370,134,115,62,7
-85,66,157,16,-119,109,264,358,128,115,68,12
-79,72,157,10,-119,115,258,352,128,121,74,12
-85,66,157,16,-119,109,246,352,134,133,80,18
-85,72,163,16,-125,115,234,334,140,139,92,30
-85,72,163,16,-125,115,228,328,146,151,98,42
-85,78,169,10,-125,121,216,322,146,157,110,48
-79,84,169,4,-125,127,204,310,152,169,122,48
-67,90,163,-2,-113,127,192,298,152,175,128,48
-61,96,163,-8,-113,127,180,286,158,193,140,48
-55,96,157,-14,-107,127,168,280,158,199,146,42
-55,90,151,-8,-101,121,156,268,158,199,140,48
-55,96,157,-14,-107,127,150,256,158,199,140,54
-55,90,151,-8,-101,121,132,232,146,193,134,48
-43,90,139,-14,-89,115,120,220,140,193,128,48
-37,90,133,-20,-83,109,114,202,128,187,134,54
-37,90,133,-20,-83,109,102,190,128,187,134,60
-31,78,115,-14,-71,97,102,184,116,181,134,60
-26,72,103,-14,-65,85,90,172,116,175,134,48
-31,72,109,-14,-71,91,84,154,110,169,122,42
-31,72,109,-14,-71,91,72,142,98,163,116,36
-31,66,103,-8,-65,85,60,130,92,157,116,30
-31,60,97,-8,-65,79,60,130,86,151,110,30
-37,54,97,-2,-65,73,54,118,80,139,104,36
-37,48,91,4,-65,67,48,106,74,133,104,24
-49,42,97,10,-71,67,42,106,74,127,98,30
-49,36,91,16,-71,61,36,88,68,121,92,24
-49,30,85,16,-65,55,36,82,56,109,80,24
-49,24,79,22,-65,49,30,70,44,103,74,18
-55,12,73,28,-65,43,30,70,26,91,68,12
-55,12,73,28,-65,43,30,52,14,79,62,7
-43,6,55,28,-47,31,24,46,8,67,50,7
-43,0,49,28,-47,25,24,46,8,55,50,7
-37,-6,37,28,-35,13,24,40,8,49,38,7
-43,-12,37,33,-41,13,24,40,-4,37,32,-5
-55,-18,43,33,-47,13,24,40,-4,31,32,-11
-55,-24,37,33,-47,7,24,40,-4,31,32,-17
-67,-30,43,39,-53,7,24,40,-4,25,32,-17
-67,-36,37,45,-53,1,18,35,-4,19,27,-23
-67,-42,25,51,-47,-11,18,35,-15,13,27,-23
-67,-42,25,51,-47,-11,18,35,-21,7,21,-29
-67,-47,13,57,-41,-23,18,29,-33,1,9,-35
-67,-53,7,57,-41,-29,18,23,-39,1,9,-41
-67,-47,13,57,-41,-23,18,23,-39,1,9,-35
-67,-53,7,57,-41,-29,18,23,-39,1,9,-35
-67,-47,13,57,-41,-23,18,17,-33,1,15,-29
-67,-53,7,57,-41,-29,18,11,-39,1,15,-41
-61,-53,1,57,-35,-29,18,5,-45,1,15,-41
-61,-53,1,57,-35,-29,18,5,-51,1,3,-35
-55,-53,-5,51,-29,-29,18,5,-51,-4,3,-35
-55,-53,-5,51,-29,-29,18,5,-51,-10,3,-35
-61,-65,-11,63,-29,-34,18,11,-57,-16,-3,-41
-61,-65,-11,63,-29,-34,18,11,-57,-16,-3,-41
-67,-71,-11,69,-29,-34,18,5,-63,-28,-9,-47
-67,-71,-11,69,-29,-34,18,5,-63,-28,-15,-47
-67,-65,-5,63,-35,-29,18,-1,-63,-22,-15,-41
-67,-65,-5,63,-35,-29,18,-7,-63,-22,-15,-41
-67,-59,1,63,-35,-29,18,-13,-69,-16,-9,-35
-67,-65,-5,63,-35,-29,18,-19,-69,-16,-9,-35
-67,-65,-5,63,-35,-29,13,-13,-63,-16,-3,-35
-67,-65,-5,63,-35,-29,13,-13,-63,-16,-3,-35
-67,-65,-5,63,-35,-29,13,-7,-57,-10,3,-41
-61,-65,-11,63,-29,-34,13,-7,-57,-10,-3,-41
-61,-65,-11,63,-29,-34,13,-7,-63,-16,-3,-41
-61,-65,-11,63,-29,-34,13,-7,-63,-16,-3,-41
-61,-65,-11,63,-29,-34,13,-13,-69,-22,-3,-41
-67,-65,-5,63,-35,-29,13,-13,-69,-22,-3,-35
-61,-71,-17,63,-23,-40,13,-7,-63,-22,-3,-29
-61,-71,-17,63,-23,-40,18,-7,-63,-22,-3,-35
-55,-77,-17,63,-17,-46,18,-1,-57,-22,-3,-29
-55,-77,-17,63,-17,-46,18,-1,-57,-22,-3,-23
-61,-77,-17,69,-23,-46,18,-1,-57,-16,3,-29
-61,-77,-17,69,-23,-46,18,-1,-63,-16,3,-35
-67,-77,-17,69,-29,-40,18,-1,-63,-10,-3,-41
-67,-77,-17,69,-29,-40,18,-1,-57,-10,-3,-41
-67,-77,-17,69,-29,-40,18,5,-57,-10,-3,-35
-67,-77,-17,69,-29,-40,18,5,-57,-10,-3,-35
-73,-77,-11,75,-35,-40,18,5,-63,-10,-3,-29
-73,-77,-11,75,-35,-40,18,5,-63,-10,-3,-29
-79,-77,-5,75,-41,-34,18,17,-57,-10,3,-29
-79,-77,-5,75,-41,-34,24,17,-57,-10,3,-29
-85,-77,1,81,-47,-34,24,23,-51,-10,9,-29
-79,-77,-5,75,-41,-34,24,23,-51,-10,9,-29
-73,-83,-17,75,-29,-46,30,23,-51,-10,3,-35
-73,-83,-17,75,-29,-46,30,29,-45,-16,3,-41
-73,-83,-17,75,-29,-46,30,35,-45,-16,-3,-47
-73,-83,-17,75,-29,-46,30,35,-51,-16,-15,-47
-73,-83,-17,75,-29,-46,30,35,-45,-16,-15,-47
-73,-83,-17,75,-29,-46,30,35,-45,-16,-21,-47
-67,-83,-17,75,-23,-46,30,29,-39,-10,-15,-41
-67,-83,-17,75,-23,-46,36,29,-39,-10,-15,-41
-67,-83,-17,75,-23,-46,30,23,-39,-10,-3,-35
-73,-83,-17,75,-29,-46,30,29,-33,-4,-3,-35
-73,-83,-17,75,-29,-46,24,29,-33,-4,9,-23
-73,-83,-17,75,-29,-46,24,29,-33,-4,9,-23
-73,-89,-17,81,-29,-52,24,29,-33,-4,9,-29
-73,-89,-17,81,-29,-52,24,29,-33,-4,9,-29
-73,-95,-17,81,-23,-58,24,29,-33,-4,9,-35
-67,-95,-22,81,-17,-58,24,29,-33,-4,9,-35
-61,-89,-22,75,-17,-58,24,35,-33,-10,3,-35
-67,-89,-17,75,-23,-52,24,35,-33,-10,-3,-35
-61,-83,-17,69,-17,-52,24,40,-33,-10,-9,-41
-55,-77,-17,63,-17,-46,24,40,-33,-10,-21,-41
-61,-77,-17,69,-23,-46,30,40,-33,-10,-15,-35
-67,-77,-17,69,-29,-40,30,40,-27,-10,-9,-29
-73,-77,-11,75,-35,-40,36,40,-27,-4,-3,-23
-79,-77,-5,75,-41,-34,36,40,-33,-4,9,-17
-73,-77,-11,75,-35,-40,30,40,-33,1,9,-17
-67,-77,-17,69,-29,-40,30,35,-33,1,9,-17
-61,-77,-17,69,-23,-46,24,35,-33,1,9,-23
-55,-71,-17,63,-17,-40,24,35,-33,1,9,-29
-73,-77,-11,75,-35,-40,24,35,-39,1,9,-23
-61,-77,-17,69,-23,-46,24,35,-33,1,9,-23
-67,-83,-17,75,-23,-46,24,29,-39,1,9,-11
-67,-83,-17,75,-23,-46,24,29,-39,1,9,-11
-61,-83,-17,69,-17,-52,24,29,-39,1,9,-11
-55,-83,-22,69,-11,-52,18,29,-39,1,9,-11
-49,-83,-28,63,-6,-58,18,29,-33,1,9,-11
-49,-83,-28,63,-6,-58,18,29,-33,1,9,-11
-55,-83,-22,69,-11,-52,18,35,-27,1,9,-17
-61,-83,-17,69,-17,-52,18,35,-27,1,15,-17
-67,-83,-17,75,-23,-46,18,35,-27,1,15,-17
-73,-83,-17,75,-29,-46,18,35,-27,1,15,-17
-67,-77,-17,69,-29,-40,18,29,-33,1,9,-11
-61,-77,-17,69,-23,-46,18,29,-33,1,15,-11
-55,-77,-17,63,-17,-46,18,29,-45,1,15,-5
-55,-77,-17,63,-17,-46,18,29,-45,1,15,-5
-55,-83,-22,69,-11,-52,18,29,-45,1,15,-5
-55,-83,-22,69,-11,-52,18,29,-45,1,15,-5
-55,-83,-22,69,-11,-52,18,29,-39,1,21,-5
-61,-83,-17,69,-17,-52,18,29,-39,1,21,-11
-61,-77,-17,69,-23,-46,18,29,-45,1,15,-11
-61,-83,-17,69,-17,-52,18,29,-45,1,15,-11
-55,-77,-17,63,-17,-46,18,23,-45,1,15,-11
-49,-77,-22,63,-11,-52,18,23,-45,1,9,-5
-49,-83,-28,63,-6,-58,18,23,-45,1,15,-5
-49,-83,-28,63,-6,-58,18,23,-51,1,15,-5
-55,-89,-28,69,-11,-58,18,23,-45,7,21,-5
-55,-83,-22,69,-11,-52,18,23,-39,7,21,-5
-55,-83,-22,69,-11,-52,18,17,-39,7,21,-11
-55,-89,-28,69,-11,-58,18,17,-39,7,21,-11
-55,-89,-28,69,-11,-58,18,17,-45,7,21,-11
-55,-89,-28,69,-11,-58,18,17,-45,1,21,-11
-55,-89,-28,69,-11,-58,18,17,-51,1,15,-11
-55,-89,-28,69,-11,-58,18,17,-57,1,9,-11
-55,-89,-28,69,-11,-58,18,17,-63,1,-3,-11
-49,-89,-34,69,-6,-64,18,17,-69,1,-9,-11
-49,-83,-28,63,-6,-58,18,17,-63,-4,-3,-11
-49,-83,-28,63,-6,-58,18,17,-57,-4,-3,-11
-55,-83,-22,69,-11,-52,13,11,-51,-4,3,-11
-55,-83,-22,69,-11,-52,13,5,-63,-10,3,-11
-55,-89,-28,69,-11,-58,13,5,-63,-10,3,-17
-55,-83,-22,69,-11,-52,13,-1,-63,-10,3,-17
-61,-89,-22,75,-17,-58,13,-7,-63,-10,3,-17
-61,-89,-22,75,-17,-58,13,-7,-69,-16,3,-17
-61,-83,-17,69,-17,-52,18,-7,-69,-10,3,-17
-61,-89,-22,75,-17,-58,18,-7,-69,-10,3,-17
-61,-83,-17,69,-17,-52,18,5,-69,-4,3,-11
-61,-83,-17,69,-17,-52,18,5,-69,-10,3,-11
-61,-89,-22,75,-17,-58,18,11,-63,-10,3,-17
-61,-89,-22,75,-17,-58,18,5,-63,-10,3,-17
-61,-95,-28,75,-11,-64,18,11,-57,-4,3,-23
-67,-95,-22,81,-17,-58,18,5,-63,-4,3,-35
-73,-101,-22,87,-23,-64,18,-1,-69,-10,3,-29
-67,-101,-28,81,-17,-64,18,-1,-69,-10,3,-17
-67,-101,-28,81,-17,-64,18,-7,-75,-10,3,-11
-67,-101,-28,81,-17,-64,18,-19,-75,-10,-3,-5
-67,-95,-22,81,-17,-58,18,-19,-81,-10,-3,-11
-61,-95,-28,75,-11,-64,18,-19,-81,-10,-3,-17
-55,-89,-28,69,-11,-58,18,-13,-81,-10,-3,-29
-49,-95,-40,69,-6,-70,18,-13,-81,-10,-9,-35
-61,-95,-28,75,-11,-64,18,-13,-81,-16,-15,-35
-67,-89,-17,75,-23,-52,18,-13,-81,-16,-15,-35
-73,-89,-17,81,-29,-52,18,-19,-87,-22,-21,-35
-73,-89,-17,81,-29,-52,18,-19,-87,-22,-21,-35
-67,-95,-22,81,-17,-58,13,-19,-93,-22,-15,-29
-67,-101,-28,81,-17,-64,13,-19,-93,-22,-15,-29
-67,-101,-28,81,-17,-64,13,-19,-93,-22,-15,-23
-61,-101,-34,81,-11,-70,13,-19,-93,-22,-15,-23
-61,-95,-28,75,-11,-64,13,-19,-93,-22,-15,-23
-67,-95,-22,81,-17,-58,13,-19,-93,-22,-15,-23
-73,-101,-22,87,-23,-64,13,-19,-93,-28,-15,-23
-73,-101,-22,87,-23,-64,13,-19,-93,-28,-9,-29
-73,-101,-22,87,-23,-64,13,-25,-93,-28,-9,-29
-67,-101,-28,81,-17,-64,13,-25,-93,-34,-9,-29
-61,-101,-34,81,-11,-70,13,-31,-93,-28,-9,-29
-61,-101,-34,81,-11,-70,13,-31,-99,-28,-15,-29
-67,-101,-28,81,-17,-64,13,-25,-99,-34,-21,-29
-67,-101,-28,81,-17,-64,13,-25,-99,-28,-21,-29
-67,-95,-22,81,-17,-58,13,-19,-99,-34,-27,-29
-67,-95,-22,81,-17,-58,13,-19,-99,-34,-27,-29
-67,-101,-28,81,-17,-64,13,-19,-99,-34,-21,-35
-73,-107,-28,87,-17,-70,13,-19,-99,-34,-21,-35
-73,-107,-28,87,-17,-70,13,-25,-99,-40,-21,-35
-73,-101,-22,87,-23,-64,13,-31,-99,-40,-21,-35
-67,-95,-22,81,-17,-58,18,-31,-99,-40,-21,-35
-67,-101,-28,81,-17,-64,18,-31,-99,-34,-21,-35
-67,-95,-22,81,-17,-58,18,-25,-99,-34,-21,-35
-67,-95,-22,81,-17,-58,18,-25,-99,-34,-21,-35
-67,-95,-22,81,-17,-58,18,-25,-99,-34,-21,-35
-61,-95,-28,75,-11,-64,13,-25,-99,-34,-27,-35
-61,-95,-28,75,-11,-64,7,-25,-105,-34,-27,-41
-73,-95,-17,81,-23,-58,7,-25,-105,-34,-21,-41
-73,-101,-22,87,-23,-64,13,-19,-105,-34,-21,-35
-73,-95,-17,81,-23,-58,13,-19,-105,-34,-21,-35
-61,-101,-34,81,-11,-70,7,-19,-105,-34,-21,-35
-55,-101,-40,75,-6,-70,7,-25,-105,-34,-21,-35
-55,-101,-40,75,-6,-70,7,-25,-111,-34,-21,-29
-49,-101,-46,75,-6,-76,7,-25,-111,-34,-21,-29
-49,-95,-40,69,-6,-70,7,-25,-117,-34,-21,-29
-49,-95,-40,69,-6,-70,7,-25,-117,-34,-21,-29
-61,-95,-28,75,-11,-64,7,-25,-111,-34,-27,-29
-67,-95,-22,81,-17,-58,7,-25,-111,-34,-27,-29
-73,-95,-17,81,-23,-58,7,-25,-105,-34,-27,-29
-73,-95,-17,81,-23,-58,7,-25,-105,-34,-21,-29
-61,-101,-34,81,-11,-70,7,-31,-105,-40,-15,-29
-61,-101,-34,81,-11,-70,7,-25,-105,-40,-15,-29
-61,-107,-40,81,-6,-76,7,-25,-105,-34,-9,-29
-61,-107,-40,81,-6,-76,7,-19,-105,-28,-9,-29
-61,-107,-40,81,-6,-76,7,-25,-105,-28,-9,-29
-61,-107,-40,81,-6,-76,7,-25,-111,-28,-9,-29
-61,-107,-40,81,-6,-76,7,-37,-111,-40,-9,-29
-61,-101,-34,81,-11,-70,7,-37,-111,-40,-9,-29
-61,-101,-34,81,-11,-70,7,-37,-111,-40,-9,-29
-61,-107,-40,81,-6,-76,7,-37,-105,-40,-9,-29
-61,-107,-40,81,-6,-76,7,-31,-105,-40,-15,-35
-55,-107,-46,81,-6,-76,7,-31,-111,-40,-15,-35
-37,-107,-64,69,6,-88,7,-31,-111,-40,-15,-35
-49,-107,-52,75,-6,-82,7,-31,-111,-40,-15,-35
-49,-107,-52,75,-6,-82,13,-37,-99,-40,-15,-29
-61,-113,-46,87,-6,-82,18,-25,-99,-40,-15,-17
-55,-119,-58,87,-6,-88,13,-25,-105,-40,-9,-17
-61,-113,-46,87,-6,-82,13,-25,-105,-34,-3,-23
-67,-113,-40,87,-11,-76,13,-25,-105,-34,-3,-23
-73,-107,-28,87,-17,-70,13,-25,-105,-28,3,-29
-79,-107,-22,93,-23,-64,13,-25,-105,-28,3,-29
-73,-107,-28,87,-17,-70,7,-25,-105,-34,3,-23
-67,-107,-34,87,-11,-70,7,-25,-105,-34,3,-23
-61,-107,-40,81,-6,-76,1,-25,-105,-40,3,-17
-55,-107,-46,81,-6,-76,1,-25,-105,-40,3,-17
-61,-107,-40,81,-6,-76,7,-25,-105,-40,-3,-23
-61,-107,-40,81,-6,-76,7,-25,-105,-40,-9,-23
-67,-107,-34,87,-11,-70,13,-25,-105,-40,-15,-29
-67,-107,-34,87,-11,-70,13,-25,-105,-40,-21,-29
-67,-107,-34,87,-11,-70,13,-25,-111,-40,-21,-23
-67,-107,-34,87,-11,-70,13,-25,-111,-40,-21,-23
-67,-107,-34,87,-11,-70,13,-25,-117,-40,-21,-17
-67,-107,-34,87,-11,-70,13,-25,-117,-40,-21,-17
-67,-107,-34,87,-11,-70,13,-25,-111,-40,-15,-17
-67,-107,-34,87,-11,-70,13,-25,-111,-40,-15,-17
-67,-107,-34,87,-11,-70,13,-25,-105,-40,-9,-17
-67,-107,-34,87,-11,-70,13,-25,-105,-40,-9,-17
-67,-107,-34,87,-11,-70,13,-25,-105,-40,-15,-17
-67,-107,-34,87,-11,-70,13,-25,-105,-40,-15,-17
-67,-107,-34,87,-11,-70,13,-25,-105,-40,-21,-17
-67,-107,-34,87,-11,-70,13,-25,-105,-40,-21,-17
-61,-107,-40,81,-6,-76,7,-25,-105,-40,-21,-23
-61,-107,-40,81,-6,-76,7,-25,-105,-40,-21,-23
-55,-107,-46,81,-6,-76,1,-25,-105,-40,-21,-29
-55,-107,-46,81,-6,-76,1,-25,-105,-40,-21,-29
-55,-107,-46,81,-6,-76,1,-25,-105,-40,-21,-29
-55,-107,-46,81,-6,-76,1,-25,-105,-40,-21,-29
-55,-107,-46,81,-6,-76,1,-25,-105,-40,-21,-29
-55,-107,-46,81,-6,-76,1,-25,-105,-40,-21,-29
-55,-107,-46,81,-6,-76,7,-25,-105,-34,-15,-23
-55,-107,-46,81,-6,-76,7,-25,-105,-34,-15,-23
-55,-107,-46,81,-6,-76,13,-25,-105,-28,-9,-17
-55,-107,-46,81,-6,-76,13,-25,-105,-28,-9,-17
-61,-107,-40,81,-6,-76,7,-25,-105,-28,-3,-17
-61,-107,-40,81,-6,-76,7,-25,-105,-28,-3,-17
-67,-107,-34,87,-11,-70,1,-25,-105,-28,3,-17
-67,-107,-34,87,-11,-70,1,-25,-105,-28,3,-17
-67,-101,-28,81,-17,-64,1,-31,-105,-28,3,-23
-67,-101,-28,81,-17,-64,1,-31,-105,-28,3,-23
-67,-95,-22,81,-17,-58,1,-37,-105,-28,3,-29
-67,-95,-22,81,-17,-58,1,-37,-105,-28,3,-29
-61,-101,-34,81,-11,-70,1,-37,-105,-34,-3,-29
-55,-101,-40,75,-6,-70,1,-37,-105,-34,-9,-29
-49,-107,-52,75,-6,-82,1,-37,-105,-40,-15,-29
-43,-107,-58,75,0,-82,1,-37,-105,-40,-21,-29
-49,-107,-52,75,-6,-82,7,-31,-105,-40,-21,-29
-49,-107,-52,75,-6,-82,7,-31,-105,-40,-21,-29
-55,-107,-46,81,-6,-76,13,-25,-105,-40,-21,-29
-55,-107,-46,81,-6,-76,13,-25,-105,-40,-21,-29
-61,-107,-40,81,-6,-76,13,-25,-105,-40,-15,-29
-61,-107,-40,81,-6,-76,13,-25,-105,-40,-15,-29
-67,-107,-34,87,-11,-70,13,-25,-105,-40,-9,-29
-67,-107,-34,87,-11,-70,13,-25,-105,-40,-9,-29
-67,-107,-34,87,-11,-70,7,-25,-105,-40,-9,-23
-67,-107,-34,87,-11,-70,7,-25,-105,-40,-9,-23
-67,-107,-34,87,-11,-70,1,-25,-105,-40,-9,-17
-67,-107,-34,87,-11,-70,1,-25,-105,-40,-9,-17
-67,-107,-34,87,-11,-70,7,-25,-105,-40,-3,-17
-67,-107,-34,87,-11,-70,7,-25,-105,-40,-3,-17
-67,-107,-34,87,-11,-70,13,-25,-105,-40,3,-17
-67,-107,-34,87,-11,-70,13,-25,-105,-40,3,-17
-61,-107,-40,81,-6,-76,7,-25,-105,-40,-3,-17
-61,-107,-40,81,-6,-76,7,-25,-105,-40,-3,-17
-55,-107,-46,81,-6,-76,1,-25,-105,-40,-9,-17
-55,-107,-46,81,-6,-76,1,-25,-105,-40,-9,-17
-61,-107,-40,81,-6,-76,1,-25,-105,-40,-3,-17
-61,-107,-40,81,-6,-76,1,-25,-105,-40,-3,-17
-67,-107,-34,87,-11,-70,1,-25,-105,-40,3,-17
-67,-107,-34,87,-11,-70,1,-25,-105,-40,-3,-23
-67,-101,-28,81,-17,-64,1,-25,-105,-46,-9,-23
-61,-101,-34,81,-11,-70,1,-25,-105,-46,-9,-17
-61,-95,-28,75,-11,-64,1,-25,-105,-52,-15,-17
-61,-95,-28,75,-11,-64,7,-25,-105,-52,-9,-11
-61,-101,-34,81,-11,-70,7,-19,-99,-46,-3,-11
-61,-101,-34,81,-11,-70,7,-19,-93,-34,3,-11
-61,-101,-34,81,-11,-70,7,-13,-87,-28,3,-11
-61,-95,-28,75,-11,-64,7,-13,-81,-16,3,-11
-49,-95,-40,69,-6,-70,13,-13,-87,-22,3,-17
-49,-95,-40,69,-6,-70,13,-7,-87,-22,-3,-17
-49,-101,-46,75,-6,-76,18,-7,-93,-28,-3,-23
-43,-89,-40,63,-6,-64,18,-1,-87,-28,3,-17
-43,-77,-28,57,-6,-52,18,-1,-75,-22,9,-11
-37,-71,-28,51,-6,-52,18,5,-69,-16,9,-5
-37,-59,-17,45,-6,-40,30,17,-69,-10,3,7
-37,-42,-11,39,-17,-29,48,29,-57,-4,15,12
-43,-42,1,39,-23,-23,60,40,-39,1,21,12
-37,-42,-5,33,-17,-29,60,40,-33,1,27,12
-43,-42,-5,39,-23,-29,66,40,-27,7,32,12
-43,-42,-5,39,-23,-29,60,40,-21,13,32,12
-37,-47,-17,39,-11,-29,48,35,-27,7,32,12
-31,-42,-5,33,-11,-23,30,35,-27,13,32,12
-26,-30,-11,28,-6,-17,18,29,-33,13,32,12
-14,-24,-17,22,-6,-17,18,29,-21,19,32,24
-2,-18,-17,10,6,-17,-5,29,-15,31,44,30
4,0,-11,-2,0,-5,-11,35,-9,37,50,36
4,-6,-17,4,6,-11,-23,35,-9,43,56,48
-8,0,1,4,-6,1,-23,23,-9,43,56,48
-20,6,19,10,-11,13,-17,17,-15,37,56,42
-20,0,13,10,-11,7,-17,-1,-21,31,56,42
-26,0,25,16,-23,13,-17,-7,-27,25,44,30
-26,0,25,16,-23,13,-17,-7,-33,19,44,30
-26,-12,7,22,-11,1,-17,-7,-33,19,50,36
-26,-24,-5,28,-6,-11,-17,-1,-33,19,50,36
-26,-30,-11,28,-6,-17,-17,-1,-39,19,50,30
-26,-36,-17,33,-6,-23,-17,-1,-45,19,44,30
-20,-42,-17,33,0,-29,-23,-13,-51,13,38,36
-20,-42,-22,33,0,-29,-29,-31,-57,7,38,24
-20,-42,-28,33,0,-34,-35,-31,-63,1,32,24
-14,-42,-34,33,6,-34,-35,-37,-75,1,27,24
-8,-47,-46,33,18,-46,-29,-37,-75,1,32,30
-14,-53,-46,33,12,-46,-23,-31,-69,1,32,30
-14,-53,-46,33,12,-46,-17,-25,-63,1,32,30
-26,-59,-34,39,0,-46,-11,-25,-63,1,32,30
-31,-71,-34,51,-6,-52,-11,-31,-69,1,32,18
-43,-89,-40,63,-6,-64,-11,-37,-69,1,27,12
-55,-107,-46,81,-6,-76,1,-37,-69,1,27,7
-67,-107,-34,87,-11,-70,1,-37,-75,1,21,-11
-73,-113,-34,93,-17,-76,1,-43,-81,-16,15,-11
-85,-119,-28,99,-23,-76,1,-49,-81,-16,-3,-17
-91,-119,-22,105,-29,-70,1,-49,-87,-28,-3,-23
-103,-131,-22,117,-35,-76,1,-55,-105,-40,-15,-23
-103,-137,-28,117,-35,-82,-11,-55,-105,-46,-15,-23
-97,-137,-34,117,-29,-88,-11,-67,-111,-46,-21,-29
-97,-143,-40,117,-23,-94,-11,-67,-111,-46,-21,-23
-97,-155,-52,123,-17,-106,-11,-67,-111,-46,-21,-23
-97,-155,-52,123,-17,-106,-17,-73,-117,-46,-21,-23
-109,-155,-40,129,-29,-100,-17,-73,-123,-46,-21,-23
-109,-155,-40,129,-29,-100,-23,-79,-135,-58,-27,-23
-103,-155,-46,129,-23,-100,-23,-79,-141,-58,-27,-29
-97,-155,-52,123,-17,-106,-23,-79,-135,-64,-27,-29
-97,-155,-52,123,-17,-106,-23,-79,-135,-64,-39,-29
-91,-155,-58,123,-11,-106,-23,-79,-129,-64,-39,-23
-91,-155,-58,123,-11,-106,-23,-67,-123,-58,-27,-23
-91,-155,-58,123,-11,-106,1,-43,-99,-46,-15,-23
-103,-167,-58,135,-17,-112,18,-25,-99,-46,-15,-29
-103,-155,-46,129,-23,-100,18,-25,-87,-46,-15,-29
-103,-155,-46,129,-23,-100,30,-13,-87,-52,-27,-29
-103,-155,-46,129,-23,-100,48,11,-93,-46,-21,-35
-103,-155,-46,129,-23,-100,78,40,-75,-40,-21,-23
-103,-155,-46,129,-23,-100,126,70,-63,-34,-15,-23
-91,-143,-46,117,-17,-94,174,106,-39,-22,-27,-29
-91,-161,-64,123,-11,-112,264,178,-15,-16,-15,-29
-91,-161,-64,123,-11,-112,342,256,-9,-10,-21,-41
-91,-161,-64,123,-11,-112,390,298,-4,-10,-21,-41
-79,-155,-70,117,-6,-112,396,322,8,-16,-45,-29
-73,-143,-64,105,-6,-106,360,322,8,-10,-33,-23
-55,-125,-64,87,-6,-94,252,286,20,-4,-9,-23
-31,-89,-52,57,0,-70,72,244,20,1,9,-11
-26,-53,-34,33,0,-40,-137,166,20,19,27,7
10,-42,-46,16,30,-34,-317,82,20,43,38,12
40,-30,-64,-2,54,-40,-443,40,14,49,44,36
52,-6,-52,-20,54,-29,-479,40,26,61,62,48
58,24,-28,-38,42,-5,-479,52,56,73,68,48
58,30,-22,-44,42,1,-461,100,92,97,74,54
76,60,-17,-68,42,19,-449,142,134,127,92,60
76,102,19,-86,24,61,-443,160,188,169,116,78
88,162,67,-122,6,115,-443,154,242,217,140,96
112,216,103,-164,0,163,-455,136,308,277,200,138
142,270,127,-206,0,205,-491,148,404,397,290,210
190,354,163,-266,6,259,-527,148,506,517,410,288
238,438,193,-338,18,313,-623,58,590,643,518,378
286,510,223,-398,30,367,-773,-205,590,751,644,486
352,552,199,-452,72,379,-1007,-661,482,829,776,588
436,588,151,-506,138,373,-1271,-1051,356,931,932,720
532,630,91,-578,222,361,-1469,-1261,332,1069,1100,828
640,708,67,-674,282,391,-1643,-1411,332,1249,1292,966
730,834,97,-782,312,463,-1805,-1597,344,1441,1502,1134
778,954,175,-866,300,565,-1907,-1723,374,1627,1700,1284
796,1062,259,-932,264,667,-1937,-1771,398,1807,1892,1428
844,1152,301,-992,264,727,-1997,-1831,398,1957,2060,1548
868,1206,337,-1034,258,775,-2033,-1867,380,2070,2173,1650
778,1224,445,-998,168,835,-1967,-1837,392,2130,2227,1704
640,1212,571,-926,30,895,-1811,-1729,422,2100,2149,1680
502,1050,541,-776,-11,799,-1601,-1567,344,1831,1832,1458
370,762,391,-566,-6,577,-1349,-1369,212,1387,1334,1098
262,540,271,-404,-6,409,-1103,-1135,128,1009,926,786
178,414,229,-290,-23,325,-905,-943,68,739,656,576
76,306,223,-194,-71,265,-737,-823,-33,487,422,408
-2,222,223,-110,-107,223,-581,-709,-147,247,260,294
-31,162,199,-56,-113,181,-467,-613,-213,109,164,216
-49,96,151,-14,-101,121,-377,-517,-243,25,98,144
-61,54,121,10,-89,85,-299,-433,-219,7,74,108
-73,24,103,33,-89,61,-233,-379,-183,19,68,90
-79,6,91,33,-83,49,-197,-325,-159,19,50,66
-79,-18,67,39,-71,25,-143,-259,-141,7,38,48
-97,-42,61,63,-77,7,-95,-205,-105,19,32,42
-103,-42,55,69,-83,1,-65,-169,-87,19,32,24
-97,-65,25,81,-65,-29,-35,-133,-69,13,27,12
-109,-71,31,87,-71,-29,-11,-103,-63,1,27,12
-109,-83,19,93,-65,-29,18,-73,-51,1,9,1
-103,-89,7,93,-59,-34,36,-49,-51,1,9,-5
-103,-101,-5,99,-53,-46,48,-43,-51,-4,3,-11
-109,-107,-5,105,-53,-52,66,-31,-51,-10,3,-17
-121,-113,1,117,-65,-52,72,-25,-51,-22,-9,-17
-121,-119,-5,117,-59,-58,84,-13,-51,-28,-9,-23
-127,-131,-11,129,-59,-64,84,-19,-51,-34,-15,-29
-127,-137,-17,129,-59,-70,96,-7,-51,-40,-15,-35
-133,-143,-17,135,-59,-76,102,17,-51,-40,-27,-35
-133,-143,-17,135,-59,-76,108,17,-51,-40,-27,-41
-139,-143,-11,141,-65,-70,114,35,-51,-40,-33,-41
-139,-143,-11,141,-65,-70,120,40,-45,-46,-33,-41
-139,-143,-11,141,-65,-70,126,40,-51,-46,-45,-47
-133,-143,-17,135,-59,-76,132,40,-45,-46,-45,-47
-127,-143,-17,135,-53,-76,132,46,-51,-46,-57,-53
-115,-143,-22,129,-41,-82,138,46,-51,-46,-57,-53
-121,-143,-17,129,-47,-82,144,46,-45,-46,-57,-47
-127,-143,-17,135,-53,-76,150,52,-45,-46,-57,-53
-133,-137,-11,135,-65,-70,150,52,-39,-46,-57,-47
-133,-137,-11,135,-65,-70,150,52,-39,-46,-57,-47
-133,-143,-17,135,-59,-76,162,58,-33,-46,-51,-41
-133,-143,-17,135,-59,-76,162,58,-33,-46,-51,-41
-133,-149,-17,141,-59,-82,168,64,-33,-46,-45,-41
-133,-149,-17,141,-59,-82,174,64,-33,-46,-45,-41
-127,-149,-17,135,-53,-82,168,58,-39,-46,-39,-47
-127,-149,-17,135,-53,-82,168,58,-39,-46,-39,-47
-121,-149,-22,135,-47,-88,168,58,-45,-46,-33,-47
-127,-149,-17,135,-53,-82,174,64,-39,-46,-33,-53
-133,-149,-17,141,-59,-82,174,70,-33,-46,-39,-47
-139,-149,-17,141,-65,-76,174,70,-33,-46,-39,-47
-145,-149,-11,147,-71,-76,174,76,-27,-46,-39,-35
-151,-149,-5,147,-77,-70,180,76,-27,-46,-39,-35
-145,-149,-11,147,-71,-76,180,76,-27,-46,-39,-47
-145,-149,-11,147,-71,-76,180,76,-27,-46,-39,-47
-139,-149,-17,141,-65,-76,186,70,-27,-46,-33,-53
-139,-149,-17,141,-65,-76,186,76,-27,-46,-33,-53
-145,-143,-5,141,-71,-70,198,76,-27,-46,-39,-53
-145,-143,-5,141,-71,-70,198,82,-27,-46,-45,-53
-151,-137,7,141,-83,-58,198,82,-21,-46,-51,-59
-157,-143,7,147,-83,-64,198,82,-21,-46,-51,-59
-151,-143,1,147,-77,-64,204,88,-21,-46,-51,-59
-151,-143,1,147,-77,-64,210,94,-15,-46,-51,-59
-145,-143,-5,141,-71,-70,216,94,-15,-46,-51,-59
-139,-143,-11,141,-65,-70,222,94,-15,-52,-51,-59
-139,-143,-11,141,-65,-70,216,100,-15,-52,-57,-59
-139,-143,-11,141,-65,-70,216,100,-15,-52,-57,-59
-151,-143,1,147,-77,-64,216,106,-15,-52,-63,-59
-151,-143,1,147,-77,-64,216,106,-15,-52,-63,-59
-151,-149,-5,147,-77,-70,216,118,-15,-52,-57,-53
-151,-149,-5,147,-77,-70,228,124,-15,-52,-63,-53
-151,-155,-11,153,-71,-76,228,130,-15,-52,-57,-47
-151,-155,-11,153,-71,-76,228,130,-15,-52,-63,-47
-145,-155,-17,147,-65,-82,228,130,-15,-58,-69,-53
-151,-155,-11,153,-71,-76,234,130,-15,-64,-69,-59
-145,-155,-17,147,-65,-82,234,130,-15,-70,-69,-71
-145,-155,-17,147,-65,-82,234,142,-15,-70,-69,-77
-157,-155,-5,153,-77,-76,246,154,-9,-64,-63,-77
-157,-155,-5,153,-77,-76,246,154,-9,-64,-63,-77
-163,-161,-5,159,-83,-76,258,160,-4,-58,-57,-83
-163,-161,-5,159,-83,-76,258,160,-4,-58,-57,-83
-163,-155,1,159,-83,-70,258,166,-4,-58,-57,-77
-163,-155,1,159,-83,-70,258,178,-4,-58,-57,-77
-163,-149,7,153,-89,-64,258,172,-9,-58,-51,-71
-163,-149,7,153,-89,-64,258,172,-9,-58,-51,-77
-163,-155,1,159,-83,-70,264,178,-4,-58,-51,-77
-163,-149,7,153,-89,-64,264,190,-4,-58,-51,-77
-163,-155,1,159,-83,-70,282,202,-4,-58,-45,-65
-175,-155,13,165,-95,-64,288,208,-4,-58,-45,-65
-175,-155,13,165,-95,-64,288,208,-4,-58,-51,-71
-169,-155,7,159,-89,-70,288,214,-4,-58,-51,-71
-169,-155,7,159,-89,-70,294,214,-4,-58,-57,-77
-175,-149,19,159,-101,-58,294,220,-4,-58,-57,-77
-169,-143,19,153,-95,-58,300,220,-4,-52,-57,-83
-169,-143,19,153,-95,-58,306,226,2,-52,-57,-83
-163,-131,25,147,-95,-46,312,232,8,-52,-57,-77
-163,-131,25,147,-95,-46,318,238,14,-46,-57,-71
-169,-131,31,147,-101,-46,324,250,14,-46,-51,-65
-169,-131,31,147,-101,-46,324,250,14,-46,-51,-71
-175,-119,49,147,-113,-29,324,262,20,-40,-45,-65
-175,-119,49,147,-113,-29,336,280,32,-34,-39,-65
-175,-119,49,147,-113,-29,342,286,32,-28,-39,-65
-175,-119,49,147,-113,-29,342,286,38,-28,-39,-65
-169,-113,49,141,-113,-29,342,298,38,-28,-45,-65
-169,-107,55,135,-113,-29,348,304,44,-22,-45,-65
-169,-107,55,135,-113,-29,354,316,50,-16,-51,-65
-169,-107,55,135,-113,-29,360,334,56,-10,-45,-65
-169,-95,67,129,-119,-23,360,340,62,-4,-51,-59
-169,-95,67,129,-119,-23,360,340,68,1,-39,-59
-163,-83,73,123,-119,-11,366,346,74,1,-27,-59
-163,-77,79,117,-125,-5,366,358,80,1,-21,-59
-151,-77,67,111,-113,-11,372,364,86,7,-9,-47
-151,-71,73,111,-113,-5,378,370,98,19,-9,-41
-151,-65,79,105,-119,1,378,382,104,31,3,-29
-145,-59,79,99,-113,1,384,400,116,37,9,-23
-139,-53,79,93,-113,7,384,406,122,49,27,-17
-127,-47,73,87,-101,7,384,418,128,55,27,-17
-133,-42,91,81,-113,19,384,424,140,61,32,-17
-133,-42,97,81,-113,25,384,430,152,73,32,-17
-139,-36,109,81,-125,37,384,436,164,85,38,1
-139,-30,115,75,-125,43,384,442,176,97,44,12
-121,-24,103,63,-113,37,384,442,188,115,50,12
-121,-18,109,63,-113,43,384,442,188,115,62,12
-109,-12,103,51,-107,43,378,448,194,133,68,24
-109,0,115,45,-113,55,372,448,200,145,80,30
-109,6,121,45,-113,61,366,442,206,151,92,42
-97,12,115,33,-107,61,360,442,212,169,110,48
-97,18,121,33,-107,67,354,442,218,175,116,66
-97,24,127,33,-113,73,348,430,224,187,128,66
-97,30,133,33,-113,79,342,430,230,193,140,72
-85,36,127,33,-107,79,324,424,236,205,152,78
-85,42,133,28,-107,85,324,418,236,211,164,84
-79,48,133,22,-107,91,312,412,236,217,170,90
-73,48,127,22,-101,85,300,406,236,229,170,102
-67,54,127,16,-95,91,288,388,242,235,182,114
-55,60,121,4,-89,91,282,376,248,241,182,126
-49,66,121,-2,-83,91,270,370,248,247,194,132
-49,66,121,-2,-83,91,258,358,248,247,194,132
-37,72,115,-8,-77,91,252,346,248,253,200,138
-37,72,115,-8,-77,91,240,334,248,259,200,138
-31,72,109,-14,-71,91,228,322,248,265,206,138
-31,72,109,-14,-71,91,216,310,254,271,212,150
-31,78,115,-14,-71,97,210,298,254,271,218,156
-31,78,115,-14,-71,97,192,280,248,271,224,156
-26,78,103,-20,-59,91,180,268,242,271,224,156
-26,78,103,-20,-59,91,168,250,236,271,230,156
-26,78,103,-20,-59,91,156,238,236,271,230,162
-26,66,91,-14,-53,79,150,232,236,271,230,156
-26,60,79,-14,-47,73,138,220,236,265,230,144
-20,60,73,-20,-41,67,132,196,224,253,218,144
-20,60,73,-20,-41,67,120,184,212,247,212,138
-8,54,55,-20,-23,55,108,166,200,241,212,138
-8,48,49,-20,-23,49,108,166,194,235,206,138
-8,42,43,-14,-17,43,102,148,182,223,200,144
-8,36,37,-14,-17,37,96,136,176,217,200,132
-14,30,37,-8,-17,37,90,130,170,211,194,138
-14,24,31,-2,-17,31,84,112,164,205,188,132
-14,18,25,-2,-11,25,78,106,164,193,176,132
-14,12,19,4,-11,19,72,94,152,187,170,126
-20,0,13,10,-11,7,66,94,146,175,164,108
-20,0,13,10,-11,7,66,76,134,163,158,102
-20,-6,7,16,-6,1,54,64,116,151,146,96
-20,-12,1,16,-6,-5,54,64,116,139,140,96
-26,-18,1,22,-6,-5,48,52,104,133,128,90
-26,-24,1,28,-11,-11,48,46,92,121,116,78
-26,-36,-11,33,-6,-23,48,46,80,109,110,72
-26,-42,-17,33,-6,-29,48,40,80,109,104,66
-26,-42,-17,33,-6,-29,48,46,74,97,98,66
-26,-47,-22,33,-6,-34,42,40,68,91,86,60
-26,-47,-22,33,-6,-34,42,40,62,85,86,54
-26,-47,-22,33,-6,-34,36,40,56,79,80,48
-26,-47,-22,33,-6,-34,42,29,50,73,68,36
-26,-53,-28,33,-6,-40,48,23,44,67,68,30
-26,-53,-28,33,-6,-40,48,17,38,67,62,36
-26,-59,-34,39,0,-46,48,17,38,61,62,36
-26,-59,-34,39,0,-46,48,5,38,55,62,42
-26,-65,-40,39,0,-52,42,-1,32,55,62,30
-26,-65,-40,39,0,-52,42,-1,26,49,62,24
-26,-65,-40,39,0,-52,48,-1,20,49,50,30
-26,-65,-40,39,0,-52,48,5,20,43,50,24
-26,-65,-40,39,0,-52,48,5,20,37,50,24
-26,-71,-40,45,0,-58,42,5,20,43,50,30
-26,-71,-40,45,0,-58,42,5,20,43,56,30
-31,-71,-34,51,-6,-52,42,-7,20,43,56,36
-31,-71,-34,51,-6,-52,42,-7,20,43,56,36
-31,-77,-40,51,-6,-58,42,-7,20,43,50,36
-31,-77,-40,51,-6,-58,42,-13,20,43,50,36
-31,-83,-46,57,0,-64,42,-13,14,43,50,36
-31,-89,-52,57,0,-70,42,-19,14,43,50,36
-31,-83,-46,57,0,-64,36,-19,20,37,56,30
-31,-83,-46,57,0,-64,36,-19,20,37,56,30
-31,-77,-40,51,-6,-58,36,-19,26,37,62,18
-26,-77,-46,51,0,-64,36,-19,26,37,56,18
-26,-77,-52,45,6,-64,36,-13,26,37,50,18
-26,-77,-52,45,6,-64,36,-13,26,37,44,18
-26,-77,-58,45,12,-64,36,-13,26,37,38,18
-26,-77,-52,45,6,-64,36,-13,26,37,32,24
-26,-83,-52,51,6,-70,30,-13,20,31,32,24
-31,-83,-46,57,0,-64,36,-13,20,31,32,18
-37,-89,-46,63,-6,-70,30,-13,14,25,32,18
-43,-89,-40,63,-6,-64,30,-13,14,25,32,24
-37,-83,-40,57,-6,-64,30,-13,14,25,38,30
-37,-83,-40,57,-6,-64,30,-13,8,25,38,24
-31,-77,-40,51,-6,-58,30,-13,8,25,32,30
-31,-77,-40,51,-6,-58,30,-13,14,25,32,30
-26,-77,-46,51,0,-64,30,-7,14,25,38,30
-26,-77,-46,51,0,-64,30,-7,14,25,38,30
-26,-77,-46,51,0,-64,30,-7,8,25,44,30
-26,-77,-46,51,0,-64,30,-7,8,25,44,30
-31,-77,-40,51,-6,-58,30,-7,8,19,44,24
-31,-77,-40,51,-6,-58,36,-7,8,19,44,24
-37,-77,-34,57,-6,-58,36,-13,8,13,44,18
-31,-77,-40,51,-6,-58,36,-13,8,13,44,18
-26,-83,-52,51,6,-70,42,-7,8,13,44,18
-26,-83,-52,51,6,-70,42,-1,14,7,44,12
-26,-83,-52,51,6,-70,42,11,14,7,44,12
-26,-83,-52,51,6,-70,42,11,8,7,32,12
-31,-83,-46,57,0,-64,42,11,8,1,32,12
-31,-83,-46,57,0,-64,42,11,8,1,27,12
-31,-83,-46,57,0,-64,42,5,8,1,21,12
-31,-83,-46,57,0,-64,48,5,8,1,21,12
-31,-83,-46,57,0,-64,48,-1,8,7,27,12
-37,-83,-40,57,-6,-64,48,5,14,13,27,12
-37,-83,-40,57,-6,-64,48,5,14,19,32,24
-37,-83,-40,57,-6,-64,48,5,14,19,32,24
-31,-83,-46,57,0,-64,48,5,14,13,32,18
-31,-83,-46,57,0,-64,48,5,14,13,32,18
-26,-83,-52,51,6,-70,48,5,14,7,32,12
-26,-83,-58,51,12,-70,48,5,14,7,32,12
-26,-83,-58,51,12,-70,48,5,14,1,27,12
-26,-83,-52,51,6,-70,48,5,14,1,27,12
-26,-83,-52,51,6,-70,48,5,14,1,21,12
-26,-77,-52,45,6,-64,48,5,14,1,15,12
-26,-83,-58,51,12,-70,48,5,14,1,21,12
-26,-83,-58,51,12,-70,48,5,20,1,21,12
-26,-89,-64,51,12,-76,48,5,20,7,27,12
-26,-89,-64,51,12,-76,48,5,14,7,32,12
-26,-89,-70,51,18,-76,48,11,14,7,27,12
-26,-89,-70,51,18,-76,48,5,14,7,27,12
-20,-89,-76,45,24,-82,48,11,14,7,21,12
-20,-83,-70,45,24,-76,48,11,14,7,21,12
-26,-83,-52,51,6,-70,48,17,20,7,27,12
-26,-83,-64,45,18,-70,48,17,26,7,27,12
-26,-83,-58,51,12,-70,48,17,32,7,32,12
-26,-83,-58,51,12,-70,48,17,32,7,32,12
-26,-83,-64,45,18,-70,48,11,20,7,32,12
-20,-83,-70,45,24,-76,42,11,20,7,32,12
-14,-83,-76,39,30,-76,42,5,14,1,32,12
-14,-83,-76,39,30,-76,42,5,14,1,32,12
-14,-83,-76,39,30,-76,42,11,20,7,32,12
-14,-83,-76,39,30,-76,42,11,20,7,32,12
-14,-83,-76,39,30,-76,42,11,20,7,32,18
-14,-83,-76,39,30,-76,42,11,20,7,32,18
-14,-77,-70,39,24,-70,42,5,26,7,32,18
-8,-77,-76,33,30,-76,42,5,26,7,32,18
-8,-77,-76,33,30,-76,42,5,26,13,38,18
-8,-77,-76,33,30,-76,42,5,26,13,38,18
-8,-77,-76,33,30,-76,36,5,26,13,32,18
-8,-77,-76,33,30,-76,36,5,26,13,32,18
-8,-71,-70,33,30,-70,24,5,32,13,32,18
-14,-71,-64,33,24,-64,24,5,32,13,32,12
-8,-77,-76,33,30,-76,30,-1,20,7,32,18
-8,-83,-82,39,36,-82,30,-1,20,1,32,18
4,-89,-100,33,48,-94,36,-13,14,1,32,24
10,-89,-106,33,54,-94,36,-13,14,1,32,30
4,-89,-100,33,48,-94,30,-7,14,1,32,30
4,-89,-100,33,48,-94,30,-7,8,1,32,30
-8,-89,-88,39,36,-88,30,-1,14,7,32,30
-8,-83,-82,39,36,-82,30,-1,20,7,32,30
-8,-77,-76,33,30,-76,36,-7,20,1,32,18
-8,-83,-82,39,36,-82,36,-7,20,1,32,12
-8,-77,-76,33,30,-76,30,-7,14,1,32,12
-8,-77,-76,33,30,-76,30,-7,14,1,32,12
-8,-77,-76,33,30,-76,30,-13,14,1,27,12
-8,-77,-76,33,30,-76,30,-13,8,1,27,12
-8,-77,-76,33,30,-76,30,-19,8,1,15,18
-2,-77,-82,33,36,-76,30,-19,2,1,15,24
4,-77,-88,33,42,-82,24,-19,-4,-4,21,18
4,-77,-88,33,42,-82,24,-19,2,-4,21,18
4,-83,-94,33,48,-88,18,-25,-4,-4,27,12
4,-83,-94,33,48,-88,18,-31,-4,-10,27,12
4,-89,-100,33,48,-94,18,-25,-4,-10,27,12
4,-83,-94,33,48,-88,18,-31,-4,-10,27,12
-2,-89,-94,39,42,-88,24,-31,2,-10,27,12
-2,-89,-94,39,42,-88,24,-31,2,-16,27,12
-2,-89,-94,39,42,-88,18,-43,-4,-16,15,12
-2,-95,-100,39,48,-94,18,-43,-4,-16,15,12
-2,-95,-100,39,48,-94,18,-43,-4,-16,3,12
-2,-95,-100,39,48,-94,18,-43,-4,-22,3,12
-2,-89,-94,39,42,-88,18,-43,-4,-22,9,12
-2,-89,-94,39,42,-88,18,-49,-4,-16,9,12
-2,-83,-88,33,42,-82,18,-49,-4,-10,15,12
-8,-83,-82,39,36,-82,18,-55,-4,-4,15,1
-8,-89,-88,39,36,-88,18,-49,-4,-10,21,7
-2,-89,-94,39,42,-88,18,-49,-4,-10,21,12
4,-89,-100,33,48,-94,18,-43,-4,-10,27,12
4,-89,-100,33,48,-94,18,-55,-4,-10,21,12
-2,-89,-94,39,42,-88,18,-61,-9,-16,15,12
-2,-89,-94,39,42,-88,18,-61,-9,-16,15,12
-2,-89,-94,39,42,-88,18,-61,-9,-22,9,1
-2,-95,-100,39,48,-94,18,-61,-9,-22,3,1
-8,-95,-94,45,42,-94,18,-61,-9,-16,9,7
-14,-89,-82,45,30,-82,18,-61,-9,-16,9,7
-14,-89,-82,45,30,-82,18,-67,-15,-10,15,12
-14,-89,-82,45,30,-82,18,-67,-15,-10,15,12
-8,-89,-88,39,36,-88,18,-67,-15,-10,15,7
-8,-95,-94,45,42,-94,18,-67,-15,-10,15,7
-8,-89,-88,39,36,-88,18,-67,-9,-10,9,1
-2,-89,-94,39,42,-88,18,-67,-9,-10,9,1
-2,-83,-88,33,42,-82,18,-67,-15,-16,9,1
-8,-83,-82,39,36,-82,18,-67,-15,-16,9,1
-14,-89,-82,45,30,-82,13,-67,-21,-28,9,1
-14,-89,-82,45,30,-82,13,-67,-21,-28,15,-5
-14,-89,-82,45,30,-82,13,-67,-15,-28,15,1
-8,-89,-88,39,36,-88,13,-67,-15,-28,15,1
-2,-89,-94,39,42,-88,13,-67,-9,-22,15,7
-2,-89,-94,39,42,-88,13,-67,-15,-16,9,7
-8,-89,-88,39,36,-88,13,-67,-15,-22,9,7
-8,-89,-88,39,36,-88,13,-67,-15,-16,9,7
-8,-83,-82,39,36,-82,13,-67,-15,-22,9,7
-8,-83,-82,39,36,-82,13,-67,-15,-22,9,7
-8,-89,-88,39,36,-88,13,-67,-21,-28,3,-5
-14,-95,-88,45,36,-88,13,-67,-21,-28,3,-5
-14,-95,-88,45,36,-88,13,-73,-27,-40,-9,-11
-14,-89,-82,45,30,-82,13,-79,-27,-40,-9,-11
-8,-89,-88,39,36,-88,13,-79,-27,-40,-9,-5
-8,-95,-94,45,42,-94,13,-79,-27,-34,-9,-5
-8,-95,-94,45,42,-94,13,-73,-27,-34,-9,1
-8,-95,-94,45,42,-94,13,-73,-27,-34,-9,1
-8,-95,-94,45,42,-94,13,-79,-21,-40,-3,1
-2,-95,-100,39,48,-94,7,-79,-21,-40,-9,1
-2,-95,-100,39,48,-94,7,-85,-21,-46,-3,-5
-14,-95,-88,45,36,-88,7,-85,-21,-46,3,-5
-14,-95,-88,45,36,-88,13,-79,-21,-46,-3,-5
-14,-89,-82,45,30,-82,13,-79,-21,-46,-3,-5
-2,-89,-94,39,42,-88,7,-79,-21,-46,-9,-11
4,-89,-100,33,48,-94,7,-85,-21,-46,-9,-11
-2,-95,-100,39,48,-94,7,-79,-21,-46,-3,-5
4,-95,-106,39,54,-100,7,-79,-21,-46,-3,-5
-2,-95,-100,39,48,-94,7,-73,-21,-46,3,-5
-2,-95,-100,39,48,-94,7,-73,-21,-46,3,-5
-2,-95,-100,39,48,-94,7,-79,-21,-40,3,-11
-8,-95,-94,45,42,-94,7,-79,-21,-40,3,-11
-2,-95,-100,39,48,-94,7,-85,-21,-34,9,-17
-2,-95,-100,39,48,-94,7,-85,-21,-34,15,-17
-2,-95,-100,39,48,-94,7,-85,-21,-40,9,-17
-2,-95,-100,39,48,-94,7,-79,-21,-40,3,-17
-14,-95,-88,45,36,-88,7,-73,-21,-34,-3,-17
-14,-95,-88,45,36,-88,7,-67,-21,-28,-9,-17
-14,-95,-88,45,36,-88,1,-73,-27,-28,-9,-17
-14,-95,-88,45,36,-88,1,-73,-33,-34,-9,-17
-14,-95,-88,45,36,-88,-5,-85,-39,-46,-9,-17
-14,-89,-82,45,30,-82,-5,-85,-39,-52,-9,-17
-14,-89,-82,45,30,-82,-5,-91,-39,-52,-15,-17
-14,-95,-88,45,36,-88,-5,-91,-33,-52,-15,-17
-14,-95,-88,45,36,-88,-5,-91,-33,-52,-27,-23
-8,-95,-94,45,42,-94,-5,-91,-39,-52,-27,-23
-14,-95,-88,45,36,-88,7,-91,-39,-52,-15,-11
-2,-95,-100,39,48,-94,7,-91,-39,-52,-15,-23
-2,-95,-100,39,48,-94,1,-85,-39,-52,-15,-17
-2,-89,-94,39,42,-88,-11,-97,-39,-52,-15,-17
-20,-83,-70,45,24,-76,-11,-97,-33,-52,-9,-17
-14,-89,-82,45,30,-82,-11,-97,-33,-52,-9,-17
-14,-89,-82,45,30,-82,-11,-97,-33,-52,-9,-17
-8,-95,-94,45,42,-94,-11,-97,-33,-52,-9,-17
-8,-95,-94,45,42,-94,-11,-97,-33,-52,-9,-17
-8,-95,-94,45,42,-94,-5,-91,-33,-52,-9,-17
-8,-95,-94,45,42,-94,-5,-91,-33,-52,-9,-17
-8,-95,-94,45,42,-94,1,-85,-33,-52,-9,-17
-8,-95,-94,45,42,-94,1,-85,-33,-52,-9,-17
-8,-89,-88,39,36,-88,-5,-91,-33,-58,-9,-17
-8,-89,-88,39,36,-88,-5,-91,-33,-64,-9,-17
-8,-83,-82,39,36,-82,-11,-97,-33,-70,-9,-17
-8,-83,-82,39,36,-82,-11,-97,-33,-76,-9,-17
-8,-89,-88,39,36,-88,-11,-91,-33,-70,-9,-17
-8,-89,-88,39,36,-88,-11,-91,-33,-70,-9,-17
-8,-95,-94,45,42,-94,-11,-85,-33,-64,-9,-17
-8,-95,-94,45,42,-94,-11,-85,-33,-64,-9,-17
-14,-95,-88,45,36,-88,-11,-91,-33,-64,-15,-17
-14,-95,-88,45,36,-88,-11,-91,-33,-64,-15,-17
-20,-95,-82,51,30,-88,-11,-97,-33,-64,-21,-17
-20,-95,-82,51,30,-88,-11,-97,-33,-64,-21,-17
-14,-101,-94,51,36,-94,-11,-97,-33,-58,-15,-17
-14,-101,-94,51,36,-94,-11,-97,-33,-58,-15,-17
-8,-107,-106,51,48,-106,-11,-97,-33,-52,-9,-17
-8,-107,-106,51,48,-106,-11,-97,-33,-52,-9,-17
-8,-101,-100,45,42,-100,-11,-97,-33,-52,-9,-11
-8,-101,-100,45,42,-100,-11,-97,-33,-52,-9,-11
-8,-95,-94,45,42,-94,-11,-97,-33,-52,-9,-5
-8,-95,-94,45,42,-94,-11,-97,-33,-52,-9,-5
-14,-101,-94,51,36,-94,-5,-91,-33,-46,-3,-5
-14,-101,-94,51,36,-94,-5,-91,-33,-46,3,-5
-20,-107,-94,57,36,-100,1,-85,-33,-40,9,-5
-20,-107,-94,57,36,-100,1,-85,-33,-40,15,-5
-14,-107,-100,51,42,-100,1,-85,-33,-46,3,-11
-14,-107,-100,51,42,-100,1,-85,-33,-52,-9,-11
-8,-107,-106,51,48,-106,1,-85,-33,-58,-21,-17
-8,-107,-106,51,48,-106,1,-85,-33,-64,-33,-17
-14,-101,-94,51,36,-94,1,-91,-39,-64,-33,-11
-14,-101,-94,51,36,-94,1,-91,-39,-64,-33,-11
-20,-95,-82,51,30,-88,1,-97,-45,-64,-33,-5
-20,-95,-82,51,30,-88,1,-97,-45,-64,-33,-5
-14,-95,-88,45,36,-88,1,-91,-39,-64,-27,-5
-14,-95,-88,45,36,-88,1,-91,-39,-64,-21,-5
-8,-95,-94,45,42,-94,1,-85,-33,-64,-15,-5
-8,-95,-94,45,42,-94,1,-85,-33,-64,-9,-5
-14,-95,-88,45,36,-88,-5,-91,-39,-64,-15,-5
-14,-95,-88,45,36,-88,-5,-91,-39,-64,-15,-5
-20,-95,-82,51,30,-88,-11,-97,-45,-64,-21,-5
-20,-95,-82,51,30,-88,-11,-97,-45,-64,-21,-5
-20,-95,-82,51,30,-88,-11,-97,-45,-64,-21,-11
-20,-95,-82,51,30,-88,-11,-97,-45,-64,-21,-11
-20,-95,-82,51,30,-88,-11,-97,-45,-64,-21,-17
-20,-95,-82,51,30,-88,-11,-97,-45,-64,-21,-17
-14,-95,-88,45,36,-88,-11,-97,-45,-64,-27,-11
-14,-95,-88,45,36,-88,-11,-97,-45,-64,-27,-11
-8,-95,-94,45,42,-94,-11,-97,-45,-64,-33,-5
-8,-95,-94,45,42,-94,-11,-97,-45,-64,-33,-5
-14,-95,-88,45,36,-88,-11,-97,-51,-70,-27,-5
-14,-95,-88,45,36,-88,-11,-97,-51,-70,-27,-5
-20,-95,-82,51,30,-88,-11,-97,-57,-76,-21,-5
-20,-95,-82,51,30,-88,-11,-97,-57,-76,-21,-5
-20,-95,-82,51,30,-88,-11,-97,-57,-76,-27,-11
-20,-95,-82,51,30,-88,-11,-97,-57,-76,-27,-11
-20,-95,-82,51,30,-88,-11,-97,-57,-76,-33,-17
-20,-95,-82,51,30,-88,-11,-97,-57,-76,-33,-17
-20,-95,-82,51,30,-88,-5,-97,-51,-76,-27,-11
-20,-95,-82,51,30,-88,-5,-97,-51,-76,-27,-11
-20,-95,-82,51,30,-88,1,-97,-45,-76,-21,-5
-20,-95,-82,51,30,-88,1,-97,-45,-76,-21,-5
-20,-89,-76,45,24,-82,-5,-97,-45,-76,-21,-5
-20,-89,-76,45,24,-82,-5,-97,-45,-76,-21,-5
-20,-83,-70,45,24,-76,-11,-97,-45,-76,-21,-5
-20,-83,-70,45,24,-76,-11,-97,-45,-76,-21,-5
-14,-89,-82,45,30,-82,-11,-97,-45,-76,-21,-5
-14,-89,-82,45,30,-82,-11,-97,-45,-76,-21,-5
-8,-95,-94,45,42,-94,-11,-97,-45,-76,-21,-5
-8,-95,-94,45,42,-94,-11,-97,-45,-76,-21,-5
-14,-101,-94,51,36,-94,-5,-97,-45,-76,-21,-5
-14,-101,-94,51,36,-94,-5,-97,-45,-76,-21,-5
-20,-107,-94,57,36,-100,1,-97,-45,-76,-21,-5
-20,-107,-94,57,36,-100,1,-97,-45,-76,-21,-5
-20,-101,-88,51,30,-94,1,-97,-45,-76,-21,-5
-20,-101,-88,51,30,-94,1,-97,-45,-76,-21,-5
-20,-95,-82,51,30,-88,1,-97,-45,-76,-21,-5
-20,-95,-82,51,30,-88,1,-97,-45,-76,-21,-5
-20,-95,-82,51,30,-88,1,-97,-45,-76,-15,-5
-20,-95,-82,51,30,-88,1,-97,-45,-76,-15,-5
-20,-95,-82,51,30,-88,1,-97,-45,-76,-9,-5
-20,-95,-82,51,30,-88,1,-97,-45,-76,-9,-5
-26,-95,-76,51,24,-82,1,-97,-45,-76,-15,-11
-26,-95,-76,51,24,-82,1,-97,-45,-76,-21,-11
-26,-95,-70,57,18,-82,1,-97,-45,-76,-27,-17
-26,-95,-70,57,18,-82,1,-97,-45,-76,-33,-17
-26,-95,-76,51,24,-82,1,-97,-51,-76,-33,-11
-26,-95,-76,51,24,-82,1,-97,-51,-76,-33,-11
-20,-95,-82,51,30,-88,1,-97,-57,-76,-33,-5
-20,-95,-82,51,30,-88,1,-97,-57,-76,-33,-5
-26,-89,-70,51,18,-76,1,-91,-51,-76,-27,-5
-26,-89,-70,51,18,-76,1,-91,-51,-76,-27,-5
-26,-83,-58,51,12,-70,1,-85,-45,-76,-21,-5
-26,-83,-58,51,12,-70,1,-85,-45,-76,-21,-5
-26,-89,-64,51,12,-76,1,-91,-45,-76,-21,1
-26,-89,-64,51,12,-76,1,-91,-45,-76,-21,1
-26,-95,-70,57,18,-82,1,-97,-45,-76,-21,7
-26,-95,-70,57,18,-82,1,-97,-45,-76,-21,7
-26,-89,-64,51,12,-76,-5,-103,-45,-82,-21,1
-26,-89,-64,51,12,-76,-5,-103,-45,-82,-21,1
-26,-83,-58,51,12,-70,-11,-109,-45,-88,-21,-5
-26,-83,-58,51,12,-70,-11,-109,-45,-88,-27,-11
-26,-89,-64,51,12,-76,-11,-109,-45,-94,-33,-11
-26,-89,-70,51,18,-76,-11,-109,-45,-94,-33,-5
-26,-95,-76,51,24,-82,-11,-109,-45,-100,-39,-5
-26,-95,-76,51,24,-82,-5,-109,-45,-100,-33,1
-26,-89,-70,51,18,-76,1,-97,-51,-100,-27,1
-26,-89,-70,51,18,-76,1,-97,-45,-94,-21,1
-26,-77,-58,45,12,-64,7,-85,-51,-94,-21,1
-26,-71,-52,39,12,-58,7,-85,-45,-88,-21,1
-14,-65,-58,33,18,-58,7,-85,-39,-88,-15,7
-14,-65,-58,33,18,-58,7,-79,-39,-88,-21,7
-14,-65,-58,33,18,-58,7,-79,-33,-88,-15,12
-8,-53,-52,33,18,-52,7,-73,-27,-88,-9,12
-2,-47,-52,33,24,-46,13,-67,-15,-76,-3,12
4,-42,-52,28,24,-46,18,-61,-9,-70,-3,12
10,-42,-52,22,30,-40,18,-43,-9,-58,-9,12
10,-30,-34,10,24,-29,36,-31,-4,-52,3,12
4,-18,-17,10,12,-23,48,-25,2,-40,9,12
10,-18,-22,4,18,-23,48,-25,2,-40,9,12
4,-18,-17,10,12,-23,54,-25,2,-34,15,18
4,-18,-17,10,12,-23,48,-25,2,-34,15,18
-2,-30,-22,16,12,-29,36,-31,2,-40,21,18
4,-12,-17,4,6,-17,18,-31,2,-34,21,18
10,-6,-17,-2,12,-11,18,-31,2,-34,27,24
22,0,-17,-8,18,-11,7,-31,14,-28,27,36
40,12,-22,-26,30,-11,-17,-37,14,-16,32,48
46,30,-17,-38,30,7,-23,-31,20,-10,32,54
52,30,-17,-38,36,1,-35,-37,14,-4,32,72
40,36,-11,-38,18,13,-35,-49,14,-4,32,72
34,42,1,-38,12,25,-29,-49,14,-10,38,72
34,36,-5,-32,12,19,-29,-67,8,-16,38,72
28,36,1,-32,6,19,-29,-67,8,-22,32,66
28,36,1,-32,6,19,-29,-67,2,-28,32,66
34,24,-17,-26,18,7,-29,-67,2,-34,32,60
34,12,-17,-20,24,-5,-29,-61,2,-34,32,60
34,6,-22,-20,30,-11,-29,-61,-4,-40,27,42
34,0,-28,-14,30,-17,-29,-61,-4,-40,21,42
46,-6,-46,-20,48,-29,-41,-73,-4,-46,21,48
46,-12,-52,-14,48,-29,-47,-91,-9,-52,21,36
52,-18,-64,-14,60,-34,-59,-91,-15,-58,9,36
58,-18,-70,-20,66,-34,-59,-97,-27,-64,3,36
52,-24,-70,-14,60,-40,-59,-103,-33,-70,3,36
46,-30,-70,-8,60,-40,-53,-97,-27,-70,3,36
34,-30,-58,-2,48,-34,-53,-97,-27,-70,3,30
16,-36,-46,10,30,-34,-47,-97,-27,-70,3,30
10,-42,-52,22,30,-40,-41,-97,-33,-88,-3,24
-2,-53,-58,33,24,-52,-41,-103,-33,-94,-9,12
-8,-71,-70,33,30,-70,-23,-97,-33,-100,-9,12
-20,-71,-58,39,18,-64,-23,-97,-39,-106,-15,1
-26,-77,-58,45,12,-64,-23,-103,-45,-118,-21,7
-26,-83,-58,51,12,-70,-23,-109,-45,-118,-39,1
-26,-83,-52,51,6,-70,-23,-109,-51,-124,-39,1
-31,-95,-58,63,6,-76,-23,-115,-69,-136,-51,1
-31,-101,-64,63,6,-82,-35,-121,-75,-142,-45,-5
-26,-101,-70,63,12,-88,-35,-133,-81,-142,-51,-11
-26,-107,-76,63,18,-94,-35,-139,-87,-142,-45,-11
-26,-119,-88,69,24,-106,-35,-139,-87,-142,-45,-11
-26,-119,-88,69,24,-106,-35,-139,-87,-142,-45,-11
-37,-119,-76,75,12,-100,-35,-139,-87,-142,-45,-11
-37,-119,-76,75,12,-100,-35,-139,-93,-154,-51,-11
-31,-119,-82,75,18,-100,-35,-139,-93,-154,-51,-17
-31,-119,-82,75,18,-100,-35,-139,-87,-160,-57,-23
-31,-119,-82,75,18,-100,-35,-139,-87,-160,-69,-29
-31,-119,-82,75,18,-100,-35,-139,-81,-160,-75,-29
-31,-119,-82,75,18,-100,-35,-127,-75,-154,-63,-35
-31,-119,-82,75,18,-100,-11,-103,-75,-154,-75,1
-31,-131,-94,81,24,-112,7,-85,-63,-142,-75,-5
-31,-131,-94,81,24,-112,18,-85,-63,-154,-75,-17
-31,-119,-82,75,18,-100,18,-73,-63,-148,-75,-29
-31,-107,-70,69,12,-88,36,-49,-45,-142,-69,-11
-31,-119,-82,75,18,-100,78,-13,-27,-136,-57,-11
-31,-119,-82,75,18,-100,114,23,-15,-118,-51,-11
-31,-107,-70,69,12,-88,174,58,-4,-118,-51,-17
-26,-113,-88,63,24,-100,264,142,8,-112,-51,-17
-26,-113,-88,63,24,-100,330,208,26,-106,-57,-17
-20,-113,-100,57,36,-106,366,244,32,-94,-45,-5
-20,-107,-94,57,36,-100,372,256,44,-88,-45,-5
-2,-95,-100,39,48,-94,312,256,56,-82,-33,1
4,-77,-88,33,42,-82,180,220,56,-76,-21,12
28,-42,-76,16,48,-58,1,160,56,-70,-15,12
70,-18,-82,-26,78,-40,-209,82,56,-52,3,12
94,6,-82,-50,90,-29,-377,23,56,-28,15,12
112,30,-76,-68,96,-29,-467,-7,62,-22,21,24
124,42,-76,-80,102,-23,-491,-7,74,-22,15,36
142,60,-76,-98,108,-11,-479,29,92,-10,21,48
142,90,-46,-116,96,19,-461,40,128,13,32,54
148,108,-34,-128,90,31,-449,70,170,31,44,60
160,138,-17,-146,90,55,-443,76,212,61,56,78
172,174,-5,-170,84,85,-431,58,254,109,92,96
184,228,43,-206,66,139,-467,29,320,175,152,150
202,294,91,-242,48,199,-503,5,392,265,236,210
244,378,127,-308,54,253,-539,17,482,379,326,276
298,456,157,-380,66,307,-611,-13,578,487,446,354
346,522,175,-434,84,349,-749,-241,566,577,548,462
400,588,187,-488,102,391,-971,-673,470,655,686,564
490,624,127,-554,180,379,-1235,-1027,380,763,848,696
616,666,43,-638,282,355,-1445,-1237,356,895,1004,816
718,720,-5,-716,360,361,-1619,-1423,332,1039,1166,954
814,834,13,-824,396,427,-1781,-1621,344,1207,1364,1098
874,966,91,-920,390,529,-1919,-1771,386,1405,1592,1260
904,1086,181,-992,360,637,-1961,-1843,410,1561,1760,1392
928,1176,241,-1046,336,709,-2021,-1909,374,1693,1922,1512
946,1230,277,-1088,330,757,-2069,-1957,344,1801,2054,1638
910,1272,361,-1088,270,817,-2027,-1927,368,1885,2119,1716
790,1284,487,-1034,150,889,-1895,-1837,410,1915,2113,1722
646,1176,529,-914,54,859,-1703,-1705,380,1747,1928,1584
508,918,403,-710,48,661,-1451,-1495,266,1375,1478,1260
382,660,271,-518,48,463,-1187,-1249,176,973,1016,906
268,492,223,-380,18,361,-953,-1015,128,697,704,660
184,378,193,-278,-6,283,-773,-883,38,451,446,480
106,306,199,-206,-41,253,-641,-793,-63,205,260,342
40,228,187,-134,-65,211,-521,-685,-141,37,140,252
-2,156,151,-74,-71,157,-425,-589,-183,-58,62,180
-26,102,121,-38,-65,115,-335,-511,-207,-100,27,120
-26,72,91,-20,-53,85,-281,-445,-183,-100,32,102
-26,54,79,-8,-47,67,-227,-385,-147,-88,27,90
-26,30,55,4,-35,43,-179,-331,-117,-88,15,72
-26,6,37,16,-29,19,-131,-277,-93,-88,9,54
-31,-18,19,33,-23,1,-89,-235,-63,-88,3,48
-37,-30,13,33,-23,-11,-59,-199,-57,-94,-9,24
-37,-42,-5,33,-17,-29,-35,-175,-51,-94,-33,18
-37,-47,-17,39,-11,-29,-5,-133,-39,-100,-39,12
-43,-53,-17,45,-17,-29,18,-109,-27,-106,-39,7
-43,-53,-17,45,-17,-29,24,-103,-27,-100,-45,1
-49,-59,-17,51,-17,-34,42,-91,-27,-118,-57,-17
-55,-65,-17,57,-23,-34,48,-79,-27,-130,-75,-11
-55,-71,-17,63,-17,-40,60,-67,-27,-136,-75,-17
-55,-83,-22,69,-11,-52,60,-67,-27,-142,-87,-17
-55,-89,-28,69,-11,-58,72,-55,-27,-148,-87,-23
-61,-95,-28,75,-11,-64,84,-37,-33,-148,-93,-29
-61,-95,-28,75,-11,-64,90,-37,-33,-148,-93,-35
-67,-95,-22,81,-17,-58,102,-25,-39,-148,-93,-41
-67,-95,-22,81,-17,-58,108,-19,-33,-154,-93,-41
-73,-95,-17,81,-23,-58,108,-13,-27,-148,-93,-35
-73,-95,-17,81,-23,-58,114,-7,-21,-148,-93,-35
-73,-95,-17,81,-23,-58,108,-1,-15,-142,-93,-29
-67,-95,-22,81,-17,-58,114,-1,-15,-142,-93,-29
-67,-101,-28,81,-17,-64,120,-1,-21,-148,-93,-35
-73,-101,-22,87,-23,-64,126,5,-21,-148,-93,-41
-73,-101,-22,87,-23,-64,126,5,-27,-154,-93,-47
-73,-101,-22,87,-23,-64,126,5,-27,-154,-93,-47
-79,-95,-17,87,-29,-52,132,11,-15,-154,-93,-41
-79,-95,-17,87,-29,-52,132,11,-15,-154,-93,-41
-85,-89,-11,87,-41,-46,132,17,-9,-154,-93,-41
-85,-89,-11,87,-41,-46,138,17,-9,-154,-93,-41
-79,-95,-17,87,-29,-52,144,17,-9,-154,-93,-41
-79,-95,-17,87,-29,-52,144,17,-9,-154,-93,-41
-73,-101,-22,87,-23,-64,156,23,-9,-154,-93,-35
-79,-101,-17,87,-29,-58,162,29,-4,-154,-93,-41
-85,-101,-17,93,-35,-58,162,29,-4,-154,-99,-47
-85,-101,-17,93,-35,-58,162,29,-4,-154,-99,-47
-91,-101,-17,93,-41,-52,162,29,-4,-154,-99,-47
-91,-101,-17,93,-41,-52,168,29,-4,-154,-99,-47
-85,-101,-17,93,-35,-58,168,35,-9,-160,-105,-53
-85,-101,-17,93,-35,-58,168,35,-9,-160,-105,-53
-79,-101,-17,87,-29,-58,174,35,-15,-166,-105,-53
-79,-101,-17,87,-29,-58,174,40,-15,-166,-105,-53
-85,-101,-17,93,-35,-58,186,40,-9,-166,-99,-47
-85,-101,-17,93,-35,-58,186,40,-9,-166,-105,-47
-91,-101,-17,93,-41,-52,186,46,-4,-166,-99,-47
-97,-107,-17,99,-41,-58,186,46,-4,-166,-99,-47
-97,-107,-17,99,-41,-58,186,52,-4,-172,-105,-47
-97,-107,-17,99,-41,-58,192,58,-4,-172,-111,-47
-97,-107,-17,99,-41,-58,192,58,-4,-178,-117,-47
-91,-107,-17,99,-35,-58,198,58,-4,-184,-123,-47
-91,-107,-17,99,-35,-58,198,64,-4,-178,-117,-41
-91,-107,-17,99,-35,-58,198,64,-4,-178,-111,-41
-103,-107,-11,105,-47,-52,204,70,-4,-172,-105,-35
-103,-107,-11,105,-47,-52,204,70,-4,-172,-99,-35
-97,-107,-17,99,-41,-58,198,76,-4,-178,-99,-41
-97,-107,-17,99,-41,-58,210,82,-4,-178,-105,-41
-91,-107,-17,99,-35,-58,204,82,-4,-184,-105,-47
-91,-107,-17,99,-35,-58,204,82,-4,-184,-111,-47
-91,-107,-17,99,-35,-58,210,88,-4,-190,-117,-53
-97,-107,-17,99,-41,-58,216,94,-4,-196,-117,-53
-97,-107,-17,99,-41,-58,222,100,-4,-202,-117,-65
-97,-107,-17,99,-41,-58,222,118,-4,-202,-117,-65
-103,-107,-11,105,-47,-52,228,118,-4,-202,-123,-65
-103,-107,-11,105,-47,-52,228,118,-4,-202,-123,-65
-103,-113,-17,105,-47,-58,234,112,-4,-202,-129,-71
-103,-113,-17,105,-47,-58,234,112,-4,-202,-129,-71
-109,-113,-11,111,-53,-58,240,124,2,-196,-129,-71
-109,-113,-11,111,-53,-58,240,136,2,-196,-129,-71
-115,-113,-5,111,-59,-52,246,136,2,-190,-123,-71
-115,-113,-5,111,-59,-52,246,136,2,-190,-123,-77
-121,-113,1,117,-65,-52,252,136,2,-190,-129,-83
-121,-107,7,111,-65,-46,252,148,2,-190,-129,-83
-127,-107,13,117,-71,-40,258,154,8,-190,-129,-77
-139,-107,25,123,-83,-34,264,160,8,-190,-129,-77
-139,-107,25,123,-83,-34,264,160,8,-190,-123,-77
-133,-107,19,117,-77,-40,264,166,8,-190,-123,-77
-133,-107,19,117,-77,-40,270,166,14,-190,-117,-77
-139,-101,31,117,-89,-29,270,172,14,-190,-117,-77
-133,-101,25,117,-83,-34,276,178,14,-184,-123,-89
-133,-101,25,117,-83,-34,282,184,20,-184,-123,-89
-127,-95,25,111,-77,-29,288,196,20,-184,-129,-89
-127,-95,25,111,-77,-29,294,202,26,-178,-129,-83
-133,-101,25,117,-83,-34,306,214,26,-172,-129,-83
-133,-101,25,117,-83,-34,306,214,26,-172,-129,-89
-139,-95,37,117,-89,-29,312,226,32,-160,-129,-89
-139,-95,37,117,-89,-29,324,244,44,-154,-123,-89
-139,-89,43,111,-95,-29,330,250,38,-154,-117,-83
-139,-89,43,111,-95,-29,330,250,44,-154,-117,-83
-133,-77,49,105,-95,-23,330,256,38,-160,-117,-77
-133,-71,55,99,-95,-17,336,262,44,-154,-117,-77
-133,-77,49,105,-95,-23,342,280,56,-148,-111,-71
-133,-77,49,105,-95,-23,348,292,62,-142,-105,-71
-133,-71,55,99,-95,-17,348,304,74,-136,-99,-59
-133,-71,55,99,-95,-17,348,304,80,-130,-87,-59
-133,-53,73,93,-107,1,354,310,86,-124,-87,-59
-133,-47,79,87,-107,7,354,322,92,-118,-81,-59
-127,-42,79,81,-107,13,360,328,98,-112,-81,-47
-127,-42,85,81,-107,19,366,334,110,-100,-81,-41
-127,-42,85,81,-107,19,372,346,116,-94,-69,-29
-121,-42,85,75,-101,19,378,364,128,-88,-63,-23
-115,-42,79,69,-95,19,384,370,134,-82,-45,-17
-103,-36,73,63,-89,19,384,382,140,-76,-45,-17
-103,-24,85,57,-95,31,384,388,146,-70,-39,-23
-103,-18,91,51,-95,37,384,394,158,-58,-33,-23
-103,-12,97,51,-101,43,384,400,164,-46,-21,-11
-103,-6,103,45,-101,49,384,406,176,-34,-15,1
-91,6,103,33,-95,55,378,400,182,-28,-15,-5
-91,12,109,33,-101,61,378,400,182,-34,-3,7
-85,24,115,33,-101,67,366,400,182,-28,-3,12
-85,36,127,33,-107,79,360,400,188,-22,9,12
-79,42,127,28,-101,85,360,400,200,-16,21,18
-67,48,121,16,-95,85,354,400,206,1,32,30
-61,54,121,10,-89,85,354,406,218,1,32,48
-61,60,127,10,-95,91,348,394,224,7,44,54
-61,66,133,4,-95,97,336,388,230,13,56,60
-49,72,127,-2,-89,97,318,382,236,25,68,66
-49,78,133,-8,-89,103,312,370,236,31,80,72
-43,84,133,-14,-89,109,300,364,236,37,86,78
-37,84,127,-14,-83,103,288,364,236,43,92,84
-37,90,133,-20,-83,109,276,346,236,49,104,96
-26,96,127,-26,-77,109,270,340,236,55,110,102
-26,102,133,-32,-77,115,258,334,236,61,122,108
-26,102,133,-32,-77,115,258,322,242,67,122,108
-26,108,127,-38,-71,121,246,310,242,73,122,114
-26,108,127,-38,-71,121,240,298,248,85,122,114
-20,108,121,-44,-65,115,228,286,248,91,122,114
-20,108,121,-44,-65,115,210,274,254,97,128,132
-20,114,127,-44,-65,121,204,262,254,97,134,138
-20,114,127,-44,-65,121,180,232,248,97,140,144
-8,114,115,-50,-53,115,168,220,242,97,140,144
-8,114,115,-50,-53,115,156,208,236,103,152,150
-8,114,115,-50,-53,115,144,196,236,103,152,156
-8,102,103,-44,-47,103,138,196,236,109,158,156
-2,96,91,-44,-41,97,126,184,236,103,158,144
-2,96,91,-44,-41,97,120,160,230,103,146,138
-2,96,91,-44,-41,97,108,148,218,97,140,132
4,90,79,-44,-29,85,96,130,212,97,140,126
4,84,73,-44,-29,79,96,130,206,91,134,126
10,78,61,-44,-17,73,90,118,194,85,128,126
10,72,55,-38,-17,67,84,106,188,79,128,114
10,66,49,-38,-11,61,78,106,182,79,122,114
10,60,43,-32,-11,55,72,88,176,73,116,108
4,54,43,-26,-11,49,60,76,170,67,104,108
4,48,37,-26,-11,43,54,64,158,61,98,102
-8,36,37,-14,-17,37,42,58,146,55,92,84
-8,36,37,-14,-17,37,42,40,134,43,86,78
-2,36,31,-14,-11,37,36,40,122,31,74,78
-2,30,25,-14,-6,31,36,40,122,19,74,78
-2,30,25,-14,-6,31,36,40,116,13,62,78
-8,24,25,-8,-11,25,36,35,104,1,56,66
-8,12,13,-2,-6,13,36,23,92,1,50,60
-8,6,7,4,-6,7,36,17,92,1,44,54
-8,-6,-5,10,-6,-5,36,11,86,-10,38,54
-8,-12,-11,10,-6,-11,30,-1,80,-16,32,48
-8,-12,-11,10,-6,-11,24,-1,74,-22,32,48
-8,-12,-11,10,-6,-11,18,-1,68,-28,32,42
-8,-12,-11,10,-6,-11,18,-7,62,-34,21,36
-8,-18,-17,16,0,-17,24,-13,56,-40,21,30
-14,-18,-11,16,-6,-11,24,-13,50,-40,15,36
-14,-24,-17,22,-6,-17,24,-13,50,-46,15,36
-20,-24,-11,22,-6,-17,24,-19,50,-52,15,42
-20,-30,-17,28,-6,-23,18,-25,44,-52,15,30
-14,-30,-17,22,0,-23,18,-31,38,-52,15,24
