,,,,,,,,,,,
2019-09-04 23:51:39,,,,,,,,,,,
,,,,,,,,,,,
I,II,III,aVR,aVL,aVF,V1,V2,V3,V4,V5,V6
30,-70,-100,18,62,-84,-38,-11,-118,-200,-207,-75
30,-70,-100,18,62,-84,-38,-11,-118,-200,-201,-75
30,-70,-100,18,62,-84,-38,-11,-118,-200,-201,-75
30,-70,-100,18,62,-84,-38,-11,-118,-200,-201,-69
30,-70,-100,18,62,-84,-44,-11,-118,-194,-195,-69
30,-70,-100,18,62,-84,-44,-11,-112,-194,-201,-75
36,-70,-106,12,67,-90,-44,-17,-112,-188,-201,-69
36,-76,-112,18,73,-96,-50,-17,-112,-188,-201,-69
36,-76,-112,18,73,-96,-50,-17,-112,-188,-201,-63
36,-70,-106,12,67,-90,-50,-23,-118,-188,-207,-69
41,-70,-112,12,73,-90,-50,-23,-118,-188,-201,-63
41,-70,-112,12,73,-90,-50,-23,-118,-188,-207,-63
41,-70,-112,12,73,-90,-50,-29,-124,-188,-207,-63
41,-70,-112,12,73,-90,-50,-29,-124,-188,-201,-63
41,-70,-112,12,73,-90,-56,-35,-124,-194,-207,-69
41,-70,-112,12,73,-90,-56,-35,-130,-200,-213,-69
41,-70,-112,12,73,-90,-56,-40,-136,-206,-213,-75
46,-70,-118,12,79,-90,-56,-45,-136,-206,-219,-69
46,-70,-118,12,79,-90,-56,-51,-136,-200,-219,-75
41,-64,-106,12,73,-84,-56,-51,-136,-206,-219,-81
41,-70,-112,12,73,-90,-56,-51,-130,-200,-219,-75
41,-70,-112,12,73,-90,-56,-57,-136,-206,-213,-75
36,-76,-112,18,73,-96,-62,-51,-136,-206,-219,-75
36,-76,-112,18,73,-96,-68,-51,-136,-206,-219,-81
36,-70,-106,12,67,-90,-68,-57,-136,-206,-219,-75
36,-70,-106,12,67,-90,-62,-57,-136,-206,-219,-75
36,-76,-112,18,73,-96,-62,-57,-130,-206,-225,-75
36,-82,-118,18,73,-102,-62,-57,-130,-212,-225,-75
36,-76,-112,18,73,-96,-62,-57,-136,-212,-231,-81
41,-76,-118,18,79,-96,-56,-57,-136,-212,-231,-81
41,-76,-118,18,79,-96,-62,-57,-136,-218,-231,-87
41,-82,-124,18,79,-102,-62,-51,-136,-218,-231,-81
36,-82,-118,18,73,-102,-62,-57,-142,-218,-231,-81
36,-82,-118,18,73,-102,-68,-57,-142,-218,-231,-87
36,-82,-118,18,73,-102,-68,-57,-136,-218,-231,-81
36,-82,-118,18,73,-102,-68,-57,-136,-224,-237,-87
36,-82,-118,18,73,-102,-68,-69,-142,-230,-237,-81
36,-82,-118,18,73,-102,-74,-69,-142,-230,-243,-87
30,-82,-112,24,67,-96,-74,-69,-142,-236,-249,-93
24,-88,-112,30,67,-102,-68,-69,-142,-242,-249,-93
30,-88,-118,30,73,-102,-68,-63,-136,-242,-249,-93
30,-94,-124,30,73,-108,-68,-69,-136,-242,-243,-93
24,-94,-118,30,67,-108,-68,-63,-136,-242,-243,-93
24,-100,-124,36,73,-114,-68,-63,-142,-242,-243,-87
24,-100,-124,36,73,-114,-80,-69,-142,-242,-249,-87
24,-100,-124,36,73,-114,-74,-69,-142,-242,-249,-93
24,-100,-124,36,73,-114,-74,-69,-142,-242,-255,-93
24,-100,-124,36,73,-114,-74,-69,-136,-242,-249,-93
18,-100,-118,42,67,-108,-74,-69,-136,-242,-255,-99
12,-106,-118,42,62,-114,-68,-69,-142,-242,-255,-99
12,-106,-118,42,62,-114,-68,-69,-142,-242,-255,-93
12,-106,-118,42,62,-114,-74,-75,-142,-242,-255,-93
6,-112,-118,54,62,-114,-80,-75,-142,-242,-255,-93
6,-118,-124,54,62,-120,-80,-81,-148,-248,-255,-99
12,-118,-130,48,67,-126,-80,-81,-154,-248,-255,-93
12,-118,-130,48,67,-126,-80,-87,-160,-254,-255,-99
12,-118,-130,48,67,-126,-80,-87,-160,-254,-255,-99
18,-118,-136,48,73,-126,-80,-87,-154,-254,-255,-105
18,-118,-136,48,73,-126,-86,-93,-160,-260,-261,-105
12,-118,-130,48,67,-126,-86,-99,-160,-260,-255,-105
6,-118,-124,54,62,-120,-86,-99,-160,-254,-255,-111
0,-124,-124,60,62,-126,-92,-105,-160,-254,-249,-111
0,-130,-130,60,62,-132,-92,-105,-160,-254,-249,-111
0,-130,-130,60,62,-132,-86,-105,-160,-254,-243,-111
0,-130,-130,60,62,-132,-86,-105,-160,-254,-249,-111
0,-136,-136,66,67,-138,-80,-105,-166,-260,-249,-117
6,-136,-142,66,73,-138,-86,-105,-166,-260,-249,-117
6,-130,-136,60,67,-132,-86,-105,-166,-260,-249,-111
6,-130,-136,60,67,-132,-92,-111,-172,-266,-249,-117
6,-130,-136,60,67,-132,-92,-111,-172,-266,-249,-129
6,-130,-136,60,67,-132,-98,-111,-178,-266,-249,-123
6,-136,-142,66,73,-138,-98,-117,-178,-260,-243,-123
0,-136,-136,66,67,-138,-98,-117,-184,-260,-249,-129
6,-136,-142,66,73,-138,-98,-117,-178,-266,-243,-123
6,-136,-142,66,73,-138,-98,-117,-178,-266,-243,-123
0,-142,-142,66,67,-144,-98,-123,-178,-266,-237,-123
0,-142,-142,66,67,-144,-98,-129,-178,-266,-243,-123
6,-130,-136,60,67,-132,-98,-129,-178,-266,-237,-117
6,-136,-142,66,73,-138,-98,-129,-184,-272,-243,-117
0,-136,-136,66,67,-138,-104,-129,-184,-272,-243,-123
-6,-136,-130,72,62,-132,-104,-129,-190,-272,-243,-123
0,-136,-136,66,67,-138,-104,-135,-190,-278,-237,-129
0,-136,-136,66,67,-138,-98,-135,-190,-278,-243,-129
0,-142,-142,66,67,-144,-98,-135,-190,-278,-237,-129
0,-148,-148,72,73,-150,-98,-135,-190,-278,-243,-129
0,-148,-148,72,73,-150,-98,-141,-184,-278,-237,-129
0,-148,-148,72,73,-150,-98,-141,-184,-278,-243,-123
-6,-142,-136,72,62,-138,-98,-141,-178,-278,-237,-123
-6,-142,-136,72,62,-138,-98,-141,-184,-278,-237,-123
-6,-148,-142,78,67,-144,-98,-141,-190,-284,-237,-129
0,-148,-148,72,73,-150,-98,-135,-196,-278,-231,-123
-6,-148,-142,78,67,-144,-98,-135,-190,-278,-225,-117
-6,-148,-142,78,67,-144,-98,-135,-196,-278,-231,-123
-6,-148,-142,78,67,-144,-98,-135,-190,-278,-225,-117
-6,-142,-136,72,62,-138,-98,-135,-184,-272,-225,-117
-6,-142,-136,72,62,-138,-92,-129,-178,-272,-225,-117
0,-136,-136,66,67,-138,-92,-129,-166,-266,-225,-117
0,-124,-124,60,62,-126,-86,-129,-166,-260,-225,-111
-6,-118,-112,60,51,-114,-86,-129,-166,-260,-225,-111
-6,-112,-106,60,51,-108,-86,-129,-166,-260,-219,-105
-6,-100,-94,54,45,-96,-86,-129,-166,-260,-219,-111
-6,-94,-88,48,39,-90,-80,-129,-166,-254,-213,-105
-6,-88,-83,48,39,-84,-80,-129,-160,-248,-207,-105
-6,-82,-78,42,33,-78,-74,-123,-160,-248,-207,-105
-12,-76,-66,42,27,-72,-68,-123,-154,-248,-201,-105
-12,-76,-66,42,27,-72,-74,-117,-148,-248,-201,-105
-6,-70,-66,36,27,-66,-68,-117,-148,-242,-195,-99
-6,-70,-66,36,27,-66,-68,-117,-148,-236,-195,-99
0,-70,-72,30,33,-72,-74,-117,-148,-236,-189,-93
6,-64,-72,30,39,-66,-80,-117,-148,-230,-189,-93
12,-64,-78,24,45,-72,-92,-123,-148,-230,-177,-81
18,-52,-72,18,45,-61,-110,-123,-148,-236,-177,-81
12,-52,-66,18,39,-61,-116,-123,-142,-230,-171,-75
6,-52,-60,24,33,-56,-122,-129,-142,-230,-177,-75
6,-46,-54,18,27,-50,-122,-135,-148,-236,-171,-69
12,-41,-54,12,33,-50,-128,-129,-154,-230,-171,-69
18,-41,-60,12,39,-50,-128,-129,-154,-224,-165,-69
18,-36,-54,12,39,-44,-128,-123,-154,-218,-165,-69
24,-41,-66,6,45,-56,-128,-117,-148,-218,-165,-69
30,-41,-72,6,51,-56,-122,-105,-142,-212,-153,-63
30,-46,-78,6,51,-61,-122,-99,-136,-212,-153,-63
41,-46,-88,1,62,-66,-116,-93,-130,-206,-147,-51
41,-52,-94,6,67,-72,-110,-87,-130,-206,-147,-51
41,-52,-94,6,67,-72,-104,-87,-130,-206,-141,-45
41,-52,-94,6,67,-72,-110,-81,-124,-200,-141,-45
36,-64,-100,12,67,-84,-110,-81,-118,-200,-135,-45
36,-70,-106,12,67,-90,-110,-81,-124,-200,-135,-51
36,-82,-118,18,73,-102,-116,-93,-124,-206,-141,-51
30,-94,-124,30,73,-108,-110,-99,-136,-212,-147,-63
18,-112,-130,48,73,-120,-110,-105,-148,-224,-159,-75
6,-130,-136,60,67,-132,-116,-111,-154,-230,-171,-81
6,-136,-142,66,73,-138,-116,-117,-166,-236,-183,-87
-6,-148,-142,78,67,-144,-116,-123,-172,-248,-189,-99
-12,-154,-142,78,62,-150,-116,-129,-178,-254,-201,-105
-18,-166,-148,90,62,-156,-116,-153,-190,-260,-207,-111
-18,-172,-154,96,67,-162,-116,-159,-196,-272,-213,-117
-18,-172,-154,96,67,-162,-122,-171,-202,-278,-213,-117
-18,-178,-160,96,67,-168,-128,-183,-208,-284,-219,-123
-18,-190,-172,102,73,-180,-128,-189,-214,-290,-225,-129
-18,-196,-178,108,79,-186,-134,-189,-214,-290,-231,-135
-12,-196,-184,102,85,-192,-140,-189,-214,-296,-225,-129
-12,-196,-184,102,85,-192,-140,-183,-220,-296,-225,-129
-18,-196,-178,108,79,-186,-140,-183,-214,-290,-225,-123
-18,-196,-178,108,79,-186,-140,-183,-214,-284,-219,-123
-18,-190,-172,102,73,-180,-134,-183,-214,-278,-219,-117
-18,-184,-166,102,73,-174,-128,-183,-214,-278,-207,-123
-18,-172,-154,96,67,-162,-122,-177,-202,-266,-207,-117
-18,-160,-142,90,62,-150,-116,-165,-190,-254,-195,-117
-18,-142,-124,78,51,-132,-116,-153,-172,-242,-189,-111
-24,-136,-112,78,45,-126,-110,-135,-154,-230,-183,-111
-30,-124,-94,78,33,-108,-98,-123,-136,-212,-177,-105
-36,-112,-78,72,21,-96,-86,-105,-118,-200,-171,-99
-36,-100,-66,66,15,-84,-74,-87,-100,-182,-153,-93
-42,-88,-48,66,3,-66,-56,-69,-76,-158,-141,-87
-42,-76,-36,60,-3,-56,-38,-51,-52,-140,-123,-81
-48,-64,-18,54,-15,-44,-21,-29,-16,-110,-111,-75
-48,-52,-6,48,-21,-32,2,1,12,-86,-93,-69
-42,-52,-12,48,-15,-32,32,49,48,-62,-81,-63
-30,-58,-30,42,-3,-44,68,121,96,-40,-69,-69
-18,-70,-54,42,15,-61,116,217,156,-10,-51,-63
6,-82,-88,36,45,-84,176,349,258,44,-15,-51
30,-94,-124,30,73,-108,260,523,390,116,31,-33
46,-100,-148,30,97,-120,380,727,558,206,79,-21
70,-88,-160,12,115,-120,524,955,744,302,133,-3
88,-52,-142,-16,115,-96,668,1189,954,428,211,27
112,-6,-118,-52,115,-61,806,1411,1176,578,307,79
130,78,-54,-100,91,16,920,1585,1380,746,421,151
142,192,48,-160,51,124,998,1681,1542,920,559,247
154,354,198,-250,-21,280,1028,1681,1656,1118,721,373
166,546,378,-352,-105,466,1010,1609,1734,1328,913,529
178,762,582,-466,-201,676,938,1465,1758,1538,1117,709
178,984,804,-574,-309,898,824,1219,1710,1712,1297,889
166,1212,1044,-682,-435,1132,668,877,1572,1832,1453,1057
136,1440,1302,-784,-579,1372,494,481,1380,1916,1573,1201
82,1656,1572,-862,-741,1618,308,1,1074,1910,1627,1309
6,1854,1848,-928,-921,1852,128,-507,666,1790,1591,1351
-66,2004,2070,-964,-1065,2038,-32,-969,234,1586,1495,1345
-120,2046,2166,-964,-1143,2104,-158,-1311,-148,1340,1351,1291
-168,1998,2166,-916,-1167,2080,-248,-1515,-448,1094,1195,1207
-204,1866,2070,-832,-1137,1966,-296,-1617,-676,812,997,1075
-228,1686,1914,-730,-1071,1798,-308,-1641,-850,500,751,901
-246,1464,1710,-604,-975,1588,-290,-1593,-940,230,499,697
-258,1254,1512,-496,-885,1384,-266,-1509,-970,20,289,511
-264,1056,1320,-394,-789,1186,-266,-1425,-976,-122,115,349
-258,870,1128,-304,-693,1000,-290,-1347,-970,-236,-9,211
-246,690,936,-220,-591,814,-314,-1263,-952,-320,-105,103
-228,522,750,-148,-489,634,-338,-1185,-934,-386,-177,21
-216,372,588,-76,-399,478,-350,-1101,-910,-428,-231,-45
-204,246,450,-22,-327,346,-350,-1017,-862,-458,-267,-93
-192,156,348,18,-267,250,-344,-915,-796,-464,-285,-117
-168,90,258,36,-213,172,-332,-819,-718,-452,-297,-135
-150,48,198,54,-171,124,-320,-723,-640,-440,-303,-147
-126,6,132,60,-129,70,-308,-633,-556,-416,-303,-159
-108,-30,78,66,-93,22,-272,-543,-478,-380,-291,-165
-90,-58,30,72,-63,-14,-236,-465,-406,-344,-279,-165
-72,-94,-24,78,-27,-61,-194,-393,-346,-314,-255,-165
-60,-118,-60,84,-3,-90,-164,-333,-298,-278,-237,-159
-48,-130,-83,84,15,-108,-140,-279,-256,-248,-207,-141
-42,-142,-100,90,27,-120,-128,-237,-220,-224,-189,-129
-30,-142,-112,84,39,-126,-128,-201,-184,-206,-165,-117
-18,-124,-106,72,45,-114,-122,-165,-148,-188,-147,-105
-6,-118,-112,60,51,-114,-110,-135,-112,-164,-135,-93
-6,-112,-106,60,51,-108,-104,-111,-82,-146,-123,-87
-6,-106,-100,54,45,-102,-98,-87,-52,-134,-123,-87
-6,-100,-94,54,45,-96,-92,-69,-28,-122,-105,-81
-6,-100,-94,54,45,-96,-92,-57,-10,-110,-99,-81
-6,-94,-88,48,39,-90,-86,-40,0,-92,-87,-69
-6,-94,-88,48,39,-90,-80,-35,18,-80,-81,-57
0,-88,-88,42,45,-90,-74,-17,30,-74,-69,-63
0,-88,-88,42,45,-90,-74,-5,36,-74,-69,-57
6,-88,-94,42,51,-90,-74,1,48,-68,-63,-63
6,-88,-94,42,51,-90,-80,7,54,-68,-63,-63
6,-94,-100,42,51,-96,-80,13,66,-68,-63,-63
6,-88,-94,42,51,-90,-80,13,72,-62,-57,-63
6,-82,-88,36,45,-84,-80,13,78,-56,-57,-63
6,-82,-88,36,45,-84,-80,19,84,-50,-51,-57
12,-82,-94,30,51,-90,-74,25,96,-45,-45,-51
12,-76,-88,30,51,-84,-80,25,102,-40,-33,-45
12,-64,-78,24,45,-72,-74,31,96,-40,-33,-45
12,-64,-78,24,45,-72,-68,37,102,-40,-33,-39
12,-64,-78,24,45,-72,-68,49,114,-28,-21,-33
18,-58,-78,18,45,-66,-68,61,120,-22,-21,-21
24,-58,-83,12,51,-72,-68,67,126,-22,-21,-15
24,-52,-78,12,51,-66,-68,67,132,-16,-15,-9
24,-52,-78,12,51,-66,-68,73,138,-4,-15,-3
18,-52,-72,18,45,-61,-62,79,144,-4,-15,3
18,-52,-72,18,45,-61,-62,85,156,8,-9,9
18,-41,-60,12,39,-50,-62,97,156,14,-3,15
18,-41,-60,12,39,-50,-56,103,162,20,3,21
24,-41,-66,6,45,-56,-56,109,168,26,14,21
24,-41,-66,6,45,-56,-50,121,174,32,14,27
24,-36,-60,6,45,-50,-44,127,174,44,25,27
30,-36,-66,6,51,-50,-44,133,180,56,25,32
30,-30,-60,1,45,-44,-44,139,186,68,37,27
24,-30,-54,1,39,-44,-44,145,198,74,37,32
24,-30,-54,1,39,-44,-44,151,198,86,43,27
24,-24,-48,1,39,-38,-44,157,204,92,55,32
24,-12,-36,-4,33,-26,-44,163,210,104,61,32
24,-6,-30,-10,27,-20,-38,169,216,110,67,32
24,-6,-30,-10,27,-20,-32,175,228,122,73,32
30,0,-30,-10,33,-14,-32,175,240,140,85,37
30,6,-24,-16,27,-8,-32,181,252,152,97,37
30,12,-18,-16,27,-2,-32,193,264,170,109,43
36,12,-24,-22,33,-8,-26,199,276,188,115,49
36,18,-18,-28,27,-2,-26,205,282,200,127,61
36,24,-12,-28,27,4,-26,217,294,212,139,61
41,36,-6,-34,27,16,-26,223,306,230,145,67
46,42,-6,-40,27,22,-26,235,324,242,157,79
46,48,0,-40,27,28,-26,241,336,254,163,85
46,54,6,-46,21,34,-21,253,348,266,175,91
46,60,12,-46,21,40,-21,259,360,278,181,97
46,60,12,-46,21,40,-21,259,366,290,193,109
46,66,18,-52,15,46,-21,271,378,302,205,115
52,72,18,-58,21,46,-21,277,390,314,217,127
58,84,24,-64,21,58,-16,295,402,332,229,133
64,96,30,-76,21,64,-16,313,420,344,235,145
70,102,30,-82,21,70,-16,325,438,356,253,163
70,102,30,-82,21,70,-16,337,456,362,259,169
76,114,36,-94,21,76,-16,349,474,380,277,181
76,126,48,-100,15,88,-16,361,486,392,283,193
82,132,48,-100,21,94,-16,367,504,410,301,211
88,144,54,-112,21,100,-10,379,516,428,313,217
88,150,60,-118,15,106,-10,385,528,440,331,229
94,168,72,-124,15,124,-4,397,540,452,337,235
94,174,78,-130,9,130,-10,409,558,464,343,247
100,186,84,-142,9,136,-10,427,576,482,361,253
106,192,84,-142,15,142,-10,439,600,506,373,271
106,204,96,-148,9,154,-10,457,618,524,391,277
112,216,102,-160,9,160,-10,469,636,536,403,289
118,222,102,-166,9,166,-4,481,660,560,415,295
124,234,108,-178,9,172,-4,499,678,578,433,313
130,246,114,-184,9,184,-4,511,690,596,451,325
136,258,120,-196,9,190,-10,517,702,608,463,337
142,264,120,-196,15,196,-10,523,714,614,475,349
142,276,132,-202,9,208,-10,535,732,632,493,355
142,282,138,-208,3,214,-10,547,744,650,505,361
136,294,156,-214,-9,226,-10,553,762,674,529,373
136,300,162,-214,-9,232,-10,565,780,692,541,385
142,312,168,-220,-9,244,-10,571,792,704,559,391
142,318,174,-226,-15,250,-10,583,810,716,571,397
154,324,168,-232,-3,250,-10,589,822,728,583,409
160,336,174,-244,-3,256,-10,589,828,740,595,421
160,336,174,-244,-3,256,-16,601,846,758,607,427
160,348,186,-250,-9,268,-21,607,852,764,619,439
160,354,192,-256,-15,274,-21,613,870,776,625,445
166,360,192,-256,-9,280,-21,613,876,782,631,451
166,366,198,-262,-15,286,-21,619,888,794,637,457
172,372,198,-268,-9,286,-21,613,888,800,649,463
172,378,204,-274,-15,292,-21,613,888,806,649,463
172,384,210,-274,-15,298,-21,619,894,812,661,469
172,390,216,-280,-21,304,-21,613,900,818,667,475
172,390,216,-280,-21,304,-21,613,900,824,673,481
166,396,228,-274,-27,316,-21,607,888,818,673,481
166,396,228,-274,-27,316,-21,595,876,818,673,481
160,390,228,-274,-33,310,-26,583,864,806,667,481
154,384,228,-262,-33,310,-21,571,840,794,655,475
154,378,222,-262,-33,304,-21,553,816,788,643,469
154,378,222,-262,-33,304,-21,541,798,776,631,457
148,366,216,-256,-33,292,-26,517,768,746,613,439
142,354,210,-244,-33,286,-21,493,738,710,589,415
136,342,204,-238,-33,274,-32,463,702,674,565,397
130,330,198,-226,-33,268,-32,433,666,638,535,385
124,318,192,-220,-33,256,-32,403,630,602,505,361
118,300,180,-202,-27,244,-32,373,582,560,475,343
112,276,162,-190,-21,220,-38,343,540,524,445,319
106,258,150,-178,-21,208,-38,319,498,488,415,301
106,234,126,-166,-9,184,-44,295,456,452,385,283
100,210,108,-154,-3,160,-44,271,420,416,355,259
88,192,102,-136,-3,148,-50,247,384,374,319,229
76,168,90,-118,-3,130,-50,217,348,332,295,199
70,144,72,-100,3,112,-50,187,312,290,265,169
64,126,60,-94,3,94,-56,157,270,248,241,145
58,108,48,-76,9,82,-62,127,228,212,211,127
52,90,36,-70,9,64,-62,109,192,176,181,103
52,72,18,-58,21,46,-68,79,150,152,151,85
46,48,0,-40,27,28,-68,61,120,122,127,61
41,30,-12,-34,27,10,-74,37,90,98,103,49
41,6,-36,-22,39,-14,-80,19,72,68,79,37
30,-12,-42,-4,39,-26,-86,1,48,38,61,21
30,-24,-54,1,45,-38,-86,-17,24,14,43,3
24,-36,-60,6,45,-50,-92,-29,6,-10,25,-9
24,-41,-66,6,45,-56,-92,-45,-16,-34,9,-21
18,-52,-72,18,45,-61,-92,-63,-34,-45,3,-33
18,-64,-83,24,51,-72,-98,-75,-52,-56,-15,-39
18,-70,-88,24,51,-78,-110,-93,-70,-68,-21,-45
12,-76,-88,30,51,-84,-116,-105,-88,-80,-33,-51
12,-88,-100,36,57,-96,-116,-111,-100,-92,-39,-63
12,-100,-112,42,62,-108,-116,-117,-106,-104,-51,-69
12,-106,-118,42,62,-114,-116,-129,-118,-116,-63,-81
12,-112,-124,48,67,-120,-122,-141,-130,-134,-69,-93
6,-118,-124,54,62,-120,-122,-147,-142,-146,-75,-93
6,-124,-130,60,67,-126,-116,-153,-148,-152,-81,-99
6,-130,-136,60,67,-132,-116,-159,-154,-158,-87,-93
0,-136,-136,66,67,-138,-122,-165,-160,-164,-87,-99
-6,-142,-136,72,62,-138,-122,-165,-166,-164,-93,-99
-12,-154,-142,78,62,-150,-128,-171,-172,-170,-93,-105
-6,-154,-148,78,67,-150,-128,-165,-166,-176,-99,-105
0,-154,-154,72,73,-156,-122,-165,-172,-176,-99,-105
-6,-154,-148,78,67,-150,-122,-171,-178,-182,-111,-111
0,-160,-160,78,79,-162,-122,-177,-184,-194,-111,-117
-6,-166,-160,84,73,-162,-122,-177,-184,-194,-117,-117
-6,-160,-154,84,73,-156,-128,-183,-190,-200,-117,-117
-6,-160,-154,84,73,-156,-128,-183,-190,-200,-123,-123
-6,-160,-154,84,73,-156,-128,-183,-184,-194,-123,-117
-6,-154,-148,78,67,-150,-128,-189,-184,-188,-123,-123
-12,-160,-148,84,67,-156,-122,-189,-184,-194,-129,-123
-6,-160,-154,84,73,-156,-122,-189,-184,-194,-129,-123
-6,-160,-154,84,73,-156,-128,-189,-184,-194,-129,-123
-6,-160,-154,84,73,-156,-122,-189,-184,-194,-129,-129
-6,-166,-160,84,73,-162,-122,-189,-190,-200,-141,-135
-6,-166,-160,84,73,-162,-122,-189,-190,-206,-135,-135
-6,-166,-160,84,73,-162,-116,-195,-196,-206,-135,-141
-12,-166,-154,84,67,-162,-116,-195,-196,-206,-135,-141
-18,-160,-142,90,62,-150,-122,-201,-190,-206,-135,-147
-18,-160,-142,90,62,-150,-122,-201,-190,-206,-135,-141
-18,-166,-148,90,62,-156,-122,-201,-184,-212,-135,-147
-12,-166,-154,84,67,-162,-122,-201,-178,-212,-129,-141
-12,-166,-154,84,67,-162,-116,-201,-172,-206,-129,-141
-12,-166,-154,84,67,-162,-122,-195,-172,-212,-129,-141
-6,-166,-160,84,73,-162,-116,-195,-178,-212,-123,-135
-6,-172,-166,90,79,-168,-116,-195,-178,-212,-123,-135
-12,-160,-148,84,67,-156,-110,-189,-178,-206,-123,-141
-12,-160,-148,84,67,-156,-110,-195,-184,-212,-129,-147
-12,-154,-142,78,62,-150,-104,-189,-178,-212,-129,-147
-12,-154,-142,78,62,-150,-110,-189,-178,-218,-129,-153
-18,-154,-136,84,57,-144,-104,-195,-184,-224,-135,-153
-12,-160,-148,84,67,-156,-98,-195,-184,-218,-135,-147
-12,-160,-148,84,67,-156,-98,-195,-184,-212,-135,-141
-18,-166,-148,90,62,-156,-86,-195,-184,-212,-135,-141
-12,-160,-148,84,67,-156,-80,-195,-184,-206,-135,-141
-12,-160,-148,84,67,-156,-80,-189,-184,-206,-129,-135
-12,-154,-142,78,62,-150,-68,-189,-178,-206,-129,-135
-18,-154,-136,84,57,-144,-62,-189,-178,-206,-123,-135
-18,-154,-136,84,57,-144,-62,-189,-178,-212,-129,-141
-12,-154,-142,78,62,-150,-56,-189,-184,-212,-129,-141
-18,-154,-136,84,57,-144,-50,-189,-178,-218,-135,-141
-12,-148,-136,78,62,-144,-56,-183,-178,-218,-129,-141
-12,-142,-130,72,57,-138,-50,-183,-178,-212,-129,-135
-12,-142,-130,72,57,-138,-38,-183,-184,-218,-135,-135
-18,-142,-124,78,51,-132,-38,-183,-184,-218,-129,-147
-18,-148,-130,84,57,-138,-32,-177,-184,-218,-129,-141
-18,-142,-124,78,51,-132,-32,-177,-178,-212,-123,-141
-18,-142,-124,78,51,-132,-26,-177,-178,-206,-123,-141
-18,-142,-124,78,51,-132,-21,-177,-172,-206,-117,-141
-18,-142,-124,78,51,-132,-21,-177,-172,-200,-117,-135
-18,-142,-124,78,51,-132,-21,-177,-172,-200,-117,-135
-18,-136,-118,78,51,-126,-16,-177,-172,-200,-117,-135
-18,-142,-124,78,51,-132,-21,-171,-166,-194,-117,-129
-18,-136,-118,78,51,-126,-16,-171,-172,-194,-111,-129
-18,-142,-124,78,51,-132,-10,-171,-172,-200,-123,-129
-18,-142,-124,78,51,-132,-4,-171,-172,-200,-123,-129
-18,-136,-118,78,51,-126,-4,-171,-172,-194,-123,-123
-18,-136,-118,78,51,-126,-10,-177,-172,-194,-129,-123
-18,-136,-118,78,51,-126,-10,-177,-172,-194,-129,-123
-18,-130,-112,72,45,-120,-4,-183,-172,-194,-135,-129
-18,-130,-112,72,45,-120,-4,-183,-172,-194,-135,-129
-18,-124,-106,72,45,-114,2,-177,-166,-194,-135,-129
-12,-124,-112,66,51,-120,2,-177,-160,-194,-135,-129
-12,-130,-118,66,51,-126,2,-177,-166,-194,-141,-135
-12,-130,-118,66,51,-126,8,-177,-172,-194,-141,-135
-12,-130,-118,66,51,-126,8,-177,-172,-194,-141,-129
-12,-136,-124,72,57,-132,8,-177,-166,-194,-141,-129
-18,-142,-124,78,51,-132,14,-177,-166,-188,-141,-135
-12,-136,-124,72,57,-132,14,-183,-166,-194,-147,-135
-12,-130,-118,66,51,-126,14,-183,-172,-194,-141,-135
-12,-130,-118,66,51,-126,14,-183,-172,-194,-147,-135
-12,-130,-118,66,51,-126,14,-183,-178,-200,-141,-129
-12,-130,-118,66,51,-126,14,-183,-178,-200,-141,-129
-12,-130,-118,66,51,-126,14,-183,-184,-200,-141,-129
-6,-136,-130,72,62,-132,20,-183,-184,-200,-147,-129
-6,-136,-130,72,62,-132,14,-183,-184,-200,-147,-129
-6,-142,-136,72,62,-138,14,-189,-184,-200,-147,-135
-6,-136,-130,72,62,-132,14,-189,-190,-206,-153,-135
-6,-136,-130,72,62,-132,20,-183,-190,-206,-153,-141
-12,-142,-130,72,57,-138,20,-189,-190,-206,-153,-141
-12,-142,-130,72,57,-138,20,-189,-202,-212,-153,-147
-12,-142,-130,72,57,-138,14,-189,-202,-212,-153,-141
-12,-148,-136,78,62,-144,20,-189,-202,-218,-159,-135
-12,-148,-136,78,62,-144,20,-195,-202,-218,-159,-135
-12,-154,-142,78,62,-150,26,-189,-196,-218,-159,-141
-6,-154,-148,78,67,-150,26,-189,-196,-218,-159,-135
0,-160,-160,78,79,-162,26,-189,-196,-212,-159,-141
0,-154,-154,72,73,-156,26,-189,-196,-212,-165,-141
0,-154,-154,72,73,-156,32,-189,-202,-212,-159,-147
0,-154,-154,72,73,-156,32,-195,-202,-212,-165,-141
-6,-154,-148,78,67,-150,32,-195,-202,-218,-165,-141
-12,-160,-148,84,67,-156,38,-195,-208,-218,-171,-141
-18,-160,-142,90,62,-150,38,-189,-208,-224,-165,-135
-18,-160,-142,90,62,-150,38,-189,-214,-224,-171,-141
-18,-160,-142,90,62,-150,38,-189,-208,-230,-177,-147
-18,-166,-148,90,62,-156,38,-189,-208,-236,-177,-153
-18,-160,-142,90,62,-150,38,-189,-208,-236,-183,-153
-18,-160,-142,90,62,-150,38,-195,-208,-230,-177,-153
-6,-166,-160,84,73,-162,26,-189,-196,-224,-177,-147
-6,-166,-160,84,73,-162,26,-189,-196,-224,-183,-147
-12,-166,-154,84,67,-162,26,-195,-208,-230,-183,-147
-12,-172,-160,90,73,-168,26,-195,-208,-230,-189,-141
-12,-172,-160,90,73,-168,32,-201,-208,-230,-189,-135
-18,-172,-154,96,67,-162,32,-201,-214,-236,-189,-141
-18,-172,-154,96,67,-162,32,-201,-214,-236,-183,-141
-18,-172,-154,96,67,-162,32,-201,-214,-242,-183,-141
-18,-166,-148,90,62,-156,32,-201,-214,-242,-189,-147
-12,-172,-160,90,73,-168,32,-201,-214,-242,-189,-147
-12,-172,-160,90,73,-168,32,-195,-214,-242,-195,-141
-12,-178,-166,90,73,-174,32,-195,-214,-242,-201,-147
-12,-178,-166,90,73,-174,32,-195,-214,-248,-201,-147
-12,-184,-172,96,79,-180,26,-195,-220,-236,-207,-147
-12,-184,-172,96,79,-180,26,-201,-220,-236,-195,-141
-18,-178,-160,96,67,-168,26,-201,-220,-236,-201,-153
-18,-178,-160,96,67,-168,32,-201,-220,-242,-207,-153
-18,-184,-166,102,73,-174,32,-201,-220,-242,-207,-159
-12,-178,-166,90,73,-174,32,-201,-220,-242,-207,-153
-12,-178,-166,90,73,-174,26,-207,-226,-242,-207,-159
-12,-178,-166,90,73,-174,26,-207,-226,-242,-207,-153
-12,-178,-166,90,73,-174,26,-207,-226,-242,-201,-153
-12,-178,-166,90,73,-174,32,-207,-232,-242,-207,-147
-12,-178,-166,90,73,-174,38,-207,-226,-236,-201,-153
-12,-178,-166,90,73,-174,32,-207,-226,-236,-201,-147
-12,-184,-172,96,79,-180,26,-207,-226,-236,-207,-153
-18,-184,-166,102,73,-174,26,-213,-226,-236,-201,-153
-12,-184,-172,96,79,-180,26,-213,-226,-230,-201,-153
-6,-178,-172,90,79,-174,32,-213,-226,-230,-201,-147
-6,-178,-172,90,79,-174,32,-213,-232,-224,-201,-147
-6,-184,-178,96,85,-180,32,-213,-232,-224,-201,-147
-6,-184,-178,96,85,-180,26,-213,-232,-224,-201,-147
-12,-190,-178,96,79,-186,26,-213,-232,-230,-207,-153
-6,-184,-178,96,85,-180,26,-213,-232,-230,-207,-147
-6,-184,-178,96,85,-180,26,-213,-232,-224,-207,-141
-6,-184,-178,96,85,-180,26,-213,-238,-230,-207,-147
0,-184,-184,90,91,-186,26,-213,-238,-224,-207,-141
12,-184,-196,84,103,-192,20,-219,-238,-224,-207,-141
6,-178,-184,84,91,-180,20,-219,-232,-218,-201,-135
6,-184,-190,90,97,-186,26,-213,-226,-218,-201,-141
6,-184,-190,90,97,-186,26,-225,-232,-224,-207,-135
6,-184,-190,90,97,-186,26,-225,-238,-230,-207,-141
6,-184,-190,90,97,-186,32,-225,-232,-230,-207,-135
0,-190,-190,90,91,-192,26,-219,-238,-236,-207,-141
0,-190,-190,90,91,-192,20,-219,-238,-236,-207,-129
-6,-190,-184,96,85,-186,20,-219,-244,-236,-213,-135
0,-190,-190,90,91,-192,20,-225,-238,-236,-213,-135
0,-184,-184,90,91,-186,26,-225,-238,-230,-213,-141
6,-178,-184,84,91,-180,26,-225,-238,-230,-213,-135
12,-178,-190,78,97,-186,26,-231,-238,-230,-213,-141
12,-184,-196,84,103,-192,20,-231,-238,-230,-219,-135
12,-184,-196,84,103,-192,20,-237,-244,-236,-219,-141
6,-184,-190,90,97,-186,20,-237,-244,-242,-219,-135
6,-184,-190,90,97,-186,14,-231,-244,-242,-213,-141
6,-184,-190,90,97,-186,14,-231,-244,-242,-213,-135
6,-184,-190,90,97,-186,14,-231,-244,-242,-213,-141
0,-184,-184,90,91,-186,14,-231,-238,-236,-213,-135
6,-184,-190,90,97,-186,14,-231,-232,-230,-213,-135
6,-178,-184,84,91,-180,14,-231,-232,-224,-213,-135
6,-172,-178,84,91,-174,14,-231,-232,-224,-213,-141
6,-178,-184,84,91,-180,14,-237,-238,-230,-219,-141
12,-178,-190,78,97,-186,14,-243,-244,-236,-219,-147
6,-184,-190,90,97,-186,20,-243,-250,-242,-219,-147
6,-184,-190,90,97,-186,8,-243,-244,-242,-213,-141
12,-184,-196,84,103,-192,14,-243,-244,-242,-213,-135
12,-178,-190,78,97,-186,14,-237,-244,-242,-219,-141
12,-178,-190,78,97,-186,14,-237,-244,-242,-219,-141
6,-178,-184,84,91,-180,20,-237,-244,-242,-219,-141
6,-178,-184,84,91,-180,20,-243,-250,-242,-219,-141
0,-178,-178,84,85,-180,14,-249,-256,-248,-219,-147
6,-184,-190,90,97,-186,14,-243,-256,-248,-225,-147
6,-178,-184,84,91,-180,8,-243,-256,-242,-219,-147
6,-178,-184,84,91,-180,8,-237,-250,-242,-219,-141
12,-178,-190,78,97,-186,14,-237,-250,-242,-213,-135
12,-178,-190,78,97,-186,14,-237,-244,-236,-219,-123
6,-184,-190,90,97,-186,14,-237,-238,-242,-225,-129
6,-184,-190,90,97,-186,14,-237,-238,-242,-219,-129
0,-184,-184,90,91,-186,14,-243,-238,-242,-219,-135
0,-184,-184,90,91,-186,14,-249,-244,-248,-219,-135
-6,-184,-178,96,85,-180,14,-249,-250,-242,-219,-135
-6,-184,-178,96,85,-180,14,-255,-256,-242,-225,-135
-6,-184,-178,96,85,-180,14,-249,-256,-242,-219,-141
-12,-184,-172,96,79,-180,14,-249,-256,-236,-225,-135
-12,-190,-178,96,79,-186,8,-249,-250,-236,-219,-135
-12,-190,-178,96,79,-186,8,-249,-244,-236,-219,-129
-12,-190,-178,96,79,-186,14,-249,-244,-236,-225,-135
-6,-184,-178,96,85,-180,14,-249,-238,-242,-219,-141
-6,-184,-178,96,85,-180,14,-255,-238,-242,-219,-141
-6,-184,-178,96,85,-180,14,-249,-232,-242,-213,-135
-6,-184,-178,96,85,-180,8,-249,-238,-242,-213,-141
0,-172,-172,84,85,-174,14,-243,-232,-236,-219,-129
6,-172,-178,84,91,-174,14,-237,-232,-224,-213,-129
0,-166,-166,78,79,-168,14,-231,-226,-224,-213,-123
0,-154,-154,72,73,-156,20,-231,-220,-218,-213,-117
0,-148,-148,72,73,-150,20,-231,-214,-212,-201,-105
0,-136,-136,66,67,-138,20,-225,-208,-206,-201,-105
0,-130,-130,60,62,-132,14,-231,-214,-212,-201,-111
6,-124,-130,60,67,-126,14,-231,-214,-218,-201,-111
6,-118,-124,54,62,-120,20,-231,-214,-218,-201,-105
12,-118,-130,48,67,-126,20,-231,-208,-212,-195,-105
18,-118,-136,48,73,-126,26,-231,-208,-206,-195,-105
18,-118,-136,48,73,-126,26,-231,-208,-206,-189,-105
18,-112,-130,48,73,-120,26,-225,-208,-200,-189,-105
24,-112,-136,42,79,-126,14,-225,-202,-194,-189,-99
24,-112,-136,42,79,-126,8,-219,-196,-188,-183,-93
24,-106,-130,36,73,-120,-4,-219,-196,-188,-183,-93
18,-112,-130,48,73,-120,-10,-231,-202,-188,-183,-93
12,-118,-130,48,67,-126,-10,-237,-208,-194,-183,-93
12,-118,-130,48,67,-126,-16,-243,-208,-200,-183,-93
12,-118,-130,48,67,-126,-16,-243,-208,-194,-177,-93
18,-124,-142,54,79,-132,-16,-243,-208,-194,-177,-87
24,-124,-148,48,85,-138,-16,-237,-202,-194,-183,-87
36,-118,-154,36,91,-138,-16,-231,-202,-194,-177,-87
46,-112,-160,36,103,-132,-10,-225,-196,-188,-171,-75
52,-112,-166,30,109,-138,-10,-219,-196,-182,-165,-75
58,-112,-172,30,115,-138,-4,-213,-196,-182,-159,-69
58,-118,-178,30,115,-144,-10,-213,-190,-188,-159,-81
58,-124,-184,36,121,-150,-4,-207,-190,-182,-147,-69
58,-130,-190,36,121,-156,-4,-207,-184,-176,-147,-75
46,-130,-178,42,109,-150,-4,-213,-190,-176,-153,-69
41,-136,-178,48,109,-156,-4,-213,-190,-176,-159,-75
41,-142,-184,48,109,-162,-4,-219,-196,-182,-165,-69
36,-160,-196,60,115,-180,-4,-231,-214,-200,-177,-81
24,-178,-202,72,109,-192,-10,-243,-226,-218,-189,-93
18,-190,-208,84,109,-198,-10,-249,-232,-224,-201,-99
6,-202,-208,96,103,-204,-10,-261,-244,-230,-207,-111
0,-214,-214,102,103,-216,-10,-267,-250,-236,-207,-117
-6,-220,-214,114,103,-216,-10,-273,-256,-236,-213,-123
-6,-226,-220,114,103,-222,-10,-273,-256,-236,-219,-129
-12,-232,-220,120,103,-228,-16,-273,-256,-242,-219,-135
-12,-226,-214,114,97,-222,-16,-279,-262,-248,-231,-141
-18,-226,-208,120,91,-216,-21,-285,-262,-254,-231,-141
-18,-232,-214,126,97,-222,-21,-291,-268,-260,-237,-141
-18,-232,-214,126,97,-222,-21,-297,-274,-260,-243,-141
-12,-232,-220,120,103,-228,-21,-303,-274,-260,-237,-129
-12,-226,-214,114,97,-222,-21,-297,-274,-260,-237,-129
-12,-220,-208,114,97,-216,-21,-291,-268,-248,-225,-123
-12,-220,-208,114,97,-216,-16,-273,-250,-236,-219,-117
-18,-208,-190,114,85,-198,-10,-261,-232,-224,-213,-111
-18,-202,-184,108,79,-192,-4,-249,-220,-212,-207,-111
-24,-190,-166,102,67,-180,8,-231,-202,-194,-195,-105
-24,-172,-148,96,62,-162,14,-219,-184,-182,-189,-105
-30,-160,-130,96,51,-144,26,-201,-172,-164,-177,-105
-36,-148,-112,90,39,-132,38,-195,-154,-152,-165,-105
-42,-130,-88,84,21,-108,44,-183,-136,-128,-153,-99
-48,-106,-60,72,3,-84,62,-165,-118,-110,-141,-99
-48,-94,-48,66,-3,-72,80,-135,-94,-98,-135,-93
-48,-82,-36,60,-9,-61,98,-111,-64,-80,-123,-93
-42,-70,-30,54,-9,-50,116,-69,-22,-50,-105,-81
-42,-64,-24,54,-9,-44,140,-35,6,-34,-93,-69
-42,-64,-24,54,-9,-44,164,19,54,-10,-75,-75
-30,-76,-48,54,9,-61,194,97,102,14,-63,-63
-12,-100,-88,54,39,-96,248,199,168,44,-45,-69
12,-118,-130,48,67,-126,320,331,252,92,-9,-51
36,-130,-166,42,97,-150,422,511,378,158,25,-39
52,-124,-178,36,115,-150,548,727,534,236,67,-21
70,-118,-190,24,127,-150,692,967,720,326,121,-9
94,-82,-178,-4,133,-126,836,1225,936,452,193,32
130,-30,-160,-46,145,-90,968,1453,1164,602,289,79
148,60,-88,-100,121,-14,1076,1603,1356,764,403,151
160,198,36,-178,62,118,1136,1669,1506,944,535,253
166,378,210,-268,-21,298,1142,1627,1608,1148,715,385
172,582,408,-376,-117,496,1112,1525,1680,1358,907,553
172,810,636,-490,-231,724,1040,1357,1704,1568,1117,733
166,1038,870,-598,-351,958,920,1093,1656,1742,1315,925
136,1266,1128,-700,-495,1198,770,751,1542,1886,1483,1099
88,1500,1410,-790,-657,1456,614,343,1350,1970,1603,1243
24,1722,1698,-874,-837,1708,446,-135,1050,1970,1657,1345
-54,1920,1974,-928,-1011,1948,272,-627,672,1874,1627,1399
-120,2040,2160,-958,-1137,2098,116,-1059,282,1712,1549,1393
-168,2052,2220,-940,-1191,2134,-16,-1371,-52,1514,1423,1351
-204,1968,2172,-880,-1185,2068,-92,-1539,-298,1310,1285,1261
-234,1806,2040,-784,-1137,1924,-134,-1617,-508,1034,1087,1129
-258,1596,1854,-664,-1053,1726,-140,-1623,-682,716,829,937
-276,1362,1638,-544,-957,1498,-122,-1569,-784,422,565,727
-288,1128,1416,-418,-849,1270,-122,-1497,-850,188,337,523
-282,918,1200,-316,-741,1060,-152,-1431,-892,2,151,349
-270,726,996,-226,-633,862,-188,-1353,-910,-128,14,211
-252,546,798,-148,-525,670,-218,-1275,-922,-230,-93,103
-234,378,612,-70,-423,496,-236,-1197,-904,-302,-171,21
-210,246,456,-16,-333,352,-248,-1107,-868,-344,-225,-45
-192,138,330,24,-261,232,-242,-1011,-814,-362,-255,-81
-180,72,252,54,-213,160,-242,-909,-742,-368,-267,-105
-156,24,180,66,-165,100,-224,-813,-664,-356,-273,-117
-138,-18,120,78,-129,52,-206,-717,-586,-344,-273,-129
-120,-41,78,78,-99,16,-170,-633,-526,-332,-267,-141
-96,-76,18,84,-57,-32,-134,-537,-454,-308,-261,-147
-66,-112,-48,90,-9,-78,-92,-459,-394,-272,-237,-147
-48,-148,-100,96,27,-126,-56,-387,-340,-242,-225,-135
-30,-166,-136,96,51,-150,-32,-333,-292,-212,-207,-129
-18,-172,-154,96,67,-162,-21,-279,-244,-176,-171,-117
-12,-160,-148,84,67,-156,-16,-231,-202,-152,-153,-93
-12,-148,-136,78,62,-144,-4,-201,-166,-134,-135,-87
-6,-136,-130,72,62,-132,2,-171,-136,-116,-117,-75
-6,-136,-130,72,62,-132,8,-153,-118,-110,-111,-69
0,-130,-130,60,62,-132,14,-135,-94,-98,-105,-69
0,-124,-124,60,62,-126,26,-111,-76,-92,-105,-75
6,-130,-136,60,67,-132,32,-93,-64,-86,-93,-69
12,-130,-142,54,73,-138,32,-75,-46,-74,-87,-63
12,-118,-130,48,67,-126,32,-63,-34,-62,-81,-51
12,-112,-124,48,67,-120,38,-45,-16,-50,-69,-51
12,-106,-118,42,62,-114,44,-40,-5,-45,-63,-45
6,-106,-112,48,57,-108,44,-35,6,-40,-57,-51
12,-106,-118,42,62,-114,44,-29,12,-34,-51,-45
18,-100,-118,42,67,-108,38,-17,24,-34,-51,-45
18,-100,-118,42,67,-108,38,-17,30,-34,-51,-45
24,-100,-124,36,73,-114,38,-11,36,-34,-51,-45
30,-94,-124,30,73,-108,32,-11,42,-34,-51,-39
36,-94,-130,24,79,-114,26,1,54,-22,-45,-39
30,-94,-124,30,73,-108,32,7,66,-16,-39,-27
30,-88,-118,30,73,-102,38,13,72,-4,-39,-27
24,-82,-106,24,62,-96,38,19,78,2,-33,-21
24,-76,-100,24,62,-90,38,31,84,2,-33,-21
36,-76,-112,18,73,-96,38,43,96,8,-21,-15
36,-64,-100,12,67,-84,38,49,102,14,-15,-3
36,-58,-94,6,62,-78,38,55,102,2,-21,3
36,-52,-88,6,62,-72,38,67,108,2,-9,3
36,-52,-88,6,62,-72,38,85,114,8,-3,9
36,-46,-83,1,57,-66,44,97,132,20,-3,15
30,-41,-72,6,51,-56,44,97,138,26,3,15
30,-36,-66,6,51,-50,44,109,144,38,9,27
41,-36,-78,1,62,-56,44,115,144,50,14,27
41,-30,-72,-4,57,-50,50,127,150,62,19,37
41,-30,-72,-4,57,-50,44,139,156,68,25,32
41,-24,-66,-4,57,-44,44,151,162,80,37,37
41,-18,-60,-10,51,-38,44,157,162,80,37,32
46,-12,-60,-10,57,-32,44,175,162,80,37,32
46,-6,-54,-16,51,-26,50,187,174,86,49,32
52,0,-54,-22,57,-26,44,205,180,92,49,32
52,6,-48,-28,51,-20,50,205,186,104,61,32
46,6,-42,-22,45,-14,50,211,192,116,67,32
46,18,-30,-28,39,-2,56,217,204,128,79,37
46,24,-24,-28,39,4,62,223,210,140,97,37
52,36,-18,-40,39,10,62,229,216,158,109,49
58,42,-18,-46,39,16,62,241,228,170,109,49
58,54,-6,-52,33,28,68,247,234,182,121,55
58,60,0,-52,33,34,74,259,246,188,121,55
64,66,0,-64,33,34,68,271,258,200,127,61
70,72,0,-64,39,40,62,283,258,206,133,61
70,78,6,-70,33,46,68,289,264,218,139,67
70,84,12,-70,33,52,68,301,276,242,157,67
76,90,12,-82,33,52,68,307,288,254,163,73
70,90,18,-76,27,58,68,313,300,272,169,79
70,96,24,-76,27,64,68,331,318,290,181,91
76,108,30,-88,27,70,68,337,324,302,187,103
76,120,42,-94,21,82,74,349,348,314,193,109
82,138,54,-106,15,100,74,361,360,326,205,115
88,150,60,-118,15,106,74,373,372,332,211,127
94,156,60,-118,21,112,74,385,384,338,223,145
94,162,66,-124,15,118,74,397,396,344,235,157
94,168,72,-124,15,124,74,409,408,362,241,169
100,174,72,-136,15,124,74,421,420,374,259,175
100,180,78,-136,15,130,74,433,438,392,271,187
106,192,84,-142,15,142,74,451,456,416,283,199
118,204,84,-154,21,148,80,469,474,434,301,217
118,210,90,-160,15,154,80,487,498,446,307,223
118,222,102,-166,9,166,86,499,522,458,313,235
118,228,108,-166,9,172,86,505,540,470,331,247
124,234,108,-178,9,172,92,517,558,488,337,259
124,246,120,-184,3,184,92,535,570,500,355,271
136,258,120,-196,9,190,86,547,582,512,367,277
136,264,126,-196,9,196,86,559,594,530,379,289
142,276,132,-202,9,208,86,577,606,548,397,295
148,282,132,-214,9,208,86,589,630,566,409,307
154,288,132,-214,15,214,86,601,648,578,421,319
154,294,138,-220,9,220,86,619,666,590,433,331
154,294,138,-220,9,220,92,631,684,602,445,331
154,306,150,-226,3,232,92,643,702,620,457,343
154,318,162,-232,-3,244,92,655,714,638,475,355
154,324,168,-232,-3,250,86,667,726,650,487,361
154,336,180,-238,-9,262,86,679,738,668,505,367
160,348,186,-250,-9,268,86,691,750,692,517,379
166,366,198,-262,-15,286,86,697,762,704,529,391
172,372,198,-268,-9,286,92,703,774,722,547,397
172,372,198,-268,-9,286,92,715,792,734,559,415
178,384,204,-274,-9,298,92,733,810,746,571,421
178,390,210,-280,-15,304,98,745,822,764,583,433
178,396,216,-280,-15,310,98,757,834,776,595,439
178,402,222,-286,-21,316,92,763,840,782,607,445
172,408,234,-286,-27,322,86,769,852,794,613,451
172,414,240,-292,-33,328,86,769,858,800,619,457
166,420,252,-286,-39,340,86,775,864,812,631,469
160,420,258,-286,-45,340,86,775,870,812,637,469
160,420,258,-286,-45,340,92,781,876,818,643,481
154,420,264,-280,-51,346,92,781,876,824,649,481
154,420,264,-280,-51,346,92,775,876,818,649,481
154,426,270,-286,-57,352,98,775,870,818,649,481
154,426,270,-286,-57,352,98,775,864,818,649,481
148,426,276,-286,-63,352,92,763,852,812,643,469
148,414,264,-280,-57,340,86,745,828,800,637,469
142,408,264,-268,-57,340,86,733,804,782,625,457
136,396,258,-262,-57,328,86,715,774,764,607,451
124,378,252,-250,-63,316,86,685,738,734,589,433
118,366,246,-238,-63,310,86,661,714,704,565,421
106,354,246,-226,-69,304,86,631,678,674,535,397
106,336,228,-214,-57,286,86,607,648,644,511,373
94,312,216,-196,-57,268,86,577,612,602,475,343
94,294,198,-190,-51,250,86,547,576,560,451,319
88,276,186,-178,-45,232,80,523,540,524,421,301
88,258,168,-172,-39,214,74,499,504,488,397,283
82,234,150,-154,-33,196,68,475,468,452,367,259
70,210,138,-136,-33,178,62,439,420,410,337,235
64,186,120,-124,-27,154,62,409,372,374,307,211
58,162,102,-106,-21,136,56,379,330,338,277,187
52,144,90,-94,-15,118,56,349,294,302,247,169
46,120,72,-76,-9,100,56,325,252,260,217,139
41,102,60,-70,-9,82,50,301,222,224,181,115
41,78,36,-58,3,58,44,277,186,194,157,91
41,66,24,-52,9,46,38,253,156,158,133,73
36,48,12,-40,15,28,32,229,126,128,103,55
36,24,-12,-28,27,4,20,211,96,104,85,43
30,12,-18,-16,27,-2,8,187,66,80,67,27
24,-6,-30,-10,27,-20,8,163,36,56,49,9
24,-24,-48,1,39,-38,8,151,12,32,37,-9
18,-36,-54,12,39,-44,8,133,-10,14,14,-15
12,-41,-54,12,33,-50,2,109,-34,-16,3,-39
12,-52,-66,18,39,-61,2,97,-46,-34,-15,-45
12,-58,-72,18,39,-66,-4,91,-58,-45,-27,-51
18,-70,-88,24,51,-78,-10,91,-70,-56,-33,-57
12,-82,-94,30,51,-90,-10,79,-82,-68,-45,-57
12,-88,-100,36,57,-96,-21,73,-100,-80,-51,-63
12,-100,-112,42,62,-108,-21,61,-112,-92,-63,-69
6,-106,-112,48,57,-108,-26,55,-124,-92,-69,-81
6,-112,-118,54,62,-114,-32,49,-136,-98,-69,-87
0,-118,-118,54,57,-120,-32,43,-142,-110,-81,-93
0,-118,-118,54,57,-120,-32,31,-160,-122,-87,-99
-6,-124,-118,66,57,-120,-32,31,-160,-128,-93,-111
-6,-124,-118,66,57,-120,-32,25,-166,-134,-93,-111
-6,-130,-124,66,57,-126,-32,25,-166,-140,-99,-111
0,-136,-136,66,67,-138,-32,19,-172,-146,-105,-111
0,-142,-142,66,67,-144,-32,19,-172,-152,-105,-117
0,-142,-142,66,67,-144,-32,19,-178,-152,-105,-111
0,-142,-142,66,67,-144,-32,19,-178,-152,-105,-123
0,-142,-142,66,67,-144,-38,19,-184,-158,-111,-123
-6,-148,-142,78,67,-144,-38,19,-184,-158,-111,-123
-12,-148,-136,78,62,-144,-32,13,-184,-164,-111,-129
-12,-148,-136,78,62,-144,-32,13,-184,-170,-111,-135
-6,-154,-148,78,67,-150,-32,19,-178,-170,-105,-129
0,-148,-148,72,73,-150,-32,19,-178,-164,-111,-129
0,-148,-148,72,73,-150,-32,19,-172,-164,-111,-123
0,-154,-154,72,73,-156,-32,19,-166,-164,-105,-123
-6,-154,-148,78,67,-150,-38,13,-172,-158,-105,-123
-18,-148,-130,84,57,-138,-38,13,-178,-170,-111,-129
-24,-148,-124,84,51,-138,-38,13,-178,-170,-105,-129
-24,-154,-130,84,51,-144,-44,13,-184,-170,-111,-129
-24,-148,-124,84,51,-138,-38,13,-184,-176,-105,-135
-24,-154,-130,84,51,-144,-32,19,-184,-170,-111,-135
-18,-154,-136,84,57,-144,-32,25,-178,-170,-111,-141
-18,-154,-136,84,57,-144,-32,31,-172,-170,-105,-135
-12,-154,-142,78,62,-150,-32,31,-172,-170,-105,-135
-12,-154,-142,78,62,-150,-32,37,-166,-164,-105,-129
-6,-148,-142,78,67,-144,-32,43,-160,-164,-105,-129
-6,-148,-142,78,67,-144,-32,43,-166,-164,-105,-129
-6,-154,-148,78,67,-150,-32,43,-166,-170,-105,-129
-12,-148,-136,78,62,-144,-32,43,-166,-170,-105,-123
-18,-154,-136,84,57,-144,-32,43,-166,-176,-111,-129
-18,-154,-136,84,57,-144,-32,49,-160,-176,-105,-129
-18,-154,-136,84,57,-144,-32,49,-154,-176,-105,-129
-18,-154,-136,84,57,-144,-32,49,-154,-176,-111,-135
-18,-154,-136,84,57,-144,-32,49,-154,-176,-111,-135
-18,-154,-136,84,57,-144,-32,55,-154,-176,-117,-135
-18,-148,-130,84,57,-138,-32,55,-160,-176,-117,-129
-12,-148,-136,78,62,-144,-32,61,-160,-176,-117,-129
-12,-148,-136,78,62,-144,-32,67,-160,-182,-111,-117
-12,-148,-136,78,62,-144,-26,73,-154,-182,-111,-117
-18,-148,-130,84,57,-138,-26,73,-154,-182,-111,-123
-18,-148,-130,84,57,-138,-26,73,-154,-188,-111,-123
-18,-142,-124,78,51,-132,-26,73,-154,-182,-111,-129
-24,-142,-118,78,45,-132,-32,73,-154,-182,-111,-129
-24,-136,-112,78,45,-126,-32,79,-154,-176,-105,-135
-24,-136,-112,78,45,-126,-38,85,-154,-176,-105,-135
-24,-136,-112,78,45,-126,-38,85,-154,-170,-99,-129
-30,-136,-106,84,39,-120,-32,85,-154,-170,-105,-129
-24,-136,-112,78,45,-126,-38,85,-154,-170,-105,-123
-18,-130,-112,72,45,-120,-32,91,-154,-170,-99,-117
-18,-136,-118,78,51,-126,-32,91,-154,-170,-99,-123
-12,-130,-118,66,51,-126,-26,91,-154,-176,-105,-129
-12,-130,-118,66,51,-126,-26,97,-154,-176,-105,-135
-12,-124,-112,66,51,-120,-26,97,-148,-170,-105,-141
-12,-124,-112,66,51,-120,-32,103,-148,-164,-105,-141
-18,-118,-100,66,39,-108,-38,97,-154,-164,-105,-135
-24,-118,-94,66,33,-108,-38,97,-154,-164,-105,-129
-24,-118,-94,66,33,-108,-38,97,-154,-164,-99,-135
-24,-118,-94,66,33,-108,-38,91,-154,-164,-99,-123
-18,-118,-100,66,39,-108,-38,91,-154,-164,-99,-117
-12,-118,-106,60,45,-114,-32,91,-154,-164,-99,-123
-12,-118,-106,60,45,-114,-32,91,-154,-170,-99,-129
-12,-124,-112,66,51,-120,-32,91,-154,-164,-105,-129
-12,-118,-106,60,45,-114,-32,91,-154,-164,-105,-135
-12,-124,-112,66,51,-120,-32,91,-160,-164,-117,-141
-18,-124,-106,72,45,-114,-32,97,-154,-164,-111,-135
-18,-118,-100,66,39,-108,-32,97,-154,-164,-105,-135
-24,-118,-94,66,33,-108,-44,97,-148,-164,-105,-129
-18,-118,-100,66,39,-108,-44,97,-148,-164,-99,-129
-18,-118,-100,66,39,-108,-44,97,-148,-164,-99,-123
-18,-124,-106,72,45,-114,-38,97,-148,-170,-105,-129
-6,-124,-118,66,57,-120,-38,91,-160,-176,-105,-129
-6,-124,-118,66,57,-120,-38,91,-160,-182,-111,-129
-6,-124,-118,66,57,-120,-32,91,-166,-182,-111,-129
-12,-124,-112,66,51,-120,-32,85,-172,-182,-111,-129
-12,-124,-112,66,51,-120,-38,91,-166,-176,-105,-129
-18,-124,-106,72,45,-114,-38,91,-166,-176,-105,-123
-24,-124,-100,72,39,-114,-38,91,-172,-176,-111,-129
-18,-124,-106,72,45,-114,-44,91,-166,-170,-111,-123
-12,-124,-112,66,51,-120,-44,91,-166,-170,-111,-123
-12,-124,-112,66,51,-120,-56,85,-160,-176,-111,-129
-12,-130,-118,66,51,-126,-50,85,-166,-176,-111,-129
-6,-124,-118,66,57,-120,-50,79,-172,-182,-117,-135
0,-118,-118,54,57,-120,-50,73,-178,-182,-117,-135
0,-124,-124,60,62,-126,-50,61,-178,-182,-111,-135
-6,-124,-118,66,57,-120,-50,55,-184,-188,-117,-135
-6,-124,-118,66,57,-120,-50,55,-178,-188,-117,-135
-12,-124,-112,66,51,-120,-44,49,-178,-188,-111,-135
-12,-124,-112,66,51,-120,-44,49,-178,-188,-117,-135
-18,-130,-112,72,45,-120,-44,37,-178,-188,-117,-135
-18,-130,-112,72,45,-120,-50,37,-184,-194,-117,-141
-12,-130,-118,66,51,-126,-50,31,-184,-194,-123,-147
-12,-136,-124,72,57,-132,-56,19,-190,-200,-123,-141
-6,-142,-136,72,62,-138,-62,13,-190,-200,-123,-141
6,-142,-148,66,73,-144,-62,19,-184,-200,-123,-135
0,-136,-136,66,67,-138,-62,7,-184,-200,-123,-135
0,-142,-142,66,67,-144,-68,7,-184,-200,-123,-129
-6,-136,-130,72,62,-132,-62,7,-184,-200,-123,-129
-12,-136,-124,72,57,-132,-62,7,-184,-206,-123,-135
-12,-130,-118,66,51,-126,-56,1,-190,-206,-123,-129
-12,-130,-118,66,51,-126,-56,-5,-190,-206,-123,-135
-18,-136,-118,78,51,-126,-56,-5,-196,-212,-123,-141
-18,-136,-118,78,51,-126,-56,-11,-196,-212,-129,-141
-18,-142,-124,78,51,-132,-62,-11,-196,-218,-135,-141
-18,-148,-130,84,57,-138,-62,-11,-196,-224,-135,-141
-12,-154,-142,78,62,-150,-62,-11,-196,-224,-141,-141
-12,-154,-142,78,62,-150,-68,-11,-202,-224,-135,-135
-12,-154,-142,78,62,-150,-68,-11,-208,-230,-135,-135
-12,-154,-142,78,62,-150,-68,-11,-202,-224,-135,-129
-6,-148,-142,78,67,-144,-68,-11,-202,-224,-129,-129
-12,-148,-136,78,62,-144,-68,-11,-196,-224,-135,-129
-12,-142,-130,72,57,-138,-62,-11,-190,-224,-129,-129
-12,-142,-130,72,57,-138,-62,-17,-196,-230,-135,-129
-18,-148,-130,84,57,-138,-62,-23,-196,-236,-141,-129
-18,-154,-136,84,57,-144,-62,-23,-202,-236,-141,-135
-24,-160,-136,90,57,-150,-68,-23,-208,-236,-141,-129
-18,-154,-136,84,57,-144,-68,-23,-214,-236,-147,-135
-12,-154,-142,78,62,-150,-68,-17,-214,-230,-141,-135
-12,-148,-136,78,62,-144,-68,-11,-214,-230,-147,-135
-12,-148,-136,78,62,-144,-74,-11,-214,-224,-147,-135
-12,-154,-142,78,62,-150,-74,-17,-214,-230,-147,-141
-24,-154,-130,84,51,-144,-74,-23,-214,-236,-153,-153
-24,-160,-136,90,57,-150,-74,-23,-208,-230,-147,-153
-24,-160,-136,90,57,-150,-74,-29,-208,-230,-147,-147
-24,-160,-136,90,57,-150,-74,-29,-202,-230,-147,-147
-12,-160,-148,84,67,-156,-74,-23,-202,-230,-141,-147
-12,-154,-142,78,62,-150,-74,-23,-208,-230,-141,-147
-12,-154,-142,78,62,-150,-74,-11,-208,-230,-141,-147
-12,-154,-142,78,62,-150,-74,1,-208,-230,-141,-147
-12,-154,-142,78,62,-150,-74,1,-214,-236,-141,-141
-6,-154,-148,78,67,-150,-80,-5,-214,-236,-141,-141
-6,-154,-148,78,67,-150,-80,-5,-214,-242,-141,-141
-6,-154,-148,78,67,-150,-74,-11,-208,-236,-141,-141
-12,-160,-148,84,67,-156,-80,-17,-208,-236,-141,-135
-12,-160,-148,84,67,-156,-80,-17,-208,-230,-141,-135
-12,-166,-154,84,67,-162,-80,-23,-214,-230,-147,-135
-12,-166,-154,84,67,-162,-80,-17,-220,-236,-147,-135
-18,-166,-148,90,62,-156,-80,-11,-220,-236,-147,-147
-18,-166,-148,90,62,-156,-80,-11,-220,-236,-147,-141
-12,-166,-154,84,67,-162,-80,-5,-226,-242,-147,-147
-12,-160,-148,84,67,-156,-80,-5,-226,-236,-153,-147
-6,-160,-154,84,73,-156,-80,1,-226,-236,-153,-147
-6,-160,-154,84,73,-156,-80,-5,-226,-236,-153,-147
-6,-166,-160,84,73,-162,-80,-11,-226,-236,-159,-141
-6,-166,-160,84,73,-162,-86,-11,-232,-236,-153,-147
-6,-166,-160,84,73,-162,-86,-11,-226,-236,-159,-141
-6,-160,-154,84,73,-156,-86,-11,-226,-242,-159,-147
-12,-166,-154,84,67,-162,-86,-5,-226,-242,-153,-147
-12,-160,-148,84,67,-156,-92,-5,-226,-242,-153,-141
-6,-160,-154,84,73,-156,-92,7,-226,-242,-153,-141
-12,-160,-148,84,67,-156,-86,7,-226,-242,-153,-141
-6,-160,-154,84,73,-156,-86,13,-232,-248,-153,-147
-6,-160,-154,84,73,-156,-86,7,-232,-248,-153,-141
-6,-160,-154,84,73,-156,-86,7,-232,-242,-147,-141
-6,-160,-154,84,73,-156,-86,1,-238,-248,-153,-141
-6,-160,-154,84,73,-156,-86,1,-226,-248,-153,-141
-12,-160,-148,84,67,-156,-86,1,-226,-248,-153,-147
-12,-160,-148,84,67,-156,-86,1,-232,-254,-159,-147
-12,-160,-148,84,67,-156,-86,7,-226,-248,-153,-141
-12,-160,-148,84,67,-156,-86,13,-226,-248,-147,-135
-12,-166,-154,84,67,-162,-86,13,-226,-236,-147,-141
-12,-166,-154,84,67,-162,-86,13,-232,-236,-147,-141
-6,-160,-154,84,73,-156,-92,7,-232,-236,-147,-141
-6,-160,-154,84,73,-156,-92,1,-238,-236,-153,-141
-6,-160,-154,84,73,-156,-92,7,-232,-236,-153,-141
-6,-160,-154,84,73,-156,-92,7,-232,-230,-147,-141
-12,-166,-154,84,67,-162,-92,13,-226,-236,-147,-141
-18,-166,-148,90,62,-156,-92,13,-226,-242,-153,-147
-12,-172,-160,90,73,-168,-86,19,-232,-248,-153,-147
-12,-166,-154,84,67,-162,-86,19,-232,-242,-153,-147
-18,-166,-148,90,62,-156,-86,19,-232,-242,-153,-147
-12,-166,-154,84,67,-162,-80,19,-232,-248,-159,-147
-12,-160,-148,84,67,-156,-80,19,-232,-242,-153,-141
-12,-160,-148,84,67,-156,-86,13,-232,-242,-153,-135
-6,-160,-154,84,73,-156,-86,7,-232,-248,-159,-141
-6,-160,-154,84,73,-156,-86,13,-232,-254,-153,-135
-6,-160,-154,84,73,-156,-92,13,-232,-254,-153,-135
-12,-166,-154,84,67,-162,-92,19,-238,-254,-153,-141
-12,-172,-160,90,73,-168,-86,25,-238,-254,-153,-141
-12,-172,-160,90,73,-168,-86,31,-238,-248,-153,-141
-18,-172,-154,96,67,-162,-80,31,-238,-248,-159,-141
-18,-172,-154,96,67,-162,-74,37,-232,-254,-159,-141
-18,-178,-160,96,67,-168,-74,31,-232,-248,-159,-135
-18,-178,-160,96,67,-168,-74,31,-232,-248,-159,-135
-12,-172,-160,90,73,-168,-80,25,-226,-248,-159,-135
-6,-172,-166,90,79,-168,-80,25,-226,-248,-159,-135
-6,-172,-166,90,79,-168,-80,31,-226,-248,-159,-135
-6,-172,-166,90,79,-168,-80,31,-226,-248,-159,-141
-12,-172,-160,90,73,-168,-80,31,-238,-254,-159,-141
-12,-172,-160,90,73,-168,-80,31,-238,-254,-159,-135
-12,-172,-160,90,73,-168,-86,31,-238,-254,-159,-141
-18,-172,-154,96,67,-162,-86,37,-232,-254,-159,-141
-18,-178,-160,96,67,-168,-80,37,-232,-254,-159,-135
-18,-178,-160,96,67,-168,-80,37,-226,-248,-159,-135
-12,-172,-160,90,73,-168,-80,31,-226,-248,-153,-129
-6,-172,-166,90,79,-168,-86,31,-226,-248,-153,-129
0,-166,-166,78,79,-168,-80,37,-226,-248,-153,-135
0,-166,-166,78,79,-168,-86,31,-226,-248,-147,-135
0,-172,-172,84,85,-174,-86,31,-226,-248,-153,-141
-6,-172,-166,90,79,-168,-86,37,-238,-254,-153,-135
-12,-172,-160,90,73,-168,-80,37,-238,-254,-153,-135
-12,-172,-160,90,73,-168,-74,43,-232,-254,-159,-135
-18,-172,-154,96,67,-162,-68,49,-232,-254,-159,-135
-18,-172,-154,96,67,-162,-68,49,-226,-254,-159,-141
-18,-172,-154,96,67,-162,-74,49,-220,-248,-159,-135
-12,-166,-154,84,67,-162,-74,49,-220,-248,-153,-135
-6,-166,-160,84,73,-162,-74,55,-220,-248,-153,-129
-12,-166,-154,84,67,-162,-74,55,-220,-248,-153,-129
-6,-160,-154,84,73,-156,-74,55,-220,-242,-147,-117
0,-154,-154,72,73,-156,-74,55,-220,-236,-147,-117
0,-148,-148,72,73,-150,-68,67,-208,-230,-141,-117
0,-142,-142,66,67,-144,-68,79,-202,-230,-135,-111
6,-130,-136,60,67,-132,-62,73,-202,-224,-135,-105
12,-118,-130,48,67,-126,-62,79,-196,-218,-129,-99
12,-106,-118,42,62,-114,-62,85,-190,-212,-129,-93
18,-100,-118,42,67,-108,-62,85,-184,-212,-129,-93
12,-88,-100,36,57,-96,-62,79,-190,-212,-123,-87
6,-88,-94,42,51,-90,-62,79,-190,-212,-129,-93
6,-88,-94,42,51,-90,-62,85,-190,-212,-129,-87
6,-88,-94,42,51,-90,-62,85,-190,-206,-117,-87
12,-88,-100,36,57,-96,-56,91,-190,-212,-123,-87
12,-94,-106,36,57,-102,-56,103,-184,-212,-123,-93
12,-94,-106,36,57,-102,-62,91,-178,-206,-117,-93
12,-94,-106,36,57,-102,-62,91,-178,-206,-123,-87
12,-94,-106,36,57,-102,-68,85,-178,-206,-123,-87
12,-94,-106,36,57,-102,-80,79,-184,-212,-123,-87
12,-100,-112,42,62,-108,-86,79,-190,-206,-129,-87
12,-100,-112,42,62,-108,-92,85,-196,-206,-123,-87
18,-106,-124,42,67,-114,-98,91,-202,-212,-123,-87
24,-106,-130,36,73,-120,-98,97,-202,-206,-117,-81
30,-106,-136,36,79,-120,-104,97,-190,-200,-111,-81
36,-100,-136,30,85,-120,-98,109,-178,-200,-105,-81
36,-100,-136,30,85,-120,-98,109,-178,-200,-105,-81
41,-100,-142,30,91,-120,-92,109,-172,-194,-105,-75
41,-106,-148,30,91,-126,-92,115,-172,-194,-105,-75
46,-112,-160,36,103,-132,-92,121,-166,-188,-105,-69
52,-112,-166,30,109,-138,-92,127,-166,-188,-93,-69
52,-106,-160,24,103,-132,-92,127,-172,-188,-99,-75
52,-112,-166,30,109,-138,-92,127,-172,-194,-99,-75
41,-118,-160,36,97,-138,-86,127,-178,-200,-99,-75
36,-130,-166,42,97,-150,-86,127,-178,-200,-111,-81
30,-142,-172,54,97,-156,-80,127,-184,-212,-123,-87
24,-160,-184,66,103,-174,-86,109,-196,-224,-129,-99
18,-172,-190,78,103,-180,-86,97,-208,-230,-147,-99
12,-178,-190,78,97,-186,-86,91,-220,-242,-159,-111
6,-184,-190,90,97,-186,-92,97,-214,-248,-153,-117
12,-184,-196,84,103,-192,-86,91,-214,-248,-159,-117
6,-184,-190,90,97,-186,-86,85,-226,-254,-159,-129
0,-190,-190,90,91,-192,-86,79,-238,-260,-159,-129
0,-190,-190,90,91,-192,-92,79,-238,-266,-165,-129
-6,-196,-190,102,91,-192,-92,73,-238,-266,-165,-129
-12,-196,-184,102,85,-192,-92,73,-238,-272,-171,-135
-6,-196,-190,102,91,-192,-92,73,-238,-272,-171,-135
-6,-196,-190,102,91,-192,-92,73,-238,-272,-171,-135
-6,-196,-190,102,91,-192,-98,73,-238,-272,-171,-135
-6,-190,-184,96,85,-186,-98,79,-232,-266,-165,-135
-6,-178,-172,90,79,-174,-92,85,-220,-254,-153,-129
-6,-166,-160,84,73,-162,-86,97,-208,-242,-147,-123
-6,-154,-148,78,67,-150,-80,109,-196,-230,-135,-111
-12,-136,-124,72,57,-132,-68,127,-178,-212,-123,-111
-24,-130,-106,72,39,-120,-56,139,-160,-200,-117,-105
-30,-118,-88,72,27,-102,-44,157,-142,-188,-117,-105
-30,-106,-78,66,21,-90,-32,175,-124,-176,-99,-99
-30,-94,-66,60,15,-78,-21,187,-100,-152,-93,-99
-24,-82,-60,48,15,-72,-16,199,-88,-140,-87,-99
-30,-70,-42,48,3,-56,-4,223,-70,-122,-69,-87
-30,-52,-24,42,-3,-38,14,253,-46,-98,-57,-87
-36,-41,-6,36,-15,-26,26,277,-22,-80,-45,-81
-36,-30,6,30,-21,-14,50,325,6,-56,-27,-75
-30,-24,6,30,-15,-8,80,373,48,-34,-21,-69
-24,-36,-12,30,-3,-26,110,439,90,-22,-15,-69
-6,-52,-48,30,21,-50,158,541,144,2,3,-81
18,-76,-94,30,57,-84,218,667,228,38,14,-69
46,-88,-136,24,91,-108,302,841,354,98,55,-51
82,-94,-178,6,127,-132,410,1039,498,170,103,-33
106,-82,-190,-10,145,-132,548,1273,672,254,151,-15
130,-52,-184,-34,157,-114,692,1519,870,362,223,15
148,0,-148,-70,151,-72,836,1759,1080,506,313,55
160,90,-72,-124,115,10,956,1933,1272,662,415,115
166,216,48,-184,62,136,1040,2017,1422,830,541,205
166,378,210,-268,-21,298,1064,2005,1542,1022,703,331
172,582,408,-376,-117,496,1046,1921,1626,1232,883,487
172,810,636,-490,-231,724,992,1783,1674,1436,1087,667
166,1038,870,-598,-351,958,884,1555,1662,1622,1291,865
148,1260,1110,-700,-477,1186,740,1231,1572,1772,1465,1045
118,1488,1368,-796,-621,1432,584,841,1422,1880,1615,1213
52,1710,1656,-880,-801,1684,428,385,1170,1910,1699,1327
-24,1920,1944,-946,-981,1930,278,-99,822,1856,1705,1393
-108,2064,2172,-976,-1137,2116,128,-543,450,1724,1651,1405
-162,2100,2262,-964,-1209,2182,2,-867,114,1550,1549,1375
-204,2022,2226,-910,-1215,2122,-68,-1047,-130,1370,1417,1291
-240,1860,2100,-808,-1167,1978,-104,-1125,-340,1136,1225,1159
-270,1656,1926,-688,-1095,1792,-122,-1143,-520,830,979,985
-282,1416,1698,-562,-987,1558,-116,-1095,-640,536,709,775
-288,1176,1464,-442,-873,1318,-128,-1035,-712,290,475,577
-282,960,1242,-334,-759,1102,-176,-975,-760,92,283,403
-258,768,1026,-250,-639,898,-218,-915,-790,-56,139,259
-246,588,834,-166,-537,712,-254,-849,-802,-170,19,133
-222,432,654,-100,-435,544,-278,-771,-808,-260,-63,32
-198,288,486,-40,-339,388,-290,-687,-790,-308,-123,-33
-180,180,360,1,-267,268,-290,-591,-754,-344,-171,-87
-162,108,270,30,-213,190,-278,-477,-694,-350,-195,-111
-150,54,204,48,-177,130,-266,-375,-634,-350,-213,-123
-126,18,144,54,-135,82,-254,-273,-562,-338,-219,-135
-108,-18,90,60,-99,34,-236,-189,-496,-326,-213,-135
-90,-46,42,66,-69,-2,-200,-105,-430,-314,-207,-141
-72,-82,-12,72,-33,-50,-164,-40,-370,-290,-189,-135
-54,-118,-66,84,3,-90,-128,19,-322,-260,-165,-135
-30,-130,-100,78,33,-114,-98,85,-268,-224,-147,-129
-12,-142,-130,72,57,-138,-80,139,-226,-188,-123,-111
-6,-136,-130,72,62,-132,-62,181,-190,-164,-105,-105
0,-124,-124,60,62,-126,-56,223,-160,-146,-99,-99
0,-112,-112,54,57,-114,-50,259,-130,-128,-81,-87
6,-94,-100,42,51,-96,-44,283,-100,-122,-75,-81
6,-88,-94,42,51,-90,-44,307,-76,-116,-69,-75
12,-82,-94,30,51,-90,-38,313,-52,-110,-57,-75
12,-82,-94,30,51,-90,-32,307,-34,-98,-51,-69
12,-82,-94,30,51,-90,-26,301,-22,-92,-39,-75
18,-76,-94,30,57,-84,-21,289,-16,-80,-33,-69
24,-76,-100,24,62,-90,-16,289,-5,-68,-27,-57
24,-70,-94,18,57,-84,-16,283,0,-62,-21,-57
30,-70,-100,18,62,-84,-16,271,12,-56,-21,-51
36,-64,-100,12,67,-84,-16,247,18,-50,-27,-51
30,-64,-94,18,62,-78,-21,223,24,-50,-21,-45
24,-64,-88,18,57,-78,-21,199,36,-50,-21,-51
30,-64,-94,18,62,-78,-21,187,48,-45,-21,-51
30,-58,-88,12,57,-72,-16,175,60,-45,-15,-51
30,-46,-78,6,51,-61,-16,163,66,-45,-15,-57
36,-41,-78,1,57,-61,-16,163,72,-40,-9,-51
36,-36,-72,1,57,-56,-16,157,78,-40,-3,-45
41,-30,-72,-4,57,-50,-16,157,84,-28,-3,-39
41,-24,-66,-4,57,-44,-10,145,90,-28,3,-39
41,-24,-66,-4,57,-44,-10,133,90,-28,3,-33
41,-18,-60,-10,51,-38,-10,133,102,-28,3,-21
46,-18,-66,-10,57,-38,-16,115,114,-22,9,-15
46,-18,-66,-10,57,-38,-16,109,114,-28,3,-9
46,-18,-66,-10,57,-38,-16,109,126,-22,9,-3
46,-18,-66,-10,57,-38,-16,103,132,-10,14,-3
46,-12,-60,-10,57,-32,-16,103,138,2,14,9
46,-6,-54,-16,51,-26,-10,103,144,8,19,9
46,0,-48,-16,51,-20,-4,103,150,20,25,15
41,0,-42,-16,45,-20,-4,109,162,26,25,15
46,6,-42,-22,45,-14,2,103,168,32,31,15
46,12,-36,-22,45,-8,2,97,168,32,37,21
46,18,-30,-28,39,-2,2,97,168,38,37,27
52,24,-30,-34,45,-2,2,97,180,50,55,32
58,30,-30,-40,45,4,8,103,192,68,61,37
58,36,-24,-40,45,10,14,103,198,74,67,32
58,36,-24,-40,45,10,14,97,204,86,73,37
52,42,-12,-46,33,16,20,97,210,98,79,37
46,42,-6,-40,27,22,20,91,210,104,79,37
46,54,6,-46,21,34,20,91,210,104,85,37
58,60,0,-52,33,34,20,103,222,116,91,37
64,72,6,-64,33,40,26,103,228,128,97,43
70,72,0,-64,39,40,26,103,234,140,109,43
70,78,6,-70,33,46,26,103,246,152,109,55
70,78,6,-70,33,46,26,115,258,170,121,55
70,84,12,-70,33,52,32,109,270,182,133,61
70,90,18,-76,27,58,32,115,276,194,139,67
70,96,24,-76,27,64,38,127,294,212,151,73
70,102,30,-82,21,70,38,133,306,224,163,85
70,108,36,-82,21,76,44,133,318,236,163,85
76,120,42,-94,21,82,44,127,330,248,175,91
82,126,42,-100,21,88,50,139,342,266,181,109
82,138,54,-106,15,100,44,145,354,272,187,121
82,144,60,-106,15,106,44,145,360,284,199,133
88,144,54,-112,21,100,50,151,372,296,199,145
94,144,48,-112,27,100,50,157,384,302,211,151
94,150,54,-118,21,106,50,163,396,314,223,163
100,156,54,-124,27,106,50,175,414,332,235,169
100,162,60,-130,21,112,50,181,432,344,241,181
100,174,72,-136,15,124,50,187,444,356,253,187
106,180,72,-136,21,130,56,187,468,368,265,199
112,192,78,-148,21,136,56,193,480,380,277,217
118,204,84,-154,21,148,56,199,498,392,289,229
124,216,90,-166,21,154,56,211,522,416,301,241
130,222,90,-172,21,160,56,223,534,428,313,253
142,228,84,-178,33,160,56,235,546,440,325,259
142,234,90,-184,27,166,56,241,564,458,337,265
142,246,102,-190,21,178,56,253,582,476,355,277
148,258,108,-202,21,184,62,271,594,488,367,289
148,270,120,-208,15,196,62,283,612,506,379,295
148,276,126,-208,15,202,68,289,624,518,397,307
148,288,138,-214,9,214,62,295,636,530,409,313
148,294,144,-220,3,220,68,301,654,548,415,325
154,306,150,-226,3,232,68,313,666,560,433,337
160,318,156,-238,3,238,68,319,684,572,445,343
160,324,162,-238,3,244,74,331,702,590,457,349
166,336,168,-244,3,256,74,343,720,608,475,367
160,342,180,-250,-9,262,74,355,738,620,487,373
160,348,186,-250,-9,268,68,373,756,638,505,379
160,360,198,-256,-15,280,62,379,768,650,517,391
160,366,204,-262,-21,286,62,385,780,662,529,397
160,384,222,-268,-27,304,62,385,786,680,541,403
166,390,222,-274,-27,310,62,391,798,692,553,409
172,396,222,-280,-21,310,68,397,804,704,559,421
172,402,228,-286,-27,316,68,409,816,716,577,433
172,408,234,-286,-27,322,74,409,822,728,577,433
172,414,240,-292,-33,328,74,421,840,734,589,445
172,420,246,-292,-33,334,74,421,852,746,601,457
172,426,252,-298,-39,340,68,427,864,752,607,457
166,432,264,-292,-45,352,68,433,870,764,613,457
160,432,270,-292,-51,352,68,439,876,764,625,463
160,444,282,-298,-57,364,68,433,882,776,631,475
160,450,288,-304,-63,370,74,427,876,782,637,475
160,450,288,-304,-63,370,74,415,870,776,637,481
154,450,294,-298,-69,376,74,415,858,776,631,475
148,444,294,-292,-69,370,74,403,846,770,637,475
142,438,294,-286,-75,370,74,397,846,758,631,475
142,432,288,-280,-69,364,74,379,828,746,625,463
136,420,282,-274,-69,352,74,361,810,728,613,457
136,408,270,-268,-63,340,80,349,780,710,595,439
130,396,264,-256,-63,334,74,325,756,686,583,427
124,384,258,-250,-63,322,74,301,720,656,559,415
118,366,246,-238,-63,310,68,271,684,620,529,391
106,348,240,-220,-63,298,62,241,642,584,499,373
100,330,228,-214,-63,280,62,217,606,548,469,355
94,312,216,-196,-57,268,62,181,564,512,439,337
82,282,198,-178,-57,244,62,151,516,482,409,313
82,252,168,-160,-39,214,56,115,474,446,379,289
70,228,156,-142,-39,196,56,85,438,404,355,265
64,204,138,-130,-33,172,50,61,402,368,319,235
58,180,120,-112,-27,154,44,31,366,326,295,217
52,162,108,-106,-27,136,38,-11,324,290,259,187
52,144,90,-94,-15,118,32,-40,282,254,229,163
46,126,78,-82,-15,106,32,-69,246,212,205,139
41,102,60,-70,-9,82,26,-93,204,182,169,121
36,84,48,-58,-3,64,20,-111,180,146,145,103
30,60,30,-40,3,46,20,-135,150,116,121,79
30,42,12,-34,9,28,14,-159,126,92,97,73
36,18,-18,-28,27,-2,8,-183,96,62,73,49
36,0,-36,-16,39,-20,2,-195,72,32,55,32
30,-24,-54,1,45,-38,2,-219,42,8,31,21
24,-36,-60,6,45,-50,-4,-243,12,-16,19,3
18,-41,-60,12,39,-50,-10,-261,-10,-40,3,-3
12,-52,-66,18,39,-61,-10,-273,-28,-50,-9,-15
6,-58,-66,24,33,-61,-21,-285,-40,-62,-21,-21
6,-64,-72,30,39,-66,-21,-297,-52,-74,-33,-27
6,-76,-83,36,45,-78,-21,-309,-64,-86,-39,-39
6,-88,-94,42,51,-90,-26,-321,-76,-92,-51,-39
6,-100,-106,48,57,-102,-26,-333,-88,-110,-63,-51
12,-112,-124,48,67,-120,-32,-339,-100,-122,-75,-57
6,-124,-130,60,67,-126,-32,-351,-118,-134,-81,-63
6,-130,-136,60,67,-132,-38,-363,-130,-146,-87,-69
0,-136,-136,66,67,-138,-38,-375,-136,-158,-99,-75
0,-142,-142,66,67,-144,-38,-375,-136,-164,-99,-75
-6,-142,-136,72,62,-138,-38,-381,-142,-164,-105,-75
-12,-142,-130,72,57,-138,-38,-381,-148,-164,-117,-87
-12,-142,-130,72,57,-138,-38,-381,-154,-170,-117,-81
-12,-142,-130,72,57,-138,-38,-387,-154,-170,-123,-87
-12,-148,-136,78,62,-144,-38,-387,-160,-176,-129,-93
-12,-148,-136,78,62,-144,-38,-393,-160,-188,-129,-93
-12,-154,-142,78,62,-150,-38,-399,-166,-194,-129,-93
-12,-160,-148,84,67,-156,-38,-399,-172,-194,-129,-93
-12,-160,-148,84,67,-156,-38,-405,-172,-194,-129,-99
-12,-160,-148,84,67,-156,-38,-405,-178,-194,-135,-99
-6,-160,-154,84,73,-156,-32,-411,-178,-200,-135,-99
-12,-166,-154,84,67,-162,-32,-411,-178,-200,-141,-105
-12,-166,-154,84,67,-162,-38,-405,-172,-194,-141,-99
-12,-166,-154,84,67,-162,-38,-399,-172,-188,-135,-99
-18,-166,-148,90,62,-156,-38,-399,-178,-194,-141,-99
-18,-166,-148,90,62,-156,-38,-405,-178,-194,-141,-99
-18,-172,-154,96,67,-162,-38,-405,-178,-200,-141,-99
-18,-172,-154,96,67,-162,-38,-411,-172,-206,-147,-105
-18,-178,-160,96,67,-168,-38,-411,-172,-212,-147,-111
-12,-172,-160,90,73,-168,-38,-411,-172,-212,-147,-111
-12,-172,-160,90,73,-168,-38,-411,-172,-212,-141,-117
-18,-172,-154,96,67,-162,-38,-411,-166,-212,-147,-117
-18,-178,-160,96,67,-168,-32,-405,-166,-206,-147,-111
-18,-178,-160,96,67,-168,-32,-405,-166,-206,-141,-111
-30,-178,-148,102,57,-162,-32,-405,-172,-212,-147,-111
-30,-178,-148,102,57,-162,-32,-405,-172,-212,-147,-117
-30,-178,-148,102,57,-162,-32,-405,-172,-212,-147,-111
-30,-184,-154,108,62,-168,-32,-405,-172,-212,-147,-111
-30,-178,-148,102,57,-162,-32,-399,-166,-218,-147,-117
-24,-178,-154,96,62,-168,-32,-399,-166,-218,-147,-111
-24,-184,-160,102,67,-174,-26,-399,-160,-212,-147,-111
-24,-184,-160,102,67,-174,-26,-393,-160,-212,-147,-111
-24,-184,-160,102,67,-174,-26,-393,-160,-218,-147,-111
-30,-184,-154,108,62,-168,-26,-399,-166,-212,-153,-111
-36,-178,-142,102,51,-162,-26,-399,-160,-212,-153,-105
-42,-184,-142,114,51,-162,-32,-405,-160,-212,-153,-111
-36,-172,-136,102,51,-156,-38,-405,-160,-218,-159,-105
-36,-178,-142,102,51,-162,-38,-405,-160,-224,-153,-111
-30,-178,-148,102,57,-162,-38,-399,-154,-224,-153,-105
-30,-178,-148,102,57,-162,-32,-387,-154,-224,-147,-105
-24,-178,-154,96,62,-168,-32,-387,-154,-224,-147,-111
-30,-178,-148,102,57,-162,-32,-393,-160,-230,-153,-105
-30,-178,-148,102,57,-162,-32,-393,-160,-224,-153,-105
-30,-178,-148,102,57,-162,-32,-387,-154,-224,-153,-99
-36,-178,-142,102,51,-162,-32,-393,-160,-224,-153,-99
-42,-178,-136,108,45,-156,-32,-399,-166,-230,-153,-99
-48,-172,-124,108,39,-150,-32,-399,-172,-230,-147,-93
-42,-172,-130,108,45,-150,-32,-393,-166,-230,-147,-93
-36,-166,-130,96,45,-150,-32,-387,-166,-230,-147,-93
-30,-166,-136,96,51,-150,-32,-387,-160,-224,-147,-93
-24,-166,-142,90,57,-156,-38,-381,-160,-224,-147,-93
-30,-166,-136,96,51,-150,-32,-381,-160,-224,-153,-93
-30,-172,-142,102,57,-156,-32,-381,-160,-224,-153,-99
-30,-172,-142,102,57,-156,-38,-387,-160,-224,-147,-87
-30,-172,-142,102,57,-156,-32,-387,-166,-224,-147,-93
-36,-166,-130,96,45,-150,-32,-381,-160,-224,-147,-99
-36,-166,-130,96,45,-150,-32,-381,-160,-224,-147,-93
-36,-160,-124,96,45,-144,-32,-375,-166,-224,-147,-93
-30,-160,-130,96,51,-144,-32,-375,-166,-224,-147,-87
-30,-160,-130,96,51,-144,-32,-375,-166,-224,-147,-87
-36,-160,-124,96,45,-144,-26,-381,-172,-218,-147,-87
-36,-160,-124,96,45,-144,-26,-381,-172,-218,-147,-81
-36,-166,-130,96,45,-150,-26,-387,-172,-212,-147,-87
-30,-160,-130,96,51,-144,-32,-381,-172,-212,-147,-81
-30,-160,-130,96,51,-144,-26,-381,-172,-212,-141,-81
-30,-160,-130,96,51,-144,-32,-381,-166,-212,-147,-87
-36,-166,-130,96,45,-150,-32,-381,-166,-212,-147,-81
-30,-160,-130,96,51,-144,-32,-375,-166,-212,-141,-81
-30,-160,-130,96,51,-144,-32,-375,-166,-212,-141,-75
-30,-166,-136,96,51,-150,-32,-381,-172,-218,-147,-75
-24,-166,-142,90,57,-156,-32,-387,-178,-218,-141,-81
-24,-166,-142,90,57,-156,-32,-381,-172,-224,-147,-75
-24,-166,-142,90,57,-156,-32,-381,-178,-224,-147,-81
-24,-172,-148,96,62,-162,-38,-375,-178,-224,-147,-81
-24,-172,-148,96,62,-162,-38,-381,-178,-224,-153,-81
-30,-172,-142,102,57,-156,-38,-381,-172,-224,-153,-87
-30,-166,-136,96,51,-150,-38,-381,-178,-218,-153,-81
-36,-166,-130,96,45,-150,-44,-387,-184,-218,-153,-87
-36,-166,-130,96,45,-150,-44,-387,-190,-218,-153,-87
-36,-166,-130,96,45,-150,-44,-387,-190,-224,-153,-81
-30,-166,-136,96,51,-150,-44,-387,-196,-224,-153,-75
-30,-166,-136,96,51,-150,-44,-387,-196,-230,-147,-75
-24,-166,-142,90,57,-156,-44,-387,-190,-230,-153,-81
-24,-166,-142,90,57,-156,-44,-381,-190,-230,-147,-81
-24,-166,-142,90,57,-156,-44,-381,-190,-224,-153,-81
-30,-166,-136,96,51,-150,-38,-381,-184,-224,-153,-87
-24,-166,-142,90,57,-156,-38,-381,-190,-224,-153,-87
-24,-166,-142,90,57,-156,-38,-375,-190,-224,-153,-81
-24,-172,-148,96,62,-162,-44,-375,-190,-230,-153,-81
-24,-172,-148,96,62,-162,-44,-381,-196,-230,-147,-75
-24,-172,-148,96,62,-162,-44,-381,-196,-230,-147,-75
-24,-172,-148,96,62,-162,-44,-381,-196,-236,-153,-69
-24,-178,-154,96,62,-168,-44,-381,-196,-236,-153,-75
-24,-178,-154,96,62,-168,-44,-381,-202,-230,-153,-75
-24,-184,-160,102,67,-174,-44,-381,-202,-236,-159,-69
-30,-184,-154,108,62,-168,-38,-381,-208,-236,-159,-75
-30,-184,-154,108,62,-168,-44,-381,-208,-242,-159,-69
-24,-184,-160,102,67,-174,-50,-381,-208,-242,-159,-69
-24,-178,-154,96,62,-168,-50,-387,-214,-248,-165,-69
-24,-178,-154,96,62,-168,-50,-393,-214,-248,-165,-69
-24,-178,-154,96,62,-168,-50,-387,-214,-254,-159,-75
-30,-184,-154,108,62,-168,-50,-387,-214,-260,-165,-75
-30,-178,-148,102,57,-162,-56,-387,-226,-266,-171,-81
-24,-178,-154,96,62,-168,-56,-387,-226,-266,-171,-81
-24,-178,-154,96,62,-168,-56,-387,-238,-266,-177,-81
-24,-178,-154,96,62,-168,-50,-387,-232,-272,-189,-87
-24,-178,-154,96,62,-168,-50,-387,-226,-272,-183,-81
-24,-178,-154,96,62,-168,-44,-387,-226,-272,-183,-81
-24,-178,-154,96,62,-168,-44,-381,-220,-272,-183,-81
-24,-184,-160,102,67,-174,-44,-375,-220,-272,-177,-81
-30,-190,-160,108,62,-174,-50,-381,-220,-266,-177,-81
-30,-190,-160,108,62,-174,-50,-381,-220,-266,-171,-81
-30,-190,-160,108,62,-174,-56,-387,-226,-266,-177,-81
-30,-196,-166,114,67,-180,-56,-387,-226,-260,-177,-87
-24,-196,-172,108,73,-186,-56,-381,-226,-260,-177,-87
-30,-202,-172,114,67,-186,-56,-381,-226,-260,-177,-93
-24,-202,-178,108,73,-192,-56,-381,-226,-260,-177,-87
-24,-202,-178,108,73,-192,-56,-375,-232,-260,-177,-87
-24,-208,-184,114,79,-198,-56,-375,-232,-260,-177,-87
-30,-208,-178,120,73,-192,-56,-375,-232,-260,-177,-81
-30,-208,-178,120,73,-192,-56,-375,-232,-260,-177,-81
-30,-208,-178,120,73,-192,-56,-375,-232,-260,-183,-87
-30,-208,-178,120,73,-192,-56,-369,-232,-254,-189,-81
-36,-202,-166,114,62,-186,-56,-375,-238,-254,-183,-87
-42,-202,-160,120,57,-180,-50,-375,-238,-248,-183,-87
-36,-202,-166,114,62,-186,-50,-375,-238,-248,-183,-87
-36,-202,-166,114,62,-186,-50,-369,-238,-248,-177,-87
-36,-202,-166,114,62,-186,-56,-369,-244,-242,-177,-81
-36,-208,-172,120,67,-192,-56,-369,-244,-242,-177,-81
-36,-214,-178,120,67,-198,-56,-369,-244,-236,-177,-81
-30,-214,-184,120,73,-198,-56,-369,-244,-236,-177,-81
-36,-214,-178,120,67,-198,-56,-369,-244,-236,-177,-87
-36,-214,-178,120,67,-198,-56,-363,-250,-230,-177,-81
-36,-214,-178,120,67,-198,-56,-363,-250,-224,-183,-87
-36,-214,-178,120,67,-198,-56,-363,-244,-224,-183,-87
-42,-220,-178,132,67,-198,-50,-363,-244,-224,-183,-87
-42,-220,-178,132,67,-198,-50,-363,-250,-224,-189,-93
-36,-214,-178,120,67,-198,-50,-363,-244,-218,-183,-93
-36,-220,-184,126,73,-204,-50,-363,-250,-224,-189,-99
-42,-220,-178,132,67,-198,-50,-363,-256,-224,-195,-105
-42,-214,-172,126,62,-192,-56,-363,-262,-224,-195,-111
-36,-214,-178,120,67,-198,-56,-363,-256,-224,-195,-117
-36,-208,-172,120,67,-192,-50,-363,-256,-218,-195,-117
-36,-208,-172,120,67,-192,-62,-363,-256,-218,-195,-117
-42,-214,-172,126,62,-192,-56,-363,-256,-218,-201,-123
-48,-214,-166,126,57,-192,-56,-363,-256,-218,-195,-129
-42,-208,-166,126,62,-186,-56,-363,-256,-212,-195,-129
-42,-202,-160,120,57,-180,-56,-363,-256,-212,-195,-129
-30,-202,-172,114,67,-186,-62,-369,-262,-206,-195,-135
-24,-202,-178,108,73,-192,-62,-369,-262,-206,-189,-141
-24,-202,-178,108,73,-192,-68,-375,-262,-206,-195,-135
-24,-208,-184,114,79,-198,-62,-375,-262,-206,-189,-141
-24,-208,-184,114,79,-198,-62,-375,-262,-206,-189,-135
-18,-208,-190,114,85,-198,-56,-369,-256,-206,-189,-129
-24,-208,-184,114,79,-198,-50,-369,-256,-206,-183,-129
-24,-202,-178,108,73,-192,-50,-369,-256,-206,-189,-129
-24,-202,-178,108,73,-192,-50,-375,-256,-206,-189,-123
-24,-202,-178,108,73,-192,-56,-375,-256,-206,-183,-123
-30,-208,-178,120,73,-192,-62,-375,-256,-212,-189,-123
-30,-208,-178,120,73,-192,-68,-375,-262,-212,-189,-129
-24,-208,-184,114,79,-198,-74,-375,-262,-206,-189,-129
-24,-208,-184,114,79,-198,-74,-375,-262,-212,-195,-129
-24,-208,-184,114,79,-198,-68,-375,-262,-212,-195,-129
-24,-202,-178,108,73,-192,-62,-375,-256,-212,-195,-129
-30,-202,-172,114,67,-186,-62,-375,-262,-218,-195,-129
-30,-202,-172,114,67,-186,-56,-381,-262,-218,-195,-129
-24,-202,-178,108,73,-192,-56,-375,-262,-218,-201,-129
-24,-202,-178,108,73,-192,-56,-381,-262,-218,-207,-129
-24,-202,-178,108,73,-192,-62,-381,-262,-224,-201,-123
-24,-202,-178,108,73,-192,-62,-387,-256,-224,-201,-123
-24,-202,-178,108,73,-192,-62,-387,-256,-224,-201,-123
-24,-202,-178,108,73,-192,-62,-387,-256,-224,-201,-129
-18,-208,-190,114,85,-198,-62,-381,-256,-218,-195,-129
-12,-208,-196,108,91,-204,-62,-381,-256,-218,-195,-123
-18,-208,-190,114,85,-198,-56,-381,-262,-218,-201,-129
-24,-214,-190,114,79,-204,-56,-381,-262,-224,-201,-129
-24,-214,-190,114,79,-204,-56,-381,-262,-224,-207,-129
-24,-214,-190,114,79,-204,-56,-375,-262,-224,-201,-135
-30,-214,-184,120,73,-198,-56,-375,-256,-218,-201,-129
-30,-214,-184,120,73,-198,-56,-369,-256,-218,-201,-135
-30,-214,-184,120,73,-198,-56,-369,-256,-218,-195,-135
-30,-214,-184,120,73,-198,-56,-375,-256,-218,-195,-141
-30,-208,-178,120,73,-192,-56,-375,-256,-218,-201,-141
-24,-208,-184,114,79,-198,-56,-375,-262,-218,-195,-141
-24,-214,-190,114,79,-204,-56,-375,-262,-218,-195,-141
-24,-214,-190,114,79,-204,-56,-381,-262,-224,-201,-147
-30,-220,-190,126,79,-204,-56,-381,-262,-224,-201,-147
-30,-220,-190,126,79,-204,-62,-381,-262,-224,-201,-147
-36,-226,-190,126,73,-210,-62,-375,-262,-218,-207,-153
-36,-220,-184,126,73,-204,-62,-381,-262,-218,-201,-147
-36,-214,-178,120,67,-198,-56,-369,-256,-212,-201,-147
-30,-214,-184,120,73,-198,-56,-369,-256,-212,-201,-147
-30,-214,-184,120,73,-198,-56,-369,-256,-212,-195,-147
-24,-202,-178,108,73,-192,-56,-375,-256,-212,-195,-147
-24,-202,-178,108,73,-192,-56,-375,-256,-212,-201,-153
-30,-202,-172,114,67,-186,-56,-369,-256,-212,-201,-153
-18,-202,-184,108,79,-192,-50,-369,-256,-212,-201,-153
-18,-196,-178,108,79,-186,-50,-363,-250,-206,-201,-147
-24,-196,-172,108,73,-186,-44,-363,-244,-206,-201,-147
-24,-196,-172,108,73,-186,-44,-357,-244,-206,-201,-147
-24,-190,-166,102,67,-180,-38,-351,-244,-206,-201,-141
-24,-190,-166,102,67,-180,-38,-345,-238,-206,-201,-141
-24,-184,-160,102,67,-174,-44,-345,-232,-200,-189,-141
-30,-178,-148,102,57,-162,-44,-345,-232,-194,-189,-135
-24,-166,-142,90,57,-156,-38,-345,-226,-188,-183,-135
-24,-160,-136,90,57,-150,-38,-345,-220,-188,-177,-135
-18,-154,-136,84,57,-144,-38,-339,-220,-182,-177,-129
-18,-148,-130,84,57,-138,-38,-345,-220,-176,-183,-129
-18,-142,-124,78,51,-132,-32,-339,-208,-170,-171,-123
-18,-136,-118,78,51,-126,-26,-339,-208,-170,-171,-117
-18,-130,-112,72,45,-120,-26,-333,-202,-164,-171,-111
-24,-136,-112,78,45,-126,-21,-333,-202,-164,-165,-111
-24,-130,-106,72,39,-120,-21,-327,-196,-164,-159,-111
-30,-130,-100,78,33,-114,-21,-321,-196,-158,-159,-111
-30,-124,-94,78,33,-108,-16,-321,-196,-158,-153,-105
-24,-112,-88,66,33,-102,-21,-321,-196,-158,-153,-105
-18,-100,-83,60,33,-90,-32,-333,-202,-152,-153,-99
-12,-100,-88,54,39,-96,-44,-339,-196,-152,-147,-93
-12,-100,-88,54,39,-96,-50,-345,-190,-152,-141,-93
-6,-94,-88,48,39,-90,-56,-345,-190,-152,-141,-87
-6,-100,-94,54,45,-96,-62,-345,-190,-152,-141,-87
-6,-94,-88,48,39,-90,-62,-339,-190,-152,-141,-87
6,-88,-94,42,51,-90,-68,-333,-190,-146,-135,-75
6,-88,-94,42,51,-90,-68,-327,-184,-146,-129,-75
6,-88,-94,42,51,-90,-62,-321,-178,-146,-123,-75
6,-88,-94,42,51,-90,-62,-315,-178,-146,-123,-75
12,-94,-106,36,57,-102,-56,-315,-178,-146,-117,-75
18,-94,-112,36,62,-102,-56,-309,-178,-146,-117,-63
24,-94,-118,30,67,-108,-56,-297,-172,-140,-111,-63
30,-94,-124,30,73,-108,-50,-297,-172,-140,-105,-63
30,-106,-136,36,79,-120,-50,-297,-172,-140,-105,-57
24,-118,-142,42,79,-132,-50,-297,-172,-146,-111,-69
24,-130,-154,48,85,-144,-50,-303,-172,-152,-111,-81
24,-136,-160,54,91,-150,-50,-303,-178,-158,-111,-87
18,-148,-166,66,91,-156,-44,-321,-190,-164,-117,-99
6,-160,-166,78,85,-162,-44,-327,-196,-182,-135,-111
0,-172,-172,84,85,-174,-44,-333,-214,-194,-141,-117
-6,-184,-178,96,85,-180,-44,-339,-226,-200,-147,-123
-12,-190,-178,96,79,-186,-44,-345,-232,-206,-159,-123
-18,-196,-178,108,79,-186,-50,-351,-238,-206,-165,-129
-30,-208,-178,120,73,-192,-50,-357,-244,-218,-183,-147
-42,-220,-178,132,67,-198,-50,-363,-256,-230,-195,-159
-42,-226,-184,132,67,-204,-56,-369,-256,-236,-195,-159
-42,-232,-190,138,73,-210,-56,-375,-262,-248,-201,-165
-24,-238,-214,126,91,-228,-62,-369,-262,-254,-201,-165
-18,-244,-226,132,103,-234,-62,-363,-262,-254,-195,-165
-18,-244,-226,132,103,-234,-68,-369,-262,-254,-195,-165
-18,-244,-226,132,103,-234,-74,-381,-268,-254,-195,-153
-18,-238,-220,126,97,-228,-74,-381,-268,-248,-189,-153
-24,-232,-208,126,91,-222,-68,-375,-268,-248,-189,-147
-24,-226,-202,120,85,-216,-68,-369,-262,-242,-189,-147
-30,-220,-190,126,79,-204,-62,-363,-256,-236,-183,-153
-30,-214,-184,120,73,-198,-56,-351,-244,-224,-177,-153
-30,-202,-172,114,67,-186,-50,-333,-232,-212,-171,-147
-36,-184,-148,108,57,-168,-44,-315,-214,-200,-159,-147
-36,-172,-136,102,51,-156,-26,-291,-190,-182,-147,-141
-36,-160,-124,96,45,-144,-21,-267,-166,-164,-135,-129
-42,-154,-112,96,33,-132,-10,-261,-154,-146,-129,-123
-48,-142,-94,90,21,-120,2,-249,-142,-128,-111,-111
-48,-124,-78,84,15,-102,20,-225,-118,-110,-99,-105
-48,-106,-60,72,3,-84,26,-201,-94,-86,-87,-99
-54,-88,-36,72,-9,-61,44,-165,-64,-68,-75,-93
-54,-82,-30,66,-15,-56,68,-129,-28,-45,-57,-99
-48,-76,-30,60,-9,-56,86,-81,0,-22,-45,-99
-42,-76,-36,60,-3,-56,116,-23,42,-4,-39,-93
-30,-88,-60,60,15,-72,164,55,90,14,-21,-99
-12,-100,-88,54,39,-96,218,169,168,50,-3,-87
18,-112,-130,48,73,-120,290,319,276,104,31,-75
41,-112,-154,36,97,-132,398,511,414,176,79,-63
70,-106,-178,18,121,-138,524,745,582,254,121,-57
94,-76,-172,-4,133,-120,656,991,780,362,181,-27
124,-41,-166,-40,145,-102,788,1249,1002,500,271,9
148,24,-124,-82,139,-50,914,1477,1224,662,373,67
154,132,-24,-136,91,58,1022,1639,1422,842,505,163
166,282,114,-220,27,202,1076,1687,1578,1040,667,277
178,480,300,-322,-57,394,1082,1639,1704,1256,859,439
190,696,504,-436,-153,604,1058,1513,1764,1472,1069,625
184,924,738,-550,-273,832,986,1297,1752,1658,1267,805
160,1140,978,-646,-405,1060,884,991,1674,1808,1447,985
124,1362,1236,-742,-555,1300,752,637,1542,1934,1591,1147
64,1566,1500,-814,-717,1534,602,229,1338,1988,1681,1267
-12,1758,1770,-874,-891,1762,446,-243,1020,1952,1693,1339
-84,1908,1992,-910,-1035,1948,302,-705,648,1820,1639,1363
-150,1962,2112,-904,-1131,2038,194,-1083,276,1628,1525,1327
-198,1914,2112,-856,-1155,2014,116,-1347,-34,1400,1381,1255
-234,1782,2016,-772,-1125,1900,62,-1491,-286,1148,1201,1129
-270,1602,1872,-664,-1071,1738,38,-1557,-490,848,961,955
-282,1380,1662,-544,-969,1522,44,-1533,-616,572,709,751
-294,1170,1464,-436,-879,1318,44,-1473,-688,344,481,553
-300,978,1278,-340,-789,1126,32,-1407,-730,170,301,391
-294,792,1086,-244,-687,940,-10,-1335,-760,32,151,247
-282,618,900,-166,-591,760,-62,-1269,-772,-74,31,127
-258,468,726,-100,-489,598,-122,-1215,-790,-164,-51,37
-234,336,570,-46,-399,454,-164,-1161,-796,-236,-117,-33
-216,222,438,-4,-327,328,-206,-1101,-784,-296,-171,-93
-198,144,342,30,-267,244,-224,-1029,-754,-326,-207,-123
-180,78,258,48,-219,166,-230,-939,-700,-344,-225,-153
-168,30,198,66,-183,112,-230,-855,-646,-350,-249,-177
-156,-12,144,84,-147,64,-224,-765,-580,-344,-261,-189
-138,-52,84,96,-111,16,-212,-675,-520,-332,-255,-201
-120,-94,24,102,-75,-38,-182,-579,-442,-308,-249,-207
-96,-130,-36,108,-33,-84,-146,-501,-376,-284,-237,-201
-78,-166,-88,120,3,-126,-110,-429,-322,-254,-219,-195
-54,-178,-124,114,33,-150,-86,-381,-280,-218,-195,-183
-36,-190,-154,108,57,-174,-62,-339,-238,-194,-171,-171
-30,-184,-154,108,62,-168,-50,-303,-208,-170,-153,-159
-18,-172,-154,96,67,-162,-50,-273,-184,-146,-135,-147
-18,-160,-142,90,62,-150,-44,-237,-154,-128,-123,-135
-18,-154,-136,84,57,-144,-32,-201,-124,-116,-117,-135
-12,-154,-142,78,62,-150,-26,-165,-94,-110,-105,-129
-12,-154,-142,78,62,-150,-21,-141,-70,-98,-93,-129
-12,-148,-136,78,62,-144,-16,-117,-40,-86,-81,-123
-12,-142,-130,72,57,-138,-10,-99,-16,-68,-63,-117
-6,-136,-130,72,62,-132,-10,-81,-5,-56,-57,-111
-6,-124,-118,66,57,-120,-4,-75,6,-45,-51,-105
-6,-118,-112,60,51,-114,-4,-69,12,-45,-45,-99
-6,-106,-100,54,45,-102,-4,-63,18,-40,-51,-99
0,-106,-106,48,51,-108,-4,-51,24,-40,-51,-99
0,-106,-106,48,51,-108,-4,-51,36,-40,-45,-99
6,-106,-112,48,57,-108,-4,-40,36,-40,-45,-105
12,-106,-118,42,62,-114,-4,-35,48,-34,-45,-105
12,-106,-118,42,62,-114,-4,-23,60,-22,-39,-105
12,-106,-118,42,62,-114,-4,-11,72,-16,-33,-99
12,-100,-112,42,62,-108,2,-5,84,-4,-27,-93
18,-100,-118,42,67,-108,8,7,90,2,-21,-81
18,-94,-112,36,62,-102,8,13,96,8,-21,-81
18,-88,-106,36,62,-96,8,19,108,8,-21,-69
18,-82,-100,30,57,-90,8,19,108,14,-15,-57
18,-82,-100,30,57,-90,8,25,114,14,-15,-57
18,-76,-94,30,57,-84,8,31,120,20,-9,-45
24,-76,-100,24,62,-90,8,43,126,26,-9,-45
24,-82,-106,24,62,-96,14,49,132,32,-3,-39
18,-82,-100,30,57,-90,8,55,144,38,-3,-33
24,-82,-106,24,62,-96,8,55,144,44,3,-21
24,-70,-94,18,57,-84,14,61,150,56,9,-21
24,-64,-88,18,57,-78,20,67,156,62,14,-15
24,-64,-88,18,57,-78,20,79,162,68,14,-9
24,-58,-83,12,51,-72,26,85,168,80,25,-9
30,-58,-88,12,57,-72,26,85,174,86,31,-3
30,-52,-83,12,57,-66,26,97,180,92,37,3
36,-46,-83,1,57,-66,26,109,192,104,49,3
36,-46,-83,1,57,-66,26,109,192,110,55,3
36,-46,-83,1,57,-66,26,115,204,122,55,3
41,-41,-83,1,62,-61,26,115,210,128,61,3
41,-36,-78,1,62,-56,32,127,216,140,67,9
41,-30,-72,-4,57,-50,38,139,228,152,79,3
46,-30,-78,-4,62,-50,38,151,234,164,79,3
46,-24,-72,-4,62,-44,44,157,240,176,85,3
46,-18,-66,-10,57,-38,44,163,246,188,91,-3
46,-12,-60,-10,57,-32,44,175,264,194,97,3
46,-6,-54,-16,51,-26,44,187,270,206,109,9
41,-6,-48,-16,45,-26,38,187,276,218,115,9
41,-6,-48,-16,45,-26,38,199,288,230,121,21
58,6,-54,-28,57,-20,44,211,300,248,139,32
64,12,-54,-34,62,-20,50,217,306,260,145,32
64,18,-48,-40,57,-14,50,229,318,272,151,37
70,24,-48,-40,62,-8,56,241,330,278,163,49
70,30,-42,-46,57,-2,56,247,348,290,175,55
76,42,-36,-58,57,4,56,259,360,302,181,73
76,48,-30,-58,57,10,56,277,378,314,193,85
82,54,-30,-64,57,16,56,289,390,326,199,97
82,60,-24,-64,57,22,56,301,408,344,211,109
88,66,-24,-76,57,22,56,307,426,356,217,121
88,72,-18,-76,57,28,56,325,438,374,229,127
88,78,-12,-82,51,34,56,337,456,386,235,139
88,84,-6,-82,51,40,62,349,468,398,241,145
94,96,0,-88,51,52,68,361,486,416,259,157
106,114,6,-106,51,64,68,373,498,428,265,175
112,120,6,-112,57,64,68,391,516,434,277,187
112,126,12,-118,51,70,62,403,534,446,289,193
118,138,18,-124,51,82,62,421,546,464,301,211
118,144,24,-124,51,88,62,433,570,482,313,217
118,150,30,-130,45,94,62,445,588,500,331,229
118,156,36,-130,45,100,62,463,606,518,343,241
124,162,36,-142,45,100,62,481,618,536,355,247
124,174,48,-148,39,112,68,493,636,548,373,253
124,180,54,-148,39,118,74,511,654,560,379,259
130,186,54,-154,39,124,68,517,666,572,391,271
124,198,72,-160,27,136,68,529,678,590,409,277
130,210,78,-166,27,148,68,541,696,602,427,289
136,222,84,-178,27,154,68,553,708,620,445,301
142,234,90,-184,27,166,68,559,726,632,463,313
142,246,102,-190,21,178,68,571,744,656,481,325
148,252,102,-196,27,178,62,583,762,674,493,337
148,258,108,-202,21,184,62,595,774,686,505,343
148,270,120,-208,15,196,62,607,786,698,517,349
148,270,120,-208,15,196,62,613,798,710,529,355
148,282,132,-214,9,208,62,625,804,722,535,367
148,294,144,-220,3,220,62,637,822,734,547,379
148,300,150,-220,3,226,62,643,828,740,553,385
148,312,162,-226,-3,238,62,649,840,746,559,391
148,324,174,-232,-9,250,62,649,846,758,571,409
148,348,198,-244,-21,274,50,655,846,764,577,409
148,396,246,-268,-45,322,38,649,840,764,577,409
160,474,312,-316,-75,394,14,631,828,758,571,403
160,540,378,-346,-105,460,-10,619,822,752,559,391
160,552,390,-352,-111,472,-10,613,822,758,565,391
160,534,372,-346,-105,454,2,619,828,764,577,403
154,528,372,-334,-105,454,-4,619,828,770,577,403
154,546,390,-346,-117,472,-10,607,816,758,571,391
154,564,408,-352,-123,490,-10,601,804,746,559,385
148,564,414,-352,-129,490,-10,589,792,740,553,379
148,534,384,-340,-117,460,2,589,786,746,559,379
142,504,360,-316,-105,436,14,577,774,740,553,385
136,480,342,-304,-99,412,20,565,762,728,547,373
130,474,342,-298,-105,412,20,547,732,710,535,361
124,468,342,-292,-105,406,14,517,702,686,517,349
124,450,324,-286,-99,388,8,493,672,662,499,337
112,426,312,-268,-99,370,14,469,642,638,475,331
106,402,294,-250,-93,352,8,445,606,602,451,313
94,390,294,-238,-99,346,2,415,570,566,421,283
88,378,288,-232,-99,334,2,385,528,524,391,259
82,348,264,-208,-87,310,2,355,486,488,361,229
76,318,240,-196,-81,280,2,331,450,446,331,211
70,282,210,-172,-69,250,2,307,414,410,301,187
64,258,192,-160,-63,226,2,271,372,368,271,163
64,240,174,-148,-51,208,2,241,336,332,235,139
58,228,168,-136,-51,202,-4,211,294,290,205,121
46,198,150,-118,-51,178,-4,181,252,254,181,97
41,174,132,-106,-45,154,-4,151,210,218,151,73
36,156,120,-94,-39,136,-10,115,174,188,121,55
30,138,108,-82,-39,124,-16,85,138,152,97,32
24,120,96,-70,-33,106,-21,61,102,128,73,15
24,102,78,-64,-27,88,-21,37,78,98,43,-3
18,78,60,-46,-21,70,-26,19,54,68,25,-27
12,54,42,-34,-15,46,-26,1,24,38,3,-39
6,42,36,-22,-15,40,-32,-17,0,14,-21,-51
6,24,18,-10,-3,22,-32,-35,-22,-4,-39,-69
0,12,12,-4,-3,10,-38,-40,-40,-28,-51,-87
0,-6,-6,1,3,-8,-44,-57,-64,-40,-69,-93
-6,-18,-12,12,3,-14,-50,-75,-82,-45,-81,-105
-6,-30,-24,18,9,-26,-56,-87,-100,-62,-99,-117
0,-36,-36,18,21,-38,-56,-99,-118,-74,-111,-129
0,-41,-42,18,21,-44,-62,-111,-130,-86,-117,-135
-6,-52,-48,30,21,-50,-56,-117,-142,-104,-123,-141
-12,-64,-54,36,21,-61,-62,-135,-154,-122,-135,-153
-12,-70,-60,36,21,-66,-62,-141,-166,-134,-141,-165
-12,-76,-66,42,27,-72,-68,-153,-172,-146,-153,-165
-18,-82,-66,48,21,-72,-68,-159,-184,-152,-159,-171
-18,-82,-66,48,21,-72,-68,-165,-190,-152,-165,-171
-18,-88,-72,54,27,-78,-68,-177,-196,-158,-165,-171
-18,-94,-78,54,27,-84,-74,-177,-202,-152,-165,-171
-18,-94,-78,54,27,-84,-74,-177,-202,-158,-171,-171
-18,-100,-83,60,33,-90,-74,-177,-208,-158,-171,-171
-24,-106,-83,60,27,-96,-74,-183,-214,-170,-177,-183
-24,-112,-88,66,33,-102,-68,-189,-220,-176,-183,-201
-24,-118,-94,66,33,-108,-68,-189,-220,-188,-189,-201
-24,-118,-94,66,33,-108,-68,-195,-220,-188,-183,-207
-24,-118,-94,66,33,-108,-68,-195,-220,-194,-189,-207
-24,-112,-88,66,33,-102,-68,-207,-226,-194,-195,-207
-24,-112,-88,66,33,-102,-80,-213,-226,-188,-189,-207
-30,-112,-83,72,27,-96,-80,-213,-226,-188,-189,-201
-30,-112,-83,72,27,-96,-74,-213,-226,-182,-195,-201
-30,-112,-83,72,27,-96,-74,-213,-226,-182,-189,-201
-30,-118,-88,72,27,-102,-74,-219,-226,-182,-189,-207
-30,-124,-94,78,33,-108,-74,-219,-226,-188,-201,-213
-24,-124,-100,72,39,-114,-74,-219,-220,-188,-195,-213
-24,-124,-100,72,39,-114,-74,-219,-220,-182,-195,-213
-24,-130,-106,72,39,-120,-74,-237,-226,-188,-201,-213
-24,-130,-106,72,39,-120,-74,-237,-226,-194,-195,-219
-24,-130,-106,72,39,-120,-68,-237,-226,-194,-195,-207
-24,-130,-106,72,39,-120,-68,-237,-226,-194,-195,-213
-30,-130,-100,78,33,-114,-68,-237,-232,-200,-195,-219
-36,-130,-94,78,27,-114,-68,-243,-232,-200,-195,-213
-36,-130,-94,78,27,-114,-62,-243,-232,-206,-195,-219
-36,-124,-88,78,27,-108,-62,-237,-232,-206,-201,-225
-30,-118,-88,72,27,-102,-62,-237,-232,-212,-201,-219
-36,-118,-83,72,21,-102,-68,-243,-226,-206,-201,-219
-36,-118,-83,72,21,-102,-68,-243,-226,-206,-201,-219
-36,-118,-83,72,21,-102,-74,-243,-226,-212,-201,-213
-36,-118,-83,72,21,-102,-74,-243,-226,-212,-201,-207
-30,-118,-88,72,27,-102,-68,-243,-226,-212,-195,-207
-24,-124,-100,72,39,-114,-62,-231,-220,-206,-195,-201
-24,-130,-106,72,39,-120,-62,-231,-220,-206,-195,-201
-30,-136,-106,84,39,-120,-62,-237,-226,-212,-195,-201
-36,-136,-100,84,33,-120,-56,-237,-232,-218,-201,-201
-42,-136,-94,90,27,-114,-56,-243,-232,-224,-201,-201
-36,-130,-94,78,27,-114,-56,-243,-226,-224,-201,-195
-42,-136,-94,90,27,-114,-56,-237,-220,-218,-201,-189
-42,-136,-94,90,27,-114,-56,-237,-214,-218,-201,-189
-42,-136,-94,90,27,-114,-56,-237,-214,-218,-207,-189
-42,-130,-88,84,21,-108,-50,-231,-208,-218,-201,-189
-36,-124,-88,78,27,-108,-50,-225,-208,-218,-201,-183
-36,-124,-88,78,27,-108,-50,-225,-208,-218,-201,-183
-36,-118,-83,72,21,-102,-44,-225,-208,-218,-195,-189
-30,-118,-88,72,27,-102,-38,-225,-208,-218,-201,-189
-30,-118,-88,72,27,-102,-38,-219,-208,-218,-201,-195
-30,-118,-88,72,27,-102,-38,-219,-208,-218,-195,-195
-36,-118,-83,72,21,-102,-44,-219,-202,-218,-201,-195
-36,-118,-83,72,21,-102,-50,-213,-196,-218,-201,-195
-36,-118,-83,72,21,-102,-50,-207,-196,-212,-195,-195
-36,-118,-83,72,21,-102,-50,-207,-190,-212,-201,-189
-36,-118,-83,72,21,-102,-50,-201,-190,-212,-201,-183
-30,-118,-88,72,27,-102,-50,-189,-184,-206,-195,-183
-30,-112,-83,72,27,-96,-50,-189,-184,-206,-189,-183
-36,-118,-83,72,21,-102,-50,-189,-184,-206,-189,-183
-42,-118,-78,78,15,-96,-50,-189,-184,-206,-189,-183
-42,-118,-78,78,15,-96,-50,-189,-184,-200,-183,-183
-48,-118,-72,78,9,-96,-50,-183,-184,-200,-183,-183
-42,-124,-83,84,21,-102,-50,-189,-184,-200,-189,-183
-48,-118,-72,78,9,-96,-50,-183,-184,-200,-183,-183
-48,-118,-72,78,9,-96,-50,-183,-178,-194,-183,-183
-42,-118,-78,78,15,-96,-50,-177,-178,-188,-183,-183
-36,-112,-78,72,21,-96,-50,-177,-178,-176,-183,-177
-42,-112,-72,78,15,-90,-50,-177,-184,-176,-183,-177
-36,-118,-83,72,21,-102,-50,-177,-184,-176,-189,-189
-30,-112,-83,72,27,-96,-50,-171,-178,-170,-177,-189
-30,-112,-83,72,27,-96,-56,-177,-184,-170,-177,-183
-30,-112,-83,72,27,-96,-56,-177,-178,-170,-177,-183
-30,-118,-88,72,27,-102,-56,-171,-178,-176,-183,-189
-36,-112,-78,72,21,-96,-56,-171,-184,-170,-177,-189
-36,-118,-83,72,21,-102,-56,-171,-184,-170,-183,-189
-30,-118,-88,72,27,-102,-56,-171,-184,-170,-183,-195
-24,-118,-94,66,33,-108,-56,-171,-190,-164,-177,-189
-24,-118,-94,66,33,-108,-56,-177,-190,-164,-183,-189
-24,-124,-100,72,39,-114,-62,-183,-190,-170,-189,-195
-30,-124,-94,78,33,-108,-62,-183,-196,-176,-183,-195
-36,-124,-88,78,27,-108,-62,-183,-202,-176,-183,-189
-36,-124,-88,78,27,-108,-62,-183,-202,-170,-183,-189
-36,-118,-83,72,21,-102,-62,-183,-202,-176,-177,-189
-36,-118,-83,72,21,-102,-62,-183,-202,-176,-177,-183
-30,-124,-94,78,33,-108,-62,-183,-208,-176,-183,-183
-24,-124,-100,72,39,-114,-62,-183,-208,-176,-183,-183
-18,-124,-106,72,45,-114,-62,-183,-202,-176,-177,-177
-18,-124,-106,72,45,-114,-62,-189,-208,-176,-177,-183
-18,-130,-112,72,45,-120,-68,-189,-208,-188,-183,-189
-12,-130,-118,66,51,-126,-74,-201,-214,-194,-183,-183
-18,-124,-106,72,45,-114,-74,-201,-220,-194,-189,-183
-12,-124,-112,66,51,-120,-74,-201,-214,-194,-189,-189
-12,-124,-112,66,51,-120,-68,-195,-214,-194,-189,-189
-12,-124,-112,66,51,-120,-68,-195,-214,-194,-189,-183
-12,-124,-112,66,51,-120,-68,-195,-214,-200,-189,-189
-18,-124,-106,72,45,-114,-74,-201,-220,-200,-195,-195
-18,-124,-106,72,45,-114,-74,-201,-220,-194,-195,-183
-18,-124,-106,72,45,-114,-74,-201,-220,-194,-195,-183
-18,-124,-106,72,45,-114,-74,-195,-226,-200,-201,-189
-24,-130,-106,72,39,-120,-74,-195,-232,-200,-195,-177
-24,-130,-106,72,39,-120,-74,-201,-232,-206,-195,-177
-24,-136,-112,78,45,-126,-68,-195,-232,-212,-195,-183
-24,-136,-112,78,45,-126,-68,-195,-226,-212,-189,-183
-24,-130,-106,72,39,-120,-68,-195,-226,-218,-189,-183
-24,-130,-106,72,39,-120,-74,-195,-226,-212,-195,-183
-18,-130,-112,72,45,-120,-74,-195,-226,-212,-201,-189
-18,-136,-118,78,51,-126,-74,-195,-226,-212,-195,-177
-18,-142,-124,78,51,-132,-80,-201,-232,-212,-201,-183
-24,-148,-124,84,51,-138,-80,-201,-238,-212,-207,-183
-24,-154,-130,84,51,-144,-80,-201,-238,-218,-207,-183
-24,-148,-124,84,51,-138,-74,-195,-244,-224,-207,-177
-30,-148,-118,90,45,-132,-74,-195,-244,-224,-207,-183
-36,-154,-118,90,39,-138,-74,-195,-238,-230,-207,-183
-36,-154,-118,90,39,-138,-74,-195,-238,-230,-201,-177
-36,-154,-118,90,39,-138,-74,-201,-238,-230,-207,-177
-30,-160,-130,96,51,-144,-74,-207,-244,-224,-207,-177
-24,-160,-136,90,57,-150,-74,-207,-238,-218,-201,-171
-24,-160,-136,90,57,-150,-74,-207,-238,-218,-207,-165
-30,-160,-130,96,51,-144,-74,-207,-238,-218,-207,-171
-30,-160,-130,96,51,-144,-74,-207,-238,-218,-207,-171
-24,-160,-136,90,57,-150,-86,-207,-244,-230,-207,-171
-30,-166,-136,96,51,-150,-86,-201,-244,-236,-207,-171
-30,-166,-136,96,51,-150,-86,-207,-250,-242,-213,-177
-30,-160,-130,96,51,-144,-86,-207,-250,-236,-207,-177
-30,-160,-130,96,51,-144,-86,-207,-250,-236,-207,-177
-30,-166,-136,96,51,-150,-86,-207,-250,-236,-213,-177
-30,-166,-136,96,51,-150,-86,-213,-244,-230,-213,-183
-24,-166,-142,90,57,-156,-92,-207,-244,-224,-207,-183
-30,-166,-136,96,51,-150,-92,-207,-244,-230,-213,-189
-30,-172,-142,102,57,-156,-86,-207,-250,-230,-219,-189
-36,-172,-136,102,51,-156,-86,-213,-256,-230,-213,-189
-36,-172,-136,102,51,-156,-80,-207,-256,-236,-213,-183
-36,-178,-142,102,51,-162,-80,-201,-262,-236,-213,-189
-30,-178,-148,102,57,-162,-80,-207,-262,-236,-207,-189
-30,-178,-148,102,57,-162,-86,-207,-262,-236,-213,-189
-30,-178,-148,102,57,-162,-86,-207,-262,-236,-213,-183
-24,-178,-154,96,62,-168,-92,-207,-262,-236,-213,-177
-24,-172,-148,96,62,-162,-92,-213,-262,-236,-207,-183
-24,-178,-154,96,62,-168,-92,-207,-262,-236,-207,-177
-24,-178,-154,96,62,-168,-92,-207,-262,-242,-207,-177
-30,-178,-148,102,57,-162,-92,-213,-268,-242,-213,-183
-30,-178,-148,102,57,-162,-92,-219,-268,-242,-207,-177
-30,-172,-142,102,57,-156,-86,-219,-268,-242,-207,-177
-30,-172,-142,102,57,-156,-86,-213,-268,-242,-207,-177
-30,-172,-142,102,57,-156,-86,-219,-268,-242,-201,-177
-30,-178,-148,102,57,-162,-86,-213,-268,-242,-201,-171
-24,-178,-154,96,62,-168,-92,-207,-268,-242,-201,-165
-24,-178,-154,96,62,-168,-92,-201,-262,-242,-201,-165
-24,-178,-154,96,62,-168,-86,-201,-268,-248,-195,-171
-24,-184,-160,102,67,-174,-86,-201,-262,-242,-195,-165
-24,-184,-160,102,67,-174,-92,-207,-262,-242,-195,-165
-24,-184,-160,102,67,-174,-92,-213,-262,-242,-189,-171
-24,-178,-154,96,62,-168,-92,-219,-262,-242,-189,-171
-24,-172,-148,96,62,-162,-92,-213,-250,-236,-195,-165
-18,-172,-154,96,67,-162,-92,-207,-244,-236,-195,-159
-18,-166,-148,90,62,-156,-92,-207,-244,-236,-195,-159
-12,-166,-154,84,67,-162,-92,-207,-244,-230,-195,-153
-12,-166,-154,84,67,-162,-86,-201,-250,-230,-189,-153
-18,-160,-142,90,62,-150,-80,-195,-250,-230,-183,-159
-18,-154,-136,84,57,-144,-74,-189,-244,-230,-183,-153
-24,-148,-124,84,51,-138,-68,-189,-244,-224,-177,-153
-24,-142,-118,78,45,-132,-68,-183,-238,-224,-177,-153
-24,-136,-112,78,45,-126,-62,-183,-226,-212,-165,-153
-18,-130,-112,72,45,-120,-62,-183,-226,-206,-165,-141
-18,-124,-106,72,45,-114,-62,-183,-226,-206,-171,-141
-18,-124,-106,72,45,-114,-56,-183,-226,-212,-165,-135
-18,-112,-94,66,39,-102,-62,-183,-226,-206,-165,-129
-12,-106,-94,54,39,-102,-56,-171,-220,-200,-159,-123
-12,-100,-88,54,39,-96,-56,-165,-220,-194,-159,-129
-18,-94,-78,54,27,-84,-56,-165,-220,-188,-147,-123
-18,-88,-72,54,27,-78,-50,-165,-214,-188,-147,-123
-18,-82,-66,48,21,-72,-50,-165,-220,-188,-147,-123
-18,-82,-66,48,21,-72,-56,-165,-214,-188,-147,-123
-12,-76,-66,42,27,-72,-62,-171,-214,-188,-147,-117
-6,-76,-72,42,33,-72,-74,-177,-214,-188,-147,-111
6,-70,-78,30,39,-72,-80,-177,-214,-182,-141,-111
12,-70,-83,24,45,-78,-92,-177,-214,-182,-135,-105
12,-70,-83,24,45,-78,-98,-183,-214,-188,-135,-105
12,-70,-83,24,45,-78,-98,-177,-214,-188,-141,-105
12,-64,-78,24,45,-72,-104,-177,-220,-188,-141,-111
18,-58,-78,18,45,-66,-104,-189,-226,-188,-135,-111
18,-58,-78,18,45,-66,-104,-183,-220,-176,-135,-105
18,-58,-78,18,45,-66,-98,-171,-214,-176,-135,-99
24,-64,-88,18,57,-78,-98,-165,-208,-170,-129,-99
30,-70,-100,18,62,-84,-98,-159,-202,-170,-129,-105
30,-76,-106,24,67,-90,-92,-147,-196,-170,-129,-99
36,-82,-118,18,73,-102,-92,-141,-190,-170,-123,-93
36,-82,-118,18,73,-102,-92,-147,-190,-170,-117,-87
36,-82,-118,18,73,-102,-86,-147,-190,-170,-117,-87
36,-94,-130,24,79,-114,-86,-141,-190,-170,-117,-81
30,-106,-136,36,79,-120,-86,-153,-196,-176,-123,-87
24,-118,-142,42,79,-132,-86,-153,-202,-182,-123,-93
24,-130,-154,48,85,-144,-86,-159,-214,-188,-135,-99
24,-142,-166,54,91,-156,-80,-171,-226,-200,-147,-105
12,-154,-166,66,85,-162,-80,-177,-232,-212,-159,-123
6,-160,-166,78,85,-162,-86,-177,-238,-224,-165,-129
0,-166,-166,78,79,-168,-86,-183,-244,-230,-171,-135
-6,-178,-172,90,79,-174,-86,-195,-250,-236,-183,-135
-12,-184,-172,96,79,-180,-92,-201,-268,-248,-189,-153
-18,-196,-178,108,79,-186,-98,-207,-274,-254,-195,-159
-12,-202,-190,102,85,-198,-98,-219,-286,-260,-201,-153
-18,-208,-190,114,85,-198,-98,-225,-292,-260,-207,-159
-18,-214,-196,114,85,-204,-104,-225,-286,-266,-207,-159
-18,-220,-202,120,91,-210,-104,-219,-286,-266,-207,-165
-18,-220,-202,120,91,-210,-104,-219,-292,-272,-207,-159
-18,-220,-202,120,91,-210,-110,-219,-292,-278,-207,-159
-12,-214,-202,108,91,-210,-110,-213,-292,-278,-207,-153
-18,-208,-190,114,85,-198,-104,-219,-292,-278,-207,-153
-24,-208,-184,114,79,-198,-98,-225,-298,-278,-213,-153
-24,-208,-184,114,79,-198,-104,-219,-298,-272,-207,-153
-24,-202,-178,108,73,-192,-92,-213,-286,-260,-201,-147
-24,-196,-172,108,73,-186,-86,-201,-268,-242,-195,-147
-24,-184,-160,102,67,-174,-74,-183,-250,-230,-183,-141
-30,-172,-142,102,57,-156,-68,-165,-232,-218,-165,-135
-30,-154,-124,90,45,-138,-56,-153,-208,-212,-159,-129
-30,-142,-112,84,39,-126,-44,-129,-196,-200,-153,-129
-30,-124,-94,78,33,-108,-38,-111,-178,-182,-141,-105
-42,-112,-72,78,15,-90,-21,-93,-154,-164,-123,-99
-48,-100,-54,72,3,-78,-16,-69,-136,-146,-111,-93
-54,-88,-36,72,-9,-61,8,-40,-100,-122,-99,-87
-60,-76,-18,66,-21,-50,32,1,-64,-92,-87,-75
-54,-76,-24,66,-15,-50,62,49,-28,-74,-75,-81
-48,-82,-36,60,-9,-61,92,109,6,-56,-63,-87
-30,-94,-66,60,15,-78,134,205,66,-34,-51,-87
0,-112,-112,54,57,-114,194,325,150,8,-27,-81
30,-118,-148,42,85,-132,272,493,264,62,9,-69
52,-118,-172,30,109,-144,386,697,402,134,43,-57
76,-106,-184,12,127,-144,512,925,570,218,85,-45
94,-76,-172,-4,133,-120,644,1165,762,320,145,-21
118,-30,-148,-40,133,-84,776,1405,978,458,241,32
130,48,-83,-82,109,-14,902,1597,1188,626,355,97
142,174,30,-154,57,106,992,1717,1374,812,493,193
154,336,180,-238,-9,262,1022,1729,1512,1016,661,331
166,540,372,-346,-99,460,1010,1657,1608,1232,859,487
178,762,582,-466,-201,676,962,1507,1650,1442,1063,661
172,990,816,-580,-321,904,866,1267,1620,1610,1255,841
154,1206,1050,-676,-447,1132,740,931,1530,1754,1423,1021
112,1428,1314,-766,-597,1372,590,535,1374,1856,1555,1177
46,1644,1596,-838,-771,1624,428,79,1122,1886,1633,1297
-36,1830,1866,-898,-951,1846,278,-417,774,1814,1627,1363
-114,1968,2082,-922,-1095,2026,134,-873,390,1676,1573,1387
-174,1998,2172,-910,-1173,2086,26,-1209,36,1484,1459,1345
-216,1926,2142,-856,-1179,2032,-44,-1395,-226,1280,1315,1261
-252,1782,2034,-766,-1143,1906,-86,-1497,-454,1016,1117,1123
-288,1578,1866,-646,-1077,1720,-92,-1527,-640,710,871,931
-300,1338,1638,-520,-969,1486,-80,-1479,-748,434,601,709
-306,1128,1434,-406,-867,1282,-80,-1407,-814,206,379,517
-300,930,1230,-316,-765,1078,-98,-1341,-850,32,205,355
-288,750,1038,-232,-663,892,-140,-1275,-874,-104,67,223
-270,582,852,-154,-561,718,-188,-1209,-880,-200,-39,115
-252,420,672,-82,-459,544,-224,-1143,-892,-284,-123,32
-234,282,516,-22,-375,400,-248,-1071,-880,-338,-183,-39
-216,180,396,18,-303,286,-266,-981,-844,-374,-225,-87
-198,102,300,48,-249,202,-278,-873,-790,-386,-255,-123
-186,48,234,72,-207,142,-278,-777,-730,-386,-261,-147
-168,0,168,84,-165,82,-266,-675,-658,-386,-273,-159
-144,-36,108,90,-123,34,-254,-579,-592,-374,-279,-171
-120,-70,48,90,-87,-14,-230,-501,-526,-362,-273,-177
-96,-106,-12,96,-45,-61,-188,-423,-466,-344,-255,-177
-72,-136,-66,102,-3,-102,-152,-357,-412,-320,-243,-159
-54,-154,-100,102,21,-126,-122,-303,-358,-284,-219,-153
-42,-166,-124,102,39,-144,-98,-243,-310,-248,-195,-141
-30,-166,-136,96,51,-150,-74,-189,-268,-218,-171,-129
-18,-148,-130,84,57,-138,-68,-141,-226,-188,-159,-117
-12,-142,-130,72,57,-138,-62,-99,-190,-164,-147,-111
-6,-130,-124,66,57,-126,-56,-63,-160,-146,-129,-99
0,-124,-124,60,62,-126,-50,-40,-136,-134,-117,-87
0,-124,-124,60,62,-126,-44,-29,-118,-134,-111,-87
0,-124,-124,60,62,-126,-38,-11,-100,-128,-99,-87
6,-124,-130,60,67,-126,-32,7,-76,-110,-87,-81
12,-112,-124,48,67,-120,-26,13,-64,-98,-75,-69
6,-106,-112,48,57,-108,-26,31,-52,-86,-69,-63
12,-100,-112,42,62,-108,-26,43,-40,-74,-57,-63
18,-94,-112,36,62,-102,-26,61,-28,-68,-57,-63
24,-94,-118,30,67,-108,-26,73,-16,-68,-57,-63
24,-94,-118,30,67,-108,-26,85,-5,-62,-51,-69
30,-100,-130,36,79,-114,-26,85,0,-62,-51,-69
30,-100,-130,36,79,-114,-26,85,0,-62,-45,-69
24,-100,-124,36,73,-114,-26,85,6,-62,-45,-69
24,-100,-124,36,73,-114,-21,85,6,-62,-39,-63
24,-94,-118,30,67,-108,-26,91,18,-50,-33,-57
18,-94,-112,36,62,-102,-21,103,30,-45,-33,-45
24,-88,-112,30,67,-102,-21,115,36,-40,-27,-39
30,-82,-112,24,67,-96,-21,127,48,-34,-27,-27
30,-82,-112,24,67,-96,-16,133,60,-28,-27,-27
36,-82,-118,18,73,-102,-16,145,66,-28,-27,-15
36,-76,-112,18,73,-96,-16,151,72,-22,-15,-9
36,-70,-106,12,67,-90,-16,151,78,-22,-9,-3
30,-64,-94,18,62,-78,-10,157,78,-16,-3,3
30,-58,-88,12,57,-72,-10,163,84,-10,3,9
41,-52,-94,6,67,-72,-10,163,90,2,3,15
41,-52,-94,6,67,-72,-4,175,96,8,9,21
41,-52,-94,6,67,-72,-4,181,108,20,14,27
46,-52,-100,6,73,-72,-4,193,114,26,14,27
41,-52,-94,6,67,-72,2,193,120,32,14,27
41,-52,-94,6,67,-72,8,205,126,38,19,27
36,-52,-88,6,62,-72,8,211,132,50,31,32
41,-41,-83,1,62,-61,8,217,144,56,37,37
41,-36,-78,1,62,-56,14,235,150,68,37,37
46,-24,-72,-4,62,-44,20,235,156,74,49,43
52,-24,-78,-10,67,-50,20,241,162,86,55,55
52,-18,-72,-16,62,-44,20,247,168,98,61,55
58,-12,-72,-16,67,-38,20,259,180,110,73,55
64,-6,-72,-28,67,-38,20,271,198,128,85,55
58,0,-60,-22,62,-26,26,271,204,134,91,55
58,6,-54,-28,57,-20,26,283,216,146,97,55
64,6,-60,-34,62,-26,26,295,228,158,109,61
70,12,-60,-34,67,-20,26,301,234,164,115,67
64,12,-54,-34,62,-20,26,307,246,176,121,67
70,18,-54,-40,62,-14,26,313,252,188,127,67
70,24,-48,-40,62,-8,32,325,264,200,139,73
70,30,-42,-46,57,-2,38,325,270,212,145,85
76,36,-42,-52,62,-2,44,337,282,224,151,91
76,42,-36,-58,57,4,50,349,294,236,163,91
76,48,-30,-58,57,10,50,361,306,248,175,103
82,54,-30,-64,57,16,50,367,324,266,187,121
82,66,-18,-70,51,28,50,385,342,278,199,133
88,72,-18,-76,57,28,44,391,360,296,205,145
94,78,-18,-82,57,34,44,403,378,308,211,157
94,84,-12,-82,57,40,44,415,396,326,223,163
94,96,0,-88,51,52,44,427,402,338,235,175
100,102,0,-100,51,52,50,445,420,356,247,181
100,108,6,-100,51,58,56,463,444,368,259,199
106,120,12,-106,51,70,62,481,456,380,271,211
106,132,24,-112,45,82,62,493,474,398,283,217
106,132,24,-112,45,82,62,499,492,410,295,229
112,144,30,-124,45,88,68,511,504,428,307,241
112,150,36,-130,39,94,68,529,528,440,319,247
112,156,42,-130,39,100,68,541,546,458,331,259
118,168,48,-136,39,112,74,553,564,470,337,271
124,180,54,-148,39,118,74,571,582,494,361,283
124,186,60,-154,33,124,80,589,600,512,373,295
130,192,60,-154,39,130,86,607,624,530,385,313
136,210,72,-172,33,142,86,625,636,548,409,325
148,222,72,-184,39,148,86,637,654,566,427,331
148,234,84,-190,33,160,80,661,678,584,445,343
148,240,90,-190,33,166,74,673,696,602,463,355
142,252,108,-190,21,184,74,673,708,620,475,361
148,264,114,-202,21,190,74,685,726,632,481,367
148,276,126,-208,15,202,74,697,738,650,493,385
154,288,132,-214,15,214,74,709,750,668,505,391
154,294,138,-220,9,220,80,721,762,680,517,403
160,306,144,-232,9,226,80,733,774,698,535,409
160,312,150,-232,9,232,80,745,786,710,553,421
154,324,168,-232,-3,250,80,757,804,722,559,427
154,330,174,-238,-9,256,80,763,816,740,565,433
154,336,180,-238,-9,262,80,775,834,752,583,451
154,348,192,-244,-15,274,80,781,840,758,589,463
154,360,204,-250,-21,286,80,787,852,776,595,463
154,366,210,-256,-27,292,80,793,864,782,613,475
160,378,216,-268,-27,298,86,799,870,794,619,487
166,384,216,-268,-21,304,86,805,876,800,625,493
166,390,222,-274,-27,310,86,805,882,806,637,493
172,402,228,-286,-27,316,86,805,888,818,643,505
166,402,234,-280,-33,322,80,811,894,824,649,511
160,402,240,-280,-39,322,80,817,894,824,655,505
154,408,252,-274,-45,334,80,811,882,830,655,511
154,414,258,-280,-51,340,80,793,876,830,655,511
148,408,258,-274,-51,334,80,787,864,824,649,505
142,402,258,-268,-57,334,74,775,852,812,643,493
142,402,258,-268,-57,334,74,757,834,794,631,493
142,396,252,-262,-51,328,80,733,816,776,625,487
130,378,246,-250,-57,316,80,715,792,764,607,469
124,366,240,-244,-57,304,80,691,762,734,589,457
112,354,240,-232,-63,298,80,673,726,704,565,439
112,336,222,-220,-51,280,80,643,690,674,547,421
106,324,216,-208,-51,274,74,613,654,638,523,397
106,306,198,-202,-45,256,74,577,612,596,493,379
100,288,186,-190,-39,238,68,547,570,554,463,349
94,258,162,-172,-33,214,68,505,522,518,427,319
82,234,150,-154,-33,196,62,463,480,476,397,301
70,210,138,-136,-33,178,56,427,432,434,361,283
64,186,120,-124,-27,154,50,397,384,392,325,253
58,162,102,-106,-21,136,50,361,348,344,295,229
46,138,90,-88,-21,118,44,331,306,302,265,205
41,114,72,-76,-15,94,38,307,264,260,229,181
41,90,48,-64,-3,70,26,283,234,224,205,157
41,72,30,-52,9,52,20,259,198,194,175,133
30,48,18,-34,9,34,14,229,156,152,145,103
18,18,0,-16,9,10,8,193,120,116,115,79
18,-6,-24,-4,21,-14,8,163,78,86,91,61
12,-24,-36,6,27,-32,8,139,48,56,61,43
12,-41,-54,12,33,-50,2,109,12,26,37,32
6,-52,-60,24,33,-56,2,85,-10,2,19,15
6,-64,-72,30,39,-66,-4,67,-28,-22,3,3
0,-76,-78,36,39,-78,-10,49,-52,-45,-15,-9
0,-88,-88,42,45,-90,-16,37,-70,-56,-27,-21
-6,-100,-94,54,45,-96,-21,31,-82,-74,-45,-27
-12,-118,-106,60,45,-114,-32,13,-100,-92,-57,-39
-12,-130,-118,66,51,-126,-38,1,-118,-104,-69,-51
-18,-142,-124,78,51,-132,-38,-17,-130,-116,-87,-63
-18,-148,-130,84,57,-138,-38,-29,-142,-122,-99,-69
-24,-160,-136,90,57,-150,-38,-40,-160,-140,-105,-81
-18,-166,-148,90,62,-156,-38,-57,-172,-152,-117,-87
-18,-166,-148,90,62,-156,-44,-57,-184,-164,-129,-93
-18,-172,-154,96,67,-162,-44,-69,-190,-176,-135,-99
-18,-172,-154,96,67,-162,-50,-69,-196,-182,-141,-99
-18,-172,-154,96,67,-162,-44,-75,-202,-182,-141,-99
-18,-178,-160,96,67,-168,-44,-81,-208,-188,-147,-105
-18,-184,-166,102,73,-174,-44,-81,-214,-194,-153,-111
-18,-190,-172,102,73,-180,-44,-87,-220,-200,-153,-111
-24,-196,-172,108,73,-186,-44,-93,-226,-206,-159,-117
-18,-190,-172,102,73,-180,-44,-99,-226,-200,-165,-123
-18,-190,-172,102,73,-180,-44,-111,-226,-206,-165,-117
-18,-196,-178,108,79,-186,-50,-111,-232,-206,-165,-123
-30,-202,-172,114,67,-186,-50,-111,-238,-218,-177,-135
-36,-202,-166,114,62,-186,-56,-111,-238,-224,-171,-135
-30,-202,-172,114,67,-186,-56,-111,-238,-224,-171,-129
-30,-202,-172,114,67,-186,-56,-111,-232,-230,-177,-135
-30,-202,-172,114,67,-186,-56,-111,-232,-236,-177,-141
-30,-202,-172,114,67,-186,-56,-111,-238,-230,-177,-135
-30,-202,-172,114,67,-186,-56,-105,-238,-230,-177,-135
-30,-202,-172,114,67,-186,-56,-117,-238,-236,-177,-135
-36,-202,-166,114,62,-186,-56,-117,-238,-236,-177,-135
-36,-208,-172,120,67,-192,-50,-111,-244,-236,-183,-135
-36,-214,-178,120,67,-198,-50,-111,-238,-236,-177,-135
-36,-208,-172,120,67,-192,-50,-105,-238,-236,-177,-135
-30,-208,-178,120,73,-192,-50,-111,-226,-236,-177,-135
-30,-208,-178,120,73,-192,-50,-111,-226,-242,-177,-141
-36,-214,-178,120,67,-198,-50,-117,-232,-236,-177,-147
-30,-214,-184,120,73,-198,-50,-123,-238,-242,-183,-141
-30,-214,-184,120,73,-198,-50,-123,-244,-242,-183,-147
-30,-214,-184,120,73,-198,-50,-123,-238,-242,-183,-141
-30,-208,-178,120,73,-192,-50,-117,-244,-242,-183,-141
-30,-208,-178,120,73,-192,-50,-117,-238,-248,-183,-141
-30,-208,-178,120,73,-192,-50,-117,-244,-254,-183,-147
-30,-208,-178,120,73,-192,-50,-117,-238,-254,-183,-147
-36,-208,-172,120,67,-192,-50,-123,-238,-254,-183,-141
-36,-208,-172,120,67,-192,-50,-117,-232,-254,-183,-147
-36,-208,-172,120,67,-192,-56,-117,-232,-260,-189,-147
-30,-208,-178,120,73,-192,-50,-111,-238,-260,-183,-141
-36,-214,-178,120,67,-198,-50,-111,-238,-260,-189,-147
-36,-208,-172,120,67,-192,-56,-111,-244,-260,-195,-147
-42,-208,-166,126,62,-186,-50,-111,-244,-260,-189,-141
-36,-202,-166,114,62,-186,-44,-111,-244,-260,-189,-135
-42,-202,-160,120,57,-180,-38,-111,-244,-260,-189,-135
-42,-202,-160,120,57,-180,-38,-117,-238,-254,-183,-129
-42,-202,-160,120,57,-180,-38,-117,-238,-254,-183,-123
-36,-202,-166,114,62,-186,-32,-111,-238,-254,-183,-135
-30,-202,-172,114,67,-186,-32,-111,-238,-254,-183,-135
-24,-202,-178,108,73,-192,-38,-105,-232,-254,-183,-135
-24,-202,-178,108,73,-192,-44,-105,-226,-254,-183,-135
-30,-196,-166,114,67,-180,-44,-105,-226,-254,-183,-135
-30,-196,-166,114,67,-180,-44,-99,-220,-254,-183,-129
-42,-196,-154,120,57,-174,-44,-99,-220,-254,-183,-129
-42,-190,-148,114,51,-168,-38,-99,-220,-254,-177,-129
-42,-190,-148,114,51,-168,-38,-99,-214,-248,-177,-129
-48,-190,-142,114,45,-168,-38,-99,-214,-248,-177,-123
-42,-190,-148,114,51,-168,-32,-93,-208,-248,-177,-129
-42,-196,-154,120,57,-174,-32,-87,-208,-242,-171,-129
-42,-196,-154,120,57,-174,-32,-87,-208,-242,-171,-123
-36,-196,-160,114,62,-180,-32,-87,-208,-242,-165,-123
-36,-196,-160,114,62,-180,-38,-87,-208,-242,-165,-123
-30,-184,-154,108,62,-168,-32,-81,-196,-236,-165,-117
-30,-184,-154,108,62,-168,-32,-87,-196,-230,-159,-117
-30,-178,-148,102,57,-162,-32,-87,-196,-230,-159,-123
-30,-178,-148,102,57,-162,-32,-87,-196,-230,-159,-123
-36,-184,-148,108,57,-168,-32,-93,-202,-230,-153,-123
-36,-184,-148,108,57,-168,-32,-93,-202,-230,-159,-129
-42,-184,-142,114,51,-162,-32,-93,-202,-230,-159,-129
-42,-184,-142,114,51,-162,-38,-99,-202,-230,-153,-123
-36,-178,-142,102,51,-162,-38,-93,-196,-224,-153,-117
-30,-172,-142,102,57,-156,-38,-87,-190,-218,-153,-117
-30,-172,-142,102,57,-156,-38,-87,-196,-218,-153,-117
-36,-178,-142,102,51,-162,-38,-93,-196,-218,-159,-123
-36,-172,-136,102,51,-156,-32,-87,-202,-224,-159,-123
-30,-172,-142,102,57,-156,-32,-87,-202,-224,-153,-123
-30,-178,-148,102,57,-162,-32,-87,-202,-218,-153,-117
-30,-178,-148,102,57,-162,-32,-93,-208,-224,-159,-123
-24,-184,-160,102,67,-174,-38,-93,-202,-218,-153,-123
-30,-184,-154,108,62,-168,-38,-93,-208,-218,-153,-117
-36,-184,-148,108,57,-168,-44,-93,-208,-218,-159,-117
-36,-184,-148,108,57,-168,-38,-99,-208,-218,-153,-117
-42,-184,-142,114,51,-162,-38,-105,-208,-224,-153,-117
-42,-184,-142,114,51,-162,-38,-99,-202,-224,-159,-117
-42,-184,-142,114,51,-162,-38,-99,-202,-224,-159,-123
-36,-184,-148,108,57,-168,-38,-105,-202,-224,-159,-123
-24,-184,-160,102,67,-174,-38,-111,-202,-224,-159,-117
-24,-184,-160,102,67,-174,-38,-105,-208,-224,-165,-117
-18,-184,-166,102,73,-174,-44,-105,-214,-224,-153,-117
-18,-184,-166,102,73,-174,-50,-105,-214,-224,-153,-117
-24,-184,-160,102,67,-174,-50,-111,-220,-224,-153,-105
-24,-184,-160,102,67,-174,-50,-111,-220,-224,-147,-105
-24,-184,-160,102,67,-174,-44,-111,-214,-224,-153,-105
-24,-178,-154,96,62,-168,-44,-117,-208,-224,-153,-111
-24,-178,-154,96,62,-168,-38,-129,-214,-230,-153,-111
-24,-184,-160,102,67,-174,-38,-129,-214,-230,-153,-117
-24,-184,-160,102,67,-174,-44,-129,-214,-230,-159,-123
-30,-184,-154,108,62,-168,-44,-129,-220,-236,-165,-117
-24,-184,-160,102,67,-174,-44,-129,-226,-236,-165,-117
-30,-184,-154,108,62,-168,-50,-129,-226,-236,-165,-117
-30,-184,-154,108,62,-168,-50,-135,-226,-236,-165,-117
-24,-190,-166,102,67,-180,-50,-135,-226,-242,-159,-117
-30,-184,-154,108,62,-168,-50,-135,-232,-242,-165,-117
-30,-184,-154,108,62,-168,-50,-141,-232,-248,-165,-123
-30,-190,-160,108,62,-174,-50,-141,-232,-254,-165,-129
-30,-190,-160,108,62,-174,-50,-141,-232,-254,-165,-123
-30,-190,-160,108,62,-174,-50,-141,-232,-260,-165,-123
-30,-184,-154,108,62,-168,-50,-147,-232,-260,-165,-129
-24,-190,-166,102,67,-180,-50,-147,-232,-254,-165,-123
-24,-196,-172,108,73,-186,-50,-141,-232,-254,-171,-123
-30,-208,-178,120,73,-192,-50,-147,-238,-260,-177,-123
-36,-214,-178,120,67,-198,-56,-153,-238,-254,-177,-123
-36,-208,-172,120,67,-192,-56,-153,-238,-260,-177,-117
-36,-208,-172,120,67,-192,-50,-147,-238,-266,-177,-123
-36,-202,-166,114,62,-186,-56,-141,-238,-272,-177,-129
-36,-202,-166,114,62,-186,-50,-147,-244,-272,-177,-129
-36,-202,-166,114,62,-186,-56,-147,-244,-278,-177,-123
-42,-202,-160,120,57,-180,-56,-153,-250,-278,-183,-135
-42,-208,-166,126,62,-186,-56,-153,-250,-278,-183,-135
-42,-208,-166,126,62,-186,-56,-159,-256,-278,-183,-129
-42,-208,-166,126,62,-186,-56,-153,-250,-278,-183,-123
-42,-214,-172,126,62,-192,-50,-147,-244,-278,-177,-123
-42,-214,-172,126,62,-192,-56,-147,-250,-278,-183,-123
-42,-214,-172,126,62,-192,-50,-159,-250,-284,-189,-117
-42,-208,-166,126,62,-186,-50,-165,-256,-284,-189,-117
-36,-208,-172,120,67,-192,-50,-171,-256,-272,-189,-123
-36,-208,-172,120,67,-192,-50,-171,-250,-272,-189,-129
-36,-208,-172,120,67,-192,-50,-177,-250,-278,-183,-129
-36,-208,-172,120,67,-192,-56,-177,-250,-278,-183,-129
-36,-208,-172,120,67,-192,-56,-177,-250,-278,-183,-129
-36,-214,-178,120,67,-198,-62,-171,-244,-284,-189,-123
-36,-214,-178,120,67,-198,-62,-165,-244,-290,-183,-129
-42,-214,-172,126,62,-192,-62,-171,-250,-296,-189,-129
-42,-214,-172,126,62,-192,-56,-171,-256,-296,-195,-135
-30,-202,-172,114,67,-186,-56,-171,-256,-290,-189,-129
-30,-202,-172,114,67,-186,-56,-177,-256,-284,-183,-129
-30,-196,-166,114,67,-180,-56,-177,-256,-284,-183,-129
-24,-184,-160,102,67,-174,-50,-177,-256,-278,-177,-135
-18,-178,-160,96,67,-168,-50,-177,-250,-272,-171,-123
-18,-172,-154,96,67,-162,-50,-171,-244,-266,-171,-117
-18,-166,-148,90,62,-156,-50,-171,-244,-266,-165,-117
-18,-160,-142,90,62,-150,-50,-165,-238,-254,-159,-105
-18,-148,-130,84,57,-138,-50,-159,-238,-254,-159,-99
-18,-148,-130,84,57,-138,-38,-159,-238,-248,-159,-99
-24,-142,-118,78,45,-132,-32,-159,-232,-242,-153,-99
-18,-136,-118,78,51,-126,-38,-153,-220,-236,-147,-93
-18,-130,-112,72,45,-120,-38,-153,-220,-236,-147,-93
-12,-130,-118,66,51,-126,-38,-153,-220,-230,-141,-93
-12,-124,-112,66,51,-120,-38,-159,-220,-236,-135,-93
-12,-118,-106,60,45,-114,-38,-159,-220,-236,-135,-93
-12,-112,-100,60,45,-108,-38,-153,-226,-242,-135,-87
-12,-106,-94,54,39,-102,-44,-153,-220,-236,-129,-87
-12,-106,-94,54,39,-102,-56,-165,-226,-236,-135,-81
-12,-106,-94,54,39,-102,-68,-165,-232,-236,-135,-81
-6,-100,-94,54,45,-96,-68,-171,-232,-236,-135,-81
0,-94,-94,42,45,-96,-74,-171,-232,-236,-135,-75
-6,-94,-88,48,39,-90,-74,-177,-232,-236,-129,-69
-6,-88,-83,48,39,-84,-74,-177,-226,-230,-129,-69
0,-82,-83,36,39,-84,-80,-171,-226,-230,-123,-63
0,-82,-83,36,39,-84,-80,-165,-214,-224,-123,-63
0,-88,-88,42,45,-90,-80,-171,-214,-224,-123,-63
6,-94,-100,42,51,-96,-80,-165,-214,-224,-123,-63
12,-94,-106,36,57,-102,-74,-159,-208,-224,-117,-63
24,-94,-118,30,67,-108,-74,-153,-208,-224,-117,-57
24,-100,-124,36,73,-114,-74,-153,-208,-224,-111,-57
30,-106,-136,36,79,-120,-68,-159,-202,-224,-111,-57
24,-112,-136,42,79,-126,-68,-153,-202,-224,-117,-57
24,-124,-148,48,85,-138,-62,-153,-202,-230,-117,-63
30,-130,-160,48,91,-144,-62,-159,-202,-230,-117,-75
30,-142,-172,54,97,-156,-68,-159,-214,-236,-123,-81
24,-148,-172,60,97,-162,-68,-171,-220,-248,-135,-87
12,-166,-178,72,91,-174,-68,-183,-232,-260,-141,-93
0,-178,-178,84,85,-180,-62,-195,-244,-272,-159,-105
-6,-190,-184,96,85,-186,-68,-201,-256,-284,-171,-117
-18,-202,-184,108,79,-192,-68,-207,-262,-290,-177,-117
-24,-214,-190,114,79,-204,-68,-213,-268,-290,-177,-123
-30,-220,-190,126,79,-204,-74,-225,-274,-296,-183,-129
-36,-232,-196,132,79,-216,-80,-231,-280,-308,-189,-141
-36,-244,-208,138,85,-228,-80,-237,-292,-314,-189,-141
-30,-250,-220,138,91,-234,-80,-237,-304,-314,-195,-147
-24,-250,-226,132,97,-240,-80,-243,-304,-320,-195,-153
-24,-256,-232,138,103,-246,-80,-243,-310,-326,-201,-153
-24,-256,-232,138,103,-246,-80,-249,-310,-326,-207,-153
-30,-262,-232,144,97,-246,-86,-249,-316,-332,-213,-159
-36,-256,-220,144,91,-240,-80,-249,-310,-332,-213,-159
-30,-250,-220,138,91,-234,-80,-243,-304,-326,-207,-147
-30,-244,-214,138,91,-228,-80,-243,-304,-326,-207,-147
-30,-238,-208,132,85,-222,-74,-243,-304,-326,-201,-153
-30,-232,-202,132,85,-216,-68,-237,-292,-314,-189,-147
-30,-220,-190,126,79,-204,-68,-225,-280,-302,-189,-135
-30,-214,-184,120,73,-198,-56,-213,-274,-290,-183,-135
-42,-202,-160,120,57,-180,-56,-201,-262,-278,-177,-129
-48,-190,-142,114,45,-168,-44,-189,-244,-260,-165,-123
-54,-172,-118,114,33,-144,-32,-171,-226,-242,-159,-117
-60,-160,-100,108,21,-132,-21,-153,-214,-224,-147,-111
-54,-142,-88,96,15,-114,-16,-135,-190,-206,-129,-105
-60,-124,-66,90,3,-96,2,-111,-160,-182,-117,-99
-66,-112,-48,90,-9,-78,26,-81,-130,-158,-105,-99
-72,-106,-36,84,-21,-72,44,-51,-100,-140,-87,-99
-72,-106,-36,84,-21,-72,68,-11,-64,-116,-81,-99
-60,-118,-60,84,-3,-90,98,43,-34,-104,-75,-99
-48,-124,-78,84,15,-102,134,121,12,-86,-63,-99
-30,-136,-106,84,39,-120,194,235,84,-50,-39,-99
-6,-148,-142,78,67,-144,266,385,192,-10,-9,-87
24,-154,-178,60,97,-168,374,583,324,62,19,-69
41,-148,-190,54,115,-168,500,805,486,140,73,-57
70,-124,-196,30,133,-156,638,1045,678,248,127,-39
88,-76,-166,-4,127,-120,770,1291,894,380,217,-3
112,-18,-130,-46,121,-72,884,1501,1098,536,319,61
124,90,-36,-106,79,28,980,1633,1284,704,445,151
130,246,114,-184,9,184,1022,1645,1416,890,595,265
136,438,300,-286,-81,370,1016,1591,1518,1094,775,421
154,660,504,-400,-171,586,974,1471,1578,1298,979,607
148,888,738,-514,-291,814,890,1243,1560,1472,1171,787
136,1116,978,-622,-417,1048,776,937,1488,1628,1351,967
100,1338,1236,-718,-567,1288,638,565,1356,1748,1501,1135
52,1560,1506,-802,-723,1534,488,139,1140,1808,1597,1267
-24,1758,1782,-868,-903,1768,332,-351,822,1772,1621,1339
-114,1914,2028,-898,-1071,1972,182,-831,450,1658,1579,1369
-186,1968,2154,-886,-1167,2062,56,-1203,90,1484,1489,1357
-234,1920,2154,-838,-1191,2038,-26,-1437,-178,1298,1357,1291
-276,1782,2058,-754,-1167,1918,-74,-1557,-406,1076,1189,1183
-312,1596,1908,-640,-1107,1750,-92,-1611,-610,782,955,1015
-336,1362,1698,-514,-1017,1528,-86,-1587,-742,488,691,805
-342,1134,1476,-394,-909,1306,-80,-1515,-820,242,451,595
-330,930,1260,-298,-795,1096,-98,-1443,-868,50,259,415
-318,744,1062,-208,-687,904,-146,-1371,-898,-92,103,259
-300,564,864,-130,-579,712,-194,-1293,-910,-206,-15,133
-282,396,678,-52,-477,538,-230,-1221,-916,-290,-105,32
-252,252,504,1,-375,376,-254,-1155,-910,-356,-171,-45
-234,138,372,48,-303,256,-266,-1071,-880,-398,-219,-93
-210,60,270,78,-237,166,-266,-975,-832,-416,-249,-129
-198,6,204,96,-201,106,-260,-879,-772,-422,-255,-147
-174,-36,138,108,-153,52,-254,-783,-706,-422,-267,-165
-156,-70,84,108,-123,4,-242,-687,-634,-410,-273,-171
-132,-106,24,114,-81,-44,-212,-597,-568,-392,-261,-183
-108,-142,-36,120,-39,-90,-170,-507,-496,-368,-255,-189
-84,-178,-94,126,3,-138,-128,-435,-442,-332,-243,-189
-72,-202,-130,132,27,-168,-92,-369,-394,-296,-219,-183
-48,-214,-166,126,57,-192,-62,-315,-346,-266,-195,-165
-36,-208,-172,120,67,-192,-44,-273,-304,-242,-177,-147
-36,-190,-154,108,57,-174,-44,-237,-274,-218,-159,-129
-30,-178,-148,102,57,-162,-44,-201,-244,-200,-141,-123
-30,-172,-142,102,57,-156,-38,-177,-214,-188,-129,-117
-24,-166,-142,90,57,-156,-32,-147,-190,-182,-123,-111
-12,-160,-148,84,67,-156,-21,-123,-166,-170,-111,-111
-12,-160,-148,84,67,-156,-21,-99,-148,-158,-105,-111
-6,-160,-154,84,73,-156,-16,-81,-130,-146,-99,-111
-6,-160,-154,84,73,-156,-10,-63,-118,-134,-87,-105
-6,-154,-148,78,67,-150,-4,-45,-100,-116,-75,-93
0,-148,-148,72,73,-150,-4,-40,-82,-104,-69,-87
0,-136,-136,66,67,-138,2,-35,-76,-104,-57,-75
0,-130,-130,60,62,-132,2,-23,-64,-98,-57,-75
0,-130,-130,60,62,-132,2,-23,-58,-104,-57,-75
0,-130,-130,60,62,-132,2,-17,-52,-98,-57,-69
6,-130,-136,60,67,-132,2,-11,-40,-92,-57,-69
6,-130,-136,60,67,-132,2,1,-34,-86,-57,-75
6,-124,-130,60,67,-126,8,1,-28,-86,-51,-75
6,-124,-130,60,67,-126,8,13,-16,-80,-45,-69
12,-112,-124,48,67,-120,2,19,-10,-74,-39,-57
12,-106,-118,42,62,-114,2,25,-5,-74,-33,-51
12,-106,-118,42,62,-114,2,25,0,-68,-27,-45
12,-106,-118,42,62,-114,8,31,6,-68,-27,-39
12,-100,-112,42,62,-108,8,37,12,-68,-27,-39
18,-94,-112,36,62,-102,14,37,24,-62,-27,-33
18,-88,-106,36,62,-96,14,43,30,-50,-21,-21
24,-88,-112,30,67,-102,14,49,36,-50,-15,-15
24,-82,-106,24,62,-96,20,55,42,-45,-9,-15
24,-76,-100,24,62,-90,20,55,54,-45,-9,-9
24,-70,-94,18,57,-84,14,67,60,-34,-3,3
24,-70,-94,18,57,-84,14,73,66,-22,9,9
24,-76,-100,24,62,-90,14,73,72,-16,9,9
24,-70,-94,18,57,-84,20,85,84,-10,14,21
24,-70,-94,18,57,-84,20,91,84,-4,19,21
24,-76,-100,24,62,-90,26,91,90,2,19,21
30,-70,-100,18,62,-84,26,97,102,8,25,27
30,-64,-94,18,62,-78,26,103,108,20,37,27
30,-58,-88,12,57,-72,32,109,114,26,37,27
30,-58,-88,12,57,-72,38,115,126,32,43,32
30,-52,-83,12,57,-66,38,121,132,44,55,37
30,-46,-78,6,51,-61,38,133,144,56,61,37
36,-41,-78,1,57,-61,38,139,156,68,67,43
41,-41,-83,1,62,-61,38,145,162,80,79,43
41,-36,-78,1,62,-56,44,157,168,92,91,43
41,-24,-66,-4,57,-44,44,169,174,110,97,43
46,-18,-66,-10,57,-38,50,169,186,122,109,43
41,-12,-54,-10,51,-32,50,181,198,134,121,49
41,-12,-54,-10,51,-32,50,187,210,134,121,49
46,-6,-54,-16,51,-26,56,193,228,146,133,49
52,0,-54,-22,57,-26,56,199,234,158,139,67
58,6,-54,-28,57,-20,62,205,246,170,145,67
64,12,-54,-34,62,-20,62,223,258,182,157,73
70,18,-54,-40,62,-14,68,229,270,200,163,91
76,30,-48,-52,62,-8,62,247,288,218,175,103
76,36,-42,-52,62,-2,62,259,306,230,187,109
76,42,-36,-58,57,4,62,271,318,242,199,121
76,54,-24,-64,51,16,62,277,336,260,205,133
76,60,-18,-64,51,22,68,289,354,278,217,139
76,66,-12,-70,45,28,68,301,372,290,229,151
82,72,-12,-70,51,34,74,307,390,308,235,169
82,78,-6,-76,45,40,74,319,408,320,247,181
88,84,-6,-82,51,40,80,337,426,338,259,193
100,96,-6,-94,57,46,80,361,444,350,271,205
100,108,6,-100,51,58,80,367,456,368,283,217
100,114,12,-106,45,64,80,379,474,386,295,223
100,126,24,-112,39,76,80,397,492,404,307,235
