,,,,,,,,,,,
2019-09-04 23:15:06,,,,,,,,,,,
,,,,,,,,,,,
I,II,III,aVR,aVL,aVF,V1,V2,V3,V4,V5,V6
777,426,-352,-602,563,31,-2235,-2559,-2361,-1012,1620,2138
777,426,-352,-602,563,31,-2235,-2559,-2361,-1012,1620,2138
777,426,-352,-602,563,31,-2235,-2559,-2361,-1012,1620,2138
777,426,-352,-602,563,31,-2235,-2559,-2361,-1012,1620,2138
765,450,-316,-608,539,61,-2175,-2511,-2313,-958,1728,2216
759,474,-286,-614,521,91,-2115,-2469,-2265,-898,1836,2300
747,492,-250,-620,497,121,-2049,-2428,-2217,-838,1944,2384
741,516,-220,-632,479,145,-1989,-2386,-2175,-778,2051,2461
687,468,-220,-572,455,121,-1827,-2188,-1989,-712,1884,2294
627,420,-208,-518,419,103,-1671,-1990,-1815,-646,1716,2126
567,366,-202,-470,383,79,-1503,-1792,-1635,-574,1548,1953
507,318,-190,-416,347,61,-1347,-1600,-1461,-508,1386,1785
435,246,-184,-338,305,31,-1179,-1408,-1299,-496,1140,1515
357,180,-178,-266,263,8,-1011,-1222,-1143,-478,894,1251
279,108,-172,-194,221,-22,-843,-1024,-987,-460,648,981
207,36,-166,-122,185,-58,-681,-838,-825,-442,402,717
153,6,-142,-80,149,-58,-555,-706,-705,-412,294,567
105,-5,-118,-44,107,-58,-441,-568,-585,-382,186,417
51,-35,-94,-2,71,-64,-315,-436,-465,-352,84,261
3,-59,-70,21,35,-64,-201,-298,-345,-322,-24,111
-15,-65,-52,33,11,-58,-147,-220,-267,-268,-30,69
-26,-65,-34,45,-7,-52,-93,-142,-201,-220,-36,33
-50,-71,-16,57,-19,-46,-39,-58,-123,-166,-42,-9
-68,-71,2,69,-30,-34,2,7,-51,-112,-48,-32
-74,-89,-10,81,-30,-52,44,43,-22,-94,-54,-56
-80,-107,-22,93,-24,-64,86,79,2,-76,-60,-74
-86,-125,-34,105,-24,-82,128,115,38,-58,-66,-98
-92,-143,-46,117,-19,-94,170,151,68,-40,-66,-116
-98,-149,-46,123,-24,-100,182,169,86,-40,-77,-128
-104,-149,-40,123,-30,-94,188,187,104,-40,-89,-134
-110,-155,-40,129,-30,-100,200,205,122,-40,-107,-146
-116,-155,-34,135,-36,-94,206,223,140,-40,-119,-152
-122,-155,-28,135,-42,-94,218,229,152,-34,-125,-164
-122,-155,-28,135,-42,-94,224,241,158,-28,-131,-176
-128,-155,-22,141,-48,-88,236,253,170,-23,-137,-188
-128,-155,-22,141,-48,-88,236,265,176,-23,-143,-200
-134,-155,-16,141,-54,-88,254,277,188,-23,-143,-206
-134,-155,-16,141,-54,-88,266,289,200,-17,-143,-206
-140,-155,-10,147,-60,-82,284,301,212,-11,-143,-212
-140,-155,-10,147,-60,-82,296,313,218,-5,-143,-212
-140,-155,-10,147,-60,-82,302,325,230,1,-143,-212
-140,-155,-10,147,-60,-82,308,337,236,1,-143,-212
-140,-155,-10,147,-60,-82,314,349,248,7,-143,-212
-140,-155,-10,147,-60,-82,320,361,254,7,-143,-212
-140,-155,-10,147,-60,-82,332,367,266,19,-149,-218
-140,-155,-10,147,-60,-82,338,373,272,25,-149,-218
-140,-155,-10,147,-60,-82,350,379,284,37,-155,-224
-140,-155,-10,147,-60,-82,356,385,290,43,-155,-224
-140,-155,-10,147,-60,-82,362,403,302,55,-149,-224
-140,-155,-10,147,-60,-82,368,415,308,61,-149,-224
-140,-155,-10,147,-60,-82,374,433,320,73,-143,-224
-140,-155,-10,147,-60,-82,380,445,326,79,-143,-224
-140,-149,-4,141,-66,-76,386,457,338,91,-143,-230
-140,-149,-4,141,-66,-76,392,469,350,97,-143,-230
-140,-143,2,141,-66,-70,398,475,362,109,-143,-236
-140,-143,2,141,-66,-70,404,487,374,115,-143,-236
-140,-143,2,141,-66,-70,416,505,392,121,-137,-230
-140,-143,2,141,-66,-70,422,517,404,127,-137,-230
-140,-143,2,141,-66,-70,434,535,422,133,-131,-224
-140,-143,2,141,-66,-70,440,547,434,139,-131,-224
-140,-137,8,135,-72,-64,452,565,452,151,-131,-224
-140,-131,14,135,-72,-58,464,583,464,163,-131,-224
-140,-125,19,129,-78,-52,476,601,476,175,-131,-224
-140,-119,19,129,-78,-46,482,619,488,187,-131,-224
-140,-113,19,123,-84,-40,494,637,506,199,-125,-224
-140,-113,19,123,-84,-40,500,655,518,205,-125,-224
-140,-107,25,123,-84,-34,512,673,536,217,-119,-224
-140,-107,25,123,-84,-34,518,691,548,217,-119,-224
-146,-107,31,123,-90,-34,530,715,572,229,-113,-218
-146,-107,31,123,-90,-34,542,727,590,235,-113,-218
-152,-107,37,129,-96,-28,554,751,614,247,-107,-212
-152,-107,37,129,-96,-28,566,769,632,253,-107,-212
-152,-101,43,123,-102,-22,578,793,650,271,-101,-212
-152,-101,43,123,-102,-22,590,811,662,283,-95,-212
-152,-95,49,123,-102,-16,602,835,680,301,-89,-212
-152,-95,49,123,-102,-16,614,853,692,313,-83,-212
-146,-89,49,117,-102,-16,626,871,710,325,-77,-206
-146,-83,55,111,-102,-10,632,889,728,331,-77,-206
-140,-77,55,105,-102,-4,644,907,752,343,-71,-200
-140,-71,61,105,-102,2,650,925,770,349,-71,-200
-146,-65,73,105,-114,8,662,943,788,367,-66,-194
-146,-59,79,99,-114,13,668,955,806,379,-66,-194
-152,-53,91,99,-126,13,680,967,824,397,-66,-188
-152,-47,97,99,-126,19,686,979,842,409,-60,-188
-152,-41,103,93,-132,25,692,991,860,427,-48,-182
-152,-35,109,93,-132,31,698,1003,872,439,-36,-182
-152,-29,115,87,-138,37,704,1015,890,457,-24,-176
-152,-23,121,87,-138,43,710,1027,902,463,-12,-176
-146,-17,121,81,-138,43,710,1045,926,481,-6,-170
-146,-11,127,75,-138,49,710,1057,944,493,0,-164
-140,-5,127,69,-138,55,710,1075,962,511,6,-158
-140,1,133,69,-138,61,710,1087,980,523,12,-152
-134,6,133,63,-138,61,710,1093,992,547,30,-146
-134,6,139,57,-138,67,710,1099,1004,571,42,-140
-128,6,139,51,-132,73,710,1105,1016,595,60,-134
-128,12,145,51,-138,79,710,1111,1028,619,72,-128
-122,18,145,45,-132,79,704,1117,1040,631,84,-116
-122,24,151,39,-138,85,698,1117,1046,643,90,-110
-116,30,151,33,-132,91,692,1123,1058,655,102,-98
-116,36,157,33,-138,97,686,1123,1064,667,108,-92
-110,42,157,27,-132,97,674,1111,1070,679,120,-80
-110,48,163,21,-138,103,668,1105,1070,691,132,-74
-104,54,163,15,-132,109,656,1093,1076,703,144,-62
-104,60,169,15,-138,115,650,1087,1076,709,156,-56
-98,66,169,9,-132,115,632,1069,1070,715,168,-50
-98,66,169,9,-132,115,614,1057,1064,721,174,-44
-92,72,169,3,-132,121,596,1039,1058,727,180,-38
-92,72,169,3,-132,121,578,1027,1052,733,186,-32
-86,72,163,3,-126,115,560,1003,1040,733,198,-20
-86,72,163,3,-126,115,542,979,1028,733,204,-15
-80,72,157,3,-120,115,524,961,1016,733,216,-15
-80,72,157,3,-120,115,506,937,1004,733,222,-9
-74,78,157,3,-114,115,482,907,980,727,228,3
-68,78,151,3,-108,115,464,883,956,721,234,15
-62,84,151,-2,-108,115,440,853,938,715,240,27
-56,84,145,-8,-102,115,416,829,914,709,246,39
-50,90,145,-14,-96,115,392,793,884,703,258,51
-44,90,139,-14,-90,115,368,757,860,691,264,63
-38,96,139,-20,-90,115,344,721,830,679,276,75
-32,96,133,-26,-84,115,320,691,806,667,282,87
-26,96,127,-26,-78,109,296,649,764,643,282,93
-26,96,127,-26,-78,109,272,607,722,625,282,99
-20,96,121,-32,-72,109,248,565,686,601,282,105
-20,96,121,-32,-72,109,230,523,644,583,282,111
-15,96,115,-32,-66,103,206,475,596,547,276,117
-15,96,115,-32,-66,103,182,439,548,511,276,123
-15,96,109,-38,-60,103,158,391,500,475,270,129
-15,96,109,-38,-60,103,134,349,458,445,270,135
-15,90,103,-32,-54,97,116,307,410,409,252,129
-15,84,97,-32,-54,91,98,265,368,373,240,129
-15,78,91,-26,-48,85,80,229,320,337,222,123
-15,72,85,-26,-48,79,62,187,278,301,210,123
-15,66,85,-20,-48,73,44,157,236,265,198,111
-15,60,79,-14,-48,67,32,127,206,235,186,105
-20,54,79,-8,-48,67,14,97,164,205,174,93
-20,48,73,-8,-48,61,2,67,128,175,168,87
-26,36,67,3,-48,49,-4,43,104,151,150,75
-26,30,61,3,-42,43,-4,25,80,127,138,69
-32,18,55,3,-42,37,-4,1,56,103,120,57
-32,12,49,3,-42,31,-9,-11,32,79,108,51
-32,6,43,3,-36,25,-15,-22,8,61,96,45
-32,6,43,3,-36,25,-21,-34,-10,43,84,39
-32,6,37,9,-36,19,-27,-52,-22,25,72,33
-32,6,37,9,-36,19,-33,-64,-39,7,60,27
-38,6,37,15,-42,13,-39,-76,-51,-11,48,15
-38,6,37,15,-42,13,-39,-82,-63,-23,42,9
-44,1,37,21,-42,13,-45,-94,-75,-28,30,-3
-44,1,37,21,-42,13,-45,-100,-87,-40,24,-9
-50,-5,37,27,-48,13,-39,-106,-93,-46,18,-15
-50,-11,31,27,-42,13,-39,-106,-99,-52,12,-15
-56,-17,31,33,-48,13,-33,-112,-105,-58,6,-15
-56,-23,25,39,-42,8,-33,-112,-111,-64,0,-15
-50,-23,19,33,-36,2,-39,-118,-117,-70,-6,-15
-50,-23,19,33,-36,2,-39,-118,-123,-70,-6,-15
-44,-23,19,33,-30,2,-45,-124,-129,-76,-12,-20
-44,-23,19,33,-30,2,-45,-124,-135,-76,-12,-20
-50,-23,19,33,-36,2,-45,-130,-135,-82,-18,-26
-50,-23,19,33,-36,2,-45,-130,-135,-82,-18,-26
-56,-23,25,39,-42,8,-45,-136,-135,-88,-24,-32
-56,-23,25,39,-42,8,-45,-136,-135,-88,-24,-32
-56,-29,19,39,-42,2,-39,-136,-141,-88,-24,-32
-56,-29,19,39,-42,2,-39,-136,-141,-88,-24,-32
-56,-35,19,45,-36,-4,-33,-136,-147,-88,-24,-32
-56,-35,19,45,-36,-4,-33,-136,-147,-88,-24,-32
-50,-29,19,39,-36,-4,-39,-136,-153,-88,-30,-38
-50,-29,19,39,-36,-4,-39,-136,-153,-88,-30,-38
-44,-23,19,33,-30,2,-45,-136,-159,-88,-36,-44
-44,-23,19,33,-30,2,-45,-136,-159,-88,-36,-44
-44,-23,19,33,-30,2,-45,-136,-159,-88,-30,-44
-44,-23,19,33,-30,2,-45,-136,-159,-88,-30,-44
-44,-23,19,33,-30,2,-45,-136,-159,-88,-24,-44
-44,-23,19,33,-30,2,-45,-136,-159,-88,-24,-44
-50,-23,19,33,-36,2,-39,-136,-159,-82,-24,-38
-50,-23,19,33,-36,2,-39,-136,-159,-82,-24,-38
-56,-23,25,39,-42,8,-33,-136,-159,-76,-24,-32
-56,-23,25,39,-42,8,-33,-136,-159,-76,-24,-32
-50,-23,19,33,-36,2,-33,-136,-153,-76,-18,-32
-50,-23,19,33,-36,2,-33,-136,-153,-76,-18,-32
-44,-23,19,33,-30,2,-33,-136,-147,-76,-12,-32
-44,-23,19,33,-30,2,-33,-136,-147,-76,-12,-32
-44,-23,19,33,-30,2,-27,-130,-147,-76,-12,-32
-44,-23,19,33,-30,2,-27,-130,-147,-76,-12,-32
-44,-23,19,33,-30,2,-21,-124,-147,-76,-12,-32
-44,-23,19,33,-30,2,-21,-124,-147,-76,-12,-32
-50,-17,25,33,-42,8,-21,-124,-141,-76,-12,-32
-50,-17,25,33,-42,8,-21,-124,-141,-76,-12,-32
-56,-11,37,33,-48,13,-21,-124,-135,-76,-12,-32
-56,-11,37,33,-48,13,-21,-124,-135,-76,-12,-32
-50,-11,31,27,-42,13,-21,-118,-135,-76,-12,-32
-50,-11,31,27,-42,13,-21,-118,-135,-76,-12,-32
-44,-11,25,27,-36,13,-21,-112,-135,-76,-12,-32
-44,-11,25,27,-36,13,-21,-112,-135,-76,-12,-32
-50,-11,31,27,-42,13,-15,-106,-135,-76,-12,-32
-50,-11,31,27,-42,13,-15,-106,-135,-76,-12,-32
-56,-11,37,33,-48,13,-9,-100,-135,-76,-12,-32
-56,-11,37,33,-48,13,-9,-100,-135,-76,-12,-32
-56,-17,31,33,-48,13,-9,-100,-135,-82,-12,-38
-56,-17,31,33,-48,13,-9,-100,-135,-82,-12,-38
-56,-23,25,39,-42,8,-9,-100,-135,-88,-12,-44
-56,-23,25,39,-42,8,-9,-100,-135,-88,-12,-44
-56,-17,31,33,-48,13,-4,-100,-129,-88,-18,-44
-56,-17,31,33,-48,13,-4,-100,-129,-88,-18,-44
-56,-11,37,33,-48,13,-4,-100,-123,-88,-24,-44
-56,-11,37,33,-48,13,-4,-100,-123,-88,-24,-44
-50,-11,31,27,-42,13,-4,-100,-123,-88,-24,-50
-50,-11,31,27,-42,13,-4,-100,-123,-88,-24,-50
-44,-11,25,27,-36,13,-4,-100,-123,-88,-24,-56
-44,-11,25,27,-36,13,-4,-100,-123,-88,-24,-56
-50,-11,31,27,-42,13,-4,-100,-123,-88,-24,-56
-50,-11,31,27,-42,13,-4,-100,-123,-88,-24,-56
-56,-11,37,33,-48,13,2,-100,-123,-88,-24,-56
-56,-11,37,33,-48,13,2,-100,-123,-88,-24,-56
-56,-11,37,33,-48,13,-4,-100,-123,-88,-24,-56
-56,-11,37,33,-48,13,-4,-100,-123,-88,-24,-56
-56,-11,37,33,-48,13,-4,-100,-123,-88,-24,-56
-56,-11,37,33,-48,13,-4,-100,-123,-88,-24,-56
-50,-11,31,27,-42,13,-4,-100,-123,-88,-30,-56
-50,-11,31,27,-42,13,-4,-100,-123,-88,-30,-56
-44,-11,25,27,-36,13,-4,-100,-123,-88,-36,-56
-44,-11,25,27,-36,13,-4,-100,-123,-88,-36,-56
-50,-17,25,33,-42,8,-4,-100,-117,-88,-36,-56
-50,-17,25,33,-42,8,-4,-100,-117,-88,-36,-56
-56,-23,25,39,-42,8,-4,-100,-111,-88,-36,-56
-56,-23,25,39,-42,8,-4,-100,-111,-88,-36,-56
-56,-23,25,39,-42,8,-4,-100,-117,-94,-36,-62
-56,-23,25,39,-42,8,-4,-100,-117,-94,-36,-62
-56,-23,25,39,-42,8,-4,-100,-123,-100,-36,-68
-56,-23,25,39,-42,8,-4,-100,-123,-100,-36,-68
-56,-23,25,39,-42,8,-4,-106,-129,-106,-42,-74
-56,-23,25,39,-42,8,-4,-106,-129,-106,-42,-74
-56,-23,25,39,-42,8,-4,-112,-135,-112,-48,-80
-56,-23,25,39,-42,8,-4,-112,-135,-112,-48,-80
-56,-29,19,39,-42,2,-4,-112,-141,-118,-48,-80
-56,-29,19,39,-42,2,-4,-112,-141,-118,-48,-80
-56,-35,19,45,-36,-4,-9,-112,-147,-124,-48,-80
-56,-35,19,45,-36,-4,-9,-112,-147,-124,-48,-80
-56,-29,19,39,-42,2,-9,-118,-147,-124,-48,-86
-56,-29,19,39,-42,2,-9,-118,-147,-124,-48,-86
-56,-23,25,39,-42,8,-9,-124,-147,-124,-48,-92
-56,-23,25,39,-42,8,-9,-124,-147,-124,-48,-92
-56,-23,25,39,-42,8,-15,-124,-153,-130,-54,-98
-56,-23,25,39,-42,8,-15,-124,-153,-130,-54,-98
-56,-23,25,39,-42,8,-21,-124,-159,-136,-60,-104
-56,-23,25,39,-42,8,-21,-124,-159,-136,-60,-104
-56,-29,19,39,-42,2,-21,-124,-159,-136,-60,-104
-56,-29,19,39,-42,2,-21,-124,-159,-136,-60,-104
-56,-35,19,45,-36,-4,-21,-124,-159,-136,-60,-104
-56,-35,19,45,-36,-4,-21,-124,-159,-136,-60,-104
-56,-35,19,45,-36,-4,-27,-130,-165,-142,-60,-104
-56,-35,19,45,-36,-4,-27,-130,-165,-142,-60,-104
-56,-35,19,45,-36,-4,-33,-136,-171,-148,-60,-104
-56,-35,19,45,-36,-4,-33,-136,-171,-148,-60,-104
-56,-35,19,45,-36,-4,-33,-136,-177,-148,-54,-104
-56,-35,19,45,-36,-4,-33,-136,-177,-148,-54,-104
-56,-35,19,45,-36,-4,-33,-136,-183,-148,-48,-104
-56,-35,19,45,-36,-4,-33,-136,-183,-148,-48,-104
-56,-35,19,45,-36,-4,-33,-136,-183,-148,-54,-110
-56,-35,19,45,-36,-4,-33,-136,-183,-148,-54,-110
-56,-35,19,45,-36,-4,-33,-136,-183,-148,-60,-116
-56,-35,19,45,-36,-4,-33,-136,-183,-148,-60,-116
-56,-41,19,45,-36,-10,-33,-136,-183,-154,-66,-116
-56,-41,19,45,-36,-10,-33,-136,-183,-154,-66,-116
-56,-47,14,51,-30,-16,-33,-136,-183,-160,-66,-116
-56,-47,14,51,-30,-16,-33,-136,-183,-160,-66,-116
-56,-47,14,51,-30,-16,-33,-136,-189,-160,-66,-116
-56,-47,14,51,-30,-16,-33,-136,-189,-160,-66,-116
-56,-47,14,51,-30,-16,-33,-136,-195,-160,-60,-116
-56,-47,14,51,-30,-16,-33,-136,-195,-160,-60,-116
-56,-47,14,51,-30,-16,-33,-142,-195,-166,-66,-116
-56,-47,14,51,-30,-16,-33,-142,-195,-166,-66,-116
-56,-47,14,51,-30,-16,-33,-148,-195,-172,-66,-116
-56,-47,14,51,-30,-16,-33,-148,-195,-172,-66,-116
-56,-47,14,51,-30,-16,-33,-148,-201,-172,-66,-122
-56,-47,14,51,-30,-16,-33,-148,-201,-172,-66,-122
-56,-47,14,51,-30,-16,-33,-148,-207,-172,-71,-128
-56,-47,14,51,-30,-16,-33,-148,-207,-172,-71,-128
-56,-47,14,51,-30,-16,-27,-142,-201,-172,-71,-128
-56,-47,14,51,-30,-16,-27,-142,-201,-172,-71,-128
-56,-53,8,51,-30,-22,-21,-136,-195,-172,-71,-128
-56,-53,8,51,-30,-22,-21,-136,-195,-166,-71,-128
-56,-53,8,51,-30,-22,-21,-136,-195,-172,-77,-134
-56,-53,8,51,-30,-22,-21,-136,-195,-178,-77,-134
-56,-53,8,51,-30,-22,-21,-136,-195,-184,-83,-140
-56,-53,8,51,-30,-22,-21,-136,-195,-184,-83,-146
-56,-47,14,51,-30,-16,-21,-142,-201,-184,-89,-146
-56,-47,14,51,-30,-16,-21,-142,-201,-184,-89,-146
-56,-47,14,51,-30,-16,-21,-148,-201,-184,-89,-146
-56,-47,14,51,-30,-16,-21,-148,-201,-184,-83,-146
-56,-47,14,51,-30,-16,-15,-148,-201,-184,-83,-140
-56,-47,14,51,-30,-16,-15,-148,-201,-184,-83,-140
-56,-47,14,51,-30,-16,-9,-142,-195,-184,-83,-128
-56,-47,14,51,-30,-16,-9,-142,-195,-178,-83,-128
-56,-53,8,51,-30,-22,-9,-142,-195,-172,-83,-134
-50,-41,14,45,-30,-16,-4,-130,-189,-172,-77,-134
-50,-41,14,45,-30,-16,-4,-124,-177,-172,-66,-140
-50,-41,14,45,-30,-16,-4,-118,-171,-160,-66,-128
-44,-29,19,33,-30,-4,-4,-106,-159,-154,-66,-128
-44,-17,19,27,-36,8,2,-106,-153,-148,-66,-128
-44,-5,31,21,-42,13,8,-100,-147,-142,-66,-116
-44,6,43,15,-48,19,14,-100,-141,-136,-66,-110
-44,6,49,15,-48,25,8,-94,-141,-136,-66,-110
-38,6,49,9,-42,25,8,-94,-141,-124,-66,-110
-38,6,49,9,-42,25,2,-94,-141,-124,-60,-110
-38,6,49,9,-42,25,2,-94,-135,-124,-60,-104
-44,6,55,9,-48,31,2,-100,-141,-130,-60,-104
-44,12,61,9,-54,37,2,-100,-141,-130,-66,-104
-50,12,67,9,-60,37,2,-106,-147,-142,-66,-104
-50,12,67,9,-60,37,-4,-112,-153,-142,-66,-104
-50,18,73,9,-60,43,-15,-124,-165,-142,-66,-104
-50,24,79,3,-66,49,-21,-124,-153,-136,-66,-92
-50,30,85,3,-66,55,-21,-124,-141,-124,-66,-86
-50,36,91,3,-72,61,-21,-124,-135,-112,-60,-80
-44,36,85,3,-66,61,-27,-124,-141,-112,-54,-80
-32,36,73,3,-54,55,-27,-118,-135,-112,-54,-74
-26,36,67,3,-48,49,-33,-106,-135,-112,-48,-80
-26,36,67,3,-48,49,-27,-100,-129,-106,-42,-74
-20,36,61,-2,-42,49,-27,-82,-117,-94,-36,-62
-15,42,61,-8,-36,49,-27,-70,-99,-76,-30,-56
-15,42,61,-8,-36,49,-15,-58,-81,-70,-18,-44
-15,42,55,-8,-30,49,-9,-52,-69,-58,-12,-44
-15,42,49,-14,-24,49,-9,-46,-69,-58,-12,-44
-15,42,49,-14,-24,49,-9,-52,-69,-58,-12,-38
-9,42,43,-14,-19,43,-9,-46,-69,-58,-12,-38
-9,42,43,-14,-19,43,-9,-46,-69,-52,-6,-38
-9,42,43,-14,-19,43,-9,-34,-57,-52,0,-32
-3,42,37,-20,-19,43,-4,-28,-45,-34,6,-26
-3,42,37,-20,-19,43,-4,-11,-27,-28,12,-26
-3,42,37,-20,-19,43,-4,-11,-22,-28,12,-26
-3,48,43,-20,-19,49,-4,13,-22,-17,12,-26
-15,36,43,-8,-24,43,2,19,-16,-23,0,-26
-15,36,43,-8,-24,43,32,31,-10,-23,0,-26
-15,42,49,-14,-24,49,80,67,8,-23,6,-32
-15,30,43,-2,-24,37,158,127,44,-17,0,-38
-15,12,31,3,-24,19,236,181,68,-17,-18,-56
-32,1,25,15,-30,13,302,229,86,-28,-36,-80
-38,-17,19,27,-30,2,368,277,98,-34,-66,-116
-44,-35,14,39,-24,-10,440,355,128,-34,-77,-152
-44,-41,8,39,-24,-16,476,421,164,-23,-77,-152
-38,-41,2,39,-19,-22,452,457,194,-17,-66,-158
-38,-59,-16,45,-19,-40,428,475,212,-23,-77,-158
-38,-65,-22,51,-19,-46,440,583,266,-5,-66,-152
-26,-71,-40,45,-1,-58,446,733,380,31,-60,-146
-15,-59,-46,33,11,-52,422,829,452,67,-42,-134
3,-53,-64,15,29,-58,368,883,500,115,-24,-128
27,-77,-112,15,65,-94,248,901,512,121,-18,-116
45,-77,-130,9,83,-100,146,907,524,133,-12,-104
69,-65,-142,3,101,-100,92,955,566,169,12,-86
87,-65,-160,-2,119,-112,62,997,626,211,48,-62
105,-53,-166,-20,131,-106,14,1009,644,235,84,-38
117,-53,-178,-26,143,-112,-21,1021,680,277,108,-15
141,-47,-196,-38,167,-118,-99,979,674,295,150,9
159,-29,-196,-56,173,-112,-237,799,608,295,174,39
165,-5,-178,-74,167,-88,-333,571,512,283,186,57
165,6,-154,-86,161,-64,-417,349,386,277,204,75
189,30,-154,-110,173,-52,-561,109,260,289,240,111
213,66,-142,-140,179,-28,-741,-148,104,271,294,183
219,108,-106,-164,161,8,-897,-418,-93,211,330,225
225,126,-100,-176,167,13,-999,-634,-303,133,342,267
225,150,-70,-188,149,37,-1083,-784,-411,115,390,309
225,204,-22,-218,125,85,-1167,-922,-453,157,474,387
255,246,-4,-248,131,121,-1257,-1066,-531,199,564,477
279,270,-4,-272,143,133,-1359,-1246,-639,193,624,555
309,288,-16,-296,167,133,-1473,-1414,-753,157,666,609
333,288,-40,-308,191,121,-1599,-1624,-909,127,714,681
369,288,-76,-326,221,103,-1791,-1960,-1191,49,774,765
393,288,-100,-338,245,91,-2001,-2356,-1569,-130,786,837
423,282,-136,-350,275,73,-2199,-2733,-2001,-400,780,915
447,294,-148,-368,293,73,-2379,-3087,-2415,-646,822,1017
483,348,-136,-416,311,103,-2540,-3357,-2702,-814,918,1161
525,408,-118,-470,323,145,-2624,-3495,-2888,-964,984,1293
555,450,-106,-500,329,169,-2600,-3495,-2972,-1132,966,1347
573,492,-82,-530,329,205,-2504,-3369,-2942,-1234,954,1383
609,522,-82,-566,347,223,-2421,-3201,-2834,-1276,972,1449
669,516,-148,-590,407,187,-2379,-3075,-2780,-1324,1014,1545
735,504,-226,-620,479,139,-2349,-2937,-2720,-1360,1074,1647
813,516,-292,-668,551,109,-2337,-2835,-2672,-1360,1164,1779
849,552,-292,-704,569,127,-2307,-2781,-2624,-1300,1296,1935
885,576,-304,-728,593,133,-2265,-2733,-2570,-1240,1440,2072
885,588,-292,-734,587,145,-2205,-2673,-2516,-1162,1596,2204
867,606,-256,-734,563,175,-2145,-2613,-2433,-1042,1746,2312
843,654,-190,-746,515,235,-2061,-2559,-2367,-940,1866,2390
813,690,-124,-746,467,277,-1971,-2499,-2295,-856,1914,2390
747,702,-46,-728,401,325,-1845,-2374,-2175,-784,1848,2300
681,660,-16,-668,347,319,-1677,-2140,-1953,-676,1668,2114
615,564,-46,-590,329,253,-1473,-1834,-1659,-556,1410,1863
555,444,-112,-494,335,163,-1263,-1522,-1383,-508,1098,1569
477,318,-160,-398,317,79,-1077,-1276,-1185,-496,774,1239
405,234,-172,-314,287,25,-903,-1096,-1041,-484,546,969
297,192,-106,-242,203,37,-735,-958,-933,-496,360,759
201,162,-34,-182,119,61,-573,-784,-807,-496,192,549
147,120,-22,-134,83,43,-429,-616,-681,-490,42,339
111,84,-22,-98,65,25,-321,-490,-567,-478,-71,171
69,54,-10,-62,41,19,-231,-358,-465,-442,-143,39
33,30,2,-32,17,13,-129,-238,-327,-358,-161,-15
9,42,25,-26,-13,37,-75,-142,-231,-286,-167,-32
-9,42,43,-14,-19,43,-33,-76,-171,-244,-179,-56
-20,36,61,-2,-42,49,8,-16,-117,-214,-197,-86
-44,6,55,9,-48,31,56,37,-75,-178,-215,-122
-68,-17,43,39,-60,13,122,97,-22,-142,-221,-146
-74,-47,19,57,-48,-10,170,139,8,-130,-245,-164
-74,-65,14,69,-42,-28,206,169,20,-130,-263,-182
-68,-71,2,69,-30,-34,224,181,44,-130,-275,-200
-68,-71,2,69,-30,-34,224,205,62,-130,-293,-206
-74,-71,8,69,-36,-34,224,217,74,-130,-305,-212
-80,-71,14,75,-42,-28,218,223,86,-124,-317,-230
-86,-59,19,69,-54,-16,224,229,92,-124,-335,-242
-86,-59,19,69,-54,-16,230,235,104,-124,-353,-254
-92,-53,31,69,-66,-4,242,241,104,-118,-359,-260
-92,-59,25,75,-60,-10,248,259,110,-112,-365,-266
-98,-71,19,81,-60,-22,266,283,134,-106,-371,-284
-98,-77,19,87,-60,-28,278,301,152,-100,-371,-284
-104,-83,19,93,-60,-28,296,319,170,-94,-371,-290
-104,-89,19,93,-60,-34,302,331,188,-88,-371,-290
-110,-89,19,99,-66,-34,308,337,194,-82,-377,-290
-110,-89,19,99,-66,-34,314,343,194,-82,-377,-290
-110,-89,19,99,-66,-34,320,355,206,-82,-383,-290
-110,-89,19,99,-66,-34,326,361,218,-82,-383,-296
-110,-89,19,99,-66,-34,332,373,218,-82,-389,-296
-110,-89,19,99,-66,-34,344,385,224,-70,-389,-296
-110,-89,19,99,-66,-34,356,397,230,-70,-395,-290
-110,-89,19,99,-66,-34,362,415,236,-58,-395,-296
-116,-89,19,99,-72,-28,368,427,254,-52,-395,-302
-116,-83,25,99,-72,-22,380,439,260,-46,-401,-302
-116,-83,25,99,-72,-22,386,445,272,-34,-401,-308
-116,-83,25,99,-72,-22,392,451,284,-34,-401,-308
-122,-83,31,99,-78,-22,392,469,296,-40,-401,-314
-122,-83,31,99,-78,-22,404,475,302,-34,-401,-314
-128,-77,43,99,-90,-10,410,493,308,-34,-395,-320
-128,-77,43,99,-90,-10,416,499,326,-28,-395,-320
-122,-77,37,99,-84,-16,428,517,338,-23,-401,-320
-122,-77,37,99,-84,-16,440,541,350,-23,-401,-326
-116,-77,31,93,-78,-16,452,571,362,-11,-401,-326
-116,-77,31,93,-78,-16,464,583,380,-5,-401,-326
-116,-65,43,87,-84,-4,476,595,392,1,-407,-326
-116,-65,43,87,-84,-4,482,601,410,7,-407,-326
-116,-59,49,87,-84,2,488,613,422,19,-407,-326
-116,-53,55,81,-90,8,500,631,434,25,-401,-326
-116,-47,61,81,-90,13,500,655,446,31,-407,-320
-116,-47,61,81,-90,13,512,673,458,37,-413,-320
-116,-47,61,81,-90,13,530,697,476,49,-413,-320
-116,-47,61,81,-90,13,542,721,488,61,-419,-320
-116,-47,61,81,-90,13,554,733,512,79,-419,-320
-116,-47,61,81,-90,13,566,751,536,85,-413,-326
-116,-41,67,75,-96,13,578,769,560,103,-413,-326
-116,-35,73,75,-96,13,584,787,584,121,-407,-326
-122,-35,79,75,-102,13,602,811,596,127,-401,-326
-122,-23,91,69,-108,25,608,823,614,133,-395,-320
-122,-17,97,69,-114,31,626,847,632,145,-395,-326
-122,-11,103,63,-114,37,644,865,650,157,-389,-326
-122,-11,103,63,-114,37,656,889,674,169,-383,-326
-122,-11,103,63,-114,37,668,913,692,175,-377,-320
-122,1,115,57,-120,49,674,937,710,187,-371,-320
-122,6,121,57,-126,55,680,961,722,205,-365,-320
-128,6,133,57,-132,67,686,967,740,217,-365,-320
-128,6,139,51,-132,73,692,973,758,229,-359,-314
-134,12,151,51,-144,79,704,985,776,247,-359,-314
-134,12,151,51,-144,79,710,997,788,259,-353,-308
-134,12,151,51,-144,79,716,1015,800,271,-341,-308
-128,18,151,45,-138,85,728,1027,824,283,-335,-302
-128,24,157,45,-144,91,728,1045,848,295,-323,-302
-128,30,163,39,-144,97,728,1063,866,313,-323,-302
-128,36,169,39,-150,103,728,1075,884,343,-317,-302
-128,42,175,33,-150,109,734,1093,902,355,-311,-284
-128,48,181,33,-156,115,740,1105,926,379,-299,-284
-128,54,187,27,-156,121,740,1117,944,403,-287,-284
-122,60,187,21,-156,121,740,1135,956,421,-287,-278
-116,60,181,21,-150,121,740,1135,974,433,-269,-272
-110,72,187,9,-150,127,740,1147,986,445,-269,-266
-110,84,199,3,-156,139,740,1153,998,463,-257,-260
-104,78,187,3,-144,133,740,1165,1016,475,-239,-254
-104,84,193,3,-150,139,728,1171,1028,493,-233,-254
-110,84,199,3,-156,139,728,1183,1046,517,-227,-242
-110,90,205,3,-156,145,728,1183,1058,535,-215,-230
-104,102,211,3,-156,157,716,1177,1058,547,-203,-218
-98,102,205,3,-150,151,710,1177,1064,565,-191,-212
-92,114,211,-2,-150,163,686,1159,1064,571,-179,-206
-86,120,211,-8,-150,163,680,1153,1064,583,-161,-200
-80,120,205,-14,-144,163,662,1147,1064,583,-161,-194
-80,126,211,-14,-144,169,650,1123,1070,583,-149,-188
-80,120,205,-14,-144,163,620,1111,1070,589,-143,-176
-80,126,211,-14,-144,169,602,1093,1052,589,-137,-158
-74,126,205,-20,-138,163,584,1075,1046,589,-131,-152
-74,126,205,-20,-138,163,566,1057,1034,595,-125,-146
-56,126,187,-26,-120,157,560,1045,1028,601,-119,-134
-50,126,181,-32,-114,151,542,1021,1016,607,-113,-128
-44,138,187,-38,-114,163,518,997,998,607,-101,-116
-38,138,181,-44,-108,157,500,979,980,607,-95,-104
-38,144,187,-44,-114,163,482,949,962,601,-83,-98
-38,138,181,-44,-108,157,464,919,950,601,-77,-86
-32,138,175,-44,-102,157,440,883,920,595,-71,-74
-20,138,163,-50,-90,151,416,853,896,589,-66,-62
-15,138,151,-56,-78,145,386,799,878,589,-66,-56
-15,144,151,-62,-78,151,362,763,842,571,-66,-50
-15,144,151,-62,-78,151,338,727,806,559,-60,-26
-9,144,145,-68,-72,145,314,691,776,541,-54,-20
-3,150,145,-74,-66,151,290,649,728,517,-48,-15
-3,150,145,-74,-66,151,266,607,686,493,-48,-15
-3,150,145,-74,-66,151,236,547,632,463,-48,-9
-3,156,151,-74,-72,157,218,505,590,445,-54,-3
3,156,145,-80,-66,151,182,463,536,409,-60,3
3,156,145,-80,-66,151,158,421,494,379,-66,9
3,150,139,-74,-60,145,146,361,452,349,-66,9
9,144,127,-74,-54,139,116,313,392,307,-66,9
9,144,127,-74,-54,139,104,271,344,277,-66,15
9,132,115,-68,-48,127,86,235,296,253,-71,15
9,132,115,-68,-48,127,68,199,248,211,-89,9
3,126,115,-62,-48,121,62,169,212,175,-107,9
3,126,115,-62,-48,121,38,127,170,139,-125,-3
3,126,115,-62,-48,121,20,103,128,115,-143,-15
3,120,109,-62,-48,115,14,67,92,85,-155,-15
3,114,103,-56,-42,109,2,37,62,61,-167,-20
-9,108,109,-50,-54,109,-4,13,32,25,-173,-38
-9,102,103,-44,-48,103,-4,-11,2,1,-179,-44
-9,96,97,-44,-48,97,-4,-16,-22,-17,-191,-50
-9,90,91,-38,-42,91,-9,-34,-27,-23,-209,-44
-9,84,85,-38,-42,85,-15,-46,-45,-40,-227,-44
-15,72,79,-26,-42,79,-21,-52,-57,-46,-239,-44
-15,66,73,-26,-36,73,-21,-64,-81,-64,-251,-56
-15,60,73,-20,-42,67,-21,-76,-99,-82,-263,-68
-15,60,73,-20,-42,67,-27,-88,-117,-100,-275,-80
-15,54,67,-14,-36,61,-27,-100,-123,-106,-275,-98
-15,54,67,-14,-36,61,-27,-106,-135,-112,-281,-98
-15,54,73,-14,-42,61,-27,-106,-141,-118,-287,-104
-20,48,73,-8,-48,61,-27,-118,-135,-124,-287,-110
-20,48,73,-8,-48,61,-27,-124,-147,-130,-293,-110
-20,48,73,-8,-48,61,-27,-124,-159,-136,-299,-116
-20,42,67,-2,-42,55,-27,-124,-165,-142,-305,-122
-20,42,67,-2,-42,55,-33,-124,-177,-148,-299,-128
-20,42,67,-2,-42,55,-33,-124,-177,-148,-305,-128
-15,42,61,-8,-36,49,-33,-130,-183,-154,-305,-128
-15,42,61,-8,-36,49,-33,-130,-183,-160,-305,-128
-15,42,61,-8,-36,49,-33,-136,-189,-160,-311,-128
-15,42,61,-8,-36,49,-33,-142,-189,-160,-317,-128
-20,42,67,-2,-42,55,-33,-148,-189,-160,-311,-128
-20,36,61,-2,-42,49,-33,-148,-189,-160,-317,-134
-20,36,61,-2,-42,49,-33,-154,-195,-166,-317,-134
-20,30,55,3,-36,43,-27,-154,-195,-172,-317,-134
-20,30,55,3,-36,43,-27,-154,-195,-166,-323,-134
-20,30,55,3,-36,43,-27,-154,-195,-166,-317,-134
-20,30,55,3,-36,43,-33,-148,-201,-160,-317,-140
-20,30,55,3,-36,43,-33,-148,-201,-160,-317,-140
-20,24,49,3,-36,37,-33,-154,-201,-166,-323,-140
-20,24,49,3,-36,37,-33,-154,-207,-166,-317,-134
-20,30,55,3,-36,43,-33,-160,-207,-172,-323,-134
-20,30,55,3,-36,43,-33,-160,-207,-166,-323,-134
-20,30,55,3,-36,43,-27,-154,-207,-166,-323,-128
-26,30,61,3,-42,43,-27,-154,-207,-166,-323,-134
-26,30,61,3,-42,43,-21,-148,-207,-166,-323,-128
-20,36,61,-2,-42,49,-15,-148,-207,-166,-323,-122
-20,36,61,-2,-42,49,-15,-148,-201,-166,-329,-128
-20,36,61,-2,-42,49,-15,-148,-201,-166,-323,-128
-20,36,61,-2,-42,49,-15,-148,-201,-166,-329,-134
-20,36,61,-2,-42,49,-9,-148,-201,-166,-329,-134
-15,36,55,-2,-36,43,-9,-142,-201,-166,-329,-134
-15,36,55,-2,-36,43,-9,-142,-195,-166,-329,-134
-15,36,49,-8,-30,43,-9,-142,-195,-166,-335,-134
-15,36,49,-8,-30,43,-9,-142,-195,-166,-335,-134
-15,42,55,-8,-30,49,-4,-142,-189,-160,-329,-134
-15,42,55,-8,-30,49,-4,-136,-189,-160,-329,-134
-15,48,61,-14,-36,55,-4,-136,-189,-154,-323,-134
-15,48,61,-14,-36,55,-4,-136,-189,-148,-323,-134
-15,48,67,-8,-42,55,-4,-130,-189,-154,-323,-134
-15,48,67,-8,-42,55,-4,-130,-183,-154,-323,-134
-20,48,73,-8,-48,61,-4,-130,-183,-160,-323,-134
-20,48,73,-8,-48,61,-4,-130,-183,-160,-329,-134
-20,48,73,-8,-48,61,2,-124,-183,-160,-329,-140
-20,48,73,-8,-48,61,2,-124,-183,-160,-329,-140
-26,48,79,-2,-54,61,2,-124,-177,-160,-323,-146
-26,48,79,-2,-54,61,8,-118,-177,-160,-323,-152
-20,42,67,-2,-42,55,8,-118,-177,-160,-323,-152
-20,42,67,-2,-42,55,8,-118,-177,-160,-323,-158
-20,36,61,-2,-42,49,8,-118,-171,-154,-323,-158
-20,36,61,-2,-42,49,8,-118,-165,-154,-323,-158
-20,36,61,-2,-42,49,8,-112,-165,-154,-323,-158
-26,36,67,3,-48,49,8,-112,-165,-154,-323,-158
-26,36,67,3,-48,49,2,-112,-165,-148,-323,-158
-26,36,67,3,-48,49,2,-112,-165,-148,-323,-158
-26,42,73,-2,-48,55,8,-112,-165,-154,-323,-158
-26,42,73,-2,-48,55,8,-112,-165,-154,-323,-158
-26,48,79,-2,-54,61,8,-118,-165,-154,-323,-158
-26,48,79,-2,-54,61,8,-118,-165,-154,-329,-158
-26,48,79,-2,-54,61,8,-118,-165,-148,-329,-158
-26,48,79,-2,-54,61,8,-118,-165,-148,-329,-164
-26,48,79,-2,-54,61,8,-118,-165,-148,-323,-164
-26,48,79,-2,-54,61,14,-118,-165,-148,-323,-164
-20,48,73,-8,-48,61,14,-118,-165,-148,-329,-164
-20,54,79,-8,-48,67,14,-112,-165,-148,-335,-164
-20,54,79,-8,-48,67,14,-112,-165,-148,-335,-164
-26,54,85,-8,-54,67,14,-112,-165,-148,-335,-164
-26,54,85,-8,-54,67,14,-112,-165,-148,-335,-164
-26,48,79,-2,-54,61,14,-112,-165,-148,-335,-170
-26,48,79,-2,-54,61,20,-118,-177,-148,-335,-170
-26,48,79,-2,-54,61,20,-118,-177,-148,-335,-170
-26,48,79,-2,-54,61,14,-112,-171,-148,-335,-170
-26,54,85,-8,-54,67,14,-112,-171,-154,-335,-170
-26,54,85,-8,-54,67,8,-106,-165,-154,-335,-176
-26,48,79,-2,-54,61,8,-106,-165,-154,-329,-176
-26,42,73,-2,-48,55,8,-112,-165,-154,-335,-176
-26,42,73,-2,-48,55,8,-112,-165,-154,-329,-176
-26,42,73,-2,-48,55,8,-118,-165,-154,-335,-176
-26,42,73,-2,-48,55,8,-118,-165,-154,-335,-176
-26,36,67,3,-48,49,8,-118,-171,-154,-335,-176
-26,36,67,3,-48,49,14,-118,-171,-154,-335,-176
-26,36,67,3,-48,49,14,-118,-177,-154,-341,-176
-26,36,67,3,-48,49,8,-118,-177,-154,-341,-182
-26,36,67,3,-48,49,8,-124,-183,-166,-347,-182
-26,36,67,3,-48,49,2,-124,-189,-166,-347,-188
-26,42,73,-2,-48,55,2,-130,-201,-172,-353,-188
-26,42,73,-2,-48,55,2,-136,-201,-172,-359,-188
-26,42,73,-2,-48,55,2,-136,-195,-166,-365,-188
-26,42,73,-2,-48,55,2,-136,-201,-166,-365,-188
-26,36,67,3,-48,49,-4,-130,-195,-166,-365,-188
-26,30,61,3,-42,43,-4,-130,-195,-166,-365,-188
-26,36,67,3,-48,49,-4,-130,-195,-166,-371,-188
-26,36,67,3,-48,49,-4,-130,-195,-166,-371,-188
-26,42,73,-2,-48,55,-4,-136,-201,-172,-371,-188
-32,42,79,3,-54,61,-4,-136,-201,-172,-371,-194
-32,36,73,3,-54,55,-4,-136,-207,-172,-377,-194
-32,36,73,3,-54,55,-4,-136,-207,-172,-377,-194
-32,24,61,3,-48,43,-4,-136,-213,-178,-383,-200
-32,24,61,3,-48,43,-4,-136,-219,-184,-377,-200
-32,30,67,3,-48,49,-4,-142,-219,-184,-383,-200
-32,30,67,3,-48,49,-4,-142,-219,-184,-383,-200
-32,36,73,3,-54,55,-4,-148,-219,-184,-383,-206
-32,36,73,3,-54,55,-4,-154,-219,-184,-383,-206
-32,36,73,3,-54,55,-4,-148,-225,-190,-383,-206
-32,36,73,3,-54,55,-4,-154,-225,-190,-389,-206
-26,30,61,3,-42,43,-4,-148,-225,-190,-395,-206
-26,30,61,3,-42,43,-4,-148,-225,-196,-395,-206
-38,30,73,3,-54,49,-4,-148,-225,-196,-395,-206
-38,30,73,3,-54,49,-4,-148,-225,-196,-395,-212
-38,36,79,3,-60,55,-4,-148,-231,-196,-395,-212
-32,42,79,3,-54,61,-4,-148,-231,-196,-395,-212
-38,36,79,3,-60,55,-9,-154,-237,-202,-401,-218
-44,36,85,3,-66,61,-9,-160,-243,-202,-395,-218
-50,30,85,3,-66,55,-15,-166,-249,-214,-395,-230
-50,30,85,3,-66,55,-15,-166,-255,-214,-395,-230
-44,30,79,3,-60,55,-15,-160,-249,-208,-389,-224
-44,30,79,3,-60,55,-15,-160,-249,-208,-389,-224
-38,36,79,3,-60,55,-15,-154,-243,-202,-389,-218
-38,30,73,3,-54,49,-15,-154,-243,-208,-395,-224
-38,30,73,3,-54,49,-21,-154,-243,-214,-389,-224
-32,30,67,3,-48,49,-21,-148,-243,-214,-389,-218
-32,24,61,3,-48,43,-27,-148,-243,-220,-383,-218
-38,24,67,3,-54,43,-27,-148,-243,-220,-389,-224
-38,18,61,3,-48,37,-33,-154,-243,-214,-395,-224
-32,18,55,3,-42,37,-33,-154,-243,-214,-401,-224
-32,24,61,3,-48,43,-39,-154,-243,-214,-401,-224
-32,24,61,3,-48,43,-39,-154,-243,-214,-401,-224
-32,18,55,3,-42,37,-39,-160,-249,-214,-401,-224
-38,18,61,3,-48,37,-39,-160,-249,-220,-401,-224
-38,12,55,3,-48,31,-39,-166,-255,-220,-401,-224
-38,12,55,3,-48,31,-39,-166,-261,-214,-401,-224
-38,24,67,3,-54,43,-27,-154,-249,-214,-401,-224
-32,24,61,3,-48,43,-33,-160,-243,-208,-401,-224
-38,18,61,3,-48,37,-39,-160,-249,-214,-407,-224
-38,18,61,3,-48,37,-39,-160,-249,-214,-407,-224
-44,12,61,9,-54,37,-45,-160,-255,-220,-413,-224
-44,12,61,9,-54,37,-45,-160,-255,-220,-413,-224
-38,18,61,3,-48,37,-45,-160,-255,-220,-413,-230
-38,18,61,3,-48,37,-45,-160,-255,-220,-413,-230
-32,24,61,3,-48,43,-45,-160,-255,-220,-413,-236
-32,24,61,3,-48,43,-45,-160,-255,-220,-413,-236
-32,24,61,3,-48,43,-45,-160,-261,-226,-413,-236
-32,18,55,3,-42,37,-45,-160,-261,-226,-413,-236
-32,18,55,3,-42,37,-45,-160,-261,-226,-413,-236
-32,18,55,3,-42,37,-45,-160,-261,-226,-413,-236
-38,12,55,3,-48,31,-45,-160,-261,-232,-413,-230
-38,12,55,3,-48,31,-45,-160,-261,-232,-413,-230
-44,6,55,9,-48,31,-45,-160,-255,-232,-413,-230
-44,12,61,9,-54,37,-45,-160,-261,-232,-419,-230
-44,12,61,9,-54,37,-45,-160,-255,-232,-413,-236
-44,12,61,9,-54,37,-45,-160,-255,-232,-413,-236
-44,12,61,9,-54,37,-45,-160,-249,-232,-401,-242
-44,12,61,9,-54,37,-45,-160,-249,-232,-401,-242
-44,12,61,9,-54,37,-45,-160,-255,-232,-401,-242
-44,12,61,9,-54,37,-45,-154,-249,-232,-401,-236
-44,12,61,9,-54,37,-45,-154,-255,-226,-401,-236
-44,12,61,9,-54,37,-45,-154,-255,-220,-401,-236
-38,24,67,3,-54,43,-39,-142,-249,-220,-395,-236
-38,30,73,3,-54,49,-33,-136,-237,-220,-383,-236
-38,30,73,3,-54,49,-33,-130,-231,-208,-383,-224
-32,36,73,3,-54,55,-33,-124,-225,-202,-377,-224
-32,48,85,-2,-60,67,-27,-124,-213,-196,-365,-224
-32,54,91,-2,-60,73,-27,-124,-213,-190,-365,-212
-32,66,103,-8,-66,85,-21,-124,-201,-184,-359,-206
-32,72,109,-14,-72,91,-21,-118,-201,-184,-359,-206
-26,84,115,-20,-72,97,-21,-118,-201,-172,-347,-206
-26,84,115,-20,-72,97,-21,-118,-201,-172,-347,-206
-26,90,121,-26,-72,103,-21,-118,-195,-172,-341,-200
-26,90,121,-26,-72,103,-21,-118,-195,-172,-335,-200
-26,96,127,-26,-78,109,-21,-118,-195,-178,-335,-200
-26,96,127,-26,-78,109,-21,-118,-195,-184,-335,-200
-26,96,127,-26,-78,109,-33,-124,-201,-190,-335,-200
-26,102,133,-32,-78,115,-51,-136,-213,-190,-323,-200
-26,108,139,-32,-84,121,-57,-136,-201,-178,-317,-188
-26,114,145,-38,-84,127,-57,-136,-189,-166,-311,-182
-26,120,151,-38,-90,133,-57,-136,-183,-148,-305,-176
-20,120,145,-44,-84,133,-57,-136,-183,-142,-305,-170
-15,120,133,-50,-72,127,-57,-130,-183,-142,-299,-164
-15,120,127,-50,-66,127,-57,-118,-177,-136,-293,-164
-15,120,127,-50,-66,127,-51,-112,-177,-130,-281,-158
-9,120,121,-56,-60,121,-51,-94,-171,-124,-275,-152
-3,126,121,-62,-54,127,-51,-82,-153,-112,-263,-140
-3,126,121,-62,-54,127,-39,-70,-141,-112,-251,-134
3,126,115,-62,-48,121,-33,-64,-129,-106,-239,-128
3,126,115,-62,-48,121,-33,-64,-129,-106,-239,-128
3,126,115,-62,-48,121,-33,-64,-123,-100,-239,-122
3,126,115,-62,-48,121,-33,-64,-117,-100,-239,-122
3,126,115,-62,-48,121,-33,-58,-111,-88,-233,-122
3,126,115,-62,-48,121,-33,-46,-99,-88,-227,-116
15,120,97,-68,-36,109,-21,-34,-87,-70,-215,-104
15,120,97,-68,-36,109,-15,-16,-75,-64,-209,-104
21,114,85,-68,-24,103,-4,-11,-63,-64,-203,-98
21,108,79,-62,-24,97,-4,1,-57,-64,-203,-98
9,120,103,-62,-42,115,-9,7,-63,-58,-203,-110
9,120,103,-62,-42,115,8,19,-57,-58,-203,-122
9,114,97,-62,-36,109,68,79,-27,-46,-209,-116
3,102,91,-50,-36,97,146,139,-4,-40,-215,-134
-15,84,91,-32,-48,91,224,193,20,-40,-221,-152
-15,60,73,-20,-42,67,290,229,26,-52,-239,-176
-15,42,61,-8,-36,49,368,277,50,-58,-257,-200
-32,24,61,3,-48,43,452,355,92,-58,-269,-212
-20,18,43,3,-30,31,476,421,128,-46,-269,-224
-26,18,49,3,-36,31,452,457,158,-28,-281,-230
-26,12,43,3,-36,25,416,499,164,-40,-293,-242
-15,-5,14,9,-19,2,428,607,230,-28,-293,-236
-3,-11,-16,3,5,-10,422,745,332,7,-287,-230
3,1,-10,3,5,-4,386,853,416,55,-257,-206
15,6,-16,-2,11,-4,332,907,464,91,-239,-200
51,6,-52,-20,47,-22,218,901,476,109,-221,-188
81,6,-70,-44,77,-22,110,907,476,121,-215,-164
93,6,-82,-50,89,-28,68,943,530,157,-191,-146
111,6,-100,-56,107,-40,38,973,578,199,-155,-122
117,18,-94,-68,107,-28,2,985,596,223,-119,-98
141,18,-118,-80,131,-40,-45,985,620,253,-95,-62
153,12,-136,-80,143,-52,-147,913,602,259,-66,-38
171,42,-124,-104,149,-34,-267,721,512,259,-54,-15
177,66,-106,-122,143,-10,-381,487,398,247,-36,-3
189,90,-94,-140,143,8,-465,265,290,241,-18,15
201,114,-82,-158,143,13,-585,37,182,265,42,63
225,150,-70,-188,149,37,-741,-220,20,247,96,123
225,180,-46,-206,137,61,-885,-490,-201,163,120,165
225,210,-16,-218,125,91,-987,-718,-399,73,132,201
231,246,14,-236,113,127,-1071,-844,-495,79,186,249
249,282,25,-266,107,157,-1155,-958,-531,121,264,339
267,318,43,-290,107,187,-1233,-1114,-615,163,366,423
291,342,43,-314,119,199,-1347,-1270,-723,145,414,483
309,348,31,-326,137,193,-1467,-1438,-837,109,432,537
357,360,8,-356,179,181,-1599,-1672,-1011,55,480,609
381,360,-16,-368,203,169,-1779,-2026,-1305,-34,528,699
405,360,-40,-380,221,157,-1977,-2416,-1689,-226,552,777
435,366,-64,-398,245,151,-2175,-2781,-2109,-496,558,855
471,402,-64,-434,263,169,-2367,-3135,-2516,-754,600,969
507,456,-52,-482,281,199,-2528,-3393,-2798,-910,696,1125
537,498,-34,-518,287,235,-2600,-3519,-2966,-1042,762,1245
567,528,-34,-548,299,247,-2564,-3507,-3044,-1216,756,1299
585,570,-10,-578,299,277,-2468,-3369,-2996,-1300,744,1335
633,606,-22,-620,329,289,-2397,-3213,-2918,-1360,762,1407
693,624,-64,-656,377,277,-2379,-3087,-2864,-1408,804,1497
759,612,-148,-686,455,235,-2349,-2991,-2828,-1444,864,1611
825,624,-202,-728,509,211,-2337,-2907,-2786,-1432,954,1755
861,672,-190,-764,521,241,-2307,-2853,-2738,-1384,1086,1899
885,708,-178,-794,527,259,-2265,-2805,-2678,-1330,1218,2048
897,732,-166,-812,527,277,-2217,-2739,-2624,-1240,1374,2174
867,744,-118,-806,491,313,-2145,-2673,-2534,-1126,1524,2276
831,792,-34,-812,437,379,-2061,-2619,-2456,-1006,1632,2330
801,840,31,-818,383,439,-1983,-2547,-2391,-928,1656,2318
735,840,97,-788,317,475,-1845,-2398,-2241,-844,1590,2204
669,786,115,-728,269,457,-1665,-2164,-2007,-724,1398,2007
591,684,85,-638,245,385,-1455,-1858,-1707,-604,1146,1755
543,546,8,-542,269,271,-1227,-1546,-1431,-550,816,1443
477,414,-64,-446,269,175,-1029,-1300,-1221,-526,504,1125
381,312,-64,-344,221,121,-855,-1108,-1077,-526,288,867
273,270,2,-272,137,133,-693,-958,-981,-538,114,645
213,246,25,-230,89,139,-513,-784,-843,-538,-54,435
159,192,25,-176,59,109,-381,-604,-693,-508,-161,243
111,144,25,-128,35,85,-273,-466,-579,-490,-263,87
69,114,37,-92,11,79,-195,-358,-477,-442,-305,-15
45,114,61,-80,-13,91,-105,-238,-339,-346,-311,-68
33,102,61,-68,-19,85,-51,-142,-243,-274,-299,-80
3,102,91,-50,-36,97,-4,-76,-183,-232,-305,-104
-20,84,109,-26,-66,97,44,-28,-129,-190,-323,-146
-32,54,91,-2,-60,73,104,37,-75,-142,-317,-158
-44,30,79,3,-60,55,170,109,-22,-106,-311,-182
-50,6,55,15,-54,25,206,151,8,-94,-311,-200
-62,-5,49,33,-60,13,230,181,32,-94,-329,-218
-56,-17,31,33,-48,13,242,193,56,-88,-335,-236
-56,-17,31,33,-48,13,248,217,74,-88,-347,-248
-62,-23,31,39,-48,8,248,229,86,-82,-353,-254
-68,-23,37,45,-54,13,248,229,98,-76,-365,-272
-80,-17,55,45,-72,13,260,241,110,-70,-377,-278
-80,-17,55,45,-72,13,266,253,122,-70,-389,-290
-92,-17,67,51,-84,19,290,265,128,-58,-389,-296
-92,-23,61,57,-78,13,296,283,134,-52,-389,-302
-92,-35,49,63,-72,13,314,301,152,-40,-383,-314
-92,-35,49,63,-72,13,332,319,170,-34,-383,-314
-92,-41,43,63,-72,8,350,331,182,-23,-371,-314
-92,-41,43,63,-72,8,362,343,200,-23,-371,-314
-98,-47,43,69,-72,2,362,343,200,-23,-377,-320
-98,-47,43,69,-72,2,368,349,200,-23,-377,-320
-98,-53,37,75,-72,-4,368,355,206,-23,-383,-326
-98,-53,37,75,-72,-4,374,361,218,-23,-383,-332
-98,-47,43,69,-72,2,380,379,224,-23,-389,-344
-98,-47,43,69,-72,2,392,391,230,-17,-389,-344
-98,-41,49,69,-78,8,404,409,242,-23,-395,-350
-98,-41,49,69,-78,8,410,427,248,-11,-395,-356
-104,-41,55,69,-84,13,416,439,260,-11,-395,-356
-104,-35,61,69,-84,13,428,451,266,-5,-401,-356
-104,-35,61,69,-84,13,434,457,272,1,-401,-356
-104,-35,61,69,-84,13,440,463,284,1,-401,-356
-104,-35,61,69,-84,13,440,475,302,7,-407,-356
-104,-35,61,69,-84,13,452,481,308,13,-407,-356
-104,-29,67,63,-90,13,458,493,320,25,-407,-356
-104,-29,67,63,-90,13,464,499,338,31,-407,-356
-104,-35,61,69,-84,13,476,517,350,37,-413,-350
-104,-35,61,69,-84,13,488,541,362,43,-407,-356
-104,-41,55,69,-84,13,500,571,374,49,-407,-350
-104,-41,55,69,-84,13,518,583,392,55,-401,-350
-110,-35,67,69,-90,13,524,601,410,67,-395,-350
-110,-35,67,69,-90,13,530,607,428,73,-395,-350
-116,-35,73,75,-96,13,536,625,446,91,-383,-350
-116,-29,79,69,-102,19,548,643,458,97,-377,-350
-116,-23,85,69,-102,25,548,661,470,103,-383,-344
-116,-23,85,69,-102,25,560,679,482,109,-383,-344
-116,-23,85,69,-102,25,578,697,512,121,-383,-344
-116,-23,85,69,-102,25,590,721,524,133,-383,-344
-116,-23,85,69,-102,25,602,739,548,151,-383,-338
-116,-23,85,69,-102,25,614,757,566,157,-377,-344
-116,-17,91,63,-108,31,626,781,590,175,-377,-338
-116,-11,97,63,-108,37,632,799,608,193,-371,-338
-116,-17,91,63,-108,31,644,811,620,199,-359,-338
-116,-5,103,57,-114,43,650,823,638,205,-353,-332
-110,-5,97,57,-108,37,662,835,656,217,-347,-338
-110,1,103,51,-108,43,680,853,674,223,-341,-338
-110,1,103,51,-108,43,692,877,698,241,-341,-338
-110,1,103,51,-108,43,704,901,710,247,-341,-332
-110,6,115,45,-114,55,710,925,728,265,-341,-332
-110,6,121,45,-114,61,716,949,746,283,-341,-332
-116,6,127,45,-120,67,716,961,764,295,-341,-332
-116,12,133,45,-126,73,722,961,782,313,-335,-326
-122,12,139,45,-132,73,728,973,800,331,-335,-326
-122,12,139,45,-132,73,728,985,812,343,-329,-320
-128,18,151,45,-138,85,740,1003,830,361,-317,-320
-122,24,151,39,-138,85,752,1015,854,373,-311,-314
-128,36,169,39,-150,103,758,1033,884,391,-305,-314
-128,42,175,33,-150,109,764,1051,902,409,-305,-314
-122,42,169,33,-144,103,758,1057,914,427,-293,-314
-122,48,175,27,-150,109,764,1075,932,439,-287,-296
-116,48,169,27,-144,109,764,1081,950,451,-263,-296
-116,54,175,21,-144,115,764,1093,962,469,-251,-296
-116,60,181,21,-150,121,764,1105,974,493,-251,-290
-110,60,175,15,-144,115,764,1105,992,505,-233,-284
-110,72,187,9,-150,127,764,1111,998,523,-233,-278
-110,84,199,3,-156,139,764,1117,1010,541,-221,-272
-104,78,187,3,-144,133,758,1123,1022,553,-197,-260
-104,84,193,3,-150,139,746,1129,1034,571,-191,-254
-110,84,199,3,-156,139,740,1135,1046,589,-179,-242
-110,90,205,3,-156,145,734,1135,1058,607,-167,-230
-104,96,205,3,-156,151,728,1129,1064,625,-161,-224
-98,96,199,3,-150,145,728,1129,1070,643,-149,-218
-92,102,199,3,-144,151,710,1111,1076,655,-143,-218
-86,108,199,-2,-144,151,704,1105,1076,667,-125,-212
-80,114,199,-8,-138,157,692,1099,1076,667,-125,-206
-80,120,205,-14,-144,163,680,1075,1082,667,-113,-200
-80,120,205,-14,-144,163,656,1063,1082,673,-107,-188
-80,126,211,-14,-144,169,638,1045,1064,673,-101,-170
-80,126,211,-14,-144,169,620,1027,1052,673,-101,-158
-80,126,211,-14,-144,169,608,1009,1040,679,-95,-152
-68,126,199,-20,-132,163,602,997,1028,685,-95,-134
-62,126,193,-26,-126,157,590,973,1016,691,-89,-128
-56,132,193,-32,-126,163,560,955,1004,691,-77,-116
-50,132,187,-32,-120,157,542,943,992,691,-71,-104
-50,132,187,-32,-120,157,518,907,980,685,-66,-98
-50,126,181,-32,-114,151,494,883,968,685,-66,-86
-44,126,175,-32,-108,151,482,847,938,667,-66,-74
-32,126,163,-38,-96,145,458,817,908,661,-60,-62
-20,126,151,-44,-84,139,434,763,884,649,-60,-56
-15,132,151,-50,-84,139,410,727,842,631,-54,-50
-20,132,157,-50,-90,145,386,697,806,613,-54,-26
-15,132,151,-50,-84,139,362,661,776,595,-48,-20
-15,138,157,-56,-84,145,338,619,728,565,-48,-15
-15,138,157,-56,-84,145,314,583,686,541,-48,-15
-15,132,151,-50,-84,139,284,523,638,511,-48,-15
-15,138,157,-56,-84,145,260,481,596,487,-48,-9
-15,132,145,-56,-78,139,230,439,548,457,-54,-9
-15,132,145,-56,-78,139,206,397,506,427,-54,-3
-15,132,139,-56,-72,139,200,349,464,391,-66,3
-9,126,127,-56,-60,127,170,301,404,349,-66,3
-3,132,127,-62,-60,133,164,271,356,313,-66,15
-3,120,115,-56,-54,121,146,235,308,289,-71,15
-9,114,115,-50,-54,115,128,199,266,247,-83,21
-15,108,115,-44,-60,115,122,169,224,217,-101,21
-15,102,115,-38,-60,109,98,127,194,187,-113,21
-15,102,115,-38,-60,109,80,103,152,163,-131,3
-15,90,97,-38,-48,97,80,79,122,133,-137,-3
-15,84,91,-32,-48,91,68,49,92,109,-149,-9
-15,72,85,-26,-48,79,68,37,68,73,-149,-15
-15,66,79,-20,-42,73,62,13,38,49,-155,-20
-15,60,73,-20,-42,67,56,-11,8,19,-173,-32
-15,54,67,-14,-36,61,50,-16,-10,-5,-191,-32
-15,48,61,-14,-36,55,44,-34,-22,-23,-215,-38
-15,36,55,-2,-36,43,38,-40,-33,-34,-227,-44
-15,30,49,-2,-30,37,32,-52,-51,-52,-233,-44
-20,24,49,3,-36,37,32,-64,-69,-70,-239,-56
-20,24,49,3,-36,37,20,-76,-81,-88,-245,-56
-20,18,43,3,-30,31,20,-88,-87,-94,-239,-74
-26,12,43,3,-36,25,26,-88,-105,-100,-239,-68
-32,12,49,3,-42,31,32,-88,-111,-100,-245,-74
-44,6,49,15,-48,25,38,-94,-111,-106,-239,-74
-44,6,49,15,-48,25,44,-100,-123,-106,-245,-74
-38,6,43,9,-42,19,38,-106,-123,-112,-251,-80
-38,6,37,15,-42,13,38,-106,-129,-118,-257,-86
-32,6,31,9,-36,13,26,-112,-129,-124,-251,-92
-32,6,31,9,-36,13,26,-112,-129,-124,-257,-92
-32,1,25,15,-30,13,26,-112,-135,-130,-263,-98
-38,1,31,15,-36,13,26,-112,-135,-136,-263,-98
-44,-5,31,21,-42,13,26,-112,-141,-136,-269,-104
-50,-5,37,27,-48,13,26,-118,-141,-136,-275,-104
-50,1,43,21,-48,13,26,-118,-141,-142,-269,-98
-50,-5,37,27,-48,13,26,-118,-141,-142,-269,-104
-44,1,37,21,-42,13,26,-118,-147,-154,-269,-98
-44,-5,31,21,-42,13,32,-118,-147,-160,-263,-98
-38,-5,25,21,-36,13,26,-124,-147,-160,-263,-98
-38,-5,25,21,-36,13,26,-124,-147,-160,-257,-98
-32,-5,19,15,-30,13,14,-124,-153,-160,-251,-104
-32,-5,19,15,-30,13,14,-124,-153,-160,-251,-104
-38,-17,19,27,-30,2,14,-124,-153,-160,-251,-104
-38,-17,19,27,-30,2,14,-124,-159,-160,-245,-98
-44,-17,19,27,-36,8,14,-124,-159,-160,-245,-98
-44,-17,19,27,-36,8,14,-124,-159,-154,-245,-98
-44,-17,19,27,-36,8,14,-118,-153,-160,-245,-92
-50,-17,25,33,-42,8,14,-118,-153,-160,-245,-98
-50,-17,25,33,-42,8,14,-112,-147,-166,-245,-92
-44,-11,25,27,-36,13,20,-112,-147,-166,-245,-86
-44,-17,19,27,-36,8,20,-112,-141,-160,-251,-86
-44,-17,19,27,-36,8,20,-112,-141,-160,-245,-86
-44,-23,19,33,-30,2,20,-112,-141,-154,-251,-86
-44,-23,19,33,-30,2,26,-112,-141,-154,-251,-86
-44,-23,19,33,-30,2,26,-112,-147,-160,-251,-92
-44,-23,19,33,-30,2,26,-112,-141,-160,-251,-92
-44,-23,19,33,-30,2,26,-118,-147,-166,-257,-98
-44,-23,19,33,-30,2,26,-118,-147,-166,-257,-98
-44,-23,19,33,-30,2,26,-118,-141,-166,-257,-98
-44,-23,19,33,-30,2,26,-112,-141,-166,-257,-98
-44,-23,19,33,-30,2,26,-112,-141,-166,-257,-98
-44,-23,19,33,-30,2,32,-112,-141,-160,-257,-98
-50,-23,19,33,-36,2,32,-100,-135,-160,-251,-98
-50,-23,19,33,-36,2,32,-100,-129,-160,-251,-98
-56,-23,25,39,-42,8,32,-94,-123,-160,-245,-98
-56,-23,25,39,-42,8,32,-94,-123,-160,-251,-98
-56,-23,25,39,-42,8,32,-94,-123,-160,-251,-98
-56,-23,25,39,-42,8,32,-94,-123,-160,-251,-98
-62,-23,31,39,-48,8,26,-100,-117,-160,-245,-98
-62,-23,31,39,-48,8,32,-94,-117,-160,-245,-104
-56,-23,25,39,-42,8,38,-94,-117,-160,-245,-104
-56,-23,25,39,-42,8,38,-94,-117,-160,-245,-110
-56,-23,25,39,-42,8,44,-94,-111,-154,-245,-110
-56,-23,25,39,-42,8,44,-94,-105,-154,-245,-110
-56,-23,25,39,-42,8,50,-88,-111,-160,-251,-110
-62,-23,31,39,-48,8,50,-88,-111,-160,-251,-110
-62,-23,31,39,-48,8,50,-88,-117,-160,-257,-110
-62,-23,31,39,-48,8,50,-88,-117,-160,-257,-110
-62,-29,25,45,-48,2,50,-82,-117,-166,-257,-110
-62,-29,25,45,-48,2,50,-82,-117,-166,-257,-110
-62,-35,19,45,-42,-4,44,-82,-117,-166,-257,-110
-62,-35,19,45,-42,-4,44,-82,-117,-166,-263,-110
-62,-29,25,45,-48,2,50,-82,-111,-160,-269,-110
-62,-29,25,45,-48,2,50,-82,-111,-160,-269,-116
-62,-23,31,39,-48,8,56,-82,-105,-160,-269,-116
-62,-23,31,39,-48,8,62,-82,-105,-160,-269,-116
-56,-29,19,39,-42,2,56,-82,-99,-160,-269,-110
-56,-23,25,39,-42,8,56,-76,-99,-160,-269,-110
-56,-29,19,39,-42,2,50,-76,-93,-160,-263,-104
-62,-29,25,45,-48,2,50,-76,-93,-160,-257,-104
-62,-29,25,45,-48,2,50,-76,-93,-154,-257,-110
-62,-35,19,45,-42,-4,50,-76,-93,-154,-257,-116
-62,-35,19,45,-42,-4,56,-82,-105,-148,-257,-122
-62,-35,19,45,-42,-4,56,-82,-105,-148,-257,-122
-62,-41,19,51,-42,-10,56,-82,-105,-148,-257,-116
-62,-35,19,45,-42,-4,56,-82,-105,-154,-257,-116
-62,-41,19,51,-42,-10,56,-82,-105,-154,-257,-116
-62,-47,19,51,-36,-16,56,-82,-105,-154,-251,-116
-62,-53,14,57,-36,-22,56,-82,-99,-154,-257,-116
-62,-53,14,57,-36,-22,56,-82,-99,-154,-251,-116
-62,-53,14,57,-36,-22,56,-82,-93,-154,-257,-116
-62,-53,14,57,-36,-22,56,-82,-93,-154,-257,-116
-62,-53,14,57,-36,-22,50,-82,-93,-154,-257,-122
-62,-53,14,57,-36,-22,56,-82,-93,-154,-257,-122
-62,-47,19,51,-36,-16,50,-82,-93,-154,-263,-128
-62,-47,19,51,-36,-16,44,-82,-93,-154,-263,-134
-68,-59,14,63,-36,-22,50,-82,-99,-166,-263,-128
-68,-59,14,63,-36,-22,44,-82,-105,-166,-263,-134
-74,-65,14,69,-42,-28,50,-82,-117,-172,-263,-128
-74,-65,14,69,-42,-28,50,-88,-117,-172,-269,-128
-68,-59,14,63,-36,-22,50,-100,-117,-178,-281,-134
-68,-59,14,63,-36,-22,50,-100,-123,-178,-281,-134
-62,-59,8,57,-30,-28,44,-106,-123,-190,-287,-140
-62,-65,2,63,-30,-34,44,-106,-123,-190,-287,-140
-68,-65,8,63,-36,-28,44,-100,-123,-184,-287,-140
-68,-65,8,63,-36,-28,44,-100,-123,-184,-287,-140
-74,-65,14,69,-42,-28,44,-100,-129,-184,-281,-140
-80,-65,19,69,-48,-22,44,-100,-129,-184,-281,-146
-80,-65,19,69,-48,-22,44,-100,-129,-184,-281,-140
-80,-65,19,69,-48,-22,44,-100,-129,-184,-281,-140
-80,-71,14,75,-42,-28,44,-100,-129,-190,-281,-140
-80,-71,14,75,-42,-28,44,-100,-135,-196,-275,-140
-80,-71,14,75,-42,-28,44,-100,-129,-196,-269,-140
-80,-71,14,75,-42,-28,44,-100,-129,-196,-269,-140
-80,-71,14,75,-42,-28,38,-100,-123,-196,-257,-146
-80,-71,14,75,-42,-28,38,-106,-123,-196,-257,-146
-80,-71,14,75,-42,-28,38,-112,-135,-202,-263,-152
-80,-71,14,75,-42,-28,38,-118,-135,-202,-269,-152
-74,-77,2,75,-36,-40,38,-124,-141,-202,-281,-158
-74,-77,2,75,-36,-40,32,-124,-141,-208,-281,-158
-86,-83,8,81,-42,-40,32,-124,-141,-208,-281,-164
-86,-83,8,81,-42,-40,32,-124,-141,-208,-281,-170
-86,-83,8,81,-42,-40,32,-124,-147,-208,-281,-176
-80,-77,8,75,-42,-34,32,-124,-147,-208,-281,-176
-80,-77,8,75,-42,-34,32,-124,-141,-208,-275,-176
-86,-77,14,81,-48,-34,32,-130,-147,-208,-269,-176
-86,-77,14,81,-48,-34,32,-130,-141,-214,-257,-182
-86,-77,14,81,-48,-34,32,-130,-147,-214,-257,-182
-86,-89,2,87,-42,-46,32,-124,-147,-214,-263,-176
-86,-89,2,87,-42,-46,32,-124,-147,-214,-263,-176
-86,-95,-4,87,-36,-52,32,-118,-147,-214,-275,-170
-86,-101,-10,93,-36,-58,32,-118,-147,-220,-281,-176
-74,-89,-10,81,-30,-52,32,-118,-147,-220,-281,-164
-80,-83,2,81,-36,-40,26,-112,-147,-220,-275,-164
-80,-83,2,81,-36,-40,26,-118,-147,-214,-281,-170
-80,-83,2,81,-36,-40,26,-118,-147,-214,-281,-170
-80,-83,2,81,-36,-40,26,-124,-147,-208,-287,-176
-80,-83,2,81,-36,-40,26,-124,-147,-208,-287,-176
-80,-89,-4,81,-36,-46,26,-124,-147,-208,-293,-176
-80,-89,-4,81,-36,-46,26,-124,-147,-208,-293,-176
-80,-95,-10,87,-30,-52,26,-124,-147,-208,-299,-176
-80,-95,-10,87,-30,-52,26,-124,-147,-208,-299,-176
-86,-95,-4,87,-36,-52,26,-124,-147,-214,-299,-182
-86,-101,-10,93,-36,-58,26,-124,-147,-214,-299,-182
-92,-101,-4,93,-42,-52,26,-124,-147,-214,-299,-188
-92,-101,-4,93,-42,-52,26,-124,-147,-214,-299,-188
-86,-101,-10,93,-36,-58,20,-124,-147,-220,-299,-182
-86,-101,-10,93,-36,-58,20,-124,-147,-220,-299,-182
-80,-101,-16,87,-30,-58,14,-124,-147,-220,-299,-182
-80,-95,-10,87,-30,-52,14,-124,-153,-220,-305,-182
-86,-95,-4,87,-36,-52,8,-124,-153,-220,-305,-182
-86,-95,-4,87,-36,-52,8,-124,-153,-220,-305,-182
-92,-95,2,93,-42,-46,2,-124,-153,-220,-305,-182
-92,-95,2,93,-42,-46,2,-124,-153,-220,-305,-182
-92,-101,-4,93,-42,-52,8,-124,-153,-220,-305,-182
-92,-101,-4,93,-42,-52,8,-118,-147,-220,-305,-176
-92,-107,-10,99,-36,-58,14,-118,-147,-214,-305,-176
-92,-107,-10,99,-36,-58,14,-118,-147,-208,-305,-176
-86,-95,-4,87,-36,-52,26,-106,-141,-202,-299,-170
-86,-89,2,87,-42,-46,32,-100,-129,-202,-287,-170
-86,-89,2,87,-42,-46,38,-94,-123,-184,-281,-152
-80,-83,2,81,-36,-40,38,-88,-117,-178,-275,-152
-80,-71,14,75,-42,-28,38,-88,-111,-178,-275,-158
-80,-65,19,69,-48,-22,32,-88,-111,-172,-275,-146
-80,-53,19,63,-54,-10,32,-88,-105,-172,-281,-146
-80,-47,25,63,-54,-4,26,-82,-105,-172,-281,-146
-80,-47,25,63,-54,-4,32,-76,-99,-154,-269,-146
-80,-47,25,63,-54,-4,32,-76,-99,-154,-269,-146
-86,-53,25,69,-60,-10,38,-70,-87,-148,-263,-140
-86,-53,25,69,-60,-10,38,-70,-87,-148,-257,-140
-86,-41,37,63,-66,2,38,-76,-87,-142,-251,-134
-86,-41,37,63,-66,2,38,-76,-87,-148,-251,-128
-86,-35,43,57,-66,8,26,-88,-93,-142,-245,-122
-86,-29,49,57,-72,13,8,-100,-105,-142,-233,-116
-80,-23,49,51,-66,13,2,-106,-99,-142,-233,-110
-80,-17,55,45,-72,13,2,-106,-87,-130,-227,-110
-74,-11,55,39,-66,13,2,-112,-87,-124,-227,-110
-68,-11,49,39,-60,13,2,-112,-87,-118,-221,-110
-62,-11,43,33,-54,13,8,-100,-75,-112,-221,-104
-56,-11,37,33,-48,13,8,-88,-69,-106,-215,-104
-62,-11,43,33,-54,13,20,-76,-57,-94,-209,-98
-56,-11,37,33,-48,13,20,-58,-51,-88,-203,-92
-50,-5,37,27,-48,13,20,-52,-27,-64,-191,-80
-50,-5,37,27,-48,13,32,-40,-22,-58,-179,-68
-44,-5,31,21,-42,13,38,-40,-10,-40,-167,-62
-44,-5,31,21,-42,13,38,-40,-10,-34,-167,-56
-38,1,31,15,-36,13,38,-40,-16,-40,-167,-56
-38,1,31,15,-36,13,38,-40,-16,-40,-167,-56
-32,6,31,9,-36,13,38,-34,-22,-40,-161,-62
-32,6,31,9,-36,13,38,-22,-16,-40,-155,-56
-26,1,19,9,-24,13,38,-16,-4,-23,-149,-50
-26,1,19,9,-24,13,44,-11,8,-23,-143,-50
-26,-5,19,15,-24,8,44,1,20,-23,-143,-50
-26,-11,19,15,-19,2,44,13,26,-23,-143,-50
-50,-23,19,33,-36,2,50,7,44,-11,-143,-38
-50,-35,19,39,-30,-10,68,19,50,-11,-143,-38
-50,-29,19,39,-36,-4,116,55,68,-11,-149,-44
-56,-41,19,45,-36,-10,170,103,92,-5,-167,-62
-62,-71,-4,63,-24,-40,236,145,104,-5,-173,-92
-68,-83,-10,75,-24,-46,278,181,110,-17,-191,-116
-74,-89,-10,81,-30,-52,320,211,110,-23,-221,-140
-80,-107,-22,93,-24,-64,380,259,128,-34,-245,-164
-92,-113,-16,99,-36,-64,452,325,176,-23,-245,-176
-86,-125,-34,105,-24,-82,464,385,218,-17,-245,-170
-86,-131,-40,105,-19,-88,440,421,242,-5,-245,-158
-86,-137,-46,111,-19,-94,452,475,266,-5,-245,-176
-86,-155,-64,117,-19,-112,488,595,368,43,-239,-170
-68,-167,-94,117,5,-130,488,733,482,115,-197,-146
-44,-149,-100,93,17,-124,452,811,560,163,-167,-128
-32,-149,-112,87,29,-130,392,853,608,205,-149,-116
-15,-149,-142,75,59,-142,284,871,608,217,-143,-104
-3,-149,-154,69,71,-148,200,883,626,217,-131,-98
3,-149,-160,63,77,-154,158,907,674,229,-131,-86
9,-149,-166,63,83,-154,122,919,704,259,-107,-74
33,-125,-166,39,95,-142,74,931,710,301,-66,-26
57,-107,-172,15,113,-136,32,925,740,343,-30,-3
75,-101,-184,3,125,-142,-57,847,710,367,6,27
81,-89,-178,3,125,-130,-183,703,620,355,24,45
81,-65,-154,-2,113,-106,-261,523,500,337,42,63
105,-53,-166,-20,131,-106,-315,331,380,313,54,75
141,-17,-166,-56,149,-88,-441,127,266,307,84,99
147,6,-142,-74,143,-64,-591,-88,134,277,120,141
135,18,-112,-74,125,-40,-741,-340,-45,205,156,201
153,42,-106,-98,131,-22,-837,-538,-237,115,168,237
147,60,-82,-104,113,-4,-909,-676,-333,97,204,279
153,84,-64,-116,107,13,-969,-784,-405,127,282,339
165,120,-40,-140,101,37,-1041,-922,-477,157,378,429
183,174,-4,-176,95,79,-1137,-1060,-555,181,468,501
207,186,-16,-194,113,79,-1221,-1180,-639,175,516,561
237,186,-52,-212,149,61,-1347,-1336,-765,133,552,627
249,174,-76,-212,167,43,-1497,-1618,-1017,49,612,699
279,168,-112,-224,197,25,-1683,-1954,-1371,-94,666,783
303,144,-160,-224,227,2,-1827,-2254,-1725,-328,690,879
345,126,-220,-236,281,-40,-1977,-2535,-2073,-568,720,969
387,174,-214,-278,299,-10,-2133,-2805,-2385,-772,798,1107
429,246,-178,-338,299,31,-2235,-2991,-2600,-922,900,1275
459,288,-166,-374,311,61,-2259,-3027,-2696,-1078,930,1383
477,336,-142,-410,311,97,-2199,-2937,-2672,-1186,912,1431
513,378,-136,-446,323,121,-2121,-2805,-2558,-1198,954,1509
573,402,-172,-482,371,115,-2115,-2691,-2462,-1186,1050,1671
651,390,-256,-518,455,61,-2127,-2613,-2415,-1210,1152,1827
711,390,-316,-548,509,31,-2133,-2559,-2403,-1234,1260,1965
741,438,-304,-590,521,61,-2127,-2535,-2385,-1204,1374,2120
753,474,-280,-614,515,91,-2091,-2493,-2331,-1138,1512,2276
747,492,-256,-620,503,115,-2025,-2445,-2289,-1078,1632,2372
717,510,-202,-614,461,157,-1947,-2410,-2259,-1030,1722,2402
675,534,-136,-602,407,199,-1857,-2362,-2235,-988,1752,2390
621,534,-82,-578,353,229,-1737,-2254,-2139,-940,1692,2300
549,492,-52,-518,299,223,-1581,-2056,-1953,-850,1554,2126
495,414,-82,-458,287,163,-1395,-1786,-1695,-754,1320,1887
453,276,-172,-362,311,49,-1197,-1498,-1407,-670,1002,1593
399,144,-250,-266,323,-46,-1005,-1240,-1161,-598,690,1287
309,66,-238,-188,275,-82,-843,-1060,-993,-550,438,1005
219,36,-178,-128,197,-64,-693,-922,-897,-538,228,759
141,18,-118,-80,131,-40,-525,-760,-771,-514,42,537
87,-11,-106,-32,95,-58,-381,-604,-633,-466,-101,339
51,-59,-118,3,83,-88,-249,-466,-507,-442,-215,171
9,-101,-118,39,59,-106,-147,-334,-381,-382,-263,51
-15,-113,-106,57,41,-106,-69,-226,-261,-298,-257,3
-15,-101,-82,57,23,-94,-27,-130,-159,-232,-227,-15
-32,-89,-52,57,-1,-70,2,-76,-87,-196,-227,-32
-68,-83,-10,75,-24,-46,32,-28,-33,-142,-245,-74
-92,-101,-4,93,-42,-52,92,25,20,-94,-251,-110
-104,-113,-4,105,-48,-58,146,85,62,-58,-245,-122
-110,-131,-16,117,-42,-76,206,127,92,-23,-245,-140
-110,-161,-46,135,-30,-106,236,169,128,-23,-251,-158
-110,-173,-58,141,-24,-118,260,187,146,-23,-257,-164
-110,-179,-64,141,-19,-124,266,211,164,-23,-269,-170
-122,-185,-58,153,-30,-124,272,229,170,-23,-275,-164
-128,-191,-58,159,-30,-124,272,229,182,-17,-287,-182
-134,-179,-40,153,-42,-112,272,235,200,-17,-305,-200
-134,-179,-40,153,-42,-112,278,247,212,-17,-311,-212
-140,-173,-28,153,-54,-100,290,253,218,-11,-317,-230
-140,-179,-34,159,-48,-106,296,271,224,-5,-317,-236
-140,-185,-40,159,-48,-112,308,283,242,7,-317,-248
-140,-185,-40,159,-48,-112,320,301,260,13,-317,-248
-140,-185,-40,159,-48,-112,332,307,272,25,-311,-248
-140,-185,-40,159,-48,-112,338,319,290,31,-311,-248
-146,-185,-34,165,-54,-112,344,325,302,37,-311,-242
-146,-185,-34,165,-54,-112,350,331,302,37,-311,-242
-146,-185,-34,165,-54,-112,356,343,320,37,-311,-236
-146,-185,-34,165,-54,-112,362,349,332,37,-311,-242
-146,-185,-34,165,-54,-112,362,355,338,43,-317,-248
-146,-185,-34,165,-54,-112,374,367,344,55,-317,-248
-146,-185,-34,165,-54,-112,380,373,350,61,-323,-248
-146,-185,-34,165,-54,-112,386,391,356,73,-323,-254
-152,-185,-28,165,-60,-106,386,403,374,79,-323,-254
-152,-179,-22,165,-60,-100,398,415,380,85,-329,-254
-152,-179,-22,165,-60,-100,398,421,392,97,-329,-260
-152,-179,-22,165,-60,-100,404,427,404,97,-329,-260
-152,-185,-28,165,-60,-106,410,439,422,103,-329,-254
-152,-185,-28,165,-60,-106,422,451,428,109,-323,-254
-152,-185,-28,165,-60,-106,434,463,440,121,-317,-254
-152,-185,-28,165,-60,-106,440,469,458,127,-311,-254
-152,-179,-22,165,-60,-100,446,475,464,139,-305,-248
-152,-179,-22,165,-60,-100,458,499,476,145,-305,-254
-152,-173,-16,159,-66,-94,464,523,488,157,-293,-248
-152,-173,-16,159,-66,-94,476,535,506,163,-287,-248
-152,-173,-16,159,-66,-94,482,553,524,169,-293,-254
-152,-173,-16,159,-66,-94,482,559,542,175,-293,-254
-152,-179,-22,165,-60,-100,488,577,560,187,-293,-254
-152,-173,-16,159,-66,-94,500,595,572,193,-287,-254
-152,-167,-10,159,-66,-88,500,613,590,211,-293,-254
-152,-167,-10,159,-66,-88,512,631,602,217,-293,-254
-152,-167,-10,159,-66,-88,530,649,632,235,-293,-254
-152,-167,-10,159,-66,-88,542,673,644,247,-293,-254
-152,-161,-4,153,-72,-82,554,697,668,259,-281,-248
-152,-161,-4,153,-72,-82,566,715,686,265,-275,-254
-152,-149,8,147,-78,-70,578,733,710,277,-263,-248
-152,-143,14,147,-78,-64,584,751,722,295,-257,-248
-158,-149,14,153,-84,-70,590,763,740,307,-251,-242
-158,-137,19,147,-90,-58,596,775,758,313,-245,-236
-158,-137,19,147,-90,-58,602,787,782,331,-245,-236
-158,-131,19,141,-90,-52,620,805,800,343,-239,-236
-158,-125,25,141,-96,-46,632,823,818,355,-227,-230
-158,-125,25,141,-96,-46,644,847,836,361,-221,-224
-158,-107,43,129,-102,-28,650,865,848,373,-209,-218
-158,-101,49,129,-108,-22,656,889,866,391,-203,-218
-158,-101,49,129,-108,-22,662,901,890,403,-191,-212
-158,-95,55,123,-108,-16,668,907,908,421,-185,-206
-158,-95,55,123,-108,-16,680,919,932,439,-173,-200
-158,-95,55,123,-108,-16,686,931,944,451,-167,-194
-158,-83,67,117,-114,-4,692,943,950,463,-155,-200
-152,-77,67,111,-114,2,698,955,962,475,-149,-194
-152,-59,85,105,-120,13,698,961,980,493,-137,-200
-152,-53,91,99,-126,13,698,979,992,511,-137,-200
-152,-47,97,99,-126,19,692,985,1004,535,-125,-194
-152,-41,103,93,-132,25,698,1003,1022,547,-119,-176
-152,-35,109,93,-132,31,698,1009,1040,565,-95,-170
-152,-29,115,87,-138,37,698,1021,1058,589,-83,-170
-152,-29,115,87,-138,37,698,1027,1070,607,-77,-164
-146,-29,109,87,-132,31,698,1027,1082,619,-66,-158
-146,-23,115,81,-132,37,698,1027,1088,631,-66,-152
-146,-11,127,75,-138,49,698,1033,1094,649,-54,-146
-134,-5,121,69,-132,49,692,1033,1100,661,-36,-140
-134,1,127,63,-132,55,680,1039,1112,679,-30,-134
-134,6,139,57,-138,67,674,1039,1118,697,-24,-122
-134,6,145,57,-138,73,668,1039,1130,709,-12,-110
-134,6,145,57,-138,73,662,1033,1124,721,6,-98
-128,6,139,51,-132,73,656,1027,1130,733,18,-92
-128,6,139,51,-132,73,638,1009,1124,739,36,-86
-122,12,139,45,-132,73,632,997,1124,745,54,-80
-116,18,139,39,-126,79,614,991,1118,745,48,-74
-116,24,145,39,-132,85,602,967,1118,745,54,-68
-116,24,145,39,-132,85,572,961,1112,751,54,-56
-116,30,151,33,-132,91,554,943,1088,751,54,-38
-110,30,145,33,-126,85,536,919,1070,739,60,-38
-110,30,145,33,-126,85,518,901,1058,739,66,-32
-92,30,127,21,-108,79,512,883,1040,733,72,-26
-86,30,121,21,-102,73,494,859,1028,733,78,-20
-86,36,127,15,-108,79,482,835,1010,727,78,-15
-80,36,121,15,-102,79,464,823,992,727,84,-15
-86,36,127,15,-108,79,452,787,974,715,84,-15
-86,30,121,21,-102,73,428,763,956,715,90,-3
-86,30,121,21,-102,73,404,733,926,709,90,15
-74,30,109,15,-90,67,380,709,902,703,96,27
-68,30,103,9,-84,67,350,661,878,697,96,39
-62,36,103,3,-84,67,326,625,842,679,102,45
-62,30,97,9,-78,61,308,601,806,661,108,57
-56,30,91,3,-72,61,290,565,782,637,114,63
-50,30,85,3,-66,55,272,535,734,607,120,57
-50,30,85,3,-66,55,254,499,698,577,120,63
-56,24,85,9,-72,55,236,451,650,553,120,69
-56,30,91,3,-72,61,212,409,608,529,120,75
-56,24,85,9,-72,55,182,367,560,499,114,75
-56,24,85,9,-72,55,158,325,518,469,114,81
-56,24,85,9,-72,55,146,277,476,439,96,81
-50,18,73,9,-60,43,116,235,428,391,90,81
-50,24,79,3,-66,49,104,211,386,355,78,87
-50,12,67,9,-60,37,86,181,344,325,72,87
-50,6,61,15,-54,31,74,151,308,277,54,81
-56,6,61,21,-60,31,68,121,272,241,36,81
-56,6,55,21,-60,25,50,91,242,211,18,69
-56,6,55,21,-60,25,32,67,212,187,0,51
-56,-5,43,27,-54,13,26,43,176,163,-12,45
-56,-11,37,33,-48,13,14,13,146,139,-24,39
-68,-23,37,45,-54,13,8,1,116,109,-30,21
-68,-29,31,45,-54,8,2,-11,86,85,-36,15
-68,-35,25,51,-48,2,2,-22,62,61,-48,3
-68,-41,19,51,-48,-4,-4,-40,50,37,-66,3
-68,-47,19,57,-42,-10,-4,-46,32,13,-71,-3
-74,-59,19,63,-42,-22,-4,-52,26,1,-83,-9
-74,-65,14,69,-42,-28,-4,-70,8,-11,-89,-15
-80,-71,14,75,-42,-28,-4,-82,-10,-23,-101,-15
-80,-71,14,75,-42,-28,-15,-100,-22,-28,-107,-20
-80,-77,8,75,-42,-34,-15,-112,-22,-34,-107,-38
-80,-77,8,75,-42,-34,-15,-112,-33,-46,-113,-38
-86,-77,14,81,-48,-34,-15,-112,-39,-52,-119,-44
-92,-83,14,87,-48,-34,-15,-118,-39,-64,-119,-50
-92,-83,14,87,-48,-34,-15,-124,-51,-70,-125,-50
-92,-83,14,87,-48,-34,-21,-124,-51,-76,-137,-56
-92,-89,8,87,-48,-40,-21,-124,-57,-82,-143,-62
-92,-89,8,87,-48,-40,-33,-124,-57,-88,-143,-68
-92,-89,8,87,-48,-40,-33,-124,-57,-88,-149,-68
-86,-89,2,87,-42,-46,-39,-124,-69,-94,-155,-74
-86,-89,2,87,-42,-46,-39,-124,-69,-100,-155,-74
-86,-89,2,87,-42,-46,-45,-124,-81,-100,-161,-80
-86,-89,2,87,-42,-46,-45,-130,-81,-100,-167,-80
-92,-89,8,87,-48,-40,-45,-130,-81,-100,-161,-80
-92,-95,2,93,-42,-46,-45,-130,-81,-100,-167,-86
-92,-95,2,93,-42,-46,-45,-130,-87,-106,-167,-86
-92,-101,-4,93,-42,-52,-39,-130,-87,-112,-167,-86
-92,-101,-4,93,-42,-52,-39,-136,-87,-118,-167,-80
-92,-101,-4,93,-42,-52,-39,-136,-87,-118,-161,-80
-92,-101,-4,93,-42,-52,-45,-136,-93,-124,-155,-80
-92,-101,-4,93,-42,-52,-45,-136,-93,-124,-155,-80
-92,-107,-10,99,-36,-58,-45,-142,-93,-124,-161,-86
-92,-101,-4,93,-42,-52,-45,-142,-99,-124,-155,-80
-92,-95,2,93,-42,-46,-45,-148,-99,-124,-161,-86
-92,-89,8,87,-48,-40,-45,-148,-99,-118,-161,-86
-92,-95,2,93,-42,-46,-51,-142,-99,-118,-155,-86
-98,-95,8,93,-48,-46,-51,-142,-99,-118,-155,-92
-98,-101,2,99,-48,-52,-57,-136,-99,-118,-149,-92
-92,-95,2,93,-42,-46,-51,-136,-99,-118,-149,-86
-92,-95,2,93,-42,-46,-51,-136,-93,-118,-155,-80
-92,-95,2,93,-42,-46,-51,-136,-93,-118,-149,-80
-92,-95,2,93,-42,-46,-51,-136,-93,-118,-155,-74
-92,-95,2,93,-42,-46,-45,-136,-93,-118,-155,-74
-98,-95,8,93,-48,-46,-45,-130,-93,-112,-155,-74
-98,-95,8,93,-48,-46,-45,-130,-87,-112,-155,-74
-104,-95,14,99,-54,-40,-45,-130,-87,-106,-161,-74
-104,-95,14,99,-54,-40,-45,-130,-87,-106,-161,-74
-98,-95,8,93,-48,-46,-45,-130,-81,-106,-161,-80
-98,-95,8,93,-48,-46,-45,-124,-81,-106,-161,-80
-92,-95,2,93,-42,-46,-45,-124,-81,-106,-161,-86
-92,-95,2,93,-42,-46,-39,-124,-81,-100,-161,-86
-92,-89,8,87,-48,-40,-39,-112,-81,-100,-161,-80
-92,-89,8,87,-48,-40,-39,-112,-75,-100,-161,-80
-92,-83,14,87,-48,-34,-39,-106,-75,-100,-161,-74
-92,-83,14,87,-48,-34,-39,-106,-75,-100,-167,-74
-92,-83,14,87,-48,-34,-39,-106,-75,-94,-167,-74
-92,-83,14,87,-48,-34,-39,-106,-75,-94,-167,-74
-98,-83,19,87,-54,-34,-45,-112,-69,-88,-161,-74
-98,-83,19,87,-54,-34,-39,-106,-69,-88,-161,-80
-92,-83,14,87,-48,-34,-33,-106,-69,-88,-161,-74
-92,-83,14,87,-48,-34,-33,-106,-69,-88,-161,-80
-92,-83,14,87,-48,-34,-27,-106,-63,-82,-161,-74
-92,-83,14,87,-48,-34,-27,-106,-57,-82,-161,-74
-92,-83,14,87,-48,-34,-27,-100,-63,-88,-161,-80
-98,-83,19,87,-54,-34,-27,-100,-63,-88,-161,-80
-98,-83,19,87,-54,-34,-33,-100,-69,-88,-161,-86
-98,-83,19,87,-54,-34,-33,-100,-69,-88,-161,-86
-98,-83,19,87,-54,-34,-27,-100,-63,-88,-161,-86
-98,-83,19,87,-54,-34,-27,-100,-63,-88,-161,-86
-98,-83,19,87,-54,-34,-27,-106,-57,-82,-161,-86
-98,-83,19,87,-54,-34,-27,-106,-57,-82,-167,-86
-98,-83,19,87,-54,-34,-33,-100,-63,-76,-173,-86
-98,-83,19,87,-54,-34,-33,-100,-63,-76,-173,-92
-98,-83,19,87,-54,-34,-39,-94,-69,-76,-173,-92
-98,-83,19,87,-54,-34,-33,-94,-69,-76,-173,-92
-98,-83,19,87,-54,-34,-33,-100,-69,-82,-179,-92
-98,-77,19,87,-60,-28,-33,-94,-69,-82,-185,-92
-104,-77,19,87,-66,-22,-33,-100,-69,-88,-185,-92
-110,-77,25,93,-72,-22,-33,-100,-69,-88,-185,-92
-104,-77,19,87,-66,-22,-33,-100,-63,-88,-185,-92
-104,-83,19,93,-60,-28,-33,-100,-63,-88,-185,-98
-98,-83,19,87,-54,-34,-27,-106,-69,-88,-185,-98
-98,-83,19,87,-54,-34,-27,-106,-69,-88,-185,-98
-98,-83,19,87,-54,-34,-27,-106,-69,-88,-185,-98
-98,-77,19,87,-60,-28,-27,-106,-69,-94,-185,-98
-98,-77,19,87,-60,-28,-27,-106,-69,-94,-185,-104
-98,-83,19,87,-54,-34,-27,-106,-69,-94,-179,-104
-98,-83,19,87,-54,-34,-27,-106,-75,-94,-185,-98
-98,-83,19,87,-54,-34,-27,-106,-75,-94,-185,-98
-98,-77,19,87,-60,-28,-27,-106,-81,-94,-191,-92
-98,-77,19,87,-60,-28,-27,-106,-81,-94,-197,-92
-98,-77,19,87,-60,-28,-33,-106,-81,-94,-197,-98
-98,-77,19,87,-60,-28,-27,-106,-81,-94,-197,-104
-98,-71,19,81,-60,-22,-33,-106,-81,-94,-203,-110
-98,-71,19,81,-60,-22,-39,-106,-81,-94,-203,-122
-98,-83,19,87,-54,-34,-33,-106,-81,-100,-209,-116
-98,-83,19,87,-54,-34,-39,-106,-87,-100,-209,-122
-98,-89,14,93,-54,-40,-33,-106,-93,-100,-215,-116
-98,-89,14,93,-54,-40,-33,-112,-93,-100,-221,-116
-98,-89,14,93,-54,-40,-33,-118,-93,-100,-227,-116
-98,-89,14,93,-54,-40,-33,-118,-99,-100,-227,-116
-98,-95,8,93,-48,-46,-39,-118,-99,-106,-227,-116
-98,-101,2,99,-48,-52,-39,-118,-99,-106,-227,-116
-92,-95,2,93,-42,-46,-33,-118,-99,-106,-233,-122
-92,-95,2,93,-42,-46,-33,-118,-99,-106,-233,-122
-86,-89,2,87,-42,-46,-27,-124,-105,-112,-233,-128
-92,-89,8,87,-48,-40,-27,-124,-105,-112,-233,-134
-98,-89,14,93,-54,-40,-27,-124,-105,-118,-233,-128
-98,-89,14,93,-54,-40,-27,-124,-105,-118,-233,-128
-104,-95,14,99,-54,-40,-27,-124,-105,-130,-233,-128
-104,-95,14,99,-54,-40,-27,-124,-111,-136,-227,-128
-104,-101,8,99,-54,-46,-27,-124,-117,-130,-227,-128
-104,-101,8,99,-54,-46,-27,-124,-117,-130,-227,-128
-104,-107,2,105,-48,-52,-33,-124,-123,-124,-221,-134
-104,-107,2,105,-48,-52,-33,-130,-123,-124,-221,-134
-104,-107,2,105,-48,-52,-27,-124,-129,-130,-221,-134
-104,-107,2,105,-48,-52,-27,-130,-129,-130,-227,-134
-98,-113,-10,105,-42,-64,-21,-124,-129,-130,-233,-134
-98,-113,-10,105,-42,-64,-27,-124,-129,-136,-233,-134
-110,-107,8,105,-54,-52,-27,-130,-129,-130,-233,-134
-110,-107,8,105,-54,-52,-27,-130,-129,-130,-233,-140
-110,-95,19,99,-60,-40,-27,-136,-135,-124,-233,-140
-104,-89,19,93,-60,-34,-27,-136,-135,-124,-233,-140
-98,-89,14,93,-54,-40,-33,-136,-135,-124,-239,-146
-104,-89,19,93,-60,-34,-33,-142,-141,-124,-233,-146
-98,-89,14,93,-54,-40,-39,-142,-141,-130,-233,-158
-98,-89,14,93,-54,-40,-39,-142,-147,-130,-233,-158
-104,-95,14,99,-54,-40,-39,-142,-147,-130,-233,-158
-104,-95,14,99,-54,-40,-39,-142,-147,-130,-233,-158
-110,-95,19,99,-60,-40,-39,-142,-147,-130,-239,-158
-110,-101,14,105,-60,-46,-39,-142,-147,-136,-245,-164
-110,-107,8,105,-54,-52,-39,-142,-147,-136,-245,-164
-104,-107,2,105,-48,-52,-39,-136,-147,-136,-245,-158
-104,-119,-10,111,-42,-64,-39,-136,-147,-136,-245,-158
-110,-119,-4,111,-48,-64,-39,-136,-147,-136,-251,-164
-110,-113,2,111,-54,-58,-39,-142,-147,-130,-245,-164
-104,-107,2,105,-48,-52,-33,-136,-147,-136,-239,-164
-104,-107,2,105,-48,-52,-39,-136,-153,-142,-245,-164
-104,-107,2,105,-48,-52,-39,-136,-153,-142,-245,-164
-104,-107,2,105,-48,-52,-45,-136,-159,-148,-251,-164
-104,-107,2,105,-48,-52,-45,-136,-159,-148,-251,-164
-104,-107,2,105,-48,-52,-45,-142,-153,-142,-251,-164
-104,-107,2,105,-48,-52,-45,-142,-153,-142,-251,-164
-104,-107,2,105,-48,-52,-45,-148,-147,-136,-251,-164
-104,-107,2,105,-48,-52,-45,-148,-147,-136,-251,-164
-104,-107,2,105,-48,-52,-45,-148,-153,-136,-251,-164
-104,-113,-4,105,-48,-58,-45,-148,-153,-136,-251,-164
-104,-113,-4,105,-48,-58,-45,-148,-159,-130,-251,-164
-104,-113,-4,105,-48,-58,-45,-148,-159,-130,-251,-164
-104,-113,-4,105,-48,-58,-45,-148,-159,-136,-257,-164
-104,-113,-4,105,-48,-58,-45,-148,-159,-136,-257,-164
-104,-113,-4,105,-48,-58,-45,-148,-159,-136,-263,-170
-104,-107,2,105,-48,-52,-45,-148,-165,-136,-269,-170
-104,-107,2,105,-48,-52,-45,-148,-159,-142,-269,-170
-104,-107,2,105,-48,-52,-45,-148,-159,-142,-269,-170
-104,-107,2,105,-48,-52,-45,-148,-153,-148,-263,-170
-104,-107,2,105,-48,-52,-45,-148,-153,-148,-263,-170
-104,-107,2,105,-48,-52,-45,-142,-153,-142,-263,-170
-104,-107,2,105,-48,-52,-45,-136,-147,-142,-263,-164
-104,-107,2,105,-48,-52,-45,-130,-147,-130,-263,-164
-104,-107,2,105,-48,-52,-45,-130,-147,-124,-263,-164
-98,-95,8,93,-48,-46,-39,-124,-141,-124,-257,-158
-98,-89,14,93,-54,-40,-33,-118,-129,-124,-245,-158
-98,-89,14,93,-54,-40,-33,-118,-123,-112,-245,-140
-92,-83,14,87,-48,-34,-33,-112,-117,-106,-239,-140
-92,-65,19,75,-60,-16,-27,-112,-117,-106,-233,-146
-92,-59,25,75,-60,-10,-27,-112,-117,-100,-233,-134
-92,-41,43,63,-72,8,-21,-112,-117,-100,-233,-134
-92,-35,49,63,-72,13,-21,-106,-117,-100,-233,-134
-86,-35,43,57,-66,8,-27,-106,-117,-88,-221,-134
-86,-35,43,57,-66,8,-27,-106,-117,-88,-221,-134
-86,-41,37,63,-66,2,-33,-106,-111,-88,-215,-128
-86,-41,37,63,-66,2,-33,-106,-111,-88,-209,-128
-92,-29,55,57,-78,13,-33,-106,-111,-88,-215,-122
-92,-29,55,57,-78,13,-33,-106,-111,-94,-215,-122
-98,-23,67,57,-84,13,-45,-112,-117,-94,-221,-116
-98,-17,73,57,-90,19,-63,-124,-129,-94,-209,-116
-92,-5,79,45,-90,31,-69,-124,-117,-82,-197,-110
-92,1,85,45,-90,37,-69,-124,-105,-70,-191,-104
-86,6,91,33,-90,43,-69,-124,-99,-52,-179,-104
-80,6,85,33,-84,43,-69,-124,-99,-46,-173,-98
-74,6,73,33,-78,31,-63,-118,-93,-46,-173,-92
-68,6,67,27,-72,31,-63,-106,-87,-40,-167,-92
-74,1,67,33,-72,25,-51,-100,-81,-34,-161,-86
-68,1,61,33,-66,25,-51,-82,-75,-28,-155,-80
-56,6,55,21,-60,25,-57,-64,-57,-23,-149,-68
-56,6,55,21,-60,25,-45,-52,-45,-23,-137,-62
-44,6,43,15,-48,19,-45,-40,-33,-11,-131,-56
-44,6,43,15,-48,19,-45,-40,-33,-11,-131,-56
-44,6,43,15,-48,19,-45,-46,-33,-5,-131,-50
-44,6,43,15,-48,19,-45,-46,-33,-5,-131,-50
-44,6,43,15,-48,19,-45,-46,-33,7,-125,-50
-44,6,43,15,-48,19,-45,-34,-27,7,-119,-44
-38,6,37,15,-42,13,-45,-34,-22,19,-119,-38
-38,6,37,15,-42,13,-39,-16,-16,25,-113,-38
-38,6,37,15,-42,13,-39,-11,-4,19,-119,-38
-38,1,31,15,-36,13,-39,-11,2,19,-119,-38
-50,1,43,21,-48,13,-21,-5,8,25,-119,-50
-50,-11,31,27,-42,13,-4,19,14,25,-119,-50
-50,-29,19,39,-36,-4,44,55,44,37,-113,-44
-56,-29,19,39,-42,2,122,127,80,43,-131,-62
-62,-47,19,51,-36,-16,200,181,92,43,-149,-68
-80,-71,14,75,-42,-28,242,217,98,19,-179,-104
-86,-89,2,87,-42,-46,308,253,110,1,-209,-140
-80,-95,-10,87,-30,-52,380,319,152,13,-221,-164
-92,-101,-4,93,-42,-52,404,385,200,25,-233,-176
-86,-113,-22,99,-30,-70,368,421,218,31,-221,-170
-86,-119,-28,99,-24,-76,368,457,242,43,-221,-170
-74,-137,-58,105,-19,-100,392,559,302,67,-221,-164
-62,-143,-76,99,-1,-112,398,703,404,127,-191,-146
-44,-131,-82,87,11,-106,374,793,482,187,-173,-134
-32,-125,-88,75,17,-106,332,859,548,211,-155,-128
-20,-137,-112,75,35,-124,230,865,560,223,-149,-116
-3,-137,-142,63,65,-136,122,883,584,223,-131,-104
21,-137,-166,51,89,-148,80,931,626,259,-107,-86
39,-113,-160,27,95,-136,38,955,662,289,-83,-74
45,-101,-154,21,95,-124,-9,943,680,319,-60,-38
57,-101,-166,15,107,-130,-57,961,710,361,-24,-15
81,-95,-184,3,131,-136,-135,913,710,391,6,9
99,-77,-184,-2,137,-130,-255,763,632,403,30,39
105,-53,-166,-20,131,-106,-345,559,512,379,60,69
105,-41,-154,-26,125,-94,-429,361,398,349,66,75
129,-17,-154,-50,137,-82,-549,133,260,349,102,99
153,6,-142,-80,149,-58,-711,-112,128,355,168,147
159,48,-106,-104,131,-22,-873,-370,-57,277,198,201
159,66,-88,-110,125,-4,-987,-586,-261,193,210,231
177,78,-94,-128,137,2,-1071,-730,-363,175,246,285
183,120,-58,-152,119,25,-1143,-850,-429,217,324,363
189,168,-16,-176,101,73,-1221,-1006,-507,241,420,447
201,204,8,-200,95,103,-1323,-1168,-603,259,492,519
219,210,-4,-212,113,97,-1419,-1306,-711,235,540,585
237,222,-16,-230,131,97,-1527,-1480,-861,199,588,645
273,234,-40,-248,161,91,-1701,-1780,-1107,121,666,729
309,222,-88,-260,203,61,-1899,-2146,-1479,-34,702,813
339,192,-148,-260,239,19,-2079,-2487,-1863,-280,696,879
375,204,-172,-284,269,13,-2235,-2793,-2235,-538,726,969
417,246,-172,-326,293,31,-2391,-3063,-2552,-748,816,1113
447,300,-142,-374,293,79,-2492,-3225,-2744,-880,906,1269
471,342,-130,-410,299,103,-2492,-3249,-2834,-1024,918,1359
477,372,-106,-428,293,133,-2403,-3123,-2786,-1114,906,1407
525,408,-118,-470,323,145,-2301,-2955,-2660,-1114,948,1497
597,438,-160,-512,377,139,-2283,-2817,-2558,-1102,1038,1617
681,426,-250,-548,467,85,-2277,-2709,-2498,-1126,1146,1761
741,414,-328,-578,533,37,-2265,-2637,-2456,-1114,1248,1923
789,450,-340,-620,563,49,-2247,-2595,-2415,-1078,1392,2060
801,486,-316,-644,557,79,-2217,-2559,-2361,-1012,1536,2210
813,492,-316,-656,563,85,-2175,-2517,-2319,-940,1686,2348
783,510,-268,-650,527,121,-2097,-2457,-2277,-856,1794,2419
747,546,-202,-650,473,175,-2013,-2422,-2235,-784,1866,2431
687,558,-124,-620,407,217,-1905,-2338,-2157,-730,1860,2402
621,534,-82,-578,353,229,-1737,-2164,-1995,-658,1740,2252
561,474,-88,-512,323,193,-1557,-1906,-1749,-568,1518,2019
507,354,-154,-434,329,97,-1347,-1612,-1473,-490,1212,1743
465,234,-226,-344,347,8,-1161,-1324,-1221,-448,900,1449
387,132,-250,-254,317,-52,-981,-1138,-1053,-424,612,1161
297,78,-220,-188,257,-64,-831,-988,-951,-424,396,903
207,60,-142,-134,173,-34,-681,-850,-837,-424,204,681
129,30,-94,-80,113,-22,-525,-682,-705,-400,30,471
75,1,-82,-32,77,-40,-393,-544,-585,-382,-101,255
39,-35,-82,3,59,-58,-285,-418,-477,-358,-191,111
9,-53,-70,15,35,-58,-195,-286,-357,-298,-215,27
-15,-65,-58,33,17,-58,-117,-178,-237,-232,-197,-9
-26,-53,-22,39,-13,-40,-75,-94,-159,-172,-191,-20
-44,-53,-4,45,-19,-28,-33,-40,-99,-136,-203,-56
-56,-59,2,57,-24,-28,-4,-5,-45,-94,-221,-86
-80,-77,8,75,-42,-34,56,49,-4,-46,-227,-110
-80,-101,-16,87,-30,-58,98,97,26,-23,-233,-134
-86,-119,-28,99,-24,-76,134,139,56,-23,-245,-152
-98,-137,-34,117,-30,-88,170,157,68,-11,-251,-158
-98,-143,-40,117,-24,-94,188,169,92,-11,-257,-176
-98,-143,-40,117,-24,-94,194,193,110,-11,-269,-182
-110,-143,-28,123,-36,-88,194,205,122,-11,-275,-188
-116,-143,-22,129,-42,-82,194,211,134,-5,-287,-206
-122,-143,-16,129,-48,-82,206,223,146,-11,-299,-218
-122,-143,-16,129,-48,-82,212,229,158,-11,-305,-230
-128,-149,-16,135,-54,-82,236,241,164,-11,-305,-242
-128,-155,-22,141,-48,-88,236,259,170,-5,-305,-248
-128,-161,-28,141,-48,-94,254,277,188,1,-305,-254
-128,-161,-28,141,-48,-94,266,295,206,7,-305,-254
-128,-161,-28,141,-48,-94,284,307,218,13,-305,-254
-128,-161,-28,141,-48,-94,290,319,230,19,-305,-254
-134,-155,-16,141,-54,-88,290,325,230,31,-305,-254
-134,-155,-16,141,-54,-88,296,331,230,31,-305,-254
-134,-149,-10,141,-60,-82,296,343,236,37,-305,-254
-134,-149,-10,141,-60,-82,302,349,248,37,-305,-260
-140,-149,-4,141,-66,-76,308,355,254,37,-305,-266
-140,-149,-4,141,-66,-76,320,367,260,49,-305,-266
-146,-149,2,147,-72,-76,332,373,266,49,-311,-266
-146,-149,2,147,-72,-76,338,391,272,61,-311,-272
-146,-149,2,147,-72,-76,344,409,290,61,-311,-272
-146,-143,8,141,-72,-70,356,421,296,61,-317,-272
-140,-143,2,141,-66,-70,362,433,308,67,-317,-272
-140,-143,2,141,-66,-70,368,439,320,61,-317,-272
-140,-143,2,141,-66,-70,368,445,332,67,-317,-266
-140,-143,2,141,-66,-70,380,457,338,73,-317,-266
-140,-137,8,135,-72,-64,386,463,344,85,-311,-260
-140,-137,8,135,-72,-64,392,469,362,91,-311,-260
-140,-131,14,135,-72,-58,392,481,374,97,-317,-266
-140,-131,14,135,-72,-58,404,505,386,103,-311,-272
-140,-125,19,129,-78,-52,404,535,398,109,-311,-278
-140,-125,19,129,-78,-52,416,547,416,115,-305,-278
-140,-125,19,129,-78,-52,434,565,434,121,-305,-278
-140,-125,19,129,-78,-52,440,571,452,127,-305,-278
-140,-131,14,135,-72,-58,458,589,464,139,-305,-278
-140,-125,19,129,-78,-52,470,607,476,145,-299,-278
-140,-119,19,129,-78,-46,470,625,488,157,-299,-272
-140,-119,19,129,-78,-46,482,643,500,163,-299,-272
-140,-119,19,129,-78,-46,494,661,524,181,-293,-272
-140,-119,19,129,-78,-46,506,685,536,193,-293,-272
-140,-113,19,123,-84,-40,512,709,560,205,-293,-272
-140,-113,19,123,-84,-40,524,721,578,211,-287,-278
-140,-101,31,117,-90,-28,530,745,602,217,-287,-278
-140,-95,37,117,-90,-22,536,763,620,235,-281,-278
-146,-95,43,117,-96,-22,548,781,632,241,-275,-272
-146,-83,55,111,-102,-10,554,793,650,247,-269,-266
-146,-77,61,111,-108,-4,566,811,668,259,-269,-266
-146,-71,67,105,-108,2,584,829,686,271,-263,-266
-146,-77,61,111,-108,-4,596,847,710,289,-251,-266
-146,-77,61,111,-108,-4,608,871,722,295,-239,-260
-146,-71,67,105,-108,2,614,889,740,313,-227,-260
-146,-65,73,105,-114,8,620,913,758,331,-215,-260
-146,-59,79,99,-114,13,626,931,776,337,-215,-260
-146,-53,85,99,-120,13,632,937,794,355,-209,-254
-146,-47,91,93,-120,13,644,955,812,367,-209,-254
-146,-47,91,93,-120,13,650,961,824,379,-203,-254
-146,-35,103,87,-126,25,656,973,830,397,-191,-254
-140,-29,103,81,-126,31,668,985,854,409,-185,-248
-140,-11,121,75,-132,49,668,997,872,427,-173,-248
-140,-5,127,69,-138,55,674,1015,890,445,-173,-248
-140,-5,127,69,-138,55,668,1027,908,463,-161,-242
-140,1,133,69,-138,61,674,1045,926,469,-155,-224
-140,1,133,69,-138,61,674,1057,950,481,-131,-218
-140,6,139,63,-144,67,674,1069,962,505,-119,-218
-140,6,139,63,-144,67,674,1081,974,523,-113,-212
-134,6,133,63,-138,61,674,1081,992,535,-95,-206
-134,6,139,57,-138,67,674,1087,998,547,-89,-200
-134,12,151,51,-144,79,674,1093,1010,565,-77,-194
-122,18,145,45,-132,79,668,1099,1022,583,-66,-188
-122,24,151,39,-138,85,656,1105,1034,601,-60,-182
-122,36,163,33,-144,97,650,1111,1046,625,-48,-170
-122,42,169,33,-144,103,644,1111,1058,643,-36,-158
-122,42,169,33,-144,103,638,1111,1058,655,-30,-146
-116,42,163,27,-138,103,632,1111,1064,667,-18,-140
-116,42,163,27,-138,103,614,1099,1064,673,-12,-134
-110,48,163,21,-138,103,608,1093,1064,679,6,-128
-98,54,157,15,-126,103,596,1075,1058,679,6,-122
-98,60,163,9,-132,109,584,1051,1064,679,18,-116
-92,60,157,9,-126,109,560,1027,1058,685,24,-104
-92,66,163,3,-126,115,542,1009,1040,685,30,-86
-92,72,169,3,-132,121,518,991,1028,685,30,-86
-92,72,169,3,-132,121,500,973,1016,685,36,-80
-80,78,163,3,-120,121,488,961,1004,691,36,-74
-74,78,157,3,-114,115,476,943,992,691,42,-68
-68,84,157,-2,-114,121,452,919,974,691,54,-56
-62,84,151,-2,-108,115,434,901,956,691,60,-44
-62,84,151,-2,-108,115,416,865,944,685,72,-38
-62,78,145,-2,-102,109,392,835,926,685,78,-26
-62,84,151,-2,-108,115,374,805,890,667,90,-15
-50,84,139,-8,-96,109,350,775,866,661,96,-15
-44,90,139,-14,-90,115,326,727,842,649,108,-9
-38,96,139,-20,-90,115,302,697,806,631,114,-3
-38,90,133,-20,-84,109,278,661,770,619,108,21
-32,90,127,-20,-78,109,254,625,746,601,114,27
-26,90,121,-26,-72,103,236,583,704,577,108,33
-26,90,121,-26,-72,103,212,547,662,553,108,39
-20,90,115,-26,-66,103,188,487,614,523,114,57
-20,96,121,-32,-72,109,164,451,572,493,114,63
-15,96,109,-38,-60,103,134,403,524,463,114,75
-15,96,109,-38,-60,103,110,361,482,427,114,81
-15,90,109,-32,-60,97,98,313,446,397,108,75
-15,84,97,-32,-54,91,68,265,392,355,102,69
-15,84,103,-26,-60,91,56,235,350,325,102,69
-15,72,91,-20,-54,79,38,205,308,301,96,63
-15,66,85,-20,-48,73,26,175,272,259,78,63
-20,60,85,-14,-54,73,20,145,230,223,60,63
-20,54,79,-8,-48,67,2,115,206,199,42,57
-20,54,79,-8,-48,67,-4,91,164,175,24,39
-20,42,67,-2,-42,55,-9,61,128,145,12,39
-20,36,61,-2,-42,49,-21,31,98,121,0,33
-32,24,61,3,-48,43,-27,13,68,85,-6,21
-32,18,55,3,-42,37,-33,-11,38,61,-12,15
-32,18,55,3,-42,37,-33,-11,14,43,-24,-3
-32,12,49,3,-42,31,-39,-28,-4,19,-42,-3
-32,12,49,3,-42,31,-39,-34,-22,1,-60,-15
-38,6,43,9,-42,19,-45,-40,-22,-11,-66,-15
-38,6,37,15,-42,13,-45,-52,-33,-23,-66,-15
-44,1,37,21,-42,13,-45,-64,-51,-34,-77,-20
-44,1,37,21,-42,13,-51,-76,-57,-52,-83,-20
-44,-5,31,21,-42,13,-51,-88,-63,-58,-83,-38
-44,-5,31,21,-42,13,-57,-94,-81,-70,-89,-38
-50,-5,37,27,-48,13,-57,-94,-87,-76,-95,-44
-56,-11,37,33,-48,13,-63,-106,-87,-88,-95,-50
-56,-11,37,33,-48,13,-63,-112,-99,-94,-101,-50
-56,-11,37,33,-48,13,-63,-118,-105,-94,-113,-56
-56,-17,31,33,-48,13,-63,-118,-111,-100,-119,-62
-56,-17,31,33,-48,13,-69,-124,-117,-100,-119,-68
-56,-17,31,33,-48,13,-69,-124,-117,-100,-125,-68
-50,-17,25,33,-42,8,-69,-124,-123,-112,-125,-68
-50,-17,25,33,-42,8,-69,-124,-123,-118,-125,-68
-50,-17,25,33,-42,8,-69,-124,-129,-124,-125,-68
-50,-17,25,33,-42,8,-69,-130,-129,-124,-131,-68
-50,-17,25,33,-42,8,-75,-130,-129,-124,-125,-68
-50,-23,19,33,-36,2,-75,-130,-129,-124,-131,-74
-44,-23,19,33,-30,2,-81,-130,-135,-130,-131,-74
-44,-29,19,33,-30,-4,-75,-130,-135,-136,-131,-74
-50,-23,19,33,-36,2,-75,-136,-135,-130,-131,-68
-50,-23,19,33,-36,2,-75,-136,-135,-130,-125,-68
-56,-17,31,33,-48,13,-81,-136,-141,-124,-119,-68
-56,-17,31,33,-48,13,-81,-136,-141,-124,-119,-68
-50,-23,19,33,-36,2,-81,-142,-135,-130,-125,-74
-50,-23,19,33,-36,2,-81,-142,-141,-130,-119,-68
-44,-17,19,27,-36,8,-81,-148,-135,-136,-125,-74
-44,-17,19,27,-36,8,-81,-148,-135,-130,-125,-74
-44,-17,19,27,-36,8,-75,-142,-141,-130,-125,-74
-50,-17,25,33,-42,8,-75,-142,-141,-130,-125,-80
-50,-17,25,33,-42,8,-69,-136,-147,-130,-125,-80
-44,-11,25,27,-36,13,-63,-136,-147,-130,-125,-74
-44,-17,19,27,-36,8,-63,-136,-141,-130,-125,-74
-44,-17,19,27,-36,8,-63,-136,-141,-130,-119,-74
-44,-23,19,33,-30,2,-63,-136,-141,-130,-119,-74
-44,-23,19,33,-30,2,-57,-136,-141,-130,-119,-74
-44,-23,19,33,-30,2,-57,-130,-135,-130,-119,-68
-44,-23,19,33,-30,2,-57,-130,-129,-130,-119,-68
-44,-23,19,33,-30,2,-57,-130,-123,-130,-125,-62
-44,-23,19,33,-30,2,-57,-130,-123,-130,-125,-62
-44,-17,19,27,-36,8,-57,-130,-117,-130,-125,-68
-44,-17,19,27,-36,8,-57,-124,-117,-130,-125,-68
-44,-11,25,27,-36,13,-57,-124,-117,-130,-125,-74
-44,-11,25,27,-36,13,-51,-124,-117,-124,-125,-74
-44,-11,25,27,-36,13,-51,-118,-123,-130,-125,-74
-44,-11,25,27,-36,13,-51,-118,-117,-130,-125,-74
-44,-11,25,27,-36,13,-51,-118,-123,-136,-125,-74
-44,-11,25,27,-36,13,-51,-118,-123,-136,-131,-74
-44,-11,25,27,-36,13,-51,-112,-123,-136,-137,-80
-44,-11,25,27,-36,13,-51,-112,-123,-136,-137,-80
-50,-11,31,27,-42,13,-57,-112,-117,-136,-137,-86
-50,-11,31,27,-42,13,-51,-106,-117,-136,-137,-92
-50,-11,31,27,-42,13,-45,-106,-111,-136,-137,-86
-50,-11,31,27,-42,13,-45,-106,-111,-136,-137,-92
-56,-11,37,33,-48,13,-39,-106,-99,-130,-137,-86
-56,-11,37,33,-48,13,-39,-106,-93,-130,-137,-86
-56,-11,37,33,-48,13,-33,-100,-99,-136,-137,-86
-62,-11,43,33,-54,13,-33,-100,-99,-136,-137,-86
-62,-11,43,33,-54,13,-33,-100,-105,-136,-137,-86
-62,-11,43,33,-54,13,-33,-100,-105,-136,-137,-86
-62,-11,43,33,-54,13,-27,-100,-105,-142,-137,-92
-62,-11,43,33,-54,13,-27,-100,-105,-142,-137,-92
-62,-11,43,33,-54,13,-27,-106,-105,-142,-137,-98
-62,-11,43,33,-54,13,-27,-106,-105,-142,-143,-98
-62,-11,43,33,-54,13,-27,-106,-105,-142,-143,-92
-62,-11,43,33,-54,13,-27,-106,-105,-142,-143,-98
-62,-11,43,33,-54,13,-27,-106,-105,-148,-137,-92
-62,-11,43,33,-54,13,-21,-106,-105,-148,-137,-92
-56,-17,31,33,-48,13,-21,-106,-105,-142,-137,-92
-56,-11,37,33,-48,13,-21,-100,-105,-142,-143,-92
-56,-17,31,33,-48,13,-21,-100,-105,-136,-137,-92
-62,-17,37,39,-54,13,-21,-100,-105,-136,-137,-92
-62,-11,43,33,-54,13,-21,-94,-99,-136,-131,-92
-62,-17,37,39,-54,13,-21,-94,-99,-136,-131,-98
-62,-11,43,33,-54,13,-15,-94,-105,-136,-125,-98
-62,-11,43,33,-54,13,-15,-94,-105,-136,-125,-98
-56,-11,37,33,-48,13,-15,-94,-105,-136,-131,-98
-56,-5,43,27,-54,13,-15,-94,-105,-142,-131,-98
-50,-5,37,27,-48,13,-15,-94,-105,-142,-137,-104
-50,-11,31,27,-42,13,-15,-94,-105,-142,-131,-104
-56,-17,31,33,-48,13,-15,-100,-111,-142,-137,-110
-56,-17,31,33,-48,13,-15,-100,-111,-142,-131,-110
-62,-17,37,39,-54,13,-15,-106,-117,-142,-137,-116
-62,-17,37,39,-54,13,-15,-106,-117,-142,-137,-116
-62,-17,37,39,-54,13,-15,-106,-123,-148,-137,-116
-62,-17,37,39,-54,13,-9,-106,-123,-148,-137,-116
-62,-11,43,33,-54,13,-9,-106,-129,-154,-143,-116
-62,-11,43,33,-54,13,-15,-106,-129,-154,-143,-122
-62,-23,31,39,-48,8,-15,-100,-123,-154,-149,-122
-62,-23,31,39,-48,8,-21,-100,-129,-154,-149,-128
-62,-29,25,45,-48,2,-21,-94,-129,-148,-155,-128
-62,-29,25,45,-48,2,-21,-100,-129,-148,-161,-128
-62,-23,31,39,-48,8,-15,-106,-129,-154,-161,-134
-62,-23,31,39,-48,8,-15,-106,-135,-154,-155,-134
-62,-23,31,39,-48,8,-15,-106,-135,-166,-149,-140
-62,-29,25,45,-48,2,-15,-106,-135,-166,-143,-140
-62,-23,31,39,-48,8,-15,-112,-135,-166,-149,-140
-62,-23,31,39,-48,8,-15,-112,-135,-166,-149,-140
-62,-17,37,39,-54,13,-15,-124,-141,-172,-149,-140
-68,-17,43,39,-60,13,-15,-124,-141,-172,-149,-146
-68,-23,37,45,-54,13,-15,-124,-141,-166,-149,-140
-68,-23,37,45,-54,13,-15,-124,-141,-166,-149,-140
-68,-35,25,51,-48,2,-15,-124,-141,-166,-149,-140
-68,-35,25,51,-48,2,-15,-124,-147,-172,-143,-140
-62,-35,19,45,-42,-4,-15,-124,-147,-172,-149,-140
-62,-35,19,45,-42,-4,-15,-124,-147,-172,-149,-140
-56,-35,19,45,-36,-4,-21,-124,-147,-172,-149,-146
-56,-35,19,45,-36,-4,-21,-130,-147,-172,-149,-146
-62,-35,19,45,-42,-4,-21,-124,-159,-178,-149,-146
-62,-35,19,45,-42,-4,-21,-130,-159,-178,-155,-146
-62,-41,19,51,-42,-10,-21,-124,-165,-178,-161,-146
-62,-41,19,51,-42,-10,-27,-124,-165,-184,-161,-146
-68,-41,19,51,-48,-4,-27,-130,-165,-184,-155,-146
-68,-41,19,51,-48,-4,-27,-130,-165,-184,-155,-152
-62,-35,19,45,-42,-4,-27,-136,-171,-184,-149,-152
-56,-29,19,39,-42,2,-27,-136,-171,-184,-149,-152
-56,-35,19,45,-36,-4,-27,-130,-165,-184,-155,-152
-62,-35,19,45,-42,-4,-27,-136,-171,-184,-149,-152
-62,-41,19,51,-42,-10,-27,-130,-165,-190,-149,-158
-62,-41,19,51,-42,-10,-27,-130,-171,-190,-149,-158
-68,-41,19,51,-48,-4,-21,-136,-171,-196,-155,-158
-68,-41,19,51,-48,-4,-21,-136,-171,-196,-161,-158
-74,-35,31,51,-54,2,-15,-142,-171,-202,-173,-158
-74,-41,25,57,-54,-4,-15,-142,-171,-208,-185,-164
-74,-35,31,51,-54,2,-15,-142,-165,-202,-179,-164
-68,-35,25,51,-48,2,-15,-136,-165,-202,-179,-158
-68,-35,25,51,-48,2,-15,-136,-159,-196,-173,-158
-74,-35,31,51,-54,2,-15,-136,-159,-196,-179,-164
-74,-35,31,51,-54,2,-21,-142,-165,-196,-179,-164
-68,-35,25,51,-48,2,-21,-142,-165,-202,-185,-164
-68,-23,37,45,-54,13,-27,-142,-171,-208,-179,-164
-68,-23,37,45,-54,13,-27,-142,-171,-214,-179,-164
-68,-29,31,45,-54,8,-27,-142,-171,-214,-179,-170
-74,-29,37,51,-60,8,-27,-142,-171,-220,-179,-170
-74,-35,31,51,-54,2,-27,-142,-171,-220,-179,-176
-74,-35,31,51,-54,2,-27,-142,-177,-214,-179,-176
-68,-35,25,51,-48,2,-27,-142,-177,-214,-179,-176
-68,-29,31,45,-54,8,-27,-142,-177,-220,-185,-176
-62,-29,25,45,-48,2,-27,-148,-177,-220,-185,-182
-68,-35,25,51,-48,2,-27,-148,-177,-220,-185,-182
-68,-35,25,51,-48,2,-27,-136,-177,-208,-185,-182
-68,-35,25,51,-48,2,-21,-136,-171,-208,-203,-176
-68,-35,25,51,-48,2,-21,-142,-171,-208,-203,-176
-68,-35,25,51,-48,2,-21,-142,-171,-208,-203,-176
-68,-35,25,51,-48,2,-21,-148,-171,-208,-203,-176
-68,-35,25,51,-48,2,-21,-148,-171,-208,-203,-176
-68,-41,19,51,-48,-4,-21,-148,-171,-208,-203,-182
-68,-41,19,51,-48,-4,-21,-148,-171,-208,-203,-182
-68,-47,19,57,-42,-10,-21,-148,-171,-208,-203,-188
-68,-47,19,57,-42,-10,-21,-148,-171,-208,-203,-188
-68,-47,19,57,-42,-10,-21,-148,-171,-208,-203,-188
-68,-53,19,57,-42,-16,-21,-148,-171,-208,-203,-188
-68,-53,19,57,-42,-16,-21,-148,-171,-202,-203,-188
-68,-53,19,57,-42,-16,-21,-148,-171,-202,-203,-188
-68,-53,19,57,-42,-16,-21,-148,-177,-208,-203,-194
-68,-53,19,57,-42,-16,-21,-148,-177,-208,-203,-194
-68,-53,19,57,-42,-16,-21,-148,-183,-208,-203,-206
-68,-47,19,57,-42,-10,-21,-148,-189,-208,-209,-206
-68,-47,19,57,-42,-10,-21,-148,-183,-208,-209,-206
-68,-47,19,57,-42,-10,-21,-148,-183,-208,-209,-206
-68,-47,19,57,-42,-10,-21,-148,-177,-208,-203,-206
-68,-47,19,57,-42,-10,-21,-148,-177,-208,-203,-206
-62,-41,19,51,-42,-10,-21,-148,-177,-208,-203,-212
-62,-41,19,51,-42,-10,-21,-142,-171,-208,-203,-206
-56,-35,19,45,-36,-4,-21,-142,-171,-202,-203,-212
-56,-35,19,45,-36,-4,-21,-142,-171,-196,-203,-212
-50,-23,19,33,-36,2,-15,-136,-171,-196,-197,-218
-50,-17,25,33,-42,8,-9,-130,-159,-196,-185,-218
-50,-17,25,33,-42,8,-9,-130,-159,-184,-185,-212
-44,-11,25,27,-36,13,-9,-124,-153,-178,-179,-212
-44,1,37,21,-42,13,-4,-124,-147,-172,-173,-212
-44,6,43,15,-48,19,-4,-124,-147,-166,-173,-200
-44,6,55,9,-48,31,-4,-124,-141,-160,-173,-194
-44,12,61,9,-54,37,-4,-118,-141,-160,-173,-194
-38,18,61,3,-48,37,-4,-112,-141,-148,-167,-194
-38,18,61,3,-48,37,-4,-106,-141,-148,-167,-194
-38,18,61,3,-48,37,-4,-100,-135,-148,-167,-188
-38,18,61,3,-48,37,-4,-94,-135,-148,-161,-188
-44,24,73,3,-60,49,-4,-100,-135,-148,-161,-194
-44,24,73,3,-60,49,-4,-100,-135,-154,-161,-194
-50,24,79,3,-66,49,-9,-112,-141,-154,-161,-200
-50,30,85,3,-66,55,-27,-124,-153,-154,-149,-200
-50,36,91,3,-72,61,-33,-124,-141,-154,-149,-194
-50,42,97,3,-72,67,-33,-124,-129,-142,-149,-188
-50,48,103,3,-78,73,-33,-124,-123,-136,-149,-188
-44,48,97,3,-72,73,-33,-124,-123,-130,-149,-182
-32,48,85,-2,-60,67,-33,-124,-117,-130,-149,-182
-26,48,79,-2,-54,61,-33,-112,-111,-124,-143,-182
-26,48,79,-2,-54,61,-27,-112,-105,-118,-137,-182
-20,48,73,-8,-48,61,-27,-94,-99,-112,-131,-176
-15,54,73,-14,-42,61,-27,-76,-81,-88,-119,-170
-15,54,73,-14,-42,61,-15,-64,-69,-88,-107,-164
-15,54,67,-14,-36,61,-9,-52,-57,-70,-95,-164
-15,54,67,-14,-36,61,-9,-52,-57,-70,-95,-164
-15,54,61,-20,-30,61,-9,-58,-57,-70,-95,-158
-15,54,61,-20,-30,61,-9,-58,-57,-70,-95,-158
-9,54,55,-20,-24,55,-9,-58,-57,-64,-89,-158
-9,54,55,-20,-24,55,-9,-46,-51,-64,-83,-152
-3,60,55,-26,-24,61,-4,-40,-33,-46,-77,-140
-3,60,55,-26,-24,61,-4,-22,-22,-40,-71,-140
-3,66,61,-32,-24,67,-4,-11,-16,-40,-71,-134
-3,60,55,-26,-24,61,-4,-11,-10,-40,-71,-134
-15,60,67,-20,-36,67,2,7,-4,-34,-66,-122
-15,48,67,-8,-42,55,32,31,14,-23,-66,-134
-15,42,61,-8,-36,49,92,79,56,-23,-66,-152
-20,42,67,-2,-42,55,158,139,80,-17,-71,-170
-26,24,55,3,-42,37,236,193,92,-23,-89,-188
-32,12,49,3,-42,31,290,229,98,-28,-119,-200
-50,6,49,21,-54,19,368,277,122,-34,-149,-224
-56,-11,37,33,-48,13,440,343,140,-34,-161,-254
-44,-29,19,33,-30,-4,464,409,188,-23,-161,-254
-38,-41,2,39,-19,-22,440,445,218,-17,-149,-254
-38,-47,-4,39,-19,-28,416,475,230,-23,-161,-260
-38,-65,-22,51,-19,-46,440,583,290,-5,-161,-266
-15,-71,-52,39,11,-64,446,721,404,43,-131,-254
-15,-59,-46,33,11,-52,410,829,494,91,-113,-230
-9,-53,-52,21,17,-52,344,907,548,127,-95,-212
15,-53,-76,9,41,-64,236,913,548,133,-101,-212
33,-53,-94,3,59,-70,122,907,548,133,-83,-200
57,-41,-106,-2,77,-70,68,943,578,169,-66,-194
75,-41,-124,-8,95,-82,50,973,638,211,-48,-170
105,-41,-154,-26,125,-94,2,985,656,235,-12,-146
117,-41,-166,-32,137,-100,-33,985,692,265,24,-122
141,-23,-172,-50,155,-94,-123,937,686,283,54,-98
147,-17,-172,-56,155,-94,-255,751,608,283,78,-68
153,6,-154,-74,149,-70,-357,523,488,271,96,-38
165,18,-142,-92,155,-52,-441,313,386,265,126,-15
177,42,-130,-110,155,-34,-573,85,260,277,162,15
189,90,-94,-140,143,8,-741,-172,104,271,210,63
207,132,-70,-170,137,25,-897,-454,-117,187,234,105
207,150,-52,-176,131,43,-999,-682,-327,97,246,129
225,174,-46,-200,137,61,-1095,-832,-435,91,294,195
225,216,-10,-224,119,97,-1167,-958,-489,145,384,279
243,258,19,-248,113,139,-1257,-1090,-555,175,468,363
255,282,19,-266,113,157,-1359,-1258,-639,169,528,429
285,288,8,-284,143,145,-1467,-1414,-747,145,564,489
321,288,-28,-302,179,127,-1599,-1612,-909,103,612,561
345,300,-40,-320,197,127,-1779,-1960,-1191,25,660,651
369,288,-76,-326,221,103,-1989,-2344,-1569,-142,678,729
399,294,-100,-344,245,97,-2187,-2721,-1989,-412,696,795
447,318,-124,-380,281,97,-2379,-3087,-2403,-658,726,903
483,360,-124,-422,305,115,-2528,-3345,-2696,-826,816,1041
525,408,-118,-470,323,145,-2612,-3483,-2888,-964,906,1179
543,462,-82,-500,311,187,-2600,-3495,-2972,-1132,900,1239
561,498,-58,-530,311,223,-2504,-3357,-2930,-1234,888,1287
597,534,-58,-566,329,241,-2432,-3189,-2822,-1264,924,1371
657,540,-112,-596,383,217,-2391,-3051,-2744,-1300,966,1461
723,540,-184,-632,455,181,-2361,-2937,-2708,-1336,1026,1575
801,552,-244,-680,521,151,-2349,-2847,-2672,-1348,1122,1707
849,576,-268,-716,557,151,-2319,-2793,-2636,-1300,1248,1863
873,600,-268,-734,569,163,-2277,-2745,-2582,-1240,1398,1989
885,624,-256,-752,569,181,-2229,-2703,-2528,-1150,1548,2126
867,642,-220,-752,545,211,-2157,-2649,-2456,-1030,1698,2240
831,678,-154,-752,491,259,-2073,-2583,-2367,-928,1818,2306
777,726,-52,-746,419,331,-1983,-2511,-2295,-844,1860,2294
723,726,2,-728,365,361,-1857,-2362,-2151,-754,1800,2204
657,672,19,-662,317,343,-1677,-2128,-1917,-640,1614,2019
579,588,14,-584,281,295,-1473,-1822,-1623,-532,1356,1767
519,456,-64,-482,293,193,-1263,-1510,-1347,-484,1014,1449
471,330,-136,-398,299,97,-1065,-1264,-1161,-472,690,1137
393,246,-148,-314,269,43,-891,-1096,-1029,-472,462,867
285,216,-70,-248,179,67,-729,-958,-933,-472,276,657
201,174,-22,-188,113,73,-561,-784,-795,-472,114,435
147,120,-22,-134,83,43,-417,-616,-657,-454,-30,231
99,72,-22,-86,59,19,-309,-478,-543,-442,-143,51
57,42,-10,-50,35,13,-219,-358,-429,-394,-215,-56
21,30,14,-26,5,19,-129,-226,-303,-322,-209,-104
-3,42,37,-20,-19,43,-75,-130,-207,-244,-203,-128
-15,42,55,-8,-30,49,-33,-76,-147,-208,-215,-140
-20,36,61,-2,-42,49,8,-16,-105,-166,-221,-182
-44,6,55,9,-48,31,56,25,-51,-130,-239,-218
-56,-5,43,27,-54,13,122,85,-22,-94,-233,-242
-62,-47,19,51,-36,-16,170,127,20,-82,-233,-254
-74,-65,14,69,-42,-28,194,157,44,-70,-239,-284
-74,-71,8,69,-36,-34,212,175,74,-70,-251,-290
-74,-71,8,69,-36,-34,218,199,92,-70,-263,-296
-86,-71,19,75,-48,-28,218,217,110,-70,-275,-290
-92,-71,19,81,-54,-22,218,223,122,-64,-287,-308
-98,-65,25,81,-66,-16,224,229,128,-64,-305,-320
-98,-65,25,81,-66,-16,230,241,140,-64,-311,-332
-104,-65,31,81,-72,-10,242,253,140,-58,-317,-344
-104,-71,25,87,-66,-16,248,271,146,-52,-317,-350
-104,-77,19,87,-66,-22,266,289,164,-46,-317,-368
-104,-77,19,87,-66,-22,278,307,182,-40,-317,-368
-104,-77,19,87,-66,-22,296,319,194,-34,-311,-374
-104,-77,19,87,-66,-22,302,331,212,-28,-311,-374
-110,-77,25,93,-72,-22,308,337,218,-23,-311,-374
-110,-77,25,93,-72,-22,314,343,218,-23,-311,-374
-110,-77,25,93,-72,-22,320,355,224,-23,-311,-374
-110,-77,25,93,-72,-22,326,361,236,-23,-311,-380
-116,-77,31,93,-78,-16,332,373,242,-23,-311,-386
-116,-77,31,93,-78,-16,344,385,248,-17,-311,-386
-122,-77,37,99,-84,-16,356,397,254,-11,-311,-386
-122,-77,37,99,-84,-16,362,415,260,1,-311,-392
-122,-77,37,99,-84,-16,362,427,278,1,-311,-392
-122,-71,43,93,-84,-10,374,439,284,7,-317,-392
-116,-71,37,93,-78,-10,374,445,296,13,-317,-392
-116,-71,37,93,-78,-10,380,451,308,13,-317,-392
-116,-71,37,93,-78,-10,386,463,314,13,-323,-398
-116,-71,37,93,-78,-10,398,475,320,19,-323,-398
-116,-65,43,87,-84,-4,410,481,320,25,-323,-404
-116,-65,43,87,-84,-4,416,487,338,31,-323,-404
-116,-71,37,93,-78,-10,428,505,356,37,-323,-398
-116,-71,37,93,-78,-10,440,529,368,43,-317,-404
-116,-77,31,93,-78,-16,452,559,386,49,-311,-398
-116,-77,31,93,-78,-16,464,571,404,55,-305,-398
-116,-71,37,93,-78,-10,470,589,416,61,-311,-398
-116,-71,37,93,-78,-10,476,595,434,67,-317,-398
-116,-71,37,93,-78,-10,482,613,446,79,-317,-398
-116,-65,43,87,-84,-4,488,631,458,85,-317,-398
-116,-53,55,81,-90,8,488,649,464,97,-323,-392
-116,-53,55,81,-90,8,500,667,476,103,-323,-392
-116,-47,61,81,-90,13,518,685,500,121,-323,-392
-116,-47,61,81,-90,13,530,709,512,133,-323,-392
-116,-47,61,81,-90,13,542,727,536,145,-323,-392
-116,-47,61,81,-90,13,554,745,554,151,-317,-398
-116,-41,67,75,-96,13,566,769,578,163,-317,-398
-116,-35,73,75,-96,13,572,787,596,181,-311,-398
-122,-41,73,81,-102,13,584,805,608,193,-305,-392
-122,-29,85,75,-108,19,590,817,626,199,-305,-386
-122,-29,85,75,-108,19,602,835,644,217,-305,-386
-122,-23,91,69,-108,25,620,853,662,223,-299,-386
-128,-17,103,69,-120,37,632,871,680,235,-293,-392
-128,-17,103,69,-120,37,644,895,698,241,-287,-386
-134,1,127,63,-132,55,650,913,710,253,-281,-392
-134,6,133,63,-138,61,656,937,722,271,-275,-392
-128,6,127,57,-132,61,662,955,746,283,-269,-386
-128,6,133,57,-132,67,668,961,764,301,-263,-380
-122,6,127,51,-126,61,680,973,788,319,-257,-374
-122,6,127,51,-126,61,686,985,800,331,-251,-368
-122,6,133,51,-126,67,692,997,806,343,-251,-374
-116,12,133,45,-126,73,698,1009,830,355,-245,-368
-116,24,145,39,-132,85,698,1021,848,367,-245,-374
-116,30,151,33,-132,91,698,1039,866,385,-245,-374
-122,36,163,33,-144,97,704,1057,884,409,-239,-368
-122,42,169,33,-144,103,710,1075,902,421,-233,-350
-128,48,181,33,-156,115,722,1093,926,439,-215,-344
-128,54,187,27,-156,121,722,1105,944,463,-203,-344
-122,54,181,27,-150,115,728,1117,956,481,-197,-338
-116,54,175,21,-144,115,728,1117,974,493,-179,-332
-110,60,175,15,-144,115,728,1123,986,511,-173,-326
-110,72,187,9,-150,127,728,1129,998,529,-161,-320
-104,72,181,9,-144,127,728,1141,1010,547,-149,-320
-104,78,187,3,-144,133,722,1147,1022,565,-143,-314
-110,84,199,3,-156,139,722,1159,1034,589,-143,-308
-110,90,205,3,-156,145,716,1159,1046,607,-131,-296
-104,96,205,3,-156,151,710,1159,1052,619,-119,-284
-98,96,199,3,-150,145,704,1159,1058,637,-107,-278
-92,102,199,3,-144,151,686,1147,1064,643,-95,-272
-86,108,199,-2,-144,151,680,1141,1064,655,-77,-266
-80,108,193,-8,-138,151,668,1135,1064,655,-77,-254
-80,114,199,-8,-138,157,656,1111,1070,655,-66,-254
-80,108,193,-8,-138,151,632,1099,1070,661,-66,-236
-80,114,199,-8,-138,157,614,1081,1052,661,-66,-218
-80,120,205,-14,-144,163,596,1063,1046,661,-60,-212
-80,120,205,-14,-144,163,578,1045,1040,667,-54,-206
-68,126,199,-20,-132,163,572,1033,1034,673,-48,-194
-62,126,193,-26,-126,157,554,1009,1028,679,-42,-188
-56,132,193,-32,-126,163,524,985,1004,679,-36,-182
-50,132,187,-32,-120,157,500,973,986,679,-30,-170
-50,132,187,-32,-120,157,482,943,962,673,-24,-170
-50,126,181,-32,-114,151,452,919,950,673,-18,-158
-44,132,181,-38,-114,157,440,883,926,667,-12,-146
-32,132,169,-44,-102,151,416,853,902,661,-6,-134
-20,138,163,-50,-90,151,398,799,890,661,0,-128
-15,144,163,-56,-90,151,374,763,854,643,6,-122
-15,138,157,-56,-84,145,344,727,818,631,6,-98
-15,138,151,-56,-78,145,320,697,794,613,12,-92
-15,138,145,-62,-72,145,290,655,746,589,12,-86
-15,138,145,-62,-72,145,266,619,710,565,12,-80
-9,144,145,-68,-72,145,236,559,662,541,12,-62
-9,150,151,-68,-72,151,218,517,620,517,12,-56
3,156,145,-80,-66,151,182,475,572,487,6,-44
3,156,145,-80,-66,151,158,433,530,463,6,-38
-3,150,145,-74,-66,151,146,379,488,439,0,-38
3,144,133,-74,-60,139,116,331,440,397,0,-38
-3,144,139,-68,-66,145,104,295,398,373,0,-32
-3,132,127,-62,-60,133,86,259,356,349,0,-32
-3,126,121,-62,-54,127,62,229,308,307,-12,-26
-9,120,121,-56,-60,121,56,199,260,271,-30,-26
-9,114,115,-50,-54,115,26,163,218,241,-42,-26
-9,114,115,-50,-54,115,8,139,176,217,-60,-44
-3,108,103,-50,-48,109,2,103,146,193,-66,-44
-3,102,97,-50,-42,103,-4,67,116,169,-66,-50
-9,96,97,-44,-48,97,-4,43,92,133,-66,-62
-9,90,91,-38,-42,91,-9,13,62,109,-71,-68
-15,84,91,-32,-48,91,-9,-11,26,91,-83,-80
-15,78,85,-32,-42,85,-15,-16,8,67,-101,-80
-15,72,85,-26,-48,79,-15,-34,-22,49,-119,-86
-15,60,79,-14,-48,67,-21,-40,-22,37,-131,-92
-15,54,73,-14,-42,61,-27,-52,-39,25,-137,-98
-20,54,79,-8,-48,67,-27,-64,-57,7,-149,-110
-20,54,79,-8,-48,67,-39,-76,-69,-5,-155,-116
-20,54,79,-8,-48,67,-39,-88,-75,-11,-155,-134
-15,54,73,-14,-42,61,-39,-94,-93,-23,-161,-128
-20,54,79,-8,-48,67,-39,-94,-99,-23,-167,-134
-20,48,73,-8,-48,61,-39,-106,-99,-28,-167,-134
-20,48,73,-8,-48,61,-39,-112,-111,-34,-173,-134
-20,42,67,-2,-42,55,-45,-118,-123,-40,-179,-146
-20,36,61,-2,-42,49,-45,-118,-129,-46,-185,-152
-20,30,55,3,-36,43,-57,-124,-141,-52,-179,-164
-20,30,55,3,-36,43,-57,-124,-141,-52,-185,-164
-20,30,55,3,-36,43,-57,-130,-147,-58,-191,-158
-20,30,55,3,-36,43,-57,-130,-147,-64,-191,-158
-26,30,61,3,-42,43,-57,-136,-153,-64,-197,-152
-26,30,61,3,-42,43,-57,-142,-153,-64,-203,-152
-32,24,61,3,-48,43,-57,-136,-153,-64,-197,-152
-32,18,55,3,-42,37,-57,-136,-153,-64,-203,-158
-32,12,49,3,-42,31,-57,-130,-159,-70,-203,-158
-32,6,43,3,-36,25,-51,-130,-159,-76,-203,-158
-32,12,49,3,-42,31,-57,-136,-159,-76,-203,-158
-32,12,49,3,-42,31,-57,-136,-159,-76,-197,-158
-32,18,55,3,-42,37,-69,-136,-165,-76,-191,-164
-32,18,55,3,-42,37,-69,-136,-165,-76,-191,-164
-32,12,49,3,-42,31,-69,-142,-171,-82,-197,-164
-32,18,55,3,-42,37,-69,-142,-177,-82,-191,-158
-32,24,61,3,-48,43,-69,-148,-183,-88,-197,-158
-32,30,67,3,-48,49,-69,-148,-183,-82,-197,-158
-26,24,55,3,-42,37,-69,-148,-183,-82,-203,-158
-32,24,61,3,-48,43,-69,-148,-183,-82,-203,-164
-26,18,49,3,-36,31,-69,-148,-183,-82,-209,-164
-20,24,49,3,-36,37,-63,-148,-183,-82,-209,-158
-26,24,55,3,-42,37,-69,-142,-177,-88,-215,-158
-26,24,55,3,-42,37,-69,-142,-177,-88,-209,-158
-32,24,61,3,-48,43,-75,-136,-177,-94,-215,-158
-32,24,61,3,-48,43,-69,-136,-177,-94,-215,-158
-32,24,61,3,-48,43,-63,-130,-177,-88,-215,-158
-32,24,61,3,-48,43,-63,-130,-171,-88,-215,-158
-32,24,61,3,-48,43,-57,-130,-171,-82,-221,-158
-32,24,61,3,-48,43,-57,-130,-171,-82,-221,-158
-26,24,55,3,-42,37,-63,-130,-165,-82,-227,-158
-26,24,55,3,-42,37,-63,-124,-165,-82,-227,-158
-20,24,49,3,-36,37,-69,-124,-165,-82,-233,-158
-20,24,49,3,-36,37,-63,-124,-165,-76,-233,-158
-26,24,55,3,-42,37,-57,-118,-165,-76,-239,-152
-26,24,55,3,-42,37,-57,-118,-159,-76,-245,-152
-32,24,61,3,-48,43,-51,-118,-159,-76,-251,-146
-32,24,61,3,-48,43,-51,-118,-159,-76,-263,-146
-32,24,61,3,-48,43,-45,-112,-159,-70,-263,-146
-32,24,61,3,-48,43,-45,-112,-159,-70,-263,-146
-38,24,67,3,-54,43,-45,-112,-153,-64,-257,-146
-38,24,67,3,-54,43,-39,-106,-153,-64,-257,-152
-26,30,61,3,-42,43,-45,-106,-153,-70,-263,-152
-26,30,61,3,-42,43,-45,-106,-153,-70,-263,-158
-20,36,61,-2,-42,49,-51,-106,-147,-70,-269,-158
-20,36,61,-2,-42,49,-51,-106,-141,-70,-269,-158
-26,36,67,3,-48,49,-45,-100,-147,-76,-269,-158
-32,36,73,3,-54,55,-45,-100,-147,-76,-269,-158
-38,36,79,3,-60,55,-45,-100,-153,-76,-269,-158
-38,36,79,3,-60,55,-45,-100,-153,-76,-269,-158
-38,30,73,3,-54,49,-39,-94,-153,-76,-275,-152
-38,30,73,3,-54,49,-39,-94,-153,-76,-275,-152
-38,24,67,3,-54,43,-39,-94,-153,-70,-281,-146
-38,24,67,3,-54,43,-39,-94,-153,-70,-287,-146
-32,30,67,3,-48,49,-39,-94,-147,-64,-287,-152
-32,30,67,3,-48,49,-39,-94,-147,-64,-287,-164
-26,36,67,3,-48,49,-39,-94,-141,-64,-281,-170
-26,36,67,3,-48,49,-33,-94,-141,-64,-281,-176
-26,30,61,3,-42,43,-33,-100,-141,-58,-281,-170
-26,36,67,3,-48,49,-33,-94,-141,-58,-281,-170
-32,30,67,3,-48,49,-33,-100,-141,-52,-275,-164
-38,30,73,3,-54,49,-33,-100,-141,-52,-269,-164
-38,30,73,3,-54,49,-33,-100,-141,-52,-269,-158
-38,24,67,3,-54,43,-33,-100,-141,-52,-269,-164
-38,24,67,3,-54,43,-27,-106,-153,-52,-269,-158
-38,24,67,3,-54,43,-27,-106,-153,-52,-269,-158
-38,24,67,3,-54,43,-27,-106,-153,-52,-275,-158
-38,30,73,3,-54,49,-27,-106,-153,-58,-275,-158
-38,30,73,3,-54,49,-27,-106,-153,-58,-281,-164
-38,24,67,3,-54,43,-27,-106,-153,-58,-275,-164
-38,18,61,3,-48,37,-27,-100,-153,-58,-281,-164
-38,18,61,3,-48,37,-27,-100,-153,-58,-281,-164
-38,18,61,3,-48,37,-27,-94,-153,-58,-287,-164
-38,18,61,3,-48,37,-27,-94,-153,-58,-293,-164
-38,12,55,3,-48,31,-27,-100,-153,-58,-299,-164
-38,12,55,3,-48,31,-21,-100,-153,-58,-299,-164
-38,12,55,3,-48,31,-21,-106,-153,-58,-305,-164
-38,12,55,3,-48,31,-27,-106,-153,-58,-305,-170
-38,12,55,3,-48,31,-27,-106,-153,-58,-305,-170
-38,12,55,3,-48,31,-33,-106,-159,-58,-305,-176
-38,18,61,3,-48,37,-33,-106,-165,-52,-305,-176
-38,18,61,3,-48,37,-33,-112,-165,-52,-311,-176
-38,18,61,3,-48,37,-33,-118,-165,-58,-317,-176
-38,18,61,3,-48,37,-33,-118,-171,-58,-317,-176
-38,12,55,3,-48,31,-39,-118,-171,-70,-317,-176
-38,6,49,9,-42,25,-39,-118,-171,-70,-317,-176
-38,12,55,3,-48,31,-33,-118,-171,-76,-323,-176
-38,12,55,3,-48,31,-33,-118,-171,-76,-323,-176
-38,18,61,3,-48,37,-27,-124,-177,-88,-323,-176
-44,18,67,3,-54,43,-27,-124,-177,-88,-323,-182
-38,12,55,3,-48,31,-27,-124,-177,-82,-329,-182
-38,12,55,3,-48,31,-27,-124,-177,-82,-335,-182
-32,6,37,9,-36,19,-27,-124,-177,-82,-341,-188
-32,6,37,9,-36,19,-27,-124,-183,-88,-341,-188
-32,6,37,9,-36,19,-27,-124,-183,-88,-347,-182
-32,6,37,9,-36,19,-27,-124,-183,-88,-347,-182
-32,6,37,9,-36,19,-33,-124,-183,-88,-347,-182
-32,6,37,9,-36,19,-33,-130,-183,-88,-347,-182
-38,6,43,9,-42,19,-33,-130,-189,-94,-347,-182
-38,6,43,9,-42,19,-33,-136,-189,-94,-353,-182
-38,6,37,15,-42,13,-33,-136,-189,-94,-359,-182
-38,6,37,15,-42,13,-39,-136,-189,-100,-359,-182
-50,6,49,21,-54,19,-39,-136,-189,-100,-365,-182
-50,6,49,21,-54,19,-39,-136,-189,-100,-365,-188
-50,6,55,15,-54,25,-39,-136,-195,-100,-371,-188
-44,6,55,9,-48,31,-39,-136,-195,-100,-371,-188
-44,6,49,15,-48,25,-39,-130,-195,-94,-377,-182
-50,6,55,15,-54,25,-39,-136,-201,-94,-371,-182
-50,6,49,21,-54,19,-39,-130,-201,-94,-371,-182
-50,6,49,21,-54,19,-39,-130,-207,-94,-371,-182
-44,1,37,21,-42,13,-45,-130,-201,-94,-371,-182
-44,1,37,21,-42,13,-45,-130,-201,-94,-371,-182
-38,1,31,15,-36,13,-51,-130,-195,-94,-377,-182
-38,-5,25,21,-36,13,-51,-130,-195,-100,-383,-188
-44,1,37,21,-42,13,-45,-136,-201,-100,-377,-188
-38,1,31,15,-36,13,-45,-130,-201,-100,-377,-182
-44,1,37,21,-42,13,-39,-136,-207,-100,-371,-182
-50,1,43,21,-48,13,-39,-136,-207,-100,-377,-188
-50,1,43,21,-48,13,-45,-142,-207,-100,-377,-194
-44,1,37,21,-42,13,-45,-142,-207,-100,-377,-194
-44,6,49,15,-48,25,-51,-142,-207,-106,-371,-200
-44,6,49,15,-48,25,-51,-142,-207,-106,-365,-200
-44,6,43,15,-48,19,-45,-142,-207,-106,-359,-194
-50,6,49,21,-54,19,-45,-142,-207,-112,-359,-194
-50,1,43,21,-48,13,-39,-142,-207,-112,-353,-188
-50,1,43,21,-48,13,-39,-142,-213,-106,-353,-188
-50,-5,37,27,-48,13,-45,-142,-207,-106,-347,-188
-50,1,43,21,-48,13,-45,-142,-207,-112,-353,-188
-50,-5,37,27,-48,13,-51,-148,-201,-112,-347,-194
-56,-11,37,33,-48,13,-51,-148,-201,-112,-347,-194
-56,-11,37,33,-48,13,-51,-148,-207,-112,-347,-194
-56,-11,37,33,-48,13,-51,-148,-207,-112,-347,-194
-56,-11,37,33,-48,13,-51,-148,-213,-112,-347,-194
-56,-11,37,33,-48,13,-51,-148,-213,-106,-347,-194
-56,-11,37,33,-48,13,-51,-148,-207,-106,-347,-194
-56,-11,37,33,-48,13,-51,-148,-207,-106,-341,-194
-56,-11,37,33,-48,13,-51,-148,-207,-112,-341,-194
-56,-5,43,27,-54,13,-51,-148,-207,-112,-341,-194
-50,-5,37,27,-48,13,-51,-148,-213,-118,-347,-200
-50,-5,37,27,-48,13,-51,-148,-213,-112,-347,-200
-44,-11,25,27,-36,13,-51,-154,-219,-112,-353,-206
-44,-11,25,27,-36,13,-51,-154,-213,-112,-347,-200
-50,-11,31,27,-42,13,-51,-154,-213,-112,-353,-206
-44,-5,31,21,-42,13,-51,-154,-213,-112,-359,-200
-50,-5,37,27,-48,13,-51,-154,-213,-112,-365,-206
-50,6,49,21,-54,19,-51,-154,-213,-112,-371,-206
-50,6,49,21,-54,19,-51,-148,-207,-112,-365,-206
-50,1,43,21,-48,13,-45,-148,-207,-106,-365,-206
-50,-5,37,27,-48,13,-45,-136,-207,-106,-365,-206
-50,-11,31,27,-42,13,-45,-136,-207,-106,-359,-206
-50,-11,31,27,-42,13,-45,-142,-207,-106,-359,-206
-50,-17,25,33,-42,8,-45,-136,-201,-100,-365,-206
-50,-17,25,33,-42,8,-45,-142,-201,-100,-365,-206
-50,-17,25,33,-42,8,-45,-142,-201,-100,-371,-206
-56,-17,31,33,-48,13,-51,-142,-207,-106,-377,-206
-56,-11,37,33,-48,13,-51,-142,-207,-106,-371,-206
-56,-11,37,33,-48,13,-57,-142,-213,-112,-377,-206
-56,-11,37,33,-48,13,-57,-142,-213,-112,-377,-200
-44,1,37,21,-42,13,-45,-142,-213,-112,-377,-212
-44,1,37,21,-42,13,-57,-154,-213,-112,-377,-206
-56,-5,43,27,-54,13,-45,-142,-213,-106,-377,-200
-56,1,49,27,-54,19,-45,-148,-207,-100,-377,-200
-56,-5,43,27,-54,13,-45,-148,-213,-100,-377,-206
-56,-5,43,27,-54,13,-45,-148,-213,-100,-377,-206
-56,-11,37,33,-48,13,-45,-148,-219,-100,-377,-212
-56,-11,37,33,-48,13,-45,-148,-219,-100,-377,-212
-56,-11,37,33,-48,13,-45,-148,-219,-100,-377,-206
-56,-11,37,33,-48,13,-45,-148,-219,-100,-377,-206
-56,-11,37,33,-48,13,-45,-148,-219,-100,-377,-200
-56,-11,37,33,-48,13,-45,-148,-219,-100,-377,-200
-56,-11,37,33,-48,13,-45,-148,-219,-106,-377,-200
-56,-17,31,33,-48,13,-45,-148,-219,-106,-377,-200
-56,-17,31,33,-48,13,-45,-148,-219,-106,-377,-200
-56,-17,31,33,-48,13,-45,-148,-219,-106,-377,-200
-56,-17,31,33,-48,13,-45,-148,-219,-112,-377,-206
-56,-17,31,33,-48,13,-45,-148,-219,-112,-377,-206
-56,-17,31,33,-48,13,-45,-148,-219,-112,-377,-218
-56,-11,37,33,-48,13,-45,-148,-225,-112,-383,-218
-56,-11,37,33,-48,13,-39,-148,-219,-112,-383,-212
-56,-11,37,33,-48,13,-39,-148,-219,-112,-383,-212
-56,-11,37,33,-48,13,-33,-148,-213,-112,-377,-206
-56,-11,37,33,-48,13,-33,-148,-213,-112,-377,-206
-56,-11,37,33,-48,13,-27,-148,-213,-112,-377,-206
-56,-11,37,33,-48,13,-27,-142,-207,-112,-377,-200
-56,-11,37,33,-48,13,-21,-142,-207,-106,-377,-200
-56,-11,37,33,-48,13,-21,-142,-207,-100,-377,-200
-50,1,43,21,-48,13,-9,-136,-207,-100,-371,-194
-50,6,49,21,-54,19,-4,-130,-195,-100,-359,-194
-50,6,49,21,-54,19,-4,-130,-195,-88,-359,-176
-44,6,49,15,-48,25,-4,-124,-189,-82,-353,-176
-38,18,61,3,-48,37,-4,-118,-183,-82,-347,-182
-38,24,67,3,-54,43,-4,-118,-183,-76,-347,-170
-32,42,79,3,-54,61,-4,-112,-177,-76,-347,-170
-32,48,85,-2,-60,67,-4,-106,-177,-76,-347,-170
-26,48,79,-2,-54,61,-4,-106,-177,-70,-341,-170
-26,48,79,-2,-54,61,-4,-106,-177,-70,-341,-170
-26,42,73,-2,-48,55,2,-106,-171,-76,-341,-164
-26,42,73,-2,-48,55,2,-106,-171,-76,-335,-164
-26,48,79,-2,-54,61,8,-100,-165,-70,-329,-158
-26,48,79,-2,-54,61,14,-94,-165,-70,-329,-158
-26,48,79,-2,-54,61,8,-94,-165,-64,-323,-152
-26,54,85,-8,-54,67,-4,-100,-177,-58,-311,-152
-20,54,79,-8,-48,67,-4,-94,-165,-58,-311,-146
-20,60,85,-14,-54,73,-4,-94,-153,-46,-305,-140
-15,60,79,-14,-48,67,-9,-88,-147,-40,-305,-140
-15,60,73,-20,-42,67,-9,-88,-147,-34,-305,-134
-9,60,61,-26,-30,61,-15,-88,-147,-40,-305,-128
-3,60,55,-26,-24,61,-15,-82,-141,-34,-299,-128
-3,60,55,-26,-24,61,-15,-82,-141,-34,-293,-122
3,60,49,-32,-19,55,-15,-70,-135,-28,-287,-116
3,66,55,-32,-19,61,-15,-64,-123,-23,-287,-110
3,66,55,-32,-19,61,-4,-58,-111,-23,-275,-104
3,66,55,-32,-19,61,-4,-58,-105,-11,-275,-104
3,66,55,-32,-19,61,-4,-64,-105,-11,-275,-104
3,66,55,-32,-19,61,-4,-64,-105,-11,-281,-98
3,66,55,-32,-19,61,-4,-64,-105,-11,-281,-98
3,66,55,-32,-19,61,-4,-58,-105,-5,-281,-98
3,66,55,-32,-19,61,-4,-46,-99,-5,-275,-92
3,72,61,-38,-24,67,-4,-46,-93,1,-275,-92
3,72,61,-38,-24,67,2,-34,-87,1,-275,-92
-3,78,73,-38,-30,79,8,-28,-81,-11,-281,-98
-3,72,67,-32,-30,73,8,-22,-81,-17,-287,-98
-3,60,55,-26,-24,61,14,-11,-63,-11,-287,-98
-15,60,67,-20,-36,67,20,-5,-57,-11,-287,-98
-15,54,61,-20,-30,61,80,31,-39,1,-293,-104
-9,54,55,-20,-24,55,146,79,-16,19,-287,-98
-15,48,55,-14,-30,55,224,157,20,31,-293,-104
-15,36,49,-8,-30,43,278,205,50,31,-299,-116
-26,30,61,3,-42,43,344,241,62,25,-323,-140
-44,12,61,9,-54,37,416,295,80,25,-335,-164
-44,6,55,9,-48,31,476,373,128,37,-347,-188
-38,6,37,15,-42,13,482,433,158,43,-347,-194
-38,1,31,15,-36,13,452,457,164,31,-359,-206
-38,-17,19,27,-30,2,440,499,200,31,-359,-212
-26,-23,8,21,-19,-10,446,631,260,67,-353,-194
-15,-23,-10,15,-7,-16,446,769,368,115,-335,-182
3,-17,-28,3,11,-22,416,859,446,163,-317,-164
15,-17,-40,3,23,-28,320,901,488,193,-293,-152
45,-17,-70,-8,53,-40,206,895,488,205,-287,-152
69,-17,-94,-20,77,-52,104,907,506,217,-275,-146
75,-5,-88,-26,77,-46,74,955,554,241,-251,-122
93,-5,-106,-38,95,-52,38,973,596,283,-227,-86
105,6,-106,-50,101,-46,2,961,608,313,-191,-62
117,6,-112,-56,113,-46,-39,961,626,331,-173,-38
135,6,-124,-68,131,-52,-141,847,584,331,-149,-15
153,18,-130,-86,143,-46,-273,631,476,331,-131,9
165,54,-106,-110,137,-16,-357,421,398,325,-113,27
165,66,-94,-116,131,-4,-447,217,296,325,-89,39
177,102,-70,-140,125,13,-579,-16,176,343,-48,87
195,156,-34,-176,113,55,-741,-274,2,313,0,141
207,186,-16,-194,113,79,-885,-550,-225,217,24,177
213,198,-10,-206,113,91,-975,-772,-435,139,36,207
225,216,-10,-224,119,97,-1047,-898,-519,133,90,255
231,270,31,-248,95,157,-1119,-1006,-567,187,174,339
243,306,55,-272,89,187,-1197,-1156,-639,217,258,429
261,312,43,-284,107,181,-1287,-1306,-735,205,306,489
285,324,31,-302,125,181,-1389,-1438,-825,175,330,549
309,336,19,-320,143,181,-1521,-1654,-981,121,366,615
345,336,-4,-338,179,163,-1701,-1966,-1239,37,414,687
387,330,-52,-356,221,139,-1881,-2290,-1569,-118,426,759
435,342,-88,-386,257,127,-2025,-2583,-1911,-352,444,843
465,396,-64,-428,263,163,-2181,-2901,-2283,-568,510,969
501,456,-46,-482,275,205,-2319,-3135,-2570,-742,624,1131
555,516,-34,-536,293,241,-2391,-3237,-2714,-874,708,1287
597,570,-22,-584,311,271,-2367,-3201,-2750,-976,744,1395
633,618,-10,-626,323,301,-2301,-3063,-2672,-988,822,1497
717,648,-64,-680,389,289,-2271,-2925,-2546,-940,942,1665
795,660,-136,-728,467,259,-2289,-2841,-2498,-940,1086,1833
861,672,-190,-764,521,241,-2313,-2811,-2504,-952,1200,1977
909,720,-190,-812,545,259,-2319,-2805,-2492,-904,1356,2120
921,786,-130,-854,521,325,-2301,-2769,-2444,-790,1548,2282
909,846,-58,-878,479,391,-2253,-2739,-2415,-694,1722,2419
879,900,19,-890,431,463,-2193,-2715,-2397,-610,1842,2497
819,924,97,-872,359,511,-2097,-2679,-2355,-550,1878,2503
741,900,151,-818,293,523,-1953,-2547,-2235,-508,1800,2413
657,828,169,-740,239,499,-1749,-2302,-2031,-460,1602,2216
585,708,115,-644,227,415,-1497,-1972,-1749,-442,1272,1929
531,528,2,-530,263,259,-1275,-1648,-1473,-418,888,1569
471,384,-88,-428,281,145,-1065,-1360,-1209,-364,558,1251
387,306,-76,-344,227,115,-903,-1162,-1053,-340,330,969
285,276,-4,-278,149,133,-747,-1012,-963,-376,126,723
207,246,37,-230,77,145,-597,-862,-849,-388,-66,501
153,198,37,-176,53,121,-447,-694,-729,-388,-221,303
111,132,19,-122,41,73,-321,-556,-633,-394,-347,129
63,96,25,-80,11,61,-207,-430,-519,-358,-413,15
21,66,37,-44,-13,55,-111,-298,-393,-274,-413,-15
-3,54,49,-26,-19,55,-33,-190,-279,-208,-395,-32
-15,66,85,-20,-48,73,-4,-118,-195,-160,-401,-56
-32,78,115,-14,-72,97,38,-64,-135,-124,-425,-92
-44,60,109,-2,-78,85,80,-11,-93,-82,-431,-122
-44,30,79,3,-60,55,128,37,-39,-46,-425,-158
-56,6,67,15,-60,37,170,85,-22,-34,-431,-182
-50,-11,31,27,-42,13,194,115,-4,-23,-443,-200
-50,-29,19,39,-36,-4,218,133,20,-23,-449,-206
-56,-35,19,45,-36,-4,236,145,38,-23,-461,-212
-56,-35,19,45,-36,-4,242,169,56,-23,-473,-218
-74,-35,31,51,-54,2,248,181,62,-23,-485,-212
-80,-35,37,57,-60,8,248,187,74,-23,-497,-230
-86,-29,49,57,-72,13,260,205,92,-23,-503,-242
-86,-29,49,57,-72,13,266,217,104,-23,-515,-254
-92,-29,55,57,-78,13,290,229,116,-23,-509,-260
-92,-35,49,63,-72,13,296,247,122,-23,-509,-266
-92,-41,43,63,-72,8,314,259,134,-23,-515,-278
-92,-41,43,63,-72,8,326,277,152,-17,-515,-278
-92,-41,43,63,-72,8,344,283,158,-11,-515,-278
-92,-41,43,63,-72,8,350,295,176,-5,-515,-278
-98,-41,49,69,-78,8,350,295,182,1,-521,-284
-98,-41,49,69,-78,8,356,301,182,1,-527,-284
-98,-41,49,69,-78,8,356,307,194,1,-533,-290
-98,-41,49,69,-78,8,362,313,206,1,-539,-296
-98,-41,49,69,-78,8,362,325,212,1,-545,-302
-98,-41,49,69,-78,8,374,337,218,13,-545,-302
-98,-41,49,69,-78,8,380,349,218,13,-551,-302
-98,-41,49,69,-78,8,386,367,224,25,-551,-308
-104,-41,55,69,-84,13,386,379,236,25,-545,-308
-104,-35,61,69,-84,13,398,391,242,25,-545,-308
-104,-35,61,69,-84,13,398,397,248,31,-539,-308
-104,-35,61,69,-84,13,404,403,260,25,-533,-308
-104,-41,55,69,-84,13,410,421,272,25,-533,-302
-104,-41,55,69,-84,13,422,433,278,31,-533,-302
-104,-41,55,69,-84,13,434,451,284,37,-527,-296
-104,-41,55,69,-84,13,440,457,302,43,-527,-296
-104,-35,61,69,-84,13,446,463,314,49,-533,-296
-104,-35,61,69,-84,13,458,481,326,55,-533,-302
-104,-29,67,63,-90,13,464,499,338,61,-533,-302
-104,-29,67,63,-90,13,476,511,356,67,-533,-302
-104,-29,67,63,-90,13,482,529,368,73,-539,-302
-104,-29,67,63,-90,13,482,535,386,79,-539,-302
-104,-35,61,69,-84,13,488,553,398,91,-539,-302
-104,-29,67,63,-90,13,500,571,410,97,-533,-302
-104,-23,73,63,-90,19,500,583,422,103,-539,-296
-104,-23,73,63,-90,19,512,601,434,109,-539,-296
-104,-23,73,63,-90,19,530,613,458,121,-539,-296
-104,-23,73,63,-90,19,542,637,464,133,-539,-296
-104,-23,73,63,-90,19,554,655,482,139,-539,-290
-104,-23,73,63,-90,19,566,673,500,145,-533,-296
-104,-17,79,57,-96,25,578,691,518,151,-533,-290
-104,-11,85,57,-96,31,584,709,536,169,-527,-290
-104,-11,85,57,-96,31,596,721,542,175,-521,-290
-104,1,97,51,-102,43,602,733,560,181,-515,-284
-98,6,97,45,-102,43,614,751,572,193,-515,-290
-98,6,103,39,-102,49,632,769,590,205,-509,-290
-98,6,97,45,-102,43,644,787,614,217,-497,-284
-98,6,97,45,-102,43,656,811,632,217,-491,-278
-98,6,103,39,-102,49,662,829,650,229,-479,-272
-98,6,109,39,-102,55,668,853,668,247,-473,-272
-98,12,115,33,-108,61,668,865,680,253,-467,-272
-98,18,121,33,-108,67,674,871,698,271,-461,-266
-98,24,127,27,-114,73,680,883,710,283,-455,-266
-98,24,127,27,-114,73,686,895,716,295,-449,-260
-104,30,139,27,-120,85,698,901,722,301,-443,-260
-98,36,139,21,-120,85,710,913,746,313,-437,-254
-104,48,157,21,-132,103,716,919,764,319,-431,-254
-104,54,163,15,-132,109,722,937,782,337,-431,-254
-104,54,163,15,-132,109,722,949,788,355,-419,-248
-104,60,169,15,-138,115,728,961,806,367,-413,-230
-104,60,169,15,-138,115,728,973,818,379,-389,-218
-104,66,175,9,-138,121,728,985,836,403,-377,-218
-98,72,175,3,-138,121,728,997,848,415,-377,-212
-92,72,169,3,-132,121,728,997,866,427,-359,-206
-86,84,175,3,-132,127,728,1003,872,433,-359,-200
-86,96,187,3,-138,139,728,1009,884,451,-347,-194
