,,,,,,,,,,,
2019-09-04 23:16:35,,,,,,,,,,,
,,,,,,,,,,,
I,II,III,aVR,aVL,aVF,V1,V2,V3,V4,V5,V6
407,-121,-529,-139,470,-323,-852,-719,-346,-78,123,59
407,-121,-529,-139,470,-323,-852,-719,-346,-78,123,59
407,-121,-529,-139,470,-323,-852,-719,-346,-78,123,59
407,-121,-529,-139,470,-323,-852,-719,-346,-78,123,59
515,-61,-583,-223,548,-317,-936,-779,-328,6,237,185
629,-8,-643,-301,632,-323,-1014,-827,-316,77,351,305
737,40,-697,-391,722,-317,-1098,-887,-298,161,465,431
851,94,-751,-475,800,-323,-1182,-941,-286,245,579,551
911,142,-763,-523,836,-305,-1206,-929,-274,263,615,611
965,190,-769,-571,866,-281,-1224,-923,-268,269,651,665
1019,232,-781,-625,902,-263,-1248,-911,-256,287,687,725
1073,280,-787,-679,932,-245,-1272,-905,-250,299,717,773
971,208,-757,-583,866,-269,-1188,-923,-364,125,543,629
863,136,-727,-493,794,-287,-1098,-935,-472,-42,369,491
755,58,-697,-409,728,-311,-1008,-953,-586,-216,195,341
653,-8,-661,-319,656,-329,-924,-965,-700,-396,15,203
461,-8,-475,-223,464,-239,-744,-869,-652,-408,-38,101
263,-13,-283,-121,272,-149,-570,-779,-610,-414,-104,12
71,-19,-97,-19,80,-53,-396,-683,-562,-426,-170,-90
-114,-25,82,70,-99,24,-222,-587,-520,-432,-236,-192
-108,-13,88,58,-99,30,-192,-521,-460,-390,-218,-192
-108,-8,94,58,-105,36,-162,-455,-400,-354,-206,-192
-102,-8,100,46,-99,48,-132,-383,-334,-312,-188,-192
-102,-2,106,46,-105,54,-102,-317,-274,-276,-176,-192
-102,-8,100,46,-99,48,-66,-269,-238,-240,-152,-186
-102,-8,100,46,-99,48,-30,-221,-208,-216,-134,-180
-102,-8,94,52,-99,42,-1,-167,-172,-180,-110,-174
-102,-8,94,52,-99,42,29,-119,-136,-150,-92,-168
-114,-8,100,58,-111,42,41,-113,-130,-150,-92,-174
-120,-13,100,64,-111,36,53,-107,-124,-150,-92,-174
-132,-19,106,76,-123,36,65,-101,-118,-150,-92,-180
-138,-25,106,82,-123,36,77,-95,-112,-150,-92,-180
-144,-19,118,82,-135,42,83,-77,-100,-150,-98,-186
-144,-19,118,82,-135,42,89,-65,-94,-150,-104,-186
-150,-13,130,82,-141,54,95,-54,-82,-150,-110,-192
-150,-13,130,82,-141,54,101,-48,-76,-150,-116,-192
-150,-19,124,82,-141,48,107,-48,-76,-144,-110,-198
-150,-19,124,82,-141,48,107,-48,-76,-144,-110,-198
-150,-25,118,88,-135,42,113,-48,-76,-138,-104,-204
-150,-25,118,88,-135,42,113,-48,-76,-138,-104,-204
-150,-19,124,82,-141,48,113,-54,-70,-138,-104,-204
-150,-19,124,82,-141,48,113,-54,-70,-138,-104,-204
-150,-13,130,82,-141,54,113,-54,-64,-138,-104,-204
-150,-13,130,82,-141,54,113,-54,-64,-138,-104,-204
-150,-19,124,82,-141,48,119,-54,-58,-132,-104,-198
-150,-19,124,82,-141,48,119,-48,-58,-132,-104,-192
-150,-25,118,88,-135,42,125,-42,-52,-126,-104,-186
-150,-25,118,88,-135,42,125,-36,-52,-126,-104,-180
-150,-25,118,88,-135,42,125,-30,-52,-126,-104,-186
-150,-25,118,88,-135,42,125,-30,-52,-126,-104,-186
-150,-25,118,88,-135,42,125,-24,-52,-126,-104,-192
-150,-25,118,88,-135,42,125,-24,-52,-126,-104,-192
-144,-19,118,82,-135,42,131,-24,-46,-120,-104,-192
-144,-19,118,82,-135,42,131,-24,-46,-120,-104,-192
-138,-13,118,76,-129,48,137,-24,-40,-114,-104,-192
-138,-13,118,76,-129,48,137,-24,-40,-114,-104,-192
-138,-8,124,70,-135,54,137,-24,-46,-114,-98,-186
-138,-8,124,70,-135,54,137,-24,-46,-114,-98,-186
-138,-8,130,70,-135,60,137,-24,-52,-114,-92,-180
-138,-8,130,70,-135,60,137,-24,-52,-114,-92,-180
-132,-8,124,64,-129,54,137,-18,-46,-108,-92,-180
-132,-8,124,64,-129,54,137,-18,-46,-108,-92,-180
-126,-8,118,64,-123,54,137,-12,-40,-102,-92,-180
-126,-8,118,64,-123,54,137,-12,-40,-102,-92,-180
-132,-8,124,64,-129,54,137,-6,-34,-96,-92,-180
-132,-8,124,64,-129,54,137,-6,-34,-96,-92,-180
-138,-8,130,70,-135,60,137,0,-28,-90,-92,-180
-138,-8,130,70,-135,60,137,0,-28,-90,-92,-180
-132,-8,124,64,-129,54,143,6,-28,-90,-86,-174
-132,-8,124,64,-129,54,143,6,-28,-90,-86,-174
-126,-8,118,64,-123,54,149,12,-28,-90,-80,-168
-126,-8,118,64,-123,54,149,12,-28,-90,-80,-168
-126,-8,124,58,-123,60,149,12,-22,-90,-80,-174
-126,-8,124,58,-123,60,149,12,-22,-90,-80,-174
-126,-2,130,58,-129,66,149,12,-16,-90,-80,-180
-126,-2,130,58,-129,66,149,12,-16,-90,-80,-180
-120,-2,124,52,-123,60,149,18,-10,-84,-80,-174
-120,-2,124,52,-123,60,149,18,-10,-84,-80,-174
-114,-2,118,52,-117,60,149,24,-4,-78,-80,-168
-114,-2,118,52,-117,60,149,24,-4,-78,-80,-168
-114,4,124,46,-117,66,155,30,2,-72,-74,-168
-114,4,124,46,-117,66,155,36,8,-72,-74,-168
-114,10,130,46,-123,72,161,42,13,-66,-68,-168
-114,10,130,46,-123,72,161,48,13,-66,-68,-168
-114,10,130,46,-123,72,167,54,13,-60,-62,-162
-114,10,130,46,-123,72,167,60,19,-54,-56,-162
-114,10,130,46,-123,72,173,66,25,-48,-50,-156
-114,10,130,46,-123,72,173,72,31,-42,-44,-156
-108,16,130,40,-117,72,179,84,37,-36,-44,-150
-108,16,130,40,-117,72,179,96,43,-36,-44,-144
-102,22,130,34,-117,78,185,108,49,-30,-44,-138
-102,22,130,34,-117,78,185,120,55,-30,-44,-132
-102,22,130,34,-117,78,191,126,61,-24,-38,-132
-102,22,130,34,-117,78,197,132,67,-18,-38,-132
-102,22,130,34,-117,78,203,138,73,-12,-32,-132
-102,22,130,34,-117,78,209,144,79,-6,-32,-132
-96,28,130,28,-111,78,215,156,91,0,-27,-126
-96,34,136,22,-117,84,215,168,103,6,-27,-126
-90,40,136,16,-111,90,221,180,115,12,-27,-120
-90,46,142,16,-117,96,221,186,127,18,-21,-120
-84,52,142,10,-111,96,227,204,139,23,-15,-114
-84,52,142,10,-111,96,227,222,145,23,-9,-114
-78,58,142,4,-111,102,233,240,157,35,-3,-108
-78,58,142,4,-111,102,233,258,163,41,3,-108
-72,58,136,4,-105,96,239,270,175,47,9,-102
-66,58,130,4,-99,96,239,276,187,53,15,-102
-60,58,124,4,-93,90,245,288,199,59,21,-96
-54,58,118,4,-87,90,251,294,211,65,27,-96
-48,64,118,-1,-81,90,251,306,223,71,33,-90
-48,70,124,-1,-87,96,251,318,229,77,39,-84
-42,76,124,-7,-81,102,251,330,241,83,45,-78
-42,82,130,-13,-87,108,251,342,247,89,51,-72
-30,88,124,-19,-75,108,251,348,253,95,57,-66
-24,88,118,-25,-69,102,251,354,253,101,57,-66
-12,94,112,-31,-63,102,251,360,259,107,63,-60
-6,94,106,-37,-57,102,251,366,265,113,63,-60
-1,94,100,-37,-51,96,245,372,271,119,69,-54
-1,94,94,-43,-45,96,245,372,277,119,75,-48
-1,94,88,-43,-39,96,239,378,283,125,81,-42
5,94,82,-49,-33,90,239,378,289,125,87,-36
17,94,70,-55,-21,84,239,378,289,131,93,-30
23,94,64,-55,-15,84,233,378,289,131,93,-24
35,94,52,-61,-3,78,227,378,289,137,99,-18
41,94,46,-67,2,72,221,378,289,137,99,-12
47,94,40,-67,2,72,209,372,289,143,105,-6
53,94,34,-73,2,66,203,366,289,149,111,-6
59,94,28,-73,8,66,191,360,289,155,117,0
65,94,22,-79,14,60,185,354,289,161,123,0
71,94,16,-79,20,60,173,336,277,155,123,6
77,94,10,-85,26,54,161,324,271,149,123,6
83,94,4,-85,32,54,149,306,259,143,123,12
89,94,-2,-91,38,48,137,294,253,137,123,12
95,88,-8,-91,50,42,125,270,247,131,117,12
95,88,-8,-91,50,42,113,252,235,131,117,12
101,82,-13,-91,56,30,101,228,223,125,111,12
101,82,-13,-91,56,30,89,210,211,125,111,12
113,88,-19,-97,68,30,71,192,193,113,105,12
119,88,-25,-103,74,30,59,180,181,107,105,12
131,94,-31,-109,80,30,41,162,163,95,99,12
137,94,-37,-115,86,24,29,144,151,89,99,12
137,88,-43,-109,92,18,17,126,139,83,93,12
137,82,-49,-109,92,12,11,108,127,77,93,12
137,76,-55,-103,98,6,-1,90,115,71,87,12
137,70,-61,-103,98,0,-1,72,103,65,87,12
131,76,-49,-103,92,12,-1,60,91,59,81,6
131,76,-49,-103,92,12,-6,54,79,53,81,0
125,82,-37,-103,80,18,-12,42,67,47,75,-6
125,82,-37,-103,80,18,-18,36,55,41,75,-12
119,76,-37,-97,80,18,-18,24,49,35,69,-18
113,76,-31,-91,74,18,-18,18,43,29,63,-24
107,70,-31,-85,68,18,-18,6,37,23,57,-30
101,70,-25,-85,62,18,-18,0,31,23,51,-36
89,64,-19,-73,56,18,-12,-6,25,23,45,-42
77,58,-13,-67,44,18,-12,-6,19,18,39,-42
65,52,-8,-55,38,18,-6,-12,13,12,33,-48
53,46,-8,-49,26,18,-6,-12,13,6,27,-48
47,40,-8,-43,26,18,-1,-18,13,0,21,-54
41,40,-8,-37,20,18,-1,-18,13,-6,15,-60
35,34,-8,-31,14,18,-1,-24,8,-12,9,-66
29,34,-2,-31,8,18,-1,-24,8,-18,3,-72
23,34,4,-25,2,24,-1,-30,2,-24,-3,-78
17,34,10,-25,2,24,5,-30,2,-30,-9,-84
11,34,16,-19,2,30,11,-36,-4,-36,-15,-90
5,34,22,-19,-3,30,17,-36,-4,-42,-21,-96
-1,28,22,-13,-3,30,23,-42,-10,-42,-27,-102
-1,28,28,-7,-9,30,23,-42,-10,-42,-27,-102
-1,22,28,-1,-15,24,29,-48,-16,-42,-27,-108
-6,22,34,-1,-21,30,29,-48,-16,-42,-27,-108
-12,22,40,4,-27,30,29,-48,-22,-48,-27,-114
-18,22,46,4,-33,36,29,-48,-22,-48,-27,-114
-24,22,52,4,-39,36,29,-48,-28,-54,-32,-120
-30,22,58,4,-45,42,29,-48,-28,-54,-32,-120
-36,16,58,4,-45,36,29,-48,-28,-54,-38,-126
-36,16,58,4,-45,36,29,-48,-28,-54,-38,-126
-42,10,58,10,-51,36,29,-48,-28,-54,-44,-132
-42,10,58,10,-51,36,29,-48,-28,-54,-44,-132
-48,10,64,10,-57,36,35,-48,-28,-60,-50,-132
-48,10,64,10,-57,36,35,-48,-28,-60,-50,-132
-54,10,70,16,-63,42,41,-48,-28,-66,-56,-132
-54,10,70,16,-63,42,41,-48,-28,-66,-56,-132
-54,4,64,16,-57,36,41,-48,-28,-66,-50,-132
-54,-2,58,22,-57,30,41,-48,-28,-66,-50,-132
-54,-8,52,22,-51,24,41,-48,-28,-66,-44,-132
-54,-8,46,28,-51,18,41,-48,-28,-66,-44,-132
-54,-8,52,22,-51,24,41,-48,-34,-72,-50,-138
-54,-8,52,22,-51,24,41,-48,-34,-72,-50,-138
-54,-2,58,22,-57,30,41,-48,-40,-78,-56,-144
-54,-2,58,22,-57,30,41,-48,-40,-78,-56,-144
-54,-2,58,22,-57,30,41,-48,-40,-78,-56,-144
-54,-2,58,22,-57,30,41,-48,-40,-78,-56,-144
-54,-2,58,22,-57,30,41,-48,-40,-78,-56,-144
-54,-2,58,22,-57,30,41,-48,-40,-78,-56,-144
-60,-8,58,28,-57,24,41,-48,-40,-72,-50,-144
-60,-8,58,28,-57,24,41,-48,-40,-72,-50,-144
-66,-8,58,34,-63,24,41,-48,-40,-66,-44,-144
-66,-8,58,34,-63,24,41,-48,-40,-66,-44,-144
-60,-8,58,28,-57,24,41,-48,-40,-60,-50,-144
-60,-2,64,22,-63,30,41,-48,-40,-60,-50,-144
-54,4,64,16,-57,36,41,-48,-40,-54,-56,-144
-54,10,70,16,-63,42,41,-48,-40,-54,-56,-144
-54,10,70,16,-63,42,47,-42,-34,-54,-50,-144
-54,10,70,16,-63,42,47,-42,-34,-54,-50,-144
-54,10,70,16,-63,42,53,-36,-28,-54,-44,-144
-54,10,70,16,-63,42,53,-36,-28,-54,-44,-144
-54,4,64,16,-57,36,53,-36,-22,-54,-38,-138
-54,4,64,16,-57,36,53,-36,-22,-54,-38,-138
-54,-2,58,22,-57,30,53,-36,-16,-54,-32,-132
-54,-2,58,22,-57,30,53,-36,-16,-54,-32,-132
-54,-2,58,22,-57,30,53,-36,-16,-48,-32,-132
-54,-2,58,22,-57,30,53,-36,-16,-48,-32,-132
-54,-2,58,22,-57,30,53,-36,-16,-42,-32,-132
-54,-2,58,22,-57,30,53,-36,-16,-42,-32,-132
-54,4,64,16,-57,36,53,-36,-16,-42,-32,-132
-54,10,70,16,-63,42,53,-36,-16,-42,-32,-132
-54,16,76,10,-63,48,53,-36,-16,-42,-32,-132
-54,22,82,10,-69,54,53,-36,-16,-42,-32,-132
-54,16,76,10,-63,48,53,-30,-10,-36,-27,-126
-54,16,76,10,-63,48,53,-30,-10,-36,-27,-126
-54,10,70,16,-63,42,53,-24,-4,-30,-27,-120
-54,10,70,16,-63,42,53,-24,-4,-30,-27,-120
-54,16,76,10,-63,48,53,-30,-10,-30,-27,-126
-54,22,82,10,-69,54,53,-30,-10,-30,-27,-126
-54,28,88,4,-69,60,53,-36,-16,-30,-27,-132
-54,34,94,4,-75,66,53,-36,-16,-30,-27,-132
-48,28,82,4,-63,54,53,-36,-16,-36,-27,-132
-48,28,82,4,-63,54,53,-36,-16,-36,-27,-132
-42,22,70,4,-57,48,53,-36,-16,-42,-27,-132
-42,22,70,4,-57,48,53,-36,-16,-42,-27,-132
-48,16,70,10,-57,42,53,-36,-16,-42,-27,-132
-48,16,70,10,-57,42,53,-36,-16,-42,-27,-132
-54,10,70,16,-63,42,53,-36,-16,-42,-32,-132
-54,10,70,16,-63,42,53,-36,-16,-42,-32,-132
-54,16,76,10,-63,48,47,-42,-16,-42,-32,-138
-54,16,76,10,-63,48,47,-42,-16,-42,-32,-138
-54,22,82,10,-69,54,41,-48,-16,-42,-32,-144
-54,22,82,10,-69,54,41,-48,-16,-42,-32,-144
-54,16,76,10,-63,48,41,-48,-22,-42,-32,-138
-54,16,76,10,-63,48,41,-48,-22,-42,-32,-138
-54,10,70,16,-63,42,41,-48,-28,-42,-32,-132
-54,10,70,16,-63,42,41,-48,-28,-42,-32,-132
-54,10,70,16,-63,42,47,-48,-22,-42,-27,-138
-54,10,70,16,-63,42,47,-48,-22,-42,-27,-138
-54,10,70,16,-63,42,53,-48,-16,-42,-27,-144
-54,10,70,16,-63,42,53,-48,-16,-42,-27,-144
-54,10,70,16,-63,42,47,-48,-16,-42,-27,-150
-54,10,70,16,-63,42,47,-48,-16,-42,-27,-150
-54,10,70,16,-63,42,41,-48,-16,-42,-27,-156
-54,10,70,16,-63,42,41,-48,-16,-42,-27,-156
-60,4,70,22,-63,36,47,-54,-22,-48,-27,-156
-60,4,70,22,-63,36,47,-54,-22,-48,-27,-156
-66,-2,70,28,-69,36,53,-54,-28,-54,-27,-156
-66,-2,70,28,-69,36,53,-54,-28,-54,-27,-156
-66,-2,70,28,-69,36,53,-54,-28,-54,-27,-156
-66,-2,70,28,-69,36,53,-54,-28,-54,-27,-156
-66,-2,70,28,-69,36,53,-54,-28,-54,-27,-156
-66,-2,70,28,-69,36,53,-54,-28,-54,-27,-156
-66,-2,70,28,-69,36,53,-54,-34,-54,-27,-156
-66,-2,70,28,-69,36,53,-54,-34,-54,-27,-156
-66,-2,70,28,-69,36,53,-54,-40,-54,-27,-156
-66,-2,70,28,-69,36,53,-54,-40,-54,-27,-156
-66,-2,70,28,-69,36,53,-54,-40,-54,-27,-162
-66,-2,70,28,-69,36,53,-54,-40,-54,-27,-162
-66,-2,70,28,-69,36,53,-59,-40,-54,-32,-168
-66,-2,70,28,-69,36,53,-59,-40,-54,-32,-168
-72,-2,76,28,-75,36,53,-59,-40,-60,-27,-162
-72,-2,76,28,-75,36,53,-59,-40,-60,-27,-162
-78,-2,82,34,-81,42,53,-59,-40,-66,-27,-156
-78,-2,82,34,-81,42,53,-59,-40,-66,-27,-156
-78,-2,82,34,-81,42,53,-59,-40,-66,-27,-162
-78,-2,82,34,-81,42,53,-59,-40,-66,-27,-162
-78,-2,82,34,-81,42,53,-59,-40,-66,-27,-168
-78,-2,82,34,-81,42,53,-59,-40,-66,-27,-168
-84,-8,82,40,-81,36,53,-59,-40,-66,-27,-168
-84,-8,82,40,-81,36,53,-59,-40,-66,-27,-168
-90,-8,82,46,-87,36,53,-59,-40,-66,-27,-168
-90,-8,82,46,-87,36,53,-59,-40,-66,-27,-168
-84,-8,76,40,-81,30,53,-59,-46,-66,-27,-168
-84,-8,76,40,-81,30,53,-59,-46,-66,-27,-168
-78,-8,70,40,-75,30,53,-59,-52,-66,-27,-168
-78,-8,70,40,-75,30,53,-59,-52,-66,-27,-168
-78,-8,70,40,-75,30,53,-65,-52,-60,-27,-168
-78,-8,70,40,-75,30,53,-65,-52,-60,-27,-168
-78,-8,70,40,-75,30,53,-71,-52,-54,-27,-168
-78,-8,70,40,-75,30,53,-71,-52,-54,-27,-168
-84,-8,76,40,-81,30,53,-65,-46,-54,-27,-168
-84,-8,76,40,-81,30,53,-65,-46,-54,-27,-168
-90,-8,82,46,-87,36,53,-59,-40,-54,-21,-168
-90,-8,82,46,-87,36,53,-59,-40,-54,-27,-168
-90,-8,82,46,-87,36,53,-59,-40,-54,-21,-162
-90,-8,88,40,-87,42,53,-59,-40,-54,-21,-162
-90,-2,94,40,-93,48,53,-59,-40,-54,-15,-162
-90,-2,94,40,-93,48,59,-59,-40,-54,-15,-162
-90,-2,94,40,-93,48,59,-54,-40,-54,-9,-162
-90,-2,94,40,-93,48,59,-54,-40,-54,-3,-156
-84,4,94,34,-87,48,65,-48,-40,-48,9,-156
-72,16,94,22,-81,54,71,-42,-34,-42,21,-156
-72,16,94,22,-81,54,77,-48,-34,-42,27,-150
-66,16,88,16,-75,54,77,-48,-22,-36,27,-150
-60,28,94,10,-75,60,95,-42,-16,-24,45,-144
-48,40,94,4,-69,66,113,-24,2,-18,57,-132
-36,52,94,-1,-63,72,119,-6,13,-6,57,-126
-30,58,94,-7,-63,78,131,6,13,0,63,-126
-18,64,88,-13,-51,78,125,18,13,6,63,-120
-18,70,94,-19,-57,84,131,24,25,12,69,-120
-24,76,106,-19,-63,90,149,24,25,18,75,-108
-24,76,106,-19,-63,90,155,36,31,23,81,-102
-30,76,112,-13,-69,96,167,36,31,23,81,-96
-36,82,124,-13,-81,102,179,54,37,23,81,-90
-30,88,124,-19,-75,108,173,54,49,23,93,-90
-30,88,124,-19,-75,108,161,54,49,23,93,-84
-12,94,112,-31,-63,102,143,54,55,23,105,-84
-1,94,100,-37,-51,96,125,54,55,29,105,-84
-1,76,70,-37,-27,78,113,60,55,29,99,-78
-1,70,64,-31,-27,72,95,48,55,29,99,-78
5,58,46,-31,-15,54,77,42,43,23,93,-84
11,52,34,-31,-3,48,59,30,37,23,93,-84
5,40,28,-19,-3,36,41,12,31,23,87,-84
5,40,28,-19,-3,36,35,0,25,18,81,-84
-1,22,16,-7,-3,24,29,-12,13,12,87,-78
-1,16,22,-1,-9,18,29,-24,8,0,69,-90
-6,4,16,4,-9,12,29,-42,-10,-18,57,-90
-6,4,16,4,-9,12,29,-48,-16,-30,51,-96
-6,-8,4,4,-3,0,23,-54,-16,-36,39,-96
-6,-8,4,4,-3,0,23,-54,-22,-42,39,-96
-6,-2,10,4,-9,6,17,-54,-16,-36,45,-84
-6,-2,10,4,-9,6,17,-54,-16,-24,45,-84
-6,10,22,4,-15,18,17,-54,-10,-18,51,-78
-6,10,22,4,-15,18,11,-54,-22,-12,51,-78
-6,10,22,4,-15,18,11,-59,-28,-24,51,-84
-6,4,16,4,-9,12,11,-59,-34,-30,45,-84
-18,-8,16,4,-15,6,11,-59,-40,-36,39,-84
-24,-8,22,10,-21,6,17,-71,-46,-36,33,-90
-36,-8,34,16,-33,12,23,-77,-52,-48,27,-102
-48,-8,40,22,-45,12,29,-77,-58,-54,21,-114
-66,-8,52,34,-63,18,35,-77,-58,-60,15,-126
-84,-8,70,46,-81,24,47,-77,-58,-60,15,-132
-90,-8,76,46,-87,30,47,-77,-58,-60,9,-126
-102,-8,88,52,-99,36,47,-77,-58,-66,3,-126
-102,-13,82,58,-93,30,41,-77,-58,-66,-3,-126
-108,-13,88,58,-99,30,53,-65,-58,-66,3,-126
-108,-19,82,64,-99,24,77,-59,-58,-60,3,-126
-108,-19,82,64,-99,24,89,-54,-46,-60,3,-126
-108,-25,76,64,-93,18,101,-54,-46,-48,3,-126
-108,-25,76,64,-93,18,107,-54,-46,-48,3,-126
-114,-13,94,64,-105,36,119,-54,-34,-48,3,-126
-114,-13,94,64,-105,36,143,-36,-28,-42,3,-126
-120,-8,112,58,-117,48,167,-30,-22,-42,3,-126
-126,-8,118,64,-123,54,179,-30,-22,-42,3,-126
-126,-8,112,64,-123,48,179,-18,-16,-42,3,-126
-120,-19,94,70,-111,30,155,-18,-16,-36,3,-126
-108,-31,70,70,-93,12,113,-12,-16,-36,9,-126
-108,-31,70,70,-93,12,89,-12,-10,-30,9,-120
-108,-25,76,64,-93,18,83,0,2,-24,15,-120
-102,-31,64,64,-87,12,77,0,2,-18,15,-114
-96,-31,58,64,-81,6,65,0,2,-12,21,-114
-90,-37,46,64,-69,0,53,6,2,-12,27,-114
-84,-43,34,64,-63,-6,47,12,13,-6,33,-102
-72,-49,16,58,-45,-11,47,30,13,6,39,-102
-66,-55,4,58,-39,-17,41,30,25,0,39,-90
-66,-55,4,58,-39,-17,23,30,25,0,39,-90
-60,-55,-2,58,-33,-23,5,42,37,12,51,-90
-54,-55,-8,52,-27,-23,-1,54,43,18,51,-90
-48,-55,-8,52,-21,-29,-12,54,55,23,69,-84
-30,-43,-8,34,-9,-23,-48,66,67,35,81,-66
-1,-43,-37,22,8,-41,-96,66,91,71,99,-48
-1,-43,-49,16,20,-41,-138,72,115,89,117,-36
23,-49,-79,4,50,-59,-174,72,121,107,135,-24
53,-49,-109,4,80,-77,-210,84,145,125,165,-12
89,-31,-127,-19,104,-77,-264,84,169,149,177,6
143,-8,-157,-61,146,-77,-366,48,157,149,177,18
179,-25,-211,-67,194,-113,-468,-12,145,149,189,29
209,-55,-265,-67,236,-161,-546,-65,103,131,189,29
239,-73,-313,-73,272,-191,-618,-161,43,107,165,29
251,-85,-343,-79,296,-215,-678,-263,-4,77,159,29
257,-97,-361,-73,308,-227,-714,-347,-70,47,147,24
263,-97,-367,-79,314,-233,-732,-455,-154,12,123,18
281,-109,-397,-79,338,-245,-750,-539,-226,-36,93,-6
287,-139,-433,-67,356,-281,-762,-575,-274,-54,87,-12
311,-157,-475,-73,392,-311,-768,-605,-310,-84,69,-18
317,-151,-475,-79,392,-305,-780,-683,-358,-132,51,-18
347,-127,-481,-103,410,-299,-816,-743,-394,-132,63,18
419,-85,-505,-163,464,-293,-888,-809,-406,-84,141,83
527,-31,-565,-241,542,-293,-978,-935,-454,-48,225,191
659,10,-643,-331,650,-305,-1074,-1031,-472,12,339,305
785,64,-721,-427,752,-317,-1146,-1055,-442,89,459,425
893,106,-781,-493,836,-329,-1194,-1037,-388,179,567,527
965,148,-811,-553,890,-323,-1242,-1049,-346,251,639,605
1037,208,-829,-619,938,-305,-1296,-1049,-322,287,705,677
1115,268,-841,-691,974,-275,-1332,-1025,-280,353,777,761
1169,310,-853,-733,1010,-263,-1320,-959,-226,389,825,821
1169,328,-835,-745,998,-245,-1272,-917,-226,353,801,833
1121,328,-787,-727,956,-227,-1206,-893,-280,275,735,803
1061,280,-775,-673,920,-245,-1146,-917,-394,131,603,713
995,142,-853,-565,926,-347,-1086,-959,-544,-102,363,509
863,-19,-889,-415,872,-455,-1008,-1025,-718,-342,111,281
653,-73,-733,-283,692,-401,-882,-1061,-820,-480,-56,107
359,-49,-415,-151,386,-233,-684,-989,-784,-498,-134,6
41,-8,-55,-7,44,-29,-408,-785,-634,-426,-134,-66
-120,-13,100,64,-111,36,-234,-581,-472,-324,-110,-108
-114,-8,100,58,-111,42,-192,-515,-412,-282,-98,-120
-102,-8,94,52,-99,42,-174,-455,-358,-252,-92,-108
-102,-2,106,46,-105,54,-138,-365,-286,-216,-74,-108
-96,-8,94,46,-93,42,-102,-305,-250,-186,-68,-120
-84,4,94,34,-87,48,-60,-239,-208,-168,-56,-114
-78,4,88,28,-81,48,-6,-173,-142,-114,-27,-96
-78,-2,82,34,-81,42,5,-143,-112,-90,-9,-90
-90,-2,94,40,-93,48,17,-143,-106,-78,-3,-102
-90,-8,82,46,-87,36,29,-131,-94,-72,-3,-102
-102,-19,76,58,-93,24,41,-131,-94,-72,-15,-114
-114,-19,88,64,-105,30,47,-125,-94,-72,-15,-120
-132,-37,88,82,-111,18,59,-107,-88,-72,-27,-126
-144,-37,100,88,-123,24,71,-95,-70,-78,-27,-132
-150,-37,106,94,-129,30,89,-71,-64,-78,-32,-138
-156,-31,118,94,-141,36,89,-65,-58,-78,-32,-138
-162,-31,124,94,-147,42,101,-54,-52,-72,-32,-138
-162,-31,124,94,-147,42,101,-54,-52,-72,-27,-138
-168,-31,130,100,-153,42,107,-54,-52,-66,-27,-132
-162,-31,124,94,-147,42,107,-59,-52,-66,-27,-132
-168,-31,130,100,-153,42,119,-59,-46,-54,-27,-126
-174,-37,130,106,-153,42,119,-59,-46,-54,-27,-126
-168,-31,130,100,-153,42,119,-54,-40,-54,-27,-132
-168,-31,130,100,-153,42,119,-54,-40,-48,-27,-132
-162,-19,136,88,-153,54,119,-54,-34,-48,-27,-138
-168,-19,142,94,-159,54,119,-54,-34,-48,-27,-138
-168,-19,142,94,-159,54,125,-48,-34,-54,-27,-138
-162,-19,136,88,-153,54,125,-48,-34,-54,-27,-132
-162,-25,130,94,-147,48,131,-48,-28,-54,-27,-126
-162,-25,130,94,-147,48,137,-48,-28,-54,-27,-120
-162,-19,136,88,-153,54,137,-48,-28,-54,-27,-126
-162,-19,136,88,-153,54,137,-48,-28,-54,-27,-120
-162,-13,142,88,-153,60,137,-42,-22,-54,-27,-126
-162,-13,142,88,-153,60,137,-42,-22,-48,-27,-120
-162,-13,142,88,-153,60,131,-36,-22,-42,-27,-120
-162,-13,142,88,-153,60,131,-30,-22,-42,-27,-120
-162,-13,142,88,-153,60,131,-24,-16,-36,-27,-120
-156,-8,142,82,-153,60,131,-24,-16,-36,-27,-120
-156,-13,136,82,-147,54,131,-24,-10,-42,-21,-114
-156,-13,136,82,-147,54,131,-24,-10,-36,-21,-114
-156,-13,136,82,-147,54,131,-24,-10,-42,-9,-114
-156,-13,136,82,-147,54,131,-24,-10,-42,-9,-114
-156,-13,136,82,-147,54,137,-18,-10,-42,-15,-114
-156,-8,142,82,-153,60,143,-18,-10,-42,-15,-114
-156,-8,142,82,-153,60,149,-18,-4,-36,-21,-114
-156,-8,142,82,-153,60,149,-18,-4,-36,-15,-114
-156,-13,136,82,-147,54,149,-6,2,-30,-15,-108
-156,-13,136,82,-147,54,149,-6,2,-30,-15,-108
-156,-13,136,82,-147,54,155,6,13,-18,-15,-102
-156,-13,136,82,-147,54,155,12,13,-18,-15,-102
-150,-8,136,76,-147,60,155,12,13,-18,-15,-102
-150,-8,136,76,-147,60,155,18,13,-18,-9,-102
-138,-8,136,64,-135,66,155,24,8,-12,-9,-108
-138,-8,136,64,-135,66,161,24,13,-6,-9,-108
-144,-8,136,70,-141,60,161,36,13,-6,-3,-96
-144,-8,142,70,-141,66,161,36,13,-6,-3,-96
-150,-8,142,76,-147,66,167,36,13,0,-3,-90
-150,-8,142,76,-147,66,167,42,13,12,-3,-84
-150,-8,142,76,-147,66,161,42,25,6,3,-90
-150,-8,142,76,-147,66,161,54,31,12,3,-90
-150,-8,142,76,-147,66,161,60,37,6,3,-96
-150,-8,148,70,-147,72,161,66,37,6,3,-96
-144,-2,148,64,-147,72,167,72,37,12,9,-90
-144,-2,148,64,-147,72,167,78,49,12,9,-90
-144,4,154,64,-147,78,179,84,49,23,15,-78
-144,10,160,58,-153,84,179,90,55,23,21,-78
-144,10,160,58,-153,84,185,96,55,23,21,-84
-138,16,160,52,-147,90,185,102,61,23,21,-84
-138,16,160,52,-147,90,185,108,67,23,27,-84
-132,16,154,52,-141,84,197,114,73,29,33,-84
-132,10,148,52,-141,78,197,126,85,35,33,-78
-132,16,154,52,-141,84,203,132,97,41,33,-72
-132,10,148,52,-141,78,209,156,109,47,33,-66
-132,10,148,52,-141,78,209,156,115,47,45,-66
-132,16,154,52,-141,84,221,174,127,59,51,-60
-132,16,154,52,-141,84,221,186,133,65,51,-60
-132,22,160,46,-147,90,227,192,151,71,51,-54
-126,28,160,40,-141,96,227,204,151,77,63,-54
-126,34,166,40,-147,102,239,216,163,89,69,-48
-126,34,166,40,-147,102,239,234,175,95,69,-48
-120,34,160,34,-141,96,245,246,181,101,75,-48
-120,40,166,34,-141,102,245,258,193,107,81,-42
-120,40,166,34,-141,102,257,270,205,119,87,-36
-114,40,160,28,-135,102,263,282,217,125,93,-36
-108,46,160,22,-135,102,269,306,223,137,93,-36
-108,46,160,22,-135,102,269,312,235,143,99,-24
-96,52,154,16,-123,102,269,324,247,149,105,-24
-96,58,160,10,-129,108,281,336,253,155,111,-24
-96,58,160,10,-129,108,281,348,265,167,117,-12
-96,58,160,10,-129,108,281,360,271,179,123,-12
-90,58,154,10,-123,108,287,372,283,185,123,-12
-90,64,160,4,-123,114,287,390,295,191,123,-6
-78,64,148,4,-111,108,293,402,307,197,135,0
-72,64,142,4,-105,102,293,414,307,203,141,6
-66,70,142,4,-105,108,293,432,313,209,141,0
-60,70,136,4,-99,102,293,432,319,215,147,0
-60,70,136,4,-99,102,287,456,331,221,147,6
-54,70,130,-1,-93,102,287,468,337,227,153,12
-42,82,130,-13,-87,108,287,468,337,233,159,18
-36,82,124,-13,-81,102,287,474,343,233,165,18
-24,88,118,-25,-69,102,287,468,337,233,165,29
-18,94,118,-31,-69,108,275,468,343,245,165,29
-12,88,106,-31,-57,96,269,468,343,245,171,29
-1,88,94,-37,-45,90,269,468,343,245,171,29
-1,82,76,-37,-33,84,263,462,343,251,171,29
5,82,70,-43,-27,78,257,462,343,251,183,29
5,76,64,-37,-21,72,245,456,343,257,183,35
11,82,64,-43,-21,78,239,450,343,257,183,35
5,76,64,-37,-21,72,221,444,337,257,183,47
11,76,58,-43,-15,72,215,432,331,251,183,47
17,76,52,-43,-9,66,203,420,325,251,183,41
23,76,46,-49,-3,66,191,402,319,239,189,47
29,76,40,-49,2,60,179,372,301,239,189,41
35,76,34,-55,2,60,167,348,295,233,183,41
47,70,16,-55,8,48,155,330,277,227,183,41
53,70,10,-61,14,42,131,306,253,215,183,41
65,64,-8,-61,32,30,119,294,247,215,177,41
71,64,-8,-67,38,30,101,270,235,209,171,41
77,70,-8,-73,38,30,77,240,211,197,171,53
89,58,-25,-73,56,12,71,222,199,185,165,53
95,64,-25,-79,62,18,53,204,187,167,165,59
95,64,-25,-79,62,18,41,186,175,155,165,59
95,64,-25,-79,62,18,29,174,163,149,165,59
101,58,-37,-79,68,6,17,150,151,143,153,59
101,58,-37,-79,68,6,11,132,133,143,153,53
107,58,-43,-79,74,6,-1,114,127,137,147,53
101,52,-43,-73,74,0,-1,96,109,131,141,47
95,52,-37,-73,68,6,-1,84,97,125,141,47
89,52,-31,-67,62,6,-1,78,85,119,135,35
83,52,-25,-67,56,12,-12,66,73,107,129,29
83,58,-19,-67,50,18,-12,54,67,101,123,29
77,58,-13,-67,44,18,-12,54,55,95,117,29
77,52,-19,-61,50,12,-12,42,55,89,117,29
71,52,-13,-61,44,18,-12,36,49,89,117,29
59,52,-8,-55,32,24,-12,36,43,89,111,29
53,52,-8,-49,26,24,-12,30,37,83,105,24
41,40,-8,-37,20,18,-6,30,31,71,99,24
35,34,-8,-31,14,18,-1,24,25,65,93,24
23,34,4,-25,2,24,-1,12,19,65,87,18
23,34,4,-25,2,24,-1,12,19,59,81,12
5,40,28,-19,-3,36,-1,0,19,65,81,0
-1,40,34,-19,-9,42,-1,0,13,59,75,-6
-1,34,28,-13,-9,36,-1,0,19,53,69,-12
-1,34,34,-13,-15,36,-1,0,19,53,63,-12
-1,22,22,-7,-9,24,11,6,13,53,63,-18
-12,22,40,4,-27,30,17,6,13,47,57,-18
-12,16,34,4,-21,24,17,6,13,47,57,-18
-12,16,34,4,-21,24,17,6,13,47,51,-18
-18,16,40,4,-27,30,17,6,13,41,57,-18
-24,16,46,4,-33,30,23,0,13,41,57,-18
-30,10,46,4,-39,30,23,-6,13,35,51,-24
-30,10,46,4,-39,30,29,-6,2,35,45,-30
-30,16,52,4,-39,36,29,-12,-4,23,39,-36
-36,16,58,4,-45,36,29,-12,-4,23,39,-36
-36,10,52,4,-45,30,29,-12,-4,23,33,-42
-36,10,52,4,-45,30,29,-18,-10,23,33,-48
-42,4,52,10,-45,30,29,-18,-10,23,27,-48
-42,-2,46,16,-45,24,29,-18,-10,23,27,-48
-54,-2,58,22,-57,30,29,-18,-10,23,21,-48
-54,-2,58,22,-57,30,29,-18,-10,23,21,-48
-60,-2,64,22,-63,30,29,-24,-4,23,21,-48
-60,-2,64,22,-63,30,29,-24,-4,23,21,-54
-66,4,76,22,-69,42,23,-24,-10,23,15,-54
-66,-2,70,28,-69,36,23,-24,-10,23,15,-54
-66,4,76,22,-69,42,23,-24,-16,18,15,-54
-66,4,76,22,-69,42,23,-24,-22,18,15,-54
-66,-2,70,28,-69,36,29,-24,-16,18,15,-60
-66,-8,64,28,-63,30,29,-24,-16,18,15,-60
-66,-8,58,34,-63,24,35,-24,-10,18,15,-60
-72,-8,58,40,-69,18,35,-24,-10,18,15,-60
-66,-8,58,34,-63,24,29,-24,-16,18,9,-60
-66,-8,58,34,-63,24,29,-24,-16,18,9,-60
-60,-8,58,28,-57,24,23,-24,-16,18,9,-66
-60,-8,58,28,-57,24,23,-24,-16,18,9,-66
-66,-8,64,28,-63,30,29,-24,-10,23,9,-60
-66,-8,58,34,-63,24,29,-18,-16,23,9,-60
-72,-8,64,34,-69,24,29,-18,-10,23,15,-54
-72,-8,64,34,-69,24,29,-18,-10,23,15,-54
-66,-8,64,28,-63,30,35,-12,-10,23,15,-54
-66,-8,64,28,-63,30,35,-12,-4,23,15,-48
-60,-8,58,28,-57,24,41,-12,-4,23,9,-48
-60,-2,64,22,-63,30,41,-12,-4,23,9,-48
-66,-2,70,28,-69,36,41,-12,-10,23,9,-48
-66,-2,70,28,-69,36,41,-12,-10,23,9,-48
-72,-2,76,28,-75,36,41,-6,-10,23,15,-48
-72,-2,76,28,-75,36,47,0,-10,23,15,-48
-66,-2,70,28,-69,36,47,-6,-4,23,15,-54
-66,-2,70,28,-69,36,47,-6,-4,23,15,-54
-60,4,70,22,-63,36,41,-12,2,23,15,-60
-60,4,70,22,-63,36,41,-12,8,23,15,-54
-60,-2,64,22,-63,30,47,-6,8,29,15,-54
-60,-2,64,22,-63,30,47,-6,8,29,21,-54
-60,-2,64,22,-63,30,47,0,8,35,21,-54
-60,4,70,22,-63,36,47,0,8,35,21,-54
-60,-2,64,22,-63,30,47,0,8,35,21,-48
-60,-2,64,22,-63,30,47,6,8,35,21,-48
-66,-8,58,34,-63,24,47,6,13,41,21,-42
-72,-8,64,34,-69,24,47,6,13,41,21,-42
-66,-8,64,28,-63,30,47,6,8,35,21,-42
-66,-8,64,28,-63,30,47,6,13,35,21,-42
-54,-2,58,22,-57,30,47,6,8,29,21,-42
-54,-2,58,22,-57,30,47,6,8,29,21,-42
-54,-2,58,22,-57,30,47,6,13,29,21,-48
-60,4,70,22,-63,36,47,6,13,29,21,-48
-60,4,70,22,-63,36,47,6,13,29,21,-54
-60,4,70,22,-63,36,47,6,13,29,21,-54
-60,4,70,22,-63,36,47,6,13,35,21,-48
-60,4,70,22,-63,36,47,6,13,35,27,-48
-60,10,76,16,-69,42,47,6,8,41,27,-42
-60,10,76,16,-69,42,47,6,8,41,21,-42
-66,10,82,22,-75,48,47,6,8,35,21,-42
-66,4,76,22,-69,42,47,6,8,35,21,-42
-72,4,82,28,-75,42,47,6,8,35,21,-42
-72,4,82,28,-75,42,47,6,8,41,21,-42
-66,10,82,22,-75,48,41,0,8,41,21,-42
-66,10,82,22,-75,48,41,0,8,29,21,-42
-60,10,76,16,-69,42,35,0,8,23,21,-42
-60,4,70,22,-63,36,35,0,8,23,21,-42
-66,4,76,22,-69,42,41,0,2,29,21,-48
-66,4,76,22,-69,42,41,-6,2,29,21,-48
-72,4,82,28,-75,42,47,-6,2,35,21,-48
-72,4,82,28,-75,42,47,-6,2,29,21,-48
-72,4,82,28,-75,42,47,-6,2,29,21,-48
-72,4,82,28,-75,42,47,-6,2,29,21,-48
-72,4,82,28,-75,42,47,-6,2,29,15,-48
-72,4,82,28,-75,42,47,-6,2,29,15,-48
-72,4,82,28,-75,42,41,-6,-4,23,15,-48
-72,4,82,28,-75,42,41,-6,-4,23,15,-48
-72,-8,70,34,-69,30,35,0,-4,23,15,-48
-78,-8,76,34,-75,36,35,6,-4,23,15,-48
-78,-8,76,34,-75,36,35,0,-4,23,9,-48
-78,-8,76,34,-75,36,35,0,-4,23,9,-48
-78,-8,76,34,-75,36,35,-6,-4,23,9,-48
-78,-8,70,40,-75,30,35,-12,-4,23,9,-48
-78,-8,76,34,-75,36,41,-12,-10,23,9,-54
-78,-8,76,34,-75,36,35,-12,-10,23,9,-54
-90,-2,94,40,-93,48,41,-12,-10,23,9,-54
-90,-2,94,40,-93,48,47,-18,-10,23,3,-54
-84,-2,88,34,-87,42,47,-18,-10,23,3,-54
-90,-2,94,40,-93,48,47,-18,-10,23,3,-54
-84,-2,88,34,-87,42,47,-18,-10,23,9,-60
-78,-2,82,34,-81,42,47,-24,-10,23,9,-60
-72,-2,76,28,-75,36,47,-24,-10,23,-3,-54
-72,-2,76,28,-75,36,47,-24,-10,23,-3,-54
-72,-2,76,28,-75,36,47,-24,-10,23,-9,-54
-78,-2,82,34,-81,42,47,-24,-10,23,-9,-54
-78,-8,76,34,-75,36,47,-18,-16,23,-9,-54
-78,-8,76,34,-75,36,47,-18,-22,23,-9,-54
-78,-8,70,40,-75,30,47,-18,-22,18,-15,-54
-72,-8,64,34,-69,24,47,-18,-22,12,-15,-54
-78,-8,76,34,-75,36,47,-18,-22,18,-3,-54
-78,-8,76,34,-75,36,47,-18,-22,12,-3,-54
-84,-2,88,34,-87,42,47,-24,-22,18,-3,-54
-84,-2,88,34,-87,42,47,-30,-22,18,-9,-60
-84,-2,88,34,-87,42,47,-30,-22,18,-9,-60
-84,-2,88,34,-87,42,47,-30,-22,23,-9,-60
-84,-2,88,34,-87,42,47,-30,-22,23,-3,-60
-84,-2,88,34,-87,42,47,-30,-22,23,-3,-60
-90,-8,88,40,-87,42,47,-24,-22,23,-9,-60
-96,-8,94,46,-93,42,47,-24,-22,23,-9,-60
-96,-8,94,46,-93,42,47,-24,-22,18,-15,-60
-96,-8,94,46,-93,42,47,-24,-22,18,-15,-60
-96,-2,100,40,-99,48,47,-30,-22,18,-15,-72
-78,-2,82,34,-81,42,41,-24,-16,18,-9,-60
-84,-8,82,40,-81,36,41,-30,-22,18,-9,-60
-84,-8,82,40,-81,36,41,-30,-22,18,-9,-60
-90,-8,82,46,-87,36,41,-36,-28,18,-9,-60
-90,-8,82,46,-87,36,41,-36,-28,18,-9,-60
-90,-8,82,46,-87,36,41,-36,-28,18,-15,-60
-90,-8,82,46,-87,36,41,-36,-28,18,-15,-60
-90,-8,88,40,-87,42,41,-36,-28,18,-15,-60
-90,-2,94,40,-93,48,41,-36,-28,18,-15,-66
-90,-2,94,40,-93,48,41,-36,-28,12,-21,-66
-90,-2,94,40,-93,48,41,-36,-28,12,-21,-66
-90,-2,94,40,-93,48,35,-30,-28,6,-27,-60
-84,4,94,34,-87,48,41,-24,-28,12,-21,-60
-78,10,94,28,-87,54,47,-12,-16,23,-9,-60
-78,10,94,28,-87,54,47,-12,-16,23,-9,-54
-78,4,88,28,-81,48,47,-6,2,23,-3,-54
-72,16,94,22,-81,54,59,6,8,35,9,-48
-54,34,94,4,-75,66,77,18,13,35,21,-36
-48,46,100,4,-75,72,89,30,19,47,27,-30
-36,58,100,-1,-69,78,101,36,25,47,33,-30
-30,64,100,-7,-63,84,101,42,25,53,39,-24
-30,64,100,-7,-63,84,113,54,43,65,45,-24
-30,70,106,-13,-69,90,125,60,49,71,51,-18
-24,64,94,-13,-57,78,137,78,61,83,57,-12
-24,64,94,-13,-57,78,143,84,67,89,57,-12
-24,70,100,-13,-63,84,161,102,73,95,63,-6
-24,70,100,-13,-63,84,161,102,79,95,69,-6
-24,70,100,-13,-63,84,155,102,79,95,75,0
-12,70,88,-19,-51,78,143,102,79,95,81,0
-1,70,70,-31,-33,72,131,108,85,101,75,0
-1,58,52,-25,-21,60,119,108,91,101,75,6
5,52,40,-25,-9,48,107,102,97,101,69,6
5,46,34,-25,-9,42,89,90,91,95,69,0
5,46,34,-25,-9,42,65,72,79,89,69,0
5,34,22,-19,-3,30,41,60,73,83,57,-6
-1,40,34,-19,-9,42,29,42,61,77,51,-6
-1,22,16,-7,-3,24,17,36,43,71,51,-6
-1,16,16,-1,-3,18,17,30,37,59,39,-12
-1,10,16,4,-9,12,17,12,19,47,33,-18
-1,10,10,-1,-3,12,17,12,19,35,33,-18
-1,4,4,4,2,6,11,0,19,35,27,-24
-1,-2,4,4,-3,0,11,-12,13,29,21,-30
-1,-2,4,4,-3,0,5,-12,13,29,21,-30
-6,-8,4,4,-3,0,5,-12,8,35,15,-36
-6,-2,10,4,-9,6,5,-12,2,35,15,-42
-6,4,16,4,-9,12,-1,-18,-10,35,15,-42
-6,4,16,4,-9,12,-1,-24,-10,23,15,-48
-6,4,16,4,-9,12,-1,-24,-16,23,9,-48
-18,-8,16,4,-15,6,-1,-24,-16,23,3,-48
-18,-8,16,4,-15,6,-1,-36,-16,23,-3,-48
-30,-8,28,10,-27,12,-1,-42,-22,18,-9,-54
-36,-8,28,16,-33,6,11,-42,-22,12,-15,-60
-54,-8,40,28,-51,12,11,-42,-22,12,-21,-66
-78,-8,64,40,-75,24,23,-42,-22,18,-21,-72
-84,-8,70,46,-81,24,29,-42,-22,18,-21,-72
-102,-8,88,52,-99,36,29,-42,-22,18,-27,-72
-102,-13,82,58,-93,30,29,-42,-22,18,-27,-78
-114,-19,88,64,-105,30,41,-30,-22,18,-21,-72
-114,-19,88,64,-105,30,59,-24,-22,18,-21,-72
-120,-25,88,70,-105,24,71,-18,-10,18,-21,-66
-120,-25,88,70,-105,24,77,-12,-10,23,-21,-66
-120,-19,94,70,-111,30,77,-12,-10,18,-27,-72
-126,-13,106,70,-117,42,95,-6,2,18,-27,-72
-126,-8,112,64,-123,48,113,6,8,18,-27,-78
-132,-8,124,64,-129,54,143,18,13,18,-27,-78
-138,-8,130,70,-135,60,161,24,13,23,-27,-78
-138,-8,130,70,-135,60,167,30,13,23,-27,-78
-132,-13,112,70,-123,42,149,36,13,23,-21,-78
-120,-19,94,70,-111,30,113,36,13,23,-15,-78
-120,-19,94,70,-111,30,89,30,13,29,-15,-72
-120,-19,94,70,-111,30,83,42,19,29,-9,-72
-114,-25,82,70,-99,24,77,36,13,35,-9,-66
-108,-31,70,70,-93,12,65,36,13,35,-3,-66
-102,-37,58,70,-81,6,47,36,13,35,3,-66
-96,-43,46,70,-75,-6,29,48,25,47,9,-60
-84,-49,28,64,-57,-6,23,60,31,59,15,-60
-78,-55,16,64,-51,-11,5,66,37,59,15,-54
-78,-43,28,58,-57,-6,-1,66,49,59,15,-54
-60,-55,-2,58,-33,-23,-6,66,49,71,15,-54
-54,-55,-8,52,-27,-23,-24,78,55,77,15,-54
-48,-55,-8,52,-21,-29,-36,90,67,83,21,-48
-30,-55,-19,40,-3,-35,-72,78,67,83,33,-42
-12,-55,-37,34,2,-47,-120,90,91,107,51,-24
-1,-67,-73,28,32,-65,-162,84,115,137,81,0
11,-85,-103,28,56,-89,-198,84,121,155,99,12
29,-73,-109,16,68,-89,-240,96,145,173,117,24
77,-43,-127,-7,98,-83,-300,96,169,197,129,29
119,-31,-157,-37,134,-89,-378,72,169,209,141,41
167,-25,-199,-61,182,-107,-480,12,157,209,141,41
221,-31,-253,-85,236,-143,-570,-54,115,191,129,41
245,-37,-289,-97,266,-161,-642,-137,43,155,117,29
263,-49,-319,-103,290,-185,-702,-239,-4,113,99,29
269,-61,-337,-97,302,-197,-744,-335,-70,95,87,29
275,-85,-367,-91,320,-227,-768,-419,-130,59,87,29
269,-109,-385,-73,326,-245,-786,-503,-208,23,69,29
287,-127,-421,-73,350,-269,-798,-563,-274,-18,39,24
311,-133,-451,-85,380,-287,-804,-593,-310,-48,21,6
317,-151,-475,-79,392,-305,-816,-647,-358,-84,-9,-6
335,-139,-481,-91,404,-305,-840,-719,-418,-108,-21,6
407,-85,-493,-157,452,-287,-888,-779,-430,-84,33,47
491,-19,-517,-235,500,-263,-978,-887,-466,-48,111,143
611,22,-583,-313,596,-269,-1086,-1031,-508,-12,201,251
737,76,-661,-409,704,-281,-1170,-1103,-508,41,297,341
845,118,-727,-481,782,-293,-1218,-1097,-472,107,405,437
941,160,-775,-547,860,-299,-1266,-1085,-442,179,471,515
1013,184,-829,-595,926,-317,-1320,-1085,-406,233,531,581
1103,232,-865,-667,980,-305,-1344,-1055,-364,281,603,665
1169,274,-889,-721,1028,-299,-1356,-1007,-286,353,675,755
1205,316,-883,-757,1040,-275,-1344,-953,-250,377,717,797
1193,328,-859,-757,1022,-257,-1296,-917,-280,335,681,779
1145,340,-799,-739,974,-227,-1224,-917,-346,251,603,761
1103,292,-805,-697,956,-245,-1182,-959,-454,89,465,659
1025,124,-901,-571,968,-383,-1116,-1001,-610,-132,237,449
899,-37,-943,-427,920,-491,-1032,-1037,-760,-354,-9,227
689,-97,-787,-289,734,-443,-918,-1067,-844,-462,-146,65
383,-55,-445,-157,410,-245,-714,-971,-784,-450,-194,-6
83,-8,-91,-31,86,-41,-444,-737,-610,-348,-170,-48
-90,4,100,34,-93,54,-258,-527,-436,-246,-146,-72
-102,-8,94,52,-99,42,-210,-443,-370,-210,-128,-84
-66,-8,58,34,-63,24,-186,-389,-322,-180,-122,-84
-60,4,70,22,-63,36,-150,-317,-250,-150,-104,-84
-60,16,82,16,-69,48,-108,-263,-208,-120,-92,-90
-66,4,76,22,-69,42,-66,-209,-166,-78,-80,-84
-66,-2,70,28,-69,36,-30,-155,-124,-42,-56,-90
-78,-2,82,34,-81,42,-6,-119,-106,-18,-38,-78
-78,-2,82,34,-81,42,5,-107,-94,-12,-38,-90
-90,-8,76,46,-87,30,17,-101,-82,-12,-38,-96
-108,-13,88,58,-99,30,23,-95,-82,-12,-38,-102
-126,-31,88,76,-111,24,35,-71,-64,-12,-44,-102
-144,-37,100,88,-123,24,47,-59,-46,-18,-50,-108
-144,-37,100,88,-123,24,71,-54,-46,-18,-56,-120
-150,-31,112,88,-135,36,71,-48,-40,-18,-56,-120
-150,-31,112,88,-135,36,89,-42,-40,-12,-56,-126
-150,-31,112,88,-135,36,89,-42,-40,-12,-50,-126
-150,-25,118,88,-135,42,89,-42,-46,-6,-56,-126
-144,-25,112,82,-129,36,89,-48,-46,-6,-56,-126
-144,-19,118,82,-135,42,95,-48,-46,6,-62,-126
-150,-25,118,88,-135,42,95,-48,-46,6,-62,-126
-150,-25,118,88,-135,42,101,-36,-34,6,-50,-120
-150,-25,118,88,-135,42,101,-36,-34,12,-50,-120
-150,-19,124,82,-141,48,107,-24,-22,12,-44,-114
-156,-19,130,88,-147,48,107,-24,-22,12,-44,-114
-156,-19,130,88,-147,48,107,-12,-22,12,-44,-120
-150,-19,124,82,-141,48,107,-12,-22,12,-44,-120
-150,-25,118,88,-135,42,107,-12,-16,18,-44,-120
-150,-25,118,88,-135,42,113,-12,-16,18,-38,-120
-150,-19,124,82,-141,48,107,-12,-16,18,-38,-120
-150,-19,124,82,-141,48,107,-12,-16,18,-38,-114
-150,-13,130,82,-141,54,101,-6,-10,18,-38,-114
-150,-13,130,82,-141,54,101,-6,-10,23,-38,-108
-150,-13,130,82,-141,54,107,0,-10,23,-38,-114
-150,-13,130,82,-141,54,107,6,-10,23,-38,-114
-150,-13,130,82,-141,54,119,12,-4,23,-38,-120
-144,-8,130,76,-141,54,119,12,-4,23,-38,-120
-150,-13,130,82,-141,54,119,12,2,23,-38,-108
-150,-13,130,82,-141,54,119,12,2,23,-38,-108
-156,-13,136,82,-147,54,119,12,2,23,-32,-102
-156,-13,136,82,-147,54,119,12,2,23,-32,-102
-150,-19,124,82,-141,48,119,18,2,23,-27,-102
-150,-13,130,82,-141,54,125,18,2,23,-27,-102
-144,-19,118,82,-135,42,125,18,8,23,-27,-102
-144,-19,118,82,-135,42,125,18,8,23,-27,-102
-144,-19,118,82,-135,42,119,24,8,23,-27,-102
-144,-13,124,76,-135,48,119,24,8,23,-27,-102
-144,-8,130,76,-141,54,119,30,13,23,-27,-102
-144,-8,136,70,-141,60,119,36,13,23,-27,-102
-150,-8,142,76,-147,66,125,36,13,23,-27,-96
-150,-8,142,76,-147,66,125,42,13,23,-27,-96
-150,-8,148,70,-147,72,131,48,13,23,-27,-96
-150,-8,148,70,-147,72,137,48,13,29,-27,-96
-144,-8,136,70,-141,60,137,60,19,29,-27,-96
-144,-8,142,70,-141,66,137,60,25,29,-27,-96
-138,-8,130,70,-135,60,143,60,25,35,-27,-102
-138,-8,130,70,-135,60,143,66,25,47,-27,-96
-138,-8,130,70,-135,60,143,66,31,47,-15,-96
-138,-8,130,70,-135,60,143,78,37,53,-15,-96
-138,-8,130,70,-135,60,149,84,37,53,-9,-96
-138,-8,136,64,-135,66,149,90,37,53,-9,-96
-138,-2,142,64,-141,72,149,96,43,59,-3,-96
-138,-2,142,64,-141,72,149,102,55,59,-3,-96
-144,4,154,64,-147,78,155,108,61,71,3,-90
-144,10,160,58,-153,84,155,114,67,71,9,-90
-138,10,154,58,-147,84,161,120,67,71,3,-90
-132,16,154,52,-141,84,161,126,73,71,3,-90
-126,16,148,46,-135,84,161,132,79,77,3,-84
-120,16,142,46,-129,78,173,138,85,89,9,-84
-120,10,136,46,-129,72,173,144,91,89,9,-84
-120,16,142,46,-129,78,179,150,103,95,9,-78
-120,10,136,46,-129,72,185,168,109,95,9,-78
-120,10,136,46,-129,72,185,168,115,95,21,-78
-126,10,142,52,-135,78,197,186,133,113,27,-66
-126,10,142,52,-135,78,197,204,139,119,27,-66
-132,10,148,52,-141,78,203,216,163,131,27,-54
-126,16,148,46,-135,84,203,228,163,137,39,-54
-120,22,148,40,-135,84,215,234,169,143,45,-48
-120,22,148,40,-135,84,221,252,181,149,45,-48
-108,22,136,34,-123,78,227,258,181,149,51,-48
-108,28,142,34,-123,84,227,270,193,155,57,-42
-108,28,142,34,-123,84,239,282,205,161,63,-36
-102,28,136,28,-117,84,239,294,217,167,69,-36
-96,34,136,22,-117,84,245,318,223,173,69,-36
-96,34,136,22,-117,84,245,324,235,179,75,-24
-84,40,130,16,-105,84,245,342,247,185,81,-24
-84,46,136,10,-111,90,257,354,253,191,87,-24
-84,46,136,10,-111,90,257,372,265,203,93,-12
-84,46,136,10,-111,90,257,384,271,215,99,-12
-78,52,136,4,-105,96,263,396,283,227,99,-18
-78,58,142,4,-111,102,263,414,295,233,99,-12
-66,64,136,4,-99,102,269,426,307,245,111,-12
-60,64,130,4,-93,96,269,432,307,251,117,-6
-54,64,124,4,-87,96,275,438,319,251,117,-6
-48,64,118,-1,-81,90,275,438,325,257,123,-6
-48,58,112,4,-81,84,275,450,343,257,123,6
-42,58,106,-1,-75,84,275,456,349,263,129,12
-36,64,106,-7,-69,84,275,462,349,263,135,12
-30,64,100,-7,-63,84,275,468,355,263,141,12
-24,64,94,-13,-57,78,275,468,349,263,141,24
-18,70,94,-19,-57,84,263,468,355,275,141,24
-12,64,82,-19,-45,72,263,474,355,275,147,18
-1,64,70,-25,-33,66,263,474,355,275,147,29
-1,58,52,-25,-21,60,263,474,355,281,147,29
5,58,46,-31,-15,54,257,474,355,281,159,29
11,58,40,-31,-9,54,245,462,355,281,159,29
17,64,40,-37,-3,54,239,456,355,281,159,29
17,64,40,-37,-3,54,221,444,349,275,159,35
23,64,34,-43,2,54,215,432,343,269,159,35
29,64,28,-43,2,48,203,426,337,275,159,29
35,64,22,-49,2,48,191,414,331,263,165,35
41,64,16,-49,8,42,179,390,313,269,165,29
47,64,10,-55,14,42,167,372,307,263,159,29
53,64,4,-55,20,36,155,342,295,263,153,29
59,64,-2,-61,26,36,131,318,271,251,153,29
65,64,-8,-61,32,30,119,294,265,251,141,29
71,64,-8,-67,38,30,101,270,253,245,135,29
77,64,-8,-67,44,24,83,252,235,233,135,35
89,52,-31,-67,62,6,77,234,223,221,129,35
95,52,-37,-73,68,6,65,228,211,203,129,35
95,52,-37,-73,68,6,53,210,199,191,129,35
101,52,-43,-73,74,0,35,186,181,179,135,35
107,46,-55,-73,80,-6,23,168,169,173,123,35
113,46,-61,-79,86,-6,11,144,145,167,129,29
119,46,-67,-79,92,-6,-1,126,139,161,123,29
119,46,-67,-79,92,-6,-1,108,121,161,111,35
113,46,-61,-79,86,-6,-1,96,109,155,111,35
113,52,-55,-79,86,-6,-1,90,97,155,99,35
107,52,-49,-79,80,0,-12,78,85,143,93,29
101,46,-49,-73,74,-6,-18,72,79,137,87,29
95,46,-43,-67,68,0,-18,72,67,131,81,29
89,28,-55,-55,74,-6,-24,66,67,125,81,29
83,28,-49,-55,68,-6,-24,60,61,125,81,29
83,34,-43,-55,62,-6,-24,48,55,125,81,29
77,34,-37,-55,56,-6,-24,42,49,119,75,24
77,28,-43,-49,62,-6,-18,30,43,107,75,24
71,22,-43,-43,56,-6,-12,24,37,101,69,24
59,16,-37,-37,50,-6,-12,18,31,95,63,24
59,16,-37,-37,50,-6,-6,18,31,89,57,18
41,16,-19,-25,32,-6,-6,12,31,89,57,12
35,16,-13,-25,26,0,-1,12,25,83,51,6
35,16,-13,-25,26,0,-1,6,19,71,45,-6
29,16,-8,-19,20,0,-1,6,19,71,39,-6
29,10,-13,-19,20,-6,-1,6,13,65,39,-18
11,10,-8,-7,2,6,5,6,8,59,33,-18
11,10,-8,-7,2,6,-1,0,13,59,33,-18
11,10,-8,-7,2,6,-1,0,13,59,27,-18
5,16,4,-7,2,12,-1,-6,13,53,33,-18
-1,16,10,-7,2,18,-1,-12,13,53,33,-18
-1,4,10,4,-3,6,5,-6,13,53,33,-18
-1,4,10,4,-3,6,11,-6,8,53,27,-24
-6,4,16,4,-9,12,17,0,8,41,27,-24
-12,4,22,4,-15,12,17,0,8,41,27,-24
-12,10,28,4,-21,18,11,-6,2,41,15,-36
-12,10,28,4,-21,18,11,-12,-4,23,15,-42
-18,16,40,4,-27,30,5,-18,-10,23,3,-48
-18,10,34,4,-27,24,5,-18,-10,23,3,-48
-24,4,34,4,-27,18,5,-18,-16,23,-3,-48
-24,-2,28,4,-27,12,5,-18,-16,23,-3,-48
-24,-8,22,10,-21,6,5,-24,-16,23,-3,-48
-24,-8,16,10,-21,0,5,-24,-16,23,-3,-54
-30,-8,22,16,-27,6,5,-24,-10,23,-9,-54
-30,-8,16,16,-27,0,5,-24,-10,23,-9,-54
-30,-8,16,16,-27,0,11,-24,-4,23,-9,-54
-30,-8,16,16,-27,0,11,-24,-10,23,-9,-54
-30,-8,22,16,-27,6,11,-24,-16,23,-9,-60
-30,-8,22,16,-27,6,11,-24,-16,23,-9,-60
-30,-8,28,10,-27,12,11,-24,-22,23,-9,-60
-36,-8,34,16,-33,12,11,-24,-22,23,-9,-60
-30,-8,22,16,-27,6,17,-24,-22,23,-15,-60
-30,-8,22,16,-27,6,17,-24,-22,23,-15,-60
-24,-8,10,16,-21,-6,23,-24,-16,18,-15,-66
-24,-8,10,16,-21,-6,23,-24,-16,18,-15,-66
-24,-8,10,16,-21,-6,23,-24,-10,18,-15,-60
-24,-13,4,16,-15,-6,23,-18,-16,18,-15,-60
-24,-13,4,16,-15,-6,17,-18,-10,18,-9,-54
-24,-13,4,16,-15,-6,17,-18,-10,18,-9,-54
-30,-8,22,16,-27,6,17,-12,-10,18,-9,-60
-30,-8,22,16,-27,6,17,-12,-4,18,-9,-54
-36,-8,34,16,-33,12,17,-12,-4,18,-15,-60
-36,-2,40,10,-39,18,17,-12,-4,18,-15,-60
-36,-8,34,16,-33,12,17,-12,-10,18,-15,-60
-36,-8,34,16,-33,12,17,-12,-10,23,-15,-60
-36,-8,28,16,-33,6,17,-6,-10,23,-9,-60
-36,-8,28,16,-33,6,23,0,-10,23,-9,-60
-36,-8,22,22,-33,0,23,0,-10,23,-9,-60
-36,-8,22,22,-33,0,23,0,-10,23,-9,-60
-36,-8,22,22,-33,0,17,0,-10,23,-9,-60
-36,-8,22,22,-33,0,17,0,-4,23,-9,-54
-36,-8,28,16,-33,6,23,0,-4,23,-15,-54
-36,-8,28,16,-33,6,23,0,-4,23,-9,-54
-36,-2,40,10,-39,18,23,0,-4,23,-15,-54
-36,4,46,10,-39,24,23,0,-4,23,-15,-54
-30,-2,34,10,-33,18,23,-6,-4,23,-9,-54
-30,-2,34,10,-33,18,23,0,-4,23,-9,-54
-30,-8,22,16,-27,6,23,-6,2,23,-3,-54
-36,-8,28,16,-33,6,23,-6,2,23,-3,-54
-42,-8,34,22,-39,12,23,-6,2,23,-3,-48
-42,-8,34,22,-39,12,23,-6,8,23,-3,-48
-42,-8,34,22,-39,12,23,-6,8,29,-3,-42
-42,-8,34,22,-39,12,23,-6,8,29,-3,-42
-36,-8,34,16,-33,12,23,0,8,23,-3,-42
-42,-2,46,16,-45,24,23,0,8,23,-3,-42
-36,4,46,10,-39,24,23,6,8,23,-3,-42
-36,4,46,10,-39,24,23,6,8,23,-3,-42
-36,4,46,10,-39,24,29,0,8,23,-3,-42
-36,4,46,10,-39,24,29,0,8,23,3,-42
-36,10,52,4,-45,30,35,-6,8,23,3,-42
-36,10,52,4,-45,30,35,-6,8,23,-3,-42
-42,4,52,10,-45,30,35,-6,8,23,-3,-42
-42,-2,46,16,-45,24,35,-6,8,23,-3,-42
-48,-8,46,22,-45,18,35,-6,8,23,-3,-42
-48,-8,46,22,-45,18,35,-6,8,23,-3,-42
-42,-2,46,16,-45,24,29,-6,2,23,-9,-42
-42,-2,46,16,-45,24,29,-6,2,18,-9,-42
-36,-2,40,10,-39,18,23,0,-4,12,-15,-42
-36,-8,34,16,-33,12,23,0,-4,12,-15,-42
-36,-8,34,16,-33,12,23,0,-4,18,-9,-48
-36,-8,34,16,-33,12,23,-6,-4,18,-9,-48
-36,-8,34,16,-33,12,23,-6,2,23,-3,-48
-36,-8,34,16,-33,12,23,-6,2,18,-3,-48
-42,-8,40,16,-39,18,23,-12,-4,18,-9,-54
-42,-8,40,16,-39,18,23,-12,-4,18,-9,-54
-48,-8,46,22,-45,18,23,-18,-10,18,-21,-60
-48,-8,46,22,-45,18,23,-18,-10,18,-21,-60
-48,4,58,16,-51,30,23,-18,-10,12,-15,-54
-48,4,58,16,-51,30,23,-18,-10,12,-15,-54
-48,4,58,16,-51,30,23,-12,-4,12,-9,-48
-54,4,64,16,-57,36,23,-6,-4,12,-9,-48
-48,4,58,16,-51,30,23,-6,-10,12,-15,-54
-48,4,58,16,-51,30,23,-6,-10,12,-15,-54
-42,4,52,10,-45,30,23,-6,-16,12,-15,-60
-42,-2,46,16,-45,24,23,-12,-16,12,-15,-60
-42,-8,40,16,-39,18,23,-6,-16,12,-15,-60
-42,-8,40,16,-39,18,17,-6,-16,12,-15,-60
-54,-8,46,28,-51,18,17,0,-10,12,-15,-54
-54,-8,46,28,-51,18,23,-6,-10,12,-21,-54
-54,-8,52,22,-51,24,23,-12,-16,6,-27,-60
-60,-8,58,28,-57,24,23,-12,-16,0,-27,-60
-60,-2,64,22,-63,30,23,-18,-22,-6,-27,-72
-54,-2,58,22,-57,30,23,-24,-22,-12,-27,-72
-54,-8,52,22,-51,24,23,-18,-22,-6,-27,-66
-54,-8,52,22,-51,24,23,-18,-22,-6,-27,-66
-60,-8,52,28,-57,18,23,-12,-22,0,-21,-66
-66,-8,58,34,-63,24,23,-12,-22,0,-21,-66
-60,-8,52,28,-57,18,23,-18,-22,0,-21,-66
-60,-8,52,28,-57,18,23,-18,-28,0,-21,-66
-54,-8,46,28,-51,18,23,-30,-22,-6,-27,-66
-48,-8,40,22,-45,12,23,-30,-22,-12,-27,-66
-54,-8,46,28,-51,18,23,-24,-22,-12,-21,-66
-60,-8,52,28,-57,18,23,-24,-22,-18,-21,-66
-66,-8,58,34,-63,24,23,-24,-22,-18,-27,-66
-72,-8,64,34,-69,24,23,-30,-22,-18,-27,-72
-72,-8,64,34,-69,24,23,-30,-22,-18,-27,-72
-72,-8,64,34,-69,24,23,-30,-22,-12,-27,-72
-72,-8,64,34,-69,24,23,-30,-22,-12,-27,-72
-72,-8,64,34,-69,24,23,-30,-22,-12,-27,-72
-66,-8,64,28,-63,30,23,-30,-22,-18,-27,-72
-60,4,70,22,-63,36,23,-30,-22,-18,-27,-72
-60,-8,58,28,-57,24,23,-24,-22,-18,-27,-72
-66,-2,70,28,-69,36,29,-24,-16,-6,-21,-72
-66,-2,70,28,-69,36,23,-30,-22,-12,-27,-72
-66,-2,70,28,-69,36,23,-30,-22,-12,-27,-72
-66,-2,70,28,-69,36,17,-36,-28,-18,-27,-72
-66,-2,70,28,-69,36,17,-36,-28,-18,-27,-72
-66,-8,64,28,-63,30,17,-36,-28,-24,-27,-72
-66,-8,64,28,-63,30,17,-36,-28,-24,-27,-72
-66,-8,64,28,-63,30,17,-36,-28,-30,-27,-72
-66,-2,70,28,-69,36,17,-36,-28,-30,-27,-78
-66,4,76,22,-69,42,29,-30,-22,-24,-21,-72
-66,4,76,22,-69,42,29,-30,-22,-24,-21,-72
-66,10,82,22,-75,48,35,-18,-16,-18,-15,-60
-60,16,82,16,-69,48,41,-12,-16,-12,-9,-60
-42,34,82,4,-63,60,41,-6,-10,-6,-9,-60
-42,34,82,4,-63,60,41,-6,-10,-6,-9,-54
-30,40,76,4,-51,60,35,-6,2,0,-15,-54
-24,52,82,-7,-51,66,47,6,8,12,-3,-48
-12,64,82,-19,-45,72,65,24,13,18,9,-36
-6,76,88,-25,-45,84,77,36,25,23,15,-30
-1,82,88,-31,-45,84,89,48,37,23,21,-30
-1,88,88,-37,-39,90,89,54,37,29,27,-24
-1,88,94,-37,-45,90,101,60,49,35,27,-24
-1,94,100,-37,-51,96,113,66,55,41,33,-18
-1,88,94,-37,-45,90,125,78,61,47,33,-12
-1,88,94,-37,-45,90,131,84,67,53,33,-12
-1,94,100,-37,-51,96,137,102,73,59,39,-6
-1,94,100,-37,-51,96,137,102,79,59,45,-6
-1,94,100,-37,-51,96,119,102,79,59,51,0
-1,94,88,-43,-39,96,107,102,79,59,57,0
17,88,64,-49,-15,78,89,102,79,59,51,0
23,76,46,-49,-3,66,77,102,79,53,51,6
29,64,28,-43,2,48,59,90,79,47,45,6
29,58,22,-43,2,42,41,78,67,35,45,0
29,52,16,-37,2,36,23,60,55,35,45,-6
29,40,4,-31,8,24,5,48,49,29,33,-12
23,40,10,-31,2,30,-1,30,37,29,27,-18
23,22,-8,-19,8,12,-1,24,19,23,27,-18
11,16,-2,-13,2,12,-1,12,13,18,9,-36
5,10,-2,-7,2,6,-1,-6,8,6,3,-42
5,10,-2,-7,2,6,-1,-12,8,-12,-3,-54
5,4,-8,-1,2,0,-1,-24,8,-12,-9,-60
5,4,-8,-1,2,0,-1,-30,-4,-18,-9,-54
5,4,-8,-1,2,0,-6,-30,-4,-18,-9,-48
5,4,-8,-1,2,0,-6,-24,-10,-12,-9,-42
5,10,-2,-7,2,6,-6,-24,-10,-12,-9,-42
5,10,-2,-7,2,6,-12,-30,-16,-12,-9,-48
5,10,-2,-7,2,6,-12,-36,-16,-24,-9,-54
5,4,-8,-1,2,0,-12,-36,-16,-30,-15,-60
-1,-8,-8,4,2,-6,-12,-36,-16,-36,-21,-60
-6,-8,4,4,-3,0,-6,-54,-28,-42,-27,-66
-18,-8,16,4,-15,6,-6,-54,-34,-48,-27,-72
-36,-8,28,16,-33,6,-1,-54,-46,-60,-38,-84
-54,-8,40,28,-51,12,-1,-54,-46,-60,-44,-90
-66,-13,46,40,-57,12,5,-54,-46,-60,-38,-90
-72,-13,52,40,-63,12,11,-54,-46,-60,-38,-90
-78,-19,52,46,-69,12,17,-54,-46,-66,-38,-84
-78,-25,46,52,-63,6,17,-54,-46,-66,-38,-90
-90,-19,64,52,-81,18,29,-48,-40,-60,-32,-90
-90,-19,64,52,-81,18,47,-42,-40,-60,-32,-90
-96,-13,76,52,-87,24,59,-30,-22,-54,-32,-90
-96,-13,76,52,-87,24,65,-24,-22,-48,-32,-90
-90,-8,76,46,-87,30,71,-24,-22,-48,-32,-90
-96,-8,88,46,-93,36,89,-18,-10,-48,-32,-90
-90,-8,88,40,-87,42,113,-6,-4,-42,-32,-90
-96,-2,100,40,-99,48,143,6,2,-42,-32,-90
-102,-8,100,46,-99,48,149,12,2,-42,-27,-90
-102,-8,100,46,-99,48,149,18,8,-42,-27,-90
-96,-13,76,52,-87,24,119,24,8,-36,-27,-90
-84,-19,58,52,-75,12,77,24,8,-36,-27,-90
-78,-19,52,46,-69,12,53,30,13,-24,-27,-78
-78,-19,52,46,-69,12,47,42,19,-24,-21,-78
-66,-25,34,46,-51,0,41,48,25,-12,-21,-66
-60,-31,22,46,-45,-6,29,48,25,-12,-15,-66
-60,-37,16,46,-39,-6,11,48,19,-18,-15,-72
-54,-43,4,46,-33,-11,-1,60,31,-12,-9,-66
-48,-49,-8,46,-21,-23,-1,72,31,-6,-9,-72
-42,-55,-8,46,-15,-29,-6,78,37,-12,-9,-66
-42,-43,-8,40,-21,-17,-12,78,37,0,3,-66
-36,-43,-8,40,-15,-23,-30,90,49,12,3,-54
-30,-55,-19,40,-3,-35,-24,102,67,23,15,-54
-24,-55,-25,40,2,-41,-48,102,79,23,21,-48
-18,-43,-19,28,2,-29,-84,102,79,35,21,-42
-1,-43,-37,22,8,-41,-120,102,103,71,39,-24
11,-43,-61,10,32,-47,-150,120,139,89,69,0
35,-37,-79,4,56,-53,-186,108,145,107,75,12
53,-25,-85,-7,68,-53,-222,108,157,125,105,24
101,-31,-139,-25,116,-83,-264,120,169,149,129,29
143,-31,-181,-49,158,-101,-342,84,169,161,153,41
179,-25,-211,-67,194,-113,-444,24,157,149,153,53
209,-43,-253,-73,230,-149,-510,-54,115,143,141,53
239,-61,-301,-79,266,-179,-582,-137,43,107,129,35
251,-61,-319,-91,284,-191,-654,-239,-4,65,99,29
245,-73,-325,-79,284,-197,-702,-335,-70,35,87,29
263,-73,-343,-91,302,-209,-726,-419,-142,12,63,29
281,-85,-373,-91,326,-227,-738,-491,-220,-48,33,18
299,-115,-421,-85,356,-263,-750,-539,-274,-90,15,0
323,-133,-463,-91,392,-293,-756,-557,-298,-108,9,6
317,-139,-463,-85,386,-293,-756,-623,-334,-144,-9,-6
323,-139,-469,-85,392,-299,-780,-683,-382,-156,3,18
383,-121,-505,-127,446,-311,-840,-743,-394,-120,69,83
491,-91,-589,-199,536,-335,-924,-839,-430,-72,171,203
635,-49,-691,-283,662,-365,-1038,-953,-466,-24,267,317
773,-8,-775,-385,776,-383,-1134,-1001,-454,41,381,437
893,70,-817,-481,854,-365,-1206,-1025,-424,131,483,539
971,136,-835,-553,908,-341,-1278,-1061,-406,179,567,641
1049,196,-853,-619,956,-323,-1320,-1061,-382,245,651,725
1151,268,-877,-709,1010,-293,-1368,-1031,-328,281,717,791
1193,310,-877,-745,1034,-275,-1380,-1007,-322,293,741,833
1181,316,-859,-745,1016,-263,-1344,-977,-334,251,705,833
1145,316,-823,-727,980,-245,-1272,-965,-388,161,633,791
1061,244,-811,-655,938,-275,-1182,-965,-484,0,453,653
953,82,-865,-511,908,-383,-1098,-995,-640,-252,177,413
779,-43,-829,-361,800,-437,-972,-1031,-784,-462,-44,203
509,-73,-589,-217,548,-329,-798,-1007,-820,-528,-164,71
173,-49,-229,-55,200,-137,-528,-845,-718,-486,-206,-18
-54,-8,40,28,-51,12,-288,-617,-538,-390,-194,-78
-108,10,124,40,-117,66,-222,-503,-436,-312,-170,-96
-78,16,100,22,-87,60,-204,-455,-376,-282,-146,-96
-78,22,106,22,-93,66,-186,-395,-322,-252,-128,-96
-66,22,94,16,-81,60,-150,-341,-262,-234,-122,-96
-60,16,82,16,-69,48,-114,-275,-208,-198,-104,-96
-72,16,94,22,-81,54,-60,-191,-160,-156,-80,-90
-66,28,100,10,-81,66,-18,-125,-118,-114,-56,-72
-54,10,70,16,-63,42,5,-95,-100,-102,-44,-66
-66,-2,70,28,-69,36,17,-83,-82,-90,-38,-78
-78,-8,70,40,-75,30,29,-83,-70,-84,-38,-78
-84,-8,70,46,-81,24,35,-89,-70,-84,-44,-90
-96,-8,82,52,-93,30,41,-83,-70,-84,-44,-96
-108,-13,88,58,-99,30,47,-71,-64,-84,-56,-102
-120,-13,100,64,-111,36,59,-59,-46,-90,-62,-108
-120,-13,100,64,-111,36,71,-54,-46,-90,-62,-114
-126,-8,112,64,-123,48,71,-48,-40,-90,-62,-114
-126,-8,112,64,-123,48,77,-42,-40,-84,-56,-114
-126,-8,112,64,-123,48,77,-42,-40,-84,-50,-114
-132,-8,118,70,-129,48,77,-42,-40,-84,-56,-114
-126,-8,112,64,-123,48,77,-48,-40,-84,-56,-114
-132,-8,118,70,-129,48,83,-48,-34,-78,-62,-114
-138,-13,118,76,-129,48,83,-48,-34,-78,-62,-114
-132,-13,112,70,-123,42,89,-42,-28,-78,-56,-114
-132,-13,112,70,-123,42,89,-42,-28,-72,-56,-114
-126,-8,112,64,-123,48,95,-36,-22,-72,-56,-114
-132,-8,118,70,-129,48,95,-36,-22,-72,-56,-114
-132,-8,124,64,-129,54,95,-30,-22,-72,-56,-120
-126,-8,118,64,-123,54,95,-30,-22,-72,-56,-120
-126,-8,118,64,-123,54,95,-36,-16,-66,-56,-120
-126,-8,118,64,-123,54,101,-36,-16,-66,-50,-120
-126,-8,118,64,-123,54,101,-30,-16,-72,-56,-120
-126,-8,118,64,-123,54,101,-30,-16,-72,-56,-114
-126,-8,118,64,-123,54,101,-18,-10,-78,-62,-114
-126,-8,118,64,-123,54,101,-18,-10,-72,-62,-108
-120,-8,106,64,-117,42,101,-12,-10,-72,-56,-108
-120,-8,106,64,-117,42,101,-6,-10,-72,-56,-108
-114,-13,94,64,-105,36,107,0,-4,-72,-50,-108
-108,-8,94,58,-105,36,107,0,-4,-72,-50,-108
-114,-8,106,58,-111,48,101,0,2,-72,-50,-102
-114,-8,106,58,-111,48,101,0,2,-66,-50,-102
-120,-2,124,52,-123,60,95,0,2,-66,-44,-102
-120,-2,124,52,-123,60,95,0,2,-66,-44,-102
-126,-8,124,58,-123,60,101,6,2,-66,-44,-108
-126,-2,130,58,-129,66,107,6,2,-66,-44,-108
-132,-8,130,64,-129,60,113,6,8,-60,-44,-114
-132,-8,130,64,-129,60,113,6,8,-60,-38,-114
-126,-8,124,58,-123,60,113,12,2,-66,-44,-114
-126,-8,124,58,-123,60,113,12,2,-66,-44,-114
-120,-2,124,52,-123,60,119,18,2,-66,-50,-114
-120,-2,124,52,-123,60,119,24,2,-66,-50,-114
-120,-2,124,52,-123,60,119,18,13,-60,-44,-102
-120,-2,124,52,-123,60,119,24,13,-60,-38,-102
-114,4,124,46,-117,66,119,24,13,-48,-32,-96
-114,4,124,46,-117,66,125,24,13,-42,-32,-96
-114,4,124,46,-117,66,125,36,19,-42,-27,-90
-114,10,130,46,-123,72,125,36,25,-42,-27,-90
-114,10,130,46,-123,72,131,36,25,-36,-27,-90
-114,10,130,46,-123,72,131,42,25,-24,-27,-84
-114,10,130,46,-123,72,131,42,31,-30,-27,-84
-114,10,130,46,-123,72,131,54,37,-24,-27,-84
-114,10,130,46,-123,72,137,60,37,-30,-27,-84
-114,16,136,40,-123,78,137,66,37,-30,-27,-84
-108,10,124,40,-117,66,143,66,43,-24,-27,-84
-108,10,124,40,-117,66,143,72,55,-24,-27,-84
-108,4,118,46,-111,60,155,72,61,-12,-21,-78
-108,10,124,40,-117,66,155,78,67,-12,-15,-78
-108,16,130,40,-117,72,155,84,67,-12,-15,-78
-102,22,130,34,-117,78,149,90,73,-12,-15,-78
-102,28,136,28,-117,84,143,96,79,-6,-9,-72
-96,28,130,28,-111,78,149,102,85,6,-3,-72
-102,22,130,34,-117,78,155,114,97,6,-3,-72
-102,28,136,28,-117,84,161,120,109,12,-3,-66
-108,22,136,34,-123,78,173,144,121,12,-3,-66
-108,22,136,34,-123,78,173,144,127,12,9,-66
-102,22,130,34,-117,78,179,156,133,23,15,-60
-102,22,130,34,-117,78,179,174,139,23,15,-60
-96,22,124,28,-111,72,179,174,151,23,15,-54
-90,28,124,22,-105,78,179,186,151,29,27,-54
-90,34,130,22,-111,84,185,198,163,41,33,-48
-90,34,130,22,-111,84,191,216,175,47,33,-48
-84,34,124,16,-105,78,191,234,181,53,39,-48
-84,40,130,16,-105,84,191,246,193,59,45,-42
-84,46,136,10,-111,90,203,252,205,65,51,-36
-78,46,130,10,-105,90,209,264,217,71,57,-36
-72,58,136,4,-105,96,215,282,223,77,57,-36
-72,58,136,4,-105,96,215,288,235,83,63,-24
-60,58,124,4,-93,90,215,300,253,95,69,-18
-60,64,130,4,-93,96,227,312,259,101,75,-18
-60,58,124,4,-93,90,227,324,277,119,81,0
-60,58,124,4,-93,90,227,336,283,131,87,0
-54,64,124,4,-87,96,233,348,289,131,87,-6
-54,70,130,-1,-93,102,233,366,301,137,87,0
-42,76,124,-7,-81,102,239,378,307,137,99,0
-36,76,118,-13,-75,96,239,390,307,143,105,6
-36,76,118,-13,-75,96,239,396,313,155,111,12
-30,76,112,-13,-69,96,239,396,319,161,117,12
-36,70,112,-7,-75,90,239,408,331,173,123,29
-30,70,106,-13,-69,90,239,414,337,179,129,29
-18,82,106,-25,-63,96,239,414,349,179,135,29
-12,82,100,-25,-57,90,239,420,355,179,141,29
-1,88,94,-37,-45,90,239,414,361,173,141,35
-1,94,94,-43,-45,96,233,414,367,185,141,35
-1,88,82,-43,-33,90,221,414,367,191,153,41
11,88,70,-49,-21,84,221,414,367,191,153,53
23,82,52,-49,-9,72,209,408,367,203,159,65
29,82,46,-55,-3,66,203,408,367,203,171,65
35,88,46,-61,2,72,197,402,361,203,165,59
41,94,46,-67,2,72,191,396,361,197,165,59
41,100,52,-67,2,78,173,390,349,191,159,59
47,100,46,-73,2,78,167,378,343,179,159,59
53,94,34,-73,2,66,161,360,337,185,159,59
59,94,28,-73,8,66,149,348,331,173,165,65
65,88,16,-73,20,54,143,318,313,179,165,65
71,88,10,-79,26,54,131,300,307,173,159,65
77,82,-2,-79,32,42,113,270,289,161,159,65
83,82,-8,-79,38,42,89,246,265,149,159,65
89,76,-8,-79,50,30,71,222,253,143,153,65
95,76,-13,-85,56,30,53,198,247,137,147,65
95,76,-13,-85,56,30,35,186,229,131,141,71
107,64,-37,-85,74,12,29,168,217,119,135,71
107,64,-37,-85,74,12,17,162,211,107,129,71
107,64,-37,-85,74,12,5,144,199,95,129,71
101,64,-31,-79,68,12,-1,126,181,83,129,65
107,58,-43,-79,74,6,-1,102,169,77,117,65
101,58,-37,-79,68,6,-1,84,145,71,117,53
107,58,-43,-79,74,6,-12,66,139,65,111,53
107,46,-55,-73,80,-6,-18,54,127,65,111,59
101,46,-49,-73,74,-6,-18,42,121,59,111,59
101,40,-55,-67,80,-6,-12,42,115,59,111,59
95,40,-49,-67,74,-6,-24,30,109,47,105,53
95,40,-49,-67,74,-6,-24,18,103,41,99,47
89,40,-43,-61,68,-6,-24,18,91,35,93,47
89,28,-55,-55,74,-6,-24,6,91,29,93,35
83,28,-49,-55,68,-6,-24,0,85,29,93,29
71,34,-31,-49,50,0,-24,-6,79,23,81,29
59,34,-19,-43,38,6,-18,-12,73,23,75,24
47,28,-13,-37,32,6,-12,-18,67,12,63,12
35,22,-8,-25,20,6,-1,-24,61,6,57,12
29,16,-8,-19,20,0,-1,-30,55,0,45,12
29,16,-8,-19,20,0,-1,-30,55,-6,39,6
17,16,-8,-13,8,6,-1,-36,55,-6,33,0
11,16,-2,-13,2,12,-1,-36,49,-12,27,-6
11,16,-2,-13,2,12,-1,-42,43,-18,27,-12
5,16,4,-7,2,12,-1,-42,43,-18,21,-12
5,10,-2,-7,2,6,-1,-42,25,-18,27,-18
-1,10,16,4,-9,12,5,-42,19,-24,21,-18
-6,4,16,4,-9,12,11,-36,25,-24,15,-24
-12,4,22,4,-15,12,11,-36,25,-24,9,-24
-24,4,34,4,-27,18,17,-30,31,-30,9,-30
-36,4,46,10,-39,24,23,-36,31,-30,9,-30
-36,-2,40,10,-39,18,17,-36,31,-30,9,-30
-36,-2,40,10,-39,18,23,-36,19,-30,3,-36
-30,4,40,4,-33,24,17,-36,19,-42,3,-36
-36,4,46,10,-39,24,17,-36,19,-42,3,-36
-36,-2,40,10,-39,18,23,-36,13,-36,-9,-42
-36,-8,34,16,-33,12,23,-42,13,-54,-9,-48
-42,-8,34,22,-39,12,29,-42,13,-48,-21,-48
-42,-13,22,28,-33,0,29,-42,13,-48,-21,-48
-48,-8,34,28,-45,6,29,-42,8,-54,-27,-48
-48,-8,34,28,-45,6,29,-42,8,-54,-27,-48
-48,-8,40,22,-45,12,29,-48,8,-60,-27,-48
-48,-8,40,22,-45,12,29,-48,8,-60,-27,-54
-54,-8,40,28,-51,12,29,-48,13,-60,-32,-54
-54,-13,34,34,-45,6,29,-48,13,-66,-32,-54
-54,-19,28,34,-45,0,35,-48,13,-66,-32,-54
-54,-19,28,34,-45,0,35,-48,13,-66,-32,-54
-60,-13,40,34,-51,6,35,-48,13,-60,-38,-60
-60,-13,40,34,-51,6,35,-48,13,-60,-38,-60
-66,-8,52,34,-63,18,35,-48,13,-54,-44,-60
-72,-8,58,40,-69,18,35,-48,13,-54,-44,-60
-66,-8,58,34,-63,24,35,-48,13,-60,-50,-60
-60,-8,52,28,-57,18,35,-48,13,-60,-50,-60
-54,-8,52,22,-51,24,35,-48,13,-66,-50,-66
-48,-8,46,22,-45,18,35,-48,13,-66,-50,-66
-54,-8,46,28,-51,18,41,-48,13,-60,-44,-60
-54,-8,40,28,-51,12,41,-42,13,-60,-44,-60
-60,-13,40,34,-51,6,41,-42,13,-54,-32,-54
-60,-13,40,34,-51,6,41,-42,13,-54,-32,-54
-60,-8,46,34,-57,12,41,-42,13,-54,-32,-60
-60,-8,46,34,-57,12,41,-42,13,-54,-32,-54
-60,-8,46,34,-57,12,41,-48,13,-54,-38,-60
-60,-8,52,28,-57,18,41,-48,13,-54,-38,-60
-60,-8,46,34,-57,12,41,-48,13,-60,-38,-54
-60,-8,46,34,-57,12,41,-48,13,-54,-38,-54
-60,-13,40,34,-51,6,41,-42,13,-60,-32,-48
-60,-13,40,34,-51,6,47,-36,13,-60,-32,-48
-60,-13,40,34,-51,6,47,-30,13,-60,-38,-48
-60,-13,40,34,-51,6,47,-30,13,-60,-38,-48
-60,-8,46,34,-57,12,41,-24,13,-60,-44,-48
-60,-8,46,34,-57,12,41,-24,19,-60,-44,-42
-60,-8,46,34,-57,12,47,-24,19,-54,-38,-42
-60,-8,46,34,-57,12,47,-24,19,-54,-32,-42
-60,-8,52,28,-57,18,47,-24,19,-48,-27,-42
-60,-8,58,28,-57,24,47,-24,19,-48,-27,-42
-54,-2,58,22,-57,30,41,-30,13,-54,-32,-42
-54,-2,58,22,-57,30,41,-24,13,-54,-32,-42
-54,-2,58,22,-57,30,35,-30,13,-54,-38,-42
-60,-2,64,22,-63,30,35,-30,13,-54,-38,-42
-60,-2,64,22,-63,30,35,-30,13,-54,-38,-42
-60,-2,64,22,-63,30,35,-30,19,-54,-38,-42
-54,-2,58,22,-57,30,35,-30,19,-54,-38,-42
-54,-2,58,22,-57,30,35,-30,19,-54,-38,-42
-54,-8,52,22,-51,24,41,-24,19,-48,-32,-42
-60,-8,58,28,-57,24,41,-24,19,-48,-32,-42
-60,-8,52,28,-57,18,47,-18,19,-42,-27,-42
-60,-8,46,34,-57,12,47,-18,19,-42,-27,-42
-54,-8,40,28,-51,12,47,-18,19,-48,-32,-42
-54,-8,40,28,-51,12,47,-18,19,-48,-27,-42
-48,-8,40,22,-45,12,47,-18,19,-54,-32,-42
-48,-8,40,22,-45,12,47,-18,19,-54,-38,-42
-54,-8,52,22,-51,24,47,-18,13,-54,-38,-48
-54,-8,46,28,-51,18,47,-18,13,-54,-38,-48
-60,-8,58,28,-57,24,47,-18,13,-48,-38,-54
-60,-8,58,28,-57,24,47,-18,13,-42,-38,-54
-60,-2,64,22,-63,30,41,-24,13,-42,-38,-54
-60,-2,64,22,-63,30,41,-24,13,-54,-38,-54
-60,-2,64,22,-63,30,35,-24,13,-60,-38,-54
-60,-8,58,28,-57,24,35,-24,13,-60,-38,-54
-66,-8,58,34,-63,24,41,-24,13,-60,-38,-54
-66,-8,58,34,-63,24,41,-30,13,-60,-38,-54
-72,-8,58,40,-69,18,47,-30,13,-60,-38,-48
-72,-8,58,40,-69,18,47,-30,13,-66,-38,-48
-72,-8,64,34,-69,24,47,-30,13,-66,-38,-54
-72,-8,64,34,-69,24,47,-30,13,-66,-38,-54
-72,-8,70,34,-69,30,47,-30,13,-66,-44,-60
-72,-8,70,34,-69,30,47,-30,13,-66,-44,-60
-72,-8,70,34,-69,30,47,-36,8,-72,-44,-60
-72,-8,70,34,-69,30,47,-36,8,-72,-44,-60
-72,-8,58,40,-69,18,47,-36,8,-72,-44,-60
-78,-8,64,40,-75,24,47,-30,8,-72,-44,-60
-78,-8,64,40,-75,24,47,-30,8,-72,-44,-60
-78,-8,64,40,-75,24,47,-30,8,-72,-44,-60
-78,-8,64,40,-75,24,47,-30,8,-72,-38,-60
-78,-13,58,46,-69,18,47,-36,8,-72,-38,-60
-72,-13,52,40,-63,12,47,-36,2,-78,-44,-66
-72,-13,52,40,-63,12,41,-36,2,-78,-44,-66
-78,-13,58,46,-69,18,41,-36,2,-84,-50,-66
-78,-13,58,46,-69,18,47,-42,2,-84,-56,-66
-78,-13,58,46,-69,18,47,-42,2,-84,-56,-66
-84,-13,64,46,-75,18,47,-42,2,-84,-56,-66
-84,-13,64,46,-75,18,47,-42,2,-84,-50,-72
-78,-13,58,46,-69,18,47,-48,2,-84,-50,-72
-78,-13,58,46,-69,18,47,-48,2,-84,-56,-72
-78,-13,58,46,-69,18,47,-48,2,-84,-56,-72
-84,-13,64,46,-75,18,47,-48,2,-84,-56,-78
-90,-13,70,52,-81,24,47,-48,2,-84,-56,-78
-90,-19,64,52,-81,18,47,-42,-4,-84,-62,-78
-90,-19,64,52,-81,18,47,-42,-10,-84,-62,-78
-90,-25,58,58,-75,12,47,-42,-10,-90,-74,-78
-84,-25,52,52,-69,6,47,-42,-10,-96,-74,-78
-84,-37,40,58,-63,-6,47,-36,2,-84,-56,-78
-96,-25,64,58,-81,12,47,-48,2,-90,-68,-78
-72,-8,64,34,-69,24,47,-48,-10,-102,-62,-90
-66,-13,46,40,-57,12,53,-48,-4,-90,-56,-84
-72,-19,46,46,-63,6,53,-48,-4,-96,-62,-84
-78,-19,52,46,-69,12,53,-48,-4,-96,-62,-84
-84,-25,52,52,-69,6,53,-48,-4,-102,-68,-84
-90,-25,58,58,-75,12,53,-48,-4,-102,-68,-84
-90,-25,58,58,-75,12,53,-48,-10,-102,-74,-84
-90,-25,58,58,-75,12,53,-48,-10,-102,-74,-84
-90,-19,64,52,-81,18,53,-48,-16,-102,-74,-84
-90,-13,70,52,-81,24,53,-48,-16,-102,-74,-90
-90,-13,70,52,-81,24,53,-48,-10,-102,-74,-90
-90,-13,70,52,-81,24,53,-48,-10,-102,-74,-90
-90,-13,70,52,-81,24,47,-42,-4,-102,-74,-84
-84,-8,70,46,-81,24,53,-36,-4,-96,-68,-84
-72,-8,70,34,-69,30,65,-30,2,-90,-62,-78
-72,-8,70,34,-69,30,65,-30,2,-90,-62,-72
-66,-8,64,28,-63,30,71,-30,13,-84,-62,-66
-60,4,70,22,-63,36,83,-18,13,-72,-50,-60
-54,16,76,10,-63,48,95,0,19,-66,-44,-54
-48,28,82,4,-63,54,107,12,31,-54,-38,-48
-48,34,88,4,-69,60,113,24,37,-48,-38,-54
-42,40,88,4,-63,66,113,30,37,-42,-32,-48
-42,40,88,4,-63,66,125,36,49,-36,-27,-48
-42,46,94,4,-69,72,137,42,55,-30,-27,-42
-36,40,82,4,-57,60,149,54,61,-24,-15,-36
-36,40,82,4,-57,60,155,60,67,-18,-15,-36
-36,52,94,-1,-63,72,161,78,73,-12,-15,-30
-36,52,94,-1,-63,72,161,78,79,-12,-9,-30
-36,58,100,-1,-69,78,143,78,79,-12,-9,-24
-24,58,88,-7,-57,72,131,78,79,-12,-3,-24
-12,52,70,-13,-39,60,113,78,85,-6,-3,-24
-6,40,52,-7,-27,48,101,78,85,-6,-3,-18
-6,28,40,-1,-21,36,83,66,91,-6,-3,-18
-6,22,34,-1,-21,30,65,54,79,-12,-3,-24
-1,16,22,-1,-9,18,53,42,73,-18,-3,-24
-1,4,10,4,-3,6,35,30,67,-24,-15,-30
-1,4,10,4,-3,6,35,18,61,-30,-21,-30
-1,-8,-8,4,2,-6,29,12,43,-36,-21,-30
-12,-8,-2,10,-9,-6,29,0,25,-54,-27,-42
-18,-13,-2,16,-9,-6,29,-18,13,-66,-32,-48
-18,-13,-2,16,-9,-6,29,-24,2,-84,-38,-54
-18,-19,-8,16,-9,-6,23,-36,-4,-84,-44,-60
-18,-19,-8,16,-9,-6,23,-42,-4,-90,-44,-60
-18,-19,-8,16,-9,-6,17,-42,-4,-90,-44,-54
-18,-19,-8,16,-9,-6,17,-36,2,-84,-44,-54
-18,-13,-2,16,-9,-6,17,-36,2,-84,-44,-54
-18,-13,-2,16,-9,-6,11,-36,-4,-78,-44,-54
-18,-13,-2,16,-9,-6,11,-42,-4,-90,-44,-60
-18,-19,-8,16,-9,-6,11,-36,-4,-90,-50,-60
-30,-31,-8,28,-15,-11,11,-36,-4,-96,-56,-60
-30,-31,-8,28,-15,-11,17,-54,-16,-102,-62,-66
-42,-31,4,34,-27,-6,17,-54,-22,-108,-68,-72
-48,-37,4,40,-27,-11,23,-54,-34,-120,-74,-84
-66,-43,16,52,-45,-6,23,-54,-34,-120,-80,-90
-90,-49,34,70,-63,-6,35,-54,-34,-120,-80,-96
-96,-49,40,70,-69,-6,41,-54,-34,-120,-80,-96
-114,-55,52,82,-87,-6,41,-54,-34,-126,-86,-96
-114,-61,46,88,-81,-6,41,-54,-34,-126,-86,-102
-114,-61,46,88,-81,-6,47,-54,-34,-126,-86,-102
-114,-61,46,88,-81,-6,65,-48,-34,-126,-86,-102
-108,-61,40,82,-75,-6,71,-42,-22,-126,-92,-102
-108,-61,40,82,-75,-6,77,-36,-22,-120,-92,-102
-108,-61,40,82,-75,-6,83,-30,-22,-120,-86,-102
-114,-55,52,82,-87,-6,101,-24,-10,-120,-86,-102
-114,-55,52,82,-87,-6,125,-6,-4,-114,-80,-102
-120,-49,64,82,-93,0,155,6,2,-114,-80,-102
-126,-43,76,82,-105,12,173,12,-4,-120,-86,-108
-126,-43,76,82,-105,12,173,18,2,-120,-86,-108
-120,-49,64,82,-93,0,155,24,-4,-120,-92,-114
-108,-55,46,82,-81,-6,113,24,-4,-120,-86,-114
-114,-61,46,88,-81,-6,95,18,8,-108,-80,-108
-114,-61,46,88,-81,-6,89,30,13,-108,-74,-108
-114,-73,34,94,-75,-11,89,24,13,-96,-68,-102
-108,-79,22,94,-69,-23,77,24,13,-96,-62,-102
-102,-85,10,94,-57,-29,71,36,13,-96,-56,-102
-96,-91,-2,94,-51,-41,59,48,25,-84,-50,-96
-84,-97,-8,88,-33,-53,65,72,31,-72,-44,-96
-78,-103,-19,88,-27,-59,53,78,37,-72,-44,-90
-66,-91,-19,76,-21,-53,59,90,49,-72,-44,-78
-60,-91,-25,76,-15,-59,41,90,49,-60,-44,-78
-66,-103,-31,82,-15,-65,23,90,67,-54,-32,-66
-48,-91,-37,70,-3,-65,11,114,79,-24,-27,-72
-42,-103,-55,70,2,-77,-1,126,103,-12,-27,-66
-36,-103,-61,70,2,-83,-24,126,115,-12,-9,-60
-12,-103,-85,58,26,-95,-54,132,139,18,9,-36
-1,-97,-103,40,50,-95,-90,144,157,23,27,-24
5,-73,-85,28,44,-77,-126,132,169,41,33,-24
29,-67,-103,10,62,-83,-162,156,193,65,57,6
71,-67,-145,4,104,-101,-216,168,217,101,93,29
119,-85,-211,-7,164,-143,-300,132,217,113,105,41
161,-79,-247,-31,200,-161,-408,54,187,107,105,41
179,-73,-253,-43,218,-161,-510,-30,139,71,93,35
209,-85,-295,-55,248,-191,-582,-119,79,41,75,29
227,-109,-337,-49,278,-221,-642,-221,13,23,63,24
233,-133,-367,-43,296,-245,-678,-299,-34,0,51,18
239,-145,-385,-37,308,-257,-696,-383,-100,-36,33,18
239,-163,-409,-31,320,-281,-708,-461,-184,-78,15,12
251,-181,-439,-31,344,-305,-726,-503,-220,-96,9,18
269,-199,-475,-31,368,-329,-726,-521,-238,-120,3,18
275,-211,-493,-25,380,-347,-732,-575,-286,-144,-9,18
299,-205,-505,-43,404,-353,-768,-647,-310,-144,21,35
377,-187,-565,-91,470,-371,-828,-713,-322,-96,111,119
503,-133,-643,-181,572,-383,-936,-809,-346,-36,213,239
659,-79,-739,-283,698,-407,-1038,-893,-346,29,333,377
773,-13,-793,-373,782,-401,-1122,-923,-316,131,471,515
869,52,-811,-463,842,-371,-1200,-959,-286,227,591,641
959,136,-817,-541,890,-335,-1248,-983,-250,299,687,749
1043,190,-853,-613,950,-323,-1284,-953,-214,353,765,839
1085,220,-865,-649,974,-317,-1296,-923,-208,341,777,881
1085,244,-835,-667,962,-287,-1284,-917,-238,281,729,869
1061,268,-787,-667,926,-251,-1236,-905,-292,185,657,827
989,178,-811,-583,902,-311,-1158,-905,-406,12,471,689
869,-2,-865,-433,866,-425,-1062,-947,-568,-252,177,449
701,-103,-805,-289,746,-455,-942,-1001,-736,-492,-56,227
431,-133,-565,-145,494,-347,-762,-983,-808,-588,-212,59
113,-121,-241,4,176,-179,-486,-833,-724,-582,-272,-42
-114,-79,28,94,-75,-17,-252,-641,-562,-504,-272,-114
-156,-49,100,100,-129,18,-174,-527,-460,-432,-254,-120
-126,-55,64,88,-99,0,-180,-491,-400,-390,-218,-108
-126,-37,82,82,-105,18,-162,-443,-358,-348,-200,-108
-114,-25,82,70,-99,24,-150,-377,-298,-318,-194,-108
-96,-31,58,64,-81,6,-114,-305,-238,-288,-176,-108
-96,-31,58,64,-81,6,-60,-215,-184,-246,-152,-102
-90,-19,64,52,-81,18,-18,-149,-130,-210,-128,-96
-78,-25,46,52,-63,6,5,-107,-100,-186,-104,-90
-90,-25,58,58,-75,12,41,-95,-82,-174,-86,-78
-114,-37,70,76,-93,12,53,-95,-82,-168,-86,-78
-120,-55,58,88,-93,-6,59,-101,-82,-168,-98,-90
-132,-55,70,94,-105,0,65,-101,-82,-168,-98,-96
-144,-73,64,106,-105,-6,71,-89,-76,-168,-116,-102
-156,-73,76,112,-117,-6,83,-83,-58,-174,-122,-108
-150,-79,64,112,-111,-6,101,-54,-52,-168,-128,-108
-156,-73,76,112,-117,-6,101,-54,-46,-168,-128,-108
-150,-79,64,112,-111,-6,113,-42,-40,-156,-128,-102
-150,-79,64,112,-111,-6,113,-42,-40,-156,-122,-102
-150,-79,64,112,-111,-6,113,-48,-40,-162,-116,-102
-144,-79,58,112,-105,-6,113,-54,-40,-162,-116,-102
-144,-79,58,112,-105,-6,119,-54,-34,-162,-110,-102
-150,-85,58,118,-105,-6,119,-54,-34,-162,-110,-102
-150,-79,64,112,-111,-6,119,-54,-34,-162,-110,-102
-150,-79,64,112,-111,-6,119,-54,-34,-156,-110,-102
-150,-67,76,106,-117,0,119,-48,-34,-156,-116,-102
-156,-67,82,112,-123,0,119,-48,-34,-156,-116,-102
-156,-61,88,106,-123,6,125,-30,-34,-156,-122,-108
-150,-61,82,106,-117,6,125,-30,-34,-156,-122,-108
-150,-61,82,106,-117,6,131,-24,-28,-150,-128,-108
-150,-61,82,106,-117,6,137,-24,-28,-150,-122,-108
-150,-61,82,106,-117,6,131,-24,-22,-150,-116,-108
-150,-61,82,106,-117,6,131,-24,-22,-150,-116,-102
-150,-61,82,106,-117,6,125,-18,-10,-150,-110,-102
-150,-61,82,106,-117,6,125,-18,-10,-144,-110,-96
-150,-61,82,106,-117,6,125,-18,-16,-144,-110,-96
-150,-61,82,106,-117,6,125,-12,-16,-144,-110,-96
-150,-61,82,106,-117,6,131,-12,-16,-144,-110,-96
-144,-55,82,100,-117,6,131,-12,-16,-144,-110,-96
-144,-61,76,100,-111,0,137,-12,-16,-144,-104,-90
-144,-61,76,100,-111,0,137,-12,-16,-138,-104,-90
-144,-61,76,100,-111,0,143,-12,-22,-138,-92,-90
-144,-61,76,100,-111,0,143,-12,-22,-138,-92,-90
-138,-61,70,100,-105,0,137,-6,-16,-144,-98,-90
-138,-55,76,94,-111,6,143,-6,-16,-144,-98,-90
-132,-55,70,94,-105,0,137,-6,-4,-144,-104,-90
-132,-55,70,94,-105,0,137,-6,-4,-144,-98,-90
-138,-61,70,100,-105,0,137,0,-4,-138,-98,-90
-138,-61,70,100,-105,0,137,0,-4,-138,-98,-90
-144,-61,76,100,-111,0,143,6,2,-126,-98,-90
-144,-61,76,100,-111,0,143,12,2,-126,-98,-90
-150,-67,76,106,-117,0,143,12,8,-126,-98,-78
-150,-67,76,106,-117,0,143,18,8,-126,-92,-78
-150,-67,76,106,-117,0,143,24,8,-120,-92,-72
-150,-67,76,106,-117,0,149,24,13,-114,-92,-72
-144,-61,76,100,-111,0,149,30,13,-120,-86,-72
-144,-49,88,94,-117,12,149,30,13,-120,-86,-72
-138,-43,88,88,-117,18,155,24,13,-120,-86,-78
-138,-37,94,88,-117,24,155,30,13,-108,-86,-72
-138,-43,88,88,-117,18,155,30,19,-114,-80,-72
-138,-43,88,88,-117,18,155,42,25,-108,-80,-72
-138,-49,82,94,-111,12,161,48,25,-114,-80,-72
-138,-43,88,88,-117,18,161,54,25,-114,-80,-72
-126,-43,76,82,-105,12,161,60,31,-108,-74,-72
-126,-43,76,82,-105,12,161,66,43,-108,-74,-72
-120,-43,70,82,-99,6,167,72,49,-96,-68,-66
-120,-37,76,76,-99,12,167,78,55,-96,-62,-66
-126,-37,82,82,-105,18,173,84,49,-96,-68,-66
-120,-31,82,76,-105,18,173,90,55,-96,-68,-66
-126,-31,88,76,-111,24,173,96,55,-90,-68,-60
-120,-31,82,76,-105,18,185,102,61,-78,-62,-60
-120,-31,82,76,-105,18,185,108,73,-72,-56,-60
-120,-25,88,70,-105,24,191,114,85,-66,-56,-54
-120,-25,88,70,-105,24,197,132,97,-60,-50,-54
-120,-25,88,70,-105,24,197,132,103,-60,-38,-54
-120,-19,94,70,-111,30,203,150,115,-48,-32,-42
-120,-19,94,70,-111,30,203,168,121,-42,-32,-42
-120,-13,100,64,-111,36,203,174,139,-36,-32,-30
-114,-8,100,58,-111,42,203,186,139,-30,-27,-30
-114,-8,100,58,-111,42,215,186,145,-24,-27,-24
-114,-8,100,58,-111,42,221,204,157,-18,-27,-24
-108,-13,88,58,-99,30,227,210,157,-18,-21,-24
-108,-8,94,58,-105,36,227,222,169,-12,-15,-18
-108,-8,100,52,-105,42,233,234,181,-6,-15,-18
-102,-8,94,52,-99,42,239,246,193,0,-9,-18
-96,-2,100,40,-99,48,239,270,199,6,-15,-24
-96,-2,100,40,-99,48,239,276,211,12,-9,-12
-78,-2,82,34,-81,42,239,288,223,23,-3,-6
-78,4,88,28,-81,48,245,300,235,23,3,-6
-72,-2,76,28,-75,36,245,312,247,35,9,12
-72,-2,76,28,-75,36,245,324,253,47,15,12
-66,4,76,22,-69,42,251,330,259,53,21,12
-66,10,82,22,-75,48,251,348,271,59,21,18
-54,16,76,10,-63,48,257,354,283,65,39,24
-48,16,70,10,-57,42,257,366,283,71,45,29
-42,16,64,4,-51,42,257,366,283,71,45,29
-36,16,58,4,-45,36,257,366,289,77,51,29
-36,10,52,4,-45,30,251,372,295,77,51,29
-30,10,46,4,-39,30,251,378,301,83,57,35
-24,16,46,4,-33,30,251,384,313,95,69,35
-18,16,40,4,-27,30,251,390,319,95,75,35
-12,16,34,4,-21,24,251,390,325,101,81,47
-6,22,34,-1,-21,30,239,390,331,113,81,47
-6,22,34,-1,-21,30,239,396,331,113,93,53
-1,22,22,-7,-9,24,239,396,331,113,93,65
-1,22,16,-7,-3,24,239,396,331,119,99,77
5,22,10,-13,2,18,239,396,331,119,111,77
17,22,-2,-19,2,12,227,390,331,119,105,77
23,28,-2,-25,8,18,221,384,331,119,105,77
29,28,-8,-25,14,12,197,378,325,113,99,83
35,28,-8,-31,20,12,191,366,319,107,99,83
41,28,-8,-31,26,6,179,354,313,113,105,89
47,28,-13,-37,32,6,167,342,307,101,111,95
53,28,-19,-37,38,0,155,318,289,107,117,101
59,28,-25,-43,44,0,143,300,283,101,111,101
71,22,-43,-43,56,-6,131,276,271,89,105,95
77,22,-49,-49,62,-6,107,252,253,77,105,95
89,16,-67,-49,80,-17,95,234,247,71,93,89
95,16,-73,-55,86,-17,77,210,235,65,87,89
95,22,-67,-55,80,-11,59,186,211,65,87,95
107,10,-91,-55,98,-29,53,174,199,53,81,95
107,16,-85,-61,98,-23,41,162,187,47,81,95
107,16,-85,-61,98,-23,29,144,175,35,81,95
101,10,-85,-55,92,-29,23,132,169,29,87,101
107,4,-97,-55,104,-35,11,108,157,29,75,101
101,-2,-97,-49,98,-41,11,96,145,29,81,101
107,-2,-103,-49,104,-41,-1,78,139,29,75,101
107,-2,-103,-49,104,-41,-1,66,121,23,63,95
101,-2,-97,-49,98,-41,-1,54,109,23,63,95
101,4,-91,-49,98,-35,-1,54,97,12,51,83
95,4,-85,-49,92,-29,-12,42,85,0,45,77
83,-2,-79,-37,80,-29,-12,30,79,-6,39,71
77,-2,-73,-37,74,-29,-12,30,67,-12,33,71
65,-8,-79,-19,68,-41,-12,18,67,-18,33,59
59,-8,-73,-19,62,-35,-12,12,61,-18,33,53
53,-8,-61,-19,56,-29,-12,6,55,-18,21,47
47,-8,-55,-13,50,-23,-6,0,49,-24,15,41
41,-8,-55,-7,44,-29,-1,-6,43,-36,3,35
35,-13,-55,-1,44,-29,-1,-12,37,-42,-3,35
29,-19,-55,4,38,-35,-1,-12,37,-48,-9,29
29,-19,-55,4,38,-35,5,-12,37,-54,-15,29
17,-19,-43,4,26,-29,5,-12,43,-54,-15,24
11,-19,-37,4,20,-23,11,-12,37,-60,-21,18
-1,-25,-31,4,14,-23,11,-18,37,-66,-21,12
-1,-25,-25,10,8,-23,11,-18,37,-66,-27,12
-6,-37,-25,22,2,-29,23,-18,25,-66,-21,6
-24,-37,-8,28,-3,-23,29,-18,19,-72,-27,6
-18,-37,-13,28,2,-23,29,-24,19,-72,-27,0
-18,-37,-13,28,2,-23,29,-24,19,-72,-32,0
-18,-31,-8,22,-3,-17,29,-30,19,-78,-38,-6
-24,-31,-8,28,-9,-17,35,-36,19,-78,-38,-6
-36,-43,-8,40,-15,-23,35,-36,19,-84,-38,-12
-36,-43,-8,40,-15,-23,41,-36,13,-84,-44,-18
-42,-43,-8,40,-21,-17,41,-36,13,-102,-44,-24
-48,-43,-2,46,-27,-17,41,-36,13,-102,-44,-24
-48,-49,-8,46,-21,-23,41,-30,13,-96,-50,-24
-48,-49,-8,46,-21,-23,41,-36,13,-114,-50,-30
-54,-55,-8,52,-27,-23,41,-30,13,-108,-56,-24
-54,-61,-8,58,-21,-29,41,-30,13,-108,-56,-24
-60,-55,-2,58,-33,-23,41,-36,8,-108,-62,-24
-60,-49,4,52,-33,-17,41,-36,8,-108,-62,-24
-60,-43,10,52,-39,-11,41,-48,8,-108,-62,-24
-60,-37,16,46,-39,-6,41,-48,8,-108,-62,-30
-66,-43,16,52,-45,-6,41,-42,8,-108,-68,-30
-66,-49,10,58,-39,-11,41,-42,8,-114,-68,-30
-66,-55,4,58,-39,-17,47,-36,8,-114,-68,-30
-66,-55,4,58,-39,-17,47,-36,2,-114,-68,-30
-66,-61,-2,64,-33,-23,47,-36,2,-114,-68,-36
-66,-61,-2,64,-33,-23,47,-36,2,-114,-68,-36
-66,-67,-8,64,-33,-29,47,-36,2,-114,-68,-36
-72,-67,-2,70,-39,-29,47,-36,2,-114,-68,-36
-66,-61,-2,64,-33,-23,47,-30,2,-114,-68,-30
-66,-61,-2,64,-33,-23,47,-30,2,-114,-68,-30
-60,-55,-2,58,-33,-23,47,-24,8,-114,-62,-30
-60,-55,-2,58,-33,-23,47,-24,8,-114,-62,-30
-60,-55,-2,58,-33,-23,53,-24,13,-108,-68,-30
-60,-61,-8,58,-27,-29,53,-18,8,-108,-68,-30
-60,-61,-8,58,-27,-29,53,-18,13,-102,-68,-30
-60,-61,-8,58,-27,-29,53,-18,13,-102,-68,-30
-60,-55,-2,58,-33,-23,53,-18,13,-102,-68,-30
-60,-55,-2,58,-33,-23,53,-18,13,-102,-68,-24
-60,-55,-2,58,-33,-23,53,-24,13,-102,-74,-24
-60,-49,4,52,-33,-17,53,-24,13,-102,-74,-24
-60,-55,-2,58,-33,-23,59,-24,13,-102,-68,-24
-60,-55,-2,58,-33,-23,59,-24,13,-96,-68,-24
-60,-61,-8,58,-27,-29,65,-18,13,-96,-56,-24
-60,-61,-8,58,-27,-29,71,-12,13,-96,-56,-24
-60,-61,-8,58,-27,-29,65,-18,13,-96,-62,-24
-60,-55,-2,58,-33,-23,65,-18,13,-96,-62,-24
-60,-49,4,52,-33,-17,53,-24,13,-96,-68,-24
-60,-43,10,52,-39,-11,53,-24,13,-96,-68,-18
-60,-49,4,52,-33,-17,59,-18,13,-90,-68,-18
-60,-55,-2,58,-33,-23,59,-18,13,-90,-62,-18
-60,-55,-2,58,-33,-23,59,-12,19,-84,-62,-18
-60,-55,-2,58,-33,-23,59,-12,19,-84,-62,-18
-54,-55,-8,52,-27,-23,59,-18,13,-84,-62,-18
-54,-55,-8,52,-27,-23,59,-12,13,-84,-62,-18
-54,-61,-8,58,-21,-29,59,-18,13,-78,-62,-18
-60,-61,-8,58,-27,-29,59,-18,13,-78,-62,-18
-60,-61,-8,58,-27,-29,59,-12,13,-78,-62,-12
-60,-61,-8,58,-27,-29,59,-12,19,-78,-62,-12
-54,-61,-8,58,-21,-29,59,-6,19,-78,-62,-6
-54,-61,-8,58,-21,-29,59,-6,19,-78,-62,-6
-60,-61,-8,58,-27,-29,59,-6,19,-78,-62,-6
-66,-55,4,58,-39,-17,59,-6,19,-78,-62,-6
-72,-55,10,64,-45,-17,59,-6,19,-78,-62,-6
-72,-55,10,64,-45,-17,59,-6,19,-78,-62,-6
-66,-55,4,58,-39,-17,59,-12,19,-72,-62,-6
-66,-55,4,58,-39,-17,59,-12,19,-72,-56,-6
-60,-49,4,52,-33,-17,59,-18,19,-66,-56,-6
-60,-49,4,52,-33,-17,59,-18,19,-66,-62,-6
-60,-43,10,52,-39,-11,59,-18,19,-66,-62,-12
-60,-49,4,52,-33,-17,59,-18,19,-66,-62,-12
-60,-43,10,52,-39,-11,59,-18,19,-60,-62,-18
-60,-43,10,52,-39,-11,59,-18,19,-54,-62,-18
-60,-37,16,46,-39,-6,59,-24,13,-48,-62,-12
-60,-37,16,46,-39,-6,59,-24,13,-60,-62,-12
-60,-37,16,46,-39,-6,59,-24,13,-60,-62,-6
-60,-43,10,52,-39,-11,59,-24,13,-60,-62,-6
-60,-49,4,52,-33,-17,59,-24,13,-60,-62,-12
-60,-49,4,52,-33,-17,59,-30,13,-60,-62,-12
-60,-55,-2,58,-33,-23,59,-30,13,-60,-62,-12
-60,-55,-2,58,-33,-23,59,-30,13,-66,-62,-12
-66,-55,4,58,-39,-17,59,-30,13,-66,-68,-12
-66,-55,4,58,-39,-17,59,-30,13,-66,-68,-12
-72,-55,10,64,-45,-17,59,-30,13,-66,-80,-12
-72,-55,10,64,-45,-17,59,-30,13,-66,-80,-12
-72,-49,16,58,-45,-11,59,-36,8,-72,-80,-12
-72,-49,16,58,-45,-11,59,-36,8,-72,-80,-12
-72,-55,10,64,-45,-17,59,-36,8,-72,-80,-12
-78,-55,16,64,-51,-11,59,-30,8,-72,-80,-12
-78,-55,16,64,-51,-11,59,-36,2,-66,-80,-12
-78,-55,16,64,-51,-11,59,-36,2,-66,-80,-12
-78,-55,16,64,-51,-11,59,-42,-4,-60,-74,-12
-78,-61,10,70,-45,-17,59,-48,-4,-60,-74,-12
-72,-55,10,64,-45,-17,59,-42,-4,-60,-80,-18
-72,-55,10,64,-45,-17,53,-42,-4,-60,-80,-18
-78,-49,22,64,-51,-6,53,-36,2,-60,-86,-18
-78,-49,22,64,-51,-6,59,-42,2,-60,-92,-18
-78,-49,22,64,-51,-6,59,-42,2,-66,-92,-18
-84,-49,28,64,-57,-6,59,-42,2,-66,-92,-18
-84,-49,28,64,-57,-6,59,-42,2,-72,-86,-24
-78,-49,22,64,-51,-6,59,-48,2,-72,-86,-24
-72,-49,16,58,-45,-11,53,-48,-4,-72,-92,-18
-72,-49,16,58,-45,-11,53,-48,-4,-72,-92,-18
-72,-49,16,58,-45,-11,47,-48,-10,-72,-92,-18
-78,-49,22,64,-51,-6,47,-48,-10,-72,-92,-18
-78,-55,16,64,-51,-11,53,-48,-10,-66,-86,-18
-78,-61,10,70,-45,-17,53,-48,-10,-66,-86,-18
-78,-67,4,70,-45,-23,59,-54,-4,-66,-86,-18
-72,-73,-8,70,-33,-35,59,-54,2,-72,-86,-18
-78,-67,4,70,-45,-23,59,-48,-4,-72,-86,-18
-78,-67,4,70,-45,-23,59,-48,-4,-78,-86,-18
-84,-61,16,70,-51,-17,59,-48,-10,-78,-98,-18
-84,-61,16,70,-51,-17,59,-54,-10,-78,-104,-24
-84,-73,4,76,-45,-29,59,-42,-10,-66,-92,-12
-84,-73,4,76,-45,-29,59,-54,-10,-72,-92,-12
-78,-61,10,70,-45,-17,53,-48,-4,-78,-92,-12
-84,-67,10,76,-51,-23,53,-48,-4,-72,-92,-12
-84,-67,10,76,-51,-23,53,-48,-4,-72,-92,-12
-90,-73,10,82,-51,-23,53,-48,-4,-66,-92,-12
-90,-73,10,82,-51,-23,53,-48,-4,-66,-92,-12
-90,-67,16,76,-57,-17,53,-54,-10,-72,-98,-12
-90,-67,16,76,-57,-17,53,-54,-10,-72,-98,-12
-90,-55,28,70,-63,-6,53,-54,-16,-78,-98,-12
-90,-49,34,70,-63,-6,53,-54,-16,-78,-98,-18
-84,-49,28,64,-57,-6,59,-54,-10,-72,-98,-18
-84,-49,28,64,-57,-6,59,-54,-10,-72,-98,-18
-78,-49,22,64,-51,-6,59,-54,-4,-66,-98,-12
-72,-43,22,58,-51,-6,65,-48,-4,-60,-92,-12
-66,-37,22,52,-45,-6,71,-42,-4,-54,-86,-12
-66,-37,22,52,-45,-6,71,-42,-4,-54,-86,-6
-66,-43,16,52,-45,-6,71,-42,2,-48,-86,-6
-60,-31,22,46,-45,-6,83,-30,8,-36,-74,0
-48,-19,22,34,-39,-6,101,-6,19,-30,-62,6
-42,-8,28,22,-39,6,113,6,31,-18,-56,12
-36,-8,28,16,-33,6,125,24,49,-12,-50,6
-30,-8,28,10,-27,12,125,30,49,-6,-44,12
-24,-2,28,4,-27,12,131,30,55,0,-44,12
-24,4,34,4,-27,18,143,36,61,6,-38,18
-12,4,22,4,-15,12,149,42,61,12,-38,24
-12,4,22,4,-15,12,155,48,67,18,-38,24
-18,10,34,4,-27,24,167,72,73,23,-32,29
-18,10,34,4,-27,24,167,72,79,23,-27,29
-24,10,40,4,-33,24,155,78,79,23,-27,29
-12,10,28,4,-21,18,143,78,79,23,-27,29
-1,16,16,-1,-3,18,125,78,85,23,-27,29
-1,4,-2,-1,2,6,113,78,85,23,-27,29
5,4,-8,-1,2,0,95,66,91,23,-27,29
5,-2,-8,-1,2,-6,77,54,79,23,-27,29
5,-8,-8,4,8,-6,59,36,67,18,-27,29
5,-8,-19,4,8,-11,41,24,61,12,-32,29
-1,-8,-13,4,2,-6,35,6,49,6,-44,29
-1,-25,-31,4,14,-23,29,0,31,0,-44,29
-1,-31,-31,10,8,-29,23,-6,25,-12,-56,29
-1,-37,-31,16,8,-35,23,-24,13,-24,-62,24
-1,-37,-37,16,14,-35,17,-24,13,-36,-62,18
-1,-43,-43,16,14,-41,11,-36,13,-36,-68,12
-1,-37,-37,16,14,-35,17,-48,8,-42,-68,12
-1,-37,-37,16,14,-35,11,-48,8,-42,-68,18
-1,-31,-31,10,8,-29,17,-48,2,-36,-68,18
-1,-25,-25,10,8,-23,17,-48,2,-36,-68,18
-1,-31,-37,10,14,-29,11,-54,-4,-36,-68,24
-1,-37,-43,10,20,-35,11,-54,-4,-48,-68,18
5,-49,-61,16,32,-53,11,-54,-4,-54,-74,24
-1,-67,-67,28,26,-65,11,-54,-4,-60,-80,24
-6,-61,-49,34,14,-53,17,-59,-10,-60,-80,24
-18,-61,-37,40,2,-47,17,-65,-16,-66,-86,18
-36,-61,-19,46,-3,-41,23,-65,-22,-72,-86,12
-54,-67,-8,58,-21,-35,23,-65,-22,-72,-92,6
-72,-67,-2,70,-39,-29,35,-65,-28,-78,-98,0
-78,-67,4,70,-45,-23,41,-65,-28,-78,-98,0
-90,-67,16,76,-57,-17,41,-65,-34,-90,-110,0
-90,-73,10,82,-51,-23,41,-65,-34,-90,-110,-6
-96,-73,16,82,-57,-23,53,-54,-28,-84,-104,-12
-96,-73,16,82,-57,-23,71,-54,-28,-84,-104,-12
-96,-73,16,82,-57,-23,83,-54,-10,-78,-104,-18
-96,-73,16,82,-57,-23,89,-48,-10,-72,-104,-18
-96,-73,16,82,-57,-23,89,-42,-16,-72,-104,-12
-102,-67,28,82,-69,-11,107,-36,-4,-72,-104,-12
-102,-67,28,82,-69,-11,125,-18,-4,-66,-104,-6
-108,-61,40,82,-75,-6,155,-6,2,-66,-104,-6
-120,-61,52,88,-87,-6,173,-12,2,-66,-110,-6
-120,-61,52,88,-87,-6,173,-6,8,-66,-110,-6
-120,-73,40,94,-81,-11,155,-12,8,-60,-116,-6
-108,-79,22,94,-69,-23,113,-12,8,-60,-110,-6
-108,-79,22,94,-69,-23,95,-6,13,-54,-110,0
-108,-79,22,94,-69,-23,89,6,13,-54,-104,0
-102,-85,10,94,-57,-29,89,12,13,-48,-104,6
-96,-91,-2,94,-51,-41,77,12,13,-48,-98,6
-84,-97,-8,88,-33,-53,59,18,13,-42,-92,6
-78,-103,-19,88,-27,-59,47,30,25,-30,-86,12
-60,-109,-43,82,-3,-77,41,48,31,-12,-80,12
-54,-115,-55,82,2,-83,29,54,37,-12,-80,18
-54,-115,-55,82,2,-83,11,54,37,-12,-80,18
-48,-115,-61,82,2,-89,-1,54,49,-12,-68,29
-30,-115,-79,70,14,-95,-1,78,79,6,-56,41
-24,-115,-85,70,20,-101,-12,90,91,23,-50,47
-18,-127,-103,70,32,-113,-48,78,91,23,-38,41
-1,-127,-121,64,50,-125,-96,78,103,35,-32,59
-1,-115,-121,52,56,-113,-138,84,127,53,-27,71
23,-109,-139,34,80,-119,-174,84,133,71,-9,83
53,-97,-157,16,104,-125,-210,84,145,89,21,107
89,-91,-187,4,134,-137,-252,96,181,113,33,113
131,-91,-229,-13,176,-155,-330,72,181,137,57,137
179,-97,-277,-31,230,-185,-432,12,169,149,69,149
221,-115,-337,-43,272,-227,-534,-54,139,131,69,149
239,-133,-373,-43,302,-245,-618,-113,91,107,57,155
251,-133,-391,-55,320,-257,-678,-215,31,65,27,149
269,-133,-409,-61,338,-263,-726,-323,-34,35,15,143
275,-157,-439,-55,356,-293,-744,-407,-94,12,3,137
281,-169,-457,-49,368,-305,-762,-503,-184,-36,-27,125
299,-187,-493,-49,392,-335,-774,-563,-250,-78,-32,119
323,-193,-517,-61,422,-353,-780,-593,-286,-108,-50,101
341,-199,-541,-67,440,-365,-780,-659,-334,-144,-68,101
359,-187,-547,-79,452,-365,-816,-719,-370,-144,-56,125
395,-169,-565,-109,482,-365,-864,-767,-382,-120,-3,191
485,-139,-625,-169,548,-377,-948,-863,-406,-72,75,281
623,-85,-715,-259,668,-395,-1062,-977,-442,-12,177,401
749,-19,-775,-361,758,-395,-1134,-1031,-430,41,285,515
845,34,-805,-439,824,-377,-1194,-1037,-400,119,393,611
953,76,-871,-511,914,-389,-1254,-1049,-358,191,471,701
1037,124,-913,-577,974,-389,-1296,-1049,-334,245,555,791
1103,190,-913,-643,1004,-353,-1332,-1031,-292,305,627,863
1181,250,-925,-715,1052,-329,-1344,-983,-226,353,687,929
1205,256,-943,-727,1070,-335,-1308,-929,-220,353,699,965
1157,268,-883,-715,1016,-299,-1248,-893,-244,287,645,947
1097,256,-835,-679,968,-281,-1194,-893,-322,167,531,887
1043,154,-889,-595,968,-359,-1134,-935,-466,-30,327,719
935,-31,-973,-445,950,-497,-1056,-977,-634,-294,51,485
743,-157,-907,-289,824,-527,-942,-1037,-772,-468,-140,305
467,-157,-625,-151,542,-389,-762,-1025,-796,-522,-242,185
149,-115,-265,-7,206,-191,-498,-839,-682,-468,-266,89
-60,-61,-8,58,-27,-29,-276,-629,-514,-372,-242,47
-102,-43,52,70,-81,0,-204,-527,-412,-306,-218,35
-78,-49,22,64,-51,-6,-186,-455,-346,-276,-212,35
-78,-37,34,58,-57,-6,-162,-389,-286,-246,-194,29
-84,-31,46,58,-69,0,-138,-317,-238,-216,-200,29
-72,-31,34,52,-57,-6,-96,-251,-196,-192,-176,29
-66,-31,28,46,-51,-6,-42,-185,-142,-150,-152,47
-66,-37,22,52,-45,-6,-6,-143,-112,-114,-116,53
-66,-49,10,58,-39,-11,17,-131,-106,-102,-110,53
-78,-49,22,64,-51,-6,29,-131,-94,-96,-110,41
-90,-61,22,76,-57,-11,35,-131,-88,-96,-116,29
-102,-61,34,82,-69,-6,41,-125,-88,-96,-116,29
-120,-73,40,94,-81,-11,47,-107,-76,-96,-128,29
-132,-73,52,100,-93,-6,59,-95,-58,-102,-134,24
-138,-79,52,106,-99,-6,77,-65,-52,-96,-140,18
-144,-79,58,112,-105,-6,77,-59,-46,-96,-140,18
-150,-85,58,118,-105,-6,89,-54,-40,-84,-140,18
-150,-91,52,118,-105,-11,89,-54,-40,-84,-134,18
-150,-91,52,118,-105,-11,95,-54,-40,-84,-134,18
-144,-91,46,118,-99,-17,95,-54,-40,-84,-134,18
-144,-91,46,118,-99,-17,107,-54,-34,-78,-134,18
-150,-97,46,124,-99,-17,107,-54,-34,-78,-134,18
-150,-97,46,124,-99,-17,113,-54,-28,-84,-128,18
-150,-97,46,124,-99,-17,113,-54,-28,-78,-128,18
-150,-91,52,118,-105,-11,119,-48,-22,-84,-128,18
-156,-91,58,124,-111,-11,119,-48,-22,-84,-128,18
-156,-85,64,118,-111,-6,119,-36,-28,-78,-128,18
-150,-85,58,118,-105,-6,119,-36,-28,-78,-128,18
-150,-85,58,118,-105,-6,119,-36,-28,-66,-128,24
-150,-85,58,118,-105,-6,125,-36,-28,-66,-122,24
-150,-85,58,118,-105,-6,125,-36,-22,-66,-116,24
-150,-85,58,118,-105,-6,125,-36,-22,-66,-116,29
-150,-85,58,118,-105,-6,125,-30,-10,-66,-110,29
-150,-85,58,118,-105,-6,125,-30,-10,-60,-110,29
-150,-79,64,112,-111,-6,125,-24,-10,-66,-116,29
-150,-79,64,112,-111,-6,125,-18,-10,-66,-116,29
-150,-73,70,112,-111,-6,131,-12,-4,-72,-122,24
-144,-67,70,106,-111,-6,131,-12,-4,-72,-122,24
-144,-67,70,106,-111,-6,131,-12,-4,-66,-122,29
-144,-67,70,106,-111,-6,131,-12,-4,-60,-122,29
-144,-61,76,100,-111,0,131,-12,-10,-54,-116,29
-144,-61,76,100,-111,0,131,-12,-10,-54,-116,29
-144,-61,76,100,-111,0,125,-6,-10,-54,-116,29
-144,-55,82,100,-117,6,131,-6,-10,-54,-116,29
-144,-55,82,100,-117,6,125,-6,-4,-48,-116,29
-144,-55,82,100,-117,6,125,-6,-4,-48,-110,29
-144,-61,76,100,-111,0,131,0,2,-48,-110,29
-144,-61,76,100,-111,0,131,0,2,-48,-110,29
-144,-61,76,100,-111,0,143,6,13,-42,-110,29
-144,-61,76,100,-111,0,143,12,13,-42,-110,29
-138,-61,70,100,-105,0,143,12,13,-42,-110,35
-138,-61,70,100,-105,0,143,18,13,-42,-104,35
-126,-55,64,88,-99,0,143,24,13,-36,-104,35
-126,-55,64,88,-99,0,149,24,13,-30,-104,35
-126,-55,64,88,-99,0,143,36,13,-30,-98,35
-126,-49,70,88,-99,6,143,36,19,-30,-98,35
-126,-49,70,88,-99,6,143,36,13,-24,-98,29
-126,-49,70,88,-99,6,143,42,13,-12,-98,35
-132,-49,76,88,-105,6,143,42,19,-12,-92,35
-132,-49,76,88,-105,6,143,54,25,-6,-92,35
-138,-49,82,94,-111,12,149,60,25,-6,-92,35
-138,-43,88,88,-117,18,149,66,25,-6,-92,35
-132,-43,82,88,-111,12,155,72,37,0,-86,35
-132,-43,82,88,-111,12,155,78,49,0,-86,35
-132,-43,82,88,-111,12,167,84,61,12,-80,41
-132,-37,88,82,-111,18,167,90,67,12,-74,41
-132,-43,82,88,-111,12,173,96,61,12,-74,41
-126,-37,82,82,-105,18,173,102,67,12,-74,41
-126,-43,76,82,-105,12,173,108,67,18,-68,47
-120,-43,70,82,-99,6,185,114,73,23,-62,47
-120,-43,70,82,-99,6,179,120,85,23,-62,47
-120,-37,76,76,-99,12,185,126,97,23,-62,53
-120,-37,76,76,-99,12,185,144,109,23,-62,53
-120,-37,76,76,-99,12,185,144,115,23,-50,53
-120,-31,82,76,-105,18,197,168,127,29,-44,53
-120,-31,82,76,-105,18,197,186,133,35,-44,53
-120,-25,88,70,-105,24,203,192,151,47,-44,53
-114,-19,88,64,-105,30,203,204,151,53,-32,53
-114,-13,94,64,-105,36,215,210,163,65,-27,59
-114,-13,94,64,-105,36,221,228,175,71,-27,59
-108,-13,88,58,-99,30,227,234,181,77,-27,59
-108,-8,94,58,-105,36,227,246,193,83,-27,65
-114,-8,100,58,-111,42,239,258,205,89,-21,71
-108,-8,94,58,-105,36,239,270,217,95,-15,71
-108,-8,100,52,-105,42,245,294,223,101,-15,71
-108,-8,100,52,-105,42,245,300,235,107,-9,83
-102,-8,100,46,-99,48,251,318,247,113,-3,77
-102,-2,106,46,-105,54,263,330,253,119,3,77
-108,-2,112,46,-111,54,269,348,265,131,9,83
-108,-2,112,46,-111,54,269,360,271,143,15,83
-102,-2,106,46,-105,54,275,366,283,149,15,83
-102,4,112,40,-105,60,275,384,295,155,15,89
-90,4,100,34,-93,54,281,390,307,161,27,95
-84,4,94,34,-87,48,281,402,307,167,33,101
-84,10,100,28,-93,54,287,414,313,179,45,107
-84,10,100,28,-93,54,287,414,319,185,51,107
-90,10,106,34,-99,60,287,432,331,197,63,125
-90,10,106,34,-99,60,287,432,337,203,69,131
-84,16,106,28,-93,60,287,438,343,209,69,125
-78,16,100,22,-87,60,287,444,349,209,75,125
-72,16,94,22,-81,54,287,444,349,209,69,131
-66,22,94,16,-81,60,275,444,355,221,69,131
-60,22,88,10,-75,54,269,450,361,221,81,131
-48,22,76,4,-63,48,269,450,361,221,81,143
-36,22,64,4,-51,42,263,450,367,227,87,149
-30,22,58,4,-45,42,257,450,367,227,99,149
-30,22,58,4,-45,42,251,438,361,233,99,149
-24,28,58,4,-39,42,245,432,361,233,99,149
-30,28,64,4,-45,48,233,426,349,233,99,155
-24,28,58,4,-39,42,227,414,343,227,99,155
-12,22,40,4,-27,30,209,402,331,221,99,155
-1,22,28,-1,-15,24,197,390,325,209,105,161
-1,16,10,-7,2,18,179,366,301,203,105,161
11,16,-2,-13,2,12,167,348,295,197,99,161
17,10,-8,-13,8,0,155,330,289,197,99,161
23,10,-8,-13,14,0,131,306,265,185,99,161
29,4,-19,-13,26,-6,119,294,265,191,93,161
35,4,-25,-19,32,-6,101,270,253,185,87,161
35,4,-25,-19,32,-6,83,240,235,179,87,167
47,-8,-49,-19,50,-17,77,222,223,167,81,167
47,-8,-49,-19,50,-17,65,204,211,155,81,167
47,-8,-49,-19,50,-17,53,186,199,143,81,167
47,-2,-43,-19,44,-11,41,174,187,137,81,167
53,-8,-55,-19,56,-23,29,150,175,131,69,167
53,-2,-49,-25,50,-17,23,132,157,131,69,161
59,-2,-55,-25,56,-17,11,114,151,125,63,161
59,-8,-61,-25,62,-23,-1,96,133,119,57,161
53,-8,-55,-19,56,-23,-1,84,121,113,57,161
53,-8,-55,-19,56,-23,-1,78,109,107,51,155
47,-8,-49,-19,50,-17,-1,66,97,95,45,149
41,-8,-43,-13,44,-17,-1,54,91,89,45,149
35,-8,-37,-13,38,-11,-1,54,79,83,39,149
29,-8,-43,-1,32,-23,-1,42,79,77,45,143
23,-8,-37,-1,26,-17,-1,36,73,77,45,137
17,-8,-25,-1,20,-11,-6,30,67,77,33,131
11,-8,-19,4,14,-6,-6,24,61,71,27,125
5,-8,-19,4,8,-11,-6,18,55,59,15,119
-1,-13,-19,4,8,-11,-1,12,49,53,9,119
-1,-25,-25,10,8,-23,-1,12,43,47,9,125
-1,-25,-25,10,8,-23,-1,12,43,41,3,119
-6,-31,-19,16,2,-23,5,12,43,41,9,119
-12,-31,-13,22,2,-23,11,12,37,35,3,113
-24,-25,-8,22,-9,-11,5,0,37,29,-3,101
-30,-25,-2,28,-15,-6,5,0,37,29,-9,95
-42,-25,10,34,-27,-6,11,-6,25,29,-9,83
-60,-25,28,40,-45,-6,17,-6,19,23,-15,77
-60,-37,16,46,-39,-6,23,-6,19,23,-15,71
-60,-37,16,46,-39,-6,23,-6,19,23,-21,71
-66,-43,16,52,-45,-6,29,-6,19,23,-15,65
-72,-43,22,58,-51,-6,35,-12,19,23,-15,65
-78,-55,16,64,-51,-11,29,-12,19,23,-21,59
-78,-55,16,64,-51,-11,35,-12,13,23,-27,53
-78,-55,16,64,-51,-11,29,-12,13,18,-27,47
-84,-55,22,70,-57,-11,29,-12,13,18,-27,47
-84,-49,28,64,-57,-6,29,-18,13,18,-32,41
-84,-49,28,64,-57,-6,29,-24,8,0,-32,35
-90,-43,40,64,-69,-6,29,-30,2,0,-44,35
-90,-49,34,70,-63,-6,29,-30,2,0,-44,35
-96,-49,40,70,-69,-6,29,-24,2,0,-44,35
-96,-49,40,70,-69,-6,29,-24,2,0,-44,35
-96,-49,40,70,-69,-6,29,-24,8,0,-38,35
-96,-49,40,70,-69,-6,29,-24,8,0,-38,29
-102,-55,40,76,-75,-6,29,-24,8,0,-44,29
-102,-61,34,82,-69,-6,29,-24,8,-6,-44,29
-102,-67,28,82,-69,-11,35,-24,8,-6,-44,29
-102,-67,28,82,-69,-11,35,-24,2,-6,-44,29
-102,-61,34,82,-69,-6,35,-30,2,-6,-44,29
-102,-61,34,82,-69,-6,35,-30,2,-6,-44,29
-102,-55,40,76,-75,-6,35,-36,2,-6,-44,29
-108,-55,46,82,-81,-6,35,-36,2,-6,-44,29
-108,-61,40,82,-75,-6,41,-30,2,-6,-44,29
-108,-61,40,82,-75,-6,41,-30,2,-6,-44,29
-108,-67,34,88,-75,-11,47,-24,8,-6,-38,29
-108,-67,34,88,-75,-11,47,-24,8,-6,-38,29
-108,-67,34,88,-75,-11,47,-24,8,-6,-38,29
-108,-73,28,88,-69,-17,47,-18,2,-6,-38,29
-108,-73,28,88,-69,-17,41,-18,2,-6,-32,29
-108,-73,28,88,-69,-17,41,-18,2,-6,-32,29
-108,-67,34,88,-75,-11,41,-24,2,-6,-38,29
-108,-67,34,88,-75,-11,41,-24,8,-6,-38,29
-108,-67,34,88,-75,-11,41,-36,8,-6,-50,29
-108,-61,40,82,-75,-6,41,-36,8,-6,-50,29
-108,-61,40,82,-75,-6,41,-30,8,-6,-50,29
-108,-61,40,82,-75,-6,41,-30,8,0,-50,29
-108,-61,40,82,-75,-6,41,-18,13,0,-44,29
-108,-61,40,82,-75,-6,47,-12,13,0,-44,29
-108,-61,40,82,-75,-6,47,-12,13,0,-38,29
-108,-61,40,82,-75,-6,47,-12,13,0,-38,29
-108,-55,46,82,-81,-6,41,-12,13,0,-32,29
-108,-55,46,82,-81,-6,41,-12,13,0,-32,29
-108,-55,46,82,-81,-6,47,-18,13,6,-32,35
-108,-55,46,82,-81,-6,47,-18,13,6,-27,35
-108,-49,52,76,-81,-6,47,-24,8,12,-27,41
-108,-43,58,76,-87,0,47,-24,8,12,-27,41
-108,-43,58,76,-87,0,47,-18,8,12,-32,41
-108,-43,58,76,-87,0,47,-12,8,12,-32,41
-114,-49,58,82,-87,0,47,-6,13,18,-38,41
-120,-49,64,82,-93,0,47,-6,13,18,-38,41
-114,-55,52,82,-87,-6,47,-6,13,18,-32,47
-114,-55,52,82,-87,-6,47,-6,13,18,-32,47
-102,-61,34,82,-69,-6,47,-6,13,18,-27,53
-102,-61,34,82,-69,-6,47,-6,13,18,-27,53
-102,-61,34,82,-69,-6,47,-12,13,18,-27,53
-108,-55,46,82,-81,-6,47,-12,13,18,-27,53
-108,-55,46,82,-81,-6,47,-18,13,18,-27,53
-108,-55,46,82,-81,-6,47,-18,13,18,-27,53
-108,-49,52,76,-81,-6,47,-18,13,18,-27,47
-108,-49,52,76,-81,-6,47,-18,13,18,-27,47
-108,-37,64,70,-87,6,47,-18,13,18,-27,41
-108,-37,64,70,-87,6,47,-18,13,18,-27,41
-108,-37,64,70,-87,6,47,-18,13,18,-27,41
-108,-43,58,76,-87,0,47,-18,13,18,-27,41
-108,-43,58,76,-87,0,47,-18,19,23,-27,41
-108,-43,58,76,-87,0,47,-18,19,23,-27,41
-108,-37,64,70,-87,6,47,-24,13,23,-32,41
-108,-37,64,70,-87,6,47,-24,13,18,-32,41
-108,-37,64,70,-87,6,47,-24,13,12,-38,41
-108,-43,58,76,-87,0,47,-24,13,12,-38,41
-108,-43,58,76,-87,0,47,-24,13,18,-32,41
-108,-43,58,76,-87,0,47,-30,13,18,-32,41
-108,-43,58,76,-87,0,47,-30,13,23,-27,47
-108,-43,58,76,-87,0,47,-30,13,18,-27,47
-108,-49,52,76,-81,-6,47,-30,13,18,-32,47
-108,-49,52,76,-81,-6,47,-30,13,18,-32,47
-108,-55,46,82,-81,-6,47,-30,13,18,-44,47
-108,-55,46,82,-81,-6,47,-30,13,18,-44,47
-114,-49,58,82,-87,0,47,-36,8,12,-44,41
-114,-49,58,82,-87,0,47,-36,8,12,-44,41
-120,-55,58,88,-93,-6,47,-36,8,12,-44,35
-126,-55,64,88,-99,0,47,-30,8,12,-44,35
-120,-55,58,88,-93,-6,47,-30,13,12,-50,35
-120,-55,58,88,-93,-6,47,-30,13,12,-50,35
-114,-55,52,82,-87,-6,47,-30,13,12,-50,35
-114,-61,46,88,-81,-6,47,-36,13,12,-50,35
-114,-55,52,82,-87,-6,41,-36,13,6,-50,29
-114,-55,52,82,-87,-6,35,-36,13,6,-50,29
-126,-49,70,88,-99,6,29,-36,13,0,-50,29
-126,-49,70,88,-99,6,35,-42,13,0,-56,29
-120,-49,64,82,-93,0,41,-42,13,6,-56,29
-126,-49,70,88,-99,6,41,-42,13,6,-56,29
-120,-49,64,82,-93,0,47,-42,13,12,-50,29
-114,-49,58,82,-87,0,47,-48,13,12,-50,29
-114,-49,58,82,-87,0,47,-48,8,6,-56,29
-114,-49,58,82,-87,0,47,-48,8,6,-56,29
-120,-49,64,82,-93,0,47,-48,2,0,-56,29
-126,-49,70,88,-99,6,47,-48,2,0,-56,29
-120,-49,64,82,-93,0,41,-48,-4,6,-50,24
-120,-49,64,82,-93,0,41,-48,-10,6,-50,24
-114,-49,58,82,-87,0,35,-54,-10,6,-50,18
-108,-49,52,76,-81,-6,35,-54,-10,0,-50,18
-114,-55,52,82,-87,-6,35,-48,-10,0,-50,18
-114,-55,52,82,-87,-6,35,-48,-10,-6,-50,18
-120,-61,52,88,-87,-6,35,-48,-10,-6,-62,18
-120,-61,52,88,-87,-6,35,-54,-10,-6,-68,12
-120,-49,64,82,-93,0,35,-54,-10,-6,-56,24
-120,-49,64,82,-93,0,35,-54,-10,0,-56,24
-126,-61,58,94,-93,-6,53,-48,-16,6,-56,24
-126,-61,58,94,-93,-6,53,-54,-16,6,-56,18
-126,-61,58,94,-93,-6,53,-54,-16,6,-56,18
-126,-61,58,94,-93,-6,53,-54,-16,6,-56,12
-126,-61,58,94,-93,-6,53,-54,-16,6,-56,12
-126,-61,58,94,-93,-6,53,-54,-16,6,-56,6
-126,-61,58,94,-93,-6,53,-54,-16,6,-56,6
-126,-55,64,88,-99,0,53,-48,-16,6,-50,0
-126,-49,70,88,-99,6,53,-48,-16,6,-50,-6
-126,-49,70,88,-99,6,59,-54,-16,0,-50,-6
-126,-49,70,88,-99,6,59,-54,-16,0,-50,-6
-126,-49,70,88,-99,6,59,-54,-16,-6,-50,0
-120,-43,70,82,-99,6,65,-48,-16,0,-44,0
-108,-31,70,70,-93,12,71,-36,-4,12,-32,6
-108,-31,70,70,-93,12,71,-30,2,18,-32,18
-102,-31,64,64,-87,12,71,-24,13,23,-27,24
-96,-19,70,58,-87,18,83,-6,19,35,-27,29
-78,-13,58,46,-69,18,95,6,31,35,-21,35
-72,-8,64,34,-69,24,107,18,43,47,-15,41
-60,-8,52,28,-57,18,113,24,49,47,-15,41
-54,-8,52,22,-51,24,113,30,49,53,-9,47
-60,4,70,22,-63,36,125,36,61,53,-9,47
-60,16,82,16,-69,48,137,42,67,59,-3,53
-60,22,88,10,-75,54,149,54,73,59,-3,59
-60,28,94,10,-75,60,155,60,79,65,-3,59
-60,28,94,10,-75,60,167,78,85,77,3,65
-60,28,94,10,-75,60,167,78,91,77,9,65
-60,22,88,10,-75,54,155,78,91,83,15,71
-48,22,76,4,-63,48,143,78,91,83,21,71
-36,16,58,4,-45,36,125,84,97,89,21,77
-30,4,40,4,-33,24,113,84,97,89,21,83
-30,-8,28,10,-27,12,95,78,103,89,21,89
-30,-8,22,16,-27,6,77,66,91,83,21,83
-18,-8,10,10,-15,0,59,48,79,77,21,83
-18,-8,4,10,-15,-6,41,36,73,71,9,77
-12,-8,4,4,-9,-6,35,18,61,65,3,77
-12,-13,-8,10,-3,-6,29,12,43,59,3,77
-24,-25,-8,22,-9,-11,23,0,31,47,-15,65
-30,-31,-8,28,-15,-11,23,-18,13,35,-21,59
-30,-37,-8,34,-9,-17,17,-24,13,23,-27,53
-30,-43,-8,34,-9,-23,11,-36,13,23,-27,47
-36,-49,-8,40,-9,-29,11,-42,13,23,-27,41
-36,-49,-8,40,-9,-29,5,-42,13,23,-27,47
-42,-55,-8,46,-15,-29,5,-36,13,23,-27,41
-42,-49,-8,46,-15,-23,5,-36,13,23,-27,41
-36,-43,-8,40,-15,-23,-1,-42,2,23,-27,41
-36,-37,-8,34,-15,-17,-1,-48,2,23,-27,35
-30,-37,-8,34,-9,-17,-1,-48,-4,18,-27,35
-42,-43,-8,40,-21,-17,-1,-48,-4,12,-32,35
-54,-49,-2,52,-27,-17,5,-54,-10,12,-38,29
-66,-49,10,58,-39,-11,5,-54,-16,6,-44,29
-84,-61,16,70,-51,-17,11,-54,-22,0,-50,24
-102,-67,28,82,-69,-11,11,-54,-22,0,-56,18
-120,-73,40,94,-81,-11,29,-54,-22,6,-56,12
-126,-73,46,100,-87,-6,35,-54,-22,6,-56,12
-138,-79,52,106,-99,-6,41,-54,-22,6,-62,12
-138,-85,46,112,-93,-11,41,-54,-22,6,-62,6
-144,-85,52,112,-99,-11,47,-54,-22,6,-56,6
-144,-85,52,112,-99,-11,65,-54,-22,6,-56,6
-144,-85,52,112,-99,-11,71,-54,-10,6,-56,6
-144,-85,52,112,-99,-11,77,-48,-10,12,-56,6
-144,-79,58,112,-105,-6,83,-42,-10,6,-56,6
-150,-67,76,106,-117,0,101,-36,2,6,-56,6
-150,-61,82,106,-117,6,125,-18,8,6,-56,6
-156,-49,100,100,-129,18,155,-6,13,6,-56,6
-162,-55,100,106,-135,18,173,0,13,12,-56,6
-162,-55,100,106,-135,18,173,6,13,12,-56,6
-156,-73,76,112,-117,-6,155,12,19,23,-56,6
-144,-79,58,112,-105,-6,113,12,19,23,-50,6
-144,-73,64,106,-105,-6,83,6,19,23,-50,12
-144,-73,64,106,-105,-6,71,18,31,23,-44,12
-138,-73,58,106,-99,-6,59,12,25,23,-44,18
-132,-79,46,106,-93,-11,41,12,25,23,-38,18
-126,-91,28,106,-81,-23,35,18,19,23,-38,12
-120,-97,16,106,-69,-35,23,30,31,23,-32,18
-108,-109,-8,106,-51,-53,29,48,31,35,-32,12
-102,-115,-8,106,-45,-59,17,54,37,35,-32,18
-102,-115,-8,106,-45,-59,-1,42,37,47,-27,18
-96,-115,-13,106,-39,-65,-30,42,49,47,-27,29
-90,-127,-31,106,-27,-77,-36,66,67,53,-21,29
-84,-139,-49,112,-15,-95,-60,66,67,59,-15,29
-54,-115,-55,82,2,-83,-108,66,79,71,-3,29
-24,-103,-73,64,14,-89,-144,66,91,95,3,47
-12,-103,-85,58,26,-95,-174,72,115,125,21,59
-1,-97,-103,40,50,-95,-210,60,133,143,39,71
29,-85,-121,22,74,-101,-252,72,145,161,57,83
77,-91,-175,4,122,-131,-312,84,169,185,93,101
119,-91,-217,-7,164,-149,-402,48,169,197,105,113
155,-85,-247,-25,200,-161,-498,-24,145,197,105,125
185,-115,-301,-25,242,-209,-594,-89,91,167,105,125
203,-133,-337,-25,266,-233,-666,-185,31,131,93,119
233,-133,-367,-43,296,-245,-714,-287,-16,101,75,113
239,-121,-361,-49,296,-239,-744,-371,-82,71,51,107
251,-133,-391,-55,320,-257,-756,-467,-166,35,27,77
257,-157,-421,-43,338,-281,-774,-545,-238,0,-3,65
275,-163,-445,-49,356,-299,-786,-599,-286,-42,-21,59
287,-181,-475,-49,380,-323,-792,-641,-322,-72,-27,41
293,-199,-493,-43,392,-341,-816,-707,-382,-120,-56,41
323,-175,-499,-67,410,-335,-840,-779,-430,-132,-44,65
395,-145,-541,-121,470,-341,-912,-845,-454,-108,9,143
491,-115,-613,-187,548,-359,-1014,-971,-484,-72,87,239
623,-61,-691,-271,656,-371,-1122,-1079,-520,-24,189,341
737,16,-721,-379,734,-341,-1194,-1127,-508,29,273,437
845,82,-757,-463,800,-329,-1248,-1133,-478,95,357,515
941,100,-835,-517,890,-359,-1290,-1121,-442,167,441,593
1013,124,-889,-565,956,-377,-1332,-1109,-406,233,507,665
1079,190,-889,-631,980,-341,-1356,-1079,-364,269,579,737
1145,238,-901,-691,1022,-323,-1356,-1025,-298,329,639,809
1169,256,-907,-715,1034,-317,-1332,-977,-274,341,663,857
1145,268,-871,-709,1004,-293,-1272,-953,-304,287,609,851
1097,268,-823,-685,962,-269,-1224,-953,-382,191,531,803
1055,190,-865,-619,962,-329,-1182,-995,-496,23,375,683
971,-8,-973,-481,974,-485,-1116,-1043,-658,-216,123,461
815,-145,-967,-331,890,-551,-1020,-1085,-796,-414,-104,251
593,-157,-751,-217,674,-455,-882,-1091,-844,-486,-218,113
275,-103,-385,-79,326,-245,-654,-947,-748,-450,-242,41
-12,-37,-19,22,2,-29,-372,-701,-562,-336,-218,12
-138,-19,112,76,-129,42,-240,-527,-424,-258,-194,-12
-114,-37,70,76,-93,12,-210,-455,-358,-216,-176,0
-102,-37,58,70,-81,6,-174,-389,-298,-192,-146,0
-108,-43,58,76,-87,0,-126,-317,-238,-150,-140,0
-108,-43,58,76,-87,0,-96,-263,-196,-120,-128,-6
-102,-43,52,70,-81,0,-54,-197,-142,-78,-92,0
-102,-49,46,76,-75,-6,-18,-143,-100,-30,-68,18
-114,-49,58,82,-87,0,-1,-131,-82,-18,-62,18
-114,-37,70,76,-93,12,5,-131,-82,-24,-62,6
-126,-55,64,88,-99,0,23,-125,-82,-24,-74,-12
-144,-61,76,100,-111,0,29,-119,-82,-24,-74,-18
-162,-79,76,118,-123,-6,47,-95,-76,-24,-92,-30
-180,-85,88,130,-135,-6,59,-83,-58,-30,-98,-36
-180,-85,88,130,-135,-6,71,-65,-52,-30,-104,-42
-186,-79,100,130,-147,6,71,-59,-46,-30,-104,-42
-186,-79,100,130,-147,6,77,-54,-40,-24,-104,-42
-186,-79,100,130,-147,6,77,-54,-40,-24,-98,-42
-186,-79,100,130,-147,6,77,-54,-46,-18,-92,-36
-180,-79,94,130,-141,0,77,-59,-46,-18,-92,-36
-180,-79,94,130,-141,0,83,-59,-46,-6,-86,-30
-186,-85,94,136,-141,0,83,-59,-46,-6,-86,-30
-192,-91,94,142,-147,-6,95,-54,-34,-12,-80,-30
-192,-91,94,142,-147,-6,95,-54,-34,-6,-80,-30
-198,-91,100,142,-153,0,107,-42,-22,-12,-80,-30
-204,-91,106,148,-159,0,107,-36,-22,-12,-80,-30
-204,-79,118,142,-165,12,107,-30,-28,-6,-80,-30
-198,-79,112,136,-159,12,107,-30,-28,-6,-80,-30
-198,-73,118,136,-159,18,107,-36,-28,6,-80,-24
-198,-73,118,136,-159,18,113,-36,-28,6,-74,-24
-198,-73,118,136,-159,18,107,-36,-28,0,-74,-30
-198,-73,118,136,-159,18,107,-36,-28,0,-74,-24
-198,-73,118,136,-159,18,101,-30,-22,-6,-74,-30
-198,-73,118,136,-159,18,101,-30,-22,0,-74,-24
-192,-73,112,130,-153,12,107,-24,-22,0,-74,-24
-192,-73,112,130,-153,12,107,-18,-22,0,-74,-24
-186,-73,106,130,-147,12,119,-12,-16,0,-74,-24
-180,-67,106,124,-147,12,119,-12,-16,0,-74,-24
-186,-67,112,124,-153,18,113,-12,-10,0,-74,-24
-186,-67,112,124,-153,18,113,-12,-10,6,-74,-24
-192,-61,124,124,-159,24,107,-12,-10,6,-68,-30
-192,-61,124,124,-159,24,107,-12,-10,6,-68,-30
-192,-61,124,124,-159,24,113,-6,-4,6,-68,-24
-192,-55,130,124,-165,30,119,-6,-4,6,-68,-24
-192,-55,130,124,-165,30,125,-6,8,12,-68,-18
-192,-55,130,124,-165,30,125,-6,8,12,-62,-18
-186,-55,124,118,-159,30,125,0,8,18,-62,-18
-186,-55,124,118,-159,30,125,0,8,18,-62,-18
-180,-49,124,112,-153,30,131,6,13,23,-62,-18
-180,-49,124,112,-153,30,131,12,13,23,-62,-18
-180,-49,124,112,-153,30,131,12,13,23,-62,-18
-180,-49,124,112,-153,30,131,18,13,23,-56,-18
-174,-43,124,106,-153,36,131,24,8,23,-56,-24
-174,-43,124,106,-153,36,137,24,13,23,-56,-24
-180,-49,124,112,-153,30,137,36,13,23,-50,-18
-180,-43,130,112,-159,36,137,36,13,23,-50,-18
-186,-49,130,118,-159,36,143,36,13,23,-50,-18
-186,-49,130,118,-159,36,143,42,13,35,-50,-12
-180,-43,130,112,-159,36,137,42,25,35,-44,-6
-180,-43,130,112,-159,36,137,54,31,41,-44,-6
-174,-37,130,106,-153,42,137,60,37,41,-44,0
-174,-31,136,100,-159,48,137,66,37,41,-44,0
-174,-37,130,106,-153,42,143,72,37,41,-44,6
-174,-37,130,106,-153,42,143,78,49,41,-44,6
-180,-43,130,112,-159,36,155,84,49,47,-44,18
-180,-37,136,106,-159,42,155,90,55,47,-38,18
-180,-43,130,112,-159,36,161,96,55,53,-32,24
-174,-37,130,106,-153,42,161,102,61,53,-32,24
-174,-43,124,106,-153,36,161,108,67,65,-27,29
-168,-43,118,106,-147,30,173,114,73,77,-27,29
-162,-37,118,100,-141,36,167,120,79,77,-27,29
-162,-31,124,94,-147,42,173,126,91,83,-27,29
-156,-25,124,88,-141,42,173,144,97,83,-27,29
-156,-25,124,88,-141,42,173,144,103,83,-27,29
-156,-19,130,88,-147,48,185,162,115,95,-21,35
-156,-19,130,88,-147,48,185,180,121,101,-21,35
-156,-13,136,82,-147,54,191,186,139,107,-21,41
-150,-8,136,76,-147,60,191,192,139,113,-9,41
-150,-8,142,76,-147,66,197,204,151,125,-9,41
-150,-8,142,76,-147,66,203,222,163,131,-9,41
-144,-8,136,70,-141,60,203,234,169,137,-9,35
-144,-8,142,70,-141,66,203,246,181,143,-3,41
-144,-8,142,70,-141,66,221,258,199,149,9,47
-138,-8,136,64,-135,66,227,270,211,155,15,47
-132,-2,136,58,-135,66,239,294,223,161,21,47
-132,-2,136,58,-135,66,239,300,235,167,27,59
-120,-2,124,52,-123,60,239,318,241,179,33,59
-120,4,130,52,-123,66,245,330,253,185,39,59
-120,-2,124,52,-123,60,245,348,253,203,45,71
-120,-2,124,52,-123,60,245,360,259,215,51,71
-114,-2,118,52,-117,60,251,372,271,215,51,77
-114,4,124,46,-117,66,251,390,283,221,51,83
-102,4,112,40,-105,60,257,402,295,221,63,95
-96,4,106,40,-99,54,257,414,295,227,69,101
-90,16,112,28,-99,66,269,420,307,239,75,95
-84,16,106,28,-93,60,269,420,313,245,81,95
-84,22,112,22,-99,66,275,432,331,257,87,101
-78,22,106,22,-93,66,275,432,337,263,93,107
-72,28,106,16,-87,66,269,444,343,263,99,107
-66,28,100,10,-81,66,269,450,349,263,105,107
-60,28,94,10,-75,60,263,456,349,257,105,119
-54,34,94,4,-75,66,251,456,355,263,105,119
-54,28,88,4,-69,60,251,456,355,269,111,125
-42,28,76,4,-57,54,251,456,355,269,111,137
-36,22,64,4,-51,42,251,450,355,281,111,149
-30,22,58,4,-45,42,245,450,355,281,123,149
-24,22,52,4,-39,36,239,444,355,281,123,149
-18,28,52,4,-33,42,239,438,355,281,123,149
-18,28,52,4,-33,42,221,432,349,275,123,155
-12,28,46,-1,-27,36,215,426,343,269,123,155
-1,28,34,-7,-15,30,197,408,337,269,117,155
-1,28,28,-7,-9,30,185,396,331,263,123,161
5,28,16,-13,2,24,167,366,313,263,117,161
11,28,10,-19,2,24,155,348,307,257,111,161
17,22,-2,-19,2,12,143,324,289,245,111,167
23,22,-8,-19,8,12,119,300,259,233,111,167
29,16,-8,-19,20,0,107,282,253,227,105,173
35,16,-13,-25,26,0,89,258,235,221,99,173
41,16,-19,-25,32,-6,71,240,217,215,99,173
53,4,-43,-25,50,-11,65,222,205,203,93,173
59,4,-49,-31,56,-11,53,216,199,191,93,167
59,4,-49,-31,56,-11,41,198,187,179,93,167
65,4,-55,-31,62,-17,29,180,175,173,93,173
71,-2,-67,-31,68,-23,17,150,163,167,81,173
77,-2,-73,-37,74,-29,11,126,145,167,81,173
83,-2,-79,-37,80,-29,-1,102,139,161,75,173
83,-2,-79,-37,80,-29,-6,84,115,149,63,173
77,-2,-73,-37,74,-29,-12,72,103,143,63,173
77,4,-67,-37,74,-23,-18,66,85,131,51,167
71,4,-61,-37,68,-17,-36,54,73,119,45,161
71,-2,-67,-31,68,-23,-30,42,67,113,45,161
65,-2,-61,-31,62,-23,-30,42,55,107,39,161
65,-8,-79,-19,68,-41,-24,30,55,101,45,155
59,-8,-73,-19,62,-35,-24,24,49,101,45,149
53,-8,-61,-19,56,-29,-30,12,43,101,39,149
47,-8,-55,-13,50,-23,-30,6,37,95,33,143
41,-8,-55,-7,44,-29,-30,-6,31,83,27,143
35,-13,-55,-1,44,-29,-24,-12,25,77,21,143
23,-19,-49,4,32,-29,-24,-12,19,71,21,143
23,-19,-49,4,32,-29,-18,-12,19,65,15,137
5,-19,-31,4,14,-23,-18,-12,19,65,21,131
-1,-19,-25,4,8,-17,-12,-12,13,59,15,125
-1,-13,-13,4,2,-11,-12,-24,13,59,9,119
-1,-13,-8,4,2,-11,-12,-24,13,59,3,119
-6,-13,-8,10,2,-6,-1,-30,13,65,3,113
-24,-13,4,16,-15,-6,-1,-30,8,59,-3,113
-24,-19,-2,22,-15,-6,-1,-30,8,53,-9,107
-24,-19,-2,22,-15,-6,-1,-30,8,53,-15,107
-30,-19,4,22,-21,-6,-1,-30,8,41,-15,101
-36,-19,10,28,-27,-6,-1,-36,8,41,-15,101
-36,-37,-8,34,-15,-17,-1,-30,8,41,-15,101
-36,-37,-8,34,-15,-17,5,-30,-4,41,-21,95
-30,-43,-8,34,-9,-23,5,-24,-4,29,-21,95
-36,-43,-8,40,-15,-23,5,-24,-4,29,-21,95
-42,-37,-2,40,-21,-11,5,-24,-4,35,-27,89
-42,-37,-2,40,-21,-11,5,-30,-10,23,-27,83
-54,-31,16,40,-39,-6,5,-30,-10,23,-27,83
-54,-37,10,46,-33,-6,5,-30,-10,23,-27,83
-60,-43,10,52,-39,-11,5,-36,-16,23,-27,77
-60,-43,10,52,-39,-11,5,-36,-16,23,-27,77
-60,-49,4,52,-33,-17,5,-48,-16,23,-27,71
-60,-49,4,52,-33,-17,5,-48,-16,23,-27,65
-66,-43,16,52,-45,-6,5,-48,-22,23,-32,65
-66,-49,10,58,-39,-11,5,-48,-22,23,-32,65
-66,-43,16,52,-45,-6,11,-48,-28,23,-32,65
-66,-43,16,52,-45,-6,11,-48,-34,23,-32,65
-66,-43,16,52,-45,-6,11,-42,-28,23,-32,59
-66,-43,16,52,-45,-6,11,-42,-28,23,-32,59
-66,-43,16,52,-45,-6,11,-36,-22,23,-32,59
-72,-43,22,58,-51,-6,11,-36,-22,23,-32,59
-78,-49,22,64,-51,-6,11,-42,-28,23,-38,65
-78,-49,22,64,-51,-6,11,-42,-28,23,-38,65
-84,-55,22,70,-57,-11,11,-48,-28,23,-38,65
-84,-55,22,70,-57,-11,11,-48,-28,23,-38,65
-78,-49,22,64,-51,-6,17,-42,-22,23,-38,65
-78,-55,16,64,-51,-11,17,-36,-28,23,-38,65
-72,-49,16,58,-45,-11,17,-30,-22,18,-32,65
-72,-49,16,58,-45,-11,17,-30,-22,18,-32,65
-72,-49,16,58,-45,-11,17,-30,-22,23,-32,59
-72,-49,16,58,-45,-11,17,-30,-16,23,-32,65
-72,-55,10,64,-45,-17,17,-36,-16,23,-38,59
-72,-49,16,58,-45,-11,17,-36,-16,23,-38,59
-78,-43,28,58,-57,-6,17,-36,-16,23,-38,53
-78,-43,28,58,-57,-6,17,-36,-16,23,-38,53
-84,-37,40,58,-63,-6,17,-30,-10,23,-32,47
-84,-37,40,58,-63,-6,23,-24,-10,23,-32,47
-84,-43,34,64,-63,-6,23,-30,-10,23,-32,47
-84,-43,34,64,-63,-6,23,-30,-10,23,-32,47
-84,-43,34,64,-63,-6,17,-36,-10,23,-32,47
-84,-43,34,64,-63,-6,17,-36,-4,23,-32,53
-78,-43,28,58,-57,-6,23,-36,-4,23,-38,53
-78,-43,28,58,-57,-6,23,-36,-4,23,-32,53
-72,-37,28,52,-51,-6,23,-36,-4,23,-38,53
-72,-31,34,52,-57,-6,23,-36,-4,23,-38,53
-72,-31,34,52,-57,-6,23,-36,-4,23,-32,59
-72,-31,34,52,-57,-6,23,-30,-4,23,-32,59
-78,-37,34,58,-57,-6,23,-30,2,29,-27,65
-84,-37,40,58,-63,-6,23,-30,2,29,-27,65
-78,-37,34,58,-57,-6,23,-24,2,23,-27,65
-78,-37,34,58,-57,-6,23,-24,8,23,-27,65
-66,-37,22,52,-45,-6,23,-18,8,23,-27,65
-66,-37,22,52,-45,-6,23,-18,8,23,-27,65
-66,-43,16,52,-45,-6,23,-24,2,23,-27,65
-72,-37,28,52,-51,-6,23,-24,2,23,-27,65
-72,-43,22,58,-51,-6,23,-30,-4,23,-27,65
-72,-43,22,58,-51,-6,23,-30,-4,23,-27,65
-78,-37,34,58,-57,-6,23,-30,-4,23,-27,65
-78,-37,34,58,-57,-6,23,-30,-4,23,-27,65
-84,-25,52,52,-69,6,23,-30,-4,23,-27,65
-84,-25,52,52,-69,6,23,-30,-4,23,-27,65
-84,-25,52,52,-69,6,23,-24,-4,23,-27,65
-84,-31,46,58,-69,0,23,-24,-4,23,-27,65
-84,-31,46,58,-69,0,23,-18,-4,23,-27,65
-84,-31,46,58,-69,0,23,-18,-4,29,-27,65
-84,-25,52,52,-69,6,23,-24,-4,29,-27,65
-84,-25,52,52,-69,6,23,-24,-4,23,-27,65
-84,-25,52,52,-69,6,23,-24,-4,23,-27,65
-84,-31,46,58,-69,0,23,-24,-4,23,-27,65
-84,-37,40,58,-63,-6,23,-18,-4,23,-27,59
-84,-37,40,58,-63,-6,23,-24,-4,23,-27,59
-84,-43,34,64,-63,-6,23,-18,2,23,-27,59
-84,-43,34,64,-63,-6,23,-18,2,18,-27,59
-84,-37,40,58,-63,-6,23,-24,-4,18,-32,59
-84,-37,40,58,-63,-6,23,-24,-4,18,-32,59
-84,-31,46,58,-69,0,23,-30,-10,18,-44,59
-84,-31,46,58,-69,0,23,-30,-10,18,-44,59
-84,-25,52,52,-69,6,23,-36,-10,12,-44,53
-84,-25,52,52,-69,6,23,-36,-10,12,-44,53
-84,-31,46,58,-69,0,23,-36,-4,12,-44,47
-90,-31,52,58,-75,6,23,-30,-4,12,-44,47
-90,-31,52,58,-75,6,29,-30,-10,12,-50,53
-90,-31,52,58,-75,6,29,-30,-10,12,-50,53
-90,-31,52,58,-75,6,35,-30,-16,12,-50,59
-90,-37,46,64,-69,0,35,-36,-16,12,-50,59
-84,-31,46,58,-69,0,29,-36,-22,12,-50,53
-84,-31,46,58,-69,0,23,-36,-22,12,-50,53
-90,-25,58,58,-75,12,17,-36,-22,12,-50,53
-90,-25,58,58,-75,12,23,-42,-22,12,-56,53
-84,-31,46,58,-69,0,23,-42,-22,12,-50,53
-90,-31,52,58,-75,6,23,-42,-22,12,-50,53
-84,-37,40,58,-63,-6,23,-42,-22,12,-38,47
-78,-37,34,58,-57,-6,23,-48,-22,12,-38,47
-84,-31,46,58,-69,0,23,-48,-22,12,-50,47
-90,-31,52,58,-75,6,23,-48,-22,12,-50,47
-102,-25,70,64,-87,18,23,-48,-22,12,-56,41
-114,-25,82,70,-99,24,23,-48,-22,12,-56,41
-108,-31,70,70,-93,12,23,-48,-22,6,-56,41
-108,-31,70,70,-93,12,23,-48,-28,6,-56,41
-102,-37,58,70,-81,6,23,-54,-22,-6,-62,41
-96,-37,52,64,-75,0,23,-54,-22,-12,-62,41
-96,-37,52,64,-75,0,23,-48,-22,-6,-56,41
-96,-37,52,64,-75,0,23,-48,-22,-12,-56,41
-96,-37,52,64,-75,0,23,-48,-22,-6,-62,41
-96,-37,52,64,-75,0,23,-54,-22,-6,-68,35
-96,-37,52,64,-75,0,23,-54,-22,6,-56,35
-102,-37,58,70,-81,6,29,-48,-28,-6,-56,35
-102,-37,58,70,-81,6,23,-54,-28,-6,-56,35
-102,-37,58,70,-81,6,23,-54,-28,-6,-56,35
-102,-37,58,70,-81,6,17,-54,-28,-6,-56,35
-102,-37,58,70,-81,6,17,-54,-28,-6,-56,35
-102,-37,58,70,-81,6,23,-54,-28,-6,-62,35
-102,-37,58,70,-81,6,23,-54,-28,-6,-62,35
-102,-31,64,64,-87,12,29,-48,-28,-6,-62,35
-102,-25,70,64,-87,18,29,-48,-28,-6,-62,29
-96,-19,70,58,-87,18,41,-48,-22,-6,-62,35
-96,-19,70,58,-87,18,41,-48,-22,-6,-62,35
-90,-13,70,52,-81,24,47,-42,-16,-6,-62,47
-84,-8,70,46,-81,24,53,-36,-16,0,-56,47
-72,-8,70,34,-69,30,59,-24,-10,6,-44,53
-72,-8,70,34,-69,30,59,-24,-10,6,-44,59
-66,-8,64,28,-63,30,59,-18,2,12,-38,65
-60,4,70,22,-63,36,71,-6,8,23,-27,71
-54,10,70,16,-63,42,95,18,13,23,-27,83
-48,22,76,4,-63,48,107,30,25,29,-21,89
-48,22,76,4,-63,48,125,48,37,35,-15,89
-42,28,76,4,-57,54,125,54,37,41,-9,95
-36,40,82,4,-57,60,125,54,49,47,-9,89
-36,46,88,4,-63,66,137,60,55,53,-3,95
-24,52,82,-7,-51,66,137,66,61,59,-3,95
-24,52,82,-7,-51,66,143,72,67,65,-3,95
-30,52,88,-1,-57,72,149,84,73,77,-3,101
-30,52,88,-1,-57,72,149,84,79,77,3,101
-36,46,88,4,-63,66,131,78,79,83,3,107
-24,46,76,-1,-51,60,119,78,79,83,9,107
-6,40,52,-7,-27,48,95,78,73,83,9,101
-1,22,28,-1,-15,24,83,78,73,83,9,107
-1,10,10,-1,-3,12,59,66,67,77,9,101
-1,-2,-2,4,2,0,41,54,55,71,9,95
-1,-2,-2,4,2,0,29,36,43,59,3,95
-1,-8,-8,4,2,-6,11,24,37,53,-9,89
-1,-8,-2,4,2,-6,11,6,25,41,-21,89
-1,-13,-8,4,2,-11,5,0,13,35,-21,89
-12,-13,-8,10,-3,-6,-1,-18,8,23,-27,77
-18,-13,-2,16,-9,-6,-1,-36,-10,18,-32,71
-18,-8,4,10,-15,-6,-1,-48,-16,0,-38,65
-18,-8,4,10,-15,-6,-1,-54,-16,0,-44,59
-18,-13,-2,16,-9,-6,-1,-54,-16,-6,-44,59
-18,-13,-2,16,-9,-6,-6,-54,-16,-6,-44,65
-18,-19,-8,16,-9,-6,-6,-48,-10,0,-44,65
-18,-13,-2,16,-9,-6,-6,-48,-10,0,-44,65
-18,-13,-2,16,-9,-6,-6,-54,-22,0,-44,65
-18,-13,-2,16,-9,-6,-6,-54,-22,-12,-44,59
-18,-19,-8,16,-9,-6,-1,-54,-28,-18,-50,59
-30,-31,-8,28,-15,-11,-1,-54,-28,-24,-56,59
-42,-31,4,34,-27,-6,-1,-65,-34,-24,-68,53
-60,-31,22,46,-45,-6,-1,-71,-40,-30,-74,47
-78,-37,34,58,-57,-6,-1,-77,-46,-36,-86,35
-102,-43,52,70,-81,0,-1,-77,-46,-36,-92,29
-114,-43,64,76,-93,6,11,-77,-52,-36,-86,29
-120,-43,70,82,-99,6,17,-77,-52,-36,-86,29
-126,-43,76,82,-105,12,17,-77,-58,-42,-86,35
-126,-49,70,88,-99,6,17,-77,-58,-42,-86,29
-126,-49,70,88,-99,6,35,-59,-52,-42,-80,29
-126,-49,70,88,-99,6,53,-54,-46,-42,-80,29
-120,-49,64,82,-93,0,71,-54,-28,-42,-80,29
-120,-49,64,82,-93,0,77,-48,-22,-36,-80,29
-120,-43,70,82,-99,6,83,-42,-28,-36,-80,29
-126,-37,82,82,-105,18,101,-36,-16,-36,-80,29
-126,-31,88,76,-111,24,125,-18,-16,-30,-80,29
-132,-25,100,76,-117,30,155,-6,-10,-30,-80,29
-132,-31,94,82,-117,24,155,-6,-10,-30,-74,29
-132,-31,94,82,-117,24,149,0,-4,-30,-74,29
-120,-49,64,82,-93,0,113,0,-4,-24,-68,29
-108,-55,46,82,-81,-6,65,0,-4,-24,-62,29
-102,-61,34,82,-69,-6,47,0,8,-18,-62,35
-102,-61,34,82,-69,-6,41,12,13,-18,-56,35
-90,-73,10,82,-51,-23,41,12,13,-12,-56,41
-84,-79,-2,82,-45,-35,29,12,13,-12,-50,41
-84,-85,-8,82,-39,-41,17,24,19,-6,-44,47
-78,-91,-8,82,-33,-47,5,36,31,12,-38,53
-72,-97,-19,82,-21,-59,5,60,43,23,-32,59
-66,-103,-31,82,-15,-65,-1,66,49,23,-32,65
-66,-91,-19,76,-21,-53,-12,54,49,23,-32,53
-60,-67,-8,64,-27,-35,-30,54,49,23,-32,53
-54,-67,-8,58,-21,-35,-24,66,67,29,-27,65
-48,-91,-37,70,-3,-65,-36,66,91,47,-15,83
-30,-91,-55,58,2,-71,-72,78,91,71,9,89
-12,-79,-61,46,14,-71,-108,78,115,95,27,107
-1,-67,-61,34,20,-65,-150,84,127,113,33,119
-1,-73,-79,28,38,-71,-198,72,133,119,51,119
29,-61,-97,10,62,-77,-234,84,169,137,69,143
77,-67,-151,4,110,-107,-276,84,181,161,81,161
119,-67,-193,-19,152,-125,-366,48,169,161,81,173
155,-85,-247,-25,200,-161,-456,-12,157,161,93,185
185,-103,-289,-31,236,-197,-522,-89,91,131,81,185
215,-109,-325,-43,266,-215,-594,-197,19,83,45,167
221,-121,-343,-43,278,-233,-654,-293,-40,65,39,161
227,-133,-361,-37,290,-245,-702,-383,-106,35,39,167
239,-133,-379,-49,308,-251,-714,-479,-190,0,15,149
257,-157,-421,-43,338,-281,-738,-557,-250,-48,-3,137
275,-187,-469,-37,368,-323,-762,-575,-286,-66,-21,131
275,-193,-475,-37,374,-329,-768,-605,-310,-84,-27,137
281,-199,-487,-37,380,-335,-768,-659,-346,-108,-32,137
299,-199,-499,-43,398,-347,-804,-731,-370,-120,-9,173
383,-145,-529,-115,458,-335,-876,-809,-406,-96,57,251
515,-79,-601,-217,554,-335,-990,-935,-454,-60,147,353
659,-37,-703,-301,680,-365,-1086,-1031,-484,0,267,473
797,4,-787,-403,794,-383,-1170,-1055,-466,77,393,599
905,70,-829,-481,866,-371,-1236,-1085,-448,167,483,707
983,112,-871,-547,932,-371,-1302,-1121,-430,215,567,791
1061,148,-913,-601,986,-377,-1344,-1097,-382,275,651,887
1127,190,-937,-655,1028,-365,-1368,-1055,-328,329,705,959
1145,238,-901,-691,1022,-323,-1356,-1037,-322,305,705,989
1121,280,-835,-703,974,-269,-1308,-1001,-346,251,651,977
1073,244,-823,-661,950,-281,-1236,-989,-412,113,525,899
977,106,-871,-541,926,-377,-1158,-1013,-544,-96,285,701
845,-37,-889,-397,866,-461,-1050,-1049,-712,-348,9,449
641,-115,-757,-253,698,-437,-930,-1079,-820,-504,-164,263
335,-121,-463,-103,398,-287,-708,-1007,-820,-528,-248,131
17,-61,-85,16,50,-71,-426,-785,-670,-456,-266,53
-126,-31,88,76,-111,24,-240,-593,-502,-366,-242,29
-132,-37,88,82,-111,18,-198,-515,-412,-300,-206,29
-126,-31,88,76,-111,24,-180,-467,-340,-258,-182,35
-126,-13,106,70,-117,42,-150,-407,-286,-228,-176,35
-114,-25,82,70,-99,24,-126,-341,-238,-204,-170,29
-96,-19,70,58,-87,18,-90,-275,-196,-174,-152,29
-96,-8,94,46,-93,42,-48,-203,-148,-132,-116,41
-90,-8,88,40,-87,42,-18,-149,-118,-102,-92,47
-90,-13,70,52,-81,24,-1,-131,-100,-90,-80,53
-102,-25,70,64,-87,18,17,-119,-94,-78,-74,53
-114,-37,70,76,-93,12,29,-119,-94,-72,-74,53
-126,-49,70,88,-99,6,41,-119,-82,-72,-86,35
-138,-49,82,94,-111,12,47,-113,-76,-72,-86,29
-156,-61,88,106,-123,6,59,-95,-58,-72,-104,29
-168,-61,100,112,-135,12,71,-83,-34,-78,-110,24
-162,-55,100,106,-135,18,83,-65,-40,-78,-110,18
-162,-49,106,106,-135,24,77,-59,-34,-78,-110,18
-156,-43,106,100,-135,24,83,-54,-40,-72,-104,18
-150,-43,100,94,-129,24,77,-54,-40,-72,-98,18
-150,-49,94,100,-123,18,83,-54,-40,-72,-98,24
-144,-49,88,94,-117,12,83,-59,-40,-72,-98,24
-144,-55,82,100,-117,6,95,-59,-34,-66,-98,29
-150,-61,82,106,-117,6,95,-59,-34,-66,-98,29
-156,-61,88,106,-123,6,101,-54,-28,-66,-98,29
-156,-61,88,106,-123,6,101,-54,-28,-60,-98,29
-162,-55,100,106,-135,18,107,-54,-22,-60,-104,29
-168,-55,106,112,-141,18,107,-54,-22,-60,-104,29
-162,-43,112,100,-141,30,101,-54,-22,-60,-104,29
-156,-43,106,100,-135,24,101,-54,-22,-60,-104,29
-150,-37,106,94,-129,30,95,-54,-16,-54,-104,29
-150,-37,106,94,-129,30,101,-54,-16,-54,-98,29
-150,-37,106,94,-129,30,101,-54,-16,-54,-92,29
-150,-37,106,94,-129,30,101,-54,-16,-54,-92,29
-150,-37,106,94,-129,30,101,-42,-10,-54,-86,29
-150,-37,106,94,-129,30,101,-42,-10,-48,-86,29
-156,-37,112,94,-135,30,107,-42,-10,-42,-86,29
-156,-37,112,94,-135,30,107,-36,-10,-42,-86,29
-162,-37,118,100,-141,36,119,-36,-4,-36,-86,29
-156,-31,118,94,-141,36,119,-36,-4,-36,-86,29
-150,-37,106,94,-129,30,113,-36,2,-42,-86,29
-150,-37,106,94,-129,30,113,-36,2,-36,-86,29
-144,-37,100,88,-123,24,107,-36,2,-42,-80,29
-144,-37,100,88,-123,24,107,-36,2,-42,-80,29
-144,-31,106,88,-129,30,107,-30,2,-48,-80,29
-144,-25,112,82,-129,36,113,-30,2,-48,-80,29
-144,-19,118,82,-135,42,113,-30,8,-48,-80,29
-144,-19,118,82,-135,42,113,-30,8,-48,-74,29
