,,,,,,,,,,,
2019-09-04 23:51:30,,,,,,,,,,,
,,,,,,,,,,,
I,II,III,aVR,aVL,aVF,V1,V2,V3,V4,V5,V6
-28,-128,-100,78,35,-113,4,-186,-159,-147,-117,-83
-34,-122,-88,72,23,-107,-2,-192,-165,-159,-129,-89
-46,-128,-82,84,17,-107,-2,-198,-165,-165,-129,-89
-52,-134,-82,90,11,-107,-2,-204,-165,-165,-129,-95
-52,-128,-76,90,11,-101,4,-204,-171,-171,-135,-95
-52,-128,-76,90,11,-101,4,-210,-171,-165,-129,-101
-58,-122,-64,84,-1,-95,4,-216,-171,-165,-129,-95
-64,-122,-58,90,-6,-89,4,-210,-171,-159,-135,-95
-70,-128,-58,96,-6,-95,4,-204,-165,-153,-129,-95
-70,-122,-52,90,-11,-89,15,-198,-159,-147,-123,-83
-70,-116,-46,90,-11,-83,15,-186,-147,-135,-111,-71
-70,-104,-34,84,-17,-71,20,-174,-135,-117,-99,-60
-76,-80,-5,78,-35,-41,26,-162,-123,-105,-87,-55
-76,-68,6,72,-41,-29,38,-138,-105,-87,-75,-37
-88,-62,24,72,-59,-17,50,-126,-87,-75,-57,-25
-94,-50,42,66,-71,-7,62,-108,-69,-63,-46,-19
-94,-38,54,60,-77,5,74,-90,-52,-51,-35,-7
-106,-26,78,60,-95,23,80,-78,-47,-39,-23,-1
-112,-21,90,66,-101,35,86,-60,-35,-27,-11,11
-112,-16,96,66,-101,41,104,-48,-23,-15,-5,17
-118,2,120,54,-119,59,110,-30,-5,3,1,29
-118,14,132,48,-125,71,122,-12,13,21,7,47
-118,44,162,36,-137,101,128,6,25,33,25,53
-118,62,180,24,-149,119,134,24,43,49,49,65
-106,86,192,8,-149,137,146,48,67,61,73,83
-106,110,216,-4,-161,161,152,70,97,85,97,101
-100,128,228,-10,-161,179,164,106,127,109,121,119
-100,146,246,-22,-173,197,176,148,169,139,151,131
-100,170,270,-34,-185,221,200,196,211,169,181,155
-100,182,282,-40,-191,233,230,256,259,205,205,173
-100,206,306,-52,-203,257,260,322,307,241,229,197
-106,236,342,-64,-221,287,302,400,361,283,259,221
-118,272,390,-76,-251,329,362,478,421,331,289,245
-142,320,462,-88,-299,389,428,556,481,373,319,269
-160,374,534,-106,-347,455,500,658,559,433,373,311
-166,446,612,-142,-389,527,572,772,667,523,445,365
-178,536,714,-178,-443,623,632,898,793,625,541,437
-184,632,816,-220,-497,725,686,1030,925,745,649,533
-190,740,930,-274,-557,833,740,1168,1063,883,781,647
-190,860,1050,-334,-617,953,794,1306,1207,1027,919,773
-184,1004,1188,-406,-683,1097,848,1438,1363,1201,1087,929
-172,1166,1338,-496,-755,1253,884,1540,1519,1393,1279,1103
-148,1328,1476,-586,-809,1403,920,1636,1687,1597,1483,1283
-124,1478,1602,-676,-863,1541,938,1690,1843,1795,1681,1457
-88,1592,1680,-748,-881,1637,938,1702,1981,1975,1867,1607
-40,1682,1722,-820,-881,1703,902,1684,2101,2137,2035,1745
-17,1760,1776,-868,-893,1769,860,1600,2167,2263,2167,1853
-22,1832,1854,-904,-935,1841,812,1456,2179,2341,2245,1925
-40,1886,1926,-922,-983,1907,728,1252,2125,2353,2251,1949
-70,1856,1926,-892,-995,1889,650,1030,2005,2275,2173,1883
-88,1736,1824,-820,-953,1781,578,826,1843,2119,2011,1745
-106,1556,1662,-724,-881,1607,500,628,1645,1909,1795,1553
-130,1346,1476,-610,-803,1409,416,400,1375,1615,1513,1313
-166,1136,1302,-484,-731,1217,338,160,1045,1291,1207,1067
-202,926,1128,-364,-665,1025,260,-66,715,967,913,833
-226,746,972,-262,-599,857,176,-240,445,691,655,623
-244,578,822,-166,-533,701,86,-366,241,475,445,443
-250,428,678,-88,-461,551,15,-456,85,301,289,299
-250,302,552,-28,-401,425,-44,-522,-47,163,157,191
-238,194,432,19,-335,311,-86,-564,-129,61,67,107
-226,104,330,60,-275,215,-122,-570,-201,-21,-5,47
-202,32,234,84,-215,131,-140,-564,-243,-81,-51,-1
-184,-32,150,108,-167,59,-134,-540,-273,-117,-87,-37
-160,-74,84,114,-125,5,-128,-504,-285,-153,-117,-60
-142,-110,30,120,-89,-41,-116,-462,-291,-165,-129,-77
-124,-140,-16,132,-53,-77,-98,-414,-279,-183,-147,-95
-112,-152,-40,132,-35,-95,-86,-366,-261,-195,-153,-107
-100,-158,-58,126,-23,-107,-68,-324,-243,-195,-159,-113
-94,-164,-70,126,-11,-119,-44,-288,-219,-189,-153,-113
-88,-158,-70,120,-11,-113,-32,-264,-195,-183,-147,-107
-76,-152,-76,114,-1,-113,-20,-252,-183,-171,-141,-101
-70,-146,-76,102,-1,-113,-20,-246,-177,-165,-135,-95
-70,-146,-76,102,-1,-113,-20,-240,-177,-165,-135,-95
-64,-146,-82,102,5,-113,-20,-234,-177,-165,-141,-101
-58,-140,-82,96,11,-113,-20,-228,-183,-165,-141,-107
-58,-140,-82,96,11,-113,-20,-216,-183,-177,-153,-107
-52,-140,-88,96,17,-113,-20,-204,-183,-183,-153,-113
-52,-146,-94,96,17,-119,-14,-198,-177,-183,-159,-113
-46,-158,-112,96,29,-137,-8,-192,-177,-183,-159,-113
-46,-152,-106,96,29,-131,-8,-192,-177,-183,-153,-107
-52,-152,-100,102,23,-125,-8,-192,-171,-171,-147,-101
-52,-158,-106,102,23,-131,-8,-186,-171,-171,-147,-89
-46,-152,-106,96,29,-131,-14,-186,-171,-171,-147,-89
-46,-146,-100,90,23,-125,-14,-186,-171,-171,-147,-95
-46,-158,-112,96,29,-137,-8,-174,-165,-165,-147,-95
-46,-158,-112,96,29,-137,-2,-168,-165,-165,-147,-95
-40,-164,-124,102,41,-143,-2,-162,-165,-165,-147,-95
-40,-158,-118,96,35,-137,-2,-156,-165,-165,-147,-107
-34,-158,-124,90,41,-143,-8,-162,-165,-171,-153,-101
-34,-152,-118,90,41,-137,-8,-162,-165,-171,-147,-101
-34,-152,-118,90,41,-137,-8,-162,-159,-171,-147,-95
-28,-140,-112,84,41,-125,-8,-162,-159,-165,-147,-101
-28,-128,-100,78,35,-113,-8,-162,-165,-171,-147,-101
-28,-128,-100,78,35,-113,-14,-162,-165,-171,-147,-95
-28,-128,-100,78,35,-113,-14,-156,-165,-171,-147,-89
-22,-134,-112,72,41,-125,-14,-150,-153,-165,-135,-83
-22,-140,-118,78,47,-131,-14,-150,-153,-165,-129,-83
-22,-140,-118,78,47,-131,-14,-150,-153,-159,-123,-77
-22,-152,-130,84,53,-143,-14,-144,-147,-153,-123,-77
-22,-158,-136,84,53,-149,-8,-144,-147,-153,-123,-77
-22,-158,-136,84,53,-149,-8,-144,-147,-153,-123,-83
-22,-158,-136,84,53,-149,-14,-144,-147,-153,-129,-83
-28,-152,-124,90,47,-137,-14,-144,-147,-153,-129,-83
-22,-140,-118,78,47,-131,-20,-138,-153,-159,-135,-83
-22,-134,-112,72,41,-125,-26,-138,-159,-153,-129,-77
-17,-134,-118,72,47,-125,-32,-138,-153,-153,-129,-77
-17,-128,-112,72,47,-119,-38,-138,-153,-147,-123,-71
-17,-128,-112,72,47,-119,-38,-138,-147,-147,-123,-71
-12,-128,-118,72,53,-119,-38,-138,-141,-147,-117,-71
-12,-128,-118,72,53,-119,-44,-132,-141,-147,-117,-71
-12,-134,-124,72,53,-125,-44,-132,-141,-141,-111,-71
-12,-140,-130,78,59,-131,-50,-120,-135,-135,-105,-71
-6,-140,-136,72,65,-137,-50,-114,-129,-129,-99,-65
0,-152,-154,78,77,-149,-44,-114,-129,-129,-99,-65
0,-140,-142,72,71,-137,-44,-108,-129,-129,-99,-65
6,-140,-148,66,77,-143,-44,-108,-123,-123,-93,-60
12,-152,-166,72,89,-155,-38,-102,-117,-117,-87,-55
12,-146,-160,66,83,-149,-44,-96,-117,-117,-87,-55
12,-128,-142,60,77,-131,-50,-102,-117,-117,-93,-55
12,-128,-142,60,77,-131,-56,-102,-111,-117,-87,-55
18,-116,-136,48,77,-125,-62,-96,-111,-117,-87,-55
24,-116,-142,48,83,-125,-62,-96,-105,-117,-81,-60
30,-116,-148,42,89,-131,-68,-90,-99,-111,-75,-60
36,-122,-160,42,95,-137,-74,-90,-99,-105,-75,-55
42,-116,-160,36,101,-137,-74,-90,-99,-105,-69,-55
54,-116,-172,30,113,-143,-80,-84,-93,-99,-69,-49
60,-110,-172,24,113,-137,-80,-84,-87,-93,-63,-43
60,-104,-166,24,113,-131,-86,-78,-87,-93,-63,-37
66,-98,-166,14,113,-131,-86,-72,-87,-87,-57,-37
72,-98,-172,14,119,-131,-92,-66,-81,-81,-51,-31
72,-98,-172,14,119,-131,-104,-66,-81,-81,-46,-25
84,-98,-184,8,131,-137,-110,-60,-75,-75,-46,-25
90,-104,-196,8,143,-149,-116,-60,-69,-63,-35,-19
96,-98,-196,2,143,-143,-122,-60,-63,-51,-23,-7
102,-92,-196,-4,149,-143,-128,-54,-57,-45,-17,-1
108,-86,-196,-10,149,-137,-134,-48,-52,-39,-5,5
120,-80,-202,-16,161,-137,-140,-42,-47,-33,1,11
120,-68,-190,-22,155,-125,-152,-36,-41,-33,7,23
126,-56,-184,-34,155,-119,-158,-30,-35,-27,19,23
138,-50,-190,-46,161,-119,-170,-24,-29,-15,25,35
144,-38,-184,-52,161,-107,-176,-18,-17,-3,37,47
156,-38,-196,-58,173,-113,-182,-6,-5,9,49,59
168,-32,-202,-64,185,-113,-188,0,7,21,67,83
174,-26,-202,-76,185,-113,-194,18,25,39,79,101
180,-21,-202,-76,191,-107,-206,24,37,49,97,113
192,-21,-214,-82,203,-113,-218,36,55,67,115,131
198,-10,-208,-94,203,-107,-224,42,67,79,127,149
204,2,-202,-100,203,-95,-236,53,79,103,151,161
216,14,-202,-112,209,-89,-242,58,97,121,169,179
222,26,-196,-124,209,-83,-248,70,109,133,187,191
228,38,-190,-130,209,-71,-260,76,127,151,205,203
234,50,-184,-142,209,-65,-260,94,145,163,223,227
240,68,-172,-148,209,-47,-272,106,157,181,241,245
246,80,-166,-160,209,-41,-284,118,175,193,259,257
252,86,-166,-166,209,-35,-290,136,193,217,277,281
258,98,-160,-178,209,-29,-302,148,205,235,295,293
264,116,-148,-184,209,-12,-308,154,223,247,307,305
276,128,-148,-196,215,-7,-314,166,235,265,325,317
282,140,-142,-208,215,-1,-320,172,253,277,343,335
282,152,-130,-214,209,11,-314,178,265,289,361,341
288,164,-124,-220,209,23,-320,190,283,307,379,359
294,176,-118,-232,209,29,-326,196,295,319,391,371
294,188,-106,-238,203,41,-326,208,307,337,409,389
294,206,-88,-250,191,59,-326,220,319,349,421,395
294,218,-76,-256,185,71,-332,232,325,361,433,407
294,224,-70,-256,185,77,-332,238,337,379,451,425
294,230,-64,-262,179,83,-332,250,349,391,463,431
294,236,-58,-262,179,89,-326,256,355,403,475,443
294,248,-46,-268,173,101,-326,262,361,409,481,449
294,260,-34,-274,167,113,-320,274,373,421,487,449
288,260,-28,-268,161,119,-320,280,379,433,493,449
282,260,-22,-268,155,119,-314,286,391,433,493,455
276,266,-10,-268,143,131,-308,292,391,433,499,455
270,260,-10,-262,143,125,-302,304,397,433,499,455
264,260,-5,-256,137,131,-290,298,391,427,493,455
258,266,6,-262,125,137,-284,298,385,421,481,443
246,266,18,-256,113,143,-266,298,385,415,475,437
240,260,18,-244,113,143,-248,292,379,409,463,419
222,254,30,-238,95,143,-230,286,367,391,445,407
210,242,30,-226,89,137,-218,286,349,379,421,389
198,230,30,-214,83,131,-200,280,337,361,403,365
186,218,30,-202,77,125,-188,274,325,343,385,347
174,200,24,-184,77,113,-170,262,307,325,367,329
162,182,18,-172,71,101,-152,250,289,307,343,305
150,176,24,-160,65,101,-140,238,271,289,319,275
138,158,18,-148,59,89,-116,220,253,265,295,257
126,146,18,-136,53,83,-104,202,235,241,271,239
108,134,24,-118,41,83,-92,196,217,217,247,215
96,116,18,-100,41,71,-80,184,199,193,229,203
84,104,18,-88,35,65,-62,166,181,169,199,185
72,92,18,-76,29,59,-50,160,157,145,169,161
60,74,12,-64,23,47,-32,142,139,133,145,149
54,62,6,-58,23,35,-26,130,121,115,121,131
42,56,12,-46,17,35,-14,112,91,97,97,107
30,50,18,-40,5,35,-8,88,67,73,79,83
18,38,18,-28,-1,29,-2,64,49,49,55,65
12,14,0,-10,5,11,10,53,37,33,43,47
0,-4,-5,8,5,-1,15,48,31,21,37,35
-12,-10,0,14,-6,-1,20,42,19,15,25,29
-17,-16,0,19,-6,-7,20,36,13,3,7,17
-28,-16,12,24,-17,-1,26,24,1,-9,-5,-1
-34,-21,12,24,-23,-7,26,12,-11,-21,-17,-7
-34,-21,12,24,-23,-7,32,12,-23,-27,-29,-25
-40,-26,12,30,-29,-7,44,0,-29,-39,-41,-37
-46,-38,6,36,-29,-17,50,-18,-41,-51,-46,-49
-52,-44,6,48,-29,-17,50,-24,-52,-57,-51,-55
-52,-56,-5,54,-23,-29,50,-30,-52,-69,-63,-60
-58,-62,-5,54,-29,-35,44,-42,-57,-75,-69,-65
-64,-62,0,60,-35,-29,44,-48,-69,-81,-81,-65
-70,-68,0,66,-35,-35,44,-54,-75,-87,-87,-71
-70,-68,0,66,-35,-35,44,-60,-75,-87,-87,-71
-76,-74,0,72,-41,-35,38,-60,-75,-87,-93,-77
-76,-74,0,72,-41,-35,44,-66,-81,-93,-93,-77
-82,-74,6,72,-47,-35,44,-66,-81,-99,-99,-77
-82,-74,6,72,-47,-35,44,-66,-81,-105,-105,-83
-82,-74,6,72,-47,-35,44,-72,-81,-105,-111,-83
-82,-80,0,78,-41,-41,44,-72,-81,-111,-111,-83
-82,-86,-5,78,-41,-47,50,-78,-87,-105,-111,-83
-82,-80,0,78,-41,-41,50,-78,-87,-105,-111,-83
-82,-86,-5,78,-41,-47,50,-78,-93,-111,-111,-83
-82,-86,-5,78,-41,-47,50,-84,-93,-111,-111,-83
-82,-80,0,78,-41,-41,56,-84,-93,-111,-117,-89
-82,-80,0,78,-41,-41,56,-78,-99,-111,-117,-89
-82,-80,0,78,-41,-41,56,-84,-99,-117,-123,-95
-82,-74,6,72,-47,-35,56,-90,-99,-117,-123,-101
-88,-74,12,78,-53,-29,56,-84,-105,-117,-129,-107
-88,-80,6,84,-47,-35,56,-84,-105,-117,-129,-107
-88,-86,0,84,-47,-41,56,-90,-105,-117,-129,-107
-88,-92,-5,90,-41,-47,50,-84,-105,-117,-123,-101
-88,-86,0,84,-47,-41,50,-90,-105,-123,-123,-101
-82,-80,0,78,-41,-41,50,-96,-105,-117,-123,-107
-82,-86,-5,78,-41,-47,56,-84,-99,-111,-117,-101
-88,-86,0,84,-47,-41,56,-90,-105,-111,-117,-101
-88,-80,6,84,-47,-35,50,-96,-105,-117,-123,-101
-88,-80,6,84,-47,-35,50,-90,-105,-117,-123,-95
-88,-80,6,84,-47,-35,50,-90,-99,-117,-117,-89
-88,-80,6,84,-47,-35,50,-84,-99,-117,-111,-89
-82,-74,6,72,-47,-35,44,-84,-99,-111,-111,-89
-82,-74,6,72,-47,-35,44,-84,-105,-117,-111,-89
-82,-74,6,72,-47,-35,44,-84,-111,-117,-117,-95
-82,-68,12,72,-47,-29,44,-90,-111,-123,-117,-101
-88,-62,24,72,-59,-17,44,-90,-111,-123,-123,-101
-88,-62,24,72,-59,-17,44,-84,-99,-123,-117,-101
-88,-68,18,78,-53,-23,50,-90,-99,-123,-117,-101
-82,-68,12,72,-47,-29,50,-90,-93,-123,-123,-95
-82,-74,6,72,-47,-35,44,-84,-93,-117,-117,-95
-76,-68,6,72,-41,-29,44,-90,-93,-117,-123,-95
-70,-68,0,66,-35,-35,38,-90,-99,-117,-123,-95
-76,-74,0,72,-41,-35,38,-78,-105,-117,-117,-95
-70,-68,0,66,-35,-35,38,-78,-105,-117,-123,-95
-76,-62,12,66,-47,-23,38,-84,-105,-117,-123,-101
-76,-62,12,66,-47,-23,38,-84,-105,-117,-123,-101
-76,-68,6,72,-41,-29,38,-84,-105,-111,-123,-95
-70,-68,0,66,-35,-35,44,-78,-99,-117,-117,-89
-70,-68,0,66,-35,-35,38,-72,-99,-117,-117,-89
-70,-68,0,66,-35,-35,44,-72,-105,-123,-117,-83
-64,-62,0,60,-35,-29,38,-72,-105,-117,-123,-83
-64,-62,0,60,-35,-29,32,-66,-105,-117,-117,-83
-64,-62,0,60,-35,-29,32,-66,-105,-117,-117,-83
-64,-62,0,60,-35,-29,32,-66,-105,-117,-123,-89
-64,-62,0,60,-35,-29,26,-66,-105,-123,-123,-89
-64,-62,0,60,-35,-29,26,-72,-105,-123,-123,-95
-58,-62,-5,54,-29,-35,26,-72,-105,-123,-123,-95
-58,-68,-10,60,-23,-41,26,-72,-105,-117,-117,-89
-58,-62,-5,54,-29,-35,20,-78,-105,-123,-117,-89
-52,-62,-10,54,-23,-35,20,-78,-111,-123,-123,-89
-52,-62,-10,54,-23,-35,26,-72,-105,-117,-117,-83
-52,-74,-22,60,-17,-47,26,-72,-105,-117,-123,-83
-52,-68,-16,60,-17,-41,20,-72,-111,-123,-123,-89
-46,-62,-16,48,-17,-41,20,-78,-117,-117,-129,-89
-46,-68,-22,54,-11,-47,20,-78,-117,-117,-129,-95
-46,-68,-22,54,-11,-47,32,-78,-117,-117,-129,-95
-46,-68,-22,54,-11,-47,32,-78,-117,-117,-123,-95
-46,-68,-22,54,-11,-47,26,-78,-117,-117,-123,-95
-52,-68,-16,60,-17,-41,26,-78,-117,-123,-123,-89
-52,-62,-10,54,-23,-35,20,-72,-111,-129,-129,-89
-52,-62,-10,54,-23,-35,20,-66,-111,-123,-129,-89
-52,-68,-16,60,-17,-41,20,-72,-111,-129,-129,-95
-52,-62,-10,54,-23,-35,15,-72,-111,-129,-135,-95
-52,-62,-10,54,-23,-35,20,-78,-111,-135,-135,-101
-52,-62,-10,54,-23,-35,20,-84,-117,-135,-135,-101
-52,-68,-16,60,-17,-41,20,-78,-123,-135,-141,-101
-52,-68,-16,60,-17,-41,15,-84,-123,-135,-141,-107
-58,-68,-10,60,-23,-41,15,-84,-123,-135,-147,-107
-52,-68,-16,60,-17,-41,20,-78,-123,-135,-141,-107
-46,-68,-22,54,-11,-47,20,-78,-123,-141,-141,-107
-46,-68,-22,54,-11,-47,20,-84,-123,-141,-141,-101
-46,-80,-34,60,-6,-59,32,-78,-123,-141,-141,-101
-46,-86,-40,60,-6,-65,32,-78,-123,-141,-147,-101
-46,-92,-46,66,-1,-71,26,-84,-129,-141,-147,-101
-52,-86,-34,66,-11,-59,20,-90,-129,-141,-147,-101
-52,-86,-34,66,-11,-59,20,-84,-129,-141,-147,-101
-58,-80,-22,66,-17,-53,20,-90,-129,-141,-141,-107
-58,-80,-22,66,-17,-53,20,-90,-129,-141,-141,-107
-58,-86,-28,66,-17,-59,20,-90,-129,-135,-141,-107
-58,-86,-28,66,-17,-59,20,-90,-129,-135,-141,-107
-58,-86,-28,66,-17,-59,15,-90,-129,-141,-147,-107
-58,-86,-28,66,-17,-59,15,-84,-129,-135,-147,-107
-58,-86,-28,66,-17,-59,15,-84,-129,-141,-147,-113
-58,-86,-28,66,-17,-59,10,-90,-135,-141,-153,-113
-58,-98,-40,72,-11,-71,15,-84,-135,-141,-147,-107
-58,-98,-40,72,-11,-71,10,-84,-135,-141,-147,-113
-64,-80,-16,72,-23,-47,15,-96,-141,-147,-153,-119
-58,-80,-22,66,-17,-53,15,-96,-141,-153,-159,-125
-52,-74,-22,60,-17,-47,15,-96,-141,-147,-159,-125
-52,-80,-28,66,-11,-53,15,-96,-141,-147,-159,-125
-52,-86,-34,66,-11,-59,15,-90,-141,-147,-153,-125
-52,-92,-40,72,-6,-65,15,-90,-141,-147,-153,-119
-46,-92,-46,66,-1,-71,15,-96,-141,-147,-153,-125
-52,-92,-40,72,-6,-65,15,-96,-141,-147,-153,-131
-52,-92,-40,72,-6,-65,15,-96,-141,-153,-153,-125
-58,-92,-34,72,-11,-65,20,-96,-141,-147,-153,-125
-58,-104,-46,78,-6,-77,26,-90,-135,-147,-147,-125
-58,-104,-46,78,-6,-77,26,-96,-141,-147,-147,-125
-58,-92,-34,72,-11,-65,20,-102,-141,-153,-153,-125
-58,-98,-40,72,-11,-71,20,-96,-141,-153,-147,-125
-52,-98,-46,72,-6,-71,15,-96,-141,-153,-147,-125
-58,-98,-40,72,-11,-71,15,-96,-141,-153,-153,-125
-58,-104,-46,78,-6,-77,15,-102,-147,-153,-153,-125
-58,-104,-46,78,-6,-77,20,-96,-147,-153,-153,-125
-58,-104,-46,78,-6,-77,20,-102,-147,-159,-153,-131
-58,-104,-46,78,-6,-77,20,-102,-147,-153,-153,-125
-52,-104,-52,78,-1,-77,20,-96,-147,-153,-159,-131
-52,-92,-40,72,-6,-65,15,-96,-147,-153,-159,-131
-52,-74,-22,60,-17,-47,10,-108,-153,-159,-165,-137
-52,-74,-22,60,-17,-47,10,-108,-147,-159,-171,-137
-52,-80,-28,66,-11,-53,15,-114,-147,-159,-165,-137
-58,-86,-28,66,-17,-59,15,-120,-147,-159,-165,-137
-58,-98,-40,72,-11,-71,15,-114,-153,-165,-165,-137
-58,-104,-46,78,-6,-77,10,-114,-159,-165,-165,-137
-58,-104,-46,78,-6,-77,10,-114,-159,-165,-165,-137
-58,-110,-52,78,-6,-83,4,-108,-165,-165,-165,-137
-58,-104,-46,78,-6,-77,10,-114,-165,-159,-165,-137
-64,-98,-34,78,-17,-65,10,-114,-165,-159,-165,-137
-64,-98,-34,78,-17,-65,15,-114,-165,-159,-165,-137
-64,-98,-34,78,-17,-65,20,-114,-159,-159,-159,-137
-70,-110,-40,84,-17,-77,20,-114,-159,-153,-159,-143
-70,-110,-40,84,-17,-77,15,-114,-159,-159,-159,-143
-70,-110,-40,84,-17,-77,10,-114,-159,-165,-165,-149
-64,-110,-46,84,-11,-77,10,-120,-165,-159,-165,-149
-70,-116,-46,90,-11,-83,10,-120,-165,-159,-165,-149
-64,-116,-52,90,-6,-83,4,-120,-165,-159,-165,-149
-64,-116,-52,90,-6,-83,10,-120,-171,-165,-165,-149
-64,-110,-46,84,-11,-77,10,-120,-165,-165,-165,-149
-64,-104,-40,84,-11,-71,10,-120,-159,-165,-165,-143
-64,-98,-34,78,-17,-65,10,-120,-159,-165,-171,-149
-64,-104,-40,84,-11,-71,10,-126,-153,-159,-165,-149
-64,-110,-46,84,-11,-77,10,-120,-153,-159,-165,-149
-58,-110,-52,78,-6,-83,10,-120,-153,-159,-165,-149
-64,-110,-46,84,-11,-77,4,-120,-159,-159,-165,-149
-64,-104,-40,84,-11,-71,10,-120,-159,-159,-165,-149
-64,-104,-40,84,-11,-71,10,-120,-165,-165,-165,-149
-64,-98,-34,78,-17,-65,10,-126,-165,-165,-165,-149
-64,-92,-28,78,-17,-59,4,-126,-165,-165,-165,-149
-64,-98,-34,78,-17,-65,10,-126,-165,-159,-159,-149
-64,-104,-40,84,-11,-71,10,-126,-165,-159,-159,-143
-70,-116,-46,90,-11,-83,10,-126,-165,-165,-159,-149
-64,-110,-46,84,-11,-77,10,-126,-171,-165,-165,-149
-64,-110,-46,84,-11,-77,10,-132,-171,-165,-165,-149
-64,-116,-52,90,-6,-83,10,-132,-171,-165,-165,-149
-64,-116,-52,90,-6,-83,10,-126,-171,-165,-165,-149
-64,-110,-46,84,-11,-77,4,-132,-171,-165,-165,-149
-64,-104,-40,84,-11,-71,4,-132,-171,-159,-165,-149
-64,-104,-40,84,-11,-71,4,-126,-171,-159,-159,-149
-64,-104,-40,84,-11,-71,4,-126,-165,-165,-165,-149
-64,-104,-40,84,-11,-71,4,-132,-165,-165,-159,-149
-64,-104,-40,84,-11,-71,10,-132,-159,-165,-165,-149
-64,-104,-40,84,-11,-71,10,-132,-159,-171,-165,-149
-58,-104,-46,78,-6,-77,10,-138,-159,-165,-171,-155
-58,-110,-52,78,-6,-83,10,-144,-159,-165,-171,-155
-58,-110,-52,78,-6,-83,10,-138,-153,-165,-165,-155
-52,-104,-52,78,-1,-77,10,-132,-153,-165,-165,-155
-52,-104,-52,78,-1,-77,4,-132,-153,-165,-165,-149
-52,-110,-58,78,-1,-83,10,-126,-147,-165,-159,-149
-52,-116,-64,84,5,-89,10,-126,-153,-165,-165,-161
-52,-116,-64,84,5,-89,10,-138,-159,-171,-171,-167
-46,-110,-64,72,5,-89,10,-144,-171,-171,-177,-173
-46,-104,-58,72,5,-83,10,-144,-171,-171,-177,-167
-46,-92,-46,66,-1,-71,4,-150,-177,-171,-177,-167
-40,-98,-58,66,5,-77,4,-150,-171,-171,-171,-167
-40,-104,-64,72,11,-83,-2,-144,-171,-171,-171,-161
-34,-104,-70,66,17,-89,-2,-144,-171,-171,-171,-161
-28,-104,-76,66,23,-89,4,-138,-171,-171,-165,-161
-28,-104,-76,66,23,-89,10,-126,-165,-165,-165,-161
-22,-98,-76,54,23,-89,15,-120,-159,-159,-159,-155
-17,-92,-76,54,29,-83,20,-114,-153,-147,-153,-149
-17,-92,-76,54,29,-83,26,-108,-141,-141,-147,-137
-12,-98,-88,54,35,-89,20,-102,-135,-135,-141,-137
-12,-92,-82,54,35,-83,15,-96,-129,-129,-141,-131
-6,-92,-88,48,41,-89,15,-90,-123,-129,-135,-131
6,-98,-106,42,53,-101,15,-78,-111,-123,-129,-131
12,-86,-100,36,53,-89,10,-72,-105,-123,-129,-125
18,-74,-94,24,53,-83,10,-72,-105,-117,-129,-125
18,-74,-94,24,53,-83,4,-72,-105,-117,-129,-119
18,-74,-94,24,53,-83,-2,-66,-105,-111,-129,-119
24,-74,-100,24,59,-83,-14,-72,-105,-111,-129,-113
24,-74,-100,24,59,-83,-20,-78,-111,-111,-129,-125
24,-74,-100,24,59,-83,-26,-90,-123,-117,-135,-131
24,-68,-94,24,59,-77,-26,-96,-129,-123,-141,-131
18,-68,-88,24,53,-77,-32,-102,-135,-129,-147,-137
12,-74,-88,30,47,-77,-32,-114,-141,-141,-147,-137
12,-80,-94,36,53,-83,-26,-114,-147,-147,-153,-143
12,-86,-100,36,53,-89,-26,-120,-147,-147,-159,-143
12,-92,-106,42,59,-95,-26,-126,-147,-153,-159,-143
18,-98,-118,36,65,-107,-32,-126,-153,-159,-159,-143
18,-104,-124,42,71,-113,-32,-132,-165,-159,-159,-149
24,-104,-130,42,77,-113,-32,-138,-171,-159,-159,-149
18,-116,-136,48,77,-125,-32,-144,-171,-159,-159,-149
18,-122,-142,48,77,-131,-32,-138,-177,-159,-159,-143
12,-122,-136,54,71,-125,-32,-138,-177,-159,-159,-143
6,-122,-130,54,65,-125,-32,-144,-171,-165,-159,-143
0,-122,-124,60,59,-119,-32,-144,-171,-165,-159,-143
-6,-110,-106,54,47,-107,-32,-144,-171,-171,-165,-143
-12,-110,-100,60,41,-101,-26,-144,-171,-171,-165,-143
-17,-110,-94,60,35,-101,-20,-144,-177,-171,-171,-143
-22,-110,-88,60,29,-101,-20,-150,-183,-177,-177,-155
-22,-110,-88,60,29,-101,-20,-150,-183,-177,-183,-155
-28,-122,-94,72,29,-107,-26,-162,-189,-177,-183,-155
-34,-128,-94,78,29,-113,-26,-168,-189,-177,-183,-155
-46,-134,-88,84,17,-113,-26,-162,-189,-177,-183,-155
-46,-146,-100,90,23,-125,-14,-168,-189,-171,-177,-155
-46,-152,-106,96,29,-131,-14,-162,-183,-171,-177,-149
-46,-146,-100,90,23,-125,-14,-156,-183,-171,-171,-149
-52,-134,-82,90,11,-107,-8,-150,-177,-165,-165,-143
-58,-122,-64,84,-1,-95,-8,-144,-171,-159,-159,-137
-58,-116,-58,84,-1,-89,4,-132,-159,-147,-147,-131
-58,-92,-34,72,-11,-65,15,-114,-141,-129,-129,-113
-64,-68,-5,66,-29,-35,15,-96,-129,-117,-117,-95
-70,-50,18,54,-47,-17,26,-84,-111,-105,-105,-83
-76,-38,36,54,-59,-1,32,-72,-99,-93,-93,-71
-82,-21,60,48,-71,17,44,-54,-87,-75,-81,-65
-88,-16,72,54,-77,29,50,-48,-75,-69,-75,-55
-94,-10,84,48,-89,35,62,-36,-63,-57,-63,-49
-100,-4,96,54,-95,47,68,-18,-52,-45,-57,-37
-106,-4,102,54,-101,47,80,6,-35,-27,-46,-31
-112,8,120,54,-113,65,92,18,-29,-9,-35,-25
-112,32,144,42,-125,89,98,36,-11,3,-23,-7
-112,50,162,30,-137,107,104,58,7,15,-11,5
-112,68,180,24,-143,125,116,76,25,33,7,17
-118,74,192,19,-155,131,134,100,43,49,25,35
-112,98,210,8,-161,155,146,130,67,67,43,47
-106,122,228,-10,-167,173,158,166,97,91,67,71
-100,146,246,-22,-173,197,170,208,133,121,97,89
-100,170,270,-34,-185,221,188,256,169,145,121,113
-94,194,288,-52,-191,239,212,310,217,181,145,137
-88,230,318,-70,-203,275,236,370,271,217,175,161
-88,260,348,-82,-215,305,266,436,325,259,211,185
-94,296,390,-100,-239,341,314,508,379,307,247,209
-118,326,444,-106,-281,383,380,592,445,361,289,239
-142,374,516,-118,-329,443,458,682,511,415,331,275
-172,434,606,-130,-389,521,536,784,595,487,403,323
-184,512,696,-160,-437,605,608,904,691,571,475,383
-196,608,804,-202,-497,707,668,1018,805,667,571,467
-208,716,924,-250,-563,821,716,1144,931,787,685,569
-208,842,1050,-316,-629,947,764,1282,1069,925,817,683
-214,974,1188,-382,-701,1079,824,1438,1237,1087,967,821
-208,1130,1338,-460,-773,1235,878,1570,1405,1279,1141,983
-202,1298,1500,-550,-851,1397,932,1696,1585,1471,1333,1157
-190,1454,1644,-634,-917,1547,986,1822,1765,1675,1525,1331
-172,1592,1764,-706,-965,1679,1016,1882,1927,1861,1717,1487
-136,1700,1836,-778,-983,1769,1010,1906,2059,2023,1891,1631
-94,1802,1896,-856,-995,1847,956,1882,2161,2167,2041,1757
-70,1874,1944,-904,-1007,1907,902,1816,2227,2281,2161,1859
-70,1934,2004,-934,-1037,1967,824,1696,2239,2347,2233,1931
-82,1970,2052,-946,-1067,2009,734,1516,2203,2353,2239,1943
-94,1916,2010,-910,-1049,1961,644,1330,2095,2257,2143,1871
-106,1772,1878,-832,-989,1823,560,1144,1951,2101,1975,1721
-106,1574,1680,-736,-893,1625,458,952,1759,1891,1753,1517
-130,1346,1476,-610,-803,1409,362,718,1489,1609,1477,1265
-166,1112,1278,-472,-719,1193,272,442,1153,1285,1171,1019
-202,902,1104,-352,-653,1001,176,178,805,967,877,779
-220,710,930,-244,-575,821,92,-18,517,703,625,569
-232,530,762,-148,-497,647,20,-168,295,481,427,401
-238,386,624,-76,-431,503,-38,-282,121,307,271,263
-238,266,504,-16,-371,383,-80,-348,-5,169,139,155
-226,164,390,30,-305,275,-116,-396,-87,61,43,71
-208,86,294,60,-251,191,-140,-408,-153,-9,-29,5
-190,14,204,84,-197,107,-152,-408,-195,-63,-75,-43
-172,-32,138,102,-155,53,-158,-390,-231,-105,-111,-77
-148,-68,78,108,-113,5,-152,-372,-243,-141,-141,-101
-130,-98,30,108,-83,-35,-140,-348,-255,-165,-159,-119
-112,-122,-10,114,-53,-65,-122,-312,-255,-183,-171,-137
-100,-128,-28,114,-35,-77,-98,-282,-249,-195,-183,-149
-82,-134,-52,102,-17,-95,-80,-252,-237,-195,-189,-155
-70,-140,-70,102,-1,-107,-74,-222,-219,-195,-195,-149
-64,-146,-82,102,5,-113,-68,-204,-207,-195,-183,-149
-58,-146,-88,96,11,-119,-62,-186,-189,-183,-177,-143
-52,-146,-94,96,17,-119,-56,-174,-183,-183,-177,-137
-52,-158,-106,102,23,-131,-56,-174,-183,-177,-177,-137
-52,-158,-106,102,23,-131,-56,-174,-195,-177,-177,-143
-46,-164,-118,102,35,-143,-50,-168,-201,-177,-189,-143
-40,-164,-124,102,41,-143,-50,-168,-213,-183,-195,-155
-34,-164,-130,96,47,-149,-44,-162,-213,-189,-195,-155
-28,-164,-136,96,53,-149,-44,-150,-213,-195,-201,-155
-28,-164,-136,96,53,-149,-44,-144,-207,-195,-201,-155
-17,-170,-154,90,65,-161,-44,-144,-201,-195,-195,-155
-17,-170,-154,90,65,-161,-44,-138,-195,-189,-195,-155
-17,-158,-142,84,59,-149,-50,-144,-195,-189,-195,-149
-17,-158,-142,84,59,-149,-50,-144,-195,-189,-195,-149
-22,-158,-136,84,53,-149,-50,-144,-201,-189,-189,-143
-22,-152,-130,84,53,-143,-50,-144,-207,-189,-195,-149
-22,-158,-136,84,53,-149,-44,-132,-201,-183,-183,-137
-17,-164,-148,90,65,-155,-44,-126,-201,-177,-183,-137
-17,-158,-142,84,59,-149,-50,-120,-201,-183,-183,-137
-12,-158,-148,84,65,-149,-50,-126,-201,-183,-183,-143
-17,-164,-148,90,65,-155,-56,-126,-201,-189,-183,-137
-17,-164,-148,90,65,-155,-56,-120,-201,-189,-183,-137
-17,-164,-148,90,65,-155,-50,-126,-189,-189,-177,-137
-17,-158,-142,84,59,-149,-50,-126,-189,-183,-177,-131
-17,-152,-136,84,59,-143,-56,-120,-189,-177,-177,-131
-17,-152,-136,84,59,-143,-56,-120,-189,-177,-177,-131
-17,-146,-130,78,53,-137,-62,-126,-189,-177,-177,-131
-17,-146,-130,78,53,-137,-62,-126,-189,-177,-183,-131
-12,-140,-130,78,59,-131,-68,-120,-189,-183,-183,-137
-12,-140,-130,78,59,-131,-74,-120,-183,-183,-177,-137
-6,-146,-142,72,65,-143,-74,-126,-183,-183,-177,-137
-6,-152,-148,78,71,-149,-74,-120,-183,-171,-171,-131
-6,-164,-160,84,77,-161,-74,-120,-177,-171,-165,-131
0,-164,-166,84,83,-161,-80,-120,-177,-171,-165,-125
0,-158,-160,78,77,-155,-80,-120,-177,-177,-165,-131
0,-152,-154,78,77,-149,-86,-120,-177,-177,-165,-125
6,-152,-160,72,83,-155,-92,-114,-171,-177,-165,-125
6,-158,-166,72,83,-161,-92,-108,-171,-165,-165,-125
6,-164,-172,78,89,-167,-86,-108,-171,-165,-165,-125
6,-164,-172,78,89,-167,-92,-108,-177,-165,-165,-125
12,-170,-184,78,95,-173,-92,-108,-171,-165,-165,-125
12,-164,-178,78,95,-167,-92,-102,-171,-165,-165,-125
12,-152,-166,72,89,-155,-104,-114,-177,-171,-165,-119
18,-152,-172,66,95,-161,-110,-114,-171,-171,-165,-119
18,-152,-172,66,95,-161,-110,-108,-165,-159,-159,-113
24,-152,-178,66,101,-161,-116,-114,-165,-159,-153,-113
24,-152,-178,66,101,-161,-122,-108,-159,-159,-153,-107
30,-146,-178,54,101,-161,-122,-102,-159,-153,-147,-107
36,-152,-190,60,113,-167,-122,-96,-159,-147,-141,-107
42,-152,-196,54,119,-173,-122,-96,-159,-147,-141,-107
48,-146,-196,48,119,-167,-128,-96,-159,-147,-141,-107
48,-146,-196,48,119,-167,-134,-90,-159,-147,-141,-107
48,-152,-202,54,125,-173,-134,-90,-153,-141,-135,-101
54,-164,-220,54,137,-191,-134,-90,-147,-141,-129,-101
60,-158,-220,48,137,-185,-140,-84,-147,-135,-129,-95
66,-158,-226,42,143,-191,-146,-84,-147,-135,-123,-101
72,-146,-220,36,143,-179,-146,-84,-147,-135,-123,-95
78,-140,-220,30,149,-179,-152,-84,-147,-135,-123,-101
84,-128,-214,24,149,-167,-158,-78,-135,-129,-117,-95
90,-128,-220,19,155,-173,-164,-72,-129,-117,-117,-95
90,-122,-214,14,149,-167,-170,-66,-123,-117,-111,-89
102,-122,-226,8,161,-173,-176,-60,-117,-111,-105,-89
108,-122,-232,8,167,-173,-188,-60,-117,-111,-105,-89
114,-128,-244,8,179,-185,-200,-60,-111,-111,-93,-83
126,-128,-256,2,191,-191,-206,-54,-105,-105,-87,-77
138,-128,-268,-4,203,-197,-212,-54,-99,-93,-87,-65
144,-116,-262,-10,203,-185,-218,-54,-99,-87,-81,-65
144,-104,-250,-16,197,-173,-230,-48,-93,-75,-75,-55
150,-92,-244,-28,197,-167,-230,-42,-87,-63,-63,-49
150,-86,-238,-34,191,-161,-242,-36,-81,-57,-51,-37
162,-80,-244,-40,203,-161,-248,-30,-69,-51,-41,-31
168,-74,-244,-46,203,-155,-254,-24,-63,-45,-29,-19
180,-68,-250,-52,215,-155,-266,-12,-52,-39,-17,-13
186,-68,-256,-58,221,-161,-278,-12,-52,-27,-5,-1
192,-68,-262,-58,227,-161,-290,-6,-41,-15,7,11
198,-56,-256,-70,227,-155,-296,0,-29,-3,19,29
210,-50,-262,-82,233,-155,-308,12,-17,15,37,47
222,-32,-256,-94,239,-143,-314,18,-5,27,49,59
234,-10,-244,-112,239,-125,-326,18,1,33,61,77
240,2,-238,-118,239,-113,-338,36,13,44,73,89
252,8,-244,-124,251,-113,-350,48,31,55,97,107
258,14,-244,-136,251,-113,-356,53,43,67,115,125
270,38,-232,-154,251,-95,-368,58,61,85,133,137
276,44,-232,-154,257,-89,-380,70,73,109,151,149
276,44,-232,-154,257,-89,-380,82,91,127,169,173
282,56,-226,-166,257,-83,-392,88,103,139,187,185
288,74,-214,-178,251,-65,-392,100,109,151,199,203
294,92,-202,-190,251,-53,-398,106,121,163,211,215
300,104,-196,-196,251,-41,-404,112,133,175,223,233
306,116,-190,-208,251,-35,-416,118,157,193,241,251
312,116,-196,-208,257,-35,-416,136,169,211,265,269
318,140,-178,-226,251,-17,-428,142,181,229,277,281
324,164,-160,-238,245,5,-434,154,193,241,295,299
324,176,-148,-244,239,17,-440,160,199,253,307,305
330,182,-148,-256,239,17,-440,172,211,265,319,317
330,194,-136,-262,233,29,-440,172,217,277,331,323
318,200,-118,-256,221,41,-434,178,223,283,343,335
318,212,-106,-262,215,53,-428,190,235,295,355,353
318,212,-106,-262,215,53,-422,202,247,307,367,365
318,212,-106,-262,215,53,-416,214,259,313,379,377
312,218,-94,-262,203,65,-410,220,271,331,391,383
312,236,-76,-268,197,83,-410,226,277,337,397,389
306,248,-58,-274,185,95,-404,232,283,349,397,383
300,254,-46,-274,173,107,-398,238,289,355,403,389
288,248,-40,-262,167,107,-386,250,295,355,397,383
276,242,-34,-256,155,107,-380,250,295,349,391,377
270,236,-34,-250,155,101,-374,250,289,343,379,371
258,230,-28,-244,143,101,-362,250,289,337,379,365
252,224,-28,-232,143,101,-350,256,283,337,367,347
240,218,-22,-226,131,101,-332,250,271,325,355,335
228,206,-22,-214,125,95,-320,244,265,307,337,317
216,200,-16,-202,119,95,-302,238,253,295,319,299
204,188,-16,-190,113,89,-284,226,241,277,301,275
186,176,-10,-178,101,83,-260,220,229,259,283,257
168,158,-10,-160,89,77,-242,214,217,241,265,239
156,134,-22,-142,89,59,-218,208,205,223,247,227
144,116,-28,-124,89,47,-200,202,193,211,223,203
132,104,-28,-112,83,41,-188,184,169,193,199,185
114,86,-28,-100,71,29,-176,172,151,169,169,161
102,74,-28,-88,65,23,-158,160,127,145,151,143
90,56,-34,-70,65,11,-140,142,109,127,127,119
78,44,-34,-58,59,5,-128,130,91,103,103,101
66,32,-34,-46,53,-1,-110,118,73,91,85,77
54,26,-28,-40,41,-1,-104,100,61,73,67,59
42,14,-28,-28,35,-7,-104,88,43,61,49,41
30,2,-28,-16,29,-12,-98,76,25,44,31,23
24,-16,-40,2,35,-23,-86,64,19,33,19,5
12,-32,-46,14,29,-35,-74,53,7,21,7,-1
6,-38,-46,14,23,-41,-68,48,-11,-3,-11,-19
-6,-32,-28,19,11,-29,-56,36,-29,-21,-29,-31
-12,-32,-22,24,5,-23,-50,24,-41,-33,-41,-43
-17,-44,-28,30,5,-35,-44,12,-47,-45,-51,-49
-22,-56,-34,36,5,-47,-38,12,-52,-45,-63,-60
-28,-62,-34,42,-1,-47,-38,6,-57,-51,-69,-60
-28,-68,-40,48,5,-53,-38,0,-63,-57,-75,-71
-34,-68,-34,48,-1,-53,-44,-12,-69,-69,-87,-77
-34,-74,-40,48,-1,-59,-44,-18,-75,-75,-93,-89
-40,-68,-28,54,-6,-47,-44,-30,-87,-87,-105,-89
-40,-68,-28,54,-6,-47,-44,-36,-93,-93,-111,-95
-46,-74,-28,54,-11,-53,-38,-42,-99,-99,-117,-101
-52,-86,-34,66,-11,-59,-38,-42,-99,-99,-123,-107
-52,-86,-34,66,-11,-59,-38,-48,-105,-105,-129,-113
-58,-86,-28,66,-17,-59,-38,-54,-111,-105,-129,-119
-58,-92,-34,72,-11,-65,-38,-54,-111,-111,-135,-119
-64,-98,-34,78,-17,-65,-38,-60,-111,-111,-135,-125
-70,-98,-28,78,-23,-65,-38,-66,-117,-117,-135,-125
-70,-98,-28,78,-23,-65,-38,-66,-123,-117,-141,-125
-70,-104,-34,84,-17,-71,-32,-72,-123,-111,-135,-125
-76,-116,-40,96,-17,-77,-32,-72,-123,-111,-141,-125
-76,-116,-40,96,-17,-77,-32,-72,-129,-117,-141,-125
-70,-116,-46,90,-11,-83,-32,-72,-129,-117,-141,-131
-70,-110,-40,84,-17,-77,-32,-78,-129,-123,-141,-131
-76,-110,-34,90,-23,-71,-32,-84,-129,-123,-141,-137
-70,-110,-40,84,-17,-77,-32,-78,-129,-123,-147,-131
-70,-104,-34,84,-17,-71,-32,-78,-129,-129,-147,-131
-70,-104,-34,84,-17,-71,-32,-84,-129,-123,-153,-131
-64,-110,-46,84,-11,-77,-32,-78,-129,-123,-153,-131
-64,-116,-52,90,-6,-83,-32,-78,-129,-123,-153,-131
-70,-110,-40,84,-17,-77,-38,-84,-135,-129,-159,-131
-70,-104,-34,84,-17,-71,-32,-90,-135,-135,-153,-137
-70,-110,-40,84,-17,-77,-32,-84,-135,-135,-153,-131
-70,-110,-40,84,-17,-77,-32,-84,-135,-135,-153,-137
-70,-110,-40,84,-17,-77,-26,-90,-129,-135,-153,-137
-70,-110,-40,84,-17,-77,-32,-84,-129,-129,-153,-143
-70,-110,-40,84,-17,-77,-32,-84,-135,-129,-153,-143
-70,-116,-46,90,-11,-83,-32,-78,-129,-129,-147,-131
-70,-134,-64,96,-6,-101,-20,-72,-129,-123,-147,-125
-64,-116,-52,90,-6,-83,-26,-72,-135,-129,-147,-125
-64,-110,-46,84,-11,-77,-32,-78,-135,-129,-153,-119
-64,-104,-40,84,-11,-71,-32,-84,-135,-129,-153,-125
-58,-92,-34,72,-11,-65,-32,-78,-129,-123,-159,-119
-58,-86,-28,66,-17,-59,-32,-78,-129,-123,-153,-125
-58,-86,-28,66,-17,-59,-32,-78,-129,-123,-153,-125
-58,-86,-28,66,-17,-59,-38,-78,-135,-123,-153,-125
-58,-86,-28,66,-17,-59,-38,-72,-141,-129,-147,-125
-58,-92,-34,72,-11,-65,-44,-72,-141,-129,-147,-125
-52,-98,-46,72,-6,-71,-44,-78,-135,-129,-141,-125
-52,-104,-52,78,-1,-77,-38,-72,-129,-129,-141,-125
-58,-116,-58,84,-1,-89,-38,-66,-129,-123,-141,-125
-58,-104,-46,78,-6,-77,-38,-72,-129,-129,-147,-125
-58,-98,-40,72,-11,-71,-38,-72,-129,-129,-141,-125
-52,-86,-34,66,-11,-59,-44,-78,-135,-129,-147,-125
-52,-80,-28,66,-11,-53,-44,-78,-135,-135,-141,-125
-52,-80,-28,66,-11,-53,-44,-78,-135,-135,-141,-131
-52,-92,-40,72,-6,-65,-44,-78,-135,-129,-135,-125
-52,-92,-40,72,-6,-65,-50,-78,-135,-135,-141,-131
-52,-98,-46,72,-6,-71,-56,-78,-141,-135,-141,-125
-52,-110,-58,78,-1,-83,-56,-84,-135,-129,-147,-131
-52,-110,-58,78,-1,-83,-50,-78,-135,-129,-141,-125
-52,-116,-64,84,5,-89,-56,-78,-141,-129,-147,-125
-52,-116,-64,84,5,-89,-50,-78,-141,-135,-147,-125
-46,-116,-70,78,11,-95,-50,-78,-141,-135,-147,-131
-46,-110,-64,72,5,-89,-56,-78,-141,-135,-141,-131
-46,-98,-52,66,-1,-77,-56,-78,-141,-135,-141,-137
-46,-98,-52,66,-1,-77,-56,-84,-141,-141,-141,-143
-46,-98,-52,66,-1,-77,-62,-90,-141,-141,-141,-149
-40,-92,-52,66,5,-71,-62,-90,-147,-141,-141,-143
-40,-92,-52,66,5,-71,-68,-90,-147,-141,-147,-143
-34,-86,-52,54,5,-71,-68,-90,-147,-147,-147,-143
-28,-86,-58,54,11,-71,-68,-90,-153,-147,-153,-143
-28,-86,-58,54,11,-71,-68,-84,-153,-147,-153,-137
-28,-92,-64,60,17,-77,-68,-84,-153,-147,-153,-131
-22,-92,-70,54,23,-83,-68,-84,-147,-147,-153,-131
-22,-98,-76,54,23,-89,-68,-78,-147,-147,-153,-131
-22,-98,-76,54,23,-89,-68,-84,-147,-141,-153,-137
-22,-104,-82,60,29,-95,-68,-90,-147,-141,-153,-131
-22,-110,-88,60,29,-101,-68,-90,-147,-141,-153,-131
-22,-116,-94,66,35,-107,-68,-84,-141,-141,-159,-131
-22,-110,-88,60,29,-101,-68,-90,-147,-141,-159,-137
-22,-104,-82,60,29,-95,-68,-96,-147,-147,-165,-137
-28,-98,-70,60,17,-83,-62,-90,-147,-147,-165,-137
-22,-104,-82,60,29,-95,-56,-96,-153,-153,-165,-137
-28,-110,-82,66,23,-95,-62,-96,-153,-153,-159,-131
-28,-110,-82,66,23,-95,-62,-102,-153,-147,-159,-131
-22,-110,-88,60,29,-101,-62,-96,-153,-153,-159,-137
-22,-116,-94,66,35,-107,-62,-96,-153,-153,-165,-131
-22,-122,-100,66,35,-113,-62,-102,-153,-153,-165,-137
-22,-122,-100,66,35,-113,-62,-102,-159,-153,-165,-137
-17,-122,-106,66,41,-113,-56,-96,-153,-153,-165,-137
-17,-110,-94,60,35,-101,-56,-96,-159,-159,-165,-137
-17,-104,-88,60,35,-95,-62,-102,-165,-165,-165,-143
-22,-104,-82,60,29,-95,-62,-108,-165,-165,-165,-143
-22,-104,-82,60,29,-95,-62,-108,-165,-165,-165,-149
-28,-98,-70,60,17,-83,-68,-114,-165,-165,-171,-149
-28,-104,-76,66,23,-89,-68,-120,-165,-165,-171,-149
-28,-110,-82,66,23,-95,-68,-114,-165,-165,-165,-143
-34,-122,-88,72,23,-107,-68,-114,-165,-159,-171,-149
-34,-122,-88,72,23,-107,-68,-114,-171,-165,-171,-149
-34,-122,-88,72,23,-107,-68,-120,-171,-165,-177,-155
-28,-122,-94,72,29,-107,-62,-114,-171,-165,-177,-149
-28,-122,-94,72,29,-107,-62,-114,-171,-165,-177,-155
-28,-122,-94,72,29,-107,-62,-120,-171,-165,-177,-149
-28,-116,-88,72,29,-101,-62,-126,-171,-165,-177,-155
-28,-116,-88,72,29,-101,-62,-126,-171,-165,-183,-155
-34,-122,-88,72,23,-107,-62,-126,-171,-165,-183,-161
-34,-128,-94,78,29,-113,-68,-132,-177,-171,-183,-161
-34,-134,-100,78,29,-119,-68,-132,-177,-177,-189,-161
-28,-134,-106,78,35,-119,-68,-126,-177,-171,-189,-161
-28,-140,-112,84,41,-125,-68,-126,-171,-171,-189,-161
-28,-140,-112,84,41,-125,-68,-126,-177,-177,-195,-161
-28,-134,-106,78,35,-119,-68,-132,-177,-177,-195,-167
-28,-134,-106,78,35,-119,-62,-126,-177,-171,-201,-167
-28,-140,-112,84,41,-125,-56,-120,-171,-165,-195,-167
-28,-140,-112,84,41,-125,-56,-120,-171,-165,-195,-161
-28,-140,-112,84,41,-125,-62,-126,-177,-171,-189,-167
-34,-140,-106,84,35,-125,-62,-126,-183,-177,-189,-167
-34,-140,-106,84,35,-125,-62,-132,-183,-177,-195,-167
-28,-152,-124,90,47,-137,-62,-126,-183,-177,-195,-161
-34,-152,-118,90,41,-137,-62,-132,-183,-177,-195,-155
-28,-146,-118,84,41,-131,-62,-126,-189,-183,-195,-161
-28,-146,-118,84,41,-131,-62,-126,-183,-183,-195,-155
-28,-140,-112,84,41,-125,-62,-126,-183,-177,-195,-161
-28,-134,-106,78,35,-119,-62,-126,-189,-177,-201,-161
-34,-134,-100,78,29,-119,-62,-126,-189,-177,-195,-167
-34,-134,-100,78,29,-119,-62,-126,-189,-177,-189,-161
-34,-140,-106,84,35,-125,-62,-132,-189,-177,-189,-161
-34,-152,-118,90,41,-137,-62,-126,-183,-177,-183,-161
-34,-146,-112,84,35,-131,-62,-126,-189,-177,-189,-167
-34,-146,-112,84,35,-131,-62,-132,-183,-183,-189,-161
-34,-146,-112,84,35,-131,-62,-132,-183,-183,-189,-167
-34,-146,-112,84,35,-131,-62,-126,-183,-183,-195,-167
-28,-140,-112,84,41,-125,-62,-126,-183,-177,-195,-167
-28,-140,-112,84,41,-125,-62,-132,-183,-183,-195,-167
-34,-146,-112,84,35,-131,-62,-132,-183,-177,-189,-167
-34,-146,-112,84,35,-131,-62,-132,-189,-183,-189,-167
-34,-146,-112,84,35,-131,-68,-132,-189,-183,-195,-173
-34,-146,-112,84,35,-131,-68,-138,-189,-183,-195,-167
-28,-152,-124,90,47,-137,-68,-138,-189,-183,-201,-167
-28,-146,-118,84,41,-131,-68,-138,-189,-189,-201,-167
-28,-140,-112,84,41,-125,-68,-138,-189,-189,-201,-167
-28,-134,-106,78,35,-119,-68,-138,-183,-189,-201,-167
-28,-128,-100,78,35,-113,-68,-138,-183,-189,-201,-173
-28,-134,-106,78,35,-119,-68,-138,-189,-189,-201,-179
-22,-140,-118,78,47,-131,-62,-138,-189,-183,-195,-179
-22,-140,-118,78,47,-131,-62,-138,-189,-183,-195,-179
-28,-152,-124,90,47,-137,-62,-138,-189,-183,-195,-185
-28,-152,-124,90,47,-137,-62,-138,-195,-189,-195,-179
-22,-152,-130,84,53,-143,-56,-138,-195,-183,-195,-179
-22,-152,-130,84,53,-143,-56,-138,-189,-183,-189,-173
-28,-152,-124,90,47,-137,-56,-138,-189,-183,-189,-173
-28,-164,-136,96,53,-149,-50,-132,-183,-183,-189,-167
-28,-164,-136,96,53,-149,-50,-132,-183,-183,-189,-161
-28,-152,-124,90,47,-137,-56,-138,-183,-177,-189,-167
-28,-152,-124,90,47,-137,-56,-138,-183,-183,-189,-161
-28,-152,-124,90,47,-137,-56,-132,-177,-177,-183,-161
-34,-158,-124,90,41,-143,-50,-132,-177,-177,-183,-161
-28,-158,-130,90,47,-143,-50,-138,-177,-177,-177,-161
-28,-152,-124,90,47,-137,-50,-138,-177,-177,-177,-161
-40,-164,-124,102,41,-143,-50,-144,-183,-183,-183,-167
-40,-164,-124,102,41,-143,-50,-144,-183,-183,-183,-167
-40,-158,-118,96,35,-137,-50,-144,-189,-189,-183,-167
-40,-158,-118,96,35,-137,-50,-144,-183,-183,-183,-161
-40,-164,-124,102,41,-143,-50,-138,-183,-177,-183,-161
-40,-164,-124,102,41,-143,-44,-138,-183,-177,-183,-161
-40,-158,-118,96,35,-137,-50,-144,-183,-177,-183,-173
-40,-158,-118,96,35,-137,-50,-144,-183,-177,-183,-167
-40,-164,-124,102,41,-143,-50,-144,-183,-171,-183,-173
-40,-164,-124,102,41,-143,-50,-144,-183,-171,-189,-167
-40,-170,-130,102,41,-149,-44,-144,-177,-171,-183,-167
-34,-182,-148,102,53,-167,-44,-144,-177,-171,-183,-167
-34,-176,-142,102,53,-161,-50,-150,-177,-171,-183,-167
-34,-176,-142,102,53,-161,-44,-144,-177,-171,-177,-167
-28,-170,-142,96,53,-155,-44,-144,-177,-177,-177,-173
-34,-164,-130,96,47,-149,-44,-150,-183,-165,-177,-173
-34,-158,-124,90,41,-143,-44,-150,-183,-165,-177,-173
-40,-158,-118,96,35,-137,-44,-144,-189,-165,-183,-173
-40,-158,-118,96,35,-137,-44,-150,-189,-165,-177,-173
-46,-164,-118,102,35,-143,-44,-150,-189,-165,-183,-173
-40,-170,-130,102,41,-149,-44,-156,-189,-171,-189,-173
-34,-164,-130,96,47,-149,-44,-150,-183,-177,-189,-173
-28,-158,-130,90,47,-143,-44,-150,-177,-177,-189,-173
-28,-158,-130,90,47,-143,-50,-156,-183,-177,-189,-179
-34,-152,-118,90,41,-137,-56,-162,-183,-183,-189,-179
-34,-152,-118,90,41,-137,-56,-156,-183,-177,-183,-179
-34,-146,-112,84,35,-131,-56,-156,-189,-171,-183,-185
-34,-146,-112,84,35,-131,-56,-162,-189,-171,-183,-185
-34,-140,-106,84,35,-125,-50,-162,-183,-171,-183,-185
-28,-140,-112,84,41,-125,-50,-156,-183,-165,-183,-185
-28,-140,-112,84,41,-125,-44,-156,-177,-165,-183,-179
-34,-146,-112,84,35,-131,-44,-156,-177,-171,-183,-185
-28,-152,-124,90,47,-137,-44,-162,-183,-171,-189,-179
-28,-158,-130,90,47,-143,-44,-162,-183,-177,-189,-185
-22,-152,-130,84,53,-143,-44,-156,-189,-177,-189,-179
-22,-158,-136,84,53,-149,-44,-156,-189,-177,-189,-185
-22,-170,-148,90,59,-161,-44,-156,-183,-177,-183,-179
-17,-170,-154,90,65,-161,-44,-156,-189,-177,-183,-185
-17,-164,-148,90,65,-155,-44,-156,-189,-171,-189,-179
-17,-164,-148,90,65,-155,-44,-156,-189,-171,-189,-185
-17,-164,-148,90,65,-155,-44,-156,-183,-165,-183,-179
-12,-152,-142,84,65,-143,-38,-150,-183,-165,-183,-179
-6,-140,-136,72,65,-137,-32,-144,-171,-165,-177,-173
0,-128,-130,66,65,-125,-32,-132,-165,-159,-171,-167
12,-122,-136,54,71,-125,-26,-126,-159,-153,-165,-161
18,-122,-142,48,77,-131,-26,-120,-153,-147,-159,-155
24,-116,-142,48,83,-125,-26,-120,-153,-147,-153,-155
24,-110,-136,42,77,-119,-32,-114,-147,-141,-153,-155
30,-110,-142,36,83,-125,-38,-102,-135,-135,-147,-149
42,-116,-160,36,101,-137,-38,-90,-129,-129,-141,-143
42,-116,-160,36,101,-137,-38,-90,-123,-123,-135,-137
48,-116,-166,36,107,-137,-44,-90,-123,-129,-135,-137
54,-110,-166,24,107,-137,-50,-90,-117,-123,-135,-137
54,-110,-166,24,107,-137,-50,-96,-123,-123,-141,-143
54,-110,-166,24,107,-137,-56,-102,-123,-129,-141,-149
54,-122,-178,30,113,-149,-56,-114,-129,-129,-147,-149
54,-128,-184,36,119,-155,-56,-120,-129,-135,-147,-149
48,-128,-178,42,113,-149,-62,-126,-135,-141,-153,-149
48,-122,-172,36,107,-143,-68,-138,-141,-147,-165,-155
54,-122,-178,30,113,-149,-68,-150,-153,-153,-165,-155
54,-128,-184,36,119,-155,-68,-156,-159,-159,-171,-161
48,-134,-184,42,113,-155,-68,-156,-165,-165,-177,-167
54,-134,-190,36,119,-161,-74,-162,-171,-177,-189,-179
54,-134,-190,36,119,-161,-80,-174,-183,-183,-189,-185
48,-140,-190,48,119,-161,-80,-180,-183,-183,-195,-191
48,-146,-196,48,119,-167,-74,-174,-183,-177,-195,-185
48,-158,-208,54,125,-179,-68,-168,-183,-171,-189,-185
48,-158,-208,54,125,-179,-68,-168,-183,-171,-189,-185
42,-158,-202,54,119,-179,-68,-174,-183,-171,-189,-185
36,-158,-196,60,113,-173,-62,-174,-183,-171,-189,-179
24,-152,-178,66,101,-161,-62,-174,-183,-171,-189,-185
18,-152,-172,66,95,-161,-56,-174,-183,-171,-195,-185
12,-158,-172,72,89,-161,-50,-168,-183,-171,-195,-185
0,-164,-166,84,83,-161,-50,-174,-183,-171,-195,-185
-12,-176,-166,96,77,-167,-50,-180,-183,-177,-201,-191
-17,-182,-166,96,71,-173,-50,-180,-189,-183,-201,-191
-22,-182,-160,96,65,-173,-50,-180,-189,-183,-201,-197
-22,-176,-154,96,65,-167,-50,-180,-189,-183,-207,-197
-28,-176,-148,102,59,-161,-50,-186,-195,-183,-201,-197
-28,-182,-154,102,59,-167,-44,-186,-189,-183,-201,-191
-28,-176,-148,102,59,-161,-50,-192,-189,-177,-201,-191
-28,-170,-142,96,53,-155,-50,-180,-183,-171,-195,-185
-34,-164,-130,96,47,-149,-50,-174,-177,-165,-183,-179
-34,-152,-118,90,41,-137,-44,-168,-171,-153,-171,-173
-34,-128,-94,78,29,-113,-38,-156,-159,-147,-159,-161
-40,-104,-64,72,11,-83,-26,-138,-147,-135,-147,-149
-46,-86,-40,60,-6,-65,-14,-120,-135,-117,-135,-131
-52,-86,-34,66,-11,-59,-2,-102,-117,-105,-123,-119
-64,-74,-10,66,-29,-41,15,-90,-99,-81,-111,-107
-64,-56,6,60,-35,-23,15,-78,-81,-69,-99,-95
-70,-38,30,48,-53,-7,26,-66,-69,-57,-93,-83
-76,-38,36,54,-59,-1,38,-48,-57,-45,-81,-71
-82,-26,54,48,-71,11,50,-30,-47,-33,-63,-60
-88,-21,66,54,-77,23,62,-12,-35,-21,-51,-49
-88,-4,84,48,-83,41,74,0,-23,-9,-41,-43
-88,2,90,42,-89,47,86,18,1,3,-23,-25
-88,26,114,30,-101,71,98,42,19,21,-11,-19
-88,38,126,24,-107,83,104,64,43,39,1,-1
-88,56,144,19,-113,101,116,88,67,55,25,17
-88,80,168,8,-125,125,128,124,91,85,43,41
-82,98,180,-10,-131,137,146,166,127,109,67,59
-76,116,192,-16,-131,155,164,214,163,139,91,83
-76,146,222,-34,-149,185,188,268,205,169,121,101
-76,182,258,-52,-167,221,224,334,253,205,151,125
-76,218,294,-70,-185,257,272,406,307,247,193,149
-100,254,354,-76,-227,305,338,484,367,301,229,179
-124,302,426,-88,-275,365,416,574,439,349,271,209
-148,350,498,-100,-323,425,500,682,523,415,319,251
-166,416,582,-124,-371,497,584,802,619,499,391,311
-178,500,678,-160,-425,587,650,928,739,601,481,389
-190,602,792,-208,-491,695,704,1060,865,715,589,485
-196,716,912,-256,-551,815,758,1210,1003,853,721,605
-196,848,1044,-322,-617,947,812,1348,1159,997,865,737
-190,1016,1206,-412,-695,1109,866,1486,1321,1159,1033,893
-178,1184,1362,-502,-767,1271,908,1606,1489,1345,1225,1055
-154,1364,1518,-604,-833,1439,950,1720,1657,1543,1423,1247
-130,1514,1644,-694,-887,1577,986,1810,1825,1741,1621,1421
-94,1640,1734,-772,-911,1685,980,1858,1969,1915,1801,1577
-40,1736,1776,-844,-905,1757,938,1870,2089,2071,1957,1715
-12,1820,1830,-898,-917,1829,884,1834,2167,2185,2083,1829
-17,1904,1920,-940,-965,1913,818,1744,2203,2263,2173,1913
-34,1952,1986,-958,-1007,1967,734,1588,2173,2269,2185,1931
-52,1922,1974,-934,-1013,1949,644,1408,2083,2191,2113,1877
-64,1790,1854,-862,-959,1823,542,1228,1939,2035,1963,1733
-70,1592,1662,-760,-863,1625,428,1036,1759,1837,1765,1553
-94,1358,1452,-634,-773,1403,332,808,1495,1585,1507,1313
-130,1118,1248,-496,-689,1181,236,532,1183,1291,1213,1067
-166,896,1062,-364,-611,977,152,268,853,997,925,821
-196,686,882,-244,-539,785,80,53,571,727,661,605
-214,500,714,-142,-461,605,10,-96,349,499,445,413
-226,344,570,-58,-395,455,-50,-222,169,319,271,251
-220,218,438,2,-329,329,-92,-318,37,175,139,131
-208,110,318,48,-263,215,-134,-378,-57,61,37,41
-196,32,228,84,-209,131,-164,-408,-129,-21,-41,-25
-172,-21,150,96,-161,65,-176,-426,-183,-81,-87,-71
-148,-68,78,108,-113,5,-176,-420,-219,-117,-123,-107
-124,-98,24,108,-77,-35,-170,-408,-243,-141,-153,-137
-106,-122,-16,108,-47,-71,-158,-390,-261,-159,-183,-161
-94,-146,-52,114,-23,-101,-146,-354,-267,-177,-195,-179
-82,-158,-76,114,-6,-119,-122,-324,-261,-189,-207,-185
-70,-164,-94,114,11,-131,-104,-294,-249,-195,-213,-191
-58,-176,-118,114,29,-149,-92,-270,-231,-189,-219,-197
-46,-182,-136,108,41,-161,-86,-252,-219,-189,-213,-191
-40,-182,-142,108,47,-161,-80,-234,-207,-183,-207,-191
-34,-182,-148,102,53,-167,-74,-234,-201,-177,-207,-185
-34,-188,-154,108,59,-173,-74,-234,-207,-177,-201,-191
-34,-188,-154,108,59,-173,-68,-228,-207,-177,-201,-191
-34,-188,-154,108,59,-173,-68,-222,-213,-183,-207,-197
-34,-194,-160,108,59,-179,-62,-216,-213,-189,-207,-203
-34,-194,-160,108,59,-179,-62,-216,-213,-195,-213,-203
-34,-200,-166,114,65,-185,-56,-210,-207,-195,-213,-203
-28,-194,-166,108,65,-179,-56,-204,-207,-189,-213,-203
-22,-194,-172,102,71,-185,-50,-198,-201,-189,-207,-203
-17,-194,-178,102,77,-185,-50,-198,-195,-189,-207,-197
-17,-188,-172,102,77,-179,-50,-198,-195,-189,-201,-197
-12,-176,-166,96,77,-167,-56,-198,-195,-189,-201,-197
-6,-176,-172,90,83,-173,-56,-192,-189,-189,-201,-191
-12,-176,-166,96,77,-167,-50,-186,-189,-189,-201,-197
-17,-182,-166,96,71,-173,-50,-186,-189,-183,-201,-191
-17,-176,-160,96,71,-167,-56,-186,-189,-183,-201,-191
-17,-176,-160,96,71,-167,-56,-180,-183,-183,-207,-191
-12,-182,-172,96,77,-173,-50,-174,-183,-171,-201,-191
-6,-176,-172,90,83,-173,-50,-174,-177,-171,-201,-185
-6,-176,-172,90,83,-173,-56,-174,-177,-171,-195,-185
-6,-188,-184,96,89,-185,-50,-174,-177,-165,-189,-179
0,-188,-190,96,95,-185,-50,-168,-177,-165,-189,-179
0,-182,-184,90,89,-179,-56,-168,-177,-165,-189,-179
0,-170,-172,84,83,-167,-62,-168,-183,-171,-189,-179
6,-164,-172,78,89,-167,-68,-174,-183,-177,-195,-179
6,-164,-172,78,89,-167,-74,-180,-189,-177,-195,-179
6,-164,-172,78,89,-167,-74,-174,-183,-177,-195,-179
12,-170,-184,78,95,-173,-74,-174,-183,-177,-195,-179
18,-170,-190,72,101,-179,-74,-174,-183,-171,-195,-179
18,-170,-190,72,101,-179,-74,-174,-177,-171,-195,-179
18,-164,-184,72,101,-173,-80,-168,-183,-171,-195,-179
24,-164,-190,72,107,-173,-80,-168,-183,-171,-189,-179
24,-152,-178,66,101,-161,-86,-174,-189,-171,-189,-173
24,-152,-178,66,101,-161,-92,-174,-189,-165,-183,-173
24,-152,-178,66,101,-161,-92,-174,-183,-165,-183,-173
24,-152,-178,66,101,-161,-98,-174,-183,-165,-183,-173
24,-158,-184,66,101,-167,-104,-174,-183,-165,-171,-173
30,-164,-196,66,113,-179,-104,-168,-183,-165,-171,-173
30,-164,-196,66,113,-179,-104,-174,-183,-165,-171,-173
30,-152,-184,60,107,-167,-110,-174,-183,-165,-171,-179
42,-146,-190,48,113,-167,-116,-168,-177,-153,-171,-173
42,-158,-202,54,119,-179,-116,-168,-177,-147,-165,-167
48,-158,-208,54,125,-179,-116,-168,-171,-147,-165,-167
54,-164,-220,54,137,-191,-122,-168,-171,-147,-165,-161
54,-158,-214,48,131,-185,-122,-168,-171,-147,-165,-161
60,-152,-214,48,137,-179,-128,-162,-171,-147,-165,-161
48,-152,-202,54,125,-173,-128,-162,-171,-147,-165,-161
48,-146,-196,48,119,-167,-128,-156,-165,-147,-165,-155
54,-152,-208,48,131,-179,-128,-156,-159,-141,-159,-161
54,-158,-214,48,131,-185,-128,-150,-153,-141,-159,-149
60,-152,-214,48,137,-179,-134,-144,-153,-141,-153,-149
66,-146,-214,36,137,-179,-134,-144,-147,-135,-147,-143
72,-140,-214,36,143,-173,-134,-138,-141,-129,-141,-143
78,-146,-226,30,149,-185,-140,-132,-135,-123,-141,-137
84,-140,-226,30,155,-179,-140,-132,-135,-123,-135,-137
90,-134,-226,19,155,-179,-140,-126,-129,-117,-135,-137
96,-134,-232,19,161,-179,-140,-120,-123,-111,-123,-131
102,-134,-238,14,167,-185,-140,-120,-117,-105,-123,-131
102,-134,-238,14,167,-185,-146,-114,-117,-105,-111,-125
108,-134,-244,14,173,-185,-152,-108,-111,-99,-105,-119
114,-134,-250,8,179,-191,-158,-108,-105,-99,-99,-119
120,-128,-250,8,185,-185,-170,-108,-99,-93,-93,-113
126,-128,-256,2,191,-191,-170,-96,-99,-93,-87,-107
132,-116,-250,-4,191,-179,-176,-96,-93,-93,-87,-107
138,-110,-250,-16,191,-179,-182,-96,-93,-87,-81,-101
144,-104,-250,-16,197,-173,-188,-96,-87,-81,-75,-95
150,-104,-256,-22,203,-179,-194,-90,-81,-69,-63,-83
162,-98,-262,-34,209,-179,-200,-90,-75,-63,-57,-77
174,-86,-262,-46,215,-173,-212,-84,-69,-57,-46,-65
180,-74,-256,-52,215,-161,-218,-78,-69,-45,-41,-60
186,-62,-250,-64,215,-155,-230,-72,-57,-39,-29,-49
192,-50,-244,-70,215,-143,-236,-66,-52,-27,-17,-37
204,-44,-250,-76,227,-143,-242,-60,-47,-15,1,-25
210,-38,-250,-88,227,-143,-248,-54,-29,-3,13,-13
216,-26,-244,-94,227,-131,-254,-42,-17,9,25,-1
228,-21,-250,-100,239,-131,-266,-36,-5,21,43,17
240,-21,-262,-106,251,-137,-266,-30,13,39,61,35
246,-16,-262,-112,257,-137,-278,-30,25,49,73,53
258,-4,-262,-124,263,-131,-290,-18,37,61,91,71
264,14,-250,-136,257,-113,-308,-12,49,73,109,95
276,32,-244,-148,263,-101,-314,0,55,85,127,107
282,50,-232,-166,257,-89,-320,12,67,103,145,125
294,62,-232,-178,263,-83,-326,18,79,115,157,131
300,80,-220,-184,263,-65,-332,30,91,127,169,143
306,92,-214,-196,263,-59,-338,36,97,133,187,149
312,98,-214,-202,263,-53,-344,48,109,151,199,167
312,110,-202,-208,257,-41,-350,53,121,163,217,179
318,122,-196,-220,257,-35,-350,58,133,181,235,197
324,134,-190,-226,257,-23,-356,64,151,199,247,215
330,146,-184,-238,257,-17,-362,70,163,211,265,233
330,152,-178,-238,257,-12,-362,76,181,229,283,251
330,164,-166,-244,251,-1,-362,94,193,241,295,257
336,194,-142,-262,239,29,-362,100,199,247,313,269
336,212,-124,-268,233,47,-362,112,211,259,331,281
336,218,-118,-274,227,53,-362,124,217,277,343,299
342,230,-112,-286,227,59,-362,130,229,289,361,311
342,236,-106,-286,227,65,-356,136,241,301,367,323
342,242,-100,-292,221,71,-356,142,247,313,379,329
342,242,-100,-292,221,71,-350,154,253,319,385,341
342,242,-100,-292,221,71,-350,160,259,325,391,347
336,254,-82,-292,209,89,-344,166,265,331,397,353
324,260,-64,-286,197,101,-338,172,271,331,397,353
318,266,-52,-292,185,107,-326,184,283,337,403,353
312,266,-46,-286,179,113,-314,190,283,337,397,353
306,260,-46,-280,179,107,-308,202,289,337,397,353
294,254,-40,-274,167,107,-296,208,289,343,391,341
288,248,-40,-262,167,107,-284,202,283,337,385,329
276,236,-40,-250,161,101,-272,202,277,325,373,317
270,224,-46,-244,161,89,-254,202,271,313,355,299
258,212,-46,-232,155,83,-242,196,265,301,343,287
246,200,-46,-220,149,77,-224,196,253,289,325,263
228,182,-46,-202,137,71,-206,190,241,271,307,251
216,170,-46,-190,131,65,-188,178,229,253,289,233
198,158,-40,-178,119,59,-170,166,217,235,265,215
186,140,-46,-160,119,47,-158,160,205,211,241,197
174,122,-52,-148,113,35,-146,148,193,193,217,179
156,116,-40,-130,101,41,-140,136,169,175,193,149
144,98,-46,-118,95,29,-128,118,151,157,169,125
132,68,-64,-94,101,5,-110,112,133,139,151,107
114,50,-64,-82,89,-7,-92,100,121,127,133,83
108,38,-70,-70,89,-12,-80,82,109,115,115,65
96,26,-70,-58,83,-17,-68,70,91,97,97,47
90,14,-76,-52,83,-29,-50,64,79,79,79,41
72,2,-70,-34,71,-29,-44,53,67,67,61,29
54,-16,-70,-16,65,-41,-32,48,49,49,43,11
42,-32,-76,-4,59,-53,-20,42,43,44,31,5
30,-44,-76,8,53,-59,-14,36,31,27,13,-19
24,-44,-70,14,47,-53,-8,18,19,9,1,-37
12,-44,-58,19,35,-47,-2,12,7,-3,-17,-55
6,-50,-58,19,29,-53,-2,0,-5,-15,-29,-60
0,-56,-58,30,29,-53,4,-6,-11,-21,-35,-71
-6,-62,-58,30,23,-59,10,-18,-17,-33,-46,-83
-12,-68,-58,42,23,-59,10,-24,-29,-39,-51,-89
-12,-74,-64,42,23,-65,4,-30,-35,-51,-57,-95
-17,-80,-64,48,23,-71,4,-36,-41,-57,-69,-107
-22,-80,-58,48,17,-71,4,-42,-47,-57,-75,-113
-22,-80,-58,48,17,-71,10,-48,-52,-63,-81,-119
-28,-86,-58,54,11,-71,15,-54,-52,-69,-87,-131
-34,-86,-52,54,5,-71,15,-66,-57,-69,-93,-131
-34,-92,-58,60,11,-77,20,-72,-63,-75,-99,-137
-34,-92,-58,60,11,-77,20,-72,-69,-81,-99,-137
-40,-104,-64,72,11,-83,26,-78,-75,-87,-105,-137
-46,-110,-64,72,5,-89,26,-84,-75,-87,-111,-143
-46,-116,-70,78,11,-95,20,-90,-81,-87,-111,-149
-46,-116,-70,78,11,-95,20,-90,-81,-93,-111,-155
-46,-116,-70,78,11,-95,15,-96,-81,-93,-117,-155
-46,-110,-64,72,5,-89,20,-96,-81,-99,-117,-161
-46,-116,-70,78,11,-95,20,-96,-87,-105,-117,-155
-46,-122,-76,78,11,-101,20,-96,-81,-99,-117,-155
-46,-122,-76,78,11,-101,26,-96,-81,-93,-117,-155
-46,-128,-82,84,17,-107,32,-96,-81,-93,-117,-155
-52,-134,-82,90,11,-107,32,-96,-87,-93,-117,-155
-58,-134,-76,90,5,-107,32,-96,-87,-99,-117,-149
-58,-134,-76,90,5,-107,32,-96,-93,-99,-117,-155
-58,-134,-76,90,5,-107,32,-102,-93,-99,-117,-155
-52,-128,-76,90,11,-101,32,-108,-93,-105,-123,-161
-52,-122,-70,84,5,-95,32,-108,-87,-105,-123,-155
-46,-116,-70,78,11,-95,32,-102,-87,-105,-123,-155
-46,-116,-70,78,11,-95,32,-96,-87,-105,-129,-155
-46,-116,-70,78,11,-95,32,-96,-87,-105,-129,-155
-52,-116,-64,84,5,-89,32,-102,-93,-105,-129,-155
-52,-116,-64,84,5,-89,32,-102,-87,-105,-129,-155
-52,-116,-64,84,5,-89,26,-102,-87,-105,-123,-155
-58,-110,-52,78,-6,-83,26,-102,-87,-99,-129,-155
-58,-116,-58,84,-1,-89,26,-102,-87,-105,-129,-155
-52,-116,-64,84,5,-89,26,-96,-87,-99,-129,-149
-52,-128,-76,90,11,-101,32,-90,-81,-99,-129,-143
-46,-128,-82,84,17,-107,38,-90,-81,-93,-129,-143
-46,-116,-70,78,11,-95,38,-90,-81,-93,-129,-143
-52,-116,-64,84,5,-89,38,-90,-81,-93,-129,-149
-46,-116,-70,78,11,-95,38,-90,-81,-93,-129,-143
-46,-116,-70,78,11,-95,38,-90,-81,-93,-129,-149
-40,-110,-70,72,11,-89,32,-90,-87,-93,-129,-143
-40,-110,-70,72,11,-89,26,-90,-87,-93,-129,-149
-40,-122,-82,78,17,-101,26,-90,-87,-99,-123,-149
-40,-110,-70,72,11,-89,20,-96,-93,-105,-129,-149
-40,-110,-70,72,11,-89,20,-102,-93,-105,-129,-155
-40,-104,-64,72,11,-83,15,-108,-93,-111,-129,-149
-34,-98,-64,60,11,-83,15,-102,-93,-105,-129,-149
-34,-98,-64,60,11,-83,15,-102,-93,-105,-129,-149
-40,-98,-58,66,5,-77,10,-108,-93,-105,-129,-149
-34,-98,-64,60,11,-83,10,-108,-93,-105,-123,-149
-34,-98,-64,60,11,-83,10,-108,-93,-105,-123,-155
-34,-104,-70,66,17,-89,10,-114,-93,-99,-123,-149
-40,-104,-64,72,11,-83,10,-114,-99,-99,-129,-149
-34,-104,-70,66,17,-89,10,-114,-99,-105,-129,-149
-34,-104,-70,66,17,-89,15,-114,-99,-105,-129,-143
-34,-110,-76,66,17,-95,15,-108,-99,-105,-129,-149
-28,-98,-70,60,17,-83,15,-108,-99,-105,-123,-149
-28,-92,-64,60,17,-77,15,-114,-99,-105,-123,-155
-28,-92,-64,60,17,-77,10,-120,-99,-105,-123,-149
-28,-92,-64,60,17,-77,10,-114,-99,-111,-129,-155
-28,-98,-70,60,17,-83,10,-114,-99,-111,-129,-149
-28,-98,-70,60,17,-83,10,-114,-99,-111,-129,-149
-34,-98,-64,60,11,-83,4,-120,-99,-105,-135,-155
-28,-98,-70,60,17,-83,4,-120,-99,-105,-135,-149
-28,-98,-70,60,17,-83,4,-120,-105,-105,-135,-149
-28,-92,-64,60,17,-77,-2,-126,-111,-111,-141,-149
-22,-104,-82,60,29,-95,-2,-126,-111,-111,-141,-149
-17,-110,-94,60,35,-101,4,-114,-105,-111,-141,-149
-17,-104,-88,60,35,-95,4,-120,-111,-117,-141,-149
-17,-110,-94,60,35,-101,4,-120,-117,-117,-135,-143
-17,-116,-100,66,41,-107,10,-126,-111,-117,-135,-143
-17,-116,-100,66,41,-107,10,-126,-111,-117,-135,-137
-17,-116,-100,66,41,-107,4,-126,-111,-117,-135,-137
-17,-116,-100,66,41,-107,4,-126,-111,-117,-135,-143
-17,-116,-100,66,41,-107,4,-120,-111,-117,-135,-137
-12,-116,-106,66,47,-107,4,-120,-111,-117,-135,-143
-12,-116,-106,66,47,-107,4,-120,-111,-123,-135,-143
-12,-110,-100,60,41,-101,4,-126,-111,-123,-141,-149
-6,-104,-100,54,47,-101,10,-132,-111,-123,-147,-143
-6,-110,-106,54,47,-107,10,-132,-111,-129,-147,-143
-12,-104,-94,60,41,-95,10,-132,-111,-123,-147,-149
-12,-104,-94,60,41,-95,10,-132,-111,-129,-147,-149
-17,-110,-94,60,35,-101,10,-132,-111,-129,-147,-149
-17,-110,-94,60,35,-101,10,-132,-111,-129,-147,-143
-17,-110,-94,60,35,-101,10,-138,-117,-129,-147,-149
-17,-116,-100,66,41,-107,10,-138,-117,-129,-147,-149
-17,-116,-100,66,41,-107,4,-138,-123,-129,-153,-149
-17,-116,-100,66,41,-107,-2,-144,-123,-129,-153,-149
-17,-116,-100,66,41,-107,4,-144,-123,-129,-153,-149
-12,-110,-100,60,41,-101,-2,-138,-123,-135,-153,-155
-12,-110,-100,60,41,-101,-2,-138,-123,-135,-153,-155
-12,-116,-106,66,47,-107,4,-138,-123,-135,-153,-155
-12,-116,-106,66,47,-107,4,-138,-123,-141,-153,-149
-12,-116,-106,66,47,-107,4,-138,-123,-141,-153,-155
-12,-128,-118,72,53,-119,4,-138,-123,-141,-153,-149
-12,-140,-130,78,59,-131,10,-144,-123,-141,-153,-149
-17,-140,-124,78,53,-131,10,-144,-129,-141,-159,-155
-17,-140,-124,78,53,-131,4,-144,-129,-141,-165,-155
-17,-134,-118,72,47,-125,4,-144,-129,-141,-165,-161
-17,-122,-106,66,41,-113,-2,-150,-141,-141,-165,-167
-22,-122,-100,66,35,-113,-8,-150,-141,-141,-165,-161
-28,-128,-100,78,35,-113,-8,-150,-141,-141,-159,-161
-28,-128,-100,78,35,-113,-14,-156,-141,-147,-159,-161
-28,-128,-100,78,35,-113,-14,-156,-141,-147,-159,-155
-28,-128,-100,78,35,-113,-14,-150,-141,-147,-165,-161
-22,-134,-112,72,41,-125,-8,-144,-135,-141,-165,-155
-22,-146,-124,78,47,-137,-8,-144,-135,-141,-165,-155
-22,-152,-130,84,53,-143,-2,-144,-129,-141,-165,-155
-17,-152,-136,84,59,-143,-2,-144,-129,-141,-159,-155
-17,-152,-136,84,59,-143,-2,-144,-129,-147,-159,-161
-17,-146,-130,78,53,-137,-2,-150,-135,-147,-159,-155
-22,-140,-118,78,47,-131,4,-156,-141,-153,-165,-161
-22,-140,-118,78,47,-131,4,-150,-141,-153,-165,-155
-28,-140,-112,84,41,-125,4,-150,-141,-153,-165,-155
-22,-140,-118,78,47,-131,-2,-150,-141,-153,-171,-155
-22,-146,-124,78,47,-137,-2,-150,-141,-153,-171,-155
-22,-146,-124,78,47,-137,4,-150,-141,-153,-165,-155
-17,-146,-130,78,53,-137,4,-150,-141,-141,-165,-155
-17,-146,-130,78,53,-137,-2,-150,-141,-141,-165,-161
-22,-146,-124,78,47,-137,-2,-150,-141,-147,-165,-161
-22,-146,-124,78,47,-137,4,-144,-135,-147,-159,-161
-22,-146,-124,78,47,-137,4,-144,-135,-147,-165,-155
-22,-152,-130,84,53,-143,4,-144,-135,-147,-165,-155
-22,-146,-124,78,47,-137,4,-144,-141,-153,-165,-149
-22,-146,-124,78,47,-137,4,-144,-141,-153,-165,-149
-22,-146,-124,78,47,-137,4,-150,-141,-153,-165,-155
-17,-146,-130,78,53,-137,10,-150,-135,-147,-153,-149
-22,-152,-130,84,53,-143,10,-150,-141,-147,-153,-155
-22,-152,-130,84,53,-143,4,-150,-141,-153,-159,-155
-22,-158,-136,84,53,-149,4,-150,-147,-153,-159,-161
-22,-158,-136,84,53,-149,-2,-150,-153,-153,-159,-155
-28,-170,-142,96,53,-155,4,-150,-147,-153,-159,-155
-28,-158,-130,90,47,-143,-2,-150,-147,-153,-159,-155
-28,-164,-136,96,53,-149,-2,-150,-147,-147,-159,-149
-34,-158,-124,90,41,-143,-2,-150,-147,-147,-159,-149
-40,-158,-118,96,35,-137,4,-156,-147,-147,-159,-149
-40,-164,-124,102,41,-143,4,-150,-147,-141,-159,-149
-40,-170,-130,102,41,-149,4,-150,-147,-141,-153,-149
-40,-170,-130,102,41,-149,-2,-150,-147,-147,-159,-149
-40,-170,-130,102,41,-149,-2,-150,-147,-153,-159,-155
-34,-170,-136,96,47,-155,-2,-156,-147,-153,-159,-155
-34,-170,-136,96,47,-155,-8,-156,-147,-159,-159,-155
-34,-170,-136,96,47,-155,-2,-156,-147,-153,-159,-155
-34,-164,-130,96,47,-149,-2,-162,-153,-153,-165,-155
-40,-152,-112,96,35,-131,-2,-162,-153,-153,-165,-155
-40,-152,-112,96,35,-131,-2,-162,-153,-159,-165,-155
-34,-158,-124,90,41,-143,4,-156,-153,-159,-165,-149
-34,-158,-124,90,41,-143,-2,-156,-147,-153,-165,-143
-28,-164,-136,96,53,-149,-2,-156,-147,-153,-165,-143
-34,-164,-130,96,47,-149,-2,-156,-147,-159,-165,-143
-34,-164,-130,96,47,-149,-2,-156,-147,-159,-159,-149
-34,-170,-136,96,47,-155,4,-156,-153,-165,-159,-143
-34,-170,-136,96,47,-155,4,-150,-153,-159,-159,-149
-34,-170,-136,96,47,-155,10,-150,-147,-159,-159,-143
-34,-170,-136,96,47,-155,10,-150,-153,-159,-165,-143
-40,-170,-130,102,41,-149,10,-150,-153,-153,-165,-149
-40,-170,-130,102,41,-149,10,-150,-153,-153,-159,-149
-34,-164,-130,96,47,-149,10,-150,-153,-153,-159,-149
-34,-164,-130,96,47,-149,10,-150,-159,-153,-159,-149
-40,-164,-124,102,41,-143,10,-150,-165,-153,-159,-155
-40,-164,-124,102,41,-143,10,-150,-165,-153,-159,-155
-40,-170,-130,102,41,-149,10,-150,-159,-147,-159,-149
-40,-170,-130,102,41,-149,4,-156,-159,-147,-159,-149
-40,-164,-124,102,41,-143,4,-150,-165,-147,-159,-149
-40,-164,-124,102,41,-143,4,-150,-165,-147,-153,-149
-40,-164,-124,102,41,-143,4,-150,-165,-153,-153,-143
-46,-164,-118,102,35,-143,4,-150,-165,-153,-153,-149
-46,-170,-124,102,35,-149,4,-150,-165,-153,-153,-143
-40,-170,-130,102,41,-149,10,-150,-159,-153,-153,-149
-34,-176,-142,102,53,-161,10,-150,-159,-147,-153,-143
-34,-182,-148,102,53,-167,10,-150,-159,-153,-153,-143
-34,-176,-142,102,53,-161,10,-156,-165,-153,-159,-149
-34,-164,-130,96,47,-149,4,-156,-171,-165,-165,-149
-34,-152,-118,90,41,-137,-2,-156,-165,-165,-171,-149
-34,-158,-124,90,41,-143,4,-156,-165,-165,-165,-143
-34,-158,-124,90,41,-143,10,-156,-159,-159,-165,-149
-34,-158,-124,90,41,-143,4,-156,-153,-153,-165,-149
-34,-158,-124,90,41,-143,4,-156,-153,-153,-165,-143
-40,-152,-112,96,35,-131,4,-156,-159,-159,-171,-155
-34,-152,-118,90,41,-137,10,-156,-159,-153,-171,-149
-40,-164,-124,102,41,-143,10,-156,-159,-153,-165,-155
-40,-176,-136,108,47,-155,15,-150,-153,-147,-165,-149
-40,-176,-136,108,47,-155,15,-144,-153,-147,-165,-149
-34,-170,-136,96,47,-155,15,-150,-153,-147,-165,-149
-34,-152,-118,90,41,-137,10,-156,-153,-153,-165,-149
-34,-152,-118,90,41,-137,4,-156,-153,-159,-165,-149
-34,-152,-118,90,41,-137,4,-156,-153,-153,-165,-143
-28,-152,-124,90,47,-137,4,-156,-165,-153,-165,-149
-28,-152,-124,90,47,-137,10,-162,-165,-153,-165,-149
-34,-152,-118,90,41,-137,15,-156,-165,-153,-165,-149
-28,-146,-118,84,41,-131,15,-156,-165,-153,-165,-149
-34,-140,-106,84,35,-125,4,-162,-171,-153,-165,-149
-34,-140,-106,84,35,-125,4,-156,-171,-153,-171,-149
-34,-146,-112,84,35,-131,4,-156,-171,-153,-171,-143
-34,-146,-112,84,35,-131,4,-156,-171,-153,-171,-149
-28,-146,-118,84,41,-131,4,-156,-171,-153,-171,-149
-22,-140,-118,78,47,-131,10,-150,-165,-147,-171,-149
-17,-140,-124,78,53,-131,10,-156,-165,-147,-171,-149
-12,-140,-130,78,59,-131,10,-156,-171,-147,-165,-149
-12,-146,-136,78,59,-137,10,-156,-165,-147,-165,-149
-12,-146,-136,78,59,-137,10,-156,-165,-147,-159,-149
-12,-146,-136,78,59,-137,15,-150,-159,-141,-153,-149
-17,-146,-130,78,53,-137,20,-138,-153,-135,-147,-137
-12,-134,-124,72,53,-125,26,-126,-147,-129,-147,-137
-6,-128,-124,66,59,-125,20,-120,-141,-123,-141,-131
0,-122,-124,60,59,-119,20,-114,-135,-123,-141,-125
12,-116,-130,54,71,-119,20,-108,-129,-117,-135,-125
18,-116,-136,48,77,-125,20,-96,-123,-111,-129,-125
24,-116,-142,48,83,-125,15,-90,-117,-111,-123,-125
30,-110,-142,36,83,-125,10,-84,-117,-105,-117,-119
36,-110,-148,36,89,-125,10,-84,-117,-99,-117,-119
36,-110,-148,36,89,-125,4,-84,-117,-99,-117,-113
36,-104,-142,36,89,-119,-2,-90,-117,-99,-117,-113
42,-98,-142,24,89,-119,-8,-90,-117,-99,-123,-107
42,-104,-148,30,95,-125,-8,-96,-117,-99,-123,-107
48,-104,-154,30,101,-125,-8,-96,-123,-105,-129,-113
48,-110,-160,30,101,-131,-8,-108,-129,-111,-135,-113
48,-110,-160,30,101,-131,-14,-114,-135,-123,-135,-119
48,-110,-160,30,101,-131,-20,-126,-141,-123,-141,-119
48,-116,-166,36,107,-137,-20,-132,-147,-135,-147,-131
48,-128,-178,42,113,-149,-20,-138,-147,-135,-153,-131
42,-140,-184,48,113,-161,-26,-144,-153,-135,-153,-143
42,-146,-190,48,113,-167,-26,-144,-159,-141,-159,-143
42,-152,-196,54,119,-173,-26,-150,-165,-141,-159,-143
48,-152,-202,54,125,-173,-26,-156,-171,-147,-165,-143
48,-146,-196,48,119,-167,-26,-156,-171,-147,-165,-143
42,-152,-196,54,119,-173,-20,-156,-177,-153,-165,-143
36,-152,-190,60,113,-167,-20,-156,-177,-153,-165,-137
30,-170,-202,66,113,-185,-8,-144,-171,-147,-159,-143
24,-182,-208,78,113,-191,-8,-144,-171,-147,-159,-137
18,-170,-190,72,101,-179,-14,-144,-171,-147,-159,-149
12,-164,-178,78,95,-167,-20,-150,-177,-147,-165,-149
0,-164,-166,84,83,-161,-14,-156,-171,-141,-165,-149
-6,-164,-160,84,77,-161,-8,-156,-171,-141,-165,-149
-17,-164,-148,90,65,-155,-8,-168,-177,-147,-171,-155
-17,-158,-142,84,59,-149,-14,-174,-183,-153,-177,-155
-17,-158,-142,84,59,-149,-14,-174,-189,-159,-183,-155
-22,-158,-136,84,53,-149,-14,-180,-195,-159,-183,-161
-28,-158,-130,90,47,-143,-14,-180,-195,-165,-183,-155
-34,-170,-136,96,47,-155,-14,-180,-195,-165,-183,-161
-40,-176,-136,108,47,-155,-14,-174,-189,-165,-183,-155
-46,-176,-130,108,41,-155,-14,-168,-189,-159,-177,-155
-46,-164,-118,102,35,-143,-8,-162,-183,-153,-165,-149
-46,-152,-106,96,29,-131,-2,-150,-177,-141,-153,-131
-52,-146,-94,96,17,-119,10,-138,-165,-129,-141,-119
-52,-122,-70,84,5,-95,15,-126,-153,-111,-135,-107
-58,-104,-46,78,-6,-77,26,-114,-141,-99,-123,-95
-64,-92,-28,78,-17,-59,32,-102,-123,-81,-105,-77
-70,-74,-5,66,-35,-41,50,-84,-105,-69,-87,-71
-76,-62,12,66,-47,-23,62,-66,-87,-51,-75,-60
-82,-50,30,60,-59,-12,74,-48,-69,-39,-63,-49
-94,-44,48,66,-71,-1,86,-36,-57,-33,-51,-43
-100,-44,54,72,-77,5,98,-18,-47,-21,-46,-25
-106,-32,72,66,-89,17,104,-6,-35,-15,-41,-19
-106,-21,84,60,-95,29,110,12,-23,-3,-29,-7
-112,-16,96,66,-101,41,122,30,-5,15,-17,5
-100,8,108,48,-101,59,122,53,13,27,1,17
-100,26,126,36,-113,77,134,70,37,44,19,35
-100,50,150,24,-125,101,140,94,55,61,37,41
-94,68,162,14,-125,113,152,130,73,85,61,65
-94,80,174,8,-131,125,170,178,115,115,91,89
-94,98,192,-4,-143,143,194,226,157,151,121,119
-88,128,216,-16,-149,173,224,280,205,181,151,137
-88,164,252,-34,-167,209,254,340,253,211,175,161
-100,194,294,-46,-197,245,302,406,307,253,205,185
-118,236,354,-58,-233,293,362,484,367,301,241,209
-136,278,414,-70,-275,347,440,568,433,349,277,233
-160,332,492,-82,-323,413,512,670,511,409,325,269
-178,404,582,-112,-377,491,584,784,607,487,391,323
-184,494,678,-154,-431,587,644,910,715,583,481,389
-196,602,798,-202,-497,701,698,1048,835,697,583,485
-202,710,912,-256,-557,809,752,1186,973,835,709,599
-208,836,1044,-310,-623,941,818,1336,1123,985,859,737
-208,980,1188,-382,-695,1085,878,1480,1291,1153,1027,899
-196,1148,1344,-472,-767,1247,926,1612,1465,1339,1219,1079
-172,1316,1488,-568,-827,1403,974,1726,1639,1531,1423,1271
-148,1478,1626,-664,-887,1553,1004,1816,1807,1717,1615,1451
-112,1610,1722,-748,-917,1667,1004,1864,1945,1879,1789,1607
-52,1718,1770,-832,-911,1745,968,1876,2059,2023,1945,1733
-17,1808,1824,-892,-917,1817,920,1852,2131,2137,2071,1847
-17,1892,1908,-934,-959,1901,866,1768,2161,2215,2155,1931
-34,1934,1968,-952,-1001,1949,806,1636,2131,2233,2179,1961
-64,1892,1956,-910,-1007,1925,734,1474,2047,2161,2107,1913
-76,1760,1836,-838,-953,1799,644,1306,1909,2023,1975,1793
-88,1574,1662,-742,-875,1619,530,1114,1729,1831,1777,1607
-106,1346,1452,-622,-779,1397,422,880,1489,1579,1525,1385
-142,1118,1260,-490,-701,1187,326,598,1177,1279,1231,1127
-178,902,1080,-364,-629,989,230,316,853,979,937,881
-214,698,912,-244,-563,803,140,88,571,715,673,647
-226,506,732,-142,-479,617,62,-72,349,493,457,443
-238,344,582,-52,-407,461,4,-198,169,325,277,287
-238,206,444,14,-341,323,-38,-282,31,187,145,161
-220,92,312,66,-263,203,-74,-330,-57,85,43,77
-202,8,210,96,-203,107,-98,-366,-129,15,-29,11
-184,-44,138,114,-161,47,-116,-378,-183,-45,-75,-43
-160,-86,72,120,-119,-7,-116,-378,-213,-87,-111,-71
-142,-122,18,126,-83,-53,-116,-366,-237,-117,-135,-95
-118,-140,-22,126,-47,-83,-104,-348,-249,-141,-153,-113
-100,-152,-52,126,-23,-101,-98,-324,-261,-159,-171,-125
-94,-164,-70,126,-11,-119,-86,-294,-261,-171,-183,-143
-82,-176,-94,126,5,-137,-68,-258,-249,-183,-195,-149
-76,-194,-118,132,17,-155,-50,-234,-237,-177,-195,-149
-64,-194,-130,126,29,-161,-44,-216,-225,-171,-189,-155
-58,-194,-136,120,35,-167,-32,-204,-213,-165,-183,-149
-58,-182,-124,114,29,-155,-32,-198,-213,-153,-183,-155
-52,-170,-118,108,29,-143,-32,-198,-213,-153,-183,-155
-52,-170,-118,108,29,-143,-32,-192,-213,-153,-183,-149
-46,-170,-124,102,35,-149,-26,-192,-213,-159,-183,-149
-46,-182,-136,108,41,-161,-20,-186,-207,-159,-183,-149
-40,-194,-154,114,53,-173,-20,-174,-207,-159,-189,-149
-40,-200,-160,120,59,-179,-26,-174,-201,-165,-189,-155
-40,-206,-166,120,59,-185,-26,-168,-195,-165,-195,-155
-40,-206,-166,120,59,-185,-26,-162,-189,-165,-189,-161
-40,-200,-160,120,59,-179,-26,-156,-183,-159,-183,-155
-34,-194,-160,108,59,-179,-20,-156,-177,-159,-183,-149
-34,-176,-142,102,53,-161,-20,-156,-183,-165,-183,-149
-28,-176,-148,102,59,-161,-20,-150,-183,-165,-183,-149
-28,-170,-142,96,53,-155,-20,-150,-177,-159,-183,-143
-28,-170,-142,96,53,-155,-20,-144,-177,-153,-183,-143
-28,-182,-154,102,59,-167,-14,-138,-171,-153,-183,-143
-22,-194,-172,102,71,-185,-14,-132,-165,-153,-183,-143
-22,-194,-172,102,71,-185,-14,-132,-159,-147,-177,-143
-17,-194,-178,102,77,-185,-14,-132,-159,-147,-177,-137
-17,-188,-172,102,77,-179,-14,-132,-159,-147,-171,-137
-22,-188,-166,102,71,-179,-8,-126,-153,-141,-165,-125
-17,-188,-172,102,77,-179,-8,-126,-153,-141,-165,-131
-17,-176,-160,96,71,-167,-20,-126,-159,-147,-165,-131
-12,-170,-160,90,71,-161,-20,-126,-165,-147,-171,-125
-12,-164,-154,90,71,-155,-26,-132,-165,-153,-171,-131
-12,-170,-160,90,71,-161,-32,-132,-171,-153,-177,-125
-12,-176,-166,96,77,-167,-38,-126,-171,-147,-177,-125
-12,-182,-172,96,77,-173,-38,-126,-177,-147,-171,-119
-12,-176,-166,96,77,-167,-38,-126,-177,-147,-171,-119
-12,-176,-166,96,77,-167,-38,-132,-183,-141,-165,-119
-12,-176,-166,96,77,-167,-44,-132,-183,-141,-165,-119
-6,-170,-166,84,77,-167,-44,-132,-183,-141,-165,-119
-6,-170,-166,84,77,-167,-50,-132,-183,-141,-171,-125
0,-164,-166,84,83,-161,-56,-132,-183,-141,-165,-119
0,-158,-160,78,77,-155,-62,-132,-189,-147,-171,-125
6,-158,-166,72,83,-161,-62,-132,-183,-141,-165,-119
12,-164,-178,78,95,-167,-68,-126,-183,-141,-165,-113
12,-164,-178,78,95,-167,-68,-132,-183,-147,-165,-119
18,-158,-178,66,95,-167,-74,-132,-183,-147,-159,-119
18,-158,-178,66,95,-167,-74,-132,-183,-141,-159,-119
18,-158,-178,66,95,-167,-74,-126,-177,-141,-153,-113
24,-152,-178,66,101,-161,-74,-126,-177,-141,-153,-113
24,-146,-172,60,95,-155,-74,-120,-177,-135,-153,-113
30,-140,-172,54,101,-155,-80,-120,-171,-135,-153,-107
30,-140,-172,54,101,-155,-86,-120,-171,-135,-153,-107
36,-146,-184,54,107,-161,-86,-114,-165,-129,-153,-107
42,-152,-196,54,119,-173,-86,-108,-159,-123,-147,-101
48,-158,-208,54,125,-179,-86,-102,-159,-123,-147,-101
48,-164,-214,60,131,-185,-92,-96,-153,-123,-141,-95
48,-164,-214,60,131,-185,-92,-96,-153,-123,-141,-95
54,-164,-220,54,137,-191,-86,-90,-147,-117,-141,-95
60,-152,-214,48,137,-179,-86,-90,-141,-117,-135,-89
72,-134,-208,30,137,-167,-86,-84,-141,-111,-129,-89
72,-128,-202,30,137,-161,-86,-84,-135,-111,-129,-83
78,-128,-208,24,143,-167,-92,-78,-135,-105,-123,-83
84,-134,-220,24,149,-173,-92,-78,-129,-99,-117,-71
84,-140,-226,30,155,-179,-92,-72,-123,-99,-111,-65
90,-140,-232,24,161,-185,-98,-72,-117,-93,-105,-65
96,-146,-244,24,167,-191,-98,-66,-105,-87,-99,-60
102,-146,-250,19,173,-197,-98,-60,-105,-87,-99,-60
102,-128,-232,14,167,-179,-110,-66,-105,-87,-93,-60
108,-116,-226,8,167,-167,-116,-54,-105,-87,-87,-55
120,-110,-232,-4,173,-167,-128,-48,-93,-81,-81,-55
126,-104,-232,-10,179,-167,-134,-36,-87,-75,-75,-43
138,-104,-244,-16,191,-173,-140,-36,-87,-75,-69,-37
144,-104,-250,-16,197,-173,-140,-30,-81,-63,-63,-31
156,-92,-250,-28,203,-167,-146,-30,-75,-57,-57,-25
168,-86,-256,-40,209,-167,-158,-36,-75,-51,-51,-25
174,-74,-250,-52,209,-161,-170,-36,-75,-45,-46,-19
180,-68,-250,-52,215,-155,-176,-30,-69,-39,-35,-1
186,-62,-250,-64,215,-155,-182,-24,-63,-27,-23,11
192,-56,-250,-64,221,-149,-194,-18,-57,-15,-5,23
204,-44,-250,-76,227,-143,-200,-12,-52,-9,1,35
216,-32,-250,-88,233,-137,-206,-6,-41,3,19,53
228,-26,-256,-100,239,-137,-212,0,-35,15,31,65
234,-16,-250,-106,245,-131,-224,6,-29,27,43,71
246,-4,-250,-118,251,-125,-236,6,-17,39,61,83
252,14,-238,-130,245,-107,-242,12,-5,44,73,95
264,20,-244,-136,257,-107,-248,24,7,55,91,107
270,38,-232,-154,251,-95,-260,36,13,67,109,125
276,50,-226,-160,251,-83,-272,48,31,79,127,143
288,62,-226,-172,257,-77,-278,53,43,97,145,167
300,74,-226,-184,263,-71,-284,64,55,109,163,179
306,92,-214,-196,263,-59,-290,70,73,127,175,203
312,104,-208,-202,263,-47,-296,82,85,145,193,215
318,122,-196,-220,257,-35,-302,88,97,157,205,233
324,128,-196,-220,263,-29,-302,94,115,175,223,245
330,140,-190,-232,263,-23,-308,100,127,187,235,257
336,146,-190,-238,263,-17,-308,106,139,193,247,275
342,152,-190,-244,269,-17,-308,112,145,205,259,287
348,164,-184,-250,269,-7,-314,118,157,217,277,299
348,176,-172,-256,263,5,-314,130,169,229,289,317
354,194,-160,-274,257,17,-314,136,181,247,307,323
354,206,-148,-280,251,29,-314,154,193,259,325,341
354,218,-136,-286,245,41,-314,160,199,271,337,353
354,230,-124,-292,239,53,-314,166,205,283,349,359
354,242,-112,-298,233,65,-314,172,217,289,361,377
348,248,-100,-292,227,77,-314,184,229,301,367,383
342,248,-94,-292,221,77,-308,190,241,319,373,395
342,248,-94,-292,221,77,-302,202,247,325,379,401
342,254,-88,-298,215,83,-296,208,259,331,385,407
336,254,-82,-292,209,89,-290,220,265,343,391,413
336,266,-70,-298,203,101,-284,226,271,349,397,407
324,266,-58,-292,191,107,-272,232,277,355,397,407
312,272,-40,-286,179,119,-260,238,283,355,397,401
300,272,-28,-280,167,125,-248,238,283,343,391,389
294,260,-34,-274,167,113,-236,244,283,337,385,383
282,248,-34,-262,161,107,-218,244,277,331,373,377
270,236,-34,-250,155,101,-212,244,271,319,361,359
264,224,-40,-238,155,95,-200,244,259,307,343,347
252,212,-40,-226,149,89,-194,238,253,295,325,329
240,194,-46,-214,143,77,-176,232,241,283,307,317
228,188,-40,-202,137,77,-164,226,223,259,283,287
216,182,-34,-196,125,77,-140,214,211,241,259,269
198,164,-34,-178,119,65,-122,208,199,223,241,245
180,146,-34,-160,107,59,-110,202,187,205,217,221
162,134,-28,-148,95,53,-98,190,181,193,199,203
150,116,-34,-130,95,41,-86,178,163,175,175,185
132,98,-34,-112,83,35,-74,166,151,163,157,161
120,74,-46,-94,83,17,-62,154,139,145,139,149
114,68,-46,-88,83,11,-44,148,121,127,121,131
108,56,-52,-76,83,5,-32,142,109,109,103,107
96,38,-58,-64,77,-7,-20,130,97,91,85,95
78,20,-58,-46,71,-17,-14,124,85,79,67,77
66,8,-58,-34,65,-23,-8,112,73,61,49,65
54,8,-46,-28,53,-17,-2,100,67,49,31,47
42,-4,-46,-16,47,-23,10,94,61,44,13,35
30,-10,-40,-10,35,-23,15,82,43,39,-5,23
18,-16,-34,2,29,-23,15,70,31,27,-23,11
12,-21,-34,8,23,-23,20,58,25,15,-41,-7
12,-26,-40,8,23,-29,26,53,13,3,-46,-13
0,-38,-40,19,17,-35,32,48,7,-9,-57,-25
0,-50,-52,24,23,-47,38,42,1,-21,-63,-37
-6,-50,-46,24,17,-47,38,36,-11,-33,-75,-49
-17,-50,-34,30,5,-41,44,30,-17,-39,-81,-55
-17,-56,-40,36,11,-47,50,30,-17,-45,-81,-60
-22,-62,-40,36,5,-53,56,24,-23,-45,-87,-65
-28,-62,-34,42,-1,-47,56,18,-29,-51,-93,-71
-34,-74,-40,48,-1,-59,56,12,-35,-51,-99,-71
-40,-80,-40,60,-1,-59,56,6,-35,-51,-105,-71
-40,-86,-46,60,-1,-65,56,6,-41,-57,-111,-77
-46,-86,-40,60,-6,-65,56,0,-41,-63,-111,-77
-46,-92,-46,66,-1,-71,62,-6,-47,-69,-117,-83
-52,-92,-40,72,-6,-65,62,-12,-52,-75,-117,-89
-58,-98,-40,72,-11,-71,68,-12,-52,-75,-117,-89
-58,-98,-40,72,-11,-71,68,-18,-57,-81,-123,-95
-58,-98,-40,72,-11,-71,68,-18,-63,-81,-123,-95
-58,-98,-40,72,-11,-71,68,-18,-63,-81,-123,-89
-58,-104,-46,78,-6,-77,68,-12,-63,-81,-123,-95
-52,-110,-58,78,-1,-83,68,-18,-57,-81,-123,-95
-52,-104,-52,78,-1,-77,68,-18,-63,-87,-129,-101
-58,-98,-40,72,-11,-71,68,-24,-63,-93,-135,-107
-58,-92,-34,72,-11,-65,68,-30,-69,-99,-141,-113
-58,-98,-40,72,-11,-71,68,-30,-75,-93,-135,-113
-58,-104,-46,78,-6,-77,62,-30,-69,-87,-135,-113
-58,-98,-40,72,-11,-71,68,-30,-69,-81,-129,-107
-64,-86,-22,72,-23,-53,62,-36,-75,-87,-135,-113
-64,-80,-16,72,-23,-47,62,-36,-75,-93,-141,-107
-64,-86,-22,72,-23,-53,68,-30,-69,-93,-141,-107
-70,-92,-22,78,-23,-59,68,-30,-69,-99,-141,-107
-70,-98,-28,78,-23,-65,68,-30,-69,-99,-141,-107
-64,-98,-34,78,-17,-65,68,-24,-63,-93,-135,-107
-58,-104,-46,78,-6,-77,74,-18,-63,-93,-135,-107
-58,-104,-46,78,-6,-77,74,-24,-63,-93,-135,-107
-58,-98,-40,72,-11,-71,68,-24,-69,-93,-141,-113
-58,-98,-40,72,-11,-71,68,-30,-69,-93,-141,-113
-52,-98,-46,72,-6,-71,74,-24,-69,-87,-135,-107
-58,-98,-40,72,-11,-71,68,-24,-69,-87,-135,-107
-64,-98,-34,78,-17,-65,68,-30,-69,-93,-141,-107
-64,-98,-34,78,-17,-65,68,-30,-69,-99,-141,-107
-58,-86,-28,66,-17,-59,68,-24,-69,-99,-141,-107
-58,-80,-22,66,-17,-53,62,-24,-69,-99,-141,-107
-58,-80,-22,66,-17,-53,62,-18,-69,-93,-141,-107
-58,-80,-22,66,-17,-53,62,-18,-69,-93,-141,-107
-58,-86,-28,66,-17,-59,62,-18,-69,-87,-135,-101
-52,-86,-34,66,-11,-59,62,-18,-75,-93,-141,-101
-46,-92,-46,66,-1,-71,62,-24,-75,-93,-141,-107
-46,-98,-52,66,-1,-77,62,-24,-81,-93,-141,-107
-46,-92,-46,66,-1,-71,68,-30,-87,-93,-141,-107
-46,-92,-46,66,-1,-71,68,-30,-87,-93,-141,-107
-46,-92,-46,66,-1,-71,68,-30,-81,-87,-135,-101
-40,-86,-46,60,-1,-65,68,-30,-81,-87,-135,-107
-40,-86,-46,60,-1,-65,68,-24,-87,-93,-141,-107
-40,-80,-40,60,-1,-59,62,-30,-87,-93,-141,-107
-40,-80,-40,60,-1,-59,62,-30,-87,-93,-135,-107
-40,-92,-52,66,5,-71,68,-24,-87,-93,-135,-101
-34,-92,-58,60,11,-77,68,-30,-87,-93,-135,-107
-34,-98,-64,60,11,-83,62,-30,-93,-99,-135,-107
-34,-92,-58,60,11,-77,62,-36,-99,-99,-141,-107
-34,-92,-58,60,11,-77,62,-36,-99,-99,-141,-113
-34,-98,-64,60,11,-83,50,-36,-99,-99,-141,-113
-34,-92,-58,60,11,-77,44,-36,-99,-105,-141,-113
-34,-92,-58,60,11,-77,38,-42,-105,-105,-141,-119
-34,-86,-52,54,5,-71,38,-42,-99,-105,-141,-113
-28,-86,-58,54,11,-71,38,-42,-99,-105,-141,-113
-28,-92,-64,60,17,-77,38,-42,-105,-105,-141,-113
-22,-92,-70,54,23,-83,44,-36,-105,-105,-141,-107
-22,-92,-70,54,23,-83,50,-42,-105,-105,-141,-119
-22,-92,-70,54,23,-83,44,-48,-111,-111,-147,-119
-22,-86,-64,48,17,-77,44,-54,-111,-117,-153,-125
-22,-86,-64,48,17,-77,44,-48,-111,-123,-153,-125
-22,-92,-70,54,23,-83,44,-48,-111,-123,-153,-125
-22,-92,-70,54,23,-83,44,-48,-105,-123,-153,-125
-22,-86,-64,48,17,-77,38,-48,-105,-123,-153,-131
-22,-92,-70,54,23,-83,38,-54,-105,-117,-159,-131
-17,-80,-64,48,23,-71,32,-60,-105,-117,-159,-131
-17,-86,-70,48,23,-77,32,-60,-105,-117,-159,-131
-17,-86,-70,48,23,-77,32,-60,-111,-123,-165,-131
-22,-104,-82,60,29,-95,38,-54,-105,-117,-165,-131
-22,-110,-88,60,29,-101,38,-54,-105,-117,-165,-131
-22,-98,-76,54,23,-89,32,-60,-111,-123,-171,-137
-22,-98,-76,54,23,-89,26,-66,-111,-129,-171,-143
-17,-98,-82,54,29,-89,20,-66,-111,-129,-171,-143
-17,-92,-76,54,29,-83,26,-66,-111,-123,-171,-137
-17,-92,-76,54,29,-83,26,-66,-111,-129,-171,-137
-17,-98,-82,54,29,-89,26,-66,-111,-129,-171,-137
-17,-98,-82,54,29,-89,26,-66,-111,-129,-171,-143
-17,-98,-82,54,29,-89,26,-66,-111,-123,-171,-143
-17,-104,-88,60,35,-95,26,-66,-111,-129,-171,-143
-22,-110,-88,60,29,-101,32,-72,-111,-123,-171,-143
-17,-104,-88,60,35,-95,26,-72,-111,-123,-177,-143
-17,-98,-82,54,29,-89,26,-66,-117,-129,-177,-143
-17,-98,-82,54,29,-89,32,-72,-123,-129,-177,-149
-17,-98,-82,54,29,-89,32,-72,-123,-129,-177,-143
-17,-98,-82,54,29,-89,32,-72,-129,-135,-177,-149
-22,-104,-82,60,29,-95,32,-78,-129,-141,-177,-155
-22,-110,-88,60,29,-101,26,-78,-135,-141,-177,-149
-22,-110,-88,60,29,-101,26,-78,-135,-147,-177,-155
-22,-104,-82,60,29,-95,26,-78,-135,-147,-177,-155
-22,-104,-82,60,29,-95,20,-84,-135,-147,-183,-155
-22,-116,-94,66,35,-107,20,-84,-135,-147,-183,-155
-28,-122,-94,72,29,-107,20,-84,-135,-141,-183,-149
-28,-128,-100,78,35,-113,20,-84,-135,-141,-183,-149
-22,-134,-112,72,41,-125,20,-84,-129,-141,-183,-155
-28,-134,-106,78,35,-119,20,-84,-129,-135,-183,-149
-28,-134,-106,78,35,-119,15,-84,-129,-135,-189,-155
-28,-134,-106,78,35,-119,15,-90,-129,-141,-189,-155
-34,-134,-100,78,29,-119,15,-84,-123,-141,-189,-161
-34,-134,-100,78,29,-119,15,-84,-123,-147,-189,-161
-34,-134,-100,78,29,-119,15,-84,-129,-147,-189,-155
-28,-128,-100,78,35,-113,15,-84,-129,-147,-195,-155
-22,-122,-100,66,35,-113,15,-90,-129,-153,-195,-161
-22,-116,-94,66,35,-107,20,-90,-129,-153,-195,-161
-22,-122,-100,66,35,-113,20,-90,-129,-159,-195,-167
-22,-116,-94,66,35,-107,20,-96,-129,-159,-201,-161
-22,-116,-94,66,35,-107,15,-96,-129,-159,-201,-161
-22,-122,-100,66,35,-113,15,-90,-129,-159,-201,-167
-22,-122,-100,66,35,-113,15,-84,-123,-153,-201,-161
-22,-122,-100,66,35,-113,15,-84,-123,-153,-201,-161
-28,-128,-100,78,35,-113,15,-90,-129,-159,-201,-161
-28,-128,-100,78,35,-113,15,-90,-123,-159,-201,-161
-28,-128,-100,78,35,-113,15,-96,-129,-159,-207,-167
-28,-128,-100,78,35,-113,15,-96,-129,-165,-207,-167
-34,-128,-94,78,29,-113,20,-96,-123,-165,-207,-167
-28,-128,-100,78,35,-113,20,-96,-123,-165,-207,-167
-22,-128,-106,72,41,-119,20,-90,-123,-153,-207,-161
-22,-122,-100,66,35,-113,20,-96,-123,-153,-207,-161
-22,-116,-94,66,35,-107,20,-96,-123,-153,-207,-161
-28,-128,-100,78,35,-113,15,-96,-123,-159,-207,-161
-28,-122,-94,72,29,-107,15,-96,-123,-159,-207,-161
-28,-122,-94,72,29,-107,15,-96,-123,-159,-207,-161
-28,-128,-100,78,35,-113,20,-90,-123,-159,-207,-161
-17,-128,-112,72,47,-119,15,-90,-123,-159,-201,-161
-17,-134,-118,72,47,-125,20,-90,-117,-159,-201,-161
-17,-140,-124,78,53,-131,15,-90,-123,-165,-201,-161
-12,-134,-124,72,53,-125,15,-96,-123,-159,-201,-173
-17,-140,-124,78,53,-131,15,-96,-123,-159,-201,-167
-17,-134,-118,72,47,-125,10,-102,-129,-159,-201,-167
-17,-134,-118,72,47,-125,10,-102,-129,-159,-201,-173
-22,-134,-112,72,41,-125,10,-102,-129,-159,-207,-167
-22,-134,-112,72,41,-125,10,-102,-129,-159,-207,-167
-28,-134,-106,78,35,-119,10,-96,-135,-165,-207,-167
-28,-134,-106,78,35,-119,15,-96,-135,-165,-207,-167
-28,-140,-112,84,41,-125,15,-96,-135,-165,-207,-173
-28,-140,-112,84,41,-125,15,-96,-135,-165,-207,-173
-22,-140,-118,78,47,-131,20,-96,-135,-165,-213,-179
-22,-140,-118,78,47,-131,20,-102,-135,-165,-207,-179
-22,-146,-124,78,47,-137,20,-102,-129,-153,-207,-173
-28,-146,-118,84,41,-131,20,-102,-135,-153,-207,-173
-28,-140,-112,84,41,-125,15,-102,-129,-153,-213,-173
-28,-140,-112,84,41,-125,15,-102,-129,-153,-213,-167
-28,-140,-112,84,41,-125,20,-102,-129,-159,-213,-167
-28,-146,-118,84,41,-131,20,-102,-129,-159,-213,-173
-28,-146,-118,84,41,-131,20,-96,-123,-159,-213,-173
-28,-140,-112,84,41,-125,20,-102,-129,-165,-213,-179
-28,-134,-106,78,35,-119,20,-108,-129,-165,-213,-179
-34,-134,-100,78,29,-119,20,-114,-135,-165,-213,-179
-34,-140,-106,84,35,-125,20,-108,-135,-165,-213,-185
-40,-146,-106,90,29,-125,20,-108,-135,-165,-213,-179
-40,-146,-106,90,29,-125,20,-102,-135,-165,-213,-173
-40,-140,-100,90,29,-119,15,-102,-135,-165,-213,-179
-40,-140,-100,90,29,-119,15,-108,-141,-165,-213,-179
-34,-146,-112,84,35,-131,15,-108,-135,-165,-213,-179
-34,-152,-118,90,41,-137,15,-108,-135,-159,-207,-173
-34,-152,-118,90,41,-137,10,-108,-135,-165,-207,-179
-34,-146,-112,84,35,-131,10,-108,-135,-165,-201,-185
-34,-146,-112,84,35,-131,10,-108,-135,-165,-201,-185
-34,-140,-106,84,35,-125,10,-108,-135,-165,-207,-185
-34,-140,-106,84,35,-125,15,-108,-129,-165,-207,-185
-40,-152,-112,96,35,-131,15,-102,-129,-165,-213,-185
-40,-152,-112,96,35,-131,15,-108,-135,-165,-219,-191
-40,-158,-118,96,35,-137,15,-108,-135,-159,-219,-197
-40,-158,-118,96,35,-137,15,-108,-135,-159,-219,-197
-34,-152,-118,90,41,-137,10,-114,-141,-165,-219,-203
-34,-152,-118,90,41,-137,10,-114,-141,-159,-219,-197
-40,-152,-112,96,35,-131,10,-120,-141,-165,-219,-191
-40,-152,-112,96,35,-131,10,-126,-141,-165,-219,-197
-40,-152,-112,96,35,-131,10,-120,-141,-165,-219,-191
-46,-158,-112,96,29,-137,10,-114,-141,-171,-219,-191
-46,-152,-106,96,29,-131,15,-114,-135,-171,-219,-197
-46,-164,-118,102,35,-143,15,-108,-135,-165,-219,-197
-34,-158,-124,90,41,-143,15,-108,-135,-165,-219,-203
-34,-152,-118,90,41,-137,15,-108,-141,-171,-219,-203
-28,-140,-112,84,41,-125,10,-114,-141,-171,-225,-209
-34,-134,-100,78,29,-119,10,-126,-147,-177,-225,-209
-34,-134,-100,78,29,-119,10,-132,-147,-177,-219,-209
-34,-134,-100,78,29,-119,10,-132,-147,-177,-219,-203
-34,-140,-106,84,35,-125,15,-132,-147,-177,-219,-203
-34,-146,-112,84,35,-131,15,-132,-147,-177,-219,-197
-34,-146,-112,84,35,-131,15,-126,-147,-177,-219,-197
-40,-152,-112,96,35,-131,15,-120,-147,-183,-231,-209
-40,-152,-112,96,35,-131,15,-120,-147,-177,-231,-203
-40,-152,-112,96,35,-131,20,-114,-141,-177,-231,-209
-40,-152,-112,96,35,-131,20,-114,-147,-171,-225,-209
-34,-146,-112,84,35,-131,20,-114,-141,-171,-225,-203
-28,-152,-124,90,47,-137,20,-114,-141,-171,-225,-209
-28,-152,-124,90,47,-137,15,-120,-141,-171,-225,-203
-22,-158,-136,84,53,-149,15,-120,-141,-165,-219,-203
-22,-152,-130,84,53,-143,15,-126,-141,-171,-219,-203
-17,-152,-136,84,59,-143,15,-126,-141,-171,-219,-197
-17,-146,-130,78,53,-137,15,-126,-141,-171,-219,-203
-17,-140,-124,78,53,-131,10,-126,-147,-171,-219,-203
-12,-140,-130,78,59,-131,15,-120,-141,-171,-219,-203
-12,-140,-130,78,59,-131,15,-114,-135,-165,-219,-209
-12,-140,-130,78,59,-131,20,-102,-135,-159,-213,-203
-6,-146,-142,72,65,-143,26,-102,-123,-153,-213,-197
-6,-140,-136,72,65,-137,26,-96,-117,-147,-207,-191
0,-134,-136,66,65,-131,26,-96,-117,-141,-207,-191
12,-134,-148,60,77,-137,20,-84,-105,-141,-201,-185
18,-128,-148,54,83,-137,15,-78,-99,-135,-195,-185
24,-122,-148,48,83,-131,15,-78,-93,-135,-195,-185
36,-116,-154,42,95,-131,10,-66,-93,-129,-195,-185
42,-98,-142,24,89,-119,10,-60,-87,-129,-189,-179
54,-98,-154,19,101,-125,4,-60,-87,-129,-189,-179
54,-92,-148,19,101,-119,-2,-60,-87,-129,-183,-179
60,-86,-148,14,101,-113,-8,-66,-93,-129,-183,-179
60,-98,-160,19,107,-125,-8,-66,-93,-123,-183,-173
60,-104,-166,24,113,-131,-14,-72,-93,-129,-183,-173
60,-104,-166,24,113,-131,-20,-84,-105,-135,-195,-179
54,-110,-166,24,107,-137,-14,-84,-117,-135,-195,-179
54,-116,-172,30,113,-143,-8,-96,-123,-141,-195,-179
54,-122,-178,30,113,-149,-8,-102,-123,-147,-201,-185
54,-128,-184,36,119,-155,-14,-108,-129,-153,-201,-191
54,-134,-190,36,119,-161,-14,-114,-135,-159,-207,-203
54,-140,-196,42,125,-167,-20,-120,-141,-165,-213,-209
54,-134,-190,36,119,-161,-26,-126,-147,-171,-219,-215
48,-134,-184,42,113,-155,-32,-132,-153,-177,-219,-221
48,-140,-190,48,119,-161,-38,-132,-153,-177,-225,-221
42,-146,-190,48,113,-167,-38,-138,-159,-177,-225,-221
42,-140,-184,48,113,-161,-32,-138,-159,-177,-225,-221
36,-140,-178,54,107,-155,-32,-144,-159,-183,-231,-221
36,-152,-190,60,113,-167,-26,-144,-159,-183,-231,-221
30,-158,-190,60,107,-173,-20,-144,-159,-183,-231,-221
24,-164,-190,72,107,-173,-14,-138,-159,-189,-231,-221
12,-170,-184,78,95,-173,-14,-138,-153,-183,-231,-221
0,-170,-172,84,83,-167,-14,-138,-153,-183,-231,-221
-12,-170,-160,90,71,-161,-14,-144,-153,-183,-231,-227
-17,-164,-148,90,65,-155,-14,-144,-159,-183,-231,-227
-22,-164,-142,90,59,-155,-14,-150,-165,-183,-237,-233
-22,-158,-136,84,53,-149,-8,-150,-165,-189,-237,-227
-28,-158,-130,90,47,-143,-8,-150,-165,-189,-237,-221
-22,-164,-142,90,59,-155,-2,-150,-165,-189,-237,-221
-22,-170,-148,90,59,-161,-2,-150,-159,-183,-243,-221
-28,-164,-136,96,53,-149,-2,-150,-159,-183,-237,-215
-28,-158,-130,90,47,-143,-2,-144,-153,-177,-231,-215
-28,-152,-124,90,47,-137,4,-138,-141,-171,-219,-203
-28,-134,-106,78,35,-119,10,-126,-135,-153,-207,-197
-34,-122,-88,72,23,-107,15,-108,-123,-141,-195,-185
-46,-104,-58,72,5,-83,26,-90,-111,-129,-183,-173
-52,-86,-34,66,-11,-59,38,-72,-93,-111,-165,-161
-64,-68,-5,66,-29,-35,50,-54,-81,-93,-159,-149
-70,-56,12,60,-41,-23,62,-36,-63,-81,-147,-137
-76,-44,30,60,-53,-7,74,-24,-52,-69,-129,-125
-76,-38,36,54,-59,-1,86,-6,-35,-51,-123,-113
-70,-21,48,42,-59,11,92,6,-23,-39,-111,-107
-70,-10,60,36,-65,23,104,24,-5,-27,-99,-95
-76,2,78,36,-77,41,116,42,7,-15,-81,-83
-82,20,102,30,-89,59,122,53,19,-3,-69,-71
-82,38,120,19,-101,77,128,70,37,15,-51,-60
-88,50,138,19,-113,95,140,94,55,33,-35,-55
-82,68,150,8,-113,107,146,118,79,49,-17,-31
-76,86,162,-4,-119,125,158,148,103,73,1,-13
-70,110,180,-22,-125,143,176,184,139,97,25,5
-70,134,204,-34,-137,167,200,226,175,127,55,29
-70,158,228,-46,-149,191,224,274,217,157,73,47
-70,182,252,-58,-161,215,254,334,265,187,103,71
-82,212,294,-64,-185,251,290,406,319,229,139,95
-94,242,336,-76,-215,287,344,484,379,277,175,125
-112,278,390,-82,-251,335,410,574,445,325,217,155
-130,326,456,-100,-293,389,482,670,523,385,265,191
-142,404,546,-130,-341,473,554,784,619,457,331,245
-154,494,648,-172,-401,569,620,904,727,553,415,311
-160,590,750,-214,-455,671,680,1024,847,661,517,401
-172,704,876,-262,-521,791,734,1162,979,787,637,515
-172,830,1002,-328,-587,917,794,1312,1123,925,781,641
-178,968,1146,-394,-659,1055,854,1456,1279,1093,943,797
-166,1136,1302,-484,-731,1217,902,1588,1447,1267,1117,971
-148,1310,1458,-580,-803,1385,944,1720,1621,1459,1315,1151
-124,1460,1584,-664,-851,1523,980,1828,1789,1651,1519,1337
-88,1592,1680,-748,-881,1637,992,1900,1939,1819,1693,1493
-34,1700,1734,-832,-881,1715,968,1930,2059,1969,1849,1631
6,1784,1776,-892,-881,1781,932,1906,2143,2083,1981,1751
12,1868,1854,-934,-917,1865,896,1828,2191,2167,2077,1841
-6,1928,1932,-958,-965,1931,836,1696,2179,2197,2119,1889
-34,1916,1950,-940,-989,1931,776,1546,2107,2149,2077,1859
-58,1808,1866,-874,-959,1835,710,1372,1981,2029,1957,1745
-64,1640,1704,-784,-881,1673,608,1186,1801,1855,1777,1571
-88,1418,1506,-664,-797,1463,500,958,1561,1609,1525,1343
-124,1190,1314,-532,-719,1253,398,688,1261,1327,1237,1091
-160,968,1128,-400,-641,1049,302,412,949,1033,949,845
-196,758,954,-280,-575,857,206,172,661,763,673,611
-214,566,780,-178,-497,671,128,0,439,535,445,413
-226,404,630,-88,-425,515,56,-132,259,355,265,257
-226,272,498,-22,-359,383,4,-240,121,205,133,119
-208,176,384,19,-293,281,-44,-306,13,97,31,17
-196,86,282,54,-239,185,-74,-348,-69,15,-46,-55
-172,14,186,78,-179,101,-98,-366,-129,-45,-99,-107
-154,-38,114,90,-137,35,-110,-366,-165,-87,-141,-143
-124,-74,48,96,-89,-12,-122,-354,-201,-117,-177,-167
-100,-110,-10,102,-47,-59,-116,-336,-219,-141,-195,-191
-76,-128,-52,102,-11,-89,-104,-306,-231,-159,-213,-203
-58,-146,-88,96,11,-119,-92,-276,-231,-171,-225,-215
-52,-158,-106,102,23,-131,-74,-246,-225,-183,-231,-221
-40,-158,-118,96,35,-137,-56,-216,-213,-183,-231,-227
-34,-158,-124,90,41,-143,-38,-192,-201,-177,-225,-227
-22,-152,-130,84,53,-143,-26,-180,-189,-171,-225,-227
-22,-146,-124,78,47,-137,-20,-174,-177,-165,-219,-227
-17,-146,-130,78,53,-137,-14,-168,-177,-159,-219,-227
-17,-146,-130,78,53,-137,-14,-162,-171,-159,-225,-227
-12,-152,-142,84,65,-143,-8,-156,-171,-165,-231,-227
-6,-158,-154,78,71,-155,-8,-150,-171,-165,-237,-233
-6,-158,-154,78,71,-155,-2,-150,-171,-171,-237,-233
-6,-164,-160,84,77,-161,4,-144,-171,-171,-243,-239
-6,-170,-166,84,77,-167,10,-138,-165,-171,-243,-239
-6,-158,-154,78,71,-155,10,-132,-159,-171,-243,-233
-6,-158,-154,78,71,-155,15,-126,-153,-171,-237,-233
-6,-158,-154,78,71,-155,15,-120,-147,-171,-231,-227
0,-164,-166,84,83,-161,15,-108,-141,-171,-231,-227
0,-170,-172,84,83,-167,15,-102,-141,-171,-231,-233
6,-170,-178,78,89,-173,10,-108,-141,-177,-231,-233
6,-170,-178,78,89,-173,10,-108,-135,-177,-231,-233
12,-182,-196,84,101,-185,10,-102,-135,-177,-231,-233
12,-176,-190,84,101,-179,10,-102,-135,-177,-231,-233
12,-170,-184,78,95,-173,10,-102,-135,-171,-231,-233
12,-164,-178,78,95,-167,15,-102,-135,-171,-231,-233
12,-164,-178,78,95,-167,15,-90,-135,-171,-231,-227
12,-164,-178,78,95,-167,20,-90,-135,-171,-231,-227
6,-164,-172,78,89,-167,20,-90,-129,-165,-225,-221
6,-170,-178,78,89,-173,20,-90,-129,-165,-219,-221
12,-176,-190,84,101,-179,15,-90,-129,-165,-219,-221
12,-176,-190,84,101,-179,15,-96,-135,-159,-213,-221
12,-170,-184,78,95,-173,10,-96,-135,-159,-213,-215
12,-164,-178,78,95,-167,10,-90,-135,-159,-207,-221
18,-158,-178,66,95,-167,10,-96,-141,-159,-207,-215
18,-152,-172,66,95,-161,10,-84,-141,-159,-207,-215
18,-146,-166,60,89,-155,4,-90,-147,-165,-207,-215
18,-140,-160,60,89,-149,4,-90,-153,-165,-207,-215
18,-140,-160,60,89,-149,-2,-90,-153,-165,-207,-221
24,-146,-172,60,95,-155,-2,-90,-153,-159,-207,-215
24,-158,-184,66,101,-167,-2,-90,-147,-159,-207,-215
24,-158,-184,66,101,-167,-2,-90,-147,-153,-207,-221
24,-158,-184,66,101,-167,-8,-96,-147,-153,-207,-221
24,-158,-184,66,101,-167,-8,-84,-153,-147,-201,-215
18,-152,-172,66,95,-161,-8,-84,-147,-141,-201,-215
24,-158,-184,66,101,-167,-8,-84,-147,-141,-195,-209
24,-152,-178,66,101,-161,-8,-78,-147,-141,-195,-209
30,-152,-184,60,107,-167,-14,-78,-141,-141,-195,-209
36,-152,-190,60,113,-167,-14,-72,-141,-147,-189,-209
36,-152,-190,60,113,-167,-14,-72,-135,-147,-189,-215
42,-152,-196,54,119,-173,-20,-72,-135,-147,-189,-209
42,-152,-196,54,119,-173,-20,-72,-129,-141,-183,-203
48,-152,-202,54,125,-173,-20,-66,-117,-141,-183,-203
48,-152,-202,54,125,-173,-20,-60,-111,-135,-183,-197
48,-152,-202,54,125,-173,-14,-60,-111,-135,-183,-197
48,-152,-202,54,125,-173,-8,-54,-105,-129,-183,-191
48,-146,-196,48,119,-167,-8,-54,-105,-129,-177,-191
54,-146,-202,42,125,-173,-8,-48,-99,-129,-171,-185
60,-146,-208,42,131,-173,-8,-48,-99,-123,-165,-179
60,-152,-214,48,137,-179,-14,-48,-93,-129,-165,-185
66,-152,-220,42,143,-185,-14,-48,-93,-129,-159,-179
72,-152,-226,42,149,-185,-20,-36,-93,-129,-153,-179
78,-146,-226,30,149,-185,-26,-36,-93,-129,-153,-179
90,-140,-232,24,161,-185,-26,-30,-93,-123,-159,-173
90,-134,-226,19,155,-179,-32,-30,-93,-117,-153,-173
90,-134,-226,19,155,-179,-38,-24,-93,-111,-147,-167
90,-128,-220,19,155,-173,-38,-24,-87,-105,-141,-161
96,-128,-226,19,161,-173,-44,-24,-81,-105,-135,-155
108,-134,-244,14,173,-185,-50,-24,-75,-99,-123,-143
114,-122,-238,2,173,-179,-56,-24,-75,-99,-117,-143
120,-122,-244,2,179,-179,-68,-18,-63,-81,-105,-131
126,-122,-250,-4,185,-185,-74,-12,-63,-75,-99,-125
138,-110,-250,-16,191,-179,-80,-12,-63,-75,-105,-125
144,-98,-244,-22,191,-167,-86,-6,-57,-69,-99,-113
150,-98,-250,-28,197,-173,-92,0,-52,-57,-93,-107
156,-92,-250,-28,203,-167,-98,0,-52,-51,-81,-95
162,-86,-250,-40,203,-167,-104,0,-47,-45,-69,-83
168,-74,-244,-46,203,-155,-116,0,-41,-33,-57,-83
174,-62,-238,-58,203,-149,-128,6,-35,-27,-46,-71
180,-50,-232,-64,203,-137,-140,12,-29,-21,-35,-60
192,-44,-238,-70,215,-137,-146,12,-23,-9,-23,-49
204,-32,-238,-82,221,-131,-152,24,-17,-3,-11,-31
216,-32,-250,-88,233,-137,-158,36,1,15,7,-19
222,-26,-250,-100,233,-137,-164,42,13,27,19,-1
234,-4,-238,-112,239,-119,-170,42,25,39,37,17
240,8,-232,-118,239,-107,-182,53,37,49,55,29
252,20,-232,-130,245,-101,-188,53,49,61,67,47
258,38,-220,-148,239,-89,-200,58,55,73,85,53
264,44,-220,-148,245,-83,-212,64,67,85,103,71
264,50,-214,-154,239,-77,-218,70,79,97,121,89
276,62,-214,-166,245,-71,-224,76,91,109,139,113
282,68,-214,-172,251,-71,-230,88,97,115,145,131
288,86,-202,-184,245,-53,-242,94,103,127,157,137
300,104,-196,-196,251,-41,-248,100,115,139,169,149
306,122,-184,-214,245,-29,-254,106,127,151,187,167
312,140,-172,-220,245,-12,-260,112,139,163,205,179
312,152,-160,-226,239,-1,-260,118,151,175,229,197
312,158,-154,-232,233,5,-266,124,157,187,247,209
312,164,-148,-232,233,11,-266,130,169,205,265,227
312,164,-148,-232,233,11,-272,142,181,217,277,245
318,182,-136,-250,227,23,-272,154,187,229,289,257
318,194,-124,-256,221,35,-272,160,199,247,301,269
318,200,-118,-256,221,41,-272,172,211,259,313,281
318,206,-112,-262,215,47,-272,178,223,271,325,293
318,218,-100,-268,209,59,-266,190,235,277,337,305
312,224,-88,-262,203,71,-260,196,241,283,349,311
306,224,-82,-262,197,71,-254,202,253,295,355,323
300,230,-70,-262,185,83,-242,208,259,307,361,329
288,224,-64,-250,179,83,-242,220,265,319,373,335
282,224,-58,-250,173,83,-236,232,271,325,367,341
276,236,-40,-250,161,101,-236,238,271,325,367,335
270,242,-28,-256,149,107,-230,238,277,319,361,329
264,242,-22,-250,143,113,-224,244,271,319,355,323
258,230,-28,-244,143,101,-212,244,277,313,349,311
252,224,-28,-232,143,101,-194,250,277,307,343,305
240,212,-28,-220,137,95,-182,250,277,295,331,287
228,200,-28,-208,131,89,-164,250,271,283,319,275
216,188,-28,-196,125,83,-146,250,259,265,301,263
204,176,-28,-184,119,77,-134,250,247,253,283,239
186,164,-22,-172,107,71,-116,250,241,241,271,221
168,146,-22,-154,95,65,-98,244,229,229,247,203
156,134,-22,-142,89,59,-86,232,211,205,229,185
144,128,-16,-130,83,59,-74,220,199,187,205,167
132,110,-22,-118,77,47,-62,214,187,169,187,149
120,92,-28,-100,77,35,-44,202,175,157,169,131
114,80,-34,-94,77,23,-32,190,163,139,151,107
102,68,-34,-82,71,17,-14,190,151,127,133,89
90,50,-40,-70,65,5,-2,184,133,109,109,71
78,26,-52,-52,65,-12,10,172,121,97,91,53
60,14,-46,-34,53,-12,15,160,109,79,73,29
42,2,-40,-22,41,-17,26,148,91,61,55,17
30,-16,-46,-4,41,-29,32,142,79,44,31,-1
18,-21,-40,2,29,-29,44,130,67,39,13,-13
12,-26,-40,8,23,-29,56,118,55,33,7,-19
0,-32,-34,19,17,-29,62,112,43,21,-11,-37
-12,-38,-28,24,5,-29,68,100,31,9,-23,-49
-17,-50,-34,30,5,-41,74,94,25,-3,-35,-60
-22,-56,-34,36,5,-47,80,82,19,-9,-46,-65
-28,-56,-28,42,-1,-41,80,76,7,-21,-51,-77
-40,-68,-28,54,-6,-47,86,64,1,-33,-63,-89
-46,-80,-34,60,-6,-59,92,53,-11,-39,-69,-89
-46,-80,-34,60,-6,-59,92,53,-17,-51,-75,-101
-52,-86,-34,66,-11,-59,92,48,-29,-57,-93,-107
-46,-86,-40,60,-6,-65,98,42,-35,-63,-99,-113
-52,-92,-40,72,-6,-65,104,36,-35,-69,-111,-113
-58,-104,-46,78,-6,-77,110,36,-35,-69,-111,-119
-64,-116,-52,90,-6,-83,110,30,-41,-75,-117,-125
-70,-116,-46,90,-11,-83,110,18,-47,-75,-123,-137
-70,-116,-46,90,-11,-83,110,12,-52,-81,-129,-137
-76,-128,-52,102,-11,-89,116,18,-52,-87,-129,-137
-76,-140,-64,108,-6,-101,116,18,-52,-87,-129,-143
-76,-140,-64,108,-6,-101,116,12,-57,-93,-129,-143
-76,-134,-58,102,-11,-95,122,12,-63,-93,-135,-143
-76,-134,-58,102,-11,-95,116,12,-63,-99,-141,-143
-76,-134,-58,102,-11,-95,122,6,-63,-99,-141,-143
-76,-134,-58,102,-11,-95,116,6,-69,-93,-141,-149
-76,-128,-52,102,-11,-89,116,0,-69,-99,-141,-149
-82,-122,-40,96,-23,-83,116,0,-75,-105,-141,-149
-82,-122,-40,96,-23,-83,116,0,-75,-105,-147,-161
-88,-128,-40,108,-23,-83,116,-6,-75,-111,-147,-161
-82,-128,-46,102,-17,-89,116,-6,-81,-117,-147,-161
-82,-128,-46,102,-17,-89,122,-12,-81,-117,-147,-161
-82,-128,-46,102,-17,-89,122,-12,-81,-111,-147,-155
-82,-128,-46,102,-17,-89,122,-12,-81,-111,-147,-155
-82,-128,-46,102,-17,-89,122,-6,-81,-105,-147,-149
-82,-128,-46,102,-17,-89,122,-6,-81,-105,-147,-149
-88,-128,-40,108,-23,-83,122,-12,-81,-111,-147,-155
-88,-128,-40,108,-23,-83,122,-12,-87,-111,-141,-149
-94,-128,-34,108,-29,-83,116,-12,-87,-111,-141,-149
-94,-134,-40,108,-29,-89,116,-12,-87,-117,-141,-149
-88,-140,-52,114,-17,-95,116,-18,-87,-117,-141,-143
-82,-146,-64,108,-11,-107,116,-12,-87,-117,-135,-149
-82,-146,-64,108,-11,-107,116,-6,-87,-117,-135,-143
-82,-146,-64,108,-11,-107,116,-6,-87,-117,-135,-143
-76,-146,-70,108,-6,-107,116,-6,-87,-117,-141,-143
-76,-134,-58,102,-11,-95,110,-6,-87,-117,-147,-149
-76,-128,-52,102,-11,-89,110,-12,-87,-117,-147,-149
-76,-116,-40,96,-17,-77,104,-12,-87,-111,-147,-149
-76,-116,-40,96,-17,-77,104,-12,-87,-105,-141,-143
-76,-116,-40,96,-17,-77,104,-6,-87,-105,-141,-143
-76,-122,-46,96,-17,-83,104,-6,-87,-105,-141,-143
-70,-122,-52,90,-11,-89,104,-6,-87,-105,-135,-137
-70,-122,-52,90,-11,-89,104,-6,-93,-105,-135,-143
-64,-116,-52,90,-6,-83,104,-6,-93,-105,-135,-143
-70,-116,-46,90,-11,-83,104,-12,-93,-105,-141,-137
-64,-116,-52,90,-6,-83,104,-12,-93,-111,-141,-143
-64,-116,-52,90,-6,-83,104,-18,-99,-111,-135,-143
-64,-116,-52,90,-6,-83,104,-12,-93,-111,-135,-143
-64,-122,-58,90,-6,-89,104,-12,-93,-105,-129,-137
-64,-122,-58,90,-6,-89,104,-12,-99,-105,-135,-137
-64,-122,-58,90,-6,-89,104,-12,-99,-111,-135,-137
-64,-122,-58,90,-6,-89,98,-18,-99,-111,-135,-137
-64,-128,-64,96,-1,-95,98,-18,-99,-117,-135,-131
-64,-134,-70,96,-1,-101,104,-18,-99,-117,-135,-131
-64,-128,-64,96,-1,-95,92,-18,-99,-117,-141,-137
-58,-122,-64,84,-1,-95,86,-18,-93,-117,-141,-137
-58,-122,-64,84,-1,-95,80,-18,-93,-117,-141,-137
-58,-116,-58,84,-1,-89,80,-24,-99,-123,-135,-131
-58,-110,-52,78,-6,-83,74,-30,-99,-123,-135,-137
-58,-110,-52,78,-6,-83,74,-36,-99,-123,-135,-131
-58,-104,-46,78,-6,-77,74,-36,-105,-129,-135,-137
-58,-104,-46,78,-6,-77,74,-30,-105,-123,-135,-131
-52,-110,-58,78,-1,-83,74,-30,-99,-123,-129,-125
-46,-116,-70,78,11,-95,80,-24,-99,-111,-135,-131
-40,-104,-64,72,11,-83,80,-24,-99,-111,-135,-131
-40,-98,-58,66,5,-77,74,-24,-105,-117,-135,-125
-40,-92,-52,66,5,-71,74,-24,-105,-117,-141,-131
-40,-98,-58,66,5,-77,80,-30,-99,-117,-135,-125
-46,-110,-64,72,5,-89,86,-30,-99,-117,-135,-125
-46,-110,-64,72,5,-89,86,-30,-99,-117,-135,-125
-46,-116,-70,78,11,-95,86,-36,-99,-123,-141,-125
-46,-122,-76,78,11,-101,80,-30,-99,-123,-141,-125
-40,-122,-82,78,17,-101,80,-30,-99,-123,-147,-131
-34,-110,-76,66,17,-95,74,-36,-105,-129,-147,-137
-28,-104,-76,66,23,-89,74,-30,-105,-129,-141,-131
-28,-104,-76,66,23,-89,74,-30,-105,-123,-141,-131
-28,-104,-76,66,23,-89,74,-24,-105,-123,-141,-137
-28,-104,-76,66,23,-89,74,-30,-111,-123,-147,-137
-34,-110,-76,66,17,-95,74,-30,-111,-123,-147,-131
-40,-116,-76,78,17,-95,74,-30,-117,-129,-147,-137
-40,-128,-88,84,23,-107,74,-36,-117,-129,-141,-131
-40,-134,-94,84,23,-113,80,-36,-111,-129,-147,-131
-40,-140,-100,90,29,-119,74,-36,-111,-129,-141,-131
-34,-134,-100,78,29,-119,74,-42,-111,-129,-141,-131
-28,-134,-106,78,35,-119,74,-42,-111,-129,-135,-131
-28,-134,-106,78,35,-119,74,-42,-111,-135,-141,-125
-28,-140,-112,84,41,-125,74,-42,-111,-135,-141,-125
-34,-128,-94,78,29,-113,68,-48,-117,-141,-147,-137
-34,-128,-94,78,29,-113,68,-54,-123,-141,-147,-137
-34,-128,-94,78,29,-113,68,-54,-129,-141,-147,-149
-40,-128,-88,84,23,-107,62,-60,-135,-141,-153,-149
-40,-128,-88,84,23,-107,62,-60,-135,-135,-153,-149
-40,-122,-82,78,17,-101,56,-60,-135,-141,-153,-155
-40,-116,-76,78,17,-95,56,-66,-135,-141,-159,-149
-34,-122,-88,72,23,-107,56,-66,-129,-141,-159,-155
-34,-128,-94,78,29,-113,56,-66,-129,-141,-153,-149
-34,-134,-100,78,29,-119,56,-66,-129,-147,-153,-149
-34,-140,-106,84,35,-125,56,-66,-129,-147,-153,-149
-34,-146,-112,84,35,-131,62,-60,-129,-147,-147,-149
-34,-152,-118,90,41,-137,56,-60,-129,-147,-153,-143
-40,-140,-100,90,29,-119,50,-66,-135,-153,-153,-149
-40,-140,-100,90,29,-119,50,-66,-135,-153,-153,-149
-40,-134,-94,84,23,-113,44,-72,-135,-159,-159,-149
-40,-134,-94,84,23,-113,50,-72,-135,-159,-159,-149
-46,-134,-88,84,17,-113,50,-72,-135,-159,-159,-149
-46,-122,-76,78,11,-101,50,-78,-135,-159,-159,-149
-46,-122,-76,78,11,-101,50,-78,-141,-165,-159,-149
-46,-122,-76,78,11,-101,50,-78,-141,-165,-153,-143
-40,-122,-82,78,17,-101,44,-78,-141,-159,-159,-149
-40,-116,-76,78,17,-95,44,-78,-141,-159,-153,-143
-40,-122,-82,78,17,-101,44,-72,-141,-153,-153,-149
-40,-128,-88,84,23,-107,44,-78,-141,-153,-153,-149
-40,-140,-100,90,29,-119,38,-78,-141,-159,-159,-149
-40,-146,-106,90,29,-125,38,-78,-147,-159,-159,-155
-40,-146,-106,90,29,-125,44,-78,-147,-159,-159,-149
-40,-146,-106,90,29,-125,44,-78,-147,-159,-159,-149
-34,-140,-106,84,35,-125,44,-84,-147,-159,-159,-155
-34,-140,-106,84,35,-125,44,-84,-141,-159,-165,-149
-34,-134,-100,78,29,-119,44,-84,-147,-159,-165,-155
-34,-128,-94,78,29,-113,44,-90,-147,-165,-165,-155
-34,-134,-100,78,29,-119,44,-78,-147,-165,-165,-149
-28,-134,-106,78,35,-119,44,-78,-147,-165,-165,-149
-28,-140,-112,84,41,-125,38,-78,-147,-159,-159,-149
-28,-146,-118,84,41,-131,38,-78,-147,-159,-159,-149
-28,-152,-124,90,47,-137,38,-78,-147,-159,-159,-149
-28,-140,-112,84,41,-125,38,-84,-147,-165,-159,-149
-34,-140,-106,84,35,-125,38,-90,-153,-165,-165,-149
-34,-146,-112,84,35,-131,38,-90,-153,-165,-165,-143
-34,-146,-112,84,35,-131,38,-84,-153,-165,-165,-143
-34,-140,-106,84,35,-125,44,-90,-159,-171,-165,-149
-34,-134,-100,78,29,-119,38,-90,-159,-171,-165,-149
-34,-134,-100,78,29,-119,38,-90,-159,-171,-165,-155
-40,-134,-94,84,23,-113,32,-90,-153,-171,-165,-155
-40,-128,-88,84,23,-107,32,-90,-153,-171,-165,-149
-40,-128,-88,84,23,-107,26,-90,-153,-177,-165,-155
-40,-128,-88,84,23,-107,20,-90,-153,-177,-171,-155
-46,-134,-88,84,17,-113,20,-90,-153,-177,-171,-149
-46,-134,-88,84,17,-113,20,-90,-153,-177,-171,-155
-46,-134,-88,84,17,-113,20,-96,-153,-177,-165,-155
-46,-140,-94,90,23,-119,20,-102,-153,-177,-165,-161
-40,-140,-100,90,29,-119,20,-96,-153,-177,-165,-155
-34,-134,-100,78,29,-119,20,-96,-153,-177,-159,-149
-34,-134,-100,78,29,-119,15,-90,-153,-177,-159,-155
-34,-140,-106,84,35,-125,20,-90,-159,-177,-165,-155
-34,-140,-106,84,35,-125,15,-96,-159,-177,-171,-155
-40,-140,-100,90,29,-119,15,-96,-159,-177,-165,-155
-46,-140,-94,90,23,-119,15,-96,-159,-177,-165,-155
-46,-140,-94,90,23,-119,15,-102,-159,-177,-165,-155
-40,-140,-100,90,29,-119,15,-108,-165,-177,-171,-155
-40,-134,-94,84,23,-113,15,-108,-165,-177,-171,-155
-46,-134,-88,84,17,-113,15,-108,-159,-177,-165,-155
-46,-134,-88,84,17,-113,15,-108,-159,-177,-171,-155
-40,-134,-94,84,23,-113,15,-108,-159,-177,-165,-155
-40,-140,-100,90,29,-119,15,-108,-159,-177,-171,-155
-40,-140,-100,90,29,-119,15,-108,-159,-177,-171,-149
-40,-140,-100,90,29,-119,15,-108,-165,-171,-171,-149
-46,-140,-94,90,23,-119,15,-114,-171,-171,-171,-149
-46,-140,-94,90,23,-119,15,-108,-171,-177,-171,-143
-46,-146,-100,90,23,-125,10,-108,-171,-177,-165,-143
-46,-146,-100,90,23,-125,10,-114,-165,-177,-165,-143
-52,-146,-94,96,17,-119,15,-114,-165,-177,-165,-143
-52,-146,-94,96,17,-119,15,-120,-159,-177,-171,-149
-40,-152,-112,96,35,-131,15,-120,-159,-177,-171,-143
-40,-140,-100,90,29,-119,10,-126,-165,-177,-171,-149
-40,-140,-100,90,29,-119,4,-126,-165,-183,-171,-149
-46,-146,-100,90,23,-125,4,-114,-171,-183,-171,-149
-46,-146,-100,90,23,-125,4,-114,-171,-183,-171,-149
-46,-152,-106,96,29,-131,4,-114,-165,-177,-159,-143
-46,-158,-112,96,29,-137,4,-114,-165,-177,-159,-143
-46,-158,-112,96,29,-137,-2,-114,-165,-183,-165,-149
-40,-158,-118,96,35,-137,-2,-120,-165,-177,-165,-143
-40,-146,-106,90,29,-125,-2,-126,-171,-177,-165,-149
-40,-146,-106,90,29,-125,4,-132,-171,-177,-165,-143
-34,-146,-112,84,35,-131,4,-126,-171,-177,-171,-143
-34,-146,-112,84,35,-131,4,-126,-171,-177,-171,-143
-40,-146,-106,90,29,-125,4,-126,-171,-177,-177,-137
-40,-152,-112,96,35,-131,4,-126,-171,-183,-171,-137
-40,-146,-106,90,29,-125,4,-126,-177,-183,-177,-143
-40,-146,-106,90,29,-125,-8,-132,-183,-189,-177,-143
-40,-146,-106,90,29,-125,-8,-132,-189,-189,-177,-149
-40,-152,-112,96,35,-131,-14,-138,-195,-189,-177,-149
-40,-146,-106,90,29,-125,-14,-138,-195,-195,-177,-149
-40,-140,-100,90,29,-119,-14,-138,-195,-189,-177,-149
-40,-140,-100,90,29,-119,-14,-132,-189,-189,-171,-143
-34,-134,-100,78,29,-119,-14,-138,-189,-189,-177,-149
-34,-134,-100,78,29,-119,-14,-138,-189,-189,-171,-143
-22,-146,-124,78,47,-137,-14,-144,-189,-189,-171,-143
-22,-152,-130,84,53,-143,-20,-138,-183,-183,-165,-143
-22,-158,-136,84,53,-149,-8,-132,-177,-177,-165,-137
-17,-152,-136,84,59,-143,-2,-126,-177,-171,-159,-137
-17,-140,-124,78,53,-131,4,-108,-165,-165,-153,-125
-12,-122,-112,66,47,-113,4,-102,-165,-165,-147,-125
0,-110,-112,54,53,-107,4,-96,-159,-159,-147,-125
6,-104,-112,48,59,-107,-2,-90,-153,-159,-141,-119
6,-98,-106,42,53,-101,-8,-90,-153,-159,-141,-119
6,-98,-106,42,53,-101,-14,-90,-147,-159,-141,-119
12,-98,-112,42,59,-101,-20,-84,-147,-153,-135,-119
24,-104,-130,42,77,-113,-20,-78,-147,-147,-129,-119
24,-110,-136,42,77,-119,-26,-78,-141,-141,-123,-113
24,-98,-124,36,71,-107,-32,-78,-147,-141,-129,-113
30,-86,-118,24,71,-101,-32,-72,-141,-135,-123,-107
30,-86,-118,24,71,-101,-32,-72,-141,-135,-123,-101
30,-92,-124,30,77,-107,-38,-84,-147,-141,-123,-107
30,-92,-124,30,77,-107,-38,-90,-153,-147,-129,-107
36,-92,-130,30,83,-107,-38,-102,-159,-147,-129,-101
36,-92,-130,30,83,-107,-32,-108,-159,-153,-129,-107
36,-104,-142,36,89,-119,-32,-114,-165,-153,-141,-113
42,-116,-160,36,101,-137,-32,-114,-165,-159,-141,-113
36,-122,-160,42,95,-137,-38,-120,-177,-165,-147,-125
36,-128,-166,48,101,-143,-38,-126,-183,-171,-147,-125
36,-134,-172,48,101,-149,-44,-132,-195,-177,-153,-137
30,-140,-172,54,101,-155,-44,-138,-195,-183,-159,-137
30,-140,-172,54,101,-155,-50,-144,-195,-183,-159,-137
24,-140,-166,60,95,-149,-50,-150,-195,-189,-165,-143
18,-140,-160,60,89,-149,-50,-156,-195,-189,-171,-143
18,-140,-160,60,89,-149,-50,-156,-195,-189,-171,-143
12,-146,-160,66,83,-149,-44,-150,-201,-189,-171,-143
6,-158,-166,72,83,-161,-38,-150,-201,-195,-171,-149
0,-152,-154,78,77,-149,-32,-156,-207,-195,-171,-155
-6,-152,-148,78,71,-149,-26,-156,-207,-195,-171,-143
-12,-158,-148,84,65,-149,-26,-156,-207,-195,-165,-143
-17,-158,-142,84,59,-149,-26,-156,-207,-195,-171,-143
-22,-158,-136,84,53,-149,-26,-162,-207,-195,-171,-143
-28,-158,-130,90,47,-143,-20,-162,-207,-195,-171,-143
-34,-158,-124,90,41,-143,-20,-162,-207,-201,-177,-149
-34,-158,-124,90,41,-143,-20,-162,-207,-195,-171,-149
-34,-164,-130,96,47,-149,-20,-168,-207,-201,-171,-155
-34,-164,-130,96,47,-149,-20,-168,-207,-189,-171,-143
-40,-176,-136,108,47,-155,-14,-156,-195,-183,-159,-137
-46,-164,-118,102,35,-143,-14,-150,-195,-177,-159,-131
-52,-134,-82,90,11,-107,-8,-144,-189,-165,-147,-119
-58,-110,-52,78,-6,-83,4,-132,-177,-153,-135,-113
-58,-92,-34,72,-11,-65,10,-114,-159,-141,-117,-101
-64,-86,-22,72,-23,-53,26,-96,-135,-123,-99,-83
-70,-74,-5,66,-35,-41,38,-78,-117,-105,-81,-77
-82,-62,18,66,-53,-23,44,-72,-105,-93,-75,-65
-82,-44,36,60,-59,-7,56,-60,-93,-81,-69,-55
-88,-38,48,60,-71,5,68,-42,-81,-69,-63,-49
-94,-38,54,60,-77,5,80,-24,-63,-57,-46,-25
-94,-32,60,60,-77,11,92,0,-52,-33,-29,-7
-94,-10,84,48,-89,35,104,24,-41,-21,-11,5
-94,8,102,42,-95,53,110,48,-17,-3,7,23
-100,38,138,30,-119,89,116,64,1,9,19,29
-88,62,150,14,-119,107,122,82,25,27,37,41
-88,74,162,8,-125,119,140,106,49,44,55,59
-82,92,174,-4,-125,131,146,130,67,61,73,71
-70,110,180,-22,-125,143,158,154,91,85,97,89
-70,134,204,-34,-137,167,176,190,121,109,121,107
-70,158,228,-46,-149,191,194,232,151,133,145,125
-76,176,252,-46,-161,215,218,286,193,163,169,149
-76,200,276,-58,-173,239,242,352,241,199,199,167
-82,236,318,-76,-197,275,278,424,301,235,235,197
-88,278,366,-94,-227,323,326,502,367,283,271,227
-106,320,426,-106,-263,371,398,586,439,331,307,251
-130,368,498,-118,-311,431,470,676,511,397,355,287
-142,428,570,-142,-353,497,542,784,601,469,421,335
-154,506,660,-178,-407,581,602,892,697,559,499,401
-166,608,774,-220,-467,689,656,1006,805,661,595,491
-172,716,888,-268,-527,803,698,1132,931,781,715,599
-172,836,1008,-328,-587,923,740,1270,1075,925,859,719
-178,980,1158,-400,-665,1067,800,1420,1231,1081,1015,863
-178,1136,1314,-478,-743,1223,854,1558,1405,1267,1195,1031
-166,1298,1464,-568,-815,1379,902,1684,1585,1459,1387,1211
-136,1454,1590,-658,-863,1523,950,1810,1771,1663,1591,1397
-100,1574,1674,-736,-887,1625,980,1894,1933,1849,1777,1559
-52,1670,1722,-808,-887,1697,974,1936,2059,2005,1933,1697
-12,1754,1764,-868,-887,1763,938,1918,2149,2131,2077,1817
-6,1814,1818,-904,-911,1817,908,1834,2185,2221,2179,1907
-17,1868,1884,-922,-947,1877,860,1690,2173,2263,2233,1961
-40,1886,1926,-922,-983,1907,794,1504,2101,2239,2215,1949
-64,1820,1884,-874,-971,1853,734,1300,1975,2125,2101,1847
-88,1688,1776,-796,-929,1733,674,1102,1813,1951,1921,1685
-112,1478,1590,-682,-851,1535,596,874,1591,1717,1675,1475
-142,1250,1392,-556,-767,1319,512,616,1303,1417,1375,1217
-178,1028,1206,-424,-689,1115,422,358,991,1111,1081,971
-202,830,1032,-316,-617,929,332,118,691,829,805,743
-220,650,870,-214,-545,761,236,-54,445,595,577,545
-232,488,720,-124,-473,605,140,-192,247,409,397,383
-244,350,594,-52,-419,473,62,-294,91,253,253,251
-244,236,480,8,-359,359,4,-366,-35,133,145,155
-232,134,366,48,-299,251,-38,-414,-117,44,61,77
-214,56,270,78,-239,161,-68,-438,-183,-33,-11,17
-196,-10,186,102,-191,89,-86,-444,-225,-93,-57,-31
-166,-56,108,108,-137,23,-98,-438,-255,-141,-93,-65
-142,-92,48,114,-95,-23,-92,-414,-267,-177,-135,-95
-118,-128,-10,120,-53,-71,-92,-384,-279,-195,-153,-107
-106,-146,-40,120,-35,-95,-86,-354,-279,-213,-165,-125
-94,-158,-64,120,-17,-113,-74,-318,-279,-219,-177,-131
-88,-164,-76,126,-6,-119,-62,-288,-273,-225,-183,-137
-76,-164,-88,120,5,-125,-50,-258,-261,-225,-177,-131
-70,-170,-100,114,11,-137,-38,-234,-249,-219,-171,-137
-64,-158,-94,108,11,-125,-26,-222,-243,-207,-171,-131
-58,-152,-94,102,17,-125,-26,-216,-237,-207,-171,-137
-52,-146,-94,96,17,-119,-20,-216,-231,-207,-171,-143
-46,-152,-106,96,29,-131,-14,-210,-225,-201,-171,-137
-46,-164,-118,102,35,-143,-8,-204,-225,-201,-171,-137
-46,-170,-124,102,35,-149,-8,-204,-225,-201,-177,-137
-46,-182,-136,108,41,-161,-14,-192,-225,-201,-177,-137
-40,-182,-142,108,47,-161,-14,-186,-219,-201,-177,-137
-40,-188,-148,114,53,-167,-14,-180,-213,-201,-171,-131
-40,-182,-142,108,47,-161,-8,-174,-207,-195,-165,-131
-34,-182,-148,102,53,-167,-2,-162,-195,-183,-159,-119
-34,-194,-160,108,59,-179,-2,-156,-189,-183,-153,-119
-28,-182,-154,102,59,-167,-8,-156,-189,-189,-159,-125
-28,-182,-154,102,59,-167,-8,-156,-189,-195,-159,-119
-22,-188,-166,102,71,-179,-8,-162,-189,-195,-159,-113
-22,-188,-166,102,71,-179,-14,-162,-189,-201,-159,-113
-22,-182,-160,96,65,-173,-20,-168,-195,-201,-159,-107
-22,-182,-160,96,65,-173,-20,-168,-195,-201,-159,-107
-17,-182,-166,96,71,-173,-20,-162,-195,-201,-159,-107
-17,-170,-154,90,65,-161,-20,-156,-195,-195,-159,-107
-17,-170,-154,90,65,-161,-20,-150,-195,-195,-159,-107
-17,-170,-154,90,65,-161,-20,-150,-195,-189,-159,-107
-17,-170,-154,90,65,-161,-20,-150,-195,-195,-153,-113
-17,-176,-160,96,71,-167,-20,-156,-195,-195,-153,-107
-22,-176,-154,96,65,-167,-26,-162,-195,-195,-153,-107
-17,-176,-160,96,71,-167,-26,-168,-195,-195,-147,-107
-17,-170,-154,90,65,-161,-26,-162,-195,-189,-147,-101
-22,-176,-154,96,65,-167,-20,-162,-195,-189,-147,-95
-22,-176,-154,96,65,-167,-20,-162,-195,-183,-141,-95
-22,-170,-148,90,59,-161,-26,-162,-195,-183,-141,-95
-17,-164,-148,90,65,-155,-32,-168,-195,-183,-141,-89
-17,-158,-142,84,59,-149,-32,-168,-195,-177,-141,-89
-12,-158,-148,84,65,-149,-38,-168,-195,-177,-135,-95
-6,-164,-160,84,77,-161,-44,-162,-189,-177,-135,-89
-6,-170,-166,84,77,-167,-44,-156,-189,-177,-135,-89
0,-164,-166,84,83,-161,-50,-162,-189,-177,-129,-89
0,-164,-166,84,83,-161,-44,-162,-189,-177,-123,-83
0,-170,-172,84,83,-167,-44,-162,-183,-177,-123,-77
0,-170,-172,84,83,-167,-50,-162,-183,-177,-123,-83
6,-170,-178,78,89,-173,-50,-162,-183,-171,-123,-77
6,-176,-184,84,95,-179,-50,-156,-177,-165,-117,-77
6,-170,-178,78,89,-173,-62,-162,-177,-165,-117,-83
6,-164,-172,78,89,-167,-62,-162,-177,-171,-117,-83
6,-164,-172,78,89,-167,-68,-162,-177,-171,-117,-83
12,-170,-184,78,95,-173,-74,-162,-177,-159,-105,-77
12,-182,-196,84,101,-185,-68,-162,-177,-159,-105,-77
18,-176,-196,78,107,-185,-74,-156,-177,-159,-105,-71
18,-170,-190,72,101,-179,-74,-150,-171,-153,-105,-65
18,-170,-190,72,101,-179,-74,-150,-171,-153,-111,-60
24,-170,-196,72,107,-179,-80,-144,-165,-153,-105,-60
36,-170,-208,66,119,-185,-80,-144,-165,-147,-99,-60
42,-158,-202,54,119,-179,-86,-144,-159,-147,-93,-60
54,-152,-208,48,131,-179,-92,-144,-159,-147,-87,-60
60,-152,-214,48,137,-179,-98,-138,-153,-141,-81,-60
66,-158,-226,42,143,-191,-98,-132,-147,-135,-75,-55
66,-152,-220,42,143,-185,-98,-132,-147,-135,-69,-55
72,-146,-220,36,143,-179,-104,-132,-153,-135,-63,-49
78,-140,-220,30,149,-179,-110,-132,-153,-129,-63,-37
84,-140,-226,30,155,-179,-116,-126,-147,-123,-57,-31
90,-134,-226,19,155,-179,-122,-126,-141,-117,-51,-31
102,-128,-232,14,167,-179,-128,-126,-135,-111,-46,-19
108,-122,-232,8,167,-173,-134,-120,-135,-105,-46,-13
114,-116,-232,2,173,-173,-140,-120,-129,-105,-46,-13
120,-110,-232,-4,173,-167,-146,-120,-129,-99,-41,-7
126,-110,-238,-10,179,-173,-152,-114,-117,-93,-29,5
132,-110,-244,-10,185,-173,-158,-114,-111,-87,-11,17
138,-104,-244,-16,191,-173,-164,-114,-105,-75,-5,23
150,-104,-256,-22,203,-179,-176,-114,-105,-75,7,29
156,-92,-250,-28,203,-167,-182,-114,-105,-69,13,41
162,-80,-244,-40,203,-161,-194,-108,-99,-57,25,41
168,-74,-244,-46,203,-155,-206,-102,-93,-51,31,53
180,-62,-244,-58,209,-149,-212,-96,-81,-45,43,65
192,-50,-244,-70,215,-143,-224,-90,-69,-33,55,71
198,-44,-244,-76,221,-143,-230,-90,-63,-21,73,89
210,-38,-250,-88,227,-143,-230,-78,-52,-3,79,107
222,-38,-262,-94,239,-149,-236,-72,-41,15,97,125
228,-26,-256,-100,239,-137,-248,-72,-35,27,115,143
240,-21,-262,-106,251,-137,-260,-54,-23,44,139,167
246,-16,-262,-112,257,-137,-272,-42,-5,55,157,185
258,2,-256,-130,257,-125,-278,-36,7,67,175,197
264,26,-238,-142,251,-101,-290,-30,13,79,187,215
270,38,-232,-154,251,-95,-302,-24,25,91,205,227
282,50,-232,-166,257,-89,-314,-12,37,103,223,245
288,62,-226,-172,257,-77,-326,-6,49,115,241,257
294,74,-220,-184,257,-71,-326,0,61,133,259,275
300,86,-214,-190,257,-59,-338,12,73,145,271,293
306,104,-202,-202,257,-47,-344,24,85,163,289,311
312,122,-190,-214,251,-29,-356,30,97,175,301,329
324,140,-184,-226,257,-17,-362,36,109,187,319,347
324,152,-172,-232,251,-7,-368,48,121,199,337,365
324,164,-160,-238,245,5,-368,53,133,217,349,377
324,170,-154,-244,239,11,-374,58,139,229,367,389
324,182,-142,-250,233,23,-374,64,151,247,385,407
324,194,-130,-256,227,35,-380,76,163,259,397,413
324,212,-112,-262,221,53,-380,88,175,271,409,431
330,218,-112,-274,221,53,-374,94,181,283,427,449
330,224,-106,-274,221,59,-380,100,193,295,439,461
324,230,-94,-274,209,71,-374,106,205,307,451,467
