,,,,,,,,,,,
2019-09-04 23:52:33,,,,,,,,,,,
,,,,,,,,,,,
I,II,III,aVR,aVL,aVF,V1,V2,V3,V4,V5,V6
-36,-62,-27,44,-7,-46,-86,-138,-295,-259,-204,-124
-42,-74,-33,56,-7,-52,-86,-132,-301,-259,-210,-124
-42,-74,-33,56,-7,-52,-86,-132,-301,-259,-216,-130
-42,-74,-33,56,-7,-52,-86,-132,-307,-259,-222,-130
-42,-74,-33,56,-7,-52,-92,-138,-307,-265,-228,-136
-42,-80,-39,62,-1,-58,-92,-138,-313,-265,-234,-136
-36,-80,-45,56,5,-64,-86,-138,-313,-265,-240,-142
-30,-80,-51,56,11,-64,-86,-138,-313,-277,-240,-142
-24,-86,-63,50,17,-76,-80,-144,-313,-277,-240,-142
-30,-92,-63,62,17,-76,-80,-138,-313,-277,-234,-142
-36,-92,-57,62,11,-76,-80,-138,-313,-277,-234,-148
-36,-92,-57,62,11,-76,-86,-138,-313,-277,-234,-148
-42,-92,-51,68,5,-70,-86,-138,-313,-283,-228,-148
-42,-92,-51,68,5,-70,-92,-138,-313,-283,-228,-148
-42,-80,-39,62,-1,-58,-92,-144,-307,-277,-234,-148
-36,-80,-45,56,5,-64,-92,-138,-307,-271,-228,-148
-42,-74,-33,56,-7,-52,-86,-132,-301,-265,-216,-142
-36,-62,-27,44,-7,-46,-86,-126,-295,-265,-210,-136
-36,-56,-21,44,-7,-40,-80,-126,-283,-259,-204,-130
-36,-50,-15,39,-13,-34,-80,-120,-277,-253,-198,-124
-30,-38,-9,34,-13,-22,-74,-114,-265,-247,-186,-118
-24,-33,-9,28,-7,-22,-74,-108,-253,-235,-180,-118
-24,-28,-3,28,-7,-16,-68,-96,-241,-223,-174,-118
-24,-22,3,22,-13,-11,-62,-84,-229,-211,-162,-106
-18,-10,9,16,-13,0,-62,-78,-223,-205,-156,-100
-18,2,19,10,-19,12,-56,-78,-217,-193,-150,-88
-18,8,25,10,-19,18,-50,-66,-205,-175,-138,-82
-18,20,37,4,-25,30,-38,-54,-181,-163,-126,-71
-18,32,49,-2,-30,42,-32,-42,-163,-139,-108,-66
-12,44,55,-14,-30,48,-20,-31,-133,-121,-84,-54
-12,56,67,-20,-35,60,-8,-8,-103,-91,-67,-36
-12,62,73,-26,-41,66,10,16,-73,-61,-38,-18
-6,68,73,-26,-35,72,15,40,-51,-44,-20,6
6,80,73,-38,-30,78,20,58,-21,-21,4,24
18,98,79,-56,-30,90,32,82,3,9,28,42
24,116,91,-68,-30,102,56,118,51,39,52,60
30,134,103,-80,-35,120,92,166,99,81,82,84
36,158,121,-98,-41,138,152,244,159,117,106,96
30,182,151,-104,-59,168,236,352,231,147,124,108
30,200,169,-110,-65,186,350,502,309,177,142,114
24,206,181,-116,-77,192,488,682,399,207,160,108
30,206,175,-116,-71,192,620,886,513,255,184,114
48,206,157,-128,-53,180,764,1126,645,315,214,126
66,218,151,-140,-41,186,908,1366,801,405,262,150
90,248,157,-164,-30,204,1046,1582,981,531,352,210
132,296,163,-212,-13,228,1124,1702,1161,693,490,318
180,350,169,-266,5,258,1130,1720,1311,885,670,468
234,428,193,-326,23,312,1052,1612,1449,1107,898,654
294,548,253,-416,23,402,896,1390,1593,1395,1174,876
360,722,361,-542,-1,540,686,1102,1779,1737,1504,1134
414,932,517,-668,-47,726,458,760,1965,2109,1858,1392
444,1118,673,-782,-113,894,236,388,2115,2462,2194,1626
468,1214,745,-842,-137,978,20,34,2211,2774,2475,1830
468,1250,781,-860,-155,1014,-212,-300,2217,3008,2679,1956
438,1256,817,-842,-185,1038,-440,-606,2139,3128,2769,1986
378,1196,817,-782,-215,1008,-590,-822,1971,3104,2733,1926
300,1070,769,-686,-233,918,-680,-978,1671,2882,2547,1770
216,884,667,-548,-221,774,-704,-1044,1233,2414,2176,1500
138,650,511,-392,-185,582,-716,-1050,735,1791,1678,1158
66,416,349,-236,-137,384,-728,-1038,237,1131,1150,804
12,212,199,-110,-89,204,-740,-996,-145,579,682,480
-24,44,67,-8,-41,54,-734,-936,-397,171,310,210
-47,-74,-27,56,-13,-52,-728,-882,-547,-97,46,24
-58,-158,-99,104,17,-130,-710,-834,-631,-259,-120,-100
-64,-218,-153,134,41,-190,-674,-774,-667,-367,-228,-178
-70,-254,-183,158,53,-220,-632,-714,-673,-427,-294,-220
-64,-278,-213,164,71,-250,-584,-636,-643,-451,-330,-244
-58,-284,-225,170,83,-256,-524,-564,-607,-457,-336,-250
-52,-278,-225,158,83,-256,-464,-492,-565,-445,-330,-250
-47,-266,-219,152,83,-244,-392,-414,-511,-427,-312,-238
-47,-254,-207,146,77,-232,-320,-336,-463,-397,-294,-220
-42,-242,-201,140,77,-220,-248,-270,-421,-367,-276,-208
-42,-230,-189,134,71,-208,-194,-222,-385,-349,-264,-196
-30,-212,-183,122,77,-196,-152,-174,-355,-331,-258,-190
-30,-188,-159,110,65,-172,-122,-138,-331,-325,-252,-184
-42,-176,-135,110,47,-154,-98,-114,-307,-313,-246,-178
-47,-158,-111,98,29,-136,-86,-90,-289,-307,-240,-178
-47,-146,-99,92,23,-124,-74,-66,-265,-295,-234,-172
-47,-140,-93,92,23,-118,-62,-54,-253,-289,-228,-166
-52,-140,-87,92,17,-118,-50,-48,-241,-283,-222,-160
-52,-134,-81,86,11,-112,-38,-48,-241,-283,-222,-160
-52,-134,-81,86,11,-112,-38,-48,-235,-277,-228,-160
-52,-134,-81,86,11,-112,-32,-54,-235,-283,-228,-160
-52,-134,-81,86,11,-112,-26,-54,-235,-283,-228,-160
-52,-128,-75,86,11,-106,-26,-54,-229,-283,-228,-160
-47,-122,-75,80,11,-100,-26,-48,-223,-277,-228,-160
-42,-110,-69,74,11,-88,-26,-42,-217,-283,-228,-160
-42,-110,-69,74,11,-88,-26,-36,-211,-283,-222,-154
-42,-110,-69,74,11,-88,-20,-31,-211,-283,-222,-154
-42,-110,-69,74,11,-88,-20,-26,-205,-289,-222,-160
-47,-116,-69,80,11,-94,-20,-26,-205,-283,-222,-160
-47,-116,-69,80,11,-94,-14,-20,-205,-283,-222,-154
-47,-110,-63,74,5,-88,-14,-26,-205,-277,-222,-154
-42,-104,-63,74,11,-82,-14,-20,-205,-277,-222,-154
-36,-104,-69,68,17,-88,-14,-20,-205,-271,-216,-154
-36,-104,-69,68,17,-88,-8,-14,-199,-271,-216,-154
-36,-104,-69,68,17,-88,-14,-14,-199,-271,-222,-154
-36,-110,-75,68,17,-94,-8,-14,-199,-265,-216,-154
-36,-110,-75,68,17,-94,-8,-14,-199,-265,-222,-154
-36,-110,-75,68,17,-94,-8,-8,-193,-265,-222,-154
-42,-116,-75,80,17,-94,-2,-8,-187,-265,-222,-148
-42,-122,-81,80,17,-100,4,-2,-187,-259,-222,-154
-42,-122,-81,80,17,-100,4,4,-181,-259,-222,-154
-42,-116,-75,80,17,-94,4,4,-175,-253,-222,-148
-42,-110,-69,74,11,-88,4,4,-169,-259,-222,-148
-42,-110,-69,74,11,-88,-2,4,-169,-259,-216,-142
-36,-110,-75,68,17,-94,-2,10,-163,-265,-216,-142
-30,-104,-75,68,23,-88,-8,4,-157,-265,-216,-142
-36,-104,-69,68,17,-88,-8,4,-151,-259,-210,-142
-36,-110,-75,68,17,-94,-2,10,-145,-253,-210,-142
-36,-104,-69,68,17,-88,-2,16,-139,-241,-210,-142
-30,-98,-69,62,17,-82,4,16,-133,-241,-210,-136
-36,-98,-63,62,11,-82,10,22,-127,-241,-210,-136
-36,-98,-63,62,11,-82,15,28,-115,-235,-216,-130
-36,-98,-63,62,11,-82,15,34,-109,-235,-216,-136
-36,-92,-57,62,11,-76,15,34,-103,-229,-210,-136
-36,-92,-57,62,11,-76,15,34,-97,-223,-204,-130
-36,-92,-57,62,11,-76,15,40,-91,-217,-198,-130
-30,-98,-69,62,17,-82,20,46,-79,-211,-186,-130
-30,-92,-63,62,17,-76,32,52,-73,-205,-180,-130
-30,-86,-57,56,11,-70,32,58,-67,-193,-180,-130
-30,-80,-51,56,11,-64,38,70,-61,-187,-174,-124
-24,-74,-51,44,11,-64,44,82,-51,-175,-174,-118
-24,-68,-45,44,11,-58,44,88,-33,-169,-168,-112
-24,-68,-45,44,11,-58,50,100,-21,-163,-168,-106
-24,-68,-45,44,11,-58,50,112,-3,-157,-156,-100
-24,-74,-51,44,11,-64,56,124,15,-139,-144,-94
-18,-68,-51,44,17,-58,56,130,33,-127,-132,-94
-12,-62,-51,34,17,-58,56,148,51,-115,-126,-88
-6,-56,-51,34,23,-52,56,160,69,-103,-120,-88
-6,-56,-51,34,23,-52,68,178,93,-91,-108,-76
-6,-50,-45,28,17,-46,74,190,111,-73,-102,-71
-6,-50,-45,28,17,-46,80,208,135,-55,-90,-66
0,-50,-51,22,23,-52,92,226,159,-39,-78,-60
6,-44,-51,22,29,-46,104,244,183,-15,-62,-48
6,-33,-39,16,23,-34,110,262,207,9,-44,-42
6,-28,-33,16,23,-28,110,274,231,33,-32,-36
12,-22,-33,4,23,-28,116,292,255,57,-14,-24
12,-16,-27,4,23,-22,116,310,279,75,-2,-12
12,-10,-21,-2,17,-16,116,328,309,105,16,6
18,2,-15,-8,17,-6,122,340,339,129,34,18
18,14,-3,-14,11,6,134,358,375,153,58,30
24,32,9,-26,11,18,140,376,411,183,82,48
30,50,19,-38,5,36,140,388,447,213,112,66
36,62,25,-50,5,42,140,400,477,243,130,78
36,68,31,-50,5,48,134,412,501,279,154,96
42,80,37,-56,5,60,134,424,525,315,178,114
54,86,31,-68,11,60,128,436,549,345,202,132
60,92,31,-74,17,60,128,448,573,381,220,144
60,98,37,-80,11,66,122,454,603,411,244,156
60,116,55,-86,5,84,122,466,633,435,268,174
66,134,67,-98,-1,102,122,472,663,459,298,186
66,140,73,-98,-1,108,122,478,687,483,322,204
72,146,73,-110,-1,108,116,484,711,513,346,222
78,152,73,-110,5,114,110,484,729,537,370,234
84,164,79,-122,5,120,98,484,741,555,388,252
84,176,91,-128,-1,132,92,484,747,579,406,264
84,182,97,-134,-7,138,86,484,759,591,424,276
90,188,97,-134,-1,144,80,484,765,609,442,288
90,194,103,-140,-7,150,74,478,771,621,454,294
90,200,109,-140,-7,156,74,472,777,633,460,300
90,206,115,-146,-13,162,68,472,777,645,466,306
90,206,115,-146,-13,162,62,460,771,651,466,312
96,200,103,-146,-1,150,56,448,771,651,472,312
96,194,97,-146,-1,144,50,430,759,651,478,312
96,194,97,-146,-1,144,44,418,753,651,478,312
90,188,97,-134,-1,144,38,394,735,639,472,312
90,182,91,-134,-1,138,32,376,711,633,466,306
96,188,91,-140,5,138,32,358,687,621,460,312
90,182,91,-134,-1,138,26,340,657,609,454,306
78,164,85,-116,-1,126,26,322,627,591,442,294
72,152,79,-110,-1,114,26,304,591,561,430,282
66,146,79,-104,-7,114,26,286,549,537,412,270
54,128,73,-86,-7,102,26,268,513,501,388,258
48,122,73,-86,-13,96,20,244,471,465,358,240
42,110,67,-74,-13,90,15,220,423,429,334,222
42,98,55,-68,-7,78,15,196,381,387,298,210
36,80,43,-56,-1,60,4,166,339,351,274,186
30,68,37,-44,-1,54,-8,142,297,309,244,174
18,56,37,-32,-7,48,-8,124,255,273,220,156
12,44,31,-26,-7,36,-14,106,219,237,202,132
6,38,31,-20,-13,36,-14,94,183,207,178,114
0,26,25,-14,-13,24,-20,76,153,177,148,96
0,14,14,-8,-7,12,-20,64,117,153,124,78
-6,2,9,4,-7,6,-26,46,87,129,106,60
-12,-10,3,10,-7,-6,-26,28,57,99,82,48
-18,-16,3,22,-7,-6,-26,16,33,81,64,42
-18,-28,-9,28,-1,-16,-26,-2,9,57,52,30
-24,-33,-9,28,-7,-22,-26,-14,-9,33,40,18
-30,-38,-9,34,-13,-22,-32,-31,-33,9,22,12
-30,-44,-15,39,-7,-28,-38,-36,-51,-9,10,0
-36,-62,-27,44,-7,-46,-38,-36,-61,-21,-2,-12
-42,-68,-27,56,-7,-46,-38,-48,-73,-33,-14,-24
-47,-74,-27,56,-13,-52,-38,-60,-91,-44,-20,-30
-47,-74,-27,56,-13,-52,-38,-66,-103,-49,-26,-36
-47,-80,-33,62,-7,-58,-38,-72,-115,-61,-32,-36
-47,-80,-33,62,-7,-58,-38,-78,-127,-67,-38,-36
-52,-86,-33,62,-13,-64,-38,-84,-139,-73,-44,-36
-52,-92,-39,68,-7,-70,-44,-90,-145,-85,-50,-36
-58,-98,-39,74,-13,-70,-44,-90,-151,-91,-56,-42
-58,-104,-45,80,-7,-76,-44,-96,-157,-91,-62,-42
-58,-104,-45,80,-7,-76,-44,-102,-163,-97,-67,-48
-58,-104,-45,80,-7,-76,-44,-108,-169,-103,-67,-54
-58,-104,-45,80,-7,-76,-44,-108,-169,-109,-67,-54
-58,-104,-45,80,-7,-76,-44,-114,-175,-109,-67,-66
-64,-104,-39,80,-13,-76,-44,-114,-181,-115,-72,-66
-64,-98,-33,74,-19,-70,-50,-114,-181,-121,-72,-66
-64,-98,-33,74,-19,-70,-44,-114,-181,-121,-72,-66
-64,-98,-33,74,-19,-70,-44,-114,-181,-115,-72,-66
-64,-104,-39,80,-13,-76,-38,-114,-181,-115,-67,-66
-64,-110,-45,80,-13,-82,-38,-114,-181,-115,-67,-60
-58,-110,-51,80,-7,-82,-38,-114,-187,-115,-72,-66
-58,-116,-57,86,-1,-88,-44,-114,-187,-109,-72,-60
-58,-110,-51,80,-7,-82,-44,-108,-187,-109,-72,-60
-58,-110,-51,80,-7,-82,-44,-114,-187,-109,-67,-60
-58,-110,-51,80,-7,-82,-44,-114,-187,-103,-67,-66
-64,-116,-51,86,-7,-88,-44,-114,-181,-97,-67,-66
-64,-116,-51,86,-7,-88,-38,-108,-181,-91,-67,-60
-64,-116,-51,86,-7,-88,-38,-108,-181,-91,-67,-66
-70,-116,-45,92,-13,-82,-38,-108,-175,-91,-67,-66
-70,-122,-51,92,-13,-88,-38,-108,-181,-97,-72,-66
-70,-116,-45,92,-13,-82,-38,-108,-175,-97,-72,-66
-70,-116,-45,92,-13,-82,-38,-108,-175,-97,-72,-66
-76,-122,-45,92,-19,-88,-38,-108,-169,-97,-72,-60
-70,-122,-51,92,-13,-88,-38,-108,-175,-97,-72,-60
-70,-122,-51,92,-13,-88,-38,-108,-169,-91,-67,-60
-70,-122,-51,92,-13,-88,-38,-108,-169,-85,-67,-60
-76,-122,-45,92,-19,-88,-32,-108,-163,-85,-67,-60
-76,-128,-51,98,-13,-94,-32,-102,-163,-79,-67,-54
-70,-128,-57,98,-7,-94,-32,-102,-163,-85,-67,-54
-70,-128,-57,98,-7,-94,-26,-96,-163,-79,-67,-54
-76,-134,-57,98,-13,-100,-26,-90,-163,-85,-62,-54
-76,-134,-57,98,-13,-100,-32,-90,-163,-85,-62,-60
-76,-128,-51,98,-13,-94,-32,-84,-163,-79,-62,-66
-76,-128,-51,98,-13,-94,-32,-84,-163,-79,-62,-66
-76,-128,-51,98,-13,-94,-38,-78,-157,-79,-62,-71
-70,-128,-57,98,-7,-94,-32,-78,-157,-73,-56,-66
-70,-128,-57,98,-7,-94,-26,-78,-157,-73,-56,-66
-70,-122,-51,92,-13,-88,-26,-78,-157,-79,-62,-71
-70,-122,-51,92,-13,-88,-26,-72,-151,-79,-62,-71
-70,-122,-51,92,-13,-88,-26,-72,-151,-79,-67,-71
-70,-122,-51,92,-13,-88,-20,-72,-157,-79,-67,-71
-70,-122,-51,92,-13,-88,-20,-66,-157,-85,-78,-71
-70,-122,-51,92,-13,-88,-20,-66,-157,-85,-78,-71
-70,-122,-51,92,-13,-88,-20,-72,-157,-85,-84,-66
-70,-128,-57,98,-7,-94,-20,-72,-157,-85,-84,-60
-76,-128,-51,98,-13,-94,-20,-78,-151,-85,-84,-60
-70,-122,-51,92,-13,-88,-14,-72,-151,-91,-84,-60
-70,-122,-51,92,-13,-88,-14,-72,-151,-91,-84,-71
-70,-116,-45,92,-13,-82,-14,-66,-145,-91,-78,-76
-76,-122,-45,92,-19,-88,-14,-60,-145,-91,-78,-76
-76,-128,-51,98,-13,-94,-14,-54,-139,-91,-72,-76
-76,-128,-51,98,-13,-94,-14,-54,-139,-85,-72,-76
-76,-122,-45,92,-19,-88,-26,-54,-133,-85,-72,-76
-76,-122,-45,92,-19,-88,-32,-54,-133,-85,-78,-76
-76,-122,-45,92,-19,-88,-32,-48,-133,-85,-78,-76
-76,-122,-45,92,-19,-88,-32,-48,-133,-79,-78,-76
-82,-122,-39,98,-25,-82,-26,-48,-133,-79,-78,-76
-88,-122,-33,98,-30,-82,-20,-48,-127,-73,-78,-76
-94,-122,-27,104,-35,-76,-20,-42,-133,-79,-78,-71
-88,-122,-33,98,-30,-82,-14,-42,-133,-85,-78,-71
-88,-122,-33,98,-30,-82,-14,-42,-133,-85,-78,-76
-88,-122,-33,98,-30,-82,-20,-42,-133,-85,-78,-76
-94,-128,-33,110,-30,-82,-20,-42,-133,-91,-84,-76
-88,-134,-45,104,-25,-94,-20,-42,-133,-85,-84,-82
-88,-134,-45,104,-25,-94,-26,-36,-133,-85,-90,-82
-88,-134,-45,104,-25,-94,-26,-42,-133,-85,-102,-82
-82,-134,-51,104,-19,-94,-20,-42,-133,-85,-102,-76
-82,-128,-45,104,-19,-88,-26,-42,-133,-91,-102,-76
-88,-128,-39,104,-25,-88,-26,-48,-133,-97,-108,-76
-94,-128,-33,110,-30,-82,-26,-48,-133,-97,-108,-76
-94,-128,-33,110,-30,-82,-20,-48,-133,-97,-108,-76
-100,-116,-15,104,-41,-70,-20,-48,-133,-97,-108,-82
-100,-116,-15,104,-41,-70,-20,-48,-139,-97,-108,-82
-94,-116,-21,104,-35,-70,-20,-48,-139,-97,-108,-82
-94,-116,-21,104,-35,-70,-20,-48,-139,-97,-102,-88
-94,-122,-27,104,-35,-76,-20,-54,-139,-103,-108,-88
-88,-122,-33,98,-30,-82,-20,-54,-139,-103,-108,-94
-88,-128,-39,104,-25,-88,-20,-54,-139,-103,-108,-94
-82,-128,-45,104,-19,-88,-20,-54,-139,-103,-108,-88
-82,-134,-51,104,-19,-94,-20,-48,-145,-109,-108,-94
-88,-134,-45,104,-25,-94,-20,-48,-151,-115,-114,-94
-94,-134,-39,110,-30,-88,-20,-48,-151,-115,-114,-94
-88,-134,-45,104,-25,-94,-14,-48,-157,-115,-114,-94
-94,-134,-39,110,-30,-88,-20,-54,-157,-121,-114,-94
-100,-134,-33,110,-35,-88,-20,-54,-163,-121,-114,-100
-100,-134,-33,110,-35,-88,-20,-54,-163,-121,-114,-100
-100,-134,-33,110,-35,-88,-20,-60,-169,-121,-126,-100
-100,-134,-33,110,-35,-88,-26,-60,-175,-121,-126,-100
-100,-128,-27,110,-35,-82,-26,-66,-175,-121,-126,-100
-100,-128,-27,110,-35,-82,-26,-72,-175,-127,-126,-106
-100,-128,-27,110,-35,-82,-32,-78,-187,-133,-132,-106
-94,-128,-33,110,-30,-82,-32,-84,-187,-139,-132,-106
-94,-140,-45,116,-25,-94,-32,-90,-187,-139,-126,-106
-94,-134,-39,110,-30,-88,-32,-90,-187,-145,-126,-106
-88,-128,-39,104,-25,-88,-38,-96,-193,-151,-126,-112
-100,-128,-27,110,-35,-82,-38,-96,-193,-151,-126,-112
-100,-134,-33,110,-35,-88,-44,-96,-199,-151,-132,-112
-100,-128,-27,110,-35,-82,-44,-102,-199,-151,-132,-112
-100,-134,-33,110,-35,-88,-44,-96,-205,-157,-132,-112
-100,-140,-39,116,-30,-94,-44,-96,-205,-163,-132,-112
-100,-146,-45,116,-30,-100,-44,-96,-211,-163,-132,-118
-100,-152,-51,122,-25,-106,-50,-102,-211,-169,-138,-118
-94,-152,-57,122,-19,-106,-50,-108,-217,-169,-144,-124
-94,-152,-57,122,-19,-106,-50,-108,-217,-175,-144,-124
-100,-146,-45,116,-30,-100,-50,-114,-217,-175,-144,-124
-100,-152,-51,122,-25,-106,-44,-108,-217,-175,-150,-118
-106,-152,-45,128,-30,-100,-50,-108,-217,-181,-150,-118
-106,-152,-45,128,-30,-100,-62,-114,-223,-187,-150,-118
-112,-158,-45,128,-35,-106,-62,-114,-223,-181,-144,-112
-112,-158,-45,128,-35,-106,-62,-114,-223,-181,-144,-118
-112,-152,-39,128,-35,-100,-68,-126,-229,-181,-144,-112
-106,-152,-45,128,-30,-100,-74,-126,-235,-181,-150,-112
-106,-152,-45,128,-30,-100,-74,-132,-235,-181,-150,-112
-106,-146,-39,122,-35,-94,-74,-138,-241,-187,-150,-106
-100,-146,-45,116,-30,-100,-74,-138,-241,-187,-150,-106
-100,-146,-45,116,-30,-100,-68,-138,-241,-193,-150,-106
-106,-146,-39,122,-35,-94,-68,-138,-241,-193,-156,-106
-106,-140,-33,122,-35,-88,-68,-138,-241,-193,-156,-112
-112,-134,-21,116,-47,-82,-68,-138,-241,-193,-156,-112
-118,-140,-21,128,-47,-82,-68,-144,-241,-199,-156,-118
-118,-140,-21,128,-47,-82,-68,-150,-241,-199,-162,-118
-106,-134,-27,116,-41,-82,-74,-150,-241,-199,-162,-118
-106,-140,-33,122,-35,-88,-74,-150,-247,-199,-162,-118
-112,-152,-39,128,-35,-100,-74,-150,-247,-193,-156,-118
-112,-152,-39,128,-35,-100,-80,-156,-247,-199,-156,-124
-106,-152,-45,128,-30,-100,-80,-156,-253,-199,-162,-130
-106,-152,-45,128,-30,-100,-80,-156,-253,-199,-162,-130
-112,-158,-45,128,-35,-106,-80,-162,-259,-199,-162,-124
-112,-158,-45,128,-35,-106,-80,-156,-259,-199,-156,-124
-118,-152,-33,134,-41,-94,-80,-156,-259,-199,-156,-118
-118,-152,-33,134,-41,-94,-80,-156,-259,-205,-156,-124
-118,-152,-33,134,-41,-94,-86,-156,-259,-211,-156,-124
-118,-152,-33,134,-41,-94,-86,-156,-259,-211,-156,-124
-118,-158,-39,134,-41,-100,-86,-156,-259,-211,-156,-124
-112,-158,-45,128,-35,-106,-86,-162,-265,-211,-156,-124
-112,-158,-45,128,-35,-106,-86,-162,-265,-211,-156,-130
-106,-152,-45,128,-30,-100,-92,-168,-271,-217,-156,-130
-106,-152,-45,128,-30,-100,-92,-168,-271,-211,-156,-130
-106,-146,-39,122,-35,-94,-92,-168,-271,-211,-150,-124
-112,-146,-33,122,-41,-94,-92,-168,-271,-211,-150,-130
-112,-146,-33,122,-41,-94,-86,-168,-271,-211,-150,-130
-118,-152,-33,134,-41,-94,-86,-168,-277,-211,-156,-130
-118,-146,-27,128,-47,-88,-86,-168,-277,-217,-156,-130
-118,-146,-27,128,-47,-88,-86,-174,-277,-217,-156,-124
-112,-140,-27,122,-41,-88,-80,-174,-277,-217,-156,-124
-106,-140,-33,122,-35,-88,-86,-174,-277,-217,-156,-124
-106,-146,-39,122,-35,-94,-80,-174,-271,-217,-150,-118
-106,-152,-45,128,-30,-100,-86,-174,-271,-217,-150,-118
-106,-158,-51,128,-30,-106,-86,-180,-277,-211,-150,-112
-106,-152,-45,128,-30,-100,-86,-186,-277,-217,-150,-112
-112,-152,-39,128,-35,-100,-86,-186,-277,-217,-150,-112
-112,-158,-45,128,-35,-106,-92,-180,-271,-217,-150,-112
-112,-146,-33,122,-41,-94,-86,-180,-271,-211,-144,-118
-112,-134,-21,116,-47,-82,-86,-180,-271,-211,-144,-118
-106,-128,-21,116,-41,-76,-86,-174,-265,-205,-144,-118
-100,-116,-15,104,-41,-70,-80,-174,-265,-199,-144,-112
-94,-110,-15,98,-41,-64,-80,-174,-259,-199,-144,-112
-88,-104,-15,92,-35,-64,-74,-168,-259,-193,-138,-106
-88,-92,-3,86,-41,-52,-62,-168,-253,-187,-132,-100
-82,-92,-9,86,-35,-52,-62,-162,-247,-187,-132,-100
-88,-86,3,80,-47,-46,-56,-156,-241,-181,-126,-94
-94,-80,14,86,-53,-34,-50,-156,-235,-181,-126,-88
-100,-74,25,80,-65,-28,-44,-144,-229,-175,-120,-88
-100,-68,31,80,-65,-22,-26,-138,-223,-169,-114,-82
-100,-68,31,80,-65,-22,-20,-138,-217,-169,-114,-82
-100,-62,37,74,-71,-16,-14,-132,-217,-169,-114,-82
-100,-62,37,74,-71,-16,-14,-132,-217,-169,-120,-82
-94,-56,37,74,-65,-11,-14,-126,-217,-163,-120,-82
-88,-50,37,62,-65,-11,-20,-126,-217,-163,-114,-82
-82,-56,25,68,-53,-16,-26,-126,-217,-169,-114,-82
-82,-62,19,68,-53,-22,-50,-138,-223,-169,-114,-82
-76,-68,9,68,-41,-34,-68,-150,-223,-163,-114,-76
-70,-62,9,62,-41,-28,-80,-150,-217,-157,-114,-71
-70,-56,14,62,-41,-22,-92,-156,-223,-157,-108,-71
-70,-50,19,56,-47,-16,-98,-168,-223,-157,-108,-71
-76,-50,25,56,-53,-16,-104,-168,-223,-157,-108,-66
-70,-50,19,56,-47,-16,-110,-180,-229,-163,-114,-71
-76,-56,19,62,-47,-22,-110,-180,-235,-175,-120,-76
-82,-62,19,68,-53,-22,-110,-186,-241,-181,-120,-82
-88,-68,19,74,-53,-28,-98,-180,-241,-181,-120,-88
-88,-74,14,74,-53,-34,-92,-180,-247,-181,-126,-88
-88,-86,3,80,-47,-46,-98,-186,-253,-187,-126,-88
-88,-92,-3,86,-41,-52,-98,-192,-259,-193,-132,-94
-94,-92,3,92,-47,-46,-98,-198,-265,-199,-138,-94
-100,-98,3,92,-53,-52,-98,-198,-271,-199,-144,-94
-106,-110,-3,104,-53,-58,-104,-198,-271,-205,-150,-94
-106,-110,-3,104,-53,-58,-104,-198,-277,-211,-156,-100
-100,-110,-9,98,-47,-64,-110,-204,-283,-217,-162,-100
-100,-116,-15,104,-41,-70,-110,-216,-289,-223,-168,-106
-112,-128,-15,116,-47,-76,-116,-222,-295,-229,-174,-106
-112,-128,-15,116,-47,-76,-116,-228,-295,-235,-174,-106
-112,-128,-15,116,-47,-76,-122,-228,-301,-241,-174,-118
-112,-146,-33,122,-41,-94,-122,-228,-301,-247,-174,-118
-118,-152,-33,134,-41,-94,-128,-234,-313,-253,-186,-124
-124,-152,-27,134,-47,-94,-128,-234,-319,-259,-192,-130
-124,-152,-27,134,-47,-94,-128,-228,-325,-259,-192,-136
-124,-152,-27,134,-47,-94,-128,-228,-325,-265,-198,-136
-130,-158,-27,140,-53,-94,-128,-228,-325,-265,-198,-142
-136,-164,-27,146,-53,-100,-128,-234,-331,-271,-204,-148
-148,-170,-21,152,-65,-100,-134,-240,-331,-277,-210,-148
-148,-164,-15,152,-65,-94,-134,-246,-337,-277,-210,-154
-148,-164,-15,152,-65,-94,-140,-246,-337,-277,-210,-154
-148,-170,-21,152,-65,-100,-134,-246,-337,-283,-216,-154
-148,-176,-27,158,-59,-106,-134,-246,-337,-289,-216,-154
-142,-176,-33,158,-53,-106,-134,-246,-337,-283,-216,-160
-142,-176,-33,158,-53,-106,-134,-246,-337,-283,-216,-160
-142,-176,-33,158,-53,-106,-134,-240,-343,-289,-210,-154
-142,-170,-27,152,-59,-100,-134,-246,-349,-295,-216,-154
-142,-164,-21,152,-59,-94,-134,-246,-343,-295,-222,-154
-148,-164,-15,152,-65,-94,-134,-246,-337,-289,-216,-154
-142,-158,-15,146,-65,-88,-134,-246,-331,-283,-216,-148
-130,-140,-9,134,-59,-76,-134,-240,-319,-271,-210,-142
-118,-116,3,116,-59,-58,-128,-234,-307,-265,-198,-136
-106,-98,9,98,-59,-46,-122,-234,-295,-259,-192,-124
-88,-80,9,80,-47,-40,-116,-222,-283,-247,-180,-118
-76,-62,14,62,-47,-28,-104,-216,-271,-235,-168,-106
-64,-50,14,50,-41,-22,-98,-210,-259,-217,-156,-100
-58,-33,25,44,-41,-6,-92,-198,-253,-217,-144,-88
-52,-28,25,39,-35,-6,-86,-186,-241,-205,-138,-88
-47,-10,37,28,-41,12,-80,-174,-223,-193,-126,-82
-36,8,43,16,-35,24,-74,-162,-205,-187,-126,-76
-30,20,49,10,-35,36,-62,-150,-193,-175,-114,-71
-24,26,49,-2,-35,36,-50,-132,-175,-163,-102,-66
-18,38,55,-8,-35,48,-38,-120,-157,-145,-90,-60
-12,44,55,-14,-30,48,-32,-108,-139,-127,-72,-48
-12,44,55,-14,-30,48,-20,-84,-115,-103,-62,-30
-12,50,61,-20,-35,54,-2,-66,-85,-79,-44,-18
-6,62,67,-26,-35,66,10,-42,-61,-55,-26,0
0,86,85,-44,-41,84,15,-26,-45,-44,-14,18
12,104,91,-56,-35,96,26,-8,-21,-21,10,36
12,128,115,-68,-47,120,38,22,15,3,34,60
18,134,115,-74,-47,126,62,64,57,39,58,72
30,152,121,-86,-41,138,104,130,105,75,88,84
30,176,145,-98,-53,162,176,226,177,105,106,96
30,188,157,-104,-59,174,284,364,249,135,124,96
36,206,169,-122,-65,186,422,538,333,165,136,96
36,212,175,-122,-65,192,566,736,435,207,154,102
42,224,181,-128,-65,204,710,964,561,267,178,114
54,236,181,-140,-59,210,878,1234,717,345,220,138
72,260,187,-164,-53,222,1040,1498,879,453,286,174
102,302,199,-200,-47,252,1148,1678,1065,591,394,252
150,356,205,-248,-25,282,1184,1738,1227,759,544,372
210,416,205,-308,5,312,1142,1660,1353,939,736,528
282,512,229,-392,29,372,998,1438,1467,1173,970,726
342,656,313,-494,17,486,800,1144,1641,1479,1270,966
408,854,445,-632,-19,648,566,808,1839,1845,1612,1236
450,1064,613,-752,-77,840,332,424,2037,2217,1960,1494
486,1220,733,-848,-119,978,92,40,2187,2564,2278,1728
504,1292,787,-896,-137,1038,-158,-324,2265,2858,2541,1914
498,1328,829,-908,-161,1080,-434,-678,2259,3050,2709,2016
444,1316,871,-878,-209,1092,-626,-936,2163,3110,2757,2010
372,1214,841,-794,-233,1026,-740,-1110,1953,3002,2655,1908
294,1040,745,-662,-221,894,-800,-1212,1575,2666,2379,1698
216,800,583,-506,-179,690,-824,-1230,1095,2133,1954,1392
144,548,403,-344,-125,474,-836,-1206,579,1503,1438,1044
78,320,241,-194,-77,282,-842,-1164,129,909,940,696
18,122,103,-68,-41,114,-830,-1098,-187,441,520,390
-24,-16,9,22,-13,-6,-800,-1020,-385,99,196,150
-47,-92,-45,68,-1,-70,-764,-960,-499,-121,-20,-12
-58,-152,-93,104,17,-124,-716,-888,-553,-265,-156,-106
-64,-206,-141,128,35,-178,-668,-810,-577,-355,-246,-172
-58,-230,-171,140,53,-202,-614,-726,-571,-403,-294,-208
-52,-242,-189,140,65,-220,-554,-636,-541,-415,-312,-220
-47,-248,-201,146,77,-226,-494,-552,-505,-403,-318,-214
-47,-236,-189,140,71,-214,-410,-468,-457,-379,-306,-202
-42,-224,-183,134,71,-202,-332,-384,-403,-343,-282,-190
-42,-212,-171,128,65,-190,-260,-324,-361,-319,-264,-178
-42,-188,-147,116,53,-166,-200,-270,-325,-301,-246,-172
-42,-170,-129,104,41,-148,-146,-228,-295,-295,-240,-166
-47,-146,-99,92,23,-124,-116,-186,-271,-283,-234,-160
-47,-128,-81,86,17,-106,-92,-150,-253,-283,-234,-154
-47,-110,-63,74,5,-88,-68,-120,-241,-271,-240,-154
-47,-110,-63,74,5,-88,-56,-96,-229,-265,-240,-154
-47,-110,-63,74,5,-88,-56,-84,-217,-265,-240,-154
-47,-110,-63,74,5,-88,-50,-78,-205,-259,-240,-148
-47,-110,-63,74,5,-88,-38,-72,-199,-259,-240,-148
-58,-110,-51,80,-7,-82,-26,-72,-193,-259,-240,-142
-64,-98,-33,74,-19,-70,-20,-78,-193,-259,-246,-142
-64,-86,-21,68,-25,-58,-20,-78,-187,-259,-246,-142
-64,-86,-21,68,-25,-58,-20,-78,-181,-265,-246,-142
-64,-86,-21,68,-25,-58,-20,-72,-181,-277,-246,-142
-64,-86,-21,68,-25,-58,-20,-66,-187,-277,-252,-148
-58,-86,-27,68,-19,-58,-14,-60,-187,-277,-252,-136
-52,-86,-33,62,-13,-64,-14,-54,-181,-271,-252,-136
-47,-74,-27,56,-13,-52,-14,-48,-175,-271,-252,-136
-42,-74,-33,56,-7,-52,-8,-48,-169,-265,-246,-130
-42,-68,-27,56,-7,-46,-8,-48,-169,-259,-246,-130
-47,-68,-21,56,-13,-46,-8,-48,-169,-259,-240,-130
-42,-68,-27,56,-7,-46,-8,-42,-163,-253,-234,-130
-42,-68,-27,56,-7,-46,-8,-36,-163,-253,-234,-124
-42,-68,-27,56,-7,-46,-8,-31,-157,-253,-234,-124
-42,-68,-27,56,-7,-46,-8,-31,-157,-247,-234,-124
-42,-62,-21,50,-13,-40,-8,-31,-151,-247,-228,-118
-42,-56,-15,50,-13,-34,-8,-26,-151,-247,-228,-118
-42,-50,-9,44,-19,-28,-2,-26,-157,-247,-234,-118
-42,-50,-9,44,-19,-28,-2,-20,-151,-247,-234,-118
-42,-56,-15,50,-13,-34,-2,-26,-151,-247,-228,-112
-42,-56,-15,50,-13,-34,4,-26,-145,-247,-228,-112
-42,-56,-15,50,-13,-34,4,-20,-145,-247,-228,-118
-30,-44,-15,39,-7,-28,4,-20,-139,-247,-222,-118
-12,-33,-21,22,5,-28,10,-8,-133,-235,-216,-106
6,-16,-21,10,17,-16,15,4,-121,-229,-210,-94
18,-10,-27,-2,23,-16,20,16,-115,-217,-204,-94
36,8,-27,-20,35,-11,26,22,-109,-211,-204,-88
48,26,-21,-38,35,0,32,28,-103,-205,-198,-82
60,38,-21,-50,41,6,32,34,-91,-199,-192,-76
72,50,-21,-62,47,12,38,46,-79,-193,-192,-76
78,56,-21,-62,53,18,50,58,-67,-181,-186,-71
90,68,-21,-74,59,24,56,64,-56,-169,-180,-71
96,80,-15,-86,59,30,62,76,-51,-163,-180,-66
102,86,-15,-92,59,36,68,82,-45,-157,-174,-60
108,92,-15,-98,65,36,68,88,-33,-157,-174,-54
108,98,-9,-104,59,42,68,94,-27,-151,-174,-54
114,92,-21,-98,71,36,68,100,-21,-145,-168,-48
114,92,-21,-98,71,36,74,106,-15,-139,-162,-48
120,92,-27,-104,77,30,80,112,-3,-133,-162,-48
120,98,-21,-110,71,36,80,124,9,-127,-156,-48
114,104,-9,-104,65,48,86,136,21,-115,-150,-42
114,104,-9,-104,65,48,92,148,39,-103,-144,-42
114,104,-9,-104,65,48,98,166,57,-97,-138,-36
120,116,-3,-116,65,54,110,178,75,-91,-132,-30
120,122,3,-122,59,60,110,196,93,-79,-126,-30
126,122,-3,-122,65,60,116,214,105,-67,-120,-24
126,134,9,-128,59,72,116,226,123,-61,-108,-24
126,140,14,-128,59,78,122,244,141,-44,-102,-18
132,140,9,-134,65,72,128,262,159,-39,-90,-12
132,140,9,-134,65,72,134,286,177,-21,-78,-6
138,146,9,-140,65,78,140,304,195,-3,-67,0
132,152,19,-140,59,84,146,328,213,9,-62,0
138,164,25,-146,59,96,152,346,231,27,-50,6
144,170,25,-158,59,96,158,370,261,45,-38,12
150,182,31,-164,59,108,164,394,285,69,-26,18
150,194,43,-170,53,120,170,412,309,87,-14,30
156,200,43,-176,59,120,170,436,339,111,-2,36
156,206,49,-182,53,126,170,454,363,135,16,54
168,212,43,-188,65,126,176,472,393,159,40,66
174,212,37,-188,71,126,176,484,417,183,52,78
174,224,49,-194,65,138,176,502,435,207,64,96
180,230,49,-206,65,138,176,520,465,231,88,114
180,236,55,-206,65,144,182,544,489,261,106,126
186,254,67,-218,59,162,182,556,519,285,130,144
192,266,73,-230,59,168,182,574,543,309,154,168
204,278,73,-242,65,174,182,592,573,339,178,186
210,290,79,-248,65,186,182,604,597,369,202,204
210,296,85,-248,65,192,176,616,627,399,220,222
216,308,91,-260,65,198,176,628,645,429,244,234
222,320,97,-266,65,210,170,634,663,459,262,246
228,332,103,-278,65,216,164,640,681,483,286,264
234,338,103,-284,65,222,164,640,705,507,310,282
240,344,103,-290,71,222,158,646,717,525,328,300
240,350,109,-296,65,228,152,640,735,549,346,312
240,356,115,-296,65,234,152,640,747,561,364,330
246,356,109,-296,71,234,146,640,753,585,382,342
252,362,109,-308,71,234,134,628,765,597,394,354
258,368,109,-308,77,240,128,628,771,615,412,360
258,374,115,-314,71,246,122,622,771,627,424,372
258,374,115,-314,71,246,116,610,771,639,436,384
252,380,127,-314,65,252,110,598,765,645,442,384
258,380,121,-314,71,252,110,592,765,651,454,396
264,380,115,-320,77,246,104,574,759,657,460,402
258,380,121,-314,71,252,98,556,753,663,466,402
246,374,127,-308,59,252,98,532,741,663,466,402
240,374,133,-308,53,252,92,502,729,657,460,402
234,368,133,-296,53,252,80,478,711,645,442,402
228,362,133,-296,47,246,68,448,687,633,436,396
228,362,133,-296,47,246,56,430,657,615,424,390
228,356,127,-290,53,240,56,406,627,597,412,384
222,344,121,-278,53,234,50,382,597,567,400,372
216,338,121,-278,47,228,50,352,561,543,382,354
210,326,115,-266,47,222,50,328,525,513,358,336
198,314,115,-254,41,216,50,298,483,477,334,324
192,308,115,-248,41,210,50,262,447,435,304,306
186,296,109,-236,41,204,44,238,411,393,280,288
180,284,103,-230,41,192,44,214,375,363,262,270
174,266,91,-218,41,180,44,196,339,333,238,258
168,248,79,-206,47,162,38,178,303,297,214,240
156,236,79,-194,41,156,38,154,267,267,190,216
150,224,73,-182,41,150,38,136,225,237,166,198
138,206,67,-170,35,138,38,112,195,213,142,174
138,200,61,-164,41,132,38,94,165,189,124,156
132,194,61,-164,35,126,32,76,129,165,112,144
126,182,55,-152,35,120,32,58,99,135,94,132
120,164,43,-140,41,102,32,40,75,111,76,126
114,158,43,-134,35,102,26,28,57,93,58,114
102,146,43,-122,29,96,26,10,33,69,46,108
96,128,31,-110,35,78,26,-2,15,51,28,96
96,128,31,-110,35,78,20,-14,3,39,16,90
96,122,25,-110,35,72,26,-26,-15,21,10,78
96,116,19,-104,41,66,26,-31,-27,9,-2,72
96,110,14,-104,41,60,26,-36,-45,-9,-8,66
90,110,19,-98,35,66,20,-48,-56,-21,-20,54
84,104,19,-92,35,60,20,-54,-61,-33,-32,54
84,98,14,-92,35,54,20,-60,-67,-39,-32,48
84,98,14,-92,35,54,20,-60,-73,-44,-38,48
84,92,9,-86,41,48,20,-60,-79,-49,-38,42
78,86,9,-80,35,48,15,-66,-79,-55,-44,36
78,80,3,-74,41,42,15,-72,-85,-61,-50,30
78,74,-3,-74,41,36,15,-72,-85,-61,-50,30
84,74,-9,-80,47,30,15,-72,-85,-61,-50,30
78,74,-3,-74,41,36,15,-78,-91,-61,-56,30
78,74,-3,-74,41,36,15,-84,-97,-61,-56,30
78,62,-15,-68,47,24,15,-78,-97,-61,-56,36
78,56,-21,-62,53,18,15,-78,-97,-61,-56,36
78,56,-21,-62,53,18,15,-78,-103,-61,-56,36
72,56,-15,-62,47,18,15,-72,-103,-61,-56,36
72,62,-9,-68,41,24,20,-72,-109,-61,-50,36
66,56,-9,-56,41,24,20,-72,-103,-61,-50,36
66,56,-9,-56,41,24,20,-72,-103,-61,-50,36
72,56,-15,-62,47,18,20,-72,-103,-61,-50,36
72,50,-21,-62,47,12,15,-72,-103,-67,-56,36
72,50,-21,-62,47,12,15,-66,-103,-73,-50,36
72,50,-21,-62,47,12,15,-66,-103,-73,-50,36
72,50,-21,-62,47,12,15,-66,-109,-67,-56,30
66,50,-15,-56,41,18,15,-72,-115,-67,-56,30
66,50,-15,-56,41,18,15,-78,-115,-67,-56,30
66,56,-9,-56,41,24,15,-78,-109,-61,-56,30
72,56,-15,-62,47,18,15,-78,-109,-61,-56,30
66,56,-9,-56,41,24,15,-72,-115,-67,-56,30
66,56,-9,-56,41,24,15,-72,-109,-67,-50,24
66,50,-15,-56,41,18,15,-72,-109,-67,-50,24
66,50,-15,-56,41,18,20,-72,-109,-61,-56,18
66,50,-15,-56,41,18,20,-66,-103,-55,-56,18
66,50,-15,-56,41,18,20,-66,-103,-55,-56,12
66,56,-9,-56,41,24,20,-66,-103,-55,-56,12
66,44,-21,-50,47,12,20,-66,-97,-49,-56,6
66,44,-21,-50,47,12,20,-60,-97,-49,-62,6
66,44,-21,-50,47,12,26,-60,-97,-49,-67,6
66,38,-27,-50,47,6,26,-54,-97,-49,-67,6
60,38,-21,-50,41,6,26,-54,-103,-49,-62,6
60,32,-27,-44,47,0,32,-48,-103,-49,-62,6
60,26,-33,-44,47,-6,32,-48,-103,-55,-56,6
60,20,-39,-38,53,-11,32,-42,-103,-55,-62,0
54,20,-33,-32,47,-6,32,-42,-103,-55,-56,0
54,14,-39,-32,47,-11,32,-36,-97,-49,-62,0
60,14,-45,-38,53,-16,32,-36,-97,-49,-62,-6
60,20,-39,-38,53,-11,32,-31,-91,-49,-67,-6
60,20,-39,-38,53,-11,32,-31,-91,-55,-67,-12
60,20,-39,-38,53,-11,32,-31,-85,-55,-67,-12
54,20,-33,-32,47,-6,38,-26,-85,-55,-67,-18
54,26,-27,-38,41,0,38,-26,-85,-61,-72,-24
54,20,-33,-32,47,-6,38,-20,-79,-61,-72,-24
54,20,-33,-32,47,-6,38,-14,-73,-61,-78,-24
48,20,-27,-32,41,-6,38,-8,-67,-61,-78,-24
48,26,-21,-38,35,0,38,-8,-67,-61,-84,-30
42,26,-15,-32,29,6,38,-8,-67,-61,-84,-30
48,32,-15,-38,35,6,38,-8,-61,-55,-78,-36
48,38,-9,-44,29,12,38,-2,-61,-55,-78,-30
48,32,-15,-38,35,6,38,-8,-61,-55,-78,-30
48,32,-15,-38,35,6,38,-8,-61,-55,-84,-30
48,38,-9,-44,29,12,38,-8,-61,-61,-90,-30
54,32,-21,-38,41,6,44,-8,-61,-61,-90,-30
48,32,-15,-38,35,6,38,-8,-61,-61,-96,-42
48,32,-15,-38,35,6,38,-2,-61,-67,-96,-48
48,38,-9,-44,29,12,38,-2,-61,-67,-102,-48
54,38,-15,-44,35,12,38,4,-61,-67,-96,-48
54,44,-9,-44,35,18,38,10,-61,-61,-96,-48
54,44,-9,-44,35,18,38,4,-56,-61,-96,-48
48,44,-3,-44,29,18,38,4,-61,-61,-96,-48
48,44,-3,-44,29,18,38,4,-61,-61,-96,-48
42,44,3,-38,23,24,38,-2,-61,-61,-96,-48
36,44,9,-38,17,24,38,-2,-61,-67,-102,-48
30,44,14,-32,11,30,38,-2,-61,-67,-102,-54
30,44,14,-32,11,30,38,-8,-61,-73,-108,-54
24,44,19,-32,5,30,38,-8,-61,-73,-108,-54
24,38,14,-32,5,24,38,-2,-56,-79,-108,-48
24,38,14,-32,5,24,38,-2,-56,-79,-108,-48
30,32,3,-26,17,18,38,-2,-56,-79,-108,-48
30,26,-3,-26,17,12,32,-8,-56,-79,-108,-54
24,26,3,-26,11,12,38,-8,-61,-85,-114,-54
24,26,3,-26,11,12,38,-8,-67,-79,-120,-60
24,26,3,-26,11,12,44,-14,-73,-79,-120,-66
30,32,3,-26,17,18,38,-14,-73,-85,-120,-66
24,32,9,-26,11,18,32,-14,-73,-91,-120,-66
30,32,3,-26,17,18,32,-20,-67,-91,-120,-66
30,38,9,-32,11,24,32,-20,-67,-91,-120,-66
30,38,9,-32,11,24,26,-26,-67,-97,-120,-66
30,44,14,-32,11,30,26,-26,-73,-97,-120,-66
36,50,14,-44,11,30,26,-31,-73,-103,-120,-66
36,44,9,-38,17,24,26,-31,-79,-109,-120,-66
30,44,14,-32,11,30,26,-31,-73,-109,-114,-66
30,44,14,-32,11,30,20,-36,-79,-115,-114,-66
30,44,14,-32,11,30,20,-42,-85,-121,-114,-66
30,38,9,-32,11,24,20,-42,-85,-121,-114,-60
30,38,9,-32,11,24,20,-48,-91,-121,-120,-66
24,32,9,-26,11,18,20,-48,-97,-127,-120,-66
24,32,9,-26,11,18,20,-48,-103,-127,-120,-66
24,38,14,-32,5,24,20,-54,-109,-127,-120,-66
18,38,19,-26,-1,30,15,-54,-115,-127,-126,-66
18,38,19,-26,-1,30,15,-54,-121,-133,-126,-66
18,38,19,-26,-1,30,15,-54,-127,-133,-126,-66
18,38,19,-26,-1,30,10,-54,-127,-139,-132,-71
18,32,14,-20,5,24,10,-54,-127,-139,-138,-71
18,26,9,-20,5,18,10,-54,-133,-145,-138,-71
18,26,9,-20,5,18,10,-60,-133,-145,-138,-71
24,26,3,-26,11,12,10,-60,-139,-151,-144,-71
30,32,3,-26,17,18,10,-66,-145,-151,-144,-71
36,32,-3,-32,23,12,10,-66,-151,-151,-150,-71
36,38,3,-38,17,18,4,-72,-151,-157,-150,-71
24,32,9,-26,11,18,-2,-78,-157,-157,-156,-71
18,26,9,-20,5,18,-2,-84,-163,-163,-156,-76
18,20,3,-14,11,12,-2,-84,-163,-163,-156,-76
12,20,9,-14,5,12,-2,-84,-163,-169,-156,-76
12,14,3,-14,5,6,-2,-84,-163,-169,-150,-82
12,14,3,-14,5,6,-2,-90,-163,-169,-150,-82
12,20,9,-14,5,12,-2,-90,-169,-169,-150,-88
12,20,9,-14,5,12,-2,-90,-169,-175,-144,-88
12,20,9,-14,5,12,-8,-96,-175,-175,-144,-88
12,26,14,-20,-1,18,-8,-96,-175,-181,-138,-88
12,32,19,-20,-1,24,-8,-96,-181,-181,-138,-88
12,32,19,-20,-1,24,-14,-102,-181,-181,-138,-88
6,32,25,-14,-7,30,-14,-102,-187,-181,-138,-88
12,32,19,-20,-1,24,-14,-102,-187,-181,-138,-88
18,26,9,-20,5,18,-14,-102,-187,-181,-144,-88
12,26,14,-20,-1,18,-14,-108,-187,-181,-144,-88
12,26,14,-20,-1,18,-20,-114,-193,-187,-144,-88
12,26,14,-20,-1,18,-32,-114,-193,-187,-144,-88
12,26,14,-20,-1,18,-32,-120,-193,-187,-138,-88
12,32,19,-20,-1,24,-32,-120,-193,-181,-132,-88
12,32,19,-20,-1,24,-32,-120,-187,-181,-132,-88
6,32,25,-14,-7,30,-26,-120,-193,-187,-132,-88
6,26,19,-14,-7,24,-32,-120,-199,-187,-132,-94
6,26,19,-14,-7,24,-26,-120,-199,-187,-138,-94
6,20,14,-8,-1,18,-26,-120,-205,-187,-138,-94
6,26,19,-14,-7,24,-32,-126,-205,-187,-144,-88
6,26,19,-14,-7,24,-32,-132,-205,-187,-138,-88
12,26,14,-20,-1,18,-38,-132,-205,-187,-138,-88
12,20,9,-14,5,12,-38,-132,-199,-181,-132,-88
12,20,9,-14,5,12,-38,-138,-199,-181,-132,-88
6,20,14,-8,-1,18,-38,-138,-205,-187,-132,-88
0,20,19,-8,-7,18,-38,-144,-205,-187,-132,-94
0,26,25,-14,-13,24,-38,-144,-205,-187,-132,-94
0,26,25,-14,-13,24,-44,-144,-205,-187,-132,-94
0,20,19,-8,-7,18,-38,-144,-205,-181,-132,-94
0,26,25,-14,-13,24,-38,-144,-211,-187,-132,-94
6,26,19,-14,-7,24,-38,-150,-211,-187,-132,-94
0,20,19,-8,-7,18,-38,-150,-217,-187,-132,-94
0,20,19,-8,-7,18,-38,-144,-217,-187,-126,-94
0,26,25,-14,-13,24,-44,-150,-217,-193,-132,-94
0,20,19,-8,-7,18,-44,-150,-217,-193,-132,-94
0,20,19,-8,-7,18,-44,-150,-223,-187,-126,-94
0,20,19,-8,-7,18,-44,-144,-223,-187,-126,-94
0,14,14,-8,-7,12,-44,-144,-223,-187,-126,-94
6,14,9,-8,-1,12,-44,-144,-223,-187,-126,-94
12,14,3,-14,5,6,-44,-150,-217,-187,-126,-94
12,14,3,-14,5,6,-44,-150,-217,-187,-126,-94
12,14,3,-14,5,6,-50,-156,-217,-187,-126,-94
12,14,3,-14,5,6,-50,-156,-217,-187,-132,-88
6,14,9,-8,-1,12,-50,-156,-217,-187,-132,-94
0,8,9,-2,-1,6,-44,-156,-217,-187,-138,-94
0,8,9,-2,-1,6,-50,-156,-217,-187,-138,-94
0,8,9,-2,-1,6,-50,-156,-217,-193,-144,-94
0,14,14,-8,-7,12,-56,-168,-223,-199,-150,-94
0,14,14,-8,-7,12,-50,-168,-223,-199,-156,-100
0,14,14,-8,-7,12,-44,-162,-223,-199,-156,-100
6,14,9,-8,-1,12,-44,-162,-217,-193,-150,-100
12,14,3,-14,5,6,-38,-162,-217,-187,-150,-94
12,20,9,-14,5,12,-38,-156,-211,-187,-150,-94
12,26,14,-20,-1,18,-32,-150,-211,-187,-144,-94
18,26,9,-20,5,18,-38,-156,-211,-193,-138,-94
18,32,14,-20,5,24,-44,-150,-211,-187,-138,-88
12,38,25,-26,-7,30,-38,-144,-211,-187,-138,-88
18,44,25,-26,-1,36,-26,-138,-199,-181,-132,-82
18,50,31,-32,-7,42,-20,-132,-193,-175,-126,-76
24,68,43,-44,-7,54,-14,-132,-187,-169,-120,-71
24,80,55,-50,-13,66,-8,-126,-187,-163,-114,-71
30,98,67,-62,-19,84,-8,-126,-181,-157,-114,-71
30,98,67,-62,-19,84,4,-120,-175,-151,-102,-66
24,86,61,-56,-19,72,15,-114,-175,-151,-102,-66
18,86,67,-50,-25,78,15,-114,-175,-151,-108,-66
18,92,73,-50,-25,84,15,-114,-187,-151,-108,-66
18,92,73,-50,-25,84,15,-108,-181,-151,-108,-66
24,92,67,-56,-19,78,15,-108,-175,-145,-102,-60
30,98,67,-62,-19,84,10,-108,-175,-145,-102,-54
36,98,61,-68,-13,78,-2,-114,-175,-145,-96,-54
42,98,55,-68,-7,78,-26,-120,-181,-145,-96,-48
42,98,55,-68,-7,78,-32,-132,-175,-139,-90,-48
42,98,55,-68,-7,78,-44,-132,-169,-133,-84,-42
48,104,55,-74,-1,78,-50,-138,-169,-133,-84,-48
48,104,55,-74,-1,78,-56,-144,-169,-139,-84,-48
48,98,49,-74,-1,72,-62,-144,-175,-139,-84,-54
42,92,49,-62,-1,72,-68,-156,-187,-145,-90,-60
42,92,49,-62,-1,72,-68,-156,-193,-151,-90,-66
42,92,49,-62,-1,72,-62,-156,-193,-151,-90,-60
42,92,49,-62,-1,72,-56,-156,-193,-151,-90,-54
42,86,43,-62,-1,66,-56,-156,-193,-157,-90,-54
36,80,43,-56,-1,60,-56,-156,-199,-169,-90,-60
36,68,31,-50,5,48,-56,-168,-211,-175,-96,-71
36,68,31,-50,5,48,-56,-168,-217,-187,-102,-71
30,62,31,-44,-1,48,-56,-174,-223,-193,-102,-76
18,56,37,-32,-7,48,-62,-180,-229,-193,-108,-82
18,56,37,-32,-7,48,-68,-180,-229,-193,-108,-82
18,44,25,-26,-1,36,-74,-186,-235,-193,-108,-88
18,38,19,-26,-1,30,-74,-192,-241,-199,-108,-88
12,38,25,-26,-7,30,-80,-198,-247,-199,-108,-94
12,32,19,-20,-1,24,-80,-204,-259,-205,-108,-94
6,20,14,-8,-1,18,-80,-204,-265,-211,-108,-88
0,8,9,-2,-1,6,-80,-198,-271,-217,-114,-88
0,2,3,-2,-1,0,-80,-198,-271,-229,-120,-94
0,2,3,-2,-1,0,-80,-198,-271,-229,-126,-94
0,-4,-3,4,5,-6,-80,-198,-271,-235,-132,-94
0,2,3,-2,-1,0,-86,-204,-271,-235,-138,-100
0,2,3,-2,-1,0,-86,-210,-277,-241,-150,-100
0,-4,-3,4,5,-6,-86,-210,-283,-247,-156,-100
0,-10,-9,4,5,-11,-86,-216,-283,-247,-156,-112
0,-16,-15,10,11,-16,-86,-216,-289,-253,-156,-118
0,-16,-15,10,11,-16,-86,-216,-289,-259,-162,-118
0,-10,-9,4,5,-11,-92,-216,-295,-259,-162,-118
-6,-16,-9,16,5,-11,-98,-216,-295,-259,-162,-118
-6,-16,-9,16,5,-11,-92,-216,-289,-253,-168,-118
-6,-16,-9,16,5,-11,-98,-216,-289,-253,-168,-106
-6,-10,-3,10,-1,-6,-104,-216,-289,-253,-168,-106
-12,-4,9,10,-7,0,-104,-216,-283,-253,-168,-106
-12,-4,9,10,-7,0,-104,-222,-277,-253,-162,-100
-12,2,14,4,-13,6,-104,-216,-271,-247,-162,-100
-12,8,19,4,-13,12,-104,-216,-265,-247,-168,-100
-12,14,25,-2,-19,18,-98,-210,-265,-241,-162,-94
-12,20,31,-2,-19,24,-92,-210,-259,-235,-156,-94
-12,26,37,-8,-25,30,-92,-210,-259,-235,-156,-94
-12,26,37,-8,-25,30,-86,-198,-247,-223,-144,-88
-6,26,31,-8,-19,30,-80,-192,-241,-217,-144,-88
-6,38,43,-14,-25,42,-74,-186,-229,-211,-138,-82
0,44,43,-20,-19,42,-68,-180,-223,-205,-132,-82
0,56,55,-26,-25,54,-62,-174,-211,-193,-126,-76
6,68,61,-32,-25,66,-62,-162,-205,-187,-114,-71
12,74,61,-44,-25,66,-56,-156,-193,-181,-102,-66
12,80,67,-44,-25,72,-50,-144,-181,-169,-90,-66
18,92,73,-50,-25,84,-44,-132,-163,-151,-78,-54
24,104,79,-62,-25,90,-32,-120,-145,-133,-67,-42
24,98,73,-62,-25,84,-20,-102,-115,-109,-50,-30
24,98,73,-62,-25,84,-14,-78,-85,-85,-26,-12
30,98,67,-62,-19,84,-2,-60,-61,-61,-8,0
30,104,73,-62,-19,90,15,-36,-39,-44,16,24
42,110,67,-74,-13,90,20,-20,-15,-21,40,42
48,116,67,-80,-7,90,44,10,21,9,70,66
48,122,73,-86,-13,96,74,52,63,45,100,90
54,134,79,-92,-13,108,122,118,123,87,136,108
60,152,91,-104,-13,120,188,214,195,123,160,114
54,158,103,-104,-25,132,290,352,273,159,172,120
54,158,103,-104,-25,132,416,520,363,195,184,126
60,158,97,-110,-19,126,560,724,453,231,202,126
66,164,97,-110,-13,132,704,946,567,279,232,144
84,170,85,-128,-1,126,860,1192,711,351,274,168
96,194,97,-146,-1,144,1028,1456,873,447,340,198
120,230,109,-176,5,168,1160,1660,1053,579,436,264
156,278,121,-218,17,198,1238,1750,1221,747,580,378
204,332,127,-266,41,228,1238,1720,1365,927,748,522
276,416,139,-344,71,276,1148,1534,1485,1143,970,714
342,542,199,-440,71,372,968,1258,1647,1431,1240,942
420,722,301,-572,59,510,752,946,1845,1779,1564,1212
486,932,445,-704,23,690,524,586,2043,2139,1906,1488
522,1112,589,-812,-30,852,284,202,2205,2480,2224,1728
558,1208,649,-878,-41,930,26,-168,2301,2768,2499,1938
558,1244,685,-896,-59,966,-248,-534,2307,2978,2697,2070
504,1238,733,-872,-113,984,-470,-834,2229,3074,2775,2100
432,1166,733,-800,-149,948,-608,-1038,2061,3026,2721,2028
348,1022,673,-686,-161,846,-692,-1170,1743,2768,2511,1848
258,806,547,-530,-143,678,-722,-1212,1287,2289,2122,1560
180,560,379,-368,-95,468,-740,-1200,777,1683,1624,1206
114,320,205,-212,-41,264,-752,-1164,297,1065,1108,852
66,116,49,-86,11,84,-752,-1098,-56,561,658,528
30,-33,-63,4,47,-46,-746,-1026,-277,189,304,270
0,-134,-135,62,65,-136,-728,-966,-421,-55,64,90
-18,-194,-177,104,77,-184,-692,-906,-493,-211,-72,-24
-30,-230,-201,128,83,-214,-656,-852,-535,-307,-168,-94
-36,-260,-225,146,95,-244,-614,-780,-541,-355,-216,-136
-36,-278,-243,152,101,-262,-554,-696,-517,-373,-246,-154
-30,-278,-249,152,107,-262,-494,-606,-481,-373,-258,-160
-24,-266,-243,140,107,-256,-416,-516,-433,-361,-246,-148
-12,-266,-255,134,119,-262,-326,-414,-373,-331,-234,-130
0,-254,-255,122,125,-256,-248,-336,-325,-313,-216,-106
0,-242,-243,116,119,-244,-188,-276,-283,-295,-198,-94
0,-224,-225,110,113,-226,-140,-228,-253,-277,-180,-82
0,-200,-201,98,101,-202,-104,-192,-235,-265,-174,-82
-6,-176,-171,92,83,-172,-80,-156,-217,-259,-168,-76
-12,-158,-147,80,65,-154,-62,-132,-205,-241,-162,-76
-18,-152,-135,86,59,-142,-44,-102,-193,-235,-162,-71
-18,-146,-129,80,53,-136,-32,-84,-187,-235,-156,-71
-24,-146,-123,80,47,-136,-20,-66,-175,-235,-162,-71
-24,-146,-123,80,47,-136,-14,-60,-169,-229,-162,-71
-24,-134,-111,74,41,-124,-2,-60,-163,-229,-168,-71
-24,-128,-105,74,41,-118,4,-54,-163,-229,-162,-71
-24,-128,-105,74,41,-118,10,-54,-157,-229,-162,-71
-24,-128,-105,74,41,-118,10,-54,-157,-229,-162,-71
-24,-122,-99,68,35,-112,10,-54,-157,-235,-162,-71
-24,-122,-99,68,35,-112,4,-48,-157,-235,-162,-71
-24,-116,-93,68,35,-106,4,-54,-157,-235,-156,-71
-18,-110,-93,62,35,-100,4,-42,-157,-229,-150,-71
-12,-116,-105,62,47,-112,10,-36,-151,-223,-144,-71
-6,-116,-111,62,53,-112,10,-31,-151,-223,-138,-66
-6,-110,-105,56,47,-106,10,-31,-145,-223,-138,-66
-6,-110,-105,56,47,-106,10,-26,-145,-229,-138,-66
-6,-122,-117,62,53,-118,10,-31,-145,-229,-138,-71
-12,-116,-105,62,47,-112,10,-31,-139,-229,-132,-71
-12,-116,-105,62,47,-112,15,-26,-139,-223,-126,-71
-12,-110,-99,56,41,-106,15,-20,-133,-217,-126,-71
-12,-110,-99,56,41,-106,15,-20,-127,-217,-120,-71
-6,-110,-105,56,47,-106,15,-14,-127,-211,-114,-71
-6,-104,-99,56,47,-100,20,-14,-121,-211,-114,-71
-6,-104,-99,56,47,-100,20,-8,-121,-211,-108,-71
-6,-104,-99,56,47,-100,20,-2,-115,-211,-108,-71
0,-98,-99,44,47,-100,20,-2,-109,-217,-108,-71
0,-98,-99,44,47,-100,20,4,-109,-217,-108,-66
6,-92,-99,44,53,-94,20,4,-103,-211,-114,-66
6,-92,-99,44,53,-94,20,10,-97,-211,-114,-66
6,-92,-99,44,53,-94,26,16,-91,-205,-108,-66
6,-98,-105,44,53,-100,26,22,-91,-199,-108,-66
0,-92,-93,44,47,-94,26,22,-85,-199,-108,-66
0,-92,-93,44,47,-94,26,22,-85,-199,-114,-66
0,-86,-87,39,41,-88,32,28,-79,-193,-114,-66
0,-80,-81,39,41,-82,32,28,-79,-193,-114,-66
0,-80,-81,39,41,-82,32,34,-73,-193,-114,-66
6,-80,-87,39,47,-82,38,40,-67,-187,-108,-60
6,-86,-93,39,47,-88,38,46,-61,-181,-108,-54
6,-92,-99,44,53,-94,38,52,-56,-181,-108,-54
6,-80,-87,39,47,-82,38,64,-51,-175,-108,-54
6,-80,-87,39,47,-82,38,70,-45,-175,-114,-60
12,-74,-87,28,47,-82,44,82,-33,-169,-114,-60
12,-80,-93,34,53,-88,44,94,-27,-163,-120,-60
18,-80,-99,34,59,-88,50,100,-15,-151,-114,-60
24,-74,-99,22,59,-88,56,112,-3,-145,-114,-60
24,-74,-99,22,59,-88,62,124,9,-139,-108,-54
24,-68,-93,22,59,-82,62,130,15,-133,-102,-54
24,-68,-93,22,59,-82,68,142,33,-121,-96,-48
24,-68,-93,22,59,-82,68,160,45,-115,-96,-42
24,-68,-93,22,59,-82,74,172,63,-103,-84,-36
24,-68,-93,22,59,-82,74,190,81,-91,-78,-30
30,-62,-93,16,59,-76,80,208,105,-79,-67,-24
36,-56,-93,10,65,-76,80,226,117,-67,-62,-18
36,-50,-87,4,59,-70,86,244,135,-55,-56,-18
42,-44,-87,4,65,-64,92,262,153,-44,-44,-18
42,-38,-81,-2,59,-58,98,274,171,-27,-38,-12
48,-28,-75,-8,65,-52,98,292,189,-15,-26,-12
42,-10,-51,-14,47,-28,104,310,207,-3,-20,-6
36,-4,-39,-14,41,-22,110,334,225,15,-8,-6
42,-4,-45,-14,47,-22,116,358,249,33,4,6
48,-4,-51,-20,53,-28,116,388,267,51,16,18
54,2,-51,-26,53,-22,116,406,297,69,28,24
60,2,-57,-32,59,-28,116,430,327,93,46,30
60,8,-51,-32,59,-22,122,448,351,117,64,42
66,14,-51,-38,59,-16,122,460,375,141,76,48
72,32,-39,-50,59,-6,128,472,399,165,94,60
72,38,-33,-56,53,0,128,490,423,189,118,72
84,56,-27,-68,59,12,134,508,447,219,136,84
90,74,-15,-80,53,30,134,526,471,243,160,96
96,80,-15,-86,59,30,128,544,489,267,178,108
96,86,-9,-92,53,36,128,556,519,291,202,120
102,104,3,-98,53,54,122,568,543,321,226,138
108,116,9,-110,53,60,122,580,567,345,250,150
114,122,9,-116,53,66,116,592,597,375,274,168
120,134,14,-128,53,72,110,598,621,405,298,186
120,134,14,-128,53,72,110,610,639,435,328,204
126,140,14,-128,59,78,104,616,657,459,352,222
132,152,19,-140,59,84,104,622,675,483,376,234
144,164,19,-152,65,90,104,628,693,507,400,246
156,170,14,-164,71,90,98,634,705,525,424,264
156,182,25,-170,65,102,92,628,711,543,442,276
156,188,31,-170,65,108,80,628,723,561,454,282
162,194,31,-176,65,114,80,622,729,579,466,294
162,200,37,-176,65,120,68,610,729,585,472,300
162,200,37,-176,65,120,62,592,729,597,490,300
162,194,31,-176,65,114,62,580,729,609,502,312
162,194,31,-176,65,114,62,568,729,615,508,318
168,200,31,-182,71,114,56,550,723,621,514,324
162,206,43,-182,59,126,50,538,723,621,514,324
162,206,43,-182,59,126,50,520,717,621,514,324
162,200,37,-176,65,120,38,502,705,621,508,324
156,200,43,-176,59,120,32,478,687,609,508,312
156,194,37,-176,59,114,32,454,675,597,502,312
150,182,31,-164,59,108,32,430,651,585,490,300
150,176,25,-158,65,102,26,406,627,567,478,288
144,176,31,-158,59,102,20,376,597,543,460,276
132,164,31,-146,53,96,20,346,567,513,436,258
126,146,19,-134,53,84,20,322,537,489,418,246
114,140,25,-122,47,84,15,298,501,453,400,228
108,128,19,-116,47,72,15,274,465,423,388,210
102,116,14,-104,47,66,10,256,429,393,364,198
96,110,14,-104,41,60,4,232,393,363,340,174
84,104,19,-92,35,60,4,208,357,327,316,156
72,80,9,-74,35,42,4,184,327,303,298,138
66,74,9,-68,29,42,10,166,291,273,280,126
66,62,-3,-62,35,30,10,142,261,237,256,108
54,56,3,-50,29,30,10,118,231,207,232,90
48,44,-3,-44,29,18,15,94,207,183,220,78
48,32,-15,-38,35,6,15,76,177,159,196,60
36,20,-15,-26,29,0,10,58,153,135,178,48
24,2,-21,-14,23,-11,10,46,129,117,166,42
18,-4,-21,-2,23,-11,4,34,105,99,154,30
12,-16,-27,4,23,-22,4,16,87,87,136,18
12,-22,-33,4,23,-28,4,4,63,69,118,12
6,-33,-39,16,23,-34,-2,-8,51,57,106,0
6,-38,-45,16,23,-40,-2,-14,33,45,94,-12
0,-44,-45,22,23,-46,-2,-26,21,27,82,-24
0,-56,-57,28,29,-58,-2,-31,9,15,70,-30
0,-56,-57,28,29,-58,-2,-31,-3,3,58,-36
-6,-56,-51,34,23,-52,-2,-42,-21,-15,46,-42
-6,-56,-51,34,23,-52,-8,-48,-27,-21,40,-42
-12,-68,-57,39,23,-64,-8,-54,-39,-27,28,-48
-18,-74,-57,44,17,-64,-8,-60,-45,-39,16,-60
-18,-74,-57,44,17,-64,-8,-66,-51,-39,10,-60
-12,-74,-63,39,23,-70,-8,-66,-56,-44,4,-66
-18,-80,-63,50,23,-70,-2,-72,-56,-44,4,-71
-18,-80,-63,50,23,-70,-2,-72,-56,-49,4,-76
-18,-86,-69,50,23,-76,-2,-72,-56,-49,4,-82
-18,-80,-63,50,23,-70,-2,-72,-56,-49,4,-82
-12,-80,-69,44,29,-76,-2,-72,-56,-44,-2,-76
-18,-86,-69,50,23,-76,-2,-78,-61,-49,4,-71
-18,-86,-69,50,23,-76,-8,-84,-61,-49,-2,-71
-18,-86,-69,50,23,-76,-8,-84,-61,-49,-2,-71
-18,-92,-75,56,29,-82,-2,-84,-61,-49,-2,-66
-18,-92,-75,56,29,-82,-2,-84,-61,-49,-2,-66
-18,-86,-69,50,23,-76,-8,-84,-61,-55,-2,-71
-18,-86,-69,50,23,-76,-8,-78,-67,-55,-2,-71
-24,-92,-69,56,23,-82,-2,-78,-61,-55,-2,-71
-24,-104,-81,62,29,-94,-2,-78,-67,-49,-2,-71
-24,-104,-81,62,29,-94,-2,-72,-67,-44,-2,-71
-24,-98,-75,56,23,-88,-2,-66,-67,-44,-2,-76
-24,-98,-75,56,23,-88,-2,-66,-67,-44,-2,-76
-24,-92,-69,56,23,-82,-2,-66,-67,-44,4,-76
-24,-92,-69,56,23,-82,4,-60,-67,-44,10,-71
-24,-92,-69,56,23,-82,4,-54,-61,-44,10,-71
-24,-86,-63,50,17,-76,4,-48,-61,-44,16,-66
-18,-92,-75,56,29,-82,-2,-48,-56,-49,16,-66
-18,-86,-69,50,23,-76,4,-48,-56,-49,10,-71
-18,-86,-69,50,23,-76,-2,-54,-56,-44,10,-66
-18,-92,-75,56,29,-82,4,-48,-51,-39,10,-60
-18,-86,-69,50,23,-76,4,-48,-51,-33,4,-66
-12,-86,-75,44,29,-82,4,-42,-45,-33,10,-60
-6,-86,-81,44,35,-82,4,-42,-51,-27,10,-60
-6,-92,-87,50,41,-88,10,-36,-51,-21,16,-54
-6,-92,-87,50,41,-88,10,-31,-56,-27,16,-60
-6,-98,-93,50,41,-94,10,-31,-56,-27,22,-60
-12,-110,-99,56,41,-106,10,-26,-56,-33,10,-60
-12,-110,-99,56,41,-106,10,-26,-56,-33,10,-60
-18,-110,-93,62,35,-100,10,-20,-51,-33,10,-54
-18,-110,-93,62,35,-100,10,-20,-51,-33,10,-60
-24,-110,-87,62,29,-100,10,-20,-45,-33,10,-60
-24,-98,-75,56,23,-88,15,-14,-45,-27,10,-54
-30,-98,-69,62,17,-82,15,-14,-45,-27,10,-54
-30,-98,-69,62,17,-82,15,-14,-45,-21,10,-54
-24,-98,-75,56,23,-88,20,-8,-39,-15,10,-60
-18,-98,-81,56,29,-88,15,-8,-33,-21,10,-60
-18,-98,-81,56,29,-88,15,-8,-33,-27,10,-60
-18,-98,-81,56,29,-88,15,-8,-33,-27,16,-66
-18,-98,-81,56,29,-88,15,-2,-39,-39,10,-66
-24,-98,-75,56,23,-88,15,-2,-39,-39,10,-71
-24,-104,-81,62,29,-94,20,-2,-33,-39,4,-71
-18,-98,-81,56,29,-88,20,4,-33,-33,4,-66
-24,-92,-69,56,23,-82,26,10,-33,-39,-2,-71
-24,-92,-69,56,23,-82,26,10,-33,-39,-8,-71
-24,-92,-69,56,23,-82,26,10,-33,-39,-8,-71
-24,-92,-69,56,23,-82,20,16,-33,-39,-8,-66
-24,-92,-69,56,23,-82,20,16,-33,-33,-8,-66
-24,-92,-69,56,23,-82,26,28,-27,-27,-8,-66
-24,-98,-75,56,23,-88,26,28,-27,-27,-8,-66
-24,-98,-75,56,23,-88,26,34,-27,-21,-8,-66
-24,-98,-75,56,23,-88,32,28,-27,-27,-8,-71
-24,-92,-69,56,23,-82,32,34,-27,-27,-8,-71
-24,-92,-69,56,23,-82,32,34,-21,-27,-8,-66
-24,-86,-63,50,17,-76,32,34,-21,-27,-14,-66
-30,-80,-51,56,11,-64,26,34,-21,-33,-14,-60
-30,-80,-51,56,11,-64,26,34,-21,-33,-14,-60
-24,-86,-63,50,17,-76,26,34,-21,-33,-14,-60
-18,-80,-63,50,23,-70,32,40,-15,-27,-20,-60
-18,-74,-57,44,17,-64,26,40,-15,-27,-20,-66
-18,-80,-63,50,23,-70,26,40,-15,-27,-26,-71
-18,-74,-57,44,17,-64,32,40,-21,-27,-26,-76
-24,-74,-51,44,11,-64,32,40,-21,-27,-32,-76
-24,-80,-57,50,17,-70,38,40,-15,-27,-32,-76
-24,-92,-69,56,23,-82,38,46,-15,-21,-32,-71
-24,-92,-69,56,23,-82,38,46,-15,-21,-32,-71
-18,-98,-81,56,29,-88,32,46,-21,-27,-32,-66
-18,-104,-87,62,35,-94,26,46,-21,-27,-32,-66
-18,-104,-87,62,35,-94,26,46,-27,-27,-32,-66
-18,-92,-75,56,29,-82,26,40,-27,-27,-32,-66
-18,-92,-75,56,29,-82,26,34,-27,-33,-26,-66
-18,-80,-63,50,23,-70,32,28,-27,-39,-26,-66
-12,-68,-57,39,23,-64,26,22,-27,-39,-26,-66
-12,-74,-63,39,23,-70,32,22,-27,-39,-26,-66
-18,-80,-63,50,23,-70,32,22,-27,-44,-32,-66
-18,-74,-57,44,17,-64,26,22,-33,-49,-32,-66
-18,-74,-57,44,17,-64,26,16,-33,-55,-32,-66
-18,-74,-57,44,17,-64,26,16,-39,-49,-38,-66
-24,-74,-51,44,11,-64,26,16,-39,-44,-38,-60
-18,-74,-57,44,17,-64,26,16,-45,-44,-44,-60
-18,-74,-57,44,17,-64,26,16,-51,-49,-56,-66
-18,-80,-63,50,23,-70,20,10,-56,-49,-56,-66
-18,-86,-69,50,23,-76,15,4,-56,-55,-62,-66
-18,-86,-69,50,23,-76,15,4,-61,-61,-62,-71
-24,-86,-63,50,17,-76,15,4,-67,-61,-67,-71
-30,-92,-63,62,17,-76,15,-2,-73,-73,-67,-76
-30,-98,-69,62,17,-82,10,-8,-79,-79,-72,-82
-30,-92,-63,62,17,-76,10,-8,-85,-85,-72,-82
-30,-86,-57,56,11,-70,10,-14,-91,-85,-78,-82
-36,-80,-45,56,5,-64,10,-14,-97,-97,-78,-82
-36,-74,-39,50,-1,-58,4,-20,-103,-103,-90,-82
-30,-74,-45,50,5,-58,4,-20,-109,-109,-90,-76
-24,-80,-57,50,17,-70,4,-20,-103,-109,-90,-76
-24,-92,-69,56,23,-82,4,-20,-103,-103,-84,-71
-30,-98,-69,62,17,-82,4,-20,-103,-103,-84,-71
-30,-104,-75,68,23,-88,4,-20,-103,-109,-90,-76
-36,-104,-69,68,17,-88,-2,-26,-109,-109,-96,-76
-42,-104,-63,74,11,-82,-2,-26,-115,-115,-102,-82
-47,-110,-63,74,5,-88,-2,-26,-121,-121,-108,-88
-47,-104,-57,74,5,-82,-2,-31,-127,-121,-114,-88
-47,-104,-57,74,5,-82,-2,-31,-133,-127,-114,-94
-47,-104,-57,74,5,-82,-8,-31,-139,-133,-120,-94
-47,-104,-57,74,5,-82,-14,-36,-145,-139,-120,-94
-47,-104,-57,74,5,-82,-20,-42,-157,-145,-120,-100
-52,-110,-57,74,-1,-88,-20,-42,-157,-151,-120,-100
-52,-116,-63,80,5,-94,-26,-48,-157,-151,-126,-106
-58,-116,-57,86,-1,-88,-26,-48,-163,-151,-126,-106
-58,-116,-57,86,-1,-88,-26,-54,-163,-145,-126,-112
-58,-116,-57,86,-1,-88,-26,-54,-163,-145,-126,-112
-64,-116,-51,86,-7,-88,-32,-60,-163,-145,-132,-112
-64,-116,-51,86,-7,-88,-32,-66,-169,-145,-132,-118
-64,-122,-57,86,-7,-94,-32,-66,-175,-139,-132,-112
-70,-128,-57,98,-7,-94,-32,-66,-169,-145,-132,-112
-70,-128,-57,98,-7,-94,-38,-66,-175,-145,-132,-112
-70,-122,-51,92,-13,-88,-38,-66,-181,-145,-132,-112
-70,-116,-45,92,-13,-82,-38,-66,-181,-151,-132,-118
-70,-116,-45,92,-13,-82,-38,-66,-187,-151,-138,-118
-70,-116,-45,92,-13,-82,-32,-66,-193,-157,-138,-118
-64,-116,-51,86,-7,-88,-32,-66,-199,-163,-138,-118
-64,-116,-51,86,-7,-88,-32,-66,-199,-169,-138,-124
-58,-116,-57,86,-1,-88,-32,-66,-199,-169,-138,-124
-64,-122,-57,86,-7,-94,-38,-72,-199,-175,-144,-124
-64,-134,-69,92,-1,-106,-38,-72,-199,-169,-138,-118
-70,-134,-63,98,-7,-100,-38,-78,-193,-169,-138,-124
-70,-134,-63,98,-7,-100,-38,-78,-199,-169,-138,-124
-76,-122,-45,92,-19,-88,-38,-84,-199,-169,-144,-130
-76,-116,-39,92,-19,-82,-38,-90,-205,-169,-144,-130
-76,-122,-45,92,-19,-88,-38,-90,-205,-169,-144,-130
-76,-122,-45,92,-19,-88,-38,-84,-211,-169,-144,-130
-82,-128,-45,104,-19,-88,-38,-84,-211,-169,-150,-130
-82,-140,-57,110,-13,-100,-38,-78,-211,-169,-150,-136
-82,-134,-51,104,-19,-94,-44,-78,-211,-175,-150,-136
-82,-128,-45,104,-19,-88,-44,-78,-211,-175,-150,-142
-76,-128,-51,98,-13,-94,-44,-78,-211,-175,-150,-136
-70,-128,-57,98,-7,-94,-38,-78,-211,-175,-150,-136
-70,-122,-51,92,-13,-88,-38,-78,-211,-175,-150,-142
-64,-122,-57,86,-7,-94,-38,-78,-217,-175,-156,-142
-70,-128,-57,98,-7,-94,-38,-84,-223,-181,-162,-142
-70,-116,-45,92,-13,-82,-38,-84,-223,-181,-162,-142
-70,-116,-45,92,-13,-82,-44,-90,-223,-187,-156,-142
-70,-110,-39,86,-19,-76,-44,-90,-223,-187,-156,-142
-70,-116,-45,92,-13,-82,-44,-90,-223,-187,-156,-142
-70,-116,-45,92,-13,-82,-50,-90,-223,-187,-150,-148
-70,-116,-45,92,-13,-82,-50,-96,-217,-187,-150,-148
-70,-116,-45,92,-13,-82,-50,-96,-223,-193,-150,-148
-70,-116,-45,92,-13,-82,-50,-102,-223,-199,-156,-148
-76,-116,-39,92,-19,-82,-50,-108,-223,-199,-162,-148
-76,-128,-51,98,-13,-94,-44,-108,-223,-193,-156,-154
-76,-128,-51,98,-13,-94,-44,-102,-223,-193,-156,-148
-76,-122,-45,92,-19,-88,-44,-102,-223,-193,-156,-148
-76,-116,-39,92,-19,-82,-44,-96,-223,-193,-156,-154
-70,-104,-33,86,-19,-70,-44,-90,-217,-193,-156,-148
-70,-104,-33,86,-19,-70,-44,-90,-217,-187,-156,-148
-64,-104,-39,80,-13,-76,-38,-90,-223,-187,-144,-154
-64,-98,-33,74,-19,-70,-38,-90,-217,-181,-138,-148
-64,-98,-33,74,-19,-70,-38,-90,-217,-181,-138,-148
-64,-92,-27,74,-19,-64,-38,-96,-217,-181,-138,-142
-64,-86,-21,68,-25,-58,-32,-96,-211,-175,-144,-142
-58,-86,-27,68,-19,-58,-20,-90,-205,-169,-138,-142
-52,-80,-27,62,-13,-58,-14,-84,-205,-169,-144,-142
-47,-68,-21,56,-13,-46,-8,-78,-199,-163,-144,-142
-47,-56,-9,50,-19,-34,-2,-78,-193,-163,-144,-142
-52,-50,3,44,-30,-28,4,-72,-193,-163,-144,-136
-52,-50,3,44,-30,-28,15,-66,-187,-163,-138,-136
-58,-50,9,50,-35,-22,20,-60,-187,-157,-138,-130
-52,-50,3,44,-30,-28,26,-54,-187,-151,-138,-130
-52,-50,3,44,-30,-28,32,-54,-187,-151,-126,-124
-52,-44,9,44,-30,-22,32,-48,-181,-139,-120,-118
-47,-33,14,39,-30,-11,26,-48,-181,-139,-120,-112
-36,-33,3,34,-19,-16,15,-48,-175,-133,-114,-112
-36,-38,-3,34,-19,-22,15,-48,-169,-139,-114,-118
-36,-33,3,34,-19,-16,-2,-54,-169,-139,-108,-118
-24,-28,-3,28,-7,-16,-20,-60,-169,-133,-108,-118
-18,-22,-3,22,-7,-11,-32,-66,-169,-133,-108,-112
-18,-22,-3,22,-7,-11,-38,-72,-169,-133,-108,-112
-12,-22,-9,16,-1,-16,-50,-78,-175,-133,-120,-112
-12,-22,-9,16,-1,-16,-50,-84,-175,-133,-126,-112
-18,-28,-9,28,-1,-16,-56,-90,-181,-139,-132,-118
-18,-28,-9,28,-1,-16,-50,-96,-181,-145,-132,-124
-24,-28,-3,28,-7,-16,-50,-96,-181,-145,-132,-124
-36,-33,3,34,-19,-16,-44,-90,-187,-151,-138,-124
-36,-33,3,34,-19,-16,-44,-90,-187,-157,-138,-124
-36,-38,-3,34,-19,-22,-44,-90,-199,-157,-138,-124
-36,-44,-9,39,-13,-28,-38,-102,-205,-169,-144,-124
-30,-56,-27,44,-1,-40,-32,-102,-205,-169,-144,-124
-30,-62,-33,44,-1,-46,-38,-102,-211,-181,-150,-124
-30,-56,-27,44,-1,-40,-44,-108,-217,-187,-162,-130
-30,-62,-33,44,-1,-46,-50,-108,-217,-181,-168,-130
-36,-74,-39,50,-1,-58,-56,-114,-223,-187,-174,-136
-36,-80,-45,56,5,-64,-62,-120,-235,-193,-180,-148
-42,-92,-51,68,5,-70,-62,-126,-241,-199,-186,-154
-42,-92,-51,68,5,-70,-68,-132,-247,-205,-180,-154
-47,-92,-45,68,-1,-70,-68,-138,-253,-211,-186,-154
-52,-98,-45,68,-7,-76,-68,-144,-259,-217,-192,-160
-64,-110,-45,80,-13,-82,-62,-144,-259,-223,-198,-160
-64,-116,-51,86,-7,-88,-62,-144,-265,-229,-204,-172
-64,-116,-51,86,-7,-88,-68,-150,-265,-241,-210,-178
-64,-116,-51,86,-7,-88,-68,-150,-271,-241,-216,-178
-58,-116,-57,86,-1,-88,-74,-144,-271,-241,-216,-184
-64,-122,-57,86,-7,-94,-80,-144,-271,-241,-222,-184
-58,-128,-69,92,5,-100,-80,-144,-277,-235,-222,-184
-58,-128,-69,92,5,-100,-86,-150,-283,-235,-222,-184
-64,-134,-69,92,-1,-106,-86,-156,-283,-235,-222,-184
-64,-134,-69,92,-1,-106,-86,-162,-289,-235,-222,-184
-58,-134,-75,92,5,-106,-80,-162,-289,-235,-216,-184
-58,-128,-69,92,5,-100,-80,-162,-289,-235,-216,-178
-58,-122,-63,86,-1,-94,-86,-162,-289,-235,-216,-184
-52,-122,-69,80,5,-100,-86,-156,-289,-235,-210,-184
-52,-122,-69,80,5,-100,-86,-156,-289,-235,-210,-184
-52,-122,-69,80,5,-100,-86,-150,-283,-229,-204,-184
-52,-116,-63,80,5,-94,-86,-150,-277,-229,-192,-184
-47,-104,-57,74,5,-82,-86,-150,-277,-223,-192,-178
-47,-98,-51,68,-1,-76,-80,-150,-271,-223,-186,-178
-52,-86,-33,62,-13,-64,-80,-144,-265,-217,-186,-172
-52,-80,-27,62,-13,-58,-80,-138,-253,-211,-180,-166
-52,-74,-21,56,-19,-52,-74,-126,-247,-199,-174,-160
-52,-68,-15,56,-19,-46,-74,-120,-241,-193,-168,-160
-47,-62,-15,50,-19,-40,-68,-108,-229,-187,-162,-154
-47,-56,-9,50,-19,-34,-68,-102,-217,-181,-150,-142
-42,-44,-3,44,-19,-22,-62,-96,-211,-169,-138,-130
-36,-38,-3,34,-19,-22,-56,-90,-199,-157,-132,-118
-30,-33,-3,34,-13,-16,-50,-78,-187,-145,-120,-112
-30,-22,9,28,-19,-6,-44,-66,-169,-133,-108,-106
-24,-10,14,16,-19,0,-32,-48,-145,-115,-96,-94
-24,8,31,10,-25,18,-20,-31,-115,-97,-72,-82
-18,26,43,-2,-30,36,-2,-20,-91,-73,-62,-71
-12,44,55,-14,-30,48,4,-2,-67,-49,-44,-60
0,62,61,-32,-30,60,15,10,-51,-33,-20,-54
6,74,67,-38,-30,72,20,28,-33,-9,-2,-36
18,86,67,-50,-25,78,32,52,-3,27,28,-18
24,104,79,-62,-25,90,50,82,33,63,52,0
30,116,85,-68,-25,102,86,136,87,105,88,24
42,134,91,-86,-25,114,128,208,153,147,118,36
42,146,103,-92,-30,126,200,316,231,189,142,60
36,158,121,-98,-41,138,296,454,321,225,154,66
36,176,139,-104,-47,156,416,628,417,261,166,66
36,182,145,-110,-53,162,554,826,525,303,190,72
36,182,145,-110,-53,162,698,1054,657,363,220,90
54,194,139,-122,-41,168,842,1300,813,453,274,114
78,212,133,-140,-25,174,998,1546,993,573,358,168
114,248,133,-176,-7,192,1118,1720,1179,735,484,258
162,290,127,-224,17,210,1184,1780,1341,909,646,384
210,344,133,-272,41,240,1202,1732,1491,1119,850,540
264,428,163,-344,53,294,1124,1546,1623,1359,1090,738
324,584,259,-452,35,420,962,1264,1791,1665,1390,972
372,788,415,-578,-19,600,752,934,1971,2013,1720,1230
408,992,583,-698,-83,786,530,580,2133,2361,2056,1476
432,1112,679,-770,-119,894,320,244,2247,2672,2344,1692
438,1154,715,-794,-137,936,104,-84,2277,2912,2565,1842
408,1178,769,-794,-179,972,-122,-402,2205,3044,2673,1890
360,1142,781,-752,-209,960,-338,-666,2043,3056,2679,1848
300,1052,751,-674,-221,900,-494,-864,1761,2900,2541,1716
222,896,673,-554,-221,786,-566,-990,1341,2510,2230,1470
132,668,535,-398,-197,600,-584,-1032,861,1941,1762,1140
60,422,361,-242,-149,390,-596,-1020,381,1299,1234,786
-12,212,223,-98,-113,216,-602,-990,-21,729,742,450
-47,50,97,-2,-71,72,-614,-954,-295,285,340,174
-76,-62,14,62,-47,-28,-632,-918,-469,-9,58,-30
-88,-134,-45,104,-25,-94,-638,-876,-571,-199,-120,-148
-94,-194,-99,140,-1,-148,-626,-828,-625,-319,-240,-232
-94,-242,-147,164,23,-196,-596,-768,-649,-397,-312,-286
-88,-272,-183,176,47,-232,-566,-708,-643,-433,-354,-322
-82,-290,-207,182,59,-250,-536,-642,-619,-445,-378,-334
-76,-302,-225,182,71,-268,-500,-588,-583,-445,-384,-340
-64,-308,-243,182,89,-280,-452,-528,-541,-433,-378,-340
-52,-296,-243,170,95,-274,-386,-462,-493,-415,-360,-328
-47,-278,-231,158,89,-256,-308,-390,-439,-391,-336,-316
-47,-260,-213,152,83,-238,-236,-318,-391,-367,-318,-298
-42,-236,-195,140,77,-214,-182,-264,-361,-343,-306,-286
-36,-218,-183,122,71,-202,-140,-216,-337,-331,-300,-280
-42,-200,-159,122,59,-178,-122,-180,-319,-325,-294,-280
-47,-188,-141,116,47,-166,-98,-156,-301,-313,-288,-268
-42,-176,-135,110,47,-154,-92,-132,-283,-301,-282,-268
-42,-170,-129,104,41,-148,-86,-114,-265,-295,-276,-268
-42,-158,-117,98,35,-136,-74,-96,-247,-289,-270,-262
-42,-152,-111,98,35,-130,-68,-90,-241,-283,-270,-262
-42,-146,-105,92,29,-124,-56,-84,-235,-277,-264,-256
-42,-146,-105,92,29,-124,-50,-78,-229,-277,-264,-256
-42,-140,-99,92,29,-118,-38,-72,-223,-271,-264,-250
-42,-134,-93,86,23,-112,-44,-72,-223,-271,-264,-244
-42,-128,-87,86,23,-106,-44,-72,-223,-277,-264,-250
-42,-122,-81,80,17,-100,-44,-66,-223,-283,-264,-250
-42,-128,-87,86,23,-106,-44,-66,-217,-283,-258,-250
-42,-122,-81,80,17,-100,-50,-66,-217,-283,-264,-244
-36,-122,-87,74,23,-106,-50,-60,-223,-283,-264,-244
-42,-128,-87,86,23,-106,-44,-60,-217,-283,-270,-244
-36,-128,-93,80,29,-112,-38,-60,-217,-283,-270,-244
-36,-128,-93,80,29,-112,-32,-54,-211,-283,-270,-244
-30,-128,-99,80,35,-112,-32,-48,-205,-283,-264,-244
-30,-128,-99,80,35,-112,-26,-48,-205,-271,-258,-238
-24,-122,-99,68,35,-112,-32,-48,-205,-271,-252,-238
-24,-122,-99,68,35,-112,-26,-48,-205,-265,-252,-238
-24,-122,-99,68,35,-112,-26,-48,-205,-265,-246,-238
-24,-110,-87,62,29,-100,-26,-48,-205,-265,-252,-244
-24,-104,-81,62,29,-94,-32,-54,-211,-265,-252,-244
-24,-104,-81,62,29,-94,-32,-54,-205,-265,-252,-244
-24,-110,-87,62,29,-100,-20,-48,-199,-265,-246,-226
-18,-104,-87,62,35,-94,-20,-42,-199,-265,-246,-226
-18,-104,-87,62,35,-94,-20,-42,-199,-265,-246,-226
-12,-110,-99,56,41,-106,-26,-42,-193,-265,-246,-226
-12,-98,-87,50,35,-94,-26,-48,-193,-265,-246,-226
-12,-98,-87,50,35,-94,-26,-48,-187,-265,-246,-220
-12,-98,-87,50,35,-94,-26,-36,-181,-253,-240,-220
-12,-104,-93,56,41,-100,-26,-31,-175,-253,-234,-220
-12,-98,-87,50,35,-94,-20,-31,-169,-247,-228,-208
-18,-98,-81,56,29,-88,-14,-26,-163,-247,-228,-208
-18,-98,-81,56,29,-88,-8,-26,-157,-247,-222,-202
-18,-92,-75,56,29,-82,-8,-20,-157,-247,-216,-202
-18,-92,-75,56,29,-82,-8,-20,-151,-241,-216,-208
-18,-92,-75,56,29,-82,-8,-20,-145,-235,-216,-208
-18,-86,-69,50,23,-76,-8,-20,-139,-229,-222,-202
-18,-86,-69,50,23,-76,-14,-20,-127,-229,-222,-202
-18,-80,-63,50,23,-70,-20,-20,-121,-223,-222,-202
-12,-80,-69,44,29,-76,-20,-14,-109,-223,-222,-202
-12,-74,-63,39,23,-70,-20,-14,-103,-217,-216,-196
-6,-74,-69,39,29,-70,-8,-8,-91,-217,-216,-190
0,-80,-81,39,41,-82,-2,-8,-79,-205,-216,-190
0,-74,-75,34,35,-76,-2,4,-73,-199,-210,-184
6,-68,-75,34,41,-70,-2,10,-61,-193,-204,-184
12,-56,-69,22,41,-64,-2,16,-56,-187,-198,-184
18,-62,-81,22,47,-70,-2,28,-51,-175,-186,-184
12,-62,-75,22,41,-70,-8,40,-33,-163,-174,-178
12,-56,-69,22,41,-64,-8,52,-21,-145,-168,-172
6,-50,-57,22,29,-52,-8,58,3,-139,-156,-160
6,-44,-51,22,29,-46,-2,76,21,-121,-150,-148
12,-44,-57,16,35,-52,-2,88,45,-109,-144,-142
24,-33,-57,4,41,-46,-2,100,57,-97,-132,-142
30,-33,-63,4,47,-46,10,112,81,-85,-120,-130
36,-33,-69,-2,53,-52,10,130,105,-67,-108,-118
36,-33,-69,-2,53,-52,10,142,123,-44,-90,-112
36,-33,-69,-2,53,-52,10,154,147,-15,-72,-100
42,-22,-63,-8,53,-40,15,172,171,9,-62,-88
36,-16,-51,-8,47,-34,15,184,195,27,-44,-76
36,-10,-45,-14,41,-28,15,196,213,39,-32,-71
42,2,-39,-20,41,-16,15,208,237,63,-20,-60
48,14,-33,-32,41,-11,15,220,261,87,-2,-48
60,26,-33,-44,47,-6,15,232,285,111,22,-30
66,26,-39,-44,53,-6,20,250,315,135,40,-6
72,38,-33,-56,53,0,15,262,345,165,58,6
72,50,-21,-62,47,12,10,268,369,189,76,30
78,68,-9,-68,47,30,4,280,399,219,100,54
84,86,3,-86,41,42,4,292,429,249,130,78
90,92,3,-86,47,48,4,304,453,285,154,102
96,104,9,-98,47,54,4,316,489,321,184,120
102,110,9,-104,47,60,4,328,513,357,208,138
102,122,19,-110,41,72,-2,334,525,387,226,150
108,134,25,-122,41,78,-2,334,549,417,244,168
108,140,31,-122,41,84,-8,340,573,441,268,186
120,152,31,-134,47,90,-14,340,591,465,292,204
120,158,37,-140,41,96,-26,346,603,483,310,222
126,170,43,-146,41,108,-32,346,621,507,328,234
138,188,49,-158,47,120,-32,352,633,525,340,246
138,194,55,-164,41,126,-38,352,645,543,364,258
144,206,61,-176,41,132,-44,352,651,561,382,264
144,212,67,-176,41,138,-44,352,657,579,394,270
138,218,79,-176,29,150,-44,346,663,591,406,282
138,224,85,-176,29,156,-44,334,657,609,418,288
138,224,85,-176,29,156,-50,328,657,615,418,294
138,224,85,-176,29,156,-56,322,651,621,424,300
132,218,85,-176,23,150,-56,310,651,627,430,306
132,218,85,-176,23,150,-62,304,645,621,436,306
126,212,85,-164,23,150,-62,292,639,615,436,306
132,212,79,-170,29,144,-62,286,627,603,430,306
126,212,85,-164,23,150,-56,274,615,591,430,300
114,206,91,-158,11,150,-56,262,591,579,424,288
114,194,79,-152,17,138,-56,250,567,561,412,276
108,182,73,-146,17,126,-56,238,543,543,400,270
108,182,73,-146,17,126,-50,226,507,519,376,258
102,182,79,-140,11,132,-50,208,471,489,352,240
96,176,79,-134,11,126,-50,196,429,453,322,222
84,158,73,-122,5,114,-38,184,393,417,292,204
78,140,61,-104,11,102,-38,172,357,375,262,180
66,134,67,-98,-1,102,-38,160,321,333,232,162
54,122,67,-86,-7,96,-32,142,285,291,202,144
42,92,49,-62,-1,72,-32,130,261,255,172,126
36,74,37,-56,-1,54,-32,118,231,225,148,108
30,62,31,-44,-1,48,-32,106,201,195,124,90
30,56,25,-38,5,42,-32,94,165,165,100,72
24,50,25,-38,-1,36,-32,82,135,141,76,54
24,44,19,-32,5,30,-32,64,105,117,58,36
18,38,19,-26,-1,30,-32,52,69,81,34,18
18,38,19,-26,-1,30,-32,40,45,45,16,0
12,32,19,-20,-1,24,-32,28,21,21,-8,-12
0,14,14,-8,-7,12,-32,16,3,-3,-20,-24
-12,2,14,4,-13,6,-32,4,-15,-27,-44,-36
-18,-4,14,16,-13,6,-32,-8,-33,-49,-62,-54
-24,-10,14,16,-19,0,-32,-14,-56,-67,-72,-66
-30,-16,14,28,-19,0,-32,-20,-67,-73,-84,-71
-30,-22,9,28,-19,-6,-32,-26,-79,-85,-84,-76
-30,-28,3,34,-13,-11,-32,-26,-91,-97,-96,-82
-30,-33,-3,34,-13,-16,-26,-31,-103,-103,-108,-82
-30,-38,-9,34,-13,-22,-26,-36,-115,-115,-114,-88
-24,-38,-15,28,-7,-28,-26,-48,-127,-121,-126,-94
-24,-44,-21,34,-1,-34,-26,-54,-133,-127,-132,-94
-30,-50,-21,39,-7,-34,-32,-54,-139,-133,-132,-100
-30,-56,-27,44,-1,-40,-32,-60,-145,-139,-144,-106
-36,-62,-27,44,-7,-46,-26,-60,-151,-145,-150,-106
-36,-62,-27,44,-7,-46,-26,-60,-157,-151,-150,-106
-36,-68,-33,50,-1,-52,-26,-60,-163,-157,-156,-112
-36,-68,-33,50,-1,-52,-32,-60,-169,-163,-162,-112
-42,-68,-27,56,-7,-46,-32,-66,-169,-163,-162,-112
-36,-68,-33,50,-1,-52,-38,-72,-175,-169,-162,-118
-36,-68,-33,50,-1,-52,-38,-78,-169,-169,-168,-118
-36,-68,-33,50,-1,-52,-44,-84,-175,-175,-174,-124
-36,-74,-39,50,-1,-58,-44,-84,-175,-175,-174,-124
-36,-74,-39,50,-1,-58,-38,-84,-175,-175,-174,-124
-36,-74,-39,50,-1,-58,-38,-84,-181,-181,-180,-130
-36,-74,-39,50,-1,-58,-32,-78,-181,-181,-180,-130
-30,-74,-45,50,5,-58,-32,-78,-175,-175,-180,-124
-30,-74,-45,50,5,-58,-32,-78,-175,-169,-180,-118
-30,-74,-45,50,5,-58,-32,-78,-169,-169,-180,-118
-30,-68,-39,50,5,-52,-38,-78,-169,-175,-180,-118
-36,-62,-27,44,-7,-46,-44,-78,-169,-175,-186,-118
-36,-68,-33,50,-1,-52,-38,-78,-169,-169,-174,-124
-36,-86,-51,56,5,-70,-38,-66,-163,-163,-168,-118
-42,-86,-45,62,-1,-64,-38,-66,-157,-163,-168,-118
-36,-86,-51,56,5,-70,-32,-66,-151,-163,-162,-118
-36,-86,-51,56,5,-70,-32,-66,-151,-163,-168,-112
-36,-80,-45,56,5,-64,-26,-66,-151,-163,-168,-112
-36,-80,-45,56,5,-64,-26,-60,-157,-163,-174,-112
-36,-74,-39,50,-1,-58,-26,-54,-157,-157,-174,-112
-30,-74,-45,50,5,-58,-26,-54,-157,-157,-180,-118
-30,-74,-45,50,5,-58,-26,-54,-157,-157,-180,-118
-36,-80,-45,56,5,-64,-20,-48,-151,-157,-180,-124
-30,-86,-57,56,11,-70,-20,-48,-145,-157,-174,-124
-30,-86,-57,56,11,-70,-14,-48,-145,-157,-174,-118
-30,-80,-51,56,11,-64,-14,-48,-145,-157,-168,-124
-30,-80,-51,56,11,-64,-14,-48,-151,-157,-174,-124
-30,-74,-45,50,5,-58,-20,-54,-145,-157,-174,-124
-30,-74,-45,50,5,-58,-20,-54,-139,-157,-174,-118
-30,-68,-39,50,5,-52,-20,-54,-133,-157,-174,-118
-24,-68,-45,44,11,-58,-20,-54,-133,-157,-180,-118
-24,-68,-45,44,11,-58,-20,-54,-133,-163,-180,-118
-30,-68,-39,50,5,-52,-20,-48,-127,-157,-180,-118
-30,-68,-39,50,5,-52,-20,-42,-127,-157,-180,-118
-36,-68,-33,50,-1,-52,-20,-42,-127,-157,-180,-118
-36,-62,-27,44,-7,-46,-20,-42,-127,-157,-186,-118
-30,-62,-33,44,-1,-46,-14,-42,-127,-157,-186,-118
-24,-62,-39,39,5,-52,-14,-42,-127,-151,-186,-118
-24,-62,-39,39,5,-52,-14,-42,-127,-151,-186,-112
-24,-62,-39,39,5,-52,-14,-42,-127,-145,-186,-118
-24,-56,-33,39,5,-46,-8,-36,-127,-151,-186,-112
-30,-56,-27,44,-1,-40,-8,-36,-121,-151,-186,-112
-30,-50,-21,39,-7,-34,-14,-42,-115,-151,-186,-118
-30,-50,-21,39,-7,-34,-14,-36,-109,-151,-186,-112
-30,-50,-21,39,-7,-34,-14,-36,-103,-151,-186,-112
-30,-50,-21,39,-7,-34,-20,-31,-103,-151,-186,-112
-30,-56,-27,44,-1,-40,-20,-31,-97,-145,-186,-112
-30,-56,-27,44,-1,-40,-14,-26,-91,-139,-186,-112
-24,-50,-27,34,-1,-40,-14,-20,-91,-139,-186,-106
-24,-44,-21,34,-1,-34,-14,-20,-91,-139,-180,-106
-24,-38,-15,28,-7,-28,-14,-20,-91,-139,-180,-100
-30,-38,-9,34,-13,-22,-14,-20,-91,-139,-180,-94
-30,-38,-9,34,-13,-22,-14,-20,-97,-139,-180,-100
-30,-44,-15,39,-7,-28,-14,-20,-91,-145,-174,-100
-30,-38,-9,34,-13,-22,-14,-14,-91,-145,-174,-100
-24,-33,-9,28,-7,-22,-14,-8,-85,-139,-168,-100
-24,-38,-15,28,-7,-28,-14,-2,-73,-133,-168,-94
-18,-38,-21,28,-1,-28,-14,4,-73,-133,-168,-94
-24,-38,-15,28,-7,-28,-8,4,-73,-139,-168,-94
-24,-33,-9,28,-7,-22,-8,4,-73,-133,-168,-100
-24,-28,-3,28,-7,-16,-14,4,-73,-133,-168,-100
-24,-28,-3,28,-7,-16,-8,4,-73,-139,-168,-100
-24,-28,-3,28,-7,-16,-14,4,-73,-139,-174,-100
-24,-28,-3,28,-7,-16,-8,4,-79,-145,-174,-100
-24,-28,-3,28,-7,-16,-8,4,-79,-145,-174,-100
-24,-22,3,22,-13,-11,-8,4,-79,-151,-180,-100
-24,-22,3,22,-13,-11,-14,-2,-85,-157,-186,-106
-18,-22,-3,22,-7,-11,-14,-2,-85,-157,-186,-106
-12,-28,-15,22,5,-22,-14,-2,-91,-157,-186,-106
-12,-33,-21,22,5,-28,-14,-2,-91,-157,-180,-100
-18,-33,-15,28,-1,-22,-14,-2,-85,-157,-180,-100
-18,-33,-15,28,-1,-22,-14,-2,-91,-157,-186,-100
-18,-33,-15,28,-1,-22,-8,-8,-85,-157,-192,-106
-24,-33,-9,28,-7,-22,-14,-8,-97,-163,-198,-112
-24,-33,-9,28,-7,-22,-14,-8,-103,-169,-198,-106
-24,-33,-9,28,-7,-22,-14,-8,-103,-169,-198,-106
-24,-33,-9,28,-7,-22,-14,-8,-109,-175,-198,-106
-24,-33,-9,28,-7,-22,-14,-8,-115,-181,-198,-106
-24,-33,-9,28,-7,-22,-14,-14,-121,-181,-204,-112
-24,-33,-9,28,-7,-22,-14,-14,-121,-187,-210,-112
-30,-33,-3,34,-13,-16,-14,-20,-127,-187,-210,-112
-30,-28,3,34,-13,-11,-14,-20,-127,-187,-216,-106
-36,-33,3,34,-19,-16,-20,-26,-133,-193,-216,-112
-42,-33,9,39,-25,-11,-26,-26,-139,-199,-216,-112
-47,-33,14,39,-30,-11,-32,-31,-145,-205,-216,-112
-47,-38,9,39,-30,-16,-32,-31,-145,-205,-210,-112
-42,-44,-3,44,-19,-22,-32,-31,-151,-211,-210,-112
-36,-44,-9,39,-13,-28,-32,-31,-151,-211,-210,-118
-36,-38,-3,34,-19,-22,-32,-36,-157,-211,-210,-124
-36,-44,-9,39,-13,-28,-26,-36,-157,-217,-210,-124
-30,-44,-15,39,-7,-28,-20,-36,-163,-217,-216,-124
-24,-38,-15,28,-7,-28,-20,-31,-163,-223,-210,-124
-36,-44,-9,39,-13,-28,-20,-31,-169,-223,-216,-124
-36,-50,-15,39,-13,-34,-20,-31,-169,-229,-222,-124
-36,-50,-15,39,-13,-34,-26,-36,-175,-235,-228,-124
-30,-50,-21,39,-7,-34,-26,-36,-175,-241,-228,-124
-36,-56,-21,44,-7,-40,-26,-36,-175,-235,-222,-124
-30,-56,-27,44,-1,-40,-26,-42,-175,-235,-222,-124
-30,-56,-27,44,-1,-40,-26,-48,-181,-241,-228,-130
-30,-56,-27,44,-1,-40,-26,-48,-181,-241,-228,-130
-30,-50,-21,39,-7,-34,-26,-48,-187,-241,-234,-130
-36,-44,-9,39,-13,-28,-26,-48,-187,-241,-234,-130
-36,-38,-3,34,-19,-22,-32,-54,-199,-253,-240,-136
-42,-38,3,39,-25,-16,-32,-54,-205,-253,-240,-136
-42,-33,9,39,-25,-11,-32,-54,-211,-259,-246,-142
-42,-33,9,39,-25,-11,-32,-54,-211,-259,-246,-142
-42,-38,3,39,-25,-16,-32,-54,-211,-259,-246,-142
-42,-44,-3,44,-19,-22,-32,-60,-211,-259,-246,-136
-42,-44,-3,44,-19,-22,-32,-66,-211,-259,-246,-136
-42,-44,-3,44,-19,-22,-38,-66,-211,-259,-246,-136
-42,-50,-9,44,-19,-28,-32,-66,-217,-259,-252,-136
-42,-50,-9,44,-19,-28,-38,-66,-217,-259,-252,-142
-47,-44,3,44,-25,-22,-32,-66,-223,-265,-258,-142
-47,-50,-3,44,-25,-28,-32,-66,-223,-265,-264,-142
-47,-50,-3,44,-25,-28,-32,-72,-229,-271,-264,-148
-42,-50,-9,44,-19,-28,-32,-72,-223,-271,-264,-148
-42,-50,-9,44,-19,-28,-32,-72,-223,-277,-264,-154
-42,-44,-3,44,-19,-22,-32,-78,-229,-283,-264,-154
-42,-44,-3,44,-19,-22,-38,-78,-229,-283,-264,-154
-47,-44,3,44,-25,-22,-38,-84,-223,-283,-264,-154
-47,-44,3,44,-25,-22,-32,-84,-229,-289,-264,-160
-42,-44,-3,44,-19,-22,-32,-84,-229,-289,-264,-154
-42,-44,-3,44,-19,-22,-32,-90,-229,-289,-264,-154
-42,-38,3,39,-25,-16,-26,-90,-235,-289,-264,-154
-42,-38,3,39,-25,-16,-32,-90,-235,-289,-270,-154
-42,-38,3,39,-25,-16,-32,-84,-241,-295,-270,-154
-42,-38,3,39,-25,-16,-32,-84,-247,-295,-270,-154
-42,-33,9,39,-25,-11,-32,-78,-247,-295,-270,-160
-42,-28,14,39,-25,-6,-32,-84,-247,-295,-270,-160
-36,-33,3,34,-19,-16,-32,-84,-241,-295,-264,-160
-36,-28,9,34,-19,-11,-32,-84,-235,-289,-264,-160
-30,-28,3,34,-13,-11,-32,-84,-235,-289,-264,-160
-30,-22,9,28,-19,-6,-26,-84,-223,-289,-264,-166
-30,-16,14,28,-19,0,-20,-78,-217,-283,-258,-160
-30,-10,19,22,-25,6,-14,-72,-217,-283,-258,-160
-30,-4,25,22,-25,12,-8,-72,-217,-277,-258,-154
-30,8,37,16,-30,24,-8,-78,-223,-283,-258,-154
-24,20,43,4,-30,30,-2,-84,-229,-277,-252,-154
-18,20,37,4,-25,30,-2,-78,-229,-277,-252,-154
-18,26,43,-2,-30,36,4,-78,-229,-271,-246,-154
-12,32,43,-8,-25,36,10,-72,-229,-265,-246,-154
-12,38,49,-14,-30,42,15,-72,-223,-259,-240,-148
-18,44,61,-8,-35,54,15,-72,-223,-259,-246,-148
-18,44,61,-8,-35,54,20,-66,-217,-265,-246,-148
-12,32,43,-8,-25,36,26,-66,-211,-265,-240,-148
-18,26,43,-2,-30,36,38,-60,-205,-259,-234,-148
-18,26,43,-2,-30,36,50,-54,-199,-259,-234,-148
-18,26,43,-2,-30,36,56,-48,-199,-259,-228,-154
-24,44,67,-8,-41,54,56,-48,-193,-253,-228,-154
-18,62,79,-20,-47,72,44,-54,-187,-247,-228,-154
-12,74,85,-32,-47,78,32,-54,-187,-241,-222,-142
-6,92,97,-38,-47,96,10,-60,-181,-235,-216,-136
0,98,97,-50,-47,96,-14,-72,-181,-235,-216,-136
6,98,91,-50,-41,96,-26,-84,-187,-241,-216,-142
0,98,97,-50,-47,96,-44,-90,-193,-247,-216,-142
0,98,97,-50,-47,96,-50,-102,-193,-247,-216,-142
6,92,85,-44,-35,90,-50,-108,-199,-253,-216,-142
6,86,79,-44,-35,84,-44,-114,-205,-253,-204,-136
6,86,79,-44,-35,84,-44,-108,-205,-253,-204,-136
6,80,73,-38,-30,78,-38,-102,-205,-253,-198,-136
6,80,73,-38,-30,78,-32,-102,-205,-253,-204,-142
6,62,55,-32,-25,60,-26,-96,-205,-259,-204,-148
6,50,43,-26,-19,48,-20,-90,-205,-259,-210,-148
6,44,37,-20,-13,42,-14,-90,-211,-259,-210,-154
0,44,43,-20,-19,42,-8,-90,-211,-265,-210,-154
-6,38,43,-14,-25,42,-14,-96,-223,-271,-210,-160
-6,32,37,-8,-19,36,-26,-108,-235,-277,-216,-166
-6,20,25,-2,-13,24,-26,-114,-247,-289,-216,-166
-6,14,19,-2,-13,18,-26,-120,-253,-295,-216,-166
-6,14,19,-2,-13,18,-32,-126,-259,-301,-222,-166
-12,14,25,-2,-19,18,-38,-138,-271,-313,-228,-166
-18,2,19,10,-19,12,-38,-138,-277,-313,-240,-172
-18,-10,9,16,-13,0,-38,-138,-277,-319,-246,-178
-24,-16,9,22,-13,-6,-38,-144,-277,-325,-246,-184
-30,-22,9,28,-19,-6,-32,-138,-283,-325,-246,-190
-30,-28,3,34,-13,-11,-32,-138,-283,-325,-252,-190
-36,-33,3,34,-19,-16,-32,-138,-283,-331,-252,-196
-36,-33,3,34,-19,-16,-32,-138,-289,-337,-258,-196
-36,-33,3,34,-19,-16,-38,-138,-295,-343,-264,-202
-36,-33,3,34,-19,-16,-38,-138,-295,-343,-270,-208
-36,-33,3,34,-19,-16,-38,-138,-295,-343,-264,-208
-30,-38,-9,34,-13,-22,-44,-138,-295,-343,-264,-202
-30,-44,-15,39,-7,-28,-50,-144,-301,-349,-276,-208
-30,-50,-21,39,-7,-34,-50,-144,-307,-349,-276,-208
-30,-44,-15,39,-7,-28,-56,-144,-307,-355,-276,-208
-30,-50,-21,39,-7,-34,-50,-144,-307,-355,-270,-202
-36,-62,-27,44,-7,-46,-50,-144,-307,-349,-270,-202
-36,-56,-21,44,-7,-40,-50,-144,-307,-349,-270,-202
-42,-50,-9,44,-19,-28,-50,-144,-307,-349,-264,-202
-42,-44,-3,44,-19,-22,-50,-138,-301,-343,-264,-202
-47,-38,9,39,-30,-16,-50,-138,-295,-343,-264,-202
-47,-33,14,39,-30,-11,-44,-138,-289,-337,-264,-202
-47,-22,25,34,-35,0,-44,-138,-283,-331,-258,-196
-42,-22,19,34,-30,0,-44,-132,-271,-319,-252,-190
-42,-16,25,34,-30,6,-38,-126,-259,-313,-240,-184
-36,2,37,16,-35,18,-38,-120,-253,-301,-234,-178
-36,8,43,16,-35,24,-32,-114,-247,-289,-228,-172
-36,20,55,10,-41,36,-32,-108,-241,-277,-216,-172
-36,38,73,-2,-53,54,-26,-96,-229,-265,-204,-166
-30,56,85,-8,-53,72,-20,-84,-217,-253,-186,-154
-24,62,85,-20,-53,72,-8,-72,-205,-241,-168,-142
-18,62,79,-20,-47,72,-2,-60,-187,-223,-156,-130
-12,74,85,-32,-47,78,4,-48,-163,-205,-138,-118
-12,86,97,-38,-53,90,15,-31,-127,-181,-120,-100
-6,98,103,-44,-53,102,20,-14,-91,-157,-102,-88
0,104,103,-50,-47,102,26,10,-61,-127,-84,-71
6,110,103,-56,-47,108,38,28,-39,-103,-62,-60
12,134,121,-74,-53,126,50,46,-15,-67,-32,-36
18,158,139,-86,-59,150,68,76,15,-39,-2,-18
24,182,157,-104,-65,168,92,106,57,-3,28,6
36,194,157,-116,-59,174,128,160,111,45,64,30
36,212,175,-122,-65,192,176,232,183,81,94,42
42,236,193,-134,-71,216,248,340,267,123,112,54
42,254,211,-146,-83,234,350,490,363,165,124,66
42,260,217,-146,-83,240,476,670,471,201,136,66
42,266,223,-152,-89,246,608,874,597,255,160,78
48,278,229,-164,-89,252,746,1096,741,327,196,102
60,296,235,-176,-83,264,890,1318,909,429,262,138
84,326,241,-206,-77,282,1034,1522,1101,567,358,204
114,368,253,-236,-65,312,1124,1636,1281,735,508,306
162,416,253,-284,-41,336,1154,1654,1437,921,694,444
210,476,265,-338,-25,372,1124,1588,1569,1143,910,612
264,578,313,-422,-25,444,1010,1414,1683,1407,1174,810
312,746,433,-530,-59,588,836,1162,1815,1725,1480,1050
354,956,601,-650,-119,780,614,838,1947,2061,1798,1290
384,1148,763,-764,-185,954,392,496,2037,2373,2110,1512
402,1238,835,-818,-215,1038,206,178,2079,2636,2361,1686
390,1274,883,-830,-245,1080,20,-138,2025,2804,2529,1782
354,1286,931,-818,-287,1110,-176,-432,1899,2882,2601,1800
306,1232,925,-764,-305,1080,-338,-654,1701,2846,2565,1734
240,1118,877,-680,-317,996,-452,-822,1383,2612,2379,1572
150,932,781,-536,-311,858,-488,-918,945,2151,2002,1290
78,686,607,-380,-263,648,-500,-936,489,1545,1498,954
6,446,439,-224,-215,444,-512,-930,51,915,970,606
-42,254,295,-104,-167,276,-536,-912,-295,381,496,294
-64,104,169,-20,-113,132,-560,-882,-517,-9,136,48
-76,-4,73,39,-71,30,-578,-864,-643,-253,-96,-106
-82,-68,14,74,-47,-28,-578,-828,-703,-403,-240,-208
-88,-128,-39,104,-25,-88,-560,-792,-727,-499,-330,-274
-88,-170,-81,122,-7,-130,-518,-738,-727,-547,-378,-316
-82,-206,-123,140,17,-166,-482,-678,-703,-565,-408,-334
-76,-230,-153,146,35,-196,-446,-612,-673,-571,-420,-346
-70,-236,-165,152,47,-202,-410,-552,-637,-565,-432,-358
-58,-236,-177,146,59,-208,-374,-492,-601,-547,-426,-346
-47,-230,-183,134,65,-208,-320,-420,-541,-517,-408,-328
-47,-212,-165,128,59,-190,-266,-348,-487,-487,-390,-304
-42,-200,-159,122,59,-178,-200,-288,-439,-463,-372,-286
-36,-176,-141,104,53,-160,-146,-240,-391,-439,-354,-274
-30,-158,-129,92,47,-142,-104,-198,-355,-421,-342,-262
-30,-140,-111,86,41,-124,-74,-174,-331,-409,-336,-256
-30,-122,-93,74,29,-106,-56,-150,-307,-391,-330,-250
-30,-104,-75,68,23,-88,-44,-132,-289,-373,-318,-244
-36,-98,-63,62,11,-82,-44,-114,-277,-361,-312,-238
-36,-92,-57,62,11,-76,-38,-102,-265,-355,-306,-232
-36,-86,-51,56,5,-70,-32,-96,-259,-349,-300,-226
-36,-86,-51,56,5,-70,-32,-96,-253,-349,-300,-226
-36,-80,-45,56,5,-64,-20,-96,-247,-343,-294,-220
-36,-68,-33,50,-1,-52,-20,-90,-241,-349,-294,-220
-36,-62,-27,44,-7,-46,-14,-90,-235,-349,-300,-220
-36,-56,-21,44,-7,-40,-8,-84,-229,-349,-300,-220
-36,-56,-21,44,-7,-40,-8,-78,-229,-349,-294,-214
-36,-50,-15,39,-13,-34,-8,-72,-223,-337,-294,-214
-30,-50,-21,39,-7,-34,-8,-66,-223,-337,-294,-208
-30,-44,-15,39,-7,-28,-14,-66,-217,-331,-294,-208
-30,-50,-21,39,-7,-34,-14,-72,-217,-331,-294,-202
-30,-44,-15,39,-7,-28,-14,-72,-217,-331,-294,-202
-30,-44,-15,39,-7,-28,-8,-72,-223,-331,-294,-202
-24,-44,-21,34,-1,-34,-2,-66,-217,-325,-288,-196
-24,-44,-21,34,-1,-34,-2,-66,-217,-325,-282,-196
-24,-44,-21,34,-1,-34,4,-60,-217,-325,-276,-196
-30,-44,-15,39,-7,-28,4,-60,-217,-325,-276,-196
-30,-44,-15,39,-7,-28,4,-60,-217,-325,-276,-190
-30,-33,-3,34,-13,-16,-2,-60,-223,-325,-276,-190
-30,-28,3,34,-13,-11,-2,-60,-217,-319,-276,-190
-30,-33,-3,34,-13,-16,4,-54,-211,-313,-270,-190
-30,-33,-3,34,-13,-16,4,-54,-205,-307,-270,-184
-30,-33,-3,34,-13,-16,4,-48,-199,-301,-264,-184
-30,-38,-9,34,-13,-22,4,-48,-199,-295,-264,-178
-24,-33,-9,28,-7,-22,4,-48,-193,-295,-264,-178
-24,-28,-3,28,-7,-16,4,-48,-193,-301,-264,-184
-24,-22,3,22,-13,-11,-2,-42,-193,-301,-264,-184
-24,-16,9,22,-13,-6,-2,-42,-193,-301,-270,-184
-18,-28,-9,28,-1,-16,4,-36,-187,-289,-258,-178
-12,-33,-21,22,5,-28,4,-31,-175,-283,-258,-166
-12,-33,-21,22,5,-28,4,-31,-169,-277,-252,-166
-12,-33,-21,22,5,-28,4,-31,-163,-277,-252,-160
-12,-33,-21,22,5,-28,4,-31,-157,-271,-252,-154
-12,-33,-21,22,5,-28,4,-31,-151,-265,-246,-148
-12,-33,-21,22,5,-28,4,-31,-145,-265,-246,-148
-18,-33,-15,28,-1,-22,4,-31,-145,-265,-246,-148
-12,-33,-21,22,5,-28,-2,-26,-139,-259,-246,-148
-12,-28,-15,22,5,-22,-2,-26,-133,-253,-240,-142
-12,-28,-15,22,5,-22,4,-26,-127,-241,-234,-142
-12,-28,-15,22,5,-22,10,-20,-115,-235,-228,-142
-6,-28,-21,22,11,-22,10,-14,-103,-229,-222,-136
-6,-22,-15,16,5,-16,10,-8,-91,-217,-216,-130
-6,-16,-9,16,5,-11,15,-2,-79,-211,-210,-124
0,-16,-15,10,11,-16,15,10,-61,-199,-204,-118
0,-10,-9,4,5,-11,15,16,-56,-187,-192,-112
6,-4,-9,4,11,-6,15,16,-45,-175,-186,-106
6,8,3,-2,5,6,20,28,-27,-163,-174,-106
12,8,-3,-8,11,0,20,34,-15,-151,-168,-100
12,8,-3,-8,11,0,20,40,3,-145,-156,-94
12,8,-3,-8,11,0,26,52,21,-133,-144,-82
12,8,-3,-8,11,0,32,64,39,-121,-138,-82
18,14,-3,-14,11,6,32,76,57,-109,-126,-76
18,14,-3,-14,11,6,38,94,69,-91,-114,-71
24,26,3,-26,11,12,44,100,87,-79,-102,-66
24,26,3,-26,11,12,44,112,105,-55,-90,-60
24,32,9,-26,11,18,50,124,135,-33,-72,-54
24,38,14,-32,5,24,50,130,159,-9,-67,-42
30,44,14,-32,11,30,44,142,189,9,-62,-30
36,56,19,-44,11,36,50,160,213,33,-44,-18
42,68,25,-50,11,48,56,172,243,57,-20,0
48,80,31,-62,11,54,62,184,273,81,4,12
60,92,31,-74,17,60,62,196,303,111,28,24
60,104,43,-80,11,72,68,208,333,141,46,42
66,116,49,-86,11,84,68,214,363,171,70,54
66,122,55,-92,5,90,68,220,387,201,94,78
72,134,61,-104,5,96,68,232,417,237,124,96
72,140,67,-104,5,102,62,244,447,273,154,114
78,146,67,-110,5,108,56,256,471,309,178,132
84,158,73,-122,5,114,44,262,495,339,202,144
90,170,79,-128,5,126,44,268,519,369,226,168
96,182,85,-140,5,132,44,280,549,399,256,186
102,194,91,-146,5,144,38,286,567,429,280,204
108,212,103,-158,5,156,32,286,591,459,304,216
114,224,109,-164,5,168,26,286,615,483,322,234
120,236,115,-176,5,174,20,292,633,507,346,246
120,254,133,-188,-7,192,15,292,645,531,370,258
126,266,139,-194,-7,204,10,298,657,555,388,270
132,272,139,-200,-1,204,10,304,669,579,406,288
132,272,139,-200,-1,204,4,304,675,597,418,300
126,272,145,-194,-7,210,4,298,681,609,430,312
120,272,151,-194,-13,210,-2,292,681,621,442,318
114,278,163,-194,-25,222,-8,286,681,633,448,318
114,278,163,-194,-25,222,-8,286,687,645,460,324
114,278,163,-194,-25,222,-8,280,681,651,466,324
114,284,169,-194,-25,228,-14,274,669,645,460,318
108,278,169,-194,-30,222,-14,274,657,645,460,318
108,272,163,-188,-25,216,-14,262,651,633,454,312
102,266,163,-182,-30,216,-20,256,633,621,448,312
102,254,151,-176,-25,204,-14,250,609,603,442,306
96,242,145,-170,-25,192,-8,238,591,591,430,300
96,236,139,-164,-19,186,-8,226,567,567,418,288
90,230,139,-158,-25,186,-8,214,531,537,394,276
90,224,133,-152,-19,180,-8,202,495,501,370,264
84,212,127,-146,-19,168,-8,190,459,471,340,246
72,194,121,-134,-25,156,-8,184,423,429,316,228
66,182,115,-122,-25,150,-2,178,381,399,292,210
66,164,97,-110,-13,132,4,166,345,363,262,192
54,146,91,-98,-19,120,-2,154,309,327,232,174
48,140,91,-92,-19,114,-2,142,273,285,202,150
36,134,97,-86,-30,114,-2,124,231,243,172,126
30,122,91,-74,-30,108,4,106,195,207,142,108
24,104,79,-62,-25,90,4,94,165,177,124,90
18,86,67,-50,-25,78,10,88,129,147,100,72
12,68,55,-38,-19,60,10,76,99,117,76,60
12,56,43,-32,-13,48,10,64,75,81,52,42
6,50,43,-26,-19,48,4,52,45,51,34,30
-6,38,43,-14,-25,42,4,40,21,27,10,18
-12,26,37,-8,-25,30,4,28,-3,9,-8,6
-18,14,31,4,-25,24,4,16,-27,-15,-20,-6
-18,8,25,10,-19,18,4,10,-51,-33,-32,-18
-18,2,19,10,-19,12,10,4,-67,-49,-50,-24
-18,-10,9,16,-13,0,10,-2,-85,-73,-62,-36
-24,-22,3,22,-13,-11,10,-8,-103,-85,-67,-48
-24,-22,3,22,-13,-11,4,-14,-115,-97,-78,-54
-24,-33,-9,28,-7,-22,-2,-20,-121,-109,-84,-60
-30,-38,-9,34,-13,-22,-2,-26,-133,-121,-90,-71
-36,-38,-3,34,-19,-22,-2,-31,-145,-127,-96,-71
-36,-38,-3,34,-19,-22,-2,-31,-157,-133,-102,-76
-42,-44,-3,44,-19,-22,-2,-36,-163,-145,-108,-82
-36,-56,-21,44,-7,-40,-2,-36,-169,-145,-108,-82
-30,-50,-21,39,-7,-34,-8,-42,-175,-151,-120,-88
-30,-50,-21,39,-7,-34,-8,-48,-181,-157,-126,-94
-30,-44,-15,39,-7,-28,-2,-54,-187,-163,-132,-100
-30,-44,-15,39,-7,-28,-2,-60,-193,-169,-132,-106
-30,-50,-21,39,-7,-34,-2,-60,-199,-175,-138,-106
-30,-56,-27,44,-1,-40,4,-66,-199,-175,-138,-106
-30,-68,-39,50,5,-52,-2,-66,-205,-181,-144,-100
-30,-74,-45,50,5,-58,-2,-66,-205,-181,-144,-100
-36,-74,-39,50,-1,-58,-8,-60,-205,-181,-144,-100
-36,-74,-39,50,-1,-58,-8,-60,-205,-181,-144,-94
-36,-74,-39,50,-1,-58,-8,-60,-205,-181,-150,-100
-36,-80,-45,56,5,-64,-2,-66,-205,-181,-150,-94
-36,-74,-39,50,-1,-58,-2,-66,-205,-181,-150,-100
-36,-74,-39,50,-1,-58,4,-60,-205,-181,-150,-100
-36,-74,-39,50,-1,-58,4,-60,-205,-175,-150,-100
-42,-74,-33,56,-7,-52,4,-60,-205,-175,-150,-100
-36,-80,-45,56,5,-64,-2,-54,-205,-169,-144,-94
-30,-80,-51,56,11,-64,4,-54,-199,-169,-138,-94
-36,-80,-45,56,5,-64,4,-54,-199,-169,-138,-94
-36,-86,-51,56,5,-70,10,-48,-199,-163,-138,-94
-30,-86,-57,56,11,-70,10,-48,-193,-163,-138,-94
-30,-86,-57,56,11,-70,15,-48,-193,-157,-138,-94
-30,-80,-51,56,11,-64,15,-48,-187,-157,-132,-100
-30,-80,-51,56,11,-64,15,-48,-181,-151,-132,-100
-24,-80,-57,50,17,-70,15,-48,-181,-151,-132,-100
-24,-74,-51,44,11,-64,20,-42,-175,-157,-132,-100
-24,-74,-51,44,11,-64,20,-42,-175,-157,-132,-106
-30,-74,-45,50,5,-58,20,-42,-175,-157,-138,-106
-30,-80,-51,56,11,-64,20,-36,-169,-151,-132,-106
-30,-74,-45,50,5,-58,20,-36,-169,-157,-132,-112
-30,-74,-45,50,5,-58,20,-36,-175,-157,-132,-112
-30,-80,-51,56,11,-64,20,-36,-169,-151,-132,-112
-30,-86,-57,56,11,-70,20,-31,-169,-151,-132,-118
-30,-86,-57,56,11,-70,20,-36,-169,-151,-126,-112
-30,-92,-63,62,17,-76,20,-36,-169,-145,-120,-112
-24,-92,-69,56,23,-82,26,-36,-163,-151,-120,-112
-36,-92,-57,62,11,-76,26,-36,-169,-151,-120,-112
-36,-98,-63,62,11,-82,26,-36,-169,-151,-114,-112
-42,-98,-57,68,5,-76,32,-36,-169,-151,-114,-112
-42,-92,-51,68,5,-70,32,-42,-163,-151,-114,-112
-42,-92,-51,68,5,-70,26,-36,-163,-151,-120,-112
-42,-86,-45,62,-1,-64,26,-36,-157,-151,-120,-106
-42,-80,-39,62,-1,-58,26,-31,-157,-151,-126,-106
-42,-74,-33,56,-7,-52,26,-31,-151,-145,-120,-100
-42,-80,-39,62,-1,-58,26,-26,-151,-145,-120,-100
-36,-74,-39,50,-1,-58,26,-26,-145,-139,-114,-100
-36,-74,-39,50,-1,-58,26,-26,-145,-133,-114,-100
-36,-68,-33,50,-1,-52,26,-26,-145,-133,-114,-100
-36,-74,-39,50,-1,-58,26,-26,-145,-133,-114,-106
-30,-74,-45,50,5,-58,26,-26,-139,-133,-114,-106
-36,-86,-51,56,5,-70,26,-20,-139,-127,-114,-106
-42,-86,-45,62,-1,-64,32,-20,-139,-121,-114,-106
-42,-86,-45,62,-1,-64,32,-8,-133,-121,-114,-106
-42,-92,-51,68,5,-70,38,-8,-127,-121,-114,-106
-42,-86,-45,62,-1,-64,38,-2,-127,-115,-114,-106
-42,-80,-39,62,-1,-58,32,-2,-127,-115,-120,-106
-47,-80,-33,62,-7,-58,32,-2,-121,-115,-120,-112
-47,-74,-27,56,-13,-52,32,-8,-115,-109,-120,-112
-42,-74,-33,56,-7,-52,32,-8,-115,-109,-120,-112
-42,-74,-33,56,-7,-52,32,-8,-115,-115,-120,-112
-36,-74,-39,50,-1,-58,32,-8,-109,-115,-120,-106
-36,-80,-45,56,5,-64,38,-8,-109,-115,-120,-106
-42,-74,-33,56,-7,-52,38,-2,-109,-115,-114,-106
-42,-68,-27,56,-7,-46,38,-2,-109,-115,-114,-106
-36,-62,-27,44,-7,-46,38,-2,-109,-115,-120,-106
-36,-62,-27,44,-7,-46,38,4,-109,-115,-114,-106
-36,-62,-27,44,-7,-46,38,4,-109,-115,-114,-106
-36,-56,-21,44,-7,-40,38,4,-115,-115,-114,-106
-30,-62,-33,44,-1,-46,38,4,-115,-121,-108,-112
-30,-68,-39,50,5,-52,38,4,-109,-121,-108,-106
-30,-68,-39,50,5,-52,38,4,-115,-121,-108,-106
-30,-62,-33,44,-1,-46,38,-2,-115,-121,-114,-106
-30,-56,-27,44,-1,-40,38,-2,-121,-121,-114,-112
-24,-56,-33,39,5,-46,38,-2,-121,-121,-114,-112
-24,-56,-33,39,5,-46,44,-2,-127,-121,-114,-112
-30,-68,-39,50,5,-52,44,-2,-127,-121,-114,-112
-30,-68,-39,50,5,-52,38,-2,-127,-121,-114,-106
-36,-62,-27,44,-7,-46,32,-8,-127,-127,-126,-106
-36,-62,-27,44,-7,-46,32,-8,-133,-133,-132,-106
-36,-62,-27,44,-7,-46,32,-8,-133,-133,-138,-106
-36,-62,-27,44,-7,-46,32,-8,-133,-139,-138,-106
-36,-62,-27,44,-7,-46,32,-8,-139,-145,-144,-112
-36,-62,-27,44,-7,-46,38,-2,-139,-151,-144,-106
-36,-56,-21,44,-7,-40,32,-2,-145,-151,-144,-106
-36,-50,-15,39,-13,-34,32,-8,-151,-157,-150,-112
-30,-44,-15,39,-7,-28,26,-2,-151,-157,-150,-112
-36,-50,-15,39,-13,-34,26,-8,-157,-157,-144,-112
-42,-50,-9,44,-19,-28,20,-8,-157,-157,-144,-112
-42,-56,-15,50,-13,-34,26,-8,-163,-169,-144,-112
-42,-62,-21,50,-13,-40,26,-14,-169,-169,-150,-124
-42,-62,-21,50,-13,-40,26,-14,-169,-175,-156,-124
-42,-68,-27,56,-7,-46,26,-20,-175,-181,-156,-124
-42,-68,-27,56,-7,-46,26,-20,-175,-181,-162,-124
-42,-68,-27,56,-7,-46,20,-20,-181,-181,-162,-118
-42,-74,-33,56,-7,-52,20,-20,-187,-187,-168,-124
-47,-74,-27,56,-13,-52,20,-20,-187,-187,-168,-124
-47,-74,-27,56,-13,-52,20,-26,-187,-187,-168,-124
-42,-74,-33,56,-7,-52,20,-26,-193,-193,-168,-124
-42,-74,-33,56,-7,-52,20,-31,-193,-193,-168,-124
-36,-74,-39,50,-1,-58,20,-31,-193,-193,-168,-124
-36,-68,-33,50,-1,-52,15,-36,-193,-193,-168,-130
-42,-74,-33,56,-7,-52,10,-36,-193,-199,-168,-130
-42,-80,-39,62,-1,-58,10,-36,-199,-199,-168,-130
-42,-80,-39,62,-1,-58,4,-42,-199,-199,-174,-136
-42,-80,-39,62,-1,-58,-2,-48,-205,-205,-180,-136
-47,-80,-33,62,-7,-58,-2,-54,-205,-211,-186,-142
-47,-74,-27,56,-13,-52,4,-54,-211,-211,-186,-142
-52,-74,-21,56,-19,-52,4,-60,-217,-211,-186,-142
-52,-74,-21,56,-19,-52,4,-66,-223,-211,-186,-142
-52,-80,-27,62,-13,-58,4,-66,-229,-217,-186,-142
-52,-80,-27,62,-13,-58,4,-66,-229,-217,-186,-142
-58,-80,-21,68,-19,-52,4,-66,-229,-217,-186,-142
-52,-80,-27,62,-13,-58,-2,-66,-235,-217,-192,-142
-52,-80,-27,62,-13,-58,-8,-66,-235,-217,-192,-142
-58,-86,-27,68,-19,-58,-8,-72,-241,-217,-198,-142
-58,-86,-27,68,-19,-58,-8,-72,-241,-217,-198,-136
-64,-92,-27,74,-19,-64,-8,-78,-241,-223,-204,-136
-64,-86,-21,68,-25,-58,-14,-78,-241,-223,-204,-142
-64,-86,-21,68,-25,-58,-14,-84,-247,-229,-210,-142
-58,-92,-33,74,-13,-64,-14,-90,-247,-235,-210,-148
-58,-92,-33,74,-13,-64,-14,-90,-247,-235,-210,-148
-58,-86,-27,68,-19,-58,-20,-96,-253,-241,-210,-154
-64,-86,-21,68,-25,-58,-14,-90,-247,-241,-204,-154
-64,-86,-21,68,-25,-58,-14,-90,-253,-241,-204,-154
-70,-86,-15,74,-30,-52,-14,-90,-259,-241,-216,-154
-70,-86,-15,74,-30,-52,-14,-84,-253,-241,-210,-160
-64,-86,-21,68,-25,-58,-20,-84,-253,-241,-216,-154
-64,-86,-21,68,-25,-58,-20,-90,-259,-247,-216,-154
-64,-86,-21,68,-25,-58,-20,-90,-259,-247,-216,-154
-64,-92,-27,74,-19,-64,-14,-90,-259,-247,-210,-142
-64,-98,-33,74,-19,-70,-14,-84,-253,-247,-210,-142
-64,-98,-33,74,-19,-70,-8,-84,-253,-247,-204,-148
-64,-86,-21,68,-25,-58,-2,-78,-247,-241,-198,-142
-58,-74,-15,62,-25,-46,-2,-72,-241,-235,-204,-142
-58,-56,3,56,-30,-28,-2,-78,-241,-235,-204,-142
-58,-44,14,50,-35,-16,-2,-78,-241,-229,-204,-148
-58,-44,14,50,-35,-16,4,-84,-241,-229,-198,-142
-58,-56,3,56,-30,-28,4,-84,-235,-223,-192,-142
-58,-56,3,56,-30,-28,4,-84,-235,-223,-192,-142
-58,-50,9,50,-35,-22,10,-84,-235,-223,-192,-136
-52,-44,9,44,-30,-22,15,-78,-229,-217,-186,-136
-52,-33,19,39,-35,-11,20,-78,-223,-217,-186,-136
-52,-33,19,39,-35,-11,26,-78,-223,-223,-180,-136
-52,-28,25,39,-35,-6,38,-78,-223,-217,-180,-130
-52,-28,25,39,-35,-6,44,-72,-223,-217,-186,-136
-52,-22,31,34,-41,0,50,-66,-223,-211,-186,-136
-58,-16,43,39,-47,12,56,-60,-217,-211,-186,-130
-64,-16,49,39,-53,12,62,-54,-211,-205,-180,-130
-64,-10,55,34,-59,18,62,-54,-205,-205,-174,-124
-52,-4,49,28,-47,18,50,-66,-205,-205,-174,-130
-42,14,55,16,-47,36,38,-72,-199,-199,-168,-118
-36,26,61,4,-47,42,15,-84,-205,-199,-162,-118
-30,32,61,4,-41,48,-8,-90,-211,-193,-162,-112
-30,32,61,4,-41,48,-20,-96,-211,-193,-162,-112
-30,26,55,4,-41,42,-32,-102,-217,-199,-156,-112
-30,26,55,4,-41,42,-44,-108,-229,-205,-156,-112
-30,26,55,4,-41,42,-56,-114,-235,-211,-156,-118
-30,26,55,4,-41,42,-50,-120,-241,-211,-156,-118
-30,20,49,10,-35,36,-44,-114,-235,-211,-156,-118
-30,14,43,10,-35,30,-38,-114,-235,-205,-156,-112
-30,8,37,16,-30,24,-26,-108,-235,-205,-156,-112
-36,2,37,16,-35,18,-26,-108,-241,-205,-162,-118
-36,-4,31,22,-30,12,-26,-108,-247,-211,-174,-118
-30,-10,19,22,-25,6,-26,-108,-247,-211,-174,-112
-30,-16,14,28,-19,0,-26,-108,-247,-217,-174,-118
-36,-22,14,28,-25,-6,-26,-108,-253,-217,-174,-118
-36,-22,14,28,-25,-6,-32,-108,-253,-229,-168,-118
-36,-22,14,28,-25,-6,-38,-120,-259,-235,-174,-118
-42,-33,9,39,-25,-11,-44,-126,-265,-241,-180,-130
-42,-33,9,39,-25,-11,-44,-132,-271,-241,-186,-130
-47,-44,3,44,-25,-22,-44,-132,-271,-247,-192,-136
-52,-56,-3,50,-25,-34,-50,-138,-277,-253,-198,-142
-58,-56,3,56,-30,-28,-56,-150,-283,-259,-204,-148
-58,-68,-9,62,-25,-40,-50,-150,-289,-265,-210,-160
-64,-74,-9,62,-30,-46,-50,-150,-295,-271,-210,-160
-64,-80,-15,68,-25,-52,-50,-150,-301,-271,-216,-166
-64,-86,-21,68,-25,-58,-50,-150,-301,-277,-216,-166
-70,-86,-15,74,-30,-52,-50,-144,-307,-283,-222,-166
-70,-86,-15,74,-30,-52,-56,-144,-307,-289,-222,-166
-70,-86,-15,74,-30,-52,-56,-144,-313,-289,-228,-166
-70,-92,-21,80,-25,-58,-56,-144,-313,-289,-234,-172
-76,-98,-21,80,-30,-64,-56,-144,-313,-289,-234,-172
-76,-104,-27,86,-25,-70,-56,-144,-313,-289,-234,-172
-76,-104,-27,86,-25,-70,-62,-150,-313,-295,-234,-178
-76,-104,-27,86,-25,-70,-56,-150,-313,-295,-228,-178
-70,-98,-27,80,-25,-64,-56,-162,-307,-295,-228,-178
-70,-98,-27,80,-25,-64,-56,-156,-307,-295,-222,-178
-70,-104,-33,86,-19,-70,-68,-156,-307,-295,-216,-178
-70,-98,-27,80,-25,-64,-62,-150,-301,-295,-216,-172
-70,-92,-21,80,-25,-58,-62,-150,-301,-295,-216,-172
-64,-80,-15,68,-25,-52,-62,-150,-301,-289,-216,-166
-64,-68,-3,62,-30,-40,-68,-150,-295,-283,-216,-172
-64,-62,3,56,-35,-34,-62,-150,-289,-277,-210,-166
-58,-68,-9,62,-25,-40,-62,-138,-283,-265,-204,-154
-58,-62,-3,56,-30,-34,-56,-132,-265,-253,-192,-148
-52,-56,-3,50,-25,-34,-56,-120,-259,-247,-186,-148
-52,-50,3,44,-30,-28,-50,-114,-247,-235,-180,-142
-52,-44,9,44,-30,-22,-44,-102,-241,-229,-168,-136
-52,-33,19,39,-35,-11,-38,-96,-235,-217,-156,-130
-52,-22,31,34,-41,0,-32,-90,-229,-205,-144,-118
-52,-4,49,28,-47,18,-20,-78,-217,-193,-132,-112
-52,8,61,22,-53,30,-14,-72,-199,-181,-120,-106
-47,26,73,10,-59,48,-8,-60,-181,-169,-108,-100
-47,32,79,10,-59,54,4,-42,-151,-139,-90,-82
-47,38,85,4,-65,60,15,-26,-115,-109,-72,-71
-42,50,91,-2,-65,72,15,-2,-79,-79,-50,-54
-24,62,85,-20,-53,72,26,16,-56,-55,-32,-30
-12,74,85,-32,-47,78,32,34,-27,-39,-8,-12
-6,92,97,-38,-47,96,50,58,-3,-15,16,12
0,116,115,-56,-53,114,68,94,27,15,46,30
6,134,127,-68,-59,132,104,142,75,51,70,48
12,152,139,-80,-59,144,152,208,135,87,100,66
6,170,163,-86,-77,168,230,316,207,117,118,66
6,182,175,-92,-83,180,332,460,285,153,130,72
12,194,181,-104,-83,186,464,634,381,183,136,78
18,206,187,-110,-83,198,596,832,489,231,154,84
30,212,181,-116,-71,198,734,1060,621,291,184,96
42,218,175,-128,-65,198,884,1300,771,381,232,126
60,236,175,-146,-53,204,1034,1534,951,495,304,168
90,272,181,-176,-41,228,1124,1684,1137,651,442,264
138,320,181,-224,-19,252,1160,1726,1293,831,616,402
192,392,199,-290,-1,294,1112,1660,1437,1035,832,576
246,494,247,-368,-1,372,974,1474,1575,1299,1090,786
312,650,337,-482,-13,492,782,1204,1743,1629,1402,1026
366,848,481,-602,-53,666,560,874,1929,1989,1738,1278
402,1046,643,-722,-119,846,338,508,2085,2343,2062,1518
426,1172,745,-794,-155,960,122,148,2187,2660,2350,1728
438,1220,781,-824,-167,1002,-92,-186,2205,2906,2571,1872
408,1250,841,-830,-215,1044,-320,-510,2139,3044,2691,1926
354,1226,871,-788,-257,1050,-494,-744,1995,3056,2691,1884
294,1124,829,-704,-263,978,-602,-912,1731,2888,2559,1752
210,938,727,-572,-257,834,-656,-1008,1317,2492,2248,1512
120,686,565,-404,-221,624,-662,-1020,837,1917,1786,1188
54,428,373,-236,-155,402,-674,-1008,339,1263,1264,840
-6,212,217,-98,-107,216,-692,-984,-73,693,778,510
-47,38,85,4,-65,60,-698,-936,-355,255,376,222
-70,-80,-9,74,-30,-46,-692,-888,-523,-44,82,18
-82,-152,-69,116,-7,-112,-680,-846,-613,-235,-102,-106
-94,-200,-105,146,5,-154,-644,-798,-661,-355,-222,-196
-100,-242,-141,164,17,-196,-602,-738,-673,-427,-294,-250
-94,-260,-165,176,35,-214,-566,-672,-661,-469,-330,-280
-82,-272,-189,176,53,-232,-518,-594,-625,-475,-342,-292
-82,-284,-201,182,59,-244,-470,-522,-589,-469,-342,-286
-70,-284,-213,176,71,-250,-404,-450,-541,-451,-330,-274
-64,-272,-207,164,71,-244,-326,-366,-493,-415,-312,-256
-58,-254,-195,152,65,-226,-254,-294,-445,-385,-288,-238
-52,-242,-189,140,65,-220,-182,-234,-397,-361,-270,-220
-52,-218,-165,128,53,-196,-134,-192,-367,-343,-258,-214
-52,-188,-135,116,41,-166,-104,-162,-343,-331,-252,-220
-52,-170,-117,104,29,-148,-80,-138,-319,-325,-246,-214
-58,-152,-93,104,17,-124,-68,-114,-301,-313,-234,-208
-58,-140,-81,98,11,-112,-62,-96,-277,-301,-228,-202
-58,-128,-69,92,5,-100,-56,-84,-265,-301,-228,-196
-64,-122,-57,86,-7,-94,-44,-78,-253,-295,-216,-190
-64,-116,-51,86,-7,-88,-38,-72,-247,-289,-216,-184
-64,-116,-51,86,-7,-88,-32,-66,-247,-283,-216,-178
-58,-110,-51,80,-7,-82,-26,-60,-247,-283,-210,-178
-52,-110,-57,74,-1,-88,-20,-54,-247,-283,-210,-178
-52,-110,-57,74,-1,-88,-14,-54,-241,-283,-210,-172
-47,-110,-63,74,5,-88,-8,-48,-235,-283,-210,-178
-47,-110,-63,74,5,-88,-8,-48,-235,-289,-216,-184
-52,-116,-63,80,5,-94,-8,-48,-229,-289,-216,-184
-58,-122,-63,86,-1,-94,-8,-48,-229,-283,-210,-184
-52,-110,-57,74,-1,-88,-2,-48,-223,-283,-204,-178
-52,-104,-51,74,-1,-82,-2,-48,-229,-283,-204,-184
-58,-104,-45,80,-7,-76,-2,-42,-229,-283,-198,-184
-52,-104,-51,74,-1,-82,4,-42,-223,-283,-198,-178
-52,-98,-45,68,-7,-76,4,-42,-223,-283,-198,-178
-58,-98,-39,74,-13,-70,4,-42,-217,-277,-198,-172
-58,-92,-33,74,-13,-64,10,-36,-217,-271,-198,-166
-52,-92,-39,68,-7,-70,10,-36,-211,-265,-192,-160
-52,-92,-39,68,-7,-70,15,-36,-211,-259,-192,-160
-52,-92,-39,68,-7,-70,15,-36,-205,-259,-192,-160
-47,-98,-51,68,-1,-76,15,-31,-199,-259,-186,-160
-47,-98,-51,68,-1,-76,15,-31,-199,-259,-186,-160
-47,-98,-51,68,-1,-76,15,-31,-199,-259,-186,-160
-47,-92,-45,68,-1,-70,15,-31,-193,-259,-192,-160
-47,-86,-39,62,-7,-64,15,-26,-187,-259,-192,-160
-47,-86,-39,62,-7,-64,10,-26,-181,-259,-192,-166
-47,-80,-33,62,-7,-58,10,-31,-175,-265,-192,-166
-47,-80,-33,62,-7,-58,10,-31,-169,-259,-192,-160
-47,-92,-45,68,-1,-70,15,-31,-163,-259,-186,-160
-42,-92,-51,68,5,-70,15,-26,-157,-253,-186,-160
-42,-86,-45,62,-1,-64,15,-20,-157,-247,-186,-154
-42,-74,-33,56,-7,-52,15,-20,-157,-247,-186,-154
-42,-74,-33,56,-7,-52,15,-14,-151,-241,-186,-154
-42,-74,-33,56,-7,-52,15,-8,-151,-235,-186,-148
-47,-74,-27,56,-13,-52,15,-2,-145,-223,-180,-148
-47,-74,-27,56,-13,-52,20,4,-133,-217,-180,-142
-47,-74,-27,56,-13,-52,26,10,-127,-217,-180,-142
-42,-74,-33,56,-7,-52,26,10,-121,-217,-174,-142
-36,-68,-33,50,-1,-52,26,16,-109,-217,-174,-142
-30,-62,-33,44,-1,-46,26,16,-97,-211,-168,-142
-30,-62,-33,44,-1,-46,32,22,-79,-205,-162,-142
-24,-50,-27,34,-1,-40,38,28,-67,-193,-156,-136
-24,-50,-27,34,-1,-40,38,40,-61,-187,-150,-136
-18,-44,-27,34,5,-34,44,46,-56,-175,-138,-142
-18,-44,-27,34,5,-34,44,52,-51,-163,-132,-136
-18,-38,-21,28,-1,-28,44,64,-39,-151,-126,-130
-18,-44,-27,34,5,-34,50,76,-21,-139,-126,-124
-18,-50,-33,34,5,-40,56,88,-9,-139,-120,-118
-18,-50,-33,34,5,-40,62,100,3,-127,-108,-112
-18,-44,-27,34,5,-34,68,118,27,-115,-96,-106
-18,-38,-21,28,-1,-28,68,130,45,-103,-84,-100
-18,-33,-15,28,-1,-22,68,148,63,-91,-72,-94
-18,-33,-15,28,-1,-22,74,160,87,-73,-67,-88
-12,-33,-21,22,5,-28,80,178,111,-49,-62,-76
-12,-22,-9,16,-1,-16,86,190,129,-33,-50,-71
-12,-22,-9,16,-1,-16,92,202,153,-15,-38,-71
-6,-16,-9,16,5,-11,98,214,177,3,-26,-60
-6,-4,3,10,-1,0,104,232,201,27,-20,-48
0,2,3,-2,-1,0,104,244,225,45,-2,-42
0,8,9,-2,-1,6,110,262,255,69,10,-24
6,26,19,-14,-7,24,116,286,285,99,34,-12
12,38,25,-26,-7,30,116,304,309,123,52,0
18,50,31,-32,-7,42,122,322,339,153,76,18
24,62,37,-44,-7,48,122,340,369,177,94,30
30,80,49,-50,-7,66,128,352,399,207,118,42
42,92,49,-62,-1,72,128,364,435,237,142,54
42,104,61,-68,-7,84,128,370,465,267,166,60
48,110,61,-80,-7,84,122,382,489,297,190,72
48,122,73,-86,-13,96,122,388,519,327,208,90
48,134,85,-92,-19,108,122,400,549,357,232,108
54,140,85,-92,-13,114,116,406,579,387,250,126
60,158,97,-110,-19,126,116,418,603,417,274,144
66,164,97,-110,-13,132,110,424,633,453,304,168
72,182,109,-128,-19,144,104,436,651,483,334,186
84,194,109,-140,-13,150,98,448,675,513,358,204
90,206,115,-146,-13,162,92,454,693,537,382,216
96,212,115,-152,-7,162,86,454,711,561,394,228
96,218,121,-158,-13,168,80,448,723,567,406,240
102,218,115,-158,-7,168,74,448,735,585,418,240
108,224,115,-164,-1,168,68,442,747,609,436,252
114,230,115,-170,-1,174,62,436,753,627,448,264
114,236,121,-170,-1,180,56,430,759,639,460,276
114,242,127,-176,-7,186,56,424,759,651,472,282
108,248,139,-176,-13,192,50,418,759,663,478,288
108,254,145,-182,-19,198,44,406,753,669,478,294
108,260,151,-182,-19,204,44,394,753,669,484,294
102,254,151,-176,-25,204,38,388,747,669,490,294
102,254,151,-176,-25,204,38,376,735,657,490,300
108,254,145,-182,-19,198,32,364,723,651,484,300
108,248,139,-176,-13,192,26,346,699,639,478,294
102,242,139,-170,-19,192,20,328,675,627,472,288
96,230,133,-164,-19,180,20,304,645,609,460,282
90,224,133,-152,-19,180,15,286,609,585,448,270
90,212,121,-146,-13,168,15,262,573,555,430,258
78,200,121,-134,-19,162,15,244,537,513,400,246
66,188,121,-122,-25,156,15,226,507,477,370,228
66,182,115,-122,-25,150,10,202,465,435,340,210
60,170,109,-116,-25,138,10,184,423,399,316,186
54,152,97,-98,-19,126,10,166,387,369,292,174
42,134,91,-86,-25,114,10,148,339,339,268,156
36,122,85,-80,-25,102,4,130,297,309,244,144
24,110,85,-68,-30,96,4,112,261,273,220,126
12,86,73,-50,-30,78,4,94,225,237,196,108
12,74,61,-44,-25,66,4,76,195,201,172,90
0,56,55,-26,-25,54,4,52,159,165,148,72
0,50,49,-26,-25,48,4,40,129,135,124,54
-6,38,43,-14,-25,42,4,22,105,105,100,36
-12,32,43,-8,-25,36,-2,10,75,81,76,24
-12,26,37,-8,-25,30,-2,-2,51,57,58,12
-12,20,31,-2,-19,24,-8,-14,27,39,34,0
-12,14,25,-2,-19,18,-8,-26,9,21,22,-6
-18,8,25,10,-19,18,-14,-36,-15,3,10,-18
-18,2,19,10,-19,12,-14,-48,-33,-21,-2,-24
-18,-10,9,16,-13,0,-14,-60,-51,-39,-14,-36
-18,-10,9,16,-13,0,-20,-66,-61,-55,-26,-42
-24,-10,14,16,-19,0,-20,-72,-73,-67,-38,-48
-30,-22,9,28,-19,-6,-14,-78,-85,-73,-38,-54
-30,-22,9,28,-19,-6,-14,-78,-91,-85,-44,-60
-30,-22,9,28,-19,-6,-14,-78,-103,-91,-50,-66
-30,-28,3,34,-13,-11,-26,-84,-109,-97,-56,-71
-30,-33,-3,34,-13,-16,-26,-84,-115,-97,-62,-76
-30,-33,-3,34,-13,-16,-26,-90,-121,-103,-62,-82
-30,-44,-15,39,-7,-28,-26,-96,-127,-109,-67,-82
-30,-44,-15,39,-7,-28,-26,-102,-133,-115,-72,-82
-30,-38,-9,34,-13,-22,-26,-108,-133,-121,-78,-88
-30,-33,-3,34,-13,-16,-26,-108,-139,-121,-78,-82
-36,-38,-3,34,-19,-22,-26,-114,-139,-121,-84,-82
-36,-38,-3,34,-19,-22,-26,-114,-145,-127,-84,-82
-36,-38,-3,34,-19,-22,-26,-114,-151,-127,-90,-88
-36,-38,-3,34,-19,-22,-26,-114,-151,-133,-90,-88
-36,-38,-3,34,-19,-22,-26,-114,-157,-133,-90,-88
-36,-38,-3,34,-19,-22,-26,-114,-157,-139,-90,-88
-36,-38,-3,34,-19,-22,-26,-114,-157,-133,-90,-82
-36,-38,-3,34,-19,-22,-26,-108,-157,-133,-90,-76
-36,-38,-3,34,-19,-22,-32,-108,-157,-133,-90,-76
-36,-38,-3,34,-19,-22,-26,-108,-163,-127,-90,-76
-36,-44,-9,39,-13,-28,-26,-108,-163,-127,-90,-71
-36,-38,-3,34,-19,-22,-26,-114,-163,-127,-90,-76
-36,-38,-3,34,-19,-22,-26,-114,-169,-127,-90,-76
-36,-44,-9,39,-13,-28,-26,-114,-169,-127,-90,-76
-30,-44,-15,39,-7,-28,-26,-114,-169,-121,-90,-82
-30,-44,-15,39,-7,-28,-20,-114,-163,-121,-84,-76
-36,-50,-15,39,-13,-34,-26,-114,-163,-121,-84,-76
-36,-44,-9,39,-13,-28,-26,-114,-163,-121,-84,-76
-36,-44,-9,39,-13,-28,-26,-114,-163,-115,-84,-76
-36,-44,-9,39,-13,-28,-26,-108,-157,-115,-84,-76
-36,-44,-9,39,-13,-28,-26,-108,-157,-115,-84,-76
-36,-44,-9,39,-13,-28,-26,-108,-157,-115,-84,-76
-30,-50,-21,39,-7,-34,-26,-108,-151,-115,-84,-76
-24,-44,-21,34,-1,-34,-20,-108,-151,-115,-78,-76
-18,-38,-21,28,-1,-28,-14,-102,-151,-115,-78,-76
-24,-38,-15,28,-7,-28,-14,-102,-151,-109,-78,-76
-24,-38,-15,28,-7,-28,-14,-96,-157,-109,-78,-82
-24,-44,-21,34,-1,-34,-14,-96,-151,-103,-72,-76
-30,-44,-15,39,-7,-28,-14,-90,-151,-103,-72,-76
-36,-50,-15,39,-13,-34,-14,-90,-151,-103,-72,-82
-36,-50,-15,39,-13,-34,-14,-96,-151,-97,-72,-82
-42,-56,-15,50,-13,-34,-20,-96,-151,-97,-72,-82
-42,-56,-15,50,-13,-34,-14,-102,-151,-97,-72,-82
-42,-50,-9,44,-19,-28,-8,-96,-151,-97,-72,-88
-42,-44,-3,44,-19,-22,-8,-96,-157,-97,-78,-88
-30,-50,-21,39,-7,-34,-2,-90,-151,-97,-78,-88
-30,-56,-27,44,-1,-40,-2,-84,-151,-91,-78,-88
-30,-56,-27,44,-1,-40,-2,-78,-151,-91,-78,-88
-30,-56,-27,44,-1,-40,-2,-78,-151,-97,-84,-94
-30,-56,-27,44,-1,-40,-2,-84,-151,-97,-84,-88
-36,-56,-21,44,-7,-40,-2,-84,-151,-97,-84,-88
-36,-56,-21,44,-7,-40,-8,-78,-151,-103,-84,-94
-36,-56,-21,44,-7,-40,-2,-78,-151,-103,-78,-94
-42,-62,-21,50,-13,-40,-2,-72,-151,-103,-78,-88
-36,-56,-21,44,-7,-40,-2,-72,-151,-103,-78,-88
-36,-50,-15,39,-13,-34,-2,-66,-151,-103,-78,-82
-30,-50,-21,39,-7,-34,-2,-66,-151,-103,-78,-88
-30,-44,-15,39,-7,-28,4,-60,-151,-97,-78,-88
-30,-44,-15,39,-7,-28,4,-60,-145,-97,-78,-88
-30,-44,-15,39,-7,-28,4,-60,-145,-97,-78,-94
-30,-38,-9,34,-13,-22,4,-54,-145,-91,-84,-100
-30,-33,-3,34,-13,-16,4,-54,-139,-91,-84,-100
-30,-33,-3,34,-13,-16,10,-54,-139,-91,-90,-100
-30,-33,-3,34,-13,-16,10,-54,-133,-91,-90,-100
-30,-38,-9,34,-13,-22,10,-48,-133,-85,-90,-94
-30,-44,-15,39,-7,-28,4,-48,-127,-91,-90,-100
-30,-44,-15,39,-7,-28,4,-48,-127,-85,-84,-94
-36,-50,-15,39,-13,-34,4,-48,-127,-91,-84,-94
-36,-50,-15,39,-13,-34,4,-48,-127,-91,-78,-94
-36,-44,-9,39,-13,-28,10,-42,-121,-85,-72,-94
-36,-44,-9,39,-13,-28,10,-42,-121,-85,-72,-88
-36,-38,-3,34,-19,-22,10,-42,-121,-97,-72,-94
-36,-38,-3,34,-19,-22,10,-36,-121,-97,-72,-94
-36,-33,3,34,-19,-16,4,-36,-121,-103,-72,-94
-30,-33,-3,34,-13,-16,4,-36,-127,-103,-72,-94
-30,-38,-9,34,-13,-22,4,-36,-121,-103,-72,-94
-30,-38,-9,34,-13,-22,4,-36,-127,-103,-72,-94
-30,-38,-9,34,-13,-22,4,-36,-121,-97,-72,-94
-36,-38,-3,34,-19,-22,4,-36,-121,-97,-78,-100
-36,-38,-3,34,-19,-22,4,-36,-127,-97,-84,-100
-36,-38,-3,34,-19,-22,4,-36,-121,-97,-84,-94
-36,-33,3,34,-19,-16,4,-36,-127,-97,-90,-94
-36,-33,3,34,-19,-16,4,-31,-127,-97,-90,-94
-36,-33,3,34,-19,-16,10,-31,-121,-97,-96,-100
-36,-33,3,34,-19,-16,10,-31,-121,-103,-96,-100
-30,-28,3,34,-13,-11,10,-36,-133,-103,-102,-100
-24,-33,-9,28,-7,-22,10,-36,-133,-103,-102,-100
-24,-38,-15,28,-7,-28,10,-36,-133,-103,-102,-100
-30,-44,-15,39,-7,-28,10,-42,-139,-109,-102,-100
-30,-50,-21,39,-7,-34,10,-42,-145,-115,-102,-100
-30,-50,-21,39,-7,-34,4,-42,-145,-115,-102,-100
-30,-44,-15,39,-7,-28,4,-48,-151,-127,-102,-100
-30,-44,-15,39,-7,-28,-2,-48,-157,-127,-102,-100
-36,-38,-3,34,-19,-22,-2,-54,-157,-127,-114,-100
-36,-38,-3,34,-19,-22,4,-54,-163,-133,-114,-100
-36,-33,3,34,-19,-16,-2,-54,-163,-133,-114,-106
-30,-33,-3,34,-13,-16,-2,-60,-175,-139,-120,-106
-30,-33,-3,34,-13,-16,-8,-66,-175,-145,-126,-100
-18,-38,-21,28,-1,-28,-8,-66,-175,-145,-126,-100
-24,-44,-21,34,-1,-34,-8,-72,-181,-151,-126,-100
-24,-38,-15,28,-7,-28,-8,-78,-187,-151,-126,-106
-24,-38,-15,28,-7,-28,-8,-78,-187,-151,-126,-106
-30,-38,-9,34,-13,-22,-8,-84,-193,-151,-126,-106
-30,-38,-9,34,-13,-22,-8,-84,-193,-151,-126,-106
-30,-38,-9,34,-13,-22,-8,-84,-193,-151,-126,-106
-30,-33,-3,34,-13,-16,-14,-90,-193,-145,-126,-106
-30,-33,-3,34,-13,-16,-14,-90,-199,-145,-126,-118
-30,-38,-9,34,-13,-22,-14,-90,-199,-151,-132,-112
-24,-38,-15,28,-7,-28,-20,-90,-199,-151,-132,-112
-24,-38,-15,28,-7,-28,-20,-90,-205,-157,-132,-112
-18,-44,-27,34,5,-34,-20,-90,-205,-157,-132,-106
-18,-44,-27,34,5,-34,-26,-90,-211,-163,-132,-106
-24,-50,-27,34,-1,-40,-26,-96,-223,-169,-132,-106
-24,-50,-27,34,-1,-40,-26,-96,-223,-169,-132,-100
-24,-50,-27,34,-1,-40,-26,-96,-223,-175,-132,-100
-24,-44,-21,34,-1,-34,-32,-96,-229,-175,-132,-106
-30,-44,-15,39,-7,-28,-32,-102,-229,-181,-138,-112
-36,-44,-9,39,-13,-28,-32,-102,-229,-181,-138,-118
-36,-38,-3,34,-19,-22,-32,-108,-235,-181,-138,-118
-36,-44,-9,39,-13,-28,-38,-114,-235,-187,-138,-118
-30,-44,-15,39,-7,-28,-38,-114,-235,-187,-144,-118
-30,-38,-9,34,-13,-22,-38,-114,-235,-181,-150,-118
-30,-38,-9,34,-13,-22,-44,-114,-235,-181,-150,-118
-30,-38,-9,34,-13,-22,-44,-114,-235,-193,-144,-118
-24,-38,-15,28,-7,-28,-44,-114,-247,-193,-150,-118
-24,-38,-15,28,-7,-28,-44,-114,-247,-193,-150,-118
-24,-44,-21,34,-1,-34,-44,-120,-247,-187,-150,-118
-24,-50,-27,34,-1,-40,-44,-120,-253,-187,-150,-118
-30,-50,-21,39,-7,-34,-50,-126,-253,-187,-150,-118
-30,-50,-21,39,-7,-34,-56,-126,-253,-187,-156,-124
-30,-44,-15,39,-7,-28,-50,-126,-253,-187,-156,-118
-30,-38,-9,34,-13,-22,-56,-126,-247,-187,-156,-112
-36,-38,-3,34,-19,-22,-56,-126,-253,-187,-156,-112
-36,-44,-9,39,-13,-28,-56,-126,-247,-187,-156,-112
-36,-50,-15,39,-13,-34,-56,-132,-247,-193,-162,-112
-36,-44,-9,39,-13,-28,-56,-132,-247,-193,-162,-118
-36,-44,-9,39,-13,-28,-56,-132,-253,-193,-168,-118
-36,-50,-15,39,-13,-34,-50,-132,-259,-193,-168,-118
-36,-44,-9,39,-13,-28,-50,-132,-259,-193,-168,-118
-30,-38,-9,34,-13,-22,-50,-132,-265,-199,-168,-118
-30,-38,-9,34,-13,-22,-50,-132,-265,-199,-168,-124
-30,-38,-9,34,-13,-22,-44,-126,-265,-199,-162,-124
-24,-38,-15,28,-7,-28,-38,-120,-259,-199,-156,-118
-30,-33,-3,34,-13,-16,-32,-120,-253,-193,-162,-124
-24,-28,-3,28,-7,-16,-32,-120,-247,-187,-156,-118
-24,-10,14,16,-19,0,-32,-120,-241,-181,-162,-112
-24,2,25,10,-25,12,-32,-126,-241,-181,-156,-112
-24,8,31,10,-25,18,-32,-126,-241,-181,-156,-112
-24,14,37,4,-30,24,-32,-126,-241,-175,-150,-112
-24,8,31,10,-25,18,-20,-120,-241,-169,-144,-106
-24,8,31,10,-25,18,-14,-114,-235,-169,-138,-100
-24,20,43,4,-30,30,-2,-108,-235,-169,-132,-100
-30,26,55,4,-41,42,4,-108,-229,-169,-132,-106
-30,32,61,4,-41,48,10,-108,-223,-175,-138,-106
-30,26,55,4,-41,42,15,-108,-217,-169,-144,-106
-30,20,49,10,-35,36,15,-102,-211,-163,-144,-100
-30,20,49,10,-35,36,20,-102,-205,-163,-144,-100
-30,20,49,10,-35,36,26,-96,-199,-163,-144,-94
-24,32,55,-2,-35,42,20,-96,-199,-163,-144,-94
-18,44,61,-8,-35,54,15,-102,-199,-163,-138,-94
-12,50,61,-20,-35,54,-8,-108,-199,-163,-138,-94
-6,62,67,-26,-35,66,-32,-114,-199,-157,-132,-94
0,56,55,-26,-25,54,-44,-126,-205,-157,-132,-94
0,56,55,-26,-25,54,-56,-132,-211,-157,-126,-88
12,56,43,-32,-13,48,-62,-138,-211,-157,-126,-88
12,56,43,-32,-13,48,-74,-144,-223,-163,-138,-88
12,56,43,-32,-13,48,-86,-156,-235,-169,-144,-94
12,50,37,-32,-13,42,-86,-162,-241,-169,-144,-88
12,44,31,-26,-7,36,-80,-156,-241,-163,-138,-82
12,44,31,-26,-7,36,-68,-150,-235,-163,-138,-76
6,38,31,-20,-13,36,-62,-150,-235,-169,-132,-82
6,38,31,-20,-13,36,-62,-150,-241,-169,-138,-88
6,38,31,-20,-13,36,-56,-150,-241,-175,-138,-88
6,26,19,-14,-7,24,-62,-150,-247,-181,-138,-94
0,20,19,-8,-7,18,-62,-156,-253,-181,-138,-100
0,20,19,-8,-7,18,-68,-162,-259,-187,-138,-100
0,14,14,-8,-7,12,-68,-168,-259,-187,-144,-100
0,2,3,-2,-1,0,-68,-174,-265,-187,-144,-106
-6,-10,-3,10,-1,-6,-74,-180,-271,-193,-150,-106
-12,-22,-9,16,-1,-16,-74,-192,-283,-205,-162,-118
-12,-28,-15,22,5,-22,-74,-192,-295,-217,-168,-118
-18,-28,-9,28,-1,-16,-74,-192,-301,-229,-174,-124
-24,-33,-9,28,-7,-22,-74,-192,-307,-235,-180,-130
-24,-38,-15,28,-7,-28,-74,-192,-313,-241,-186,-136
-30,-33,-3,34,-13,-16,-74,-192,-313,-241,-186,-136
-36,-38,-3,34,-19,-22,-74,-192,-313,-241,-186,-142
-36,-50,-15,39,-13,-34,-68,-192,-325,-241,-192,-142
-42,-56,-15,50,-13,-34,-68,-198,-325,-241,-192,-148
-42,-68,-27,56,-7,-46,-68,-198,-325,-241,-198,-154
-42,-68,-27,56,-7,-46,-74,-204,-331,-241,-198,-154
-42,-74,-33,56,-7,-52,-74,-204,-331,-247,-198,-154
-42,-74,-33,56,-7,-52,-74,-204,-331,-247,-198,-160
-36,-80,-45,56,5,-64,-74,-204,-331,-253,-204,-160
-36,-80,-45,56,5,-64,-74,-204,-331,-259,-204,-154
-42,-80,-39,62,-1,-58,-80,-204,-331,-265,-204,-160
-42,-74,-33,56,-7,-52,-86,-204,-331,-271,-204,-160
-42,-62,-21,50,-13,-40,-86,-204,-331,-271,-204,-154
-42,-68,-27,56,-7,-46,-86,-210,-337,-265,-204,-160
-42,-62,-21,50,-13,-40,-86,-204,-337,-265,-198,-154
-36,-62,-27,44,-7,-46,-80,-198,-331,-259,-198,-154
-36,-62,-27,44,-7,-46,-80,-192,-331,-253,-198,-148
-30,-56,-27,44,-1,-40,-80,-192,-325,-247,-192,-148
-24,-50,-27,34,-1,-40,-80,-180,-319,-247,-186,-142
-18,-38,-21,28,-1,-28,-80,-180,-307,-241,-180,-136
-24,-33,-9,28,-7,-22,-74,-174,-295,-235,-174,-130
-30,-28,3,34,-13,-11,-68,-168,-289,-229,-162,-124
-30,-16,14,28,-19,0,-62,-162,-277,-217,-156,-124
-30,-10,19,22,-25,6,-56,-150,-271,-205,-144,-118
-24,-4,19,16,-19,6,-56,-144,-259,-199,-144,-118
-24,8,31,10,-25,18,-50,-138,-253,-193,-132,-112
-24,8,31,10,-25,18,-38,-126,-241,-181,-120,-100
-18,8,25,10,-19,18,-26,-108,-223,-163,-108,-88
-12,14,25,-2,-19,18,-14,-96,-199,-151,-90,-76
-12,26,37,-8,-25,30,-8,-84,-175,-139,-72,-71
-6,38,43,-14,-25,42,4,-66,-151,-115,-62,-60
0,50,49,-26,-25,48,10,-42,-127,-97,-44,-54
0,56,55,-26,-25,54,15,-31,-103,-79,-32,-42
6,62,55,-32,-25,60,20,-14,-85,-61,-14,-30
18,80,61,-44,-19,72,32,10,-67,-39,10,-12
30,92,61,-56,-13,78,50,34,-39,-9,34,12
36,116,79,-74,-19,96,74,76,3,27,58,30
42,128,85,-80,-19,108,110,136,57,69,88,54
42,152,109,-92,-30,132,176,226,129,105,106,66
42,164,121,-98,-35,144,272,358,207,141,124,78
42,176,133,-104,-41,156,392,526,297,177,136,72
42,194,151,-116,-53,174,542,730,399,213,160,78
54,206,151,-128,-47,180,686,952,519,267,184,96
60,212,151,-134,-41,180,842,1210,657,339,232,120
78,224,145,-146,-30,186,1004,1468,819,429,292,150
102,260,157,-176,-25,210,1142,1672,1005,561,394,216
150,308,157,-224,-1,234,1202,1762,1173,723,532,324
198,368,169,-278,17,270,1190,1738,1311,903,706,474
264,446,181,-356,41,312,1082,1558,1431,1125,928,654
330,572,241,-446,47,408,902,1288,1587,1407,1204,876
396,758,361,-578,17,558,686,970,1779,1749,1528,1134
450,968,517,-704,-30,744,464,616,1977,2115,1864,1398
486,1148,661,-812,-83,906,230,226,2121,2450,2182,1638
510,1232,721,-866,-101,978,-8,-144,2199,2750,2457,1836
516,1274,757,-896,-119,1014,-284,-516,2199,2966,2661,1962
462,1268,805,-860,-167,1038,-506,-816,2109,3056,2733,1974
396,1196,799,-794,-197,996,-650,-1026,1929,2990,2673,1884
318,1046,727,-680,-203,888,-734,-1164,1605,2732,2457,1704
228,836,607,-530,-185,720,-764,-1212,1155,2247,2068,1422
156,602,445,-380,-143,522,-776,-1194,663,1635,1564,1080
84,368,283,-224,-95,324,-788,-1152,189,1017,1048,738
30,176,145,-98,-53,162,-788,-1080,-151,513,598,420
-12,14,25,-2,-19,18,-776,-1002,-379,141,250,168
-36,-86,-51,56,5,-70,-752,-936,-511,-97,10,-6
-47,-158,-111,98,29,-136,-716,-876,-583,-253,-126,-118
-52,-212,-159,128,53,-190,-674,-816,-619,-349,-222,-196
-47,-248,-201,146,77,-226,-632,-750,-631,-397,-270,-244
-42,-260,-219,152,89,-238,-572,-666,-601,-415,-294,-262
-36,-266,-231,146,95,-250,-506,-576,-565,-409,-300,-256
-30,-254,-225,140,95,-238,-428,-492,-505,-391,-294,-244
-24,-242,-219,128,95,-232,-344,-396,-445,-361,-282,-226
-24,-224,-201,122,89,-214,-260,-318,-391,-337,-270,-214
-24,-206,-183,110,77,-196,-200,-258,-349,-319,-258,-202
-24,-188,-165,104,71,-178,-152,-216,-319,-301,-246,-196
-18,-170,-153,92,65,-160,-122,-186,-301,-289,-240,-196
-18,-152,-135,86,59,-142,-98,-156,-283,-283,-234,-196
-18,-140,-123,80,53,-130,-80,-132,-265,-277,-228,-190
-24,-128,-105,74,41,-118,-62,-108,-259,-271,-228,-190
-24,-110,-87,62,29,-100,-56,-96,-253,-265,-228,-184
-30,-110,-81,68,23,-94,-44,-78,-247,-259,-228,-178
-30,-110,-81,68,23,-94,-32,-66,-235,-259,-222,-172
-36,-110,-75,68,17,-94,-20,-60,-229,-259,-216,-166
-36,-116,-81,74,23,-100,-20,-60,-229,-265,-216,-172
-30,-104,-75,68,23,-88,-14,-60,-223,-259,-216,-172
-30,-98,-69,62,17,-82,-14,-60,-217,-259,-210,-172
-30,-98,-69,62,17,-82,-14,-60,-217,-265,-210,-172
-36,-98,-63,62,11,-82,-14,-66,-217,-265,-210,-172
-36,-92,-57,62,11,-76,-14,-60,-217,-265,-210,-172
-36,-92,-57,62,11,-76,-8,-48,-211,-265,-204,-166
-36,-92,-57,62,11,-76,-2,-42,-211,-259,-204,-166
-36,-92,-57,62,11,-76,4,-36,-205,-259,-198,-166
-30,-80,-51,56,11,-64,10,-31,-205,-253,-198,-160
-30,-80,-51,56,11,-64,10,-31,-211,-253,-198,-154
-24,-86,-63,50,17,-76,10,-31,-211,-247,-204,-154
-30,-86,-57,56,11,-70,10,-26,-205,-247,-204,-154
-24,-92,-69,56,23,-82,10,-26,-205,-247,-198,-154
-18,-86,-69,50,23,-76,15,-26,-199,-253,-198,-154
-18,-86,-69,50,23,-76,15,-26,-199,-253,-198,-154
-12,-86,-75,44,29,-82,15,-26,-199,-253,-198,-154
-12,-86,-75,44,29,-82,15,-20,-193,-247,-192,-148
-18,-86,-69,50,23,-76,20,-14,-193,-247,-192,-142
-18,-86,-69,50,23,-76,20,-14,-193,-247,-192,-142
-24,-86,-63,50,17,-76,20,-8,-187,-241,-192,-136
-24,-86,-63,50,17,-76,20,-8,-187,-241,-192,-136
-24,-86,-63,50,17,-76,26,-8,-181,-241,-192,-136
-18,-86,-69,50,23,-76,26,-8,-175,-241,-192,-136
-18,-86,-69,50,23,-76,26,-2,-169,-235,-192,-136
-12,-86,-75,44,29,-82,26,-2,-169,-235,-192,-142
-12,-92,-81,50,35,-88,26,4,-169,-235,-192,-142
-12,-86,-75,44,29,-82,26,4,-169,-235,-186,-142
-6,-86,-81,44,35,-82,32,10,-163,-229,-180,-136
