,,,,,,,,,,,
2019-09-04 23:17:38,,,,,,,,,,,
,,,,,,,,,,,
I,II,III,aVR,aVL,aVF,V1,V2,V3,V4,V5,V6
-275,-422,-107,353,-31,-255,-928,-473,758,-289,607,1945
-191,-170,-53,179,-37,-99,-148,-209,-81,-253,-52,43
-155,-110,-11,137,-43,-57,-10,-161,-225,-235,-178,-274
-137,-92,0,119,-43,-39,13,-143,-249,-223,-196,-322
-125,-80,6,107,-43,-27,25,-131,-261,-211,-208,-346
-119,-74,12,101,-43,-21,31,-125,-267,-205,-214,-358
-119,-68,18,95,-43,-15,37,-119,-267,-205,-220,-364
-119,-62,18,95,-43,-15,43,-113,-273,-199,-226,-364
-119,-62,24,95,-49,-15,43,-113,-273,-199,-226,-370
-119,-56,30,95,-49,-15,43,-113,-273,-199,-226,-376
-119,-56,36,89,-49,-9,43,-113,-273,-199,-226,-376
-119,-56,36,89,-49,-9,49,-113,-273,-199,-226,-376
-119,-50,36,89,-49,-9,49,-113,-273,-199,-232,-376
-119,-44,42,89,-55,-3,49,-113,-273,-199,-232,-376
-119,-38,48,89,-55,2,49,-113,-273,-199,-232,-376
-119,-38,48,89,-55,2,49,-113,-273,-199,-232,-376
-119,-38,48,89,-55,2,49,-113,-273,-193,-232,-376
-119,-38,48,89,-55,2,49,-113,-273,-187,-232,-376
-119,-38,54,83,-55,2,49,-113,-273,-187,-232,-376
-119,-38,60,83,-61,8,49,-113,-273,-187,-232,-376
-119,-32,60,83,-67,14,49,-113,-273,-181,-232,-376
-119,-32,60,83,-67,14,49,-113,-273,-181,-232,-376
-119,-32,60,83,-67,20,49,-113,-273,-181,-232,-376
-119,-32,60,83,-67,20,49,-113,-273,-175,-232,-376
-119,-32,60,83,-67,20,49,-113,-273,-175,-232,-376
-119,-32,60,83,-67,20,49,-113,-273,-169,-232,-376
-119,-26,66,83,-73,20,49,-113,-267,-169,-232,-376
-119,-26,72,83,-79,26,49,-113,-261,-169,-232,-376
-119,-26,78,83,-85,26,55,-113,-261,-169,-232,-376
-119,-26,84,83,-85,26,55,-107,-255,-169,-232,-376
-119,-26,84,83,-85,26,61,-107,-249,-163,-232,-376
-119,-26,84,83,-85,26,61,-101,-243,-163,-232,-376
-119,-26,84,83,-85,32,67,-101,-237,-163,-232,-376
-119,-26,84,83,-91,32,67,-101,-231,-163,-232,-376
-119,-26,90,83,-91,32,67,-101,-231,-163,-232,-376
-119,-26,90,83,-97,32,67,-95,-231,-157,-232,-376
-125,-26,90,83,-103,32,73,-89,-231,-157,-232,-376
-125,-20,96,83,-103,38,73,-89,-225,-157,-232,-376
-125,-14,102,83,-109,38,79,-83,-219,-157,-232,-376
-125,-14,108,83,-109,44,79,-83,-219,-157,-232,-376
-125,-14,108,83,-109,44,79,-83,-213,-157,-232,-376
-125,-14,108,83,-109,50,79,-83,-207,-157,-232,-376
-125,-8,114,83,-115,56,79,-83,-195,-151,-232,-376
-125,-2,120,83,-121,62,79,-83,-189,-151,-232,-376
-131,-2,126,83,-127,68,85,-77,-183,-151,-232,-376
-131,-2,132,83,-127,68,91,-71,-177,-145,-232,-376
-137,-2,138,83,-127,74,97,-65,-171,-139,-232,-376
-143,3,138,83,-127,74,97,-59,-165,-133,-232,-376
-143,3,138,83,-133,74,103,-53,-159,-133,-232,-376
-143,3,144,83,-139,74,103,-47,-153,-133,-232,-376
-143,9,150,83,-139,80,109,-47,-141,-127,-232,-376
-143,9,156,83,-139,80,115,-41,-129,-121,-232,-376
-149,15,156,83,-139,86,121,-35,-117,-115,-226,-376
-149,15,162,83,-145,92,133,-23,-105,-109,-226,-376
-149,21,168,83,-151,98,139,-11,-93,-103,-226,-376
-149,27,168,77,-157,104,145,0,-81,-97,-226,-370
-149,33,174,77,-163,104,151,12,-69,-91,-220,-364
-149,39,180,77,-163,110,157,24,-57,-79,-214,-358
-149,45,192,71,-163,116,157,36,-45,-73,-208,-352
-149,51,204,71,-169,122,163,48,-27,-61,-196,-346
-155,57,210,65,-175,128,169,60,-9,-49,-190,-346
-161,57,216,65,-181,134,181,72,8,-37,-184,-346
-161,63,222,65,-181,140,187,90,32,-25,-178,-340
-167,63,228,65,-187,146,193,108,56,-13,-178,-340
-167,69,228,65,-187,152,205,126,74,-1,-172,-340
-167,75,234,59,-193,158,217,144,92,16,-166,-340
-167,81,240,59,-193,158,223,156,110,28,-160,-334
-167,87,246,59,-199,164,229,174,134,46,-154,-328
-167,93,252,53,-205,170,235,192,152,64,-142,-316
-167,99,258,47,-205,176,241,216,170,88,-130,-310
-167,105,264,41,-205,182,247,240,194,106,-118,-304
-167,111,270,35,-205,188,253,258,212,124,-106,-298
-167,117,270,29,-205,194,259,270,242,142,-94,-286
-167,123,270,23,-205,200,265,294,266,154,-88,-280
-167,129,270,17,-205,206,271,318,284,172,-76,-274
-161,135,270,11,-205,212,277,330,296,196,-64,-268
-161,141,270,11,-205,212,283,342,308,208,-52,-256
-155,147,276,5,-205,212,283,354,332,226,-40,-244
-149,153,276,-1,-205,212,283,372,344,238,-28,-232
-143,159,276,-1,-205,212,283,396,368,262,-16,-220
-137,165,276,-6,-199,218,283,408,380,280,1,-208
-125,171,276,-18,-199,218,289,420,392,292,13,-196
-119,177,276,-24,-199,218,295,432,410,310,25,-190
-119,177,276,-30,-199,218,301,444,428,322,37,-184
-119,183,276,-30,-199,224,301,468,440,340,49,-178
-113,183,276,-36,-199,224,301,480,452,358,61,-172
-107,189,276,-42,-193,224,301,492,464,370,73,-160
-95,189,270,-42,-187,224,301,504,470,382,85,-148
-89,189,270,-48,-181,224,301,510,482,394,97,-136
-77,189,264,-54,-175,224,301,516,494,406,109,-124
-65,189,258,-54,-163,224,301,522,500,424,121,-112
-59,189,252,-60,-151,224,295,528,506,436,133,-100
-47,195,240,-66,-139,224,289,534,506,448,145,-88
-35,195,228,-72,-127,224,283,534,506,454,151,-76
-23,195,216,-78,-115,218,271,534,506,460,157,-70
-11,195,204,-84,-103,218,259,534,500,460,163,-64
-6,195,198,-90,-97,218,247,528,488,460,169,-58
0,195,192,-96,-91,212,229,510,464,460,175,-52
6,201,186,-102,-85,212,217,492,440,454,175,-46
12,201,180,-102,-79,206,205,468,404,442,175,-46
18,201,168,-102,-73,194,193,438,380,430,175,-40
18,195,156,-102,-67,182,181,414,350,418,175,-40
18,189,150,-102,-61,176,163,384,326,406,175,-40
18,183,144,-102,-55,170,145,360,296,376,169,-40
18,177,132,-102,-49,164,133,330,266,352,163,-40
18,171,126,-96,-43,152,121,306,236,328,151,-40
18,159,114,-96,-43,146,109,276,206,304,139,-40
18,153,102,-96,-43,140,97,252,176,280,133,-40
18,147,96,-90,-43,134,85,222,152,262,121,-46
18,135,90,-84,-43,122,73,198,122,238,109,-52
18,129,84,-78,-43,110,67,174,98,226,97,-58
18,117,78,-72,-37,98,61,156,74,202,85,-64
18,111,72,-66,-37,92,55,132,56,184,73,-70
18,105,66,-60,-37,86,49,120,32,160,61,-76
18,99,60,-54,-31,80,37,96,14,142,49,-82
18,93,60,-48,-25,80,31,78,-3,124,37,-88
18,87,54,-48,-19,74,25,60,-21,112,25,-94
18,75,42,-42,-19,62,19,48,-33,100,19,-100
18,63,36,-36,-19,56,19,36,-45,88,13,-106
18,51,30,-30,-19,50,13,24,-57,76,7,-112
18,45,24,-24,-19,44,7,12,-69,64,1,-118
18,39,24,-18,-19,38,1,0,-81,52,-10,-124
18,33,18,-12,-19,32,1,-6,-87,46,-16,-130
18,27,18,-6,-19,26,1,-11,-93,40,-22,-136
18,21,18,-6,-19,20,1,-17,-99,28,-28,-142
12,15,12,-6,-19,14,1,-23,-105,22,-28,-148
12,15,6,-6,-13,14,1,-29,-111,16,-34,-148
12,15,6,-6,-13,14,1,-35,-117,10,-34,-148
12,9,6,-1,-13,14,-5,-41,-123,4,-34,-148
12,3,6,5,-13,8,-5,-47,-129,-1,-34,-148
12,-2,6,5,-13,2,-10,-47,-135,-1,-34,-154
12,-2,6,5,-13,2,-10,-53,-135,-7,-40,-154
12,-2,0,5,-13,2,-10,-53,-135,-7,-40,-154
12,-2,0,5,-13,2,-16,-53,-135,-7,-46,-154
12,-2,0,5,-13,2,-16,-53,-141,-13,-46,-154
12,-2,0,5,-7,2,-16,-53,-141,-13,-46,-154
12,-2,-6,5,-7,2,-16,-53,-141,-13,-46,-154
12,-2,-6,5,-7,2,-16,-53,-147,-13,-46,-154
12,-2,-6,5,-7,2,-16,-53,-153,-13,-46,-160
12,-2,-11,5,-7,-3,-16,-59,-153,-19,-52,-160
12,-2,-11,5,-7,-3,-16,-59,-153,-25,-52,-160
12,-8,-11,5,-7,-3,-16,-59,-153,-25,-52,-160
12,-8,-11,5,-7,-3,-16,-59,-153,-25,-52,-160
12,-8,-11,5,-7,-9,-16,-59,-153,-25,-52,-160
12,-8,-11,5,-7,-9,-16,-59,-153,-31,-52,-160
12,-8,-11,5,-7,-9,-16,-59,-153,-31,-58,-160
12,-8,-11,5,-7,-9,-16,-59,-153,-31,-58,-160
12,-8,-11,5,-7,-9,-16,-59,-153,-31,-58,-160
12,-8,-11,5,-7,-9,-16,-59,-153,-31,-58,-160
6,-8,-11,5,-7,-9,-16,-59,-153,-31,-58,-160
6,-8,-11,5,-7,-9,-16,-59,-153,-31,-58,-160
6,-8,-11,11,-7,-9,-16,-59,-153,-31,-58,-160
6,-8,-11,11,-7,-9,-16,-59,-153,-31,-58,-160
6,-8,-11,11,-7,-9,-16,-59,-153,-31,-58,-160
6,-8,-11,11,-7,-9,-16,-59,-153,-31,-58,-160
6,-8,-11,11,-7,-9,-16,-59,-153,-31,-58,-160
6,-8,-11,11,-7,-9,-16,-59,-153,-31,-58,-160
6,-8,-11,11,-7,-9,-16,-59,-153,-31,-58,-160
6,-8,-11,11,-7,-9,-16,-59,-153,-31,-58,-160
6,-8,-11,11,-7,-9,-16,-59,-153,-31,-58,-160
6,-8,-11,11,-7,-9,-16,-59,-153,-31,-58,-160
0,-8,-11,17,-7,-9,-16,-59,-153,-31,-58,-160
-6,-8,-11,17,-7,-9,-16,-59,-153,-31,-58,-160
-6,-8,-11,17,-7,-9,-16,-59,-153,-31,-58,-160
-6,-8,-11,17,-7,-9,-16,-59,-153,-31,-58,-160
-6,-8,-11,17,-7,-9,-16,-59,-153,-31,-58,-160
-6,-8,-11,17,-7,-9,-16,-59,-153,-31,-58,-160
-6,-8,-11,17,-7,-9,-16,-59,-153,-31,-58,-160
-6,-8,-11,17,-7,-9,-16,-59,-153,-31,-58,-160
-6,-8,-6,17,-7,-9,-16,-59,-153,-31,-58,-160
-6,-8,-6,17,-7,-9,-16,-59,-153,-31,-58,-160
-6,-8,-6,17,-7,-9,-16,-59,-153,-31,-58,-160
-11,-8,0,17,-7,-9,-16,-65,-153,-31,-58,-160
-11,-8,6,17,-7,-9,-10,-65,-153,-31,-58,-160
-11,-8,6,17,-7,-9,-5,-65,-153,-31,-58,-160
-11,-8,6,17,-7,-9,1,-65,-153,-31,-58,-160
-11,-8,6,17,-13,-9,7,-65,-147,-31,-58,-160
-17,-8,6,17,-19,-3,13,-65,-147,-31,-58,-160
-17,-8,6,17,-19,-3,19,-65,-147,-31,-58,-160
-17,-8,6,17,-19,-3,19,-65,-147,-31,-58,-160
-17,-8,6,17,-19,-3,19,-65,-147,-31,-58,-160
-17,-8,12,17,-19,2,19,-65,-147,-37,-58,-160
-17,-8,18,17,-19,2,19,-65,-147,-37,-58,-160
-17,-8,18,17,-19,2,25,-65,-147,-37,-58,-160
-17,-8,18,17,-19,2,25,-65,-147,-37,-58,-160
-17,-8,18,17,-19,2,25,-65,-147,-37,-58,-160
-17,-8,18,17,-19,2,25,-65,-147,-37,-58,-160
-23,-8,18,17,-19,2,31,-65,-147,-37,-58,-160
-23,-8,24,17,-19,2,31,-65,-147,-37,-58,-160
-23,-8,24,17,-19,2,31,-65,-147,-37,-58,-160
-23,-8,24,17,-19,2,31,-71,-147,-37,-58,-154
-23,-8,24,17,-19,2,31,-71,-147,-37,-58,-154
-23,-8,24,17,-25,2,31,-71,-147,-37,-58,-154
-23,-8,24,17,-25,2,31,-71,-147,-37,-58,-154
-23,-8,24,17,-25,2,31,-71,-147,-37,-58,-154
-23,-8,24,17,-25,2,37,-71,-147,-37,-58,-154
-23,-8,24,17,-25,2,37,-71,-147,-37,-58,-154
-23,-8,24,17,-25,2,37,-77,-147,-37,-58,-154
-23,-8,24,17,-25,2,37,-77,-147,-37,-58,-154
-23,-8,24,17,-25,2,37,-77,-147,-37,-58,-154
-23,-8,24,17,-25,2,37,-77,-147,-37,-58,-154
-23,-8,24,17,-25,2,37,-83,-147,-37,-58,-154
-23,-8,24,17,-25,2,37,-83,-147,-37,-58,-154
-23,-8,24,17,-25,2,37,-83,-147,-37,-58,-154
-23,-8,24,17,-25,2,37,-83,-147,-37,-58,-154
-23,-8,24,17,-25,2,37,-83,-147,-37,-58,-154
-23,-8,24,17,-25,2,37,-83,-147,-37,-58,-154
-23,-8,24,17,-25,2,37,-83,-147,-37,-58,-154
-23,-8,24,17,-25,2,37,-89,-147,-37,-58,-154
-23,-8,24,17,-25,2,37,-89,-147,-37,-58,-154
-23,-8,24,17,-25,2,37,-89,-147,-37,-58,-154
-29,-8,24,17,-31,2,43,-89,-147,-37,-58,-148
-29,-8,24,17,-31,2,43,-89,-147,-37,-58,-142
-29,-8,24,17,-31,2,43,-95,-147,-37,-58,-142
-29,-8,24,17,-31,2,43,-95,-147,-37,-58,-142
-29,-8,24,17,-31,2,43,-95,-147,-37,-58,-142
-29,-8,24,17,-31,2,43,-95,-147,-37,-58,-142
-29,-8,24,17,-31,2,43,-95,-147,-43,-58,-142
-35,-8,24,17,-31,2,43,-95,-147,-43,-58,-142
-35,-8,24,17,-31,2,43,-95,-147,-43,-58,-142
-35,-8,24,17,-31,2,43,-101,-147,-49,-58,-142
-35,-8,24,17,-31,2,43,-101,-147,-49,-58,-142
-35,-8,24,17,-31,2,43,-101,-147,-49,-58,-142
-35,-8,24,17,-31,2,43,-101,-147,-49,-58,-142
-35,-8,24,17,-31,2,43,-107,-147,-49,-58,-142
-35,-8,24,17,-31,2,43,-107,-147,-49,-58,-142
-35,-8,24,17,-31,2,43,-107,-147,-55,-58,-142
-35,-8,24,17,-31,2,43,-107,-147,-55,-58,-142
-35,-8,24,17,-31,2,43,-107,-147,-55,-58,-142
-35,-8,24,17,-31,2,43,-107,-147,-55,-58,-142
-35,-8,24,17,-31,2,43,-107,-147,-55,-58,-142
-35,-8,24,17,-31,2,43,-107,-147,-55,-58,-142
-35,-8,24,17,-31,2,43,-107,-147,-55,-58,-142
-35,-8,24,17,-31,2,43,-107,-147,-55,-58,-142
-35,-8,24,17,-31,2,43,-113,-147,-55,-58,-142
-35,-8,24,17,-31,2,43,-113,-147,-55,-58,-142
-35,-8,24,17,-31,2,43,-113,-141,-55,-58,-142
-35,-8,24,17,-31,2,43,-113,-135,-55,-58,-142
-35,-8,24,17,-31,2,43,-113,-135,-55,-58,-142
-35,-8,24,17,-31,2,43,-113,-135,-55,-58,-142
-35,-8,24,17,-31,2,43,-113,-135,-55,-58,-142
-35,-8,24,17,-31,2,49,-113,-129,-55,-58,-142
-35,-8,24,17,-31,2,49,-113,-129,-55,-58,-142
-41,-8,24,17,-31,2,49,-113,-129,-55,-58,-142
-41,-14,24,17,-31,2,49,-113,-129,-55,-58,-142
-41,-14,24,17,-31,2,49,-113,-129,-55,-58,-142
-41,-14,24,23,-31,2,49,-113,-129,-55,-58,-142
-41,-14,24,23,-31,2,49,-113,-129,-61,-58,-142
-41,-14,24,23,-31,2,49,-113,-129,-61,-58,-142
-41,-14,24,23,-31,2,49,-113,-129,-61,-58,-142
-41,-14,24,23,-31,2,49,-113,-129,-61,-58,-142
-41,-14,24,23,-31,2,49,-113,-129,-61,-58,-142
-41,-14,24,23,-31,2,49,-113,-129,-61,-58,-142
-41,-14,24,23,-31,2,49,-113,-123,-61,-58,-142
-41,-14,24,23,-31,2,49,-113,-123,-61,-58,-142
-41,-14,24,23,-31,2,49,-113,-123,-61,-58,-142
-41,-14,24,23,-31,2,49,-113,-123,-61,-58,-136
-41,-14,24,23,-31,2,49,-113,-123,-61,-58,-136
-41,-14,24,23,-31,2,49,-113,-123,-61,-58,-136
-41,-14,24,23,-31,2,49,-113,-123,-61,-58,-136
-41,-14,24,23,-31,2,49,-113,-123,-61,-58,-136
-41,-14,24,29,-31,2,49,-113,-123,-61,-58,-136
-41,-20,24,29,-31,2,49,-113,-123,-61,-58,-136
-41,-20,24,29,-31,2,49,-113,-123,-61,-58,-136
-41,-20,24,29,-31,2,49,-113,-123,-61,-58,-136
-41,-20,24,29,-31,2,49,-113,-123,-61,-58,-136
-41,-20,24,29,-31,2,49,-113,-123,-61,-58,-136
-41,-20,24,29,-31,2,49,-113,-123,-61,-58,-136
-41,-20,24,29,-31,2,49,-113,-123,-61,-58,-136
-41,-20,24,29,-31,2,49,-113,-123,-61,-58,-136
-41,-20,24,29,-31,2,49,-113,-123,-61,-58,-136
-41,-20,24,29,-31,2,49,-113,-123,-61,-58,-136
-41,-20,24,29,-31,2,49,-113,-123,-61,-58,-136
-41,-20,24,29,-31,2,49,-119,-123,-61,-58,-136
-41,-20,24,29,-31,2,49,-119,-123,-61,-58,-136
-41,-20,24,29,-31,2,49,-119,-123,-61,-58,-136
-41,-20,24,29,-31,2,49,-119,-123,-61,-58,-136
-41,-20,24,29,-31,2,49,-119,-123,-61,-58,-136
-41,-20,24,29,-31,2,49,-119,-123,-61,-58,-136
-41,-20,24,35,-31,2,49,-119,-123,-61,-58,-136
-41,-20,24,35,-31,2,49,-119,-123,-61,-58,-136
-41,-20,24,35,-31,2,49,-119,-123,-61,-58,-136
-41,-20,24,35,-31,2,49,-119,-117,-61,-58,-136
-41,-20,24,35,-31,2,49,-119,-111,-61,-58,-136
-41,-20,24,35,-31,2,49,-119,-111,-61,-58,-136
-41,-20,24,35,-31,2,49,-119,-111,-61,-58,-136
-41,-20,30,35,-31,8,49,-119,-111,-61,-58,-130
-41,-14,36,35,-31,14,49,-113,-105,-61,-52,-124
-41,-8,42,29,-31,26,49,-107,-105,-61,-46,-118
-41,3,42,23,-31,32,49,-101,-99,-55,-40,-112
-41,15,48,17,-31,38,55,-101,-93,-49,-34,-106
-41,21,54,11,-31,44,61,-101,-87,-43,-28,-106
-41,27,60,11,-31,50,61,-101,-81,-43,-28,-106
-41,27,66,5,-37,56,67,-95,-75,-43,-28,-100
-41,33,72,5,-43,62,73,-89,-69,-43,-22,-100
-41,39,78,-1,-49,68,79,-83,-63,-37,-16,-100
-41,51,84,-1,-55,80,79,-77,-57,-31,-16,-100
-41,57,90,-6,-61,86,79,-77,-51,-31,-16,-100
-41,69,102,-12,-61,92,79,-77,-51,-25,-10,-94
-41,81,108,-18,-61,98,79,-77,-51,-25,-10,-88
-41,93,120,-24,-67,110,73,-77,-51,-25,-10,-88
-41,105,132,-30,-73,122,67,-77,-51,-25,-10,-82
-41,111,138,-30,-73,128,55,-77,-51,-25,-10,-82
-41,111,138,-30,-73,128,49,-77,-51,-25,-4,-76
-35,111,138,-30,-73,128,43,-83,-51,-25,1,-70
-29,111,138,-36,-73,128,37,-83,-51,-25,7,-64
-29,111,138,-42,-73,128,31,-83,-51,-19,7,-58
-29,111,138,-42,-73,128,25,-83,-51,-19,13,-58
-23,111,138,-42,-73,128,25,-83,-51,-19,13,-58
-23,111,138,-42,-73,128,25,-83,-51,-13,13,-58
-23,111,138,-42,-73,128,25,-83,-51,-13,13,-58
-17,111,138,-42,-73,128,25,-83,-51,-13,13,-58
-17,111,138,-42,-67,128,25,-89,-51,-13,13,-58
-17,111,132,-42,-67,128,25,-95,-51,-13,13,-58
-17,105,120,-42,-67,122,25,-101,-51,-19,13,-58
-17,99,108,-42,-61,116,25,-107,-57,-25,13,-58
-17,93,102,-42,-61,110,25,-107,-57,-25,13,-58
-17,81,96,-36,-61,98,25,-113,-63,-31,13,-58
-17,69,84,-30,-55,86,25,-119,-63,-31,7,-64
-17,45,72,-18,-55,62,25,-119,-69,-37,1,-70
-17,21,60,-6,-49,50,25,-119,-75,-43,-10,-76
-23,9,48,5,-49,38,25,-119,-81,-49,-22,-82
-29,-2,42,17,-49,32,25,-125,-93,-55,-34,-88
-35,-14,36,29,-49,26,25,-131,-99,-67,-40,-94
-41,-20,36,35,-49,20,25,-137,-105,-73,-46,-100
-47,-26,36,41,-49,14,25,-137,-111,-79,-52,-106
-53,-32,30,47,-49,8,25,-143,-111,-85,-58,-112
-53,-32,30,47,-49,2,25,-143,-117,-91,-58,-118
-59,-38,30,47,-49,2,25,-143,-123,-97,-64,-124
-65,-44,30,53,-49,-3,25,-143,-123,-103,-64,-124
-65,-44,30,53,-49,-3,25,-143,-123,-103,-64,-124
-65,-44,30,53,-49,-3,25,-143,-123,-103,-64,-124
-65,-44,30,53,-49,-3,25,-149,-123,-103,-64,-124
-65,-44,30,53,-43,-3,25,-149,-123,-103,-64,-124
-65,-44,30,53,-43,-3,25,-149,-123,-103,-64,-124
-65,-44,30,53,-43,-3,25,-149,-123,-103,-64,-124
-65,-44,30,53,-43,-3,25,-149,-123,-103,-64,-124
-65,-44,30,53,-43,-3,25,-149,-123,-103,-64,-124
-65,-44,30,53,-43,-3,25,-143,-117,-103,-64,-124
-59,-44,30,53,-43,-3,25,-137,-105,-97,-64,-124
-53,-38,30,47,-43,2,25,-125,-87,-85,-58,-118
-47,-32,30,41,-43,8,19,-113,-75,-67,-46,-106
-41,-20,30,29,-43,14,13,-107,-63,-49,-22,-94
-29,-8,30,17,-37,14,7,-101,-57,-31,-4,-82
-6,3,30,-1,-25,20,-5,-95,-51,-19,7,-70
18,15,24,-12,-13,26,-28,-89,-45,-1,19,-52
36,21,18,-24,4,26,-58,-83,-45,10,31,-40
48,27,6,-30,22,26,-88,-77,-45,22,43,-22
66,39,-6,-42,46,26,-130,-71,-45,34,55,1
96,45,-35,-66,70,26,-160,-71,-45,46,73,31
126,51,-65,-84,94,20,-190,-65,-45,58,97,55
156,57,-95,-102,124,8,-208,-53,-45,82,127,73
186,63,-119,-120,148,-3,-232,-41,-45,106,157,97
216,63,-143,-132,172,-9,-256,-35,-45,130,175,121
240,69,-155,-144,196,-15,-280,-35,-45,142,199,139
258,75,-167,-156,208,-21,-310,-35,-45,154,211,157
288,87,-179,-168,238,-27,-340,-41,-45,166,229,181
300,105,-185,-186,244,-27,-382,-47,-45,178,253,211
330,135,-191,-216,256,-27,-442,-53,-45,190,277,241
360,153,-203,-246,274,-21,-508,-71,-45,202,307,277
402,183,-209,-282,292,-15,-556,-95,-45,238,343,319
438,207,-215,-318,316,-9,-586,-101,-39,280,391,367
474,225,-221,-360,346,-3,-604,-101,-15,334,451,409
516,243,-233,-390,376,2,-616,-95,26,406,517,469
552,273,-239,-420,394,8,-628,-95,68,454,583,523
582,315,-239,-450,406,26,-634,-95,110,520,631,583
612,369,-239,-480,418,56,-634,-77,194,598,715,655
636,429,-227,-522,424,98,-634,-47,290,706,823,745
666,507,-209,-570,430,152,-628,-17,392,820,937,859
726,549,-203,-630,442,182,-628,-6,464,922,1039,955
810,579,-215,-690,502,188,-688,-6,470,1024,1141,1057
900,579,-311,-732,598,176,-826,-41,440,1078,1237,1147
978,573,-437,-762,706,92,-922,-113,332,1126,1321,1219
1062,543,-551,-774,802,8,-976,-149,224,1186,1399,1285
1146,519,-647,-798,898,-51,-1042,-191,152,1252,1495,1369
1200,507,-725,-810,964,-99,-1114,-269,50,1306,1567,1435
1242,495,-791,-822,1018,-141,-1198,-383,-39,1336,1639,1489
1272,483,-833,-834,1060,-171,-1252,-455,-69,1408,1711,1537
1296,459,-893,-840,1096,-213,-1276,-461,-69,1516,1765,1567
1320,387,-977,-840,1150,-285,-1282,-443,-27,1606,1807,1573
1338,267,-1121,-828,1222,-423,-1276,-311,62,1708,1819,1567
1356,93,-1313,-780,1318,-597,-1192,-113,134,1750,1813,1507
1362,-98,-1481,-684,1396,-771,-1072,54,140,1744,1687,1333
1356,-254,-1571,-576,1426,-903,-934,156,116,1606,1465,1123
1296,-350,-1601,-474,1426,-957,-790,216,68,1402,1231,907
1188,-404,-1601,-390,1414,-975,-664,246,32,1222,1045,727
1074,-434,-1541,-324,1324,-975,-550,258,8,1066,877,589
960,-440,-1439,-264,1210,-951,-466,264,-3,946,745,481
840,-440,-1301,-210,1072,-897,-394,264,-15,796,601,373
660,-440,-1103,-132,880,-789,-316,240,-45,574,403,223
444,-428,-851,-48,640,-639,-196,180,-87,328,199,55
264,-386,-605,5,436,-483,-94,126,-111,148,61,-52
156,-320,-425,29,286,-357,-46,78,-123,46,-4,-94
96,-272,-305,41,190,-273,-10,30,-129,-13,-40,-124
54,-230,-233,47,148,-219,7,0,-129,-43,-58,-136
30,-194,-185,53,112,-177,25,-6,-129,-55,-64,-142
18,-164,-143,53,82,-141,37,-11,-117,-55,-70,-142
6,-134,-113,53,70,-111,49,-11,-111,-61,-76,-148
-6,-116,-83,53,46,-93,55,-11,-105,-67,-82,-148
-17,-110,-71,53,28,-81,61,-11,-99,-73,-88,-148
-35,-104,-53,59,4,-69,67,-17,-99,-85,-94,-154
-47,-98,-29,59,-19,-57,73,-17,-99,-91,-94,-154
-59,-92,-6,59,-31,-45,79,-17,-99,-97,-100,-160
-71,-86,12,65,-43,-33,85,-17,-99,-103,-106,-166
-83,-80,30,71,-55,-21,97,-23,-99,-109,-112,-166
-89,-74,42,71,-61,-15,103,-29,-99,-115,-118,-172
-95,-74,48,77,-67,-9,109,-29,-99,-121,-124,-172
-101,-68,48,77,-73,-3,115,-29,-99,-133,-130,-178
-107,-68,48,77,-79,-3,115,-35,-99,-139,-136,-178
-113,-68,48,77,-85,-3,115,-35,-99,-145,-142,-178
-113,-68,54,77,-85,2,115,-41,-99,-151,-148,-178
-113,-62,60,77,-85,2,115,-41,-99,-157,-148,-178
-119,-62,66,77,-85,8,115,-41,-99,-163,-148,-178
-119,-62,72,77,-91,14,121,-47,-99,-163,-148,-178
-119,-62,78,77,-91,20,121,-47,-99,-163,-148,-178
-119,-56,78,77,-91,20,121,-47,-99,-163,-148,-178
-125,-56,78,77,-91,20,121,-47,-99,-163,-148,-178
-125,-56,78,77,-97,26,121,-53,-99,-163,-148,-178
-125,-50,78,77,-103,26,121,-53,-99,-163,-154,-178
-125,-44,84,77,-103,26,121,-53,-99,-169,-154,-178
-131,-44,90,77,-109,32,121,-53,-99,-175,-154,-178
-131,-44,96,77,-109,32,121,-53,-99,-175,-154,-184
-131,-44,96,77,-109,32,121,-53,-99,-175,-154,-184
-131,-44,96,77,-115,38,121,-53,-99,-175,-154,-190
-131,-44,102,77,-121,38,121,-53,-99,-175,-154,-190
-137,-38,108,77,-121,38,121,-53,-99,-175,-154,-190
-137,-32,108,77,-121,44,121,-59,-99,-175,-154,-190
-137,-26,108,77,-127,44,121,-59,-99,-175,-154,-190
-137,-26,108,77,-127,44,121,-59,-99,-175,-160,-190
-137,-26,108,77,-127,44,121,-59,-99,-175,-160,-190
-137,-26,108,77,-127,44,121,-59,-99,-175,-160,-190
-137,-26,114,77,-127,50,121,-59,-99,-175,-160,-190
-137,-26,120,77,-127,56,121,-59,-99,-175,-160,-190
-137,-20,120,77,-133,56,121,-59,-99,-175,-160,-190
-137,-20,120,77,-133,56,121,-59,-99,-175,-160,-190
-137,-20,120,77,-133,56,121,-59,-93,-175,-160,-190
-137,-20,120,77,-133,56,121,-59,-93,-175,-160,-190
-137,-20,120,77,-133,56,121,-59,-93,-175,-160,-190
-137,-20,120,77,-133,56,121,-59,-87,-175,-160,-190
-137,-20,120,77,-133,56,121,-59,-87,-175,-160,-190
-137,-20,126,77,-133,56,121,-59,-81,-175,-160,-190
-137,-20,126,77,-133,56,121,-59,-75,-175,-160,-190
-143,-20,126,77,-133,62,121,-59,-75,-175,-160,-190
-143,-20,132,77,-133,62,121,-59,-75,-175,-160,-190
-143,-20,138,77,-139,62,121,-59,-69,-175,-160,-190
-143,-14,138,77,-145,68,121,-59,-69,-175,-160,-190
-143,-14,144,77,-145,74,121,-59,-69,-175,-160,-190
-143,-8,150,77,-145,80,121,-59,-69,-175,-160,-190
-143,-8,150,77,-145,80,121,-59,-69,-175,-160,-190
-149,-8,150,77,-145,80,121,-59,-69,-175,-160,-190
-149,-8,156,77,-151,80,121,-59,-63,-175,-160,-190
-149,-8,156,77,-151,80,121,-59,-57,-175,-160,-190
-149,-2,162,77,-157,80,121,-59,-57,-175,-160,-190
-149,-2,162,77,-157,80,121,-59,-57,-169,-160,-190
-155,-2,162,77,-157,86,121,-59,-57,-169,-160,-190
-161,-2,168,77,-163,92,121,-59,-51,-169,-160,-190
-161,-2,174,77,-163,98,121,-59,-45,-169,-160,-190
-161,3,180,77,-163,104,127,-53,-39,-169,-160,-190
-167,3,186,77,-169,110,127,-47,-33,-163,-160,-190
-167,3,192,77,-175,110,133,-41,-27,-163,-160,-190
-167,3,198,77,-181,116,133,-35,-21,-163,-160,-190
-167,9,198,77,-187,122,139,-29,-15,-157,-160,-190
-167,15,198,77,-193,122,145,-23,-9,-151,-160,-190
-167,15,204,77,-193,122,151,-17,-3,-145,-160,-190
-167,21,210,77,-193,122,157,-11,8,-139,-160,-190
-173,27,216,77,-193,128,157,-6,20,-133,-160,-190
-173,27,222,77,-199,128,157,0,26,-127,-160,-190
-179,27,222,77,-199,134,163,6,32,-127,-160,-190
-179,33,228,77,-199,140,163,18,44,-121,-160,-190
-185,33,228,77,-199,146,169,24,56,-115,-160,-190
-191,39,234,77,-205,152,175,36,68,-109,-160,-190
-197,45,246,77,-211,158,181,48,80,-103,-154,-190
-197,45,252,77,-217,158,187,60,92,-97,-148,-190
-197,51,258,71,-223,164,199,72,104,-85,-142,-190
-197,57,264,71,-229,170,205,78,116,-73,-136,-190
-197,63,276,71,-235,176,211,90,140,-67,-130,-190
-197,69,282,71,-241,182,217,108,152,-55,-124,-190
-197,75,288,65,-241,188,223,126,164,-43,-118,-190
-197,75,294,59,-241,194,235,144,182,-25,-118,-190
-197,81,300,59,-241,200,247,162,200,-13,-112,-190
-197,87,306,53,-247,206,253,186,224,4,-106,-184
-197,93,312,53,-253,206,259,198,248,16,-100,-178
-197,99,312,53,-253,212,265,222,272,28,-94,-172
-197,111,318,47,-253,218,271,240,284,40,-88,-172
-197,117,324,41,-253,224,283,252,296,52,-82,-166
-197,123,330,35,-253,230,295,276,326,70,-70,-160
-197,123,330,35,-253,236,301,300,344,88,-58,-154
-197,129,330,29,-253,242,307,324,362,106,-46,-148
-197,135,330,23,-253,242,313,342,386,130,-34,-142
-197,141,330,17,-253,248,325,360,404,154,-22,-136
-197,147,330,11,-253,248,331,372,416,172,-10,-124
-197,153,330,5,-253,254,337,390,428,184,1,-112
-191,159,330,-1,-253,254,343,408,452,196,13,-106
-185,165,336,-1,-253,254,349,420,464,208,25,-100
-179,171,336,-6,-253,254,349,432,476,226,37,-88
-173,171,336,-12,-253,254,349,444,494,244,49,-76
-167,177,336,-18,-253,260,349,462,506,256,55,-64
-161,183,336,-24,-253,260,349,474,518,268,67,-58
-155,183,336,-30,-247,260,349,492,542,286,79,-46
-149,189,336,-36,-241,260,349,504,554,304,91,-40
-143,189,336,-42,-235,260,355,516,566,322,103,-34
-137,189,336,-48,-229,260,355,528,578,334,109,-28
-125,195,330,-54,-223,260,355,540,590,346,121,-22
-119,195,324,-60,-217,260,355,552,596,358,133,-10
-107,201,318,-66,-211,260,355,558,602,370,145,1
-101,207,312,-72,-205,260,355,564,608,382,157,13
-89,207,306,-78,-199,260,355,570,614,394,169,25
-83,207,294,-78,-187,260,355,576,614,400,181,37
-71,207,282,-84,-175,260,355,582,614,412,187,49
-59,207,270,-90,-163,260,349,582,614,418,193,61
-53,207,264,-96,-157,254,337,582,608,418,199,73
-41,207,258,-96,-145,248,325,582,602,418,199,79
-29,207,252,-96,-133,248,313,570,590,418,205,79
-23,207,240,-96,-127,242,295,558,578,418,205,79
-17,207,228,-96,-121,230,277,534,554,412,205,79
-11,207,216,-96,-115,224,253,504,524,400,205,85
-11,207,204,-96,-109,218,241,480,488,388,205,85
-6,207,192,-96,-103,212,229,450,458,376,205,85
-6,201,186,-96,-97,206,211,420,428,358,205,85
-6,195,180,-96,-91,200,199,390,398,340,199,85
-6,189,174,-96,-85,194,187,360,368,316,193,85
-6,183,168,-96,-85,188,175,330,344,292,181,85
-6,171,156,-96,-79,176,163,306,314,268,169,85
0,165,144,-96,-73,164,151,276,290,244,157,79
0,153,132,-96,-67,152,145,252,266,214,151,73
0,141,126,-90,-61,146,133,234,236,196,139,67
0,135,120,-90,-61,140,121,210,206,178,127,55
0,129,120,-84,-61,134,109,180,176,154,115,43
0,129,120,-78,-61,134,97,156,158,142,103,37
0,123,114,-72,-55,128,91,144,146,118,91,31
0,111,102,-66,-55,116,85,132,134,106,85,31
0,93,90,-60,-55,110,79,120,122,94,73,25
0,81,84,-54,-55,104,73,108,110,82,61,19
0,75,78,-48,-55,92,67,90,86,70,49,13
0,69,72,-42,-55,80,67,78,74,52,43,1
0,63,66,-42,-55,74,61,66,62,40,31,-4
0,57,60,-42,-49,68,55,54,50,28,25,-10
-6,51,54,-36,-49,62,55,42,38,22,19,-16
-11,45,54,-30,-49,56,49,36,32,16,13,-22
-17,39,48,-24,-49,56,49,30,26,10,7,-28
-17,33,42,-24,-49,50,49,24,20,4,1,-34
-17,27,42,-24,-49,44,43,18,14,-1,-4,-34
-17,21,42,-18,-49,44,43,12,8,-7,-4,-34
-17,15,42,-12,-43,38,43,6,2,-13,-10,-40
-17,9,36,-12,-43,38,43,0,-3,-19,-10,-46
-17,9,30,-12,-43,38,43,-6,-9,-25,-16,-46
-17,3,30,-12,-43,32,43,-6,-15,-31,-16,-46
-17,3,24,-6,-43,32,43,-11,-15,-37,-22,-46
-17,-2,24,-6,-37,32,43,-17,-21,-37,-22,-52
-17,-2,24,-6,-37,32,43,-17,-21,-37,-22,-52
-17,-2,24,-6,-37,26,43,-17,-21,-43,-22,-52
-17,-2,24,-6,-37,20,43,-17,-27,-43,-22,-52
-17,-2,24,-6,-37,20,37,-17,-27,-43,-22,-52
-17,-2,24,-6,-37,20,37,-17,-33,-43,-22,-58
-17,-2,24,-6,-37,20,37,-17,-33,-43,-22,-58
-17,-2,18,-6,-37,14,37,-23,-33,-43,-22,-58
-17,-2,18,-6,-37,14,37,-23,-33,-43,-22,-58
-17,-2,18,-6,-37,14,37,-23,-33,-49,-28,-58
-17,-2,18,-6,-37,14,37,-23,-33,-55,-28,-58
-17,-2,18,-6,-37,14,37,-29,-33,-55,-28,-58
-17,-2,18,-6,-37,14,37,-29,-33,-55,-28,-58
-17,-2,18,-6,-37,14,37,-29,-33,-61,-28,-58
-17,-8,18,-6,-37,14,37,-29,-33,-61,-28,-58
-17,-8,18,-6,-37,14,37,-29,-39,-61,-28,-58
-17,-8,18,-1,-37,14,37,-29,-39,-61,-28,-58
-17,-8,18,-1,-37,14,37,-29,-39,-61,-28,-64
-17,-8,18,-1,-37,14,37,-29,-39,-61,-34,-64
-17,-8,18,-1,-37,14,37,-29,-39,-61,-34,-64
-17,-8,18,-1,-37,14,37,-29,-39,-61,-34,-64
-17,-8,18,-1,-37,14,37,-29,-39,-61,-34,-64
-17,-8,18,-1,-37,14,37,-29,-39,-61,-34,-64
-17,-8,18,-1,-37,14,37,-35,-39,-61,-34,-64
-17,-8,18,-1,-37,14,37,-35,-39,-61,-34,-64
-17,-8,18,-1,-37,14,37,-35,-39,-61,-34,-64
-17,-8,18,-1,-37,14,37,-35,-39,-61,-34,-64
-17,-8,18,-1,-37,14,37,-35,-39,-61,-34,-64
-17,-8,18,-1,-37,14,37,-35,-39,-61,-34,-64
-17,-8,18,-1,-37,14,37,-35,-39,-61,-34,-64
-17,-8,18,-1,-37,14,37,-35,-39,-61,-34,-64
-17,-8,18,-1,-37,14,37,-35,-39,-61,-34,-64
-17,-8,18,-1,-37,14,37,-35,-39,-61,-34,-64
-17,-8,18,-1,-37,14,37,-35,-39,-61,-34,-64
-17,-8,18,-1,-37,14,37,-35,-39,-61,-34,-64
-17,-8,18,-1,-37,14,37,-35,-39,-61,-34,-64
-17,-8,18,-1,-37,14,37,-35,-39,-61,-34,-64
-17,-8,18,-1,-37,14,37,-35,-39,-61,-34,-64
-17,-8,18,-1,-37,14,37,-35,-39,-61,-34,-64
-17,-8,18,-1,-37,14,37,-35,-39,-61,-34,-64
-17,-8,18,-1,-37,14,37,-35,-39,-61,-34,-64
-17,-8,18,-1,-37,14,37,-35,-39,-61,-34,-64
-23,-8,18,-1,-37,14,37,-35,-39,-61,-34,-64
-23,-8,18,-1,-37,14,37,-35,-39,-61,-34,-64
-23,-8,18,-1,-37,14,37,-35,-39,-61,-34,-64
-23,-8,24,-1,-37,14,37,-35,-39,-61,-34,-64
-29,-8,30,5,-37,14,37,-35,-39,-61,-34,-64
-35,-8,36,5,-37,20,37,-35,-39,-61,-34,-64
-35,-8,36,5,-37,20,37,-35,-39,-61,-34,-64
-35,-8,36,5,-37,20,37,-35,-39,-61,-34,-64
-35,-8,36,5,-37,20,37,-35,-39,-61,-34,-64
-35,-8,36,5,-37,20,37,-41,-39,-61,-34,-64
-35,-8,36,5,-37,20,37,-41,-39,-61,-34,-64
-35,-8,36,5,-37,20,37,-41,-39,-61,-34,-64
-35,-8,36,5,-37,20,37,-41,-39,-61,-34,-64
-35,-8,36,5,-37,26,37,-41,-39,-61,-34,-64
-35,-8,36,5,-37,26,37,-41,-39,-61,-34,-64
-35,-8,36,5,-37,26,37,-41,-39,-61,-34,-64
-35,-8,36,5,-37,26,37,-41,-39,-61,-34,-64
-35,-8,36,5,-37,26,37,-41,-39,-67,-34,-64
-35,-8,36,5,-37,26,37,-41,-39,-73,-34,-64
-35,-8,36,5,-37,26,37,-41,-39,-73,-34,-64
-35,-8,36,5,-37,26,37,-41,-39,-73,-34,-64
-35,-8,36,5,-37,26,37,-41,-39,-79,-34,-64
-35,-8,36,5,-37,26,37,-41,-39,-79,-34,-64
-41,-8,36,5,-37,26,37,-41,-39,-79,-34,-64
-41,-8,36,5,-43,26,37,-41,-39,-79,-34,-64
-41,-8,36,5,-43,26,37,-41,-39,-79,-34,-64
-41,-2,36,5,-43,26,37,-41,-39,-79,-34,-64
-41,-2,36,5,-43,26,37,-47,-39,-79,-34,-64
-41,-2,42,5,-43,26,37,-47,-39,-79,-34,-64
-41,-2,48,5,-43,26,37,-47,-39,-79,-34,-64
-41,-2,48,5,-43,26,37,-47,-39,-79,-34,-64
-41,-2,48,5,-43,26,37,-47,-39,-79,-34,-64
-41,-2,48,5,-43,26,37,-53,-39,-79,-34,-64
-41,-2,48,5,-43,26,37,-53,-39,-79,-34,-64
-41,-2,48,5,-43,26,37,-53,-45,-79,-34,-64
-41,-2,48,11,-43,26,37,-53,-45,-79,-34,-64
-41,-2,48,11,-43,26,37,-53,-45,-79,-34,-64
-41,-2,48,11,-43,26,37,-53,-45,-79,-34,-64
-41,-2,48,11,-43,26,37,-53,-45,-79,-34,-64
-41,-2,48,11,-43,26,37,-53,-45,-79,-34,-64
-41,-2,48,11,-43,26,37,-53,-45,-79,-34,-64
-41,-2,48,11,-43,26,37,-53,-45,-79,-34,-64
-41,-2,48,11,-43,26,37,-53,-45,-79,-34,-64
-41,-2,48,11,-43,26,37,-53,-51,-85,-40,-64
-41,-2,48,11,-43,26,37,-53,-51,-85,-40,-64
-41,-2,48,11,-43,26,37,-53,-51,-85,-40,-64
-41,-2,48,11,-43,26,37,-53,-51,-85,-40,-64
-41,-2,48,11,-43,26,37,-53,-51,-85,-40,-64
-41,-2,48,11,-43,26,37,-53,-51,-85,-40,-64
-41,-2,48,11,-43,26,37,-53,-51,-85,-40,-64
-41,-2,48,11,-43,26,37,-53,-51,-85,-40,-64
-41,-2,48,11,-43,26,37,-53,-51,-85,-40,-64
-41,-2,48,17,-43,26,37,-53,-51,-91,-40,-64
-41,-2,48,17,-43,26,37,-53,-51,-91,-40,-64
-41,-2,48,17,-43,26,37,-53,-51,-91,-40,-64
-41,-2,48,17,-43,26,37,-53,-51,-91,-40,-64
-41,-2,42,17,-43,26,37,-53,-51,-91,-40,-64
-41,-2,42,17,-43,26,37,-53,-51,-91,-40,-64
-41,-2,42,17,-43,26,37,-53,-51,-91,-40,-64
-41,-2,42,17,-43,26,37,-53,-57,-97,-40,-64
-41,-2,42,17,-43,26,37,-53,-57,-97,-40,-64
-41,-2,42,17,-43,26,37,-53,-57,-97,-40,-64
-47,-2,42,17,-43,26,37,-53,-57,-97,-40,-64
-47,-2,42,17,-43,26,37,-53,-57,-97,-40,-64
-47,-2,42,17,-43,26,37,-59,-57,-97,-40,-64
-47,-2,42,17,-43,26,37,-59,-57,-97,-40,-64
-47,-2,42,23,-43,26,37,-59,-57,-97,-40,-64
-53,-2,42,23,-43,26,37,-59,-57,-97,-40,-64
-53,-2,42,23,-43,26,37,-59,-57,-97,-40,-64
-53,-2,42,23,-43,26,37,-59,-57,-97,-40,-64
-53,-2,42,23,-43,26,37,-59,-57,-97,-40,-64
-53,-2,42,29,-43,26,37,-59,-57,-97,-40,-64
-53,-2,42,29,-43,26,37,-59,-57,-97,-40,-64
-53,-2,42,29,-43,26,37,-59,-57,-97,-40,-64
-53,-2,42,29,-43,26,37,-59,-57,-97,-40,-64
-53,-2,42,29,-43,26,37,-59,-57,-97,-46,-64
-53,-2,42,29,-43,26,37,-59,-57,-97,-46,-64
-53,-2,42,29,-43,26,37,-59,-57,-97,-46,-64
-53,-2,42,29,-43,26,37,-59,-57,-97,-46,-64
-53,-2,42,29,-43,26,37,-59,-57,-97,-46,-64
-53,-2,42,29,-43,26,37,-59,-57,-103,-46,-64
-53,-2,42,29,-43,26,37,-59,-57,-103,-46,-64
-53,-8,42,29,-43,26,37,-59,-57,-103,-46,-64
-53,-8,42,29,-43,26,37,-59,-57,-103,-46,-64
-53,-8,42,29,-43,26,37,-59,-57,-103,-46,-64
-53,-8,42,29,-43,26,37,-59,-57,-103,-46,-64
-53,-8,42,29,-43,26,37,-59,-57,-103,-46,-64
-53,-8,42,29,-43,20,37,-59,-57,-103,-52,-64
-53,-8,42,35,-43,20,37,-59,-57,-109,-52,-64
-53,-8,42,35,-43,20,37,-59,-57,-109,-52,-64
-53,-8,42,35,-43,20,37,-65,-57,-109,-52,-64
-53,-8,42,35,-43,20,31,-65,-57,-109,-52,-64
-53,-8,42,35,-43,20,25,-65,-57,-109,-52,-64
-53,-8,42,35,-43,20,19,-65,-57,-109,-52,-64
-53,-8,42,35,-43,20,13,-65,-57,-109,-52,-64
-53,-8,42,35,-43,20,1,-65,-57,-115,-52,-64
-53,-8,42,35,-43,20,-5,-65,-57,-115,-52,-64
-53,-8,42,35,-43,20,-10,-65,-57,-115,-58,-64
-53,-8,42,35,-43,20,-16,-65,-57,-115,-58,-64
-53,-8,42,35,-43,20,-16,-65,-57,-115,-58,-64
-53,-8,42,35,-43,20,-22,-65,-57,-115,-58,-64
-53,-8,42,35,-43,20,-22,-65,-57,-115,-58,-64
-53,-8,42,35,-43,20,-22,-65,-57,-115,-58,-64
-53,-8,42,35,-43,20,-22,-65,-57,-115,-58,-64
-53,-8,42,35,-43,20,-22,-71,-57,-115,-58,-64
-53,-8,42,35,-43,20,-22,-71,-57,-115,-58,-64
-53,-8,42,35,-43,20,-22,-71,-57,-115,-58,-64
-53,-8,42,35,-43,20,-22,-71,-57,-115,-58,-64
-53,-8,42,35,-43,20,-22,-71,-57,-115,-58,-64
-53,-8,42,35,-43,20,-22,-71,-57,-115,-58,-64
-53,-8,42,35,-43,20,-22,-71,-57,-115,-58,-64
-53,-8,42,35,-43,20,-22,-71,-57,-115,-58,-64
-53,-8,42,35,-43,20,-22,-71,-57,-115,-58,-64
-53,-8,42,35,-43,20,-22,-71,-57,-115,-58,-64
-53,-8,42,35,-43,20,-22,-71,-57,-115,-58,-64
-53,-8,42,35,-43,20,-22,-71,-57,-115,-58,-64
-53,-8,42,35,-43,20,-22,-71,-57,-115,-58,-64
-53,-8,42,35,-43,20,-22,-71,-57,-115,-58,-64
-53,-2,42,35,-43,20,-22,-71,-57,-115,-58,-64
-53,3,42,35,-43,26,-22,-71,-57,-115,-58,-64
-53,9,42,29,-43,32,-22,-71,-51,-115,-52,-64
-53,21,54,23,-43,44,-22,-71,-45,-109,-46,-58
-53,33,66,17,-49,56,-22,-65,-39,-103,-46,-52
-53,39,72,11,-49,62,-22,-65,-39,-103,-46,-52
-53,45,78,11,-49,68,-22,-59,-33,-97,-46,-46
-53,45,84,11,-55,74,-16,-59,-27,-91,-40,-46
-53,51,90,11,-55,80,-10,-53,-21,-91,-40,-40
-53,57,96,5,-55,80,-5,-47,-15,-85,-34,-40
-53,57,96,5,-55,86,-5,-47,-15,-85,-34,-40
-53,63,102,-1,-61,92,-5,-47,-9,-79,-34,-40
-53,69,108,-6,-67,104,-5,-47,-9,-79,-28,-34
-53,81,114,-12,-73,110,-5,-47,-9,-79,-22,-28
-53,87,120,-18,-73,116,-10,-47,-9,-79,-22,-28
-53,93,126,-24,-73,122,-16,-47,-9,-73,-22,-22
-53,99,132,-30,-73,128,-22,-47,-3,-73,-16,-16
-53,105,138,-30,-73,134,-34,-47,-3,-73,-10,-10
-53,111,138,-30,-73,134,-40,-47,-3,-73,-10,-10
-53,117,138,-36,-73,134,-46,-53,-3,-73,-10,-10
-53,117,138,-36,-79,134,-52,-59,-3,-67,-10,-4
-53,117,138,-36,-79,134,-52,-59,-3,-67,-4,-4
-53,117,138,-36,-79,134,-52,-59,-3,-67,-4,-4
-53,117,138,-36,-79,134,-52,-65,-3,-67,-4,-4
-53,117,138,-36,-79,134,-52,-65,-3,-67,-4,-4
-47,117,138,-36,-79,134,-52,-71,-3,-67,-4,-4
-47,117,138,-36,-79,134,-52,-71,-3,-67,-4,-4
-47,117,132,-36,-73,128,-52,-77,-9,-67,-4,-4
-47,111,126,-36,-73,122,-52,-77,-15,-67,-4,-4
-47,105,120,-36,-73,116,-52,-77,-21,-67,-4,-4
-47,93,114,-30,-73,110,-52,-83,-27,-73,-4,-4
-47,81,108,-24,-73,98,-52,-89,-33,-79,-10,-10
-47,57,96,-12,-67,86,-46,-95,-39,-85,-16,-16
-53,39,84,-1,-61,74,-34,-95,-45,-97,-28,-22
-59,27,72,11,-61,62,-22,-95,-51,-109,-40,-34
-59,15,66,23,-61,56,-10,-101,-63,-115,-46,-46
-59,3,66,29,-61,44,1,-101,-69,-121,-52,-52
-65,-8,66,41,-61,38,7,-107,-75,-127,-58,-58
-71,-20,66,53,-61,32,13,-113,-81,-133,-64,-64
-77,-26,60,59,-61,26,25,-119,-87,-139,-70,-70
-77,-32,54,59,-61,20,25,-119,-87,-139,-76,-76
-83,-32,48,65,-61,14,25,-119,-93,-145,-82,-76
-83,-32,42,65,-61,14,25,-125,-93,-145,-88,-82
-83,-32,42,65,-55,14,31,-125,-93,-145,-88,-82
-83,-32,42,65,-55,14,31,-125,-93,-145,-88,-82
-95,-44,42,71,-55,8,31,-131,-99,-151,-88,-82
-95,-50,42,77,-55,2,31,-131,-99,-151,-88,-88
-95,-50,42,77,-55,2,31,-131,-99,-151,-88,-88
-95,-50,42,77,-55,2,31,-131,-99,-151,-88,-88
-95,-50,42,77,-55,2,37,-131,-99,-151,-88,-88
-95,-50,42,77,-55,2,37,-131,-99,-151,-88,-88
-95,-50,42,77,-55,2,37,-131,-99,-145,-88,-88
-95,-50,42,77,-55,2,37,-125,-93,-139,-88,-88
-95,-50,42,77,-55,2,37,-113,-81,-133,-82,-82
-89,-44,42,71,-55,8,37,-101,-63,-121,-70,-70
-83,-38,42,59,-55,14,37,-89,-51,-97,-52,-58
-71,-26,42,47,-49,20,37,-83,-39,-73,-40,-40
-59,-14,42,23,-43,26,31,-77,-33,-61,-28,-28
-29,9,42,5,-31,32,19,-71,-27,-49,-10,-16
-11,27,42,-6,-19,32,-10,-71,-21,-37,1,-4
6,39,36,-18,-7,32,-40,-71,-21,-25,13,7
24,45,18,-30,16,32,-76,-65,-21,-19,31,25
48,45,-11,-42,46,26,-118,-65,-21,-7,43,49
78,45,-41,-48,76,20,-154,-65,-21,4,73,79
108,45,-65,-60,100,8,-178,-59,-21,28,97,103
138,45,-83,-90,118,2,-196,-47,-21,58,127,133
162,51,-101,-102,148,-3,-226,-41,-21,82,145,151
192,57,-125,-126,166,-9,-244,-35,-21,94,163,163
222,63,-137,-138,190,-15,-262,-35,-21,100,175,175
246,75,-149,-150,214,-21,-292,-35,-27,112,187,199
276,87,-167,-162,226,-21,-328,-41,-27,124,211,223
294,99,-179,-186,238,-21,-376,-47,-27,136,241,253
318,123,-191,-216,256,-21,-436,-59,-33,148,271,283
342,135,-197,-246,286,-21,-490,-71,-39,172,301,325
372,165,-203,-276,298,-15,-532,-83,-39,202,331,367
408,195,-209,-306,310,-9,-556,-89,-33,250,385,415
450,225,-215,-348,340,-3,-580,-89,-9,322,445,469
498,255,-227,-378,370,2,-592,-83,32,388,511,523
528,291,-227,-408,382,14,-604,-77,68,430,571,583
552,333,-227,-438,388,38,-610,-65,122,496,637,643
582,387,-227,-468,394,74,-610,-35,224,598,733,727
612,447,-215,-522,400,116,-610,-6,338,700,853,835
654,513,-203,-582,412,158,-610,18,416,820,961,925
720,543,-203,-624,454,164,-622,24,452,922,1075,1039
816,555,-251,-672,538,164,-742,6,452,988,1165,1135
888,555,-353,-708,634,122,-874,-77,368,1042,1237,1213
978,543,-479,-726,730,44,-946,-137,236,1084,1303,1273
1062,513,-581,-756,832,-21,-1018,-191,134,1132,1381,1339
1146,495,-677,-786,922,-81,-1102,-257,44,1186,1471,1411
1188,483,-755,-798,982,-135,-1180,-371,-51,1216,1531,1459
1218,459,-821,-810,1030,-177,-1240,-491,-111,1246,1585,1501
1248,429,-881,-816,1078,-219,-1276,-521,-117,1324,1663,1543
1278,375,-971,-816,1126,-291,-1300,-521,-111,1432,1705,1561
1290,279,-1085,-804,1192,-393,-1300,-461,-51,1534,1735,1561
1308,129,-1241,-762,1276,-543,-1270,-293,26,1606,1735,1531
1320,-56,-1409,-684,1366,-729,-1156,-95,56,1612,1681,1405
1320,-230,-1553,-588,1420,-879,-1030,48,56,1552,1483,1219
1296,-356,-1613,-480,1438,-981,-892,132,14,1360,1249,1003
1224,-428,-1619,-402,1432,-1011,-748,186,-27,1192,1039,811
1116,-464,-1613,-330,1390,-1017,-634,216,-57,1024,871,643
1002,-482,-1541,-252,1282,-1017,-532,228,-63,886,721,523
882,-488,-1427,-198,1162,-987,-448,240,-69,778,607,421
756,-488,-1283,-144,1030,-921,-388,240,-75,604,457,301
570,-488,-1067,-60,832,-801,-292,222,-93,388,271,163
354,-470,-809,5,592,-633,-178,162,-123,178,103,25
186,-410,-557,53,376,-477,-88,120,-135,40,-4,-52
78,-356,-383,83,238,-357,-34,78,-141,-37,-46,-88
30,-302,-281,95,166,-285,-5,42,-141,-67,-70,-106
0,-260,-215,101,124,-243,25,30,-135,-79,-76,-112
-17,-230,-179,107,94,-201,49,30,-123,-85,-82,-118
-41,-200,-149,107,64,-171,61,30,-111,-91,-88,-124
-59,-182,-125,107,40,-153,73,30,-99,-97,-88,-124
-71,-170,-101,113,28,-135,79,30,-93,-103,-94,-124
-89,-164,-71,113,10,-123,85,30,-87,-109,-100,-124
-101,-158,-59,119,-7,-111,91,30,-87,-115,-106,-124
-113,-152,-29,119,-25,-93,97,30,-81,-121,-112,-130
-125,-146,-6,119,-43,-75,109,30,-81,-127,-118,-136
-131,-134,12,119,-55,-63,115,24,-81,-133,-124,-142
-137,-128,24,119,-67,-51,121,18,-81,-139,-124,-148
-137,-122,30,119,-73,-45,127,18,-81,-145,-130,-148
-143,-122,36,125,-79,-39,133,18,-81,-157,-136,-154
-149,-116,36,125,-85,-39,133,18,-81,-163,-142,-160
-155,-116,42,125,-85,-39,133,12,-81,-169,-148,-166
-161,-116,48,125,-85,-39,133,6,-81,-181,-154,-166
-167,-116,54,125,-91,-33,133,6,-81,-187,-160,-166
-173,-116,60,125,-97,-27,133,6,-81,-187,-160,-166
-173,-116,60,131,-103,-27,133,6,-81,-193,-160,-166
-173,-116,60,131,-109,-21,133,6,-81,-193,-160,-166
-173,-110,66,131,-115,-15,133,6,-81,-193,-160,-166
-173,-104,66,131,-115,-15,133,6,-81,-199,-160,-166
-179,-104,66,131,-115,-15,139,0,-81,-199,-160,-166
-179,-104,66,131,-115,-15,139,0,-81,-199,-160,-166
-179,-104,66,131,-121,-15,139,0,-81,-199,-160,-166
-179,-104,66,131,-121,-15,139,0,-81,-199,-160,-166
-179,-104,66,131,-127,-15,139,0,-81,-199,-160,-172
-179,-104,72,131,-127,-9,139,0,-81,-199,-166,-172
-179,-104,78,131,-127,-3,139,-6,-81,-199,-166,-178
-185,-104,78,131,-127,2,139,-6,-81,-199,-166,-178
-185,-104,78,131,-133,2,139,-6,-81,-199,-166,-178
-185,-104,84,131,-133,2,139,-6,-81,-205,-166,-178
-185,-104,84,131,-133,2,139,-11,-81,-205,-166,-178
-185,-98,90,131,-133,2,139,-11,-81,-205,-166,-178
-185,-98,96,131,-139,2,139,-11,-81,-205,-166,-178
-191,-98,102,131,-139,2,139,-11,-81,-205,-166,-178
-191,-98,102,131,-139,2,139,-11,-81,-205,-166,-184
-191,-92,108,131,-139,8,139,-11,-81,-205,-166,-184
-191,-86,108,131,-145,14,139,-11,-81,-205,-166,-184
-191,-80,108,131,-145,20,139,-11,-81,-205,-172,-184
-197,-80,108,131,-145,20,139,-11,-81,-205,-172,-184
-203,-80,114,131,-145,26,139,-11,-81,-205,-172,-184
-203,-80,114,131,-145,26,139,-11,-81,-205,-172,-184
-203,-74,120,131,-145,26,139,-11,-81,-205,-172,-184
-203,-74,120,131,-151,26,139,-11,-75,-205,-172,-184
-203,-74,120,131,-151,26,139,-11,-69,-205,-172,-184
-203,-74,126,131,-157,32,139,-11,-69,-205,-172,-184
-203,-74,132,131,-157,38,139,-11,-69,-205,-172,-184
-203,-74,138,131,-157,38,139,-11,-63,-205,-172,-184
-203,-74,138,131,-157,38,139,-11,-63,-205,-172,-184
-209,-68,138,131,-157,44,139,-11,-63,-205,-172,-190
-209,-68,138,131,-157,44,139,-11,-63,-205,-172,-190
-209,-68,138,131,-163,44,139,-11,-57,-205,-172,-190
-215,-62,138,131,-163,50,139,-11,-57,-205,-172,-190
-215,-62,144,131,-163,50,139,-11,-57,-205,-172,-190
-215,-62,144,131,-169,50,139,-11,-51,-205,-172,-190
-215,-62,150,131,-169,56,139,-11,-45,-205,-172,-190
-215,-62,150,131,-169,56,139,-11,-45,-205,-172,-190
-215,-62,150,131,-175,56,139,-11,-45,-205,-172,-190
-221,-62,156,131,-175,56,139,-11,-45,-199,-172,-190
-221,-62,162,131,-181,56,139,-11,-45,-199,-172,-190
-221,-62,168,131,-187,62,139,-11,-39,-193,-172,-190
-227,-62,174,131,-193,62,139,-11,-33,-193,-172,-190
-233,-56,180,131,-199,68,139,-6,-27,-193,-172,-190
-239,-50,180,131,-199,68,139,0,-21,-193,-172,-190
-239,-50,180,131,-205,68,139,6,-15,-193,-172,-190
-239,-50,186,131,-205,74,145,12,-9,-193,-172,-190
-239,-44,192,131,-205,80,145,18,-3,-187,-172,-190
-239,-38,198,131,-205,86,145,24,2,-181,-172,-190
-245,-32,204,131,-211,92,151,24,8,-175,-172,-190
-245,-26,210,131,-217,98,151,24,14,-169,-172,-190
-245,-26,216,131,-223,104,151,30,20,-169,-172,-190
-245,-26,222,131,-229,104,151,36,32,-169,-172,-190
-245,-26,228,131,-229,104,157,42,44,-163,-172,-190
-251,-20,234,131,-235,110,163,48,56,-157,-172,-190
-257,-20,234,131,-235,116,163,60,68,-145,-172,-190
-257,-14,240,131,-241,122,169,72,80,-133,-172,-190
-257,-14,240,131,-241,122,175,84,92,-121,-166,-190
-257,-8,246,131,-241,128,181,96,104,-109,-160,-190
-257,-2,252,131,-247,134,187,108,116,-103,-160,-190
-257,3,258,131,-253,134,193,120,128,-91,-154,-190
-257,3,264,131,-259,140,199,132,140,-85,-148,-190
-257,9,270,131,-265,152,205,144,152,-79,-142,-190
-257,15,276,131,-265,164,211,162,164,-73,-136,-190
-263,21,282,131,-265,170,217,174,188,-61,-130,-190
-263,27,288,131,-271,176,223,192,212,-49,-130,-190
-263,33,294,125,-271,176,229,216,230,-37,-124,-190
-263,39,300,125,-271,182,241,234,254,-19,-118,-184
-263,45,306,119,-277,188,247,252,266,-1,-112,-184
-263,51,306,113,-277,188,253,276,278,16,-100,-184
-263,57,312,113,-277,194,259,288,296,28,-88,-178
-263,63,312,107,-277,200,265,300,320,46,-76,-172
-263,69,318,101,-277,206,265,318,338,64,-64,-166
-263,75,324,101,-277,212,265,348,356,82,-52,-154
-263,81,324,95,-277,212,265,360,374,94,-40,-142
-263,87,324,89,-277,218,271,378,398,118,-34,-130
-263,93,324,89,-277,218,277,402,416,142,-22,-124
-263,93,330,89,-277,224,277,420,428,154,-10,-118
-263,99,336,83,-283,224,277,432,440,172,-4,-112
-257,105,336,77,-283,224,277,444,452,190,7,-106
-257,111,336,77,-283,224,283,462,464,202,19,-100
-251,111,336,71,-283,224,283,474,482,214,31,-94
-245,111,336,65,-283,230,283,486,500,226,49,-82
-239,117,336,59,-283,230,283,498,512,244,61,-70
-233,123,336,53,-283,230,283,510,524,256,73,-58
-227,129,336,47,-277,230,283,534,536,268,85,-46
-215,135,336,41,-271,236,283,546,548,298,97,-40
-203,141,330,35,-265,236,283,558,560,310,109,-34
-197,141,324,29,-259,236,283,570,572,322,115,-28
-191,141,324,23,-253,236,283,582,578,334,127,-22
-185,147,318,17,-247,236,283,588,584,346,139,-10
-173,147,312,11,-235,236,277,594,590,358,151,-4
-167,147,306,5,-223,236,271,600,590,364,157,1
-155,147,300,-1,-211,236,265,600,590,370,169,13
-143,147,294,-6,-205,236,259,600,590,376,175,25
-131,147,282,-12,-199,236,253,600,590,382,181,37
-119,147,276,-18,-187,236,247,600,590,388,187,43
-113,147,264,-18,-181,230,241,594,584,388,193,49
-107,147,252,-24,-169,218,235,582,572,388,199,55
-101,147,240,-24,-157,206,229,570,560,388,199,55
-95,147,228,-24,-145,200,223,546,530,388,199,61
-89,147,216,-24,-139,194,211,510,500,376,199,67
-83,147,210,-24,-133,188,199,480,470,364,199,67
-77,147,204,-24,-133,182,187,450,446,346,199,67
-77,141,198,-24,-127,176,175,420,416,328,199,67
-77,135,186,-24,-121,170,163,396,392,310,199,67
-77,129,174,-24,-115,158,151,372,368,292,193,67
-77,123,162,-24,-109,146,145,342,338,274,181,67
-77,111,150,-24,-103,134,139,306,296,250,169,67
-77,99,144,-18,-103,122,127,282,266,226,157,61
-77,87,138,-12,-103,116,121,258,242,208,145,55
-77,81,132,-12,-97,110,109,228,218,178,133,49
-77,75,126,-6,-97,104,103,198,194,148,121,43
-77,63,120,-1,-97,98,97,180,176,130,109,31
-77,57,114,5,-91,92,91,162,158,112,97,25
-77,51,108,11,-91,86,85,144,146,100,85,13
-77,45,102,11,-91,80,79,126,134,88,73,7
-77,39,96,11,-91,74,73,114,110,76,61,1
-77,27,84,17,-91,68,67,102,86,64,49,-4
-77,15,78,23,-91,56,67,90,74,52,43,-10
-77,3,72,35,-91,50,61,78,56,40,31,-16
-77,-2,72,41,-85,44,55,66,44,22,25,-22
-83,-8,66,47,-85,38,55,48,32,10,19,-28
-83,-14,66,47,-85,38,55,36,20,-1,7,-34
-83,-20,66,47,-85,32,49,30,8,-13,1,-40
-83,-26,60,47,-85,32,49,24,2,-19,-4,-46
-83,-26,60,47,-85,32,49,18,-3,-25,-10,-46
-83,-32,60,47,-85,32,49,12,-9,-31,-16,-46
-83,-32,54,53,-85,26,49,6,-15,-37,-22,-52
-89,-38,48,59,-79,20,43,0,-21,-43,-28,-58
-89,-44,42,65,-79,14,43,0,-33,-49,-28,-64
-89,-44,42,65,-73,8,43,-6,-33,-49,-28,-64
-95,-44,42,71,-73,2,43,-11,-33,-55,-28,-64
-95,-44,42,71,-73,2,37,-11,-39,-55,-28,-70
-95,-44,36,71,-73,2,37,-11,-39,-55,-28,-70
-95,-44,30,71,-73,2,37,-11,-39,-61,-34,-70
-95,-50,30,77,-73,-3,37,-11,-39,-61,-40,-70
-95,-56,30,77,-73,-3,37,-11,-39,-61,-40,-70
-95,-56,30,77,-73,-9,37,-11,-39,-61,-40,-70
-95,-56,30,77,-73,-9,37,-11,-45,-61,-40,-70
-95,-56,30,77,-73,-9,37,-11,-51,-67,-40,-70
-95,-56,30,77,-73,-9,37,-17,-51,-67,-40,-70
-95,-56,30,77,-73,-9,37,-17,-51,-73,-40,-70
-95,-56,30,77,-73,-9,37,-17,-51,-73,-40,-70
-95,-56,30,77,-73,-9,37,-17,-51,-73,-40,-76
-95,-56,30,77,-73,-9,37,-17,-51,-73,-40,-76
-95,-56,30,77,-67,-9,43,-17,-51,-73,-40,-76
-95,-56,30,77,-61,-9,43,-17,-51,-73,-40,-76
-95,-56,24,77,-61,-9,49,-17,-51,-73,-46,-82
-95,-56,24,77,-61,-9,49,-17,-51,-73,-46,-88
-95,-56,24,77,-61,-9,55,-17,-51,-73,-46,-88
-95,-56,24,77,-61,-9,55,-17,-51,-73,-46,-88
-95,-56,24,77,-61,-9,61,-17,-51,-73,-46,-88
-95,-56,24,77,-61,-9,61,-17,-51,-73,-46,-88
-95,-56,24,77,-61,-9,61,-23,-51,-73,-46,-88
-95,-56,24,77,-61,-9,67,-23,-51,-73,-46,-88
-95,-56,24,77,-61,-9,67,-23,-51,-73,-46,-88
-95,-56,24,77,-61,-9,67,-23,-51,-73,-46,-88
-95,-56,24,77,-61,-9,73,-23,-51,-73,-46,-88
-95,-56,24,77,-61,-9,73,-23,-51,-73,-46,-88
-95,-56,24,77,-61,-9,73,-23,-51,-73,-46,-88
-95,-56,24,77,-61,-9,73,-23,-51,-73,-46,-88
-95,-56,24,77,-61,-9,79,-23,-51,-73,-46,-88
-95,-56,24,77,-61,-9,79,-23,-51,-73,-46,-88
-95,-56,24,77,-61,-9,79,-23,-51,-73,-46,-88
-95,-56,24,77,-61,-9,79,-23,-51,-73,-46,-88
-95,-56,24,77,-61,-9,79,-23,-51,-73,-46,-88
-95,-56,24,77,-61,-9,79,-23,-51,-73,-46,-88
-95,-56,30,77,-61,-9,79,-23,-51,-73,-46,-88
-95,-56,30,77,-61,-9,85,-23,-51,-73,-46,-88
-101,-56,30,77,-61,-9,85,-23,-51,-73,-46,-88
-107,-56,30,77,-61,-9,85,-23,-51,-73,-46,-88
-107,-56,36,77,-61,-9,85,-23,-51,-73,-46,-88
-107,-56,36,77,-61,-9,85,-23,-51,-73,-46,-88
-107,-56,42,77,-61,-9,85,-23,-51,-73,-46,-88
-107,-56,42,77,-61,-9,85,-23,-51,-73,-46,-88
-107,-56,42,77,-67,-9,85,-23,-51,-73,-46,-88
-107,-56,42,77,-67,-9,85,-23,-51,-73,-46,-88
-107,-56,48,77,-67,-9,85,-23,-51,-73,-46,-88
-107,-56,48,77,-67,-9,85,-23,-51,-73,-46,-88
-107,-56,48,77,-67,-9,85,-23,-51,-73,-46,-88
-107,-56,54,77,-73,-9,85,-23,-51,-73,-46,-88
-113,-56,54,77,-73,-9,85,-23,-51,-73,-46,-88
-113,-56,60,77,-73,-9,85,-23,-51,-73,-46,-88
-113,-56,60,77,-73,-3,85,-23,-51,-73,-46,-88
-113,-56,66,77,-73,-3,85,-23,-51,-73,-46,-88
-113,-50,72,77,-79,2,85,-23,-51,-73,-46,-88
-113,-50,72,77,-79,8,85,-23,-51,-73,-46,-88
-113,-50,72,77,-79,8,85,-23,-51,-73,-46,-88
-113,-50,72,77,-79,8,85,-23,-51,-73,-46,-88
-113,-50,72,77,-79,8,85,-23,-51,-73,-46,-88
-119,-50,72,77,-79,8,85,-23,-51,-73,-46,-88
-119,-50,72,77,-79,8,85,-23,-51,-73,-46,-88
-119,-50,72,77,-79,8,85,-23,-51,-73,-46,-88
-119,-50,72,77,-79,8,85,-23,-51,-73,-46,-88
-119,-50,72,77,-79,8,85,-23,-51,-73,-46,-88
-119,-50,72,77,-79,8,85,-23,-51,-73,-46,-88
-119,-50,72,77,-79,8,85,-29,-51,-73,-46,-88
-119,-50,72,77,-79,8,85,-29,-51,-73,-46,-88
-119,-50,72,77,-79,8,85,-29,-51,-73,-46,-88
-119,-50,72,77,-79,8,85,-29,-51,-73,-46,-88
-119,-50,72,77,-79,8,85,-29,-51,-73,-46,-88
-119,-50,72,77,-79,8,85,-35,-51,-73,-46,-88
-119,-50,72,77,-85,8,85,-35,-51,-73,-46,-88
-119,-50,72,77,-85,8,91,-35,-51,-73,-46,-88
-119,-50,72,77,-85,8,91,-35,-51,-73,-46,-88
-119,-50,72,77,-85,8,97,-35,-51,-73,-46,-88
-119,-50,72,77,-85,8,97,-35,-51,-73,-46,-88
-125,-50,72,77,-85,8,97,-41,-51,-73,-46,-88
-125,-50,72,77,-85,8,97,-41,-51,-73,-46,-88
-125,-50,72,77,-85,8,97,-41,-51,-73,-46,-88
-125,-50,72,77,-85,8,97,-41,-51,-73,-46,-88
-125,-50,72,77,-85,8,97,-41,-51,-73,-46,-88
-125,-50,72,77,-85,8,97,-41,-51,-73,-46,-88
-125,-50,72,77,-85,8,97,-47,-51,-73,-46,-88
-125,-50,72,77,-85,8,97,-47,-51,-73,-46,-88
-125,-50,72,77,-85,8,97,-47,-51,-73,-46,-88
-125,-50,72,77,-85,8,97,-47,-51,-73,-46,-88
-125,-50,72,77,-85,8,97,-47,-51,-73,-46,-88
-125,-50,72,83,-85,8,97,-47,-51,-73,-46,-88
-125,-50,72,83,-85,8,97,-47,-51,-73,-46,-88
-125,-50,72,83,-85,8,97,-47,-51,-73,-46,-88
-125,-50,72,83,-85,8,97,-53,-51,-73,-46,-88
-125,-50,72,83,-85,8,97,-53,-51,-73,-46,-88
-125,-50,72,83,-85,8,97,-53,-51,-73,-46,-88
-125,-50,72,83,-85,8,97,-59,-51,-73,-46,-88
-125,-50,72,83,-85,8,97,-59,-51,-73,-46,-88
-125,-50,72,83,-85,8,97,-59,-51,-73,-46,-88
-125,-50,72,83,-85,8,97,-59,-51,-73,-46,-88
-125,-50,72,83,-85,8,97,-59,-51,-73,-46,-88
-125,-50,72,83,-85,8,97,-59,-51,-73,-46,-88
-125,-50,72,83,-85,8,97,-59,-51,-73,-46,-88
-125,-50,72,83,-85,8,97,-59,-51,-73,-46,-88
-125,-50,72,83,-85,8,97,-59,-51,-73,-46,-88
-125,-50,72,83,-85,8,97,-59,-51,-73,-46,-88
-125,-50,72,83,-85,8,97,-59,-51,-73,-46,-88
-125,-50,72,83,-85,8,97,-65,-51,-73,-46,-88
-125,-50,72,83,-85,8,97,-65,-51,-73,-46,-88
-125,-50,72,83,-85,8,97,-65,-51,-73,-46,-88
-125,-50,72,83,-85,8,97,-65,-51,-73,-46,-88
-125,-50,72,83,-85,8,97,-65,-51,-73,-46,-88
-125,-50,72,83,-85,8,97,-65,-51,-73,-46,-88
-125,-50,72,83,-85,8,97,-65,-51,-73,-46,-88
-125,-50,72,83,-85,8,97,-65,-51,-73,-46,-88
-125,-50,72,83,-85,8,97,-65,-51,-73,-46,-88
-131,-50,72,83,-85,8,97,-65,-51,-73,-46,-88
-131,-50,72,83,-85,8,97,-65,-51,-73,-46,-94
-131,-50,72,83,-85,8,97,-65,-51,-73,-46,-94
-131,-50,72,83,-85,8,97,-65,-51,-73,-46,-94
-131,-50,72,83,-85,8,97,-65,-51,-73,-46,-94
-131,-50,72,83,-85,8,97,-65,-51,-73,-46,-94
-131,-50,72,83,-85,8,97,-65,-51,-73,-46,-94
-131,-50,72,83,-85,8,97,-65,-51,-73,-46,-94
-131,-50,72,83,-85,8,97,-65,-51,-73,-46,-100
-131,-50,72,83,-85,8,97,-65,-51,-73,-46,-100
-131,-50,72,83,-85,8,97,-65,-51,-73,-46,-100
-131,-50,72,83,-85,8,97,-65,-51,-73,-46,-100
-131,-50,72,83,-85,8,97,-65,-51,-73,-46,-100
-131,-50,72,83,-85,8,97,-65,-51,-73,-46,-100
-131,-50,72,83,-85,8,97,-65,-51,-73,-46,-100
-131,-50,66,83,-85,8,97,-65,-51,-73,-46,-100
-131,-50,66,83,-85,8,91,-65,-51,-73,-46,-100
-131,-50,66,83,-85,8,91,-65,-51,-73,-46,-100
-131,-50,66,83,-85,8,91,-65,-51,-73,-46,-100
-131,-50,66,83,-85,8,91,-65,-51,-73,-46,-100
-131,-50,66,83,-85,8,91,-65,-51,-73,-46,-100
-131,-50,66,83,-85,8,91,-65,-51,-73,-46,-100
-131,-50,66,83,-85,8,91,-65,-51,-73,-46,-100
-131,-50,66,83,-85,8,91,-65,-51,-73,-46,-100
-131,-50,66,83,-85,8,91,-65,-51,-73,-46,-100
-131,-50,66,83,-85,8,91,-65,-51,-73,-46,-100
-131,-50,66,83,-85,8,91,-65,-51,-73,-46,-100
-131,-50,66,83,-85,8,91,-65,-51,-73,-46,-100
-131,-50,66,83,-85,8,91,-65,-51,-73,-46,-100
-131,-50,66,83,-85,8,91,-65,-51,-73,-46,-100
-131,-50,66,83,-85,8,91,-65,-51,-73,-46,-100
-131,-50,66,83,-85,8,91,-65,-51,-73,-46,-100
-131,-50,66,83,-85,8,91,-65,-51,-73,-46,-100
-131,-50,66,83,-85,8,91,-65,-51,-73,-46,-100
-131,-50,66,83,-85,8,91,-65,-51,-73,-46,-100
-131,-50,66,83,-85,8,91,-65,-51,-73,-46,-100
-131,-50,66,83,-85,8,91,-65,-51,-73,-46,-100
-131,-50,66,83,-85,8,91,-65,-51,-73,-46,-100
-131,-50,66,83,-85,8,91,-65,-51,-73,-46,-100
-131,-50,66,83,-85,8,91,-65,-51,-73,-46,-100
-131,-50,66,83,-85,8,91,-65,-51,-73,-46,-100
-131,-50,66,83,-85,8,91,-65,-51,-73,-46,-100
-131,-50,66,83,-85,8,91,-65,-51,-73,-46,-100
-131,-50,66,83,-85,8,91,-65,-51,-73,-46,-100
-131,-50,66,83,-85,8,85,-65,-51,-73,-46,-100
-131,-50,66,83,-85,8,79,-65,-51,-73,-46,-106
-131,-50,66,83,-85,8,79,-65,-51,-73,-46,-106
-131,-50,66,83,-85,8,79,-65,-51,-73,-46,-106
-131,-50,66,83,-85,8,79,-65,-51,-73,-46,-106
-131,-50,66,83,-85,8,79,-65,-51,-73,-46,-106
-131,-50,66,83,-85,8,79,-65,-51,-73,-46,-106
-131,-50,66,83,-85,8,79,-65,-51,-73,-46,-106
-131,-50,66,83,-85,8,79,-65,-51,-73,-46,-106
-131,-50,66,83,-85,8,79,-65,-51,-73,-46,-112
-131,-50,66,83,-85,8,79,-65,-51,-73,-46,-112
-131,-50,66,83,-85,8,73,-65,-51,-73,-46,-112
-131,-50,66,83,-85,8,73,-65,-51,-73,-46,-112
-131,-50,66,83,-85,8,73,-65,-51,-73,-46,-112
-131,-50,66,83,-85,8,73,-65,-51,-73,-46,-112
-131,-50,66,83,-85,8,73,-65,-51,-73,-46,-112
-131,-50,66,83,-85,8,73,-65,-51,-73,-46,-112
-131,-50,66,83,-85,8,73,-65,-51,-73,-46,-112
-131,-44,66,83,-85,8,73,-65,-51,-73,-46,-112
-131,-38,66,77,-85,8,73,-65,-51,-73,-46,-112
-125,-32,66,71,-85,14,73,-65,-51,-73,-46,-112
-119,-26,66,71,-85,14,73,-65,-51,-73,-46,-112
-119,-14,66,65,-85,20,73,-65,-45,-73,-40,-112
-119,-2,72,59,-85,32,73,-65,-39,-73,-34,-112
-119,9,78,53,-85,38,73,-65,-33,-73,-34,-112
-113,15,84,53,-85,44,73,-59,-27,-67,-28,-112
-113,21,90,53,-85,44,73,-53,-21,-67,-28,-106
-113,21,90,47,-85,50,79,-47,-9,-61,-22,-100
-113,27,96,41,-85,56,85,-41,-3,-55,-16,-94
-107,33,96,41,-85,62,91,-41,2,-55,-16,-94
-107,39,102,35,-85,68,91,-35,2,-55,-10,-88
-107,45,102,29,-85,74,91,-35,2,-49,-10,-82
-107,51,108,23,-85,80,91,-35,8,-49,-4,-76
-107,57,114,17,-85,86,91,-35,8,-49,-4,-76
-107,63,120,11,-85,92,91,-35,8,-49,1,-70
-107,69,120,11,-85,98,85,-35,8,-49,1,-70
-101,81,120,5,-85,104,73,-35,14,-49,7,-70
-95,87,126,-1,-85,110,67,-35,14,-49,7,-64
-95,93,132,-1,-91,116,55,-41,14,-49,7,-64
-95,99,138,-1,-97,122,49,-41,14,-55,13,-58
-89,105,138,-1,-97,122,43,-41,14,-61,19,-52
-77,105,138,-6,-97,122,43,-47,14,-61,19,-52
-77,105,138,-6,-97,122,43,-47,14,-61,19,-52
-77,105,138,-6,-97,122,43,-47,14,-67,19,-52
-77,105,138,-6,-97,122,43,-47,14,-67,25,-52
-77,105,138,-6,-97,122,43,-47,14,-67,25,-52
-77,105,138,-6,-97,122,37,-53,14,-67,25,-52
-77,105,138,-6,-97,122,37,-59,8,-67,25,-52
-77,99,132,-6,-91,116,37,-65,2,-67,19,-52
-77,93,126,-6,-91,110,37,-65,-3,-67,13,-52
-77,81,120,-6,-91,104,37,-71,-3,-73,7,-52
-77,69,108,-1,-85,92,37,-71,-3,-73,7,-52
-77,39,96,5,-79,74,37,-71,-9,-79,1,-52
-77,15,84,17,-73,56,37,-77,-15,-85,-4,-58
-83,-2,72,29,-73,44,37,-83,-27,-97,-10,-64
-89,-14,66,41,-73,32,37,-89,-39,-109,-16,-76
-95,-20,60,53,-73,26,37,-95,-45,-115,-22,-88
-101,-26,54,59,-73,20,37,-95,-51,-121,-34,-94
-107,-32,54,65,-73,20,37,-95,-57,-121,-40,-100
-107,-38,54,71,-73,14,37,-95,-63,-127,-46,-100
-107,-44,48,71,-73,8,37,-101,-63,-127,-52,-100
-107,-50,42,71,-73,2,37,-107,-69,-133,-58,-106
-107,-56,36,71,-73,-3,37,-113,-69,-139,-64,-112
-107,-56,36,71,-73,-3,37,-119,-69,-145,-70,-112
-107,-62,36,71,-67,-9,37,-119,-69,-145,-70,-112
-107,-68,36,71,-67,-15,37,-119,-69,-145,-70,-112
-107,-68,30,71,-67,-15,37,-119,-69,-145,-70,-112
-107,-68,30,71,-67,-15,37,-119,-69,-145,-70,-112
-107,-68,30,71,-67,-15,37,-119,-69,-145,-70,-112
-107,-68,30,71,-67,-15,37,-119,-69,-145,-70,-112
-107,-68,30,71,-67,-15,37,-119,-69,-145,-70,-112
-107,-62,30,71,-67,-15,37,-119,-63,-145,-70,-112
-107,-56,30,71,-67,-15,37,-113,-57,-139,-70,-112
-107,-56,30,71,-67,-15,37,-101,-45,-133,-64,-112
-107,-50,30,65,-67,-9,37,-89,-33,-115,-46,-106
-95,-38,30,53,-67,-3,37,-77,-21,-91,-22,-88
-83,-20,30,41,-61,2,31,-71,-15,-73,-10,-70
-71,-8,30,23,-49,8,25,-65,-9,-61,1,-46
-53,3,30,11,-37,14,1,-59,-3,-43,13,-34
-23,15,24,-1,-19,14,-28,-53,2,-19,25,-22
0,27,18,-12,-1,14,-58,-53,2,-7,37,-10
24,33,0,-24,22,14,-100,-53,2,4,55,7
48,39,-17,-42,46,14,-136,-53,2,16,73,31
72,45,-35,-54,64,14,-166,-47,2,28,103,55
96,45,-59,-78,94,8,-184,-41,2,58,133,79
126,45,-89,-96,118,2,-208,-35,2,82,157,109
162,51,-113,-120,148,-3,-232,-29,2,100,169,127
192,57,-131,-132,172,-9,-262,-29,2,112,181,145
210,63,-143,-144,190,-15,-292,-29,-3,118,193,157
240,75,-161,-156,214,-21,-322,-35,-9,124,205,169
264,87,-173,-174,226,-27,-352,-41,-15,136,217,193
282,117,-179,-192,238,-27,-400,-47,-15,148,247,217
312,141,-185,-222,268,-27,-460,-59,-21,166,277,259
348,159,-197,-252,280,-27,-508,-83,-27,196,319,301
378,177,-203,-282,298,-21,-550,-95,-27,226,367,343
408,201,-209,-318,310,-15,-574,-101,-21,268,415,397
456,225,-233,-360,346,-15,-586,-101,2,334,463,451
504,243,-251,-390,382,-9,-598,-95,44,394,523,517
534,279,-257,-414,400,-3,-610,-95,74,436,577,571
552,327,-257,-444,412,20,-616,-89,128,496,643,637
582,381,-251,-480,418,50,-616,-71,224,598,739,715
624,447,-239,-522,424,92,-616,-41,326,700,853,817
660,513,-227,-588,430,134,-616,-23,416,820,973,919
720,549,-227,-630,454,152,-622,-11,470,934,1099,1015
816,561,-251,-690,532,152,-700,-11,470,1024,1201,1123
900,561,-365,-732,634,128,-826,-65,404,1078,1285,1213
990,555,-491,-762,748,50,-928,-125,284,1120,1351,1285
1074,525,-611,-774,844,-27,-982,-179,176,1174,1423,1363
1140,507,-695,-798,940,-87,-1060,-251,74,1222,1507,1441
1194,489,-785,-810,1006,-153,-1150,-371,-27,1258,1573,1495
1236,465,-845,-816,1054,-189,-1216,-479,-99,1288,1639,1537
1272,447,-893,-822,1096,-225,-1252,-521,-111,1360,1711,1579
1302,411,-959,-828,1138,-273,-1270,-527,-105,1462,1759,1591
1320,315,-1061,-828,1186,-381,-1270,-491,-63,1558,1789,1591
1332,159,-1229,-792,1276,-519,-1252,-335,14,1624,1789,1567
1344,-20,-1421,-726,1372,-711,-1144,-137,44,1636,1753,1453
1344,-200,-1571,-606,1432,-879,-1018,6,44,1588,1561,1267
1320,-338,-1631,-504,1450,-981,-892,96,8,1390,1327,1057
1236,-416,-1643,-420,1450,-1017,-754,156,-33,1204,1105,853
1134,-452,-1631,-342,1408,-1023,-628,186,-57,1054,925,703
1008,-464,-1541,-276,1288,-1023,-526,210,-63,922,781,571
906,-470,-1421,-216,1174,-987,-430,222,-63,796,661,451
768,-470,-1295,-168,1042,-921,-358,222,-69,646,511,337
582,-470,-1079,-90,832,-795,-256,198,-93,424,331,187
360,-458,-809,-6,592,-633,-142,150,-123,202,145,31
186,-416,-563,41,388,-483,-46,108,-135,46,31,-46
84,-356,-401,71,250,-369,1,66,-135,-31,-22,-76
30,-308,-305,89,178,-297,31,24,-135,-67,-52,-88
0,-266,-239,95,136,-243,43,12,-129,-85,-64,-100
-23,-224,-197,101,106,-207,55,6,-117,-91,-70,-106
-35,-194,-155,101,76,-177,67,6,-105,-97,-76,-112
-53,-170,-125,101,46,-147,79,6,-93,-97,-82,-112
-65,-152,-95,101,22,-123,85,6,-87,-103,-88,-112
-77,-146,-71,101,-1,-105,91,6,-81,-109,-94,-112
-89,-140,-53,101,-13,-93,97,6,-75,-115,-94,-112
-101,-134,-29,101,-25,-81,103,6,-75,-121,-94,-118
-113,-128,-11,101,-37,-69,115,6,-75,-121,-100,-118
-119,-122,0,101,-49,-57,121,6,-69,-127,-106,-124
-125,-116,12,107,-61,-45,127,0,-69,-133,-112,-130
-131,-110,24,107,-67,-39,127,0,-69,-145,-118,-136
-137,-104,30,107,-73,-33,133,0,-69,-151,-124,-136
-143,-98,36,113,-79,-33,133,0,-69,-157,-130,-136
-149,-92,42,113,-85,-27,133,-6,-69,-163,-136,-142
-155,-86,48,113,-91,-21,133,-11,-69,-169,-142,-148
-161,-86,54,113,-97,-21,133,-11,-69,-175,-148,-148
-167,-86,60,113,-103,-15,133,-17,-69,-181,-154,-148
-167,-86,66,113,-109,-9,133,-17,-69,-187,-154,-148
-167,-86,72,113,-109,-3,133,-23,-69,-187,-154,-148
-167,-86,78,113,-115,2,133,-23,-69,-187,-154,-148
-167,-86,78,113,-115,2,133,-23,-69,-187,-154,-154
-167,-86,78,113,-115,2,133,-23,-69,-187,-154,-154
-167,-86,78,113,-115,2,133,-29,-69,-187,-154,-154
-167,-86,78,113,-115,2,133,-29,-69,-187,-154,-154
-167,-86,78,113,-115,2,133,-29,-69,-187,-154,-154
-167,-86,78,113,-121,2,133,-29,-69,-193,-154,-154
-167,-80,78,113,-121,2,133,-29,-69,-193,-154,-154
-167,-74,84,113,-127,2,133,-29,-69,-193,-154,-154
-173,-74,84,113,-127,2,133,-29,-69,-193,-154,-154
-173,-74,84,113,-127,2,133,-29,-69,-193,-154,-154
-179,-68,90,113,-127,2,133,-29,-69,-193,-154,-154
-179,-68,96,119,-127,8,133,-29,-69,-193,-154,-154
-179,-62,102,119,-127,14,133,-29,-69,-193,-154,-154
-179,-62,102,119,-127,20,133,-29,-69,-193,-154,-154
-179,-62,102,119,-133,20,133,-29,-69,-193,-154,-154
-179,-62,108,119,-139,20,133,-29,-63,-193,-160,-154
-179,-62,114,119,-145,26,133,-29,-63,-193,-160,-154
-179,-62,114,119,-145,26,133,-29,-63,-193,-160,-154
-179,-62,114,119,-145,26,133,-29,-63,-193,-166,-154
-185,-62,114,119,-145,32,133,-29,-63,-193,-166,-154
-185,-62,114,119,-145,32,133,-29,-63,-193,-166,-154
-185,-62,114,119,-145,32,133,-29,-63,-193,-166,-154
-185,-56,114,119,-145,32,133,-29,-63,-193,-166,-154
-185,-56,114,119,-145,32,133,-29,-57,-193,-166,-154
-191,-56,114,119,-145,32,133,-29,-57,-193,-166,-154
-191,-56,120,119,-145,32,133,-29,-51,-193,-166,-154
-191,-50,120,119,-145,38,133,-29,-51,-193,-166,-154
-191,-50,120,119,-145,38,133,-29,-45,-193,-166,-154
-191,-50,120,119,-145,38,133,-29,-45,-193,-166,-154
-191,-50,120,119,-145,38,133,-29,-45,-193,-166,-154
-191,-50,126,119,-145,38,133,-29,-39,-193,-166,-154
-191,-50,126,119,-151,38,133,-29,-39,-193,-166,-154
-191,-50,132,119,-151,44,133,-29,-39,-193,-166,-154
-191,-50,132,119,-151,44,133,-29,-39,-193,-166,-154
-191,-50,138,119,-151,50,133,-29,-39,-193,-166,-154
-191,-50,138,119,-151,50,139,-29,-39,-193,-166,-154
-197,-50,144,119,-157,56,145,-29,-33,-187,-166,-154
-197,-50,150,119,-163,56,145,-29,-27,-187,-166,-154
-197,-44,156,119,-169,62,145,-29,-27,-187,-166,-154
-197,-38,162,119,-169,68,145,-29,-27,-187,-166,-154
-197,-38,168,119,-169,68,151,-23,-27,-187,-166,-154
-197,-32,168,119,-175,68,157,-23,-21,-187,-166,-154
-197,-32,174,119,-175,68,157,-17,-15,-187,-166,-154
-203,-32,174,119,-175,74,157,-17,-9,-187,-166,-154
-209,-32,180,119,-181,80,157,-11,-3,-187,-166,-154
-209,-32,180,119,-181,80,157,-6,2,-181,-166,-154
-209,-26,180,119,-187,86,163,0,8,-175,-166,-154
-209,-26,180,119,-193,86,169,6,14,-169,-166,-154
-215,-20,180,119,-199,86,169,12,20,-163,-166,-154
-221,-20,186,119,-199,86,175,18,26,-157,-166,-154
-221,-14,192,119,-199,92,175,24,32,-151,-166,-154
-221,-8,204,119,-199,98,181,30,44,-145,-166,-154
-221,-8,210,119,-205,98,193,36,50,-139,-166,-154
-221,-2,216,119,-211,104,199,42,62,-133,-166,-154
-227,-2,222,119,-217,110,205,54,74,-127,-166,-148
-233,3,228,119,-217,116,211,66,86,-121,-166,-148
-233,9,234,119,-217,122,217,78,98,-115,-160,-148
-233,15,240,119,-223,128,217,90,110,-109,-154,-148
-233,15,246,119,-229,134,223,102,122,-97,-154,-142
-233,15,252,119,-229,140,229,114,134,-85,-154,-142
-233,21,258,119,-229,146,235,126,146,-73,-148,-142
-233,27,264,113,-235,152,241,138,164,-61,-142,-142
-233,33,270,113,-241,158,247,150,188,-49,-136,-136
-233,45,276,107,-247,164,253,162,206,-37,-130,-130
-233,51,282,107,-247,170,259,180,230,-31,-124,-130
-233,57,288,107,-253,176,265,204,248,-19,-124,-130
-233,63,294,107,-253,182,271,216,260,-7,-118,-130
-233,63,294,101,-253,188,277,228,284,4,-112,-124
-233,69,300,95,-253,194,283,252,302,28,-106,-118
-233,75,306,89,-259,200,289,276,320,40,-100,-112
-233,87,312,89,-265,206,295,294,338,58,-88,-106
-233,93,312,89,-265,206,301,306,350,70,-76,-100
-233,99,312,89,-265,206,307,324,380,88,-58,-88
-233,105,312,83,-265,206,313,342,398,106,-46,-76
-233,111,312,77,-265,212,319,360,416,124,-34,-70
-233,117,312,71,-265,218,325,372,440,136,-22,-58
-233,117,312,65,-265,218,331,396,452,166,-10,-52
-227,117,312,65,-265,218,331,414,476,178,1,-46
-221,117,312,59,-265,218,337,426,488,202,7,-40
-221,123,312,53,-265,224,337,444,500,214,13,-28
-221,129,312,47,-265,230,337,462,512,232,25,-22
-221,141,318,47,-265,236,337,474,536,244,37,-10
-215,147,318,41,-259,236,337,486,548,256,49,1
-209,153,318,35,-259,242,343,498,560,268,61,13
-197,159,318,29,-253,242,343,510,584,286,73,25
-191,165,318,23,-253,242,343,522,596,298,79,31
-185,165,318,17,-247,242,343,534,608,310,91,37
-179,165,318,11,-241,242,343,546,620,328,103,49
-173,165,318,5,-235,242,343,552,632,352,115,55
-167,171,312,-1,-229,242,343,564,638,364,127,67
-155,171,306,-6,-223,242,343,576,644,376,139,79
-149,171,294,-6,-217,242,343,582,650,388,151,91
-137,171,282,-6,-211,242,337,588,650,394,163,97
-125,171,276,-12,-199,236,331,594,650,400,169,109
-119,171,270,-18,-187,230,325,594,650,400,175,121
-107,171,264,-24,-181,230,313,594,650,406,181,133
-95,171,252,-30,-169,224,301,588,650,406,187,139
-89,171,240,-30,-157,218,283,582,638,406,193,145
-83,171,228,-30,-145,212,265,570,626,406,199,151
-77,171,216,-36,-139,206,253,552,608,406,199,157
-71,171,210,-36,-133,200,241,522,578,406,199,163
-65,171,198,-42,-127,194,229,498,548,394,199,163
-59,165,192,-42,-121,188,217,468,512,382,199,169
-59,159,186,-42,-115,176,205,438,482,358,199,169
-59,153,180,-42,-109,170,193,408,446,328,199,169
-59,147,174,-42,-103,164,181,378,416,304,193,169
-59,141,168,-42,-97,158,157,342,374,274,181,169
-59,135,162,-42,-97,152,139,324,344,256,169,163
-59,129,156,-42,-97,146,127,294,320,232,157,157
-59,117,144,-36,-97,140,121,270,290,214,139,151
-59,105,132,-30,-91,128,115,240,260,196,127,145
-59,99,126,-24,-85,116,109,228,230,178,121,139
-59,87,120,-18,-85,110,103,204,218,160,109,133
-59,81,114,-12,-85,104,103,180,188,142,97,127
-59,75,108,-6,-85,98,97,150,164,118,85,121
-59,69,102,-1,-85,86,91,138,146,100,73,115
-59,63,102,5,-79,80,79,114,128,82,61,109
-59,57,96,11,-79,74,73,102,110,64,49,103
-59,51,90,11,-79,74,67,90,98,52,37,97
-59,45,84,17,-79,68,61,78,86,40,25,91
-59,39,78,17,-73,62,55,66,68,28,13,85
-59,39,78,17,-73,62,49,54,50,16,1,79
-59,33,72,17,-73,62,43,42,26,4,-10,73
-59,27,66,17,-67,56,43,30,14,-7,-16,67
-59,15,54,23,-61,44,43,24,8,-13,-22,61
-59,3,42,23,-55,32,43,18,2,-25,-28,61
-59,-2,36,29,-55,20,43,12,-3,-37,-34,61
-59,-8,36,29,-55,14,43,6,-9,-43,-40,55
-59,-14,36,35,-55,14,43,0,-15,-49,-46,49
-59,-14,36,41,-55,14,43,-6,-21,-55,-52,43
-59,-14,36,41,-55,14,43,-6,-27,-61,-52,43
-65,-14,36,47,-55,14,43,-6,-33,-61,-52,43
-71,-14,36,47,-55,8,43,-11,-33,-61,-52,43
-71,-14,36,47,-55,8,43,-11,-39,-67,-52,43
-71,-14,36,47,-55,8,43,-11,-45,-67,-52,43
-71,-20,36,47,-55,8,43,-11,-51,-73,-52,43
-71,-20,36,47,-55,8,43,-17,-51,-73,-58,43
-71,-20,36,47,-55,8,43,-17,-57,-79,-64,37
-71,-20,36,47,-55,8,37,-23,-57,-79,-64,37
-71,-20,36,47,-55,8,37,-23,-57,-79,-64,37
-71,-26,36,47,-55,8,37,-23,-57,-79,-70,37
-77,-26,36,47,-55,8,37,-23,-57,-85,-70,37
-77,-26,36,47,-55,8,37,-23,-57,-91,-76,37
-77,-26,36,47,-55,8,37,-23,-57,-91,-76,31
-77,-26,36,47,-55,8,37,-23,-57,-91,-76,31
-77,-26,36,47,-55,8,37,-23,-57,-91,-76,31
-77,-26,36,53,-55,8,37,-23,-57,-91,-76,31
-77,-26,36,53,-55,8,37,-29,-57,-91,-76,31
-77,-26,36,53,-55,8,37,-29,-57,-91,-82,31
-77,-26,36,53,-55,8,37,-29,-57,-91,-82,31
-77,-26,36,53,-55,8,37,-29,-57,-91,-82,31
-77,-26,36,59,-55,8,37,-29,-57,-91,-82,31
-83,-26,36,59,-55,8,37,-29,-57,-91,-82,31
-83,-26,36,59,-55,8,37,-29,-57,-91,-82,31
-83,-26,36,59,-55,8,37,-29,-57,-91,-82,31
-83,-26,36,59,-55,8,37,-29,-57,-91,-82,31
-83,-26,36,59,-55,8,37,-29,-57,-91,-82,31
-83,-26,36,59,-55,8,37,-29,-57,-91,-82,31
-83,-26,36,59,-55,8,31,-29,-57,-91,-82,31
-83,-26,36,59,-55,8,31,-29,-57,-91,-82,31
-83,-26,36,59,-55,8,25,-29,-57,-91,-82,31
-83,-26,36,59,-55,8,25,-29,-57,-91,-82,31
-89,-26,36,59,-55,8,25,-29,-57,-91,-82,31
-89,-26,36,59,-55,8,19,-29,-57,-91,-82,31
-89,-26,36,59,-55,8,19,-29,-57,-91,-82,31
-89,-26,36,59,-55,8,19,-29,-57,-91,-82,31
-89,-26,36,59,-55,8,19,-29,-57,-91,-82,31
-89,-26,36,59,-55,8,19,-29,-57,-91,-82,31
-89,-26,42,59,-55,8,19,-29,-57,-91,-82,31
-89,-26,42,59,-55,8,19,-29,-57,-91,-82,31
-89,-26,42,59,-55,8,19,-29,-57,-91,-82,31
-89,-26,42,59,-55,8,19,-29,-57,-91,-82,31
-89,-26,42,59,-55,8,19,-29,-57,-91,-82,31
-89,-26,42,59,-55,8,13,-29,-57,-91,-82,31
-89,-26,42,59,-55,8,13,-29,-57,-91,-88,31
-89,-26,42,59,-55,8,13,-29,-57,-91,-88,31
-89,-26,42,59,-55,8,13,-29,-57,-91,-88,31
-89,-26,42,59,-55,8,13,-29,-57,-91,-88,31
-89,-26,42,59,-55,8,13,-29,-57,-91,-88,31
-89,-26,42,59,-55,8,13,-29,-57,-97,-94,31
-89,-26,42,59,-55,8,13,-29,-57,-97,-94,31
-89,-26,42,59,-55,8,13,-29,-57,-97,-94,31
-89,-26,42,59,-55,8,13,-29,-57,-97,-94,31
-89,-26,42,59,-55,8,13,-29,-57,-97,-94,31
-89,-26,42,59,-55,8,13,-29,-57,-97,-94,31
-89,-26,42,59,-55,8,13,-29,-57,-97,-94,31
-89,-26,42,59,-55,8,7,-29,-57,-97,-94,31
-89,-26,42,59,-55,8,7,-35,-57,-97,-94,31
-89,-26,42,59,-55,8,7,-35,-57,-103,-94,31
-89,-26,42,59,-55,8,7,-35,-57,-103,-100,31
-89,-26,42,59,-55,8,7,-41,-57,-103,-100,31
-89,-26,42,59,-55,8,7,-41,-57,-103,-106,31
-89,-26,42,59,-55,8,1,-47,-57,-103,-106,31
-83,-26,42,59,-49,8,1,-47,-57,-103,-106,31
-77,-26,42,59,-43,8,1,-47,-57,-109,-106,31
-77,-26,42,59,-43,8,1,-47,-63,-115,-112,25
-77,-26,42,59,-43,8,-5,-47,-63,-121,-112,25
-77,-26,42,53,-43,8,-10,-47,-63,-121,-112,25
-71,-26,36,47,-37,8,-16,-47,-63,-121,-112,25
-65,-26,36,47,-31,8,-22,-47,-63,-121,-112,25
-59,-26,30,47,-31,8,-22,-53,-69,-121,-112,25
-59,-26,24,47,-25,8,-22,-53,-75,-121,-112,25
-59,-26,24,47,-25,8,-22,-53,-75,-121,-112,25
-59,-26,24,47,-25,8,-22,-59,-75,-121,-112,25
-53,-26,18,47,-19,8,-28,-59,-75,-121,-112,25
-53,-26,18,47,-19,8,-28,-59,-75,-121,-118,25
-53,-26,18,47,-19,8,-28,-59,-75,-121,-118,25
-53,-26,12,47,-19,8,-28,-59,-81,-121,-118,25
-47,-26,12,47,-19,8,-28,-59,-81,-121,-124,25
-47,-26,12,47,-13,8,-28,-65,-81,-121,-124,25
-47,-26,12,47,-13,8,-28,-65,-81,-121,-124,25
-47,-26,12,47,-13,8,-28,-65,-81,-121,-124,25
-47,-26,6,47,-13,8,-28,-71,-81,-121,-130,25
-47,-26,6,47,-13,8,-28,-71,-87,-121,-130,25
-47,-26,0,47,-13,8,-28,-71,-87,-121,-130,25
-47,-26,0,47,-13,8,-28,-71,-87,-121,-130,25
-47,-26,0,47,-7,8,-28,-71,-93,-121,-130,25
-47,-26,0,47,-1,2,-28,-71,-93,-121,-136,25
-47,-26,0,47,-1,2,-28,-71,-93,-121,-136,25
-41,-26,0,47,-1,2,-28,-71,-93,-121,-136,19
-41,-26,-6,47,-1,2,-28,-71,-93,-121,-136,19
-41,-26,-11,47,-1,-3,-28,-71,-93,-121,-136,19
-41,-26,-11,47,-1,-3,-28,-71,-93,-121,-136,19
-41,-26,-11,47,-1,-3,-28,-71,-93,-121,-136,19
-41,-26,-11,47,-1,-9,-28,-71,-93,-121,-136,19
-41,-26,-11,47,-1,-9,-28,-71,-93,-121,-136,19
-41,-26,-11,47,-1,-9,-28,-77,-93,-121,-142,19
-41,-26,-11,47,-1,-9,-34,-77,-99,-121,-148,19
-41,-26,-11,47,-1,-9,-34,-83,-99,-127,-148,19
-41,-26,-11,47,-1,-15,-34,-83,-99,-127,-148,19
-41,-26,-11,47,-1,-15,-34,-83,-99,-127,-148,19
-41,-26,-11,47,-1,-15,-34,-83,-105,-133,-148,13
-35,-26,-11,47,-1,-15,-34,-89,-105,-133,-148,7
-35,-26,-11,47,-1,-15,-34,-89,-105,-133,-148,7
-35,-26,-11,47,-1,-15,-34,-89,-105,-133,-148,7
-35,-26,-11,41,-1,-15,-34,-89,-111,-133,-148,7
-35,-26,-17,41,-1,-15,-34,-89,-111,-133,-148,7
-35,-26,-17,41,-1,-15,-34,-89,-111,-133,-148,7
-35,-26,-17,41,-1,-15,-34,-89,-111,-133,-148,7
-35,-26,-17,41,-1,-15,-34,-89,-111,-133,-154,7
-35,-26,-17,41,-1,-15,-34,-89,-111,-133,-154,1
-35,-26,-23,41,-1,-21,-34,-95,-111,-133,-154,1
-35,-26,-23,41,4,-27,-34,-95,-111,-133,-154,1
-35,-26,-23,41,4,-27,-34,-95,-111,-133,-160,1
-35,-26,-29,41,4,-27,-34,-95,-111,-133,-160,1
-35,-26,-29,41,4,-27,-34,-95,-117,-133,-160,1
-29,-26,-29,41,4,-33,-34,-95,-117,-133,-160,-4
-29,-26,-35,41,10,-33,-34,-95,-117,-133,-160,-4
-29,-26,-35,41,10,-33,-34,-95,-117,-133,-166,-4
-23,-26,-35,41,16,-33,-34,-95,-117,-133,-166,-4
-17,-26,-35,41,16,-33,-34,-95,-117,-133,-166,-4
-17,-26,-35,41,16,-33,-34,-95,-117,-133,-166,-4
-17,-26,-41,41,16,-39,-34,-95,-117,-139,-166,-4
-17,-26,-47,41,16,-39,-34,-95,-117,-139,-166,-4
-17,-26,-47,41,22,-39,-34,-95,-117,-139,-166,-4
-17,-26,-47,41,22,-39,-34,-95,-117,-139,-166,-4
-17,-26,-47,41,22,-39,-34,-95,-117,-139,-166,-4
-17,-26,-47,41,22,-39,-34,-95,-117,-139,-172,-4
-17,-26,-47,41,22,-39,-34,-95,-117,-139,-172,-4
-17,-26,-47,41,22,-39,-34,-101,-117,-139,-172,-4
-17,-26,-47,41,22,-39,-34,-101,-117,-139,-172,-4
-11,-26,-47,41,22,-39,-34,-101,-117,-139,-172,-10
-11,-26,-47,41,22,-39,-34,-101,-117,-139,-178,-10
-11,-26,-47,41,22,-39,-34,-101,-117,-139,-178,-10
-11,-26,-47,41,22,-39,-34,-107,-117,-139,-184,-10
-11,-26,-47,41,22,-39,-34,-107,-117,-145,-184,-16
-11,-26,-47,41,22,-39,-34,-107,-117,-145,-184,-16
-11,-26,-47,41,22,-39,-34,-107,-117,-145,-184,-16
-11,-26,-47,41,22,-39,-34,-107,-117,-145,-184,-16
-11,-26,-47,41,22,-39,-34,-107,-123,-145,-184,-16
-11,-26,-47,41,22,-39,-34,-107,-123,-145,-184,-16
-11,-26,-47,41,22,-39,-34,-107,-123,-145,-184,-16
-11,-32,-47,41,22,-39,-40,-107,-123,-145,-190,-16
-11,-32,-47,41,22,-39,-40,-107,-123,-145,-190,-16
-11,-32,-47,41,22,-39,-40,-113,-123,-145,-190,-16
-11,-38,-47,41,28,-39,-40,-113,-129,-145,-196,-16
-11,-38,-47,41,28,-39,-40,-113,-135,-145,-196,-16
-11,-38,-47,41,28,-39,-40,-113,-135,-145,-196,-16
-6,-38,-53,41,34,-45,-40,-113,-135,-145,-196,-16
-6,-38,-53,41,34,-45,-40,-113,-135,-145,-196,-22
-6,-38,-53,41,34,-45,-40,-113,-135,-151,-202,-22
-6,-38,-53,41,34,-45,-40,-113,-135,-151,-202,-22
-6,-38,-53,41,34,-45,-40,-113,-135,-151,-202,-22
-6,-38,-53,41,34,-45,-40,-113,-135,-151,-202,-22
-6,-38,-53,41,34,-45,-40,-113,-135,-151,-202,-22
-6,-38,-53,41,34,-45,-40,-113,-135,-151,-202,-22
-6,-38,-53,41,34,-45,-40,-113,-135,-151,-202,-22
-6,-38,-53,41,34,-45,-40,-113,-135,-151,-202,-22
-6,-38,-53,41,34,-45,-40,-113,-135,-151,-202,-22
0,-32,-53,35,34,-39,-40,-113,-135,-151,-202,-22
0,-26,-53,29,34,-33,-40,-113,-135,-151,-202,-22
6,-20,-47,23,34,-33,-40,-113,-135,-151,-202,-22
6,-14,-47,17,34,-33,-40,-113,-129,-151,-202,-22
6,-8,-41,11,34,-27,-40,-113,-129,-151,-202,-22
12,-2,-35,5,34,-21,-40,-107,-123,-151,-202,-22
12,3,-35,-1,34,-15,-40,-107,-117,-151,-202,-22
12,9,-29,-1,34,-9,-40,-101,-111,-145,-202,-22
12,15,-17,-1,34,-3,-40,-95,-105,-145,-202,-22
12,21,-11,-6,34,8,-34,-89,-99,-139,-196,-22
12,27,-6,-12,34,14,-28,-83,-93,-133,-196,-16
12,33,0,-18,34,20,-28,-83,-87,-127,-196,-10
12,39,6,-18,28,26,-28,-83,-87,-127,-190,-4
12,45,12,-18,22,32,-28,-83,-81,-121,-190,1
18,57,18,-24,22,44,-28,-83,-81,-121,-184,7
18,63,24,-30,22,56,-34,-83,-81,-115,-178,13
18,75,30,-36,22,62,-40,-83,-81,-115,-172,19
24,81,36,-42,22,68,-46,-83,-75,-115,-166,25
24,87,36,-42,22,68,-52,-83,-75,-115,-166,25
24,87,36,-48,22,68,-64,-89,-75,-115,-166,25
30,93,42,-48,22,74,-70,-89,-75,-115,-166,25
36,99,42,-54,22,80,-76,-89,-75,-109,-160,25
36,99,42,-60,22,80,-82,-89,-75,-109,-160,25
36,99,42,-60,22,80,-82,-89,-75,-109,-160,25
42,99,42,-60,22,80,-82,-89,-75,-109,-160,31
42,99,42,-60,22,80,-82,-89,-75,-109,-160,37
48,99,42,-66,22,80,-82,-89,-75,-109,-160,37
48,99,42,-66,22,80,-82,-89,-75,-109,-160,37
48,99,36,-66,22,74,-82,-95,-75,-109,-160,37
48,99,30,-60,28,68,-88,-101,-81,-115,-160,37
48,93,24,-54,28,62,-88,-101,-87,-115,-160,37
48,81,18,-48,34,50,-88,-107,-87,-115,-166,31
48,57,6,-42,40,32,-88,-107,-93,-121,-172,25
48,33,-6,-36,46,14,-88,-107,-105,-127,-178,19
42,21,-17,-30,46,2,-88,-113,-117,-139,-190,7
42,3,-29,-18,46,-9,-88,-119,-129,-151,-214,-4
36,-8,-41,-12,46,-21,-88,-125,-141,-163,-226,-16
30,-20,-53,-1,46,-27,-88,-131,-153,-175,-238,-28
24,-32,-59,11,46,-33,-88,-137,-159,-181,-238,-34
18,-38,-59,17,46,-39,-88,-137,-159,-193,-244,-34
18,-44,-65,17,52,-45,-88,-137,-159,-199,-250,-40
18,-50,-71,23,52,-57,-88,-137,-165,-199,-256,-46
18,-56,-77,29,52,-69,-88,-143,-165,-205,-256,-46
18,-62,-83,29,52,-75,-88,-149,-171,-205,-256,-46
18,-68,-83,35,52,-75,-88,-155,-177,-205,-256,-46
18,-68,-83,35,52,-75,-88,-155,-177,-205,-256,-46
18,-68,-83,35,52,-75,-88,-161,-183,-205,-256,-46
18,-68,-83,35,52,-75,-82,-161,-183,-205,-256,-46
18,-68,-83,35,52,-75,-76,-161,-183,-205,-256,-46
18,-68,-83,35,52,-75,-70,-161,-183,-205,-250,-46
18,-68,-83,35,52,-75,-64,-161,-183,-205,-244,-46
18,-68,-83,35,52,-75,-58,-161,-177,-205,-238,-46
18,-68,-83,35,52,-75,-52,-155,-171,-205,-238,-46
18,-68,-83,35,52,-75,-46,-149,-165,-205,-238,-46
18,-62,-77,35,52,-75,-40,-137,-153,-199,-232,-46
18,-50,-77,29,52,-69,-40,-125,-135,-187,-220,-40
18,-38,-71,17,52,-63,-40,-119,-123,-169,-202,-28
18,-26,-65,11,52,-51,-40,-113,-111,-157,-190,-16
24,-14,-59,-1,52,-39,-46,-113,-105,-139,-172,-4
36,-2,-59,-12,58,-33,-58,-113,-99,-121,-160,7
48,9,-59,-24,64,-21,-76,-113,-99,-115,-142,19
60,33,-59,-36,64,-15,-106,-113,-99,-109,-130,31
78,45,-59,-48,70,-9,-136,-113,-99,-103,-118,55
102,51,-65,-54,88,-9,-178,-113,-99,-91,-88,85
126,57,-77,-66,112,-9,-214,-113,-99,-73,-64,115
144,57,-95,-84,124,-15,-244,-113,-99,-55,-28,145
162,57,-113,-102,148,-21,-262,-113,-99,-25,1,175
192,57,-131,-120,178,-27,-280,-107,-99,4,31,199
210,57,-155,-132,202,-33,-292,-107,-99,22,55,223
240,63,-173,-138,214,-39,-322,-107,-105,34,73,241
270,69,-197,-150,244,-45,-352,-107,-105,46,91,259
288,81,-203,-168,262,-45,-382,-107,-105,58,109,271
312,93,-209,-180,274,-45,-424,-107,-105,70,121,301
330,123,-215,-210,286,-45,-478,-113,-105,82,145,331
360,147,-221,-240,298,-39,-544,-143,-117,94,175,355
390,177,-227,-276,310,-33,-592,-179,-129,106,199,391
420,201,-233,-306,328,-27,-628,-191,-135,136,235,433
462,219,-239,-336,358,-21,-646,-191,-135,202,289,475
498,243,-245,-366,382,-9,-664,-191,-111,274,373,541
534,273,-245,-396,406,2,-676,-191,-69,334,427,595
564,303,-251,-426,424,14,-682,-191,-15,376,475,649
594,351,-251,-462,436,44,-688,-191,62,454,565,721
636,417,-251,-510,442,86,-700,-185,158,568,667,829
672,471,-245,-552,454,110,-706,-179,236,670,793,937
714,501,-245,-594,472,122,-706,-161,320,790,901,1033
780,519,-257,-636,514,122,-706,-137,362,922,1039,1129
858,525,-323,-678,598,110,-730,-131,368,1048,1165,1237
954,525,-437,-720,706,80,-808,-137,356,1162,1297,1351
1032,525,-527,-750,802,32,-898,-161,278,1264,1435,1477
1110,525,-611,-780,874,-15,-940,-185,188,1360,1555,1591
1164,513,-695,-798,952,-69,-976,-227,68,1402,1645,1663
1200,501,-743,-810,994,-111,-1024,-299,-39,1432,1735,1729
1230,495,-785,-816,1018,-135,-1066,-359,-81,1504,1831,1801
1242,477,-827,-822,1048,-177,-1090,-371,-81,1588,1891,1843
1260,411,-929,-822,1096,-255,-1090,-347,-69,1684,1921,1855
1290,267,-1091,-798,1186,-417,-1090,-215,-15,1786,1945,1849
1302,69,-1283,-720,1288,-609,-1042,-53,20,1816,1939,1783
1302,-128,-1457,-618,1372,-795,-910,108,26,1798,1801,1609
1296,-284,-1547,-516,1402,-903,-760,240,26,1648,1573,1405
1230,-374,-1565,-432,1402,-951,-610,324,20,1474,1351,1201
1122,-416,-1565,-348,1378,-969,-502,360,8,1294,1141,1015
1020,-434,-1517,-288,1288,-969,-394,378,2,1138,979,877
924,-440,-1403,-234,1174,-951,-298,384,2,1012,823,739
774,-446,-1265,-162,1024,-891,-220,378,-15,796,613,577
582,-446,-1055,-72,808,-783,-124,300,-69,502,343,343
384,-440,-833,-1,616,-657,-46,216,-117,226,79,121
252,-416,-653,41,460,-537,13,156,-159,28,-88,13
180,-374,-509,59,358,-435,55,108,-189,-85,-160,-46
132,-344,-425,71,292,-381,73,54,-201,-151,-202,-76
102,-314,-383,83,256,-339,79,12,-207,-187,-226,-88
78,-284,-335,89,226,-309,85,-6,-207,-199,-238,-94
66,-254,-305,89,202,-273,91,-11,-201,-205,-244,-100
54,-224,-275,89,190,-243,97,-17,-189,-211,-244,-100
48,-200,-245,89,160,-219,103,-17,-177,-217,-250,-106
36,-176,-215,89,130,-201,103,-23,-171,-223,-262,-112
24,-164,-185,89,106,-171,103,-29,-165,-229,-268,-112
6,-158,-155,89,88,-153,103,-29,-159,-229,-274,-112
-6,-152,-131,89,76,-141,103,-35,-159,-229,-274,-118
-11,-146,-119,89,64,-129,103,-41,-159,-235,-274,-118
-17,-140,-113,89,58,-117,103,-47,-153,-241,-280,-124
-23,-134,-107,89,58,-111,103,-47,-153,-247,-286,-124
-29,-128,-101,89,52,-105,103,-47,-153,-253,-292,-124
-35,-128,-95,89,46,-99,103,-53,-153,-265,-298,-124
-41,-122,-89,89,40,-99,103,-59,-153,-277,-304,-130
-47,-122,-83,89,34,-99,103,-59,-153,-289,-310,-136
-47,-122,-83,89,28,-93,103,-65,-153,-295,-316,-142
-47,-122,-77,89,22,-87,103,-71,-153,-301,-316,-142
-47,-122,-71,89,22,-81,103,-71,-153,-307,-322,-148
-47,-116,-65,89,22,-81,103,-77,-153,-307,-322,-148
-47,-110,-59,89,22,-75,103,-83,-153,-307,-328,-148
-53,-110,-59,89,16,-75,103,-83,-153,-307,-328,-148
-53,-110,-59,89,16,-75,103,-83,-153,-307,-328,-148
-53,-110,-59,89,16,-75,103,-83,-153,-313,-328,-148
-53,-104,-59,89,16,-75,103,-83,-153,-313,-328,-148
-53,-104,-59,89,16,-75,103,-89,-153,-313,-328,-154
-53,-104,-59,89,16,-75,103,-95,-153,-313,-328,-154
-53,-104,-59,89,16,-75,103,-95,-153,-313,-328,-154
-53,-104,-53,89,16,-69,103,-95,-153,-319,-334,-160
-53,-104,-47,89,16,-69,103,-101,-153,-319,-334,-166
-53,-104,-41,89,10,-69,103,-101,-153,-319,-334,-166
-53,-98,-41,89,10,-63,103,-101,-153,-319,-334,-166
-53,-92,-41,89,10,-63,103,-101,-153,-319,-340,-166
-53,-92,-41,89,10,-63,103,-101,-153,-319,-340,-166
-53,-92,-41,89,10,-63,103,-101,-153,-319,-340,-166
-53,-86,-35,89,10,-63,103,-107,-153,-319,-340,-166
-53,-86,-35,89,10,-63,103,-107,-153,-319,-340,-166
-53,-86,-35,89,10,-63,97,-107,-153,-319,-340,-166
-53,-86,-35,89,10,-63,91,-107,-153,-319,-340,-166
-53,-86,-35,89,4,-57,85,-107,-153,-319,-340,-166
-53,-80,-35,89,4,-57,85,-107,-153,-319,-340,-166
-53,-80,-35,89,4,-57,85,-107,-147,-319,-340,-166
-53,-80,-35,89,4,-57,79,-107,-147,-319,-340,-166
-53,-80,-35,89,4,-51,79,-107,-147,-319,-340,-166
-53,-80,-35,89,4,-51,79,-107,-147,-319,-340,-166
-53,-80,-29,89,4,-51,79,-107,-147,-319,-340,-166
-53,-74,-29,89,4,-51,79,-107,-147,-319,-340,-166
-53,-74,-29,89,4,-51,79,-107,-141,-319,-340,-166
-53,-74,-23,89,4,-51,79,-107,-141,-319,-340,-166
-53,-74,-23,89,4,-45,79,-107,-135,-319,-340,-166
-53,-68,-17,89,4,-39,79,-107,-135,-319,-340,-166
-53,-68,-17,89,-1,-39,79,-107,-135,-319,-340,-166
-53,-68,-17,89,-7,-39,79,-107,-135,-319,-340,-166
-53,-62,-17,89,-7,-39,79,-107,-129,-319,-340,-166
-53,-62,-11,83,-7,-33,79,-107,-129,-319,-340,-172
-53,-56,-11,77,-13,-33,79,-107,-123,-319,-340,-172
-53,-56,-11,77,-13,-33,79,-107,-123,-319,-340,-172
-53,-56,-11,77,-13,-27,79,-107,-123,-319,-340,-178
-53,-56,-11,77,-13,-27,79,-107,-117,-319,-340,-178
-53,-56,-6,77,-13,-21,79,-107,-117,-319,-340,-178
-53,-50,6,71,-19,-21,79,-107,-117,-319,-340,-178
-53,-50,12,71,-25,-15,79,-107,-111,-319,-340,-184
-59,-50,18,71,-25,-15,79,-107,-111,-319,-340,-184
-59,-50,18,71,-25,-15,79,-107,-105,-319,-340,-184
-59,-44,24,71,-31,-15,79,-107,-99,-313,-340,-184
-59,-44,24,71,-37,-9,79,-107,-93,-307,-340,-184
-59,-38,24,71,-37,-9,79,-101,-81,-301,-340,-184
-59,-38,30,71,-37,-3,79,-95,-75,-301,-340,-184
-59,-32,36,71,-43,2,79,-95,-69,-301,-340,-184
-59,-32,42,71,-43,8,79,-95,-63,-295,-340,-184
-59,-32,48,71,-43,8,79,-89,-57,-289,-334,-184
-59,-26,48,71,-49,14,79,-89,-51,-289,-334,-184
-65,-20,54,71,-55,20,85,-83,-45,-283,-334,-184
-71,-20,54,71,-55,26,85,-77,-39,-277,-328,-184
-71,-20,54,65,-55,26,91,-71,-27,-271,-322,-184
-71,-20,54,65,-61,26,97,-65,-15,-265,-316,-184
-71,-14,60,65,-67,26,103,-59,-3,-259,-316,-184
-77,-14,66,65,-67,26,109,-53,8,-253,-316,-184
-77,-8,72,65,-67,32,115,-47,20,-247,-316,-184
-77,-2,78,59,-73,38,121,-35,32,-235,-310,-184
-77,9,90,53,-79,50,121,-23,44,-223,-304,-184
-77,15,96,53,-85,62,121,-17,56,-211,-298,-184
-77,21,102,53,-85,68,127,-6,68,-205,-292,-184
-77,27,108,53,-85,74,133,0,86,-193,-286,-184
-77,27,114,47,-85,74,139,12,110,-181,-274,-184
-77,33,120,47,-91,80,145,30,122,-169,-268,-184
-77,33,126,47,-97,80,151,48,152,-157,-256,-184
-77,33,126,47,-97,80,163,78,176,-139,-244,-178
-77,39,132,47,-97,86,169,90,194,-115,-232,-172
-77,45,138,41,-97,92,175,114,212,-103,-226,-172
-77,51,138,35,-103,98,181,126,224,-79,-220,-166
-77,63,144,29,-103,110,187,138,254,-67,-214,-166
-77,75,150,23,-103,116,193,150,266,-55,-202,-166
-77,81,156,17,-103,122,199,162,284,-43,-190,-166
-77,87,156,11,-103,128,205,174,302,-31,-178,-160
-77,87,156,5,-103,128,211,198,326,-7,-166,-148
-77,93,156,-1,-103,134,211,216,356,10,-154,-142
-77,99,156,-6,-103,134,217,234,374,22,-142,-130
-77,99,156,-6,-103,134,217,246,386,40,-130,-118
-77,99,156,-6,-103,134,223,258,404,58,-118,-106
-71,105,156,-12,-103,140,223,276,416,76,-106,-100
-65,111,156,-18,-103,140,229,288,434,94,-100,-94
-65,117,156,-24,-103,140,235,300,446,106,-88,-88
-65,123,156,-30,-103,140,241,306,458,118,-76,-82
-59,129,156,-36,-103,146,241,318,476,130,-64,-76
-53,129,156,-36,-103,146,241,342,494,142,-52,-64
-47,135,156,-42,-103,146,241,354,512,160,-40,-58
-35,141,156,-48,-97,146,241,366,524,178,-28,-46
-29,141,156,-54,-91,146,241,378,536,196,-16,-34
-23,141,156,-60,-85,146,241,390,548,214,-4,-28
-17,147,156,-66,-85,146,241,402,560,238,7,-16
-11,147,150,-66,-79,146,241,408,566,250,13,-4
-6,147,144,-72,-67,146,241,414,572,262,25,1
0,147,138,-78,-61,146,235,414,578,268,37,7
12,147,132,-78,-49,146,229,414,578,274,49,13
24,147,126,-84,-43,146,223,414,578,280,55,19
30,147,120,-84,-37,146,217,414,578,286,61,25
42,147,114,-90,-31,146,205,414,572,286,67,37
54,147,108,-96,-25,146,199,414,566,286,73,43
60,147,102,-96,-19,146,187,408,554,286,79,49
66,147,96,-96,-13,140,175,396,524,286,79,55
66,147,84,-96,-1,128,163,378,494,280,79,61
72,147,72,-96,4,116,145,348,458,268,79,61
72,147,60,-96,16,104,133,324,428,250,79,67
72,147,54,-96,22,98,121,294,398,232,79,67
72,141,48,-96,22,92,109,282,368,202,79,67
72,129,42,-96,22,86,97,252,344,184,73,67
72,123,36,-96,28,80,85,222,314,160,61,67
72,117,30,-96,28,74,79,204,284,136,49,67
72,111,24,-96,28,68,67,180,254,118,37,61
72,105,18,-90,28,62,61,162,218,100,25,49
72,99,12,-84,28,56,49,132,182,76,13,37
72,93,6,-78,34,50,37,108,152,52,1,31
72,87,0,-72,40,44,31,90,128,28,-4,25
72,81,-6,-66,40,38,25,66,104,4,-10,19
72,75,-11,-66,46,32,19,54,92,-13,-22,13
72,63,-17,-66,46,20,13,36,74,-25,-34,1
72,51,-23,-60,46,8,7,24,56,-43,-52,-10
72,39,-29,-54,46,2,1,12,38,-61,-64,-16
72,33,-35,-54,46,-3,-5,0,14,-73,-76,-22
72,27,-41,-54,46,-9,-10,-11,-3,-85,-88,-28
72,21,-47,-48,46,-15,-16,-29,-21,-97,-100,-40
72,15,-47,-42,46,-15,-16,-41,-33,-109,-106,-46
66,15,-47,-36,46,-15,-16,-53,-45,-121,-112,-52
60,9,-53,-30,52,-21,-22,-65,-57,-139,-118,-58
60,3,-59,-30,52,-27,-22,-71,-63,-151,-124,-64
60,-2,-65,-24,52,-33,-22,-77,-69,-157,-124,-70
60,-8,-71,-24,52,-39,-28,-83,-75,-163,-124,-70
60,-14,-77,-24,52,-45,-28,-89,-81,-163,-130,-70
60,-20,-83,-18,52,-51,-28,-95,-87,-169,-136,-70
60,-26,-89,-18,58,-57,-34,-95,-93,-175,-142,-70
60,-32,-89,-12,64,-57,-34,-101,-99,-175,-142,-76
54,-32,-89,-6,64,-57,-40,-107,-99,-175,-142,-82
54,-38,-89,-1,64,-63,-40,-107,-99,-175,-148,-88
54,-38,-89,5,64,-63,-40,-113,-105,-181,-148,-94
48,-38,-89,5,64,-63,-40,-113,-111,-187,-148,-94
42,-38,-89,5,64,-63,-40,-113,-111,-187,-148,-94
42,-44,-89,5,64,-63,-40,-113,-111,-193,-148,-100
42,-50,-89,11,64,-63,-40,-113,-111,-193,-148,-100
42,-50,-89,11,64,-63,-40,-113,-111,-193,-148,-100
42,-56,-89,11,64,-63,-40,-113,-111,-193,-148,-100
42,-56,-89,11,64,-63,-40,-119,-111,-193,-148,-100
36,-56,-89,11,64,-63,-40,-119,-111,-193,-148,-100
36,-56,-89,11,64,-63,-40,-119,-117,-193,-148,-100
30,-56,-89,17,64,-63,-40,-119,-117,-193,-148,-100
30,-56,-89,17,64,-63,-40,-119,-117,-193,-148,-100
24,-56,-89,23,64,-63,-40,-119,-117,-193,-148,-100
24,-56,-89,23,64,-63,-40,-119,-117,-193,-148,-100
24,-56,-89,23,64,-63,-40,-119,-117,-193,-148,-100
24,-56,-89,23,58,-63,-40,-119,-117,-193,-148,-100
18,-56,-89,23,58,-63,-40,-119,-117,-193,-148,-100
12,-62,-89,29,52,-63,-40,-119,-117,-193,-148,-100
12,-62,-89,29,52,-63,-40,-119,-117,-193,-148,-100
12,-62,-89,29,52,-63,-40,-119,-117,-193,-148,-100
12,-62,-83,29,52,-63,-40,-119,-117,-193,-148,-100
12,-62,-83,29,46,-63,-40,-119,-117,-193,-148,-100
6,-62,-77,35,40,-63,-40,-119,-117,-193,-148,-100
0,-62,-77,41,40,-63,-40,-119,-117,-193,-148,-100
0,-62,-71,41,40,-63,-40,-119,-117,-193,-148,-100
0,-62,-71,41,34,-63,-40,-119,-117,-193,-148,-100
-6,-62,-71,41,28,-63,-40,-119,-117,-193,-148,-100
-6,-62,-65,41,28,-63,-40,-119,-117,-193,-148,-100
-6,-62,-59,41,28,-63,-40,-119,-117,-193,-148,-100
-6,-62,-59,41,28,-63,-40,-119,-117,-193,-148,-100
-6,-62,-53,41,28,-57,-40,-119,-117,-193,-142,-100
-6,-62,-53,41,22,-57,-40,-119,-117,-193,-142,-100
-6,-62,-53,41,22,-57,-40,-119,-117,-193,-142,-100
-11,-62,-47,41,22,-57,-40,-119,-117,-193,-142,-100
-11,-62,-47,41,22,-57,-40,-119,-117,-193,-142,-100
-11,-62,-41,41,16,-57,-40,-119,-117,-193,-142,-100
-11,-62,-41,41,16,-57,-40,-119,-117,-193,-142,-100
-17,-62,-41,41,16,-57,-40,-119,-117,-193,-136,-100
-17,-62,-41,41,16,-57,-40,-119,-117,-193,-136,-100
-17,-62,-35,41,16,-57,-40,-119,-117,-193,-136,-100
-23,-62,-35,41,10,-51,-40,-119,-117,-193,-130,-100
-29,-62,-35,41,10,-51,-40,-119,-117,-193,-124,-100
-29,-62,-35,41,10,-51,-40,-119,-117,-193,-124,-100
-29,-62,-35,41,4,-51,-40,-119,-117,-193,-124,-100
-29,-62,-29,41,4,-51,-40,-119,-117,-193,-124,-100
-29,-62,-29,47,4,-51,-40,-119,-117,-187,-124,-100
-29,-62,-23,47,-1,-45,-40,-119,-117,-187,-124,-100
-35,-62,-17,47,-7,-45,-40,-119,-117,-187,-118,-100
-35,-62,-17,47,-13,-45,-40,-119,-117,-187,-118,-100
-35,-62,-11,47,-13,-45,-40,-119,-117,-187,-112,-100
-35,-62,-11,47,-13,-45,-40,-119,-117,-187,-112,-100
-41,-62,-11,47,-13,-39,-40,-119,-117,-187,-112,-100
-47,-62,-11,47,-13,-39,-40,-119,-117,-187,-112,-100
-47,-56,-11,47,-19,-33,-40,-119,-117,-187,-106,-100
-47,-50,-6,47,-19,-33,-40,-119,-117,-187,-106,-100
-47,-50,-6,47,-19,-33,-40,-119,-117,-187,-106,-100
-47,-50,-6,47,-19,-33,-40,-119,-117,-181,-106,-100
-47,-50,0,47,-19,-27,-40,-119,-117,-181,-106,-100
-47,-50,0,47,-25,-27,-40,-119,-117,-181,-106,-100
-47,-44,0,47,-25,-21,-40,-119,-117,-181,-106,-100
-47,-44,0,47,-25,-21,-40,-119,-117,-181,-106,-100
-47,-44,0,47,-25,-21,-40,-119,-117,-175,-106,-100
-47,-44,6,47,-31,-21,-40,-119,-117,-175,-106,-100
-47,-44,12,47,-37,-21,-40,-119,-117,-175,-106,-100
-47,-44,18,47,-37,-21,-40,-119,-117,-175,-106,-100
-47,-44,18,47,-37,-21,-40,-119,-117,-175,-106,-100
-47,-44,18,47,-37,-21,-40,-119,-117,-175,-106,-100
-53,-44,18,47,-37,-15,-40,-119,-117,-175,-106,-100
-53,-44,18,47,-37,-9,-40,-119,-117,-175,-106,-100
-53,-44,18,47,-37,-9,-40,-119,-117,-175,-106,-100
-53,-44,18,47,-37,-9,-40,-119,-117,-175,-106,-100
-53,-44,18,47,-37,-9,-40,-119,-117,-175,-106,-100
-53,-44,18,47,-37,-9,-40,-119,-117,-175,-106,-100
-53,-44,24,47,-43,-9,-40,-119,-117,-169,-106,-100
-53,-44,24,47,-43,-9,-40,-119,-117,-169,-106,-100
-59,-44,24,47,-43,-9,-40,-119,-117,-169,-106,-100
-59,-44,24,47,-43,-9,-40,-119,-117,-169,-106,-100
-59,-44,24,47,-43,-9,-40,-119,-117,-163,-106,-100
-59,-44,24,47,-43,-9,-40,-119,-117,-163,-106,-100
-59,-44,24,47,-43,-9,-40,-119,-117,-163,-106,-100
-65,-44,24,47,-43,-9,-40,-119,-117,-163,-106,-100
-65,-44,24,47,-43,-9,-40,-119,-117,-163,-106,-100
-71,-44,24,47,-49,-9,-40,-119,-117,-163,-106,-100
-71,-44,24,47,-49,-9,-40,-119,-117,-163,-106,-100
-71,-44,24,47,-49,-9,-40,-119,-117,-163,-106,-100
-71,-44,24,47,-49,-3,-40,-119,-117,-163,-106,-100
-71,-44,30,47,-49,-3,-40,-119,-117,-163,-106,-100
-71,-44,30,47,-49,-3,-40,-119,-117,-163,-106,-100
-71,-44,30,47,-49,-3,-40,-119,-117,-163,-106,-94
-71,-44,30,47,-49,-3,-40,-119,-117,-163,-106,-94
-71,-44,30,47,-49,2,-40,-119,-117,-163,-106,-94
-71,-44,30,47,-49,8,-40,-119,-117,-157,-106,-94
-71,-44,30,53,-49,8,-40,-119,-117,-157,-106,-94
-71,-44,30,53,-49,8,-40,-119,-117,-157,-106,-94
-71,-44,30,53,-49,8,-40,-119,-117,-157,-106,-94
-71,-44,30,53,-49,8,-40,-119,-117,-157,-106,-94
-71,-44,30,53,-49,8,-40,-119,-117,-157,-106,-94
-77,-44,30,53,-49,8,-40,-119,-117,-157,-106,-94
-77,-44,30,53,-55,8,-40,-119,-117,-157,-106,-94
-77,-44,30,53,-55,8,-40,-119,-117,-157,-106,-94
-77,-44,30,53,-55,8,-40,-119,-117,-157,-106,-94
-77,-44,30,53,-55,8,-40,-119,-117,-157,-106,-94
-77,-44,30,53,-55,8,-40,-119,-117,-169,-106,-94
-77,-44,30,53,-55,8,-40,-119,-117,-181,-106,-94
-77,-44,30,53,-55,8,-40,-119,-117,-193,-106,-94
-77,-44,30,53,-55,8,-40,-119,-117,-199,-106,-94
-77,-44,30,53,-55,8,-40,-119,-117,-205,-106,-94
-77,-44,30,53,-55,8,-40,-125,-117,-205,-106,-94
-77,-44,30,53,-49,2,-40,-125,-117,-205,-106,-94
-77,-44,30,53,-49,2,-40,-125,-117,-205,-106,-94
-77,-44,24,53,-43,2,-40,-125,-117,-211,-106,-94
-77,-44,24,53,-43,-3,-40,-125,-117,-211,-106,-94
-77,-44,24,53,-43,-3,-40,-125,-117,-211,-106,-94
-77,-44,24,53,-43,-3,-40,-125,-117,-211,-106,-100
-77,-44,24,53,-43,-3,-40,-125,-117,-211,-106,-100
-77,-44,24,53,-43,-3,-40,-125,-117,-211,-106,-100
-71,-44,24,53,-43,-3,-40,-125,-117,-217,-106,-100
-71,-44,24,53,-43,-3,-40,-125,-117,-217,-106,-100
-71,-44,24,53,-43,-3,-40,-125,-123,-217,-106,-100
-71,-44,18,53,-43,-3,-40,-125,-123,-217,-106,-100
-71,-44,18,53,-43,-3,-40,-125,-123,-217,-106,-100
-71,-44,18,53,-43,-3,-40,-125,-123,-217,-106,-100
-71,-44,18,53,-37,-3,-40,-125,-123,-217,-106,-100
-71,-44,18,53,-37,-3,-40,-131,-123,-217,-106,-100
-71,-44,12,53,-37,-9,-40,-131,-123,-217,-106,-100
-71,-44,12,53,-37,-9,-40,-131,-123,-223,-106,-100
-71,-44,12,53,-37,-9,-40,-131,-123,-223,-106,-100
-71,-44,6,53,-37,-9,-40,-131,-123,-223,-106,-100
-71,-44,6,53,-37,-9,-40,-137,-129,-223,-106,-100
-71,-44,6,53,-37,-9,-40,-137,-129,-223,-106,-100
-71,-44,6,53,-37,-15,-40,-137,-129,-223,-106,-100
-71,-44,0,53,-37,-15,-40,-137,-129,-223,-106,-106
-71,-44,0,53,-37,-15,-40,-137,-129,-223,-106,-106
-71,-44,0,53,-37,-15,-40,-137,-129,-223,-106,-112
-71,-44,0,53,-37,-15,-40,-137,-129,-223,-106,-112
-71,-44,0,53,-37,-15,-46,-137,-129,-223,-106,-112
-71,-44,0,53,-37,-15,-46,-137,-129,-223,-106,-112
-71,-44,0,53,-37,-15,-46,-143,-129,-223,-106,-112
-71,-44,0,53,-31,-21,-46,-143,-129,-223,-106,-112
-71,-44,0,53,-31,-21,-46,-143,-129,-223,-106,-112
-71,-44,0,53,-31,-21,-46,-143,-129,-223,-106,-112
-71,-44,0,53,-31,-21,-46,-149,-129,-223,-106,-112
-71,-44,0,53,-31,-21,-46,-149,-129,-223,-106,-112
-65,-44,0,53,-31,-21,-46,-149,-129,-223,-112,-112
-65,-44,0,53,-31,-21,-46,-149,-129,-223,-118,-112
-65,-44,0,53,-31,-21,-46,-149,-129,-223,-118,-112
-65,-44,0,53,-31,-21,-46,-149,-129,-223,-118,-118
-65,-44,0,53,-31,-21,-46,-149,-129,-223,-118,-124
-65,-44,0,53,-31,-21,-46,-149,-129,-223,-118,-124
-65,-44,0,53,-31,-21,-46,-149,-129,-223,-118,-124
-65,-44,0,53,-31,-21,-46,-149,-129,-223,-118,-124
-59,-44,0,47,-31,-21,-46,-149,-129,-223,-118,-124
-53,-44,0,41,-31,-21,-46,-149,-129,-223,-118,-124
-53,-38,0,35,-31,-21,-46,-149,-129,-223,-118,-124
-53,-32,0,29,-31,-15,-46,-149,-129,-223,-118,-124
-53,-26,6,29,-31,-9,-46,-149,-129,-217,-118,-124
-53,-14,12,29,-31,-3,-46,-149,-123,-217,-118,-124
-53,-2,18,23,-31,2,-46,-143,-117,-211,-118,-124
-47,3,24,17,-31,14,-46,-143,-111,-205,-118,-118
-47,9,30,17,-31,20,-46,-137,-105,-205,-112,-118
-47,9,36,17,-37,26,-40,-131,-99,-199,-106,-118
-47,15,42,17,-43,32,-34,-125,-93,-193,-100,-112
-47,21,54,11,-49,44,-28,-119,-87,-193,-100,-106
-47,27,60,5,-55,50,-22,-113,-81,-187,-100,-100
-47,39,72,-1,-61,56,-22,-107,-75,-181,-94,-94
-47,51,84,-6,-67,68,-22,-107,-75,-181,-88,-88
-47,57,96,-6,-73,74,-22,-107,-75,-175,-88,-82
-47,63,102,-6,-79,80,-28,-107,-75,-169,-82,-76
-47,75,108,-6,-79,92,-34,-107,-69,-163,-76,-70
-47,81,114,-12,-79,98,-40,-107,-63,-157,-70,-64
-47,87,120,-12,-79,104,-46,-107,-63,-157,-64,-58
-47,87,120,-12,-79,110,-46,-107,-63,-157,-64,-52
-47,93,126,-18,-79,116,-46,-107,-63,-157,-58,-52
-47,99,132,-24,-85,116,-46,-107,-63,-157,-52,-52
-47,99,132,-24,-85,116,-46,-107,-63,-157,-52,-52
-47,99,132,-24,-85,116,-46,-107,-63,-157,-52,-52
-47,99,132,-24,-85,116,-46,-107,-63,-157,-52,-52
-47,99,132,-24,-85,116,-46,-107,-63,-151,-52,-52
-47,99,132,-24,-85,116,-46,-107,-63,-151,-52,-52
-47,99,132,-24,-85,116,-46,-107,-63,-151,-52,-52
-47,99,132,-24,-85,116,-46,-107,-63,-151,-52,-52
-47,99,126,-24,-85,110,-46,-113,-63,-151,-52,-52
-47,93,120,-24,-85,110,-46,-113,-63,-151,-52,-52
-47,81,114,-24,-85,98,-46,-113,-63,-151,-52,-52
-47,63,96,-18,-79,86,-46,-119,-75,-157,-58,-52
-47,39,72,-12,-67,62,-52,-125,-81,-163,-64,-58
-47,21,54,-6,-61,44,-52,-131,-87,-169,-70,-64
-53,-2,48,5,-55,32,-52,-131,-93,-175,-82,-76
-59,-14,42,17,-49,20,-52,-137,-99,-187,-94,-88
-65,-26,36,29,-49,14,-52,-143,-111,-199,-100,-94
-65,-32,30,35,-49,8,-52,-143,-117,-205,-112,-100
-71,-38,24,41,-49,2,-52,-149,-123,-211,-124,-106
-71,-44,24,47,-49,-3,-52,-149,-129,-217,-130,-112
-71,-50,18,53,-49,-9,-52,-149,-129,-223,-136,-118
-77,-56,12,59,-49,-15,-52,-155,-135,-223,-136,-118
-77,-62,6,59,-49,-21,-52,-155,-141,-229,-142,-124
-77,-68,6,59,-49,-27,-52,-155,-147,-229,-142,-124
-83,-74,6,59,-49,-27,-52,-155,-147,-229,-142,-124
-83,-74,6,59,-49,-33,-52,-155,-147,-229,-142,-124
-83,-74,6,59,-49,-33,-52,-155,-147,-229,-142,-124
-83,-74,6,59,-49,-33,-52,-155,-147,-229,-142,-124
-83,-74,6,59,-49,-33,-52,-155,-147,-229,-142,-124
-83,-74,6,59,-49,-33,-52,-155,-147,-229,-142,-124
-83,-74,6,59,-49,-33,-52,-155,-147,-229,-142,-124
-83,-74,6,59,-49,-33,-52,-155,-141,-229,-142,-124
-83,-68,6,59,-49,-33,-52,-155,-129,-223,-142,-124
-83,-62,6,59,-49,-33,-52,-149,-117,-217,-142,-124
-77,-56,6,53,-49,-27,-58,-137,-99,-205,-136,-118
-71,-44,6,47,-49,-21,-64,-131,-87,-193,-124,-112
-65,-32,12,35,-49,-9,-70,-125,-75,-181,-106,-100
-53,-20,12,23,-49,-3,-76,-119,-69,-157,-82,-82
-41,-8,12,11,-43,2,-88,-113,-63,-133,-58,-58
-11,3,12,-1,-31,2,-118,-107,-57,-121,-40,-40
6,15,12,-12,-19,8,-148,-107,-57,-109,-28,-28
18,21,6,-18,-7,8,-190,-107,-57,-97,-16,-16
36,33,-6,-30,4,8,-232,-107,-57,-85,-10,1
60,39,-17,-48,34,8,-268,-101,-57,-73,7,25
78,45,-47,-66,58,2,-298,-95,-57,-55,31,49
108,51,-71,-84,82,2,-316,-83,-57,-25,61,73
138,51,-89,-102,112,-3,-340,-71,-57,4,91,103
168,51,-119,-114,142,-9,-364,-65,-57,22,115,127
186,57,-137,-132,160,-15,-388,-65,-57,34,133,139
222,63,-149,-144,184,-21,-418,-65,-57,46,151,157
252,69,-161,-156,208,-27,-460,-65,-57,58,175,181
264,81,-173,-174,220,-27,-502,-71,-57,70,199,211
288,105,-179,-198,226,-27,-550,-77,-57,94,211,241
306,135,-185,-228,238,-21,-616,-89,-57,118,241,283
342,165,-191,-264,250,-15,-664,-107,-57,142,277,313
372,189,-197,-294,274,-9,-700,-113,-57,184,319,355
402,213,-203,-330,304,-3,-724,-113,-33,244,391,403
456,243,-209,-360,328,2,-736,-113,8,310,451,469
498,273,-215,-396,346,14,-748,-113,50,376,517,529
528,309,-215,-426,358,26,-754,-113,104,442,583,583
558,351,-209,-450,370,56,-760,-107,188,526,661,649
582,405,-197,-492,376,98,-760,-107,278,622,769,751
612,465,-185,-540,382,146,-760,-101,350,730,865,841
654,519,-185,-594,394,170,-760,-89,422,850,979,955
726,543,-197,-642,448,170,-784,-77,458,976,1111,1057
810,549,-269,-684,532,158,-880,-77,458,1066,1225,1153
894,549,-389,-714,646,98,-976,-89,410,1150,1327,1249
984,537,-485,-738,736,26,-1030,-107,320,1252,1435,1357
1062,525,-575,-768,826,-15,-1078,-125,254,1360,1555,1453
1128,513,-665,-780,892,-69,-1138,-173,164,1426,1651,1537
1170,501,-713,-792,940,-105,-1210,-251,68,1468,1741,1603
1194,495,-743,-804,964,-117,-1258,-305,38,1558,1837,1669
1206,483,-773,-816,982,-141,-1276,-305,38,1666,1897,1699
1224,429,-869,-816,1036,-219,-1276,-281,68,1768,1939,1705
1242,291,-1019,-804,1126,-357,-1270,-143,164,1876,1969,1705
1254,117,-1211,-750,1228,-543,-1210,36,230,1930,1969,1663
1260,-86,-1385,-648,1306,-735,-1066,210,236,1930,1855,1507
1254,-254,-1487,-540,1342,-873,-916,324,230,1798,1627,1303
1200,-368,-1523,-438,1342,-945,-784,390,194,1600,1393,1087
1116,-422,-1523,-348,1330,-963,-658,420,158,1414,1183,895
1002,-440,-1493,-276,1240,-963,-544,432,140,1252,1015,763
888,-452,-1391,-216,1138,-945,-454,432,128,1108,865,631
756,-452,-1253,-156,1000,-885,-382,420,98,904,685,481
558,-452,-1043,-78,796,-777,-304,342,32,622,433,277
348,-446,-809,-6,580,-639,-208,252,-39,328,175,73
210,-416,-593,41,394,-507,-130,180,-81,106,1,-34
114,-362,-443,65,280,-393,-88,102,-117,-19,-64,-82
66,-314,-353,77,208,-333,-64,42,-135,-103,-106,-106
36,-284,-299,89,166,-291,-52,12,-147,-133,-124,-118
24,-254,-257,89,142,-255,-46,0,-147,-139,-130,-124
12,-224,-215,89,112,-225,-40,-6,-147,-145,-130,-124
-6,-200,-179,89,94,-189,-34,-6,-141,-151,-136,-130
-17,-182,-149,89,64,-159,-28,-6,-135,-157,-142,-136
-35,-170,-125,89,46,-141,-28,-6,-129,-163,-154,-142
-47,-158,-113,89,34,-129,-28,-6,-129,-175,-166,-148
-53,-152,-95,89,22,-117,-22,-11,-129,-187,-178,-154
-65,-140,-77,89,10,-105,-16,-17,-129,-199,-184,-154
-71,-128,-59,89,-1,-93,-16,-23,-129,-205,-190,-160
-77,-122,-41,89,-13,-81,-10,-29,-129,-211,-196,-166
-77,-116,-35,89,-19,-75,-5,-35,-129,-217,-202,-172
-83,-116,-29,89,-25,-69,-5,-41,-129,-229,-208,-178
-89,-116,-23,89,-31,-63,1,-47,-129,-241,-214,-178
-95,-116,-17,89,-37,-57,1,-47,-129,-247,-220,-184
-101,-116,-11,89,-43,-57,1,-47,-129,-253,-220,-190
-107,-116,-11,95,-43,-51,1,-53,-129,-259,-220,-190
-113,-116,-6,95,-49,-51,1,-53,-129,-259,-220,-190
-119,-116,0,95,-55,-51,1,-59,-129,-259,-226,-190
-119,-110,6,95,-61,-45,1,-59,-129,-265,-232,-190
-119,-104,12,95,-61,-45,1,-59,-129,-265,-232,-190
-119,-104,18,95,-61,-39,1,-59,-129,-265,-232,-190
-119,-98,18,95,-61,-39,1,-59,-129,-271,-232,-190
-119,-98,18,95,-61,-39,1,-59,-129,-271,-232,-196
-119,-98,18,95,-61,-39,1,-59,-129,-271,-238,-196
-119,-92,24,95,-61,-33,1,-59,-129,-271,-238,-196
-119,-92,24,95,-61,-33,1,-65,-129,-271,-238,-196
-119,-92,24,95,-61,-33,1,-71,-129,-271,-238,-196
-119,-92,24,95,-61,-33,7,-71,-129,-271,-244,-196
-119,-92,30,95,-61,-33,7,-71,-129,-271,-250,-196
-119,-92,30,95,-61,-33,7,-71,-129,-271,-256,-202
-119,-92,30,95,-61,-27,13,-71,-129,-271,-256,-208
-119,-86,36,95,-67,-27,13,-71,-129,-271,-256,-208
-119,-80,36,95,-73,-27,13,-71,-129,-271,-256,-208
-119,-80,36,95,-73,-27,13,-71,-129,-271,-256,-208
-119,-80,36,95,-73,-27,13,-71,-129,-271,-256,-208
-125,-80,36,95,-73,-27,13,-71,-129,-271,-256,-208
-125,-80,36,95,-79,-27,13,-71,-129,-271,-256,-208
-125,-80,42,95,-79,-21,13,-71,-129,-271,-256,-208
-125,-80,48,95,-79,-21,13,-71,-129,-271,-256,-208
-125,-74,48,95,-79,-21,13,-71,-129,-271,-256,-208
-125,-74,48,95,-79,-15,13,-71,-129,-271,-256,-208
-125,-74,48,95,-79,-15,13,-71,-129,-271,-256,-208
-125,-68,54,95,-85,-9,19,-71,-129,-271,-256,-208
-125,-62,54,95,-85,-3,19,-71,-129,-271,-256,-208
-125,-62,54,95,-91,-3,19,-71,-129,-271,-256,-208
-125,-62,54,95,-91,-3,19,-71,-129,-265,-256,-208
-125,-56,54,95,-91,2,25,-71,-129,-265,-256,-208
-131,-50,60,95,-97,8,25,-71,-129,-265,-256,-208
-131,-50,66,95,-97,14,25,-71,-129,-265,-256,-208
-131,-50,72,95,-97,14,25,-71,-129,-265,-256,-208
-131,-50,78,95,-97,14,25,-71,-123,-259,-256,-208
-137,-50,78,95,-97,14,25,-71,-123,-253,-256,-208
-137,-50,78,95,-103,14,31,-71,-123,-247,-256,-208
-137,-50,78,95,-103,14,31,-71,-117,-247,-256,-208
-137,-50,78,95,-103,14,31,-71,-117,-247,-256,-208
-137,-50,78,95,-109,14,37,-71,-111,-241,-256,-208
-143,-50,84,95,-109,14,37,-71,-111,-235,-256,-208
-143,-50,84,95,-109,14,37,-71,-105,-235,-256,-208
-143,-50,84,95,-109,20,37,-71,-99,-235,-256,-208
-143,-50,84,95,-109,20,43,-71,-93,-235,-256,-208
-143,-50,90,95,-115,26,49,-71,-87,-235,-256,-208
-143,-44,96,95,-115,26,49,-71,-81,-235,-256,-208
-143,-44,96,95,-121,32,49,-71,-75,-235,-256,-208
-143,-38,102,95,-121,38,49,-65,-69,-235,-256,-208
-143,-32,108,95,-121,38,49,-59,-69,-235,-256,-208
-143,-32,114,95,-127,44,55,-53,-63,-229,-256,-208
-143,-32,120,95,-127,44,61,-47,-63,-223,-256,-208
-143,-32,120,89,-127,50,67,-47,-57,-223,-256,-208
-143,-26,120,89,-133,50,73,-47,-51,-217,-256,-208
-143,-26,126,89,-139,56,79,-47,-39,-211,-256,-208
-149,-26,126,89,-145,56,85,-41,-27,-211,-250,-208
-155,-20,132,89,-145,62,85,-35,-21,-205,-250,-208
-161,-14,138,89,-151,68,91,-29,-15,-199,-244,-208
-167,-8,144,89,-157,74,97,-23,-9,-193,-244,-208
-167,-8,150,89,-163,74,103,-11,2,-187,-238,-208
-167,-8,156,89,-163,74,109,0,14,-181,-238,-208
-167,-2,162,89,-163,80,115,12,26,-169,-238,-208
-173,3,168,89,-169,92,121,24,38,-163,-232,-208
-173,9,174,89,-175,98,127,30,50,-157,-232,-208
-173,15,180,89,-181,104,139,36,62,-145,-232,-208
-173,21,186,83,-181,104,151,48,80,-139,-232,-208
-173,21,192,83,-181,110,163,60,98,-127,-226,-208
-173,27,198,83,-187,116,175,72,110,-115,-214,-208
-173,33,204,77,-193,122,187,84,128,-103,-202,-208
-179,39,210,77,-193,128,199,108,146,-91,-196,-202
-179,39,216,71,-193,134,211,126,170,-73,-184,-196
-179,45,222,71,-199,140,223,144,194,-49,-178,-190
-179,51,228,71,-205,146,235,174,212,-31,-172,-184
-179,57,234,65,-205,146,247,186,242,-7,-166,-184
-179,63,240,59,-211,152,259,198,254,10,-160,-184
-179,69,240,59,-211,158,271,210,284,22,-148,-178
-179,75,246,53,-211,164,277,234,296,34,-136,-172
-179,81,252,53,-211,170,283,246,320,46,-124,-166
-179,87,252,47,-211,170,295,264,344,64,-112,-160
-179,93,252,41,-211,170,301,294,356,76,-100,-154
-179,99,252,35,-211,176,307,306,380,94,-88,-148
-179,105,252,29,-211,182,313,324,398,118,-76,-136
-179,111,252,29,-211,188,319,342,416,136,-64,-124
-173,111,252,23,-211,188,325,360,446,166,-52,-112
-167,117,252,17,-211,188,331,372,458,184,-40,-100
-167,123,252,11,-211,188,331,384,476,208,-28,-94
-161,129,252,5,-211,194,337,402,488,220,-16,-88
-155,135,252,-1,-211,200,343,414,506,232,-4,-82
-149,135,252,-1,-211,200,343,426,518,244,13,-76
-143,141,252,-6,-211,200,343,444,536,256,25,-64
-137,141,252,-12,-205,200,349,456,554,274,43,-52
-131,141,252,-18,-199,200,355,480,566,304,55,-40
-125,147,252,-24,-193,200,355,498,590,322,67,-28
-119,147,252,-30,-187,200,355,504,602,340,79,-22
-113,147,246,-36,-181,200,355,510,614,352,91,-10
-107,153,246,-42,-175,200,355,516,626,376,103,1
-101,159,240,-48,-169,200,355,528,632,388,115,7
-95,165,234,-48,-163,200,355,534,638,394,127,19
-83,165,228,-54,-157,200,355,534,638,400,139,25
-71,165,222,-60,-145,200,349,534,638,406,145,37
-59,165,210,-66,-133,194,343,534,638,412,157,49
-47,165,198,-66,-121,194,331,534,632,412,163,61
-41,165,186,-66,-109,188,319,534,620,412,169,67
-35,165,174,-66,-97,182,307,528,608,412,175,73
-29,165,162,-66,-91,176,295,510,584,412,175,79
-23,165,150,-72,-85,170,271,486,554,406,175,85
-23,165,144,-72,-79,164,259,462,524,400,175,85
-17,159,138,-72,-73,158,241,432,494,388,175,85
-17,153,132,-72,-73,152,229,408,458,370,175,85
-17,147,126,-72,-73,140,217,384,428,352,175,85
-17,141,114,-72,-67,134,205,360,398,322,175,85
-17,129,102,-72,-61,122,193,330,368,298,169,85
-17,117,90,-72,-55,116,181,300,332,268,157,85
-17,111,84,-66,-49,110,163,270,296,244,145,85
-17,99,78,-60,-49,104,151,246,266,220,133,79
-17,93,72,-60,-49,98,133,216,236,196,115,73
-17,87,66,-54,-49,92,121,198,206,172,103,67
-17,81,60,-48,-49,80,115,168,176,148,91,61
-17,75,54,-42,-43,74,109,156,152,124,79,55
-17,69,48,-36,-43,62,103,138,134,112,67,49
-17,57,42,-36,-43,56,97,120,110,94,55,37
-17,45,36,-30,-43,50,91,108,86,82,43,31
-17,33,30,-24,-43,44,85,90,74,70,31,25
-17,27,24,-18,-43,38,85,78,62,52,19,19
-17,21,18,-12,-37,26,79,60,44,34,7,7
-23,15,18,-6,-37,20,73,48,26,22,-4,1
-23,9,12,-1,-37,14,67,36,14,10,-10,-4
-23,3,12,5,-37,8,61,24,2,-1,-16,-10
-29,-2,6,5,-31,8,55,18,-9,-13,-22,-16
-29,-8,6,5,-25,2,55,12,-15,-19,-28,-22
-29,-14,0,5,-25,-3,55,6,-21,-25,-34,-28
-29,-26,-6,11,-25,-9,55,0,-27,-31,-40,-34
-29,-32,-11,17,-25,-15,55,-6,-39,-37,-46,-34
-29,-38,-11,17,-25,-21,55,-11,-45,-43,-52,-40
-29,-44,-17,17,-25,-21,55,-17,-51,-49,-58,-40
-29,-44,-17,17,-25,-21,55,-23,-57,-55,-64,-46
-35,-50,-17,23,-25,-21,49,-29,-63,-61,-64,-52
-35,-50,-17,29,-25,-21,49,-29,-69,-67,-64,-52
-35,-50,-17,29,-25,-21,49,-29,-69,-73,-64,-52
-35,-50,-17,29,-25,-21,49,-35,-75,-79,-70,-58
-35,-50,-23,29,-25,-27,49,-35,-75,-85,-70,-58
-35,-50,-29,29,-19,-33,49,-35,-75,-85,-70,-58
-35,-50,-29,35,-19,-33,49,-41,-81,-85,-70,-58
-35,-50,-29,35,-19,-33,49,-41,-81,-85,-70,-58
-35,-56,-35,35,-19,-33,49,-41,-81,-85,-70,-58
-35,-56,-41,41,-19,-33,49,-41,-81,-85,-70,-58
-41,-62,-41,47,-19,-33,49,-41,-81,-85,-70,-58
-41,-62,-41,47,-19,-39,43,-41,-81,-85,-76,-58
-41,-62,-41,47,-19,-39,43,-41,-81,-85,-76,-58
-41,-62,-41,47,-19,-39,43,-41,-81,-85,-76,-58
-41,-62,-41,47,-19,-39,43,-41,-81,-85,-76,-58
-41,-68,-41,47,-19,-39,43,-41,-81,-85,-76,-58
-41,-68,-41,47,-19,-39,43,-41,-81,-85,-76,-58
-41,-68,-41,47,-19,-45,43,-41,-87,-85,-76,-58
-41,-68,-41,47,-19,-45,43,-41,-87,-85,-76,-58
-41,-68,-41,47,-19,-45,43,-41,-87,-85,-76,-58
-41,-68,-41,47,-19,-45,43,-41,-87,-91,-76,-58
-41,-68,-41,47,-19,-45,37,-41,-87,-91,-76,-64
-41,-68,-41,47,-19,-45,37,-41,-93,-91,-76,-64
-41,-68,-41,47,-19,-45,37,-41,-93,-91,-76,-64
-41,-68,-41,47,-19,-45,37,-41,-93,-91,-76,-64
-41,-68,-41,47,-19,-45,37,-41,-93,-91,-76,-64
-41,-68,-41,47,-19,-45,37,-41,-93,-91,-76,-64
-41,-68,-41,47,-19,-45,37,-41,-93,-91,-76,-64
-41,-68,-41,47,-19,-45,31,-41,-93,-91,-76,-64
-47,-68,-41,47,-19,-45,31,-41,-93,-91,-76,-64
-47,-68,-41,47,-19,-45,31,-41,-93,-91,-76,-64
-47,-68,-41,47,-19,-45,31,-41,-93,-91,-76,-64
-47,-68,-41,47,-19,-45,31,-41,-93,-91,-76,-64
-47,-68,-41,47,-19,-45,31,-41,-93,-91,-76,-64
-47,-68,-41,47,-19,-45,31,-41,-93,-91,-76,-64
-47,-68,-41,47,-19,-45,31,-41,-93,-91,-76,-64
-47,-68,-41,47,-19,-45,31,-41,-93,-91,-76,-64
-47,-68,-41,47,-19,-45,31,-41,-93,-91,-76,-64
-47,-68,-41,47,-19,-45,31,-41,-93,-91,-76,-64
-47,-62,-35,47,-19,-45,31,-41,-93,-91,-82,-64
-47,-62,-35,47,-19,-45,31,-41,-93,-91,-82,-64
-47,-62,-35,47,-19,-45,31,-41,-93,-91,-82,-64
-47,-62,-35,47,-19,-45,31,-41,-93,-91,-82,-64
-47,-62,-35,47,-19,-45,31,-41,-93,-91,-82,-64
-47,-62,-35,47,-19,-39,31,-41,-93,-91,-82,-64
-47,-62,-35,47,-19,-39,31,-41,-93,-91,-82,-64
-47,-62,-35,47,-19,-39,31,-41,-93,-91,-82,-64
-47,-62,-35,47,-19,-39,31,-41,-93,-91,-82,-64
-47,-62,-29,47,-19,-39,31,-41,-93,-91,-82,-64
-47,-62,-23,47,-19,-33,31,-41,-93,-91,-82,-64
-47,-62,-23,47,-19,-33,31,-41,-93,-91,-82,-64
-47,-62,-23,47,-19,-33,31,-41,-93,-91,-82,-64
-47,-62,-17,47,-19,-33,31,-41,-93,-91,-82,-64
-47,-62,-11,47,-19,-33,31,-41,-93,-91,-82,-64
-47,-62,-11,47,-19,-27,31,-41,-93,-91,-82,-64
-47,-62,-11,47,-19,-21,31,-41,-93,-91,-82,-64
-47,-56,-11,47,-19,-21,31,-41,-93,-91,-82,-64
-47,-56,-11,47,-19,-21,31,-41,-93,-91,-82,-64
-47,-56,-11,47,-19,-21,31,-41,-93,-91,-82,-64
-47,-56,-6,47,-25,-21,31,-41,-93,-91,-82,-64
-47,-56,-6,47,-25,-21,31,-41,-93,-91,-82,-64
-47,-56,-6,47,-25,-21,31,-41,-93,-91,-82,-64
-47,-56,-6,47,-25,-21,31,-41,-93,-91,-82,-64
-47,-56,-6,47,-25,-21,31,-47,-93,-91,-82,-64
-47,-56,-6,47,-25,-21,31,-47,-93,-91,-82,-64
-47,-56,-6,47,-25,-21,31,-47,-93,-91,-82,-64
-47,-50,-6,47,-25,-21,31,-47,-93,-91,-82,-64
-47,-50,-6,47,-25,-21,31,-47,-93,-91,-82,-64
-47,-50,-6,47,-25,-21,31,-47,-93,-91,-82,-64
-47,-50,-6,47,-25,-21,31,-47,-93,-91,-82,-64
-47,-50,-6,47,-25,-21,31,-47,-93,-91,-82,-64
-47,-50,0,47,-25,-21,31,-47,-93,-91,-82,-64
-47,-50,0,47,-25,-21,31,-47,-93,-91,-82,-64
-47,-50,0,47,-25,-21,31,-47,-93,-91,-82,-64
-47,-50,0,47,-25,-21,31,-47,-93,-91,-82,-64
-47,-50,0,47,-25,-21,31,-53,-93,-91,-82,-64
-47,-50,0,47,-25,-21,31,-53,-93,-91,-82,-64
-47,-50,0,47,-25,-21,25,-53,-93,-91,-82,-64
-47,-50,0,47,-25,-21,25,-59,-93,-91,-82,-64
-47,-50,0,47,-25,-21,25,-59,-93,-91,-82,-64
-47,-50,0,47,-25,-21,25,-59,-93,-97,-82,-64
-47,-50,0,47,-25,-21,25,-59,-93,-97,-82,-64
-47,-50,0,47,-25,-21,25,-59,-93,-97,-82,-64
-47,-50,0,47,-25,-21,25,-59,-93,-97,-82,-64
-47,-50,0,47,-25,-21,25,-59,-93,-97,-82,-64
-47,-50,0,47,-25,-21,25,-59,-93,-97,-82,-64
-47,-50,0,47,-25,-21,25,-59,-93,-97,-82,-64
-47,-50,0,47,-25,-21,19,-59,-93,-97,-82,-64
-47,-50,0,47,-25,-21,19,-59,-93,-97,-82,-64
-47,-50,0,47,-25,-21,19,-59,-93,-97,-82,-64
-47,-50,0,47,-25,-21,19,-59,-93,-97,-82,-64
-47,-50,0,47,-25,-21,19,-59,-93,-97,-82,-64
-47,-50,0,47,-25,-21,13,-59,-99,-97,-82,-64
-47,-50,0,47,-25,-21,13,-59,-99,-97,-82,-64
-47,-50,0,47,-25,-21,13,-59,-99,-97,-82,-64
-47,-50,0,47,-25,-21,13,-59,-99,-97,-82,-64
-47,-50,0,47,-25,-21,7,-59,-99,-97,-82,-64
-47,-50,0,47,-25,-21,7,-59,-99,-97,-82,-64
-47,-50,0,47,-25,-21,7,-59,-99,-97,-82,-64
-47,-50,0,47,-25,-21,1,-59,-105,-97,-82,-64
-47,-50,0,47,-25,-21,1,-59,-105,-97,-82,-64
-47,-50,0,47,-25,-21,1,-59,-105,-97,-82,-64
-47,-50,0,47,-25,-21,-5,-59,-105,-97,-82,-64
-47,-50,0,47,-25,-21,-10,-59,-105,-97,-82,-64
-47,-50,0,47,-25,-21,-22,-59,-105,-97,-82,-64
-47,-50,0,47,-25,-21,-28,-59,-105,-97,-82,-64
-47,-50,0,47,-25,-21,-40,-59,-105,-97,-82,-64
-47,-50,0,47,-25,-21,-46,-59,-105,-97,-82,-64
-47,-50,0,47,-25,-21,-52,-59,-105,-97,-82,-64
-47,-50,0,47,-25,-21,-58,-59,-105,-97,-82,-64
-47,-50,0,47,-25,-21,-64,-59,-105,-97,-82,-64
-47,-50,0,47,-25,-21,-70,-59,-105,-97,-82,-64
-47,-50,0,47,-25,-21,-70,-59,-105,-97,-82,-64
-47,-50,0,47,-25,-21,-76,-59,-105,-97,-82,-64
-47,-50,-6,47,-25,-21,-76,-59,-105,-97,-82,-64
-47,-50,-6,47,-25,-21,-76,-59,-105,-103,-82,-64
-47,-50,-6,47,-25,-21,-76,-59,-105,-103,-82,-64
-47,-50,-6,47,-25,-21,-76,-59,-105,-103,-82,-64
-47,-50,-6,47,-25,-21,-76,-59,-105,-103,-82,-64
-47,-50,-6,47,-25,-21,-76,-59,-105,-103,-82,-64
-47,-50,-6,47,-25,-21,-76,-59,-105,-103,-82,-64
-47,-50,-6,47,-25,-21,-76,-59,-105,-103,-82,-64
-47,-50,-6,47,-25,-21,-76,-59,-105,-103,-82,-64
-47,-50,-6,47,-25,-21,-76,-59,-105,-103,-82,-64
-47,-50,-6,47,-25,-21,-76,-59,-105,-103,-82,-64
-47,-50,-6,47,-25,-21,-76,-59,-105,-103,-82,-64
-47,-50,-6,47,-25,-21,-76,-59,-105,-103,-82,-64
-47,-50,-6,47,-25,-21,-76,-59,-105,-103,-82,-64
-47,-50,-6,47,-25,-21,-76,-59,-105,-103,-82,-64
-47,-50,-6,47,-25,-21,-76,-59,-105,-103,-82,-64
-47,-50,-6,47,-25,-21,-76,-59,-105,-103,-82,-64
-47,-50,-6,47,-25,-21,-76,-59,-105,-103,-82,-64
-47,-50,-6,47,-25,-21,-76,-59,-105,-103,-82,-64
-47,-50,-6,47,-25,-27,-76,-59,-105,-103,-82,-64
-47,-50,-6,47,-25,-27,-76,-59,-105,-103,-82,-64
-47,-50,-6,47,-25,-27,-76,-59,-105,-103,-82,-64
-47,-50,-6,47,-25,-27,-76,-59,-105,-103,-82,-64
-47,-50,-6,47,-25,-27,-76,-59,-105,-103,-82,-64
-47,-50,-6,47,-25,-27,-76,-59,-105,-103,-82,-64
-47,-50,-6,47,-25,-27,-76,-59,-105,-103,-82,-64
-47,-50,-6,47,-25,-27,-76,-59,-105,-103,-82,-64
-47,-50,-6,47,-25,-27,-76,-59,-105,-103,-88,-64
-47,-50,-6,47,-25,-27,-76,-59,-105,-103,-88,-64
-47,-50,-6,47,-25,-27,-76,-59,-105,-103,-88,-64
-47,-50,-6,47,-25,-27,-76,-59,-105,-103,-88,-64
-47,-50,-6,47,-25,-27,-76,-59,-105,-103,-88,-64
-47,-50,-6,47,-25,-27,-76,-59,-105,-103,-88,-64
-47,-50,-6,47,-25,-27,-76,-59,-105,-103,-88,-64
-47,-50,-6,47,-25,-27,-76,-59,-105,-109,-88,-64
-47,-50,-6,47,-25,-27,-76,-59,-105,-109,-88,-64
-47,-50,-6,47,-25,-27,-76,-59,-105,-109,-88,-64
-47,-50,-6,47,-25,-27,-76,-59,-105,-109,-88,-64
-47,-50,-6,47,-25,-27,-76,-59,-105,-115,-88,-64
-47,-50,-6,47,-25,-27,-76,-59,-105,-115,-88,-64
-47,-50,-6,47,-25,-27,-76,-65,-105,-115,-88,-64
-47,-50,-6,47,-25,-27,-76,-65,-105,-115,-94,-64
-47,-50,-6,47,-25,-27,-76,-65,-105,-115,-94,-64
-47,-50,-6,47,-25,-27,-76,-65,-105,-115,-94,-64
-47,-50,-6,47,-25,-27,-76,-65,-105,-115,-94,-64
-47,-50,-6,47,-25,-27,-76,-65,-105,-115,-94,-64
-47,-50,-6,47,-25,-27,-76,-65,-105,-115,-94,-64
-47,-50,-6,47,-25,-27,-76,-65,-105,-115,-94,-64
-47,-50,-6,47,-25,-27,-76,-65,-105,-115,-94,-64
-47,-50,-6,47,-25,-27,-76,-65,-105,-121,-94,-64
-47,-50,-6,47,-25,-27,-76,-65,-105,-121,-94,-64
-47,-50,-6,47,-25,-27,-76,-71,-105,-121,-94,-64
-47,-50,-6,47,-25,-27,-64,-71,-105,-121,-94,-64
-47,-50,-6,47,-25,-27,-52,-71,-105,-121,-94,-64
-47,-50,-6,47,-25,-27,-40,-71,-105,-121,-94,-64
-47,-50,-6,47,-25,-27,-28,-71,-105,-121,-94,-64
-47,-50,-6,47,-25,-27,-16,-71,-105,-121,-94,-64
-47,-50,-6,47,-25,-27,-5,-71,-105,-121,-94,-64
-47,-50,-6,47,-25,-27,1,-71,-105,-121,-94,-64
-47,-50,-6,47,-25,-27,7,-71,-105,-121,-94,-64
-47,-44,-6,47,-25,-27,13,-71,-105,-121,-94,-64
-47,-38,-6,47,-25,-27,19,-65,-99,-121,-94,-58
-47,-32,-6,41,-25,-27,25,-59,-93,-121,-88,-52
-47,-26,0,35,-25,-21,31,-59,-93,-115,-82,-52
-47,-14,6,29,-25,-15,37,-59,-87,-115,-76,-46
-47,-2,12,23,-31,-9,43,-59,-81,-109,-70,-40
-47,3,18,17,-37,2,49,-53,-75,-109,-64,-40
-47,9,30,11,-37,14,55,-53,-69,-109,-64,-40
-47,15,36,11,-43,20,61,-47,-63,-103,-64,-40
-47,21,42,11,-43,26,67,-41,-57,-97,-64,-40
-47,27,48,5,-43,32,73,-35,-51,-91,-64,-34
-47,33,54,-1,-49,38,79,-29,-51,-85,-64,-34
-47,45,60,-1,-55,44,79,-23,-45,-79,-58,-28
-47,51,66,-6,-61,50,79,-23,-45,-79,-58,-28
-47,63,72,-12,-61,56,73,-23,-45,-79,-58,-22
-47,69,78,-18,-61,62,67,-29,-45,-79,-52,-22
-47,75,84,-24,-61,68,61,-29,-45,-73,-46,-16
-47,81,84,-24,-61,74,49,-29,-45,-73,-40,-10
-41,87,84,-30,-61,74,43,-35,-45,-73,-40,-10
-41,87,84,-30,-61,74,31,-41,-45,-73,-40,-4
-41,87,90,-36,-61,74,25,-41,-45,-73,-40,-4
-41,87,90,-36,-61,80,19,-41,-45,-73,-34,-4
-35,87,90,-36,-61,80,19,-41,-45,-73,-34,-4
-35,87,90,-36,-61,80,19,-41,-45,-73,-34,-4
-29,87,90,-36,-61,80,19,-41,-45,-73,-34,-4
-29,87,90,-36,-61,80,19,-41,-45,-73,-34,1
-29,87,90,-36,-61,80,19,-47,-45,-73,-34,1
-29,87,90,-36,-61,80,13,-53,-45,-73,-34,1
-29,87,84,-36,-61,80,13,-59,-51,-73,-34,1
-29,81,78,-36,-61,80,13,-59,-57,-73,-34,1
-29,81,78,-36,-61,74,13,-59,-57,-73,-34,1
-29,69,72,-36,-61,62,13,-59,-63,-73,-40,1
-29,57,60,-36,-55,50,7,-59,-69,-79,-46,-4
-29,45,48,-30,-49,32,7,-65,-75,-85,-52,-10
-29,27,36,-18,-49,8,7,-65,-81,-91,-64,-22
-35,9,24,-1,-49,-3,7,-71,-93,-97,-70,-28
-41,-8,18,11,-49,-15,7,-71,-105,-103,-76,-40
-47,-20,12,23,-49,-21,7,-77,-111,-109,-82,-46
-53,-32,6,29,-49,-27,7,-83,-117,-121,-88,-52
-53,-38,0,35,-49,-33,7,-89,-117,-127,-94,-58
-53,-44,-6,41,-43,-39,7,-95,-123,-133,-100,-64
-53,-50,-11,41,-43,-45,7,-95,-129,-139,-106,-70
-53,-50,-11,41,-43,-45,7,-101,-129,-139,-112,-70
-59,-56,-11,41,-43,-45,7,-101,-129,-145,-112,-70
-59,-56,-11,41,-43,-45,7,-101,-129,-145,-112,-70
-59,-56,-11,47,-43,-45,7,-101,-129,-145,-112,-70
-59,-56,-11,47,-43,-45,7,-101,-135,-145,-112,-70
-59,-56,-11,47,-43,-45,7,-101,-135,-145,-112,-70
-59,-56,-11,47,-43,-45,7,-101,-135,-145,-112,-70
-59,-56,-11,47,-43,-45,7,-101,-135,-145,-112,-70
-59,-56,-11,47,-43,-45,7,-101,-135,-145,-112,-70
-59,-56,-11,47,-43,-45,7,-101,-129,-145,-112,-70
-59,-56,-11,47,-43,-45,7,-101,-123,-145,-112,-70
-59,-50,-11,47,-43,-39,7,-95,-111,-139,-112,-70
-59,-44,-11,47,-43,-39,7,-83,-99,-127,-106,-70
-53,-38,-11,41,-43,-33,7,-71,-87,-109,-94,-58
-47,-26,-11,29,-43,-27,7,-65,-81,-97,-82,-46
-41,-14,-11,17,-37,-21,1,-59,-69,-85,-64,-34
-29,-2,-11,-1,-31,-15,-10,-53,-63,-73,-46,-16
-17,9,-11,-12,-25,-9,-40,-47,-57,-55,-34,7
12,15,-11,-24,-13,-9,-64,-47,-57,-43,-16,19
36,27,-17,-30,4,-9,-100,-47,-57,-37,-4,31
66,33,-29,-42,34,-9,-142,-47,-57,-25,7,43
96,45,-47,-54,58,-9,-190,-47,-57,-13,19,55
126,51,-77,-84,82,-9,-220,-41,-57,-1,37,85
156,51,-107,-102,112,-21,-244,-35,-57,34,73,115
174,51,-137,-120,142,-27,-256,-23,-51,64,103,151
192,51,-155,-132,160,-33,-268,-17,-51,82,133,175
210,57,-173,-144,178,-45,-286,-11,-51,94,157,193
228,63,-185,-156,196,-45,-328,-11,-51,106,169,217
264,69,-197,-168,208,-51,-364,-17,-51,118,193,235
294,81,-203,-180,226,-51,-400,-17,-51,130,211,253
324,111,-209,-210,250,-51,-454,-23,-51,154,235,283
354,135,-221,-240,280,-51,-520,-35,-51,178,265,313
384,153,-233,-270,298,-51,-562,-53,-51,202,295,361
414,177,-239,-306,310,-45,-598,-65,-51,244,337,403
