,,,,,,,,,,,
2019-09-04 23:55:04,,,,,,,,,,,
,,,,,,,,,,,
I,II,III,aVR,aVL,aVF,V1,V2,V3,V4,V5,V6
856,1066,149,-973,313,615,-1174,-948,-760,-212,-52,-190
70,184,137,-139,19,177,79,-336,-280,-200,-70,517
-49,40,125,4,-28,99,289,-228,-208,-194,-82,637
-67,10,107,28,-46,63,325,-198,-178,-194,-94,655
-79,-7,95,34,-52,51,343,-186,-172,-188,-100,667
-85,-13,89,40,-58,39,349,-180,-166,-188,-106,667
-85,-19,83,46,-58,33,355,-180,-160,-188,-106,667
-91,-25,83,46,-58,27,355,-174,-154,-188,-112,667
-91,-25,77,46,-58,27,355,-174,-148,-188,-112,667
-91,-31,71,46,-58,21,355,-174,-148,-188,-112,667
-91,-37,65,46,-58,15,355,-174,-148,-188,-112,661
-97,-37,65,52,-64,15,355,-174,-148,-188,-112,649
-103,-37,65,58,-70,15,355,-174,-148,-188,-118,637
-103,-37,65,58,-70,15,355,-174,-148,-188,-118,625
-103,-37,65,58,-70,15,355,-174,-148,-188,-118,619
-103,-37,65,58,-70,15,355,-174,-148,-188,-118,607
-103,-37,65,58,-70,15,355,-174,-148,-188,-118,601
-103,-37,65,58,-70,15,355,-174,-148,-188,-118,595
-103,-37,65,58,-70,15,355,-174,-148,-182,-118,589
-103,-37,65,58,-70,15,355,-174,-148,-182,-118,583
-103,-37,65,58,-70,15,355,-174,-148,-182,-118,577
-103,-37,65,58,-70,15,355,-174,-148,-176,-118,571
-103,-37,65,58,-70,15,355,-174,-148,-170,-118,571
-103,-37,65,58,-70,15,355,-174,-148,-164,-118,565
-103,-37,65,58,-70,15,355,-174,-148,-164,-118,553
-103,-37,65,58,-70,15,349,-174,-148,-164,-118,535
-103,-37,65,58,-70,15,349,-174,-148,-164,-118,529
-103,-37,65,58,-70,15,349,-174,-148,-164,-118,523
-103,-37,65,58,-70,15,343,-174,-148,-164,-118,511
-103,-37,65,58,-70,15,343,-174,-148,-164,-118,505
-103,-37,65,58,-70,15,343,-174,-148,-164,-118,499
-103,-37,65,58,-70,15,343,-174,-148,-164,-118,493
-103,-37,65,58,-70,15,337,-174,-148,-164,-118,481
-103,-37,65,58,-70,15,331,-174,-148,-164,-118,475
-103,-37,65,58,-70,15,331,-174,-148,-164,-118,469
-103,-37,65,58,-70,15,331,-174,-148,-164,-118,463
-103,-37,65,58,-70,15,331,-174,-148,-164,-118,457
-103,-37,65,58,-70,15,331,-174,-148,-164,-118,457
-103,-37,65,58,-70,15,331,-174,-148,-164,-118,451
-103,-37,65,58,-70,15,325,-174,-148,-164,-118,445
-103,-37,65,58,-70,15,325,-174,-148,-164,-118,433
-103,-37,65,58,-70,15,325,-174,-148,-164,-118,427
-103,-37,65,58,-70,9,325,-174,-148,-164,-118,421
-103,-37,65,58,-70,9,325,-174,-148,-164,-118,421
-103,-37,65,58,-70,9,325,-174,-148,-164,-118,415
-103,-37,65,58,-70,9,319,-174,-148,-164,-124,403
-103,-43,65,58,-70,9,319,-174,-148,-164,-124,397
-103,-43,65,58,-70,9,319,-174,-148,-164,-124,391
-103,-43,65,58,-70,9,319,-174,-148,-164,-124,385
-103,-43,65,58,-70,3,319,-174,-148,-164,-124,379
-103,-43,65,58,-70,3,319,-174,-148,-164,-124,373
-103,-43,65,58,-70,3,319,-174,-148,-164,-124,367
-103,-43,59,58,-70,3,313,-174,-148,-164,-124,361
-97,-43,59,58,-64,3,313,-174,-148,-164,-124,355
-97,-43,59,58,-64,3,307,-174,-148,-164,-124,349
-97,-43,59,58,-64,3,307,-174,-148,-164,-124,343
-97,-43,59,58,-64,3,301,-174,-148,-164,-124,343
-97,-43,53,58,-64,3,295,-174,-148,-164,-124,343
-97,-43,53,58,-64,3,295,-174,-148,-164,-124,331
-97,-43,47,58,-64,3,295,-174,-148,-164,-124,325
-97,-43,47,58,-64,3,289,-174,-148,-164,-124,319
-97,-43,47,58,-64,3,289,-174,-148,-164,-124,313
-97,-43,47,58,-64,3,289,-174,-148,-164,-124,307
-97,-43,47,58,-64,3,289,-174,-148,-164,-124,307
-97,-43,47,58,-64,3,283,-174,-148,-164,-124,307
-97,-43,47,58,-64,3,277,-174,-148,-164,-124,301
-97,-43,47,58,-64,3,277,-174,-148,-164,-124,295
-97,-43,47,58,-64,3,271,-174,-148,-164,-124,289
-97,-43,47,58,-64,3,271,-174,-148,-164,-124,283
-97,-43,47,58,-64,3,265,-174,-148,-164,-124,277
-97,-43,47,58,-64,3,265,-174,-148,-164,-124,265
-97,-43,47,58,-64,3,265,-174,-148,-164,-124,259
-97,-43,47,58,-64,3,265,-174,-148,-164,-124,247
-97,-43,47,58,-64,3,259,-174,-148,-164,-124,241
-97,-43,47,58,-64,3,253,-174,-148,-164,-124,235
-97,-49,47,58,-64,3,247,-174,-148,-164,-124,235
-97,-49,47,58,-64,-3,247,-174,-148,-164,-124,229
-97,-49,47,58,-64,-3,247,-174,-148,-164,-124,223
-97,-49,47,58,-64,-3,241,-174,-148,-164,-124,217
-97,-49,47,58,-64,-3,241,-174,-148,-164,-124,217
-97,-49,47,58,-64,-3,235,-174,-148,-164,-124,211
-97,-49,47,58,-64,-3,229,-174,-148,-164,-124,205
-97,-49,47,58,-64,-3,229,-174,-148,-164,-124,205
-97,-49,47,58,-64,-3,229,-174,-148,-164,-124,199
-97,-49,47,58,-64,-3,229,-174,-148,-164,-124,199
-97,-49,47,58,-64,-3,229,-174,-148,-164,-124,193
-97,-49,47,58,-64,-3,229,-174,-148,-164,-124,187
-97,-49,47,58,-64,-3,223,-174,-148,-164,-124,181
-97,-49,47,58,-64,-3,217,-174,-148,-164,-124,175
-97,-49,47,58,-64,-3,217,-174,-148,-164,-124,175
-97,-49,47,58,-64,-3,217,-174,-148,-158,-124,175
-97,-49,47,58,-64,-3,217,-174,-148,-158,-124,169
-97,-49,47,58,-64,-3,217,-174,-148,-158,-124,163
-97,-49,47,58,-64,-3,217,-174,-148,-158,-124,157
-97,-49,47,58,-64,-3,211,-174,-148,-158,-124,151
-97,-49,47,58,-64,-8,211,-168,-148,-158,-124,145
-97,-49,47,58,-64,-8,211,-162,-148,-158,-124,139
-97,-49,47,58,-58,-8,211,-162,-142,-158,-124,133
-91,-49,47,58,-52,-8,205,-162,-142,-158,-124,127
-91,-49,47,58,-52,-8,205,-162,-142,-158,-124,127
-91,-49,47,58,-52,-8,205,-162,-142,-158,-124,127
-85,-49,47,58,-52,-8,205,-162,-142,-152,-124,127
-85,-49,47,58,-52,-8,205,-162,-136,-146,-124,127
-79,-49,47,58,-52,-8,205,-156,-130,-140,-118,127
-79,-49,47,58,-52,-8,205,-144,-118,-134,-112,127
-79,-49,47,58,-52,-8,211,-132,-112,-128,-106,127
-79,-49,47,52,-52,-8,217,-126,-106,-122,-100,127
-79,-43,47,52,-52,-3,223,-120,-100,-116,-94,127
-73,-31,53,46,-52,3,223,-114,-94,-110,-88,127
-73,-19,53,46,-52,9,229,-108,-94,-104,-82,121
-73,-13,53,46,-52,9,229,-108,-88,-98,-76,121
-67,-7,53,46,-52,9,229,-102,-88,-92,-76,115
-67,-7,53,40,-52,15,229,-102,-82,-86,-76,109
-61,-2,53,34,-52,21,235,-102,-76,-86,-76,103
-61,-2,53,28,-52,27,241,-102,-76,-86,-76,97
-61,-2,53,28,-52,27,253,-96,-76,-86,-76,91
-61,-2,53,28,-52,27,259,-90,-70,-86,-76,91
-55,4,53,22,-52,27,265,-78,-64,-80,-70,91
-49,10,53,10,-46,27,271,-66,-52,-68,-64,91
-37,22,53,-2,-40,27,277,-54,-40,-56,-58,91
-25,28,53,-7,-28,27,283,-42,-28,-44,-52,91
-13,34,53,-13,-22,27,283,-36,-22,-38,-40,97
-7,40,53,-19,-22,33,283,-30,-16,-32,-34,103
-1,46,53,-31,-16,33,283,-24,-10,-26,-28,103
10,52,53,-37,-10,33,283,-18,-4,-26,-22,103
22,58,53,-43,-4,33,283,-12,1,-20,-16,109
34,58,47,-49,7,33,283,-6,7,-14,-10,115
46,58,41,-55,19,33,283,-1,7,-8,-4,115
52,58,35,-55,25,33,283,5,13,-8,1,115
52,58,35,-55,25,33,283,5,13,-8,7,115
52,58,35,-55,25,33,283,5,13,-8,7,115
52,58,29,-55,25,33,271,5,13,-8,7,115
52,58,23,-55,25,33,253,-1,13,-8,7,115
52,52,17,-55,25,27,235,-6,7,-8,7,109
52,40,11,-55,25,21,223,-12,1,-14,1,103
52,28,5,-49,31,9,217,-18,-4,-26,-4,91
52,22,0,-49,37,3,211,-30,-10,-32,-10,79
52,16,-6,-49,37,3,199,-36,-22,-38,-16,67
52,10,-12,-43,37,-3,187,-48,-28,-44,-28,55
52,10,-18,-43,37,-8,181,-54,-40,-50,-34,43
58,10,-24,-43,43,-8,175,-60,-46,-56,-40,37
64,10,-30,-43,49,-8,169,-66,-46,-62,-40,31
64,10,-30,-43,49,-8,169,-66,-46,-62,-40,31
64,10,-30,-43,49,-8,163,-66,-46,-62,-40,31
64,10,-30,-43,49,-8,163,-66,-46,-62,-40,31
64,10,-30,-43,49,-8,157,-72,-52,-62,-40,25
58,10,-30,-37,49,-8,151,-78,-52,-62,-40,19
46,4,-30,-31,43,-14,151,-90,-58,-68,-46,13
34,-2,-30,-19,37,-14,151,-102,-70,-80,-52,7
16,-7,-24,-7,25,-20,151,-114,-82,-104,-70,-4
-1,-19,-24,4,19,-26,145,-126,-106,-116,-88,-22
-13,-31,-24,16,13,-26,139,-138,-118,-128,-100,-40
-19,-43,-24,28,13,-32,133,-150,-124,-134,-112,-58
-25,-55,-24,34,13,-38,127,-156,-130,-146,-118,-70
-31,-61,-24,40,7,-38,121,-162,-136,-152,-124,-82
-31,-61,-24,40,7,-38,115,-168,-148,-164,-130,-94
-31,-61,-24,40,7,-44,109,-174,-154,-170,-136,-106
-37,-61,-24,40,7,-44,109,-174,-154,-170,-136,-112
-37,-61,-24,40,7,-44,103,-174,-160,-170,-136,-118
-37,-61,-24,40,7,-44,97,-180,-160,-170,-136,-124
-37,-61,-24,40,7,-44,97,-180,-160,-170,-136,-130
-37,-61,-24,40,7,-44,97,-186,-166,-170,-142,-130
-37,-67,-24,40,7,-44,91,-186,-172,-170,-142,-130
-37,-67,-24,40,7,-44,91,-186,-172,-170,-142,-130
-37,-67,-24,40,7,-44,91,-186,-172,-170,-142,-130
-37,-67,-24,40,7,-44,91,-186,-172,-170,-142,-130
-37,-67,-24,40,7,-44,91,-186,-172,-170,-142,-130
-37,-61,-24,40,7,-44,91,-186,-166,-164,-136,-130
-37,-55,-18,40,7,-44,91,-180,-160,-158,-124,-124
-37,-49,-6,40,1,-38,91,-174,-148,-146,-118,-118
-37,-43,5,40,-4,-32,91,-168,-136,-140,-106,-112
-43,-43,17,40,-16,-26,91,-162,-124,-128,-94,-100
-43,-43,23,40,-22,-20,97,-150,-112,-104,-82,-88
-49,-37,35,40,-28,-8,103,-132,-94,-86,-52,-76
-61,-25,59,40,-40,3,109,-102,-70,-74,-40,-64
-73,-13,89,40,-58,27,115,-84,-52,-62,-28,-58
-79,-2,107,40,-76,45,133,-60,-34,-50,-16,-52
-85,10,119,40,-88,57,157,-36,-16,-26,1,-46
-91,22,131,40,-100,69,175,-6,13,-8,13,-34
-97,28,155,40,-118,81,187,11,37,15,25,-22
-103,34,167,40,-130,93,199,35,55,39,37,-16
-115,34,185,40,-142,105,211,53,73,57,43,-10
-127,40,197,40,-154,111,223,71,85,69,49,-10
-157,40,227,46,-178,123,253,95,97,75,55,-10
-193,40,257,58,-208,135,289,125,109,87,61,-10
-217,46,287,70,-238,147,325,155,133,93,61,-10
-247,46,299,82,-262,159,391,203,151,99,61,-22
-283,46,335,94,-304,171,487,269,181,105,61,-34
-325,46,377,112,-346,201,601,383,241,123,61,-46
-361,58,449,124,-400,237,703,491,343,189,85,-52
-385,88,527,124,-442,285,757,587,451,279,145,-46
-391,136,569,124,-466,333,787,671,559,381,229,-4
-391,184,599,112,-478,381,817,785,679,513,331,61
-391,232,629,82,-478,429,835,929,835,639,433,151
-367,292,647,40,-478,465,865,1091,991,777,565,235
-301,352,647,-19,-472,495,871,1271,1183,933,703,331
-169,442,641,-127,-400,507,865,1469,1399,1119,889,481
-7,544,605,-271,-304,525,823,1685,1627,1335,1099,661
148,646,551,-397,-196,537,781,1961,1903,1569,1327,859
316,736,479,-529,-76,549,745,2266,2214,1839,1561,1051
484,826,407,-667,43,561,709,2505,2519,2102,1807,1249
628,904,347,-781,151,573,637,2583,2771,2360,2047,1435
742,964,281,-865,253,579,511,2583,2963,2575,2244,1597
838,994,203,-919,337,579,409,2547,3089,2719,2388,1711
898,1000,155,-949,397,579,361,2421,3209,2851,2501,1783
922,1000,107,-955,427,567,349,2272,3317,2965,2591,1831
922,982,65,-955,439,525,349,2080,3353,3007,2627,1849
910,880,11,-901,445,435,343,1847,3341,2995,2615,1843
868,760,-54,-811,451,333,337,1595,3137,2779,2418,1711
784,610,-114,-709,451,243,337,1319,2801,2396,2064,1465
646,484,-120,-571,421,183,343,965,2352,1971,1675,1177
448,394,-96,-433,289,171,343,557,1813,1551,1309,919
250,298,23,-289,127,171,343,161,1225,1113,949,643
94,208,83,-157,13,165,337,-192,619,681,595,397
-19,136,125,-67,-58,159,313,-480,115,315,331,199
-97,82,149,4,-106,147,283,-630,-184,87,145,49
-157,22,155,70,-148,117,265,-672,-310,-38,37,-52
-193,-31,155,112,-160,81,259,-678,-352,-122,-46,-130
-211,-67,155,142,-166,51,247,-678,-382,-188,-106,-190
-229,-103,155,154,-166,21,235,-678,-406,-230,-148,-226
-241,-127,143,172,-166,3,205,-678,-430,-266,-190,-262
-247,-145,131,184,-166,-14,169,-678,-454,-284,-214,-280
-247,-157,119,190,-166,-26,145,-672,-460,-296,-226,-292
-247,-163,113,190,-166,-32,133,-636,-460,-296,-226,-292
-247,-163,107,190,-160,-32,109,-588,-454,-296,-226,-292
-241,-163,95,190,-154,-38,97,-540,-442,-296,-226,-292
-229,-163,71,190,-142,-44,73,-498,-430,-296,-226,-292
-199,-163,59,184,-124,-50,55,-468,-418,-296,-220,-292
-169,-157,47,172,-100,-50,37,-426,-388,-290,-214,-292
-145,-145,35,148,-76,-56,25,-384,-358,-278,-208,-286
-127,-139,23,124,-64,-56,19,-342,-334,-266,-202,-280
-115,-133,17,112,-52,-56,13,-318,-322,-254,-196,-280
-109,-127,11,106,-46,-56,13,-294,-310,-242,-190,-280
-103,-127,5,106,-40,-56,7,-282,-298,-236,-190,-280
-91,-121,0,100,-34,-56,1,-270,-292,-236,-190,-280
-85,-115,-6,94,-28,-56,1,-264,-292,-236,-190,-280
-85,-109,-6,94,-28,-56,1,-258,-292,-236,-190,-280
-85,-109,-6,94,-28,-56,1,-252,-292,-236,-190,-280
-85,-109,-6,88,-28,-56,1,-246,-292,-236,-190,-280
-85,-109,-6,88,-28,-56,1,-246,-292,-236,-190,-280
-79,-109,-6,88,-28,-56,1,-246,-286,-236,-190,-280
-73,-109,-6,88,-28,-56,1,-246,-286,-236,-190,-280
-73,-109,-6,88,-28,-56,1,-246,-286,-236,-190,-280
-73,-109,-6,88,-28,-56,1,-240,-286,-236,-190,-280
-73,-109,-12,88,-28,-56,1,-240,-286,-236,-190,-280
-73,-109,-12,88,-28,-56,1,-234,-286,-230,-184,-280
-73,-109,-18,88,-22,-56,1,-234,-286,-230,-178,-280
-73,-109,-18,88,-22,-56,1,-228,-286,-230,-172,-280
-67,-103,-18,88,-22,-56,1,-228,-286,-230,-172,-280
-67,-103,-18,88,-22,-56,1,-228,-286,-230,-172,-280
-67,-103,-18,88,-22,-56,1,-222,-280,-224,-172,-280
-61,-103,-18,82,-16,-56,1,-222,-280,-224,-172,-280
-61,-103,-18,82,-16,-56,1,-222,-274,-224,-172,-280
-61,-103,-18,82,-16,-56,1,-216,-274,-218,-172,-280
-61,-103,-18,76,-16,-56,1,-216,-274,-218,-172,-280
-55,-103,-24,70,-16,-56,1,-216,-274,-218,-172,-280
-55,-103,-30,70,-16,-56,1,-210,-268,-218,-172,-280
-55,-97,-30,70,-16,-56,1,-210,-268,-218,-166,-280
-55,-97,-30,70,-16,-56,1,-210,-268,-218,-166,-274
-49,-97,-30,70,-16,-56,1,-210,-268,-218,-166,-268
-43,-97,-30,64,-10,-56,1,-210,-262,-218,-166,-262
-43,-97,-30,64,-10,-56,1,-204,-262,-212,-160,-256
-43,-97,-30,64,-10,-56,1,-204,-262,-212,-160,-250
-43,-97,-30,64,-10,-56,1,-204,-262,-212,-160,-250
-43,-91,-30,58,-10,-56,1,-204,-262,-212,-160,-250
-43,-85,-30,58,-10,-56,1,-204,-262,-212,-160,-250
-43,-85,-30,52,-10,-56,1,-204,-262,-212,-160,-250
-43,-85,-30,52,-10,-56,1,-204,-262,-212,-160,-250
-43,-85,-30,52,-10,-56,1,-204,-256,-212,-160,-250
-37,-85,-30,52,-10,-56,1,-198,-256,-212,-160,-250
-37,-85,-30,52,-10,-56,-5,-198,-256,-212,-160,-250
-37,-85,-30,52,-10,-56,-5,-198,-250,-212,-160,-250
-37,-85,-30,52,-4,-56,-5,-198,-250,-212,-160,-250
-37,-85,-30,52,1,-56,-5,-198,-250,-212,-160,-250
-37,-85,-30,52,1,-56,-5,-192,-244,-206,-154,-250
-37,-85,-30,52,1,-56,-5,-186,-238,-206,-148,-244
-31,-85,-30,52,1,-56,-5,-186,-232,-206,-148,-244
-25,-79,-30,52,1,-56,-10,-180,-232,-206,-148,-244
-25,-79,-30,52,1,-56,-10,-174,-232,-206,-148,-238
-25,-79,-30,52,1,-56,-10,-174,-232,-206,-148,-232
-19,-73,-30,46,7,-56,-16,-168,-232,-206,-148,-226
-13,-73,-30,46,7,-56,-16,-168,-226,-200,-142,-220
-13,-73,-30,46,7,-56,-16,-168,-226,-194,-142,-220
-13,-73,-30,46,7,-56,-22,-162,-220,-194,-142,-220
-7,-67,-36,40,13,-56,-28,-162,-220,-188,-142,-220
-1,-61,-36,34,19,-56,-34,-156,-214,-188,-136,-214
-1,-55,-36,28,19,-50,-40,-150,-208,-182,-130,-202
-1,-55,-36,28,19,-50,-40,-144,-208,-176,-118,-196
-1,-55,-36,22,19,-50,-40,-138,-202,-164,-112,-190
-1,-49,-36,16,19,-44,-46,-138,-196,-158,-100,-184
-1,-43,-36,16,19,-38,-46,-132,-196,-152,-94,-184
4,-37,-36,10,19,-38,-52,-126,-196,-152,-88,-184
10,-37,-36,4,25,-38,-58,-120,-190,-146,-82,-184
16,-31,-36,-2,25,-38,-58,-114,-184,-140,-82,-178
22,-25,-36,-2,25,-32,-64,-108,-178,-140,-82,-166
22,-25,-36,-7,25,-32,-70,-102,-178,-140,-76,-160
28,-25,-36,-13,31,-32,-76,-102,-172,-134,-70,-154
34,-19,-36,-19,31,-32,-82,-96,-172,-128,-70,-148
40,-13,-36,-25,31,-32,-88,-96,-166,-128,-70,-148
46,-7,-36,-31,31,-32,-94,-90,-166,-128,-70,-142
46,-2,-36,-31,31,-26,-100,-84,-160,-122,-64,-136
46,4,-36,-31,31,-26,-100,-72,-148,-116,-58,-130
46,10,-36,-37,37,-26,-106,-60,-142,-110,-46,-124
52,16,-36,-37,43,-26,-106,-48,-130,-104,-40,-118
58,22,-36,-43,49,-20,-112,-36,-124,-92,-34,-112
70,28,-36,-49,55,-14,-118,-24,-118,-80,-22,-106
76,34,-36,-55,61,-8,-118,-12,-112,-74,-10,-94
82,40,-36,-61,61,-3,-124,-6,-106,-68,-4,-82
88,46,-36,-67,61,3,-130,-1,-100,-62,7,-70
94,52,-36,-73,61,3,-136,11,-94,-56,19,-58
100,64,-36,-79,67,3,-142,17,-88,-50,25,-52
106,76,-36,-91,67,9,-154,23,-82,-50,25,-46
112,82,-36,-103,67,15,-160,35,-76,-50,25,-46
118,88,-36,-109,67,21,-166,41,-64,-50,25,-46
130,94,-36,-115,73,27,-172,53,-52,-44,31,-40
136,100,-36,-127,79,33,-178,59,-46,-38,37,-34
142,106,-36,-133,79,39,-184,71,-40,-26,43,-28
148,112,-36,-133,79,39,-184,83,-34,-14,55,-22
154,118,-36,-139,79,39,-184,95,-22,-8,61,-16
160,124,-36,-145,85,45,-184,107,-16,-2,67,-16
166,130,-36,-145,91,45,-190,119,-4,3,73,-10
166,136,-36,-145,97,45,-190,131,7,15,79,1
172,142,-36,-151,97,51,-190,143,19,21,91,13
172,142,-36,-157,97,51,-190,155,31,27,103,25
178,148,-36,-163,97,51,-190,167,43,39,115,31
178,148,-36,-163,97,51,-196,173,55,51,127,37
184,154,-36,-169,97,57,-196,179,61,63,133,43
184,154,-36,-169,97,63,-196,185,67,69,139,49
190,154,-36,-169,97,63,-196,191,79,75,145,49
190,160,-36,-175,97,63,-196,197,85,81,151,49
190,166,-30,-175,97,69,-196,203,91,87,157,55
190,166,-30,-175,97,69,-196,215,97,93,163,55
190,166,-30,-175,103,69,-196,221,109,105,169,55
190,166,-30,-175,103,69,-196,227,121,111,175,55
190,172,-30,-175,103,75,-196,239,133,123,175,55
190,172,-24,-175,103,81,-196,245,145,129,175,55
190,172,-24,-175,103,81,-196,257,151,129,175,55
190,172,-24,-175,103,81,-190,263,157,129,175,55
190,172,-24,-175,103,81,-178,263,163,129,181,55
184,172,-24,-175,103,81,-166,263,163,129,181,55
184,172,-24,-175,103,81,-154,263,169,135,181,55
178,172,-24,-175,103,81,-142,269,175,141,187,55
178,172,-24,-169,103,81,-136,275,175,141,187,55
172,172,-24,-169,103,81,-130,275,175,141,187,55
160,166,-12,-163,91,81,-118,275,175,141,187,55
148,154,-6,-151,85,81,-112,275,175,141,187,55
142,142,-6,-145,85,75,-106,275,175,141,181,49
136,130,-6,-133,79,69,-94,275,175,141,175,37
130,124,-6,-127,73,63,-88,269,175,141,175,31
118,112,0,-121,67,63,-76,263,175,141,169,25
106,106,0,-115,61,63,-64,251,169,141,163,13
94,100,0,-109,61,63,-52,239,163,135,157,-4
82,88,0,-97,61,63,-46,227,157,123,133,-16
70,76,0,-85,55,57,-40,215,145,111,103,-28
64,64,0,-73,49,51,-34,203,133,99,91,-46
58,52,0,-61,43,45,-34,191,127,93,79,-58
52,46,0,-55,43,39,-28,179,115,81,67,-64
46,40,0,-43,37,33,-16,167,103,69,55,-76
34,34,0,-31,31,27,-10,155,91,57,43,-82
22,28,0,-25,25,27,-5,137,79,45,37,-94
16,16,0,-13,19,21,-5,119,73,39,31,-106
4,4,0,-7,19,15,1,107,61,27,19,-112
-1,-7,0,4,13,9,1,95,49,15,7,-118
-7,-13,0,10,13,3,1,83,37,9,-4,-124
-13,-19,0,16,13,3,1,71,25,3,-10,-130
-13,-25,0,16,13,-3,1,59,19,-2,-16,-136
-13,-31,0,16,13,-8,1,53,13,-8,-22,-142
-19,-37,0,22,13,-14,1,41,7,-14,-28,-142
-25,-37,0,28,13,-14,1,29,1,-20,-34,-142
-31,-37,0,34,7,-14,1,23,-10,-26,-40,-148
-31,-37,0,34,1,-14,1,11,-16,-32,-40,-154
-37,-37,0,34,1,-14,1,5,-22,-38,-46,-154
-43,-43,0,40,-4,-14,1,-1,-28,-44,-52,-154
-43,-49,0,46,-4,-20,1,-6,-34,-44,-52,-160
-49,-55,0,52,-4,-26,1,-6,-40,-44,-52,-166
-49,-61,0,52,-10,-26,1,-6,-40,-44,-52,-166
-49,-61,0,52,-10,-26,1,-6,-40,-44,-52,-166
-49,-61,0,52,-10,-26,1,-12,-40,-44,-52,-166
-49,-61,0,52,-10,-26,1,-18,-40,-44,-52,-166
-49,-61,0,52,-10,-26,1,-18,-40,-44,-52,-166
-49,-61,0,58,-10,-26,1,-18,-40,-44,-52,-166
-49,-61,0,58,-10,-32,1,-18,-40,-44,-52,-166
-49,-61,0,58,-10,-32,1,-24,-46,-44,-52,-166
-49,-61,0,58,-10,-32,1,-24,-46,-44,-52,-166
-49,-61,0,58,-10,-32,1,-24,-46,-44,-52,-166
-49,-61,0,58,-10,-32,1,-24,-46,-44,-52,-166
-49,-61,0,58,-10,-32,1,-24,-52,-44,-52,-166
-49,-61,0,58,-10,-32,-5,-24,-52,-44,-52,-166
-49,-61,0,58,-10,-32,-5,-24,-52,-44,-52,-166
-49,-61,0,58,-10,-32,-5,-24,-52,-44,-52,-166
-49,-61,0,58,-10,-32,-10,-24,-52,-44,-52,-166
-49,-61,0,58,-16,-32,-10,-24,-52,-44,-52,-166
-49,-61,0,58,-16,-32,-10,-24,-52,-44,-52,-166
-49,-61,0,58,-16,-32,-10,-24,-52,-44,-58,-172
-49,-61,0,58,-16,-32,-16,-24,-52,-44,-58,-172
-49,-61,0,58,-16,-32,-22,-24,-52,-44,-58,-172
-49,-61,0,58,-16,-32,-22,-24,-52,-44,-58,-172
-49,-61,0,58,-16,-32,-22,-24,-52,-44,-58,-172
-49,-61,0,58,-16,-32,-22,-24,-52,-44,-58,-178
-49,-61,-6,58,-16,-32,-28,-24,-52,-44,-58,-184
-49,-61,-6,58,-16,-32,-28,-24,-52,-44,-58,-184
-55,-61,0,58,-22,-32,-28,-24,-52,-44,-58,-184
-55,-61,0,58,-22,-32,-28,-24,-52,-44,-58,-184
-55,-61,0,58,-22,-32,-28,-24,-52,-44,-58,-184
-55,-67,-6,58,-22,-32,-28,-24,-52,-44,-58,-184
-55,-67,-6,58,-22,-32,-28,-24,-52,-44,-58,-184
-55,-67,-6,58,-22,-32,-28,-24,-52,-44,-58,-184
-55,-67,-6,58,-22,-32,-34,-24,-52,-44,-58,-184
-55,-67,-6,58,-22,-32,-34,-24,-52,-38,-58,-184
-55,-67,-6,58,-22,-32,-34,-24,-52,-38,-52,-184
-55,-67,-6,58,-22,-32,-40,-24,-52,-38,-52,-184
-55,-67,-6,58,-22,-32,-40,-24,-52,-38,-52,-184
-55,-61,-6,58,-22,-32,-46,-24,-52,-38,-52,-184
-55,-61,0,58,-22,-32,-46,-24,-52,-32,-46,-184
-55,-61,0,58,-22,-32,-46,-24,-46,-26,-46,-178
-55,-61,0,58,-22,-32,-46,-24,-46,-26,-46,-172
-55,-61,0,58,-22,-32,-46,-24,-46,-26,-46,-166
-55,-55,0,58,-22,-32,-46,-24,-46,-26,-40,-160
-55,-55,0,58,-22,-32,-46,-24,-46,-26,-40,-160
-55,-55,0,58,-22,-32,-46,-24,-46,-26,-40,-160
-55,-55,0,58,-22,-32,-46,-24,-46,-26,-40,-160
-55,-55,0,58,-22,-32,-46,-24,-46,-20,-34,-154
-55,-55,0,58,-22,-32,-46,-24,-46,-20,-34,-154
-55,-55,0,58,-22,-32,-52,-24,-46,-20,-34,-154
-55,-55,0,58,-22,-32,-52,-24,-46,-20,-34,-154
-55,-55,0,58,-22,-32,-52,-24,-46,-20,-34,-154
-55,-55,0,58,-22,-32,-52,-24,-46,-20,-34,-154
-55,-55,0,58,-22,-32,-52,-24,-46,-20,-34,-154
-55,-55,0,58,-22,-32,-58,-24,-46,-20,-34,-154
-55,-55,0,58,-22,-32,-58,-24,-46,-20,-34,-154
-55,-55,0,52,-22,-32,-58,-24,-46,-20,-34,-154
-55,-49,0,46,-22,-32,-58,-24,-46,-20,-34,-154
-55,-49,0,46,-22,-32,-58,-24,-46,-20,-34,-154
-55,-49,0,46,-22,-32,-58,-24,-46,-20,-34,-154
-49,-43,0,40,-22,-32,-64,-24,-46,-20,-34,-154
-43,-43,0,40,-22,-32,-64,-24,-46,-20,-34,-154
-43,-43,0,40,-22,-32,-64,-24,-46,-20,-34,-154
-43,-43,0,40,-22,-32,-64,-24,-46,-20,-34,-154
-43,-43,0,40,-22,-32,-70,-24,-46,-14,-34,-154
-43,-43,0,40,-22,-32,-70,-24,-46,-14,-34,-154
-43,-43,0,40,-22,-32,-70,-24,-46,-14,-34,-154
-43,-43,0,40,-22,-32,-70,-24,-46,-14,-34,-154
-43,-43,0,40,-22,-32,-70,-24,-46,-14,-34,-154
-43,-43,0,40,-22,-32,-70,-24,-46,-14,-34,-154
-43,-43,0,40,-22,-32,-70,-24,-46,-14,-34,-154
-43,-43,0,40,-22,-32,-70,-24,-46,-14,-34,-154
-43,-43,0,40,-22,-32,-70,-24,-46,-14,-34,-154
-43,-43,0,40,-22,-32,-76,-24,-46,-14,-34,-154
-43,-43,0,40,-22,-32,-76,-24,-46,-14,-34,-154
-43,-43,0,40,-22,-32,-76,-24,-46,-14,-34,-154
-43,-43,0,40,-22,-32,-82,-24,-46,-14,-34,-154
-43,-43,0,40,-22,-32,-82,-24,-46,-14,-34,-154
-43,-43,0,40,-22,-32,-82,-24,-46,-14,-34,-154
-43,-43,0,40,-22,-32,-82,-24,-46,-14,-34,-160
-43,-43,0,40,-22,-32,-82,-24,-46,-14,-34,-166
-43,-43,0,40,-22,-32,-82,-24,-46,-14,-40,-172
-43,-43,0,40,-22,-32,-82,-24,-46,-14,-46,-178
-43,-43,0,40,-22,-32,-88,-24,-46,-14,-46,-178
-43,-43,0,40,-22,-32,-88,-24,-46,-14,-46,-178
-43,-43,0,40,-22,-32,-88,-24,-46,-14,-46,-178
-43,-43,0,40,-22,-32,-88,-24,-46,-20,-46,-178
-43,-43,0,40,-22,-32,-88,-24,-46,-20,-46,-178
-43,-43,0,40,-22,-32,-88,-24,-46,-20,-46,-178
-43,-43,0,40,-22,-32,-88,-24,-46,-20,-46,-178
-43,-43,0,40,-22,-32,-88,-24,-46,-20,-46,-178
-43,-43,0,40,-22,-32,-88,-24,-52,-20,-46,-178
-43,-43,0,46,-22,-32,-94,-24,-52,-20,-46,-178
-43,-43,0,46,-22,-32,-94,-24,-52,-20,-46,-178
-43,-49,0,46,-22,-32,-94,-24,-52,-20,-46,-178
-43,-55,0,52,-22,-32,-94,-30,-52,-20,-46,-178
-43,-55,0,52,-22,-32,-94,-30,-52,-20,-46,-178
-43,-55,0,52,-22,-32,-94,-30,-52,-26,-46,-178
-43,-55,0,52,-22,-32,-94,-30,-58,-32,-46,-184
-43,-55,0,52,-22,-32,-94,-30,-58,-32,-46,-184
-43,-55,0,52,-22,-32,-94,-30,-64,-32,-52,-184
-49,-55,0,52,-22,-32,-94,-30,-64,-32,-52,-184
-49,-55,0,52,-22,-38,-94,-36,-64,-32,-52,-184
-49,-55,-6,52,-22,-38,-94,-42,-64,-38,-52,-184
-49,-55,-6,52,-22,-38,-94,-48,-70,-38,-52,-184
-49,-55,-6,52,-22,-38,-100,-48,-76,-38,-58,-184
-49,-55,-6,52,-22,-38,-100,-48,-76,-38,-58,-184
-49,-55,-6,52,-22,-44,-100,-48,-76,-38,-58,-184
-49,-55,-6,52,-22,-44,-100,-48,-76,-38,-58,-190
-49,-55,-6,52,-22,-44,-100,-54,-82,-38,-58,-196
-49,-55,-6,52,-22,-44,-100,-54,-82,-38,-64,-196
-49,-55,-6,52,-22,-50,-106,-54,-82,-44,-64,-202
-49,-55,-6,52,-22,-50,-106,-54,-82,-50,-64,-202
-49,-55,-6,52,-28,-50,-106,-54,-82,-50,-64,-202
-49,-55,0,52,-28,-50,-106,-54,-82,-56,-64,-202
-49,-55,0,58,-28,-50,-106,-54,-82,-56,-64,-202
-49,-61,0,64,-28,-50,-106,-54,-82,-56,-64,-202
-49,-61,0,64,-28,-50,-106,-54,-82,-62,-64,-208
-49,-61,0,64,-28,-50,-106,-54,-82,-62,-64,-214
-49,-61,0,64,-28,-50,-106,-54,-82,-62,-64,-214
-49,-61,0,64,-28,-50,-106,-54,-82,-62,-64,-220
-55,-61,0,64,-34,-50,-106,-54,-82,-62,-64,-220
-55,-61,0,64,-34,-50,-106,-54,-82,-62,-64,-220
-55,-61,0,64,-34,-50,-106,-54,-82,-62,-64,-220
-55,-61,0,64,-34,-50,-112,-54,-88,-62,-64,-220
-55,-61,0,64,-34,-50,-112,-54,-94,-62,-70,-220
-55,-61,0,64,-34,-50,-112,-54,-94,-62,-70,-220
-55,-61,0,64,-40,-50,-112,-54,-94,-62,-70,-220
-55,-61,0,64,-40,-50,-112,-54,-94,-62,-70,-220
-55,-61,0,64,-40,-50,-112,-54,-94,-62,-70,-220
-55,-61,0,64,-40,-50,-118,-54,-94,-62,-76,-220
-55,-61,0,64,-40,-50,-118,-54,-94,-62,-76,-220
-55,-61,0,64,-40,-50,-118,-54,-94,-62,-76,-220
-55,-67,0,64,-40,-50,-118,-54,-94,-62,-76,-220
-55,-73,0,64,-40,-50,-118,-54,-94,-62,-82,-220
-55,-73,0,64,-40,-50,-118,-54,-94,-62,-82,-220
-55,-73,0,64,-40,-50,-124,-54,-94,-62,-82,-220
-55,-73,0,64,-40,-50,-124,-54,-94,-62,-82,-220
-55,-73,0,70,-40,-50,-124,-54,-94,-62,-82,-220
-55,-73,0,76,-40,-50,-124,-54,-94,-62,-82,-220
-55,-73,0,76,-40,-50,-124,-54,-94,-62,-82,-220
-55,-73,0,76,-40,-50,-130,-54,-94,-62,-82,-220
-55,-73,0,76,-40,-50,-130,-54,-94,-62,-82,-220
-55,-73,0,76,-40,-50,-130,-54,-94,-62,-82,-220
-55,-73,0,76,-40,-50,-130,-54,-94,-62,-82,-220
-55,-73,0,76,-40,-50,-130,-54,-94,-68,-82,-220
-55,-73,0,76,-40,-50,-130,-54,-94,-74,-82,-220
-55,-73,0,76,-40,-50,-130,-54,-94,-74,-82,-220
-55,-73,0,76,-40,-50,-130,-54,-94,-74,-82,-220
-55,-73,0,76,-40,-50,-130,-54,-94,-74,-82,-226
-55,-73,0,76,-40,-50,-130,-54,-94,-74,-82,-226
-55,-73,0,76,-40,-50,-130,-54,-94,-74,-82,-226
-55,-73,0,76,-40,-50,-130,-54,-94,-74,-82,-226
-55,-73,0,76,-40,-50,-136,-54,-94,-74,-82,-226
-55,-73,0,76,-40,-50,-136,-54,-94,-74,-82,-226
-55,-73,0,76,-40,-50,-136,-54,-94,-74,-82,-226
-55,-73,0,76,-40,-50,-136,-54,-94,-74,-82,-226
-55,-73,0,76,-40,-50,-136,-54,-94,-74,-82,-226
-55,-73,0,76,-40,-50,-136,-54,-94,-74,-82,-226
-55,-73,0,76,-40,-50,-136,-54,-94,-74,-82,-226
-55,-73,0,76,-40,-50,-136,-54,-94,-74,-82,-226
-55,-73,0,76,-40,-50,-136,-54,-94,-74,-82,-226
-55,-73,0,76,-40,-50,-136,-54,-94,-74,-82,-226
-55,-73,0,76,-40,-50,-136,-54,-94,-74,-82,-226
-61,-73,0,76,-40,-50,-136,-54,-94,-74,-82,-226
-61,-73,0,76,-40,-50,-136,-54,-94,-74,-82,-226
-61,-73,-6,76,-40,-50,-136,-54,-94,-74,-82,-226
-61,-73,-6,76,-40,-50,-136,-54,-94,-74,-82,-226
-61,-73,-6,76,-40,-50,-136,-54,-100,-74,-82,-226
-61,-73,-6,76,-40,-50,-136,-54,-100,-74,-82,-226
-61,-73,-6,76,-40,-50,-136,-54,-100,-74,-82,-226
-61,-73,-6,76,-40,-50,-136,-54,-100,-74,-82,-226
-61,-73,-6,76,-40,-50,-136,-54,-100,-74,-82,-226
-61,-73,-6,76,-40,-50,-136,-54,-100,-74,-82,-226
-61,-73,-6,76,-40,-50,-136,-54,-100,-74,-82,-226
-61,-73,-6,76,-40,-50,-136,-54,-100,-74,-82,-226
-61,-73,-6,76,-40,-50,-136,-54,-100,-74,-82,-226
-61,-73,-6,76,-40,-50,-136,-54,-100,-74,-88,-226
-61,-73,-6,76,-40,-50,-136,-54,-100,-74,-88,-226
-61,-73,-6,76,-40,-50,-136,-54,-100,-74,-88,-226
-61,-73,-6,76,-40,-50,-136,-54,-100,-74,-88,-226
-61,-73,-6,76,-40,-50,-136,-54,-100,-74,-88,-226
-61,-79,-6,76,-40,-50,-136,-54,-100,-74,-88,-226
-61,-79,-6,76,-40,-50,-136,-54,-100,-74,-88,-226
-61,-79,-6,76,-40,-50,-136,-54,-100,-74,-88,-226
-61,-79,-6,76,-40,-50,-136,-54,-100,-74,-88,-226
-61,-79,-6,76,-40,-50,-136,-54,-100,-74,-88,-226
-61,-85,-6,76,-40,-50,-136,-54,-100,-74,-88,-226
-61,-91,-6,76,-40,-50,-136,-54,-100,-74,-88,-226
-61,-91,-6,76,-40,-50,-136,-54,-100,-74,-88,-226
-61,-91,-6,76,-40,-50,-136,-54,-100,-74,-88,-226
-61,-91,-6,76,-40,-50,-136,-54,-100,-74,-88,-226
-61,-91,-6,76,-40,-50,-136,-54,-100,-74,-88,-226
-61,-91,-6,76,-40,-50,-136,-54,-100,-74,-88,-226
-61,-91,-12,76,-40,-50,-136,-54,-100,-74,-88,-226
-61,-91,-12,76,-40,-50,-136,-54,-100,-74,-88,-226
-61,-91,-12,76,-40,-50,-136,-54,-100,-74,-88,-226
-61,-91,-12,76,-40,-50,-136,-54,-100,-74,-88,-226
-61,-91,-12,76,-40,-50,-136,-54,-100,-74,-88,-226
-61,-91,-12,76,-40,-50,-136,-54,-100,-74,-88,-226
-61,-91,-12,76,-40,-50,-136,-54,-100,-74,-88,-226
-61,-91,-12,76,-40,-50,-136,-54,-100,-74,-88,-226
-61,-91,-12,76,-40,-50,-136,-54,-100,-74,-88,-226
-61,-91,-12,76,-40,-50,-136,-54,-100,-74,-88,-226
-61,-91,-12,76,-40,-50,-136,-54,-100,-74,-88,-226
-61,-91,-12,76,-40,-50,-136,-54,-106,-74,-88,-226
-61,-91,-12,76,-40,-50,-136,-54,-106,-74,-88,-226
-61,-91,-12,76,-40,-50,-136,-54,-106,-74,-88,-226
-61,-91,-12,76,-40,-50,-136,-54,-106,-74,-88,-226
-61,-91,-12,76,-40,-50,-136,-54,-106,-74,-88,-226
-61,-91,-12,76,-40,-50,-136,-54,-106,-74,-88,-226
-61,-91,-12,76,-40,-50,-136,-54,-106,-74,-88,-226
-61,-91,-12,76,-40,-50,-136,-54,-112,-74,-88,-226
-61,-91,-12,76,-40,-50,-136,-54,-112,-74,-88,-226
-61,-91,-12,76,-40,-50,-136,-54,-112,-74,-88,-226
-61,-91,-12,76,-40,-50,-136,-54,-112,-74,-88,-226
-61,-91,-12,76,-40,-50,-136,-54,-112,-74,-88,-226
-61,-91,-12,76,-40,-50,-136,-54,-112,-74,-88,-226
-61,-91,-12,76,-40,-50,-136,-54,-112,-74,-88,-226
-61,-91,-12,76,-40,-50,-136,-54,-112,-74,-88,-226
-61,-91,-12,76,-40,-50,-136,-54,-112,-74,-88,-226
-67,-91,-12,76,-40,-50,-136,-54,-112,-74,-88,-226
-67,-91,-12,76,-40,-50,-136,-54,-112,-74,-88,-226
-67,-91,-12,76,-40,-50,-136,-54,-112,-74,-88,-226
-67,-91,-12,76,-40,-50,-136,-54,-112,-74,-88,-226
-67,-91,-12,76,-40,-50,-136,-54,-112,-74,-88,-226
-67,-91,-12,76,-40,-50,-136,-54,-112,-74,-88,-226
-67,-91,-12,76,-40,-50,-136,-54,-112,-74,-88,-226
-67,-85,-12,76,-40,-50,-136,-54,-112,-74,-88,-226
-61,-79,-12,70,-40,-44,-136,-54,-112,-74,-88,-226
-61,-79,-12,70,-40,-44,-136,-54,-112,-74,-88,-226
-61,-73,-12,64,-40,-38,-136,-54,-112,-74,-88,-220
-55,-67,-12,58,-40,-38,-130,-48,-106,-68,-88,-214
-55,-61,-6,58,-40,-32,-124,-42,-100,-62,-88,-208
-55,-55,0,52,-40,-26,-118,-36,-100,-56,-88,-202
-55,-49,5,46,-40,-20,-112,-30,-100,-56,-82,-202
-55,-43,5,46,-40,-14,-106,-24,-94,-50,-76,-202
-55,-43,5,46,-40,-14,-100,-24,-88,-50,-70,-202
-55,-43,5,40,-40,-14,-94,-18,-82,-44,-64,-202
-55,-43,5,40,-40,-14,-88,-18,-82,-44,-64,-202
-55,-43,5,40,-40,-14,-82,-12,-82,-44,-64,-202
-55,-37,5,40,-40,-8,-76,-12,-82,-44,-64,-202
-49,-31,11,34,-40,-3,-70,-12,-82,-44,-64,-196
-49,-25,11,34,-40,3,-64,-6,-76,-44,-64,-196
-43,-25,11,34,-40,3,-58,-1,-70,-38,-64,-196
-37,-25,11,28,-40,3,-52,11,-58,-32,-58,-190
-31,-19,11,22,-40,3,-46,23,-46,-20,-52,-184
-25,-7,11,16,-40,3,-40,29,-34,-8,-40,-178
-19,4,17,4,-40,9,-34,35,-22,-2,-34,-172
-7,22,23,-7,-34,15,-28,47,-10,3,-28,-166
4,34,23,-19,-22,15,-28,59,-4,9,-22,-160
22,40,17,-31,-10,15,-28,65,1,15,-16,-160
28,40,17,-37,-4,15,-28,71,7,21,-10,-148
28,46,17,-43,-4,21,-28,71,13,27,-4,-136
34,52,17,-49,-4,21,-28,71,19,33,1,-130
40,52,17,-55,-4,21,-28,71,19,33,7,-124
46,52,17,-55,1,21,-28,71,19,33,7,-124
46,52,17,-55,1,21,-28,71,19,33,7,-124
46,52,17,-55,1,21,-28,71,19,33,7,-124
46,52,17,-55,1,21,-40,71,19,33,7,-124
46,40,11,-49,1,21,-52,65,19,33,7,-124
46,34,5,-43,1,21,-64,59,13,33,7,-124
46,28,0,-37,7,15,-76,53,1,21,1,-124
46,16,-12,-31,13,3,-82,47,-4,15,-4,-124
46,4,-18,-25,13,-3,-88,41,-10,9,-4,-124
46,-7,-24,-19,13,-8,-88,35,-16,3,-10,-124
46,-7,-24,-19,13,-14,-94,29,-22,-2,-16,-130
46,-7,-30,-19,13,-14,-100,17,-28,-8,-22,-136
46,-7,-30,-19,13,-14,-106,11,-28,-8,-28,-142
46,-7,-30,-19,13,-14,-106,11,-28,-8,-28,-142
46,-7,-30,-19,13,-14,-106,11,-28,-8,-28,-142
46,-7,-30,-19,13,-14,-106,11,-28,-8,-28,-142
46,-7,-30,-19,13,-14,-106,5,-34,-8,-28,-142
40,-7,-30,-19,13,-14,-106,-1,-40,-14,-34,-142
34,-13,-30,-13,13,-14,-106,-6,-52,-20,-40,-142
22,-19,-30,-2,7,-14,-106,-18,-64,-26,-46,-142
10,-25,-24,10,1,-14,-112,-30,-70,-32,-52,-148
-1,-37,-24,22,-4,-14,-112,-42,-76,-38,-58,-154
-13,-49,-24,28,-10,-20,-118,-54,-88,-50,-64,-166
-25,-61,-24,40,-10,-26,-124,-60,-100,-62,-70,-178
-37,-73,-24,52,-16,-32,-130,-72,-106,-74,-76,-190
-43,-79,-24,58,-22,-38,-136,-78,-112,-80,-82,-196
-49,-79,-24,64,-22,-38,-136,-84,-118,-86,-88,-202
-55,-79,-24,64,-28,-38,-136,-90,-130,-92,-94,-208
-61,-79,-24,64,-28,-38,-142,-96,-136,-98,-100,-214
-61,-79,-18,64,-28,-38,-142,-102,-136,-104,-100,-214
-61,-79,-18,70,-28,-38,-142,-108,-142,-104,-100,-214
-67,-79,-18,70,-28,-38,-142,-114,-142,-104,-100,-214
-73,-79,-18,70,-28,-38,-142,-114,-142,-110,-106,-214
-73,-85,-18,70,-28,-44,-142,-114,-142,-116,-112,-214
-73,-91,-18,76,-28,-50,-142,-114,-142,-116,-118,-214
-73,-97,-18,82,-28,-50,-142,-114,-142,-116,-118,-214
-73,-97,-18,82,-28,-50,-142,-114,-142,-116,-118,-214
-73,-97,-18,82,-28,-50,-142,-114,-142,-116,-118,-214
-73,-97,-18,82,-34,-44,-142,-114,-142,-116,-118,-214
-73,-91,-12,82,-40,-38,-142,-114,-142,-116,-112,-208
-73,-85,0,82,-46,-32,-142,-114,-136,-110,-106,-202
-73,-79,5,82,-46,-26,-142,-108,-130,-98,-94,-190
-73,-73,17,82,-52,-26,-136,-102,-118,-86,-88,-178
-79,-67,41,82,-64,-20,-130,-90,-106,-74,-76,-166
-85,-55,53,82,-76,-8,-124,-66,-88,-50,-64,-154
-91,-49,65,82,-82,3,-112,-42,-64,-32,-52,-142
-97,-43,71,82,-94,15,-100,-12,-52,-20,-40,-130
-109,-31,89,76,-106,39,-88,-1,-28,-2,-22,-118
-121,-19,119,76,-130,63,-76,23,-10,15,-4,-106
-127,-13,143,76,-148,75,-52,35,7,39,7,-94
-139,-7,161,76,-160,87,-28,53,37,51,19,-82
-151,4,191,76,-178,99,1,83,67,75,37,-76
-163,10,209,76,-196,111,19,107,85,93,49,-70
-175,16,233,76,-208,117,31,131,103,111,61,-64
-187,22,245,76,-220,129,55,155,115,123,67,-58
-217,22,263,82,-238,141,85,179,127,135,73,-58
-235,28,281,88,-268,159,115,203,133,141,79,-58
-265,34,311,100,-304,177,145,233,145,147,79,-58
-301,34,341,112,-334,189,217,287,163,147,79,-64
-343,34,371,130,-376,201,325,359,205,153,79,-70
-385,34,431,148,-418,225,445,467,301,183,79,-70
-409,52,509,154,-466,273,523,581,397,255,115,-64
-421,106,593,154,-508,339,571,659,499,363,193,-22
-421,166,635,136,-526,393,595,761,625,477,283,49
-421,226,665,106,-538,435,619,887,757,609,397,133
-415,274,689,76,-544,483,649,1055,925,753,517,223
-397,334,701,34,-544,525,661,1229,1087,909,655,319
-289,406,701,-49,-520,555,661,1403,1285,1083,823,445
-151,490,683,-175,-430,573,649,1613,1525,1305,1033,631
10,592,635,-301,-328,591,595,1847,1801,1551,1267,823
184,688,581,-433,-220,603,565,2134,2112,1803,1501,1009
352,778,509,-565,-100,609,535,2416,2429,2060,1747,1207
466,868,467,-679,-16,621,505,2583,2717,2342,1999,1423
586,946,425,-775,67,633,427,2613,2957,2599,2244,1621
706,988,353,-859,169,639,289,2607,3131,2803,2423,1765
784,1012,281,-901,247,639,205,2529,3263,2953,2561,1873
814,1018,245,-919,289,639,187,2398,3371,3079,2663,1927
820,1018,215,-919,307,633,181,2242,3443,3163,2729,1963
820,976,161,-907,319,591,175,2027,3449,3169,2735,1969
814,874,95,-853,325,495,163,1775,3371,3091,2675,1927
766,718,23,-739,331,375,163,1517,3077,2773,2376,1723
652,562,-18,-607,331,273,163,1223,2681,2348,1999,1441
484,442,-18,-475,271,231,163,845,2184,1905,1603,1165
292,358,29,-319,127,213,163,449,1597,1449,1213,901
106,256,113,-181,-10,207,163,59,973,981,847,637
-43,166,161,-67,-100,201,151,-276,385,549,505,391
-121,100,191,10,-142,189,121,-492,-28,243,259,199
-175,46,197,64,-178,159,103,-576,-226,57,97,61
-217,-31,197,118,-196,117,97,-600,-292,-44,-4,-28
-247,-79,191,166,-208,75,91,-600,-322,-116,-70,-88
-259,-109,179,184,-214,45,79,-600,-340,-158,-124,-136
-265,-127,173,196,-214,21,67,-600,-364,-206,-154,-166
-277,-145,167,208,-214,3,37,-600,-394,-236,-184,-190
-283,-157,161,220,-214,-8,7,-600,-406,-248,-208,-202
-289,-163,161,226,-214,-14,-5,-576,-406,-254,-214,-208
-289,-163,155,226,-214,-14,-22,-534,-400,-254,-214,-208
-283,-163,143,226,-208,-20,-40,-492,-394,-254,-214,-208
-271,-163,119,226,-196,-26,-58,-456,-382,-254,-214,-208
-259,-163,101,220,-184,-32,-76,-420,-370,-254,-214,-208
-247,-163,89,208,-178,-32,-94,-378,-352,-248,-214,-208
-223,-157,77,196,-160,-32,-106,-336,-322,-236,-208,-202
-193,-151,71,172,-136,-32,-118,-294,-292,-224,-202,-190
-169,-145,65,154,-124,-32,-124,-264,-262,-212,-196,-184
-157,-139,59,148,-112,-32,-130,-234,-250,-200,-190,-178
-151,-133,59,142,-106,-32,-130,-216,-244,-194,-184,-172
-145,-133,53,136,-100,-32,-130,-204,-238,-188,-184,-172
-145,-133,47,130,-94,-32,-130,-198,-238,-188,-184,-172
-145,-127,47,130,-94,-32,-130,-192,-238,-188,-184,-172
-145,-127,47,130,-94,-32,-136,-186,-238,-188,-184,-166
-145,-127,47,130,-94,-32,-136,-180,-232,-188,-184,-166
-139,-127,47,124,-94,-32,-136,-180,-232,-188,-184,-166
-133,-121,47,118,-94,-32,-136,-180,-232,-188,-178,-166
-127,-115,47,118,-88,-32,-142,-180,-232,-188,-178,-166
-127,-115,47,118,-88,-32,-148,-174,-226,-188,-178,-166
-127,-115,47,118,-88,-32,-148,-174,-226,-188,-178,-166
-127,-115,41,118,-88,-32,-148,-168,-226,-188,-178,-166
-121,-115,41,118,-82,-32,-148,-168,-226,-188,-178,-160
-121,-115,41,118,-82,-32,-148,-168,-226,-188,-172,-160
-121,-115,41,118,-82,-32,-148,-168,-226,-188,-172,-160
-121,-115,41,118,-82,-32,-148,-168,-226,-188,-166,-160
-115,-115,35,118,-76,-32,-148,-162,-226,-188,-166,-160
-115,-109,29,118,-70,-32,-148,-162,-226,-188,-166,-160
-115,-109,29,118,-70,-32,-148,-156,-220,-182,-166,-154
-115,-109,29,118,-70,-32,-148,-156,-220,-182,-166,-154
-115,-109,29,112,-70,-32,-148,-156,-220,-182,-166,-154
-115,-109,29,112,-70,-32,-148,-156,-220,-182,-166,-154
-115,-109,29,112,-70,-32,-148,-156,-220,-176,-166,-148
-115,-109,29,112,-70,-32,-148,-150,-220,-176,-160,-148
-109,-109,23,112,-70,-38,-148,-144,-220,-176,-154,-148
-109,-109,23,112,-64,-38,-148,-138,-220,-176,-154,-148
-109,-109,23,112,-64,-38,-148,-138,-220,-176,-154,-148
-109,-109,23,106,-64,-38,-148,-138,-220,-176,-154,-148
-103,-109,23,106,-64,-38,-148,-138,-214,-176,-154,-148
-97,-109,23,106,-64,-38,-148,-138,-214,-176,-154,-142
-97,-109,23,106,-64,-38,-148,-138,-208,-170,-154,-142
-97,-103,23,106,-64,-38,-148,-138,-208,-170,-154,-142
-97,-103,23,106,-64,-38,-148,-138,-208,-170,-154,-142
-91,-97,23,100,-58,-38,-148,-138,-202,-170,-148,-136
-91,-91,23,94,-58,-38,-148,-138,-202,-170,-148,-130
-85,-91,23,88,-58,-38,-148,-138,-202,-170,-148,-130
-85,-85,23,82,-58,-38,-148,-138,-196,-170,-148,-130
-85,-85,23,82,-58,-38,-148,-132,-190,-164,-142,-124
-79,-85,23,82,-52,-38,-148,-126,-190,-158,-136,-118
-79,-85,23,82,-52,-38,-148,-120,-190,-158,-136,-112
-79,-79,23,76,-52,-38,-148,-120,-190,-158,-136,-112
-73,-73,23,70,-52,-38,-148,-120,-190,-158,-136,-112
-73,-67,23,70,-52,-38,-148,-114,-184,-158,-136,-106
-67,-67,23,70,-52,-38,-148,-108,-178,-158,-136,-106
-61,-67,23,70,-52,-38,-148,-108,-178,-158,-136,-106
-61,-67,23,70,-52,-38,-154,-108,-178,-152,-130,-106
-61,-67,23,70,-52,-38,-154,-108,-178,-152,-130,-106
-61,-67,23,70,-52,-38,-154,-108,-172,-152,-130,-106
-61,-67,23,70,-52,-38,-154,-108,-172,-152,-124,-100
-55,-67,23,64,-52,-38,-154,-102,-172,-146,-124,-100
-49,-61,23,58,-46,-38,-154,-102,-172,-146,-118,-94
-49,-61,23,58,-46,-38,-154,-102,-172,-146,-118,-94
-49,-61,23,58,-46,-38,-154,-96,-166,-140,-112,-88
-49,-61,23,58,-46,-32,-160,-96,-160,-140,-106,-82
-49,-55,23,52,-46,-32,-166,-90,-154,-134,-100,-76
-43,-49,23,46,-46,-32,-172,-84,-154,-128,-94,-70
-43,-49,23,46,-46,-32,-178,-78,-154,-122,-94,-64
-43,-43,23,46,-46,-26,-184,-72,-148,-116,-88,-58
-37,-37,23,46,-46,-20,-184,-66,-142,-110,-82,-52
-31,-31,23,40,-40,-20,-184,-66,-136,-104,-82,-46
-31,-31,23,40,-40,-20,-184,-60,-130,-104,-82,-46
-31,-31,23,34,-40,-20,-190,-54,-130,-104,-76,-46
-31,-31,23,34,-40,-20,-190,-48,-124,-98,-70,-46
-25,-31,23,28,-34,-20,-190,-48,-124,-98,-70,-46
-19,-25,23,22,-28,-20,-196,-42,-118,-92,-64,-40
-13,-19,23,16,-28,-14,-202,-36,-112,-86,-58,-34
-7,-13,23,10,-28,-8,-202,-30,-106,-80,-52,-28
-1,-7,23,4,-28,-3,-208,-18,-100,-74,-46,-16
4,4,23,-2,-22,3,-214,-12,-94,-68,-34,-10
10,10,23,-7,-16,3,-220,-6,-88,-62,-28,1
16,16,23,-13,-10,3,-226,5,-82,-56,-22,7
22,16,23,-19,-4,3,-232,11,-76,-56,-16,13
22,22,23,-19,-4,9,-232,17,-70,-50,-10,19
28,28,23,-25,-4,15,-232,29,-64,-44,-4,25
34,34,23,-31,-4,21,-232,41,-52,-38,1,37
40,40,23,-37,-4,27,-232,47,-46,-26,13,49
46,46,23,-43,1,27,-238,59,-40,-20,25,61
58,58,23,-49,7,33,-244,71,-34,-8,37,73
64,70,23,-61,7,33,-250,83,-28,3,43,79
70,76,23,-67,7,33,-256,95,-16,9,55,91
76,82,23,-73,13,39,-262,107,-10,15,61,97
82,94,23,-79,13,45,-268,119,-4,21,67,103
88,106,23,-85,13,51,-268,131,7,27,73,109
94,118,23,-97,13,57,-268,143,13,33,79,115
100,124,23,-109,19,63,-274,149,19,39,79,121
106,130,23,-121,25,69,-280,155,31,45,85,127
112,130,23,-127,25,69,-286,167,43,51,97,133
118,136,23,-127,25,69,-286,173,49,57,103,139
124,142,29,-133,25,75,-286,179,55,63,115,151
130,154,35,-139,25,81,-286,185,67,75,121,157
136,160,35,-145,25,87,-286,197,73,81,127,169
136,166,35,-145,25,93,-286,209,85,87,133,181
136,166,35,-145,31,93,-286,215,97,99,139,187
142,172,35,-151,37,99,-286,221,103,105,145,193
142,178,41,-151,37,105,-286,233,109,111,151,199
142,178,47,-151,37,105,-286,239,115,123,163,205
142,178,47,-157,37,105,-286,251,121,129,169,211
142,178,53,-157,37,105,-286,257,127,135,175,211
142,178,53,-157,37,105,-286,263,133,141,181,211
142,178,53,-157,37,105,-286,275,145,141,187,211
142,178,59,-157,37,105,-280,281,157,147,193,217
142,178,59,-157,37,111,-274,287,169,153,193,223
142,178,59,-157,37,117,-268,293,175,159,199,229
142,178,59,-157,37,117,-268,305,181,165,199,229
142,178,65,-157,37,117,-262,317,187,171,199,229
142,178,65,-157,37,117,-250,323,193,177,199,229
142,178,65,-157,37,117,-238,329,199,177,199,229
142,178,65,-157,37,117,-226,335,205,177,199,229
136,178,71,-151,31,117,-214,335,205,177,199,223
124,178,77,-145,25,117,-202,335,211,177,199,217
118,172,77,-139,25,117,-190,335,211,177,199,211
112,166,77,-133,25,111,-184,335,211,177,199,205
106,160,77,-133,25,105,-172,335,211,177,193,199
100,154,77,-127,19,105,-166,335,211,171,187,193
88,142,77,-121,7,105,-160,335,211,165,181,181
76,136,77,-109,1,105,-148,335,211,159,175,169
64,130,77,-97,-4,105,-136,329,205,153,163,157
58,124,77,-85,-10,105,-124,317,193,153,157,145
52,118,77,-79,-16,105,-112,299,181,147,145,133
46,112,77,-73,-22,99,-100,287,175,141,139,127
40,100,77,-61,-22,93,-88,275,169,129,127,115
28,94,77,-49,-28,87,-82,263,163,117,115,103
16,82,77,-43,-34,81,-76,251,151,105,103,91
4,70,77,-31,-40,81,-70,239,145,93,91,85
-7,58,77,-25,-46,75,-64,227,133,87,79,73
-13,46,77,-13,-46,69,-58,215,121,75,67,61
-19,34,77,-2,-52,69,-52,197,103,69,55,49
-25,28,77,4,-52,63,-46,173,91,63,49,37
-37,22,77,16,-58,63,-40,161,79,51,37,31
-49,16,77,22,-64,63,-34,149,67,45,31,25
-55,10,77,28,-64,57,-28,137,61,33,25,19
-61,4,77,34,-70,51,-28,125,55,27,19,13
-67,-2,77,40,-70,45,-28,119,49,21,13,7
-73,-13,77,46,-70,39,-28,113,43,15,7,7
-79,-19,77,52,-76,33,-28,107,31,9,1,1
-79,-25,77,52,-76,33,-28,95,25,3,-4,-4
-85,-25,77,52,-76,27,-28,83,13,-2,-10,-10
-91,-25,77,58,-82,27,-28,77,1,-8,-16,-16
-97,-31,77,64,-88,27,-28,65,-4,-14,-16,-22
-97,-37,77,70,-88,27,-28,59,-10,-20,-16,-22
-97,-37,77,70,-88,27,-28,53,-16,-26,-22,-22
-103,-37,77,70,-88,27,-28,47,-16,-26,-28,-28
-109,-37,77,70,-88,27,-28,47,-16,-32,-28,-28
-109,-37,77,70,-88,27,-28,47,-16,-32,-28,-28
-109,-43,77,70,-88,27,-28,47,-16,-32,-28,-34
-109,-43,77,70,-88,27,-28,41,-22,-38,-34,-34
-109,-43,77,70,-88,27,-28,35,-28,-38,-40,-34
-115,-43,77,76,-94,27,-28,35,-28,-38,-40,-34
-121,-43,77,82,-100,27,-28,35,-28,-38,-40,-34
-121,-43,77,82,-100,27,-28,29,-28,-38,-40,-34
-121,-43,77,82,-100,27,-28,29,-34,-38,-40,-34
-121,-43,77,82,-100,27,-28,29,-34,-38,-40,-34
-121,-43,77,82,-100,27,-28,29,-34,-38,-40,-34
-121,-49,77,82,-100,27,-28,23,-34,-38,-40,-34
-121,-55,77,82,-100,21,-28,23,-34,-38,-40,-34
-121,-55,77,82,-100,21,-28,23,-34,-38,-40,-34
-121,-55,77,82,-100,21,-28,23,-34,-38,-40,-34
-121,-55,77,82,-100,21,-28,23,-34,-38,-40,-34
-121,-55,77,82,-100,21,-28,23,-34,-38,-40,-34
-121,-55,77,82,-100,21,-28,23,-34,-38,-40,-34
-121,-55,77,82,-100,21,-28,23,-34,-38,-40,-34
-121,-55,77,82,-100,21,-28,23,-34,-38,-40,-34
-121,-55,77,82,-100,21,-28,23,-34,-38,-40,-34
-121,-55,77,82,-100,21,-28,23,-34,-38,-40,-34
-121,-55,77,82,-100,21,-28,23,-34,-38,-40,-34
-121,-55,77,82,-100,21,-28,23,-34,-38,-40,-34
-121,-55,77,82,-100,21,-28,23,-34,-38,-40,-34
-121,-55,77,82,-100,21,-28,23,-34,-38,-40,-34
-121,-55,77,82,-100,21,-28,23,-34,-38,-40,-34
-121,-55,77,82,-100,21,-28,23,-34,-38,-40,-34
-121,-55,77,82,-100,21,-28,23,-34,-38,-40,-34
-121,-55,77,82,-106,21,-28,23,-34,-38,-40,-34
-121,-55,77,82,-106,21,-28,23,-34,-38,-40,-34
-121,-55,77,82,-106,21,-28,23,-34,-38,-40,-34
-121,-55,77,82,-106,21,-28,23,-34,-38,-40,-34
-121,-55,77,82,-106,21,-28,23,-34,-38,-34,-28
-121,-55,77,82,-106,21,-28,23,-34,-38,-34,-22
-121,-55,77,82,-106,21,-28,23,-34,-38,-34,-16
-121,-55,83,82,-112,21,-34,23,-34,-38,-34,-16
-121,-55,83,82,-112,21,-34,23,-34,-32,-28,-10
-121,-55,83,82,-112,21,-34,23,-34,-26,-28,-10
-121,-55,83,82,-112,21,-34,23,-34,-26,-22,-4
-121,-49,83,82,-112,21,-40,23,-34,-26,-22,-4
-121,-49,83,82,-112,21,-40,23,-34,-26,-16,-4
-121,-49,83,82,-112,21,-40,23,-34,-26,-16,1
-121,-49,83,82,-112,21,-40,23,-34,-26,-10,7
-121,-43,83,82,-112,21,-40,23,-34,-26,-10,7
-121,-43,83,82,-112,21,-40,23,-34,-26,-10,7
-121,-43,83,82,-112,21,-40,23,-34,-26,-10,7
-121,-43,83,82,-112,21,-40,23,-34,-26,-10,7
-121,-43,83,82,-112,21,-40,23,-34,-26,-10,7
-121,-43,83,82,-112,21,-40,23,-34,-26,-10,7
-121,-37,83,82,-112,21,-40,23,-34,-26,-10,13
-121,-37,83,82,-112,21,-40,23,-34,-26,-10,13
-121,-37,83,82,-112,21,-40,23,-34,-26,-10,13
-121,-37,83,82,-112,21,-40,23,-34,-26,-10,13
-121,-37,83,82,-112,21,-40,23,-34,-26,-10,19
-121,-31,83,82,-112,21,-40,23,-34,-20,-4,19
-121,-31,83,76,-112,21,-40,23,-34,-20,-4,19
-121,-31,83,76,-112,21,-40,23,-34,-20,-4,19
-121,-31,83,76,-112,21,-40,23,-34,-20,-4,19
-121,-31,83,76,-112,21,-40,23,-34,-20,-4,19
-121,-31,83,76,-112,21,-40,23,-34,-20,-4,19
-115,-31,83,76,-112,21,-40,23,-34,-20,-4,19
-109,-31,83,76,-112,21,-40,23,-34,-20,-4,19
-109,-31,83,70,-112,21,-40,23,-34,-20,-4,19
-109,-31,83,70,-112,21,-40,17,-34,-20,-4,19
-109,-31,83,70,-112,21,-40,17,-34,-20,-4,19
-109,-31,83,70,-112,21,-40,17,-34,-20,-4,19
-109,-31,83,70,-112,21,-40,17,-34,-20,-4,19
-109,-31,83,70,-112,21,-40,11,-34,-20,-4,19
-109,-31,83,70,-112,21,-40,11,-34,-20,-4,19
-109,-31,77,70,-106,21,-46,11,-34,-20,-4,19
-103,-31,77,70,-100,21,-46,11,-40,-20,-4,19
-103,-31,77,70,-100,21,-46,5,-40,-20,-4,19
-103,-31,77,70,-100,21,-46,5,-46,-20,-4,19
-103,-31,77,70,-100,21,-46,5,-46,-20,-4,19
-103,-31,77,64,-100,21,-46,5,-46,-20,-4,19
-103,-31,77,64,-100,21,-46,5,-46,-20,-4,19
-103,-31,77,64,-100,21,-46,-1,-46,-20,-4,19
-103,-31,77,64,-100,21,-46,-1,-46,-26,-10,19
-103,-31,77,64,-100,21,-46,-1,-52,-32,-10,19
-103,-31,77,64,-100,21,-46,-6,-52,-32,-10,19
-103,-31,77,64,-94,21,-46,-6,-52,-32,-16,19
-103,-31,71,64,-88,21,-46,-6,-52,-32,-16,19
-103,-31,71,64,-88,21,-52,-6,-58,-32,-16,19
-103,-31,71,64,-88,21,-52,-6,-58,-32,-16,19
-97,-31,71,64,-88,21,-52,-6,-58,-32,-16,19
-97,-31,65,64,-88,21,-52,-6,-58,-32,-16,19
-97,-31,59,64,-82,21,-52,-6,-58,-32,-16,19
-97,-31,53,64,-82,21,-52,-6,-64,-38,-16,19
-97,-31,47,64,-82,21,-52,-6,-64,-44,-16,19
-97,-31,47,64,-82,21,-52,-12,-64,-44,-16,19
-91,-31,47,64,-76,21,-52,-18,-64,-44,-16,19
-85,-31,47,64,-76,21,-52,-24,-64,-44,-16,19
-85,-31,47,64,-76,21,-52,-24,-64,-44,-16,19
-85,-31,47,64,-76,21,-52,-24,-70,-44,-16,19
-85,-31,47,64,-76,15,-52,-30,-76,-50,-22,19
-85,-31,47,64,-76,15,-52,-30,-76,-50,-22,19
-85,-31,47,64,-76,15,-52,-30,-76,-50,-22,19
-85,-31,41,64,-76,15,-52,-36,-76,-56,-28,13
-85,-31,41,64,-76,15,-52,-36,-82,-62,-34,7
-85,-31,41,64,-76,15,-52,-42,-88,-62,-40,7
-85,-31,41,64,-76,15,-52,-42,-88,-62,-46,7
-85,-31,41,64,-76,9,-52,-48,-94,-62,-46,7
-85,-31,41,64,-70,9,-52,-48,-94,-68,-46,1
-85,-31,41,64,-64,3,-52,-54,-100,-68,-46,1
-85,-31,41,64,-64,3,-52,-60,-106,-74,-46,1
-85,-31,41,64,-64,3,-52,-60,-106,-74,-52,1
-85,-31,41,64,-64,3,-58,-60,-106,-74,-52,1
-85,-31,41,64,-64,3,-64,-66,-106,-74,-52,-4
-85,-31,35,64,-64,3,-64,-66,-106,-80,-52,-4
-85,-31,35,64,-64,3,-64,-66,-106,-80,-58,-4
-85,-31,35,64,-64,3,-64,-66,-106,-80,-58,-4
-85,-31,35,64,-64,3,-64,-66,-106,-80,-58,-4
-85,-31,35,64,-64,3,-70,-66,-106,-80,-58,-4
-85,-31,35,64,-58,3,-70,-66,-106,-80,-58,-4
-85,-31,35,64,-58,3,-76,-72,-112,-80,-64,-4
-85,-37,35,64,-58,3,-76,-72,-112,-80,-64,-4
-85,-37,35,64,-58,3,-76,-72,-112,-80,-64,-4
-79,-37,35,64,-58,3,-76,-72,-112,-86,-64,-4
-79,-37,29,64,-58,-3,-76,-72,-112,-86,-64,-4
-79,-37,29,64,-58,-3,-76,-72,-112,-86,-64,-4
-79,-37,29,64,-58,-3,-76,-78,-118,-86,-64,-4
-79,-37,23,64,-58,-3,-76,-78,-118,-86,-64,-4
-73,-37,17,58,-52,-8,-76,-78,-118,-86,-64,-4
-73,-37,17,58,-52,-14,-76,-78,-124,-86,-64,-4
-73,-37,17,58,-52,-14,-76,-78,-124,-92,-64,-4
-67,-37,17,58,-46,-14,-76,-84,-124,-98,-70,-10
-61,-37,17,58,-40,-14,-76,-84,-124,-98,-76,-10
-61,-37,17,58,-40,-14,-52,-84,-124,-98,-76,-10
-61,-37,17,58,-40,-14,-5,-84,-124,-98,-76,-10
-61,-37,17,58,-40,-14,31,-84,-124,-98,-76,-10
-61,-37,17,58,-40,-14,49,-84,-124,-104,-76,-10
-61,-37,17,58,-40,-14,61,-84,-124,-104,-76,-10
-61,-37,17,58,-40,-14,67,-84,-124,-104,-76,-10
-61,-37,17,58,-40,-14,73,-84,-124,-104,-76,-10
-61,-43,17,58,-40,-20,79,-84,-124,-104,-76,-10
-61,-43,11,58,-40,-20,85,-84,-124,-104,-76,-10
-61,-43,11,58,-40,-20,91,-90,-124,-104,-76,-10
-61,-43,11,58,-40,-20,91,-90,-124,-104,-76,-10
-61,-43,11,58,-40,-20,91,-90,-124,-104,-76,-10
-61,-43,11,58,-40,-20,91,-90,-124,-104,-76,-10
-61,-43,11,58,-40,-20,91,-90,-124,-104,-76,-10
-61,-43,11,58,-40,-20,91,-90,-124,-104,-76,-10
-55,-43,11,58,-40,-20,91,-90,-124,-104,-76,-10
-49,-43,5,58,-40,-20,91,-90,-124,-104,-76,-10
-49,-43,5,58,-40,-20,91,-90,-130,-110,-76,-10
-49,-43,5,58,-40,-20,91,-90,-130,-110,-76,-10
-49,-43,5,58,-40,-20,91,-90,-130,-110,-76,-10
-49,-43,5,58,-40,-20,91,-90,-130,-110,-76,-10
-49,-43,0,58,-40,-20,91,-90,-130,-110,-76,-10
-49,-43,0,58,-40,-20,91,-90,-130,-110,-76,-10
-49,-43,0,58,-34,-20,91,-90,-130,-110,-76,-10
-49,-43,0,58,-34,-20,91,-90,-130,-116,-82,-10
-49,-43,0,58,-34,-20,91,-96,-130,-116,-88,-10
-49,-43,0,58,-34,-20,91,-96,-130,-116,-88,-10
-43,-43,0,58,-28,-26,91,-102,-130,-116,-88,-16
-43,-43,0,58,-28,-26,91,-102,-130,-122,-88,-16
-43,-43,0,58,-28,-26,91,-102,-130,-122,-88,-16
-43,-43,0,58,-28,-26,91,-108,-130,-122,-88,-16
-43,-43,0,52,-22,-26,91,-108,-136,-122,-88,-16
-43,-43,0,52,-22,-26,91,-108,-136,-122,-94,-16
-43,-43,0,52,-22,-26,91,-108,-142,-122,-94,-16
-43,-43,-6,52,-22,-26,91,-108,-142,-122,-94,-16
-43,-43,-6,52,-22,-32,91,-114,-142,-122,-94,-16
-43,-43,-6,52,-22,-32,91,-114,-142,-122,-94,-16
-43,-43,-6,52,-22,-32,91,-114,-142,-122,-94,-16
-43,-43,-12,52,-16,-32,85,-114,-142,-128,-94,-16
-43,-43,-18,52,-16,-32,85,-114,-142,-128,-94,-16
-37,-43,-18,52,-16,-32,85,-114,-142,-128,-100,-22
-37,-43,-18,52,-16,-32,85,-114,-142,-128,-100,-22
-37,-43,-18,46,-16,-32,85,-114,-142,-128,-100,-22
-37,-43,-18,46,-16,-32,85,-114,-142,-128,-100,-22
-37,-43,-18,46,-10,-38,79,-114,-142,-128,-100,-28
-37,-43,-18,46,-10,-38,79,-114,-142,-134,-100,-28
-37,-43,-18,46,-10,-38,79,-114,-142,-134,-100,-34
-31,-43,-24,46,-10,-38,79,-114,-142,-134,-100,-34
-31,-43,-30,46,-10,-38,79,-114,-142,-134,-100,-34
-31,-43,-30,46,-10,-38,79,-114,-142,-134,-100,-34
-31,-43,-30,46,-10,-38,79,-114,-142,-134,-100,-34
-31,-43,-30,46,-10,-38,79,-114,-142,-134,-100,-34
-31,-43,-30,46,-10,-44,79,-114,-142,-134,-100,-34
-31,-43,-30,46,-10,-44,79,-114,-142,-134,-100,-34
-31,-43,-30,46,-10,-44,79,-114,-142,-134,-100,-34
-25,-43,-30,46,-10,-44,79,-114,-142,-134,-100,-34
-25,-43,-30,46,-10,-44,79,-114,-142,-134,-100,-34
-25,-43,-30,46,-10,-44,79,-114,-142,-134,-100,-34
-25,-49,-30,46,-10,-44,79,-114,-142,-134,-100,-34
-25,-49,-36,46,-4,-44,79,-120,-142,-134,-106,-34
-25,-49,-36,46,-4,-44,79,-120,-142,-134,-106,-34
-25,-49,-36,40,-4,-44,79,-120,-148,-140,-106,-34
-25,-49,-36,40,-4,-44,79,-120,-148,-140,-106,-34
-25,-49,-36,40,1,-50,79,-120,-148,-140,-106,-34
-25,-49,-42,40,1,-50,79,-120,-148,-140,-112,-34
-19,-49,-42,40,1,-50,79,-126,-148,-140,-112,-34
-19,-49,-42,40,1,-50,73,-132,-148,-146,-112,-34
-19,-49,-42,40,1,-50,73,-138,-148,-146,-112,-34
-19,-49,-42,40,1,-50,73,-138,-148,-146,-112,-34
-13,-49,-42,40,1,-50,73,-138,-148,-146,-118,-34
-13,-49,-48,40,1,-50,73,-138,-148,-146,-118,-34
-13,-49,-48,40,1,-50,73,-138,-148,-146,-118,-34
-13,-49,-48,34,1,-50,67,-138,-148,-146,-118,-34
-13,-49,-48,34,1,-50,67,-138,-148,-146,-118,-34
-13,-49,-48,34,7,-50,61,-138,-148,-146,-118,-34
-13,-49,-48,34,7,-50,61,-138,-148,-146,-118,-34
-13,-49,-48,34,7,-50,61,-138,-148,-146,-118,-34
-7,-49,-48,34,7,-50,61,-138,-148,-146,-118,-34
-7,-49,-48,34,13,-50,61,-138,-148,-146,-124,-34
-7,-49,-48,34,13,-50,61,-144,-148,-146,-124,-34
-7,-49,-48,34,13,-50,61,-144,-148,-146,-124,-34
-7,-49,-48,34,13,-50,61,-144,-148,-146,-124,-34
-7,-49,-48,34,13,-50,61,-144,-148,-146,-124,-34
-7,-49,-48,34,13,-50,61,-144,-148,-146,-124,-34
-7,-49,-48,34,13,-50,61,-150,-148,-146,-124,-34
-7,-49,-48,34,13,-50,61,-150,-148,-146,-124,-34
-7,-49,-48,34,13,-50,61,-150,-148,-146,-124,-34
-7,-49,-54,34,13,-50,61,-150,-148,-146,-124,-34
-7,-49,-54,34,19,-50,61,-150,-154,-146,-124,-34
-7,-49,-54,34,19,-50,61,-150,-160,-146,-124,-34
-7,-49,-54,34,19,-50,61,-150,-160,-146,-124,-34
-7,-49,-54,34,19,-56,55,-150,-160,-146,-124,-34
-7,-49,-54,34,19,-56,55,-150,-160,-146,-124,-34
-7,-49,-54,34,19,-56,55,-150,-160,-146,-124,-34
-7,-49,-54,34,19,-56,55,-150,-160,-146,-124,-34
-7,-49,-54,34,19,-56,49,-150,-160,-146,-124,-34
-7,-49,-54,34,19,-56,49,-150,-160,-146,-124,-34
-7,-49,-54,34,19,-56,49,-150,-160,-146,-124,-34
-7,-49,-54,34,19,-56,49,-150,-160,-146,-124,-34
-7,-49,-54,34,19,-56,49,-150,-160,-146,-124,-34
-7,-49,-54,34,19,-56,49,-156,-160,-152,-124,-34
-7,-49,-54,34,19,-56,49,-156,-160,-152,-124,-34
-7,-49,-54,34,19,-56,49,-156,-160,-152,-124,-34
-7,-49,-54,34,25,-56,49,-156,-160,-152,-124,-34
-1,-49,-60,34,25,-56,49,-156,-160,-152,-124,-34
-1,-49,-60,34,31,-56,43,-162,-160,-158,-130,-40
-1,-49,-60,34,31,-56,43,-162,-160,-158,-130,-40
-1,-49,-60,34,31,-56,43,-162,-160,-158,-130,-40
-1,-49,-60,34,31,-56,43,-162,-160,-158,-130,-40
-1,-49,-60,34,31,-56,43,-162,-160,-158,-130,-40
-1,-49,-60,28,31,-56,43,-162,-160,-158,-130,-40
-1,-49,-60,28,31,-56,43,-162,-160,-158,-130,-40
-1,-49,-60,28,31,-56,43,-162,-160,-158,-130,-40
4,-49,-60,28,31,-56,43,-162,-160,-158,-130,-40
10,-49,-60,28,37,-56,43,-162,-160,-158,-130,-40
10,-49,-60,28,37,-56,43,-162,-160,-158,-130,-40
10,-49,-60,22,37,-56,43,-162,-160,-158,-130,-40
16,-49,-60,16,37,-56,43,-162,-160,-158,-130,-40
22,-43,-60,10,37,-56,49,-156,-160,-158,-130,-40
22,-37,-60,4,37,-56,55,-150,-160,-158,-130,-40
28,-31,-60,-2,37,-56,61,-150,-160,-158,-130,-40
34,-25,-60,-7,37,-56,61,-144,-160,-152,-130,-40
34,-19,-60,-7,37,-50,67,-138,-148,-146,-124,-34
34,-19,-60,-7,37,-44,73,-126,-142,-140,-118,-28
34,-19,-60,-7,37,-44,79,-120,-136,-134,-118,-22
40,-13,-60,-13,43,-44,85,-114,-130,-134,-118,-22
46,-7,-60,-19,43,-38,85,-114,-130,-134,-118,-22
46,-2,-48,-19,43,-32,91,-108,-124,-128,-112,-16
46,-2,-42,-19,43,-32,103,-102,-118,-128,-112,-16
46,-2,-42,-19,43,-32,109,-102,-118,-128,-112,-16
46,-2,-42,-19,43,-32,115,-102,-112,-128,-112,-16
52,-2,-42,-25,49,-32,121,-96,-112,-122,-106,-10
58,4,-42,-31,49,-32,127,-84,-106,-110,-100,-4
64,10,-42,-37,55,-32,133,-72,-94,-98,-94,1
70,16,-42,-43,61,-32,133,-60,-82,-86,-82,7
76,22,-42,-55,61,-32,133,-48,-76,-74,-70,13
88,28,-42,-67,67,-26,133,-42,-70,-68,-64,19
100,34,-48,-73,73,-26,133,-36,-58,-62,-58,25
112,40,-54,-85,85,-26,133,-30,-52,-56,-52,31
124,46,-60,-97,97,-26,133,-24,-46,-50,-52,37
130,46,-66,-103,103,-26,133,-18,-40,-50,-46,43
136,52,-66,-103,109,-26,133,-18,-40,-50,-46,49
142,58,-66,-103,109,-26,133,-18,-40,-44,-46,49
148,58,-72,-109,115,-26,127,-18,-40,-44,-46,49
148,58,-72,-109,115,-26,121,-18,-40,-44,-46,49
148,58,-72,-109,115,-26,115,-18,-40,-44,-46,49
148,58,-78,-109,115,-26,109,-18,-40,-44,-46,49
148,58,-84,-109,121,-32,97,-24,-40,-44,-46,49
148,58,-90,-109,121,-38,85,-36,-46,-50,-46,49
148,52,-96,-103,121,-44,73,-42,-52,-62,-52,43
148,40,-108,-103,127,-50,67,-48,-58,-68,-58,37
148,28,-120,-97,133,-56,61,-54,-64,-74,-64,31
148,22,-120,-97,133,-62,55,-60,-70,-80,-64,25
148,22,-120,-91,133,-62,49,-66,-76,-86,-64,25
148,22,-126,-91,133,-62,43,-78,-88,-92,-64,25
148,16,-132,-91,139,-68,37,-84,-94,-92,-64,25
148,16,-132,-91,139,-68,37,-90,-100,-92,-70,25
148,16,-132,-91,139,-68,37,-90,-100,-92,-70,25
148,16,-132,-91,139,-68,37,-90,-100,-92,-70,25
148,16,-132,-91,139,-68,37,-96,-106,-92,-70,25
148,16,-132,-91,139,-68,31,-102,-112,-98,-76,19
148,16,-132,-85,139,-68,25,-108,-118,-104,-82,13
136,10,-132,-73,133,-68,25,-114,-124,-116,-88,1
124,-2,-132,-61,127,-68,25,-126,-130,-122,-100,-4
106,-7,-132,-49,121,-68,19,-138,-136,-128,-112,-16
82,-19,-132,-37,109,-68,13,-150,-148,-140,-124,-22
70,-31,-132,-25,103,-74,13,-162,-160,-152,-136,-34
64,-43,-132,-13,103,-74,7,-174,-172,-164,-148,-46
58,-49,-132,-7,103,-80,7,-186,-184,-176,-154,-52
58,-55,-126,-2,97,-86,1,-192,-190,-182,-160,-58
58,-61,-126,-2,97,-86,1,-198,-196,-188,-160,-64
58,-61,-126,-2,97,-86,1,-204,-202,-194,-166,-64
58,-67,-126,-2,97,-86,-5,-210,-208,-200,-166,-64
58,-67,-126,-2,97,-86,-10,-210,-214,-200,-166,-70
58,-67,-126,-2,97,-86,-16,-216,-214,-200,-166,-70
58,-73,-126,4,91,-92,-22,-216,-214,-200,-166,-70
52,-73,-126,10,91,-92,-22,-216,-214,-200,-166,-70
52,-79,-126,10,91,-92,-22,-216,-220,-200,-172,-70
52,-79,-126,10,91,-92,-22,-216,-220,-200,-172,-70
52,-79,-126,10,91,-92,-22,-216,-220,-200,-172,-70
52,-79,-126,10,85,-92,-22,-216,-220,-200,-172,-70
52,-79,-126,10,85,-92,-22,-216,-220,-200,-172,-70
52,-73,-120,10,79,-92,-22,-216,-220,-200,-172,-70
52,-67,-114,10,79,-92,-22,-216,-214,-194,-166,-64
52,-61,-108,4,79,-92,-22,-210,-208,-188,-160,-58
52,-55,-96,4,79,-86,-22,-204,-196,-176,-154,-52
52,-43,-90,-2,79,-80,-22,-198,-184,-164,-142,-46
52,-31,-78,-2,73,-68,-16,-186,-172,-152,-130,-34
46,-25,-60,-2,61,-56,-5,-156,-160,-128,-118,-22
34,-13,-36,-2,31,-38,7,-132,-142,-110,-94,-4
34,-2,-24,-2,19,-26,19,-108,-124,-98,-76,7
22,10,0,-2,1,-8,43,-96,-106,-80,-64,19
-7,16,41,-2,-40,21,67,-66,-76,-56,-40,31
-25,22,71,-2,-58,33,91,-36,-46,-38,-22,43
-31,28,89,-2,-64,45,103,-12,-22,-14,-10,49
-37,34,107,-2,-70,51,115,11,1,3,1,55
-49,34,119,-2,-76,57,133,23,13,15,7,55
-61,34,131,4,-88,63,151,41,25,27,13,55
-85,34,143,16,-112,69,187,71,37,33,13,55
-115,34,155,28,-142,81,229,101,43,39,19,55
-145,34,185,58,-178,93,271,131,55,45,19,55
-175,34,221,70,-214,105,343,173,73,45,19,55
-223,34,263,82,-256,123,433,257,109,51,19,49
-265,34,311,106,-292,153,547,359,187,81,19,43
-295,40,377,112,-334,189,643,461,277,141,43,43
-319,76,449,112,-376,237,685,545,367,231,97,55
-325,130,509,100,-406,291,721,635,481,339,181,109
-325,184,539,88,-418,351,751,761,619,459,283,181
-319,232,551,52,-424,387,781,923,757,585,385,253
-289,280,557,10,-424,411,805,1085,925,711,505,337
-211,358,557,-55,-412,441,805,1283,1123,885,649,457
-67,442,545,-187,-328,459,799,1505,1345,1071,847,613
106,538,497,-319,-202,471,757,1757,1609,1305,1063,799
268,640,419,-451,-82,483,721,2056,1903,1545,1285,979
448,730,347,-589,49,489,697,2374,2214,1797,1513,1171
616,832,281,-727,175,501,655,2559,2501,2043,1747,1351
766,904,209,-841,283,507,565,2607,2747,2276,1951,1519
892,946,119,-919,391,507,445,2607,2933,2461,2124,1651
982,976,53,-973,463,507,355,2571,3071,2617,2244,1753
1018,982,11,-991,493,501,325,2445,3185,2713,2346,1819
1024,982,-24,-997,517,489,319,2302,3281,2803,2400,1855
1024,958,-72,-991,529,435,307,2122,3299,2821,2418,1861
1012,850,-126,-943,541,357,295,1883,3269,2785,2382,1843
970,724,-192,-853,553,261,283,1607,3017,2503,2142,1663
856,550,-234,-709,553,159,283,1295,2651,2126,1789,1417
694,424,-234,-553,499,105,283,899,2172,1719,1435,1153
502,358,-186,-427,349,93,271,461,1621,1305,1099,901
334,274,-90,-301,211,93,259,47,1003,873,745,655
178,178,-42,-175,109,87,247,-318,415,471,427,421
64,88,-12,-73,31,69,205,-570,-34,147,169,229
-7,28,5,-7,-10,39,175,-690,-274,-50,1,91
-55,-25,5,40,-34,9,163,-720,-364,-158,-94,1
-91,-73,5,82,-46,-20,157,-720,-394,-230,-166,-70
-115,-103,5,106,-58,-38,151,-720,-424,-278,-208,-112
-127,-127,5,118,-64,-50,121,-720,-454,-320,-250,-142
-133,-139,5,130,-64,-62,85,-720,-478,-344,-274,-172
-139,-151,5,136,-64,-74,55,-720,-490,-356,-286,-184
-139,-151,5,136,-64,-80,37,-696,-490,-356,-292,-190
-139,-151,0,136,-64,-86,25,-654,-490,-356,-292,-190
-133,-151,-12,136,-58,-92,13,-606,-484,-356,-292,-190
-121,-151,-36,136,-46,-98,1,-564,-478,-356,-292,-190
-109,-151,-48,136,-34,-98,-10,-516,-466,-350,-292,-190
-79,-151,-66,124,-10,-104,-28,-474,-448,-344,-292,-184
-37,-145,-90,100,19,-110,-34,-444,-418,-332,-286,-178
-19,-139,-90,82,31,-110,-40,-402,-382,-320,-274,-172
-7,-127,-90,70,37,-110,-40,-366,-352,-308,-262,-160
4,-115,-90,58,43,-110,-40,-342,-340,-296,-256,-154
10,-109,-96,52,49,-110,-40,-324,-334,-290,-250,-148
16,-103,-102,46,55,-110,-40,-318,-328,-290,-250,-142
22,-103,-108,46,61,-110,-40,-312,-328,-290,-250,-142
22,-103,-108,40,61,-110,-40,-300,-328,-290,-250,-142
22,-103,-108,40,61,-110,-40,-300,-328,-290,-250,-142
28,-103,-114,34,67,-110,-40,-300,-328,-284,-250,-142
34,-103,-114,28,73,-110,-46,-294,-328,-284,-250,-142
40,-103,-114,28,73,-110,-52,-288,-328,-284,-250,-142
40,-103,-114,28,73,-110,-52,-288,-328,-284,-250,-142
40,-103,-114,28,73,-110,-52,-288,-328,-284,-250,-142
40,-103,-120,28,79,-110,-52,-288,-328,-284,-244,-142
40,-103,-120,28,79,-110,-52,-282,-328,-284,-244,-142
46,-103,-120,28,85,-110,-52,-282,-328,-284,-244,-142
46,-103,-120,28,85,-110,-52,-282,-328,-284,-244,-142
52,-103,-126,28,91,-110,-52,-276,-328,-284,-244,-142
52,-97,-126,22,91,-110,-52,-276,-328,-284,-244,-142
52,-91,-126,22,91,-110,-46,-276,-328,-284,-244,-142
52,-91,-126,22,91,-110,-16,-270,-328,-278,-244,-142
52,-91,-126,16,91,-110,7,-270,-328,-272,-244,-142
58,-85,-126,16,91,-110,13,-264,-328,-272,-244,-136
64,-85,-132,16,97,-110,19,-264,-328,-272,-244,-136
70,-85,-132,16,103,-110,25,-264,-328,-272,-244,-136
70,-85,-132,16,103,-110,25,-258,-328,-272,-238,-136
70,-85,-126,16,97,-110,31,-258,-328,-266,-232,-136
70,-85,-126,16,97,-110,31,-252,-328,-266,-232,-136
70,-85,-126,10,97,-110,31,-252,-328,-266,-232,-136
70,-79,-126,4,97,-110,31,-246,-322,-266,-232,-136
70,-73,-126,-2,97,-104,31,-246,-316,-266,-226,-136
70,-67,-126,-2,97,-104,31,-246,-316,-266,-226,-136
70,-67,-126,-2,97,-104,31,-246,-316,-266,-220,-136
70,-67,-126,-2,97,-104,31,-240,-310,-266,-220,-136
70,-67,-126,-2,97,-104,31,-234,-304,-266,-220,-136
70,-67,-126,-2,97,-104,31,-228,-304,-260,-220,-130
70,-67,-126,-2,97,-104,31,-228,-304,-260,-220,-130
70,-67,-126,-2,97,-104,31,-228,-304,-260,-220,-130
70,-61,-126,-7,97,-98,31,-228,-304,-260,-220,-130
70,-55,-126,-7,97,-92,31,-222,-298,-254,-214,-124
70,-55,-120,-7,97,-86,31,-216,-292,-254,-214,-124
70,-55,-120,-7,97,-86,31,-216,-292,-254,-214,-124
70,-55,-120,-7,97,-86,31,-210,-292,-254,-214,-124
70,-55,-120,-13,97,-86,31,-210,-292,-254,-208,-124
70,-55,-120,-19,97,-86,31,-204,-292,-248,-208,-124
70,-55,-120,-19,97,-86,31,-204,-286,-248,-208,-118
70,-55,-120,-19,97,-86,31,-204,-280,-248,-202,-112
70,-55,-114,-19,97,-86,31,-198,-274,-242,-196,-112
70,-49,-108,-19,97,-80,31,-198,-274,-236,-196,-112
70,-43,-108,-19,97,-80,31,-198,-274,-236,-196,-106
76,-37,-108,-25,97,-80,31,-198,-274,-236,-196,-100
76,-31,-108,-25,97,-74,31,-192,-274,-230,-190,-88
76,-25,-102,-25,97,-68,31,-186,-274,-224,-184,-82
76,-19,-102,-25,97,-68,31,-180,-274,-224,-184,-76
76,-19,-102,-31,97,-68,31,-180,-268,-224,-178,-70
76,-19,-102,-37,97,-68,31,-174,-262,-218,-172,-64
82,-13,-102,-37,97,-68,31,-168,-256,-218,-166,-58
88,-13,-102,-43,97,-68,31,-162,-250,-218,-166,-58
94,-13,-102,-43,97,-68,31,-156,-250,-218,-160,-58
94,-13,-102,-43,97,-68,31,-150,-250,-212,-160,-58
94,-7,-96,-43,97,-62,31,-144,-250,-206,-154,-58
94,-7,-96,-43,97,-56,31,-144,-244,-200,-148,-52
94,-7,-96,-43,97,-56,31,-144,-238,-194,-142,-46
94,-2,-96,-43,97,-56,31,-144,-232,-194,-142,-40
94,-2,-96,-43,97,-56,25,-138,-226,-188,-142,-34
94,4,-96,-43,97,-56,13,-132,-220,-188,-136,-28
94,10,-96,-49,97,-50,7,-126,-220,-188,-130,-28
100,16,-90,-55,97,-44,1,-120,-220,-182,-124,-28
100,22,-90,-61,97,-38,-5,-114,-214,-176,-118,-28
100,28,-90,-61,97,-32,-10,-108,-208,-170,-118,-28
100,28,-90,-61,97,-32,-16,-102,-202,-170,-118,-28
106,28,-90,-67,97,-32,-16,-96,-196,-164,-112,-22
118,40,-90,-79,97,-26,-16,-90,-190,-158,-106,-10
124,52,-84,-85,97,-20,-22,-78,-184,-152,-100,-4
130,58,-78,-91,97,-14,-22,-72,-178,-146,-94,1
136,70,-78,-97,97,-8,-22,-60,-172,-140,-88,7
142,76,-78,-103,97,-8,-28,-48,-172,-140,-82,13
142,82,-78,-109,103,-8,-34,-36,-166,-134,-70,19
148,88,-78,-115,103,-8,-34,-24,-154,-122,-64,25
154,94,-78,-121,103,-3,-40,-12,-142,-110,-58,37
160,100,-78,-127,109,3,-40,-1,-130,-98,-46,49
166,100,-78,-127,109,9,-40,11,-124,-86,-40,55
172,106,-78,-133,115,9,-46,17,-112,-80,-28,61
178,112,-78,-139,115,9,-52,29,-100,-74,-16,67
184,118,-78,-145,121,9,-52,41,-94,-68,-4,79
190,130,-78,-157,127,15,-58,53,-82,-62,1,91
196,136,-72,-163,127,21,-64,65,-76,-50,7,103
202,142,-72,-169,127,21,-64,77,-70,-44,13,109
208,148,-72,-175,133,21,-64,89,-64,-38,19,115
214,148,-72,-181,133,27,-70,101,-52,-32,31,121
220,154,-72,-181,133,33,-70,113,-40,-20,43,133
226,160,-66,-187,133,39,-70,125,-34,-8,49,139
226,166,-66,-193,139,39,-70,137,-22,-2,61,145
232,172,-60,-199,139,45,-70,143,-10,3,73,151
238,178,-60,-205,139,45,-70,149,-4,9,79,157
238,178,-60,-205,139,45,-70,161,1,15,85,163
238,178,-60,-205,139,45,-70,173,7,15,85,169
238,184,-60,-211,139,51,-70,185,13,21,85,169
244,190,-54,-217,139,51,-70,197,19,27,85,169
250,196,-54,-223,139,57,-70,209,31,33,91,169
250,196,-54,-223,139,57,-70,221,43,45,97,175
250,196,-48,-223,139,57,-70,227,55,51,103,175
250,196,-48,-223,139,57,-70,233,67,57,109,181
250,202,-48,-223,139,57,-70,239,73,63,115,181
250,202,-48,-223,139,63,-70,239,79,69,115,181
250,202,-42,-223,139,69,-70,245,85,75,121,181
244,202,-36,-223,133,69,-64,257,91,81,127,187
244,202,-30,-223,133,69,-58,263,97,87,133,193
244,208,-30,-223,133,69,-52,269,103,93,133,193
244,208,-30,-223,133,69,-46,269,109,93,139,193
238,208,-30,-223,133,69,-40,269,115,93,139,193
232,208,-24,-217,127,75,-34,275,115,99,139,193
226,208,-18,-211,121,75,-22,275,121,99,139,193
220,208,-18,-211,115,75,-10,275,127,99,139,193
214,202,-12,-205,115,75,1,275,127,99,139,193
202,196,-12,-199,109,75,13,275,127,99,139,187
190,190,-12,-193,103,75,25,275,127,99,139,181
178,184,-12,-181,97,75,37,275,127,99,139,175
166,172,-12,-169,85,75,49,269,127,99,139,169
154,160,-12,-157,79,69,61,263,127,99,139,163
142,148,-12,-145,73,69,73,257,127,99,133,157
136,142,-12,-133,67,63,79,245,127,99,121,145
124,130,-12,-121,61,57,85,233,121,93,109,133
118,118,-12,-115,61,51,91,221,115,81,97,121
106,106,-6,-109,55,51,97,203,103,75,85,109
94,94,0,-97,49,51,103,179,91,63,73,97
88,88,0,-91,43,51,109,167,79,57,61,85
82,82,0,-85,37,45,115,155,67,51,49,73
70,76,0,-79,37,39,121,143,61,45,43,67
58,70,0,-67,31,33,127,131,55,33,37,55
46,64,5,-55,25,33,127,119,49,21,31,43
40,64,11,-43,19,33,133,107,37,9,19,37
34,58,17,-37,13,33,133,95,25,3,13,25
28,52,17,-31,13,27,133,83,13,-8,7,19
22,40,17,-31,13,21,133,71,1,-20,-4,7
16,34,17,-25,7,21,133,59,-10,-26,-16,-4
10,28,17,-19,1,21,139,47,-22,-38,-28,-10
4,22,17,-13,1,15,139,35,-34,-44,-40,-16
4,16,17,-7,1,9,145,29,-40,-50,-46,-16
-1,10,17,-2,1,3,151,23,-46,-56,-52,-22
-7,4,17,4,-4,3,157,11,-52,-62,-58,-28
-19,-7,17,10,-10,-3,157,5,-58,-68,-64,-40
-25,-13,17,16,-10,-8,163,-1,-64,-74,-70,-46
-25,-13,17,16,-10,-8,169,-6,-70,-80,-70,-46
-25,-13,17,16,-10,-8,169,-12,-76,-80,-70,-52
-25,-13,11,16,-10,-8,169,-18,-82,-86,-70,-58
-25,-19,11,22,-10,-8,175,-24,-82,-86,-70,-64
-31,-19,11,28,-16,-8,181,-24,-82,-86,-70,-64
-31,-19,11,28,-22,-8,181,-24,-82,-86,-70,-64
-31,-19,11,28,-22,-8,181,-30,-82,-86,-70,-70
-31,-19,11,28,-22,-8,181,-30,-82,-86,-70,-70
-31,-19,11,28,-22,-8,181,-30,-82,-86,-76,-70
-31,-19,11,28,-22,-8,181,-30,-82,-86,-76,-70
-31,-19,11,28,-22,-8,181,-30,-82,-86,-76,-70
-31,-19,11,28,-22,-8,181,-30,-82,-86,-76,-70
-31,-19,11,28,-22,-8,181,-30,-82,-86,-76,-70
-31,-19,11,28,-22,-8,181,-30,-82,-86,-76,-70
-31,-25,11,34,-22,-14,181,-30,-88,-86,-76,-70
-31,-31,11,40,-22,-20,181,-30,-88,-86,-76,-70
-37,-37,11,40,-22,-20,181,-30,-88,-86,-76,-64
-37,-37,11,40,-28,-20,181,-30,-88,-86,-76,-64
-37,-37,11,40,-28,-20,181,-30,-88,-86,-76,-64
-37,-37,11,40,-28,-20,181,-30,-88,-86,-76,-64
-37,-37,11,40,-28,-20,181,-30,-88,-86,-76,-64
-37,-37,11,40,-28,-20,181,-30,-88,-86,-76,-64
-37,-37,11,40,-28,-20,181,-30,-88,-86,-76,-64
-37,-37,11,40,-28,-20,181,-30,-88,-86,-76,-64
-37,-37,11,40,-28,-20,181,-30,-88,-86,-76,-70
-37,-37,11,40,-28,-20,181,-30,-88,-86,-76,-76
-37,-37,11,40,-28,-20,181,-30,-88,-86,-76,-82
-37,-37,11,40,-28,-20,181,-30,-88,-86,-76,-88
-37,-37,11,40,-28,-20,181,-36,-88,-86,-76,-88
-37,-37,11,40,-28,-20,181,-36,-88,-86,-70,-88
-37,-37,11,40,-28,-20,181,-36,-88,-86,-70,-88
-37,-37,11,40,-28,-20,181,-36,-88,-86,-70,-88
-37,-37,11,40,-28,-20,181,-36,-88,-86,-70,-88
-37,-37,11,40,-28,-20,181,-36,-88,-86,-64,-88
-37,-37,11,40,-28,-20,181,-36,-88,-86,-64,-88
-37,-37,11,40,-28,-20,181,-36,-88,-86,-64,-88
-37,-37,11,40,-28,-20,181,-36,-88,-86,-64,-88
-37,-37,11,40,-28,-20,181,-36,-88,-86,-64,-94
-37,-37,17,40,-28,-20,181,-36,-88,-86,-64,-100
-37,-37,17,40,-28,-20,181,-36,-88,-86,-64,-100
-37,-37,17,40,-28,-20,181,-36,-88,-86,-64,-100
-37,-37,17,40,-28,-20,181,-36,-88,-86,-64,-100
-37,-37,17,40,-28,-20,181,-36,-88,-86,-64,-100
-37,-37,23,40,-34,-20,181,-36,-88,-86,-64,-100
-37,-37,23,40,-34,-20,181,-36,-88,-86,-64,-100
-37,-37,23,40,-34,-20,181,-36,-82,-80,-64,-100
-37,-31,23,40,-34,-14,181,-36,-76,-80,-58,-100
-37,-31,23,40,-34,-14,181,-36,-76,-74,-58,-100
-37,-31,23,40,-34,-14,181,-36,-76,-74,-52,-100
-37,-31,23,40,-34,-14,181,-36,-76,-74,-52,-100
-37,-31,29,40,-34,-14,181,-36,-76,-74,-46,-100
-37,-31,29,40,-34,-8,181,-36,-76,-74,-46,-94
-37,-31,29,40,-34,-8,181,-36,-76,-74,-46,-88
-37,-31,29,40,-34,-8,181,-36,-76,-74,-46,-88
-37,-31,29,40,-34,-8,181,-36,-70,-74,-46,-88
-37,-31,29,40,-34,-8,181,-36,-70,-74,-46,-88
-37,-31,29,40,-34,-8,181,-36,-70,-74,-46,-82
-37,-31,29,40,-34,-8,181,-36,-70,-68,-40,-76
-37,-31,29,40,-34,-8,181,-36,-70,-62,-34,-70
-37,-31,29,40,-34,-8,181,-36,-70,-62,-34,-70
-37,-31,29,40,-34,-8,181,-36,-70,-62,-34,-70
-37,-31,29,40,-34,-8,175,-36,-70,-62,-28,-70
-37,-31,29,40,-34,-8,175,-30,-70,-62,-22,-70
-37,-31,29,40,-34,-8,175,-30,-70,-62,-22,-70
-37,-31,29,40,-34,-8,175,-30,-70,-62,-22,-70
-37,-31,35,40,-34,-3,175,-30,-70,-62,-22,-70
-37,-31,35,40,-34,-3,175,-30,-70,-62,-22,-70
-37,-31,35,40,-34,-3,175,-30,-70,-62,-22,-70
-37,-25,35,40,-34,-3,169,-30,-70,-62,-22,-70
-37,-25,35,40,-34,-3,163,-30,-70,-62,-22,-70
-37,-25,35,40,-34,-3,157,-30,-70,-62,-22,-70
-37,-25,35,40,-34,-3,157,-30,-70,-62,-22,-70
-37,-25,35,40,-34,-3,157,-30,-70,-62,-22,-70
-37,-25,35,40,-34,-3,157,-30,-70,-62,-28,-70
-37,-25,35,40,-34,-3,157,-30,-70,-62,-28,-70
-37,-25,35,40,-34,-3,157,-30,-70,-62,-28,-70
-37,-25,41,40,-40,-3,151,-30,-70,-62,-28,-70
-37,-25,47,40,-40,3,151,-30,-70,-62,-28,-70
-37,-25,47,40,-40,3,151,-30,-70,-62,-28,-70
-37,-25,47,40,-46,3,145,-30,-70,-62,-28,-70
-37,-25,47,40,-46,3,145,-30,-70,-62,-28,-70
-37,-25,53,40,-46,9,145,-30,-70,-62,-28,-70
-37,-25,59,40,-46,9,139,-30,-70,-62,-28,-70
-37,-25,59,40,-46,9,139,-30,-70,-62,-28,-70
-37,-25,59,40,-46,9,139,-30,-70,-62,-34,-70
-43,-25,59,40,-46,9,139,-30,-70,-62,-40,-70
-43,-25,59,40,-46,9,139,-30,-70,-62,-40,-76
-43,-25,59,40,-46,9,133,-36,-70,-62,-40,-76
-43,-25,59,40,-46,9,133,-36,-70,-62,-40,-82
-43,-25,59,40,-46,9,127,-36,-70,-62,-40,-88
-49,-25,59,40,-46,9,127,-36,-70,-62,-40,-94
-55,-25,59,40,-52,9,127,-36,-76,-62,-40,-94
-55,-25,59,40,-52,9,127,-36,-76,-62,-46,-94
-55,-25,59,40,-52,9,127,-36,-76,-62,-46,-94
-55,-25,59,40,-52,9,121,-36,-82,-68,-46,-94
-55,-25,59,40,-52,9,115,-36,-82,-68,-46,-94
-55,-25,59,40,-52,9,115,-36,-82,-68,-46,-94
-55,-25,59,40,-52,9,115,-36,-82,-68,-46,-94
-61,-25,59,40,-52,9,115,-36,-82,-68,-46,-94
-61,-25,59,46,-52,9,115,-42,-82,-68,-46,-94
-61,-25,59,46,-52,9,115,-42,-82,-68,-46,-94
-61,-25,59,46,-52,9,115,-42,-88,-74,-46,-94
-61,-25,59,46,-52,9,115,-48,-88,-74,-46,-94
-61,-25,59,46,-58,9,115,-54,-88,-74,-46,-94
-61,-31,59,46,-64,9,115,-54,-88,-80,-46,-94
-61,-31,59,46,-64,9,115,-54,-88,-80,-46,-94
-67,-31,59,46,-70,9,115,-54,-88,-80,-46,-94
-73,-31,59,46,-70,9,115,-54,-88,-86,-46,-94
-73,-37,59,52,-70,9,115,-54,-94,-86,-52,-94
-73,-37,59,52,-70,9,115,-54,-94,-92,-52,-94
-73,-37,59,52,-70,9,115,-54,-100,-92,-58,-94
-73,-37,65,52,-70,9,115,-54,-100,-92,-58,-94
-73,-37,65,52,-70,9,115,-54,-100,-92,-58,-94
-73,-37,65,58,-70,9,115,-54,-100,-92,-64,-94
-79,-43,65,58,-70,9,115,-60,-100,-92,-70,-94
-79,-43,65,64,-70,9,115,-60,-100,-98,-70,-94
-79,-43,65,64,-70,9,115,-60,-100,-98,-70,-94
-79,-43,65,64,-70,9,115,-60,-100,-98,-70,-94
-79,-43,65,70,-70,9,115,-66,-100,-98,-70,-94
-85,-43,65,70,-76,9,115,-66,-100,-98,-70,-94
-85,-43,65,70,-76,9,115,-66,-100,-98,-70,-94
-85,-43,65,70,-76,9,115,-66,-100,-98,-70,-94
-85,-43,65,70,-76,9,115,-66,-100,-98,-70,-94
-85,-43,65,70,-76,9,115,-66,-100,-98,-70,-94
-85,-43,65,70,-76,9,115,-66,-100,-98,-70,-94
-85,-43,65,70,-76,9,115,-66,-100,-98,-70,-94
-85,-43,65,70,-76,9,109,-66,-100,-98,-70,-94
-85,-43,65,70,-76,9,103,-66,-106,-98,-70,-94
-85,-43,65,70,-76,9,103,-66,-106,-98,-76,-94
-85,-43,65,70,-76,9,97,-66,-106,-98,-76,-94
-85,-43,65,70,-76,9,97,-66,-106,-98,-76,-94
-85,-43,65,70,-76,9,97,-66,-106,-98,-76,-94
-85,-43,65,70,-76,9,97,-66,-106,-98,-76,-94
-85,-43,65,70,-76,9,97,-66,-106,-98,-76,-94
-85,-43,65,70,-76,9,97,-66,-106,-98,-76,-94
-85,-43,65,70,-76,9,97,-66,-106,-98,-76,-94
-85,-43,65,70,-76,9,97,-66,-106,-98,-76,-94
-85,-49,65,70,-76,9,97,-66,-106,-98,-76,-94
-91,-49,65,70,-76,9,97,-66,-106,-98,-76,-94
-97,-49,65,70,-82,9,97,-66,-106,-98,-76,-94
-97,-49,65,70,-82,9,97,-66,-106,-98,-76,-94
-97,-49,65,70,-82,9,97,-66,-106,-98,-76,-94
-97,-49,65,70,-82,9,97,-66,-106,-98,-76,-94
-103,-49,65,70,-82,9,97,-66,-106,-98,-76,-94
-103,-49,65,70,-82,9,97,-66,-106,-98,-76,-94
-103,-49,65,70,-82,9,97,-66,-106,-98,-76,-94
-103,-49,65,70,-82,9,97,-66,-106,-98,-76,-94
-103,-49,65,70,-82,9,97,-66,-106,-98,-76,-94
-103,-49,65,70,-82,9,97,-66,-106,-98,-76,-94
-103,-49,65,76,-82,9,97,-66,-106,-98,-76,-94
-103,-49,65,76,-82,9,97,-66,-106,-98,-76,-94
-103,-49,65,76,-82,9,97,-66,-106,-98,-76,-94
-103,-49,65,76,-82,9,97,-66,-106,-98,-76,-94
-103,-49,65,76,-82,9,97,-66,-106,-98,-76,-94
-109,-49,65,76,-82,9,97,-66,-106,-98,-76,-94
-109,-49,65,76,-82,9,97,-66,-106,-98,-76,-94
-109,-49,65,76,-82,9,97,-66,-106,-98,-76,-94
-109,-49,65,76,-82,9,97,-66,-106,-98,-76,-94
-109,-49,65,76,-82,9,97,-66,-106,-98,-76,-94
-109,-49,65,76,-82,9,91,-66,-106,-98,-76,-88
-109,-49,65,76,-82,9,91,-66,-106,-98,-76,-88
-109,-49,65,76,-82,9,91,-66,-106,-98,-76,-82
-109,-49,71,76,-82,9,91,-66,-106,-98,-76,-82
-115,-49,77,76,-88,9,91,-66,-106,-98,-70,-76
-115,-49,77,76,-88,9,91,-66,-106,-98,-70,-76
-115,-49,77,76,-88,9,91,-66,-106,-98,-70,-76
-115,-49,77,76,-88,9,91,-66,-106,-98,-70,-76
-115,-49,77,76,-94,9,91,-66,-106,-98,-70,-76
-115,-49,77,76,-94,9,91,-66,-106,-98,-70,-76
-115,-49,77,76,-94,9,85,-66,-106,-98,-70,-76
-115,-49,77,76,-94,9,85,-66,-106,-98,-70,-76
-115,-49,77,76,-94,9,85,-66,-106,-98,-70,-76
-115,-49,77,76,-94,9,85,-66,-106,-98,-70,-76
-115,-49,77,76,-94,9,85,-66,-106,-98,-70,-76
-115,-49,77,76,-94,9,85,-66,-106,-98,-70,-76
-115,-49,77,76,-94,9,79,-66,-106,-98,-70,-82
-115,-49,77,76,-94,9,79,-66,-106,-98,-70,-82
-115,-49,77,82,-94,9,79,-66,-100,-98,-70,-82
-115,-49,77,88,-94,9,79,-66,-100,-98,-70,-82
-115,-49,77,88,-94,9,79,-66,-100,-98,-70,-82
-115,-49,77,88,-94,9,79,-66,-100,-98,-70,-82
-115,-49,77,88,-94,9,79,-66,-100,-98,-70,-82
-115,-49,77,88,-94,9,79,-66,-100,-98,-70,-76
-115,-55,71,88,-94,9,79,-66,-100,-98,-70,-76
-115,-55,71,88,-94,9,79,-66,-100,-98,-70,-76
-115,-55,71,88,-94,9,79,-66,-100,-98,-70,-76
-115,-55,71,88,-94,9,79,-66,-100,-98,-70,-76
-115,-55,71,88,-94,9,79,-66,-100,-98,-70,-76
-115,-55,71,88,-94,9,79,-66,-100,-98,-70,-76
-115,-55,71,88,-94,9,73,-66,-100,-98,-70,-76
-115,-61,65,88,-94,9,73,-66,-100,-98,-70,-76
-115,-61,65,88,-94,3,73,-66,-100,-98,-70,-76
-115,-61,65,88,-94,3,73,-66,-100,-98,-70,-76
-115,-61,65,88,-94,3,73,-66,-100,-98,-70,-76
-115,-61,65,88,-94,3,73,-66,-100,-98,-70,-76
-115,-61,65,88,-94,3,67,-66,-100,-98,-70,-76
-115,-61,65,88,-94,3,61,-66,-100,-98,-70,-76
-115,-61,65,88,-94,3,61,-66,-100,-98,-70,-76
-115,-61,65,88,-94,3,61,-66,-100,-98,-70,-76
-115,-61,65,88,-94,3,61,-66,-100,-98,-70,-76
-115,-61,65,88,-94,3,61,-66,-100,-98,-70,-76
-115,-61,65,88,-94,3,61,-66,-100,-98,-70,-76
-115,-61,65,88,-94,3,61,-66,-100,-98,-70,-76
-115,-61,65,88,-94,3,61,-66,-100,-98,-70,-76
-115,-61,65,88,-94,3,61,-66,-100,-98,-70,-76
-115,-61,65,88,-94,3,61,-66,-100,-98,-70,-70
-115,-61,65,88,-94,3,61,-66,-100,-98,-70,-70
-115,-61,65,88,-94,3,55,-72,-100,-98,-70,-70
-115,-61,65,88,-94,3,55,-72,-100,-98,-70,-70
-115,-61,65,88,-94,3,55,-72,-100,-98,-70,-70
-115,-61,65,88,-94,3,55,-72,-100,-98,-70,-70
-115,-61,65,88,-94,3,55,-72,-100,-98,-70,-70
-115,-61,65,88,-94,3,55,-72,-100,-98,-70,-70
-115,-61,65,88,-94,3,55,-72,-100,-98,-70,-70
-115,-61,65,88,-94,3,55,-72,-100,-98,-70,-70
-115,-61,65,88,-94,3,49,-78,-100,-98,-76,-70
-115,-61,59,88,-94,3,49,-78,-100,-98,-76,-70
-115,-61,59,88,-94,3,49,-78,-100,-98,-76,-70
-115,-61,59,88,-94,3,43,-78,-100,-98,-76,-70
-115,-61,59,88,-94,3,43,-78,-100,-98,-76,-70
-115,-61,59,88,-94,3,43,-78,-100,-98,-76,-70
-115,-61,59,88,-94,3,43,-78,-100,-98,-76,-70
-115,-61,59,88,-94,3,37,-78,-100,-98,-76,-70
-115,-61,59,88,-94,3,37,-78,-100,-98,-76,-70
-121,-61,65,88,-94,3,37,-78,-100,-98,-76,-70
-121,-61,65,88,-94,3,37,-78,-100,-98,-76,-70
-121,-61,65,88,-88,3,37,-78,-100,-98,-76,-70
-127,-61,65,94,-88,3,37,-78,-100,-98,-76,-70
-133,-61,65,94,-88,3,37,-78,-100,-98,-76,-70
-133,-61,65,94,-88,3,37,-78,-100,-98,-76,-70
-133,-61,65,94,-88,3,37,-78,-100,-98,-76,-64
-133,-67,65,100,-88,-3,37,-78,-100,-98,-76,-58
-133,-67,65,100,-88,-3,37,-78,-100,-98,-76,-58
-133,-67,65,100,-88,-3,37,-78,-100,-98,-76,-58
-133,-67,65,100,-88,-3,37,-78,-100,-98,-76,-58
-133,-67,65,100,-88,-3,37,-78,-100,-98,-76,-58
-133,-67,65,100,-88,-3,37,-78,-100,-98,-76,-58
-133,-67,65,100,-88,3,37,-78,-100,-98,-76,-58
-133,-61,65,100,-88,9,37,-78,-100,-98,-76,-58
-133,-55,65,100,-88,15,37,-72,-94,-92,-76,-52
-133,-55,65,100,-88,15,37,-66,-88,-86,-76,-40
-133,-49,71,94,-88,15,43,-60,-82,-86,-70,-34
-133,-43,77,94,-88,21,49,-54,-76,-80,-64,-28
-133,-37,83,94,-94,21,55,-48,-64,-74,-58,-22
-133,-37,83,88,-94,21,61,-42,-52,-68,-52,-16
-133,-37,89,88,-94,21,67,-36,-46,-62,-52,-16
-133,-31,89,82,-94,27,73,-36,-40,-56,-52,-16
-133,-25,89,76,-94,33,79,-36,-34,-50,-52,-16
-133,-19,95,76,-94,39,85,-36,-34,-50,-52,-16
-133,-19,95,76,-94,39,91,-36,-34,-50,-52,-16
-133,-19,95,76,-94,39,97,-36,-34,-50,-52,-16
-133,-19,95,76,-94,39,103,-36,-34,-50,-52,-16
-127,-19,95,76,-94,39,103,-30,-34,-50,-52,-10
-121,-19,95,70,-94,39,109,-24,-28,-44,-46,-4
-115,-13,95,64,-94,39,115,-12,-16,-38,-34,1
-109,-2,95,52,-94,45,115,-1,-4,-32,-28,7
-103,10,95,46,-94,51,121,11,7,-20,-16,13
-97,22,95,40,-94,57,127,23,19,-14,-10,25
-91,28,95,34,-94,63,127,29,25,-2,1,37
-85,40,95,28,-94,69,127,35,31,9,7,43
-73,46,95,16,-88,75,127,41,37,21,19,55
-61,52,95,4,-82,81,127,47,43,33,31,61
-49,58,95,-2,-76,81,127,53,49,39,37,67
-43,64,95,-7,-76,81,127,53,49,39,43,73
-43,64,95,-13,-76,87,127,53,49,39,43,73
-43,64,95,-13,-76,87,127,53,49,39,43,73
-37,64,95,-13,-70,87,127,53,49,39,43,73
-37,58,95,-13,-70,81,121,53,49,33,37,73
-37,58,95,-13,-70,75,109,53,49,27,31,73
-37,58,95,-13,-70,75,91,53,43,21,25,67
-37,52,95,-7,-70,75,73,47,37,15,19,61
-37,40,83,-2,-70,63,67,41,31,9,13,55
-37,22,71,4,-64,51,61,35,25,9,7,49
-43,16,65,16,-64,45,55,29,19,9,1,49
-49,10,65,22,-64,45,49,23,13,9,1,49
-49,10,65,28,-64,45,43,11,7,3,1,49
-49,10,65,28,-64,39,37,5,1,3,1,49
-49,10,65,28,-64,39,31,-1,1,3,1,49
-49,10,65,28,-64,39,25,-1,1,3,1,49
-49,10,65,28,-64,39,25,-1,1,3,1,49
-55,10,65,28,-64,39,25,-1,1,3,1,49
-55,10,65,28,-64,39,19,-1,-4,-2,1,49
-67,4,65,34,-70,39,13,-6,-4,-8,1,49
-79,-2,71,46,-76,39,13,-12,-10,-8,-4,49
-97,-7,77,58,-82,39,7,-18,-16,-14,-10,43
-109,-13,77,70,-88,39,7,-30,-28,-26,-22,31
-121,-25,77,76,-94,33,1,-42,-46,-44,-34,13
-139,-37,83,88,-106,33,1,-54,-58,-56,-46,1
-151,-55,83,112,-112,27,1,-66,-70,-62,-52,-10
-157,-61,83,118,-112,27,-5,-72,-82,-74,-64,-16
-163,-67,83,124,-112,27,-10,-78,-88,-86,-76,-22
-169,-73,89,130,-118,27,-16,-84,-94,-92,-82,-22
-175,-73,89,130,-124,27,-16,-90,-100,-98,-82,-22
-175,-73,95,130,-124,21,-22,-96,-100,-98,-82,-22
-181,-73,95,130,-130,21,-22,-96,-100,-98,-82,-22
-181,-73,95,130,-130,21,-28,-96,-100,-98,-82,-22
-181,-73,95,130,-130,21,-28,-102,-100,-98,-82,-22
-181,-73,95,130,-130,21,-28,-102,-100,-98,-82,-22
-187,-73,101,130,-136,21,-28,-102,-106,-98,-82,-22
-193,-73,101,136,-136,15,-34,-102,-106,-98,-88,-22
-193,-73,101,136,-136,15,-34,-102,-106,-98,-88,-22
-193,-73,101,136,-136,15,-34,-102,-106,-98,-88,-22
-193,-73,107,136,-136,15,-34,-102,-106,-98,-88,-22
-193,-73,113,136,-142,21,-34,-96,-106,-98,-88,-22
-193,-73,113,136,-142,21,-34,-96,-106,-98,-88,-16
-193,-73,113,136,-142,21,-34,-90,-100,-92,-82,-10
-193,-67,119,130,-142,27,-34,-84,-88,-80,-76,1
-193,-61,125,130,-142,33,-34,-78,-76,-68,-64,7
-193,-49,131,124,-142,39,-34,-66,-58,-56,-52,19
-193,-37,143,118,-148,51,-28,-54,-46,-32,-34,31
-193,-25,161,112,-160,63,-16,-24,-28,-20,-16,43
-193,-19,185,112,-172,75,-5,-6,-16,-8,-4,55
-199,-13,197,112,-184,93,7,11,1,3,7,67
-205,-2,227,112,-202,111,19,35,25,15,25,79
-205,10,257,106,-214,123,37,59,49,39,37,91
-211,22,269,106,-238,135,55,77,79,51,49,97
-223,22,287,106,-256,147,73,95,91,63,55,97
-235,28,293,106,-262,153,91,107,109,75,61,97
-247,28,299,106,-268,159,109,131,121,99,73,97
-271,28,311,112,-280,171,133,167,133,117,79,97
-283,34,335,118,-304,183,169,203,151,129,85,97
-307,40,365,124,-328,195,211,239,169,135,85,91
-337,46,395,130,-358,207,277,287,193,141,85,85
-373,46,431,142,-400,225,379,377,235,147,85,73
-409,52,485,154,-442,255,475,479,307,171,91,67
-439,64,545,160,-490,291,559,581,421,249,115,73
-451,124,623,160,-532,357,607,653,529,363,193,109
-451,190,677,148,-550,423,631,755,643,495,313,193
-451,244,707,118,-562,471,649,875,793,627,433,283
-451,292,737,88,-568,513,667,1031,949,771,559,373
-421,352,749,34,-568,549,679,1199,1111,909,697,481
-319,430,749,-61,-544,579,679,1373,1309,1083,859,601
-163,532,731,-187,-442,597,649,1565,1537,1293,1063,769
16,640,683,-325,-328,615,595,1793,1801,1533,1291,973
184,736,617,-475,-208,627,553,2080,2100,1785,1537,1183
346,838,563,-595,-106,645,517,2344,2418,2066,1795,1399
484,922,515,-703,-4,663,463,2499,2711,2336,2052,1603
616,988,443,-817,91,675,361,2517,2933,2575,2274,1777
736,1036,359,-889,205,681,235,2505,3089,2767,2441,1921
802,1054,287,-925,271,681,157,2386,3203,2905,2579,2005
832,1054,245,-943,301,675,139,2254,3299,3031,2693,2070
838,1054,203,-943,319,651,139,2098,3365,3103,2741,2094
838,1006,149,-931,331,579,139,1883,3365,3109,2741,2094
832,868,71,-865,355,465,139,1631,3251,3013,2657,2035
778,712,5,-745,361,345,139,1379,2957,2677,2334,1813
640,562,-24,-607,355,261,145,1091,2585,2252,1951,1519
460,448,-24,-445,265,231,163,737,2094,1809,1549,1243
256,370,65,-307,97,225,175,353,1537,1377,1171,973
70,274,155,-175,-34,225,175,-6,919,927,811,715
-61,178,191,-61,-112,213,175,-324,349,513,475,463
-139,106,203,10,-148,189,157,-534,-58,195,235,271
-187,46,209,70,-184,159,133,-612,-232,21,91,145
-229,-7,209,118,-202,129,127,-624,-280,-68,-4,55
-253,-61,209,160,-208,87,121,-624,-316,-134,-76,-16
-271,-103,203,190,-214,45,109,-624,-346,-182,-142,-64
-283,-127,191,202,-214,15,85,-624,-358,-224,-184,-106
-289,-139,179,214,-214,3,49,-624,-382,-260,-220,-136
-289,-145,167,220,-214,-3,25,-624,-400,-278,-244,-148
-289,-151,155,220,-208,-8,7,-612,-406,-284,-250,-154
-289,-151,143,220,-202,-14,-5,-564,-406,-284,-250,-154
-289,-151,125,220,-190,-14,-28,-516,-400,-284,-250,-154
-277,-151,113,220,-184,-20,-52,-480,-394,-284,-250,-154
-259,-151,101,208,-172,-20,-76,-444,-382,-284,-250,-154
-229,-151,95,196,-160,-20,-100,-402,-364,-284,-244,-148
-205,-145,89,178,-148,-20,-112,-360,-334,-278,-232,-136
-181,-139,83,160,-136,-20,-124,-330,-304,-266,-220,-124
-169,-133,77,148,-124,-20,-130,-288,-262,-236,-208,-106
-157,-127,71,142,-112,-20,-136,-258,-238,-212,-196,-94
-145,-121,53,130,-88,-26,-136,-246,-232,-206,-190,-88
-139,-121,41,124,-76,-32,-136,-234,-226,-200,-190,-88
-139,-115,35,124,-76,-32,-136,-222,-220,-200,-184,-82
-139,-115,35,124,-76,-32,-136,-210,-220,-200,-184,-82
-127,-115,29,124,-70,-38,-136,-204,-220,-200,-184,-82
-121,-115,29,118,-64,-44,-142,-204,-220,-200,-184,-82
-121,-115,29,118,-64,-44,-142,-198,-220,-200,-184,-82
-115,-115,29,118,-64,-44,-148,-198,-214,-200,-184,-82
-109,-115,23,112,-58,-44,-148,-198,-214,-200,-184,-82
-109,-115,17,112,-58,-44,-154,-192,-214,-200,-184,-82
-109,-115,17,112,-58,-44,-154,-192,-214,-200,-184,-82
-109,-115,17,112,-52,-44,-154,-192,-214,-200,-184,-82
-109,-115,17,112,-52,-44,-154,-192,-214,-200,-184,-82
-109,-115,17,112,-52,-44,-154,-192,-214,-200,-184,-82
-103,-115,11,106,-46,-44,-154,-186,-214,-200,-184,-82
-97,-109,11,100,-46,-44,-154,-180,-214,-200,-184,-82
-91,-103,11,94,-46,-44,-154,-180,-214,-200,-184,-82
-85,-103,11,94,-40,-44,-160,-180,-214,-200,-184,-82
-85,-97,5,94,-34,-44,-160,-180,-214,-200,-184,-82
-79,-97,0,94,-34,-44,-160,-174,-214,-200,-184,-82
-79,-97,0,94,-34,-44,-160,-174,-214,-200,-184,-82
-79,-97,0,88,-34,-44,-160,-174,-214,-200,-184,-82
-79,-97,-6,88,-28,-50,-160,-168,-214,-200,-184,-82
-79,-97,-6,88,-28,-50,-160,-168,-214,-200,-184,-82
-79,-97,-6,88,-28,-50,-160,-168,-214,-200,-184,-82
-79,-97,-6,88,-28,-50,-160,-168,-214,-200,-184,-82
-73,-97,-12,82,-22,-50,-166,-168,-214,-200,-184,-82
-73,-97,-18,82,-16,-50,-166,-168,-214,-200,-184,-82
-67,-97,-18,82,-16,-50,-166,-162,-208,-200,-184,-82
-61,-97,-18,82,-16,-50,-166,-162,-202,-200,-184,-82
-55,-97,-24,82,-16,-50,-166,-156,-202,-200,-184,-82
-55,-97,-30,82,-10,-56,-166,-150,-196,-194,-184,-76
-55,-97,-30,76,-4,-56,-166,-144,-196,-194,-184,-76
-55,-97,-30,70,-4,-62,-166,-144,-196,-194,-184,-76
-55,-97,-30,70,-4,-62,-166,-144,-196,-194,-184,-76
-49,-97,-30,70,-4,-62,-166,-144,-196,-194,-184,-70
-43,-97,-30,70,-4,-62,-166,-144,-196,-194,-184,-70
-43,-97,-30,70,-4,-62,-166,-138,-196,-194,-178,-70
-43,-97,-30,64,-4,-62,-166,-138,-190,-188,-172,-64
-43,-97,-30,64,-4,-62,-166,-138,-190,-188,-166,-64
-43,-97,-30,64,-4,-62,-166,-138,-190,-188,-166,-64
-43,-91,-30,64,-4,-62,-172,-138,-190,-188,-166,-64
-37,-91,-30,58,1,-62,-178,-138,-190,-182,-160,-64
-37,-85,-30,58,1,-62,-184,-138,-184,-176,-154,-58
-37,-85,-30,58,1,-62,-190,-138,-178,-170,-148,-52
-37,-85,-30,58,1,-62,-190,-132,-178,-170,-142,-46
-37,-85,-30,58,1,-62,-190,-126,-178,-170,-142,-40
-37,-79,-30,52,1,-62,-190,-120,-178,-170,-142,-40
-37,-73,-30,52,1,-62,-196,-120,-178,-170,-142,-40
-37,-73,-30,52,1,-62,-202,-120,-178,-164,-142,-40
-31,-73,-30,52,1,-62,-208,-114,-172,-158,-142,-34
-31,-73,-30,46,1,-62,-214,-108,-166,-158,-142,-34
-25,-67,-30,40,7,-62,-214,-102,-160,-158,-142,-34
-19,-67,-30,34,13,-62,-214,-102,-154,-158,-142,-34
-19,-67,-30,34,13,-62,-220,-96,-154,-158,-142,-34
-19,-67,-30,34,13,-62,-220,-90,-148,-152,-142,-34
-13,-61,-30,34,19,-56,-226,-90,-148,-146,-136,-28
-7,-55,-30,28,19,-56,-232,-84,-148,-140,-124,-22
-1,-49,-30,22,19,-56,-238,-78,-142,-134,-112,-10
-1,-49,-30,22,19,-56,-244,-78,-136,-134,-106,-4
-1,-49,-30,16,25,-56,-250,-72,-136,-134,-106,1
-1,-49,-30,16,25,-56,-250,-66,-130,-134,-106,1
-1,-43,-30,16,25,-56,-256,-60,-130,-134,-106,7
4,-37,-30,10,25,-50,-262,-54,-124,-128,-100,13
10,-31,-36,4,31,-50,-262,-54,-118,-122,-94,19
22,-25,-42,-7,43,-50,-268,-48,-118,-122,-94,25
28,-19,-42,-13,43,-50,-268,-42,-112,-122,-94,31
28,-19,-42,-13,43,-44,-268,-30,-106,-110,-88,37
28,-13,-42,-13,43,-38,-268,-18,-94,-98,-76,49
40,-7,-42,-19,49,-38,-274,-12,-88,-92,-64,55
52,-2,-42,-25,55,-38,-280,-12,-76,-86,-52,61
58,4,-42,-31,61,-38,-286,-6,-64,-80,-46,67
64,4,-48,-37,61,-38,-292,-1,-58,-74,-40,73
64,4,-48,-43,67,-38,-292,11,-52,-68,-34,79
70,10,-48,-43,67,-38,-292,17,-46,-56,-22,85
76,22,-48,-49,67,-32,-298,23,-40,-44,-16,91
82,28,-48,-61,73,-26,-304,35,-28,-32,-10,97
94,34,-48,-67,79,-20,-310,47,-22,-26,-4,103
106,46,-48,-73,85,-20,-316,59,-16,-20,1,109
112,52,-48,-79,91,-14,-322,65,-4,-14,1,115
118,64,-48,-85,91,-8,-328,77,1,-14,7,121
124,70,-48,-91,91,-3,-334,89,13,-14,13,127
130,76,-48,-97,91,-3,-340,101,25,-8,19,139
136,76,-48,-109,97,3,-346,113,31,3,31,145
142,82,-48,-115,103,9,-346,119,37,9,37,157
148,88,-48,-121,103,9,-346,125,49,21,49,169
154,94,-48,-127,103,9,-346,137,61,33,55,181
160,100,-48,-133,103,15,-346,149,67,45,67,193
166,106,-48,-139,109,21,-352,155,73,51,79,205
172,112,-48,-145,109,27,-358,167,85,63,91,211
172,118,-48,-145,109,27,-358,179,91,69,103,217
172,124,-48,-151,109,33,-358,185,103,75,115,223
178,130,-48,-157,115,33,-358,197,115,81,121,229
184,136,-48,-163,121,39,-358,209,127,87,127,235
190,136,-48,-169,121,39,-358,215,133,93,133,241
196,136,-48,-169,121,39,-358,221,139,105,139,247
202,136,-48,-175,127,39,-358,227,145,111,145,253
208,142,-48,-175,127,39,-358,233,151,117,151,259
208,148,-48,-175,127,39,-358,245,163,123,151,259
208,148,-48,-175,127,45,-358,251,169,129,151,265
208,148,-48,-175,127,45,-358,257,175,135,151,265
208,154,-48,-181,127,45,-358,263,187,141,157,265
208,154,-48,-181,127,45,-358,275,199,147,169,271
208,154,-48,-181,127,45,-358,281,205,153,175,277
208,154,-48,-181,127,45,-358,281,205,153,175,277
208,154,-48,-181,127,45,-352,287,211,159,175,277
208,154,-42,-181,127,45,-346,293,217,159,181,277
208,154,-42,-181,127,45,-340,293,223,159,181,277
208,154,-42,-181,127,45,-328,299,229,159,181,277
202,154,-42,-181,127,45,-322,299,229,159,181,271
196,148,-42,-175,127,45,-316,299,229,159,175,265
190,142,-42,-169,127,45,-304,299,229,159,169,253
178,130,-42,-157,121,45,-292,299,229,159,163,247
166,124,-42,-145,115,45,-280,293,229,159,157,241
160,118,-42,-139,109,45,-268,287,229,159,151,229
154,112,-42,-133,103,39,-256,287,229,159,145,223
148,106,-42,-127,103,39,-244,281,229,159,139,217
142,94,-42,-115,97,33,-232,269,223,153,133,205
136,82,-42,-103,91,21,-226,263,223,147,121,193
124,70,-42,-91,91,15,-220,257,217,141,109,181
112,58,-42,-79,91,9,-208,251,211,129,97,169
100,52,-42,-73,85,3,-196,239,199,123,85,151
94,46,-42,-67,85,-3,-184,221,187,111,73,139
82,34,-42,-61,85,-8,-178,197,163,99,61,127
70,22,-42,-55,79,-8,-172,179,151,87,49,121
64,10,-42,-43,73,-14,-166,167,139,75,37,115
58,4,-42,-37,67,-20,-160,155,127,69,31,109
46,-2,-42,-25,61,-20,-154,143,121,63,25,97
34,-7,-42,-19,49,-20,-154,137,115,57,13,85
22,-13,-42,-13,43,-20,-154,125,103,45,1,79
16,-19,-42,-2,43,-26,-154,113,97,39,-10,73
4,-25,-42,4,37,-26,-148,101,85,27,-22,67
-1,-31,-42,10,31,-26,-142,89,73,15,-28,61
-7,-37,-42,16,25,-32,-142,77,61,3,-40,49
-7,-43,-42,22,25,-38,-142,65,55,-2,-46,43
-13,-49,-42,28,25,-44,-142,59,43,-8,-52,37
-13,-55,-42,28,25,-44,-142,53,37,-8,-58,31
-19,-61,-42,28,25,-44,-142,47,31,-14,-58,25
-19,-67,-42,34,25,-50,-142,41,25,-20,-64,19
-25,-73,-42,40,25,-50,-142,35,19,-26,-70,7
-37,-79,-42,46,19,-50,-142,29,19,-26,-70,7
-43,-79,-42,52,13,-50,-142,29,19,-26,-70,7
-43,-79,-42,58,7,-50,-142,29,19,-26,-70,7
-43,-79,-42,64,7,-50,-142,29,13,-26,-70,7
-49,-79,-36,64,1,-50,-136,23,7,-26,-70,7
-55,-79,-36,64,1,-50,-136,17,7,-26,-70,7
-55,-79,-36,64,1,-50,-136,11,7,-26,-70,7
-55,-79,-36,64,1,-50,-136,11,7,-26,-70,7
-61,-79,-30,64,-4,-50,-136,11,7,-26,-70,7
-61,-79,-24,64,-10,-50,-136,11,7,-26,-70,7
-67,-79,-24,64,-16,-50,-136,11,7,-26,-70,7
-67,-85,-24,70,-16,-50,-136,5,1,-32,-70,7
-73,-85,-18,70,-16,-50,-136,5,-4,-32,-76,1
-73,-85,-18,70,-16,-50,-136,-1,-4,-32,-82,-4
-73,-91,-18,76,-16,-50,-136,-1,-4,-32,-82,-4
-79,-97,-18,82,-16,-50,-136,-1,-4,-38,-82,-4
-79,-97,-18,82,-22,-50,-136,-1,-4,-38,-82,-4
-85,-97,-18,88,-22,-50,-136,-1,-4,-38,-82,-4
-85,-97,-18,88,-22,-50,-136,-1,-4,-38,-82,-4
-85,-97,-18,88,-22,-50,-136,-1,-4,-38,-82,-4
-85,-97,-18,88,-22,-50,-136,-1,-4,-38,-82,-4
-85,-97,-18,88,-22,-50,-136,-1,-4,-38,-82,-4
-85,-97,-18,88,-22,-50,-136,-1,-4,-38,-82,-4
-85,-97,-18,88,-22,-50,-136,-1,-4,-38,-82,-4
-85,-97,-18,88,-22,-50,-136,-1,-4,-38,-82,-4
-85,-97,-12,88,-22,-50,-136,-1,-4,-38,-82,-4
-85,-97,-6,88,-28,-44,-136,-1,-4,-38,-82,-4
-85,-97,-6,88,-28,-44,-136,-1,-4,-38,-82,-4
-85,-97,-6,88,-28,-44,-136,-1,-4,-38,-82,-4
-85,-97,-6,88,-28,-44,-136,-1,-4,-38,-82,-4
-85,-97,-6,88,-28,-44,-136,-1,-4,-38,-82,-4
-85,-97,-6,88,-28,-44,-136,-1,-4,-38,-82,-4
-85,-97,-6,88,-28,-44,-136,-1,-4,-38,-76,-4
-85,-97,-6,88,-28,-44,-136,-1,-4,-38,-76,-4
-85,-97,-6,88,-28,-44,-136,-1,-4,-38,-76,-4
-85,-97,-6,88,-28,-44,-136,-1,-4,-38,-76,-4
-85,-97,-6,88,-28,-44,-136,-1,-4,-38,-76,-4
-85,-97,-6,88,-28,-44,-136,-1,-4,-38,-76,-4
-85,-97,-6,88,-28,-44,-136,-1,-4,-38,-76,-4
-85,-97,-6,88,-28,-44,-136,-1,-4,-38,-76,-4
-85,-97,-6,88,-28,-44,-136,-1,-4,-38,-76,-4
-85,-97,-6,88,-28,-44,-136,-1,-4,-38,-70,1
-85,-97,-6,88,-28,-44,-136,-1,-4,-38,-64,7
-85,-97,-6,88,-28,-44,-136,-1,-4,-38,-64,7
-79,-97,-6,82,-28,-44,-136,-1,-4,-38,-64,7
-79,-97,-6,82,-28,-44,-136,-1,-4,-32,-64,7
-79,-97,-6,82,-28,-44,-136,-1,-4,-32,-58,7
-79,-97,-6,82,-28,-44,-136,-1,-4,-32,-58,7
-79,-97,-6,82,-28,-44,-136,-1,-4,-32,-58,7
-73,-91,-6,76,-28,-44,-136,-1,-4,-32,-52,7
-67,-85,-6,76,-28,-44,-136,-1,-4,-32,-52,7
-67,-85,-6,70,-28,-44,-136,-1,-4,-32,-52,7
-67,-85,-6,70,-28,-44,-136,-1,-4,-32,-52,7
-67,-85,-6,70,-28,-44,-136,-1,-4,-32,-52,7
-67,-79,-6,70,-28,-44,-136,-1,-4,-26,-52,7
-67,-79,-6,70,-28,-44,-136,-1,-4,-20,-52,7
-67,-79,-6,70,-28,-44,-136,-1,-4,-20,-52,7
-67,-79,-6,70,-28,-44,-136,-1,-4,-20,-52,7
-67,-79,-6,70,-28,-44,-136,-1,-4,-20,-52,7
-67,-79,-6,70,-28,-44,-136,-1,-4,-20,-52,7
-67,-79,-6,64,-28,-44,-136,-1,-4,-20,-46,7
-67,-79,-6,64,-28,-44,-136,-1,-4,-20,-46,7
-67,-79,-6,58,-28,-44,-136,-1,-4,-20,-46,7
-67,-73,-6,58,-28,-44,-136,-1,-4,-20,-46,7
-67,-73,-6,58,-28,-44,-136,-1,-4,-20,-46,7
-67,-73,-6,58,-28,-44,-136,-1,-4,-20,-46,7
-61,-73,-6,58,-28,-44,-136,-1,-4,-20,-46,7
-55,-73,-6,58,-28,-44,-136,-1,-4,-20,-46,7
-55,-73,-6,58,-28,-44,-142,-1,-4,-20,-46,7
-55,-73,-6,58,-28,-44,-142,-1,-4,-20,-46,7
-55,-73,-6,58,-28,-44,-142,-1,-4,-20,-46,7
-55,-73,-6,58,-28,-44,-142,-1,-4,-20,-46,7
-55,-73,-6,58,-28,-44,-148,-1,-4,-20,-46,7
-55,-73,-6,58,-28,-44,-154,-6,-10,-20,-46,7
-55,-73,-6,58,-28,-44,-160,-6,-16,-20,-46,7
-55,-73,-6,58,-28,-44,-160,-6,-16,-20,-46,7
-55,-73,-6,58,-28,-44,-160,-6,-16,-20,-46,7
-55,-73,-6,58,-28,-44,-160,-6,-16,-20,-46,7
-55,-73,-6,58,-28,-44,-160,-6,-16,-20,-46,7
-55,-73,-6,58,-28,-44,-160,-6,-16,-20,-46,7
-55,-73,-6,58,-28,-44,-160,-6,-16,-20,-46,7
-55,-73,-12,58,-22,-44,-160,-12,-16,-20,-46,7
-55,-73,-12,58,-22,-44,-160,-12,-22,-20,-46,7
-55,-73,-12,58,-22,-44,-160,-18,-22,-20,-46,7
-55,-73,-12,58,-22,-44,-160,-18,-28,-20,-46,7
-55,-73,-18,58,-22,-44,-160,-24,-28,-20,-46,7
-55,-73,-24,58,-22,-44,-160,-24,-28,-20,-46,7
-55,-73,-24,58,-22,-44,-160,-24,-28,-26,-52,7
-55,-73,-24,58,-22,-44,-160,-30,-34,-32,-52,1
-55,-73,-24,58,-22,-44,-160,-30,-34,-32,-58,1
-55,-73,-24,58,-22,-44,-160,-30,-40,-32,-58,1
-55,-73,-24,58,-22,-44,-160,-36,-46,-32,-58,-4
-55,-73,-24,58,-22,-44,-160,-36,-46,-32,-64,-10
-55,-73,-24,58,-22,-44,-160,-36,-46,-32,-64,-16
-55,-73,-24,58,-22,-44,-160,-36,-46,-38,-64,-22
-55,-73,-24,58,-22,-44,-160,-36,-52,-44,-64,-22
-55,-73,-24,58,-22,-44,-160,-42,-52,-44,-64,-22
-55,-73,-24,58,-22,-44,-160,-48,-52,-44,-70,-22
-55,-73,-24,58,-22,-44,-160,-48,-52,-44,-70,-22
-55,-73,-24,58,-22,-44,-160,-48,-52,-44,-70,-22
-55,-73,-24,58,-22,-44,-160,-48,-58,-50,-76,-22
-55,-73,-30,58,-22,-44,-160,-54,-58,-56,-76,-22
-55,-73,-36,58,-22,-44,-160,-54,-58,-56,-76,-22
-55,-73,-36,58,-22,-44,-160,-54,-64,-56,-76,-22
-55,-73,-36,58,-22,-44,-160,-54,-64,-56,-76,-22
-55,-73,-36,58,-22,-44,-160,-54,-64,-56,-82,-22
-55,-73,-36,58,-22,-50,-160,-60,-64,-56,-82,-22
-55,-73,-36,58,-22,-50,-160,-66,-70,-56,-82,-22
-55,-73,-36,58,-16,-50,-160,-66,-76,-56,-82,-22
-55,-73,-36,58,-16,-50,-160,-66,-76,-56,-82,-28
-55,-73,-36,58,-16,-50,-154,-66,-76,-56,-88,-34
-55,-73,-36,58,-16,-50,-154,-66,-76,-62,-94,-40
-55,-73,-36,58,-16,-50,-154,-66,-76,-68,-94,-46
-55,-73,-36,58,-16,-50,-154,-66,-82,-74,-100,-52
-55,-73,-36,58,-16,-50,-154,-66,-82,-74,-100,-58
-55,-73,-36,58,-16,-50,-154,-66,-82,-74,-100,-64
-55,-73,-42,58,-10,-50,-154,-72,-88,-74,-106,-70
-55,-73,-42,58,-10,-50,-154,-72,-88,-74,-112,-70
-55,-73,-42,58,-10,-50,-154,-78,-94,-74,-118,-76
-55,-73,-42,58,-10,-50,-154,-78,-94,-74,-118,-76
-55,-73,-42,58,-10,-50,-154,-78,-94,-74,-118,-76
-55,-73,-42,58,-10,-56,-154,-78,-94,-74,-118,-76
-49,-73,-48,58,-4,-62,-154,-84,-94,-80,-118,-76
-49,-73,-48,58,-4,-62,-154,-84,-94,-86,-118,-76
-49,-73,-48,58,-4,-62,-154,-84,-94,-86,-118,-76
-49,-79,-54,58,-4,-68,-154,-84,-94,-86,-118,-76
-49,-85,-60,58,1,-74,-154,-84,-94,-86,-118,-76
-49,-85,-60,58,1,-74,-154,-84,-100,-86,-124,-82
-49,-85,-60,58,1,-74,-154,-84,-100,-86,-124,-82
-49,-85,-60,58,1,-74,-154,-84,-100,-86,-124,-82
-43,-85,-60,58,7,-74,-154,-84,-100,-86,-124,-82
-37,-85,-66,58,13,-74,-154,-90,-100,-86,-124,-82
-37,-85,-66,58,13,-74,-154,-90,-100,-86,-124,-88
-37,-85,-66,58,13,-74,-154,-96,-100,-86,-124,-88
-37,-85,-66,58,19,-74,-154,-96,-106,-86,-124,-88
-37,-85,-72,58,19,-80,-154,-96,-112,-86,-124,-88
-37,-85,-72,58,19,-80,-154,-96,-112,-92,-124,-88
-37,-85,-72,58,19,-80,-154,-96,-112,-92,-124,-88
-37,-91,-72,58,19,-80,-154,-96,-112,-92,-124,-88
-37,-97,-78,58,19,-80,-154,-96,-112,-92,-124,-88
-37,-97,-78,58,19,-80,-154,-102,-112,-92,-124,-88
-37,-97,-78,58,19,-80,-148,-102,-112,-92,-124,-88
-37,-97,-78,58,19,-80,-148,-102,-112,-92,-124,-88
-31,-97,-78,58,19,-80,-148,-102,-112,-92,-124,-88
-31,-97,-78,58,19,-80,-148,-102,-112,-92,-124,-88
-31,-97,-78,58,25,-80,-148,-102,-112,-92,-124,-88
-31,-97,-78,58,25,-80,-148,-102,-112,-92,-124,-88
-31,-97,-78,58,25,-80,-148,-102,-112,-92,-130,-88
-31,-97,-78,58,25,-80,-148,-108,-112,-92,-130,-94
-25,-97,-78,58,25,-80,-148,-108,-112,-92,-130,-94
-25,-97,-78,58,25,-80,-148,-108,-112,-92,-130,-94
-25,-97,-78,58,25,-80,-148,-108,-112,-92,-136,-100
-25,-97,-78,58,25,-80,-148,-108,-118,-92,-142,-106
-25,-97,-78,58,25,-80,-148,-114,-124,-92,-142,-106
-25,-97,-78,58,25,-80,-148,-120,-124,-92,-142,-106
-25,-97,-78,58,25,-80,-148,-120,-124,-92,-142,-112
-25,-97,-78,58,25,-80,-142,-120,-124,-92,-142,-112
-25,-97,-78,58,25,-80,-142,-120,-124,-92,-142,-112
-25,-97,-78,58,25,-80,-142,-120,-124,-92,-142,-112
-25,-97,-78,58,25,-80,-142,-120,-124,-92,-142,-112
-19,-97,-78,52,31,-80,-142,-120,-124,-92,-142,-112
-19,-97,-78,52,31,-86,-142,-120,-124,-92,-142,-112
-19,-97,-78,52,31,-86,-142,-120,-124,-92,-142,-112
-19,-97,-78,52,31,-86,-142,-126,-124,-92,-142,-112
-19,-97,-78,52,31,-86,-142,-126,-124,-92,-142,-112
-19,-97,-78,52,31,-86,-142,-126,-124,-92,-142,-112
-19,-97,-78,52,31,-86,-142,-126,-124,-92,-142,-112
-19,-97,-78,52,31,-86,-142,-126,-124,-92,-142,-118
-19,-97,-84,52,31,-86,-142,-126,-124,-92,-142,-124
-19,-97,-90,52,31,-86,-142,-126,-124,-92,-142,-124
-19,-97,-90,52,31,-86,-142,-126,-124,-92,-142,-124
-19,-97,-90,52,31,-86,-142,-126,-124,-92,-142,-124
-19,-97,-90,52,37,-86,-142,-126,-124,-92,-142,-130
-19,-97,-90,52,37,-86,-136,-126,-124,-92,-142,-130
-19,-97,-90,52,37,-86,-136,-126,-124,-92,-142,-130
-19,-97,-90,52,37,-86,-136,-132,-124,-92,-142,-130
-13,-97,-96,52,43,-92,-136,-132,-124,-92,-142,-130
-7,-97,-96,52,49,-92,-136,-138,-130,-92,-142,-130
-7,-97,-96,52,49,-92,-136,-138,-130,-92,-142,-130
-7,-97,-96,52,49,-92,-136,-138,-130,-92,-142,-130
-7,-97,-96,52,49,-92,-136,-138,-136,-98,-142,-130
-7,-97,-96,52,49,-92,-136,-138,-136,-98,-148,-130
-7,-97,-96,52,49,-92,-136,-138,-136,-104,-148,-130
-7,-97,-96,52,49,-92,-136,-138,-136,-104,-148,-130
-7,-97,-96,52,49,-92,-136,-138,-136,-104,-154,-136
-7,-97,-96,52,49,-92,-130,-138,-136,-110,-154,-136
-7,-97,-96,52,49,-92,-130,-138,-136,-110,-154,-142
-7,-97,-96,52,49,-92,-130,-138,-136,-110,-154,-148
-7,-97,-96,52,49,-92,-124,-138,-136,-110,-154,-148
-7,-97,-96,52,49,-92,-124,-138,-136,-110,-154,-148
-7,-97,-96,52,49,-92,-124,-138,-136,-110,-154,-148
-7,-97,-96,52,49,-92,-124,-138,-136,-110,-154,-148
-7,-97,-96,52,49,-92,-124,-138,-136,-110,-154,-148
-7,-97,-96,52,49,-92,-118,-138,-136,-110,-154,-148
-7,-97,-96,52,49,-92,-118,-138,-136,-110,-154,-148
-7,-97,-96,52,49,-92,-118,-138,-136,-110,-154,-148
-7,-97,-96,52,49,-92,-118,-144,-136,-110,-154,-148
-7,-97,-102,52,49,-92,-118,-144,-136,-110,-154,-148
-1,-97,-108,52,55,-92,-118,-144,-136,-110,-154,-148
-1,-97,-108,52,55,-92,-118,-144,-136,-110,-154,-148
-1,-97,-108,52,55,-92,-118,-144,-136,-110,-154,-148
-1,-97,-108,52,55,-92,-118,-144,-136,-110,-154,-148
-1,-97,-108,52,55,-92,-118,-144,-136,-110,-154,-148
-1,-97,-108,52,55,-92,-118,-144,-136,-110,-154,-148
-1,-97,-108,52,55,-92,-118,-144,-136,-110,-154,-148
-1,-97,-108,52,55,-92,-118,-144,-136,-110,-154,-148
-1,-97,-108,52,55,-92,-118,-144,-136,-110,-154,-148
-1,-97,-108,52,55,-92,-118,-144,-136,-110,-154,-148
-1,-97,-108,52,55,-92,-118,-144,-136,-110,-154,-148
-1,-97,-108,52,55,-98,-112,-144,-136,-110,-154,-148
-1,-97,-108,52,55,-98,-106,-144,-136,-110,-154,-148
-1,-97,-108,52,55,-98,-106,-144,-136,-110,-154,-148
-1,-97,-108,52,55,-98,-106,-144,-136,-110,-154,-148
-1,-97,-108,52,55,-98,-106,-144,-136,-110,-154,-148
-1,-97,-108,52,55,-98,-100,-144,-136,-110,-154,-148
-1,-97,-108,52,55,-98,-100,-144,-136,-110,-154,-148
-1,-97,-108,52,55,-98,-100,-144,-136,-110,-154,-148
-1,-97,-108,52,55,-98,-100,-144,-136,-110,-154,-148
-1,-97,-108,52,55,-98,-100,-144,-136,-110,-154,-148
-1,-97,-108,52,55,-98,-100,-144,-136,-110,-154,-148
-1,-97,-108,52,55,-98,-100,-144,-136,-110,-154,-148
-1,-97,-108,52,55,-98,-94,-144,-136,-110,-154,-148
-1,-97,-108,52,55,-98,-94,-144,-136,-110,-154,-148
-1,-97,-102,52,55,-98,-94,-144,-136,-110,-154,-148
-1,-97,-102,52,55,-98,-94,-144,-136,-110,-154,-148
-1,-97,-102,52,55,-98,-94,-144,-136,-110,-154,-148
-1,-91,-102,52,55,-98,-88,-144,-136,-110,-154,-148
-1,-79,-102,52,55,-86,-82,-144,-136,-110,-154,-148
-1,-73,-96,46,55,-80,-70,-138,-136,-110,-154,-142
-1,-61,-90,40,55,-74,-58,-132,-136,-110,-154,-142
4,-55,-90,34,55,-74,-52,-126,-130,-110,-154,-136
4,-49,-84,28,55,-74,-40,-120,-124,-104,-148,-130
4,-49,-84,28,55,-68,-34,-114,-118,-98,-142,-124
4,-49,-84,28,55,-62,-28,-108,-112,-92,-136,-124
4,-49,-84,28,55,-62,-22,-102,-106,-92,-130,-124
4,-49,-78,22,55,-62,-16,-96,-106,-86,-124,-124
4,-43,-72,22,49,-56,-10,-90,-100,-86,-124,-124
4,-37,-66,22,43,-50,-5,-90,-100,-80,-118,-118
4,-37,-60,22,37,-44,1,-90,-100,-74,-112,-118
4,-37,-60,22,31,-44,7,-90,-100,-74,-106,-112
4,-37,-60,22,31,-38,13,-84,-94,-68,-106,-112
10,-31,-60,16,31,-38,19,-78,-88,-62,-100,-106
10,-25,-60,10,31,-38,25,-66,-76,-50,-94,-100
16,-19,-54,4,31,-38,31,-54,-64,-38,-88,-94
22,-13,-54,-2,31,-32,37,-42,-52,-32,-82,-88
34,-2,-54,-13,31,-26,43,-36,-46,-26,-76,-82
46,10,-54,-25,31,-26,43,-24,-40,-20,-70,-70
58,16,-54,-31,37,-20,43,-12,-34,-14,-64,-64
70,22,-54,-43,43,-14,43,-6,-28,-8,-58,-58
82,28,-54,-55,49,-14,43,-1,-22,-2,-52,-52
94,34,-54,-67,55,-8,43,-1,-16,3,-46,-46
100,40,-54,-73,61,-8,43,-1,-16,3,-46,-46
100,46,-54,-79,61,-8,43,-1,-10,9,-46,-46
100,46,-54,-79,61,-8,43,5,-10,9,-46,-40
100,46,-54,-79,67,-8,43,5,-10,9,-46,-40
100,46,-60,-79,73,-14,43,5,-10,9,-46,-40
100,46,-66,-73,73,-14,37,-1,-10,9,-46,-40
100,40,-66,-73,73,-14,25,-6,-10,9,-46,-40
100,34,-66,-73,73,-20,13,-12,-16,9,-46,-40
100,22,-72,-67,73,-26,7,-18,-22,3,-52,-40
100,10,-84,-61,79,-38,1,-24,-34,-8,-58,-46
100,-2,-102,-61,85,-50,-5,-30,-40,-20,-64,-52
100,-7,-108,-55,91,-56,-10,-36,-46,-26,-70,-58
100,-7,-108,-55,91,-56,-16,-42,-52,-32,-76,-58
100,-13,-108,-55,91,-62,-22,-48,-58,-38,-76,-58
100,-13,-108,-55,91,-62,-28,-54,-64,-38,-76,-58
100,-13,-108,-55,91,-62,-28,-54,-70,-44,-76,-58
100,-13,-108,-55,97,-62,-28,-60,-70,-44,-76,-58
100,-13,-108,-55,97,-62,-28,-60,-70,-44,-76,-58
100,-13,-108,-55,97,-62,-28,-66,-70,-44,-76,-58
100,-13,-108,-55,97,-62,-28,-72,-76,-50,-82,-58
94,-13,-108,-49,91,-62,-34,-84,-82,-56,-88,-64
82,-19,-108,-37,85,-62,-34,-96,-88,-62,-94,-70
70,-31,-108,-25,73,-62,-34,-108,-100,-68,-100,-82
52,-43,-102,-7,67,-62,-40,-120,-112,-74,-112,-94
40,-55,-102,10,61,-68,-46,-132,-124,-80,-124,-106
28,-67,-102,22,55,-74,-46,-138,-136,-92,-136,-118
22,-79,-102,34,49,-80,-46,-144,-148,-104,-142,-124
16,-85,-102,40,49,-80,-46,-150,-160,-116,-148,-136
10,-91,-102,46,49,-80,-52,-150,-166,-122,-154,-142
4,-91,-102,46,49,-86,-58,-156,-172,-128,-160,-148
4,-97,-102,52,49,-86,-58,-162,-172,-128,-166,-154
4,-97,-102,52,49,-86,-58,-168,-172,-128,-172,-154
4,-97,-102,52,49,-86,-58,-168,-172,-128,-172,-154
-1,-103,-102,58,49,-92,-58,-174,-172,-128,-172,-154
-1,-109,-102,58,49,-98,-64,-180,-178,-134,-172,-154
-1,-109,-102,58,49,-98,-70,-180,-184,-140,-172,-154
-1,-109,-102,58,49,-98,-70,-180,-184,-140,-178,-154
-1,-109,-102,58,49,-98,-70,-180,-190,-140,-178,-154
-1,-109,-102,58,43,-98,-70,-180,-190,-140,-178,-154
-1,-109,-102,58,43,-98,-70,-180,-190,-140,-178,-154
-1,-103,-96,58,37,-92,-70,-180,-190,-140,-178,-154
-1,-97,-84,58,37,-86,-70,-180,-184,-134,-172,-154
-1,-91,-72,58,31,-80,-70,-180,-178,-122,-166,-148
-1,-85,-60,58,25,-74,-70,-180,-172,-110,-154,-142
-1,-79,-48,58,19,-68,-64,-168,-160,-98,-142,-136
-7,-73,-42,58,19,-62,-58,-156,-148,-92,-130,-130
-13,-61,-36,52,13,-50,-52,-144,-136,-80,-118,-124
-19,-55,-30,52,1,-38,-46,-126,-124,-68,-106,-112
-25,-49,-18,52,-10,-26,-34,-102,-112,-56,-94,-100
-31,-37,5,52,-22,-14,-16,-90,-82,-44,-82,-88
-37,-31,35,52,-46,3,7,-72,-58,-20,-70,-82
-49,-19,71,52,-64,21,25,-42,-28,3,-52,-70
-61,-13,101,52,-82,33,55,-18,-4,33,-34,-58
-73,-7,119,52,-94,39,67,5,13,51,-22,-46
-85,-2,131,52,-106,51,85,23,31,63,-16,-40
-121,-2,143,58,-130,63,109,53,43,75,-10,-40
-151,-2,155,64,-160,81,139,77,55,81,-4,-40
-169,-2,167,70,-172,93,169,101,67,87,1,-40
-181,-2,179,76,-190,105,211,131,85,93,1,-40
-211,-2,215,88,-220,117,271,185,103,93,1,-40
-241,-2,257,106,-262,123,355,257,145,105,1,-46
-277,4,317,118,-304,153,439,359,205,129,1,-52
-313,34,407,124,-358,201,517,455,289,189,25,-52
-337,76,467,124,-394,261,559,533,385,291,91,-28
-337,142,527,112,-424,333,595,629,511,411,199,25
-337,208,557,82,-430,375,613,755,649,537,319,109
-331,268,569,40,-430,417,637,899,799,663,427,193
-295,316,575,-13,-430,447,643,1061,955,801,535,277
-217,388,575,-91,-418,489,643,1247,1159,981,703,403
-85,490,575,-193,-364,513,631,1457,1405,1209,919,577
76,586,557,-319,-268,537,589,1685,1681,1455,1153,781
232,700,521,-451,-154,561,559,1973,1975,1719,1399,1003
388,802,479,-589,-46,579,517,2236,2286,1995,1657,1213
544,898,431,-715,55,609,475,2398,2567,2264,1915,1423
676,970,365,-823,151,627,385,2427,2813,2527,2160,1609
778,1012,287,-895,253,633,253,2421,2987,2725,2364,1753
856,1036,203,-943,319,633,169,2344,3131,2887,2513,1861
898,1042,161,-973,361,627,151,2230,3257,3031,2615,1933
910,1042,119,-973,385,609,151,2086,3347,3139,2693,1969
916,1012,77,-967,397,555,151,1895,3365,3163,2711,1981
910,910,23,-913,415,459,151,1661,3311,3121,2675,1969
874,760,-36,-805,427,351,151,1409,3047,2833,2412,1783
760,598,-78,-667,427,243,157,1139,2651,2414,2023,1507
604,460,-84,-523,385,189,169,767,2160,1929,1597,1207
406,358,-66,-379,253,171,169,383,1573,1467,1207,931
220,268,0,-247,121,159,169,5,955,999,841,655
88,166,29,-127,31,141,163,-336,367,543,475,385
-1,76,41,-31,-16,105,151,-570,-70,201,211,181
-85,10,47,40,-58,69,139,-660,-280,27,43,43
-127,-49,47,88,-88,33,133,-678,-346,-68,-64,-40
-151,-91,47,124,-106,3,127,-678,-376,-140,-136,-112
-169,-115,47,148,-112,-14,121,-672,-406,-194,-196,-160
-187,-139,47,166,-118,-26,103,-672,-430,-236,-226,-190
-199,-163,47,178,-124,-50,73,-672,-454,-266,-256,-220
-205,-181,47,190,-124,-62,43,-672,-466,-284,-274,-232
-205,-187,41,190,-124,-68,31,-648,-466,-290,-280,-238
-205,-187,35,190,-118,-74,19,-600,-466,-290,-280,-238
-199,-187,17,190,-106,-80,1,-558,-460,-290,-280,-238
-187,-187,-12,190,-94,-86,-22,-516,-448,-290,-280,-238
-157,-187,-24,184,-76,-92,-40,-480,-436,-290,-280,-238
-133,-175,-36,172,-64,-98,-52,-438,-406,-284,-280,-238
-115,-163,-42,160,-46,-98,-64,-390,-376,-272,-274,-232
-91,-157,-48,142,-28,-98,-76,-348,-346,-254,-268,-226
-67,-151,-54,124,-16,-98,-82,-312,-322,-242,-262,-220
-55,-145,-60,112,-10,-98,-88,-282,-310,-230,-256,-214
-49,-139,-66,100,-4,-98,-88,-270,-298,-224,-250,-214
-43,-139,-72,94,1,-98,-88,-258,-292,-218,-244,-214
-43,-139,-72,94,7,-98,-94,-246,-292,-218,-244,-214
-37,-139,-78,94,7,-98,-94,-240,-292,-218,-244,-214
-37,-133,-78,94,7,-98,-94,-234,-292,-218,-244,-208
-31,-133,-78,94,13,-98,-94,-234,-292,-218,-244,-208
-31,-133,-78,94,13,-98,-94,-234,-292,-218,-244,-208
-31,-133,-78,94,19,-98,-94,-234,-292,-218,-244,-208
-25,-127,-78,88,19,-98,-100,-234,-286,-218,-244,-208
-19,-127,-78,82,19,-98,-100,-234,-286,-218,-244,-208
-19,-121,-78,82,19,-98,-100,-234,-286,-218,-244,-208
-19,-121,-78,82,19,-98,-100,-234,-286,-218,-244,-208
-19,-121,-78,82,25,-98,-100,-234,-286,-218,-244,-208
-19,-121,-84,82,25,-98,-100,-228,-286,-218,-244,-208
-13,-121,-90,76,25,-98,-100,-228,-280,-218,-244,-208
-7,-121,-96,76,31,-98,-100,-228,-280,-218,-244,-208
-7,-121,-96,70,31,-98,-100,-228,-280,-218,-244,-208
-7,-121,-96,70,31,-98,-100,-222,-280,-212,-244,-208
-1,-121,-96,70,31,-98,-100,-216,-280,-212,-238,-208
-1,-121,-102,70,31,-98,-100,-210,-280,-212,-238,-208
-1,-121,-108,70,37,-98,-100,-210,-280,-212,-238,-208
-1,-121,-114,64,43,-104,-100,-204,-280,-212,-238,-208
-1,-121,-114,64,43,-104,-100,-204,-280,-212,-238,-208
-1,-121,-114,64,43,-104,-100,-204,-280,-212,-238,-202
-1,-121,-114,64,43,-104,-100,-204,-280,-212,-238,-202
4,-121,-114,58,49,-104,-100,-204,-274,-212,-238,-196
10,-115,-114,58,49,-104,-100,-198,-274,-212,-238,-196
16,-115,-114,58,49,-104,-100,-198,-274,-212,-238,-196
16,-115,-114,52,49,-104,-100,-198,-274,-206,-238,-196
16,-115,-114,52,49,-104,-100,-192,-268,-200,-238,-190
16,-109,-114,46,49,-104,-100,-192,-262,-200,-238,-190
16,-109,-114,46,55,-104,-100,-186,-262,-200,-238,-184
16,-109,-114,46,55,-104,-100,-186,-262,-200,-232,-184
16,-109,-114,46,55,-104,-100,-186,-262,-200,-226,-184
16,-109,-114,46,55,-104,-100,-186,-262,-200,-226,-178
16,-109,-114,46,55,-104,-100,-186,-256,-200,-226,-172
16,-109,-114,46,55,-104,-100,-186,-256,-200,-226,-172
22,-109,-114,46,61,-104,-100,-180,-256,-194,-220,-172
28,-109,-114,40,61,-104,-100,-180,-256,-194,-220,-172
28,-109,-114,40,61,-104,-100,-180,-256,-194,-220,-166
28,-109,-114,40,61,-104,-100,-174,-250,-194,-214,-166
34,-109,-114,40,61,-104,-100,-168,-244,-188,-214,-166
40,-103,-114,34,67,-104,-100,-168,-244,-182,-214,-160
46,-97,-114,34,73,-104,-100,-168,-244,-182,-208,-154
46,-97,-114,34,73,-104,-100,-162,-238,-182,-202,-148
46,-97,-114,34,73,-104,-100,-156,-232,-182,-196,-142
46,-97,-114,28,73,-104,-100,-150,-232,-182,-196,-142
52,-91,-120,22,79,-104,-100,-150,-232,-176,-190,-136
52,-85,-120,22,79,-104,-100,-150,-226,-170,-184,-130
52,-79,-120,22,79,-104,-100,-144,-220,-164,-178,-124
52,-79,-120,22,79,-104,-106,-144,-220,-158,-172,-124
52,-79,-120,22,79,-104,-106,-144,-220,-158,-172,-124
58,-73,-120,16,79,-104,-112,-144,-220,-152,-172,-124
64,-67,-120,10,79,-104,-112,-138,-214,-152,-166,-118
64,-67,-120,4,85,-104,-112,-132,-208,-152,-160,-118
64,-67,-120,4,85,-104,-112,-126,-208,-152,-160,-118
64,-67,-120,4,85,-104,-118,-120,-202,-146,-160,-112
64,-61,-120,4,85,-104,-118,-114,-196,-140,-154,-106
70,-55,-120,-2,85,-104,-124,-108,-196,-140,-154,-100
76,-49,-120,-7,91,-98,-124,-102,-190,-140,-154,-94
82,-49,-120,-7,91,-98,-124,-96,-184,-134,-148,-88
82,-49,-120,-13,91,-98,-130,-90,-178,-128,-148,-82
82,-43,-120,-13,91,-92,-136,-90,-178,-128,-148,-82
82,-37,-120,-19,91,-86,-142,-84,-178,-128,-142,-76
88,-31,-120,-25,91,-80,-148,-78,-172,-122,-136,-76
94,-25,-120,-31,97,-74,-154,-72,-166,-116,-130,-70
100,-19,-120,-37,97,-74,-154,-60,-160,-110,-118,-64
106,-13,-120,-43,97,-68,-154,-48,-154,-104,-106,-58
112,-7,-120,-49,97,-68,-160,-42,-148,-98,-100,-52
118,-2,-120,-55,97,-68,-166,-36,-142,-92,-94,-46
124,-2,-120,-61,103,-68,-166,-30,-136,-86,-88,-40
130,4,-120,-67,103,-62,-166,-18,-130,-80,-82,-34
130,10,-120,-67,103,-56,-172,-12,-118,-74,-76,-28
136,16,-120,-67,109,-50,-178,-1,-112,-68,-70,-22
142,22,-120,-73,115,-50,-178,11,-100,-62,-64,-16
154,28,-120,-85,127,-50,-178,23,-88,-56,-58,-10
160,40,-120,-97,133,-50,-184,35,-82,-50,-52,-4
160,46,-120,-103,133,-44,-190,47,-70,-44,-40,7
160,52,-114,-109,133,-38,-190,59,-58,-32,-28,25
166,58,-114,-115,133,-32,-190,71,-46,-26,-16,37
178,64,-114,-121,133,-32,-196,83,-34,-20,-4,49
184,64,-114,-127,133,-32,-196,101,-22,-14,1,55
190,64,-114,-127,139,-32,-196,113,-10,-2,7,61
196,70,-114,-127,145,-32,-202,125,-4,9,13,67
202,76,-114,-133,145,-26,-202,137,1,15,25,73
208,82,-114,-139,151,-20,-208,149,7,21,37,79
214,94,-114,-151,151,-20,-214,161,19,33,49,91
226,100,-114,-157,157,-14,-214,173,31,39,55,97
232,112,-114,-163,157,-8,-214,179,37,45,61,109
238,118,-114,-169,157,-8,-214,191,43,51,67,121
244,124,-114,-175,157,-8,-214,197,49,57,73,127
244,124,-114,-181,157,-3,-214,209,55,63,79,133
250,130,-114,-187,163,3,-214,215,67,69,85,139
256,136,-114,-193,169,3,-214,221,73,75,91,145
256,142,-114,-199,169,9,-214,233,85,81,103,151
262,148,-114,-199,169,9,-214,239,91,87,109,151
262,154,-114,-199,169,15,-214,251,97,93,109,157
262,154,-114,-205,169,15,-214,263,103,99,115,163
262,154,-114,-205,169,15,-214,269,115,105,121,163
268,160,-114,-211,169,21,-214,275,127,111,127,163
274,160,-114,-211,169,27,-214,281,133,117,133,169
274,166,-108,-217,169,33,-214,287,139,123,139,175
274,166,-108,-217,169,33,-214,293,145,129,139,175
274,166,-108,-217,169,33,-214,299,151,135,145,175
274,166,-108,-217,169,33,-214,305,157,141,145,175
274,166,-102,-217,169,33,-208,305,163,141,145,175
274,166,-96,-217,169,33,-202,305,163,141,145,175
268,166,-96,-217,169,33,-190,305,169,141,145,175
268,166,-96,-217,169,33,-178,305,175,147,145,175
268,166,-96,-217,169,33,-172,305,175,147,145,175
262,166,-96,-217,163,33,-160,305,175,147,145,169
256,160,-96,-211,157,33,-148,305,175,147,145,163
250,154,-96,-205,151,33,-136,305,175,147,145,157
238,148,-96,-193,151,33,-124,299,175,147,139,145
232,142,-96,-187,151,33,-118,287,175,141,133,133
226,136,-96,-181,151,27,-106,269,175,135,127,121
220,130,-96,-175,151,27,-100,257,169,129,115,109
214,118,-96,-163,145,21,-88,239,163,123,103,103
202,106,-96,-151,139,15,-76,215,151,117,91,97
190,94,-96,-139,133,9,-70,203,139,111,79,85
178,88,-96,-133,127,9,-64,185,127,105,73,73
172,82,-96,-127,121,3,-58,161,115,99,67,61
166,76,-96,-121,121,-3,-52,143,103,93,61,49
160,70,-96,-115,115,-3,-46,125,91,81,49,31
154,64,-96,-103,109,-8,-40,107,79,63,37,13
148,52,-96,-91,103,-14,-34,89,67,45,13,-10
142,40,-96,-79,103,-20,-28,77,55,27,1,-22
136,28,-96,-73,103,-26,-22,59,37,15,-10,-28
130,22,-96,-67,103,-32,-22,35,25,9,-22,-34
124,16,-96,-61,103,-38,-22,23,13,3,-34,-40
118,10,-96,-61,103,-44,-22,11,1,-2,-40,-46
112,4,-96,-61,103,-44,-22,-1,-10,-8,-46,-46
100,-2,-96,-49,97,-50,-16,-12,-16,-14,-52,-46
88,-13,-96,-43,97,-56,-16,-24,-22,-20,-52,-52
82,-19,-96,-37,97,-62,-16,-36,-34,-32,-58,-58
76,-25,-96,-31,91,-62,-16,-42,-40,-44,-64,-64
76,-25,-96,-31,91,-62,-16,-54,-52,-50,-70,-70
76,-31,-96,-31,91,-68,-16,-66,-64,-56,-76,-76
76,-37,-96,-25,91,-74,-16,-72,-70,-62,-82,-82
70,-37,-96,-19,85,-74,-10,-78,-76,-68,-88,-88
70,-37,-96,-19,79,-74,-10,-84,-82,-74,-94,-94
70,-37,-96,-19,79,-74,-10,-90,-88,-80,-100,-100
70,-43,-96,-13,79,-74,-10,-96,-88,-80,-106,-100
70,-49,-102,-7,79,-80,-10,-96,-88,-80,-112,-100
64,-55,-102,-7,79,-80,-10,-96,-88,-80,-112,-100
64,-55,-102,-7,79,-80,-10,-102,-88,-86,-112,-106
64,-55,-108,-7,79,-80,-10,-108,-94,-86,-112,-106
64,-55,-108,-7,79,-80,-10,-108,-100,-86,-112,-106
64,-55,-108,-7,79,-80,-10,-108,-100,-86,-112,-106
64,-55,-114,-2,79,-86,-10,-108,-100,-92,-112,-106
64,-55,-114,-2,79,-86,-10,-108,-100,-92,-112,-106
64,-55,-114,-2,79,-86,-10,-108,-100,-92,-112,-106
64,-55,-114,-2,79,-86,-10,-108,-106,-92,-112,-106
58,-61,-114,-2,79,-86,-10,-108,-106,-92,-112,-106
58,-67,-114,-2,79,-86,-10,-108,-106,-92,-112,-106
58,-67,-114,-2,79,-86,-10,-108,-106,-92,-112,-112
58,-67,-114,-2,79,-86,-10,-108,-106,-92,-112,-112
58,-67,-114,-2,79,-86,-10,-108,-106,-92,-118,-112
58,-67,-114,-2,79,-86,-10,-108,-106,-92,-118,-112
58,-67,-114,-2,79,-86,-10,-108,-106,-92,-118,-112
58,-67,-114,-2,79,-86,-10,-108,-106,-92,-118,-118
58,-67,-114,4,79,-86,-10,-108,-106,-92,-118,-118
58,-67,-114,4,79,-86,-10,-108,-106,-92,-118,-118
58,-67,-114,4,79,-86,-10,-108,-106,-92,-118,-118
58,-67,-114,4,79,-86,-10,-108,-106,-92,-118,-118
58,-67,-114,4,79,-86,-10,-108,-106,-92,-118,-118
52,-67,-114,4,79,-86,-10,-108,-106,-92,-118,-118
52,-67,-114,4,73,-86,-10,-108,-106,-92,-118,-118
52,-67,-114,4,73,-86,-10,-108,-106,-92,-118,-118
52,-67,-114,4,73,-86,-10,-114,-106,-92,-118,-118
52,-67,-114,4,73,-86,-10,-120,-106,-92,-118,-118
52,-67,-114,4,73,-86,-10,-120,-106,-92,-118,-118
52,-67,-114,4,73,-86,-10,-120,-106,-92,-118,-118
52,-67,-114,4,73,-86,-10,-120,-106,-92,-118,-118
52,-67,-114,4,73,-86,-10,-120,-106,-92,-118,-118
52,-67,-114,4,73,-86,-10,-120,-106,-92,-118,-118
52,-67,-114,4,67,-86,-10,-120,-106,-92,-118,-118
52,-67,-114,4,67,-86,-10,-120,-106,-92,-118,-118
58,-67,-120,4,67,-86,-10,-120,-106,-92,-118,-118
58,-67,-120,4,67,-86,-10,-120,-106,-92,-118,-118
58,-67,-120,4,67,-86,-10,-120,-106,-92,-118,-118
58,-67,-120,4,67,-86,-10,-120,-106,-92,-118,-118
58,-67,-120,4,67,-86,-10,-120,-106,-92,-118,-112
58,-67,-120,4,67,-86,-10,-120,-106,-92,-118,-112
58,-67,-120,4,67,-86,-10,-120,-106,-92,-118,-112
58,-67,-120,4,67,-86,-10,-120,-106,-92,-118,-112
58,-67,-120,4,67,-86,-10,-120,-106,-92,-112,-112
58,-67,-120,4,67,-86,-10,-120,-106,-92,-106,-106
58,-67,-120,4,67,-86,-10,-120,-106,-92,-100,-106
58,-67,-120,4,67,-86,-10,-120,-106,-92,-100,-106
58,-67,-120,4,67,-86,-10,-120,-106,-92,-100,-100
58,-67,-120,4,67,-86,-10,-120,-106,-92,-100,-100
58,-61,-120,4,67,-86,-10,-120,-106,-92,-100,-100
58,-61,-120,4,67,-86,-10,-120,-106,-92,-100,-94
58,-61,-120,4,67,-86,-10,-120,-106,-92,-100,-94
58,-61,-120,4,67,-86,-10,-120,-106,-92,-100,-94
58,-61,-120,4,67,-86,-10,-120,-106,-92,-100,-94
58,-61,-120,4,67,-86,-10,-120,-106,-92,-100,-94
58,-61,-120,4,67,-86,-10,-120,-106,-92,-100,-94
58,-61,-120,4,67,-86,-10,-120,-106,-92,-100,-94
58,-61,-120,4,67,-86,-10,-120,-106,-92,-100,-94
58,-61,-120,4,67,-86,-10,-120,-106,-92,-100,-94
58,-61,-120,4,67,-86,-10,-120,-106,-92,-100,-94
58,-61,-120,4,67,-86,-10,-120,-106,-92,-100,-94
58,-61,-120,4,67,-80,-10,-120,-106,-92,-100,-94
58,-61,-120,4,67,-80,-5,-120,-106,-92,-100,-94
58,-61,-120,4,67,-80,-5,-120,-106,-92,-94,-94
58,-61,-120,4,67,-80,-5,-120,-106,-92,-94,-94
58,-61,-120,4,67,-80,-5,-120,-106,-92,-94,-94
58,-61,-120,-2,67,-80,-5,-120,-106,-92,-94,-94
58,-61,-120,-2,67,-80,1,-120,-106,-92,-94,-94
58,-61,-120,-2,67,-74,1,-120,-106,-92,-88,-94
58,-61,-120,-2,67,-74,1,-120,-106,-92,-88,-94
58,-61,-120,-2,67,-74,1,-120,-106,-92,-88,-88
58,-61,-120,-2,67,-74,1,-120,-106,-92,-88,-88
58,-61,-120,-2,67,-74,1,-120,-106,-92,-88,-88
58,-61,-120,-2,67,-74,1,-120,-106,-92,-88,-88
58,-61,-120,-2,67,-74,1,-120,-106,-92,-88,-88
