,,,,,,,,,,,
2019-09-04 23:17:29,,,,,,,,,,,
,,,,,,,,,,,
I,II,III,aVR,aVL,aVF,V1,V2,V3,V4,V5,V6
-78,-55,15,66,-50,-17,53,1,-33,-90,-104,-108
-78,-55,15,66,-50,-17,53,1,-39,-90,-104,-114
-48,-61,-8,54,-14,-35,47,-10,-51,-102,-110,-120
-42,-55,-8,48,-14,-35,47,-4,-45,-102,-116,-126
-54,-43,3,48,-32,-17,53,1,-39,-102,-98,-114
-72,-55,9,60,-44,-17,59,1,-45,-102,-92,-114
-54,-43,3,48,-32,-17,59,1,-45,-96,-92,-114
-48,-13,27,30,-38,0,77,1,-27,-72,-80,-96
-60,-8,51,30,-56,18,77,1,-21,-66,-68,-90
-54,-8,51,24,-50,18,77,1,-21,-72,-68,-90
-24,10,39,6,-32,24,83,19,-15,-60,-68,-102
-30,22,57,6,-44,36,95,37,-4,-42,-56,-84
-30,22,57,6,-44,36,95,37,-4,-54,-62,-96
-12,16,33,6,-20,24,89,37,-4,-54,-62,-90
-24,16,45,6,-32,30,95,43,2,-42,-50,-90
-30,22,57,6,-44,36,77,31,2,-54,-56,-78
-12,40,57,-5,-32,48,77,25,-4,-48,-50,-78
-24,40,69,1,-44,54,89,31,-4,-42,-44,-78
-60,16,81,12,-68,48,83,31,-4,-54,-50,-84
-24,28,57,6,-38,42,77,19,-9,-60,-62,-90
5,46,33,-23,-8,42,77,25,-9,-48,-62,-96
-7,40,51,-11,-26,42,95,43,-4,-36,-56,-96
-30,46,81,1,-56,60,113,49,20,-24,-38,-84
-42,46,93,6,-68,66,113,49,20,-30,-38,-90
-36,52,93,1,-62,72,107,37,14,-36,-44,-90
-30,52,87,-5,-56,66,83,13,2,-42,-50,-90
-24,76,105,-17,-62,90,65,1,-4,-42,-44,-78
-7,82,93,-29,-50,84,41,1,-4,-36,-32,-66
-7,70,81,-23,-44,72,-1,1,-4,-36,-38,-72
-18,58,81,-11,-50,66,-30,-16,-15,-42,-44,-78
-7,64,69,-23,-32,66,-54,-34,-27,-42,-50,-84
-7,52,63,-17,-32,54,-72,-52,-39,-66,-56,-84
-30,40,75,1,-50,54,-90,-64,-57,-84,-68,-90
-30,22,57,6,-44,36,-84,-82,-75,-102,-80,-102
-18,34,57,1,-38,42,-90,-88,-87,-108,-80,-102
-7,52,51,-23,-20,54,-96,-106,-87,-114,-80,-96
-7,40,39,-17,-14,42,-96,-100,-81,-102,-74,-102
-7,34,45,-5,-26,36,-84,-76,-69,-84,-56,-90
-1,40,33,-17,-8,36,-66,-76,-75,-84,-56,-78
29,40,3,-35,9,24,-54,-76,-81,-96,-68,-72
53,34,-14,-41,33,6,-60,-76,-93,-90,-68,-78
53,22,-26,-35,39,-6,-54,-64,-81,-90,-62,-78
47,16,-26,-29,39,-6,-42,-58,-75,-90,-68,-72
47,10,-32,-29,39,-6,-24,-52,-69,-90,-62,-66
47,10,-32,-29,39,-6,-24,-58,-69,-90,-62,-72
23,10,-8,-17,15,-6,-18,-58,-69,-84,-62,-66
-1,4,-3,1,-3,0,-6,-40,-57,-72,-44,-66
-7,-2,3,6,-3,0,-1,-34,-51,-72,-50,-72
-18,10,33,6,-26,18,-1,-34,-51,-72,-44,-66
-24,4,33,6,-26,18,17,-22,-45,-66,-56,-66
-24,-8,9,12,-20,-6,17,-22,-51,-78,-68,-84
-48,-25,15,36,-32,-6,29,-22,-45,-84,-74,-84
-66,-43,15,54,-44,-11,17,-46,-57,-90,-86,-96
-60,-67,-3,60,-26,-35,11,-58,-75,-108,-98,-102
-66,-79,-8,72,-26,-47,11,-58,-81,-126,-98,-108
-84,-91,-3,84,-38,-47,17,-64,-87,-132,-116,-120
-78,-91,-8,84,-32,-53,23,-58,-99,-126,-122,-132
-72,-85,-8,78,-26,-47,23,-52,-87,-120,-116,-132
-84,-97,-8,90,-32,-53,41,-46,-81,-120,-116,-126
-84,-103,-14,90,-32,-59,35,-46,-87,-126,-122,-132
-60,-91,-26,72,-14,-59,41,-40,-87,-138,-128,-126
-66,-85,-14,72,-20,-53,47,-34,-87,-132,-128,-132
-84,-85,-3,84,-38,-41,35,-40,-87,-132,-128,-144
-84,-85,-3,84,-38,-41,47,-46,-87,-132,-128,-126
-72,-85,-8,78,-26,-47,35,-46,-93,-132,-134,-138
-84,-85,-3,84,-38,-41,35,-34,-81,-120,-122,-126
-84,-79,-3,78,-44,-35,35,-34,-81,-132,-128,-126
-90,-109,-14,96,-32,-65,29,-34,-81,-132,-128,-138
-96,-97,-3,96,-44,-47,35,-34,-81,-132,-128,-132
-90,-73,9,78,-50,-29,53,-22,-63,-114,-128,-120
-90,-67,15,78,-56,-23,59,-10,-63,-126,-128,-132
-84,-79,-3,78,-44,-35,65,-10,-63,-120,-128,-132
-66,-79,-8,72,-26,-47,59,-16,-63,-126,-140,-144
-66,-85,-14,72,-20,-53,71,-16,-63,-120,-134,-138
-72,-91,-14,78,-26,-53,71,-22,-57,-114,-122,-132
-84,-91,-3,84,-38,-47,59,-28,-57,-120,-128,-132
-90,-85,-3,84,-44,-41,41,-40,-63,-108,-116,-126
-84,-97,-8,90,-32,-53,35,-34,-45,-84,-98,-120
-72,-91,-14,78,-26,-53,23,-16,-27,-72,-86,-108
-48,-79,-26,60,-8,-53,29,19,-4,-42,-74,-96
-54,-73,-14,60,-14,-47,35,91,62,-7,-50,-72
-48,-73,-20,60,-8,-47,17,55,110,23,-20,-54
-18,-43,-20,30,-3,-35,-30,-88,110,65,3,-18
-12,-8,9,6,-8,0,-132,-364,62,95,57,17
-12,28,45,1,-26,36,-240,-682,-27,101,111,53
-7,64,69,-23,-32,66,-354,-1048,-213,83,141,89
-1,94,87,-47,-38,90,-486,-1474,-471,29,159,131
11,130,111,-71,-44,120,-618,-1858,-675,-7,183,173
23,160,129,-89,-44,144,-762,-2278,-861,-12,219,215
65,178,105,-119,-14,144,-924,-2739,-1125,-60,249,251
107,202,87,-155,3,144,-1062,-3117,-1347,-78,309,317
179,220,33,-197,69,126,-1176,-3399,-1551,-120,339,371
257,232,-20,-245,141,102,-1272,-3471,-1671,-126,375,413
329,256,-68,-293,201,90,-1428,-3555,-1797,-126,453,485
437,304,-128,-371,279,84,-1602,-3735,-1995,-138,513,563
563,382,-182,-473,375,96,-1776,-3843,-2103,-84,645,671
683,412,-266,-545,477,66,-1950,-4035,-2307,-72,759,779
743,370,-374,-557,561,-6,-2052,-4245,-2582,-168,795,851
821,346,-476,-581,651,-59,-2118,-4317,-2792,-246,813,899
887,358,-524,-623,711,-77,-2196,-4359,-2966,-294,879,959
875,394,-482,-635,681,-35,-2274,-4461,-3158,-336,951,1037
815,436,-380,-623,597,24,-2352,-4617,-3380,-384,1023,1121
701,490,-206,-593,453,144,-2418,-4647,-3470,-378,1149,1217
521,580,51,-551,237,318,-2406,-4497,-3386,-282,1293,1319
401,676,267,-533,63,474,-2328,-4221,-3188,-114,1455,1409
383,772,387,-575,-3,582,-2268,-3897,-2930,77,1647,1523
401,904,495,-653,-44,702,-2196,-3567,-2654,269,1839,1655
329,1030,699,-683,-182,864,-2046,-3243,-2397,329,1851,1667
179,1072,891,-623,-350,978,-1812,-2895,-2151,245,1635,1535
41,1066,1017,-551,-488,1044,-1566,-2487,-1869,107,1281,1295
-7,976,981,-479,-488,978,-1314,-2050,-1527,-7,927,1019
-24,790,819,-377,-422,804,-1068,-1630,-1227,-144,573,743
-54,640,699,-287,-374,666,-840,-1300,-1035,-348,231,503
-84,520,609,-215,-344,564,-636,-1012,-819,-372,93,365
-72,418,489,-167,-278,456,-498,-766,-609,-276,81,287
-48,394,447,-167,-242,420,-414,-622,-489,-210,87,251
-48,352,405,-149,-230,378,-366,-532,-435,-186,75,221
-60,268,333,-101,-200,300,-306,-436,-375,-168,51,179
-66,220,285,-71,-176,246,-270,-364,-327,-168,9,125
-66,184,249,-53,-158,216,-240,-304,-297,-168,-14,77
-72,118,195,-17,-134,156,-186,-238,-255,-162,-44,17
-78,88,171,1,-122,126,-138,-172,-219,-162,-80,-13
-84,88,177,6,-128,132,-96,-118,-171,-156,-98,-18
-90,64,159,6,-122,108,-48,-58,-135,-156,-104,-36
-78,46,129,6,-104,84,-1,1,-63,-138,-116,-54
-66,34,105,6,-86,66,17,43,-33,-126,-116,-66
-84,10,99,30,-92,54,41,79,-9,-126,-116,-84
-102,-8,87,54,-98,30,83,139,26,-96,-104,-84
-96,-25,63,60,-80,12,101,187,50,-84,-110,-90
-72,-49,15,60,-44,-11,119,235,86,-54,-92,-78
-54,-43,3,48,-32,-17,149,277,134,-24,-80,-66
-48,-43,-3,42,-26,-17,173,307,170,-1,-74,-66
-66,-55,3,60,-38,-23,179,319,182,-7,-80,-78
-60,-49,3,54,-32,-17,185,337,194,-7,-80,-90
-60,-37,15,48,-38,-6,191,349,206,-7,-92,-102
-60,-31,21,42,-44,-6,197,355,212,-7,-92,-108
-60,-43,9,48,-38,-11,191,367,212,-7,-98,-114
-54,-49,-3,48,-26,-23,197,367,212,-7,-92,-114
-66,-61,-3,60,-32,-29,203,379,224,-1,-86,-108
-72,-67,-3,66,-38,-29,203,373,230,5,-80,-108
-60,-67,-3,60,-26,-35,227,409,236,23,-74,-96
-48,-67,-14,54,-14,-41,221,409,248,29,-80,-102
-36,-67,-26,48,-3,-47,215,403,248,23,-86,-108
-42,-61,-14,48,-8,-41,227,415,254,23,-80,-102
-24,-55,-26,36,-3,-41,233,427,260,23,-86,-102
-54,-73,-14,60,-14,-47,233,439,272,23,-74,-102
-78,-67,3,72,-44,-29,233,451,266,17,-74,-90
-54,-55,-3,54,-26,-29,233,457,278,29,-68,-90
-48,-55,-3,48,-20,-29,227,451,278,35,-68,-90
-42,-55,-8,48,-14,-35,227,463,278,47,-62,-84
-48,-67,-14,54,-14,-41,239,469,284,47,-56,-72
-54,-67,-8,60,-20,-41,239,469,290,53,-68,-78
-60,-67,-3,60,-26,-35,245,481,302,59,-68,-84
-60,-79,-14,66,-20,-47,233,475,296,41,-80,-102
-60,-91,-26,72,-14,-59,233,475,290,35,-86,-96
-48,-67,-14,54,-14,-41,233,475,302,41,-80,-96
-30,-43,-8,36,-8,-29,245,487,314,47,-62,-72
-36,-49,-8,42,-8,-29,239,487,314,47,-62,-78
-54,-55,-3,54,-26,-29,251,493,320,53,-68,-84
-36,-43,-3,36,-14,-23,239,493,320,65,-50,-78
-24,-43,-14,30,-3,-29,245,511,326,65,-50,-66
-24,-43,-14,30,-3,-29,245,511,326,71,-50,-72
-30,-55,-20,42,-3,-41,263,511,326,71,-62,-78
-18,-61,-38,36,3,-53,269,523,338,65,-68,-78
-18,-61,-38,36,3,-53,257,529,338,65,-74,-84
-36,-61,-20,48,-3,-41,251,529,344,59,-74,-78
-30,-61,-26,42,-3,-47,257,535,350,65,-62,-66
-30,-55,-20,42,-3,-41,245,529,344,65,-62,-66
-36,-61,-20,48,-3,-41,251,541,356,71,-62,-60
-36,-61,-20,48,-3,-41,257,547,368,77,-50,-54
-48,-55,-3,48,-20,-29,263,553,374,89,-38,-42
-30,-55,-20,42,-3,-41,263,559,374,95,-44,-48
-18,-55,-32,36,-3,-47,269,565,380,89,-44,-48
-7,-55,-50,24,15,-53,263,577,380,89,-56,-54
-12,-55,-38,30,3,-47,251,583,380,89,-62,-60
-24,-61,-32,42,-3,-47,257,589,398,89,-56,-66
-42,-73,-26,54,-3,-53,263,607,392,89,-56,-66
-42,-73,-26,54,-3,-53,257,613,392,95,-56,-60
-36,-73,-32,54,-3,-53,269,613,398,101,-38,-48
-36,-67,-26,48,-3,-47,269,619,410,101,-32,-48
-36,-61,-20,48,-3,-41,281,637,416,119,-26,-42
-24,-61,-32,42,-3,-47,281,649,422,119,-32,-54
-7,-61,-50,30,15,-59,281,649,428,113,-38,-66
-1,-43,-50,12,21,-47,287,661,434,113,-44,-66
-7,-43,-32,24,3,-41,293,679,446,113,-50,-66
-7,-49,-38,24,9,-47,299,685,458,119,-44,-66
-12,-55,-38,30,3,-47,293,691,458,125,-32,-54
-18,-49,-26,30,-3,-41,281,685,458,125,-44,-60
-24,-55,-26,36,-3,-41,281,685,458,125,-50,-66
-18,-43,-20,30,-3,-35,281,709,464,137,-38,-66
-18,-43,-20,30,-3,-35,299,727,482,143,-32,-54
-12,-43,-26,24,-3,-35,311,745,500,161,-26,-48
-7,-37,-26,18,3,-35,323,751,500,155,-32,-54
-12,-43,-26,24,-3,-35,329,775,512,161,-26,-54
-7,-55,-50,24,15,-53,329,787,518,155,-44,-66
5,-43,-56,12,27,-47,317,787,524,155,-44,-66
-7,-49,-50,18,21,-47,323,799,536,161,-38,-66
-7,-55,-56,24,21,-53,329,811,542,161,-44,-72
-1,-49,-56,18,27,-53,341,835,560,179,-26,-54
5,-49,-62,12,33,-53,341,847,566,185,-26,-54
11,-49,-68,12,39,-59,347,877,578,197,-26,-54
23,-43,-74,6,45,-59,347,889,596,197,-26,-60
11,-43,-62,6,33,-53,371,901,614,209,-14,-54
-7,-37,-38,12,15,-35,371,919,620,221,-14,-54
-1,-43,-50,12,21,-47,377,937,626,221,-26,-60
-7,-43,-38,18,9,-41,383,955,650,227,-9,-60
-7,-37,-38,12,15,-35,377,967,656,233,-9,-60
-7,-43,-44,18,15,-41,383,973,668,239,-9,-66
-7,-49,-50,18,21,-47,383,985,680,245,-9,-66
-1,-43,-50,12,21,-47,389,1009,704,257,3,-60
11,-37,-56,6,33,-47,401,1033,716,269,3,-54
35,-31,-74,6,51,-53,395,1039,722,269,-3,-60
41,-31,-80,1,57,-53,395,1045,734,275,-3,-66
47,-31,-86,1,63,-59,401,1063,746,287,3,-66
53,-37,-98,1,75,-65,413,1069,758,293,-3,-72
53,-37,-98,1,75,-65,407,1087,764,287,-9,-84
53,-37,-98,1,75,-65,389,1099,776,293,3,-72
65,-43,-116,-5,87,-77,377,1099,782,299,9,-72
71,-43,-122,-5,93,-83,383,1117,794,317,9,-66
59,-25,-92,-11,75,-59,395,1141,818,341,33,-48
71,-8,-86,-23,75,-47,407,1159,830,359,51,-36
89,-8,-98,-35,93,-47,401,1165,848,371,57,-30
95,-8,-104,-41,99,-53,389,1165,854,371,51,-54
89,-13,-110,-29,99,-59,389,1171,872,377,57,-60
83,-25,-116,-23,99,-71,383,1177,878,389,51,-60
101,-25,-134,-29,117,-77,377,1177,884,383,51,-60
107,-25,-140,-35,123,-83,377,1171,890,395,75,-48
107,-25,-140,-35,123,-83,371,1165,890,401,69,-48
107,-31,-146,-29,123,-89,359,1165,902,413,69,-48
107,-31,-146,-29,123,-89,353,1171,908,431,87,-36
119,-19,-146,-41,129,-83,353,1171,914,443,99,-24
131,-8,-146,-53,135,-77,359,1165,926,461,117,-13
137,-8,-140,-65,141,-65,347,1153,926,461,111,-13
149,-8,-158,-65,153,-77,323,1135,914,449,105,-18
155,-8,-170,-65,159,-89,317,1111,914,455,111,-18
155,-8,-170,-65,159,-89,287,1093,902,443,105,-13
155,-13,-176,-65,165,-95,275,1069,890,443,111,-13
167,-8,-176,-77,171,-89,263,1033,890,449,123,-13
179,4,-170,-89,177,-77,251,1027,902,473,135,-1
167,10,-152,-89,159,-65,239,1009,896,479,153,11
179,10,-164,-95,171,-71,215,967,860,461,147,-1
215,28,-182,-119,201,-71,203,931,842,467,141,5
203,22,-176,-113,189,-71,197,913,842,473,147,29
191,10,-176,-101,183,-77,191,883,830,461,165,41
191,4,-182,-95,189,-83,173,841,794,461,165,47
191,-2,-188,-95,189,-89,143,793,776,443,165,59
191,4,-182,-95,189,-83,131,763,746,437,165,65
203,10,-188,-107,195,-83,119,727,728,425,171,71
203,10,-188,-107,195,-83,101,673,692,419,165,77
167,-8,-170,-77,171,-83,83,637,656,401,165,83
143,-13,-164,-59,153,-89,77,607,626,389,165,83
149,-8,-158,-65,153,-77,71,565,584,371,153,95
137,-8,-140,-65,141,-65,65,535,566,353,147,89
143,-8,-146,-65,147,-71,47,487,518,323,135,71
143,-8,-152,-65,147,-77,53,463,488,305,129,71
137,-2,-134,-65,135,-59,29,415,452,275,117,77
143,10,-128,-77,135,-53,35,379,422,251,117,65
113,4,-104,-59,111,-41,41,349,392,239,117,71
95,-8,-104,-41,99,-53,23,307,344,215,99,59
71,-13,-92,-23,81,-53,17,283,308,197,87,47
65,-8,-74,-23,69,-35,23,265,284,185,69,41
77,-8,-80,-35,81,-35,29,241,254,167,63,41
77,-2,-74,-35,75,-29,17,211,230,143,51,35
71,-8,-74,-29,75,-35,23,187,194,107,45,17
53,-8,-68,-17,57,-35,35,175,188,89,27,23
41,-8,-56,-11,45,-29,35,163,164,71,21,17
29,-8,-44,-5,33,-23,29,145,128,47,15,11
11,-19,-38,6,21,-29,47,127,116,35,9,17
-7,-25,-20,12,3,-23,53,109,98,29,-3,11
-7,-31,-26,12,3,-29,53,103,74,17,-9,5
-7,-43,-32,24,3,-41,59,91,56,11,-9,-1
-7,-43,-44,18,15,-41,59,79,38,-7,-14,-1
-7,-49,-50,18,21,-47,59,79,32,-7,-20,-7
-24,-49,-20,36,-3,-35,71,79,32,-12,-14,-7
-42,-43,-3,42,-20,-23,65,61,14,-30,-38,-13
-36,-43,-3,36,-14,-23,47,43,-4,-42,-44,-18
-12,-37,-20,24,-3,-29,53,37,-4,-60,-44,-13
-36,-43,-3,36,-14,-23,59,43,-4,-60,-44,-13
-42,-43,-3,42,-20,-23,53,25,-15,-72,-62,-18
-36,-25,3,30,-20,-6,71,37,-15,-66,-56,-13
-24,-19,-3,18,-14,-6,83,37,-15,-60,-56,-13
-36,-25,3,30,-20,-6,77,31,-15,-60,-62,-13
-42,-31,3,36,-26,-11,71,31,-21,-66,-80,-13
-42,-31,3,36,-26,-11,77,31,-27,-84,-68,-18
-54,-43,3,48,-32,-17,71,7,-39,-96,-80,-24
-78,-49,21,60,-50,-11,71,7,-39,-102,-98,-24
-66,-49,9,54,-38,-17,59,1,-51,-102,-86,-30
-66,-55,3,60,-38,-23,65,1,-57,-102,-86,-30
-72,-61,3,66,-38,-23,59,1,-57,-96,-92,-24
-72,-43,21,54,-50,-6,77,25,-39,-84,-68,-13
-72,-31,33,48,-56,-6,95,31,-33,-72,-68,-13
-60,-37,15,48,-38,-6,89,25,-27,-84,-80,-13
-18,-25,-3,18,-3,-17,77,13,-45,-96,-92,-24
-42,-31,3,36,-26,-11,83,13,-45,-102,-74,-18
-60,-37,15,48,-38,-6,83,1,-51,-108,-92,-30
-42,-43,-3,42,-20,-23,71,1,-57,-126,-98,-36
-42,-43,-3,42,-20,-23,71,1,-75,-126,-92,-42
-54,-49,-3,48,-26,-23,77,1,-75,-120,-86,-36
-66,-55,3,60,-38,-23,77,1,-63,-108,-86,-30
-78,-49,21,60,-50,-11,89,19,-51,-108,-74,-18
-66,-31,27,48,-50,-6,89,25,-45,-102,-80,-18
-72,-37,27,54,-50,-6,95,37,-39,-96,-80,-18
-66,-43,15,54,-44,-11,89,37,-45,-102,-80,-30
-48,-43,-3,42,-26,-17,95,25,-57,-114,-86,-36
-42,-43,-3,42,-20,-23,95,25,-51,-114,-80,-36
-60,-31,21,42,-44,-6,89,31,-51,-102,-74,-24
-78,-49,21,60,-50,-11,83,37,-45,-108,-80,-36
-78,-61,9,66,-44,-23,71,19,-63,-126,-92,-54
-78,-61,9,66,-44,-23,71,19,-57,-114,-80,-60
-78,-43,27,60,-56,-6,77,25,-51,-108,-86,-54
-72,-37,27,54,-50,-6,83,31,-45,-96,-86,-48
-84,-43,33,60,-62,-6,89,31,-57,-102,-86,-60
-84,-49,27,66,-56,-6,83,25,-57,-114,-98,-66
-66,-49,9,54,-38,-17,101,31,-51,-114,-98,-60
-54,-49,-3,48,-26,-23,89,25,-51,-120,-98,-60
-60,-49,3,54,-32,-17,89,25,-45,-132,-98,-60
-66,-49,9,54,-38,-17,83,37,-51,-132,-98,-60
-72,-43,21,54,-50,-6,95,43,-39,-120,-92,-48
-78,-49,21,60,-50,-11,89,43,-33,-114,-98,-54
-78,-49,21,60,-50,-11,95,49,-39,-114,-92,-48
-66,-43,15,54,-44,-11,95,61,-33,-102,-92,-42
-42,-37,-3,36,-20,-17,89,55,-39,-114,-104,-42
-36,-37,-3,36,-14,-17,95,55,-39,-114,-98,-42
-42,-37,-3,36,-20,-17,95,49,-39,-120,-104,-48
-60,-43,9,48,-38,-11,95,55,-33,-114,-104,-48
-78,-43,27,60,-56,-6,107,61,-27,-114,-98,-42
-90,-49,33,66,-62,-6,95,55,-21,-120,-92,-48
-90,-49,33,66,-62,-6,101,55,-27,-114,-86,-54
-84,-55,21,66,-56,-11,95,49,-21,-108,-86,-48
-84,-55,21,66,-56,-11,107,55,-21,-102,-86,-42
-78,-37,33,54,-56,-6,113,73,-4,-84,-74,-30
-84,-49,27,66,-56,-6,107,73,-9,-96,-92,-36
-84,-67,9,72,-50,-23,101,79,-9,-102,-98,-42
-60,-49,3,54,-32,-17,119,85,-9,-96,-86,-42
-60,-49,3,54,-32,-17,107,79,-4,-102,-86,-42
-54,-55,-3,54,-26,-29,95,67,-9,-102,-98,-48
-60,-55,-3,54,-32,-23,95,67,-15,-114,-104,-54
-60,-49,3,54,-32,-17,95,67,-15,-108,-98,-60
-78,-49,21,60,-50,-11,89,67,-4,-90,-92,-60
-96,-49,39,72,-68,-6,107,85,-4,-78,-86,-42
-90,-55,27,72,-62,-11,101,91,-4,-78,-80,-36
-78,-49,21,60,-50,-11,95,91,-4,-72,-74,-30
-54,-43,3,48,-32,-17,95,85,2,-78,-80,-36
-48,-31,9,36,-32,-6,101,79,-4,-78,-80,-30
-60,-31,21,42,-44,-6,113,85,14,-66,-62,-18
-84,-43,33,60,-62,-6,107,91,14,-66,-74,-24
-84,-55,21,66,-56,-11,89,85,2,-78,-86,-42
-60,-55,-3,54,-32,-23,89,91,2,-90,-98,-36
-78,-55,15,66,-50,-17,89,91,8,-78,-92,-30
-84,-61,15,72,-50,-17,83,91,8,-78,-80,-30
-72,-49,15,60,-44,-11,89,91,14,-78,-80,-24
-72,-31,33,48,-56,-6,95,91,8,-66,-80,-24
-90,-55,27,72,-62,-11,89,79,8,-66,-80,-24
-102,-67,27,84,-68,-17,95,85,8,-72,-80,-24
-90,-61,21,72,-56,-17,89,91,14,-72,-80,-36
-78,-55,15,66,-50,-17,83,91,14,-66,-74,-36
-78,-61,9,66,-44,-23,77,85,14,-66,-74,-30
-84,-73,3,78,-44,-29,77,85,8,-72,-74,-36
-72,-61,3,66,-38,-23,83,85,20,-60,-68,-30
-66,-43,15,54,-44,-11,89,91,26,-54,-56,-13
-66,-37,21,48,-44,-6,89,91,20,-54,-62,-13
-72,-37,27,54,-50,-6,95,91,20,-54,-68,-13
-66,-49,9,54,-38,-17,89,79,14,-60,-80,-24
-60,-49,3,54,-32,-17,83,79,14,-66,-80,-18
-66,-55,3,60,-38,-23,77,73,8,-72,-74,-18
-78,-49,21,60,-50,-11,71,61,2,-78,-80,-30
-72,-55,9,60,-44,-17,77,61,8,-78,-86,-30
-72,-55,9,60,-44,-17,71,61,2,-78,-74,-30
-72,-61,3,66,-38,-23,65,55,-4,-78,-86,-36
-60,-55,-3,54,-32,-23,65,49,-9,-84,-104,-48
-48,-55,-3,48,-20,-29,59,49,-4,-84,-92,-48
-42,-49,-3,42,-14,-29,59,49,-4,-84,-98,-60
-48,-43,-3,42,-26,-17,65,49,-4,-84,-98,-60
-54,-37,9,42,-32,-11,77,61,2,-78,-86,-54
-60,-37,15,48,-38,-6,59,49,2,-78,-92,-48
-60,-43,9,48,-38,-11,47,31,-4,-90,-98,-54
-72,-55,9,60,-44,-17,65,43,-4,-84,-86,-42
-72,-49,15,60,-44,-11,65,49,-4,-84,-74,-42
-66,-43,15,54,-44,-11,71,43,-4,-72,-68,-42
-60,-25,27,42,-44,-6,77,37,-9,-84,-74,-36
-54,-43,3,48,-32,-17,59,37,-15,-96,-86,-42
-48,-49,-3,48,-20,-23,47,31,-21,-96,-92,-54
-66,-55,3,60,-38,-23,65,31,-21,-84,-86,-42
-60,-55,-3,54,-32,-23,65,37,-21,-84,-86,-42
-54,-55,-3,54,-26,-29,59,37,-21,-96,-92,-48
-78,-55,15,66,-50,-17,65,31,-21,-96,-92,-48
-66,-55,3,60,-38,-23,59,25,-21,-102,-98,-48
-48,-43,-3,42,-26,-17,59,19,-27,-108,-98,-54
-48,-31,9,36,-32,-6,59,19,-27,-102,-92,-48
-66,-37,21,48,-44,-6,59,19,-21,-96,-98,-36
-90,-55,27,72,-62,-11,71,19,-21,-96,-86,-42
-72,-49,15,60,-44,-11,65,13,-27,-96,-98,-48
-60,-55,-3,54,-32,-23,65,19,-15,-90,-98,-42
-48,-55,-3,48,-20,-29,59,25,-21,-102,-104,-48
-30,-55,-20,42,-3,-41,47,19,-27,-114,-104,-54
-54,-55,-3,54,-26,-29,53,25,-21,-102,-92,-42
-66,-55,3,60,-38,-23,53,13,-33,-108,-104,-42
-60,-43,9,48,-38,-11,47,19,-27,-102,-104,-48
-54,-43,3,48,-32,-17,47,13,-21,-108,-104,-54
-54,-43,3,48,-32,-17,41,7,-33,-108,-116,-60
-54,-49,-3,48,-26,-23,47,13,-33,-108,-98,-48
-60,-49,3,54,-32,-17,53,19,-27,-96,-92,-42
-60,-43,9,48,-38,-11,47,1,-33,-102,-98,-42
-60,-43,9,48,-38,-11,41,1,-45,-108,-104,-36
-66,-43,15,54,-44,-11,53,1,-39,-102,-98,-36
-78,-49,21,60,-50,-11,59,7,-21,-96,-98,-42
-66,-55,3,60,-38,-23,47,7,-33,-108,-98,-54
-72,-49,15,60,-44,-11,53,7,-33,-102,-92,-48
-72,-55,9,60,-44,-17,59,13,-33,-96,-92,-42
-54,-55,-3,54,-26,-29,53,13,-33,-96,-86,-36
-54,-49,-3,48,-26,-23,53,7,-33,-102,-92,-42
-66,-67,-3,66,-32,-35,41,1,-51,-120,-110,-48
-78,-73,-3,72,-38,-35,47,1,-45,-120,-110,-42
-72,-55,9,60,-44,-17,59,7,-39,-108,-98,-36
-54,-55,-3,54,-26,-29,59,7,-39,-108,-98,-42
-54,-55,-3,54,-26,-29,41,1,-45,-114,-116,-42
-66,-67,-3,66,-32,-35,47,1,-45,-120,-116,-42
-72,-67,-3,66,-38,-29,47,1,-51,-126,-110,-48
-84,-61,15,72,-50,-17,41,1,-45,-120,-110,-42
-84,-61,15,72,-50,-17,41,1,-51,-120,-116,-42
-66,-49,9,54,-38,-17,41,1,-51,-126,-116,-42
-60,-37,15,48,-38,-6,41,1,-51,-120,-116,-42
-60,-37,15,48,-38,-6,35,-4,-51,-126,-122,-42
-66,-43,15,54,-44,-11,41,1,-57,-126,-122,-48
-66,-55,3,60,-38,-23,35,1,-51,-126,-122,-42
-42,-43,-3,42,-20,-23,35,1,-51,-120,-116,-42
-48,-49,-3,48,-20,-23,47,1,-39,-114,-110,-42
-60,-55,-3,54,-32,-23,41,1,-45,-114,-110,-54
-54,-49,-3,48,-26,-23,35,1,-45,-120,-122,-54
-72,-49,15,60,-44,-11,41,1,-45,-108,-110,-48
-72,-49,15,60,-44,-11,53,13,-33,-102,-104,-42
-60,-37,15,48,-38,-6,53,13,-33,-102,-110,-48
-60,-43,9,48,-38,-11,41,7,-39,-120,-122,-54
-60,-49,3,54,-32,-17,47,1,-51,-114,-122,-54
-60,-55,-3,54,-32,-23,41,1,-51,-120,-122,-60
-42,-37,-3,36,-20,-17,35,1,-57,-120,-110,-60
-42,-31,3,36,-26,-11,41,1,-39,-108,-104,-48
-48,-37,3,42,-26,-11,35,1,-51,-114,-116,-42
-48,-43,-3,42,-26,-17,41,1,-51,-108,-110,-42
-36,-37,-3,36,-14,-17,41,1,-57,-114,-110,-42
-24,-31,-3,24,-8,-17,47,13,-45,-114,-104,-36
-24,-31,-3,24,-8,-17,41,25,-39,-102,-104,-30
-30,-49,-14,36,-3,-35,35,13,-39,-108,-116,-36
-54,-61,-3,54,-20,-35,47,13,-45,-114,-104,-36
-66,-61,-3,60,-32,-29,47,7,-45,-108,-110,-42
-54,-55,-3,54,-26,-29,41,1,-45,-120,-122,-48
-36,-55,-14,42,-8,-35,41,-4,-51,-126,-134,-54
-48,-55,-3,48,-20,-29,35,-4,-51,-126,-122,-66
-60,-55,-3,54,-32,-23,41,1,-45,-114,-122,-54
-60,-61,-3,60,-26,-29,41,1,-45,-120,-122,-48
-54,-43,3,48,-32,-17,47,7,-39,-114,-116,-48
-66,-25,33,42,-50,-6,65,25,-21,-96,-104,-54
-66,-19,39,42,-56,0,59,25,-27,-96,-110,-54
-42,-13,21,24,-32,-6,59,25,-33,-102,-110,-48
-42,-8,39,18,-38,12,65,25,-33,-96,-104,-48
-54,-2,57,18,-56,24,77,31,-21,-84,-86,-30
-42,4,51,12,-44,24,83,37,-9,-78,-86,-30
-36,10,51,6,-44,30,77,49,-9,-78,-86,-42
-36,10,51,6,-44,30,71,31,-9,-84,-92,-54
-12,28,45,1,-26,36,77,37,-9,-78,-80,-42
-7,28,33,-5,-14,30,77,37,-9,-84,-86,-42
-24,22,51,6,-38,36,71,43,-9,-78,-86,-48
-48,10,63,12,-56,36,77,43,-4,-78,-74,-42
-30,16,51,6,-38,30,77,37,-15,-78,-80,-54
-12,34,51,-5,-32,42,77,37,-4,-72,-80,-60
-7,52,57,-17,-26,54,83,37,-4,-72,-68,-60
-7,52,51,-23,-20,54,83,37,-4,-72,-80,-66
-7,46,51,-17,-26,48,83,49,-4,-72,-74,-72
-7,46,57,-11,-32,48,83,37,-4,-78,-86,-66
-18,58,81,-11,-50,66,83,31,-4,-72,-74,-54
-24,70,99,-17,-62,84,83,25,-4,-72,-62,-60
-12,88,105,-29,-56,96,59,19,-4,-66,-62,-72
-12,94,111,-35,-62,102,23,19,-4,-48,-50,-78
-7,100,105,-41,-50,102,-6,1,-4,-60,-50,-84
17,94,69,-53,-20,84,-42,-16,-27,-72,-56,-96
5,76,63,-41,-20,72,-78,-52,-51,-96,-74,-108
-7,64,75,-23,-38,66,-96,-58,-57,-102,-80,-114
-7,64,75,-23,-38,66,-90,-52,-63,-96,-74,-114
-7,64,75,-23,-38,66,-96,-70,-75,-114,-92,-114
-24,58,87,-11,-56,72,-90,-82,-81,-108,-86,-114
-7,64,75,-23,-38,66,-90,-82,-87,-114,-86,-108
29,70,33,-47,-3,54,-90,-76,-87,-108,-80,-108
11,58,39,-35,-8,48,-78,-58,-75,-102,-74,-90
11,34,15,-23,-3,24,-72,-58,-81,-114,-86,-108
47,22,-20,-35,33,-6,-72,-64,-87,-120,-98,-114
53,22,-26,-35,39,-6,-72,-64,-87,-120,-92,-114
35,4,-26,-17,33,-6,-66,-70,-93,-132,-98,-120
23,-8,-26,-5,27,-11,-66,-70,-99,-132,-104,-132
17,4,-8,-11,15,-6,-60,-58,-93,-126,-98,-132
-1,-2,-3,1,-3,-6,-42,-40,-81,-126,-92,-126
17,10,-3,-11,9,0,-36,-28,-69,-120,-98,-126
17,10,-3,-11,9,0,-24,-28,-69,-114,-104,-138
-7,-2,9,6,-8,0,-12,-28,-69,-120,-110,-138
-18,4,27,6,-20,12,-1,-16,-63,-108,-104,-132
-18,-2,21,6,-20,6,-1,-16,-57,-108,-104,-126
-36,-13,15,24,-26,-6,-1,-22,-57,-114,-110,-138
-48,-31,9,36,-32,-6,5,-28,-57,-114,-110,-144
-42,-37,-3,36,-20,-17,-1,-52,-75,-138,-122,-156
-42,-37,-3,36,-20,-17,-1,-58,-93,-150,-134,-150
-60,-55,-3,54,-32,-23,-1,-46,-93,-138,-128,-150
-60,-61,-3,60,-26,-29,-1,-46,-99,-150,-140,-168
-54,-67,-8,60,-20,-41,11,-46,-105,-156,-146,-174
-42,-67,-20,54,-8,-47,23,-34,-111,-156,-146,-174
-66,-79,-8,72,-26,-47,23,-28,-105,-150,-152,-186
-72,-79,-3,72,-32,-41,17,-40,-105,-168,-164,-192
-78,-73,-3,72,-38,-35,11,-46,-105,-162,-158,-186
-66,-79,-8,72,-26,-47,11,-40,-105,-168,-164,-192
-72,-91,-14,78,-26,-53,11,-34,-105,-174,-158,-192
-72,-103,-26,84,-20,-65,5,-46,-105,-174,-158,-198
-96,-109,-8,102,-38,-59,17,-34,-105,-168,-152,-192
-84,-115,-26,96,-26,-71,17,-28,-105,-168,-152,-192
-102,-103,-3,102,-50,-53,29,-28,-99,-156,-146,-186
-84,-79,-3,78,-44,-35,41,-22,-87,-150,-140,-186
-60,-61,-3,60,-26,-29,47,-16,-81,-144,-140,-174
-60,-67,-3,60,-26,-35,47,-4,-81,-144,-140,-168
-60,-73,-8,66,-20,-41,35,-16,-87,-162,-152,-186
-72,-79,-3,72,-32,-41,35,-10,-81,-156,-152,-186
-84,-73,3,78,-44,-29,53,1,-75,-144,-140,-174
-78,-67,3,72,-44,-29,59,1,-69,-138,-128,-168
-84,-61,15,72,-50,-17,65,1,-69,-132,-122,-168
-84,-67,9,72,-50,-23,65,7,-63,-132,-128,-168
-78,-67,3,72,-44,-29,53,1,-63,-126,-128,-168
-66,-61,-3,60,-32,-29,29,-16,-69,-126,-122,-174
-48,-61,-8,54,-14,-35,23,-4,-45,-108,-116,-162
-48,-55,-3,48,-20,-29,11,1,-9,-90,-104,-150
-66,-61,-3,60,-32,-29,5,43,20,-60,-80,-132
-48,-49,-3,48,-20,-23,-1,49,68,-30,-56,-114
-18,-13,-3,12,-8,-6,-36,-34,92,11,-9,-78
-12,10,27,6,-20,18,-126,-256,56,47,39,-36
-18,34,57,1,-38,42,-234,-574,-33,71,81,-13
-12,82,99,-29,-56,90,-324,-928,-195,77,117,41
5,130,117,-65,-50,126,-474,-1372,-441,11,141,89
23,160,129,-89,-44,144,-600,-1780,-681,-12,177,137
23,196,165,-107,-62,180,-720,-2128,-831,-12,231,191
47,232,177,-137,-56,204,-876,-2571,-1053,-42,255,233
125,256,129,-191,-3,198,-1032,-2967,-1293,-66,315,299
191,280,87,-233,45,186,-1170,-3327,-1539,-84,387,371
233,298,57,-263,87,180,-1236,-3513,-1725,-108,423,425
311,352,33,-329,135,198,-1368,-3603,-1869,-132,471,485
383,400,9,-389,183,210,-1536,-3753,-2061,-126,555,569
473,472,-3,-473,237,234,-1680,-3843,-2181,-60,699,689
611,520,-86,-563,351,216,-1872,-3957,-2331,-24,819,809
713,526,-182,-617,447,174,-1986,-4161,-2600,-102,867,887
767,496,-266,-635,519,114,-2016,-4245,-2828,-192,891,941
815,478,-338,-647,579,66,-2088,-4287,-3020,-258,933,971
815,490,-320,-653,567,84,-2184,-4395,-3236,-330,999,1049
755,568,-188,-665,477,192,-2244,-4545,-3476,-396,1095,1145
629,622,-3,-623,315,306,-2274,-4629,-3632,-414,1203,1241
479,676,195,-575,141,438,-2268,-4557,-3620,-366,1311,1319
359,778,417,-569,-20,600,-2226,-4305,-3416,-210,1479,1415
329,880,543,-605,-104,714,-2202,-3963,-3128,23,1695,1541
341,970,627,-659,-140,798,-2178,-3645,-2840,233,1899,1679
281,1090,801,-689,-254,948,-2058,-3351,-2570,311,1929,1691
161,1156,987,-659,-410,1074,-1866,-3051,-2331,221,1683,1529
29,1138,1101,-581,-530,1122,-1644,-2679,-2061,53,1299,1277
-30,1030,1065,-491,-548,1044,-1404,-2224,-1713,-54,921,1001
-48,868,921,-407,-488,894,-1158,-1774,-1383,-186,561,719
-60,724,789,-329,-428,756,-924,-1420,-1173,-414,213,473
-102,610,717,-245,-410,660,-714,-1120,-945,-474,33,323
-102,502,609,-197,-356,552,-540,-874,-723,-366,21,233
-102,412,513,-149,-308,462,-438,-688,-579,-288,21,197
-126,370,495,-119,-308,432,-372,-562,-489,-246,27,173
-84,328,417,-119,-248,372,-318,-466,-423,-228,9,125
-48,268,321,-107,-188,294,-282,-400,-381,-228,-26,59
-66,226,291,-71,-182,252,-246,-334,-333,-216,-50,29
-78,184,261,-47,-170,222,-204,-250,-273,-192,-74,-13
-102,148,249,-17,-176,198,-150,-196,-231,-192,-98,-36
-102,160,261,-23,-182,210,-108,-148,-201,-186,-110,-48
-90,130,225,-11,-158,174,-72,-82,-171,-186,-116,-60
-84,82,171,6,-128,126,-30,-22,-117,-180,-134,-102
-102,64,171,12,-134,114,-1,13,-63,-162,-140,-114
-108,52,165,18,-134,108,29,55,-33,-156,-140,-120
-78,34,117,12,-98,72,59,97,-4,-144,-146,-138
-84,-2,87,36,-86,42,83,151,26,-126,-140,-144
-90,-13,69,48,-80,18,101,199,62,-102,-134,-150
-54,-13,33,30,-44,0,101,229,92,-72,-122,-138
-42,-8,27,24,-38,0,119,259,122,-42,-104,-120
-24,-8,21,6,-20,6,137,283,152,-24,-92,-114
-30,-2,33,6,-32,12,149,301,170,-12,-86,-108
-48,-8,45,18,-44,18,167,307,176,-24,-98,-108
-60,-13,39,36,-50,6,185,325,188,-12,-98,-114
-54,-31,15,42,-38,-6,191,343,212,-12,-98,-108
-60,-37,15,48,-38,-6,185,343,218,-18,-98,-114
-66,-43,15,54,-44,-11,185,349,224,-7,-98,-114
-42,-31,3,36,-26,-11,191,355,224,-7,-98,-120
-36,-19,9,24,-26,-6,185,379,236,-7,-98,-120
-24,-13,3,18,-14,-6,185,391,230,-7,-98,-120
-30,-25,-3,24,-14,-11,185,397,236,-1,-104,-132
-30,-25,-3,24,-14,-11,197,391,236,-1,-110,-144
-30,-25,-3,24,-14,-11,197,403,254,11,-98,-132
-24,-31,-3,24,-8,-17,203,403,266,17,-92,-126
-18,-37,-14,24,-3,-29,197,397,260,5,-104,-138
-24,-43,-14,30,-3,-29,203,403,248,-1,-104,-132
-48,-49,-3,48,-20,-23,203,421,260,5,-98,-120
-66,-43,15,54,-44,-11,209,421,260,11,-92,-108
-90,-49,33,66,-62,-6,209,421,272,17,-80,-102
-48,-31,9,36,-32,-6,203,421,272,17,-74,-108
-30,-19,3,24,-20,-6,209,433,284,41,-68,-102
-42,-13,21,24,-32,-6,215,439,284,41,-68,-108
-30,-13,9,18,-20,-6,209,451,290,35,-74,-114
-36,-19,9,24,-26,-6,221,457,302,35,-68,-120
-30,-31,-3,30,-14,-17,209,451,302,29,-80,-126
-12,-31,-14,18,-3,-23,209,445,296,23,-86,-132
-24,-31,-3,24,-8,-17,221,451,302,35,-80,-120
-36,-19,9,24,-26,-6,233,469,314,47,-74,-108
-7,-19,-14,6,-3,-17,221,463,314,53,-74,-114
-12,-31,-14,18,-3,-23,209,463,308,41,-74,-120
-18,-25,-3,18,-3,-17,215,469,314,53,-74,-120
-12,-13,-3,12,-3,-6,233,487,326,65,-62,-108
-42,-37,-3,36,-20,-17,233,493,338,71,-56,-108
-48,-43,-3,42,-26,-17,233,493,350,65,-62,-114
-48,-43,-3,42,-26,-17,239,493,356,65,-62,-108
-24,-25,-3,24,-8,-11,239,493,356,65,-62,-114
-18,-19,-3,18,-8,-11,239,499,350,71,-56,-108
-12,-13,-3,12,-3,-6,227,499,344,65,-62,-114
-7,-8,-3,6,-3,-6,215,505,356,71,-62,-114
-12,-13,-3,12,-3,-6,233,523,362,71,-62,-114
-24,-13,3,18,-14,-6,227,529,368,77,-62,-114
-24,-8,9,12,-20,-6,233,535,374,83,-62,-114
-7,-8,-3,6,-3,-6,239,547,386,89,-68,-108
-24,-19,-3,18,-14,-6,239,547,386,89,-68,-114
-36,-25,3,30,-20,-6,245,553,398,95,-62,-108
-18,-19,-3,18,-8,-11,257,565,398,101,-56,-102
-7,-19,-8,12,-3,-17,239,565,392,89,-74,-120
-18,-25,-3,18,-3,-17,239,571,392,89,-68,-126
-18,-13,-3,12,-8,-6,245,577,410,101,-62,-120
-7,-8,-8,6,-3,-6,239,577,410,95,-74,-126
-1,-8,-14,6,3,-11,233,577,416,101,-68,-126
5,-8,-14,6,9,-6,239,583,422,113,-68,-126
-7,-8,-3,6,-3,-6,263,613,452,125,-50,-114
-7,-8,-3,6,-3,-6,269,631,458,137,-44,-120
5,-8,-20,6,9,-11,263,637,458,137,-38,-114
-7,-19,-20,6,3,-17,263,643,458,131,-44,-120
-1,-25,-32,6,15,-29,257,643,458,131,-50,-126
11,-13,-32,6,21,-23,269,655,464,137,-44,-126
-7,-25,-14,12,-3,-23,263,667,482,155,-38,-114
-18,-13,-3,12,-8,-6,275,685,500,161,-32,-102
-12,-13,-3,12,-3,-6,281,697,500,155,-38,-102
-12,-19,-3,12,-3,-11,281,697,500,143,-50,-114
-7,-25,-26,6,9,-23,287,709,524,161,-38,-108
-1,-25,-32,6,15,-29,293,733,524,167,-38,-114
5,-19,-32,6,15,-23,293,733,530,155,-50,-126
-1,-13,-20,6,9,-17,293,727,536,155,-38,-126
-7,-19,-14,6,-3,-17,293,745,548,173,-26,-108
-7,-13,-3,6,-3,-11,299,769,560,185,-20,-102
-7,-8,-8,6,-3,-6,293,781,572,185,-20,-102
-1,-19,-26,6,9,-23,299,799,578,185,-20,-102
5,-31,-44,6,21,-35,299,805,590,191,-26,-114
17,-31,-56,6,33,-41,293,823,590,191,-38,-132
-7,-37,-26,18,3,-35,311,847,626,203,-26,-126
-36,-43,-3,36,-14,-23,329,877,650,221,-9,-120
-7,-25,-20,12,3,-23,341,895,662,233,-9,-114
17,-13,-38,6,27,-23,341,889,662,233,-9,-126
23,-8,-38,1,27,-23,341,907,674,233,-9,-114
53,22,-26,-35,39,-6,353,931,686,251,-3,-108
71,40,-26,-53,51,0,359,949,710,275,9,-102
71,22,-44,-47,57,-6,347,943,716,281,-3,-114
59,4,-50,-29,57,-17,347,949,722,281,-3,-114
35,4,-26,-17,33,-6,365,973,746,305,21,-96
53,4,-44,-29,51,-11,359,997,764,311,21,-96
89,16,-68,-53,81,-17,353,1003,764,311,21,-90
77,16,-56,-47,69,-11,353,1015,794,329,33,-72
53,-8,-62,-17,57,-29,359,1015,800,335,45,-78
59,-8,-68,-23,63,-35,347,1027,800,341,45,-78
71,-2,-68,-35,69,-29,353,1045,818,359,57,-72
83,4,-74,-41,81,-29,347,1045,836,371,69,-66
95,22,-68,-59,81,-17,341,1045,842,383,63,-72
95,28,-62,-59,81,-11,335,1051,854,389,63,-72
113,28,-80,-71,99,-17,329,1051,854,395,57,-84
113,22,-86,-65,99,-23,335,1063,872,401,57,-84
107,16,-86,-59,99,-29,341,1081,884,419,69,-78
101,4,-92,-53,99,-35,341,1087,902,425,81,-60
119,10,-104,-65,111,-41,347,1081,914,431,87,-48
143,16,-122,-77,135,-47,329,1069,908,431,93,-54
143,10,-128,-77,135,-53,311,1063,908,443,99,-48
143,4,-134,-71,141,-59,299,1057,914,455,117,-30
143,4,-134,-71,141,-59,299,1057,908,467,129,-18
137,16,-116,-77,129,-41,281,1045,902,479,135,-13
137,28,-104,-83,123,-29,281,1033,908,491,147,-13
149,22,-122,-83,135,-41,269,1009,908,485,147,-13
167,28,-134,-95,153,-47,257,997,914,497,147,-1
149,34,-110,-89,129,-29,257,979,914,503,165,11
155,46,-104,-101,129,-23,245,967,902,503,171,17
179,52,-122,-113,153,-29,233,943,890,497,165,17
167,64,-98,-113,135,-11,209,913,878,497,171,23
143,58,-80,-101,111,-6,203,895,878,503,189,41
173,64,-104,-119,141,-11,179,859,854,497,177,35
179,58,-116,-119,147,-23,155,829,830,491,165,35
191,58,-128,-125,159,-29,149,793,806,479,165,41
197,46,-146,-119,171,-41,137,763,788,473,165,47
173,46,-122,-107,147,-29,131,733,776,473,171,53
167,46,-116,-107,141,-29,107,715,752,467,183,65
179,46,-128,-113,153,-35,83,667,716,443,177,65
161,52,-104,-107,135,-17,83,625,686,431,177,71
149,70,-74,-107,111,-6,71,583,656,425,183,83
149,70,-74,-107,111,-6,59,541,620,401,177,89
143,58,-80,-101,111,-6,41,493,572,371,159,71
125,46,-74,-83,99,-6,35,463,530,353,147,65
131,52,-74,-89,105,-6,29,427,494,329,129,59
131,46,-80,-89,105,-11,23,397,464,305,123,47
107,40,-62,-71,87,-6,35,367,440,281,117,41
89,46,-38,-65,63,0,29,337,404,263,111,47
107,52,-50,-77,81,-6,11,301,362,233,99,29
101,52,-44,-77,75,0,11,277,332,215,81,29
95,70,-20,-83,57,18,5,241,296,191,69,35
89,82,-3,-83,45,36,11,229,284,185,63,41
83,70,-8,-77,45,24,17,205,242,161,57,35
53,52,-3,-53,27,24,17,181,218,137,39,23
47,58,3,-53,15,30,11,157,188,107,21,17
47,46,-3,-47,21,18,11,127,158,77,3,5
17,40,15,-29,-3,30,17,103,134,59,-9,-1
11,52,33,-29,-3,42,23,91,116,41,-9,-1
23,52,21,-35,-3,36,23,79,92,17,-14,-13
5,34,21,-17,-3,30,29,73,80,-1,-26,-13
-1,34,27,-17,-8,30,17,55,56,-7,-26,-13
-12,28,45,1,-26,36,11,43,26,-24,-38,-13
-30,16,51,6,-38,30,11,19,-4,-42,-56,-24
-7,34,39,-11,-20,36,17,7,-9,-54,-68,-36
17,40,15,-29,-3,30,17,1,-15,-54,-74,-36
17,22,-3,-17,3,12,17,1,-27,-72,-86,-54
-7,10,21,6,-14,12,35,19,-27,-66,-80,-48
-42,10,57,6,-50,30,53,25,-15,-60,-68,-36
-54,-8,45,24,-50,12,47,7,-27,-78,-68,-48
-48,-13,27,30,-38,0,41,1,-45,-96,-92,-72
-42,-8,27,24,-38,0,41,-4,-51,-102,-86,-66
-36,-8,27,18,-32,6,35,-16,-57,-108,-104,-72
-42,-8,33,18,-38,6,41,-10,-57,-108,-110,-84
-48,-8,45,18,-44,18,59,1,-45,-102,-104,-66
-42,4,51,12,-44,24,71,1,-51,-108,-98,-54
-48,4,57,12,-50,30,77,1,-45,-108,-98,-48
-54,10,69,12,-62,36,77,1,-57,-114,-116,-60
-48,-2,51,18,-50,24,65,1,-63,-126,-110,-66
-54,-8,45,24,-50,12,65,1,-63,-120,-104,-66
-54,-13,33,30,-44,0,65,1,-63,-120,-116,-78
-42,-8,27,24,-38,0,59,-4,-75,-132,-104,-78
-48,-8,39,24,-44,12,59,-16,-81,-132,-104,-72
-42,-8,27,24,-38,0,59,-10,-87,-132,-104,-78
-36,-19,9,24,-26,-6,59,-10,-87,-138,-116,-72
-30,-43,-8,36,-8,-29,71,-10,-75,-132,-110,-66
-42,-79,-32,60,-3,-59,83,1,-63,-126,-98,-66
-72,-91,-14,78,-26,-53,101,7,-51,-108,-80,-54
-96,-109,-8,102,-38,-59,101,7,-45,-102,-80,-48
-84,-127,-38,102,-20,-83,107,7,-51,-108,-74,-54
-78,-139,-56,108,-8,-101,101,1,-63,-120,-86,-72
-84,-145,-56,114,-8,-101,101,1,-63,-108,-80,-60
-78,-139,-56,108,-8,-101,89,7,-51,-102,-86,-54
-66,-133,-62,96,-3,-101,101,25,-45,-102,-74,-48
-84,-133,-44,108,-14,-89,125,37,-39,-96,-74,-36
-78,-139,-56,108,-8,-101,119,31,-39,-102,-80,-36
-54,-157,-98,102,15,-131,125,37,-27,-96,-80,-42
-60,-163,-98,108,9,-131,137,55,-15,-90,-74,-42
-60,-163,-98,108,9,-131,143,55,-15,-90,-74,-36
-36,-151,-110,90,27,-131,131,49,-21,-96,-68,-36
-36,-157,-116,96,33,-137,137,55,-15,-96,-68,-42
-60,-169,-104,114,15,-137,125,49,-27,-102,-80,-48
-60,-187,-122,120,21,-155,101,37,-39,-114,-98,-72
-66,-175,-104,120,9,-143,119,49,-21,-102,-92,-72
-84,-151,-62,114,-8,-107,137,61,-9,-90,-80,-54
-96,-157,-56,126,-14,-107,131,61,-15,-90,-80,-54
-84,-181,-92,132,-3,-137,131,55,-15,-96,-86,-54
-48,-169,-116,108,27,-143,137,61,-15,-90,-86,-48
-24,-151,-122,84,39,-137,143,79,-9,-84,-74,-36
-48,-163,-110,102,21,-137,143,85,-4,-78,-62,-24
-72,-187,-110,126,9,-149,143,85,-4,-72,-68,-24
-78,-187,-104,132,3,-149,143,91,-4,-72,-62,-24
-72,-175,-98,120,3,-137,137,97,-4,-60,-56,-13
-60,-169,-104,114,15,-137,137,91,-4,-72,-68,-18
-54,-169,-110,108,21,-143,137,91,-4,-72,-68,-24
-54,-175,-116,114,21,-149,131,85,-4,-72,-68,-24
-36,-169,-128,102,39,-149,137,85,-4,-78,-74,-24
-54,-169,-110,108,21,-143,155,97,-4,-72,-80,-30
-66,-169,-98,114,9,-137,155,97,2,-78,-74,-36
-72,-187,-110,126,9,-149,143,91,2,-84,-80,-30
-72,-205,-128,138,21,-167,131,85,-4,-84,-74,-30
-66,-199,-128,132,21,-167,131,97,-4,-78,-68,-30
-60,-193,-128,126,27,-161,131,109,8,-72,-68,-30
-72,-199,-122,132,15,-161,143,103,8,-72,-74,-36
-72,-205,-128,138,21,-167,149,103,8,-72,-80,-36
-66,-193,-122,126,21,-161,143,103,8,-66,-80,-30
-78,-199,-116,138,9,-161,143,109,8,-66,-74,-36
-54,-205,-146,126,39,-179,137,115,14,-78,-86,-48
-54,-199,-140,126,33,-173,143,133,26,-66,-74,-42
-60,-193,-128,126,27,-161,137,127,20,-72,-74,-42
-72,-205,-128,138,21,-167,137,115,26,-72,-74,-54
-84,-199,-110,138,3,-155,137,133,44,-48,-62,-42
-90,-187,-92,138,-3,-143,137,133,44,-42,-62,-24
-102,-199,-92,150,-3,-149,137,133,38,-48,-56,-30
-90,-193,-98,138,-3,-149,137,133,38,-54,-62,-36
-60,-193,-128,126,27,-161,131,133,44,-42,-56,-36
-66,-187,-116,126,15,-155,137,133,44,-42,-56,-30
-54,-175,-116,114,21,-149,131,121,38,-48,-56,-30
-36,-169,-128,102,39,-149,131,127,44,-42,-62,-42
-42,-175,-128,108,33,-155,137,139,50,-42,-56,-30
-54,-175,-116,114,21,-149,131,127,50,-48,-68,-42
-66,-187,-116,126,15,-155,125,109,38,-54,-68,-42
-48,-193,-140,120,39,-167,113,103,38,-66,-80,-48
-42,-187,-140,114,39,-167,119,115,44,-42,-74,-36
-48,-175,-122,108,27,-149,131,127,56,-30,-50,-30
-78,-187,-104,132,3,-149,131,139,62,-18,-38,-24
-102,-199,-92,150,-3,-149,137,145,56,-18,-44,-18
-78,-199,-116,138,9,-161,143,139,62,-30,-56,-24
-54,-205,-146,126,39,-179,119,127,44,-42,-68,-42
-54,-193,-134,120,33,-167,113,127,44,-42,-68,-48
-30,-175,-140,102,45,-161,113,127,56,-36,-50,-42
-42,-169,-122,102,33,-149,107,121,56,-24,-50,-36
-42,-169,-122,102,33,-149,101,109,56,-36,-62,-30
-36,-169,-128,102,39,-149,113,109,50,-42,-68,-42
-24,-169,-140,96,51,-155,113,97,44,-42,-68,-48
-24,-163,-134,90,45,-149,113,103,44,-36,-68,-36
-30,-169,-134,96,45,-155,113,97,38,-48,-68,-42
-48,-175,-122,108,27,-149,125,97,38,-42,-68,-48
-48,-181,-128,114,33,-155,119,109,44,-48,-68,-54
-60,-193,-128,126,27,-161,101,115,32,-54,-74,-48
-72,-193,-116,132,15,-155,101,115,32,-54,-80,-48
-60,-175,-110,114,15,-143,113,121,38,-48,-62,-42
-54,-169,-110,108,21,-143,107,115,38,-48,-56,-48
-66,-181,-110,120,15,-149,101,109,38,-48,-62,-54
-54,-193,-134,120,33,-167,95,97,32,-54,-74,-54
-42,-199,-152,120,45,-179,83,91,14,-66,-80,-66
-36,-181,-140,108,45,-161,101,97,26,-54,-74,-48
-18,-157,-134,84,51,-149,113,109,32,-42,-62,-42
-18,-169,-146,90,57,-161,107,109,32,-42,-62,-30
-36,-181,-140,108,45,-161,101,103,32,-54,-56,-24
-36,-169,-128,102,39,-149,107,103,26,-48,-56,-24
-42,-163,-116,102,27,-143,101,97,14,-54,-56,-24
-24,-169,-140,96,51,-155,89,79,8,-60,-68,-30
-18,-169,-146,90,57,-161,89,79,8,-54,-68,-30
-18,-157,-134,84,51,-149,95,73,8,-60,-74,-42
-24,-157,-128,90,45,-143,95,79,8,-60,-68,-36
-60,-181,-116,120,21,-149,95,79,8,-60,-80,-48
-72,-175,-98,120,3,-137,101,67,2,-72,-86,-48
-48,-163,-110,102,21,-137,89,61,-4,-78,-80,-48
-48,-157,-104,102,21,-131,89,67,-4,-72,-80,-48
-60,-163,-98,108,9,-131,89,73,-4,-78,-86,-54
-72,-169,-92,120,3,-131,83,73,-4,-78,-80,-54
-66,-163,-92,114,3,-131,83,67,-4,-78,-86,-54
-66,-163,-92,114,3,-131,83,67,-4,-78,-86,-42
-60,-169,-104,114,15,-137,83,61,-9,-78,-86,-42
-30,-151,-116,90,33,-137,77,55,-9,-72,-80,-42
-30,-145,-110,84,33,-131,89,61,-4,-72,-86,-54
-48,-175,-122,108,27,-149,89,55,-9,-84,-98,-66
-48,-181,-128,114,33,-155,77,49,-21,-96,-110,-72
-66,-175,-104,120,9,-143,77,61,-9,-84,-92,-60
-60,-163,-98,108,9,-131,83,49,-27,-96,-104,-66
-60,-163,-98,108,9,-131,83,49,-27,-96,-104,-72
-72,-169,-92,120,3,-131,77,49,-9,-90,-104,-72
-54,-151,-92,102,9,-125,71,49,-15,-96,-104,-72
-60,-157,-92,108,9,-125,89,55,-9,-84,-98,-66
-60,-157,-92,108,9,-125,83,43,-9,-90,-98,-66
-48,-139,-86,90,9,-113,83,37,-15,-96,-104,-66
-48,-139,-86,90,9,-113,89,43,-21,-90,-92,-78
-36,-139,-98,84,21,-119,83,31,-33,-90,-104,-72
-18,-133,-110,72,39,-125,83,37,-21,-90,-98,-66
-48,-133,-80,90,9,-107,95,61,-9,-84,-92,-48
-36,-133,-92,84,21,-113,83,61,-9,-84,-92,-54
-18,-127,-104,72,33,-119,65,49,-21,-84,-92,-54
-18,-127,-104,72,33,-119,71,49,-27,-84,-92,-60
-7,-127,-116,66,45,-125,71,43,-33,-90,-104,-60
-30,-145,-110,84,33,-131,71,43,-27,-90,-98,-54
-72,-145,-68,108,-3,-107,89,61,-15,-78,-92,-48
-54,-139,-80,96,3,-113,71,43,-27,-90,-98,-60
-42,-145,-98,90,21,-125,71,37,-27,-90,-110,-66
-48,-145,-92,96,15,-119,65,37,-33,-96,-104,-72
-54,-145,-86,96,9,-119,83,43,-27,-90,-104,-60
-60,-133,-68,96,-3,-101,71,25,-27,-96,-104,-66
-48,-127,-74,84,3,-101,59,31,-33,-96,-110,-66
-42,-139,-92,90,15,-119,59,19,-39,-96,-116,-78
-42,-133,-86,84,15,-113,65,25,-27,-90,-110,-72
-48,-115,-62,78,-3,-89,77,43,-21,-78,-98,-66
-54,-121,-62,84,-3,-95,71,37,-27,-90,-104,-60
-54,-139,-80,96,3,-113,59,31,-33,-102,-110,-60
-54,-145,-86,96,9,-119,65,31,-33,-102,-110,-60
-42,-139,-92,90,15,-119,59,31,-33,-108,-110,-72
-60,-139,-74,96,-3,-107,71,31,-27,-96,-110,-60
-60,-139,-74,96,-3,-107,65,31,-27,-90,-98,-66
-48,-127,-74,84,3,-101,53,25,-39,-102,-104,-78
-42,-121,-74,78,9,-101,65,31,-33,-90,-98,-66
-36,-121,-80,78,15,-101,65,31,-39,-90,-104,-66
-42,-127,-80,84,9,-107,71,37,-33,-96,-104,-72
-60,-133,-68,96,-3,-101,65,31,-39,-96,-110,-66
-60,-145,-80,102,3,-113,59,31,-33,-90,-98,-66
-66,-145,-74,102,-3,-113,53,19,-39,-102,-116,-72
-42,-121,-74,78,9,-101,65,25,-33,-102,-110,-78
-42,-109,-62,72,3,-89,65,25,-33,-96,-104,-72
-60,-127,-62,90,-3,-95,53,19,-39,-108,-116,-84
-78,-127,-44,102,-14,-89,53,13,-45,-114,-122,-90
-66,-121,-50,90,-3,-89,59,13,-45,-108,-116,-84
-54,-121,-62,84,-3,-95,53,7,-51,-114,-128,-84
-54,-127,-68,90,-3,-101,65,13,-51,-108,-116,-90
-42,-127,-80,84,9,-107,59,13,-51,-114,-122,-96
-30,-127,-92,78,21,-113,47,13,-45,-114,-128,-96
-30,-103,-68,66,9,-89,71,31,-33,-108,-116,-78
-42,-85,-38,60,-3,-65,83,43,-27,-102,-104,-66
-78,-109,-26,90,-20,-71,71,37,-27,-102,-104,-66
-78,-127,-44,102,-14,-89,59,31,-27,-102,-104,-78
-66,-103,-32,84,-14,-71,71,37,-27,-90,-92,-66
-48,-79,-26,60,-8,-53,77,43,-27,-78,-86,-66
-24,-49,-20,36,-3,-35,83,43,-21,-66,-80,-54
-12,-37,-20,24,-3,-29,77,49,-15,-60,-80,-54
-18,-43,-20,30,-3,-35,89,49,-9,-66,-86,-60
-7,-25,-14,12,-3,-23,95,55,-4,-54,-74,-48
-7,-13,-14,6,3,-11,95,61,-4,-48,-62,-42
-7,-19,-14,6,-3,-17,89,55,-4,-60,-74,-54
-7,-25,-14,12,-3,-23,89,43,-9,-60,-74,-54
-7,-19,-20,6,3,-17,83,43,-4,-72,-68,-42
-7,-13,-8,6,-3,-11,83,49,-4,-60,-62,-42
-7,-13,-3,6,-3,-11,83,55,-4,-48,-62,-30
-7,-31,-26,12,3,-29,83,49,-4,-60,-68,-42
-7,-19,-8,12,-3,-17,89,55,-4,-60,-56,-42
-7,-19,-14,6,-3,-17,101,61,-4,-42,-50,-42
17,-8,-32,1,21,-17,89,49,-4,-60,-68,-60
-7,-8,-3,6,-3,-6,107,49,-4,-54,-68,-54
-36,-2,39,12,-38,18,107,61,-4,-48,-56,-48
-36,4,45,6,-38,24,101,55,2,-42,-62,-48
-18,28,51,1,-32,36,71,31,-4,-54,-68,-48
-12,46,63,-11,-38,54,53,25,-4,-42,-56,-30
-7,58,69,-17,-38,60,23,25,-4,-36,-50,-18
5,58,45,-29,-14,54,-6,13,-4,-42,-50,-24
23,46,15,-35,-3,30,-48,1,-21,-54,-62,-30
17,34,9,-23,-3,24,-66,-22,-45,-66,-68,-36
5,16,3,-11,-3,12,-78,-28,-51,-78,-68,-30
-7,-2,3,6,-3,0,-78,-40,-63,-90,-80,-42
-24,-8,21,6,-20,6,-78,-46,-69,-96,-74,-42
-18,-8,15,6,-14,0,-84,-70,-87,-102,-74,-48
-7,-8,-3,6,-3,-6,-96,-88,-117,-126,-98,-60
5,-8,-14,6,9,-6,-96,-82,-111,-114,-92,-48
47,10,-32,-29,39,-6,-78,-52,-81,-90,-74,-42
41,-8,-44,-17,45,-17,-66,-28,-63,-78,-74,-30
59,-13,-80,-17,69,-47,-54,-22,-69,-84,-86,-36
53,-25,-86,-5,69,-53,-54,-22,-75,-90,-86,-48
29,-43,-80,6,51,-59,-54,-22,-75,-108,-98,-48
35,-43,-86,6,57,-65,-36,-22,-75,-108,-86,-48
41,-19,-68,-5,51,-41,-24,-16,-75,-108,-86,-42
35,-13,-56,-5,45,-35,-12,-10,-63,-96,-74,-24
11,-25,-44,6,27,-35,-12,-10,-57,-96,-74,-30
17,-25,-50,6,33,-35,-6,-4,-63,-90,-80,-42
5,-19,-32,6,15,-23,-1,1,-57,-84,-74,-42
-7,-37,-38,12,15,-35,5,1,-51,-84,-68,-36
-24,-61,-32,42,-3,-47,11,1,-51,-90,-80,-48
-54,-85,-26,66,-8,-59,17,7,-57,-84,-86,-60
-42,-109,-62,72,3,-89,17,1,-63,-102,-98,-66
-36,-115,-74,72,9,-95,-1,-28,-87,-126,-116,-72
-42,-109,-62,72,3,-89,-1,-40,-111,-138,-134,-90
-60,-115,-50,84,-3,-83,17,-28,-99,-138,-128,-90
-54,-115,-56,84,-3,-89,29,-16,-87,-138,-122,-84
-48,-109,-56,78,-3,-83,23,-10,-93,-138,-128,-96
-54,-133,-74,90,3,-107,29,-4,-87,-138,-134,-102
-66,-139,-68,102,-3,-107,29,-4,-99,-150,-134,-108
-78,-151,-68,114,-3,-113,29,-16,-99,-150,-152,-114
-60,-139,-74,96,-3,-107,35,-16,-105,-150,-152,-114
-54,-139,-80,96,3,-113,35,-10,-99,-156,-152,-114
-72,-145,-68,108,-3,-107,35,-16,-105,-162,-146,-102
-60,-139,-74,96,-3,-107,41,-16,-99,-156,-158,-108
-48,-133,-80,90,9,-107,29,-16,-99,-150,-158,-114
-48,-139,-86,90,9,-113,35,-10,-93,-150,-152,-114
-54,-133,-74,90,3,-107,35,1,-81,-138,-140,-114
-60,-121,-56,90,-3,-89,53,7,-69,-126,-134,-108
-60,-115,-50,84,-3,-83,53,7,-81,-138,-134,-102
-54,-121,-62,84,-3,-95,47,7,-75,-138,-146,-120
-78,-139,-56,108,-8,-101,47,7,-75,-132,-140,-114
-84,-133,-44,108,-14,-89,59,13,-57,-120,-122,-102
-54,-115,-56,84,-3,-89,53,13,-69,-132,-134,-108
-30,-109,-74,66,15,-95,41,1,-75,-144,-152,-120
-66,-121,-50,90,-3,-89,53,1,-63,-126,-128,-102
-84,-133,-44,108,-14,-89,47,1,-57,-120,-122,-102
-72,-127,-50,96,-8,-89,29,1,-57,-120,-122,-102
-60,-127,-62,90,-3,-95,29,1,-45,-102,-116,-90
-54,-115,-56,84,-3,-89,11,13,-27,-84,-98,-84
-54,-97,-38,72,-3,-71,17,49,14,-54,-92,-78
-42,-91,-44,66,-3,-71,29,91,68,-24,-80,-72
-36,-79,-38,54,-3,-59,-1,61,110,5,-50,-66
-18,-43,-20,30,-3,-35,-54,-94,104,47,-9,-24
-7,4,9,6,-3,6,-150,-388,14,77,45,17
-7,52,63,-17,-32,54,-264,-760,-141,65,93,65
-7,76,81,-29,-38,78,-396,-1222,-399,29,117,119
5,112,99,-59,-38,108,-552,-1702,-711,-24,147,155
23,154,123,-89,-44,138,-678,-2062,-891,-42,183,203
29,202,165,-113,-62,186,-798,-2386,-1017,-18,231,263
65,232,159,-149,-38,198,-936,-2751,-1233,-30,303,335
143,232,87,-191,21,162,-1086,-3081,-1449,-24,375,407
191,256,63,-227,57,162,-1194,-3363,-1677,-60,423,467
239,286,39,-263,99,168,-1278,-3459,-1821,-72,477,521
353,346,-3,-347,183,168,-1434,-3561,-1977,-72,543,605
419,418,-3,-419,213,210,-1596,-3687,-2157,-36,657,701
527,466,-62,-491,297,198,-1776,-3777,-2259,23,795,815
677,484,-188,-581,435,150,-1950,-3921,-2462,11,915,935
743,478,-260,-611,501,108,-1998,-4077,-2732,-78,945,995
791,442,-350,-617,573,42,-2016,-4107,-2930,-144,969,1043
809,442,-368,-623,591,30,-2088,-4143,-3110,-192,1035,1109
773,484,-284,-629,531,96,-2172,-4251,-3302,-240,1125,1187
671,544,-122,-605,399,210,-2214,-4383,-3482,-264,1233,1283
557,616,51,-587,249,336,-2268,-4407,-3560,-246,1341,1361
425,718,285,-569,63,498,-2250,-4257,-3428,-132,1461,1433
353,808,453,-581,-44,630,-2208,-3969,-3170,77,1659,1529
383,910,519,-647,-62,720,-2196,-3663,-2876,299,1863,1649
371,1018,645,-695,-134,834,-2124,-3345,-2570,485,2013,1733
245,1114,861,-683,-302,984,-1962,-3045,-2307,491,1917,1685
101,1132,1023,-617,-458,1080,-1758,-2733,-2067,341,1569,1457
-7,1066,1077,-521,-542,1068,-1530,-2356,-1803,137,1131,1169
-42,934,975,-443,-506,954,-1272,-1912,-1461,11,759,887
-54,760,819,-347,-440,786,-1038,-1534,-1215,-204,387,623
-78,628,711,-269,-392,666,-816,-1228,-1041,-438,69,401
-96,502,603,-203,-350,552,-642,-964,-837,-438,-26,263
-66,406,477,-167,-266,438,-504,-748,-651,-336,-20,203
-48,376,429,-161,-242,402,-414,-604,-525,-258,-3,185
-72,334,411,-125,-242,372,-342,-484,-435,-210,9,173
-78,262,345,-89,-212,300,-288,-388,-363,-186,-9,125
-54,214,267,-71,-164,234,-258,-322,-321,-186,-50,65
-54,172,231,-53,-140,198,-228,-262,-285,-186,-86,29
-66,112,183,-17,-122,144,-174,-202,-249,-192,-116,-13
-96,94,195,6,-146,144,-132,-148,-219,-186,-134,-30
-132,70,207,24,-170,138,-96,-100,-183,-192,-152,-48
-90,46,141,12,-116,90,-66,-52,-141,-186,-170,-84
-66,34,105,6,-86,66,-6,1,-75,-168,-170,-84
-84,22,111,24,-98,66,11,43,-39,-150,-164,-84
-72,10,87,24,-80,48,41,91,-9,-132,-164,-96
-54,-8,51,24,-50,18,89,157,32,-102,-140,-96
-36,-19,9,24,-26,-6,119,199,74,-84,-134,-96
-24,-49,-20,36,-3,-35,119,229,92,-60,-134,-96
-12,-55,-38,30,3,-47,125,253,122,-24,-122,-96
-24,-49,-20,36,-3,-35,155,301,164,-7,-110,-84
-18,-37,-14,24,-3,-29,179,331,200,-1,-104,-90
-30,-31,-3,30,-14,-17,185,355,212,-7,-110,-102
-60,-55,-3,54,-32,-23,179,337,200,-7,-128,-114
-48,-61,-8,54,-14,-35,185,337,200,-12,-128,-120
-42,-55,-8,48,-14,-35,191,331,212,-7,-122,-120
-60,-73,-8,66,-20,-41,197,343,224,-7,-110,-102
-54,-73,-14,60,-14,-47,197,361,224,-1,-104,-96
-42,-67,-20,54,-8,-47,203,385,236,23,-98,-90
-24,-55,-26,36,-3,-41,209,397,242,23,-98,-102
-7,-61,-56,30,21,-59,197,391,242,17,-110,-108
-1,-49,-56,18,27,-53,197,391,248,23,-104,-102
-18,-43,-20,30,-3,-35,221,421,278,41,-92,-96
-18,-43,-20,30,-3,-35,215,427,272,35,-104,-102
-7,-49,-38,24,9,-47,209,427,278,29,-104,-90
-18,-43,-20,30,-3,-35,203,439,284,29,-92,-96
-30,-55,-20,42,-3,-41,209,433,284,35,-98,-108
-24,-55,-26,36,-3,-41,209,427,284,29,-104,-108
-18,-55,-32,36,-3,-47,215,433,284,47,-92,-96
-30,-61,-26,42,-3,-47,221,445,296,47,-92,-96
-30,-67,-32,48,-3,-53,227,451,308,53,-92,-102
-7,-61,-56,30,21,-59,221,457,296,47,-86,-90
-12,-67,-50,36,9,-59,227,469,308,53,-92,-102
-36,-73,-32,54,-3,-53,233,481,326,59,-80,-90
-36,-79,-38,54,-3,-59,227,463,314,47,-98,-102
-18,-85,-62,48,15,-77,215,457,308,41,-98,-102
-7,-91,-86,42,33,-89,215,463,314,53,-98,-96
-24,-85,-56,54,9,-71,215,469,314,53,-92,-96
-36,-73,-32,54,-3,-53,227,475,326,65,-86,-84
-7,-61,-50,30,15,-59,221,481,320,53,-92,-102
11,-55,-74,12,39,-65,221,487,326,59,-92,-102
29,-43,-80,6,51,-59,227,487,314,53,-104,-114
-1,-43,-50,12,21,-47,239,493,338,65,-92,-102
-30,-55,-20,42,-3,-41,239,511,362,77,-74,-90
-42,-67,-20,54,-8,-47,251,517,368,83,-68,-78
-30,-67,-32,48,-3,-53,239,511,356,71,-86,-96
-30,-73,-38,48,-3,-59,239,505,350,71,-92,-96
-24,-61,-32,42,-3,-47,233,499,356,71,-92,-90
-7,-49,-38,24,9,-47,239,523,368,83,-80,-78
-7,-37,-38,12,15,-35,233,535,368,83,-80,-96
-1,-37,-44,12,21,-41,239,541,374,89,-80,-96
-7,-43,-38,18,9,-41,245,553,386,95,-74,-96
-7,-55,-50,24,15,-53,251,553,386,95,-86,-102
-7,-67,-62,30,21,-65,239,553,380,77,-104,-120
-24,-61,-32,42,-3,-47,245,565,386,83,-92,-114
-24,-61,-32,42,-3,-47,245,577,398,89,-86,-108
-1,-49,-56,18,27,-53,251,589,410,101,-74,-96
5,-37,-50,6,27,-41,245,589,410,107,-68,-96
-7,-49,-50,18,21,-47,239,589,404,101,-74,-108
5,-49,-62,12,33,-53,239,595,410,107,-74,-108
-1,-37,-44,12,21,-41,251,613,434,119,-68,-102
-7,-19,-20,6,3,-17,269,637,446,125,-62,-96
-7,-13,-14,6,3,-11,281,649,464,131,-56,-90
-7,-13,-14,6,3,-11,281,655,464,131,-62,-96
5,-13,-26,6,15,-17,269,649,458,119,-68,-90
5,-13,-26,6,15,-17,263,661,464,119,-62,-96
-1,-13,-20,6,9,-17,269,667,482,125,-62,-102
-1,-25,-32,6,15,-29,275,679,482,137,-56,-90
-1,-25,-32,6,15,-29,275,691,482,143,-62,-96
-7,-37,-38,12,15,-35,275,697,488,149,-62,-102
-1,-37,-44,12,21,-41,281,703,500,161,-56,-96
23,-31,-62,6,39,-47,287,727,506,155,-50,-90
17,-37,-62,6,39,-47,293,733,518,155,-50,-90
11,-43,-62,6,33,-53,293,745,536,167,-50,-84
23,-31,-62,6,39,-47,287,745,536,167,-50,-84
23,-25,-56,6,39,-41,299,757,548,167,-44,-78
5,-43,-56,12,27,-47,293,757,548,173,-56,-90
17,-37,-62,6,39,-47,293,775,554,173,-56,-96
47,-13,-68,-11,57,-41,305,805,572,191,-44,-78
65,-8,-68,-29,69,-29,329,823,596,209,-26,-72
53,-13,-74,-11,63,-41,329,835,602,209,-32,-72
47,-19,-74,-5,57,-47,329,847,608,203,-38,-90
53,-8,-68,-17,57,-35,347,871,632,215,-38,-90
41,-8,-56,-11,45,-29,353,895,650,233,-20,-78
23,-19,-50,6,33,-35,347,883,644,233,-26,-78
5,-31,-44,6,21,-35,347,907,668,239,-20,-78
-1,-31,-38,6,15,-35,359,931,692,251,-9,-72
35,-13,-56,-5,45,-35,353,937,698,257,-9,-78
47,-8,-56,-17,51,-29,359,967,710,275,-9,-78
41,-8,-56,-11,45,-29,365,979,728,281,-3,-66
59,-8,-68,-23,63,-35,353,991,734,287,-9,-78
59,-8,-74,-17,63,-41,365,1009,746,299,-9,-78
59,-8,-74,-17,63,-41,371,1027,764,305,-3,-78
77,-8,-92,-29,81,-47,371,1033,782,311,3,-78
71,-8,-80,-29,75,-41,377,1039,794,329,9,-72
71,-8,-74,-29,75,-35,377,1057,812,341,21,-66
95,4,-86,-47,93,-35,371,1069,824,347,21,-66
89,-2,-86,-41,87,-35,365,1069,824,347,21,-66
83,-8,-92,-35,87,-47,359,1087,830,359,27,-66
77,-8,-92,-29,81,-47,365,1105,860,389,39,-66
77,-8,-86,-29,81,-41,371,1099,866,395,45,-66
101,-8,-110,-41,105,-53,359,1099,854,395,45,-66
101,-8,-104,-47,105,-47,359,1111,872,407,45,-54
119,-2,-116,-59,117,-53,353,1111,884,407,51,-66
137,4,-128,-71,135,-53,353,1117,896,419,69,-48
155,10,-140,-83,147,-59,347,1117,908,443,75,-36
155,16,-134,-83,147,-53,341,1105,914,443,81,-36
131,10,-116,-71,123,-47,341,1105,914,455,87,-36
125,10,-110,-65,117,-41,323,1105,920,467,93,-24
155,16,-134,-83,147,-53,323,1093,926,479,105,-13
161,22,-134,-89,147,-47,317,1087,932,479,117,-13
161,10,-146,-83,153,-59,299,1075,926,479,117,-13
167,-2,-164,-83,165,-77,293,1051,920,479,117,-13
167,4,-158,-83,165,-71,293,1027,926,491,123,-13
173,10,-158,-89,165,-65,275,1027,920,497,147,5
203,34,-164,-119,183,-59,263,1015,914,503,159,17
215,40,-170,-125,195,-59,245,985,914,509,165,29
203,34,-164,-119,183,-59,227,955,890,503,165,29
209,22,-182,-113,195,-71,197,919,866,491,159,23
215,28,-182,-119,201,-71,179,895,854,491,165,23
221,40,-176,-131,201,-59,173,847,842,497,159,29
227,46,-176,-137,201,-59,167,823,824,491,171,41
203,52,-146,-125,177,-41,161,817,818,497,177,47
209,58,-146,-131,177,-35,131,775,800,491,171,29
209,58,-146,-131,177,-35,107,745,776,479,171,41
221,64,-152,-143,189,-35,95,709,746,467,171,47
221,70,-146,-143,183,-29,83,667,722,461,177,47
161,64,-92,-113,129,-6,77,637,698,455,189,65
137,46,-86,-89,111,-11,65,595,662,437,183,59
173,52,-116,-113,147,-23,35,535,608,401,153,35
185,52,-128,-119,159,-29,29,499,572,377,147,35
179,52,-122,-113,153,-29,23,463,530,353,135,23
161,52,-104,-107,135,-17,23,427,494,335,123,29
161,52,-104,-107,135,-17,17,385,464,305,111,17
143,46,-92,-95,117,-17,-1,349,422,269,99,17
155,52,-98,-101,129,-17,-1,307,380,245,87,5
161,58,-98,-107,129,-11,-1,295,350,239,81,5
119,52,-62,-83,93,-6,-1,265,320,215,69,5
89,40,-44,-65,69,-6,-1,241,290,191,57,5
101,40,-56,-71,81,-6,-1,217,254,173,45,-13
95,52,-38,-71,69,0,-1,193,236,143,33,-13
65,46,-14,-53,39,12,-1,181,206,131,21,-13
65,34,-26,-47,45,0,-1,145,170,95,-3,-18
71,34,-32,-53,51,-6,-1,121,140,65,-9,-24
53,34,-14,-41,33,6,-1,103,110,41,-14,-36
65,34,-26,-47,45,0,-1,73,74,17,-32,-48
47,22,-20,-35,33,-6,-6,61,50,5,-44,-60
17,16,-3,-17,9,6,-1,49,38,-7,-50,-48
-1,10,3,-5,-3,6,-1,43,20,-7,-50,-48
-7,4,3,1,-3,6,-1,37,8,-12,-62,-60
-7,10,21,6,-14,12,-1,25,2,-24,-68,-66
-12,4,21,6,-14,12,-1,1,-15,-54,-86,-78
-12,-8,9,6,-8,0,5,1,-27,-66,-98,-84
-1,4,-3,1,-3,0,17,1,-27,-66,-98,-84
5,28,15,-17,-3,24,23,1,-21,-66,-92,-72
-1,34,27,-17,-8,30,23,1,-33,-78,-104,-78
-1,16,9,-5,-3,12,5,-10,-57,-90,-122,-90
-7,10,9,1,-3,12,-1,-16,-63,-102,-122,-96
-1,16,9,-5,-3,12,5,-10,-75,-102,-134,-102
-7,10,15,1,-8,12,17,-16,-75,-120,-134,-96
-18,16,39,6,-26,24,29,-16,-75,-114,-128,-78
-12,22,39,1,-26,30,29,-16,-87,-114,-140,-90
-12,10,27,6,-20,18,47,-10,-75,-114,-134,-90
-12,22,39,1,-26,30,41,-22,-81,-120,-134,-96
-12,10,27,6,-20,18,29,-16,-87,-120,-140,-96
-7,10,21,6,-14,12,35,-22,-99,-132,-140,-96
-7,16,21,1,-8,18,41,-28,-99,-126,-140,-96
-12,10,27,6,-20,18,41,-22,-93,-126,-128,-84
-18,-2,21,6,-20,6,35,-16,-93,-120,-134,-90
-36,-8,33,12,-32,12,53,-4,-81,-114,-122,-90
-60,-8,45,30,-56,12,53,-4,-87,-114,-128,-84
-36,-13,15,24,-26,-6,47,-10,-87,-120,-128,-84
-42,-19,15,30,-32,-6,41,-22,-87,-126,-134,-96
-66,-31,27,48,-50,-6,47,-22,-81,-132,-134,-96
-60,-37,15,48,-38,-6,47,-22,-81,-126,-134,-96
-48,-31,9,36,-32,-6,47,-22,-87,-126,-122,-102
-30,-25,-3,24,-14,-11,53,-22,-93,-126,-122,-108
-48,-31,9,36,-32,-6,53,-16,-87,-126,-116,-84
-66,-43,15,54,-44,-11,53,-10,-81,-120,-122,-78
-48,-31,9,36,-32,-6,47,-16,-93,-126,-128,-96
-30,-25,-3,24,-14,-11,65,1,-81,-108,-116,-90
-18,-13,-3,12,-8,-6,71,1,-75,-114,-122,-84
-36,-31,-3,30,-20,-11,59,1,-81,-126,-134,-102
-42,-43,-3,42,-20,-23,65,1,-81,-132,-140,-102
-30,-43,-8,36,-8,-29,65,1,-81,-132,-140,-102
-42,-37,-3,36,-20,-17,59,1,-81,-126,-134,-96
-48,-37,3,42,-26,-11,53,-4,-81,-132,-134,-102
-48,-37,3,42,-26,-11,65,1,-75,-126,-128,-84
-36,-31,-3,30,-20,-11,65,7,-69,-120,-116,-78
-36,-37,-3,36,-14,-17,65,7,-69,-120,-116,-96
-48,-49,-3,48,-20,-23,59,1,-81,-126,-140,-102
-24,-37,-8,30,-3,-23,65,1,-87,-126,-146,-108
-36,-43,-3,36,-14,-23,65,7,-69,-138,-146,-114
-78,-61,9,66,-44,-23,71,7,-69,-132,-152,-108
-78,-73,-3,72,-38,-35,59,1,-75,-138,-146,-108
-66,-67,-3,66,-32,-35,59,13,-69,-132,-146,-126
-60,-61,-3,60,-26,-29,71,13,-63,-132,-146,-114
-78,-67,3,72,-44,-29,71,13,-69,-126,-128,-108
-72,-61,3,66,-38,-23,77,25,-63,-114,-122,-96
-30,-43,-8,36,-8,-29,89,31,-45,-108,-122,-90
-24,-37,-8,30,-3,-23,83,25,-45,-120,-122,-102
-42,-49,-3,42,-14,-29,83,37,-51,-114,-122,-108
-54,-67,-8,60,-20,-41,71,31,-57,-126,-140,-120
-42,-73,-26,54,-3,-53,65,31,-63,-138,-146,-126
-60,-61,-3,60,-26,-29,71,37,-51,-126,-134,-120
-72,-49,15,60,-44,-11,77,61,-33,-102,-122,-108
-30,-37,-3,30,-8,-23,77,49,-33,-102,-134,-114
-12,-43,-26,24,-3,-35,77,43,-39,-102,-134,-120
-42,-49,-3,42,-14,-29,83,55,-27,-102,-116,-96
-60,-55,-3,54,-32,-23,89,67,-21,-102,-116,-96
-54,-49,-3,48,-26,-23,83,67,-27,-114,-128,-102
-48,-61,-8,54,-14,-35,83,73,-21,-114,-134,-108
-60,-73,-8,66,-20,-41,83,67,-21,-114,-134,-114
-54,-79,-20,66,-14,-53,77,67,-21,-108,-140,-114
-42,-61,-14,48,-8,-41,83,61,-21,-108,-128,-102
-48,-55,-3,48,-20,-29,83,73,-21,-102,-122,-90
-48,-49,-3,48,-20,-23,89,73,-9,-96,-116,-90
-42,-43,-3,42,-20,-23,89,67,-15,-102,-110,-90
-42,-43,-3,42,-20,-23,83,67,-15,-90,-110,-78
-48,-49,-3,48,-20,-23,89,79,-4,-78,-110,-78
-48,-49,-3,48,-20,-23,89,73,-4,-90,-104,-84
-42,-55,-8,48,-14,-35,89,79,-9,-84,-104,-90
-30,-55,-20,42,-3,-41,83,85,-4,-84,-122,-108
-18,-49,-26,30,-3,-41,83,91,-4,-96,-128,-120
-7,-49,-44,24,15,-47,71,79,-4,-96,-116,-102
-12,-61,-44,36,9,-53,71,79,-4,-90,-116,-102
-54,-55,-3,54,-26,-29,89,85,-4,-78,-110,-96
-60,-55,-3,54,-32,-23,89,85,-4,-84,-104,-90
-48,-55,-3,48,-20,-29,83,79,-4,-78,-110,-90
-42,-55,-8,48,-14,-35,83,85,2,-66,-104,-90
-48,-61,-8,54,-14,-35,95,85,8,-72,-98,-90
-48,-67,-14,54,-14,-41,83,79,-4,-78,-104,-96
-42,-55,-8,48,-14,-35,77,73,-9,-78,-110,-96
-36,-61,-20,48,-3,-41,83,67,-4,-84,-122,-108
-42,-67,-20,54,-8,-47,77,61,-4,-84,-110,-102
-54,-79,-20,66,-14,-53,59,67,-4,-84,-110,-102
-42,-85,-38,60,-3,-65,53,55,-15,-90,-122,-102
-24,-73,-44,48,3,-59,47,55,-9,-90,-116,-108
-30,-67,-32,48,-3,-53,59,55,-4,-78,-104,-96
-54,-67,-8,60,-20,-41,59,67,-4,-66,-110,-96
-60,-55,-3,54,-32,-23,77,79,8,-60,-92,-84
-48,-43,-3,42,-26,-17,83,85,8,-54,-92,-84
-42,-55,-8,48,-14,-35,71,67,-4,-72,-104,-84
-30,-61,-26,42,-3,-47,71,61,-4,-66,-98,-78
-7,-25,-26,6,9,-23,65,55,-4,-60,-86,-78
-7,-37,-32,18,9,-35,59,49,-4,-60,-92,-72
-30,-61,-26,42,-3,-47,59,49,-4,-66,-98,-78
-42,-67,-20,54,-8,-47,65,49,-4,-72,-98,-90
-48,-73,-20,60,-8,-47,59,43,-9,-72,-104,-90
-30,-61,-26,42,-3,-47,65,43,-4,-72,-110,-90
-18,-73,-50,42,9,-65,53,43,-4,-78,-110,-102
-30,-97,-62,60,9,-83,47,25,-9,-78,-110,-102
-42,-97,-50,66,-3,-77,59,31,-9,-90,-116,-108
-24,-73,-44,48,3,-59,59,25,-4,-84,-110,-108
-24,-73,-44,48,3,-59,47,31,-4,-78,-98,-96
-42,-67,-20,54,-8,-47,59,43,-4,-72,-86,-84
-30,-61,-26,42,-3,-47,65,37,-9,-72,-92,-84
-24,-67,-38,42,-3,-53,47,31,-15,-78,-98,-102
-42,-67,-20,54,-8,-47,53,43,-15,-78,-92,-96
-48,-61,-8,54,-14,-35,59,55,-9,-72,-92,-90
-30,-67,-32,48,-3,-53,53,37,-9,-90,-110,-108
-30,-61,-26,42,-3,-47,59,43,-9,-84,-104,-108
-42,-67,-20,54,-8,-47,59,37,-4,-78,-104,-102
-36,-73,-32,54,-3,-53,47,19,-15,-96,-116,-114
-36,-73,-32,54,-3,-53,47,19,-27,-96,-116,-114
-48,-73,-20,60,-8,-47,47,13,-27,-90,-116,-108
-42,-73,-26,54,-3,-53,47,7,-21,-96,-122,-114
-12,-73,-56,42,15,-65,29,1,-33,-114,-122,-132
-30,-91,-56,60,3,-77,35,7,-39,-96,-116,-120
-36,-97,-56,66,3,-77,41,25,-21,-84,-110,-108
-30,-79,-44,54,-3,-65,47,31,-15,-84,-104,-108
-24,-79,-50,48,3,-65,47,19,-39,-96,-122,-114
-36,-91,-50,60,-3,-71,53,19,-33,-96,-110,-96
-24,-79,-50,48,3,-65,53,19,-27,-90,-110,-96
-12,-79,-62,42,15,-71,47,13,-27,-84,-104,-102
-24,-79,-50,48,3,-65,29,7,-45,-102,-122,-114
-36,-85,-44,60,-3,-65,35,19,-39,-102,-122,-108
-30,-91,-56,60,3,-77,41,1,-45,-102,-128,-120
-12,-73,-56,42,15,-65,41,1,-39,-96,-116,-102
-18,-55,-32,36,-3,-47,59,25,-15,-78,-104,-90
-36,-67,-26,48,-3,-47,59,13,-27,-84,-110,-96
-18,-73,-50,42,9,-65,53,1,-33,-90,-116,-108
-24,-85,-56,54,9,-71,53,7,-33,-96,-122,-120
-42,-91,-44,66,-3,-71,41,1,-33,-96,-116,-102
-72,-103,-26,84,-20,-65,41,1,-39,-108,-116,-108
-108,-127,-14,114,-44,-71,47,7,-27,-102,-116,-108
-78,-115,-32,96,-20,-77,35,1,-45,-108,-122,-108
-18,-79,-56,48,9,-71,41,1,-39,-102,-116,-108
11,-43,-62,6,33,-53,53,7,-33,-90,-104,-90
5,-61,-74,18,39,-65,47,7,-39,-90,-110,-90
-24,-85,-56,54,9,-71,53,7,-33,-90,-104,-90
-66,-79,-8,72,-26,-47,65,25,-15,-78,-98,-78
-60,-79,-14,66,-20,-47,71,25,-15,-84,-92,-72
-30,-85,-50,54,3,-71,53,1,-39,-108,-110,-90
-42,-91,-44,66,-3,-71,41,-4,-51,-108,-122,-102
-54,-91,-32,72,-8,-65,41,1,-45,-90,-104,-84
-36,-79,-38,54,-3,-59,41,1,-39,-96,-104,-78
-36,-79,-38,54,-3,-59,41,1,-45,-96,-104,-78
-36,-73,-32,54,-3,-53,47,1,-39,-90,-104,-84
-18,-67,-44,42,3,-59,47,1,-33,-90,-104,-78
-24,-73,-44,48,3,-59,47,1,-39,-96,-98,-78
-42,-85,-38,60,-3,-65,47,1,-39,-96,-104,-78
-30,-73,-38,48,-3,-59,53,7,-39,-102,-104,-78
-18,-73,-50,42,9,-65,59,7,-33,-96,-98,-66
-36,-85,-44,60,-3,-65,47,1,-45,-102,-104,-84
-48,-103,-50,72,-3,-77,35,-4,-51,-102,-110,-84
-42,-97,-50,66,-3,-77,35,1,-45,-108,-110,-78
-42,-91,-44,66,-3,-71,41,1,-51,-108,-104,-72
-54,-97,-38,72,-3,-71,41,-10,-57,-114,-104,-84
-54,-97,-38,72,-3,-71,41,-10,-51,-108,-110,-84
-60,-91,-26,72,-14,-59,53,-4,-51,-102,-104,-78
-42,-91,-44,66,-3,-71,41,-10,-57,-108,-104,-90
-36,-85,-44,60,-3,-65,35,-4,-57,-114,-110,-96
-18,-79,-56,48,9,-71,41,1,-51,-108,-104,-78
-12,-61,-44,36,9,-53,35,1,-45,-114,-104,-84
-18,-61,-38,36,3,-53,35,1,-39,-102,-104,-78
-48,-67,-14,54,-14,-41,47,1,-39,-102,-104,-84
-54,-79,-20,66,-14,-53,47,1,-45,-96,-98,-78
-42,-73,-26,54,-3,-53,47,-10,-51,-102,-98,-84
-36,-91,-50,60,-3,-71,47,-10,-51,-96,-104,-90
-54,-103,-44,78,-3,-77,41,-4,-63,-102,-104,-84
-48,-109,-56,78,-3,-83,29,1,-69,-108,-104,-90
-48,-103,-50,72,-3,-77,41,1,-39,-96,-92,-90
-24,-91,-62,54,9,-77,41,1,-45,-102,-98,-90
-7,-73,-62,36,21,-71,47,1,-45,-96,-86,-72
-12,-73,-56,42,15,-65,47,1,-45,-90,-86,-72
-36,-85,-44,60,-3,-65,41,1,-51,-96,-92,-72
-54,-97,-38,72,-3,-71,35,1,-57,-96,-86,-66
-60,-97,-32,78,-8,-65,35,1,-51,-90,-80,-66
-42,-85,-38,60,-3,-65,47,1,-33,-78,-80,-60
-24,-67,-38,42,-3,-53,53,1,-33,-78,-80,-60
-18,-67,-44,42,3,-59,41,-4,-45,-90,-92,-66
-24,-79,-50,48,3,-65,41,-4,-45,-96,-104,-66
-30,-73,-38,48,-3,-59,41,1,-45,-90,-104,-66
-42,-67,-20,54,-8,-47,47,1,-45,-84,-80,-54
-42,-67,-20,54,-8,-47,47,1,-51,-84,-80,-60
-42,-73,-26,54,-3,-53,41,1,-51,-96,-92,-72
-42,-79,-32,60,-3,-59,35,-10,-63,-96,-98,-78
-42,-85,-38,60,-3,-65,41,-4,-57,-90,-98,-72
-36,-85,-44,60,-3,-65,41,-4,-51,-90,-104,-78
-36,-73,-32,54,-3,-53,59,1,-33,-78,-92,-66
-30,-55,-20,42,-3,-41,71,1,-27,-72,-86,-60
-36,-49,-8,42,-8,-29,77,13,-15,-66,-80,-54
-24,-49,-20,36,-3,-35,65,19,-21,-66,-86,-54
-24,-31,-3,24,-8,-17,71,13,-9,-60,-74,-42
-24,-19,-3,18,-14,-6,77,7,-9,-54,-74,-48
-36,-19,9,24,-26,-6,83,19,-4,-54,-62,-36
-24,-8,9,12,-20,-6,71,13,-4,-54,-62,-30
-7,-8,-3,6,-3,-6,77,13,-4,-54,-62,-24
-7,-2,3,6,-3,0,71,31,-4,-42,-56,-18
-7,10,21,6,-14,12,77,31,-4,-36,-50,-13
-7,4,9,6,-3,6,71,25,-4,-42,-50,-18
-7,10,9,1,-3,12,83,31,-4,-36,-44,-13
-12,4,21,6,-14,12,83,19,-4,-36,-50,-18
-18,-8,9,6,-14,-6,77,25,-4,-48,-56,-24
-24,-8,9,12,-20,-6,65,13,-4,-54,-62,-30
-30,-8,21,12,-26,0,71,13,-4,-54,-56,-30
-7,16,27,1,-14,18,83,19,-4,-48,-56,-18
5,34,21,-17,-3,30,95,31,8,-36,-44,-13
-7,34,33,-11,-14,36,83,37,2,-30,-44,-13
-7,52,57,-17,-26,54,83,31,2,-18,-20,-13
17,70,45,-41,-8,60,59,13,-4,-12,-20,-1
35,58,15,-47,3,36,17,1,-4,-24,-32,-7
23,46,15,-35,-3,30,-6,-4,-4,-30,-32,-1
-7,46,45,-17,-20,48,-36,-10,-4,-36,-26,11
-7,34,33,-11,-14,36,-84,-46,-39,-60,-44,-1
-7,22,21,-5,-8,24,-102,-76,-57,-78,-62,-7
-1,16,9,-5,-3,12,-108,-88,-63,-84,-62,-13
-18,10,33,6,-26,18,-102,-76,-69,-84,-62,-13
-24,4,33,6,-26,18,-84,-88,-75,-84,-62,-13
-1,10,3,-5,-3,6,-96,-94,-99,-102,-68,-13
41,34,-3,-35,21,12,-84,-70,-75,-72,-50,-7
65,46,-14,-53,39,12,-66,-46,-51,-60,-32,5
47,22,-20,-35,33,-6,-60,-52,-57,-78,-50,-1
41,-8,-44,-17,45,-17,-60,-70,-75,-90,-62,-7
41,-13,-62,-5,51,-35,-66,-70,-81,-90,-62,-7
29,-37,-74,6,51,-53,-72,-76,-93,-108,-74,-13
23,-37,-68,6,45,-53,-66,-76,-87,-114,-74,-13
53,-13,-74,-11,63,-41,-54,-58,-75,-102,-62,-13
53,-8,-68,-17,57,-35,-42,-46,-69,-90,-56,-7
29,-19,-56,1,39,-35,-30,-40,-69,-90,-62,-13
23,-25,-56,6,39,-41,-30,-40,-63,-84,-56,-13
11,-8,-26,6,15,-17,-6,-22,-39,-66,-44,-7
-1,-8,-3,6,3,-6,5,-16,-27,-60,-44,-13
-1,-19,-26,6,9,-23,-1,-34,-51,-84,-62,-18
-7,-55,-50,24,15,-53,-6,-34,-75,-102,-86,-36
-7,-49,-38,24,9,-47,5,-22,-63,-90,-80,-30
-18,-43,-20,30,-3,-35,5,-16,-51,-84,-68,-18
-60,-73,-8,66,-20,-41,-1,-34,-63,-102,-80,-36
-84,-103,-14,90,-32,-59,-1,-46,-81,-114,-98,-54
-60,-91,-26,72,-14,-59,11,-46,-93,-126,-110,-54
-54,-91,-32,72,-8,-65,11,-46,-87,-132,-110,-60
-66,-103,-32,84,-14,-71,23,-40,-87,-132,-122,-72
-66,-115,-44,90,-8,-83,23,-46,-93,-138,-128,-90
-42,-115,-68,78,3,-95,5,-58,-111,-150,-140,-90
-30,-109,-74,66,15,-95,5,-46,-105,-144,-128,-84
-60,-115,-50,84,-3,-83,17,-34,-87,-138,-122,-72
-96,-127,-26,108,-32,-77,23,-34,-87,-132,-116,-66
-84,-133,-44,108,-14,-89,23,-34,-93,-132,-116,-66
-72,-139,-62,102,-3,-101,17,-40,-99,-138,-128,-84
-78,-139,-56,108,-8,-101,29,-40,-87,-132,-116,-78
-90,-139,-44,114,-20,-95,17,-52,-93,-144,-122,-78
-102,-151,-44,126,-26,-101,35,-28,-75,-132,-116,-72
-90,-127,-32,108,-26,-83,53,-16,-63,-120,-110,-66
-48,-97,-44,72,-3,-71,65,-4,-51,-108,-98,-54
-30,-97,-62,60,9,-83,47,-4,-63,-114,-98,-66
-48,-115,-62,78,-3,-89,35,-10,-75,-126,-116,-78
-48,-121,-68,84,3,-95,35,-16,-81,-132,-122,-72
-60,-121,-56,90,-3,-89,53,1,-69,-108,-110,-66
-78,-109,-26,90,-20,-71,59,1,-57,-96,-92,-72
-60,-115,-50,84,-3,-83,53,-4,-51,-96,-92,-66
-54,-103,-44,78,-3,-77,35,-10,-45,-90,-86,-54
-66,-103,-32,84,-14,-71,17,-4,-33,-78,-86,-54
-66,-103,-32,84,-14,-71,11,1,-4,-60,-68,-48
-42,-85,-38,60,-3,-65,-1,37,50,-24,-50,-36
-36,-67,-26,48,-3,-47,-1,31,86,-1,-32,-18
-7,-31,-20,18,-3,-29,-36,-70,110,53,3,17
-7,-8,-3,6,-3,-6,-138,-334,56,83,51,53
-7,28,39,-5,-20,30,-252,-688,-69,95,99,95
-1,70,63,-35,-26,66,-348,-1078,-249,71,135,143
-1,88,81,-41,-32,84,-486,-1546,-519,5,147,179
-7,106,105,-47,-50,108,-648,-1978,-765,-36,159,209
5,136,123,-71,-50,132,-780,-2356,-921,-42,189,245
29,160,123,-95,-38,144,-930,-2763,-1137,-78,231,293
107,190,75,-149,9,132,-1092,-3099,-1347,-102,279,359
203,220,9,-209,93,114,-1224,-3375,-1551,-114,327,419
251,238,-8,-245,135,114,-1302,-3471,-1677,-108,387,473
317,286,-26,-299,177,126,-1440,-3501,-1773,-84,465,557
413,322,-86,-365,249,114,-1620,-3657,-1971,-108,525,623
509,364,-146,-437,327,108,-1794,-3765,-2103,-60,639,719
641,400,-242,-515,441,78,-1956,-3879,-2241,-12,771,839
737,376,-362,-557,549,0,-2082,-4077,-2504,-96,825,911
815,334,-482,-575,651,-65,-2136,-4173,-2744,-198,831,947
893,334,-554,-611,729,-107,-2208,-4197,-2912,-240,891,1001
899,370,-524,-635,717,-71,-2304,-4275,-3086,-264,969,1079
839,400,-440,-617,639,-11,-2394,-4425,-3308,-330,1035,1151
731,454,-278,-593,507,84,-2477,-4515,-3428,-324,1155,1235
581,538,-38,-557,309,246,-2483,-4419,-3368,-228,1299,1337
461,658,195,-557,129,426,-2412,-4191,-3176,-54,1449,1433
407,766,357,-587,21,564,-2328,-3861,-2900,167,1647,1541
431,892,459,-659,-8,678,-2256,-3525,-2600,401,1857,1673
395,1018,621,-707,-110,822,-2142,-3195,-2295,539,1953,1745
263,1096,825,-683,-272,966,-1938,-2883,-2061,479,1785,1649
119,1084,963,-599,-416,1020,-1680,-2511,-1815,293,1431,1421
5,1012,999,-509,-488,1008,-1428,-2104,-1509,149,1065,1163
-7,862,873,-425,-440,864,-1188,-1690,-1209,-1,711,887
-12,706,723,-341,-368,714,-942,-1342,-1029,-240,351,629
-54,574,633,-251,-344,600,-720,-1072,-873,-390,117,455
-48,466,513,-203,-278,486,-558,-826,-663,-318,69,347
-24,406,435,-185,-230,420,-456,-658,-507,-234,81,299
-42,382,429,-167,-236,402,-390,-544,-435,-186,93,293
-36,316,357,-137,-200,336,-348,-472,-387,-186,57,233
-36,232,267,-89,-152,246,-306,-382,-351,-174,9,167
-72,178,249,-47,-164,216,-258,-298,-303,-168,-9,125
-84,130,219,-17,-152,174,-222,-238,-261,-168,-44,77
-78,88,171,1,-122,126,-168,-184,-225,-174,-80,23
-90,76,171,6,-128,120,-126,-136,-189,-162,-80,11
-120,58,183,24,-152,120,-72,-82,-153,-150,-92,5
-132,28,165,42,-146,96,-6,1,-81,-126,-98,-13
-126,22,153,42,-140,84,17,49,-27,-108,-86,-13
-90,28,123,24,-104,72,53,97,2,-96,-80,-13
-66,10,81,18,-74,42,77,133,20,-96,-92,-24
-78,-25,45,48,-62,0,113,181,56,-78,-98,-42
-54,-55,-3,54,-26,-29,119,223,86,-66,-92,-48
-48,-67,-14,54,-14,-41,131,277,128,-30,-74,-36
-54,-61,-3,54,-20,-35,143,301,158,-12,-74,-36
-42,-49,-3,42,-14,-29,173,325,176,-7,-62,-36
-42,-37,-3,36,-20,-17,191,337,194,-7,-62,-42
-54,-31,15,42,-38,-6,197,355,206,-1,-56,-42
-60,-43,9,48,-38,-11,203,361,212,-7,-68,-42
-66,-61,-3,60,-32,-29,203,373,212,-7,-68,-60
-66,-73,-3,66,-26,-41,197,379,224,-7,-68,-60
-60,-67,-3,60,-26,-35,197,379,230,-1,-74,-66
-54,-61,-3,54,-20,-35,209,391,236,11,-68,-54
-54,-43,3,48,-32,-17,209,397,248,29,-56,-54
-60,-55,-3,54,-32,-23,203,403,236,23,-68,-60
-66,-67,-3,66,-32,-35,203,409,236,17,-80,-72
-48,-67,-14,54,-14,-41,215,427,248,17,-80,-66
-36,-43,-3,36,-14,-23,227,445,278,41,-56,-54
-36,-55,-14,42,-8,-35,239,463,290,41,-62,-48
-42,-67,-20,54,-8,-47,239,469,290,41,-62,-54
-54,-73,-14,60,-14,-47,239,469,296,41,-56,-54
-48,-85,-32,66,-3,-59,239,457,290,29,-62,-60
-42,-79,-32,60,-3,-59,239,469,290,41,-50,-54
-42,-67,-20,54,-8,-47,233,457,284,41,-50,-60
-54,-67,-8,60,-20,-41,239,463,290,47,-50,-48
-54,-73,-14,60,-14,-47,239,469,296,53,-56,-42
-42,-73,-26,54,-3,-53,245,475,302,53,-56,-42
-42,-79,-32,60,-3,-59,245,475,308,59,-62,-54
-48,-91,-38,66,-3,-65,251,487,314,53,-62,-60
-54,-85,-26,66,-8,-59,245,505,326,59,-56,-42
-54,-91,-32,72,-8,-65,245,505,326,53,-50,-48
-48,-85,-32,66,-3,-59,245,499,320,53,-56,-54
-48,-91,-38,66,-3,-65,245,499,314,53,-56,-42
-66,-109,-38,84,-8,-77,239,493,320,59,-50,-54
-72,-103,-26,84,-20,-65,239,499,326,65,-50,-60
-90,-91,-3,90,-44,-47,251,511,326,71,-44,-54
-90,-97,-3,90,-38,-53,257,517,326,65,-56,-60
-54,-73,-14,60,-14,-47,263,523,344,71,-50,-60
-30,-49,-14,36,-3,-35,275,547,356,83,-38,-42
-24,-55,-26,36,-3,-41,269,547,362,83,-38,-48
-36,-49,-8,42,-8,-29,269,547,362,71,-44,-54
-48,-37,3,42,-26,-11,275,559,374,89,-38,-42
-30,-31,-3,30,-14,-17,281,577,386,101,-26,-30
-24,-43,-14,30,-3,-29,263,571,380,95,-32,-42
-48,-55,-3,48,-20,-29,257,565,368,83,-56,-60
-36,-55,-14,42,-8,-35,269,577,386,89,-44,-48
-30,-55,-20,42,-3,-41,281,589,386,89,-44,-54
-72,-79,-3,72,-32,-41,275,595,392,89,-50,-66
-78,-91,-8,84,-32,-53,281,595,392,83,-56,-72
-60,-67,-3,60,-26,-35,287,613,410,101,-38,-60
-60,-61,-3,60,-26,-29,287,625,416,101,-32,-60
-42,-49,-3,42,-14,-29,293,631,422,107,-32,-54
-30,-49,-14,36,-3,-35,287,625,416,101,-32,-60
-54,-49,-3,48,-26,-23,287,637,434,113,-32,-48
-66,-43,15,54,-44,-11,293,643,446,113,-26,-42
-54,-37,9,42,-32,-11,305,655,452,125,-20,-42
-24,-43,-14,30,-3,-29,299,661,446,113,-26,-60
-42,-55,-8,48,-14,-35,305,673,458,119,-38,-60
-30,-37,-3,30,-8,-23,311,679,470,119,-32,-60
-18,-43,-20,30,-3,-35,317,697,470,131,-32,-60
-24,-43,-14,30,-3,-29,311,703,476,119,-38,-66
-24,-43,-14,30,-3,-29,311,703,482,131,-32,-72
-36,-55,-14,42,-8,-35,323,727,488,149,-26,-54
-48,-55,-3,48,-20,-29,317,733,494,149,-32,-60
-54,-61,-3,54,-20,-35,329,739,506,155,-26,-60
-48,-55,-3,48,-20,-29,341,757,512,155,-20,-60
-48,-55,-3,48,-20,-29,347,775,518,161,-26,-54
-36,-49,-8,42,-8,-29,341,781,530,155,-26,-54
-30,-49,-14,36,-3,-35,359,805,548,167,-14,-48
-18,-49,-26,30,-3,-41,365,811,560,179,-14,-48
-36,-61,-20,48,-3,-41,371,835,578,179,-14,-48
-36,-55,-14,42,-8,-35,371,847,584,191,-14,-42
-18,-55,-32,36,-3,-47,377,859,584,185,-14,-54
-7,-49,-44,24,15,-47,359,853,590,185,-14,-60
-18,-37,-14,24,-3,-29,383,877,608,209,-9,-48
-30,-25,-3,24,-14,-11,401,907,626,221,-9,-36
-18,-31,-8,24,-3,-23,407,925,638,221,-9,-48
-7,-19,-20,6,3,-17,413,943,656,227,-9,-54
5,-19,-32,6,15,-23,419,955,662,227,-9,-54
-12,-37,-20,24,-3,-29,419,973,674,233,-9,-54
-24,-43,-14,30,-3,-29,419,991,692,239,-9,-54
-18,-43,-20,30,-3,-35,419,1009,710,245,-9,-54
-12,-55,-38,30,3,-47,419,1015,704,245,-9,-60
-7,-43,-38,18,9,-41,425,1021,716,263,3,-48
-7,-31,-26,12,3,-29,431,1039,728,275,3,-36
-18,-43,-20,30,-3,-35,437,1045,734,281,3,-42
-7,-49,-38,24,9,-47,449,1075,752,287,3,-42
11,-25,-44,6,27,-35,449,1093,776,293,9,-36
35,-13,-56,-5,45,-35,449,1105,788,299,9,-36
35,-19,-62,1,45,-41,449,1123,806,311,21,-36
35,-19,-62,1,45,-41,467,1141,830,329,39,-24
41,-13,-62,-5,51,-35,455,1147,836,335,39,-24
29,-13,-50,1,39,-29,449,1153,848,341,39,-24
35,-8,-50,-5,39,-29,455,1165,854,359,51,-18
47,-8,-50,-17,51,-23,455,1177,866,371,51,-13
47,-8,-62,-11,51,-35,443,1177,866,365,45,-30
47,-31,-86,1,63,-59,437,1183,884,377,51,-30
53,-19,-80,-11,63,-47,437,1183,890,389,57,-24
59,-25,-92,-11,75,-59,425,1177,896,383,51,-30
71,-19,-98,-17,81,-59,425,1183,896,389,51,-30
77,-13,-98,-23,87,-53,419,1183,908,395,63,-30
47,-25,-80,-5,63,-53,407,1183,914,407,63,-24
59,-13,-80,-17,69,-47,401,1183,914,413,75,-13
107,4,-98,-53,105,-41,401,1177,932,431,93,-7
131,10,-116,-71,123,-47,395,1165,932,437,93,-1
125,-8,-134,-53,129,-65,383,1141,920,449,99,5
101,-13,-122,-35,111,-65,377,1135,926,449,105,5
89,-13,-110,-29,99,-59,377,1123,932,461,111,23
101,-13,-122,-35,111,-65,365,1105,926,467,123,35
113,-13,-134,-41,123,-71,335,1081,908,461,117,29
125,-8,-140,-53,129,-71,311,1045,896,455,117,17
119,-13,-140,-47,129,-77,299,1027,896,473,135,29
125,-8,-134,-53,129,-65,275,997,890,479,135,35
131,-8,-134,-59,135,-65,257,973,890,479,141,41
155,16,-134,-83,147,-53,251,955,884,479,159,59
185,34,-146,-107,165,-47,239,919,860,467,159,59
179,28,-146,-101,165,-53,215,877,830,455,147,47
161,4,-152,-83,159,-65,191,835,812,455,147,59
167,10,-152,-89,159,-65,179,787,788,443,153,65
173,22,-146,-95,159,-53,167,757,770,443,159,71
161,28,-128,-95,147,-41,155,745,752,443,165,77
149,22,-122,-83,135,-41,143,721,728,443,177,95
149,16,-128,-83,141,-47,113,667,680,413,159,95
143,10,-128,-77,135,-53,95,631,644,395,159,95
155,22,-128,-89,141,-47,83,583,614,377,153,95
149,10,-134,-77,141,-53,71,547,584,359,147,95
131,10,-116,-71,123,-47,59,511,548,341,135,77
119,10,-104,-65,111,-41,59,481,512,323,135,83
107,4,-98,-53,105,-41,71,451,482,311,135,95
113,10,-98,-59,105,-35,53,409,452,281,117,83
101,10,-86,-53,93,-29,53,379,422,257,105,77
101,22,-74,-59,87,-17,41,349,374,239,87,71
89,28,-56,-59,75,-6,41,319,350,227,93,77
59,10,-44,-35,51,-11,29,283,308,215,81,71
53,10,-38,-29,45,-6,35,253,278,191,75,77
53,4,-44,-29,51,-11,41,235,260,167,63,71
47,-8,-50,-17,51,-23,41,205,236,143,39,59
53,-2,-50,-23,51,-17,23,175,194,113,21,47
53,-2,-50,-23,51,-17,35,163,176,101,21,41
41,10,-26,-23,33,-6,47,151,158,95,27,47
23,4,-14,-11,21,-6,41,127,146,77,15,47
5,-8,-14,6,9,-6,41,103,116,65,-3,29
-7,-8,-3,6,-3,-6,47,91,92,47,-9,35
-12,-8,3,6,-8,-6,59,79,80,35,-9,41
-7,4,9,6,-3,6,47,61,62,23,-9,35
-7,-8,3,6,-3,-6,53,55,50,11,-14,23
-18,-8,3,12,-14,-6,53,43,38,-1,-26,17
-24,-13,3,18,-14,-6,47,31,26,-7,-32,23
-36,-19,9,24,-26,-6,65,37,20,-12,-32,17
-24,-13,3,18,-14,-6,71,43,14,-12,-32,23
-12,-8,-3,6,-8,-6,65,19,2,-30,-38,17
-18,-19,-3,18,-8,-11,59,7,-4,-36,-50,11
-42,-19,15,30,-32,-6,59,7,-4,-48,-50,5
-42,-13,21,24,-32,-6,71,13,-4,-36,-44,11
-42,-8,27,24,-38,0,83,13,-9,-36,-44,11
-48,-19,21,30,-38,-6,77,1,-15,-48,-56,5
-42,-25,9,30,-26,-6,77,1,-33,-60,-62,-13
-54,-37,9,42,-32,-11,71,-4,-39,-66,-68,-13
-36,-31,-3,30,-20,-11,59,1,-45,-72,-74,-13
-24,-31,-3,24,-8,-17,53,-4,-51,-84,-86,-13
-48,-43,-3,42,-26,-17,59,-4,-51,-84,-80,-18
-72,-43,21,54,-50,-6,77,1,-39,-72,-80,-18
-72,-19,45,42,-62,6,83,1,-33,-60,-68,-13
-48,-8,45,18,-44,18,83,1,-27,-60,-74,-13
-24,22,51,6,-38,36,101,1,-9,-54,-56,-7
-36,4,45,6,-38,24,101,1,-21,-66,-68,-13
-54,-8,39,30,-50,6,95,1,-39,-78,-74,-18
-60,-8,45,30,-56,12,89,25,-21,-72,-74,-13
-60,-13,39,36,-50,6,83,19,-21,-84,-86,-13
-54,-19,27,36,-44,-6,77,7,-27,-84,-92,-18
-66,-13,45,36,-56,6,77,1,-33,-84,-92,-18
-48,-8,39,24,-44,12,77,7,-33,-90,-92,-24
-54,-8,39,30,-50,6,83,7,-45,-90,-80,-30
-66,-19,39,42,-56,0,83,13,-39,-78,-80,-18
-60,-19,33,36,-50,0,83,7,-45,-84,-86,-24
-66,-19,39,42,-56,0,89,13,-33,-72,-80,-24
-60,-19,33,36,-50,0,77,7,-39,-78,-92,-30
-60,-19,33,36,-50,0,77,1,-45,-96,-98,-30
-54,-19,27,36,-44,-6,77,7,-45,-96,-98,-30
-54,-19,27,36,-44,-6,77,7,-39,-96,-92,-30
-60,-13,39,36,-50,6,83,19,-33,-90,-86,-36
-60,-13,39,36,-50,6,95,25,-33,-84,-80,-36
-54,-13,33,30,-44,0,95,25,-39,-84,-74,-36
-54,-8,39,30,-50,6,89,31,-39,-84,-74,-36
-60,-13,39,36,-50,6,95,31,-39,-84,-80,-48
-54,-19,27,36,-44,-6,101,25,-33,-90,-86,-54
-60,-13,39,36,-50,6,101,37,-27,-84,-80,-54
-84,-19,57,48,-74,12,95,43,-21,-78,-86,-48
-78,-25,45,48,-62,0,95,31,-33,-96,-92,-60
-66,-25,33,42,-50,-6,89,25,-33,-108,-104,-60
-78,-19,51,48,-68,6,95,37,-21,-96,-98,-54
-84,-19,57,48,-74,12,89,37,-15,-90,-86,-54
-66,-19,39,42,-56,0,83,31,-33,-96,-98,-60
-66,-13,45,36,-56,6,71,25,-33,-90,-104,-66
-72,-19,45,42,-62,6,71,25,-39,-96,-104,-72
-78,-19,51,48,-68,6,83,31,-33,-102,-110,-72
-66,-13,45,36,-56,6,95,49,-21,-90,-110,-66
-60,-8,45,30,-56,12,107,55,-9,-84,-98,-66
-60,-8,45,30,-56,12,95,55,-21,-90,-98,-66
-54,-8,45,24,-50,12,95,49,-21,-96,-104,-66
-42,-13,21,24,-32,-6,83,37,-21,-96,-104,-78
-78,-25,45,48,-62,0,89,49,-15,-96,-98,-66
-96,-31,57,60,-80,6,101,67,-9,-90,-98,-60
-84,-25,51,54,-68,6,95,55,-15,-84,-98,-54
-72,-25,39,48,-56,0,89,49,-21,-84,-98,-66
-84,-31,45,54,-68,0,95,55,-15,-90,-104,-78
-102,-43,51,72,-80,-6,101,61,-4,-90,-110,-78
-78,-19,51,48,-68,6,101,67,-4,-84,-98,-72
-54,-8,39,30,-50,6,113,73,2,-78,-98,-72
-48,-13,27,30,-38,0,107,61,-4,-90,-104,-84
-42,-19,15,30,-32,-6,95,61,2,-90,-104,-96
-54,-31,15,42,-38,-6,95,73,8,-84,-110,-96
-66,-43,15,54,-44,-11,95,73,-4,-90,-110,-102
-60,-37,15,48,-38,-6,83,55,-4,-96,-122,-114
-60,-31,21,42,-44,-6,95,55,-4,-84,-110,-102
-72,-19,45,42,-62,6,113,67,2,-72,-98,-96
-84,-19,57,48,-74,12,107,91,14,-66,-86,-90
-96,-25,63,60,-80,12,119,115,26,-54,-80,-78
-114,-31,75,72,-98,12,125,121,44,-54,-74,-66
-102,-49,45,72,-74,-6,101,97,26,-72,-92,-84
-90,-31,51,60,-74,0,101,91,26,-66,-86,-84
-78,-13,57,42,-68,12,113,97,38,-54,-74,-78
-66,-13,45,36,-56,6,101,91,38,-60,-86,-90
-66,-25,33,42,-50,-6,101,91,38,-48,-80,-78
-66,-25,33,42,-50,-6,95,91,32,-54,-74,-72
-72,-31,33,48,-56,-6,89,85,14,-66,-80,-78
-72,-19,45,42,-62,6,95,85,20,-66,-80,-84
-78,-25,45,48,-62,0,95,85,20,-66,-92,-84
-96,-25,63,60,-80,12,95,85,26,-60,-86,-78
-102,-31,63,66,-86,6,95,85,26,-60,-80,-78
-84,-31,45,54,-68,0,89,85,32,-66,-86,-84
-66,-31,27,48,-50,-6,95,85,26,-60,-86,-78
-66,-8,51,36,-62,12,101,85,32,-48,-74,-60
-60,-19,33,36,-50,0,95,79,26,-48,-74,-66
-72,-31,33,48,-56,-6,89,73,14,-60,-74,-66
-84,-43,33,60,-62,-6,101,79,26,-54,-68,-54
-66,-37,21,48,-44,-6,89,73,20,-60,-74,-66
-84,-43,33,60,-62,-6,83,79,14,-60,-68,-60
-90,-43,39,66,-68,-6,89,79,20,-60,-68,-60
-60,-25,27,42,-44,-6,83,73,14,-66,-80,-72
-60,-31,21,42,-44,-6,83,67,8,-66,-80,-72
-66,-49,9,54,-38,-17,83,61,2,-66,-92,-84
-60,-37,15,48,-38,-6,77,61,-4,-72,-86,-78
-84,-37,39,60,-62,-6,77,67,14,-66,-80,-72
-102,-37,57,66,-80,0,83,67,20,-54,-74,-66
-96,-37,51,66,-74,0,83,55,8,-60,-74,-72
-84,-37,39,60,-62,-6,71,55,2,-66,-92,-78
-78,-37,33,54,-56,-6,65,49,-4,-72,-92,-78
-66,-37,21,48,-44,-6,71,49,-4,-78,-92,-78
-66,-25,33,42,-50,-6,71,49,-4,-78,-92,-72
-78,-31,39,54,-62,-6,65,37,-4,-78,-92,-72
-72,-25,39,48,-56,0,71,43,-9,-84,-86,-72
-60,-19,33,36,-50,0,77,37,-4,-78,-86,-60
-66,-25,33,42,-50,-6,77,31,-4,-78,-86,-66
-60,-25,27,42,-44,-6,65,25,-4,-84,-92,-78
-78,-43,27,60,-56,-6,71,31,-4,-78,-86,-72
-90,-55,27,72,-62,-11,71,37,-4,-72,-74,-60
-84,-37,39,60,-62,-6,71,43,-4,-72,-74,-54
-84,-49,27,66,-56,-6,65,43,-4,-84,-86,-66
-72,-49,15,60,-44,-11,53,31,-4,-90,-98,-66
-66,-49,9,54,-38,-17,59,25,-4,-78,-86,-66
-72,-43,21,54,-50,-6,59,31,-4,-78,-80,-72
-66,-43,15,54,-44,-11,59,31,-4,-72,-80,-66
-54,-31,15,42,-38,-6,53,19,-9,-78,-86,-72
-30,-25,-3,24,-14,-11,53,19,-9,-90,-92,-78
-48,-43,-3,42,-26,-17,47,13,-21,-102,-98,-84
-72,-37,27,54,-50,-6,53,25,-9,-90,-98,-84
-108,-31,69,66,-92,12,65,25,-9,-78,-92,-78
-90,-37,45,60,-68,-6,71,31,-9,-72,-80,-78
-54,-49,-3,48,-26,-23,53,7,-15,-96,-104,-84
-90,-67,15,78,-56,-23,53,1,-21,-96,-104,-96
-144,-91,45,114,-98,-17,59,19,-9,-90,-92,-84
-126,-85,33,102,-80,-23,59,19,-21,-102,-92,-84
-66,-67,-3,66,-32,-35,47,7,-27,-108,-98,-90
-66,-55,3,60,-38,-23,47,1,-45,-108,-104,-102
-72,-43,21,54,-50,-6,59,7,-33,-96,-98,-90
-84,-25,51,54,-68,6,77,31,-9,-78,-80,-66
-90,-43,39,66,-68,-6,77,19,-15,-84,-86,-84
-78,-61,9,66,-44,-23,59,1,-27,-108,-104,-96
-78,-49,21,60,-50,-11,59,7,-21,-102,-98,-90
-60,-25,27,42,-44,-6,59,13,-15,-90,-92,-84
-36,-8,21,18,-32,0,77,13,-9,-84,-74,-78
-54,-25,21,36,-38,-6,71,13,-15,-84,-80,-84
-78,-49,21,60,-50,-11,59,7,-27,-90,-92,-90
-96,-49,39,72,-68,-6,59,7,-15,-84,-86,-96
-96,-49,39,72,-68,-6,65,13,-15,-90,-86,-96
-72,-37,27,54,-50,-6,59,7,-21,-96,-86,-102
-72,-37,27,54,-50,-6,53,1,-39,-96,-98,-108
-72,-49,15,60,-44,-11,47,1,-39,-108,-104,-114
-84,-55,21,66,-56,-11,53,1,-33,-114,-104,-114
-90,-73,9,78,-50,-29,47,1,-27,-102,-98,-114
-84,-61,15,72,-50,-17,41,1,-45,-108,-104,-114
-78,-55,15,66,-50,-17,41,1,-39,-108,-98,-114
-66,-43,15,54,-44,-11,47,1,-27,-96,-86,-108
-60,-49,3,54,-32,-17,47,1,-27,-96,-92,-114
-72,-37,27,54,-50,-6,59,7,-21,-90,-80,-108
-66,-37,21,48,-44,-6,53,1,-21,-96,-98,-120
-72,-43,21,54,-50,-6,53,1,-15,-96,-92,-120
-66,-43,15,54,-44,-11,53,1,-27,-102,-104,-132
-60,-49,3,54,-32,-17,47,1,-33,-120,-104,-132
-60,-43,9,48,-38,-11,53,1,-33,-120,-110,-138
-60,-43,9,48,-38,-11,53,1,-39,-120,-104,-138
-90,-49,33,66,-62,-6,53,1,-39,-114,-104,-138
-84,-43,33,60,-62,-6,53,1,-39,-108,-92,-132
-72,-31,33,48,-56,-6,59,1,-27,-90,-98,-126
-78,-37,33,54,-56,-6,65,7,-27,-84,-92,-126
-72,-37,27,54,-50,-6,59,13,-27,-84,-86,-120
-72,-43,21,54,-50,-6,59,7,-27,-90,-86,-120
-66,-43,15,54,-44,-11,59,7,-21,-90,-92,-132
-78,-61,9,66,-44,-23,47,1,-33,-108,-104,-144
-102,-79,15,90,-62,-29,47,1,-39,-108,-110,-144
-108,-79,21,90,-68,-23,59,1,-39,-108,-104,-150
-102,-79,15,90,-62,-29,59,1,-33,-102,-98,-150
-102,-79,15,90,-62,-29,47,1,-39,-108,-98,-156
-90,-73,9,78,-50,-29,35,1,-45,-108,-110,-162
-84,-73,3,78,-44,-29,29,1,-51,-120,-116,-168
-72,-61,3,66,-38,-23,35,1,-51,-114,-116,-156
-60,-55,-3,54,-32,-23,41,1,-51,-114,-116,-162
-66,-49,9,54,-38,-17,59,7,-33,-96,-104,-138
-66,-49,9,54,-38,-17,59,7,-33,-90,-92,-132
-60,-49,3,54,-32,-17,47,7,-33,-96,-98,-132
-54,-49,-3,48,-26,-23,47,1,-33,-90,-98,-138
-48,-49,-3,48,-20,-23,41,1,-39,-96,-104,-144
-72,-55,9,60,-44,-17,41,1,-45,-90,-98,-144
-90,-55,27,72,-62,-11,53,1,-33,-90,-92,-138
-90,-61,21,72,-56,-17,53,1,-33,-96,-98,-138
-78,-61,9,66,-44,-23,41,1,-45,-102,-116,-144
-78,-61,9,66,-44,-23,47,-4,-45,-114,-110,-156
-66,-49,9,54,-38,-17,53,1,-45,-114,-104,-150
-72,-49,15,60,-44,-11,47,1,-51,-114,-110,-156
-84,-61,15,72,-50,-17,41,1,-45,-108,-104,-144
-102,-73,21,84,-62,-23,35,-4,-51,-114,-110,-156
-114,-85,21,96,-68,-29,41,-10,-51,-108,-116,-156
-90,-79,3,84,-50,-35,23,-16,-63,-114,-116,-162
-66,-67,-3,66,-32,-35,23,-16,-57,-114,-116,-150
-72,-49,15,60,-44,-11,47,-10,-45,-96,-104,-144
-72,-31,33,48,-56,-6,59,1,-33,-90,-98,-138
-60,-31,21,42,-44,-6,59,-4,-27,-90,-92,-138
-90,-43,39,66,-68,-6,65,1,-33,-90,-92,-138
-84,-43,33,60,-62,-6,71,1,-33,-84,-98,-150
-54,-31,15,42,-38,-6,59,1,-33,-96,-110,-156
-66,-37,21,48,-44,-6,59,7,-27,-90,-104,-150
-72,-19,45,42,-62,6,65,19,-9,-78,-86,-126
-54,-2,57,18,-56,24,77,25,-4,-60,-74,-102
-48,10,63,12,-56,36,89,31,-4,-60,-68,-102
-42,4,51,12,-44,24,95,31,-4,-54,-74,-108
-54,4,63,18,-56,30,89,37,-4,-54,-74,-108
-60,-2,63,24,-62,30,89,43,2,-60,-68,-114
-54,10,69,12,-62,36,83,31,2,-54,-74,-108
-48,10,63,12,-56,36,89,25,2,-60,-68,-102
-54,10,69,12,-62,36,83,25,-4,-60,-80,-102
-42,16,63,6,-50,36,77,13,-4,-66,-86,-108
-30,28,63,6,-44,42,77,13,-4,-60,-80,-102
-30,34,69,6,-50,48,71,7,-4,-66,-80,-114
-30,22,57,6,-44,36,65,13,-4,-60,-80,-108
-36,22,63,6,-50,42,71,13,-4,-60,-74,-102
-60,34,99,6,-80,66,89,25,8,-48,-62,-84
-72,46,123,6,-98,84,107,37,8,-42,-56,-78
-48,64,117,1,-80,90,119,49,20,-36,-44,-66
-18,76,99,-23,-56,84,95,37,8,-42,-44,-66
-7,82,93,-29,-50,84,59,19,-4,-48,-62,-72
-7,100,111,-41,-56,102,41,7,-4,-42,-50,-60
-7,94,99,-41,-50,96,-1,1,-4,-42,-44,-54
-18,82,105,-23,-62,90,-30,-4,-4,-42,-44,-48
-18,70,93,-17,-56,78,-60,-28,-15,-54,-44,-42
-12,58,75,-17,-44,66,-84,-46,-39,-66,-56,-54
-24,46,75,-5,-50,60,-102,-64,-63,-90,-74,-60
-30,46,81,1,-56,60,-96,-76,-69,-96,-80,-66
-30,52,87,-5,-56,66,-108,-100,-87,-114,-98,-78
-18,34,57,1,-38,42,-114,-106,-105,-120,-104,-78
-7,34,39,-11,-20,36,-102,-106,-93,-108,-92,-72
-7,40,39,-17,-14,42,-84,-82,-75,-102,-80,-66
-7,40,51,-11,-26,42,-66,-58,-69,-96,-68,-60
-12,28,45,1,-26,36,-60,-58,-75,-96,-62,-48
-7,4,3,1,-3,6,-60,-76,-93,-96,-86,-54
5,-8,-8,1,9,-6,-60,-70,-93,-108,-86,-60
5,-8,-14,6,9,-6,-54,-52,-81,-120,-92,-60
5,-8,-8,1,9,-6,-48,-40,-69,-108,-92,-48
11,-2,-8,-5,9,-6,-42,-40,-75,-108,-92,-54
-12,-8,3,6,-8,-6,-42,-40,-81,-114,-86,-54
-24,-8,9,12,-20,-6,-30,-40,-63,-102,-86,-60
-12,16,33,6,-20,24,-24,-40,-51,-102,-80,-60
-7,46,51,-17,-26,48,-1,-16,-33,-84,-68,-48
-7,22,27,-5,-14,24,-1,-10,-33,-84,-74,-54
-30,-2,33,6,-32,12,5,-10,-51,-90,-86,-60
-66,-19,39,42,-56,0,17,-4,-45,-96,-92,-72
-60,-43,9,48,-38,-11,5,-16,-63,-114,-104,-78
-66,-61,-3,60,-32,-29,-1,-46,-87,-126,-122,-90
-108,-85,15,96,-62,-29,-1,-52,-99,-126,-134,-102
-144,-103,33,120,-92,-29,23,-34,-81,-132,-128,-90
-120,-103,9,108,-68,-41,23,-22,-75,-126,-140,-96
-66,-91,-20,78,-20,-59,11,-28,-93,-138,-152,-114
-84,-97,-8,90,-32,-53,11,-34,-87,-138,-146,-114
-126,-109,9,114,-68,-47,17,-34,-99,-144,-146,-114
-108,-97,3,102,-56,-41,17,-40,-99,-150,-152,-120
-84,-79,-3,78,-44,-35,29,-40,-87,-144,-152,-120
-72,-73,-3,72,-32,-35,35,-28,-87,-132,-158,-120
-78,-73,-3,72,-38,-35,35,-10,-75,-132,-152,-114
-78,-85,-3,78,-32,-47,35,-10,-69,-132,-146,-114
-78,-97,-14,84,-26,-59,29,-10,-75,-138,-146,-120
-78,-103,-20,90,-26,-65,29,-4,-81,-144,-140,-114
-72,-103,-26,84,-20,-65,29,-16,-93,-144,-152,-120
-84,-103,-14,90,-32,-59,29,-16,-87,-138,-146,-114
-102,-103,-3,102,-50,-53,29,-10,-81,-132,-134,-108
-114,-97,9,102,-62,-41,47,-4,-69,-126,-122,-102
-102,-85,9,90,-56,-35,65,1,-51,-108,-110,-90
-102,-91,3,96,-56,-41,65,1,-63,-108,-116,-90
-108,-91,9,96,-62,-35,59,1,-51,-108,-110,-90
-84,-85,-3,84,-38,-41,59,1,-57,-114,-116,-102
-90,-91,-3,90,-44,-47,59,7,-57,-108,-110,-90
-90,-91,-3,90,-44,-47,41,1,-51,-114,-110,-96
-108,-91,9,96,-62,-35,41,1,-33,-90,-104,-96
-108,-91,9,96,-62,-35,29,1,-15,-84,-92,-84
-84,-73,3,78,-44,-29,5,19,-4,-72,-86,-84
-78,-61,9,66,-44,-23,11,79,50,-30,-68,-72
-54,-37,9,42,-32,-11,5,79,110,11,-26,-48
-24,-8,9,12,-20,-6,-42,-52,110,47,-3,-13
-30,4,39,6,-32,18,-132,-328,50,77,45,11
-24,34,63,1,-44,48,-234,-658,-63,95,93,59
-18,76,99,-23,-56,84,-348,-1030,-231,77,135,107
-24,100,129,-29,-74,114,-498,-1480,-501,11,147,137
-12,106,123,-41,-68,114,-642,-1888,-735,-12,159,173
-7,160,165,-71,-80,162,-762,-2266,-885,-12,225,245
23,208,177,-113,-68,192,-912,-2691,-1113,-42,267,311
95,232,129,-161,-8,180,-1074,-3069,-1335,-60,315,365
143,232,87,-191,21,162,-1188,-3381,-1563,-96,363,419
203,244,39,-227,75,144,-1260,-3501,-1707,-126,393,449
281,298,9,-287,135,156,-1416,-3591,-1851,-126,453,515
377,346,-26,-359,207,156,-1578,-3741,-2043,-120,537,605
479,406,-74,-443,279,162,-1740,-3831,-2169,-60,669,713
623,460,-164,-539,393,144,-1926,-3981,-2349,-48,783,827
725,454,-266,-587,495,90,-2022,-4179,-2624,-132,837,911
779,418,-362,-599,573,24,-2064,-4251,-2846,-222,867,953
845,412,-434,-629,639,-6,-2148,-4293,-3038,-276,915,1007
815,436,-380,-623,597,24,-2232,-4389,-3218,-318,987,1091
749,478,-272,-611,513,96,-2298,-4545,-3452,-384,1077,1181
647,532,-110,-587,381,210,-2358,-4611,-3584,-384,1197,1265
479,616,129,-545,177,372,-2364,-4503,-3524,-312,1299,1349
377,742,363,-557,3,552,-2286,-4221,-3296,-132,1473,1445
359,856,489,-605,-62,678,-2232,-3867,-3014,89,1689,1565
347,958,603,-653,-122,780,-2184,-3543,-2720,293,1881,1685
299,1084,777,-695,-236,936,-2046,-3231,-2438,383,1911,1709
179,1144,963,-659,-386,1050,-1842,-2913,-2205,275,1677,1565
35,1114,1071,-575,-512,1092,-1620,-2541,-1953,101,1287,1313
-24,1006,1035,-485,-530,1020,-1380,-2116,-1611,-12,915,1037
-36,838,879,-395,-458,858,-1134,-1684,-1293,-144,567,767
-78,688,765,-299,-422,726,-900,-1348,-1095,-372,225,521
-126,556,687,-215,-404,618,-690,-1054,-885,-432,45,347
-126,460,585,-161,-356,516,-522,-808,-675,-336,33,263
-96,406,501,-149,-296,456,-438,-646,-549,-258,39,227
-72,376,453,-149,-260,414,-378,-556,-483,-222,27,203
-84,304,393,-107,-242,348,-330,-472,-423,-210,3,149
-84,250,339,-77,-212,294,-294,-388,-369,-204,-20,95
-72,214,285,-65,-182,246,-246,-322,-321,-186,-38,59
-66,166,237,-41,-152,198,-204,-244,-261,-180,-68,23
-78,136,219,-23,-146,174,-162,-178,-225,-186,-104,-13
-96,130,231,-11,-164,180,-120,-124,-195,-180,-116,-36
-120,94,219,6,-170,156,-66,-46,-135,-156,-116,-36
-150,52,207,42,-176,126,-6,13,-69,-132,-116,-60
-138,40,183,42,-158,108,23,61,-27,-132,-116,-72
-126,28,159,42,-140,90,35,91,-9,-132,-110,-78
-132,-2,135,60,-134,66,59,139,20,-108,-116,-96
-144,-25,111,84,-128,36,95,187,50,-96,-116,-102
-114,-49,57,78,-86,-6,107,235,74,-72,-110,-108
-96,-67,21,78,-62,-17,119,265,122,-36,-98,-102
-96,-61,27,78,-62,-11,137,301,152,-12,-86,-90
-84,-43,33,60,-62,-6,155,325,176,-7,-74,-84
-72,-25,39,48,-56,0,173,337,182,-7,-80,-102
-66,-31,27,48,-50,-6,173,337,188,-18,-104,-126
-54,-25,21,36,-38,-6,179,337,194,-18,-98,-120
-90,-55,27,72,-62,-11,191,361,206,-7,-92,-114
-132,-73,51,102,-92,-6,185,361,224,-7,-92,-120
-120,-61,51,90,-86,-6,203,379,236,5,-68,-114
-72,-37,27,54,-50,-6,203,385,236,17,-56,-108
-72,-37,27,54,-50,-6,221,397,242,23,-56,-102
-72,-37,27,54,-50,-6,221,397,242,17,-68,-120
-60,-31,21,42,-44,-6,233,415,254,35,-62,-114
-54,-37,9,42,-32,-11,227,433,266,35,-68,-120
-60,-43,9,48,-38,-11,233,445,278,35,-74,-126
-48,-31,9,36,-32,-6,233,445,284,29,-68,-126
-36,-19,9,24,-26,-6,239,463,284,35,-62,-114
-72,-55,9,60,-44,-17,227,457,278,29,-74,-132
-96,-67,21,78,-62,-17,227,451,272,23,-74,-132
-60,-43,9,48,-38,-11,221,457,272,29,-62,-114
-60,-43,9,48,-38,-11,209,457,272,35,-68,-114
-78,-49,21,60,-50,-11,221,457,278,47,-68,-120
-102,-67,27,84,-68,-17,221,457,278,41,-62,-114
-84,-73,3,78,-44,-29,227,463,290,41,-62,-114
-48,-55,-3,48,-20,-29,239,475,308,47,-68,-114
-48,-37,3,42,-26,-11,239,481,320,59,-50,-108
-42,-55,-8,48,-14,-35,239,487,314,47,-56,-108
-48,-67,-14,54,-14,-41,227,487,308,35,-68,-120
-78,-67,3,72,-44,-29,233,493,320,47,-50,-102
-72,-61,3,66,-38,-23,239,493,314,59,-38,-96
-66,-67,-3,66,-32,-35,239,499,314,59,-50,-108
-60,-67,-3,60,-26,-35,227,499,314,59,-62,-114
-54,-55,-3,54,-26,-29,239,499,326,71,-56,-102
-42,-43,-3,42,-20,-23,251,529,350,83,-44,-96
-36,-43,-3,36,-14,-23,257,535,356,77,-50,-102
-36,-49,-8,42,-8,-29,251,535,362,77,-44,-108
-36,-49,-8,42,-8,-29,245,529,356,71,-50,-114
-54,-61,-3,54,-20,-35,251,547,368,77,-44,-102
-78,-61,9,66,-44,-23,257,559,368,89,-38,-84
-66,-61,-3,60,-32,-29,251,553,362,83,-38,-90
-54,-55,-3,54,-26,-29,251,553,368,89,-44,-96
-48,-55,-3,48,-20,-29,263,571,380,95,-38,-96
-30,-61,-26,42,-3,-47,257,571,386,89,-44,-96
-36,-67,-26,48,-3,-47,257,577,386,83,-50,-102
-42,-61,-14,48,-8,-41,269,595,398,101,-50,-102
-72,-55,9,60,-44,-17,293,625,428,125,-20,-78
-78,-67,3,72,-44,-29,281,619,428,113,-32,-84
-54,-67,-8,60,-20,-41,275,619,428,107,-32,-90
-36,-49,-8,42,-8,-29,269,613,416,101,-32,-90
-36,-49,-8,42,-8,-29,263,613,410,95,-32,-84
-30,-31,-3,30,-14,-17,275,631,428,125,-32,-84
-36,-31,-3,30,-20,-11,287,649,440,131,-26,-78
-48,-49,-3,48,-20,-23,293,655,452,131,-26,-66
-24,-61,-32,42,-3,-47,293,655,452,125,-32,-72
-30,-67,-32,48,-3,-53,305,673,470,143,-32,-72
-48,-67,-14,54,-14,-41,299,673,470,131,-26,-72
-60,-85,-20,72,-14,-53,299,679,476,137,-26,-72
-54,-91,-32,72,-8,-65,293,685,476,131,-38,-84
-48,-91,-38,66,-3,-65,287,703,482,143,-38,-78
-42,-67,-20,54,-8,-47,305,727,488,155,-20,-66
-42,-67,-20,54,-8,-47,305,727,494,161,-26,-72
-42,-67,-20,54,-8,-47,305,733,506,173,-26,-78
-36,-61,-20,48,-3,-41,317,745,518,179,-14,-66
-7,-49,-38,24,9,-47,335,781,542,191,-14,-66
-7,-49,-44,24,15,-47,329,793,548,185,-32,-78
-7,-55,-56,24,21,-53,323,805,554,179,-26,-78
17,-43,-68,6,39,-53,323,811,566,185,-20,-72
-12,-43,-26,24,-3,-35,335,817,578,203,-14,-60
-42,-55,-8,48,-14,-35,341,829,590,203,-9,-66
-24,-49,-20,36,-3,-35,335,835,584,197,-9,-60
-12,-43,-26,24,-3,-35,335,847,602,203,-9,-66
-12,-31,-14,18,-3,-23,341,859,608,209,-20,-78
-1,-13,-20,6,9,-17,347,859,608,209,-14,-90
-7,-31,-26,12,3,-29,353,877,626,209,-14,-90
-18,-49,-26,30,-3,-41,347,883,632,209,-26,-108
-7,-37,-26,18,3,-35,353,913,644,221,-14,-96
-12,-43,-26,24,-3,-35,359,937,656,227,-9,-96
-7,-49,-38,24,9,-47,359,943,656,233,-20,-108
-1,-43,-50,12,21,-47,353,943,668,233,-20,-108
17,-31,-56,6,33,-41,359,961,680,239,-9,-90
23,-13,-44,1,33,-29,371,973,704,257,-9,-84
5,-19,-32,6,15,-23,371,985,704,257,-9,-102
11,-31,-50,6,27,-41,365,997,722,263,-9,-96
23,-25,-56,6,39,-41,371,1021,740,281,-3,-84
5,-25,-38,6,21,-29,383,1045,764,299,9,-84
17,-25,-50,6,33,-35,377,1051,776,299,9,-90
59,-8,-74,-17,63,-41,383,1075,794,317,33,-78
59,-8,-62,-23,63,-29,389,1093,818,341,51,-66
29,-8,-38,-5,33,-17,395,1099,830,347,57,-54
59,-2,-56,-29,57,-23,389,1099,818,347,57,-60
65,-8,-68,-29,69,-29,383,1099,842,359,51,-66
41,-8,-50,-11,45,-23,383,1117,848,377,51,-72
53,-8,-62,-17,57,-29,395,1129,872,389,63,-54
59,-8,-68,-23,63,-35,395,1135,878,389,57,-54
65,-8,-68,-29,69,-29,395,1153,896,407,69,-48
95,-2,-92,-47,93,-41,383,1135,896,401,69,-60
89,-8,-104,-35,93,-53,371,1123,896,401,75,-54
77,-25,-110,-17,93,-65,365,1141,914,419,93,-42
89,-13,-110,-29,99,-59,347,1141,908,425,93,-30
101,-8,-110,-41,105,-53,341,1141,902,431,99,-36
101,-8,-110,-41,105,-53,335,1129,908,443,111,-24
113,10,-98,-59,105,-35,341,1123,908,455,123,-18
149,16,-128,-83,141,-47,323,1099,908,455,129,-13
161,4,-152,-83,159,-65,311,1081,908,461,129,-18
137,-2,-134,-65,135,-59,305,1069,914,467,135,-13
119,4,-110,-59,117,-47,299,1063,926,479,147,-1
113,-8,-122,-47,117,-59,287,1039,914,479,159,11
119,-13,-140,-47,129,-77,263,1009,896,473,165,17
131,-8,-146,-53,135,-77,245,973,890,473,165,23
131,-8,-140,-59,135,-71,233,955,872,479,177,41
119,-8,-122,-53,123,-59,227,937,878,485,195,59
125,-8,-128,-59,129,-59,209,901,854,491,195,53
149,4,-140,-77,147,-59,197,883,842,485,195,53
155,10,-140,-83,147,-59,191,859,830,479,195,71
149,10,-134,-77,141,-53,173,823,812,479,195,65
155,10,-140,-83,147,-59,155,781,782,467,189,59
149,-8,-158,-65,153,-77,131,733,752,443,177,53
149,-8,-164,-65,153,-83,113,697,722,437,183,59
173,-8,-176,-83,177,-83,107,661,698,431,189,65
179,16,-158,-95,171,-65,95,631,668,431,201,77
155,22,-128,-89,141,-47,95,601,644,425,201,95
167,28,-134,-95,153,-47,77,553,596,401,183,83
149,16,-128,-83,141,-47,53,517,560,377,171,83
125,10,-110,-65,117,-41,53,487,530,353,165,83
119,-2,-116,-59,117,-53,53,439,494,323,147,71
89,-13,-110,-29,99,-59,47,403,458,299,147,71
47,-31,-86,1,63,-59,47,385,434,287,141,71
41,-25,-74,1,57,-47,41,361,398,257,129,59
77,-8,-86,-29,81,-41,35,319,368,239,117,59
101,22,-74,-59,87,-17,41,295,338,227,111,71
89,22,-62,-53,75,-11,41,271,308,215,111,77
65,4,-56,-35,63,-17,23,223,266,173,75,53
47,-2,-44,-23,45,-17,11,193,236,137,51,35
59,10,-44,-35,51,-11,35,199,224,137,57,41
47,-2,-44,-23,45,-17,35,187,200,119,57,41
41,-8,-56,-11,45,-29,29,169,170,89,39,35
17,-19,-44,6,27,-29,29,151,158,77,33,35
29,-8,-38,-5,33,-17,29,121,128,59,21,17
-7,-8,-3,6,-3,-6,41,103,98,41,21,23
-24,-8,9,12,-20,-6,35,85,74,29,9,11
-7,-8,-3,6,-3,-6,35,85,62,17,-3,5
-7,-8,-3,6,-3,-6,35,73,50,5,-9,-1
-1,-8,-14,6,3,-11,41,67,32,-7,-14,-1
-12,-19,-3,12,-3,-11,47,55,14,-12,-26,-13
-42,-37,-3,36,-20,-17,71,55,14,-18,-26,-7
-48,-31,9,36,-32,-6,71,55,8,-30,-20,-13
-42,-43,-3,42,-20,-23,59,37,-4,-42,-26,-13
-36,-37,-3,36,-14,-17,71,37,-4,-48,-26,-13
-30,-37,-3,30,-8,-23,65,19,-9,-66,-38,-13
-30,-37,-3,30,-8,-23,53,7,-39,-72,-50,-18
-36,-43,-3,36,-14,-23,59,1,-39,-66,-44,-13
-66,-61,-3,60,-32,-29,65,7,-33,-72,-50,-18
-90,-61,21,72,-56,-17,71,13,-39,-72,-56,-36
-60,-43,9,48,-38,-11,83,31,-39,-66,-56,-30
-42,-37,-3,36,-20,-17,77,19,-45,-84,-68,-36
-48,-49,-3,48,-20,-23,77,7,-51,-102,-80,-54
-54,-61,-3,54,-20,-35,71,1,-45,-102,-74,-54
-48,-55,-3,48,-20,-29,71,1,-57,-108,-74,-48
-48,-55,-3,48,-20,-29,59,-4,-57,-114,-80,-48
-72,-67,-3,66,-38,-29,59,-10,-69,-120,-86,-54
-120,-73,39,96,-80,-11,77,1,-57,-102,-74,-42
-108,-61,39,84,-74,-6,83,1,-57,-96,-74,-36
-66,-67,-3,66,-32,-35,71,1,-69,-108,-86,-48
-48,-61,-8,54,-14,-35,77,1,-69,-108,-80,-42
-48,-73,-20,60,-8,-47,77,1,-75,-120,-80,-48
-60,-67,-3,60,-26,-35,83,19,-69,-126,-86,-42
-78,-61,9,66,-44,-23,89,25,-51,-114,-86,-36
-72,-61,3,66,-38,-23,101,31,-45,-102,-74,-36
-66,-61,-3,60,-32,-29,89,19,-51,-114,-74,-30
-78,-67,3,72,-44,-29,77,19,-63,-120,-80,-30
-78,-67,3,72,-44,-29,77,31,-57,-108,-80,-24
-72,-55,9,60,-44,-17,83,31,-57,-102,-74,-30
-72,-55,9,60,-44,-17,83,25,-57,-102,-74,-36
-78,-61,9,66,-44,-23,95,25,-57,-108,-86,-36
-84,-73,3,78,-44,-29,101,19,-51,-108,-92,-42
-78,-73,-3,72,-38,-35,95,19,-51,-120,-92,-54
-66,-79,-8,72,-26,-47,89,19,-51,-126,-92,-54
-66,-79,-8,72,-26,-47,89,19,-57,-126,-98,-54
-84,-85,-3,84,-38,-41,89,7,-63,-138,-104,-54
-72,-67,-3,66,-38,-29,71,7,-69,-144,-110,-60
-42,-55,-8,48,-14,-35,83,13,-69,-126,-104,-60
-54,-61,-3,54,-20,-35,95,31,-51,-108,-98,-54
-78,-67,3,72,-44,-29,95,31,-51,-114,-98,-54
-66,-67,-3,66,-32,-35,83,31,-57,-120,-98,-66
-78,-67,3,72,-44,-29,95,31,-51,-114,-104,-72
-96,-73,15,84,-56,-23,101,43,-33,-120,-98,-66
-78,-49,21,60,-50,-11,113,61,-21,-114,-86,-42
-72,-55,9,60,-44,-17,113,55,-21,-108,-80,-36
-90,-85,-3,84,-44,-41,101,37,-33,-114,-92,-48
-90,-79,3,84,-50,-35,83,37,-39,-120,-104,-54
-90,-61,21,72,-56,-17,89,43,-39,-114,-92,-36
-72,-49,15,60,-44,-11,95,55,-33,-108,-92,-36
-84,-61,15,72,-50,-17,107,61,-27,-108,-98,-48
-84,-73,3,78,-44,-29,89,61,-33,-114,-104,-54
-54,-73,-14,60,-14,-47,101,61,-27,-114,-98,-48
-42,-67,-20,54,-8,-47,101,67,-9,-102,-92,-48
-54,-61,-3,54,-20,-35,95,67,-4,-102,-92,-60
-66,-67,-3,66,-32,-35,101,67,-4,-102,-86,-60
-60,-67,-3,60,-26,-35,101,67,-9,-102,-92,-60
-84,-73,3,78,-44,-29,89,79,-9,-96,-92,-54
-108,-67,33,84,-74,-11,101,91,-4,-78,-80,-36
-96,-61,27,78,-62,-11,119,91,-4,-72,-80,-36
-78,-61,9,66,-44,-23,107,73,-4,-96,-86,-54
-84,-67,9,72,-50,-23,113,79,-4,-96,-98,-54
-72,-61,3,66,-38,-23,113,79,2,-90,-92,-42
-48,-61,-8,54,-14,-35,107,85,2,-90,-92,-48
-66,-91,-20,78,-20,-59,101,73,-4,-108,-98,-60
-78,-97,-14,84,-26,-59,95,85,-4,-96,-98,-54
-96,-73,15,84,-56,-23,101,91,20,-78,-80,-42
-84,-73,3,78,-44,-29,95,85,8,-72,-80,-48
-78,-79,-3,78,-38,-41,89,91,2,-78,-80,-42
-90,-91,-3,90,-44,-47,95,115,14,-60,-74,-42
-96,-79,9,84,-56,-29,101,115,26,-54,-62,-36
-96,-73,15,84,-56,-23,101,121,26,-60,-68,-36
-78,-79,-3,78,-38,-41,95,109,26,-66,-68,-54
-66,-73,-3,66,-26,-41,101,103,20,-72,-74,-54
-48,-67,-14,54,-14,-41,107,109,26,-72,-74,-54
-36,-61,-20,48,-3,-41,101,109,32,-66,-74,-66
-42,-67,-20,54,-8,-47,95,103,38,-66,-74,-60
-72,-73,-3,72,-32,-35,101,109,38,-54,-74,-54
-72,-79,-3,72,-32,-41,95,109,32,-66,-74,-60
-72,-79,-3,72,-32,-41,101,109,26,-60,-74,-66
-78,-79,-3,78,-38,-41,101,109,32,-66,-80,-66
-60,-67,-3,60,-26,-35,107,109,26,-60,-68,-60
-60,-73,-8,66,-20,-41,107,109,38,-54,-68,-60
-72,-91,-14,78,-26,-53,101,115,38,-54,-74,-66
-72,-103,-26,84,-20,-65,89,91,32,-72,-80,-78
-72,-103,-26,84,-20,-65,89,97,20,-66,-74,-66
-42,-91,-44,66,-3,-71,77,85,20,-66,-74,-72
-42,-91,-44,66,-3,-71,71,79,14,-72,-80,-72
-66,-97,-26,78,-14,-65,77,85,26,-60,-80,-66
-78,-91,-8,84,-32,-53,95,97,38,-42,-68,-54
-66,-79,-8,72,-26,-47,101,103,38,-48,-62,-48
-60,-85,-20,72,-14,-53,89,103,32,-54,-68,-48
-84,-103,-14,90,-32,-59,95,109,44,-54,-68,-48
-66,-97,-26,78,-14,-65,107,103,32,-54,-68,-54
-42,-79,-32,60,-3,-59,107,91,32,-60,-68,-54
-54,-79,-20,66,-14,-53,101,97,32,-54,-68,-54
-60,-91,-26,72,-14,-59,89,85,26,-60,-74,-60
-54,-85,-26,66,-8,-59,59,79,8,-66,-80,-66
-48,-85,-32,66,-3,-59,59,79,8,-66,-74,-60
-42,-73,-26,54,-3,-53,71,79,2,-66,-74,-60
-90,-85,-3,84,-44,-41,71,73,8,-66,-80,-66
-102,-85,9,90,-56,-35,71,85,14,-60,-74,-66
-60,-97,-32,78,-8,-65,71,73,2,-84,-92,-78
-48,-97,-44,72,-3,-71,77,67,-4,-90,-98,-78
-24,-73,-44,48,3,-59,77,67,-4,-90,-92,-72
-42,-85,-38,60,-3,-65,89,79,2,-72,-80,-60
-72,-109,-32,90,-14,-71,77,61,-4,-84,-92,-66
-66,-103,-32,84,-14,-71,65,55,-4,-90,-104,-66
-30,-97,-62,60,9,-83,59,55,-4,-90,-98,-66
-24,-79,-50,48,3,-65,59,67,-4,-90,-104,-72
-48,-79,-26,60,-8,-53,77,73,8,-78,-92,-66
-66,-97,-26,78,-14,-65,77,79,2,-72,-92,-66
-54,-103,-44,78,-3,-77,77,67,-4,-90,-92,-72
-66,-97,-26,78,-14,-65,83,67,-4,-84,-86,-66
-78,-97,-14,84,-26,-59,71,49,-4,-90,-86,-72
-60,-103,-38,78,-8,-71,77,61,-4,-78,-86,-60
-36,-91,-50,60,-3,-71,65,55,-4,-90,-86,-66
-48,-97,-44,72,-3,-71,59,55,-4,-84,-86,-66
-72,-109,-32,90,-14,-71,71,61,-4,-78,-74,-54
-84,-115,-26,96,-26,-71,71,61,-4,-78,-80,-60
-78,-109,-26,90,-20,-71,59,49,-9,-96,-92,-78
-60,-91,-26,72,-14,-59,65,61,-4,-84,-92,-66
-66,-85,-14,72,-20,-53,83,67,-4,-84,-86,-60
-66,-91,-20,78,-20,-59,77,49,-4,-90,-98,-78
-30,-91,-56,60,3,-77,65,49,-9,-96,-104,-78
-48,-91,-38,66,-3,-65,59,37,-21,-102,-110,-72
-60,-103,-38,78,-8,-71,53,31,-27,-102,-110,-78
-60,-103,-38,78,-8,-71,53,43,-21,-96,-98,-72
-60,-103,-38,78,-8,-71,53,49,-9,-90,-92,-66
-66,-103,-32,84,-14,-71,59,49,-9,-84,-92,-72
-54,-103,-44,78,-3,-77,59,49,-9,-96,-98,-78
-54,-103,-44,78,-3,-77,65,43,-21,-96,-98,-72
-66,-109,-38,84,-8,-77,71,37,-21,-102,-104,-72
-66,-109,-38,84,-8,-77,65,31,-27,-102,-104,-78
-54,-103,-44,78,-3,-77,65,37,-21,-96,-92,-66
-54,-91,-32,72,-8,-65,59,43,-15,-90,-98,-60
-48,-97,-44,72,-3,-71,53,37,-21,-108,-110,-72
-36,-97,-56,66,3,-77,47,43,-27,-96,-104,-66
-12,-79,-62,42,15,-71,53,37,-21,-102,-104,-72
-36,-79,-38,54,-3,-59,53,43,-15,-96,-104,-72
-48,-91,-38,66,-3,-65,53,37,-21,-96,-98,-78
-66,-103,-32,84,-14,-71,53,31,-27,-96,-104,-78
-78,-91,-8,84,-32,-53,65,31,-33,-108,-110,-84
-84,-91,-3,84,-38,-47,71,37,-33,-102,-110,-90
-84,-97,-8,90,-32,-53,65,43,-21,-102,-110,-84
-72,-91,-14,78,-26,-53,65,37,-27,-96,-110,-72
-72,-91,-14,78,-26,-53,65,25,-27,-102,-104,-72
-66,-85,-14,72,-20,-53,47,25,-39,-114,-110,-72
-54,-85,-26,66,-8,-59,47,31,-27,-102,-104,-84
-66,-103,-32,84,-14,-71,59,31,-21,-90,-110,-78
-48,-97,-44,72,-3,-71,53,25,-33,-102,-116,-84
-48,-85,-32,66,-3,-59,59,19,-33,-96,-104,-72
-42,-73,-26,54,-3,-53,65,31,-27,-96,-98,-72
-18,-61,-38,36,3,-53,65,31,-21,-108,-104,-72
-36,-79,-38,54,-3,-59,59,37,-27,-114,-110,-84
-48,-91,-38,66,-3,-65,47,25,-39,-114,-116,-96
-42,-85,-38,60,-3,-65,53,25,-39,-114,-122,-96
-48,-91,-38,66,-3,-65,35,7,-39,-114,-122,-102
-66,-91,-20,78,-20,-59,35,13,-27,-108,-110,-84
-66,-85,-14,72,-20,-53,53,25,-33,-102,-104,-78
-60,-97,-32,78,-8,-65,47,13,-45,-114,-122,-90
-60,-109,-44,84,-3,-77,47,19,-51,-114,-122,-102
-54,-91,-32,72,-8,-65,47,19,-45,-120,-128,-96
-66,-79,-8,72,-26,-47,53,25,-45,-114,-116,-96
-90,-91,-3,90,-44,-47,59,19,-27,-108,-104,-84
-78,-79,-3,78,-38,-41,65,19,-39,-108,-104,-78
-42,-73,-26,54,-3,-53,65,13,-33,-102,-98,-78
-48,-73,-20,60,-8,-47,53,13,-45,-108,-104,-78
-48,-79,-26,60,-8,-53,47,13,-39,-108,-110,-78
-42,-73,-26,54,-3,-53,47,7,-51,-108,-116,-90
-42,-73,-26,54,-3,-53,53,13,-45,-108,-110,-96
-54,-79,-20,66,-14,-53,53,25,-27,-108,-110,-90
-36,-91,-50,60,-3,-71,53,37,-27,-108,-110,-84
-36,-73,-32,54,-3,-53,53,31,-33,-102,-110,-84
-54,-79,-20,66,-14,-53,53,25,-27,-108,-98,-84
-60,-85,-20,72,-14,-53,53,25,-33,-108,-98,-90
-54,-85,-26,66,-8,-59,41,19,-45,-114,-110,-90
-66,-85,-14,72,-20,-53,41,1,-51,-126,-122,-96
-66,-85,-14,72,-20,-53,41,7,-39,-120,-110,-102
-66,-85,-14,72,-20,-53,53,25,-33,-96,-98,-90
-66,-85,-14,72,-20,-53,53,13,-39,-108,-104,-96
-42,-85,-38,60,-3,-65,65,13,-45,-120,-116,-108
-24,-61,-32,42,-3,-47,71,25,-27,-114,-116,-108
-24,-43,-14,30,-3,-29,83,37,-9,-96,-98,-90
-42,-67,-20,54,-8,-47,77,25,-9,-102,-92,-90
-36,-61,-20,48,-3,-41,77,31,-15,-96,-92,-90
-42,-25,9,30,-26,-6,101,49,-4,-72,-80,-72
-24,-2,27,6,-26,12,101,49,2,-54,-50,-54
-18,10,33,6,-26,18,107,67,14,-48,-50,-54
-30,-2,33,6,-32,12,95,67,14,-48,-62,-60
-30,-8,21,12,-26,0,77,37,-4,-66,-80,-72
-24,-8,21,6,-20,6,77,37,-4,-66,-80,-72
-18,-8,9,6,-14,-6,71,37,-4,-66,-86,-78
-24,-8,15,12,-20,0,77,37,-4,-78,-98,-78
-7,-8,3,6,-3,-6,71,25,-9,-84,-104,-96
-24,-2,27,6,-26,12,77,25,-4,-84,-92,-78
-18,-2,21,6,-20,6,77,19,-4,-78,-80,-66
-12,28,45,1,-26,36,77,31,-4,-72,-80,-66
-12,34,51,-5,-32,42,89,49,8,-54,-68,-60
-7,40,51,-11,-26,42,107,61,8,-54,-62,-54
-30,28,63,6,-44,42,101,61,14,-54,-62,-66
-48,34,87,6,-68,60,89,49,14,-48,-68,-54
-12,64,81,-17,-44,72,77,31,2,-48,-62,-48
-1,88,81,-41,-32,84,47,13,8,-54,-56,-36
5,76,63,-41,-20,72,-1,1,-4,-60,-56,-42
-7,52,57,-17,-26,54,-30,-4,-4,-66,-62,-48
-12,46,63,-11,-38,54,-54,-16,-21,-66,-56,-42
-7,52,57,-17,-26,54,-84,-40,-39,-72,-62,-42
-7,52,51,-23,-20,54,-108,-64,-57,-96,-86,-54
-1,40,33,-17,-8,36,-96,-64,-57,-96,-80,-48
-1,46,39,-23,-14,42,-102,-70,-69,-102,-86,-54
-7,46,51,-17,-26,48,-90,-64,-75,-102,-80,-42
11,28,9,-17,-3,18,-90,-64,-75,-114,-86,-42
29,22,-3,-23,15,6,-90,-64,-81,-114,-98,-48
47,10,-32,-29,39,-6,-72,-58,-87,-114,-92,-48
47,-8,-50,-17,51,-23,-72,-52,-87,-114,-92,-42
29,-8,-44,-5,33,-23,-66,-52,-81,-120,-86,-36
23,-8,-38,1,27,-23,-60,-40,-69,-120,-86,-36
29,-8,-44,-5,33,-23,-60,-46,-75,-126,-92,-42
29,-8,-44,-5,33,-23,-48,-46,-75,-126,-98,-54
11,-19,-38,6,21,-29,-36,-28,-63,-120,-86,-48
-1,-19,-26,6,9,-23,-24,-10,-45,-102,-80,-36
-7,-13,-14,6,3,-11,-12,-4,-45,-90,-80,-48
-12,-13,-3,12,-3,-6,-1,1,-39,-90,-74,-54
-30,-25,-3,24,-14,-11,5,1,-39,-96,-86,-54
-30,-37,-3,30,-8,-23,11,-10,-51,-108,-104,-78
-18,-55,-32,36,-3,-47,17,1,-45,-108,-104,-84
-24,-85,-56,54,9,-71,-1,-16,-69,-126,-116,-102
-30,-91,-56,60,3,-77,-6,-40,-87,-144,-128,-108
-30,-85,-50,54,3,-71,-6,-46,-99,-150,-134,-96
-30,-91,-56,60,3,-77,-1,-46,-99,-150,-140,-120
-66,-109,-38,84,-8,-77,11,-28,-87,-144,-134,-120
-84,-121,-32,102,-20,-77,23,-4,-69,-138,-134,-126
-72,-121,-44,96,-8,-83,23,-10,-81,-150,-140,-132
-84,-145,-56,114,-8,-101,23,-22,-87,-168,-146,-144
-84,-133,-44,108,-14,-89,29,-16,-81,-162,-152,-138
-60,-115,-50,84,-3,-83,35,-10,-81,-144,-134,-120
-36,-103,-62,66,3,-83,41,-16,-87,-144,-134,-120
-48,-109,-56,78,-3,-83,29,-10,-93,-150,-146,-126
-60,-121,-56,90,-3,-89,35,-4,-81,-138,-134,-120
-42,-115,-68,78,3,-95,35,-10,-69,-144,-146,-126
-24,-109,-80,66,21,-95,35,-4,-81,-150,-146,-126
-42,-121,-74,78,9,-101,47,1,-75,-138,-146,-132
-54,-121,-62,84,-3,-95,41,1,-75,-144,-146,-138
-72,-115,-38,90,-14,-77,47,13,-63,-138,-140,-132
-78,-127,-44,102,-14,-89,59,7,-69,-132,-134,-120
-84,-139,-50,108,-14,-95,59,1,-69,-126,-134,-120
-72,-133,-56,102,-3,-95,47,1,-81,-132,-146,-138
-66,-127,-56,96,-3,-95,53,1,-75,-132,-134,-126
-60,-121,-56,90,-3,-89,59,19,-51,-120,-128,-114
-66,-121,-50,90,-3,-89,53,13,-57,-120,-140,-126
-72,-127,-50,96,-8,-89,53,1,-51,-120,-140,-126
-66,-121,-50,90,-3,-89,53,7,-51,-114,-134,-126
-54,-115,-56,84,-3,-89,35,1,-51,-108,-122,-126
-42,-115,-68,78,3,-95,17,1,-27,-102,-116,-120
-36,-109,-68,72,9,-89,17,31,2,-72,-98,-108
-24,-91,-62,54,9,-77,11,61,44,-48,-92,-102
-12,-73,-56,42,15,-65,-1,67,86,-12,-68,-90
-42,-43,-3,42,-20,-23,-24,-10,122,35,-9,-42
-36,-8,21,18,-32,0,-96,-256,74,83,45,-1
-24,28,57,6,-38,42,-204,-628,-63,89,87,35
-12,64,81,-17,-44,72,-324,-1036,-273,65,117,83
-7,88,93,-35,-44,90,-480,-1522,-579,5,135,125
-12,118,135,-47,-74,126,-612,-1942,-825,-36,159,173
5,166,153,-83,-68,162,-732,-2260,-963,-24,225,227
47,202,147,-125,-44,174,-876,-2637,-1161,-30,273,275
83,226,135,-155,-20,180,-1020,-2973,-1359,-30,339,365
149,244,93,-197,21,174,-1152,-3285,-1593,-48,405,431
203,262,57,-233,69,162,-1224,-3453,-1779,-72,435,479
257,304,39,-281,105,174,-1350,-3537,-1905,-72,501,551
359,370,3,-365,177,192,-1524,-3669,-2103,-78,579,629
509,448,-62,-479,285,192,-1704,-3759,-2229,-30,693,719
659,478,-176,-569,417,150,-1890,-3873,-2391,-7,837,857
683,478,-206,-575,447,132,-1968,-4035,-2636,-60,915,959
713,460,-248,-581,483,102,-1986,-4107,-2864,-144,933,995
785,442,-344,-611,567,42,-2034,-4125,-3050,-198,981,1037
797,466,-332,-629,567,60,-2136,-4215,-3248,-246,1059,1115
719,508,-206,-611,465,150,-2196,-4377,-3452,-294,1155,1199
563,556,-3,-557,285,270,-2244,-4461,-3596,-300,1251,1271
431,640,207,-533,111,426,-2262,-4371,-3530,-228,1377,1355
329,736,405,-533,-32,570,-2232,-4113,-3296,-30,1545,1451
323,838,507,-581,-86,678,-2202,-3783,-2996,203,1755,1565
365,976,609,-671,-116,792,-2142,-3447,-2678,431,1959,1691
311,1102,783,-707,-236,948,-2016,-3159,-2385,491,1971,1697
173,1138,963,-653,-392,1050,-1830,-2865,-2169,377,1695,1529
41,1102,1053,-569,-500,1080,-1602,-2505,-1923,191,1275,1253
-24,1006,1035,-485,-530,1020,-1374,-2098,-1599,35,873,959
-42,832,879,-389,-464,852,-1140,-1690,-1305,-114,519,695
-66,688,753,-305,-410,720,-912,-1360,-1119,-360,171,455
-78,568,651,-239,-362,606,-696,-1054,-903,-432,-9,287
-78,454,531,-185,-302,486,-540,-808,-693,-348,-14,221
-72,376,453,-149,-260,414,-426,-628,-537,-270,-3,173
-66,340,411,-131,-242,372,-360,-520,-459,-222,-9,149
-48,274,327,-107,-188,300,-306,-430,-375,-198,-9,107
-54,220,273,-77,-164,240,-258,-340,-321,-180,-26,65
-66,190,255,-53,-164,222,-216,-268,-285,-168,-50,29
-66,130,201,-23,-134,162,-186,-214,-243,-168,-92,-13
-48,106,159,-23,-104,132,-156,-172,-219,-186,-122,-48
-66,118,189,-17,-128,150,-120,-142,-195,-180,-146,-72
-96,76,177,6,-134,126,-72,-70,-147,-174,-146,-78
-90,40,135,18,-110,84,-18,1,-87,-156,-152,-90
-66,28,99,12,-80,60,-1,37,-51,-150,-158,-120
-60,4,69,18,-62,36,29,73,-21,-144,-170,-126
-72,-13,51,42,-62,12,65,133,8,-126,-164,-126
-108,-73,27,90,-68,-17,107,193,62,-90,-146,-126
-90,-103,-8,96,-38,-59,125,229,98,-66,-134,-126
-54,-91,-32,72,-8,-65,125,259,122,-48,-128,-126
-54,-85,-26,66,-8,-59,137,295,164,-12,-104,-114
-66,-67,-3,66,-32,-35,161,331,194,-1,-92,-108
-60,-61,-3,60,-26,-29,179,343,206,5,-92,-108
-42,-49,-3,42,-14,-29,197,355,224,5,-86,-108
-18,-37,-14,24,-3,-29,203,361,236,5,-92,-114
-30,-55,-20,42,-3,-41,209,373,236,-7,-98,-120
-36,-61,-20,48,-3,-41,215,373,236,-1,-92,-114
-36,-67,-26,48,-3,-47,209,373,242,11,-92,-126
-36,-79,-38,54,-3,-59,215,373,236,5,-92,-132
-30,-79,-44,54,-3,-65,203,391,242,11,-92,-132
-36,-73,-32,54,-3,-53,215,403,254,17,-92,-126
-30,-85,-50,54,3,-71,215,415,266,23,-92,-132
-7,-79,-68,42,21,-77,215,421,272,23,-92,-138
-7,-67,-56,36,15,-65,221,439,284,35,-86,-120
-7,-61,-50,30,15,-59,239,445,302,47,-68,-114
-30,-91,-56,60,3,-77,239,457,302,47,-68,-114
-48,-115,-62,78,-3,-89,233,445,290,35,-80,-120
-42,-103,-56,72,-3,-83,233,451,290,41,-74,-126
-30,-85,-50,54,3,-71,239,445,290,41,-62,-126
-30,-85,-50,54,3,-71,221,457,290,53,-68,-120
-30,-85,-50,54,3,-71,209,457,296,47,-74,-132
-18,-85,-62,48,15,-77,215,463,302,53,-80,-132
-7,-67,-56,36,15,-65,221,463,314,65,-68,-132
-18,-67,-44,42,3,-59,227,475,320,59,-74,-138
-30,-79,-44,54,-3,-65,245,487,338,65,-74,-138
-42,-85,-38,60,-3,-65,245,493,344,71,-68,-132
-24,-85,-56,54,9,-71,245,487,338,71,-68,-132
-7,-79,-68,42,21,-77,239,487,332,71,-68,-132
-7,-73,-62,36,21,-71,239,487,338,77,-56,-126
-18,-79,-56,48,9,-71,233,493,338,77,-56,-120
-18,-73,-50,42,9,-65,239,499,344,89,-44,-120
-24,-67,-38,42,-3,-53,245,517,362,95,-38,-108
-18,-73,-50,42,9,-65,245,511,362,89,-50,-114
-36,-85,-44,60,-3,-65,239,511,362,83,-68,-126
-42,-91,-44,66,-3,-71,245,517,374,89,-56,-126
-30,-97,-62,60,9,-83,251,529,380,83,-56,-126
-24,-103,-74,60,15,-89,245,517,368,77,-62,-132
-36,-109,-68,72,9,-89,239,523,368,77,-68,-138
-12,-91,-74,48,21,-83,239,523,374,89,-56,-132
-12,-73,-56,42,15,-65,251,547,386,107,-50,-108
-7,-49,-44,24,15,-47,263,559,398,119,-38,-102
-7,-49,-50,18,21,-47,263,553,404,119,-44,-108
-7,-61,-50,30,15,-59,257,547,398,113,-56,-120
-7,-67,-56,36,15,-65,263,571,422,119,-50,-120
-7,-67,-68,30,27,-65,275,577,428,119,-50,-120
-7,-67,-68,30,27,-65,275,589,434,119,-44,-114
-7,-79,-68,42,21,-77,275,595,446,113,-50,-120
-7,-85,-74,42,27,-83,281,601,440,119,-44,-126
-7,-73,-68,36,27,-71,281,595,440,125,-38,-120
-18,-73,-50,42,9,-65,281,607,452,143,-32,-114
-36,-67,-26,48,-3,-47,281,625,452,149,-32,-114
-24,-67,-38,42,-3,-53,281,643,464,155,-38,-114
-7,-73,-62,36,21,-71,281,649,464,143,-56,-132
-7,-73,-62,36,21,-71,281,661,470,143,-62,-132
-7,-73,-74,30,33,-71,287,649,476,143,-50,-132
-7,-79,-80,36,33,-77,299,667,482,149,-50,-138
-7,-79,-74,36,27,-77,299,679,494,155,-38,-120
-7,-61,-62,24,27,-59,311,703,500,167,-32,-114
-1,-67,-74,24,33,-71,311,703,500,173,-44,-120
5,-61,-74,18,39,-65,299,703,506,173,-44,-108
-7,-49,-50,18,21,-47,311,721,518,185,-26,-90
-12,-55,-38,30,3,-47,311,733,530,185,-32,-96
-7,-67,-56,36,15,-65,317,733,536,185,-32,-102
-1,-73,-80,30,39,-77,317,739,542,185,-38,-108
-1,-85,-92,36,45,-89,317,751,554,185,-44,-120
5,-73,-86,24,45,-77,323,775,566,179,-38,-114
11,-61,-80,18,45,-71,341,793,584,203,-20,-90
-18,-73,-50,42,9,-65,341,811,590,221,-14,-90
-42,-85,-38,60,-3,-65,341,823,590,221,-14,-102
-7,-73,-62,36,21,-71,335,835,608,227,-9,-96
5,-79,-92,30,45,-83,341,847,614,233,-14,-90
-7,-73,-74,30,33,-71,347,859,632,239,-14,-96
29,-49,-86,6,57,-65,365,889,656,245,-9,-96
47,-49,-104,6,75,-77,365,907,668,245,-14,-96
29,-61,-98,6,63,-77,377,919,680,257,-9,-90
17,-55,-80,12,45,-65,377,937,692,251,-9,-102
23,-67,-98,12,57,-83,377,949,704,263,-9,-102
29,-61,-98,6,63,-77,389,961,716,275,-9,-96
41,-49,-98,6,69,-71,377,955,710,269,-3,-96
41,-43,-92,6,63,-65,377,973,728,287,-3,-96
41,-43,-92,6,63,-65,383,979,734,299,9,-84
47,-43,-98,6,69,-71,377,991,740,311,9,-84
53,-49,-110,6,81,-77,383,1009,758,317,9,-84
47,-67,-122,6,81,-95,389,1033,776,329,9,-84
41,-79,-128,12,81,-101,389,1045,794,329,15,-90
35,-67,-110,6,69,-89,401,1069,818,341,27,-78
65,-55,-128,1,93,-89,413,1081,836,353,39,-72
77,-43,-128,-11,99,-83,425,1099,854,371,51,-66
83,-37,-128,-17,105,-83,419,1111,854,383,57,-66
83,-31,-122,-17,99,-77,407,1111,878,401,75,-54
83,-37,-128,-17,105,-83,395,1099,872,401,63,-60
71,-37,-116,-11,93,-77,389,1111,890,413,63,-60
77,-37,-122,-11,99,-77,389,1123,902,419,69,-60
95,-43,-146,-17,117,-95,395,1135,914,419,69,-60
119,-43,-170,-29,141,-107,389,1141,920,425,75,-60
143,-19,-170,-53,153,-95,389,1159,944,443,99,-48
131,-31,-170,-41,147,-101,395,1153,944,455,111,-36
119,-49,-176,-29,147,-113,377,1135,938,455,105,-36
131,-37,-176,-41,153,-107,359,1123,926,461,111,-30
131,-19,-158,-47,141,-89,359,1123,938,479,129,-13
125,-31,-164,-41,141,-95,353,1105,938,497,141,-13
131,-31,-170,-41,147,-101,341,1099,938,497,141,-13
143,-25,-176,-53,159,-101,335,1093,950,503,147,-13
149,-25,-182,-53,165,-101,323,1075,956,515,153,5
167,-19,-194,-65,177,-107,311,1045,944,503,147,-7
167,-19,-194,-65,177,-107,299,1033,938,503,159,-1
161,-25,-194,-59,177,-107,293,1015,932,509,171,5
167,-25,-200,-65,183,-113,275,991,920,515,171,11
179,-25,-212,-71,195,-119,245,961,896,509,177,23
173,-13,-194,-71,183,-101,233,937,884,515,183,29
179,-8,-194,-77,183,-101,215,901,878,521,189,29
185,-8,-194,-83,189,-95,191,859,854,509,183,23
185,-8,-194,-83,189,-95,185,829,842,509,189,35
185,-8,-194,-83,189,-95,167,799,836,503,195,35
209,-8,-218,-95,213,-107,149,763,806,497,195,35
185,-8,-188,-89,189,-89,149,739,788,491,195,53
185,-8,-200,-83,189,-101,137,709,752,479,201,59
185,-13,-206,-77,195,-107,107,661,722,461,195,59
167,-8,-176,-77,171,-89,89,619,686,449,195,65
149,-8,-158,-65,153,-77,77,577,650,431,195,65
143,-8,-152,-65,147,-77,65,535,614,425,189,77
161,-2,-158,-77,159,-71,53,505,578,395,171,65
161,-8,-170,-71,165,-83,47,475,536,371,159,59
137,-19,-164,-53,147,-89,41,439,506,347,147,59
137,-8,-152,-59,141,-77,41,409,476,323,135,53
137,-2,-134,-65,135,-59,47,373,458,305,129,41
125,-8,-128,-59,129,-59,35,343,416,275,111,41
101,-8,-110,-41,105,-53,35,307,374,251,111,41
77,-13,-98,-23,87,-53,29,271,332,233,105,41
77,-13,-98,-23,87,-53,23,247,296,203,87,35
65,-8,-80,-23,69,-41,17,223,278,197,81,29
47,-8,-56,-17,51,-29,23,199,248,173,63,23
59,-8,-68,-23,63,-35,11,175,212,143,45,5
41,-19,-68,-5,51,-41,5,151,188,113,33,-7
35,-37,-80,6,57,-59,23,145,170,89,27,-13
29,-43,-80,6,51,-59,17,133,134,71,9,-18
41,-25,-74,1,57,-47,17,109,116,59,3,-13
35,-8,-50,-5,39,-29,29,97,104,53,3,-13
11,-8,-20,1,15,-11,29,79,86,41,3,-13
-7,-8,-3,6,-3,-6,35,73,62,29,3,-13
-1,-8,-14,6,3,-11,23,43,38,11,-9,-13
-1,-8,-8,6,3,-6,23,31,20,-7,-26,-30
-1,-8,-14,6,3,-11,35,25,8,-18,-38,-42
-7,-31,-20,18,-3,-29,47,25,14,-18,-38,-42
-18,-43,-20,30,-3,-35,53,25,-4,-36,-50,-42
-24,-43,-14,30,-3,-29,53,19,-4,-48,-62,-54
-24,-55,-26,36,-3,-41,47,7,-21,-60,-68,-60
-36,-61,-20,48,-3,-41,41,1,-27,-66,-80,-60
-54,-61,-3,54,-20,-35,41,1,-33,-72,-80,-66
-66,-55,3,60,-38,-23,47,1,-39,-72,-80,-66
-42,-43,-3,42,-20,-23,47,1,-51,-78,-80,-66
-24,-13,3,18,-14,-6,59,1,-45,-78,-86,-60
-24,-13,3,18,-14,-6,77,1,-39,-78,-80,-54
-42,-31,3,36,-26,-11,83,7,-33,-84,-80,-54
-36,-49,-8,42,-8,-29,71,1,-51,-96,-98,-66
-36,-49,-8,42,-8,-29,77,1,-57,-108,-98,-72
-36,-43,-3,36,-14,-23,77,1,-57,-108,-92,-66
-48,-43,-3,42,-26,-17,71,1,-63,-102,-92,-66
-42,-49,-3,42,-14,-29,77,1,-63,-102,-98,-66
-48,-43,-3,42,-26,-17,71,-4,-57,-96,-92,-66
-54,-55,-3,54,-26,-29,77,1,-63,-90,-92,-66
-66,-55,3,60,-38,-23,77,1,-63,-102,-116,-78
-54,-67,-8,60,-20,-41,65,-4,-75,-108,-116,-84
-54,-61,-3,54,-20,-35,65,-10,-69,-120,-122,-90
-78,-73,-3,72,-38,-35,83,-4,-69,-120,-122,-84
-66,-67,-3,66,-32,-35,83,1,-57,-120,-122,-90
-42,-61,-14,48,-8,-41,71,-10,-75,-132,-122,-96
-66,-61,-3,60,-32,-29,71,-4,-75,-126,-110,-90
-78,-49,21,60,-50,-11,83,1,-63,-108,-98,-72
-78,-37,33,54,-56,-6,83,1,-57,-102,-92,-54
-60,-37,15,48,-38,-6,77,1,-63,-114,-104,-66
-54,-43,3,48,-32,-17,71,1,-75,-114,-122,-84
-54,-43,3,48,-32,-17,71,1,-75,-120,-122,-90
-66,-49,9,54,-38,-17,77,1,-63,-114,-122,-90
-42,-55,-8,48,-14,-35,83,1,-69,-120,-116,-84
-54,-55,-3,54,-26,-29,95,1,-63,-114,-104,-72
-72,-67,-3,66,-38,-29,83,1,-63,-120,-104,-78
-78,-67,3,72,-44,-29,77,13,-57,-120,-110,-78
-78,-79,-3,78,-38,-41,65,13,-69,-132,-122,-90
-102,-91,3,96,-56,-41,59,7,-69,-120,-116,-84
-96,-73,15,84,-56,-23,71,13,-63,-108,-98,-78
-72,-55,9,60,-44,-17,83,25,-51,-96,-92,-66
-42,-49,-3,42,-14,-29,77,25,-51,-108,-98,-72
-30,-43,-8,36,-8,-29,77,19,-51,-120,-104,-84
-30,-55,-20,42,-3,-41,71,7,-69,-126,-116,-90
-54,-55,-3,54,-26,-29,77,19,-57,-120,-110,-90
-66,-55,3,60,-38,-23,83,19,-57,-120,-110,-84
-66,-43,15,54,-44,-11,89,19,-51,-114,-104,-84
-60,-55,-3,54,-32,-23,83,25,-51,-114,-104,-84
-54,-49,-3,48,-26,-23,71,31,-45,-114,-110,-90
-66,-55,3,60,-38,-23,71,37,-39,-114,-116,-90
-114,-73,33,90,-74,-17,89,55,-21,-96,-104,-78
-102,-67,27,84,-68,-17,89,55,-21,-96,-104,-78
