,,,,,,,,,,,
2019-09-04 23:17:46,,,,,,,,,,,
,,,,,,,,,,,
I,II,III,aVR,aVL,aVF,V1,V2,V3,V4,V5,V6
-60,-247,-183,150,52,-215,236,342,-8,-249,-241,-223
-54,-241,-183,144,58,-215,218,312,-8,-225,-235,-211
-84,-223,-135,150,16,-179,212,306,-2,-195,-211,-199
-102,-211,-105,156,-2,-161,194,294,-2,-171,-187,-175
-84,-205,-117,144,10,-161,182,270,4,-165,-175,-157
-66,-193,-123,126,22,-161,164,240,-2,-153,-169,-151
-66,-169,-99,114,10,-137,152,228,4,-135,-151,-145
-60,-151,-87,102,4,-119,140,210,10,-129,-145,-127
-72,-145,-69,108,-2,-107,140,186,10,-105,-127,-109
-78,-133,-51,102,-7,-95,116,150,4,-105,-109,-97
-66,-115,-45,90,-7,-83,104,132,-2,-87,-97,-85
-60,-109,-45,84,-2,-77,92,114,4,-75,-85,-73
-36,-97,-57,66,4,-77,74,90,-2,-69,-79,-79
-48,-109,-57,78,-2,-83,68,78,-8,-63,-73,-73
-48,-103,-51,72,-2,-77,68,66,-8,-63,-79,-67
-42,-85,-39,60,-2,-65,62,54,-8,-51,-67,-55
-60,-73,-9,66,-19,-41,62,36,-8,-45,-61,-49
-78,-79,-4,78,-37,-41,62,18,-8,-51,-55,-55
-48,-79,-27,60,-7,-53,56,6,-19,-45,-67,-55
-18,-67,-45,42,4,-59,38,-6,-37,-57,-61,-61
-36,-55,-15,42,-7,-35,44,-6,-25,-51,-55,-49
-72,-55,8,60,-43,-17,50,-6,-19,-27,-37,-37
-54,-49,-4,48,-25,-23,38,-17,-25,-33,-49,-49
-18,-43,-21,30,-2,-35,20,-29,-37,-45,-55,-55
-60,-49,2,54,-31,-17,44,-17,-25,-33,-43,-31
-84,-49,26,66,-55,-6,62,-11,-13,-15,-31,-19
-60,-49,2,54,-31,-17,50,-35,-25,-33,-49,-31
-36,-55,-15,42,-7,-35,44,-47,-43,-45,-61,-43
-36,-61,-21,48,-2,-41,44,-47,-49,-39,-61,-43
-54,-55,-4,54,-25,-29,44,-47,-49,-33,-43,-37
-48,-49,-4,48,-19,-23,32,-53,-49,-39,-55,-43
-42,-67,-21,54,-7,-47,38,-47,-43,-33,-49,-43
-54,-73,-15,60,-13,-47,38,-53,-55,-33,-49,-43
-114,-67,38,90,-79,-11,56,-29,-37,-27,-37,-31
-144,-67,68,102,-109,-6,68,-17,-31,-15,-31,-19
-108,-61,38,84,-73,-6,62,-23,-31,-21,-37,-25
-84,-61,14,72,-49,-17,50,-35,-49,-39,-55,-37
-90,-67,14,78,-55,-23,50,-41,-55,-45,-61,-37
-66,-61,-4,60,-31,-29,62,-35,-55,-39,-61,-37
-42,-49,-4,42,-13,-29,44,-41,-55,-39,-55,-43
-54,-55,-4,54,-25,-29,38,-41,-55,-51,-61,-43
-60,-61,-4,60,-25,-29,44,-29,-55,-51,-61,-43
-66,-55,2,60,-37,-23,44,-23,-49,-33,-49,-37
-78,-49,20,60,-49,-11,44,-11,-31,-33,-37,-31
-84,-61,14,72,-49,-17,56,-11,-31,-27,-43,-25
-36,-61,-21,48,-2,-41,44,-23,-43,-45,-55,-43
-30,-55,-21,42,-2,-41,38,-29,-49,-51,-61,-55
-60,-55,-4,54,-31,-23,50,-6,-31,-39,-55,-43
-66,-55,2,60,-37,-23,56,-6,-25,-27,-49,-31
-78,-49,20,60,-49,-11,56,-6,-13,-21,-37,-37
-90,-49,32,66,-61,-6,50,-6,-25,-27,-43,-37
-72,-55,8,60,-43,-17,50,-6,-25,-21,-43,-37
-36,-61,-21,48,-2,-41,44,-11,-31,-33,-43,-43
-48,-49,-4,48,-19,-23,38,-6,-25,-27,-49,-49
-66,-61,-4,60,-31,-29,56,6,-13,-15,-43,-37
-60,-55,-4,54,-31,-23,56,0,-13,-15,-37,-43
-24,-43,-15,30,-2,-29,44,-6,-25,-39,-61,-55
-24,-43,-15,30,-2,-29,44,-6,-25,-45,-67,-49
-78,-43,26,60,-55,-6,68,6,-13,-21,-49,-37
-78,-43,26,60,-55,-6,62,6,-8,-21,-43,-43
-36,-37,-4,36,-13,-17,44,6,-19,-33,-55,-49
-48,-37,2,42,-25,-11,44,6,-19,-21,-49,-43
-84,-43,32,60,-61,-6,56,18,-8,-10,-31,-31
-66,-49,8,54,-37,-17,56,12,-8,-15,-43,-43
-60,-49,2,54,-31,-17,56,18,-8,-21,-49,-49
-54,-55,-4,54,-25,-29,62,18,-8,-21,-43,-49
-36,-55,-15,42,-7,-35,50,6,-13,-27,-49,-49
-60,-55,-4,54,-31,-23,68,12,-8,-27,-49,-43
-60,-55,-4,54,-31,-23,68,18,-8,-27,-49,-37
-54,-55,-4,54,-25,-29,68,18,-8,-21,-43,-49
-84,-55,20,66,-55,-11,62,18,-8,-21,-49,-55
-78,-61,8,66,-43,-23,68,24,-8,-15,-43,-43
-30,-49,-15,36,-2,-35,50,6,-13,-21,-49,-49
-30,-43,-9,36,-7,-29,56,12,-13,-27,-49,-55
-48,-43,-4,42,-25,-17,62,24,-8,-15,-49,-49
-66,-49,8,54,-37,-17,68,36,-8,-10,-31,-37
-60,-49,2,54,-31,-17,68,36,-8,-10,-37,-43
-30,-55,-21,42,-2,-41,56,18,-13,-39,-61,-61
-30,-55,-21,42,-2,-41,56,6,-19,-39,-67,-61
-48,-55,-4,48,-19,-29,62,18,-13,-33,-49,-61
-54,-61,-4,54,-19,-35,62,18,-13,-33,-43,-55
-78,-61,8,66,-43,-23,74,30,-8,-21,-43,-43
-84,-55,20,66,-55,-11,68,24,-8,-27,-31,-43
-42,-49,-4,42,-13,-29,56,24,-13,-33,-37,-49
-18,-43,-21,30,-2,-35,50,18,-19,-33,-61,-55
-48,-49,-4,48,-19,-23,62,24,-13,-27,-49,-49
-90,-55,26,72,-61,-11,80,30,-8,-21,-37,-37
-78,-55,14,66,-49,-17,74,24,-8,-27,-49,-43
-60,-49,2,54,-31,-17,68,24,-13,-21,-49,-43
-66,-43,14,54,-43,-11,80,18,-8,-21,-49,-49
-96,-49,38,72,-67,-6,86,30,-8,-15,-43,-25
-114,-49,56,78,-85,-6,92,36,-8,-10,-31,-19
-54,-49,-4,48,-25,-23,68,6,-19,-27,-49,-55
-18,-61,-39,36,4,-53,56,0,-31,-39,-67,-67
-18,-61,-39,36,4,-53,56,0,-43,-45,-73,-61
-18,-61,-39,36,4,-53,56,-6,-37,-51,-79,-67
-24,-55,-27,36,-2,-41,50,-6,-43,-57,-85,-73
-24,-49,-21,36,-2,-35,56,-6,-49,-51,-91,-73
-30,-61,-27,42,-2,-47,56,-6,-43,-45,-79,-67
-48,-61,-9,54,-13,-35,68,-6,-43,-39,-67,-61
-78,-61,8,66,-43,-23,74,0,-31,-39,-67,-55
-60,-61,-4,60,-25,-29,62,-6,-43,-39,-61,-61
-12,-55,-39,30,4,-47,38,-11,-61,-51,-79,-73
-54,-55,-4,54,-25,-29,62,-6,-43,-33,-67,-55
-66,-55,2,60,-37,-23,68,-6,-49,-39,-73,-61
-72,-49,14,60,-43,-11,68,-6,-49,-39,-67,-55
-54,-49,-4,48,-25,-23,62,-6,-49,-51,-73,-67
-48,-55,-4,48,-19,-29,62,-11,-49,-51,-79,-67
-102,-73,20,84,-61,-23,74,0,-37,-33,-67,-55
-78,-85,-4,78,-31,-47,74,-6,-49,-39,-67,-61
-30,-73,-39,48,-2,-59,50,-17,-73,-63,-85,-79
-36,-79,-39,54,-2,-59,62,-6,-67,-51,-79,-73
-30,-73,-39,48,-2,-59,50,-17,-67,-57,-85,-79
-36,-67,-27,48,-2,-47,56,-11,-61,-57,-85,-73
-54,-67,-9,60,-19,-41,62,-6,-61,-45,-79,-61
-84,-79,-4,78,-43,-35,74,0,-49,-39,-73,-55
-78,-73,-4,72,-37,-35,74,-6,-49,-51,-85,-67
-78,-61,8,66,-43,-23,74,-6,-55,-45,-79,-73
-66,-55,2,60,-37,-23,68,-6,-55,-39,-79,-67
-54,-55,-4,54,-25,-29,68,-6,-61,-45,-85,-67
-84,-61,14,72,-49,-17,80,-6,-49,-45,-67,-55
-72,-67,-4,66,-37,-29,74,-11,-61,-51,-73,-67
-42,-67,-21,54,-7,-47,56,-17,-67,-51,-85,-73
-36,-55,-15,42,-7,-35,56,-17,-73,-51,-91,-85
-66,-73,-4,66,-25,-41,62,-6,-55,-39,-79,-67
-78,-73,-4,72,-37,-35,74,-6,-55,-45,-85,-67
-78,-67,2,72,-43,-29,68,-11,-55,-39,-79,-67
-84,-73,2,78,-43,-29,74,-6,-49,-33,-61,-61
-78,-73,-4,72,-37,-35,80,-11,-55,-39,-73,-61
-54,-73,-15,60,-13,-47,68,-17,-67,-51,-85,-67
-42,-67,-21,54,-7,-47,62,-17,-61,-45,-85,-67
-78,-73,-4,72,-37,-35,80,-6,-49,-33,-67,-55
-90,-73,8,78,-49,-29,80,-6,-49,-21,-67,-55
-36,-73,-33,54,-2,-53,62,-17,-67,-45,-85,-73
-36,-73,-33,54,-2,-53,56,-17,-67,-45,-85,-67
-66,-73,-4,66,-25,-41,68,-6,-61,-39,-85,-73
-84,-73,2,78,-43,-29,86,-6,-61,-39,-85,-73
-78,-73,-4,72,-37,-35,80,-11,-61,-45,-85,-73
-72,-67,-4,66,-37,-29,74,-11,-67,-45,-97,-79
-72,-61,2,66,-37,-23,80,-6,-67,-45,-91,-61
-72,-55,8,60,-43,-17,86,-17,-55,-45,-91,-67
-48,-49,-4,48,-19,-23,86,-17,-61,-51,-91,-73
-12,-37,-21,24,-2,-29,68,-11,-67,-51,-103,-79
-7,-37,-27,18,4,-35,74,-6,-61,-45,-97,-73
-30,-31,-4,30,-13,-17,80,-6,-55,-39,-85,-67
-60,-31,20,42,-43,-6,92,-6,-37,-15,-67,-55
-72,-19,44,42,-61,6,104,6,-37,-21,-67,-49
-42,-19,14,30,-31,-6,98,-6,-37,-33,-79,-55
-36,-19,8,24,-25,-6,92,-6,-43,-33,-79,-61
-48,-19,20,30,-37,-6,92,-6,-43,-27,-73,-55
-30,-13,8,18,-19,-6,80,-6,-37,-15,-67,-55
-18,-8,2,12,-13,-6,80,-6,-43,-10,-61,-55
-42,-8,38,18,-37,12,86,0,-25,-10,-61,-49
-72,-8,62,36,-67,24,104,18,-13,-4,-43,-37
-60,-2,62,24,-61,30,98,0,-25,-10,-55,-49
-42,-2,44,12,-43,18,98,0,-25,-10,-55,-49
-36,4,44,6,-37,24,98,-6,-25,-10,-55,-49
-30,4,38,6,-31,18,92,-6,-37,-21,-67,-55
-30,10,44,6,-37,24,92,-6,-37,-15,-67,-55
-60,16,80,12,-67,48,92,-6,-31,-10,-61,-43
-48,22,74,6,-61,48,86,-6,-37,-10,-61,-43
-36,22,62,6,-49,42,62,-23,-49,-21,-67,-43
-66,16,86,18,-73,48,56,-17,-37,-10,-43,-25
-66,28,98,12,-79,60,56,-6,-31,2,-31,-19
-7,34,38,-11,-19,36,38,-17,-43,-10,-43,-37
-7,34,38,-11,-19,36,32,-11,-43,-10,-49,-31
-54,28,86,6,-67,54,50,-6,-25,-4,-49,-31
-24,28,56,6,-37,42,50,-6,-31,-10,-55,-37
-7,28,26,-11,-7,30,44,-11,-37,-10,-55,-37
-12,22,38,1,-25,30,50,0,-19,2,-43,-25
-7,16,20,1,-7,18,56,12,-8,8,-37,-25
-7,16,26,1,-13,18,50,6,-8,8,-31,-19
-18,22,44,6,-31,30,38,0,-8,14,-25,-13
11,22,2,-17,-2,12,26,-6,-25,2,-43,-25
5,10,-4,-5,-2,6,20,-17,-37,-4,-49,-31
-7,4,2,1,-2,6,26,-23,-43,-10,-49,-31
-7,-8,-4,6,-2,-6,20,-29,-49,-10,-49,-31
5,-13,-27,6,16,-17,14,-35,-61,-21,-55,-43
29,-19,-57,1,40,-35,2,-47,-73,-39,-79,-67
-18,-37,-15,24,-2,-29,38,-29,-49,-27,-67,-49
-60,-49,2,54,-31,-17,50,-17,-49,-27,-67,-55
-42,-55,-9,48,-13,-35,32,-23,-55,-27,-67,-61
-24,-61,-33,42,-2,-47,20,-35,-67,-33,-85,-67
-54,-79,-21,66,-13,-53,20,-35,-67,-39,-85,-67
-90,-91,-4,90,-43,-47,26,-35,-55,-27,-73,-67
-48,-97,-45,72,-2,-71,8,-41,-67,-45,-85,-79
-18,-91,-69,54,16,-83,-4,-35,-67,-45,-97,-85
-42,-91,-45,66,-2,-71,-4,-11,-37,-21,-79,-61
-60,-79,-15,66,-19,-47,-4,-11,-25,-10,-55,-49
-18,-67,-45,42,4,-59,-33,-23,-31,-15,-61,-55
-1,-43,-51,12,22,-47,-69,-41,-37,-10,-61,-49
5,-31,-45,6,22,-35,-99,-47,-25,-10,-37,-25
23,-19,-51,6,34,-35,-123,-41,-8,2,-31,-13
65,-8,-75,-23,70,-35,-141,-47,-13,8,-25,-13
77,4,-69,-41,76,-23,-159,-35,-8,20,-13,-8
71,4,-63,-35,70,-23,-159,-11,22,50,4,4
107,22,-81,-65,94,-23,-189,-17,28,62,4,10
137,34,-99,-83,118,-23,-219,-35,28,62,16,10
131,40,-87,-83,112,-17,-255,-47,34,86,40,34
101,58,-39,-77,70,6,-273,-47,58,116,76,76
83,76,-4,-77,46,30,-291,-47,82,152,106,106
95,100,-4,-95,46,48,-339,-65,94,176,130,124
137,124,-9,-131,76,54,-381,-101,94,176,136,136
179,154,-21,-167,100,60,-429,-137,82,182,142,136
197,190,-4,-191,100,90,-471,-173,82,206,160,160
203,214,2,-209,94,108,-489,-191,106,230,202,184
233,238,-4,-233,118,120,-525,-221,106,236,208,190
257,268,2,-263,124,138,-537,-239,118,260,232,214
245,310,56,-275,94,186,-555,-245,136,290,256,244
233,346,104,-287,64,228,-567,-239,166,338,298,292
233,382,140,-305,46,258,-591,-239,196,374,334,328
269,418,140,-341,64,276,-627,-251,214,398,358,340
323,454,122,-389,100,288,-675,-287,226,428,394,364
365,484,116,-425,124,300,-717,-317,232,446,418,394
371,514,140,-443,112,330,-717,-317,256,470,448,424
371,550,176,-461,94,366,-705,-299,286,494,478,442
395,598,200,-491,94,402,-723,-275,322,530,508,478
437,658,218,-545,106,438,-747,-281,358,566,550,514
473,700,224,-581,124,462,-801,-275,376,602,586,550
485,742,248,-617,118,498,-855,-287,400,638,628,598
479,784,302,-629,82,546,-885,-317,412,674,670,640
515,808,284,-665,112,546,-903,-317,418,680,682,652
605,826,218,-719,196,522,-939,-275,424,668,682,652
665,862,194,-761,238,528,-963,-287,436,692,706,682
665,910,236,-785,214,576,-987,-335,436,716,736,724
665,952,278,-803,190,618,-1011,-389,424,734,760,748
671,1000,326,-833,172,666,-1011,-485,400,752,790,778
635,1072,434,-851,100,750,-987,-545,394,800,838,826
623,1174,542,-899,34,858,-975,-629,364,836,886,886
623,1282,656,-953,-7,966,-1005,-749,334,878,952,964
617,1390,764,-1001,-67,1080,-1047,-881,310,950,1012,1030
641,1492,848,-1067,-97,1176,-1107,-1031,268,1010,1084,1102
671,1570,896,-1121,-109,1230,-1155,-1175,244,1100,1192,1192
659,1630,968,-1145,-151,1296,-1173,-1271,268,1214,1312,1300
689,1696,998,-1193,-151,1350,-1209,-1355,304,1340,1438,1402
767,1768,992,-1265,-109,1386,-1263,-1487,304,1454,1534,1474
767,1828,1052,-1295,-139,1446,-1317,-1601,298,1568,1648,1558
779,1834,1046,-1307,-127,1446,-1371,-1619,358,1694,1744,1624
827,1834,998,-1331,-79,1422,-1467,-1637,394,1796,1828,1678
851,1798,944,-1325,-37,1374,-1509,-1601,466,1886,1894,1720
845,1696,848,-1271,-2,1272,-1491,-1487,550,1946,1930,1714
791,1594,794,-1193,-2,1200,-1413,-1325,670,1982,1918,1678
725,1504,776,-1115,-19,1146,-1311,-1151,784,2006,1900,1636
695,1432,728,-1061,-13,1080,-1233,-1037,784,1982,1870,1576
707,1360,650,-1031,22,1002,-1161,-953,784,1934,1804,1510
635,1300,662,-965,-7,978,-1059,-839,802,1892,1726,1432
479,1222,740,-851,-127,984,-903,-749,724,1778,1612,1324
347,1072,722,-713,-181,900,-741,-635,592,1538,1414,1156
263,802,530,-533,-127,672,-579,-491,418,1166,1108,922
227,508,278,-365,-19,396,-405,-347,238,752,760,640
137,310,170,-227,-7,240,-255,-245,100,458,490,424
53,190,128,-119,-31,162,-159,-167,34,278,322,280
11,70,50,-41,-13,60,-69,-65,82,206,196,160
-18,-8,14,6,-13,0,-9,-6,136,170,112,76
-18,-19,-4,18,-7,-11,-4,6,124,140,76,52
5,-37,-51,6,28,-41,-4,-6,94,104,46,16
23,-55,-87,6,52,-71,-4,0,70,74,16,-8
-1,-73,-81,30,40,-77,26,18,58,56,-2,-25
-42,-97,-51,66,-2,-77,56,36,52,38,-8,-25
-54,-103,-45,78,-2,-77,74,54,46,20,-19,-43
-66,-115,-45,90,-7,-83,92,60,34,-4,-37,-61
-102,-127,-21,114,-37,-77,104,66,28,-15,-55,-67
-96,-133,-33,114,-25,-83,110,66,10,-33,-67,-85
-78,-145,-63,108,-2,-107,116,72,4,-51,-91,-109
-90,-151,-57,120,-13,-107,128,84,4,-63,-103,-115
-126,-163,-33,144,-43,-101,140,96,-2,-63,-109,-121
-96,-181,-81,138,-2,-131,146,96,-8,-75,-127,-127
-72,-193,-117,132,16,-155,140,90,-25,-117,-151,-151
-90,-199,-105,144,-2,-155,146,102,-25,-123,-163,-151
-96,-199,-99,144,-2,-149,158,108,-19,-123,-169,-157
-114,-205,-87,156,-7,-149,170,114,-25,-123,-175,-163
-126,-205,-75,162,-19,-143,176,126,-25,-129,-169,-163
-120,-205,-81,162,-13,-143,170,114,-37,-141,-181,-169
-84,-199,-111,138,4,-155,152,96,-43,-153,-193,-187
-90,-205,-111,144,4,-161,170,114,-37,-159,-187,-187
-108,-211,-99,156,-2,-155,176,114,-43,-159,-187,-187
-96,-217,-117,156,4,-167,182,120,-43,-147,-193,-193
-84,-229,-141,156,22,-185,182,126,-43,-153,-199,-199
-102,-235,-129,168,4,-185,188,132,-49,-159,-199,-193
-120,-235,-111,174,-2,-173,200,126,-43,-165,-205,-193
-108,-229,-117,168,-2,-173,200,126,-43,-165,-205,-193
-90,-223,-129,156,10,-179,188,126,-55,-171,-211,-187
-90,-217,-123,150,10,-173,182,114,-61,-177,-211,-199
-78,-217,-135,144,22,-179,176,114,-61,-177,-217,-205
-90,-217,-123,150,10,-173,182,120,-61,-171,-205,-205
-114,-217,-99,162,-2,-161,188,126,-55,-171,-217,-211
-126,-223,-93,174,-13,-161,194,126,-49,-171,-211,-205
-150,-235,-81,192,-31,-161,200,150,-43,-159,-205,-193
-156,-229,-69,192,-37,-149,212,156,-43,-165,-199,-199
-156,-223,-63,186,-43,-143,212,150,-37,-165,-211,-205
-114,-229,-111,168,-2,-173,206,144,-49,-177,-223,-217
-84,-229,-141,156,22,-185,194,132,-73,-195,-235,-223
-126,-223,-93,174,-13,-161,212,144,-61,-183,-223,-217
-108,-223,-111,162,-2,-167,200,138,-61,-183,-229,-217
-78,-217,-135,144,22,-179,188,132,-73,-195,-235,-223
-48,-223,-171,132,52,-197,182,132,-73,-195,-241,-229
-90,-223,-129,156,10,-179,200,150,-55,-189,-235,-223
-138,-235,-93,186,-19,-167,230,174,-37,-171,-223,-211
-138,-241,-99,186,-13,-173,230,180,-43,-177,-223,-211
-126,-241,-111,180,-2,-179,218,168,-43,-189,-235,-217
-114,-241,-123,174,-2,-185,230,180,-37,-183,-223,-223
-96,-235,-135,162,10,-185,218,174,-49,-201,-235,-223
-96,-223,-123,156,4,-173,224,174,-49,-195,-229,-217
-132,-223,-87,174,-19,-155,236,186,-37,-177,-223,-217
-138,-229,-87,180,-19,-161,230,186,-37,-177,-223,-223
-156,-235,-75,192,-37,-155,242,198,-37,-183,-223,-217
-204,-247,-39,222,-79,-143,260,210,-19,-165,-211,-217
-204,-253,-51,228,-73,-155,272,228,-13,-159,-211,-199
-144,-253,-111,198,-13,-185,248,216,-37,-189,-235,-223
-114,-247,-135,180,4,-197,236,198,-55,-201,-247,-241
-126,-253,-129,192,-2,-197,248,204,-49,-207,-247,-229
-102,-247,-147,174,16,-203,242,210,-49,-225,-253,-241
-96,-241,-141,168,16,-191,242,210,-55,-225,-259,-247
-126,-241,-111,180,-2,-179,242,216,-43,-213,-253,-235
-144,-247,-99,192,-19,-173,260,234,-37,-201,-253,-229
-108,-247,-141,180,10,-197,254,222,-61,-225,-265,-247
-108,-253,-147,180,10,-203,248,222,-61,-225,-271,-247
-150,-265,-117,210,-13,-197,272,234,-55,-219,-265,-247
-180,-271,-93,228,-37,-185,284,252,-43,-219,-259,-247
-150,-265,-117,210,-13,-197,272,240,-49,-237,-283,-265
-108,-271,-165,192,22,-221,272,234,-61,-249,-295,-277
-126,-271,-147,198,4,-215,278,240,-61,-255,-289,-277
-168,-277,-111,222,-25,-197,302,258,-49,-249,-277,-253
-150,-271,-123,210,-7,-203,296,252,-67,-249,-295,-265
-126,-271,-147,198,4,-215,290,246,-73,-267,-307,-289
-162,-277,-117,222,-19,-203,308,264,-61,-255,-301,-277
-198,-289,-93,246,-49,-197,320,276,-61,-249,-307,-277
-186,-301,-117,246,-31,-215,332,288,-61,-261,-313,-289
-162,-307,-147,234,-2,-233,332,294,-67,-279,-319,-301
-150,-313,-165,234,-2,-245,326,288,-73,-285,-331,-307
-168,-313,-147,240,-7,-233,344,306,-67,-285,-325,-301
-186,-313,-129,246,-25,-227,356,324,-61,-291,-319,-301
-180,-313,-135,246,-19,-227,368,324,-67,-297,-331,-301
-204,-313,-111,252,-43,-215,368,330,-67,-291,-331,-307
-192,-319,-129,252,-25,-227,374,342,-67,-297,-343,-313
-192,-325,-135,252,-25,-233,380,342,-79,-309,-343,-325
-216,-337,-123,270,-43,-233,392,360,-67,-309,-349,-331
-186,-355,-171,264,-2,-263,392,366,-73,-315,-373,-343
-192,-367,-177,276,-2,-269,398,378,-79,-327,-379,-349
-204,-373,-171,282,-13,-269,416,390,-79,-333,-379,-355
-216,-379,-165,294,-19,-269,434,402,-73,-339,-379,-343
-222,-379,-159,294,-25,-269,428,402,-79,-357,-385,-355
-210,-379,-171,288,-13,-275,428,414,-79,-363,-391,-355
-180,-379,-201,276,4,-287,422,402,-97,-375,-403,-379
-168,-385,-219,270,16,-299,428,408,-103,-387,-421,-385
-192,-391,-201,288,-2,-293,440,426,-91,-387,-427,-397
-234,-403,-171,312,-25,-287,464,444,-73,-387,-421,-385
-264,-415,-147,336,-55,-281,482,480,-61,-375,-415,-385
-240,-421,-183,324,-25,-299,482,480,-73,-393,-415,-391
-222,-415,-195,312,-7,-305,470,480,-73,-405,-427,-397
-222,-421,-201,318,-7,-311,482,480,-79,-399,-433,-403
-222,-427,-207,318,-2,-317,482,486,-85,-411,-439,-409
-234,-427,-195,324,-13,-311,494,498,-79,-411,-433,-391
-216,-427,-213,318,-2,-317,482,492,-91,-417,-445,-403
-222,-427,-207,318,-2,-317,482,498,-85,-423,-445,-409
-234,-433,-201,330,-13,-317,494,504,-85,-423,-445,-409
-240,-445,-207,336,-13,-323,488,510,-79,-423,-445,-409
-258,-451,-189,354,-31,-317,506,522,-67,-411,-439,-403
-264,-451,-183,354,-37,-317,506,534,-67,-417,-433,-391
-228,-445,-219,330,-2,-329,488,516,-85,-435,-451,-409
-234,-451,-219,336,-2,-335,494,522,-73,-423,-445,-415
-228,-445,-219,330,-2,-329,488,522,-85,-435,-451,-421
-216,-439,-225,324,-2,-329,482,516,-85,-435,-451,-409
-222,-427,-207,318,-2,-317,482,510,-73,-423,-451,-403
-234,-421,-189,324,-19,-305,476,510,-79,-423,-445,-403
-246,-421,-177,330,-31,-299,476,522,-73,-411,-433,-391
-234,-421,-189,324,-19,-305,470,516,-73,-405,-433,-391
-198,-427,-231,306,10,-329,464,510,-73,-411,-433,-397
-180,-433,-249,300,28,-341,458,504,-79,-411,-427,-391
-204,-427,-225,312,4,-323,458,504,-73,-405,-415,-379
-222,-415,-195,312,-7,-305,452,510,-55,-393,-403,-361
-198,-397,-201,294,-2,-299,440,498,-61,-393,-403,-355
-174,-385,-213,276,10,-299,410,480,-67,-399,-397,-361
-168,-373,-207,264,10,-287,398,468,-67,-381,-391,-367
-156,-367,-213,258,22,-287,380,462,-67,-375,-385,-355
-150,-355,-207,246,22,-281,368,462,-49,-369,-373,-343
-138,-349,-213,246,28,-281,356,456,-49,-351,-361,-331
-114,-343,-231,228,52,-287,344,438,-55,-345,-355,-325
-120,-343,-225,234,46,-281,338,438,-31,-315,-337,-301
-120,-325,-207,222,34,-263,320,420,-25,-309,-319,-289
-138,-307,-171,222,10,-245,308,414,-13,-291,-307,-265
-150,-289,-141,222,-2,-221,296,396,-13,-267,-283,-247
-144,-271,-129,210,-2,-203,278,378,-8,-249,-259,-229
-132,-253,-123,192,-2,-191,254,348,-8,-237,-247,-223
-90,-241,-147,162,22,-197,236,324,-8,-231,-229,-211
-60,-235,-171,144,46,-203,218,288,-8,-225,-235,-199
-66,-223,-153,144,34,-191,200,270,-8,-201,-217,-193
-72,-205,-129,138,22,-167,176,258,-8,-183,-193,-181
-84,-193,-105,138,4,-149,170,246,-2,-165,-175,-163
-90,-181,-87,132,-2,-137,170,228,10,-147,-151,-145
-48,-163,-111,102,22,-137,134,192,-2,-141,-157,-145
-66,-145,-75,102,-2,-113,128,174,4,-123,-139,-121
-102,-127,-21,114,-37,-77,128,168,16,-93,-109,-97
-36,-109,-69,72,10,-89,92,126,-8,-105,-115,-103
-18,-91,-69,54,16,-83,80,102,-8,-99,-109,-103
-60,-85,-21,72,-13,-53,80,96,4,-69,-79,-79
-48,-85,-33,66,-2,-59,68,78,-8,-63,-79,-79
-12,-85,-69,48,22,-77,56,54,-13,-63,-73,-73
-18,-79,-57,48,10,-71,50,36,-13,-57,-73,-79
-60,-73,-9,66,-19,-41,56,30,-8,-45,-55,-61
-30,-67,-33,48,-2,-53,38,12,-19,-51,-67,-61
11,-61,-81,18,46,-71,26,-6,-37,-57,-85,-73
-12,-55,-39,30,4,-47,26,-6,-37,-51,-73,-61
-72,-49,14,60,-43,-11,44,-6,-31,-33,-55,-43
-54,-43,2,48,-31,-17,38,-11,-31,-33,-55,-43
-54,-43,2,48,-31,-17,38,-17,-37,-33,-55,-43
-48,-43,-4,42,-25,-17,32,-23,-43,-39,-55,-49
-54,-43,2,48,-31,-17,32,-29,-43,-39,-61,-43
-108,-43,56,72,-85,0,50,-17,-37,-21,-43,-31
-90,-49,32,66,-61,-6,44,-29,-49,-33,-49,-43
-42,-37,-4,36,-19,-17,20,-47,-67,-51,-67,-55
-42,-43,-4,42,-19,-23,20,-65,-73,-57,-67,-61
-36,-37,-4,36,-13,-17,20,-71,-73,-57,-67,-49
-48,-37,2,42,-25,-11,20,-65,-79,-57,-67,-43
-66,-37,20,48,-43,-6,26,-65,-73,-45,-61,-43
-60,-37,14,48,-37,-6,26,-65,-73,-45,-61,-49
-54,-43,2,48,-31,-17,32,-65,-73,-45,-61,-61
-48,-43,-4,42,-25,-17,32,-65,-73,-39,-61,-61
-18,-43,-21,30,-2,-35,20,-71,-85,-63,-73,-73
-30,-43,-9,36,-7,-29,32,-65,-79,-63,-67,-67
-60,-43,8,48,-37,-11,32,-53,-67,-45,-61,-55
-54,-43,2,48,-31,-17,38,-53,-73,-51,-61,-61
-48,-37,2,42,-25,-11,26,-65,-79,-63,-61,-67
-48,-37,2,42,-25,-11,32,-59,-73,-63,-61,-55
-30,-37,-4,30,-7,-23,26,-59,-85,-57,-73,-61
-42,-43,-4,42,-19,-23,32,-53,-79,-51,-67,-61
-72,-37,26,54,-49,-6,38,-41,-55,-45,-49,-49
-48,-43,-4,42,-25,-17,38,-41,-61,-51,-61,-55
-24,-37,-9,30,-2,-23,26,-53,-67,-63,-67,-61
-42,-37,-4,36,-19,-17,26,-47,-61,-57,-61,-55
-48,-37,2,42,-25,-11,32,-41,-55,-51,-61,-55
-54,-37,8,42,-31,-11,38,-35,-49,-45,-55,-49
-72,-37,26,54,-49,-6,38,-29,-43,-33,-49,-37
-90,-31,50,60,-73,0,44,-35,-49,-45,-49,-37
-66,-31,26,48,-49,-6,38,-35,-49,-45,-55,-43
-18,-31,-9,24,-2,-23,20,-47,-55,-57,-67,-73
-54,-31,14,42,-37,-6,26,-29,-49,-45,-61,-55
-90,-31,50,60,-73,0,44,-23,-31,-33,-37,-43
-60,-31,20,42,-43,-6,32,-23,-43,-45,-49,-49
-36,-37,-4,36,-13,-17,32,-29,-49,-51,-55,-61
-7,-31,-21,18,-2,-29,26,-35,-55,-57,-67,-61
-30,-31,-4,30,-13,-17,32,-29,-49,-45,-61,-55
-54,-25,20,36,-37,-6,38,-23,-37,-39,-49,-55
-78,-19,50,48,-67,6,44,-11,-19,-27,-37,-37
-42,-25,8,30,-25,-6,32,-23,-37,-39,-49,-49
-18,-25,-4,18,-2,-17,26,-35,-43,-51,-61,-67
-60,-31,20,42,-43,-6,38,-17,-31,-33,-43,-43
-72,-31,32,48,-55,-6,44,-6,-31,-45,-49,-43
-54,-31,14,42,-37,-6,44,-6,-25,-39,-49,-49
-54,-31,14,42,-37,-6,44,-6,-31,-39,-49,-61
-30,-31,-4,30,-13,-17,32,-6,-37,-51,-61,-67
-18,-31,-9,24,-2,-23,26,-11,-43,-63,-73,-67
-30,-31,-4,30,-13,-17,32,-6,-37,-63,-67,-55
-60,-25,26,42,-43,-6,38,-6,-31,-57,-55,-49
-84,-25,50,54,-67,6,50,6,-19,-39,-43,-43
-78,-25,44,48,-61,0,44,-6,-31,-45,-49,-49
-30,-25,-4,24,-13,-11,32,-11,-31,-57,-61,-67
-1,-25,-33,6,16,-29,20,-23,-55,-69,-79,-85
-18,-31,-9,24,-2,-23,26,-11,-49,-69,-67,-67
-66,-37,20,48,-43,-6,44,-6,-31,-57,-49,-61
-66,-25,32,42,-49,-6,50,-6,-37,-51,-55,-61
-18,-31,-9,24,-2,-23,38,-11,-49,-63,-73,-73
-30,-31,-4,30,-13,-17,38,-6,-37,-63,-61,-67
-96,-25,62,60,-79,12,56,-6,-25,-51,-43,-43
-96,-25,62,60,-79,12,56,6,-19,-39,-43,-37
-54,-25,20,36,-37,-6,44,-6,-25,-45,-49,-55
-18,-31,-9,24,-2,-23,26,-11,-43,-69,-67,-67
-7,-37,-27,18,4,-35,26,-17,-49,-75,-79,-73
-54,-31,14,42,-37,-6,38,-6,-37,-63,-61,-67
-66,-31,26,48,-49,-6,44,-6,-31,-63,-49,-61
-30,-37,-4,30,-7,-23,26,-11,-43,-69,-67,-67
-48,-37,2,42,-25,-11,38,-6,-37,-57,-55,-61
-54,-25,20,36,-37,-6,44,-6,-31,-51,-49,-55
-54,-25,20,36,-37,-6,44,-6,-37,-51,-49,-49
-54,-25,20,36,-37,-6,38,-11,-37,-57,-55,-55
-60,-31,20,42,-43,-6,50,-11,-37,-57,-55,-55
-78,-31,38,54,-61,-6,56,-6,-31,-51,-43,-43
-66,-31,26,48,-49,-6,50,-6,-37,-57,-43,-49
-36,-37,-4,36,-13,-17,38,-6,-49,-69,-61,-67
-36,-37,-4,36,-13,-17,44,-6,-43,-69,-55,-61
-24,-31,-4,24,-7,-17,38,-17,-49,-75,-67,-61
-36,-37,-4,36,-13,-17,38,-17,-49,-75,-67,-55
-48,-37,2,42,-25,-11,32,-17,-55,-75,-67,-67
-18,-31,-9,24,-2,-23,26,-35,-67,-81,-73,-73
-30,-31,-4,30,-13,-17,38,-17,-55,-69,-61,-61
-54,-37,8,42,-31,-11,50,-11,-55,-63,-49,-55
-30,-37,-4,30,-7,-23,26,-29,-61,-75,-67,-67
-12,-37,-21,24,-2,-29,26,-35,-67,-81,-67,-61
-48,-43,-4,42,-25,-17,44,-17,-55,-63,-55,-49
-36,-37,-4,36,-13,-17,38,-23,-55,-69,-55,-61
-18,-43,-21,30,-2,-35,32,-29,-67,-81,-61,-67
-18,-43,-21,30,-2,-35,32,-35,-79,-87,-73,-73
-30,-43,-9,36,-7,-29,32,-41,-73,-75,-79,-67
-42,-43,-4,42,-19,-23,32,-41,-79,-87,-67,-73
-48,-37,2,42,-25,-11,38,-41,-67,-75,-67,-67
-18,-43,-21,30,-2,-35,26,-47,-79,-87,-67,-73
-24,-61,-33,42,-2,-47,26,-47,-73,-81,-67,-85
-102,-55,38,78,-73,-6,50,-23,-49,-63,-49,-55
-78,-55,14,66,-49,-17,44,-29,-67,-75,-55,-55
-30,-55,-21,42,-2,-41,32,-53,-91,-93,-79,-85
-66,-55,2,60,-37,-23,44,-41,-73,-81,-61,-73
-42,-49,-4,42,-13,-29,32,-53,-79,-87,-67,-73
-24,-55,-27,36,-2,-41,26,-59,-91,-93,-73,-85
-54,-55,-4,54,-25,-29,38,-53,-85,-87,-67,-73
-96,-55,32,72,-67,-6,50,-35,-67,-63,-49,-49
-96,-49,38,72,-67,-6,50,-29,-61,-63,-43,-49
-66,-49,8,54,-37,-17,38,-47,-73,-75,-55,-61
-48,-55,-4,48,-19,-29,38,-53,-79,-87,-67,-73
-48,-55,-4,48,-19,-29,38,-47,-85,-87,-67,-73
-42,-61,-15,48,-7,-41,32,-53,-85,-93,-67,-73
-42,-55,-9,48,-13,-35,32,-59,-85,-93,-67,-67
-30,-61,-27,42,-2,-47,32,-59,-85,-87,-67,-67
-42,-55,-9,48,-13,-35,32,-65,-85,-87,-67,-73
-54,-55,-4,54,-25,-29,38,-65,-85,-87,-67,-61
-66,-55,2,60,-37,-23,38,-59,-91,-93,-73,-67
-66,-55,2,60,-37,-23,38,-59,-91,-81,-73,-73
-78,-55,14,66,-49,-17,44,-47,-73,-75,-67,-61
-72,-55,8,60,-43,-17,38,-47,-73,-81,-67,-61
-60,-55,-4,54,-31,-23,38,-53,-91,-93,-73,-67
-36,-49,-9,42,-7,-29,26,-65,-97,-99,-85,-79
-54,-49,-4,48,-25,-23,32,-59,-91,-93,-79,-73
-90,-49,32,66,-61,-6,50,-47,-85,-87,-67,-67
-132,-55,68,90,-103,0,62,-35,-67,-63,-43,-37
-96,-55,32,72,-67,-6,44,-47,-79,-81,-61,-67
-48,-55,-4,48,-19,-29,20,-65,-97,-99,-85,-85
-36,-55,-15,42,-7,-35,26,-71,-97,-99,-79,-85
-18,-55,-33,36,-2,-47,20,-77,-103,-105,-85,-91
-42,-61,-15,48,-7,-41,26,-65,-109,-105,-85,-79
-78,-67,2,72,-43,-29,50,-47,-91,-93,-67,-73
-30,-61,-27,42,-2,-47,44,-65,-97,-105,-79,-85
-7,-49,-45,24,16,-47,20,-77,-103,-117,-91,-91
-24,-49,-21,36,-2,-35,38,-59,-91,-99,-73,-79
-48,-37,2,42,-25,-11,50,-41,-79,-87,-67,-61
-54,-31,14,42,-37,-6,50,-47,-79,-87,-61,-61
-42,-31,2,36,-25,-11,44,-47,-79,-81,-61,-55
-48,-19,20,30,-37,-6,44,-41,-73,-75,-61,-61
-54,-13,32,30,-43,0,50,-29,-67,-69,-55,-55
-54,-13,32,30,-43,0,50,-35,-67,-63,-49,-49
-54,-13,32,30,-43,0,62,-35,-61,-57,-49,-49
-48,-8,44,18,-43,18,68,-35,-67,-57,-43,-43
-12,-8,8,6,-7,0,56,-41,-73,-69,-55,-49
-12,-2,14,6,-13,6,50,-41,-67,-69,-55,-49
-30,4,38,6,-31,18,56,-35,-61,-63,-43,-43
-48,4,56,12,-49,30,62,-35,-55,-51,-37,-37
-36,10,50,6,-43,30,56,-35,-61,-57,-43,-37
-12,4,20,6,-13,12,56,-41,-67,-69,-49,-55
-54,4,62,18,-55,30,68,-23,-55,-57,-37,-43
-66,10,80,18,-73,42,74,-29,-55,-45,-37,-37
-60,16,80,12,-67,48,68,-29,-55,-51,-37,-43
-66,22,92,12,-79,54,68,-35,-55,-45,-31,-37
-60,28,92,6,-73,60,62,-29,-49,-39,-37,-37
-36,28,68,6,-49,48,44,-47,-61,-51,-43,-49
-24,28,56,6,-37,42,32,-65,-67,-63,-49,-49
-30,34,68,6,-49,48,14,-77,-85,-57,-37,-37
-18,40,62,-5,-37,48,2,-77,-85,-57,-37,-37
-7,46,56,-11,-31,48,2,-71,-79,-51,-37,-31
-24,40,68,1,-43,54,8,-53,-55,-33,-19,-19
-24,40,68,1,-43,54,8,-53,-55,-33,-13,-19
-12,40,56,-5,-31,48,2,-53,-67,-45,-25,-8
-7,46,50,-17,-25,48,14,-47,-67,-45,-31,-13
-7,46,56,-11,-31,48,20,-35,-49,-33,-25,-19
5,40,26,-23,-2,36,20,-29,-49,-39,-19,-31
35,40,-4,-35,16,18,2,-35,-55,-51,-25,-31
17,52,26,-35,-2,42,-4,-35,-49,-39,-13,-19
-7,46,50,-17,-25,48,2,-29,-43,-21,-8,-8
11,28,8,-17,-2,18,-4,-41,-55,-33,-13,-13
23,22,-4,-23,10,6,-4,-59,-79,-51,-31,-31
-12,16,32,6,-19,24,-4,-65,-73,-51,-25,-19
-36,-2,38,12,-37,18,8,-47,-55,-33,-19,-13
-7,-8,-4,6,-2,-6,-4,-65,-79,-63,-31,-19
-7,-19,-15,6,-2,-17,-4,-65,-91,-69,-43,-37
-18,-37,-15,24,-2,-29,8,-59,-85,-69,-49,-43
-42,-43,-4,42,-19,-23,14,-53,-91,-81,-55,-43
-36,-43,-4,36,-13,-23,8,-65,-91,-81,-49,-49
-36,-49,-9,42,-7,-29,-4,-77,-97,-87,-61,-61
-66,-67,-4,66,-31,-35,-4,-71,-91,-75,-55,-55
-90,-79,2,84,-49,-35,-4,-59,-73,-69,-43,-43
-7,-67,-57,36,16,-65,-27,-83,-97,-93,-67,-61
23,-67,-99,12,58,-83,-57,-83,-103,-105,-73,-79
-12,-61,-45,36,10,-53,-45,-59,-73,-81,-55,-49
-7,-49,-45,24,16,-47,-69,-65,-73,-75,-55,-43
23,-49,-81,6,52,-65,-93,-77,-79,-69,-49,-43
17,-37,-63,6,40,-47,-111,-65,-55,-45,-31,-31
11,-19,-39,6,22,-29,-129,-59,-37,-27,-13,-13
11,-8,-21,1,16,-11,-141,-53,-19,-10,-2,-2
29,-2,-27,-11,28,-6,-165,-59,-8,-10,10,4
17,10,-4,-11,10,0,-177,-41,-8,2,22,22
35,16,-15,-23,28,-6,-189,-29,10,26,46,34
101,34,-63,-65,82,-6,-237,-47,10,32,34,28
125,52,-69,-89,100,-6,-261,-59,16,38,52,46
131,64,-63,-95,100,-6,-303,-65,34,50,70,64
143,88,-51,-113,100,12,-339,-83,34,68,88,76
173,100,-69,-137,124,12,-375,-101,46,86,106,94
185,130,-51,-155,118,36,-423,-131,46,98,124,106
191,148,-39,-167,118,48,-447,-143,58,128,148,136
215,166,-45,-191,130,54,-489,-155,82,152,178,160
245,190,-57,-221,154,60,-531,-179,82,164,184,160
239,220,-21,-233,136,96,-555,-203,100,194,214,196
233,250,8,-239,112,132,-573,-209,112,230,244,232
233,280,38,-257,94,162,-573,-215,142,260,280,262
227,316,86,-269,64,204,-591,-221,166,272,304,280
227,370,140,-293,40,252,-615,-227,190,314,340,322
311,412,92,-359,106,252,-657,-233,202,332,352,334
329,448,110,-389,106,276,-693,-245,226,362,382,358
323,472,140,-395,88,306,-717,-257,238,386,424,394
329,496,164,-413,82,330,-735,-263,268,422,460,430
359,526,164,-443,94,348,-735,-263,286,452,484,454
401,562,158,-479,118,360,-741,-245,322,476,514,478
473,622,146,-545,160,384,-783,-239,346,500,538,502
509,682,164,-593,172,426,-825,-245,370,536,568,538
491,724,230,-611,130,480,-867,-227,412,584,622,586
551,784,230,-671,160,504,-939,-287,400,596,646,610
569,814,236,-695,166,528,-951,-317,412,620,682,646
575,832,248,-707,160,540,-951,-263,442,644,706,670
611,844,230,-725,190,534,-963,-245,460,656,724,676
635,892,248,-761,190,570,-993,-281,466,680,742,712
647,928,272,-785,184,600,-1035,-353,436,692,766,736
683,964,278,-821,202,624,-1053,-431,412,698,784,760
725,1042,314,-881,202,684,-1059,-533,376,710,802,784
707,1114,404,-911,148,756,-1041,-593,364,740,838,832
653,1210,554,-935,46,888,-1047,-689,334,782,898,904
653,1330,674,-989,-2,1002,-1083,-851,286,824,952,970
659,1426,758,-1037,-43,1092,-1125,-1001,244,884,1018,1042
641,1522,878,-1079,-115,1206,-1161,-1133,232,962,1102,1126
635,1588,950,-1109,-151,1266,-1167,-1223,256,1070,1210,1216
695,1654,956,-1175,-127,1302,-1221,-1343,274,1178,1318,1312
725,1744,1016,-1229,-145,1386,-1263,-1475,280,1304,1450,1414
743,1804,1052,-1271,-151,1434,-1317,-1589,280,1418,1552,1492
779,1822,1034,-1301,-121,1434,-1389,-1637,334,1538,1666,1570
839,1834,986,-1337,-67,1416,-1485,-1637,400,1658,1750,1642
875,1828,950,-1349,-31,1392,-1563,-1625,460,1760,1834,1696
899,1744,842,-1319,22,1296,-1575,-1547,526,1820,1876,1696
881,1636,746,-1253,64,1194,-1551,-1415,622,1874,1918,1702
821,1552,728,-1187,46,1140,-1467,-1259,736,1922,1924,1684
791,1492,698,-1145,46,1098,-1389,-1139,802,1910,1894,1624
767,1432,656,-1097,52,1044,-1305,-1055,802,1880,1840,1582
707,1378,668,-1037,16,1020,-1191,-941,850,1892,1834,1534
611,1330,716,-965,-43,1020,-1077,-833,880,1874,1774,1474
545,1252,704,-899,-73,978,-969,-779,736,1706,1624,1348
479,1066,584,-767,-49,828,-831,-671,574,1436,1390,1156
377,778,398,-575,-2,588,-627,-491,418,1064,1090,922
263,526,254,-395,-2,396,-447,-353,232,692,772,652
131,352,218,-239,-37,282,-279,-269,76,422,520,460
23,220,188,-119,-73,204,-165,-197,28,260,370,328
35,94,50,-65,-2,72,-99,-101,58,158,208,166
17,10,-4,-11,10,0,-51,-29,94,116,130,82
-7,-8,-4,6,-2,-6,-21,-11,94,104,112,70
-7,-19,-15,6,-2,-17,-9,-6,82,92,94,46
-12,-43,-27,24,-2,-35,-4,-6,64,68,70,22
-7,-61,-51,30,16,-59,14,0,52,38,34,-8
-12,-73,-57,42,16,-65,26,6,34,14,4,-19
-48,-85,-33,66,-2,-59,56,24,16,-10,-8,-25
-48,-103,-51,72,-2,-77,68,30,4,-21,-25,-43
-24,-115,-87,66,22,-101,56,24,-8,-63,-49,-67
-18,-133,-111,72,40,-125,68,24,-25,-81,-61,-79
-54,-139,-81,96,4,-113,92,42,-25,-87,-67,-91
-54,-151,-93,102,10,-125,98,48,-31,-99,-85,-103
-66,-169,-99,114,10,-137,104,54,-43,-111,-103,-121
-90,-175,-81,132,-2,-131,122,60,-37,-117,-103,-115
-102,-187,-81,144,-7,-137,146,84,-37,-123,-109,-121
-120,-187,-63,150,-25,-125,152,96,-31,-117,-121,-127
-96,-181,-81,138,-2,-131,152,90,-37,-141,-133,-133
-60,-181,-117,120,22,-149,146,78,-55,-159,-145,-157
-60,-181,-117,120,22,-149,146,72,-67,-171,-157,-163
-72,-187,-111,126,10,-149,152,78,-67,-165,-157,-163
-72,-187,-111,126,10,-149,152,78,-67,-177,-163,-163
-96,-199,-99,144,-2,-149,158,90,-61,-171,-151,-163
-114,-199,-81,156,-13,-143,164,102,-55,-165,-157,-163
-114,-205,-87,156,-7,-149,176,114,-61,-165,-157,-169
-102,-217,-111,156,-2,-167,182,114,-73,-171,-169,-169
-78,-217,-135,144,22,-179,176,96,-73,-183,-181,-181
-96,-205,-105,150,-2,-155,182,102,-73,-183,-175,-175
-96,-205,-105,150,-2,-155,188,108,-79,-195,-175,-187
-114,-211,-93,162,-7,-155,188,108,-79,-189,-175,-181
-114,-211,-93,162,-7,-155,182,102,-79,-183,-175,-175
-102,-205,-99,150,-2,-155,182,102,-79,-195,-181,-175
-108,-211,-99,156,-2,-155,188,114,-67,-189,-169,-175
-126,-211,-81,168,-19,-149,188,126,-67,-183,-169,-163
-126,-223,-93,174,-13,-161,200,132,-67,-171,-169,-169
-96,-223,-123,156,4,-173,194,126,-67,-189,-187,-181
-72,-223,-147,144,28,-185,194,120,-73,-201,-199,-199
-108,-217,-105,162,-2,-161,206,120,-73,-201,-205,-193
-108,-217,-105,162,-2,-161,206,120,-79,-207,-199,-193
-90,-217,-123,150,10,-173,194,108,-79,-219,-211,-211
-102,-217,-111,156,-2,-167,200,120,-79,-213,-205,-205
-126,-217,-87,168,-13,-155,212,138,-73,-207,-199,-187
-120,-217,-93,168,-7,-155,206,138,-61,-189,-187,-187
-90,-217,-123,150,10,-173,200,132,-67,-201,-199,-199
-84,-217,-129,150,16,-173,206,144,-73,-201,-199,-193
-90,-211,-117,150,4,-167,218,150,-73,-201,-205,-199
-108,-223,-111,162,-2,-167,212,150,-67,-207,-205,-205
-144,-223,-75,180,-31,-149,224,162,-61,-201,-205,-193
-138,-223,-81,180,-25,-155,236,162,-67,-207,-205,-199
-132,-229,-93,180,-13,-161,230,162,-67,-213,-211,-205
-114,-223,-105,168,-2,-167,218,162,-73,-213,-205,-211
-108,-217,-105,162,-2,-161,218,162,-79,-213,-205,-211
-114,-223,-105,168,-2,-167,224,168,-67,-213,-199,-205
-126,-229,-99,174,-7,-167,236,186,-61,-201,-211,-205
-108,-235,-123,168,-2,-179,236,192,-55,-213,-217,-217
-102,-235,-129,168,4,-185,236,192,-61,-213,-217,-223
-138,-247,-105,192,-13,-179,248,204,-49,-201,-211,-205
-168,-241,-69,204,-43,-155,266,216,-43,-195,-211,-199
-132,-229,-93,180,-13,-161,248,204,-61,-219,-229,-223
-126,-235,-105,180,-7,-173,248,198,-73,-225,-235,-229
-126,-247,-117,186,-2,-185,248,210,-67,-225,-223,-223
-132,-241,-105,186,-7,-173,254,210,-61,-225,-223,-223
-132,-247,-111,186,-7,-179,260,210,-61,-225,-235,-229
-96,-247,-147,168,16,-197,254,204,-79,-237,-247,-247
-96,-247,-153,174,22,-203,254,222,-73,-237,-247,-241
-132,-253,-123,192,-2,-191,284,234,-61,-231,-241,-235
-150,-259,-111,204,-13,-191,290,246,-55,-237,-241,-241
-162,-259,-99,210,-25,-185,302,252,-55,-237,-247,-235
-150,-253,-105,204,-19,-185,296,246,-61,-249,-247,-241
-132,-259,-129,198,-2,-197,296,240,-79,-255,-259,-247
-156,-271,-117,216,-13,-197,308,258,-67,-249,-247,-247
-156,-271,-117,216,-13,-197,314,264,-73,-249,-253,-241
-132,-283,-153,210,4,-221,314,258,-79,-261,-271,-253
-144,-283,-141,216,-2,-215,320,270,-73,-261,-271,-253
-150,-289,-141,222,-2,-221,338,282,-73,-261,-271,-253
-150,-301,-153,228,-2,-233,344,288,-67,-267,-283,-265
-156,-301,-147,228,-2,-227,356,306,-61,-273,-277,-259
-168,-301,-135,234,-13,-221,356,318,-61,-273,-289,-265
-204,-307,-105,252,-43,-209,380,330,-61,-273,-283,-271
-150,-313,-165,234,-2,-245,356,312,-85,-303,-313,-295
-108,-319,-213,216,46,-263,350,306,-103,-327,-331,-313
-162,-325,-165,246,-2,-245,374,318,-97,-327,-319,-307
-174,-343,-171,252,-2,-257,392,336,-85,-327,-319,-295
-156,-343,-189,246,10,-263,386,348,-97,-333,-331,-319
-156,-343,-189,246,10,-263,398,366,-91,-327,-331,-325
-162,-349,-189,252,4,-269,410,378,-91,-333,-343,-325
-162,-355,-195,252,10,-275,416,384,-85,-351,-349,-331
-204,-361,-159,276,-19,-257,440,414,-67,-351,-337,-319
-228,-361,-135,288,-43,-245,446,420,-79,-351,-343,-319
-198,-367,-171,276,-7,-269,446,426,-91,-375,-367,-337
-204,-373,-171,282,-13,-269,440,426,-91,-381,-367,-349
-222,-373,-153,294,-31,-263,458,438,-91,-387,-367,-343
-198,-379,-183,282,-2,-281,458,438,-97,-393,-385,-355
-168,-391,-225,276,22,-305,452,438,-115,-399,-397,-373
-174,-403,-231,282,22,-317,458,456,-97,-405,-397,-373
-198,-397,-201,294,-2,-299,470,468,-97,-405,-409,-379
-192,-403,-213,294,4,-305,482,480,-97,-417,-415,-385
-180,-403,-225,288,16,-311,482,480,-103,-423,-421,-391
-204,-409,-207,300,-2,-305,482,486,-103,-423,-421,-397
-216,-415,-201,312,-2,-305,494,504,-97,-429,-427,-391
-222,-427,-207,318,-2,-317,494,510,-97,-429,-421,-391
-234,-421,-189,324,-19,-305,494,510,-103,-435,-421,-391
-228,-433,-207,324,-7,-317,506,522,-91,-429,-421,-385
-192,-433,-243,306,16,-335,494,516,-109,-441,-439,-403
-210,-439,-231,318,4,-335,506,534,-91,-429,-427,-391
-246,-433,-189,336,-25,-311,524,552,-79,-411,-415,-385
-204,-433,-231,312,4,-329,506,534,-91,-441,-439,-403
-186,-433,-243,306,22,-341,494,528,-97,-453,-451,-403
-204,-427,-225,312,4,-323,500,534,-91,-447,-439,-397
-216,-427,-213,318,-2,-317,506,540,-85,-435,-427,-397
-222,-427,-207,318,-2,-317,500,534,-85,-435,-421,-385
-216,-415,-201,312,-2,-305,488,528,-91,-435,-427,-385
-180,-421,-243,294,22,-329,482,516,-97,-447,-433,-397
-192,-427,-237,306,16,-329,482,528,-79,-435,-421,-385
-210,-421,-213,312,-2,-317,482,540,-73,-411,-409,-361
-180,-415,-237,294,22,-323,476,534,-73,-417,-415,-373
-162,-415,-249,282,40,-335,464,528,-73,-429,-415,-379
-168,-409,-243,282,28,-323,452,516,-79,-417,-409,-373
-192,-403,-213,294,4,-305,452,516,-67,-399,-391,-349
-180,-391,-213,282,10,-299,440,510,-67,-399,-385,-349
-150,-385,-237,264,34,-311,428,504,-67,-405,-379,-349
-150,-373,-225,258,28,-299,416,492,-61,-387,-373,-343
-174,-367,-195,264,4,-281,410,492,-43,-357,-349,-331
-186,-355,-171,264,-2,-263,404,498,-25,-345,-337,-307
-180,-349,-171,258,-2,-257,386,486,-19,-333,-325,-301
-168,-337,-171,246,-2,-251,374,480,-25,-327,-313,-289
-138,-325,-189,234,16,-257,350,462,-19,-315,-301,-277
-96,-307,-213,204,52,-257,320,426,-31,-321,-301,-283
-90,-289,-201,192,46,-245,302,414,-19,-309,-295,-265
-96,-271,-177,186,34,-227,284,390,-25,-291,-283,-253
-108,-259,-153,186,16,-209,272,372,-8,-273,-259,-235
-108,-247,-135,174,4,-191,254,354,-8,-249,-241,-211
-66,-241,-171,150,46,-209,236,330,-8,-237,-223,-211
-42,-229,-183,132,64,-209,212,306,-8,-225,-217,-193
-66,-205,-135,132,28,-173,206,294,4,-195,-187,-169
-90,-181,-87,132,-2,-137,194,282,4,-171,-169,-151
-54,-169,-111,108,22,-143,170,252,-2,-171,-163,-145
-48,-157,-105,102,22,-131,158,234,4,-153,-145,-133
-42,-139,-93,90,16,-119,146,210,-2,-141,-127,-121
-30,-127,-93,78,22,-113,122,168,-8,-147,-127,-115
-36,-115,-75,72,10,-95,104,150,-2,-135,-109,-97
-48,-103,-51,72,-2,-77,98,132,4,-111,-91,-79
-48,-97,-45,72,-2,-71,98,120,-2,-87,-73,-67
-72,-97,-21,84,-19,-59,98,120,16,-63,-49,-43
-48,-85,-33,66,-2,-59,86,90,4,-69,-43,-43
-7,-79,-75,36,28,-77,74,66,-8,-69,-61,-49
-7,-73,-69,36,28,-71,62,48,-8,-63,-55,-43
-48,-67,-15,54,-13,-41,62,42,-8,-57,-37,-31
-66,-61,-4,60,-31,-29,68,36,-8,-45,-25,-19
-54,-61,-4,54,-19,-35,62,18,-8,-45,-31,-31
-30,-55,-21,42,-2,-41,44,-6,-25,-51,-37,-43
-36,-49,-9,42,-7,-29,38,-6,-31,-51,-31,-31
-24,-61,-33,42,-2,-47,38,-17,-31,-57,-31,-31
-7,-61,-63,24,28,-59,32,-29,-49,-57,-37,-43
-30,-61,-27,42,-2,-47,38,-23,-31,-45,-25,-25
-72,-55,8,60,-43,-17,50,-17,-31,-33,-25,-19
-54,-61,-4,54,-19,-35,44,-29,-43,-51,-31,-25
-48,-61,-9,54,-13,-35,44,-29,-43,-57,-37,-31
-54,-55,-4,54,-25,-29,38,-35,-55,-69,-43,-31
-24,-49,-21,36,-2,-35,26,-53,-61,-69,-49,-43
-7,-55,-45,30,10,-53,20,-59,-67,-75,-49,-37
-36,-49,-9,42,-7,-29,32,-59,-67,-57,-43,-37
-36,-49,-9,42,-7,-29,32,-59,-67,-63,-49,-31
-42,-61,-15,48,-7,-41,32,-59,-61,-57,-43,-31
-72,-61,2,66,-37,-23,50,-41,-49,-45,-31,-19
-30,-55,-21,42,-2,-41,32,-53,-73,-63,-49,-43
-18,-61,-39,36,4,-53,26,-53,-73,-69,-55,-43
-54,-55,-4,54,-25,-29,38,-41,-55,-63,-49,-31
-72,-55,8,60,-43,-17,50,-35,-55,-63,-43,-25
-60,-55,-4,54,-31,-23,38,-47,-61,-69,-43,-37
-66,-55,2,60,-37,-23,38,-47,-61,-63,-43,-25
-42,-61,-15,48,-7,-41,32,-53,-73,-69,-49,-37
-7,-55,-51,24,16,-53,20,-65,-85,-81,-67,-55
-18,-55,-33,36,-2,-47,20,-53,-67,-69,-55,-43
-54,-61,-4,54,-19,-35,38,-41,-49,-51,-31,-25
-66,-55,2,60,-37,-23,44,-35,-55,-51,-49,-37
-36,-61,-21,48,-2,-41,38,-41,-67,-69,-55,-43
-24,-61,-33,42,-2,-47,26,-41,-67,-75,-61,-55
-48,-49,-4,48,-19,-23,32,-41,-55,-69,-55,-49
-30,-49,-15,36,-2,-35,26,-41,-67,-69,-55,-49
-36,-55,-15,42,-7,-35,26,-35,-55,-63,-37,-37
-66,-55,2,60,-37,-23,32,-29,-43,-51,-31,-37
-72,-49,14,60,-43,-11,44,-23,-37,-45,-31,-31
-54,-43,2,48,-31,-17,44,-23,-37,-45,-37,-37
-48,-49,-4,48,-19,-23,38,-29,-43,-45,-49,-43
-48,-55,-4,48,-19,-29,38,-23,-49,-51,-55,-43
-36,-49,-9,42,-7,-29,32,-23,-43,-63,-49,-49
-48,-43,-4,42,-25,-17,38,-11,-37,-45,-37,-43
-48,-49,-4,48,-19,-23,44,-11,-31,-51,-49,-37
-30,-43,-9,36,-7,-29,32,-23,-43,-63,-55,-43
-36,-43,-4,36,-13,-23,32,-17,-43,-57,-49,-43
-30,-49,-15,36,-2,-35,38,-11,-37,-51,-43,-43
-42,-49,-4,42,-13,-29,38,-11,-37,-57,-49,-49
-54,-55,-4,54,-25,-29,44,-6,-31,-51,-37,-37
-48,-55,-4,48,-19,-29,44,-6,-31,-51,-37,-31
-30,-55,-21,42,-2,-41,50,-11,-37,-51,-43,-43
-24,-49,-21,36,-2,-35,44,-6,-37,-57,-49,-49
-30,-49,-15,36,-2,-35,44,-6,-37,-63,-49,-43
-24,-49,-21,36,-2,-35,50,-6,-37,-69,-49,-43
-24,-37,-9,30,-2,-23,38,-6,-43,-69,-49,-55
-48,-49,-4,48,-19,-23,50,-6,-31,-63,-31,-43
-24,-55,-27,36,-2,-41,44,-6,-37,-63,-43,-43
-30,-49,-15,36,-2,-35,44,-6,-37,-69,-49,-49
-48,-49,-4,48,-19,-23,50,-6,-25,-57,-37,-43
-66,-49,8,54,-37,-17,56,6,-13,-51,-31,-25
-60,-55,-4,54,-31,-23,62,6,-25,-57,-43,-25
-54,-49,-4,48,-25,-23,62,6,-31,-63,-37,-37
-84,-43,32,60,-61,-6,62,18,-13,-51,-31,-31
-78,-43,26,60,-55,-6,62,12,-19,-63,-37,-25
-66,-43,14,54,-43,-11,62,6,-25,-63,-37,-31
-36,-43,-4,36,-13,-23,44,-6,-37,-75,-49,-43
-30,-43,-9,36,-7,-29,38,-6,-37,-69,-55,-49
-66,-49,8,54,-37,-17,56,0,-25,-57,-37,-31
-66,-49,8,54,-37,-17,62,0,-25,-57,-37,-37
-30,-49,-15,36,-2,-35,56,-6,-31,-63,-43,-49
-30,-43,-9,36,-7,-29,56,0,-31,-57,-37,-49
-42,-37,-4,36,-19,-17,56,6,-31,-57,-37,-37
-36,-43,-4,36,-13,-23,50,0,-25,-63,-43,-43
-48,-43,-4,42,-25,-17,56,-6,-25,-63,-43,-43
-54,-43,2,48,-31,-17,56,-6,-37,-69,-49,-49
-66,-43,14,54,-43,-11,62,-6,-31,-63,-31,-31
-84,-43,32,60,-61,-6,68,6,-19,-51,-25,-31
-66,-49,8,54,-37,-17,56,0,-31,-63,-37,-43
-30,-55,-21,42,-2,-41,44,-11,-49,-69,-49,-55
-48,-55,-4,48,-19,-29,56,-6,-37,-57,-37,-43
-72,-49,14,60,-43,-11,62,-6,-37,-51,-31,-31
-60,-55,-4,54,-31,-23,68,0,-37,-51,-31,-37
-66,-49,8,54,-37,-17,62,-6,-37,-57,-37,-37
-60,-49,2,54,-31,-17,56,-6,-43,-63,-43,-43
-48,-49,-4,48,-19,-23,50,-11,-55,-69,-49,-49
-66,-49,8,54,-37,-17,62,-11,-43,-69,-37,-31
-66,-49,8,54,-37,-17,56,-11,-43,-75,-43,-37
-48,-55,-4,48,-19,-29,50,-17,-49,-75,-49,-43
-36,-61,-21,48,-2,-41,50,-17,-49,-63,-31,-43
-24,-55,-27,36,-2,-41,44,-17,-55,-69,-37,-43
-12,-55,-39,30,4,-47,32,-17,-55,-75,-49,-43
-30,-49,-15,36,-2,-35,44,-17,-61,-81,-49,-43
-60,-49,2,54,-31,-17,56,-17,-55,-63,-37,-37
-66,-49,8,54,-37,-17,56,-11,-49,-69,-43,-37
-54,-49,-4,48,-25,-23,50,-23,-67,-87,-55,-43
-36,-55,-15,42,-7,-35,44,-29,-61,-81,-43,-37
-42,-55,-9,48,-13,-35,44,-29,-61,-75,-43,-43
-30,-55,-21,42,-2,-41,32,-35,-79,-87,-55,-61
-42,-61,-15,48,-7,-41,44,-35,-67,-75,-55,-49
-30,-61,-27,42,-2,-47,44,-35,-61,-75,-55,-43
-36,-61,-21,48,-2,-41,44,-35,-67,-75,-49,-49
-84,-55,20,66,-55,-11,56,-17,-61,-69,-37,-37
-84,-55,20,66,-55,-11,50,-29,-55,-81,-49,-37
-36,-49,-9,42,-7,-29,38,-47,-73,-93,-67,-49
-30,-55,-21,42,-2,-41,38,-41,-85,-93,-73,-55
-60,-61,-4,60,-25,-29,50,-41,-73,-87,-55,-49
-66,-67,-4,66,-31,-35,44,-41,-67,-81,-49,-43
-72,-67,-4,66,-37,-29,44,-35,-73,-81,-55,-43
-78,-67,2,72,-43,-29,56,-29,-61,-63,-49,-37
-54,-67,-9,60,-19,-41,50,-47,-73,-75,-55,-37
-60,-61,-4,60,-25,-29,44,-41,-73,-75,-61,-49
-84,-67,8,72,-49,-23,50,-35,-67,-75,-49,-37
-66,-67,-4,66,-31,-35,44,-47,-79,-93,-55,-43
-84,-61,14,72,-49,-17,50,-35,-73,-81,-49,-31
-48,-61,-9,54,-13,-35,44,-53,-85,-93,-61,-43
-7,-61,-51,30,16,-59,26,-77,-103,-111,-73,-67
-54,-67,-9,60,-19,-41,38,-59,-85,-87,-61,-49
-84,-67,8,72,-49,-23,50,-41,-73,-75,-49,-43
-54,-67,-9,60,-19,-41,38,-47,-79,-75,-55,-43
-42,-73,-27,54,-2,-53,38,-53,-85,-81,-55,-43
-30,-67,-33,48,-2,-53,32,-59,-85,-87,-67,-61
-12,-67,-51,36,10,-59,32,-65,-103,-99,-73,-61
-60,-67,-4,60,-25,-35,44,-53,-79,-81,-55,-49
-120,-67,44,90,-85,-6,62,-29,-61,-69,-37,-31
-102,-67,26,84,-67,-17,56,-41,-73,-75,-43,-31
-78,-61,8,66,-43,-23,44,-53,-85,-87,-55,-43
-66,-67,-4,66,-31,-35,44,-53,-79,-81,-61,-49
-66,-67,-4,66,-31,-35,38,-53,-79,-81,-55,-43
-36,-73,-33,54,-2,-53,38,-53,-91,-87,-61,-55
-42,-73,-27,54,-2,-53,44,-59,-97,-87,-67,-55
-66,-73,-4,66,-25,-41,38,-47,-91,-81,-61,-43
-72,-73,-4,72,-31,-35,50,-47,-85,-81,-55,-43
-42,-73,-27,54,-2,-53,38,-59,-91,-99,-67,-61
-30,-67,-33,48,-2,-53,26,-59,-97,-105,-79,-67
-54,-67,-9,60,-19,-41,32,-65,-97,-93,-67,-61
-84,-67,8,72,-49,-23,38,-53,-85,-87,-49,-37
-72,-73,-4,72,-31,-35,38,-53,-85,-87,-55,-49
-66,-73,-4,66,-25,-41,38,-47,-79,-87,-49,-43
-72,-73,-4,72,-31,-35,44,-47,-79,-75,-43,-37
-54,-79,-21,66,-13,-53,44,-53,-85,-81,-49,-43
-96,-85,2,90,-49,-35,62,-35,-73,-63,-43,-37
-132,-85,38,108,-85,-17,74,-23,-67,-63,-37,-31
-96,-73,14,84,-55,-23,56,-41,-73,-75,-43,-37
-78,-73,-4,72,-37,-35,56,-47,-79,-81,-49,-37
-120,-67,44,90,-85,-6,62,-41,-73,-75,-43,-37
-54,-73,-15,60,-13,-47,38,-65,-91,-93,-61,-49
-7,-73,-75,30,34,-71,14,-83,-115,-105,-79,-67
-30,-67,-33,48,-2,-53,38,-65,-91,-93,-67,-55
-78,-73,-4,72,-37,-35,50,-53,-79,-81,-55,-43
-78,-79,-4,78,-37,-41,50,-41,-85,-75,-49,-37
-60,-79,-15,66,-19,-47,44,-41,-85,-81,-61,-49
-66,-73,-4,66,-25,-41,50,-47,-91,-87,-61,-55
-54,-67,-9,60,-19,-41,50,-47,-85,-93,-61,-49
-12,-55,-39,30,4,-47,38,-53,-91,-99,-73,-55
-7,-49,-45,24,16,-47,38,-47,-91,-99,-67,-67
-30,-43,-9,36,-7,-29,62,-35,-67,-75,-49,-49
-36,-43,-4,36,-13,-23,56,-29,-67,-69,-43,-43
-24,-37,-9,30,-2,-23,56,-29,-67,-69,-49,-43
-24,-31,-4,24,-7,-17,50,-29,-61,-63,-43,-37
-24,-19,-4,18,-13,-6,56,-23,-61,-63,-43,-43
-7,-8,-4,6,-2,-6,50,-29,-67,-63,-49,-49
-48,-8,32,24,-43,6,68,-11,-43,-51,-31,-31
-96,-8,80,48,-91,30,80,-6,-37,-39,-19,-13
-54,-8,50,24,-49,18,74,-17,-43,-51,-31,-25
-36,-8,26,18,-31,6,74,-11,-43,-51,-31,-25
-60,-8,50,30,-55,18,74,-23,-49,-45,-31,-37
-78,-8,62,42,-73,18,74,-17,-43,-45,-31,-31
-42,-8,26,24,-37,0,68,-35,-61,-63,-49,-37
-24,-8,20,6,-19,6,56,-35,-61,-57,-43,-43
-48,10,62,12,-55,36,68,-23,-49,-39,-25,-25
-54,22,80,6,-67,48,74,-17,-37,-27,-19,-13
-60,22,86,12,-73,54,62,-17,-37,-33,-19,-13
-54,22,80,6,-67,48,50,-17,-37,-27,-13,-8
-66,22,92,12,-79,54,50,-23,-43,-27,-13,-8
-60,22,86,12,-73,54,38,-35,-43,-33,-25,-8
-12,22,38,1,-25,30,8,-59,-67,-45,-25,-25
-7,28,26,-11,-7,30,-4,-59,-55,-45,-19,-25
-7,22,20,-5,-7,24,-4,-41,-49,-45,-13,-13
-12,16,32,6,-19,24,2,-35,-37,-27,-13,-8
-36,10,50,6,-43,30,32,-17,-25,-10,-8,-8
-24,16,44,6,-31,30,32,-6,-13,-27,-8,-8
-7,22,26,-5,-13,24,26,-11,-13,-27,-8,-8
11,22,2,-17,-2,12,20,-11,-19,-21,-13,-8
-7,28,26,-11,-7,30,20,-11,-13,-21,-8,-2
-7,22,20,-5,-7,24,2,-23,-25,-27,-8,-2
11,10,-4,-11,4,0,-4,-41,-43,-33,-8,-8
11,4,-4,-5,10,-6,-4,-47,-43,-39,-8,-8
-1,-8,-4,6,4,-6,-4,-53,-55,-39,-19,-13
-24,-13,2,18,-13,-6,2,-47,-43,-33,-19,-8
-24,-31,-4,24,-7,-17,8,-59,-55,-33,-19,-13
-7,-37,-33,18,10,-35,-4,-65,-61,-63,-37,-31
-18,-49,-27,30,-2,-41,2,-65,-67,-63,-43,-31
-18,-55,-33,36,-2,-47,2,-59,-73,-75,-55,-43
-18,-73,-51,42,10,-65,8,-59,-85,-81,-55,-55
-36,-73,-33,54,-2,-53,2,-59,-85,-75,-55,-49
-54,-79,-21,66,-13,-53,2,-65,-79,-75,-43,-49
-54,-91,-33,72,-7,-65,-4,-65,-73,-75,-49,-55
-60,-91,-27,72,-13,-59,-4,-65,-73,-75,-55,-49
-30,-91,-57,60,4,-77,-21,-77,-79,-75,-55,-49
-7,-91,-93,42,40,-89,-39,-71,-85,-75,-55,-49
5,-79,-93,30,46,-83,-57,-71,-73,-75,-55,-55
11,-79,-99,24,52,-89,-57,-71,-61,-63,-37,-43
5,-61,-75,18,40,-65,-75,-59,-49,-51,-25,-25
11,-43,-63,6,34,-53,-99,-53,-43,-39,-13,-19
23,-31,-63,6,40,-47,-129,-65,-31,-27,-8,-8
35,-13,-57,-5,46,-35,-153,-59,-25,-10,4,-2
53,-2,-51,-23,52,-17,-177,-53,-8,-4,16,4
65,-8,-75,-23,70,-35,-189,-53,-8,8,28,10
53,-8,-57,-23,58,-23,-195,-53,10,26,34,28
53,16,-33,-35,46,-6,-207,-35,34,50,52,46
59,34,-21,-47,40,0,-237,-35,52,74,82,76
101,40,-57,-71,82,-6,-273,-53,46,68,82,76
161,58,-99,-107,130,-11,-327,-95,34,62,82,70
173,76,-93,-125,136,-6,-363,-113,40,80,94,88
161,100,-57,-131,112,18,-405,-143,40,86,118,112
203,124,-75,-161,142,18,-453,-173,34,110,130,118
245,148,-99,-197,178,18,-489,-185,40,122,148,136
221,172,-45,-197,136,60,-501,-191,58,158,190,172
215,196,-15,-203,118,84,-525,-227,76,182,214,208
233,226,-4,-227,118,108,-555,-245,82,206,232,220
245,250,-4,-245,124,126,-579,-245,100,230,256,238
245,274,20,-257,112,150,-597,-269,112,242,280,256
269,316,38,-293,112,180,-615,-281,130,272,310,274
341,358,8,-347,166,186,-657,-305,130,278,316,292
353,400,38,-377,154,222,-687,-311,154,314,352,334
323,430,98,-377,112,264,-705,-317,184,362,400,382
365,454,80,-407,142,264,-735,-347,190,374,424,412
389,478,80,-431,154,276,-735,-353,214,404,454,436
419,502,80,-461,166,294,-735,-341,238,434,478,454
443,556,110,-497,166,336,-753,-317,274,464,514,484
437,610,170,-521,130,390,-777,-311,316,512,568,532
449,670,218,-557,112,444,-831,-305,340,560,616,568
521,724,200,-623,160,468,-909,-353,334,572,634,592
551,772,218,-665,166,492,-939,-389,334,596,658,628
575,796,218,-689,178,504,-951,-359,346,614,676,658
617,802,182,-713,220,492,-963,-323,364,608,682,652
659,838,176,-743,238,504,-1005,-347,370,614,700,670
659,880,218,-767,220,546,-1029,-389,358,650,736,724
671,916,236,-791,214,576,-1053,-455,346,656,760,748
683,982,296,-833,190,642,-1053,-539,322,680,790,778
671,1060,386,-863,142,726,-1041,-599,316,722,832,832
689,1156,464,-923,112,810,-1059,-701,280,752,874,880
707,1258,548,-977,76,906,-1095,-893,208,764,910,928
701,1360,656,-1025,16,1008,-1131,-1073,142,800,958,988
659,1456,794,-1055,-61,1128,-1155,-1223,118,884,1054,1090
653,1528,872,-1091,-103,1206,-1149,-1307,130,974,1144,1174
719,1594,872,-1157,-73,1230,-1173,-1397,160,1082,1246,1258
725,1696,968,-1211,-115,1332,-1215,-1523,166,1208,1390,1378
761,1756,986,-1259,-109,1374,-1245,-1655,160,1316,1492,1468
827,1774,944,-1301,-49,1362,-1311,-1715,178,1418,1582,1528
869,1780,908,-1325,-13,1344,-1407,-1727,238,1544,1702,1606
893,1792,896,-1343,-2,1344,-1485,-1733,292,1652,1792,1684
941,1732,788,-1337,70,1260,-1521,-1691,340,1694,1828,1684
941,1642,698,-1289,118,1170,-1521,-1559,442,1748,1870,1690
887,1570,680,-1223,100,1128,-1467,-1409,556,1796,1918,1702
851,1510,656,-1181,94,1086,-1395,-1265,664,1826,1900,1666
809,1444,626,-1127,88,1032,-1305,-1157,694,1808,1858,1606
773,1378,596,-1073,88,984,-1215,-1049,712,1796,1834,1558
719,1342,620,-1025,46,978,-1113,-917,796,1808,1804,1510
611,1288,674,-953,-25,978,-999,-809,790,1748,1714,1444
497,1162,656,-827,-73,912,-873,-701,688,1586,1564,1300
425,940,506,-683,-37,726,-717,-557,544,1292,1300,1084
311,640,320,-479,-2,480,-519,-389,370,908,976,820
203,418,212,-305,-2,312,-345,-281,202,584,676,580
125,280,152,-203,-7,222,-237,-245,40,338,448,400
83,160,68,-119,4,114,-153,-161,34,212,280,232
47,58,2,-53,16,30,-75,-53,100,152,172,124
17,10,-4,-11,10,0,-39,-23,100,122,124,70
-7,-8,2,6,-2,-6,-21,-11,100,116,118,70
-1,-13,-21,6,10,-17,-9,-6,76,86,94,46
23,-31,-63,6,40,-47,-4,0,64,68,70,16
29,-49,-87,6,58,-65,8,0,46,26,34,-8
-30,-67,-33,48,-2,-53,38,24,40,14,16,-8
-84,-79,-4,78,-43,-35,68,48,34,-4,-2,-25
-42,-97,-51,66,-2,-77,68,30,10,-33,-19,-55
-18,-97,-75,54,22,-89,62,24,-8,-69,-49,-79
-30,-103,-69,66,10,-89,68,30,-8,-81,-73,-97
-7,-121,-111,60,46,-119,68,30,-25,-99,-97,-115
-12,-139,-123,72,46,-131,86,48,-25,-93,-91,-103
-60,-151,-87,102,4,-119,98,72,-19,-93,-97,-109
-66,-157,-87,108,4,-125,116,72,-25,-105,-103,-121
-84,-169,-81,126,-2,-125,128,84,-25,-111,-121,-133
-84,-175,-87,126,-2,-131,134,96,-25,-111,-133,-133
-84,-181,-93,132,-2,-137,134,90,-43,-129,-145,-151
-90,-181,-87,132,-2,-137,140,90,-43,-141,-151,-151
-84,-175,-87,126,-2,-131,140,90,-43,-141,-145,-151
-90,-175,-81,132,-2,-131,140,90,-49,-153,-151,-151
-102,-181,-75,138,-7,-131,152,96,-43,-147,-151,-151
-102,-187,-81,144,-7,-137,158,96,-43,-153,-151,-163
-96,-181,-81,138,-2,-131,158,114,-43,-153,-157,-163
-60,-193,-129,126,28,-161,152,102,-55,-165,-169,-175
-78,-205,-123,138,16,-167,164,108,-55,-165,-175,-181
-114,-199,-81,156,-13,-143,176,120,-49,-159,-169,-169
-132,-199,-63,162,-31,-131,188,132,-37,-153,-169,-169
-66,-199,-129,132,22,-167,170,102,-61,-183,-193,-181
-66,-193,-123,126,22,-161,164,102,-67,-183,-181,-181
-132,-193,-57,162,-31,-125,176,120,-55,-165,-169,-169
-132,-193,-57,162,-31,-125,182,120,-55,-171,-169,-169
-102,-199,-93,150,-2,-149,176,114,-61,-177,-175,-175
-102,-199,-93,150,-2,-149,176,126,-55,-171,-175,-175
-102,-205,-99,150,-2,-155,182,126,-61,-177,-181,-187
-60,-211,-147,132,34,-179,176,120,-73,-195,-193,-199
-66,-205,-135,132,28,-173,182,126,-67,-189,-199,-199
-126,-199,-69,162,-25,-137,206,144,-49,-171,-193,-181
-120,-199,-75,156,-19,-137,212,150,-43,-177,-193,-181
-90,-199,-105,144,-2,-155,194,132,-61,-189,-199,-199
-72,-199,-123,132,16,-161,188,126,-73,-201,-211,-211
-96,-199,-99,144,-2,-149,200,138,-61,-183,-187,-193
-108,-205,-93,156,-2,-149,200,150,-55,-177,-181,-187
-72,-199,-123,132,16,-161,182,144,-73,-189,-211,-211
-96,-211,-111,150,-2,-161,200,156,-55,-177,-199,-193
-102,-217,-111,156,-2,-167,212,168,-49,-177,-193,-193
-102,-217,-111,156,-2,-167,212,174,-43,-183,-211,-199
-108,-217,-105,162,-2,-161,212,174,-43,-183,-205,-205
-84,-217,-129,150,16,-173,206,174,-49,-195,-211,-211
-96,-211,-111,150,-2,-161,206,168,-55,-201,-211,-205
-90,-211,-117,150,4,-167,206,168,-55,-195,-217,-217
-96,-211,-111,150,-2,-161,212,174,-55,-195,-217,-211
-108,-211,-99,156,-2,-155,218,192,-43,-189,-211,-199
-108,-211,-99,156,-2,-155,218,204,-43,-195,-211,-205
-126,-217,-87,168,-13,-155,230,204,-31,-183,-211,-205
-168,-229,-57,198,-49,-143,242,222,-13,-177,-193,-199
-144,-229,-81,186,-25,-155,242,222,-25,-189,-217,-217
-90,-223,-129,156,10,-179,230,204,-49,-213,-247,-229
-60,-229,-165,144,46,-197,230,198,-55,-231,-253,-247
-60,-235,-171,144,46,-203,230,198,-55,-231,-253,-247
-114,-229,-111,168,-2,-173,236,210,-49,-225,-247,-235
-138,-229,-87,180,-19,-161,260,228,-37,-207,-223,-211
-120,-235,-111,174,-2,-173,254,234,-43,-219,-235,-223
-120,-241,-117,180,-2,-179,254,234,-49,-213,-241,-223
-102,-247,-141,174,10,-197,254,240,-43,-219,-235,-229
-138,-247,-105,192,-13,-179,284,252,-31,-207,-235,-223
-162,-247,-87,204,-31,-173,284,264,-31,-207,-235,-229
-120,-253,-135,186,-2,-197,272,252,-49,-237,-253,-247
-144,-253,-111,198,-13,-185,290,258,-43,-231,-259,-241
-192,-253,-63,222,-61,-161,296,270,-43,-231,-247,-241
-180,-259,-81,222,-43,-173,302,282,-43,-237,-247,-235
-174,-259,-87,216,-37,-179,302,276,-49,-243,-265,-247
-186,-265,-81,228,-49,-179,308,288,-49,-237,-259,-241
-186,-271,-87,228,-43,-185,326,294,-43,-237,-259,-247
-150,-277,-129,216,-7,-209,314,300,-49,-249,-271,-253
-114,-277,-165,198,16,-227,308,300,-61,-255,-301,-283
-144,-283,-141,216,-2,-215,326,312,-61,-261,-307,-283
-162,-289,-129,228,-13,-215,332,312,-61,-273,-307,-277
-156,-289,-135,222,-7,-215,338,330,-67,-279,-313,-283
-162,-295,-135,228,-7,-221,350,336,-67,-279,-307,-283
-156,-289,-135,222,-7,-215,350,330,-73,-297,-319,-295
-162,-301,-141,234,-7,-227,356,342,-67,-297,-319,-295
-186,-319,-135,246,-19,-233,374,360,-55,-291,-313,-289
-180,-319,-141,246,-13,-233,386,378,-67,-297,-319,-307
-192,-331,-141,258,-19,-239,392,384,-61,-297,-325,-301
-210,-337,-129,270,-37,-239,416,408,-49,-297,-331,-307
-222,-331,-111,270,-49,-227,416,420,-55,-315,-343,-313
-210,-331,-123,264,-37,-233,416,420,-61,-333,-355,-319
-198,-337,-141,264,-25,-245,422,426,-67,-339,-361,-319
-186,-343,-159,258,-7,-251,422,426,-73,-345,-373,-331
-186,-343,-159,258,-7,-251,428,432,-79,-357,-379,-343
-216,-361,-147,282,-31,-251,440,450,-67,-351,-373,-343
-228,-361,-135,288,-43,-245,452,462,-67,-351,-385,-343
-216,-361,-147,282,-31,-251,458,474,-73,-357,-385,-349
-198,-367,-171,276,-7,-269,458,480,-67,-363,-391,-355
-198,-379,-183,282,-2,-281,458,486,-73,-375,-409,-373
-228,-385,-159,300,-31,-269,470,498,-67,-381,-409,-373
-252,-385,-129,318,-61,-257,482,510,-61,-375,-403,-361
-246,-391,-147,312,-43,-269,488,522,-61,-381,-403,-361
-198,-385,-189,288,-2,-287,476,504,-79,-399,-421,-385
-168,-379,-213,270,16,-293,470,504,-97,-417,-439,-397
-168,-391,-225,276,22,-305,464,504,-97,-417,-433,-397
-186,-385,-201,282,-2,-293,476,522,-85,-405,-433,-385
-192,-397,-207,288,-2,-299,482,534,-79,-399,-433,-391
-198,-409,-213,300,-2,-311,482,540,-67,-399,-433,-397
-246,-415,-171,324,-31,-293,494,564,-49,-381,-421,-379
-246,-415,-171,324,-31,-293,500,564,-61,-399,-421,-385
-228,-409,-183,312,-19,-293,488,552,-73,-411,-433,-397
-204,-403,-201,300,-2,-299,482,552,-73,-417,-433,-391
-204,-397,-195,294,-2,-293,476,546,-73,-411,-433,-403
-216,-403,-189,306,-7,-293,482,552,-67,-405,-427,-391
-204,-397,-195,294,-2,-293,470,546,-67,-405,-421,-379
-180,-391,-213,282,10,-299,470,546,-73,-399,-421,-379
-204,-391,-189,294,-2,-287,476,552,-67,-387,-415,-379
-216,-385,-171,294,-19,-275,464,552,-55,-387,-409,-367
-216,-385,-171,294,-19,-275,464,558,-43,-375,-391,-355
-204,-373,-171,282,-13,-269,458,558,-49,-375,-391,-355
-174,-367,-195,264,4,-281,440,534,-61,-387,-403,-367
-204,-361,-159,276,-19,-257,434,540,-49,-375,-391,-349
-198,-355,-159,270,-13,-257,422,540,-37,-363,-379,-343
-192,-343,-153,264,-13,-245,410,534,-43,-357,-373,-331
-150,-331,-183,240,10,-257,392,510,-49,-357,-373,-325
-126,-325,-201,228,28,-263,368,498,-49,-345,-361,-325
-162,-319,-159,240,-2,-245,368,498,-25,-321,-343,-307
-174,-307,-135,240,-13,-227,362,492,-13,-309,-319,-289
-162,-295,-135,228,-7,-221,350,480,-8,-297,-307,-283
-126,-277,-153,204,4,-221,326,474,-13,-285,-301,-277
-126,-271,-147,198,4,-215,320,462,-8,-273,-277,-253
-114,-253,-141,186,4,-203,296,432,-8,-267,-277,-247
-114,-241,-123,174,-2,-185,278,408,-8,-261,-265,-241
-120,-223,-99,168,-7,-161,260,396,4,-237,-235,-205
-102,-205,-99,150,-2,-155,242,372,4,-219,-223,-205
-48,-199,-147,120,40,-173,212,330,-8,-225,-229,-205
-30,-187,-153,108,52,-173,194,306,-8,-201,-211,-187
-42,-175,-129,108,34,-155,194,300,4,-177,-181,-163
-60,-151,-87,102,4,-119,176,276,22,-153,-157,-139
-78,-133,-51,102,-7,-95,170,252,28,-135,-145,-121
-60,-127,-63,90,-2,-95,152,234,22,-129,-139,-115
-36,-109,-69,72,10,-89,128,204,16,-129,-133,-109
-42,-103,-57,72,-2,-83,122,186,16,-111,-115,-97
-24,-91,-63,54,10,-77,92,150,-2,-105,-115,-91
-18,-79,-57,48,10,-71,86,132,4,-87,-97,-79
-24,-67,-39,42,-2,-53,86,120,10,-69,-79,-55
-36,-67,-27,48,-2,-47,74,102,4,-63,-67,-61
-48,-61,-9,54,-13,-35,74,96,16,-45,-49,-43
-12,-49,-33,30,4,-41,62,60,4,-51,-61,-49
-7,-43,-45,18,16,-41,56,42,-8,-57,-61,-49
-24,-43,-15,30,-2,-29,56,30,-8,-45,-55,-43
-7,-37,-33,18,10,-35,38,12,-8,-51,-55,-37
-7,-31,-21,18,-2,-29,32,0,-13,-51,-55,-37
-30,-25,-4,24,-13,-11,38,-6,-19,-51,-43,-25
-12,-25,-9,18,-2,-17,32,-6,-25,-39,-43,-37
-18,-31,-9,24,-2,-23,26,-11,-25,-39,-49,-37
-30,-31,-4,30,-13,-17,38,-11,-19,-27,-43,-31
-24,-31,-4,24,-7,-17,32,-17,-13,-33,-31,-31
-42,-31,2,36,-25,-11,32,-29,-25,-27,-37,-19
-48,-37,2,42,-25,-11,38,-35,-25,-33,-37,-25
-36,-43,-4,36,-13,-23,38,-29,-25,-39,-43,-37
-36,-43,-4,36,-13,-23,32,-29,-43,-45,-49,-31
-30,-37,-4,30,-7,-23,20,-41,-49,-51,-61,-37
-30,-43,-9,36,-7,-29,32,-41,-43,-45,-43,-31
-18,-49,-27,30,-2,-41,26,-41,-49,-51,-49,-37
-7,-43,-33,24,4,-41,14,-53,-55,-51,-61,-37
-30,-37,-4,30,-7,-23,26,-47,-55,-45,-55,-31
-60,-43,8,48,-37,-11,38,-29,-37,-27,-31,-19
-60,-37,14,48,-37,-6,44,-29,-37,-33,-43,-25
-48,-37,2,42,-25,-11,32,-41,-43,-33,-49,-31
-30,-49,-15,36,-2,-35,32,-35,-49,-45,-49,-43
-48,-43,-4,42,-25,-17,38,-41,-43,-51,-55,-25
-48,-31,8,36,-31,-6,32,-47,-55,-51,-55,-31
-24,-37,-9,30,-2,-23,26,-47,-61,-45,-49,-37
-18,-37,-15,24,-2,-29,20,-41,-55,-51,-49,-37
-36,-37,-4,36,-13,-17,32,-35,-43,-45,-49,-25
-30,-37,-4,30,-7,-23,26,-35,-43,-51,-55,-31
-18,-43,-21,30,-2,-35,26,-29,-43,-45,-49,-31
-30,-37,-4,30,-7,-23,26,-35,-49,-51,-61,-49
-18,-43,-21,30,-2,-35,26,-35,-49,-51,-55,-49
-18,-37,-15,24,-2,-29,26,-29,-43,-51,-55,-37
-18,-49,-27,30,-2,-41,20,-29,-43,-57,-61,-37
-12,-43,-27,24,-2,-35,20,-35,-49,-57,-61,-37
-18,-31,-9,24,-2,-23,26,-29,-43,-51,-49,-37
-24,-31,-4,24,-7,-17,26,-17,-37,-33,-43,-31
-12,-31,-15,18,-2,-23,20,-29,-49,-45,-55,-31
-42,-37,-4,36,-19,-17,38,-17,-43,-39,-43,-31
-42,-43,-4,42,-19,-23,38,-11,-31,-33,-37,-31
-18,-31,-9,24,-2,-23,32,-11,-31,-45,-55,-43
-30,-37,-4,30,-7,-23,38,-11,-25,-33,-37,-37
-54,-37,8,42,-31,-11,50,-6,-19,-27,-31,-25
-66,-37,20,48,-43,-6,50,-6,-19,-33,-37,-25
-72,-31,32,48,-55,-6,50,-6,-19,-33,-37,-25
-54,-37,8,42,-31,-11,50,-6,-19,-27,-43,-31
-12,-37,-21,24,-2,-29,32,-11,-31,-45,-55,-43
-36,-43,-4,36,-13,-23,38,-6,-19,-33,-43,-31
-72,-37,26,54,-49,-6,56,6,-8,-15,-31,-25
-42,-31,2,36,-25,-11,50,0,-8,-21,-31,-31
-24,-25,-4,24,-7,-11,38,-6,-19,-33,-49,-37
-54,-31,14,42,-37,-6,50,0,-8,-33,-43,-31
-48,-37,2,42,-25,-11,50,0,-13,-39,-37,-37
-36,-37,-4,36,-13,-17,50,0,-13,-39,-37,-31
-36,-31,-4,30,-19,-11,44,-6,-19,-51,-49,-43
-30,-37,-4,30,-7,-23,38,-6,-13,-39,-43,-43
-30,-43,-9,36,-7,-29,44,0,-13,-39,-43,-37
-24,-37,-9,30,-2,-23,44,-6,-19,-45,-43,-37
-42,-31,2,36,-25,-11,50,0,-8,-33,-37,-37
-48,-37,2,42,-25,-11,50,6,-13,-33,-37,-37
-24,-43,-15,30,-2,-29,44,-6,-25,-45,-49,-43
-12,-49,-33,30,4,-41,38,0,-19,-45,-49,-49
-42,-43,-4,42,-19,-23,50,6,-13,-45,-43,-49
-30,-37,-4,30,-7,-23,44,6,-13,-45,-49,-43
-12,-37,-21,24,-2,-29,44,-6,-25,-51,-55,-55
-7,-37,-39,12,16,-35,32,-6,-31,-51,-61,-61
-30,-37,-4,30,-7,-23,44,0,-25,-33,-49,-49
-66,-37,20,48,-43,-6,56,12,-13,-27,-31,-31
-7,-37,-27,18,4,-35,38,-6,-25,-39,-49,-55
5,-37,-51,6,28,-41,38,-6,-25,-51,-49,-49
-30,-37,-4,30,-7,-23,50,0,-19,-39,-43,-43
-60,-37,14,48,-37,-6,56,12,-8,-27,-31,-37
-54,-31,14,42,-37,-6,56,18,-8,-27,-31,-37
-24,-31,-4,24,-7,-17,50,6,-13,-33,-43,-31
-7,-31,-21,18,-2,-29,44,0,-25,-39,-49,-43
-42,-31,2,36,-25,-11,56,18,-8,-21,-25,-25
-72,-37,26,54,-49,-6,62,12,-13,-21,-25,-25
-18,-43,-21,30,-2,-35,38,-6,-31,-33,-49,-43
-30,-37,-4,30,-7,-23,44,-6,-31,-33,-37,-43
-48,-37,2,42,-25,-11,50,6,-19,-21,-31,-31
-24,-37,-9,30,-2,-23,44,-6,-31,-39,-49,-43
-54,-43,2,48,-31,-17,56,-6,-25,-33,-37,-37
-84,-43,32,60,-61,-6,62,6,-13,-21,-25,-25
-54,-43,2,48,-31,-17,50,-6,-25,-33,-43,-37
-24,-43,-15,30,-2,-29,38,-6,-37,-45,-55,-55
-18,-43,-21,30,-2,-35,38,-11,-43,-51,-55,-49
-30,-49,-15,36,-2,-35,38,-11,-37,-45,-49,-37
-36,-43,-4,36,-13,-23,38,-11,-43,-45,-49,-31
-36,-43,-4,36,-13,-23,38,-17,-37,-45,-43,-43
-36,-55,-15,42,-7,-35,44,-11,-37,-39,-37,-43
-30,-55,-21,42,-2,-41,38,-17,-49,-51,-55,-49
-48,-55,-4,48,-19,-29,44,-11,-43,-45,-49,-43
-60,-55,-4,54,-31,-23,50,-6,-43,-45,-43,-43
-30,-61,-27,42,-2,-47,38,-23,-55,-57,-55,-49
-30,-55,-21,42,-2,-41,32,-29,-61,-63,-67,-55
-48,-55,-4,48,-19,-29,44,-29,-55,-45,-55,-43
-48,-55,-4,48,-19,-29,38,-23,-49,-51,-55,-43
-36,-49,-9,42,-7,-29,32,-35,-61,-57,-61,-43
-42,-55,-9,48,-13,-35,44,-29,-55,-45,-49,-43
-36,-55,-15,42,-7,-35,38,-23,-55,-45,-61,-49
-30,-55,-21,42,-2,-41,32,-29,-67,-63,-61,-61
-24,-55,-27,36,-2,-41,38,-29,-61,-57,-61,-55
-48,-55,-4,48,-19,-29,44,-23,-55,-51,-55,-49
-42,-49,-4,42,-13,-29,38,-29,-55,-51,-49,-49
-42,-49,-4,42,-13,-29,32,-29,-67,-57,-55,-49
-48,-49,-4,48,-19,-23,38,-29,-61,-69,-61,-55
-54,-55,-4,54,-25,-29,38,-29,-61,-57,-49,-43
-42,-55,-9,48,-13,-35,32,-35,-73,-57,-61,-49
-42,-55,-9,48,-13,-35,38,-29,-73,-51,-61,-55
-72,-55,8,60,-43,-17,50,-17,-49,-39,-37,-37
-120,-55,56,84,-91,-6,62,-17,-43,-39,-37,-31
-96,-61,26,78,-61,-11,56,-29,-49,-51,-49,-49
-7,-61,-63,24,28,-59,26,-53,-79,-81,-79,-73
17,-61,-87,12,52,-71,8,-71,-97,-93,-85,-85
-18,-55,-33,36,-2,-47,26,-59,-79,-75,-73,-67
-24,-55,-27,36,-2,-41,26,-59,-85,-63,-67,-67
-12,-61,-45,36,10,-53,14,-53,-79,-69,-67,-61
-24,-61,-33,42,-2,-47,20,-59,-85,-63,-67,-61
-60,-61,-4,60,-25,-29,44,-47,-67,-51,-49,-55
-36,-61,-21,48,-2,-41,38,-47,-67,-57,-67,-61
-7,-55,-51,24,16,-53,26,-59,-85,-69,-73,-67
-42,-61,-15,48,-7,-41,38,-41,-73,-57,-61,-55
-102,-61,32,78,-67,-11,62,-17,-49,-39,-43,-37
-78,-61,8,66,-43,-23,44,-35,-67,-57,-55,-49
-36,-61,-21,48,-2,-41,32,-53,-79,-69,-67,-61
-54,-67,-9,60,-19,-41,38,-41,-61,-57,-61,-49
-78,-67,2,72,-43,-29,44,-29,-55,-39,-49,-43
-78,-61,8,66,-43,-23,38,-41,-67,-45,-55,-43
-48,-55,-4,48,-19,-29,38,-35,-73,-57,-55,-49
-54,-55,-4,54,-25,-29,44,-29,-61,-45,-55,-43
-36,-61,-21,48,-2,-41,38,-53,-73,-57,-67,-61
-18,-61,-39,36,4,-53,32,-59,-79,-69,-73,-67
-78,-67,2,72,-43,-29,50,-35,-55,-51,-49,-49
-132,-67,56,96,-97,-6,68,-17,-43,-45,-37,-31
-78,-61,8,66,-43,-23,38,-47,-67,-63,-61,-61
-24,-67,-39,42,-2,-53,26,-53,-79,-69,-73,-67
-36,-61,-21,48,-2,-41,26,-53,-79,-63,-67,-61
-48,-55,-4,48,-19,-29,26,-53,-79,-57,-61,-49
-36,-67,-27,48,-2,-47,26,-53,-79,-63,-67,-55
-30,-73,-39,48,-2,-59,26,-47,-79,-63,-67,-67
-36,-73,-33,54,-2,-53,26,-53,-79,-69,-73,-61
-18,-67,-45,42,4,-59,20,-71,-91,-81,-85,-73
-42,-67,-21,54,-7,-47,38,-53,-73,-69,-67,-61
-72,-67,-4,66,-37,-29,44,-35,-61,-57,-55,-55
-60,-67,-4,60,-25,-35,38,-47,-73,-63,-55,-55
-36,-73,-33,54,-2,-53,26,-53,-91,-63,-73,-61
-36,-67,-27,48,-2,-47,20,-59,-91,-75,-73,-67
-18,-61,-39,36,4,-53,20,-71,-91,-81,-79,-67
-12,-73,-57,42,16,-65,26,-71,-97,-75,-79,-73
-30,-73,-39,48,-2,-59,32,-53,-79,-63,-79,-79
-66,-67,-4,66,-31,-35,38,-53,-73,-57,-67,-67
-42,-67,-21,54,-7,-47,32,-59,-79,-57,-67,-67
-30,-61,-27,42,-2,-47,32,-59,-79,-69,-67,-73
-66,-61,-4,60,-31,-29,38,-41,-73,-57,-55,-55
-78,-67,2,72,-43,-29,44,-47,-73,-57,-55,-55
-54,-67,-9,60,-19,-41,32,-59,-79,-63,-73,-73
-72,-61,2,66,-37,-23,32,-47,-73,-51,-55,-61
-84,-67,8,72,-49,-23,38,-47,-67,-45,-49,-55
-36,-73,-33,54,-2,-53,32,-53,-73,-63,-61,-73
-7,-73,-69,36,28,-71,26,-59,-85,-69,-73,-79
-24,-67,-39,42,-2,-53,26,-59,-79,-63,-67,-67
-42,-67,-21,54,-7,-47,38,-47,-61,-57,-61,-61
-78,-73,-4,72,-37,-35,50,-41,-61,-51,-55,-67
-96,-79,8,84,-55,-29,44,-41,-67,-51,-55,-55
-60,-73,-9,66,-19,-41,32,-53,-73,-57,-55,-55
-30,-73,-39,48,-2,-59,20,-65,-91,-75,-73,-79
-36,-73,-33,54,-2,-53,26,-59,-85,-63,-67,-73
-60,-79,-15,66,-19,-47,32,-59,-79,-51,-61,-61
-78,-79,-4,78,-37,-41,32,-53,-67,-45,-49,-55
-66,-79,-9,72,-25,-47,38,-47,-61,-51,-55,-49
-60,-73,-9,66,-19,-41,32,-53,-67,-51,-61,-61
-102,-73,20,84,-61,-23,50,-35,-55,-33,-43,-55
-84,-79,-4,78,-43,-35,50,-35,-61,-45,-43,-55
-7,-73,-63,36,22,-71,14,-65,-85,-75,-79,-73
-18,-73,-51,42,10,-65,20,-59,-85,-63,-67,-73
-60,-79,-15,66,-19,-47,38,-53,-67,-51,-55,-61
-60,-73,-9,66,-19,-41,38,-47,-67,-45,-55,-55
-30,-73,-39,48,-2,-59,26,-65,-85,-57,-61,-61
-24,-73,-45,48,4,-59,32,-59,-91,-63,-67,-67
-30,-79,-45,54,-2,-65,38,-47,-79,-63,-67,-61
-42,-79,-33,60,-2,-59,32,-53,-79,-69,-73,-67
-48,-67,-15,54,-13,-41,38,-41,-73,-63,-61,-61
-24,-61,-33,42,-2,-47,38,-41,-73,-63,-67,-67
-7,-49,-39,24,10,-47,38,-47,-67,-57,-67,-67
-30,-43,-9,36,-7,-29,50,-29,-49,-45,-49,-37
-42,-37,-4,36,-19,-17,50,-23,-49,-39,-49,-43
-48,-37,2,42,-25,-11,50,-23,-49,-39,-49,-49
-66,-31,26,48,-49,-6,62,-6,-43,-27,-31,-25
-72,-25,38,48,-55,0,68,-6,-31,-15,-25,-25
-30,-25,-4,24,-13,-11,62,-23,-43,-15,-31,-31
-48,-13,26,30,-37,0,62,-17,-43,-15,-31,-25
-66,-8,50,36,-61,12,80,-11,-31,-10,-25,-25
-7,-8,-4,6,-2,-6,62,-23,-49,-21,-43,-43
-7,-8,-4,6,-2,-6,62,-23,-49,-33,-37,-37
-12,-8,8,6,-7,0,68,-29,-49,-21,-31,-37
-54,-8,44,24,-49,12,86,-11,-37,-15,-31,-31
-72,-8,56,36,-67,18,86,-11,-37,-15,-31,-25
-48,-8,44,18,-43,18,74,-29,-43,-15,-31,-25
-48,-2,50,18,-49,24,74,-23,-37,-10,-19,-19
-18,4,26,6,-19,12,56,-29,-43,-15,-31,-25
-12,16,32,6,-19,24,44,-29,-49,-21,-37,-31
-48,10,62,12,-55,36,50,-17,-31,-10,-25,-8
-48,4,56,12,-49,30,44,-23,-31,-10,-19,-8
-7,4,2,1,-2,6,26,-41,-49,-21,-31,-13
-7,16,20,1,-7,18,20,-47,-49,-10,-25,-8
-12,16,32,6,-19,24,2,-41,-49,-10,-19,-8
-30,10,44,6,-37,24,2,-29,-31,-10,-8,-8
-36,4,44,6,-37,24,14,-17,-19,-4,-8,4
-1,4,-4,1,-2,0,8,-23,-25,-10,-13,-8
35,4,-27,-17,34,-6,14,-11,-25,-10,-13,-19
23,10,-9,-17,16,-6,20,-6,-19,-10,-13,-13
29,10,-15,-17,22,-6,26,-6,-8,-10,-13,-8
41,22,-15,-29,28,0,8,-11,-19,-10,-13,-8
11,16,-4,-11,4,6,2,-11,-13,-10,-8,-8
-7,10,8,1,-2,12,2,-11,-25,-4,-2,-8
11,-2,-9,-5,10,-6,-4,-29,-31,-10,-8,-8
11,-8,-15,1,16,-6,-4,-35,-37,-10,-13,-8
-7,-13,-15,6,4,-11,-4,-29,-37,-15,-13,-8
-7,-31,-21,18,-2,-29,-4,-35,-43,-10,-13,-8
-7,-43,-39,18,10,-41,-4,-53,-49,-33,-19,-13
-1,-49,-57,18,28,-53,-4,-47,-55,-39,-37,-19
-7,-67,-63,30,22,-65,-4,-53,-61,-51,-49,-43
-30,-85,-51,54,4,-71,8,-53,-67,-51,-55,-55
-54,-91,-33,72,-7,-65,14,-35,-55,-45,-49,-43
-60,-79,-15,66,-19,-47,2,-47,-61,-57,-61,-49
-42,-91,-45,66,-2,-71,-4,-59,-67,-57,-67,-55
-48,-97,-45,72,-2,-71,-4,-53,-67,-39,-49,-49
-54,-91,-33,72,-7,-65,-9,-41,-55,-27,-37,-43
-18,-85,-63,48,16,-77,-33,-53,-61,-39,-49,-55
-7,-85,-81,42,34,-83,-51,-59,-61,-39,-49,-43
-7,-73,-75,30,34,-71,-63,-47,-49,-33,-37,-43
29,-61,-99,6,64,-77,-81,-53,-49,-33,-37,-43
29,-61,-99,6,64,-77,-99,-59,-55,-27,-31,-31
23,-55,-87,6,52,-71,-123,-53,-37,-15,-13,-19
53,-31,-93,-5,70,-59,-159,-65,-43,-10,-8,-13
77,-13,-99,-23,88,-53,-183,-71,-31,-10,-8,-8
59,-8,-75,-17,64,-41,-189,-59,-8,20,16,10
47,-8,-51,-17,52,-23,-195,-41,4,32,34,34
77,4,-69,-41,76,-23,-225,-41,10,44,40,28
95,10,-81,-53,88,-29,-243,-47,16,56,58,46
119,22,-93,-71,106,-29,-285,-71,10,68,70,58
143,34,-105,-89,124,-29,-321,-95,16,74,82,70
149,52,-93,-101,124,-11,-345,-101,28,98,100,94
161,76,-81,-119,124,-6,-387,-137,22,98,112,106
173,94,-75,-131,124,6,-429,-161,22,116,136,124
185,124,-57,-155,124,30,-459,-185,46,134,154,148
197,148,-45,-173,124,48,-489,-209,46,152,190,172
227,166,-57,-197,142,48,-525,-233,46,164,190,184
263,202,-63,-233,166,66,-567,-269,40,176,208,190
263,232,-33,-245,154,96,-567,-281,58,212,232,214
263,250,-9,-257,142,120,-579,-287,76,230,268,244
275,286,2,-281,136,150,-603,-305,88,242,286,274
275,334,50,-305,112,198,-627,-317,106,278,304,298
287,370,74,-329,106,228,-651,-323,136,314,334,328
305,394,80,-347,112,234,-681,-335,142,344,370,358
353,430,68,-389,142,246,-729,-383,130,344,382,376
353,448,86,-401,130,264,-729,-395,154,380,424,412
329,478,140,-401,94,306,-711,-371,196,422,472,442
377,520,140,-449,118,330,-723,-353,226,458,490,472
431,586,152,-503,136,372,-753,-365,244,488,532,508
473,646,170,-557,148,408,-819,-371,268,524,574,544
509,700,182,-605,166,444,-885,-389,274,548,604,580
575,742,164,-659,208,456,-939,-443,268,566,622,610
605,784,176,-695,214,480,-969,-455,274,578,640,634
611,802,188,-707,214,492,-975,-407,292,584,664,658
653,820,164,-731,238,492,-993,-377,310,596,682,670
701,868,164,-779,262,516,-1053,-425,310,614,712,700
695,910,212,-797,238,558,-1065,-455,304,626,736,736
677,964,278,-815,196,624,-1059,-497,304,656,766,772
677,1036,356,-857,160,702,-1041,-563,304,704,814,814
701,1126,422,-911,136,774,-1047,-629,286,728,856,868
725,1216,488,-965,112,858,-1089,-755,244,758,892,922
683,1312,626,-995,22,966,-1107,-929,214,812,958,988
659,1414,746,-1031,-37,1080,-1137,-1103,172,878,1024,1066
671,1498,824,-1085,-73,1164,-1155,-1241,142,950,1108,1150
707,1552,842,-1127,-61,1200,-1155,-1325,160,1046,1210,1234
737,1630,884,-1187,-67,1254,-1197,-1433,178,1172,1342,1348
761,1720,956,-1241,-91,1338,-1227,-1553,202,1292,1468,1456
791,1768,968,-1277,-85,1374,-1263,-1655,220,1418,1582,1540
857,1774,914,-1313,-19,1344,-1347,-1709,250,1520,1678,1600
887,1786,896,-1337,-2,1344,-1431,-1715,298,1628,1774,1678
905,1774,866,-1337,16,1320,-1479,-1697,358,1712,1852,1720
941,1690,740,-1313,94,1212,-1503,-1601,436,1760,1894,1726
917,1612,692,-1259,112,1152,-1485,-1463,526,1820,1918,1726
857,1540,680,-1199,88,1110,-1407,-1283,664,1862,1924,1702
809,1480,668,-1145,70,1074,-1329,-1157,724,1862,1906,1660
725,1420,686,-1073,16,1050,-1221,-1037,748,1856,1882,1630
665,1354,686,-1007,-2,1020,-1119,-893,832,1862,1858,1582
599,1294,692,-947,-37,990,-1023,-791,856,1814,1780,1498
485,1198,704,-839,-103,954,-909,-707,742,1658,1624,1372
419,982,560,-701,-67,774,-765,-575,586,1376,1384,1174
329,688,350,-503,-2,516,-579,-413,400,980,1054,904
233,448,212,-335,4,330,-387,-287,226,626,724,628
131,298,164,-215,-7,234,-255,-245,64,368,478,442
95,172,68,-131,10,120,-177,-167,28,230,310,292
47,52,-4,-47,22,24,-99,-71,100,170,190,166
-7,-2,-4,6,-2,0,-45,-6,124,152,142,106
-1,-8,-15,6,4,-11,-33,-6,112,140,124,82
-7,-31,-33,12,10,-29,-15,0,100,116,106,70
-24,-43,-15,30,-2,-29,-4,18,88,104,88,52
-12,-61,-45,36,10,-53,8,30,70,68,52,16
-12,-79,-63,42,16,-71,20,30,52,32,16,-8
-18,-97,-75,54,22,-89,38,36,34,2,-8,-25
-48,-109,-57,78,-2,-83,56,48,22,-10,-19,-31
-84,-115,-27,96,-25,-71,80,60,16,-15,-31,-43
-72,-127,-51,96,-7,-89,74,60,4,-33,-49,-61
-60,-145,-81,102,4,-113,80,66,-8,-51,-73,-85
-78,-151,-69,114,-2,-113,92,78,-8,-57,-67,-73
-78,-163,-81,120,-2,-125,104,84,-8,-63,-79,-79
-84,-175,-87,126,-2,-131,122,96,-8,-75,-97,-97
-96,-187,-87,138,-2,-137,122,102,-8,-93,-109,-115
-102,-193,-87,144,-2,-143,134,108,-13,-99,-121,-127
-78,-187,-105,132,4,-149,128,96,-25,-123,-139,-139
-54,-187,-129,120,28,-161,128,96,-31,-129,-151,-139
-84,-193,-105,138,4,-149,134,102,-37,-129,-145,-139
-84,-193,-105,138,4,-149,140,102,-43,-135,-157,-151
-84,-199,-111,138,4,-155,134,102,-37,-141,-157,-145
-108,-199,-87,150,-7,-143,146,114,-31,-129,-145,-139
-114,-199,-81,156,-13,-143,152,132,-25,-123,-139,-133
-108,-205,-93,156,-2,-149,164,138,-19,-123,-151,-139
-78,-211,-129,144,16,-173,146,126,-43,-141,-163,-157
-54,-211,-153,132,40,-185,146,120,-49,-159,-181,-181
-78,-211,-129,144,16,-173,158,120,-49,-153,-187,-175
-90,-211,-117,150,4,-167,164,132,-43,-147,-181,-163
-102,-205,-99,150,-2,-155,164,126,-49,-153,-181,-157
-138,-205,-63,168,-31,-137,170,132,-43,-147,-175,-157
-126,-211,-81,168,-19,-149,176,138,-31,-135,-175,-151
-102,-211,-105,156,-2,-161,176,144,-37,-141,-169,-157
-72,-205,-129,138,22,-167,164,132,-55,-159,-181,-175
-84,-205,-117,144,10,-161,170,138,-49,-159,-193,-175
-114,-211,-93,162,-7,-155,176,156,-31,-147,-187,-169
-126,-217,-87,168,-13,-155,182,156,-31,-159,-187,-175
-126,-211,-81,168,-19,-149,182,156,-37,-159,-199,-175
-132,-211,-75,168,-25,-143,182,150,-37,-165,-199,-181
-144,-211,-63,174,-37,-137,194,162,-31,-159,-187,-163
-132,-205,-69,168,-25,-137,188,156,-37,-159,-181,-169
-102,-205,-99,150,-2,-155,170,150,-49,-171,-199,-181
-120,-211,-87,162,-13,-149,182,162,-43,-159,-181,-175
-96,-211,-111,150,-2,-161,176,162,-49,-165,-193,-187
-72,-217,-141,144,28,-179,182,162,-43,-171,-199,-199
-90,-223,-129,156,10,-179,194,180,-31,-159,-193,-175
-78,-217,-135,144,22,-179,200,180,-37,-177,-211,-199
-96,-217,-117,156,4,-167,206,192,-31,-177,-211,-199
-174,-223,-45,198,-61,-137,218,204,-19,-159,-199,-175
-180,-217,-33,198,-67,-125,218,210,-19,-159,-193,-169
-144,-217,-69,180,-31,-143,212,198,-37,-165,-205,-181
-126,-217,-87,168,-13,-155,200,192,-43,-177,-211,-193
-150,-229,-75,186,-31,-155,218,210,-31,-159,-199,-181
-114,-229,-111,168,-2,-173,212,198,-37,-171,-205,-187
-78,-229,-147,150,28,-191,200,198,-37,-183,-223,-199
-126,-235,-105,180,-7,-173,218,222,-19,-171,-211,-193
-168,-241,-69,204,-43,-155,236,228,-19,-165,-211,-193
-126,-241,-111,180,-2,-179,236,228,-31,-183,-229,-211
-102,-229,-123,162,4,-179,230,228,-37,-195,-241,-211
-126,-229,-99,174,-7,-167,230,228,-37,-195,-235,-205
-126,-235,-105,180,-7,-173,230,228,-49,-201,-235,-211
-126,-235,-105,180,-7,-173,236,228,-43,-201,-235,-211
-132,-235,-99,180,-13,-167,236,234,-37,-195,-223,-199
-132,-247,-111,186,-7,-179,236,240,-37,-195,-223,-211
-150,-247,-99,198,-19,-179,260,252,-25,-183,-223,-205
-156,-253,-99,204,-25,-179,260,258,-25,-195,-235,-211
-138,-259,-123,198,-2,-197,266,264,-31,-207,-241,-223
-138,-253,-117,198,-7,-191,266,258,-43,-225,-253,-235
-168,-259,-93,216,-31,-179,278,276,-31,-219,-253,-235
-150,-259,-111,204,-13,-191,278,264,-49,-231,-259,-241
-132,-253,-123,192,-2,-191,272,264,-61,-243,-271,-241
-144,-259,-117,204,-7,-191,272,270,-55,-237,-265,-247
-132,-265,-135,198,-2,-203,278,270,-55,-243,-271,-247
-120,-265,-147,192,4,-209,278,270,-67,-249,-277,-259
-150,-277,-129,216,-7,-209,296,288,-55,-249,-283,-259
-186,-277,-93,234,-43,-191,320,306,-37,-243,-277,-253
-192,-283,-93,240,-43,-191,332,318,-31,-249,-283,-253
-156,-283,-129,222,-7,-209,314,306,-55,-267,-313,-283
-156,-283,-129,222,-7,-209,320,324,-55,-267,-313,-289
-174,-277,-105,228,-31,-197,338,336,-49,-267,-301,-277
-204,-283,-81,246,-55,-185,350,354,-43,-261,-295,-259
-222,-289,-69,252,-73,-185,356,360,-43,-267,-301,-259
-198,-301,-105,246,-43,-209,356,354,-49,-273,-313,-277
-192,-301,-111,246,-37,-209,356,360,-49,-279,-325,-283
-222,-319,-99,264,-55,-215,380,390,-37,-279,-313,-277
-228,-325,-99,270,-61,-215,392,402,-43,-285,-319,-277
-234,-325,-93,276,-67,-215,404,402,-49,-291,-331,-289
-180,-325,-147,246,-13,-239,386,396,-73,-327,-361,-319
-144,-331,-189,240,16,-257,386,396,-79,-339,-379,-343
-156,-325,-171,240,-2,-245,386,402,-85,-351,-385,-349
-168,-331,-165,246,-2,-245,398,414,-85,-351,-385,-343
-198,-337,-141,264,-25,-245,416,432,-67,-339,-379,-331
-228,-349,-123,282,-49,-239,428,450,-55,-327,-367,-325
-228,-343,-117,282,-49,-233,434,462,-61,-333,-373,-325
-210,-355,-147,276,-25,-251,446,474,-55,-339,-379,-337
-204,-361,-159,276,-19,-257,452,480,-55,-345,-385,-343
-192,-361,-171,270,-7,-263,452,480,-67,-363,-403,-361
-210,-367,-159,282,-19,-263,452,492,-67,-369,-403,-361
-222,-373,-153,294,-31,-263,464,498,-67,-381,-409,-361
-186,-367,-183,270,-2,-275,458,492,-79,-399,-427,-373
-216,-367,-153,288,-25,-257,470,510,-73,-387,-415,-367
-252,-373,-117,312,-67,-245,482,516,-61,-375,-409,-361
-270,-379,-105,324,-79,-245,482,528,-55,-369,-403,-349
-246,-379,-129,312,-55,-251,476,528,-61,-381,-415,-361
-198,-385,-189,288,-2,-287,470,528,-67,-393,-421,-379
-174,-385,-213,276,10,-299,464,522,-79,-405,-433,-397
-192,-385,-195,282,-2,-287,476,534,-73,-405,-439,-391
-222,-391,-171,300,-19,-281,482,546,-67,-399,-427,-379
-228,-385,-159,300,-31,-269,482,546,-67,-405,-439,-391
-198,-385,-189,288,-2,-287,470,540,-79,-411,-439,-391
-240,-379,-141,306,-43,-257,482,552,-61,-393,-421,-379
-246,-379,-135,306,-49,-257,482,552,-67,-393,-409,-367
-210,-385,-177,294,-13,-281,464,546,-73,-393,-421,-367
-210,-385,-177,294,-13,-281,458,552,-61,-387,-415,-361
-198,-385,-189,288,-2,-287,458,540,-61,-387,-415,-367
-186,-385,-201,282,-2,-293,458,540,-61,-387,-409,-361
-192,-385,-195,282,-2,-287,440,540,-61,-381,-409,-361
-186,-379,-195,276,-2,-287,440,534,-67,-381,-409,-367
-174,-367,-195,264,4,-281,434,528,-67,-381,-409,-355
-180,-355,-177,264,-2,-263,422,528,-55,-375,-391,-343
-198,-355,-159,270,-13,-257,416,528,-43,-363,-385,-325
-198,-349,-153,270,-19,-251,398,516,-49,-357,-379,-331
-192,-337,-147,258,-19,-245,392,516,-37,-339,-361,-313
-186,-319,-135,246,-19,-233,386,510,-31,-327,-343,-301
-138,-319,-183,228,16,-251,362,486,-37,-327,-349,-307
-144,-307,-165,228,4,-239,356,480,-31,-309,-331,-295
-156,-301,-147,228,-2,-227,344,480,-13,-297,-313,-277
-96,-277,-183,186,34,-233,314,462,-25,-303,-319,-289
-84,-265,-183,174,40,-227,302,444,-25,-291,-307,-283
-96,-253,-159,174,22,-209,284,426,-19,-279,-295,-253
-102,-247,-141,174,10,-197,266,414,-8,-267,-265,-241
-114,-235,-117,174,-2,-179,254,402,-8,-243,-247,-217
-126,-223,-93,174,-13,-161,248,384,4,-219,-229,-199
-102,-205,-99,150,-2,-155,236,360,4,-201,-211,-193
-78,-193,-111,132,10,-155,212,342,10,-183,-193,-175
-66,-175,-105,120,10,-143,200,324,16,-171,-175,-157
-84,-169,-81,126,-2,-125,188,306,28,-147,-157,-133
-72,-157,-81,114,-2,-119,170,276,16,-147,-145,-139
-78,-139,-57,108,-7,-101,164,264,28,-129,-127,-121
-78,-121,-39,96,-13,-83,140,234,34,-111,-121,-103
-54,-109,-51,78,-2,-83,122,216,22,-105,-109,-91
-72,-103,-27,84,-19,-65,110,198,22,-75,-91,-73
-48,-91,-39,66,-2,-65,98,168,22,-75,-85,-73
-1,-73,-81,30,40,-77,68,132,4,-75,-85,-79
-7,-67,-57,36,16,-65,68,126,16,-57,-73,-67
-7,-61,-57,30,22,-59,56,102,-2,-57,-73,-67
-12,-61,-45,36,10,-53,62,90,4,-45,-61,-55
-12,-55,-39,30,4,-47,56,72,-2,-51,-61,-55
-24,-49,-21,36,-2,-35,56,60,-2,-51,-55,-49
-7,-49,-39,24,10,-47,38,36,-8,-57,-55,-49
-18,-43,-21,30,-2,-35,38,24,-8,-51,-43,-37
-30,-37,-4,30,-7,-23,38,18,-8,-45,-43,-37
-12,-37,-21,24,-2,-29,26,6,-13,-39,-43,-25
-30,-43,-9,36,-7,-29,32,6,-8,-27,-25,-13
-54,-43,2,48,-31,-17,50,12,-8,-15,-25,-13
-42,-43,-4,42,-19,-23,44,6,-8,-21,-31,-19
-42,-43,-4,42,-19,-23,32,-6,-13,-27,-31,-25
-48,-43,-4,42,-25,-17,44,-6,-13,-27,-31,-19
-54,-49,-4,48,-25,-23,38,-6,-19,-39,-31,-25
-54,-37,8,42,-31,-11,32,-6,-31,-33,-37,-25
-54,-37,8,42,-31,-11,38,-17,-31,-39,-37,-25
-24,-43,-15,30,-2,-29,26,-41,-55,-57,-55,-37
-30,-43,-9,36,-7,-29,26,-35,-49,-45,-43,-31
-42,-43,-4,42,-19,-23,26,-29,-43,-39,-43,-25
-30,-49,-15,36,-2,-35,26,-29,-49,-39,-43,-31
-12,-49,-33,30,4,-41,26,-29,-55,-45,-55,-43
-7,-43,-33,24,4,-41,14,-29,-55,-57,-61,-49
-24,-43,-15,30,-2,-29,32,-23,-49,-51,-55,-37
-48,-43,-4,42,-25,-17,44,-17,-37,-45,-43,-25
-78,-43,26,60,-55,-6,38,-6,-25,-39,-31,-19
-84,-49,26,66,-55,-6,44,-6,-25,-33,-25,-13
-48,-43,-4,42,-25,-17,38,-11,-49,-39,-49,-31
-84,-49,26,66,-55,-6,44,-11,-37,-21,-37,-13
-102,-37,56,66,-79,0,50,-6,-25,-15,-31,-8
-72,-49,14,60,-43,-11,44,-11,-25,-21,-31,-13
-54,-43,2,48,-31,-17,44,-11,-31,-21,-43,-25
-24,-43,-15,30,-2,-29,26,-17,-37,-45,-49,-37
-24,-43,-15,30,-2,-29,32,-17,-43,-51,-61,-49
-54,-43,2,48,-31,-17,44,-6,-31,-45,-55,-43
-42,-43,-4,42,-19,-23,38,-11,-37,-57,-67,-43
-24,-43,-15,30,-2,-29,26,-17,-43,-57,-61,-49
-18,-43,-21,30,-2,-35,26,-11,-43,-51,-61,-43
-24,-43,-15,30,-2,-29,26,-17,-43,-45,-61,-31
-42,-37,-4,36,-19,-17,26,-6,-25,-39,-49,-31
-48,-43,-4,42,-25,-17,44,-6,-19,-33,-43,-31
-48,-49,-4,48,-19,-23,44,0,-19,-39,-43,-37
-54,-49,-4,48,-25,-23,44,0,-19,-45,-37,-31
-42,-43,-4,42,-19,-23,44,0,-19,-51,-43,-37
-36,-43,-4,36,-13,-23,44,6,-19,-45,-43,-37
-18,-37,-15,24,-2,-29,44,0,-19,-45,-55,-43
-54,-37,8,42,-31,-11,44,12,-8,-27,-43,-31
-78,-31,38,54,-61,-6,56,18,-8,-27,-31,-19
-54,-37,8,42,-31,-11,44,12,-8,-27,-25,-19
-30,-43,-9,36,-7,-29,38,12,-13,-33,-37,-31
-12,-49,-33,30,4,-41,38,6,-19,-39,-43,-43
-42,-49,-4,42,-13,-29,44,18,-8,-33,-37,-31
-90,-49,32,66,-61,-6,62,36,-2,-15,-13,-19
-66,-43,14,54,-43,-11,56,30,-8,-27,-25,-25
-42,-43,-4,42,-19,-23,44,18,-8,-45,-43,-43
-30,-37,-4,30,-7,-23,32,12,-13,-51,-55,-49
-30,-37,-4,30,-7,-23,32,12,-13,-51,-49,-43
-42,-31,2,36,-25,-11,50,18,-8,-33,-31,-31
-36,-31,-4,30,-19,-11,38,12,-13,-33,-37,-37
-48,-37,2,42,-25,-11,38,24,-8,-33,-37,-25
-42,-37,-4,36,-19,-17,50,30,-8,-33,-31,-31
-24,-31,-4,24,-7,-17,44,24,-13,-39,-49,-43
-36,-37,-4,36,-13,-17,50,30,-8,-33,-43,-43
-30,-31,-4,30,-13,-17,50,24,-8,-45,-43,-49
-48,-31,8,36,-31,-6,50,30,-8,-39,-37,-43
-66,-31,26,48,-49,-6,62,42,-8,-33,-31,-25
-84,-37,38,60,-61,-6,56,36,-8,-27,-31,-19
-78,-31,38,54,-61,-6,62,36,-8,-27,-31,-25
-36,-31,-4,30,-19,-11,44,12,-8,-33,-37,-37
-12,-25,-9,18,-2,-17,44,12,-19,-39,-37,-37
-42,-37,-4,36,-19,-17,56,24,-8,-27,-25,-31
-90,-37,44,60,-67,-6,74,42,-2,-21,-25,-19
-84,-43,32,60,-61,-6,68,42,-2,-21,-25,-25
-48,-43,-4,42,-25,-17,62,24,-8,-33,-37,-37
-7,-37,-27,18,4,-35,44,12,-13,-45,-49,-55
5,-31,-45,6,22,-35,32,0,-37,-63,-67,-61
-7,-43,-39,18,10,-41,38,6,-25,-45,-55,-43
-36,-37,-4,36,-13,-17,50,12,-13,-39,-37,-31
-66,-37,20,48,-43,-6,56,24,-8,-33,-25,-25
-84,-43,32,60,-61,-6,74,30,-8,-21,-19,-13
-96,-49,38,72,-67,-6,74,30,-8,-15,-13,-19
-42,-43,-4,42,-19,-23,50,6,-25,-45,-43,-37
-7,-43,-33,24,4,-41,38,0,-31,-51,-55,-49
-54,-37,8,42,-31,-11,62,6,-13,-39,-37,-37
-72,-37,26,54,-49,-6,62,18,-13,-39,-31,-25
-30,-37,-4,30,-7,-23,38,0,-37,-57,-55,-49
-7,-37,-33,18,10,-35,32,-6,-43,-57,-61,-55
-12,-37,-21,24,-2,-29,38,-6,-43,-57,-55,-55
-54,-43,2,48,-31,-17,56,0,-31,-39,-43,-37
-60,-37,14,48,-37,-6,50,-6,-31,-39,-37,-37
-24,-37,-9,30,-2,-23,32,-6,-49,-51,-49,-49
-36,-43,-4,36,-13,-23,44,-6,-43,-51,-49,-49
-66,-49,8,54,-37,-17,50,0,-25,-39,-31,-37
-36,-49,-9,42,-7,-29,44,-6,-43,-51,-49,-49
-24,-49,-21,36,-2,-35,44,-6,-43,-57,-49,-43
-54,-55,-4,54,-25,-29,56,-6,-43,-45,-43,-37
-78,-49,20,60,-49,-11,62,0,-31,-39,-37,-25
-30,-43,-9,36,-7,-29,44,-11,-55,-57,-55,-49
-1,-55,-63,18,28,-59,26,-29,-67,-69,-67,-55
-42,-49,-4,42,-13,-29,50,-11,-49,-51,-43,-37
-78,-43,26,60,-55,-6,56,-6,-43,-39,-37,-31
-42,-49,-4,42,-13,-29,50,-6,-43,-51,-43,-37
-48,-61,-9,54,-13,-35,50,-6,-43,-39,-37,-31
-54,-55,-4,54,-25,-29,56,-6,-37,-51,-43,-37
-12,-49,-33,30,4,-41,32,-23,-55,-75,-55,-61
-12,-55,-39,30,4,-47,32,-29,-61,-75,-61,-55
-30,-55,-21,42,-2,-41,32,-29,-67,-75,-55,-55
-54,-49,-4,48,-25,-23,50,-23,-61,-63,-49,-49
-102,-55,38,78,-73,-6,62,-6,-43,-45,-31,-25
-60,-55,-4,54,-31,-23,44,-17,-55,-57,-43,-37
-30,-61,-27,42,-2,-47,44,-23,-55,-57,-49,-31
-42,-61,-15,48,-7,-41,50,-23,-55,-63,-49,-31
-24,-55,-27,36,-2,-41,44,-29,-67,-63,-55,-43
-48,-55,-4,48,-19,-29,56,-23,-55,-63,-43,-43
-36,-55,-15,42,-7,-35,44,-29,-61,-69,-49,-49
-30,-61,-27,42,-2,-47,38,-35,-61,-75,-61,-49
-60,-61,-4,60,-25,-29,38,-35,-61,-69,-49,-43
-60,-55,-4,54,-31,-23,38,-35,-61,-69,-49,-43
-36,-61,-21,48,-2,-41,32,-41,-73,-69,-55,-49
-42,-61,-15,48,-7,-41,44,-53,-79,-69,-55,-55
-30,-61,-27,42,-2,-47,32,-41,-73,-69,-61,-49
-24,-61,-33,42,-2,-47,38,-41,-73,-81,-67,-73
-66,-67,-4,66,-31,-35,56,-29,-55,-63,-49,-49
-96,-67,20,78,-61,-17,62,-23,-49,-57,-43,-43
-66,-61,-4,60,-31,-29,44,-29,-67,-75,-61,-55
-54,-55,-4,54,-25,-29,44,-29,-73,-75,-61,-55
-42,-55,-9,48,-13,-35,32,-41,-67,-69,-61,-61
-42,-55,-9,48,-13,-35,38,-47,-67,-75,-61,-61
-66,-55,2,60,-37,-23,44,-35,-61,-63,-49,-49
-60,-55,-4,54,-31,-23,44,-41,-61,-57,-49,-49
-54,-55,-4,54,-25,-29,44,-47,-73,-63,-55,-49
-84,-61,14,72,-49,-17,56,-29,-55,-63,-49,-43
-72,-73,-4,72,-31,-35,56,-29,-61,-63,-49,-43
-42,-67,-21,54,-7,-47,44,-41,-61,-69,-61,-55
-48,-67,-15,54,-13,-41,50,-35,-67,-69,-55,-55
-42,-67,-21,54,-7,-47,44,-41,-73,-75,-61,-55
-48,-67,-15,54,-13,-41,38,-41,-73,-69,-67,-55
-84,-61,14,72,-49,-17,56,-35,-61,-57,-49,-37
-84,-61,14,72,-49,-17,50,-29,-61,-63,-49,-37
-42,-61,-15,48,-7,-41,38,-47,-79,-81,-67,-61
-36,-61,-21,48,-2,-41,38,-47,-73,-69,-61,-55
-60,-61,-4,60,-25,-29,44,-41,-73,-69,-67,-61
-60,-67,-4,60,-25,-35,44,-35,-73,-69,-61,-55
-30,-67,-33,48,-2,-53,38,-53,-79,-87,-73,-67
-24,-61,-33,42,-2,-47,32,-53,-85,-81,-73,-73
-42,-55,-9,48,-13,-35,32,-47,-73,-81,-67,-61
-42,-61,-15,48,-7,-41,26,-53,-79,-81,-73,-61
-42,-67,-21,54,-7,-47,38,-53,-85,-75,-67,-55
-30,-61,-27,42,-2,-47,32,-53,-85,-81,-67,-49
-30,-61,-27,42,-2,-47,44,-41,-73,-75,-61,-55
-18,-67,-45,42,4,-59,32,-47,-79,-75,-67,-61
-18,-61,-39,36,4,-53,32,-53,-85,-81,-79,-61
-36,-61,-21,48,-2,-41,32,-47,-73,-69,-67,-61
-60,-67,-4,60,-25,-35,50,-35,-61,-69,-61,-55
-78,-67,2,72,-43,-29,56,-35,-61,-69,-61,-55
-90,-73,8,78,-49,-29,56,-35,-55,-63,-61,-37
-84,-73,2,78,-43,-29,50,-41,-61,-63,-55,-37
-66,-73,-4,66,-25,-41,50,-47,-73,-63,-55,-49
-60,-73,-9,66,-19,-41,44,-41,-79,-63,-49,-37
-42,-67,-21,54,-7,-47,38,-53,-85,-75,-55,-49
-54,-73,-15,60,-13,-47,56,-47,-73,-63,-49,-43
-54,-79,-21,66,-13,-53,56,-41,-67,-63,-55,-49
-18,-79,-57,48,10,-71,32,-53,-85,-81,-67,-61
-18,-73,-51,42,10,-65,38,-59,-85,-69,-73,-67
-36,-67,-27,48,-2,-47,38,-47,-79,-69,-73,-67
-42,-73,-27,54,-2,-53,38,-47,-79,-81,-73,-61
-42,-73,-27,54,-2,-53,38,-53,-79,-69,-67,-55
-30,-73,-39,48,-2,-59,38,-59,-79,-75,-67,-61
-24,-67,-39,42,-2,-53,26,-59,-79,-69,-67,-61
-30,-73,-39,48,-2,-59,20,-59,-85,-87,-73,-67
-72,-79,-4,72,-31,-41,44,-41,-67,-75,-61,-49
-48,-67,-15,54,-13,-41,32,-53,-79,-87,-73,-67
-18,-67,-45,42,4,-59,20,-65,-97,-99,-85,-73
-24,-67,-39,42,-2,-53,32,-59,-79,-87,-73,-61
-60,-67,-4,60,-25,-35,38,-41,-67,-75,-67,-55
-114,-73,32,90,-73,-17,62,-23,-55,-63,-55,-49
-96,-73,14,84,-55,-23,44,-29,-61,-63,-49,-43
-36,-73,-33,54,-2,-53,32,-53,-79,-75,-67,-61
-30,-73,-39,48,-2,-59,26,-65,-85,-87,-79,-79
-72,-73,-4,72,-31,-35,44,-41,-73,-63,-55,-55
-48,-79,-27,60,-7,-53,38,-47,-73,-63,-49,-55
-36,-79,-39,54,-2,-59,38,-53,-73,-75,-67,-67
-48,-79,-27,60,-7,-53,38,-47,-67,-69,-55,-61
-48,-79,-27,60,-7,-53,44,-47,-73,-69,-55,-61
-54,-67,-9,60,-19,-41,32,-59,-85,-75,-67,-73
-42,-73,-27,54,-2,-53,44,-59,-73,-69,-67,-61
-42,-73,-27,54,-2,-53,38,-53,-79,-75,-61,-49
-36,-67,-27,48,-2,-47,32,-59,-79,-81,-73,-61
-36,-67,-27,48,-2,-47,26,-53,-73,-81,-67,-55
-48,-67,-15,54,-13,-41,38,-47,-79,-75,-61,-55
-54,-67,-9,60,-19,-41,44,-59,-73,-75,-67,-55
-18,-67,-45,42,4,-59,38,-65,-85,-87,-73,-67
-36,-61,-21,48,-2,-41,50,-47,-67,-69,-55,-49
-78,-55,14,66,-49,-17,74,-29,-43,-51,-37,-31
-30,-49,-15,36,-2,-35,56,-35,-61,-63,-49,-43
-30,-43,-9,36,-7,-29,62,-35,-55,-63,-49,-37
-48,-43,-4,42,-25,-17,62,-23,-43,-51,-31,-31
-7,-37,-27,18,4,-35,44,-41,-55,-63,-49,-49
-12,-25,-9,18,-2,-17,50,-35,-55,-57,-49,-37
-54,-19,26,36,-43,-6,68,-17,-31,-27,-25,-25
-66,-8,50,36,-61,12,68,-11,-25,-27,-31,-25
-42,-8,26,24,-37,0,56,-29,-43,-33,-37,-37
-42,-8,26,24,-37,0,62,-23,-37,-39,-37,-31
-18,-8,2,12,-13,-6,62,-29,-43,-39,-49,-37
-7,-8,-4,6,-2,-6,56,-35,-55,-51,-61,-49
-12,-8,-4,6,-7,-6,68,-29,-43,-45,-49,-37
-30,-8,20,12,-25,0,62,-23,-49,-51,-43,-31
-7,-8,-4,6,-2,-6,62,-29,-49,-51,-55,-31
-7,-8,2,6,-2,-6,56,-41,-55,-45,-55,-31
-30,4,38,6,-31,18,62,-23,-43,-33,-31,-19
-48,16,68,6,-55,42,68,-11,-25,-21,-19,-8
-60,10,74,18,-67,42,68,-6,-19,-10,-13,-8
-42,10,56,6,-49,30,50,-23,-31,-21,-19,-8
-30,10,44,6,-37,24,32,-35,-43,-27,-25,-13
-42,16,62,6,-49,36,32,-35,-37,-21,-19,-13
-48,22,74,6,-61,48,26,-29,-31,-10,-8,-8
-7,22,26,-5,-13,24,-4,-47,-49,-27,-25,-19
5,16,2,-11,-2,12,-4,-53,-43,-27,-31,-13
-1,16,8,-5,-2,12,-4,-41,-43,-27,-19,-13
5,16,2,-11,-2,12,20,-23,-25,-21,-13,-13
-1,10,2,-5,-2,6,32,-11,-25,-10,-13,-8
-7,10,20,6,-13,12,44,-6,-13,-10,-8,-8
5,16,2,-11,-2,12,32,-6,-8,-10,-8,-8
53,28,-21,-41,40,0,-4,-29,-31,-33,-25,-13
41,16,-21,-29,34,-6,-4,-29,-31,-27,-19,-8
11,10,-4,-11,4,0,2,-29,-31,-21,-8,-8
-7,4,2,1,-2,6,-4,-41,-37,-21,-13,-8
-18,-2,20,6,-19,6,8,-41,-37,-15,-13,-8
5,-8,-21,6,10,-11,-4,-53,-55,-39,-25,-13
47,-13,-69,-11,58,-41,-21,-83,-79,-57,-43,-43
-1,-25,-33,6,16,-29,-4,-71,-73,-51,-31,-31
-60,-43,8,48,-37,-11,20,-41,-49,-39,-25,-19
-66,-67,-4,66,-31,-35,26,-35,-49,-45,-37,-25
-7,-79,-69,42,22,-77,-4,-65,-79,-81,-67,-67
-18,-73,-51,42,10,-65,2,-59,-73,-81,-67,-61
-48,-73,-21,60,-7,-47,-4,-59,-73,-75,-61,-55
-12,-85,-69,48,22,-77,-4,-71,-85,-81,-73,-61
-7,-91,-87,42,34,-89,-15,-77,-85,-81,-73,-61
-18,-85,-63,48,16,-77,-21,-71,-79,-75,-61,-61
-7,-79,-81,36,34,-77,-39,-71,-79,-75,-55,-55
-7,-79,-81,36,34,-77,-51,-65,-67,-63,-55,-37
-1,-67,-75,24,34,-71,-69,-53,-55,-51,-43,-31
-1,-55,-63,18,28,-59,-75,-47,-43,-39,-19,-25
-1,-55,-63,18,28,-59,-93,-47,-31,-21,-8,-8
-7,-43,-39,18,10,-41,-111,-47,-8,-10,-8,-2
23,-19,-51,6,34,-35,-147,-65,-19,-10,-2,-2
65,-8,-81,-23,70,-41,-183,-83,-25,-10,-2,-8
53,-8,-57,-23,58,-23,-183,-71,-8,2,10,4
47,4,-39,-23,46,-11,-183,-47,10,26,34,28
101,16,-81,-59,94,-23,-231,-65,10,26,46,34
137,28,-105,-83,124,-29,-267,-77,10,38,46,46
125,34,-87,-77,106,-17,-291,-95,10,56,70,58
119,52,-63,-83,94,-6,-315,-107,22,68,88,76
149,64,-81,-107,118,-6,-339,-125,28,80,100,94
167,82,-81,-125,124,-6,-387,-149,34,92,118,112
191,112,-75,-149,136,12,-429,-197,22,98,130,124
203,130,-69,-167,136,24,-465,-227,16,110,148,142
215,160,-51,-185,136,48,-489,-245,28,134,172,166
185,184,-4,-185,94,90,-507,-257,46,170,208,208
209,220,2,-215,100,114,-537,-287,52,194,226,220
209,244,32,-227,82,144,-549,-293,70,224,250,238
173,274,98,-227,34,192,-543,-287,100,260,292,274
197,310,110,-251,40,216,-573,-305,112,278,310,298
317,346,20,-329,148,186,-633,-359,88,266,298,292
383,388,-4,-383,190,198,-681,-389,88,272,304,298
371,418,38,-395,166,234,-705,-401,112,302,352,346
389,448,50,-419,166,246,-723,-431,118,326,376,376
419,478,50,-449,184,264,-729,-449,130,356,406,394
401,502,98,-455,148,300,-717,-413,172,386,448,430
413,556,140,-479,136,348,-729,-389,220,440,496,478
443,628,182,-533,130,408,-765,-395,244,482,532,502
443,688,236,-563,100,468,-819,-377,280,530,580,556
497,736,236,-617,130,486,-891,-419,274,536,598,580
551,772,218,-665,166,492,-933,-467,268,554,628,604
551,808,248,-683,148,528,-945,-437,286,572,658,634
593,814,218,-707,190,516,-951,-377,322,590,682,664
665,850,182,-755,238,516,-999,-395,328,596,688,682
665,904,236,-779,214,570,-1035,-419,340,632,730,718
689,940,242,-809,220,594,-1053,-461,328,650,754,742
719,994,272,-857,220,636,-1059,-533,322,674,778,772
731,1078,338,-905,196,714,-1053,-599,310,710,820,814
725,1168,440,-947,142,804,-1053,-665,298,752,880,880
719,1276,554,-995,76,918,-1089,-785,274,806,940,952
695,1378,680,-1031,4,1026,-1107,-953,268,878,1012,1024
695,1498,800,-1097,-49,1152,-1149,-1121,232,944,1084,1108
689,1570,878,-1127,-91,1224,-1149,-1235,226,1034,1192,1210
707,1636,926,-1169,-103,1278,-1173,-1325,238,1154,1306,1312
749,1720,968,-1235,-103,1344,-1221,-1421,286,1298,1456,1432
773,1810,1028,-1289,-121,1422,-1257,-1547,310,1430,1588,1528
749,1846,1088,-1295,-163,1464,-1293,-1619,340,1568,1714,1636
809,1846,1028,-1325,-103,1440,-1371,-1637,394,1682,1810,1696
899,1852,950,-1373,-19,1404,-1467,-1655,448,1766,1882,1732
923,1822,896,-1373,10,1362,-1497,-1607,514,1856,1948,1768
917,1726,806,-1319,52,1266,-1503,-1511,580,1904,1972,1768
875,1642,758,-1253,52,1206,-1443,-1355,694,1934,1972,1738
845,1558,710,-1205,64,1134,-1365,-1199,796,1946,1948,1696
821,1498,674,-1163,70,1086,-1299,-1091,814,1916,1912,1654
755,1426,662,-1091,46,1044,-1197,-965,874,1904,1882,1606
665,1342,674,-1001,-2,1008,-1077,-833,892,1868,1822,1528
557,1240,680,-899,-55,966,-951,-755,784,1706,1672,1408
431,1060,626,-743,-91,846,-801,-653,598,1424,1438,1216
329,772,440,-551,-49,606,-609,-503,382,1022,1120,958
257,508,242,-383,4,378,-435,-377,202,656,772,688
197,334,134,-263,28,234,-297,-287,52,380,502,466
95,208,104,-149,-2,156,-189,-197,28,242,334,316
35,88,44,-59,-2,66,-99,-83,94,188,220,196
17,22,-4,-17,4,12,-63,-23,112,134,136,94
23,4,-15,-11,22,-6,-51,-11,112,116,118,70
17,-8,-33,1,22,-17,-21,-11,100,104,106,52
-7,-31,-27,12,4,-29,-4,-6,94,92,82,40
-30,-49,-15,36,-2,-35,8,24,82,74,64,22
-18,-61,-39,36,4,-53,26,24,64,38,28,-8
-42,-79,-33,60,-2,-59,32,30,52,14,-2,-8
-36,-97,-57,66,4,-77,50,42,28,-10,-19,-37
-24,-103,-75,60,16,-89,56,36,4,-45,-55,-67
-24,-109,-81,66,22,-95,68,36,-8,-51,-73,-73
-7,-127,-123,60,52,-125,62,24,-19,-87,-91,-103
-30,-139,-105,84,28,-125,86,54,-13,-75,-85,-97
-84,-145,-57,114,-7,-101,104,72,-8,-81,-79,-91
-126,-157,-27,138,-43,-95,122,90,-8,-81,-85,-97
-72,-169,-93,120,4,-131,110,78,-13,-105,-115,-127
-72,-187,-111,126,10,-149,122,84,-19,-111,-127,-139
-102,-187,-81,144,-7,-137,134,102,-25,-117,-133,-145
-84,-187,-99,132,-2,-143,140,102,-25,-129,-145,-151
-114,-187,-69,150,-19,-131,152,102,-25,-129,-145,-145
-132,-187,-51,156,-37,-119,152,96,-19,-117,-145,-133
-96,-181,-81,138,-2,-131,146,102,-31,-129,-157,-145
-96,-193,-93,144,-2,-143,152,96,-43,-135,-151,-151
-102,-205,-99,150,-2,-155,152,102,-37,-141,-157,-151
-96,-205,-105,150,-2,-155,158,102,-31,-141,-157,-157
-84,-205,-117,144,10,-161,158,108,-37,-147,-163,-163
-66,-211,-141,138,28,-179,152,102,-49,-153,-175,-169
-54,-217,-159,132,46,-191,152,96,-61,-165,-181,-187
-90,-217,-123,150,10,-173,176,120,-49,-159,-175,-175
-108,-205,-93,156,-2,-149,182,120,-49,-165,-181,-175
-102,-205,-99,150,-2,-155,176,108,-55,-165,-181,-181
-96,-193,-93,144,-2,-143,170,102,-55,-171,-193,-187
-96,-199,-99,144,-2,-149,176,114,-49,-153,-175,-175
-84,-205,-117,144,10,-161,164,108,-49,-165,-181,-175
-72,-199,-123,132,16,-161,164,108,-49,-171,-187,-181
-90,-199,-105,144,-2,-155,176,126,-37,-159,-181,-181
-120,-211,-87,162,-13,-149,194,156,-19,-141,-175,-163
-114,-211,-93,162,-7,-155,188,144,-31,-165,-187,-187
-90,-211,-117,150,4,-167,194,138,-43,-171,-199,-193
-78,-205,-123,138,16,-167,194,132,-43,-177,-205,-193
-78,-205,-123,138,16,-167,182,132,-43,-177,-205,-193
-78,-205,-123,138,16,-167,188,138,-43,-177,-211,-199
-78,-205,-123,138,16,-167,188,138,-37,-171,-199,-193
-108,-205,-93,156,-2,-149,194,156,-25,-159,-187,-193
-132,-205,-69,168,-25,-137,194,168,-13,-147,-175,-175
-78,-205,-123,138,16,-167,182,168,-19,-159,-187,-187
-60,-211,-147,132,34,-179,182,156,-31,-171,-205,-199
-114,-217,-99,162,-2,-161,212,180,-25,-165,-193,-187
-132,-217,-81,174,-19,-149,224,192,-19,-165,-187,-181
-60,-217,-153,138,40,-185,200,168,-43,-189,-223,-211
-72,-211,-135,138,22,-173,200,162,-37,-183,-223,-211
-108,-205,-93,156,-2,-149,212,186,-19,-177,-211,-199
-96,-205,-105,150,-2,-155,200,180,-31,-177,-205,-193
-108,-217,-105,162,-2,-161,206,186,-25,-177,-205,-193
-156,-223,-63,186,-43,-143,230,210,-8,-159,-187,-175
-138,-223,-81,180,-25,-155,230,204,-13,-171,-199,-193
-90,-223,-129,156,10,-179,224,204,-25,-177,-217,-211
-102,-235,-129,168,4,-185,230,216,-13,-189,-223,-211
-126,-229,-99,174,-7,-167,236,216,-25,-189,-229,-211
-114,-229,-111,168,-2,-173,236,216,-25,-189,-235,-223
-114,-229,-111,168,-2,-173,236,216,-25,-195,-229,-223
-132,-229,-93,180,-13,-161,242,228,-25,-207,-229,-223
-150,-235,-81,192,-31,-161,248,234,-13,-189,-223,-211
-114,-241,-123,174,-2,-185,236,228,-31,-195,-235,-217
-126,-241,-111,180,-2,-179,248,234,-13,-189,-229,-217
-150,-241,-87,192,-25,-167,260,258,-8,-183,-223,-211
-96,-241,-141,168,16,-191,248,234,-31,-213,-247,-235
-102,-241,-135,168,10,-191,254,234,-37,-219,-253,-247
-132,-235,-99,180,-13,-167,272,258,-25,-207,-247,-229
-96,-241,-141,168,16,-191,260,252,-43,-231,-259,-247
-108,-247,-135,174,4,-191,266,246,-43,-237,-265,-247
-132,-247,-117,192,-2,-185,278,264,-31,-231,-259,-247
-126,-247,-123,186,-2,-191,278,264,-37,-231,-265,-247
-138,-253,-117,198,-7,-191,290,276,-31,-225,-259,-241
-174,-259,-87,216,-37,-179,302,300,-13,-213,-247,-229
-198,-265,-69,234,-61,-173,320,318,-13,-213,-247,-241
-186,-271,-87,228,-43,-185,326,324,-13,-225,-259,-247
-162,-277,-117,222,-19,-203,326,318,-25,-243,-283,-259
-210,-289,-81,246,-61,-191,344,336,-25,-243,-277,-265
-216,-295,-81,252,-61,-191,350,342,-31,-249,-283,-271
-174,-295,-123,234,-19,-215,350,336,-37,-261,-307,-283
-138,-295,-159,216,4,-233,338,330,-49,-279,-319,-289
-132,-295,-165,216,10,-233,332,336,-55,-279,-319,-295
-144,-301,-159,222,-2,-233,344,342,-55,-285,-313,-301
-156,-301,-147,228,-2,-227,356,354,-49,-279,-319,-301
-132,-307,-177,222,16,-245,362,366,-55,-291,-337,-313
-120,-313,-195,216,28,-251,362,372,-61,-303,-349,-325
-138,-319,-183,228,16,-251,374,378,-67,-315,-361,-325
-174,-325,-153,246,-7,-245,392,402,-55,-315,-367,-319
-186,-331,-147,252,-13,-245,398,420,-55,-315,-367,-325
-186,-337,-153,258,-13,-245,416,426,-49,-315,-361,-331
-204,-343,-141,270,-25,-245,428,438,-49,-315,-361,-337
-192,-343,-153,264,-13,-245,416,444,-55,-321,-361,-343
-162,-355,-195,252,10,-275,416,444,-61,-339,-379,-349
-168,-355,-189,258,4,-269,428,456,-49,-333,-373,-343
-198,-355,-159,270,-13,-257,440,480,-43,-327,-373,-349
-198,-367,-171,276,-7,-269,452,480,-49,-339,-385,-361
-186,-379,-195,276,-2,-287,458,486,-61,-357,-409,-373
-186,-379,-195,276,-2,-287,464,492,-55,-363,-409,-373
-198,-379,-183,282,-2,-281,464,486,-67,-369,-415,-379
-216,-379,-165,294,-19,-269,470,504,-61,-381,-415,-373
-216,-379,-165,294,-19,-269,470,510,-61,-375,-409,-367
-210,-385,-177,294,-13,-281,470,516,-61,-369,-403,-361
-198,-391,-195,288,-2,-293,476,516,-55,-381,-409,-373
-186,-385,-201,282,-2,-293,470,516,-55,-387,-415,-379
-210,-397,-189,300,-7,-293,482,540,-49,-375,-403,-373
-198,-397,-201,294,-2,-299,470,534,-55,-393,-421,-391
-216,-397,-183,300,-13,-287,482,552,-49,-387,-421,-391
-240,-397,-159,312,-37,-275,488,570,-37,-375,-415,-367
-222,-397,-177,306,-19,-287,488,564,-49,-387,-421,-373
-216,-391,-177,300,-13,-281,482,552,-49,-393,-421,-379
-204,-385,-183,288,-7,-281,476,546,-55,-393,-415,-379
-222,-385,-165,300,-25,-275,482,552,-43,-375,-409,-361
-240,-391,-153,312,-37,-269,482,564,-31,-363,-391,-349
-180,-385,-207,276,4,-293,458,552,-37,-375,-403,-361
-174,-385,-213,276,10,-299,452,540,-43,-381,-409,-367
-162,-379,-219,264,22,-299,446,540,-43,-375,-415,-373
-126,-379,-249,246,58,-317,440,534,-49,-387,-415,-379
-156,-379,-225,264,28,-299,440,540,-25,-375,-409,-373
-162,-373,-213,264,16,-293,440,540,-31,-363,-397,-367
-174,-361,-189,264,-2,-275,434,540,-25,-351,-385,-343
-180,-361,-183,264,-2,-269,422,528,-25,-345,-373,-331
-174,-355,-183,258,-2,-269,404,522,-19,-339,-361,-331
-162,-343,-183,246,4,-263,398,522,-13,-321,-343,-313
-120,-337,-219,228,40,-275,368,498,-13,-327,-355,-313
-78,-325,-243,204,76,-287,344,480,-19,-327,-355,-325
-108,-319,-213,216,46,-263,350,486,-8,-297,-331,-301
-126,-307,-183,216,22,-245,344,486,-2,-285,-325,-301
-138,-289,-153,216,-2,-227,338,480,10,-267,-313,-283
-138,-277,-141,210,-2,-215,320,474,16,-255,-289,-253
-108,-265,-159,186,16,-215,308,456,10,-249,-265,-247
-96,-247,-153,174,22,-203,272,426,16,-237,-259,-235
-96,-241,-141,168,16,-191,260,408,22,-219,-247,-229
-96,-223,-123,156,4,-173,242,390,22,-207,-229,-205
-90,-217,-123,150,10,-173,236,378,40,-177,-199,-181
-102,-205,-99,150,-2,-155,230,366,52,-153,-175,-169
-102,-193,-87,144,-2,-143,218,342,46,-141,-157,-151
-78,-175,-93,126,-2,-137,200,318,52,-129,-151,-145
-48,-157,-105,102,22,-131,170,288,46,-123,-145,-139
-30,-139,-105,84,28,-125,140,246,34,-123,-145,-133
-18,-127,-105,72,34,-119,134,222,22,-111,-133,-115
-30,-109,-75,66,16,-95,110,198,22,-93,-121,-103
-30,-103,-69,66,10,-89,110,186,28,-75,-97,-85
-18,-91,-69,54,16,-83,98,168,28,-69,-91,-79
-18,-85,-63,48,16,-77,86,144,22,-57,-91,-67
-12,-79,-63,42,16,-71,80,132,22,-51,-79,-67
-30,-85,-51,54,4,-71,80,126,22,-39,-67,-55
-60,-73,-9,66,-19,-41,86,114,28,-27,-55,-55
-36,-61,-21,48,-2,-41,68,84,10,-33,-67,-55
-12,-55,-39,30,4,-47,56,48,-8,-45,-73,-61
-7,-55,-45,30,10,-53,50,36,-8,-45,-67,-61
-18,-55,-33,36,-2,-47,50,30,-8,-33,-55,-49
-48,-55,-4,48,-19,-29,50,24,-8,-21,-49,-43
-18,-49,-27,30,-2,-41,38,0,-19,-33,-61,-61
-12,-49,-33,30,4,-41,26,-6,-25,-27,-67,-55
-7,-55,-45,30,10,-53,38,-6,-19,-21,-61,-43
-24,-55,-27,36,-2,-41,44,-6,-19,-27,-55,-43
-36,-55,-15,42,-7,-35,44,-6,-25,-33,-67,-43
-24,-55,-27,36,-2,-41,38,-6,-37,-39,-79,-55
-18,-49,-27,30,-2,-41,32,-17,-43,-45,-73,-55
-48,-43,-4,42,-25,-17,50,-6,-37,-33,-55,-37
-72,-43,20,54,-49,-6,62,-17,-37,-27,-61,-31
-60,-49,2,54,-31,-17,50,-23,-31,-27,-55,-31
-30,-49,-15,36,-2,-35,32,-35,-55,-39,-73,-49
-24,-55,-27,36,-2,-41,38,-35,-61,-33,-73,-55
-36,-61,-21,48,-2,-41,44,-23,-49,-33,-73,-49
-30,-55,-21,42,-2,-41,38,-29,-55,-39,-79,-61
-36,-55,-15,42,-7,-35,50,-17,-49,-33,-73,-55
-60,-55,-4,54,-31,-23,50,-11,-43,-33,-67,-49
-60,-55,-4,54,-31,-23,44,-11,-49,-33,-67,-43
-48,-49,-4,48,-19,-23,44,-23,-61,-39,-73,-49
-36,-37,-4,36,-13,-17,44,-23,-55,-33,-67,-49
-60,-43,8,48,-37,-11,44,-23,-43,-33,-73,-37
-84,-49,26,66,-55,-6,50,-17,-37,-27,-61,-31
-48,-43,-4,42,-25,-17,44,-23,-49,-33,-67,-55
-30,-43,-9,36,-7,-29,38,-23,-49,-33,-67,-55
-24,-43,-15,30,-2,-29,32,-23,-55,-45,-73,-55
-42,-49,-4,42,-13,-29,50,-11,-43,-33,-67,-55
-48,-49,-4,48,-19,-23,44,-11,-49,-39,-73,-67
-30,-49,-15,36,-2,-35,44,-17,-55,-45,-73,-61
-18,-43,-21,30,-2,-35,38,-23,-55,-51,-79,-67
-48,-37,2,42,-25,-11,44,-17,-43,-33,-73,-55
-66,-43,14,54,-43,-11,56,-6,-25,-15,-49,-31
-24,-43,-15,30,-2,-29,38,-17,-43,-39,-73,-61
5,-49,-63,12,34,-53,26,-17,-43,-45,-79,-67
-18,-55,-33,36,-2,-47,44,-6,-25,-27,-67,-49
-36,-55,-15,42,-7,-35,50,-6,-31,-27,-61,-43
-30,-49,-15,36,-2,-35,50,-6,-31,-39,-61,-49
-36,-43,-4,36,-13,-23,50,0,-31,-39,-73,-55
-66,-37,20,48,-43,-6,56,18,-13,-27,-61,-43
-54,-37,8,42,-31,-11,62,12,-13,-27,-55,-49
-7,-37,-33,18,10,-35,44,-6,-31,-45,-79,-67
-7,-37,-27,18,4,-35,38,-6,-25,-39,-79,-61
-24,-43,-15,30,-2,-29,44,6,-19,-33,-67,-55
-30,-49,-15,36,-2,-35,50,12,-13,-15,-55,-55
-72,-43,20,54,-49,-6,68,24,-8,-10,-49,-43
-60,-37,14,48,-37,-6,74,30,-8,-10,-49,-43
-36,-37,-4,36,-13,-17,56,24,-8,-21,-61,-55
-48,-43,-4,42,-25,-17,62,30,-8,-15,-55,-55
-60,-43,8,48,-37,-11,62,30,-8,-15,-55,-55
-48,-37,2,42,-25,-11,56,24,-13,-27,-61,-55
-36,-37,-4,36,-13,-17,56,18,-13,-21,-61,-49
-42,-43,-4,42,-19,-23,50,12,-8,-21,-67,-49
-66,-43,14,54,-43,-11,68,24,-8,-15,-55,-49
-48,-43,-4,42,-25,-17,62,30,-8,-15,-61,-55
-18,-49,-27,30,-2,-41,50,12,-19,-21,-73,-61
-42,-49,-4,42,-13,-29,62,30,-8,-15,-61,-49
-66,-49,8,54,-37,-17,74,42,-8,-15,-61,-43
-54,-49,-4,48,-25,-23,68,30,-8,-21,-61,-61
-54,-43,2,48,-31,-17,62,30,-13,-15,-61,-61
-24,-43,-15,30,-2,-29,56,24,-13,-21,-67,-61
-24,-43,-15,30,-2,-29,56,18,-13,-21,-67,-55
-30,-43,-9,36,-7,-29,62,24,-8,-10,-61,-49
-36,-49,-9,42,-7,-29,56,30,-19,-15,-61,-49
-36,-55,-15,42,-7,-35,62,36,-13,-10,-55,-55
-48,-55,-4,48,-19,-29,62,30,-8,-10,-55,-49
-36,-49,-9,42,-7,-29,62,30,-8,-15,-67,-55
-18,-49,-27,30,-2,-41,56,24,-13,-21,-73,-67
-12,-49,-33,30,4,-41,50,12,-25,-27,-73,-67
-18,-49,-27,30,-2,-41,50,18,-31,-33,-73,-61
-30,-43,-9,36,-7,-29,62,30,-19,-27,-73,-61
-84,-37,38,60,-61,-6,74,36,-8,-10,-55,-49
-78,-43,26,60,-55,-6,68,30,-8,-15,-55,-49
-60,-43,8,48,-37,-11,62,18,-8,-15,-55,-43
-30,-37,-4,30,-7,-23,56,18,-25,-15,-67,-55
-7,-43,-45,18,16,-41,50,12,-37,-27,-79,-67
-7,-49,-39,24,10,-47,50,6,-31,-27,-73,-61
-48,-49,-4,48,-19,-23,68,24,-19,-15,-61,-55
-48,-43,-4,42,-25,-17,68,18,-19,-15,-61,-55
-36,-43,-4,36,-13,-23,56,12,-31,-27,-73,-55
-24,-43,-15,30,-2,-29,50,-6,-43,-39,-85,-73
-30,-43,-9,36,-7,-29,56,0,-37,-27,-73,-67
-36,-43,-4,36,-13,-23,56,0,-31,-15,-67,-55
-18,-43,-21,30,-2,-35,50,0,-37,-15,-67,-49
-7,-43,-39,18,10,-41,44,-6,-43,-21,-73,-61
-12,-49,-33,30,4,-41,44,-6,-43,-15,-73,-67
-42,-55,-9,48,-13,-35,56,6,-31,-15,-67,-61
-36,-55,-15,42,-7,-35,62,6,-31,-21,-67,-55
-48,-55,-4,48,-19,-29,56,0,-37,-21,-67,-67
-24,-55,-27,36,-2,-41,44,-6,-49,-33,-79,-73
-30,-55,-21,42,-2,-41,50,-6,-55,-33,-79,-73
-60,-55,-4,54,-31,-23,56,-6,-37,-15,-61,-55
-42,-55,-9,48,-13,-35,56,-6,-37,-21,-67,-49
-42,-55,-9,48,-13,-35,62,-6,-43,-15,-61,-49
-48,-55,-4,48,-19,-29,56,-6,-43,-15,-61,-61
-66,-61,-4,60,-31,-29,62,-6,-37,-15,-55,-55
-42,-61,-15,48,-7,-41,50,-6,-49,-27,-73,-67
-30,-61,-27,42,-2,-47,56,-6,-49,-33,-73,-61
-36,-55,-15,42,-7,-35,56,-11,-49,-27,-73,-67
-48,-49,-4,48,-19,-23,56,-6,-49,-27,-73,-67
-30,-55,-21,42,-2,-41,50,-17,-67,-39,-85,-73
-18,-49,-27,30,-2,-41,38,-29,-73,-45,-97,-91
-18,-55,-33,36,-2,-47,44,-29,-67,-45,-91,-79
-42,-61,-15,48,-7,-41,50,-29,-67,-33,-79,-67
-54,-61,-4,54,-19,-35,50,-11,-55,-21,-67,-67
-66,-61,-4,60,-31,-29,62,-6,-55,-15,-73,-61
-42,-61,-15,48,-7,-41,50,-17,-61,-33,-73,-73
-7,-61,-51,30,16,-59,44,-29,-73,-45,-85,-73
-7,-61,-51,30,16,-59,44,-29,-79,-45,-85,-79
-42,-61,-15,48,-7,-41,50,-17,-61,-39,-79,-67
-72,-55,8,60,-43,-17,62,-11,-49,-21,-67,-55
-48,-55,-4,48,-19,-29,56,-23,-67,-33,-79,-67
-36,-55,-15,42,-7,-35,50,-23,-67,-33,-79,-73
-42,-61,-15,48,-7,-41,50,-23,-67,-33,-73,-67
-78,-61,8,66,-43,-23,62,-17,-55,-15,-61,-55
-114,-61,44,84,-79,-6,62,-6,-43,-10,-61,-55
-114,-67,38,90,-79,-11,80,-6,-43,-10,-55,-55
-60,-67,-4,60,-25,-35,62,-17,-55,-21,-67,-61
-18,-49,-27,30,-2,-41,38,-41,-79,-45,-91,-85
-36,-55,-15,42,-7,-35,44,-35,-61,-39,-79,-73
-24,-55,-27,36,-2,-41,32,-35,-79,-45,-91,-79
-18,-55,-33,36,-2,-47,38,-35,-79,-39,-97,-79
-60,-55,-4,54,-31,-23,50,-29,-67,-33,-85,-73
-66,-67,-4,66,-31,-35,56,-29,-61,-21,-85,-67
-54,-67,-9,60,-19,-41,44,-35,-73,-33,-85,-73
-42,-67,-21,54,-7,-47,44,-41,-73,-39,-85,-73
-54,-67,-9,60,-19,-41,50,-29,-67,-39,-91,-79
-48,-61,-9,54,-13,-35,50,-29,-67,-39,-97,-79
-36,-55,-15,42,-7,-35,44,-35,-79,-39,-91,-85
-36,-61,-21,48,-2,-41,44,-41,-79,-45,-97,-79
-54,-55,-4,54,-25,-29,50,-41,-79,-39,-91,-73
-60,-61,-4,60,-25,-29,44,-41,-79,-39,-91,-79
-48,-61,-9,54,-13,-35,44,-41,-73,-39,-91,-79
-42,-61,-15,48,-7,-41,44,-53,-79,-45,-103,-85
-48,-61,-9,54,-13,-35,50,-41,-79,-39,-91,-85
-54,-61,-4,54,-19,-35,50,-35,-73,-33,-91,-73
-72,-67,-4,66,-37,-29,50,-23,-61,-27,-85,-61
-30,-73,-39,48,-2,-59,38,-47,-85,-45,-97,-85
17,-61,-87,12,52,-71,14,-65,-103,-69,-121,-115
5,-49,-63,12,34,-53,26,-59,-97,-63,-115,-103
-48,-49,-4,48,-19,-23,50,-35,-73,-39,-91,-73
-96,-61,26,78,-61,-11,68,-17,-55,-27,-73,-61
-102,-55,38,78,-73,-6,62,-23,-55,-27,-79,-67
-30,-55,-21,42,-2,-41,38,-41,-79,-45,-97,-79
-7,-61,-51,30,16,-59,32,-53,-85,-51,-103,-91
-66,-67,-4,66,-31,-35,50,-29,-67,-33,-85,-73
-54,-67,-9,60,-19,-41,50,-35,-61,-39,-91,-79
-12,-61,-45,36,10,-53,44,-47,-79,-63,-103,-91
-36,-55,-15,42,-7,-35,44,-41,-79,-45,-97,-85
-54,-55,-4,54,-25,-29,50,-35,-67,-39,-91,-67
-42,-61,-15,48,-7,-41,38,-35,-79,-39,-91,-79
-30,-61,-27,42,-2,-47,38,-47,-85,-51,-97,-85
-18,-61,-39,36,4,-53,32,-53,-85,-57,-103,-85
-18,-55,-33,36,-2,-47,32,-47,-85,-45,-103,-73
-24,-61,-33,42,-2,-47,38,-41,-85,-45,-103,-79
-48,-67,-15,54,-13,-41,50,-29,-79,-39,-97,-79
-60,-67,-4,60,-25,-35,50,-29,-67,-33,-85,-67
-54,-61,-4,54,-19,-35,50,-35,-67,-33,-91,-67
-66,-61,-4,60,-31,-29,50,-35,-73,-39,-85,-67
-66,-67,-4,66,-31,-35,50,-41,-79,-45,-91,-73
-24,-73,-45,48,4,-59,32,-47,-91,-51,-115,-85
-12,-67,-51,36,10,-59,26,-53,-85,-51,-109,-91
-18,-61,-39,36,4,-53,32,-53,-85,-51,-109,-85
-12,-67,-51,36,10,-59,32,-59,-97,-51,-109,-79
-24,-61,-33,42,-2,-47,32,-53,-85,-45,-103,-85
-36,-67,-27,48,-2,-47,38,-47,-85,-45,-103,-73
-42,-61,-15,48,-7,-41,38,-47,-79,-45,-97,-79
-66,-67,-4,66,-31,-35,50,-35,-79,-39,-85,-61
-72,-61,2,66,-37,-23,44,-41,-85,-39,-91,-79
-18,-67,-45,42,4,-59,20,-65,-103,-63,-109,-103
-48,-61,-9,54,-13,-35,44,-47,-85,-45,-91,-79
-96,-67,20,78,-61,-17,56,-35,-67,-27,-79,-55
-78,-61,8,66,-43,-23,44,-47,-73,-39,-91,-61
-60,-55,-4,54,-31,-23,44,-35,-73,-27,-91,-61
-42,-43,-4,42,-19,-23,38,-35,-73,-27,-85,-67
-54,-49,-4,48,-25,-23,56,-23,-61,-27,-79,-55
-54,-49,-4,48,-25,-23,56,-17,-55,-21,-79,-67
-24,-37,-9,30,-2,-23,56,-17,-61,-27,-79,-67
-36,-31,-4,30,-19,-11,50,-17,-49,-21,-73,-61
-30,-25,-4,24,-13,-11,56,-11,-49,-27,-85,-67
-18,-19,-4,18,-7,-11,50,-23,-55,-27,-85,-61
-30,-13,8,18,-19,-6,50,-23,-61,-10,-79,-55
-54,-8,38,30,-49,6,56,-11,-43,-10,-61,-43
-48,-8,32,24,-43,6,68,-17,-43,-10,-61,-43
-42,-8,26,24,-37,0,68,-11,-43,-10,-67,-61
-30,-8,20,12,-25,0,62,-17,-49,-10,-79,-61
-36,-2,38,12,-37,18,68,-11,-37,-4,-61,-43
-36,-8,32,12,-31,12,74,-6,-37,-4,-67,-43
-30,-8,26,12,-25,6,74,-17,-43,-10,-73,-55
-30,-8,26,12,-25,6,74,-11,-43,-10,-73,-49
-12,-8,8,6,-7,0,68,-23,-49,-10,-73,-55
-7,4,14,6,-7,6,62,-35,-61,-15,-79,-61
-24,4,32,6,-25,18,62,-29,-49,-10,-61,-43
-12,4,20,6,-13,12,50,-29,-43,-10,-61,-43
-7,16,14,-5,-2,18,38,-29,-49,-10,-67,-49
-7,10,20,6,-13,12,38,-35,-49,-10,-61,-49
-18,10,32,6,-25,18,38,-35,-49,-10,-55,-43
-7,22,32,1,-19,24,26,-47,-49,-21,-61,-37
-7,28,38,-5,-19,30,8,-47,-49,-21,-55,-37
-18,28,50,1,-31,36,8,-29,-37,-10,-43,-25
-30,28,62,6,-43,42,8,-17,-31,-10,-37,-19
-42,28,74,6,-55,48,14,-17,-31,-10,-37,-19
-30,28,62,6,-43,42,20,-6,-25,-10,-37,-8
11,22,2,-17,-2,12,20,-11,-25,-10,-43,-25
29,16,-9,-23,22,0,20,-11,-25,-10,-37,-37
23,10,-9,-17,16,-6,20,-11,-25,-10,-37,-31
11,28,8,-17,-2,18,8,-11,-19,-10,-31,-19
-1,22,14,-11,-2,18,8,-11,-13,-10,-25,-13
-7,4,2,1,-2,6,2,-29,-25,-10,-25,-19
-7,-8,2,6,-2,-6,8,-35,-37,-15,-31,-19
-7,-8,-4,6,-2,-6,-4,-47,-49,-21,-43,-25
-1,-8,-4,6,4,-6,-9,-59,-67,-51,-55,-37
-7,-13,-4,6,-2,-11,-4,-53,-55,-33,-43,-25
-1,-25,-33,6,16,-29,-4,-71,-73,-51,-61,-37
5,-31,-45,6,22,-35,-4,-71,-73,-63,-61,-49
5,-49,-63,12,34,-53,-4,-65,-73,-63,-79,-61
-7,-67,-57,36,16,-65,2,-47,-67,-57,-79,-67
-30,-67,-33,48,-2,-53,2,-53,-67,-69,-85,-67
-48,-73,-21,60,-7,-47,-4,-53,-67,-63,-73,-67
-48,-79,-27,60,-7,-53,-4,-53,-61,-63,-73,-55
-36,-79,-39,54,-2,-59,-15,-59,-73,-69,-79,-61
-30,-73,-39,48,-2,-59,-33,-65,-79,-69,-79,-61
-12,-67,-51,36,10,-59,-51,-59,-73,-63,-79,-61
5,-61,-75,18,40,-65,-63,-59,-61,-51,-67,-49
11,-43,-63,6,34,-53,-81,-53,-49,-39,-49,-43
-1,-37,-45,12,22,-41,-87,-47,-43,-33,-43,-25
-7,-31,-27,12,4,-29,-105,-47,-31,-21,-25,-13
23,-31,-63,6,40,-47,-135,-59,-31,-21,-25,-19
41,-13,-63,-5,52,-35,-165,-59,-13,-10,-19,-19
17,-8,-33,1,22,-17,-159,-47,-8,8,-8,-2
35,-2,-33,-17,34,-11,-177,-47,-2,14,4,10
41,16,-21,-29,34,-6,-201,-41,4,32,16,22
59,22,-33,-41,46,-6,-237,-53,16,44,34,28
113,34,-75,-71,94,-11,-273,-71,22,44,34,34
113,46,-63,-77,88,-6,-303,-89,16,62,64,52
119,70,-45,-95,82,6,-333,-101,28,74,70,70
143,88,-51,-113,100,12,-369,-125,40,92,88,82
173,100,-69,-137,124,12,-405,-149,34,104,106,100
167,124,-39,-143,106,36,-441,-173,52,122,130,124
203,148,-51,-173,130,42,-489,-203,40,134,142,136
257,178,-81,-221,172,42,-537,-245,22,134,148,148
233,208,-27,-221,136,84,-555,-275,34,158,178,172
233,232,-4,-233,112,120,-561,-287,64,200,214,214
233,268,32,-245,94,156,-585,-305,76,224,232,238
233,298,56,-263,88,180,-597,-317,94,248,256,256
257,334,68,-293,94,204,-615,-317,106,266,292,280
281,370,80,-323,100,228,-639,-317,136,290,310,304
317,406,80,-359,118,240,-675,-353,142,320,334,328
353,442,80,-395,136,258,-723,-395,142,338,358,352
371,472,92,-419,136,282,-735,-407,154,356,388,376
383,490,104,-437,136,300,-723,-407,178,386,430,412
389,532,140,-461,124,336,-729,-389,220,422,466,454
413,598,182,-503,112,390,-747,-383,244,470,502,484
431,664,230,-545,100,450,-789,-389,274,506,550,532
473,706,230,-587,118,468,-855,-383,298,542,580,568
503,754,242,-629,130,498,-909,-419,304,566,610,592
533,796,254,-665,136,528,-933,-443,310,584,646,622
581,814,230,-701,178,522,-951,-401,316,590,652,634
611,832,218,-725,196,522,-951,-341,352,602,670,646
629,886,248,-755,190,570,-993,-371,364,632,712,682
653,922,260,-785,196,594,-1029,-425,358,650,736,724
623,958,326,-785,148,642,-1023,-473,352,674,754,760
605,1036,428,-821,88,732,-1023,-557,334,710,796,802
653,1132,476,-893,88,804,-1029,-641,304,728,832,838
659,1222,560,-941,46,894,-1041,-737,280,776,886,904
647,1336,686,-989,-13,1008,-1077,-881,250,824,946,964
629,1438,800,-1031,-79,1122,-1113,-1031,232,896,1006,1030
617,1534,914,-1073,-145,1224,-1137,-1169,214,974,1108,1132
629,1600,968,-1115,-163,1284,-1143,-1271,226,1082,1216,1240
695,1672,968,-1181,-133,1320,-1197,-1385,232,1196,1330,1324
755,1744,980,-1247,-109,1368,-1245,-1493,256,1316,1450,1432
773,1822,1040,-1295,-127,1434,-1293,-1631,256,1448,1570,1534
803,1852,1040,-1325,-115,1452,-1365,-1703,274,1556,1690,1606
839,1858,1010,-1349,-79,1440,-1449,-1703,352,1676,1780,1666
857,1852,986,-1355,-61,1422,-1503,-1679,436,1796,1888,1732
863,1798,932,-1331,-25,1368,-1533,-1607,508,1874,1942,1756
863,1702,836,-1283,10,1272,-1515,-1481,586,1928,1960,1744
869,1612,734,-1235,64,1176,-1443,-1325,700,1940,1942,1690
827,1516,686,-1175,70,1104,-1365,-1181,784,1940,1912,1630
773,1456,674,-1115,46,1062,-1287,-1079,796,1922,1882,1588
695,1390,692,-1037,-2,1038,-1179,-935,850,1904,1846,1552
575,1318,734,-947,-73,1026,-1047,-827,856,1850,1762,1468
491,1210,716,-851,-103,966,-921,-749,724,1676,1606,1336
389,1012,620,-701,-109,816,-759,-623,556,1364,1360,1144
233,718,476,-479,-115,594,-567,-455,370,962,1036,886
149,460,302,-299,-73,384,-375,-311,208,614,712,616
101,298,194,-203,-37,246,-249,-245,64,362,466,412
29,178,140,-101,-49,162,-153,-155,52,230,304,274
-7,58,68,-17,-37,60,-75,-47,118,176,184,154
-7,10,20,6,-13,12,-39,-11,130,134,130,76
17,-2,-15,-5,16,-6,-45,-17,106,104,100,46
41,-8,-57,-11,46,-29,-51,-23,82,62,58,10
17,-31,-57,6,34,-41,-21,-6,76,56,52,4
-7,-49,-45,24,16,-47,-4,0,64,38,28,-8
-18,-61,-39,36,4,-53,14,12,46,14,4,-25
-30,-85,-51,54,4,-71,38,30,40,-4,-8,-37
-36,-97,-57,66,4,-77,50,36,22,-21,-31,-61
-60,-115,-51,84,-2,-83,68,42,16,-45,-55,-79
-78,-127,-45,102,-13,-89,92,54,10,-57,-61,-79
-78,-133,-51,102,-7,-95,92,60,-8,-75,-79,-91
-66,-145,-75,102,-2,-113,86,60,-8,-93,-97,-109
-54,-151,-93,102,10,-125,86,60,-13,-105,-109,-121
-36,-163,-123,96,34,-143,86,60,-25,-123,-127,-133
-54,-169,-111,108,22,-143,110,72,-25,-123,-127,-139
-90,-175,-81,132,-2,-131,122,90,-13,-129,-133,-139
-90,-181,-87,132,-2,-137,122,90,-31,-141,-145,-151
-66,-193,-123,126,22,-161,134,90,-37,-153,-157,-175
-96,-199,-99,144,-2,-149,140,96,-25,-153,-157,-163
-114,-199,-81,156,-13,-143,152,102,-25,-153,-163,-157
-90,-193,-99,138,-2,-149,134,90,-43,-165,-175,-169
-90,-193,-99,138,-2,-149,140,90,-43,-159,-175,-169
-126,-193,-63,156,-25,-131,146,102,-31,-147,-157,-157
-126,-199,-69,162,-25,-137,152,114,-31,-147,-163,-163
-102,-199,-93,150,-2,-149,158,108,-43,-171,-175,-175
-72,-205,-129,138,22,-167,158,102,-43,-177,-193,-187
-60,-205,-141,132,34,-173,146,102,-55,-189,-199,-199
-90,-211,-117,150,4,-167,170,108,-43,-183,-199,-193
-126,-211,-81,168,-19,-149,176,120,-37,-177,-187,-187
-144,-211,-63,174,-37,-137,188,126,-31,-165,-175,-175
-132,-205,-69,168,-25,-137,182,120,-43,-171,-181,-181
-132,-205,-69,168,-25,-137,182,126,-43,-171,-181,-181
-156,-211,-51,180,-49,-131,188,138,-31,-159,-169,-169
-126,-217,-87,168,-13,-155,176,138,-37,-177,-175,-169
-108,-211,-99,156,-2,-155,176,132,-43,-183,-181,-187
-138,-217,-75,174,-25,-149,188,144,-31,-165,-181,-181
-132,-211,-75,168,-25,-143,188,150,-31,-177,-193,-187
-72,-211,-135,138,22,-173,176,138,-43,-195,-205,-205
-90,-205,-111,144,4,-161,182,132,-49,-195,-199,-199
-120,-205,-81,162,-13,-143,182,144,-43,-183,-205,-187
-108,-199,-87,150,-7,-143,182,138,-49,-195,-205,-205
-120,-205,-81,162,-13,-143,188,144,-37,-195,-199,-193
-90,-205,-111,144,4,-161,176,144,-49,-201,-193,-199
-54,-205,-147,126,40,-179,164,132,-61,-207,-211,-205
-120,-205,-81,162,-13,-143,188,156,-43,-189,-193,-193
-144,-211,-63,174,-37,-137,212,174,-19,-177,-187,-175
-126,-211,-81,168,-19,-149,200,168,-37,-183,-205,-193
-132,-217,-81,174,-19,-149,212,180,-25,-189,-205,-205
-114,-217,-99,162,-2,-161,212,174,-37,-201,-211,-211
-132,-217,-81,174,-19,-149,218,186,-31,-183,-211,-187
-156,-211,-51,180,-49,-131,224,192,-31,-183,-199,-187
-156,-217,-57,186,-43,-137,230,186,-25,-183,-199,-193
-144,-211,-63,174,-37,-137,224,192,-25,-189,-199,-205
-120,-211,-87,162,-13,-149,212,192,-31,-195,-211,-211
-102,-217,-111,156,-2,-167,212,186,-31,-201,-211,-223
-72,-229,-153,150,34,-191,212,186,-31,-207,-223,-217
-96,-229,-129,162,10,-179,224,198,-43,-213,-229,-223
-132,-229,-93,180,-13,-161,230,210,-25,-207,-223,-217
-150,-235,-81,192,-31,-161,242,222,-19,-195,-217,-211
-180,-235,-51,204,-61,-143,248,234,-13,-189,-211,-205
-150,-229,-75,186,-31,-155,242,222,-25,-213,-223,-217
-114,-235,-117,174,-2,-179,242,222,-43,-219,-229,-217
-138,-235,-93,186,-19,-167,248,234,-31,-207,-217,-211
-132,-235,-99,180,-13,-167,242,234,-31,-213,-223,-205
-138,-235,-93,186,-19,-167,248,234,-37,-225,-235,-223
-180,-247,-69,216,-49,-161,278,252,-13,-207,-223,-211
-180,-247,-69,216,-49,-161,284,264,-19,-207,-229,-217
-138,-247,-105,192,-13,-179,272,258,-25,-237,-247,-235
-132,-247,-111,186,-7,-179,272,252,-31,-237,-253,-247
-150,-247,-99,198,-19,-179,284,270,-19,-231,-247,-229
-156,-247,-87,198,-31,-167,290,276,-25,-237,-247,-229
-144,-247,-105,198,-13,-179,278,264,-37,-243,-253,-235
-114,-247,-135,180,4,-197,284,270,-49,-249,-265,-247
-138,-253,-117,198,-7,-191,290,276,-49,-261,-271,-253
-150,-265,-117,210,-13,-197,296,288,-43,-255,-265,-265
-168,-277,-111,222,-25,-197,308,306,-43,-261,-271,-253
-186,-283,-99,234,-37,-197,326,330,-31,-255,-265,-247
-174,-277,-105,228,-31,-197,326,330,-37,-267,-283,-259
-156,-277,-123,216,-13,-203,332,330,-37,-279,-295,-271
-156,-283,-129,222,-7,-209,332,336,-43,-291,-301,-283
-192,-283,-93,240,-43,-191,356,354,-43,-291,-295,-271
-186,-295,-111,240,-31,-209,350,354,-49,-291,-301,-271
