,,,,,,,,,,,
2019-09-04 23:54:55,,,,,,,,,,,
,,,,,,,,,,,
I,II,III,aVR,aVL,aVF,V1,V2,V3,V4,V5,V6
159,2822,2661,-1489,-1243,2739,-463,540,4101,3590,2600,1767
159,2822,2661,-1489,-1243,2739,-463,540,4101,3590,2600,1767
159,2822,2661,-1489,-1243,2739,-463,540,4101,3590,2600,1767
159,2822,2661,-1489,-1243,2739,-463,540,4101,3590,2600,1767
147,2756,2607,-1453,-1225,2685,-673,132,4005,3566,2606,1755
135,2696,2553,-1417,-1207,2625,-883,-263,3915,3542,2606,1749
123,2630,2499,-1375,-1183,2565,-1093,-677,3819,3518,2612,1737
111,2564,2452,-1339,-1165,2505,-1303,-1079,3723,3494,2612,1731
57,2259,2200,-1159,-1063,2236,-1387,-1235,3111,2936,2235,1473
9,1966,1949,-991,-961,1961,-1471,-1397,2493,2379,1870,1215
-32,1660,1697,-805,-859,1679,-1549,-1553,1883,1816,1492,957
-80,1360,1445,-637,-757,1403,-1633,-1709,1265,1258,1126,699
-104,1024,1127,-457,-613,1073,-1495,-1571,809,832,778,435
-122,682,803,-271,-463,743,-1369,-1433,359,406,442,177
-146,340,491,-91,-313,413,-1237,-1289,-90,-13,94,-80
-164,11,167,76,-163,83,-1105,-1151,-540,-445,-235,-338
-134,-61,65,94,-97,6,-997,-1031,-498,-409,-235,-350
-110,-127,-12,118,-43,-72,-901,-923,-462,-379,-235,-356
-80,-193,-114,136,10,-156,-793,-803,-426,-343,-229,-368
-56,-259,-198,160,70,-228,-697,-695,-390,-313,-229,-374
-38,-289,-246,166,100,-270,-577,-599,-366,-301,-235,-380
-20,-313,-288,166,130,-300,-463,-503,-342,-295,-241,-386
-3,-343,-336,172,166,-342,-343,-413,-318,-283,-253,-398
3,-367,-378,178,196,-372,-229,-317,-294,-277,-259,-404
-3,-343,-348,166,178,-342,-187,-287,-270,-259,-247,-392
-3,-319,-324,154,166,-318,-151,-257,-246,-247,-235,-386
-3,-295,-294,148,148,-294,-109,-233,-222,-229,-229,-380
-3,-271,-270,136,136,-270,-73,-203,-198,-217,-217,-374
-3,-259,-264,124,136,-258,-55,-191,-192,-211,-205,-362
-3,-253,-258,124,130,-252,-37,-179,-186,-199,-193,-356
3,-241,-252,112,130,-246,-20,-167,-174,-187,-181,-344
3,-235,-246,112,130,-240,-14,-155,-168,-175,-169,-338
3,-241,-252,112,130,-246,-8,-143,-168,-175,-175,-332
3,-241,-252,112,130,-246,-2,-131,-168,-175,-175,-332
3,-247,-258,118,136,-252,4,-119,-168,-175,-181,-326
3,-247,-258,118,136,-252,10,-107,-168,-175,-181,-326
9,-241,-258,112,136,-246,10,-101,-162,-169,-175,-326
9,-241,-258,112,136,-246,10,-101,-156,-169,-175,-326
15,-235,-258,106,142,-246,10,-95,-150,-163,-169,-326
15,-235,-258,106,142,-246,10,-95,-144,-163,-169,-326
21,-229,-258,100,142,-240,16,-83,-138,-157,-163,-320
21,-229,-258,100,142,-240,16,-77,-138,-151,-163,-320
27,-223,-258,94,148,-240,22,-65,-132,-145,-157,-314
27,-223,-258,94,148,-240,22,-59,-132,-139,-157,-314
33,-217,-258,88,148,-234,22,-59,-126,-133,-151,-308
33,-211,-252,82,148,-228,22,-59,-126,-133,-151,-308
39,-205,-252,76,148,-228,22,-59,-120,-127,-145,-302
39,-199,-246,76,148,-222,22,-59,-120,-127,-145,-302
45,-193,-246,70,148,-216,22,-53,-114,-121,-139,-296
45,-187,-240,64,148,-210,22,-53,-114,-115,-133,-296
51,-187,-240,58,148,-210,22,-47,-108,-109,-127,-290
51,-181,-234,58,148,-204,22,-47,-108,-103,-121,-290
57,-175,-234,52,148,-198,22,-47,-96,-97,-115,-284
57,-175,-234,52,148,-198,22,-47,-90,-97,-115,-278
63,-169,-234,46,154,-198,22,-47,-78,-91,-109,-272
63,-169,-234,46,154,-198,22,-47,-72,-91,-109,-266
69,-163,-234,40,154,-192,22,-41,-66,-85,-103,-260
69,-157,-228,34,154,-186,22,-41,-60,-79,-97,-260
75,-151,-228,28,154,-186,22,-35,-54,-73,-91,-254
75,-145,-222,28,154,-186,22,-35,-48,-67,-85,-254
81,-139,-222,22,154,-180,16,-29,-36,-55,-79,-242
81,-133,-216,16,154,-174,16,-29,-30,-49,-73,-236
87,-127,-216,10,154,-174,10,-23,-18,-37,-67,-224
87,-121,-210,10,154,-168,10,-23,-12,-31,-61,-218
93,-109,-204,-2,154,-156,10,-17,0,-19,-49,-206
93,-103,-198,-2,148,-150,10,-17,12,-13,-43,-200
99,-91,-192,-14,148,-144,10,-11,24,-1,-31,-188
99,-85,-186,-14,148,-138,10,-11,36,5,-25,-182
105,-73,-186,-26,148,-126,4,-11,41,17,-13,-176
111,-61,-180,-26,148,-120,-2,-11,41,22,-7,-170
117,-49,-174,-26,148,-108,-8,-11,53,22,4,-164
123,-37,-168,-37,148,-102,-14,-11,59,28,4,-158
135,-31,-174,-43,154,-102,-8,-6,77,46,16,-140
141,-25,-174,-49,160,-96,-8,-6,95,58,28,-128
153,-19,-180,-61,166,-96,-2,-6,113,76,46,-110
159,-13,-180,-67,172,-96,-2,0,131,88,58,-92
171,5,-174,-79,172,-84,-8,6,149,106,76,-80
177,23,-162,-91,172,-66,-8,6,167,124,88,-68
189,41,-156,-109,172,-54,-14,12,185,142,106,-56
195,52,-144,-121,172,-42,-14,12,203,160,118,-44
201,64,-132,-133,172,-24,-14,24,227,184,136,-26
207,82,-120,-145,166,-12,-14,30,245,202,154,-8
213,100,-108,-157,166,6,-14,42,269,226,172,10
219,118,-96,-169,160,18,-14,48,281,244,190,28
231,142,-84,-187,160,36,-20,54,311,268,214,52
237,166,-72,-205,160,53,-20,60,341,298,232,70
249,190,-60,-223,160,59,-20,66,371,328,250,94
261,214,-48,-241,160,77,-25,72,401,358,268,105
273,238,-36,-259,160,95,-31,84,431,382,292,117
285,262,-24,-271,160,113,-31,90,461,406,316,129
297,286,-12,-289,160,131,-37,102,491,430,340,147
309,304,0,-307,160,149,-37,108,521,454,364,159
315,322,12,-319,160,167,-43,114,539,478,382,177
315,340,30,-325,148,185,-43,120,563,502,394,195
321,358,42,-337,148,197,-49,126,587,520,412,213
321,376,53,-349,136,215,-49,132,611,544,424,231
327,388,53,-355,136,227,-49,138,629,562,442,243
327,400,65,-361,130,239,-49,144,647,580,454,255
333,412,71,-373,130,245,-49,150,665,598,472,267
333,424,83,-379,124,257,-49,156,683,616,484,279
333,436,95,-385,118,269,-49,162,695,622,490,285
333,448,107,-391,112,281,-49,162,701,628,490,285
333,460,119,-397,106,293,-49,168,713,634,490,291
333,472,131,-403,100,299,-49,168,719,640,490,291
327,478,143,-403,94,311,-43,174,725,640,490,291
327,478,143,-403,94,311,-43,174,731,640,490,291
321,484,155,-403,82,317,-37,180,737,640,490,291
321,484,155,-403,82,317,-37,180,743,640,490,291
309,466,149,-385,82,305,-20,192,725,628,484,279
297,448,143,-373,76,293,-20,198,713,616,472,267
285,430,137,-355,76,287,-2,210,695,604,460,255
273,412,131,-343,70,275,10,216,683,592,448,243
255,388,125,-319,64,263,22,216,641,550,412,213
243,370,119,-307,64,251,34,216,605,514,382,189
231,346,113,-283,58,233,46,216,563,478,346,159
219,328,107,-271,52,221,58,216,527,442,316,135
201,292,89,-247,52,197,70,204,491,406,286,111
183,262,71,-223,52,167,82,198,449,370,262,100
165,226,53,-193,52,143,94,186,407,334,238,76
147,190,48,-169,52,113,106,180,365,298,214,52
129,160,36,-145,52,95,106,168,317,262,178,22
117,136,24,-127,52,77,106,162,281,226,142,-8
99,106,12,-103,46,53,106,150,233,184,106,-38
87,82,0,-85,46,48,106,144,191,148,70,-68
75,58,-12,-67,46,30,100,120,149,112,40,-92
69,52,-24,-55,46,18,100,102,113,76,16,-110
57,29,-36,-37,46,0,94,78,71,40,-1,-134
51,11,-48,-26,52,-18,94,60,41,17,-25,-146
39,-13,-60,-20,52,-36,88,42,24,-7,-43,-158
33,-31,-72,-8,52,-48,82,30,0,-25,-61,-170
21,-55,-84,10,52,-66,76,12,-24,-49,-79,-182
15,-73,-96,22,58,-84,70,0,-48,-67,-97,-194
9,-85,-102,28,58,-90,58,-6,-72,-85,-115,-206
3,-91,-102,34,52,-96,52,-11,-90,-103,-127,-218
-3,-103,-108,46,52,-102,40,-23,-114,-121,-145,-230
-3,-109,-108,52,52,-108,34,-35,-132,-139,-157,-242
-3,-121,-114,58,52,-120,28,-53,-138,-151,-163,-242
-3,-133,-126,64,58,-132,22,-65,-144,-157,-169,-242
-8,-145,-132,76,58,-138,16,-83,-150,-169,-175,-242
-8,-157,-144,82,64,-150,10,-95,-156,-175,-181,-242
-14,-163,-144,88,58,-156,4,-101,-168,-181,-193,-248
-14,-169,-150,88,64,-162,4,-101,-174,-187,-199,-254
-20,-175,-150,94,58,-162,-2,-107,-186,-193,-211,-260
-20,-181,-156,100,64,-168,-2,-107,-192,-199,-217,-266
-20,-187,-162,100,64,-174,-8,-113,-198,-205,-217,-272
-20,-187,-162,100,64,-174,-14,-119,-198,-205,-217,-272
-20,-187,-168,106,70,-180,-20,-125,-204,-211,-217,-278
-20,-187,-168,106,70,-180,-20,-131,-210,-211,-217,-278
-20,-193,-174,106,70,-186,-20,-137,-210,-217,-223,-278
-20,-193,-174,106,70,-186,-20,-137,-210,-217,-223,-278
-20,-199,-180,112,76,-186,-20,-143,-210,-217,-229,-278
-20,-199,-180,112,76,-186,-20,-143,-210,-217,-229,-278
-26,-199,-174,112,70,-186,-20,-143,-210,-217,-229,-278
-26,-199,-174,112,70,-186,-20,-143,-210,-217,-229,-278
-32,-199,-168,118,64,-186,-25,-143,-210,-217,-229,-278
-32,-199,-168,118,64,-186,-25,-143,-210,-217,-229,-278
-32,-199,-168,118,64,-186,-25,-143,-216,-223,-229,-278
-32,-199,-168,118,64,-186,-25,-143,-216,-223,-229,-278
-32,-199,-168,118,64,-186,-25,-143,-222,-229,-229,-278
-32,-199,-168,118,64,-186,-25,-143,-222,-229,-229,-278
-32,-205,-174,118,64,-186,-25,-143,-222,-235,-235,-272
-32,-205,-174,118,64,-186,-25,-143,-222,-235,-235,-272
-32,-211,-180,124,70,-192,-25,-143,-222,-241,-235,-266
-32,-211,-180,124,70,-192,-25,-143,-222,-241,-235,-266
-38,-211,-174,124,64,-192,-20,-143,-222,-241,-235,-266
-38,-211,-174,124,64,-192,-20,-143,-222,-241,-235,-266
-44,-211,-168,130,58,-186,-20,-143,-222,-241,-235,-266
-44,-211,-168,130,58,-186,-20,-143,-222,-241,-235,-266
-38,-211,-174,124,64,-192,-20,-137,-222,-241,-235,-266
-38,-211,-174,124,64,-192,-20,-137,-222,-241,-235,-266
-32,-211,-180,124,70,-192,-20,-131,-222,-241,-235,-266
-32,-211,-180,124,70,-192,-20,-131,-222,-241,-235,-266
-38,-211,-174,124,64,-192,-20,-131,-216,-241,-235,-260
-38,-211,-174,124,64,-192,-20,-131,-216,-241,-235,-260
-44,-211,-168,130,58,-186,-14,-131,-210,-241,-235,-254
-44,-211,-168,130,58,-186,-14,-131,-210,-241,-235,-254
-44,-211,-168,130,58,-186,-20,-125,-216,-241,-235,-248
-44,-211,-168,130,58,-186,-20,-119,-216,-241,-235,-248
-44,-211,-168,130,58,-186,-20,-113,-222,-241,-235,-242
-44,-211,-168,130,58,-186,-20,-107,-222,-241,-235,-242
-44,-211,-168,130,58,-186,-20,-101,-216,-235,-235,-242
-44,-211,-168,130,58,-186,-20,-95,-216,-235,-235,-242
-44,-211,-168,130,58,-186,-20,-89,-210,-229,-229,-242
-44,-211,-168,130,58,-186,-20,-83,-210,-229,-229,-242
-38,-205,-168,124,58,-186,-20,-77,-204,-223,-223,-236
-38,-205,-168,124,58,-186,-20,-77,-204,-223,-223,-236
-32,-199,-168,118,64,-186,-14,-71,-198,-217,-217,-230
-32,-199,-168,118,64,-186,-14,-71,-198,-217,-217,-230
-32,-193,-162,112,58,-180,-8,-65,-198,-217,-211,-224
-32,-193,-162,112,58,-180,-8,-65,-198,-217,-211,-224
-32,-187,-156,112,58,-174,-2,-59,-192,-217,-205,-218
-32,-187,-156,112,58,-174,-2,-59,-192,-217,-205,-218
-26,-187,-156,106,58,-174,-2,-53,-192,-217,-211,-218
-26,-187,-156,106,58,-174,-2,-53,-192,-217,-211,-218
-20,-181,-156,100,64,-168,-2,-47,-192,-211,-217,-218
-20,-181,-156,100,64,-168,-2,-47,-192,-211,-217,-218
-20,-181,-156,100,64,-168,-2,-47,-192,-211,-211,-212
-20,-181,-156,100,64,-168,-2,-47,-192,-211,-211,-212
-20,-181,-156,100,64,-168,-2,-47,-192,-211,-205,-206
-20,-181,-156,100,64,-168,-2,-47,-192,-211,-205,-206
-14,-181,-162,94,70,-174,-2,-41,-192,-211,-205,-206
-14,-181,-162,94,70,-174,-2,-41,-192,-211,-205,-206
-8,-181,-168,94,76,-174,-2,-35,-192,-211,-205,-206
-8,-181,-168,94,76,-174,-2,-35,-192,-211,-205,-206
-8,-175,-162,88,70,-168,-8,-41,-192,-211,-205,-200
-8,-175,-162,88,70,-168,-8,-41,-192,-211,-205,-200
-8,-169,-156,88,70,-162,-14,-47,-192,-211,-205,-194
-8,-169,-156,88,70,-162,-14,-47,-192,-211,-205,-194
-14,-175,-156,94,64,-168,-14,-47,-198,-217,-205,-194
-14,-175,-156,94,64,-168,-14,-47,-198,-217,-205,-194
-20,-181,-156,100,64,-168,-14,-47,-198,-217,-205,-194
-20,-181,-156,100,64,-168,-14,-47,-198,-217,-205,-194
-20,-187,-162,100,64,-174,-14,-53,-198,-217,-211,-200
-20,-187,-162,100,64,-174,-14,-53,-198,-217,-211,-200
-20,-187,-168,106,70,-180,-14,-59,-198,-217,-217,-206
-20,-187,-168,106,70,-180,-14,-59,-198,-217,-217,-206
-20,-193,-174,106,70,-186,-14,-65,-204,-217,-217,-200
-20,-193,-174,106,70,-186,-14,-65,-204,-217,-217,-200
-20,-199,-180,112,76,-186,-14,-71,-210,-217,-217,-194
-20,-199,-180,112,76,-186,-14,-71,-210,-217,-217,-194
-26,-205,-180,118,70,-192,-20,-77,-216,-223,-217,-194
-26,-205,-180,118,70,-192,-20,-77,-216,-223,-217,-194
-32,-211,-180,124,70,-192,-20,-83,-222,-229,-217,-194
-32,-211,-180,124,70,-192,-20,-83,-222,-229,-217,-194
-32,-211,-180,124,70,-192,-20,-89,-228,-235,-223,-194
-32,-211,-180,124,70,-192,-20,-89,-228,-235,-223,-194
-32,-211,-180,124,70,-192,-20,-95,-234,-241,-229,-194
-32,-211,-180,124,70,-192,-20,-95,-234,-241,-229,-194
-32,-217,-186,124,70,-198,-20,-101,-240,-241,-229,-200
-32,-217,-186,124,70,-198,-20,-101,-240,-241,-229,-200
-32,-223,-186,130,76,-204,-25,-107,-246,-241,-229,-206
-32,-223,-186,130,76,-204,-25,-107,-246,-241,-229,-206
-32,-229,-192,130,76,-210,-25,-107,-252,-247,-235,-200
-32,-229,-192,130,76,-210,-25,-107,-252,-247,-235,-200
-32,-235,-198,136,82,-216,-25,-107,-258,-253,-235,-194
-32,-235,-198,136,82,-216,-25,-107,-258,-253,-235,-194
-38,-235,-192,136,76,-216,-25,-113,-264,-253,-235,-194
-38,-235,-192,136,76,-216,-25,-113,-264,-253,-235,-194
-44,-235,-186,142,70,-210,-25,-119,-270,-253,-235,-194
-44,-235,-186,142,70,-210,-25,-119,-270,-253,-235,-194
-44,-241,-192,142,70,-216,-31,-119,-264,-253,-235,-194
-44,-241,-192,142,70,-216,-31,-119,-264,-253,-235,-194
-44,-247,-198,148,76,-222,-37,-119,-258,-253,-235,-194
-44,-247,-198,148,76,-222,-37,-119,-258,-253,-235,-194
-44,-253,-204,148,76,-228,-37,-125,-264,-259,-241,-194
-44,-253,-204,148,76,-228,-37,-125,-264,-259,-241,-194
-44,-259,-210,154,82,-234,-37,-131,-270,-265,-247,-194
-44,-259,-210,154,82,-234,-37,-131,-270,-265,-247,-194
-50,-259,-204,154,76,-234,-37,-137,-270,-265,-247,-200
-50,-259,-204,154,76,-234,-37,-137,-270,-265,-247,-200
-56,-259,-198,160,70,-228,-37,-143,-270,-265,-247,-206
-56,-259,-198,160,70,-228,-37,-143,-270,-265,-247,-206
-56,-265,-204,160,70,-234,-37,-143,-270,-265,-247,-206
-56,-265,-204,160,70,-234,-37,-143,-270,-265,-247,-206
-56,-271,-210,166,76,-240,-37,-143,-270,-265,-247,-206
-56,-271,-210,166,76,-240,-37,-143,-270,-265,-247,-206
-56,-271,-210,166,76,-240,-37,-149,-276,-271,-253,-206
-56,-271,-210,166,76,-240,-37,-149,-282,-271,-253,-206
-56,-271,-210,166,76,-240,-37,-155,-288,-277,-259,-206
-56,-271,-210,166,76,-240,-37,-155,-294,-277,-259,-206
-56,-271,-210,166,76,-240,-43,-155,-288,-277,-259,-206
-56,-271,-210,166,76,-240,-43,-155,-288,-277,-259,-206
-56,-271,-210,166,76,-240,-49,-155,-282,-277,-259,-206
-56,-271,-210,166,76,-240,-49,-155,-282,-277,-259,-206
-56,-271,-210,166,76,-240,-49,-155,-288,-283,-259,-200
-56,-271,-210,166,76,-240,-49,-155,-288,-283,-259,-200
-56,-271,-210,166,76,-240,-49,-155,-294,-289,-259,-194
-56,-271,-210,166,76,-240,-49,-155,-294,-289,-259,-194
-56,-277,-216,166,76,-246,-49,-161,-294,-289,-265,-200
-56,-277,-216,166,76,-246,-49,-161,-294,-289,-265,-200
-56,-283,-222,172,82,-252,-37,-167,-294,-289,-271,-200
-56,-271,-210,166,76,-240,-31,-161,-294,-289,-271,-200
-56,-271,-210,166,76,-240,-37,-149,-288,-283,-265,-200
-56,-265,-204,160,70,-234,-31,-149,-288,-277,-265,-194
-44,-259,-210,154,82,-234,-31,-143,-276,-265,-259,-188
-44,-241,-192,142,70,-216,-25,-131,-270,-259,-253,-176
-50,-223,-174,136,58,-198,-2,-119,-264,-259,-241,-170
-50,-211,-162,130,52,-186,10,-107,-252,-247,-235,-170
-44,-199,-156,124,52,-180,22,-107,-246,-247,-235,-170
-44,-187,-144,118,46,-168,28,-101,-246,-247,-229,-170
-44,-187,-144,118,46,-168,40,-95,-234,-235,-223,-164
-44,-181,-132,112,40,-156,46,-95,-228,-229,-223,-152
-44,-175,-126,106,34,-150,52,-89,-222,-223,-217,-140
-44,-169,-120,106,34,-144,52,-89,-216,-217,-217,-140
-50,-163,-108,106,22,-138,52,-89,-222,-223,-217,-140
-50,-157,-102,100,22,-132,52,-95,-228,-223,-217,-140
-56,-151,-90,100,10,-120,52,-107,-234,-229,-211,-134
-62,-145,-78,100,4,-114,52,-107,-234,-229,-211,-134
-56,-133,-72,94,4,-102,58,-107,-234,-229,-217,-134
-56,-127,-66,88,-2,-96,58,-107,-222,-217,-211,-134
-32,-97,-60,64,10,-78,64,-95,-204,-211,-205,-122
-26,-73,-42,46,4,-60,64,-95,-198,-205,-193,-104
-20,-61,-36,40,4,-48,28,-101,-192,-193,-187,-92
-14,-55,-36,34,4,-48,10,-101,-192,-193,-181,-92
-3,-37,-30,16,10,-36,-8,-101,-192,-193,-175,-92
-3,-49,-54,16,28,-48,-14,-101,-192,-193,-175,-92
-3,-61,-66,22,34,-60,-20,-113,-198,-193,-175,-92
-3,-67,-72,28,34,-66,-20,-113,-198,-199,-175,-92
3,-79,-90,28,46,-84,-31,-119,-198,-199,-169,-92
3,-85,-96,34,52,-90,-43,-125,-210,-199,-169,-92
3,-103,-114,40,58,-108,-43,-125,-216,-211,-181,-104
-3,-115,-120,52,58,-114,-37,-125,-222,-211,-187,-110
-3,-121,-126,52,64,-120,-37,-125,-222,-211,-187,-110
-3,-133,-138,58,70,-132,-37,-131,-222,-211,-187,-110
-3,-133,-132,64,64,-132,-43,-125,-228,-217,-187,-110
-3,-145,-144,70,70,-144,-43,-137,-234,-217,-187,-116
3,-157,-168,70,88,-162,-43,-131,-234,-217,-181,-110
3,-163,-174,70,88,-168,-49,-137,-234,-217,-181,-110
3,-175,-186,76,94,-180,-55,-143,-246,-223,-199,-122
3,-193,-204,88,106,-198,-61,-149,-252,-229,-205,-128
-3,-211,-216,100,112,-210,-73,-155,-270,-229,-217,-134
-3,-217,-216,106,106,-216,-79,-155,-276,-235,-217,-134
-3,-229,-234,112,118,-228,-85,-155,-276,-241,-223,-140
-8,-247,-234,130,112,-240,-79,-155,-282,-247,-229,-146
-20,-259,-234,142,106,-246,-79,-155,-288,-265,-235,-152
-38,-271,-228,154,94,-252,-67,-161,-294,-271,-241,-164
-62,-277,-210,172,70,-246,-61,-161,-294,-277,-253,-170
-68,-301,-228,184,76,-264,-61,-173,-306,-289,-265,-182
-86,-301,-210,196,58,-258,-55,-173,-312,-295,-271,-176
-86,-313,-222,202,64,-270,-55,-179,-318,-295,-271,-182
-86,-325,-234,208,70,-282,-61,-191,-336,-307,-283,-194
-86,-331,-240,208,76,-288,-67,-203,-348,-313,-289,-194
-86,-343,-252,214,82,-300,-67,-203,-354,-325,-295,-194
-92,-349,-252,214,76,-300,-67,-209,-354,-325,-295,-194
-86,-355,-264,214,88,-312,-79,-209,-360,-331,-295,-200
-86,-355,-264,214,88,-312,-85,-209,-360,-331,-295,-200
-80,-361,-276,214,94,-318,-85,-209,-366,-331,-295,-200
-80,-361,-276,214,94,-318,-91,-209,-360,-331,-295,-200
-92,-349,-252,214,76,-300,-79,-209,-354,-325,-283,-188
-92,-355,-258,220,82,-306,-73,-203,-348,-319,-277,-188
-92,-349,-252,214,76,-300,-67,-185,-336,-313,-289,-188
-98,-337,-234,214,64,-288,-55,-173,-330,-313,-277,-194
-104,-325,-216,214,52,-270,-37,-143,-312,-295,-283,-182
-134,-325,-186,226,22,-258,-20,-113,-294,-283,-277,-176
-146,-313,-168,226,4,-240,-8,-77,-258,-265,-259,-164
-152,-289,-138,214,-14,-210,22,-41,-222,-247,-253,-164
-170,-271,-102,214,-26,-186,46,-6,-180,-217,-235,-158
-188,-241,-54,214,-61,-150,76,6,-150,-199,-229,-152
-200,-211,-12,208,-85,-114,88,42,-126,-181,-217,-146
-224,-211,12,214,-109,-102,124,66,-108,-163,-205,-152
-242,-187,53,214,-139,-72,160,96,-84,-145,-205,-140
-248,-163,83,208,-169,-36,184,120,-72,-127,-199,-134
-260,-139,119,202,-193,-6,208,144,-54,-109,-187,-128
-272,-127,143,202,-211,12,238,180,-36,-97,-187,-128
-284,-115,167,202,-229,30,262,210,-24,-109,-187,-128
-284,-103,179,196,-235,42,310,264,-12,-109,-199,-140
-296,-115,179,208,-241,36,412,408,6,-109,-205,-152
-302,-139,161,214,-235,18,550,612,36,-109,-211,-176
-308,-139,167,220,-241,18,748,870,36,-127,-235,-230
-344,-139,203,238,-271,36,982,1158,36,-169,-301,-278
-374,-127,245,244,-307,53,1234,1446,24,-217,-355,-338
-386,-79,299,226,-343,107,1492,1728,53,-205,-367,-350
-398,-7,383,202,-391,185,1738,1992,149,-145,-325,-320
-416,94,515,154,-463,299,2002,2225,305,-25,-253,-260
-428,238,665,88,-541,449,2235,2458,521,106,-145,-182
-428,430,857,-8,-637,641,2426,2662,791,322,4,-62
-410,670,1079,-127,-745,875,2564,2794,1139,622,238,117
-398,952,1349,-271,-871,1151,2594,2884,1505,976,514,351
-332,1288,1625,-475,-979,1457,2379,2890,1919,1378,856,639
-218,1630,1847,-703,-1027,1739,1906,2788,2386,1852,1258,969
-98,1996,2093,-943,-1093,2039,1324,2566,2853,2367,1684,1317
15,2355,2332,-1189,-1153,2344,688,2177,3321,2846,2097,1659
117,2666,2541,-1393,-1207,2607,10,1548,3723,3254,2415,1947
129,2858,2727,-1489,-1291,2793,-541,732,3987,3494,2612,2109
135,2894,2751,-1513,-1303,2823,-901,132,4251,3686,2732,2168
189,2714,2517,-1453,-1159,2619,-1027,-29,4485,3896,2828,2156
183,2510,2326,-1345,-1063,2422,-1117,-299,4437,3908,2822,2109
111,2522,2410,-1315,-1141,2470,-1381,-905,4083,3704,2732,2073
45,2558,2505,-1303,-1225,2535,-1711,-1439,3717,3446,2612,2043
9,2373,2356,-1195,-1165,2368,-1867,-1709,3315,3146,2415,1899
-26,2014,2045,-991,-1033,2027,-1915,-1883,2721,2660,2091,1647
-74,1576,1655,-751,-859,1613,-1933,-1949,1907,1912,1594,1299
-164,1054,1223,-445,-691,1139,-1825,-1829,995,928,910,807
-236,538,773,-145,-499,653,-1603,-1613,203,46,244,333
-242,136,383,46,-307,263,-1363,-1361,-300,-379,-145,22
-218,-91,119,154,-169,18,-1189,-1187,-648,-535,-295,-122
-188,-163,30,172,-103,-66,-1123,-1109,-768,-565,-319,-134
-152,-175,-18,160,-61,-96,-1045,-983,-636,-481,-277,-116
-128,-253,-126,190,-8,-186,-901,-845,-510,-391,-247,-116
-116,-349,-228,226,52,-288,-745,-731,-504,-379,-247,-128
-104,-397,-288,244,88,-342,-613,-635,-486,-373,-253,-134
-68,-385,-312,220,118,-348,-487,-527,-450,-367,-265,-146
-32,-397,-360,214,160,-378,-337,-401,-420,-367,-289,-152
-20,-403,-378,214,178,-390,-205,-269,-396,-361,-289,-164
-20,-391,-366,208,172,-378,-139,-209,-366,-349,-289,-164
-20,-361,-336,190,154,-348,-121,-185,-354,-355,-295,-158
-26,-343,-312,184,142,-330,-121,-185,-348,-331,-283,-146
-44,-307,-258,178,106,-282,-97,-185,-330,-301,-265,-134
-50,-283,-228,166,88,-258,-85,-191,-312,-283,-241,-110
-50,-289,-234,172,88,-264,-61,-185,-300,-265,-235,-92
-50,-295,-240,172,94,-270,-37,-167,-288,-265,-229,-98
-38,-289,-246,166,100,-270,-20,-143,-282,-265,-229,-92
-38,-295,-252,166,106,-276,-14,-119,-288,-265,-229,-98
-38,-295,-252,166,106,-276,-8,-101,-294,-277,-235,-98
-32,-289,-252,160,106,-270,-14,-95,-294,-283,-235,-98
-26,-289,-258,160,112,-276,-20,-95,-300,-289,-241,-98
-26,-277,-246,154,106,-264,-20,-95,-300,-295,-247,-98
-26,-277,-246,154,106,-264,-20,-95,-300,-295,-253,-104
-14,-283,-264,148,124,-276,-20,-95,-300,-271,-247,-104
-14,-283,-264,148,124,-276,-20,-83,-294,-259,-235,-92
-8,-289,-276,148,130,-282,-2,-89,-300,-247,-235,-92
-3,-277,-270,142,130,-276,4,-83,-294,-241,-229,-86
-3,-271,-264,136,130,-270,10,-71,-288,-241,-223,-86
-3,-271,-264,136,130,-270,10,-65,-282,-241,-223,-80
-3,-259,-252,130,124,-258,10,-53,-282,-247,-223,-80
-3,-253,-252,124,124,-252,10,-53,-276,-247,-223,-80
-3,-253,-252,124,124,-252,10,-53,-282,-247,-223,-74
-3,-253,-258,124,130,-252,10,-53,-276,-235,-217,-74
3,-241,-252,112,130,-246,10,-47,-270,-235,-205,-74
3,-241,-252,112,130,-246,10,-47,-264,-223,-199,-74
3,-241,-252,112,130,-246,16,-41,-252,-217,-193,-68
9,-223,-240,100,130,-228,16,-41,-246,-211,-193,-62
9,-223,-240,100,130,-228,16,-29,-240,-199,-187,-50
9,-223,-240,100,130,-228,16,-29,-234,-193,-187,-44
15,-211,-234,94,130,-222,22,-29,-228,-193,-187,-50
15,-205,-228,88,124,-216,22,-29,-222,-187,-181,-50
9,-199,-216,88,118,-204,28,-29,-216,-187,-181,-44
9,-199,-216,88,118,-204,28,-23,-210,-187,-175,-44
27,-187,-222,76,130,-204,28,-23,-210,-175,-163,-38
27,-187,-222,76,130,-204,34,-23,-198,-169,-157,-32
33,-181,-216,64,130,-192,34,-17,-198,-163,-151,-26
39,-175,-216,58,130,-192,34,-17,-192,-151,-145,-20
39,-169,-210,58,130,-186,28,-11,-180,-145,-139,-14
39,-163,-204,52,124,-186,28,-11,-168,-139,-133,-8
39,-145,-186,46,118,-168,22,-6,-156,-133,-127,-2
45,-139,-186,40,118,-162,22,-6,-144,-121,-109,10
45,-133,-186,34,118,-156,22,-6,-144,-121,-115,16
51,-127,-186,28,118,-156,22,-6,-126,-115,-103,22
57,-103,-168,16,112,-132,22,-6,-132,-109,-103,22
63,-103,-174,10,118,-138,16,-6,-114,-103,-91,22
69,-97,-174,4,124,-132,22,0,-102,-85,-79,34
75,-79,-162,-8,118,-120,22,0,-96,-73,-73,40
81,-73,-162,-14,124,-114,28,18,-78,-55,-55,58
81,-73,-162,-14,124,-114,28,18,-66,-37,-43,70
87,-49,-144,-26,118,-96,22,24,-54,-31,-37,82
99,-31,-138,-26,118,-84,22,30,-42,-19,-19,100
105,-13,-126,-37,118,-66,22,36,-24,-7,-7,105
111,5,-114,-49,112,-54,22,36,-12,11,4,117
117,35,-90,-67,106,-24,16,36,6,22,10,135
129,41,-96,-79,112,-24,16,42,24,34,22,147
135,58,-72,-97,106,0,16,42,36,52,40,159
141,82,-54,-109,100,24,10,48,47,70,58,171
153,100,-48,-127,106,36,16,60,71,100,76,195
159,118,-36,-139,100,48,16,66,95,118,94,213
165,136,-24,-151,100,53,16,78,119,148,118,237
183,166,-12,-175,100,71,10,90,149,172,148,261
195,184,-6,-187,106,83,4,90,173,202,166,279
207,208,6,-205,106,101,4,96,209,220,190,297
213,250,42,-229,88,143,-14,102,239,244,202,309
225,286,53,-253,82,173,-14,108,269,262,226,327
225,292,65,-259,76,185,-8,120,287,298,244,345
237,322,83,-277,76,209,-14,126,317,328,256,357
237,340,95,-289,70,221,-14,132,341,346,286,375
237,358,113,-295,64,239,-14,144,371,376,310,393
249,388,131,-319,58,263,-20,150,389,394,316,405
261,418,149,-337,58,287,-20,156,407,418,334,417
273,436,155,-355,58,293,-25,162,425,424,346,423
273,460,179,-367,46,317,-31,168,449,442,364,429
279,484,197,-379,40,341,-37,162,455,460,382,447
285,496,203,-391,40,347,-37,162,479,478,388,453
285,502,209,-391,40,353,-49,162,491,484,406,471
285,526,233,-403,28,377,-49,156,503,496,418,477
285,538,251,-415,16,395,-49,162,515,508,418,483
285,550,263,-421,10,407,-49,162,527,514,418,489
285,568,281,-427,4,425,-55,162,527,526,418,483
285,574,287,-433,-2,431,-55,168,527,526,424,477
279,568,287,-427,-2,431,-55,174,539,526,430,483
273,574,293,-427,-14,437,-49,174,545,526,430,477
267,574,299,-421,-20,443,-43,174,545,520,430,483
261,574,305,-421,-26,443,-37,180,545,520,430,471
243,544,293,-397,-26,425,-20,192,539,514,418,459
237,532,293,-379,-26,413,-20,198,533,502,400,453
219,520,293,-367,-31,407,-8,216,515,478,376,435
207,490,281,-343,-26,383,4,216,479,454,346,399
195,460,263,-325,-26,359,10,216,443,418,310,363
189,442,251,-313,-26,347,22,216,407,376,280,339
171,400,227,-283,-26,311,34,204,359,340,244,303
153,364,209,-259,-26,293,46,198,317,304,220,285
141,334,191,-241,-26,269,58,192,287,262,190,261
123,298,173,-211,-26,239,70,186,251,232,160,243
105,268,155,-187,-26,215,76,162,215,196,130,207
93,232,131,-163,-20,185,88,150,173,154,88,177
81,202,113,-139,-20,161,82,138,137,118,58,147
63,178,107,-121,-26,143,82,126,89,76,22,105
45,148,95,-97,-26,125,82,114,41,46,-1,94
39,118,71,-79,-20,95,82,102,12,17,-25,64
33,94,53,-61,-14,77,76,84,-24,-13,-49,46
15,64,53,-37,-14,53,76,60,-72,-49,-79,28
15,52,36,-31,-8,48,58,36,-96,-73,-91,16
3,41,30,-26,-14,36,58,18,-126,-103,-115,-2
-3,11,18,-8,-14,12,64,6,-144,-115,-133,-8
-8,-1,12,4,-14,6,58,-6,-150,-139,-145,-20
-20,-25,0,22,-14,-12,58,-11,-168,-145,-163,-32
-26,-37,-6,28,-14,-24,52,-29,-186,-163,-187,-38
-32,-49,-12,40,-14,-30,46,-41,-210,-187,-199,-62
-38,-61,-18,46,-14,-42,34,-53,-234,-205,-211,-68
-44,-79,-30,58,-14,-54,28,-71,-258,-217,-217,-80
-50,-97,-42,70,-8,-72,22,-83,-276,-235,-223,-80
-44,-97,-48,70,-2,-72,16,-95,-288,-241,-235,-80
-50,-109,-54,76,-2,-84,10,-113,-288,-253,-235,-86
-44,-115,-66,76,4,-90,4,-125,-288,-253,-235,-80
-44,-121,-72,82,10,-96,-2,-137,-288,-253,-241,-86
-50,-133,-78,88,10,-108,-2,-137,-294,-259,-247,-92
-50,-139,-84,94,10,-114,-8,-143,-300,-265,-253,-98
-62,-151,-84,106,4,-120,-14,-137,-306,-271,-259,-110
-62,-151,-84,106,4,-120,-20,-143,-312,-283,-265,-110
-62,-157,-90,106,10,-126,-20,-149,-312,-283,-265,-110
-62,-163,-96,112,10,-132,-20,-155,-324,-289,-265,-110
-62,-163,-96,112,10,-132,-20,-161,-324,-283,-259,-110
-68,-163,-90,112,4,-126,-20,-167,-324,-283,-265,-110
-68,-163,-90,112,4,-126,-20,-173,-330,-289,-271,-116
-68,-169,-96,118,10,-132,-25,-173,-330,-295,-271,-116
-68,-175,-102,118,10,-138,-25,-173,-336,-301,-277,-116
-68,-175,-102,118,10,-138,-25,-173,-336,-307,-277,-116
-68,-175,-102,118,10,-138,-25,-167,-336,-307,-283,-122
-68,-175,-102,118,10,-138,-25,-167,-336,-307,-283,-122
-74,-175,-96,124,4,-138,-25,-161,-336,-301,-283,-128
-74,-175,-96,124,4,-138,-25,-161,-336,-301,-283,-128
-74,-175,-96,124,4,-138,-25,-161,-336,-301,-283,-122
-74,-175,-96,124,4,-138,-25,-161,-336,-301,-283,-122
-74,-175,-96,124,4,-138,-25,-161,-330,-301,-277,-116
-74,-175,-96,124,4,-138,-25,-161,-324,-301,-277,-116
-68,-181,-108,124,16,-144,-25,-161,-330,-301,-277,-110
-74,-181,-102,124,10,-144,-25,-161,-330,-307,-277,-116
-68,-187,-114,124,16,-150,-25,-161,-336,-307,-277,-110
-68,-181,-108,124,16,-144,-25,-161,-336,-307,-283,-110
-68,-187,-114,124,16,-150,-20,-161,-330,-307,-283,-110
-68,-187,-114,124,16,-150,-20,-161,-330,-307,-283,-110
-68,-187,-120,130,22,-156,-20,-161,-324,-307,-283,-110
-68,-193,-126,130,22,-162,-20,-161,-324,-307,-283,-110
-74,-187,-114,130,16,-156,-20,-155,-318,-307,-277,-104
-74,-187,-114,130,16,-156,-20,-149,-318,-307,-277,-104
-80,-187,-102,130,4,-144,-20,-143,-312,-307,-277,-98
-80,-187,-102,130,4,-144,-20,-143,-312,-307,-277,-98
-80,-187,-102,130,4,-144,-20,-137,-312,-301,-277,-104
-80,-181,-96,130,4,-138,-20,-137,-312,-301,-277,-98
-80,-181,-96,130,4,-138,-20,-137,-306,-295,-277,-104
-80,-181,-96,130,4,-138,-14,-131,-306,-295,-277,-104
-74,-175,-96,124,4,-138,-14,-137,-312,-301,-277,-104
-74,-175,-96,124,4,-138,-14,-131,-312,-295,-277,-104
-68,-169,-96,118,10,-132,-14,-137,-318,-301,-277,-104
-62,-163,-96,112,10,-132,-14,-125,-318,-307,-271,-104
-62,-169,-102,112,16,-138,-14,-119,-312,-301,-271,-104
-62,-169,-102,112,16,-138,-14,-113,-306,-301,-271,-104
-62,-175,-108,118,16,-144,-14,-107,-300,-289,-271,-104
-56,-169,-108,112,22,-138,-14,-95,-300,-289,-271,-98
-62,-163,-96,112,10,-132,-8,-95,-300,-289,-265,-98
-62,-163,-96,112,10,-132,-8,-95,-300,-289,-265,-98
-68,-151,-78,106,-2,-114,-2,-101,-300,-289,-265,-98
-68,-151,-78,106,-2,-114,-2,-95,-300,-283,-259,-98
-68,-151,-78,106,-2,-114,-2,-89,-300,-283,-259,-92
-68,-151,-78,106,-2,-114,-2,-83,-300,-283,-259,-92
-62,-151,-84,106,4,-120,-8,-77,-300,-283,-259,-86
-62,-151,-84,106,4,-120,-8,-77,-300,-283,-253,-86
-62,-151,-84,106,4,-120,-2,-83,-294,-283,-253,-86
-62,-145,-78,100,4,-114,-2,-77,-294,-283,-253,-80
-62,-145,-78,100,4,-114,4,-83,-294,-283,-253,-80
-62,-145,-78,100,4,-114,4,-77,-294,-277,-253,-80
-56,-145,-84,100,10,-114,4,-77,-294,-277,-247,-80
-56,-145,-84,100,10,-114,4,-77,-294,-277,-247,-80
-56,-145,-84,100,10,-114,4,-77,-294,-277,-247,-80
-56,-139,-78,94,4,-108,4,-77,-294,-277,-247,-80
-56,-145,-84,100,10,-114,4,-71,-288,-271,-241,-74
-56,-145,-84,100,10,-114,4,-71,-288,-271,-241,-68
-50,-151,-96,100,16,-126,4,-65,-282,-265,-235,-62
-50,-151,-96,100,16,-126,4,-65,-282,-265,-235,-56
-50,-151,-96,100,16,-126,4,-65,-288,-271,-241,-56
-50,-151,-96,100,16,-126,4,-65,-288,-271,-241,-56
-50,-151,-96,100,16,-126,4,-77,-294,-283,-247,-56
-50,-151,-96,100,16,-126,4,-77,-294,-283,-253,-56
-50,-151,-96,100,16,-126,4,-77,-300,-277,-253,-56
-50,-151,-96,100,16,-126,4,-77,-300,-277,-253,-56
-50,-145,-90,94,16,-120,-2,-77,-300,-271,-253,-56
-50,-145,-90,94,16,-120,-2,-83,-306,-271,-253,-56
-50,-151,-96,100,16,-126,-8,-89,-306,-271,-247,-56
-50,-151,-96,100,16,-126,-8,-89,-306,-277,-247,-56
-50,-157,-102,100,22,-132,-14,-95,-306,-277,-241,-56
-50,-157,-102,100,22,-132,-14,-95,-306,-277,-241,-56
-50,-151,-96,100,16,-126,-14,-101,-318,-283,-253,-68
-50,-151,-96,100,16,-126,-14,-101,-324,-283,-253,-68
-50,-151,-96,100,16,-126,-14,-95,-324,-289,-259,-74
-50,-151,-96,100,16,-126,-14,-101,-324,-289,-259,-74
-44,-151,-102,94,22,-126,-14,-101,-324,-289,-265,-80
-44,-163,-114,100,28,-138,-14,-101,-324,-289,-265,-80
-38,-163,-120,100,34,-144,-8,-107,-324,-289,-265,-80
-38,-157,-114,94,34,-138,-8,-107,-330,-289,-265,-80
-44,-157,-108,100,28,-132,-8,-107,-324,-289,-265,-80
-44,-157,-108,100,28,-132,-8,-107,-324,-295,-265,-80
-50,-157,-102,100,22,-132,-14,-113,-330,-295,-265,-80
-50,-157,-102,100,22,-132,-14,-113,-330,-295,-265,-80
-50,-163,-108,106,22,-138,-20,-119,-336,-301,-265,-80
-50,-163,-108,106,22,-138,-20,-125,-336,-301,-271,-80
-50,-163,-108,106,22,-138,-20,-131,-348,-301,-271,-86
-50,-163,-108,106,22,-138,-20,-137,-348,-301,-271,-86
-50,-163,-108,106,22,-138,-20,-137,-348,-301,-271,-86
-50,-163,-108,106,22,-138,-20,-143,-348,-301,-271,-86
-50,-163,-108,106,22,-138,-20,-143,-348,-307,-271,-86
-50,-169,-114,106,28,-144,-20,-143,-354,-307,-271,-86
-50,-163,-108,106,22,-138,-20,-143,-360,-307,-271,-86
-50,-163,-108,106,22,-138,-25,-149,-360,-307,-271,-86
-50,-157,-102,100,22,-132,-25,-149,-360,-307,-271,-92
-50,-157,-102,100,22,-132,-25,-149,-360,-307,-271,-92
-50,-157,-102,100,22,-132,-25,-155,-360,-307,-277,-92
-50,-157,-102,100,22,-132,-25,-155,-360,-307,-277,-92
-50,-169,-114,106,28,-144,-20,-155,-360,-307,-283,-92
-50,-175,-120,112,28,-150,-20,-155,-360,-307,-283,-92
-50,-181,-126,112,34,-156,-20,-161,-366,-313,-283,-92
-50,-169,-114,106,28,-144,-20,-161,-366,-313,-283,-92
-50,-175,-120,112,28,-150,-25,-167,-366,-319,-277,-92
-50,-169,-114,106,28,-144,-25,-167,-366,-319,-271,-92
-50,-175,-120,112,28,-150,-25,-167,-366,-319,-277,-98
-50,-175,-120,112,28,-150,-25,-167,-366,-319,-277,-98
-50,-181,-126,112,34,-156,-31,-173,-366,-319,-283,-104
-50,-181,-126,112,34,-156,-31,-173,-366,-319,-283,-104
-50,-181,-126,112,34,-156,-37,-173,-372,-319,-283,-104
-50,-175,-120,112,28,-150,-31,-173,-372,-319,-283,-104
-56,-175,-114,112,22,-144,-31,-173,-378,-319,-283,-104
-56,-169,-108,112,22,-138,-25,-173,-384,-319,-283,-104
-62,-175,-108,118,16,-144,-25,-173,-384,-319,-289,-104
-56,-175,-114,112,22,-144,-20,-173,-384,-319,-289,-104
-62,-181,-114,118,22,-150,-25,-173,-384,-319,-295,-104
-62,-169,-102,112,16,-138,-25,-173,-378,-319,-289,-104
-62,-175,-108,118,16,-144,-25,-173,-378,-325,-289,-104
-62,-181,-114,118,22,-150,-25,-179,-378,-319,-289,-104
-62,-187,-120,124,22,-156,-25,-179,-372,-325,-289,-110
-62,-187,-126,124,28,-162,-31,-179,-372,-325,-289,-110
-62,-187,-120,124,22,-156,-37,-185,-372,-331,-295,-110
-62,-181,-114,118,22,-150,-37,-185,-378,-331,-295,-110
-56,-181,-120,118,28,-150,-43,-191,-384,-337,-295,-110
-56,-175,-114,112,22,-144,-43,-185,-390,-331,-295,-104
-56,-181,-120,118,28,-150,-43,-185,-384,-331,-295,-110
-44,-175,-126,106,34,-150,-37,-179,-390,-331,-295,-110
-44,-181,-132,112,40,-156,-43,-173,-384,-331,-301,-116
-44,-181,-132,112,40,-156,-49,-173,-372,-331,-301,-116
-50,-187,-132,118,34,-162,-49,-179,-378,-337,-301,-116
-50,-187,-132,118,34,-162,-43,-185,-378,-337,-301,-116
-50,-187,-132,118,34,-162,-43,-191,-384,-337,-295,-110
-50,-187,-132,118,34,-162,-49,-197,-384,-337,-295,-110
-50,-175,-120,112,28,-150,-49,-197,-396,-337,-307,-122
-44,-181,-132,112,40,-156,-49,-191,-390,-337,-295,-128
-44,-181,-132,112,40,-156,-49,-191,-396,-337,-301,-122
-44,-181,-132,112,40,-156,-49,-191,-396,-337,-301,-122
-44,-181,-132,112,40,-156,-49,-191,-402,-337,-307,-116
-44,-181,-132,112,40,-156,-49,-191,-402,-337,-307,-116
-44,-181,-132,112,40,-156,-49,-191,-396,-337,-307,-116
-44,-181,-132,112,40,-156,-49,-191,-396,-337,-307,-116
-44,-181,-132,112,40,-156,-49,-191,-390,-337,-307,-116
-44,-181,-132,112,40,-156,-37,-191,-390,-337,-307,-110
-44,-169,-120,106,34,-144,-37,-191,-396,-337,-307,-116
-44,-169,-120,106,34,-144,-37,-185,-390,-337,-301,-116
-44,-163,-114,100,28,-138,-37,-191,-396,-331,-301,-116
-32,-157,-120,94,40,-138,-31,-191,-384,-325,-295,-110
-32,-145,-108,88,34,-126,-31,-179,-378,-325,-295,-104
-38,-127,-84,82,16,-108,-14,-161,-366,-319,-283,-98
-38,-121,-78,76,16,-102,-8,-149,-354,-313,-283,-104
-32,-109,-72,70,16,-90,-2,-143,-342,-307,-277,-104
-32,-91,-54,58,4,-72,10,-137,-342,-301,-265,-98
-32,-91,-54,58,4,-72,22,-137,-336,-295,-259,-98
-32,-73,-36,52,-2,-54,34,-137,-336,-289,-253,-80
-32,-67,-30,46,-8,-48,40,-137,-336,-289,-247,-74
-32,-67,-30,46,-8,-48,40,-131,-336,-283,-247,-74
-32,-61,-24,46,-8,-42,40,-131,-336,-283,-247,-80
-32,-61,-24,46,-8,-42,40,-131,-342,-277,-247,-80
-32,-55,-18,40,-14,-36,40,-143,-342,-277,-241,-80
-38,-55,-12,46,-20,-36,46,-143,-342,-283,-247,-80
-38,-49,-6,40,-20,-30,46,-143,-342,-283,-247,-80
-38,-49,-6,40,-20,-30,52,-143,-330,-277,-247,-74
-20,-25,0,22,-14,-12,52,-131,-312,-265,-235,-62
-14,5,24,4,-26,12,64,-125,-294,-253,-223,-44
-8,17,30,-8,-26,24,40,-125,-288,-241,-217,-32
-3,29,36,-14,-26,30,34,-119,-282,-235,-205,-32
-3,47,42,-26,-20,48,28,-113,-282,-235,-199,-32
9,35,18,-26,-2,30,10,-119,-282,-229,-199,-32
9,29,12,-26,-2,24,4,-125,-282,-229,-205,-32
9,23,6,-26,4,18,-20,-131,-282,-229,-205,-32
15,17,-6,-26,10,6,-20,-131,-282,-229,-205,-32
21,5,-24,-20,22,-6,-25,-137,-294,-229,-199,-26
21,-13,-42,-14,34,-24,-25,-137,-300,-241,-211,-32
21,-31,-60,-2,40,-42,-20,-137,-306,-241,-211,-32
21,-37,-66,-2,46,-48,-20,-137,-306,-241,-211,-26
15,-49,-72,10,46,-60,-20,-143,-306,-241,-211,-32
15,-55,-78,10,46,-66,-25,-143,-318,-253,-217,-44
9,-67,-84,22,46,-72,-25,-155,-324,-253,-217,-56
27,-85,-120,22,76,-102,-31,-155,-330,-253,-217,-62
27,-91,-126,22,76,-108,-37,-155,-324,-247,-211,-56
21,-103,-132,34,76,-114,-43,-161,-330,-259,-223,-62
21,-127,-156,46,88,-138,-49,-161,-330,-259,-223,-62
9,-145,-162,58,88,-150,-61,-167,-342,-265,-229,-62
9,-151,-168,64,88,-156,-67,-173,-348,-265,-223,-62
15,-163,-186,64,100,-174,-67,-173,-348,-265,-229,-74
3,-181,-186,82,100,-186,-61,-179,-354,-265,-229,-80
-3,-187,-186,94,94,-186,-55,-179,-360,-277,-235,-86
-14,-193,-180,106,76,-186,-43,-179,-360,-283,-241,-98
-32,-205,-174,118,64,-186,-43,-179,-366,-295,-259,-110
-38,-223,-186,130,70,-204,-43,-185,-372,-307,-271,-122
-50,-229,-180,142,58,-204,-43,-185,-384,-319,-283,-122
-56,-247,-186,154,64,-216,-37,-185,-390,-325,-289,-134
-62,-253,-186,160,58,-222,-49,-197,-402,-331,-295,-140
-68,-265,-192,166,58,-228,-49,-203,-414,-343,-307,-146
-74,-271,-192,172,58,-234,-55,-203,-414,-349,-307,-146
-74,-283,-204,178,64,-246,-61,-215,-420,-349,-313,-146
-74,-283,-204,178,64,-246,-73,-215,-420,-355,-313,-152
-68,-289,-216,178,70,-252,-79,-221,-426,-355,-319,-152
-68,-289,-216,178,70,-252,-79,-221,-426,-355,-319,-152
-68,-313,-240,190,82,-276,-67,-209,-408,-343,-307,-140
-56,-313,-252,184,94,-282,-67,-197,-402,-337,-295,-140
-68,-307,-234,190,82,-270,-61,-191,-396,-343,-301,-140
-80,-301,-216,190,64,-258,-55,-185,-396,-337,-289,-140
-74,-289,-210,184,64,-252,-43,-161,-390,-325,-289,-134
-80,-277,-192,178,52,-234,-37,-143,-372,-319,-283,-134
-86,-265,-180,178,40,-222,-25,-137,-354,-307,-277,-140
-98,-241,-144,172,16,-192,-20,-113,-330,-289,-283,-140
-116,-229,-114,172,-8,-174,10,-77,-294,-259,-265,-140
-146,-223,-78,184,-26,-156,58,-29,-246,-229,-259,-134
-164,-205,-42,184,-55,-126,76,-6,-216,-211,-247,-134
-164,-187,-24,178,-61,-108,100,18,-198,-193,-235,-134
-188,-181,12,184,-91,-84,136,66,-168,-175,-217,-122
-218,-157,53,184,-133,-48,172,96,-132,-145,-205,-110
-230,-139,83,184,-157,-24,196,120,-120,-127,-187,-98
-230,-127,95,178,-163,-12,220,144,-102,-121,-187,-92
-242,-103,131,172,-187,18,238,168,-84,-109,-187,-92
-248,-79,167,166,-211,48,262,186,-84,-121,-187,-92
-248,-79,167,166,-211,48,310,240,-84,-121,-187,-110
-272,-79,191,178,-235,53,400,360,-66,-109,-205,-122
-278,-79,197,178,-241,53,538,552,-36,-109,-223,-152
-284,-91,191,190,-241,53,724,810,-12,-115,-247,-182
-320,-103,215,214,-265,53,940,1110,-12,-145,-289,-254
-338,-103,233,214,-283,59,1192,1410,-12,-193,-343,-302
-350,-67,281,208,-313,101,1444,1704,30,-205,-355,-326
-362,-7,347,184,-355,167,1684,1956,101,-157,-337,-308
-368,70,443,142,-403,257,1924,2183,251,-49,-265,-260
-380,202,581,82,-481,389,2169,2416,449,94,-169,-182
-380,394,779,-14,-571,581,2361,2590,701,298,-13,-62
-374,634,1013,-127,-691,821,2492,2722,1031,574,190,105
-362,916,1277,-271,-817,1097,2594,2824,1403,916,472,333
-320,1234,1553,-451,-937,1391,2480,2854,1799,1318,796,603
-230,1570,1799,-667,-1009,1685,2079,2764,2254,1780,1204,933
-110,1936,2045,-907,-1075,1991,1510,2566,2721,2283,1624,1281
15,2295,2272,-1159,-1123,2284,862,2195,3159,2762,2038,1611
117,2606,2487,-1363,-1177,2547,190,1620,3549,3176,2367,1911
153,2810,2655,-1483,-1243,2733,-379,864,3837,3434,2576,2085
171,2882,2709,-1525,-1261,2793,-781,204,4089,3644,2708,2180
213,2732,2517,-1477,-1147,2631,-961,-65,4335,3860,2816,2192
219,2522,2302,-1369,-1033,2416,-1021,-287,4347,3926,2834,2133
159,2522,2362,-1339,-1093,2446,-1237,-773,4047,3752,2768,2097
81,2582,2493,-1333,-1201,2541,-1579,-1307,3675,3506,2648,2061
33,2445,2404,-1243,-1177,2428,-1783,-1625,3267,3212,2468,1935
-3,2133,2140,-1057,-1069,2134,-1843,-1823,2685,2738,2163,1707
-50,1696,1751,-817,-895,1721,-1837,-1877,1895,2002,1690,1365
-128,1150,1277,-511,-703,1217,-1753,-1793,995,1018,1012,897
-212,628,839,-205,-517,737,-1579,-1613,191,106,322,399
-224,220,443,-8,-325,329,-1375,-1409,-324,-367,-97,70
-206,-55,143,130,-175,48,-1189,-1211,-660,-523,-271,-86
-176,-151,30,160,-97,-60,-1087,-1109,-816,-565,-319,-128
-140,-139,6,136,-67,-66,-1057,-1007,-702,-481,-289,-104
-116,-187,-66,148,-26,-126,-949,-869,-558,-379,-247,-92
-104,-289,-186,196,34,-234,-775,-737,-528,-355,-247,-116
-80,-349,-264,214,88,-306,-637,-647,-522,-373,-253,-134
-44,-361,-312,202,130,-336,-529,-551,-510,-367,-265,-158
-20,-397,-372,208,172,-384,-409,-449,-486,-367,-277,-164
-8,-415,-402,214,196,-408,-271,-317,-462,-361,-277,-176
-3,-403,-402,202,202,-402,-163,-233,-426,-349,-277,-176
-3,-385,-384,190,190,-384,-121,-197,-414,-343,-283,-170
-14,-343,-324,178,154,-336,-121,-209,-408,-331,-283,-170
-32,-259,-222,148,94,-240,-121,-221,-390,-325,-277,-176
-38,-187,-150,112,52,-174,-97,-215,-360,-307,-265,-152
-38,-187,-144,112,46,-168,-73,-197,-348,-277,-241,-134
-32,-187,-156,112,58,-174,-55,-185,-336,-277,-235,-134
-20,-187,-162,100,64,-174,-37,-161,-336,-277,-235,-134
-14,-187,-174,100,76,-186,-25,-143,-342,-277,-235,-134
-14,-187,-174,100,76,-186,-20,-125,-354,-289,-241,-134
-14,-193,-180,106,76,-186,-20,-119,-354,-283,-241,-128
-8,-193,-186,100,82,-186,-25,-119,-360,-289,-241,-128
-14,-193,-180,106,76,-186,-25,-119,-360,-283,-241,-122
-14,-193,-180,106,76,-186,-25,-119,-360,-283,-241,-128
-8,-187,-180,100,82,-186,-25,-113,-354,-271,-247,-134
-8,-187,-180,100,82,-186,-25,-101,-348,-259,-235,-122
-8,-187,-174,94,76,-180,-20,-101,-348,-259,-241,-128
-3,-175,-168,88,76,-174,-20,-95,-342,-253,-235,-122
-3,-175,-174,82,82,-174,-14,-83,-336,-247,-229,-122
-3,-175,-174,82,82,-174,-14,-77,-330,-247,-229,-116
-3,-169,-174,76,88,-168,-14,-65,-330,-247,-223,-116
3,-163,-174,70,88,-168,-14,-65,-324,-247,-223,-116
-3,-157,-162,70,82,-156,-14,-71,-324,-241,-223,-110
3,-157,-168,70,88,-162,-14,-71,-318,-229,-217,-110
3,-139,-150,58,76,-144,-14,-71,-306,-223,-205,-110
3,-139,-150,58,76,-144,-14,-71,-300,-217,-199,-110
3,-139,-150,58,76,-144,-8,-65,-294,-211,-199,-110
9,-121,-138,46,76,-126,-8,-65,-288,-205,-199,-104
9,-121,-138,46,76,-126,-8,-53,-288,-199,-199,-98
9,-121,-138,46,76,-126,-8,-53,-282,-193,-199,-92
21,-109,-138,34,82,-120,-8,-47,-276,-187,-193,-98
21,-103,-132,34,76,-114,-8,-47,-270,-181,-187,-98
21,-97,-126,28,76,-108,-8,-41,-264,-175,-181,-92
21,-97,-126,28,76,-108,-8,-35,-258,-175,-175,-92
33,-85,-126,16,82,-102,-8,-35,-252,-169,-169,-92
33,-85,-126,16,82,-102,-2,-35,-240,-163,-163,-86
33,-73,-114,10,76,-90,-2,-29,-234,-163,-163,-86
39,-67,-114,4,76,-90,-2,-29,-222,-151,-157,-80
45,-67,-120,4,82,-90,-2,-23,-216,-139,-145,-74
45,-61,-114,-2,82,-84,-2,-23,-204,-133,-139,-68
51,-49,-108,-8,82,-78,-2,-17,-198,-121,-127,-62
57,-43,-108,-14,82,-72,-2,-17,-192,-109,-109,-50
57,-37,-102,-20,82,-66,-2,-11,-186,-103,-109,-44
63,-31,-102,-26,82,-66,-2,-11,-168,-97,-97,-32
69,-7,-84,-26,76,-42,-2,-11,-168,-85,-91,-32
75,-7,-90,-26,82,-48,-8,-11,-150,-79,-79,-26
75,5,-78,-31,76,-36,-8,-6,-138,-67,-79,-20
81,23,-66,-43,76,-18,-8,-6,-132,-55,-73,-14
81,35,-54,-49,70,-6,-8,-6,-114,-43,-67,-2
81,35,-54,-49,70,-6,-8,-6,-102,-25,-55,10
93,52,-48,-67,70,6,-14,0,-90,-13,-37,16
105,52,-48,-79,82,12,-14,6,-78,-1,-19,34
117,64,-48,-91,88,18,-14,12,-60,17,4,40
123,76,-42,-97,88,24,-14,12,-48,22,4,58
129,100,-24,-115,82,48,-14,24,-24,40,22,70
141,106,-30,-121,88,48,-14,30,-6,58,34,82
147,130,-12,-139,82,53,-8,42,12,76,52,88
153,154,6,-151,76,77,-14,48,36,94,70,100
165,166,6,-163,82,83,-20,54,47,130,88,111
171,184,18,-175,82,95,-20,60,71,148,106,129
177,196,24,-187,82,107,-20,66,95,184,130,153
195,226,36,-211,82,125,-25,78,125,208,160,177
201,238,42,-217,82,137,-20,84,149,244,178,195
213,262,53,-235,82,155,-20,90,185,262,202,213
213,292,77,-253,64,191,-25,102,215,286,214,225
225,328,101,-271,58,221,-25,108,245,310,238,243
231,340,107,-283,58,227,-25,126,275,340,256,261
237,370,125,-301,58,251,-31,132,299,370,268,279
249,388,131,-319,58,263,-37,144,329,382,298,297
249,406,149,-325,52,281,-37,156,359,412,322,315
255,424,161,-337,46,293,-37,162,389,442,340,339
267,448,173,-355,46,311,-43,168,407,472,364,345
273,454,173,-361,52,311,-37,174,437,490,388,363
273,472,191,-373,40,329,-43,180,461,508,412,369
279,490,203,-385,40,347,-49,174,473,526,424,381
285,502,209,-391,40,353,-49,180,497,544,430,387
285,502,209,-391,40,353,-61,180,515,550,442,399
285,526,233,-403,28,377,-61,180,527,562,454,405
291,538,239,-415,28,389,-61,186,539,574,460,417
291,538,245,-415,22,395,-61,186,551,586,460,423
297,550,251,-427,22,401,-67,186,563,598,466,423
297,550,251,-427,22,401,-67,192,563,598,472,417
291,544,251,-421,22,401,-67,204,575,610,484,423
285,550,263,-421,10,407,-61,204,581,610,484,423
279,550,269,-415,4,413,-55,210,581,616,490,429
273,550,275,-415,-2,413,-49,216,581,616,490,423
261,532,263,-397,-2,395,-37,222,581,610,478,411
249,520,263,-385,-8,389,-25,228,575,592,460,405
237,514,269,-373,-14,389,-20,234,557,568,436,387
231,490,257,-355,-14,371,-20,234,527,544,406,351
219,460,239,-337,-14,347,-8,234,497,514,382,333
213,442,227,-325,-8,335,4,234,461,478,352,303
195,400,203,-295,-8,299,22,228,419,448,328,279
177,364,185,-265,-8,281,34,222,377,412,298,261
165,334,167,-253,-2,257,40,216,335,364,268,237
147,304,155,-229,-8,233,52,210,293,334,244,213
129,274,137,-199,-8,209,52,186,251,298,214,177
117,244,119,-181,-2,185,64,174,209,262,172,141
99,214,107,-157,-8,161,64,168,179,220,142,111
81,190,101,-133,-14,149,64,156,131,178,106,88
57,160,95,-109,-20,131,70,150,89,142,70,64
51,130,71,-91,-14,101,70,138,47,100,46,40
39,100,53,-67,-8,77,70,126,24,64,16,22
21,64,48,-43,-8,53,70,102,-24,28,-1,4
15,52,30,-26,-8,42,58,84,-48,11,-19,-8
3,29,18,-26,-8,24,58,66,-78,-19,-43,-26
-3,11,6,-14,-2,12,52,48,-102,-31,-61,-32
-3,-1,0,-2,-2,0,46,30,-114,-55,-73,-44
-3,-13,-12,4,4,-12,34,12,-138,-61,-91,-56
-3,-25,-18,10,4,-24,28,-6,-162,-79,-115,-62
-8,-37,-24,22,4,-30,28,-6,-192,-109,-133,-86
-14,-49,-30,28,4,-42,16,-17,-210,-127,-145,-92
-20,-67,-42,40,4,-54,16,-35,-234,-151,-157,-104
-26,-85,-54,52,10,-72,10,-47,-252,-169,-163,-104
-32,-91,-54,58,4,-72,10,-53,-264,-175,-175,-110
-38,-103,-60,70,4,-84,4,-71,-264,-187,-175,-116
-44,-115,-66,76,4,-90,4,-77,-264,-187,-181,-116
-44,-121,-72,82,10,-96,-2,-89,-264,-187,-187,-122
-44,-127,-78,82,10,-102,-8,-95,-276,-193,-193,-128
-44,-133,-84,88,16,-108,-14,-101,-282,-199,-199,-134
-50,-139,-84,94,10,-114,-20,-101,-294,-205,-205,-140
-50,-139,-84,94,10,-114,-20,-107,-300,-217,-211,-140
-50,-145,-90,94,16,-120,-25,-113,-306,-217,-217,-146
-50,-151,-96,100,16,-126,-25,-119,-318,-217,-217,-146
-50,-151,-96,100,16,-126,-31,-125,-324,-217,-217,-152
-56,-151,-90,100,10,-120,-31,-131,-324,-217,-223,-152
-56,-151,-90,100,10,-120,-31,-137,-324,-217,-223,-152
-56,-157,-96,106,16,-126,-37,-137,-324,-217,-223,-152
-56,-163,-102,106,16,-132,-37,-137,-324,-223,-223,-146
-56,-163,-102,106,16,-132,-37,-137,-324,-223,-223,-146
-56,-163,-102,106,16,-132,-43,-137,-324,-229,-229,-152
-56,-163,-102,106,16,-132,-43,-137,-324,-229,-229,-152
-62,-163,-96,112,10,-132,-49,-137,-324,-229,-229,-158
-62,-163,-96,112,10,-132,-49,-137,-324,-229,-229,-158
-56,-163,-102,106,16,-132,-43,-137,-324,-229,-229,-152
-56,-163,-102,106,16,-132,-43,-137,-324,-229,-229,-152
-50,-163,-108,106,22,-138,-37,-137,-318,-229,-223,-146
-50,-163,-108,106,22,-138,-37,-137,-312,-229,-223,-146
-50,-169,-114,106,28,-144,-37,-137,-312,-223,-229,-140
-56,-169,-108,112,22,-138,-37,-137,-312,-229,-229,-146
-56,-175,-114,112,22,-144,-37,-137,-312,-223,-235,-140
-56,-169,-108,112,22,-138,-37,-137,-312,-223,-235,-140
-56,-163,-102,106,16,-132,-31,-131,-312,-229,-235,-140
-56,-163,-102,106,16,-132,-31,-131,-312,-229,-235,-140
-56,-157,-96,106,16,-126,-25,-125,-312,-235,-235,-140
-56,-163,-102,106,16,-132,-25,-125,-312,-235,-235,-140
-62,-163,-96,112,10,-132,-25,-125,-312,-235,-229,-134
-62,-163,-96,112,10,-132,-25,-119,-312,-235,-229,-134
-68,-163,-90,112,4,-126,-31,-119,-312,-235,-223,-134
-68,-163,-90,112,4,-126,-31,-119,-312,-235,-223,-134
-68,-169,-96,118,10,-132,-25,-113,-312,-229,-223,-134
-68,-163,-90,112,4,-126,-25,-113,-312,-229,-223,-128
-68,-169,-96,118,10,-132,-20,-113,-306,-223,-223,-128
-68,-169,-96,118,10,-132,-20,-107,-306,-223,-223,-128
-62,-163,-96,112,10,-132,-20,-107,-300,-223,-223,-134
-62,-163,-96,112,10,-132,-20,-101,-300,-217,-223,-134
-56,-157,-96,106,16,-126,-25,-101,-294,-217,-223,-134
-50,-151,-96,100,16,-126,-25,-89,-294,-223,-217,-134
-50,-151,-96,100,16,-126,-25,-89,-300,-223,-217,-134
-50,-151,-96,100,16,-126,-25,-89,-294,-223,-217,-134
-50,-151,-96,100,16,-126,-25,-89,-300,-217,-217,-128
-44,-145,-96,94,22,-120,-25,-83,-300,-217,-217,-122
-50,-145,-90,94,16,-120,-20,-77,-288,-217,-211,-122
-50,-145,-90,94,16,-120,-20,-77,-288,-217,-211,-122
-56,-139,-78,94,4,-108,-20,-77,-276,-211,-211,-122
-56,-139,-78,94,4,-108,-14,-71,-276,-205,-205,-122
-56,-139,-78,94,4,-108,-8,-65,-276,-199,-205,-116
-56,-139,-78,94,4,-108,-8,-59,-276,-199,-205,-116
-50,-139,-84,94,10,-114,-8,-53,-276,-193,-205,-110
-50,-139,-84,94,10,-114,-8,-53,-276,-193,-199,-110
-50,-139,-84,94,10,-114,-14,-59,-270,-199,-193,-110
-50,-133,-78,88,10,-108,-14,-53,-270,-199,-193,-104
-50,-133,-78,88,10,-108,-20,-59,-270,-205,-187,-104
-50,-133,-78,88,10,-108,-20,-53,-270,-199,-187,-104
-44,-133,-84,88,16,-108,-20,-59,-276,-199,-187,-104
-44,-133,-84,88,16,-108,-20,-59,-276,-199,-187,-104
-44,-133,-84,88,16,-108,-20,-65,-282,-199,-193,-104
-44,-127,-78,82,10,-102,-20,-65,-282,-199,-193,-104
-44,-121,-72,82,10,-96,-20,-65,-282,-199,-193,-104
-44,-115,-66,76,4,-90,-20,-65,-282,-199,-193,-104
-38,-109,-66,70,10,-90,-20,-65,-282,-199,-193,-104
-38,-103,-60,70,4,-84,-20,-65,-282,-199,-193,-104
-38,-97,-54,64,4,-78,-20,-59,-282,-205,-193,-110
-38,-97,-54,64,4,-78,-20,-59,-282,-205,-193,-116
-38,-91,-48,64,-2,-72,-20,-65,-282,-217,-193,-122
-38,-91,-48,64,-2,-72,-20,-65,-282,-217,-199,-128
-38,-97,-54,64,4,-78,-20,-65,-288,-211,-199,-128
-38,-97,-54,64,4,-78,-20,-65,-288,-211,-199,-128
-38,-97,-54,64,4,-78,-25,-65,-288,-205,-199,-128
-38,-97,-54,64,4,-78,-25,-71,-294,-205,-199,-128
-32,-103,-66,64,10,-84,-31,-71,-294,-205,-199,-122
-32,-103,-66,64,10,-84,-31,-71,-294,-211,-199,-122
-26,-109,-78,64,22,-96,-37,-71,-294,-211,-199,-116
-26,-109,-78,64,22,-96,-37,-71,-294,-211,-199,-116
-26,-103,-72,64,16,-90,-37,-83,-306,-217,-199,-116
-26,-103,-72,64,16,-90,-37,-83,-312,-217,-199,-116
-26,-103,-72,64,16,-90,-37,-83,-312,-217,-193,-110
-26,-103,-72,64,16,-90,-37,-89,-312,-217,-193,-110
-26,-103,-72,64,16,-90,-43,-83,-312,-217,-199,-116
-26,-115,-84,70,22,-102,-43,-83,-312,-217,-199,-116
-26,-115,-84,70,22,-102,-43,-83,-312,-211,-199,-116
-26,-109,-78,64,22,-96,-43,-83,-318,-211,-199,-116
-26,-115,-84,70,22,-102,-43,-83,-312,-211,-199,-116
-26,-115,-84,70,22,-102,-43,-83,-312,-217,-199,-116
-26,-121,-90,70,28,-108,-49,-89,-318,-217,-199,-116
-26,-121,-90,70,28,-108,-49,-89,-318,-217,-199,-116
-26,-127,-96,76,28,-114,-49,-89,-318,-217,-193,-122
-26,-127,-96,76,28,-114,-49,-95,-318,-217,-199,-122
-26,-127,-96,76,28,-114,-49,-95,-324,-217,-193,-134
-26,-127,-96,76,28,-114,-49,-101,-324,-217,-193,-134
-26,-121,-90,70,28,-108,-49,-101,-324,-217,-193,-134
-26,-121,-90,70,28,-108,-49,-107,-324,-217,-193,-134
-26,-115,-84,70,22,-102,-55,-107,-324,-223,-193,-134
-26,-121,-90,70,28,-108,-55,-107,-330,-223,-193,-134
-26,-127,-96,76,28,-114,-55,-113,-336,-217,-193,-134
-26,-127,-96,76,28,-114,-61,-119,-336,-217,-193,-134
-26,-133,-102,76,34,-120,-61,-125,-336,-217,-193,-134
-26,-133,-102,76,34,-120,-61,-125,-336,-217,-193,-134
-32,-133,-96,82,28,-114,-61,-125,-336,-217,-193,-134
-32,-133,-96,82,28,-114,-61,-125,-336,-217,-193,-134
-38,-145,-102,88,28,-126,-55,-119,-336,-217,-193,-128
-38,-151,-108,94,28,-132,-55,-119,-336,-217,-193,-128
-32,-151,-114,88,34,-132,-55,-125,-342,-217,-199,-134
-32,-139,-102,82,28,-120,-55,-125,-342,-217,-199,-134
-26,-139,-108,82,34,-126,-61,-131,-342,-223,-199,-134
-26,-133,-102,76,34,-120,-61,-131,-342,-223,-193,-134
-26,-139,-108,82,34,-126,-61,-131,-342,-223,-199,-134
-26,-145,-114,82,40,-132,-61,-131,-342,-223,-199,-134
-26,-151,-120,88,40,-138,-67,-137,-342,-223,-205,-134
-26,-157,-126,88,46,-144,-67,-137,-342,-223,-205,-134
-32,-157,-120,94,40,-138,-67,-137,-342,-223,-205,-134
-32,-151,-114,88,34,-132,-61,-137,-342,-223,-205,-134
-44,-151,-102,94,22,-126,-55,-137,-342,-223,-205,-134
-44,-145,-96,94,22,-120,-49,-137,-348,-223,-205,-134
-44,-151,-102,94,22,-126,-49,-137,-348,-223,-205,-140
-38,-151,-108,94,28,-132,-49,-137,-348,-223,-205,-140
-38,-157,-114,94,34,-138,-55,-137,-348,-223,-205,-146
-38,-145,-102,88,28,-126,-61,-137,-342,-223,-199,-146
-38,-169,-126,100,40,-150,-61,-137,-342,-223,-199,-152
-26,-169,-138,94,52,-156,-73,-143,-342,-229,-211,-146
-26,-157,-126,88,46,-144,-73,-143,-348,-217,-199,-146
-32,-157,-120,94,40,-138,-61,-143,-342,-217,-193,-134
-32,-163,-126,94,40,-144,-61,-143,-342,-217,-199,-134
-32,-163,-126,94,40,-144,-61,-143,-342,-217,-199,-134
-32,-169,-132,100,46,-150,-61,-143,-342,-217,-205,-134
-32,-169,-132,100,46,-150,-61,-143,-342,-217,-205,-134
-32,-169,-132,100,46,-150,-61,-149,-342,-217,-199,-140
-32,-169,-132,100,46,-150,-61,-149,-342,-217,-199,-140
-32,-169,-132,100,46,-150,-61,-155,-342,-217,-193,-146
-32,-169,-132,100,46,-150,-49,-155,-342,-217,-193,-140
-32,-157,-120,94,40,-138,-49,-143,-342,-217,-199,-146
-32,-157,-120,94,40,-138,-49,-137,-336,-217,-193,-146
-32,-151,-114,88,34,-132,-49,-131,-336,-217,-199,-146
-20,-145,-120,82,46,-132,-43,-131,-324,-211,-193,-140
-20,-133,-108,76,40,-120,-37,-125,-318,-205,-187,-134
-26,-115,-84,70,22,-102,-20,-107,-306,-199,-175,-128
-26,-109,-78,64,22,-96,-8,-101,-294,-187,-169,-128
-20,-97,-72,58,22,-84,-2,-95,-282,-181,-163,-128
-20,-79,-54,46,10,-66,4,-89,-282,-181,-151,-128
-20,-73,-48,46,10,-60,10,-89,-276,-175,-151,-128
-20,-55,-30,34,-2,-42,16,-89,-276,-175,-145,-116
-20,-43,-18,28,-8,-30,16,-89,-276,-175,-145,-110
-26,-43,-12,34,-14,-30,22,-89,-276,-175,-145,-104
-26,-37,-6,28,-14,-24,22,-89,-276,-175,-145,-110
-32,-37,0,34,-20,-18,28,-95,-282,-175,-145,-104
-32,-31,6,28,-26,-12,28,-107,-282,-175,-139,-104
-32,-31,6,28,-26,-12,22,-113,-282,-175,-139,-104
-32,-19,18,22,-26,0,22,-113,-282,-175,-139,-104
-26,-19,12,22,-26,-6,16,-119,-270,-163,-133,-98
-8,11,24,-2,-20,18,16,-107,-252,-151,-121,-86
-3,41,48,-20,-26,42,22,-101,-240,-139,-109,-74
-3,52,53,-26,-26,53,-2,-107,-240,-127,-103,-62
-3,52,53,-26,-26,53,-14,-101,-240,-121,-97,-68
9,70,53,-37,-26,65,-20,-101,-246,-121,-91,-68
21,64,48,-43,-8,53,-20,-101,-240,-121,-91,-62
21,64,48,-43,-8,53,-25,-107,-240,-121,-97,-62
21,64,48,-43,-8,53,-43,-107,-234,-127,-97,-56
27,64,42,-43,-2,53,-55,-107,-234,-127,-97,-56
27,58,36,-43,-2,53,-67,-113,-246,-121,-91,-56
27,52,18,-31,4,36,-67,-113,-252,-133,-103,-68
21,41,12,-26,4,30,-61,-113,-258,-127,-103,-74
21,35,6,-26,10,24,-61,-113,-258,-127,-103,-74
15,23,0,-26,10,12,-55,-113,-252,-121,-97,-74
15,17,-6,-26,10,6,-67,-113,-258,-133,-103,-80
9,5,-12,-14,10,0,-61,-119,-258,-127,-97,-86
27,-13,-48,-14,40,-30,-67,-119,-258,-127,-97,-86
33,-19,-60,-14,46,-36,-73,-125,-264,-133,-97,-86
27,-31,-66,-8,46,-48,-79,-131,-270,-145,-109,-98
33,-55,-96,4,64,-72,-85,-137,-282,-157,-115,-104
21,-73,-102,16,64,-84,-97,-143,-294,-163,-121,-110
21,-79,-108,22,64,-90,-109,-149,-300,-163,-121,-116
21,-91,-120,28,70,-102,-109,-149,-300,-163,-127,-128
9,-109,-126,40,70,-114,-109,-155,-306,-163,-133,-134
-3,-121,-120,58,58,-120,-103,-155,-312,-175,-139,-140
-8,-133,-120,70,52,-126,-85,-155,-312,-181,-151,-152
-26,-145,-114,82,40,-132,-85,-155,-318,-193,-169,-164
-26,-169,-138,94,52,-156,-79,-161,-324,-205,-181,-176
-38,-175,-132,106,40,-156,-79,-161,-336,-217,-193,-176
-44,-187,-144,118,46,-168,-73,-167,-342,-217,-193,-188
-44,-193,-150,118,46,-174,-85,-179,-354,-217,-199,-200
-50,-205,-156,130,46,-186,-85,-191,-366,-223,-205,-206
-50,-211,-162,130,52,-186,-91,-191,-366,-229,-205,-206
-56,-217,-162,136,46,-186,-97,-203,-372,-229,-205,-212
-56,-217,-162,136,46,-186,-109,-203,-372,-235,-205,-218
-56,-217,-162,136,46,-186,-115,-209,-378,-235,-205,-224
-56,-217,-162,136,46,-186,-115,-209,-378,-235,-205,-224
-56,-217,-162,136,46,-186,-115,-197,-372,-235,-205,-212
-44,-217,-174,130,58,-192,-103,-197,-378,-241,-205,-212
-56,-223,-168,142,52,-192,-85,-179,-372,-223,-199,-212
-56,-217,-162,136,46,-186,-79,-173,-348,-217,-187,-212
-62,-205,-144,136,34,-180,-67,-149,-342,-211,-187,-206
-68,-187,-114,124,16,-150,-61,-131,-312,-205,-193,-218
-86,-175,-84,130,-8,-132,-49,-113,-282,-181,-187,-212
-98,-163,-60,130,-26,-114,-31,-77,-246,-163,-181,-212
-104,-151,-42,124,-26,-96,-14,-41,-210,-145,-175,-212
-122,-133,-6,124,-49,-72,22,-6,-180,-115,-157,-218
-140,-115,30,124,-79,-42,52,6,-162,-103,-157,-212
-140,-97,48,118,-85,-24,76,42,-150,-85,-145,-218
-164,-73,83,118,-121,12,112,66,-120,-67,-133,-212
-182,-61,113,118,-145,30,136,96,-96,-37,-121,-200
-194,-31,155,112,-175,53,172,120,-72,-19,-103,-200
-206,-19,179,112,-193,71,196,156,-30,-1,-91,-194
-218,-7,203,112,-211,89,220,180,-12,11,-79,-182
-230,17,239,106,-235,119,226,210,0,11,-91,-194
-230,17,239,106,-235,119,286,276,12,11,-91,-188
-230,5,227,112,-229,107,376,432,41,22,-85,-200
-236,-7,221,118,-229,101,514,636,71,22,-103,-236
-242,-7,227,124,-235,101,694,894,107,22,-121,-290
-248,-31,215,142,-235,83,916,1194,107,-1,-175,-350
-278,-19,257,148,-265,113,1168,1488,119,-37,-235,-404
-302,29,323,136,-313,173,1414,1764,173,-49,-259,-440
-314,76,395,112,-349,239,1636,2016,269,11,-241,-422
-332,166,503,76,-415,329,1864,2225,425,94,-187,-380
-344,286,629,22,-487,455,2085,2428,623,238,-109,-314
-356,478,833,-55,-589,653,2277,2578,875,430,22,-200
-350,718,1067,-181,-709,893,2402,2644,1187,706,244,-38
-338,1000,1337,-325,-835,1169,2510,2692,1529,1018,514,177
-308,1324,1637,-505,-973,1481,2480,2674,1895,1390,832,441
-242,1666,1907,-709,-1069,1781,2151,2542,2314,1852,1222,747
-146,2014,2164,-931,-1153,2087,1618,2297,2757,2343,1636,1071
-44,2367,2416,-1159,-1231,2392,964,1920,3135,2774,1990,1377
33,2678,2637,-1357,-1291,2661,292,1362,3423,3116,2283,1641
81,2882,2793,-1483,-1351,2841,-283,756,3687,3368,2492,1839
135,2984,2847,-1561,-1351,2919,-679,216,3939,3596,2654,1947
177,2900,2721,-1537,-1261,2811,-829,-173,4113,3776,2780,1995
171,2678,2499,-1423,-1159,2589,-835,-455,4053,3824,2822,1971
123,2606,2481,-1363,-1171,2541,-1003,-797,3765,3662,2756,1923
81,2666,2577,-1375,-1243,2625,-1345,-1193,3381,3416,2636,1887
45,2570,2517,-1309,-1231,2547,-1633,-1505,2931,3098,2456,1773
-3,2295,2302,-1141,-1153,2296,-1747,-1727,2284,2600,2151,1545
-62,1858,1925,-895,-991,1889,-1729,-1829,1529,1888,1678,1215
-116,1300,1421,-589,-763,1361,-1615,-1709,779,964,1000,747
-188,784,971,-289,-571,875,-1483,-1541,107,118,334,273
-212,406,617,-91,-409,515,-1375,-1409,-372,-307,-49,-38
-194,124,317,28,-253,221,-1213,-1241,-702,-487,-217,-200
-176,-31,137,100,-157,53,-1063,-1073,-852,-553,-271,-254
-128,-43,77,82,-103,24,-1009,-953,-726,-469,-235,-230
-92,-67,30,76,-55,-18,-973,-845,-582,-343,-181,-206
-68,-151,-78,106,-2,-114,-835,-719,-552,-331,-181,-230
-44,-229,-186,136,64,-204,-685,-611,-534,-325,-199,-254
-20,-277,-252,148,112,-264,-565,-539,-510,-307,-199,-266
-8,-301,-288,154,136,-294,-481,-485,-486,-307,-211,-272
3,-295,-306,142,160,-300,-379,-389,-462,-313,-223,-284
15,-307,-330,142,178,-318,-259,-287,-426,-289,-223,-284
15,-301,-324,136,172,-312,-157,-221,-390,-271,-217,-290
9,-283,-300,130,160,-288,-133,-209,-372,-271,-217,-278
3,-247,-258,118,136,-252,-121,-209,-354,-253,-199,-272
-3,-211,-216,100,112,-210,-109,-203,-336,-217,-175,-248
-3,-193,-186,100,88,-192,-85,-197,-312,-199,-151,-230
-3,-187,-186,94,94,-186,-67,-179,-294,-193,-139,-230
3,-187,-192,82,100,-186,-49,-155,-288,-187,-139,-224
9,-181,-192,76,106,-186,-37,-131,-288,-181,-133,-224
9,-181,-192,76,106,-186,-31,-113,-294,-187,-139,-224
9,-181,-192,76,106,-186,-25,-107,-288,-181,-139,-218
15,-181,-198,76,112,-186,-31,-107,-294,-187,-139,-218
9,-175,-186,76,100,-180,-25,-107,-288,-181,-139,-212
9,-175,-186,76,100,-180,-25,-107,-288,-181,-139,-218
15,-175,-192,70,106,-186,-25,-107,-282,-169,-139,-218
15,-175,-192,70,106,-186,-25,-95,-276,-157,-127,-206
15,-175,-192,70,106,-186,-20,-101,-276,-157,-127,-206
21,-163,-186,64,106,-174,-20,-95,-270,-151,-121,-200
27,-157,-186,58,112,-174,-14,-83,-264,-139,-115,-206
27,-157,-186,58,112,-174,-14,-77,-258,-139,-115,-200
33,-145,-186,46,112,-162,-14,-65,-258,-133,-115,-206
39,-139,-186,40,112,-162,-14,-65,-252,-133,-115,-206
33,-139,-180,46,106,-156,-14,-65,-252,-133,-115,-194
39,-139,-186,40,112,-162,-14,-65,-246,-121,-109,-194
39,-127,-174,34,106,-150,-14,-59,-234,-121,-97,-188
39,-127,-174,34,106,-150,-14,-59,-228,-109,-91,-188
45,-133,-186,34,118,-156,-8,-59,-216,-103,-85,-188
51,-115,-174,22,112,-144,-8,-59,-210,-97,-85,-182
57,-121,-186,22,124,-150,-8,-53,-204,-91,-79,-176
57,-121,-186,22,124,-150,-8,-53,-198,-85,-79,-170
63,-109,-180,16,124,-144,-8,-47,-192,-85,-73,-176
63,-103,-174,10,118,-138,-8,-47,-186,-79,-67,-176
57,-97,-162,10,112,-126,-8,-41,-174,-79,-61,-170
57,-97,-162,10,112,-126,-8,-35,-168,-79,-55,-170
75,-85,-168,-2,124,-126,-14,-41,-168,-61,-49,-164
75,-79,-162,-8,118,-120,-8,-41,-156,-55,-43,-158
81,-67,-156,-14,118,-108,-14,-41,-156,-43,-43,-152
87,-55,-150,-26,118,-102,-14,-41,-144,-31,-37,-146
93,-61,-162,-26,130,-108,-14,-35,-138,-25,-31,-146
93,-55,-156,-26,124,-102,-14,-35,-126,-19,-25,-140
99,-49,-156,-26,130,-102,-14,-29,-120,-13,-19,-140
105,-43,-156,-26,130,-96,-14,-29,-108,-1,-1,-134
105,-37,-150,-26,130,-90,-20,-23,-102,-1,-1,-122
111,-31,-150,-31,130,-90,-20,-23,-84,5,4,-110
117,-7,-132,-49,124,-66,-20,-23,-84,11,4,-104
123,-7,-138,-49,130,-72,-20,-23,-66,17,16,-98
129,5,-132,-61,130,-60,-20,-23,-54,22,22,-92
135,23,-120,-73,130,-48,-20,-23,-48,34,28,-86
141,35,-114,-79,130,-36,-20,-17,-30,52,40,-74
141,35,-114,-79,130,-36,-20,-17,-18,70,52,-62
147,47,-108,-91,130,-30,-20,-11,0,76,64,-56
159,52,-108,-103,136,-24,-20,-6,12,88,82,-38
165,52,-108,-109,142,-18,-20,-6,36,100,100,-32
171,64,-102,-115,142,-12,-20,-6,41,118,112,-14
177,88,-84,-133,136,12,-25,-6,53,142,124,4
189,94,-90,-139,142,12,-25,0,71,160,136,16
195,118,-72,-157,136,30,-31,6,83,184,148,28
201,142,-54,-169,130,53,-37,12,107,202,166,40
213,160,-48,-187,136,53,-31,24,137,232,190,58
219,178,-36,-199,130,65,-31,30,161,250,208,76
225,196,-24,-211,130,83,-31,42,191,274,238,94
237,226,-12,-235,130,101,-37,54,221,298,262,105
249,232,-18,-241,142,101,-37,54,245,334,280,123
261,250,-12,-259,142,113,-37,60,281,352,304,141
267,280,12,-271,136,143,-49,66,305,382,316,153
279,304,30,-289,130,167,-49,72,335,406,340,171
279,322,48,-301,124,185,-49,84,365,442,358,189
291,352,53,-319,118,209,-55,90,395,472,370,207
297,376,71,-337,112,227,-61,96,425,490,394,225
297,394,89,-343,106,245,-61,108,455,514,418,243
309,412,95,-361,106,257,-61,120,479,532,436,261
321,436,107,-379,106,275,-61,126,497,556,454,273
333,442,101,-385,118,275,-55,138,521,562,478,285
333,460,119,-397,106,293,-55,144,539,580,490,291
339,484,137,-409,100,311,-55,144,551,604,502,303
345,496,143,-421,100,317,-55,150,575,622,508,309
345,502,149,-421,100,323,-61,156,593,634,520,321
345,526,173,-433,88,347,-61,156,605,646,532,327
345,538,185,-439,82,359,-55,162,629,658,538,339
345,538,191,-445,76,365,-55,162,641,670,538,345
345,550,203,-451,70,377,-55,162,659,682,544,345
345,550,203,-451,70,377,-55,168,659,682,550,339
339,544,203,-445,70,377,-49,180,665,682,550,345
333,550,215,-445,58,383,-43,180,671,682,550,339
327,550,221,-439,52,389,-31,186,665,676,544,345
321,550,227,-439,46,389,-25,192,665,676,544,333
309,532,215,-421,46,371,-20,198,665,670,538,321
297,520,215,-409,40,365,-8,204,659,652,520,315
285,514,221,-397,34,365,4,216,641,628,502,297
273,490,209,-379,34,347,16,216,605,604,478,261
255,460,197,-355,28,329,34,222,563,562,448,237
249,442,185,-343,34,311,46,222,527,520,418,207
231,400,167,-313,28,287,70,216,479,484,388,183
213,364,149,-283,28,263,82,210,437,448,358,165
201,340,137,-265,28,245,94,210,395,400,322,141
183,310,125,-247,28,221,106,204,353,370,292,123
165,286,113,-223,22,203,112,186,305,334,256,100
153,256,95,-205,28,179,124,174,269,292,220,70
141,232,83,-187,28,161,118,162,233,250,190,40
123,208,77,-163,22,143,118,150,185,208,154,-2
105,184,71,-145,16,131,118,138,137,166,118,-26
99,154,53,-127,22,101,118,126,95,124,94,-56
93,130,42,-109,28,83,118,114,47,88,64,-74
75,100,30,-85,28,59,118,90,12,52,34,-92
75,82,12,-79,34,53,106,72,-24,22,16,-104
63,64,6,-61,34,42,106,54,-54,5,4,-122
45,52,6,-43,22,36,100,36,-84,-19,-19,-134
39,47,0,-37,22,24,94,18,-96,-43,-37,-146
27,35,0,-26,16,18,82,0,-126,-61,-61,-164
21,23,-6,-26,16,12,76,-6,-150,-79,-91,-176
15,5,-18,-20,16,-6,70,-17,-180,-103,-109,-200
9,-7,-24,-8,16,-12,58,-29,-198,-121,-121,-206
3,-31,-42,4,22,-36,52,-47,-222,-139,-133,-218
-3,-49,-54,16,28,-48,46,-59,-240,-157,-139,-218
-3,-49,-54,16,28,-48,34,-71,-252,-163,-145,-218
-3,-61,-60,28,28,-60,28,-89,-252,-175,-145,-224
-3,-67,-66,28,28,-66,16,-101,-252,-175,-145,-218
-3,-73,-72,34,34,-72,10,-113,-252,-175,-151,-224
-3,-79,-78,34,34,-78,10,-119,-258,-187,-163,-224
-3,-85,-84,40,40,-84,4,-125,-264,-193,-169,-230
-3,-91,-84,46,34,-90,-2,-125,-270,-205,-181,-236
-3,-91,-84,46,34,-90,-8,-131,-276,-217,-187,-236
-3,-91,-84,46,34,-90,-14,-137,-288,-217,-199,-236
-3,-97,-90,46,40,-96,-14,-143,-300,-223,-199,-236
-3,-91,-84,46,34,-90,-20,-149,-312,-223,-205,-236
-8,-91,-78,46,28,-84,-20,-155,-312,-223,-211,-236
-8,-91,-78,46,28,-84,-20,-161,-306,-229,-211,-248
-8,-97,-84,52,34,-90,-20,-161,-306,-229,-211,-248
-8,-103,-90,52,34,-96,-25,-161,-300,-235,-211,-254
-8,-103,-90,52,34,-96,-25,-161,-300,-235,-211,-254
-8,-103,-90,52,34,-96,-25,-161,-306,-241,-217,-260
-8,-103,-90,52,34,-96,-25,-161,-306,-241,-217,-260
-14,-103,-84,58,28,-96,-25,-161,-312,-241,-217,-266
-14,-103,-84,58,28,-96,-25,-161,-312,-241,-217,-266
-14,-109,-90,58,34,-102,-25,-167,-312,-241,-217,-266
-14,-109,-90,58,34,-102,-25,-167,-312,-241,-217,-266
-14,-115,-96,64,34,-108,-25,-173,-306,-241,-211,-266
-14,-115,-96,64,34,-108,-25,-173,-300,-241,-211,-266
-14,-121,-102,64,40,-114,-20,-167,-306,-241,-211,-260
-20,-121,-96,70,34,-108,-20,-167,-306,-247,-211,-266
-20,-127,-102,70,34,-114,-20,-161,-312,-247,-211,-260
-20,-121,-96,70,34,-108,-20,-161,-312,-247,-217,-260
-20,-121,-96,70,34,-108,-20,-167,-312,-253,-223,-266
-20,-121,-96,70,34,-108,-20,-167,-312,-253,-223,-266
-20,-121,-96,70,34,-108,-20,-173,-312,-259,-229,-272
-20,-127,-102,70,34,-114,-20,-173,-312,-259,-229,-272
-20,-133,-108,76,40,-120,-20,-167,-312,-253,-223,-266
-20,-133,-108,76,40,-120,-20,-161,-312,-253,-223,-266
-20,-139,-114,76,40,-126,-20,-155,-312,-247,-223,-260
-20,-139,-114,76,40,-126,-20,-155,-312,-247,-223,-260
-20,-145,-120,82,46,-132,-20,-149,-306,-247,-217,-260
-20,-145,-120,82,46,-132,-20,-149,-306,-247,-217,-254
-20,-151,-126,82,46,-138,-14,-149,-294,-247,-211,-254
-20,-157,-132,88,52,-144,-2,-143,-294,-247,-211,-254
-20,-163,-138,88,52,-150,-8,-143,-294,-247,-211,-248
-20,-163,-138,88,52,-150,-8,-137,-294,-241,-211,-248
-20,-169,-144,94,58,-156,-14,-137,-294,-241,-211,-242
-14,-163,-144,88,58,-156,-14,-125,-294,-247,-205,-242
-14,-157,-138,82,58,-150,-14,-125,-294,-247,-205,-242
-14,-157,-138,82,58,-150,-14,-125,-288,-247,-205,-242
-14,-151,-132,82,52,-144,-14,-125,-288,-241,-205,-242
-8,-145,-132,76,58,-138,-14,-119,-288,-241,-205,-236
-8,-151,-138,76,58,-144,-8,-107,-276,-235,-199,-236
-8,-157,-144,82,64,-150,-8,-107,-276,-235,-199,-236
-8,-157,-144,82,64,-150,-2,-101,-264,-229,-199,-236
-8,-163,-150,82,64,-156,-2,-95,-264,-223,-193,-236
-8,-157,-144,82,64,-150,-2,-95,-270,-229,-193,-236
-8,-157,-144,82,64,-150,-2,-89,-270,-229,-193,-236
-3,-151,-144,76,64,-150,-8,-89,-276,-235,-193,-236
-3,-151,-144,76,64,-150,-8,-89,-276,-235,-187,-236
-3,-151,-150,70,70,-150,-2,-89,-264,-229,-187,-236
-3,-145,-144,70,70,-144,-2,-83,-264,-229,-187,-230
-3,-145,-150,64,76,-144,4,-83,-258,-223,-187,-230
-3,-145,-150,64,76,-144,4,-77,-258,-217,-187,-230
3,-145,-156,64,82,-150,-2,-77,-258,-223,-181,-230
3,-145,-156,64,82,-150,-2,-77,-258,-223,-181,-230
3,-145,-156,64,82,-150,-8,-77,-258,-229,-181,-230
3,-139,-150,58,76,-144,-8,-77,-258,-229,-181,-230
-3,-145,-150,64,76,-144,-2,-71,-258,-223,-187,-230
-3,-145,-150,64,76,-144,-2,-71,-258,-223,-187,-230
-3,-151,-156,70,76,-150,4,-65,-258,-217,-193,-230
-3,-151,-156,70,76,-150,4,-65,-258,-217,-193,-230
-3,-151,-156,70,76,-150,-2,-59,-258,-217,-193,-230
-3,-151,-156,70,76,-150,-2,-59,-258,-217,-193,-230
-3,-151,-156,70,76,-150,-8,-65,-258,-223,-193,-230
-3,-151,-156,70,76,-150,-8,-65,-258,-223,-199,-230
-3,-151,-156,70,76,-150,-8,-65,-264,-229,-193,-230
-3,-151,-156,70,76,-150,-8,-65,-264,-229,-193,-230
-3,-145,-150,64,76,-144,-14,-65,-264,-235,-187,-230
-3,-145,-150,64,76,-144,-14,-71,-270,-235,-187,-230
-3,-145,-150,64,76,-144,-14,-71,-276,-235,-193,-224
-3,-145,-150,64,76,-144,-14,-71,-276,-241,-193,-224
-3,-145,-150,64,76,-144,-14,-71,-282,-241,-199,-218
-3,-145,-150,64,76,-144,-14,-71,-282,-241,-199,-218
3,-145,-156,64,82,-150,-14,-83,-294,-247,-205,-224
3,-145,-156,64,82,-150,-14,-83,-300,-247,-205,-224
9,-151,-168,64,88,-156,-14,-83,-300,-253,-205,-224
9,-151,-168,64,88,-156,-14,-89,-300,-253,-205,-224
3,-151,-162,64,82,-156,-20,-95,-300,-253,-211,-230
3,-163,-174,70,88,-168,-20,-95,-300,-253,-211,-230
-3,-163,-168,76,82,-162,-20,-107,-300,-253,-211,-230
-3,-157,-162,70,82,-156,-20,-107,-306,-253,-211,-230
-3,-157,-162,70,82,-156,-20,-107,-306,-259,-211,-230
-3,-157,-162,70,82,-156,-20,-107,-306,-265,-211,-230
-3,-157,-162,70,82,-156,-20,-113,-318,-271,-211,-230
-3,-157,-162,70,82,-156,-20,-113,-318,-271,-211,-230
-3,-163,-168,76,82,-162,-20,-113,-318,-271,-211,-230
-3,-163,-168,76,82,-162,-20,-119,-318,-271,-217,-230
-3,-163,-168,76,82,-162,-20,-119,-324,-265,-217,-236
-3,-163,-168,76,82,-162,-20,-125,-324,-265,-217,-236
-3,-169,-174,76,88,-168,-20,-125,-324,-271,-217,-236
-3,-169,-174,76,88,-168,-20,-131,-324,-271,-217,-236
-3,-175,-180,82,88,-174,-20,-131,-324,-283,-217,-236
-3,-181,-186,82,94,-180,-20,-131,-330,-283,-217,-236
-3,-181,-186,82,94,-180,-20,-125,-336,-277,-217,-230
-3,-181,-186,82,94,-180,-25,-131,-336,-277,-217,-230
-3,-181,-186,82,94,-180,-25,-125,-336,-271,-217,-230
-3,-181,-186,82,94,-180,-25,-125,-336,-271,-217,-230
-3,-181,-180,88,88,-180,-25,-131,-336,-271,-217,-224
-3,-187,-186,88,88,-186,-25,-131,-336,-271,-217,-224
-3,-193,-186,100,88,-192,-20,-131,-336,-271,-217,-218
-3,-205,-198,106,94,-204,-20,-131,-336,-271,-217,-218
-3,-211,-210,106,106,-210,-20,-137,-336,-277,-223,-218
-3,-199,-198,100,100,-198,-20,-137,-336,-277,-223,-218
-3,-205,-210,100,106,-204,-25,-143,-330,-283,-223,-218
-3,-199,-204,94,106,-198,-25,-143,-330,-283,-217,-218
-3,-205,-204,100,100,-204,-20,-137,-330,-277,-217,-218
-3,-211,-210,106,106,-210,-20,-137,-330,-277,-217,-218
-3,-217,-210,112,100,-216,-20,-137,-330,-271,-217,-218
-3,-223,-216,112,106,-222,-20,-137,-330,-271,-217,-218
-3,-241,-234,124,112,-240,-8,-137,-330,-271,-205,-206
-3,-247,-240,124,118,-246,-14,-137,-330,-271,-205,-206
-8,-265,-252,136,118,-258,-20,-137,-330,-271,-205,-194
-8,-271,-258,142,124,-264,-14,-137,-324,-259,-205,-206
-3,-259,-258,130,130,-258,-14,-131,-330,-265,-205,-206
-3,-265,-264,130,130,-264,-20,-137,-336,-265,-211,-206
-3,-265,-264,130,130,-264,-20,-137,-336,-265,-211,-206
-3,-271,-270,136,136,-270,-20,-143,-342,-265,-217,-206
-3,-271,-270,136,136,-270,-20,-143,-342,-265,-217,-206
-3,-277,-270,142,130,-276,-20,-137,-336,-265,-211,-200
-3,-277,-270,142,130,-276,-20,-137,-336,-265,-211,-200
-8,-283,-270,148,130,-276,-14,-131,-330,-265,-205,-194
-8,-283,-270,148,130,-276,-2,-131,-330,-265,-205,-188
-8,-271,-258,142,124,-264,4,-125,-330,-265,-205,-194
-8,-271,-258,142,124,-264,4,-119,-324,-265,-199,-194
-8,-265,-252,136,118,-258,10,-119,-324,-259,-199,-194
-3,-259,-258,130,130,-258,16,-119,-312,-253,-193,-188
-3,-241,-246,118,124,-240,22,-107,-300,-241,-187,-176
-3,-223,-222,112,112,-222,52,-89,-288,-235,-175,-170
-3,-211,-216,100,112,-210,64,-77,-270,-217,-169,-170
3,-199,-210,94,112,-204,70,-71,-258,-217,-163,-170
3,-187,-198,88,106,-192,76,-65,-258,-217,-157,-164
3,-187,-198,88,106,-192,82,-65,-252,-217,-157,-164
3,-181,-186,82,100,-186,88,-65,-252,-217,-157,-146
3,-175,-186,76,94,-180,88,-65,-252,-217,-157,-140
-3,-169,-174,76,88,-168,88,-65,-258,-217,-157,-134
-3,-163,-168,76,82,-162,88,-65,-258,-217,-157,-140
-3,-157,-156,76,76,-156,88,-71,-270,-211,-157,-134
-3,-151,-150,70,70,-150,88,-83,-270,-211,-151,-134
-3,-151,-144,76,64,-150,88,-89,-264,-211,-151,-134
-3,-139,-132,70,58,-138,88,-89,-264,-211,-151,-128
-3,-139,-132,70,58,-138,88,-95,-246,-199,-145,-116
3,-109,-120,46,64,-114,88,-83,-228,-187,-133,-98
15,-79,-102,22,58,-90,82,-83,-222,-187,-127,-86
21,-73,-102,16,64,-84,52,-89,-222,-175,-121,-74
33,-61,-102,4,70,-78,28,-89,-228,-181,-121,-80
45,-49,-102,-8,76,-72,16,-89,-234,-181,-115,-80
51,-61,-120,-2,88,-90,16,-89,-234,-181,-109,-86
51,-67,-126,-2,88,-96,16,-95,-234,-181,-115,-86
45,-73,-126,4,88,-96,10,-95,-234,-187,-109,-92
51,-79,-138,4,94,-108,4,-95,-234,-187,-109,-92
51,-91,-150,10,100,-120,-14,-101,-246,-187,-109,-92
51,-115,-174,22,112,-144,-14,-101,-252,-199,-121,-104
45,-133,-186,34,118,-156,-14,-101,-258,-199,-127,-110
45,-145,-192,40,124,-168,-14,-101,-258,-199,-127,-110
45,-151,-198,46,124,-174,-14,-107,-258,-199,-133,-110
45,-151,-198,46,124,-174,-20,-107,-270,-211,-139,-116
45,-157,-204,46,130,-180,-20,-119,-276,-211,-145,-122
63,-169,-234,46,154,-198,-20,-119,-282,-211,-145,-122
63,-181,-246,52,160,-210,-25,-119,-276,-211,-145,-116
57,-187,-252,58,160,-216,-31,-125,-282,-217,-157,-128
57,-217,-282,76,172,-246,-37,-125,-282,-223,-163,-128
45,-235,-288,88,172,-258,-49,-131,-294,-229,-169,-134
39,-241,-288,94,166,-264,-55,-137,-300,-235,-169,-134
39,-253,-300,100,172,-276,-55,-137,-300,-235,-175,-140
21,-271,-300,118,166,-282,-49,-143,-306,-241,-181,-146
3,-283,-294,136,154,-288,-43,-143,-312,-253,-187,-152
-3,-289,-282,148,136,-288,-31,-143,-318,-259,-193,-164
-20,-301,-276,160,124,-288,-31,-143,-324,-271,-211,-176
-26,-319,-288,172,130,-306,-31,-149,-336,-283,-217,-188
-38,-325,-282,184,118,-306,-31,-149,-348,-295,-229,-188
-44,-337,-288,190,118,-312,-31,-155,-354,-295,-235,-194
-44,-343,-294,196,124,-318,-43,-167,-366,-301,-235,-206
-50,-349,-294,202,118,-324,-49,-179,-378,-307,-247,-206
-50,-355,-300,202,124,-330,-55,-179,-378,-313,-247,-206
-56,-367,-306,214,124,-336,-49,-191,-384,-313,-247,-206
-56,-367,-306,214,124,-336,-55,-191,-384,-319,-247,-212
-56,-373,-312,214,124,-342,-49,-197,-390,-319,-247,-212
-56,-373,-312,214,124,-342,-43,-197,-390,-319,-247,-212
-44,-361,-312,202,130,-336,-55,-197,-384,-319,-247,-212
-44,-361,-312,202,130,-336,-43,-197,-378,-313,-247,-212
-56,-355,-294,208,118,-324,-37,-179,-372,-307,-241,-200
-56,-361,-300,208,118,-330,-31,-161,-348,-301,-235,-200
-62,-349,-282,208,106,-318,-20,-137,-342,-289,-235,-206
-68,-313,-240,190,82,-276,-14,-119,-336,-283,-229,-206
-86,-325,-234,208,70,-282,22,-77,-294,-259,-223,-188
-110,-313,-198,214,40,-258,52,-29,-246,-229,-205,-176
-128,-289,-162,208,10,-222,82,-6,-222,-217,-199,-176
-146,-259,-114,202,-20,-186,106,18,-192,-199,-193,-170
-164,-253,-90,208,-31,-174,124,42,-162,-175,-193,-164
-176,-223,-48,202,-55,-138,148,66,-138,-169,-181,-158
-188,-199,-12,196,-79,-108,172,90,-120,-151,-169,-152
-206,-187,18,196,-103,-90,208,120,-96,-133,-157,-140
-218,-175,48,196,-127,-66,226,156,-72,-115,-139,-140
-218,-139,71,178,-145,-30,238,180,-54,-109,-139,-134
-242,-139,95,190,-169,-18,274,204,-48,-97,-139,-134
-248,-139,107,196,-181,-12,310,240,-36,-97,-127,-128
-260,-127,131,196,-199,6,382,324,-12,-97,-139,-134
-272,-127,143,202,-211,12,478,480,-6,-97,-157,-152
-278,-151,125,214,-205,-6,646,696,24,-97,-175,-188
-296,-151,143,220,-223,0,844,966,36,-127,-229,-242
-308,-151,155,226,-235,6,1078,1260,24,-169,-277,-302
-338,-151,185,238,-265,24,1342,1560,24,-205,-331,-350
-350,-91,257,214,-301,77,1600,1824,65,-181,-319,-362
-362,5,359,178,-361,179,1858,2075,185,-109,-277,-320
-392,106,503,136,-445,299,2109,2321,353,22,-187,-248
-404,262,665,64,-529,461,2331,2542,575,178,-61,-158
-392,478,869,-37,-625,671,2498,2704,875,406,94,-26
-386,718,1103,-163,-745,911,2624,2830,1235,718,340,177
-362,988,1349,-307,-853,1169,2630,2908,1601,1078,634,423
-272,1324,1601,-517,-937,1463,2343,2890,2021,1492,982,699
-146,1678,1823,-757,-985,1751,1822,2752,2499,1978,1390,1041
-26,2038,2069,-997,-1045,2051,1216,2506,2967,2480,1810,1371
87,2403,2308,-1243,-1105,2356,544,2081,3405,2942,2193,1695
165,2702,2529,-1435,-1177,2619,-97,1422,3759,3302,2480,1935
165,2858,2691,-1507,-1255,2775,-601,642,4011,3518,2660,2097
171,2846,2673,-1507,-1243,2757,-913,132,4275,3734,2780,2156
213,2654,2440,-1435,-1105,2547,-991,-41,4473,3896,2864,2133
195,2486,2290,-1339,-1039,2392,-1093,-407,4335,3848,2822,2085
123,2522,2398,-1321,-1129,2464,-1405,-1007,3963,3626,2732,2061
69,2522,2452,-1297,-1183,2487,-1711,-1469,3603,3368,2588,2007
33,2301,2260,-1171,-1105,2284,-1855,-1715,3165,3026,2367,1827
-3,1924,1919,-961,-955,1925,-1891,-1883,2505,2492,2008,1557
-50,1450,1505,-697,-769,1475,-1873,-1901,1661,1690,1474,1167
-140,928,1067,-391,-601,1001,-1741,-1769,761,694,778,663
-212,430,641,-103,-421,539,-1507,-1553,47,-73,172,225
-224,52,281,76,-247,167,-1291,-1313,-396,-415,-133,-26
-194,-139,53,166,-121,-42,-1141,-1163,-702,-535,-247,-134
-164,-187,-18,172,-67,-102,-1075,-1085,-768,-541,-259,-128
-128,-217,-90,172,-26,-156,-997,-965,-600,-439,-223,-92
-104,-301,-192,202,40,-246,-853,-821,-510,-379,-205,-104
-92,-373,-276,226,88,-324,-709,-731,-516,-367,-229,-134
-56,-421,-360,232,148,-390,-577,-635,-486,-373,-235,-146
-32,-433,-396,226,178,-414,-463,-515,-450,-355,-235,-158
-8,-421,-408,214,196,-414,-313,-389,-444,-355,-241,-164
-3,-427,-426,214,214,-426,-181,-257,-408,-349,-241,-164
-3,-427,-426,214,214,-426,-115,-185,-378,-337,-241,-164
-3,-409,-408,202,202,-408,-97,-173,-366,-343,-235,-158
-3,-367,-360,184,178,-366,-97,-185,-360,-331,-235,-146
-20,-343,-318,184,148,-330,-85,-185,-318,-289,-211,-122
-26,-319,-288,172,130,-306,-73,-179,-288,-271,-187,-110
-26,-313,-282,172,124,-300,-49,-185,-300,-253,-187,-104
-26,-313,-282,172,124,-300,-25,-161,-288,-253,-181,-104
-14,-307,-288,160,136,-300,-20,-137,-288,-253,-181,-98
-14,-307,-288,160,136,-300,-2,-107,-294,-253,-181,-98
-14,-307,-288,160,136,-300,4,-89,-306,-265,-187,-98
-3,-313,-306,160,148,-312,-2,-89,-306,-265,-193,-98
-3,-313,-312,154,154,-312,-8,-89,-312,-271,-193,-98
-3,-313,-318,154,160,-312,-14,-95,-312,-271,-199,-98
-3,-313,-318,154,160,-312,-14,-95,-312,-271,-199,-104
-3,-313,-318,154,160,-312,-14,-89,-306,-253,-193,-98
-3,-313,-318,154,160,-312,-14,-77,-300,-241,-181,-86
-3,-313,-312,154,154,-312,-2,-77,-300,-235,-175,-80
-3,-301,-306,148,154,-300,4,-71,-294,-229,-169,-74
3,-295,-306,142,160,-300,10,-59,-288,-229,-169,-80
3,-295,-306,142,160,-300,10,-53,-282,-229,-169,-74
9,-283,-300,130,160,-288,10,-41,-282,-235,-175,-80
15,-277,-300,124,160,-288,10,-41,-276,-235,-175,-80
9,-277,-294,130,154,-282,10,-41,-276,-229,-169,-74
15,-277,-300,124,160,-288,10,-41,-270,-217,-163,-74
15,-265,-288,118,154,-276,10,-35,-258,-217,-145,-74
15,-265,-288,118,154,-276,10,-35,-252,-205,-139,-74
15,-271,-294,124,160,-282,16,-23,-246,-199,-133,-68
21,-253,-282,112,154,-264,16,-23,-240,-193,-133,-62
21,-259,-288,112,160,-270,16,-6,-240,-187,-127,-50
21,-259,-288,112,160,-270,16,-6,-234,-181,-127,-44
33,-247,-288,100,166,-264,16,-11,-228,-175,-127,-44
33,-241,-282,100,160,-258,16,-11,-222,-169,-121,-44
33,-235,-276,94,160,-252,16,-17,-216,-163,-121,-32
33,-235,-276,94,160,-252,16,-11,-210,-163,-115,-32
45,-223,-276,82,166,-246,22,-17,-204,-157,-109,-32
45,-217,-270,82,160,-240,28,-17,-198,-151,-103,-26
45,-205,-258,76,154,-228,34,-17,-192,-151,-103,-26
51,-193,-252,64,154,-222,34,-17,-180,-139,-97,-20
57,-199,-264,64,166,-228,34,-6,-174,-133,-91,-8
57,-193,-258,64,160,-222,34,-6,-162,-127,-85,-2
63,-187,-258,58,166,-222,34,-6,-156,-121,-79,10
69,-187,-258,52,166,-216,34,-6,-144,-109,-61,22
63,-181,-246,52,160,-210,28,0,-138,-97,-61,28
69,-175,-246,46,160,-204,28,0,-120,-91,-49,40
69,-151,-222,34,148,-186,22,0,-120,-73,-43,40
75,-151,-228,28,154,-186,16,0,-102,-67,-31,46
81,-139,-222,22,154,-180,22,6,-90,-61,-19,52
87,-121,-210,10,154,-168,22,6,-84,-49,-13,58
93,-109,-204,-2,154,-156,28,18,-66,-43,4,70
93,-109,-204,-2,154,-156,28,18,-54,-25,4,82
105,-91,-198,-14,154,-144,22,30,-42,-13,16,94
117,-79,-198,-26,160,-138,22,36,-30,-1,34,105
129,-67,-198,-26,166,-132,22,48,-12,17,52,111
135,-55,-192,-31,166,-126,22,48,0,22,64,129
141,-31,-180,-49,160,-102,16,48,30,40,76,147
153,-25,-186,-55,172,-102,16,54,41,58,88,159
159,-1,-168,-73,166,-84,16,54,59,76,100,171
165,23,-150,-85,160,-60,10,60,83,94,118,183
171,41,-138,-97,154,-48,16,72,107,124,142,207
177,52,-126,-109,154,-30,16,78,131,142,160,231
177,64,-108,-121,148,-12,16,90,155,172,190,255
195,94,-96,-145,148,6,10,102,185,196,220,285
207,106,-96,-157,154,12,10,108,203,238,238,303
219,130,-84,-175,154,30,10,114,239,256,256,321
225,166,-54,-193,142,53,-2,126,263,286,268,333
237,202,-30,-217,136,83,-2,132,287,310,292,345
237,220,-18,-229,136,95,-2,144,317,340,322,369
249,250,0,-253,130,119,-8,150,347,370,334,387
261,274,12,-265,130,137,-14,156,377,382,370,411
261,292,30,-271,124,155,-14,168,407,412,394,429
267,310,48,-289,118,179,-20,180,431,436,406,453
279,334,53,-307,118,197,-20,186,449,460,424,465
285,346,53,-313,118,203,-20,198,473,472,442,483
285,364,71,-325,106,221,-20,204,497,490,460,489
291,382,83,-337,106,239,-20,198,509,508,478,501
297,394,89,-343,106,245,-20,204,527,526,484,507
297,394,89,-343,106,245,-25,204,545,538,496,519
297,418,113,-355,94,269,-25,204,557,550,508,525
297,418,113,-355,94,269,-25,216,575,556,514,543
297,424,119,-361,88,275,-25,216,587,568,514,549
297,424,119,-361,88,275,-31,222,599,574,520,555
297,424,119,-361,88,275,-31,228,599,574,526,549
291,430,131,-361,82,287,-25,234,611,586,526,555
285,436,143,-361,70,293,-20,234,617,586,526,549
279,448,161,-361,58,305,-20,240,617,592,520,555
273,448,167,-361,52,305,-14,246,617,592,520,543
261,418,149,-337,58,287,-2,252,611,580,508,525
249,400,143,-325,52,275,4,258,605,562,490,513
237,388,143,-313,46,269,10,270,581,532,472,489
231,358,125,-289,52,245,16,270,545,508,442,447
213,322,107,-265,52,221,34,270,515,478,406,423
207,298,89,-253,58,197,46,270,479,436,376,393
183,256,65,-217,58,161,70,258,431,400,340,369
165,214,53,-187,58,131,82,252,389,364,310,351
153,196,48,-175,58,119,88,246,353,316,280,333
135,166,36,-151,52,95,94,240,311,286,250,315
117,142,30,-127,46,83,94,222,275,256,226,279
105,112,12,-109,52,59,100,210,233,214,184,249
99,76,-18,-85,64,36,94,192,203,172,154,219
81,52,-24,-67,58,24,94,180,155,130,118,177
69,29,-48,-43,58,-6,94,162,113,94,82,153
63,-1,-72,-26,70,-36,94,150,71,52,58,123
45,-25,-78,-20,64,-48,100,138,41,22,34,111
27,-55,-90,4,58,-72,100,114,-6,-1,4,105
15,-73,-96,22,58,-84,94,96,-36,-25,4,100
3,-91,-102,34,52,-96,94,78,-66,-55,-19,82
-3,-121,-120,58,58,-120,88,54,-84,-67,-43,70
-3,-133,-126,64,58,-132,76,36,-96,-91,-55,52
-8,-157,-144,82,64,-150,64,12,-114,-97,-79,34
-14,-169,-150,88,64,-162,52,-6,-138,-115,-103,22
-20,-181,-156,100,64,-168,52,-6,-156,-139,-115,4
-26,-187,-162,106,64,-180,40,-11,-180,-157,-127,-2
-32,-205,-174,118,64,-186,40,-23,-192,-175,-133,-8
-38,-223,-186,130,70,-204,34,-35,-204,-193,-139,-8
-38,-217,-180,130,64,-198,28,-47,-228,-199,-151,-14
-44,-229,-186,136,64,-204,22,-65,-228,-211,-151,-20
-44,-229,-186,136,64,-204,16,-77,-240,-211,-157,-20
-44,-235,-186,142,70,-210,10,-89,-240,-211,-163,-26
-38,-241,-198,142,76,-222,10,-89,-246,-217,-169,-32
-38,-247,-204,142,82,-228,4,-95,-252,-217,-175,-38
-38,-253,-210,148,82,-234,-2,-89,-258,-223,-181,-50
-38,-253,-210,148,82,-234,-8,-95,-264,-235,-187,-50
-44,-259,-210,154,82,-234,-14,-101,-264,-235,-193,-50
-44,-265,-216,154,82,-240,-14,-107,-276,-241,-193,-50
-50,-265,-210,160,76,-240,-20,-113,-276,-235,-193,-50
-56,-265,-204,160,70,-234,-20,-119,-276,-235,-199,-50
-50,-265,-210,160,76,-240,-20,-131,-282,-241,-199,-50
-50,-271,-216,160,82,-246,-20,-131,-282,-247,-199,-50
-44,-277,-228,160,88,-252,-25,-137,-288,-253,-199,-44
-44,-277,-228,160,88,-252,-25,-137,-288,-259,-199,-44
-44,-283,-234,166,94,-258,-25,-131,-282,-259,-205,-50
-44,-283,-234,166,94,-258,-25,-131,-282,-259,-205,-50
-50,-289,-234,172,88,-264,-25,-125,-276,-253,-205,-56
-50,-289,-234,172,88,-264,-25,-125,-276,-253,-205,-56
-50,-283,-228,166,88,-258,-25,-125,-282,-259,-211,-56
-50,-283,-228,166,88,-258,-25,-125,-282,-259,-211,-56
-50,-277,-222,166,82,-252,-25,-125,-282,-265,-211,-56
-50,-277,-222,166,82,-252,-25,-125,-276,-265,-211,-56
-50,-277,-222,166,82,-252,-25,-131,-276,-265,-211,-50
-56,-277,-216,166,76,-246,-25,-131,-276,-271,-211,-56
-56,-277,-216,166,76,-246,-25,-137,-276,-271,-211,-50
-56,-271,-210,166,76,-240,-25,-137,-276,-271,-217,-50
-56,-271,-210,166,76,-240,-20,-137,-276,-265,-217,-50
-56,-271,-210,166,76,-240,-20,-137,-276,-265,-217,-50
-56,-271,-210,166,76,-240,-20,-137,-276,-259,-217,-50
-56,-277,-216,166,76,-246,-20,-137,-276,-259,-217,-50
-56,-277,-216,166,76,-246,-20,-131,-270,-259,-211,-50
-56,-277,-216,166,76,-246,-20,-125,-270,-259,-211,-50
-56,-277,-216,166,76,-246,-20,-119,-264,-259,-211,-50
-56,-277,-216,166,76,-246,-20,-119,-264,-259,-211,-50
-56,-277,-216,166,76,-246,-20,-113,-264,-259,-205,-44
-56,-271,-210,166,76,-240,-20,-113,-264,-259,-205,-38
-56,-271,-210,166,76,-240,-20,-113,-258,-259,-199,-32
-56,-271,-210,166,76,-240,-14,-107,-258,-259,-199,-32
-56,-265,-204,160,70,-234,-20,-107,-258,-259,-205,-32
-56,-265,-204,160,70,-234,-20,-101,-258,-253,-205,-32
-56,-259,-198,160,70,-228,-20,-101,-258,-253,-211,-32
-50,-253,-198,154,70,-228,-20,-89,-258,-259,-205,-32
-50,-259,-204,154,76,-234,-20,-89,-258,-253,-199,-32
-50,-259,-204,154,76,-234,-20,-89,-252,-253,-199,-32
-50,-265,-210,160,76,-240,-14,-89,-252,-241,-193,-32
-44,-259,-210,154,82,-234,-14,-83,-252,-241,-193,-26
-44,-259,-210,154,82,-234,-14,-71,-246,-241,-187,-26
-44,-259,-210,154,82,-234,-14,-71,-246,-241,-187,-26
-44,-253,-204,148,76,-228,-14,-65,-240,-241,-187,-26
-44,-253,-204,148,76,-228,-14,-59,-240,-235,-181,-26
-44,-253,-204,148,76,-228,-8,-59,-240,-235,-181,-20
-44,-253,-204,148,76,-228,-8,-53,-240,-235,-181,-20
-38,-253,-210,148,82,-234,-8,-53,-240,-235,-181,-14
-38,-253,-210,148,82,-234,-8,-53,-240,-235,-175,-14
-44,-253,-204,148,76,-228,-2,-53,-234,-229,-169,-14
-44,-247,-198,148,76,-222,-2,-47,-234,-229,-169,-8
-50,-247,-192,148,70,-222,4,-47,-234,-223,-163,-8
-50,-247,-192,148,70,-222,4,-41,-234,-217,-163,-8
-44,-247,-198,148,76,-222,-2,-47,-234,-223,-163,-8
-44,-247,-198,148,76,-222,-2,-47,-234,-223,-163,-8
-44,-247,-198,148,76,-222,-8,-53,-234,-229,-169,-8
-44,-241,-192,142,70,-216,-8,-53,-234,-229,-169,-8
-38,-241,-198,142,76,-222,-14,-53,-234,-229,-169,-8
-38,-241,-198,142,76,-222,-14,-53,-234,-229,-169,-8
-26,-241,-210,136,88,-228,-20,-53,-234,-229,-169,-8
-26,-241,-210,136,88,-228,-20,-53,-234,-229,-169,-8
-26,-241,-210,136,88,-228,-14,-53,-234,-229,-169,-2
-26,-241,-210,136,88,-228,-14,-53,-234,-229,-169,-2
-26,-241,-210,136,88,-228,-8,-65,-234,-235,-169,4
-26,-241,-210,136,88,-228,-8,-65,-234,-235,-175,4
-32,-247,-210,142,88,-228,-8,-65,-234,-229,-175,-2
-32,-247,-210,142,88,-228,-8,-65,-234,-229,-175,-2
-38,-247,-204,142,82,-228,-14,-65,-228,-223,-175,-8
-38,-247,-204,142,82,-228,-14,-71,-234,-223,-175,-8
-38,-247,-204,142,82,-228,-20,-71,-240,-223,-175,-8
-38,-247,-204,142,82,-228,-20,-71,-240,-229,-175,-8
-38,-247,-204,142,82,-228,-20,-71,-246,-229,-175,-8
-38,-247,-204,142,82,-228,-20,-71,-246,-229,-175,-8
-38,-247,-204,142,82,-228,-20,-77,-252,-241,-181,-8
-38,-247,-204,142,82,-228,-20,-77,-258,-241,-181,-8
-38,-253,-210,148,82,-234,-20,-71,-252,-253,-181,-2
-38,-253,-210,148,82,-234,-20,-77,-252,-253,-181,-2
-38,-253,-210,148,82,-234,-20,-77,-252,-247,-187,-8
-38,-265,-222,154,88,-246,-20,-77,-252,-247,-187,-8
-38,-265,-222,154,88,-246,-20,-83,-252,-241,-187,-8
-38,-259,-216,148,88,-240,-20,-83,-258,-241,-187,-8
-38,-259,-216,148,88,-240,-20,-89,-258,-241,-187,-8
-38,-259,-216,148,88,-240,-20,-89,-258,-247,-187,-8
-38,-259,-216,148,88,-240,-25,-101,-270,-247,-187,-8
-38,-259,-216,148,88,-240,-25,-101,-270,-247,-187,-8
-38,-265,-222,154,88,-246,-25,-101,-270,-253,-187,-8
-38,-265,-222,154,88,-246,-25,-107,-270,-253,-193,-8
-38,-265,-222,154,88,-246,-25,-107,-276,-253,-193,-14
-38,-265,-222,154,88,-246,-25,-113,-276,-253,-193,-14
-38,-265,-222,154,88,-246,-31,-113,-276,-253,-193,-14
-38,-265,-222,154,88,-246,-31,-119,-276,-253,-193,-14
-38,-265,-222,154,88,-246,-43,-119,-276,-259,-193,-14
-38,-271,-228,154,94,-252,-43,-119,-282,-259,-193,-14
-38,-271,-228,154,94,-252,-37,-119,-288,-259,-193,-14
-38,-271,-228,154,94,-252,-43,-125,-288,-259,-193,-14
-38,-271,-228,154,94,-252,-37,-125,-288,-259,-193,-20
-38,-271,-228,154,94,-252,-37,-125,-288,-259,-193,-20
-38,-265,-222,154,88,-246,-43,-131,-288,-265,-193,-20
-38,-265,-222,154,88,-246,-43,-131,-288,-265,-193,-20
-38,-271,-228,154,94,-252,-43,-131,-288,-271,-193,-20
-38,-277,-234,160,94,-258,-43,-131,-288,-271,-193,-20
-38,-283,-240,160,100,-264,-43,-131,-294,-271,-205,-20
-38,-271,-228,154,94,-252,-43,-131,-294,-271,-205,-20
-38,-277,-234,160,94,-258,-49,-131,-294,-271,-211,-20
-38,-271,-228,154,94,-252,-49,-131,-294,-271,-205,-20
-32,-271,-234,154,100,-252,-49,-131,-300,-277,-205,-20
-32,-271,-234,154,100,-252,-49,-131,-300,-277,-205,-20
-26,-271,-240,148,106,-258,-55,-137,-306,-283,-205,-20
-26,-271,-240,148,106,-258,-55,-137,-306,-283,-205,-20
-26,-259,-228,142,100,-246,-61,-143,-312,-289,-211,-26
-26,-253,-222,142,94,-240,-61,-149,-312,-289,-211,-26
-32,-241,-204,136,82,-222,-61,-155,-318,-295,-217,-32
-32,-235,-198,136,82,-216,-61,-161,-324,-295,-217,-32
-38,-235,-192,136,76,-216,-61,-167,-324,-295,-223,-38
-32,-235,-198,136,82,-216,-61,-167,-324,-295,-223,-38
-38,-235,-192,136,76,-216,-67,-173,-324,-295,-229,-44
-38,-223,-186,130,70,-204,-73,-173,-318,-295,-223,-44
-38,-223,-186,130,70,-204,-73,-173,-324,-301,-229,-44
-38,-223,-186,130,70,-204,-73,-179,-324,-295,-229,-38
-38,-223,-186,130,70,-204,-73,-179,-324,-301,-235,-44
-38,-223,-186,130,70,-204,-79,-179,-324,-301,-235,-38
-38,-223,-186,130,70,-204,-79,-179,-324,-301,-235,-44
-38,-223,-186,130,70,-204,-79,-179,-324,-301,-235,-44
-32,-229,-192,130,76,-210,-79,-179,-330,-301,-235,-50
-32,-229,-192,130,76,-210,-79,-173,-330,-295,-235,-44
-38,-229,-186,136,70,-210,-79,-179,-336,-301,-235,-44
-26,-223,-192,124,82,-210,-73,-173,-342,-301,-241,-44
-32,-223,-186,130,76,-204,-79,-173,-348,-307,-247,-44
-32,-223,-186,130,76,-204,-85,-173,-336,-307,-253,-44
-44,-223,-180,136,64,-198,-73,-173,-336,-307,-253,-44
-44,-223,-180,136,64,-198,-73,-179,-330,-301,-247,-44
-44,-223,-180,136,64,-198,-79,-179,-330,-307,-247,-44
-44,-223,-180,136,64,-198,-79,-179,-330,-307,-247,-44
-44,-223,-180,136,64,-198,-85,-179,-330,-313,-247,-44
-44,-223,-180,136,64,-198,-85,-179,-330,-313,-247,-44
-44,-223,-180,136,64,-198,-85,-185,-330,-313,-247,-44
-44,-223,-180,136,64,-198,-85,-185,-330,-313,-247,-44
-44,-223,-180,136,64,-198,-85,-191,-330,-313,-247,-44
-44,-223,-180,136,64,-198,-73,-191,-330,-313,-247,-38
-44,-217,-174,130,58,-192,-67,-179,-330,-307,-241,-38
-44,-217,-174,130,58,-192,-67,-173,-324,-307,-235,-38
-44,-217,-174,130,58,-192,-61,-167,-324,-295,-235,-32
-32,-211,-180,124,70,-192,-55,-167,-312,-289,-229,-26
-26,-193,-168,112,64,-186,-49,-155,-306,-289,-229,-14
-32,-181,-144,106,52,-162,-20,-137,-294,-283,-217,-8
-26,-169,-138,94,52,-156,-20,-125,-282,-277,-217,-8
-20,-157,-132,88,52,-144,-14,-119,-270,-271,-211,-8
-20,-145,-120,82,46,-132,-8,-119,-270,-265,-205,-2
-20,-145,-120,82,46,-132,-2,-119,-264,-259,-205,-2
-20,-133,-108,76,40,-120,4,-125,-264,-253,-205,16
-20,-127,-102,70,34,-114,4,-125,-264,-253,-205,22
-20,-121,-96,70,34,-108,4,-119,-264,-253,-199,22
-20,-115,-90,64,28,-102,4,-119,-264,-253,-199,16
-20,-109,-84,64,28,-96,4,-119,-270,-253,-193,16
-20,-103,-78,58,22,-90,4,-131,-270,-253,-187,16
-32,-97,-60,64,10,-78,4,-131,-270,-253,-193,16
-32,-85,-48,58,4,-66,4,-131,-270,-253,-193,16
-38,-79,-36,58,-8,-60,4,-131,-258,-241,-193,22
-20,-49,-24,34,-2,-36,4,-119,-240,-229,-181,34
-14,-19,0,16,-14,-12,10,-119,-222,-217,-163,52
-8,-13,0,10,-8,-6,-14,-125,-222,-211,-157,64
-3,-1,6,-2,-8,0,-20,-125,-216,-205,-145,64
-3,11,6,-14,-2,12,-20,-125,-222,-205,-139,64
15,5,-18,-20,16,-6,-31,-125,-228,-211,-145,58
15,-1,-24,-14,22,-12,-37,-131,-228,-211,-151,58
21,-1,-30,-20,28,-12,-55,-131,-234,-217,-157,52
27,-7,-42,-20,34,-24,-67,-131,-234,-217,-157,52
21,-19,-48,-8,34,-30,-79,-137,-240,-217,-151,58
21,-37,-66,-2,46,-48,-79,-137,-246,-229,-163,46
9,-55,-72,16,40,-60,-73,-137,-246,-229,-163,46
9,-61,-78,16,46,-66,-73,-137,-246,-229,-163,46
9,-73,-90,22,52,-78,-73,-137,-246,-229,-163,46
9,-79,-96,28,52,-84,-85,-137,-258,-241,-169,40
9,-91,-108,34,58,-96,-85,-143,-264,-241,-169,34
27,-109,-144,34,88,-126,-91,-143,-270,-241,-169,34
33,-109,-150,28,94,-126,-97,-149,-270,-241,-169,34
27,-121,-156,40,94,-138,-103,-155,-276,-253,-181,22
33,-139,-180,46,106,-156,-109,-161,-282,-259,-187,16
21,-157,-186,58,106,-168,-121,-167,-294,-265,-193,10
15,-163,-186,64,100,-174,-133,-173,-300,-271,-193,10
15,-175,-192,70,106,-186,-133,-173,-300,-271,-199,-2
-3,-187,-192,88,100,-186,-133,-179,-306,-277,-205,-8
-8,-199,-186,106,88,-192,-127,-179,-312,-289,-211,-14
-26,-205,-180,118,70,-192,-109,-185,-318,-295,-223,-26
-44,-217,-174,130,58,-192,-109,-185,-324,-307,-235,-38
-50,-235,-186,142,64,-210,-103,-197,-336,-319,-247,-50
-62,-241,-180,154,52,-210,-103,-197,-348,-331,-259,-50
-68,-259,-186,166,58,-222,-97,-197,-348,-331,-259,-50
-68,-265,-192,166,58,-228,-109,-209,-360,-337,-265,-62
-74,-277,-198,178,58,-240,-109,-215,-366,-343,-271,-56
-74,-283,-204,178,64,-246,-115,-215,-366,-349,-271,-56
-74,-289,-210,184,64,-252,-121,-221,-372,-349,-271,-56
-74,-289,-210,184,64,-252,-127,-221,-372,-355,-271,-62
-68,-289,-216,178,70,-252,-133,-221,-378,-355,-271,-62
-68,-289,-216,178,70,-252,-127,-221,-378,-355,-271,-62
-68,-289,-216,178,70,-252,-139,-233,-372,-343,-271,-74
-68,-289,-216,178,70,-252,-139,-233,-366,-349,-271,-74
-68,-271,-198,172,64,-234,-121,-215,-360,-343,-265,-74
-80,-277,-192,178,52,-234,-115,-197,-336,-337,-253,-62
-86,-265,-180,178,40,-222,-103,-185,-330,-325,-253,-56
-92,-253,-162,172,28,-204,-85,-167,-312,-319,-247,-56
-98,-253,-156,178,22,-204,-61,-125,-282,-295,-241,-50
-122,-241,-120,184,-8,-186,-31,-89,-258,-265,-235,-38
-128,-217,-90,172,-26,-156,-20,-53,-222,-247,-223,-38
-146,-187,-42,166,-43,-120,-2,-17,-192,-229,-217,-32
-152,-187,-30,166,-55,-108,28,-6,-162,-211,-205,-38
-176,-157,24,166,-91,-66,52,18,-138,-205,-193,-32
-188,-133,53,160,-115,-36,76,54,-108,-187,-181,-14
-206,-121,77,160,-139,-18,112,84,-96,-169,-181,-14
-230,-103,119,166,-175,12,136,108,-72,-151,-175,-2
-248,-79,167,166,-211,48,172,132,-42,-133,-163,4
-260,-67,191,166,-229,53,196,156,-36,-121,-151,4
-272,-67,203,172,-241,59,238,198,-36,-121,-151,4
-272,-67,203,172,-241,59,310,288,-12,-121,-163,-14
-272,-67,203,172,-241,59,424,468,6,-121,-169,-38
-290,-79,209,184,-253,59,574,708,24,-121,-199,-74
-308,-79,227,196,-265,65,784,966,24,-163,-235,-128
-320,-79,239,202,-277,71,1030,1260,12,-217,-313,-194
-350,-55,293,202,-319,113,1282,1548,24,-247,-355,-230
-362,5,359,178,-361,179,1528,1824,77,-223,-343,-230
-374,88,467,136,-415,281,1774,2051,197,-145,-289,-188
-392,214,605,82,-499,407,2026,2285,377,-1,-211,-122
-404,364,773,10,-583,563,2235,2506,623,178,-73,-20
-392,568,965,-85,-673,767,2397,2662,935,442,130,129
-374,844,1223,-235,-793,1031,2504,2770,1277,760,400,351
-350,1162,1517,-403,-931,1337,2450,2836,1673,1126,694,597
-260,1504,1763,-613,-1009,1631,2121,2794,2116,1564,1066,909
-146,1852,2003,-847,-1069,1925,1612,2638,2583,2062,1492,1263
-14,2205,2224,-1087,-1117,2212,994,2333,3027,2552,1906,1593
99,2540,2440,-1321,-1165,2487,310,1824,3453,3008,2271,1917
153,2804,2649,-1483,-1243,2733,-307,1092,3795,3338,2528,2145
153,2930,2769,-1537,-1303,2853,-763,372,4059,3554,2690,2264
195,2846,2649,-1519,-1225,2745,-1015,12,4347,3794,2828,2306
225,2630,2404,-1429,-1081,2517,-1087,-137,4497,3938,2888,2264
195,2534,2338,-1363,-1063,2440,-1243,-545,4299,3848,2846,2216
111,2594,2481,-1351,-1177,2535,-1567,-1139,3933,3626,2744,2192
57,2534,2475,-1297,-1201,2505,-1837,-1541,3555,3344,2576,2097
9,2265,2248,-1141,-1111,2260,-1927,-1787,3045,2948,2307,1899
-26,1876,1907,-919,-967,1889,-1951,-1931,2332,2319,1906,1599
-98,1366,1469,-631,-775,1415,-1909,-1901,1439,1420,1300,1167
-188,844,1031,-325,-607,941,-1753,-1733,545,412,580,651
-236,382,617,-67,-421,503,-1531,-1517,-96,-247,28,249
-224,52,281,76,-247,167,-1327,-1301,-486,-493,-217,34
-182,-91,83,136,-133,0,-1213,-1175,-726,-571,-295,-50
-152,-103,53,124,-97,-24,-1159,-1085,-696,-541,-271,-32
-128,-151,-18,136,-49,-84,-1069,-953,-540,-427,-223,-8
-116,-241,-126,178,-2,-186,-901,-821,-498,-391,-217,-20
-92,-301,-204,196,52,-252,-751,-719,-492,-391,-229,-44
-68,-337,-264,202,94,-300,-637,-623,-462,-397,-241,-56
-44,-349,-300,196,124,-324,-505,-515,-432,-391,-253,-68
-8,-349,-336,178,160,-342,-373,-389,-408,-379,-265,-86
-3,-355,-354,178,178,-354,-253,-281,-372,-385,-265,-86
-3,-343,-342,172,172,-342,-199,-233,-354,-373,-265,-86
-3,-325,-324,160,160,-324,-193,-221,-354,-355,-271,-80
-14,-283,-264,148,124,-276,-181,-221,-336,-343,-259,-68
-32,-247,-210,142,88,-228,-157,-209,-306,-301,-235,-38
-50,-235,-186,142,64,-210,-133,-215,-288,-271,-211,-26
-38,-229,-186,136,70,-210,-109,-197,-276,-265,-187,-20
-38,-235,-192,136,76,-216,-85,-179,-264,-271,-187,-20
-26,-229,-198,130,82,-216,-67,-155,-264,-271,-187,-14
-26,-235,-204,130,88,-222,-49,-131,-270,-277,-193,-14
-26,-235,-204,130,88,-222,-43,-113,-282,-289,-199,-14
-20,-241,-216,130,94,-228,-49,-113,-282,-283,-205,-14
-14,-241,-222,130,100,-234,-55,-113,-288,-289,-205,-14
-14,-241,-222,130,100,-234,-61,-119,-288,-283,-211,-14
-14,-241,-222,130,100,-234,-61,-119,-288,-283,-211,-20
-8,-235,-222,124,106,-228,-67,-113,-288,-271,-211,-26
-8,-235,-222,124,106,-228,-67,-101,-282,-259,-199,-14
-8,-229,-216,118,100,-222,-61,-101,-288,-259,-199,-20
-3,-217,-210,112,100,-216,-55,-95,-282,-253,-193,-14
-3,-217,-210,112,100,-216,-43,-83,-270,-247,-187,-14
-3,-217,-210,112,100,-216,-43,-77,-264,-247,-187,-8
-3,-211,-204,106,100,-210,-37,-65,-258,-247,-187,-8
-3,-205,-204,100,100,-204,-37,-65,-252,-247,-187,-8
-3,-205,-204,100,100,-204,-37,-65,-252,-241,-187,-2
-3,-205,-210,100,106,-204,-37,-65,-246,-229,-181,-2
3,-193,-204,88,106,-198,-37,-59,-234,-223,-169,-2
3,-193,-204,88,106,-198,-37,-59,-228,-217,-163,-2
9,-193,-210,88,112,-198,-31,-53,-222,-211,-151,4
15,-181,-198,76,112,-186,-31,-53,-216,-205,-151,10
21,-181,-204,70,118,-186,-31,-41,-216,-199,-139,22
21,-181,-204,70,118,-186,-31,-41,-210,-193,-139,28
33,-175,-210,64,124,-186,-25,-35,-198,-181,-127,28
33,-175,-210,64,124,-186,-25,-35,-198,-175,-121,28
33,-175,-210,64,124,-186,-20,-29,-186,-163,-109,40
33,-181,-216,64,130,-192,-20,-23,-180,-163,-103,40
45,-205,-258,76,154,-228,-20,-11,-162,-139,-85,58
45,-235,-288,88,172,-258,-2,-6,-138,-127,-73,76
45,-265,-318,106,184,-288,10,6,-120,-109,-61,94
51,-289,-348,112,202,-318,22,18,-96,-91,-49,105
51,-301,-360,118,208,-330,28,30,-84,-73,-37,111
51,-307,-366,124,214,-336,34,36,-72,-61,-25,117
51,-307,-366,124,214,-336,40,48,-60,-43,-13,129
57,-313,-378,124,214,-342,46,54,-48,-25,4,141
57,-313,-378,124,214,-342,46,60,-36,-19,4,147
63,-307,-378,118,220,-342,46,60,-18,-13,10,159
69,-289,-366,106,214,-324,46,60,-12,-1,16,159
75,-289,-372,100,220,-330,40,60,6,5,28,165
81,-265,-354,88,214,-306,34,66,12,11,34,171
87,-241,-336,70,214,-288,34,66,18,22,40,177
93,-217,-318,58,208,-264,28,78,30,22,52,189
93,-211,-312,52,208,-258,28,78,41,34,64,201
99,-193,-300,40,202,-246,28,84,47,52,76,213
111,-187,-300,28,208,-240,28,90,59,64,94,231
117,-175,-294,22,208,-228,34,96,83,88,112,243
123,-163,-288,10,208,-222,34,96,95,106,124,261
129,-139,-270,-2,202,-198,28,102,113,118,142,273
141,-133,-276,-14,214,-198,28,108,131,136,154,285
147,-109,-258,-26,208,-186,28,114,143,148,172,291
153,-85,-240,-26,202,-162,22,120,167,166,190,303
159,-61,-222,-43,196,-144,22,132,191,196,202,321
165,-37,-204,-55,190,-120,22,138,215,214,220,339
165,-13,-186,-67,178,-96,16,150,239,244,238,351
183,23,-168,-97,178,-72,10,162,269,262,262,375
195,35,-168,-109,184,-66,10,168,287,298,286,399
207,52,-156,-127,184,-48,10,174,323,316,310,417
213,82,-126,-145,172,-12,-2,186,353,346,328,435
225,118,-102,-169,166,18,-2,192,383,370,352,453
237,136,-96,-187,172,30,-8,204,407,400,370,465
243,166,-78,-205,166,53,-14,210,437,430,382,477
261,190,-72,-229,172,53,-20,216,461,442,406,489
261,208,-54,-235,166,71,-20,228,491,472,430,501
261,232,-30,-247,154,95,-20,228,515,502,442,525
273,256,-18,-265,154,113,-20,234,527,520,460,537
273,268,-6,-265,148,125,-20,234,551,538,478,555
273,286,12,-277,136,143,-20,234,575,556,490,561
279,304,30,-289,130,167,-25,234,581,574,508,579
285,316,36,-301,130,173,-25,240,605,592,514,585
285,322,42,-301,130,179,-37,246,617,598,532,597
285,346,53,-313,118,203,-37,246,629,610,544,603
291,358,59,-325,118,215,-37,246,641,616,544,609
291,364,65,-325,112,221,-43,246,653,628,544,609
297,376,71,-337,112,227,-49,240,659,634,544,603
297,376,71,-337,112,227,-55,246,659,634,550,591
291,376,77,-331,106,233,-49,258,677,646,556,597
285,382,89,-331,100,239,-43,258,683,646,556,591
279,388,101,-331,88,251,-31,264,689,652,556,597
273,388,107,-331,82,251,-25,270,689,652,556,591
261,364,95,-313,82,233,-20,270,683,646,550,579
249,352,95,-301,76,227,-20,276,677,628,532,573
237,346,101,-289,70,227,-14,282,653,604,514,555
231,322,89,-271,70,209,-8,282,617,580,490,519
213,292,77,-253,64,191,4,282,581,538,454,483
207,280,65,-241,70,173,16,282,545,502,418,453
183,238,53,-211,64,143,34,270,503,460,382,417
165,202,42,-181,64,119,46,264,461,424,346,399
153,172,24,-163,70,95,52,258,431,382,322,387
135,142,12,-139,64,71,64,252,389,358,298,369
117,106,-6,-109,64,53,64,234,353,328,274,345
105,76,-24,-91,70,36,76,222,311,292,244,321
99,52,-42,-73,76,12,70,210,281,256,208,279
81,41,-48,-55,64,0,70,198,233,214,172,237
69,17,-60,-37,64,-18,70,186,185,178,130,201
63,-13,-84,-26,76,-48,70,174,143,136,106,171
51,-37,-96,-14,76,-66,64,156,107,106,76,153
33,-67,-108,10,70,-84,64,132,59,70,46,135
27,-85,-120,22,76,-102,46,108,41,46,28,123
15,-103,-126,34,70,-114,46,90,18,22,4,105
3,-127,-138,52,70,-132,46,72,-12,5,-1,105
-3,-139,-144,64,70,-138,40,54,-24,-19,-13,88
-3,-157,-156,76,76,-156,34,36,-54,-37,-31,70
-3,-169,-162,82,76,-168,28,18,-78,-55,-55,58
-8,-181,-168,94,76,-174,22,6,-102,-79,-79,34
-14,-187,-174,100,76,-186,10,-6,-126,-97,-91,28
-20,-205,-186,112,76,-192,4,-11,-144,-115,-109,16
-26,-223,-192,124,82,-210,-2,-23,-162,-133,-115,16
-26,-223,-192,124,82,-210,-2,-35,-174,-139,-121,16
-32,-235,-198,136,82,-216,-8,-53,-174,-151,-121,10
-32,-241,-204,136,82,-222,-8,-65,-174,-151,-121,16
-32,-247,-210,142,88,-228,-14,-77,-174,-151,-127,10
-38,-253,-210,148,82,-234,-20,-77,-186,-157,-139,-2
-38,-259,-216,148,88,-240,-20,-83,-192,-163,-145,-14
-50,-265,-210,160,76,-240,-25,-77,-198,-169,-157,-32
-50,-265,-210,160,76,-240,-31,-83,-204,-181,-163,-38
-50,-271,-216,160,82,-246,-37,-89,-210,-187,-169,-38
-50,-277,-222,166,82,-252,-37,-95,-222,-193,-169,-38
-50,-277,-222,166,82,-252,-43,-101,-228,-193,-169,-38
-56,-277,-216,166,76,-246,-43,-107,-228,-193,-175,-38
-50,-277,-222,166,82,-252,-43,-107,-222,-193,-169,-38
-50,-283,-228,166,88,-258,-49,-107,-222,-193,-169,-38
-44,-289,-240,166,94,-264,-49,-101,-216,-193,-163,-32
-44,-289,-240,166,94,-264,-49,-101,-216,-193,-163,-32
-50,-289,-234,172,88,-264,-49,-101,-216,-199,-175,-38
-50,-289,-234,172,88,-264,-49,-101,-216,-199,-175,-38
-62,-289,-222,178,76,-258,-49,-101,-216,-199,-181,-44
-62,-289,-222,178,76,-258,-49,-101,-216,-199,-181,-44
-62,-289,-222,178,76,-258,-49,-107,-222,-199,-187,-44
-62,-289,-222,178,76,-258,-49,-107,-222,-199,-187,-44
-62,-289,-222,178,76,-258,-49,-113,-222,-199,-187,-44
-62,-289,-222,178,76,-258,-49,-113,-216,-199,-187,-44
-62,-295,-228,178,82,-264,-49,-113,-216,-199,-187,-44
-68,-295,-222,184,76,-258,-49,-113,-216,-205,-187,-50
-68,-301,-228,184,76,-264,-49,-113,-216,-205,-187,-50
-68,-295,-222,184,76,-258,-49,-113,-216,-205,-193,-50
-62,-289,-222,178,76,-258,-43,-107,-210,-205,-187,-50
-62,-289,-222,178,76,-258,-43,-107,-210,-205,-187,-50
-56,-283,-222,172,82,-252,-37,-101,-204,-205,-181,-50
-56,-289,-228,172,82,-258,-37,-101,-204,-205,-181,-50
-62,-283,-216,172,76,-252,-37,-101,-204,-205,-181,-50
-62,-283,-216,172,76,-252,-37,-95,-204,-205,-181,-50
-68,-277,-204,172,64,-240,-43,-95,-204,-205,-187,-50
-68,-277,-204,172,64,-240,-43,-95,-204,-205,-187,-50
-68,-277,-204,172,64,-240,-43,-89,-204,-199,-181,-50
-68,-271,-198,172,64,-234,-43,-89,-204,-199,-181,-44
-68,-271,-198,172,64,-234,-43,-89,-198,-193,-175,-44
-68,-271,-198,172,64,-234,-37,-83,-198,-193,-175,-44
-68,-265,-192,166,58,-228,-37,-89,-198,-193,-181,-50
-68,-265,-192,166,58,-228,-37,-83,-198,-187,-181,-50
-68,-259,-186,166,58,-222,-37,-89,-198,-187,-187,-56
-62,-253,-186,160,58,-222,-37,-77,-198,-193,-181,-56
-62,-247,-186,154,58,-216,-37,-77,-204,-199,-181,-62
-62,-241,-180,154,52,-210,-37,-77,-204,-199,-181,-62
-62,-235,-174,148,52,-204,-37,-77,-210,-199,-181,-68
-56,-223,-168,142,52,-192,-37,-71,-216,-199,-181,-62
-56,-223,-168,142,52,-192,-37,-65,-204,-199,-175,-62
-56,-223,-168,142,52,-192,-37,-65,-204,-199,-175,-62
-56,-217,-162,136,46,-186,-37,-65,-198,-199,-175,-62
-56,-217,-162,136,46,-186,-37,-59,-198,-193,-169,-62
-50,-217,-168,136,52,-192,-37,-59,-198,-187,-175,-62
-50,-217,-168,136,52,-192,-37,-53,-198,-187,-175,-62
-38,-217,-180,130,64,-198,-43,-53,-198,-181,-181,-62
-38,-217,-180,130,64,-198,-43,-53,-198,-181,-175,-62
-38,-211,-174,124,64,-192,-43,-59,-198,-187,-175,-68
-38,-205,-168,124,58,-186,-43,-53,-198,-187,-175,-62
-38,-199,-162,118,58,-186,-43,-59,-198,-193,-175,-68
-38,-199,-162,118,58,-186,-43,-53,-198,-187,-175,-68
-38,-205,-168,124,58,-186,-37,-47,-198,-181,-169,-62
-38,-205,-168,124,58,-186,-37,-47,-198,-181,-169,-62
-44,-211,-168,130,58,-186,-31,-41,-192,-175,-169,-56
-44,-205,-162,124,52,-186,-31,-41,-192,-175,-169,-56
-44,-205,-162,124,52,-186,-31,-47,-192,-175,-169,-56
-44,-205,-162,124,52,-186,-31,-47,-192,-175,-169,-56
-38,-205,-168,124,58,-186,-31,-53,-192,-175,-169,-56
-38,-205,-168,124,58,-186,-31,-53,-192,-175,-169,-56
-38,-205,-168,124,58,-186,-37,-53,-192,-175,-169,-56
-38,-205,-168,124,58,-186,-37,-53,-192,-175,-169,-56
-38,-205,-168,124,58,-186,-43,-65,-192,-181,-169,-56
-38,-205,-168,124,58,-186,-43,-65,-192,-181,-175,-56
-38,-205,-168,124,58,-186,-43,-65,-198,-181,-175,-62
-38,-205,-168,124,58,-186,-43,-65,-198,-181,-175,-62
-38,-199,-162,118,58,-186,-49,-65,-198,-181,-175,-68
-38,-199,-162,118,58,-186,-49,-71,-198,-181,-175,-68
-38,-205,-168,124,58,-186,-49,-71,-198,-181,-169,-62
-38,-205,-168,124,58,-186,-49,-71,-198,-187,-169,-62
-38,-211,-174,124,64,-192,-49,-71,-198,-187,-163,-56
-38,-211,-174,124,64,-192,-49,-71,-198,-187,-163,-56
-32,-205,-174,118,64,-186,-55,-77,-210,-187,-175,-68
-32,-205,-174,118,64,-186,-55,-77,-216,-187,-175,-68
-26,-205,-180,118,70,-192,-61,-71,-216,-187,-181,-74
-26,-205,-180,118,70,-192,-61,-77,-216,-187,-181,-74
-32,-205,-174,118,64,-186,-61,-77,-216,-187,-181,-80
-32,-217,-186,124,70,-198,-61,-77,-216,-187,-181,-80
-38,-217,-180,130,64,-198,-55,-83,-216,-187,-175,-80
-38,-211,-174,124,64,-192,-55,-83,-222,-187,-175,-80
-38,-217,-180,130,64,-198,-55,-83,-216,-187,-181,-80
-38,-217,-180,130,64,-198,-55,-83,-216,-193,-181,-80
-38,-223,-186,130,70,-204,-61,-89,-222,-193,-187,-80
-38,-223,-186,130,70,-204,-61,-89,-222,-193,-187,-80
-38,-223,-186,130,70,-204,-61,-89,-228,-199,-181,-80
-38,-223,-186,130,70,-204,-61,-95,-228,-199,-187,-80
-38,-217,-180,130,64,-198,-61,-95,-240,-199,-181,-86
-38,-217,-180,130,64,-198,-61,-101,-240,-199,-181,-86
-38,-223,-186,130,70,-204,-61,-101,-234,-193,-181,-86
-38,-223,-186,130,70,-204,-61,-107,-234,-193,-181,-86
-38,-229,-186,136,70,-210,-67,-107,-228,-193,-181,-86
-38,-235,-192,136,76,-216,-67,-107,-234,-193,-181,-86
-38,-235,-192,136,76,-216,-67,-107,-240,-193,-187,-92
-38,-235,-192,136,76,-216,-73,-113,-240,-193,-187,-92
-38,-235,-192,136,76,-216,-73,-113,-240,-193,-193,-104
-38,-235,-192,136,76,-216,-73,-113,-240,-193,-193,-104
-38,-229,-186,136,70,-210,-73,-119,-246,-193,-193,-98
-38,-229,-186,136,70,-210,-73,-119,-246,-193,-193,-98
-38,-235,-192,136,76,-216,-67,-119,-252,-193,-193,-92
-38,-241,-198,142,76,-222,-67,-119,-252,-193,-193,-92
-44,-247,-198,148,76,-222,-67,-125,-252,-193,-199,-92
-44,-241,-192,142,70,-216,-67,-125,-252,-193,-199,-92
-50,-247,-192,148,70,-222,-73,-131,-246,-193,-199,-92
-50,-247,-192,148,70,-222,-73,-131,-246,-193,-193,-92
-44,-253,-204,148,76,-228,-73,-125,-246,-193,-193,-98
-44,-253,-204,148,76,-228,-73,-125,-246,-193,-193,-98
-38,-259,-216,148,88,-240,-79,-125,-246,-193,-193,-104
-38,-259,-216,148,88,-240,-79,-125,-246,-193,-193,-104
-38,-253,-210,148,82,-234,-79,-125,-258,-205,-193,-92
-38,-259,-216,148,88,-240,-73,-125,-258,-205,-193,-92
-32,-265,-228,148,94,-246,-79,-125,-258,-193,-193,-104
-32,-259,-222,148,94,-240,-85,-131,-258,-199,-193,-104
-38,-253,-210,148,82,-234,-85,-131,-258,-199,-193,-110
-38,-253,-210,148,82,-234,-85,-131,-258,-199,-193,-110
-44,-247,-198,148,76,-222,-85,-131,-258,-199,-193,-116
-44,-247,-198,148,76,-222,-85,-131,-258,-199,-193,-116
-38,-253,-210,148,82,-234,-79,-131,-258,-199,-199,-116
-38,-253,-210,148,82,-234,-79,-131,-258,-199,-199,-116
-32,-259,-222,148,94,-240,-73,-131,-258,-199,-205,-116
-32,-259,-222,148,94,-240,-61,-131,-258,-199,-205,-110
-38,-241,-198,142,76,-222,-61,-125,-258,-199,-205,-116
-38,-241,-198,142,76,-222,-61,-119,-252,-199,-199,-116
-44,-229,-186,136,64,-204,-61,-119,-252,-193,-199,-116
-32,-223,-186,130,76,-204,-55,-119,-240,-187,-193,-110
-26,-211,-186,118,76,-198,-43,-113,-234,-181,-181,-98
-32,-193,-162,112,58,-180,-20,-95,-222,-175,-169,-92
-26,-187,-162,106,64,-180,-8,-89,-210,-163,-157,-92
-20,-181,-156,100,64,-168,-2,-83,-198,-157,-151,-92
-20,-175,-150,94,58,-162,4,-77,-198,-151,-151,-86
-20,-175,-150,94,58,-162,10,-77,-198,-145,-151,-86
-20,-169,-144,94,58,-156,16,-77,-198,-139,-157,-68
-20,-163,-138,88,52,-150,16,-77,-198,-139,-157,-62
-26,-163,-132,94,46,-150,10,-77,-198,-139,-157,-68
-26,-157,-126,88,46,-144,10,-77,-198,-139,-157,-74
-32,-157,-120,94,40,-138,4,-83,-198,-139,-157,-80
-32,-151,-114,88,34,-132,4,-95,-198,-139,-151,-80
-38,-139,-96,88,22,-120,10,-101,-198,-145,-151,-80
-38,-121,-78,76,16,-102,10,-101,-198,-145,-151,-80
-38,-109,-66,70,10,-90,16,-107,-180,-139,-145,-74
-20,-73,-48,46,10,-60,16,-95,-162,-127,-133,-62
-8,-43,-30,22,4,-36,10,-89,-150,-115,-115,-44
-3,-37,-30,16,10,-36,-20,-95,-150,-103,-109,-32
-3,-25,-30,4,16,-24,-31,-89,-150,-97,-97,-32
9,-13,-30,-8,22,-18,-43,-89,-156,-97,-91,-32
21,-25,-54,-8,40,-36,-49,-89,-162,-97,-97,-32
21,-31,-60,-2,40,-42,-49,-95,-162,-97,-103,-32
21,-37,-66,-2,46,-48,-61,-95,-168,-103,-109,-32
27,-43,-78,-2,52,-60,-67,-95,-168,-103,-109,-32
27,-49,-84,4,58,-66,-73,-101,-174,-103,-103,-32
27,-67,-102,10,64,-84,-73,-101,-180,-115,-115,-44
21,-79,-108,22,64,-90,-61,-101,-180,-115,-115,-50
21,-85,-114,22,70,-96,-61,-101,-180,-115,-115,-50
21,-97,-126,28,76,-108,-67,-107,-180,-115,-115,-50
21,-103,-132,34,76,-114,-79,-107,-192,-127,-121,-56
21,-115,-144,40,82,-126,-85,-119,-198,-127,-121,-62
39,-133,-180,40,112,-156,-91,-119,-198,-127,-121,-62
33,-139,-180,46,106,-156,-97,-125,-204,-127,-121,-68
27,-151,-186,52,106,-168,-103,-131,-210,-139,-133,-80
21,-175,-198,70,112,-186,-109,-137,-222,-145,-139,-92
9,-187,-204,82,112,-192,-121,-143,-234,-151,-145,-98
3,-193,-204,88,106,-198,-121,-149,-234,-157,-145,-92
3,-205,-216,94,112,-210,-121,-149,-234,-157,-151,-104
-3,-223,-216,112,106,-222,-109,-155,-234,-163,-157,-104
-20,-235,-210,130,94,-222,-103,-155,-240,-175,-163,-110
-38,-253,-210,148,82,-234,-85,-155,-246,-181,-175,-122
-56,-265,-204,160,70,-234,-85,-149,-252,-193,-193,-134
-62,-295,-228,178,82,-264,-79,-155,-264,-205,-205,-140
-74,-301,-222,190,70,-264,-79,-149,-276,-217,-217,-140
-74,-313,-234,196,76,-276,-85,-161,-288,-217,-217,-152
-74,-319,-240,196,82,-282,-97,-173,-300,-217,-223,-164
-74,-325,-246,202,82,-288,-109,-191,-318,-223,-229,-170
-74,-331,-252,202,88,-294,-115,-191,-318,-229,-229,-170
-74,-331,-252,202,88,-294,-115,-197,-312,-229,-229,-164
-74,-331,-252,202,88,-294,-121,-197,-312,-235,-229,-170
-68,-325,-252,196,88,-288,-121,-197,-306,-235,-229,-164
-68,-325,-252,196,88,-288,-115,-197,-306,-235,-229,-164
-56,-313,-252,184,94,-282,-103,-197,-312,-223,-217,-164
-68,-313,-240,190,82,-276,-103,-185,-306,-229,-217,-164
-68,-319,-246,196,88,-282,-85,-179,-300,-217,-223,-164
-68,-301,-228,184,76,-264,-91,-161,-288,-211,-223,-164
-74,-289,-210,184,64,-252,-79,-137,-258,-199,-211,-170
-92,-277,-186,184,40,-228,-61,-107,-228,-181,-205,-158
-110,-277,-168,196,22,-222,-37,-65,-192,-157,-187,-152
-122,-253,-132,190,-2,-192,-20,-29,-168,-127,-181,-152
-140,-241,-102,190,-26,-174,10,-6,-144,-121,-175,-152
-158,-211,-54,184,-43,-138,34,18,-120,-103,-169,-158
-164,-193,-30,178,-61,-114,76,42,-90,-79,-157,-152
-188,-169,24,178,-97,-72,100,66,-66,-49,-145,-146
-200,-145,53,172,-121,-42,124,90,-36,-31,-133,-140
-218,-133,77,172,-145,-24,136,120,-12,-13,-133,-140
-218,-115,95,166,-157,-6,160,156,24,5,-115,-122
-230,-103,119,166,-175,12,184,180,41,22,-103,-116
-242,-91,143,166,-193,30,196,204,41,22,-103,-128
-242,-79,155,160,-199,42,238,252,47,22,-103,-128
-248,-91,155,172,-205,36,322,372,59,22,-103,-140
-248,-91,155,172,-205,36,436,534,77,22,-121,-176
-242,-91,149,166,-199,36,586,762,107,22,-151,-224
-260,-115,143,190,-205,18,796,1044,131,5,-181,-266
-296,-115,179,208,-241,36,1030,1344,143,-37,-235,-326
-326,-91,233,208,-277,65,1270,1632,179,-61,-283,-374
-338,-31,299,184,-319,131,1516,1896,257,-25,-271,-362
-350,29,371,160,-361,197,1738,2135,383,46,-223,-320
-368,106,479,124,-421,293,1966,2357,563,178,-151,-260
-380,262,641,52,-511,449,2199,2554,785,340,-37,-158
-380,478,857,-43,-613,665,2373,2662,1073,580,142,-26
-374,754,1127,-187,-751,941,2480,2722,1409,892,400,165
-362,1066,1433,-349,-895,1253,2534,2764,1763,1234,682,399
-296,1420,1721,-553,-1003,1565,2355,2686,2176,1648,1030,675
-218,1768,1991,-769,-1099,1877,1906,2518,2643,2145,1450,1005
-98,2121,2224,-1003,-1159,2170,1312,2225,3063,2624,1846,1335
-3,2439,2440,-1219,-1219,2440,652,1776,3417,3020,2181,1635
45,2702,2649,-1375,-1291,2679,-2,1188,3699,3314,2438,1851
93,2834,2733,-1465,-1315,2787,-487,582,3951,3554,2600,2007
159,2822,2661,-1489,-1243,2739,-757,96,4185,3770,2744,2085
165,2630,2464,-1399,-1141,2547,-829,-233,4263,3896,2828,2073
135,2486,2350,-1309,-1099,2422,-919,-557,4065,3824,2810,2043
99,2522,2422,-1309,-1153,2475,-1219,-995,3699,3614,2708,2007
57,2522,2464,-1291,-1195,2493,-1555,-1379,3285,3320,2552,1923
-3,2325,2320,-1165,-1153,2326,-1735,-1649,2739,2912,2319,1761
-50,1972,2021,-955,-1033,1997,-1771,-1823,2015,2295,1930,1485
-110,1462,1571,-673,-835,1517,-1699,-1781,1229,1444,1336,1077
-188,880,1067,-343,-625,977,-1591,-1607,503,508,628,585
-236,442,677,-97,-451,557,-1465,-1463,-84,-121,88,189
-224,124,347,40,-277,239,-1315,-1313,-486,-391,-157,-26
-206,-103,95,154,-151,0,-1153,-1139,-738,-499,-259,-122
-176,-175,6,172,-85,-84,-1051,-1001,-744,-481,-259,-134
-128,-163,-30,142,-43,-96,-1033,-905,-588,-367,-199,-104
-104,-205,-102,154,-8,-156,-937,-785,-510,-295,-181,-104
-80,-301,-216,190,64,-258,-775,-671,-492,-295,-181,-128
-56,-361,-300,208,118,-330,-649,-575,-450,-289,-187,-146
-32,-397,-360,214,160,-378,-553,-515,-432,-283,-199,-146
-20,-421,-396,214,184,-408,-457,-437,-408,-283,-223,-152
-8,-427,-414,214,202,-420,-319,-329,-372,-277,-223,-164
-3,-415,-414,208,208,-414,-223,-245,-342,-253,-223,-164
-3,-421,-420,208,208,-420,-169,-197,-318,-247,-217,-158
-14,-391,-372,202,178,-384,-157,-197,-312,-235,-217,-158
-20,-355,-330,190,154,-342,-133,-197,-294,-211,-187,-140
-14,-307,-288,160,136,-300,-121,-191,-264,-181,-163,-134
-26,-277,-246,154,106,-264,-109,-185,-240,-151,-139,-104
-26,-283,-252,154,112,-270,-85,-173,-228,-151,-133,-104
-14,-277,-258,148,118,-270,-67,-149,-222,-151,-133,-98
-14,-283,-264,148,124,-276,-49,-131,-228,-151,-133,-98
-14,-283,-264,148,124,-276,-43,-113,-234,-163,-139,-98
-8,-283,-270,148,130,-276,-43,-107,-228,-157,-139,-92
-3,-283,-276,142,136,-282,-49,-107,-234,-163,-139,-92
-3,-277,-270,142,130,-276,-49,-107,-228,-157,-139,-86
-3,-277,-270,142,130,-276,-49,-107,-228,-157,-139,-92
-3,-277,-276,136,136,-276,-49,-95,-216,-139,-139,-92
-3,-277,-276,136,136,-276,-49,-83,-210,-127,-127,-80
-3,-277,-276,136,136,-276,-37,-77,-204,-121,-127,-80
-3,-265,-270,130,136,-264,-31,-71,-198,-115,-121,-74
-3,-265,-270,130,136,-264,-25,-65,-192,-103,-109,-74
-3,-265,-270,130,136,-264,-25,-59,-186,-103,-103,-68
-3,-259,-264,124,136,-258,-25,-53,-180,-97,-97,-68
3,-253,-264,118,136,-258,-25,-53,-174,-97,-91,-68
3,-253,-264,118,136,-258,-20,-53,-174,-91,-97,-62
9,-253,-270,118,142,-258,-20,-53,-168,-79,-91,-62
15,-241,-264,106,142,-252,-20,-47,-156,-73,-85,-62
15,-241,-264,106,142,-252,-20,-47,-150,-61,-79,-62
21,-241,-270,106,148,-252,-20,-41,-138,-55,-73,-50
27,-223,-258,94,148,-240,-20,-41,-132,-49,-73,-44
33,-223,-264,88,154,-240,-20,-29,-126,-43,-67,-26
33,-223,-264,88,154,-240,-20,-29,-120,-37,-67,-20
39,-211,-258,82,154,-234,-20,-35,-114,-31,-55,-20
39,-205,-252,76,148,-228,-20,-35,-108,-25,-49,-20
33,-199,-240,76,142,-216,-20,-41,-102,-19,-37,-8
33,-199,-240,76,142,-216,-20,-35,-96,-19,-31,-8
45,-187,-240,64,148,-210,-25,-41,-90,-7,-25,-2
45,-187,-240,64,148,-210,-20,-41,-78,-1,-19,4
45,-181,-228,58,142,-198,-25,-41,-72,5,-19,10
51,-175,-228,52,142,-198,-25,-41,-60,17,-13,16
57,-181,-240,52,154,-204,-25,-29,-54,22,-1,22
57,-175,-234,52,148,-198,-25,-29,-42,22,4,28
63,-169,-234,46,154,-198,-25,-17,-36,34,4,34
69,-163,-234,40,154,-192,-25,-17,-24,46,22,46
75,-157,-234,34,160,-192,-31,-17,-18,52,22,52
81,-151,-234,28,160,-186,-31,-17,0,58,34,58
93,-127,-222,10,160,-174,-37,-23,0,70,40,58
99,-127,-228,4,166,-180,-43,-23,18,76,52,58
99,-121,-222,4,166,-174,-43,-17,30,88,58,70
105,-103,-210,-8,160,-156,-43,-17,36,100,64,76
105,-97,-204,-14,160,-150,-43,-6,41,112,76,94
105,-97,-204,-14,160,-150,-43,-6,53,130,88,105
117,-79,-198,-26,160,-138,-49,-6,71,148,106,105
129,-67,-198,-26,166,-132,-49,-6,89,160,130,117
141,-55,-198,-37,172,-126,-49,0,113,184,154,123
147,-43,-192,-43,172,-120,-49,0,131,202,172,141
153,-19,-180,-61,166,-96,-61,0,155,220,184,159
165,-13,-186,-67,178,-96,-61,6,173,238,196,171
171,11,-168,-85,172,-78,-67,6,191,256,208,183
177,35,-150,-97,166,-54,-73,12,215,268,226,195
189,47,-150,-109,172,-48,-67,24,245,304,244,213
195,52,-138,-121,172,-36,-67,36,275,322,262,231
201,64,-132,-133,172,-24,-67,48,299,358,292,249
219,94,-120,-157,172,-6,-73,66,335,382,322,273
