,,,,,,,,,,,
2019-09-04 23:54:11,,,,,,,,,,,
,,,,,,,,,,,
I,II,III,aVR,aVL,aVF,V1,V2,V3,V4,V5,V6
-58,-86,-28,70,-17,-57,-134,-114,-489,141,16,-101
-58,-86,-28,70,-17,-57,-140,-114,-495,135,16,-101
-58,-98,-40,76,-11,-69,-146,-108,-489,141,22,-101
-58,-98,-40,76,-11,-69,-146,-102,-489,141,28,-101
-64,-104,-40,76,-17,-75,-152,-102,-489,147,34,-95
-58,-98,-40,76,-11,-69,-152,-96,-483,153,34,-89
-52,-74,-22,58,-17,-51,-158,-90,-471,153,40,-77
-47,-68,-22,52,-17,-45,-158,-84,-459,165,45,-71
-47,-68,-22,52,-17,-45,-152,-72,-453,165,45,-65
-36,-74,-40,52,1,-57,-146,-60,-441,177,45,-59
-30,-86,-58,58,13,-69,-140,-42,-429,183,50,-59
-24,-98,-76,58,25,-87,-134,-18,-411,195,56,-53
-18,-110,-94,64,37,-99,-128,4,-387,207,68,-41
-6,-104,-100,52,43,-99,-122,34,-369,231,86,-23
6,-110,-118,52,61,-111,-122,64,-339,237,104,-11
30,-140,-172,52,97,-153,-116,112,-303,255,122,1
54,-164,-220,52,133,-189,-110,160,-267,279,146,18
96,-194,-292,47,193,-243,-98,238,-219,309,170,41
144,-248,-394,47,265,-321,-74,346,-165,333,194,59
198,-290,-490,47,343,-387,-38,466,-111,351,212,71
252,-326,-580,36,415,-453,-10,616,-33,387,242,95
318,-356,-676,18,493,-513,32,778,75,447,296,137
372,-356,-730,-12,547,-543,74,946,217,549,386,209
432,-326,-760,-54,595,-543,128,1126,397,693,506,305
486,-296,-784,-96,631,-537,176,1336,625,873,662,419
546,-242,-790,-150,667,-513,248,1612,925,1113,866,575
612,-152,-766,-234,685,-459,302,1900,1267,1395,1100,755
666,-74,-742,-294,703,-405,350,2206,1657,1707,1352,935
708,8,-700,-360,703,-345,410,2475,2047,2043,1592,1109
744,104,-640,-426,691,-267,452,2607,2389,2337,1808,1265
768,212,-556,-492,661,-171,452,2583,2646,2588,1994,1397
780,308,-472,-546,625,-81,404,2475,2856,2798,2138,1505
774,362,-412,-564,595,-23,362,2362,3054,2996,2270,1589
714,428,-286,-570,499,73,368,2278,3264,3182,2366,1631
618,470,-148,-540,385,163,398,2176,3420,3326,2414,1631
492,494,0,-492,247,247,416,2002,3456,3380,2396,1589
360,470,108,-414,127,289,410,1720,3276,3260,2270,1475
234,374,138,-300,49,259,368,1384,2910,2972,2042,1301
120,218,96,-168,13,157,290,988,2305,2486,1688,1043
18,26,6,-18,7,19,182,568,1501,1851,1232,731
-52,-146,-94,94,19,-123,74,238,769,1239,800,431
-100,-290,-190,190,43,-243,-16,28,271,789,470,191
-124,-392,-268,250,67,-333,-92,-108,-63,477,230,18
-142,-464,-322,298,85,-393,-158,-204,-291,249,62,-107
-142,-506,-364,322,109,-435,-206,-270,-453,105,-44,-185
-142,-518,-376,328,115,-447,-242,-306,-549,17,-110,-227
-136,-530,-394,328,127,-465,-266,-318,-603,-37,-146,-251
-118,-524,-406,316,139,-465,-296,-336,-645,-79,-170,-269
-112,-488,-376,292,127,-435,-308,-330,-663,-91,-182,-269
-106,-452,-346,274,115,-399,-302,-318,-675,-103,-176,-263
-94,-410,-316,250,109,-363,-284,-300,-675,-103,-170,-251
-88,-356,-268,214,85,-315,-272,-276,-687,-103,-170,-245
-94,-308,-214,196,55,-261,-260,-258,-687,-109,-170,-233
-94,-278,-184,184,43,-231,-254,-252,-687,-115,-170,-227
-94,-272,-178,178,37,-225,-248,-246,-693,-121,-170,-221
-100,-266,-166,178,31,-219,-248,-246,-693,-133,-170,-221
-100,-254,-154,172,25,-207,-242,-246,-699,-139,-176,-215
-100,-242,-142,166,19,-195,-242,-246,-699,-139,-176,-209
-94,-230,-136,160,19,-183,-236,-240,-705,-139,-170,-203
-94,-218,-124,154,13,-171,-224,-240,-705,-145,-164,-197
-100,-212,-112,148,1,-165,-224,-234,-711,-145,-158,-191
-106,-206,-100,154,-5,-153,-218,-228,-711,-151,-158,-191
-112,-206,-94,154,-11,-153,-224,-234,-717,-157,-164,-197
-112,-206,-94,154,-11,-153,-218,-228,-717,-157,-164,-191
-100,-194,-94,142,-5,-147,-218,-228,-717,-163,-164,-191
-94,-188,-94,136,-5,-141,-224,-228,-717,-169,-164,-185
-94,-188,-94,136,-5,-141,-218,-228,-711,-169,-158,-179
-88,-182,-94,130,1,-141,-212,-228,-711,-169,-152,-185
-94,-182,-88,136,-5,-135,-212,-228,-711,-169,-152,-185
-82,-176,-94,124,1,-135,-212,-228,-717,-175,-152,-185
-76,-170,-94,118,7,-135,-218,-228,-717,-181,-146,-191
-76,-158,-82,112,1,-123,-212,-222,-711,-175,-140,-185
-70,-152,-82,106,1,-117,-212,-210,-711,-169,-134,-179
-58,-134,-76,94,7,-105,-212,-210,-717,-169,-134,-179
-58,-122,-64,88,1,-93,-212,-210,-717,-169,-140,-179
-76,-128,-52,94,-17,-93,-206,-216,-717,-175,-146,-179
-88,-140,-52,106,-22,-99,-194,-216,-705,-175,-146,-173
-88,-152,-64,112,-17,-111,-188,-216,-705,-181,-146,-173
-82,-146,-64,112,-11,-105,-194,-222,-717,-193,-152,-179
-82,-146,-64,112,-11,-105,-194,-216,-717,-193,-152,-179
-82,-140,-58,106,-17,-99,-188,-204,-711,-187,-146,-173
-76,-128,-52,94,-17,-93,-188,-210,-711,-187,-146,-173
-82,-122,-40,100,-22,-81,-188,-204,-711,-181,-140,-173
-76,-122,-46,94,-17,-87,-182,-198,-705,-175,-134,-173
-82,-134,-52,106,-17,-93,-182,-198,-699,-181,-134,-173
-76,-122,-46,94,-17,-87,-182,-198,-699,-181,-134,-167
-76,-128,-52,94,-17,-93,-176,-192,-699,-175,-134,-167
-70,-122,-52,94,-11,-87,-170,-186,-687,-175,-128,-161
-64,-122,-58,88,-5,-93,-164,-186,-687,-169,-122,-161
-64,-122,-58,88,-5,-93,-164,-180,-693,-163,-122,-161
-64,-116,-52,82,-11,-87,-164,-180,-693,-157,-122,-161
-64,-110,-46,82,-11,-81,-164,-180,-699,-157,-122,-161
-64,-110,-46,82,-11,-81,-158,-174,-705,-163,-122,-155
-70,-110,-40,88,-17,-75,-158,-174,-705,-157,-116,-155
-76,-110,-34,88,-22,-75,-164,-180,-711,-169,-122,-155
-82,-110,-28,94,-27,-69,-158,-180,-711,-175,-116,-155
-76,-98,-22,82,-27,-63,-158,-180,-717,-169,-116,-155
-64,-80,-16,64,-27,-51,-152,-174,-705,-175,-116,-149
-64,-80,-16,64,-27,-51,-152,-174,-705,-169,-110,-149
-64,-92,-28,70,-22,-63,-146,-168,-699,-163,-110,-149
-64,-104,-40,76,-17,-75,-152,-168,-705,-163,-110,-143
-64,-86,-22,70,-22,-57,-158,-168,-705,-157,-116,-149
-52,-80,-28,58,-17,-57,-158,-162,-711,-163,-116,-149
-58,-80,-22,64,-22,-51,-158,-162,-717,-163,-122,-155
-70,-80,-10,70,-33,-45,-158,-162,-717,-163,-122,-155
-76,-74,0,70,-39,-39,-152,-162,-717,-163,-122,-149
-70,-68,0,64,-39,-33,-152,-162,-723,-163,-116,-149
-82,-68,12,70,-51,-28,-146,-162,-717,-163,-116,-149
-88,-74,12,76,-51,-33,-146,-162,-723,-163,-122,-155
-88,-68,18,70,-57,-28,-146,-162,-729,-163,-122,-161
-82,-68,12,70,-51,-28,-146,-162,-729,-163,-122,-161
-82,-68,12,70,-51,-28,-146,-150,-723,-163,-122,-155
-82,-68,12,70,-51,-28,-140,-144,-717,-163,-116,-155
-82,-62,18,70,-51,-23,-140,-144,-717,-163,-116,-155
-82,-51,30,64,-57,-11,-140,-150,-723,-169,-116,-155
-94,-51,42,70,-69,-5,-140,-156,-729,-181,-116,-155
-94,-51,42,70,-69,-5,-140,-156,-735,-181,-110,-149
-100,-56,42,70,-75,-11,-134,-150,-729,-175,-104,-143
-100,-56,42,70,-75,-11,-128,-150,-723,-175,-98,-137
-100,-46,54,70,-75,1,-134,-150,-729,-169,-104,-137
-106,-46,60,76,-81,7,-140,-144,-723,-175,-110,-137
-100,-51,48,70,-75,-5,-140,-138,-717,-175,-110,-137
-94,-56,36,70,-69,-11,-128,-132,-705,-163,-98,-131
-94,-51,42,70,-69,-5,-128,-132,-705,-169,-98,-137
-100,-46,54,70,-75,1,-134,-144,-717,-175,-104,-149
-106,-34,72,70,-87,19,-140,-144,-717,-181,-104,-155
-106,-34,72,70,-87,19,-140,-138,-717,-181,-98,-155
-106,-22,84,64,-93,31,-140,-132,-711,-181,-98,-149
-100,-22,78,58,-87,25,-134,-126,-705,-181,-98,-143
-100,-16,84,52,-93,31,-128,-108,-687,-169,-92,-131
-112,-4,108,52,-111,49,-122,-102,-669,-157,-86,-119
-118,-4,114,58,-117,55,-116,-90,-657,-151,-80,-113
-112,2,114,52,-111,55,-104,-78,-633,-139,-74,-101
-112,2,114,52,-111,55,-92,-66,-621,-133,-68,-101
-106,8,114,47,-111,61,-92,-54,-609,-121,-62,-95
-94,32,126,30,-111,79,-98,-48,-597,-121,-56,-95
-94,44,138,24,-117,91,-104,-36,-579,-121,-44,-89
-100,56,156,18,-129,103,-98,-18,-567,-115,-38,-83
-94,62,156,18,-123,109,-92,-13,-549,-109,-26,-71
-88,68,156,6,-123,109,-80,4,-525,-91,-14,-65
-88,74,162,6,-123,115,-74,16,-513,-85,-8,-59
-94,62,156,18,-123,109,-74,34,-489,-73,-2,-53
-88,62,150,12,-117,103,-68,52,-471,-61,10,-53
-76,68,144,0,-111,103,-62,70,-453,-49,16,-47
-76,86,162,-6,-117,121,-62,88,-435,-31,22,-35
-76,92,168,-12,-123,127,-56,106,-411,-25,34,-29
-64,110,174,-24,-117,139,-44,130,-387,-7,45,-17
-52,128,180,-42,-117,151,-38,148,-369,5,56,1
-47,140,186,-48,-117,163,-32,166,-339,17,68,13
-36,140,174,-54,-105,157,-26,190,-315,35,92,18
-30,146,174,-54,-99,163,-26,202,-291,47,104,29
-30,146,174,-54,-99,163,-26,220,-267,63,122,35
-24,152,174,-66,-99,163,-21,226,-249,69,128,35
-24,158,180,-66,-99,169,-16,238,-243,75,128,41
-18,158,174,-66,-93,169,-16,250,-225,81,128,47
-6,158,162,-72,-81,163,-10,262,-219,87,128,53
18,170,150,-90,-63,163,-4,274,-207,105,146,71
18,158,138,-84,-57,151,2,274,-201,105,152,77
0,158,156,-78,-75,157,2,274,-195,117,158,83
0,170,168,-84,-81,169,2,280,-183,123,170,95
0,176,174,-90,-87,175,-4,280,-177,129,176,95
6,182,174,-90,-81,181,-10,286,-165,135,176,89
24,188,162,-108,-69,175,-10,292,-159,141,182,89
36,176,138,-108,-51,157,-10,298,-141,147,188,95
36,170,132,-102,-45,151,2,304,-135,153,188,101
30,164,132,-96,-51,151,2,310,-135,159,194,101
36,158,120,-96,-39,139,2,304,-129,159,194,101
36,158,120,-96,-39,139,2,304,-129,165,194,107
36,152,114,-96,-39,133,2,310,-117,171,194,113
42,152,108,-96,-33,133,2,304,-117,177,194,119
36,152,114,-96,-39,133,-4,304,-105,177,194,119
48,158,108,-102,-27,133,-4,304,-99,183,200,125
60,164,102,-114,-22,133,2,304,-93,195,206,131
60,164,102,-114,-22,133,-4,304,-81,201,206,137
60,158,96,-108,-17,127,-4,298,-81,201,206,131
66,158,90,-108,-11,127,8,298,-75,201,212,131
66,158,90,-108,-11,127,14,298,-75,201,212,131
72,158,84,-114,-5,121,20,298,-75,207,218,131
84,152,66,-120,7,109,14,304,-75,213,218,125
84,140,54,-114,13,97,8,304,-75,207,218,125
72,122,48,-96,13,85,2,298,-75,207,212,125
78,116,36,-96,19,79,-4,286,-81,207,200,119
78,116,36,-96,19,79,-10,274,-87,195,188,113
78,116,36,-96,19,79,-10,268,-93,195,182,107
78,110,30,-90,25,73,-10,262,-105,189,176,101
78,98,18,-84,31,61,2,262,-105,183,170,101
72,98,24,-84,25,61,2,256,-111,177,164,95
72,92,18,-84,25,55,2,238,-117,171,152,77
72,92,18,-84,25,55,-4,226,-123,153,146,71
78,86,6,-78,37,49,-10,220,-135,147,140,65
72,80,6,-78,31,43,-10,208,-141,141,134,59
72,80,6,-78,31,43,-10,202,-147,141,128,53
78,68,-10,-72,43,31,-10,196,-153,135,122,53
78,56,-22,-66,49,19,-16,190,-165,123,116,47
78,38,-40,-54,61,1,-16,184,-171,111,110,41
66,38,-28,-48,49,7,-10,178,-177,111,110,47
66,38,-28,-48,49,7,-10,166,-189,99,98,35
72,32,-40,-54,55,-5,-10,154,-201,93,92,23
72,26,-46,-48,61,-11,-10,148,-213,87,86,18
60,8,-52,-36,55,-23,-10,136,-219,81,86,13
54,-4,-58,-24,55,-28,-10,130,-219,81,86,13
66,2,-64,-30,67,-28,-21,124,-225,75,80,7
78,8,-70,-42,73,-28,-26,124,-231,63,74,7
66,2,-64,-30,67,-28,-26,118,-237,58,74,7
66,-4,-70,-30,67,-33,-32,112,-249,53,68,1
60,-4,-64,-30,61,-33,-38,100,-261,47,62,1
66,2,-64,-30,67,-28,-32,94,-267,47,56,1
78,2,-76,-36,79,-33,-26,82,-285,35,50,-5
66,2,-64,-30,67,-28,-26,76,-291,35,45,-17
66,2,-64,-30,67,-28,-26,76,-291,35,45,-23
54,2,-52,-24,55,-23,-21,70,-291,35,40,-23
54,-10,-64,-18,61,-33,-21,70,-291,41,40,-17
48,-10,-58,-18,55,-33,-21,70,-285,41,40,-17
48,2,-46,-24,49,-23,-21,64,-285,35,40,-17
54,14,-40,-30,49,-11,-21,58,-285,29,40,-17
54,20,-34,-36,43,-5,-26,46,-291,23,34,-17
54,20,-34,-36,43,-5,-26,40,-297,17,34,-17
66,20,-46,-42,55,-11,-21,40,-291,29,40,-11
48,14,-34,-30,43,-11,-16,34,-291,29,40,-11
48,8,-40,-30,43,-17,-21,22,-297,23,34,-23
42,14,-28,-24,37,-5,-21,16,-309,23,22,-29
36,14,-22,-24,31,-5,-21,16,-309,23,22,-29
36,20,-16,-30,25,1,-21,16,-315,23,22,-29
36,32,-5,-36,19,13,-21,16,-309,23,22,-29
36,44,6,-42,13,25,-16,10,-309,23,22,-23
36,50,12,-42,13,31,-16,10,-309,17,22,-23
30,44,12,-36,7,31,-21,4,-315,17,22,-23
24,32,6,-30,7,19,-21,4,-315,17,28,-17
30,26,-5,-24,19,13,-10,10,-321,23,34,-11
42,32,-10,-36,25,13,-16,4,-321,23,28,-11
48,44,-5,-48,25,19,-16,4,-327,29,28,-11
30,44,12,-36,7,31,-16,-2,-327,23,28,-11
24,44,18,-36,1,31,-16,-2,-327,23,28,-11
24,44,18,-36,1,31,-16,-2,-321,17,28,-11
18,50,30,-30,-5,43,-16,-2,-321,17,28,-5
24,56,30,-42,-5,43,-16,-2,-315,11,22,-11
24,56,30,-42,-5,43,-21,-8,-321,5,16,-11
30,44,12,-36,7,31,-26,-13,-327,5,10,-17
24,32,6,-30,7,19,-26,-13,-327,5,10,-17
18,20,0,-18,7,13,-32,-18,-333,-1,4,-17
12,20,6,-18,1,13,-26,-18,-339,-1,10,-11
12,20,6,-18,1,13,-32,-18,-339,-1,10,-11
24,38,12,-30,7,25,-32,-24,-345,-7,10,-11
36,50,12,-42,13,31,-32,-30,-345,-13,4,-11
42,50,6,-42,19,31,-38,-30,-351,-7,-2,-11
30,56,24,-42,1,43,-32,-30,-351,-1,4,-5
30,44,12,-36,7,31,-26,-24,-351,5,4,1
24,44,18,-36,1,31,-32,-30,-363,-1,4,1
24,44,18,-36,1,31,-32,-36,-375,-7,-2,1
12,38,24,-24,-5,31,-26,-30,-369,-7,4,7
18,38,18,-24,1,31,-26,-30,-369,-7,4,7
12,20,6,-18,1,13,-26,-30,-369,-7,4,7
6,8,0,-6,1,7,-32,-36,-381,-13,4,1
6,26,18,-12,-5,25,-38,-48,-387,-19,-2,-5
18,38,18,-24,1,31,-38,-48,-387,-13,-2,1
30,44,12,-36,7,31,-32,-42,-381,-13,4,1
24,38,12,-30,7,25,-38,-48,-387,-25,-2,-5
18,32,12,-24,1,25,-44,-48,-393,-37,-14,-11
18,32,12,-24,1,25,-44,-54,-393,-43,-14,-11
24,32,6,-30,7,19,-44,-54,-393,-43,-14,-5
18,38,18,-24,1,31,-44,-60,-399,-49,-20,-11
30,32,0,-30,13,19,-44,-66,-399,-43,-20,-11
36,26,-10,-30,25,7,-44,-60,-399,-43,-20,-11
36,32,-5,-36,19,13,-44,-66,-405,-37,-20,-11
42,38,-5,-36,25,19,-38,-78,-417,-43,-26,-11
42,32,-10,-36,25,13,-44,-78,-423,-49,-38,-17
48,38,-10,-42,31,13,-50,-84,-429,-61,-44,-23
48,38,-10,-42,31,13,-50,-90,-435,-73,-44,-29
54,38,-16,-42,37,13,-56,-96,-435,-79,-50,-35
48,32,-16,-42,31,7,-56,-102,-435,-73,-44,-41
36,26,-10,-30,25,7,-50,-108,-435,-67,-44,-35
36,26,-10,-30,25,7,-50,-108,-441,-73,-38,-35
36,26,-10,-30,25,7,-44,-108,-441,-67,-38,-29
36,26,-10,-30,25,7,-44,-114,-441,-67,-44,-29
30,26,-5,-24,19,13,-50,-120,-459,-79,-56,-35
12,20,6,-18,1,13,-56,-132,-465,-85,-62,-41
12,26,12,-18,1,19,-56,-132,-471,-85,-62,-41
24,20,-5,-24,13,7,-62,-144,-477,-97,-74,-47
30,20,-10,-24,19,7,-62,-144,-477,-97,-74,-47
30,20,-10,-24,19,7,-62,-144,-477,-97,-74,-47
30,14,-16,-18,25,1,-62,-144,-477,-97,-68,-47
30,14,-16,-18,25,1,-62,-144,-483,-103,-74,-47
36,20,-16,-30,25,1,-68,-156,-483,-103,-74,-59
36,20,-16,-30,25,1,-62,-156,-489,-109,-74,-59
30,14,-16,-18,25,1,-62,-162,-489,-109,-74,-65
30,8,-22,-18,25,-5,-62,-162,-489,-115,-80,-65
30,2,-28,-12,31,-11,-62,-168,-489,-115,-80,-65
24,2,-22,-12,25,-11,-62,-162,-489,-115,-80,-65
30,2,-28,-12,31,-11,-68,-162,-489,-115,-80,-59
24,8,-16,-18,19,-5,-68,-162,-495,-115,-86,-65
30,8,-22,-18,25,-5,-74,-162,-507,-127,-92,-71
36,8,-28,-24,31,-11,-68,-162,-507,-127,-86,-65
30,2,-28,-12,31,-11,-62,-162,-501,-121,-86,-65
30,2,-28,-12,31,-11,-62,-162,-501,-121,-80,-59
30,-4,-34,-12,31,-17,-56,-168,-501,-121,-80,-53
42,2,-40,-18,43,-17,-56,-168,-501,-121,-80,-53
42,2,-40,-18,43,-17,-62,-180,-507,-127,-80,-59
36,2,-34,-18,37,-17,-68,-186,-513,-133,-80,-59
30,-16,-46,-6,37,-28,-80,-186,-513,-133,-86,-65
12,-28,-40,6,25,-33,-80,-192,-513,-133,-92,-71
12,-22,-34,6,25,-28,-86,-198,-513,-133,-92,-71
6,-28,-34,12,19,-28,-86,-204,-519,-139,-98,-77
6,-28,-34,12,19,-28,-80,-204,-519,-139,-98,-77
12,-28,-40,6,25,-33,-74,-198,-519,-139,-98,-83
18,-28,-46,6,31,-33,-74,-198,-519,-139,-98,-83
30,-22,-52,0,43,-33,-74,-198,-519,-139,-104,-83
18,-16,-34,0,25,-23,-74,-204,-531,-145,-110,-89
18,-16,-34,0,25,-23,-74,-204,-531,-139,-104,-83
18,-22,-40,6,31,-28,-74,-204,-531,-139,-104,-77
18,-16,-34,0,25,-23,-74,-204,-531,-139,-104,-77
24,-10,-34,-6,31,-23,-74,-204,-531,-139,-104,-83
18,-10,-28,0,25,-17,-74,-204,-531,-139,-104,-83
12,-22,-34,6,25,-28,-74,-204,-537,-139,-104,-77
6,-28,-34,12,19,-28,-68,-204,-531,-133,-98,-77
6,-22,-28,12,19,-23,-74,-210,-531,-139,-104,-83
6,-22,-28,12,19,-23,-74,-210,-531,-133,-104,-77
12,-16,-28,0,19,-23,-74,-216,-537,-139,-104,-83
18,-10,-28,0,25,-17,-74,-216,-543,-139,-104,-83
30,-4,-34,-12,31,-17,-80,-222,-543,-139,-104,-77
24,-16,-40,-6,31,-28,-74,-216,-543,-139,-104,-77
12,-28,-40,6,25,-33,-74,-210,-531,-133,-104,-71
6,-34,-40,18,25,-33,-74,-210,-537,-139,-104,-77
6,-34,-40,18,25,-33,-68,-210,-531,-139,-110,-77
6,-22,-28,12,19,-23,-68,-216,-531,-145,-116,-83
12,-16,-28,0,19,-23,-68,-216,-531,-145,-116,-89
12,-16,-28,0,19,-23,-62,-216,-537,-139,-110,-83
6,-28,-34,12,19,-28,-62,-210,-531,-133,-104,-83
0,-22,-22,12,13,-23,-62,-216,-537,-139,-104,-77
12,-28,-40,6,25,-33,-68,-216,-537,-133,-104,-77
12,-34,-46,12,31,-39,-62,-216,-537,-133,-110,-77
6,-34,-40,18,25,-33,-62,-216,-531,-133,-110,-71
6,-34,-40,18,25,-33,-62,-222,-531,-133,-110,-71
12,-34,-46,12,31,-39,-62,-222,-537,-133,-110,-65
12,-34,-46,12,31,-39,-68,-222,-531,-139,-110,-65
18,-28,-46,6,31,-33,-68,-222,-537,-139,-116,-65
18,-22,-40,6,31,-28,-68,-222,-537,-139,-116,-65
18,-16,-34,0,25,-23,-62,-222,-537,-145,-122,-65
18,-22,-40,6,31,-28,-62,-222,-537,-145,-122,-65
18,-16,-34,0,25,-23,-68,-228,-537,-145,-122,-71
24,-10,-34,-6,31,-23,-80,-234,-543,-157,-134,-65
24,-16,-40,-6,31,-28,-80,-240,-549,-157,-134,-59
0,-28,-28,12,13,-28,-74,-234,-543,-151,-128,-53
0,-28,-28,12,13,-28,-74,-228,-543,-151,-122,-47
0,-22,-22,12,13,-23,-74,-228,-543,-151,-122,-53
0,-16,-16,6,7,-17,-74,-228,-537,-151,-122,-59
6,-16,-22,6,13,-17,-74,-222,-531,-151,-116,-59
12,-10,-22,0,19,-17,-68,-222,-525,-151,-116,-53
18,-4,-22,-6,19,-11,-68,-222,-525,-145,-116,-53
18,-10,-28,0,25,-17,-62,-222,-519,-145,-116,-47
24,2,-22,-12,25,-11,-56,-222,-513,-145,-116,-47
30,2,-28,-12,31,-11,-56,-228,-519,-145,-110,-47
36,14,-22,-24,31,-5,-56,-222,-525,-139,-110,-41
42,20,-22,-30,31,1,-50,-216,-525,-139,-110,-41
48,14,-34,-30,43,-11,-44,-210,-519,-139,-104,-35
54,26,-28,-36,43,1,-44,-210,-513,-133,-104,-35
60,38,-22,-48,43,7,-50,-210,-513,-133,-104,-41
60,32,-28,-48,43,1,-50,-210,-519,-139,-104,-41
66,38,-28,-48,49,7,-50,-216,-513,-133,-104,-41
78,50,-28,-60,55,13,-50,-210,-513,-127,-104,-41
78,44,-34,-60,55,7,-50,-210,-513,-133,-104,-41
78,44,-34,-60,55,7,-50,-216,-513,-133,-104,-41
72,38,-34,-54,55,1,-50,-216,-513,-139,-104,-47
66,32,-34,-48,49,1,-56,-222,-513,-145,-104,-47
54,20,-34,-36,43,-5,-56,-222,-513,-145,-104,-47
54,26,-28,-36,43,1,-50,-222,-507,-139,-104,-47
54,26,-28,-36,43,1,-44,-222,-501,-139,-104,-41
54,38,-16,-42,37,13,-44,-222,-507,-139,-110,-47
60,50,-10,-54,37,19,-44,-222,-501,-139,-104,-41
60,50,-10,-54,37,19,-44,-216,-495,-133,-98,-41
60,62,0,-60,31,31,-38,-210,-495,-127,-92,-35
66,68,0,-66,31,37,-26,-204,-495,-121,-86,-29
78,74,-5,-72,43,37,-21,-192,-483,-109,-74,-17
72,86,12,-78,31,49,-10,-180,-471,-103,-62,-11
78,116,36,-96,19,79,2,-180,-465,-103,-62,-17
78,146,66,-108,7,109,2,-174,-465,-97,-56,-17
78,158,78,-114,1,121,8,-168,-453,-85,-50,-11
72,158,84,-114,-5,121,8,-156,-441,-79,-44,-5
66,152,84,-108,-11,121,14,-144,-435,-67,-38,1
66,152,84,-108,-11,121,26,-138,-423,-61,-26,13
66,170,102,-114,-17,139,32,-132,-417,-55,-26,13
66,188,120,-126,-27,157,38,-132,-411,-49,-26,18
60,206,144,-132,-39,175,44,-132,-411,-43,-26,18
78,224,144,-150,-33,187,50,-126,-399,-43,-20,23
90,236,144,-162,-27,193,56,-120,-393,-37,-14,29
96,248,150,-174,-27,199,68,-108,-375,-25,-2,41
96,254,156,-174,-27,205,80,-90,-357,-13,10,47
96,260,162,-180,-33,211,92,-78,-345,-1,22,59
108,272,162,-192,-27,217,98,-72,-339,5,22,65
126,278,150,-198,-11,217,104,-72,-339,5,28,65
132,296,162,-216,-17,229,110,-72,-339,11,28,65
132,302,168,-216,-17,235,122,-66,-333,17,28,71
132,302,168,-216,-17,235,128,-60,-333,11,28,65
126,296,168,-210,-22,235,134,-66,-339,5,22,59
108,272,162,-192,-27,217,134,-66,-339,-13,16,53
102,260,156,-180,-27,211,128,-84,-351,-31,4,41
96,236,138,-168,-22,187,116,-102,-363,-43,-14,23
90,218,126,-150,-17,175,110,-114,-381,-61,-26,13
90,200,108,-144,-11,157,98,-126,-393,-61,-38,7
90,194,102,-138,-5,151,92,-138,-405,-73,-44,-5
96,188,90,-144,1,139,80,-156,-411,-85,-56,-17
102,188,84,-144,7,139,74,-156,-417,-85,-56,-17
102,182,78,-138,13,133,74,-156,-411,-85,-50,-17
102,176,72,-138,13,127,68,-162,-411,-91,-56,-17
108,164,54,-138,25,109,56,-168,-411,-91,-56,-17
108,158,48,-132,31,103,50,-174,-417,-97,-68,-23
108,152,42,-132,31,97,44,-180,-417,-103,-74,-23
108,152,42,-132,31,97,38,-180,-417,-103,-74,-29
96,140,42,-120,25,91,32,-180,-417,-109,-74,-29
90,140,48,-114,19,97,26,-180,-417,-115,-74,-29
96,128,30,-114,31,79,14,-186,-417,-121,-80,-35
96,122,24,-108,37,73,8,-186,-411,-121,-86,-35
108,122,12,-114,49,67,8,-180,-405,-115,-80,-29
120,134,12,-126,55,73,8,-168,-393,-103,-68,-17
120,128,6,-126,55,67,8,-162,-387,-97,-68,-11
126,128,0,-126,61,67,8,-162,-381,-91,-62,-11
120,134,12,-126,55,73,2,-162,-387,-103,-68,-23
114,128,12,-120,49,73,-4,-168,-387,-103,-62,-23
114,122,6,-114,55,67,-4,-168,-387,-103,-56,-17
114,122,6,-114,55,67,-4,-168,-381,-97,-50,-11
120,128,6,-126,55,67,-10,-162,-375,-97,-50,-11
126,140,12,-132,55,79,-10,-156,-369,-91,-44,-5
132,146,12,-138,61,79,-16,-156,-369,-79,-44,1
132,152,18,-144,55,85,-10,-150,-357,-73,-32,13
138,158,18,-144,61,91,-4,-144,-351,-67,-32,13
150,152,0,-150,73,79,-4,-144,-357,-67,-32,18
150,146,-5,-144,79,73,2,-132,-351,-67,-32,18
156,140,-16,-150,85,61,8,-120,-345,-55,-26,23
156,128,-28,-144,91,49,20,-102,-333,-43,-14,29
168,128,-40,-150,103,43,32,-72,-315,-31,-2,41
180,134,-46,-156,115,43,44,-42,-291,-13,16,59
192,128,-64,-162,127,31,38,-18,-267,-1,34,71
210,128,-82,-168,145,25,32,10,-237,17,45,83
234,116,-118,-174,175,1,38,58,-207,35,62,95
258,98,-160,-174,211,-28,50,106,-177,53,80,107
288,62,-226,-174,259,-81,74,190,-141,75,92,119
330,8,-322,-168,325,-153,104,292,-99,93,110,125
366,-51,-418,-156,391,-231,134,430,-45,117,134,143
408,-104,-514,-156,457,-309,182,598,39,165,176,173
462,-122,-586,-168,523,-351,230,784,151,237,242,221
534,-110,-646,-210,589,-375,278,964,307,339,332,287
606,-74,-682,-264,643,-375,338,1174,505,489,452,377
678,-46,-724,-312,703,-381,440,1450,769,687,614,503
756,26,-730,-390,745,-351,542,1768,1099,945,824,659
840,116,-724,-480,781,-303,602,2086,1477,1245,1064,845
906,206,-700,-552,805,-243,668,2404,1879,1563,1310,1031
942,302,-640,-618,793,-165,716,2577,2227,1845,1526,1199
966,380,-586,-672,775,-99,710,2601,2503,2085,1694,1331
978,446,-532,-708,757,-39,656,2553,2718,2277,1838,1433
996,524,-472,-762,733,25,584,2499,2922,2457,1952,1517
978,590,-388,-780,685,103,542,2469,3138,2630,2060,1583
882,644,-238,-762,559,205,542,2415,3330,2780,2126,1613
750,680,-70,-714,409,307,548,2314,3450,2894,2156,1613
618,698,78,-654,271,391,530,2098,3432,2900,2120,1571
486,650,162,-564,163,409,488,1786,3210,2738,1970,1451
360,524,162,-444,97,343,404,1426,2802,2415,1718,1259
258,350,90,-300,85,223,284,964,2119,1893,1340,983
174,158,-16,-162,97,73,164,484,1321,1281,908,683
120,-10,-130,-54,127,-69,62,142,679,765,524,413
78,-122,-202,24,139,-159,-16,-48,259,405,254,209
48,-200,-250,70,145,-225,-68,-180,-21,153,56,59
36,-254,-292,106,163,-273,-104,-270,-207,-1,-62,-29
36,-272,-310,112,169,-291,-128,-324,-321,-103,-134,-83
36,-284,-322,118,175,-303,-146,-354,-387,-163,-176,-107
48,-278,-328,112,187,-303,-158,-366,-429,-199,-194,-119
60,-254,-316,94,187,-285,-158,-366,-447,-223,-206,-119
72,-218,-292,70,181,-255,-152,-354,-459,-235,-218,-113
72,-176,-250,47,157,-213,-140,-342,-465,-241,-224,-113
72,-128,-202,24,133,-165,-128,-324,-471,-235,-218,-107
72,-92,-166,6,115,-129,-122,-312,-483,-235,-212,-101
72,-62,-136,-6,103,-99,-116,-312,-495,-235,-206,-101
66,-51,-118,-6,91,-81,-110,-312,-513,-241,-206,-101
60,-51,-112,-6,85,-81,-104,-312,-519,-247,-206,-101
54,-51,-106,0,79,-75,-104,-318,-531,-253,-212,-101
48,-40,-88,-6,67,-63,-98,-324,-537,-259,-212,-101
42,-34,-76,0,61,-51,-92,-324,-537,-259,-212,-101
42,-28,-70,-6,55,-45,-86,-324,-537,-265,-218,-101
42,-22,-64,-6,55,-39,-86,-324,-543,-271,-218,-101
54,-10,-64,-18,61,-33,-86,-324,-543,-271,-224,-107
48,2,-46,-24,49,-23,-86,-318,-549,-271,-224,-113
54,8,-46,-30,49,-17,-86,-318,-555,-277,-230,-113
54,8,-46,-30,49,-17,-86,-312,-561,-283,-230,-113
54,14,-40,-30,49,-11,-86,-312,-567,-289,-230,-113
54,20,-34,-36,43,-5,-92,-312,-573,-295,-230,-113
60,14,-46,-36,55,-17,-92,-306,-573,-289,-224,-107
60,14,-46,-36,55,-17,-92,-306,-567,-277,-224,-107
48,8,-40,-30,43,-17,-92,-306,-567,-277,-218,-107
42,2,-40,-18,43,-17,-92,-306,-561,-277,-218,-107
42,-4,-46,-18,43,-23,-86,-300,-561,-277,-218,-107
42,2,-40,-18,43,-17,-86,-300,-561,-283,-212,-107
60,14,-46,-36,55,-17,-86,-294,-567,-283,-212,-101
60,26,-34,-42,49,-5,-86,-288,-567,-283,-206,-95
54,26,-28,-36,43,1,-86,-288,-567,-283,-206,-89
54,26,-28,-36,43,1,-86,-288,-561,-283,-206,-95
48,26,-22,-36,37,1,-86,-288,-561,-283,-206,-95
48,32,-16,-42,31,7,-86,-294,-561,-283,-206,-95
48,32,-16,-42,31,7,-92,-294,-555,-283,-212,-101
48,26,-22,-36,37,1,-86,-294,-555,-283,-218,-101
42,20,-22,-30,31,1,-86,-294,-543,-283,-218,-101
36,26,-10,-30,25,7,-80,-288,-543,-277,-218,-101
36,38,0,-36,19,19,-74,-282,-537,-277,-212,-101
36,50,12,-42,13,31,-74,-282,-537,-283,-212,-101
30,38,6,-30,13,25,-74,-276,-525,-277,-206,-101
42,20,-22,-30,31,1,-80,-276,-519,-277,-200,-101
60,20,-40,-42,49,-11,-74,-270,-513,-277,-194,-101
48,20,-28,-36,37,-5,-74,-264,-507,-271,-188,-101
42,20,-22,-30,31,1,-68,-258,-501,-271,-194,-101
42,32,-10,-36,25,13,-68,-252,-501,-271,-194,-101
42,38,-5,-36,25,19,-68,-252,-501,-265,-194,-101
42,56,12,-48,13,37,-68,-246,-489,-259,-188,-95
36,56,18,-48,7,37,-68,-246,-489,-259,-194,-95
30,56,24,-42,1,43,-68,-240,-483,-259,-194,-95
36,68,30,-54,1,49,-68,-234,-471,-259,-188,-95
36,68,30,-54,1,49,-68,-234,-465,-259,-182,-95
42,74,30,-54,7,55,-68,-228,-459,-253,-176,-89
36,74,36,-54,1,55,-68,-228,-459,-253,-182,-89
18,56,36,-36,-11,49,-68,-228,-465,-259,-182,-89
6,50,42,-24,-17,49,-68,-228,-471,-259,-188,-95
6,38,30,-18,-11,37,-68,-228,-471,-265,-194,-95
6,32,24,-18,-11,31,-62,-222,-465,-259,-188,-89
12,26,12,-18,1,19,-62,-222,-453,-253,-188,-89
24,38,12,-30,7,25,-62,-222,-453,-253,-188,-95
18,44,24,-30,-5,37,-62,-222,-459,-259,-182,-101
12,62,48,-36,-17,55,-62,-216,-459,-253,-182,-101
18,74,54,-42,-17,67,-62,-216,-459,-253,-176,-101
12,80,66,-48,-27,73,-56,-216,-453,-253,-176,-95
6,80,72,-42,-33,79,-56,-222,-453,-247,-176,-95
6,74,66,-36,-27,73,-56,-222,-453,-247,-176,-95
6,74,66,-36,-27,73,-62,-222,-453,-247,-176,-95
6,74,66,-36,-27,73,-62,-222,-459,-253,-176,-101
6,80,72,-42,-33,79,-50,-222,-459,-253,-170,-101
12,86,72,-48,-27,79,-50,-222,-459,-253,-164,-101
6,92,84,-48,-39,91,-56,-222,-465,-259,-164,-107
0,86,84,-42,-39,85,-56,-216,-459,-259,-164,-107
-6,80,84,-36,-45,85,-50,-216,-459,-253,-164,-101
-12,74,84,-30,-45,79,-44,-210,-453,-247,-164,-95
-12,80,90,-36,-51,85,-44,-210,-447,-247,-164,-95
-12,92,102,-42,-57,97,-44,-210,-447,-247,-170,-95
-12,98,108,-42,-57,103,-44,-210,-453,-241,-170,-101
-6,98,102,-42,-51,103,-44,-204,-447,-247,-176,-101
-6,98,102,-42,-51,103,-44,-204,-447,-247,-176,-101
-6,104,108,-48,-57,109,-44,-198,-441,-247,-170,-101
-6,110,114,-48,-57,115,-32,-186,-429,-241,-158,-95
-18,122,138,-48,-75,133,-32,-186,-423,-241,-158,-95
-18,122,138,-48,-75,133,-26,-174,-417,-241,-158,-101
-18,128,144,-54,-81,139,-21,-168,-405,-235,-158,-95
-18,140,156,-60,-87,151,-16,-156,-393,-223,-152,-95
-18,140,156,-60,-87,151,-10,-144,-381,-211,-140,-89
-24,140,162,-60,-93,151,-10,-138,-369,-205,-128,-77
-24,146,168,-60,-93,157,-10,-132,-363,-199,-128,-77
-24,152,174,-66,-99,163,-10,-126,-351,-199,-128,-77
-36,158,192,-60,-111,175,-4,-114,-333,-193,-128,-71
-42,158,198,-54,-117,181,-4,-102,-321,-193,-122,-65
-36,170,204,-66,-117,187,2,-90,-303,-187,-116,-59
-24,188,210,-84,-117,199,8,-72,-285,-181,-104,-59
-18,200,216,-90,-117,211,20,-54,-261,-163,-92,-47
-24,200,222,-90,-123,211,32,-36,-243,-157,-86,-41
-24,200,222,-90,-123,211,32,-24,-225,-139,-74,-41
-24,200,222,-90,-123,211,38,-8,-201,-121,-62,-29
-24,206,228,-90,-123,217,38,10,-177,-115,-50,-23
-18,212,228,-96,-123,223,44,28,-159,-103,-44,-11
-12,218,228,-102,-117,223,44,52,-129,-91,-26,7
-18,224,240,-102,-129,235,50,76,-105,-73,-8,18
-18,236,252,-108,-135,247,62,106,-75,-49,10,41
0,248,246,-126,-123,247,68,130,-51,-37,28,59
6,254,246,-126,-117,253,74,148,-21,-25,40,83
6,254,246,-126,-117,253,74,160,9,-13,45,95
6,254,246,-126,-117,253,80,172,27,5,50,107
18,260,240,-138,-111,253,86,190,51,23,56,119
18,254,234,-132,-105,247,92,208,81,41,74,131
18,260,240,-138,-111,253,98,226,105,58,86,143
24,272,246,-150,-111,259,104,238,115,69,98,155
24,278,252,-150,-111,265,110,250,133,81,110,161
18,272,252,-144,-117,265,110,262,151,87,116,167
18,272,252,-144,-117,265,110,268,163,87,122,173
18,266,246,-138,-111,259,110,274,175,99,128,173
24,266,240,-144,-105,253,116,286,187,105,140,179
30,266,234,-144,-99,253,122,286,205,111,152,179
30,260,228,-144,-99,247,122,292,211,123,164,185
36,254,216,-144,-87,235,122,292,217,129,164,185
30,236,204,-132,-87,223,116,298,223,135,170,185
30,248,216,-138,-93,235,110,298,229,135,164,179
36,254,216,-144,-87,235,110,304,229,141,164,173
42,254,210,-144,-81,235,110,310,235,141,164,173
54,254,198,-150,-69,229,110,316,241,147,170,173
54,248,192,-150,-69,223,116,322,247,153,176,179
54,248,192,-150,-69,223,116,322,259,153,176,179
54,242,186,-144,-63,217,110,322,259,159,176,173
54,242,186,-144,-63,217,110,322,265,153,176,173
54,242,186,-144,-63,217,110,316,277,153,176,179
66,236,168,-150,-51,205,110,316,283,159,176,179
72,230,156,-150,-39,193,110,316,289,153,188,179
72,218,144,-144,-33,181,110,316,295,153,188,179
60,200,138,-132,-39,169,110,316,295,153,188,173
54,188,132,-120,-39,163,110,310,295,147,182,167
48,176,126,-114,-39,151,104,310,295,153,182,167
48,164,114,-108,-33,139,104,304,289,153,182,161
54,164,108,-108,-27,139,104,298,289,159,182,161
60,152,90,-108,-17,121,104,292,289,159,182,161
60,152,90,-108,-17,121,98,280,289,147,176,149
72,158,84,-114,-5,121,92,268,277,141,164,143
60,146,84,-102,-11,115,92,262,265,135,158,137
60,134,72,-96,-5,103,86,250,253,129,152,125
54,128,72,-90,-11,103,86,238,247,123,146,119
42,134,90,-84,-22,115,92,226,241,117,140,107
36,122,84,-78,-22,103,80,202,229,111,128,95
36,104,66,-72,-17,85,74,184,217,99,122,89
30,92,60,-60,-17,79,74,172,211,87,116,83
24,80,54,-54,-17,67,62,154,205,75,98,71
18,68,48,-42,-17,61,56,136,193,63,86,65
24,62,36,-42,-5,49,56,118,181,58,80,59
30,56,24,-42,1,43,56,112,175,58,74,59
30,50,18,-36,7,37,50,100,169,53,68,53
30,50,18,-36,7,37,50,88,169,47,56,41
30,38,6,-30,13,25,50,88,163,41,56,41
30,38,6,-30,13,25,50,76,157,35,50,29
36,44,6,-42,13,25,50,64,151,23,45,23
36,50,12,-42,13,31,50,58,145,17,45,23
30,38,6,-30,13,25,38,46,139,5,40,18
18,20,0,-18,7,13,32,34,133,-1,28,13
12,8,-5,-12,7,1,32,28,127,-7,28,7
6,-4,-10,0,7,-5,32,22,121,-13,22,1
6,-16,-22,6,13,-17,32,22,121,-13,28,1
6,-16,-22,6,13,-17,32,22,121,-19,28,1
-6,-16,-10,12,1,-11,32,10,115,-25,22,-5
-12,-10,0,12,-5,-5,26,-2,110,-31,10,-11
0,-10,-10,6,7,-11,26,-2,110,-37,4,-17
0,-22,-22,12,13,-23,26,-8,110,-37,4,-17
0,-22,-22,12,13,-23,26,-8,105,-43,4,-17
0,-22,-22,12,13,-23,26,-8,105,-43,10,-11
-6,-16,-10,12,1,-11,26,-13,105,-43,10,-11
-6,-10,-5,12,1,-5,20,-13,93,-43,10,-11
-6,-16,-10,12,1,-11,20,-18,87,-43,10,-11
-6,-16,-10,12,1,-11,26,-18,87,-37,10,-5
0,-4,-5,0,1,-5,26,-18,87,-37,4,-5
-6,-4,0,6,-5,1,26,-24,93,-31,4,-5
-6,-4,0,6,-5,1,26,-24,93,-37,-2,-11
-6,-4,0,6,-5,1,26,-30,93,-37,4,-11
-6,-4,0,6,-5,1,26,-30,93,-37,4,-5
-6,2,6,6,-5,7,26,-24,87,-43,4,-11
-6,2,6,6,-5,7,26,-24,81,-43,4,-11
-12,-10,0,12,-5,-5,14,-30,75,-49,4,-17
-12,-10,0,12,-5,-5,14,-30,69,-55,-2,-29
-18,-10,6,18,-11,1,20,-30,75,-49,-2,-29
-24,-10,12,18,-17,1,26,-24,81,-49,-2,-23
-24,2,24,12,-22,13,26,-24,81,-43,-2,-23
-30,-4,24,18,-27,13,26,-24,81,-49,4,-29
-36,-10,24,24,-27,7,26,-30,81,-49,-2,-29
-36,-16,18,24,-27,1,26,-30,87,-43,4,-23
-36,-16,18,24,-27,1,32,-24,93,-37,4,-17
-30,-10,18,24,-22,7,32,-24,93,-37,4,-17
-30,-10,18,24,-22,7,26,-30,87,-37,4,-23
-42,-10,30,30,-33,13,32,-24,93,-25,10,-17
-42,8,48,18,-45,31,26,-24,93,-25,16,-17
-47,8,54,18,-51,31,20,-30,93,-25,16,-23
-58,14,72,24,-63,43,20,-36,93,-25,16,-29
-47,20,66,12,-57,43,20,-36,93,-31,16,-29
-47,14,60,18,-51,37,26,-36,93,-25,16,-29
-42,14,54,18,-45,37,26,-36,93,-31,10,-29
-42,14,54,18,-45,37,20,-36,93,-31,4,-29
-36,14,48,12,-39,31,20,-42,93,-31,4,-23
-36,14,48,12,-39,31,20,-42,93,-31,4,-23
-30,14,42,12,-33,31,14,-42,93,-31,4,-23
-24,20,42,0,-33,31,14,-48,93,-31,-2,-23
-24,26,48,0,-33,37,8,-48,93,-31,4,-29
-36,20,54,6,-45,37,8,-54,99,-31,-2,-29
-42,20,60,12,-51,43,8,-54,99,-31,4,-23
-42,8,48,18,-45,31,14,-54,99,-31,4,-17
-47,2,48,24,-45,25,20,-54,93,-37,4,-17
-52,-16,36,30,-45,7,20,-54,87,-37,10,-17
-52,-16,36,30,-45,7,14,-54,87,-43,4,-17
-58,-4,54,30,-57,25,8,-60,81,-49,-2,-23
-52,2,54,24,-51,25,2,-66,81,-49,-8,-23
-47,8,54,18,-51,31,-4,-66,81,-49,-8,-29
-42,14,54,18,-45,37,-4,-72,87,-43,-8,-29
-36,26,60,6,-45,43,-4,-72,81,-49,-8,-35
-36,26,60,6,-45,43,-10,-84,75,-55,-14,-35
-36,20,54,6,-45,37,-10,-84,75,-55,-8,-35
-36,14,48,12,-39,31,-16,-96,69,-61,-14,-41
-36,2,36,18,-33,19,-10,-90,69,-61,-14,-35
-36,-4,30,18,-33,13,-10,-96,69,-61,-14,-35
-47,-10,36,30,-39,13,-10,-96,63,-61,-20,-41
-52,-16,36,30,-45,7,-16,-102,63,-67,-20,-41
-52,-16,36,30,-45,7,-21,-108,51,-73,-32,-47
-52,-10,42,30,-45,13,-26,-120,45,-79,-38,-53
-47,-10,36,30,-39,13,-21,-120,45,-79,-44,-53
-47,-16,30,30,-39,7,-26,-126,45,-79,-44,-53
-42,-16,24,30,-33,7,-32,-132,45,-85,-50,-65
-42,-22,18,36,-27,1,-32,-126,51,-85,-50,-59
-42,-16,24,30,-33,7,-32,-126,51,-85,-50,-53
-42,-10,30,30,-33,13,-32,-126,51,-91,-50,-53
-47,-16,30,30,-39,7,-32,-132,45,-91,-56,-53
-47,-22,24,36,-33,1,-32,-132,45,-91,-62,-53
-52,-34,18,42,-33,-11,-32,-138,45,-85,-62,-53
-58,-40,18,47,-39,-11,-32,-144,39,-97,-68,-59
-70,-46,24,58,-45,-11,-38,-150,39,-103,-74,-65
-64,-40,24,47,-45,-11,-38,-156,33,-103,-68,-71
-47,-40,6,42,-27,-17,-38,-156,39,-103,-68,-71
-47,-46,0,47,-22,-23,-38,-156,39,-103,-68,-65
-58,-51,6,52,-33,-23,-32,-150,39,-103,-62,-65
-58,-51,6,52,-33,-23,-32,-150,39,-103,-62,-59
-52,-51,0,47,-27,-28,-32,-150,33,-103,-68,-59
-52,-46,6,47,-27,-23,-44,-150,27,-109,-74,-65
-52,-46,6,47,-27,-23,-44,-156,21,-115,-80,-65
-52,-51,0,47,-27,-28,-44,-156,21,-115,-80,-65
-52,-56,-5,47,-27,-33,-38,-156,33,-115,-80,-65
-52,-51,0,47,-27,-28,-38,-168,27,-121,-86,-77
-52,-56,-5,47,-27,-33,-44,-174,15,-127,-92,-83
-47,-56,-10,47,-22,-33,-44,-180,9,-127,-92,-89
-42,-62,-22,52,-11,-39,-50,-180,3,-133,-98,-95
-58,-62,-5,58,-27,-33,-50,-180,-3,-133,-98,-101
-70,-56,12,58,-45,-23,-50,-180,-9,-133,-92,-101
-82,-51,30,64,-57,-11,-44,-180,-15,-127,-92,-95
-76,-51,24,58,-51,-17,-44,-180,-21,-133,-92,-95
-64,-51,12,52,-39,-23,-50,-180,-21,-127,-92,-95
-58,-56,0,52,-33,-28,-50,-180,-21,-133,-92,-95
-58,-68,-10,58,-27,-39,-56,-186,-21,-133,-92,-95
-52,-68,-16,52,-22,-45,-56,-186,-27,-139,-98,-101
-47,-62,-16,52,-17,-39,-62,-186,-33,-139,-98,-101
-52,-68,-16,52,-22,-45,-62,-186,-33,-133,-98,-101
-64,-74,-10,64,-27,-45,-68,-186,-39,-139,-98,-95
-70,-68,0,64,-39,-33,-68,-180,-39,-139,-98,-95
-82,-68,12,70,-51,-28,-62,-180,-39,-133,-92,-95
-76,-62,12,64,-45,-28,-62,-180,-39,-139,-92,-95
-76,-68,6,64,-45,-33,-68,-192,-45,-145,-104,-107
-76,-74,0,70,-39,-39,-68,-198,-51,-151,-104,-113
-76,-80,-5,70,-39,-45,-68,-204,-57,-151,-104,-113
-64,-80,-16,64,-27,-51,-68,-204,-57,-151,-110,-107
-58,-80,-22,64,-22,-51,-62,-204,-57,-145,-104,-101
-52,-86,-34,64,-11,-63,-68,-204,-57,-145,-98,-101
-47,-86,-40,64,-5,-63,-68,-198,-57,-139,-98,-95
-47,-80,-34,58,-11,-57,-68,-198,-57,-139,-98,-95
-58,-74,-16,64,-22,-45,-68,-198,-63,-139,-98,-95
-64,-68,-5,58,-33,-39,-68,-198,-69,-145,-98,-95
-64,-68,-5,58,-33,-39,-68,-204,-87,-151,-104,-101
-70,-80,-10,70,-33,-45,-68,-204,-99,-151,-104,-101
-76,-92,-16,76,-33,-57,-68,-204,-105,-157,-104,-107
-76,-92,-16,76,-33,-57,-74,-204,-123,-151,-98,-107
-82,-110,-28,94,-27,-69,-62,-204,-123,-145,-92,-101
-70,-104,-34,82,-22,-69,-62,-198,-129,-139,-86,-101
-47,-92,-46,64,-5,-69,-62,-198,-141,-139,-86,-101
-42,-80,-40,58,-5,-57,-68,-204,-153,-139,-92,-107
-47,-74,-28,58,-11,-51,-68,-204,-165,-139,-92,-107
-58,-68,-10,58,-27,-39,-68,-204,-171,-145,-92,-101
-64,-56,6,52,-39,-28,-62,-204,-171,-139,-92,-95
-58,-56,0,52,-33,-28,-68,-204,-183,-145,-98,-101
-58,-68,-10,58,-27,-39,-74,-204,-189,-145,-104,-101
-58,-68,-10,58,-27,-39,-74,-210,-195,-151,-104,-107
-58,-68,-10,58,-27,-39,-74,-210,-195,-151,-104,-107
-64,-80,-16,64,-27,-51,-80,-216,-207,-151,-104,-113
-64,-80,-16,64,-27,-51,-80,-216,-219,-151,-104,-113
-64,-80,-16,64,-27,-51,-80,-210,-225,-145,-104,-113
-64,-92,-28,70,-22,-63,-74,-210,-225,-139,-98,-107
-64,-92,-28,70,-22,-63,-74,-210,-225,-139,-92,-107
-64,-86,-22,70,-22,-57,-74,-210,-231,-145,-92,-107
-64,-86,-22,70,-22,-57,-74,-216,-237,-145,-98,-107
-82,-98,-16,88,-33,-57,-74,-222,-243,-151,-104,-107
-76,-86,-10,76,-33,-51,-74,-222,-249,-145,-104,-107
-76,-92,-16,76,-33,-57,-74,-222,-249,-145,-104,-101
-76,-98,-22,82,-27,-63,-68,-216,-255,-145,-98,-95
-58,-92,-34,70,-17,-63,-62,-210,-261,-139,-92,-89
-64,-110,-46,82,-11,-81,-62,-216,-261,-145,-92,-95
-64,-122,-58,88,-5,-93,-68,-216,-267,-145,-92,-95
-58,-110,-52,82,-5,-81,-68,-216,-273,-145,-86,-101
-64,-98,-34,76,-17,-69,-74,-228,-273,-145,-92,-107
-64,-92,-28,70,-22,-63,-74,-234,-279,-151,-98,-113
-58,-86,-28,70,-17,-57,-74,-234,-279,-145,-104,-107
-76,-104,-28,82,-27,-69,-74,-234,-273,-145,-104,-101
-82,-110,-28,94,-27,-69,-74,-228,-279,-139,-104,-95
-82,-110,-28,94,-27,-69,-74,-228,-285,-151,-110,-95
-82,-110,-28,94,-27,-69,-80,-228,-291,-145,-110,-95
-82,-104,-22,88,-33,-63,-86,-234,-291,-151,-110,-101
-70,-104,-34,82,-22,-69,-86,-228,-285,-139,-104,-95
-64,-98,-34,76,-17,-69,-80,-228,-285,-145,-104,-101
-76,-98,-22,82,-27,-63,-86,-234,-297,-145,-104,-107
-82,-104,-22,88,-33,-63,-86,-234,-303,-145,-98,-101
-82,-110,-28,94,-27,-69,-80,-234,-303,-145,-98,-95
-82,-116,-34,94,-27,-75,-74,-234,-303,-139,-98,-89
-82,-116,-34,94,-27,-75,-80,-228,-303,-139,-98,-89
-82,-116,-34,94,-27,-75,-80,-228,-303,-139,-98,-83
-82,-110,-28,94,-27,-69,-92,-240,-309,-145,-104,-89
-82,-116,-34,94,-27,-75,-92,-240,-309,-145,-110,-95
-88,-116,-28,94,-33,-75,-92,-240,-315,-151,-110,-101
-88,-116,-28,94,-33,-75,-92,-240,-315,-151,-110,-101
-82,-116,-34,94,-27,-75,-92,-240,-321,-157,-110,-101
-82,-116,-34,94,-27,-75,-98,-252,-327,-157,-116,-107
-82,-122,-40,100,-22,-81,-98,-258,-339,-163,-116,-107
-88,-122,-34,100,-27,-81,-98,-258,-339,-157,-116,-101
-100,-122,-22,106,-39,-75,-98,-264,-339,-163,-116,-101
-100,-110,-10,100,-45,-63,-92,-258,-333,-145,-116,-101
-94,-98,-5,94,-45,-51,-80,-246,-333,-145,-110,-95
-88,-92,-5,82,-45,-51,-74,-240,-327,-133,-104,-89
-88,-86,0,82,-45,-45,-74,-234,-321,-127,-98,-89
-100,-80,18,82,-63,-33,-62,-222,-315,-121,-92,-83
-106,-62,42,82,-75,-11,-56,-216,-303,-115,-80,-77
-106,-51,54,76,-81,1,-50,-210,-303,-109,-74,-71
-112,-46,66,76,-87,7,-38,-198,-291,-103,-68,-59
-112,-34,78,70,-93,19,-26,-186,-291,-97,-62,-53
-106,-28,78,64,-93,25,-21,-174,-285,-97,-56,-47
-112,-22,90,64,-99,31,-10,-168,-285,-85,-50,-41
-106,-22,84,64,-93,31,2,-162,-279,-91,-50,-41
-112,-16,96,58,-105,37,2,-162,-279,-85,-50,-41
-112,-4,108,52,-111,49,2,-168,-279,-79,-50,-41
-112,2,114,52,-111,55,2,-168,-273,-73,-38,-41
-106,8,114,47,-111,61,8,-156,-267,-67,-32,-35
-100,32,132,30,-117,79,20,-144,-255,-49,-14,-23
-100,44,144,24,-123,91,26,-132,-249,-43,-8,-17
-94,56,150,18,-123,103,32,-120,-243,-31,-8,-11
-88,68,156,6,-123,109,38,-114,-243,-25,-2,-5
-88,74,162,6,-123,115,38,-114,-237,-19,-2,1
-88,80,168,0,-129,121,50,-114,-237,-19,-2,-5
-82,68,150,6,-117,109,62,-108,-231,-19,-2,-5
-88,62,150,12,-117,103,74,-102,-231,-19,-2,-5
-106,44,150,30,-129,97,80,-108,-237,-19,-8,-11
-106,20,126,42,-117,73,74,-114,-243,-31,-14,-23
-124,-4,120,58,-123,55,62,-126,-255,-37,-26,-29
-130,-4,126,64,-129,61,50,-138,-273,-55,-38,-41
-124,-4,120,58,-123,55,38,-150,-285,-67,-44,-53
-130,-22,108,76,-117,43,38,-156,-303,-79,-50,-59
-136,-40,96,82,-117,25,26,-168,-327,-91,-62,-65
-136,-46,90,88,-111,19,26,-174,-339,-103,-74,-71
-136,-68,66,94,-105,-5,20,-174,-339,-103,-80,-77
-130,-68,60,94,-99,-5,8,-180,-345,-109,-86,-77
-112,-62,48,82,-81,-11,-4,-198,-345,-115,-92,-89
-112,-62,48,82,-81,-11,-16,-204,-339,-115,-92,-89
-118,-62,54,88,-87,-5,-21,-216,-345,-121,-98,-95
-130,-80,48,100,-93,-17,-32,-228,-357,-127,-104,-101
-124,-80,42,94,-87,-23,-38,-228,-363,-127,-110,-107
-118,-80,36,94,-81,-23,-38,-228,-369,-127,-110,-101
-112,-86,24,94,-69,-33,-44,-228,-375,-133,-110,-101
-112,-86,24,94,-69,-33,-44,-228,-375,-133,-110,-101
-118,-104,12,106,-69,-45,-56,-228,-375,-133,-110,-107
-118,-110,6,112,-63,-51,-62,-228,-381,-133,-110,-107
-118,-116,0,112,-63,-57,-68,-228,-375,-133,-104,-101
-118,-122,-5,118,-57,-63,-74,-234,-375,-121,-98,-95
-118,-116,0,112,-63,-57,-74,-228,-369,-115,-98,-89
-106,-104,0,100,-57,-51,-74,-222,-369,-109,-92,-83
-100,-104,-5,94,-51,-57,-74,-222,-369,-109,-92,-77
-100,-104,-5,94,-51,-57,-80,-222,-369,-109,-92,-77
-100,-104,-5,94,-51,-57,-80,-222,-369,-109,-92,-77
-106,-104,0,100,-57,-51,-80,-222,-375,-115,-92,-77
-118,-110,6,112,-63,-51,-80,-216,-369,-115,-92,-77
-112,-98,12,100,-63,-45,-80,-216,-369,-109,-86,-71
-106,-104,0,100,-57,-51,-80,-210,-363,-103,-80,-65
-100,-104,-5,94,-51,-57,-80,-204,-357,-103,-80,-65
-88,-104,-16,88,-39,-63,-86,-216,-363,-97,-74,-71
-82,-104,-22,88,-33,-63,-80,-204,-351,-91,-68,-65
-82,-98,-16,88,-33,-57,-62,-186,-333,-73,-56,-53
-64,-86,-22,70,-22,-57,-44,-156,-321,-61,-44,-41
-47,-80,-34,58,-11,-57,-32,-126,-303,-43,-26,-29
-42,-68,-28,52,-11,-45,-21,-96,-279,-25,-8,-11
-30,-68,-40,47,1,-51,-21,-60,-255,-1,10,1
-6,-92,-88,47,37,-87,-21,-24,-231,17,34,18
6,-116,-124,52,61,-117,-21,16,-201,35,45,23
30,-140,-172,52,97,-153,-21,58,-171,47,50,35
78,-158,-238,42,157,-195,-4,124,-129,58,74,53
132,-188,-322,24,223,-255,20,220,-99,69,86,59
186,-230,-418,24,301,-321,50,352,-45,99,110,83
234,-278,-514,24,373,-393,98,514,33,147,158,113
282,-314,-598,18,439,-453,152,694,145,225,218,161
330,-326,-658,0,493,-489,200,874,283,327,302,221
390,-302,-694,-42,541,-495,260,1090,469,465,416,299
456,-266,-724,-96,589,-495,356,1378,733,651,566,413
528,-194,-724,-168,625,-459,434,1708,1051,891,770,563
630,-92,-724,-270,673,-405,488,2038,1423,1173,998,737
708,-22,-730,-342,721,-375,560,2362,1819,1479,1232,917
744,62,-682,-402,715,-309,614,2529,2155,1755,1442,1073
756,134,-622,-444,691,-243,620,2547,2401,1983,1610,1193
768,206,-562,-486,667,-177,578,2505,2616,2181,1754,1295
768,266,-502,-516,637,-117,530,2457,2820,2367,1874,1379
732,308,-424,-522,577,-57,494,2439,3024,2516,1970,1433
624,338,-286,-480,457,25,494,2398,3204,2648,2030,1451
498,380,-118,-438,307,133,506,2302,3330,2738,2054,1445
360,398,36,-378,163,217,482,2098,3306,2726,2000,1391
234,356,120,-294,55,241,422,1792,3072,2558,1844,1265
126,242,114,-180,7,181,326,1420,2652,2235,1586,1073
24,62,36,-42,-5,49,194,934,1969,1731,1220,809
-52,-122,-70,82,7,-99,74,430,1183,1161,800,509
-118,-266,-148,190,13,-207,-21,82,559,675,446,239
-160,-380,-220,262,25,-303,-86,-120,151,339,188,47
-184,-452,-268,310,37,-363,-146,-252,-111,99,10,-89
-190,-506,-316,346,61,-411,-188,-342,-285,-55,-116,-185
-202,-536,-334,364,61,-435,-218,-390,-405,-157,-194,-233
-196,-542,-346,364,73,-447,-242,-420,-471,-229,-236,-257
-184,-530,-346,352,79,-441,-260,-432,-513,-265,-260,-269
-172,-500,-328,328,73,-417,-260,-432,-525,-277,-260,-263
-166,-464,-298,310,61,-381,-248,-420,-537,-271,-248,-257
-154,-410,-256,280,49,-333,-236,-408,-549,-271,-248,-251
-160,-368,-208,256,19,-291,-218,-396,-549,-265,-236,-239
-172,-338,-166,250,-5,-255,-200,-390,-555,-259,-236,-233
-172,-326,-154,244,-11,-243,-188,-384,-567,-265,-236,-227
-172,-314,-142,238,-17,-231,-182,-384,-579,-277,-242,-227
-178,-308,-130,238,-27,-219,-176,-390,-591,-289,-254,-233
-178,-314,-136,244,-22,-225,-176,-390,-597,-301,-254,-227
-178,-302,-124,238,-27,-213,-176,-390,-603,-301,-254,-227
-178,-278,-100,226,-39,-189,-176,-390,-609,-307,-260,-227
-178,-260,-82,214,-51,-171,-176,-390,-603,-307,-254,-227
-184,-260,-76,214,-57,-171,-170,-390,-609,-301,-254,-227
-208,-266,-58,232,-75,-165,-170,-390,-615,-301,-254,-233
-214,-260,-46,232,-87,-153,-164,-390,-615,-295,-248,-227
-208,-260,-52,226,-81,-159,-164,-390,-621,-307,-254,-233
-202,-266,-64,232,-69,-165,-164,-390,-633,-307,-260,-233
-196,-254,-58,220,-69,-159,-164,-390,-639,-319,-260,-227
-190,-248,-58,214,-69,-153,-164,-384,-645,-319,-260,-227
-190,-248,-58,214,-69,-153,-164,-384,-645,-319,-254,-221
-196,-248,-52,214,-75,-153,-164,-378,-651,-313,-248,-221
-190,-242,-52,214,-69,-147,-164,-384,-645,-319,-254,-221
-196,-236,-40,208,-81,-141,-158,-378,-645,-313,-248,-221
-196,-236,-40,208,-81,-141,-164,-378,-645,-319,-248,-221
-202,-236,-34,214,-87,-135,-170,-384,-651,-319,-260,-227
-208,-242,-34,220,-87,-141,-170,-384,-645,-319,-248,-221
-208,-248,-40,220,-87,-147,-170,-384,-651,-319,-248,-221
-202,-248,-46,220,-81,-147,-170,-378,-651,-313,-254,-221
-190,-242,-52,214,-69,-147,-164,-378,-651,-319,-254,-221
-190,-236,-46,208,-75,-141,-158,-372,-657,-313,-248,-221
-202,-242,-40,220,-81,-141,-158,-366,-651,-313,-248,-221
-196,-230,-34,208,-81,-135,-146,-360,-645,-307,-248,-221
-196,-224,-28,202,-87,-129,-146,-360,-645,-313,-248,-221
-202,-230,-28,214,-87,-129,-146,-354,-639,-313,-248,-221
-202,-230,-28,214,-87,-129,-140,-348,-639,-313,-248,-221
-202,-224,-22,208,-93,-123,-140,-348,-645,-313,-242,-215
-202,-224,-22,208,-93,-123,-140,-342,-639,-319,-236,-209
-202,-224,-22,208,-93,-123,-146,-342,-639,-319,-236,-209
-196,-230,-34,208,-81,-135,-146,-342,-645,-319,-236,-215
-208,-230,-22,214,-93,-129,-146,-342,-639,-313,-236,-209
-214,-224,-10,214,-105,-117,-146,-336,-633,-313,-236,-209
-220,-218,0,214,-111,-111,-146,-330,-633,-313,-242,-215
-208,-218,-10,208,-99,-117,-146,-330,-633,-313,-242,-215
-208,-224,-16,208,-99,-123,-146,-324,-633,-313,-242,-215
-208,-230,-22,214,-93,-129,-140,-318,-627,-307,-236,-209
-214,-224,-10,214,-105,-117,-134,-312,-621,-301,-230,-209
-214,-224,-10,214,-105,-117,-134,-312,-615,-301,-230,-209
-220,-224,-5,214,-111,-117,-140,-306,-615,-295,-236,-203
-220,-218,0,214,-111,-111,-140,-306,-615,-295,-230,-203
-226,-212,12,214,-123,-99,-140,-300,-609,-289,-230,-203
-232,-212,18,214,-129,-99,-134,-300,-615,-295,-236,-203
-220,-212,6,208,-117,-105,-122,-294,-603,-289,-230,-197
-214,-206,6,208,-111,-99,-116,-294,-603,-289,-230,-197
-214,-194,18,202,-117,-87,-116,-294,-609,-295,-236,-203
-220,-188,30,196,-129,-81,-122,-294,-615,-301,-236,-203
-226,-188,36,202,-135,-75,-116,-288,-615,-295,-230,-197
-232,-206,24,214,-129,-93,-116,-288,-615,-295,-230,-191
-232,-206,24,214,-129,-93,-122,-294,-621,-295,-230,-197
-232,-200,30,208,-135,-87,-128,-300,-627,-301,-236,-197
-226,-194,30,208,-129,-81,-134,-300,-621,-301,-242,-197
-232,-194,36,208,-135,-81,-134,-294,-621,-301,-236,-197
-238,-188,48,208,-147,-69,-128,-294,-615,-295,-236,-197
-238,-182,54,208,-147,-63,-128,-288,-621,-295,-236,-197
-238,-176,60,202,-153,-57,-122,-288,-627,-295,-236,-203
-238,-176,60,202,-153,-57,-116,-288,-621,-295,-230,-203
-238,-170,66,202,-153,-51,-116,-294,-627,-289,-230,-203
-238,-170,66,202,-153,-51,-116,-300,-627,-295,-230,-203
-244,-164,78,196,-165,-45,-116,-300,-627,-289,-224,-203
-250,-170,78,208,-165,-45,-116,-300,-627,-289,-224,-203
-250,-176,72,208,-165,-51,-122,-294,-621,-283,-230,-197
-250,-188,60,214,-159,-63,-116,-288,-621,-289,-230,-191
-244,-182,60,208,-153,-63,-116,-282,-615,-283,-230,-185
-244,-170,72,202,-159,-51,-110,-276,-615,-283,-230,-179
-238,-152,84,190,-165,-33,-116,-276,-615,-289,-230,-179
-238,-140,96,184,-171,-23,-116,-270,-615,-289,-224,-173
-256,-134,120,190,-189,-11,-110,-264,-609,-289,-218,-167
-256,-122,132,184,-195,1,-104,-258,-603,-283,-212,-161
-244,-122,120,178,-183,-5,-104,-264,-609,-295,-218,-161
-250,-128,120,184,-189,-5,-98,-252,-597,-289,-212,-149
-262,-128,132,190,-201,1,-92,-246,-591,-289,-212,-143
-268,-128,138,190,-207,1,-92,-240,-585,-283,-212,-143
-262,-122,138,190,-201,7,-92,-234,-585,-283,-206,-149
-250,-98,150,172,-201,25,-86,-222,-573,-271,-200,-143
-244,-86,156,160,-201,31,-74,-210,-567,-265,-194,-137
-226,-74,150,148,-189,37,-74,-198,-555,-253,-188,-131
-220,-68,150,136,-189,37,-62,-186,-543,-247,-182,-125
-214,-62,150,136,-183,43,-56,-174,-525,-235,-170,-119
-220,-40,180,124,-201,67,-50,-162,-513,-229,-164,-113
-220,-22,198,118,-207,85,-38,-144,-501,-223,-152,-101
-208,-4,204,100,-207,97,-32,-126,-483,-211,-146,-95
-196,14,210,88,-201,109,-32,-108,-471,-199,-140,-83
-184,26,210,76,-195,115,-21,-90,-453,-181,-128,-77
-178,32,210,70,-195,121,-21,-72,-435,-163,-116,-65
-172,44,216,58,-195,127,-16,-48,-423,-151,-110,-59
-166,50,216,58,-189,133,-16,-30,-411,-139,-98,-47
-154,62,216,47,-183,139,-4,-13,-387,-121,-80,-35
-148,74,222,36,-183,145,8,10,-363,-103,-62,-17
-136,92,228,18,-183,157,20,34,-339,-91,-44,-5
-130,110,240,12,-183,175,26,58,-309,-73,-32,13
-124,116,240,0,-183,175,32,82,-285,-61,-14,18
-118,122,240,0,-177,181,38,106,-261,-37,4,23
-112,122,234,-6,-171,175,38,124,-237,-25,10,35
-100,134,234,-18,-165,181,44,142,-219,-7,22,41
-88,146,234,-30,-159,187,50,160,-201,5,34,47
-82,152,234,-36,-159,193,56,172,-183,17,45,59
-70,158,228,-42,-147,193,62,190,-159,35,50,71
-58,170,228,-54,-141,199,62,208,-141,47,62,83
-58,176,234,-60,-147,205,68,226,-123,58,74,95
-52,176,228,-66,-141,199,74,238,-105,63,86,107
-47,176,222,-66,-135,199,80,250,-87,75,98,113
-36,182,216,-72,-123,199,80,262,-75,87,110,119
-36,182,216,-72,-123,199,80,274,-63,99,116,125
-36,188,222,-78,-129,205,80,280,-57,111,122,131
-30,194,222,-78,-123,211,80,292,-57,117,122,131
-18,206,222,-90,-117,217,86,292,-51,123,128,131
-24,200,222,-90,-123,211,92,304,-51,129,134,137
-24,206,228,-90,-123,217,98,310,-39,135,140,143
-6,200,204,-96,-105,205,92,310,-39,135,140,143
0,212,210,-108,-105,211,98,310,-27,141,152,149
6,206,198,-102,-93,205,98,316,-21,141,158,149
6,194,186,-96,-87,193,98,316,-15,147,158,143
18,194,174,-102,-75,187,98,322,-9,153,164,143
24,194,168,-108,-69,181,98,328,-9,159,170,143
24,188,162,-108,-69,175,92,334,-3,165,170,137
24,182,156,-102,-63,169,92,328,-3,159,164,131
18,182,162,-96,-69,175,92,334,9,171,170,137
12,188,174,-102,-81,181,104,346,21,177,182,149
12,176,162,-96,-75,169,104,340,21,177,176,149
24,164,138,-96,-57,151,104,334,21,171,176,149
30,158,126,-90,-45,145,104,334,21,177,182,155
48,152,102,-102,-27,127,110,334,15,177,182,161
60,134,72,-96,-5,103,104,334,15,183,182,155
60,146,84,-102,-11,115,104,328,15,183,176,149
54,152,96,-102,-22,127,98,316,15,177,170,137
48,164,114,-108,-33,139,98,310,3,177,170,131
42,158,114,-96,-33,139,104,310,9,177,170,137
36,152,114,-96,-39,133,104,304,-3,177,170,137
42,140,96,-90,-27,121,104,292,-15,165,164,131
48,122,72,-84,-11,97,98,274,-21,153,152,125
48,116,66,-84,-11,91,92,262,-33,141,146,119
60,104,42,-84,7,73,92,250,-39,141,140,113
60,98,36,-78,13,67,92,238,-45,135,128,107
60,98,36,-78,13,67,86,226,-57,129,122,95
54,98,42,-72,7,73,74,214,-75,117,116,83
54,98,42,-72,7,73,68,202,-87,111,110,77
60,98,36,-78,13,67,68,190,-99,105,110,71
60,92,30,-78,13,61,62,178,-111,99,98,59
66,80,12,-72,25,49,56,154,-117,87,86,59
66,74,6,-66,31,43,56,142,-129,81,80,53
60,68,6,-66,25,37,56,130,-135,81,68,53
60,62,0,-60,31,31,62,124,-141,75,62,47
48,50,0,-48,25,25,62,112,-147,75,62,41
48,44,-5,-48,25,19,56,100,-159,63,56,29
48,44,-5,-48,25,19,56,100,-165,58,50,29
60,32,-28,-48,43,1,44,88,-171,47,45,18
66,32,-34,-48,49,1,38,82,-177,41,40,18
54,32,-22,-42,37,7,44,82,-177,41,40,18
60,32,-28,-48,43,1,44,76,-177,47,40,18
54,38,-16,-42,37,13,38,70,-189,41,34,13
54,50,-5,-48,31,25,38,64,-201,35,28,1
54,50,-5,-48,31,25,38,52,-195,35,28,7
60,50,-10,-54,37,19,38,52,-201,29,28,7
66,50,-16,-54,43,19,38,46,-207,23,28,1
66,44,-22,-54,43,13,32,46,-213,17,22,1
66,38,-28,-48,49,7,38,46,-207,11,22,1
66,38,-28,-48,49,7,32,34,-219,5,16,1
60,44,-16,-54,37,13,32,34,-219,-1,10,-5
54,50,-5,-48,31,25,38,28,-219,5,10,-5
48,44,-5,-48,25,19,38,28,-219,11,10,-5
42,44,0,-42,19,25,38,28,-219,11,10,-5
48,56,6,-54,19,31,38,34,-213,11,10,-5
54,56,0,-54,25,31,38,34,-207,11,10,-5
60,50,-10,-54,37,19,38,28,-201,5,4,-5
60,56,-5,-60,31,25,32,22,-201,5,4,-5
78,56,-22,-66,49,19,32,22,-201,5,10,1
72,56,-16,-66,43,19,38,28,-195,11,22,7
60,56,-5,-60,31,25,44,34,-195,17,22,7
54,68,12,-60,19,43,44,34,-195,17,28,7
54,68,12,-60,19,43,50,40,-195,17,28,7
60,68,6,-66,25,37,56,40,-195,23,28,7
66,86,18,-72,25,55,50,40,-195,17,28,7
66,92,24,-78,19,61,50,40,-195,23,28,7
72,92,18,-84,25,55,50,40,-189,17,28,7
78,104,24,-90,25,67,44,40,-183,17,28,7
72,110,36,-90,19,73,44,34,-183,17,28,1
66,104,36,-84,13,73,44,34,-183,17,28,7
66,98,30,-78,19,67,50,34,-177,17,34,7
66,98,30,-78,19,67,50,28,-177,11,28,13
72,104,30,-90,19,67,44,22,-177,5,22,7
72,98,24,-84,25,61,50,22,-165,-1,16,7
72,86,12,-78,31,49,50,22,-153,5,16,13
78,92,12,-84,31,55,50,22,-141,5,16,7
78,104,24,-90,25,67,50,22,-123,11,16,7
84,116,30,-102,25,73,56,22,-105,11,16,7
96,122,24,-108,37,73,50,16,-93,5,10,1
84,122,36,-102,25,79,44,16,-87,5,10,1
78,110,30,-90,25,73,44,10,-75,5,10,1
78,98,18,-84,31,61,44,16,-51,11,16,1
78,92,12,-84,31,55,44,16,-39,11,16,1
72,92,18,-84,25,55,44,10,-27,11,16,1
72,110,36,-90,19,73,32,10,-21,11,16,7
78,122,42,-96,19,85,32,4,-15,5,16,7
72,116,42,-96,13,79,32,-2,-15,5,10,1
72,116,42,-96,13,79,32,-2,-9,-1,4,1
84,122,36,-102,25,79,32,-8,-9,-1,4,7
84,134,48,-108,19,91,32,-8,-3,-1,4,7
90,122,30,-102,31,79,32,-8,3,-1,-2,13
84,122,36,-102,25,79,32,-8,3,-7,-2,13
84,116,30,-102,25,73,32,-8,9,-7,-2,13
78,122,42,-96,19,85,32,-8,15,-7,-2,18
72,134,60,-102,7,97,32,-8,27,-1,4,18
72,122,48,-96,13,85,32,-8,27,-7,4,18
78,110,30,-90,25,73,26,-8,33,-7,4,13
78,110,30,-90,25,73,26,-13,33,-7,-2,7
84,110,24,-96,31,67,20,-13,39,-13,-2,1
84,110,24,-96,31,67,20,-13,39,-13,-2,1
90,110,18,-96,37,67,20,-13,39,-19,-8,1
90,116,24,-102,31,73,14,-18,39,-19,-14,1
96,122,24,-108,37,73,14,-18,39,-25,-20,1
96,110,12,-102,43,61,8,-24,39,-31,-26,7
90,110,18,-96,37,67,8,-30,39,-37,-26,1
90,116,24,-102,31,73,8,-36,39,-43,-32,1
90,110,18,-96,37,67,14,-30,45,-49,-26,1
102,116,12,-108,43,67,8,-36,39,-49,-26,1
102,128,24,-114,37,79,8,-36,33,-55,-32,-5
90,122,30,-102,31,79,14,-36,39,-49,-32,-5
90,110,18,-96,37,67,14,-36,39,-49,-32,1
90,104,12,-96,37,61,8,-42,27,-55,-32,-5
90,104,12,-96,37,61,8,-48,33,-49,-32,1
96,92,-5,-96,49,43,8,-48,33,-49,-32,1
96,92,-5,-96,49,43,8,-54,33,-49,-32,1
102,98,-5,-96,55,49,14,-54,33,-55,-32,-5
102,104,0,-102,49,55,20,-60,39,-61,-32,-5
102,104,0,-102,49,55,14,-60,33,-61,-32,-11
102,104,0,-102,49,55,14,-60,33,-67,-32,-11
108,104,-5,-108,55,49,14,-60,33,-61,-32,-11
114,110,-5,-108,61,55,8,-60,33,-61,-38,-11
114,104,-10,-108,61,49,14,-60,33,-61,-38,-11
120,104,-16,-114,67,43,2,-66,39,-61,-44,-11
114,110,-5,-108,61,55,2,-66,39,-61,-44,-11
114,116,0,-114,55,61,-4,-72,39,-67,-44,-17
114,122,6,-114,55,67,2,-72,39,-67,-44,-23
120,116,-5,-120,61,55,8,-72,33,-67,-44,-23
114,104,-10,-108,61,49,8,-78,33,-73,-44,-29
114,92,-22,-102,67,37,2,-84,33,-73,-50,-35
114,86,-28,-96,73,31,2,-84,33,-79,-56,-35
114,86,-28,-96,73,31,-4,-90,33,-79,-56,-29
114,86,-28,-96,73,31,-4,-84,39,-79,-56,-23
108,92,-16,-102,61,37,-4,-84,33,-79,-56,-29
102,92,-10,-96,55,43,-10,-90,33,-91,-62,-35
108,86,-22,-96,67,31,-10,-96,27,-91,-68,-35
108,80,-28,-96,67,25,-10,-96,27,-97,-68,-41
108,86,-22,-96,67,31,-4,-102,27,-91,-68,-41
108,86,-22,-96,67,31,-4,-102,33,-91,-68,-41
102,86,-16,-90,61,37,-4,-96,39,-85,-68,-41
102,80,-22,-90,61,31,2,-96,39,-85,-68,-41
96,80,-16,-90,55,31,2,-90,45,-91,-68,-41
96,86,-10,-90,55,37,2,-90,45,-85,-68,-35
102,74,-28,-84,67,25,-4,-90,45,-85,-68,-35
102,68,-34,-84,67,19,-4,-96,45,-85,-68,-41
108,80,-28,-96,67,25,2,-96,51,-79,-56,-29
108,80,-28,-96,67,25,8,-96,57,-79,-56,-29
102,74,-28,-84,67,25,2,-102,45,-85,-62,-35
96,80,-16,-90,55,31,-4,-102,45,-85,-68,-35
96,86,-10,-90,55,37,-10,-102,45,-91,-68,-41
102,92,-10,-96,55,43,-4,-96,45,-97,-74,-35
108,92,-16,-102,61,37,-4,-96,45,-85,-74,-35
108,98,-10,-102,61,43,-10,-96,45,-91,-68,-35
108,104,-5,-108,55,49,-10,-96,45,-91,-74,-41
108,92,-16,-102,61,37,-10,-102,39,-97,-74,-41
114,80,-34,-96,73,25,-10,-102,39,-91,-74,-41
114,80,-34,-96,73,25,-10,-108,39,-91,-74,-47
114,86,-28,-96,73,31,-10,-108,33,-91,-80,-41
120,80,-40,-102,79,19,-10,-108,33,-91,-80,-47
102,92,-10,-96,55,43,-10,-114,33,-97,-74,-47
102,86,-16,-90,61,37,-10,-114,27,-97,-74,-47
102,86,-16,-90,61,37,-10,-108,21,-97,-74,-47
96,92,-5,-96,49,43,-4,-102,27,-91,-74,-41
102,92,-10,-96,55,43,-4,-102,27,-91,-74,-41
102,80,-22,-90,61,31,-10,-108,21,-91,-80,-47
108,68,-40,-90,73,13,-16,-114,21,-91,-86,-53
108,56,-52,-84,79,1,-16,-114,21,-91,-80,-53
114,62,-52,-84,85,7,-16,-114,15,-91,-74,-53
108,68,-40,-90,73,13,-16,-114,9,-97,-74,-53
96,74,-22,-84,61,25,-16,-114,9,-91,-68,-53
102,80,-22,-90,61,31,-10,-108,9,-97,-68,-47
102,86,-16,-90,61,37,-10,-108,9,-97,-68,-47
102,92,-10,-96,55,43,-16,-114,9,-97,-68,-47
102,92,-10,-96,55,43,-21,-114,9,-91,-68,-47
102,92,-10,-96,55,43,-16,-120,9,-97,-68,-47
108,92,-16,-102,61,37,-16,-120,9,-97,-68,-47
108,98,-10,-102,61,43,-16,-114,9,-91,-68,-47
114,92,-22,-102,67,37,-10,-108,15,-91,-62,-41
108,80,-28,-96,67,25,-10,-108,15,-85,-62,-41
102,68,-34,-84,67,19,-16,-114,9,-91,-68,-47
102,68,-34,-84,67,19,-16,-114,9,-91,-68,-47
90,56,-34,-72,61,13,-21,-120,3,-91,-68,-47
84,44,-40,-66,61,1,-26,-120,-3,-97,-74,-53
66,32,-34,-48,49,1,-21,-120,-9,-97,-74,-53
60,32,-28,-48,43,1,-21,-120,-15,-97,-74,-53
60,38,-22,-48,43,7,-21,-114,-15,-97,-74,-59
78,38,-40,-54,61,1,-16,-108,-9,-97,-74,-59
84,50,-34,-66,61,7,-21,-108,-9,-103,-74,-59
84,44,-40,-66,61,1,-21,-120,-9,-109,-74,-65
90,44,-46,-66,67,1,-21,-120,-9,-109,-74,-65
96,56,-40,-78,67,7,-21,-120,-9,-109,-80,-65
90,62,-28,-72,61,19,-21,-126,-9,-115,-74,-59
84,50,-34,-66,61,7,-21,-120,-15,-109,-68,-59
72,38,-34,-54,55,1,-21,-120,-9,-109,-68,-53
78,44,-34,-60,55,7,-21,-120,-9,-109,-68,-53
78,56,-22,-66,49,19,-26,-132,-9,-109,-68,-53
72,50,-22,-60,49,13,-21,-132,-9,-103,-68,-59
78,56,-22,-66,49,19,-21,-132,-9,-103,-68,-59
78,62,-16,-66,49,25,-21,-138,-15,-109,-74,-65
84,62,-22,-72,55,19,-21,-132,-21,-103,-80,-65
66,50,-16,-54,43,19,-21,-138,-27,-109,-86,-71
60,56,-5,-60,31,25,-21,-138,-33,-109,-86,-71
60,50,-10,-54,37,19,-26,-144,-33,-115,-86,-77
60,44,-16,-54,37,13,-38,-138,-33,-115,-86,-71
60,44,-16,-54,37,13,-38,-132,-27,-109,-74,-65
72,50,-22,-60,49,13,-44,-132,-21,-109,-74,-59
84,56,-28,-72,55,13,-44,-138,-21,-103,-74,-65
78,62,-16,-66,49,25,-44,-138,-27,-109,-80,-65
72,56,-16,-66,43,19,-32,-138,-27,-103,-86,-71
66,44,-22,-54,43,13,-26,-132,-27,-103,-80,-65
54,26,-28,-36,43,1,-21,-132,-33,-103,-80,-65
48,14,-34,-30,43,-11,-21,-138,-39,-103,-80,-65
48,26,-22,-36,37,1,-26,-138,-33,-109,-80,-65
48,38,-10,-42,31,13,-26,-138,-33,-103,-74,-65
54,50,-5,-48,31,25,-26,-144,-21,-103,-68,-59
60,62,0,-60,31,31,-26,-138,-15,-97,-68,-59
54,80,24,-66,13,55,-21,-126,-9,-91,-62,-59
42,80,36,-60,1,61,-16,-114,3,-91,-62,-53
42,86,42,-60,1,67,-4,-108,15,-73,-50,-41
48,92,42,-72,1,67,8,-102,15,-73,-44,-41
42,98,54,-66,-5,79,14,-96,15,-61,-44,-35
42,104,60,-72,-11,85,26,-90,15,-55,-38,-29
42,116,72,-78,-17,97,38,-84,27,-43,-32,-17
42,128,84,-84,-22,109,50,-78,39,-37,-26,-11
36,140,102,-90,-33,121,56,-78,51,-31,-20,-5
24,140,114,-84,-45,127,62,-72,51,-25,-14,1
24,146,120,-84,-45,133,62,-66,57,-25,-14,1
30,164,132,-96,-51,151,68,-60,69,-19,-8,1
24,164,138,-96,-57,151,74,-48,75,-13,4,7
30,182,150,-102,-57,169,80,-42,81,-7,10,13
48,200,150,-126,-51,175,98,-24,93,11,22,18
60,212,150,-138,-45,181,110,-13,105,23,34,29
60,206,144,-132,-39,175,116,-2,115,35,40,41
60,218,156,-138,-45,187,122,-2,115,35,40,41
66,242,174,-150,-51,211,122,4,121,35,45,41
60,248,186,-156,-63,217,128,-2,121,41,45,41
54,236,180,-144,-63,211,134,4,121,35,40,41
48,224,174,-138,-63,199,134,-2,110,29,34,29
48,212,162,-132,-57,187,128,-13,99,23,22,18
48,194,144,-120,-45,169,122,-18,87,11,10,18
36,176,138,-108,-51,157,116,-30,69,5,-2,7
36,170,132,-102,-45,151,104,-48,57,-13,-14,-5
30,152,120,-90,-45,139,104,-60,39,-31,-26,-17
24,140,114,-84,-45,127,98,-66,27,-37,-38,-29
24,122,96,-72,-33,109,92,-72,27,-43,-44,-35
30,116,84,-72,-27,103,80,-78,21,-49,-44,-35
42,110,66,-72,-11,91,74,-84,21,-55,-44,-35
54,104,48,-78,1,79,62,-90,15,-49,-44,-35
54,104,48,-78,1,79,56,-96,3,-55,-50,-41
48,98,48,-72,1,73,44,-102,-3,-61,-56,-47
48,92,42,-72,1,67,38,-108,-15,-67,-62,-47
48,86,36,-66,7,61,32,-108,-15,-73,-68,-47
42,86,42,-60,1,67,20,-108,-21,-73,-68,-47
24,74,48,-48,-11,61,14,-114,-15,-79,-68,-47
30,62,30,-42,1,49,8,-114,-9,-73,-62,-47
48,56,6,-54,19,31,-4,-120,-9,-79,-62,-47
42,56,12,-48,13,37,-10,-120,-15,-85,-62,-53
42,50,6,-42,19,31,-16,-114,-9,-73,-56,-53
48,50,0,-48,25,25,-16,-114,-3,-73,-56,-53
48,44,-5,-48,25,19,-21,-108,-3,-67,-56,-53
54,56,0,-54,25,31,-16,-108,-3,-67,-56,-47
54,56,0,-54,25,31,-21,-108,-3,-67,-56,-47
54,56,0,-54,25,31,-21,-108,-9,-67,-56,-41
54,56,0,-54,25,31,-21,-102,-3,-61,-50,-35
60,56,-5,-60,31,25,-21,-96,3,-55,-44,-29
72,62,-10,-66,43,25,-21,-96,9,-55,-44,-23
72,62,-10,-66,43,25,-21,-96,9,-43,-44,-17
84,68,-16,-78,49,25,-21,-84,9,-37,-38,-11
84,74,-10,-78,49,31,-21,-78,15,-25,-32,1
78,74,-5,-72,43,37,-16,-66,27,-13,-20,7
84,80,-5,-84,43,37,-4,-48,39,-7,-14,18
84,86,0,-84,43,43,2,-42,51,5,-8,23
96,86,-10,-90,55,37,8,-24,69,11,-2,29
108,86,-22,-96,67,31,20,-8,81,17,10,41
132,92,-40,-114,85,25,20,16,105,35,28,59
150,92,-58,-120,103,19,20,40,121,53,45,71
174,80,-94,-126,133,-5,20,76,151,63,56,89
192,50,-142,-120,169,-45,32,124,187,81,74,101
210,26,-184,-114,199,-75,32,172,211,99,92,113
240,2,-238,-120,241,-117,44,238,241,111,104,119
288,-34,-322,-126,307,-177,68,334,277,123,116,119
348,-56,-406,-150,373,-231,98,460,331,153,146,143
408,-80,-490,-168,445,-285,146,622,421,201,194,173
474,-98,-574,-186,523,-333,194,802,535,279,260,221
540,-92,-634,-228,583,-363,242,976,679,381,338,287
594,-74,-670,-258,631,-369,308,1186,871,519,458,383
648,-51,-700,-300,673,-375,404,1474,1129,711,608,497
720,-4,-724,-360,721,-363,488,1798,1441,945,812,647
798,80,-718,-438,757,-315,548,2128,1801,1233,1040,821
858,146,-712,-498,787,-279,614,2445,2185,1527,1274,989
894,230,-664,-558,781,-213,668,2625,2515,1803,1478,1133
924,344,-580,-636,751,-117,674,2655,2766,2025,1646,1247
942,422,-520,-678,733,-45,632,2613,2982,2217,1784,1349
954,500,-454,-726,703,25,590,2571,3186,2391,1904,1433
930,566,-364,-744,649,103,566,2553,3396,2552,2006,1499
822,596,-226,-708,523,187,572,2511,3570,2684,2066,1529
684,620,-64,-654,373,277,584,2409,3684,2774,2084,1517
546,620,72,-582,235,349,560,2200,3642,2756,2030,1451
414,554,138,-480,139,349,494,1894,3402,2576,1874,1319
300,422,120,-360,91,271,392,1528,2976,2259,1622,1121
192,242,48,-216,73,145,254,1030,2281,1749,1238,839
102,62,-40,-78,73,13,134,532,1507,1179,824,539
36,-86,-124,24,79,-105,38,196,913,723,482,293
-6,-188,-184,94,85,-183,-21,-8,529,393,230,107
-30,-254,-226,142,97,-237,-74,-138,271,159,50,-11
-36,-314,-280,172,121,-297,-116,-222,105,5,-62,-83
-42,-344,-304,190,127,-321,-152,-276,-3,-91,-140,-131
-30,-350,-322,190,145,-333,-176,-300,-75,-151,-182,-149
-6,-344,-340,172,163,-339,-200,-312,-123,-181,-206,-161
12,-326,-340,154,175,-333,-212,-312,-147,-205,-218,-167
12,-284,-298,130,151,-291,-200,-300,-165,-199,-206,-155
24,-218,-244,94,133,-231,-176,-276,-165,-187,-194,-137
36,-164,-202,58,115,-183,-146,-258,-165,-175,-194,-131
36,-116,-154,36,91,-135,-128,-246,-171,-175,-188,-119
30,-92,-124,30,73,-105,-110,-240,-171,-181,-188,-113
24,-98,-124,36,73,-111,-110,-240,-177,-187,-188,-107
18,-110,-130,47,73,-117,-104,-246,-183,-199,-188,-113
12,-104,-118,42,61,-111,-110,-252,-189,-205,-194,-119
6,-110,-118,52,61,-111,-110,-264,-195,-217,-200,-113
0,-104,-106,47,49,-105,-110,-276,-201,-217,-200,-113
0,-86,-88,42,43,-87,-110,-276,-207,-217,-200,-119
0,-62,-64,30,31,-63,-110,-276,-213,-217,-200,-113
6,-51,-58,24,31,-51,-110,-276,-219,-223,-194,-113
6,-46,-52,24,31,-45,-110,-270,-219,-229,-194,-113
6,-51,-58,24,31,-51,-110,-270,-219,-235,-200,-113
0,-51,-52,24,25,-51,-110,-264,-219,-241,-200,-119
12,-51,-64,18,37,-57,-116,-270,-225,-247,-206,-125
12,-51,-64,18,37,-57,-116,-270,-225,-247,-206,-131
6,-51,-58,24,31,-51,-116,-270,-225,-247,-206,-131
0,-51,-52,24,25,-51,-116,-270,-225,-247,-206,-131
0,-51,-52,24,25,-51,-110,-270,-225,-235,-200,-131
0,-51,-52,24,25,-51,-110,-276,-231,-241,-200,-131
0,-51,-52,24,25,-51,-104,-276,-231,-235,-194,-125
-6,-46,-40,30,19,-39,-110,-270,-225,-241,-194,-131
-6,-34,-28,24,13,-28,-104,-270,-225,-241,-194,-131
-12,-40,-28,24,7,-33,-110,-270,-225,-247,-188,-131
-12,-46,-34,30,13,-39,-104,-270,-219,-241,-188,-125
-12,-40,-28,24,7,-33,-104,-264,-219,-241,-188,-125
-12,-40,-28,24,7,-33,-104,-264,-219,-241,-188,-125
-12,-40,-28,24,7,-33,-104,-264,-225,-241,-194,-131
-12,-40,-28,24,7,-33,-98,-258,-225,-241,-194,-131
0,-34,-34,18,19,-33,-98,-258,-231,-235,-194,-131
-12,-46,-34,30,13,-39,-98,-258,-231,-235,-188,-131
-18,-46,-28,36,7,-33,-92,-258,-225,-229,-188,-125
-12,-40,-28,24,7,-33,-92,-258,-225,-229,-182,-131
-18,-40,-22,30,1,-28,-86,-258,-219,-229,-188,-131
-24,-40,-16,30,-5,-28,-86,-258,-207,-229,-182,-125
-24,-40,-16,30,-5,-28,-86,-258,-201,-223,-182,-125
-12,-22,-10,18,1,-17,-92,-258,-195,-223,-182,-119
-12,-16,-5,12,-5,-11,-86,-252,-189,-217,-176,-119
-12,-28,-16,18,1,-23,-80,-246,-177,-217,-176,-113
-12,-34,-22,24,7,-28,-80,-246,-177,-217,-176,-113
-24,-28,-5,24,-11,-17,-80,-246,-183,-217,-182,-119
-24,-28,-5,24,-11,-17,-80,-246,-177,-223,-182,-119
-12,-22,-10,18,1,-17,-80,-246,-177,-223,-182,-125
0,-10,-10,6,7,-11,-80,-240,-171,-223,-182,-119
-6,-16,-10,12,1,-11,-74,-234,-165,-211,-176,-119
-6,-16,-10,12,1,-11,-68,-234,-159,-211,-176,-119
6,-4,-10,0,7,-5,-68,-234,-159,-205,-176,-119
12,-10,-22,0,19,-17,-74,-234,-153,-205,-170,-125
-6,-10,-5,12,1,-5,-68,-234,-153,-211,-164,-125
-18,2,18,12,-17,13,-68,-228,-147,-205,-164,-125
-18,14,30,6,-22,25,-68,-234,-147,-205,-158,-119
-18,14,30,6,-22,25,-62,-234,-141,-205,-158,-113
-18,14,30,6,-22,25,-62,-228,-135,-205,-152,-113
-18,8,24,6,-22,19,-62,-234,-129,-199,-158,-113
-18,2,18,12,-17,13,-56,-228,-123,-199,-152,-113
-24,2,24,12,-22,13,-62,-234,-129,-205,-164,-119
-24,14,36,6,-27,25,-56,-240,-135,-211,-170,-125
-6,20,24,-6,-17,25,-56,-240,-135,-211,-170,-119
-24,14,36,6,-27,25,-56,-240,-129,-205,-170,-119
-24,14,36,6,-27,25,-56,-240,-129,-199,-164,-113
-30,8,36,12,-33,25,-56,-234,-123,-193,-164,-107
-36,8,42,12,-39,25,-62,-240,-129,-199,-164,-113
-42,20,60,12,-51,43,-62,-246,-129,-199,-164,-113
-36,32,66,0,-51,49,-68,-240,-129,-199,-170,-119
-36,38,72,0,-51,55,-62,-240,-129,-199,-164,-119
-30,44,72,-6,-51,61,-62,-240,-123,-199,-164,-119
-30,38,66,0,-45,55,-50,-234,-117,-193,-158,-113
-30,38,66,0,-45,55,-50,-234,-111,-187,-158,-107
-42,38,78,6,-57,61,-50,-234,-111,-187,-170,-113
-47,50,96,0,-69,73,-44,-234,-105,-187,-170,-113
-47,56,102,-6,-75,79,-44,-228,-99,-187,-170,-107
-42,62,102,-6,-69,85,-44,-222,-99,-181,-164,-101
-47,56,102,-6,-75,79,-38,-216,-99,-181,-164,-101
-47,56,102,-6,-75,79,-38,-210,-99,-187,-158,-95
-47,68,114,-12,-81,91,-32,-204,-99,-181,-152,-95
-47,68,114,-12,-81,91,-32,-198,-93,-181,-152,-95
-47,86,132,-18,-87,109,-32,-198,-93,-175,-146,-95
-42,104,144,-30,-93,127,-26,-192,-99,-175,-146,-95
-42,98,138,-24,-87,121,-21,-180,-93,-169,-140,-89
-42,98,138,-24,-87,121,-16,-168,-87,-157,-134,-83
-42,104,144,-30,-93,127,-16,-162,-75,-151,-128,-83
-42,104,144,-30,-93,127,-10,-150,-69,-133,-122,-71
-47,110,156,-30,-99,133,-10,-138,-57,-127,-122,-71
-47,110,156,-30,-99,133,-4,-126,-51,-121,-116,-59
-42,134,174,-42,-105,157,2,-120,-39,-109,-104,-53
-42,146,186,-48,-111,169,2,-108,-33,-109,-98,-47
-47,146,192,-48,-117,169,8,-96,-21,-97,-86,-41
-47,152,198,-54,-123,175,8,-84,-9,-91,-80,-35
-36,158,192,-60,-111,175,20,-66,-3,-85,-68,-29
-42,170,210,-60,-123,193,26,-42,21,-67,-56,-17
-42,176,216,-66,-129,199,38,-18,39,-55,-44,-11
-30,182,210,-72,-117,199,38,-8,51,-43,-38,-5
-18,194,210,-84,-111,205,44,10,69,-31,-26,7
-18,194,210,-84,-111,205,50,22,93,-13,-14,18
-18,206,222,-90,-117,217,50,40,110,5,-8,23
-12,218,228,-102,-117,223,50,52,127,11,4,23
0,224,222,-114,-111,223,56,76,145,23,10,35
-12,224,234,-108,-123,229,68,100,175,41,28,47
-12,218,228,-102,-117,223,74,118,193,58,40,53
-18,218,234,-96,-123,229,80,136,205,63,45,59
-6,224,228,-108,-117,229,86,154,223,75,56,65
0,236,234,-120,-117,235,86,166,235,87,68,71
0,242,240,-120,-117,241,92,184,253,99,80,83
6,248,240,-126,-117,247,92,196,265,117,86,95
12,254,240,-132,-111,247,92,208,283,129,92,101
18,248,228,-132,-105,241,98,220,289,141,104,107
12,248,234,-132,-111,241,98,232,307,141,110,113
12,236,222,-126,-105,229,98,238,313,141,116,113
18,236,216,-126,-99,229,98,250,331,153,122,119
24,236,210,-132,-93,223,104,256,337,159,128,125
24,236,210,-132,-93,223,104,262,349,171,134,131
24,236,210,-132,-93,223,110,274,355,177,140,137
30,236,204,-132,-87,223,104,274,361,177,140,143
24,230,204,-126,-87,217,104,280,367,183,146,143
24,224,198,-126,-87,211,104,286,367,183,146,143
30,224,192,-126,-81,211,104,292,373,189,152,143
30,224,192,-126,-81,211,104,298,373,189,152,143
30,218,186,-120,-75,205,104,298,379,189,158,143
42,218,174,-126,-63,199,104,298,379,195,158,143
48,218,168,-132,-57,193,104,298,385,195,158,149
48,212,162,-132,-57,187,104,298,385,207,158,149
48,200,150,-126,-51,175,104,304,391,207,164,149
42,188,144,-114,-51,169,104,304,403,213,164,149
42,188,144,-114,-51,169,104,304,403,213,170,155
54,194,138,-120,-39,169,110,310,409,213,176,155
54,194,138,-120,-39,169,116,310,409,219,182,155
60,194,132,-126,-33,163,116,310,409,219,176,149
54,188,132,-120,-39,163,110,304,409,219,176,143
54,176,120,-114,-33,151,110,298,403,219,176,143
48,164,114,-108,-33,139,104,298,397,225,170,149
48,158,108,-102,-27,133,104,286,391,219,164,143
48,146,96,-96,-22,121,104,286,385,219,164,143
48,134,84,-90,-17,109,92,274,367,213,152,131
60,140,78,-102,-11,109,86,262,361,201,146,119
66,140,72,-102,-5,109,80,250,349,195,146,107
60,128,66,-96,-5,97,80,244,343,189,146,107
60,122,60,-90,1,91,80,232,337,183,140,101
60,110,48,-84,7,79,80,220,337,177,134,101
54,92,36,-72,7,67,80,208,325,171,122,95
48,86,36,-66,7,61,74,190,313,159,110,89
48,80,30,-66,7,55,74,172,301,147,98,83
42,80,36,-60,1,61,74,160,295,147,92,77
42,74,30,-54,7,55,68,148,277,135,80,71
48,62,12,-54,19,37,56,124,259,123,62,53
48,56,6,-54,19,31,50,112,247,111,62,53
48,50,0,-48,25,25,50,100,235,99,56,47
42,38,-5,-36,25,19,44,94,223,87,50,35
36,20,-16,-30,25,1,38,82,211,75,45,35
36,2,-34,-18,37,-17,38,76,211,75,40,35
30,14,-16,-18,25,1,38,70,205,69,34,29
24,26,0,-24,13,13,38,58,205,75,34,29
24,20,-5,-24,13,7,32,52,199,69,28,18
24,14,-10,-18,19,1,32,46,187,63,22,18
30,8,-22,-18,25,-5,26,40,181,58,16,13
24,-4,-28,-12,25,-17,26,28,163,58,10,1
18,-16,-34,0,25,-23,26,22,151,53,10,-5
12,-16,-28,0,19,-23,26,16,145,41,-2,-5
12,-22,-34,6,25,-28,32,16,139,47,4,-5
6,-28,-34,12,19,-28,32,4,139,41,4,1
6,-22,-28,12,19,-23,26,-13,127,35,-8,-5
0,-28,-28,12,13,-28,26,-13,127,29,-14,-5
0,-34,-34,18,19,-33,26,-18,127,23,-14,-11
6,-34,-40,18,25,-33,26,-24,121,23,-14,-11
12,-28,-40,6,25,-33,26,-18,127,23,-8,-5
12,-16,-28,0,19,-23,26,-24,121,29,-14,-11
12,-10,-22,0,19,-17,26,-18,121,29,-14,-11
12,-10,-22,0,19,-17,26,-18,115,29,-14,-11
12,2,-10,-6,13,-5,26,-18,115,23,-14,-17
12,8,-5,-12,7,1,26,-24,115,29,-14,-17
12,8,-5,-12,7,1,32,-24,121,23,-14,-11
12,8,-5,-12,7,1,26,-24,121,23,-8,-11
6,14,6,-6,1,13,32,-30,115,23,-8,-11
-6,14,18,0,-11,19,38,-30,115,23,-8,-11
-6,14,18,0,-11,19,38,-36,110,17,-14,-17
-6,2,6,6,-5,7,38,-30,115,11,-20,-11
6,-4,-10,0,7,-5,44,-30,115,17,-20,-11
0,-4,-5,0,1,-5,38,-30,110,17,-20,-11
-12,-4,6,6,-11,1,32,-30,110,17,-20,-11
-12,-4,6,6,-11,1,32,-36,105,17,-20,-17
-12,-4,6,6,-11,1,32,-30,105,17,-14,-11
-6,-4,0,6,-5,1,32,-30,105,23,-14,-5
-6,2,6,6,-5,7,32,-36,93,11,-14,-5
6,8,0,-6,1,7,26,-42,93,11,-20,-11
-6,14,18,0,-11,19,32,-42,87,-1,-20,-11
-24,8,30,6,-27,19,32,-42,81,5,-20,-11
-30,8,36,12,-33,25,44,-42,75,5,-20,-11
-30,8,36,12,-33,25,38,-48,69,-1,-26,-11
-24,8,30,6,-27,19,38,-48,69,-1,-20,-17
-12,26,36,-6,-22,31,32,-48,69,-7,-20,-11
0,32,30,-18,-17,31,26,-54,69,-1,-20,-5
0,26,24,-12,-11,25,26,-60,63,-7,-26,-5
0,20,18,-12,-11,19,20,-66,63,-7,-32,-5
0,20,18,-12,-11,19,26,-66,57,-7,-32,1
-6,20,24,-6,-17,25,26,-66,57,-7,-32,7
0,20,18,-12,-11,19,20,-72,51,-7,-32,7
0,20,18,-12,-11,19,26,-72,51,-7,-26,13
-18,14,30,6,-22,25,32,-66,57,-1,-20,13
-24,14,36,6,-27,25,32,-66,51,-7,-14,18
-30,26,54,6,-39,43,26,-72,45,-7,-20,13
-30,20,48,6,-39,37,26,-72,45,-13,-14,18
-30,14,42,12,-33,31,20,-72,45,-7,-14,23
-24,26,48,0,-33,37,20,-78,45,-7,-14,29
-24,26,48,0,-33,37,14,-84,33,-13,-20,23
-24,20,42,0,-33,31,14,-90,33,-19,-26,23
-18,14,30,6,-22,25,14,-96,27,-25,-32,23
-18,8,24,6,-22,19,14,-90,27,-19,-32,23
-6,20,24,-6,-17,25,8,-96,27,-25,-32,18
-12,20,30,-6,-22,25,2,-96,27,-31,-32,13
-12,14,24,0,-17,19,8,-90,27,-31,-32,13
-12,8,18,0,-17,13,8,-90,27,-31,-32,13
-12,14,24,0,-17,19,2,-90,21,-37,-26,7
-12,26,36,-6,-22,31,2,-96,21,-37,-26,1
-6,32,36,-12,-22,37,2,-96,15,-37,-26,1
0,26,24,-12,-11,25,8,-96,9,-43,-32,-5
0,20,18,-12,-11,19,2,-102,-3,-43,-38,-11
-12,8,18,0,-17,13,2,-102,-15,-49,-38,-11
-18,2,18,12,-17,13,2,-102,-9,-49,-38,-11
-24,2,24,12,-22,13,2,-108,-15,-55,-38,-11
-24,2,24,12,-22,13,2,-114,-21,-61,-38,-5
-18,-4,12,12,-17,7,-4,-120,-27,-61,-44,-5
-12,-10,0,12,-5,-5,-10,-120,-33,-67,-44,-5
-12,-16,-5,12,-5,-11,-16,-126,-33,-67,-44,-5
-12,-16,-5,12,-5,-11,-16,-120,-33,-67,-50,-5
-6,-10,-5,12,1,-5,-10,-120,-33,-61,-50,-11
0,-16,-16,6,7,-17,-16,-120,-39,-67,-50,-11
6,-16,-22,6,13,-17,-16,-126,-45,-73,-62,-17
-6,-10,-5,12,1,-5,-10,-126,-45,-73,-62,-17
-12,-4,6,6,-11,1,-4,-126,-45,-79,-62,-17
-12,2,12,6,-11,7,-4,-126,-51,-85,-62,-23
-6,-4,0,6,-5,1,-10,-126,-51,-91,-68,-23
-6,2,6,6,-5,7,-16,-132,-51,-85,-62,-23
-6,-10,-5,12,1,-5,-16,-132,-51,-85,-62,-23
-6,-10,-5,12,1,-5,-16,-132,-45,-85,-68,-29
6,-16,-22,6,13,-17,-21,-138,-57,-91,-74,-35
0,-22,-22,12,13,-23,-16,-144,-51,-91,-80,-41
-6,-22,-16,18,7,-17,-10,-150,-57,-97,-80,-41
-6,-10,-5,12,1,-5,-21,-150,-57,-103,-80,-41
-12,-16,-5,12,-5,-11,-21,-150,-57,-103,-80,-41
-6,-16,-10,12,1,-11,-21,-150,-57,-109,-74,-41
0,-16,-16,6,7,-17,-26,-162,-69,-115,-80,-47
-12,-22,-10,18,1,-17,-26,-156,-75,-115,-80,-41
-18,-28,-10,24,-5,-17,-26,-150,-69,-109,-80,-35
-24,-34,-10,30,-5,-23,-26,-150,-75,-103,-80,-35
-18,-34,-16,30,1,-23,-32,-144,-81,-109,-80,-41
-18,-34,-16,30,1,-23,-26,-144,-81,-97,-80,-41
-12,-40,-28,24,7,-33,-26,-144,-81,-97,-74,-41
-12,-34,-22,24,7,-28,-26,-150,-81,-97,-80,-47
-18,-28,-10,24,-5,-17,-26,-156,-81,-109,-86,-53
-36,-22,12,30,-22,-5,-26,-162,-87,-115,-92,-65
-30,-28,0,30,-17,-11,-32,-168,-93,-127,-98,-71
-18,-28,-10,24,-5,-17,-21,-162,-93,-133,-98,-65
-12,-28,-16,18,1,-23,-21,-162,-93,-121,-98,-65
-12,-28,-16,18,1,-23,-21,-162,-87,-121,-98,-65
-18,-28,-10,24,-5,-17,-21,-162,-87,-115,-104,-59
-18,-28,-10,24,-5,-17,-26,-162,-81,-115,-104,-65
-12,-28,-16,18,1,-23,-26,-156,-87,-109,-104,-65
-18,-40,-22,30,1,-28,-32,-156,-81,-115,-104,-71
-18,-46,-28,36,7,-33,-32,-156,-81,-121,-104,-71
-12,-34,-22,24,7,-28,-32,-156,-75,-121,-104,-71
-6,-34,-28,24,13,-28,-32,-156,-75,-121,-98,-77
-12,-40,-28,24,7,-33,-32,-162,-75,-121,-98,-77
-18,-46,-28,36,7,-33,-26,-168,-75,-127,-92,-77
-24,-46,-22,36,1,-33,-26,-168,-75,-121,-92,-71
-18,-34,-16,30,1,-23,-21,-168,-81,-121,-92,-71
-18,-34,-16,30,1,-23,-21,-168,-81,-121,-92,-71
-18,-22,-5,24,-5,-11,-26,-168,-81,-121,-92,-77
-18,-28,-10,24,-5,-17,-32,-168,-87,-127,-98,-77
-24,-40,-16,30,-5,-28,-38,-168,-81,-121,-98,-77
-6,-51,-46,30,19,-45,-38,-174,-87,-127,-104,-83
-6,-46,-40,30,19,-39,-38,-174,-87,-127,-104,-83
-12,-51,-40,30,13,-45,-26,-174,-87,-121,-104,-77
-12,-56,-46,30,13,-51,-21,-168,-81,-121,-98,-77
-12,-46,-34,30,13,-39,-21,-168,-87,-121,-104,-77
-18,-34,-16,30,1,-23,-26,-174,-87,-127,-104,-77
-18,-28,-10,24,-5,-17,-32,-168,-87,-121,-104,-77
-24,-28,-5,24,-11,-17,-32,-168,-93,-127,-110,-77
-18,-34,-16,30,1,-23,-38,-168,-99,-127,-110,-77
-18,-34,-16,30,1,-23,-38,-168,-99,-127,-110,-83
-18,-34,-16,30,1,-23,-38,-168,-99,-133,-110,-83
-6,-34,-28,24,13,-28,-38,-168,-99,-127,-110,-89
-12,-46,-34,30,13,-39,-38,-174,-99,-127,-110,-89
-12,-46,-34,30,13,-39,-38,-174,-93,-127,-110,-89
-18,-46,-28,36,7,-33,-38,-174,-93,-127,-110,-89
-24,-51,-28,36,1,-39,-38,-180,-93,-133,-110,-89
-30,-51,-22,42,-5,-33,-38,-174,-93,-133,-110,-89
-24,-51,-28,36,1,-39,-32,-168,-93,-133,-110,-89
-24,-46,-22,36,1,-33,-32,-168,-87,-133,-104,-83
-12,-51,-40,30,13,-45,-38,-174,-99,-139,-104,-83
-24,-51,-28,36,1,-39,-38,-168,-93,-133,-104,-77
-24,-46,-22,36,1,-33,-32,-168,-93,-127,-98,-77
-12,-40,-28,24,7,-33,-32,-168,-93,-127,-98,-71
-12,-40,-28,24,7,-33,-38,-174,-99,-127,-98,-77
-12,-46,-34,30,13,-39,-44,-174,-99,-133,-98,-77
-12,-46,-34,30,13,-39,-50,-174,-105,-127,-98,-77
-12,-46,-34,30,13,-39,-44,-174,-111,-133,-104,-77
-12,-46,-34,30,13,-39,-44,-174,-111,-127,-98,-77
-12,-51,-40,30,13,-45,-44,-168,-111,-127,-98,-71
-12,-46,-34,30,13,-39,-44,-168,-111,-127,-98,-71
-18,-46,-28,36,7,-33,-44,-168,-111,-127,-98,-71
-24,-34,-10,30,-5,-23,-44,-162,-111,-127,-98,-71
-30,-34,-5,36,-11,-17,-38,-162,-111,-127,-98,-71
-30,-46,-16,42,-5,-28,-38,-162,-105,-133,-98,-71
-24,-46,-22,36,1,-33,-32,-162,-105,-121,-98,-71
-12,-40,-28,24,7,-33,-38,-162,-111,-127,-98,-71
-12,-46,-34,30,13,-39,-38,-174,-117,-133,-104,-77
-24,-51,-28,36,1,-39,-44,-180,-117,-133,-104,-77
-24,-56,-34,36,1,-45,-38,-174,-111,-133,-104,-71
-30,-56,-28,42,-5,-39,-38,-174,-111,-127,-104,-71
-30,-51,-22,42,-5,-33,-38,-180,-117,-139,-110,-77
-18,-46,-28,36,7,-33,-32,-180,-111,-133,-110,-71
-12,-46,-34,30,13,-39,-32,-180,-111,-127,-104,-71
-6,-51,-46,30,19,-45,-32,-174,-111,-127,-104,-65
-6,-51,-46,30,19,-45,-32,-174,-111,-121,-104,-65
-18,-62,-46,42,13,-51,-38,-174,-111,-127,-104,-65
-18,-74,-58,47,19,-63,-38,-168,-105,-127,-104,-65
-18,-68,-52,42,13,-57,-32,-168,-105,-127,-104,-65
-18,-56,-40,36,7,-45,-38,-174,-111,-139,-104,-71
-18,-51,-34,36,7,-39,-38,-174,-117,-139,-110,-71
-18,-40,-22,30,1,-28,-38,-180,-123,-139,-110,-77
-12,-34,-22,24,7,-28,-44,-186,-123,-139,-110,-77
-12,-34,-22,24,7,-28,-50,-192,-129,-139,-116,-77
-24,-46,-22,36,1,-33,-56,-192,-123,-133,-116,-77
-30,-56,-28,42,-5,-39,-56,-192,-123,-133,-116,-71
-42,-56,-16,47,-17,-33,-50,-198,-123,-139,-110,-71
-42,-51,-10,47,-17,-28,-50,-192,-123,-133,-110,-77
-42,-46,-5,47,-17,-23,-50,-192,-123,-139,-110,-77
-42,-46,-5,47,-17,-23,-44,-186,-123,-133,-104,-77
-42,-40,0,42,-22,-17,-38,-174,-117,-133,-104,-71
-36,-22,12,30,-22,-5,-26,-168,-111,-127,-98,-71
-30,-10,18,24,-22,7,-21,-156,-105,-121,-92,-59
-24,2,24,12,-22,13,-16,-150,-93,-115,-86,-53
-24,14,36,6,-27,25,-10,-150,-87,-109,-80,-47
-24,26,48,0,-33,37,-10,-144,-81,-97,-74,-35
-30,32,60,0,-45,49,-4,-132,-75,-91,-74,-35
-36,44,78,-6,-57,61,8,-126,-57,-85,-62,-23
-30,68,96,-18,-63,85,20,-114,-51,-67,-56,-17
-36,74,108,-18,-69,91,32,-108,-45,-67,-50,-11
-42,74,114,-12,-75,97,38,-102,-39,-61,-50,-5
-42,80,120,-18,-81,103,44,-96,-39,-61,-44,1
-36,92,126,-30,-81,109,44,-90,-39,-55,-38,7
-30,98,126,-30,-75,115,50,-90,-33,-55,-38,13
-24,98,120,-36,-69,109,56,-78,-27,-43,-32,18
-24,110,132,-42,-75,121,62,-66,-21,-25,-26,18
-24,122,144,-48,-81,133,74,-54,-9,-13,-14,23
-12,134,144,-60,-75,139,80,-48,-3,-7,-8,23
0,140,138,-72,-69,139,80,-48,-3,-13,-8,23
-6,146,150,-66,-75,151,86,-48,3,-13,-8,23
-6,146,150,-66,-75,151,98,-42,9,-7,-2,29
-6,158,162,-72,-81,163,110,-36,15,-1,-2,35
-12,164,174,-78,-93,169,122,-36,9,-7,-2,29
-18,146,162,-60,-87,157,122,-36,-3,-7,-14,29
-30,128,156,-48,-93,145,122,-42,-9,-19,-14,23
-36,104,138,-36,-87,121,110,-48,-21,-31,-26,18
-42,86,126,-18,-81,109,98,-60,-27,-37,-32,7
-47,68,114,-12,-81,91,86,-72,-39,-55,-44,-5
-47,62,108,-6,-75,85,80,-84,-45,-61,-56,-17
-47,44,90,0,-69,67,74,-96,-51,-67,-68,-17
-42,38,78,6,-57,61,62,-102,-57,-79,-74,-23
-36,32,66,0,-51,49,62,-108,-69,-85,-80,-29
-42,26,66,12,-51,49,56,-114,-69,-91,-86,-35
-42,26,66,12,-51,49,50,-120,-69,-97,-80,-35
-42,26,66,12,-51,49,44,-126,-75,-103,-80,-47
-30,26,54,6,-39,43,32,-132,-81,-103,-86,-53
-18,32,48,-6,-33,43,26,-132,-81,-109,-86,-53
-18,14,30,6,-22,25,14,-132,-87,-115,-86,-53
-24,2,24,12,-22,13,14,-138,-93,-109,-92,-53
-30,2,30,18,-27,19,2,-138,-87,-109,-92,-53
-30,-4,24,18,-27,13,-4,-132,-87,-109,-92,-47
-36,-16,18,24,-27,1,-4,-126,-75,-97,-86,-41
-36,-22,12,30,-22,-5,-10,-126,-69,-97,-86,-41
-24,-16,6,18,-17,-5,-16,-126,-69,-97,-86,-41
-18,-16,0,18,-11,-5,-16,-126,-69,-97,-86,-35
-6,2,6,6,-5,7,-21,-126,-69,-91,-86,-35
6,8,0,-6,1,7,-26,-126,-69,-91,-80,-29
6,14,6,-6,1,13,-26,-126,-75,-91,-80,-29
12,8,-5,-12,7,1,-26,-126,-69,-79,-74,-23
12,8,-5,-12,7,1,-21,-114,-63,-79,-68,-23
12,8,-5,-12,7,1,-21,-108,-63,-79,-68,-17
24,20,-5,-24,13,7,-21,-108,-63,-79,-68,-17
36,38,0,-36,19,19,-26,-102,-63,-85,-68,-17
24,32,6,-30,7,19,-26,-102,-57,-73,-62,-11
18,26,6,-18,7,19,-21,-90,-57,-67,-50,-5
18,26,6,-18,7,19,-21,-84,-45,-61,-38,1
30,26,-5,-24,19,13,-21,-72,-33,-43,-38,7
36,26,-10,-30,25,7,-16,-60,-21,-43,-32,18
42,20,-22,-30,31,1,-4,-42,-15,-31,-26,18
66,20,-46,-42,55,-11,-4,-24,3,-19,-20,29
84,26,-58,-54,73,-17,-4,-2,21,-7,-8,47
90,20,-70,-54,79,-23,2,40,57,29,16,65
108,-4,-112,-54,109,-57,2,82,87,47,40,77
126,-22,-148,-48,139,-81,2,130,115,69,62,95
162,-34,-196,-60,181,-111,2,196,151,87,86,119
210,-62,-274,-72,241,-165,20,280,193,99,104,131
276,-92,-370,-96,319,-231,38,376,235,117,122,143
330,-134,-466,-96,397,-297,80,502,289,135,146,167
384,-158,-544,-114,463,-351,128,664,379,195,188,203
438,-170,-610,-132,523,-387,176,832,499,285,260,257
498,-176,-676,-162,583,-423,224,1006,649,393,350,323
570,-152,-724,-210,643,-435,290,1240,859,549,482,413
630,-104,-736,-264,679,-417,380,1552,1147,765,662,551
708,-40,-748,-336,727,-393,446,1888,1477,1017,872,713
792,26,-766,-408,781,-369,512,2242,1855,1305,1112,887
852,104,-748,-480,799,-321,590,2547,2239,1599,1334,1049
888,194,-694,-540,793,-249,638,2685,2538,1851,1520,1187
900,278,-622,-588,763,-171,644,2673,2772,2055,1664,1295
906,356,-550,-630,727,-93,608,2607,2964,2235,1796,1385
918,416,-502,-666,709,-39,572,2553,3150,2403,1904,1457
858,452,-406,-654,631,25,572,2529,3348,2552,1988,1499
726,494,-232,-606,481,133,602,2481,3516,2684,2036,1511
582,524,-58,-552,319,235,608,2362,3588,2744,2048,1493
438,494,54,-462,193,277,578,2128,3480,2672,1964,1415
312,422,108,-366,103,265,506,1804,3180,2445,1772,1265
204,290,84,-246,61,187,386,1396,2664,2055,1472,1037
114,122,6,-114,55,67,242,868,1909,1503,1064,743
42,-56,-100,6,67,-75,116,400,1171,951,650,449
-6,-188,-184,94,85,-183,20,100,649,537,332,215
-36,-284,-250,154,103,-267,-38,-78,313,249,104,47
-58,-362,-304,208,121,-333,-86,-198,93,58,-38,-65
-70,-404,-334,232,127,-369,-116,-270,-51,-61,-128,-131
-76,-428,-352,244,133,-393,-152,-312,-147,-151,-188,-173
-70,-434,-364,250,145,-399,-182,-336,-207,-199,-224,-197
-64,-422,-358,238,145,-393,-200,-348,-243,-229,-236,-203
-47,-380,-334,208,139,-357,-194,-342,-255,-235,-242,-197
-42,-326,-286,184,121,-303,-188,-330,-261,-241,-242,-191
-24,-272,-250,142,109,-261,-170,-312,-261,-235,-230,-185
-6,-206,-202,106,97,-201,-140,-294,-267,-235,-224,-173
-6,-158,-154,82,73,-153,-128,-288,-273,-229,-218,-167
-24,-152,-130,82,49,-141,-116,-282,-285,-235,-218,-161
-30,-176,-148,100,55,-159,-110,-276,-285,-241,-212,-155
-47,-182,-136,112,43,-159,-116,-282,-297,-247,-218,-155
-58,-176,-118,112,25,-147,-116,-288,-303,-259,-218,-155
-58,-164,-106,106,19,-135,-116,-288,-309,-259,-218,-155
-58,-152,-94,100,13,-123,-116,-294,-315,-265,-224,-155
-58,-134,-76,94,7,-105,-116,-294,-321,-259,-218,-155
-58,-122,-64,88,1,-93,-110,-294,-327,-265,-218,-155
-58,-122,-64,88,1,-93,-110,-288,-327,-259,-212,-149
-52,-110,-58,76,1,-87,-110,-294,-327,-259,-212,-149
-52,-92,-40,64,-11,-69,-116,-294,-333,-271,-212,-143
-52,-92,-40,64,-11,-69,-116,-294,-339,-265,-212,-143
-58,-98,-40,76,-11,-69,-122,-288,-345,-265,-212,-143
-58,-98,-40,76,-11,-69,-116,-282,-351,-265,-206,-143
-58,-98,-40,76,-11,-69,-116,-282,-357,-265,-212,-143
-52,-98,-46,70,-5,-75,-110,-282,-357,-265,-212,-143
-58,-98,-40,76,-11,-69,-110,-282,-357,-265,-212,-143
-58,-86,-28,70,-17,-57,-104,-276,-357,-265,-212,-143
-58,-86,-28,70,-17,-57,-98,-282,-357,-265,-212,-143
-64,-92,-28,70,-22,-63,-98,-282,-357,-271,-212,-137
-47,-92,-46,64,-5,-69,-98,-282,-357,-271,-212,-137
-30,-80,-52,52,7,-63,-104,-288,-369,-283,-212,-143
-36,-80,-46,52,1,-63,-104,-288,-375,-277,-212,-143
-42,-74,-34,58,-5,-51,-98,-276,-369,-271,-206,-131
-42,-74,-34,58,-5,-51,-98,-270,-363,-259,-200,-131
-42,-80,-40,58,-5,-57,-104,-270,-363,-259,-200,-137
-47,-68,-22,52,-17,-45,-104,-276,-357,-259,-200,-143
-52,-68,-16,52,-22,-45,-104,-276,-357,-259,-194,-137
-58,-74,-16,64,-22,-45,-104,-276,-351,-259,-188,-137
-58,-74,-16,64,-22,-45,-98,-264,-345,-253,-182,-131
-52,-80,-28,58,-17,-57,-92,-258,-339,-253,-182,-125
-52,-68,-16,52,-22,-45,-92,-258,-345,-259,-182,-125
-52,-51,0,47,-27,-28,-98,-264,-357,-259,-188,-125
-47,-51,-5,47,-22,-28,-104,-264,-351,-259,-194,-131
-47,-56,-10,47,-22,-33,-98,-264,-351,-253,-188,-125
-47,-62,-16,52,-17,-39,-92,-258,-351,-253,-188,-125
-52,-51,0,47,-27,-28,-86,-258,-351,-253,-188,-125
-52,-51,0,47,-27,-28,-80,-252,-345,-247,-182,-125
-47,-51,-5,47,-22,-28,-80,-252,-339,-253,-176,-125
-47,-46,0,47,-22,-23,-80,-252,-333,-247,-170,-125
-47,-51,-5,47,-22,-28,-86,-252,-333,-247,-164,-125
-47,-51,-5,47,-22,-28,-86,-246,-333,-241,-164,-125
-47,-46,0,47,-22,-23,-86,-252,-345,-241,-170,-131
-42,-34,6,42,-22,-11,-80,-246,-339,-235,-170,-125
-30,-34,-5,36,-11,-17,-80,-246,-345,-229,-170,-125
-47,-34,12,42,-27,-11,-80,-246,-345,-229,-176,-125
-47,-34,12,42,-27,-11,-80,-246,-345,-229,-182,-125
-47,-28,18,36,-33,-5,-80,-240,-339,-229,-182,-125
-47,-28,18,36,-33,-5,-80,-240,-333,-229,-182,-125
-47,-22,24,36,-33,1,-80,-246,-327,-235,-176,-125
-47,-34,12,42,-27,-11,-74,-240,-321,-229,-170,-119
-47,-46,0,47,-22,-23,-74,-240,-327,-223,-164,-119
-47,-22,24,36,-33,1,-74,-246,-333,-229,-170,-125
-36,-4,30,18,-33,13,-74,-246,-339,-229,-170,-125
-30,8,36,12,-33,25,-68,-240,-333,-229,-170,-125
-47,14,60,18,-51,37,-68,-240,-333,-235,-176,-125
-58,2,60,30,-57,31,-68,-240,-333,-235,-170,-125
-64,2,66,30,-63,31,-68,-240,-333,-235,-176,-125
-64,14,78,24,-69,43,-74,-240,-327,-229,-176,-125
-58,14,72,24,-63,43,-68,-240,-327,-229,-170,-119
-52,20,72,12,-63,43,-68,-234,-321,-223,-170,-119
-47,26,72,12,-57,49,-68,-234,-321,-223,-170,-113
-47,20,66,12,-57,43,-68,-240,-327,-229,-176,-125
-52,14,66,18,-57,37,-74,-246,-327,-235,-182,-125
-58,14,72,24,-63,43,-68,-234,-321,-229,-176,-119
-58,20,78,18,-69,49,-62,-228,-315,-223,-170,-119
-64,32,96,12,-81,61,-56,-228,-309,-223,-170,-119
-76,32,108,18,-93,67,-50,-228,-309,-223,-170,-119
-76,38,114,18,-93,73,-50,-228,-309,-217,-170,-125
-64,44,108,6,-87,73,-56,-228,-315,-223,-170,-125
-70,44,114,12,-93,79,-56,-222,-309,-217,-164,-119
-76,44,120,12,-99,79,-50,-216,-303,-217,-158,-119
-82,44,126,18,-105,85,-50,-222,-303,-217,-158,-113
-82,56,138,12,-111,97,-50,-216,-297,-211,-152,-113
-82,68,150,6,-117,109,-44,-210,-297,-211,-152,-107
-88,74,162,6,-123,115,-38,-204,-291,-205,-146,-107
-76,86,162,-6,-117,121,-38,-198,-291,-205,-146,-107
-70,98,168,-12,-117,133,-38,-186,-285,-205,-140,-107
-64,110,174,-24,-117,139,-32,-174,-279,-199,-134,-101
-64,104,168,-24,-117,133,-26,-162,-267,-187,-122,-95
-58,110,168,-24,-111,139,-21,-150,-255,-181,-104,-83
-64,116,180,-30,-123,145,-16,-144,-249,-169,-98,-77
-58,128,186,-36,-123,157,-16,-138,-243,-169,-92,-77
-58,134,192,-36,-123,163,-10,-120,-225,-157,-80,-65
-70,134,204,-30,-135,169,-4,-102,-207,-139,-68,-47
-64,146,210,-42,-135,175,2,-84,-195,-133,-62,-41
-64,152,216,-48,-141,181,8,-60,-177,-121,-50,-29
-64,158,222,-48,-141,187,14,-42,-159,-103,-32,-23
-64,164,228,-54,-147,193,14,-24,-147,-97,-26,-11
-76,158,234,-42,-153,193,20,-13,-135,-85,-14,-5
-76,170,246,-48,-159,205,20,-2,-123,-79,-8,-5
-64,188,252,-66,-159,217,20,16,-111,-67,4,7
-47,206,252,-78,-147,229,26,40,-87,-49,16,18
-42,218,258,-84,-147,241,38,64,-69,-37,28,18
-42,218,258,-84,-147,241,44,94,-45,-25,40,29
-36,218,252,-90,-141,235,50,112,-27,-13,45,41
-30,206,234,-84,-129,223,56,136,-3,-1,62,59
-30,200,228,-84,-129,217,62,154,15,23,74,71
-30,224,252,-96,-141,241,62,160,27,29,80,77
-18,242,258,-108,-135,253,62,178,45,41,86,77
-6,254,258,-120,-129,259,68,196,69,58,98,89
6,254,246,-126,-117,253,80,208,81,69,110,101
-6,248,252,-120,-129,253,80,214,93,75,116,107
-12,242,252,-114,-129,247,80,220,105,81,122,107
-12,242,252,-114,-129,247,80,232,110,87,134,113
-6,248,252,-120,-129,253,80,238,121,93,134,119
-6,248,252,-120,-129,253,80,244,127,93,140,119
-6,254,258,-120,-129,259,80,250,133,99,140,125
6,254,246,-126,-117,253,92,262,145,111,152,137
6,260,252,-132,-123,259,98,268,151,123,164,143
12,260,246,-138,-117,253,98,274,157,123,164,143
24,254,228,-138,-99,241,98,280,163,129,164,143
30,248,216,-138,-93,235,92,280,169,129,170,149
24,236,210,-132,-93,223,98,280,169,135,176,149
18,224,204,-120,-93,217,98,286,175,135,182,149
18,224,204,-120,-93,217,98,286,181,135,188,149
18,230,210,-120,-93,223,98,286,181,141,188,149
18,224,204,-120,-93,217,98,292,187,147,194,149
24,224,198,-126,-87,211,104,298,193,147,188,149
30,224,192,-126,-81,211,104,304,199,153,188,149
30,218,186,-120,-75,205,104,310,211,153,194,161
42,212,168,-126,-63,193,98,298,211,153,188,155
42,200,156,-120,-57,181,104,298,211,153,188,155
30,194,162,-108,-63,181,104,298,217,159,200,155
30,188,156,-108,-63,175,104,298,217,159,200,149
24,176,150,-102,-63,163,104,298,211,159,200,143
18,164,144,-90,-63,157,98,298,211,153,200,143
30,158,126,-90,-45,145,92,292,211,147,194,137
42,152,108,-96,-33,133,86,286,205,141,188,131
42,152,108,-96,-33,133,92,286,211,147,182,137
42,152,108,-96,-33,133,92,280,217,141,182,137
48,146,96,-96,-22,121,92,274,217,141,182,125
36,140,102,-90,-33,121,98,268,211,141,176,131
24,122,96,-72,-33,109,92,262,205,135,170,119
18,122,102,-66,-39,115,92,256,199,135,164,113
30,116,84,-72,-27,103,86,244,193,129,158,107
30,104,72,-66,-22,91,80,232,187,129,152,101
30,86,54,-54,-11,73,74,214,175,117,140,89
30,92,60,-60,-17,79,74,196,163,111,128,89
36,92,54,-66,-11,73,74,184,157,111,116,83
30,92,60,-60,-17,79,62,172,139,93,104,65
24,80,54,-54,-17,67,56,154,133,75,92,59
24,68,42,-48,-11,55,50,148,127,69,86,47
36,62,24,-48,7,43,44,136,115,58,74,35
36,56,18,-48,7,37,44,130,110,58,68,35
24,50,24,-36,1,37,50,124,110,58,68,35
6,32,24,-18,-11,31,50,112,110,53,62,35
-6,26,30,-6,-17,31,50,106,99,53,62,29
0,38,36,-18,-17,37,44,94,87,41,50,18
0,26,24,-12,-11,25,32,82,75,29,45,18
0,26,24,-12,-11,25,26,76,75,23,50,18
0,20,18,-12,-11,19,26,70,69,17,45,18
6,20,12,-12,-5,19,20,64,57,11,45,13
12,26,12,-18,1,19,20,58,51,5,40,7
12,32,18,-24,-5,25,20,52,45,-1,34,7
6,26,18,-12,-5,25,20,46,39,-1,28,7
0,20,18,-12,-11,19,20,40,33,-1,28,1
-6,20,24,-6,-17,25,14,40,27,-7,22,-5
-6,26,30,-6,-17,31,14,40,27,-7,22,1
-12,20,30,-6,-22,25,14,40,21,-7,22,1
-6,8,12,0,-11,13,14,34,9,-7,16,1
-6,2,6,6,-5,7,14,28,3,-19,10,-5
-6,14,18,0,-11,19,20,34,3,-13,16,1
-6,8,12,0,-11,13,26,34,3,-7,22,1
-6,2,6,6,-5,7,32,40,3,-7,22,1
0,2,0,0,1,1,32,40,-3,-1,22,1
-6,2,6,6,-5,7,26,40,-3,-1,28,1
-6,14,18,0,-11,19,26,40,3,-1,34,7
0,14,12,-6,-5,13,26,34,-3,-1,28,7
12,20,6,-18,1,13,20,28,-9,-13,22,1
0,26,24,-12,-11,25,20,22,-15,-19,22,1
-12,8,18,0,-17,13,20,22,-15,-19,28,1
-6,8,12,0,-11,13,20,22,-21,-19,28,7
-6,8,12,0,-11,13,26,22,-21,-19,28,7
-12,8,18,0,-17,13,26,28,-21,-19,28,7
-18,14,30,6,-22,25,32,28,-21,-13,28,1
-12,20,30,-6,-22,25,26,28,-15,-13,28,1
-18,26,42,0,-27,37,26,28,-21,-13,28,1
-18,32,48,-6,-33,43,26,28,-27,-13,28,1
-12,44,54,-18,-33,49,26,28,-27,-13,22,1
-12,44,54,-18,-33,49,26,28,-33,-13,22,1
-12,38,48,-12,-27,43,26,22,-33,-13,16,7
-12,38,48,-12,-27,43,26,22,-33,-13,16,7
-12,38,48,-12,-27,43,26,22,-33,-7,22,7
-12,32,42,-12,-27,37,32,16,-33,-7,22,13
-18,32,48,-6,-33,43,32,16,-39,-13,16,7
-12,32,42,-12,-27,37,38,16,-33,-7,22,7
-24,38,60,-6,-39,49,32,10,-39,-7,16,7
-24,44,66,-12,-45,55,26,10,-45,-19,10,-5
-24,38,60,-6,-39,49,20,10,-51,-19,10,1
-18,38,54,-6,-33,49,20,10,-51,-19,10,7
-18,38,54,-6,-33,49,14,10,-57,-19,10,7
-6,38,42,-12,-22,43,8,4,-57,-25,4,1
0,44,42,-24,-22,43,14,4,-57,-31,4,1
-12,38,48,-12,-27,43,14,4,-57,-31,4,1
-18,38,54,-6,-33,49,8,4,-51,-31,10,1
-18,38,54,-6,-33,49,8,-2,-51,-31,4,-5
-12,44,54,-18,-33,49,8,-2,-51,-25,4,-5
-12,44,54,-18,-33,49,8,-8,-51,-25,10,-5
-30,32,60,0,-45,49,2,-8,-57,-25,4,-5
-24,26,48,0,-33,37,2,-13,-63,-31,4,-5
-24,26,48,0,-33,37,2,-13,-63,-31,10,1
-12,32,42,-12,-27,37,2,-18,-69,-31,4,1
-12,32,42,-12,-27,37,2,-24,-69,-37,4,-5
-12,26,36,-6,-22,31,2,-30,-75,-43,4,-5
-12,26,36,-6,-22,31,-4,-36,-75,-49,-2,-5
-12,26,36,-6,-22,31,-10,-36,-81,-55,-8,-11
-18,26,42,0,-27,37,-10,-36,-81,-49,-8,-11
-12,32,42,-12,-27,37,-4,-36,-87,-55,-8,-11
-6,38,42,-12,-22,43,-4,-36,-93,-55,-14,-11
-18,26,42,0,-27,37,-4,-42,-99,-61,-20,-17
-18,26,42,0,-27,37,-10,-48,-99,-67,-26,-23
0,32,30,-18,-17,31,-10,-48,-93,-61,-20,-23
0,20,18,-12,-11,19,-10,-42,-87,-55,-20,-11
0,20,18,-12,-11,19,-10,-48,-87,-55,-8,-11
0,14,12,-6,-5,13,-16,-54,-87,-61,-14,-17
6,2,-5,0,7,1,-16,-60,-93,-61,-14,-17
0,-4,-5,0,1,-5,-16,-60,-99,-67,-14,-17
-6,-4,0,6,-5,1,-21,-66,-99,-73,-20,-23
-12,2,12,6,-11,7,-26,-72,-105,-79,-26,-29
-12,2,12,6,-11,7,-26,-78,-111,-79,-26,-35
-12,2,12,6,-11,7,-21,-84,-111,-85,-32,-41
0,2,0,0,1,1,-21,-84,-117,-91,-38,-47
-6,8,12,0,-11,13,-26,-90,-117,-91,-44,-53
0,2,0,0,1,1,-26,-90,-117,-97,-44,-53
0,-10,-10,6,7,-11,-26,-96,-135,-97,-50,-53
-12,-10,0,12,-5,-5,-26,-102,-141,-103,-56,-59
-12,-4,6,6,-11,1,-26,-102,-141,-103,-56,-53
-24,2,24,12,-22,13,-26,-102,-141,-109,-56,-53
-24,8,30,6,-27,19,-32,-102,-147,-109,-62,-53
-18,8,24,6,-22,19,-38,-108,-153,-121,-68,-59
-18,2,18,12,-17,13,-32,-102,-147,-115,-62,-59
-18,2,18,12,-17,13,-32,-108,-147,-115,-62,-59
-18,-10,6,18,-11,1,-32,-108,-141,-115,-56,-59
-12,-16,-5,12,-5,-11,-32,-114,-141,-115,-56,-47
-18,-22,-5,24,-5,-11,-38,-114,-141,-115,-56,-47
-24,-28,-5,24,-11,-17,-38,-120,-141,-115,-56,-47
-18,-22,-5,24,-5,-11,-38,-114,-135,-115,-56,-41
-18,-22,-5,24,-5,-11,-32,-114,-135,-115,-56,-41
-18,-16,0,18,-11,-5,-38,-114,-141,-115,-62,-41
-12,-16,-5,12,-5,-11,-38,-114,-141,-121,-62,-47
-6,-10,-5,12,1,-5,-32,-114,-141,-121,-62,-47
-12,-10,0,12,-5,-5,-32,-114,-141,-115,-68,-53
-12,-10,0,12,-5,-5,-38,-114,-141,-121,-68,-53
-6,2,6,6,-5,7,-38,-126,-141,-121,-68,-59
-12,2,12,6,-11,7,-38,-126,-147,-127,-68,-65
-18,-16,0,18,-11,-5,-38,-126,-141,-127,-68,-65
-18,-16,0,18,-11,-5,-38,-126,-153,-133,-68,-65
-12,-22,-10,18,1,-17,-44,-132,-159,-139,-80,-71
-6,-34,-28,24,13,-28,-38,-132,-159,-139,-80,-77
-18,-34,-16,30,1,-23,-38,-126,-153,-127,-74,-71
-18,-34,-16,30,1,-23,-38,-126,-147,-127,-68,-65
-12,-22,-10,18,1,-17,-44,-126,-147,-133,-62,-65
-18,-22,-5,24,-5,-11,-44,-126,-147,-127,-62,-65
-24,-22,0,24,-11,-11,-44,-126,-147,-127,-62,-59
-24,-28,-5,24,-11,-17,-44,-126,-147,-121,-62,-59
-18,-28,-10,24,-5,-17,-50,-126,-147,-127,-68,-65
-18,-28,-10,24,-5,-17,-44,-126,-147,-127,-68,-59
-12,-28,-16,18,1,-23,-38,-120,-147,-121,-62,-59
-6,-34,-28,24,13,-28,-38,-132,-147,-127,-68,-59
0,-46,-46,24,25,-45,-44,-138,-153,-133,-62,-59
-6,-46,-40,30,19,-39,-44,-138,-153,-139,-62,-65
-12,-46,-34,30,13,-39,-44,-138,-153,-139,-62,-59
-12,-40,-28,24,7,-33,-44,-138,-159,-139,-68,-59
-12,-34,-22,24,7,-28,-44,-138,-159,-133,-62,-59
-18,-28,-10,24,-5,-17,-44,-138,-165,-133,-68,-59
-24,-34,-10,30,-5,-23,-50,-144,-165,-133,-74,-65
-24,-28,-5,24,-11,-17,-56,-150,-171,-139,-86,-71
-24,-28,-5,24,-11,-17,-50,-150,-165,-133,-86,-71
-18,-22,-5,24,-5,-11,-50,-144,-165,-133,-86,-71
-12,-22,-10,18,1,-17,-50,-150,-165,-139,-86,-77
-12,-22,-10,18,1,-17,-50,-150,-165,-139,-86,-77
-6,-22,-16,18,7,-17,-50,-150,-159,-133,-80,-77
-6,-16,-10,12,1,-11,-50,-150,-165,-139,-80,-77
-12,-28,-16,18,1,-23,-56,-144,-159,-139,-80,-77
0,-46,-46,24,25,-45,-50,-144,-159,-133,-80,-77
6,-40,-46,18,25,-39,-50,-144,-165,-139,-80,-77
0,-46,-46,24,25,-45,-50,-138,-165,-133,-80,-77
-18,-46,-28,36,7,-33,-50,-138,-165,-133,-80,-71
-18,-46,-28,36,7,-33,-50,-132,-165,-133,-74,-71
-24,-46,-22,36,1,-33,-50,-138,-165,-127,-74,-71
-24,-46,-22,36,1,-33,-44,-132,-165,-121,-68,-65
-18,-34,-16,30,1,-23,-44,-132,-165,-121,-68,-65
-24,-34,-10,30,-5,-23,-50,-138,-165,-127,-74,-71
-18,-40,-22,30,1,-28,-50,-138,-171,-133,-74,-71
-24,-46,-22,36,1,-33,-44,-144,-171,-127,-68,-65
-24,-51,-28,36,1,-39,-44,-144,-171,-127,-68,-65
-6,-46,-40,30,19,-39,-44,-144,-177,-133,-80,-71
0,-46,-46,24,25,-45,-44,-144,-177,-133,-80,-59
6,-46,-52,24,31,-45,-44,-156,-183,-133,-86,-71
-12,-40,-28,24,7,-33,-50,-156,-189,-139,-86,-77
-24,-40,-16,30,-5,-28,-44,-156,-189,-145,-86,-77
-24,-40,-16,30,-5,-28,-44,-150,-183,-145,-80,-83
-18,-40,-22,30,1,-28,-44,-156,-183,-145,-80,-83
-12,-40,-28,24,7,-33,-44,-156,-177,-139,-80,-77
-6,-28,-22,18,7,-23,-44,-156,-171,-133,-80,-71
0,-28,-28,12,13,-28,-38,-150,-171,-133,-80,-65
-6,-16,-10,12,1,-11,-38,-150,-165,-127,-80,-65
-6,-22,-16,18,7,-17,-38,-150,-171,-127,-86,-65
-12,-28,-16,18,1,-23,-38,-150,-171,-133,-86,-71
-24,-34,-10,30,-5,-23,-44,-150,-183,-133,-86,-71
-24,-46,-22,36,1,-33,-50,-156,-183,-133,-86,-77
-24,-56,-34,36,1,-45,-50,-150,-183,-133,-86,-77
-24,-56,-34,36,1,-45,-50,-150,-195,-127,-86,-77
-24,-46,-22,36,1,-33,-50,-156,-195,-139,-92,-83
-18,-46,-28,36,7,-33,-44,-156,-195,-139,-92,-77
-18,-40,-22,30,1,-28,-44,-156,-195,-133,-92,-77
-18,-34,-16,30,1,-23,-38,-156,-189,-133,-92,-65
-12,-28,-16,18,1,-23,-44,-162,-183,-139,-92,-71
-18,-28,-10,24,-5,-17,-50,-162,-189,-133,-98,-71
-24,-28,-5,24,-11,-17,-50,-162,-189,-139,-98,-71
-18,-34,-16,30,1,-23,-50,-156,-189,-145,-98,-71
-12,-28,-16,18,1,-23,-50,-150,-195,-139,-98,-77
-6,-34,-28,24,13,-28,-50,-150,-201,-139,-92,-71
6,-28,-34,12,19,-28,-50,-156,-201,-139,-92,-71
-6,-40,-34,24,13,-33,-50,-168,-207,-139,-92,-77
-18,-51,-34,36,7,-39,-50,-168,-207,-145,-92,-77
-18,-51,-34,36,7,-39,-44,-168,-207,-139,-92,-77
-12,-51,-40,30,13,-45,-44,-168,-207,-139,-98,-77
-12,-46,-34,30,13,-39,-44,-168,-207,-145,-104,-77
-12,-40,-28,24,7,-33,-44,-168,-201,-151,-104,-77
-18,-46,-28,36,7,-33,-44,-168,-207,-145,-104,-83
-18,-40,-22,30,1,-28,-50,-168,-201,-139,-98,-83
-30,-40,-10,36,-11,-23,-50,-168,-195,-139,-98,-83
-30,-34,-5,36,-11,-17,-50,-168,-201,-139,-98,-77
-36,-28,6,30,-22,-11,-38,-162,-195,-133,-92,-77
-36,-22,12,30,-22,-5,-32,-156,-195,-133,-92,-77
-30,-10,18,24,-22,7,-26,-156,-189,-127,-86,-77
-6,8,12,0,-11,13,-21,-150,-183,-127,-80,-77
-18,20,36,0,-27,31,-16,-132,-165,-109,-62,-59
-30,32,60,0,-45,49,-4,-126,-153,-97,-56,-53
-24,44,66,-12,-45,55,2,-114,-141,-85,-44,-41
-30,50,78,-6,-51,67,14,-108,-135,-79,-38,-35
-30,56,84,-12,-57,73,20,-102,-123,-73,-38,-29
-36,68,102,-18,-69,85,32,-90,-117,-67,-32,-29
-36,86,120,-24,-75,103,38,-90,-105,-67,-32,-23
-36,98,132,-30,-81,115,44,-90,-105,-67,-32,-23
-36,104,138,-36,-87,121,44,-90,-105,-67,-32,-23
-24,104,126,-42,-75,115,50,-72,-93,-55,-20,-17
-24,116,138,-48,-81,127,56,-66,-81,-49,-8,-11
-12,134,144,-60,-75,139,68,-54,-69,-37,4,-5
-12,146,156,-66,-81,151,80,-42,-57,-31,10,1
-18,152,168,-66,-93,163,92,-36,-51,-19,22,7
-12,164,174,-78,-93,169,98,-30,-39,-7,22,7
-6,176,180,-84,-93,181,98,-30,-33,-7,28,13
-6,176,180,-84,-93,181,104,-30,-33,-7,28,18
-18,176,192,-78,-105,187,128,-18,-21,5,28,23
-30,170,198,-66,-111,187,140,-13,-15,5,28,23
-24,146,168,-60,-93,157,146,-13,-21,-7,22,18
-24,134,156,-54,-87,145,146,-24,-27,-13,4,7
-36,104,138,-36,-87,121,134,-42,-45,-31,-8,-5
-42,74,114,-12,-75,97,128,-54,-57,-43,-20,-17
-42,68,108,-12,-75,91,122,-66,-69,-55,-26,-29
-47,56,102,-6,-75,79,116,-78,-87,-61,-32,-35
-47,50,96,0,-69,73,104,-90,-99,-67,-38,-47
-47,38,84,6,-63,61,92,-102,-111,-73,-44,-59
-42,32,72,6,-57,55,86,-108,-117,-79,-50,-65
-36,32,66,0,-51,49,80,-114,-117,-85,-56,-71
-36,26,60,6,-45,43,74,-120,-117,-91,-62,-71
-36,14,48,12,-39,31,68,-126,-123,-97,-68,-71
-47,14,60,18,-51,37,62,-126,-123,-103,-80,-71
-47,14,60,18,-51,37,56,-132,-123,-103,-80,-71
-58,14,72,24,-63,43,44,-138,-135,-103,-86,-71
-58,8,66,24,-63,37,32,-144,-141,-109,-92,-77
-47,-4,42,24,-45,19,26,-150,-147,-109,-92,-77
-47,-16,30,30,-39,7,14,-150,-141,-103,-92,-77
-47,-28,18,36,-33,-5,2,-156,-147,-103,-86,-77
-47,-22,24,36,-33,1,-4,-156,-147,-103,-86,-83
-47,-22,24,36,-33,1,-10,-156,-153,-103,-80,-77
-47,-28,18,36,-33,-5,-10,-150,-141,-103,-80,-71
-42,-28,12,36,-27,-5,-10,-144,-135,-97,-74,-71
-42,-28,12,36,-27,-5,-16,-138,-129,-91,-74,-65
-36,-28,6,30,-22,-11,-16,-138,-135,-91,-68,-65
-18,-22,-5,24,-5,-11,-21,-138,-129,-91,-62,-59
-24,-34,-10,30,-5,-23,-16,-138,-123,-85,-56,-53
-18,-40,-22,30,1,-28,-16,-132,-117,-85,-56,-53
-12,-28,-16,18,1,-23,-21,-138,-123,-85,-56,-53
-12,-22,-10,18,1,-17,-21,-126,-123,-79,-50,-53
0,-10,-10,6,7,-11,-21,-120,-117,-67,-44,-47
-6,-4,0,6,-5,1,-26,-120,-117,-61,-44,-47
-12,-4,6,6,-11,1,-26,-114,-117,-55,-44,-41
-6,-4,0,6,-5,1,-21,-102,-111,-49,-44,-41
18,2,-16,-6,19,-5,-16,-78,-93,-37,-32,-35
24,-4,-28,-12,25,-17,2,-54,-69,-25,-20,-23
36,-10,-46,-12,43,-28,8,-30,-51,-13,-8,-11
54,-22,-76,-12,67,-45,2,-13,-27,-7,4,1
72,-22,-94,-24,85,-57,-4,10,-3,5,22,13
90,-34,-124,-24,109,-75,-4,46,27,23,34,18
102,-51,-154,-24,127,-99,2,88,63,47,50,35
120,-62,-184,-30,151,-123,2,130,87,63,68,47
150,-86,-238,-30,193,-159,2,202,121,87,86,71
210,-116,-328,-48,265,-219,8,286,163,99,104,89
270,-164,-436,-54,349,-297,26,394,211,123,128,107
330,-200,-532,-66,427,-363,62,538,289,165,170,137
396,-224,-622,-90,505,-423,104,706,397,231,230,185
450,-236,-688,-108,565,-459,140,862,529,321,314,251
498,-230,-730,-132,613,-477,182,1036,691,441,416,329
552,-200,-754,-180,649,-477,230,1252,907,615,566,431
618,-158,-778,-228,697,-465,296,1528,1189,831,746,569
690,-86,-778,-300,733,-429,344,1840,1525,1095,962,737
768,-22,-790,-372,781,-405,398,2176,1909,1407,1202,911
828,62,-766,-444,799,-351,476,2475,2299,1713,1424,1073
858,152,-706,-504,781,-273,530,2631,2640,1995,1622,1217
858,242,-616,-546,739,-183,554,2637,2898,2229,1790,1337
864,326,-538,-594,703,-105,542,2547,3096,2421,1922,1433
858,398,-460,-624,661,-28,530,2463,3288,2594,2030,1499
774,446,-328,-606,553,61,566,2421,3486,2762,2120,1535
648,482,-166,-564,409,157,614,2356,3648,2894,2174,1547
522,500,-22,-510,271,241,638,2206,3684,2936,2174,1511
384,476,90,-432,145,283,626,1948,3528,2828,2060,1415
270,392,120,-330,73,259,554,1606,3180,2564,1850,1253
174,248,72,-210,49,163,440,1174,2592,2115,1508,1007
84,74,-10,-78,49,31,308,688,1801,1515,1064,695
6,-98,-106,47,55,-99,194,298,1087,951,638,401
-47,-242,-196,142,73,-219,98,46,607,537,320,167
-70,-332,-262,196,91,-297,20,-108,277,243,92,1
-106,-416,-310,256,97,-363,-38,-228,57,35,-62,-119
-124,-464,-340,286,103,-405,-86,-300,-93,-109,-164,-191
-130,-482,-352,304,109,-417,-128,-348,-201,-205,-236,-239
-124,-488,-364,298,115,-429,-158,-366,-267,-253,-266,-257
-112,-464,-352,280,115,-411,-188,-378,-309,-277,-278,-269
-100,-428,-328,256,109,-381,-200,-384,-333,-289,-284,-269
-88,-374,-286,226,97,-333,-188,-372,-339,-283,-284,-263
-76,-320,-244,190,79,-285,-176,-354,-345,-289,-284,-263
-64,-278,-214,166,73,-249,-158,-342,-339,-289,-278,-251
-64,-254,-190,154,61,-225,-134,-318,-339,-289,-266,-239
-70,-236,-166,148,43,-201,-122,-306,-339,-295,-266,-239
-76,-218,-142,142,31,-183,-110,-300,-345,-307,-272,-233
-82,-224,-142,148,25,-183,-98,-294,-351,-301,-266,-227
-82,-212,-130,142,19,-171,-98,-294,-357,-295,-266,-221
-82,-200,-118,136,13,-159,-92,-300,-357,-295,-266,-215
-94,-188,-94,136,-5,-141,-98,-300,-363,-289,-260,-215
-100,-170,-70,130,-17,-123,-98,-300,-357,-289,-260,-215
-88,-146,-58,112,-17,-105,-98,-300,-363,-295,-260,-215
-88,-140,-52,106,-22,-99,-104,-300,-369,-295,-260,-215
-94,-140,-46,112,-27,-93,-104,-294,-375,-301,-260,-215
-94,-146,-52,118,-22,-99,-104,-294,-375,-301,-260,-215
-100,-152,-52,118,-27,-105,-104,-294,-381,-307,-260,-215
-94,-158,-64,124,-17,-111,-104,-294,-381,-307,-266,-215
-88,-134,-46,106,-22,-93,-104,-294,-381,-307,-272,-215
-76,-128,-52,94,-17,-93,-98,-300,-387,-307,-272,-215
-76,-122,-46,94,-17,-87,-92,-300,-381,-313,-272,-209
-88,-128,-40,100,-27,-87,-92,-306,-381,-313,-272,-209
-88,-122,-34,100,-27,-81,-92,-300,-375,-313,-266,-209
-82,-116,-34,94,-27,-75,-92,-294,-381,-313,-260,-203
-82,-116,-34,94,-27,-75,-92,-288,-375,-307,-254,-197
-82,-128,-46,100,-22,-87,-98,-288,-369,-307,-254,-191
-76,-122,-46,94,-17,-87,-104,-288,-375,-301,-254,-197
-76,-122,-46,94,-17,-87,-98,-288,-375,-295,-254,-191
-76,-116,-40,88,-22,-81,-98,-288,-369,-295,-260,-197
-82,-110,-28,94,-27,-69,-104,-288,-369,-295,-260,-197
-94,-110,-16,100,-39,-63,-104,-288,-369,-289,-254,-197
-88,-104,-16,88,-39,-63,-104,-288,-375,-289,-254,-197
-88,-104,-16,88,-39,-63,-104,-288,-375,-295,-248,-191
-76,-104,-28,82,-27,-69,-98,-288,-369,-289,-242,-191
-76,-104,-28,82,-27,-69,-98,-288,-369,-301,-248,-191
-88,-104,-16,88,-39,-63,-104,-282,-363,-295,-242,-185
-88,-98,-10,88,-39,-57,-98,-282,-363,-289,-236,-185
-94,-104,-10,94,-45,-57,-98,-282,-357,-289,-236,-185
-94,-110,-16,100,-39,-63,-98,-282,-357,-283,-236,-185
-88,-104,-16,88,-39,-63,-98,-276,-351,-277,-230,-185
-82,-98,-16,88,-33,-57,-92,-276,-345,-277,-224,-185
-82,-104,-22,88,-33,-63,-86,-276,-345,-277,-224,-185
-82,-98,-16,88,-33,-57,-92,-276,-339,-277,-224,-191
-82,-98,-16,88,-33,-57,-92,-276,-339,-283,-224,-185
-76,-92,-16,76,-33,-57,-98,-282,-339,-283,-230,-185
-76,-80,-5,70,-39,-45,-98,-282,-339,-283,-236,-185
-88,-80,6,76,-51,-39,-98,-282,-339,-289,-236,-191
-88,-80,6,76,-51,-39,-92,-282,-333,-277,-236,-185
-94,-86,6,88,-51,-39,-92,-276,-333,-277,-236,-185
-82,-74,6,76,-45,-33,-92,-276,-327,-277,-236,-191
-76,-56,18,58,-51,-23,-92,-276,-321,-277,-236,-197
-82,-62,18,70,-51,-23,-92,-276,-321,-277,-236,-197
-82,-62,18,70,-51,-23,-92,-270,-321,-277,-230,-197
-88,-62,24,70,-57,-23,-92,-270,-315,-271,-230,-191
-94,-62,30,76,-63,-17,-92,-270,-315,-277,-230,-191
-82,-62,18,70,-51,-23,-98,-270,-321,-283,-230,-185
-82,-62,18,70,-51,-23,-86,-258,-309,-277,-224,-173
-88,-68,18,70,-57,-28,-86,-264,-309,-271,-224,-167
-82,-62,18,70,-51,-23,-86,-264,-309,-277,-224,-167
-82,-62,18,70,-51,-23,-92,-264,-315,-277,-230,-161
-94,-56,36,70,-69,-11,-92,-264,-309,-277,-224,-161
-88,-51,36,64,-63,-11,-92,-264,-309,-277,-224,-167
-82,-46,36,64,-57,-5,-98,-270,-315,-271,-224,-179
-88,-46,42,64,-63,-5,-92,-264,-309,-271,-230,-185
-88,-40,48,58,-69,1,-92,-264,-309,-271,-230,-185
-88,-40,48,58,-69,1,-92,-264,-303,-271,-230,-185
-94,-34,60,64,-75,13,-92,-258,-297,-271,-224,-179
-94,-34,60,64,-75,13,-92,-252,-291,-271,-224,-179
-88,-34,54,58,-69,7,-98,-252,-297,-271,-224,-179
-100,-22,78,58,-87,25,-92,-246,-303,-271,-224,-185
-106,-16,90,58,-99,37,-92,-246,-297,-271,-218,-179
-106,-16,90,58,-99,37,-86,-240,-291,-265,-218,-173
-100,-10,90,52,-93,37,-80,-234,-291,-259,-212,-167
-94,-10,84,52,-87,37,-74,-228,-291,-253,-212,-161
-94,-10,84,52,-87,37,-80,-228,-285,-253,-206,-161
-112,-10,102,58,-105,43,-80,-222,-285,-253,-206,-161
-118,-10,108,64,-111,49,-80,-222,-285,-253,-206,-155
-106,2,108,52,-105,55,-80,-222,-285,-259,-200,-155
-100,20,120,36,-111,67,-80,-216,-285,-253,-200,-155
-100,26,126,36,-111,73,-80,-204,-279,-253,-194,-149
-100,26,126,36,-111,73,-68,-192,-267,-247,-188,-137
-106,32,138,36,-123,85,-68,-192,-255,-241,-188,-137
-106,50,156,30,-129,103,-68,-192,-255,-235,-182,-137
-94,56,150,18,-123,103,-62,-180,-243,-223,-176,-131
-88,56,144,12,-117,97,-56,-174,-231,-223,-170,-125
-88,68,156,6,-123,109,-50,-168,-231,-217,-170,-125
-76,62,138,6,-105,97,-38,-156,-219,-199,-164,-113
-76,68,144,0,-111,103,-38,-144,-213,-199,-158,-113
-82,80,162,0,-123,121,-32,-132,-219,-193,-158,-113
-88,92,180,-6,-135,133,-21,-114,-201,-181,-146,-107
-88,110,198,-12,-141,151,-21,-102,-189,-175,-140,-107
-94,122,216,-12,-153,169,-21,-90,-171,-169,-134,-101
-94,122,216,-12,-153,169,-21,-78,-153,-157,-128,-89
-94,128,222,-18,-159,175,-16,-66,-135,-151,-122,-77
-94,140,234,-24,-165,187,-21,-54,-117,-145,-116,-71
-88,146,234,-30,-159,187,-21,-36,-99,-127,-110,-65
-76,158,234,-42,-153,193,-16,-13,-87,-109,-98,-59
-70,152,222,-42,-147,187,-4,10,-63,-91,-86,-47
-70,152,222,-42,-147,187,2,34,-45,-67,-74,-35
-64,164,228,-54,-147,193,8,52,-33,-49,-62,-23
-47,182,228,-66,-135,205,14,70,-15,-37,-44,-17
-42,194,234,-72,-135,217,20,88,9,-25,-32,-5
-58,194,252,-66,-153,223,32,100,33,-13,-8,7
-70,188,258,-60,-165,223,38,112,51,-1,4,18
-70,188,258,-60,-165,223,44,130,75,11,16,18
-58,194,252,-66,-153,223,38,136,87,11,22,23
-47,200,246,-78,-147,223,38,148,99,23,22,29
-47,206,252,-78,-147,229,38,154,110,35,28,35
-30,212,240,-90,-135,229,38,166,121,41,34,41
-24,218,240,-96,-129,229,38,172,127,53,45,47
-24,224,246,-102,-135,235,44,184,139,53,45,47
-18,218,234,-96,-123,229,44,190,139,58,50,47
-24,212,234,-96,-129,223,50,196,145,69,56,59
-30,200,228,-84,-129,217,56,196,151,75,68,65
-30,188,216,-78,-123,205,62,202,157,87,80,77
-30,194,222,-78,-123,211,68,202,163,87,86,77
-24,194,216,-84,-117,205,68,208,175,99,92,83
-18,194,210,-84,-111,205,68,214,181,105,92,89
-18,188,204,-84,-111,199,62,214,187,111,92,95
-12,188,198,-90,-105,193,62,226,193,117,92,101
-12,176,186,-84,-99,181,56,232,199,123,98,95
-6,164,168,-78,-87,169,56,232,205,123,98,101
0,164,162,-84,-81,163,50,232,205,117,104,95
0,164,162,-84,-81,163,50,232,205,123,104,89
-6,158,162,-72,-81,163,44,232,211,123,104,83
-12,152,162,-72,-87,157,44,232,205,117,104,83
-6,134,138,-60,-69,139,44,232,211,129,104,83
-6,128,132,-60,-69,133,50,232,211,129,110,77
-12,128,138,-60,-75,133,50,232,205,135,110,77
-12,116,126,-54,-69,121,50,232,211,135,110,83
-6,110,114,-48,-57,115,50,226,217,141,110,83
6,104,96,-54,-45,103,50,232,217,141,110,83
0,104,102,-54,-51,103,50,226,217,135,110,83
6,104,96,-54,-45,103,50,226,217,141,110,83
12,98,84,-54,-33,91,50,220,217,141,110,77
18,92,72,-54,-27,85,50,220,211,141,110,77
18,92,72,-54,-27,85,56,220,211,141,110,77
18,92,72,-54,-27,85,56,214,205,147,110,77
12,80,66,-48,-27,73,56,214,193,141,104,71
6,68,60,-36,-27,67,50,208,187,141,98,59
6,56,48,-30,-22,55,44,202,181,129,92,53
6,44,36,-24,-17,43,44,196,169,123,92,47
12,44,30,-30,-11,37,32,178,163,105,80,29
12,44,30,-30,-11,37,38,166,145,99,68,23
12,32,18,-24,-5,25,44,154,133,87,56,18
6,26,18,-12,-5,25,50,142,121,69,50,13
0,8,6,-6,-5,7,56,136,110,69,45,13
-12,-4,6,6,-11,1,50,124,110,63,40,7
-12,-10,0,12,-5,-5,44,118,99,58,34,1
-24,-22,0,24,-11,-11,38,112,87,58,28,-5
-24,-28,-5,24,-11,-17,26,106,75,53,22,-11
-18,-28,-10,24,-5,-17,26,100,63,41,10,-17
-6,-22,-16,18,7,-17,20,88,57,35,4,-23
-6,-22,-16,18,7,-17,20,82,45,41,4,-23
-18,-28,-10,24,-5,-17,20,76,33,23,-8,-29
-24,-34,-10,30,-5,-23,20,70,27,11,-14,-35
-24,-40,-16,30,-5,-28,26,64,21,5,-14,-35
-30,-34,-5,36,-11,-17,26,58,21,5,-14,-35
-36,-28,6,30,-22,-11,26,52,15,-1,-14,-41
-36,-22,12,30,-22,-5,26,52,15,-1,-14,-41
-42,-28,12,36,-27,-5,26,52,21,-1,-14,-41
-47,-46,0,47,-22,-23,32,52,15,-1,-14,-41
-42,-40,0,42,-22,-17,32,52,21,-1,-20,-41
-30,-22,6,30,-17,-5,26,52,27,5,-20,-41
-36,-40,-5,36,-17,-23,20,46,21,5,-26,-47
-30,-51,-22,42,-5,-33,20,40,21,-1,-26,-53
-36,-51,-16,42,-11,-33,20,40,9,-7,-32,-53
-42,-51,-10,47,-17,-28,26,40,9,-7,-32,-59
-36,-51,-16,42,-11,-33,26,34,3,-19,-38,-59
-36,-46,-10,42,-11,-28,26,34,3,-25,-44,-59
-42,-40,0,42,-22,-17,26,34,3,-25,-44,-59
-36,-34,0,36,-17,-17,26,34,9,-31,-44,-53
-42,-34,6,42,-22,-11,26,40,3,-31,-44,-53
-42,-34,6,42,-22,-11,26,34,3,-25,-44,-59
-36,-22,12,30,-22,-5,26,40,3,-19,-44,-59
-42,-16,24,30,-33,7,26,40,3,-19,-44,-65
-47,-22,24,36,-33,1,26,40,3,-13,-44,-59
-52,-22,30,36,-39,1,26,34,-3,-19,-38,-59
-52,-16,36,30,-45,7,26,34,-3,-19,-32,-59
-47,-22,24,36,-33,1,26,34,3,-13,-32,-59
-42,-28,12,36,-27,-5,26,34,3,-19,-38,-53
-42,-22,18,36,-27,1,26,28,3,-19,-44,-59
-42,-22,18,36,-27,1,20,22,-3,-25,-44,-53
-47,-34,12,42,-27,-11,26,22,-3,-19,-44,-53
-52,-46,6,47,-27,-23,26,22,3,-19,-38,-53
-58,-46,12,52,-33,-17,26,16,-3,-25,-38,-53
-64,-46,18,52,-39,-17,26,16,3,-19,-38,-53
-52,-40,12,42,-33,-17,26,16,9,-19,-32,-53
-42,-28,12,36,-27,-5,32,22,9,-19,-32,-47
-42,-22,18,36,-27,1,26,16,3,-25,-38,-53
-42,-16,24,30,-33,7,26,16,9,-19,-38,-47
-42,-10,30,30,-33,13,26,10,9,-25,-44,-47
-42,-22,18,36,-27,1,26,10,3,-25,-44,-41
-47,-16,30,30,-39,7,26,10,3,-19,-44,-35
-47,-4,42,24,-45,19,26,10,3,-19,-38,-35
-47,-4,42,24,-45,19,20,10,9,-25,-38,-35
-47,-10,36,30,-39,13,20,10,9,-19,-32,-47
-47,-10,36,30,-39,13,20,4,9,-25,-38,-53
-47,-22,24,36,-33,1,20,4,15,-31,-44,-53
-47,-28,18,36,-33,-5,14,4,15,-31,-44,-53
-42,-28,12,36,-27,-5,14,4,9,-31,-44,-53
-42,-28,12,36,-27,-5,8,-2,3,-37,-44,-53
-52,-16,36,30,-45,7,8,-8,-9,-43,-44,-59
-64,-16,48,36,-57,13,8,-8,-3,-31,-38,-53
-64,-22,42,42,-51,7,8,-13,-9,-43,-44,-59
-58,-28,30,42,-45,1,8,-18,-9,-49,-50,-53
-52,-28,24,36,-39,-5,2,-18,-9,-43,-50,-47
-47,-34,12,42,-27,-11,2,-18,-3,-43,-50,-41
-36,-34,0,36,-17,-17,8,-13,-9,-43,-56,-41
-36,-34,0,36,-17,-17,8,-13,-9,-43,-50,-41
-42,-34,6,42,-22,-11,8,-18,-9,-43,-44,-41
-42,-22,18,36,-27,1,2,-24,-15,-49,-50,-41
-47,-22,24,36,-33,1,-4,-30,-21,-55,-56,-47
-47,-22,24,36,-33,1,-10,-30,-21,-55,-62,-47
-47,-22,24,36,-33,1,-16,-36,-21,-55,-62,-47
-42,-22,18,36,-27,1,-16,-42,-27,-67,-62,-53
-47,-34,12,42,-27,-11,-16,-48,-21,-73,-68,-53
-36,-34,0,36,-17,-17,-10,-54,-21,-73,-68,-53
-30,-40,-10,36,-11,-23,-16,-60,-33,-79,-80,-59
-42,-51,-10,47,-17,-28,-16,-66,-33,-79,-86,-65
-47,-46,0,47,-22,-23,-21,-66,-39,-85,-86,-71
-47,-40,6,42,-27,-17,-21,-66,-45,-85,-86,-71
-47,-28,18,36,-33,-5,-32,-72,-51,-91,-98,-77
-47,-28,18,36,-33,-5,-44,-78,-57,-91,-104,-83
-47,-34,12,42,-27,-11,-44,-84,-63,-97,-104,-83
-42,-28,12,36,-27,-5,-44,-84,-57,-97,-104,-77
-42,-34,6,42,-22,-11,-38,-78,-51,-97,-98,-77
-42,-34,6,42,-22,-11,-32,-78,-45,-97,-92,-71
-42,-40,0,42,-22,-17,-21,-84,-39,-97,-92,-71
-47,-51,-5,47,-22,-28,-21,-84,-39,-97,-92,-71
-47,-56,-10,47,-22,-33,-21,-90,-39,-97,-92,-77
-42,-56,-16,47,-17,-33,-21,-96,-51,-103,-104,-83
-42,-56,-16,47,-17,-33,-26,-96,-51,-109,-104,-77
-47,-68,-22,52,-17,-45,-21,-90,-51,-103,-110,-71
-52,-74,-22,58,-17,-51,-21,-90,-51,-103,-110,-71
-52,-68,-16,52,-22,-45,-21,-90,-51,-109,-110,-71
-42,-68,-28,52,-11,-45,-26,-96,-57,-115,-110,-77
-42,-62,-22,52,-11,-39,-21,-96,-57,-115,-104,-77
-47,-62,-16,52,-17,-39,-21,-96,-45,-109,-98,-71
-52,-74,-22,58,-17,-51,-26,-102,-51,-115,-98,-71
-52,-80,-28,58,-17,-57,-32,-108,-51,-115,-104,-71
-52,-86,-34,64,-11,-63,-32,-108,-57,-115,-110,-71
-52,-80,-28,58,-17,-57,-38,-114,-63,-121,-116,-77
-52,-80,-28,58,-17,-57,-32,-108,-69,-115,-116,-77
-52,-74,-22,58,-17,-51,-32,-108,-69,-115,-116,-77
-52,-62,-10,52,-22,-39,-32,-108,-69,-121,-116,-77
-36,-56,-22,42,-11,-39,-32,-114,-69,-127,-116,-77
-42,-68,-28,52,-11,-45,-26,-102,-63,-115,-104,-71
-42,-80,-40,58,-5,-57,-26,-90,-51,-115,-98,-71
-42,-74,-34,58,-5,-51,-26,-96,-63,-121,-110,-77
-42,-56,-16,47,-17,-33,-32,-96,-63,-115,-110,-83
-42,-51,-10,47,-17,-28,-32,-102,-69,-115,-116,-89
-52,-56,-5,47,-27,-33,-38,-114,-81,-127,-128,-95
-58,-62,-5,58,-27,-33,-38,-114,-81,-133,-128,-95
-70,-62,6,64,-39,-28,-44,-120,-87,-127,-128,-89
-70,-68,0,64,-39,-33,-38,-120,-81,-127,-128,-83
-52,-74,-22,58,-17,-51,-38,-120,-81,-127,-128,-83
-42,-68,-28,52,-11,-45,-44,-120,-81,-127,-128,-83
-42,-68,-28,52,-11,-45,-44,-114,-81,-127,-122,-83
-47,-80,-34,58,-11,-57,-44,-120,-87,-133,-122,-89
-47,-80,-34,58,-11,-57,-38,-114,-81,-133,-122,-83
-47,-80,-34,58,-11,-57,-38,-108,-75,-127,-122,-83
-52,-92,-40,64,-11,-69,-38,-114,-81,-133,-122,-83
-64,-92,-28,70,-22,-63,-38,-120,-81,-133,-128,-83
-52,-86,-34,64,-11,-63,-38,-114,-75,-127,-122,-77
-52,-86,-34,64,-11,-63,-38,-120,-75,-127,-122,-77
-58,-92,-34,70,-17,-63,-38,-120,-81,-133,-128,-77
-52,-98,-46,70,-5,-75,-44,-126,-87,-139,-134,-83
-52,-104,-52,70,-5,-81,-44,-132,-93,-139,-140,-83
-52,-110,-58,76,1,-87,-44,-138,-99,-139,-140,-89
-47,-98,-52,70,1,-75,-50,-138,-93,-139,-134,-83
-42,-98,-58,70,7,-75,-50,-138,-99,-139,-134,-83
-42,-92,-52,64,1,-69,-56,-138,-93,-139,-140,-83
-42,-86,-46,64,1,-63,-56,-138,-93,-139,-140,-89
-47,-86,-40,64,-5,-63,-50,-138,-93,-139,-140,-83
-52,-74,-22,58,-17,-51,-56,-138,-93,-133,-140,-89
-47,-68,-22,52,-17,-45,-50,-138,-99,-139,-140,-89
-52,-74,-22,58,-17,-51,-44,-132,-93,-139,-140,-83
-52,-74,-22,58,-17,-51,-44,-132,-93,-133,-140,-83
-47,-68,-22,52,-17,-45,-44,-132,-93,-133,-140,-83
-47,-74,-28,58,-11,-51,-44,-132,-93,-133,-140,-89
-42,-80,-40,58,-5,-57,-44,-132,-99,-139,-140,-89
-36,-80,-46,52,1,-63,-38,-132,-93,-133,-134,-89
-36,-86,-52,58,7,-69,-38,-132,-87,-127,-134,-89
-36,-92,-58,58,7,-75,-44,-132,-87,-127,-128,-89
-36,-92,-58,58,7,-75,-50,-138,-93,-139,-134,-95
-36,-80,-46,52,1,-63,-50,-138,-99,-133,-134,-95
-36,-74,-40,52,1,-57,-50,-144,-99,-139,-140,-101
-42,-68,-28,52,-11,-45,-50,-144,-105,-139,-140,-101
-47,-68,-22,52,-17,-45,-50,-144,-105,-139,-140,-101
-52,-74,-22,58,-17,-51,-50,-138,-99,-139,-134,-101
-47,-74,-28,58,-11,-51,-50,-138,-99,-145,-134,-95
-47,-80,-34,58,-11,-57,-50,-138,-99,-145,-140,-95
-47,-86,-40,64,-5,-63,-44,-138,-105,-139,-140,-95
-47,-92,-46,64,-5,-69,-44,-138,-99,-139,-146,-95
-52,-98,-46,70,-5,-75,-44,-138,-105,-145,-152,-89
-58,-92,-34,70,-17,-63,-44,-126,-93,-133,-146,-77
-47,-86,-40,64,-5,-63,-44,-126,-93,-133,-152,-83
-52,-98,-46,70,-5,-75,-50,-126,-99,-139,-152,-83
-58,-98,-40,76,-11,-69,-50,-126,-93,-139,-146,-77
-58,-98,-40,76,-11,-69,-50,-120,-99,-139,-146,-77
-52,-92,-40,64,-11,-69,-50,-120,-99,-139,-140,-77
-47,-98,-52,70,1,-75,-50,-126,-105,-145,-140,-83
-42,-92,-52,64,1,-69,-44,-120,-99,-145,-134,-77
-42,-86,-46,64,1,-63,-44,-120,-99,-139,-128,-71
-47,-98,-52,70,1,-75,-44,-120,-99,-139,-134,-71
-47,-104,-58,70,1,-81,-44,-120,-105,-145,-134,-77
-47,-104,-58,70,1,-81,-44,-120,-111,-145,-134,-77
-42,-98,-58,70,7,-75,-44,-120,-105,-145,-134,-83
-47,-98,-52,70,1,-75,-50,-120,-111,-145,-134,-83
-47,-104,-58,70,1,-81,-50,-126,-111,-145,-134,-89
-42,-104,-64,70,7,-81,-50,-126,-105,-133,-134,-83
-30,-98,-70,64,19,-81,-50,-126,-105,-133,-134,-89
-24,-92,-70,52,19,-81,-56,-132,-111,-145,-140,-95
-42,-92,-52,64,1,-69,-50,-126,-105,-139,-134,-89
-47,-98,-52,70,1,-75,-44,-120,-99,-133,-134,-83
-52,-98,-46,70,-5,-75,-44,-120,-105,-139,-140,-89
-58,-98,-40,76,-11,-69,-44,-120,-99,-145,-140,-83
-64,-98,-34,76,-17,-69,-44,-120,-99,-145,-140,-83
-58,-98,-40,76,-11,-69,-38,-120,-99,-139,-134,-83
-47,-104,-58,70,1,-81,-38,-120,-105,-139,-134,-83
-42,-98,-58,70,7,-75,-44,-132,-111,-145,-140,-89
-47,-98,-52,70,1,-75,-44,-132,-111,-145,-140,-89
-47,-92,-46,64,-5,-69,-44,-132,-117,-139,-146,-83
-42,-92,-52,64,1,-69,-44,-132,-123,-139,-146,-83
-47,-92,-46,64,-5,-69,-44,-132,-123,-139,-146,-83
-47,-92,-46,64,-5,-69,-50,-132,-117,-139,-146,-77
-42,-80,-40,58,-5,-57,-50,-132,-123,-133,-146,-77
-42,-62,-22,52,-11,-39,-56,-132,-117,-133,-140,-71
-47,-51,-5,47,-22,-28,-56,-132,-117,-127,-134,-65
-52,-51,0,47,-27,-28,-50,-126,-111,-127,-134,-59
-52,-51,0,47,-27,-28,-44,-120,-111,-121,-128,-53
-58,-34,24,47,-39,-5,-32,-114,-99,-115,-122,-53
-58,-28,30,42,-45,1,-21,-96,-93,-103,-110,-47
-52,-10,42,30,-45,13,-16,-84,-87,-91,-104,-41
-58,-4,54,30,-57,25,-10,-78,-81,-79,-98,-35
-52,2,54,24,-51,25,2,-66,-63,-73,-86,-29
-52,8,60,18,-57,31,14,-60,-63,-67,-86,-23
-58,20,78,18,-69,49,20,-60,-63,-67,-74,-17
-64,32,96,12,-81,61,26,-60,-57,-55,-74,-17
-58,38,96,12,-75,67,32,-54,-51,-43,-68,-5
-58,50,108,6,-81,79,44,-48,-45,-37,-62,1
-58,62,120,0,-87,91,50,-42,-39,-31,-56,7
-58,74,132,-6,-93,103,50,-30,-27,-25,-50,7
-52,92,144,-24,-99,115,62,-18,-15,-13,-38,13
-52,104,156,-30,-105,127,68,-13,-3,-7,-32,18
