,,,,,,,,,,,
2019-09-04 23:16:44,,,,,,,,,,,
,,,,,,,,,,,
I,II,III,aVR,aVL,aVF,V1,V2,V3,V4,V5,V6
-28,-84,-19,46,-3,-46,-557,352,540,843,3483,1797
625,-438,-1105,-43,867,-772,-803,-883,-1037,-812,-1668,-674
625,-456,-1105,-49,867,-772,-797,-901,-1073,-860,-1920,-800
577,-450,-1009,-49,801,-742,-737,-883,-1067,-860,-1926,-806
475,-432,-853,-43,663,-634,-617,-769,-971,-824,-1914,-806
367,-384,-685,-31,537,-532,-515,-649,-863,-752,-1872,-794
277,-342,-571,-19,435,-448,-425,-553,-767,-698,-1842,-782
217,-300,-469,-7,351,-382,-359,-481,-719,-656,-1812,-770
163,-270,-391,4,297,-328,-305,-427,-659,-620,-1782,-758
121,-246,-331,16,237,-286,-257,-385,-617,-590,-1764,-746
85,-234,-283,28,195,-256,-221,-343,-581,-566,-1746,-734
61,-216,-235,40,159,-226,-185,-301,-545,-536,-1722,-722
49,-198,-193,46,129,-196,-143,-259,-503,-506,-1692,-710
25,-186,-157,52,99,-166,-107,-223,-467,-476,-1668,-680
13,-174,-139,58,87,-154,-89,-205,-449,-458,-1656,-668
1,-162,-133,64,75,-148,-77,-193,-437,-452,-1644,-662
-10,-162,-127,70,63,-142,-71,-187,-425,-446,-1632,-662
-22,-156,-115,76,51,-136,-65,-175,-419,-440,-1626,-656
-28,-150,-103,76,45,-130,-59,-169,-413,-434,-1620,-656
-34,-150,-97,76,39,-124,-47,-157,-401,-428,-1608,-656
-40,-150,-91,76,33,-118,-41,-151,-389,-422,-1602,-650
-46,-150,-85,76,27,-112,-29,-145,-383,-422,-1590,-650
-46,-144,-79,76,21,-106,-23,-139,-377,-422,-1584,-644
-46,-144,-73,76,15,-100,-17,-133,-371,-416,-1578,-638
-52,-144,-73,76,15,-100,-11,-127,-365,-410,-1572,-632
-52,-144,-67,76,9,-100,-5,-121,-359,-410,-1566,-632
-58,-144,-67,76,9,-100,-5,-115,-353,-404,-1560,-632
-58,-144,-61,76,3,-100,0,-115,-347,-398,-1554,-632
-58,-138,-55,76,3,-94,6,-115,-341,-398,-1548,-626
-58,-138,-55,82,3,-94,12,-109,-335,-398,-1542,-626
-58,-138,-55,82,3,-88,12,-103,-329,-398,-1536,-626
-64,-138,-55,88,-3,-88,18,-103,-323,-392,-1530,-626
-64,-138,-55,88,-3,-88,18,-97,-317,-392,-1524,-626
-64,-138,-55,88,-3,-88,24,-97,-311,-392,-1518,-620
-64,-138,-55,88,-3,-88,30,-97,-311,-392,-1512,-620
-64,-138,-55,88,-3,-88,30,-97,-305,-386,-1512,-620
-70,-138,-49,88,-8,-88,30,-97,-299,-386,-1506,-620
-76,-138,-49,88,-8,-88,30,-91,-299,-386,-1500,-620
-76,-138,-49,88,-14,-88,36,-91,-299,-386,-1494,-620
-76,-138,-43,88,-14,-88,36,-85,-299,-386,-1488,-620
-76,-138,-43,88,-14,-88,36,-85,-293,-380,-1482,-620
-76,-138,-43,88,-14,-88,42,-85,-293,-380,-1476,-620
-76,-138,-43,88,-14,-88,42,-79,-293,-374,-1470,-620
-76,-138,-43,88,-14,-88,42,-79,-293,-374,-1464,-614
-76,-138,-43,88,-14,-88,42,-73,-287,-374,-1464,-614
-76,-138,-43,88,-14,-88,42,-73,-281,-374,-1464,-608
-76,-138,-43,88,-14,-88,48,-73,-281,-374,-1458,-608
-76,-138,-43,88,-14,-88,54,-67,-281,-374,-1452,-608
-76,-138,-43,88,-14,-88,54,-61,-281,-374,-1446,-608
-76,-138,-43,88,-14,-88,54,-55,-275,-374,-1440,-608
-76,-138,-43,94,-14,-88,60,-55,-275,-374,-1434,-608
-76,-138,-43,94,-14,-88,60,-55,-275,-368,-1428,-608
-76,-138,-43,94,-14,-88,60,-49,-269,-368,-1422,-608
-76,-138,-43,94,-14,-88,60,-49,-263,-368,-1416,-608
-76,-138,-43,94,-14,-88,66,-49,-263,-368,-1410,-608
-76,-138,-43,94,-14,-88,72,-49,-263,-368,-1404,-608
-76,-138,-43,94,-14,-88,78,-49,-263,-368,-1404,-608
-76,-138,-43,94,-14,-88,78,-43,-257,-368,-1398,-608
-76,-138,-43,100,-14,-88,84,-37,-257,-368,-1392,-608
-76,-138,-43,100,-14,-88,84,-31,-257,-368,-1386,-608
-76,-138,-43,100,-14,-88,84,-25,-251,-368,-1380,-608
-76,-138,-43,100,-14,-88,90,-19,-245,-368,-1380,-602
-76,-138,-43,100,-14,-88,96,-13,-239,-368,-1380,-602
-76,-138,-43,100,-14,-88,96,-7,-233,-368,-1374,-602
-76,-144,-43,106,-14,-88,96,-7,-233,-368,-1368,-602
-76,-150,-43,106,-14,-88,96,-2,-227,-368,-1362,-602
-76,-150,-43,106,-14,-88,102,4,-221,-368,-1356,-602
-76,-150,-43,106,-14,-88,108,4,-215,-368,-1350,-602
-76,-156,-43,106,-14,-88,108,10,-209,-368,-1344,-602
-76,-156,-49,106,-14,-88,114,16,-209,-362,-1338,-602
-76,-156,-49,106,-14,-88,120,22,-203,-362,-1332,-602
-76,-156,-49,106,-14,-94,120,28,-203,-356,-1326,-596
-76,-156,-55,112,-14,-100,126,34,-197,-356,-1326,-596
-82,-156,-55,112,-14,-100,132,40,-197,-356,-1320,-596
-82,-156,-55,112,-14,-100,132,40,-191,-350,-1314,-596
-82,-156,-55,112,-14,-100,132,40,-185,-350,-1308,-596
-82,-156,-55,112,-14,-100,138,46,-179,-350,-1302,-596
-82,-156,-61,112,-14,-100,138,52,-173,-350,-1302,-590
-82,-156,-61,112,-14,-100,138,58,-167,-350,-1296,-590
-82,-156,-61,112,-14,-100,144,64,-161,-350,-1290,-584
-82,-156,-61,112,-14,-100,150,70,-155,-344,-1284,-584
-82,-156,-67,112,-14,-106,156,76,-149,-338,-1272,-578
-82,-156,-67,112,-14,-106,162,82,-143,-332,-1260,-578
-82,-156,-67,112,-14,-106,162,88,-137,-326,-1254,-578
-82,-156,-67,112,-14,-106,162,94,-137,-326,-1248,-578
-82,-156,-67,112,-14,-106,162,100,-131,-320,-1242,-572
-82,-156,-67,112,-14,-106,162,106,-125,-320,-1236,-566
-82,-156,-67,112,-14,-106,168,112,-119,-314,-1230,-560
-82,-156,-67,112,-14,-106,174,124,-113,-308,-1224,-560
-82,-156,-67,112,-14,-106,180,130,-107,-308,-1218,-560
-82,-156,-67,112,-14,-106,186,136,-95,-308,-1206,-560
-82,-156,-67,112,-14,-106,192,148,-83,-302,-1194,-560
-82,-156,-67,112,-14,-106,198,154,-77,-302,-1188,-554
-76,-156,-67,112,-8,-106,198,166,-71,-296,-1182,-548
-76,-156,-67,112,-8,-106,204,172,-65,-290,-1170,-542
-76,-156,-67,112,-3,-106,210,178,-59,-278,-1164,-536
-70,-156,-67,112,-3,-106,210,190,-53,-272,-1152,-536
-70,-156,-67,112,-3,-106,210,196,-47,-266,-1146,-530
-70,-156,-67,112,-3,-106,210,202,-35,-260,-1134,-530
-64,-156,-67,106,-3,-106,216,214,-23,-254,-1128,-524
-58,-156,-73,100,3,-106,216,226,-11,-242,-1116,-518
-52,-150,-79,94,9,-106,222,238,1,-230,-1104,-512
-46,-150,-79,94,15,-106,222,250,12,-224,-1092,-506
-46,-150,-79,88,15,-106,222,262,24,-212,-1080,-494
-40,-144,-79,88,15,-106,222,268,30,-206,-1068,-488
-40,-144,-79,88,21,-106,222,274,36,-194,-1056,-482
-40,-144,-85,88,21,-106,228,280,42,-188,-1044,-476
-34,-138,-91,88,27,-106,228,286,54,-176,-1032,-470
-22,-132,-97,82,33,-106,228,298,66,-164,-1020,-470
-10,-126,-97,76,39,-106,228,310,78,-158,-1008,-464
1,-126,-103,64,51,-106,228,322,90,-146,-996,-458
7,-120,-109,58,57,-106,228,334,102,-134,-972,-446
13,-120,-115,52,63,-106,228,346,114,-122,-960,-434
19,-120,-115,46,69,-106,228,358,126,-110,-948,-422
25,-114,-115,40,75,-106,228,364,138,-98,-936,-410
31,-114,-121,40,75,-106,228,370,144,-92,-924,-404
37,-114,-127,40,81,-106,228,376,156,-86,-912,-398
43,-114,-133,34,87,-106,228,382,168,-74,-900,-392
49,-108,-139,28,93,-106,228,388,180,-62,-882,-380
61,-102,-139,22,99,-106,228,394,192,-50,-870,-374
73,-96,-139,10,111,-106,222,406,204,-38,-852,-362
85,-90,-145,4,117,-106,216,412,210,-32,-834,-350
91,-84,-145,-1,123,-106,210,418,216,-26,-822,-344
97,-84,-151,-7,129,-106,204,418,222,-20,-810,-332
103,-78,-151,-13,129,-106,198,418,228,-14,-792,-320
103,-78,-151,-19,129,-106,192,424,234,-2,-780,-308
109,-72,-157,-25,135,-106,192,424,240,9,-762,-302
121,-66,-163,-31,141,-106,186,424,246,21,-750,-296
127,-60,-169,-37,153,-106,180,424,252,33,-738,-290
139,-60,-175,-43,159,-106,168,424,252,45,-720,-278
145,-60,-181,-49,165,-106,156,424,258,51,-708,-272
151,-60,-187,-55,171,-106,144,424,258,57,-684,-260
163,-54,-193,-61,177,-106,132,424,258,63,-672,-248
169,-48,-199,-67,183,-106,120,418,258,69,-666,-236
181,-42,-205,-73,195,-106,102,412,258,75,-654,-224
187,-36,-205,-79,201,-106,90,400,258,81,-642,-212
193,-30,-211,-85,207,-106,78,388,258,87,-630,-206
205,-24,-211,-91,207,-106,66,376,258,93,-618,-200
211,-18,-211,-97,207,-106,54,352,258,99,-606,-194
217,-12,-211,-103,213,-106,36,340,258,105,-594,-188
217,-12,-211,-103,213,-106,24,328,258,105,-588,-182
223,-6,-211,-103,219,-106,6,316,252,105,-576,-176
223,-1,-211,-109,219,-106,-5,292,246,105,-570,-170
223,-1,-211,-109,219,-106,-17,262,234,105,-570,-164
223,-1,-211,-109,219,-106,-29,250,222,105,-564,-158
223,-1,-211,-109,219,-100,-35,226,216,105,-564,-158
223,5,-205,-115,219,-94,-47,208,204,105,-564,-158
223,11,-205,-115,219,-94,-53,184,192,105,-564,-158
223,17,-205,-115,219,-94,-59,154,180,99,-564,-158
223,23,-199,-115,219,-94,-65,130,162,93,-564,-158
223,23,-187,-115,213,-88,-71,112,150,87,-564,-158
217,23,-175,-115,201,-82,-77,88,132,81,-564,-158
211,23,-163,-115,189,-76,-83,64,114,75,-564,-158
199,23,-157,-115,177,-70,-89,40,96,69,-564,-158
187,29,-145,-115,165,-58,-95,22,84,63,-564,-158
175,29,-133,-115,153,-46,-95,4,66,51,-564,-158
169,29,-121,-115,147,-40,-101,-13,42,39,-564,-158
163,29,-109,-109,141,-34,-107,-31,24,27,-564,-158
157,35,-97,-109,135,-34,-107,-55,6,21,-564,-158
151,35,-91,-109,129,-28,-107,-73,-17,9,-564,-158
139,35,-85,-109,117,-22,-107,-91,-29,-2,-564,-158
133,35,-79,-103,111,-16,-107,-103,-41,-8,-570,-164
127,35,-73,-97,99,-16,-107,-115,-53,-14,-576,-164
115,35,-67,-91,87,-16,-107,-127,-65,-26,-582,-170
103,35,-55,-85,75,-16,-107,-139,-77,-38,-588,-176
91,35,-43,-79,69,-10,-107,-151,-89,-50,-588,-182
85,35,-37,-79,63,-5,-107,-163,-101,-56,-588,-182
79,35,-31,-73,57,1,-107,-175,-113,-62,-594,-188
73,35,-25,-67,51,1,-107,-187,-125,-68,-600,-194
73,35,-19,-67,45,1,-107,-193,-137,-80,-600,-194
67,35,-19,-67,45,1,-107,-199,-143,-86,-600,-194
67,35,-13,-67,45,1,-107,-205,-149,-92,-600,-200
61,35,-13,-67,45,1,-107,-211,-155,-98,-600,-200
61,35,-13,-67,45,1,-107,-217,-161,-104,-600,-206
61,35,-13,-67,45,1,-107,-223,-167,-104,-600,-206
61,35,-13,-67,45,1,-107,-229,-167,-110,-600,-206
55,35,-13,-61,45,1,-107,-235,-173,-116,-600,-206
49,35,-13,-55,45,1,-107,-235,-179,-116,-600,-206
43,35,-13,-49,39,1,-107,-235,-185,-116,-600,-206
43,35,-13,-49,39,1,-107,-235,-185,-116,-600,-206
43,35,-13,-49,39,1,-107,-235,-185,-122,-600,-206
43,29,-13,-43,33,1,-107,-235,-185,-122,-600,-212
43,29,-13,-43,33,1,-107,-235,-185,-122,-600,-212
43,29,-13,-43,33,1,-107,-235,-185,-122,-600,-212
43,23,-13,-43,33,1,-107,-235,-185,-122,-600,-212
37,17,-13,-37,33,1,-107,-235,-185,-128,-600,-212
31,17,-13,-31,33,1,-107,-235,-191,-128,-600,-212
31,17,-13,-31,33,1,-107,-235,-191,-128,-600,-212
25,17,-13,-25,33,1,-107,-241,-191,-128,-600,-212
25,11,-13,-25,33,1,-107,-241,-191,-128,-600,-212
25,11,-13,-25,33,1,-107,-247,-197,-128,-600,-212
25,11,-13,-25,27,1,-107,-247,-197,-134,-600,-218
19,11,-13,-19,21,1,-101,-247,-197,-134,-600,-218
19,11,-13,-19,21,1,-101,-247,-197,-134,-600,-218
19,11,-13,-19,21,1,-101,-247,-197,-134,-600,-224
13,5,-13,-13,21,1,-101,-247,-197,-134,-600,-230
7,-1,-13,-7,21,1,-95,-247,-197,-140,-600,-236
7,-1,-13,-7,21,1,-95,-247,-197,-140,-600,-236
7,-1,-13,-7,15,1,-95,-247,-197,-140,-600,-236
1,-1,-7,-7,9,1,-89,-247,-197,-146,-600,-236
-5,-1,-7,-7,3,1,-83,-247,-197,-146,-600,-236
-5,-6,-7,-7,3,1,-77,-247,-197,-146,-600,-236
-5,-6,-7,-1,3,1,-77,-247,-197,-146,-594,-236
-5,-6,-7,-1,3,1,-77,-247,-197,-146,-588,-236
-5,-6,-7,-1,3,1,-71,-247,-197,-146,-582,-236
-10,-6,-7,4,3,1,-65,-241,-197,-146,-582,-236
-10,-6,-1,4,3,1,-59,-241,-197,-146,-576,-236
-10,-12,-1,4,3,1,-59,-241,-197,-146,-570,-236
-10,-12,-1,4,3,1,-59,-241,-197,-146,-558,-236
-10,-12,-1,4,3,1,-59,-241,-197,-146,-552,-236
-10,-12,-1,4,3,1,-59,-235,-197,-146,-546,-236
-16,-12,-1,10,-3,1,-53,-229,-197,-146,-540,-236
-22,-12,-1,10,-8,1,-47,-229,-197,-146,-534,-236
-28,-12,-1,10,-8,1,-47,-229,-197,-146,-528,-236
-28,-12,4,10,-8,1,-41,-223,-191,-146,-528,-236
-28,-12,10,10,-8,1,-35,-217,-191,-146,-528,-236
-28,-12,10,10,-8,1,-35,-211,-185,-146,-528,-236
-28,-12,10,10,-8,1,-29,-211,-185,-146,-528,-236
-28,-18,10,16,-8,1,-29,-205,-185,-146,-522,-236
-28,-18,10,22,-14,1,-29,-205,-185,-146,-516,-236
-28,-18,10,22,-14,1,-29,-199,-179,-146,-510,-236
-28,-18,10,22,-14,1,-29,-199,-179,-146,-504,-236
-34,-18,10,22,-14,1,-29,-199,-179,-146,-504,-236
-40,-24,10,22,-14,1,-29,-199,-173,-146,-504,-236
-40,-24,10,28,-14,1,-29,-199,-173,-146,-498,-236
-40,-24,10,28,-14,1,-29,-193,-167,-146,-492,-230
-40,-24,10,28,-14,1,-23,-187,-167,-146,-492,-230
-40,-24,10,28,-14,1,-23,-181,-161,-146,-492,-230
-40,-24,10,28,-14,1,-23,-181,-155,-146,-486,-230
-40,-24,10,28,-20,1,-23,-181,-149,-140,-480,-230
-40,-24,10,28,-20,1,-23,-175,-143,-134,-474,-230
-40,-24,10,28,-20,1,-23,-175,-143,-128,-468,-230
-40,-24,10,28,-20,1,-23,-175,-143,-128,-468,-230
-40,-24,10,28,-20,1,-23,-175,-143,-128,-468,-230
-40,-24,10,28,-20,1,-17,-169,-137,-122,-462,-230
-40,-24,10,28,-20,1,-17,-169,-137,-122,-456,-224
-40,-24,10,28,-20,1,-17,-169,-137,-122,-450,-218
-40,-24,10,28,-20,1,-17,-169,-137,-122,-444,-212
-40,-24,16,28,-20,1,-17,-169,-137,-116,-438,-206
-40,-24,16,28,-20,1,-17,-169,-137,-110,-432,-206
-40,-24,16,28,-20,1,-17,-169,-131,-104,-426,-206
-40,-24,16,28,-26,1,-17,-169,-125,-104,-426,-200
-40,-24,16,28,-26,1,-17,-169,-125,-98,-426,-200
-40,-24,16,28,-26,1,-17,-169,-125,-98,-426,-194
-40,-24,16,28,-26,1,-17,-169,-125,-92,-420,-194
-40,-24,16,28,-26,1,-17,-163,-119,-92,-414,-194
-40,-24,16,28,-26,1,-17,-163,-119,-92,-414,-188
-40,-24,16,28,-26,1,-17,-163,-119,-92,-414,-188
-40,-24,16,28,-26,1,-17,-163,-119,-92,-408,-188
-40,-24,16,28,-26,1,-17,-163,-119,-92,-408,-188
-40,-24,16,28,-26,1,-17,-163,-119,-92,-408,-188
-40,-24,16,28,-26,1,-17,-163,-119,-92,-408,-182
-40,-24,16,28,-26,1,-17,-163,-119,-86,-402,-182
-40,-24,16,28,-26,1,-17,-163,-119,-86,-402,-182
-40,-24,16,28,-26,1,-17,-163,-119,-86,-396,-182
-40,-24,16,28,-26,1,-17,-163,-119,-86,-396,-182
-46,-24,16,28,-26,1,-17,-163,-119,-86,-390,-182
-46,-24,16,28,-26,1,-17,-163,-119,-86,-384,-176
-46,-24,16,28,-26,1,-17,-163,-119,-86,-384,-176
-46,-24,16,28,-26,1,-17,-163,-119,-86,-384,-176
-46,-24,16,28,-26,1,-17,-163,-119,-86,-378,-176
-46,-24,16,28,-26,1,-17,-163,-119,-86,-378,-176
-46,-24,16,28,-26,1,-17,-163,-119,-86,-372,-170
-46,-24,16,28,-26,1,-17,-163,-119,-86,-372,-164
-46,-24,16,28,-26,1,-17,-163,-119,-86,-366,-164
-46,-24,16,28,-26,1,-17,-163,-119,-86,-366,-164
-46,-24,22,28,-26,1,-17,-163,-119,-80,-366,-164
-46,-24,22,28,-26,1,-17,-163,-119,-80,-360,-164
-46,-24,28,28,-32,1,-17,-163,-119,-74,-354,-164
-46,-24,28,28,-32,1,-17,-163,-119,-74,-354,-164
-46,-24,28,28,-32,1,-17,-163,-119,-74,-354,-164
-46,-24,28,28,-32,1,-17,-163,-119,-74,-354,-164
-46,-24,28,28,-32,1,-17,-163,-119,-74,-348,-164
-46,-24,28,28,-32,1,-17,-163,-119,-74,-342,-158
-46,-24,28,28,-32,1,-17,-163,-119,-74,-342,-158
-46,-24,28,28,-32,1,-17,-163,-119,-74,-342,-158
-46,-24,28,28,-32,1,-17,-163,-119,-74,-336,-158
-46,-24,28,28,-32,1,-17,-163,-119,-74,-336,-158
-46,-24,28,28,-32,1,-17,-163,-119,-74,-336,-158
-46,-24,28,28,-32,1,-17,-163,-119,-74,-336,-158
-46,-24,28,28,-32,1,-17,-163,-119,-74,-330,-158
-46,-24,28,28,-32,1,-17,-163,-119,-74,-330,-158
-46,-24,28,28,-38,1,-17,-163,-119,-74,-330,-158
-46,-24,28,34,-38,1,-17,-163,-119,-74,-330,-158
-46,-24,28,34,-38,1,-17,-163,-119,-74,-330,-152
-46,-24,28,34,-38,1,-17,-163,-119,-74,-324,-152
-46,-24,28,34,-38,1,-17,-163,-119,-74,-324,-152
-46,-24,28,40,-38,1,-17,-163,-119,-74,-324,-152
-46,-24,28,40,-38,1,-17,-163,-119,-74,-324,-152
-46,-24,28,40,-38,1,-17,-163,-119,-74,-318,-152
-46,-24,28,40,-38,1,-17,-163,-119,-74,-318,-152
-46,-24,28,40,-38,1,-17,-163,-119,-74,-318,-152
-46,-24,28,40,-44,1,-17,-163,-119,-74,-312,-152
-46,-24,28,40,-44,1,-17,-163,-119,-74,-312,-152
-46,-24,28,40,-44,1,-17,-163,-119,-74,-312,-152
-46,-24,28,40,-44,1,-17,-163,-119,-74,-312,-152
-46,-24,28,40,-44,1,-17,-163,-119,-74,-306,-152
-46,-24,28,40,-44,1,-17,-163,-119,-74,-306,-152
-46,-24,28,40,-44,1,-17,-163,-119,-74,-306,-152
-46,-24,28,40,-44,1,-17,-163,-119,-74,-306,-152
-46,-24,28,40,-44,1,-17,-163,-119,-74,-300,-152
-46,-24,28,40,-44,1,-17,-163,-119,-74,-294,-152
-46,-24,28,40,-44,1,-17,-163,-119,-74,-294,-152
-46,-24,28,40,-44,1,-17,-163,-119,-74,-288,-152
-46,-24,28,40,-44,1,-17,-163,-119,-74,-288,-152
-46,-24,28,40,-44,1,-17,-163,-119,-74,-288,-146
-46,-24,28,40,-44,1,-17,-163,-119,-74,-288,-146
-46,-24,28,40,-44,1,-17,-163,-119,-74,-282,-146
-46,-24,28,40,-44,1,-17,-163,-119,-74,-282,-146
-46,-24,28,40,-44,1,-17,-163,-119,-74,-282,-146
-46,-24,28,40,-44,1,-17,-163,-119,-74,-282,-146
-46,-24,34,40,-44,1,-17,-163,-119,-74,-282,-146
-46,-24,34,40,-44,1,-17,-163,-119,-74,-276,-140
-46,-24,34,40,-44,1,-17,-163,-119,-74,-270,-140
-46,-24,34,40,-44,1,-17,-163,-119,-74,-270,-140
-46,-24,34,40,-44,1,-17,-163,-119,-74,-270,-140
-46,-24,34,40,-44,1,-17,-163,-119,-74,-264,-140
-46,-24,34,40,-44,1,-17,-163,-119,-74,-264,-140
-46,-24,34,40,-44,1,-17,-163,-119,-74,-264,-140
-46,-24,34,40,-44,1,-17,-163,-119,-74,-264,-140
-46,-24,34,40,-44,1,-17,-163,-119,-74,-258,-140
-46,-24,34,40,-44,1,-17,-163,-119,-74,-258,-134
-46,-24,34,40,-44,1,-17,-163,-119,-74,-258,-134
-46,-24,34,40,-44,1,-17,-163,-119,-74,-258,-134
-46,-24,34,40,-44,1,-17,-163,-119,-74,-258,-134
-46,-24,34,40,-44,1,-17,-163,-119,-74,-252,-134
-46,-24,34,40,-44,1,-17,-163,-119,-74,-252,-134
-46,-24,34,40,-44,1,-17,-163,-119,-74,-252,-134
-46,-24,34,40,-44,1,-17,-163,-119,-74,-246,-134
-46,-24,34,40,-44,1,-17,-163,-119,-74,-240,-128
-46,-24,34,40,-50,1,-17,-163,-119,-74,-240,-128
-46,-24,34,40,-50,1,-17,-163,-119,-74,-240,-128
-46,-24,34,40,-50,1,-17,-163,-119,-74,-240,-128
-46,-24,34,40,-50,1,-17,-163,-119,-74,-234,-128
-46,-24,34,40,-50,1,-17,-163,-119,-74,-234,-128
-52,-24,34,40,-50,1,-17,-163,-119,-74,-234,-128
-52,-24,34,40,-50,1,-17,-163,-119,-74,-234,-128
-52,-24,34,40,-50,1,-17,-163,-119,-74,-234,-128
-52,-24,34,40,-50,1,-11,-163,-119,-74,-234,-128
-52,-24,34,40,-50,1,-11,-163,-119,-74,-234,-128
-52,-24,34,40,-50,1,-11,-163,-119,-74,-234,-128
-52,-24,34,40,-50,1,-11,-163,-119,-74,-234,-128
-58,-24,34,40,-50,1,-11,-163,-119,-74,-234,-128
-58,-30,34,46,-50,1,-11,-163,-119,-74,-234,-128
-58,-30,34,46,-50,1,-11,-163,-119,-74,-234,-128
-58,-30,34,46,-50,1,-5,-163,-119,-74,-234,-122
-58,-30,34,46,-50,1,-5,-163,-119,-74,-234,-122
-58,-30,34,46,-50,1,-5,-163,-119,-74,-234,-122
-58,-30,34,46,-50,1,-5,-163,-119,-74,-234,-122
-58,-30,34,46,-50,1,0,-157,-119,-74,-234,-122
-58,-30,34,46,-50,1,0,-157,-119,-74,-234,-116
-58,-30,34,46,-50,1,0,-157,-119,-74,-234,-116
-58,-30,34,46,-50,1,0,-157,-119,-74,-234,-116
-58,-30,34,46,-50,1,0,-151,-119,-74,-234,-116
-58,-30,34,46,-50,1,0,-151,-119,-74,-234,-116
-58,-30,34,46,-50,1,0,-151,-119,-74,-228,-116
-58,-30,34,46,-50,1,0,-145,-119,-74,-222,-116
-58,-30,34,46,-50,1,6,-139,-113,-68,-216,-110
-58,-24,34,46,-50,1,12,-127,-107,-62,-210,-104
-58,-24,34,46,-50,1,24,-115,-101,-56,-204,-98
-52,-18,34,46,-50,7,30,-109,-95,-50,-198,-98
-52,-18,34,40,-50,7,36,-103,-95,-44,-192,-92
-46,-12,40,34,-50,7,42,-91,-89,-38,-186,-86
-46,-6,40,28,-50,13,48,-79,-83,-32,-180,-80
-40,-1,46,28,-50,19,48,-79,-77,-26,-174,-74
-34,5,46,22,-50,25,48,-79,-77,-26,-168,-74
-28,11,46,16,-44,31,48,-79,-71,-26,-162,-68
-22,17,46,10,-44,31,48,-79,-65,-26,-156,-62
-22,23,46,10,-44,31,48,-79,-59,-26,-156,-56
-22,23,46,10,-44,31,48,-79,-59,-20,-150,-50
-10,23,46,4,-38,31,42,-73,-59,-14,-144,-50
-5,29,46,-1,-32,31,36,-67,-59,-8,-138,-44
1,35,46,-7,-32,37,30,-67,-59,-2,-132,-44
1,41,46,-13,-32,43,24,-67,-59,-2,-126,-38
1,41,46,-13,-32,43,18,-67,-59,-2,-120,-38
1,41,52,-13,-32,49,18,-67,-59,-2,-120,-38
1,47,52,-13,-32,49,12,-67,-59,-2,-120,-38
1,47,52,-13,-32,49,12,-73,-59,-2,-120,-38
1,47,52,-13,-32,49,6,-79,-59,-2,-120,-38
1,47,52,-13,-32,49,0,-85,-65,-2,-120,-38
1,47,52,-13,-32,49,0,-91,-71,-8,-120,-38
1,41,52,-13,-32,43,0,-91,-77,-8,-120,-38
1,41,52,-13,-32,43,0,-91,-83,-14,-120,-38
1,41,52,-13,-32,37,0,-97,-83,-14,-120,-38
1,35,46,-13,-32,31,0,-97,-89,-14,-120,-38
1,23,34,-7,-26,19,0,-97,-89,-20,-126,-38
1,11,22,-1,-20,7,0,-103,-95,-26,-126,-44
1,5,10,-1,-14,1,0,-109,-95,-26,-126,-50
1,5,10,-1,-14,1,0,-109,-95,-26,-126,-50
1,-1,10,-1,-14,1,0,-109,-101,-26,-126,-50
1,-1,10,4,-14,1,0,-109,-101,-26,-126,-50
1,-1,4,4,-14,1,0,-109,-107,-26,-126,-50
1,-1,4,4,-14,1,0,-109,-107,-26,-126,-50
1,-6,4,4,-14,1,0,-109,-107,-26,-126,-50
-5,-6,4,10,-14,1,0,-109,-107,-26,-126,-50
-16,-6,10,16,-20,1,0,-109,-107,-32,-126,-56
-28,-12,16,28,-32,1,0,-109,-113,-38,-132,-62
-40,-18,22,34,-38,1,0,-115,-119,-44,-138,-68
-52,-24,22,40,-44,1,0,-115,-119,-50,-144,-74
-58,-24,22,46,-50,1,6,-115,-119,-50,-144,-74
-58,-24,28,52,-50,1,6,-115,-119,-50,-144,-80
-58,-30,34,52,-50,1,6,-115,-119,-50,-144,-80
-58,-36,34,52,-50,1,6,-115,-125,-50,-144,-80
-58,-36,34,52,-50,1,6,-115,-125,-56,-144,-86
-64,-36,34,52,-50,1,6,-115,-125,-56,-150,-86
-70,-36,34,58,-56,1,12,-115,-125,-56,-156,-86
-70,-36,34,58,-56,1,12,-115,-125,-56,-156,-86
-70,-36,34,58,-56,1,12,-115,-125,-56,-162,-86
-70,-36,34,58,-62,1,12,-115,-125,-56,-162,-86
-70,-36,34,58,-62,1,12,-115,-125,-56,-162,-86
-70,-36,34,58,-62,1,12,-115,-125,-56,-162,-86
-70,-36,34,58,-62,1,18,-115,-125,-56,-168,-86
-76,-36,34,58,-62,1,24,-115,-125,-56,-168,-86
-76,-36,34,58,-62,1,24,-115,-125,-56,-168,-86
-76,-36,34,58,-62,1,24,-115,-125,-56,-168,-86
-76,-36,40,58,-62,1,24,-115,-125,-56,-168,-86
-76,-36,40,58,-62,1,24,-115,-125,-62,-168,-86
-76,-36,46,58,-62,1,24,-115,-125,-62,-168,-86
-82,-36,46,58,-68,1,30,-115,-125,-62,-168,-86
-82,-36,52,58,-68,1,30,-115,-125,-62,-168,-86
-82,-36,52,58,-74,1,30,-115,-131,-62,-168,-86
-82,-36,52,58,-74,1,30,-115,-131,-62,-168,-86
-82,-36,52,58,-74,1,30,-115,-131,-62,-168,-86
-82,-36,52,58,-74,1,30,-109,-131,-62,-168,-86
-82,-36,52,58,-74,1,30,-109,-131,-56,-162,-86
-82,-36,52,58,-74,1,30,-103,-125,-50,-150,-80
-82,-36,58,58,-74,1,30,-79,-113,-38,-138,-74
-82,-36,64,58,-74,7,30,-13,-65,-26,-126,-62
-76,-30,64,52,-74,13,42,100,18,9,-96,-50
-64,-12,64,40,-74,19,54,190,96,51,-72,-32
-52,23,64,16,-68,31,60,232,144,105,-30,-2
-34,47,70,-13,-62,43,54,232,168,147,11,21
-28,59,70,-19,-62,55,42,208,168,159,23,27
-28,65,76,-19,-62,61,-5,64,126,159,23,27
-28,77,88,-31,-62,79,-113,-121,24,153,23,27
-5,149,124,-73,-62,127,-251,-289,-29,159,53,69
37,257,190,-151,-62,223,-395,-439,-35,237,155,171
97,401,280,-247,-68,337,-521,-517,-29,399,305,309
187,557,352,-361,-68,445,-677,-583,1,573,473,465
295,719,394,-499,-62,547,-863,-673,42,741,659,627
379,887,466,-631,-56,667,-1019,-763,84,945,851,807
445,1067,568,-751,-56,799,-1193,-847,126,1149,1073,1005
529,1199,610,-865,-56,907,-1379,-955,144,1329,1271,1167
631,1277,616,-955,-26,931,-1559,-1051,156,1509,1457,1341
769,1331,598,-1045,87,937,-1745,-1117,174,1689,1667,1503
901,1379,532,-1135,183,937,-1925,-1183,192,1851,1847,1659
1033,1439,478,-1237,285,937,-2081,-1213,240,2054,2056,1827
1165,1529,442,-1345,369,949,-2183,-1213,378,2288,2290,2019
1243,1559,382,-1387,435,949,-2231,-1201,408,2360,2392,2102
1279,1529,226,-1387,531,871,-2249,-1201,366,2282,2368,2090
1309,1373,28,-1375,639,697,-2249,-1213,174,2007,2170,1959
1321,1211,-151,-1315,729,529,-2249,-1243,6,1755,1973,1815
1339,1007,-379,-1219,849,319,-2207,-1243,-131,1503,1763,1635
1363,755,-649,-1105,993,55,-2099,-1219,-245,1251,1541,1425
1375,497,-901,-973,1125,-202,-1955,-1147,-371,957,1277,1209
1369,239,-1093,-817,1185,-430,-1793,-1105,-551,621,971,951
1327,11,-1249,-673,1233,-622,-1613,-1075,-701,279,647,681
1249,-198,-1363,-523,1263,-790,-1451,-1033,-809,-2,353,423
1147,-360,-1423,-391,1269,-898,-1289,-991,-869,-230,83,195
1033,-456,-1441,-301,1263,-940,-1127,-937,-899,-404,-120,27
913,-498,-1435,-211,1197,-958,-983,-895,-917,-518,-276,-98
811,-528,-1381,-151,1101,-958,-869,-877,-929,-602,-378,-188
709,-540,-1291,-103,999,-940,-785,-865,-941,-644,-456,-242
619,-540,-1189,-55,903,-898,-701,-835,-941,-674,-504,-302
535,-540,-1081,-19,819,-844,-617,-775,-941,-680,-528,-326
451,-534,-961,10,711,-772,-533,-703,-911,-680,-534,-338
367,-504,-811,34,597,-670,-431,-613,-827,-674,-534,-338
271,-456,-643,52,453,-562,-323,-505,-713,-626,-522,-338
181,-390,-493,70,339,-442,-227,-385,-593,-548,-492,-326
121,-348,-391,82,261,-376,-155,-295,-509,-494,-462,-314
61,-306,-319,88,195,-322,-83,-229,-449,-440,-444,-302
13,-276,-253,100,141,-274,-29,-163,-389,-398,-420,-284
-22,-258,-211,106,99,-238,12,-121,-347,-356,-396,-272
-40,-240,-169,112,69,-202,48,-79,-317,-320,-378,-260
-64,-222,-133,118,39,-184,78,-37,-287,-290,-354,-248
-88,-210,-97,124,9,-160,114,4,-251,-278,-342,-242
-100,-204,-61,136,-20,-148,144,34,-227,-272,-330,-236
-112,-198,-43,142,-32,-136,156,40,-215,-266,-324,-236
-118,-192,-31,148,-38,-124,168,46,-203,-260,-318,-236
-124,-186,-19,148,-44,-118,174,52,-191,-248,-318,-236
-130,-180,-13,148,-50,-112,180,64,-185,-236,-312,-230
-136,-174,-7,148,-56,-106,192,76,-173,-224,-306,-230
-142,-168,-1,148,-62,-100,198,88,-161,-218,-300,-224
-148,-168,4,148,-68,-94,204,100,-155,-212,-300,-224
-154,-168,4,148,-74,-88,210,106,-149,-206,-300,-224
-154,-162,10,148,-74,-88,216,112,-143,-200,-300,-224
-160,-162,16,148,-80,-88,222,112,-137,-200,-294,-218
-160,-162,22,148,-86,-82,228,118,-131,-200,-294,-218
-166,-162,22,148,-92,-76,234,118,-125,-200,-294,-218
-166,-162,22,148,-98,-70,240,118,-125,-200,-294,-218
-166,-162,22,148,-98,-70,240,118,-119,-194,-294,-218
-166,-162,22,148,-98,-70,240,124,-113,-188,-294,-218
-166,-162,22,148,-98,-70,246,130,-107,-188,-294,-218
-166,-162,22,148,-98,-70,246,136,-107,-182,-288,-218
-166,-162,22,148,-98,-70,246,136,-101,-182,-282,-218
-166,-162,22,148,-98,-70,246,136,-101,-176,-282,-218
-172,-162,28,148,-98,-70,252,136,-101,-176,-282,-218
-172,-162,34,154,-98,-70,258,136,-101,-176,-282,-218
-172,-162,34,154,-98,-70,264,136,-95,-176,-276,-218
-172,-162,34,154,-98,-70,264,142,-89,-176,-276,-218
-172,-162,34,154,-98,-70,264,148,-89,-176,-276,-218
-172,-162,34,154,-104,-70,264,148,-89,-176,-276,-218
-172,-162,40,154,-110,-64,270,148,-89,-176,-276,-218
-172,-162,40,154,-110,-64,270,148,-83,-176,-276,-218
-178,-162,40,154,-110,-64,270,148,-83,-176,-276,-218
-178,-162,40,154,-110,-64,270,148,-83,-176,-276,-218
-178,-162,40,154,-110,-64,270,154,-83,-176,-276,-218
-178,-156,40,154,-110,-64,270,154,-77,-176,-276,-218
-178,-156,40,154,-110,-64,270,154,-77,-176,-276,-218
-178,-156,40,154,-110,-64,270,154,-77,-176,-276,-218
-178,-156,40,154,-110,-64,270,154,-77,-176,-276,-218
-178,-156,40,154,-110,-64,270,160,-77,-176,-276,-218
-178,-156,40,154,-110,-64,276,166,-77,-176,-276,-218
-178,-156,40,154,-110,-64,282,166,-77,-176,-276,-218
-178,-156,40,154,-110,-64,288,172,-71,-176,-276,-218
-178,-156,40,154,-110,-64,288,172,-71,-176,-276,-218
-178,-156,40,154,-110,-64,288,172,-71,-176,-276,-218
-178,-156,40,154,-110,-64,294,178,-71,-176,-276,-218
-178,-156,40,154,-110,-64,294,178,-71,-176,-276,-218
-178,-156,40,154,-110,-64,294,184,-65,-176,-276,-218
-178,-156,40,154,-110,-64,294,190,-59,-176,-276,-218
-178,-156,40,160,-110,-64,294,196,-59,-176,-276,-218
-178,-156,40,160,-110,-64,294,202,-59,-176,-276,-218
-178,-156,40,160,-110,-64,294,208,-59,-176,-276,-218
-178,-156,40,160,-110,-64,300,214,-59,-176,-270,-218
-178,-156,40,160,-110,-64,300,214,-59,-176,-270,-218
-178,-156,40,160,-110,-64,300,220,-53,-176,-264,-218
-178,-156,40,160,-110,-64,300,226,-47,-176,-264,-218
-178,-156,40,160,-110,-64,306,226,-41,-176,-264,-218
-178,-156,40,160,-110,-64,312,226,-35,-170,-264,-218
-178,-156,40,160,-110,-64,312,232,-35,-170,-258,-218
-178,-156,40,160,-110,-64,312,238,-35,-170,-258,-218
-178,-156,40,160,-110,-64,318,244,-29,-170,-258,-218
-178,-156,40,160,-110,-64,318,244,-23,-170,-258,-218
-178,-156,40,160,-110,-64,318,250,-17,-170,-258,-224
-178,-156,40,160,-110,-64,318,250,-11,-170,-258,-224
-178,-156,34,160,-110,-64,324,256,-11,-170,-258,-224
-178,-156,28,160,-104,-64,324,268,-5,-170,-258,-224
-178,-156,28,160,-104,-64,324,274,1,-170,-258,-224
-178,-156,28,160,-104,-70,330,280,6,-164,-252,-224
-178,-162,28,160,-98,-70,330,292,12,-158,-246,-224
-178,-162,22,160,-98,-70,336,298,18,-152,-240,-224
-178,-162,16,160,-98,-70,336,304,24,-146,-240,-224
-178,-162,16,160,-98,-70,342,310,30,-140,-240,-224
-178,-162,10,160,-98,-70,342,316,36,-134,-234,-224
-178,-162,10,160,-98,-70,348,322,42,-134,-234,-224
-178,-162,10,160,-98,-70,348,328,48,-134,-234,-224
-178,-162,10,160,-98,-70,348,334,54,-134,-234,-224
-178,-162,10,160,-98,-70,348,340,60,-128,-228,-224
-178,-162,10,160,-98,-70,348,352,66,-128,-228,-224
-178,-162,4,160,-92,-70,348,364,72,-128,-222,-224
-172,-162,-1,160,-86,-76,354,376,78,-122,-216,-224
-172,-162,-1,160,-86,-76,360,382,84,-116,-210,-224
-172,-162,-1,160,-86,-76,366,388,90,-110,-210,-224
-166,-162,-1,160,-86,-76,366,394,96,-104,-204,-224
-160,-162,-1,160,-80,-76,366,400,102,-98,-198,-224
-160,-162,-1,160,-80,-76,366,406,108,-92,-192,-224
-160,-162,-1,160,-80,-76,372,412,114,-86,-186,-218
-160,-162,-1,160,-80,-76,378,424,126,-80,-180,-218
-160,-162,-1,160,-80,-76,378,430,132,-74,-174,-212
-160,-162,-1,160,-80,-76,378,442,138,-68,-168,-212
-154,-162,-1,160,-80,-76,384,454,144,-68,-168,-206
-148,-162,-1,154,-80,-76,384,466,156,-62,-162,-206
-142,-162,-1,148,-74,-76,384,472,168,-56,-156,-200
-136,-162,-1,142,-68,-76,384,478,180,-50,-150,-194
-130,-162,-7,142,-62,-76,384,484,186,-44,-144,-194
-124,-162,-7,136,-56,-76,384,490,198,-32,-138,-188
-118,-156,-7,136,-56,-76,384,502,204,-20,-126,-182
-118,-150,-7,136,-50,-76,384,508,216,-14,-120,-176
-112,-150,-13,130,-50,-76,384,514,222,-8,-114,-170
-106,-144,-13,124,-44,-76,384,532,228,3,-102,-158
-106,-138,-13,124,-44,-76,384,544,240,9,-90,-152
-100,-138,-13,118,-44,-76,384,556,252,21,-78,-146
-94,-132,-19,112,-38,-76,384,562,264,27,-72,-140
-94,-132,-19,106,-38,-76,384,568,276,33,-66,-134
-88,-126,-19,106,-32,-76,384,574,288,45,-54,-128
-82,-126,-19,100,-26,-76,384,580,300,57,-42,-122
-76,-120,-19,94,-26,-76,384,586,306,69,-30,-116
-64,-114,-25,88,-20,-76,384,592,318,81,-24,-110
-58,-108,-31,82,-14,-76,384,598,324,93,-12,-98
-52,-102,-37,76,-8,-76,384,610,330,105,0,-86
-46,-102,-43,70,-3,-76,384,616,336,111,5,-74
-40,-102,-43,64,-3,-76,378,622,348,123,17,-68
-34,-96,-43,58,3,-76,372,628,354,129,29,-56
-22,-96,-49,52,9,-76,366,628,360,135,35,-50
-16,-96,-49,46,15,-76,360,628,366,147,47,-44
-10,-90,-49,46,21,-76,348,628,372,159,59,-38
1,-84,-49,40,27,-76,342,628,384,171,71,-26
13,-78,-55,34,33,-76,336,628,390,183,83,-20
25,-72,-61,28,39,-76,324,628,396,189,95,-8
31,-66,-61,22,45,-76,318,628,402,201,107,3
37,-60,-67,16,51,-76,306,628,408,207,119,15
43,-54,-73,10,57,-76,294,628,408,219,131,21
49,-48,-73,4,63,-76,282,628,408,225,137,33
55,-48,-79,-1,69,-76,270,628,414,231,149,39
61,-42,-79,-7,75,-76,252,622,414,237,161,45
73,-36,-85,-13,81,-70,240,616,414,243,173,51
85,-30,-85,-25,87,-70,228,604,414,249,179,57
91,-24,-85,-31,93,-70,216,592,414,261,185,63
97,-18,-91,-37,93,-70,204,580,414,267,197,69
103,-18,-97,-37,99,-70,186,568,414,267,203,81
109,-12,-103,-37,105,-70,174,556,414,267,209,87
115,-12,-103,-37,111,-70,162,544,414,267,215,93
115,-12,-103,-37,111,-70,150,532,408,267,215,99
115,-12,-103,-37,111,-70,138,520,402,267,221,105
115,-6,-103,-43,111,-70,126,490,396,267,221,111
115,-1,-103,-49,111,-64,108,472,384,267,227,111
115,5,-103,-55,111,-58,102,448,372,267,227,117
115,11,-103,-61,111,-52,96,430,360,267,227,117
115,17,-103,-67,111,-46,84,406,348,267,227,117
115,17,-97,-67,111,-40,78,388,336,267,227,117
115,17,-91,-67,105,-34,66,376,324,261,227,117
115,23,-85,-67,99,-28,60,358,306,255,227,117
115,29,-73,-67,93,-22,54,328,288,243,227,117
115,29,-67,-67,87,-16,48,316,264,231,221,117
115,29,-61,-67,81,-10,42,286,246,219,215,117
109,29,-55,-67,81,-5,36,268,228,213,209,117
103,29,-43,-67,75,1,30,244,210,201,203,117
91,35,-31,-67,63,7,30,226,192,195,197,117
79,35,-25,-67,57,13,30,208,180,183,191,117
73,35,-19,-67,51,13,30,184,168,171,185,111
67,35,-13,-61,39,13,24,172,150,159,179,105
61,35,-1,-61,33,19,24,160,132,147,167,99
55,35,4,-55,27,25,24,142,120,135,161,93
49,35,16,-49,15,31,24,130,102,123,149,93
43,35,22,-43,9,31,18,112,84,111,137,93
37,35,28,-37,3,37,18,100,60,99,125,93
31,35,34,-37,-3,37,18,76,48,87,119,87
19,35,40,-31,-8,37,18,64,36,81,113,81
13,35,46,-31,-14,37,18,52,24,75,101,69
7,35,52,-31,-20,37,18,40,18,63,95,63
1,35,52,-31,-26,43,18,34,12,57,95,57
1,35,52,-31,-32,43,18,28,6,45,89,57
-5,35,58,-25,-38,43,18,16,-5,33,89,51
-16,35,64,-13,-44,43,18,10,-17,27,83,51
-22,35,64,-7,-44,43,18,4,-29,21,71,51
-22,35,64,-7,-44,43,18,-2,-35,15,65,45
-22,35,64,-7,-44,43,18,-7,-41,9,59,39
-28,35,64,-7,-44,43,18,-13,-47,9,53,39
-28,35,64,-7,-50,43,18,-13,-53,9,53,33
-28,35,64,-7,-50,43,18,-19,-53,3,53,27
-28,35,64,-7,-50,43,18,-19,-59,-2,47,21
-34,35,64,-7,-50,43,18,-19,-59,-8,47,15
-34,35,64,-7,-50,43,18,-19,-59,-14,47,9
-34,35,64,-1,-50,43,18,-19,-65,-20,47,9
-34,29,64,4,-50,43,18,-19,-65,-20,41,9
-40,29,64,4,-50,43,18,-19,-65,-26,41,9
-40,29,64,4,-50,43,18,-25,-65,-26,41,3
-40,29,64,10,-50,43,18,-25,-65,-26,35,-2
-40,29,64,10,-50,43,18,-25,-71,-26,35,-2
-40,29,64,10,-50,43,18,-25,-71,-26,35,-2
-46,23,64,10,-50,43,18,-25,-71,-32,35,-2
-46,17,64,16,-50,43,18,-25,-71,-38,35,-2
-46,11,64,16,-50,43,18,-25,-71,-44,35,-2
-46,11,64,16,-50,43,18,-25,-71,-44,35,-2
-46,11,64,16,-50,43,18,-25,-71,-44,29,-8
-46,5,64,22,-56,43,18,-25,-77,-50,29,-8
-46,5,64,22,-56,43,18,-25,-77,-50,29,-8
-46,5,64,22,-56,43,18,-25,-77,-50,29,-8
-46,5,64,22,-56,43,18,-25,-77,-50,23,-8
-46,5,64,22,-56,43,18,-25,-77,-50,23,-8
-46,5,64,22,-56,43,18,-25,-77,-50,23,-14
-46,5,64,22,-56,43,18,-25,-77,-50,23,-14
-46,5,64,22,-56,43,18,-25,-77,-56,23,-14
-46,-1,64,22,-56,43,18,-25,-77,-56,17,-20
-46,-1,64,22,-56,43,18,-25,-77,-56,17,-20
-46,-1,64,22,-56,43,18,-25,-77,-56,17,-20
-46,-1,64,22,-56,43,18,-25,-77,-56,17,-20
-46,-1,64,22,-56,43,18,-25,-77,-56,17,-20
-46,-1,64,22,-56,43,18,-25,-77,-56,17,-20
-46,-1,64,22,-56,43,18,-25,-77,-56,17,-20
-46,-1,64,22,-56,43,18,-25,-77,-56,11,-20
-46,-1,64,22,-56,43,18,-25,-77,-56,11,-20
-52,-1,64,22,-56,43,18,-19,-77,-56,11,-20
-52,-1,64,28,-56,43,18,-13,-77,-56,11,-20
-58,-1,64,34,-56,43,18,-7,-77,-56,11,-20
-58,-1,64,34,-56,43,18,-7,-77,-56,11,-20
-58,-1,64,34,-56,43,18,-7,-71,-56,11,-20
-58,-1,64,34,-56,43,18,-7,-71,-56,11,-20
-58,-1,64,34,-56,43,18,-2,-65,-56,11,-20
-58,-1,64,40,-56,43,18,-2,-65,-56,11,-20
-58,-1,64,40,-56,43,24,-2,-65,-56,11,-20
-58,-1,64,40,-56,43,24,4,-59,-56,11,-20
-58,-1,64,40,-56,43,24,10,-53,-56,11,-20
-58,-1,64,40,-56,43,24,16,-47,-56,11,-20
-58,-1,64,40,-56,43,24,16,-47,-56,11,-20
-58,-1,64,40,-56,43,24,22,-47,-56,11,-20
-58,-1,64,40,-56,43,24,22,-47,-50,11,-20
-58,-1,64,40,-62,43,24,22,-47,-44,11,-20
-58,-1,64,40,-62,43,24,22,-47,-44,11,-20
-58,-1,64,40,-62,43,24,22,-47,-44,11,-20
-58,-1,64,40,-62,43,24,28,-41,-38,17,-20
-58,-1,64,40,-62,43,24,28,-35,-32,17,-20
-58,-1,64,40,-62,43,24,28,-35,-32,17,-20
-58,-1,64,40,-62,43,24,28,-35,-26,17,-20
-58,-1,64,40,-62,43,24,28,-35,-20,17,-14
-58,-1,64,40,-62,43,24,34,-35,-20,23,-14
-58,-1,64,40,-62,43,24,34,-35,-20,29,-8
-58,-1,64,40,-62,43,30,34,-35,-20,29,-8
-58,-1,64,40,-62,43,30,34,-29,-14,29,-8
-58,-1,64,40,-62,43,36,34,-23,-14,29,-2
-58,-1,64,40,-62,43,36,34,-23,-14,29,-2
-58,-1,64,40,-62,43,36,34,-23,-14,35,-2
-58,-1,64,40,-62,43,36,34,-23,-14,35,-2
-58,-1,64,40,-62,43,36,34,-17,-14,35,-2
-58,-1,64,40,-62,43,36,34,-17,-14,35,3
-58,-1,64,40,-62,43,36,34,-17,-14,41,3
-58,-1,64,40,-62,43,36,34,-17,-14,41,9
-58,-1,64,40,-62,43,36,34,-17,-14,41,9
-58,-1,64,40,-62,43,36,34,-17,-14,41,9
-58,-1,64,40,-62,43,36,34,-17,-14,47,9
-58,-1,64,40,-62,43,36,34,-17,-8,47,15
-58,-1,64,40,-62,43,36,34,-17,-8,47,15
-58,-1,64,40,-62,43,36,34,-17,-8,47,15
-58,-1,64,40,-62,43,36,34,-17,-8,53,21
-58,-1,64,40,-62,43,36,34,-17,-8,59,27
-58,-1,64,40,-62,43,36,34,-17,-8,59,27
-58,-1,64,40,-62,43,36,34,-17,-8,59,27
-58,-1,64,40,-62,43,36,34,-17,-8,59,27
-58,-1,64,40,-62,43,36,34,-17,-8,59,27
-58,-1,64,40,-62,43,36,34,-17,-8,59,27
-58,-1,64,40,-62,43,36,34,-17,-8,59,27
-58,-1,64,40,-62,43,36,34,-17,-8,59,27
-58,-1,64,40,-62,43,36,34,-17,-8,59,27
-58,-1,64,40,-62,43,36,34,-17,-8,59,27
-58,-1,64,40,-62,43,36,34,-17,-8,59,27
-58,-1,64,40,-62,43,36,34,-17,-8,59,27
-58,-1,64,40,-62,43,36,34,-17,-8,59,27
-58,-1,64,40,-62,43,36,34,-17,-8,59,27
-58,-1,64,40,-62,43,36,34,-17,-8,59,27
-58,-1,64,40,-62,43,36,34,-17,-8,59,33
-58,-1,64,40,-62,43,36,34,-17,-8,59,33
-58,-1,64,40,-62,43,36,34,-17,-8,59,33
-58,-1,64,40,-62,43,36,34,-17,-8,59,33
-58,-1,64,40,-62,43,36,34,-17,-8,59,33
-58,-1,64,40,-62,43,36,34,-17,-8,59,33
-58,-1,64,40,-62,43,36,28,-17,-8,59,33
-58,-1,64,40,-62,43,36,28,-17,-8,59,33
-58,-1,64,40,-62,43,36,28,-17,-8,59,33
-58,-1,64,40,-62,43,36,22,-17,-8,59,33
-58,-1,64,40,-62,43,36,22,-17,-8,59,33
-58,-1,64,40,-62,43,36,22,-17,-8,59,33
-58,-1,64,40,-62,43,36,22,-17,-8,59,33
-58,-1,64,40,-62,43,36,22,-17,-8,59,33
-58,-1,64,40,-62,43,36,22,-17,-8,59,33
-58,-1,64,40,-62,43,36,22,-17,-8,59,33
-58,-1,64,40,-62,43,36,22,-23,-8,59,33
-58,-1,64,40,-62,43,36,16,-23,-8,59,33
-58,-1,64,40,-62,43,36,16,-23,-8,59,33
-58,-1,64,40,-62,43,36,16,-23,-8,59,33
-58,-1,64,40,-62,43,36,10,-23,-8,59,33
-58,-1,64,40,-62,43,36,10,-23,-8,59,33
-58,-1,64,40,-62,43,36,10,-23,-8,59,33
-58,-1,64,40,-62,43,36,10,-23,-8,59,33
-58,-1,64,40,-62,43,36,10,-23,-8,59,33
-58,-1,64,40,-62,43,36,10,-23,-8,59,33
-58,-1,64,40,-62,43,36,10,-23,-8,59,33
-58,-1,64,40,-62,43,36,10,-23,-8,59,33
-58,-1,64,40,-62,43,36,10,-23,-8,59,33
-58,-1,64,40,-62,43,36,10,-23,-8,59,33
-58,-1,64,40,-62,43,36,10,-23,-8,59,33
-58,-1,64,40,-62,43,36,10,-23,-8,59,33
-58,-1,64,40,-62,43,36,10,-23,-8,59,33
-58,-1,64,40,-62,43,36,10,-29,-8,59,33
-58,-1,64,40,-62,43,36,10,-29,-14,59,33
-58,-1,64,40,-62,43,36,10,-29,-14,59,33
-58,-1,64,40,-62,43,36,10,-29,-14,59,33
-58,-1,64,40,-62,43,36,10,-29,-14,59,33
-58,-1,64,40,-62,43,36,4,-29,-14,59,33
-58,-1,64,40,-62,43,36,4,-29,-14,59,33
-58,-1,64,40,-62,43,36,4,-29,-20,59,33
-58,-1,64,40,-62,43,36,4,-29,-20,59,33
-58,-1,64,40,-62,43,36,4,-29,-20,59,33
-58,-1,64,40,-62,43,36,4,-29,-20,59,33
-58,-1,64,40,-62,43,36,4,-29,-20,59,33
-58,-1,64,40,-62,43,36,-2,-29,-20,59,33
-58,-1,64,40,-62,43,36,-2,-29,-20,59,33
-58,-1,64,40,-62,43,36,-2,-29,-20,59,33
-58,-1,64,46,-62,43,36,-2,-29,-20,59,33
-58,-1,64,46,-62,43,36,-2,-29,-20,59,33
-58,-1,64,46,-62,43,36,-2,-29,-26,59,33
-58,-1,64,46,-62,43,36,-2,-29,-26,59,33
-58,-1,64,46,-62,43,36,-2,-29,-26,59,33
-58,-6,64,46,-62,43,36,-2,-29,-26,59,33
-58,-6,64,46,-62,43,36,-2,-29,-26,59,33
-58,-6,64,46,-62,43,36,-2,-29,-26,59,33
-58,-6,64,46,-62,43,36,-2,-29,-26,59,33
-58,-6,64,46,-62,43,36,-2,-29,-26,59,33
-58,-6,64,46,-62,43,36,-2,-29,-26,59,33
-58,-6,64,46,-62,43,36,-2,-29,-26,59,33
-58,-6,64,46,-62,43,36,-2,-29,-26,59,33
-58,-6,64,46,-62,43,36,-7,-29,-26,59,33
-58,-6,64,46,-62,43,36,-7,-29,-26,59,33
-58,-6,64,46,-62,43,36,-7,-29,-26,59,33
-58,-6,64,46,-62,43,36,-13,-29,-26,59,33
-58,-6,64,46,-62,43,36,-13,-29,-26,59,33
-58,-6,64,46,-62,43,36,-13,-29,-32,59,33
-58,-6,64,46,-62,43,36,-13,-29,-32,59,33
-58,-6,64,46,-62,43,36,-13,-29,-32,59,33
-58,-6,64,46,-62,43,36,-13,-29,-32,59,33
-58,-6,64,46,-62,43,36,-13,-29,-32,59,33
-58,-6,64,46,-62,43,36,-13,-29,-32,59,39
-58,-6,64,46,-62,43,36,-13,-29,-32,59,39
-58,-6,64,46,-62,43,36,-13,-29,-32,59,39
-58,-6,64,46,-62,43,36,-13,-29,-32,59,39
-58,-6,64,46,-62,43,36,-13,-29,-32,59,39
-58,-6,64,46,-62,43,36,-13,-29,-32,59,39
-58,-6,64,46,-62,43,36,-13,-29,-32,59,39
-58,-6,64,46,-62,43,36,-13,-29,-32,59,39
-58,-6,64,46,-62,43,36,-13,-29,-32,59,39
-58,-6,64,46,-62,43,36,-13,-29,-32,59,39
-58,-6,64,46,-62,43,36,-13,-29,-32,59,39
-58,-6,64,46,-62,43,36,-13,-29,-32,59,39
-58,-6,64,46,-62,43,36,-13,-29,-32,59,39
-58,-6,64,46,-62,43,36,-13,-29,-32,59,39
-58,-6,64,46,-62,43,36,-13,-29,-32,59,39
-58,-6,64,46,-62,43,36,-13,-29,-32,59,39
-58,-6,64,46,-62,43,36,-13,-29,-32,59,39
-58,-6,64,46,-62,43,36,-13,-29,-32,59,39
-58,-6,64,46,-62,43,36,-13,-29,-32,59,39
-58,-6,64,46,-62,43,36,-13,-29,-32,59,39
-58,-1,64,46,-62,43,42,-7,-23,-32,59,45
-58,5,64,40,-62,43,48,-2,-17,-32,59,45
-58,5,64,40,-62,43,54,-2,-11,-32,65,51
-52,11,64,40,-62,43,60,4,-5,-26,65,51
-52,11,64,40,-62,43,66,10,1,-26,65,51
-46,17,64,34,-56,43,72,10,1,-26,71,57
-40,17,64,34,-50,43,72,10,6,-20,77,63
-34,23,64,28,-44,49,72,16,12,-14,83,69
-28,29,64,22,-44,49,72,16,18,-8,89,75
-22,35,64,16,-38,55,72,16,18,-2,95,81
-16,41,64,10,-38,55,66,22,24,-2,101,81
-16,41,64,4,-38,55,60,22,24,3,101,81
-16,47,64,4,-38,55,54,22,24,3,101,81
-16,47,64,4,-38,55,48,22,24,3,101,87
-10,53,64,-1,-38,61,42,22,24,3,101,93
-5,59,64,-1,-38,67,36,22,24,3,101,93
-5,59,64,-1,-38,73,30,22,24,3,107,93
-5,59,64,-1,-38,73,30,22,24,3,107,93
-5,59,64,-1,-38,73,30,22,24,3,107,93
-5,59,64,-1,-38,73,24,16,24,3,107,93
-5,59,64,-1,-38,73,18,10,24,3,107,93
-5,59,64,-1,-38,73,12,-2,18,3,107,93
-5,59,64,-1,-38,73,6,-7,18,3,107,93
-5,53,58,-1,-38,67,6,-13,12,3,107,93
-5,47,52,-1,-38,61,6,-13,6,-2,107,93
-5,47,52,-1,-38,61,6,-19,6,-2,107,93
-5,41,52,-1,-32,61,6,-25,6,-8,107,93
-5,35,46,-1,-26,55,6,-25,6,-14,101,87
-5,29,34,-1,-20,49,6,-25,6,-14,95,81
-5,23,28,-1,-14,43,0,-25,1,-14,95,75
-5,23,22,-1,-14,37,0,-25,-5,-14,89,75
-5,23,22,-1,-14,37,0,-25,-5,-14,89,75
-5,23,22,-1,-14,37,0,-25,-5,-14,89,75
-5,23,22,-1,-14,37,0,-25,-5,-20,83,75
-5,17,22,4,-14,37,0,-31,-11,-26,83,75
-5,11,22,4,-14,37,0,-37,-11,-32,77,69
-10,5,22,10,-14,37,0,-37,-11,-38,77,63
-22,5,22,16,-20,37,0,-37,-11,-38,77,57
-34,5,28,28,-32,37,0,-37,-11,-38,77,57
-46,-1,34,34,-38,37,0,-43,-17,-44,71,51
-52,-6,34,40,-44,37,0,-43,-17,-44,65,45
-58,-12,34,40,-44,37,0,-43,-17,-44,65,39
-64,-18,34,40,-44,37,0,-43,-17,-50,59,39
-64,-18,40,40,-44,37,0,-43,-17,-50,53,39
-70,-18,40,46,-50,37,0,-49,-23,-50,53,39
-70,-18,46,46,-50,37,0,-49,-29,-50,53,39
-70,-18,46,46,-50,37,0,-49,-35,-50,53,39
-70,-18,46,46,-50,37,0,-49,-35,-50,53,39
-70,-18,46,46,-50,37,0,-49,-35,-50,53,39
-70,-18,46,52,-50,37,0,-49,-35,-50,53,39
-70,-18,46,52,-50,37,0,-49,-35,-50,53,39
-70,-18,46,52,-50,37,0,-49,-35,-50,53,33
-70,-18,46,52,-50,37,6,-49,-35,-50,47,33
-70,-18,46,52,-50,37,6,-49,-35,-50,47,33
-76,-18,52,52,-56,37,6,-49,-35,-50,47,33
-82,-18,52,52,-56,37,6,-49,-35,-50,47,33
-82,-18,52,52,-56,37,6,-49,-35,-50,47,33
-82,-18,52,52,-56,37,12,-49,-35,-50,47,33
-82,-18,52,52,-56,37,18,-49,-35,-50,47,33
-82,-24,52,52,-56,37,18,-49,-35,-50,41,27
-82,-24,52,52,-62,37,18,-49,-35,-50,41,27
-82,-24,52,52,-68,37,18,-49,-41,-50,35,21
-82,-24,52,52,-68,37,18,-49,-41,-50,35,21
-82,-24,52,52,-68,37,18,-49,-41,-50,35,21
-82,-24,52,52,-68,37,18,-49,-41,-50,35,21
-82,-24,58,52,-68,37,18,-49,-41,-50,35,21
-82,-24,64,52,-68,37,12,-49,-35,-44,41,27
-82,-18,64,52,-68,37,6,-43,-23,-38,47,33
-76,-18,70,52,-68,43,6,-25,-5,-26,53,33
-70,-12,70,46,-68,49,6,52,42,-2,65,39
-64,-1,76,34,-68,55,18,166,132,39,89,45
-52,29,76,22,-68,67,30,268,210,81,113,69
-40,59,82,-1,-68,85,30,298,264,123,149,99
-28,89,88,-13,-68,97,18,298,282,153,179,123
-22,101,94,-25,-68,103,-17,232,276,159,191,135
-16,107,100,-31,-68,109,-101,46,198,153,191,141
-10,131,112,-43,-68,127,-215,-151,90,147,191,147
1,191,154,-91,-68,187,-335,-325,48,153,215,183
43,299,220,-163,-68,277,-467,-451,42,261,329,267
109,431,298,-277,-74,385,-599,-505,54,417,461,399
199,587,376,-385,-74,493,-755,-571,84,585,623,543
289,749,418,-505,-74,595,-947,-661,126,741,797,699
367,929,502,-637,-74,733,-1133,-739,174,933,995,873
463,1121,598,-781,-74,865,-1313,-823,222,1131,1211,1083
553,1265,640,-901,-68,955,-1499,-937,252,1317,1415,1269
655,1337,646,-991,-26,991,-1679,-1021,270,1491,1595,1437
781,1385,634,-1075,69,1003,-1871,-1075,294,1677,1799,1599
901,1433,592,-1171,159,1003,-2033,-1147,324,1851,1979,1749
1015,1493,550,-1261,231,1009,-2159,-1171,396,2072,2194,1905
1141,1583,514,-1369,309,1027,-2255,-1171,534,2300,2416,2090
1243,1613,454,-1417,405,1027,-2303,-1159,576,2396,2523,2180
1285,1601,292,-1423,501,973,-2321,-1159,528,2324,2517,2180
1315,1457,100,-1411,609,787,-2321,-1165,348,2066,2350,2072
1339,1301,-97,-1351,711,601,-2321,-1165,210,1827,2170,1923
1357,1097,-319,-1261,831,397,-2279,-1165,84,1581,1973,1767
1375,845,-589,-1147,981,139,-2165,-1123,-41,1317,1739,1551
1381,557,-859,-1009,1107,-136,-1997,-1069,-179,1017,1469,1311
1375,293,-1057,-853,1185,-358,-1823,-1039,-365,675,1157,1053
1339,65,-1207,-715,1227,-550,-1655,-1015,-533,351,851,795
1285,-138,-1333,-577,1263,-724,-1487,-979,-635,81,569,561
1195,-294,-1411,-445,1275,-838,-1319,-925,-695,-134,329,345
1093,-402,-1429,-343,1269,-886,-1163,-865,-725,-308,125,165
967,-444,-1429,-253,1209,-904,-1025,-835,-755,-446,-36,27
871,-474,-1393,-193,1125,-904,-929,-823,-785,-542,-150,-68
781,-486,-1321,-139,1047,-904,-845,-817,-797,-608,-240,-128
685,-492,-1225,-97,951,-880,-761,-805,-803,-644,-300,-188
589,-498,-1123,-55,861,-832,-665,-763,-803,-662,-330,-218
499,-498,-1009,-19,753,-772,-575,-703,-773,-662,-342,-230
409,-492,-871,10,639,-676,-473,-619,-701,-650,-342,-236
307,-456,-691,34,501,-562,-371,-493,-605,-602,-336,-236
217,-396,-529,52,381,-448,-263,-379,-485,-524,-318,-230
151,-348,-421,64,279,-370,-185,-295,-413,-482,-306,-224
85,-312,-337,82,201,-316,-125,-229,-359,-440,-276,-212
43,-270,-271,94,153,-268,-77,-169,-305,-404,-246,-206
7,-240,-223,100,111,-226,-41,-127,-251,-374,-222,-194
-22,-228,-181,106,75,-196,-11,-85,-215,-344,-204,-188
-52,-216,-145,112,39,-166,30,-43,-179,-314,-186,-176
-70,-204,-109,118,9,-136,78,-2,-137,-278,-168,-164
-82,-192,-73,124,-14,-124,114,28,-101,-254,-156,-158
-94,-186,-55,130,-26,-112,132,40,-89,-242,-150,-152
-106,-180,-37,136,-38,-100,144,46,-83,-236,-144,-152
-112,-174,-25,136,-44,-94,150,52,-77,-230,-144,-152
-118,-168,-19,136,-56,-88,156,58,-71,-224,-138,-152
-124,-162,-7,136,-62,-82,162,70,-65,-224,-132,-146
-136,-162,-1,136,-68,-76,168,82,-53,-218,-132,-146
-142,-162,4,136,-74,-76,174,88,-41,-212,-126,-146
-154,-162,10,136,-80,-70,180,94,-35,-206,-120,-146
-160,-162,10,136,-86,-64,186,100,-29,-200,-120,-146
-166,-162,16,142,-92,-58,192,100,-23,-200,-120,-146
-166,-162,22,148,-98,-58,198,100,-23,-200,-120,-146
-166,-162,28,148,-104,-58,204,106,-23,-200,-120,-146
-166,-162,34,148,-104,-58,210,112,-17,-200,-120,-146
-166,-162,34,148,-110,-58,216,112,-11,-200,-120,-146
-166,-156,34,148,-110,-52,216,118,-5,-200,-120,-146
-166,-156,34,148,-110,-46,222,118,1,-194,-120,-146
-166,-150,34,148,-110,-46,222,124,6,-188,-120,-146
-172,-150,34,154,-110,-46,222,124,6,-182,-120,-146
-172,-150,34,154,-110,-46,222,124,6,-182,-120,-146
-172,-150,34,154,-110,-46,222,124,6,-182,-120,-146
-172,-150,34,154,-110,-46,228,124,12,-182,-120,-146
-178,-150,40,154,-110,-46,228,124,12,-182,-120,-146
-178,-150,40,154,-110,-46,228,124,18,-182,-120,-146
-178,-150,40,154,-110,-46,234,130,24,-182,-120,-146
-178,-150,40,154,-110,-46,234,136,24,-182,-120,-146
-178,-150,40,154,-110,-46,234,136,24,-182,-120,-146
-178,-150,40,154,-110,-46,234,136,24,-182,-120,-146
-178,-150,40,154,-110,-46,234,136,30,-182,-120,-146
-178,-150,40,154,-110,-46,234,136,36,-182,-120,-146
-178,-150,40,154,-110,-46,234,136,36,-182,-120,-146
-178,-150,40,154,-110,-46,240,136,36,-182,-120,-152
-178,-150,40,154,-110,-46,240,136,36,-182,-120,-152
-178,-150,40,154,-110,-46,240,142,36,-182,-120,-152
-178,-150,40,154,-110,-46,240,142,36,-182,-120,-152
-178,-150,40,154,-110,-46,246,142,36,-182,-120,-152
-178,-150,40,154,-110,-46,246,142,42,-182,-120,-158
-178,-150,40,154,-110,-46,252,142,42,-182,-120,-158
-178,-150,40,160,-110,-46,252,142,42,-182,-120,-158
-178,-150,40,160,-110,-46,252,148,48,-182,-120,-158
-178,-150,40,160,-110,-46,258,154,54,-182,-120,-164
-178,-150,40,160,-110,-46,258,154,54,-182,-120,-170
-178,-150,40,160,-110,-46,258,154,54,-182,-120,-170
-178,-150,40,160,-110,-46,258,160,54,-182,-120,-176
-178,-150,40,160,-110,-46,258,160,54,-182,-120,-176
-178,-150,40,160,-110,-46,258,160,54,-182,-120,-176
-178,-150,40,160,-110,-46,264,166,60,-182,-120,-176
-178,-150,40,160,-110,-46,270,172,60,-182,-120,-176
-178,-150,34,160,-110,-46,270,172,60,-182,-120,-176
-178,-150,34,160,-110,-46,270,172,60,-182,-120,-176
-178,-150,34,166,-110,-46,270,172,60,-182,-120,-176
-178,-150,34,166,-110,-46,276,172,66,-182,-120,-176
-178,-150,34,166,-110,-46,276,178,72,-182,-120,-176
-178,-150,28,166,-110,-52,276,184,72,-182,-120,-176
-178,-150,28,166,-110,-52,282,190,72,-182,-120,-176
-178,-150,28,166,-110,-52,282,196,78,-182,-120,-176
-178,-150,28,166,-110,-52,288,202,84,-182,-120,-176
-178,-150,28,166,-110,-52,288,202,84,-182,-120,-176
-178,-150,22,166,-110,-52,294,202,90,-182,-120,-176
-178,-150,22,166,-110,-52,300,208,90,-182,-120,-176
-178,-150,22,166,-110,-52,300,208,96,-182,-120,-176
-178,-150,22,166,-110,-52,300,214,102,-182,-120,-176
-178,-150,22,166,-110,-52,306,226,108,-182,-120,-176
-178,-150,22,166,-110,-52,306,232,114,-176,-120,-176
-178,-150,22,166,-110,-52,306,238,120,-176,-120,-176
-178,-150,22,166,-110,-52,306,244,126,-176,-120,-176
-178,-150,22,166,-110,-52,306,250,132,-176,-120,-176
-178,-150,16,166,-110,-52,312,256,138,-170,-120,-176
-178,-150,16,166,-110,-52,312,262,144,-170,-120,-176
-178,-150,16,166,-110,-58,318,268,150,-170,-120,-176
-178,-150,16,166,-110,-58,318,268,156,-170,-120,-176
-178,-150,16,166,-110,-58,324,274,156,-164,-120,-176
-178,-150,16,166,-110,-58,330,286,162,-158,-120,-176
-178,-150,16,166,-110,-58,330,292,168,-158,-120,-176
-178,-150,16,166,-110,-58,336,298,168,-158,-120,-176
-178,-150,16,166,-110,-58,336,304,174,-152,-120,-176
-178,-150,16,166,-104,-58,336,310,180,-152,-120,-176
-178,-150,16,166,-104,-58,342,316,186,-152,-120,-170
-178,-150,16,166,-104,-58,342,322,192,-146,-120,-170
-172,-150,10,166,-104,-58,342,322,192,-140,-120,-164
-172,-150,10,166,-104,-58,342,328,198,-134,-120,-164
-172,-150,10,166,-104,-58,342,334,204,-134,-120,-164
-172,-150,10,166,-104,-58,348,346,216,-128,-114,-158
-166,-150,10,160,-98,-58,354,358,228,-122,-108,-152
-160,-150,10,154,-98,-58,354,364,234,-116,-108,-146
-160,-150,10,154,-92,-58,354,370,240,-110,-108,-140
-154,-150,10,154,-92,-58,354,382,252,-98,-102,-140
-148,-150,10,148,-86,-58,354,388,258,-92,-96,-134
-148,-150,10,148,-86,-58,354,394,264,-86,-90,-128
-148,-144,10,148,-80,-58,354,400,270,-80,-84,-122
-142,-144,10,148,-80,-58,354,412,276,-68,-78,-116
-136,-138,10,142,-80,-58,354,418,288,-62,-72,-110
-130,-138,10,142,-80,-58,354,430,300,-56,-66,-110
-124,-132,4,136,-74,-58,354,442,312,-50,-60,-104
-118,-126,-1,130,-74,-58,354,448,318,-44,-54,-98
-112,-126,-7,124,-68,-58,354,454,324,-38,-48,-92
-106,-126,-13,118,-62,-58,354,466,330,-26,-42,-92
-100,-120,-13,112,-56,-58,354,472,342,-14,-36,-80
-94,-120,-19,112,-56,-58,354,478,354,-2,-30,-74
-88,-114,-19,106,-50,-58,354,490,360,9,-24,-62
-76,-108,-25,94,-38,-58,354,496,366,21,-12,-56
-64,-102,-31,88,-32,-58,354,502,378,33,0,-50
-58,-102,-31,82,-26,-58,354,514,390,39,11,-44
-52,-96,-31,82,-20,-58,354,520,402,45,23,-38
-46,-96,-37,76,-14,-58,354,526,408,57,29,-32
-40,-96,-43,70,-8,-58,348,532,420,69,35,-20
-34,-90,-49,64,-3,-58,348,538,426,81,47,-14
-28,-90,-49,64,3,-58,342,544,432,93,59,-8
-22,-84,-55,64,9,-58,336,544,438,105,71,-2
-10,-78,-61,58,15,-58,330,544,444,111,77,3
1,-72,-67,46,27,-58,324,550,450,123,89,9
7,-72,-67,40,33,-58,318,550,456,135,101,15
13,-72,-67,34,39,-58,312,550,468,141,107,27
19,-66,-73,28,45,-58,306,550,474,153,119,39
31,-66,-79,22,51,-58,300,550,480,159,125,51
37,-60,-85,16,57,-58,288,550,480,171,131,57
43,-60,-91,10,57,-58,276,550,480,177,143,63
49,-54,-91,4,63,-58,264,550,480,183,155,69
61,-48,-97,-1,69,-58,252,550,480,189,161,81
73,-42,-103,-7,75,-58,234,550,480,201,173,93
79,-36,-103,-13,81,-58,216,544,480,207,179,99
85,-30,-109,-19,87,-58,204,532,480,213,191,105
91,-30,-109,-25,93,-58,186,520,480,219,197,111
103,-30,-109,-31,105,-58,174,508,480,225,203,117
115,-24,-115,-43,111,-58,156,490,480,225,203,123
121,-24,-115,-49,111,-58,144,478,480,225,209,129
127,-18,-121,-55,117,-58,132,466,480,225,215,135
127,-12,-121,-61,117,-58,114,454,474,225,221,141
133,-6,-121,-67,117,-58,102,430,468,225,221,147
133,-1,-121,-67,117,-58,90,418,456,231,221,153
133,5,-121,-67,117,-52,78,406,444,231,221,159
133,11,-121,-67,117,-52,66,382,438,231,227,165
133,11,-121,-73,117,-46,54,352,432,231,227,165
133,11,-121,-73,117,-40,42,322,420,231,227,165
133,17,-115,-73,117,-34,30,298,408,231,227,165
133,23,-109,-73,117,-28,24,286,396,231,227,165
133,23,-103,-73,111,-28,12,262,378,225,227,165
133,23,-97,-73,105,-22,6,238,360,219,227,165
127,23,-91,-73,99,-16,0,214,342,213,227,165
121,29,-79,-73,87,-10,-5,202,318,207,221,165
115,35,-73,-73,81,-5,-11,178,300,195,215,165
109,35,-67,-73,75,1,-17,160,282,189,209,165
103,35,-55,-73,69,7,-17,142,270,177,203,165
97,35,-43,-73,63,13,-23,118,258,165,197,165
91,41,-31,-73,57,19,-23,94,246,153,191,159
79,41,-19,-67,45,25,-23,76,228,141,179,153
73,41,-13,-61,33,25,-23,58,210,129,173,153
67,41,-7,-61,27,31,-23,40,192,123,167,153
61,41,-1,-61,21,37,-23,28,180,111,161,147
55,41,10,-55,15,43,-23,16,150,99,149,141
43,41,16,-49,9,49,-23,4,132,87,143,135
37,41,22,-43,3,49,-23,-7,120,81,137,129
25,41,28,-37,-3,49,-23,-25,108,69,125,123
19,41,28,-37,-8,49,-23,-43,96,63,113,117
13,41,34,-37,-14,49,-23,-55,84,57,107,111
7,41,40,-37,-20,49,-23,-67,78,51,101,105
1,41,46,-31,-26,49,-29,-79,72,45,95,99
1,41,52,-31,-32,49,-29,-85,60,39,89,99
-5,41,52,-31,-32,49,-29,-91,54,33,83,93
-10,41,52,-25,-38,49,-29,-97,42,21,77,87
-10,41,52,-25,-38,49,-29,-103,36,15,71,87
-10,41,52,-19,-38,49,-29,-109,30,9,65,87
-16,41,52,-19,-38,49,-29,-115,24,3,59,87
-16,41,52,-19,-38,49,-29,-121,18,-2,53,87
-22,41,52,-19,-44,49,-29,-121,12,-8,53,87
-22,41,52,-19,-44,49,-29,-127,6,-14,47,81
-22,41,52,-19,-44,49,-29,-133,1,-14,47,81
-22,41,52,-13,-44,49,-29,-133,1,-14,47,81
-22,41,52,-13,-50,49,-29,-133,1,-14,41,81
-28,41,52,-13,-50,49,-29,-133,-5,-20,41,81
-28,41,52,-13,-50,49,-29,-133,-5,-20,35,81
-28,41,52,-7,-50,49,-29,-139,-11,-20,35,75
-34,41,52,-1,-50,49,-29,-139,-11,-26,35,75
-34,41,52,-1,-50,49,-29,-139,-11,-26,35,75
-34,41,52,-1,-50,49,-29,-139,-11,-26,35,75
-34,41,52,-1,-50,49,-29,-139,-17,-32,29,69
-34,41,52,-1,-50,49,-29,-139,-17,-38,23,63
-34,41,52,4,-50,49,-29,-139,-17,-38,17,63
-34,41,52,4,-50,49,-29,-139,-17,-38,17,63
-34,35,52,4,-50,49,-29,-139,-17,-38,17,63
-34,35,52,4,-50,49,-29,-139,-23,-38,17,63
-34,35,52,4,-50,49,-29,-139,-23,-38,17,57
-40,35,52,4,-50,49,-29,-139,-23,-38,17,51
-46,35,52,4,-56,49,-29,-139,-23,-44,17,51
-46,35,52,4,-56,49,-29,-139,-23,-50,11,51
-46,35,52,4,-56,49,-29,-139,-23,-56,11,51
-46,35,58,10,-56,49,-29,-139,-23,-56,11,45
-46,29,58,10,-56,49,-23,-139,-29,-56,5,39
-46,29,58,10,-56,49,-23,-139,-29,-56,0,39
-52,29,58,10,-56,49,-23,-139,-29,-62,-6,39
-52,29,58,10,-56,49,-23,-139,-29,-62,-6,33
-52,23,58,10,-56,49,-23,-139,-35,-62,-6,33
-52,23,58,16,-56,49,-17,-139,-35,-62,-6,33
-52,17,58,16,-56,49,-11,-139,-35,-62,-6,33
-52,11,58,22,-56,49,-11,-139,-35,-62,-12,27
-52,11,58,22,-56,49,-11,-139,-35,-62,-12,27
-52,11,58,22,-56,49,-5,-139,-35,-62,-12,27
-52,5,58,22,-56,49,-5,-139,-35,-62,-12,27
-52,5,58,22,-56,49,-5,-139,-35,-62,-12,21
-52,5,58,28,-56,49,-5,-139,-35,-62,-12,21
-52,5,58,28,-56,49,0,-139,-35,-68,-12,15
-52,5,58,28,-56,49,0,-133,-35,-68,-12,9
-58,5,58,34,-56,49,0,-127,-35,-68,-12,9
-58,5,58,34,-56,49,0,-121,-35,-68,-12,9
-58,5,58,34,-56,49,6,-121,-35,-68,-12,9
-64,-1,58,34,-62,49,6,-121,-35,-68,-12,9
-70,-1,58,34,-62,49,6,-121,-35,-68,-12,9
-70,-1,58,34,-62,49,6,-121,-35,-68,-12,9
-70,-1,58,34,-62,49,6,-115,-35,-68,-12,9
-70,-1,58,34,-62,49,6,-115,-35,-68,-6,3
-70,-1,58,34,-62,49,6,-115,-29,-68,-6,-2
-70,-1,58,34,-62,49,6,-115,-29,-68,0,-2
-70,-1,58,34,-62,49,6,-109,-29,-68,5,-2
-70,-1,58,34,-62,49,6,-103,-29,-68,5,-2
-70,-1,58,34,-62,49,6,-103,-23,-68,11,-8
-70,-1,58,34,-62,49,6,-103,-23,-68,11,-8
-70,-1,58,34,-62,49,6,-103,-23,-68,11,-8
-70,-1,58,34,-62,49,6,-103,-23,-68,11,-8
-70,-1,58,34,-62,49,6,-97,-23,-68,11,-14
-70,-1,58,34,-62,49,6,-97,-17,-68,11,-14
-70,-1,58,34,-62,49,12,-97,-11,-62,17,-20
-70,-1,58,34,-62,49,12,-97,-5,-62,17,-20
-70,-1,58,34,-62,49,12,-97,-5,-62,17,-20
-70,-1,58,34,-62,49,12,-91,1,-62,17,-20
-70,-1,58,34,-62,49,12,-91,1,-56,23,-26
-70,-1,58,34,-62,49,12,-91,1,-50,23,-26
-70,-1,58,34,-62,49,12,-91,1,-50,29,-26
-70,-1,58,34,-62,49,12,-91,1,-50,35,-26
-70,-1,58,34,-62,49,12,-91,1,-50,41,-26
-70,-1,58,34,-62,49,12,-91,1,-50,41,-26
-70,-1,58,34,-62,49,12,-91,1,-50,41,-32
-70,-1,58,34,-62,49,12,-91,6,-50,41,-32
-70,-1,58,34,-62,49,12,-91,6,-50,41,-32
-70,-1,58,34,-62,49,12,-91,6,-50,41,-32
-70,-1,58,34,-62,49,12,-91,6,-50,41,-38
-70,-1,58,34,-62,49,12,-91,6,-50,41,-38
-70,-1,58,34,-62,49,12,-91,6,-44,41,-38
-70,-1,58,34,-62,49,12,-91,6,-44,41,-38
-70,-1,58,34,-62,43,12,-91,6,-44,41,-38
-70,-1,58,34,-62,43,12,-91,6,-44,41,-38
-70,-1,58,34,-62,43,12,-91,6,-44,41,-38
-70,-1,58,34,-62,43,12,-91,6,-44,41,-38
-70,-1,58,34,-62,43,12,-91,6,-44,47,-38
-70,-1,58,34,-62,43,12,-91,6,-44,47,-38
-70,-1,58,34,-62,43,12,-91,6,-38,47,-38
-70,-1,58,34,-62,43,12,-91,6,-38,47,-38
-70,-1,58,34,-62,43,12,-91,6,-38,47,-38
-70,-1,58,34,-62,43,12,-91,6,-38,47,-38
-70,-1,58,34,-62,43,12,-91,6,-38,47,-38
-70,-1,58,34,-62,43,12,-91,6,-38,53,-38
-70,-1,58,40,-62,43,12,-91,6,-38,53,-38
-70,-1,58,40,-62,43,12,-91,6,-38,53,-38
-70,-1,58,40,-62,43,12,-91,6,-38,53,-38
-70,-1,58,40,-62,43,12,-91,6,-38,53,-38
-70,-1,58,40,-62,43,12,-91,6,-38,53,-38
-70,-1,58,40,-62,43,12,-91,6,-38,53,-38
-70,-1,58,40,-62,43,12,-91,6,-38,53,-38
-70,-1,58,40,-62,43,12,-91,6,-38,53,-38
-70,-1,58,40,-62,43,12,-91,6,-38,53,-38
-70,-1,58,40,-62,43,12,-91,6,-38,53,-38
-70,-1,58,40,-62,43,12,-91,6,-38,53,-38
-70,-1,58,40,-62,43,12,-91,6,-38,53,-38
-70,-1,58,40,-62,43,12,-91,6,-38,53,-38
-70,-1,58,40,-62,43,12,-91,6,-38,53,-38
-70,-1,58,40,-62,43,12,-91,6,-38,53,-38
-70,-1,58,40,-62,43,12,-91,6,-38,53,-38
-70,-1,58,40,-62,43,12,-91,6,-38,53,-38
-70,-1,58,40,-62,43,12,-91,6,-38,53,-38
-70,-1,58,40,-62,43,12,-91,6,-38,53,-38
-70,-1,58,40,-62,43,12,-91,6,-38,53,-38
-70,-1,58,40,-62,43,12,-91,6,-38,53,-38
-70,-1,58,40,-62,43,12,-91,6,-38,53,-38
-70,-1,58,40,-62,43,12,-91,6,-38,53,-38
-70,-1,58,40,-62,43,12,-91,6,-38,53,-38
-70,-1,58,40,-62,43,12,-91,6,-38,53,-38
-70,-1,58,40,-62,43,12,-91,6,-38,53,-38
-70,-1,58,40,-62,43,12,-91,6,-38,53,-38
-70,-1,58,40,-62,43,12,-91,6,-38,53,-38
-70,-1,58,40,-62,43,12,-91,6,-38,53,-38
-70,-1,58,40,-62,43,12,-91,6,-38,53,-38
-70,-1,58,40,-62,43,12,-91,6,-38,53,-38
-70,-1,58,40,-62,43,12,-91,6,-38,53,-38
-70,-1,58,40,-62,43,12,-91,6,-38,53,-38
-70,-1,58,40,-62,43,12,-91,6,-38,53,-38
-70,-1,58,40,-62,43,12,-91,6,-38,53,-38
-70,-1,58,40,-62,43,12,-91,6,-38,53,-38
-70,-1,58,40,-62,43,12,-91,6,-38,53,-38
-70,-1,58,40,-62,43,12,-91,6,-38,53,-38
-70,-1,58,40,-62,43,12,-91,6,-38,53,-38
-70,-1,58,40,-62,43,12,-97,6,-38,53,-38
-70,-1,58,40,-62,43,12,-97,6,-38,53,-38
-70,-1,58,40,-62,43,12,-97,6,-38,53,-38
-70,-1,58,40,-62,43,12,-97,1,-38,53,-38
-70,-1,58,40,-62,43,12,-97,1,-38,53,-38
-70,-1,58,40,-62,43,12,-103,1,-44,53,-38
-70,-1,58,40,-62,43,12,-103,1,-44,53,-38
-70,-1,58,40,-62,43,12,-103,1,-44,53,-38
-70,-1,58,40,-62,43,12,-103,1,-44,53,-38
-70,-1,58,40,-62,43,12,-103,1,-44,53,-38
-70,-1,58,40,-62,43,12,-103,1,-44,53,-38
-70,-1,58,40,-62,43,12,-103,1,-44,53,-38
-70,-1,58,40,-62,43,12,-103,1,-44,53,-38
-70,-1,58,40,-62,43,12,-103,1,-44,53,-38
-70,-1,58,40,-62,43,12,-103,1,-44,53,-38
-70,-1,58,40,-62,43,12,-103,1,-44,53,-38
-70,-1,58,40,-62,43,12,-103,1,-44,53,-38
-70,-1,58,40,-62,43,12,-103,1,-44,53,-38
-70,-1,58,40,-62,43,12,-103,1,-44,53,-38
-70,-1,58,40,-62,43,12,-103,1,-44,53,-38
-70,-1,58,40,-62,43,12,-103,1,-44,53,-38
-70,-1,58,40,-62,43,12,-103,1,-44,53,-38
-70,-1,58,40,-62,43,12,-103,1,-44,53,-38
-70,-1,58,40,-62,43,12,-103,1,-44,53,-38
-70,-1,58,40,-62,43,12,-103,1,-44,53,-38
-70,-1,58,40,-62,43,12,-103,1,-44,53,-38
-70,-1,58,40,-62,43,12,-103,1,-44,53,-38
-70,-1,58,40,-62,43,12,-103,1,-44,53,-38
-70,-1,58,40,-62,43,12,-103,1,-44,53,-38
-70,-1,58,40,-62,43,12,-103,1,-44,53,-38
-70,-1,58,40,-62,43,12,-103,1,-44,53,-38
-70,-1,58,40,-62,43,12,-103,1,-44,53,-38
-70,-1,58,40,-62,43,12,-103,1,-44,53,-38
-70,-1,58,40,-62,43,12,-103,1,-44,53,-38
-70,-1,58,40,-62,43,12,-103,1,-44,53,-38
-70,-1,58,40,-62,43,12,-103,1,-44,53,-38
-70,-1,58,40,-62,43,12,-103,1,-44,53,-38
-70,-1,58,40,-62,43,12,-103,1,-44,53,-38
-70,-1,58,40,-62,43,12,-103,1,-44,53,-38
-70,-1,58,40,-62,43,12,-103,1,-44,53,-38
-70,-1,58,40,-62,43,12,-103,1,-44,53,-38
-70,-1,58,40,-62,43,12,-103,1,-44,53,-38
-70,-1,58,40,-62,43,12,-103,-5,-44,53,-38
-70,-1,58,40,-62,43,12,-103,-5,-44,53,-38
-70,-1,58,40,-62,43,12,-103,-5,-44,53,-38
-70,-1,58,40,-62,43,12,-103,-5,-44,53,-38
-70,-1,58,40,-62,43,12,-103,-5,-44,53,-38
-70,-1,58,40,-62,43,12,-103,-5,-44,53,-38
-70,-1,58,40,-62,43,12,-103,-5,-44,53,-38
-70,-1,58,40,-62,43,12,-103,-5,-44,53,-38
-70,-1,58,40,-62,43,12,-103,-5,-44,53,-38
-70,-1,58,40,-62,43,12,-103,-5,-44,53,-38
-70,-1,58,40,-62,43,12,-103,-5,-44,53,-38
-70,-1,58,40,-62,43,12,-103,-5,-44,53,-38
-70,-1,58,40,-62,43,12,-103,-5,-44,53,-38
-70,-1,58,40,-62,43,12,-103,-5,-44,53,-38
-70,-1,58,40,-62,43,12,-103,-5,-44,53,-38
-70,-1,58,40,-62,43,12,-103,-5,-44,53,-38
-70,-1,58,40,-62,43,12,-103,-5,-44,53,-38
-70,-1,58,40,-62,43,12,-103,-5,-44,53,-38
-70,-1,58,40,-62,43,12,-103,-5,-44,53,-38
-70,-1,58,40,-62,43,12,-103,-5,-44,53,-38
-70,-1,58,40,-62,43,12,-103,-5,-44,53,-38
-64,-1,58,40,-56,43,12,-103,-5,-44,53,-38
-58,-1,58,40,-56,43,12,-103,-5,-44,53,-38
-58,-1,58,40,-56,43,12,-97,1,-44,53,-38
-58,-1,58,34,-56,43,18,-91,6,-44,53,-38
-58,5,58,34,-56,43,24,-85,12,-38,53,-32
-58,11,58,34,-56,43,30,-79,18,-32,53,-32
-52,17,58,34,-56,43,36,-73,24,-26,59,-26
-52,23,58,34,-56,49,42,-67,30,-20,65,-26
-52,29,58,34,-56,49,48,-67,36,-20,71,-26
-46,35,58,28,-50,49,48,-61,42,-14,77,-20
-40,41,58,16,-50,55,48,-55,42,-8,77,-14
-28,47,58,10,-50,61,48,-55,42,-2,77,-8
-22,53,58,4,-44,67,48,-49,42,-2,83,-2
-16,59,58,-1,-38,67,42,-49,42,3,83,-2
-10,59,58,-7,-38,67,36,-49,42,3,89,-2
-5,59,58,-13,-32,67,24,-49,42,3,89,3
-5,59,58,-13,-32,67,18,-49,42,3,89,3
-5,59,58,-19,-32,67,12,-49,42,9,89,9
1,65,58,-19,-32,67,6,-49,48,9,95,9
1,71,58,-25,-32,67,0,-49,48,15,95,9
1,71,58,-25,-32,67,0,-49,48,15,95,9
1,71,58,-25,-32,67,0,-49,48,15,95,9
1,71,58,-25,-32,67,-5,-55,48,15,95,9
1,71,58,-25,-32,67,-11,-61,42,15,95,9
1,71,58,-25,-32,67,-11,-67,36,15,95,9
1,65,58,-25,-32,67,-17,-73,36,9,95,9
1,59,52,-25,-32,61,-17,-79,36,3,95,9
1,53,52,-25,-32,61,-17,-85,30,3,95,9
1,53,52,-19,-32,61,-17,-85,30,-2,95,9
1,53,46,-13,-32,55,-17,-85,24,-2,95,9
1,47,40,-13,-26,49,-23,-85,18,-2,89,9
1,41,34,-13,-20,43,-29,-85,18,-8,89,3
1,35,28,-7,-14,37,-35,-91,18,-8,83,-2
1,29,22,-7,-14,31,-35,-91,18,-8,83,-2
1,29,22,-7,-14,25,-35,-91,18,-8,83,-2
1,29,22,-7,-14,25,-35,-91,18,-8,83,-2
1,29,22,-7,-14,25,-35,-91,18,-14,77,-2
1,23,22,-7,-14,25,-35,-97,12,-20,71,-8
1,17,22,-1,-14,25,-35,-97,6,-20,65,-8
1,11,22,-1,-14,25,-35,-97,6,-20,59,-8
-5,11,28,4,-14,25,-35,-97,6,-20,59,-8
-16,11,28,10,-20,25,-35,-97,6,-20,59,-8
-28,5,34,22,-26,25,-29,-97,1,-26,59,-14
-40,5,40,28,-32,25,-29,-103,1,-32,53,-20
-46,5,40,34,-32,25,-29,-103,1,-32,53,-20
-52,5,40,40,-38,25,-29,-103,-5,-38,53,-20
-58,-1,40,46,-44,25,-29,-103,-5,-38,47,-26
-64,-1,40,46,-44,25,-23,-103,-5,-38,47,-32
-64,-1,40,46,-44,25,-23,-109,-5,-44,47,-32
-64,-1,46,46,-44,25,-23,-109,-11,-44,47,-32
-64,-1,46,46,-44,25,-23,-109,-11,-50,47,-32
-64,-1,46,52,-44,25,-23,-109,-11,-50,47,-32
-64,-1,46,52,-44,25,-23,-109,-11,-50,41,-32
-64,-1,46,52,-44,25,-23,-109,-11,-50,41,-32
-64,-1,46,52,-44,25,-23,-109,-11,-50,41,-32
-64,-1,46,52,-44,25,-23,-109,-11,-50,41,-32
-64,-1,46,52,-50,25,-23,-109,-11,-56,41,-32
-70,-1,46,52,-56,25,-23,-109,-17,-56,41,-32
-76,-1,46,52,-62,25,-23,-109,-17,-56,41,-32
-76,-1,52,52,-62,25,-17,-109,-17,-56,41,-32
-76,-1,52,52,-62,25,-17,-109,-17,-56,41,-32
-76,-6,52,52,-62,25,-17,-109,-17,-56,41,-32
-76,-6,52,58,-62,25,-17,-109,-17,-56,35,-38
-76,-6,52,64,-62,25,-17,-109,-17,-56,29,-38
-76,-6,52,64,-62,25,-17,-115,-17,-56,29,-38
-76,-6,52,64,-62,25,-17,-115,-23,-56,29,-38
-76,-6,52,64,-62,25,-17,-115,-23,-56,29,-38
-76,-6,52,64,-62,25,-17,-115,-23,-56,29,-38
-76,-6,52,58,-62,25,-17,-115,-23,-56,29,-38
-76,-6,58,52,-62,25,-17,-109,-17,-50,35,-38
-76,-1,58,46,-62,31,-23,-97,-11,-38,41,-32
-70,5,64,40,-62,37,-23,-61,12,-26,47,-26
-58,11,64,34,-62,43,-23,46,66,-2,65,-20
-46,23,70,28,-62,55,-5,160,156,39,89,-8
-34,41,76,16,-62,67,6,220,222,81,119,21
-22,71,76,-7,-62,91,6,238,258,123,149,51
-16,95,82,-19,-62,103,-11,232,264,147,173,69
-10,107,88,-31,-62,109,-59,130,252,147,179,75
-5,113,94,-43,-62,115,-167,-55,150,141,179,75
1,143,124,-61,-62,139,-275,-247,66,135,179,81
13,227,166,-109,-62,193,-413,-397,36,147,215,123
79,347,226,-205,-62,295,-557,-481,36,267,347,231
163,503,286,-319,-62,415,-683,-523,72,429,491,369
265,647,340,-433,-56,517,-851,-583,114,597,659,519
367,797,406,-553,-50,625,-1049,-673,174,759,827,681
433,971,478,-685,-44,751,-1229,-727,246,975,1037,879
523,1151,556,-817,-38,865,-1409,-811,300,1173,1259,1065
625,1265,586,-931,-14,925,-1589,-913,330,1347,1451,1245
745,1325,586,-1033,69,943,-1775,-973,360,1527,1625,1407
883,1385,550,-1135,171,949,-1949,-1021,390,1695,1817,1557
1015,1445,484,-1225,267,949,-2117,-1063,420,1869,1991,1701
1159,1517,430,-1327,369,955,-2261,-1069,516,2084,2206,1851
1285,1613,376,-1435,453,961,-2327,-1057,642,2294,2416,2019
1369,1619,286,-1465,537,961,-2369,-1045,660,2324,2463,2066
1411,1565,112,-1465,633,859,-2381,-1051,552,2186,2422,2049
1429,1397,-79,-1429,741,679,-2381,-1075,360,1911,2218,1899
1453,1223,-271,-1369,849,505,-2363,-1087,204,1659,2021,1743
1471,1025,-499,-1291,981,271,-2285,-1093,42,1395,1787,1557
1483,755,-775,-1165,1119,7,-2147,-1087,-113,1095,1529,1317
1483,491,-1009,-1009,1221,-262,-1979,-1075,-305,765,1217,1065
1471,263,-1171,-865,1275,-466,-1829,-1075,-527,399,899,801
1429,53,-1303,-727,1317,-622,-1679,-1075,-683,117,617,561
1357,-126,-1417,-595,1335,-778,-1523,-1051,-743,-86,389,351
1267,-264,-1459,-475,1341,-850,-1355,-973,-761,-248,197,171
1159,-366,-1471,-379,1329,-892,-1199,-925,-773,-386,29,21
1027,-420,-1465,-283,1257,-910,-1061,-907,-785,-494,-114,-86
919,-456,-1423,-217,1173,-910,-953,-901,-815,-578,-222,-176
817,-474,-1339,-175,1077,-904,-869,-889,-827,-632,-294,-230
703,-486,-1231,-121,969,-880,-785,-877,-833,-674,-342,-278
619,-486,-1123,-79,879,-838,-695,-829,-827,-680,-372,-308
541,-486,-1003,-37,771,-766,-605,-751,-791,-680,-378,-314
439,-468,-847,-7,639,-664,-503,-643,-713,-656,-378,-314
325,-414,-661,16,489,-538,-401,-529,-599,-584,-360,-308
241,-348,-517,40,375,-424,-287,-409,-485,-524,-330,-296
175,-312,-421,58,285,-352,-209,-325,-419,-464,-294,-278
115,-276,-331,70,207,-292,-149,-265,-341,-422,-270,-260
61,-246,-265,82,153,-232,-95,-205,-299,-380,-252,-248
13,-228,-211,88,111,-202,-53,-163,-257,-350,-222,-236
-16,-216,-169,94,75,-178,-17,-139,-227,-326,-210,-218
-46,-198,-127,100,45,-154,18,-97,-197,-296,-192,-206
-64,-186,-85,112,15,-136,60,-49,-161,-266,-180,-200
-82,-174,-55,118,-14,-124,84,-13,-131,-248,-168,-194
-88,-168,-37,124,-26,-112,96,4,-119,-242,-156,-188
-94,-162,-25,124,-38,-94,108,10,-113,-236,-150,-188
-100,-156,-13,130,-50,-82,120,16,-101,-230,-150,-182
-106,-150,-7,130,-56,-70,126,22,-89,-224,-144,-176
-112,-144,-1,130,-62,-64,132,28,-77,-218,-144,-176
-118,-144,4,130,-62,-58,144,40,-65,-212,-138,-176
-130,-138,10,130,-68,-52,156,46,-53,-206,-138,-170
-136,-132,16,136,-74,-52,162,52,-47,-200,-138,-170
-142,-132,22,136,-80,-52,174,58,-41,-194,-138,-170
-148,-132,28,136,-80,-52,180,58,-41,-188,-138,-170
-148,-132,28,136,-86,-52,186,58,-41,-188,-138,-170
-154,-132,34,142,-86,-46,192,64,-41,-188,-138,-170
-154,-132,34,142,-86,-46,192,70,-41,-188,-138,-170
-154,-132,34,142,-92,-40,192,76,-35,-182,-138,-170
-154,-132,40,142,-92,-40,198,76,-29,-176,-132,-170
-154,-132,40,142,-92,-40,198,82,-29,-170,-132,-170
-154,-126,40,142,-92,-40,204,82,-23,-170,-132,-170
-154,-120,40,142,-92,-40,210,88,-23,-170,-132,-170
-154,-120,46,142,-98,-40,210,88,-17,-164,-132,-170
-154,-120,46,142,-104,-40,210,88,-11,-164,-132,-170
-154,-120,46,142,-104,-40,210,88,-5,-164,-132,-170
-154,-120,46,142,-104,-40,216,88,-5,-164,-132,-170
-154,-120,46,142,-104,-40,216,88,1,-164,-132,-170
-154,-120,46,142,-104,-40,222,88,1,-164,-132,-170
-160,-120,46,142,-104,-40,222,88,1,-164,-132,-170
-160,-120,46,142,-104,-40,222,88,1,-164,-132,-170
-160,-120,46,142,-104,-40,222,94,1,-164,-132,-170
-160,-120,46,142,-104,-40,228,94,1,-164,-132,-170
-160,-120,46,142,-110,-40,234,94,1,-164,-132,-170
-160,-120,46,142,-110,-40,240,100,1,-164,-132,-170
-160,-120,46,142,-110,-40,240,100,6,-164,-132,-170
-160,-120,46,142,-110,-40,240,100,6,-164,-132,-170
-160,-120,46,142,-110,-40,240,100,6,-164,-132,-170
-160,-120,46,142,-110,-40,240,100,6,-164,-132,-170
-160,-120,46,142,-110,-40,240,106,12,-164,-132,-170
-160,-120,46,142,-110,-40,246,112,18,-164,-132,-170
-160,-120,46,142,-110,-40,252,118,24,-164,-132,-170
-160,-120,46,142,-110,-40,252,118,24,-164,-132,-170
-160,-120,46,142,-110,-40,252,124,24,-164,-132,-170
-160,-120,46,142,-110,-40,258,124,24,-164,-132,-170
-160,-120,46,142,-110,-40,258,130,24,-164,-132,-170
-160,-120,46,142,-110,-40,264,130,24,-164,-132,-170
-160,-120,46,142,-110,-40,270,130,30,-164,-132,-170
-160,-120,46,142,-110,-40,276,136,30,-164,-132,-170
-160,-120,46,142,-110,-40,276,136,30,-164,-132,-170
-160,-126,46,142,-110,-40,276,136,30,-164,-132,-170
-160,-126,46,148,-110,-40,276,142,36,-164,-132,-170
-160,-126,46,154,-110,-40,282,148,42,-164,-138,-170
-160,-132,46,154,-110,-40,282,148,42,-164,-138,-170
-160,-132,46,154,-110,-40,282,154,42,-164,-138,-170
-160,-132,46,154,-110,-40,282,160,48,-164,-144,-170
-160,-132,46,154,-110,-40,288,160,48,-164,-144,-170
-160,-138,46,154,-110,-40,294,166,54,-164,-144,-170
-160,-138,46,154,-110,-40,294,166,54,-164,-144,-170
-160,-138,46,154,-110,-40,300,166,54,-164,-144,-176
-160,-138,46,154,-110,-40,300,172,54,-164,-150,-176
-160,-138,46,154,-110,-40,306,178,60,-164,-150,-176
-160,-138,46,154,-110,-40,306,184,66,-164,-150,-176
-160,-138,46,154,-110,-40,306,190,72,-164,-150,-176
-160,-138,46,154,-110,-40,312,196,72,-164,-150,-176
-160,-138,46,154,-110,-40,312,202,78,-164,-150,-176
-160,-138,46,154,-110,-40,312,202,78,-164,-150,-176
-160,-138,46,154,-110,-40,312,208,78,-164,-150,-176
-160,-138,46,154,-110,-40,318,214,78,-164,-150,-176
-160,-138,46,154,-110,-40,324,220,84,-164,-150,-176
-160,-138,46,154,-110,-40,330,226,90,-164,-150,-176
-160,-138,40,154,-110,-46,330,232,96,-164,-150,-176
-160,-138,40,154,-110,-46,330,238,102,-158,-150,-176
-160,-138,40,154,-110,-46,336,244,108,-158,-150,-176
-160,-138,40,154,-110,-46,336,250,114,-152,-150,-176
-160,-138,40,154,-104,-46,336,256,120,-152,-150,-176
-154,-138,34,154,-98,-46,336,262,120,-146,-150,-176
-154,-138,34,154,-92,-46,342,268,126,-146,-150,-176
-154,-138,34,154,-92,-46,348,274,132,-140,-150,-176
-148,-138,34,154,-92,-46,348,280,138,-140,-150,-176
-148,-138,34,154,-92,-46,348,286,144,-134,-150,-176
-142,-138,34,154,-92,-46,354,298,150,-128,-150,-176
-142,-138,34,154,-92,-46,354,304,156,-122,-144,-176
-142,-138,34,154,-92,-46,354,310,168,-116,-144,-176
-142,-138,34,154,-92,-46,354,316,174,-116,-138,-176
-142,-138,34,154,-92,-46,354,322,180,-116,-132,-176
-142,-138,34,154,-92,-46,360,334,186,-110,-132,-176
-142,-138,34,148,-92,-46,360,346,192,-104,-126,-176
-136,-132,34,142,-86,-46,360,352,198,-98,-120,-176
-136,-132,34,142,-86,-46,366,364,204,-92,-114,-176
-130,-132,34,142,-86,-46,372,370,216,-86,-108,-176
-124,-132,28,136,-80,-46,372,382,222,-74,-102,-170
-118,-132,22,136,-74,-46,372,394,228,-68,-96,-170
-112,-126,22,136,-68,-46,372,400,240,-62,-96,-164
-112,-120,16,130,-62,-46,378,406,252,-56,-90,-158
-106,-120,16,124,-62,-46,378,412,258,-50,-84,-158
-100,-114,16,118,-56,-46,378,424,270,-44,-78,-152
-100,-114,10,112,-50,-46,378,430,276,-38,-72,-152
-94,-114,10,112,-50,-46,378,442,282,-32,-66,-146
-88,-114,10,112,-50,-46,378,454,288,-26,-60,-140
-82,-114,4,106,-44,-46,378,460,300,-14,-54,-134
-76,-114,-1,100,-38,-46,378,472,312,-2,-48,-122
-70,-108,-7,94,-32,-46,378,484,318,9,-36,-116
-64,-102,-7,88,-26,-46,378,490,330,15,-30,-110
-58,-102,-13,82,-20,-46,378,496,342,27,-18,-104
-46,-96,-19,76,-14,-46,378,502,354,33,-12,-98
-40,-96,-19,70,-8,-46,378,508,360,45,-6,-86
-34,-90,-25,64,-3,-46,378,514,366,51,5,-80
-28,-84,-31,64,3,-46,378,520,372,57,17,-74
-22,-84,-37,58,9,-46,372,526,384,69,29,-68
-10,-78,-37,58,15,-46,372,532,390,75,35,-62
-5,-78,-43,52,21,-46,366,538,396,87,47,-50
7,-72,-49,46,27,-46,360,544,402,99,59,-44
13,-66,-49,40,33,-46,360,550,414,105,65,-38
19,-66,-55,34,39,-46,354,550,420,117,71,-32
25,-66,-61,28,45,-46,348,550,426,123,83,-26
37,-60,-67,22,51,-46,342,556,426,135,95,-20
49,-54,-73,10,57,-46,336,556,432,147,107,-14
61,-42,-79,-1,63,-46,324,556,432,153,119,-2
73,-30,-79,-7,75,-46,312,556,438,159,131,9
85,-24,-79,-13,81,-46,300,556,438,165,143,15
91,-18,-79,-19,87,-46,288,556,438,177,149,27
97,-18,-85,-25,93,-46,276,556,438,183,155,33
109,-12,-91,-37,105,-46,264,550,438,189,161,39
115,-6,-97,-43,111,-46,252,544,438,195,167,45
121,-6,-103,-49,117,-46,240,532,438,201,173,51
127,-6,-109,-55,123,-46,228,526,438,207,179,57
133,-6,-109,-61,129,-46,204,520,438,213,185,63
139,-1,-109,-67,129,-46,192,508,438,213,197,63
145,5,-109,-73,129,-46,174,496,438,213,209,69
151,11,-109,-79,135,-46,156,484,432,213,221,75
157,17,-109,-79,135,-46,144,466,426,219,227,87
157,17,-109,-79,135,-46,132,454,420,219,233,93
163,17,-115,-85,135,-46,120,430,414,219,239,99
163,23,-115,-85,135,-46,108,412,408,219,239,105
163,29,-115,-85,141,-46,96,388,396,219,239,111
169,35,-115,-91,141,-40,84,376,384,225,245,111
169,35,-115,-91,141,-34,72,352,372,225,245,111
169,41,-115,-91,141,-34,60,328,354,225,245,111
169,47,-109,-91,141,-34,48,310,342,225,245,111
169,53,-103,-91,135,-28,42,280,330,219,245,111
169,59,-97,-91,135,-22,36,268,318,213,245,111
169,59,-85,-91,129,-16,30,256,300,207,245,111
163,59,-79,-91,123,-10,24,226,288,195,245,111
157,59,-73,-91,117,-5,18,208,270,189,239,111
151,59,-67,-91,111,-5,12,178,252,183,233,111
145,59,-61,-91,99,1,12,160,240,177,227,111
133,59,-49,-91,87,7,12,142,222,171,215,111
121,59,-37,-91,75,19,6,124,198,159,209,105
109,59,-25,-91,63,25,6,112,180,147,203,99
97,59,-13,-91,51,31,6,88,168,135,197,93
91,59,-1,-91,45,37,6,76,150,123,191,93
85,59,4,-85,39,37,6,58,138,111,179,87
79,59,10,-79,33,37,6,46,126,99,173,87
73,59,16,-73,27,43,6,34,114,93,161,81
67,59,22,-73,27,49,6,16,102,81,155,75
61,59,28,-73,21,49,6,4,84,75,149,69
55,59,34,-67,15,55,6,-7,72,69,137,63
43,59,40,-61,3,61,6,-19,54,57,131,57
37,59,46,-55,-3,61,6,-31,42,51,125,57
31,59,52,-55,-8,61,6,-43,30,39,119,51
31,59,58,-55,-14,61,6,-55,24,27,113,45
25,59,58,-49,-20,61,6,-61,18,21,107,45
25,59,58,-49,-20,61,6,-67,12,15,101,45
19,59,64,-43,-26,61,6,-73,6,9,95,39
13,59,64,-37,-26,61,6,-79,1,3,89,39
13,59,64,-37,-26,61,6,-85,-5,-2,83,39
13,59,64,-37,-26,61,6,-91,-17,-8,77,39
7,59,64,-31,-32,61,6,-97,-23,-14,77,33
1,59,64,-31,-32,61,6,-97,-29,-20,77,33
1,59,70,-31,-32,61,6,-97,-35,-20,77,33
1,59,70,-31,-32,61,6,-97,-41,-26,77,27
-5,59,70,-25,-32,61,6,-97,-41,-26,71,27
-5,53,70,-19,-32,61,6,-97,-41,-26,71,27
-10,53,70,-19,-32,61,6,-103,-41,-32,65,27
-10,53,70,-19,-32,61,6,-103,-47,-32,65,21
-10,53,70,-19,-32,61,6,-103,-53,-32,65,15
-10,53,70,-19,-32,61,6,-103,-53,-38,65,9
-10,47,70,-19,-32,61,6,-103,-53,-38,59,9
-10,47,70,-13,-32,61,6,-103,-53,-44,53,9
-10,47,70,-13,-32,61,6,-103,-53,-44,47,3
-10,47,70,-13,-32,61,6,-103,-53,-50,47,3
-16,47,70,-13,-38,61,6,-103,-53,-50,47,3
-16,41,70,-7,-38,61,6,-103,-59,-56,47,3
-16,35,70,-7,-38,61,6,-103,-65,-56,41,-2
-16,35,70,-7,-38,61,6,-103,-65,-56,41,-2
-16,35,70,-7,-38,61,6,-103,-65,-56,41,-2
-22,35,70,-7,-38,61,6,-103,-65,-62,41,-8
-22,35,70,-1,-38,61,6,-103,-65,-68,35,-14
-22,35,70,-1,-44,61,6,-103,-65,-68,29,-20
-28,29,70,4,-44,61,12,-103,-65,-68,23,-20
-28,29,70,4,-44,61,12,-103,-65,-68,23,-20
-28,29,70,4,-44,61,12,-103,-65,-74,23,-20
-28,29,70,4,-44,55,12,-103,-65,-74,23,-20
-28,29,70,4,-44,55,12,-103,-65,-74,23,-20
-34,23,70,10,-44,55,18,-103,-65,-74,23,-20
-40,17,70,10,-44,55,18,-103,-65,-74,17,-26
-40,17,70,16,-44,55,18,-103,-65,-80,17,-26
-40,17,70,16,-44,55,24,-103,-65,-80,17,-26
-40,17,70,16,-44,55,24,-103,-65,-80,17,-26
-40,17,70,16,-44,55,24,-103,-65,-80,11,-32
-46,17,70,16,-44,55,24,-103,-65,-80,11,-32
-46,17,70,16,-50,55,30,-103,-65,-80,11,-32
-46,17,70,16,-50,55,30,-103,-65,-80,11,-32
-46,17,70,16,-50,55,30,-103,-65,-80,5,-32
-46,17,70,16,-50,55,30,-103,-65,-80,5,-32
-46,17,70,16,-50,55,36,-103,-65,-80,5,-32
-46,17,70,16,-50,55,36,-103,-65,-80,5,-32
-46,17,70,16,-50,55,36,-97,-65,-80,5,-38
-46,17,70,16,-50,55,36,-97,-65,-80,5,-38
-46,17,70,22,-56,55,42,-97,-65,-80,5,-38
-46,17,70,22,-56,55,42,-97,-65,-80,5,-38
-46,17,70,22,-56,55,42,-91,-65,-80,5,-38
-46,17,70,22,-56,55,42,-91,-65,-80,5,-38
-46,17,70,22,-56,55,48,-85,-65,-80,5,-38
-46,11,70,22,-56,55,48,-85,-65,-80,5,-38
-52,11,70,22,-56,55,48,-85,-65,-80,5,-38
-52,11,70,22,-56,55,48,-79,-59,-80,5,-38
-52,11,70,22,-56,55,48,-73,-59,-80,5,-38
-52,11,70,22,-56,55,48,-67,-59,-80,5,-38
-52,11,70,22,-56,55,48,-67,-59,-80,5,-38
-52,11,70,22,-56,55,48,-67,-59,-80,5,-38
-52,11,70,22,-56,55,48,-67,-59,-80,5,-38
-52,11,70,22,-56,55,48,-67,-53,-80,5,-38
-52,11,70,28,-56,55,48,-67,-47,-80,5,-38
-52,11,70,28,-56,55,48,-67,-47,-80,5,-38
-52,11,70,28,-56,55,48,-67,-47,-80,5,-38
-52,11,70,28,-56,55,48,-61,-47,-80,5,-38
-52,11,70,28,-56,55,48,-61,-47,-80,5,-38
-52,11,70,28,-56,55,48,-61,-47,-80,5,-38
-52,11,70,28,-56,55,48,-61,-47,-80,5,-38
-52,11,70,28,-56,55,48,-61,-47,-80,5,-38
-52,11,70,28,-56,55,48,-55,-47,-80,5,-38
-52,11,70,28,-56,55,48,-55,-41,-80,5,-38
-52,11,70,28,-56,49,48,-55,-41,-80,5,-38
-52,11,70,28,-56,49,48,-55,-41,-80,5,-38
-52,11,70,28,-56,49,48,-49,-41,-80,5,-38
-52,11,70,28,-56,49,48,-49,-41,-80,5,-38
-52,11,70,28,-56,49,48,-49,-41,-74,5,-38
-52,11,70,28,-56,49,48,-49,-41,-68,5,-38
-52,11,70,28,-56,49,48,-49,-41,-68,5,-38
-52,11,70,28,-56,49,48,-49,-41,-68,5,-38
-52,11,70,28,-56,49,48,-49,-41,-68,5,-38
-52,11,70,28,-56,49,48,-49,-41,-62,5,-38
-52,11,70,28,-56,49,48,-49,-41,-62,5,-38
-52,11,70,28,-56,49,48,-49,-41,-62,5,-38
-52,11,70,28,-56,49,48,-49,-41,-62,5,-38
-52,11,70,28,-56,49,48,-49,-41,-62,5,-38
-52,11,70,28,-56,49,48,-49,-41,-62,5,-38
-52,11,70,28,-56,49,48,-49,-41,-62,11,-38
-52,11,70,28,-56,49,48,-49,-41,-62,11,-38
-52,11,70,28,-56,49,48,-49,-41,-62,11,-38
-52,11,70,28,-56,49,48,-49,-41,-62,11,-38
-52,11,70,28,-56,49,48,-49,-41,-62,11,-38
-52,11,64,28,-56,49,48,-49,-41,-62,11,-38
-52,11,58,28,-56,49,48,-49,-41,-62,11,-38
-52,11,58,28,-56,49,48,-49,-41,-62,11,-38
-52,11,58,28,-56,49,48,-49,-41,-62,11,-38
-52,11,58,28,-56,49,48,-55,-41,-62,11,-38
-52,11,58,28,-56,49,48,-55,-41,-62,11,-38
-52,11,58,28,-56,49,48,-55,-41,-62,11,-38
-52,11,58,28,-56,49,48,-55,-41,-62,11,-38
-52,11,58,28,-56,49,48,-55,-41,-62,11,-38
-52,11,58,28,-56,49,48,-55,-41,-62,11,-38
-52,11,58,28,-56,49,48,-55,-41,-62,11,-38
-52,11,58,28,-56,49,48,-55,-41,-62,11,-38
-52,11,58,28,-56,49,48,-55,-41,-62,11,-38
-52,11,58,28,-56,49,48,-55,-41,-62,11,-38
-52,11,58,28,-56,49,48,-55,-41,-62,11,-38
-52,11,58,28,-56,49,48,-55,-41,-62,11,-38
-52,11,58,28,-56,49,48,-55,-41,-62,11,-38
-52,11,58,28,-56,49,48,-55,-41,-62,11,-38
-52,11,58,28,-56,49,48,-55,-41,-62,11,-38
-52,11,58,28,-56,49,48,-55,-41,-62,11,-38
-52,11,58,28,-56,49,48,-55,-41,-62,11,-38
-52,11,58,28,-56,49,48,-61,-41,-62,11,-38
-52,11,58,28,-56,49,48,-61,-41,-62,11,-38
-52,11,58,28,-56,49,48,-61,-41,-62,11,-38
-52,11,58,28,-56,49,48,-61,-41,-62,11,-38
-52,11,58,28,-56,49,48,-61,-41,-62,11,-38
-52,11,58,28,-56,49,48,-61,-41,-62,11,-38
-52,11,58,28,-56,49,48,-61,-41,-62,11,-38
-52,11,58,28,-56,49,48,-67,-41,-62,11,-38
-52,11,58,28,-56,49,48,-67,-41,-62,11,-38
-52,11,58,28,-56,49,48,-67,-41,-62,11,-38
-52,11,58,28,-56,49,48,-67,-41,-62,11,-38
-52,11,58,28,-56,49,48,-67,-41,-62,11,-38
-52,11,58,28,-56,49,48,-67,-41,-62,11,-38
-52,11,58,28,-56,49,48,-67,-41,-62,11,-38
-52,11,58,28,-56,49,48,-67,-41,-62,11,-38
-52,11,58,28,-56,49,48,-67,-41,-62,11,-38
-52,11,58,28,-56,49,48,-67,-41,-62,11,-38
-52,11,58,28,-56,49,48,-67,-41,-62,11,-38
-52,11,58,28,-56,49,48,-67,-41,-62,11,-38
-52,11,58,28,-56,49,48,-67,-41,-62,11,-38
-52,11,58,28,-56,49,48,-67,-41,-62,11,-38
-52,11,58,28,-56,49,48,-67,-41,-62,11,-38
-52,11,58,28,-56,49,48,-67,-41,-62,11,-38
-52,11,58,28,-56,49,48,-67,-41,-62,11,-38
-52,11,58,28,-56,49,48,-67,-41,-62,11,-38
-52,11,58,28,-56,49,48,-67,-41,-62,11,-38
-52,11,58,28,-56,49,48,-67,-41,-62,11,-38
-52,11,58,28,-56,49,48,-67,-41,-62,11,-38
-52,11,58,28,-56,49,48,-67,-41,-62,11,-38
-52,11,58,28,-56,49,48,-67,-41,-62,11,-38
-52,11,58,28,-56,49,48,-67,-41,-62,11,-38
-52,11,58,28,-56,49,48,-67,-41,-62,11,-38
-52,11,58,28,-56,49,48,-67,-41,-62,11,-38
-52,11,58,28,-56,49,48,-67,-41,-62,11,-38
-52,11,58,28,-56,49,48,-67,-41,-62,11,-38
-52,11,58,28,-56,49,48,-67,-41,-62,11,-38
-52,11,58,28,-56,49,48,-73,-41,-62,11,-38
-52,11,58,28,-56,49,48,-73,-41,-62,11,-38
-52,11,58,28,-56,49,48,-73,-41,-62,11,-38
-52,11,58,28,-56,49,48,-73,-41,-62,11,-38
-52,11,58,28,-56,49,48,-73,-41,-62,17,-38
-52,11,58,28,-56,49,48,-73,-41,-62,17,-38
-52,11,58,28,-56,49,48,-73,-41,-62,17,-38
-52,11,58,28,-56,49,48,-73,-41,-62,17,-38
-52,11,58,28,-56,49,48,-73,-41,-62,17,-38
-52,11,58,28,-56,49,48,-73,-41,-62,17,-38
-52,11,58,28,-56,49,48,-73,-41,-62,17,-38
-52,11,58,28,-56,49,48,-73,-41,-62,17,-38
-52,11,58,28,-56,49,48,-73,-41,-62,17,-38
-52,11,58,28,-56,49,48,-73,-41,-62,17,-38
-52,11,58,28,-56,49,48,-73,-41,-62,17,-38
-52,11,58,28,-56,49,48,-73,-41,-62,17,-38
-52,11,58,28,-56,49,48,-79,-41,-62,17,-38
-52,11,58,28,-56,49,48,-79,-41,-62,17,-38
-52,11,58,28,-56,49,48,-79,-41,-62,23,-38
-52,11,58,28,-56,49,48,-79,-41,-62,23,-38
-52,11,58,28,-56,49,48,-79,-41,-62,23,-38
-52,11,58,28,-56,49,48,-79,-41,-62,23,-38
-52,11,58,28,-56,49,48,-79,-41,-62,23,-38
-52,11,58,28,-56,49,48,-79,-41,-62,23,-38
-52,11,58,28,-56,49,48,-79,-41,-62,23,-38
-52,11,58,28,-56,49,48,-79,-41,-62,23,-38
-52,11,58,28,-56,49,48,-79,-41,-62,23,-38
-52,11,58,28,-56,49,48,-79,-41,-62,23,-38
-58,11,58,28,-56,49,48,-79,-41,-62,29,-38
-58,11,58,34,-56,49,48,-79,-41,-62,29,-38
-58,11,58,34,-56,49,48,-79,-41,-62,29,-38
-58,11,58,34,-56,49,48,-79,-41,-62,29,-38
-58,11,58,34,-56,49,48,-79,-41,-62,29,-38
-58,11,58,34,-56,49,48,-79,-41,-62,29,-38
-58,11,58,34,-56,49,48,-79,-41,-62,29,-38
-58,11,58,34,-56,49,48,-79,-41,-62,29,-38
-58,11,58,34,-56,49,48,-79,-41,-62,29,-38
-58,11,58,34,-56,49,48,-79,-41,-62,29,-38
-58,11,58,34,-56,49,48,-79,-41,-62,29,-38
-58,11,58,34,-56,49,48,-79,-41,-62,29,-38
-58,11,58,34,-56,49,48,-79,-41,-62,29,-38
-58,11,58,34,-56,49,48,-79,-41,-62,29,-38
-58,11,58,34,-56,49,48,-79,-41,-62,35,-38
-58,11,58,34,-56,49,48,-79,-41,-62,35,-38
-58,11,58,34,-56,49,48,-79,-41,-62,35,-38
-58,11,58,34,-56,49,48,-79,-41,-62,35,-38
-58,11,58,34,-56,49,48,-79,-35,-62,35,-38
-58,11,58,34,-56,49,48,-79,-35,-62,35,-38
-58,11,58,34,-56,49,48,-79,-35,-62,35,-38
-58,11,58,34,-56,49,54,-79,-35,-62,35,-38
-58,11,58,34,-56,49,54,-79,-35,-62,35,-38
-58,11,58,34,-56,49,54,-79,-35,-62,35,-38
-58,11,58,34,-56,49,54,-79,-29,-62,35,-38
-58,11,52,34,-56,49,54,-79,-29,-62,35,-38
-52,17,52,34,-56,49,60,-73,-23,-62,41,-38
-52,23,52,34,-56,49,66,-67,-11,-56,47,-38
-46,29,52,28,-56,49,72,-55,-5,-50,53,-38
-40,35,52,22,-56,49,72,-49,1,-44,59,-38
-40,41,58,22,-56,49,72,-43,6,-38,65,-32
-40,47,64,16,-56,55,78,-37,12,-26,71,-26
-40,47,64,16,-56,55,84,-31,18,-20,77,-20
-40,47,64,16,-56,55,84,-25,24,-14,77,-20
-34,47,64,10,-50,55,90,-19,30,-14,77,-14
-28,59,64,4,-44,55,90,-13,36,-14,83,-8
-22,65,64,-7,-38,55,90,-13,42,-8,83,-2
-16,71,64,-13,-32,55,90,-13,48,-8,89,-2
-10,77,64,-19,-32,61,90,-13,48,-2,95,3
-5,77,64,-19,-32,61,84,-13,48,-2,95,9
-5,77,64,-25,-26,61,84,-13,48,3,95,9
1,83,64,-31,-26,67,78,-13,48,9,101,15
7,95,64,-37,-20,73,72,-13,48,15,101,15
13,101,64,-43,-20,79,66,-13,48,15,107,15
13,101,64,-43,-20,79,60,-13,48,15,107,15
13,101,64,-43,-20,79,60,-13,48,15,107,15
13,101,64,-43,-20,79,60,-19,48,15,107,15
13,101,64,-43,-20,79,54,-25,48,15,107,15
13,101,64,-43,-20,79,54,-31,48,15,107,15
13,95,64,-43,-20,79,48,-37,42,9,107,15
13,89,64,-43,-20,73,48,-37,36,3,107,15
13,89,58,-43,-20,73,42,-37,30,3,101,15
13,83,58,-43,-20,73,42,-37,24,3,101,15
13,77,58,-37,-20,73,42,-43,24,-2,101,15
13,71,52,-31,-20,67,42,-49,24,-2,95,9
13,59,46,-25,-14,55,42,-55,24,-2,95,9
13,53,34,-25,-8,43,42,-61,18,-8,89,9
13,47,28,-25,-3,37,42,-61,18,-14,89,9
13,47,22,-19,-3,31,42,-61,18,-14,89,9
13,41,22,-13,-3,31,42,-61,18,-20,89,9
13,35,22,-13,-3,31,42,-61,12,-20,83,3
13,29,22,-13,-3,31,42,-61,6,-26,83,-2
13,29,22,-7,-3,31,42,-67,6,-26,71,-8
7,29,22,-7,-3,31,42,-67,6,-26,71,-8
-5,29,28,-1,-8,31,42,-67,6,-32,71,-8
-16,29,34,4,-20,31,42,-67,6,-32,71,-8
-28,29,40,10,-26,31,42,-67,6,-32,65,-8
-40,29,46,16,-32,31,42,-67,6,-32,65,-8
-46,29,52,22,-38,31,42,-67,1,-32,65,-14
-52,23,52,28,-44,31,42,-67,1,-32,65,-14
-58,23,52,28,-44,31,42,-67,-5,-32,59,-14
-64,17,52,28,-44,31,42,-67,-5,-38,59,-20
-70,11,52,34,-44,31,42,-67,-5,-44,53,-20
-70,11,52,40,-50,31,42,-67,-11,-44,47,-20
-70,5,52,46,-56,31,48,-67,-11,-44,47,-20
-70,5,52,46,-56,31,48,-67,-11,-44,47,-26
-76,5,52,46,-56,31,48,-67,-11,-44,47,-32
-76,5,52,46,-56,31,48,-67,-11,-44,47,-32
-76,5,52,46,-56,31,48,-67,-11,-44,41,-32
-76,5,52,46,-56,31,48,-67,-11,-44,41,-32
-76,5,52,46,-56,31,48,-67,-11,-44,41,-32
-76,5,52,46,-56,31,48,-67,-11,-44,41,-32
-76,5,52,46,-56,31,54,-67,-11,-44,41,-32
-76,5,52,46,-56,31,54,-67,-11,-44,41,-32
-76,5,58,52,-62,31,54,-67,-11,-44,41,-32
-76,5,58,52,-62,31,60,-67,-11,-44,41,-32
-76,5,58,52,-62,31,60,-67,-11,-44,41,-32
-76,5,58,52,-62,31,60,-67,-11,-44,41,-32
-82,5,58,52,-68,31,60,-67,-11,-44,35,-32
-88,5,58,52,-68,31,60,-67,-11,-44,35,-32
-88,5,58,52,-68,31,60,-67,-11,-44,35,-32
-88,5,58,52,-68,31,60,-67,-11,-44,35,-32
-88,5,58,52,-68,31,60,-67,-5,-44,35,-32
-88,5,64,52,-68,31,60,-67,1,-38,41,-26
-82,5,70,52,-68,37,60,-67,6,-32,47,-20
-76,11,70,52,-68,43,60,-55,18,-20,53,-20
-70,17,76,46,-68,49,60,-2,48,-8,65,-14
-64,29,76,40,-68,55,72,106,114,27,83,-2
-58,41,82,28,-68,67,84,208,186,75,113,9
-46,77,88,-1,-68,79,90,250,258,123,155,39
-34,107,94,-25,-68,91,84,256,288,165,185,69
-28,113,100,-37,-68,97,66,244,288,171,197,81
-28,119,100,-43,-68,103,24,118,264,171,197,81
-28,131,112,-49,-68,121,-53,-67,186,159,197,81
-16,173,142,-67,-68,163,-173,-241,132,159,209,105
19,275,202,-133,-68,247,-305,-367,114,225,305,201
97,419,268,-241,-68,349,-437,-433,120,387,455,327
187,575,328,-355,-68,457,-599,-499,156,549,611,471
277,719,370,-481,-62,547,-773,-583,192,741,791,639
373,887,436,-607,-56,661,-965,-661,228,909,977,813
457,1049,526,-739,-50,793,-1145,-745,288,1119,1199,1011
535,1205,574,-865,-44,895,-1313,-847,324,1299,1391,1185
649,1289,580,-973,3,931,-1493,-955,342,1467,1571,1353
787,1343,568,-1069,111,943,-1667,-1015,360,1641,1775,1521
919,1385,502,-1141,219,943,-1835,-1069,384,1815,1961,1665
1039,1433,436,-1231,321,943,-2003,-1099,420,2001,2158,1821
1183,1529,394,-1339,411,949,-2111,-1099,528,2234,2386,1995
1285,1583,340,-1405,471,955,-2195,-1093,606,2366,2523,2108
1333,1577,208,-1417,567,913,-2213,-1093,588,2330,2517,2108
1363,1457,22,-1411,669,745,-2219,-1129,390,2049,2350,2007
1375,1289,-157,-1363,765,577,-2219,-1183,198,1773,2122,1845
1393,1097,-367,-1285,879,367,-2207,-1201,36,1497,1913,1665
1423,857,-637,-1189,1029,109,-2111,-1201,-95,1215,1679,1467
1429,599,-889,-1051,1155,-148,-1973,-1159,-239,927,1415,1239
1429,335,-1093,-889,1233,-376,-1799,-1135,-407,603,1115,993
1387,101,-1249,-739,1275,-562,-1631,-1123,-581,279,815,723
1315,-108,-1381,-583,1317,-736,-1469,-1081,-701,15,539,489
1231,-270,-1459,-463,1323,-850,-1307,-1021,-761,-200,299,249
1117,-378,-1477,-361,1317,-904,-1151,-967,-785,-362,95,75
1003,-426,-1471,-265,1251,-922,-1007,-925,-797,-476,-66,-50
889,-456,-1423,-211,1143,-922,-893,-907,-809,-578,-186,-146
775,-474,-1321,-163,1053,-916,-803,-895,-815,-644,-276,-212
679,-486,-1219,-109,951,-880,-713,-871,-821,-686,-336,-260
583,-492,-1129,-61,861,-838,-617,-829,-815,-704,-366,-290
505,-492,-1009,-19,765,-772,-521,-757,-791,-704,-372,-302
415,-480,-865,10,651,-676,-425,-661,-701,-680,-372,-302
319,-426,-697,34,519,-550,-317,-541,-605,-602,-354,-302
217,-360,-529,52,375,-430,-215,-409,-491,-530,-318,-290
127,-306,-415,70,273,-358,-143,-319,-407,-464,-282,-266
67,-270,-319,82,201,-304,-77,-259,-335,-410,-252,-254
25,-240,-259,94,141,-250,-17,-199,-269,-380,-234,-242
-10,-216,-211,100,111,-214,30,-145,-221,-350,-210,-230
-40,-204,-169,106,75,-184,60,-109,-179,-320,-198,-218
-76,-198,-127,112,39,-154,102,-67,-137,-296,-186,-206
-94,-186,-91,118,15,-142,150,-25,-107,-266,-162,-194
-106,-180,-67,124,3,-124,186,16,-77,-242,-150,-182
-112,-168,-55,130,-14,-112,204,34,-65,-230,-138,-176
-124,-162,-43,136,-32,-100,216,46,-59,-224,-132,-170
-136,-156,-25,136,-50,-88,222,52,-47,-218,-126,-164
-148,-150,-13,142,-62,-76,228,58,-41,-212,-120,-164
-154,-144,-1,142,-74,-70,234,64,-29,-206,-120,-164
-160,-138,4,142,-80,-64,234,70,-17,-200,-114,-158
-166,-132,10,142,-86,-58,240,76,-5,-188,-108,-158
-166,-132,16,142,-86,-52,252,82,6,-176,-102,-158
-166,-132,22,142,-92,-52,264,82,12,-170,-102,-158
-172,-132,28,148,-98,-46,270,88,18,-170,-102,-158
-172,-132,34,148,-104,-40,276,88,18,-170,-102,-158
-172,-132,40,148,-104,-40,276,88,18,-170,-102,-158
-172,-132,40,148,-104,-40,276,94,18,-170,-102,-158
-178,-132,46,148,-110,-40,276,100,18,-164,-102,-158
-178,-132,52,148,-110,-40,276,100,24,-164,-102,-158
-178,-132,52,148,-110,-40,282,100,30,-164,-102,-158
-178,-126,52,148,-110,-40,282,100,36,-158,-102,-158
-178,-126,58,148,-110,-40,282,100,42,-152,-102,-158
-184,-126,58,148,-110,-40,282,100,48,-146,-102,-158
-184,-126,58,154,-116,-40,282,100,48,-146,-102,-158
-184,-126,58,154,-116,-40,288,106,54,-146,-102,-158
-184,-126,58,154,-116,-40,288,106,54,-146,-102,-158
-184,-126,58,154,-116,-40,288,106,54,-146,-102,-158
-190,-126,58,160,-116,-40,294,112,54,-146,-102,-158
-190,-126,58,160,-116,-40,300,112,54,-146,-102,-158
-190,-126,58,160,-116,-40,300,112,54,-146,-102,-158
-190,-126,58,160,-116,-40,300,112,54,-146,-102,-158
-190,-126,58,160,-116,-40,300,118,60,-146,-102,-158
-190,-126,58,160,-116,-40,300,118,66,-140,-102,-158
-190,-126,58,160,-116,-40,300,124,66,-140,-102,-158
-190,-126,58,160,-116,-40,300,130,66,-140,-102,-158
-190,-126,58,160,-116,-40,300,130,66,-140,-102,-158
-190,-126,58,160,-116,-40,300,130,66,-140,-102,-158
-190,-126,58,160,-116,-40,306,130,72,-140,-102,-158
-190,-126,58,160,-116,-40,312,136,72,-140,-102,-158
-190,-126,58,160,-116,-40,312,136,72,-140,-102,-158
-190,-126,58,160,-116,-40,318,136,72,-140,-102,-158
-190,-126,58,160,-116,-40,318,136,78,-140,-102,-158
-190,-126,58,160,-116,-40,318,136,84,-140,-102,-158
-190,-126,58,160,-116,-40,318,136,84,-140,-102,-158
-190,-126,58,160,-116,-40,318,142,84,-140,-102,-158
-190,-126,58,160,-116,-40,318,142,84,-140,-102,-158
-190,-126,58,160,-116,-40,324,148,84,-140,-102,-158
-190,-126,58,160,-116,-40,324,148,90,-140,-108,-158
-190,-126,58,160,-116,-40,324,148,90,-140,-114,-158
-190,-126,58,160,-116,-40,324,154,96,-140,-114,-158
-190,-126,58,160,-116,-40,324,160,96,-140,-114,-158
-190,-126,58,160,-116,-40,330,166,102,-140,-114,-158
-190,-126,58,160,-116,-40,330,166,102,-140,-114,-158
-190,-126,58,160,-116,-40,336,166,102,-140,-114,-158
-190,-126,58,160,-116,-40,336,172,102,-140,-114,-158
-190,-126,58,166,-116,-40,336,172,108,-140,-114,-158
-196,-132,58,166,-116,-40,336,172,114,-140,-114,-158
-196,-132,58,166,-116,-40,342,178,114,-140,-114,-158
-196,-132,58,166,-116,-40,348,184,120,-140,-114,-158
-196,-132,58,166,-116,-40,348,190,120,-140,-114,-158
-196,-132,52,166,-116,-40,348,190,120,-140,-114,-158
-196,-132,52,166,-116,-40,354,196,120,-140,-114,-158
-196,-132,52,166,-116,-40,360,202,126,-140,-114,-158
-196,-132,52,166,-116,-46,366,208,132,-140,-114,-158
-196,-132,52,166,-116,-46,366,214,132,-140,-114,-158
-196,-132,52,166,-116,-46,366,220,138,-140,-114,-158
-196,-138,52,166,-116,-46,372,226,144,-134,-114,-158
-196,-138,46,166,-116,-46,372,232,150,-128,-114,-158
-196,-138,40,166,-116,-52,378,232,156,-128,-114,-158
-196,-144,40,166,-116,-52,378,238,156,-128,-114,-158
-196,-144,40,166,-116,-52,378,244,162,-128,-114,-158
-196,-144,40,166,-116,-52,378,250,168,-122,-114,-158
-196,-144,40,166,-116,-52,378,256,174,-122,-114,-158
-196,-144,40,166,-116,-52,378,262,180,-116,-114,-158
-196,-144,40,166,-116,-52,384,268,186,-116,-114,-158
-196,-144,40,166,-116,-52,384,274,192,-116,-114,-158
-190,-144,40,166,-116,-52,384,280,198,-110,-114,-158
-190,-144,40,166,-116,-52,390,286,204,-104,-114,-158
-190,-144,40,166,-116,-52,390,292,210,-98,-114,-158
-184,-144,34,166,-116,-52,390,298,210,-98,-114,-158
-184,-144,34,166,-116,-52,390,304,216,-92,-114,-158
-178,-144,34,166,-116,-52,390,316,222,-92,-114,-158
-178,-144,28,166,-116,-52,396,322,228,-86,-108,-158
-178,-144,28,166,-110,-52,396,328,234,-80,-102,-158
-178,-144,28,166,-104,-52,402,334,240,-74,-102,-158
-178,-144,28,166,-104,-52,408,340,246,-68,-102,-158
-172,-144,28,166,-104,-52,408,346,252,-68,-96,-152
-166,-144,28,160,-98,-52,408,352,258,-62,-90,-146
-166,-144,22,160,-98,-52,408,364,264,-56,-90,-140
-166,-144,22,160,-98,-52,408,376,270,-50,-84,-140
-160,-144,22,160,-98,-52,408,388,282,-44,-78,-140
-154,-144,22,154,-92,-52,414,400,294,-38,-72,-134
-148,-144,16,154,-86,-52,414,406,306,-26,-66,-128
-148,-144,16,148,-86,-52,414,412,312,-20,-54,-128
-142,-144,16,148,-86,-52,414,418,318,-14,-48,-128
-136,-138,16,142,-86,-52,414,424,324,-2,-42,-122
-130,-132,16,136,-86,-52,414,436,330,9,-36,-116
-130,-126,16,136,-86,-52,414,442,336,15,-30,-110
-130,-126,16,136,-86,-52,420,448,342,21,-24,-104
-124,-120,16,130,-80,-52,420,460,354,33,-12,-98
-118,-114,16,118,-74,-52,420,466,366,45,0,-92
-112,-108,10,112,-68,-52,420,478,378,51,5,-86
-106,-102,4,106,-56,-52,420,484,384,57,11,-80
-100,-102,-7,106,-50,-52,420,490,390,63,17,-74
-94,-102,-13,100,-44,-52,420,496,402,75,23,-68
-88,-102,-19,100,-38,-52,420,502,408,87,35,-62
-82,-102,-25,94,-32,-52,420,508,420,99,47,-50
-76,-96,-25,88,-26,-52,420,514,432,111,59,-38
-70,-96,-25,82,-20,-52,420,520,438,123,71,-32
-58,-96,-25,76,-14,-52,414,526,444,135,83,-26
-46,-90,-31,70,-8,-52,414,532,456,141,95,-20
-34,-84,-37,58,-3,-52,408,538,462,147,101,-8
-28,-78,-37,52,3,-52,402,544,468,159,113,-2
-22,-72,-37,46,9,-52,396,550,474,171,125,3
-22,-66,-43,46,9,-52,390,550,480,183,131,9
-16,-66,-43,40,15,-52,384,550,486,195,143,21
-10,-60,-49,34,21,-52,378,550,492,207,155,33
1,-54,-55,22,27,-52,366,550,498,219,167,45
13,-48,-61,16,33,-52,360,550,498,225,179,57
25,-48,-67,10,45,-52,354,550,498,231,191,63
37,-42,-73,4,51,-52,342,550,498,237,197,69
43,-42,-79,-1,57,-52,336,550,498,243,203,75
49,-36,-85,-1,63,-52,324,544,498,249,209,81
55,-36,-91,-7,69,-52,312,532,498,255,215,87
61,-30,-97,-13,75,-52,300,520,498,261,221,93
67,-30,-103,-19,81,-52,288,514,498,273,233,105
73,-24,-103,-25,81,-52,276,508,498,285,245,117
79,-24,-103,-25,81,-52,264,496,498,291,257,129
85,-24,-103,-31,87,-52,252,484,498,297,263,135
97,-18,-103,-37,99,-52,234,472,498,297,269,141
103,-12,-103,-43,105,-52,216,460,492,303,275,147
109,-12,-103,-43,105,-52,204,448,492,303,275,153
109,-6,-103,-49,105,-52,192,424,492,303,281,153
115,-1,-103,-55,105,-52,180,406,480,303,281,159
115,5,-103,-55,105,-46,168,382,474,303,281,165
115,11,-103,-55,105,-46,156,364,462,303,281,165
115,17,-103,-55,105,-40,144,352,444,303,281,165
115,17,-103,-61,105,-40,132,334,432,303,281,165
115,17,-103,-61,105,-34,126,316,420,303,281,165
115,23,-103,-61,105,-28,120,292,408,297,281,165
115,23,-97,-61,99,-28,114,268,390,291,281,165
115,29,-91,-61,93,-22,108,250,378,285,281,165
109,35,-85,-61,87,-16,102,226,366,279,281,165
103,35,-73,-61,81,-10,96,208,342,267,281,165
97,41,-61,-61,75,-5,90,184,324,261,275,165
97,47,-49,-61,69,1,84,166,300,255,269,165
91,53,-37,-61,57,13,84,148,288,249,263,165
85,53,-19,-61,51,25,78,124,264,243,257,159
79,53,-7,-61,39,31,78,106,246,231,251,159
67,59,4,-61,33,37,78,88,228,219,239,153
55,65,16,-61,21,43,78,76,216,195,227,147
43,65,22,-61,9,49,78,64,204,177,215,141
31,65,28,-61,3,55,78,52,192,165,203,135
25,65,34,-55,-8,55,78,28,174,153,191,129
19,65,40,-49,-14,55,78,16,162,141,185,123
13,65,46,-49,-20,55,78,-2,138,135,173,117
7,65,52,-43,-26,61,78,-13,126,129,167,111
1,65,52,-37,-26,61,78,-25,114,123,161,105
-5,65,52,-31,-32,61,78,-37,96,111,155,99
-10,65,58,-25,-38,61,78,-49,84,105,149,93
-16,65,64,-25,-44,61,78,-55,78,93,143,87
-22,65,64,-25,-50,61,78,-61,66,81,137,81
-28,65,70,-25,-56,61,78,-67,60,69,131,81
-28,65,70,-25,-56,61,78,-73,54,63,125,75
-28,65,70,-25,-56,61,78,-79,48,57,119,75
-28,65,70,-19,-56,61,78,-85,36,51,113,69
-34,59,70,-13,-56,61,78,-91,30,45,107,63
-40,53,70,-7,-56,61,78,-97,24,39,101,57
-40,53,70,-1,-56,61,78,-103,18,33,101,51
-40,53,70,-1,-56,61,78,-109,12,33,101,51
-40,53,70,-1,-56,61,78,-109,6,33,101,51
-40,47,70,-1,-56,61,78,-115,6,33,101,51
-40,47,70,-1,-62,61,78,-115,6,33,101,51
-46,47,70,-1,-62,61,78,-121,1,27,101,45
-46,41,70,-1,-62,61,78,-121,-5,21,95,45
-46,41,70,-1,-62,61,78,-121,-5,21,89,45
-46,41,70,-1,-62,61,78,-121,-11,15,89,45
-46,41,70,-1,-62,61,78,-121,-11,15,83,39
-52,35,70,4,-62,61,78,-121,-11,9,83,33
-58,35,70,10,-62,61,78,-121,-11,3,77,33
-58,35,70,10,-62,61,78,-121,-11,-2,77,33
-58,35,70,10,-62,61,78,-121,-11,-8,77,33
-58,29,70,16,-62,55,78,-121,-17,-14,71,27
-58,23,70,22,-62,55,78,-121,-23,-20,65,21
-58,17,70,22,-62,55,78,-121,-23,-26,65,21
-58,11,70,22,-62,55,84,-121,-23,-26,65,21
-58,11,70,28,-62,55,84,-121,-23,-32,65,21
-64,11,70,34,-62,55,84,-121,-23,-32,65,15
-64,11,70,34,-62,55,84,-121,-23,-38,59,15
-64,11,70,34,-62,55,84,-121,-23,-38,59,15
-64,11,70,34,-62,55,90,-121,-23,-44,59,15
-70,5,70,40,-62,55,90,-121,-29,-50,59,15
-70,5,70,40,-62,55,90,-121,-29,-50,59,15
-70,5,70,40,-62,55,90,-121,-29,-50,53,15
-70,5,70,40,-62,55,90,-121,-29,-50,53,15
-70,5,70,40,-62,55,90,-121,-29,-50,53,9
-70,5,70,40,-62,55,96,-121,-29,-50,53,3
-70,5,70,40,-62,55,102,-121,-29,-50,53,3
-70,5,70,40,-62,55,102,-121,-29,-50,53,-2
-70,5,70,40,-62,55,102,-115,-29,-50,53,-2
-70,5,70,40,-62,55,102,-115,-29,-50,53,-2
-76,5,70,40,-62,55,102,-115,-35,-50,53,-2
-76,5,70,40,-62,55,102,-115,-35,-50,53,-2
-76,5,70,40,-62,55,102,-115,-35,-50,53,-2
-76,5,70,40,-62,55,102,-109,-35,-50,53,-2
-76,5,70,40,-62,55,102,-103,-35,-50,47,-8
-76,5,70,40,-62,55,102,-103,-35,-50,47,-8
-76,5,70,40,-62,55,102,-97,-35,-50,47,-8
-76,5,70,40,-62,55,108,-97,-35,-50,47,-14
-76,5,70,40,-68,55,114,-97,-35,-50,47,-14
-76,5,70,40,-74,55,114,-91,-35,-50,47,-14
-76,5,70,40,-74,55,120,-91,-35,-50,47,-14
-82,5,70,40,-74,55,120,-91,-35,-50,47,-14
-82,5,70,40,-74,55,120,-85,-35,-50,47,-14
-82,5,70,40,-74,55,120,-85,-35,-50,47,-14
-82,5,70,40,-74,55,120,-79,-35,-50,47,-14
-82,5,70,40,-74,55,126,-79,-35,-50,47,-14
-82,5,70,40,-74,55,126,-79,-29,-50,47,-14
-82,5,70,40,-74,55,126,-79,-23,-50,47,-14
-82,5,70,40,-74,55,126,-79,-23,-50,47,-14
-82,5,70,40,-74,55,126,-79,-23,-44,47,-14
-82,5,70,40,-74,55,126,-73,-17,-44,47,-14
-82,5,70,40,-74,55,126,-67,-17,-44,47,-14
-82,5,70,40,-74,55,126,-61,-17,-44,47,-14
-82,5,70,40,-74,55,126,-61,-17,-44,47,-14
-82,5,70,40,-74,55,126,-61,-11,-38,47,-14
-82,5,70,40,-74,55,126,-61,-11,-38,47,-14
-82,5,70,40,-74,55,126,-61,-11,-38,47,-14
-82,5,70,40,-74,55,126,-61,-11,-38,53,-14
-82,5,70,40,-74,55,126,-61,-11,-32,53,-14
-82,5,70,40,-74,55,126,-61,-11,-26,53,-14
-82,5,70,40,-74,55,126,-61,-5,-26,53,-14
-82,5,70,40,-74,55,126,-61,-5,-26,53,-14
-82,5,70,40,-74,55,126,-61,-5,-26,53,-14
-82,5,70,40,-74,55,126,-61,-5,-26,53,-14
-82,5,76,40,-74,55,126,-61,-5,-26,59,-14
-82,5,76,40,-74,55,126,-61,-5,-26,59,-14
-82,5,76,40,-74,55,126,-61,-5,-26,59,-14
-82,5,76,40,-74,55,126,-61,-5,-26,59,-14
-82,5,76,40,-74,55,126,-61,-5,-26,59,-14
-82,5,76,40,-74,55,126,-61,-5,-26,59,-14
-82,5,76,40,-74,55,126,-61,-5,-26,59,-14
-82,5,76,40,-74,55,126,-61,-5,-26,59,-14
-82,5,76,40,-74,55,126,-61,-5,-26,59,-14
-82,5,76,40,-74,55,126,-61,-5,-26,59,-14
-82,5,76,40,-74,55,126,-61,-5,-26,59,-14
-82,5,76,40,-74,55,126,-61,-5,-26,59,-14
-82,5,76,40,-74,55,126,-61,-5,-26,59,-14
-82,5,76,40,-74,55,126,-61,-5,-26,59,-14
-82,5,76,40,-74,55,126,-61,-5,-26,59,-14
-82,5,76,40,-74,55,126,-61,-5,-26,59,-14
-82,5,76,40,-74,55,126,-61,-5,-26,59,-14
-82,5,76,40,-74,55,126,-61,-5,-26,59,-14
-82,5,76,40,-74,55,126,-61,-5,-26,59,-14
-82,5,76,40,-74,55,126,-61,-11,-26,59,-14
-82,5,76,40,-74,55,126,-61,-11,-26,59,-14
-82,5,76,40,-74,55,126,-61,-11,-26,59,-14
-82,5,76,40,-74,55,126,-61,-11,-26,59,-14
-82,5,76,40,-80,55,126,-61,-11,-26,59,-14
-82,5,76,40,-80,55,126,-61,-11,-26,59,-14
-82,11,76,40,-80,55,126,-61,-11,-26,59,-14
-82,11,76,40,-80,55,126,-61,-11,-26,59,-14
-82,11,76,40,-80,55,126,-61,-11,-26,59,-14
-82,11,76,40,-80,55,126,-61,-11,-26,59,-14
-82,11,76,40,-80,55,126,-61,-17,-26,59,-14
-82,11,76,40,-80,55,126,-61,-17,-26,59,-14
-82,11,76,40,-80,55,126,-61,-17,-26,59,-14
-82,11,76,40,-80,55,126,-61,-17,-26,59,-14
-82,11,76,40,-80,55,126,-61,-17,-26,59,-14
-82,11,76,40,-80,55,126,-61,-17,-26,59,-14
-82,11,76,40,-80,55,126,-61,-17,-26,59,-14
-82,17,76,40,-80,55,126,-61,-17,-26,59,-14
-82,17,76,40,-80,55,126,-61,-17,-26,59,-14
-82,17,76,40,-80,55,126,-61,-23,-26,59,-14
-82,17,76,40,-80,55,126,-61,-23,-26,59,-14
-82,17,76,40,-80,55,126,-61,-23,-26,59,-14
-82,17,76,40,-80,55,126,-61,-23,-26,59,-14
-82,17,76,40,-80,55,126,-61,-23,-32,59,-14
-82,17,76,40,-80,55,126,-61,-23,-32,59,-14
-82,17,76,40,-80,49,126,-61,-23,-32,59,-14
-82,17,76,40,-80,49,126,-61,-23,-32,59,-14
-82,17,76,40,-80,49,126,-61,-29,-32,59,-14
-82,17,76,40,-80,49,126,-61,-29,-32,59,-14
-82,17,76,40,-80,49,126,-61,-29,-32,59,-14
-82,17,76,40,-80,49,126,-61,-29,-32,59,-14
-82,17,76,40,-80,49,126,-61,-29,-32,59,-14
-82,17,76,40,-80,49,126,-61,-29,-32,59,-14
-82,17,76,40,-80,49,126,-61,-29,-32,59,-14
-82,17,76,40,-80,49,126,-61,-29,-32,59,-14
-82,17,76,40,-80,49,126,-61,-29,-32,53,-14
-82,17,76,40,-80,49,126,-61,-29,-32,53,-14
-82,17,76,40,-80,49,126,-61,-29,-32,53,-14
-82,17,76,40,-80,49,126,-61,-29,-32,53,-14
-82,17,76,40,-80,49,126,-61,-29,-32,53,-14
-82,17,76,40,-80,49,126,-61,-29,-32,53,-14
-82,17,76,40,-80,49,126,-61,-29,-32,53,-14
-82,17,76,40,-86,49,126,-67,-29,-32,53,-14
-82,17,76,40,-86,49,126,-67,-35,-32,53,-14
-82,17,82,40,-86,49,126,-67,-35,-32,53,-14
-82,17,82,40,-86,49,126,-67,-35,-32,53,-14
-82,17,82,40,-86,49,126,-67,-35,-32,53,-14
-82,17,82,40,-86,49,126,-67,-35,-32,53,-14
-82,17,82,40,-86,49,126,-67,-35,-32,53,-14
-82,17,82,40,-86,49,126,-67,-35,-32,53,-14
-82,17,82,40,-86,49,120,-67,-35,-32,53,-14
-82,17,82,40,-86,49,120,-67,-35,-32,53,-14
-82,17,82,40,-86,49,120,-67,-35,-32,53,-14
-82,17,82,40,-86,49,120,-67,-35,-32,53,-14
-82,17,82,40,-86,49,120,-67,-35,-32,53,-14
-82,17,82,40,-86,49,120,-67,-35,-32,53,-14
-82,17,82,40,-86,49,120,-67,-35,-32,53,-14
-82,17,82,40,-86,49,120,-67,-35,-32,53,-14
-82,17,82,40,-86,49,120,-67,-35,-32,53,-14
-82,17,82,40,-86,49,120,-67,-35,-32,53,-14
-82,17,82,40,-86,49,120,-67,-35,-32,53,-14
-82,17,82,40,-86,49,120,-67,-35,-32,53,-14
-82,17,82,40,-86,49,120,-67,-35,-32,53,-14
-82,17,82,40,-86,49,120,-67,-35,-32,53,-14
-82,17,82,40,-86,49,120,-67,-35,-32,53,-14
-82,17,82,40,-86,49,120,-67,-35,-32,53,-14
-82,17,82,40,-86,49,120,-67,-35,-32,53,-14
-82,17,82,40,-86,49,120,-67,-35,-32,53,-14
-82,17,82,40,-86,49,120,-67,-35,-32,53,-14
-82,17,82,40,-86,49,120,-67,-35,-32,53,-14
-82,17,82,40,-86,49,120,-67,-35,-32,53,-14
-82,17,82,40,-86,49,120,-67,-35,-32,53,-20
-82,17,82,40,-86,49,120,-67,-35,-32,53,-20
-82,17,82,40,-86,49,120,-67,-35,-32,53,-20
-82,17,82,40,-86,49,120,-67,-35,-32,53,-20
-82,17,82,40,-86,49,120,-67,-35,-32,53,-20
-82,17,82,40,-86,49,120,-67,-35,-38,53,-20
-82,17,82,40,-86,49,120,-67,-35,-38,53,-20
-82,17,82,40,-86,49,120,-67,-35,-38,53,-20
-82,17,82,40,-86,49,120,-67,-35,-38,53,-20
-82,17,82,40,-86,49,120,-67,-35,-38,53,-20
-82,17,82,40,-86,49,120,-67,-35,-38,53,-20
-82,17,82,40,-86,49,120,-67,-35,-38,53,-20
-82,17,82,40,-86,49,120,-67,-35,-38,53,-20
-82,17,82,40,-86,49,120,-67,-35,-38,53,-20
-82,17,82,40,-86,49,120,-67,-35,-38,53,-20
-82,17,82,40,-86,49,120,-67,-35,-38,53,-20
-82,17,82,40,-86,49,120,-67,-35,-38,53,-26
-82,17,82,40,-86,49,120,-67,-35,-38,53,-26
-82,17,82,40,-86,49,120,-67,-35,-38,53,-26
-82,17,82,40,-86,49,120,-67,-35,-38,53,-26
-82,17,82,40,-86,49,120,-67,-35,-38,53,-26
-82,17,82,40,-86,49,120,-67,-35,-38,53,-26
-82,17,82,40,-86,49,120,-67,-35,-38,53,-26
-82,17,82,40,-86,49,120,-67,-35,-38,53,-26
-82,17,82,40,-86,49,120,-67,-35,-38,53,-26
-82,17,82,40,-86,49,120,-67,-35,-38,53,-26
-82,17,82,40,-86,49,120,-61,-35,-38,53,-26
-82,17,82,40,-86,49,120,-55,-35,-38,53,-26
-82,23,82,40,-86,49,126,-49,-29,-38,53,-26
-82,29,88,40,-86,49,132,-43,-23,-32,53,-26
-82,35,88,34,-86,49,132,-31,-17,-26,59,-26
-76,47,88,28,-86,55,132,-25,-11,-20,59,-20
-76,53,88,22,-86,55,138,-19,-5,-14,65,-20
-70,59,88,22,-86,55,138,-13,1,-14,65,-20
-64,65,88,22,-86,55,138,-7,1,-14,65,-20
-52,71,88,16,-86,61,138,-2,1,-8,65,-14
-46,77,88,10,-80,67,138,-2,1,-8,71,-8
-40,83,88,4,-74,67,138,-2,6,-2,71,-2
-34,83,88,-1,-74,67,132,-2,6,-2,77,3
-28,89,88,-7,-74,67,126,-2,6,-2,83,9
-28,89,88,-13,-68,73,120,-2,6,3,89,9
-22,89,88,-19,-68,73,114,-2,6,9,89,15
-22,89,88,-25,-68,73,108,-2,6,9,89,21
-22,89,88,-25,-68,79,102,-2,6,9,95,21
-22,95,88,-25,-68,79,102,-2,6,9,95,21
-22,95,88,-25,-68,79,102,-2,6,9,101,21
-22,95,88,-25,-68,79,96,-2,6,9,101,21
-22,95,88,-25,-68,79,96,-7,6,9,101,21
-22,95,88,-25,-68,79,96,-13,1,9,101,21
-22,95,88,-25,-68,79,96,-19,1,9,101,21
-22,95,88,-25,-68,73,90,-25,-5,3,95,21
-22,89,88,-25,-68,73,84,-31,-11,-2,89,21
-22,83,88,-25,-68,73,84,-31,-11,-2,89,21
-22,83,88,-25,-68,73,84,-31,-11,-2,83,21
-22,77,82,-25,-62,67,84,-31,-17,-2,83,21
-16,71,70,-25,-56,61,84,-31,-23,-8,83,21
-16,71,64,-25,-50,55,78,-31,-29,-8,77,15
-16,71,58,-25,-44,49,72,-37,-35,-8,77,15
-16,71,58,-25,-44,49,72,-37,-35,-8,77,15
-16,71,58,-19,-44,49,72,-37,-35,-14,77,15
-16,65,58,-19,-44,43,72,-37,-35,-14,77,15
-16,59,58,-13,-44,43,72,-37,-35,-14,71,9
-16,53,58,-13,-44,43,72,-43,-35,-20,65,9
-22,47,58,-7,-50,43,72,-43,-35,-20,59,3
-34,47,58,4,-56,43,78,-43,-41,-26,53,-2
-40,41,64,10,-62,43,78,-43,-41,-32,53,-2
-46,41,70,16,-68,43,78,-49,-41,-32,47,-2
-52,41,70,22,-68,43,78,-49,-47,-38,41,-8
-58,41,70,28,-74,43,78,-49,-53,-38,41,-14
-64,41,76,34,-80,43,78,-49,-53,-44,41,-14
-70,41,82,34,-80,43,84,-49,-53,-44,41,-14
-70,35,82,34,-80,43,84,-55,-59,-44,41,-20
-70,29,82,40,-80,43,84,-55,-59,-50,35,-20
-70,29,82,40,-80,43,84,-55,-65,-50,29,-20
-76,29,82,40,-80,43,84,-55,-65,-50,29,-20
-76,29,82,40,-80,43,90,-55,-65,-50,29,-20
-76,29,82,40,-80,43,90,-55,-65,-50,29,-20
-76,29,82,40,-80,43,90,-55,-65,-50,29,-20
-82,29,82,40,-80,43,90,-61,-65,-50,29,-26
-82,29,82,40,-86,43,90,-61,-65,-50,29,-26
-82,29,82,40,-86,43,90,-61,-65,-50,29,-26
-82,29,82,40,-86,43,90,-61,-65,-50,29,-26
-82,29,82,40,-86,43,90,-61,-65,-50,29,-26
-88,29,82,40,-86,43,90,-61,-65,-56,29,-26
-88,29,82,46,-86,43,96,-61,-65,-56,29,-26
-88,29,82,46,-86,43,96,-61,-65,-56,35,-26
-88,29,88,46,-92,43,96,-61,-71,-56,35,-26
-88,29,88,46,-92,43,96,-61,-71,-62,35,-32
-88,29,88,46,-92,43,96,-61,-71,-62,35,-32
-88,29,88,46,-92,43,96,-61,-71,-62,35,-32
-88,29,88,46,-92,43,96,-61,-71,-62,41,-32
-88,29,88,46,-92,43,96,-61,-71,-62,47,-32
-88,29,88,46,-92,43,96,-61,-71,-62,59,-32
-88,29,88,46,-92,49,96,-61,-65,-56,71,-32
-88,29,88,46,-92,55,96,-55,-59,-50,77,-32
-88,29,88,46,-92,55,96,-43,-47,-44,89,-32
-82,29,88,46,-92,55,96,22,-11,-26,101,-26
-76,35,94,40,-92,61,102,130,60,3,113,-14
-64,47,100,28,-92,67,114,238,150,57,155,9
-58,83,106,4,-92,79,114,280,204,111,191,39
-46,113,118,-7,-92,91,108,280,234,153,227,63
-40,131,124,-25,-92,103,84,262,234,159,239,75
-34,137,130,-37,-92,115,36,118,192,153,239,75
-28,155,142,-49,-92,133,-65,-79,84,141,239,81
-16,203,184,-85,-92,187,-185,-259,24,141,251,105
25,317,238,-151,-98,277,-323,-409,6,201,347,189
79,455,322,-253,-104,385,-455,-487,6,357,479,321
157,599,394,-361,-104,493,-593,-559,30,531,641,465
247,755,448,-481,-104,589,-773,-649,66,699,809,627
331,923,526,-607,-104,709,-953,-739,108,897,1007,807
397,1109,640,-733,-104,865,-1127,-829,150,1089,1223,999
475,1265,706,-859,-104,961,-1319,-943,180,1275,1421,1191
589,1361,718,-967,-92,1015,-1499,-1051,192,1449,1619,1359
709,1427,718,-1069,-26,1039,-1679,-1111,204,1635,1817,1521
829,1475,682,-1153,75,1051,-1847,-1183,216,1815,2009,1677
955,1547,640,-1237,153,1057,-1997,-1225,258,2007,2224,1845
1081,1637,610,-1339,231,1069,-2117,-1225,378,2264,2451,2037
1165,1679,574,-1393,297,1081,-2165,-1213,462,2402,2601,2156
1207,1667,448,-1399,375,1051,-2195,-1213,450,2390,2601,2156
1237,1535,244,-1387,489,865,-2201,-1213,312,2156,2493,2096
1261,1379,46,-1345,603,697,-2201,-1219,174,1941,2326,1959
1291,1193,-175,-1279,729,493,-2177,-1219,60,1713,2146,1815
1321,947,-451,-1183,879,235,-2075,-1171,-41,1467,1937,1629
1339,677,-727,-1051,1023,-40,-1925,-1063,-155,1191,1703,1407
1339,401,-949,-889,1119,-286,-1751,-1009,-317,861,1403,1155
1321,149,-1123,-733,1161,-496,-1577,-967,-491,525,1073,879
1261,-72,-1267,-571,1209,-694,-1409,-925,-623,225,773,639
1177,-246,-1363,-445,1227,-820,-1241,-871,-689,-26,509,399
1063,-360,-1387,-343,1227,-880,-1073,-829,-737,-224,281,207
955,-426,-1387,-247,1191,-898,-941,-799,-767,-386,95,63
841,-456,-1363,-187,1101,-904,-827,-781,-797,-494,-36,-44
763,-468,-1297,-145,1023,-898,-749,-775,-815,-566,-132,-110
673,-474,-1201,-103,927,-874,-671,-763,-821,-608,-192,-176
577,-480,-1099,-61,825,-826,-581,-727,-821,-632,-228,-218
493,-480,-991,-19,735,-772,-491,-661,-809,-632,-240,-236
409,-474,-859,10,627,-688,-395,-577,-755,-626,-240,-242
319,-438,-691,34,501,-580,-287,-463,-653,-584,-240,-242
229,-378,-547,58,381,-478,-173,-343,-545,-518,-228,-242
151,-336,-433,70,285,-400,-89,-259,-455,-464,-216,-236
91,-300,-355,82,231,-346,-29,-187,-395,-422,-192,-230
31,-270,-289,94,171,-292,24,-127,-335,-386,-174,-224
-5,-246,-241,106,123,-250,66,-85,-293,-356,-144,-212
-34,-228,-199,112,87,-220,96,-49,-257,-326,-126,-200
-52,-216,-163,118,57,-196,132,-13,-221,-302,-114,-188
-64,-204,-133,124,27,-172,174,28,-179,-272,-102,-182
-76,-192,-103,130,3,-160,210,70,-149,-242,-90,-176
-88,-186,-79,136,-8,-148,240,88,-131,-230,-84,-170
-100,-180,-67,142,-20,-136,252,100,-125,-224,-78,-170
-112,-180,-55,148,-32,-130,258,106,-119,-218,-72,-170
-118,-174,-49,148,-38,-124,264,112,-113,-212,-72,-164
-124,-168,-43,148,-44,-118,270,124,-107,-206,-72,-164
-130,-162,-37,148,-50,-112,276,130,-95,-200,-66,-164
-136,-162,-25,148,-56,-106,282,142,-89,-194,-60,-158
-142,-156,-19,148,-62,-100,288,148,-83,-188,-54,-152
-148,-156,-13,148,-68,-94,294,154,-77,-182,-54,-152
-154,-156,-7,148,-74,-94,300,160,-71,-176,-54,-152
-154,-156,-1,148,-80,-88,306,160,-65,-170,-54,-152
-154,-156,4,154,-86,-88,312,160,-65,-164,-54,-152
-154,-156,4,154,-86,-82,318,160,-59,-158,-54,-152
-160,-156,4,154,-86,-82,324,166,-59,-158,-54,-152
-160,-156,4,154,-86,-82,324,172,-53,-152,-54,-152
-160,-156,4,154,-86,-82,330,172,-47,-152,-54,-152
-160,-156,4,154,-86,-82,330,178,-47,-146,-54,-152
-160,-156,4,154,-86,-82,330,178,-41,-140,-54,-152
-160,-156,4,154,-86,-82,330,178,-41,-140,-54,-152
-160,-156,4,154,-86,-82,330,178,-35,-140,-54,-152
-160,-156,4,160,-92,-82,336,178,-35,-140,-54,-152
-160,-156,4,160,-92,-82,336,178,-35,-140,-54,-152
-160,-156,4,160,-92,-82,336,184,-29,-140,-54,-152
-160,-156,4,160,-92,-82,336,184,-29,-140,-54,-152
-160,-156,4,160,-92,-82,336,184,-29,-140,-54,-152
-160,-156,4,160,-92,-82,336,184,-23,-140,-54,-152
-160,-156,4,160,-92,-82,336,190,-23,-140,-54,-152
-160,-156,4,160,-92,-82,342,190,-23,-140,-54,-152
-160,-156,4,160,-92,-82,342,196,-17,-140,-54,-152
-160,-156,4,160,-92,-82,342,196,-17,-140,-54,-152
-160,-156,4,160,-92,-82,342,196,-17,-140,-54,-152
-160,-156,4,160,-92,-82,342,196,-17,-140,-54,-152
-160,-156,4,160,-92,-82,342,196,-17,-140,-54,-152
-160,-156,4,160,-92,-82,342,202,-11,-140,-54,-152
-160,-156,4,160,-92,-82,348,202,-5,-140,-54,-152
-160,-156,4,160,-92,-82,354,202,1,-140,-54,-152
-160,-156,4,160,-92,-82,354,202,1,-140,-54,-152
-160,-156,4,160,-92,-82,354,202,1,-140,-54,-152
-160,-156,4,160,-92,-82,360,208,1,-140,-54,-152
-160,-156,4,160,-92,-82,360,214,1,-140,-54,-152
-160,-156,4,160,-92,-82,360,220,1,-140,-54,-152
-160,-156,4,160,-92,-82,360,220,6,-140,-54,-152
-160,-156,4,160,-92,-82,366,226,6,-140,-54,-152
-160,-156,4,160,-92,-82,372,226,6,-140,-54,-152
-166,-156,4,166,-92,-82,372,226,6,-140,-54,-152
-166,-156,4,172,-92,-82,372,226,12,-140,-54,-152
-166,-156,4,172,-92,-82,378,232,18,-140,-54,-152
-166,-156,4,172,-92,-82,378,238,18,-140,-54,-152
-166,-156,4,172,-92,-82,384,244,18,-140,-54,-152
-166,-156,4,172,-92,-88,384,250,18,-140,-54,-152
-166,-156,4,172,-92,-88,390,256,24,-140,-54,-152
-166,-156,-1,172,-92,-88,390,256,24,-140,-54,-152
-166,-156,-7,172,-92,-88,396,262,30,-140,-54,-152
-166,-156,-13,172,-92,-88,396,268,36,-140,-54,-152
-166,-156,-13,172,-92,-94,396,268,42,-140,-54,-152
-166,-156,-13,172,-92,-94,396,268,42,-140,-54,-152
-166,-156,-13,172,-92,-94,396,268,42,-140,-54,-152
-166,-156,-13,172,-92,-94,396,274,42,-140,-54,-152
-166,-156,-13,172,-92,-94,396,280,42,-140,-54,-152
-166,-156,-13,172,-92,-94,402,286,48,-134,-54,-152
-166,-156,-13,172,-92,-94,408,292,54,-134,-54,-152
-166,-156,-13,172,-92,-94,414,298,60,-134,-54,-152
-166,-156,-13,172,-92,-94,420,304,60,-134,-54,-152
-166,-156,-19,172,-92,-100,420,310,66,-128,-54,-152
-166,-156,-25,172,-92,-100,426,316,72,-128,-54,-152
-166,-162,-25,172,-92,-100,426,322,78,-128,-54,-152
-166,-162,-25,172,-92,-100,426,328,78,-128,-54,-152
-166,-162,-25,172,-92,-100,426,334,84,-128,-54,-152
-166,-162,-25,172,-86,-100,426,340,90,-128,-54,-152
-166,-162,-25,172,-86,-100,432,346,96,-128,-54,-152
-166,-162,-25,172,-86,-100,432,352,102,-128,-54,-152
-166,-162,-25,172,-80,-106,432,358,108,-122,-54,-152
-166,-162,-25,172,-74,-106,438,364,108,-116,-54,-152
-166,-162,-25,172,-74,-106,444,370,114,-116,-54,-152
-166,-162,-25,172,-74,-106,450,376,120,-110,-48,-152
-160,-162,-25,172,-74,-106,450,382,126,-104,-48,-146
-154,-162,-25,172,-74,-106,450,388,132,-98,-48,-146
-154,-162,-31,172,-74,-106,450,394,138,-98,-48,-146
-148,-162,-31,172,-74,-106,456,406,144,-92,-48,-146
-142,-162,-31,172,-68,-106,456,418,150,-86,-42,-140
-142,-162,-31,172,-68,-106,456,424,156,-80,-36,-140
-142,-162,-31,172,-68,-106,456,430,156,-74,-30,-134
-142,-162,-31,172,-68,-106,456,442,162,-68,-24,-134
-142,-162,-31,166,-62,-106,462,448,168,-62,-24,-128
-136,-162,-37,166,-56,-106,462,454,174,-56,-24,-122
-136,-162,-43,160,-50,-106,468,460,186,-50,-18,-116
-130,-162,-43,160,-50,-106,468,466,192,-44,-18,-116
-124,-162,-43,160,-50,-106,468,478,198,-38,-12,-116
-118,-162,-43,154,-44,-106,474,484,210,-32,-6,-110
-112,-156,-49,148,-38,-106,474,496,216,-26,0,-104
-112,-156,-49,142,-38,-106,474,508,228,-14,5,-104
-106,-156,-49,142,-38,-106,474,514,234,-2,11,-98
-100,-150,-49,136,-32,-106,474,526,246,3,17,-92
-94,-144,-49,130,-32,-106,474,532,252,9,23,-86
-88,-144,-49,130,-26,-106,474,538,264,21,29,-80
-82,-144,-55,124,-26,-106,474,544,270,33,41,-74
-76,-144,-55,118,-20,-106,474,550,282,45,53,-68
-70,-144,-61,112,-14,-106,474,556,288,57,59,-62
-64,-144,-61,112,-8,-106,474,562,294,63,65,-56
-58,-144,-67,106,-3,-106,474,568,306,69,77,-50
-52,-138,-67,100,-3,-106,474,580,312,81,89,-44
-46,-132,-73,94,3,-106,474,586,324,93,101,-32
-40,-126,-73,88,9,-106,474,598,336,105,113,-20
-34,-120,-73,82,9,-106,474,604,342,117,125,-8
-28,-114,-73,76,15,-106,474,610,348,123,131,3
-22,-108,-73,76,21,-106,468,610,354,135,137,9
-10,-102,-79,70,27,-106,462,616,366,147,143,15
-5,-96,-85,64,33,-106,462,622,372,159,155,21
7,-96,-91,58,39,-106,456,622,378,165,161,27
19,-90,-97,52,45,-106,444,622,384,171,173,33
25,-90,-97,46,51,-106,438,622,390,183,185,39
31,-90,-103,40,57,-106,432,628,396,195,197,51
37,-90,-109,34,63,-106,426,628,402,201,209,57
43,-90,-115,28,69,-106,420,628,402,207,215,63
49,-84,-121,22,75,-106,414,628,408,219,227,75
61,-78,-127,16,81,-106,402,628,414,231,239,87
73,-72,-133,10,93,-106,390,628,414,243,245,99
79,-66,-133,4,99,-106,378,628,414,255,257,105
85,-60,-139,-1,105,-106,372,622,414,261,263,117
91,-60,-139,-7,111,-106,354,616,414,267,269,123
97,-54,-145,-13,117,-106,342,610,414,273,275,129
103,-48,-151,-19,123,-106,330,604,414,279,281,141
109,-48,-151,-31,129,-106,318,598,414,285,293,147
121,-42,-151,-37,135,-106,306,586,414,285,299,153
127,-42,-157,-43,141,-106,288,568,414,291,305,159
133,-42,-157,-43,141,-106,276,556,414,291,311,165
139,-42,-157,-43,141,-106,264,538,408,297,317,171
139,-42,-157,-43,141,-106,252,526,402,303,323,177
139,-36,-157,-49,141,-106,234,508,396,303,323,183
145,-24,-157,-55,141,-106,222,496,384,303,329,189
151,-12,-157,-61,141,-106,210,478,372,303,329,189
151,-6,-157,-67,141,-106,198,460,360,303,329,189
151,-1,-157,-67,141,-106,186,442,348,303,329,189
151,-1,-157,-67,141,-100,174,412,336,303,329,189
151,-1,-151,-67,141,-100,162,394,324,297,329,195
151,5,-145,-73,141,-94,156,370,312,297,329,195
151,11,-139,-73,141,-88,156,346,300,291,329,195
151,11,-133,-73,135,-82,150,328,276,279,329,195
145,11,-127,-73,129,-76,144,310,258,267,323,195
139,17,-121,-73,123,-70,138,286,246,255,317,195
133,17,-115,-73,117,-64,138,274,222,249,311,195
127,17,-109,-73,105,-58,132,256,204,243,299,195
121,17,-97,-73,93,-52,132,238,186,237,293,195
115,17,-85,-73,87,-46,132,226,174,225,281,189
109,17,-73,-67,81,-46,126,196,150,213,275,183
103,17,-67,-61,75,-40,126,178,132,201,269,177
91,17,-55,-55,63,-34,126,160,120,189,257,171
85,17,-43,-49,57,-28,126,148,102,171,245,165
73,17,-31,-43,45,-22,126,136,90,159,233,159
67,17,-25,-43,39,-16,126,124,78,147,221,153
61,17,-19,-43,33,-16,126,112,54,135,209,147
55,17,-13,-43,27,-16,126,100,42,129,203,141
49,17,-7,-37,15,-10,126,88,30,117,197,141
37,17,-1,-31,9,-10,126,76,18,105,191,135
31,17,4,-25,3,-10,126,64,6,93,179,129
25,17,4,-25,-3,-10,126,52,-5,87,173,123
25,23,4,-19,-3,-10,126,40,-17,75,167,117
19,23,4,-13,-8,-10,126,28,-29,69,161,111
13,23,4,-7,-8,-10,126,22,-41,63,155,105
7,23,4,-1,-14,-10,126,16,-53,57,143,99
1,23,4,-1,-20,-10,126,10,-59,51,137,93
1,23,4,-1,-20,-10,126,4,-65,45,131,93
1,23,4,-1,-20,-10,126,4,-71,39,131,93
1,23,4,-1,-20,-10,126,4,-71,33,131,87
-5,23,10,4,-26,-10,126,-2,-77,27,125,81
-5,23,16,4,-26,-10,126,-7,-83,27,119,81
-5,23,16,4,-26,-10,126,-13,-89,27,119,81
-5,23,16,4,-26,-10,126,-19,-89,21,119,81
-10,17,16,10,-26,-10,126,-19,-95,21,113,81
-10,11,16,10,-26,-10,126,-19,-101,21,113,75
-10,11,16,10,-26,-10,126,-19,-101,21,113,69
-10,11,16,10,-26,-10,126,-19,-101,15,113,63
-10,11,16,10,-26,-10,126,-19,-101,9,107,63
-16,5,16,10,-26,-10,126,-19,-107,3,101,57
-16,5,16,10,-26,-10,126,-19,-113,3,101,51
-16,5,16,10,-26,-10,126,-19,-113,-2,95,51
-16,-1,16,10,-26,-10,126,-19,-113,-8,95,51
-16,-1,16,16,-26,-10,126,-19,-113,-8,95,51
-16,-1,16,22,-26,-10,126,-19,-119,-8,95,51
-16,-6,16,22,-26,-10,126,-19,-119,-8,95,51
-22,-12,16,22,-26,-10,126,-19,-119,-8,89,51
-22,-12,16,28,-26,-10,126,-19,-119,-14,89,51
-22,-18,16,28,-26,-10,126,-19,-119,-14,89,45
-28,-18,16,28,-26,-10,132,-19,-119,-14,83,45
-28,-18,16,34,-26,-10,138,-19,-119,-14,83,45
-28,-18,16,34,-26,-10,138,-19,-119,-14,77,45
-28,-18,16,34,-26,-10,138,-19,-119,-20,77,45
-28,-18,16,34,-32,-10,138,-19,-119,-20,77,45
