,,,,,,,,,,,
2019-09-04 23:53:44,,,,,,,,,,,
,,,,,,,,,,,
I,II,III,aVR,aVL,aVF,V1,V2,V3,V4,V5,V6
363,-3,-399,-133,368,-209,-207,-442,-216,-122,-644,1534
-62,-99,-81,82,-9,-155,-207,-442,-384,-212,-320,-559
-92,-105,-45,100,-39,-125,-207,-442,-402,-230,-296,-661
-92,-105,-27,100,-45,-101,-201,-442,-402,-230,-284,-679
-92,-105,-27,100,-45,-101,-201,-442,-402,-230,-272,-685
-92,-117,-33,100,-45,-101,-201,-448,-408,-230,-266,-691
-98,-129,-33,106,-45,-101,-201,-448,-408,-230,-266,-691
-104,-135,-33,112,-45,-101,-201,-448,-408,-230,-266,-691
-110,-135,-33,118,-51,-101,-201,-448,-408,-230,-260,-691
-110,-135,-27,118,-51,-101,-201,-448,-408,-230,-260,-691
-110,-135,-21,118,-51,-95,-201,-448,-414,-236,-260,-691
-110,-135,-21,118,-51,-95,-201,-448,-414,-236,-260,-697
-110,-129,-15,118,-51,-89,-201,-448,-414,-236,-260,-697
-110,-129,-15,118,-51,-89,-201,-448,-414,-236,-260,-697
-110,-129,-21,118,-51,-89,-201,-454,-414,-236,-260,-697
-110,-135,-27,118,-51,-95,-201,-454,-414,-236,-260,-697
-110,-135,-27,118,-51,-95,-201,-454,-414,-236,-260,-697
-110,-135,-27,118,-51,-95,-201,-454,-414,-236,-260,-697
-122,-147,-27,130,-57,-95,-201,-454,-414,-236,-260,-697
-128,-153,-27,136,-63,-95,-201,-454,-414,-242,-260,-697
-128,-153,-27,136,-63,-95,-201,-454,-414,-242,-260,-697
-128,-153,-27,136,-63,-95,-201,-454,-414,-248,-260,-697
-128,-153,-27,136,-63,-95,-201,-454,-420,-254,-260,-697
-128,-153,-27,136,-63,-95,-201,-454,-420,-254,-260,-697
-128,-153,-27,136,-63,-95,-201,-454,-420,-254,-260,-697
-128,-153,-27,136,-63,-95,-201,-454,-420,-254,-260,-697
-128,-153,-27,136,-63,-95,-201,-454,-426,-254,-260,-697
-128,-153,-27,136,-63,-95,-201,-454,-426,-254,-260,-697
-128,-153,-27,136,-63,-95,-201,-454,-426,-254,-260,-697
-128,-153,-27,136,-63,-95,-201,-454,-426,-254,-242,-697
-122,-153,-27,130,-63,-95,-201,-454,-426,-254,-170,-697
-116,-147,-27,124,-63,-95,-201,-454,-426,-254,-98,-697
-116,-147,-27,124,-63,-95,-201,-454,-426,-254,-74,-697
-116,-147,-27,124,-63,-95,-201,-454,-426,-254,-62,-697
-110,-147,-27,118,-63,-95,-201,-454,-426,-254,-50,-697
-110,-141,-27,118,-63,-95,-201,-454,-426,-254,-44,-697
-110,-141,-27,118,-63,-95,-201,-454,-426,-254,-44,-697
-110,-141,-33,118,-63,-95,-201,-454,-426,-254,-38,-697
-104,-135,-33,112,-57,-95,-201,-454,-426,-254,-38,-697
-98,-123,-33,106,-57,-89,-201,-454,-426,-254,-38,-697
-98,-129,-33,106,-57,-89,-201,-454,-426,-254,-38,-697
-110,-141,-33,118,-57,-95,-201,-454,-426,-254,-38,-697
-110,-147,-33,118,-57,-101,-201,-454,-426,-254,-38,-697
-110,-147,-33,118,-57,-101,-201,-454,-426,-254,-38,-697
-110,-147,-33,118,-57,-101,-201,-454,-426,-254,-38,-697
-110,-147,-33,118,-57,-101,-201,-454,-426,-254,-38,-697
-110,-147,-33,118,-57,-101,-201,-454,-426,-254,-38,-697
-110,-147,-33,118,-57,-101,-201,-454,-426,-260,-38,-697
-110,-147,-33,118,-57,-101,-201,-454,-426,-260,-38,-697
-110,-147,-33,118,-57,-101,-201,-454,-426,-260,-38,-697
-110,-147,-27,118,-57,-101,-201,-454,-426,-260,-38,-697
-110,-147,-27,118,-57,-101,-201,-454,-426,-266,-38,-697
-110,-153,-27,118,-57,-101,-201,-454,-432,-266,-44,-697
-110,-153,-27,124,-57,-101,-201,-454,-432,-266,-50,-697
-110,-153,-27,124,-57,-101,-201,-454,-432,-266,-50,-697
-110,-153,-27,124,-57,-101,-201,-454,-432,-266,-50,-697
-134,-153,-21,130,-69,-101,-201,-454,-432,-266,-50,-697
-140,-153,-15,130,-75,-101,-201,-454,-432,-266,-50,-697
-134,-147,-15,124,-75,-95,-201,-454,-432,-266,-50,-697
-134,-141,-15,124,-75,-95,-201,-454,-432,-266,-50,-697
-128,-141,-15,124,-75,-95,-201,-454,-432,-266,-50,-697
-122,-141,-15,124,-75,-95,-201,-454,-432,-266,-50,-697
-116,-135,-15,118,-75,-95,-201,-454,-432,-266,-50,-697
-116,-135,-15,118,-69,-95,-201,-454,-432,-266,-50,-697
-116,-135,-21,118,-63,-95,-201,-454,-432,-266,-50,-697
-110,-135,-27,118,-57,-95,-201,-454,-432,-266,-50,-697
-104,-135,-33,112,-51,-95,-201,-454,-432,-266,-50,-697
-104,-135,-33,112,-51,-95,-201,-454,-432,-266,-50,-697
-104,-141,-33,112,-51,-95,-201,-454,-432,-266,-56,-697
-104,-147,-33,112,-51,-101,-201,-454,-432,-266,-56,-697
-104,-147,-33,112,-51,-101,-201,-454,-432,-266,-56,-697
-104,-147,-33,112,-51,-101,-201,-454,-432,-266,-56,-697
-110,-147,-33,118,-51,-101,-201,-454,-432,-266,-56,-691
-116,-153,-33,124,-51,-101,-201,-454,-432,-266,-56,-691
-116,-153,-33,124,-51,-101,-201,-454,-432,-266,-56,-691
-110,-147,-33,118,-51,-101,-201,-454,-432,-266,-56,-691
-110,-147,-33,118,-51,-101,-201,-454,-432,-266,-56,-691
-110,-147,-33,118,-51,-101,-201,-454,-432,-266,-56,-691
-110,-147,-33,118,-51,-101,-201,-454,-432,-266,-56,-691
-110,-147,-33,118,-51,-101,-201,-454,-432,-266,-62,-691
-110,-147,-33,118,-51,-101,-201,-454,-432,-266,-62,-691
-110,-147,-33,118,-51,-101,-201,-454,-432,-266,-62,-685
-110,-147,-33,118,-51,-101,-201,-454,-432,-266,-62,-685
-110,-147,-33,118,-51,-101,-201,-454,-432,-266,-62,-685
-110,-141,-33,118,-51,-101,-201,-454,-432,-266,-62,-679
-110,-129,-21,118,-51,-89,-201,-454,-426,-260,-62,-673
-110,-123,-3,118,-63,-77,-201,-454,-420,-260,-62,-667
-110,-111,8,112,-69,-65,-201,-448,-420,-260,-62,-667
-104,-99,8,106,-69,-59,-201,-442,-414,-254,-62,-661
-104,-93,8,100,-69,-53,-195,-442,-408,-248,-62,-655
-104,-93,14,100,-69,-47,-189,-442,-408,-242,-56,-655
-104,-87,20,94,-69,-41,-189,-436,-408,-236,-56,-655
-98,-75,26,82,-69,-35,-189,-430,-402,-230,-56,-649
-98,-63,32,76,-75,-29,-189,-430,-396,-224,-56,-643
-98,-57,38,70,-81,-23,-183,-430,-390,-218,-56,-637
-98,-57,44,70,-87,-17,-183,-430,-390,-218,-50,-637
-98,-51,50,70,-87,-17,-183,-424,-390,-218,-44,-637
-98,-45,50,70,-87,-11,-177,-418,-384,-218,-38,-631
-98,-45,56,70,-93,-11,-171,-412,-378,-218,-38,-625
-110,-45,62,76,-105,-11,-171,-412,-372,-218,-38,-625
-116,-45,68,76,-105,-5,-165,-412,-372,-218,-38,-625
-110,-33,68,70,-105,1,-165,-406,-372,-218,-32,-619
-98,-27,68,58,-99,7,-165,-406,-372,-218,-32,-619
-92,-27,68,52,-99,7,-171,-412,-372,-218,-32,-619
-80,-21,68,46,-93,7,-177,-412,-372,-212,-32,-613
-74,-15,68,40,-87,13,-177,-412,-366,-206,-26,-607
-74,-15,68,40,-87,13,-183,-412,-366,-206,-26,-601
-74,-9,68,40,-87,19,-183,-412,-366,-206,-20,-595
-74,-3,74,34,-87,25,-183,-412,-366,-200,-20,-595
-80,-3,74,40,-93,25,-189,-418,-366,-200,-20,-595
-92,-9,74,52,-105,25,-201,-418,-372,-200,-26,-595
-92,-9,74,46,-105,25,-207,-424,-372,-200,-26,-595
-68,3,74,22,-93,25,-207,-424,-372,-200,-26,-589
-62,3,74,22,-87,25,-207,-424,-372,-200,-26,-583
-62,3,74,28,-87,25,-213,-424,-372,-200,-26,-583
-68,3,74,28,-87,25,-219,-430,-372,-200,-26,-583
-68,3,74,28,-87,25,-225,-430,-378,-206,-26,-583
-68,3,74,28,-81,25,-231,-436,-378,-206,-26,-583
-56,3,74,22,-75,25,-237,-436,-378,-206,-26,-583
-44,9,68,16,-63,25,-237,-436,-378,-206,-26,-583
-38,9,62,16,-57,19,-237,-436,-384,-206,-26,-583
-38,3,50,16,-57,13,-237,-436,-390,-212,-26,-583
-38,-9,38,16,-57,7,-237,-442,-390,-218,-26,-583
-44,-21,26,22,-57,-5,-237,-442,-390,-218,-32,-583
-50,-39,20,34,-57,-17,-237,-442,-396,-218,-32,-583
-62,-57,14,52,-57,-29,-237,-442,-402,-224,-38,-589
-68,-69,8,64,-57,-41,-237,-448,-414,-230,-44,-595
-74,-99,3,76,-51,-53,-243,-454,-420,-242,-56,-607
-80,-123,-15,88,-45,-77,-243,-454,-426,-248,-68,-613
-80,-135,-33,94,-39,-95,-243,-454,-426,-254,-74,-613
-80,-141,-45,94,-33,-107,-243,-454,-432,-260,-80,-619
-86,-147,-51,100,-33,-113,-243,-454,-438,-266,-86,-625
-98,-159,-51,118,-33,-119,-243,-454,-438,-272,-92,-631
-110,-165,-51,130,-39,-119,-243,-454,-438,-278,-98,-631
-116,-171,-51,136,-39,-119,-243,-454,-438,-278,-104,-631
-116,-171,-51,136,-39,-119,-243,-454,-438,-278,-104,-631
-116,-171,-51,136,-39,-119,-243,-454,-438,-278,-104,-631
-116,-171,-57,136,-39,-125,-243,-454,-438,-278,-110,-631
-116,-177,-57,136,-39,-125,-243,-454,-438,-278,-116,-631
-116,-177,-57,136,-39,-125,-243,-454,-438,-278,-116,-631
-116,-177,-57,136,-39,-125,-237,-448,-438,-278,-116,-631
-110,-177,-57,136,-39,-125,-237,-448,-432,-278,-110,-631
-98,-171,-63,124,-33,-125,-237,-442,-420,-266,-104,-631
-86,-165,-69,118,-27,-125,-231,-436,-408,-254,-92,-625
-80,-165,-75,112,-21,-131,-225,-424,-396,-242,-80,-619
-80,-159,-75,112,-15,-131,-219,-412,-372,-230,-68,-613
-80,-153,-75,106,-15,-131,-213,-382,-348,-200,-56,-601
-74,-141,-75,100,-15,-119,-201,-352,-324,-176,-38,-583
-68,-129,-69,94,-15,-107,-195,-334,-306,-164,-26,-571
-68,-123,-69,94,-15,-101,-189,-328,-294,-152,-14,-559
-68,-123,-63,94,-15,-95,-189,-328,-288,-146,-9,-553
-68,-117,-51,94,-15,-89,-189,-328,-276,-134,3,-541
-62,-105,-45,82,-15,-83,-189,-322,-264,-122,21,-523
-32,-63,-39,52,-15,-71,-189,-322,-252,-104,45,-499
-20,-33,-33,28,-15,-53,-189,-316,-240,-86,75,-475
-14,-21,-27,16,-15,-41,-189,-304,-210,-68,87,-451
-8,-15,-27,10,-15,-35,-189,-274,-186,-44,111,-439
4,-9,-27,4,-3,-29,-183,-256,-174,-20,129,-421
34,-3,-33,-8,21,-29,-183,-244,-162,3,153,-403
63,9,-39,-32,45,-29,-183,-232,-150,15,171,-379
75,21,-39,-44,51,-23,-183,-202,-138,27,183,-367
81,26,-39,-50,51,-23,-141,-136,-102,39,195,-355
81,26,-39,-50,51,-23,-39,-16,-54,51,195,-349
81,26,-45,-50,51,-23,80,127,12,63,201,-343
93,38,-51,-61,56,-23,170,259,101,105,213,-331
117,44,-63,-73,74,-23,218,361,191,177,267,-283
153,50,-93,-97,110,-23,266,481,335,309,375,-211
249,74,-135,-157,176,-23,314,637,563,537,555,-85
381,140,-177,-253,266,-23,320,757,821,819,783,94
465,206,-207,-331,326,-17,320,853,1091,1125,1059,298
537,302,-207,-421,356,13,302,967,1421,1497,1371,532
657,458,-207,-559,398,96,260,1147,1841,1965,1761,832
831,662,-189,-751,446,210,200,1321,2302,2479,2204,1162
939,854,-135,-901,482,342,110,1399,2691,2959,2599,1450
999,998,-75,-991,488,444,9,1417,3051,3379,2947,1702
1041,1112,14,-1063,488,552,-81,1417,3381,3787,3265,1906
1047,1178,86,-1105,482,624,-189,1399,3585,4051,3457,2026
1047,1178,92,-1105,476,630,-255,1303,3627,4099,3481,2044
1035,1022,14,-1039,482,522,-279,1225,3585,4015,3373,1960
975,716,-189,-841,530,264,-285,1087,3297,3643,3013,1660
837,470,-291,-649,536,90,-297,889,2901,3163,2605,1348
657,320,-291,-481,494,25,-297,703,2475,2677,2198,1066
483,200,-285,-343,398,-17,-279,505,1991,2138,1773,754
333,92,-273,-211,302,-65,-243,247,1391,1545,1317,430
165,-21,-243,-73,188,-107,-225,-10,743,933,873,118
46,-93,-201,22,110,-125,-225,-226,197,453,537,-109
10,-111,-177,52,74,-131,-225,-310,-72,195,351,-241
-2,-129,-165,70,68,-137,-225,-310,-90,129,249,-343
-8,-141,-159,76,62,-137,-225,-274,-90,99,189,-385
-14,-141,-147,76,56,-137,-219,-238,-84,93,165,-409
-14,-141,-135,76,51,-131,-213,-214,-78,93,159,-415
-14,-135,-123,76,45,-125,-201,-202,-72,93,159,-415
-14,-129,-99,70,39,-119,-189,-190,-72,87,153,-415
-20,-129,-87,70,27,-119,-177,-184,-72,75,147,-415
-26,-129,-81,70,21,-119,-159,-178,-72,63,135,-415
-26,-123,-75,70,21,-113,-147,-166,-78,51,123,-427
-26,-117,-75,70,15,-107,-141,-160,-90,15,99,-439
-38,-117,-69,76,3,-101,-135,-154,-114,-14,75,-457
-50,-117,-57,82,-9,-95,-129,-154,-138,-26,63,-469
-62,-117,-27,82,-21,-83,-117,-154,-150,-38,51,-475
-68,-105,-15,82,-27,-71,-111,-154,-162,-50,45,-481
-68,-99,-9,82,-33,-65,-105,-154,-174,-62,33,-487
-68,-99,-9,82,-33,-65,-105,-154,-186,-74,21,-493
-74,-99,-9,82,-33,-65,-105,-154,-198,-86,9,-499
-74,-99,-9,82,-33,-65,-105,-154,-210,-98,3,-505
-80,-99,-9,82,-33,-65,-105,-154,-216,-110,-3,-511
-80,-93,-9,82,-33,-65,-105,-154,-222,-116,-9,-511
-80,-87,-9,76,-33,-59,-99,-148,-222,-116,-9,-511
-74,-87,-9,76,-33,-59,-99,-148,-228,-122,-14,-511
-74,-87,-9,76,-33,-59,-99,-148,-240,-128,-20,-511
-74,-87,-9,76,-33,-59,-99,-148,-246,-134,-26,-511
-74,-87,-9,76,-33,-59,-99,-148,-246,-140,-26,-511
-74,-87,-9,76,-33,-59,-99,-148,-246,-140,-32,-511
-74,-87,-9,76,-33,-59,-99,-148,-246,-140,-32,-511
-74,-87,-9,76,-33,-59,-93,-142,-246,-140,-32,-511
-74,-87,-9,76,-39,-59,-87,-142,-246,-140,-32,-511
-74,-87,-9,76,-45,-59,-87,-142,-246,-140,-32,-511
-80,-87,-9,76,-45,-59,-87,-136,-246,-140,-32,-511
-86,-87,-3,76,-45,-59,-81,-130,-246,-140,-32,-511
-86,-87,-3,76,-45,-59,-75,-124,-246,-140,-32,-511
-86,-87,-3,76,-45,-59,-75,-118,-246,-140,-32,-511
-86,-87,-3,76,-45,-53,-75,-118,-246,-140,-32,-511
-86,-87,3,76,-51,-47,-75,-118,-246,-140,-32,-511
-86,-87,3,76,-51,-47,-69,-112,-240,-140,-32,-511
-80,-81,3,70,-51,-47,-63,-100,-234,-140,-32,-511
-80,-75,3,70,-51,-47,-63,-94,-228,-134,-32,-511
-80,-75,8,70,-51,-47,-57,-82,-222,-128,-32,-511
-80,-75,14,70,-57,-41,-51,-70,-216,-122,-26,-511
-80,-69,20,70,-57,-35,-45,-64,-210,-116,-26,-505
-80,-57,26,70,-57,-29,-39,-58,-204,-104,-20,-499
-80,-57,26,64,-57,-29,-33,-52,-204,-98,-20,-493
-80,-57,14,64,-51,-29,-33,-46,-198,-92,-14,-493
-80,-57,14,64,-51,-29,-33,-40,-192,-86,-9,-487
-80,-51,20,64,-51,-23,-27,-34,-180,-74,-3,-481
-74,-45,20,58,-51,-17,-21,-22,-168,-68,3,-475
-74,-45,20,58,-51,-17,-15,-10,-156,-62,9,-469
-74,-45,20,58,-51,-17,-15,2,-150,-56,15,-469
-74,-45,20,58,-51,-17,-9,14,-144,-50,15,-463
-68,-45,20,58,-51,-17,-3,25,-132,-38,21,-457
-68,-39,26,52,-51,-11,3,37,-120,-26,27,-451
-68,-33,38,52,-51,-5,9,49,-114,-14,33,-445
-68,-27,44,46,-57,1,15,61,-102,-9,39,-439
-68,-21,44,46,-57,7,20,67,-96,-3,45,-433
-68,-21,44,46,-57,13,20,79,-84,3,51,-433
-62,-3,50,34,-57,19,26,97,-60,15,63,-427
-44,26,50,16,-57,25,38,115,-42,27,75,-415
-38,32,50,10,-57,25,44,127,-30,33,81,-409
-38,26,50,10,-57,25,50,139,-24,39,87,-409
-38,26,50,10,-57,25,56,151,-12,51,93,-409
-38,26,50,10,-57,25,62,163,0,63,99,-403
-38,26,56,10,-63,30,68,175,6,69,105,-403
-44,26,68,10,-69,36,74,187,17,75,111,-397
-44,38,80,4,-75,48,86,205,47,93,123,-385
-38,44,80,-2,-75,54,92,217,65,105,135,-379
-38,50,80,-2,-75,54,98,235,77,111,141,-373
-38,56,86,-8,-75,60,110,265,101,123,153,-361
-32,62,92,-14,-75,66,122,295,125,135,165,-349
-32,68,98,-14,-75,72,134,307,137,147,177,-343
-32,74,104,-14,-75,78,146,325,149,165,189,-337
-26,80,110,-20,-75,84,158,343,161,177,195,-331
-14,104,110,-38,-75,96,170,367,179,189,207,-325
-14,110,116,-44,-75,102,182,391,209,207,219,-319
-20,110,122,-44,-75,108,188,409,233,231,231,-313
-20,116,128,-44,-75,114,194,439,263,255,243,-301
-8,146,134,-67,-75,126,200,475,293,285,267,-283
4,158,140,-79,-75,138,212,511,335,303,285,-271
4,158,146,-79,-75,144,218,541,353,315,297,-259
10,164,152,-85,-75,150,230,559,365,339,315,-253
28,182,152,-103,-75,162,248,583,395,369,333,-241
34,188,152,-109,-75,168,260,607,419,393,345,-229
34,188,152,-109,-75,168,272,625,437,411,357,-223
34,188,158,-109,-75,174,284,655,467,429,369,-211
34,200,170,-115,-75,186,296,685,509,465,399,-199
40,224,182,-127,-75,198,308,715,551,495,429,-175
51,242,182,-139,-75,210,320,757,581,525,459,-157
51,254,188,-145,-75,216,332,787,617,549,471,-145
51,254,200,-145,-81,222,344,817,647,567,489,-133
51,260,206,-151,-81,228,356,847,677,603,519,-115
57,272,206,-163,-81,234,368,877,707,639,543,-91
69,284,212,-175,-81,240,374,895,731,669,555,-79
75,296,218,-181,-81,246,380,919,755,687,567,-73
81,308,218,-193,-81,258,386,943,785,717,591,-55
93,332,218,-211,-75,264,392,967,827,747,621,-37
105,338,218,-223,-69,270,398,991,869,777,633,-19
105,344,218,-229,-69,276,404,1021,893,801,651,-7
111,350,224,-235,-69,282,410,1051,923,819,669,11
129,368,230,-253,-63,288,422,1081,953,843,693,29
141,374,230,-265,-63,294,428,1093,971,867,705,40
141,374,230,-265,-63,294,434,1105,995,891,729,52
141,374,230,-265,-63,294,440,1117,1007,915,741,64
147,380,230,-271,-63,300,440,1129,1019,927,753,70
153,392,230,-283,-57,306,440,1135,1043,945,765,88
165,410,236,-289,-57,312,446,1147,1073,975,795,112
165,416,236,-295,-57,318,446,1153,1097,993,807,124
165,416,236,-295,-57,318,446,1153,1103,999,819,130
171,422,236,-301,-57,318,446,1153,1109,1005,825,136
177,428,236,-307,-51,318,440,1153,1109,1005,831,142
183,428,236,-307,-51,318,434,1147,1109,1005,831,148
183,428,236,-307,-51,318,422,1135,1109,1005,831,148
189,428,236,-307,-45,318,410,1105,1097,1005,831,148
189,428,236,-307,-39,318,398,1063,1073,999,831,148
189,422,236,-307,-39,318,368,1015,1037,987,825,148
183,410,236,-301,-39,312,338,967,1007,969,813,148
177,398,230,-295,-39,306,314,925,971,939,801,142
177,392,224,-289,-39,300,302,883,929,909,789,136
177,392,224,-289,-39,300,290,841,881,867,777,130
177,380,218,-283,-39,294,266,793,815,819,741,118
171,356,212,-271,-39,282,236,733,749,777,693,88
165,326,200,-247,-39,270,212,667,689,717,651,52
159,308,188,-235,-39,252,194,619,623,669,609,35
147,296,182,-223,-39,240,182,565,569,621,573,17
129,284,176,-199,-39,222,164,511,509,567,531,-13
111,248,164,-181,-39,192,134,463,455,513,489,-49
105,230,140,-169,-33,174,116,421,413,471,459,-79
93,218,128,-157,-33,162,104,385,365,429,435,-91
81,200,122,-145,-33,150,92,349,311,375,411,-121
75,170,116,-127,-33,138,80,307,251,327,381,-157
69,152,104,-115,-27,120,68,265,203,285,345,-187
63,134,92,-103,-27,108,56,223,155,243,303,-217
51,116,86,-85,-27,96,44,193,113,213,273,-235
40,104,80,-73,-27,78,32,157,71,177,243,-247
34,92,68,-61,-27,66,20,127,41,147,231,-259
28,80,62,-55,-27,54,9,103,12,123,213,-271
22,74,56,-50,-27,48,-3,73,-18,93,195,-289
16,62,50,-44,-27,42,-9,61,-36,69,183,-301
4,38,50,-32,-27,30,-15,43,-60,39,171,-313
-20,9,50,-2,-27,25,-21,25,-90,9,153,-325
-32,-15,44,16,-27,13,-27,14,-120,-9,129,-337
-38,-45,26,34,-27,-17,-33,-16,-150,-32,117,-361
-38,-57,3,46,-27,-35,-39,-28,-168,-44,93,-373
-32,-57,-3,40,-27,-35,-45,-40,-180,-56,81,-379
-20,-45,-9,28,-27,-35,-51,-52,-192,-62,75,-385
-20,-45,-15,28,-27,-41,-57,-64,-204,-74,69,-391
-32,-57,-21,40,-27,-53,-63,-76,-216,-86,63,-403
-38,-69,-21,46,-27,-59,-69,-88,-222,-98,57,-409
-38,-81,-27,52,-27,-65,-69,-94,-234,-110,51,-415
-44,-87,-27,64,-27,-65,-75,-100,-246,-122,45,-421
-44,-87,-27,64,-27,-65,-75,-106,-258,-134,39,-427
-44,-87,-27,64,-27,-65,-75,-112,-264,-140,33,-433
-44,-87,-27,64,-27,-65,-75,-112,-270,-140,33,-433
-50,-93,-27,70,-27,-71,-75,-112,-270,-140,33,-433
-62,-99,-27,76,-33,-77,-75,-118,-276,-146,27,-445
-62,-99,-27,76,-33,-77,-75,-124,-282,-152,27,-451
-62,-99,-27,76,-33,-77,-75,-130,-288,-152,27,-451
-62,-99,-27,76,-33,-77,-75,-130,-288,-158,27,-457
-62,-99,-27,82,-33,-77,-75,-136,-294,-164,27,-457
-62,-105,-33,88,-33,-83,-75,-136,-300,-170,27,-457
-62,-111,-39,88,-27,-89,-75,-136,-300,-176,27,-457
-62,-111,-45,88,-27,-89,-75,-136,-300,-176,21,-457
-62,-117,-45,94,-27,-89,-75,-136,-306,-182,21,-457
-62,-117,-51,94,-27,-89,-81,-136,-312,-182,21,-457
-62,-117,-51,94,-27,-89,-81,-136,-312,-182,21,-457
-62,-117,-51,94,-27,-89,-81,-136,-312,-182,21,-457
-62,-123,-51,94,-27,-95,-81,-136,-312,-182,21,-457
-62,-123,-51,94,-27,-95,-81,-136,-312,-182,21,-457
-56,-123,-51,94,-21,-95,-81,-136,-312,-182,21,-457
-56,-123,-57,94,-15,-95,-81,-136,-312,-188,21,-457
-56,-123,-57,94,-15,-95,-81,-136,-312,-188,21,-457
-56,-123,-57,88,-15,-95,-81,-136,-312,-188,21,-457
-56,-123,-57,88,-15,-95,-81,-136,-312,-188,21,-457
-56,-123,-63,88,-9,-101,-81,-136,-312,-188,21,-457
-56,-123,-63,88,-9,-101,-81,-136,-312,-188,21,-457
-56,-123,-63,88,-9,-101,-81,-136,-312,-188,21,-457
-56,-123,-63,88,-9,-101,-81,-136,-312,-188,21,-457
-56,-123,-63,88,-9,-101,-81,-136,-312,-188,21,-457
-56,-123,-63,88,-9,-101,-81,-136,-312,-188,21,-457
-56,-123,-57,88,-9,-101,-81,-136,-312,-188,21,-457
-62,-123,-51,88,-15,-101,-81,-136,-312,-188,21,-457
-62,-123,-51,88,-15,-101,-81,-136,-312,-188,21,-457
-62,-123,-51,88,-15,-101,-81,-136,-312,-188,21,-457
-62,-123,-51,88,-15,-101,-81,-136,-312,-188,21,-457
-62,-123,-51,88,-15,-101,-81,-136,-312,-188,21,-457
-62,-123,-51,88,-21,-101,-81,-136,-312,-188,21,-457
-68,-123,-51,94,-27,-101,-81,-136,-312,-188,21,-457
-74,-123,-51,94,-27,-101,-81,-136,-312,-188,21,-457
-74,-123,-51,94,-27,-101,-81,-136,-312,-188,21,-451
-74,-123,-51,94,-27,-101,-81,-136,-312,-188,21,-451
-74,-123,-51,94,-27,-101,-81,-136,-312,-188,21,-451
-80,-123,-51,94,-27,-101,-81,-136,-312,-188,21,-451
-80,-123,-51,94,-27,-101,-81,-136,-312,-188,21,-451
-74,-111,-51,88,-27,-95,-81,-136,-312,-188,21,-451
-62,-99,-51,82,-21,-89,-81,-130,-312,-188,21,-445
-62,-99,-51,82,-21,-89,-81,-130,-312,-188,21,-445
-62,-105,-51,82,-21,-89,-81,-130,-312,-188,21,-445
-62,-105,-51,82,-21,-89,-81,-130,-312,-188,21,-445
-62,-105,-45,82,-21,-83,-81,-130,-312,-188,21,-445
-62,-99,-39,82,-21,-77,-81,-130,-312,-188,21,-439
-62,-99,-39,82,-21,-77,-81,-130,-312,-188,21,-439
-62,-105,-39,82,-21,-83,-81,-130,-312,-188,21,-439
-62,-105,-39,82,-21,-83,-81,-130,-312,-188,21,-439
-62,-105,-39,82,-21,-83,-81,-130,-312,-188,21,-439
-62,-105,-39,82,-21,-83,-81,-130,-312,-188,21,-439
-62,-105,-39,82,-21,-83,-81,-130,-312,-188,21,-439
-62,-105,-39,82,-21,-83,-81,-130,-312,-188,21,-439
-62,-105,-39,82,-21,-83,-81,-130,-312,-188,21,-439
-62,-105,-39,82,-21,-83,-81,-130,-312,-188,21,-439
-62,-105,-39,82,-21,-83,-81,-130,-312,-188,21,-439
-62,-105,-39,82,-21,-83,-81,-130,-312,-188,21,-439
-62,-105,-39,82,-21,-83,-81,-130,-312,-188,21,-439
-62,-105,-33,82,-27,-83,-81,-130,-312,-188,21,-439
-62,-105,-33,82,-27,-83,-81,-130,-312,-188,21,-439
-62,-105,-33,82,-27,-83,-81,-130,-318,-188,21,-439
-62,-105,-33,82,-27,-83,-81,-130,-324,-188,21,-439
-62,-105,-33,82,-21,-83,-81,-130,-330,-188,21,-439
-62,-105,-33,82,-21,-83,-81,-130,-330,-188,21,-439
-62,-105,-33,82,-21,-83,-81,-130,-330,-188,21,-439
-68,-105,-33,88,-21,-83,-81,-130,-330,-188,21,-439
-80,-105,-27,88,-33,-83,-81,-130,-330,-188,21,-439
-80,-105,-27,88,-39,-83,-81,-130,-330,-188,21,-439
-80,-105,-27,88,-39,-83,-81,-136,-330,-188,21,-439
-68,-105,-33,82,-33,-83,-81,-136,-336,-188,21,-439
-62,-99,-33,82,-33,-83,-81,-136,-336,-188,21,-439
-62,-99,-33,82,-33,-77,-81,-136,-336,-188,21,-439
-62,-99,-33,82,-33,-77,-81,-136,-336,-188,21,-439
-62,-99,-33,82,-33,-77,-81,-136,-336,-194,21,-439
-62,-99,-33,82,-33,-77,-81,-136,-336,-194,21,-439
-62,-99,-33,82,-33,-77,-81,-136,-336,-194,21,-439
-62,-99,-33,82,-33,-77,-81,-136,-336,-194,21,-439
-68,-99,-33,82,-33,-77,-81,-136,-342,-194,21,-439
-74,-99,-33,82,-39,-77,-81,-136,-342,-194,21,-439
-74,-99,-33,82,-39,-77,-81,-136,-342,-194,21,-439
-74,-99,-33,82,-39,-77,-81,-136,-348,-194,21,-439
-74,-99,-33,82,-39,-77,-81,-136,-354,-200,21,-439
-74,-99,-33,82,-33,-77,-81,-136,-354,-206,21,-439
-74,-99,-33,82,-33,-77,-81,-136,-354,-206,21,-439
-74,-99,-33,82,-33,-77,-81,-136,-354,-206,21,-439
-74,-105,-33,82,-33,-77,-81,-142,-360,-206,21,-439
-74,-105,-33,82,-33,-77,-81,-142,-360,-206,21,-439
-68,-105,-39,82,-27,-77,-81,-142,-360,-206,21,-439
-68,-105,-45,82,-27,-77,-81,-148,-366,-206,21,-439
-68,-105,-45,82,-27,-77,-81,-148,-366,-206,21,-439
-68,-105,-45,82,-27,-77,-81,-148,-366,-206,21,-439
-68,-105,-45,82,-27,-77,-81,-148,-366,-206,21,-439
-74,-105,-45,88,-33,-77,-81,-148,-366,-206,21,-439
-80,-111,-45,94,-33,-77,-87,-148,-366,-212,21,-439
-86,-117,-39,94,-33,-77,-87,-148,-366,-218,21,-439
-86,-117,-39,94,-33,-77,-87,-148,-366,-218,21,-439
-74,-111,-39,88,-27,-77,-87,-148,-366,-218,21,-439
-62,-105,-45,82,-21,-77,-87,-148,-366,-218,21,-439
-62,-105,-51,82,-21,-77,-93,-148,-372,-224,21,-439
-62,-111,-51,88,-21,-83,-99,-148,-378,-230,21,-439
-62,-117,-51,94,-21,-83,-99,-148,-378,-236,15,-439
-62,-117,-51,94,-21,-83,-99,-148,-378,-236,15,-439
-62,-117,-51,94,-15,-83,-99,-148,-378,-236,15,-439
-50,-111,-51,82,-9,-83,-99,-148,-378,-236,15,-439
-50,-111,-51,82,-9,-83,-99,-148,-378,-236,15,-439
-62,-117,-51,88,-15,-83,-99,-148,-378,-236,15,-439
-68,-117,-51,94,-21,-83,-99,-148,-378,-236,15,-439
-68,-117,-51,94,-21,-83,-99,-148,-378,-236,15,-439
-68,-117,-51,94,-21,-83,-99,-148,-378,-236,15,-439
-68,-117,-51,94,-21,-83,-99,-148,-378,-236,15,-439
-74,-117,-51,94,-21,-83,-99,-148,-378,-236,15,-439
-74,-117,-45,94,-21,-83,-99,-148,-378,-236,15,-439
-74,-117,-45,94,-21,-83,-99,-142,-378,-236,15,-439
-74,-117,-45,94,-21,-83,-99,-136,-378,-236,15,-439
-74,-117,-45,94,-21,-83,-105,-136,-384,-236,15,-439
-74,-117,-45,94,-21,-83,-111,-136,-384,-236,15,-439
-74,-117,-45,94,-21,-89,-111,-130,-384,-236,15,-439
-74,-117,-51,94,-21,-95,-111,-124,-390,-242,15,-439
-74,-117,-51,94,-21,-95,-111,-118,-390,-242,15,-439
-74,-117,-51,94,-21,-95,-111,-118,-390,-242,15,-439
-74,-117,-51,94,-21,-95,-111,-118,-390,-242,15,-439
-74,-117,-51,94,-21,-95,-111,-112,-390,-242,9,-439
-74,-117,-51,94,-15,-95,-111,-112,-390,-242,3,-439
-74,-117,-51,94,-15,-95,-111,-112,-390,-242,3,-439
-74,-117,-51,94,-15,-95,-111,-106,-390,-242,3,-439
-68,-117,-51,88,-15,-95,-111,-100,-390,-242,3,-439
-68,-117,-51,88,-15,-95,-111,-100,-390,-242,3,-439
-68,-123,-51,88,-15,-95,-111,-100,-396,-242,3,-439
-68,-123,-51,88,-15,-95,-111,-100,-396,-242,3,-439
-68,-117,-51,88,-15,-95,-111,-100,-396,-242,3,-433
-68,-117,-51,88,-15,-95,-111,-100,-396,-242,3,-427
-68,-117,-51,88,-15,-95,-111,-100,-396,-242,3,-427
-74,-123,-51,94,-15,-95,-111,-100,-396,-242,3,-427
-86,-123,-45,100,-21,-95,-111,-100,-396,-242,3,-421
-86,-123,-39,100,-27,-95,-111,-100,-396,-242,3,-421
-86,-123,-39,100,-27,-95,-117,-100,-396,-242,3,-421
-86,-123,-39,100,-27,-95,-123,-100,-402,-242,-3,-421
-80,-123,-45,100,-27,-95,-123,-100,-402,-242,-3,-421
-68,-123,-45,94,-21,-95,-123,-100,-402,-242,-3,-421
-68,-123,-45,94,-21,-95,-123,-100,-402,-242,-3,-421
-68,-123,-45,94,-21,-95,-123,-100,-402,-242,-3,-421
-68,-123,-45,94,-21,-95,-123,-100,-402,-242,-3,-421
-68,-123,-45,94,-21,-95,-123,-100,-402,-242,-3,-421
-68,-123,-45,94,-21,-95,-123,-100,-402,-242,-3,-421
-68,-123,-45,94,-21,-95,-123,-100,-402,-242,-3,-421
-68,-123,-45,94,-21,-95,-123,-100,-402,-242,-3,-421
-68,-123,-45,94,-21,-95,-123,-100,-402,-242,-3,-421
-68,-123,-45,100,-21,-95,-123,-100,-402,-242,-3,-421
-68,-123,-45,100,-21,-95,-123,-100,-402,-242,-3,-421
-68,-123,-45,100,-21,-95,-123,-100,-402,-242,-3,-421
-68,-123,-45,100,-21,-95,-123,-100,-402,-242,-3,-421
-68,-123,-45,94,-21,-95,-123,-94,-402,-242,-3,-421
-68,-123,-45,94,-21,-95,-123,-94,-402,-242,-3,-421
-68,-123,-45,94,-21,-95,-123,-94,-402,-242,-3,-421
-68,-123,-45,94,-21,-95,-123,-94,-402,-248,-9,-421
-68,-123,-45,94,-21,-95,-123,-94,-408,-248,-9,-421
-68,-123,-45,94,-21,-95,-123,-94,-408,-248,-9,-421
-68,-129,-45,94,-21,-95,-123,-94,-408,-248,-9,-421
-68,-129,-45,94,-21,-95,-123,-94,-408,-248,-14,-421
-68,-129,-45,94,-21,-95,-123,-94,-408,-248,-14,-421
-68,-129,-45,94,-21,-95,-123,-94,-408,-248,-14,-421
-74,-135,-45,100,-21,-95,-123,-94,-408,-248,-20,-421
-80,-135,-45,106,-21,-95,-129,-94,-408,-248,-20,-421
-80,-135,-45,106,-21,-95,-129,-94,-408,-248,-20,-421
-80,-135,-45,106,-21,-95,-129,-94,-408,-248,-20,-415
-80,-135,-45,106,-21,-95,-129,-94,-408,-248,-20,-415
-80,-135,-45,106,-21,-95,-129,-94,-408,-248,-20,-415
-80,-135,-45,106,-21,-95,-129,-94,-408,-248,-20,-415
-86,-135,-45,106,-21,-95,-129,-94,-408,-248,-20,-415
-86,-135,-45,106,-21,-95,-129,-94,-408,-248,-20,-415
-80,-135,-45,106,-21,-95,-129,-94,-408,-248,-20,-415
-80,-135,-45,106,-21,-95,-129,-94,-408,-248,-20,-415
-80,-135,-45,106,-21,-95,-129,-94,-414,-248,-20,-415
-80,-135,-45,106,-27,-95,-129,-94,-414,-248,-20,-415
-86,-135,-45,106,-27,-95,-129,-94,-414,-248,-20,-415
-80,-135,-45,106,-27,-95,-129,-94,-414,-248,-20,-415
-74,-135,-51,106,-21,-95,-129,-94,-414,-248,-20,-415
-74,-135,-51,106,-21,-95,-135,-94,-420,-248,-26,-415
-74,-135,-51,106,-21,-95,-135,-94,-420,-248,-26,-415
-68,-135,-51,100,-15,-95,-135,-94,-420,-248,-26,-415
-68,-135,-51,100,-15,-95,-135,-94,-420,-248,-26,-415
-68,-135,-51,100,-15,-95,-135,-94,-420,-248,-26,-415
-68,-135,-51,100,-15,-95,-135,-94,-420,-248,-26,-415
-68,-129,-51,100,-15,-95,-135,-94,-420,-248,-26,-409
-68,-123,-51,100,-15,-89,-129,-88,-420,-248,-20,-403
-68,-117,-45,100,-15,-83,-129,-82,-420,-248,-20,-397
-68,-111,-39,100,-21,-77,-129,-76,-420,-242,-14,-397
-68,-99,-27,94,-21,-71,-123,-70,-414,-230,-9,-391
-68,-93,-15,94,-27,-65,-117,-58,-408,-224,-3,-385
-68,-87,-3,94,-33,-53,-111,-52,-402,-212,-3,-385
-68,-81,-3,88,-33,-47,-105,-46,-396,-212,3,-385
-62,-69,-3,82,-33,-41,-105,-40,-390,-206,3,-385
-62,-63,3,76,-33,-35,-105,-34,-384,-200,3,-379
-62,-57,14,70,-39,-23,-105,-28,-378,-194,9,-373
-62,-45,26,64,-45,-11,-105,-22,-378,-194,15,-367
-62,-39,32,58,-51,-5,-105,-16,-378,-194,15,-361
-68,-39,38,58,-57,-5,-105,-10,-378,-194,15,-361
-68,-39,38,58,-57,-5,-105,-4,-378,-194,15,-355
-68,-39,38,58,-57,-5,-99,2,-378,-194,21,-355
-68,-33,38,58,-57,1,-99,8,-372,-188,27,-355
-68,-21,44,52,-57,7,-93,14,-372,-182,27,-349
-68,-15,50,52,-57,19,-93,14,-372,-182,27,-343
-68,-9,56,52,-57,25,-93,14,-372,-176,33,-343
-68,-9,56,46,-57,25,-93,14,-372,-176,33,-337
-62,-3,56,40,-57,25,-93,14,-372,-176,39,-337
-56,9,56,28,-51,25,-93,14,-366,-170,45,-337
-50,21,56,16,-51,30,-99,14,-360,-170,45,-337
-50,26,56,10,-51,30,-105,14,-360,-170,45,-337
-50,26,56,10,-51,30,-111,14,-360,-170,45,-331
-50,26,56,10,-51,30,-117,14,-360,-170,45,-331
-50,26,56,10,-51,30,-123,14,-360,-170,45,-331
-44,26,56,10,-51,36,-129,14,-360,-170,45,-331
-44,26,56,10,-51,36,-135,14,-360,-170,45,-331
-44,26,56,16,-51,36,-141,14,-360,-170,45,-331
-44,26,56,16,-51,36,-141,14,-360,-170,45,-331
-38,26,50,16,-45,36,-147,14,-366,-170,45,-331
-38,26,50,16,-45,36,-147,8,-366,-170,45,-331
-38,26,50,16,-45,36,-147,8,-366,-170,45,-325
-26,26,50,10,-39,36,-153,8,-366,-170,45,-319
-20,26,50,4,-27,36,-159,2,-372,-170,45,-319
-20,26,44,4,-21,30,-165,2,-378,-170,45,-319
-20,15,32,4,-21,19,-165,2,-384,-170,45,-319
-20,9,20,10,-21,7,-165,2,-384,-176,39,-319
-20,-3,14,16,-21,1,-165,2,-390,-182,39,-319
-26,-15,8,22,-21,-11,-165,2,-390,-182,33,-319
-32,-27,3,28,-21,-17,-165,2,-396,-188,27,-325
-38,-45,-3,40,-21,-29,-165,-4,-402,-194,15,-337
-44,-69,-15,52,-21,-41,-165,-10,-414,-206,-3,-343
-44,-81,-27,58,-15,-59,-165,-10,-420,-212,-9,-349
-44,-87,-33,58,-15,-71,-165,-10,-426,-212,-9,-355
-44,-93,-39,64,-15,-77,-165,-10,-426,-218,-14,-361
-44,-105,-45,76,-9,-89,-165,-16,-438,-230,-26,-373
-44,-111,-69,76,3,-95,-165,-16,-444,-236,-32,-373
-38,-111,-81,76,15,-101,-165,-16,-444,-236,-32,-373
-38,-117,-87,82,15,-107,-165,-16,-444,-242,-38,-373
-44,-129,-87,94,15,-113,-165,-16,-450,-248,-44,-379
-50,-141,-87,100,15,-113,-165,-16,-450,-248,-50,-379
-50,-147,-87,106,15,-113,-165,-16,-450,-248,-56,-379
-56,-153,-87,112,15,-113,-165,-16,-450,-248,-56,-379
-56,-153,-87,112,15,-113,-159,-16,-450,-248,-56,-379
-50,-147,-87,106,15,-113,-153,-10,-444,-242,-56,-379
-50,-141,-87,106,15,-113,-147,-4,-438,-230,-50,-373
-50,-141,-81,106,9,-107,-147,2,-426,-224,-38,-367
-50,-135,-75,106,9,-101,-141,14,-408,-212,-20,-355
-50,-129,-75,100,9,-95,-129,43,-384,-188,-9,-343
-50,-129,-75,100,9,-95,-123,61,-360,-170,9,-331
-50,-123,-75,94,9,-89,-111,85,-348,-152,21,-325
-38,-117,-75,76,15,-89,-99,109,-318,-122,33,-319
-26,-105,-75,64,21,-89,-93,121,-306,-104,45,-307
-26,-99,-69,64,21,-83,-93,133,-294,-92,57,-295
-26,-99,-69,64,21,-83,-93,139,-282,-86,69,-283
-26,-93,-69,64,21,-83,-93,145,-276,-74,81,-271
-14,-57,-63,40,21,-71,-93,151,-264,-62,105,-241
16,-27,-57,4,27,-53,-93,157,-258,-50,123,-229
28,-9,-57,-8,33,-41,-93,157,-252,-38,135,-217
40,-3,-57,-20,39,-35,-93,163,-240,-26,147,-211
46,-3,-57,-26,45,-29,-93,193,-222,-3,165,-193
51,-3,-57,-26,51,-29,-93,223,-186,33,195,-169
57,3,-57,-32,56,-23,-93,253,-156,63,225,-133
69,15,-57,-44,62,-23,-93,283,-144,81,243,-109
87,26,-57,-55,68,-17,-93,307,-132,93,255,-97
99,38,-57,-67,74,-17,-69,373,-114,99,261,-91
105,38,-57,-67,74,-17,32,493,-78,105,261,-91
105,38,-57,-67,74,-17,146,631,-18,111,261,-85
117,50,-57,-79,80,-17,242,775,83,153,285,-61
153,62,-75,-103,110,-17,302,877,185,243,339,-19
195,68,-117,-127,164,-17,344,997,317,375,453,52
279,80,-171,-169,236,-23,380,1135,539,579,609,172
381,122,-213,-241,308,-23,386,1249,791,861,837,346
489,224,-225,-349,350,-17,386,1369,1073,1191,1119,562
621,350,-231,-475,404,19,374,1513,1421,1569,1455,802
777,512,-231,-637,470,96,344,1699,1853,2042,1845,1108
921,698,-219,-799,518,222,290,1867,2296,2551,2282,1432
1011,866,-177,-919,542,342,206,1939,2679,3001,2665,1708
1053,998,-99,-1015,548,450,104,1957,3027,3433,3013,1948
1089,1112,-15,-1093,548,552,20,1963,3363,3835,3313,2151
1107,1184,32,-1135,548,612,-63,1945,3561,4099,3511,2271
1107,1184,32,-1135,548,612,-129,1843,3591,4135,3529,2283
1077,992,-45,-1027,554,486,-153,1753,3519,4027,3391,2163
993,710,-219,-841,572,246,-159,1621,3231,3637,3019,1882
873,500,-285,-685,572,102,-165,1429,2841,3169,2629,1582
723,356,-303,-535,548,25,-165,1219,2416,2665,2216,1276
549,212,-303,-373,452,-35,-153,1009,1913,2120,1785,964
345,62,-291,-205,320,-71,-135,733,1307,1521,1329,640
189,-45,-255,-67,212,-101,-129,457,653,921,897,340
111,-87,-225,-14,164,-113,-129,211,113,465,567,112
81,-105,-213,10,146,-119,-135,133,-126,243,387,-19
69,-111,-207,22,140,-125,-135,133,-144,183,285,-103
63,-111,-201,28,134,-131,-129,157,-144,159,231,-151
57,-111,-183,34,128,-131,-117,193,-138,147,213,-169
51,-111,-153,34,116,-131,-105,217,-126,141,207,-175
40,-111,-123,34,80,-125,-93,241,-120,141,207,-175
28,-111,-93,34,56,-113,-63,253,-114,141,207,-175
22,-105,-87,34,51,-107,-51,259,-108,135,207,-175
22,-93,-81,34,51,-95,-39,265,-108,123,201,-175
22,-81,-75,34,45,-77,-27,271,-114,105,189,-187
10,-75,-63,34,33,-65,-15,277,-126,93,165,-193
-2,-75,-51,40,21,-59,-3,283,-138,75,147,-205
-8,-75,-45,46,15,-53,9,283,-150,63,129,-211
-14,-75,-39,46,15,-53,15,283,-168,45,105,-223
-14,-75,-33,46,15,-53,20,283,-192,21,93,-235
-14,-75,-33,46,15,-53,20,283,-210,-3,81,-241
-14,-75,-33,46,15,-53,20,283,-222,-14,69,-247
-26,-75,-33,52,9,-53,20,277,-234,-26,63,-253
-32,-75,-27,52,3,-53,20,271,-240,-38,57,-259
-32,-69,-27,52,-3,-47,26,271,-246,-38,51,-259
-32,-63,-27,52,-3,-47,32,271,-246,-44,45,-259
-32,-63,-27,52,-3,-47,32,271,-246,-50,45,-265
-38,-63,-27,58,-9,-47,32,271,-252,-50,39,-271
-44,-63,-21,64,-15,-47,38,271,-258,-56,33,-271
-50,-63,-9,70,-21,-47,38,271,-264,-62,33,-271
-50,-63,-3,70,-21,-47,38,271,-270,-68,33,-271
-44,-63,-3,64,-21,-47,44,271,-270,-68,33,-271
-44,-63,-3,64,-21,-47,44,271,-276,-68,33,-271
-44,-69,-3,64,-21,-47,44,271,-282,-74,33,-271
-44,-69,-3,64,-21,-47,44,271,-282,-74,33,-271
-44,-63,-3,58,-21,-41,50,271,-282,-74,33,-271
-44,-63,-3,58,-21,-35,56,277,-276,-74,33,-271
-44,-63,-3,58,-21,-35,62,283,-276,-74,33,-271
-50,-63,3,64,-27,-35,62,283,-276,-74,33,-271
-50,-63,3,64,-27,-35,62,283,-276,-74,33,-271
-50,-63,3,64,-27,-35,62,289,-270,-74,33,-271
-44,-57,3,58,-27,-35,62,295,-270,-74,33,-271
-38,-51,3,52,-27,-29,62,301,-270,-74,33,-271
-38,-51,3,52,-27,-29,62,301,-270,-74,33,-271
-38,-51,3,52,-27,-29,68,301,-270,-74,33,-271
-32,-51,3,46,-27,-29,68,307,-264,-68,33,-271
-26,-51,3,40,-21,-29,68,313,-264,-62,33,-271
-20,-45,3,34,-21,-29,74,319,-258,-50,33,-271
-14,-33,3,28,-21,-17,80,331,-246,-44,33,-265
-14,-27,3,28,-21,-11,86,337,-234,-32,39,-259
-14,-21,8,28,-21,-5,92,349,-222,-26,45,-253
-20,-21,14,28,-27,-5,98,361,-216,-20,51,-253
-20,-15,14,28,-27,-5,98,367,-210,-14,51,-253
-20,-15,14,28,-27,-5,98,373,-204,-9,57,-247
-20,-15,26,28,-27,1,104,385,-198,-3,69,-241
-26,-15,38,28,-33,7,110,397,-186,9,75,-229
-26,-15,38,28,-33,13,116,403,-174,21,81,-223
-20,-3,38,16,-33,25,122,415,-162,33,87,-211
-14,9,44,10,-33,36,134,427,-150,45,93,-205
-14,21,50,10,-33,42,140,439,-138,57,99,-199
-14,26,50,10,-33,48,146,451,-132,63,105,-199
-14,26,50,4,-33,48,146,463,-126,75,111,-193
-14,32,50,-2,-33,48,152,475,-114,81,117,-193
-14,38,56,-2,-33,48,158,487,-102,87,123,-193
-14,38,56,-2,-33,48,158,493,-96,93,129,-187
-8,38,56,-8,-33,48,164,505,-90,99,129,-181
4,44,56,-20,-27,48,170,517,-78,111,135,-181
4,44,62,-20,-27,54,176,523,-60,123,141,-175
-2,44,74,-20,-39,60,182,535,-42,129,153,-169
-2,56,80,-26,-39,72,188,559,-24,141,165,-157
4,68,80,-38,-39,78,194,577,-12,153,177,-145
4,74,80,-38,-39,78,206,601,0,171,189,-139
4,80,86,-38,-39,78,218,613,23,189,195,-133
4,86,92,-38,-45,84,224,631,35,201,207,-127
4,92,104,-38,-45,90,230,643,53,207,219,-121
4,98,110,-38,-45,96,236,655,65,219,225,-115
4,98,110,-38,-51,96,242,667,83,231,231,-109
10,110,110,-44,-51,108,254,697,113,249,243,-97
22,128,116,-61,-51,120,266,727,143,267,255,-85
28,140,116,-73,-51,126,272,745,161,285,267,-79
28,146,122,-73,-51,132,284,769,179,309,279,-67
28,146,128,-79,-51,138,296,793,203,327,291,-55
34,152,128,-85,-51,144,302,805,221,345,303,-49
34,164,134,-91,-51,150,314,835,245,357,315,-37
34,176,152,-97,-57,162,326,859,275,381,333,-25
34,182,164,-97,-63,174,338,889,311,411,351,-13
40,188,164,-103,-63,180,350,919,341,435,369,-1
51,194,164,-115,-57,186,356,931,359,447,381,11
63,206,164,-127,-57,192,368,961,383,459,393,23
69,224,170,-139,-57,204,374,991,407,489,411,35
69,236,176,-145,-57,210,380,1015,437,519,423,46
75,242,176,-151,-57,210,392,1045,467,549,453,58
87,260,176,-163,-51,216,404,1075,503,579,465,82
129,302,176,-199,-39,228,416,1117,539,603,495,106
141,332,182,-217,-39,246,434,1147,581,633,525,118
135,332,200,-217,-45,258,446,1171,611,651,537,130
123,332,212,-211,-51,264,458,1183,635,675,555,142
123,332,218,-217,-51,276,470,1219,665,705,579,154
129,338,218,-223,-51,288,482,1255,701,729,609,166
129,344,218,-229,-51,294,488,1279,731,759,627,178
129,350,224,-235,-51,300,494,1303,761,801,645,202
135,362,230,-241,-51,306,500,1333,791,831,663,214
141,374,236,-247,-51,306,506,1345,827,849,675,232
147,386,242,-259,-51,312,512,1375,857,861,705,250
159,398,248,-271,-51,318,518,1393,887,885,717,262
171,410,248,-283,-45,324,518,1405,899,909,729,274
183,422,248,-295,-45,336,524,1417,929,933,741,280
183,428,248,-301,-45,342,530,1441,959,951,753,292
183,428,248,-301,-45,342,530,1453,977,963,771,304
183,428,248,-301,-45,342,530,1459,989,975,783,310
189,434,248,-307,-45,342,530,1471,1001,1005,801,322
201,458,248,-325,-33,348,536,1483,1019,1035,825,340
213,464,248,-337,-27,354,536,1489,1043,1053,837,364
213,464,248,-337,-27,354,536,1489,1049,1059,843,370
213,464,248,-337,-27,354,536,1489,1049,1065,849,376
213,464,248,-337,-27,354,530,1483,1049,1065,849,376
213,464,248,-337,-21,354,518,1471,1049,1065,849,376
219,464,248,-343,-15,354,512,1447,1049,1065,849,376
225,464,248,-343,-15,354,500,1417,1037,1059,849,376
225,458,242,-343,-15,354,470,1375,1007,1047,849,376
225,452,236,-337,-15,348,452,1339,971,1029,843,370
225,452,236,-337,-15,348,440,1297,941,1005,831,364
225,452,230,-337,-15,342,422,1243,899,975,819,358
213,428,230,-319,-15,330,392,1189,851,933,789,346
183,398,230,-289,-15,318,368,1141,797,891,759,328
177,386,230,-277,-15,312,356,1087,743,849,729,316
177,380,224,-277,-15,300,344,1039,701,813,699,304
177,368,218,-271,-15,288,320,991,653,771,669,286
177,356,212,-265,-15,282,302,949,593,723,639,262
177,338,200,-259,-15,270,272,895,527,669,597,220
171,308,170,-247,-9,246,248,829,449,615,555,184
165,272,140,-217,-3,216,236,775,401,561,507,154
153,248,128,-199,-3,204,218,721,347,519,465,124
141,242,122,-187,-3,198,200,667,287,459,423,94
129,218,116,-175,-3,186,176,625,245,411,387,64
117,182,110,-145,-3,156,158,589,191,369,351,40
99,164,110,-127,-3,150,146,559,155,327,321,23
93,158,104,-121,-3,144,140,535,131,297,303,11
93,152,92,-115,-3,138,134,505,95,261,285,-7
87,122,80,-103,-3,120,122,469,53,225,255,-37
57,92,74,-73,-3,96,110,433,0,183,213,-61
40,68,68,-44,-3,84,98,397,-36,153,183,-79
34,62,62,-38,-3,72,92,367,-60,135,165,-91
34,62,56,-38,-3,72,86,349,-78,117,153,-103
34,62,50,-38,-3,66,80,337,-102,93,141,-115
28,56,50,-32,-3,60,68,313,-126,63,129,-127
16,26,44,-14,-9,48,56,295,-150,33,99,-145
4,9,38,-2,-9,36,50,277,-162,21,87,-157
-2,-3,32,10,-9,30,44,265,-180,3,75,-169
-8,-9,32,16,-9,30,38,253,-192,-9,63,-181
-14,-15,32,22,-9,25,32,241,-210,-20,51,-187
-14,-21,32,22,-9,19,26,229,-222,-32,39,-193
-14,-27,20,22,-9,7,26,211,-246,-44,27,-199
-14,-33,8,22,-9,-5,20,193,-264,-62,15,-211
-14,-33,-3,28,-9,-11,15,181,-276,-74,3,-217
-14,-39,-9,28,-9,-17,9,175,-282,-80,-3,-223
-14,-39,-15,28,-9,-17,9,169,-288,-86,-9,-223
-14,-39,-15,28,-9,-17,9,163,-294,-92,-9,-229
-14,-45,-15,28,-9,-23,3,157,-300,-98,-14,-235
-14,-51,-15,34,-3,-23,-3,151,-312,-104,-20,-241
-14,-57,-15,34,-3,-23,-9,145,-318,-110,-26,-247
-14,-57,-15,34,-3,-23,-9,145,-318,-110,-26,-247
-14,-57,-15,34,-3,-23,-9,145,-318,-110,-32,-247
-20,-63,-15,46,-3,-29,-9,139,-324,-116,-32,-247
-32,-75,-15,58,-3,-35,-9,133,-324,-122,-32,-253
-38,-87,-15,70,-3,-41,-9,133,-324,-122,-38,-253
-38,-87,-15,70,-3,-41,-9,133,-324,-122,-38,-253
-38,-87,-15,70,-3,-41,-9,133,-330,-128,-44,-253
-38,-87,-15,70,-3,-41,-9,133,-330,-134,-50,-259
-44,-87,-15,70,-9,-41,-9,133,-330,-134,-50,-259
-44,-87,-21,70,-9,-41,-9,133,-336,-134,-50,-259
-44,-87,-27,70,-9,-41,-9,127,-336,-140,-56,-259
-44,-87,-27,70,-9,-41,-9,127,-336,-140,-56,-259
-44,-87,-27,70,-9,-41,-9,127,-336,-146,-56,-259
-44,-87,-33,70,-9,-47,-9,121,-336,-152,-62,-259
-44,-93,-33,70,-9,-47,-9,115,-336,-152,-62,-259
-44,-93,-33,70,-9,-47,-9,115,-336,-152,-62,-259
-44,-93,-33,70,-9,-47,-9,115,-336,-152,-62,-259
-44,-93,-33,70,-9,-47,-9,115,-336,-152,-62,-259
-44,-93,-33,70,-9,-47,-9,115,-336,-152,-62,-259
-44,-93,-33,70,-9,-47,-9,115,-336,-152,-62,-259
-44,-93,-39,70,-9,-53,-9,115,-336,-152,-62,-259
-44,-93,-39,70,-9,-53,-9,115,-336,-152,-62,-259
-44,-93,-39,70,-9,-53,-9,115,-336,-152,-62,-259
-44,-93,-39,70,-9,-53,-9,115,-336,-152,-62,-259
-44,-93,-39,70,-9,-53,-9,109,-336,-152,-62,-259
-44,-93,-39,70,-9,-53,-9,109,-336,-152,-62,-259
-44,-93,-39,70,-9,-53,-9,109,-336,-152,-62,-259
-38,-93,-45,70,-3,-53,-15,103,-336,-152,-62,-259
-38,-93,-45,70,-3,-53,-15,103,-336,-152,-62,-259
-38,-93,-45,70,-3,-53,-15,103,-336,-152,-62,-259
-38,-93,-39,70,-3,-53,-15,103,-336,-152,-62,-259
-38,-93,-33,70,-9,-53,-15,103,-336,-152,-62,-259
-38,-87,-33,70,-9,-53,-15,103,-336,-152,-62,-259
-26,-75,-33,58,-3,-47,-15,103,-336,-152,-62,-259
-26,-75,-33,58,-3,-47,-15,103,-336,-152,-62,-259
-38,-75,-33,64,-9,-47,-15,103,-336,-152,-62,-259
-44,-75,-33,64,-9,-47,-15,103,-336,-152,-62,-259
-44,-75,-33,64,-9,-47,-15,103,-336,-152,-62,-259
-44,-75,-33,64,-9,-47,-15,103,-336,-152,-62,-259
-44,-75,-33,64,-9,-47,-15,103,-336,-152,-62,-259
-44,-75,-33,64,-9,-47,-15,97,-336,-152,-62,-259
-44,-75,-33,64,-9,-47,-15,91,-336,-152,-62,-259
-44,-75,-33,64,-9,-47,-15,91,-336,-152,-62,-259
-44,-75,-33,64,-9,-47,-15,91,-336,-152,-62,-259
-44,-75,-33,64,-9,-47,-15,91,-336,-152,-62,-259
-44,-75,-33,64,-9,-47,-15,91,-336,-152,-62,-259
-44,-75,-33,64,-9,-47,-15,91,-336,-152,-62,-259
-44,-75,-33,64,-9,-47,-15,91,-336,-152,-62,-259
-44,-75,-33,64,-9,-47,-15,91,-336,-152,-62,-259
-38,-69,-33,64,-9,-41,-15,91,-336,-152,-62,-259
-38,-69,-27,64,-9,-41,-15,91,-336,-152,-62,-259
-44,-75,-21,70,-15,-41,-15,91,-336,-152,-62,-259
-44,-75,-21,70,-15,-41,-15,91,-336,-152,-62,-259
-44,-75,-15,70,-15,-35,-15,91,-336,-152,-62,-259
-44,-75,-15,70,-15,-35,-15,91,-336,-152,-62,-259
-50,-75,-9,70,-21,-35,-15,91,-336,-158,-62,-259
-62,-75,-3,76,-27,-29,-15,91,-336,-158,-62,-259
-68,-75,3,76,-33,-29,-15,91,-336,-158,-62,-259
-68,-75,3,76,-33,-29,-15,91,-336,-164,-62,-259
-62,-75,3,76,-33,-29,-15,91,-336,-164,-62,-259
-62,-75,3,76,-33,-29,-15,91,-342,-164,-62,-259
-62,-75,3,76,-33,-29,-15,91,-342,-164,-62,-253
-62,-75,3,76,-33,-29,-15,91,-348,-164,-62,-253
-62,-75,3,76,-33,-29,-15,85,-354,-164,-62,-253
-62,-75,-3,76,-33,-29,-15,85,-354,-164,-62,-253
-62,-75,-3,76,-33,-29,-15,85,-354,-164,-62,-253
-62,-75,-3,76,-33,-29,-15,79,-354,-164,-62,-253
-62,-75,-3,76,-33,-29,-15,73,-354,-164,-62,-253
-68,-75,-3,76,-33,-29,-15,73,-354,-170,-62,-253
-68,-75,-3,76,-33,-29,-15,73,-354,-170,-62,-253
-62,-75,-9,76,-27,-29,-15,73,-354,-170,-62,-253
-56,-75,-9,76,-21,-29,-15,73,-354,-170,-62,-253
-56,-75,-9,76,-21,-29,-15,73,-354,-170,-62,-253
-56,-75,-9,76,-21,-29,-15,73,-360,-170,-62,-253
-50,-75,-15,70,-15,-29,-15,67,-366,-176,-68,-253
-50,-75,-15,70,-15,-29,-15,61,-366,-182,-74,-253
-50,-81,-15,70,-15,-29,-15,61,-366,-182,-74,-253
-56,-87,-15,76,-21,-29,-15,61,-366,-182,-74,-253
-56,-87,-15,76,-21,-29,-15,61,-372,-188,-80,-253
-56,-87,-15,76,-21,-29,-15,61,-372,-188,-80,-253
-56,-87,-15,76,-21,-29,-15,55,-372,-188,-80,-253
-80,-99,-15,88,-27,-35,-21,49,-378,-194,-86,-253
-80,-99,-15,88,-27,-35,-21,49,-378,-194,-86,-253
-68,-87,-15,76,-27,-35,-21,49,-378,-194,-86,-253
-56,-81,-15,64,-21,-35,-21,49,-378,-194,-86,-247
-44,-81,-15,64,-21,-35,-21,49,-378,-194,-86,-247
-32,-69,-15,52,-15,-35,-21,49,-378,-194,-86,-247
-26,-63,-15,46,-9,-35,-21,49,-378,-194,-86,-247
-26,-63,-15,46,-9,-35,-21,43,-384,-200,-92,-247
-26,-69,-21,46,-9,-35,-21,37,-390,-200,-98,-247
-32,-69,-21,52,-9,-35,-21,37,-396,-200,-104,-247
-38,-69,-21,58,-9,-35,-21,37,-396,-200,-104,-247
-44,-69,-21,58,-9,-35,-21,37,-396,-206,-104,-247
-50,-75,-21,64,-9,-35,-21,37,-402,-212,-104,-247
-56,-81,-21,70,-9,-35,-21,31,-408,-212,-104,-247
-56,-81,-21,70,-15,-35,-21,31,-408,-212,-104,-247
-56,-81,-21,70,-21,-35,-21,31,-408,-212,-104,-247
-56,-81,-21,70,-21,-35,-27,31,-408,-212,-104,-247
-56,-87,-21,76,-21,-41,-27,31,-408,-212,-104,-247
-56,-87,-21,76,-21,-41,-33,31,-408,-212,-104,-247
-56,-87,-21,76,-21,-41,-33,25,-408,-212,-104,-247
-56,-87,-27,76,-21,-41,-33,25,-408,-212,-104,-247
-56,-87,-33,76,-15,-41,-33,25,-408,-212,-104,-247
-56,-93,-33,82,-15,-41,-33,19,-408,-212,-104,-247
-68,-99,-33,88,-21,-41,-33,14,-408,-218,-104,-247
-68,-99,-33,88,-21,-41,-33,14,-408,-218,-104,-247
-62,-93,-33,82,-21,-41,-33,14,-408,-218,-104,-247
-62,-87,-27,76,-21,-41,-33,14,-408,-218,-104,-247
-68,-87,-21,76,-27,-41,-33,8,-408,-224,-104,-247
-68,-87,-21,76,-27,-41,-33,2,-408,-230,-104,-247
-62,-87,-27,76,-21,-41,-33,2,-408,-230,-104,-247
-62,-87,-27,76,-21,-41,-33,2,-408,-230,-104,-247
-62,-87,-27,76,-21,-41,-39,-4,-408,-236,-110,-247
-62,-93,-27,76,-21,-41,-39,-10,-408,-242,-110,-247
-62,-99,-27,76,-21,-47,-39,-10,-408,-242,-110,-247
-62,-105,-33,76,-21,-53,-39,-10,-408,-242,-110,-247
-62,-105,-33,76,-21,-53,-39,-10,-408,-242,-110,-247
-62,-105,-33,76,-21,-53,-39,-16,-408,-242,-110,-247
-68,-105,-33,82,-21,-53,-39,-16,-408,-242,-110,-247
-74,-105,-33,88,-21,-53,-39,-16,-408,-242,-110,-247
-74,-105,-33,88,-21,-53,-39,-22,-408,-242,-110,-247
-74,-105,-33,88,-21,-53,-39,-22,-408,-242,-110,-247
-74,-105,-33,88,-21,-53,-39,-22,-414,-242,-110,-247
-74,-105,-33,88,-21,-53,-39,-22,-414,-242,-110,-247
-74,-105,-33,88,-21,-53,-39,-22,-414,-248,-110,-247
-68,-105,-33,88,-15,-53,-39,-28,-414,-248,-110,-247
-68,-105,-33,88,-15,-53,-45,-28,-414,-248,-110,-247
-68,-105,-33,88,-15,-53,-51,-34,-414,-248,-110,-247
-68,-105,-33,88,-15,-53,-51,-34,-414,-248,-116,-247
-68,-105,-33,88,-15,-53,-51,-34,-414,-248,-116,-247
-62,-105,-33,88,-15,-53,-51,-34,-414,-248,-116,-247
-62,-105,-33,94,-15,-53,-51,-40,-414,-254,-122,-247
-62,-105,-27,94,-15,-53,-51,-40,-414,-254,-122,-247
-62,-93,-21,82,-15,-47,-45,-40,-414,-254,-122,-241
-62,-87,-21,76,-15,-41,-45,-40,-414,-254,-122,-241
-62,-93,-21,82,-15,-41,-45,-46,-420,-260,-122,-241
-62,-99,-21,82,-15,-47,-45,-52,-420,-266,-122,-241
-56,-99,-21,82,-15,-47,-45,-52,-420,-266,-122,-241
-50,-99,-21,82,-15,-47,-45,-52,-420,-266,-122,-241
-50,-105,-21,88,-15,-53,-45,-52,-420,-266,-128,-241
-50,-105,-27,88,-15,-53,-45,-52,-420,-266,-134,-241
-50,-99,-27,82,-15,-53,-45,-52,-420,-266,-134,-241
-44,-99,-27,82,-9,-53,-45,-52,-420,-266,-134,-241
-50,-105,-27,82,-9,-53,-45,-52,-420,-266,-134,-241
-62,-111,-27,88,-9,-53,-45,-58,-420,-266,-134,-241
-62,-117,-33,88,-9,-59,-45,-64,-420,-266,-134,-241
-62,-117,-33,88,-9,-59,-45,-64,-420,-266,-134,-241
-62,-117,-33,88,-9,-59,-45,-64,-420,-266,-134,-241
-62,-117,-33,88,-9,-59,-45,-64,-420,-266,-134,-241
-62,-117,-33,88,-9,-59,-45,-64,-420,-266,-134,-241
-62,-117,-33,88,-9,-59,-45,-64,-420,-266,-134,-241
-62,-117,-33,88,-9,-59,-45,-70,-414,-266,-134,-241
-68,-117,-33,88,-9,-59,-45,-70,-414,-266,-134,-241
-68,-117,-33,88,-9,-59,-45,-70,-414,-266,-134,-241
-68,-111,-33,88,-9,-59,-45,-70,-414,-266,-134,-241
-68,-111,-33,88,-9,-59,-45,-70,-408,-266,-134,-241
-68,-111,-33,88,-9,-59,-45,-70,-408,-266,-134,-241
-68,-111,-33,88,-9,-59,-45,-76,-408,-266,-134,-241
-68,-111,-33,88,-9,-59,-45,-76,-408,-266,-134,-241
-68,-111,-33,88,-9,-59,-45,-76,-408,-266,-134,-241
-68,-111,-33,88,-9,-59,-45,-76,-408,-266,-140,-241
-68,-111,-33,88,-9,-59,-45,-82,-408,-266,-146,-241
-68,-111,-33,88,-9,-59,-45,-82,-408,-266,-146,-241
-68,-111,-33,88,-9,-59,-45,-82,-408,-266,-146,-241
-68,-111,-33,88,-9,-59,-45,-82,-408,-266,-146,-241
-68,-111,-33,88,-9,-59,-45,-82,-402,-266,-146,-241
-68,-111,-33,88,-9,-59,-45,-82,-402,-266,-146,-241
-68,-111,-33,88,-9,-59,-45,-82,-402,-266,-146,-241
-68,-111,-33,88,-9,-59,-45,-82,-402,-266,-146,-241
-68,-111,-33,88,-9,-59,-45,-82,-396,-266,-146,-241
-68,-111,-33,88,-9,-59,-45,-82,-396,-266,-146,-241
-68,-111,-33,88,-9,-59,-45,-82,-396,-266,-146,-241
-62,-105,-33,88,-9,-59,-45,-82,-396,-266,-146,-241
-56,-105,-39,88,-9,-59,-45,-82,-396,-266,-146,-241
-56,-111,-51,88,-3,-65,-45,-88,-390,-266,-146,-241
-56,-117,-57,88,-3,-71,-51,-94,-390,-266,-152,-241
-56,-117,-57,88,-3,-71,-51,-100,-390,-266,-158,-247
-56,-117,-51,88,-3,-71,-51,-100,-390,-266,-158,-247
-56,-111,-45,88,-3,-71,-51,-100,-390,-266,-158,-247
-56,-111,-39,88,-9,-65,-51,-100,-384,-266,-158,-247
-56,-111,-39,88,-9,-65,-51,-100,-384,-266,-158,-247
-56,-111,-39,88,-9,-65,-51,-100,-384,-266,-158,-247
-56,-111,-33,88,-9,-59,-51,-100,-378,-266,-158,-247
-68,-111,-27,88,-15,-53,-51,-100,-378,-266,-158,-247
-74,-111,-27,88,-21,-53,-51,-100,-378,-266,-158,-241
-74,-105,-27,88,-21,-53,-51,-94,-372,-266,-158,-235
-68,-99,-27,82,-15,-53,-51,-94,-372,-266,-158,-229
-62,-87,-21,76,-15,-47,-51,-94,-366,-266,-158,-223
-62,-75,-9,70,-21,-35,-51,-88,-360,-260,-152,-223
-62,-63,3,64,-21,-23,-45,-82,-348,-254,-146,-223
-56,-51,8,58,-21,-17,-45,-82,-342,-248,-140,-217
-50,-39,14,46,-21,-5,-39,-76,-336,-242,-134,-211
-50,-33,20,40,-21,1,-33,-76,-330,-242,-134,-205
-56,-33,26,40,-27,7,-33,-76,-324,-236,-128,-205
-56,-33,26,40,-33,13,-27,-76,-318,-236,-128,-205
-56,-27,32,40,-39,19,-27,-76,-318,-236,-128,-205
-56,-21,38,40,-45,25,-27,-76,-318,-236,-128,-205
-56,-21,44,40,-51,25,-27,-76,-318,-236,-128,-205
-56,-21,44,40,-51,25,-21,-76,-318,-236,-128,-205
-56,-27,44,40,-51,25,-21,-76,-318,-236,-128,-205
-56,-27,44,40,-51,25,-21,-76,-318,-236,-128,-205
-56,-27,44,40,-51,25,-21,-76,-312,-230,-128,-205
-56,-15,50,28,-51,36,-21,-76,-300,-224,-122,-199
-56,-3,56,22,-51,48,-21,-76,-294,-218,-116,-193
-56,3,62,22,-51,54,-21,-76,-288,-212,-116,-187
-56,9,62,22,-51,60,-21,-76,-288,-206,-116,-181
-50,21,68,10,-51,66,-21,-76,-288,-200,-110,-181
-44,26,68,4,-51,66,-27,-76,-288,-194,-104,-175
-44,26,68,4,-51,66,-33,-76,-282,-194,-104,-169
-44,26,68,4,-51,66,-39,-76,-282,-194,-104,-169
-44,26,68,4,-51,66,-45,-76,-282,-194,-104,-169
-44,26,68,4,-51,66,-51,-82,-282,-200,-104,-169
-44,26,68,4,-51,66,-57,-88,-282,-206,-104,-169
-38,26,68,4,-51,66,-63,-88,-282,-206,-104,-169
-32,26,62,4,-45,66,-63,-88,-282,-206,-110,-175
-26,26,56,4,-39,60,-63,-94,-282,-212,-110,-175
-26,26,50,4,-39,60,-69,-94,-282,-218,-110,-175
-20,26,50,4,-33,60,-75,-94,-282,-218,-110,-175
-20,26,50,-2,-33,60,-81,-100,-282,-218,-110,-175
-20,26,50,-8,-33,60,-87,-106,-282,-218,-110,-169
-20,26,50,-8,-33,60,-87,-106,-276,-218,-110,-163
-20,26,50,-8,-33,54,-87,-106,-276,-218,-110,-163
-20,21,44,-8,-27,42,-87,-106,-276,-218,-110,-163
-20,9,32,-2,-21,30,-87,-106,-276,-218,-110,-163
-20,-3,26,4,-21,19,-87,-112,-276,-218,-110,-163
-20,-9,14,10,-15,13,-87,-112,-276,-224,-110,-163
-20,-21,-3,10,-9,1,-87,-112,-276,-230,-116,-163
-26,-51,-15,28,-9,-11,-87,-112,-276,-236,-128,-169
-38,-99,-27,64,-9,-47,-87,-118,-282,-260,-152,-181
-44,-117,-39,76,-9,-65,-87,-124,-288,-272,-164,-193
-44,-117,-45,76,-3,-71,-87,-130,-288,-272,-170,-205
-44,-117,-57,76,3,-77,-87,-130,-288,-278,-176,-211
-44,-129,-63,82,3,-83,-87,-130,-288,-284,-182,-217
-50,-135,-69,94,3,-89,-87,-136,-294,-290,-188,-223
-50,-141,-69,100,3,-89,-87,-136,-294,-296,-194,-229
-50,-141,-69,100,3,-89,-87,-136,-294,-302,-194,-229
-50,-141,-69,100,3,-89,-87,-136,-294,-302,-194,-229
-50,-141,-69,100,3,-89,-87,-136,-294,-302,-194,-229
-50,-147,-69,106,3,-95,-87,-136,-294,-302,-200,-235
-56,-153,-69,112,3,-101,-87,-136,-294,-302,-206,-235
-56,-153,-69,112,3,-101,-87,-136,-294,-302,-206,-235
-50,-147,-69,106,9,-101,-81,-136,-288,-296,-206,-229
-44,-141,-75,100,15,-101,-75,-130,-276,-284,-194,-223
-44,-141,-75,100,15,-101,-75,-124,-264,-278,-182,-217
-50,-141,-75,106,15,-101,-69,-112,-252,-266,-170,-211
-50,-141,-75,106,15,-101,-63,-82,-222,-254,-158,-205
-44,-129,-75,94,21,-95,-51,-52,-192,-230,-146,-199
-20,-111,-75,70,33,-89,-39,-40,-168,-212,-134,-193
-8,-105,-75,58,39,-89,-33,-28,-150,-194,-122,-181
-8,-105,-75,58,39,-89,-27,-22,-138,-176,-110,-169
-8,-105,-69,58,33,-83,-21,-16,-126,-164,-98,-157
-8,-93,-63,52,33,-71,-21,-10,-102,-152,-86,-127
-8,-81,-57,46,27,-59,-15,2,-84,-140,-62,-109
-8,-69,-51,40,27,-53,-15,2,-78,-128,-50,-97
22,-45,-51,16,39,-47,-21,2,-72,-116,-44,-91
40,-21,-57,-8,51,-41,-21,2,-66,-104,-32,-79
51,-15,-57,-14,56,-41,-21,14,-54,-86,-14,-67
57,-9,-57,-20,62,-35,-21,31,-30,-62,3,-55
63,-9,-57,-26,62,-35,-21,49,-6,-38,33,-31
69,-9,-57,-32,68,-35,-21,61,6,-20,45,-1
99,-3,-63,-44,80,-35,-21,79,17,-9,57,17
117,9,-69,-55,92,-35,-15,115,41,3,69,35
129,21,-69,-67,98,-35,26,211,83,9,75,40
129,21,-75,-67,98,-35,140,343,137,15,81,46
129,21,-75,-67,98,-35,254,481,209,33,87,52
129,21,-87,-67,104,-35,314,583,293,81,117,76
165,26,-123,-85,140,-35,362,691,407,183,207,130
243,44,-165,-139,200,-35,422,829,593,363,345,238
339,80,-207,-211,266,-35,452,967,833,615,537,388
429,128,-231,-283,332,-35,452,1075,1103,915,783,580
525,218,-243,-379,386,-29,440,1171,1391,1263,1083,808
651,362,-243,-493,440,25,422,1315,1763,1683,1449,1060
777,530,-243,-643,488,120,386,1513,2206,2186,1881,1384
909,722,-213,-799,518,246,326,1651,2649,2695,2336,1714
999,884,-165,-925,542,366,242,1693,3021,3163,2725,2002
1053,1010,-93,-1021,554,474,158,1711,3381,3625,3085,2229
1083,1130,-3,-1093,554,582,80,1711,3693,4015,3379,2421
1089,1166,50,-1111,542,624,-3,1645,3831,4201,3523,2516
1083,1136,50,-1099,536,612,-45,1537,3831,4201,3517,2510
1029,866,-75,-949,542,402,-51,1447,3681,3979,3259,2301
915,620,-213,-763,548,198,-51,1291,3351,3553,2863,2014
783,458,-255,-625,542,96,-57,1087,2949,3073,2473,1720
645,332,-261,-475,500,36,-57,889,2487,2539,2037,1408
489,200,-261,-325,404,-11,-33,655,1919,1923,1563,1066
321,74,-261,-181,308,-53,-21,373,1247,1263,1071,706
171,-39,-249,-50,212,-95,-21,109,611,669,645,400
75,-105,-225,22,158,-113,-21,-70,167,279,351,196
40,-129,-213,52,128,-125,-33,-100,41,123,195,70
28,-141,-201,64,110,-131,-39,-94,35,75,87,-19
22,-147,-189,70,104,-137,-39,-70,41,51,39,-61
16,-147,-165,70,92,-137,-39,-46,53,51,33,-67
10,-135,-123,70,74,-125,-33,-16,65,51,33,-67
10,-123,-105,70,62,-107,-33,-4,77,51,33,-67
10,-111,-99,70,62,-101,-33,8,77,45,33,-67
10,-105,-93,70,56,-95,-27,14,77,39,33,-67
10,-93,-81,64,51,-83,-9,19,77,33,33,-67
10,-81,-69,58,39,-71,9,25,77,21,27,-67
10,-63,-63,46,33,-47,20,31,71,9,15,-67
10,-51,-51,34,27,-35,32,37,65,-3,3,-73
4,-51,-45,34,21,-35,44,37,47,-14,-26,-79
-8,-57,-45,40,15,-35,50,37,17,-44,-56,-91
-14,-57,-39,40,9,-35,50,37,0,-62,-68,-103
-14,-57,-33,40,9,-35,56,37,-12,-74,-80,-115
-14,-57,-27,46,3,-35,56,37,-24,-86,-86,-121
-20,-57,-21,46,-3,-35,56,31,-36,-98,-92,-127
-20,-57,-21,46,-3,-35,56,25,-48,-110,-104,-139
-26,-63,-21,52,-3,-35,56,19,-54,-122,-116,-145
-32,-63,-21,52,-9,-35,56,19,-54,-128,-122,-151
-32,-51,-15,46,-9,-23,62,19,-54,-128,-122,-151
-26,-39,-9,40,-9,-11,68,19,-54,-128,-122,-151
-26,-39,-3,40,-9,-11,68,19,-60,-134,-134,-151
-32,-39,-3,46,-15,-11,68,19,-66,-146,-140,-157
-38,-45,-3,52,-21,-11,68,19,-72,-152,-146,-157
-44,-45,-3,58,-27,-11,68,19,-78,-152,-146,-157
-38,-45,-3,58,-27,-11,68,19,-78,-152,-146,-157
-26,-45,-3,52,-21,-11,68,19,-78,-152,-146,-157
-26,-45,-3,52,-21,-11,68,19,-78,-152,-146,-157
-38,-45,3,52,-27,-5,68,19,-78,-152,-146,-157
-38,-45,3,52,-27,-5,68,25,-78,-152,-146,-157
-38,-45,3,52,-27,-5,68,25,-78,-152,-146,-157
-38,-45,3,52,-27,-5,68,25,-78,-152,-146,-157
-38,-45,3,52,-27,-5,68,25,-78,-152,-146,-157
-38,-45,3,52,-27,-5,68,25,-78,-152,-146,-157
-38,-33,8,46,-27,1,74,37,-72,-146,-140,-151
-38,-27,14,40,-27,7,80,43,-66,-140,-140,-151
-38,-27,14,40,-27,7,80,49,-60,-140,-140,-151
-32,-27,14,40,-27,7,80,49,-60,-140,-140,-151
-32,-27,14,40,-27,7,86,49,-54,-140,-140,-151
-32,-27,14,40,-27,7,92,55,-48,-134,-140,-151
-26,-21,14,34,-27,7,98,67,-42,-122,-140,-151
-20,-15,14,28,-27,7,98,73,-36,-116,-140,-151
-20,-9,14,28,-27,7,98,79,-30,-110,-140,-151
-20,-3,14,28,-27,13,98,85,-24,-104,-140,-151
-26,-3,20,28,-27,19,104,91,-18,-98,-134,-145
-26,-3,26,28,-27,25,104,97,-6,-92,-128,-145
-20,-3,26,22,-27,25,104,103,0,-86,-128,-139
-14,3,26,16,-21,25,110,109,12,-80,-122,-133
-14,3,26,16,-21,30,116,121,23,-68,-116,-127
-20,3,38,16,-27,30,122,127,35,-62,-110,-121
-20,3,44,16,-33,30,122,139,47,-50,-104,-115
-20,9,50,16,-33,36,128,145,53,-38,-98,-115
-14,15,50,10,-33,36,128,157,59,-32,-92,-115
-14,21,50,10,-33,36,134,163,65,-26,-86,-109
-14,21,50,10,-33,36,140,175,77,-20,-74,-103
-20,21,56,10,-39,42,152,205,95,-9,-62,-91
-20,44,68,-2,-39,72,158,223,113,3,-50,-79
-8,74,74,-20,-39,84,164,235,125,9,-38,-73
-8,74,74,-26,-39,84,164,241,137,15,-32,-67
-8,74,74,-26,-39,84,170,253,149,27,-26,-61
-8,74,80,-32,-39,84,176,271,167,39,-14,-55
-2,80,80,-38,-39,90,182,289,185,57,-9,-43
4,80,80,-38,-39,90,188,307,197,69,3,-37
4,80,80,-38,-39,90,194,319,209,75,9,-31
10,86,80,-38,-39,90,200,331,221,81,15,-25
10,98,86,-44,-39,102,206,343,233,93,21,-19
10,98,86,-44,-39,102,212,355,245,99,27,-13
10,98,86,-44,-39,108,218,367,257,105,33,-13
22,110,92,-55,-39,114,224,391,287,117,45,-7
40,134,98,-85,-39,126,236,421,317,147,57,-1
40,140,104,-85,-39,132,248,445,335,177,75,5
40,140,110,-85,-39,132,254,457,347,201,87,17
40,140,116,-85,-39,138,260,475,365,213,99,29
40,146,122,-85,-39,144,266,499,383,225,111,40
40,152,128,-85,-39,150,272,529,413,249,129,52
40,164,134,-85,-39,162,290,553,443,273,147,64
40,170,140,-91,-39,174,302,565,467,285,159,76
40,170,146,-91,-39,180,308,583,491,297,165,82
40,176,152,-97,-39,186,320,613,521,321,177,88
57,206,158,-121,-39,198,338,649,563,363,201,100
69,224,164,-133,-39,204,350,679,593,393,219,112
75,230,164,-139,-39,204,356,697,617,423,231,124
87,254,170,-157,-39,216,368,739,659,453,267,148
93,272,176,-169,-39,228,380,781,701,489,297,172
93,278,182,-169,-45,234,386,799,725,513,309,184
93,278,182,-169,-45,240,392,811,749,525,321,190
99,278,182,-181,-45,240,398,829,779,555,339,202
111,284,182,-187,-39,240,410,859,815,585,369,220
111,284,182,-187,-39,240,416,883,845,615,393,238
111,290,188,-187,-39,246,422,907,875,645,423,250
111,302,200,-199,-39,258,428,949,923,693,453,280
123,332,206,-229,-39,282,440,979,959,741,483,310
135,350,212,-241,-39,294,452,1009,989,777,507,328
147,356,212,-247,-39,300,458,1021,1007,789,519,340
153,362,212,-253,-39,306,464,1039,1031,801,531,346
159,368,212,-259,-39,306,470,1063,1061,825,543,358
165,374,212,-265,-33,306,476,1081,1097,855,573,376
165,380,218,-265,-33,312,482,1105,1139,891,603,400
165,386,236,-265,-39,318,488,1135,1169,921,621,418
159,386,242,-265,-45,318,494,1147,1199,945,633,430
159,386,242,-265,-45,318,500,1159,1211,969,645,442
183,416,242,-283,-39,324,500,1171,1235,999,657,454
213,446,242,-313,-33,336,500,1183,1247,1017,669,460
213,446,248,-313,-33,342,500,1189,1259,1023,675,460
207,440,248,-313,-33,342,500,1189,1265,1035,681,466
213,446,248,-319,-33,354,500,1189,1277,1047,699,478
225,458,248,-337,-27,366,500,1189,1289,1059,711,484
225,464,248,-337,-27,372,500,1189,1301,1065,723,490
225,464,248,-337,-27,372,494,1183,1307,1071,729,496
225,464,248,-337,-27,366,488,1171,1307,1071,735,496
231,464,242,-337,-21,366,476,1141,1301,1071,735,496
243,464,236,-337,-9,366,458,1111,1289,1071,735,496
249,464,230,-337,3,366,446,1075,1259,1065,735,496
249,464,230,-337,9,366,434,1039,1223,1053,735,496
231,440,230,-325,3,360,422,997,1181,1029,723,496
201,410,230,-301,-3,348,398,943,1121,987,699,490
201,398,218,-295,-3,330,386,889,1067,933,675,478
201,392,212,-295,-3,318,362,841,1019,885,645,466
201,392,206,-295,-3,312,338,781,965,843,603,442
201,380,200,-289,-3,300,326,739,905,783,549,406
195,350,188,-277,-3,270,296,685,827,729,489,370
183,320,182,-241,-3,258,278,637,773,669,447,340
171,302,176,-223,-3,252,266,589,713,615,411,310
159,278,170,-211,-3,246,254,547,647,561,381,280
147,266,164,-199,-3,234,242,505,593,519,345,250
147,254,152,-193,-3,222,230,451,533,471,303,220
135,224,122,-181,-3,192,206,403,473,405,261,178
117,212,116,-157,-3,180,194,355,431,363,225,148
105,206,116,-151,-3,174,188,337,401,327,195,136
99,194,110,-145,-3,162,176,307,365,297,165,118
87,152,98,-121,-3,132,164,265,305,261,123,88
57,104,86,-79,-3,108,146,223,245,213,81,58
46,86,80,-61,-3,102,134,193,203,171,51,35
46,80,74,-55,-3,96,128,163,167,135,27,23
40,68,68,-50,-3,90,122,139,131,99,3,5
34,62,62,-44,-3,78,116,121,101,69,-9,-7
28,56,56,-38,-3,72,110,103,89,57,-20,-19
22,50,50,-32,-3,66,104,79,65,33,-32,-31
22,38,44,-26,-3,54,92,61,35,9,-62,-43
16,21,32,-14,-3,42,86,49,17,-3,-80,-55
10,9,26,-2,-3,25,80,37,0,-14,-92,-67
-2,-9,20,10,-3,13,74,25,-18,-26,-104,-79
-8,-21,14,22,-3,7,74,8,-36,-44,-116,-91
-14,-27,8,28,-3,1,68,-4,-54,-56,-128,-97
-20,-33,3,34,-3,-5,62,-16,-72,-74,-140,-109
-20,-45,-9,40,-3,-17,56,-40,-96,-104,-152,-121
-20,-57,-21,46,-3,-29,50,-52,-108,-116,-164,-133
-26,-63,-21,52,-3,-29,44,-58,-114,-122,-176,-139
-32,-63,-21,52,-3,-29,44,-64,-120,-128,-182,-145
-32,-69,-21,52,-3,-35,44,-70,-126,-140,-194,-151
-32,-81,-33,58,-3,-47,38,-82,-138,-152,-206,-157
-32,-81,-33,64,-3,-47,32,-88,-144,-152,-212,-163
-32,-81,-33,64,-3,-47,32,-88,-144,-152,-212,-163
-32,-81,-33,64,-3,-47,32,-88,-150,-158,-212,-163
-32,-81,-33,64,-3,-47,32,-94,-156,-164,-218,-163
-38,-87,-33,70,-3,-53,26,-100,-162,-170,-218,-163
-38,-87,-33,70,-3,-53,26,-100,-162,-170,-218,-163
-38,-87,-33,70,-3,-53,26,-100,-162,-170,-218,-163
-38,-87,-39,70,3,-53,26,-100,-162,-170,-224,-169
-38,-87,-39,70,3,-53,26,-100,-162,-176,-230,-175
-38,-93,-39,76,3,-53,26,-106,-162,-176,-236,-181
-50,-105,-39,88,-3,-53,26,-106,-162,-176,-248,-181
-62,-111,-39,94,-9,-53,26,-106,-162,-182,-254,-187
-62,-111,-39,94,-9,-53,26,-106,-162,-182,-254,-187
-50,-105,-45,82,3,-53,26,-106,-162,-182,-254,-187
-44,-99,-51,76,9,-53,26,-106,-162,-182,-254,-187
-44,-99,-57,76,9,-59,26,-112,-162,-182,-254,-187
-44,-99,-57,76,9,-65,26,-112,-162,-182,-254,-187
-44,-99,-57,76,9,-65,26,-112,-162,-182,-254,-187
-44,-99,-57,76,9,-65,26,-112,-162,-182,-254,-187
-38,-99,-63,76,9,-65,26,-112,-162,-182,-248,-187
-38,-105,-69,76,9,-71,26,-112,-162,-182,-248,-187
-38,-111,-69,76,9,-71,26,-112,-162,-182,-248,-187
-38,-111,-69,76,9,-71,26,-112,-162,-182,-248,-187
-38,-111,-69,76,9,-71,26,-118,-168,-182,-248,-187
-38,-117,-69,82,9,-71,26,-118,-168,-182,-248,-187
-38,-117,-69,82,9,-71,26,-118,-168,-182,-248,-187
-38,-117,-69,82,9,-71,32,-118,-168,-182,-248,-187
-38,-117,-69,82,9,-71,32,-118,-168,-182,-248,-187
-44,-117,-69,82,9,-71,32,-118,-168,-182,-248,-187
-44,-117,-69,82,9,-71,32,-118,-174,-182,-248,-187
-44,-117,-69,82,9,-71,32,-118,-174,-182,-248,-187
-44,-117,-63,82,9,-71,32,-118,-174,-182,-248,-187
-44,-111,-57,82,9,-65,38,-118,-174,-182,-248,-187
-44,-105,-51,82,9,-65,44,-118,-174,-182,-248,-187
-44,-105,-51,82,9,-65,44,-118,-174,-182,-248,-187
-44,-105,-51,82,9,-65,44,-118,-174,-182,-248,-187
-44,-99,-51,82,9,-65,44,-118,-174,-182,-248,-187
-44,-99,-51,82,9,-65,44,-118,-174,-182,-248,-187
-44,-99,-51,82,9,-65,44,-118,-174,-182,-248,-187
-50,-99,-45,82,3,-65,44,-118,-174,-182,-248,-187
-50,-99,-45,82,3,-65,44,-118,-174,-182,-248,-187
-50,-99,-45,82,-3,-65,44,-118,-174,-182,-248,-187
-50,-99,-45,82,-3,-65,44,-118,-174,-182,-248,-187
-50,-99,-45,82,-3,-65,44,-118,-174,-182,-248,-187
-50,-99,-45,82,-3,-65,44,-118,-174,-182,-248,-187
-50,-99,-39,82,-3,-65,44,-118,-174,-182,-248,-187
-50,-99,-39,82,-3,-65,44,-118,-174,-182,-248,-187
-50,-99,-39,82,-3,-65,44,-118,-174,-182,-248,-187
-50,-99,-39,82,-3,-65,44,-118,-174,-182,-248,-187
-50,-99,-45,82,-3,-65,44,-124,-174,-182,-248,-187
-50,-99,-45,82,-3,-65,44,-124,-174,-182,-248,-187
-56,-99,-45,82,-3,-65,44,-124,-174,-182,-248,-187
-62,-99,-39,88,-9,-65,44,-124,-174,-182,-248,-187
-62,-99,-39,88,-9,-65,44,-124,-174,-182,-248,-187
-62,-93,-39,82,-9,-59,44,-124,-174,-182,-242,-181
-62,-93,-39,76,-9,-59,44,-124,-174,-182,-242,-175
-62,-93,-39,76,-9,-59,44,-130,-180,-182,-242,-175
-62,-93,-33,76,-9,-59,44,-130,-186,-182,-242,-175
-62,-93,-27,76,-15,-53,44,-130,-186,-182,-242,-175
-62,-93,-27,76,-15,-53,44,-130,-186,-182,-242,-175
-62,-93,-27,76,-15,-53,44,-130,-186,-182,-242,-175
-62,-93,-27,76,-15,-53,44,-130,-186,-182,-242,-175
-62,-93,-27,76,-15,-53,44,-130,-186,-182,-242,-175
-62,-93,-27,76,-15,-53,38,-142,-192,-188,-248,-175
-68,-105,-27,88,-15,-53,38,-148,-198,-194,-254,-175
-68,-111,-27,94,-15,-53,38,-148,-198,-194,-254,-175
-62,-111,-39,94,-9,-53,38,-148,-204,-194,-254,-175
-50,-105,-39,88,-3,-53,38,-148,-204,-194,-254,-175
-50,-105,-39,88,-3,-53,38,-148,-204,-194,-254,-175
-56,-105,-39,88,-9,-53,38,-148,-210,-194,-260,-175
-56,-105,-39,88,-9,-53,38,-148,-210,-194,-260,-181
-56,-105,-39,88,-9,-53,38,-148,-210,-194,-260,-181
-50,-99,-39,82,-9,-53,38,-148,-210,-194,-260,-181
-44,-93,-39,76,-3,-53,38,-148,-210,-194,-260,-181
-44,-93,-39,76,-3,-53,38,-148,-210,-194,-260,-181
-50,-99,-39,82,-3,-53,38,-154,-210,-194,-260,-181
-50,-99,-39,82,-3,-53,38,-154,-216,-194,-266,-181
-50,-99,-39,82,-3,-53,38,-154,-216,-194,-266,-181
-50,-99,-39,82,-3,-53,38,-154,-216,-194,-266,-181
-50,-99,-39,82,-3,-53,38,-154,-216,-194,-266,-181
-56,-99,-39,88,-9,-53,38,-154,-216,-194,-266,-181
-68,-105,-39,100,-15,-53,38,-160,-222,-194,-266,-181
-80,-111,-33,106,-27,-53,38,-166,-228,-194,-272,-187
-80,-111,-33,106,-27,-53,38,-166,-234,-194,-272,-187
-74,-105,-33,100,-27,-53,38,-166,-234,-194,-272,-187
-68,-105,-33,94,-21,-53,38,-166,-234,-194,-272,-187
-68,-105,-27,94,-21,-53,38,-166,-234,-194,-272,-187
-68,-105,-27,94,-21,-53,38,-166,-240,-194,-272,-187
-68,-105,-27,94,-21,-53,32,-172,-240,-194,-272,-187
-68,-105,-27,94,-21,-53,32,-172,-246,-194,-272,-187
-68,-105,-33,94,-21,-53,32,-172,-246,-194,-272,-187
-68,-105,-39,94,-21,-53,32,-172,-246,-194,-272,-187
-68,-105,-39,94,-21,-53,26,-172,-246,-194,-272,-187
-68,-105,-39,94,-21,-53,26,-178,-252,-200,-272,-187
-68,-105,-39,94,-21,-53,26,-178,-252,-200,-272,-187
-68,-105,-39,94,-21,-53,26,-184,-258,-200,-272,-187
-68,-105,-39,94,-21,-53,26,-184,-264,-200,-272,-187
-68,-105,-39,94,-21,-53,26,-184,-264,-200,-272,-187
-68,-105,-33,94,-21,-53,26,-184,-264,-206,-278,-187
-68,-105,-33,94,-21,-53,26,-184,-270,-206,-278,-187
-68,-105,-39,94,-21,-53,20,-184,-270,-206,-284,-187
-68,-105,-39,94,-21,-53,20,-184,-270,-206,-284,-187
-68,-105,-39,94,-21,-53,20,-184,-276,-212,-290,-187
-68,-105,-39,94,-21,-53,15,-190,-282,-218,-296,-193
-68,-105,-39,94,-15,-53,15,-196,-282,-218,-302,-193
-62,-105,-39,88,-9,-53,15,-202,-282,-218,-302,-199
-62,-105,-39,88,-3,-53,15,-202,-282,-218,-308,-199
-62,-105,-39,88,-3,-53,15,-202,-282,-224,-308,-199
-68,-105,-39,88,-9,-53,15,-202,-288,-230,-308,-199
-74,-105,-33,88,-15,-53,15,-208,-288,-230,-308,-199
-74,-105,-33,88,-15,-53,15,-208,-288,-230,-308,-199
-74,-105,-33,88,-15,-53,9,-208,-294,-236,-308,-199
-74,-105,-33,88,-15,-53,9,-208,-300,-236,-308,-199
-74,-105,-33,88,-15,-53,9,-208,-300,-236,-308,-199
-74,-111,-33,88,-15,-53,9,-214,-300,-236,-308,-199
-80,-117,-33,100,-15,-53,9,-214,-300,-236,-308,-199
-80,-117,-33,100,-15,-53,3,-214,-300,-236,-308,-199
-80,-117,-33,100,-15,-53,3,-214,-306,-236,-308,-199
-80,-117,-39,100,-15,-59,3,-214,-306,-242,-308,-199
-74,-117,-39,100,-15,-59,3,-214,-306,-242,-308,-199
-62,-111,-39,94,-15,-59,3,-214,-306,-242,-308,-199
-62,-111,-39,94,-9,-59,3,-220,-306,-242,-308,-199
-62,-111,-39,94,-9,-59,3,-232,-306,-242,-308,-199
-62,-111,-39,94,-9,-59,3,-250,-306,-242,-308,-199
-62,-111,-39,94,-9,-59,3,-274,-306,-242,-308,-199
-62,-111,-39,94,-9,-59,3,-292,-312,-242,-308,-199
-62,-111,-39,94,-9,-59,3,-304,-312,-242,-314,-199
-62,-111,-39,94,-9,-59,3,-310,-312,-248,-314,-205
-62,-111,-39,94,-9,-59,3,-316,-312,-254,-314,-205
-62,-111,-39,94,-9,-59,3,-328,-312,-254,-314,-205
-62,-111,-39,100,-9,-59,3,-340,-312,-254,-314,-205
-62,-111,-39,100,-9,-59,-3,-346,-312,-254,-314,-205
-68,-111,-39,100,-9,-59,-3,-346,-312,-254,-314,-205
-68,-117,-39,100,-9,-59,-3,-346,-312,-254,-314,-211
-68,-117,-39,94,-9,-59,-3,-346,-312,-254,-314,-211
-62,-117,-39,94,-9,-59,-3,-346,-312,-254,-314,-211
-62,-117,-39,94,-9,-59,-3,-352,-318,-254,-320,-211
-62,-123,-39,100,-9,-59,-3,-358,-324,-254,-326,-211
-62,-123,-39,100,-9,-59,-3,-358,-324,-254,-326,-211
-62,-123,-39,100,-9,-59,-3,-358,-324,-254,-326,-211
-62,-123,-39,100,-9,-59,-3,-358,-324,-254,-326,-211
-62,-123,-39,100,-9,-59,-3,-358,-324,-254,-326,-211
-62,-123,-39,100,-9,-59,-3,-364,-324,-254,-326,-211
-68,-123,-39,100,-15,-59,-3,-364,-324,-248,-326,-211
-68,-123,-39,100,-15,-59,-3,-364,-324,-248,-320,-211
-68,-123,-45,100,-15,-59,-3,-370,-324,-248,-320,-211
-68,-123,-45,100,-15,-59,-3,-376,-324,-248,-320,-211
-62,-117,-45,100,-15,-59,3,-376,-324,-248,-314,-211
-62,-117,-45,100,-15,-59,3,-376,-324,-248,-314,-205
-62,-117,-45,100,-15,-65,3,-376,-324,-248,-314,-205
-62,-117,-45,100,-15,-65,3,-382,-324,-248,-314,-205
-68,-117,-45,100,-15,-65,3,-382,-324,-248,-314,-205
-68,-117,-45,100,-15,-65,3,-382,-324,-248,-314,-205
-68,-117,-45,100,-15,-65,3,-388,-324,-248,-314,-205
-68,-117,-45,100,-15,-65,3,-388,-324,-248,-314,-205
-68,-117,-45,100,-15,-65,3,-388,-324,-248,-314,-205
-68,-117,-45,100,-15,-65,3,-388,-324,-248,-314,-205
-68,-117,-45,100,-15,-65,3,-388,-324,-248,-314,-205
-68,-117,-39,100,-15,-65,3,-388,-324,-248,-320,-211
-68,-117,-39,100,-15,-65,3,-388,-324,-248,-326,-217
-68,-123,-39,100,-15,-71,3,-394,-324,-248,-326,-217
-68,-123,-45,100,-15,-71,3,-394,-324,-248,-326,-217
-62,-123,-51,100,-9,-71,3,-394,-324,-248,-326,-217
-62,-123,-51,100,-9,-71,3,-394,-324,-248,-326,-217
-68,-123,-51,100,-15,-71,3,-394,-324,-248,-326,-217
-68,-123,-45,100,-15,-71,3,-394,-324,-242,-320,-217
-68,-123,-45,100,-15,-71,3,-394,-324,-236,-314,-211
-68,-123,-45,100,-15,-71,3,-394,-324,-236,-314,-211
-74,-123,-45,106,-15,-71,3,-394,-324,-236,-314,-211
-74,-123,-45,106,-15,-71,3,-394,-324,-236,-314,-211
-74,-123,-45,106,-15,-71,3,-394,-324,-236,-314,-211
-74,-123,-45,106,-15,-71,3,-394,-324,-236,-314,-211
-80,-123,-45,106,-21,-71,3,-394,-324,-236,-314,-211
-86,-123,-39,106,-21,-71,3,-394,-324,-236,-320,-211
-86,-123,-39,106,-21,-71,3,-394,-324,-236,-320,-211
-80,-123,-39,100,-21,-71,3,-394,-324,-236,-320,-211
-74,-123,-39,100,-21,-71,3,-394,-324,-236,-320,-211
-74,-123,-39,100,-21,-71,3,-400,-324,-236,-320,-211
-74,-117,-33,100,-21,-65,3,-400,-324,-230,-320,-205
-74,-117,-27,100,-21,-65,3,-400,-324,-230,-320,-199
-74,-117,-21,100,-21,-65,3,-400,-324,-224,-320,-193
-74,-117,-15,100,-27,-59,9,-400,-324,-224,-320,-187
-74,-93,-9,94,-27,-41,20,-394,-312,-218,-314,-181
-68,-81,-3,82,-27,-29,26,-388,-306,-212,-308,-181
-68,-81,-3,82,-27,-29,26,-388,-300,-212,-308,-181
-74,-81,3,82,-33,-29,26,-388,-300,-212,-308,-181
-74,-81,8,82,-39,-23,32,-388,-294,-212,-308,-181
-74,-63,20,70,-45,-11,38,-382,-288,-206,-308,-181
-68,-33,32,58,-45,7,44,-382,-276,-200,-308,-175
-62,-21,38,52,-45,19,44,-382,-270,-188,-308,-169
-62,-21,44,52,-45,25,44,-382,-270,-182,-308,-169
-62,-21,44,52,-51,25,44,-382,-270,-182,-308,-169
-62,-21,44,52,-51,25,44,-382,-270,-182,-308,-169
-62,-21,44,52,-51,25,44,-382,-270,-176,-302,-169
-62,-21,44,52,-57,25,44,-382,-270,-176,-302,-169
-62,-21,44,52,-57,25,44,-382,-270,-176,-302,-169
-56,-21,38,46,-57,19,44,-382,-270,-176,-302,-169
-56,-21,38,46,-57,19,44,-382,-270,-176,-302,-169
-56,-15,50,40,-57,30,44,-382,-270,-176,-302,-169
-56,-3,62,34,-57,42,38,-382,-270,-176,-302,-169
-56,3,68,28,-57,48,32,-382,-270,-170,-302,-163
-50,9,74,22,-57,54,26,-382,-270,-170,-302,-163
-44,21,80,16,-57,60,20,-382,-264,-170,-302,-163
-44,26,86,10,-57,66,20,-382,-258,-170,-296,-157
-44,26,92,10,-69,72,20,-382,-258,-170,-296,-151
-56,26,98,16,-81,72,20,-388,-258,-170,-296,-151
-62,26,98,16,-87,72,15,-394,-258,-170,-296,-151
-62,26,98,16,-87,72,9,-400,-258,-170,-290,-151
-56,26,92,16,-81,72,3,-406,-264,-170,-290,-151
-44,26,80,16,-69,66,-3,-412,-270,-170,-290,-145
-32,26,68,10,-45,66,-9,-418,-276,-170,-290,-139
-32,26,68,10,-39,60,-15,-424,-282,-170,-290,-133
-32,26,68,10,-39,60,-21,-430,-288,-170,-290,-127
-32,26,74,10,-39,60,-27,-436,-288,-170,-290,-127
-32,26,74,10,-39,60,-33,-436,-294,-176,-290,-127
-32,21,62,10,-39,54,-33,-436,-300,-176,-290,-127
-32,15,50,10,-39,42,-33,-436,-306,-182,-290,-133
-32,9,38,16,-39,36,-33,-436,-312,-188,-296,-139
-38,-9,38,28,-39,25,-33,-442,-312,-194,-302,-145
-44,-33,26,40,-39,13,-33,-442,-318,-200,-308,-157
-44,-45,14,40,-27,1,-33,-442,-318,-206,-320,-163
-44,-51,3,40,-15,-11,-33,-442,-318,-212,-326,-169
-44,-75,-3,52,-15,-29,-33,-442,-324,-218,-338,-175
-50,-105,-27,76,-15,-59,-33,-442,-330,-224,-344,-181
-50,-117,-45,82,-9,-71,-33,-442,-336,-230,-350,-187
-50,-117,-51,82,-9,-71,-33,-442,-336,-230,-350,-187
-56,-117,-51,82,-9,-71,-27,-442,-342,-230,-350,-193
-68,-117,-51,88,-9,-71,-27,-442,-348,-230,-356,-199
-74,-129,-51,100,-9,-77,-27,-448,-354,-230,-362,-199
-80,-141,-51,112,-9,-83,-27,-448,-354,-236,-362,-199
-80,-147,-51,118,-9,-89,-21,-448,-354,-236,-362,-205
-80,-153,-51,118,-9,-89,-21,-448,-354,-236,-362,-205
-80,-153,-57,118,-9,-89,-21,-448,-354,-236,-362,-205
-80,-153,-57,118,-9,-89,-21,-448,-354,-236,-362,-205
-80,-153,-57,118,-9,-89,-21,-448,-354,-236,-362,-205
-80,-153,-57,118,-9,-89,-15,-448,-354,-236,-362,-205
-74,-147,-57,118,-9,-89,-9,-442,-348,-230,-356,-199
-68,-141,-57,112,-3,-89,-3,-436,-336,-224,-350,-193
-68,-135,-57,112,-3,-89,3,-424,-324,-212,-338,-187
-68,-135,-57,112,-3,-89,9,-406,-288,-182,-314,-175
-68,-135,-57,112,-3,-89,20,-376,-258,-152,-290,-151
-68,-135,-57,106,-3,-89,32,-346,-234,-128,-272,-139
-62,-123,-57,94,-3,-83,38,-334,-222,-116,-260,-127
-56,-117,-51,82,-3,-77,38,-328,-216,-110,-248,-115
-50,-117,-51,76,-3,-71,38,-328,-210,-104,-242,-109
-50,-111,-51,76,-3,-71,38,-328,-204,-98,-236,-103
-44,-87,-51,64,-3,-59,38,-328,-198,-92,-224,-91
-26,-51,-51,46,3,-47,32,-328,-192,-80,-212,-79
-14,-33,-51,34,9,-35,26,-328,-186,-68,-200,-67
-8,-27,-45,28,9,-29,20,-328,-174,-44,-176,-49
-2,-21,-39,22,9,-23,15,-316,-150,-14,-146,-19
10,-15,-39,16,15,-23,15,-304,-126,9,-122,-7
34,-15,-39,4,27,-23,15,-292,-114,21,-110,11
57,-9,-39,-20,39,-23,15,-280,-102,27,-98,23
63,-9,-39,-26,45,-23,15,-256,-90,33,-92,35
69,-9,-45,-26,51,-23,20,-208,-78,39,-92,40
87,-9,-69,-38,74,-23,74,-94,-36,39,-92,40
93,-9,-93,-38,86,-29,182,43,23,39,-98,40
99,-9,-105,-38,92,-35,266,175,113,57,-98,40
123,-3,-117,-44,122,-41,326,277,233,141,-50,76
171,9,-135,-73,164,-41,386,391,383,291,81,178
213,26,-147,-109,194,-41,434,523,599,513,267,316
267,50,-165,-151,236,-41,452,631,851,801,507,484
375,122,-177,-253,278,-35,446,709,1133,1137,801,700
507,266,-183,-385,338,7,434,811,1463,1551,1155,964
615,422,-183,-517,380,102,404,961,1865,2042,1587,1282
717,602,-147,-655,398,228,344,1099,2290,2575,2060,1624
813,824,-51,-805,404,390,254,1147,2673,3073,2497,1948
927,1028,44,-961,410,546,158,1165,3021,3565,2905,2247
993,1196,140,-1081,410,672,68,1165,3363,4027,3277,2492
999,1280,260,-1117,398,786,-27,1105,3579,4345,3535,2654
999,1286,290,-1117,380,798,-105,943,3603,4429,3595,2696
975,1160,254,-1063,380,714,-123,841,3567,4369,3535,2642
891,842,32,-865,392,444,-123,763,3309,4021,3175,2355
777,596,-87,-685,404,258,-117,613,2937,3553,2743,2026
621,434,-117,-529,398,168,-105,451,2517,3031,2306,1714
459,302,-123,-379,326,108,-57,283,2021,2443,1827,1366
297,158,-123,-223,236,48,-3,73,1397,1737,1281,970
147,26,-123,-73,158,-11,15,-142,725,1029,759,598
63,-63,-123,16,116,-53,20,-316,173,483,363,334
22,-111,-123,58,98,-95,20,-388,-102,207,141,184
-2,-135,-123,76,86,-113,20,-394,-120,129,15,82
-8,-147,-123,82,80,-119,20,-388,-120,99,-56,23
-8,-147,-123,82,74,-119,20,-376,-108,93,-74,-1
-8,-141,-111,76,68,-119,20,-364,-84,93,-80,-7
-8,-129,-99,70,62,-107,20,-352,-72,93,-86,-7
-8,-105,-87,64,51,-89,20,-346,-66,93,-92,-13
-8,-81,-75,58,45,-65,20,-334,-66,87,-92,-19
-8,-57,-63,46,39,-53,26,-322,-66,87,-98,-25
-8,-45,-51,40,27,-41,32,-310,-66,81,-104,-25
-20,-45,-39,40,15,-35,38,-304,-66,69,-110,-31
-32,-45,-9,46,-3,-29,44,-298,-72,45,-122,-37
-44,-45,20,46,-21,-17,56,-292,-78,27,-134,-43
-50,-45,32,46,-33,-11,68,-292,-90,3,-152,-49
-56,-51,32,52,-33,-11,74,-292,-114,-26,-176,-61
-62,-57,32,58,-33,-11,74,-292,-144,-50,-206,-79
-68,-63,32,64,-33,-11,80,-292,-162,-62,-224,-91
-74,-63,32,70,-39,-11,80,-292,-174,-74,-236,-103
-80,-63,32,70,-45,-11,80,-292,-180,-86,-242,-109
-80,-63,32,70,-45,-11,80,-292,-186,-98,-248,-115
-68,-63,20,64,-39,-11,80,-298,-192,-110,-254,-121
-68,-63,14,64,-33,-17,80,-298,-198,-122,-266,-127
-68,-63,14,64,-33,-17,80,-298,-204,-134,-272,-133
-68,-63,14,64,-33,-17,80,-298,-204,-140,-278,-133
-68,-63,20,64,-33,-11,80,-298,-204,-146,-284,-133
-74,-63,32,64,-45,-5,80,-298,-204,-146,-284,-139
-80,-63,44,64,-51,1,86,-298,-204,-146,-284,-139
-80,-63,44,64,-51,1,86,-298,-204,-146,-284,-139
-80,-63,44,64,-51,1,86,-298,-204,-146,-284,-139
-80,-63,38,64,-51,1,86,-298,-210,-146,-284,-139
-74,-63,32,64,-51,1,86,-298,-210,-146,-284,-139
-68,-57,32,64,-51,1,86,-292,-210,-146,-284,-139
-68,-51,32,64,-51,1,86,-292,-210,-146,-284,-139
-68,-51,32,64,-51,1,86,-292,-210,-146,-284,-139
-62,-51,32,58,-51,1,86,-286,-210,-146,-284,-139
-50,-39,32,46,-45,1,92,-286,-210,-140,-278,-133
-44,-33,32,46,-45,1,92,-286,-210,-140,-278,-133
-44,-33,32,46,-45,7,92,-280,-204,-140,-272,-133
-44,-27,38,40,-45,13,92,-274,-198,-140,-272,-127
-44,-21,38,40,-45,13,92,-268,-192,-134,-272,-127
-44,-21,38,40,-45,13,92,-268,-192,-128,-272,-127
-44,-21,38,40,-45,13,92,-262,-186,-122,-266,-127
-44,-21,44,40,-45,19,92,-250,-174,-110,-260,-121
-44,-15,56,40,-51,25,98,-244,-168,-104,-254,-115
-44,-15,62,40,-57,30,98,-238,-162,-98,-254,-115
-44,-15,62,40,-57,30,98,-232,-162,-98,-254,-115
-44,-9,62,34,-57,30,104,-226,-156,-92,-254,-115
-44,-3,62,34,-57,36,110,-220,-150,-80,-242,-109
-44,3,68,34,-57,36,110,-214,-138,-74,-230,-103
-44,9,68,34,-57,42,110,-208,-132,-68,-224,-103
-44,15,74,28,-57,48,110,-196,-120,-62,-218,-103
-44,21,80,28,-57,54,116,-190,-108,-56,-212,-97
-44,21,86,28,-57,60,116,-184,-102,-50,-212,-97
-44,26,92,22,-57,60,116,-178,-90,-44,-206,-97
-44,26,98,22,-63,66,116,-172,-78,-32,-200,-91
-44,32,104,22,-69,72,122,-160,-72,-20,-200,-85
-44,38,110,16,-69,78,122,-154,-60,-14,-194,-79
-44,50,116,10,-69,90,128,-148,-48,-9,-182,-73
-44,62,116,4,-75,96,134,-142,-36,-3,-170,-67
-44,68,122,4,-81,102,140,-130,-18,9,-158,-55
-44,68,122,4,-81,102,146,-118,0,15,-146,-49
-32,74,122,-8,-75,102,152,-106,17,27,-134,-43
-20,80,122,-20,-69,102,158,-94,29,39,-128,-37
-14,80,122,-26,-63,102,164,-82,41,45,-122,-31
-14,86,122,-32,-63,102,170,-70,53,57,-116,-25
-14,86,128,-32,-63,108,176,-58,65,69,-110,-19
-14,92,134,-32,-69,114,182,-46,77,75,-104,-13
-14,104,140,-32,-75,126,188,-34,101,87,-92,-7
-14,116,146,-38,-75,138,194,-10,125,99,-80,-1
-14,122,152,-38,-75,144,200,2,137,123,-68,5
-14,122,152,-38,-75,150,206,19,161,141,-56,17
-14,128,158,-38,-75,156,218,49,191,171,-38,29
-8,146,164,-50,-75,168,224,67,203,183,-20,40
-8,158,176,-61,-75,180,230,85,221,195,-9,46
-8,158,182,-67,-81,186,236,97,251,219,-3,52
-2,170,188,-79,-81,192,248,115,263,237,3,58
10,182,188,-91,-81,192,254,145,293,249,15,70
10,188,194,-97,-81,198,260,163,317,261,21,76
10,200,200,-103,-81,210,266,175,347,273,33,82
16,218,206,-115,-81,222,272,199,377,303,51,94
16,224,212,-115,-81,234,284,229,407,333,75,118
16,230,218,-115,-87,240,290,253,437,357,93,130
16,236,224,-115,-93,246,302,283,461,393,123,148
22,248,230,-127,-93,252,314,319,503,435,159,172
46,278,230,-145,-93,258,332,349,545,477,189,190
57,284,230,-157,-87,264,344,361,563,495,201,196
57,284,230,-157,-87,264,350,373,587,507,213,202
57,284,236,-157,-87,270,356,403,629,537,231,214
57,296,254,-163,-87,282,368,433,671,567,261,232
63,314,260,-181,-87,294,374,451,707,603,285,256
69,320,260,-187,-87,306,380,481,737,633,297,274
69,326,266,-187,-87,312,386,511,767,669,327,286
69,332,272,-193,-87,318,392,541,797,705,357,304
81,356,272,-205,-87,324,398,565,839,735,381,322
93,368,272,-217,-87,330,404,583,875,765,393,334
93,374,278,-223,-87,336,410,601,905,795,405,346
105,392,290,-241,-87,348,422,631,941,825,435,364
135,440,296,-283,-81,378,434,661,977,861,465,376
147,452,302,-289,-75,384,446,673,1007,879,477,388
147,452,308,-289,-75,384,446,685,1025,897,489,400
147,452,314,-289,-75,384,446,697,1055,927,519,424
147,452,314,-289,-75,390,446,715,1079,957,555,448
153,458,314,-295,-75,396,446,733,1103,987,585,472
159,464,314,-301,-75,396,446,751,1127,1017,597,484
159,464,320,-301,-81,402,446,763,1157,1047,615,502
159,470,320,-301,-81,402,446,769,1169,1065,627,508
159,476,320,-307,-81,402,446,769,1181,1077,639,514
159,476,320,-307,-81,402,446,775,1187,1083,645,520
159,476,326,-307,-81,402,446,775,1193,1089,651,526
159,476,326,-307,-81,402,446,775,1193,1089,657,526
171,476,326,-313,-75,402,440,769,1193,1089,657,526
189,482,326,-319,-69,402,434,757,1193,1089,663,526
189,488,326,-325,-69,402,422,733,1187,1089,663,526
189,488,326,-325,-69,402,410,709,1175,1089,663,526
189,488,326,-325,-69,402,398,679,1145,1083,663,526
183,482,320,-319,-69,402,374,637,1109,1065,657,526
183,482,314,-319,-69,402,350,589,1067,1023,645,520
189,482,308,-319,-57,402,338,553,1019,975,627,514
189,476,302,-319,-51,396,320,511,959,933,597,502
183,452,302,-307,-51,384,302,457,899,879,555,490
165,422,302,-289,-51,372,278,409,839,825,519,472
153,410,290,-271,-57,360,266,367,785,771,489,442
147,398,284,-265,-57,348,248,325,731,729,453,424
141,392,278,-259,-57,342,236,283,677,681,417,400
135,368,272,-247,-57,330,212,241,611,633,375,370
123,338,260,-223,-57,312,200,193,545,573,327,334
111,314,248,-199,-57,294,182,145,485,513,285,298
87,284,236,-169,-57,276,164,103,425,441,231,262
75,266,230,-151,-57,264,152,61,371,387,189,232
69,248,224,-145,-57,252,140,25,317,345,147,208
63,230,206,-133,-57,234,128,-4,275,309,117,190
57,218,194,-127,-57,216,116,-34,233,267,87,160
57,206,182,-121,-57,204,104,-64,191,219,51,136
57,182,164,-109,-57,186,92,-94,143,177,15,106
51,152,146,-97,-51,162,80,-130,95,141,-26,76
40,140,134,-85,-51,150,68,-160,53,105,-62,52
28,116,122,-61,-51,138,56,-190,12,75,-92,23
-2,92,122,-32,-51,126,50,-208,-18,33,-122,11
-14,80,122,-20,-51,120,44,-220,-36,3,-140,-1
-14,80,122,-20,-51,120,38,-238,-60,-14,-152,-13
-14,74,116,-20,-51,114,32,-256,-72,-26,-164,-25
-14,68,110,-14,-51,102,26,-268,-84,-38,-170,-31
-26,50,110,-2,-57,90,20,-274,-108,-50,-176,-37
-38,44,110,10,-63,84,15,-286,-120,-62,-188,-49
-44,38,110,16,-63,84,15,-298,-138,-74,-194,-61
-44,32,104,16,-63,84,9,-310,-150,-86,-206,-67
-44,26,98,16,-63,78,3,-322,-174,-104,-230,-79
-44,21,92,22,-63,72,-3,-334,-186,-128,-248,-91
-44,15,86,22,-63,66,-3,-346,-198,-146,-260,-103
-44,9,86,22,-57,60,-3,-352,-204,-152,-266,-109
-44,3,80,28,-57,48,-9,-358,-210,-158,-272,-115
-44,-3,74,34,-57,42,-15,-364,-222,-164,-284,-121
-44,-9,68,34,-51,36,-21,-370,-234,-170,-290,-133
-44,-15,62,34,-51,30,-27,-382,-240,-176,-296,-139
-44,-21,56,40,-51,25,-33,-388,-246,-176,-296,-145
-44,-21,50,40,-45,25,-33,-388,-246,-176,-302,-145
-44,-27,50,46,-45,19,-33,-394,-252,-182,-302,-145
-50,-33,50,52,-45,13,-39,-394,-258,-188,-302,-145
-50,-33,50,52,-45,13,-39,-394,-258,-194,-302,-145
-50,-39,44,58,-45,7,-39,-394,-264,-200,-308,-145
-56,-45,44,64,-45,1,-39,-400,-264,-200,-314,-145
-62,-51,44,64,-45,1,-39,-406,-270,-206,-314,-145
-62,-51,44,64,-45,1,-39,-406,-270,-206,-314,-145
-62,-51,44,64,-45,1,-39,-406,-270,-206,-314,-145
-62,-51,44,64,-45,1,-39,-406,-270,-206,-314,-145
-62,-51,44,64,-45,1,-45,-406,-276,-212,-320,-151
-62,-51,44,64,-45,1,-45,-412,-282,-212,-326,-157
-62,-51,44,64,-45,1,-45,-412,-288,-212,-332,-163
-62,-51,44,64,-45,1,-51,-412,-288,-212,-332,-163
-62,-51,44,64,-45,1,-51,-412,-288,-212,-332,-163
-62,-51,44,64,-45,1,-51,-412,-288,-212,-332,-163
-62,-51,38,64,-45,-5,-51,-412,-288,-212,-332,-163
-62,-51,32,64,-45,-5,-51,-412,-288,-212,-332,-163
-62,-51,32,64,-45,-5,-51,-412,-288,-212,-332,-163
-62,-51,32,64,-45,-5,-51,-412,-288,-212,-332,-163
-62,-57,32,70,-45,-5,-51,-412,-288,-212,-332,-163
-62,-57,32,70,-45,-5,-51,-412,-288,-212,-332,-163
-62,-57,32,70,-45,-5,-51,-412,-288,-212,-332,-163
-62,-57,32,70,-45,-5,-51,-412,-288,-212,-332,-163
-62,-57,32,70,-45,-5,-51,-412,-288,-212,-332,-163
-62,-57,32,70,-45,-5,-51,-412,-288,-212,-332,-163
-68,-57,38,70,-51,-5,-51,-412,-288,-212,-332,-163
-68,-57,38,70,-51,-5,-51,-412,-288,-212,-332,-163
-68,-57,38,70,-51,-5,-51,-412,-288,-212,-332,-163
-68,-57,44,70,-51,-5,-51,-412,-288,-212,-332,-163
-74,-57,44,76,-51,-5,-51,-412,-288,-212,-332,-163
-86,-63,44,82,-57,-5,-51,-412,-288,-212,-332,-163
-86,-63,44,82,-57,1,-51,-412,-288,-212,-332,-163
-80,-51,44,76,-57,1,-51,-412,-288,-212,-326,-163
-74,-51,44,70,-57,1,-51,-412,-288,-212,-320,-163
-74,-51,44,70,-57,1,-51,-412,-288,-212,-320,-163
-74,-51,44,70,-57,1,-51,-406,-288,-212,-320,-163
-74,-51,44,70,-57,1,-51,-406,-288,-212,-320,-163
-74,-51,44,70,-57,1,-51,-406,-288,-212,-320,-163
-74,-51,44,70,-57,1,-51,-406,-288,-212,-320,-163
-68,-45,44,64,-57,13,-51,-406,-288,-212,-320,-163
-68,-39,50,64,-57,19,-51,-406,-288,-212,-320,-163
-68,-39,56,64,-57,25,-51,-406,-288,-212,-320,-163
-68,-39,56,64,-57,25,-51,-406,-288,-212,-320,-163
-68,-39,56,64,-57,25,-51,-406,-288,-212,-320,-163
-68,-39,56,64,-57,25,-51,-406,-288,-212,-320,-163
-68,-39,56,64,-57,25,-51,-406,-282,-212,-320,-157
-68,-39,50,64,-51,25,-51,-406,-282,-212,-320,-157
-68,-39,50,64,-51,25,-51,-406,-282,-212,-320,-157
-68,-39,50,64,-51,25,-51,-406,-282,-212,-320,-157
-68,-39,50,64,-51,25,-51,-406,-282,-212,-320,-157
-74,-39,50,64,-51,25,-51,-406,-282,-212,-320,-157
-74,-39,50,64,-51,25,-51,-406,-282,-212,-320,-157
-74,-39,50,64,-51,25,-51,-406,-282,-212,-320,-157
-74,-39,50,64,-51,25,-51,-406,-282,-212,-320,-157
-74,-39,50,64,-51,25,-51,-406,-282,-212,-320,-151
-80,-39,50,70,-51,25,-51,-406,-282,-212,-320,-151
-80,-39,56,70,-51,25,-51,-406,-282,-212,-320,-151
-74,-33,56,70,-51,25,-51,-406,-282,-212,-320,-145
-68,-33,56,64,-51,25,-51,-406,-282,-212,-320,-145
-62,-33,56,64,-51,25,-51,-406,-282,-212,-320,-145
-62,-33,56,64,-51,25,-51,-406,-288,-212,-320,-145
-68,-33,56,64,-57,25,-51,-406,-288,-212,-320,-145
-74,-33,56,64,-57,25,-51,-406,-288,-212,-320,-145
-74,-33,56,64,-57,25,-51,-406,-288,-212,-320,-145
-74,-27,56,64,-57,25,-51,-406,-288,-212,-320,-145
-74,-27,56,64,-57,25,-51,-406,-288,-212,-320,-145
-74,-27,56,64,-57,25,-57,-406,-294,-218,-320,-145
-74,-27,56,64,-57,25,-57,-406,-300,-218,-320,-145
-68,-27,56,64,-57,25,-57,-406,-300,-218,-320,-145
-68,-27,56,64,-57,25,-57,-406,-300,-218,-320,-145
-68,-27,56,64,-57,25,-57,-412,-300,-218,-320,-145
-68,-27,56,64,-57,25,-63,-412,-306,-224,-320,-145
-68,-27,56,64,-57,25,-69,-418,-312,-224,-320,-145
-68,-27,56,64,-57,25,-69,-418,-312,-224,-320,-145
-62,-27,50,64,-51,25,-69,-418,-312,-224,-320,-145
-62,-33,50,64,-51,19,-69,-418,-312,-224,-320,-145
-74,-45,50,76,-51,19,-69,-418,-318,-224,-320,-145
-86,-51,50,88,-57,19,-75,-424,-318,-224,-320,-145
-86,-51,50,88,-57,19,-75,-424,-318,-224,-320,-145
-80,-51,50,82,-57,19,-75,-424,-318,-224,-320,-145
-68,-45,50,70,-57,19,-75,-424,-318,-224,-320,-145
-62,-39,50,64,-57,19,-75,-424,-318,-224,-320,-145
-62,-39,50,64,-57,19,-75,-424,-318,-224,-320,-145
-62,-39,50,64,-57,19,-75,-424,-318,-224,-320,-145
-68,-39,50,64,-57,19,-75,-424,-318,-224,-320,-145
-68,-39,50,64,-57,19,-75,-424,-318,-224,-320,-145
-68,-39,50,64,-51,19,-75,-424,-324,-224,-320,-145
-62,-39,50,64,-51,19,-75,-430,-324,-224,-320,-145
-62,-39,50,64,-51,19,-75,-436,-330,-230,-320,-145
-68,-45,50,70,-51,13,-81,-442,-336,-230,-326,-145
-68,-45,50,76,-57,13,-81,-442,-336,-230,-332,-145
-68,-45,50,76,-57,13,-81,-442,-336,-236,-332,-145
-74,-51,50,76,-57,13,-87,-442,-342,-242,-332,-151
-86,-57,50,82,-57,13,-87,-442,-342,-248,-332,-151
-92,-63,50,88,-57,7,-93,-442,-342,-248,-332,-151
-92,-63,50,88,-57,7,-93,-442,-342,-248,-332,-151
-80,-57,50,82,-57,7,-93,-442,-342,-248,-332,-151
-74,-51,50,76,-57,7,-93,-442,-342,-248,-332,-151
-74,-51,50,76,-57,7,-93,-442,-348,-254,-338,-151
-74,-51,44,76,-57,1,-93,-442,-354,-260,-338,-151
-74,-51,44,76,-57,1,-93,-448,-354,-260,-338,-151
-74,-51,44,76,-57,1,-93,-448,-354,-260,-338,-151
-74,-51,44,76,-57,1,-93,-448,-354,-260,-338,-151
-74,-51,44,76,-51,1,-93,-448,-360,-260,-338,-151
-74,-57,44,76,-51,1,-93,-448,-366,-260,-338,-151
-74,-57,44,76,-51,1,-93,-448,-366,-260,-338,-151
-74,-57,44,76,-51,1,-93,-448,-366,-260,-338,-151
-74,-51,44,76,-51,1,-93,-448,-366,-260,-338,-151
-74,-51,44,76,-51,1,-93,-448,-366,-260,-338,-151
-86,-57,44,82,-57,1,-93,-448,-366,-260,-338,-151
-98,-63,44,94,-63,1,-93,-448,-366,-260,-338,-151
-98,-69,44,100,-63,-5,-99,-448,-366,-266,-338,-151
-92,-69,44,94,-57,-5,-99,-448,-366,-266,-338,-151
-80,-63,44,82,-51,-5,-99,-448,-366,-266,-338,-151
-80,-63,44,82,-51,-5,-99,-448,-366,-266,-338,-151
-80,-63,44,82,-51,-5,-99,-448,-366,-266,-338,-151
-80,-63,44,82,-51,-5,-99,-448,-366,-266,-338,-151
-80,-63,44,82,-51,-5,-99,-448,-366,-266,-338,-151
-80,-63,44,82,-51,-5,-99,-448,-372,-266,-338,-151
-80,-63,44,82,-51,-5,-99,-448,-372,-272,-338,-151
-80,-63,44,82,-51,-5,-99,-448,-372,-272,-338,-151
-80,-63,44,82,-51,-5,-99,-448,-372,-272,-338,-151
-80,-63,44,82,-51,-5,-105,-454,-378,-272,-344,-151
-80,-63,44,82,-51,-5,-105,-454,-378,-272,-350,-151
-80,-63,44,82,-51,-5,-105,-454,-378,-272,-350,-151
-68,-63,44,76,-45,-5,-105,-454,-378,-272,-350,-151
-68,-63,38,76,-45,-5,-105,-454,-378,-278,-350,-151
-68,-63,38,76,-45,-5,-105,-454,-378,-278,-350,-151
-68,-63,38,76,-45,-5,-105,-454,-378,-278,-350,-151
-68,-63,38,76,-45,-5,-105,-454,-378,-278,-350,-151
-68,-63,38,76,-45,-5,-105,-454,-378,-278,-350,-151
-68,-63,38,76,-45,-5,-105,-454,-378,-278,-350,-151
-74,-63,38,76,-45,-5,-105,-454,-378,-278,-350,-151
-74,-63,38,76,-45,-5,-105,-454,-378,-278,-350,-151
-74,-63,38,76,-45,-5,-111,-454,-378,-278,-356,-151
-74,-63,38,76,-45,-5,-111,-454,-378,-284,-362,-151
-80,-63,38,82,-45,-5,-111,-454,-378,-290,-362,-151
-80,-63,38,82,-45,-5,-111,-454,-378,-290,-362,-151
-80,-63,38,82,-45,-5,-111,-454,-378,-290,-368,-151
-80,-63,38,82,-45,-5,-111,-454,-378,-290,-368,-151
-80,-63,38,82,-45,-5,-111,-454,-378,-290,-368,-151
-80,-63,38,82,-45,-5,-111,-454,-378,-290,-368,-151
-80,-63,38,82,-45,-5,-111,-454,-378,-290,-368,-151
-80,-63,38,82,-45,-5,-111,-454,-378,-290,-368,-151
-80,-63,38,82,-45,-5,-111,-454,-378,-290,-368,-151
-80,-63,38,82,-45,-5,-111,-454,-378,-290,-368,-151
-80,-63,38,82,-45,-5,-111,-454,-378,-290,-368,-151
-80,-63,38,82,-45,-5,-111,-454,-378,-290,-368,-151
-80,-63,38,82,-45,-5,-111,-454,-384,-290,-368,-151
-80,-69,38,82,-45,-5,-111,-454,-384,-290,-368,-151
-86,-75,38,82,-45,-5,-111,-454,-390,-290,-368,-151
-92,-75,38,82,-45,-5,-111,-454,-390,-296,-368,-151
-92,-75,38,82,-45,-5,-111,-454,-390,-296,-368,-151
-92,-75,38,82,-45,-5,-111,-454,-390,-296,-368,-151
-92,-75,38,82,-45,-5,-111,-454,-390,-296,-368,-151
-92,-75,38,82,-45,-5,-111,-454,-390,-296,-368,-151
-92,-75,38,82,-45,-5,-111,-454,-390,-296,-368,-151
-92,-75,38,82,-45,-5,-111,-454,-390,-296,-368,-151
-92,-69,44,82,-51,-5,-111,-454,-390,-296,-368,-151
-92,-69,50,82,-57,-5,-111,-454,-390,-296,-368,-151
-92,-63,50,82,-57,1,-111,-454,-390,-296,-368,-151
-92,-63,50,82,-57,1,-111,-454,-390,-296,-368,-151
-92,-63,50,82,-57,1,-111,-454,-390,-296,-368,-151
-92,-63,50,82,-57,1,-111,-454,-390,-296,-368,-151
-92,-63,50,82,-57,1,-111,-454,-390,-296,-368,-151
-92,-63,50,82,-57,1,-111,-454,-390,-296,-368,-151
-92,-63,50,82,-57,1,-111,-454,-390,-296,-368,-151
-92,-63,50,82,-57,1,-111,-454,-390,-296,-368,-151
-92,-63,50,82,-57,1,-111,-454,-390,-296,-368,-151
-92,-63,44,82,-57,-5,-111,-454,-396,-296,-368,-151
-92,-69,38,82,-57,-11,-111,-454,-402,-302,-374,-151
-92,-69,38,82,-57,-11,-111,-454,-408,-302,-374,-151
-92,-69,38,82,-57,-11,-111,-454,-408,-302,-374,-151
-92,-75,38,88,-57,-11,-111,-454,-408,-302,-374,-151
-92,-81,38,88,-57,-11,-111,-454,-408,-302,-374,-151
-92,-81,38,88,-57,-11,-111,-454,-408,-302,-374,-151
-92,-81,38,88,-57,-11,-111,-454,-408,-302,-374,-151
-92,-81,38,88,-57,-11,-111,-454,-408,-302,-374,-151
-92,-75,38,88,-57,-11,-111,-454,-408,-302,-374,-151
-86,-69,38,82,-57,-11,-105,-454,-408,-302,-374,-145
-86,-63,44,76,-57,-5,-99,-454,-402,-302,-368,-145
-86,-51,50,76,-57,7,-93,-454,-402,-302,-362,-145
-86,-45,62,76,-63,19,-93,-454,-402,-302,-362,-145
-80,-21,74,58,-63,36,-87,-448,-396,-296,-362,-139
-74,3,86,46,-63,54,-81,-436,-384,-284,-356,-133
-74,3,98,46,-69,60,-75,-430,-378,-278,-356,-127
-74,3,104,46,-75,66,-75,-430,-372,-272,-356,-121
-74,9,110,46,-75,72,-75,-430,-366,-272,-356,-115
-74,15,116,46,-81,78,-75,-430,-366,-272,-350,-115
-74,21,122,46,-87,84,-69,-430,-366,-266,-344,-109
-74,21,122,46,-87,84,-69,-430,-366,-266,-344,-109
-74,21,128,46,-87,84,-69,-430,-366,-266,-338,-109
-74,21,128,46,-87,84,-69,-430,-366,-266,-338,-109
-74,21,128,40,-87,84,-69,-430,-366,-266,-338,-109
-74,21,128,40,-87,84,-69,-430,-366,-266,-332,-109
-74,26,134,40,-87,90,-69,-430,-366,-266,-332,-109
-74,26,134,40,-93,90,-69,-430,-366,-266,-326,-109
-74,32,134,40,-93,90,-69,-424,-360,-260,-320,-103
-74,38,140,34,-93,96,-69,-424,-360,-254,-314,-97
-74,50,146,22,-93,108,-69,-424,-360,-248,-308,-85
-68,62,152,16,-93,120,-69,-424,-354,-248,-302,-79
-68,68,158,10,-93,126,-75,-424,-354,-248,-296,-73
-68,68,164,10,-93,126,-81,-424,-354,-248,-296,-73
-68,68,164,10,-93,126,-87,-424,-354,-248,-296,-73
-68,68,164,10,-93,126,-93,-424,-354,-248,-296,-73
-68,68,164,10,-93,126,-99,-424,-354,-248,-296,-73
-68,68,164,10,-93,126,-99,-424,-354,-248,-296,-73
-68,68,164,10,-93,126,-105,-424,-354,-248,-296,-73
-68,68,164,10,-93,126,-111,-424,-354,-248,-296,-73
-56,68,152,4,-87,126,-111,-424,-360,-248,-296,-73
-50,68,146,4,-81,120,-117,-430,-360,-248,-296,-73
-50,68,146,4,-81,120,-123,-430,-360,-248,-296,-73
-50,74,146,4,-81,126,-129,-430,-360,-248,-296,-73
-44,74,146,-2,-81,126,-129,-430,-360,-248,-296,-73
-38,74,146,-2,-75,126,-135,-436,-366,-254,-296,-73
-38,62,140,4,-75,120,-141,-442,-372,-260,-296,-73
-38,50,134,4,-75,114,-141,-448,-378,-266,-296,-73
-38,44,128,4,-75,108,-141,-448,-384,-272,-296,-73
-38,38,116,10,-75,96,-141,-448,-390,-272,-296,-79
-38,32,92,10,-69,84,-141,-448,-396,-272,-296,-85
-38,15,80,16,-63,60,-141,-454,-402,-284,-308,-97
-50,-27,68,52,-63,36,-141,-454,-408,-296,-320,-109
-80,-69,62,82,-63,19,-141,-454,-414,-308,-332,-121
-86,-87,56,94,-63,7,-141,-454,-420,-314,-338,-127
-86,-87,50,94,-57,1,-129,-454,-420,-320,-338,-127
-86,-87,44,94,-51,-5,-123,-454,-426,-326,-338,-127
-86,-87,38,94,-51,-11,-123,-454,-432,-326,-338,-133
-86,-93,38,94,-51,-17,-123,-454,-432,-332,-338,-133
-86,-93,38,94,-51,-17,-123,-454,-432,-332,-344,-133
-86,-93,26,94,-45,-23,-123,-454,-432,-332,-344,-139
-86,-99,14,94,-39,-29,-123,-454,-438,-338,-350,-145
-86,-105,8,100,-39,-35,-123,-454,-438,-344,-350,-151
-86,-111,8,100,-39,-41,-123,-454,-438,-350,-350,-157
-86,-111,8,100,-39,-41,-123,-454,-438,-350,-350,-157
-86,-111,8,100,-39,-41,-123,-454,-438,-350,-350,-157
-86,-111,8,100,-39,-41,-123,-454,-438,-344,-350,-151
-86,-111,8,100,-39,-41,-117,-448,-432,-332,-338,-145
-86,-105,8,100,-39,-41,-111,-436,-408,-320,-320,-133
-86,-99,8,100,-39,-41,-105,-424,-390,-296,-302,-127
-86,-99,8,94,-39,-41,-99,-412,-378,-278,-290,-121
-80,-93,8,94,-39,-35,-93,-388,-348,-254,-260,-109
-74,-87,8,88,-39,-29,-87,-370,-324,-242,-242,-97
-68,-81,8,82,-33,-29,-87,-364,-312,-230,-230,-85
-62,-75,14,82,-33,-23,-87,-358,-306,-224,-218,-73
-62,-63,20,76,-33,-17,-81,-352,-294,-212,-212,-61
-50,-45,26,64,-33,-5,-75,-340,-282,-194,-200,-49
-38,-27,26,40,-33,7,-75,-334,-270,-182,-188,-37
-32,-21,26,34,-33,13,-75,-328,-264,-170,-176,-25
-32,-15,32,28,-33,25,-75,-328,-258,-158,-164,-13
-32,-3,38,16,-33,36,-75,-316,-246,-140,-140,-1
-20,9,38,4,-27,42,-75,-304,-216,-110,-110,23
-8,21,44,-8,-21,48,-75,-292,-192,-98,-80,52
22,26,44,-20,-3,48,-75,-280,-174,-80,-56,76
40,32,38,-32,9,48,-75,-268,-162,-62,-32,106
46,38,38,-38,15,48,-75,-250,-150,-44,-20,124
46,44,38,-38,15,48,-63,-190,-120,-32,-14,136
51,44,32,-38,21,48,9,-76,-90,-26,-14,136
69,44,3,-50,45,42,128,61,-36,-20,-14,136
93,56,-9,-67,56,42,242,199,59,-9,-9,136
105,62,-15,-79,68,42,296,307,161,63,27,160
117,68,-21,-91,80,42,350,409,299,189,129,238
147,74,-33,-103,110,42,386,523,485,375,291,352
255,104,-75,-181,170,42,404,649,749,657,525,526
417,242,-99,-325,266,54,404,745,1043,1011,813,748
543,374,-105,-445,320,120,392,847,1367,1389,1149,994
627,488,-105,-553,362,192,350,985,1751,1839,1539,1270
723,650,-81,-667,380,288,278,1141,2188,2366,1977,1600
831,848,3,-835,392,432,194,1237,2601,2875,2425,1924
927,1046,86,-979,404,576,98,1261,2967,3349,2809,2205
975,1190,170,-1081,404,684,-3,1261,3303,3793,3169,2433
993,1280,266,-1129,398,786,-105,1213,3549,4141,3433,2600
993,1292,296,-1135,374,804,-201,1081,3627,4267,3535,2654
981,1184,266,-1075,374,744,-231,979,3621,4255,3505,2630
897,860,68,-859,386,480,-231,877,3411,3949,3193,2379
783,608,-81,-685,398,288,-231,721,3051,3493,2773,2068
675,464,-111,-559,398,186,-225,547,2625,2983,2342,1756
525,338,-123,-421,374,126,-183,379,2146,2425,1881,1420
345,182,-123,-259,284,60,-129,169,1547,1767,1371,1048
177,56,-123,-115,188,13,-99,-64,869,1083,879,700
69,-33,-117,-26,116,-29,-93,-280,263,507,471,418
22,-75,-111,22,74,-47,-93,-394,-96,171,213,256
4,-87,-99,40,62,-53,-93,-406,-156,57,87,154
-2,-93,-87,46,51,-53,-93,-400,-156,27,3,94
-8,-99,-75,46,45,-53,-93,-388,-144,15,-26,64
-8,-99,-63,46,39,-53,-93,-370,-132,15,-38,58
-14,-99,-45,46,33,-47,-93,-358,-126,9,-38,52
-20,-87,-27,46,27,-41,-87,-328,-120,9,-38,52
-20,-75,-9,46,15,-29,-75,-304,-114,9,-38,52
-26,-63,3,46,3,-23,-63,-292,-114,3,-44,46
-32,-57,14,46,-9,-17,-51,-286,-114,-9,-50,40
-44,-51,32,46,-21,-5,-39,-280,-120,-20,-62,35
-56,-45,56,46,-51,13,-27,-274,-126,-38,-74,29
-62,-39,74,46,-63,25,-15,-274,-138,-62,-86,17
-62,-39,74,46,-63,25,-15,-274,-168,-92,-116,5
-62,-39,68,46,-57,25,-15,-280,-198,-122,-146,-13
-62,-39,68,46,-51,25,-15,-286,-210,-140,-164,-25
-62,-39,68,46,-51,25,-15,-286,-228,-158,-176,-37
-68,-39,68,52,-51,25,-15,-286,-240,-170,-182,-43
-68,-39,68,52,-51,25,-15,-286,-252,-182,-188,-49
-68,-39,68,52,-51,25,-15,-292,-258,-188,-194,-55
-68,-39,68,58,-51,25,-15,-292,-264,-200,-200,-61
-74,-45,68,64,-57,25,-15,-292,-270,-206,-206,-67
-80,-45,68,64,-63,25,-15,-292,-276,-212,-212,-67
-86,-45,74,64,-69,25,-15,-292,-276,-218,-218,-73
-92,-45,74,64,-75,25,-15,-292,-282,-224,-224,-73
-98,-51,74,70,-81,25,-15,-292,-282,-230,-230,-79
-104,-51,74,76,-81,25,-15,-292,-288,-236,-230,-79
-104,-51,74,76,-81,25,-3,-292,-288,-236,-230,-79
-98,-39,80,70,-81,30,9,-292,-288,-236,-230,-79
-98,-39,80,70,-81,30,15,-292,-288,-236,-230,-79
-98,-39,80,70,-81,30,15,-292,-288,-236,-230,-79
-98,-39,80,70,-81,30,15,-286,-288,-236,-230,-79
-98,-39,80,70,-81,30,15,-280,-288,-236,-230,-79
-98,-39,80,70,-81,30,15,-274,-288,-236,-230,-79
-86,-33,80,64,-81,36,20,-268,-282,-236,-230,-79
-80,-27,80,64,-81,36,20,-268,-282,-236,-230,-79
-80,-27,80,64,-81,36,20,-262,-282,-236,-230,-79
-80,-27,80,64,-81,36,20,-256,-282,-236,-230,-79
-80,-27,86,64,-81,36,20,-256,-282,-230,-230,-79
-86,-27,92,64,-81,36,20,-250,-276,-224,-230,-79
-86,-27,98,64,-87,42,26,-238,-270,-218,-224,-73
-86,-21,104,64,-87,48,32,-226,-264,-212,-218,-67
-86,-15,104,58,-87,54,32,-220,-258,-206,-212,-67
-80,-9,104,52,-87,54,38,-214,-252,-200,-206,-67
-80,-9,104,52,-87,54,38,-208,-240,-194,-200,-67
-86,-9,110,52,-93,54,38,-202,-240,-188,-200,-67
-92,-9,110,52,-93,54,44,-196,-228,-182,-194,-61
-86,3,110,46,-93,54,56,-184,-216,-170,-182,-49
-62,15,110,34,-81,54,62,-172,-210,-158,-176,-37
-56,15,110,34,-75,54,62,-166,-204,-152,-176,-37
-56,15,110,34,-75,54,68,-160,-198,-146,-170,-37
-56,15,110,34,-75,60,68,-148,-186,-140,-164,-31
-56,15,110,34,-75,66,68,-136,-174,-134,-158,-31
-56,15,116,34,-75,72,74,-130,-162,-122,-152,-25
-62,15,128,34,-81,78,80,-124,-150,-110,-146,-25
-68,15,134,34,-87,78,80,-118,-144,-104,-146,-25
-68,15,134,34,-93,78,80,-112,-138,-98,-140,-25
-68,26,140,28,-93,84,86,-100,-126,-86,-128,-19
-62,44,140,16,-87,90,98,-76,-114,-74,-116,-13
-56,44,140,10,-87,90,104,-64,-102,-68,-110,-7
-56,44,140,10,-87,90,110,-58,-96,-62,-104,-7
-56,44,146,10,-87,90,110,-46,-84,-62,-98,-7
-56,44,146,10,-87,96,116,-34,-72,-56,-92,-1
-56,50,146,10,-87,102,122,-22,-60,-44,-86,5
-56,56,152,4,-87,108,128,-10,-36,-32,-74,11
-56,62,158,-2,-87,114,134,2,-24,-20,-68,17
-56,68,164,-2,-87,120,134,14,-18,-14,-62,23
-56,74,170,-2,-93,126,140,25,-6,-3,-56,29
-56,80,182,-2,-99,138,152,55,23,15,-44,40
-56,86,188,-8,-99,144,164,79,53,39,-32,52
-50,92,188,-14,-99,144,176,91,71,51,-20,58
-50,98,194,-14,-99,150,182,115,89,57,-9,64
-50,104,200,-20,-99,156,188,133,113,69,9,76
-44,116,206,-26,-99,162,194,145,125,81,21,88
-44,116,206,-32,-99,168,200,157,143,93,27,94
-38,122,206,-32,-99,174,212,175,167,105,39,100
-32,128,206,-38,-99,180,224,205,191,129,51,112
-32,134,212,-44,-99,186,230,229,215,153,63,118
-32,140,218,-50,-99,192,236,253,227,171,75,124
-32,152,230,-55,-105,204,248,283,269,201,105,136
-32,182,236,-67,-105,216,260,319,311,231,135,154
-20,200,242,-79,-105,222,272,349,335,249,147,166
-14,212,248,-85,-105,228,278,361,353,267,159,172
-8,218,254,-91,-105,234,284,385,383,297,177,184
-8,224,266,-97,-111,246,296,415,419,327,201,196
-8,230,278,-97,-117,264,302,439,449,357,225,208
-8,236,284,-103,-117,276,314,463,479,381,249,232
-8,242,290,-109,-117,288,320,493,509,411,273,250
-8,248,296,-109,-117,294,326,523,539,441,291,268
4,272,302,-127,-117,300,332,553,581,471,315,280
28,302,302,-157,-117,306,344,589,617,501,345,298
40,314,302,-169,-117,312,356,625,653,531,369,310
46,326,308,-175,-117,324,368,649,689,561,393,322
57,344,314,-187,-117,336,380,673,719,591,423,346
81,368,314,-217,-117,348,392,697,761,627,447,364
87,374,314,-223,-111,348,398,709,779,651,459,376
87,374,314,-223,-111,348,398,721,797,663,465,382
87,374,314,-223,-111,348,404,745,827,693,477,394
87,380,320,-223,-111,354,410,775,863,729,507,424
105,404,320,-241,-105,366,416,811,905,771,537,442
117,416,320,-253,-99,372,422,829,935,789,555,454
117,416,326,-253,-99,378,428,841,947,801,579,466
117,416,332,-253,-99,384,434,853,977,819,597,478
117,416,332,-253,-99,384,434,865,1001,849,609,490
123,422,332,-259,-99,384,434,877,1025,861,621,502
129,434,338,-271,-99,390,434,889,1037,885,633,514
129,440,344,-277,-99,396,434,895,1055,909,657,526
129,446,350,-283,-99,402,434,895,1067,927,669,532
129,452,350,-283,-99,408,428,895,1073,939,681,544
129,452,350,-283,-99,408,428,895,1085,951,687,550
129,452,350,-283,-99,408,422,895,1091,951,693,556
129,452,350,-283,-99,408,416,889,1091,951,699,556
135,458,350,-289,-99,414,404,865,1085,951,699,556
141,458,350,-289,-93,414,392,841,1079,951,699,556
141,458,350,-289,-87,414,386,823,1067,945,699,556
147,458,350,-289,-81,414,374,793,1037,933,699,556
147,458,350,-289,-81,414,344,751,989,915,693,556
147,452,350,-283,-81,408,314,703,935,879,681,550
141,440,344,-277,-81,396,284,643,887,837,651,538
141,428,332,-271,-81,384,266,595,827,789,609,526
141,416,314,-271,-75,372,248,553,767,729,579,502
141,404,302,-259,-75,360,236,511,713,681,549,484
129,374,296,-235,-75,348,212,457,653,633,507,448
123,344,284,-223,-75,330,194,403,593,579,465,412
117,314,266,-211,-69,306,182,355,533,525,423,376
105,284,254,-187,-69,294,170,307,467,471,381,346
75,260,248,-157,-69,282,146,271,407,423,339,316
57,242,242,-139,-69,270,134,229,359,375,303,292
51,218,230,-127,-69,240,104,187,311,327,261,262
51,206,218,-121,-69,216,92,145,257,279,219,232
46,194,206,-109,-69,204,80,115,209,225,189,208
40,182,194,-97,-69,192,68,85,161,183,165,190
28,164,188,-79,-69,180,56,43,113,141,129,160
10,128,182,-50,-69,168,44,2,71,99,93,130
-8,98,176,-26,-75,156,38,-28,29,69,63,106
-8,86,164,-20,-75,144,26,-52,-6,39,33,94
-8,80,146,-20,-69,132,15,-76,-42,3,3,70
-14,68,140,-14,-69,120,-3,-100,-78,-26,-26,52
-26,56,134,-2,-69,108,-15,-112,-108,-50,-44,40
-26,50,128,4,-69,102,-21,-130,-126,-68,-56,29
-26,44,122,10,-69,96,-27,-148,-156,-98,-74,17
-32,32,116,16,-69,90,-33,-160,-180,-122,-86,5
-38,21,116,28,-69,84,-39,-178,-192,-134,-98,-7
-50,9,116,40,-69,78,-45,-202,-204,-152,-110,-19
-62,-3,110,52,-69,66,-51,-220,-228,-170,-128,-31
-68,-15,104,58,-69,60,-57,-232,-240,-182,-140,-43
-74,-27,98,64,-69,54,-63,-238,-252,-194,-152,-49
-74,-33,92,64,-69,48,-69,-244,-264,-206,-164,-55
-74,-39,80,64,-69,36,-75,-256,-276,-218,-176,-67
-74,-45,74,64,-69,30,-75,-262,-282,-224,-182,-73
-74,-45,74,70,-69,30,-75,-268,-288,-230,-188,-79
-74,-57,74,76,-69,25,-81,-274,-300,-242,-194,-91
-80,-69,68,82,-69,19,-87,-286,-312,-254,-206,-103
-86,-75,68,88,-69,13,-93,-298,-324,-266,-212,-109
-86,-81,68,94,-69,13,-93,-304,-330,-272,-218,-115
-86,-81,68,94,-69,13,-93,-304,-336,-278,-224,-121
-86,-81,68,94,-69,13,-93,-310,-342,-284,-230,-121
-92,-87,68,100,-69,7,-99,-310,-348,-290,-236,-121
-92,-93,62,106,-69,1,-105,-316,-348,-296,-236,-127
-98,-93,62,106,-69,-5,-111,-316,-348,-296,-242,-127
-98,-93,62,106,-69,-5,-111,-316,-348,-296,-242,-127
-86,-87,56,100,-63,-5,-111,-316,-348,-296,-242,-127
-80,-87,50,94,-57,-5,-111,-316,-348,-296,-242,-127
-80,-93,44,100,-57,-11,-111,-316,-348,-296,-242,-127
-92,-117,44,118,-57,-23,-111,-322,-348,-302,-242,-127
-98,-117,44,124,-57,-23,-111,-322,-342,-302,-242,-127
-98,-117,44,124,-57,-23,-111,-322,-330,-302,-242,-127
-98,-117,38,124,-57,-23,-111,-322,-318,-302,-242,-127
-98,-117,32,124,-57,-29,-111,-322,-312,-302,-242,-127
-98,-117,26,124,-57,-35,-111,-322,-306,-308,-242,-127
-98,-117,26,124,-51,-35,-111,-322,-300,-308,-242,-127
-98,-117,26,124,-51,-35,-111,-322,-300,-308,-242,-127
-98,-117,26,124,-51,-35,-111,-322,-300,-308,-242,-127
-98,-117,26,124,-51,-35,-111,-322,-294,-308,-242,-127
-98,-117,26,124,-51,-35,-111,-322,-288,-308,-242,-127
-98,-117,26,118,-51,-35,-111,-322,-282,-308,-242,-127
-98,-117,26,118,-51,-35,-111,-322,-282,-308,-242,-127
-98,-117,26,118,-51,-35,-111,-322,-282,-308,-242,-127
-98,-117,26,118,-51,-35,-111,-322,-282,-308,-242,-127
-98,-117,32,118,-51,-35,-111,-322,-276,-308,-242,-127
-98,-117,38,118,-57,-35,-111,-322,-276,-308,-242,-127
-98,-117,44,118,-57,-35,-111,-322,-276,-308,-242,-127
-98,-117,44,118,-57,-29,-111,-322,-276,-308,-242,-127
-98,-117,44,118,-57,-29,-111,-322,-276,-308,-242,-127
-98,-117,44,118,-57,-29,-111,-322,-276,-308,-242,-127
-98,-117,44,118,-57,-29,-111,-322,-276,-308,-242,-127
-98,-117,44,118,-57,-29,-111,-322,-270,-308,-242,-127
-98,-117,44,118,-57,-29,-111,-322,-270,-308,-242,-127
-104,-117,44,124,-57,-29,-111,-322,-270,-308,-242,-127
-104,-117,44,124,-57,-29,-111,-322,-270,-308,-242,-127
-98,-117,38,118,-57,-29,-111,-322,-270,-308,-242,-127
-92,-111,38,112,-51,-29,-111,-322,-270,-308,-242,-127
-92,-111,38,112,-51,-29,-117,-322,-270,-308,-242,-127
-92,-111,38,112,-51,-29,-117,-322,-270,-308,-242,-127
-92,-105,38,112,-51,-29,-117,-322,-270,-308,-242,-127
-92,-105,38,112,-51,-29,-117,-322,-270,-308,-242,-127
-92,-99,38,112,-51,-23,-117,-322,-270,-308,-242,-127
-92,-99,38,112,-51,-23,-117,-322,-270,-308,-242,-127
-92,-99,44,112,-51,-17,-117,-322,-270,-308,-242,-127
-92,-99,50,112,-57,-17,-117,-322,-270,-308,-242,-127
-92,-99,56,112,-57,-17,-117,-322,-270,-308,-242,-127
-92,-99,62,112,-57,-17,-117,-322,-270,-314,-242,-127
-92,-99,62,112,-57,-17,-117,-322,-270,-320,-242,-127
-92,-99,62,112,-57,-17,-117,-322,-270,-320,-242,-127
-98,-99,62,112,-63,-17,-117,-322,-270,-320,-242,-127
-98,-99,68,112,-69,-11,-117,-322,-270,-320,-242,-127
-98,-93,68,106,-69,-5,-117,-322,-270,-320,-242,-127
-98,-93,68,106,-69,-5,-117,-322,-270,-320,-242,-127
-98,-93,68,106,-69,-5,-123,-322,-270,-326,-242,-127
-104,-93,68,106,-69,-5,-123,-322,-270,-326,-242,-127
-104,-93,68,106,-69,-5,-123,-322,-270,-326,-242,-127
-104,-93,68,106,-69,-5,-123,-322,-270,-326,-242,-127
-104,-93,68,106,-69,-5,-123,-322,-270,-326,-242,-127
-110,-93,68,106,-69,-5,-123,-322,-270,-332,-242,-127
-110,-93,68,106,-69,-5,-123,-322,-270,-332,-242,-127
-104,-93,68,106,-69,-5,-123,-322,-270,-332,-242,-127
-104,-93,68,106,-69,-5,-123,-322,-270,-332,-242,-127
-104,-93,68,106,-75,-5,-123,-322,-270,-332,-242,-127
-104,-93,68,106,-75,-5,-123,-322,-270,-332,-242,-127
-104,-93,68,106,-75,-5,-123,-322,-270,-338,-242,-127
-104,-93,62,106,-75,-5,-123,-322,-276,-344,-242,-127
-104,-93,62,106,-75,-5,-123,-322,-276,-344,-242,-127
-104,-93,62,106,-75,-5,-123,-322,-276,-344,-242,-127
-104,-93,62,106,-75,-5,-129,-322,-282,-344,-242,-127
-98,-93,56,106,-69,-5,-129,-322,-288,-350,-242,-127
-98,-93,56,106,-69,-5,-129,-322,-288,-350,-242,-127
-104,-93,56,106,-69,-5,-135,-322,-288,-350,-242,-127
-110,-93,56,106,-69,-5,-135,-322,-294,-350,-242,-127
-110,-93,56,106,-69,-5,-135,-322,-294,-350,-242,-127
-110,-93,56,106,-69,-5,-135,-322,-294,-350,-242,-127
-110,-99,56,112,-69,-5,-135,-322,-300,-356,-242,-127
-122,-105,56,118,-75,-5,-135,-322,-300,-362,-242,-127
-122,-105,62,118,-75,-5,-135,-322,-300,-362,-242,-127
-116,-105,62,118,-75,-5,-135,-322,-300,-362,-242,-127
-104,-105,62,112,-69,-5,-135,-322,-300,-362,-242,-127
-104,-105,62,106,-69,-5,-135,-322,-300,-362,-242,-127
-104,-105,62,106,-69,-5,-135,-328,-300,-368,-242,-127
-104,-105,62,106,-69,-11,-135,-328,-300,-368,-242,-127
-110,-111,62,112,-69,-11,-135,-328,-300,-368,-242,-127
-110,-111,62,112,-69,-17,-135,-328,-300,-374,-242,-127
-104,-111,62,106,-69,-17,-135,-328,-306,-380,-242,-127
-92,-105,62,100,-69,-17,-135,-328,-306,-380,-242,-127
-92,-99,62,100,-69,-17,-135,-328,-306,-380,-242,-127
-92,-99,62,100,-69,-17,-135,-334,-306,-380,-242,-127
-92,-99,56,100,-69,-17,-141,-340,-312,-380,-242,-127
-92,-99,56,106,-69,-17,-141,-340,-312,-386,-242,-127
-92,-105,56,106,-69,-17,-141,-340,-312,-386,-248,-127
-92,-105,56,106,-69,-17,-141,-340,-312,-386,-248,-127
-92,-105,56,106,-69,-17,-141,-340,-312,-386,-248,-127
-92,-105,56,106,-69,-17,-141,-340,-318,-386,-248,-127
-98,-105,56,106,-69,-17,-141,-340,-318,-386,-254,-127
-104,-111,56,112,-69,-17,-141,-340,-318,-392,-260,-127
-110,-111,56,118,-75,-17,-141,-340,-318,-392,-260,-127
-110,-111,56,118,-75,-17,-141,-340,-318,-392,-260,-127
-110,-111,56,118,-75,-17,-141,-340,-318,-392,-260,-127
-116,-111,56,118,-75,-17,-141,-340,-318,-392,-260,-127
-116,-111,56,112,-75,-17,-141,-340,-318,-392,-260,-127
-116,-111,56,106,-75,-17,-141,-340,-318,-392,-260,-127
-116,-111,56,106,-75,-17,-141,-340,-318,-392,-260,-127
-116,-117,56,106,-75,-23,-141,-346,-324,-398,-260,-133
-116,-117,56,106,-75,-23,-147,-346,-330,-404,-260,-133
-110,-117,56,106,-69,-23,-147,-346,-336,-404,-260,-133
-110,-117,56,106,-69,-23,-147,-346,-336,-404,-260,-133
-110,-117,56,106,-69,-23,-147,-346,-336,-404,-260,-133
-110,-117,50,112,-69,-23,-153,-352,-336,-404,-260,-133
-110,-117,50,112,-69,-23,-153,-352,-336,-410,-266,-133
-110,-117,50,112,-69,-23,-153,-352,-336,-410,-266,-133
-110,-117,50,112,-69,-23,-153,-352,-336,-410,-266,-133
-116,-123,50,118,-75,-23,-153,-352,-342,-416,-272,-133
-122,-129,50,124,-81,-29,-153,-358,-342,-422,-272,-133
-122,-129,50,124,-81,-29,-153,-358,-342,-422,-272,-133
-116,-123,50,118,-81,-29,-153,-358,-342,-422,-272,-133
-110,-117,50,112,-75,-29,-153,-358,-342,-422,-272,-133
-104,-117,44,112,-69,-29,-153,-358,-342,-422,-272,-133
-104,-117,44,112,-69,-29,-153,-358,-342,-422,-272,-133
-104,-117,44,112,-69,-29,-153,-358,-342,-422,-272,-133
-104,-117,44,112,-69,-29,-153,-364,-348,-422,-272,-133
-104,-117,44,112,-69,-29,-153,-364,-348,-422,-278,-133
-104,-117,44,112,-69,-29,-153,-364,-348,-422,-278,-133
-104,-117,44,112,-69,-29,-153,-364,-348,-422,-278,-133
-104,-117,38,112,-63,-35,-153,-364,-348,-428,-278,-133
-104,-117,38,112,-63,-35,-153,-364,-348,-428,-278,-133
-104,-117,38,112,-63,-35,-153,-364,-348,-434,-278,-139
-110,-117,38,112,-69,-35,-153,-364,-348,-434,-278,-139
-110,-117,38,112,-69,-35,-153,-364,-348,-434,-278,-139
-110,-117,38,112,-69,-35,-153,-364,-348,-434,-278,-139
-110,-117,38,112,-69,-35,-153,-364,-348,-434,-278,-139
-110,-117,38,112,-69,-35,-159,-364,-348,-434,-278,-139
-110,-117,38,112,-69,-35,-159,-364,-348,-434,-278,-139
-110,-117,38,112,-69,-35,-159,-364,-348,-434,-278,-139
-110,-117,38,112,-69,-35,-159,-364,-348,-434,-278,-139
-110,-117,38,112,-69,-35,-159,-364,-348,-434,-278,-139
-110,-117,38,112,-69,-35,-159,-364,-348,-434,-278,-139
-110,-117,38,112,-69,-35,-159,-364,-348,-434,-278,-139
-110,-117,38,112,-69,-35,-159,-364,-348,-434,-278,-139
-110,-117,38,112,-69,-35,-159,-364,-348,-434,-278,-139
-110,-117,38,112,-69,-35,-159,-364,-348,-434,-278,-139
-116,-117,38,112,-69,-35,-159,-364,-348,-434,-278,-139
-122,-117,38,112,-69,-35,-159,-364,-348,-434,-278,-139
-122,-117,38,112,-75,-35,-159,-364,-348,-434,-278,-139
-122,-111,38,112,-75,-35,-159,-364,-348,-434,-278,-139
-116,-111,38,112,-75,-35,-159,-364,-348,-434,-278,-139
-116,-111,38,112,-75,-35,-159,-364,-348,-434,-284,-139
-116,-117,38,112,-75,-35,-165,-364,-354,-440,-284,-139
-116,-123,38,112,-75,-35,-171,-364,-354,-440,-284,-139
-116,-123,38,112,-75,-35,-171,-364,-354,-440,-284,-139
-116,-123,38,112,-75,-35,-171,-364,-354,-440,-284,-139
-116,-123,38,112,-75,-35,-171,-364,-354,-440,-284,-139
-116,-123,38,112,-75,-35,-171,-364,-354,-446,-284,-139
-116,-123,38,112,-75,-35,-171,-364,-354,-446,-284,-139
-116,-123,38,112,-75,-35,-171,-364,-354,-452,-284,-139
-116,-123,38,112,-75,-35,-171,-364,-354,-452,-284,-139
-116,-123,38,112,-75,-35,-171,-364,-354,-452,-284,-139
-116,-123,38,112,-75,-35,-171,-364,-354,-452,-284,-139
-116,-123,38,112,-75,-35,-171,-364,-354,-452,-284,-139
-116,-123,38,112,-75,-35,-171,-364,-354,-452,-284,-139
-116,-123,38,112,-75,-35,-171,-364,-354,-452,-284,-139
-116,-123,38,112,-75,-35,-171,-364,-354,-452,-284,-139
-116,-123,38,112,-69,-35,-171,-364,-354,-452,-284,-139
-116,-123,38,112,-69,-35,-171,-364,-354,-452,-284,-139
-122,-123,38,118,-75,-35,-171,-364,-354,-452,-284,-139
-128,-129,38,124,-75,-41,-171,-364,-360,-458,-290,-139
-122,-129,38,124,-75,-41,-171,-364,-360,-458,-290,-139
-116,-123,38,118,-75,-41,-171,-364,-360,-458,-290,-139
-110,-123,38,118,-75,-41,-171,-364,-360,-458,-290,-139
-110,-123,38,118,-75,-41,-171,-364,-360,-458,-290,-139
-110,-123,38,118,-75,-41,-171,-364,-360,-464,-290,-139
-110,-117,38,118,-75,-41,-171,-364,-360,-464,-290,-139
-110,-111,38,112,-75,-41,-171,-364,-360,-464,-290,-139
-104,-105,38,106,-69,-41,-171,-364,-360,-464,-290,-139
-104,-105,38,106,-69,-41,-171,-364,-360,-464,-290,-139
-104,-105,38,106,-69,-41,-171,-364,-360,-464,-290,-139
-104,-105,44,106,-69,-35,-171,-364,-360,-464,-290,-139
-104,-105,44,106,-69,-35,-171,-364,-360,-464,-290,-139
-104,-105,44,106,-69,-35,-171,-364,-360,-464,-290,-139
-110,-111,44,106,-69,-35,-171,-364,-360,-464,-290,-139
-122,-117,50,112,-75,-35,-171,-364,-360,-464,-290,-139
-128,-117,50,112,-75,-35,-171,-364,-360,-464,-290,-139
-122,-105,50,106,-75,-35,-165,-358,-360,-464,-290,-139
-110,-81,50,88,-75,-23,-159,-352,-360,-458,-290,-133
-104,-75,56,88,-75,-17,-159,-352,-360,-458,-290,-133
-104,-75,56,94,-75,-17,-159,-352,-360,-458,-290,-133
-110,-81,56,100,-75,-17,-159,-352,-360,-458,-290,-133
-110,-81,56,100,-75,-11,-159,-346,-360,-458,-290,-127
-104,-69,62,88,-75,-5,-153,-340,-354,-452,-284,-121
-104,-51,68,76,-75,7,-141,-334,-348,-446,-278,-115
-98,-33,86,64,-81,25,-135,-328,-342,-446,-272,-109
-98,-27,98,64,-87,30,-135,-316,-336,-440,-266,-109
-104,-27,98,64,-93,30,-129,-310,-330,-440,-260,-109
-104,-27,104,64,-93,30,-129,-310,-330,-440,-260,-103
-104,-27,110,64,-93,36,-129,-304,-324,-434,-254,-103
-104,-21,116,64,-93,42,-129,-298,-318,-428,-248,-103
-104,-21,122,64,-99,48,-129,-292,-318,-428,-248,-103
-104,-21,122,64,-105,48,-129,-292,-318,-428,-248,-103
-104,-21,122,64,-105,48,-129,-292,-318,-428,-248,-103
-98,-21,122,58,-105,48,-129,-292,-318,-428,-248,-103
-98,-15,128,52,-105,48,-129,-292,-318,-422,-242,-103
-98,-9,134,52,-105,54,-129,-286,-312,-416,-242,-97
-92,-3,134,52,-105,54,-129,-286,-312,-416,-242,-97
-92,3,134,46,-105,60,-129,-286,-312,-410,-236,-91
-92,15,146,46,-111,72,-129,-280,-306,-404,-230,-85
-104,21,170,46,-123,84,-129,-274,-300,-404,-224,-79
-110,26,182,46,-135,96,-129,-268,-294,-404,-218,-73
-110,38,188,34,-135,108,-129,-262,-288,-398,-212,-61
-92,50,182,16,-129,108,-129,-262,-288,-398,-206,-55
-86,50,176,16,-123,108,-135,-262,-288,-398,-206,-55
-86,50,176,16,-123,108,-141,-268,-294,-398,-206,-55
-86,50,176,16,-123,108,-147,-274,-300,-398,-206,-55
-86,50,176,16,-117,108,-153,-280,-300,-398,-206,-55
-86,50,170,16,-117,102,-159,-280,-300,-398,-206,-55
-86,50,164,16,-117,102,-165,-286,-300,-398,-206,-55
-80,50,158,16,-111,96,-171,-286,-306,-398,-212,-55
-80,50,152,16,-105,96,-177,-292,-312,-404,-212,-55
-80,50,152,16,-105,96,-183,-298,-318,-404,-212,-55
-80,50,152,16,-105,96,-183,-298,-318,-404,-212,-55
-80,50,152,16,-105,96,-183,-298,-318,-404,-212,-55
-80,44,152,16,-105,96,-189,-298,-318,-404,-212,-55
-74,44,152,16,-105,90,-189,-298,-318,-404,-212,-55
-62,44,140,10,-99,84,-189,-298,-318,-404,-212,-55
-62,38,128,10,-93,78,-189,-298,-318,-410,-212,-61
-62,15,122,16,-93,66,-189,-298,-324,-416,-218,-61
-62,3,116,22,-93,54,-189,-298,-330,-416,-224,-61
-68,-15,110,34,-93,42,-189,-298,-336,-422,-230,-67
-80,-45,104,64,-93,19,-189,-304,-342,-428,-242,-79
-92,-75,92,82,-93,1,-189,-310,-354,-440,-248,-91
-98,-87,80,88,-93,-11,-189,-310,-360,-446,-254,-103
-98,-93,62,88,-81,-23,-189,-310,-366,-452,-260,-109
-98,-105,44,94,-69,-35,-189,-310,-372,-464,-266,-115
-98,-117,38,100,-69,-47,-189,-316,-378,-470,-278,-121
-98,-117,38,106,-69,-47,-189,-316,-384,-470,-284,-127
-98,-117,38,106,-69,-47,-189,-316,-384,-470,-284,-127
-98,-117,38,106,-69,-47,-189,-316,-390,-476,-284,-127
-98,-117,32,106,-63,-47,-189,-316,-390,-476,-284,-127
-98,-123,26,106,-63,-53,-189,-316,-396,-476,-290,-127
-98,-129,26,106,-63,-59,-189,-316,-396,-476,-296,-127
-98,-129,26,106,-57,-59,-189,-316,-396,-476,-296,-127
-98,-129,26,106,-57,-59,-189,-316,-396,-476,-296,-127
-98,-129,26,106,-57,-59,-189,-316,-396,-476,-296,-127
-98,-129,26,106,-57,-59,-189,-310,-396,-476,-296,-127
-98,-129,26,106,-57,-59,-177,-280,-378,-464,-284,-121
-98,-129,32,106,-63,-53,-165,-256,-348,-452,-272,-115
-98,-129,32,106,-63,-53,-159,-244,-324,-440,-260,-103
-92,-123,26,100,-57,-53,-153,-220,-300,-422,-242,-97
-80,-111,20,88,-45,-53,-147,-202,-288,-404,-224,-85
-74,-105,20,82,-45,-53,-141,-190,-270,-374,-212,-73
-74,-99,26,82,-45,-47,-135,-178,-258,-356,-188,-55
-74,-93,38,76,-45,-41,-129,-172,-252,-344,-176,-49
-68,-87,38,70,-45,-41,-129,-160,-246,-332,-170,-43
-56,-81,38,64,-45,-41,-129,-160,-240,-326,-164,-37
-44,-57,38,52,-39,-29,-129,-154,-228,-314,-146,-25
-20,-15,38,22,-39,1,-129,-148,-210,-302,-122,5
-14,3,44,10,-39,13,-129,-136,-192,-290,-104,23
-8,9,44,4,-39,19,-129,-124,-168,-266,-86,35
4,21,44,-8,-27,19,-129,-106,-144,-236,-62,64
16,26,44,-20,-21,25,-129,-82,-126,-200,-32,94
22,32,44,-26,-15,25,-129,-70,-114,-182,-14,112
28,32,44,-32,-9,25,-129,-58,-108,-170,-3,118
40,38,50,-44,-9,30,-117,-16,-90,-158,9,130
46,44,50,-50,-9,30,-39,79,-48,-152,15,136
46,44,50,-50,-3,30,68,211,-6,-146,15,136
51,44,44,-50,3,30,170,349,65,-140,15,136
69,50,32,-61,21,30,242,469,155,-98,45,160
