,,,,,,,,,,,
2019-09-04 23:51:13,,,,,,,,,,,
,,,,,,,,,,,
I,II,III,aVR,aVL,aVF,V1,V2,V3,V4,V5,V6
27,134,105,-74,-35,123,-6,281,-28,236,254,194
22,116,93,-68,-35,105,-6,257,-45,200,224,176
22,92,69,-56,-23,81,-6,233,-62,164,200,158
11,80,69,-44,-29,75,-6,209,-86,128,170,134
5,62,57,-32,-23,57,-6,191,-104,98,152,110
-1,44,45,-20,-23,45,0,167,-122,68,122,86
-7,26,33,-8,-17,27,-6,149,-146,38,98,68
-7,14,21,-2,-11,15,-12,125,-170,8,74,44
-13,-10,3,14,-5,-3,-12,107,-182,-22,56,26
-19,-32,-15,20,-5,-27,-12,89,-194,-44,32,20
-19,-50,-33,32,7,-43,-12,71,-212,-68,8,8
-25,-62,-39,44,7,-49,-12,53,-224,-98,-14,-10
-31,-68,-39,44,1,-55,-12,35,-236,-128,-38,-22
-37,-80,-45,56,1,-61,-12,17,-248,-152,-56,-33
-43,-92,-50,62,1,-73,-12,5,-266,-164,-74,-50
-43,-98,-55,68,7,-79,-18,-7,-284,-182,-92,-62
-49,-98,-50,74,1,-73,-18,-19,-296,-200,-98,-74
-55,-104,-50,74,-5,-79,-23,-24,-308,-218,-110,-86
-55,-110,-55,80,1,-85,-23,-29,-320,-230,-122,-92
-61,-116,-55,86,-5,-85,-23,-41,-326,-248,-128,-104
-61,-128,-67,92,1,-97,-23,-47,-332,-260,-140,-116
-61,-134,-73,98,7,-103,-28,-53,-332,-278,-146,-116
-61,-146,-85,104,13,-115,-28,-59,-338,-290,-152,-122
-61,-158,-97,110,19,-127,-28,-65,-344,-302,-158,-122
-67,-164,-97,110,13,-133,-28,-71,-350,-308,-158,-128
-67,-170,-103,116,19,-139,-28,-77,-356,-308,-164,-134
-61,-170,-109,116,25,-139,-23,-83,-362,-308,-164,-140
-61,-176,-115,116,25,-145,-23,-83,-368,-314,-170,-140
-61,-182,-121,122,31,-151,-23,-89,-368,-314,-176,-140
-61,-182,-121,122,31,-151,-23,-95,-374,-326,-182,-140
-61,-182,-121,122,31,-151,-23,-95,-380,-332,-188,-146
-67,-182,-115,122,25,-151,-23,-95,-380,-332,-188,-146
-67,-188,-121,122,25,-157,-23,-95,-374,-332,-194,-146
-67,-188,-121,122,25,-157,-23,-89,-374,-332,-194,-146
-67,-188,-121,122,25,-157,-23,-89,-380,-332,-194,-152
-73,-188,-115,128,19,-151,-23,-89,-374,-332,-194,-158
-73,-194,-121,134,25,-157,-23,-89,-380,-332,-194,-158
-79,-200,-121,134,19,-163,-23,-89,-380,-332,-200,-152
-79,-206,-127,140,25,-169,-23,-89,-380,-332,-200,-152
-73,-200,-127,134,25,-163,-28,-95,-380,-332,-200,-158
-73,-200,-127,134,25,-163,-28,-95,-380,-338,-200,-158
-79,-206,-127,140,25,-169,-28,-101,-380,-338,-200,-158
-73,-206,-133,140,31,-169,-28,-101,-380,-338,-200,-158
-73,-200,-127,134,25,-163,-23,-101,-374,-338,-194,-158
-73,-200,-127,134,25,-163,-23,-101,-368,-344,-200,-164
-73,-194,-121,134,25,-157,-23,-101,-368,-344,-200,-164
-73,-194,-121,134,25,-157,-23,-101,-368,-344,-200,-164
-73,-194,-121,134,25,-157,-28,-101,-368,-338,-200,-158
-79,-188,-109,128,13,-151,-28,-101,-368,-338,-200,-164
-79,-188,-109,128,13,-151,-34,-107,-368,-338,-200,-164
-79,-188,-109,128,13,-151,-34,-107,-374,-338,-200,-158
-79,-188,-109,128,13,-151,-34,-107,-368,-344,-194,-158
-73,-188,-115,128,19,-151,-28,-107,-368,-344,-194,-158
-73,-188,-115,128,19,-151,-28,-101,-368,-344,-188,-158
-73,-188,-115,128,19,-151,-28,-101,-368,-350,-188,-152
-73,-176,-103,122,13,-139,-28,-101,-374,-350,-194,-152
-73,-170,-97,122,13,-133,-28,-101,-374,-350,-194,-152
-73,-176,-103,122,13,-139,-28,-101,-368,-344,-188,-146
-67,-182,-115,122,25,-151,-28,-101,-368,-338,-188,-146
-67,-182,-115,122,25,-151,-34,-101,-368,-338,-188,-146
-67,-182,-115,122,25,-151,-34,-101,-368,-338,-194,-152
-73,-182,-109,128,19,-145,-34,-101,-368,-338,-194,-158
-67,-182,-115,122,25,-151,-34,-101,-368,-338,-188,-152
-61,-182,-121,122,31,-151,-34,-101,-362,-338,-182,-146
-61,-182,-121,122,31,-151,-28,-101,-362,-338,-176,-140
-67,-188,-121,122,25,-157,-28,-95,-362,-338,-176,-134
-67,-182,-115,122,25,-151,-28,-95,-362,-338,-176,-134
-67,-182,-115,122,25,-151,-34,-95,-362,-338,-176,-140
-67,-182,-115,122,25,-151,-34,-95,-362,-338,-176,-140
-67,-188,-121,122,25,-157,-40,-95,-362,-338,-176,-140
-61,-188,-127,122,31,-157,-40,-95,-368,-338,-176,-140
-61,-188,-127,122,31,-157,-40,-95,-368,-338,-176,-134
-61,-182,-121,122,31,-151,-40,-95,-368,-338,-170,-134
-61,-182,-121,122,31,-151,-40,-95,-368,-338,-170,-140
-67,-182,-115,122,25,-151,-40,-95,-374,-338,-170,-140
-67,-176,-109,116,19,-145,-40,-95,-374,-338,-170,-140
-67,-176,-109,116,19,-145,-46,-95,-374,-338,-170,-140
-67,-176,-109,116,19,-145,-46,-95,-374,-338,-170,-146
-67,-176,-109,116,19,-145,-46,-95,-374,-338,-176,-146
-61,-176,-115,116,25,-145,-46,-95,-380,-332,-176,-146
-61,-176,-115,116,25,-145,-46,-95,-380,-338,-176,-146
-61,-182,-121,122,31,-151,-46,-95,-386,-338,-182,-152
-61,-182,-121,122,31,-151,-46,-95,-386,-344,-182,-152
-67,-182,-115,122,25,-151,-46,-95,-386,-350,-188,-152
-73,-188,-115,128,19,-151,-46,-95,-386,-350,-188,-152
-73,-188,-115,128,19,-151,-46,-101,-386,-350,-188,-152
-73,-188,-115,128,19,-151,-40,-101,-386,-356,-188,-152
-67,-182,-115,122,25,-151,-40,-101,-386,-356,-188,-152
-67,-188,-121,122,25,-157,-46,-101,-386,-362,-188,-152
-67,-188,-121,122,25,-157,-46,-101,-386,-362,-194,-152
-67,-188,-121,122,25,-157,-46,-107,-392,-368,-200,-152
-67,-194,-127,128,31,-163,-46,-101,-398,-374,-206,-158
-67,-194,-127,128,31,-163,-46,-101,-398,-374,-206,-158
-67,-200,-133,128,31,-169,-46,-101,-398,-374,-200,-158
-61,-200,-139,128,36,-169,-46,-101,-398,-374,-200,-158
-61,-200,-139,128,36,-169,-46,-107,-398,-380,-200,-152
-61,-194,-133,128,36,-163,-46,-107,-398,-386,-206,-158
-67,-194,-127,128,31,-163,-46,-113,-398,-386,-206,-158
-67,-194,-127,128,31,-163,-46,-113,-404,-392,-212,-158
-73,-194,-121,134,25,-157,-46,-119,-404,-392,-218,-158
-73,-194,-121,134,25,-157,-46,-119,-410,-398,-218,-164
-73,-194,-121,134,25,-157,-46,-119,-410,-404,-218,-158
-73,-194,-121,134,25,-157,-46,-125,-410,-404,-218,-158
-67,-200,-133,128,31,-169,-46,-125,-410,-410,-218,-158
-61,-194,-133,128,36,-163,-40,-125,-410,-410,-212,-164
-61,-194,-133,128,36,-163,-46,-125,-410,-416,-218,-164
-61,-200,-139,128,36,-169,-46,-125,-404,-416,-218,-170
-67,-200,-133,128,31,-169,-46,-125,-404,-416,-218,-170
-67,-200,-133,128,31,-169,-46,-131,-404,-416,-218,-176
-67,-200,-133,128,31,-169,-46,-137,-404,-416,-224,-176
-67,-200,-133,128,31,-169,-46,-137,-404,-422,-224,-182
-73,-206,-133,140,31,-169,-40,-137,-404,-422,-230,-182
-73,-212,-139,140,31,-175,-40,-143,-404,-428,-236,-188
-79,-218,-139,146,31,-181,-40,-143,-410,-440,-242,-188
-73,-218,-145,146,36,-181,-40,-149,-410,-440,-242,-188
-73,-218,-145,146,36,-181,-46,-149,-410,-446,-242,-182
-73,-218,-145,146,36,-181,-46,-149,-404,-446,-242,-176
-79,-224,-145,146,31,-187,-46,-149,-404,-440,-242,-176
-79,-218,-139,146,31,-181,-46,-155,-410,-440,-242,-182
-85,-218,-133,152,25,-175,-46,-155,-410,-446,-236,-188
-79,-224,-145,146,31,-187,-40,-155,-404,-446,-236,-188
-73,-224,-151,146,36,-187,-40,-155,-404,-446,-236,-188
-73,-236,-163,152,41,-199,-46,-161,-404,-446,-236,-188
-79,-236,-157,152,36,-199,-46,-155,-398,-446,-236,-188
-79,-236,-157,152,36,-199,-46,-155,-398,-446,-230,-188
-79,-224,-145,146,31,-187,-46,-161,-398,-452,-236,-188
-85,-224,-139,152,25,-181,-46,-155,-398,-452,-236,-188
-79,-230,-151,152,36,-193,-46,-155,-392,-458,-236,-188
-79,-224,-145,146,31,-187,-46,-161,-398,-458,-236,-188
-79,-218,-139,146,31,-181,-46,-161,-392,-458,-242,-188
-79,-224,-145,146,31,-187,-46,-167,-392,-458,-242,-188
-79,-224,-145,146,31,-187,-46,-167,-392,-458,-242,-188
-79,-224,-145,146,31,-187,-46,-167,-386,-458,-242,-188
-79,-224,-145,146,31,-187,-46,-173,-386,-452,-242,-188
-79,-224,-145,146,31,-187,-46,-173,-386,-452,-242,-194
-85,-230,-145,158,31,-187,-46,-173,-386,-452,-242,-194
-85,-230,-145,158,31,-187,-52,-173,-392,-452,-242,-194
-85,-236,-151,158,31,-193,-52,-179,-392,-452,-242,-194
-85,-230,-145,158,31,-187,-52,-179,-386,-452,-242,-194
-85,-230,-145,158,31,-187,-52,-173,-386,-452,-236,-188
-85,-236,-151,158,31,-193,-52,-179,-386,-452,-236,-188
-85,-230,-145,158,31,-187,-46,-179,-386,-458,-242,-188
-85,-224,-139,152,25,-181,-46,-179,-386,-464,-242,-188
-85,-224,-139,152,25,-181,-46,-179,-386,-464,-248,-194
-91,-224,-133,152,19,-181,-46,-179,-380,-464,-254,-194
-91,-230,-139,158,25,-187,-40,-185,-374,-458,-254,-200
-91,-236,-145,158,25,-193,-40,-185,-380,-458,-254,-200
-91,-236,-145,158,25,-193,-46,-185,-374,-452,-254,-194
-85,-236,-151,158,31,-193,-46,-185,-368,-452,-254,-194
-85,-236,-151,158,31,-193,-52,-185,-368,-446,-254,-194
-85,-236,-151,158,31,-193,-52,-179,-368,-446,-248,-188
-79,-236,-157,152,36,-199,-46,-179,-362,-452,-248,-194
-79,-236,-157,152,36,-199,-46,-179,-362,-452,-242,-188
-79,-236,-157,152,36,-199,-40,-179,-362,-458,-242,-188
-79,-236,-157,152,36,-199,-46,-179,-362,-458,-242,-188
-79,-236,-157,152,36,-199,-40,-179,-356,-458,-236,-188
-79,-236,-157,152,36,-199,-40,-179,-356,-458,-236,-188
-73,-236,-163,152,41,-199,-40,-179,-356,-458,-242,-188
-73,-236,-163,152,41,-199,-46,-179,-356,-458,-242,-188
-79,-236,-157,152,36,-199,-46,-185,-356,-458,-242,-194
-79,-236,-157,152,36,-199,-46,-185,-356,-452,-242,-194
-85,-230,-145,158,31,-187,-46,-185,-356,-458,-248,-194
-85,-224,-139,152,25,-181,-46,-185,-356,-458,-242,-200
-85,-224,-139,152,25,-181,-46,-185,-356,-458,-242,-200
-85,-224,-139,152,25,-181,-46,-185,-362,-458,-242,-200
-85,-230,-145,158,31,-187,-40,-185,-356,-452,-242,-200
-91,-236,-145,158,25,-193,-40,-185,-356,-452,-236,-200
-85,-248,-163,164,36,-205,-46,-185,-356,-446,-236,-200
-85,-254,-169,170,41,-211,-46,-185,-356,-452,-236,-200
-85,-248,-163,164,36,-205,-46,-191,-356,-452,-242,-200
-85,-248,-163,164,36,-205,-46,-191,-356,-446,-242,-194
-85,-248,-163,164,36,-205,-46,-191,-356,-446,-242,-194
-85,-242,-157,164,36,-199,-46,-185,-362,-440,-242,-194
-91,-236,-145,158,25,-193,-40,-185,-362,-440,-242,-194
-91,-236,-145,158,25,-193,-40,-185,-356,-440,-242,-194
-91,-242,-151,164,31,-199,-40,-185,-356,-440,-236,-188
-85,-242,-157,164,36,-199,-40,-179,-350,-434,-236,-182
-85,-242,-157,164,36,-199,-40,-185,-350,-434,-236,-182
-79,-242,-163,158,41,-205,-46,-185,-350,-434,-242,-188
-79,-236,-157,152,36,-199,-40,-185,-350,-434,-242,-194
-85,-242,-157,164,36,-199,-40,-191,-356,-434,-242,-194
-85,-242,-157,164,36,-199,-40,-191,-356,-434,-242,-200
-85,-248,-163,164,36,-205,-40,-185,-356,-428,-242,-200
-85,-242,-157,164,36,-199,-46,-185,-356,-428,-242,-194
-85,-242,-157,164,36,-199,-46,-185,-350,-422,-242,-194
-91,-242,-151,164,31,-199,-46,-185,-350,-422,-242,-194
-85,-242,-157,164,36,-199,-46,-185,-350,-416,-242,-194
-85,-242,-157,164,36,-199,-40,-185,-350,-416,-248,-194
-85,-248,-163,164,36,-205,-40,-185,-350,-416,-248,-194
-91,-248,-157,164,31,-205,-40,-185,-350,-416,-248,-194
-85,-242,-157,164,36,-199,-40,-185,-350,-416,-242,-194
-85,-242,-157,164,36,-199,-40,-185,-350,-416,-242,-194
-85,-242,-157,164,36,-199,-40,-185,-356,-416,-242,-194
-85,-248,-163,164,36,-205,-40,-185,-350,-416,-236,-188
-79,-242,-163,158,41,-205,-40,-185,-350,-410,-236,-188
-79,-236,-157,152,36,-199,-40,-179,-350,-410,-236,-188
-79,-236,-157,152,36,-199,-40,-179,-350,-404,-236,-188
-67,-242,-175,152,53,-211,-40,-179,-350,-404,-236,-182
-67,-242,-175,152,53,-211,-34,-179,-356,-398,-236,-182
-67,-236,-169,146,47,-205,-34,-179,-350,-392,-236,-188
-67,-236,-169,146,47,-205,-34,-185,-350,-392,-242,-188
-73,-236,-163,152,41,-199,-28,-185,-350,-392,-242,-194
-73,-242,-169,158,47,-205,-34,-185,-350,-398,-242,-194
-73,-242,-169,158,47,-205,-34,-179,-350,-398,-242,-200
-73,-248,-175,158,47,-211,-34,-179,-350,-404,-242,-200
-73,-242,-169,158,47,-205,-40,-179,-350,-404,-248,-200
-73,-242,-169,158,47,-205,-46,-179,-350,-404,-242,-194
-73,-242,-169,158,47,-205,-46,-179,-350,-404,-242,-194
-73,-248,-175,158,47,-211,-46,-179,-344,-404,-242,-194
-73,-248,-175,158,47,-211,-40,-179,-344,-404,-242,-194
-73,-248,-175,158,47,-211,-40,-179,-344,-404,-242,-188
-73,-236,-163,152,41,-199,-40,-179,-344,-404,-242,-188
-73,-224,-151,146,36,-187,-40,-185,-344,-404,-242,-194
-73,-224,-151,146,36,-187,-40,-179,-344,-404,-242,-200
-73,-224,-151,146,36,-187,-40,-179,-338,-404,-242,-200
-73,-230,-157,152,41,-193,-46,-173,-332,-404,-242,-206
-73,-230,-157,152,41,-193,-46,-173,-332,-404,-248,-206
-79,-230,-151,152,36,-193,-46,-173,-332,-398,-248,-200
-79,-236,-157,152,36,-199,-46,-173,-326,-398,-248,-200
-85,-236,-151,158,31,-193,-40,-173,-326,-392,-248,-200
-85,-236,-151,158,31,-193,-40,-173,-326,-392,-248,-200
-85,-236,-151,158,31,-193,-40,-173,-326,-392,-248,-200
-85,-236,-151,158,31,-193,-34,-173,-326,-392,-248,-194
-85,-230,-145,158,31,-187,-34,-173,-320,-392,-242,-194
-79,-224,-145,146,31,-187,-40,-173,-320,-392,-248,-194
-79,-224,-145,146,31,-187,-40,-167,-320,-392,-248,-194
-79,-224,-145,146,31,-187,-40,-161,-320,-392,-248,-188
-73,-218,-145,146,36,-181,-40,-155,-320,-386,-242,-188
-73,-206,-133,140,31,-169,-34,-149,-320,-380,-242,-188
-67,-194,-127,128,31,-163,-23,-143,-314,-368,-230,-182
-67,-188,-121,122,25,-157,-23,-137,-302,-362,-224,-176
-67,-182,-115,122,25,-151,-12,-137,-290,-356,-218,-170
-67,-170,-103,116,19,-139,-6,-137,-284,-350,-212,-170
-67,-164,-97,110,13,-133,-6,-131,-278,-350,-212,-170
-67,-164,-97,110,13,-133,0,-119,-272,-344,-212,-164
-61,-158,-97,110,19,-127,12,-113,-260,-338,-206,-158
-61,-146,-85,104,13,-115,18,-107,-254,-332,-206,-158
-61,-146,-85,104,13,-115,18,-107,-254,-332,-206,-158
-55,-146,-91,98,19,-121,18,-107,-248,-326,-206,-158
-55,-140,-85,92,13,-115,24,-101,-248,-320,-200,-152
-55,-122,-67,86,7,-97,30,-101,-242,-320,-200,-152
-55,-110,-55,80,1,-85,36,-101,-230,-314,-200,-152
-55,-98,-45,74,-5,-73,42,-101,-224,-314,-200,-152
-61,-92,-33,74,-17,-61,54,-95,-218,-308,-194,-146
-67,-92,-27,74,-23,-61,54,-95,-218,-308,-188,-146
-61,-86,-27,74,-17,-55,48,-101,-218,-308,-194,-146
-61,-86,-27,74,-17,-55,36,-107,-218,-308,-194,-146
-61,-86,-27,74,-17,-55,18,-119,-218,-308,-194,-140
-55,-80,-27,62,-17,-55,-6,-125,-224,-308,-188,-140
-49,-80,-33,62,-11,-55,-23,-137,-224,-308,-194,-140
-49,-74,-27,62,-11,-49,-34,-143,-230,-308,-194,-140
-43,-80,-39,56,-5,-61,-46,-143,-236,-308,-188,-134
-37,-86,-50,62,7,-67,-52,-149,-236,-308,-188,-134
-31,-86,-55,56,13,-73,-58,-149,-236,-308,-182,-134
-31,-92,-61,56,13,-79,-58,-143,-236,-308,-182,-134
-25,-104,-79,62,25,-91,-52,-143,-236,-308,-182,-134
-19,-110,-91,62,36,-103,-46,-137,-236,-308,-182,-134
-19,-122,-103,68,41,-115,-40,-131,-236,-302,-182,-140
-19,-134,-115,74,47,-127,-40,-131,-242,-308,-182,-140
-7,-140,-133,68,59,-139,-40,-131,-248,-308,-182,-140
-13,-146,-133,80,59,-139,-40,-131,-254,-314,-188,-146
-13,-158,-145,86,65,-151,-46,-137,-266,-314,-194,-152
-13,-164,-151,86,65,-157,-46,-149,-272,-320,-194,-152
-19,-170,-151,92,65,-163,-52,-155,-278,-326,-200,-158
-25,-182,-157,104,65,-169,-52,-161,-284,-338,-200,-158
-37,-182,-145,110,53,-163,-58,-167,-290,-338,-206,-164
-37,-188,-151,110,53,-169,-58,-173,-290,-344,-206,-170
-43,-200,-157,116,53,-181,-52,-173,-290,-344,-206,-170
-43,-206,-163,122,59,-187,-52,-173,-296,-350,-206,-176
-49,-206,-157,128,53,-181,-52,-179,-302,-356,-218,-182
-49,-212,-163,128,53,-187,-52,-179,-308,-362,-224,-188
-55,-218,-163,134,53,-193,-52,-179,-314,-368,-236,-194
-61,-224,-163,140,47,-193,-52,-185,-314,-368,-242,-200
-61,-230,-169,146,53,-199,-52,-191,-320,-374,-248,-200
-61,-236,-175,146,53,-205,-52,-197,-326,-380,-254,-200
-67,-248,-181,152,53,-217,-52,-197,-326,-380,-254,-200
-67,-248,-181,152,53,-217,-52,-191,-326,-386,-254,-206
-67,-254,-187,158,59,-223,-52,-185,-320,-380,-254,-200
-67,-260,-193,158,59,-229,-52,-185,-314,-374,-254,-206
-73,-254,-181,164,53,-217,-52,-179,-302,-362,-254,-200
-73,-248,-175,158,47,-211,-46,-173,-290,-350,-248,-194
-73,-236,-163,152,41,-199,-40,-167,-278,-344,-242,-188
-79,-230,-151,152,36,-193,-34,-155,-266,-332,-230,-182
-79,-224,-145,146,31,-187,-23,-143,-254,-314,-218,-176
-85,-218,-133,152,25,-175,-18,-131,-236,-302,-212,-176
-97,-212,-115,152,7,-163,-6,-107,-224,-290,-200,-164
-103,-200,-97,146,-5,-151,6,-95,-206,-272,-194,-164
-109,-188,-79,146,-17,-133,18,-71,-194,-260,-182,-158
-115,-176,-61,140,-29,-121,30,-53,-176,-242,-176,-152
-121,-164,-45,140,-41,-103,42,-29,-152,-218,-170,-146
-133,-152,-21,140,-59,-85,60,-13,-128,-200,-158,-140
-145,-140,3,140,-77,-67,84,11,-104,-182,-146,-134
-157,-122,33,140,-95,-43,108,41,-80,-158,-134,-134
-163,-110,51,134,-107,-33,126,65,-56,-140,-122,-122
-169,-104,63,134,-119,-21,150,95,-40,-122,-110,-110
-175,-98,75,134,-125,-15,168,125,-10,-92,-92,-98
-181,-86,93,134,-137,3,192,161,8,-68,-80,-92
-187,-80,105,128,-149,9,216,203,38,-34,-62,-74
-193,-68,123,128,-161,27,228,239,68,-4,-44,-62
-193,-44,147,116,-173,51,246,275,98,26,-26,-50
-187,-27,159,104,-173,63,270,305,128,62,-8,-38
-187,-10,177,98,-179,81,294,341,158,92,14,-28
-187,14,201,86,-191,105,318,383,194,122,38,-4
-187,32,219,74,-203,123,348,431,236,158,62,14
-187,56,243,62,-215,147,378,479,278,194,92,32
-187,68,255,56,-221,159,408,545,326,236,122,56
-193,92,285,50,-239,189,444,617,374,278,140,68
-187,122,309,32,-245,213,492,695,428,320,158,80
-193,140,333,26,-263,237,546,785,488,362,176,92
-193,158,351,20,-269,255,618,887,560,416,200,104
-199,176,375,8,-287,273,702,1013,656,488,230,122
-205,206,411,3,-305,309,798,1139,752,560,254,140
-211,230,441,-8,-323,333,894,1283,866,644,284,158
-217,266,483,-20,-347,375,996,1463,1004,740,326,176
-223,302,525,-38,-371,411,1110,1667,1148,836,368,194
-235,362,597,-62,-413,477,1218,1859,1304,932,416,224
-247,434,681,-92,-461,555,1296,2021,1460,1028,470,272
-253,530,783,-134,-515,657,1350,2123,1598,1142,554,338
-247,632,879,-194,-563,753,1380,2147,1724,1268,668,428
-241,734,975,-242,-605,855,1392,2075,1820,1412,800,548
-229,830,1059,-296,-641,945,1386,1889,1880,1568,962,680
-211,950,1161,-368,-683,1053,1350,1613,1916,1736,1166,854
-193,1070,1263,-434,-725,1167,1302,1295,1928,1922,1406,1052
-181,1172,1353,-494,-767,1263,1236,899,1880,2072,1658,1256
-169,1268,1437,-548,-803,1353,1158,455,1772,2198,1898,1454
-157,1358,1515,-596,-833,1437,1074,35,1628,2312,2150,1652
-139,1454,1593,-656,-863,1521,972,-347,1466,2425,2390,1850
-139,1568,1707,-716,-923,1635,858,-713,1310,2521,2617,2042
-157,1682,1839,-758,-995,1761,756,-1055,1154,2593,2821,2216
-187,1790,1977,-800,-1079,1881,648,-1367,986,2623,2989,2360
-217,1886,2103,-830,-1157,1995,534,-1655,782,2569,3091,2455
-241,1940,2181,-848,-1211,2061,420,-1901,530,2455,3139,2515
-259,1952,2211,-848,-1235,2079,318,-2069,278,2330,3157,2539
-265,1892,2157,-812,-1211,2025,198,-2177,56,2228,3175,2533
-271,1772,2043,-752,-1157,1905,42,-2243,-134,2114,3145,2491
-271,1616,1887,-674,-1079,1749,-118,-2279,-314,1964,3043,2384
-277,1424,1701,-572,-989,1563,-244,-2261,-458,1778,2869,2204
-283,1202,1485,-458,-881,1341,-334,-2189,-584,1490,2557,1928
-301,980,1281,-338,-791,1131,-382,-2105,-704,1034,2084,1568
-313,776,1089,-230,-701,933,-400,-1979,-788,578,1550,1178
-319,602,921,-140,-617,759,-406,-1829,-836,224,1052,812
-313,464,777,-74,-545,621,-400,-1673,-854,-16,674,536
-301,350,651,-20,-473,501,-394,-1517,-854,-164,416,344
-283,266,549,8,-413,405,-394,-1373,-830,-254,248,212
-271,194,465,38,-365,327,-406,-1247,-794,-320,122,122
-253,140,393,56,-323,267,-406,-1127,-746,-350,32,56
-223,92,315,62,-269,201,-400,-1025,-698,-368,-26,8
-193,56,249,68,-221,153,-388,-917,-638,-362,-62,-22
-163,14,177,74,-167,93,-358,-809,-578,-344,-92,-38
-133,-22,111,80,-119,45,-334,-707,-530,-320,-110,-50
-109,-44,63,74,-89,9,-292,-605,-476,-290,-128,-62
-85,-74,9,80,-47,-33,-256,-509,-428,-266,-134,-68
-67,-104,-39,80,-17,-73,-220,-419,-374,-236,-140,-74
-55,-128,-73,86,7,-103,-190,-353,-332,-218,-146,-80
-49,-146,-97,98,25,-121,-166,-299,-296,-212,-152,-86
-37,-164,-127,98,41,-145,-148,-257,-266,-200,-158,-92
-31,-182,-151,104,59,-169,-130,-227,-242,-188,-164,-98
-25,-200,-175,110,71,-187,-118,-197,-218,-182,-170,-104
-19,-212,-193,110,83,-205,-112,-173,-206,-182,-182,-110
-7,-224,-217,110,101,-223,-112,-155,-194,-182,-188,-122
-7,-236,-229,116,107,-235,-112,-131,-188,-176,-200,-128
-1,-236,-235,116,113,-235,-106,-113,-182,-176,-206,-134
5,-242,-247,116,125,-247,-106,-95,-176,-182,-212,-134
5,-248,-253,116,125,-253,-100,-77,-164,-182,-218,-134
11,-254,-265,122,137,-259,-94,-71,-158,-182,-224,-140
11,-254,-265,122,137,-259,-94,-59,-146,-176,-224,-134
17,-254,-271,116,143,-265,-94,-47,-134,-176,-230,-134
17,-254,-271,116,143,-265,-88,-29,-122,-170,-230,-140
17,-254,-271,116,143,-265,-88,-24,-110,-164,-230,-140
17,-254,-271,116,143,-265,-88,-19,-104,-164,-230,-134
22,-254,-277,116,149,-265,-82,-13,-98,-164,-224,-134
22,-254,-277,116,149,-265,-82,-1,-86,-158,-224,-128
22,-254,-277,116,149,-265,-76,5,-80,-158,-224,-128
27,-254,-283,116,155,-265,-76,11,-74,-152,-218,-122
33,-260,-295,110,161,-277,-70,17,-62,-140,-212,-116
33,-260,-295,110,161,-277,-76,23,-56,-140,-212,-116
33,-254,-289,110,161,-271,-76,29,-50,-134,-206,-116
33,-248,-283,104,155,-265,-76,29,-45,-134,-200,-122
39,-248,-289,104,161,-265,-76,35,-40,-122,-194,-122
39,-248,-289,104,161,-265,-76,41,-40,-116,-188,-122
39,-248,-289,104,161,-265,-76,47,-34,-110,-188,-116
45,-242,-289,98,167,-265,-76,53,-28,-104,-182,-110
45,-236,-283,92,161,-259,-70,53,-22,-98,-182,-110
45,-236,-283,92,161,-259,-70,59,-16,-92,-176,-104
45,-236,-283,92,161,-259,-76,59,-10,-86,-170,-98
51,-230,-283,92,167,-253,-76,65,2,-80,-164,-98
57,-224,-283,80,167,-253,-76,71,8,-74,-158,-92
57,-218,-277,80,167,-247,-76,77,14,-68,-158,-86
57,-212,-271,74,161,-241,-76,83,14,-62,-152,-86
57,-212,-271,74,161,-241,-76,89,20,-50,-146,-86
57,-212,-271,74,161,-241,-76,95,26,-44,-146,-86
63,-212,-277,74,167,-241,-76,101,32,-39,-140,-80
69,-200,-271,62,167,-235,-76,107,38,-28,-134,-74
69,-194,-265,62,167,-229,-76,107,44,-16,-134,-68
75,-182,-259,56,167,-217,-76,113,50,-10,-128,-68
75,-182,-259,56,167,-217,-76,125,56,-4,-122,-62
75,-182,-259,56,167,-217,-76,131,68,8,-116,-62
75,-176,-253,50,161,-211,-76,137,74,20,-110,-56
75,-182,-259,56,167,-217,-82,143,80,26,-104,-56
81,-182,-265,50,173,-223,-82,149,86,38,-98,-50
81,-182,-265,50,173,-223,-82,155,92,50,-98,-38
87,-176,-265,44,173,-217,-82,161,98,56,-86,-33
87,-164,-253,38,167,-205,-82,173,104,74,-80,-33
87,-164,-253,38,167,-205,-76,185,116,86,-74,-28
87,-164,-253,38,167,-205,-76,191,122,98,-68,-22
93,-158,-253,32,173,-205,-76,197,134,110,-56,-16
99,-152,-253,26,173,-199,-76,203,146,122,-50,-10
99,-140,-241,20,167,-187,-82,215,152,134,-38,-4
105,-140,-247,14,173,-193,-82,215,164,140,-26,2
111,-128,-241,8,173,-181,-76,227,170,158,-14,8
111,-122,-235,8,173,-175,-76,239,176,164,-8,20
111,-122,-235,8,173,-175,-82,251,176,182,3,26
111,-116,-229,3,167,-169,-76,269,188,200,8,38
111,-116,-229,3,167,-169,-76,281,200,218,20,50
117,-116,-235,-2,173,-175,-76,293,212,236,32,62
123,-98,-223,-8,173,-157,-76,305,224,254,44,68
123,-92,-217,-14,167,-151,-76,317,242,272,56,74
129,-80,-211,-26,167,-145,-76,335,254,284,62,80
135,-62,-199,-32,167,-127,-76,341,266,296,74,86
135,-44,-181,-44,155,-109,-76,353,278,314,86,92
141,-32,-175,-56,155,-103,-76,359,296,338,104,104
141,-27,-169,-56,155,-97,-76,371,308,356,122,116
147,-22,-169,-56,161,-91,-76,383,320,380,140,128
147,-16,-163,-62,155,-85,-76,395,326,398,152,134
147,-10,-157,-62,155,-79,-76,413,338,416,164,146
153,-4,-157,-74,155,-79,-76,431,356,440,176,158
153,2,-151,-74,155,-73,-76,443,374,464,194,170
153,8,-145,-80,149,-67,-76,455,386,482,206,182
153,20,-133,-86,143,-55,-76,467,398,506,224,194
153,32,-121,-92,137,-43,-70,485,410,524,242,212
153,50,-103,-98,131,-27,-76,491,422,542,254,224
159,62,-97,-104,131,-15,-76,503,428,560,272,236
165,80,-85,-122,125,-3,-82,509,446,584,284,242
165,92,-73,-128,119,9,-82,515,458,602,296,254
171,104,-67,-134,119,21,-82,527,470,614,314,266
177,110,-67,-140,125,21,-82,533,482,626,332,278
177,128,-50,-152,113,39,-82,539,494,644,344,296
171,140,-33,-152,101,57,-82,545,506,662,362,308
171,152,-21,-158,95,69,-82,551,506,680,380,320
171,164,-9,-164,89,81,-82,557,512,698,392,332
165,176,9,-170,77,93,-82,563,524,710,404,344
171,188,15,-176,77,105,-82,563,524,722,416,356
171,194,21,-176,77,111,-82,563,530,734,428,362
171,200,27,-182,71,117,-82,563,536,746,434,368
171,206,33,-182,71,123,-82,563,542,752,446,374
171,218,45,-188,65,135,-82,563,548,758,452,380
171,230,57,-194,59,147,-76,563,548,764,452,380
171,242,69,-200,53,159,-76,563,548,770,458,392
165,248,81,-206,41,165,-76,557,548,776,464,392
165,254,87,-206,41,171,-82,557,548,782,470,398
159,254,93,-200,36,177,-82,551,542,782,470,398
153,266,111,-206,25,189,-82,545,542,788,476,398
153,278,123,-212,19,201,-76,533,536,788,476,398
147,284,135,-212,7,213,-76,521,530,782,476,392
141,296,153,-218,-5,225,-70,509,524,776,470,386
129,296,165,-212,-17,231,-64,503,524,764,470,386
123,284,159,-200,-17,225,-58,491,512,752,464,374
117,284,165,-200,-23,225,-58,479,506,734,452,368
111,284,171,-194,-29,231,-58,461,494,716,434,356
105,272,165,-188,-29,219,-58,443,482,692,422,344
105,260,153,-182,-23,207,-64,431,470,674,416,338
99,254,153,-170,-23,207,-58,413,458,656,404,326
99,248,147,-170,-23,201,-58,395,440,626,386,314
93,236,141,-164,-23,189,-52,377,422,596,368,296
87,218,129,-146,-17,177,-40,359,398,560,344,278
81,200,117,-140,-17,159,-34,341,380,524,320,260
81,188,105,-134,-11,147,-28,323,362,488,296,242
75,170,93,-116,-5,135,-28,305,338,452,272,224
63,158,93,-104,-11,129,-23,287,320,422,248,212
57,140,81,-98,-11,111,-23,269,302,386,224,188
51,128,75,-86,-11,105,-23,251,284,356,200,170
39,110,69,-68,-11,93,-23,233,260,326,176,146
33,92,57,-62,-11,75,-23,215,236,290,146,128
33,80,45,-56,-5,63,-23,197,218,254,116,104
27,62,33,-38,1,51,-23,179,200,224,92,80
27,44,15,-32,7,33,-23,167,176,194,62,62
27,32,3,-26,13,21,-23,149,158,158,38,44
27,20,-9,-20,19,9,-23,131,140,128,14,26
22,8,-15,-14,19,-3,-23,113,128,98,-2,8
17,-4,-21,-8,19,-15,-23,95,110,74,-26,-4
11,-16,-27,3,19,-21,-23,77,92,44,-44,-22
5,-27,-33,8,19,-33,-23,65,80,26,-56,-33
5,-44,-50,14,25,-49,-18,59,68,2,-74,-38
-1,-56,-55,26,25,-55,-18,53,56,-16,-86,-50
-1,-68,-67,32,31,-67,-18,41,44,-34,-98,-62
-7,-80,-73,38,31,-79,-18,35,38,-44,-110,-68
-7,-92,-85,44,36,-91,-23,29,26,-56,-122,-80
-7,-104,-97,50,41,-103,-23,23,20,-68,-128,-86
-7,-110,-103,56,47,-109,-18,17,8,-80,-134,-92
-7,-116,-109,56,47,-115,-23,11,2,-86,-140,-98
-7,-116,-109,56,47,-115,-23,5,-4,-98,-146,-110
-13,-116,-103,62,41,-109,-23,-1,-16,-110,-158,-122
-13,-116,-103,62,41,-109,-23,-7,-22,-122,-170,-128
-19,-128,-109,68,41,-121,-23,-13,-28,-122,-176,-128
-25,-122,-97,74,36,-109,-28,-19,-34,-134,-188,-134
-25,-128,-103,74,36,-115,-28,-24,-40,-134,-194,-140
-25,-134,-109,80,41,-121,-28,-24,-40,-140,-200,-146
-31,-140,-109,80,36,-127,-28,-24,-40,-140,-200,-146
-31,-140,-109,80,36,-127,-34,-29,-40,-146,-200,-146
-31,-146,-115,86,41,-133,-34,-29,-40,-152,-200,-152
-25,-146,-121,86,47,-133,-34,-35,-45,-152,-200,-152
-25,-146,-121,86,47,-133,-34,-29,-45,-152,-200,-152
-25,-152,-127,86,47,-139,-34,-29,-40,-152,-200,-158
-19,-152,-133,80,53,-145,-28,-24,-40,-152,-206,-158
-19,-152,-133,80,53,-145,-28,-24,-34,-146,-206,-158
-19,-146,-127,80,53,-139,-23,-24,-34,-146,-212,-158
-25,-146,-121,86,47,-133,-23,-19,-40,-146,-212,-158
-25,-146,-121,86,47,-133,-18,-19,-34,-140,-212,-158
-25,-146,-121,86,47,-133,-23,-19,-40,-146,-218,-164
-25,-146,-121,86,47,-133,-23,-19,-40,-146,-218,-164
-31,-146,-115,86,41,-133,-28,-24,-45,-152,-218,-164
-25,-146,-121,86,47,-133,-28,-24,-45,-152,-218,-164
-25,-152,-127,86,47,-139,-28,-19,-45,-152,-218,-158
-25,-146,-121,86,47,-133,-28,-24,-45,-152,-212,-158
-19,-140,-121,74,47,-133,-28,-19,-45,-152,-212,-158
-19,-140,-121,74,47,-133,-23,-19,-40,-152,-206,-158
-19,-140,-121,74,47,-133,-28,-24,-34,-146,-206,-158
-19,-140,-121,74,47,-133,-28,-24,-34,-146,-206,-158
-19,-134,-115,74,47,-127,-28,-24,-28,-146,-200,-158
-19,-134,-115,74,47,-127,-28,-24,-28,-146,-200,-158
-13,-128,-115,68,47,-121,-34,-29,-28,-146,-200,-152
-13,-128,-115,68,47,-121,-34,-19,-28,-146,-200,-152
-13,-128,-115,68,47,-121,-40,-19,-28,-140,-200,-152
-13,-128,-115,68,47,-121,-34,-19,-28,-140,-200,-146
-19,-134,-115,74,47,-127,-40,-13,-28,-140,-200,-146
-19,-140,-121,74,47,-133,-40,-13,-28,-140,-194,-146
-19,-140,-121,74,47,-133,-40,-13,-28,-140,-194,-152
-19,-134,-115,74,47,-127,-40,-19,-28,-140,-194,-152
-19,-128,-109,68,41,-121,-40,-19,-28,-140,-194,-152
-19,-128,-109,68,41,-121,-40,-24,-22,-134,-188,-152
-19,-128,-109,68,41,-121,-40,-24,-22,-134,-188,-152
-13,-128,-115,68,47,-121,-40,-24,-16,-134,-188,-146
-13,-110,-97,62,41,-103,-46,-29,-10,-134,-188,-146
-7,-104,-97,50,41,-103,-46,-29,-10,-128,-188,-140
-7,-98,-91,50,41,-97,-46,-24,-4,-122,-188,-134
-1,-98,-97,50,47,-97,-40,-19,2,-122,-182,-134
-1,-104,-103,50,47,-103,-40,-13,2,-122,-188,-134
-7,-104,-97,50,41,-103,-46,-13,8,-122,-188,-140
-7,-104,-97,50,41,-103,-46,-7,8,-116,-188,-140
-7,-110,-103,56,47,-109,-46,-7,8,-116,-188,-134
-7,-116,-109,56,47,-115,-46,-1,14,-116,-188,-134
-7,-116,-109,56,47,-115,-40,-1,14,-116,-188,-134
-7,-116,-109,56,47,-115,-40,-7,14,-116,-194,-128
-7,-110,-103,56,47,-109,-40,-7,14,-116,-194,-128
-7,-110,-103,56,47,-109,-40,-7,14,-116,-194,-128
-7,-110,-103,56,47,-109,-40,-7,14,-116,-188,-128
-7,-110,-103,56,47,-109,-46,-7,14,-116,-194,-128
-1,-110,-109,56,53,-109,-46,-7,14,-116,-188,-128
-1,-116,-115,56,53,-115,-52,-7,14,-122,-194,-134
5,-122,-127,56,65,-127,-52,-13,14,-122,-194,-134
5,-122,-127,56,65,-127,-46,-13,8,-128,-200,-140
5,-128,-133,56,65,-133,-46,-13,2,-128,-200,-134
5,-128,-133,56,65,-133,-46,-13,2,-128,-200,-140
5,-134,-139,62,71,-139,-46,-13,2,-128,-200,-134
11,-134,-145,62,77,-139,-46,-13,8,-134,-200,-140
11,-134,-145,62,77,-139,-46,-7,8,-134,-200,-140
11,-122,-133,56,71,-127,-46,-7,8,-140,-200,-140
11,-122,-133,56,71,-127,-46,-7,14,-146,-206,-146
11,-116,-127,50,65,-121,-46,-7,14,-146,-206,-146
11,-116,-127,50,65,-121,-46,-7,14,-146,-206,-146
11,-122,-133,56,71,-127,-46,-7,8,-146,-212,-152
11,-128,-139,56,71,-133,-46,-7,8,-152,-212,-152
11,-128,-139,56,71,-133,-46,-13,2,-158,-212,-158
11,-128,-139,56,71,-133,-46,-13,2,-158,-218,-158
17,-128,-145,50,77,-139,-40,-13,8,-164,-218,-158
17,-134,-151,56,83,-145,-40,-13,14,-164,-212,-152
17,-140,-157,56,83,-151,-40,-13,20,-164,-212,-152
17,-146,-163,62,89,-157,-40,-13,26,-164,-212,-152
11,-140,-151,62,77,-145,-40,-19,26,-170,-218,-152
11,-134,-145,62,77,-139,-40,-24,20,-176,-218,-152
11,-134,-145,62,77,-139,-46,-29,14,-182,-224,-158
17,-140,-157,56,83,-151,-40,-29,14,-182,-230,-164
17,-134,-151,56,83,-145,-40,-29,8,-188,-236,-164
17,-134,-151,56,83,-145,-40,-29,8,-188,-236,-170
17,-128,-145,50,77,-139,-40,-29,8,-188,-236,-170
22,-134,-157,56,89,-145,-40,-35,8,-194,-236,-170
22,-134,-157,56,89,-145,-40,-35,2,-194,-236,-164
17,-140,-157,56,83,-151,-40,-35,2,-194,-236,-164
17,-140,-157,56,83,-151,-40,-35,8,-194,-236,-164
11,-140,-151,62,77,-145,-40,-35,14,-188,-236,-164
11,-146,-157,68,83,-151,-34,-35,8,-194,-242,-170
5,-152,-157,68,77,-157,-34,-35,8,-194,-242,-170
5,-146,-151,68,77,-151,-34,-35,8,-200,-248,-170
5,-152,-157,68,77,-157,-34,-35,8,-200,-248,-170
11,-152,-163,68,83,-157,-34,-35,8,-200,-248,-170
11,-152,-163,68,83,-157,-40,-41,8,-200,-254,-170
11,-152,-163,68,83,-157,-46,-47,8,-200,-260,-170
11,-152,-163,68,83,-157,-46,-47,2,-200,-254,-170
11,-152,-163,68,83,-157,-46,-47,2,-200,-254,-176
11,-146,-157,68,83,-151,-46,-47,2,-200,-260,-182
11,-146,-157,68,83,-151,-46,-47,2,-206,-260,-182
11,-146,-157,68,83,-151,-40,-41,2,-206,-260,-188
11,-146,-157,68,83,-151,-40,-41,2,-212,-260,-188
5,-146,-151,68,77,-151,-40,-41,2,-212,-260,-188
11,-152,-163,68,83,-157,-40,-41,2,-212,-260,-194
11,-152,-163,68,83,-157,-46,-47,2,-212,-260,-188
17,-158,-175,68,95,-169,-46,-47,2,-212,-266,-188
17,-152,-169,62,89,-163,-46,-47,2,-206,-260,-188
17,-146,-163,62,89,-157,-46,-53,-4,-206,-260,-188
17,-146,-163,62,89,-157,-46,-47,-4,-206,-266,-188
11,-140,-151,62,77,-145,-46,-47,-4,-206,-260,-188
11,-140,-151,62,77,-145,-46,-47,-4,-206,-260,-194
5,-140,-145,62,71,-145,-46,-53,-4,-212,-266,-194
5,-140,-145,62,71,-145,-46,-53,-4,-212,-266,-200
5,-152,-157,68,77,-157,-46,-53,-4,-218,-272,-200
11,-152,-163,68,83,-157,-40,-53,2,-212,-272,-200
11,-158,-169,74,89,-163,-46,-59,2,-212,-272,-200
11,-158,-169,74,89,-163,-46,-59,2,-218,-278,-200
17,-158,-175,68,95,-169,-52,-59,8,-212,-272,-200
17,-164,-181,68,95,-175,-52,-53,8,-206,-272,-194
17,-164,-181,68,95,-175,-52,-53,2,-200,-266,-194
17,-158,-175,68,95,-169,-52,-53,2,-200,-266,-194
11,-152,-163,68,83,-157,-46,-59,2,-200,-272,-194
11,-152,-163,68,83,-157,-52,-65,2,-200,-272,-200
11,-146,-157,68,83,-151,-46,-65,-4,-200,-272,-200
17,-152,-169,62,89,-163,-46,-65,-4,-200,-278,-206
17,-152,-169,62,89,-163,-46,-65,-4,-200,-278,-206
17,-152,-169,62,89,-163,-52,-65,-4,-200,-278,-206
17,-158,-175,68,95,-169,-52,-65,-4,-200,-278,-206
22,-152,-175,62,95,-163,-58,-71,-4,-194,-278,-206
22,-152,-175,62,95,-163,-52,-71,-4,-194,-278,-206
17,-152,-169,62,89,-163,-52,-65,-10,-194,-278,-212
22,-152,-175,62,95,-163,-46,-65,-10,-194,-278,-212
22,-146,-169,62,95,-157,-46,-71,-10,-194,-278,-212
22,-152,-175,62,95,-163,-46,-71,-10,-200,-284,-212
17,-158,-175,68,95,-169,-46,-65,-10,-194,-278,-212
17,-164,-181,68,95,-175,-46,-65,-10,-194,-272,-212
11,-170,-181,80,95,-175,-46,-65,-10,-194,-272,-212
11,-164,-175,74,89,-169,-52,-65,-16,-194,-272,-212
11,-164,-175,74,89,-169,-58,-71,-16,-194,-278,-212
5,-170,-175,80,89,-175,-52,-71,-16,-194,-284,-212
5,-170,-175,80,89,-175,-52,-71,-10,-194,-284,-212
5,-164,-169,74,83,-169,-52,-77,-16,-194,-284,-212
11,-164,-175,74,89,-169,-52,-77,-16,-194,-284,-212
11,-164,-175,74,89,-169,-46,-77,-16,-194,-284,-218
11,-164,-175,74,89,-169,-46,-71,-16,-194,-284,-218
11,-164,-175,74,89,-169,-52,-65,-16,-188,-284,-218
11,-164,-175,74,89,-169,-52,-65,-22,-182,-278,-218
11,-164,-175,74,89,-169,-52,-65,-22,-182,-278,-218
11,-164,-175,74,89,-169,-52,-65,-28,-182,-272,-212
11,-170,-181,80,95,-175,-52,-65,-28,-188,-272,-212
17,-170,-187,74,101,-181,-52,-71,-28,-188,-278,-218
17,-170,-187,74,101,-181,-52,-71,-28,-188,-272,-212
17,-170,-187,74,101,-181,-52,-65,-22,-188,-272,-212
22,-170,-193,74,107,-181,-46,-65,-22,-188,-272,-206
22,-170,-193,74,107,-181,-46,-65,-22,-188,-272,-206
17,-170,-187,74,101,-181,-46,-65,-28,-188,-272,-212
17,-164,-181,68,95,-175,-46,-59,-28,-182,-278,-212
17,-164,-181,68,95,-175,-46,-53,-28,-176,-272,-212
17,-158,-175,68,95,-169,-40,-53,-22,-170,-272,-212
22,-146,-169,62,95,-157,-40,-47,-22,-170,-272,-212
22,-134,-157,56,89,-145,-40,-47,-16,-170,-272,-218
27,-116,-145,44,83,-127,-40,-41,-10,-170,-266,-206
27,-104,-133,38,77,-115,-34,-41,-4,-164,-260,-206
27,-104,-133,38,77,-115,-28,-35,2,-158,-260,-200
27,-104,-133,38,77,-115,-28,-35,8,-158,-254,-200
27,-98,-127,38,77,-109,-23,-29,8,-152,-248,-194
33,-86,-121,26,77,-103,-18,-29,14,-146,-248,-194
33,-80,-115,20,71,-97,-12,-24,20,-140,-242,-188
33,-74,-109,20,71,-91,-6,-19,32,-134,-242,-188
33,-68,-103,14,65,-85,-6,-13,38,-134,-242,-188
33,-68,-103,14,65,-85,0,-13,38,-134,-236,-188
33,-62,-97,14,65,-79,0,-13,44,-134,-236,-188
39,-50,-91,8,65,-67,6,-7,50,-128,-230,-182
33,-50,-85,8,59,-67,12,-7,56,-122,-224,-182
33,-44,-79,3,53,-61,12,-7,62,-116,-224,-170
27,-38,-67,8,47,-49,12,-1,62,-116,-224,-170
27,-27,-55,3,41,-38,6,-7,62,-116,-224,-170
22,-22,-45,3,36,-33,0,-13,62,-116,-224,-164
22,-16,-39,-2,31,-27,-6,-19,62,-122,-224,-158
22,-10,-33,-2,31,-21,-18,-24,56,-128,-218,-158
27,-10,-39,-2,36,-21,-23,-29,56,-128,-218,-152
33,-4,-39,-14,36,-21,-40,-35,56,-128,-218,-152
33,2,-33,-14,36,-15,-52,-47,56,-128,-212,-152
39,-4,-45,-14,41,-21,-58,-53,50,-128,-212,-152
51,-16,-67,-14,59,-38,-70,-53,50,-122,-212,-152
57,-22,-79,-14,71,-49,-70,-53,50,-116,-212,-152
57,-22,-79,-14,71,-49,-70,-47,50,-116,-212,-152
57,-22,-79,-14,71,-49,-64,-41,50,-116,-212,-152
63,-27,-91,-14,77,-55,-58,-35,50,-110,-212,-152
63,-32,-97,-14,77,-61,-52,-35,50,-116,-212,-152
69,-44,-115,-14,89,-79,-52,-35,44,-122,-212,-152
63,-50,-115,-2,89,-79,-52,-41,38,-128,-212,-158
63,-68,-133,3,95,-97,-52,-47,32,-128,-218,-158
63,-80,-145,8,101,-109,-58,-59,20,-134,-230,-164
63,-92,-157,14,107,-121,-64,-65,8,-140,-236,-170
63,-98,-163,20,113,-127,-64,-71,2,-140,-242,-170
57,-110,-169,26,113,-139,-70,-77,-10,-146,-248,-176
51,-116,-169,32,107,-139,-64,-83,-16,-146,-254,-176
39,-116,-157,38,95,-133,-64,-83,-16,-152,-254,-176
33,-116,-151,38,89,-133,-64,-89,-28,-158,-260,-182
27,-122,-151,50,89,-133,-70,-95,-28,-164,-266,-194
22,-140,-163,56,89,-151,-70,-95,-34,-176,-278,-206
22,-152,-175,62,95,-163,-70,-95,-28,-182,-278,-206
11,-164,-175,74,89,-169,-70,-95,-34,-182,-284,-212
5,-170,-175,80,89,-175,-70,-101,-34,-194,-290,-224
5,-176,-181,80,89,-181,-70,-107,-40,-194,-290,-224
-1,-182,-181,92,89,-181,-64,-107,-45,-200,-296,-230
5,-182,-187,86,95,-187,-70,-107,-50,-206,-302,-230
-1,-194,-193,98,95,-193,-70,-107,-50,-206,-302,-236
-1,-200,-199,98,95,-199,-70,-107,-45,-200,-308,-236
-1,-200,-199,98,95,-199,-64,-101,-45,-200,-302,-236
-1,-200,-199,98,95,-199,-58,-95,-34,-194,-296,-230
-1,-194,-193,98,95,-193,-52,-83,-28,-188,-290,-230
-7,-194,-187,98,89,-193,-46,-71,-16,-176,-278,-224
-13,-188,-175,98,77,-181,-40,-65,-4,-170,-278,-224
-19,-182,-163,98,71,-175,-28,-53,8,-158,-266,-212
-19,-170,-151,92,65,-163,-23,-35,26,-140,-254,-206
-25,-164,-139,92,53,-151,-12,-24,38,-122,-242,-206
-37,-146,-109,92,36,-127,0,-13,56,-104,-236,-200
-43,-134,-91,86,25,-115,12,5,74,-86,-224,-194
-49,-128,-79,86,13,-103,24,29,92,-68,-218,-188
-55,-110,-55,80,1,-85,42,53,110,-50,-206,-176
-67,-98,-33,80,-17,-67,60,77,134,-34,-194,-170
-73,-86,-15,80,-29,-49,78,107,158,-10,-182,-164
-85,-74,9,80,-47,-33,102,143,188,14,-164,-152
-91,-62,27,74,-59,-21,120,173,206,38,-152,-146
-97,-56,39,74,-71,-9,132,203,230,56,-140,-140
-103,-44,57,68,-83,3,156,233,254,80,-128,-128
-103,-32,69,62,-89,15,174,257,278,110,-104,-122
-109,-27,81,68,-95,27,198,287,308,134,-86,-110
-109,-10,99,62,-101,45,222,323,338,164,-68,-98
-109,2,111,56,-107,57,246,353,368,194,-50,-86
-109,20,129,44,-119,75,270,395,398,224,-32,-74
-109,38,147,38,-125,93,294,437,428,260,-14,-62
-109,62,171,26,-137,117,318,479,464,302,8,-44
-109,86,195,14,-149,141,348,527,500,344,44,-22
-109,104,213,3,-161,159,378,575,542,380,74,-4
-109,128,237,-8,-173,183,408,629,590,416,110,14
-109,158,267,-20,-185,213,444,689,638,458,134,32
-109,182,291,-32,-197,237,492,761,692,500,158,56
-109,200,309,-44,-209,255,540,839,752,548,182,74
-115,212,327,-50,-221,267,600,935,824,596,206,92
-121,230,351,-50,-233,291,672,1055,914,662,230,110
-127,254,381,-62,-251,315,750,1187,1010,740,266,128
-133,284,417,-74,-275,351,840,1319,1112,818,302,146
-139,320,459,-92,-299,387,936,1463,1232,902,338,164
-145,368,513,-110,-329,441,1038,1643,1370,998,386,188
-157,422,579,-128,-365,501,1152,1835,1526,1100,428,212
-175,494,669,-158,-419,579,1248,1997,1682,1184,470,236
-181,566,747,-188,-461,657,1320,2117,1832,1268,512,272
-181,656,837,-236,-509,747,1368,2207,1976,1376,596,344
-181,746,927,-278,-551,837,1392,2231,2114,1514,710,440
-181,836,1017,-326,-599,927,1398,2183,2216,1676,854,554
-175,932,1107,-380,-641,1017,1380,2021,2282,1844,1034,692
-169,1040,1209,-434,-689,1125,1338,1775,2312,2036,1256,866
-157,1154,1311,-494,-731,1233,1284,1475,2300,2240,1502,1058
-145,1262,1407,-554,-773,1335,1218,1097,2222,2413,1760,1256
-133,1358,1491,-608,-809,1425,1140,659,2078,2545,2012,1460
-115,1460,1575,-674,-845,1515,1056,227,1904,2665,2258,1652
-103,1556,1659,-728,-881,1605,960,-155,1718,2767,2479,1832
-109,1658,1767,-770,-935,1713,864,-509,1550,2839,2677,1994
-133,1754,1887,-806,-1007,1821,768,-833,1382,2887,2851,2138
-169,1856,2025,-842,-1097,1941,660,-1145,1202,2893,2983,2246
-193,1934,2127,-866,-1157,2031,552,-1415,980,2809,3055,2318
-211,1976,2187,-884,-1199,2079,444,-1643,722,2671,3085,2360
-229,1976,2205,-872,-1217,2091,360,-1811,470,2527,3085,2366
-241,1916,2157,-836,-1199,2037,270,-1925,254,2407,3073,2348
-235,1802,2037,-782,-1133,1917,138,-2009,56,2276,3025,2294
-235,1646,1881,-704,-1055,1761,-12,-2045,-116,2114,2911,2186
-235,1442,1677,-602,-953,1557,-124,-2033,-254,1910,2713,2006
-235,1208,1443,-488,-839,1323,-214,-1973,-380,1574,2360,1718
-253,998,1251,-368,-749,1125,-268,-1895,-494,1088,1868,1358
-259,806,1065,-272,-659,933,-292,-1781,-584,620,1340,980
-271,632,903,-182,-587,765,-310,-1643,-626,278,866,644
-259,488,747,-116,-503,615,-322,-1505,-650,50,536,398
-247,374,621,-62,-431,495,-334,-1373,-650,-86,308,230
-235,284,519,-26,-377,399,-340,-1253,-632,-176,152,116
-217,212,429,3,-323,321,-358,-1139,-596,-230,50,32
-193,164,357,14,-275,261,-364,-1037,-542,-266,-26,-22
-175,122,297,26,-233,207,-358,-935,-482,-278,-86,-56
-145,74,219,38,-179,147,-346,-833,-416,-278,-122,-80
-109,20,129,44,-119,75,-328,-719,-344,-254,-146,-92
-79,-22,57,50,-65,15,-304,-605,-278,-224,-152,-104
-49,-50,-3,50,-23,-27,-274,-503,-230,-194,-164,-116
-25,-80,-55,50,13,-67,-244,-413,-182,-164,-170,-116
-13,-104,-91,56,36,-97,-220,-341,-140,-140,-170,-122
-1,-116,-115,56,53,-115,-190,-287,-98,-122,-176,-128
5,-128,-133,56,65,-133,-166,-245,-62,-110,-182,-128
11,-146,-157,68,83,-151,-142,-215,-34,-110,-194,-134
17,-158,-175,68,95,-169,-124,-185,-4,-110,-200,-140
22,-176,-199,74,107,-187,-118,-161,14,-116,-212,-152
22,-188,-211,80,113,-199,-112,-131,32,-110,-218,-158
27,-206,-235,92,131,-217,-112,-107,50,-110,-224,-164
39,-218,-259,92,149,-235,-118,-83,62,-104,-230,-170
45,-224,-271,86,155,-247,-118,-65,74,-98,-230,-170
51,-230,-283,92,167,-253,-112,-53,80,-98,-230,-176
51,-230,-283,92,167,-253,-112,-41,86,-98,-236,-176
51,-236,-289,92,167,-259,-112,-35,92,-98,-236,-182
51,-230,-283,92,167,-253,-112,-29,104,-98,-242,-182
51,-236,-289,92,167,-259,-112,-24,110,-92,-236,-182
51,-236,-289,92,167,-259,-106,-13,122,-92,-236,-182
57,-230,-289,86,173,-259,-106,-1,128,-92,-236,-182
57,-230,-289,86,173,-259,-106,5,140,-92,-236,-176
57,-224,-283,80,167,-253,-106,17,140,-86,-236,-176
63,-218,-283,80,173,-247,-106,23,146,-80,-236,-170
63,-218,-283,80,173,-247,-106,35,158,-80,-236,-170
63,-218,-283,80,173,-247,-106,35,158,-80,-236,-170
63,-212,-277,74,167,-241,-106,41,164,-80,-230,-170
69,-212,-283,68,173,-247,-106,47,170,-74,-230,-164
69,-212,-283,68,173,-247,-106,53,176,-68,-224,-164
69,-212,-283,68,173,-247,-106,65,182,-62,-218,-164
69,-212,-283,68,173,-247,-106,71,188,-56,-218,-158
75,-212,-289,68,179,-247,-100,77,200,-50,-212,-152
75,-206,-283,68,179,-241,-94,83,200,-44,-206,-152
75,-206,-283,68,179,-241,-94,89,206,-34,-206,-146
81,-206,-289,62,185,-247,-94,89,206,-34,-200,-146
81,-212,-295,62,185,-253,-94,95,212,-28,-200,-134
75,-212,-289,68,179,-247,-94,95,218,-22,-194,-134
75,-212,-289,68,179,-247,-100,95,224,-16,-188,-128
75,-206,-283,68,179,-241,-106,101,230,-10,-182,-128
81,-200,-283,56,179,-241,-106,107,230,-4,-176,-128
81,-194,-277,56,179,-235,-100,113,236,2,-170,-122
81,-188,-271,50,173,-229,-100,119,242,8,-164,-122
87,-188,-277,50,179,-229,-100,119,248,14,-158,-122
87,-194,-283,56,185,-235,-94,125,254,26,-158,-116
93,-194,-289,50,191,-241,-94,131,260,32,-146,-110
93,-194,-289,50,191,-241,-94,137,260,38,-134,-104
93,-188,-283,44,185,-235,-94,137,272,44,-134,-104
93,-182,-277,44,185,-229,-100,143,272,50,-128,-104
93,-176,-271,38,179,-223,-100,149,278,62,-122,-98
93,-176,-271,38,179,-223,-106,155,290,62,-116,-92
93,-170,-265,38,179,-217,-106,161,296,68,-110,-86
99,-170,-271,38,185,-217,-112,167,302,80,-104,-80
99,-158,-259,32,179,-205,-112,167,302,86,-98,-74
105,-152,-259,20,179,-205,-112,173,308,98,-98,-74
111,-152,-265,20,185,-205,-118,179,314,110,-86,-62
111,-152,-265,20,185,-205,-118,185,320,122,-80,-62
111,-152,-265,20,185,-205,-118,197,326,134,-74,-56
111,-152,-265,20,185,-205,-124,209,332,146,-62,-50
111,-146,-259,20,185,-199,-118,215,344,152,-56,-38
117,-134,-253,8,185,-193,-118,221,356,170,-44,-33
123,-128,-253,3,185,-187,-112,233,368,182,-38,-28
123,-122,-247,3,185,-181,-112,239,380,194,-26,-22
123,-116,-241,-2,179,-175,-106,245,386,206,-20,-16
129,-110,-241,-8,185,-175,-106,257,392,224,-14,-10
129,-104,-235,-14,179,-169,-112,263,398,236,-8,-4
135,-92,-229,-20,179,-157,-118,269,410,248,3,-4
135,-86,-223,-20,179,-151,-124,281,416,260,3,2
141,-86,-229,-26,185,-157,-124,293,428,272,14,8
141,-86,-229,-26,185,-157,-130,305,440,284,26,20
147,-80,-229,-32,185,-151,-124,317,446,296,38,32
153,-74,-229,-38,191,-151,-124,329,452,308,56,44
159,-68,-229,-44,191,-145,-118,341,470,320,74,56
159,-56,-217,-50,185,-133,-112,353,476,338,86,68
165,-50,-217,-56,191,-133,-112,365,494,350,104,80
165,-38,-205,-62,185,-121,-112,377,506,374,110,86
165,-32,-199,-68,179,-115,-106,395,518,392,128,98
171,-27,-199,-68,185,-109,-106,407,530,416,140,104
177,-16,-193,-80,185,-103,-112,419,542,440,152,116
183,-10,-193,-80,191,-97,-112,431,554,458,170,134
189,2,-187,-92,191,-91,-112,443,560,482,188,146
189,14,-175,-98,185,-79,-112,461,572,500,206,158
195,32,-163,-110,179,-61,-112,473,584,512,218,170
195,44,-151,-116,173,-49,-118,473,584,530,236,182
201,56,-145,-128,173,-43,-118,485,596,554,254,194
201,62,-139,-128,173,-38,-118,491,602,572,272,206
201,68,-133,-134,167,-33,-118,497,602,584,284,218
201,74,-127,-134,167,-27,-112,509,602,602,296,230
201,86,-115,-140,161,-15,-112,515,608,620,314,242
201,92,-109,-146,155,-9,-112,521,614,632,326,254
201,98,-103,-146,155,-3,-118,527,620,644,338,266
207,116,-91,-158,149,15,-112,527,626,656,350,272
201,128,-73,-164,137,27,-112,533,632,668,362,284
201,140,-61,-170,131,39,-112,533,632,680,368,290
195,152,-45,-170,119,57,-112,533,638,692,380,302
189,158,-33,-170,113,63,-106,533,638,698,386,308
189,170,-21,-176,107,75,-106,527,638,710,398,314
183,176,-9,-176,95,87,-106,527,638,716,410,314
183,182,-3,-176,95,93,-106,521,638,722,422,320
177,194,15,-182,83,105,-106,521,638,728,422,320
171,200,27,-182,71,117,-106,515,638,734,428,326
171,212,39,-188,65,129,-106,515,638,734,434,332
165,218,51,-188,59,135,-100,509,632,740,440,332
159,224,63,-188,47,147,-94,515,632,740,440,338
153,230,75,-188,41,153,-88,509,626,740,440,338
153,236,81,-194,36,159,-88,497,614,734,440,338
153,236,81,-194,36,159,-88,485,608,728,434,332
147,236,87,-188,31,165,-82,473,596,722,428,326
147,242,93,-188,31,171,-76,461,584,710,422,320
141,236,93,-188,25,165,-76,443,578,698,410,314
135,236,99,-182,19,171,-70,425,566,686,404,308
129,230,99,-176,19,165,-64,413,554,662,386,296
117,224,105,-170,7,165,-58,395,542,638,374,284
111,212,99,-158,7,159,-52,377,518,614,350,266
99,200,99,-146,1,153,-46,365,512,590,332,254
93,194,99,-140,1,147,-40,347,494,560,314,242
87,182,93,-128,1,141,-34,329,476,524,296,224
81,170,87,-122,1,129,-28,317,458,488,272,206
75,158,81,-110,1,123,-28,299,446,452,248,188
69,146,75,-104,1,111,-23,275,422,422,218,164
69,128,57,-98,7,93,-23,257,404,392,194,146
63,116,51,-86,7,87,-18,239,386,356,170,128
57,104,45,-80,7,75,-23,215,362,320,152,110
51,92,39,-68,7,69,-23,197,338,284,128,86
45,74,27,-56,13,51,-23,185,314,248,104,74
39,56,15,-44,13,39,-23,167,296,212,80,56
33,44,9,-38,13,27,-23,149,278,182,50,38
33,38,3,-32,19,21,-23,131,260,158,26,20
22,20,-3,-20,13,9,-23,113,248,134,3,2
22,8,-15,-14,19,-3,-23,95,236,104,-14,-10
17,-4,-21,-8,19,-15,-23,77,218,80,-26,-28
17,-16,-33,-2,25,-27,-23,65,200,50,-38,-33
11,-27,-39,8,25,-33,-23,53,182,26,-56,-50
5,-32,-39,8,19,-38,-23,41,170,8,-74,-56
5,-50,-55,20,31,-55,-23,29,170,-16,-92,-68
-1,-56,-55,26,25,-55,-23,17,158,-34,-110,-80
-1,-62,-61,32,31,-61,-28,5,146,-50,-128,-92
-1,-74,-73,38,36,-73,-28,-1,140,-68,-140,-98
-7,-80,-73,38,31,-79,-28,-13,122,-80,-152,-110
-13,-92,-79,50,31,-85,-28,-19,110,-98,-164,-116
-13,-104,-91,56,36,-97,-28,-24,104,-110,-176,-128
-13,-104,-91,56,36,-97,-28,-29,92,-122,-182,-134
-13,-116,-103,62,41,-109,-28,-35,86,-134,-194,-140
-13,-116,-103,62,41,-109,-28,-35,80,-140,-200,-146
-19,-122,-103,68,41,-115,-34,-41,74,-146,-206,-152
-19,-128,-109,68,41,-121,-34,-47,68,-152,-212,-158
-19,-134,-115,74,47,-127,-34,-53,68,-152,-218,-158
-25,-140,-115,80,41,-127,-34,-53,62,-158,-224,-158
-25,-140,-115,80,41,-127,-34,-59,56,-164,-224,-158
-25,-140,-115,80,41,-127,-28,-59,50,-158,-230,-164
-25,-134,-109,80,41,-121,-28,-59,44,-164,-236,-164
-25,-134,-109,80,41,-121,-28,-59,44,-164,-236,-164
-25,-134,-109,80,41,-121,-34,-59,38,-170,-236,-170
-31,-140,-109,80,36,-127,-34,-59,44,-170,-236,-170
-25,-134,-109,80,41,-121,-34,-59,44,-170,-230,-170
-31,-128,-97,74,31,-115,-34,-65,38,-176,-230,-170
-31,-134,-103,80,36,-121,-34,-65,38,-176,-230,-176
-37,-140,-103,86,31,-121,-34,-65,32,-176,-230,-176
-37,-140,-103,86,31,-121,-34,-65,26,-182,-230,-182
-31,-140,-109,80,36,-127,-34,-65,26,-182,-230,-182
-31,-140,-109,80,36,-127,-34,-65,20,-182,-230,-176
-31,-146,-115,86,41,-133,-34,-59,20,-182,-236,-176
-25,-146,-121,86,47,-133,-34,-59,20,-182,-236,-176
-25,-152,-127,86,47,-139,-34,-59,20,-182,-236,-176
-25,-152,-127,86,47,-139,-34,-59,20,-182,-230,-170
-25,-146,-121,86,47,-133,-34,-59,20,-176,-230,-176
-31,-146,-115,86,41,-133,-34,-59,26,-176,-230,-170
-31,-140,-109,80,36,-127,-34,-59,26,-176,-224,-176
-31,-140,-109,80,36,-127,-34,-59,26,-176,-224,-170
-31,-140,-109,80,36,-127,-34,-59,26,-176,-224,-170
-31,-146,-115,86,41,-133,-34,-59,26,-182,-224,-170
-31,-140,-109,80,36,-127,-40,-59,20,-182,-224,-170
-31,-128,-97,74,31,-115,-40,-59,20,-188,-224,-170
-31,-122,-91,74,31,-109,-40,-59,20,-188,-224,-164
-31,-116,-85,68,25,-103,-40,-59,20,-188,-224,-164
-31,-116,-85,68,25,-103,-40,-65,20,-182,-218,-170
-31,-116,-85,68,25,-103,-46,-65,20,-182,-218,-170
-31,-116,-85,68,25,-103,-46,-65,14,-182,-212,-170
-31,-116,-85,68,25,-103,-46,-59,20,-176,-212,-164
-25,-110,-85,68,31,-97,-46,-53,20,-176,-206,-164
-25,-110,-85,68,31,-97,-46,-53,20,-176,-206,-158
-25,-116,-91,68,31,-103,-46,-53,20,-170,-206,-152
-25,-122,-97,74,36,-109,-46,-53,20,-170,-206,-152
-25,-122,-97,74,36,-109,-46,-59,20,-164,-206,-152
-25,-122,-97,74,36,-109,-40,-59,20,-164,-206,-152
-25,-116,-91,68,31,-103,-40,-59,14,-164,-212,-152
-25,-110,-85,68,31,-97,-46,-59,14,-158,-212,-152
-25,-104,-79,62,25,-91,-46,-59,14,-158,-218,-158
-31,-104,-73,62,19,-91,-46,-59,8,-164,-212,-158
-31,-104,-73,62,19,-91,-46,-59,8,-164,-206,-158
-25,-104,-79,62,25,-91,-46,-53,8,-164,-200,-158
-25,-98,-73,62,25,-85,-46,-53,8,-164,-200,-158
-19,-98,-79,56,31,-91,-46,-53,8,-164,-200,-158
-13,-98,-85,56,36,-91,-46,-53,8,-164,-194,-158
-7,-104,-97,50,41,-103,-46,-53,8,-164,-194,-158
-7,-110,-103,56,47,-109,-52,-53,8,-164,-194,-158
-13,-116,-103,62,41,-109,-52,-53,8,-164,-194,-152
-13,-116,-103,62,41,-109,-52,-47,8,-158,-194,-152
-13,-110,-97,62,41,-103,-52,-47,8,-152,-200,-152
-13,-110,-97,62,41,-103,-52,-47,2,-152,-200,-152
-13,-110,-97,62,41,-103,-46,-47,-4,-158,-206,-152
-19,-116,-97,62,36,-109,-46,-47,-4,-164,-206,-152
-19,-122,-103,68,41,-115,-46,-47,-4,-164,-206,-152
-19,-128,-109,68,41,-121,-52,-47,-4,-170,-212,-158
-19,-128,-109,68,41,-121,-52,-47,-4,-176,-212,-164
-19,-128,-109,68,41,-121,-52,-47,-4,-176,-212,-164
-13,-128,-115,68,47,-121,-52,-47,-4,-176,-218,-164
-13,-128,-115,68,47,-121,-52,-47,-4,-176,-218,-164
-13,-122,-109,68,47,-115,-58,-53,-10,-182,-218,-164
-7,-122,-115,62,53,-121,-58,-59,-10,-182,-218,-170
-1,-122,-121,62,59,-121,-52,-59,-16,-188,-218,-164
-1,-122,-121,62,59,-121,-58,-59,-16,-194,-218,-170
-1,-122,-121,62,59,-121,-58,-59,-22,-200,-218,-170
-1,-122,-121,62,59,-121,-58,-65,-22,-206,-218,-170
-1,-116,-115,56,53,-115,-52,-65,-22,-212,-218,-170
-7,-116,-109,56,47,-115,-52,-65,-22,-218,-218,-170
-7,-122,-115,62,53,-121,-46,-65,-22,-218,-218,-170
-7,-122,-115,62,53,-121,-46,-65,-34,-224,-218,-176
-7,-116,-109,56,47,-115,-52,-71,-34,-230,-224,-182
-7,-110,-103,56,47,-109,-52,-71,-40,-224,-224,-182
-7,-110,-103,56,47,-109,-52,-65,-40,-230,-230,-182
-7,-116,-109,56,47,-115,-46,-65,-45,-230,-236,-182
-1,-116,-115,56,53,-115,-46,-65,-45,-230,-236,-182
-1,-122,-121,62,59,-121,-52,-71,-45,-236,-236,-188
-1,-128,-127,62,59,-127,-46,-71,-40,-242,-242,-188
-1,-134,-133,68,65,-133,-52,-71,-40,-248,-248,-188
-1,-134,-133,68,65,-133,-52,-77,-40,-254,-248,-188
-1,-134,-133,68,65,-133,-46,-77,-34,-254,-242,-188
-1,-134,-133,68,65,-133,-46,-77,-40,-260,-248,-194
-1,-140,-139,68,65,-139,-46,-83,-40,-260,-248,-194
-1,-146,-145,74,71,-145,-46,-83,-45,-260,-248,-194
-7,-146,-139,74,65,-145,-46,-83,-45,-266,-254,-200
-1,-140,-139,68,65,-139,-46,-83,-45,-266,-254,-206
-1,-140,-139,68,65,-139,-52,-83,-50,-266,-254,-206
5,-134,-139,62,71,-139,-52,-83,-50,-266,-254,-206
5,-134,-139,62,71,-139,-52,-83,-50,-266,-248,-206
-1,-134,-133,68,65,-133,-58,-89,-50,-266,-248,-206
-1,-128,-127,62,59,-127,-58,-89,-50,-272,-248,-206
-1,-128,-127,62,59,-127,-52,-89,-56,-272,-248,-206
-1,-128,-127,62,59,-127,-52,-89,-50,-272,-254,-206
-7,-134,-127,68,59,-133,-52,-89,-50,-278,-254,-206
-13,-140,-127,74,53,-133,-52,-89,-50,-278,-260,-206
-13,-140,-127,74,53,-133,-52,-89,-50,-278,-254,-206
-19,-140,-121,74,47,-133,-52,-89,-56,-278,-254,-206
-13,-134,-121,74,53,-127,-52,-89,-56,-278,-254,-212
-13,-128,-115,68,47,-121,-58,-89,-56,-278,-254,-212
-13,-128,-115,68,47,-121,-64,-89,-62,-284,-254,-212
-13,-134,-121,74,53,-127,-64,-89,-62,-278,-260,-212
-13,-128,-115,68,47,-121,-64,-95,-62,-278,-260,-212
-7,-134,-127,68,59,-133,-64,-95,-68,-278,-260,-212
-7,-134,-127,68,59,-133,-58,-101,-68,-278,-266,-212
-7,-140,-133,68,59,-139,-58,-101,-68,-278,-266,-218
-7,-140,-133,68,59,-139,-58,-107,-74,-284,-266,-224
-7,-140,-133,68,59,-139,-58,-107,-74,-284,-266,-218
-7,-146,-139,74,65,-145,-58,-107,-68,-284,-266,-218
-13,-146,-133,80,59,-139,-58,-107,-68,-284,-266,-218
-13,-152,-139,80,59,-145,-58,-107,-68,-284,-266,-218
-19,-146,-127,80,53,-139,-58,-113,-62,-284,-266,-218
-13,-146,-133,80,59,-139,-58,-107,-62,-284,-266,-218
-7,-152,-145,74,65,-151,-58,-107,-62,-284,-266,-212
-7,-152,-145,74,65,-151,-58,-107,-68,-284,-266,-218
-7,-152,-145,74,65,-151,-64,-107,-68,-284,-260,-224
-7,-152,-145,74,65,-151,-64,-107,-68,-290,-260,-224
-7,-152,-145,74,65,-151,-64,-113,-68,-290,-266,-230
-13,-146,-133,80,59,-139,-64,-113,-62,-290,-272,-230
-13,-146,-133,80,59,-139,-64,-119,-68,-296,-272,-230
-13,-146,-133,80,59,-139,-64,-119,-68,-296,-272,-224
-7,-146,-139,74,65,-145,-70,-125,-68,-302,-272,-224
-7,-146,-139,74,65,-145,-70,-125,-74,-302,-272,-224
-13,-146,-133,80,59,-139,-64,-125,-68,-296,-272,-224
-13,-152,-139,80,59,-145,-64,-119,-68,-296,-266,-218
-13,-152,-139,80,59,-145,-64,-119,-68,-296,-266,-218
-7,-152,-145,74,65,-151,-64,-113,-68,-302,-266,-218
-7,-152,-145,74,65,-151,-64,-113,-68,-308,-260,-218
-13,-146,-133,80,59,-139,-64,-113,-62,-302,-254,-212
-13,-146,-133,80,59,-139,-70,-113,-62,-302,-254,-206
-13,-146,-133,80,59,-139,-70,-113,-62,-296,-260,-206
-13,-152,-139,80,59,-145,-70,-113,-62,-296,-260,-212
-13,-152,-139,80,59,-145,-70,-113,-68,-290,-260,-212
-19,-140,-121,74,47,-133,-70,-113,-74,-290,-266,-212
-19,-134,-115,74,47,-127,-70,-113,-74,-290,-260,-212
-19,-128,-109,68,41,-121,-70,-119,-80,-296,-260,-212
-19,-122,-103,68,41,-115,-70,-119,-80,-296,-260,-212
-19,-128,-109,68,41,-121,-64,-119,-80,-296,-260,-212
-13,-140,-127,74,53,-133,-64,-119,-74,-296,-260,-212
-13,-152,-139,80,59,-145,-70,-119,-74,-296,-260,-218
-13,-158,-145,86,65,-151,-70,-119,-74,-302,-260,-218
-13,-164,-151,86,65,-157,-76,-125,-74,-302,-260,-224
-13,-164,-151,86,65,-157,-70,-125,-74,-302,-266,-224
-13,-158,-145,86,65,-151,-70,-131,-74,-302,-266,-224
-13,-152,-139,80,59,-145,-70,-131,-74,-302,-266,-224
-19,-152,-133,80,53,-145,-70,-131,-80,-302,-272,-224
-19,-152,-133,80,53,-145,-70,-131,-80,-302,-272,-218
-19,-158,-139,86,59,-151,-70,-131,-80,-302,-266,-218
-19,-164,-145,86,59,-157,-64,-119,-80,-302,-266,-218
-25,-170,-145,98,59,-157,-64,-119,-80,-302,-266,-218
-19,-164,-145,86,59,-157,-64,-119,-80,-302,-266,-218
-19,-158,-139,86,59,-151,-64,-119,-80,-302,-266,-218
-19,-158,-139,86,59,-151,-58,-113,-80,-296,-266,-218
-25,-158,-133,92,53,-145,-58,-113,-80,-302,-272,-224
-19,-152,-133,80,53,-145,-58,-113,-80,-302,-266,-224
-13,-146,-133,80,59,-139,-58,-107,-74,-302,-266,-224
-7,-140,-133,68,59,-139,-58,-107,-74,-302,-266,-224
-7,-134,-127,68,59,-133,-52,-107,-68,-290,-260,-218
-1,-116,-115,56,53,-115,-52,-101,-62,-284,-254,-212
5,-110,-115,50,59,-115,-46,-101,-50,-278,-248,-206
5,-104,-109,44,53,-109,-46,-95,-45,-272,-248,-200
5,-86,-91,38,47,-91,-46,-95,-45,-272,-242,-200
5,-74,-79,32,41,-79,-40,-89,-40,-266,-242,-194
5,-74,-79,32,41,-79,-34,-83,-34,-266,-242,-188
5,-68,-73,26,36,-73,-28,-77,-28,-260,-242,-188
5,-62,-67,26,36,-67,-23,-71,-22,-260,-236,-188
-1,-62,-61,32,31,-61,-12,-71,-22,-260,-230,-182
-1,-56,-55,26,25,-55,-6,-71,-16,-266,-230,-182
5,-50,-55,20,31,-55,0,-65,-16,-260,-224,-176
-1,-38,-39,20,19,-38,6,-65,-10,-254,-224,-170
-1,-32,-33,14,13,-33,12,-59,-4,-248,-224,-170
-1,-27,-27,14,13,-27,18,-59,-4,-248,-218,-164
-1,-22,-21,14,13,-21,12,-65,-4,-248,-218,-164
-7,-16,-9,8,1,-15,6,-65,-4,-248,-218,-170
-1,-10,-9,8,7,-9,0,-65,2,-242,-218,-170
-1,-4,-3,3,1,-3,-12,-71,2,-242,-218,-170
5,2,-3,-2,7,-3,-23,-77,-4,-248,-218,-170
5,2,-3,-2,7,-3,-28,-89,-4,-248,-218,-170
11,2,-9,-2,13,-3,-40,-89,-10,-248,-212,-170
11,8,-3,-8,7,3,-52,-101,-16,-248,-212,-164
17,2,-15,-8,19,-9,-70,-113,-22,-248,-212,-158
22,-4,-27,-8,25,-15,-76,-113,-22,-248,-200,-152
27,-4,-33,-8,31,-15,-82,-119,-28,-248,-194,-146
27,-4,-33,-8,31,-15,-88,-113,-28,-248,-194,-146
27,-10,-39,-2,36,-21,-88,-113,-28,-242,-194,-146
27,-16,-45,-2,36,-27,-82,-107,-34,-242,-200,-146
27,-16,-45,-2,36,-27,-76,-101,-40,-242,-200,-152
27,-27,-55,3,41,-38,-70,-101,-45,-242,-200,-152
27,-32,-61,3,41,-43,-70,-101,-45,-242,-206,-158
27,-38,-67,8,47,-49,-70,-101,-45,-248,-212,-164
27,-56,-85,14,53,-67,-76,-101,-50,-254,-212,-170
27,-68,-97,20,59,-79,-82,-107,-62,-266,-218,-176
33,-80,-115,20,71,-97,-88,-119,-68,-278,-224,-176
27,-92,-121,32,71,-103,-88,-125,-80,-284,-230,-182
22,-98,-121,38,71,-109,-88,-131,-86,-290,-230,-182
17,-104,-121,38,65,-115,-94,-131,-92,-290,-230,-182
11,-110,-121,50,65,-115,-94,-137,-98,-296,-236,-188
5,-110,-115,50,59,-115,-88,-143,-104,-296,-242,-194
-1,-110,-109,56,53,-109,-82,-143,-104,-302,-248,-194
-7,-122,-115,62,53,-121,-76,-149,-110,-302,-248,-200
-13,-134,-121,74,53,-127,-76,-149,-116,-308,-254,-200
-19,-146,-127,80,53,-139,-76,-149,-116,-308,-260,-206
-25,-152,-127,86,47,-139,-76,-149,-116,-314,-266,-212
-31,-152,-121,86,41,-139,-76,-155,-128,-320,-272,-218
-31,-158,-127,92,47,-145,-82,-155,-128,-326,-272,-218
-37,-170,-133,104,47,-151,-82,-155,-134,-320,-272,-218
-37,-176,-139,104,47,-157,-76,-149,-134,-320,-272,-218
-43,-176,-133,104,41,-157,-76,-149,-134,-320,-266,-218
-43,-170,-127,104,41,-151,-76,-149,-140,-320,-266,-224
-49,-170,-121,110,36,-145,-70,-149,-134,-314,-266,-224
-49,-164,-115,104,31,-139,-70,-137,-128,-308,-266,-218
-49,-164,-115,104,31,-139,-64,-131,-122,-290,-260,-218
-55,-158,-103,104,25,-133,-58,-119,-110,-284,-254,-218
-55,-152,-97,98,19,-127,-46,-107,-98,-272,-242,-212
-61,-146,-85,104,13,-115,-34,-89,-86,-260,-224,-200
-67,-134,-67,98,1,-103,-23,-65,-68,-248,-212,-194
-73,-122,-50,98,-11,-85,-12,-47,-50,-230,-200,-182
-85,-116,-33,98,-29,-73,0,-29,-40,-218,-194,-176
-97,-104,-9,98,-47,-55,12,-19,-22,-206,-188,-170
-109,-98,9,104,-59,-43,36,5,-4,-188,-176,-158
-127,-92,33,104,-83,-33,54,29,20,-164,-164,-152
-139,-80,57,104,-101,-15,72,59,44,-134,-158,-152
-145,-62,81,104,-113,9,90,83,62,-116,-146,-152
-151,-62,87,104,-119,9,102,107,80,-98,-140,-146
-157,-56,99,104,-131,21,126,137,98,-80,-128,-146
-163,-44,117,98,-143,33,144,167,116,-62,-116,-140
-163,-27,135,92,-149,51,162,197,140,-44,-98,-128
-169,-22,147,98,-155,63,192,233,164,-22,-80,-110
-175,-4,171,86,-173,81,210,269,194,8,-62,-98
-175,8,183,80,-179,93,234,305,230,38,-44,-86
-175,26,201,74,-185,111,252,341,260,62,-20,-74
-175,44,219,62,-197,129,276,383,290,92,-2,-62
-175,68,243,50,-209,153,294,425,320,128,14,-50
-175,92,267,38,-221,177,318,467,356,170,38,-33
-175,116,291,26,-233,201,348,521,392,206,62,-16
-175,134,309,20,-239,219,384,575,434,248,92,2
-175,164,339,3,-257,249,432,641,482,290,116,20
-169,188,357,-8,-263,273,480,713,530,332,140,44
-169,206,375,-14,-269,291,534,797,584,374,170,62
-169,224,393,-26,-281,309,606,905,656,422,200,80
-175,236,411,-32,-293,321,684,1031,746,488,230,98
-181,260,441,-38,-311,351,762,1163,842,548,260,110
-187,284,471,-50,-329,375,846,1301,938,620,290,122
-199,302,501,-50,-347,399,936,1457,1058,698,320,146
-205,350,555,-68,-377,453,1044,1649,1190,794,362,170
-217,404,621,-92,-419,513,1158,1841,1334,890,404,200
-229,488,717,-128,-473,603,1254,2009,1478,980,452,236
-235,584,819,-176,-527,699,1332,2117,1610,1076,518,290
-235,680,915,-224,-575,795,1374,2165,1736,1178,608,362
-229,770,999,-266,-611,885,1398,2129,1844,1310,722,458
-223,866,1089,-320,-653,975,1392,1985,1922,1460,866,578
-223,968,1191,-374,-707,1077,1362,1739,1964,1622,1040,716
-217,1088,1305,-434,-761,1197,1320,1433,1988,1802,1250,890
-211,1202,1413,-494,-809,1305,1266,1061,1958,1988,1490,1082
-199,1304,1503,-554,-851,1401,1206,635,1874,2150,1736,1280
-193,1406,1599,-602,-893,1503,1134,197,1748,2294,1976,1472
-175,1502,1677,-662,-923,1587,1056,-197,1598,2437,2228,1670
-163,1604,1767,-722,-965,1683,972,-569,1454,2575,2473,1862
-163,1712,1875,-776,-1019,1791,864,-917,1304,2677,2689,2042
-181,1820,2001,-818,-1091,1911,744,-1253,1142,2761,2887,2198
-211,1922,2133,-854,-1169,2025,630,-1553,974,2785,3049,2330
-235,1994,2229,-878,-1229,2109,498,-1823,752,2719,3139,2425
-259,2030,2289,-884,-1271,2157,378,-2051,500,2605,3187,2485
-283,2018,2301,-866,-1289,2157,258,-2213,266,2485,3211,2509
-289,1952,2241,-830,-1265,2097,114,-2321,62,2401,3217,2503
-295,1832,2127,-770,-1211,1977,-52,-2387,-116,2294,3169,2443
-295,1670,1965,-686,-1127,1815,-202,-2393,-266,2156,3067,2330
-295,1472,1767,-590,-1031,1617,-310,-2339,-392,1982,2887,2144
-295,1244,1539,-476,-917,1389,-376,-2243,-500,1676,2557,1862
-307,1016,1323,-356,-815,1167,-412,-2105,-602,1202,2084,1496
-313,806,1119,-242,-713,963,-418,-1943,-674,734,1562,1118
-313,620,933,-152,-623,777,-418,-1763,-710,374,1070,764
-301,470,771,-80,-533,621,-412,-1595,-728,122,698,506
-283,362,645,-38,-461,501,-418,-1433,-728,-39,452,320
-265,284,549,-8,-407,417,-424,-1295,-716,-140,272,194
-253,218,471,20,-359,345,-424,-1169,-686,-212,152,104
-235,170,405,32,-317,285,-412,-1055,-650,-260,62,38
-211,128,339,38,-275,231,-394,-947,-596,-290,3,-10
-175,86,261,44,-215,171,-370,-833,-542,-302,-38,-33
-145,38,183,56,-161,111,-346,-719,-488,-296,-68,-56
-115,2,117,56,-113,57,-322,-605,-434,-284,-92,-68
-91,-27,63,56,-77,15,-298,-509,-380,-260,-104,-80
-67,-56,9,56,-41,-27,-268,-413,-332,-236,-116,-92
-55,-86,-33,68,-11,-61,-238,-347,-296,-218,-122,-92
-43,-104,-61,68,7,-85,-208,-293,-266,-212,-134,-104
-37,-122,-85,80,25,-103,-184,-257,-236,-212,-152,-116
-31,-134,-103,80,36,-121,-160,-227,-212,-218,-164,-134
-25,-152,-127,86,47,-139,-142,-197,-188,-224,-176,-146
-19,-164,-145,86,59,-157,-130,-173,-170,-230,-188,-152
-7,-176,-169,86,77,-175,-130,-149,-152,-230,-200,-158
-1,-194,-193,98,95,-193,-130,-125,-152,-230,-206,-164
5,-206,-211,98,107,-211,-136,-107,-146,-230,-212,-164
5,-200,-205,92,101,-205,-136,-89,-140,-224,-224,-170
11,-206,-217,98,113,-211,-142,-71,-134,-218,-224,-176
11,-218,-229,104,119,-223,-142,-59,-128,-218,-224,-176
17,-212,-229,92,119,-223,-136,-47,-128,-218,-230,-176
22,-212,-235,92,125,-223,-136,-41,-122,-224,-236,-170
22,-218,-241,98,131,-229,-124,-29,-116,-224,-236,-170
27,-218,-247,98,137,-229,-124,-24,-110,-224,-236,-170
27,-218,-247,98,137,-229,-124,-19,-98,-224,-242,-170
27,-218,-247,98,137,-229,-124,-13,-98,-224,-242,-176
33,-218,-253,92,143,-235,-124,-7,-98,-224,-230,-176
33,-218,-253,92,143,-235,-124,-1,-98,-224,-230,-170
33,-218,-253,92,143,-235,-124,11,-92,-224,-224,-170
33,-212,-247,86,137,-229,-118,23,-92,-218,-224,-164
39,-206,-247,86,143,-223,-112,29,-86,-212,-224,-158
39,-206,-247,86,143,-223,-112,41,-80,-206,-218,-158
45,-200,-247,74,143,-223,-112,47,-74,-206,-212,-158
45,-194,-241,74,143,-217,-112,53,-68,-200,-206,-158
45,-194,-241,74,143,-217,-112,59,-62,-194,-200,-152
45,-194,-241,74,143,-217,-112,65,-56,-194,-200,-152
45,-188,-235,68,137,-211,-112,65,-50,-188,-194,-152
45,-188,-235,68,137,-211,-112,71,-50,-182,-194,-152
45,-182,-229,68,137,-205,-112,71,-45,-176,-188,-152
45,-182,-229,68,137,-205,-112,77,-45,-170,-188,-146
45,-182,-229,68,137,-205,-106,83,-40,-170,-182,-146
45,-182,-229,68,137,-205,-106,89,-40,-164,-176,-140
51,-182,-235,68,143,-205,-106,89,-34,-158,-176,-140
45,-188,-235,68,137,-211,-106,95,-28,-152,-170,-134
45,-194,-241,74,143,-217,-106,101,-22,-146,-170,-128
51,-194,-247,74,149,-217,-106,107,-22,-134,-164,-122
51,-194,-247,74,149,-217,-112,113,-10,-128,-158,-116
57,-188,-247,62,149,-217,-112,125,-4,-122,-158,-116
57,-182,-241,62,149,-211,-112,131,-4,-116,-152,-110
57,-176,-235,56,143,-205,-112,137,2,-98,-152,-104
57,-176,-235,56,143,-205,-106,143,2,-92,-146,-98
51,-176,-229,62,137,-199,-106,155,8,-86,-140,-92
51,-176,-229,62,137,-199,-106,161,8,-74,-134,-92
57,-176,-235,56,143,-205,-106,167,14,-68,-122,-86
57,-176,-235,56,143,-205,-112,167,20,-56,-122,-86
57,-164,-223,50,137,-193,-118,173,26,-50,-116,-80
57,-152,-211,44,131,-181,-118,179,32,-44,-110,-80
57,-152,-211,44,131,-181,-124,185,38,-39,-104,-80
63,-146,-211,44,137,-175,-124,197,44,-34,-104,-74
69,-146,-217,38,143,-181,-124,203,50,-28,-98,-74
69,-146,-217,38,143,-181,-118,215,62,-16,-86,-62
75,-134,-211,32,143,-169,-118,221,68,-4,-80,-62
75,-122,-199,26,137,-157,-118,227,74,2,-74,-50
81,-122,-205,20,143,-163,-118,239,80,14,-62,-44
81,-116,-199,14,137,-157,-124,251,80,20,-56,-44
87,-116,-205,14,143,-157,-124,263,86,32,-44,-33
87,-116,-205,14,143,-157,-124,275,92,44,-38,-33
87,-110,-199,14,143,-151,-124,281,104,56,-32,-16
87,-104,-193,8,137,-145,-124,293,110,62,-26,-10
93,-92,-187,-2,137,-139,-124,305,116,80,-14,2
93,-86,-181,-2,137,-133,-124,317,122,92,-8,8
99,-86,-187,-2,143,-133,-118,335,134,110,3,14
99,-74,-175,-8,137,-121,-118,353,140,122,14,26
111,-62,-175,-20,143,-115,-118,365,152,134,26,32
117,-44,-163,-38,137,-103,-118,383,158,146,44,38
117,-38,-157,-38,137,-97,-118,401,164,164,56,50
123,-27,-151,-44,137,-85,-118,413,176,188,68,62
129,-22,-151,-50,143,-85,-118,425,182,200,86,74
129,-10,-139,-56,137,-73,-118,437,200,218,98,86
129,2,-127,-62,131,-61,-112,449,212,236,110,98
135,14,-121,-68,131,-49,-112,467,224,254,122,110
135,20,-115,-74,125,-43,-112,473,230,266,140,122
135,32,-103,-80,119,-33,-106,491,242,284,158,140
141,38,-103,-86,125,-33,-106,503,248,296,176,152
141,44,-97,-92,119,-27,-106,515,254,320,194,164
147,56,-91,-98,119,-15,-112,527,260,338,212,182
153,74,-79,-110,119,-3,-112,539,266,350,224,200
153,86,-67,-116,113,9,-112,551,272,368,236,212
153,92,-61,-122,107,15,-112,557,278,386,254,224
153,98,-55,-122,107,21,-112,569,284,404,272,236
159,116,-45,-134,101,39,-112,575,290,416,290,248
165,128,-39,-146,101,45,-106,581,296,428,308,260
165,134,-33,-146,101,51,-106,587,296,440,320,272
165,146,-21,-152,95,63,-112,593,302,452,332,278
165,152,-15,-158,89,69,-112,593,302,470,344,290
165,170,3,-164,83,87,-112,599,302,494,356,302
165,188,21,-176,71,105,-112,599,302,506,362,308
159,206,45,-176,59,129,-112,599,302,518,368,314
159,218,57,-182,53,141,-112,599,302,524,380,326
153,230,75,-188,41,153,-106,599,308,530,392,332
153,242,87,-194,36,165,-106,593,308,536,404,338
147,248,99,-194,25,177,-112,593,308,542,422,350
147,248,99,-194,25,177,-106,587,308,548,434,356
147,248,99,-194,25,177,-100,581,314,560,440,362
141,254,111,-194,19,183,-100,575,308,560,452,368
135,260,123,-194,7,195,-100,575,308,566,452,368
129,272,141,-200,-5,207,-100,563,308,572,458,368
129,278,147,-200,-5,213,-94,551,302,572,458,362
123,284,159,-200,-17,225,-94,545,296,572,458,368
117,284,165,-200,-23,225,-88,533,296,578,458,362
111,278,165,-188,-23,225,-82,521,290,566,452,362
105,278,171,-188,-29,225,-76,503,284,554,452,362
99,272,171,-182,-35,225,-70,491,272,542,446,356
93,266,171,-176,-35,219,-64,467,260,530,434,344
87,260,171,-170,-41,219,-64,455,248,512,422,332
81,254,171,-164,-41,213,-58,437,236,494,410,320
69,248,177,-158,-53,213,-52,419,224,476,398,308
63,236,171,-146,-53,207,-52,401,206,452,380,290
63,230,165,-140,-47,201,-40,377,188,428,356,278
57,218,159,-134,-47,189,-34,359,176,398,338,260
51,206,153,-122,-47,183,-28,341,164,374,320,248
45,188,141,-116,-47,165,-28,317,146,338,296,224
39,176,135,-104,-47,159,-23,299,134,302,272,206
33,158,123,-92,-41,141,-23,275,122,278,248,188
27,146,117,-80,-41,135,-23,251,104,248,230,170
22,122,99,-68,-35,111,-23,233,92,224,206,152
17,104,87,-62,-35,93,-23,209,74,188,176,134
11,86,75,-44,-29,81,-23,185,50,158,152,110
5,62,57,-32,-23,57,-23,161,32,128,128,98
5,50,45,-26,-17,45,-23,143,20,98,104,74
-1,38,39,-14,-17,39,-23,125,2,68,80,56
-1,26,27,-8,-11,27,-23,107,-22,38,56,38
-7,8,15,-2,-11,9,-23,95,-34,8,38,14
-13,-4,9,8,-11,3,-23,83,-45,-22,20,2
-19,-22,-3,20,-5,-15,-23,65,-56,-44,3,-10
-25,-27,-3,26,-11,-15,-23,47,-68,-62,-8,-22
-25,-38,-15,32,-5,-27,-23,29,-86,-80,-26,-33
-25,-50,-27,38,1,-38,-23,17,-98,-98,-38,-44
-31,-62,-33,44,1,-49,-23,5,-110,-116,-56,-56
-37,-68,-33,50,-5,-49,-23,-1,-116,-134,-68,-68
-37,-80,-45,56,1,-61,-23,-13,-128,-152,-86,-80
-43,-92,-50,62,1,-73,-23,-19,-134,-164,-98,-86
-49,-104,-55,74,1,-79,-23,-24,-146,-176,-110,-92
-49,-104,-55,74,1,-79,-23,-29,-152,-194,-116,-98
-49,-110,-61,80,7,-85,-23,-35,-158,-206,-128,-110
-49,-122,-73,86,13,-97,-28,-35,-158,-212,-128,-116
-49,-128,-79,86,13,-103,-28,-41,-164,-218,-134,-122
-49,-134,-85,92,19,-109,-28,-47,-170,-224,-146,-128
-55,-134,-79,92,13,-109,-28,-53,-176,-236,-146,-134
-55,-140,-85,92,13,-115,-34,-53,-176,-236,-152,-140
-55,-134,-79,92,13,-109,-34,-59,-182,-236,-158,-140
-61,-140,-79,98,7,-109,-34,-65,-188,-242,-158,-146
-61,-140,-79,98,7,-109,-34,-71,-194,-242,-158,-146
-67,-140,-73,98,1,-109,-34,-77,-200,-248,-164,-146
-61,-134,-73,98,7,-103,-34,-77,-200,-248,-164,-146
-61,-140,-79,98,7,-109,-34,-77,-200,-248,-158,-146
-61,-146,-85,104,13,-115,-34,-83,-206,-248,-164,-152
-61,-146,-85,104,13,-115,-28,-83,-206,-248,-164,-152
-61,-152,-91,104,13,-121,-28,-83,-200,-248,-170,-152
-67,-152,-85,104,7,-121,-28,-83,-206,-254,-176,-158
-67,-152,-85,104,7,-121,-28,-83,-206,-254,-176,-158
-67,-152,-85,104,7,-121,-28,-83,-206,-260,-182,-158
-67,-146,-79,104,7,-115,-28,-77,-212,-260,-182,-158
-67,-152,-85,104,7,-121,-28,-77,-212,-260,-176,-158
-67,-152,-85,104,7,-121,-28,-77,-212,-254,-176,-158
-67,-158,-91,110,13,-127,-28,-77,-212,-254,-176,-158
-67,-152,-85,104,7,-121,-28,-77,-212,-254,-176,-164
-67,-152,-85,104,7,-121,-28,-83,-206,-260,-176,-164
-61,-158,-97,110,19,-127,-34,-83,-200,-260,-170,-164
-61,-152,-91,104,13,-121,-28,-77,-194,-260,-170,-164
-67,-152,-85,104,7,-121,-28,-83,-194,-260,-176,-158
-67,-146,-79,104,7,-115,-28,-83,-194,-260,-176,-152
-67,-140,-73,98,1,-109,-28,-83,-194,-266,-176,-152
-61,-140,-79,98,7,-109,-28,-83,-200,-266,-176,-152
-67,-146,-79,104,7,-115,-28,-83,-200,-260,-170,-152
-61,-140,-79,98,7,-109,-28,-83,-200,-260,-164,-152
-61,-140,-79,98,7,-109,-23,-83,-200,-254,-164,-152
-55,-140,-85,92,13,-115,-23,-83,-200,-248,-164,-152
-55,-140,-85,92,13,-115,-28,-83,-200,-254,-164,-152
-55,-146,-91,98,19,-121,-28,-77,-200,-254,-164,-146
-55,-146,-91,98,19,-121,-34,-77,-200,-254,-164,-146
-55,-146,-91,98,19,-121,-40,-83,-194,-254,-164,-146
-61,-140,-79,98,7,-109,-40,-77,-194,-254,-164,-140
-61,-140,-79,98,7,-109,-40,-77,-194,-254,-164,-140
-67,-140,-73,98,1,-109,-46,-77,-200,-254,-164,-140
-67,-140,-73,98,1,-109,-46,-77,-200,-254,-164,-140
-67,-140,-73,98,1,-109,-40,-77,-200,-248,-164,-140
-61,-146,-85,104,13,-115,-40,-77,-200,-248,-164,-140
-61,-140,-79,98,7,-109,-40,-77,-206,-248,-164,-140
-61,-140,-79,98,7,-109,-40,-77,-206,-242,-164,-140
-61,-134,-73,98,7,-103,-40,-77,-206,-242,-164,-140
-55,-134,-79,92,13,-109,-40,-83,-200,-242,-164,-134
-61,-134,-73,98,7,-103,-46,-83,-200,-242,-164,-134
-61,-128,-67,92,1,-97,-46,-77,-200,-236,-164,-134
-55,-128,-73,86,7,-103,-46,-71,-206,-236,-158,-134
-55,-134,-79,92,13,-109,-52,-71,-206,-236,-158,-134
-55,-134,-79,92,13,-109,-58,-71,-212,-236,-158,-140
-55,-140,-85,92,13,-115,-58,-71,-218,-236,-158,-134
-55,-140,-85,92,13,-115,-58,-71,-218,-236,-158,-134
-55,-140,-85,92,13,-115,-58,-71,-224,-236,-158,-128
-49,-140,-91,92,19,-115,-52,-71,-224,-230,-158,-122
-49,-140,-91,92,19,-115,-52,-71,-224,-230,-164,-122
-43,-134,-91,86,25,-115,-52,-71,-224,-236,-164,-128
-49,-134,-85,92,19,-109,-52,-71,-224,-236,-164,-128
-49,-134,-85,92,19,-109,-58,-71,-230,-242,-158,-134
-49,-140,-91,92,19,-115,-58,-71,-230,-236,-158,-134
-49,-140,-91,92,19,-115,-58,-71,-230,-236,-158,-134
-49,-140,-91,92,19,-115,-58,-77,-242,-242,-158,-128
-49,-140,-91,92,19,-115,-58,-71,-242,-242,-158,-128
-49,-134,-85,92,19,-109,-52,-71,-242,-242,-158,-128
-49,-134,-85,92,19,-109,-52,-71,-242,-242,-164,-128
-43,-128,-85,80,19,-109,-52,-71,-242,-248,-164,-128
-43,-128,-85,80,19,-109,-52,-71,-242,-254,-164,-128
-43,-134,-91,86,25,-115,-52,-71,-236,-260,-164,-134
-43,-134,-91,86,25,-115,-58,-77,-242,-260,-170,-134
-37,-140,-103,86,31,-121,-64,-77,-248,-266,-170,-134
-37,-140,-103,86,31,-121,-64,-83,-254,-272,-170,-140
-43,-140,-97,86,25,-121,-64,-83,-260,-278,-176,-146
-43,-140,-97,86,25,-121,-64,-89,-266,-284,-176,-152
-43,-140,-97,86,25,-121,-64,-89,-272,-284,-182,-146
-43,-140,-97,86,25,-121,-58,-89,-272,-284,-182,-146
-43,-140,-97,86,25,-121,-58,-89,-278,-284,-182,-152
-49,-140,-91,92,19,-115,-58,-89,-272,-290,-182,-146
-43,-146,-103,92,31,-127,-58,-89,-272,-296,-188,-146
-43,-140,-97,86,25,-121,-58,-89,-272,-296,-182,-146
-43,-146,-103,92,31,-127,-64,-95,-266,-296,-182,-146
-43,-146,-103,92,31,-127,-64,-95,-266,-296,-188,-146
-43,-146,-103,92,31,-127,-64,-101,-266,-296,-194,-152
-43,-146,-103,92,31,-127,-58,-101,-266,-302,-194,-152
-43,-152,-109,92,31,-133,-58,-101,-272,-302,-200,-152
-43,-146,-103,92,31,-127,-58,-107,-278,-308,-206,-158
-43,-140,-97,86,25,-121,-58,-107,-278,-308,-206,-158
-43,-140,-97,86,25,-121,-58,-107,-278,-314,-206,-158
-37,-140,-103,86,31,-121,-58,-101,-278,-314,-206,-158
-37,-134,-97,86,31,-115,-58,-101,-278,-320,-206,-158
-37,-140,-103,86,31,-121,-58,-101,-278,-320,-206,-164
-37,-146,-109,92,36,-127,-58,-101,-278,-320,-206,-158
-37,-152,-115,92,36,-133,-58,-101,-278,-320,-212,-164
-37,-152,-115,92,36,-133,-58,-107,-284,-326,-212,-164
-43,-158,-115,98,36,-139,-58,-113,-284,-326,-212,-170
-49,-158,-109,104,31,-133,-58,-113,-284,-320,-218,-176
-55,-164,-109,104,25,-139,-58,-113,-284,-326,-218,-176
-55,-158,-103,104,25,-133,-58,-113,-278,-326,-218,-176
-55,-158,-103,104,25,-133,-58,-113,-278,-326,-212,-176
-55,-158,-103,104,25,-133,-52,-113,-278,-326,-206,-170
-55,-158,-103,104,25,-133,-52,-113,-278,-326,-206,-170
-49,-158,-109,104,31,-133,-52,-113,-278,-326,-212,-170
-49,-158,-109,104,31,-133,-52,-119,-284,-332,-212,-170
-49,-158,-109,104,31,-133,-52,-125,-278,-332,-212,-170
-49,-164,-115,104,31,-139,-52,-125,-278,-338,-212,-170
-49,-164,-115,104,31,-139,-52,-125,-278,-338,-218,-170
-49,-164,-115,104,31,-139,-58,-125,-278,-338,-212,-170
-49,-170,-121,110,36,-145,-64,-125,-278,-338,-212,-164
-55,-170,-115,110,31,-145,-64,-125,-278,-338,-212,-164
-55,-170,-115,110,31,-145,-58,-119,-278,-332,-218,-164
-55,-170,-115,110,31,-145,-58,-119,-284,-332,-218,-170
-55,-164,-109,104,25,-139,-58,-125,-284,-332,-218,-170
-55,-164,-109,104,25,-139,-58,-125,-290,-332,-218,-170
-55,-164,-109,104,25,-139,-58,-131,-290,-332,-224,-170
-55,-164,-109,104,25,-139,-58,-131,-290,-338,-224,-176
-55,-164,-109,104,25,-139,-58,-131,-284,-338,-224,-170
-55,-164,-109,104,25,-139,-58,-131,-284,-344,-224,-170
-55,-164,-109,104,25,-139,-58,-131,-284,-344,-224,-170
-55,-158,-103,104,25,-133,-64,-131,-284,-344,-224,-176
-55,-158,-103,104,25,-133,-64,-131,-290,-344,-224,-182
-55,-164,-109,104,25,-139,-58,-125,-290,-344,-224,-176
-55,-170,-115,110,31,-145,-58,-131,-290,-338,-224,-176
-55,-164,-109,104,25,-139,-58,-131,-290,-344,-224,-176
-49,-164,-115,104,31,-139,-58,-131,-284,-338,-218,-170
-49,-164,-115,104,31,-139,-58,-131,-284,-338,-218,-170
-49,-158,-109,104,31,-133,-58,-131,-284,-344,-218,-170
-49,-152,-103,98,25,-127,-64,-137,-278,-344,-218,-176
-49,-152,-103,98,25,-127,-64,-137,-278,-344,-218,-176
-55,-158,-103,104,25,-133,-64,-137,-272,-344,-218,-176
-55,-164,-109,104,25,-139,-64,-137,-272,-350,-218,-182
-55,-170,-115,110,31,-145,-64,-137,-278,-350,-218,-182
-55,-170,-115,110,31,-145,-64,-137,-278,-350,-218,-182
-49,-170,-121,110,36,-145,-70,-137,-278,-350,-218,-182
-49,-170,-121,110,36,-145,-70,-143,-278,-350,-224,-188
-49,-170,-121,110,36,-145,-64,-137,-284,-350,-218,-182
-49,-164,-115,104,31,-139,-64,-137,-278,-344,-218,-182
-49,-164,-115,104,31,-139,-64,-137,-278,-344,-224,-182
-49,-158,-109,104,31,-133,-64,-137,-278,-344,-224,-182
-49,-158,-109,104,31,-133,-64,-131,-278,-344,-224,-182
-49,-164,-115,104,31,-139,-64,-131,-278,-344,-218,-176
-43,-158,-115,98,36,-139,-64,-131,-278,-350,-224,-176
-37,-164,-127,98,41,-145,-64,-131,-278,-350,-224,-176
-37,-158,-121,98,41,-139,-64,-137,-272,-350,-218,-176
-37,-152,-115,92,36,-133,-64,-137,-278,-350,-224,-176
-43,-152,-109,92,31,-133,-64,-143,-278,-350,-224,-176
-43,-158,-115,98,36,-139,-64,-143,-278,-350,-224,-176
-49,-170,-121,110,36,-145,-64,-143,-278,-350,-224,-176
-49,-170,-121,110,36,-145,-64,-143,-278,-344,-224,-182
-55,-176,-121,110,31,-151,-58,-143,-278,-344,-224,-182
-55,-176,-121,110,31,-151,-58,-143,-278,-344,-224,-188
-55,-176,-121,110,31,-151,-52,-143,-278,-344,-218,-182
-55,-182,-127,116,36,-157,-52,-143,-278,-344,-218,-182
-49,-176,-127,110,36,-151,-58,-143,-278,-344,-218,-182
-49,-176,-127,110,36,-151,-58,-143,-284,-338,-218,-182
-49,-182,-133,116,41,-157,-58,-143,-284,-338,-224,-182
-49,-182,-133,116,41,-157,-58,-143,-278,-338,-224,-182
-43,-176,-133,104,41,-157,-58,-143,-272,-338,-224,-182
-43,-176,-133,104,41,-157,-58,-143,-272,-338,-224,-188
-43,-176,-133,104,41,-157,-58,-137,-272,-338,-224,-188
-49,-176,-127,110,36,-151,-52,-137,-272,-338,-224,-188
-49,-176,-127,110,36,-151,-58,-137,-272,-332,-224,-188
-49,-176,-127,110,36,-151,-58,-137,-272,-338,-224,-188
-49,-176,-127,110,36,-151,-58,-137,-278,-338,-224,-182
-55,-176,-121,110,31,-151,-58,-137,-278,-344,-224,-182
-55,-176,-121,110,31,-151,-58,-137,-278,-344,-224,-182
-55,-170,-115,110,31,-145,-58,-143,-284,-344,-230,-182
-55,-170,-115,110,31,-145,-58,-143,-278,-338,-224,-182
-55,-170,-115,110,31,-145,-58,-143,-278,-338,-224,-182
-55,-164,-109,104,25,-139,-58,-137,-278,-338,-224,-182
-55,-158,-103,104,25,-133,-64,-143,-278,-338,-224,-182
-49,-158,-109,104,31,-133,-64,-143,-278,-338,-224,-182
-49,-158,-109,104,31,-133,-58,-143,-278,-338,-218,-182
-55,-158,-103,104,25,-133,-58,-143,-278,-338,-218,-182
-55,-164,-109,104,25,-139,-52,-143,-278,-338,-218,-182
-55,-170,-115,110,31,-145,-52,-143,-278,-338,-218,-182
-55,-170,-115,110,31,-145,-58,-149,-278,-338,-212,-176
-55,-176,-121,110,31,-151,-58,-143,-278,-338,-212,-176
-49,-170,-121,110,36,-145,-58,-143,-278,-338,-212,-176
-49,-164,-115,104,31,-139,-58,-143,-278,-338,-212,-176
-49,-164,-115,104,31,-139,-58,-143,-278,-338,-212,-170
-49,-164,-115,104,31,-139,-58,-143,-278,-344,-212,-170
-43,-164,-121,98,36,-145,-58,-143,-278,-344,-212,-170
-43,-170,-127,104,41,-151,-52,-149,-278,-344,-212,-170
-49,-164,-115,104,31,-139,-52,-149,-284,-350,-218,-176
-55,-164,-109,104,25,-139,-52,-149,-284,-350,-218,-176
-55,-164,-109,104,25,-139,-52,-149,-290,-344,-218,-176
-55,-164,-109,104,25,-139,-52,-149,-290,-344,-212,-182
-55,-164,-109,104,25,-139,-52,-143,-296,-344,-212,-176
-55,-164,-109,104,25,-139,-52,-143,-296,-344,-206,-176
-55,-158,-103,104,25,-133,-52,-149,-290,-344,-212,-182
-55,-158,-103,104,25,-133,-52,-149,-290,-350,-212,-176
-55,-158,-103,104,25,-133,-46,-149,-290,-344,-218,-170
-55,-158,-103,104,25,-133,-46,-155,-290,-344,-218,-170
-55,-158,-103,104,25,-133,-46,-155,-290,-344,-212,-170
-55,-158,-103,104,25,-133,-40,-155,-290,-344,-206,-170
-55,-164,-109,104,25,-139,-40,-149,-284,-344,-206,-170
-55,-170,-115,110,31,-145,-46,-149,-284,-344,-206,-164
-49,-176,-127,110,36,-151,-46,-149,-278,-344,-206,-164
-49,-170,-121,110,36,-145,-46,-149,-278,-344,-206,-164
-49,-158,-109,104,31,-133,-46,-149,-284,-344,-206,-170
-49,-158,-109,104,31,-133,-46,-149,-284,-332,-206,-176
-49,-164,-115,104,31,-139,-46,-149,-284,-332,-206,-176
-49,-164,-115,104,31,-139,-46,-149,-284,-332,-206,-176
-49,-164,-115,104,31,-139,-40,-149,-290,-332,-206,-176
-49,-164,-115,104,31,-139,-40,-155,-290,-332,-206,-170
-49,-158,-109,104,31,-133,-46,-149,-290,-332,-212,-170
-49,-158,-109,104,31,-133,-52,-149,-290,-332,-212,-164
-49,-158,-109,104,31,-133,-52,-149,-284,-332,-206,-164
-49,-158,-109,104,31,-133,-52,-149,-284,-332,-206,-164
-49,-158,-109,104,31,-133,-52,-149,-284,-332,-206,-158
-49,-158,-109,104,31,-133,-52,-155,-284,-332,-206,-158
-49,-158,-109,104,31,-133,-46,-155,-290,-332,-206,-164
-55,-164,-109,104,25,-139,-46,-155,-296,-338,-212,-164
-55,-164,-109,104,25,-139,-52,-161,-296,-338,-218,-170
-61,-164,-103,110,19,-133,-58,-161,-302,-338,-218,-170
-67,-170,-103,116,19,-139,-52,-155,-302,-338,-224,-176
-67,-170,-103,116,19,-139,-52,-155,-302,-338,-224,-176
-67,-170,-103,116,19,-139,-58,-155,-296,-338,-218,-176
-67,-164,-97,110,13,-133,-52,-155,-296,-332,-218,-176
-67,-170,-103,116,19,-139,-52,-155,-296,-332,-218,-170
-67,-176,-109,116,19,-145,-52,-155,-296,-332,-212,-170
-67,-182,-115,122,25,-151,-52,-155,-296,-326,-212,-164
-67,-176,-109,116,19,-145,-46,-155,-296,-332,-212,-164
-67,-170,-103,116,19,-139,-46,-155,-290,-332,-212,-164
-61,-164,-103,110,19,-133,-46,-155,-290,-332,-212,-158
-61,-158,-97,110,19,-127,-46,-155,-290,-332,-206,-158
-61,-152,-91,104,13,-121,-46,-155,-278,-338,-206,-158
-61,-146,-85,104,13,-115,-40,-155,-278,-332,-206,-158
-61,-146,-85,104,13,-115,-40,-155,-278,-332,-206,-158
-61,-146,-85,104,13,-115,-40,-155,-278,-326,-200,-158
-61,-140,-79,98,7,-109,-40,-155,-278,-326,-206,-158
-61,-140,-79,98,7,-109,-46,-149,-284,-326,-206,-158
-61,-146,-85,104,13,-115,-52,-149,-284,-326,-206,-158
-61,-152,-91,104,13,-121,-52,-149,-284,-326,-206,-158
-61,-146,-85,104,13,-115,-52,-149,-284,-326,-206,-158
-61,-146,-85,104,13,-115,-58,-149,-284,-332,-212,-158
-61,-158,-97,110,19,-127,-52,-149,-284,-338,-212,-158
-61,-164,-103,110,19,-133,-52,-143,-284,-338,-212,-164
-67,-164,-97,110,13,-133,-52,-143,-284,-332,-212,-170
-67,-164,-97,110,13,-133,-52,-143,-284,-332,-212,-170
-67,-164,-97,110,13,-133,-52,-143,-284,-326,-212,-164
-73,-164,-91,116,7,-127,-52,-143,-284,-326,-212,-164
-73,-164,-91,116,7,-127,-58,-143,-284,-326,-212,-170
-67,-164,-97,110,13,-133,-58,-143,-278,-332,-212,-164
-67,-170,-103,116,19,-139,-58,-137,-278,-332,-212,-164
-61,-176,-115,116,25,-145,-58,-137,-278,-332,-212,-164
-61,-170,-109,116,25,-139,-58,-137,-272,-338,-206,-164
-61,-170,-109,116,25,-139,-58,-137,-272,-338,-206,-164
-61,-176,-115,116,25,-145,-58,-137,-272,-338,-206,-164
-55,-170,-115,110,31,-145,-52,-131,-272,-338,-206,-164
-61,-164,-103,110,19,-133,-58,-131,-272,-332,-206,-164
-61,-152,-91,104,13,-121,-58,-131,-272,-332,-206,-170
-61,-146,-85,104,13,-115,-58,-131,-278,-326,-206,-170
-61,-152,-91,104,13,-121,-52,-125,-272,-320,-200,-158
-61,-152,-91,104,13,-121,-52,-125,-272,-326,-200,-158
-61,-152,-91,104,13,-121,-58,-131,-278,-326,-200,-158
-61,-158,-97,110,19,-127,-52,-125,-278,-332,-200,-164
-61,-164,-103,110,19,-133,-52,-125,-278,-332,-200,-164
-61,-164,-103,110,19,-133,-52,-131,-278,-338,-206,-164
-55,-164,-109,104,25,-139,-58,-125,-278,-332,-206,-164
-55,-164,-109,104,25,-139,-58,-125,-278,-332,-206,-164
-55,-158,-103,104,25,-133,-58,-125,-272,-332,-200,-164
-55,-158,-103,104,25,-133,-58,-125,-272,-332,-200,-158
-55,-158,-103,104,25,-133,-58,-125,-272,-332,-200,-158
-55,-158,-103,104,25,-133,-58,-125,-272,-332,-200,-158
-55,-158,-103,104,25,-133,-52,-125,-278,-332,-206,-158
-55,-158,-103,104,25,-133,-52,-119,-278,-338,-206,-158
-61,-158,-97,110,19,-127,-58,-119,-278,-338,-212,-158
-61,-158,-97,110,19,-127,-52,-119,-272,-338,-212,-164
-61,-158,-97,110,19,-127,-52,-113,-272,-338,-206,-164
-61,-164,-103,110,19,-133,-52,-113,-272,-332,-206,-164
-61,-158,-97,110,19,-127,-58,-119,-272,-332,-206,-164
-61,-158,-97,110,19,-127,-58,-119,-278,-332,-206,-164
-61,-164,-103,110,19,-133,-52,-119,-272,-332,-206,-164
-61,-158,-97,110,19,-127,-52,-119,-272,-332,-206,-158
-61,-152,-91,104,13,-121,-52,-119,-272,-332,-206,-158
-61,-152,-91,104,13,-121,-52,-113,-272,-332,-206,-158
-55,-152,-97,98,19,-127,-52,-113,-272,-332,-206,-164
-55,-146,-91,98,19,-121,-52,-113,-272,-338,-206,-158
-49,-152,-103,98,25,-127,-52,-113,-272,-332,-200,-164
-49,-146,-97,98,25,-121,-52,-113,-266,-332,-200,-158
-49,-146,-97,98,25,-121,-52,-113,-266,-332,-200,-164
-49,-140,-91,92,19,-115,-52,-113,-266,-332,-200,-164
-43,-140,-97,86,25,-121,-52,-119,-272,-332,-200,-164
-43,-140,-97,86,25,-121,-46,-119,-272,-332,-200,-170
-43,-146,-103,92,31,-127,-46,-113,-272,-332,-200,-164
-43,-146,-103,92,31,-127,-46,-113,-272,-326,-200,-164
-37,-146,-109,92,36,-127,-46,-107,-272,-326,-206,-164
-37,-146,-109,92,36,-127,-52,-107,-272,-332,-206,-164
-37,-146,-109,92,36,-127,-58,-107,-278,-338,-206,-164
-31,-152,-121,86,41,-139,-52,-107,-278,-344,-206,-164
-31,-152,-121,86,41,-139,-52,-107,-272,-344,-206,-164
-31,-152,-121,86,41,-139,-52,-113,-272,-344,-212,-164
-31,-146,-115,86,41,-133,-52,-113,-278,-344,-212,-164
-31,-146,-115,86,41,-133,-52,-113,-284,-344,-212,-164
-31,-146,-115,86,41,-133,-52,-119,-284,-350,-212,-170
-31,-140,-109,80,36,-127,-52,-119,-284,-350,-212,-170
-31,-140,-109,80,36,-127,-52,-113,-278,-344,-212,-170
-31,-146,-115,86,41,-133,-52,-113,-278,-344,-218,-170
-31,-146,-115,86,41,-133,-52,-113,-278,-344,-212,-170
-31,-146,-115,86,41,-133,-52,-113,-278,-344,-212,-176
-25,-146,-121,86,47,-133,-52,-113,-284,-338,-212,-176
-25,-146,-121,86,47,-133,-52,-113,-284,-338,-212,-176
-25,-146,-121,86,47,-133,-58,-113,-290,-344,-212,-176
-19,-146,-127,80,53,-139,-58,-113,-284,-344,-212,-170
-19,-146,-127,80,53,-139,-58,-107,-284,-344,-212,-170
-19,-158,-139,86,59,-151,-52,-113,-284,-338,-218,-170
-19,-158,-139,86,59,-151,-46,-113,-284,-344,-212,-164
-13,-158,-145,86,65,-151,-46,-113,-284,-344,-218,-164
-13,-152,-139,80,59,-145,-52,-113,-290,-344,-218,-164
-13,-152,-139,80,59,-145,-46,-107,-296,-344,-224,-164
-13,-152,-139,80,59,-145,-46,-107,-296,-344,-224,-158
-7,-152,-145,74,65,-151,-52,-101,-296,-338,-224,-158
-7,-152,-145,74,65,-151,-52,-101,-302,-338,-224,-158
-13,-152,-139,80,59,-145,-52,-107,-302,-338,-224,-158
-7,-152,-145,74,65,-151,-58,-107,-296,-338,-218,-158
-13,-152,-139,80,59,-145,-52,-107,-296,-338,-218,-158
-7,-146,-139,74,65,-145,-52,-113,-284,-344,-218,-152
-7,-140,-133,68,59,-139,-52,-113,-284,-344,-218,-152
-13,-140,-127,74,53,-133,-58,-113,-284,-350,-218,-152
-7,-140,-133,68,59,-139,-58,-113,-290,-356,-218,-152
-1,-140,-139,68,65,-139,-58,-107,-290,-356,-218,-146
5,-134,-139,62,71,-139,-58,-107,-290,-356,-218,-146
5,-140,-145,62,71,-145,-52,-107,-296,-356,-224,-152
-1,-140,-139,68,65,-139,-52,-107,-296,-356,-224,-152
-1,-146,-145,74,71,-145,-58,-107,-296,-362,-224,-152
5,-152,-157,68,77,-157,-58,-107,-296,-356,-224,-152
5,-152,-157,68,77,-157,-58,-107,-296,-356,-218,-152
5,-152,-157,68,77,-157,-58,-113,-302,-356,-224,-152
5,-146,-151,68,77,-151,-58,-113,-308,-356,-224,-146
5,-134,-139,62,71,-139,-64,-113,-308,-356,-224,-152
5,-134,-139,62,71,-139,-64,-113,-314,-356,-224,-152
5,-140,-145,62,71,-145,-64,-113,-314,-356,-224,-152
5,-140,-145,62,71,-145,-64,-113,-314,-356,-224,-158
5,-146,-151,68,77,-151,-64,-107,-314,-356,-224,-158
11,-146,-157,68,83,-151,-58,-107,-314,-356,-224,-158
11,-152,-163,68,83,-157,-58,-107,-308,-362,-212,-158
11,-146,-157,68,83,-151,-58,-107,-308,-362,-212,-158
11,-140,-151,62,77,-145,-58,-107,-314,-368,-212,-164
11,-140,-151,62,77,-145,-64,-113,-314,-362,-212,-164
11,-146,-157,68,83,-151,-64,-113,-314,-362,-212,-164
11,-146,-157,68,83,-151,-64,-113,-314,-362,-218,-158
11,-146,-157,68,83,-151,-64,-113,-320,-362,-218,-164
11,-146,-157,68,83,-151,-64,-113,-320,-362,-218,-164
11,-140,-151,62,77,-145,-64,-113,-320,-368,-218,-170
17,-134,-151,56,83,-145,-64,-113,-320,-368,-224,-170
17,-134,-151,56,83,-145,-64,-113,-326,-368,-224,-170
17,-140,-157,56,83,-151,-64,-107,-314,-368,-224,-170
11,-146,-157,68,83,-151,-64,-107,-320,-368,-224,-170
17,-140,-157,56,83,-151,-70,-107,-314,-368,-224,-170
17,-134,-151,56,83,-145,-70,-113,-320,-362,-224,-170
11,-134,-145,62,77,-139,-70,-113,-320,-362,-224,-170
17,-134,-151,56,83,-145,-70,-107,-320,-362,-224,-164
17,-134,-151,56,83,-145,-64,-107,-320,-362,-218,-164
17,-134,-151,56,83,-145,-58,-107,-320,-356,-218,-164
17,-134,-151,56,83,-145,-58,-107,-320,-356,-218,-164
17,-128,-145,50,77,-139,-58,-107,-320,-362,-218,-164
22,-128,-151,50,83,-139,-58,-101,-320,-362,-218,-158
22,-134,-157,56,89,-145,-58,-101,-320,-362,-218,-158
27,-140,-169,56,95,-151,-64,-101,-326,-362,-218,-158
33,-140,-175,50,101,-157,-64,-101,-326,-362,-212,-158
33,-140,-175,50,101,-157,-70,-101,-332,-362,-218,-164
33,-140,-175,50,101,-157,-70,-101,-332,-362,-218,-164
33,-140,-175,50,101,-157,-64,-101,-332,-356,-224,-170
33,-140,-175,50,101,-157,-64,-101,-332,-362,-224,-170
33,-134,-169,50,101,-151,-64,-107,-332,-362,-224,-170
33,-134,-169,50,101,-151,-64,-107,-332,-368,-218,-170
33,-128,-163,44,95,-145,-64,-107,-332,-368,-218,-170
33,-128,-163,44,95,-145,-58,-107,-332,-362,-218,-170
33,-122,-157,44,95,-139,-58,-107,-332,-368,-218,-170
33,-122,-157,44,95,-139,-58,-107,-326,-368,-218,-170
33,-122,-157,44,95,-139,-64,-107,-326,-362,-218,-164
39,-116,-157,38,95,-133,-64,-107,-326,-362,-218,-164
39,-110,-151,38,95,-127,-58,-107,-332,-362,-218,-164
45,-104,-151,26,95,-127,-58,-107,-326,-362,-218,-158
51,-104,-157,26,101,-127,-52,-107,-320,-362,-212,-158
51,-98,-151,26,101,-121,-46,-101,-308,-356,-206,-152
51,-80,-133,14,89,-103,-40,-95,-302,-356,-206,-146
51,-68,-121,8,83,-91,-40,-89,-290,-350,-200,-146
57,-56,-115,-2,83,-85,-34,-83,-284,-338,-194,-140
57,-50,-109,-2,83,-79,-28,-77,-284,-332,-188,-140
57,-44,-103,-8,77,-73,-23,-77,-278,-332,-188,-140
57,-44,-103,-8,77,-73,-23,-77,-278,-326,-188,-140
57,-38,-97,-8,77,-67,-23,-71,-272,-326,-182,-134
51,-32,-85,-8,65,-55,-18,-71,-266,-326,-182,-134
51,-32,-85,-8,65,-55,-12,-77,-266,-326,-182,-134
45,-38,-85,-2,65,-61,-12,-71,-266,-326,-182,-128
45,-44,-91,-2,65,-67,-6,-71,-266,-326,-182,-134
45,-56,-103,3,71,-79,-6,-71,-272,-332,-188,-134
51,-68,-121,8,83,-91,0,-65,-278,-332,-182,-140
57,-68,-127,3,89,-97,0,-59,-278,-326,-182,-140
63,-68,-133,3,95,-97,-6,-53,-278,-320,-182,-146
69,-74,-145,3,107,-109,-6,-53,-278,-320,-182,-146
69,-80,-151,3,107,-115,-18,-59,-284,-320,-188,-146
69,-86,-157,8,113,-121,-28,-65,-296,-326,-194,-152
75,-92,-169,8,119,-127,-40,-77,-302,-338,-194,-152
81,-92,-175,3,125,-133,-52,-83,-308,-344,-194,-152
87,-92,-181,3,131,-133,-58,-83,-308,-344,-194,-146
87,-98,-187,8,137,-139,-64,-83,-308,-344,-194,-140
87,-98,-187,8,137,-139,-76,-89,-308,-350,-194,-140
87,-98,-187,8,137,-139,-88,-95,-314,-350,-194,-146
87,-98,-187,8,137,-139,-88,-95,-320,-350,-194,-146
93,-104,-199,3,143,-151,-94,-101,-326,-350,-194,-146
93,-104,-199,3,143,-151,-94,-101,-332,-356,-194,-152
93,-110,-205,8,149,-157,-88,-107,-332,-356,-194,-152
93,-116,-211,8,149,-163,-88,-107,-332,-356,-194,-152
93,-122,-217,14,155,-169,-88,-113,-332,-356,-200,-152
99,-128,-229,14,161,-175,-88,-113,-332,-362,-206,-152
93,-128,-223,14,155,-175,-94,-119,-338,-368,-218,-158
87,-134,-223,26,155,-175,-94,-125,-344,-374,-224,-164
81,-134,-217,26,149,-175,-100,-125,-356,-380,-230,-170
75,-140,-217,32,143,-175,-100,-125,-356,-380,-224,-170
63,-146,-211,44,137,-175,-94,-125,-356,-386,-224,-170
57,-152,-211,44,131,-181,-94,-125,-350,-386,-224,-176
51,-146,-199,50,125,-169,-94,-125,-350,-386,-224,-176
45,-146,-193,50,119,-169,-88,-125,-356,-386,-224,-176
45,-140,-187,44,113,-163,-88,-131,-356,-386,-224,-182
45,-140,-187,44,113,-163,-88,-131,-350,-386,-224,-182
39,-152,-193,56,113,-169,-82,-125,-350,-380,-224,-182
39,-164,-205,62,119,-181,-82,-125,-350,-380,-224,-182
39,-164,-205,62,119,-181,-82,-131,-350,-386,-230,-182
39,-164,-205,62,119,-181,-88,-137,-350,-392,-236,-188
39,-164,-205,62,119,-181,-88,-137,-350,-398,-236,-182
39,-164,-205,62,119,-181,-88,-143,-356,-398,-236,-188
39,-158,-199,62,119,-175,-88,-143,-356,-398,-236,-188
33,-158,-193,62,113,-175,-88,-143,-356,-398,-236,-188
33,-158,-193,62,113,-175,-82,-137,-356,-392,-230,-182
33,-152,-187,56,107,-169,-76,-125,-350,-380,-224,-182
27,-146,-175,62,101,-157,-76,-113,-338,-368,-218,-176
27,-140,-169,56,95,-151,-70,-101,-332,-356,-212,-170
22,-128,-151,50,83,-139,-64,-83,-320,-344,-200,-164
22,-122,-145,50,83,-133,-52,-77,-308,-332,-188,-152
17,-110,-127,44,71,-121,-40,-59,-290,-320,-182,-152
11,-98,-109,44,59,-103,-28,-41,-272,-302,-170,-146
5,-92,-97,38,47,-97,-18,-24,-254,-284,-158,-140
5,-86,-91,38,47,-91,-6,-13,-242,-266,-152,-134
-7,-74,-67,38,31,-73,12,11,-224,-248,-140,-128
-19,-68,-50,38,13,-61,30,35,-206,-224,-128,-116
-31,-56,-27,38,-5,-43,48,59,-188,-200,-116,-110
-43,-44,-3,38,-23,-27,66,89,-164,-176,-98,-104
-55,-38,15,44,-35,-15,78,119,-140,-158,-86,-98
-61,-27,33,44,-47,3,96,149,-116,-146,-74,-98
-67,-16,51,38,-59,15,120,173,-98,-128,-68,-92
-73,-10,63,44,-65,27,138,203,-80,-110,-56,-92
-73,2,75,38,-71,39,168,233,-50,-92,-44,-86
-79,14,93,32,-83,51,198,281,-22,-62,-32,-74
-85,26,111,32,-95,69,234,335,20,-34,-20,-62
-85,38,123,26,-101,81,276,395,56,-4,-8,-56
-91,56,147,14,-119,99,324,467,104,32,3,-44
-103,74,177,14,-137,123,378,551,170,74,26,-33
-115,92,207,8,-161,147,450,653,242,110,50,-28
-121,116,237,3,-179,177,516,755,314,152,68,-22
-127,146,273,-8,-197,207,588,875,386,200,92,-22
-127,170,297,-20,-209,231,678,1019,476,254,104,-16
-133,200,333,-32,-233,267,774,1187,578,308,110,-22
-139,224,363,-44,-251,291,876,1349,686,362,110,-22
-145,266,411,-56,-275,339,960,1499,788,410,116,-22
-145,314,459,-80,-299,387,1026,1607,896,476,146,-4
-139,380,519,-122,-329,447,1068,1643,998,566,206,44
-127,452,579,-164,-353,513,1092,1583,1076,680,308,116
-109,530,639,-206,-371,585,1092,1415,1130,806,434,224
-85,626,711,-266,-395,669,1080,1163,1160,950,608,368
-55,746,801,-344,-425,771,1050,833,1160,1100,812,554
-19,878,897,-428,-455,885,1002,413,1106,1256,1046,770
5,1004,999,-506,-497,999,942,-59,998,1370,1298,992
33,1136,1101,-584,-533,1119,864,-527,860,1472,1550,1232
63,1256,1191,-656,-563,1227,756,-959,716,1592,1820,1478
87,1382,1293,-728,-599,1341,618,-1367,578,1712,2090,1718
87,1526,1437,-800,-671,1485,474,-1733,434,1814,2348,1946
57,1658,1599,-854,-767,1629,342,-2051,302,1910,2587,2150
17,1784,1767,-902,-875,1773,198,-2327,140,1940,2785,2324
-19,1880,1899,-932,-959,1887,72,-2554,-56,1910,2917,2443
-55,1934,1989,-938,-1019,1959,-23,-2710,-248,1856,3001,2521
-73,1928,2001,-926,-1037,1965,-148,-2800,-416,1820,3061,2575
-79,1868,1947,-896,-1013,1905,-292,-2836,-542,1814,3103,2587
-85,1760,1845,-836,-965,1803,-442,-2818,-656,1754,3079,2539
-85,1610,1695,-758,-887,1653,-562,-2758,-752,1658,2983,2425
-91,1412,1503,-662,-797,1455,-652,-2644,-830,1520,2803,2228
-109,1184,1293,-536,-701,1239,-706,-2494,-902,1232,2467,1922
-127,974,1101,-422,-611,1035,-742,-2321,-962,818,2018,1550
-145,776,921,-314,-533,849,-754,-2129,-1004,422,1514,1154
-157,602,759,-218,-455,681,-736,-1931,-1016,110,1034,800
-163,470,633,-152,-395,549,-706,-1739,-1010,-86,692,530
-163,374,537,-104,-347,453,-682,-1577,-998,-218,446,350
-157,302,459,-68,-305,381,-652,-1439,-962,-308,278,224
-151,254,405,-50,-275,327,-622,-1319,-926,-362,158,146
-145,212,357,-32,-251,285,-580,-1199,-872,-398,80,92
-121,182,303,-26,-209,243,-538,-1067,-812,-410,26,50
-91,158,249,-32,-167,201,-496,-929,-746,-404,3,26
-55,122,177,-32,-113,147,-454,-785,-674,-374,-8,8
-19,86,105,-32,-59,93,-406,-641,-608,-344,-14,-10
11,62,51,-32,-17,57,-358,-515,-548,-308,-26,-22
27,38,9,-26,13,27,-310,-413,-500,-278,-32,-33
45,20,-27,-32,36,-3,-256,-329,-458,-254,-44,-38
51,2,-50,-20,53,-21,-202,-269,-416,-236,-56,-44
51,-16,-67,-14,59,-38,-160,-221,-386,-236,-68,-50
57,-32,-91,-14,71,-61,-136,-191,-362,-236,-80,-62
63,-50,-115,-2,89,-79,-118,-155,-338,-236,-92,-74
69,-62,-133,-2,101,-97,-112,-113,-320,-230,-104,-80
81,-74,-157,-2,119,-115,-112,-77,-302,-230,-110,-92
93,-86,-181,-2,137,-133,-106,-35,-290,-230,-116,-104
99,-98,-199,3,149,-145,-100,-7,-278,-230,-128,-116
105,-104,-211,-2,155,-157,-94,17,-272,-230,-134,-122
111,-116,-229,3,167,-169,-88,35,-260,-224,-140,-122
105,-116,-223,3,161,-169,-76,47,-254,-224,-140,-122
105,-122,-229,8,167,-175,-70,53,-248,-224,-146,-122
111,-122,-235,8,173,-175,-70,59,-248,-218,-152,-122
117,-122,-241,3,179,-181,-64,65,-236,-218,-152,-122
123,-122,-247,3,185,-181,-64,77,-224,-212,-152,-122
129,-128,-259,-2,191,-193,-58,95,-218,-212,-152,-122
129,-128,-259,-2,191,-193,-58,113,-212,-212,-152,-122
129,-128,-259,-2,191,-193,-58,125,-206,-206,-152,-122
129,-128,-259,-2,191,-193,-52,137,-200,-206,-146,-122
129,-122,-253,-2,191,-187,-46,143,-194,-206,-146,-122
129,-122,-253,-2,191,-187,-40,149,-194,-200,-146,-116
129,-116,-247,-8,185,-181,-34,155,-188,-200,-140,-116
129,-116,-247,-8,185,-181,-34,155,-188,-194,-140,-116
135,-116,-253,-8,191,-181,-28,167,-182,-194,-134,-110
141,-116,-259,-14,197,-187,-28,173,-176,-188,-128,-110
141,-110,-253,-14,197,-181,-28,179,-176,-188,-122,-104
141,-110,-253,-14,197,-181,-28,191,-170,-182,-122,-104
147,-116,-265,-14,203,-187,-28,197,-164,-170,-110,-98
147,-122,-271,-8,209,-193,-28,203,-164,-170,-110,-92
147,-116,-265,-14,203,-187,-28,209,-158,-158,-104,-86
147,-116,-265,-14,203,-187,-28,215,-158,-164,-104,-86
147,-104,-253,-20,197,-175,-28,221,-164,-158,-98,-80
153,-98,-253,-26,203,-175,-28,227,-158,-152,-98,-80
153,-92,-247,-32,197,-169,-23,239,-146,-146,-92,-74
153,-92,-247,-32,197,-169,-23,245,-146,-140,-92,-74
153,-92,-247,-32,197,-169,-18,257,-140,-134,-92,-74
153,-92,-247,-32,197,-169,-18,263,-134,-122,-86,-68
153,-86,-241,-32,197,-163,-18,275,-128,-110,-80,-68
153,-86,-241,-32,197,-163,-18,281,-122,-98,-80,-68
153,-80,-235,-38,191,-157,-18,287,-116,-92,-74,-68
153,-74,-229,-38,191,-151,-18,293,-110,-80,-68,-62
153,-74,-229,-38,191,-151,-18,305,-92,-74,-62,-62
153,-68,-223,-44,185,-145,-18,311,-86,-68,-56,-56
153,-68,-223,-44,185,-145,-12,323,-74,-56,-50,-50
153,-62,-217,-44,185,-139,-12,335,-62,-44,-44,-44
159,-62,-223,-44,191,-139,-12,347,-50,-39,-38,-44
153,-62,-217,-44,185,-139,-12,359,-45,-28,-32,-38
159,-56,-217,-50,185,-133,-6,371,-40,-16,-26,-33
159,-56,-217,-50,185,-133,-6,383,-34,2,-20,-28
165,-56,-223,-56,191,-139,0,395,-22,20,-8,-22
165,-50,-217,-56,191,-133,0,407,-10,32,3,-16
165,-44,-211,-62,185,-127,6,419,-4,44,8,-10
171,-38,-211,-62,191,-121,6,431,8,56,20,-10
171,-32,-205,-68,185,-115,12,449,20,68,26,-4
171,-27,-199,-68,185,-109,12,461,26,74,32,-4
171,-16,-187,-74,179,-97,18,479,38,86,38,8
171,-16,-187,-74,179,-97,24,503,50,98,50,14
171,-16,-187,-74,179,-97,24,521,62,116,56,20
171,-16,-187,-74,179,-97,30,533,74,134,62,26
171,-16,-187,-74,179,-97,36,551,92,152,74,32
177,-10,-187,-80,185,-97,42,569,110,164,86,44
177,-4,-181,-86,179,-91,42,587,128,182,98,50
177,2,-175,-86,179,-85,54,611,140,200,116,62
177,14,-163,-92,173,-73,54,635,152,218,134,68
183,26,-157,-98,173,-61,60,659,170,236,146,86
183,32,-151,-104,167,-55,60,683,182,254,158,92
183,38,-145,-104,167,-49,66,713,200,278,176,104
189,50,-139,-116,167,-43,72,731,218,296,188,116
189,68,-121,-128,155,-27,78,755,230,314,200,128
195,80,-115,-134,155,-15,84,773,248,332,212,140
195,92,-103,-140,149,-3,90,797,272,356,230,152
195,104,-91,-146,143,9,102,821,290,380,248,164
201,122,-79,-158,143,21,108,845,308,404,266,176
201,128,-73,-164,137,27,114,863,326,428,284,188
201,140,-61,-170,131,39,120,881,344,452,296,200
207,146,-61,-170,137,45,126,905,362,476,314,218
207,164,-45,-182,125,63,132,923,380,500,332,236
213,176,-39,-194,125,69,132,947,404,524,350,248
213,194,-21,-200,119,87,138,965,422,554,368,266
207,212,3,-206,101,111,144,983,440,578,386,278
207,224,15,-212,95,123,156,1001,452,596,404,290
207,236,27,-218,89,135,162,1013,470,614,428,302
207,254,45,-224,83,153,168,1025,482,632,446,314
207,266,57,-230,77,165,174,1043,500,656,464,326
201,278,75,-236,65,177,174,1055,512,674,482,344
201,290,87,-242,59,189,180,1067,524,698,494,356
201,308,105,-254,47,207,174,1079,536,716,506,368
201,326,123,-260,41,225,180,1085,548,740,518,380
201,338,135,-266,36,237,180,1097,560,752,530,392
201,356,153,-278,25,255,180,1103,572,770,548,404
195,368,171,-278,13,273,186,1109,590,782,560,416
195,380,183,-284,7,285,180,1109,602,794,578,428
195,392,195,-290,1,297,180,1115,608,806,590,434
195,404,207,-296,-5,309,180,1109,620,818,602,446
195,416,219,-302,-11,321,186,1109,626,818,614,452
195,422,225,-302,-11,327,186,1103,632,830,620,458
195,422,225,-302,-11,327,186,1097,638,842,632,464
195,440,243,-314,-23,345,186,1091,644,854,644,476
195,452,255,-320,-29,357,180,1085,644,860,650,482
189,464,273,-326,-41,369,186,1073,644,866,656,488
183,470,285,-320,-47,381,186,1061,644,872,656,488
183,476,291,-326,-53,387,186,1049,644,872,662,488
177,470,291,-320,-53,381,192,1037,644,866,662,494
177,470,291,-320,-53,381,192,1019,638,866,662,500
171,470,297,-314,-59,387,186,995,626,860,662,494
171,470,297,-314,-59,387,180,965,620,854,656,494
171,470,297,-314,-59,387,174,935,608,842,656,488
171,464,291,-314,-59,381,168,905,590,830,650,488
165,458,291,-308,-59,375,168,875,572,812,638,476
159,452,291,-302,-65,375,162,839,560,800,626,464
159,446,285,-296,-59,369,156,815,536,776,608,452
153,434,279,-290,-59,357,150,785,518,746,596,434
153,422,267,-284,-53,345,150,755,494,716,572,416
147,410,261,-272,-53,339,144,719,470,680,554,398
141,398,255,-266,-53,327,132,677,440,638,530,380
135,380,243,-254,-53,315,120,641,410,608,500,362
129,356,225,-242,-47,291,114,599,386,566,470,344
129,332,201,-230,-35,267,108,563,356,536,446,326
123,308,183,-212,-29,249,102,527,326,500,416,308
117,284,165,-200,-23,225,96,497,290,458,392,284
117,266,147,-188,-11,207,90,467,260,422,362,266
111,248,135,-176,-11,195,84,437,230,380,332,242
105,224,117,-164,-5,171,72,407,194,338,308,218
99,200,99,-146,1,153,66,377,170,296,278,200
93,176,81,-134,7,129,60,347,140,260,248,176
93,146,51,-116,25,99,54,311,116,224,218,158
87,122,33,-98,31,81,42,275,86,188,188,140
87,104,15,-92,36,63,36,245,62,152,164,122
81,86,3,-80,41,45,30,215,32,116,134,104
81,68,-15,-74,47,27,24,191,8,86,110,80
75,50,-27,-56,53,15,18,167,-16,50,86,56
75,38,-39,-50,59,3,12,149,-40,8,62,38
75,20,-55,-44,65,-15,6,137,-50,-16,38,14
75,8,-67,-38,71,-27,0,125,-68,-39,20,-4
75,2,-73,-32,77,-33,0,107,-86,-56,3,-16
81,-10,-91,-32,89,-49,-6,89,-98,-74,-8,-22
75,-16,-91,-26,83,-49,-6,71,-104,-92,-20,-33
69,-27,-97,-20,83,-61,-6,53,-116,-104,-32,-33
63,-32,-97,-14,77,-61,-12,35,-128,-122,-44,-44
57,-44,-103,-8,77,-73,-12,29,-140,-140,-62,-56
63,-56,-121,-2,89,-85,-18,17,-158,-152,-74,-62
57,-68,-127,3,89,-97,-18,11,-170,-164,-86,-74
57,-68,-127,3,89,-97,-23,5,-182,-176,-98,-80
57,-74,-133,8,95,-103,-23,-1,-188,-188,-110,-86
63,-80,-145,8,101,-109,-23,-13,-194,-194,-116,-92
57,-86,-145,14,101,-115,-28,-19,-200,-200,-122,-92
57,-92,-151,14,101,-121,-28,-24,-206,-206,-128,-98
57,-98,-157,20,107,-127,-28,-29,-212,-212,-134,-104
57,-104,-163,20,107,-133,-28,-29,-218,-218,-140,-104
57,-104,-163,20,107,-133,-28,-35,-224,-230,-140,-110
57,-110,-169,26,113,-139,-23,-35,-224,-236,-146,-110
57,-110,-169,26,113,-139,-23,-41,-224,-236,-146,-110
57,-116,-175,26,113,-145,-23,-47,-224,-230,-146,-110
57,-116,-175,26,113,-145,-23,-53,-224,-230,-146,-116
57,-116,-175,26,113,-145,-28,-53,-224,-230,-146,-116
57,-122,-181,32,119,-151,-28,-59,-224,-230,-146,-116
51,-122,-175,38,113,-145,-34,-59,-224,-236,-152,-122
51,-122,-175,38,113,-145,-34,-59,-224,-236,-152,-122
51,-122,-175,38,113,-145,-34,-59,-230,-236,-152,-122
51,-122,-175,38,113,-145,-34,-65,-230,-242,-158,-128
57,-122,-181,32,119,-151,-40,-65,-230,-236,-158,-128
57,-122,-181,32,119,-151,-40,-59,-230,-236,-158,-128
63,-128,-193,32,125,-157,-40,-59,-230,-230,-152,-128
63,-122,-187,32,125,-151,-40,-59,-230,-230,-152,-128
57,-122,-181,32,119,-151,-40,-59,-230,-230,-152,-128
57,-128,-187,32,119,-157,-34,-59,-236,-230,-152,-128
51,-122,-175,38,113,-145,-40,-59,-236,-242,-152,-122
51,-122,-175,38,113,-145,-40,-59,-242,-242,-158,-122
51,-116,-169,32,107,-139,-46,-65,-242,-242,-158,-122
51,-110,-163,32,107,-133,-46,-71,-242,-242,-158,-122
51,-104,-157,26,101,-127,-46,-71,-242,-242,-152,-116
51,-104,-157,26,101,-127,-52,-71,-242,-236,-152,-116
57,-104,-163,20,107,-133,-52,-65,-236,-236,-146,-116
57,-104,-163,20,107,-133,-52,-65,-236,-230,-146,-110
57,-104,-163,20,107,-133,-52,-65,-236,-230,-146,-116
57,-98,-157,20,107,-127,-46,-65,-236,-224,-146,-110
63,-98,-163,20,113,-127,-46,-59,-236,-224,-146,-110
63,-98,-163,20,113,-127,-46,-59,-236,-218,-140,-110
63,-98,-163,20,113,-127,-52,-59,-242,-218,-140,-110
63,-98,-163,20,113,-127,-52,-53,-242,-218,-140,-110
63,-92,-157,14,107,-121,-52,-53,-236,-218,-140,-110
63,-98,-163,20,113,-127,-52,-53,-236,-218,-140,-104
63,-98,-163,20,113,-127,-52,-53,-242,-218,-140,-104
63,-98,-163,20,113,-127,-52,-53,-236,-218,-134,-104
63,-98,-163,20,113,-127,-58,-47,-236,-212,-134,-104
63,-104,-169,20,113,-133,-58,-47,-236,-212,-134,-98
63,-110,-175,26,119,-139,-58,-47,-236,-206,-134,-98
57,-110,-169,26,113,-139,-64,-47,-236,-200,-134,-98
57,-110,-169,26,113,-139,-64,-47,-242,-200,-128,-98
57,-110,-169,26,113,-139,-64,-47,-242,-200,-128,-98
63,-116,-181,26,119,-145,-58,-47,-248,-200,-128,-104
63,-110,-175,26,119,-139,-58,-41,-248,-206,-134,-104
69,-104,-175,14,119,-139,-58,-47,-248,-206,-134,-104
69,-104,-175,14,119,-139,-58,-47,-248,-206,-134,-98
69,-98,-169,14,119,-133,-58,-47,-254,-212,-140,-98
69,-98,-169,14,119,-133,-58,-47,-248,-218,-140,-98
69,-98,-169,14,119,-133,-64,-53,-248,-224,-140,-98
69,-98,-169,14,119,-133,-64,-53,-254,-224,-146,-98
69,-98,-169,14,119,-133,-64,-53,-254,-224,-146,-98
69,-104,-175,14,119,-139,-64,-53,-254,-230,-146,-98
75,-104,-181,14,125,-139,-58,-53,-254,-230,-146,-104
69,-104,-175,14,119,-139,-58,-59,-254,-236,-152,-110
69,-104,-175,14,119,-139,-58,-59,-254,-230,-158,-110
69,-104,-175,14,119,-139,-58,-59,-254,-230,-158,-110
69,-110,-181,20,125,-145,-64,-59,-260,-236,-158,-110
69,-110,-181,20,125,-145,-64,-59,-260,-236,-164,-110
69,-110,-181,20,125,-145,-64,-65,-260,-242,-164,-110
69,-116,-187,20,125,-151,-58,-65,-266,-242,-170,-110
75,-116,-193,20,131,-151,-58,-71,-266,-248,-170,-116
75,-116,-193,20,131,-151,-52,-77,-266,-254,-170,-116
69,-122,-193,26,131,-157,-52,-77,-272,-254,-170,-116
69,-122,-193,26,131,-157,-52,-77,-278,-260,-176,-116
69,-122,-193,26,131,-157,-52,-77,-278,-260,-176,-122
63,-122,-187,32,125,-151,-52,-77,-278,-266,-182,-122
63,-122,-187,32,125,-151,-52,-83,-278,-266,-188,-128
63,-122,-187,32,125,-151,-46,-83,-278,-266,-188,-128
69,-128,-199,26,131,-163,-46,-83,-272,-266,-188,-128
69,-128,-199,26,131,-163,-46,-83,-278,-266,-194,-128
69,-128,-199,26,131,-163,-52,-89,-284,-272,-194,-134
69,-128,-199,26,131,-163,-52,-95,-290,-278,-200,-134
69,-128,-199,26,131,-163,-52,-95,-290,-284,-200,-140
63,-134,-199,38,131,-163,-46,-101,-296,-290,-200,-140
63,-128,-193,32,125,-157,-46,-107,-296,-290,-200,-140
63,-128,-193,32,125,-157,-46,-107,-296,-296,-200,-140
63,-128,-193,32,125,-157,-46,-107,-290,-296,-200,-140
63,-134,-199,38,131,-163,-46,-107,-290,-290,-200,-140
63,-134,-199,38,131,-163,-52,-107,-290,-290,-206,-140
57,-134,-193,38,125,-163,-52,-113,-290,-296,-206,-146
63,-128,-193,32,125,-157,-52,-119,-296,-296,-212,-146
63,-128,-193,32,125,-157,-46,-119,-290,-302,-218,-146
63,-128,-193,32,125,-157,-46,-119,-290,-302,-218,-146
57,-134,-193,38,125,-163,-46,-125,-284,-302,-218,-152
57,-128,-187,32,119,-157,-46,-131,-284,-308,-218,-152
57,-134,-193,38,125,-163,-52,-125,-278,-302,-218,-152
57,-134,-193,38,125,-163,-52,-125,-278,-302,-218,-152
57,-140,-199,38,125,-169,-52,-131,-278,-296,-224,-158
57,-140,-199,38,125,-169,-52,-131,-284,-296,-224,-158
57,-140,-199,38,125,-169,-52,-131,-284,-302,-224,-164
57,-134,-193,38,125,-163,-52,-131,-284,-302,-218,-158
57,-146,-205,44,131,-175,-58,-131,-284,-302,-218,-158
57,-146,-205,44,131,-175,-58,-131,-284,-302,-218,-158
57,-146,-205,44,131,-175,-58,-131,-290,-308,-224,-158
57,-146,-205,44,131,-175,-58,-131,-290,-308,-230,-158
57,-146,-205,44,131,-175,-58,-131,-290,-308,-230,-158
57,-146,-205,44,131,-175,-58,-131,-290,-302,-230,-152
57,-146,-205,44,131,-175,-58,-131,-290,-302,-224,-152
57,-146,-205,44,131,-175,-58,-131,-290,-302,-230,-152
57,-146,-205,44,131,-175,-58,-131,-290,-302,-230,-152
51,-152,-205,50,125,-175,-58,-137,-290,-308,-230,-152
57,-152,-211,44,131,-181,-58,-137,-290,-308,-230,-152
51,-152,-205,50,125,-175,-58,-137,-290,-314,-230,-152
57,-152,-211,44,131,-181,-52,-137,-284,-308,-224,-152
57,-158,-217,50,137,-187,-52,-137,-284,-308,-224,-152
57,-158,-217,50,137,-187,-58,-137,-284,-314,-230,-158
57,-158,-217,50,137,-187,-58,-137,-290,-314,-230,-158
57,-158,-217,50,137,-187,-58,-137,-284,-308,-230,-158
63,-158,-223,50,143,-187,-58,-137,-284,-308,-230,-158
57,-158,-217,50,137,-187,-58,-137,-284,-314,-236,-164
51,-158,-211,56,131,-181,-58,-137,-284,-314,-236,-164
51,-158,-211,56,131,-181,-58,-143,-284,-308,-236,-170
45,-158,-205,56,125,-181,-64,-143,-284,-314,-242,-170
45,-158,-205,56,125,-181,-64,-149,-278,-314,-242,-164
45,-164,-211,56,125,-187,-58,-149,-278,-314,-236,-158
45,-158,-205,56,125,-181,-58,-149,-278,-320,-236,-158
45,-152,-199,50,119,-175,-58,-155,-278,-314,-230,-158
45,-152,-199,50,119,-175,-64,-155,-278,-320,-230,-152
39,-152,-193,56,113,-169,-64,-155,-278,-314,-230,-152
39,-152,-193,56,113,-169,-70,-155,-272,-308,-230,-152
39,-152,-193,56,113,-169,-70,-161,-272,-308,-230,-158
39,-152,-193,56,113,-169,-70,-161,-272,-308,-230,-158
39,-146,-187,56,113,-163,-70,-167,-272,-308,-230,-158
39,-140,-181,50,107,-157,-76,-167,-272,-308,-236,-158
45,-140,-187,44,113,-163,-76,-161,-272,-302,-236,-158
39,-140,-181,50,107,-157,-70,-161,-272,-302,-236,-158
45,-134,-181,44,113,-157,-70,-161,-272,-308,-236,-152
45,-140,-187,44,113,-163,-64,-161,-266,-308,-236,-158
45,-140,-187,44,113,-163,-64,-161,-266,-308,-236,-164
51,-146,-199,50,125,-169,-64,-161,-266,-314,-230,-164
51,-146,-199,50,125,-169,-64,-161,-266,-308,-230,-164
45,-152,-199,50,119,-175,-64,-161,-266,-308,-224,-164
45,-152,-199,50,119,-175,-64,-161,-266,-302,-224,-170
39,-146,-187,56,113,-163,-58,-161,-272,-302,-224,-170
39,-146,-187,56,113,-163,-58,-161,-272,-302,-224,-170
33,-140,-175,50,101,-157,-64,-167,-272,-296,-230,-164
33,-146,-181,56,107,-163,-64,-167,-278,-302,-230,-164
33,-152,-187,56,107,-169,-64,-167,-278,-296,-230,-164
33,-152,-187,56,107,-169,-64,-167,-278,-296,-230,-164
33,-152,-187,56,107,-169,-64,-167,-278,-296,-230,-158
39,-146,-187,56,113,-163,-64,-167,-278,-290,-230,-158
39,-146,-187,56,113,-163,-64,-167,-284,-290,-230,-158
39,-152,-193,56,113,-169,-64,-167,-284,-296,-230,-152
39,-158,-199,62,119,-175,-64,-161,-284,-302,-236,-158
39,-158,-199,62,119,-175,-64,-161,-278,-302,-236,-158
45,-158,-205,56,125,-181,-58,-161,-272,-302,-230,-158
45,-152,-199,50,119,-175,-58,-161,-272,-302,-230,-158
45,-152,-199,50,119,-175,-58,-161,-272,-302,-236,-158
45,-158,-205,56,125,-181,-64,-161,-272,-296,-230,-158
45,-170,-217,62,131,-193,-64,-161,-272,-296,-230,-158
39,-170,-211,68,125,-187,-64,-161,-272,-290,-230,-158
39,-170,-211,68,125,-187,-64,-161,-278,-290,-230,-158
39,-158,-199,62,119,-175,-64,-167,-278,-290,-230,-164
33,-152,-187,56,107,-169,-64,-167,-284,-290,-230,-164
33,-146,-181,56,107,-163,-64,-167,-284,-296,-230,-164
33,-146,-181,56,107,-163,-70,-167,-278,-302,-236,-164
27,-146,-175,62,101,-157,-70,-173,-284,-296,-236,-164
27,-152,-181,62,101,-163,-70,-173,-284,-296,-236,-164
27,-152,-181,62,101,-163,-70,-173,-278,-296,-236,-164
33,-158,-193,62,113,-175,-70,-167,-284,-302,-236,-164
33,-164,-199,62,113,-181,-64,-167,-278,-302,-236,-164
33,-170,-205,68,119,-187,-64,-167,-278,-302,-230,-170
33,-170,-205,68,119,-187,-64,-167,-272,-302,-230,-164
39,-170,-211,68,125,-187,-58,-167,-272,-296,-224,-164
39,-164,-205,62,119,-181,-58,-167,-266,-296,-224,-164
39,-170,-211,68,125,-187,-58,-161,-260,-296,-218,-158
33,-164,-199,62,113,-181,-58,-161,-260,-290,-218,-158
33,-164,-199,62,113,-181,-64,-161,-260,-290,-218,-158
33,-158,-193,62,113,-175,-64,-161,-260,-284,-218,-158
39,-158,-199,62,119,-175,-64,-161,-260,-278,-224,-158
39,-158,-199,62,119,-175,-64,-167,-260,-278,-224,-158
39,-158,-199,62,119,-175,-64,-161,-266,-284,-224,-164
45,-158,-205,56,125,-181,-64,-167,-272,-284,-224,-158
45,-158,-205,56,125,-181,-58,-167,-266,-284,-224,-164
39,-158,-199,62,119,-175,-58,-167,-266,-290,-230,-164
39,-158,-199,62,119,-175,-58,-167,-266,-290,-230,-164
39,-158,-199,62,119,-175,-58,-161,-260,-290,-230,-158
39,-152,-193,56,113,-169,-64,-161,-260,-290,-230,-158
39,-146,-187,56,113,-163,-64,-161,-260,-284,-230,-158
39,-146,-187,56,113,-163,-70,-161,-260,-284,-224,-158
33,-146,-181,56,107,-163,-76,-161,-266,-284,-230,-158
33,-146,-181,56,107,-163,-70,-161,-260,-290,-230,-152
39,-146,-187,56,113,-163,-70,-161,-260,-290,-230,-152
39,-152,-193,56,113,-169,-64,-155,-254,-284,-230,-146
45,-158,-205,56,125,-181,-64,-155,-254,-290,-230,-140
45,-158,-205,56,125,-181,-64,-155,-248,-290,-236,-140
45,-164,-211,56,125,-187,-64,-149,-248,-284,-230,-140
39,-164,-205,62,119,-181,-64,-149,-248,-284,-230,-140
39,-170,-211,68,125,-187,-64,-143,-248,-278,-230,-140
39,-170,-211,68,125,-187,-70,-143,-248,-278,-230,-140
33,-170,-205,68,119,-187,-70,-143,-254,-278,-230,-146
33,-170,-205,68,119,-187,-64,-143,-254,-278,-224,-146
33,-170,-205,68,119,-187,-64,-143,-254,-272,-224,-146
33,-170,-205,68,119,-187,-64,-149,-254,-272,-224,-152
39,-164,-205,62,119,-181,-64,-155,-254,-278,-224,-158
39,-170,-211,68,125,-187,-64,-155,-254,-272,-224,-158
39,-164,-205,62,119,-181,-64,-155,-248,-278,-230,-158
39,-158,-199,62,119,-175,-64,-155,-248,-278,-230,-158
39,-158,-199,62,119,-175,-70,-155,-248,-278,-230,-158
39,-158,-199,62,119,-175,-70,-161,-248,-278,-230,-152
33,-152,-187,56,107,-169,-70,-155,-248,-278,-230,-152
33,-158,-193,62,113,-175,-70,-155,-248,-272,-236,-152
33,-158,-193,62,113,-175,-70,-155,-254,-272,-236,-152
33,-152,-187,56,107,-169,-70,-155,-254,-278,-236,-152
33,-158,-193,62,113,-175,-70,-149,-260,-272,-236,-152
33,-164,-199,62,113,-181,-70,-149,-260,-272,-236,-152
39,-158,-199,62,119,-175,-70,-149,-254,-266,-236,-152
39,-158,-199,62,119,-175,-70,-149,-254,-266,-230,-152
39,-152,-193,56,113,-169,-64,-155,-248,-266,-230,-152
39,-152,-193,56,113,-169,-64,-155,-248,-266,-230,-158
33,-146,-181,56,107,-163,-64,-155,-248,-266,-230,-152
33,-146,-181,56,107,-163,-58,-155,-248,-272,-230,-152
33,-146,-181,56,107,-163,-58,-155,-248,-272,-224,-152
39,-146,-187,56,113,-163,-58,-155,-248,-278,-230,-158
39,-146,-187,56,113,-163,-58,-149,-248,-272,-230,-158
39,-152,-193,56,113,-169,-58,-149,-248,-272,-224,-152
39,-152,-193,56,113,-169,-58,-149,-242,-266,-224,-152
39,-152,-193,56,113,-169,-58,-149,-242,-266,-224,-146
39,-158,-199,62,119,-175,-64,-149,-242,-266,-218,-146
39,-158,-199,62,119,-175,-64,-149,-242,-266,-218,-146
39,-152,-193,56,113,-169,-64,-149,-242,-266,-218,-146
39,-152,-193,56,113,-169,-64,-149,-236,-266,-218,-140
39,-152,-193,56,113,-169,-58,-149,-236,-266,-218,-140
45,-146,-193,50,119,-169,-58,-155,-230,-266,-224,-140
45,-146,-193,50,119,-169,-52,-149,-236,-260,-224,-140
45,-140,-187,44,113,-163,-52,-149,-236,-260,-224,-140
51,-140,-193,44,119,-163,-58,-149,-236,-260,-224,-140
51,-146,-199,50,125,-169,-52,-149,-230,-254,-218,-134
51,-146,-199,50,125,-169,-58,-149,-230,-254,-218,-134
45,-140,-187,44,113,-163,-58,-149,-230,-254,-218,-134
45,-146,-193,50,119,-169,-58,-149,-236,-260,-224,-140
39,-146,-187,56,113,-163,-58,-149,-230,-260,-218,-140
39,-146,-187,56,113,-163,-52,-149,-230,-266,-224,-140
39,-146,-187,56,113,-163,-52,-149,-230,-266,-224,-146
45,-140,-187,44,113,-163,-52,-143,-236,-266,-224,-152
51,-140,-193,44,119,-163,-52,-143,-236,-260,-224,-158
51,-140,-193,44,119,-163,-52,-143,-236,-260,-230,-158
51,-146,-199,50,125,-169,-58,-149,-242,-260,-230,-158
51,-140,-193,44,119,-163,-58,-149,-236,-254,-224,-152
45,-140,-187,44,113,-163,-58,-149,-236,-254,-230,-152
45,-140,-187,44,113,-163,-64,-149,-242,-254,-230,-146
45,-146,-193,50,119,-169,-64,-149,-236,-260,-230,-146
45,-146,-193,50,119,-169,-64,-155,-236,-260,-230,-146
39,-152,-193,56,113,-169,-58,-149,-230,-254,-224,-146
39,-164,-205,62,119,-181,-52,-149,-230,-254,-224,-146
39,-158,-199,62,119,-175,-52,-149,-230,-254,-224,-146
39,-152,-193,56,113,-169,-58,-155,-230,-254,-224,-152
39,-146,-187,56,113,-163,-64,-155,-236,-254,-230,-152
45,-146,-193,50,119,-169,-64,-155,-236,-254,-230,-158
45,-146,-193,50,119,-169,-64,-149,-230,-254,-224,-152
45,-146,-193,50,119,-169,-64,-149,-230,-254,-224,-152
45,-140,-187,44,113,-163,-64,-149,-224,-260,-230,-152
45,-140,-187,44,113,-163,-64,-155,-218,-260,-230,-152
45,-140,-187,44,113,-163,-64,-155,-218,-254,-230,-146
51,-140,-193,44,119,-163,-64,-155,-218,-254,-230,-146
51,-140,-193,44,119,-163,-70,-155,-224,-254,-230,-146
51,-134,-187,44,119,-157,-70,-155,-224,-254,-230,-146
51,-134,-187,44,119,-157,-76,-149,-224,-248,-224,-140
51,-140,-193,44,119,-163,-70,-149,-224,-242,-224,-140
51,-140,-193,44,119,-163,-70,-143,-218,-242,-224,-140
51,-140,-193,44,119,-163,-70,-143,-218,-242,-224,-140
51,-140,-193,44,119,-163,-64,-143,-218,-242,-224,-140
51,-140,-193,44,119,-163,-64,-143,-218,-242,-224,-140
51,-140,-193,44,119,-163,-64,-149,-218,-242,-224,-146
45,-140,-187,44,113,-163,-64,-149,-218,-242,-236,-146
45,-140,-187,44,113,-163,-64,-143,-218,-242,-236,-146
51,-140,-193,44,119,-163,-70,-137,-218,-242,-230,-146
51,-140,-193,44,119,-163,-70,-137,-212,-236,-230,-152
51,-146,-199,50,125,-169,-70,-137,-212,-236,-230,-152
51,-146,-199,50,125,-169,-70,-137,-212,-236,-230,-158
45,-146,-193,50,119,-169,-70,-137,-218,-236,-230,-158
45,-146,-193,50,119,-169,-64,-137,-212,-236,-230,-158
39,-152,-193,56,113,-169,-70,-137,-212,-242,-230,-158
39,-146,-187,56,113,-163,-70,-137,-218,-242,-230,-158
39,-146,-187,56,113,-163,-76,-137,-218,-242,-224,-152
39,-146,-187,56,113,-163,-76,-131,-212,-242,-224,-146
39,-146,-187,56,113,-163,-76,-131,-212,-236,-218,-140
39,-140,-181,50,107,-157,-76,-131,-212,-230,-218,-140
39,-128,-169,44,101,-145,-70,-131,-212,-230,-218,-140
39,-128,-169,44,101,-145,-70,-131,-212,-230,-224,-140
39,-134,-175,50,107,-151,-64,-131,-212,-230,-224,-140
39,-146,-187,56,113,-163,-64,-131,-212,-230,-224,-140
39,-152,-193,56,113,-169,-64,-131,-212,-230,-218,-134
45,-146,-193,50,119,-169,-64,-131,-212,-230,-224,-134
45,-146,-193,50,119,-169,-64,-131,-212,-230,-224,-134
45,-146,-193,50,119,-169,-64,-131,-218,-236,-224,-134
45,-146,-193,50,119,-169,-70,-131,-218,-230,-224,-134
45,-146,-193,50,119,-169,-70,-131,-218,-230,-224,-134
45,-140,-187,44,113,-163,-64,-125,-218,-230,-224,-134
45,-140,-187,44,113,-163,-64,-125,-218,-224,-218,-134
39,-134,-175,50,107,-151,-64,-125,-218,-224,-218,-134
39,-134,-175,50,107,-151,-64,-131,-218,-224,-218,-134
39,-140,-181,50,107,-157,-64,-131,-218,-224,-212,-134
39,-146,-187,56,113,-163,-58,-125,-212,-224,-212,-134
45,-146,-193,50,119,-169,-58,-125,-212,-224,-212,-134
39,-146,-187,56,113,-163,-58,-119,-212,-224,-212,-134
45,-146,-193,50,119,-169,-58,-119,-206,-218,-218,-128
45,-140,-187,44,113,-163,-64,-119,-206,-218,-218,-128
