,,,,,,,,,,,
2019-09-04 23:15:24,,,,,,,,,,,
,,,,,,,,,,,
I,II,III,aVR,aVL,aVF,V1,V2,V3,V4,V5,V6
-42,2,50,13,-48,26,29,-60,-111,-34,-70,-26
-42,2,50,13,-48,26,29,-60,-111,-34,-70,-26
-42,2,50,13,-48,26,29,-60,-111,-34,-70,-26
-42,2,50,13,-48,26,29,-60,-111,-34,-70,-26
-42,-4,44,13,-42,20,29,-66,-117,-34,-76,-26
-42,-4,44,13,-42,20,29,-72,-117,-34,-76,-26
-42,-4,38,19,-42,14,29,-78,-123,-34,-82,-26
-42,-4,38,19,-42,14,29,-84,-123,-34,-82,-26
-42,-4,38,19,-42,14,29,-78,-123,-34,-76,-32
-42,-4,38,19,-42,14,29,-78,-123,-34,-76,-32
-42,-4,38,19,-42,14,29,-72,-123,-34,-70,-38
-42,-4,38,19,-42,14,29,-72,-123,-34,-70,-38
-42,-4,32,19,-42,8,35,-72,-123,-28,-70,-32
-42,-4,32,19,-42,8,41,-72,-123,-28,-70,-32
-42,-9,26,25,-36,2,47,-72,-123,-22,-70,-26
-42,-9,26,25,-36,2,53,-72,-123,-22,-70,-26
-36,-4,26,19,-36,2,53,-66,-123,-22,-70,-26
-36,-4,32,13,-36,8,53,-66,-123,-22,-70,-26
-30,-4,32,7,-30,14,53,-60,-123,-22,-70,-26
-30,2,38,7,-36,20,53,-60,-123,-22,-70,-26
-30,-4,32,7,-30,14,59,-54,-123,-22,-70,-20
-30,-4,32,7,-30,14,59,-54,-123,-22,-70,-20
-30,-4,26,13,-30,8,65,-48,-123,-22,-70,-14
-30,-4,26,13,-30,8,65,-48,-123,-22,-70,-14
-36,-4,32,13,-36,8,59,-54,-129,-22,-76,-20
-36,-4,32,13,-36,8,59,-54,-129,-22,-76,-26
-42,-4,38,19,-42,14,53,-60,-135,-22,-82,-32
-42,-4,38,19,-42,14,53,-60,-135,-22,-82,-38
-48,-4,44,19,-48,14,59,-54,-129,-16,-76,-32
-48,-4,44,19,-48,14,65,-54,-129,-16,-76,-32
-54,-4,50,25,-54,20,71,-48,-123,-10,-70,-26
-54,-4,50,25,-54,20,77,-48,-123,-10,-70,-26
-54,-4,50,25,-54,20,83,-42,-123,-10,-70,-26
-54,-4,50,25,-54,20,83,-42,-123,-10,-70,-26
-54,-4,50,25,-54,20,89,-36,-123,-10,-70,-26
-54,-4,50,25,-54,20,89,-36,-123,-10,-70,-26
-48,-4,50,19,-48,20,89,-36,-129,-10,-70,-26
-48,2,56,13,-54,26,89,-36,-129,-10,-70,-26
-42,8,56,7,-48,32,89,-36,-135,-10,-70,-26
-42,14,62,7,-54,38,89,-36,-135,-10,-70,-26
-36,14,56,1,-48,32,95,-30,-129,-5,-64,-20
-36,14,56,1,-48,32,101,-24,-129,-5,-64,-20
-30,14,50,1,-42,32,107,-18,-123,-5,-58,-14
-30,14,50,1,-42,32,113,-12,-123,-5,-58,-14
-48,-4,50,19,-48,20,107,-18,-129,-5,-64,-20
-60,-4,50,31,-60,14,107,-18,-129,-5,-64,-26
-78,-21,50,49,-66,8,101,-24,-135,-10,-70,-32
-90,-33,50,61,-72,2,101,-24,-135,-10,-70,-38
-84,-27,50,55,-72,2,107,-24,-135,-10,-70,-32
-84,-27,50,55,-72,2,107,-24,-135,-10,-70,-26
-78,-21,50,49,-66,8,113,-24,-135,-10,-70,-20
-78,-21,50,49,-66,8,113,-24,-135,-10,-70,-14
-66,-15,44,37,-60,8,113,-18,-129,-5,-64,-14
-60,-9,44,31,-54,8,113,-18,-129,-5,-64,-14
-48,-4,38,25,-48,8,113,-12,-123,-5,-58,-14
-42,-4,38,19,-42,14,113,-12,-123,-5,-58,-14
-36,-4,38,13,-36,14,119,-12,-123,-5,-52,-8
-36,2,44,7,-42,20,119,-12,-123,-5,-52,-8
-30,8,44,1,-36,26,125,-12,-123,1,-46,-2
-30,14,50,1,-42,32,125,-12,-123,1,-46,-2
-42,8,56,7,-48,32,125,-12,-123,1,-46,-2
-48,2,56,13,-54,26,125,-12,-123,1,-46,-2
-60,-4,62,25,-60,26,125,-12,-123,1,-46,-2
-66,-4,62,31,-66,26,125,-12,-123,1,-46,-2
-60,-4,56,25,-60,20,125,-12,-129,-5,-46,-2
-60,-4,56,25,-60,20,125,-12,-129,-5,-46,-2
-54,-4,50,25,-54,20,125,-12,-135,-5,-46,-2
-54,-4,50,25,-54,20,125,-12,-135,-5,-46,-2
-54,-4,50,25,-54,20,125,-12,-135,-5,-52,-2
-54,-4,50,25,-54,20,125,-12,-135,-5,-52,-2
-54,-4,50,25,-54,20,125,-12,-135,-5,-58,-2
-54,-4,50,25,-54,20,125,-12,-135,-5,-58,-2
-54,-4,50,25,-54,20,125,-18,-135,-5,-52,3
-54,-4,50,25,-54,20,125,-18,-135,-5,-52,3
-54,-4,50,25,-54,20,125,-24,-135,-5,-46,3
-54,-4,50,25,-54,20,125,-24,-135,-5,-46,3
-54,-4,50,25,-54,20,125,-24,-141,-5,-52,3
-54,-4,50,25,-54,20,125,-24,-141,-5,-52,3
-54,-4,50,25,-54,20,125,-24,-147,-10,-58,3
-54,-4,50,25,-54,20,125,-24,-147,-10,-58,3
-42,-4,44,13,-42,20,131,-24,-141,-5,-52,3
-30,-4,32,7,-30,14,131,-24,-141,-5,-46,3
-18,2,26,1,-24,14,137,-24,-135,-5,-40,9
-6,2,14,1,-12,8,137,-24,-135,1,-34,9
-18,2,26,1,-24,14,131,-30,-141,-5,-40,3
-24,2,32,1,-30,14,131,-30,-147,-5,-46,3
-36,2,44,7,-42,20,125,-36,-153,-16,-52,-8
-42,2,50,13,-48,26,125,-36,-159,-22,-58,-14
-48,-4,38,25,-48,8,131,-36,-159,-22,-58,-8
-54,-15,32,31,-48,2,131,-36,-159,-22,-58,-2
-60,-33,20,43,-42,-4,137,-36,-159,-22,-58,3
-66,-45,14,55,-42,-9,137,-36,-159,-22,-58,3
-54,-27,20,37,-42,-4,137,-36,-159,-22,-58,3
-42,-15,20,25,-36,-4,137,-36,-159,-22,-58,3
-30,-4,26,13,-30,8,137,-36,-159,-22,-58,3
-18,2,26,1,-24,14,137,-36,-159,-22,-58,3
-24,8,38,1,-30,20,143,-36,-165,-22,-58,3
-24,14,44,1,-36,26,143,-36,-165,-22,-58,3
-30,20,56,1,-42,38,149,-36,-171,-22,-58,-2
-30,26,62,1,-48,44,149,-36,-171,-22,-58,-2
-42,2,50,13,-48,26,143,-42,-177,-28,-64,-2
-54,-4,44,25,-54,14,137,-48,-177,-34,-64,-2
-66,-27,32,43,-54,-4,131,-54,-183,-40,-70,-2
-78,-45,26,61,-54,-4,125,-60,-183,-46,-70,-2
-72,-33,32,49,-54,-4,131,-54,-183,-40,-64,-2
-72,-21,44,43,-60,2,137,-54,-183,-40,-64,-2
-66,-9,50,37,-60,14,143,-48,-183,-34,-58,-2
-66,-4,62,31,-66,26,149,-48,-183,-34,-58,-2
-60,-4,50,31,-60,14,149,-48,-183,-34,-52,3
-54,-4,44,25,-54,14,149,-48,-183,-34,-52,3
-48,-9,32,25,-42,2,149,-48,-183,-34,-46,3
-42,-9,26,25,-36,2,149,-48,-183,-34,-46,3
-42,-4,32,19,-42,8,149,-48,-183,-34,-52,3
-42,-4,32,19,-42,8,149,-48,-183,-34,-52,3
-42,-4,38,19,-42,14,149,-48,-183,-34,-58,3
-42,-4,38,19,-42,14,149,-48,-183,-34,-58,3
-48,-4,44,19,-48,14,155,-48,-189,-28,-58,3
-48,-4,44,19,-48,14,155,-48,-189,-28,-58,3
-54,-4,50,25,-54,20,161,-48,-195,-22,-58,3
-54,-4,50,25,-54,20,161,-48,-195,-22,-58,3
-54,-4,44,25,-54,14,161,-54,-195,-28,-64,3
-54,-9,38,31,-48,8,161,-54,-195,-34,-64,3
-54,-15,32,31,-48,2,161,-60,-195,-40,-70,-2
-54,-21,26,37,-42,-4,161,-60,-195,-46,-70,-2
-48,-15,26,31,-42,-4,167,-54,-195,-46,-64,3
-42,-9,26,25,-36,2,167,-54,-195,-46,-64,3
-36,-4,26,19,-36,2,173,-48,-195,-46,-58,3
-30,-4,26,13,-30,8,173,-48,-195,-46,-58,3
-24,-4,26,7,-24,8,173,-48,-189,-46,-64,3
-24,-4,26,7,-24,8,173,-48,-189,-46,-64,3
-18,2,26,1,-24,14,173,-48,-183,-46,-70,9
-18,2,26,1,-24,14,173,-48,-183,-46,-70,9
-18,-4,14,7,-18,2,173,-54,-189,-58,-76,3
-48,-9,32,25,-42,2,173,-60,-201,-58,-82,3
-60,-27,26,43,-48,-4,167,-66,-207,-58,-88,3
-72,-39,26,55,-54,-4,167,-66,-213,-58,-94,3
-60,-21,32,37,-48,-4,173,-60,-201,-58,-88,3
-54,-15,32,31,-48,2,173,-60,-201,-58,-82,3
-42,-4,32,19,-42,8,179,-54,-195,-52,-76,9
-30,-4,26,13,-30,8,179,-48,-195,-46,-70,9
-42,-9,26,25,-36,2,179,-54,-189,-46,-76,3
-36,-4,26,19,-36,2,185,-54,-189,-46,-82,9
-36,-4,32,13,-36,8,209,-42,-177,-28,-70,21
-42,-4,44,13,-42,20,221,-30,-171,-16,-64,39
-36,14,56,1,-48,32,227,-18,-165,-10,-58,45
-24,38,68,1,-48,50,233,-18,-159,-5,-52,45
-12,56,74,-16,-42,62,251,-6,-153,-5,-40,57
-1,74,80,-28,-42,74,263,0,-147,1,-34,63
-18,68,92,-16,-54,80,263,0,-153,-5,-34,57
-24,74,104,-16,-66,86,263,0,-153,-5,-34,57
-24,80,110,-22,-66,92,263,-6,-159,-5,-34,57
-30,74,110,-16,-72,92,257,-6,-153,-5,-34,57
-36,68,110,-10,-72,86,281,5,-147,1,-34,63
-24,80,110,-22,-66,92,293,5,-135,7,-22,69
-30,86,122,-22,-78,104,305,5,-129,13,-22,75
-42,80,128,-10,-84,104,311,11,-123,1,-28,69
-36,86,128,-16,-84,104,305,5,-129,7,-34,63
-24,110,140,-34,-84,122,305,5,-123,7,-22,69
-18,128,152,-46,-84,140,287,5,-129,13,-28,75
-18,146,170,-58,-96,158,287,5,-129,13,-16,87
-6,158,170,-70,-90,164,281,11,-117,37,2,111
-1,176,182,-82,-90,176,275,11,-117,37,8,111
-1,182,182,-88,-90,182,245,5,-111,37,14,123
-1,194,188,-94,-90,194,227,5,-111,37,19,141
-1,206,200,-100,-96,206,227,5,-111,49,19,141
-1,200,200,-94,-96,200,215,5,-117,49,19,141
-1,176,170,-88,-78,176,191,-12,-129,49,14,129
-1,158,152,-76,-72,158,173,-30,-141,37,8,123
11,158,140,-82,-60,152,173,-36,-147,37,2,117
17,158,134,-88,-54,146,167,-36,-153,31,2,117
23,146,116,-82,-42,134,173,-30,-153,31,2,105
29,110,74,-70,-18,92,173,-36,-165,19,-4,87
29,92,56,-58,-6,74,179,-30,-159,25,-10,93
47,110,56,-76,-1,86,185,-24,-159,19,-10,99
41,116,68,-76,-6,92,197,-18,-153,25,-10,105
35,104,62,-70,-6,86,203,-24,-153,25,-22,99
17,80,56,-46,-12,68,209,-24,-159,7,-22,93
17,62,38,-40,-6,50,215,-24,-159,7,-28,87
11,50,32,-28,-6,44,215,-24,-165,1,-34,81
11,38,20,-22,-1,32,221,-36,-177,-5,-40,69
11,20,2,-16,-1,14,227,-36,-189,-5,-52,51
-1,14,8,-4,-1,14,227,-42,-189,-10,-64,39
-18,8,32,1,-24,20,227,-48,-201,-16,-76,27
-30,-9,14,19,-24,-4,227,-60,-213,-28,-88,9
-42,-15,20,25,-36,-4,227,-66,-213,-28,-88,15
-42,-21,14,31,-30,-4,227,-72,-225,-34,-94,9
-42,-33,2,37,-24,-9,239,-72,-225,-34,-100,15
-54,-39,8,43,-36,-9,239,-72,-225,-34,-100,9
-54,-39,8,43,-36,-9,245,-72,-219,-46,-100,9
-54,-51,-4,49,-30,-21,251,-72,-219,-46,-100,3
-54,-51,-4,49,-30,-21,269,-66,-213,-52,-100,3
-60,-51,2,55,-36,-21,275,-72,-231,-58,-106,3
-72,-69,-4,67,-36,-33,281,-72,-231,-58,-106,-2
-72,-75,-4,73,-36,-39,287,-66,-225,-58,-106,-2
-72,-81,-4,73,-30,-45,317,-60,-225,-70,-112,3
-72,-75,-4,73,-36,-39,341,-54,-225,-58,-112,3
-60,-63,-4,61,-30,-33,395,-42,-225,-46,-112,3
-72,-51,14,61,-48,-15,437,-24,-219,-58,-112,3
-96,-57,32,73,-66,-9,473,-12,-213,-52,-112,3
-96,-63,26,79,-66,-15,479,0,-207,-40,-106,3
-90,-39,44,61,-72,-4,503,23,-183,-40,-94,3
-72,-9,56,37,-66,14,491,41,-171,-28,-88,3
-42,-9,26,25,-36,2,401,47,-159,-16,-64,27
-6,-4,8,1,-6,2,287,59,-135,1,-46,33
17,32,8,-22,-1,20,209,71,-111,19,-28,51
29,20,-4,-22,17,2,137,71,-105,37,-16,63
35,8,-21,-22,29,-4,83,71,-99,37,-10,69
65,8,-51,-34,59,-15,17,71,-87,61,-4,75
89,20,-63,-52,77,-15,-60,59,-75,61,8,75
107,2,-99,-52,101,-39,-150,41,-75,61,8,93
125,-4,-129,-58,125,-63,-222,23,-63,73,19,81
149,2,-141,-76,143,-63,-264,17,-63,91,25,93
173,-4,-177,-82,173,-87,-282,11,-51,97,43,111
179,-4,-183,-82,179,-87,-288,11,-51,109,55,123
185,-4,-189,-88,185,-93,-306,0,-45,115,61,141
179,-21,-207,-70,191,-111,-366,-66,-57,121,67,147
197,-33,-237,-76,215,-135,-420,-126,-69,127,73,153
233,-4,-237,-112,233,-117,-450,-132,-45,163,109,183
275,26,-243,-154,257,-105,-480,-108,9,217,157,237
299,62,-237,-184,263,-81,-504,-90,32,259,211,261
329,104,-225,-220,275,-51,-522,-114,56,283,241,303
353,140,-213,-244,281,-27,-558,-144,50,283,259,327
341,110,-231,-226,281,-51,-600,-198,38,283,253,327
323,80,-243,-202,281,-75,-660,-264,26,277,253,321
353,98,-249,-226,299,-69,-738,-390,-9,277,259,351
437,170,-261,-298,347,-39,-810,-492,-33,295,289,387
473,230,-243,-346,353,-4,-906,-594,-63,313,313,435
479,248,-225,-364,347,8,-1062,-768,-141,283,343,483
509,260,-243,-388,377,2,-1254,-996,-225,271,367,525
623,284,-333,-454,479,-15,-1398,-1170,-261,301,451,609
725,314,-405,-514,563,-39,-1476,-1224,-255,343,523,681
767,326,-441,-544,605,-51,-1506,-1206,-213,415,619,747
839,356,-483,-598,659,-57,-1542,-1194,-189,487,721,843
923,398,-519,-658,725,-57,-1584,-1230,-201,547,829,951
959,446,-507,-700,731,-27,-1614,-1266,-219,577,913,1053
1007,524,-483,-766,743,20,-1596,-1218,-183,655,1021,1167
1013,614,-399,-814,707,104,-1524,-1098,-51,805,1195,1311
965,710,-249,-832,605,230,-1392,-900,110,997,1357,1467
935,800,-129,-868,527,332,-1212,-684,248,1093,1453,1533
893,734,-153,-814,521,290,-1026,-516,218,991,1315,1401
773,506,-261,-640,515,122,-840,-402,92,763,1039,1125
617,374,-243,-490,431,62,-648,-276,21,577,835,909
509,332,-177,-424,341,74,-450,-216,-69,439,655,777
407,242,-159,-322,281,38,-294,-204,-201,253,439,621
287,158,-129,-226,209,8,-162,-210,-333,73,229,465
185,98,-81,-142,131,2,-42,-174,-387,-22,79,321
113,50,-57,-82,83,-4,59,-84,-363,-46,19,231
65,26,-33,-46,47,-4,155,-12,-315,-28,-16,153
23,-4,-27,-4,23,-9,215,17,-309,-28,-46,93
-1,-45,-51,13,23,-45,263,35,-291,-34,-64,51
-18,-69,-45,43,5,-57,299,59,-255,-22,-52,51
-42,-63,-15,49,-12,-39,317,71,-255,-22,-58,57
-54,-63,-4,55,-24,-33,353,89,-237,-16,-58,57
-66,-63,-4,61,-36,-27,383,113,-225,-16,-64,51
-72,-75,-4,73,-36,-39,401,113,-219,-22,-76,39
-66,-69,-4,67,-30,-33,419,131,-213,-28,-82,27
-60,-81,-15,67,-18,-51,437,131,-213,-40,-94,27
-54,-75,-15,61,-18,-45,455,131,-213,-52,-100,3
-48,-75,-21,61,-12,-51,461,125,-219,-58,-100,3
-42,-69,-21,55,-6,-45,461,119,-219,-64,-112,3
-42,-69,-21,55,-6,-45,467,119,-219,-58,-118,3
-60,-63,-4,61,-30,-33,473,125,-213,-52,-124,3
-60,-63,-4,61,-30,-33,473,125,-213,-46,-130,3
-78,-69,2,73,-42,-27,473,119,-207,-46,-124,3
-84,-81,-4,79,-42,-39,503,131,-207,-46,-124,3
-90,-93,-4,91,-42,-45,515,137,-207,-46,-118,3
-96,-105,-4,97,-42,-57,515,137,-201,-46,-118,3
-96,-99,-4,97,-48,-51,509,131,-207,-52,-124,-14
-84,-99,-9,91,-36,-57,497,131,-213,-58,-130,-20
-78,-87,-4,79,-36,-45,491,119,-213,-70,-142,-32
-78,-63,8,67,-48,-21,485,119,-219,-70,-148,-38
-84,-63,14,73,-54,-21,491,125,-213,-64,-142,-26
-90,-69,14,79,-54,-21,503,125,-207,-58,-136,-14
-90,-69,14,79,-54,-21,527,143,-189,-46,-124,-2
-78,-63,8,67,-48,-21,551,149,-177,-34,-118,3
-72,-45,20,55,-48,-9,551,161,-183,-34,-118,3
-84,-57,20,67,-54,-15,551,161,-183,-40,-118,3
-78,-63,8,67,-48,-21,551,167,-183,-46,-118,3
-66,-63,-4,61,-36,-27,557,167,-183,-46,-118,3
-66,-69,-4,67,-30,-33,551,161,-189,-40,-124,3
-84,-75,2,79,-48,-33,545,161,-189,-40,-124,3
-96,-81,8,85,-54,-33,539,155,-189,-40,-118,-8
-84,-81,-4,79,-42,-39,539,161,-183,-40,-112,-8
-96,-69,20,79,-60,-21,551,173,-183,-34,-106,3
-96,-69,20,79,-60,-21,557,179,-177,-34,-106,3
-108,-75,26,91,-72,-21,569,179,-171,-28,-94,3
-114,-81,26,97,-72,-21,575,185,-165,-28,-88,3
-96,-81,8,85,-54,-33,575,191,-165,-28,-94,3
-90,-81,2,85,-48,-33,575,197,-165,-28,-94,3
-96,-99,-4,97,-48,-51,581,197,-165,-40,-100,3
-90,-111,-15,97,-36,-63,581,197,-159,-40,-94,3
-66,-87,-15,73,-24,-51,587,203,-153,-28,-94,3
-66,-69,-4,67,-30,-33,599,209,-147,-22,-100,3
-66,-51,8,55,-42,-15,611,215,-141,-22,-100,3
-78,-45,26,61,-54,-4,611,227,-135,-22,-100,3
-84,-51,26,67,-60,-9,605,233,-141,-16,-100,3
-96,-57,32,73,-66,-9,611,245,-141,-10,-94,3
-102,-57,38,79,-72,-4,611,245,-147,-5,-94,3
-102,-51,44,73,-78,-4,617,245,-141,-5,-88,3
-96,-63,26,79,-66,-15,623,245,-129,-5,-94,3
-102,-75,20,85,-66,-21,617,251,-129,-5,-94,3
-120,-99,14,109,-72,-39,611,257,-123,-16,-100,-2
-114,-93,14,103,-66,-33,611,263,-117,-22,-94,3
-90,-75,8,79,-54,-27,623,275,-99,-10,-88,3
-96,-63,26,79,-66,-15,629,287,-87,1,-70,9
-84,-51,26,67,-60,-9,647,311,-81,13,-64,21
-78,-27,44,49,-66,2,659,323,-69,19,-52,33
-84,-39,38,61,-66,-4,653,317,-75,13,-58,27
-84,-39,38,61,-66,-4,665,341,-69,25,-58,15
-72,-33,32,49,-54,-4,659,335,-69,19,-64,3
-72,-21,44,43,-60,2,647,341,-63,19,-70,3
-78,-27,44,49,-66,2,653,347,-57,19,-70,9
-78,-27,44,49,-66,2,671,359,-45,31,-64,21
-90,-33,50,61,-72,2,689,365,-27,37,-58,21
-102,-33,62,67,-84,8,695,383,-21,43,-52,21
-84,-21,56,49,-72,8,695,395,-15,49,-34,33
-84,-15,62,49,-78,14,701,407,-3,55,-28,39
-78,-15,56,43,-72,14,695,413,3,61,-22,45
-84,-15,62,49,-78,14,695,413,9,61,-22,45
-84,-15,62,49,-78,14,695,419,9,55,-22,39
-72,-4,62,37,-72,20,695,437,21,73,-10,51
-66,-4,56,31,-66,20,707,443,26,73,-16,51
-66,-4,56,31,-66,20,719,461,26,79,-10,57
-72,-4,68,31,-72,26,725,467,32,91,2,69
-78,-4,68,37,-78,26,731,479,38,97,8,69
-84,-4,74,43,-84,26,725,479,50,109,19,81
-78,-9,62,43,-72,20,731,491,56,127,19,87
-72,-4,62,37,-72,20,737,509,74,127,19,93
-66,2,74,25,-72,38,731,509,80,133,31,99
-60,26,92,7,-78,56,737,521,92,139,31,99
-54,32,92,1,-72,62,743,527,104,145,37,99
-72,20,98,19,-84,56,737,533,98,145,31,93
-84,8,98,31,-90,50,743,533,104,145,25,87
-102,14,122,37,-114,68,749,533,116,145,25,81
-114,8,128,43,-120,68,749,539,110,157,31,87
-102,8,116,37,-108,62,743,551,116,169,49,105
-90,14,110,31,-102,62,743,557,128,181,55,105
-84,14,104,25,-96,56,737,575,146,199,67,117
-78,20,104,19,-90,62,731,581,152,205,73,123
-60,38,104,1,-84,68,737,587,158,217,85,135
-48,74,128,-4,-90,98,737,593,170,223,91,141
-42,92,140,-16,-90,116,749,599,182,229,103,147
-30,116,152,-34,-90,134,755,599,200,235,115,147
-24,122,152,-40,-90,134,743,599,206,235,115,159
-24,134,164,-46,-96,146,743,599,212,241,133,177
-30,128,164,-40,-96,146,725,599,212,247,139,189
-36,134,176,-40,-108,152,719,599,212,253,139,195
-12,140,158,-58,-84,146,719,599,212,265,157,201
-1,146,152,-64,-78,146,719,599,236,271,169,213
-1,146,146,-70,-72,146,719,599,236,277,169,213
-1,152,158,-70,-78,152,707,575,236,283,175,207
-1,158,158,-76,-78,158,707,569,242,295,181,225
17,182,158,-100,-66,170,701,569,242,301,193,231
23,200,170,-112,-66,188,677,569,248,307,199,237
23,188,158,-106,-60,176,659,557,242,307,199,243
11,182,164,-94,-72,176,641,545,242,307,205,243
17,188,164,-100,-66,176,629,545,242,319,223,267
11,182,164,-94,-72,176,611,527,242,319,223,267
5,188,176,-94,-78,182,605,521,254,319,235,267
11,182,164,-94,-72,176,581,515,254,325,247,273
11,182,164,-94,-72,176,563,497,248,337,253,279
17,182,158,-100,-66,170,563,491,248,337,259,291
11,176,158,-94,-66,170,557,491,248,337,259,297
23,182,152,-100,-60,170,539,485,254,343,259,303
35,188,146,-112,-48,170,521,473,260,349,265,309
59,194,128,-124,-30,164,503,467,260,349,271,315
77,200,116,-136,-12,158,497,455,260,349,277,321
71,194,116,-130,-18,158,491,437,248,343,271,321
65,188,116,-124,-18,152,479,419,230,331,265,321
41,176,128,-106,-36,152,467,389,200,319,253,309
35,170,128,-100,-42,152,443,371,182,307,241,291
29,158,122,-94,-42,140,425,347,158,277,217,273
23,152,122,-88,-42,140,419,329,140,253,205,261
17,128,104,-70,-36,116,407,305,122,235,181,243
17,122,98,-70,-36,110,389,281,110,217,157,231
17,116,92,-64,-30,104,383,263,92,205,145,231
11,98,80,-52,-30,92,377,245,62,181,127,213
11,92,74,-52,-24,86,371,233,44,169,109,195
11,92,74,-52,-24,86,359,197,26,139,91,177
17,80,56,-46,-12,68,341,167,9,127,73,171
-1,56,56,-22,-24,56,341,149,-21,109,43,147
-1,44,38,-22,-12,44,335,137,-39,91,31,141
-1,44,38,-22,-12,44,329,125,-45,67,25,141
5,38,26,-22,-6,32,323,113,-63,73,19,135
5,38,26,-22,-6,32,323,107,-69,61,14,129
-1,32,26,-16,-6,32,329,95,-81,61,8,117
-1,26,20,-10,-6,26,329,77,-81,43,-4,105
-6,14,26,1,-18,20,317,65,-105,25,-16,93
-12,8,26,1,-18,14,305,53,-117,7,-28,81
-18,-4,14,7,-18,2,287,41,-135,-5,-28,81
-24,-4,14,13,-24,-4,287,29,-147,-5,-34,75
-18,-9,2,13,-12,-4,287,29,-141,-5,-40,75
-6,-9,-4,7,-1,-4,293,23,-141,-5,-46,75
-1,-15,-9,7,-1,-15,293,23,-135,-5,-52,69
-6,-15,-4,7,-1,-9,287,23,-147,-5,-58,69
-18,-33,-9,25,-1,-21,281,5,-153,-16,-64,63
-24,-21,-4,19,-12,-9,281,5,-153,-22,-64,57
-36,-9,20,19,-30,-4,275,5,-159,-34,-70,45
-48,-27,14,37,-36,-4,263,0,-165,-46,-70,33
-48,-39,2,43,-30,-15,263,5,-165,-40,-64,33
-54,-45,2,49,-30,-15,263,0,-165,-46,-76,33
-48,-45,-4,43,-24,-21,257,5,-177,-40,-70,33
-48,-57,-4,49,-18,-33,257,5,-177,-46,-64,33
-48,-57,-4,49,-18,-33,245,5,-171,-40,-64,33
-42,-51,-4,43,-18,-27,233,5,-165,-40,-64,33
-24,-45,-15,31,-1,-33,245,5,-153,-34,-64,33
-6,-27,-15,13,-1,-21,257,5,-147,-28,-64,45
-6,-15,-4,7,-1,-9,251,5,-153,-34,-70,39
-12,-15,-4,13,-6,-9,251,5,-159,-40,-70,27
-18,-33,-9,25,-1,-21,239,0,-177,-52,-76,21
-30,-33,-4,31,-12,-15,233,0,-189,-58,-76,15
-36,-39,-4,37,-18,-21,233,-6,-189,-64,-82,15
-36,-39,-4,37,-18,-21,233,-6,-189,-64,-88,15
-48,-57,-4,49,-18,-33,227,-12,-183,-76,-94,3
-48,-45,-4,43,-24,-21,227,-12,-177,-76,-106,3
-42,-45,-4,43,-18,-21,221,-12,-171,-70,-100,3
-42,-45,-4,43,-18,-21,221,-12,-171,-70,-100,9
-36,-45,-4,37,-12,-27,227,-12,-171,-58,-94,9
-42,-51,-4,43,-18,-27,233,-12,-171,-58,-94,9
-48,-51,-4,49,-24,-27,227,-18,-177,-64,-94,9
-42,-51,-4,43,-18,-27,227,-12,-183,-64,-94,9
-30,-39,-4,31,-12,-21,227,-12,-183,-70,-88,3
-48,-39,2,43,-30,-15,227,-12,-183,-70,-88,3
-60,-57,-4,55,-30,-27,215,-12,-183,-64,-88,3
-60,-63,-4,61,-30,-33,209,-24,-183,-70,-94,3
-60,-69,-4,61,-24,-39,209,-18,-183,-70,-94,3
-60,-69,-4,61,-24,-39,209,-18,-177,-70,-94,3
-42,-57,-9,49,-12,-33,221,0,-165,-64,-88,9
-30,-45,-9,37,-6,-27,221,0,-165,-64,-82,15
-6,-33,-21,19,-1,-27,221,0,-159,-52,-76,15
-6,-33,-21,19,-1,-27,221,0,-159,-52,-64,21
-12,-33,-15,19,-1,-27,221,0,-159,-52,-64,27
-12,-33,-15,19,-1,-27,221,0,-159,-46,-70,27
-24,-33,-4,25,-6,-21,221,-6,-159,-46,-70,9
-24,-33,-4,25,-6,-21,221,0,-159,-52,-70,9
-24,-39,-9,31,-6,-27,215,-6,-165,-58,-76,3
-36,-39,-4,37,-18,-21,215,-12,-171,-64,-76,3
-36,-39,-4,37,-18,-21,209,-18,-177,-70,-88,-2
-36,-45,-4,37,-12,-27,203,-6,-183,-64,-94,3
-36,-39,-4,37,-18,-21,209,-6,-177,-64,-94,3
-30,-33,-4,31,-12,-15,209,0,-171,-64,-88,3
-36,-27,2,31,-24,-9,215,5,-153,-58,-88,-2
-36,-39,-4,37,-18,-21,227,5,-153,-58,-82,-2
-36,-21,8,25,-24,-4,215,0,-153,-64,-88,-8
-36,-21,8,25,-24,-4,209,0,-153,-64,-88,-8
-48,-27,14,37,-36,-4,197,0,-153,-70,-88,-2
-48,-27,14,37,-36,-4,185,-18,-159,-70,-88,-2
-54,-33,14,43,-36,-4,179,-18,-165,-76,-94,-14
-54,-57,-4,55,-24,-27,179,-18,-165,-76,-94,-14
-60,-63,-4,61,-30,-33,173,-6,-177,-82,-94,-14
-60,-63,-4,61,-30,-33,173,-6,-177,-82,-100,-14
-60,-57,-4,55,-30,-27,179,-12,-177,-82,-100,-20
-60,-57,-4,55,-30,-27,179,-6,-177,-82,-100,-20
-48,-45,-4,43,-24,-21,185,-6,-171,-76,-100,-14
-42,-39,-4,37,-24,-15,197,-6,-165,-76,-100,-14
-36,-27,2,31,-24,-9,191,0,-165,-76,-94,-14
-36,-21,8,25,-24,-4,185,0,-159,-76,-94,-14
-30,-15,8,19,-24,-4,179,5,-159,-70,-82,-20
-42,-15,20,25,-36,-4,179,-6,-159,-70,-82,-20
-48,-39,2,43,-30,-15,167,-6,-153,-76,-88,-26
-54,-45,2,49,-30,-15,167,-6,-159,-76,-94,-38
-54,-51,-4,49,-30,-21,161,0,-153,-82,-100,-26
-48,-45,-4,43,-24,-21,161,0,-153,-82,-100,-14
-36,-39,-4,37,-18,-21,161,0,-147,-82,-94,-20
-36,-39,-4,37,-18,-21,161,0,-147,-82,-94,-20
-36,-33,-4,31,-18,-15,161,0,-141,-88,-94,-32
-36,-33,-4,31,-18,-15,155,-12,-141,-88,-94,-32
-42,-39,-4,37,-24,-15,161,-6,-141,-82,-94,-32
-42,-45,-4,43,-18,-21,161,-6,-141,-82,-94,-32
-30,-45,-9,37,-6,-27,161,0,-141,-70,-94,-20
-30,-45,-9,37,-6,-27,155,5,-141,-64,-88,-20
-30,-39,-4,31,-12,-21,155,5,-135,-70,-82,-20
-30,-39,-4,31,-12,-21,155,5,-135,-70,-82,-20
-30,-45,-9,37,-6,-27,155,5,-135,-76,-76,-20
-42,-45,-4,43,-18,-21,149,0,-141,-82,-82,-20
-36,-33,-4,31,-18,-15,149,0,-141,-82,-88,-26
-30,-33,-4,31,-12,-15,149,0,-141,-88,-82,-26
-24,-39,-9,31,-6,-27,149,-6,-147,-88,-88,-32
-30,-39,-4,31,-12,-21,143,-6,-147,-88,-94,-32
-24,-27,-4,25,-12,-15,137,-6,-147,-88,-88,-26
-12,-27,-9,19,-1,-21,137,-6,-147,-88,-88,-26
-6,-15,-4,7,-1,-9,143,-6,-147,-88,-82,-20
-1,-4,-4,1,-1,-4,143,-6,-147,-88,-82,-14
-6,-15,-4,7,-1,-9,137,-6,-147,-88,-88,-14
-18,-33,-9,25,-1,-21,137,-6,-153,-88,-88,-14
-30,-51,-15,37,-6,-33,125,-12,-159,-100,-94,-20
-54,-63,-4,55,-24,-33,119,-18,-159,-100,-94,-32
-54,-57,-4,55,-24,-27,113,-30,-159,-94,-94,-38
-54,-57,-4,55,-24,-27,113,-30,-159,-94,-100,-44
-54,-57,-4,55,-24,-27,101,-36,-171,-100,-106,-50
-54,-57,-4,55,-24,-27,101,-36,-171,-100,-106,-56
-48,-51,-4,49,-24,-27,107,-36,-159,-94,-106,-50
-42,-51,-4,43,-18,-27,107,-36,-153,-94,-106,-44
-36,-45,-4,37,-12,-27,95,-36,-147,-88,-106,-38
-30,-45,-9,37,-6,-27,95,-36,-147,-88,-100,-44
-36,-57,-15,43,-6,-39,95,-42,-153,-88,-100,-44
-36,-39,-4,37,-18,-21,89,-42,-153,-88,-94,-44
-36,-27,2,31,-24,-9,89,-54,-165,-88,-94,-44
-36,-45,-4,37,-12,-27,89,-54,-165,-88,-94,-44
-42,-51,-4,43,-18,-27,89,-48,-159,-94,-106,-50
-42,-51,-4,43,-18,-27,89,-48,-159,-94,-106,-56
-48,-57,-4,49,-18,-33,89,-48,-153,-100,-118,-56
-48,-57,-4,49,-18,-33,89,-48,-153,-106,-118,-56
-48,-63,-9,55,-18,-39,89,-42,-159,-112,-118,-56
-48,-63,-9,55,-18,-39,83,-42,-159,-106,-118,-56
-60,-75,-9,67,-24,-45,71,-42,-171,-112,-118,-68
-66,-81,-9,73,-24,-45,65,-54,-177,-124,-118,-74
-54,-63,-4,55,-24,-33,65,-54,-171,-124,-118,-68
-42,-45,-4,43,-18,-21,71,-54,-171,-124,-118,-62
-30,-27,-4,25,-18,-9,71,-66,-165,-106,-112,-62
-30,-27,-4,25,-18,-9,65,-66,-165,-106,-112,-62
-12,-15,-4,13,-6,-9,65,-60,-159,-100,-100,-56
-1,-4,-4,1,-1,-4,71,-60,-159,-100,-100,-50
-6,-21,-9,13,-1,-15,71,-60,-159,-100,-94,-44
-18,-21,-4,19,-6,-9,59,-60,-165,-100,-100,-56
-18,-27,-4,19,-6,-15,59,-66,-165,-106,-112,-50
-18,-33,-9,25,-1,-21,59,-60,-165,-106,-112,-50
-30,-45,-9,37,-6,-27,59,-66,-165,-112,-118,-56
-36,-63,-21,49,-6,-45,59,-72,-165,-112,-118,-56
-42,-63,-15,49,-12,-39,59,-78,-171,-118,-118,-62
-42,-57,-9,49,-12,-33,59,-78,-171,-118,-118,-62
-48,-63,-9,55,-18,-39,41,-84,-177,-118,-118,-68
-54,-69,-9,61,-18,-39,35,-84,-177,-118,-118,-62
-42,-63,-15,49,-12,-39,41,-78,-171,-112,-118,-56
-36,-69,-27,49,-1,-51,41,-84,-171,-112,-112,-68
-42,-75,-27,55,-6,-51,47,-78,-165,-106,-106,-62
-36,-69,-27,49,-1,-51,53,-72,-165,-106,-100,-50
-30,-15,8,19,-24,-4,29,-90,-183,-130,-124,-74
-30,-33,-4,31,-12,-15,35,-90,-183,-136,-124,-86
-18,-45,-21,31,-1,-33,41,-84,-171,-130,-118,-74
-24,-51,-21,37,-1,-39,35,-90,-171,-130,-124,-80
-30,-51,-15,37,-6,-33,35,-90,-171,-130,-124,-80
-36,-57,-15,43,-6,-39,29,-96,-171,-130,-130,-86
-42,-57,-9,49,-12,-33,29,-96,-171,-130,-130,-86
-24,-51,-21,37,-1,-39,29,-90,-171,-130,-124,-86
-42,-51,-4,43,-18,-27,29,-96,-177,-130,-124,-80
-36,-51,-9,43,-12,-33,23,-90,-177,-118,-118,-74
-36,-51,-9,43,-12,-33,23,-90,-177,-118,-118,-68
-42,-51,-4,43,-18,-27,17,-90,-165,-124,-118,-74
-42,-51,-4,43,-18,-27,17,-90,-165,-124,-118,-74
-48,-57,-4,49,-18,-33,11,-90,-159,-124,-118,-74
-42,-57,-9,49,-12,-33,11,-84,-159,-118,-118,-74
-36,-51,-9,43,-12,-33,11,-84,-153,-112,-112,-68
-18,-39,-15,25,-1,-27,17,-84,-153,-112,-112,-62
-1,-15,-9,7,-1,-15,41,-66,-141,-88,-88,-38
-1,-4,-4,1,-1,-4,53,-54,-135,-76,-76,-20
-6,-4,2,1,-6,-4,59,-54,-129,-82,-82,-26
-6,2,14,1,-12,8,59,-54,-123,-82,-76,-32
-12,8,26,1,-18,14,71,-54,-117,-82,-76,-32
-12,14,32,1,-24,20,77,-48,-111,-82,-70,-32
-30,14,50,1,-42,32,77,-48,-117,-82,-70,-38
-30,26,62,1,-48,44,77,-48,-117,-82,-70,-44
-30,38,74,1,-54,56,77,-54,-123,-76,-70,-44
-30,38,74,1,-54,56,71,-54,-117,-76,-70,-50
-24,20,50,1,-36,32,77,-48,-117,-76,-70,-44
-12,32,50,-4,-30,38,83,-48,-111,-70,-58,-32
-6,26,38,-4,-24,32,77,-48,-111,-70,-58,-26
-18,20,44,1,-30,32,77,-48,-111,-82,-64,-26
-18,26,50,1,-36,38,77,-42,-105,-70,-58,-20
-6,56,68,-16,-36,62,77,-42,-93,-64,-46,-14
-6,74,86,-28,-48,80,65,-36,-87,-52,-40,3
-6,98,110,-40,-60,104,65,-30,-81,-46,-28,3
-6,110,122,-46,-66,116,53,-30,-75,-28,-16,15
-1,128,134,-58,-66,128,47,-30,-75,-28,-10,15
-6,134,146,-58,-78,140,11,-42,-75,-34,-10,15
-1,146,152,-64,-78,146,-7,-42,-75,-34,2,33
-1,164,158,-82,-72,164,-7,-36,-63,-22,8,33
5,164,152,-82,-66,158,-13,-36,-63,-22,8,33
23,146,116,-82,-42,134,-24,-54,-63,-22,2,21
35,134,92,-82,-24,116,-42,-66,-69,-34,-4,15
35,122,80,-76,-18,104,-54,-84,-87,-40,-16,9
29,122,86,-76,-24,104,-60,-84,-93,-46,-16,9
23,98,68,-58,-18,86,-66,-90,-105,-52,-22,3
17,62,38,-40,-6,50,-66,-96,-117,-64,-28,-8
29,38,2,-34,5,20,-72,-96,-117,-70,-34,-8
47,50,-4,-46,17,26,-72,-90,-117,-76,-34,-8
53,50,-4,-52,23,20,-72,-90,-117,-82,-34,-8
47,32,-9,-40,29,8,-72,-96,-117,-82,-46,-20
17,8,-4,-10,11,-4,-66,-102,-123,-94,-52,-26
11,-4,-9,-4,11,-4,-60,-102,-123,-94,-58,-32
-1,-4,-4,1,-1,-4,-60,-108,-129,-94,-70,-38
-1,-9,-4,1,-1,-9,-54,-120,-141,-100,-76,-50
-1,-39,-33,19,5,-39,-54,-114,-147,-106,-88,-68
-12,-51,-33,31,-1,-45,-54,-120,-147,-118,-100,-80
-42,-69,-21,55,-6,-45,-60,-120,-153,-124,-112,-92
-54,-105,-45,79,-1,-75,-60,-132,-171,-136,-124,-110
-54,-93,-33,73,-6,-63,-60,-144,-165,-142,-124,-110
-48,-93,-39,67,-1,-69,-60,-150,-177,-148,-130,-116
-36,-87,-45,61,-1,-69,-54,-156,-171,-154,-136,-116
-42,-87,-39,61,-1,-63,-54,-156,-171,-154,-136,-122
-48,-93,-39,67,-1,-69,-60,-162,-177,-160,-142,-128
-54,-105,-45,79,-1,-75,-54,-162,-177,-160,-142,-134
-60,-111,-45,85,-6,-81,-48,-162,-183,-160,-148,-140
-72,-111,-33,91,-18,-75,-42,-168,-201,-166,-154,-146
-72,-117,-39,91,-12,-81,-36,-162,-195,-172,-154,-152
-66,-117,-45,91,-6,-81,-30,-156,-189,-172,-154,-152
-54,-111,-51,79,-1,-81,-13,-144,-183,-190,-160,-140
-48,-99,-45,73,-1,-75,11,-138,-183,-178,-160,-140
-72,-99,-21,85,-24,-63,65,-126,-183,-178,-148,-140
-72,-99,-21,85,-24,-63,107,-120,-189,-178,-148,-128
-84,-105,-15,91,-30,-63,131,-108,-189,-172,-160,-140
-96,-99,-4,97,-48,-51,155,-72,-159,-160,-154,-128
-66,-75,-4,67,-30,-39,179,-36,-135,-136,-130,-122
-60,-57,-4,55,-30,-27,143,-30,-123,-124,-136,-122
-42,-45,-4,43,-18,-21,35,-24,-111,-112,-124,-116
5,-15,-27,1,11,-21,-66,-12,-75,-94,-94,-86
17,-15,-39,1,23,-27,-174,-12,-63,-76,-76,-92
-1,-15,-15,1,-1,-15,-264,-24,-69,-82,-76,-92
23,-15,-45,1,29,-27,-318,-24,-51,-70,-58,-86
77,-15,-99,-22,83,-57,-360,-12,-27,-46,-40,-68
113,-27,-147,-34,125,-87,-438,-12,-15,-22,-28,-56
143,-4,-147,-64,143,-69,-522,-18,-15,-22,-28,-62
173,-4,-177,-82,173,-87,-570,-24,-3,-5,-10,-50
197,-9,-213,-88,203,-111,-606,-42,21,7,14,-26
197,-9,-213,-88,203,-111,-636,-60,21,13,19,-20
155,-45,-207,-46,179,-123,-678,-84,9,1,19,-32
113,-93,-213,-4,161,-153,-720,-132,-9,-5,19,-38
143,-93,-243,-16,191,-165,-762,-198,-9,13,31,-8
197,-57,-255,-64,227,-159,-804,-240,-9,31,49,9
221,-21,-243,-94,233,-135,-822,-258,3,55,73,27
233,-9,-243,-106,239,-129,-840,-258,26,85,97,57
239,2,-237,-124,239,-111,-858,-240,56,109,127,75
269,20,-243,-148,257,-105,-840,-234,80,145,145,93
269,20,-243,-148,257,-105,-840,-234,86,145,139,93
245,-4,-249,-118,245,-123,-858,-276,74,133,133,81
251,-15,-273,-112,257,-147,-942,-360,50,127,145,87
269,2,-261,-136,263,-123,-1038,-504,26,115,163,117
329,74,-249,-202,287,-81,-1164,-672,-21,133,187,177
413,134,-273,-268,341,-63,-1314,-792,-39,163,259,243
485,158,-327,-322,407,-81,-1464,-924,-45,205,331,315
545,194,-351,-370,449,-75,-1608,-1068,-75,247,415,411
611,206,-405,-406,503,-93,-1746,-1212,-111,301,505,513
701,236,-465,-466,581,-111,-1842,-1284,-117,355,595,609
779,290,-489,-532,635,-93,-1872,-1272,-63,439,715,705
839,320,-513,-580,677,-93,-1932,-1296,-45,499,811,795
887,326,-555,-604,725,-111,-2028,-1362,-69,547,925,891
923,410,-507,-664,719,-45,-2058,-1374,-45,637,1063,1017
905,548,-351,-730,629,98,-1992,-1266,32,769,1237,1191
851,710,-141,-778,491,278,-1854,-1074,200,949,1405,1347
809,776,-27,-790,419,374,-1686,-864,308,1057,1495,1431
767,674,-93,-724,431,284,-1500,-684,278,955,1357,1287
695,434,-255,-562,479,86,-1260,-516,182,715,1069,999
599,296,-297,-448,449,-4,-1026,-402,68,493,829,783
497,254,-243,-376,371,2,-846,-372,-51,295,601,615
359,182,-177,-268,263,-4,-708,-366,-189,85,349,417
221,92,-123,-154,173,-9,-576,-342,-291,-76,145,237
137,38,-93,-88,113,-21,-468,-276,-309,-142,25,111
89,26,-57,-58,71,-9,-360,-174,-243,-130,-4,27
65,-4,-69,-28,65,-33,-270,-108,-213,-118,-28,-20
29,-45,-81,1,53,-63,-216,-84,-213,-124,-64,-74
-1,-93,-87,43,35,-93,-180,-66,-207,-124,-94,-110
-24,-117,-87,67,23,-105,-150,-60,-189,-118,-100,-116
-6,-105,-93,55,35,-99,-126,-48,-165,-106,-88,-104
-18,-93,-69,55,17,-81,-114,-36,-153,-106,-88,-110
-30,-87,-51,55,-1,-69,-84,-18,-135,-100,-88,-110
-30,-81,-45,55,-1,-63,-60,5,-111,-100,-88,-128
-36,-87,-45,61,-1,-69,-48,5,-105,-106,-100,-140
-36,-93,-51,61,-1,-75,-42,5,-111,-112,-112,-152
-36,-111,-69,73,5,-93,-36,5,-117,-130,-124,-152
-36,-117,-75,73,11,-99,-30,-6,-129,-142,-136,-176
-36,-123,-81,79,11,-105,-36,-18,-141,-154,-136,-182
-42,-129,-81,85,11,-105,-30,-24,-141,-160,-148,-194
-48,-129,-75,85,5,-105,-18,-24,-141,-160,-160,-200
-78,-135,-51,103,-12,-93,-13,-18,-135,-154,-166,-206
-84,-135,-45,109,-18,-93,-13,-18,-135,-154,-178,-206
-90,-123,-27,103,-30,-75,-13,-18,-117,-160,-172,-206
-90,-123,-27,103,-30,-75,5,-6,-117,-160,-166,-200
-84,-117,-27,97,-24,-75,5,5,-111,-166,-160,-194
-84,-117,-27,97,-24,-75,-1,5,-105,-166,-154,-188
-78,-123,-39,97,-18,-81,5,5,-105,-154,-154,-194
-60,-129,-63,91,-1,-99,-7,5,-105,-154,-154,-194
-48,-129,-75,85,5,-105,-1,0,-105,-148,-160,-194
-42,-111,-63,73,-1,-87,-7,0,-105,-142,-160,-194
-60,-117,-51,85,-1,-87,-7,0,-99,-148,-160,-194
-72,-129,-51,97,-6,-93,-1,0,-99,-148,-160,-188
-84,-135,-45,109,-18,-93,17,5,-87,-148,-154,-188
-78,-135,-51,103,-12,-93,35,5,-81,-142,-154,-182
-72,-123,-45,97,-12,-87,29,11,-75,-136,-148,-188
-84,-135,-45,109,-18,-93,23,11,-75,-142,-148,-188
-78,-147,-63,109,-6,-105,17,11,-63,-142,-142,-194
-66,-147,-75,103,-1,-111,17,11,-63,-142,-142,-194
-60,-141,-75,97,-1,-111,17,17,-75,-136,-148,-194
-78,-147,-63,109,-6,-105,11,17,-75,-136,-148,-194
-84,-141,-51,109,-12,-99,11,23,-81,-136,-142,-200
-72,-141,-63,103,-1,-105,11,29,-75,-136,-136,-200
-78,-123,-39,97,-18,-81,11,35,-69,-130,-130,-188
-72,-117,-39,91,-12,-81,17,41,-63,-130,-130,-188
-78,-117,-33,97,-18,-75,17,35,-51,-124,-118,-188
-78,-117,-33,97,-18,-75,23,41,-45,-124,-112,-188
-60,-105,-39,79,-6,-75,23,47,-51,-118,-118,-188
-54,-99,-39,73,-6,-69,23,53,-51,-118,-118,-182
-60,-105,-39,79,-6,-75,29,53,-57,-124,-124,-188
-54,-111,-51,79,-1,-81,29,53,-51,-124,-118,-182
-42,-111,-63,73,-1,-87,23,59,-45,-118,-124,-182
-48,-105,-51,73,-1,-81,29,65,-39,-112,-130,-182
-60,-111,-45,85,-6,-81,29,71,-33,-118,-136,-188
-78,-117,-33,97,-18,-75,23,83,-27,-118,-136,-188
-78,-117,-33,97,-18,-75,17,83,-21,-112,-130,-188
-90,-123,-27,103,-30,-75,17,95,-21,-106,-124,-188
-90,-117,-21,103,-30,-69,17,95,-15,-100,-118,-194
-90,-111,-15,97,-36,-63,17,95,-9,-88,-112,-194
-78,-111,-27,91,-24,-69,23,101,3,-88,-112,-188
-78,-111,-27,91,-24,-69,17,107,3,-88,-112,-188
-90,-123,-27,103,-30,-75,11,119,9,-94,-112,-182
-78,-105,-21,91,-24,-63,11,125,15,-94,-106,-176
-60,-93,-27,73,-12,-63,17,137,26,-88,-106,-176
-66,-87,-15,73,-24,-51,23,149,32,-70,-94,-176
-60,-81,-15,67,-18,-51,35,173,38,-64,-94,-176
-54,-63,-4,55,-24,-33,47,185,50,-64,-88,-170
-60,-75,-9,67,-24,-45,47,179,56,-58,-82,-170
-60,-75,-9,67,-24,-45,59,203,68,-46,-76,-182
-48,-69,-15,55,-12,-45,59,197,80,-40,-70,-188
-48,-57,-4,49,-18,-33,47,203,92,-40,-70,-188
-54,-63,-4,55,-24,-33,41,215,86,-46,-76,-188
-54,-69,-9,61,-18,-39,53,227,98,-34,-70,-176
-66,-75,-4,67,-30,-39,59,239,104,-34,-70,-182
-78,-81,-4,79,-36,-39,59,251,110,-28,-64,-182
-66,-69,-4,67,-30,-33,65,263,122,-16,-46,-176
-66,-63,-4,61,-36,-27,71,275,140,-10,-40,-170
-66,-63,-4,61,-36,-27,71,281,152,-5,-34,-170
-72,-63,2,67,-42,-27,71,281,164,-5,-34,-170
-66,-51,8,55,-42,-15,71,287,170,-5,-34,-164
-48,-33,8,37,-30,-9,71,305,182,1,-22,-152
-36,-21,8,25,-24,-4,83,311,194,1,-28,-140
-30,-15,8,19,-24,-4,101,329,206,7,-22,-134
-36,-9,20,19,-30,-4,107,347,218,19,-10,-128
-42,-9,26,25,-36,2,107,359,224,25,-4,-128
-48,-9,32,25,-42,2,101,371,242,37,8,-122
-42,-9,26,25,-36,2,101,389,248,55,14,-116
-42,-21,14,31,-30,-4,107,401,266,61,19,-116
-42,-15,20,25,-36,-4,101,401,266,67,25,-110
-42,-9,26,25,-36,2,107,407,278,79,31,-116
-42,-15,20,25,-36,-4,113,413,290,85,37,-116
-48,-9,32,25,-42,2,107,425,290,85,37,-110
-48,-9,32,25,-42,2,113,431,302,91,37,-110
-54,2,62,19,-60,32,119,437,320,91,43,-104
-54,8,68,13,-60,38,119,449,320,109,55,-92
-48,20,74,7,-60,44,113,455,326,115,67,-80
-36,26,68,1,-54,44,113,461,338,127,73,-80
-36,38,80,1,-60,56,107,473,356,139,79,-74
-30,44,80,1,-54,62,101,479,362,145,85,-68
-18,50,74,-10,-48,62,101,479,368,157,97,-56
-18,68,92,-16,-54,80,101,485,374,163,103,-44
-18,74,98,-22,-60,86,107,485,386,169,115,-38
-18,80,104,-22,-60,92,113,485,398,175,127,-32
-6,92,104,-34,-54,98,101,485,410,187,127,-26
-1,110,116,-46,-60,110,101,485,416,193,145,-8
-1,110,116,-46,-60,110,83,485,422,205,151,-2
-1,122,128,-52,-66,122,77,485,422,211,151,3
5,128,116,-64,-48,122,77,479,416,223,175,3
17,134,110,-76,-42,122,77,479,440,229,187,21
17,134,110,-76,-42,122,71,473,434,235,193,27
11,140,122,-76,-48,134,59,449,434,235,199,27
11,146,128,-76,-54,140,59,443,440,241,205,33
29,164,128,-94,-42,146,53,437,440,247,217,39
29,182,146,-106,-54,164,29,437,446,247,223,33
23,164,134,-94,-48,152,11,419,440,247,223,39
17,152,128,-82,-48,140,-7,407,434,253,229,51
23,158,128,-88,-48,146,-13,401,434,265,247,75
23,146,116,-82,-42,134,-24,383,428,271,247,81
17,152,128,-82,-48,140,-30,371,440,271,259,81
41,158,110,-100,-30,134,-60,353,434,271,265,93
53,170,110,-112,-24,140,-78,335,428,283,271,99
77,182,98,-130,-6,140,-84,317,422,277,277,117
83,188,98,-136,-1,146,-90,311,422,277,277,123
65,182,110,-124,-18,146,-114,293,416,271,271,117
59,182,116,-118,-24,152,-132,281,416,271,265,111
53,176,116,-112,-24,146,-156,263,404,259,259,105
53,176,116,-112,-24,146,-162,251,398,253,259,99
59,164,98,-112,-12,134,-168,245,392,253,253,99
59,158,92,-106,-12,128,-174,227,374,241,247,99
47,140,86,-94,-12,116,-192,203,350,235,229,87
47,134,80,-88,-12,110,-210,185,332,229,217,69
47,128,74,-88,-6,104,-216,167,314,211,205,63
41,128,80,-82,-12,104,-216,155,302,187,193,51
41,110,62,-76,-6,86,-216,137,290,175,181,39
41,110,62,-76,-6,86,-228,119,284,157,157,27
35,98,56,-64,-6,80,-228,101,266,133,133,21
23,80,50,-52,-6,68,-228,77,236,109,109,3
17,68,44,-40,-6,56,-228,65,212,85,79,-8
11,68,50,-40,-12,62,-234,29,188,55,55,-26
17,56,32,-34,-1,44,-240,5,170,49,43,-38
-1,26,26,-10,-12,26,-240,0,140,31,19,-62
-1,14,8,-4,-1,14,-234,-6,128,19,19,-74
-1,8,2,-4,-1,8,-240,-18,122,-5,19,-74
-1,2,-4,1,-1,2,-252,-36,98,-5,-4,-86
-1,-4,-4,1,-1,-4,-252,-42,92,-22,-10,-92
-6,-4,2,1,-6,-4,-252,-60,74,-40,-28,-110
-12,-9,-4,7,-6,-4,-258,-78,74,-64,-40,-122
-24,-21,-4,19,-12,-9,-258,-84,50,-70,-58,-134
-30,-27,-4,25,-18,-9,-270,-96,44,-88,-70,-146
-30,-45,-9,37,-6,-27,-276,-102,26,-94,-76,-146
-36,-51,-9,43,-12,-33,-276,-114,26,-94,-82,-152
-30,-57,-21,43,-1,-39,-276,-114,26,-94,-82,-158
-24,-51,-21,37,-1,-39,-270,-120,26,-100,-88,-158
-18,-57,-33,37,-1,-45,-270,-120,32,-94,-88,-170
-30,-51,-15,37,-6,-33,-276,-120,26,-100,-94,-170
-36,-69,-27,49,-1,-51,-282,-126,26,-106,-100,-170
-30,-51,-15,37,-6,-33,-276,-126,26,-106,-100,-170
-36,-39,-4,37,-18,-21,-282,-126,26,-112,-106,-176
-36,-51,-9,43,-12,-33,-288,-132,26,-118,-106,-182
-36,-57,-15,43,-6,-39,-282,-126,26,-106,-100,-176
-42,-63,-15,49,-12,-39,-282,-132,26,-106,-106,-170
-36,-57,-15,43,-6,-39,-282,-126,26,-94,-100,-164
-36,-69,-27,49,-1,-51,-282,-126,26,-94,-88,-158
-54,-75,-15,61,-18,-45,-288,-132,26,-100,-94,-164
-60,-75,-9,67,-24,-45,-300,-132,26,-106,-94,-170
-60,-75,-9,67,-24,-45,-282,-138,26,-112,-100,-176
-54,-63,-4,55,-24,-33,-270,-144,26,-112,-100,-170
-42,-51,-4,43,-18,-27,-270,-138,26,-106,-100,-164
-42,-51,-4,43,-18,-27,-264,-138,26,-106,-100,-170
-36,-69,-27,49,-1,-51,-270,-132,26,-106,-100,-164
-42,-69,-21,55,-6,-45,-270,-132,26,-106,-100,-164
-30,-57,-21,43,-1,-39,-264,-132,26,-100,-94,-164
-18,-51,-27,31,-1,-39,-264,-132,26,-100,-94,-164
-12,-51,-33,31,-1,-45,-270,-132,26,-100,-88,-176
-1,-33,-27,13,5,-33,-270,-132,38,-100,-94,-176
-12,-39,-21,25,-1,-33,-282,-138,32,-106,-100,-176
-18,-39,-15,25,-1,-27,-282,-144,26,-106,-106,-170
-30,-45,-9,37,-6,-27,-276,-150,26,-106,-112,-170
-42,-51,-4,43,-18,-27,-270,-156,21,-106,-118,-170
-48,-57,-4,49,-18,-33,-276,-150,21,-106,-118,-170
-42,-63,-15,49,-12,-39,-276,-144,21,-106,-118,-170
-30,-57,-21,43,-1,-39,-276,-132,26,-106,-112,-176
-48,-63,-9,55,-18,-39,-282,-132,26,-106,-112,-176
-48,-69,-15,55,-12,-45,-282,-132,26,-100,-106,-182
-42,-69,-21,55,-6,-45,-282,-144,26,-106,-112,-182
-30,-63,-27,43,-1,-45,-270,-138,26,-106,-106,-182
-24,-57,-27,37,-1,-45,-264,-138,26,-106,-106,-176
-30,-63,-27,43,-1,-45,-264,-132,26,-106,-112,-182
-42,-63,-15,49,-12,-39,-264,-132,26,-106,-118,-182
-42,-69,-21,55,-6,-45,-276,-144,26,-100,-124,-194
-66,-81,-9,73,-24,-45,-276,-144,26,-100,-124,-194
-54,-75,-15,61,-18,-45,-270,-132,26,-100,-118,-176
-48,-69,-15,55,-12,-45,-264,-132,26,-94,-124,-176
-42,-63,-15,49,-12,-39,-258,-126,32,-94,-118,-182
-36,-57,-15,43,-6,-39,-252,-120,32,-100,-118,-182
-36,-63,-21,49,-6,-45,-258,-126,32,-100,-124,-182
-48,-63,-9,55,-18,-39,-252,-132,26,-106,-124,-194
-48,-63,-9,55,-18,-39,-258,-138,26,-106,-136,-194
-48,-69,-15,55,-12,-45,-258,-126,26,-100,-142,-182
-48,-75,-21,61,-12,-51,-258,-126,26,-100,-136,-182
-48,-69,-15,55,-12,-45,-258,-120,26,-100,-130,-182
-54,-75,-15,61,-18,-45,-258,-114,26,-94,-124,-194
-60,-87,-21,73,-18,-57,-252,-114,26,-94,-118,-194
-48,-51,-4,49,-24,-27,-252,-114,32,-88,-112,-194
-42,-45,-4,43,-18,-21,-252,-114,38,-88,-112,-188
-42,-33,2,37,-24,-9,-252,-108,44,-82,-100,-176
-36,-27,2,31,-24,-9,-252,-126,44,-82,-100,-170
-36,-21,8,25,-24,-4,-252,-120,38,-82,-106,-182
-36,-39,-4,37,-18,-21,-252,-120,38,-82,-106,-182
-36,-33,-4,31,-18,-15,-246,-102,26,-82,-106,-182
-36,-27,2,31,-24,-9,-246,-102,26,-82,-112,-182
-42,-39,-4,37,-24,-15,-246,-108,26,-88,-112,-188
-48,-45,-4,43,-24,-21,-252,-102,26,-88,-112,-188
-42,-51,-4,43,-18,-27,-252,-102,32,-88,-112,-182
-42,-51,-4,43,-18,-27,-246,-102,38,-88,-112,-182
-42,-45,-4,43,-18,-21,-240,-102,38,-88,-112,-182
-42,-45,-4,43,-18,-21,-246,-102,44,-82,-112,-176
-42,-45,-4,43,-18,-21,-240,-102,44,-76,-106,-182
-54,-51,-4,49,-30,-21,-240,-114,44,-70,-106,-176
-60,-75,-9,67,-24,-45,-252,-114,38,-76,-112,-182
-66,-75,-4,67,-30,-39,-252,-114,32,-82,-118,-194
-66,-81,-9,73,-24,-45,-252,-108,26,-88,-124,-182
-60,-69,-4,61,-24,-39,-252,-108,26,-94,-124,-170
-54,-69,-9,61,-18,-39,-252,-102,32,-88,-112,-176
-54,-69,-9,61,-18,-39,-252,-102,32,-82,-112,-176
-60,-69,-4,61,-24,-39,-246,-96,38,-82,-106,-188
-60,-69,-4,61,-24,-39,-252,-108,38,-76,-106,-188
-60,-63,-4,61,-30,-33,-246,-108,38,-76,-112,-188
-60,-63,-4,61,-30,-33,-246,-108,38,-76,-112,-188
-42,-51,-4,43,-18,-27,-246,-108,38,-70,-118,-176
-42,-45,-4,43,-18,-21,-252,-102,38,-64,-112,-176
-42,-51,-4,43,-18,-27,-246,-102,50,-64,-106,-170
-42,-51,-4,43,-18,-27,-246,-96,50,-64,-100,-164
-42,-69,-21,55,-6,-45,-240,-96,56,-64,-94,-158
-54,-69,-9,61,-18,-39,-246,-108,50,-70,-94,-152
-60,-63,-4,61,-30,-33,-246,-108,44,-70,-100,-164
-54,-63,-4,55,-24,-33,-246,-108,44,-76,-94,-164
-60,-75,-9,67,-24,-45,-246,-114,32,-76,-100,-176
-66,-75,-4,67,-30,-39,-252,-114,32,-76,-106,-176
-54,-63,-4,55,-24,-33,-252,-114,32,-70,-100,-176
-42,-57,-9,49,-12,-33,-252,-114,32,-70,-100,-176
-30,-45,-9,37,-6,-27,-252,-114,32,-64,-94,-176
-24,-27,-4,25,-12,-15,-252,-114,32,-64,-94,-170
-24,-27,-4,25,-12,-15,-252,-114,32,-70,-94,-170
-24,-33,-4,25,-6,-21,-252,-114,26,-70,-94,-170
-30,-39,-4,31,-12,-21,-252,-120,26,-88,-94,-176
-42,-39,-4,37,-24,-15,-258,-126,26,-88,-94,-188
-36,-39,-4,37,-18,-21,-252,-126,26,-82,-94,-182
-36,-39,-4,37,-18,-21,-252,-126,26,-82,-100,-182
-30,-45,-9,37,-6,-27,-252,-120,26,-88,-106,-176
-30,-45,-9,37,-6,-27,-246,-120,26,-88,-106,-176
-42,-51,-4,43,-18,-27,-246,-126,26,-94,-112,-182
-48,-57,-4,49,-18,-33,-252,-132,26,-94,-118,-176
-60,-63,-4,61,-30,-33,-264,-138,26,-100,-124,-182
-66,-69,-4,67,-30,-33,-270,-144,21,-100,-124,-188
-60,-81,-15,67,-18,-51,-264,-138,26,-94,-118,-182
-54,-63,-4,55,-24,-33,-264,-138,26,-94,-112,-182
-42,-51,-4,43,-18,-27,-258,-138,26,-88,-106,-176
-36,-69,-27,49,-1,-51,-252,-138,26,-88,-106,-176
-48,-69,-15,55,-12,-45,-258,-144,26,-88,-118,-182
-54,-69,-9,61,-18,-39,-258,-144,26,-88,-118,-188
-66,-69,-4,67,-30,-33,-264,-156,26,-88,-130,-188
-72,-69,-4,67,-36,-33,-264,-156,26,-94,-130,-188
-54,-63,-4,55,-24,-33,-258,-144,26,-88,-124,-182
-42,-57,-9,49,-12,-33,-264,-144,26,-82,-124,-182
-36,-57,-15,43,-6,-39,-270,-138,21,-76,-118,-188
-30,-57,-21,43,-1,-39,-276,-150,15,-88,-118,-194
-36,-63,-21,49,-6,-45,-270,-144,21,-94,-118,-188
-36,-57,-15,43,-6,-39,-258,-144,21,-94,-118,-182
-42,-63,-15,49,-12,-39,-252,-150,26,-82,-112,-182
-54,-75,-15,61,-18,-45,-252,-150,26,-82,-112,-182
-42,-51,-4,43,-18,-27,-252,-144,26,-76,-106,-176
-24,-33,-4,25,-6,-21,-246,-144,26,-76,-106,-164
-42,-39,-4,37,-24,-15,-240,-144,26,-76,-106,-158
-54,-33,14,43,-36,-4,-252,-144,26,-76,-112,-164
-48,-45,-4,43,-24,-21,-252,-150,21,-82,-112,-158
-42,-51,-4,43,-18,-27,-252,-144,15,-82,-112,-164
-48,-69,-15,55,-12,-45,-258,-150,9,-88,-106,-170
-48,-87,-33,67,-6,-63,-258,-156,3,-88,-106,-176
-48,-63,-9,55,-18,-39,-252,-156,15,-100,-112,-176
-42,-51,-4,43,-18,-27,-264,-156,15,-100,-112,-188
-42,-21,14,31,-30,-4,-252,-156,21,-94,-118,-182
-48,-27,14,37,-36,-4,-252,-156,15,-88,-112,-176
-48,-33,8,37,-30,-9,-252,-156,15,-88,-112,-176
-54,-39,8,43,-36,-9,-252,-156,9,-82,-106,-170
-54,-45,2,49,-30,-15,-252,-156,9,-82,-106,-170
-42,-51,-4,43,-18,-27,-252,-156,3,-94,-112,-182
-60,-57,-4,55,-30,-27,-252,-162,-3,-94,-112,-188
-60,-69,-4,61,-24,-39,-258,-162,-9,-94,-118,-194
-60,-75,-9,67,-24,-45,-258,-162,-9,-94,-118,-200
-60,-69,-4,61,-24,-39,-252,-162,3,-94,-112,-194
-60,-69,-4,61,-24,-39,-252,-162,3,-94,-112,-188
-60,-69,-4,61,-24,-39,-252,-162,9,-88,-106,-176
-54,-69,-9,61,-18,-39,-252,-156,9,-82,-106,-170
-54,-69,-9,61,-18,-39,-252,-156,9,-82,-112,-176
-42,-57,-9,49,-12,-33,-246,-156,9,-82,-112,-170
-30,-39,-4,31,-12,-21,-222,-138,15,-64,-100,-158
-30,-27,-4,25,-18,-9,-210,-126,21,-52,-88,-140
-36,-21,8,25,-24,-4,-204,-126,26,-52,-82,-140
-36,-9,20,19,-30,-4,-204,-126,26,-46,-76,-140
-36,-4,26,19,-36,2,-192,-126,26,-40,-64,-134
-36,-4,32,13,-36,8,-186,-120,32,-34,-58,-128
-54,-4,56,19,-54,26,-180,-108,38,-28,-58,-128
-54,8,68,13,-60,38,-174,-108,38,-28,-58,-128
-54,26,86,7,-72,56,-168,-102,44,-16,-58,-122
-54,26,86,7,-72,56,-168,-102,50,-16,-58,-122
-54,14,74,13,-66,44,-162,-96,50,-16,-58,-128
-42,26,74,1,-60,50,-156,-96,56,-10,-46,-122
-42,26,74,1,-60,50,-162,-96,56,-10,-46,-128
-54,20,80,7,-66,50,-162,-96,56,-22,-52,-134
-42,26,74,1,-60,50,-156,-90,62,-10,-46,-128
-24,56,86,-10,-54,68,-150,-90,74,-5,-34,-116
-12,74,92,-22,-54,80,-156,-84,80,-5,-28,-98
-6,98,110,-40,-60,104,-150,-78,86,1,-16,-80
-18,98,122,-34,-72,110,-162,-84,86,13,-10,-68
-30,104,140,-28,-84,122,-174,-84,80,7,-4,-74
-48,98,152,-16,-102,122,-210,-102,74,-5,-10,-74
-60,98,164,-10,-114,128,-234,-102,68,-5,2,-62
-42,128,176,-34,-108,152,-228,-90,80,7,14,-44
-30,134,170,-46,-102,152,-234,-90,80,13,19,-38
-6,128,140,-52,-72,134,-246,-102,80,19,19,-32
-1,122,116,-58,-54,122,-252,-114,74,13,19,-32
-1,122,116,-58,-54,122,-264,-132,62,13,2,-38
-1,122,122,-58,-60,122,-270,-132,56,7,2,-38
-1,110,116,-46,-60,110,-276,-138,50,7,-10,-50
-6,74,86,-28,-48,80,-276,-144,38,-5,-16,-68
-1,56,56,-22,-24,56,-282,-150,38,-5,-28,-74
17,68,44,-40,-6,56,-282,-144,38,-5,-28,-80
23,74,44,-46,-6,62,-282,-150,38,-10,-34,-86
23,56,26,-40,-1,44,-282,-156,38,-10,-46,-104
-1,32,26,-16,-6,32,-276,-150,32,-28,-46,-104
-1,14,14,-4,-6,14,-270,-150,32,-28,-52,-110
-6,2,14,1,-12,8,-270,-144,26,-34,-58,-110
-12,-4,8,1,-12,-4,-264,-156,26,-40,-64,-122
-1,-15,-9,7,-1,-15,-264,-156,21,-46,-70,-134
-6,-15,-4,7,-1,-9,-264,-162,21,-58,-82,-140
-24,-21,-4,19,-12,-9,-270,-168,15,-64,-88,-146
-30,-45,-9,37,-6,-27,-270,-180,-3,-76,-100,-158
-36,-51,-9,43,-12,-33,-264,-180,3,-76,-94,-158
-36,-57,-15,43,-6,-39,-258,-186,-9,-82,-100,-164
-30,-69,-33,49,-1,-51,-252,-180,-3,-82,-100,-164
-42,-75,-27,55,-6,-51,-246,-180,-3,-82,-100,-170
-60,-87,-21,73,-18,-57,-252,-192,-9,-94,-112,-176
-72,-111,-33,91,-18,-75,-246,-192,-9,-94,-112,-182
-90,-123,-27,103,-30,-75,-240,-198,-15,-100,-124,-188
-108,-135,-21,121,-42,-81,-234,-204,-33,-106,-130,-194
-102,-135,-27,115,-36,-81,-234,-204,-39,-106,-130,-206
-96,-129,-27,109,-30,-81,-228,-198,-33,-106,-130,-206
-78,-117,-33,97,-18,-75,-204,-192,-39,-118,-136,-200
-72,-99,-21,85,-24,-63,-180,-186,-39,-106,-136,-200
-108,-135,-21,121,-42,-81,-162,-186,-39,-118,-136,-200
-108,-147,-33,127,-36,-93,-108,-168,-33,-118,-136,-212
-108,-141,-27,121,-36,-87,-48,-144,3,-100,-124,-188
-96,-75,14,85,-60,-27,-24,-120,9,-88,-130,-176
-102,-51,44,73,-78,-4,-1,-96,21,-88,-118,-170
-120,-93,20,103,-72,-33,11,-66,26,-76,-112,-182
-102,-93,2,97,-54,-39,-13,-72,21,-76,-112,-176
-42,-27,8,31,-30,-4,-114,-84,26,-70,-106,-170
-1,-15,-15,1,-1,-15,-234,-72,32,-52,-88,-176
-1,-27,-27,7,5,-27,-324,-60,50,-34,-64,-152
11,-27,-45,1,23,-33,-378,-48,80,-10,-34,-122
53,-4,-63,-16,53,-33,-408,-12,116,13,-4,-104
77,-4,-75,-34,77,-33,-486,-24,128,25,8,-92
83,-4,-87,-34,83,-39,-582,-42,128,25,-4,-98
89,-21,-117,-28,101,-69,-678,-60,140,25,2,-98
101,-33,-141,-28,119,-87,-744,-66,152,43,14,-86
113,-33,-153,-34,131,-93,-786,-96,152,49,19,-68
143,-45,-195,-40,167,-117,-816,-96,152,61,19,-68
161,-57,-225,-46,191,-141,-822,-96,158,67,37,-62
179,-45,-231,-58,203,-135,-834,-126,158,73,55,-32
209,-9,-225,-94,215,-117,-864,-174,170,103,73,-2
221,-9,-237,-100,227,-123,-918,-216,170,127,97,3
197,-33,-237,-76,215,-135,-936,-234,188,145,109,9
209,-21,-237,-88,221,-129,-954,-222,236,181,163,51
239,8,-225,-124,233,-99,-984,-210,260,217,193,81
239,8,-225,-124,233,-99,-990,-216,266,229,187,81
215,-4,-219,-100,215,-105,-984,-234,272,217,193,69
221,-4,-231,-100,221,-117,-1008,-252,272,223,193,63
257,2,-249,-130,251,-117,-1050,-330,254,235,199,81
281,38,-243,-160,257,-93,-1140,-474,218,229,223,117
317,86,-231,-202,269,-63,-1254,-630,176,235,247,177
359,122,-237,-238,293,-51,-1416,-768,146,259,295,237
407,146,-255,-274,329,-51,-1584,-906,140,295,367,315
503,194,-309,-346,407,-51,-1746,-1038,140,361,475,423
629,242,-381,-436,503,-63,-1902,-1182,110,439,583,525
725,278,-441,-496,581,-75,-1986,-1260,92,481,691,609
755,308,-447,-532,599,-63,-2022,-1260,110,547,763,693
803,326,-477,-562,641,-69,-2088,-1290,110,583,853,759
875,338,-531,-604,707,-93,-2154,-1350,110,637,937,843
917,410,-501,-664,713,-39,-2148,-1338,140,727,1081,987
899,518,-375,-712,635,68,-2052,-1224,248,877,1261,1185
845,674,-171,-754,503,248,-1920,-1026,428,1069,1453,1359
803,776,-21,-790,413,374,-1758,-822,536,1165,1531,1419
761,680,-81,-724,425,296,-1578,-648,512,1051,1387,1257
707,440,-261,-568,485,86,-1356,-492,398,811,1123,993
593,302,-285,-448,443,2,-1152,-396,266,589,883,765
479,260,-213,-370,341,20,-978,-378,110,379,631,579
383,212,-171,-292,275,14,-810,-378,-33,163,391,411
239,110,-129,-178,185,-4,-666,-360,-159,-5,181,243
77,2,-69,-40,71,-27,-546,-300,-189,-94,31,99
17,-45,-69,7,41,-57,-426,-192,-129,-94,-16,3
5,-57,-69,19,35,-63,-330,-108,-57,-52,-16,-14
-1,-69,-63,31,23,-69,-270,-78,-39,-52,-34,-50
-24,-81,-51,49,5,-69,-246,-60,-21,-46,-40,-92
-18,-93,-69,55,17,-81,-222,-48,3,-34,-28,-92
-30,-87,-51,55,-1,-69,-210,-48,3,-34,-34,-98
-42,-87,-39,61,-1,-63,-174,-36,21,-28,-40,-104
-42,-87,-39,61,-1,-63,-150,-24,26,-28,-46,-122
-48,-99,-45,73,-1,-75,-132,-30,26,-34,-64,-140
-60,-105,-39,79,-6,-75,-114,-12,26,-40,-82,-146
-66,-129,-57,97,-1,-93,-102,-6,26,-52,-94,-146
-78,-135,-51,103,-12,-93,-84,-6,26,-64,-112,-164
-84,-147,-57,115,-12,-105,-84,-6,26,-70,-112,-170
-78,-147,-63,109,-6,-105,-78,-18,21,-82,-112,-170
-78,-147,-63,109,-6,-105,-72,-18,21,-82,-118,-176
-96,-147,-45,121,-24,-99,-60,-18,21,-82,-112,-170
-96,-147,-45,121,-24,-99,-60,-18,21,-82,-118,-170
-108,-141,-27,121,-36,-87,-60,-24,26,-82,-124,-182
-108,-141,-27,121,-36,-87,-30,-12,26,-82,-124,-182
-108,-141,-27,121,-36,-87,-24,-6,26,-82,-130,-188
-108,-141,-27,121,-36,-87,-24,-6,26,-82,-130,-188
-108,-141,-27,121,-36,-87,-18,0,32,-76,-124,-194
-96,-141,-39,115,-24,-93,-24,5,32,-76,-124,-188
-90,-135,-39,109,-24,-87,-18,5,38,-76,-124,-188
-90,-111,-15,97,-36,-63,-18,5,38,-70,-124,-182
-90,-111,-15,97,-36,-63,-18,5,38,-76,-124,-176
-96,-117,-15,103,-36,-69,-13,0,38,-76,-124,-170
-90,-117,-21,103,-30,-69,-7,5,44,-76,-118,-164
-78,-111,-27,91,-24,-69,11,5,50,-70,-118,-158
-90,-105,-9,97,-36,-57,5,5,44,-64,-124,-164
-108,-117,-4,109,-48,-63,5,5,44,-70,-124,-170
-120,-135,-9,127,-54,-75,-1,5,44,-70,-130,-176
-114,-135,-15,121,-48,-75,5,5,44,-70,-130,-182
-108,-129,-15,115,-42,-75,5,5,38,-70,-130,-176
-120,-135,-9,127,-54,-75,-1,5,38,-70,-124,-176
-126,-129,-4,127,-60,-63,-1,5,38,-76,-112,-176
-108,-129,-15,115,-42,-75,-1,5,44,-76,-100,-176
-96,-105,-4,97,-42,-57,11,23,50,-64,-100,-164
-84,-93,-4,85,-36,-51,23,29,62,-64,-100,-164
-72,-87,-9,79,-30,-51,35,35,74,-52,-94,-164
-66,-81,-9,73,-24,-45,47,41,86,-52,-88,-164
-66,-81,-9,73,-24,-45,41,47,80,-46,-94,-158
-72,-87,-9,79,-30,-51,41,53,80,-46,-94,-152
-96,-105,-4,97,-42,-57,41,53,74,-52,-100,-152
-102,-123,-15,109,-42,-69,41,53,80,-52,-94,-146
-84,-117,-27,97,-24,-75,35,53,80,-46,-94,-146
-90,-111,-15,97,-36,-63,47,59,86,-40,-100,-146
-96,-111,-9,103,-42,-63,47,59,86,-46,-100,-152
-114,-117,-4,115,-54,-57,47,71,92,-46,-100,-152
-108,-117,-4,109,-48,-63,53,77,98,-40,-100,-152
-114,-117,-4,115,-54,-57,59,89,98,-34,-94,-152
-108,-111,-4,109,-54,-57,71,95,104,-28,-94,-158
-102,-99,-4,97,-54,-45,77,95,110,-16,-88,-158
-96,-105,-4,97,-42,-57,83,101,122,-10,-82,-152
-96,-105,-4,97,-42,-57,83,107,122,-10,-82,-146
-114,-123,-4,115,-54,-63,77,119,128,-10,-76,-140
-102,-105,-4,103,-48,-51,83,125,134,-10,-70,-128
-84,-105,-15,91,-30,-63,89,137,146,-5,-70,-128
-96,-105,-4,97,-42,-57,89,143,152,1,-58,-128
-90,-111,-15,97,-36,-63,101,167,152,7,-58,-128
-90,-99,-4,91,-42,-51,107,173,158,7,-52,-122
-96,-105,-4,97,-42,-57,107,167,158,7,-52,-116
-96,-105,-4,97,-42,-57,119,191,170,19,-46,-128
-84,-93,-4,85,-36,-51,119,185,176,19,-46,-128
-84,-81,-4,79,-42,-39,107,191,188,19,-46,-128
-90,-87,-4,85,-48,-39,107,203,188,13,-46,-122
-90,-87,-4,85,-48,-39,125,215,200,25,-40,-110
-102,-93,2,97,-54,-39,137,227,212,25,-34,-110
-114,-93,14,103,-66,-33,143,245,218,31,-28,-110
-96,-81,8,85,-54,-33,149,251,224,37,-22,-110
-96,-75,14,85,-60,-27,155,263,236,43,-16,-104
-90,-75,8,79,-54,-27,155,269,242,49,-22,-110
-96,-75,14,85,-60,-27,155,269,248,49,-22,-110
-90,-69,14,79,-54,-21,161,281,254,49,-10,-104
-78,-57,14,67,-48,-15,161,299,266,67,2,-92
-66,-51,8,55,-42,-15,179,311,272,73,8,-80
-66,-51,8,55,-42,-15,197,329,284,79,14,-74
-66,-33,26,49,-48,-4,203,341,284,85,19,-68
-72,-27,38,49,-60,-4,203,353,290,91,19,-68
-72,-15,50,43,-66,8,197,359,296,97,19,-62
-66,-9,50,37,-60,14,197,377,302,115,25,-56
-60,-9,44,31,-54,8,209,389,314,121,37,-44
-54,-4,50,25,-54,20,203,389,320,127,49,-38
-48,8,62,13,-54,32,215,395,326,139,55,-32
-42,8,56,7,-48,32,221,401,338,145,61,-32
-48,8,62,13,-54,32,215,413,338,151,61,-26
-54,8,68,13,-60,38,227,419,350,157,61,-26
-60,26,92,7,-78,56,227,425,368,163,67,-20
-66,32,104,7,-84,68,233,437,368,181,79,-8
-72,32,110,13,-90,68,227,437,362,181,85,-2
-66,32,104,7,-84,68,227,443,374,193,85,-8
-78,32,116,13,-96,74,227,449,380,199,85,-8
-78,32,116,13,-96,74,221,455,386,205,85,-8
-66,32,104,7,-84,68,221,461,392,211,97,3
-66,50,122,1,-96,86,215,467,398,217,109,3
-66,50,122,1,-96,86,221,473,410,217,121,9
-66,56,128,1,-96,92,221,473,422,223,139,15
-48,74,128,-4,-90,98,221,473,428,235,145,33
-36,98,140,-22,-90,116,227,473,434,235,163,51
-30,104,140,-28,-84,122,221,473,434,247,175,69
-24,122,152,-40,-90,134,221,473,434,253,175,75
-1,140,146,-64,-72,140,215,467,428,271,193,81
-1,146,140,-70,-66,146,215,467,452,277,205,99
5,158,146,-82,-66,152,203,461,446,289,205,99
-1,164,158,-82,-72,164,191,437,446,295,211,99
-6,146,158,-64,-84,152,185,425,440,289,211,111
-6,152,164,-64,-84,158,173,419,440,289,223,117
-24,146,176,-52,-102,158,143,413,434,277,223,117
-48,116,170,-28,-108,140,119,395,428,271,223,123
-36,128,170,-40,-102,146,119,395,434,283,235,129
-18,146,170,-58,-96,158,113,395,440,301,253,153
-1,158,164,-70,-84,158,113,389,446,313,259,153
-1,176,176,-82,-84,176,113,383,464,319,265,153
11,182,164,-94,-72,176,95,377,458,325,277,165
23,194,164,-106,-66,182,77,359,452,337,283,177
41,206,158,-124,-54,182,83,353,446,337,289,195
47,212,158,-130,-48,188,77,347,446,337,289,207
47,212,158,-130,-48,188,53,329,446,343,295,207
47,212,158,-130,-48,188,35,317,446,343,295,207
59,212,146,-136,-36,182,11,299,440,343,301,207
65,212,140,-136,-30,176,5,287,434,337,301,207
71,212,134,-142,-24,176,-1,281,428,337,289,207
71,206,128,-136,-24,170,-7,263,410,325,283,207
59,200,134,-130,-30,170,-13,245,386,319,259,195
59,194,128,-124,-30,164,-30,233,368,307,253,177
47,176,122,-112,-30,152,-36,209,338,277,235,165
29,170,134,-100,-48,152,-36,191,320,253,223,153
17,140,116,-76,-42,128,-36,167,296,235,205,135
5,134,122,-70,-54,128,-48,143,284,217,181,123
-1,122,116,-58,-54,122,-54,131,272,205,163,123
-1,98,98,-46,-48,98,-60,107,248,187,145,105
-1,86,92,-34,-48,86,-66,101,236,175,121,87
-1,80,86,-34,-42,80,-78,65,212,151,103,69
-1,80,80,-34,-36,80,-84,41,188,133,85,57
-18,56,80,-10,-48,68,-84,23,158,109,55,33
-12,56,74,-16,-42,62,-78,17,140,85,43,21
-12,56,74,-16,-42,62,-84,5,134,55,37,21
-12,44,62,-10,-36,50,-90,0,110,55,19,15
-12,38,56,-4,-36,44,-90,-6,104,43,19,9
-24,26,56,1,-42,38,-84,-24,86,37,8,3
-24,14,44,1,-36,26,-84,-42,86,19,-4,-2
-36,2,44,7,-42,20,-90,-42,62,7,-16,-14
-42,-4,44,13,-42,20,-102,-54,56,-5,-28,-26
-42,-9,26,25,-36,2,-114,-54,38,-10,-28,-26
-48,-15,26,31,-42,-4,-114,-66,32,-10,-34,-32
-60,-33,20,43,-42,-4,-120,-72,26,-22,-46,-38
-60,-39,14,49,-42,-9,-114,-84,26,-28,-52,-44
-72,-57,8,61,-42,-21,-120,-90,21,-34,-64,-56
-90,-63,20,73,-60,-15,-126,-96,-3,-40,-70,-62
-78,-63,8,67,-48,-21,-120,-102,3,-34,-64,-56
-60,-39,14,49,-42,-9,-108,-96,15,-34,-64,-50
-48,-9,32,25,-42,2,-102,-96,21,-28,-58,-50
-36,-15,14,25,-30,-4,-102,-96,26,-34,-58,-50
-48,-33,8,37,-30,-9,-102,-96,21,-40,-64,-56
-60,-45,8,49,-36,-15,-102,-102,21,-52,-76,-62
-66,-51,8,55,-42,-15,-108,-102,3,-58,-82,-68
-72,-69,-4,67,-36,-33,-108,-102,3,-70,-76,-74
-72,-75,-4,73,-36,-39,-114,-108,3,-64,-76,-68
-72,-75,-4,73,-36,-39,-126,-102,3,-58,-76,-68
-54,-75,-15,61,-18,-45,-108,-108,9,-52,-76,-62
-42,-63,-15,49,-12,-39,-96,-108,9,-40,-76,-50
-42,-39,-4,37,-24,-15,-96,-108,15,-40,-76,-56
-42,-39,-4,37,-24,-15,-96,-108,15,-40,-76,-62
-48,-45,-4,43,-24,-21,-102,-108,9,-46,-76,-68
-54,-45,2,49,-30,-15,-108,-108,3,-46,-76,-68
-48,-45,-4,43,-24,-21,-102,-108,3,-46,-70,-62
-48,-45,-4,43,-24,-21,-102,-108,3,-46,-70,-62
-48,-57,-4,49,-18,-33,-108,-108,9,-52,-64,-68
-48,-45,-4,43,-24,-21,-108,-108,15,-52,-70,-68
-54,-51,-4,49,-30,-21,-114,-108,15,-52,-76,-62
-54,-51,-4,49,-30,-21,-108,-108,15,-52,-76,-56
-60,-57,-4,55,-30,-27,-96,-108,9,-46,-82,-50
-66,-63,-4,61,-36,-27,-84,-108,9,-46,-82,-50
-60,-57,-4,55,-30,-27,-90,-102,9,-46,-76,-50
-48,-57,-4,49,-18,-33,-84,-96,3,-46,-76,-50
-24,-39,-9,31,-6,-27,-84,-84,9,-46,-64,-56
-36,-39,-4,37,-18,-21,-84,-84,9,-46,-64,-56
-60,-57,-4,55,-30,-27,-96,-96,3,-52,-70,-62
-66,-63,-4,61,-36,-27,-102,-108,-3,-58,-76,-62
-78,-69,2,73,-42,-27,-102,-114,-9,-70,-82,-62
-84,-69,8,73,-48,-27,-102,-114,-9,-70,-82,-56
-66,-63,-4,61,-36,-27,-90,-96,-3,-64,-76,-50
-60,-51,2,55,-36,-21,-90,-96,-3,-64,-76,-50
-36,-45,-4,37,-12,-27,-90,-96,-3,-52,-70,-50
-42,-45,-4,43,-18,-21,-90,-96,-3,-52,-64,-50
-36,-45,-4,37,-12,-27,-84,-84,3,-46,-58,-38
-36,-45,-4,37,-12,-27,-78,-84,3,-40,-64,-38
-36,-45,-4,37,-12,-27,-72,-78,9,-34,-58,-50
-36,-45,-4,37,-12,-27,-66,-72,9,-40,-58,-50
-48,-57,-4,49,-18,-33,-72,-78,3,-46,-58,-44
-66,-63,-4,61,-36,-27,-66,-84,-3,-52,-58,-56
-78,-69,2,73,-42,-27,-72,-90,-9,-58,-64,-50
-84,-81,-4,79,-42,-39,-72,-78,-15,-52,-70,-38
-78,-81,-4,79,-36,-39,-72,-84,-9,-58,-70,-38
-72,-75,-4,73,-36,-39,-72,-78,-3,-58,-64,-44
-72,-75,-4,73,-36,-39,-72,-78,15,-58,-64,-56
-72,-87,-9,79,-30,-51,-60,-78,15,-58,-58,-62
-66,-63,-4,61,-36,-27,-60,-78,9,-52,-64,-68
-66,-63,-4,61,-36,-27,-60,-78,9,-52,-64,-62
-72,-63,2,67,-42,-27,-60,-72,3,-46,-64,-56
-72,-63,2,67,-42,-27,-66,-90,-3,-46,-64,-50
-72,-57,8,61,-42,-21,-60,-84,3,-46,-64,-50
-72,-75,-4,73,-36,-39,-60,-78,3,-46,-64,-50
-72,-69,-4,67,-36,-33,-54,-60,3,-46,-58,-38
-72,-63,2,67,-42,-27,-54,-54,3,-46,-64,-38
-78,-69,2,73,-42,-27,-54,-60,3,-46,-70,-44
-84,-75,2,79,-48,-33,-54,-60,3,-46,-70,-50
-78,-75,-4,73,-42,-33,-54,-60,9,-40,-76,-44
-78,-75,-4,73,-42,-33,-42,-66,15,-40,-76,-50
-72,-63,2,67,-42,-27,-48,-66,9,-46,-76,-50
-72,-63,2,67,-42,-27,-54,-66,9,-46,-76,-50
-66,-57,2,61,-36,-21,-60,-66,3,-46,-70,-56
-78,-63,8,67,-48,-21,-60,-78,-3,-46,-70,-56
-78,-75,-4,73,-42,-33,-60,-72,3,-46,-64,-56
-78,-69,2,73,-42,-27,-54,-72,-3,-46,-70,-62
-72,-63,2,67,-42,-27,-48,-60,3,-46,-64,-44
-60,-45,8,49,-36,-15,-42,-60,3,-46,-64,-26
-54,-45,2,49,-30,-15,-48,-66,-3,-52,-64,-32
-54,-45,2,49,-30,-15,-48,-66,-3,-52,-64,-38
-60,-45,8,49,-36,-15,-54,-72,-9,-64,-70,-50
-60,-45,8,49,-36,-15,-60,-84,-9,-64,-70,-56
-66,-57,2,61,-36,-21,-54,-78,-9,-64,-76,-62
-72,-63,2,67,-42,-27,-54,-78,-9,-64,-76,-62
-60,-69,-4,61,-24,-39,-54,-72,-9,-58,-82,-56
-66,-69,-4,67,-30,-33,-60,-66,-9,-52,-76,-56
-60,-57,-4,55,-30,-27,-54,-66,-3,-52,-70,-50
-60,-51,2,55,-36,-21,-54,-60,-3,-52,-64,-44
-54,-51,-4,49,-30,-21,-48,-60,-3,-52,-58,-38
-66,-45,14,55,-42,-9,-54,-72,-9,-58,-58,-32
-60,-33,20,43,-42,-4,-54,-72,-9,-58,-64,-44
-54,-33,14,43,-36,-4,-54,-72,-9,-64,-58,-44
-48,-39,2,43,-30,-15,-54,-78,-15,-64,-64,-56
-54,-39,8,43,-36,-9,-60,-78,-15,-64,-70,-56
-60,-51,2,55,-36,-21,-60,-72,-15,-64,-76,-50
-60,-63,-4,61,-30,-33,-60,-72,-15,-64,-76,-50
-66,-75,-4,67,-30,-39,-48,-66,-15,-64,-82,-44
-72,-75,-4,73,-36,-39,-48,-66,-15,-64,-82,-38
-66,-63,-4,61,-36,-27,-48,-66,-15,-64,-76,-32
-66,-57,2,61,-36,-21,-48,-66,-21,-64,-76,-32
-66,-51,8,55,-42,-15,-54,-72,-27,-76,-70,-32
-78,-39,32,55,-60,-4,-60,-78,-27,-76,-70,-44
-72,-39,26,55,-54,-4,-66,-84,-27,-76,-70,-44
-72,-39,26,55,-54,-4,-66,-84,-27,-76,-76,-44
-66,-45,14,55,-42,-9,-78,-84,-39,-88,-82,-44
-66,-45,14,55,-42,-9,-78,-84,-39,-88,-82,-44
-66,-45,14,55,-42,-9,-72,-84,-39,-88,-88,-44
-66,-45,14,55,-42,-9,-72,-84,-33,-88,-88,-38
-66,-45,14,55,-42,-9,-84,-84,-39,-88,-94,-38
-66,-45,14,55,-42,-9,-84,-84,-39,-88,-88,-44
-66,-57,2,61,-36,-21,-78,-84,-39,-88,-82,-38
-66,-39,20,49,-48,-4,-78,-84,-39,-88,-76,-38
-60,-27,26,43,-48,-4,-72,-90,-45,-88,-70,-32
-60,-45,8,49,-36,-15,-66,-90,-45,-88,-70,-32
-54,-39,8,43,-36,-9,-60,-84,-39,-82,-70,-32
-48,-39,2,43,-30,-15,-60,-84,-39,-82,-70,-32
-42,-33,2,37,-24,-9,-54,-84,-33,-76,-70,-26
-36,-33,-4,31,-18,-15,-54,-84,-33,-82,-70,-20
-42,-39,-4,37,-24,-15,-48,-84,-39,-88,-76,-20
-54,-45,2,49,-30,-15,-54,-84,-45,-82,-76,-26
-72,-57,8,61,-42,-21,-60,-90,-57,-88,-82,-38
-90,-69,14,79,-54,-21,-66,-102,-69,-100,-82,-50
-84,-69,8,73,-48,-27,-60,-96,-63,-106,-88,-50
-84,-63,14,73,-54,-21,-54,-96,-63,-106,-88,-50
-78,-63,8,67,-48,-21,-48,-102,-57,-94,-88,-56
-90,-75,8,79,-54,-27,-54,-102,-57,-94,-88,-62
-72,-51,14,61,-48,-15,-48,-102,-57,-94,-88,-56
-54,-39,8,43,-36,-9,-42,-102,-57,-94,-88,-44
-66,-45,14,55,-42,-9,-36,-108,-63,-100,-94,-38
-78,-45,26,61,-54,-4,-48,-108,-69,-100,-100,-44
-72,-45,20,55,-48,-9,-48,-114,-69,-106,-106,-38
-66,-45,14,55,-42,-9,-48,-108,-69,-106,-106,-44
-72,-51,14,61,-48,-15,-48,-114,-69,-112,-106,-50
-72,-63,2,67,-42,-27,-48,-120,-69,-112,-106,-56
-66,-51,8,55,-42,-15,-36,-114,-63,-106,-94,-50
-60,-39,14,49,-42,-9,-30,-108,-63,-100,-94,-44
-54,-33,14,43,-36,-4,-36,-102,-57,-88,-82,-38
-54,-33,14,43,-36,-4,-36,-96,-57,-82,-82,-26
-54,-33,14,43,-36,-4,-36,-102,-63,-88,-94,-32
-54,-45,2,49,-30,-15,-36,-114,-69,-94,-100,-50
-72,-57,8,61,-42,-21,-36,-120,-75,-100,-106,-56
-72,-57,8,61,-42,-21,-30,-120,-81,-106,-112,-50
-90,-87,-4,85,-48,-39,-42,-138,-87,-130,-124,-62
-78,-57,14,67,-48,-15,-30,-132,-75,-118,-106,-50
-72,-51,14,61,-48,-15,-24,-126,-69,-112,-100,-44
-72,-51,14,61,-48,-15,-18,-120,-69,-106,-100,-44
-66,-45,14,55,-42,-9,-13,-114,-63,-100,-94,-38
-66,-45,14,55,-42,-9,-13,-108,-63,-94,-94,-38
-48,-45,-4,43,-24,-21,-13,-108,-69,-100,-100,-44
-66,-45,14,55,-42,-9,-13,-114,-75,-100,-100,-44
-60,-51,2,55,-36,-21,-13,-114,-81,-94,-106,-44
-60,-51,2,55,-36,-21,-13,-114,-81,-94,-106,-44
-66,-51,8,55,-42,-15,-18,-120,-75,-100,-106,-50
-72,-57,8,61,-42,-21,-18,-120,-75,-100,-106,-50
-78,-63,8,67,-48,-21,-24,-126,-75,-100,-106,-50
-78,-69,2,73,-42,-27,-24,-120,-75,-94,-106,-50
-78,-63,8,67,-48,-21,-18,-120,-69,-88,-106,-44
-66,-45,14,55,-42,-9,-13,-120,-69,-88,-106,-38
-54,-21,26,37,-42,-4,11,-102,-57,-64,-88,-14
-54,-4,44,25,-54,14,29,-90,-51,-52,-76,3
-60,-4,50,31,-60,14,29,-90,-51,-58,-82,-2
-60,-4,62,25,-60,26,29,-90,-45,-58,-76,-2
-60,-4,62,25,-60,26,35,-90,-45,-58,-76,-2
-60,2,68,19,-66,32,41,-84,-39,-58,-70,3
-78,-4,80,31,-78,38,47,-78,-39,-58,-70,3
-78,-4,80,31,-78,38,53,-78,-39,-58,-70,3
-78,2,86,31,-84,44,59,-78,-39,-52,-70,3
-78,-4,74,37,-78,32,59,-78,-33,-52,-70,3
-66,-4,68,25,-66,32,77,-66,-27,-46,-64,3
-48,26,80,1,-66,50,83,-60,-21,-40,-52,15
-36,44,86,1,-60,62,89,-54,-15,-34,-46,21
-42,56,104,1,-72,80,89,-48,-15,-46,-52,21
-48,50,104,1,-78,74,89,-48,-15,-34,-52,21
-36,68,110,-10,-72,86,89,-48,-3,-28,-40,27
-42,74,122,-10,-84,98,77,-48,-3,-16,-40,39
-42,86,134,-16,-90,110,77,-42,3,-10,-28,51
-36,98,140,-22,-90,116,77,-42,9,-5,-22,63
-30,116,152,-34,-90,134,71,-42,9,-5,-16,63
-30,122,158,-40,-96,140,47,-54,9,-5,-22,63
-24,134,164,-46,-96,146,29,-54,9,-5,-10,81
-12,158,176,-64,-96,164,29,-42,15,1,2,93
-12,158,176,-64,-96,164,17,-42,15,1,2,93
-1,146,146,-70,-72,146,-1,-54,9,1,2,93
-1,134,128,-64,-60,134,-13,-66,3,-5,-4,87
-1,122,116,-58,-54,122,-18,-84,-15,-10,-16,75
-1,122,122,-58,-60,122,-24,-90,-21,-16,-16,75
-1,98,104,-40,-54,98,-30,-96,-33,-28,-22,57
-6,62,74,-22,-42,68,-30,-108,-45,-40,-28,39
-1,44,50,-16,-24,44,-24,-108,-39,-40,-40,39
5,62,50,-34,-18,56,-24,-102,-39,-46,-40,39
5,68,56,-34,-18,62,-13,-102,-33,-46,-46,39
-1,56,50,-28,-18,56,-13,-108,-33,-46,-58,27
-1,44,50,-16,-24,44,-13,-102,-27,-52,-52,33
-1,32,32,-10,-12,32,-1,-96,-27,-46,-52,33
-1,32,32,-10,-12,32,5,-90,-21,-40,-52,39
-1,26,20,-10,-6,26,17,-96,-33,-40,-52,33
-1,-4,-4,1,-1,-4,17,-102,-57,-64,-70,9
-12,-9,-4,7,-6,-4,17,-114,-63,-82,-88,3
-48,-33,8,37,-30,-9,11,-126,-87,-106,-106,-8
-66,-69,-4,67,-30,-33,11,-144,-111,-124,-124,-26
-78,-69,2,73,-42,-27,17,-144,-105,-118,-124,-26
-78,-75,-4,73,-42,-33,17,-150,-111,-124,-130,-32
-78,-81,-4,79,-36,-39,29,-144,-105,-118,-136,-32
-90,-87,-4,85,-48,-39,29,-144,-99,-118,-136,-38
-84,-81,-4,79,-42,-39,29,-144,-105,-124,-136,-32
-78,-87,-4,79,-36,-45,35,-144,-105,-124,-136,-32
-72,-81,-4,73,-30,-45,47,-138,-111,-124,-136,-26
-72,-75,-4,73,-36,-39,53,-144,-129,-130,-142,-26
-84,-93,-4,85,-36,-51,47,-150,-135,-136,-148,-44
-90,-99,-4,91,-42,-51,53,-150,-129,-136,-148,-50
-90,-105,-9,97,-36,-57,71,-150,-135,-154,-160,-50
-96,-99,-4,97,-48,-51,95,-150,-135,-142,-160,-56
-96,-99,-4,97,-48,-51,137,-126,-111,-130,-148,-44
-84,-99,-9,91,-36,-57,191,-108,-93,-118,-136,-44
-96,-105,-4,97,-42,-57,233,-96,-93,-112,-136,-32
-108,-75,26,91,-72,-21,257,-84,-87,-112,-130,-32
-102,-51,44,73,-78,-4,281,-60,-87,-100,-130,-38
-84,-33,44,55,-66,-4,281,-42,-87,-100,-136,-26
-54,-33,14,43,-36,-4,245,-36,-75,-100,-112,-20
-42,-27,8,31,-30,-4,161,-24,-51,-82,-106,-26
-54,-51,-4,49,-30,-21,29,-24,-27,-64,-100,-20
-54,-75,-15,61,-18,-45,-54,-12,-21,-58,-76,3
-24,-63,-33,43,-1,-51,-108,0,-3,-46,-70,9
-1,-39,-39,13,11,-39,-162,0,21,-22,-52,3
29,-27,-63,1,41,-45,-228,0,26,-5,-28,27
59,-21,-87,-10,71,-51,-300,-6,21,-5,-28,33
101,-9,-117,-40,107,-63,-384,-12,26,-5,-22,33
125,-9,-141,-52,131,-75,-444,-30,32,-5,-10,45
125,-33,-165,-40,143,-99,-498,-60,32,13,-4,51
119,-33,-159,-34,137,-93,-522,-72,32,13,8,63
149,-45,-201,-46,173,-123,-528,-60,62,31,25,93
179,-33,-219,-64,197,-123,-552,-78,74,73,55,123
209,-9,-225,-94,215,-117,-606,-126,74,79,61,129
209,-9,-225,-94,215,-117,-648,-180,62,91,73,135
197,-33,-237,-76,215,-135,-666,-180,80,109,97,165
233,-9,-243,-106,239,-129,-672,-162,128,157,139,207
245,-4,-243,-124,245,-117,-702,-150,152,193,169,225
227,-4,-237,-106,227,-117,-702,-168,158,205,175,225
245,14,-231,-130,239,-99,-720,-186,158,205,193,237
299,56,-243,-178,269,-87,-744,-234,158,211,205,249
305,62,-243,-184,269,-81,-816,-318,146,211,223,267
305,74,-231,-190,263,-69,-930,-474,98,205,235,291
353,122,-231,-238,287,-45,-1044,-618,56,223,259,339
419,182,-237,-298,323,-21,-1182,-732,38,235,307,411
467,194,-267,-328,365,-33,-1338,-894,9,259,367,483
551,206,-345,-376,449,-63,-1500,-1062,-27,289,427,549
653,242,-405,-448,527,-75,-1644,-1206,-69,331,511,621
725,278,-441,-496,581,-75,-1698,-1236,-51,403,619,705
815,332,-483,-574,647,-69,-1710,-1194,15,487,745,819
887,374,-507,-628,701,-63,-1770,-1212,26,559,853,927
935,410,-519,-670,731,-51,-1836,-1266,15,601,949,1017
971,482,-489,-730,731,-4,-1842,-1242,32,691,1069,1155
959,602,-351,-778,653,122,-1758,-1134,152,841,1237,1323
893,728,-159,-808,521,284,-1614,-936,332,1021,1417,1485
839,764,-69,-802,455,344,-1446,-720,446,1105,1477,1533
773,644,-129,-712,455,254,-1260,-564,368,961,1291,1341
683,428,-249,-550,467,86,-1062,-438,236,709,1015,1065
569,302,-261,-436,419,14,-846,-336,128,517,811,873
467,236,-225,-352,341,2,-648,-294,15,331,607,711
335,176,-159,-250,245,2,-516,-318,-153,115,355,513
233,122,-105,-178,167,2,-384,-312,-249,-34,169,381
173,86,-81,-130,125,-4,-234,-222,-243,-82,67,285
113,38,-69,-76,89,-9,-108,-120,-201,-70,19,195
17,-9,-33,1,23,-21,-36,-72,-177,-88,-16,117
-24,-45,-15,31,-1,-33,-1,-42,-171,-100,-58,57
-24,-57,-27,37,-1,-45,53,0,-153,-94,-76,27
-42,-69,-21,55,-6,-45,89,5,-129,-94,-64,27
-60,-75,-9,67,-24,-45,101,5,-129,-100,-70,27
-72,-81,-4,73,-30,-45,137,17,-117,-94,-70,27
-78,-93,-9,85,-30,-51,161,35,-105,-100,-76,15
-84,-111,-21,97,-30,-69,179,29,-105,-106,-88,3
-84,-105,-15,91,-30,-63,191,41,-99,-100,-94,3
-84,-123,-33,103,-24,-81,203,41,-99,-112,-106,3
-84,-117,-27,97,-24,-75,215,35,-99,-112,-112,-8
-84,-123,-33,103,-24,-81,215,29,-105,-118,-112,-14
-84,-123,-33,103,-24,-81,221,17,-117,-130,-118,-20
-84,-123,-33,103,-24,-81,227,17,-117,-130,-124,-26
-108,-123,-9,115,-48,-69,239,17,-123,-130,-124,-26
-108,-123,-9,115,-48,-69,245,17,-123,-130,-130,-26
-120,-117,-4,115,-60,-57,245,23,-105,-124,-124,-32
-120,-123,-4,121,-60,-63,275,35,-105,-124,-118,-32
-120,-123,-4,121,-60,-63,281,53,-99,-118,-112,-32
-120,-129,-4,121,-54,-69,281,53,-93,-118,-106,-32
-120,-135,-9,127,-54,-75,287,59,-87,-112,-88,-38
-108,-135,-21,121,-42,-81,281,59,-87,-112,-82,-32
-102,-135,-27,115,-36,-81,287,59,-81,-112,-70,-32
-102,-111,-4,103,-48,-57,287,59,-81,-106,-64,-26
-114,-117,-4,115,-54,-57,281,47,-81,-118,-76,-26
-120,-123,-4,121,-60,-63,287,41,-87,-124,-82,-26
-126,-129,-4,127,-60,-63,299,41,-81,-130,-88,-26
-114,-123,-4,115,-54,-63,317,41,-81,-130,-94,-26
-114,-111,-4,109,-60,-51,317,53,-81,-124,-88,-32
-126,-123,-4,121,-66,-57,317,59,-81,-130,-82,-32
-126,-135,-4,127,-60,-69,317,65,-75,-130,-76,-38
-114,-135,-15,121,-48,-75,323,71,-75,-130,-70,-38
-108,-129,-15,115,-42,-75,329,71,-81,-124,-70,-32
-126,-129,-4,127,-60,-63,323,71,-81,-124,-70,-32
-132,-123,2,127,-72,-57,329,71,-81,-124,-58,-32
-120,-117,-4,115,-60,-57,329,77,-75,-124,-52,-32
-114,-99,8,103,-66,-39,341,95,-69,-112,-52,-20
-102,-93,2,97,-54,-39,353,101,-63,-112,-52,-20
-96,-93,-4,91,-48,-45,365,107,-51,-100,-46,-20
-90,-93,-4,91,-42,-45,377,113,-45,-100,-40,-20
-90,-93,-4,91,-42,-45,371,113,-51,-94,-40,-20
-96,-99,-4,97,-48,-51,371,119,-51,-94,-40,-14
-120,-117,-4,115,-60,-57,371,113,-57,-100,-40,-20
-126,-135,-4,127,-60,-69,371,113,-51,-100,-34,-14
-108,-117,-4,109,-48,-63,365,113,-51,-94,-40,-8
-114,-105,2,109,-60,-45,377,119,-45,-88,-46,-8
-120,-93,20,103,-72,-33,377,119,-45,-94,-52,-8
-138,-93,38,115,-90,-21,377,131,-39,-94,-52,-8
-126,-93,26,109,-78,-27,383,137,-33,-88,-46,-14
-132,-93,32,109,-84,-27,389,149,-33,-82,-40,-14
-120,-87,26,103,-78,-27,401,155,-27,-76,-34,-26
-114,-75,32,91,-78,-15,407,155,-21,-64,-28,-26
-96,-69,20,79,-60,-21,413,161,-9,-64,-22,-20
-90,-69,14,79,-54,-21,413,167,-9,-64,-22,-14
-96,-75,14,85,-60,-27,407,179,-3,-70,-16,-8
-78,-57,14,67,-48,-15,413,185,3,-70,-10,3
-78,-57,14,67,-48,-15,419,197,15,-70,-16,3
-102,-63,32,79,-72,-9,419,203,21,-52,-10,3
-114,-69,38,91,-78,-9,431,227,21,-52,-16,3
-126,-63,56,91,-96,-4,437,233,26,-52,-16,3
-126,-81,38,103,-84,-15,443,233,21,-46,-10,3
-126,-87,32,103,-84,-21,455,251,26,-34,-4,-2
-108,-87,14,97,-66,-33,461,251,26,-28,2,-8
-108,-81,20,91,-66,-27,449,257,32,-28,2,-8
-108,-75,26,91,-72,-21,449,263,32,-34,2,3
-108,-69,32,85,-72,-15,467,269,44,-22,8,3
-114,-63,44,85,-84,-4,473,275,56,-22,14,9
-126,-57,62,91,-96,-4,479,287,62,-16,19,9
-108,-39,62,73,-90,2,491,305,68,-5,25,15
-102,-33,62,67,-84,8,497,323,80,-5,31,21
-96,-27,62,61,-84,8,503,335,86,1,37,21
-96,-27,62,61,-84,8,503,341,92,1,37,21
-96,-33,56,61,-78,2,503,341,92,1,37,21
-84,-21,56,49,-72,8,503,359,104,19,49,33
-78,-27,44,49,-66,2,515,359,110,25,43,39
-78,-27,44,49,-66,2,533,377,122,31,49,45
-90,-21,62,55,-78,14,539,389,128,31,55,45
-102,-21,74,61,-90,20,545,401,134,37,61,45
-114,-21,86,67,-102,26,539,407,146,37,67,45
-114,-21,86,67,-102,26,545,425,152,55,73,51
-108,-21,80,61,-96,20,551,431,158,49,73,57
-108,-9,92,55,-102,32,539,431,164,55,85,63
-102,-4,104,43,-102,50,545,431,164,55,79,63
-102,-4,104,43,-102,50,545,437,176,61,85,63
-90,2,98,37,-96,50,551,449,176,73,91,75
-84,8,98,31,-90,50,563,455,188,79,91,75
-72,32,110,13,-90,68,581,461,206,91,103,87
-66,44,116,1,-90,80,587,473,206,109,115,99
-66,44,116,1,-90,80,587,485,212,109,127,111
-60,44,110,1,-84,74,587,491,224,121,133,111
-66,44,116,1,-90,80,587,503,242,127,139,117
-66,44,116,1,-90,80,581,509,248,133,145,123
-66,38,110,7,-90,74,581,509,248,151,157,135
-66,56,128,1,-96,92,575,515,254,157,163,141
-78,50,134,7,-108,92,581,515,260,169,175,147
-78,56,140,1,-108,98,581,515,266,175,187,147
-72,74,152,1,-114,110,575,509,272,181,187,153
-72,92,170,-4,-120,128,575,509,278,187,205,171
-78,98,182,-4,-132,140,563,503,278,193,211,177
-84,110,200,-4,-144,152,557,503,278,199,211,183
-54,128,188,-28,-120,158,563,509,284,211,235,195
-36,134,176,-40,-108,152,563,509,308,217,247,213
-24,146,176,-52,-102,158,563,515,314,223,253,219
-24,152,182,-58,-102,164,551,491,314,229,259,219
-24,152,182,-58,-102,164,557,491,314,235,259,237
-6,170,182,-76,-96,176,551,491,314,235,271,243
-6,182,194,-82,-102,188,533,491,314,235,277,243
-12,164,182,-70,-96,170,515,479,308,235,277,249
-6,170,182,-76,-96,176,509,473,308,235,283,255
-1,182,182,-88,-90,182,497,473,308,247,301,273
5,188,176,-94,-78,182,491,461,308,247,301,273
5,200,188,-100,-84,194,485,455,320,247,313,267
11,200,182,-106,-78,194,461,437,320,259,325,279
17,206,182,-112,-78,194,443,419,314,271,331,291
23,212,182,-118,-72,200,437,401,314,277,337,309
23,212,182,-118,-72,200,431,395,314,277,337,321
11,200,182,-106,-78,194,413,383,308,277,331,315
11,194,176,-100,-78,188,395,371,308,277,331,315
11,182,164,-94,-72,176,377,359,296,271,325,309
17,176,152,-94,-60,164,371,347,290,265,325,309
29,176,140,-100,-48,158,365,335,290,259,325,315
35,176,134,-106,-42,158,359,317,272,247,319,315
29,170,134,-100,-48,152,341,293,260,235,307,309
35,170,128,-100,-42,152,323,275,242,229,295,291
29,170,134,-100,-48,152,311,257,224,211,277,285
23,170,140,-94,-54,158,311,245,206,193,265,273
17,158,134,-88,-54,146,305,233,194,181,253,261
17,158,134,-88,-54,146,293,215,182,169,229,249
5,128,116,-64,-48,122,293,203,158,157,217,249
-1,98,98,-46,-48,98,293,179,128,133,205,237
-6,68,80,-22,-42,74,293,173,104,121,187,219
-12,56,74,-16,-42,62,287,137,80,91,175,201
-12,62,80,-16,-48,68,269,113,62,73,151,189
-36,44,86,1,-60,62,269,95,32,55,121,165
-36,50,92,1,-66,68,263,89,26,31,103,153
-36,56,98,-4,-66,74,257,77,26,7,97,153
-24,44,74,-4,-48,56,257,65,9,13,79,147
-24,38,68,1,-48,50,257,59,3,1,73,141
-24,26,56,1,-42,38,269,47,-9,1,67,129
-24,14,44,1,-36,26,269,29,-9,-5,55,117
-42,2,50,13,-48,26,263,17,-33,-22,43,105
-48,-4,44,19,-48,14,251,5,-39,-40,31,93
-54,-15,32,31,-48,2,239,5,-57,-58,31,93
-60,-27,26,43,-48,-4,239,-6,-63,-58,25,87
-54,-21,26,37,-42,-4,233,-6,-63,-58,19,87
-48,-9,32,25,-42,2,239,-12,-69,-64,19,87
-42,-4,32,19,-42,8,233,-12,-69,-58,19,81
-54,-4,56,19,-54,26,227,-12,-87,-64,14,81
-54,-15,32,31,-48,2,227,-24,-93,-70,8,75
-48,-4,38,25,-48,8,233,-24,-93,-76,2,69
-48,-4,44,19,-48,14,233,-30,-99,-82,-4,57
-48,-15,26,31,-42,-4,227,-36,-105,-94,-10,45
-60,-33,20,43,-42,-4,227,-36,-105,-88,-10,45
-72,-39,26,55,-54,-4,227,-42,-105,-94,-22,45
-78,-45,26,61,-54,-4,227,-42,-117,-88,-22,45
-84,-57,20,67,-54,-15,227,-42,-117,-94,-16,45
-84,-57,20,67,-54,-15,215,-48,-117,-100,-22,39
-84,-57,20,67,-54,-15,203,-42,-117,-100,-22,33
-66,-51,8,55,-42,-15,215,-48,-111,-106,-28,27
-54,-39,8,43,-36,-9,227,-48,-111,-100,-28,33
-54,-27,20,37,-42,-4,227,-48,-99,-94,-22,39
-60,-33,20,43,-42,-4,233,-48,-99,-94,-16,39
-66,-51,8,55,-42,-15,233,-48,-99,-94,-10,45
-78,-57,14,67,-48,-15,233,-48,-105,-94,-4,51
-72,-51,14,61,-48,-15,233,-48,-111,-94,-10,51
-72,-51,14,61,-48,-15,227,-48,-111,-94,-10,51
-72,-57,8,61,-42,-21,221,-48,-111,-100,-16,39
-72,-45,20,55,-48,-9,215,-48,-105,-100,-22,39
-66,-45,14,55,-42,-9,209,-48,-99,-94,-16,39
-66,-45,14,55,-42,-9,209,-48,-99,-94,-16,45
-60,-45,8,49,-36,-15,221,-48,-99,-82,-10,45
-66,-51,8,55,-42,-15,227,-48,-99,-82,-10,45
-72,-51,14,61,-48,-15,221,-48,-99,-88,-10,45
-60,-51,2,55,-36,-21,227,-42,-105,-88,-10,45
-48,-39,2,43,-30,-15,227,-36,-99,-94,-4,39
-60,-39,14,49,-42,-9,227,-36,-99,-94,-4,39
-72,-57,8,61,-42,-21,215,-36,-105,-88,-10,27
-72,-57,8,61,-42,-21,215,-48,-105,-94,-22,21
-72,-63,2,67,-42,-27,215,-42,-111,-94,-28,15
-72,-57,8,61,-42,-21,221,-42,-105,-94,-34,15
-72,-57,8,61,-42,-21,221,-36,-105,-100,-40,15
-72,-51,14,61,-48,-15,221,-36,-111,-100,-40,15
-66,-51,8,55,-42,-15,209,-48,-117,-100,-46,9
-78,-57,14,67,-48,-15,209,-48,-123,-100,-40,9
-72,-57,8,61,-42,-21,215,-36,-117,-100,-34,27
-72,-57,8,61,-42,-21,221,-36,-111,-94,-34,27
-72,-57,8,61,-42,-21,227,-30,-105,-94,-28,21
-72,-57,8,61,-42,-21,227,-24,-99,-100,-22,21
-72,-63,2,67,-42,-27,221,-30,-105,-100,-28,15
-84,-63,14,73,-54,-21,221,-42,-111,-106,-28,3
-84,-63,14,73,-54,-21,209,-48,-117,-106,-40,3
-84,-69,8,73,-48,-27,203,-42,-123,-100,-46,9
-66,-57,2,61,-36,-21,209,-36,-117,-94,-40,21
-54,-45,2,49,-30,-15,215,-30,-105,-94,-28,21
-42,-33,2,37,-24,-9,221,-18,-87,-82,-22,21
-36,-39,-4,37,-18,-21,233,-18,-81,-82,-10,21
-48,-27,14,37,-36,-4,227,-30,-87,-88,-16,15
-54,-33,14,43,-36,-4,227,-30,-93,-88,-22,15
-78,-45,26,61,-54,-4,227,-36,-99,-94,-22,21
-84,-51,26,67,-60,-9,221,-54,-111,-94,-28,21
-90,-57,26,73,-60,-9,215,-54,-111,-100,-40,9
-96,-81,8,85,-54,-33,215,-54,-111,-106,-40,3
-102,-87,8,91,-60,-33,209,-42,-117,-112,-46,3
-108,-87,14,97,-66,-33,209,-42,-117,-118,-52,3
-96,-81,8,85,-54,-33,215,-36,-111,-112,-46,3
-90,-75,8,79,-54,-27,215,-30,-105,-112,-40,3
-66,-63,-4,61,-36,-27,221,-18,-93,-100,-34,21
-54,-51,-4,49,-30,-21,227,-18,-81,-100,-28,21
-60,-45,8,49,-36,-15,227,-24,-87,-100,-34,15
-60,-45,8,49,-36,-15,221,-24,-87,-100,-34,15
-66,-45,14,55,-42,-9,215,-30,-93,-94,-34,3
-78,-51,20,61,-54,-9,215,-42,-99,-94,-34,3
-78,-69,2,73,-42,-27,215,-36,-99,-88,-34,3
-84,-69,8,73,-48,-27,215,-36,-105,-88,-40,-2
-78,-69,2,73,-42,-27,221,-24,-105,-82,-40,3
-72,-57,8,61,-42,-21,221,-24,-105,-82,-40,9
-78,-63,8,67,-48,-21,215,-30,-105,-88,-40,3
-84,-69,8,73,-48,-27,215,-30,-105,-88,-40,3
-102,-75,20,85,-66,-21,209,-36,-105,-100,-46,3
-108,-81,20,91,-66,-27,203,-48,-105,-100,-46,3
-102,-75,20,85,-66,-21,197,-48,-111,-106,-52,-2
-102,-69,26,85,-66,-15,197,-48,-111,-106,-52,-2
-78,-57,14,67,-48,-15,185,-48,-117,-106,-58,3
-78,-45,26,61,-54,-4,179,-42,-117,-100,-52,3
-72,-51,14,61,-48,-15,185,-36,-105,-94,-46,3
-66,-51,8,55,-42,-15,191,-30,-99,-88,-40,3
-60,-69,-4,61,-24,-39,197,-24,-93,-82,-34,3
-66,-69,-4,67,-30,-33,197,-36,-93,-82,-34,3
-66,-51,8,55,-42,-15,191,-42,-93,-88,-40,3
-60,-45,8,49,-36,-15,191,-42,-93,-94,-34,3
-60,-45,8,49,-36,-15,185,-54,-99,-100,-40,-8
-66,-39,20,49,-48,-4,179,-54,-99,-100,-46,-8
-66,-45,14,55,-42,-9,173,-48,-105,-100,-52,-8
-60,-51,2,55,-36,-21,173,-48,-105,-100,-52,-8
-60,-57,-4,55,-30,-27,179,-42,-111,-100,-58,-8
-60,-51,2,55,-36,-21,179,-42,-111,-100,-58,-2
-66,-57,2,61,-36,-21,179,-48,-105,-94,-52,3
-72,-63,2,67,-42,-27,179,-48,-111,-94,-52,3
-84,-75,2,79,-48,-33,173,-60,-111,-100,-46,3
-102,-75,20,85,-66,-21,167,-66,-111,-100,-46,-8
-90,-63,20,73,-60,-15,167,-66,-111,-94,-46,-8
-78,-57,14,67,-48,-15,167,-66,-111,-94,-52,-8
-66,-51,8,55,-42,-15,161,-60,-123,-100,-58,-8
-54,-45,2,49,-30,-15,161,-60,-123,-100,-58,-8
-60,-57,-4,55,-30,-27,167,-60,-123,-106,-58,-8
-66,-63,-4,61,-36,-27,167,-60,-117,-106,-58,-2
-72,-75,-4,73,-36,-39,155,-60,-123,-112,-58,-2
-78,-81,-4,79,-36,-39,155,-60,-123,-112,-52,-8
-78,-87,-4,79,-36,-45,155,-66,-117,-106,-58,-14
-78,-69,2,73,-42,-27,149,-66,-117,-106,-58,-14
-72,-51,14,61,-48,-15,149,-78,-117,-100,-64,-20
-72,-69,-4,67,-36,-33,149,-78,-117,-100,-70,-20
-78,-75,-4,73,-42,-33,149,-78,-117,-106,-70,-20
-78,-75,-4,73,-42,-33,149,-78,-117,-106,-70,-26
-84,-81,-4,79,-42,-39,149,-84,-117,-112,-70,-20
-84,-81,-4,79,-42,-39,149,-84,-117,-118,-70,-20
-72,-75,-4,73,-36,-39,155,-72,-117,-112,-70,-14
-72,-75,-4,73,-36,-39,149,-72,-117,-100,-70,-14
-72,-75,-4,73,-36,-39,143,-66,-123,-94,-70,-20
-78,-81,-4,79,-36,-39,137,-78,-129,-100,-70,-26
-78,-87,-4,79,-36,-45,131,-84,-135,-112,-82,-32
-78,-81,-4,79,-36,-39,137,-84,-135,-118,-82,-32
-78,-87,-4,79,-36,-45,131,-102,-141,-112,-88,-44
-90,-99,-4,91,-42,-51,125,-102,-141,-118,-88,-50
-84,-87,-4,85,-42,-45,119,-102,-135,-124,-88,-50
-66,-75,-4,67,-30,-39,125,-102,-135,-124,-88,-44
-90,-93,-4,91,-42,-45,119,-108,-135,-136,-94,-44
-102,-93,2,97,-54,-39,107,-108,-141,-136,-100,-56
-78,-81,-4,79,-36,-39,113,-102,-135,-130,-94,-38
-66,-75,-4,67,-30,-39,119,-90,-135,-124,-88,-38
-54,-69,-9,61,-18,-39,125,-84,-129,-118,-76,-32
-48,-75,-21,61,-12,-51,131,-84,-129,-112,-70,-32
-60,-75,-9,67,-24,-45,113,-96,-141,-124,-76,-32
-54,-39,8,43,-36,-9,113,-84,-129,-112,-64,-32
-54,-9,38,31,-48,8,113,-96,-129,-106,-70,-32
-54,-33,14,43,-36,-4,113,-96,-123,-106,-70,-26
-66,-51,8,55,-42,-15,113,-102,-129,-112,-76,-32
-72,-63,2,67,-42,-27,113,-102,-129,-112,-76,-32
-84,-81,-4,79,-42,-39,113,-108,-135,-118,-82,-38
-90,-93,-4,91,-42,-45,113,-108,-135,-118,-82,-38
-72,-81,-4,73,-30,-45,113,-102,-135,-124,-82,-50
-90,-75,8,79,-54,-27,113,-108,-141,-124,-82,-50
-84,-69,8,73,-48,-27,107,-102,-141,-118,-82,-56
-84,-63,14,73,-54,-21,107,-102,-141,-118,-82,-56
-78,-63,8,67,-48,-21,101,-108,-135,-124,-82,-50
-78,-69,2,73,-42,-27,101,-108,-135,-124,-82,-50
-72,-75,-4,73,-36,-39,95,-114,-135,-124,-82,-38
-66,-81,-9,73,-24,-45,95,-108,-135,-118,-82,-38
-66,-75,-4,67,-30,-39,89,-108,-129,-124,-82,-44
-54,-63,-4,55,-24,-33,95,-108,-129,-124,-82,-44
-42,-39,-4,37,-24,-15,113,-90,-117,-112,-64,-32
-42,-27,8,31,-30,-4,125,-78,-111,-100,-52,-20
-42,-15,20,25,-36,-4,137,-72,-99,-94,-52,-20
-42,-4,32,19,-42,8,137,-72,-93,-88,-46,-20
-36,-4,38,13,-36,14,155,-66,-81,-76,-40,-14
-36,2,44,7,-42,20,161,-60,-75,-70,-34,-8
-60,-4,62,25,-60,26,161,-60,-81,-76,-40,-14
-66,2,74,25,-72,38,161,-60,-87,-82,-46,-20
-72,8,86,25,-78,44,161,-66,-93,-82,-52,-20
-78,2,86,31,-84,44,155,-66,-93,-88,-58,-26
-84,-4,74,43,-84,26,161,-66,-99,-88,-64,-20
-78,-4,74,37,-78,32,167,-66,-93,-82,-52,-14
-84,-4,74,43,-84,26,161,-72,-99,-82,-58,-8
-102,-15,80,55,-96,26,161,-72,-99,-94,-64,-14
-96,-15,74,55,-90,20,161,-66,-93,-76,-58,-14
-84,-4,86,37,-84,38,161,-66,-81,-70,-46,-8
-78,8,92,25,-84,50,149,-60,-75,-52,-40,3
-78,26,110,19,-96,68,149,-54,-69,-46,-28,3
-60,56,122,1,-90,86,137,-54,-57,-28,-10,21
-42,80,128,-10,-84,104,131,-54,-57,-28,-4,21
-30,104,140,-28,-84,122,95,-66,-51,-34,2,27
-12,122,140,-46,-78,128,77,-66,-51,-34,14,45
-1,146,152,-64,-78,146,77,-54,-39,-16,19,57
-1,152,158,-70,-78,152,65,-48,-39,-10,19,57
5,140,128,-70,-54,134,47,-60,-39,-5,14,57
11,134,116,-70,-48,128,29,-66,-45,-10,8,51
5,122,110,-64,-48,116,17,-84,-57,-22,-10,39
-1,116,110,-58,-48,116,11,-90,-63,-34,-10,33
-1,92,98,-40,-48,92,5,-96,-69,-46,-22,15
-6,50,62,-16,-36,56,5,-108,-81,-64,-28,3
-1,20,20,-4,-6,20,5,-114,-87,-70,-34,3
11,32,14,-22,-1,26,5,-108,-87,-76,-34,3
17,26,2,-22,-1,14,11,-114,-93,-82,-34,3
11,8,-4,-10,5,2,11,-120,-93,-82,-46,-8
-1,-4,-4,1,-1,-4,23,-114,-87,-82,-40,-2
5,-4,-9,1,5,-4,29,-108,-87,-76,-46,-8
5,-4,-9,1,5,-4,35,-102,-81,-64,-46,-2
11,-4,-15,1,11,-4,41,-108,-93,-64,-52,-14
5,-21,-33,1,17,-27,47,-114,-105,-82,-64,-32
-1,-27,-27,7,5,-27,47,-120,-105,-94,-76,-44
-30,-39,-4,31,-12,-21,47,-132,-117,-112,-88,-56
-42,-69,-21,55,-6,-45,47,-144,-135,-124,-100,-74
-66,-81,-9,73,-24,-45,35,-162,-147,-136,-112,-86
-72,-99,-21,85,-24,-63,23,-174,-165,-154,-124,-98
-84,-117,-27,97,-24,-75,17,-186,-177,-166,-142,-110
-102,-135,-27,115,-36,-81,5,-192,-183,-178,-148,-122
-102,-129,-21,115,-36,-75,11,-192,-177,-178,-148,-116
-102,-135,-27,115,-36,-81,17,-186,-171,-172,-142,-122
-102,-129,-21,115,-36,-75,35,-180,-165,-166,-142,-116
-108,-123,-9,115,-48,-69,41,-180,-177,-166,-142,-122
-114,-141,-21,127,-42,-81,35,-186,-177,-172,-148,-134
-114,-147,-27,127,-42,-87,41,-180,-171,-172,-148,-134
-108,-153,-39,127,-30,-99,59,-180,-171,-190,-160,-128
-108,-147,-33,127,-36,-93,83,-174,-171,-178,-160,-128
-60,-99,-33,79,-12,-69,125,-150,-171,-166,-160,-128
-84,-99,-9,91,-36,-57,179,-144,-165,-166,-148,-128
-120,-129,-4,121,-54,-69,215,-132,-165,-160,-148,-140
-144,-135,2,139,-78,-63,233,-108,-147,-148,-154,-140
-114,-99,8,103,-66,-39,257,-60,-99,-124,-130,-134
-96,-93,-4,91,-48,-45,281,-30,-87,-112,-124,-122
-90,-81,2,85,-48,-33,215,-36,-87,-112,-124,-116
-54,-63,-4,55,-24,-33,89,-48,-75,-106,-118,-98
-6,-63,-51,31,11,-57,-18,-36,-51,-88,-88,-92
-6,-51,-39,25,5,-45,-114,-48,-57,-82,-76,-80
-1,-27,-33,7,11,-27,-168,-48,-51,-82,-70,-74
29,-15,-51,1,35,-33,-222,-24,-27,-58,-52,-68
53,-27,-87,-4,65,-57,-282,-24,-15,-46,-40,-68
83,-21,-111,-22,95,-63,-360,-30,9,-22,-28,-62
101,-21,-129,-34,113,-75,-432,-24,26,-5,2,-38
113,-57,-177,-22,143,-117,-498,-42,32,-5,14,-38
125,-81,-213,-16,167,-147,-552,-72,32,1,19,-20
155,-69,-231,-34,191,-147,-582,-84,44,13,19,3
197,-21,-225,-82,209,-123,-588,-84,50,19,37,9
179,-45,-231,-58,203,-135,-624,-138,26,25,43,3
161,-93,-255,-28,209,-177,-678,-210,26,19,37,9
173,-93,-267,-34,221,-183,-708,-246,26,31,49,27
173,-81,-255,-40,215,-171,-726,-246,26,37,61,33
161,-69,-237,-40,197,-153,-744,-240,56,85,79,63
203,-27,-237,-82,215,-129,-738,-210,104,121,121,81
239,-4,-243,-112,239,-123,-714,-192,146,157,151,105
239,-9,-249,-106,239,-129,-732,-210,158,169,157,117
239,-4,-243,-118,239,-117,-774,-264,146,163,157,123
269,14,-249,-142,257,-111,-852,-366,134,175,187,141
317,74,-243,-196,275,-75,-966,-516,86,193,211,189
365,134,-231,-244,293,-39,-1128,-690,32,187,247,243
383,110,-267,-244,323,-75,-1308,-852,3,205,283,279
431,98,-327,-262,377,-111,-1470,-972,-3,235,355,351
551,170,-381,-358,467,-99,-1608,-1110,-15,301,451,471
665,242,-417,-454,539,-81,-1734,-1224,-45,355,547,573
713,266,-441,-484,575,-81,-1800,-1260,-27,427,655,657
755,272,-483,-514,617,-99,-1836,-1260,3,499,763,735
827,290,-531,-556,683,-117,-1902,-1302,3,559,877,843
887,362,-519,-622,707,-75,-1956,-1326,15,637,1015,975
893,458,-435,-676,665,8,-1914,-1278,68,757,1189,1131
875,626,-243,-748,557,188,-1794,-1110,236,937,1369,1311
833,788,-39,-808,437,374,-1650,-912,380,1081,1483,1431
767,740,-21,-754,395,356,-1488,-726,386,1033,1417,1347
719,536,-177,-628,449,182,-1272,-552,308,829,1165,1083
659,392,-261,-520,461,62,-1038,-414,200,589,901,855
497,266,-231,-382,365,14,-846,-372,32,379,673,675
323,110,-213,-220,263,-45,-684,-378,-129,157,421,489
197,8,-183,-100,191,-81,-540,-378,-267,-40,193,303
113,14,-93,-64,101,-33,-420,-324,-309,-142,49,159
29,-21,-57,1,41,-39,-300,-222,-255,-142,-4,39
17,-81,-105,25,59,-93,-204,-132,-201,-118,-40,-8
41,-69,-117,7,77,-93,-132,-96,-165,-124,-64,-50
23,-57,-87,7,53,-69,-84,-66,-147,-124,-94,-86
-12,-93,-75,49,23,-87,-66,-48,-141,-118,-100,-104
-30,-105,-69,67,11,-87,-54,-48,-129,-118,-100,-92
-48,-99,-45,73,-1,-75,-42,-42,-129,-118,-106,-98
-60,-99,-33,79,-12,-69,-13,-24,-111,-112,-106,-98
-66,-99,-27,79,-18,-63,-1,-6,-99,-112,-112,-116
-72,-111,-33,91,-18,-75,11,-6,-93,-118,-124,-128
-78,-123,-39,97,-18,-81,17,5,-99,-124,-130,-140
-78,-147,-63,109,-6,-105,29,5,-99,-136,-142,-140
-84,-159,-69,121,-6,-117,35,0,-111,-148,-148,-164
-84,-171,-81,127,-1,-129,35,-6,-117,-154,-148,-170
-78,-159,-75,115,-1,-117,35,-18,-123,-172,-166,-182
-72,-153,-75,109,-1,-117,41,-18,-123,-172,-178,-188
-90,-141,-45,115,-18,-93,47,-18,-123,-178,-190,-194
-84,-135,-45,109,-18,-93,47,-18,-123,-178,-202,-194
-102,-141,-33,121,-30,-87,47,-18,-111,-172,-196,-194
-108,-153,-39,127,-30,-99,77,-6,-111,-172,-190,-194
-114,-165,-45,139,-30,-105,83,5,-111,-166,-184,-188
-120,-177,-51,145,-30,-117,83,5,-105,-166,-178,-188
-120,-171,-45,145,-36,-111,83,5,-99,-154,-172,-194
-108,-171,-57,139,-24,-117,71,5,-93,-154,-172,-188
-102,-159,-51,127,-24,-105,71,0,-87,-148,-172,-188
-102,-135,-27,115,-36,-81,65,0,-81,-142,-172,-182
-108,-135,-21,121,-42,-81,59,0,-81,-148,-172,-182
-114,-141,-21,127,-42,-81,65,0,-81,-148,-172,-182
-114,-141,-21,127,-42,-81,77,5,-75,-148,-166,-182
-102,-135,-27,115,-36,-81,95,5,-69,-142,-166,-182
-102,-123,-15,109,-42,-69,89,11,-69,-142,-160,-188
-114,-135,-15,121,-48,-75,89,11,-69,-148,-160,-188
-114,-147,-27,127,-42,-87,83,11,-63,-154,-154,-194
-102,-147,-39,121,-30,-93,89,11,-63,-154,-154,-194
-96,-147,-45,121,-24,-99,83,11,-69,-148,-166,-194
-108,-153,-39,127,-30,-99,77,11,-69,-148,-166,-194
-114,-153,-33,133,-36,-93,71,11,-69,-148,-166,-200
-96,-153,-51,121,-18,-105,71,17,-63,-148,-160,-200
-96,-135,-33,115,-30,-87,77,29,-57,-142,-160,-194
-90,-129,-33,109,-24,-81,83,35,-51,-142,-160,-194
-90,-129,-33,109,-24,-81,89,35,-39,-136,-154,-200
-90,-129,-33,109,-24,-81,95,41,-33,-136,-148,-200
-84,-129,-39,103,-18,-87,89,41,-39,-130,-154,-200
-90,-129,-33,109,-24,-81,89,41,-39,-130,-160,-200
-108,-147,-33,127,-36,-93,89,35,-45,-136,-166,-206
-114,-159,-39,133,-36,-99,89,29,-39,-136,-166,-206
-84,-141,-51,109,-12,-99,83,41,-27,-124,-160,-200
-84,-129,-39,103,-18,-87,95,53,-21,-118,-166,-200
-78,-117,-33,97,-18,-75,95,65,-9,-118,-160,-200
-90,-117,-21,103,-30,-69,95,83,-3,-118,-160,-200
-90,-123,-27,103,-30,-75,89,83,-9,-124,-160,-200
-102,-129,-21,115,-36,-75,95,89,-9,-118,-154,-200
-102,-129,-21,115,-36,-75,95,89,-15,-124,-154,-206
-102,-123,-15,109,-42,-69,101,83,-9,-112,-148,-206
-90,-123,-27,103,-30,-75,107,95,3,-106,-142,-200
-90,-123,-27,103,-30,-75,101,101,3,-106,-142,-194
-102,-135,-27,115,-36,-81,95,119,9,-106,-136,-188
-90,-117,-21,103,-30,-69,95,125,15,-106,-130,-176
-72,-105,-27,85,-18,-69,101,137,26,-100,-124,-170
-84,-105,-15,91,-30,-63,107,149,32,-76,-112,-170
-78,-99,-15,85,-30,-57,119,173,38,-70,-106,-164
-78,-87,-4,79,-36,-45,131,185,50,-64,-100,-158
-96,-105,-4,97,-42,-57,125,179,44,-70,-106,-158
-102,-111,-4,103,-48,-57,131,203,56,-58,-100,-170
-102,-111,-4,103,-48,-57,125,197,56,-64,-106,-176
-108,-105,-4,103,-54,-51,107,203,68,-64,-106,-176
-102,-111,-4,103,-48,-57,107,215,74,-64,-106,-176
-102,-111,-4,103,-48,-57,125,227,86,-52,-100,-164
-102,-117,-9,109,-42,-63,137,239,104,-46,-94,-170
-114,-117,-4,115,-54,-57,143,251,110,-40,-88,-170
-90,-93,-4,91,-42,-45,149,263,116,-34,-82,-164
-84,-81,-4,79,-42,-39,155,275,128,-28,-76,-158
-72,-69,-4,67,-36,-33,155,281,134,-22,-82,-158
-72,-63,2,67,-42,-27,155,281,140,-22,-82,-158
-78,-69,2,73,-42,-27,149,293,152,-16,-70,-164
-66,-57,2,61,-36,-21,149,311,164,-5,-58,-152
-66,-63,-4,61,-36,-27,155,323,182,7,-52,-152
-66,-63,-4,61,-36,-27,173,341,194,19,-46,-146
-72,-57,8,61,-42,-21,179,347,200,19,-34,-140
-78,-57,14,67,-48,-15,179,359,206,25,-28,-140
-84,-57,20,67,-54,-15,173,359,218,25,-16,-134
-78,-57,14,67,-48,-15,173,377,224,43,-10,-128
-78,-51,20,61,-54,-9,179,383,230,43,-10,-128
-78,-39,32,55,-60,-4,167,383,236,49,-4,-122
-78,-15,56,43,-72,14,173,383,236,55,-10,-128
-78,-15,56,43,-72,14,173,389,248,61,-10,-128
-72,-21,44,43,-60,2,167,407,254,67,-4,-116
-72,-21,44,43,-60,2,179,413,266,73,-4,-116
-66,-9,50,37,-60,14,185,425,284,79,8,-104
-66,-4,56,31,-66,20,191,437,284,97,19,-92
-60,-4,62,25,-60,26,191,443,284,103,25,-74
-48,2,56,13,-54,26,191,449,296,115,31,-74
-48,14,68,7,-60,38,191,461,308,127,43,-62
-42,20,68,1,-54,44,185,467,314,133,49,-56
-36,20,62,1,-48,38,179,467,320,145,55,-50
-36,38,80,1,-60,56,173,473,326,151,61,-44
-42,38,86,1,-66,62,173,473,338,157,67,-44
-42,44,92,1,-66,68,173,473,350,163,79,-44
-36,56,98,-4,-66,74,161,473,356,175,91,-26
-30,74,110,-16,-72,92,161,473,362,181,109,-8
-36,74,116,-10,-78,92,143,473,362,193,127,3
-36,86,128,-16,-84,104,137,473,362,199,127,3
-12,104,122,-40,-66,110,137,467,362,211,145,9
-1,110,116,-46,-60,110,137,467,386,217,157,27
-1,122,122,-58,-60,122,131,461,386,223,157,27
-1,128,134,-58,-66,128,119,437,386,229,163,27
-1,128,128,-58,-60,128,119,425,386,235,169,45
11,146,128,-76,-54,140,113,419,386,235,181,51
17,158,134,-88,-54,146,89,413,386,235,187,57
11,140,122,-76,-48,134,71,395,380,235,187,63
5,134,122,-70,-54,128,53,383,374,241,187,69
11,146,128,-76,-54,140,41,377,374,253,205,87
11,140,122,-76,-48,134,23,359,368,259,199,87
5,152,140,-76,-60,146,17,347,380,259,211,81
11,146,128,-76,-54,140,-7,335,380,259,223,87
17,152,128,-82,-48,140,-13,317,374,271,229,93
23,152,122,-88,-42,140,-13,305,374,265,235,105
23,152,122,-88,-42,140,-18,299,374,265,235,111
23,152,122,-88,-42,140,-42,287,368,271,241,117
23,152,122,-88,-42,140,-60,275,368,271,241,117
35,152,110,-94,-30,134,-84,263,356,271,247,123
41,152,104,-94,-24,128,-90,251,350,265,247,123
53,152,92,-100,-12,122,-90,239,344,259,235,117
53,146,86,-100,-12,116,-96,221,326,247,229,117
47,140,86,-94,-12,116,-108,191,302,235,205,99
47,134,80,-88,-12,110,-126,173,284,229,193,81
41,128,80,-82,-12,104,-132,155,266,199,169,69
29,128,92,-76,-24,110,-132,143,248,175,151,57
23,110,80,-64,-24,98,-132,125,230,151,127,39
17,110,86,-64,-30,98,-144,107,218,133,97,27
5,98,86,-52,-36,92,-150,89,200,121,85,21
-1,74,74,-34,-36,74,-156,65,170,97,67,3
-6,62,74,-22,-42,68,-162,53,152,85,49,-8
-12,56,74,-16,-42,62,-174,17,128,55,31,-26
-12,44,62,-10,-36,50,-180,5,104,43,19,-38
-36,20,62,1,-48,38,-180,-12,74,25,-4,-62
-36,8,50,7,-42,26,-174,-18,56,7,-16,-74
-36,8,50,7,-42,26,-180,-30,50,-5,-22,-74
-24,-4,26,7,-24,8,-180,-36,32,-5,-46,-80
-24,-4,20,7,-24,2,-180,-42,26,-16,-52,-86
-24,-9,8,13,-18,-4,-168,-48,26,-22,-64,-98
-24,-21,-4,19,-12,-9,-168,-66,26,-40,-76,-110
-36,-33,-4,31,-18,-15,-174,-78,9,-52,-88,-128
-42,-39,-4,37,-24,-15,-186,-90,3,-70,-100,-140
-42,-57,-9,49,-12,-33,-198,-102,-9,-82,-100,-146
-48,-63,-9,55,-18,-39,-198,-114,-15,-82,-106,-152
-48,-69,-15,55,-12,-45,-204,-114,-21,-94,-112,-152
-42,-69,-21,55,-6,-45,-198,-120,-33,-100,-118,-152
-42,-75,-27,55,-6,-51,-204,-120,-39,-106,-124,-158
-54,-75,-15,61,-18,-45,-210,-120,-63,-112,-130,-158
-54,-81,-21,67,-12,-51,-210,-132,-57,-106,-130,-152
-48,-63,-9,55,-18,-39,-204,-132,-45,-106,-130,-152
-48,-39,2,43,-30,-15,-204,-138,-39,-100,-130,-152
-48,-51,-4,49,-24,-27,-210,-144,-33,-106,-130,-158
-48,-69,-15,55,-12,-45,-204,-138,-33,-100,-124,-158
-60,-81,-15,67,-18,-51,-204,-138,-33,-106,-136,-158
-54,-87,-27,67,-12,-57,-204,-132,-45,-100,-130,-158
-60,-105,-39,79,-6,-75,-204,-126,-45,-106,-124,-158
-78,-111,-27,91,-24,-69,-210,-132,-51,-112,-130,-164
-84,-111,-21,97,-30,-69,-222,-132,-51,-112,-130,-170
-84,-111,-21,97,-30,-69,-204,-138,-51,-118,-136,-176
-78,-99,-15,85,-30,-57,-192,-144,-51,-112,-136,-170
-66,-81,-9,73,-24,-45,-192,-144,-45,-106,-136,-164
-66,-81,-9,73,-24,-45,-192,-144,-45,-106,-136,-170
-60,-93,-27,73,-12,-63,-198,-144,-51,-106,-136,-164
-66,-93,-21,79,-18,-57,-204,-144,-57,-106,-136,-164
-54,-87,-27,67,-12,-57,-198,-144,-57,-106,-142,-164
-48,-81,-27,61,-6,-57,-198,-144,-57,-106,-142,-164
-42,-87,-39,61,-1,-63,-204,-144,-51,-112,-148,-176
-36,-69,-27,49,-1,-51,-204,-144,-45,-112,-154,-176
-48,-75,-21,61,-12,-51,-210,-144,-45,-112,-148,-170
-54,-75,-15,61,-18,-45,-210,-144,-45,-112,-148,-164
-66,-81,-9,73,-24,-45,-198,-144,-51,-106,-142,-158
-78,-87,-4,79,-36,-45,-192,-144,-51,-106,-142,-158
-78,-81,-4,79,-36,-39,-198,-144,-51,-106,-142,-164
-66,-81,-9,73,-24,-45,-198,-138,-57,-106,-142,-164
-48,-63,-9,55,-18,-39,-198,-132,-51,-106,-136,-176
-60,-63,-4,61,-30,-33,-204,-132,-51,-106,-136,-176
-72,-81,-4,73,-30,-45,-204,-132,-51,-106,-130,-176
-72,-81,-4,73,-30,-45,-204,-144,-51,-112,-136,-176
-72,-87,-9,79,-30,-51,-192,-138,-51,-118,-130,-170
-72,-81,-4,73,-30,-45,-186,-138,-45,-118,-130,-164
-60,-81,-15,67,-18,-51,-180,-126,-45,-112,-136,-164
-60,-75,-9,67,-24,-45,-180,-126,-45,-112,-136,-164
-42,-75,-27,55,-6,-51,-186,-132,-51,-100,-142,-170
-54,-81,-21,67,-12,-51,-186,-132,-51,-100,-136,-170
-60,-87,-21,73,-18,-57,-186,-126,-51,-100,-142,-158
-60,-93,-27,73,-12,-63,-186,-126,-51,-94,-148,-158
-72,-99,-21,85,-24,-63,-186,-126,-51,-94,-154,-170
-72,-105,-27,85,-18,-69,-186,-120,-51,-100,-154,-170
-66,-105,-33,85,-12,-69,-186,-120,-45,-100,-148,-164
-78,-99,-15,85,-30,-57,-180,-126,-51,-106,-148,-176
-72,-93,-15,79,-24,-57,-180,-126,-45,-106,-148,-170
-72,-93,-15,79,-24,-57,-180,-114,-51,-100,-154,-158
-66,-87,-15,73,-24,-51,-180,-114,-51,-94,-148,-158
-60,-81,-15,67,-18,-51,-180,-108,-45,-94,-142,-158
-60,-75,-9,67,-24,-45,-180,-102,-33,-82,-136,-170
-60,-87,-21,73,-18,-57,-168,-102,-33,-82,-130,-170
-48,-57,-4,49,-18,-33,-162,-102,-33,-82,-130,-176
-42,-51,-4,43,-18,-27,-162,-102,-33,-82,-130,-170
-42,-45,-4,43,-18,-21,-156,-96,-33,-82,-124,-164
-36,-39,-4,37,-18,-21,-162,-114,-39,-82,-124,-158
-48,-51,-4,49,-24,-27,-168,-114,-45,-88,-136,-170
-60,-75,-9,67,-24,-45,-168,-114,-45,-88,-136,-170
-72,-87,-9,79,-30,-51,-174,-102,-57,-94,-142,-170
-84,-87,-4,85,-42,-45,-174,-102,-57,-94,-148,-170
-84,-87,-4,85,-42,-45,-168,-102,-51,-94,-142,-164
-84,-87,-4,85,-42,-45,-168,-96,-51,-94,-142,-164
-72,-81,-4,73,-30,-45,-162,-90,-39,-88,-136,-146
-66,-75,-4,67,-30,-39,-150,-90,-33,-88,-136,-146
-72,-75,-4,73,-36,-39,-150,-96,-39,-94,-136,-152
-72,-75,-4,73,-36,-39,-156,-96,-33,-94,-136,-152
-78,-81,-4,79,-36,-39,-156,-102,-39,-94,-130,-164
-90,-87,-4,85,-48,-39,-156,-114,-39,-94,-130,-164
-84,-99,-9,91,-36,-57,-162,-108,-39,-88,-124,-164
-84,-93,-4,85,-36,-51,-162,-108,-45,-88,-130,-176
-72,-87,-9,79,-30,-51,-162,-96,-45,-82,-124,-158
-60,-69,-4,61,-24,-39,-162,-96,-45,-82,-124,-146
-60,-75,-9,67,-24,-45,-162,-96,-39,-82,-124,-152
-60,-75,-9,67,-24,-45,-162,-96,-39,-82,-130,-152
-72,-81,-4,73,-30,-45,-162,-96,-33,-88,-136,-164
-72,-81,-4,73,-30,-45,-168,-108,-33,-88,-142,-164
-72,-81,-4,73,-30,-45,-168,-102,-39,-94,-136,-164
-72,-81,-4,73,-30,-45,-168,-102,-39,-94,-136,-158
-54,-75,-15,61,-18,-45,-174,-96,-45,-94,-130,-146
-54,-69,-9,61,-18,-39,-180,-90,-45,-88,-124,-140
-54,-63,-4,55,-24,-33,-174,-90,-39,-82,-124,-146
-54,-63,-4,55,-24,-33,-168,-84,-39,-82,-124,-146
-54,-69,-9,61,-18,-39,-162,-84,-39,-76,-124,-152
-66,-69,-4,67,-30,-33,-162,-96,-45,-82,-130,-152
-66,-57,2,61,-36,-21,-168,-96,-45,-88,-136,-158
-60,-57,-4,55,-30,-27,-168,-96,-45,-94,-130,-158
-60,-63,-4,61,-30,-33,-174,-102,-51,-100,-136,-164
-66,-63,-4,61,-36,-27,-180,-102,-51,-100,-142,-164
-66,-69,-4,67,-30,-33,-180,-102,-51,-94,-136,-164
-60,-75,-9,67,-24,-45,-180,-102,-51,-94,-136,-164
-60,-81,-15,67,-18,-51,-168,-102,-51,-88,-130,-164
-60,-75,-9,67,-24,-45,-168,-102,-51,-88,-130,-158
-54,-75,-15,61,-18,-45,-162,-96,-51,-82,-130,-152
-54,-81,-21,67,-12,-51,-162,-96,-57,-82,-130,-152
-54,-87,-27,67,-12,-57,-162,-96,-63,-88,-130,-152
-66,-87,-15,73,-24,-51,-168,-102,-63,-88,-130,-164
-60,-75,-9,67,-24,-45,-168,-108,-57,-88,-130,-158
-60,-69,-4,61,-24,-39,-168,-108,-57,-88,-136,-152
-54,-63,-4,55,-24,-33,-174,-108,-63,-100,-142,-146
-54,-57,-4,55,-24,-27,-174,-108,-63,-100,-142,-140
-60,-63,-4,61,-30,-33,-168,-114,-63,-100,-142,-146
-60,-63,-4,61,-30,-33,-168,-114,-57,-100,-142,-140
-66,-69,-4,67,-30,-33,-180,-120,-63,-100,-142,-146
-66,-69,-4,67,-30,-33,-180,-120,-63,-100,-136,-152
-72,-87,-9,79,-30,-51,-174,-114,-57,-94,-136,-152
-72,-75,-4,73,-36,-39,-180,-114,-57,-94,-130,-152
-72,-69,-4,67,-36,-33,-174,-114,-57,-88,-130,-152
-72,-93,-15,79,-24,-57,-174,-114,-57,-88,-130,-152
-66,-87,-15,73,-24,-51,-168,-114,-57,-88,-130,-152
-66,-81,-9,73,-24,-45,-168,-114,-57,-88,-130,-152
-60,-75,-9,67,-24,-45,-162,-120,-57,-88,-130,-146
-60,-69,-4,61,-24,-39,-162,-120,-57,-94,-130,-140
-48,-63,-9,55,-18,-39,-156,-108,-51,-88,-130,-134
-48,-57,-4,49,-18,-33,-162,-108,-51,-82,-130,-134
-48,-57,-4,49,-18,-33,-168,-102,-51,-76,-130,-140
-54,-57,-4,55,-24,-27,-174,-114,-57,-88,-130,-146
-66,-69,-4,67,-30,-33,-186,-126,-69,-106,-148,-158
-42,-39,-4,37,-24,-15,-168,-114,-69,-94,-136,-146
-66,-87,-15,73,-24,-51,-168,-126,-81,-106,-148,-164
-90,-123,-27,103,-30,-75,-186,-126,-81,-106,-148,-158
-78,-105,-21,91,-24,-63,-174,-120,-63,-94,-130,-146
-78,-93,-9,85,-30,-51,-174,-126,-69,-94,-136,-152
-78,-87,-4,79,-36,-45,-174,-126,-75,-94,-136,-152
-78,-75,-4,73,-42,-33,-174,-132,-81,-94,-142,-158
-78,-69,2,73,-42,-27,-174,-132,-87,-94,-142,-158
-54,-63,-4,55,-24,-33,-168,-132,-81,-100,-142,-158
-66,-63,-4,61,-36,-27,-168,-138,-87,-100,-142,-158
-54,-63,-4,55,-24,-33,-168,-138,-81,-94,-142,-152
-48,-63,-9,55,-18,-39,-168,-138,-81,-94,-142,-152
-54,-63,-4,55,-24,-33,-168,-138,-75,-100,-142,-158
-54,-69,-9,61,-18,-39,-168,-138,-75,-100,-142,-158
-60,-75,-9,67,-24,-45,-168,-138,-75,-100,-142,-158
-54,-81,-21,67,-12,-51,-168,-132,-75,-94,-142,-158
-60,-75,-9,67,-24,-45,-174,-132,-75,-100,-148,-164
-54,-57,-4,55,-24,-27,-168,-132,-75,-100,-148,-158
-48,-33,8,37,-30,-9,-150,-114,-69,-88,-136,-146
-54,-15,32,31,-48,2,-138,-102,-63,-76,-124,-128
-54,-21,26,37,-42,-4,-132,-90,-51,-70,-118,-122
-54,-15,32,31,-48,2,-132,-90,-39,-64,-112,-122
-48,-21,20,31,-36,-4,-120,-78,-27,-52,-100,-110
-48,-21,20,31,-36,-4,-114,-72,-15,-46,-94,-104
-54,-9,38,31,-48,8,-102,-66,-15,-46,-88,-98
-54,-4,50,25,-54,20,-96,-66,-15,-46,-88,-98
-42,14,62,7,-54,38,-84,-66,-15,-40,-82,-86
-42,14,62,7,-54,38,-84,-66,-9,-40,-82,-86
-48,8,62,13,-54,32,-72,-66,-15,-40,-88,-92
-36,26,68,1,-54,44,-66,-66,-9,-34,-76,-86
-42,32,80,1,-60,56,-66,-72,-15,-34,-82,-92
-54,32,92,1,-72,62,-66,-72,-15,-46,-88,-98
-60,20,86,13,-72,50,-66,-72,-21,-40,-94,-92
-48,32,86,1,-66,56,-66,-72,-9,-40,-82,-86
-54,32,92,1,-72,62,-78,-72,-15,-34,-88,-68
-54,38,98,1,-78,68,-78,-66,-9,-34,-76,-56
-42,68,116,-4,-78,92,-84,-66,-3,-10,-64,-44
-36,98,140,-22,-90,116,-90,-66,-3,-10,-58,-44
-30,122,158,-40,-96,140,-120,-78,-3,-10,-58,-44
-24,146,176,-52,-102,158,-138,-78,-3,-10,-46,-26
-18,164,188,-64,-102,176,-138,-66,9,-5,-34,-14
-18,164,188,-64,-102,176,-144,-60,15,-5,-34,-14
-6,146,158,-64,-84,152,-162,-72,15,1,-34,-14
-1,134,140,-58,-72,134,-174,-78,15,-5,-40,-20
-1,134,134,-64,-66,134,-186,-96,-3,-5,-52,-26
-1,134,134,-64,-66,134,-198,-102,-9,-10,-52,-26
-1,122,122,-58,-60,122,-204,-108,-21,-16,-58,-38
-1,86,86,-40,-42,86,-210,-120,-33,-28,-64,-56
5,68,56,-34,-18,62,-210,-114,-33,-22,-64,-56
23,80,50,-52,-6,68,-210,-108,-33,-28,-64,-56
29,86,50,-58,-6,68,-204,-102,-33,-22,-58,-56
23,68,38,-46,-1,56,-204,-108,-33,-22,-70,-68
-1,38,32,-16,-12,38,-198,-114,-33,-40,-76,-68
-1,20,20,-4,-6,20,-192,-114,-33,-40,-82,-74
-6,2,14,1,-12,8,-192,-120,-33,-46,-94,-74
-12,-4,8,1,-12,-4,-186,-132,-45,-52,-100,-86
-6,-15,-4,7,-1,-9,-186,-126,-57,-64,-112,-98
-12,-15,-4,13,-6,-9,-186,-132,-57,-76,-124,-110
-36,-21,8,25,-24,-4,-192,-132,-69,-88,-136,-116
-42,-45,-4,43,-18,-21,-192,-144,-87,-100,-148,-134
-54,-45,2,49,-30,-15,-186,-156,-87,-106,-142,-134
-54,-51,-4,49,-30,-21,-180,-162,-99,-112,-148,-140
-54,-57,-4,55,-24,-27,-168,-168,-99,-118,-148,-140
-66,-63,-4,61,-36,-27,-162,-168,-99,-118,-148,-146
-66,-69,-4,67,-30,-33,-168,-174,-99,-130,-160,-146
-66,-81,-9,73,-24,-45,-162,-174,-99,-130,-160,-152
-66,-87,-15,73,-24,-51,-156,-174,-99,-136,-172,-152
-72,-87,-9,79,-30,-51,-150,-180,-117,-142,-178,-158
-78,-93,-9,85,-30,-51,-150,-180,-117,-136,-172,-170
-78,-99,-15,85,-30,-57,-144,-174,-111,-136,-172,-170
-72,-93,-15,79,-24,-57,-120,-168,-111,-142,-172,-164
-72,-87,-9,79,-30,-51,-96,-162,-111,-130,-172,-164
-72,-99,-21,85,-24,-63,-78,-150,-99,-130,-184,-176
-84,-111,-21,97,-30,-69,-48,-144,-93,-142,-184,-188
-108,-93,8,97,-60,-39,-13,-132,-93,-136,-184,-176
-72,-63,2,67,-42,-27,23,-108,-75,-124,-178,-176
-66,-39,20,49,-48,-4,47,-84,-75,-112,-166,-170
-96,-57,32,73,-66,-9,71,-54,-51,-100,-160,-158
-90,-69,14,79,-54,-21,71,-36,-39,-76,-136,-140
-42,-51,-4,43,-18,-27,17,-24,-27,-70,-118,-122
-6,-15,-4,7,-1,-9,-90,-24,-15,-64,-100,-116
-6,-27,-15,13,-1,-21,-210,-36,3,-58,-100,-116
-12,-39,-21,25,-1,-33,-282,-36,9,-46,-82,-98
41,-15,-63,-4,47,-39,-336,0,32,-22,-76,-80
65,-4,-75,-22,65,-39,-402,5,44,-5,-64,-80
35,-45,-87,1,59,-63,-498,-18,32,-10,-76,-86
29,-69,-105,13,65,-87,-606,-36,32,-10,-70,-86
89,-45,-141,-16,113,-93,-666,-42,56,7,-34,-62
125,-21,-153,-46,137,-87,-708,-48,80,37,-4,-32
155,-33,-195,-52,173,-111,-726,-72,92,49,19,-20
173,-9,-189,-76,179,-99,-732,-60,110,55,25,-2
167,-21,-195,-64,179,-105,-750,-90,98,61,31,3
161,-57,-225,-46,191,-141,-792,-150,98,67,25,-2
185,-69,-255,-52,221,-165,-846,-204,98,79,37,3
233,-4,-237,-112,233,-117,-864,-204,128,109,73,33
263,50,-213,-160,239,-75,-870,-186,164,145,103,63
269,32,-237,-154,251,-93,-900,-186,188,169,133,93
239,-4,-243,-112,239,-123,-912,-180,206,193,151,93
215,-9,-231,-94,221,-117,-918,-186,206,205,157,81
221,-4,-219,-106,221,-105,-918,-210,206,211,157,87
245,14,-231,-130,239,-99,-960,-258,206,223,175,105
257,50,-207,-154,233,-69,-1044,-390,170,229,187,141
293,98,-195,-196,239,-39,-1176,-570,116,223,211,201
371,134,-237,-250,299,-45,-1320,-714,98,235,259,267
443,158,-279,-298,359,-57,-1476,-834,92,283,331,327
539,206,-333,-370,437,-57,-1644,-966,92,337,427,423
653,254,-393,-454,521,-63,-1794,-1134,50,391,523,513
731,290,-441,-508,587,-69,-1896,-1212,44,451,631,621
779,320,-459,-550,617,-63,-1920,-1212,74,535,745,717
839,350,-489,-592,665,-63,-1968,-1230,86,595,841,795
899,386,-507,-640,707,-57,-2058,-1278,74,637,925,879
953,446,-501,-700,731,-21,-2064,-1278,104,715,1057,1011
971,554,-411,-760,689,68,-1968,-1182,212,865,1237,1185
893,686,-207,-784,545,236,-1848,-1002,368,1033,1405,1347
791,752,-33,-772,413,356,-1716,-822,482,1117,1465,1395
749,656,-93,-706,425,278,-1518,-648,452,1003,1327,1245
707,428,-273,-562,485,74,-1296,-480,326,763,1051,975
569,278,-285,-424,431,-4,-1092,-396,200,541,811,753
443,236,-201,-340,317,14,-906,-354,50,343,595,591
335,176,-159,-250,245,2,-744,-342,-93,139,355,411
221,74,-141,-148,179,-27,-594,-312,-207,-10,157,249
125,2,-117,-64,119,-51,-456,-240,-213,-94,31,147
65,-9,-81,-22,71,-45,-342,-144,-141,-82,-4,63
5,-57,-69,19,35,-63,-258,-96,-117,-100,-52,-26
-24,-81,-51,49,5,-69,-216,-90,-123,-124,-94,-74
-24,-69,-39,43,-1,-57,-174,-72,-93,-118,-100,-92
-18,-69,-45,43,5,-57,-138,-36,-69,-82,-76,-92
-42,-75,-27,55,-6,-51,-126,-24,-63,-76,-76,-86
-54,-81,-21,67,-12,-51,-90,-6,-45,-70,-76,-86
-66,-93,-21,79,-18,-57,-66,5,-27,-64,-76,-92
-72,-111,-33,91,-18,-75,-48,5,-21,-70,-88,-104
-66,-105,-33,85,-12,-69,-36,17,-21,-76,-106,-116
-66,-117,-45,91,-6,-81,-24,17,-21,-88,-118,-116
-60,-111,-45,85,-6,-81,-13,11,-27,-100,-136,-140
-60,-111,-45,85,-6,-81,-13,5,-33,-106,-136,-146
-60,-111,-45,85,-6,-81,-13,5,-33,-112,-142,-146
-60,-111,-45,85,-6,-81,-13,5,-33,-112,-148,-152
-84,-111,-21,97,-30,-69,-1,5,-27,-106,-148,-146
-84,-111,-21,97,-30,-69,-1,5,-27,-106,-154,-146
-102,-117,-9,109,-42,-63,5,5,-15,-100,-148,-146
-102,-123,-15,109,-42,-69,35,11,-15,-100,-148,-146
-108,-135,-21,121,-42,-81,47,29,-15,-94,-142,-140
-108,-141,-27,121,-36,-87,47,29,-9,-94,-142,-140
-108,-141,-27,121,-36,-87,47,23,-15,-100,-142,-158
-96,-141,-39,115,-24,-93,35,17,-15,-106,-148,-158
-90,-135,-39,109,-24,-87,35,5,-21,-118,-154,-170
-90,-111,-15,97,-36,-63,29,5,-21,-118,-160,-170
-90,-111,-15,97,-36,-63,35,5,-15,-112,-154,-158
-96,-117,-15,103,-36,-69,41,5,-15,-112,-154,-152
-90,-117,-21,103,-30,-69,65,23,-3,-100,-142,-140
-78,-111,-27,91,-24,-69,83,29,3,-94,-142,-134
-84,-99,-9,91,-36,-57,83,35,9,-94,-142,-140
-102,-111,-4,103,-48,-57,83,35,9,-100,-142,-146
-108,-123,-9,115,-48,-69,83,35,21,-106,-142,-152
-102,-123,-15,109,-42,-69,89,35,21,-106,-142,-158
-90,-111,-15,97,-36,-63,95,35,21,-94,-142,-152
-96,-111,-9,103,-42,-63,89,35,21,-94,-142,-152
-96,-99,-4,97,-48,-51,95,35,26,-88,-130,-152
-72,-93,-15,79,-24,-57,95,41,26,-88,-124,-152
-78,-87,-4,79,-36,-45,101,53,26,-82,-118,-140
-78,-93,-9,85,-30,-51,107,59,26,-82,-118,-134
-84,-105,-15,91,-30,-63,113,59,32,-76,-106,-134
-90,-117,-21,103,-30,-69,119,65,38,-76,-100,-128
-90,-123,-27,103,-30,-75,113,65,32,-76,-106,-134
-102,-129,-21,115,-36,-75,113,65,26,-82,-112,-134
-126,-153,-21,139,-48,-87,113,59,26,-94,-118,-146
-138,-171,-27,151,-54,-99,113,53,26,-100,-118,-146
-108,-147,-33,127,-36,-93,113,65,32,-82,-112,-134
-102,-123,-15,109,-42,-69,125,71,38,-70,-118,-134
-96,-105,-4,97,-42,-57,131,83,50,-64,-112,-128
-102,-93,2,97,-54,-39,131,95,56,-58,-112,-128
-96,-99,-4,97,-48,-51,137,107,62,-64,-112,-128
-102,-105,-4,103,-48,-51,143,119,62,-58,-106,-128
-96,-105,-4,97,-42,-57,155,131,68,-64,-106,-134
-90,-99,-4,91,-42,-51,161,131,74,-52,-100,-134
-72,-93,-15,79,-24,-57,173,131,86,-40,-94,-128
-72,-93,-15,79,-24,-57,173,137,86,-40,-94,-128
-78,-99,-15,85,-30,-57,173,143,92,-34,-88,-122
-66,-81,-9,73,-24,-45,179,149,98,-34,-82,-116
-66,-87,-15,73,-24,-51,173,155,104,-40,-88,-116
-90,-93,-4,91,-42,-45,173,161,110,-22,-76,-116
-102,-105,-4,103,-48,-51,173,179,104,-28,-82,-116
-114,-99,8,103,-66,-39,179,185,110,-28,-76,-110
-108,-105,-4,103,-54,-51,185,191,116,-22,-70,-104
-102,-99,-4,97,-54,-45,203,215,134,-5,-64,-110
-78,-87,-4,79,-36,-45,209,221,146,-5,-58,-110
-72,-69,-4,67,-36,-33,203,227,164,-5,-58,-104
-66,-57,2,61,-36,-21,209,239,164,-5,-52,-98
-60,-51,2,55,-36,-21,227,245,176,7,-46,-86
-60,-39,14,49,-42,-9,239,257,188,13,-34,-86
-66,-33,26,49,-48,-4,245,275,194,19,-28,-86
-60,-27,26,43,-48,-4,251,287,194,25,-22,-80
-66,-27,32,43,-54,-4,257,299,206,31,-16,-74
-72,-33,32,49,-54,-4,257,305,206,37,-22,-74
-84,-39,38,61,-66,-4,257,305,212,37,-22,-74
-90,-45,38,67,-66,-4,251,305,212,31,-22,-80
-84,-39,38,61,-66,-4,251,323,224,43,-10,-74
-84,-45,32,61,-60,-4,257,323,230,43,-16,-74
-90,-51,32,67,-66,-4,275,341,242,43,-10,-74
-90,-39,44,61,-72,-4,287,353,248,49,2,-68
-96,-39,50,67,-78,-4,293,365,254,55,8,-68
-96,-33,56,61,-78,2,293,371,266,61,19,-62
-90,-33,50,61,-72,2,299,389,266,79,19,-56
-84,-33,44,55,-66,-4,305,407,284,85,25,-44
-84,-21,56,49,-72,8,299,407,290,91,37,-38
-78,-4,68,37,-78,26,305,419,302,103,43,-32
-78,-4,68,37,-78,26,311,425,314,109,49,-32
-78,-4,68,37,-78,26,311,437,314,121,55,-20
-78,-4,68,37,-78,26,323,443,326,127,55,-20
-78,2,86,31,-84,44,335,449,344,139,67,-8
-78,8,92,25,-84,50,341,461,344,157,79,3
-78,8,92,25,-84,50,335,467,344,157,85,3
-66,14,86,19,-78,50,335,473,356,163,91,3
-72,14,92,19,-84,50,329,485,368,169,91,9
-66,20,92,13,-78,56,323,491,374,169,97,15
-54,32,92,1,-72,62,323,491,380,187,109,21
-48,62,116,1,-84,86,323,491,386,193,115,27
-48,74,128,-4,-90,98,329,491,398,205,127,27
-42,92,140,-16,-90,116,335,491,410,211,139,27
-24,98,128,-28,-78,110,335,497,422,223,145,45
-12,116,134,-46,-72,122,335,497,428,229,163,63
-6,110,122,-46,-66,116,329,503,434,235,175,81
-1,122,128,-52,-66,122,323,503,434,241,175,87
-1,128,128,-58,-60,128,317,497,434,253,199,99
-1,128,122,-64,-54,128,317,497,458,259,211,117
-1,128,134,-58,-66,128,305,491,458,265,217,123
-12,128,146,-52,-78,134,293,473,458,271,223,123
-6,134,146,-58,-78,140,299,467,452,277,229,141
-1,152,146,-76,-66,152,293,461,452,283,241,147
5,170,158,-88,-72,164,275,461,446,283,247,153
-1,152,146,-76,-66,152,257,443,440,283,247,159
5,158,146,-82,-66,152,251,437,446,289,253,171
17,176,152,-94,-60,164,239,437,446,301,265,195
29,182,146,-106,-54,164,233,425,452,307,265,201
29,200,164,-112,-60,182,227,419,464,307,277,201
29,188,152,-106,-54,170,203,401,458,307,283,201
29,182,146,-106,-54,164,179,377,446,319,289,207
29,176,140,-100,-48,158,173,359,440,313,289,213
23,164,134,-94,-48,152,161,347,434,313,289,219
23,176,146,-100,-54,164,149,335,434,313,295,225
29,188,152,-106,-54,170,131,323,434,313,295,225
41,200,152,-118,-48,176,119,311,428,307,301,231
53,212,152,-130,-42,182,113,299,422,301,301,231
53,194,134,-124,-36,164,113,293,422,301,295,231
53,182,122,-118,-30,152,107,275,410,289,289,231
35,158,116,-94,-36,140,95,257,392,283,271,219
35,146,104,-88,-30,128,77,245,380,271,259,201
29,146,110,-88,-36,128,71,227,356,247,241,189
23,146,116,-82,-42,134,71,215,338,229,229,177
17,134,110,-76,-42,122,71,197,320,211,205,159
17,134,110,-76,-42,122,59,179,308,193,181,147
11,122,104,-64,-42,116,59,167,290,181,169,147
5,104,92,-52,-36,98,53,149,266,157,151,129
-1,92,86,-46,-36,92,53,143,248,145,133,111
-1,92,86,-46,-36,92,41,113,224,115,115,93
-1,80,74,-40,-30,80,35,89,200,103,97,81
-12,50,68,-10,-42,56,35,71,170,85,67,57
-12,38,56,-4,-36,44,41,65,152,67,55,45
-12,32,50,-4,-30,38,35,53,146,43,49,45
-12,20,38,1,-24,26,29,35,116,37,25,33
-18,14,38,1,-30,26,29,29,110,25,19,27
-30,2,38,7,-36,20,35,11,86,13,19,9
-36,-4,32,13,-36,8,35,5,86,-5,8,3
-42,-4,32,19,-42,8,29,5,74,-5,2,3
-48,-9,32,25,-42,2,17,-6,68,-16,-10,-8
-42,-21,14,31,-30,-4,5,-6,62,-22,-4,-2
-48,-27,14,37,-36,-4,5,-18,56,-22,-10,-8
-42,-33,2,37,-24,-9,11,-24,56,-28,-16,-14
-36,-33,-4,31,-18,-15,17,-30,50,-34,-22,-14
-30,-39,-4,31,-12,-21,23,-36,50,-34,-28,-26
-42,-39,-4,37,-24,-15,17,-36,32,-40,-34,-26
-48,-51,-4,49,-24,-27,11,-48,32,-46,-40,-26
-42,-33,2,37,-24,-9,17,-48,38,-46,-40,-26
-48,-15,26,31,-42,-4,11,-54,38,-52,-46,-32
-48,-27,14,37,-36,-4,5,-60,38,-58,-46,-38
-54,-45,2,49,-30,-15,-1,-60,32,-64,-52,-44
-66,-51,8,55,-42,-15,-1,-66,26,-70,-64,-44
-66,-57,2,61,-36,-21,-13,-66,21,-76,-70,-50
-72,-69,-4,67,-36,-33,-13,-66,15,-82,-64,-50
-78,-75,-4,73,-42,-33,-13,-72,21,-76,-58,-44
-78,-75,-4,73,-42,-33,-13,-66,21,-76,-58,-44
-66,-75,-4,67,-30,-39,11,-72,26,-70,-52,-38
-54,-63,-4,55,-24,-33,35,-72,26,-64,-52,-26
-42,-39,-4,37,-24,-15,35,-66,32,-58,-52,-26
-42,-33,2,37,-24,-9,35,-66,32,-58,-52,-32
-36,-39,-4,37,-18,-21,29,-60,32,-58,-52,-32
-42,-33,2,37,-24,-9,23,-60,26,-58,-52,-32
-48,-39,2,43,-30,-15,29,-66,26,-64,-58,-32
-54,-39,8,43,-36,-9,29,-72,26,-64,-58,-32
-66,-57,2,61,-36,-21,23,-78,21,-76,-64,-44
-72,-45,20,55,-48,-9,23,-84,26,-76,-70,-44
-72,-51,14,61,-48,-15,17,-78,26,-70,-64,-38
-72,-51,14,61,-48,-15,17,-78,26,-70,-64,-32
-72,-57,8,61,-42,-21,29,-72,26,-58,-58,-26
-78,-63,8,67,-48,-21,35,-72,26,-58,-58,-26
-72,-63,2,67,-42,-27,29,-72,26,-64,-64,-26
-60,-63,-4,61,-30,-33,35,-66,21,-64,-64,-26
-36,-51,-9,43,-12,-33,35,-60,21,-70,-64,-32
-48,-51,-4,49,-24,-27,35,-60,21,-70,-64,-32
-54,-57,-4,55,-24,-27,35,-60,26,-64,-58,-32
-54,-51,-4,49,-30,-21,35,-72,26,-70,-58,-32
-48,-45,-4,43,-24,-21,47,-66,26,-70,-52,-26
-48,-33,8,37,-30,-9,53,-66,26,-70,-46,-20
-54,-39,8,43,-36,-9,53,-54,26,-70,-52,-20
-60,-33,20,43,-42,-4,53,-54,26,-70,-52,-20
-60,-39,14,49,-42,-9,41,-60,26,-64,-58,-26
-78,-45,26,61,-54,-4,41,-60,21,-64,-52,-26
-72,-45,20,55,-48,-9,47,-54,26,-70,-52,-20
-66,-45,14,55,-42,-9,53,-54,26,-64,-58,-20
-66,-45,14,55,-42,-9,59,-54,26,-70,-58,-38
-60,-45,8,49,-36,-15,65,-48,26,-76,-58,-38
-60,-51,2,55,-36,-21,65,-48,26,-70,-52,-32
-72,-51,14,61,-48,-15,71,-54,21,-76,-52,-44
-72,-51,14,61,-48,-15,71,-54,15,-70,-52,-38
-72,-57,8,61,-42,-21,71,-42,9,-64,-58,-26
-72,-57,8,61,-42,-21,77,-36,15,-58,-58,-20
-66,-51,8,55,-42,-15,77,-30,21,-58,-52,-20
-72,-51,14,61,-48,-15,83,-18,26,-46,-52,-26
-72,-63,2,67,-42,-27,95,-18,26,-46,-46,-26
-66,-33,26,49,-48,-4,95,-30,26,-52,-52,-32
-66,-33,26,49,-48,-4,95,-30,26,-58,-52,-32
-72,-27,38,49,-60,-4,95,-36,26,-64,-52,-26
-72,-27,38,49,-60,-4,89,-54,21,-70,-52,-26
-78,-33,38,55,-60,-4,95,-48,21,-70,-64,-32
-84,-57,20,67,-54,-15,95,-48,21,-70,-64,-32
-90,-63,20,73,-60,-15,101,-30,15,-70,-70,-26
-96,-63,26,79,-66,-15,101,-30,15,-70,-76,-26
-84,-51,26,67,-60,-9,107,-30,15,-64,-70,-26
-78,-45,26,61,-54,-4,107,-24,15,-64,-64,-26
-54,-27,20,37,-42,-4,113,-18,21,-52,-58,-14
-42,-15,20,25,-36,-4,125,-18,26,-52,-52,-14
-48,-15,26,31,-42,-4,125,-18,26,-58,-46,-14
-48,-15,26,31,-42,-4,119,-18,26,-58,-46,-14
-54,-21,26,37,-42,-4,119,-18,26,-58,-34,-20
-66,-27,32,43,-54,-4,119,-30,26,-58,-34,-20
-66,-45,14,55,-42,-9,119,-24,26,-58,-40,-26
-72,-45,20,55,-48,-9,119,-24,26,-58,-52,-38
-66,-45,14,55,-42,-9,125,-12,26,-58,-58,-26
-60,-33,20,43,-42,-4,125,-12,26,-58,-64,-14
-60,-33,20,43,-42,-4,119,-18,26,-52,-52,-14
-60,-33,20,43,-42,-4,119,-18,26,-52,-52,-14
-72,-33,32,49,-54,-4,113,-24,26,-52,-46,-20
-72,-33,32,49,-54,-4,107,-36,26,-52,-46,-20
-72,-27,38,49,-60,-4,113,-30,26,-52,-40,-20
-72,-27,38,49,-60,-4,119,-30,26,-52,-40,-20
-54,-15,32,31,-48,2,119,-24,26,-46,-34,-8
-54,-9,38,31,-48,8,119,-18,26,-40,-28,-8
-60,-15,38,37,-54,2,125,-18,26,-34,-34,-8
-60,-21,32,37,-48,-4,125,-12,26,-34,-34,-8
-66,-39,20,49,-48,-4,131,-12,26,-28,-40,-8
-78,-45,26,61,-54,-4,125,-24,26,-34,-46,-8
-78,-33,38,55,-60,-4,125,-24,26,-40,-46,-14
-72,-33,32,49,-54,-4,125,-24,26,-46,-40,-14
-72,-39,26,55,-54,-4,125,-30,21,-52,-40,-20
-78,-39,32,55,-60,-4,119,-30,21,-52,-46,-20
-84,-33,44,55,-66,-4,119,-30,15,-52,-46,-20
-78,-39,32,55,-60,-4,125,-30,15,-52,-46,-20
-84,-33,44,55,-66,-4,137,-30,9,-52,-46,-20
-84,-27,50,55,-72,2,143,-30,9,-52,-46,-14
-78,-39,32,55,-60,-4,137,-36,9,-52,-46,-8
-78,-51,20,61,-54,-9,137,-36,3,-52,-46,-8
-78,-69,2,73,-42,-27,125,-48,-3,-64,-46,-8
-90,-75,8,79,-54,-27,119,-54,-3,-64,-46,-20
-84,-63,14,73,-54,-21,125,-54,-3,-64,-46,-26
-84,-63,14,73,-54,-21,131,-54,-3,-64,-52,-26
-78,-57,14,67,-48,-15,131,-48,-15,-76,-58,-32
-78,-57,14,67,-48,-15,137,-48,-15,-76,-58,-32
-72,-51,14,61,-48,-15,149,-42,-9,-70,-52,-26
-66,-45,14,55,-42,-9,149,-42,-3,-64,-52,-20
-60,-39,14,49,-42,-9,143,-36,-3,-58,-46,-14
-54,-33,14,43,-36,-4,143,-36,-3,-52,-40,-20
-54,-45,2,49,-30,-15,149,-42,-3,-58,-46,-20
-54,-27,20,37,-42,-4,143,-42,-3,-64,-40,-20
-48,-15,26,31,-42,-4,149,-54,-9,-70,-46,-20
-48,-33,8,37,-30,-9,149,-54,-9,-76,-46,-20
-54,-39,8,43,-36,-9,155,-48,-3,-70,-52,-20
-54,-39,8,43,-36,-9,155,-48,-3,-70,-52,-26
-60,-45,8,49,-36,-15,161,-48,3,-64,-58,-20
-60,-45,8,49,-36,-15,161,-48,3,-70,-58,-20
-60,-51,2,55,-36,-21,167,-48,-3,-76,-52,-14
-60,-51,2,55,-36,-21,161,-54,-9,-70,-52,-14
-72,-63,2,67,-42,-27,155,-60,-21,-76,-46,-20
-78,-69,2,73,-42,-27,149,-78,-33,-88,-46,-26
-72,-63,2,67,-42,-27,155,-72,-27,-88,-52,-20
-66,-51,8,55,-42,-15,161,-66,-27,-88,-52,-20
-60,-45,8,49,-36,-15,167,-72,-21,-70,-52,-20
-66,-51,8,55,-42,-15,161,-66,-21,-70,-52,-26
-60,-39,14,49,-42,-9,167,-60,-15,-64,-46,-20
-42,-27,8,31,-30,-4,179,-60,-15,-64,-46,-14
-66,-45,14,55,-42,-9,185,-60,-15,-64,-46,-8
-78,-45,26,61,-54,-4,179,-60,-21,-64,-52,-20
-54,-45,2,49,-30,-15,179,-60,-21,-76,-46,-8
-48,-45,-4,43,-24,-21,179,-60,-21,-76,-46,-8
-60,-39,14,49,-42,-9,179,-60,-9,-76,-46,-8
-72,-63,2,67,-42,-27,167,-72,-21,-88,-58,-20
-90,-81,2,85,-48,-33,173,-84,-27,-94,-58,-26
-90,-75,8,79,-54,-27,179,-78,-27,-88,-58,-26
-90,-75,8,79,-54,-27,179,-78,-27,-88,-58,-26
-90,-69,14,79,-54,-21,185,-72,-27,-82,-58,-26
-90,-69,14,79,-54,-21,185,-72,-27,-82,-58,-26
-72,-63,2,67,-42,-27,191,-72,-27,-82,-52,-26
-84,-63,14,73,-54,-21,191,-78,-33,-82,-52,-20
-78,-63,8,67,-48,-21,191,-78,-33,-70,-46,-14
-72,-63,2,67,-42,-27,191,-78,-33,-70,-46,-8
-66,-51,8,55,-42,-15,197,-72,-21,-82,-46,-14
-66,-51,8,55,-42,-15,197,-72,-21,-82,-46,-14
-60,-45,8,49,-36,-15,203,-66,-15,-88,-46,-14
-54,-45,2,49,-30,-15,203,-60,-15,-82,-46,-14
-60,-51,2,55,-36,-21,203,-66,-15,-88,-52,-14
-54,-39,8,43,-36,-9,209,-72,-21,-94,-52,-8
-48,-27,14,37,-36,-4,227,-60,-15,-82,-40,3
-54,-15,32,31,-48,2,239,-54,-15,-76,-28,15
-54,-15,32,31,-48,2,251,-42,-3,-70,-22,15
-48,-4,38,25,-48,8,251,-36,9,-58,-16,15
-42,-4,32,19,-42,8,269,-24,21,-46,-4,21
-36,-4,32,13,-36,8,275,-12,26,-34,2,27
-54,2,62,19,-60,32,281,-12,26,-34,-4,27
-54,14,74,13,-66,44,287,-12,26,-34,-4,27
-54,38,98,1,-78,68,293,-18,21,-28,-10,33
-54,38,98,1,-78,68,293,-18,26,-28,-10,33
-54,26,86,7,-72,56,305,-12,26,-28,-10,39
-42,38,86,1,-66,62,311,-12,26,-22,2,45
-42,38,86,1,-66,62,311,-12,26,-22,2,51
-54,32,92,1,-72,62,311,-12,26,-34,-4,45
-54,32,92,1,-72,62,317,-6,26,-22,2,45
-42,56,104,1,-72,80,317,-6,32,-16,14,51
-42,68,116,-4,-78,92,311,0,32,-5,19,63
-42,86,134,-16,-90,110,311,5,38,-5,19,75
-36,104,146,-28,-90,122,311,5,44,7,31,87
-30,122,158,-40,-96,140,305,5,44,7,37,87
-30,134,170,-46,-102,152,281,-6,44,1,37,87
-24,146,176,-52,-102,158,263,-6,44,1,49,105
-24,158,188,-58,-108,170,257,0,50,13,55,117
-24,158,188,-58,-108,170,245,0,50,13,55,117
