,,,,,,,,,,,
2019-09-04 23:51:57,,,,,,,,,,,
,,,,,,,,,,,
I,II,III,aVR,aVL,aVF,V1,V2,V3,V4,V5,V6
9,-614,-639,263,302,-639,68,132,98,98,193,267
27,-98,-165,35,140,-135,2,84,20,-33,19,21
39,-20,-99,-6,110,-69,-27,60,2,-51,1,-2
51,-3,-69,-24,86,-33,-57,54,-3,-57,-4,-8
57,3,-63,-30,80,-27,-63,54,-3,-63,-10,-8
69,9,-63,-42,80,-27,-63,54,-3,-69,-10,-8
81,9,-69,-48,92,-27,-57,60,2,-69,-10,-8
87,9,-75,-48,98,-33,-45,66,8,-45,-4,-2
87,3,-75,-42,98,-33,-21,72,14,-15,7,3
87,-3,-75,-36,92,-33,-15,72,14,-9,13,3
87,-3,-75,-36,92,-33,-15,72,14,-9,13,3
87,9,-75,-42,86,-27,-33,72,14,-9,13,3
87,21,-69,-48,80,-15,-75,60,14,-9,7,3
93,45,-57,-60,74,-4,-105,54,14,-9,7,3
99,63,-51,-72,74,8,-111,48,14,-9,7,9
99,63,-51,-78,74,8,-111,48,14,-9,13,15
99,63,-51,-78,74,8,-105,54,20,-9,19,27
99,63,-51,-78,74,8,-81,66,32,2,43,45
111,69,-51,-84,74,8,-69,72,44,14,67,69
117,75,-51,-90,74,8,-69,72,50,20,73,75
123,81,-51,-90,74,8,-69,72,50,26,73,75
129,87,-45,-96,74,20,-75,66,50,26,73,75
129,99,-33,-102,74,32,-87,54,44,26,67,75
129,105,-27,-102,74,38,-99,42,38,26,67,75
129,111,-15,-108,68,44,-99,36,32,26,67,75
129,111,-9,-108,68,50,-99,36,32,26,67,81
129,111,-9,-108,68,50,-99,36,32,32,79,87
129,111,-9,-108,74,50,-105,30,32,32,85,93
129,111,-15,-108,74,50,-111,24,32,38,91,99
129,105,-15,-108,74,50,-111,18,32,44,91,105
123,105,-9,-108,68,50,-111,12,26,44,91,111
123,111,-4,-108,62,56,-117,0,14,32,97,111
123,123,2,-114,56,62,-129,-17,2,14,97,111
123,135,8,-114,56,68,-141,-29,-9,2,97,111
123,141,8,-114,56,74,-147,-41,-15,2,91,111
123,141,8,-114,56,74,-147,-47,-15,2,91,111
123,141,8,-114,56,74,-141,-47,-15,8,91,117
123,141,8,-120,56,74,-129,-47,-15,20,97,129
123,141,8,-120,56,74,-117,-47,-15,26,97,129
123,135,8,-120,56,74,-117,-47,-15,26,97,129
123,135,8,-120,50,74,-117,-53,-15,26,97,129
123,135,14,-120,44,74,-117,-59,-27,14,91,123
117,135,20,-114,38,74,-117,-71,-33,2,85,117
111,135,26,-114,32,80,-117,-77,-45,-3,73,111
111,135,32,-114,26,80,-117,-77,-45,-3,73,105
105,135,38,-114,20,80,-111,-77,-45,-3,73,105
93,135,44,-108,14,80,-111,-77,-45,-3,73,99
81,129,44,-102,8,80,-111,-77,-45,-3,73,99
75,117,44,-96,8,80,-111,-71,-45,-3,73,99
75,111,44,-96,8,80,-105,-65,-45,-3,73,99
81,111,44,-96,8,80,-99,-59,-45,-3,67,99
87,111,44,-102,8,80,-93,-59,-45,-3,55,87
87,111,44,-102,8,80,-93,-59,-45,-9,43,57
81,111,44,-102,8,80,-93,-65,-51,-21,31,39
75,111,44,-96,8,80,-93,-65,-51,-27,25,33
75,111,44,-96,8,80,-87,-65,-51,-27,19,27
75,111,32,-96,14,74,-63,-59,-45,-27,13,27
75,99,26,-90,14,62,-51,-53,-39,-27,7,27
69,75,14,-78,14,50,-45,-47,-39,-27,1,21
69,63,8,-72,14,38,-39,-41,-39,-33,-4,15
69,57,8,-66,14,32,-39,-35,-39,-33,-4,9
57,57,8,-54,14,32,-39,-35,-39,-33,-10,3
45,51,8,-42,14,32,-39,-35,-39,-33,-16,-8
39,51,8,-36,14,32,-39,-35,-39,-39,-22,-14
39,51,8,-36,14,32,-39,-35,-39,-39,-28,-26
39,45,8,-36,14,32,-33,-35,-39,-39,-34,-32
39,45,8,-36,14,32,-21,-29,-33,-39,-34,-32
39,39,2,-36,14,26,-9,-23,-27,-39,-34,-32
39,33,2,-30,14,20,-3,-23,-27,-39,-40,-38
33,27,2,-24,14,14,2,-23,-27,-39,-46,-38
33,27,2,-24,14,8,8,-17,-27,-39,-52,-44
33,27,-4,-24,14,8,8,-17,-27,-45,-52,-44
39,27,-9,-24,20,8,8,-17,-27,-51,-58,-50
39,27,-15,-24,26,8,8,-17,-27,-57,-64,-56
39,27,-15,-24,26,8,8,-17,-27,-63,-70,-62
39,21,-15,-24,26,8,8,-17,-27,-69,-70,-68
39,15,-15,-24,26,8,2,-17,-27,-69,-70,-74
39,9,-21,-24,26,2,-3,-17,-27,-69,-70,-74
39,3,-27,-18,26,-4,-3,-17,-27,-75,-76,-74
39,3,-27,-18,26,-9,-3,-17,-27,-75,-82,-80
39,3,-27,-18,26,-9,-3,-17,-27,-75,-82,-80
39,3,-27,-18,26,-9,-3,-17,-33,-75,-82,-80
33,-3,-27,-12,26,-15,-3,-17,-45,-81,-88,-80
27,-3,-27,-12,26,-15,-3,-23,-51,-81,-94,-86
15,-8,-27,-6,20,-15,-3,-23,-51,-81,-94,-86
15,-14,-27,-1,20,-15,-3,-23,-51,-81,-100,-86
15,-14,-27,-1,20,-15,-3,-23,-51,-81,-100,-86
15,-14,-27,-1,20,-15,-3,-23,-51,-81,-94,-86
15,-14,-27,-1,20,-15,2,-23,-51,-81,-94,-86
21,-14,-27,-1,20,-15,8,-23,-51,-81,-94,-86
21,-14,-27,-1,20,-15,8,-23,-51,-81,-94,-86
21,-14,-27,-1,20,-15,8,-23,-51,-81,-94,-86
21,-14,-27,-1,20,-15,8,-23,-51,-81,-94,-86
21,-14,-27,-1,20,-15,8,-23,-51,-81,-94,-86
21,-14,-27,-1,20,-15,8,-23,-51,-81,-100,-92
21,-14,-27,-1,20,-15,8,-23,-51,-81,-100,-92
21,-14,-27,-1,20,-15,8,-23,-51,-81,-100,-92
21,-14,-27,-1,20,-15,8,-23,-51,-81,-100,-92
15,-20,-27,5,20,-15,8,-23,-51,-81,-100,-92
15,-32,-27,17,20,-27,2,-23,-51,-87,-100,-92
15,-38,-27,23,20,-33,-3,-23,-51,-87,-100,-92
15,-38,-27,23,20,-33,-3,-23,-51,-87,-100,-92
15,-38,-27,23,20,-33,-3,-17,-51,-87,-100,-92
9,-38,-27,23,20,-33,-3,-11,-51,-87,-100,-92
9,-38,-27,23,20,-33,-3,-11,-51,-87,-100,-92
9,-32,-27,17,20,-33,-3,-11,-51,-87,-100,-92
9,-26,-27,11,26,-33,-3,-11,-51,-87,-100,-92
15,-26,-27,5,26,-33,-3,-11,-51,-87,-100,-92
21,-20,-27,-1,26,-33,-3,-11,-51,-87,-100,-92
21,-20,-27,-1,26,-33,-3,-11,-51,-87,-100,-92
21,-20,-27,-1,26,-33,2,-11,-51,-87,-100,-92
21,-20,-27,-1,26,-33,2,-11,-51,-87,-100,-92
21,-20,-27,-1,26,-33,2,-11,-51,-87,-100,-92
21,-20,-27,-1,26,-33,2,-11,-51,-87,-100,-92
21,-20,-27,-1,26,-33,2,-11,-51,-93,-100,-92
21,-20,-27,-1,26,-33,2,-11,-51,-93,-100,-92
21,-20,-27,-1,26,-33,2,-11,-51,-93,-100,-92
21,-20,-27,-1,26,-33,2,-5,-51,-93,-100,-92
21,-20,-27,-1,26,-33,2,-5,-51,-93,-100,-92
21,-20,-27,-1,26,-33,2,-5,-51,-93,-100,-92
21,-20,-27,-1,26,-33,2,-5,-51,-93,-100,-92
21,-20,-27,-1,26,-33,2,-5,-51,-99,-100,-92
21,-20,-27,-1,26,-33,-3,-5,-51,-99,-100,-92
27,-14,-27,-6,26,-27,-3,-5,-51,-99,-100,-92
27,-8,-27,-12,26,-21,-3,-5,-51,-99,-100,-92
27,-8,-27,-12,26,-21,2,-5,-51,-99,-100,-92
21,-20,-27,-6,26,-21,2,-5,-51,-99,-100,-92
21,-20,-27,-1,26,-21,2,-5,-51,-99,-100,-92
21,-20,-27,-1,26,-21,2,-5,-51,-105,-100,-92
21,-20,-27,-1,26,-21,2,-5,-51,-105,-100,-92
21,-20,-27,5,26,-21,2,-5,-51,-105,-100,-92
21,-20,-27,5,26,-21,2,-5,-51,-105,-100,-92
21,-20,-27,5,26,-21,2,-5,-51,-105,-100,-92
21,-20,-27,5,26,-21,2,-5,-57,-105,-100,-92
21,-20,-27,5,26,-21,2,-5,-57,-105,-100,-92
21,-20,-27,5,26,-21,2,-5,-57,-105,-100,-92
15,-26,-27,11,26,-27,2,-11,-57,-105,-100,-92
9,-26,-27,11,20,-27,8,-11,-57,-105,-100,-92
9,-20,-27,11,20,-27,14,-11,-57,-105,-100,-92
15,-14,-27,5,20,-21,14,-11,-57,-105,-100,-92
27,-8,-27,-1,26,-21,14,-11,-57,-105,-100,-92
39,-3,-27,-6,32,-21,14,-11,-57,-105,-100,-92
39,-3,-27,-6,32,-21,14,-11,-57,-111,-106,-92
33,-8,-27,-1,32,-21,8,-17,-63,-123,-112,-98
27,-20,-27,5,32,-27,-3,-17,-69,-129,-112,-98
27,-20,-27,5,32,-27,-9,-17,-75,-129,-112,-98
27,-20,-27,5,32,-27,-9,-23,-81,-129,-112,-98
27,-20,-27,5,32,-27,-9,-29,-87,-135,-112,-98
27,-20,-27,5,32,-27,-9,-35,-87,-135,-112,-98
27,-20,-27,5,32,-27,-9,-41,-87,-135,-112,-98
27,-20,-27,5,32,-27,-9,-41,-93,-135,-112,-98
27,-20,-27,5,32,-27,-9,-41,-99,-135,-112,-104
27,-26,-27,5,32,-27,-9,-41,-99,-141,-118,-104
27,-26,-27,5,32,-27,-9,-41,-99,-147,-118,-104
27,-26,-27,5,32,-27,-9,-41,-99,-147,-118,-104
27,-26,-27,5,32,-27,-9,-41,-99,-147,-118,-104
27,-26,-33,5,32,-27,-9,-41,-99,-147,-118,-104
27,-26,-33,5,32,-27,-9,-47,-99,-147,-118,-104
27,-26,-33,5,32,-27,-9,-53,-105,-147,-118,-110
27,-26,-33,5,32,-27,-9,-53,-105,-147,-118,-110
27,-26,-33,5,32,-27,-3,-53,-105,-147,-118,-110
27,-26,-33,5,32,-27,-3,-53,-105,-147,-118,-110
27,-26,-33,5,32,-27,-3,-53,-111,-153,-124,-110
27,-26,-33,5,26,-27,-9,-59,-123,-159,-130,-116
27,-26,-33,5,26,-33,-9,-65,-129,-165,-136,-122
27,-26,-39,5,26,-39,-9,-65,-129,-165,-136,-122
27,-26,-45,5,26,-39,-3,-65,-129,-165,-136,-122
27,-26,-45,5,26,-39,-3,-65,-129,-165,-136,-122
27,-26,-45,5,26,-39,-9,-65,-129,-171,-136,-122
27,-32,-45,11,26,-39,-15,-71,-135,-177,-136,-122
27,-32,-45,11,26,-39,-15,-77,-141,-183,-136,-128
27,-32,-45,11,26,-39,-15,-77,-141,-183,-142,-128
27,-32,-45,11,26,-39,-15,-77,-141,-183,-148,-128
27,-32,-45,11,26,-39,-9,-77,-141,-183,-148,-128
27,-32,-45,11,26,-39,-3,-83,-141,-183,-148,-128
21,-32,-45,11,26,-39,-3,-83,-141,-183,-148,-128
15,-38,-45,17,26,-39,-9,-83,-141,-183,-154,-128
15,-38,-45,17,26,-39,-21,-83,-141,-183,-154,-128
21,-38,-45,11,26,-39,-27,-83,-141,-183,-154,-128
21,-38,-45,11,26,-39,-27,-83,-141,-183,-154,-128
21,-38,-45,11,26,-39,-27,-83,-141,-183,-154,-128
21,-38,-45,11,26,-39,-21,-83,-141,-183,-154,-128
21,-32,-45,11,26,-39,-15,-83,-141,-183,-154,-128
21,-26,-45,5,26,-39,-15,-83,-141,-183,-154,-128
21,-26,-45,5,26,-39,-15,-83,-141,-183,-154,-128
21,-26,-45,5,26,-39,-15,-83,-141,-183,-154,-128
21,-26,-45,5,26,-39,-15,-83,-141,-183,-154,-128
21,-26,-45,5,26,-39,-15,-83,-141,-183,-154,-128
21,-20,-45,5,26,-39,-9,-83,-141,-183,-154,-128
21,-20,-45,5,26,-39,-3,-83,-141,-183,-154,-128
21,-26,-45,5,26,-39,-3,-83,-141,-183,-154,-128
15,-32,-45,11,26,-39,-9,-83,-141,-183,-154,-128
15,-32,-45,11,26,-39,-9,-83,-141,-183,-154,-128
15,-32,-45,5,26,-39,-9,-83,-141,-183,-154,-128
15,-32,-45,5,26,-39,-9,-83,-147,-183,-154,-128
15,-32,-45,5,26,-39,-9,-83,-147,-183,-154,-134
15,-32,-45,5,26,-39,-9,-83,-147,-183,-154,-140
15,-26,-45,-1,26,-39,-3,-83,-147,-183,-154,-140
15,-26,-45,-1,20,-39,-3,-83,-147,-189,-160,-140
15,-26,-45,-1,14,-39,-3,-83,-147,-189,-160,-140
15,-26,-45,-1,14,-39,-3,-83,-153,-195,-160,-140
15,-26,-45,-1,14,-39,-3,-83,-159,-201,-160,-140
15,-26,-45,-1,14,-39,-3,-83,-159,-201,-160,-140
15,-26,-45,-1,14,-39,-3,-83,-159,-201,-160,-140
15,-26,-45,-1,14,-39,-3,-83,-159,-201,-166,-140
15,-32,-45,5,14,-39,-3,-95,-159,-201,-166,-140
15,-38,-45,11,14,-39,-3,-95,-159,-201,-166,-140
15,-38,-45,11,14,-39,-3,-95,-159,-201,-166,-140
15,-38,-45,11,14,-39,-3,-95,-159,-201,-166,-140
21,-38,-45,11,14,-39,-3,-95,-159,-201,-166,-140
21,-38,-45,5,14,-39,-3,-95,-159,-201,-166,-140
21,-32,-45,5,14,-39,-3,-95,-159,-201,-166,-140
21,-32,-45,5,14,-39,-3,-95,-159,-201,-166,-140
15,-44,-45,11,14,-45,-3,-95,-159,-201,-166,-140
15,-50,-45,17,14,-45,-3,-95,-159,-201,-166,-140
15,-50,-45,17,14,-45,-3,-95,-159,-201,-166,-140
15,-50,-45,17,14,-45,2,-95,-159,-201,-166,-140
15,-50,-45,17,14,-45,8,-95,-159,-201,-166,-140
15,-50,-45,17,14,-45,8,-95,-159,-201,-166,-140
15,-50,-45,17,14,-45,2,-95,-159,-201,-166,-140
15,-50,-45,17,14,-45,-9,-95,-159,-201,-166,-140
15,-50,-45,23,14,-45,-9,-95,-159,-201,-166,-140
9,-50,-45,29,14,-45,-9,-95,-159,-201,-166,-140
9,-44,-45,29,14,-45,-15,-95,-159,-201,-166,-140
9,-32,-39,17,14,-39,-15,-95,-159,-195,-166,-140
9,-20,-27,11,8,-27,-15,-95,-159,-189,-154,-134
9,-14,-15,11,8,-21,-3,-89,-153,-189,-154,-134
9,-8,-9,5,8,-9,2,-83,-153,-183,-154,-128
9,-3,-4,5,8,-4,2,-83,-153,-183,-154,-128
9,-3,-4,5,8,-4,2,-83,-153,-183,-154,-128
9,-3,-4,5,8,-4,8,-77,-153,-183,-154,-128
15,9,2,-6,8,8,20,-71,-141,-177,-148,-122
21,21,2,-18,8,14,32,-65,-135,-165,-142,-116
27,33,2,-24,8,20,38,-59,-135,-159,-142,-116
27,33,2,-24,8,20,38,-59,-135,-159,-142,-116
27,33,2,-24,8,20,32,-59,-135,-159,-142,-116
27,33,2,-24,8,20,32,-53,-129,-159,-142,-116
27,33,2,-24,8,20,32,-53,-123,-153,-136,-110
27,33,2,-24,8,20,32,-53,-123,-153,-136,-110
27,33,2,-24,8,20,32,-53,-123,-153,-136,-110
27,27,2,-24,8,20,26,-53,-123,-153,-136,-110
27,27,2,-24,8,20,14,-53,-123,-153,-136,-110
27,27,2,-24,8,20,2,-53,-123,-153,-136,-110
27,27,2,-24,8,20,-3,-53,-123,-153,-136,-110
33,27,2,-24,14,20,-3,-53,-123,-153,-136,-104
45,27,-9,-30,26,14,-3,-53,-123,-153,-136,-104
51,27,-21,-30,32,8,-9,-53,-123,-153,-136,-104
51,27,-21,-30,32,8,-9,-53,-123,-153,-136,-104
57,27,-21,-30,32,8,-15,-53,-123,-153,-136,-104
57,27,-21,-36,32,2,-15,-53,-123,-153,-136,-104
63,27,-21,-36,32,2,-15,-53,-117,-147,-130,-104
63,27,-21,-36,32,2,-15,-53,-117,-141,-124,-98
57,21,-21,-36,32,2,-15,-53,-117,-141,-124,-92
45,9,-21,-24,26,2,-21,-59,-117,-141,-124,-92
45,9,-21,-24,26,2,-27,-59,-117,-141,-124,-92
51,15,-27,-30,32,2,-33,-59,-117,-141,-124,-92
63,15,-33,-36,38,2,-33,-59,-117,-141,-124,-92
63,15,-33,-36,38,-4,-33,-59,-117,-141,-124,-92
57,9,-33,-30,38,-9,-33,-59,-123,-147,-124,-92
57,3,-33,-30,38,-15,-33,-65,-129,-153,-124,-92
57,3,-39,-30,38,-21,-33,-71,-135,-159,-130,-98
57,-3,-45,-30,38,-27,-33,-71,-135,-159,-136,-98
45,-14,-45,-18,38,-27,-33,-71,-135,-159,-136,-98
39,-20,-45,-12,38,-27,-33,-77,-141,-159,-136,-104
33,-20,-45,-6,38,-27,-33,-83,-141,-165,-142,-104
27,-26,-45,-1,32,-33,-33,-89,-147,-171,-148,-116
21,-38,-45,5,32,-39,-33,-89,-153,-183,-154,-122
15,-44,-45,11,32,-45,-33,-89,-159,-189,-154,-128
9,-50,-45,17,32,-45,-33,-89,-165,-195,-160,-128
9,-50,-45,17,32,-45,-33,-89,-165,-195,-166,-128
9,-50,-45,17,32,-45,-33,-89,-165,-195,-172,-128
9,-50,-45,17,32,-45,-33,-89,-165,-201,-172,-128
9,-56,-45,23,32,-51,-33,-89,-165,-201,-172,-134
3,-68,-45,29,32,-57,-33,-89,-171,-201,-172,-140
3,-68,-45,35,32,-57,-33,-95,-171,-201,-172,-140
3,-68,-45,35,32,-57,-33,-95,-171,-201,-172,-140
3,-68,-45,35,32,-57,-33,-95,-171,-201,-172,-140
3,-68,-45,35,26,-57,-33,-95,-171,-201,-172,-140
3,-68,-45,35,26,-57,-33,-95,-171,-201,-172,-140
3,-62,-45,35,20,-57,-21,-95,-165,-195,-166,-140
3,-56,-39,35,14,-51,-9,-89,-159,-189,-160,-134
-2,-50,-21,35,2,-39,-3,-83,-153,-183,-154,-128
-14,-44,8,35,-9,-27,-3,-71,-141,-171,-148,-122
-20,-38,20,35,-21,-15,2,-53,-111,-147,-130,-110
-26,-26,38,35,-33,8,8,-23,-81,-111,-100,-92
-38,-8,62,35,-51,38,8,-5,-51,-93,-88,-74
-44,9,74,29,-63,50,14,24,-21,-63,-70,-62
-44,39,86,17,-75,62,26,60,20,-33,-46,-26
-44,81,116,-12,-81,104,56,108,68,8,-10,3
-44,111,140,-24,-87,122,74,162,116,50,19,33
-44,129,170,-30,-99,140,110,234,164,80,37,45
-44,159,212,-42,-117,182,146,318,236,116,61,57
-44,213,284,-54,-147,230,170,426,332,164,97,75
-50,243,332,-66,-177,278,200,570,446,242,151,105
-50,291,368,-96,-201,326,236,768,620,362,253,177
-38,393,410,-156,-213,398,278,960,824,518,367,285
-14,465,446,-216,-219,458,302,1128,1058,722,523,417
21,537,476,-270,-225,512,302,1194,1268,962,745,603
57,651,554,-354,-237,602,278,1194,1436,1208,997,825
105,801,656,-456,-249,716,176,1146,1580,1478,1279,1065
153,939,740,-540,-261,830,92,1104,1766,1766,1567,1311
195,1047,818,-618,-279,926,8,1068,1976,2077,1873,1545
225,1149,914,-678,-303,1028,-39,1026,2191,2389,2148,1755
237,1269,1022,-738,-345,1148,-63,948,2353,2664,2412,1941
249,1443,1166,-834,-417,1310,-75,816,2460,2946,2675,2144
255,1587,1298,-906,-489,1454,-87,690,2580,3234,2933,2330
255,1605,1340,-918,-531,1478,-93,648,2736,3438,3059,2372
243,1581,1334,-912,-537,1460,-93,630,2826,3450,3047,2330
219,1419,1232,-828,-531,1316,-99,588,2820,3270,2735,2019
165,1167,1064,-672,-507,1112,-105,474,2562,2760,2220,1617
117,921,872,-516,-447,890,-105,306,2101,2173,1657,1185
75,699,704,-384,-369,692,-105,48,1460,1538,1123,807
21,483,548,-246,-315,506,-105,-305,680,830,595,441
-38,315,428,-132,-279,368,-111,-623,-27,206,139,123
-80,213,362,-66,-261,290,-129,-785,-423,-153,-136,-68
-98,171,308,-30,-249,248,-147,-827,-567,-297,-238,-146
-104,129,254,-6,-225,194,-147,-833,-621,-369,-298,-188
-116,69,206,23,-207,128,-147,-833,-639,-411,-328,-218
-122,27,170,41,-189,92,-147,-809,-639,-417,-334,-224
-122,15,152,47,-171,80,-147,-725,-603,-417,-334,-224
-122,9,134,47,-147,68,-153,-617,-531,-399,-322,-224
-110,3,116,47,-117,56,-153,-503,-459,-357,-298,-212
-92,3,104,41,-99,50,-147,-395,-381,-321,-268,-200
-74,3,98,35,-87,50,-135,-305,-333,-291,-244,-188
-62,3,80,29,-75,44,-117,-245,-285,-267,-232,-182
-56,-8,44,29,-63,20,-105,-197,-249,-255,-220,-176
-56,-32,14,35,-51,-9,-81,-161,-231,-243,-214,-170
-50,-44,-9,35,-39,-27,-57,-137,-219,-237,-208,-170
-38,-44,-21,35,-21,-39,-45,-125,-207,-231,-208,-170
-32,-44,-27,35,-9,-45,-39,-113,-201,-231,-208,-170
-26,-44,-27,35,-3,-45,-33,-101,-195,-225,-208,-170
-14,-44,-33,29,2,-51,-27,-89,-195,-225,-208,-170
-14,-56,-45,29,8,-57,-27,-77,-195,-225,-208,-170
-14,-68,-51,35,14,-69,-27,-71,-195,-225,-208,-170
-14,-74,-57,35,20,-75,-21,-65,-189,-225,-208,-170
-8,-74,-63,35,26,-81,-21,-59,-189,-225,-208,-170
-2,-74,-63,35,26,-81,-15,-53,-189,-225,-208,-170
-2,-74,-63,35,26,-81,-15,-53,-189,-225,-208,-170
-2,-74,-69,35,26,-81,-9,-53,-189,-225,-208,-170
-2,-74,-75,35,26,-81,-9,-53,-183,-225,-208,-170
-2,-80,-81,35,26,-81,-9,-47,-177,-225,-208,-170
-2,-86,-81,41,26,-81,-9,-41,-177,-225,-208,-170
-8,-92,-81,47,26,-87,-3,-35,-177,-225,-208,-170
-8,-92,-81,47,26,-87,2,-29,-177,-225,-208,-170
-8,-92,-81,47,26,-87,8,-29,-177,-225,-208,-170
-8,-92,-81,47,26,-93,8,-29,-177,-225,-208,-170
-8,-92,-81,53,26,-93,8,-29,-177,-225,-208,-170
-8,-92,-81,53,32,-93,8,-29,-177,-225,-208,-170
-2,-92,-81,53,32,-93,8,-29,-177,-225,-208,-170
-2,-92,-81,53,32,-93,8,-29,-177,-225,-208,-170
-2,-92,-81,53,32,-93,8,-29,-177,-225,-202,-170
-2,-92,-81,53,32,-93,8,-29,-177,-225,-202,-170
-8,-92,-81,53,32,-93,8,-29,-177,-225,-202,-170
-8,-92,-81,53,32,-93,8,-29,-177,-219,-202,-170
-2,-86,-81,47,32,-93,8,-23,-171,-213,-196,-164
3,-74,-81,41,32,-87,8,-17,-171,-213,-196,-164
3,-74,-81,41,32,-87,8,-17,-171,-213,-190,-164
3,-80,-87,41,32,-93,8,-17,-171,-213,-190,-164
3,-80,-93,41,32,-93,8,-11,-165,-213,-190,-164
3,-80,-93,41,32,-93,2,-11,-165,-213,-190,-164
3,-80,-93,41,32,-93,-3,-11,-165,-213,-190,-164
3,-86,-93,41,32,-99,-3,-11,-165,-213,-190,-164
3,-86,-93,41,32,-99,2,-11,-159,-213,-190,-164
9,-86,-93,41,38,-99,2,-11,-153,-207,-190,-164
9,-86,-93,41,44,-99,-3,-11,-147,-201,-190,-164
9,-86,-93,41,44,-99,-3,-5,-141,-201,-190,-164
9,-86,-93,41,44,-99,2,0,-141,-201,-190,-164
9,-86,-93,41,44,-99,8,0,-141,-201,-190,-164
9,-86,-93,41,44,-99,8,0,-141,-195,-184,-158
27,-74,-93,23,50,-93,8,6,-135,-183,-172,-152
39,-68,-93,17,56,-93,8,12,-129,-177,-166,-146
39,-74,-93,17,56,-93,8,12,-129,-177,-166,-146
27,-86,-93,29,56,-93,8,12,-129,-171,-166,-146
15,-86,-93,41,56,-93,8,12,-123,-171,-160,-146
9,-86,-93,47,50,-93,8,18,-117,-171,-160,-146
9,-86,-93,47,50,-93,8,24,-111,-165,-160,-140
9,-86,-93,47,50,-93,8,24,-105,-165,-160,-140
9,-86,-93,47,50,-93,2,24,-105,-165,-160,-140
9,-86,-93,47,50,-93,-3,24,-105,-165,-160,-140
9,-86,-93,47,50,-93,-3,24,-99,-165,-154,-140
9,-86,-93,41,50,-93,-3,30,-93,-159,-148,-134
15,-80,-93,35,50,-87,2,36,-81,-147,-136,-122
15,-80,-93,35,50,-87,2,42,-75,-135,-130,-110
15,-80,-93,35,50,-87,-9,42,-75,-129,-124,-104
15,-80,-93,35,50,-87,-15,42,-75,-123,-124,-104
15,-80,-93,35,50,-87,-21,42,-75,-117,-118,-104
15,-80,-93,35,50,-87,-21,42,-69,-111,-106,-104
15,-80,-93,35,50,-87,-27,42,-63,-105,-100,-104
15,-80,-93,35,50,-87,-27,48,-51,-99,-100,-98
15,-74,-93,29,50,-87,-27,60,-45,-93,-94,-92
21,-68,-93,23,50,-81,-27,66,-39,-87,-82,-80
21,-68,-93,23,50,-81,-27,72,-33,-75,-70,-68
27,-68,-93,23,50,-81,-27,78,-27,-69,-64,-62
33,-68,-93,17,56,-81,-27,78,-21,-63,-58,-56
39,-62,-99,11,62,-81,-27,78,-15,-57,-46,-44
45,-56,-99,5,62,-81,-27,84,-3,-45,-34,-38
51,-56,-99,5,68,-81,-27,90,2,-33,-28,-32
51,-50,-99,5,68,-81,-27,90,8,-33,-22,-26
51,-50,-99,5,68,-81,-27,90,14,-33,-22,-26
51,-50,-99,5,68,-81,-27,90,20,-27,-16,-20
51,-50,-99,-1,68,-81,-27,90,26,-15,-4,-14
63,-44,-99,-12,74,-75,-27,90,32,-9,1,-2
75,-26,-99,-24,74,-69,-27,90,38,-3,7,9
75,-20,-93,-24,74,-63,-27,90,38,2,13,15
75,-20,-93,-24,74,-57,-33,90,38,2,13,21
75,-14,-87,-24,74,-51,-39,90,38,8,19,27
75,-8,-81,-24,74,-45,-45,90,38,14,31,39
75,-8,-81,-24,74,-45,-51,90,38,20,37,45
75,-8,-81,-30,74,-45,-57,84,38,26,43,45
75,-8,-81,-36,74,-45,-57,84,38,32,49,51
75,-8,-81,-36,74,-45,-57,84,38,32,55,57
75,-3,-81,-36,74,-45,-57,78,38,32,55,63
81,9,-75,-42,74,-39,-57,78,38,38,61,75
81,15,-75,-48,74,-33,-57,72,38,38,67,81
81,15,-75,-48,74,-33,-63,66,38,38,73,81
81,15,-69,-48,74,-27,-63,60,38,38,73,81
93,27,-69,-60,74,-21,-63,54,38,38,73,87
99,39,-69,-72,74,-15,-69,54,38,38,79,93
99,45,-63,-78,74,-4,-93,48,32,38,79,93
99,45,-51,-78,74,2,-99,30,20,38,79,93
99,45,-45,-78,68,2,-99,18,8,38,79,93
87,45,-39,-72,62,2,-99,6,2,38,79,93
75,45,-33,-66,56,2,-99,0,-3,32,79,93
75,45,-27,-66,50,2,-99,-5,-9,32,79,93
75,57,-21,-66,50,14,-93,-11,-9,32,79,93
75,63,-15,-72,50,20,-87,-11,-9,32,79,93
75,63,-15,-72,50,20,-87,-11,-9,32,79,99
75,63,-15,-72,50,20,-93,-11,-9,32,79,99
69,63,-15,-72,44,20,-93,-17,-9,32,79,99
63,63,-9,-66,38,20,-93,-23,-15,32,79,99
57,63,-4,-60,32,20,-93,-29,-21,32,79,99
51,63,-4,-60,32,20,-93,-29,-27,32,79,99
45,63,-4,-60,32,20,-87,-29,-27,32,79,99
45,57,-4,-60,32,20,-87,-35,-27,32,73,99
45,57,-4,-60,26,20,-87,-41,-33,26,67,93
45,57,-4,-60,26,20,-87,-41,-33,20,61,87
45,57,-4,-60,26,20,-87,-41,-33,14,55,81
45,57,-4,-60,26,20,-81,-41,-39,8,49,81
45,57,-4,-60,26,20,-69,-41,-39,8,49,75
45,57,-4,-60,26,20,-63,-47,-39,2,43,69
45,45,-4,-54,26,20,-57,-47,-39,-3,37,63
39,33,-4,-42,26,14,-57,-47,-39,-3,31,57
33,21,-4,-30,26,14,-51,-47,-39,-3,25,51
21,9,-4,-18,20,8,-45,-47,-39,-3,19,39
21,9,-4,-18,20,8,-39,-41,-39,-3,13,39
21,15,-4,-18,20,8,-39,-35,-39,-3,13,33
21,15,-4,-18,20,8,-33,-23,-33,-3,7,27
21,9,-15,-18,20,-4,-33,-17,-33,-9,1,21
21,-3,-21,-12,20,-9,-33,-17,-33,-21,-10,9
21,-3,-21,-6,20,-9,-27,-17,-33,-27,-16,3
21,-3,-21,-6,20,-9,-15,-11,-33,-27,-22,-2
21,-3,-21,-6,20,-9,-3,-5,-33,-27,-22,-2
21,-8,-21,-6,20,-9,8,0,-33,-27,-22,-8
9,-14,-21,-1,14,-15,14,0,-33,-27,-28,-20
-2,-26,-21,11,8,-21,20,0,-33,-27,-40,-32
-8,-38,-21,17,8,-27,20,0,-33,-33,-52,-44
-14,-50,-21,29,8,-33,26,6,-33,-39,-58,-50
-26,-56,-21,35,8,-39,32,12,-33,-39,-58,-50
-32,-62,-21,35,8,-39,32,18,-33,-39,-64,-56
-32,-62,-21,35,8,-39,32,18,-33,-39,-64,-62
-32,-62,-27,35,8,-39,32,18,-33,-39,-64,-62
-26,-62,-33,35,8,-45,32,24,-33,-39,-64,-62
-14,-62,-39,35,14,-45,32,24,-33,-39,-64,-62
-8,-62,-45,35,20,-45,32,24,-33,-39,-70,-68
-8,-62,-45,35,20,-51,32,24,-33,-45,-76,-74
-8,-62,-45,35,20,-57,38,24,-33,-51,-82,-80
-14,-68,-45,41,14,-57,38,24,-33,-51,-82,-86
-14,-68,-45,41,14,-57,38,24,-33,-51,-82,-86
-20,-68,-45,41,14,-57,38,24,-33,-57,-88,-86
-20,-74,-45,47,14,-63,38,18,-33,-63,-94,-86
-20,-80,-45,47,14,-63,38,18,-33,-69,-100,-86
-20,-80,-45,47,14,-63,38,18,-33,-69,-100,-86
-32,-86,-45,53,8,-69,38,18,-33,-69,-100,-86
-32,-86,-45,53,8,-69,38,18,-33,-69,-100,-86
-26,-86,-45,47,14,-69,38,18,-33,-69,-100,-86
-14,-80,-45,41,14,-69,44,18,-33,-69,-100,-86
-14,-80,-51,41,14,-69,44,18,-33,-69,-100,-86
-14,-86,-57,41,14,-69,44,18,-33,-69,-100,-86
-14,-86,-57,47,14,-69,44,18,-33,-69,-100,-86
-26,-92,-57,53,8,-69,44,18,-33,-69,-100,-86
-32,-98,-57,59,8,-75,44,18,-33,-69,-100,-86
-32,-98,-57,59,8,-75,50,18,-33,-69,-100,-86
-32,-98,-63,59,8,-81,50,18,-33,-69,-100,-86
-32,-98,-63,59,8,-81,50,18,-33,-69,-100,-86
-32,-98,-63,59,8,-81,56,18,-33,-69,-100,-86
-32,-98,-63,59,8,-81,56,18,-33,-69,-100,-86
-32,-98,-63,59,8,-81,56,18,-33,-69,-100,-86
-32,-98,-63,59,8,-81,56,18,-33,-69,-100,-86
-32,-98,-63,59,8,-81,56,18,-33,-69,-106,-86
-32,-98,-63,59,8,-81,62,18,-33,-69,-106,-86
-32,-98,-63,59,8,-81,68,24,-33,-69,-106,-86
-32,-98,-63,59,8,-81,68,30,-33,-69,-100,-86
-32,-98,-63,59,8,-81,62,30,-33,-69,-100,-86
-32,-98,-63,59,8,-81,56,30,-33,-69,-100,-86
-32,-98,-63,65,8,-81,44,30,-33,-69,-100,-86
-32,-98,-63,65,8,-81,38,30,-33,-69,-100,-86
-32,-98,-63,65,14,-81,38,30,-33,-69,-100,-86
-32,-98,-63,65,14,-81,44,30,-33,-69,-100,-86
-32,-98,-63,65,14,-87,50,30,-33,-69,-100,-86
-32,-98,-63,65,14,-87,56,30,-33,-69,-100,-86
-32,-98,-63,65,14,-87,56,30,-33,-69,-100,-86
-32,-98,-63,65,14,-87,50,30,-33,-75,-100,-86
-32,-98,-63,65,14,-87,44,30,-33,-75,-100,-86
-32,-98,-63,65,14,-87,44,30,-33,-75,-100,-86
-32,-98,-63,65,14,-87,44,30,-33,-75,-100,-86
-32,-98,-63,65,14,-87,50,30,-33,-75,-100,-86
-32,-98,-63,65,14,-87,50,30,-33,-75,-100,-86
-32,-104,-63,65,14,-87,50,30,-33,-75,-100,-86
-32,-110,-63,65,14,-87,50,30,-33,-75,-100,-86
-38,-110,-63,65,14,-87,50,30,-33,-75,-100,-86
-38,-110,-63,65,14,-87,50,30,-33,-75,-100,-86
-38,-110,-63,65,14,-87,50,30,-33,-75,-100,-86
-38,-110,-69,65,14,-87,50,30,-33,-75,-100,-86
-38,-110,-69,65,14,-87,50,30,-33,-81,-100,-86
-38,-110,-69,65,14,-87,50,30,-33,-81,-100,-86
-38,-110,-69,65,14,-87,50,30,-33,-81,-100,-86
-32,-110,-69,65,14,-87,50,30,-33,-81,-100,-86
-26,-110,-69,59,20,-87,50,30,-33,-81,-100,-86
-14,-104,-69,53,26,-87,50,30,-33,-81,-100,-86
-8,-98,-69,47,26,-87,50,30,-33,-81,-100,-86
-14,-98,-69,53,26,-87,50,30,-33,-81,-100,-86
-26,-110,-69,65,20,-87,50,30,-39,-87,-106,-92
-26,-110,-69,65,20,-87,50,30,-45,-93,-106,-92
-26,-104,-69,65,20,-87,50,30,-45,-93,-106,-92
-20,-92,-69,59,20,-81,50,30,-45,-93,-106,-92
-20,-92,-69,59,20,-81,50,30,-45,-93,-106,-92
-20,-92,-75,59,26,-81,50,30,-45,-93,-106,-92
-20,-98,-75,59,26,-87,50,30,-45,-93,-106,-92
-20,-98,-75,59,26,-87,50,30,-45,-93,-106,-92
-20,-98,-75,59,26,-87,50,30,-45,-93,-106,-92
-20,-98,-75,59,26,-87,50,30,-45,-93,-106,-86
-20,-98,-75,59,26,-87,50,30,-45,-93,-106,-86
-20,-98,-75,59,26,-93,50,24,-45,-93,-106,-86
-20,-98,-75,59,26,-93,50,18,-51,-93,-106,-86
-20,-98,-75,59,26,-93,50,12,-57,-93,-106,-86
-26,-98,-75,65,26,-93,50,12,-57,-99,-106,-86
-26,-98,-75,65,26,-93,50,12,-57,-99,-106,-86
-20,-98,-75,65,26,-93,50,6,-63,-99,-106,-86
-20,-98,-75,65,26,-93,50,6,-63,-105,-106,-86
-20,-98,-75,65,26,-93,50,6,-69,-105,-106,-86
-20,-98,-75,59,26,-93,44,0,-75,-105,-106,-86
-14,-92,-75,53,26,-93,44,-5,-81,-111,-106,-86
-14,-92,-75,53,26,-93,44,-5,-81,-111,-106,-86
-14,-92,-75,53,26,-93,44,-5,-81,-111,-106,-86
-14,-92,-75,53,26,-93,44,-5,-81,-111,-106,-86
-14,-92,-75,53,26,-93,44,-5,-87,-111,-106,-86
-14,-92,-75,53,26,-93,32,-5,-87,-111,-106,-86
-14,-98,-75,53,26,-93,20,-5,-87,-117,-106,-86
-20,-104,-75,59,26,-93,20,-11,-87,-123,-112,-92
-26,-110,-75,65,26,-93,26,-11,-87,-123,-112,-92
-26,-110,-75,71,26,-93,26,-11,-87,-123,-118,-92
-26,-116,-75,77,26,-93,26,-11,-87,-123,-118,-92
-26,-116,-81,77,26,-93,26,-17,-87,-123,-118,-92
-26,-110,-81,71,26,-93,26,-17,-87,-123,-118,-92
-26,-104,-81,71,26,-93,32,-17,-93,-123,-118,-92
-32,-104,-81,77,20,-93,32,-17,-99,-129,-118,-92
-38,-104,-81,77,20,-93,32,-17,-99,-135,-124,-92
-38,-104,-81,77,20,-93,38,-17,-99,-135,-124,-92
-32,-104,-81,77,20,-93,44,-17,-99,-135,-124,-92
-32,-104,-81,77,20,-93,44,-23,-99,-135,-124,-92
-32,-104,-81,77,20,-93,44,-29,-99,-135,-124,-92
-32,-104,-81,77,20,-93,44,-29,-105,-135,-124,-92
-32,-104,-81,77,20,-93,44,-29,-111,-135,-130,-98
-32,-104,-81,77,20,-93,44,-35,-117,-135,-136,-104
-32,-104,-81,77,20,-93,44,-35,-117,-135,-136,-110
-32,-104,-81,77,20,-93,38,-35,-117,-135,-136,-110
-32,-104,-81,77,20,-93,38,-35,-123,-135,-136,-110
-32,-104,-81,77,20,-93,44,-35,-123,-135,-136,-110
-32,-104,-81,77,20,-93,44,-35,-123,-135,-136,-110
-32,-104,-81,77,20,-93,38,-41,-123,-135,-136,-110
-32,-104,-81,77,20,-93,26,-47,-123,-135,-136,-110
-32,-104,-81,77,20,-93,20,-47,-123,-135,-136,-110
-32,-104,-81,77,20,-93,20,-47,-123,-135,-136,-104
-32,-104,-81,77,20,-93,26,-47,-123,-135,-136,-104
-32,-104,-81,77,20,-93,26,-47,-123,-135,-136,-104
-32,-104,-81,77,20,-93,26,-47,-129,-141,-136,-104
-32,-110,-81,77,20,-93,26,-53,-135,-147,-136,-104
-32,-110,-81,77,20,-93,26,-53,-135,-147,-136,-110
-32,-110,-81,77,20,-93,26,-53,-135,-147,-142,-110
-32,-110,-81,77,20,-93,26,-53,-135,-147,-148,-110
-32,-110,-81,77,20,-93,26,-53,-135,-153,-148,-110
-32,-110,-81,77,20,-93,26,-53,-135,-153,-148,-110
-32,-110,-87,77,26,-93,26,-53,-135,-153,-148,-110
-32,-110,-87,77,26,-93,26,-53,-135,-153,-148,-110
-32,-110,-87,71,32,-93,26,-53,-135,-153,-148,-110
-32,-110,-87,71,32,-93,26,-53,-135,-153,-148,-110
-32,-110,-87,71,32,-93,26,-53,-135,-153,-148,-110
-32,-110,-87,71,32,-93,26,-53,-135,-153,-148,-110
-32,-110,-87,71,32,-93,26,-53,-135,-153,-148,-110
-32,-110,-87,71,32,-93,26,-59,-135,-159,-148,-110
-32,-110,-81,71,32,-93,26,-71,-141,-165,-148,-116
-32,-110,-81,71,32,-93,26,-71,-147,-165,-154,-122
-38,-110,-81,77,26,-93,20,-71,-147,-165,-154,-122
-38,-110,-81,77,26,-93,14,-71,-147,-165,-154,-122
-38,-110,-81,77,26,-93,14,-71,-147,-165,-154,-122
-38,-110,-81,77,26,-93,20,-71,-147,-165,-154,-122
-38,-110,-81,77,26,-93,26,-71,-147,-165,-154,-122
-38,-110,-81,77,26,-93,26,-71,-147,-165,-154,-122
-38,-104,-81,77,26,-93,26,-71,-147,-165,-154,-122
-38,-104,-81,77,26,-93,26,-71,-147,-165,-154,-122
-38,-104,-81,77,26,-93,32,-71,-147,-165,-154,-122
-38,-104,-81,77,26,-93,38,-71,-147,-165,-154,-122
-44,-110,-81,77,26,-93,38,-71,-147,-165,-154,-122
-44,-116,-81,77,26,-93,38,-71,-147,-165,-154,-122
-44,-116,-81,77,26,-93,38,-71,-147,-165,-154,-122
-38,-116,-81,77,26,-93,38,-71,-147,-165,-154,-122
-32,-116,-81,71,26,-93,38,-71,-147,-165,-154,-122
-32,-116,-81,71,26,-93,32,-71,-147,-165,-154,-122
-32,-116,-81,71,26,-93,20,-71,-147,-165,-154,-122
-26,-110,-81,65,26,-93,20,-71,-147,-165,-154,-122
-20,-104,-81,59,26,-93,20,-71,-147,-165,-154,-122
-20,-98,-81,59,26,-93,26,-71,-147,-165,-148,-116
-20,-98,-81,59,26,-93,26,-71,-147,-165,-148,-116
-20,-98,-81,59,26,-87,26,-71,-147,-165,-148,-116
-20,-92,-69,59,20,-81,26,-71,-147,-165,-148,-116
-20,-80,-57,53,20,-75,32,-71,-147,-165,-148,-116
-20,-74,-51,47,20,-69,38,-71,-147,-165,-148,-116
-20,-68,-51,47,20,-63,38,-71,-147,-165,-148,-110
-20,-62,-45,47,20,-57,38,-65,-147,-165,-142,-104
-20,-56,-39,41,20,-45,44,-59,-141,-165,-142,-98
-20,-50,-39,41,20,-39,56,-59,-141,-159,-142,-92
-20,-50,-39,41,14,-39,62,-59,-141,-153,-142,-92
-26,-56,-39,41,14,-39,68,-59,-141,-153,-142,-92
-26,-56,-39,41,14,-39,74,-59,-141,-153,-142,-92
-26,-56,-39,41,14,-39,80,-59,-135,-153,-142,-92
-26,-56,-39,41,14,-39,80,-53,-129,-153,-142,-92
-26,-56,-39,41,14,-39,68,-53,-129,-153,-142,-92
-26,-56,-39,41,14,-39,56,-53,-129,-153,-142,-92
-26,-56,-39,41,14,-39,50,-53,-129,-153,-142,-92
-26,-56,-39,41,14,-39,50,-53,-123,-147,-136,-92
-20,-50,-39,29,14,-39,56,-47,-117,-141,-130,-92
-8,-38,-39,17,14,-33,62,-41,-111,-135,-124,-86
-2,-32,-39,17,14,-33,62,-35,-105,-129,-118,-80
-2,-32,-39,17,14,-33,44,-35,-105,-123,-118,-80
-2,-32,-39,17,14,-33,32,-35,-105,-123,-118,-80
-2,-32,-39,17,14,-33,32,-35,-105,-123,-118,-80
-2,-32,-39,17,20,-33,32,-35,-105,-123,-118,-80
-2,-32,-39,17,26,-33,26,-35,-105,-123,-118,-80
-2,-32,-45,17,26,-33,20,-35,-105,-123,-118,-80
-2,-38,-51,17,26,-39,20,-35,-105,-123,-118,-80
-2,-44,-63,17,26,-51,20,-35,-105,-123,-112,-74
3,-44,-69,17,32,-51,20,-35,-105,-123,-112,-74
15,-44,-75,17,38,-51,20,-35,-105,-123,-112,-74
21,-44,-75,17,44,-51,20,-35,-105,-123,-112,-74
21,-50,-75,17,44,-57,20,-41,-105,-123,-112,-74
21,-56,-81,17,44,-63,20,-47,-111,-123,-112,-74
21,-56,-81,17,50,-69,20,-53,-117,-123,-112,-74
21,-56,-81,17,50,-69,20,-59,-123,-123,-112,-74
21,-56,-81,17,50,-69,20,-59,-123,-123,-112,-74
21,-56,-75,17,50,-69,8,-65,-123,-129,-112,-80
15,-56,-69,17,44,-63,-3,-65,-129,-129,-112,-80
15,-50,-63,17,38,-57,-3,-65,-129,-129,-112,-80
15,-44,-63,17,38,-57,-3,-65,-129,-129,-112,-80
15,-50,-63,17,38,-57,2,-71,-129,-135,-112,-80
9,-62,-63,23,38,-63,8,-71,-129,-135,-118,-80
3,-68,-63,29,38,-63,14,-71,-135,-141,-124,-80
-2,-74,-63,35,32,-63,14,-71,-141,-147,-130,-86
-14,-86,-63,41,26,-69,14,-83,-147,-159,-142,-98
-14,-92,-69,47,26,-75,14,-89,-153,-171,-148,-104
-14,-92,-75,47,26,-81,14,-89,-159,-177,-154,-110
-14,-92,-75,47,26,-81,14,-89,-165,-183,-160,-116
-20,-104,-75,59,26,-87,8,-89,-171,-189,-166,-122
-26,-116,-81,71,26,-99,8,-89,-177,-195,-172,-128
-32,-128,-87,83,26,-111,8,-89,-177,-201,-178,-128
-32,-134,-87,89,26,-117,8,-89,-177,-201,-178,-128
-32,-134,-87,89,26,-117,8,-89,-177,-201,-178,-128
-32,-128,-87,83,26,-117,8,-89,-171,-195,-172,-128
-32,-122,-87,77,26,-111,8,-89,-165,-189,-160,-122
-32,-116,-81,77,20,-105,8,-89,-165,-183,-154,-116
-38,-116,-75,77,14,-99,8,-89,-159,-177,-148,-116
-44,-110,-69,77,8,-93,14,-89,-153,-171,-142,-110
-44,-98,-63,71,2,-81,20,-83,-141,-159,-136,-104
-44,-80,-51,59,2,-57,26,-71,-129,-147,-124,-98
-38,-50,-27,47,-3,-39,32,-41,-111,-117,-106,-80
-38,-38,2,41,-15,-15,44,-17,-81,-93,-82,-68
-38,-26,20,41,-27,-4,56,0,-57,-81,-76,-56
-38,-14,44,35,-45,20,68,30,-21,-51,-52,-44
-38,21,74,23,-57,50,80,60,20,-9,-22,-14
-38,39,86,11,-63,68,92,90,62,26,1,3
-44,51,104,5,-75,80,98,126,98,44,25,15
-50,57,122,-1,-87,98,110,174,140,74,55,27
-56,87,152,-6,-105,122,146,270,206,110,73,45
-62,117,194,-18,-123,158,188,384,302,170,103,75
-68,165,248,-36,-153,206,236,510,410,242,139,105
-68,225,320,-66,-183,272,278,672,554,326,199,153
-68,309,380,-96,-213,350,308,870,740,464,289,219
-62,381,428,-138,-231,404,314,1062,974,656,439,333
-44,477,476,-210,-243,482,314,1212,1226,914,667,507
3,603,536,-300,-249,578,302,1248,1442,1178,949,729
51,717,608,-390,-255,668,260,1242,1598,1442,1219,963
81,837,698,-468,-273,776,188,1182,1760,1748,1519,1227
123,951,776,-546,-291,866,128,1140,1964,2071,1855,1497
177,1077,842,-630,-303,962,56,1086,2179,2436,2184,1749
219,1191,920,-708,-321,1064,2,1020,2371,2772,2471,1941
225,1293,1052,-750,-363,1178,-39,912,2502,3066,2735,2120
225,1419,1196,-792,-465,1316,-51,768,2622,3402,3023,2306
225,1497,1292,-834,-519,1400,-51,714,2784,3720,3251,2443
219,1503,1298,-840,-537,1406,-51,708,2946,3882,3305,2443
207,1437,1262,-816,-537,1358,-45,690,2964,3852,3221,2276
165,1239,1112,-702,-525,1178,-39,600,2838,3408,2753,1899
111,993,938,-564,-465,968,-39,432,2424,2772,2160,1467
69,777,746,-438,-393,764,-39,222,1856,2089,1579,1083
15,591,620,-318,-357,608,-39,-89,1124,1352,1021,729
-56,393,500,-168,-315,440,-45,-431,338,596,451,375
-110,213,386,-42,-291,296,-57,-713,-249,50,19,57
-134,141,332,-1,-261,230,-75,-815,-519,-207,-184,-110
-140,99,272,17,-243,188,-87,-851,-627,-321,-262,-176
-146,45,230,47,-231,146,-87,-851,-669,-375,-304,-212
-152,-14,176,83,-213,86,-93,-845,-675,-399,-322,-230
-158,-44,134,95,-195,50,-93,-797,-663,-405,-322,-230
-158,-44,104,95,-159,38,-99,-695,-603,-399,-316,-230
-146,-44,80,95,-123,26,-99,-617,-537,-387,-304,-224
-140,-50,68,95,-105,14,-99,-515,-483,-357,-286,-212
-128,-56,56,89,-93,8,-99,-407,-411,-321,-256,-200
-104,-56,44,83,-69,-4,-99,-317,-357,-291,-238,-182
-86,-56,14,83,-45,-15,-99,-251,-309,-273,-232,-170
-74,-56,-4,77,-33,-27,-87,-203,-267,-249,-220,-164
-56,-56,-21,71,-21,-33,-51,-155,-237,-231,-208,-152
-44,-62,-33,71,-9,-39,-33,-131,-219,-219,-196,-140
-38,-74,-45,71,-3,-51,-27,-125,-213,-213,-190,-134
-38,-80,-57,71,2,-63,-15,-125,-213,-213,-190,-134
-32,-86,-69,71,8,-69,-3,-119,-213,-213,-190,-134
-32,-86,-69,71,8,-75,2,-107,-207,-213,-190,-134
-32,-92,-69,71,8,-81,2,-95,-201,-213,-190,-134
-32,-98,-69,71,8,-87,2,-89,-201,-213,-190,-134
-26,-98,-75,71,20,-87,2,-83,-201,-213,-190,-134
-20,-98,-81,65,26,-87,8,-71,-195,-213,-190,-134
-20,-98,-87,65,32,-93,8,-65,-189,-213,-190,-134
-20,-98,-93,65,32,-93,8,-65,-189,-213,-190,-134
-20,-98,-93,65,32,-99,8,-65,-189,-213,-184,-134
-26,-104,-93,65,32,-99,8,-65,-189,-213,-178,-128
-26,-116,-99,71,32,-105,8,-59,-189,-213,-178,-128
-26,-128,-111,71,32,-111,8,-53,-189,-213,-178,-128
-26,-128,-111,71,32,-117,8,-53,-189,-213,-178,-128
-26,-128,-111,71,32,-123,8,-53,-189,-213,-178,-128
-26,-128,-111,71,32,-129,8,-53,-189,-213,-178,-128
-20,-128,-111,71,38,-129,8,-53,-189,-213,-178,-128
-20,-128,-111,71,38,-129,8,-47,-189,-213,-178,-128
-20,-128,-111,71,38,-129,8,-47,-189,-213,-178,-128
-20,-128,-111,71,38,-129,8,-47,-189,-213,-178,-128
-20,-128,-111,71,38,-129,8,-47,-183,-213,-178,-128
-20,-128,-111,71,38,-129,8,-47,-183,-213,-178,-128
-20,-128,-111,71,38,-129,8,-47,-177,-207,-178,-128
-20,-128,-111,71,38,-123,14,-47,-177,-207,-178,-128
-20,-128,-111,71,38,-123,20,-41,-177,-207,-178,-128
-20,-128,-111,71,38,-123,20,-41,-177,-207,-178,-128
-20,-128,-111,77,38,-123,20,-41,-177,-207,-178,-128
-20,-128,-111,77,38,-123,20,-35,-171,-201,-178,-128
-20,-128,-111,77,44,-123,20,-35,-171,-201,-178,-128
-20,-134,-117,77,50,-129,20,-35,-171,-201,-178,-128
-8,-134,-123,71,62,-129,20,-29,-171,-201,-172,-122
3,-122,-123,59,62,-129,26,-23,-165,-195,-160,-116
3,-122,-123,59,62,-129,26,-23,-165,-189,-154,-116
3,-122,-123,59,62,-129,26,-23,-165,-189,-154,-116
3,-122,-123,59,62,-129,26,-23,-165,-189,-148,-116
3,-122,-123,59,62,-129,20,-23,-165,-189,-148,-116
3,-122,-123,59,62,-129,20,-23,-159,-189,-148,-110
-2,-116,-117,59,62,-123,20,-23,-153,-183,-148,-110
-2,-116,-111,59,56,-117,20,-11,-141,-177,-142,-104
-2,-116,-111,59,56,-111,14,-5,-135,-171,-136,-104
-2,-116,-111,59,56,-111,8,-5,-135,-171,-136,-104
-2,-116,-111,59,56,-111,2,-5,-135,-165,-136,-104
-2,-110,-111,59,56,-111,2,-5,-135,-159,-130,-104
-2,-110,-111,59,56,-111,2,-5,-129,-153,-124,-104
-2,-110,-111,59,56,-111,2,0,-129,-153,-124,-104
-2,-104,-111,59,56,-111,2,0,-123,-147,-124,-104
-2,-104,-111,59,56,-111,2,0,-123,-147,-124,-104
-2,-104,-111,59,56,-111,2,0,-123,-141,-118,-104
-2,-98,-111,53,56,-111,2,6,-117,-135,-112,-98
3,-98,-111,53,56,-105,2,12,-111,-129,-106,-92
3,-98,-111,53,56,-105,2,12,-105,-123,-100,-86
3,-98,-111,47,56,-105,2,12,-93,-111,-88,-74
15,-92,-111,35,56,-105,2,12,-87,-105,-76,-62
21,-86,-111,29,56,-105,2,12,-81,-99,-70,-56
21,-86,-111,29,56,-105,-3,12,-81,-99,-64,-50
15,-92,-111,35,56,-105,-9,18,-81,-99,-64,-50
15,-92,-111,35,56,-105,-9,24,-75,-93,-58,-44
21,-86,-111,29,62,-99,-9,36,-69,-81,-52,-38
21,-80,-111,29,62,-93,-9,36,-63,-81,-52,-38
21,-80,-111,29,62,-93,-15,36,-63,-81,-52,-38
21,-80,-111,29,62,-93,-27,36,-63,-81,-52,-38
27,-74,-111,23,62,-93,-27,36,-51,-69,-40,-32
39,-56,-105,11,62,-87,-27,42,-39,-57,-28,-20
45,-50,-105,5,62,-81,-27,42,-33,-51,-28,-14
45,-50,-105,-1,62,-81,-27,42,-27,-45,-22,-8
45,-50,-105,-1,62,-75,-33,42,-21,-39,-16,-2
45,-50,-105,-1,68,-75,-39,42,-21,-33,-10,3
45,-44,-105,-6,68,-75,-45,42,-21,-27,-4,9
51,-38,-99,-12,68,-69,-51,42,-21,-21,7,15
51,-32,-93,-12,68,-63,-57,42,-21,-15,19,21
51,-26,-93,-12,68,-63,-63,42,-21,-9,31,27
51,-20,-93,-12,68,-57,-63,42,-15,-3,37,33
51,-14,-93,-18,68,-51,-63,48,-15,8,37,39
51,-14,-87,-24,68,-51,-63,48,-9,14,37,39
51,-14,-87,-24,68,-51,-63,48,-9,20,43,45
51,-14,-87,-24,68,-45,-63,48,-9,20,43,45
57,-8,-81,-24,68,-39,-63,48,-9,26,55,51
57,-3,-75,-30,68,-27,-63,48,-9,32,61,57
57,3,-69,-30,62,-21,-63,48,-9,32,61,57
57,3,-63,-30,56,-21,-63,42,-9,32,61,57
57,9,-57,-30,56,-21,-63,36,-9,32,67,63
57,21,-51,-36,56,-21,-63,36,-9,32,67,69
63,33,-45,-42,56,-15,-63,36,-9,38,73,75
69,45,-45,-54,56,-4,-63,36,-9,44,85,87
75,51,-45,-54,56,2,-81,36,-9,50,91,99
75,51,-39,-54,56,2,-93,24,-9,50,97,99
69,45,-39,-48,50,2,-105,6,-21,50,97,99
69,45,-39,-48,50,2,-105,-5,-33,50,97,99
75,51,-33,-54,50,14,-105,-11,-39,50,97,105
75,57,-27,-60,50,20,-105,-17,-45,50,97,111
69,57,-21,-60,44,20,-99,-23,-51,50,97,117
63,57,-15,-60,38,20,-93,-29,-57,50,97,117
57,57,-9,-60,32,20,-93,-41,-63,50,97,117
57,57,-4,-60,32,20,-105,-53,-69,50,97,117
57,69,2,-60,32,32,-111,-59,-69,44,97,117
57,81,8,-72,32,38,-111,-65,-69,44,97,117
57,87,14,-72,32,44,-111,-71,-75,38,97,123
57,87,20,-72,26,44,-111,-77,-87,32,97,123
57,87,20,-66,20,44,-117,-83,-99,26,97,123
57,87,20,-66,20,44,-117,-89,-105,26,97,123
57,93,20,-66,20,50,-117,-95,-111,26,97,123
57,93,20,-66,20,50,-111,-95,-111,20,97,123
57,93,20,-66,20,50,-111,-101,-111,14,97,123
51,87,20,-60,20,50,-105,-113,-117,8,91,117
45,81,20,-54,20,44,-105,-125,-123,2,79,111
45,69,20,-54,20,44,-99,-125,-123,2,73,105
45,63,20,-48,20,44,-93,-125,-123,2,67,99
45,63,20,-42,20,44,-87,-125,-123,2,67,93
45,63,20,-42,14,44,-81,-125,-123,2,67,93
45,63,20,-42,8,44,-75,-119,-123,2,67,93
45,63,20,-42,8,44,-75,-113,-123,-3,61,93
45,63,20,-42,8,44,-75,-113,-117,-3,55,87
45,63,20,-42,8,44,-75,-113,-117,-3,55,87
39,63,20,-42,2,44,-69,-107,-117,-3,49,75
21,57,20,-30,-3,44,-63,-107,-117,-3,43,63
9,45,20,-18,-9,44,-51,-95,-111,-3,37,51
9,45,20,-18,-9,44,-45,-83,-105,-3,31,45
9,45,20,-18,-9,44,-39,-77,-105,-3,25,39
9,45,20,-18,-9,44,-33,-77,-105,-3,13,33
9,45,20,-18,-9,38,-27,-77,-105,-9,7,21
9,39,20,-18,-9,32,-27,-71,-105,-15,1,15
3,27,20,-12,-9,26,-27,-65,-105,-15,-4,9
-8,3,20,-1,-9,20,-27,-59,-99,-21,-10,3
-8,-3,20,5,-9,20,-15,-53,-93,-21,-10,3
-8,-3,14,5,-9,14,-3,-53,-87,-21,-16,-2
-8,-3,8,5,-3,8,2,-53,-87,-21,-22,-8
-2,-3,2,5,-3,2,2,-47,-87,-21,-28,-14
-2,-3,-4,5,2,2,2,-41,-87,-21,-28,-20
-2,-3,-9,5,2,-4,2,-41,-87,-27,-34,-32
-2,-8,-9,11,2,-4,8,-41,-87,-33,-40,-38
-2,-14,-9,11,2,-9,14,-41,-87,-33,-46,-38
-2,-14,-9,11,2,-15,20,-35,-87,-33,-46,-44
-2,-20,-9,11,2,-21,26,-35,-87,-39,-52,-50
-8,-32,-9,17,2,-27,26,-35,-87,-39,-58,-56
-14,-38,-9,23,2,-33,26,-35,-87,-39,-58,-62
-14,-38,-9,23,2,-33,26,-29,-81,-39,-58,-62
-14,-38,-9,23,2,-33,26,-29,-81,-39,-58,-62
-26,-44,-9,35,2,-33,26,-29,-81,-39,-58,-62
-38,-68,-15,65,-3,-45,20,-35,-81,-45,-64,-62
-50,-74,-15,71,-9,-51,14,-41,-81,-51,-64,-62
-50,-74,-15,71,-9,-51,14,-41,-81,-51,-64,-62
-50,-68,-15,71,-9,-45,20,-35,-81,-51,-64,-62
-44,-62,-15,65,-9,-45,26,-35,-81,-51,-64,-62
-38,-62,-15,59,-9,-45,38,-35,-81,-51,-64,-62
-38,-62,-15,53,-9,-45,38,-35,-81,-51,-64,-68
-38,-62,-15,53,-9,-45,38,-35,-81,-51,-70,-74
-38,-62,-15,53,-9,-45,38,-35,-81,-51,-70,-74
-38,-62,-15,53,-9,-45,38,-35,-81,-51,-76,-74
-38,-62,-15,53,-9,-45,38,-35,-81,-51,-76,-74
-38,-62,-15,53,-9,-45,38,-35,-81,-51,-76,-74
-38,-62,-15,53,-9,-45,32,-35,-81,-51,-76,-74
-38,-62,-15,53,-9,-45,26,-35,-81,-51,-76,-74
-38,-62,-15,53,-9,-45,26,-35,-81,-51,-76,-74
-38,-62,-15,53,-9,-45,26,-35,-81,-51,-76,-74
-38,-62,-15,53,-9,-45,26,-35,-81,-51,-76,-74
-38,-62,-15,53,-9,-45,26,-35,-81,-51,-76,-74
-38,-62,-15,53,-9,-45,26,-35,-81,-57,-76,-74
-38,-62,-15,53,-9,-45,26,-35,-81,-57,-76,-74
-38,-62,-15,53,-9,-45,26,-35,-81,-57,-76,-74
-38,-62,-15,53,-9,-45,26,-35,-81,-57,-76,-74
-38,-62,-15,53,-9,-45,26,-35,-81,-57,-76,-74
-38,-62,-21,53,-9,-45,20,-35,-81,-57,-76,-74
-38,-62,-21,53,-3,-45,14,-35,-81,-57,-70,-74
-38,-62,-27,53,-3,-45,14,-29,-81,-57,-70,-74
-38,-62,-27,53,-3,-45,26,-29,-81,-57,-70,-74
-38,-62,-27,47,2,-45,38,-23,-75,-57,-70,-74
-38,-62,-27,47,2,-45,44,-23,-75,-57,-70,-74
-38,-62,-33,47,2,-45,44,-23,-75,-57,-70,-74
-38,-62,-33,47,2,-45,44,-23,-75,-57,-70,-74
-38,-62,-33,47,2,-45,38,-23,-75,-57,-70,-74
-38,-68,-39,53,2,-51,38,-23,-75,-63,-70,-74
-38,-74,-45,53,2,-57,38,-23,-75,-63,-70,-74
-38,-74,-45,53,2,-57,38,-23,-75,-63,-70,-74
-38,-74,-45,53,2,-57,32,-23,-75,-63,-70,-74
-38,-74,-45,53,2,-57,26,-23,-75,-63,-70,-74
-38,-74,-45,53,2,-57,26,-23,-75,-63,-70,-74
-38,-74,-45,53,2,-57,20,-23,-75,-63,-70,-74
-38,-74,-45,53,2,-57,20,-23,-75,-63,-70,-74
-38,-68,-45,47,2,-57,20,-23,-75,-63,-70,-74
-38,-62,-45,47,2,-51,20,-23,-75,-63,-70,-74
-38,-62,-45,47,2,-51,20,-23,-75,-63,-70,-74
-38,-62,-45,47,2,-51,20,-23,-75,-63,-70,-74
-32,-62,-45,47,2,-51,20,-23,-75,-63,-70,-74
-32,-62,-45,47,2,-51,20,-23,-75,-63,-70,-74
-32,-62,-45,47,2,-51,20,-23,-75,-63,-70,-74
-32,-62,-45,47,2,-51,20,-23,-75,-63,-70,-74
-32,-68,-51,47,2,-57,14,-23,-75,-63,-70,-74
-32,-68,-51,47,2,-57,14,-17,-75,-63,-70,-74
-26,-62,-51,41,2,-57,14,-11,-69,-63,-70,-74
-26,-62,-51,41,2,-57,14,-11,-69,-63,-70,-74
-26,-62,-51,41,2,-57,8,-11,-69,-63,-70,-80
-26,-62,-51,41,8,-57,8,-11,-69,-69,-76,-80
-26,-62,-51,41,8,-57,8,-11,-69,-69,-76,-80
-26,-56,-45,41,8,-51,8,-11,-69,-69,-70,-80
-32,-56,-39,41,2,-51,8,-11,-69,-69,-70,-80
-38,-62,-39,53,-3,-51,8,-11,-69,-69,-70,-80
-38,-62,-39,53,-3,-51,8,-11,-69,-69,-70,-80
-38,-62,-39,53,-3,-51,14,-11,-69,-69,-70,-80
-38,-62,-39,53,-3,-51,20,-11,-69,-69,-70,-80
-38,-62,-39,53,-3,-51,20,-11,-69,-69,-70,-80
-38,-62,-39,53,-3,-51,14,-11,-75,-69,-76,-80
-38,-62,-39,53,-3,-51,2,-17,-81,-75,-82,-80
-38,-62,-39,53,-3,-51,2,-17,-81,-75,-82,-80
-32,-62,-39,47,2,-51,2,-17,-81,-81,-82,-80
-26,-62,-39,41,2,-51,8,-17,-81,-87,-82,-80
-14,-56,-39,29,8,-51,14,-17,-81,-87,-82,-80
9,-50,-45,17,20,-51,14,-17,-81,-87,-82,-80
9,-50,-45,17,20,-51,14,-17,-81,-87,-82,-80
3,-50,-45,23,20,-51,8,-17,-81,-87,-82,-80
-2,-50,-45,29,20,-51,8,-17,-81,-87,-82,-80
-2,-50,-45,29,20,-51,8,-17,-81,-87,-82,-80
-2,-50,-45,29,20,-51,8,-17,-81,-87,-82,-80
-8,-50,-45,29,20,-51,8,-17,-81,-87,-82,-80
-8,-50,-45,29,20,-51,14,-17,-81,-87,-82,-80
-8,-50,-45,29,20,-51,14,-17,-87,-87,-88,-80
-8,-50,-45,29,20,-51,14,-17,-87,-93,-94,-80
-8,-50,-45,29,20,-51,14,-17,-87,-93,-94,-80
-8,-50,-45,29,20,-51,14,-17,-87,-93,-94,-80
-8,-50,-45,29,20,-51,14,-17,-93,-93,-94,-80
-8,-50,-45,29,20,-51,14,-17,-93,-93,-94,-86
-8,-50,-45,29,20,-51,14,-23,-99,-93,-100,-92
-8,-50,-45,29,20,-51,14,-23,-99,-93,-100,-92
-14,-50,-45,35,14,-51,8,-23,-99,-99,-100,-92
-26,-56,-45,41,8,-51,8,-23,-99,-105,-100,-92
-38,-62,-39,47,2,-51,8,-23,-99,-105,-100,-92
-44,-62,-39,47,-3,-51,14,-23,-99,-105,-100,-92
-44,-62,-39,47,-3,-51,14,-29,-105,-105,-106,-92
-44,-62,-39,47,-3,-51,14,-41,-111,-105,-106,-92
-44,-62,-39,47,-3,-51,14,-47,-117,-111,-112,-98
-44,-62,-39,47,-3,-51,20,-47,-117,-111,-118,-104
-38,-62,-39,47,-3,-51,20,-47,-117,-111,-118,-104
-32,-62,-39,47,2,-51,20,-53,-117,-111,-118,-104
-26,-62,-39,47,8,-51,14,-53,-117,-111,-118,-104
-20,-62,-39,41,8,-51,14,-53,-117,-111,-118,-104
-20,-62,-39,41,8,-51,14,-59,-123,-117,-118,-104
-20,-62,-39,41,8,-51,14,-59,-129,-123,-124,-110
-20,-62,-39,41,8,-51,14,-59,-129,-123,-124,-110
-20,-62,-39,41,8,-51,8,-59,-129,-123,-124,-110
-20,-62,-39,41,8,-51,8,-59,-135,-129,-124,-110
-20,-62,-39,41,8,-51,8,-59,-135,-129,-124,-110
-20,-62,-39,41,8,-51,14,-59,-135,-129,-124,-110
-20,-68,-39,41,8,-57,14,-59,-141,-129,-124,-110
-26,-74,-45,47,8,-63,14,-59,-141,-129,-124,-110
-26,-74,-45,47,8,-63,14,-59,-141,-129,-124,-110
-26,-74,-45,47,8,-63,14,-59,-141,-129,-124,-110
-26,-74,-45,47,8,-63,14,-59,-141,-129,-124,-110
-26,-74,-51,47,8,-63,8,-59,-141,-129,-124,-110
-26,-74,-51,47,8,-63,8,-59,-141,-129,-124,-110
-26,-74,-51,47,8,-63,8,-65,-141,-129,-124,-110
-26,-74,-51,47,8,-63,8,-71,-147,-135,-130,-110
-32,-74,-51,53,8,-63,8,-77,-153,-141,-130,-110
-32,-74,-51,53,8,-63,8,-77,-153,-141,-130,-110
-32,-74,-51,53,8,-63,8,-77,-153,-141,-130,-110
-32,-74,-51,53,8,-63,8,-77,-153,-141,-130,-110
-32,-74,-51,53,8,-63,2,-77,-153,-141,-130,-110
-32,-74,-51,53,8,-63,-3,-77,-153,-147,-136,-110
-32,-80,-51,59,8,-69,-3,-77,-153,-147,-142,-110
-38,-92,-51,65,8,-75,-3,-77,-153,-147,-142,-110
-38,-92,-51,65,8,-75,-3,-77,-153,-147,-142,-110
-38,-86,-51,65,8,-69,2,-77,-153,-147,-142,-110
-38,-86,-51,65,8,-69,2,-77,-153,-147,-142,-110
-44,-86,-51,65,8,-69,2,-77,-159,-153,-142,-116
-44,-86,-51,65,8,-69,2,-83,-159,-153,-142,-122
-44,-86,-51,65,8,-69,2,-83,-159,-153,-142,-122
-44,-86,-51,65,8,-69,2,-89,-159,-153,-142,-122
-32,-80,-51,53,14,-69,2,-89,-159,-153,-142,-122
-20,-74,-51,41,20,-69,2,-89,-159,-153,-142,-122
-14,-74,-51,41,20,-69,14,-89,-159,-153,-136,-122
-14,-74,-51,41,20,-69,26,-89,-159,-153,-136,-122
-20,-80,-51,47,20,-69,26,-89,-159,-153,-136,-122
-26,-80,-51,47,20,-69,14,-89,-165,-159,-136,-122
-26,-80,-51,47,20,-69,2,-89,-165,-159,-136,-122
-26,-74,-51,47,20,-63,2,-89,-165,-159,-136,-122
-26,-74,-51,47,20,-63,8,-89,-165,-159,-136,-122
-26,-74,-51,47,20,-63,14,-89,-165,-159,-136,-122
-26,-68,-45,41,20,-63,14,-89,-165,-159,-136,-122
-26,-68,-45,41,20,-63,14,-89,-165,-159,-136,-122
-26,-68,-39,41,14,-63,14,-89,-165,-159,-136,-122
-32,-68,-33,41,8,-63,20,-89,-165,-159,-136,-122
-32,-68,-27,41,2,-57,20,-89,-165,-159,-136,-122
-26,-50,-21,35,2,-45,20,-89,-159,-153,-136,-122
-20,-26,-15,23,2,-33,26,-89,-153,-147,-136,-122
-20,-20,-15,23,2,-27,26,-89,-153,-147,-136,-122
-20,-20,-9,23,-3,-27,26,-89,-153,-147,-136,-122
-20,-20,-4,23,-9,-21,32,-89,-153,-147,-136,-116
-20,-20,2,23,-9,-15,38,-83,-153,-147,-130,-110
-20,-20,8,23,-9,-9,44,-77,-153,-147,-130,-104
-20,-14,14,17,-9,-4,44,-77,-153,-141,-124,-104
-20,-8,14,11,-9,2,44,-77,-153,-141,-124,-104
-20,-3,14,5,-9,2,44,-77,-153,-141,-124,-104
-20,-3,14,5,-9,2,44,-77,-153,-141,-118,-104
-20,-3,14,5,-9,2,44,-77,-153,-141,-118,-104
-20,3,14,5,-9,2,50,-77,-147,-141,-118,-104
-14,9,14,-1,-9,2,50,-77,-147,-141,-118,-104
-8,9,8,-1,-3,2,38,-77,-147,-141,-118,-104
-8,3,2,-1,-3,-4,20,-77,-147,-141,-118,-104
-8,3,2,-1,-3,-4,20,-77,-147,-141,-118,-104
-8,3,2,-1,-3,-4,20,-77,-147,-141,-118,-98
-8,3,2,-1,-3,-4,20,-77,-147,-141,-112,-98
-8,-3,-4,-1,2,-9,8,-77,-147,-141,-112,-98
-8,-14,-15,-1,2,-15,-3,-77,-147,-141,-112,-98
-8,-20,-21,-1,2,-21,-15,-77,-147,-141,-112,-98
-2,-20,-27,-1,2,-21,-15,-77,-147,-141,-112,-98
-2,-20,-27,-1,2,-21,-15,-77,-147,-135,-106,-92
-2,-20,-27,-1,2,-21,-15,-77,-147,-135,-100,-86
-2,-20,-27,-1,2,-21,-15,-77,-141,-135,-94,-86
3,-14,-27,-1,8,-21,-15,-77,-141,-135,-94,-80
15,-14,-33,-1,14,-21,-15,-77,-141,-129,-94,-80
21,-14,-39,-1,20,-27,-15,-77,-141,-129,-94,-80
27,-14,-39,-6,26,-27,-15,-77,-141,-129,-94,-80
27,-14,-39,-6,26,-27,-15,-77,-141,-129,-94,-80
21,-20,-39,-6,26,-27,-15,-77,-141,-129,-94,-80
15,-20,-39,-1,26,-27,-15,-77,-141,-129,-94,-80
15,-14,-39,-1,26,-27,-15,-77,-141,-129,-94,-80
21,-8,-39,-6,26,-27,-9,-77,-141,-129,-94,-80
21,-8,-39,-6,26,-27,-9,-77,-141,-129,-94,-80
15,-8,-33,-6,26,-27,-21,-83,-141,-135,-94,-86
9,-20,-33,-1,26,-33,-21,-89,-147,-141,-100,-92
3,-26,-33,5,26,-39,-21,-95,-153,-147,-112,-98
3,-38,-33,11,26,-39,-15,-101,-159,-153,-118,-104
-2,-44,-39,17,26,-39,-9,-107,-171,-159,-124,-104
-14,-56,-39,29,26,-45,-9,-113,-183,-165,-136,-104
-26,-68,-39,41,20,-51,-9,-125,-195,-177,-148,-110
-32,-80,-39,47,20,-57,-9,-131,-201,-189,-154,-116
-32,-80,-45,47,20,-63,-9,-131,-201,-189,-154,-122
-32,-86,-51,53,20,-69,-3,-131,-201,-189,-154,-128
-32,-92,-51,59,20,-81,-3,-131,-201,-189,-154,-128
-38,-98,-51,65,20,-81,-3,-131,-201,-189,-154,-128
-44,-98,-51,65,20,-81,-3,-131,-201,-189,-154,-128
-44,-98,-51,71,20,-81,-3,-131,-201,-189,-154,-128
-50,-98,-51,71,20,-81,-3,-131,-201,-189,-154,-128
-50,-98,-51,71,20,-81,-3,-131,-201,-189,-154,-128
-50,-86,-45,65,20,-69,2,-125,-195,-189,-148,-122
-50,-74,-33,59,8,-51,2,-119,-189,-177,-142,-116
-50,-62,-15,53,2,-45,8,-107,-177,-165,-130,-104
-50,-56,-4,53,-9,-39,8,-89,-147,-141,-118,-98
-56,-56,8,53,-21,-33,8,-65,-135,-129,-106,-92
-62,-44,20,53,-33,-21,14,-35,-105,-111,-94,-86
-62,-32,32,41,-39,2,26,-5,-63,-81,-70,-74
-62,3,56,29,-45,32,56,12,-39,-51,-46,-44
-62,33,92,23,-57,62,86,30,-9,-21,-22,-20
-68,45,122,17,-81,86,98,60,8,8,1,-2
-74,69,146,11,-93,104,110,78,38,32,13,15
-74,93,170,5,-117,128,116,120,80,50,37,27
-74,105,200,-1,-129,152,134,180,140,74,49,39
-80,129,236,-6,-147,176,146,288,218,110,73,45
-80,171,278,-36,-159,218,164,414,314,158,103,63
-80,237,314,-66,-171,260,224,582,458,254,151,99
-80,303,368,-102,-195,338,296,786,644,386,253,183
-68,399,416,-162,-207,410,308,960,860,572,391,309
-50,471,458,-198,-219,458,302,1086,1076,782,559,435
-38,525,506,-240,-237,518,272,1116,1268,1022,781,615
-20,627,596,-306,-267,614,230,1104,1418,1292,1051,843
21,789,704,-402,-297,752,170,1038,1592,1592,1363,1089
81,939,806,-528,-315,872,86,1008,1796,1934,1693,1359
129,1065,902,-594,-345,980,8,948,2012,2305,2052,1617
159,1179,998,-684,-375,1082,-51,900,2227,2676,2382,1845
177,1323,1100,-738,-417,1208,-87,810,2377,3018,2681,2060
189,1461,1244,-816,-489,1352,-111,660,2454,3348,2981,2276
195,1605,1358,-882,-537,1490,-129,540,2574,3690,3257,2461
201,1641,1400,-906,-555,1520,-135,510,2742,3948,3413,2509
201,1605,1388,-900,-561,1508,-135,510,2838,3984,3413,2491
177,1377,1244,-786,-555,1316,-129,498,2832,3810,3131,2192
135,1119,1034,-636,-507,1070,-129,426,2562,3258,2579,1767
93,879,842,-492,-435,854,-123,264,2083,2574,1981,1329
45,657,692,-360,-375,662,-123,6,1424,1808,1393,933
-14,459,530,-228,-327,488,-123,-335,620,956,763,531
-80,261,410,-102,-297,332,-135,-635,-99,230,235,177
-128,159,344,-24,-267,242,-147,-797,-489,-153,-82,-38
-146,117,290,5,-249,200,-153,-833,-615,-297,-214,-128
-152,81,248,29,-219,158,-153,-851,-663,-369,-274,-170
-152,39,188,47,-201,116,-153,-851,-681,-399,-292,-188
-146,9,146,53,-159,80,-153,-815,-669,-399,-298,-194
-140,-3,116,53,-135,56,-159,-713,-627,-393,-292,-194
-128,-14,104,53,-123,44,-159,-611,-543,-375,-274,-194
-122,-14,104,53,-117,44,-159,-491,-459,-327,-250,-188
-116,-14,104,53,-111,44,-141,-389,-393,-297,-232,-176
-116,-14,98,53,-105,38,-111,-323,-339,-267,-208,-158
-104,-14,86,53,-87,32,-87,-263,-297,-249,-196,-146
-92,-20,50,53,-69,20,-75,-221,-267,-237,-190,-140
-86,-38,20,53,-57,-4,-63,-185,-249,-231,-184,-134
-80,-44,2,53,-33,-21,-51,-149,-231,-225,-178,-128
-68,-50,-9,53,-21,-33,-33,-125,-219,-219,-172,-122
-62,-62,-21,53,-15,-51,-21,-119,-213,-219,-172,-122
-62,-86,-39,59,-9,-75,-15,-119,-213,-219,-172,-122
-56,-98,-51,65,-3,-87,-15,-119,-213,-219,-172,-128
-50,-104,-63,65,2,-99,-15,-113,-213,-219,-172,-134
-44,-104,-69,65,14,-99,-3,-101,-207,-219,-172,-134
-38,-104,-75,65,26,-99,2,-89,-201,-219,-172,-134
-32,-104,-75,65,26,-99,2,-89,-201,-219,-172,-134
-32,-104,-81,65,26,-99,2,-89,-201,-219,-172,-134
-32,-104,-81,65,26,-99,8,-83,-201,-219,-172,-134
-32,-104,-81,65,26,-99,8,-77,-201,-219,-172,-134
-38,-110,-81,71,20,-99,2,-77,-201,-219,-172,-134
-44,-110,-75,71,14,-99,2,-77,-201,-219,-172,-134
-44,-110,-75,71,14,-99,2,-77,-201,-219,-172,-134
-38,-110,-75,65,20,-99,2,-71,-201,-219,-172,-134
-38,-110,-81,65,20,-99,2,-65,-195,-219,-172,-134
-38,-116,-81,71,20,-99,2,-65,-195,-219,-172,-134
-38,-116,-81,77,20,-99,2,-65,-195,-219,-172,-134
-38,-116,-81,77,26,-99,2,-59,-195,-219,-172,-134
-38,-116,-87,77,32,-99,2,-59,-195,-219,-172,-134
-38,-116,-87,77,32,-99,2,-59,-195,-219,-172,-134
-38,-122,-93,77,38,-105,8,-59,-195,-219,-178,-134
-38,-134,-99,83,38,-117,8,-59,-195,-225,-184,-140
-44,-146,-99,89,38,-123,8,-59,-195,-225,-184,-140
-44,-146,-99,95,32,-123,14,-59,-195,-225,-184,-140
-44,-140,-99,95,32,-117,26,-47,-189,-219,-178,-134
-44,-134,-99,95,32,-111,38,-41,-183,-219,-178,-128
-50,-134,-99,95,32,-111,38,-41,-183,-219,-178,-128
-50,-134,-99,95,32,-111,38,-41,-183,-219,-178,-128
-38,-122,-99,83,32,-111,32,-35,-183,-219,-178,-128
-32,-116,-99,71,32,-111,26,-35,-183,-219,-178,-128
-32,-116,-99,71,32,-111,26,-35,-183,-219,-178,-128
-32,-116,-99,71,32,-111,26,-35,-183,-219,-172,-128
-20,-116,-99,65,38,-111,26,-29,-171,-213,-172,-128
-20,-116,-99,65,38,-111,26,-29,-165,-213,-172,-128
-20,-116,-99,65,38,-111,26,-29,-159,-213,-172,-128
-20,-116,-99,65,38,-111,26,-23,-159,-207,-172,-128
-20,-116,-99,65,38,-111,26,-23,-159,-201,-172,-128
-20,-116,-99,65,38,-105,26,-17,-153,-201,-172,-128
-20,-110,-99,59,38,-105,26,-11,-147,-195,-166,-128
-20,-110,-99,59,38,-105,26,-5,-141,-195,-166,-128
-20,-110,-99,59,38,-105,26,-5,-141,-189,-160,-128
-20,-110,-99,59,38,-105,26,-5,-141,-189,-148,-128
-20,-110,-99,59,38,-105,26,-11,-141,-189,-148,-128
-20,-110,-99,59,38,-105,20,-11,-135,-183,-148,-122
-20,-110,-99,59,38,-105,14,-11,-135,-177,-148,-122
-20,-110,-99,59,44,-105,14,-11,-135,-177,-148,-122
-14,-110,-99,59,44,-105,14,-5,-135,-171,-148,-116
-14,-110,-99,59,44,-105,14,0,-129,-171,-142,-110
-14,-110,-99,59,44,-105,14,6,-123,-165,-142,-110
-8,-104,-99,53,44,-105,14,12,-111,-159,-136,-104
-2,-92,-99,47,44,-99,14,18,-99,-153,-124,-98
-2,-86,-99,47,44,-99,14,24,-93,-147,-118,-92
-2,-86,-99,47,44,-99,8,30,-87,-141,-112,-86
-2,-86,-99,47,44,-99,-9,36,-87,-129,-106,-80
-2,-86,-99,47,44,-99,-9,36,-81,-117,-100,-74
-2,-86,-99,47,44,-99,-3,36,-81,-111,-94,-74
-2,-92,-99,47,44,-99,-3,36,-81,-111,-94,-74
-2,-98,-99,47,44,-99,-3,36,-81,-111,-94,-74
-2,-98,-99,47,44,-99,-3,36,-75,-111,-88,-74
-2,-98,-99,47,44,-99,-3,42,-63,-99,-82,-62
3,-92,-99,47,44,-99,-3,42,-57,-87,-76,-56
3,-86,-99,47,44,-99,-15,48,-51,-81,-70,-50
3,-86,-99,41,44,-99,-21,48,-51,-81,-64,-50
3,-80,-99,35,44,-99,-27,48,-45,-75,-64,-50
9,-74,-99,23,44,-93,-27,54,-33,-63,-58,-38
15,-62,-93,11,44,-87,-27,66,-21,-51,-46,-26
21,-50,-87,5,44,-75,-27,72,-15,-39,-34,-14
33,-38,-81,-6,44,-69,-27,72,-9,-27,-22,-8
39,-32,-81,-12,50,-63,-27,72,-3,-27,-16,-2
39,-32,-81,-12,50,-57,-33,72,2,-21,-10,3
39,-26,-81,-12,50,-57,-33,78,2,-15,1,15
45,-20,-81,-18,50,-51,-33,78,2,-9,13,27
45,-20,-75,-18,50,-45,-33,78,8,-3,19,33
45,-14,-75,-24,50,-39,-33,78,14,8,25,45
51,-3,-75,-30,50,-33,-33,78,20,20,37,51
57,9,-69,-36,56,-27,-39,78,26,26,43,57
57,9,-63,-36,56,-27,-45,78,26,32,49,63
57,15,-57,-36,56,-27,-51,78,26,38,55,69
57,21,-51,-42,56,-21,-51,78,32,44,61,75
63,21,-45,-48,56,-15,-51,78,38,50,73,87
63,21,-45,-48,56,-9,-51,78,38,56,79,93
63,27,-39,-48,56,-4,-51,72,38,56,79,93
63,33,-39,-54,56,2,-51,66,38,56,79,93
69,45,-33,-60,56,8,-51,66,38,56,85,99
69,45,-33,-60,56,8,-57,60,38,56,91,105
69,45,-33,-60,56,8,-81,60,38,56,91,105
69,45,-27,-60,56,8,-111,54,38,56,97,105
69,51,-21,-60,56,14,-111,48,38,56,97,105
69,57,-15,-66,56,20,-105,48,38,56,97,111
69,63,-9,-66,50,26,-99,42,38,56,103,123
69,63,-4,-66,44,32,-99,36,32,56,103,129
69,63,2,-66,38,38,-105,24,20,56,103,129
63,63,8,-66,32,38,-105,6,8,56,103,129
51,63,8,-60,26,38,-105,-5,2,56,103,129
51,63,14,-60,26,38,-105,-17,-3,56,103,129
51,69,14,-66,26,44,-105,-23,-9,56,103,129
51,75,20,-66,20,50,-105,-29,-15,56,103,129
51,75,20,-66,20,50,-105,-35,-15,56,103,129
51,75,20,-66,20,50,-105,-35,-21,56,103,129
51,75,26,-66,14,50,-105,-41,-27,50,97,129
51,75,32,-66,14,50,-105,-47,-33,44,91,129
57,87,32,-78,14,56,-105,-47,-33,44,91,129
57,87,32,-78,14,56,-105,-47,-33,44,91,129
51,87,32,-78,14,56,-105,-47,-33,38,91,129
51,87,32,-78,14,56,-99,-47,-33,32,85,129
51,87,32,-78,14,62,-93,-47,-33,32,85,123
51,93,32,-78,14,68,-87,-47,-33,32,85,117
51,93,32,-78,14,68,-81,-47,-33,32,79,111
51,93,32,-78,14,68,-75,-47,-33,26,73,105
51,87,32,-78,14,62,-69,-47,-33,20,67,99
51,87,32,-78,14,62,-63,-47,-33,14,61,93
51,87,32,-78,14,62,-57,-47,-33,14,61,93
51,87,32,-78,14,62,-57,-47,-33,14,55,81
45,75,32,-72,14,56,-57,-47,-33,14,49,69
33,63,32,-60,14,44,-57,-47,-33,8,37,57
27,51,26,-48,14,32,-45,-41,-33,8,25,51
21,45,26,-42,14,26,-33,-35,-33,8,19,45
15,39,26,-36,14,26,-33,-35,-33,2,19,33
15,33,26,-30,14,26,-33,-29,-33,-3,7,27
15,27,20,-24,14,20,-33,-23,-33,-9,1,21
15,21,14,-24,8,20,-33,-23,-33,-9,-4,15
15,21,14,-24,8,20,-33,-23,-33,-15,-10,15
15,21,14,-24,8,20,-21,-17,-33,-15,-16,9
15,15,14,-24,8,14,-3,-17,-33,-21,-22,-2
3,3,8,-12,8,2,8,-17,-33,-27,-28,-14
-2,-8,8,-1,8,-4,8,-17,-33,-33,-34,-26
-2,-14,2,5,8,-9,8,-17,-33,-39,-46,-32
-8,-26,-9,17,8,-15,8,-17,-39,-45,-52,-44
-14,-38,-15,29,8,-21,8,-17,-39,-45,-58,-44
-20,-44,-15,35,8,-21,14,-17,-39,-51,-58,-44
-26,-44,-15,35,2,-21,14,-17,-39,-63,-64,-44
-26,-44,-15,35,2,-21,14,-17,-45,-69,-70,-50
-26,-44,-15,35,2,-21,14,-17,-45,-69,-70,-56
-26,-50,-15,35,2,-27,14,-17,-45,-69,-70,-62
-32,-50,-15,35,2,-33,14,-17,-45,-69,-70,-62
-32,-50,-21,35,2,-33,14,-11,-45,-69,-70,-62
-32,-50,-21,35,2,-33,14,-11,-45,-69,-70,-62
-32,-50,-21,35,2,-33,20,-11,-45,-69,-76,-68
-26,-50,-21,35,2,-33,26,-11,-45,-69,-82,-68
-20,-50,-21,35,2,-33,32,-11,-45,-69,-82,-68
-20,-50,-21,35,2,-33,32,-11,-45,-69,-82,-68
-26,-50,-21,35,2,-33,32,-11,-45,-75,-82,-68
-26,-50,-21,35,2,-33,26,-11,-45,-81,-82,-68
-26,-50,-21,35,2,-33,26,-11,-45,-87,-82,-68
-26,-50,-21,35,2,-33,26,-11,-45,-87,-82,-68
-26,-50,-21,35,2,-33,26,-11,-45,-87,-82,-68
-26,-50,-21,35,2,-39,26,-11,-45,-87,-82,-68
-26,-50,-21,35,2,-45,26,-11,-45,-87,-82,-68
-26,-50,-21,35,2,-45,26,-11,-45,-87,-82,-74
-26,-50,-21,35,2,-45,26,-11,-45,-87,-82,-74
-26,-56,-21,35,2,-45,26,-11,-51,-87,-82,-74
-32,-56,-21,35,2,-45,26,-11,-51,-87,-88,-74
-32,-56,-27,35,2,-45,26,-11,-51,-87,-88,-74
-32,-56,-33,35,2,-45,26,-11,-51,-87,-88,-74
-26,-56,-39,35,2,-45,26,-11,-51,-87,-88,-74
-26,-56,-39,35,2,-45,26,-11,-51,-87,-88,-74
-32,-62,-39,35,2,-45,26,-11,-51,-87,-88,-74
-32,-62,-39,35,2,-45,26,-11,-51,-93,-88,-74
-32,-62,-39,35,2,-45,26,-11,-51,-93,-88,-74
-32,-62,-39,35,2,-45,26,-11,-51,-93,-88,-74
-26,-62,-39,35,2,-45,26,-11,-51,-93,-88,-74
-20,-62,-39,29,8,-45,26,-11,-51,-93,-88,-74
-14,-62,-39,29,8,-45,26,-11,-51,-93,-88,-74
-14,-62,-39,29,8,-51,26,-11,-51,-93,-88,-74
-20,-68,-45,35,8,-63,26,-11,-51,-93,-88,-74
-26,-68,-45,35,8,-63,26,-11,-51,-93,-88,-74
-20,-62,-45,35,8,-63,32,-11,-51,-93,-88,-74
-14,-56,-45,29,14,-63,32,-11,-51,-93,-88,-74
-14,-56,-45,29,14,-63,32,-11,-51,-93,-88,-74
-14,-56,-45,29,14,-63,32,-11,-51,-93,-88,-74
-14,-56,-45,29,14,-63,26,-11,-51,-93,-88,-74
-14,-56,-45,29,14,-63,14,-11,-51,-93,-88,-74
-20,-62,-45,35,14,-63,8,-11,-51,-93,-88,-74
-32,-68,-45,41,8,-63,8,-11,-51,-93,-88,-74
-38,-68,-45,47,2,-63,20,-11,-51,-93,-88,-74
-38,-68,-45,47,2,-63,20,-11,-51,-93,-88,-74
-38,-68,-45,47,2,-63,20,-11,-51,-93,-88,-74
-38,-68,-45,47,2,-63,20,-11,-51,-93,-88,-74
-38,-68,-45,47,2,-63,20,-11,-51,-93,-88,-74
-38,-74,-45,53,2,-63,20,-11,-51,-93,-88,-74
-38,-80,-45,53,2,-63,20,-5,-51,-93,-88,-74
-38,-86,-45,53,2,-63,20,0,-51,-93,-88,-74
-38,-86,-45,53,2,-63,20,0,-51,-93,-88,-74
-32,-86,-45,47,2,-63,20,0,-51,-93,-88,-74
-26,-74,-45,41,2,-63,20,0,-51,-93,-88,-74
-26,-68,-45,41,2,-63,26,6,-51,-93,-88,-74
-26,-68,-45,41,2,-63,26,6,-51,-93,-88,-74
-26,-62,-45,41,2,-63,26,6,-51,-93,-88,-74
-26,-62,-45,41,2,-57,20,6,-51,-93,-88,-74
-26,-62,-45,41,2,-57,20,6,-51,-93,-88,-74
-26,-62,-45,41,2,-57,20,6,-51,-93,-88,-74
-14,-56,-45,35,8,-57,20,6,-51,-93,-88,-74
-2,-56,-45,23,14,-57,20,6,-51,-93,-88,-74
3,-56,-45,23,20,-57,20,6,-51,-99,-88,-74
3,-56,-45,23,20,-57,20,6,-51,-99,-88,-74
-2,-56,-45,23,20,-57,20,6,-51,-99,-88,-74
-8,-62,-45,29,20,-57,20,0,-57,-105,-94,-74
-8,-68,-45,35,20,-63,20,0,-63,-111,-100,-74
-8,-68,-57,35,26,-63,20,0,-63,-111,-100,-74
-2,-68,-63,35,32,-63,20,0,-63,-111,-100,-74
-2,-68,-63,35,32,-63,20,0,-63,-111,-100,-74
-2,-62,-63,29,32,-63,20,0,-63,-111,-100,-74
-2,-62,-63,29,32,-63,20,0,-63,-111,-100,-74
-8,-62,-63,29,32,-63,20,0,-63,-111,-100,-74
-14,-68,-63,35,26,-63,20,-5,-69,-111,-106,-80
-14,-68,-57,35,26,-63,20,-11,-75,-111,-106,-80
-14,-62,-57,35,26,-57,20,-11,-75,-111,-106,-80
-14,-56,-57,35,26,-57,20,-11,-75,-111,-106,-80
-14,-56,-57,35,26,-57,14,-11,-75,-111,-106,-80
-14,-56,-57,35,26,-57,8,-11,-75,-117,-112,-80
-14,-56,-57,35,26,-57,8,-17,-75,-117,-112,-80
-14,-56,-57,35,26,-57,8,-23,-75,-117,-112,-80
-14,-56,-57,35,26,-57,8,-23,-75,-117,-112,-80
-14,-56,-57,35,26,-57,8,-23,-75,-117,-112,-80
-14,-56,-57,35,26,-57,14,-23,-75,-117,-112,-80
-20,-56,-51,35,20,-57,20,-23,-75,-117,-112,-80
-20,-62,-51,35,20,-57,20,-29,-75,-123,-112,-80
-20,-62,-51,41,20,-57,20,-29,-75,-129,-112,-80
-20,-62,-51,41,20,-57,14,-29,-75,-129,-112,-80
-20,-62,-51,41,20,-57,8,-29,-81,-135,-112,-80
-20,-62,-51,41,20,-57,8,-29,-87,-135,-112,-80
-14,-62,-51,35,20,-57,8,-35,-93,-141,-118,-86
-8,-62,-51,29,26,-57,8,-35,-93,-147,-118,-86
-8,-62,-51,29,26,-57,8,-35,-93,-153,-118,-86
-8,-68,-51,29,26,-57,8,-35,-93,-159,-118,-86
-14,-74,-51,35,26,-63,2,-35,-93,-159,-124,-86
-14,-74,-51,35,26,-63,2,-35,-93,-159,-124,-86
-14,-74,-51,35,26,-63,2,-35,-99,-159,-124,-86
-14,-74,-51,35,26,-63,2,-35,-99,-159,-124,-86
-14,-74,-51,41,26,-63,8,-35,-99,-159,-124,-86
-14,-74,-51,41,26,-63,14,-41,-105,-159,-124,-86
-14,-74,-51,41,26,-63,14,-47,-105,-159,-124,-86
-14,-74,-51,41,26,-63,14,-53,-105,-159,-124,-86
-14,-74,-51,41,26,-63,14,-53,-105,-159,-124,-86
-14,-74,-51,41,26,-63,14,-59,-111,-159,-124,-86
-14,-74,-51,41,26,-63,14,-59,-111,-159,-124,-86
-14,-68,-51,35,26,-63,14,-59,-111,-159,-124,-86
-8,-62,-51,29,26,-63,14,-59,-111,-159,-124,-86
-8,-62,-51,23,32,-63,8,-59,-117,-159,-124,-86
-14,-62,-51,23,32,-63,8,-59,-117,-159,-124,-86
-20,-62,-45,29,26,-63,8,-59,-117,-159,-124,-86
-20,-62,-45,29,26,-63,8,-59,-117,-159,-124,-86
-20,-62,-45,29,26,-63,8,-59,-117,-159,-130,-92
-20,-74,-45,35,26,-63,8,-65,-123,-159,-130,-98
-26,-80,-45,41,20,-63,8,-65,-123,-165,-130,-98
-32,-86,-45,47,20,-63,8,-71,-129,-177,-130,-98
-32,-86,-45,47,20,-63,8,-71,-135,-183,-136,-98
-20,-74,-51,41,20,-63,8,-71,-135,-183,-136,-98
-20,-68,-51,41,20,-63,8,-71,-135,-183,-136,-98
-20,-68,-51,41,20,-63,8,-71,-135,-183,-136,-98
-20,-68,-51,47,20,-69,8,-71,-135,-183,-136,-98
-20,-68,-51,47,20,-69,8,-71,-135,-183,-136,-98
-20,-68,-51,47,26,-69,8,-71,-135,-183,-142,-104
-20,-68,-51,41,26,-69,8,-77,-135,-183,-142,-104
-20,-68,-51,41,26,-69,8,-77,-135,-183,-142,-104
-20,-68,-57,41,26,-69,8,-77,-135,-183,-142,-110
-20,-68,-57,41,26,-69,14,-77,-135,-183,-142,-116
-20,-68,-57,41,26,-69,14,-77,-135,-183,-142,-116
-20,-68,-57,41,26,-69,2,-77,-141,-183,-142,-116
-20,-68,-57,41,26,-69,-15,-77,-147,-183,-142,-116
-20,-68,-57,41,26,-69,-15,-83,-147,-183,-148,-116
-20,-68,-57,47,26,-69,-9,-89,-147,-183,-154,-116
-20,-68,-57,47,26,-69,-3,-89,-147,-183,-154,-116
-20,-68,-57,47,26,-69,-3,-89,-147,-183,-154,-116
-20,-68,-57,47,26,-69,-3,-89,-147,-183,-154,-116
-20,-68,-57,47,26,-69,-3,-89,-147,-183,-154,-116
-20,-74,-57,47,26,-69,2,-89,-147,-183,-154,-116
-20,-74,-57,47,26,-69,8,-89,-147,-183,-154,-116
-20,-74,-57,47,26,-69,14,-89,-147,-183,-154,-116
-20,-74,-57,47,26,-69,20,-89,-147,-183,-154,-116
-20,-74,-57,47,26,-69,20,-89,-147,-183,-154,-116
-20,-74,-57,47,26,-69,20,-89,-147,-183,-154,-116
-20,-74,-57,47,26,-69,20,-89,-147,-183,-154,-116
-20,-74,-57,47,26,-69,20,-89,-147,-183,-154,-116
-14,-68,-57,41,26,-69,26,-89,-147,-183,-154,-116
-14,-68,-57,41,26,-69,26,-89,-147,-183,-154,-116
-14,-68,-57,41,26,-69,26,-89,-147,-183,-154,-116
-14,-68,-57,41,26,-69,26,-89,-147,-183,-154,-116
-14,-68,-57,41,26,-69,26,-89,-147,-183,-154,-116
-14,-68,-51,41,26,-69,20,-89,-147,-183,-154,-116
-14,-62,-39,41,20,-63,20,-89,-147,-183,-154,-116
-14,-56,-33,41,14,-51,20,-83,-147,-183,-154,-116
-14,-50,-27,41,8,-45,20,-77,-147,-177,-154,-116
-14,-44,-21,41,8,-39,20,-77,-141,-177,-148,-110
-20,-44,-15,41,8,-33,20,-77,-135,-177,-142,-104
-20,-38,-9,35,8,-33,20,-77,-135,-177,-136,-98
-20,-32,-9,29,8,-27,20,-77,-135,-177,-136,-98
-20,-32,-9,29,8,-27,20,-77,-135,-177,-136,-98
-20,-32,-9,29,8,-27,20,-77,-135,-171,-136,-98
-14,-26,-9,23,8,-27,26,-65,-129,-159,-130,-92
-14,-20,-9,17,8,-27,26,-59,-123,-153,-130,-92
-14,-20,-9,17,8,-27,26,-59,-123,-153,-130,-92
-14,-20,-9,17,8,-27,26,-59,-123,-153,-130,-92
-8,-14,-9,11,8,-21,32,-53,-117,-147,-130,-92
3,-3,-9,-1,8,-15,38,-53,-111,-141,-124,-92
3,-3,-9,-1,8,-15,44,-53,-111,-141,-118,-86
3,-3,-9,-1,8,-15,44,-53,-111,-141,-118,-86
3,-8,-9,-1,8,-21,32,-53,-111,-141,-118,-86
3,-8,-9,-1,8,-21,20,-53,-111,-141,-118,-80
9,-3,-9,-6,14,-21,14,-53,-111,-141,-118,-74
21,-3,-15,-12,26,-21,14,-53,-111,-141,-118,-74
21,-3,-21,-12,26,-21,14,-53,-111,-141,-118,-74
21,-3,-27,-12,26,-27,8,-53,-111,-141,-118,-74
21,-8,-27,-12,26,-27,-3,-53,-111,-141,-118,-74
21,-8,-27,-12,26,-27,-9,-53,-111,-141,-118,-74
21,-8,-27,-12,26,-27,-15,-53,-111,-141,-118,-74
21,-8,-27,-12,26,-27,-15,-53,-111,-141,-118,-74
21,-8,-27,-12,26,-27,-15,-53,-111,-135,-118,-74
21,-8,-27,-12,26,-27,-15,-53,-111,-135,-118,-74
21,-8,-27,-12,26,-27,-15,-53,-111,-135,-118,-68
21,-8,-33,-12,26,-27,-15,-53,-111,-135,-118,-68
21,-8,-33,-12,32,-27,-15,-53,-111,-135,-112,-68
21,-3,-33,-12,32,-27,-15,-59,-111,-135,-112,-68
21,-3,-33,-12,32,-27,-15,-59,-111,-135,-112,-68
21,-3,-33,-12,32,-27,-15,-59,-111,-135,-112,-68
21,-3,-33,-12,32,-27,-15,-59,-111,-135,-112,-68
15,-3,-33,-12,32,-27,-15,-59,-111,-135,-112,-68
9,-8,-33,-6,26,-27,-15,-59,-111,-135,-112,-68
-2,-20,-33,5,20,-27,-15,-59,-111,-135,-112,-68
-14,-32,-33,17,14,-27,-15,-65,-111,-135,-112,-68
-20,-38,-33,23,14,-33,-15,-65,-111,-135,-112,-68
-26,-44,-33,29,14,-39,-15,-71,-123,-141,-118,-74
-32,-44,-33,35,8,-45,-15,-77,-135,-153,-124,-80
-32,-44,-33,35,8,-45,-15,-83,-141,-159,-130,-86
-32,-50,-45,35,14,-51,-15,-83,-147,-165,-136,-86
-32,-56,-51,35,14,-57,-21,-89,-153,-171,-142,-92
-26,-62,-57,35,20,-57,-21,-95,-159,-171,-148,-104
-14,-62,-63,35,26,-63,-21,-95,-159,-177,-154,-110
-14,-62,-69,35,26,-69,-21,-95,-159,-177,-160,-116
-14,-68,-69,35,26,-69,-15,-95,-159,-177,-160,-116
-14,-68,-69,41,26,-75,-15,-95,-159,-177,-160,-116
-14,-68,-69,41,26,-75,-15,-95,-159,-177,-160,-116
-14,-68,-69,41,26,-75,-9,-95,-159,-177,-160,-116
-14,-68,-69,41,26,-75,-3,-95,-159,-177,-154,-116
-14,-68,-69,41,26,-75,2,-95,-159,-177,-148,-116
-14,-68,-63,41,20,-69,2,-95,-153,-171,-148,-116
-20,-62,-51,41,14,-57,-3,-83,-147,-159,-142,-110
-20,-50,-39,35,8,-45,-3,-71,-129,-147,-130,-98
-20,-38,-27,35,2,-33,2,-59,-117,-135,-124,-86
-26,-38,-15,35,-3,-27,14,-53,-105,-123,-112,-80
-32,-32,-4,35,-9,-15,20,-35,-81,-111,-100,-68
-32,-8,26,29,-21,14,32,-5,-51,-81,-70,-50
-32,15,68,23,-39,38,44,24,-21,-51,-40,-26
-44,21,92,23,-69,50,62,48,8,-21,-16,-8
-56,27,110,23,-87,62,86,78,50,8,1,9
-62,51,128,17,-93,86,110,126,92,38,25,27
-62,93,170,5,-105,128,128,192,140,80,55,57
-62,135,206,-12,-123,164,140,294,230,122,67,69
-68,177,248,-24,-153,200,152,432,326,164,85,81
-74,207,290,-36,-171,242,194,600,470,242,127,111
-74,249,332,-60,-195,290,242,780,656,356,217,177
-74,333,410,-102,-225,368,278,936,848,524,361,285
-68,441,470,-174,-237,458,284,1050,1064,734,547,435
-20,555,524,-270,-243,542,284,1068,1250,998,787,627
57,711,584,-390,-249,644,236,1056,1418,1280,1081,879
123,855,674,-498,-255,770,152,1014,1592,1592,1381,1137
165,987,764,-576,-267,872,74,978,1784,1910,1687,1395
183,1089,860,-624,-303,962,-9,936,1994,2269,2011,1635
189,1179,950,-678,-339,1064,-81,876,2173,2598,2316,1851
207,1335,1082,-768,-381,1202,-117,756,2293,2892,2585,2060
219,1521,1250,-858,-465,1388,-153,600,2359,3198,2879,2276
219,1629,1394,-900,-549,1514,-189,462,2472,3510,3149,2455
213,1641,1424,-912,-585,1532,-201,426,2598,3708,3269,2485
201,1581,1400,-894,-585,1496,-201,420,2664,3726,3263,2437
165,1353,1214,-768,-573,1286,-201,408,2658,3540,2945,2126
123,1101,1016,-618,-501,1058,-201,342,2389,3006,2418,1707
81,873,830,-492,-435,860,-189,168,1892,2353,1843,1281
27,639,650,-342,-363,644,-177,-89,1232,1610,1237,861
-32,411,476,-198,-303,434,-177,-425,458,794,619,441
-80,237,356,-84,-261,296,-189,-683,-165,146,139,123
-110,147,302,-24,-231,224,-195,-785,-483,-183,-130,-62
-122,99,248,5,-207,176,-195,-821,-609,-333,-238,-146
-128,57,206,29,-183,128,-195,-821,-651,-393,-286,-188
-128,33,158,35,-153,86,-195,-809,-651,-411,-298,-200
-122,21,122,35,-135,68,-195,-719,-615,-411,-298,-200
-110,21,110,35,-123,62,-189,-623,-531,-375,-286,-194
-98,21,98,35,-111,62,-177,-533,-441,-321,-256,-182
-92,21,92,35,-105,56,-141,-425,-363,-273,-220,-170
-86,15,86,35,-93,50,-111,-329,-303,-243,-202,-152
-86,3,74,35,-81,38,-93,-245,-273,-225,-190,-140
-86,-8,62,35,-69,20,-69,-191,-249,-219,-184,-128
-86,-32,38,41,-57,2,-51,-155,-225,-213,-178,-122
-74,-44,8,41,-33,-21,-45,-125,-207,-207,-166,-122
-62,-50,-9,41,-15,-33,-45,-113,-195,-207,-166,-122
-50,-62,-21,47,-9,-45,-39,-107,-189,-207,-166,-122
-44,-68,-33,47,-3,-57,-33,-95,-189,-207,-166,-122
-38,-80,-45,53,2,-69,-33,-83,-183,-207,-166,-122
-38,-92,-63,53,14,-81,-33,-77,-183,-207,-166,-122
-32,-98,-81,53,20,-93,-27,-77,-183,-207,-166,-122
-32,-104,-87,53,26,-99,-21,-77,-183,-213,-166,-122
-32,-110,-87,59,26,-105,-21,-77,-183,-219,-172,-128
-32,-110,-87,59,26,-105,-21,-77,-183,-219,-178,-128
-26,-110,-87,59,32,-105,-15,-71,-177,-219,-178,-128
-20,-110,-87,59,32,-105,-9,-65,-177,-219,-178,-128
-20,-110,-87,59,32,-105,-3,-59,-177,-219,-178,-128
-20,-110,-87,59,32,-105,2,-53,-171,-213,-178,-128
-20,-110,-87,65,32,-105,2,-53,-171,-213,-178,-128
-20,-110,-87,65,32,-105,2,-53,-171,-213,-178,-128
-20,-110,-87,65,32,-105,2,-53,-171,-207,-178,-128
-14,-110,-87,65,38,-105,8,-47,-171,-207,-178,-128
-14,-110,-87,65,38,-105,8,-47,-171,-207,-178,-128
-14,-110,-87,65,38,-105,8,-47,-171,-207,-178,-128
-14,-116,-93,65,38,-111,8,-47,-171,-207,-178,-128
-14,-116,-99,65,38,-117,8,-47,-165,-207,-178,-128
-14,-122,-105,65,38,-117,8,-47,-165,-207,-178,-128
-14,-128,-105,71,38,-117,8,-47,-165,-207,-178,-128
-14,-128,-105,71,38,-117,8,-47,-165,-207,-178,-128
-14,-128,-111,71,38,-117,8,-47,-165,-207,-178,-128
-8,-122,-111,65,44,-117,14,-41,-165,-207,-178,-128
-8,-122,-111,65,44,-117,14,-41,-165,-207,-178,-128
-8,-122,-111,65,44,-117,8,-41,-165,-207,-178,-128
-8,-122,-111,65,44,-117,8,-41,-165,-201,-178,-128
-8,-122,-111,65,44,-117,14,-35,-165,-201,-178,-128
-8,-122,-111,65,44,-117,20,-35,-165,-201,-178,-128
-14,-122,-111,65,44,-117,26,-35,-159,-201,-178,-128
-26,-128,-111,77,44,-117,26,-29,-153,-201,-178,-128
-32,-134,-111,83,44,-117,26,-29,-147,-201,-178,-128
-32,-134,-111,83,44,-117,26,-29,-147,-201,-178,-128
-26,-134,-111,77,44,-117,26,-23,-147,-201,-178,-128
-26,-134,-111,77,44,-117,26,-17,-147,-201,-172,-128
-26,-134,-111,77,44,-117,26,-17,-147,-195,-172,-128
-26,-134,-111,83,44,-117,26,-17,-147,-195,-172,-128
-26,-134,-111,83,44,-117,26,-11,-141,-195,-172,-128
-14,-128,-111,71,50,-117,26,-5,-129,-189,-166,-122
-8,-122,-117,59,56,-117,26,0,-117,-183,-160,-116
-8,-116,-117,59,56,-117,26,6,-111,-171,-154,-116
-8,-116,-117,59,56,-117,26,6,-111,-165,-148,-116
-8,-116,-117,59,56,-117,26,12,-105,-165,-148,-116
-8,-116,-117,59,56,-117,26,18,-105,-159,-148,-116
-8,-116,-117,59,62,-117,26,18,-105,-159,-148,-110
-2,-116,-117,59,68,-117,26,24,-99,-153,-142,-104
-2,-116,-117,59,68,-117,26,24,-99,-153,-142,-104
-2,-122,-117,59,68,-117,14,24,-99,-153,-142,-104
-2,-122,-117,59,68,-117,8,30,-93,-147,-136,-98
3,-122,-117,53,68,-117,8,36,-81,-135,-124,-92
9,-116,-117,47,68,-117,8,42,-69,-123,-112,-86
9,-110,-117,47,68,-117,8,48,-63,-117,-106,-80
3,-110,-111,47,62,-117,8,54,-63,-111,-100,-80
-2,-110,-105,47,56,-117,8,60,-57,-105,-94,-80
-2,-110,-105,47,56,-111,8,66,-51,-99,-88,-74
3,-104,-105,47,62,-111,8,72,-39,-93,-82,-62
15,-92,-105,35,68,-111,8,72,-33,-87,-82,-56
15,-92,-105,35,68,-111,8,72,-33,-87,-82,-56
9,-98,-105,41,68,-111,2,72,-33,-87,-82,-56
3,-104,-105,47,68,-111,-3,72,-33,-87,-82,-56
3,-104,-105,47,68,-111,-3,78,-21,-75,-70,-50
15,-92,-105,35,68,-105,-3,78,-9,-63,-58,-44
21,-86,-105,29,68,-99,-3,78,-3,-51,-52,-38
21,-86,-105,29,68,-99,-9,78,2,-45,-46,-32
21,-86,-105,29,68,-99,-21,78,2,-39,-40,-32
21,-86,-105,29,68,-99,-27,84,8,-33,-34,-26
21,-80,-105,29,68,-99,-27,90,14,-27,-28,-14
21,-80,-105,29,68,-99,-27,90,20,-27,-22,-8
21,-80,-105,29,68,-99,-27,90,26,-27,-16,-2
21,-80,-105,29,68,-99,-27,90,26,-27,-10,3
21,-74,-105,29,68,-99,-27,96,32,-21,1,9
21,-62,-105,17,68,-93,-27,102,38,2,13,21
27,-50,-99,5,68,-81,-27,108,44,20,25,33
33,-44,-99,5,68,-75,-27,108,50,32,31,39
33,-44,-93,-1,68,-69,-33,108,56,38,37,45
39,-38,-93,-6,68,-63,-45,114,62,44,43,51
39,-32,-93,-6,68,-63,-57,114,68,50,49,57
45,-26,-87,-6,68,-57,-57,114,74,50,55,63
51,3,-81,-18,68,-45,-57,114,80,56,67,75
57,15,-75,-30,68,-33,-57,114,86,62,79,81
57,15,-75,-30,68,-27,-57,114,86,68,85,87
57,15,-75,-30,68,-27,-57,114,86,74,91,93
57,15,-69,-30,68,-21,-69,108,86,74,91,99
57,15,-63,-36,68,-15,-75,102,86,74,97,105
57,15,-57,-36,68,-15,-75,96,86,74,103,117
57,15,-51,-36,68,-15,-75,90,86,80,109,123
63,27,-51,-48,68,-9,-75,84,86,80,115,129
69,39,-51,-54,68,-4,-75,78,80,80,115,135
69,39,-45,-54,62,-4,-75,72,80,80,115,135
69,45,-33,-54,56,2,-75,66,80,80,115,141
69,57,-27,-60,56,14,-75,66,74,86,121,141
69,63,-21,-60,56,20,-87,60,68,86,121,141
69,63,-21,-66,56,20,-99,48,62,86,121,141
69,63,-21,-72,56,26,-99,42,56,86,121,141
63,63,-15,-72,50,26,-99,36,50,86,121,141
57,63,-9,-72,44,26,-99,30,44,86,121,141
57,69,2,-72,38,32,-99,24,44,86,121,147
57,75,8,-72,32,38,-99,18,38,86,121,147
57,81,14,-72,32,44,-99,6,32,86,127,153
57,81,20,-72,26,44,-99,0,26,86,127,153
57,81,20,-72,26,44,-99,-5,20,86,127,153
57,81,20,-72,26,44,-99,-5,20,86,127,153
57,81,20,-72,26,44,-93,-5,20,80,127,153
45,81,26,-66,20,44,-93,-5,20,68,121,153
39,75,26,-54,14,44,-93,-11,14,56,115,147
33,75,26,-54,14,44,-99,-11,14,56,109,141
33,75,26,-54,8,44,-105,-11,14,56,103,135
33,69,26,-48,2,44,-105,-11,14,56,97,129
27,51,26,-36,2,38,-99,-11,14,50,91,123
15,27,26,-24,2,32,-93,-11,8,50,85,117
9,15,26,-12,2,26,-87,-11,8,50,79,111
9,15,26,-12,2,20,-81,-11,8,50,79,99
15,27,26,-24,2,20,-69,-11,8,50,73,93
21,39,26,-36,2,20,-57,-5,8,50,67,87
21,39,20,-36,2,20,-51,-5,8,50,61,75
21,39,14,-36,2,20,-45,-5,8,44,49,63
21,33,8,-30,2,20,-39,-5,8,38,43,57
21,33,8,-30,2,20,-33,-5,8,38,37,51
21,33,8,-24,2,20,-27,-5,8,32,31,45
15,21,8,-18,2,14,-27,-5,8,26,25,33
9,3,2,-6,2,2,-33,-5,8,20,13,21
9,-3,2,-1,2,-4,-33,0,8,14,7,9
3,-8,2,5,2,-4,-27,6,8,8,1,9
-8,-14,2,11,2,-4,-15,6,8,2,1,3
-14,-26,-4,17,2,-9,-3,6,8,2,-4,-8
-20,-26,-4,23,2,-15,2,6,8,-3,-10,-14
-20,-26,-4,23,2,-15,8,6,8,-3,-16,-20
-20,-26,-9,23,2,-21,8,6,8,-9,-22,-26
-20,-38,-15,29,2,-27,8,6,2,-15,-34,-32
-20,-44,-15,29,2,-33,8,6,2,-21,-40,-38
-20,-44,-15,29,2,-33,8,6,-3,-27,-46,-38
-20,-44,-21,29,2,-33,8,6,-9,-33,-52,-44
-20,-44,-27,29,2,-39,8,6,-15,-39,-58,-50
-20,-44,-33,29,2,-45,8,6,-15,-39,-58,-56
-20,-50,-33,35,2,-51,8,6,-15,-39,-64,-56
-26,-62,-33,35,2,-51,8,6,-15,-39,-70,-56
-26,-62,-39,35,2,-51,8,6,-15,-39,-70,-56
-26,-68,-39,35,2,-57,8,6,-15,-45,-70,-62
-26,-74,-39,41,2,-63,8,6,-15,-51,-70,-62
-26,-74,-39,41,2,-63,8,6,-15,-51,-70,-62
-26,-74,-39,41,2,-63,8,6,-15,-51,-70,-62
-26,-74,-39,41,2,-63,8,6,-15,-51,-70,-62
-32,-80,-39,47,2,-63,8,6,-21,-51,-76,-68
-38,-86,-39,53,2,-63,8,6,-27,-51,-76,-74
-38,-92,-39,59,2,-63,8,6,-33,-57,-76,-80
-38,-92,-39,59,2,-63,8,6,-33,-57,-76,-80
-38,-92,-39,59,2,-63,8,6,-33,-57,-76,-80
-38,-92,-39,59,2,-63,8,6,-33,-63,-76,-80
-44,-98,-39,71,2,-69,8,6,-33,-69,-82,-80
-44,-98,-45,71,2,-69,8,6,-33,-75,-88,-80
-38,-92,-45,59,2,-69,14,6,-33,-75,-88,-80
-32,-86,-45,53,2,-69,20,6,-33,-75,-88,-80
-32,-86,-45,53,8,-69,26,6,-33,-75,-88,-80
-32,-86,-45,53,8,-69,26,6,-33,-75,-88,-80
-32,-86,-45,53,8,-69,26,6,-33,-75,-88,-80
-32,-80,-45,53,14,-69,26,6,-33,-75,-88,-80
-32,-80,-45,53,14,-69,14,6,-33,-75,-88,-80
-32,-80,-45,53,14,-69,14,6,-33,-75,-88,-80
-32,-80,-45,53,14,-69,14,6,-33,-75,-88,-80
-32,-80,-45,53,14,-69,14,6,-33,-75,-88,-80
-32,-80,-45,53,14,-69,14,6,-33,-75,-88,-80
-32,-86,-45,59,14,-69,2,6,-33,-75,-88,-80
-32,-86,-45,59,14,-69,2,6,-33,-75,-88,-80
-32,-86,-45,59,14,-69,2,6,-33,-75,-88,-80
-32,-86,-45,59,14,-69,8,6,-33,-75,-88,-80
-32,-86,-45,59,14,-69,20,6,-33,-75,-82,-80
-32,-86,-45,59,14,-69,26,6,-33,-75,-82,-80
-32,-86,-45,59,14,-69,26,6,-33,-75,-88,-80
-32,-86,-45,59,14,-69,26,6,-33,-75,-94,-80
-32,-86,-45,59,14,-69,26,6,-33,-75,-94,-80
-32,-86,-45,59,14,-69,26,6,-33,-75,-94,-80
-32,-86,-45,59,14,-69,26,6,-33,-75,-94,-80
-32,-86,-45,59,14,-69,26,6,-33,-81,-94,-80
-32,-86,-45,59,14,-69,26,6,-39,-93,-94,-80
-32,-86,-45,59,14,-69,26,6,-39,-99,-94,-80
-32,-86,-45,59,14,-69,26,6,-39,-99,-94,-80
-32,-86,-45,59,14,-69,20,6,-39,-99,-94,-80
-32,-86,-45,59,14,-69,20,6,-39,-93,-94,-80
-32,-86,-45,59,14,-69,20,6,-39,-93,-94,-80
-32,-86,-45,59,14,-69,20,6,-39,-93,-94,-80
-32,-80,-45,59,14,-69,20,6,-39,-93,-94,-80
-26,-80,-45,53,14,-69,20,6,-39,-93,-94,-80
-26,-74,-45,53,14,-69,26,6,-39,-87,-94,-80
-26,-74,-45,53,14,-69,32,6,-39,-87,-94,-80
-32,-74,-45,53,14,-69,32,6,-39,-87,-94,-80
-32,-74,-45,53,14,-69,26,6,-39,-87,-94,-80
-32,-74,-45,53,14,-69,20,6,-39,-87,-94,-80
-32,-74,-45,53,14,-69,20,6,-39,-87,-94,-80
-32,-74,-45,53,14,-69,20,6,-39,-87,-94,-80
-32,-74,-45,53,14,-69,20,6,-45,-87,-100,-80
-32,-80,-45,53,14,-69,20,6,-51,-87,-100,-80
-32,-80,-45,53,14,-69,20,6,-51,-87,-100,-80
-32,-80,-45,53,14,-69,20,6,-51,-87,-100,-80
-32,-80,-45,53,14,-69,20,6,-51,-87,-100,-80
-38,-86,-45,59,14,-69,20,6,-57,-87,-100,-80
-38,-86,-45,65,14,-69,20,6,-57,-87,-100,-80
-38,-86,-45,65,14,-69,20,6,-57,-87,-100,-80
-38,-80,-45,59,14,-69,20,6,-57,-87,-100,-80
-38,-80,-45,59,14,-69,20,6,-63,-93,-100,-80
-38,-80,-45,59,14,-69,20,6,-63,-93,-100,-80
-38,-80,-45,59,14,-69,20,6,-63,-93,-100,-80
-38,-80,-45,59,14,-69,20,0,-63,-93,-100,-80
-38,-80,-45,59,14,-69,20,-5,-63,-93,-100,-80
-38,-80,-45,59,14,-69,20,-5,-69,-93,-100,-80
-32,-80,-45,53,14,-69,20,-11,-75,-93,-100,-80
-32,-80,-45,53,14,-69,14,-11,-81,-93,-100,-80
-32,-86,-45,53,14,-69,8,-17,-87,-93,-106,-80
-32,-86,-51,53,14,-69,8,-17,-87,-93,-106,-80
-32,-86,-51,53,14,-69,8,-17,-87,-93,-106,-80
-32,-86,-51,53,14,-69,8,-23,-87,-93,-106,-80
-32,-86,-51,53,14,-69,8,-23,-93,-99,-106,-80
-32,-86,-51,53,8,-63,8,-23,-93,-99,-106,-80
-32,-86,-51,53,8,-63,8,-23,-93,-99,-106,-80
-32,-86,-51,53,8,-63,8,-23,-93,-105,-106,-80
-32,-86,-51,53,8,-63,8,-29,-99,-111,-106,-80
-32,-86,-51,53,8,-63,8,-35,-99,-111,-112,-80
-32,-86,-51,53,8,-63,8,-35,-99,-111,-112,-80
-32,-86,-51,53,8,-63,8,-35,-99,-111,-118,-80
-32,-86,-51,53,8,-63,8,-35,-105,-117,-118,-80
-32,-86,-51,53,8,-63,8,-41,-105,-117,-118,-80
-32,-86,-51,53,8,-63,8,-41,-105,-117,-118,-80
-32,-86,-51,53,8,-63,8,-41,-105,-117,-118,-80
-32,-86,-51,53,8,-63,8,-41,-105,-117,-118,-80
-32,-92,-51,53,8,-63,8,-47,-111,-123,-124,-86
-32,-92,-51,53,8,-63,8,-47,-111,-129,-124,-86
-32,-92,-51,53,8,-63,8,-47,-111,-129,-124,-86
-32,-92,-51,53,8,-63,8,-47,-111,-129,-124,-86
-32,-92,-51,53,8,-63,2,-47,-117,-129,-130,-86
-38,-98,-57,65,8,-69,-3,-53,-123,-135,-136,-92
-44,-104,-57,77,8,-75,-3,-59,-129,-141,-136,-92
-44,-104,-57,77,8,-75,8,-59,-129,-141,-136,-92
-44,-104,-57,77,8,-75,20,-59,-129,-141,-136,-92
-44,-104,-63,77,8,-75,14,-59,-129,-147,-136,-92
-38,-104,-63,71,8,-75,-3,-59,-129,-147,-136,-92
-38,-104,-63,71,8,-75,-9,-59,-129,-147,-136,-92
-38,-104,-63,71,8,-75,-9,-59,-129,-147,-136,-92
-38,-104,-63,71,8,-75,-3,-59,-129,-147,-136,-98
-38,-98,-63,71,8,-75,2,-59,-129,-147,-136,-98
-38,-98,-63,71,8,-75,2,-59,-129,-147,-136,-98
-38,-98,-57,71,2,-75,2,-59,-129,-147,-136,-98
-38,-98,-57,71,2,-75,2,-59,-129,-147,-142,-98
-38,-98,-57,71,2,-75,2,-59,-129,-153,-142,-98
-38,-98,-57,65,2,-75,2,-59,-129,-153,-142,-98
-38,-98,-57,65,2,-75,2,-59,-135,-153,-142,-98
-38,-98,-57,65,2,-75,2,-65,-141,-153,-142,-98
-38,-98,-57,65,2,-75,8,-71,-141,-153,-142,-98
-38,-98,-57,65,2,-75,8,-71,-141,-153,-142,-98
-38,-98,-57,65,2,-75,2,-71,-141,-153,-142,-98
-38,-98,-57,65,2,-75,-3,-71,-141,-153,-142,-98
-38,-98,-57,65,8,-75,-3,-71,-141,-153,-142,-104
-38,-98,-57,65,8,-75,-3,-71,-141,-153,-148,-110
-38,-98,-57,65,8,-75,-3,-71,-141,-153,-148,-110
-44,-98,-57,65,8,-75,-3,-71,-141,-153,-148,-110
-50,-98,-57,65,2,-75,-3,-71,-141,-153,-148,-110
-50,-98,-57,65,2,-75,-3,-71,-141,-153,-148,-110
-50,-98,-57,65,2,-75,-3,-71,-141,-153,-148,-110
-50,-98,-57,65,2,-75,-3,-71,-141,-153,-148,-110
-50,-98,-57,65,2,-75,-3,-71,-147,-153,-148,-110
-50,-98,-57,65,2,-75,-3,-77,-153,-159,-148,-110
-50,-98,-57,71,-3,-75,-3,-83,-153,-159,-148,-110
-50,-98,-57,71,-3,-75,-3,-83,-153,-159,-148,-110
-50,-98,-57,71,-3,-75,-3,-83,-153,-159,-148,-110
-50,-98,-57,71,-3,-75,-9,-89,-153,-165,-148,-110
-50,-98,-57,71,-3,-75,-15,-89,-159,-171,-154,-116
-50,-98,-57,71,-3,-75,-15,-89,-165,-171,-154,-116
-50,-98,-57,71,-3,-75,-15,-95,-171,-177,-154,-116
-50,-98,-57,71,-3,-75,-15,-95,-171,-177,-154,-116
-44,-92,-57,71,-3,-75,-15,-95,-171,-177,-154,-116
-44,-92,-57,71,-3,-75,-15,-95,-171,-177,-154,-116
-44,-92,-57,65,-3,-75,-15,-95,-171,-177,-154,-116
-44,-92,-57,65,-3,-75,-15,-95,-171,-177,-154,-116
-44,-92,-57,65,-3,-75,-15,-95,-171,-183,-154,-116
-44,-92,-57,65,-3,-75,-15,-95,-171,-183,-154,-116
-44,-92,-57,65,2,-75,-9,-95,-171,-183,-154,-116
-44,-92,-57,65,2,-75,-3,-95,-171,-183,-154,-116
-44,-92,-57,65,2,-75,-3,-95,-171,-177,-154,-116
-38,-86,-57,59,2,-69,-3,-95,-171,-177,-154,-116
-38,-86,-57,59,2,-63,-3,-95,-171,-177,-154,-116
-38,-86,-57,59,2,-63,-3,-95,-171,-177,-154,-116
-38,-86,-57,59,2,-63,-3,-95,-171,-177,-154,-116
-38,-86,-57,59,2,-63,2,-95,-171,-177,-154,-116
-38,-80,-51,59,2,-57,14,-95,-171,-177,-154,-116
-38,-68,-45,53,2,-51,20,-95,-171,-171,-148,-116
-32,-38,-33,41,2,-39,20,-89,-165,-165,-142,-110
-26,-26,-27,35,2,-27,20,-83,-159,-159,-136,-104
-20,-26,-21,29,2,-21,20,-83,-159,-153,-130,-98
-20,-26,-21,23,2,-21,20,-83,-159,-153,-130,-98
-20,-26,-21,23,2,-21,20,-77,-159,-153,-130,-98
-20,-20,-21,17,2,-21,26,-71,-153,-153,-130,-92
-14,-8,-15,11,2,-9,32,-65,-147,-147,-124,-86
-2,3,-9,-1,2,2,32,-59,-141,-141,-118,-80
9,15,-9,-12,2,8,32,-59,-141,-141,-118,-80
9,15,-9,-12,2,8,32,-59,-141,-141,-118,-80
3,9,-9,-6,2,8,32,-59,-141,-141,-118,-80
3,9,-9,-6,2,8,32,-59,-141,-141,-118,-80
3,9,-9,-6,2,8,32,-59,-135,-141,-112,-80
3,9,-9,-6,2,8,26,-59,-135,-141,-112,-80
3,9,-9,-6,2,8,26,-59,-135,-141,-112,-80
3,9,-9,-6,2,8,26,-59,-135,-141,-112,-74
3,9,-9,-6,2,8,14,-59,-135,-141,-112,-74
9,9,-9,-6,2,8,2,-59,-135,-135,-112,-74
15,9,-9,-6,8,8,-3,-59,-135,-129,-112,-74
21,9,-15,-12,14,8,-3,-59,-129,-123,-112,-68
27,9,-15,-18,20,8,-9,-59,-129,-123,-112,-68
33,9,-15,-18,26,8,-15,-59,-129,-123,-106,-68
39,9,-15,-18,32,8,-15,-59,-129,-117,-106,-62
45,9,-15,-24,32,8,-21,-59,-129,-117,-106,-62
57,21,-15,-36,32,8,-27,-59,-129,-111,-106,-62
69,33,-21,-54,38,8,-27,-59,-129,-111,-100,-62
81,39,-27,-60,50,8,-27,-59,-129,-111,-100,-62
81,39,-39,-60,50,2,-33,-59,-129,-111,-100,-62
75,27,-39,-54,50,-4,-39,-59,-129,-111,-100,-62
75,27,-39,-48,50,-4,-45,-59,-129,-117,-100,-62
75,27,-39,-48,56,-4,-45,-59,-129,-117,-100,-62
75,27,-39,-48,62,-4,-45,-59,-129,-117,-100,-62
75,27,-39,-48,62,-9,-45,-59,-129,-117,-100,-62
75,21,-39,-48,62,-9,-45,-65,-135,-117,-100,-62
69,21,-39,-48,56,-9,-45,-65,-135,-117,-100,-62
69,21,-39,-48,50,-9,-39,-65,-135,-117,-100,-62
63,21,-39,-42,44,-9,-27,-65,-135,-117,-100,-62
51,15,-39,-36,44,-9,-15,-65,-135,-117,-100,-62
51,15,-39,-36,44,-9,-15,-65,-135,-123,-100,-62
51,15,-39,-36,44,-9,-21,-65,-135,-123,-106,-62
51,15,-39,-36,44,-9,-27,-65,-135,-129,-112,-62
45,3,-45,-24,44,-15,-27,-71,-141,-141,-118,-68
45,-8,-51,-12,44,-21,-27,-83,-153,-147,-118,-74
45,-8,-57,-12,50,-27,-27,-89,-153,-147,-118,-80
51,-8,-63,-12,56,-33,-21,-89,-159,-147,-124,-80
51,-14,-69,-12,56,-39,-21,-89,-159,-153,-130,-86
51,-20,-69,-12,56,-45,-21,-89,-159,-159,-130,-92
51,-26,-69,-12,56,-45,-21,-89,-159,-165,-130,-92
51,-26,-69,-12,56,-45,-21,-89,-159,-165,-130,-92
51,-26,-69,-12,56,-45,-21,-89,-159,-165,-130,-92
51,-26,-69,-12,56,-45,-15,-89,-159,-165,-130,-92
51,-26,-69,-12,56,-45,-9,-89,-159,-165,-130,-92
51,-20,-63,-12,56,-39,-3,-89,-159,-159,-124,-92
51,-14,-51,-12,50,-33,-3,-83,-153,-147,-118,-86
51,-8,-45,-12,44,-27,-3,-71,-135,-135,-112,-80
51,-3,-39,-12,38,-21,-3,-59,-111,-123,-100,-68
45,3,-21,-12,26,-9,2,-47,-93,-111,-82,-56
39,15,-4,-12,14,8,8,-29,-75,-93,-70,-38
39,33,20,-18,8,26,20,0,-45,-69,-46,-20
39,69,44,-30,-3,56,32,30,-15,-33,-16,9
33,99,68,-42,-15,86,62,66,14,8,19,39
27,111,92,-48,-27,104,86,108,56,50,49,57
21,123,104,-48,-39,116,104,150,104,80,67,75
21,135,134,-60,-51,140,122,204,152,110,79,81
21,171,182,-72,-75,176,146,282,224,140,97,93
15,213,230,-84,-105,218,176,390,314,176,121,105
9,249,266,-108,-129,260,206,546,434,230,163,135
9,291,302,-132,-141,302,248,726,590,338,223,177
9,381,362,-174,-153,374,278,906,776,482,331,273
15,483,428,-228,-177,452,302,1056,980,680,493,399
27,531,470,-270,-189,506,302,1122,1190,914,703,567
57,621,512,-336,-195,572,272,1122,1352,1178,961,783
123,783,602,-444,-207,692,182,1098,1520,1460,1237,1041
177,939,710,-558,-219,830,104,1056,1712,1754,1549,1299
219,1059,794,-636,-243,932,38,1020,1898,2065,1867,1545
243,1149,878,-690,-273,1016,-33,972,2095,2383,2160,1779
249,1257,1004,-732,-339,1130,-99,876,2239,2664,2429,1965
255,1401,1142,-810,-417,1280,-129,720,2317,2940,2693,2168
267,1587,1286,-906,-471,1448,-147,564,2395,3246,2999,2384
273,1671,1364,-954,-513,1532,-159,486,2520,3498,3173,2497
273,1665,1364,-954,-525,1532,-165,468,2622,3582,3191,2497
249,1509,1298,-876,-525,1406,-171,462,2640,3546,3059,2300
213,1281,1112,-738,-501,1196,-177,420,2538,3132,2603,1905
165,1041,932,-600,-429,980,-177,294,2137,2544,2011,1455
117,783,728,-444,-357,758,-171,72,1568,1898,1447,1035
75,549,548,-312,-291,548,-171,-233,830,1136,859,633
27,351,392,-186,-243,374,-171,-545,104,410,337,279
-26,213,302,-90,-219,266,-171,-719,-351,-51,-10,33
-56,141,248,-42,-207,206,-165,-785,-537,-249,-172,-86
-74,99,206,-12,-183,164,-165,-803,-621,-327,-250,-140
-80,69,176,-1,-159,128,-165,-803,-639,-369,-280,-164
-80,45,140,11,-129,92,-165,-761,-633,-369,-280,-170
-80,33,104,17,-99,62,-165,-671,-579,-357,-268,-170
-74,27,86,17,-75,56,-159,-569,-495,-321,-244,-158
-62,27,74,17,-63,50,-153,-461,-411,-291,-232,-146
-50,27,68,17,-57,50,-147,-371,-351,-261,-214,-134
-38,21,62,17,-51,50,-141,-275,-291,-231,-184,-122
-32,21,50,17,-39,44,-123,-197,-243,-213,-166,-110
-8,21,14,11,-9,32,-93,-137,-201,-189,-142,-98
3,15,-15,11,2,20,-63,-107,-177,-177,-136,-92
3,-14,-45,11,14,-21,-51,-95,-171,-177,-136,-92
3,-38,-57,17,26,-45,-39,-89,-171,-177,-136,-92
3,-44,-69,17,38,-57,-27,-83,-165,-171,-136,-92
3,-50,-75,17,44,-63,-15,-71,-159,-171,-136,-92
3,-56,-75,23,44,-69,-9,-59,-159,-171,-136,-92
3,-62,-81,23,50,-75,-3,-53,-159,-171,-136,-92
3,-68,-87,23,56,-81,-3,-53,-159,-171,-136,-92
9,-80,-99,23,62,-87,2,-47,-159,-171,-136,-92
9,-86,-111,23,68,-93,8,-41,-159,-171,-136,-92
15,-86,-117,23,68,-93,8,-35,-159,-171,-136,-92
21,-86,-123,23,68,-99,8,-29,-159,-171,-136,-92
21,-92,-129,29,68,-105,8,-29,-159,-171,-136,-98
21,-98,-129,35,68,-111,8,-29,-159,-171,-136,-98
21,-98,-129,35,68,-111,8,-29,-153,-171,-136,-98
21,-98,-129,35,68,-111,8,-29,-153,-171,-136,-98
21,-98,-129,41,68,-111,8,-29,-153,-171,-136,-98
21,-110,-129,47,68,-117,8,-29,-153,-171,-136,-98
21,-116,-129,53,68,-117,8,-29,-153,-171,-136,-98
21,-122,-129,53,68,-117,8,-23,-153,-171,-136,-98
21,-122,-129,53,68,-117,14,-17,-153,-171,-136,-98
21,-122,-129,53,68,-117,20,-17,-153,-171,-136,-98
21,-122,-129,53,68,-117,32,-17,-153,-171,-136,-98
21,-116,-129,47,68,-117,32,-17,-147,-171,-136,-98
21,-116,-129,47,74,-117,26,-11,-147,-171,-136,-98
21,-116,-129,47,74,-117,14,-11,-147,-171,-136,-98
21,-116,-129,47,74,-117,14,-11,-141,-171,-136,-98
21,-116,-129,47,74,-117,14,-5,-135,-171,-136,-98
21,-116,-129,47,74,-117,14,-5,-135,-171,-136,-98
21,-116,-129,47,74,-117,14,-5,-135,-171,-136,-98
21,-116,-129,47,74,-117,14,-5,-135,-171,-136,-98
21,-116,-129,47,74,-117,20,-5,-135,-171,-136,-98
9,-116,-129,53,74,-117,20,-5,-135,-171,-136,-98
9,-116,-129,53,74,-117,20,0,-135,-171,-136,-98
15,-116,-129,53,74,-117,20,6,-129,-165,-136,-98
15,-116,-129,53,74,-117,20,6,-123,-165,-136,-98
15,-116,-129,53,74,-117,20,6,-123,-165,-136,-98
15,-116,-129,53,74,-117,20,6,-123,-165,-136,-98
15,-110,-129,53,74,-117,26,12,-117,-165,-130,-92
21,-110,-129,53,74,-117,26,18,-111,-159,-124,-92
21,-110,-129,53,74,-117,26,24,-105,-153,-118,-92
21,-110,-129,53,74,-117,26,30,-99,-147,-112,-92
21,-110,-129,53,74,-117,32,36,-93,-141,-112,-86
21,-110,-129,53,74,-117,32,36,-87,-141,-112,-86
21,-110,-129,53,74,-117,32,36,-87,-141,-106,-86
27,-110,-129,53,80,-117,32,36,-87,-135,-106,-80
33,-110,-129,47,86,-117,32,42,-81,-129,-106,-74
33,-110,-129,47,86,-117,32,48,-75,-129,-106,-74
27,-110,-129,47,86,-117,32,54,-69,-129,-106,-74
27,-110,-129,47,86,-117,32,54,-69,-123,-100,-74
27,-110,-129,47,86,-117,32,54,-69,-117,-94,-74
27,-110,-129,47,86,-117,32,60,-63,-117,-88,-68
27,-116,-129,47,86,-123,32,66,-57,-111,-82,-62
27,-116,-129,47,86,-123,32,66,-51,-105,-76,-62
21,-116,-129,47,86,-123,32,66,-51,-105,-76,-62
21,-116,-129,47,86,-123,32,66,-45,-105,-76,-62
21,-116,-129,47,86,-123,32,72,-39,-99,-70,-56
21,-116,-129,47,86,-123,32,78,-33,-93,-64,-50
21,-116,-129,47,86,-123,32,78,-27,-93,-58,-50
21,-116,-129,47,86,-123,32,78,-27,-87,-58,-44
21,-116,-129,47,86,-123,32,78,-21,-75,-52,-44
21,-110,-129,47,86,-123,32,78,-15,-63,-46,-38
21,-110,-129,47,86,-123,20,84,-9,-57,-40,-38
21,-110,-129,47,86,-123,14,84,-3,-51,-40,-32
15,-110,-129,47,80,-123,8,90,2,-45,-34,-26
15,-110,-129,47,80,-117,2,102,14,-33,-28,-20
15,-110,-129,47,80,-117,2,108,26,-21,-22,-8
15,-110,-129,47,80,-117,8,108,26,-15,-16,-8
15,-110,-129,47,80,-117,8,114,32,-9,-10,-2
21,-98,-129,41,80,-111,2,126,38,-3,1,3
21,-92,-129,35,80,-111,-9,126,44,2,13,15
21,-92,-129,35,80,-111,-9,126,50,8,19,21
21,-92,-129,35,80,-111,-9,126,50,14,25,27
27,-92,-129,35,80,-111,-9,126,56,14,31,33
33,-92,-129,29,80,-111,-9,126,62,20,37,39
33,-92,-123,29,80,-105,-3,126,68,26,49,51
33,-86,-117,29,80,-99,2,126,74,32,55,63
39,-80,-117,23,80,-93,2,132,86,44,61,75
45,-74,-117,17,80,-93,-9,132,92,56,67,81
45,-74,-117,17,80,-93,-21,132,92,56,73,81
45,-74,-117,17,80,-93,-21,126,92,56,79,81
51,-62,-117,11,80,-87,-21,126,92,62,91,87
63,-44,-117,-6,86,-81,-21,126,92,68,103,99
69,-38,-117,-12,86,-75,-33,126,92,74,103,105
69,-38,-117,-12,86,-75,-51,120,92,74,103,105
63,-38,-111,-12,80,-75,-57,114,92,74,109,105
63,-32,-105,-12,80,-69,-63,114,92,80,115,111
63,-32,-99,-12,80,-63,-63,114,92,86,121,117
63,-32,-93,-12,80,-57,-63,108,92,86,127,123
57,-32,-87,-12,74,-57,-63,102,92,86,127,129
51,-32,-81,-6,68,-57,-63,90,80,86,127,129
45,-26,-69,-6,62,-51,-63,84,74,86,133,135
45,-14,-57,-12,62,-39,-63,78,74,86,145,147
45,-8,-51,-12,62,-39,-63,72,74,92,151,159
45,-8,-51,-12,56,-33,-63,66,74,98,151,159
45,-8,-45,-12,50,-33,-63,60,74,98,151,159
45,-8,-45,-12,44,-33,-75,54,68,98,151,159
45,-3,-45,-12,44,-27,-81,48,62,98,151,159
51,9,-45,-24,44,-21,-81,42,56,98,151,159
51,9,-45,-24,44,-21,-75,36,56,98,151,159
51,9,-45,-24,44,-21,-69,36,50,98,151,159
51,15,-39,-24,44,-15,-63,36,50,98,151,159
51,21,-33,-30,44,-9,-57,36,50,98,151,159
51,21,-27,-30,38,-4,-57,30,50,98,151,159
45,15,-27,-24,38,-4,-57,18,44,98,145,159
45,15,-27,-24,38,-4,-51,18,44,98,145,159
45,15,-27,-24,32,-4,-45,18,44,98,145,159
39,15,-27,-18,26,-4,-45,12,44,92,139,153
33,9,-27,-12,26,-4,-45,6,38,86,133,147
27,3,-27,-6,26,-4,-45,6,32,80,121,141
21,3,-27,-1,26,-4,-45,6,26,68,115,135
15,-3,-27,5,20,-4,-45,6,26,62,109,129
3,-14,-27,17,14,-9,-45,6,26,62,103,123
-2,-26,-27,23,14,-15,-45,6,26,62,91,111
-8,-32,-27,29,14,-21,-45,6,26,56,85,105
-8,-38,-27,29,14,-21,-45,6,26,50,79,99
-8,-38,-27,29,14,-21,-39,6,26,50,79,93
-8,-44,-27,29,14,-27,-33,6,26,44,73,87
-8,-44,-27,29,14,-33,-21,6,26,44,67,81
-8,-44,-27,29,14,-33,-15,12,26,44,61,75
-20,-56,-27,41,8,-39,-15,12,26,38,49,63
-38,-80,-27,59,2,-45,-15,12,26,32,31,51
-38,-80,-27,65,2,-51,-9,18,26,32,25,45
-38,-80,-27,65,2,-51,-3,24,26,32,25,45
-38,-86,-27,65,2,-51,-3,24,26,26,19,33
-44,-98,-33,71,2,-57,-3,24,20,20,13,21
-50,-104,-33,77,-3,-63,8,24,20,14,7,9
-56,-104,-33,83,-3,-63,20,24,20,8,1,-2
-56,-110,-39,83,-3,-75,32,24,20,2,-4,-8
-56,-116,-45,83,-3,-81,38,24,20,-3,-16,-14
-56,-116,-51,83,-3,-87,38,24,20,-9,-28,-20
-56,-116,-57,83,-3,-87,44,24,20,-9,-34,-26
-56,-122,-63,89,-3,-93,50,24,20,-15,-40,-32
-56,-134,-69,95,-3,-99,50,24,20,-15,-46,-38
-56,-146,-75,101,-3,-105,50,24,14,-15,-52,-44
-62,-152,-75,107,-3,-105,50,24,8,-21,-52,-50
-74,-152,-75,119,-3,-105,50,24,8,-27,-52,-56
-80,-158,-75,125,-3,-105,50,24,2,-33,-52,-56
-86,-170,-75,131,-3,-117,50,24,-3,-39,-58,-56
-98,-182,-75,143,-9,-123,50,24,-3,-45,-64,-62
-104,-188,-75,149,-15,-123,62,24,-3,-45,-64,-62
-110,-188,-75,149,-15,-123,74,24,-9,-45,-64,-62
-110,-188,-75,149,-15,-123,74,24,-9,-57,-64,-62
-110,-188,-75,149,-15,-123,74,24,-9,-69,-64,-62
-110,-194,-75,155,-15,-123,68,24,-9,-75,-64,-62
-110,-194,-75,155,-15,-123,62,18,-9,-75,-70,-62
-110,-194,-75,155,-15,-123,62,18,-9,-75,-76,-68
-116,-200,-75,161,-21,-129,62,18,-9,-75,-76,-74
-122,-200,-75,167,-21,-135,62,18,-9,-75,-82,-80
-122,-200,-75,167,-21,-141,56,18,-9,-75,-88,-80
-122,-200,-75,167,-21,-141,56,18,-9,-75,-88,-86
-122,-206,-75,167,-21,-141,56,12,-15,-75,-94,-86
-122,-212,-75,173,-21,-141,56,12,-21,-75,-100,-86
-122,-212,-75,173,-21,-141,56,12,-21,-75,-100,-86
-122,-212,-75,173,-21,-141,62,12,-21,-75,-100,-86
-122,-212,-75,173,-21,-141,68,12,-21,-75,-100,-86
-122,-212,-75,173,-21,-141,68,12,-21,-75,-100,-86
-128,-212,-75,173,-27,-141,68,12,-27,-75,-100,-86
-128,-218,-75,179,-27,-147,62,12,-27,-75,-100,-86
-128,-218,-75,179,-27,-147,62,12,-27,-75,-100,-86
-128,-218,-75,179,-27,-147,62,12,-27,-75,-100,-86
-128,-218,-75,179,-27,-147,62,12,-27,-75,-100,-86
-128,-218,-75,179,-27,-147,62,6,-27,-75,-100,-86
-128,-218,-75,179,-27,-147,62,0,-27,-75,-100,-86
-128,-218,-75,179,-27,-147,62,0,-27,-75,-100,-86
-128,-218,-75,179,-27,-147,62,0,-27,-75,-100,-86
-128,-218,-75,179,-27,-147,62,0,-33,-75,-100,-86
-134,-218,-75,185,-33,-147,62,0,-39,-81,-106,-92
-146,-224,-75,191,-39,-147,62,-5,-45,-87,-118,-98
-146,-224,-75,191,-39,-147,56,-5,-45,-87,-118,-98
-146,-224,-75,191,-39,-147,56,-5,-45,-87,-118,-98
-146,-224,-75,191,-39,-147,56,-5,-45,-87,-118,-98
-152,-224,-69,197,-45,-147,56,-5,-45,-87,-118,-98
-164,-230,-69,203,-51,-147,56,-5,-45,-87,-118,-98
-170,-236,-69,215,-51,-147,56,-5,-45,-93,-118,-104
-176,-242,-69,221,-51,-147,56,-5,-45,-99,-118,-104
-176,-242,-69,221,-51,-147,62,-5,-45,-99,-118,-104
-176,-242,-69,221,-51,-147,68,-5,-45,-99,-118,-104
-176,-242,-69,221,-51,-147,68,-5,-45,-99,-118,-104
-182,-242,-69,221,-57,-147,62,-5,-45,-99,-118,-104
-188,-242,-69,221,-57,-147,56,-5,-45,-99,-118,-104
-188,-242,-69,221,-57,-147,56,-5,-45,-99,-118,-104
-188,-242,-69,221,-57,-147,56,-5,-45,-99,-118,-104
-188,-242,-69,221,-57,-147,56,-5,-45,-99,-118,-104
-188,-248,-69,227,-57,-147,56,-5,-45,-105,-118,-104
-188,-248,-69,227,-57,-147,56,-5,-45,-105,-118,-104
-176,-242,-69,215,-57,-147,56,-5,-45,-105,-118,-104
-176,-242,-69,215,-57,-147,56,-5,-45,-105,-118,-104
-182,-248,-69,221,-63,-147,50,-11,-57,-117,-124,-104
-194,-260,-69,233,-69,-153,50,-17,-63,-123,-136,-110
-194,-260,-69,233,-69,-153,50,-17,-63,-129,-136,-110
-194,-260,-69,233,-69,-153,50,-17,-69,-135,-136,-110
-194,-260,-63,233,-69,-153,50,-23,-75,-135,-136,-110
-194,-254,-63,233,-69,-153,50,-23,-75,-135,-136,-110
-188,-248,-63,227,-69,-153,50,-23,-75,-135,-136,-110
-188,-248,-63,227,-69,-153,50,-29,-75,-141,-136,-110
-188,-248,-63,227,-69,-153,50,-29,-75,-147,-136,-110
-188,-248,-63,227,-69,-153,50,-29,-75,-153,-136,-110
-188,-248,-63,227,-69,-153,50,-35,-81,-159,-136,-110
-188,-248,-63,227,-69,-153,50,-35,-87,-159,-148,-110
-182,-248,-63,221,-69,-153,50,-41,-87,-159,-154,-116
-176,-242,-63,215,-69,-153,50,-41,-87,-159,-154,-116
-176,-242,-63,215,-69,-153,44,-41,-87,-159,-154,-116
-176,-242,-63,215,-69,-153,44,-41,-87,-159,-154,-116
-176,-242,-63,215,-69,-153,44,-41,-93,-159,-154,-116
-176,-242,-63,215,-69,-153,44,-41,-93,-159,-154,-116
-176,-236,-63,209,-69,-153,44,-41,-99,-159,-154,-116
-176,-230,-63,209,-69,-153,32,-47,-105,-159,-154,-116
-176,-230,-57,209,-69,-153,14,-53,-111,-159,-154,-116
-176,-230,-57,209,-69,-147,14,-53,-111,-159,-154,-116
-176,-230,-57,209,-69,-147,20,-53,-111,-159,-154,-116
-176,-230,-57,209,-69,-147,20,-59,-117,-165,-154,-116
-176,-230,-57,209,-69,-147,20,-65,-117,-165,-154,-116
-176,-230,-57,209,-69,-147,20,-65,-117,-165,-154,-116
-176,-230,-57,209,-69,-147,20,-65,-117,-171,-160,-122
-176,-224,-51,203,-69,-147,20,-65,-117,-171,-160,-122
-170,-218,-51,197,-69,-141,20,-65,-117,-171,-160,-122
-164,-212,-51,191,-69,-141,20,-71,-123,-171,-160,-122
-158,-206,-51,185,-63,-141,20,-77,-123,-171,-160,-122
-146,-200,-57,173,-51,-141,20,-77,-123,-171,-160,-122
-128,-188,-57,161,-39,-135,20,-77,-123,-171,-160,-122
-122,-182,-57,155,-39,-129,20,-83,-123,-177,-160,-122
-122,-182,-57,155,-39,-123,20,-83,-129,-183,-160,-122
-122,-182,-57,155,-39,-123,14,-83,-129,-183,-160,-122
-122,-182,-57,155,-39,-123,14,-83,-135,-183,-160,-122
-122,-182,-57,155,-39,-123,14,-83,-135,-183,-160,-122
-122,-176,-57,155,-39,-117,14,-83,-135,-183,-160,-122
-122,-170,-57,155,-39,-111,14,-83,-135,-183,-166,-122
-122,-170,-57,155,-39,-111,14,-89,-135,-183,-166,-122
-122,-170,-57,155,-39,-111,14,-89,-135,-183,-166,-128
-122,-170,-57,155,-39,-111,14,-89,-141,-189,-166,-128
-122,-170,-57,155,-39,-111,14,-89,-147,-189,-166,-128
-122,-158,-45,149,-39,-105,14,-89,-147,-189,-166,-128
-116,-152,-39,143,-39,-99,14,-89,-147,-189,-166,-128
-116,-152,-39,143,-39,-93,14,-95,-153,-195,-172,-128
-116,-152,-33,143,-45,-93,14,-95,-153,-195,-172,-128
-116,-152,-33,143,-45,-93,14,-95,-153,-195,-172,-128
-110,-152,-33,137,-45,-93,14,-95,-153,-201,-178,-134
-110,-146,-33,137,-45,-93,14,-95,-153,-201,-178,-134
-110,-140,-33,131,-45,-93,14,-95,-153,-201,-178,-134
-110,-140,-33,125,-45,-93,14,-95,-153,-201,-178,-134
-110,-134,-33,119,-45,-87,14,-101,-159,-201,-178,-134
-104,-128,-33,113,-45,-87,14,-101,-159,-201,-178,-134
-98,-122,-33,107,-39,-87,14,-101,-159,-201,-178,-134
-86,-116,-33,95,-33,-81,14,-101,-159,-201,-178,-134
-62,-104,-33,83,-21,-75,14,-101,-159,-201,-178,-134
-62,-104,-33,83,-21,-75,8,-101,-159,-201,-178,-134
-62,-110,-33,83,-21,-75,2,-107,-165,-207,-178,-140
-62,-110,-33,83,-21,-75,2,-113,-171,-219,-178,-140
-62,-110,-33,83,-21,-75,2,-113,-171,-225,-178,-140
-62,-104,-33,83,-21,-69,2,-113,-177,-231,-178,-140
-62,-98,-33,83,-21,-63,2,-113,-177,-231,-178,-140
-62,-92,-33,83,-21,-63,2,-113,-177,-231,-178,-140
-62,-92,-33,83,-21,-63,2,-113,-177,-225,-178,-140
-62,-92,-33,83,-21,-63,2,-113,-177,-225,-184,-140
-62,-80,-27,83,-21,-57,2,-113,-177,-231,-184,-140
-62,-74,-21,77,-21,-51,2,-113,-177,-231,-184,-140
-50,-62,-21,65,-21,-45,2,-113,-177,-219,-184,-140
-26,-44,-21,35,-15,-39,14,-113,-171,-207,-184,-140
-20,-38,-21,29,-15,-33,20,-113,-171,-207,-184,-140
-20,-38,-21,29,-15,-33,20,-113,-171,-207,-184,-140
-20,-38,-21,29,-15,-33,14,-113,-171,-207,-184,-140
-20,-32,-21,29,-15,-27,8,-113,-171,-207,-178,-140
-20,-26,-15,29,-15,-21,8,-113,-171,-207,-178,-140
-14,-26,-15,23,-9,-21,8,-113,-171,-207,-178,-140
-8,-26,-15,17,-3,-21,8,-113,-171,-207,-178,-140
-8,-26,-21,17,2,-21,8,-113,-171,-207,-178,-140
-8,-32,-21,17,2,-21,8,-113,-171,-207,-178,-140
-8,-32,-21,17,2,-21,8,-113,-171,-207,-178,-140
3,-26,-21,11,2,-21,8,-113,-171,-207,-178,-140
9,-20,-21,5,8,-15,8,-113,-171,-207,-178,-140
15,-20,-21,5,14,-15,8,-113,-171,-207,-178,-140
15,-20,-21,5,20,-15,8,-113,-171,-207,-178,-140
15,-14,-21,5,20,-15,8,-113,-171,-207,-172,-140
21,-8,-21,-1,20,-15,8,-113,-171,-207,-172,-140
33,3,-21,-12,20,-9,8,-113,-171,-207,-172,-140
39,9,-21,-18,20,-9,8,-113,-171,-207,-172,-140
39,9,-21,-18,20,-9,8,-113,-171,-207,-172,-140
39,9,-21,-18,20,-9,2,-113,-171,-207,-172,-140
51,9,-27,-24,26,-9,-3,-113,-171,-207,-172,-140
57,9,-33,-30,32,-9,-9,-113,-171,-207,-172,-140
57,9,-33,-30,32,-9,-9,-113,-171,-207,-172,-140
57,9,-33,-30,32,-9,-9,-107,-171,-201,-172,-134
57,15,-33,-30,32,-4,-9,-95,-165,-195,-166,-134
57,27,-27,-36,32,2,-3,-89,-165,-195,-160,-128
57,33,-21,-42,32,8,2,-89,-159,-189,-154,-128
57,39,-9,-42,26,14,8,-89,-153,-183,-154,-122
57,45,-4,-42,26,20,20,-89,-147,-177,-154,-116
57,51,-4,-48,26,20,26,-89,-147,-171,-148,-110
57,57,2,-54,20,26,32,-89,-147,-171,-142,-104
57,63,8,-60,20,32,32,-83,-147,-171,-136,-98
57,69,14,-66,20,38,38,-83,-147,-171,-136,-92
57,69,14,-66,20,38,38,-83,-147,-171,-136,-92
57,69,14,-66,20,38,38,-83,-147,-171,-136,-92
57,75,20,-66,20,44,38,-77,-141,-165,-130,-86
63,87,20,-72,20,56,38,-65,-129,-159,-118,-86
63,87,20,-72,20,56,38,-59,-123,-153,-112,-80
63,75,14,-66,20,44,38,-53,-123,-153,-112,-80
63,69,8,-66,20,38,38,-53,-117,-147,-112,-80
69,69,8,-72,26,38,38,-47,-111,-141,-100,-74
69,69,8,-72,26,38,38,-41,-111,-135,-100,-68
69,69,8,-72,26,38,32,-41,-111,-135,-100,-68
69,69,8,-72,26,38,32,-41,-111,-135,-100,-68
69,69,2,-72,26,38,32,-41,-111,-135,-100,-68
69,69,-4,-72,26,32,20,-41,-111,-135,-100,-68
69,69,-4,-72,26,32,8,-41,-111,-135,-100,-68
81,69,-4,-72,32,32,-3,-41,-111,-135,-100,-68
87,69,-15,-72,44,26,-3,-41,-111,-135,-100,-68
87,51,-27,-72,50,14,-3,-41,-111,-135,-100,-68
87,45,-27,-66,50,8,-3,-41,-111,-129,-100,-68
87,45,-27,-66,50,8,-3,-41,-111,-129,-100,-62
87,45,-27,-66,56,8,-3,-41,-111,-129,-94,-56
93,51,-27,-72,62,8,-3,-41,-105,-129,-88,-50
99,57,-27,-78,62,8,-3,-41,-99,-129,-82,-44
99,57,-27,-78,62,8,-3,-41,-99,-123,-82,-44
99,57,-33,-78,68,2,-9,-41,-99,-111,-82,-44
99,51,-33,-78,68,2,-9,-41,-99,-111,-82,-44
99,51,-33,-78,68,2,-9,-41,-99,-111,-82,-44
99,51,-33,-78,68,2,-9,-47,-99,-111,-82,-44
99,51,-33,-78,68,2,-9,-47,-105,-111,-82,-44
99,51,-33,-78,68,2,-15,-53,-105,-111,-82,-44
93,51,-33,-72,68,2,-21,-53,-105,-111,-82,-44
87,45,-33,-66,68,2,-21,-53,-105,-111,-82,-44
87,45,-33,-66,68,2,-9,-53,-105,-111,-82,-44
87,39,-33,-60,68,2,-9,-59,-111,-117,-88,-50
81,33,-33,-54,68,-4,-15,-65,-117,-129,-100,-62
75,27,-33,-48,62,-4,-27,-65,-123,-135,-100,-68
69,21,-33,-42,62,-9,-27,-65,-129,-141,-100,-74
63,9,-39,-36,62,-15,-27,-71,-135,-147,-100,-74
63,-3,-45,-30,62,-27,-27,-77,-141,-159,-112,-74
63,-8,-57,-24,62,-33,-27,-83,-147,-165,-124,-80
57,-14,-57,-18,62,-39,-21,-89,-153,-171,-136,-86
45,-26,-57,-6,56,-45,-15,-89,-159,-177,-142,-92
45,-38,-63,-1,56,-51,-15,-89,-165,-177,-142,-98
45,-44,-69,-1,56,-57,-15,-89,-165,-177,-148,-104
45,-50,-75,-1,56,-63,-15,-89,-165,-177,-148,-104
39,-56,-81,-1,56,-63,-15,-89,-165,-177,-148,-104
39,-56,-81,-1,56,-63,-15,-89,-165,-177,-148,-104
33,-56,-81,-1,56,-63,-15,-89,-159,-171,-142,-104
33,-56,-81,-1,50,-57,-3,-89,-159,-171,-142,-104
33,-50,-69,-1,44,-51,2,-89,-153,-171,-136,-98
27,-44,-57,-1,38,-45,2,-89,-147,-165,-130,-92
27,-32,-33,-1,26,-33,2,-77,-135,-153,-118,-86
27,-20,-21,-1,20,-21,8,-65,-111,-129,-106,-74
21,-14,-4,-1,8,-9,20,-41,-93,-105,-88,-50
15,3,26,-1,-3,8,44,-17,-75,-93,-46,-32
15,21,38,-6,-15,26,56,12,-45,-69,-28,-20
15,33,44,-12,-21,44,68,36,-15,-45,-16,-8
15,57,56,-24,-27,68,68,60,20,-15,13,9
15,87,74,-36,-33,92,74,90,62,20,37,39
9,99,98,-42,-45,104,86,132,104,50,49,51
-14,105,140,-42,-75,116,98,174,134,68,55,57
-26,129,182,-48,-105,152,116,246,188,98,79,75
-26,177,224,-60,-123,194,164,360,272,146,115,111
-26,225,278,-78,-153,248,218,504,392,218,151,141
-26,297,332,-108,-171,308,248,702,566,326,211,189
-20,363,368,-156,-183,362,260,894,764,470,313,267
-14,423,410,-198,-189,428,266,1044,974,662,469,381
15,513,464,-264,-195,494,266,1134,1208,896,679,543
57,633,518,-354,-201,584,260,1134,1370,1154,949,765
99,765,602,-432,-213,686,212,1104,1520,1406,1213,1011
153,903,710,-528,-237,806,134,1074,1706,1700,1507,1269
195,1047,800,-624,-267,920,62,1044,1898,1988,1819,1527
231,1161,878,-690,-285,1016,-15,990,2089,2269,2118,1761
267,1269,968,-762,-309,1118,-69,918,2257,2574,2376,1953
279,1413,1100,-834,-369,1256,-99,780,2353,2886,2627,2150
279,1551,1262,-894,-465,1412,-129,630,2442,3198,2891,2342
279,1629,1370,-930,-525,1502,-141,540,2568,3426,3083,2443
279,1629,1370,-936,-531,1502,-147,510,2676,3504,3107,2443
273,1521,1274,-906,-519,1406,-147,498,2688,3432,2975,2234
225,1263,1094,-762,-483,1178,-147,432,2556,3000,2495,1839
165,1017,908,-594,-423,962,-147,294,2173,2430,1945,1425
129,813,734,-480,-357,776,-141,90,1610,1826,1405,1041
93,603,572,-348,-285,584,-135,-209,884,1112,847,657
15,387,434,-198,-255,404,-135,-539,128,410,319,291
-44,231,344,-96,-237,290,-141,-743,-357,-57,-28,33
-74,165,296,-48,-225,236,-147,-809,-549,-267,-178,-98
-86,111,230,-12,-195,176,-147,-827,-615,-369,-256,-164
-86,63,170,5,-159,116,-147,-827,-633,-411,-292,-194
-86,33,128,11,-123,86,-147,-791,-633,-411,-298,-200
-86,21,104,17,-105,62,-147,-695,-567,-399,-298,-200
-80,15,92,17,-93,50,-147,-593,-489,-357,-286,-188
-68,15,86,17,-81,50,-147,-497,-417,-309,-250,-158
-56,15,80,17,-69,50,-135,-407,-363,-279,-226,-146
-50,15,74,17,-63,50,-123,-305,-321,-255,-214,-134
-32,15,62,11,-51,38,-93,-227,-279,-237,-190,-128
-20,9,20,11,-27,26,-63,-173,-231,-213,-178,-122
-8,3,-9,11,-3,-4,-57,-131,-195,-201,-172,-116
-8,-8,-21,11,8,-15,-57,-119,-183,-195,-172,-116
-8,-20,-33,11,14,-27,-51,-107,-177,-189,-166,-116
-8,-32,-45,11,20,-39,-39,-95,-177,-189,-160,-116
-2,-38,-51,11,26,-45,-9,-89,-171,-183,-160,-110
15,-38,-57,5,38,-45,-3,-83,-171,-183,-160,-110
39,-38,-69,-1,50,-45,-3,-77,-171,-183,-160,-110
39,-44,-75,-1,56,-51,-9,-71,-171,-183,-160,-110
39,-50,-87,5,56,-63,-9,-65,-171,-183,-160,-110
39,-50,-93,5,56,-63,-9,-59,-165,-183,-160,-110
39,-50,-93,5,56,-63,-3,-53,-159,-183,-154,-110
39,-56,-93,11,56,-69,-3,-53,-159,-183,-154,-110
39,-62,-93,17,56,-75,-3,-53,-159,-183,-154,-110
39,-62,-93,17,56,-75,-3,-47,-159,-183,-154,-110
39,-62,-93,17,56,-75,-3,-47,-159,-183,-154,-110
39,-68,-93,17,62,-81,-3,-41,-159,-183,-154,-110
39,-68,-99,17,68,-87,-3,-35,-153,-183,-154,-110
39,-68,-105,17,74,-87,-3,-29,-153,-183,-154,-110
39,-68,-105,17,74,-87,-3,-29,-153,-183,-154,-110
39,-68,-105,17,74,-87,-3,-23,-153,-183,-154,-110
39,-68,-105,17,74,-87,-3,-23,-153,-183,-148,-110
39,-68,-105,17,74,-87,-3,-23,-153,-183,-148,-110
39,-68,-105,17,74,-87,8,-23,-153,-183,-148,-110
39,-68,-105,17,74,-87,20,-17,-153,-183,-148,-110
51,-62,-111,5,80,-87,20,-11,-147,-177,-148,-110
57,-62,-111,5,86,-87,20,-5,-141,-177,-148,-110
57,-62,-111,5,86,-87,20,-5,-141,-177,-148,-110
51,-62,-111,5,80,-87,20,-5,-141,-177,-148,-110
51,-62,-111,5,80,-87,20,-5,-141,-177,-148,-110
51,-62,-111,5,80,-87,20,-5,-135,-171,-148,-110
51,-62,-111,5,80,-87,20,-5,-135,-171,-148,-110
51,-62,-111,5,80,-87,20,-5,-135,-171,-148,-110
51,-56,-111,-1,80,-87,20,0,-135,-171,-148,-110
51,-56,-105,-1,80,-87,26,6,-129,-165,-148,-110
51,-56,-105,-1,80,-87,26,6,-129,-165,-148,-110
45,-62,-105,-1,80,-87,32,6,-129,-159,-148,-110
45,-68,-105,5,80,-87,32,6,-129,-159,-142,-110
39,-74,-105,11,74,-87,32,6,-129,-159,-142,-110
39,-74,-105,11,74,-87,26,6,-129,-159,-142,-110
39,-74,-105,11,74,-87,26,6,-123,-159,-142,-104
45,-68,-105,11,74,-87,26,12,-117,-153,-142,-104
45,-68,-105,11,74,-87,32,18,-111,-153,-142,-104
45,-68,-105,11,74,-87,32,18,-105,-153,-136,-104
45,-68,-105,11,74,-87,32,18,-99,-153,-130,-98
45,-68,-105,11,74,-87,26,24,-93,-147,-130,-98
45,-68,-105,11,74,-87,26,30,-93,-141,-130,-98
45,-68,-105,11,74,-87,26,30,-93,-135,-124,-98
45,-74,-105,11,74,-93,26,30,-93,-135,-124,-98
45,-74,-105,11,74,-93,26,30,-93,-129,-124,-98
45,-74,-105,5,74,-93,26,36,-81,-123,-118,-92
51,-68,-105,-1,80,-93,26,42,-75,-117,-112,-86
51,-68,-105,-1,86,-93,26,42,-69,-111,-112,-86
45,-74,-105,5,86,-93,20,42,-63,-111,-112,-86
33,-80,-105,17,86,-93,8,42,-63,-111,-112,-86
33,-80,-105,17,86,-93,2,48,-57,-105,-106,-80
33,-74,-105,11,86,-93,2,54,-51,-99,-94,-74
45,-68,-111,-1,92,-93,2,60,-45,-93,-82,-68
57,-68,-117,-6,98,-93,2,60,-39,-87,-76,-62
63,-68,-117,-6,98,-93,2,66,-33,-87,-70,-56
69,-56,-117,-18,98,-87,2,72,-21,-81,-64,-50
75,-44,-117,-24,98,-81,2,78,-15,-75,-58,-44
75,-44,-111,-24,98,-81,2,78,-9,-75,-52,-44
69,-50,-111,-18,98,-81,2,84,-3,-69,-46,-38
69,-56,-111,-6,98,-81,2,90,2,-57,-40,-32
69,-62,-117,-6,98,-81,2,90,8,-39,-34,-26
69,-62,-117,-6,98,-81,2,96,14,-27,-28,-20
69,-62,-117,-6,98,-81,2,96,20,-21,-22,-14
63,-62,-117,-6,92,-81,2,96,20,-15,-22,-14
63,-62,-117,-6,92,-81,2,96,20,-15,-16,-14
63,-56,-117,-12,92,-81,2,102,26,-9,-10,-2
63,-50,-117,-12,92,-81,2,108,32,-3,1,3
63,-50,-117,-12,92,-81,-3,114,38,2,7,9
63,-50,-117,-12,92,-81,-15,114,44,2,7,15
63,-50,-111,-12,92,-81,-21,114,44,8,19,27
69,-38,-105,-18,92,-75,-21,114,50,20,37,39
75,-26,-105,-30,92,-69,-21,114,56,26,43,45
81,-14,-105,-42,92,-63,-21,114,62,32,43,51
81,-8,-105,-42,92,-63,-27,114,62,38,49,57
81,-8,-105,-42,92,-63,-39,114,62,44,49,57
81,-8,-99,-42,92,-63,-45,114,62,50,55,63
81,-8,-99,-42,92,-57,-45,114,68,56,67,69
87,-3,-99,-48,92,-51,-45,114,74,62,73,75
87,-3,-93,-48,92,-45,-45,114,74,62,73,81
87,3,-81,-48,92,-39,-57,114,74,68,79,87
87,15,-75,-48,92,-33,-63,114,74,74,91,93
87,15,-75,-48,92,-33,-63,114,74,74,97,93
81,15,-75,-42,86,-33,-63,108,74,74,103,99
81,15,-75,-42,86,-33,-63,102,74,74,103,105
81,21,-75,-48,86,-27,-69,96,74,74,103,105
81,27,-69,-48,80,-27,-81,90,74,74,109,111
81,27,-63,-48,74,-21,-87,84,74,74,109,111
81,27,-51,-48,68,-15,-87,78,74,74,109,117
81,33,-45,-48,68,-9,-87,72,74,74,109,123
81,39,-39,-54,68,-4,-81,66,74,80,115,129
81,45,-33,-60,68,2,-81,60,74,80,121,135
81,45,-27,-60,62,8,-81,54,68,80,121,135
81,51,-21,-60,56,8,-81,48,62,80,121,135
81,57,-15,-66,56,14,-81,42,56,80,121,141
81,57,-15,-66,56,14,-81,36,50,80,121,141
81,57,-15,-66,56,14,-87,30,44,80,121,141
81,57,-15,-66,56,14,-99,18,38,80,121,141
81,63,-15,-72,56,20,-111,12,32,80,121,141
81,69,-15,-78,56,26,-111,12,32,80,121,141
81,69,-15,-78,56,26,-111,12,26,74,121,141
81,69,-9,-78,56,26,-105,6,20,68,121,141
81,69,-4,-78,50,26,-105,0,14,68,115,135
75,69,2,-78,44,26,-105,0,14,62,115,129
69,69,8,-72,38,26,-105,0,14,62,115,129
57,69,14,-66,32,26,-105,0,14,62,109,123
51,69,14,-60,20,26,-93,-5,8,56,103,117
51,69,14,-60,20,26,-81,-5,8,56,103,117
57,69,8,-66,20,32,-75,-5,8,56,103,117
57,69,8,-66,20,32,-75,-5,8,56,97,111
57,63,8,-66,20,32,-75,-5,2,50,85,99
57,63,8,-66,20,32,-63,-5,2,44,79,87
57,63,8,-66,20,32,-63,-5,2,44,67,81
57,57,8,-60,20,26,-63,-5,2,38,61,75
57,51,8,-60,20,26,-63,-5,2,38,61,69
57,45,8,-60,20,26,-57,-5,2,38,55,63
51,39,8,-54,20,26,-51,-5,2,32,43,51
33,27,8,-42,14,20,-51,-5,2,26,31,45
15,15,8,-24,8,14,-51,-5,2,20,25,33
9,3,2,-18,8,8,-45,0,2,14,19,27
9,-3,-4,-18,8,2,-33,6,2,14,19,27
9,-3,-4,-12,8,2,-21,12,2,14,13,21
9,-8,-4,-6,8,2,-15,18,2,8,7,15
9,-14,-4,-1,8,-4,-15,24,2,8,1,3
9,-20,-4,-1,8,-9,-15,24,2,2,-4,-8
9,-20,-4,-1,8,-9,-9,24,2,2,-10,-14
9,-20,-4,-1,8,-9,-3,30,2,-3,-16,-20
9,-20,-4,-1,8,-9,2,30,2,-3,-22,-26
3,-20,-9,5,8,-15,8,30,2,-9,-28,-32
3,-26,-15,11,8,-21,14,30,2,-15,-28,-38
3,-26,-21,11,8,-21,14,30,2,-15,-28,-44
3,-26,-21,11,8,-21,14,30,2,-15,-34,-44
3,-26,-21,11,8,-21,14,30,2,-21,-40,-50
3,-26,-21,11,8,-21,14,30,2,-27,-46,-56
3,-38,-27,17,8,-33,14,30,2,-33,-52,-62
3,-44,-27,23,8,-39,14,30,2,-33,-52,-68
3,-44,-27,23,8,-39,14,30,2,-33,-58,-68
3,-44,-33,23,8,-39,20,30,2,-39,-58,-68
3,-44,-39,23,14,-45,26,30,-3,-45,-64,-68
3,-44,-45,23,20,-51,26,30,-9,-51,-70,-74
3,-44,-45,23,20,-51,26,30,-9,-57,-76,-80
3,-50,-45,23,20,-57,20,30,-9,-57,-82,-86
3,-56,-45,23,20,-57,14,30,-9,-57,-82,-86
-2,-56,-45,23,20,-57,14,30,-9,-57,-82,-86
-2,-56,-45,29,20,-57,14,30,-9,-57,-82,-86
-2,-62,-45,29,20,-57,14,30,-9,-57,-82,-86
-2,-62,-45,29,20,-57,14,24,-15,-57,-82,-86
-2,-62,-45,29,20,-57,20,24,-15,-57,-82,-86
-2,-62,-45,29,20,-57,26,24,-15,-57,-82,-86
-2,-62,-45,29,20,-57,26,24,-15,-57,-82,-86
-2,-62,-45,29,20,-57,26,24,-15,-57,-82,-86
-2,-56,-45,29,20,-57,26,24,-15,-57,-82,-86
-2,-50,-45,29,20,-57,38,24,-15,-57,-82,-86
-2,-50,-45,29,20,-57,44,24,-15,-57,-82,-86
-2,-50,-45,29,20,-57,44,24,-15,-57,-82,-86
-2,-50,-45,29,20,-57,38,24,-15,-57,-82,-86
-2,-50,-45,29,20,-57,32,24,-15,-57,-82,-86
-2,-50,-45,29,20,-57,26,24,-15,-57,-82,-86
-2,-50,-45,29,20,-57,26,24,-15,-57,-82,-86
-2,-50,-45,29,20,-51,26,24,-15,-57,-82,-86
-2,-50,-45,29,20,-51,26,24,-15,-57,-82,-86
-2,-50,-45,29,20,-51,26,24,-15,-57,-82,-86
-2,-50,-45,29,20,-51,26,24,-15,-57,-82,-86
-2,-44,-45,29,20,-51,26,24,-15,-57,-82,-86
-2,-44,-45,29,20,-51,26,24,-15,-57,-82,-86
-2,-44,-45,29,20,-51,26,24,-15,-57,-82,-86
-2,-44,-45,29,20,-51,26,24,-15,-57,-82,-86
3,-44,-45,23,20,-51,26,30,-15,-57,-82,-86
9,-38,-45,17,20,-51,26,36,-15,-57,-82,-86
9,-38,-45,17,20,-51,26,36,-15,-57,-82,-86
9,-38,-45,17,20,-51,26,36,-15,-57,-82,-86
9,-38,-45,17,20,-51,26,36,-15,-57,-82,-86
9,-38,-45,17,20,-51,26,36,-9,-57,-82,-86
15,-38,-45,11,26,-51,26,36,-9,-57,-82,-86
15,-32,-45,5,26,-45,32,36,-9,-57,-82,-86
15,-32,-45,-1,26,-45,32,36,-9,-57,-82,-86
15,-32,-45,-1,26,-45,32,36,-9,-63,-82,-86
15,-32,-45,-1,26,-45,32,42,-9,-63,-82,-86
15,-32,-45,-1,26,-45,38,48,-9,-63,-76,-80
15,-32,-45,-1,26,-45,38,48,-9,-63,-76,-80
15,-32,-45,-1,26,-45,38,48,-9,-63,-76,-80
15,-32,-45,-1,26,-45,32,48,-9,-63,-76,-80
15,-32,-45,-1,26,-45,20,48,-15,-63,-76,-80
15,-32,-45,-1,26,-45,20,48,-15,-69,-76,-80
15,-32,-45,-1,26,-45,20,48,-15,-69,-82,-80
15,-32,-45,-1,26,-45,20,48,-15,-69,-82,-80
15,-26,-45,-6,26,-39,20,48,-15,-69,-82,-80
15,-20,-45,-6,26,-33,20,48,-15,-69,-82,-80
9,-20,-39,-1,26,-33,20,48,-15,-69,-82,-80
9,-26,-39,5,26,-33,20,48,-15,-69,-82,-80
15,-26,-39,5,26,-33,20,48,-15,-69,-82,-80
21,-26,-39,-1,32,-33,26,48,-15,-69,-82,-80
21,-20,-39,-6,32,-33,32,48,-15,-69,-82,-80
27,-14,-39,-12,32,-33,38,48,-15,-69,-82,-80
27,-14,-39,-12,32,-33,38,48,-15,-69,-82,-80
27,-20,-39,-12,32,-33,38,48,-15,-69,-82,-80
27,-26,-39,-6,32,-33,38,48,-15,-69,-82,-80
27,-26,-39,-6,32,-33,38,48,-21,-69,-82,-80
27,-26,-39,-6,32,-33,38,48,-21,-69,-82,-80
21,-26,-39,-6,32,-33,38,48,-21,-69,-82,-80
15,-26,-39,-1,32,-33,38,48,-21,-69,-82,-80
9,-26,-39,-1,32,-33,38,48,-21,-69,-82,-80
9,-26,-39,-1,32,-33,38,48,-21,-69,-82,-80
9,-26,-39,-1,32,-33,38,48,-21,-69,-82,-80
-2,-38,-39,11,26,-39,32,36,-27,-75,-82,-80
-14,-50,-39,23,20,-39,26,24,-33,-81,-88,-86
-14,-50,-39,23,20,-39,26,24,-33,-87,-88,-86
-8,-50,-39,17,26,-39,32,24,-33,-87,-88,-86
-2,-50,-45,17,26,-45,38,24,-39,-87,-88,-86
-2,-50,-45,17,26,-51,38,24,-39,-87,-88,-86
-2,-50,-45,17,26,-51,32,24,-45,-87,-88,-86
-2,-50,-45,17,26,-51,26,24,-51,-87,-88,-86
-2,-50,-45,17,26,-51,26,24,-57,-87,-88,-86
-2,-50,-51,17,32,-51,32,24,-57,-87,-88,-86
-2,-50,-51,17,32,-51,32,24,-57,-87,-88,-86
3,-50,-51,17,32,-51,32,24,-57,-87,-88,-86
3,-50,-51,17,32,-51,26,18,-57,-93,-88,-86
-2,-62,-51,23,32,-57,26,18,-57,-99,-94,-92
-14,-86,-57,41,32,-69,26,12,-63,-105,-94,-92
-14,-86,-57,41,32,-69,26,12,-63,-105,-94,-92
-14,-86,-57,41,32,-69,32,12,-63,-105,-94,-92
-14,-86,-57,41,32,-69,38,12,-63,-105,-94,-92
-20,-86,-57,47,26,-69,32,6,-69,-111,-100,-92
-20,-86,-57,47,26,-69,14,0,-75,-117,-106,-98
-14,-80,-57,41,26,-69,8,0,-75,-117,-106,-98
-8,-74,-57,35,26,-63,14,0,-75,-117,-106,-98
-8,-74,-57,35,26,-63,14,0,-75,-117,-106,-98
-8,-74,-57,35,26,-63,14,0,-75,-117,-106,-98
-8,-74,-57,35,26,-63,14,0,-81,-123,-112,-104
-8,-74,-57,35,26,-63,20,0,-81,-123,-112,-104
-8,-74,-57,35,26,-63,20,0,-81,-123,-112,-104
-8,-74,-57,35,26,-63,20,0,-87,-129,-112,-110
-8,-74,-57,35,26,-63,20,-5,-87,-129,-118,-110
-14,-74,-57,41,26,-63,20,-5,-93,-129,-118,-110
-14,-74,-57,47,26,-63,20,-5,-93,-129,-118,-110
-14,-74,-57,47,26,-63,20,-5,-93,-129,-118,-110
-20,-80,-57,47,26,-69,20,-5,-93,-135,-124,-110
-32,-92,-57,59,26,-75,20,-11,-99,-135,-124,-110
-32,-92,-57,59,26,-75,20,-11,-99,-135,-124,-110
-32,-92,-57,59,26,-75,20,-11,-99,-135,-124,-110
-32,-92,-57,59,26,-75,20,-17,-99,-135,-124,-110
-32,-92,-57,59,20,-75,20,-17,-99,-135,-124,-110
-32,-98,-57,65,20,-75,20,-17,-99,-135,-124,-110
-32,-98,-57,71,20,-75,14,-23,-105,-141,-124,-116
-32,-98,-57,71,20,-75,14,-29,-105,-141,-124,-122
-32,-98,-57,71,20,-75,14,-29,-105,-141,-124,-122
-32,-98,-57,71,20,-75,14,-29,-105,-141,-124,-122
-38,-98,-57,71,14,-75,14,-29,-111,-141,-130,-128
-44,-98,-57,71,14,-75,14,-29,-111,-141,-130,-128
-44,-98,-57,71,14,-75,14,-29,-111,-141,-130,-128
-38,-92,-57,65,14,-75,14,-29,-111,-141,-130,-128
-32,-86,-57,59,14,-75,20,-29,-111,-141,-130,-128
-32,-86,-57,59,14,-75,26,-29,-111,-141,-130,-128
-32,-80,-57,59,14,-75,32,-29,-111,-141,-130,-128
-32,-80,-57,59,14,-75,32,-29,-111,-147,-130,-128
-38,-86,-57,65,14,-75,20,-35,-117,-153,-136,-134
-44,-86,-57,65,8,-75,2,-35,-117,-153,-136,-134
-44,-86,-57,65,8,-75,-3,-35,-117,-153,-136,-134
-44,-86,-57,65,8,-75,2,-35,-117,-153,-136,-134
-44,-86,-57,65,8,-75,8,-35,-117,-153,-136,-134
-44,-86,-57,65,8,-75,14,-35,-117,-153,-136,-134
-44,-86,-57,65,8,-75,14,-41,-117,-159,-142,-134
-44,-86,-57,65,8,-75,14,-41,-117,-159,-142,-134
-44,-86,-57,65,8,-75,26,-41,-117,-159,-142,-134
-44,-86,-57,65,8,-75,26,-41,-117,-159,-142,-134
-44,-86,-57,65,8,-75,26,-41,-117,-159,-142,-134
-44,-86,-57,65,8,-75,26,-41,-117,-159,-142,-134
-44,-86,-57,65,8,-75,26,-41,-117,-159,-142,-134
-44,-86,-57,65,8,-75,32,-41,-117,-159,-142,-134
-38,-86,-57,65,8,-75,32,-41,-123,-159,-142,-134
-38,-86,-57,65,8,-75,32,-41,-123,-159,-142,-134
-38,-86,-57,65,8,-75,26,-41,-123,-159,-142,-134
-44,-92,-57,71,8,-75,26,-41,-123,-165,-148,-134
-44,-98,-57,71,8,-81,26,-41,-123,-165,-148,-134
-44,-98,-57,71,8,-81,26,-41,-123,-165,-148,-134
-44,-98,-57,71,8,-81,26,-41,-123,-165,-148,-134
-44,-98,-57,71,8,-81,20,-41,-123,-165,-148,-134
-44,-98,-57,71,8,-81,20,-41,-123,-165,-148,-134
-44,-98,-57,71,8,-81,20,-41,-123,-165,-148,-134
-44,-98,-57,71,8,-81,20,-41,-123,-165,-148,-134
-44,-98,-57,71,8,-81,20,-41,-123,-165,-148,-134
-44,-98,-57,71,8,-81,20,-41,-123,-165,-148,-134
-44,-98,-57,71,8,-81,20,-41,-123,-165,-148,-134
-44,-92,-51,71,8,-81,20,-41,-123,-165,-148,-128
-38,-68,-45,59,8,-69,20,-41,-123,-159,-142,-128
-26,-56,-45,47,8,-57,20,-35,-117,-159,-142,-122
-26,-56,-45,41,8,-57,20,-35,-117,-153,-142,-122
-26,-56,-45,41,8,-51,32,-35,-117,-147,-136,-122
-32,-56,-33,41,-3,-51,44,-35,-117,-141,-130,-122
-44,-56,-27,47,-9,-51,50,-35,-117,-141,-130,-122
-44,-56,-27,47,-9,-51,50,-29,-111,-135,-130,-122
-44,-50,-21,47,-9,-45,50,-23,-105,-135,-130,-122
-44,-44,-9,47,-15,-33,50,-17,-105,-135,-130,-122
-44,-44,-4,47,-15,-33,56,-11,-99,-129,-124,-116
-44,-44,-4,47,-15,-33,56,-11,-93,-129,-124,-116
-44,-44,-4,47,-15,-33,56,-11,-93,-129,-124,-116
