,,,,,,,,,,,
2019-09-04 23:53:26,,,,,,,,,,,
,,,,,,,,,,,
I,II,III,aVR,aVL,aVF,V1,V2,V3,V4,V5,V6
-163,65,292,8,-234,173,-668,139,594,2222,317,1574
-127,29,112,14,-132,65,-458,-4,12,279,-84,50
-109,-1,70,20,-102,29,-404,-40,-101,-38,-162,-195
-103,-12,52,26,-84,11,-380,-52,-125,-86,-186,-231
-97,-18,46,26,-78,5,-368,-64,-137,-104,-198,-243
-91,-24,40,26,-72,-1,-368,-70,-143,-116,-210,-249
-85,-30,34,26,-66,-6,-356,-76,-149,-122,-210,-255
-85,-36,34,26,-66,-6,-284,-82,-155,-122,-210,-255
-79,-42,28,32,-60,-6,-206,-88,-155,-128,-216,-255
-79,-42,28,32,-60,-6,-164,-94,-161,-134,-216,-255
-79,-42,28,38,-60,-6,-140,-100,-161,-134,-216,-255
-79,-42,28,38,-60,-6,-128,-106,-161,-140,-216,-255
-79,-42,28,38,-60,-6,-116,-106,-161,-140,-216,-255
-79,-42,28,38,-60,-6,-110,-106,-161,-140,-216,-255
-79,-42,28,38,-60,-6,-104,-112,-161,-140,-216,-255
-79,-42,28,38,-60,-12,-92,-112,-161,-140,-216,-255
-79,-42,28,38,-60,-12,-80,-112,-167,-140,-216,-255
-73,-42,28,38,-60,-12,-68,-112,-167,-146,-216,-255
-73,-42,28,38,-60,-12,-62,-112,-167,-152,-216,-249
-73,-42,28,38,-54,-12,-56,-118,-167,-158,-216,-249
-73,-42,28,38,-54,-12,-50,-124,-167,-164,-216,-249
-73,-42,28,38,-54,-12,-50,-124,-167,-170,-216,-249
-73,-42,22,38,-54,-12,-50,-124,-167,-170,-216,-243
-73,-42,22,38,-54,-12,-50,-130,-173,-170,-216,-237
-73,-42,22,38,-54,-12,-50,-130,-173,-170,-216,-237
-73,-42,22,38,-54,-12,-50,-136,-173,-176,-216,-237
-73,-42,22,38,-54,-12,-50,-136,-173,-182,-216,-237
-73,-42,22,38,-54,-12,-50,-136,-179,-182,-216,-237
-73,-42,22,38,-54,-12,-50,-136,-179,-182,-216,-231
-73,-42,22,38,-54,-12,-50,-142,-179,-182,-216,-231
-73,-42,22,38,-54,-12,-50,-142,-179,-182,-216,-231
-67,-42,22,38,-54,-12,-50,-142,-179,-182,-216,-231
-67,-42,22,38,-54,-12,-56,-142,-185,-182,-216,-231
-61,-42,22,38,-54,-12,-62,-142,-185,-182,-216,-231
-61,-42,22,38,-54,-12,-62,-142,-185,-182,-216,-225
-61,-42,22,38,-54,-12,-62,-142,-185,-182,-216,-225
-61,-42,22,38,-54,-12,-62,-142,-185,-188,-216,-225
-61,-42,22,38,-54,-12,-62,-142,-185,-194,-216,-225
-55,-42,22,38,-48,-12,-56,-142,-185,-194,-216,-219
-55,-42,16,38,-48,-18,-56,-142,-185,-194,-210,-219
-55,-42,16,38,-48,-18,-50,-142,-185,-200,-210,-219
-55,-42,16,38,-48,-18,-50,-142,-185,-206,-210,-219
-55,-42,16,38,-48,-18,-50,-142,-185,-206,-210,-219
-55,-42,16,38,-48,-18,-50,-142,-185,-206,-210,-213
-55,-42,16,38,-48,-18,-50,-142,-185,-212,-210,-213
-55,-42,16,38,-48,-18,-50,-142,-185,-212,-210,-213
-55,-42,16,38,-48,-18,-50,-142,-185,-212,-210,-213
-55,-42,10,38,-48,-18,-50,-148,-185,-218,-210,-207
-55,-42,10,38,-48,-18,-50,-148,-185,-218,-210,-207
-55,-42,10,38,-48,-18,-50,-148,-185,-218,-210,-207
-55,-48,4,38,-48,-18,-50,-148,-185,-218,-210,-201
-55,-54,4,38,-42,-24,-50,-148,-185,-224,-210,-201
-55,-54,4,38,-42,-24,-50,-148,-185,-236,-210,-201
-55,-54,4,38,-42,-24,-50,-148,-185,-242,-210,-201
-55,-54,4,38,-42,-24,-50,-148,-185,-248,-204,-201
-55,-54,4,38,-42,-24,-50,-148,-185,-254,-204,-201
-55,-54,4,38,-42,-24,-50,-148,-185,-254,-204,-201
-55,-54,4,38,-42,-30,-50,-148,-185,-254,-204,-201
-55,-54,4,38,-42,-30,-50,-148,-185,-254,-204,-201
-55,-54,4,38,-42,-30,-50,-148,-185,-254,-204,-201
-55,-60,4,38,-42,-30,-50,-154,-185,-254,-204,-201
-55,-66,-2,38,-36,-36,-50,-154,-185,-254,-198,-201
-55,-66,-7,38,-36,-36,-50,-154,-185,-254,-192,-201
-55,-66,-7,38,-36,-36,-50,-154,-185,-260,-192,-201
-55,-60,-7,38,-36,-36,-50,-154,-185,-266,-192,-201
-55,-54,-2,38,-36,-36,-50,-154,-185,-272,-192,-201
-55,-54,-2,38,-36,-36,-50,-154,-185,-272,-192,-201
-55,-54,-2,44,-36,-36,-50,-154,-185,-272,-186,-201
-55,-60,-7,50,-36,-42,-50,-154,-185,-272,-180,-201
-55,-66,-13,50,-36,-48,-50,-154,-185,-272,-180,-195
-55,-66,-13,50,-30,-48,-50,-154,-185,-272,-180,-195
-55,-72,-13,50,-30,-48,-50,-154,-185,-272,-180,-195
-55,-72,-13,50,-30,-48,-50,-154,-185,-272,-174,-195
-55,-72,-13,50,-30,-48,-50,-154,-185,-272,-174,-195
-55,-78,-19,56,-30,-48,-50,-154,-185,-272,-168,-195
-55,-78,-19,56,-30,-48,-50,-154,-185,-272,-168,-195
-55,-78,-19,56,-30,-48,-50,-154,-185,-272,-168,-195
-55,-78,-19,56,-30,-48,-50,-154,-185,-272,-168,-195
-55,-78,-19,56,-30,-48,-50,-154,-185,-272,-168,-189
-55,-78,-19,56,-30,-48,-50,-154,-185,-272,-168,-189
-55,-78,-19,56,-30,-48,-56,-154,-185,-272,-168,-189
-55,-72,-19,56,-30,-48,-56,-154,-185,-272,-168,-189
-49,-72,-19,56,-30,-48,-56,-154,-185,-272,-162,-189
-43,-72,-19,56,-30,-48,-56,-154,-185,-272,-162,-189
-37,-72,-19,56,-24,-48,-56,-154,-185,-272,-162,-189
-37,-72,-19,56,-24,-48,-56,-154,-185,-272,-162,-189
-37,-72,-25,56,-24,-48,-56,-154,-185,-272,-162,-189
-37,-72,-37,56,-18,-54,-56,-154,-185,-266,-162,-189
-37,-72,-43,56,-12,-60,-56,-154,-185,-260,-162,-189
-37,-72,-49,56,-6,-66,-56,-154,-185,-260,-162,-189
-37,-78,-49,56,-6,-72,-56,-154,-185,-260,-162,-189
-37,-78,-49,56,-1,-72,-56,-160,-185,-260,-162,-189
-37,-78,-49,56,-1,-72,-56,-160,-185,-260,-162,-189
-37,-78,-49,56,-1,-72,-56,-160,-185,-260,-162,-189
-37,-78,-49,56,-1,-72,-62,-160,-185,-260,-162,-189
-37,-78,-49,56,-1,-72,-62,-166,-191,-260,-162,-189
-37,-78,-49,50,-1,-72,-62,-166,-191,-260,-162,-189
-37,-78,-49,50,-1,-72,-62,-166,-191,-260,-162,-189
-37,-78,-49,50,5,-72,-62,-172,-191,-260,-162,-189
-37,-72,-49,50,5,-72,-62,-178,-191,-260,-162,-189
-31,-72,-49,50,5,-72,-62,-178,-197,-260,-156,-189
-31,-72,-55,50,5,-72,-62,-178,-197,-260,-156,-183
-31,-78,-61,50,5,-78,-56,-178,-197,-260,-156,-177
-31,-78,-67,50,5,-78,-50,-178,-197,-260,-156,-177
-31,-78,-67,50,5,-78,-50,-178,-197,-260,-156,-177
-25,-78,-67,50,11,-78,-50,-178,-203,-260,-156,-177
-25,-84,-73,50,17,-84,-44,-178,-203,-260,-150,-177
-25,-84,-73,50,17,-84,-44,-178,-203,-260,-150,-171
-25,-84,-73,50,17,-84,-44,-178,-203,-260,-150,-171
-25,-84,-73,50,17,-84,-44,-178,-203,-260,-150,-171
-25,-84,-73,50,17,-84,-38,-178,-203,-260,-150,-171
-25,-84,-73,50,17,-84,-38,-178,-209,-260,-150,-171
-25,-84,-79,50,17,-84,-38,-178,-209,-260,-150,-165
-25,-84,-79,50,17,-84,-38,-178,-209,-260,-150,-165
-25,-84,-79,50,17,-84,-38,-178,-209,-260,-150,-165
-25,-84,-79,50,17,-84,-38,-178,-209,-260,-150,-165
-25,-84,-79,50,17,-84,-32,-178,-209,-260,-150,-165
-25,-84,-79,50,17,-84,-32,-178,-209,-260,-150,-165
-25,-84,-79,50,17,-84,-32,-178,-209,-260,-150,-165
-25,-84,-79,50,17,-84,-32,-184,-209,-260,-150,-165
-25,-84,-79,50,17,-84,-32,-184,-209,-260,-150,-165
-25,-90,-79,50,17,-90,-26,-184,-209,-260,-150,-159
-25,-90,-85,50,23,-96,-26,-184,-209,-260,-150,-159
-25,-90,-85,50,23,-96,-26,-184,-209,-260,-150,-159
-25,-90,-85,50,23,-96,-26,-184,-209,-260,-150,-159
-25,-90,-85,50,23,-90,-26,-184,-209,-260,-150,-159
-25,-90,-85,50,23,-90,-26,-184,-209,-260,-150,-153
-25,-96,-91,50,23,-96,-26,-184,-209,-260,-144,-147
-25,-96,-91,50,23,-96,-26,-184,-209,-260,-144,-147
-25,-96,-91,50,23,-96,-26,-184,-209,-260,-144,-147
-25,-96,-91,50,23,-96,-26,-184,-209,-260,-144,-147
-25,-96,-91,50,23,-96,-26,-184,-209,-260,-144,-141
-25,-96,-91,50,23,-96,-26,-184,-209,-260,-144,-141
-25,-96,-91,50,23,-96,-26,-184,-209,-260,-138,-141
-25,-96,-91,50,23,-96,-26,-184,-209,-260,-138,-141
-25,-96,-91,50,23,-96,-26,-184,-209,-260,-138,-141
-25,-96,-91,50,23,-96,-26,-184,-209,-260,-132,-141
-19,-96,-91,50,29,-96,-26,-184,-209,-260,-126,-141
-19,-96,-91,50,29,-96,-26,-184,-209,-260,-126,-141
-19,-96,-91,44,29,-96,-26,-184,-209,-260,-126,-141
-19,-90,-85,38,29,-90,-26,-184,-209,-260,-126,-141
-13,-84,-85,32,29,-84,-26,-184,-209,-260,-120,-141
-13,-78,-85,32,29,-84,-26,-184,-209,-260,-114,-135
-7,-78,-85,32,29,-84,-20,-184,-203,-254,-108,-135
-7,-72,-85,32,29,-78,-14,-184,-197,-248,-102,-135
-7,-60,-79,26,29,-72,-14,-184,-197,-248,-102,-135
-1,-48,-73,20,29,-60,-14,-184,-197,-248,-102,-135
-1,-42,-67,20,29,-54,-14,-184,-191,-248,-96,-129
-1,-42,-67,20,29,-54,-14,-184,-191,-248,-96,-123
-1,-42,-67,20,29,-54,-8,-184,-191,-242,-96,-117
-1,-42,-67,20,29,-54,-3,-184,-191,-242,-96,-117
-1,-42,-67,20,29,-54,-3,-184,-191,-242,-96,-117
-1,-42,-67,20,29,-54,-3,-184,-191,-242,-96,-117
4,-42,-67,20,29,-54,-3,-184,-191,-242,-90,-117
10,-42,-67,20,35,-54,-3,-184,-185,-242,-84,-111
16,-42,-67,14,41,-54,-3,-178,-179,-236,-72,-111
22,-36,-67,8,41,-54,-3,-178,-179,-230,-66,-105
28,-24,-67,-4,41,-48,-3,-178,-173,-224,-66,-99
34,-18,-67,-9,47,-48,-3,-178,-173,-218,-60,-93
40,-18,-67,-9,53,-48,-3,-178,-167,-212,-54,-87
46,-18,-67,-15,59,-48,-3,-172,-167,-206,-48,-81
58,-18,-67,-21,59,-48,-8,-172,-161,-206,-42,-81
58,-18,-67,-21,59,-48,-8,-172,-161,-206,-42,-81
58,-18,-67,-21,59,-48,-8,-172,-161,-206,-42,-81
58,-18,-73,-21,59,-48,-8,-172,-161,-206,-42,-81
58,-18,-79,-21,59,-54,-8,-172,-161,-206,-42,-81
58,-18,-85,-21,59,-60,-14,-172,-161,-206,-42,-81
58,-24,-85,-21,59,-66,-14,-172,-161,-206,-42,-81
58,-24,-85,-21,59,-66,-14,-172,-161,-206,-42,-81
58,-24,-85,-21,59,-66,-14,-178,-161,-212,-42,-81
58,-24,-85,-21,59,-66,-14,-184,-161,-218,-48,-81
58,-30,-91,-15,65,-66,-14,-184,-161,-224,-48,-81
58,-42,-103,-15,71,-72,-14,-184,-161,-224,-48,-81
58,-54,-115,-15,77,-84,-20,-184,-161,-224,-48,-81
58,-66,-121,-9,77,-90,-20,-184,-161,-224,-54,-81
58,-72,-121,-9,77,-90,-20,-184,-161,-224,-54,-81
58,-72,-121,-9,77,-90,-20,-184,-167,-230,-54,-81
58,-72,-121,-4,77,-90,-26,-190,-173,-236,-54,-81
58,-72,-121,2,77,-90,-32,-196,-179,-236,-60,-87
52,-72,-121,8,77,-96,-32,-196,-185,-236,-60,-87
40,-78,-121,20,77,-102,-32,-196,-185,-242,-60,-87
28,-84,-121,26,71,-102,-32,-202,-185,-242,-66,-93
16,-84,-115,32,65,-102,-32,-208,-191,-242,-72,-99
10,-90,-115,38,59,-102,-32,-214,-197,-248,-78,-105
4,-96,-115,44,53,-102,-32,-220,-197,-254,-84,-111
-1,-102,-115,44,53,-102,-32,-220,-203,-254,-90,-111
-1,-108,-115,44,53,-108,-32,-220,-203,-254,-90,-111
-1,-108,-115,50,53,-108,-32,-226,-209,-254,-90,-111
-1,-108,-115,50,53,-108,-32,-226,-215,-254,-90,-111
-1,-108,-115,50,53,-108,-32,-226,-215,-254,-90,-111
-1,-108,-115,50,53,-108,-32,-226,-221,-260,-90,-111
-1,-108,-115,50,53,-108,-32,-226,-221,-260,-90,-111
-1,-108,-115,50,53,-108,-32,-226,-221,-260,-90,-111
-1,-108,-109,50,53,-102,-32,-220,-221,-260,-90,-111
-1,-102,-97,50,47,-96,-32,-214,-221,-260,-90,-111
-1,-96,-85,50,41,-90,-32,-208,-215,-254,-90,-111
-1,-90,-79,50,35,-84,-26,-196,-209,-242,-78,-105
-1,-90,-79,50,35,-84,-14,-184,-197,-230,-66,-93
-1,-84,-73,44,29,-78,-8,-172,-185,-212,-54,-87
-1,-72,-61,44,29,-72,3,-160,-173,-194,-42,-81
-1,-66,-55,38,29,-72,15,-148,-161,-182,-30,-75
-1,-60,-49,32,29,-66,27,-136,-149,-170,-18,-69
-1,-48,-37,26,23,-54,33,-118,-137,-158,-12,-63
-1,-36,-31,20,17,-42,45,-94,-113,-134,-6,-57
-1,-30,-25,20,17,-36,63,-70,-83,-110,6,-51
-1,-30,-25,20,17,-36,75,-46,-65,-98,17,-45
-1,-30,-25,20,17,-36,87,-34,-59,-86,29,-39
-1,-30,-25,20,17,-36,99,-22,-53,-80,41,-39
-1,-30,-25,20,17,-36,111,-16,-47,-74,47,-39
4,-30,-37,20,23,-42,123,-4,-41,-68,47,-39
16,-36,-61,14,35,-54,135,13,-35,-68,53,-39
28,-42,-91,14,53,-66,141,25,-23,-68,53,-39
40,-54,-109,14,65,-90,147,43,-11,-68,53,-39
46,-54,-121,8,71,-96,153,61,1,-62,53,-39
52,-54,-127,2,77,-96,165,91,18,-50,59,-39
58,-54,-127,2,83,-96,177,115,36,-38,71,-33
58,-54,-127,2,89,-96,207,139,60,-8,83,-33
58,-54,-127,-4,89,-96,243,181,96,21,113,-33
58,-54,-127,-9,89,-90,285,253,156,81,149,-21
58,-48,-127,-9,89,-84,339,325,228,135,185,-9
58,-48,-127,-9,89,-84,405,409,282,165,209,-3
58,-48,-121,-15,89,-84,459,475,324,201,221,3
58,-48,-115,-15,89,-84,519,541,372,237,233,8
58,-48,-103,-15,83,-78,621,643,450,279,251,20
58,-42,-91,-15,77,-72,729,763,540,351,293,32
52,-42,-85,-15,71,-72,831,865,612,405,335,44
46,-36,-73,-15,65,-66,939,967,696,477,377,56
40,-12,-43,-15,53,-42,1029,1093,780,567,437,86
40,23,-13,-21,29,-6,1137,1231,912,687,515,128
34,53,22,-33,5,35,1269,1423,1086,849,629,170
28,89,76,-45,-24,77,1425,1675,1326,1065,773,254
22,131,142,-63,-54,137,1563,1939,1620,1341,959,356
22,227,214,-105,-84,227,1677,2208,1962,1647,1187,482
34,341,292,-189,-96,317,1743,2471,2321,1977,1427,626
76,479,352,-285,-102,419,1749,2669,2668,2336,1703,782
136,641,448,-393,-114,527,1737,2831,3016,2701,2003,986
202,779,520,-495,-120,641,1677,2969,3364,3079,2308,1172
280,905,556,-591,-120,713,1569,3071,3670,3433,2589,1346
370,1025,592,-711,-120,803,1389,3101,3928,3727,2847,1520
460,1115,610,-795,-108,857,1191,3131,4186,3997,3081,1658
508,1115,598,-813,-66,857,1047,3155,4360,4123,3201,1706
508,1007,484,-789,-24,743,933,3113,4348,4015,3147,1682
484,749,316,-633,17,539,837,2789,3934,3451,2751,1442
370,515,208,-447,35,365,753,2340,3286,2761,2272,1160
196,347,196,-285,23,281,645,1717,2470,2072,1769,890
-25,245,220,-123,-114,263,495,901,1482,1335,1223,590
-229,137,304,32,-258,245,351,163,528,609,629,260
-349,53,340,146,-342,221,219,-322,-149,69,131,-27
-373,29,358,176,-372,215,63,-532,-443,-188,-108,-165
-373,29,364,176,-372,215,-86,-580,-485,-218,-138,-183
-349,41,364,152,-372,215,-212,-598,-491,-224,-138,-183
-307,65,364,122,-360,215,-302,-610,-497,-230,-132,-171
-265,77,364,98,-330,215,-362,-622,-503,-242,-126,-153
-235,77,346,80,-300,215,-398,-628,-509,-260,-126,-141
-205,77,310,68,-264,203,-416,-628,-515,-296,-126,-135
-187,77,268,56,-228,191,-416,-628,-515,-326,-126,-129
-157,77,214,50,-192,155,-374,-598,-515,-338,-126,-129
-145,65,160,50,-150,113,-314,-538,-503,-344,-126,-123
-121,53,124,50,-120,83,-260,-496,-491,-344,-126,-123
-109,41,106,50,-108,71,-218,-466,-479,-344,-126,-123
-97,29,94,50,-96,59,-170,-424,-467,-344,-126,-123
-85,17,76,50,-84,47,-128,-382,-449,-344,-126,-123
-79,-1,58,50,-72,35,-98,-346,-431,-344,-126,-123
-73,-18,46,50,-60,23,-80,-316,-419,-344,-120,-123
-67,-30,22,50,-42,-6,-68,-298,-407,-344,-120,-117
-61,-42,-2,50,-30,-18,-50,-286,-395,-344,-120,-117
-49,-48,-13,50,-18,-30,-38,-280,-389,-344,-120,-117
-43,-48,-19,50,-12,-36,-32,-280,-383,-344,-120,-117
-37,-48,-31,50,-6,-42,-26,-280,-383,-344,-120,-117
-37,-60,-43,50,-1,-54,-20,-274,-383,-344,-114,-111
-31,-66,-55,50,5,-60,-20,-268,-383,-344,-114,-105
-25,-66,-55,50,5,-60,-20,-268,-383,-344,-114,-105
-25,-66,-55,50,5,-60,-20,-262,-377,-344,-114,-105
-19,-72,-55,50,5,-60,-14,-262,-371,-344,-114,-105
-19,-72,-55,50,5,-60,-14,-262,-371,-344,-114,-105
-19,-66,-55,44,11,-60,-14,-262,-371,-344,-114,-105
-13,-60,-55,44,17,-60,-14,-262,-371,-344,-114,-105
-13,-60,-55,44,23,-60,-14,-262,-371,-344,-114,-105
-13,-60,-61,44,23,-66,-14,-256,-371,-344,-114,-99
-7,-66,-67,44,23,-72,-8,-256,-371,-338,-114,-99
-7,-72,-73,44,23,-78,-8,-256,-371,-338,-114,-93
-7,-72,-73,44,23,-78,-8,-250,-371,-338,-114,-93
-7,-72,-73,44,23,-78,-8,-250,-371,-332,-114,-93
-7,-72,-73,44,23,-78,-3,-250,-371,-326,-108,-93
-7,-72,-79,44,29,-78,-3,-250,-371,-320,-108,-87
-7,-72,-79,44,35,-78,-3,-244,-371,-320,-108,-87
-1,-72,-79,44,35,-78,-3,-244,-371,-320,-108,-87
-1,-66,-79,38,35,-72,-3,-244,-371,-320,-108,-87
4,-66,-79,38,35,-72,-3,-238,-371,-314,-108,-87
4,-66,-79,38,35,-72,-3,-232,-371,-314,-102,-87
4,-66,-79,38,35,-72,-3,-226,-371,-314,-102,-81
4,-66,-85,38,35,-78,-3,-220,-371,-314,-102,-81
4,-66,-85,38,35,-78,-3,-214,-371,-314,-102,-81
4,-66,-85,38,35,-78,-3,-214,-371,-308,-102,-75
4,-66,-85,38,35,-78,-3,-208,-371,-308,-96,-75
4,-66,-85,38,35,-78,-3,-208,-371,-302,-96,-69
4,-66,-85,38,35,-78,-3,-208,-371,-296,-90,-69
4,-66,-85,38,35,-78,3,-202,-365,-290,-90,-69
4,-66,-85,38,35,-78,3,-202,-365,-290,-90,-63
10,-66,-85,32,35,-78,3,-196,-365,-284,-90,-57
10,-60,-85,26,35,-78,3,-196,-365,-284,-90,-57
16,-60,-85,26,35,-78,3,-196,-365,-278,-90,-57
16,-60,-85,26,35,-78,9,-196,-365,-278,-84,-51
22,-60,-85,26,35,-78,15,-196,-365,-272,-78,-45
22,-60,-85,20,35,-78,15,-190,-359,-272,-72,-39
22,-54,-85,14,35,-72,15,-190,-353,-272,-72,-39
22,-54,-85,14,35,-72,15,-184,-353,-272,-72,-33
22,-54,-85,14,41,-72,21,-184,-353,-272,-72,-27
28,-54,-85,14,41,-72,21,-184,-353,-272,-72,-27
28,-54,-85,14,41,-72,21,-178,-353,-266,-66,-27
28,-54,-85,14,41,-72,21,-172,-353,-266,-66,-27
28,-54,-85,14,41,-72,21,-172,-353,-266,-66,-27
28,-54,-85,14,41,-72,21,-166,-347,-260,-60,-21
28,-54,-85,14,41,-72,21,-166,-341,-254,-54,-15
28,-48,-85,8,41,-66,21,-160,-335,-254,-54,-9
34,-36,-79,2,41,-60,21,-160,-335,-254,-54,-3
40,-30,-73,-4,41,-54,21,-154,-329,-254,-54,3
40,-24,-67,-9,41,-48,21,-154,-323,-248,-48,8
40,-18,-67,-15,41,-42,21,-154,-323,-248,-42,14
40,-12,-67,-15,41,-42,21,-154,-323,-248,-36,20
40,-12,-67,-15,41,-42,21,-148,-317,-242,-36,26
46,-12,-67,-15,41,-36,21,-142,-311,-236,-36,26
46,-6,-67,-21,41,-30,21,-136,-305,-236,-36,32
46,-1,-67,-27,41,-24,21,-130,-305,-236,-30,32
46,5,-67,-27,41,-24,21,-124,-299,-230,-24,38
46,5,-67,-33,41,-24,21,-112,-287,-224,-12,50
46,5,-67,-33,41,-24,21,-100,-281,-212,0,62
46,11,-67,-39,41,-18,21,-94,-275,-206,6,68
52,17,-61,-39,41,-12,21,-88,-269,-200,11,68
52,23,-55,-45,41,-6,27,-82,-263,-194,17,74
52,29,-49,-51,41,-1,33,-76,-257,-194,23,80
52,35,-43,-51,41,5,39,-70,-251,-188,23,80
52,41,-37,-51,41,11,39,-64,-245,-182,29,86
52,47,-31,-57,41,17,45,-58,-239,-176,35,92
52,53,-25,-57,41,17,51,-46,-227,-170,47,104
58,53,-25,-63,41,17,57,-34,-215,-158,59,116
64,53,-25,-63,41,17,63,-22,-203,-134,65,122
64,59,-19,-69,41,23,69,-10,-185,-122,71,128
64,71,-13,-75,41,29,75,-4,-179,-116,77,134
64,77,-2,-81,41,41,75,1,-167,-104,83,140
64,83,4,-87,41,47,81,13,-155,-98,89,146
64,89,10,-87,41,53,87,19,-143,-86,95,152
70,95,10,-87,41,53,93,31,-131,-80,101,158
70,101,16,-87,41,59,99,43,-119,-68,107,158
70,101,16,-87,41,59,105,55,-107,-56,119,164
70,101,22,-87,35,65,111,67,-95,-44,131,170
70,107,28,-93,29,71,117,73,-83,-32,137,176
70,113,28,-93,23,71,123,85,-65,-14,143,182
70,113,28,-93,23,71,135,103,-53,-2,155,188
70,113,28,-93,23,71,147,121,-41,15,161,194
70,113,28,-93,23,71,153,133,-29,27,167,200
70,113,28,-93,23,71,159,139,-17,39,173,206
70,119,34,-93,17,77,159,151,-5,45,173,206
70,125,40,-93,17,83,165,163,6,57,173,206
70,125,46,-93,17,83,171,169,18,69,179,206
70,125,52,-93,17,89,171,175,30,81,185,206
70,125,52,-93,17,89,177,181,48,93,191,206
70,131,52,-93,11,89,183,193,60,105,197,206
70,131,58,-93,5,89,183,205,72,111,203,206
70,131,58,-93,5,89,183,217,84,117,203,206
70,131,58,-93,5,89,183,229,96,123,203,206
70,125,58,-93,5,89,183,235,102,129,203,206
70,125,58,-93,5,89,189,241,108,135,203,206
70,125,58,-93,5,89,189,241,108,135,203,206
70,113,52,-93,5,83,189,247,114,135,203,206
70,101,40,-93,11,71,189,247,114,135,203,206
70,89,28,-87,11,59,189,247,114,135,203,206
70,83,22,-87,11,53,189,247,114,135,197,200
70,77,16,-81,11,47,189,247,108,129,191,194
70,71,10,-75,11,41,183,247,102,129,185,188
70,65,10,-69,11,35,177,247,96,123,173,176
64,59,10,-69,11,29,165,241,84,111,161,164
58,53,4,-63,11,23,153,235,72,99,149,158
58,41,-2,-57,11,17,147,223,60,81,137,146
58,29,-7,-51,11,5,141,211,36,57,125,134
52,23,-13,-45,11,-1,129,193,12,39,107,122
52,17,-19,-39,11,-6,117,181,1,27,95,110
52,5,-31,-27,17,-18,111,169,-11,21,83,104
46,-18,-49,-15,23,-36,105,157,-23,15,71,92
40,-30,-55,-4,29,-48,99,145,-41,9,59,86
40,-42,-61,2,35,-54,93,133,-53,-2,47,80
40,-48,-67,8,41,-60,87,121,-71,-14,35,68
34,-48,-67,8,41,-60,75,109,-89,-26,23,56
28,-48,-67,8,41,-60,69,97,-107,-44,6,44
28,-54,-67,8,41,-66,63,85,-119,-62,-6,38
28,-60,-73,14,41,-72,57,73,-125,-74,-12,32
22,-66,-73,14,41,-72,51,67,-131,-80,-18,26
22,-66,-73,14,41,-72,51,61,-143,-86,-24,20
22,-72,-73,20,41,-78,45,55,-149,-86,-30,14
16,-78,-79,26,41,-78,45,55,-155,-92,-36,14
16,-84,-79,32,41,-78,45,49,-161,-92,-42,8
16,-90,-79,38,41,-84,45,43,-167,-98,-48,3
16,-96,-85,44,41,-90,45,37,-173,-104,-54,3
16,-102,-97,50,41,-96,45,37,-179,-104,-54,3
10,-108,-97,50,41,-102,45,31,-179,-104,-60,3
10,-108,-97,50,41,-102,45,25,-185,-110,-66,-3
10,-108,-97,50,41,-102,45,19,-185,-110,-72,-3
4,-108,-97,50,41,-102,45,19,-185,-116,-72,-3
-1,-108,-97,50,41,-102,45,19,-185,-116,-72,-3
-1,-108,-97,50,41,-102,45,19,-185,-116,-78,-3
-1,-108,-97,50,41,-102,45,19,-185,-116,-78,-3
-1,-108,-97,50,41,-102,39,19,-185,-116,-84,-3
-1,-108,-97,50,41,-102,39,19,-185,-116,-84,-3
-1,-114,-97,50,41,-102,39,19,-185,-116,-84,-3
-1,-114,-97,50,41,-102,39,19,-185,-116,-84,-3
-1,-114,-97,50,41,-102,39,19,-185,-116,-84,-3
-1,-114,-97,50,41,-102,39,19,-185,-116,-84,-3
-1,-114,-97,50,41,-102,39,19,-185,-116,-84,-3
-1,-114,-97,50,41,-102,33,13,-191,-116,-90,-3
-1,-114,-97,50,41,-102,33,13,-191,-116,-90,-3
-1,-114,-97,50,41,-102,33,13,-191,-116,-90,-3
-1,-114,-97,50,41,-102,33,13,-191,-116,-90,-3
-1,-114,-97,50,41,-102,33,13,-191,-116,-90,-3
-1,-120,-103,50,41,-108,33,13,-191,-116,-90,-3
-1,-120,-103,50,41,-108,33,13,-191,-116,-90,-3
-1,-120,-103,50,41,-108,33,7,-197,-116,-90,-3
-1,-120,-103,50,41,-108,33,7,-197,-116,-90,-3
-1,-120,-103,50,41,-108,27,7,-197,-116,-90,-3
-1,-120,-103,50,41,-108,27,7,-197,-116,-90,-3
-1,-120,-103,50,41,-108,27,7,-197,-116,-90,-3
-1,-120,-103,50,41,-108,27,7,-197,-116,-90,-3
-1,-120,-103,50,41,-108,27,7,-197,-116,-90,-3
-1,-114,-91,50,41,-102,21,1,-197,-116,-96,-3
-1,-102,-79,50,35,-90,21,-4,-203,-116,-96,-3
-1,-102,-79,50,35,-90,21,-4,-203,-116,-96,-3
-1,-108,-79,50,35,-96,21,-4,-203,-116,-96,-3
-1,-114,-85,56,35,-102,21,-4,-203,-116,-96,-3
-1,-114,-85,56,35,-102,21,-4,-203,-116,-96,-3
-1,-114,-85,56,35,-102,21,-4,-203,-116,-96,-3
-1,-114,-85,56,35,-102,21,-4,-203,-116,-96,-3
-1,-114,-85,56,35,-102,21,-4,-203,-116,-96,-3
-1,-114,-85,56,35,-102,21,-4,-203,-116,-96,-3
-7,-114,-85,56,35,-108,21,-4,-203,-110,-96,-3
-7,-114,-85,56,35,-108,21,-4,-203,-110,-96,3
-7,-114,-85,56,35,-102,21,-4,-203,-110,-96,3
-7,-108,-79,56,29,-90,15,-4,-203,-110,-96,3
-7,-102,-73,56,29,-84,15,-10,-203,-110,-96,3
-7,-102,-73,56,29,-84,15,-10,-203,-110,-96,3
-7,-102,-73,56,29,-84,21,-10,-203,-110,-96,8
-7,-102,-79,56,29,-90,27,-10,-203,-110,-96,8
-7,-102,-79,56,29,-90,33,-16,-203,-104,-96,8
-7,-102,-79,56,29,-90,33,-22,-203,-104,-96,8
-7,-96,-79,56,29,-90,33,-28,-203,-104,-96,8
-7,-96,-73,56,29,-84,33,-28,-203,-104,-96,8
-7,-96,-73,56,29,-84,33,-34,-203,-104,-96,8
-7,-96,-73,56,29,-84,33,-40,-203,-104,-96,8
-7,-96,-73,56,29,-84,33,-40,-203,-104,-96,14
-7,-96,-73,56,29,-84,33,-40,-203,-104,-96,14
-7,-96,-73,56,29,-84,39,-40,-203,-104,-96,14
-7,-96,-73,56,29,-84,39,-46,-203,-104,-96,14
-7,-96,-73,56,29,-84,39,-46,-203,-104,-96,14
-7,-96,-73,56,29,-84,39,-46,-203,-104,-96,14
-7,-96,-73,56,29,-84,39,-46,-203,-104,-96,14
-7,-96,-73,56,29,-84,39,-46,-203,-110,-96,20
-7,-96,-73,56,29,-84,39,-46,-203,-116,-96,20
-7,-96,-73,56,29,-84,39,-52,-203,-122,-96,20
-7,-96,-73,56,29,-84,39,-58,-203,-128,-96,20
-7,-96,-73,56,29,-84,39,-58,-203,-128,-96,20
-7,-96,-73,56,29,-84,39,-58,-203,-128,-96,20
-7,-96,-73,56,29,-84,39,-58,-203,-128,-96,20
-7,-96,-73,56,29,-84,39,-64,-203,-128,-96,20
-7,-96,-73,56,29,-84,39,-64,-203,-128,-96,20
-7,-102,-79,56,29,-90,39,-64,-203,-128,-96,20
-7,-108,-79,56,29,-90,39,-64,-203,-128,-96,20
-7,-108,-79,56,29,-90,39,-64,-203,-134,-102,20
-7,-108,-79,56,29,-90,39,-64,-203,-140,-102,20
-7,-108,-79,56,29,-90,39,-64,-203,-152,-102,20
-7,-108,-79,56,29,-90,39,-64,-203,-164,-102,20
-7,-108,-79,56,29,-90,39,-64,-203,-170,-102,20
-7,-108,-85,56,35,-96,39,-64,-203,-176,-102,20
-7,-108,-91,56,35,-96,39,-64,-203,-182,-102,20
-7,-108,-91,56,35,-96,39,-64,-203,-188,-102,20
-7,-108,-91,56,35,-96,39,-64,-203,-194,-102,20
-7,-108,-91,56,35,-96,39,-64,-203,-200,-102,20
-7,-108,-91,56,35,-96,39,-64,-203,-200,-102,20
-7,-108,-91,56,41,-102,39,-64,-203,-206,-102,20
-7,-114,-97,56,47,-108,39,-64,-203,-230,-102,20
-7,-120,-103,56,47,-114,39,-64,-203,-272,-108,20
-7,-120,-103,56,47,-114,39,-64,-203,-296,-108,20
-7,-120,-103,56,47,-114,39,-64,-203,-302,-114,20
-7,-120,-103,56,47,-114,39,-64,-203,-308,-114,20
-7,-120,-103,56,47,-114,39,-64,-203,-314,-114,20
-7,-120,-103,56,47,-114,39,-70,-203,-320,-114,20
-7,-120,-103,56,47,-114,39,-76,-203,-320,-114,20
-7,-120,-103,56,47,-114,39,-76,-203,-320,-114,20
-7,-120,-103,56,47,-114,39,-76,-203,-320,-114,20
-7,-120,-103,56,47,-114,39,-76,-203,-320,-114,20
-7,-120,-103,56,47,-114,39,-76,-203,-320,-114,20
-7,-120,-103,56,47,-114,39,-76,-203,-320,-114,20
-7,-120,-103,56,47,-114,39,-76,-203,-320,-114,20
-7,-120,-103,56,47,-114,39,-76,-203,-320,-114,20
-7,-120,-103,56,47,-114,39,-76,-203,-320,-114,20
-7,-120,-103,56,47,-120,39,-76,-203,-320,-114,20
-7,-126,-103,56,47,-120,39,-76,-203,-320,-114,20
-7,-126,-103,56,47,-120,39,-82,-203,-320,-114,20
-7,-126,-103,56,47,-120,39,-82,-203,-320,-114,20
-7,-126,-103,56,47,-120,39,-82,-203,-320,-114,20
-7,-126,-103,56,47,-120,39,-82,-203,-320,-114,20
-7,-126,-103,56,47,-120,39,-82,-203,-320,-114,20
-7,-126,-103,56,47,-120,39,-82,-203,-314,-114,20
-7,-126,-103,56,47,-120,39,-82,-203,-314,-114,20
-7,-126,-103,56,47,-120,33,-82,-203,-314,-120,20
-7,-126,-103,56,47,-120,33,-88,-203,-314,-120,14
-7,-126,-103,56,47,-120,33,-88,-203,-314,-120,14
-7,-126,-103,56,47,-120,33,-94,-203,-314,-120,14
-7,-126,-103,56,47,-120,33,-94,-203,-308,-120,14
-7,-126,-103,56,47,-120,33,-94,-203,-302,-120,14
-7,-126,-103,56,47,-120,33,-94,-203,-302,-120,14
-7,-126,-103,56,47,-120,33,-94,-203,-302,-120,14
-7,-126,-103,56,47,-120,33,-94,-203,-302,-120,14
-7,-126,-103,56,47,-120,33,-94,-203,-302,-120,14
-7,-126,-103,56,47,-120,33,-94,-203,-296,-120,14
-7,-126,-109,56,47,-126,33,-100,-203,-290,-120,14
-7,-126,-109,56,47,-126,33,-100,-203,-290,-120,14
-7,-126,-109,56,47,-126,33,-100,-203,-284,-120,14
-7,-132,-109,56,47,-126,33,-100,-203,-278,-120,14
-7,-132,-109,56,47,-126,33,-100,-203,-278,-120,14
-7,-132,-109,56,47,-126,33,-100,-203,-278,-120,14
-7,-132,-109,56,47,-126,33,-100,-203,-278,-120,14
-7,-132,-109,56,47,-126,33,-100,-203,-278,-120,14
-7,-132,-115,56,47,-126,33,-100,-203,-272,-120,14
-7,-132,-115,56,47,-126,33,-100,-203,-266,-120,14
-7,-132,-115,56,47,-126,33,-100,-203,-266,-120,14
-7,-132,-115,56,47,-126,33,-100,-203,-266,-120,14
-7,-132,-115,56,47,-126,33,-100,-203,-266,-120,14
-7,-132,-115,56,47,-126,33,-100,-203,-266,-120,14
-7,-132,-115,56,47,-126,33,-100,-203,-266,-120,14
-7,-132,-115,56,47,-126,33,-100,-203,-266,-120,8
-7,-132,-115,56,47,-126,33,-100,-203,-266,-120,8
-7,-132,-115,56,47,-126,33,-100,-203,-266,-120,8
-7,-132,-115,56,47,-126,33,-106,-203,-260,-126,8
-7,-132,-115,56,47,-126,33,-106,-203,-260,-126,8
-7,-132,-115,56,47,-126,33,-106,-203,-260,-126,8
-7,-132,-115,56,47,-126,33,-106,-203,-260,-132,3
-7,-132,-115,56,47,-126,33,-106,-203,-260,-132,3
-7,-132,-115,56,47,-126,33,-106,-203,-260,-132,3
-7,-132,-115,56,47,-126,33,-106,-203,-260,-132,-3
-7,-132,-115,56,47,-126,33,-106,-203,-260,-132,-9
-7,-138,-115,56,47,-132,33,-106,-203,-260,-132,-9
-7,-144,-121,56,47,-138,33,-106,-203,-254,-132,-9
-7,-150,-121,56,47,-138,33,-106,-203,-248,-132,-9
-7,-150,-121,56,47,-138,33,-106,-203,-248,-132,-9
-7,-144,-115,56,47,-132,33,-106,-203,-248,-132,-9
-7,-144,-115,56,47,-132,33,-106,-203,-248,-132,-9
-7,-144,-115,56,47,-132,33,-106,-203,-248,-132,-9
-7,-144,-115,56,47,-132,33,-106,-203,-248,-132,-9
-7,-144,-115,56,47,-132,33,-106,-203,-248,-132,-9
-7,-138,-109,56,47,-126,27,-112,-203,-248,-132,-9
-7,-132,-103,56,41,-120,21,-112,-203,-248,-138,-9
-7,-132,-103,56,41,-120,15,-112,-209,-248,-138,-9
-7,-132,-103,56,41,-120,15,-112,-209,-248,-138,-9
-7,-132,-103,56,41,-120,15,-112,-209,-248,-138,-9
-7,-132,-103,56,41,-120,15,-112,-209,-248,-138,-9
-7,-126,-103,56,41,-120,15,-112,-209,-248,-138,-9
-7,-126,-103,56,41,-120,15,-112,-209,-248,-138,-9
-7,-126,-103,56,41,-120,9,-112,-209,-248,-138,-9
-7,-126,-103,56,41,-120,9,-112,-209,-248,-138,-9
-7,-126,-103,56,41,-120,9,-112,-209,-248,-138,-9
-7,-126,-103,56,41,-120,9,-112,-209,-248,-138,-9
-7,-126,-103,56,41,-120,9,-112,-209,-248,-144,-9
-7,-126,-97,56,41,-120,9,-112,-209,-248,-144,-9
-7,-126,-97,56,41,-120,9,-112,-209,-248,-144,-15
-7,-120,-97,56,41,-120,9,-112,-209,-248,-144,-15
-7,-114,-97,50,41,-120,9,-112,-209,-248,-144,-15
-7,-108,-97,44,41,-114,9,-112,-209,-248,-144,-15
-7,-96,-91,38,41,-96,9,-112,-209,-248,-144,-15
-7,-84,-79,32,41,-84,9,-112,-209,-248,-144,-15
-7,-84,-79,32,41,-84,9,-106,-203,-242,-144,-15
-7,-84,-79,32,41,-84,9,-100,-197,-236,-144,-15
-7,-84,-85,32,41,-90,9,-94,-197,-230,-144,-15
-7,-84,-85,32,41,-90,9,-94,-191,-230,-138,-15
-7,-78,-85,26,41,-90,9,-94,-191,-230,-138,-15
-7,-78,-79,26,41,-84,9,-94,-191,-224,-138,-15
-7,-78,-79,26,41,-84,9,-94,-191,-224,-138,-15
-7,-78,-79,26,41,-84,9,-94,-191,-224,-138,-15
-7,-78,-79,26,41,-84,9,-94,-191,-224,-138,-15
-7,-78,-79,26,41,-84,9,-94,-191,-218,-138,-15
-7,-78,-79,26,41,-84,9,-94,-191,-218,-138,-15
-1,-72,-79,20,41,-84,9,-94,-185,-212,-138,-15
4,-42,-67,8,41,-60,9,-94,-185,-212,-138,-15
10,-12,-49,-9,41,-36,3,-94,-185,-212,-138,-15
16,-6,-43,-21,41,-30,-3,-94,-185,-206,-132,-15
22,-1,-37,-27,41,-24,-8,-94,-179,-206,-132,-15
28,-1,-37,-33,41,-24,-20,-94,-173,-200,-132,-15
34,-1,-37,-33,41,-24,-26,-94,-173,-194,-126,-9
34,5,-37,-39,41,-24,-32,-94,-173,-188,-126,-9
34,5,-37,-45,41,-24,-32,-94,-173,-188,-126,-9
34,11,-37,-45,41,-18,-32,-94,-173,-188,-126,-9
34,17,-31,-45,41,-12,-38,-94,-173,-188,-126,-9
34,23,-25,-45,41,-6,-44,-94,-173,-188,-126,-9
34,23,-25,-45,41,-6,-44,-94,-173,-188,-126,-9
34,11,-37,-45,41,-18,-44,-94,-173,-188,-126,-9
34,-6,-49,-39,41,-30,-44,-94,-173,-188,-126,-9
34,-12,-55,-39,41,-36,-50,-100,-179,-194,-132,-9
34,-12,-55,-39,41,-36,-56,-106,-185,-200,-138,-15
34,-12,-55,-39,41,-36,-62,-112,-191,-206,-138,-15
34,-12,-55,-39,41,-36,-62,-112,-197,-206,-144,-15
34,-12,-55,-39,41,-36,-62,-112,-197,-206,-144,-21
34,-12,-55,-33,41,-36,-62,-118,-197,-206,-150,-27
34,-18,-55,-27,41,-36,-62,-124,-197,-212,-150,-27
34,-18,-55,-27,41,-36,-62,-124,-197,-212,-156,-27
34,-18,-55,-27,41,-36,-62,-130,-203,-212,-162,-33
28,-24,-55,-21,41,-36,-68,-136,-209,-212,-168,-39
22,-24,-55,-15,41,-36,-68,-142,-221,-212,-174,-45
10,-24,-49,-9,35,-36,-68,-148,-227,-218,-180,-51
-1,-24,-43,-4,23,-36,-68,-148,-233,-218,-186,-63
-7,-30,-37,2,17,-36,-68,-154,-239,-218,-192,-75
-13,-30,-31,8,17,-36,-74,-160,-239,-224,-198,-87
-19,-30,-25,8,11,-36,-80,-166,-245,-224,-204,-93
-19,-30,-19,8,11,-36,-80,-172,-251,-224,-204,-99
-19,-36,-19,8,11,-36,-80,-172,-251,-224,-204,-105
-19,-42,-19,14,11,-36,-80,-178,-251,-224,-204,-111
-25,-42,-19,14,5,-36,-86,-184,-257,-224,-210,-117
-25,-42,-13,14,-1,-36,-86,-184,-257,-224,-210,-123
-25,-42,-13,14,-1,-36,-86,-184,-263,-224,-210,-123
-25,-42,-7,14,-1,-36,-86,-184,-263,-224,-210,-123
-25,-36,-2,14,-6,-30,-86,-184,-263,-224,-210,-123
-25,-36,4,14,-6,-24,-86,-184,-257,-218,-210,-123
-25,-36,4,14,-6,-24,-80,-178,-245,-206,-204,-123
-25,-30,10,14,-6,-18,-74,-166,-233,-182,-198,-123
-25,-18,16,14,-6,-6,-68,-154,-227,-170,-186,-117
-25,-6,22,14,-6,-1,-68,-148,-215,-158,-174,-117
-25,5,28,8,-12,5,-62,-136,-203,-146,-168,-111
-25,11,34,2,-18,11,-56,-112,-191,-134,-156,-105
-25,11,34,2,-18,11,-50,-94,-179,-122,-144,-99
-25,11,40,-4,-24,17,-38,-82,-161,-110,-138,-93
-25,17,46,-4,-30,23,-26,-64,-131,-98,-132,-93
-25,23,52,-4,-30,29,-14,-40,-101,-74,-120,-87
-25,29,58,-9,-30,35,3,-22,-83,-44,-108,-81
-25,35,58,-15,-30,41,15,-4,-53,-26,-96,-81
-25,35,58,-15,-30,41,21,7,-41,-20,-90,-81
-25,35,58,-15,-30,41,27,25,-29,-8,-90,-81
-19,35,46,-15,-30,41,39,37,-17,-2,-84,-81
-13,35,34,-21,-24,35,45,49,-5,4,-84,-81
-1,35,22,-27,-12,29,51,61,6,9,-84,-81
10,35,10,-33,-1,23,57,73,12,9,-84,-81
22,35,-2,-33,11,17,69,85,24,15,-84,-81
28,35,-7,-33,17,11,81,103,54,27,-78,-81
34,29,-19,-33,23,5,93,133,84,57,-72,-81
40,29,-31,-39,35,-6,111,163,120,87,-60,-75
46,29,-37,-39,41,-12,141,205,162,123,-42,-69
46,29,-43,-39,41,-12,183,277,222,171,-12,-51
52,29,-43,-45,41,-12,243,349,288,231,29,-33
52,29,-43,-45,41,-12,303,427,360,267,59,-21
52,29,-43,-45,41,-12,357,499,420,303,89,-9
52,29,-43,-45,41,-12,417,571,474,339,101,-3
52,29,-31,-45,35,-12,495,661,534,387,119,3
52,29,-19,-45,29,-6,597,769,624,447,149,8
46,29,-7,-45,23,5,693,877,696,513,179,14
40,29,-2,-45,23,11,795,985,786,597,215,26
34,35,4,-45,17,23,897,1099,864,669,269,44
34,47,22,-51,5,47,999,1237,984,771,347,80
34,77,52,-57,-6,77,1113,1393,1122,903,437,128
28,113,94,-63,-30,119,1245,1615,1338,1083,557,200
22,161,172,-75,-72,173,1395,1861,1608,1329,731,290
16,257,262,-111,-114,245,1521,2124,1914,1617,923,398
16,341,328,-177,-132,317,1617,2388,2279,1953,1157,524
40,455,388,-261,-144,413,1659,2609,2644,2312,1433,680
82,605,472,-363,-156,533,1659,2759,2986,2677,1727,854
148,761,562,-477,-168,659,1623,2885,3328,3073,2039,1046
220,911,616,-591,-168,779,1515,2987,3652,3439,2332,1238
328,1043,658,-699,-168,863,1377,3047,3952,3781,2625,1424
412,1175,712,-813,-162,947,1197,3065,4216,4099,2901,1604
472,1223,718,-855,-150,977,1023,3083,4450,4327,3105,1718
484,1199,694,-855,-120,941,897,3077,4498,4333,3123,1724
472,959,538,-723,-78,737,807,2843,4312,4009,2919,1598
376,695,394,-543,-54,527,723,2429,3754,3343,2451,1304
226,509,340,-387,-54,413,633,1915,3040,2635,1925,998
34,377,340,-231,-126,377,537,1243,2129,1911,1373,686
-169,263,376,-75,-264,353,399,457,1086,1131,755,356
-343,155,424,68,-384,335,261,-166,222,435,149,8
-409,101,454,140,-426,323,129,-490,-251,21,-240,-225
-415,89,460,146,-432,311,-32,-592,-377,-80,-348,-273
-403,95,460,140,-432,305,-176,-616,-383,-86,-348,-273
-361,113,460,122,-426,305,-290,-628,-383,-86,-342,-261
-331,137,460,92,-414,305,-380,-652,-389,-86,-336,-249
-301,149,460,68,-402,305,-452,-670,-401,-92,-330,-243
-271,149,436,62,-366,293,-482,-682,-407,-104,-330,-237
-259,143,376,56,-318,263,-494,-682,-413,-116,-330,-231
-229,137,334,44,-276,245,-494,-676,-413,-146,-330,-231
-187,125,274,38,-228,215,-458,-628,-413,-158,-330,-225
-163,101,226,32,-186,173,-398,-562,-407,-170,-330,-219
-145,89,196,32,-168,143,-350,-508,-401,-182,-330,-219
-133,83,184,26,-162,137,-308,-466,-389,-188,-330,-219
-121,83,178,26,-156,131,-260,-436,-377,-188,-330,-219
-115,77,166,26,-150,119,-218,-400,-347,-188,-330,-219
-109,65,154,26,-144,107,-188,-364,-329,-188,-330,-219
-103,59,142,26,-132,95,-164,-346,-317,-188,-330,-219
-97,53,130,26,-120,89,-152,-328,-305,-188,-330,-219
-91,47,118,20,-108,83,-140,-322,-299,-188,-330,-219
-85,41,100,20,-96,71,-128,-310,-287,-182,-330,-219
-79,11,70,20,-72,47,-116,-292,-281,-176,-330,-213
-73,-1,46,20,-60,23,-110,-280,-275,-176,-330,-213
-67,-6,34,20,-54,17,-104,-274,-269,-176,-330,-213
-61,-6,34,20,-48,11,-104,-268,-269,-176,-330,-213
-61,-12,34,20,-48,11,-104,-262,-263,-176,-324,-213
-61,-12,34,20,-48,5,-104,-256,-263,-176,-324,-207
-61,-12,34,20,-48,5,-98,-256,-263,-176,-324,-207
-55,-12,34,20,-48,5,-98,-250,-263,-176,-324,-207
-55,-12,34,20,-48,5,-98,-250,-263,-176,-324,-207
-55,-12,34,20,-42,5,-98,-250,-263,-176,-324,-207
-55,-12,34,20,-42,5,-98,-250,-263,-176,-324,-201
-55,-12,34,20,-42,5,-98,-250,-263,-176,-324,-201
-49,-12,34,20,-42,5,-92,-250,-257,-176,-324,-201
-49,-12,28,20,-42,-1,-92,-244,-251,-176,-324,-201
-49,-12,22,20,-42,-1,-92,-238,-245,-176,-324,-201
-49,-12,22,20,-42,-1,-92,-238,-239,-176,-324,-201
-49,-12,22,20,-36,-6,-86,-232,-233,-176,-324,-195
-49,-12,22,20,-30,-6,-80,-232,-233,-176,-318,-195
-43,-12,22,20,-30,-6,-80,-232,-233,-176,-318,-195
-43,-12,22,20,-30,-6,-80,-232,-233,-176,-318,-195
-43,-12,22,20,-30,-6,-80,-232,-233,-170,-318,-189
-43,-12,22,20,-30,-6,-80,-232,-233,-164,-318,-183
-43,-12,22,20,-30,-1,-74,-226,-233,-164,-318,-183
-37,-12,22,14,-30,-1,-74,-226,-233,-164,-318,-183
-37,-12,22,8,-30,-1,-74,-226,-233,-158,-312,-183
-37,-12,22,8,-30,-1,-74,-220,-233,-158,-306,-177
-37,-12,22,8,-30,-1,-74,-214,-233,-158,-300,-171
-37,-12,22,8,-30,-1,-74,-214,-233,-158,-300,-165
-31,-12,22,8,-30,-1,-74,-214,-233,-152,-300,-165
-31,-12,22,2,-30,-1,-74,-214,-227,-146,-300,-165
-31,-12,22,2,-30,5,-74,-214,-227,-146,-294,-165
-31,-12,22,2,-30,5,-74,-208,-227,-146,-288,-165
-31,-6,22,2,-24,5,-74,-202,-221,-146,-282,-159
-25,-1,22,-4,-24,5,-74,-202,-215,-146,-282,-159
-19,5,22,-9,-24,5,-74,-202,-215,-146,-282,-153
-13,5,22,-9,-24,5,-74,-202,-215,-140,-276,-147
-13,5,22,-9,-24,5,-74,-202,-215,-140,-276,-141
-13,11,22,-15,-24,11,-74,-202,-215,-140,-270,-141
-7,11,22,-15,-24,17,-74,-202,-215,-140,-270,-141
-7,11,22,-15,-24,17,-68,-202,-215,-140,-270,-135
-7,11,22,-15,-24,17,-68,-202,-215,-134,-270,-135
-7,11,22,-15,-24,17,-68,-196,-209,-134,-264,-135
-7,11,22,-15,-24,17,-68,-190,-203,-134,-264,-135
-7,11,22,-21,-24,17,-68,-190,-203,-134,-264,-129
-7,17,22,-21,-24,17,-68,-190,-203,-134,-264,-129
-1,17,22,-27,-24,17,-68,-184,-203,-134,-258,-123
-1,17,22,-27,-18,17,-68,-178,-203,-134,-252,-117
4,23,22,-27,-18,17,-68,-178,-203,-134,-246,-105
4,29,28,-33,-18,29,-68,-178,-203,-134,-246,-99
4,35,28,-39,-18,35,-68,-178,-197,-134,-240,-99
4,41,28,-39,-18,41,-62,-178,-191,-134,-234,-93
4,47,34,-39,-18,47,-62,-178,-185,-134,-234,-93
10,59,40,-45,-18,53,-62,-178,-185,-134,-228,-93
10,65,46,-51,-18,53,-56,-172,-179,-134,-222,-93
10,65,46,-51,-18,53,-50,-166,-173,-128,-216,-87
10,65,46,-51,-18,53,-44,-160,-167,-128,-210,-81
10,65,46,-51,-18,53,-44,-154,-161,-122,-204,-75
16,71,46,-51,-18,59,-44,-148,-155,-116,-198,-69
16,77,52,-57,-18,65,-38,-142,-155,-116,-192,-63
22,83,52,-57,-18,65,-38,-136,-155,-110,-186,-57
22,83,58,-57,-18,71,-32,-130,-149,-104,-174,-51
22,89,58,-63,-18,71,-26,-124,-143,-98,-168,-45
22,89,58,-69,-18,71,-20,-118,-131,-92,-156,-39
22,95,58,-75,-18,71,-14,-112,-125,-86,-144,-33
22,101,58,-75,-18,71,-8,-106,-119,-74,-132,-27
28,107,58,-81,-18,71,-8,-94,-113,-68,-114,-27
34,113,64,-87,-18,77,-3,-88,-107,-62,-102,-21
40,119,70,-87,-18,83,-3,-76,-95,-50,-90,-15
40,125,70,-93,-18,89,3,-70,-83,-38,-78,-9
40,125,70,-93,-18,95,9,-58,-71,-20,-66,3
40,125,70,-93,-18,101,15,-46,-59,-2,-42,14
40,125,76,-93,-18,107,21,-34,-47,9,-36,20
40,131,82,-93,-18,107,33,-28,-41,15,-24,26
40,137,88,-93,-18,113,39,-16,-35,21,-12,32
40,143,94,-93,-24,119,51,-10,-29,33,-6,38
40,149,106,-99,-24,125,57,-4,-23,45,0,38
40,155,112,-105,-24,131,63,7,-11,63,11,44
40,155,118,-105,-30,131,69,19,1,81,23,50
40,155,118,-105,-30,137,81,31,12,93,35,56
40,161,124,-105,-30,137,87,43,24,105,41,62
40,167,124,-105,-30,137,99,55,36,117,47,68
40,167,124,-111,-36,137,105,67,48,129,59,68
40,167,124,-111,-36,137,111,79,66,141,71,74
40,167,124,-111,-42,137,117,91,78,153,77,74
40,167,124,-111,-42,137,123,97,90,165,83,80
40,167,124,-111,-42,137,129,109,108,177,89,86
40,167,130,-111,-42,143,135,121,120,195,101,92
40,173,136,-111,-48,149,141,127,132,207,107,92
40,173,142,-111,-48,155,147,133,150,225,113,92
40,173,142,-111,-48,155,153,139,180,237,119,92
40,173,142,-111,-48,155,159,151,198,249,131,98
40,173,142,-111,-48,155,165,163,210,255,137,98
40,173,142,-111,-48,155,171,169,216,261,137,98
40,173,142,-111,-48,155,171,175,222,267,137,98
40,173,142,-111,-48,155,171,181,228,267,143,98
40,173,142,-111,-48,155,171,181,234,267,143,98
40,167,142,-111,-48,149,171,181,234,267,143,98
40,161,142,-111,-48,143,171,181,234,267,143,98
40,161,142,-111,-48,143,171,181,234,267,143,98
40,161,142,-111,-48,143,171,175,234,267,143,98
40,155,136,-105,-48,137,171,169,234,267,143,98
40,137,112,-99,-48,119,171,163,234,267,143,92
34,119,100,-87,-48,107,171,157,228,267,143,86
28,107,94,-81,-48,101,171,145,216,261,131,74
28,101,88,-75,-48,101,165,133,192,249,119,62
28,95,82,-75,-48,95,159,115,168,237,107,50
28,95,82,-75,-48,95,147,97,150,225,83,38
22,95,82,-75,-48,95,135,85,126,213,71,26
16,89,82,-69,-48,89,129,73,114,201,59,14
10,59,64,-51,-42,59,129,61,108,195,53,8
4,35,52,-39,-42,35,123,49,102,189,47,3
4,29,46,-33,-42,29,111,37,90,177,35,-9
-1,29,46,-27,-42,29,99,13,66,165,17,-21
-1,29,46,-27,-42,29,93,1,54,153,6,-27
-1,23,40,-21,-42,23,87,-10,42,135,0,-33
-7,5,28,-9,-36,17,81,-22,24,123,-12,-39
-7,-6,22,-4,-36,11,75,-34,12,111,-18,-45
-13,-12,16,2,-36,5,69,-40,1,99,-24,-51
-13,-18,16,2,-36,5,63,-46,-5,93,-30,-57
-13,-18,16,2,-36,5,57,-58,-11,87,-36,-63
-19,-18,16,2,-36,5,51,-64,-17,81,-48,-69
-19,-18,16,2,-36,-1,51,-70,-23,75,-54,-75
-19,-24,16,8,-36,-6,45,-76,-35,75,-60,-81
-25,-30,16,14,-36,-6,39,-82,-41,69,-66,-87
-25,-30,16,14,-36,-6,39,-88,-47,69,-72,-93
-25,-30,16,14,-36,-6,33,-88,-53,69,-78,-93
-25,-30,16,14,-36,-12,33,-88,-59,69,-84,-93
-25,-30,16,14,-36,-12,27,-94,-65,69,-84,-93
-25,-30,10,14,-36,-12,27,-94,-65,69,-84,-93
-25,-30,10,14,-36,-12,21,-100,-65,69,-84,-93
-25,-36,10,14,-36,-12,21,-100,-65,63,-84,-93
-25,-42,10,14,-36,-18,21,-100,-65,63,-84,-93
-25,-48,4,20,-36,-24,21,-100,-65,63,-84,-93
-25,-48,4,20,-36,-24,21,-106,-65,63,-84,-93
-25,-48,4,20,-36,-24,21,-112,-71,63,-84,-99
-25,-48,4,20,-36,-24,21,-118,-71,63,-84,-99
-25,-48,4,26,-36,-24,21,-118,-71,63,-84,-99
-25,-48,4,32,-36,-24,21,-118,-71,63,-84,-99
-25,-48,-2,32,-36,-24,21,-118,-71,63,-84,-99
-25,-48,-2,32,-36,-24,21,-118,-71,63,-84,-99
-25,-48,-2,32,-36,-24,21,-118,-71,63,-84,-99
-25,-48,-2,32,-36,-24,21,-118,-71,63,-84,-99
-25,-54,-2,32,-36,-30,21,-118,-71,63,-84,-99
-25,-54,-2,32,-36,-30,21,-118,-71,63,-84,-99
-25,-54,-2,32,-36,-30,21,-118,-71,69,-84,-99
-25,-54,-2,32,-36,-30,21,-118,-71,69,-84,-99
-25,-54,-2,32,-36,-30,21,-118,-71,69,-84,-99
-31,-54,-2,32,-36,-30,21,-118,-71,69,-84,-99
-31,-54,-2,32,-36,-30,21,-118,-71,69,-84,-99
-31,-54,-2,32,-36,-30,21,-118,-71,75,-84,-99
-31,-54,-2,32,-36,-30,21,-118,-71,75,-84,-99
-31,-54,-2,32,-36,-30,21,-118,-71,75,-84,-99
-31,-54,-2,32,-36,-30,21,-118,-71,81,-84,-99
-31,-54,-2,32,-36,-30,21,-124,-71,81,-78,-99
-31,-54,-2,32,-36,-30,21,-124,-71,87,-78,-99
-31,-54,-2,32,-36,-30,21,-124,-71,93,-72,-99
-31,-54,-2,32,-36,-30,21,-124,-71,99,-72,-99
-37,-54,-2,32,-36,-30,21,-124,-71,105,-72,-99
-37,-54,-2,32,-36,-30,21,-124,-71,111,-66,-99
-37,-54,-2,38,-36,-30,21,-124,-71,111,-60,-93
-37,-54,-2,38,-36,-30,21,-124,-71,117,-54,-93
-37,-54,-2,38,-36,-30,21,-124,-71,123,-54,-93
-37,-54,-2,38,-36,-30,15,-124,-71,129,-54,-93
-37,-54,-2,38,-36,-30,15,-124,-71,129,-54,-93
-37,-54,-2,38,-36,-30,15,-124,-71,135,-54,-87
-37,-48,4,38,-36,-24,9,-124,-71,135,-54,-87
-37,-48,4,38,-36,-18,9,-124,-71,135,-54,-87
-37,-48,4,38,-36,-18,9,-124,-71,135,-54,-87
-37,-48,4,38,-36,-18,9,-124,-65,141,-54,-87
-37,-48,4,38,-36,-18,9,-124,-65,147,-54,-87
-37,-48,4,38,-36,-18,9,-124,-65,147,-54,-87
-37,-48,4,38,-36,-18,9,-124,-65,147,-54,-87
-37,-48,4,38,-36,-18,9,-124,-65,147,-54,-87
-37,-48,4,38,-36,-18,9,-124,-65,147,-54,-87
-37,-42,4,38,-36,-18,9,-124,-65,147,-54,-87
-37,-42,4,38,-36,-18,9,-124,-65,147,-54,-87
-37,-48,-2,38,-36,-24,9,-124,-59,147,-54,-87
-37,-54,-2,38,-36,-30,9,-124,-59,75,-54,-87
-37,-60,-2,38,-36,-30,9,-124,-59,-26,-54,-87
-37,-60,-2,38,-36,-30,3,-124,-59,-92,-54,-87
-37,-60,-2,38,-36,-30,3,-124,-59,-128,-54,-87
-37,-60,-2,38,-36,-30,3,-124,-59,-158,-54,-87
-37,-60,-2,38,-36,-30,3,-124,-59,-176,-54,-87
-37,-60,-2,38,-36,-30,3,-124,-59,-188,-54,-87
-37,-60,-2,38,-36,-36,3,-124,-59,-200,-54,-87
-37,-60,-2,38,-36,-36,3,-124,-59,-218,-54,-87
-37,-60,-2,38,-36,-36,3,-124,-59,-230,-54,-87
-37,-60,-2,38,-36,-36,3,-124,-59,-236,-54,-87
-37,-60,-2,38,-36,-36,3,-124,-59,-242,-54,-87
-37,-60,-2,38,-36,-36,3,-124,-59,-254,-54,-87
-37,-60,-2,38,-36,-36,3,-124,-59,-260,-54,-87
-37,-60,-2,38,-36,-36,3,-124,-59,-260,-54,-81
-37,-60,-2,38,-36,-36,3,-124,-59,-260,-54,-81
-37,-60,-2,38,-36,-36,3,-124,-59,-266,-54,-81
-37,-60,-2,38,-36,-36,3,-124,-59,-272,-54,-81
-37,-60,-2,38,-36,-36,3,-124,-59,-272,-54,-81
-37,-60,-2,38,-36,-36,3,-124,-59,-278,-54,-81
-37,-60,-2,38,-36,-36,-3,-130,-59,-278,-54,-81
-37,-60,-2,38,-36,-36,-3,-130,-59,-278,-54,-81
-37,-60,-2,38,-36,-36,-3,-130,-59,-278,-54,-81
-37,-60,-2,38,-36,-36,-3,-130,-59,-278,-54,-81
-37,-60,-2,38,-36,-36,-3,-130,-59,-284,-54,-81
-37,-60,-2,38,-36,-36,-8,-130,-59,-284,-54,-81
-37,-60,-2,38,-36,-36,-8,-130,-59,-284,-54,-81
-37,-60,-2,38,-36,-36,-8,-130,-59,-284,-54,-81
-37,-60,-7,38,-36,-42,-8,-130,-59,-290,-54,-81
-37,-60,-13,38,-30,-48,-8,-130,-59,-290,-54,-81
-37,-60,-13,38,-30,-48,-14,-130,-59,-290,-54,-81
-37,-60,-13,38,-30,-48,-14,-130,-59,-296,-54,-81
-37,-60,-13,38,-30,-48,-14,-130,-59,-302,-54,-81
-37,-60,-13,38,-30,-48,-14,-130,-59,-308,-54,-81
-37,-66,-13,38,-30,-48,-14,-130,-59,-308,-54,-81
-37,-66,-13,38,-30,-48,-14,-130,-59,-314,-54,-81
-37,-66,-13,38,-30,-48,-14,-130,-59,-314,-54,-81
-37,-66,-13,38,-30,-48,-14,-130,-59,-314,-54,-81
-37,-66,-19,38,-24,-48,-14,-130,-59,-314,-54,-81
-37,-66,-19,38,-24,-48,-14,-130,-59,-314,-54,-81
-37,-66,-19,38,-24,-48,-14,-130,-59,-314,-54,-81
-37,-66,-19,38,-24,-48,-20,-136,-59,-314,-54,-81
-37,-66,-19,38,-24,-48,-20,-136,-59,-314,-54,-81
-37,-66,-19,38,-24,-48,-26,-142,-59,-320,-60,-81
-37,-66,-13,38,-24,-48,-26,-142,-59,-320,-66,-81
-37,-66,-13,38,-24,-48,-26,-142,-59,-320,-66,-81
-37,-66,-13,38,-24,-48,-26,-142,-59,-320,-66,-81
-37,-66,-13,38,-24,-48,-26,-142,-59,-332,-66,-81
-37,-66,-13,38,-24,-48,-26,-142,-59,-344,-66,-87
-37,-66,-13,38,-24,-48,-26,-148,-59,-350,-66,-87
-37,-66,-13,38,-24,-48,-26,-148,-59,-356,-66,-87
-37,-66,-13,38,-24,-48,-26,-148,-59,-362,-66,-87
-37,-72,-13,38,-24,-54,-26,-148,-59,-362,-66,-87
-37,-72,-19,38,-24,-54,-26,-148,-59,-362,-66,-87
-37,-72,-19,38,-24,-54,-26,-148,-59,-362,-66,-87
-37,-72,-19,38,-24,-54,-26,-148,-59,-362,-66,-87
-37,-72,-19,44,-24,-54,-26,-148,-59,-362,-66,-87
-37,-72,-25,50,-18,-54,-26,-148,-53,-362,-66,-87
-37,-78,-31,50,-18,-54,-26,-148,-53,-362,-66,-87
-37,-78,-31,50,-18,-54,-26,-148,-53,-362,-66,-87
-37,-78,-31,50,-18,-54,-26,-148,-53,-362,-66,-87
-37,-78,-31,50,-18,-54,-26,-148,-53,-362,-66,-87
-37,-78,-31,50,-18,-54,-26,-148,-53,-362,-66,-87
-37,-78,-31,50,-18,-54,-26,-148,-53,-362,-66,-87
-37,-78,-31,50,-18,-54,-26,-148,-53,-362,-66,-87
-37,-78,-31,50,-18,-54,-26,-148,-53,-362,-66,-87
-37,-78,-31,50,-18,-54,-26,-148,-47,-362,-66,-87
-37,-84,-31,50,-18,-54,-26,-148,-41,-362,-66,-87
-43,-84,-31,50,-18,-54,-26,-148,-41,-362,-66,-87
-43,-84,-31,50,-18,-54,-26,-148,-41,-362,-66,-87
-43,-84,-31,50,-18,-54,-26,-148,-41,-362,-66,-87
-43,-84,-31,50,-18,-54,-26,-148,-41,-362,-66,-87
-43,-84,-31,50,-18,-54,-26,-148,-41,-362,-66,-87
-43,-84,-31,50,-18,-54,-32,-148,-41,-362,-66,-87
-43,-84,-31,50,-18,-54,-32,-148,-41,-362,-66,-87
-43,-84,-31,50,-18,-54,-38,-148,-41,-362,-66,-87
-43,-84,-31,50,-18,-54,-38,-148,-41,-362,-66,-87
-43,-84,-31,50,-18,-54,-44,-148,-41,-362,-66,-93
-43,-84,-31,50,-18,-54,-44,-148,-41,-362,-66,-93
-43,-84,-37,50,-18,-60,-44,-148,-41,-356,-66,-93
-43,-84,-43,50,-18,-66,-44,-148,-41,-356,-66,-93
-43,-84,-43,50,-18,-66,-44,-148,-41,-356,-66,-93
-43,-84,-43,50,-18,-66,-44,-148,-41,-356,-66,-93
-43,-90,-49,56,-18,-72,-44,-148,-41,-356,-66,-93
-43,-96,-55,62,-12,-78,-50,-148,-41,-356,-66,-93
-43,-96,-55,62,-12,-78,-50,-148,-41,-356,-66,-93
-43,-96,-55,62,-12,-78,-50,-148,-41,-356,-66,-93
-43,-96,-55,62,-12,-78,-50,-148,-41,-356,-66,-93
-43,-96,-55,62,-12,-78,-56,-148,-41,-356,-66,-93
-43,-96,-55,62,-12,-78,-56,-148,-41,-356,-66,-93
-43,-96,-49,62,-12,-78,-56,-148,-41,-356,-66,-93
-43,-90,-43,62,-12,-72,-62,-148,-41,-356,-66,-93
-43,-90,-37,62,-18,-66,-62,-148,-41,-356,-66,-93
-43,-90,-37,62,-18,-66,-62,-148,-41,-356,-66,-93
-43,-90,-37,62,-18,-66,-62,-148,-41,-350,-66,-93
-43,-90,-37,62,-18,-66,-62,-148,-41,-350,-66,-93
-43,-90,-37,62,-18,-66,-62,-148,-41,-350,-66,-93
-43,-90,-37,62,-18,-66,-62,-148,-35,-350,-66,-93
-43,-90,-37,62,-18,-66,-62,-148,-35,-350,-66,-93
-43,-90,-37,62,-18,-66,-62,-148,-35,-350,-66,-93
-43,-96,-43,62,-18,-72,-62,-148,-29,-344,-66,-93
-43,-102,-43,62,-18,-72,-62,-148,-23,-344,-66,-93
-43,-102,-49,62,-18,-72,-62,-148,-23,-344,-66,-93
-43,-102,-49,62,-18,-72,-62,-148,-23,-338,-66,-93
-43,-96,-49,62,-18,-72,-62,-148,-23,-338,-66,-93
-43,-90,-49,62,-18,-66,-62,-148,-23,-332,-66,-93
-43,-84,-49,62,-18,-60,-62,-148,-23,-326,-66,-93
-43,-78,-43,62,-18,-54,-62,-148,-17,-320,-66,-93
-43,-72,-37,56,-18,-48,-62,-148,-17,-314,-66,-93
-43,-66,-31,50,-18,-48,-62,-148,-17,-314,-66,-93
-43,-66,-31,50,-18,-48,-56,-142,-11,-308,-66,-93
-43,-60,-31,44,-18,-48,-56,-142,-5,-302,-66,-93
-43,-54,-25,38,-18,-42,-56,-142,-5,-302,-66,-93
-43,-48,-19,38,-18,-42,-56,-136,-5,-302,-66,-93
-43,-48,-19,38,-18,-42,-50,-136,1,-302,-66,-93
-43,-48,-19,38,-18,-42,-44,-136,1,-302,-66,-93
-43,-54,-19,38,-18,-42,-44,-136,1,-302,-66,-93
-43,-54,-19,38,-18,-42,-38,-136,1,-302,-66,-93
-43,-54,-19,38,-18,-42,-38,-136,1,-302,-66,-93
-43,-54,-19,38,-18,-42,-38,-136,1,-308,-66,-93
-37,-48,-19,38,-18,-42,-38,-136,6,-314,-66,-93
-37,-42,-19,32,-18,-36,-38,-130,12,-314,-66,-87
-31,-36,-19,20,-18,-30,-38,-130,12,-314,-66,-81
-25,-30,-19,14,-18,-30,-38,-130,18,-314,-60,-75
-13,-24,-19,8,-12,-24,-38,-130,18,-314,-60,-75
-7,-24,-19,2,-6,-24,-44,-130,18,-314,-54,-69
-1,-24,-19,2,-1,-24,-50,-124,18,-314,-48,-63
4,-24,-25,2,5,-24,-50,-124,18,-314,-42,-63
4,-24,-25,2,5,-24,-50,-124,18,-314,-42,-63
4,-24,-31,2,5,-24,-50,-124,24,-314,-42,-63
4,-24,-37,2,11,-30,-50,-124,24,-314,-42,-63
4,-30,-43,2,11,-36,-56,-124,24,-320,-42,-63
4,-30,-43,2,11,-42,-56,-124,24,-320,-42,-63
4,-30,-43,2,11,-42,-56,-124,24,-326,-42,-63
4,-42,-49,8,11,-48,-56,-124,24,-326,-42,-63
4,-66,-61,14,17,-60,-56,-124,24,-326,-42,-63
4,-72,-67,20,17,-60,-56,-124,24,-332,-48,-63
4,-72,-67,20,17,-60,-62,-130,24,-338,-48,-63
4,-72,-67,20,17,-60,-68,-136,18,-344,-48,-63
4,-72,-67,20,17,-60,-74,-142,18,-350,-48,-63
4,-72,-67,20,17,-60,-80,-142,18,-356,-54,-63
4,-72,-67,26,17,-60,-80,-142,18,-356,-54,-63
4,-72,-67,26,17,-66,-80,-148,12,-356,-54,-63
-1,-78,-67,32,17,-72,-80,-154,6,-356,-60,-69
-7,-84,-67,38,17,-78,-80,-160,1,-356,-66,-69
-13,-90,-67,44,17,-78,-80,-160,-5,-362,-72,-75
-19,-90,-67,50,11,-78,-80,-160,-11,-362,-78,-81
-25,-90,-67,56,11,-78,-80,-160,-17,-362,-78,-87
-31,-96,-67,56,11,-78,-80,-160,-23,-362,-84,-93
-37,-102,-67,56,11,-78,-80,-166,-23,-362,-90,-93
-37,-108,-67,62,11,-84,-80,-166,-23,-362,-90,-93
-37,-108,-67,68,11,-84,-80,-172,-23,-368,-90,-99
-37,-108,-67,68,11,-84,-86,-178,-29,-374,-96,-105
-37,-108,-67,68,11,-84,-92,-184,-29,-374,-102,-105
-43,-108,-67,68,5,-84,-92,-190,-35,-374,-102,-105
-43,-108,-67,74,5,-84,-92,-190,-35,-374,-102,-105
-43,-108,-67,74,5,-84,-92,-190,-35,-374,-102,-105
-43,-108,-67,74,-1,-84,-92,-190,-35,-368,-102,-99
-43,-108,-67,74,-1,-84,-92,-184,-35,-362,-102,-93
-43,-108,-61,74,-1,-84,-92,-172,-29,-350,-96,-87
-49,-108,-49,74,-1,-78,-92,-166,-17,-338,-90,-87
-49,-108,-43,74,-6,-78,-92,-160,-5,-320,-78,-87
-49,-108,-43,74,-6,-72,-86,-148,18,-296,-66,-81
-49,-102,-43,74,-6,-66,-80,-136,36,-284,-54,-75
-49,-90,-37,68,-12,-60,-74,-124,48,-272,-48,-63
-49,-78,-25,62,-24,-48,-68,-112,60,-260,-42,-51
-49,-66,-13,56,-30,-30,-62,-100,66,-248,-36,-45
-49,-54,-2,50,-36,-18,-56,-88,78,-230,-30,-39
-49,-42,10,44,-42,-6,-44,-64,90,-200,-18,-33
-49,-42,10,44,-42,-1,-32,-34,120,-176,-6,-27
-49,-36,16,44,-42,-1,-20,-10,150,-146,11,-27
-49,-30,22,38,-42,5,-14,1,168,-134,23,-27
-49,-30,22,38,-42,5,-3,13,186,-116,29,-27
-43,-30,16,38,-36,5,9,25,198,-104,41,-21
-37,-36,-2,38,-24,-6,21,37,210,-92,53,-15
-25,-42,-31,38,-12,-24,27,55,222,-86,59,-9
-13,-42,-43,32,-1,-30,33,67,234,-80,59,-9
-7,-42,-49,26,5,-36,39,85,246,-80,59,-9
-1,-48,-55,26,17,-48,51,109,258,-74,65,-9
4,-54,-67,26,29,-60,63,139,282,-62,77,-9
10,-60,-73,26,35,-66,87,169,312,-38,89,-9
16,-60,-79,26,41,-66,111,199,342,-20,101,-3
16,-54,-79,20,41,-66,141,229,384,9,125,3
16,-48,-73,14,41,-60,171,289,444,57,161,14
16,-42,-73,8,41,-54,231,367,510,123,203,38
16,-42,-73,8,41,-54,297,457,588,183,239,50
22,-48,-79,8,41,-60,363,529,654,225,269,62
22,-48,-79,8,41,-60,429,625,708,267,299,74
22,-48,-79,8,41,-60,507,709,780,321,329,80
22,-42,-73,8,35,-54,597,823,852,381,359,92
22,-30,-49,8,29,-42,687,919,942,447,389,104
16,-18,-19,8,17,-18,789,1021,1020,513,419,116
10,-6,-2,8,5,-1,885,1129,1110,597,467,146
4,5,16,2,-6,17,981,1261,1224,705,545,188
-1,17,34,-4,-18,35,1107,1429,1380,855,647,254
-7,47,76,-9,-36,65,1251,1645,1608,1059,785,326
-13,107,142,-21,-78,125,1401,1885,1866,1317,953,422
-13,203,232,-63,-126,221,1509,2142,2183,1617,1157,524
-13,305,316,-129,-156,311,1587,2376,2530,1965,1403,656
4,431,400,-213,-168,419,1617,2555,2860,2330,1673,812
40,581,496,-309,-186,533,1611,2651,3184,2707,1967,980
106,737,592,-423,-204,665,1515,2741,3502,3097,2284,1190
190,899,664,-555,-210,785,1389,2807,3814,3475,2589,1382
268,1043,718,-669,-210,887,1239,2837,4090,3835,2889,1580
346,1157,760,-759,-210,965,1041,2843,4330,4165,3177,1766
400,1199,766,-789,-204,983,867,2843,4546,4417,3369,1874
418,1163,730,-789,-174,947,759,2819,4582,4423,3375,1874
406,917,550,-669,-120,737,675,2573,4408,4093,3171,1712
340,647,376,-483,-78,509,609,2208,3904,3451,2709,1430
202,443,298,-327,-78,371,537,1747,3208,2725,2176,1130
22,317,298,-171,-114,329,453,1099,2273,1929,1589,806
-169,203,334,-15,-252,311,327,355,1194,1065,911,458
-331,95,376,110,-348,281,201,-244,312,291,275,98
-385,41,394,158,-390,251,75,-538,-149,-146,-144,-141
-391,35,400,164,-396,245,-80,-640,-275,-266,-258,-201
-379,47,406,158,-396,245,-230,-664,-293,-272,-258,-201
-349,77,406,134,-390,251,-326,-670,-293,-272,-252,-195
-307,89,400,116,-378,251,-398,-676,-293,-272,-234,-183
-271,95,388,98,-336,251,-458,-682,-293,-272,-222,-165
-235,95,352,74,-294,245,-500,-694,-299,-278,-216,-159
-205,95,310,62,-264,215,-518,-694,-299,-296,-216,-153
-181,89,250,56,-228,179,-518,-682,-299,-326,-216,-153
-151,77,202,50,-186,149,-482,-640,-293,-338,-216,-147
-121,65,172,44,-150,119,-428,-574,-281,-356,-216,-141
-109,59,142,38,-126,107,-380,-520,-269,-368,-216,-141
-91,47,118,38,-108,83,-332,-472,-251,-368,-216,-141
-79,41,94,32,-96,71,-284,-424,-239,-368,-210,-135
-67,35,82,26,-84,65,-242,-382,-209,-368,-204,-129
-55,23,58,26,-66,47,-212,-340,-179,-362,-198,-123
-43,11,28,26,-48,17,-182,-304,-149,-350,-192,-117
-31,-6,10,26,-30,5,-170,-286,-131,-344,-186,-117
-25,-12,-2,26,-18,-6,-158,-274,-119,-338,-180,-117
-13,-12,-7,20,-6,-12,-146,-262,-113,-338,-174,-117
-7,-12,-19,20,5,-18,-134,-250,-107,-338,-174,-117
-1,-18,-31,20,17,-24,-128,-244,-101,-338,-174,-117
4,-24,-37,20,23,-30,-122,-238,-101,-338,-168,-117
4,-24,-43,20,29,-30,-116,-232,-101,-338,-168,-117
10,-24,-49,14,29,-30,-116,-226,-101,-338,-168,-111
16,-24,-49,14,29,-30,-110,-226,-101,-338,-168,-111
22,-24,-49,8,29,-36,-110,-220,-95,-338,-168,-105
28,-24,-55,2,35,-36,-110,-220,-89,-338,-168,-105
34,-24,-61,2,41,-36,-104,-214,-83,-338,-168,-105
34,-24,-61,2,41,-36,-104,-208,-77,-338,-162,-105
40,-24,-67,-4,41,-36,-104,-208,-71,-338,-162,-105
40,-24,-67,-4,41,-36,-104,-208,-65,-332,-162,-105
40,-24,-67,-4,47,-36,-104,-208,-65,-326,-162,-99
40,-24,-67,-4,47,-36,-98,-202,-59,-320,-162,-99
40,-24,-67,-9,47,-36,-98,-196,-59,-320,-162,-99
46,-24,-67,-15,47,-36,-98,-196,-59,-314,-162,-99
52,-24,-67,-15,47,-36,-98,-196,-53,-308,-162,-99
52,-24,-67,-15,47,-36,-98,-196,-47,-308,-162,-99
52,-24,-73,-15,53,-36,-98,-190,-47,-308,-162,-99
58,-24,-79,-15,59,-36,-98,-190,-47,-308,-162,-99
58,-24,-79,-15,65,-36,-92,-190,-47,-308,-162,-93
58,-24,-79,-15,65,-36,-92,-184,-47,-302,-162,-87
64,-18,-79,-21,65,-36,-92,-178,-47,-296,-162,-87
70,-12,-79,-27,65,-36,-92,-178,-47,-296,-162,-87
70,-12,-79,-33,65,-36,-92,-178,-47,-290,-156,-87
70,-12,-85,-33,71,-36,-92,-172,-47,-284,-150,-81
70,-12,-85,-33,71,-36,-92,-172,-47,-278,-144,-81
70,-12,-85,-39,71,-36,-92,-166,-53,-278,-138,-81
70,-1,-85,-45,71,-36,-92,-166,-59,-278,-138,-81
70,11,-79,-51,71,-30,-92,-166,-71,-278,-138,-81
76,17,-73,-57,71,-24,-92,-166,-83,-278,-138,-81
82,17,-73,-57,71,-24,-92,-166,-89,-278,-132,-81
82,17,-73,-57,71,-24,-92,-166,-95,-272,-132,-75
88,17,-73,-57,71,-24,-92,-166,-95,-272,-132,-75
88,17,-73,-57,71,-24,-92,-166,-101,-272,-132,-75
88,17,-73,-57,77,-24,-92,-166,-101,-272,-132,-75
88,17,-73,-57,77,-24,-92,-160,-101,-272,-132,-69
94,17,-73,-57,77,-24,-92,-160,-101,-266,-126,-63
100,17,-73,-57,77,-24,-86,-160,-101,-260,-120,-57
100,23,-73,-63,83,-24,-80,-160,-107,-254,-114,-51
100,23,-73,-69,83,-24,-80,-154,-113,-254,-114,-45
100,23,-73,-69,83,-24,-80,-148,-113,-254,-108,-39
106,23,-73,-69,83,-24,-80,-148,-113,-248,-102,-33
112,23,-73,-69,83,-24,-80,-148,-113,-242,-96,-27
118,23,-73,-75,89,-24,-80,-148,-119,-242,-96,-21
118,35,-73,-81,89,-18,-80,-142,-125,-242,-96,-21
124,47,-73,-87,89,-12,-80,-142,-125,-242,-96,-21
130,53,-73,-93,89,-12,-80,-142,-125,-242,-96,-15
130,53,-73,-93,89,-12,-80,-142,-131,-242,-90,-9
130,59,-73,-93,89,-12,-80,-142,-137,-242,-90,-9
130,59,-73,-93,89,-12,-80,-136,-137,-242,-90,-9
130,59,-73,-99,89,-12,-80,-130,-137,-242,-84,-9
130,59,-73,-99,89,-12,-80,-130,-137,-242,-84,-9
136,59,-73,-99,89,-12,-74,-130,-137,-242,-78,-3
136,59,-73,-99,89,-12,-68,-124,-137,-236,-72,3
136,65,-73,-105,89,-6,-62,-118,-137,-224,-66,8
136,71,-73,-111,89,-1,-56,-112,-137,-218,-60,8
136,83,-67,-117,89,5,-56,-106,-137,-206,-54,14
142,95,-67,-123,89,11,-50,-100,-137,-194,-54,20
148,101,-61,-129,89,17,-50,-100,-137,-182,-54,26
148,107,-61,-129,89,17,-50,-94,-137,-176,-48,32
148,107,-61,-129,89,23,-44,-88,-137,-170,-42,38
148,113,-55,-135,89,29,-38,-82,-137,-158,-36,44
148,119,-55,-135,89,35,-26,-70,-137,-146,-30,44
154,119,-55,-141,89,35,-20,-58,-137,-134,-24,50
160,125,-49,-147,89,41,-14,-46,-137,-122,-18,56
160,125,-49,-147,89,41,-3,-34,-131,-110,-6,62
160,125,-49,-147,89,41,3,-22,-119,-98,6,68
160,125,-49,-147,89,41,9,-10,-113,-80,17,74
160,131,-49,-153,95,47,15,-4,-101,-68,23,80
166,143,-43,-159,95,53,21,1,-95,-56,29,86
172,155,-31,-165,95,65,21,7,-89,-50,35,92
172,167,-19,-171,95,77,21,13,-83,-44,35,92
172,173,-13,-177,95,83,27,19,-77,-38,41,98
172,179,-7,-177,95,89,39,31,-71,-26,53,104
172,179,-7,-177,95,89,45,49,-59,-8,65,110
172,185,-2,-177,95,89,51,61,-47,9,77,116
172,191,4,-177,95,95,57,67,-35,21,83,122
172,191,4,-183,95,95,69,79,-23,33,89,128
172,191,4,-183,95,101,81,91,-5,45,101,134
172,191,4,-183,95,101,87,103,6,57,107,140
172,191,4,-183,89,101,93,115,18,69,113,146
172,191,4,-183,89,101,99,127,30,81,119,146
172,191,10,-183,89,101,111,139,42,93,131,152
172,197,22,-183,83,107,117,145,54,105,137,152
172,209,34,-189,77,119,117,151,66,117,143,152
172,221,46,-195,77,131,123,163,78,129,149,152
172,239,58,-201,71,149,123,169,90,141,149,152
172,251,70,-207,65,161,123,175,102,159,155,152
172,257,76,-213,59,167,123,181,114,177,161,152
172,263,82,-213,59,173,129,187,120,189,167,152
172,269,88,-219,53,179,129,193,126,195,167,152
172,269,94,-219,53,179,129,193,132,207,167,152
172,269,94,-219,53,185,129,193,138,213,173,152
172,269,94,-219,53,185,129,193,144,219,179,152
172,269,94,-219,47,185,129,193,150,219,185,152
172,269,94,-219,47,185,129,193,156,219,185,152
172,269,94,-219,47,185,129,193,156,219,185,152
172,263,88,-219,47,179,129,193,156,225,185,152
172,263,88,-219,47,179,129,187,156,225,185,146
172,263,88,-219,47,179,129,181,150,225,179,140
172,257,88,-219,47,173,123,169,138,219,173,128
172,245,82,-213,47,161,123,157,126,213,167,116
172,233,70,-207,47,149,123,151,114,213,161,110
172,221,58,-201,47,137,117,139,108,207,149,98
166,209,52,-195,47,131,111,127,96,195,137,86
166,203,52,-189,47,125,105,109,78,177,119,74
166,197,46,-189,47,125,93,97,60,165,107,62
160,191,46,-183,47,119,81,79,36,153,95,56
160,185,40,-177,53,113,75,67,24,141,89,50
160,161,22,-165,59,101,69,55,18,129,77,44
160,149,16,-159,59,95,63,43,1,111,65,38
154,149,16,-153,59,95,51,19,-23,87,35,26
148,149,16,-153,59,95,39,7,-41,63,23,8
148,143,10,-147,59,89,33,-4,-53,51,11,-3
148,137,4,-141,59,83,27,-16,-59,39,6,-9
148,131,-2,-135,59,71,21,-28,-65,27,0,-9
148,125,-2,-135,59,71,15,-34,-77,15,-6,-15
148,125,-2,-135,59,71,9,-46,-89,4,-18,-21
148,125,-2,-135,59,71,3,-52,-95,-2,-24,-27
142,113,-7,-129,65,59,-3,-58,-101,-8,-30,-27
136,101,-19,-123,65,47,-3,-64,-113,-20,-36,-27
136,101,-19,-117,65,41,-8,-70,-119,-26,-36,-33
136,101,-25,-117,65,35,-8,-76,-125,-32,-42,-39
136,95,-25,-111,65,29,-8,-76,-125,-32,-42,-45
130,95,-25,-111,65,29,-14,-82,-125,-38,-48,-51
130,95,-25,-111,65,29,-14,-88,-125,-38,-54,-57
130,95,-25,-111,65,29,-14,-88,-125,-38,-54,-57
130,89,-25,-111,65,29,-14,-88,-131,-38,-54,-63
130,83,-25,-111,65,29,-14,-88,-131,-38,-54,-63
130,83,-25,-111,65,29,-14,-88,-131,-38,-60,-63
130,83,-25,-111,65,29,-14,-88,-137,-38,-66,-63
130,83,-25,-111,65,29,-14,-88,-137,-38,-66,-63
130,83,-25,-111,65,29,-14,-94,-137,-38,-66,-63
130,77,-25,-105,65,29,-14,-94,-137,-38,-66,-63
130,77,-25,-99,65,29,-14,-94,-137,-38,-66,-63
124,77,-25,-99,65,29,-20,-94,-137,-38,-66,-63
118,77,-25,-99,65,29,-20,-94,-137,-44,-66,-63
118,77,-25,-99,65,29,-20,-100,-137,-44,-66,-69
118,77,-25,-99,65,23,-20,-100,-137,-44,-66,-69
118,77,-25,-99,65,23,-20,-100,-137,-44,-66,-69
118,77,-25,-93,65,23,-20,-100,-143,-44,-66,-69
118,71,-25,-93,65,17,-20,-106,-143,-50,-66,-69
118,71,-25,-93,65,17,-26,-106,-143,-50,-66,-69
112,71,-25,-93,65,17,-32,-106,-149,-50,-66,-69
112,71,-25,-93,65,17,-38,-112,-155,-50,-66,-69
106,71,-25,-93,65,17,-38,-112,-155,-50,-66,-69
106,71,-25,-93,65,17,-38,-118,-155,-50,-66,-69
100,71,-25,-93,65,17,-38,-124,-161,-50,-72,-69
94,71,-25,-93,65,17,-38,-130,-161,-50,-72,-75
94,71,-25,-93,65,17,-38,-130,-161,-50,-72,-75
88,71,-25,-87,59,17,-38,-130,-161,-50,-72,-75
88,71,-19,-87,53,17,-38,-130,-161,-50,-72,-75
88,71,-13,-87,53,17,-38,-130,-161,-56,-72,-75
88,71,-13,-81,53,17,-44,-130,-161,-56,-72,-75
82,71,-13,-75,53,17,-44,-130,-161,-56,-72,-75
82,71,-13,-75,47,17,-44,-130,-161,-56,-72,-75
82,71,-7,-75,41,23,-44,-130,-161,-56,-72,-75
76,71,-7,-75,41,23,-44,-130,-161,-62,-72,-75
76,65,-7,-69,41,23,-44,-130,-161,-62,-72,-75
76,59,-7,-69,41,23,-44,-130,-161,-62,-72,-75
70,59,-7,-69,41,23,-44,-130,-167,-62,-72,-75
64,59,-2,-69,35,29,-50,-130,-173,-62,-72,-75
64,59,4,-69,35,35,-50,-136,-179,-62,-72,-75
64,59,4,-63,35,35,-50,-136,-179,-62,-72,-75
64,53,4,-57,35,35,-50,-136,-179,-62,-72,-75
64,53,4,-57,35,29,-50,-136,-179,-62,-72,-75
64,53,4,-57,35,29,-50,-136,-185,-62,-72,-75
64,53,4,-57,29,29,-50,-136,-185,-68,-72,-75
64,53,4,-57,29,29,-50,-136,-185,-74,-72,-81
58,53,4,-57,23,29,-50,-136,-185,-74,-72,-81
58,53,4,-57,23,29,-50,-136,-185,-74,-72,-81
58,53,10,-57,23,35,-56,-136,-185,-74,-72,-87
58,53,16,-57,23,35,-56,-136,-185,-80,-72,-87
58,53,16,-57,23,35,-56,-136,-185,-80,-72,-87
58,47,16,-57,23,35,-56,-136,-191,-80,-72,-87
58,47,16,-57,23,35,-62,-136,-191,-80,-72,-87
58,47,16,-57,23,35,-68,-136,-191,-80,-72,-87
58,47,16,-57,23,35,-74,-142,-191,-80,-72,-87
58,47,16,-57,23,35,-74,-142,-191,-80,-72,-87
52,47,16,-57,23,35,-74,-142,-191,-80,-72,-87
52,47,16,-57,23,35,-74,-142,-191,-80,-72,-87
52,47,16,-57,23,35,-74,-142,-191,-80,-72,-93
52,47,16,-57,23,35,-74,-142,-191,-80,-72,-99
46,47,16,-57,23,35,-74,-142,-197,-80,-72,-99
46,47,16,-57,23,35,-74,-142,-203,-80,-72,-105
46,47,16,-57,23,35,-74,-142,-203,-80,-72,-111
46,47,16,-57,23,35,-74,-142,-203,-80,-72,-111
46,47,16,-57,23,35,-74,-148,-203,-80,-72,-117
46,41,16,-51,23,35,-74,-148,-203,-80,-72,-117
46,41,16,-51,23,35,-74,-148,-203,-80,-72,-117
46,41,16,-51,23,35,-74,-148,-209,-80,-72,-117
46,41,16,-51,17,35,-80,-148,-215,-80,-72,-111
40,41,16,-51,17,35,-86,-148,-215,-86,-72,-105
40,41,16,-51,17,35,-86,-148,-215,-86,-72,-99
40,41,16,-51,17,35,-86,-148,-215,-92,-72,-93
40,41,16,-51,17,35,-86,-154,-221,-92,-72,-87
40,41,16,-45,17,35,-86,-154,-221,-92,-72,-81
40,41,16,-45,17,35,-86,-154,-221,-92,-72,-75
40,41,16,-45,17,35,-86,-154,-227,-98,-72,-75
40,41,16,-45,17,35,-86,-154,-233,-104,-72,-75
40,41,16,-39,17,35,-86,-154,-233,-110,-72,-75
34,35,16,-39,17,35,-86,-154,-233,-110,-72,-69
34,35,16,-39,17,35,-86,-160,-239,-110,-72,-69
34,35,16,-33,17,35,-86,-160,-239,-116,-72,-69
34,35,16,-33,17,35,-86,-160,-245,-122,-72,-69
34,35,16,-33,17,35,-86,-160,-245,-122,-72,-69
34,35,16,-33,17,35,-86,-160,-245,-122,-72,-69
34,29,16,-27,17,29,-86,-160,-245,-122,-72,-63
34,23,16,-27,17,29,-86,-160,-245,-122,-72,-63
34,23,16,-27,17,29,-86,-160,-245,-122,-72,-63
28,17,10,-27,17,23,-86,-160,-245,-122,-72,-63
28,11,4,-27,17,17,-86,-160,-245,-122,-72,-57
28,5,-2,-27,17,11,-86,-160,-245,-122,-72,-57
22,5,-2,-27,11,11,-92,-166,-245,-122,-72,-57
22,5,-2,-27,11,11,-92,-166,-245,-122,-72,-57
22,5,-2,-27,11,11,-92,-166,-245,-122,-72,-57
22,-1,-2,-27,11,11,-92,-166,-245,-122,-72,-57
22,-1,-2,-27,11,11,-92,-166,-245,-122,-72,-57
22,-1,-2,-27,11,11,-98,-172,-251,-122,-78,-57
22,-1,-2,-27,11,11,-98,-172,-257,-122,-84,-57
22,-1,-2,-27,11,11,-98,-172,-257,-122,-84,-57
22,-1,-2,-27,11,11,-98,-172,-257,-122,-84,-57
22,-1,-2,-27,11,11,-98,-172,-257,-122,-84,-57
16,-1,-2,-21,11,11,-98,-178,-257,-122,-84,-57
16,-1,-2,-21,11,11,-98,-178,-257,-122,-84,-57
16,-6,-2,-15,11,5,-98,-178,-257,-122,-84,-57
16,-12,-2,-15,11,-1,-98,-178,-257,-122,-84,-57
16,-18,-2,-15,11,-1,-98,-178,-257,-122,-84,-57
16,-24,-7,-9,11,-6,-98,-178,-257,-122,-84,-57
16,-24,-7,-4,11,-12,-104,-178,-257,-122,-84,-57
16,-24,-7,-4,11,-12,-104,-178,-263,-122,-84,-57
16,-24,-7,-4,11,-12,-104,-184,-269,-122,-84,-57
16,-24,-7,-4,11,-12,-104,-184,-269,-122,-84,-57
16,-24,-7,-4,11,-12,-104,-184,-269,-122,-84,-57
16,-24,-7,-4,11,-12,-110,-184,-269,-122,-84,-57
10,-24,-7,-4,11,-6,-116,-184,-269,-122,-84,-57
10,-24,-7,-4,11,-6,-122,-184,-269,-122,-84,-57
10,-24,-7,-4,11,-6,-122,-184,-269,-122,-84,-57
10,-24,-7,-4,11,-6,-122,-184,-269,-122,-84,-57
4,-24,-7,-4,11,-6,-128,-184,-275,-122,-84,-57
4,-24,-7,-4,5,-6,-128,-184,-275,-122,-84,-57
4,-24,-7,-4,5,-12,-128,-184,-275,-122,-84,-57
4,-30,-13,2,5,-18,-128,-184,-275,-122,-84,-57
4,-36,-19,8,5,-24,-128,-184,-275,-122,-84,-57
4,-42,-25,8,5,-24,-128,-184,-275,-122,-84,-57
4,-42,-25,8,5,-24,-128,-184,-275,-122,-84,-57
4,-42,-25,8,5,-24,-134,-184,-275,-122,-84,-57
4,-42,-25,8,5,-24,-140,-184,-275,-122,-84,-57
4,-42,-25,14,5,-24,-140,-184,-275,-122,-84,-57
-1,-48,-25,20,5,-30,-140,-184,-275,-122,-84,-57
-1,-48,-25,20,5,-36,-140,-184,-275,-122,-84,-57
-1,-48,-25,20,5,-36,-140,-184,-275,-122,-84,-57
-7,-48,-25,20,5,-36,-146,-184,-275,-122,-84,-63
-7,-48,-25,20,5,-36,-146,-184,-275,-122,-84,-63
-7,-48,-25,20,5,-36,-146,-184,-275,-122,-84,-63
-7,-48,-25,20,5,-36,-146,-184,-275,-122,-84,-63
-7,-48,-25,20,5,-36,-146,-184,-275,-122,-84,-63
-7,-48,-25,20,5,-36,-146,-184,-275,-122,-84,-63
-7,-48,-25,20,5,-36,-146,-184,-275,-122,-84,-63
-7,-48,-25,20,5,-36,-146,-184,-275,-122,-84,-63
-7,-48,-25,20,5,-36,-146,-184,-275,-122,-84,-69
-7,-48,-25,20,5,-36,-146,-184,-275,-122,-84,-69
-7,-48,-25,20,5,-36,-146,-184,-275,-122,-84,-69
-7,-48,-25,20,5,-36,-146,-184,-275,-122,-84,-69
-7,-48,-25,20,5,-36,-146,-184,-275,-122,-90,-69
-7,-48,-25,26,5,-36,-146,-184,-275,-122,-90,-69
-7,-48,-25,32,5,-36,-146,-184,-275,-122,-90,-69
-7,-48,-25,32,5,-36,-146,-184,-275,-122,-90,-69
-7,-48,-25,32,-1,-36,-146,-190,-275,-122,-90,-69
-13,-48,-25,32,-1,-36,-146,-190,-275,-122,-90,-69
-13,-48,-25,32,-1,-36,-146,-190,-275,-122,-90,-69
-13,-54,-25,32,-1,-36,-146,-190,-275,-122,-90,-69
-13,-54,-25,32,-1,-36,-146,-190,-275,-122,-96,-69
-13,-54,-25,32,-1,-36,-146,-190,-275,-122,-96,-69
-13,-54,-25,32,-1,-36,-146,-190,-275,-122,-96,-69
-13,-54,-25,32,-1,-36,-146,-190,-275,-122,-96,-69
-13,-54,-25,32,-1,-36,-146,-190,-275,-122,-96,-69
-13,-54,-25,32,-1,-36,-146,-190,-275,-122,-96,-69
-13,-54,-25,32,-1,-36,-146,-190,-275,-122,-96,-69
-13,-54,-25,32,-1,-36,-146,-190,-275,-122,-96,-69
-13,-54,-25,32,-1,-36,-146,-190,-275,-122,-96,-69
-13,-48,-25,32,-1,-36,-146,-190,-269,-122,-96,-69
-13,-36,-19,32,-1,-24,-146,-190,-269,-122,-96,-69
-13,-24,-7,26,-6,-12,-146,-190,-263,-122,-96,-69
-13,-12,4,20,-12,5,-146,-190,-263,-122,-96,-69
-13,5,16,14,-12,11,-146,-190,-257,-122,-96,-69
-13,11,16,8,-12,11,-146,-184,-251,-122,-96,-69
-13,11,16,8,-12,11,-146,-178,-245,-116,-96,-69
-13,11,16,8,-12,11,-146,-178,-245,-110,-96,-63
-13,11,16,8,-12,11,-146,-178,-245,-110,-96,-63
-13,11,16,8,-12,11,-146,-178,-245,-110,-96,-63
-13,11,16,8,-12,11,-146,-178,-245,-110,-96,-57
-13,11,16,8,-12,11,-146,-178,-245,-110,-96,-51
-13,11,16,8,-12,11,-146,-178,-245,-110,-96,-51
-13,11,16,8,-12,11,-146,-172,-239,-104,-96,-51
-13,11,16,8,-12,11,-146,-166,-233,-104,-96,-51
-7,11,16,2,-12,11,-146,-166,-227,-98,-96,-45
-1,17,16,-4,-12,11,-146,-166,-221,-98,-90,-39
4,29,16,-9,-12,17,-146,-166,-221,-98,-90,-33
4,41,16,-15,-12,23,-146,-166,-221,-98,-90,-33
10,47,16,-21,-12,23,-146,-166,-221,-92,-90,-33
16,47,16,-21,-12,23,-146,-166,-221,-92,-84,-33
16,47,16,-21,-12,23,-146,-166,-221,-92,-84,-33
16,47,16,-21,-12,23,-146,-166,-221,-92,-84,-33
16,47,16,-21,-12,23,-146,-166,-221,-92,-84,-33
16,41,16,-21,-12,23,-146,-166,-221,-92,-84,-33
16,35,10,-21,-12,23,-146,-166,-221,-92,-84,-33
16,29,4,-21,-12,17,-146,-166,-221,-92,-84,-33
16,23,4,-21,-12,11,-146,-166,-221,-92,-84,-33
16,17,-2,-15,-6,5,-146,-166,-221,-92,-84,-33
16,5,-13,-9,-1,-6,-146,-166,-221,-92,-84,-33
16,-6,-25,-4,5,-18,-146,-166,-221,-92,-84,-33
16,-6,-25,-4,5,-18,-146,-166,-221,-92,-84,-33
16,-6,-25,-4,5,-18,-146,-172,-221,-98,-84,-33
16,-6,-25,-4,5,-18,-146,-172,-227,-110,-90,-33
16,-6,-25,-4,5,-18,-146,-178,-227,-116,-96,-33
16,-12,-25,2,5,-18,-146,-178,-227,-128,-102,-33
10,-18,-31,8,5,-24,-146,-184,-227,-134,-108,-33
4,-24,-31,14,5,-24,-146,-190,-233,-140,-114,-39
-1,-30,-31,20,5,-24,-146,-190,-239,-146,-120,-45
-13,-36,-31,26,-1,-30,-146,-190,-245,-152,-126,-51
-25,-42,-31,32,-6,-30,-146,-190,-251,-158,-132,-57
-31,-48,-31,38,-6,-36,-146,-190,-251,-164,-138,-63
-37,-54,-31,44,-6,-42,-146,-196,-257,-164,-138,-63
-43,-66,-37,50,-6,-48,-146,-196,-263,-170,-138,-63
-43,-72,-43,56,-6,-54,-146,-202,-269,-170,-138,-63
-43,-78,-43,56,-6,-54,-146,-202,-269,-170,-138,-63
-43,-84,-43,56,-6,-54,-146,-208,-269,-176,-138,-63
-43,-84,-43,56,-6,-54,-146,-208,-269,-176,-138,-63
-43,-84,-43,56,-6,-54,-146,-214,-269,-176,-144,-69
-49,-84,-37,56,-6,-54,-146,-214,-269,-176,-150,-69
-49,-78,-31,56,-12,-54,-146,-214,-269,-176,-150,-69
-49,-72,-31,56,-18,-54,-146,-214,-269,-176,-150,-69
-49,-72,-31,56,-18,-54,-146,-202,-263,-170,-150,-69
-49,-72,-31,56,-18,-54,-146,-196,-251,-164,-138,-63
-49,-66,-25,56,-18,-48,-146,-190,-239,-152,-126,-63
-49,-54,-7,50,-24,-24,-146,-184,-227,-140,-120,-63
-49,-42,4,50,-30,-12,-146,-178,-215,-128,-108,-57
-49,-36,10,50,-30,-6,-140,-166,-203,-116,-96,-51
-49,-30,16,50,-30,-6,-134,-154,-185,-98,-84,-45
-49,-24,22,50,-36,-1,-128,-136,-167,-86,-78,-39
-49,-18,28,50,-42,5,-116,-118,-149,-74,-66,-39
-49,-12,34,44,-48,11,-110,-88,-119,-56,-60,-33
-49,-6,40,38,-54,17,-98,-58,-101,-44,-48,-27
-49,-1,46,32,-54,17,-86,-46,-77,-26,-36,-21
-49,-1,46,32,-54,17,-80,-28,-59,-14,-18,-15
-49,-1,46,32,-48,17,-74,-16,-41,4,-6,-9
-49,-1,40,32,-48,17,-68,-4,-29,15,6,-3
-43,-1,34,32,-42,17,-56,7,-17,21,11,-3
-31,-6,16,32,-30,11,-44,19,-5,33,17,-3
-25,-18,-7,32,-18,-1,-32,37,6,39,17,-3
-13,-18,-19,32,-12,-12,-20,55,18,39,17,-3
-7,-18,-25,26,-6,-18,-8,79,30,39,17,-3
-1,-18,-31,20,-1,-24,3,103,54,45,23,-3
4,-18,-43,20,11,-30,15,121,84,57,35,-3
10,-18,-49,20,17,-30,27,151,114,75,47,3
16,-18,-49,14,23,-30,57,181,150,111,71,8
16,-18,-49,14,23,-24,93,247,198,165,107,20
16,-12,-37,8,17,-18,159,313,264,225,137,32
16,-12,-37,8,17,-18,231,403,330,273,167,44
16,-12,-37,8,17,-18,297,475,390,315,185,56
16,-12,-37,8,17,-18,381,565,444,357,209,68
10,-12,-37,8,11,-18,465,661,522,399,233,74
4,-12,-31,8,5,-12,561,781,600,453,257,80
-1,-12,-19,8,-1,-6,657,877,684,507,293,86
-7,-12,-7,8,-6,-1,741,991,762,573,335,98
-13,-6,28,8,-18,11,849,1087,858,657,395,128
-19,35,70,8,-42,53,939,1213,972,777,473,176
-19,83,112,-4,-54,107,1059,1393,1140,945,581,230
-19,149,172,-33,-84,173,1203,1621,1380,1173,743,314
-19,227,256,-69,-126,251,1335,1861,1662,1449,929,422
-19,311,328,-117,-162,323,1449,2112,1992,1773,1139,554
-7,407,382,-189,-174,389,1509,2358,2357,2120,1409,692
40,545,442,-297,-180,491,1509,2525,2686,2479,1697,860
100,689,538,-399,-192,611,1473,2633,3028,2869,2003,1058
160,851,634,-501,-198,743,1371,2753,3376,3265,2314,1262
238,989,694,-609,-204,845,1251,2825,3688,3631,2613,1454
316,1133,754,-717,-204,947,1071,2855,3940,3967,2895,1640
400,1223,772,-801,-204,1001,873,2867,4198,4285,3141,1790
448,1223,760,-819,-168,995,741,2879,4396,4459,3285,1850
448,1091,616,-795,-114,863,645,2843,4396,4387,3261,1832
418,839,460,-627,-72,647,573,2549,4036,3841,2877,1592
310,605,352,-459,-60,479,489,2112,3430,3139,2374,1292
148,437,334,-297,-66,389,393,1537,2632,2396,1853,998
-49,317,340,-135,-174,353,267,799,1608,1587,1241,674
-241,197,382,14,-306,323,129,61,594,765,605,326
-373,95,418,140,-390,293,9,-418,-125,141,53,8
-409,59,424,182,-420,281,-110,-622,-431,-152,-240,-153
-409,59,430,182,-426,275,-260,-664,-467,-188,-276,-183
-391,71,436,164,-426,275,-380,-676,-473,-188,-276,-189
-349,89,436,134,-414,275,-458,-682,-473,-188,-270,-189
-319,95,430,110,-384,275,-518,-688,-473,-188,-258,-189
-289,101,400,98,-354,269,-566,-694,-473,-200,-252,-189
-259,101,364,92,-318,245,-590,-694,-479,-218,-252,-189
-235,101,334,80,-288,233,-596,-694,-479,-248,-252,-189
-205,101,310,68,-258,215,-590,-670,-479,-272,-252,-189
-181,101,268,62,-222,197,-548,-616,-479,-284,-252,-189
-169,89,226,56,-204,167,-482,-574,-467,-290,-252,-189
-163,77,196,56,-186,149,-434,-532,-455,-296,-252,-189
-151,59,172,56,-174,125,-380,-478,-431,-296,-252,-189
-139,35,142,56,-156,95,-332,-418,-407,-296,-246,-189
-127,23,118,56,-138,77,-296,-376,-389,-290,-246,-189
-121,11,106,56,-126,59,-272,-346,-365,-284,-246,-189
-109,-1,94,56,-108,47,-260,-328,-353,-278,-240,-189
-97,-6,76,56,-96,35,-248,-316,-341,-272,-240,-189
-91,-18,64,56,-84,23,-236,-310,-335,-266,-240,-189
-85,-30,52,56,-72,11,-230,-304,-329,-266,-234,-189
-85,-36,40,56,-66,-1,-224,-298,-323,-266,-234,-189
-79,-42,28,56,-60,-6,-218,-292,-323,-266,-234,-189
-79,-48,16,56,-54,-12,-212,-292,-323,-266,-234,-189
-79,-54,10,56,-54,-18,-212,-286,-323,-266,-234,-189
-79,-54,10,56,-54,-18,-212,-286,-323,-266,-234,-189
-79,-54,10,56,-54,-18,-212,-280,-323,-266,-228,-189
-73,-54,10,56,-54,-18,-212,-274,-323,-266,-228,-189
-67,-48,10,56,-48,-18,-212,-268,-317,-266,-228,-189
-67,-48,10,56,-48,-18,-206,-268,-311,-266,-222,-183
-61,-48,4,56,-48,-18,-206,-268,-311,-266,-216,-177
-61,-48,-2,56,-42,-18,-206,-268,-311,-266,-216,-177
-61,-48,-2,56,-42,-18,-206,-262,-311,-266,-216,-177
-61,-48,-2,56,-42,-18,-206,-256,-311,-266,-216,-177
-61,-54,-7,56,-36,-24,-206,-250,-311,-266,-210,-177
-61,-66,-19,56,-30,-36,-200,-244,-311,-266,-204,-177
-61,-66,-25,56,-24,-42,-200,-238,-311,-266,-204,-177
-55,-66,-25,56,-18,-42,-200,-238,-305,-266,-204,-177
-49,-66,-25,56,-18,-42,-200,-238,-305,-266,-204,-177
-49,-66,-25,56,-18,-42,-200,-238,-305,-266,-204,-177
-49,-66,-25,56,-18,-42,-200,-238,-305,-266,-204,-177
-43,-66,-25,50,-18,-42,-200,-238,-305,-266,-204,-171
-43,-66,-25,50,-18,-42,-200,-238,-305,-260,-204,-171
-43,-66,-25,50,-18,-42,-200,-238,-305,-254,-204,-171
-43,-60,-25,50,-18,-42,-200,-238,-299,-254,-204,-171
-43,-54,-19,44,-18,-36,-200,-238,-293,-254,-204,-171
-43,-48,-19,44,-18,-36,-200,-232,-293,-254,-204,-171
-43,-48,-19,44,-18,-36,-200,-232,-287,-248,-204,-171
-43,-48,-19,44,-18,-36,-200,-232,-281,-242,-198,-165
-43,-48,-19,44,-18,-36,-200,-232,-275,-242,-198,-159
-43,-48,-19,44,-18,-36,-200,-226,-269,-242,-192,-159
-37,-48,-19,44,-12,-36,-200,-226,-263,-242,-192,-159
-31,-48,-19,38,-12,-36,-200,-226,-263,-242,-192,-159
-31,-48,-19,38,-12,-36,-200,-226,-263,-236,-192,-159
-31,-48,-19,38,-12,-36,-200,-220,-257,-230,-192,-153
-31,-48,-19,38,-12,-36,-200,-220,-257,-230,-186,-153
-31,-48,-19,38,-12,-36,-200,-220,-251,-230,-186,-147
-31,-48,-19,38,-12,-36,-200,-220,-251,-224,-186,-141
-31,-48,-19,38,-12,-36,-194,-220,-245,-224,-186,-141
-31,-48,-19,38,-6,-36,-194,-214,-239,-218,-186,-141
-25,-48,-19,32,-6,-36,-194,-214,-233,-218,-186,-135
-19,-42,-19,32,-6,-36,-194,-214,-233,-218,-186,-135
-19,-42,-19,32,-6,-36,-194,-208,-233,-218,-186,-135
-19,-42,-25,32,-1,-36,-194,-208,-227,-218,-180,-129
-13,-42,-25,32,5,-36,-194,-208,-227,-218,-174,-123
-7,-36,-25,26,5,-36,-194,-202,-227,-218,-174,-123
-7,-30,-25,20,5,-36,-194,-202,-221,-218,-168,-123
-7,-24,-25,14,5,-30,-194,-202,-215,-212,-162,-117
-7,-18,-25,14,5,-24,-194,-202,-209,-212,-162,-111
-7,-12,-25,14,5,-18,-194,-196,-203,-212,-156,-111
-7,-12,-25,8,5,-18,-188,-190,-197,-206,-150,-105
-1,-6,-25,8,5,-18,-182,-184,-191,-200,-144,-99
-1,-1,-25,8,5,-18,-176,-178,-185,-200,-138,-93
-1,5,-25,2,5,-12,-176,-178,-179,-200,-138,-93
4,5,-25,-4,5,-12,-170,-172,-173,-200,-132,-93
10,5,-25,-4,5,-12,-170,-166,-167,-194,-126,-87
10,5,-25,-4,5,-12,-164,-160,-161,-188,-126,-81
10,11,-19,-9,5,-6,-158,-154,-155,-182,-120,-75
10,29,-7,-21,5,5,-158,-154,-155,-182,-120,-75
10,41,4,-27,5,17,-158,-148,-149,-182,-120,-69
10,41,4,-33,5,23,-152,-136,-137,-176,-114,-63
16,41,4,-33,5,23,-146,-124,-131,-170,-108,-57
16,47,10,-33,5,29,-140,-118,-125,-164,-102,-51
16,59,16,-39,5,35,-134,-112,-113,-158,-96,-51
22,65,22,-45,5,41,-134,-106,-107,-158,-90,-45
28,71,28,-51,5,47,-128,-94,-95,-158,-84,-39
28,77,28,-51,5,47,-122,-82,-83,-152,-72,-33
28,77,28,-51,5,47,-110,-70,-71,-140,-60,-27
28,77,28,-51,5,47,-104,-58,-59,-128,-54,-21
34,83,28,-51,5,53,-98,-46,-47,-116,-48,-15
40,95,40,-57,5,65,-92,-40,-41,-110,-42,-9
40,107,46,-63,5,77,-86,-34,-35,-104,-36,-9
40,107,46,-69,5,77,-80,-22,-23,-92,-30,-3
40,107,46,-69,5,77,-74,-10,-11,-80,-18,3
40,113,46,-75,5,77,-74,1,1,-68,-12,8
40,113,46,-75,5,77,-68,13,18,-56,0,14
40,113,46,-75,5,77,-62,37,42,-44,11,20
40,119,52,-75,5,77,-50,49,60,-32,17,26
40,125,64,-81,-1,89,-44,61,72,-14,23,32
40,131,70,-81,-6,95,-38,73,84,-2,29,38
40,131,70,-87,-6,101,-32,85,96,15,41,44
40,131,70,-87,-6,107,-26,97,108,27,47,50
40,131,76,-87,-6,107,-20,109,120,39,53,56
40,137,82,-93,-12,113,-14,115,132,45,65,62
40,149,94,-93,-18,119,-8,127,144,51,77,62
40,155,94,-93,-18,119,-3,139,162,63,89,62
40,155,94,-99,-18,119,3,151,186,75,95,68
40,155,94,-99,-18,119,9,163,198,93,101,74
40,155,94,-99,-18,119,15,175,210,111,107,80
40,155,94,-99,-18,119,15,181,222,123,113,80
40,155,94,-99,-18,119,21,187,234,135,119,80
40,155,94,-99,-18,119,27,199,240,147,125,80
40,155,94,-99,-18,119,27,205,246,159,125,80
40,155,94,-99,-18,119,27,205,252,165,125,80
40,155,94,-99,-18,119,27,205,258,171,125,80
40,155,94,-99,-18,119,27,205,264,171,125,80
40,155,94,-99,-18,119,27,205,264,171,125,80
40,149,94,-99,-18,119,27,205,264,171,125,80
40,143,94,-99,-18,119,27,205,264,171,125,74
40,137,94,-93,-18,119,27,205,264,171,125,68
40,125,88,-87,-18,107,27,199,264,171,125,62
40,107,76,-75,-18,89,27,193,264,171,119,56
40,89,64,-63,-18,65,27,181,258,165,113,50
40,77,52,-57,-12,53,27,169,252,153,107,38
40,77,46,-57,-12,53,21,157,240,129,95,26
34,71,46,-51,-12,47,15,139,216,111,83,14
34,65,40,-45,-12,41,9,121,198,93,71,3
34,53,28,-33,-12,29,3,109,186,81,59,-9
34,41,22,-27,-12,17,-8,97,174,69,47,-21
34,35,16,-27,-12,11,-20,79,162,51,29,-33
28,35,16,-27,-12,11,-32,55,138,27,17,-45
22,29,16,-27,-12,11,-38,37,114,4,6,-57
22,17,10,-21,-6,5,-44,25,102,-8,-6,-69
16,5,4,-15,-6,-1,-50,13,90,-20,-18,-75
16,-1,-2,-9,-1,-6,-56,1,78,-38,-30,-81
10,-6,-7,-4,-1,-12,-62,-10,60,-50,-42,-93
10,-6,-7,2,-1,-12,-68,-22,42,-62,-54,-105
10,-12,-7,8,-1,-12,-74,-34,30,-74,-60,-111
4,-24,-19,14,-1,-24,-86,-40,18,-86,-66,-117
4,-36,-25,20,-1,-36,-92,-52,12,-92,-72,-123
-1,-42,-31,26,-1,-36,-98,-64,6,-98,-78,-129
-1,-48,-31,26,-1,-42,-104,-70,-5,-110,-84,-135
-1,-48,-37,32,-1,-42,-104,-76,-11,-116,-90,-141
-7,-54,-37,38,-1,-42,-110,-82,-17,-128,-96,-141
-13,-60,-37,38,-1,-48,-110,-88,-23,-140,-102,-141
-13,-60,-37,38,-1,-48,-110,-94,-29,-146,-108,-147
-13,-60,-37,38,-1,-54,-110,-94,-35,-146,-114,-147
-13,-60,-37,38,-1,-54,-116,-100,-35,-152,-120,-153
-13,-60,-37,38,-1,-54,-122,-100,-41,-152,-126,-153
-19,-60,-37,38,-1,-54,-122,-100,-41,-158,-126,-153
-19,-66,-37,38,-1,-54,-122,-100,-41,-158,-132,-153
-19,-66,-37,38,-1,-54,-122,-100,-47,-158,-132,-153
-19,-66,-37,38,-1,-54,-122,-106,-47,-164,-132,-153
-19,-66,-37,38,-1,-54,-122,-106,-47,-164,-132,-153
-19,-66,-37,38,-1,-54,-122,-106,-47,-164,-132,-153
-19,-66,-37,38,-1,-54,-122,-106,-47,-164,-138,-153
-19,-66,-37,38,-1,-54,-122,-112,-47,-170,-138,-153
-19,-66,-37,38,-1,-54,-122,-112,-47,-170,-138,-153
-19,-66,-37,38,-1,-54,-122,-112,-47,-170,-138,-153
-19,-66,-37,38,-1,-54,-122,-112,-47,-176,-138,-153
-19,-66,-37,44,-1,-54,-122,-112,-47,-176,-138,-153
-19,-66,-37,44,-1,-54,-122,-112,-47,-182,-138,-153
-19,-66,-37,44,-1,-54,-122,-112,-47,-182,-138,-153
-19,-72,-43,44,-1,-60,-122,-112,-47,-182,-138,-153
-19,-78,-49,44,-1,-66,-122,-112,-47,-182,-138,-153
-19,-78,-49,44,-1,-66,-122,-112,-47,-182,-138,-153
-19,-78,-49,44,-1,-66,-122,-112,-47,-182,-138,-153
-19,-78,-49,44,-1,-66,-122,-112,-47,-182,-138,-153
-19,-78,-49,44,-1,-66,-122,-118,-47,-182,-138,-153
-25,-78,-49,44,-1,-66,-122,-118,-47,-182,-138,-153
-25,-78,-43,44,-1,-66,-122,-118,-47,-182,-138,-153
-25,-78,-43,44,-1,-66,-122,-124,-47,-182,-138,-153
-25,-78,-43,44,-1,-66,-122,-124,-47,-182,-138,-153
-25,-78,-43,44,-1,-66,-122,-124,-47,-182,-138,-153
-25,-72,-43,44,-1,-66,-128,-124,-47,-182,-138,-153
-25,-72,-43,44,-1,-60,-134,-124,-47,-182,-138,-159
-25,-66,-37,44,-1,-54,-134,-124,-47,-182,-138,-159
-25,-66,-37,44,-1,-54,-134,-124,-47,-182,-138,-159
-25,-66,-37,44,-1,-54,-134,-124,-47,-182,-138,-159
-25,-72,-43,44,-1,-60,-134,-124,-47,-182,-138,-159
-25,-72,-43,44,-1,-60,-134,-124,-47,-182,-138,-159
-25,-66,-43,44,-1,-60,-134,-124,-47,-182,-138,-159
-25,-54,-31,44,-1,-48,-134,-124,-47,-182,-138,-159
-25,-48,-25,44,-1,-42,-134,-124,-47,-182,-138,-159
-25,-42,-19,44,-1,-36,-134,-124,-47,-182,-138,-159
-25,-36,-13,44,-1,-36,-134,-124,-47,-182,-138,-159
-25,-36,-13,44,-1,-36,-134,-124,-47,-182,-138,-159
-25,-36,-13,44,-1,-36,-134,-124,-47,-182,-138,-159
-25,-36,-13,44,-1,-30,-134,-124,-47,-182,-138,-159
-25,-36,-13,44,-1,-30,-134,-130,-47,-182,-138,-159
-25,-36,-13,44,-1,-30,-134,-130,-47,-182,-138,-159
-25,-36,-13,44,-1,-30,-134,-130,-47,-182,-138,-159
-25,-36,-13,44,-1,-30,-134,-130,-47,-182,-138,-159
-25,-36,-13,44,-1,-30,-134,-136,-47,-182,-138,-159
-25,-36,-13,44,-1,-30,-134,-136,-47,-182,-138,-159
-25,-36,-13,44,-1,-30,-134,-136,-47,-182,-138,-159
-25,-36,-13,44,-1,-30,-134,-136,-47,-182,-138,-159
-25,-36,-13,44,-1,-30,-134,-136,-47,-182,-138,-159
-25,-36,-13,44,-1,-30,-134,-142,-47,-182,-138,-159
-25,-36,-13,44,-1,-30,-134,-142,-47,-182,-138,-159
-25,-36,-13,44,-1,-30,-134,-142,-47,-182,-138,-159
-25,-36,-13,44,-1,-30,-134,-148,-47,-182,-138,-159
-25,-36,-13,44,-1,-30,-134,-148,-47,-182,-138,-159
-25,-36,-13,44,-1,-30,-140,-148,-47,-188,-138,-159
-25,-36,-13,44,-1,-30,-140,-148,-47,-188,-138,-159
-25,-36,-13,44,-1,-30,-140,-148,-47,-188,-138,-159
-25,-36,-13,44,-1,-30,-140,-148,-47,-188,-138,-159
-25,-30,-13,44,-1,-30,-140,-148,-47,-188,-138,-159
-25,-24,-7,44,-1,-18,-146,-148,-47,-194,-138,-159
-25,-18,-2,44,-1,-6,-152,-154,-47,-194,-138,-159
-25,-18,-2,44,-1,-6,-152,-154,-47,-194,-138,-159
-25,-18,-2,44,-1,-12,-152,-154,-47,-194,-138,-159
-25,-24,-13,44,-1,-24,-152,-154,-47,-194,-138,-159
-25,-30,-19,44,-1,-30,-152,-154,-47,-194,-138,-159
-25,-30,-19,44,-1,-30,-152,-154,-47,-194,-138,-159
-25,-30,-19,44,-1,-30,-152,-154,-47,-194,-138,-159
-25,-30,-19,44,-1,-30,-152,-154,-47,-194,-138,-159
-25,-36,-19,44,-1,-30,-152,-154,-47,-194,-138,-159
-25,-42,-19,44,-1,-30,-152,-154,-47,-194,-138,-159
-25,-42,-19,44,-1,-30,-152,-154,-47,-200,-138,-159
-25,-42,-19,44,-1,-30,-152,-154,-47,-200,-138,-159
-25,-42,-19,44,-1,-30,-152,-160,-47,-200,-138,-159
-25,-42,-19,44,-1,-30,-152,-166,-47,-200,-138,-159
-25,-42,-19,44,-1,-30,-152,-166,-47,-200,-138,-159
-25,-42,-19,44,-1,-30,-152,-166,-47,-200,-138,-159
-25,-42,-19,44,-1,-30,-152,-166,-47,-200,-138,-159
-25,-42,-19,44,-1,-30,-152,-166,-47,-200,-138,-159
-25,-42,-19,44,-1,-30,-158,-166,-47,-206,-138,-159
-25,-42,-19,44,-1,-30,-158,-166,-53,-212,-138,-159
-25,-42,-25,44,-1,-30,-158,-166,-53,-212,-138,-159
-25,-48,-31,44,-1,-36,-158,-166,-53,-212,-138,-159
-25,-48,-31,44,-1,-42,-158,-166,-53,-212,-138,-159
-25,-54,-37,44,-1,-42,-158,-166,-59,-212,-138,-159
-25,-54,-37,44,-1,-42,-158,-166,-59,-212,-138,-159
-25,-54,-37,44,-1,-42,-158,-166,-65,-212,-138,-159
-25,-54,-37,44,-1,-42,-158,-166,-65,-212,-138,-159
-25,-54,-37,44,-1,-42,-158,-166,-65,-212,-138,-159
-25,-54,-37,44,-1,-48,-158,-166,-65,-212,-138,-159
-25,-60,-43,44,-1,-54,-158,-172,-65,-212,-138,-159
-25,-60,-43,44,-1,-54,-158,-172,-65,-212,-138,-159
-25,-60,-43,44,-1,-54,-158,-172,-65,-212,-138,-159
-25,-60,-43,44,-1,-54,-158,-172,-65,-212,-138,-159
-25,-60,-43,44,-1,-54,-158,-178,-65,-212,-138,-159
-25,-60,-43,44,-1,-54,-158,-178,-65,-212,-138,-159
-25,-60,-43,44,-1,-54,-164,-178,-71,-212,-138,-159
-25,-60,-43,44,-1,-54,-164,-178,-71,-212,-138,-159
-25,-60,-43,44,-1,-54,-164,-178,-71,-212,-138,-159
-25,-60,-43,44,-1,-54,-164,-178,-71,-212,-138,-159
-25,-60,-43,44,-1,-54,-164,-178,-71,-212,-138,-159
-25,-60,-43,44,-1,-54,-164,-178,-71,-212,-138,-159
-25,-60,-43,44,-1,-54,-164,-178,-71,-212,-138,-159
-25,-60,-43,44,-1,-54,-164,-178,-71,-212,-138,-159
-25,-60,-43,44,-1,-54,-164,-178,-71,-212,-138,-159
-25,-60,-43,44,-1,-54,-164,-178,-71,-212,-138,-159
-25,-60,-43,44,-1,-54,-164,-178,-71,-212,-138,-159
-25,-60,-43,44,-1,-54,-164,-178,-71,-212,-138,-165
-25,-60,-43,44,-1,-54,-164,-178,-71,-212,-138,-165
-25,-60,-43,44,-1,-54,-164,-178,-71,-212,-138,-165
-25,-60,-43,44,-1,-54,-164,-178,-71,-212,-138,-165
-25,-60,-43,44,-1,-54,-170,-178,-71,-212,-138,-165
-25,-60,-43,44,-1,-54,-170,-178,-71,-212,-138,-165
-31,-60,-43,44,-1,-54,-170,-178,-71,-212,-138,-165
-31,-60,-43,44,-1,-54,-170,-178,-71,-212,-138,-165
-31,-60,-43,44,-1,-54,-170,-178,-71,-212,-138,-171
-31,-60,-43,44,-1,-54,-170,-178,-77,-212,-138,-171
-31,-60,-43,44,-1,-54,-170,-178,-77,-212,-132,-171
-31,-60,-43,44,-1,-54,-170,-178,-77,-212,-132,-171
-31,-60,-43,44,-1,-54,-170,-178,-77,-212,-132,-171
-31,-60,-43,44,-1,-54,-170,-178,-77,-212,-132,-171
-31,-66,-49,44,5,-60,-170,-178,-77,-212,-126,-171
-31,-66,-49,44,5,-60,-170,-178,-77,-206,-126,-171
-31,-66,-49,44,5,-60,-170,-178,-77,-206,-126,-171
-31,-66,-49,44,5,-60,-170,-178,-77,-206,-126,-171
-31,-66,-49,44,5,-60,-170,-178,-77,-206,-126,-171
-31,-66,-49,44,5,-60,-170,-178,-77,-206,-120,-171
-31,-66,-49,44,5,-60,-170,-178,-77,-206,-120,-171
-31,-66,-49,44,5,-60,-170,-178,-77,-206,-120,-171
-31,-66,-49,44,5,-60,-170,-178,-77,-206,-120,-171
-31,-66,-49,44,5,-60,-170,-178,-77,-200,-120,-171
-31,-66,-49,44,5,-60,-170,-178,-77,-200,-120,-171
-31,-66,-49,44,5,-60,-170,-178,-77,-200,-120,-171
-31,-66,-49,44,5,-60,-170,-178,-77,-200,-120,-171
-31,-66,-49,44,5,-60,-170,-178,-77,-194,-120,-171
-31,-66,-49,44,5,-60,-170,-178,-77,-188,-120,-171
-31,-66,-49,44,5,-60,-170,-178,-77,-188,-120,-171
-31,-66,-49,44,5,-60,-170,-178,-77,-182,-120,-165
-31,-66,-49,44,5,-60,-170,-178,-77,-176,-120,-159
-31,-66,-49,44,5,-60,-170,-178,-71,-176,-120,-159
-31,-66,-49,44,5,-60,-170,-178,-71,-176,-120,-159
-31,-66,-49,44,5,-60,-170,-178,-71,-176,-120,-159
-31,-66,-49,44,5,-60,-170,-178,-71,-176,-120,-153
-31,-72,-55,44,5,-66,-170,-178,-71,-176,-120,-153
-31,-78,-61,44,5,-66,-170,-178,-71,-176,-120,-153
-31,-78,-61,44,5,-66,-170,-178,-71,-176,-120,-153
-31,-78,-61,44,5,-66,-170,-178,-71,-176,-120,-147
-31,-78,-61,44,5,-66,-170,-178,-71,-176,-120,-147
-31,-78,-61,44,5,-66,-170,-178,-71,-176,-120,-147
-31,-78,-61,44,5,-66,-170,-178,-71,-176,-120,-147
-31,-78,-61,44,5,-66,-170,-178,-71,-176,-120,-141
-31,-78,-61,44,5,-66,-170,-178,-71,-176,-120,-141
-31,-78,-61,44,5,-66,-170,-178,-71,-176,-120,-141
-31,-78,-61,44,11,-72,-170,-178,-71,-176,-120,-141
-31,-84,-67,44,17,-78,-170,-178,-65,-170,-120,-141
-31,-84,-67,44,17,-78,-170,-178,-65,-170,-120,-141
-31,-84,-67,44,17,-78,-170,-178,-65,-170,-120,-141
-31,-84,-67,44,17,-78,-170,-178,-65,-170,-120,-141
-31,-84,-67,44,17,-78,-170,-178,-65,-170,-120,-141
-31,-84,-67,44,17,-78,-170,-178,-65,-170,-120,-141
-31,-84,-67,44,17,-78,-170,-178,-59,-170,-120,-141
-31,-78,-67,44,17,-72,-170,-178,-59,-170,-120,-141
-31,-72,-67,44,17,-72,-170,-172,-53,-170,-120,-141
-31,-60,-61,38,17,-60,-164,-172,-53,-164,-120,-141
-31,-48,-49,32,17,-48,-164,-172,-47,-164,-120,-141
-31,-36,-43,26,17,-36,-164,-172,-47,-158,-120,-141
-31,-36,-43,26,17,-36,-158,-166,-41,-158,-120,-117
-25,-36,-43,26,17,-36,-152,-160,-41,-158,-114,-69
-25,-36,-43,26,17,-36,-146,-160,-41,-152,-108,-33
-25,-36,-43,26,17,-36,-146,-160,-41,-146,-108,-15
-25,-36,-43,26,17,-36,-146,-160,-35,-146,-108,-3
-25,-36,-43,26,17,-36,-140,-160,-35,-146,-108,3
-25,-36,-43,26,17,-36,-140,-160,-35,-146,-108,8
-25,-36,-43,26,17,-36,-140,-160,-35,-146,-108,14
-25,-36,-43,26,17,-36,-140,-160,-35,-146,-108,20
-19,-36,-43,26,17,-36,-140,-154,-35,-146,-108,26
-19,-36,-43,20,17,-36,-140,-154,-35,-140,-102,32
-13,-30,-43,14,17,-30,-140,-148,-35,-134,-96,44
-7,-24,-43,8,17,-24,-140,-148,-29,-128,-90,50
-1,-18,-43,2,23,-24,-140,-148,-29,-122,-84,62
4,-12,-43,2,29,-24,-146,-148,-23,-116,-78,68
10,-12,-43,-4,35,-24,-152,-148,-17,-116,-78,74
16,-12,-43,-9,35,-24,-158,-142,-11,-110,-72,80
22,-12,-43,-9,41,-24,-164,-142,-11,-110,-72,80
28,-12,-43,-9,47,-24,-164,-142,-11,-110,-72,80
28,-12,-43,-9,47,-24,-164,-142,-11,-110,-72,80
28,-12,-43,-9,47,-24,-164,-142,-11,-110,-72,80
28,-12,-49,-9,47,-24,-170,-142,-11,-110,-72,80
28,-12,-49,-9,47,-24,-170,-142,-11,-110,-72,80
28,-12,-49,-9,47,-24,-170,-142,-11,-116,-72,80
28,-12,-49,-9,47,-24,-170,-142,-17,-122,-72,80
28,-12,-49,-9,47,-24,-176,-142,-23,-128,-72,80
28,-18,-55,-9,47,-36,-176,-148,-23,-134,-72,80
28,-30,-61,-4,47,-48,-176,-148,-23,-140,-72,80
28,-36,-73,2,53,-54,-176,-148,-23,-140,-72,80
28,-42,-79,2,59,-60,-176,-148,-23,-140,-72,80
28,-48,-85,2,59,-60,-176,-154,-23,-140,-72,80
28,-48,-91,8,59,-66,-176,-160,-23,-140,-72,80
28,-60,-97,14,59,-78,-176,-160,-23,-140,-72,80
28,-72,-103,20,65,-90,-176,-166,-29,-146,-78,80
22,-78,-103,26,65,-96,-176,-172,-35,-152,-84,80
16,-84,-103,32,65,-96,-182,-172,-41,-158,-90,80
4,-84,-103,32,65,-96,-182,-172,-47,-164,-96,80
-1,-84,-103,38,59,-96,-182,-178,-53,-170,-102,74
-7,-84,-103,44,53,-96,-182,-178,-59,-176,-108,68
-13,-84,-103,44,53,-96,-188,-178,-65,-176,-108,62
-19,-90,-103,50,47,-96,-188,-184,-65,-182,-114,62
-19,-90,-103,50,41,-96,-188,-190,-65,-182,-114,56
-19,-90,-97,56,41,-96,-194,-196,-71,-182,-114,56
-19,-96,-97,56,41,-96,-200,-202,-71,-188,-114,56
-19,-102,-97,56,41,-96,-200,-202,-71,-188,-114,56
-19,-102,-97,56,41,-96,-200,-202,-71,-188,-114,56
-19,-102,-97,56,41,-96,-200,-202,-71,-188,-114,56
-19,-102,-91,56,41,-96,-200,-196,-71,-188,-114,56
-19,-96,-85,56,41,-96,-200,-196,-71,-188,-114,56
-19,-90,-79,56,41,-90,-200,-190,-65,-182,-114,56
-19,-84,-73,56,41,-84,-200,-184,-59,-176,-108,56
-19,-78,-67,56,35,-78,-200,-178,-47,-164,-96,62
-19,-72,-61,56,29,-78,-194,-172,-29,-146,-84,68
-19,-66,-55,56,23,-72,-188,-166,-17,-134,-72,74
-19,-66,-49,50,17,-66,-182,-154,-5,-122,-60,86
-19,-66,-49,50,17,-66,-170,-136,12,-110,-54,98
-19,-60,-43,44,17,-60,-158,-106,24,-92,-42,104
-19,-48,-31,38,17,-48,-146,-76,48,-74,-30,110
-19,-36,-19,38,11,-36,-134,-64,60,-56,-18,116
-19,-30,-13,38,11,-30,-122,-40,90,-38,-6,122
-19,-24,-13,38,11,-24,-110,-28,114,-26,6,128
-19,-18,-7,38,11,-24,-104,-16,132,-14,17,128
-19,-18,-7,32,11,-24,-98,-10,144,-2,23,128
-19,-18,-7,26,11,-24,-92,1,150,4,29,128
-13,-24,-31,26,17,-36,-86,13,162,9,35,128
-7,-30,-61,26,23,-48,-80,37,174,15,35,128
-1,-36,-73,26,35,-60,-68,49,180,15,35,128
10,-42,-85,26,47,-66,-56,67,186,15,35,128
16,-48,-91,26,59,-78,-44,91,198,21,35,128
22,-48,-103,26,71,-84,-32,115,216,33,41,128
28,-48,-109,26,77,-84,-14,127,246,45,53,128
34,-48,-115,26,83,-90,9,157,276,63,65,134
40,-48,-121,26,89,-90,39,199,306,99,83,140
40,-48,-121,20,89,-90,81,265,360,141,113,146
40,-48,-121,20,89,-90,141,349,438,201,155,158
40,-48,-121,20,89,-90,201,421,498,243,179,164
40,-48,-115,20,89,-90,267,499,540,267,191,170
40,-48,-103,14,83,-84,339,571,588,297,203,176
34,-48,-91,14,77,-78,435,661,648,339,227,182
28,-48,-79,14,71,-72,543,781,744,411,263,194
16,-48,-73,14,65,-72,639,883,828,471,299,206
10,-48,-67,20,59,-72,741,997,918,537,341,224
4,-42,-55,20,47,-60,831,1111,1008,627,401,254
-1,-6,-19,20,29,-12,939,1237,1134,735,473,296
-1,35,22,8,5,29,1059,1435,1314,897,581,356
-1,83,82,-15,-18,71,1197,1675,1560,1125,737,434
-1,143,160,-45,-60,143,1347,1927,1848,1401,929,548
-1,215,220,-87,-78,221,1473,2202,2189,1719,1157,668
10,317,268,-159,-84,275,1539,2453,2554,2072,1415,812
58,437,322,-255,-84,371,1545,2639,2908,2443,1703,992
124,611,418,-369,-96,509,1509,2783,3256,2827,2015,1184
190,791,532,-489,-114,659,1425,2921,3616,3205,2320,1376
262,947,592,-603,-120,785,1305,3005,3910,3559,2595,1550
364,1079,646,-717,-120,863,1137,3035,4186,3853,2847,1718
448,1151,664,-795,-114,899,933,3071,4444,4141,3081,1862
490,1151,634,-813,-72,893,789,3095,4636,4285,3195,1904
490,983,478,-771,-1,719,705,3059,4624,4165,3159,1880
454,737,328,-609,35,515,615,2729,4198,3601,2775,1634
328,521,244,-429,41,365,525,2262,3550,2899,2284,1340
154,377,238,-267,17,299,423,1639,2722,2204,1775,1064
-49,257,250,-105,-120,281,285,853,1734,1455,1211,752
-247,143,304,56,-258,263,147,109,762,711,611,422
-361,65,346,146,-342,251,15,-376,102,153,95,128
-391,35,364,176,-372,239,-104,-556,-179,-92,-168,-15
-391,35,370,176,-372,233,-224,-598,-221,-128,-198,-33
-373,41,370,164,-366,233,-344,-616,-227,-128,-198,-33
-343,53,370,146,-354,233,-422,-628,-227,-128,-186,-21
-313,65,370,122,-330,227,-482,-640,-227,-134,-174,-9
-283,71,358,110,-300,221,-512,-640,-233,-146,-168,3
-247,71,316,98,-264,209,-524,-640,-239,-164,-168,8
-217,71,274,86,-228,185,-524,-634,-239,-188,-168,14
-187,65,220,80,-186,155,-500,-592,-239,-206,-168,14
-157,53,172,74,-156,125,-446,-550,-233,-218,-168,14
-139,41,142,74,-132,95,-398,-496,-221,-230,-168,14
-127,29,112,74,-120,65,-356,-454,-215,-230,-168,14
-121,5,88,74,-102,35,-314,-406,-209,-230,-168,14
-115,-30,58,74,-84,5,-260,-358,-209,-230,-162,14
-109,-48,40,74,-66,-18,-218,-322,-209,-230,-156,14
-103,-54,28,74,-54,-24,-194,-298,-209,-230,-150,14
-97,-54,22,74,-42,-30,-182,-286,-209,-230,-144,14
-91,-54,10,74,-30,-30,-170,-280,-209,-230,-132,14
-85,-60,-13,74,-18,-36,-164,-274,-215,-224,-108,20
-79,-66,-31,74,-6,-48,-158,-262,-221,-218,-90,26
-73,-78,-55,74,5,-60,-152,-250,-233,-218,-78,26
-67,-84,-61,74,11,-72,-152,-244,-245,-218,-72,26
-67,-84,-61,74,11,-78,-152,-244,-257,-218,-72,26
-67,-90,-61,74,11,-84,-146,-238,-269,-218,-66,26
-67,-102,-61,74,17,-90,-146,-232,-275,-218,-60,26
-61,-102,-61,74,17,-90,-146,-226,-281,-218,-54,26
-55,-102,-61,74,17,-90,-146,-220,-281,-218,-54,26
-55,-102,-61,74,23,-90,-146,-220,-287,-218,-48,26
-55,-102,-67,74,29,-90,-146,-220,-287,-218,-42,32
-49,-102,-73,74,29,-90,-146,-220,-287,-218,-42,32
-43,-102,-73,74,29,-90,-146,-220,-293,-218,-42,32
-43,-102,-79,74,29,-90,-146,-214,-299,-218,-42,32
-43,-102,-79,74,35,-90,-146,-214,-299,-218,-42,32
-43,-102,-79,74,35,-90,-146,-214,-305,-218,-36,32
-43,-102,-79,74,35,-90,-146,-208,-305,-218,-36,38
-37,-102,-79,74,35,-90,-146,-202,-305,-218,-30,44
-37,-102,-79,74,41,-90,-140,-196,-305,-218,-24,50
-31,-102,-79,74,41,-90,-140,-196,-305,-218,-24,50
-31,-102,-79,74,41,-90,-140,-196,-305,-218,-24,50
-31,-102,-79,68,41,-90,-134,-196,-305,-218,-24,50
-31,-102,-79,62,41,-90,-134,-196,-311,-218,-24,50
-31,-102,-79,62,41,-90,-134,-196,-317,-218,-24,50
-31,-96,-79,62,41,-90,-134,-196,-317,-218,-24,50
-31,-96,-79,62,41,-90,-134,-196,-317,-218,-18,56
-31,-96,-79,62,41,-90,-128,-196,-317,-218,-18,56
-25,-96,-79,56,41,-90,-128,-196,-317,-218,-18,62
-25,-96,-79,56,41,-90,-128,-196,-317,-218,-18,62
-25,-96,-79,50,41,-90,-128,-196,-317,-218,-18,62
-25,-96,-79,50,41,-90,-128,-196,-317,-218,-18,62
-25,-96,-85,50,47,-90,-122,-190,-317,-212,-12,68
-19,-96,-91,50,53,-96,-116,-190,-317,-206,-6,74
-19,-96,-91,50,53,-96,-116,-184,-323,-206,-6,80
-19,-96,-91,50,53,-90,-116,-184,-329,-206,-6,80
-19,-96,-91,50,53,-90,-116,-184,-335,-206,0,80
-19,-96,-91,50,53,-90,-110,-184,-335,-206,6,86
-19,-96,-91,50,53,-90,-110,-178,-335,-206,6,92
-13,-90,-91,44,53,-90,-110,-178,-335,-206,6,92
-13,-84,-85,38,53,-84,-110,-178,-335,-206,6,92
-13,-78,-85,32,53,-84,-110,-172,-335,-206,6,92
-13,-72,-85,26,53,-78,-110,-172,-335,-206,6,92
-13,-66,-79,26,53,-78,-110,-172,-335,-206,11,92
-13,-66,-79,26,53,-72,-110,-172,-335,-206,11,98
-7,-66,-79,20,53,-72,-110,-172,-335,-206,11,104
-1,-60,-79,20,53,-66,-110,-166,-335,-206,11,104
-1,-54,-73,14,53,-60,-110,-166,-341,-206,11,104
-1,-48,-67,14,53,-60,-110,-160,-341,-206,17,104
-1,-42,-61,14,53,-60,-110,-154,-341,-206,23,104
4,-42,-61,8,53,-60,-104,-148,-341,-200,29,110
10,-42,-61,8,53,-60,-98,-142,-341,-194,35,116
10,-42,-67,8,53,-60,-92,-136,-341,-188,41,122
10,-42,-67,2,53,-60,-86,-130,-341,-188,47,128
10,-42,-67,2,53,-60,-86,-130,-341,-182,53,134
10,-42,-67,2,53,-60,-80,-124,-335,-176,59,140
16,-42,-67,2,53,-60,-74,-118,-329,-170,65,152
16,-42,-67,-4,53,-54,-74,-112,-329,-164,71,158
16,-30,-61,-9,53,-48,-68,-106,-329,-164,71,164
22,-18,-55,-15,53,-42,-68,-100,-329,-158,71,164
22,-1,-43,-21,53,-30,-68,-100,-329,-158,77,164
22,11,-31,-27,53,-18,-68,-94,-323,-158,77,164
22,11,-31,-27,53,-12,-62,-88,-317,-152,83,170
28,11,-31,-27,53,-12,-56,-82,-305,-146,89,176
28,17,-31,-33,53,-6,-50,-76,-299,-140,89,182
28,29,-25,-39,53,-1,-50,-70,-293,-134,95,188
28,35,-19,-45,53,5,-44,-58,-287,-128,101,188
28,41,-19,-45,53,11,-38,-46,-281,-116,107,194
34,47,-13,-45,53,11,-32,-34,-275,-104,119,200
40,47,-13,-45,53,11,-20,-22,-269,-92,131,206
40,47,-13,-45,53,11,-14,-10,-257,-86,143,212
40,53,-13,-51,53,17,-8,-4,-245,-74,155,218
40,53,-13,-57,53,23,-3,7,-233,-62,161,224
46,59,-7,-57,53,29,3,13,-227,-56,167,224
46,65,-2,-63,53,35,9,25,-221,-50,173,224
46,71,4,-63,53,41,9,37,-215,-38,179,230
46,71,4,-69,53,41,9,49,-203,-26,185,236
46,71,4,-69,47,41,9,61,-179,-14,197,248
46,77,10,-69,47,41,15,79,-167,4,209,254
46,77,16,-69,41,41,15,91,-155,15,221,260
46,83,22,-69,41,47,15,97,-143,21,233,266
46,95,34,-75,35,59,15,103,-125,33,239,266
46,107,46,-81,29,71,15,109,-113,45,245,266
46,113,52,-87,23,77,15,121,-101,57,251,266
46,119,58,-93,23,83,21,133,-89,69,257,266
46,119,58,-93,23,83,27,151,-77,81,269,272
46,119,58,-93,23,83,39,169,-59,93,275,278
46,119,58,-93,17,89,45,181,-41,111,287,284
46,125,64,-93,11,95,51,193,-35,123,293,290
46,131,70,-93,5,101,57,199,-23,135,299,290
46,131,70,-93,5,101,63,211,-11,147,305,296
46,131,70,-93,5,101,69,223,12,159,311,296
46,131,70,-93,5,101,69,229,24,171,317,296
46,131,70,-93,5,101,75,241,36,183,317,296
46,131,70,-93,5,101,81,247,42,195,317,296
46,131,70,-93,5,101,81,253,48,201,317,296
46,125,64,-93,5,95,81,259,60,207,317,296
46,113,58,-87,5,89,81,265,66,213,317,296
46,113,58,-87,5,89,81,265,66,219,317,296
46,113,58,-87,5,89,81,265,66,219,317,290
46,107,58,-81,5,83,81,265,66,219,317,284
46,95,52,-75,5,71,81,265,66,219,317,278
46,83,46,-69,5,59,81,259,66,219,311,278
46,77,40,-63,5,53,81,247,60,213,275,272
46,71,40,-63,5,53,75,235,48,201,221,260
46,65,40,-57,5,53,69,211,36,189,185,248
46,65,34,-57,5,53,63,193,18,177,155,236
46,53,28,-57,5,47,57,181,6,165,137,224
40,41,16,-45,11,35,51,169,-5,153,125,212
40,17,-2,-33,17,11,45,157,-17,141,113,200
40,5,-13,-27,23,-1,39,145,-29,129,107,194
34,-1,-19,-21,23,-6,33,127,-53,111,95,182
28,-1,-19,-21,23,-6,21,115,-77,93,83,170
22,-12,-25,-15,23,-12,15,91,-95,81,65,158
22,-24,-31,-9,23,-18,9,79,-107,69,53,152
22,-36,-37,-4,29,-24,3,61,-125,57,35,140
16,-42,-43,2,29,-30,-3,43,-143,27,23,134
10,-48,-43,8,29,-36,-14,31,-155,15,11,122
4,-54,-43,8,29,-42,-20,19,-167,4,0,110
4,-60,-49,14,29,-48,-26,13,-173,-8,-6,104
4,-66,-61,20,29,-60,-32,7,-179,-14,-12,98
4,-72,-67,26,29,-66,-38,1,-191,-20,-18,92
4,-72,-67,26,29,-66,-44,-10,-203,-32,-30,86
4,-72,-67,26,29,-66,-50,-22,-215,-38,-42,80
4,-84,-73,32,29,-72,-56,-28,-221,-44,-54,74
-1,-90,-73,38,29,-78,-56,-34,-227,-50,-60,68
-1,-96,-79,44,29,-84,-56,-40,-227,-56,-66,68
-1,-96,-79,44,35,-84,-62,-46,-227,-62,-66,68
-1,-102,-79,44,35,-84,-62,-46,-233,-68,-72,62
-1,-102,-79,50,35,-84,-62,-52,-239,-74,-78,56
-1,-108,-79,50,35,-90,-62,-58,-239,-74,-78,56
-1,-108,-79,50,35,-96,-68,-58,-239,-74,-78,56
-1,-108,-79,50,35,-96,-68,-58,-239,-74,-78,50
-1,-108,-79,50,35,-96,-68,-64,-239,-74,-84,50
-7,-108,-79,50,35,-96,-68,-64,-239,-74,-84,44
-13,-108,-85,50,35,-96,-68,-64,-245,-74,-90,44
-13,-114,-91,50,35,-102,-68,-64,-245,-74,-90,44
-13,-114,-97,50,35,-102,-68,-64,-245,-74,-90,44
-13,-114,-97,50,35,-102,-68,-64,-245,-80,-96,44
-13,-114,-97,50,35,-102,-68,-64,-245,-80,-102,44
-13,-114,-97,50,35,-102,-68,-64,-245,-80,-102,44
-13,-114,-97,50,35,-102,-68,-64,-245,-80,-102,44
-13,-114,-97,50,35,-102,-68,-64,-245,-86,-102,44
-13,-120,-97,50,35,-102,-68,-64,-245,-86,-102,44
-13,-126,-97,50,35,-102,-68,-64,-245,-86,-102,44
-13,-126,-97,50,35,-102,-68,-64,-245,-86,-102,44
-13,-126,-97,50,35,-102,-68,-64,-245,-86,-102,44
-19,-126,-97,50,35,-102,-68,-64,-245,-86,-102,44
-19,-126,-97,50,35,-102,-68,-64,-245,-86,-102,44
-19,-126,-97,50,35,-102,-68,-64,-245,-86,-102,44
-19,-126,-97,50,35,-102,-68,-64,-245,-86,-102,44
-19,-126,-97,50,35,-102,-68,-64,-245,-86,-102,44
-19,-120,-91,50,35,-102,-74,-64,-245,-86,-102,44
-19,-114,-85,50,35,-96,-74,-64,-245,-86,-102,44
-19,-114,-85,50,35,-96,-74,-70,-245,-86,-102,44
-19,-114,-85,50,35,-96,-74,-70,-245,-86,-102,44
-19,-114,-85,50,35,-96,-74,-70,-245,-86,-102,44
-19,-114,-85,50,35,-96,-74,-70,-245,-86,-102,44
-19,-114,-85,50,35,-96,-80,-70,-245,-86,-102,44
-19,-114,-85,50,35,-96,-80,-70,-245,-86,-102,44
-19,-114,-85,50,35,-96,-80,-70,-245,-86,-102,44
-19,-114,-85,50,35,-96,-80,-70,-245,-86,-102,44
-19,-114,-85,50,35,-96,-80,-70,-245,-86,-102,44
-19,-114,-85,50,35,-96,-80,-70,-245,-86,-102,44
-19,-114,-79,50,35,-96,-80,-70,-245,-86,-102,44
-19,-114,-79,50,35,-96,-80,-70,-245,-86,-96,44
-19,-114,-79,50,35,-96,-80,-70,-245,-80,-90,44
-19,-114,-79,50,35,-96,-80,-70,-245,-74,-90,44
-19,-114,-79,50,35,-96,-80,-70,-245,-74,-90,44
-19,-114,-79,50,35,-90,-80,-70,-245,-74,-90,44
-19,-108,-73,50,35,-84,-80,-70,-245,-74,-90,44
-19,-102,-67,50,35,-84,-86,-76,-245,-74,-90,44
-19,-102,-67,50,35,-78,-86,-76,-245,-74,-90,44
-25,-102,-67,50,35,-78,-86,-76,-245,-74,-90,44
-25,-102,-67,50,35,-78,-86,-76,-245,-74,-90,44
-25,-102,-67,50,35,-78,-86,-76,-245,-74,-90,50
-25,-102,-67,50,35,-78,-92,-76,-245,-74,-90,50
-25,-102,-67,50,35,-78,-92,-82,-245,-74,-90,50
-25,-102,-67,50,35,-78,-92,-82,-245,-74,-90,50
-25,-102,-67,50,35,-78,-92,-82,-245,-74,-90,50
-25,-96,-67,50,35,-78,-92,-82,-245,-80,-90,50
-25,-96,-61,50,35,-78,-92,-82,-245,-86,-90,50
-25,-96,-61,50,35,-78,-92,-82,-245,-92,-90,50
-25,-96,-61,44,35,-78,-92,-82,-245,-98,-84,50
-25,-90,-61,44,35,-78,-92,-82,-245,-98,-84,50
-25,-90,-61,44,35,-78,-92,-82,-245,-104,-84,50
-25,-84,-61,44,35,-78,-92,-82,-245,-104,-84,50
-25,-84,-61,44,35,-72,-92,-82,-245,-110,-84,50
-25,-84,-61,44,35,-72,-98,-82,-245,-116,-84,50
-25,-84,-61,44,35,-72,-104,-82,-245,-116,-84,50
-25,-90,-67,44,35,-78,-104,-82,-245,-116,-84,50
-25,-96,-67,44,35,-78,-110,-82,-245,-116,-84,50
-25,-96,-67,44,35,-78,-110,-88,-245,-122,-84,50
-25,-96,-67,44,35,-78,-110,-88,-245,-122,-84,50
-25,-96,-67,44,35,-78,-110,-88,-245,-122,-84,50
-25,-96,-67,44,35,-78,-116,-88,-245,-122,-84,50
-25,-96,-67,44,35,-78,-116,-88,-245,-128,-84,50
-25,-96,-67,44,35,-78,-116,-94,-245,-128,-84,50
-25,-96,-67,44,35,-78,-116,-100,-245,-128,-84,50
-25,-96,-67,44,35,-78,-116,-100,-245,-128,-84,50
-25,-96,-67,44,35,-78,-116,-100,-245,-128,-84,50
-25,-96,-67,44,35,-78,-116,-100,-245,-128,-84,50
-25,-96,-67,44,35,-78,-116,-100,-245,-128,-84,50
-25,-96,-67,44,35,-78,-116,-100,-245,-134,-84,50
-25,-96,-67,44,35,-78,-116,-100,-245,-134,-84,50
-25,-96,-67,44,35,-78,-116,-100,-245,-134,-84,50
-25,-96,-67,44,35,-78,-116,-106,-245,-134,-84,50
-25,-96,-67,44,35,-78,-116,-106,-245,-134,-84,50
-25,-96,-67,44,35,-78,-116,-106,-245,-140,-84,44
-25,-96,-67,44,35,-78,-116,-106,-245,-140,-84,44
-25,-96,-67,44,35,-78,-122,-106,-245,-140,-84,44
-25,-102,-73,44,35,-84,-122,-106,-245,-140,-84,44
-25,-102,-73,44,35,-84,-122,-106,-245,-140,-84,38
-25,-102,-73,44,35,-84,-122,-112,-245,-146,-84,38
-25,-102,-73,44,35,-84,-122,-118,-251,-146,-84,32
-25,-102,-73,44,35,-84,-122,-118,-251,-146,-84,32
-25,-102,-73,44,35,-84,-122,-118,-251,-152,-84,32
-25,-102,-73,44,35,-84,-122,-118,-251,-152,-84,32
-25,-102,-73,44,35,-90,-122,-118,-251,-152,-84,32
-25,-102,-73,44,35,-96,-122,-118,-251,-152,-84,32
-25,-102,-73,44,35,-96,-122,-118,-251,-152,-84,32
-25,-102,-73,44,35,-96,-128,-118,-251,-152,-84,26
-25,-102,-73,44,35,-96,-128,-124,-257,-152,-84,26
-25,-102,-73,44,35,-90,-128,-124,-257,-152,-84,20
-25,-102,-73,44,35,-90,-128,-124,-257,-152,-84,20
-25,-108,-79,44,35,-90,-128,-124,-257,-152,-84,20
-25,-108,-79,44,35,-90,-128,-124,-257,-152,-84,20
-25,-108,-79,44,35,-90,-128,-130,-257,-152,-84,20
-25,-108,-79,44,35,-90,-128,-130,-257,-152,-84,20
-25,-108,-79,44,35,-90,-128,-130,-257,-152,-84,20
-25,-108,-79,44,35,-90,-128,-130,-257,-152,-84,20
-25,-108,-79,44,35,-90,-128,-136,-257,-152,-84,20
-25,-108,-79,44,35,-96,-128,-136,-257,-152,-84,20
-25,-108,-79,44,35,-96,-128,-136,-257,-152,-84,20
-25,-108,-79,44,35,-96,-128,-136,-257,-152,-84,20
-25,-108,-79,44,35,-96,-128,-136,-257,-152,-84,14
-25,-114,-79,44,35,-96,-128,-136,-257,-158,-84,14
-25,-120,-85,44,35,-96,-128,-136,-257,-158,-84,14
-25,-120,-91,44,35,-102,-128,-136,-257,-158,-84,14
-25,-120,-91,44,35,-102,-128,-136,-257,-158,-84,14
-25,-120,-91,44,35,-102,-128,-136,-257,-158,-90,8
-25,-120,-91,44,35,-102,-128,-136,-257,-158,-90,3
-25,-120,-91,44,35,-102,-128,-136,-257,-158,-96,3
-25,-120,-91,44,35,-102,-128,-142,-257,-158,-96,3
-25,-120,-91,44,35,-102,-134,-142,-257,-158,-96,-3
-25,-120,-91,44,35,-102,-134,-142,-257,-158,-96,-9
-25,-120,-91,44,35,-102,-134,-142,-257,-158,-96,-9
-25,-120,-91,44,35,-102,-134,-142,-257,-158,-96,-9
-25,-120,-91,44,35,-102,-134,-142,-257,-158,-102,-9
-25,-120,-91,44,35,-102,-134,-142,-257,-158,-102,-15
-25,-120,-91,44,35,-102,-134,-142,-257,-158,-102,-21
-25,-120,-91,44,35,-102,-134,-142,-257,-158,-102,-21
-25,-120,-91,44,35,-102,-134,-142,-257,-158,-102,-21
-25,-120,-91,44,35,-102,-134,-142,-257,-158,-102,-21
-25,-120,-91,44,35,-102,-134,-142,-257,-158,-102,-27
-25,-120,-91,44,35,-102,-134,-142,-257,-158,-102,-27
-25,-120,-91,50,35,-102,-134,-142,-257,-158,-102,-27
-25,-120,-91,50,35,-102,-134,-142,-257,-158,-102,-27
-25,-120,-91,50,35,-102,-134,-142,-257,-158,-102,-27
-25,-120,-91,50,35,-102,-134,-142,-257,-158,-102,-27
-25,-120,-91,50,35,-102,-134,-142,-257,-158,-102,-27
-25,-120,-91,50,35,-102,-134,-142,-257,-158,-102,-27
-25,-120,-91,50,35,-102,-134,-142,-257,-158,-102,-27
-25,-120,-91,50,35,-102,-134,-142,-257,-158,-102,-27
-25,-120,-91,50,35,-102,-134,-142,-257,-158,-102,-27
-25,-126,-91,56,35,-108,-134,-142,-257,-158,-102,-27
-31,-126,-91,56,35,-108,-134,-142,-257,-158,-102,-27
-31,-126,-91,56,35,-108,-134,-142,-257,-158,-108,-27
-31,-126,-91,56,35,-108,-134,-142,-257,-158,-108,-27
-31,-126,-91,56,35,-108,-134,-142,-257,-158,-108,-27
-31,-132,-91,56,35,-108,-134,-142,-257,-158,-108,-27
-31,-132,-91,56,35,-114,-134,-142,-257,-158,-108,-27
-31,-132,-91,56,35,-114,-134,-142,-257,-158,-108,-27
-31,-132,-91,56,35,-114,-134,-142,-257,-158,-108,-27
-31,-132,-91,56,35,-114,-134,-142,-257,-158,-108,-27
-31,-132,-91,56,35,-114,-134,-142,-257,-158,-114,-27
-31,-132,-91,56,35,-114,-134,-142,-257,-158,-114,-27
-31,-132,-91,56,35,-114,-140,-142,-257,-158,-114,-27
-31,-132,-91,56,35,-114,-140,-142,-257,-158,-114,-27
-31,-132,-91,56,35,-114,-140,-142,-257,-158,-114,-27
-31,-126,-85,56,35,-108,-146,-142,-263,-164,-120,-27
-31,-126,-85,56,35,-108,-146,-142,-263,-170,-120,-27
-31,-126,-85,56,35,-108,-146,-142,-263,-170,-120,-27
-31,-126,-85,56,35,-108,-146,-142,-263,-170,-120,-27
-31,-126,-85,56,35,-108,-146,-142,-263,-170,-120,-27
-31,-126,-85,56,35,-108,-146,-142,-263,-170,-120,-27
-31,-126,-85,56,35,-108,-146,-142,-263,-170,-120,-27
-31,-126,-85,56,35,-108,-146,-142,-263,-170,-120,-27
-31,-126,-85,56,35,-108,-146,-142,-263,-170,-120,-27
-31,-126,-85,56,35,-108,-146,-142,-263,-170,-120,-27
-31,-126,-85,56,35,-108,-146,-136,-257,-170,-120,-27
-31,-126,-85,56,35,-108,-146,-130,-251,-164,-120,-27
-31,-120,-85,56,35,-102,-146,-124,-251,-164,-120,-27
-31,-114,-85,56,35,-96,-146,-124,-251,-164,-120,-27
-31,-108,-85,50,35,-96,-146,-124,-251,-164,-120,-27
-31,-102,-79,44,35,-90,-146,-124,-245,-164,-120,-27
-31,-102,-79,44,35,-90,-140,-124,-245,-164,-120,-27
-31,-96,-79,44,35,-84,-140,-124,-245,-164,-120,-27
-31,-90,-73,44,35,-78,-140,-124,-245,-158,-120,-27
-31,-90,-73,44,35,-78,-140,-124,-245,-158,-120,-27
-31,-90,-73,44,35,-78,-140,-124,-245,-158,-120,-27
-31,-90,-73,44,35,-78,-140,-118,-245,-158,-120,-27
-31,-90,-73,44,35,-78,-140,-118,-239,-152,-120,-27
-25,-84,-73,38,35,-78,-140,-118,-233,-146,-114,-27
-19,-78,-73,32,35,-78,-140,-118,-227,-140,-114,-27
-13,-72,-73,26,35,-72,-140,-118,-221,-134,-108,-21
-7,-60,-67,20,35,-66,-140,-118,-215,-128,-102,-9
-1,-54,-67,14,41,-66,-140,-112,-209,-128,-96,-3
4,-54,-67,8,47,-66,-146,-106,-209,-128,-90,3
10,-54,-67,2,47,-66,-152,-106,-203,-122,-84,8
16,-48,-67,-4,47,-60,-152,-106,-203,-122,-84,14
16,-42,-67,-9,47,-54,-158,-106,-203,-122,-84,14
16,-42,-67,-9,47,-54,-158,-106,-203,-122,-84,14
16,-42,-67,-9,47,-54,-158,-106,-203,-122,-84,14
16,-42,-67,-9,47,-54,-158,-106,-203,-122,-84,14
16,-42,-67,-9,53,-60,-158,-106,-203,-122,-84,14
16,-48,-73,-4,59,-66,-158,-106,-203,-122,-84,14
16,-60,-79,-4,59,-72,-158,-106,-203,-122,-84,14
16,-66,-79,2,59,-78,-158,-112,-203,-128,-84,14
16,-72,-85,8,59,-84,-158,-112,-203,-128,-84,14
16,-78,-97,8,65,-90,-164,-112,-203,-134,-84,14
16,-84,-103,8,65,-90,-170,-118,-203,-134,-84,14
16,-84,-103,8,65,-90,-170,-118,-203,-134,-90,14
16,-84,-103,8,65,-90,-170,-118,-203,-140,-90,14
16,-90,-109,8,65,-90,-170,-124,-203,-146,-96,14
16,-96,-109,14,65,-96,-170,-124,-203,-146,-96,14
16,-102,-109,20,65,-102,-170,-130,-209,-146,-102,14
10,-108,-109,26,65,-108,-170,-136,-215,-152,-108,8
4,-120,-109,38,65,-114,-170,-142,-221,-152,-108,8
-7,-126,-109,50,65,-120,-170,-142,-221,-152,-114,8
-19,-132,-109,56,65,-120,-170,-148,-221,-164,-120,3
-25,-132,-109,62,65,-120,-170,-154,-221,-170,-126,-3
-31,-138,-109,62,65,-126,-170,-154,-221,-176,-132,-9
-31,-150,-115,62,65,-132,-170,-154,-221,-176,-138,-9
-31,-156,-121,68,65,-138,-170,-154,-221,-182,-144,-9
-31,-162,-121,68,65,-144,-170,-160,-221,-182,-144,-9
-31,-162,-121,68,65,-144,-170,-166,-221,-182,-144,-9
-31,-162,-121,68,59,-144,-170,-172,-227,-188,-144,-9
-31,-162,-121,68,53,-144,-170,-178,-233,-188,-144,-9
-31,-162,-115,68,53,-144,-170,-178,-233,-188,-144,-9
-31,-156,-115,68,53,-138,-170,-178,-233,-188,-144,-9
-31,-156,-115,68,53,-132,-170,-172,-233,-188,-144,-9
-31,-156,-109,68,53,-132,-170,-166,-233,-182,-144,-9
-31,-156,-103,68,53,-132,-170,-160,-221,-176,-138,-9
-31,-150,-97,68,53,-126,-164,-154,-209,-170,-132,-9
-31,-138,-91,68,53,-120,-158,-142,-191,-158,-126,-3
-31,-126,-85,68,47,-108,-152,-136,-179,-146,-114,3
-31,-114,-79,62,41,-102,-146,-130,-167,-134,-108,8
-31,-108,-73,62,41,-96,-140,-118,-155,-122,-96,14
-31,-102,-67,62,35,-90,-134,-100,-143,-104,-84,20
-31,-96,-61,56,29,-84,-128,-76,-131,-86,-72,26
-31,-96,-55,56,23,-72,-122,-58,-113,-74,-60,32
-31,-90,-55,56,23,-72,-110,-28,-83,-62,-48,38
-31,-90,-55,56,23,-72,-92,-10,-59,-44,-36,44
-31,-90,-55,50,23,-72,-80,1,-47,-32,-30,50
-31,-90,-55,50,23,-72,-68,13,-35,-26,-24,50
-25,-90,-55,50,23,-72,-62,25,-23,-14,-18,50
-19,-90,-61,50,29,-78,-50,31,-11,-8,-18,50
-13,-90,-73,50,41,-84,-44,43,-5,-2,-18,50
-7,-90,-91,50,53,-96,-38,55,1,4,-18,50
-1,-102,-115,50,65,-108,-32,67,6,4,-18,50
4,-108,-127,50,77,-114,-26,85,12,9,-18,50
10,-114,-139,50,83,-120,-14,103,24,15,-12,50
16,-114,-145,50,89,-120,-3,121,48,21,0,50
22,-114,-151,44,95,-120,21,145,72,33,11,50
28,-114,-157,44,101,-120,51,187,114,69,29,56
34,-108,-157,38,101,-120,99,247,174,123,65,68
34,-102,-151,32,101,-120,165,325,246,183,107,80
34,-102,-151,32,101,-120,219,409,306,231,137,86
34,-102,-151,32,101,-120,267,481,360,273,161,92
34,-102,-145,26,101,-120,321,559,402,303,173,98
34,-96,-133,26,95,-114,393,631,456,333,185,98
34,-90,-121,26,89,-108,495,733,528,375,203,104
28,-90,-109,26,83,-102,603,835,612,435,245,110
22,-90,-103,26,77,-96,705,943,690,507,281,122
16,-84,-91,26,71,-84,813,1057,786,585,341,152
10,-66,-67,26,59,-66,927,1183,900,699,413,188
10,-48,-43,20,47,-42,1053,1351,1056,843,509,230
4,-18,-2,14,23,-12,1197,1579,1260,1017,635,290
-7,29,70,2,-18,47,1341,1831,1536,1263,797,368
-13,107,160,-33,-60,137,1461,2106,1836,1545,989,482
-13,209,208,-87,-84,215,1557,2376,2189,1851,1211,602
10,323,274,-171,-90,305,1599,2615,2542,2180,1469,752
52,467,358,-273,-102,419,1599,2783,2890,2539,1757,932
124,629,442,-387,-114,545,1575,2927,3244,2911,2051,1118
208,767,508,-507,-114,629,1491,3059,3586,3271,2362,1298
292,899,544,-603,-114,719,1359,3125,3874,3601,2625,1478
382,1001,574,-705,-102,773,1173,3161,4150,3913,2889,1652
460,1037,574,-747,-66,785,999,3203,4396,4159,3099,1766
484,1013,508,-747,-24,749,879,3203,4474,4177,3123,1772
478,797,352,-657,23,581,777,3035,4318,3883,2949,1658
406,545,214,-489,53,383,669,2639,3760,3223,2487,1382
256,371,172,-327,53,275,561,2106,3022,2509,1973,1082
64,269,178,-177,-36,251,441,1375,2123,1815,1451,800
-145,161,256,-15,-180,245,285,553,1128,1071,881,494
-331,53,322,128,-300,227,153,-106,258,417,311,176
-409,11,364,194,-360,215,9,-472,-239,-2,-90,-51
-415,5,382,200,-378,209,-152,-598,-395,-122,-222,-129
-409,5,382,194,-378,209,-296,-622,-413,-128,-222,-129
-379,11,382,176,-372,209,-410,-628,-413,-128,-216,-117
-337,17,370,158,-360,203,-482,-640,-413,-128,-210,-105
-295,23,358,140,-330,197,-530,-652,-419,-134,-204,-93
-265,23,316,128,-288,185,-566,-652,-425,-158,-204,-81
-235,23,262,116,-246,167,-572,-652,-437,-188,-204,-75
-205,23,220,98,-204,143,-566,-634,-437,-218,-204,-69
-181,23,178,86,-162,113,-524,-592,-437,-230,-204,-69
-163,11,136,80,-126,71,-464,-550,-431,-236,-204,-69
-145,-12,94,80,-102,35,-410,-502,-419,-242,-204,-69
-133,-30,70,80,-90,11,-362,-460,-395,-242,-204,-69
-127,-42,58,80,-78,-1,-326,-412,-383,-242,-204,-69
-115,-54,46,80,-72,-12,-296,-382,-371,-242,-204,-69
-103,-66,28,80,-60,-24,-266,-352,-359,-242,-204,-69
-97,-72,10,80,-48,-36,-248,-322,-347,-242,-204,-69
-91,-84,-7,80,-36,-48,-236,-310,-335,-242,-198,-69
-85,-90,-25,80,-24,-54,-206,-304,-329,-242,-198,-69
-79,-96,-37,80,-12,-60,-194,-298,-323,-242,-198,-69
-73,-102,-43,80,-1,-66,-182,-292,-317,-236,-198,-69
-67,-108,-49,80,5,-78,-170,-292,-311,-236,-198,-69
-61,-114,-55,80,11,-84,-164,-292,-311,-236,-198,-69
-61,-120,-61,80,11,-90,-158,-292,-311,-236,-198,-69
-61,-120,-61,80,11,-96,-152,-286,-311,-236,-198,-69
-55,-120,-67,80,17,-96,-152,-280,-305,-236,-198,-69
-55,-120,-73,80,23,-96,-140,-274,-299,-236,-192,-69
-49,-126,-79,80,29,-96,-128,-268,-293,-236,-192,-63
-49,-126,-85,80,29,-96,-122,-262,-293,-236,-192,-63
-43,-126,-91,80,35,-96,-116,-262,-293,-236,-192,-63
-43,-126,-91,80,41,-102,-110,-262,-293,-230,-186,-63
-43,-132,-97,80,41,-108,-104,-256,-293,-230,-186,-63
-37,-132,-97,80,41,-114,-98,-256,-287,-230,-186,-63
-37,-132,-97,80,41,-114,-92,-256,-281,-230,-186,-63
-37,-132,-97,80,41,-114,-92,-256,-281,-230,-180,-57
-37,-132,-97,80,41,-114,-92,-256,-281,-230,-180,-57
-37,-132,-97,80,41,-114,-92,-250,-281,-230,-180,-57
-37,-132,-97,80,47,-114,-92,-244,-281,-230,-180,-57
-37,-132,-97,80,47,-114,-92,-244,-281,-224,-180,-57
-37,-132,-97,74,47,-114,-86,-244,-281,-224,-180,-57
-31,-132,-97,74,47,-114,-86,-238,-281,-224,-180,-57
-31,-132,-97,74,47,-114,-86,-238,-281,-218,-180,-57
-25,-132,-103,74,47,-120,-80,-232,-281,-218,-180,-51
-25,-132,-109,74,47,-126,-80,-226,-275,-218,-180,-45
-25,-132,-109,74,47,-126,-80,-226,-275,-218,-174,-39
-19,-126,-109,68,47,-126,-80,-226,-275,-218,-174,-39
-19,-126,-109,68,47,-120,-80,-226,-275,-212,-174,-39
-13,-126,-109,62,47,-120,-74,-226,-269,-212,-174,-39
-13,-126,-109,62,47,-120,-74,-226,-263,-212,-174,-33
-13,-126,-109,62,53,-120,-68,-220,-257,-212,-168,-33
-13,-126,-109,62,53,-120,-68,-220,-257,-206,-162,-27
-13,-126,-109,62,53,-120,-68,-214,-257,-200,-162,-21
-7,-126,-109,62,53,-120,-68,-214,-257,-200,-162,-21
-7,-126,-109,62,53,-120,-68,-208,-257,-194,-162,-21
-7,-126,-109,62,59,-120,-62,-202,-251,-188,-156,-15
-7,-126,-109,62,59,-120,-56,-196,-251,-188,-156,-15
-7,-126,-109,56,59,-120,-56,-196,-251,-188,-156,-9
-7,-126,-109,56,59,-120,-56,-196,-251,-188,-150,-9
-1,-120,-109,56,59,-120,-56,-196,-251,-188,-150,-3
-1,-120,-109,56,59,-120,-50,-196,-251,-188,-150,-3
-1,-120,-109,56,59,-120,-50,-190,-251,-188,-150,-3
4,-114,-109,50,59,-114,-50,-190,-251,-188,-150,-3
4,-108,-109,44,59,-108,-50,-190,-251,-188,-144,-3
4,-102,-109,38,59,-102,-50,-190,-245,-188,-138,-3
4,-96,-109,32,59,-96,-50,-190,-239,-188,-138,-3
4,-90,-103,26,59,-96,-50,-190,-239,-188,-138,3
4,-84,-103,26,59,-96,-50,-190,-239,-182,-138,3
4,-84,-103,26,59,-90,-50,-190,-239,-176,-132,8
10,-72,-97,20,59,-84,-50,-190,-239,-176,-132,8
16,-66,-91,14,59,-78,-50,-190,-239,-176,-132,14
16,-60,-91,14,59,-72,-50,-190,-239,-170,-126,20
22,-54,-91,8,59,-72,-50,-184,-239,-164,-120,26
22,-54,-91,8,59,-72,-44,-184,-239,-164,-114,32
22,-54,-85,8,59,-72,-44,-184,-239,-164,-108,38
22,-48,-85,2,59,-66,-44,-184,-239,-164,-102,38
28,-42,-79,-4,59,-66,-38,-178,-233,-158,-96,38
28,-42,-79,-4,59,-66,-32,-166,-227,-152,-90,44
28,-42,-79,-4,59,-66,-26,-160,-221,-146,-84,50
34,-42,-79,-9,59,-66,-26,-154,-215,-140,-78,56
34,-30,-73,-15,59,-54,-26,-148,-209,-134,-72,56
34,-18,-61,-21,59,-30,-20,-142,-203,-128,-66,62
34,-6,-49,-27,59,-18,-20,-142,-203,-128,-60,68
34,5,-43,-33,59,-12,-20,-136,-203,-122,-54,74
34,11,-37,-39,59,-6,-20,-130,-197,-116,-48,80
40,17,-31,-45,59,-1,-14,-124,-191,-110,-42,86
40,17,-31,-45,59,-1,-8,-112,-179,-104,-36,92
40,17,-31,-45,59,-1,-3,-100,-167,-92,-24,98
46,23,-31,-51,59,5,3,-88,-155,-86,-18,104
52,41,-19,-57,59,17,9,-82,-149,-80,-12,110
52,53,-13,-63,59,29,15,-70,-143,-74,-6,116
52,59,-7,-69,59,29,21,-64,-131,-62,0,122
52,59,-7,-69,59,29,27,-58,-125,-50,11,128
52,59,-7,-69,59,29,33,-46,-113,-38,23,134
52,65,-2,-69,53,35,39,-34,-107,-32,29,140
52,71,10,-75,47,41,45,-22,-101,-20,35,146
52,77,16,-75,41,47,51,-10,-89,-14,41,152
52,83,16,-75,41,47,57,1,-77,-2,53,158
52,89,22,-81,35,53,63,13,-65,9,59,158
52,101,28,-87,35,59,63,25,-53,21,71,158
52,113,40,-93,29,71,69,31,-41,27,77,158
52,125,52,-99,23,89,75,37,-35,33,77,158
52,137,70,-105,17,101,81,43,-29,45,83,158
52,143,76,-111,11,113,87,55,-17,57,89,164
52,149,82,-111,5,119,93,67,1,69,95,170
52,149,88,-111,-1,125,93,79,12,75,101,170
52,155,94,-117,-6,131,93,85,24,81,107,170
52,167,100,-123,-12,137,99,97,36,93,113,170
52,167,106,-123,-12,137,111,109,54,105,125,176
52,167,106,-123,-12,137,117,121,72,123,131,176
52,173,112,-123,-12,143,123,133,84,135,137,176
52,179,112,-123,-12,143,129,145,96,141,143,176
52,179,118,-123,-12,143,135,151,108,147,149,176
52,179,118,-123,-12,143,135,157,120,159,155,176
52,173,118,-123,-12,143,141,163,132,165,161,176
52,173,118,-123,-12,143,141,169,138,171,161,176
52,167,118,-123,-12,137,141,175,144,171,161,176
52,167,112,-123,-12,131,141,175,144,171,161,170
52,167,112,-123,-12,131,141,175,144,171,161,170
52,167,112,-117,-12,131,141,175,144,171,161,164
52,161,112,-111,-12,131,141,175,144,171,155,158
52,155,106,-111,-12,125,141,169,144,165,149,152
52,143,100,-105,-12,119,141,157,138,159,143,146
46,131,94,-99,-12,107,141,145,126,153,131,134
40,107,82,-87,-12,95,135,139,120,141,125,122
40,101,76,-81,-12,89,129,127,108,129,113,110
40,101,70,-75,-12,89,117,103,84,117,101,92
34,95,70,-69,-12,83,111,91,72,99,89,80
34,89,58,-63,-12,71,105,79,60,87,77,68
34,71,46,-51,-12,59,99,67,48,75,65,56
28,65,40,-45,-12,53,93,55,36,63,53,44
