,,,,,,,,,,,
2019-09-04 23:16:00,,,,,,,,,,,
,,,,,,,,,,,
I,II,III,aVR,aVL,aVF,V1,V2,V3,V4,V5,V6
-69,-25,39,48,-54,2,11,-59,-51,-53,-31,-49
-69,-25,39,48,-54,2,11,-59,-51,-53,-31,-49
-69,-25,39,48,-54,2,11,-59,-51,-53,-31,-49
-69,-25,39,48,-54,2,11,-59,-51,-53,-31,-49
-69,-25,39,48,-54,2,11,-65,-51,-53,-37,-55
-69,-25,39,48,-54,2,11,-65,-51,-53,-37,-55
-69,-25,39,48,-54,2,11,-71,-51,-53,-43,-61
-69,-25,39,48,-54,2,11,-71,-51,-53,-43,-61
-75,-25,45,48,-60,2,5,-71,-51,-59,-49,-67
-75,-25,45,48,-60,2,5,-71,-51,-59,-49,-67
-81,-25,51,54,-66,8,-1,-71,-51,-65,-55,-73
-81,-25,51,54,-66,8,-1,-71,-51,-65,-55,-73
-81,-25,51,54,-66,8,5,-71,-57,-65,-49,-67
-81,-25,51,54,-66,8,5,-71,-57,-65,-49,-67
-81,-25,51,54,-66,8,11,-71,-63,-65,-43,-61
-81,-25,51,54,-66,8,11,-71,-63,-65,-43,-61
-75,-25,45,48,-60,2,11,-71,-63,-65,-43,-67
-75,-25,45,48,-60,2,11,-71,-63,-65,-43,-67
-69,-25,39,48,-54,2,11,-71,-63,-65,-43,-73
-69,-25,39,48,-54,2,11,-71,-63,-65,-43,-73
-69,-25,39,48,-54,2,5,-77,-63,-65,-43,-73
-69,-25,39,48,-54,2,5,-77,-63,-65,-43,-73
-69,-25,39,48,-54,2,-1,-83,-63,-65,-43,-73
-69,-25,39,48,-54,2,-1,-83,-63,-65,-43,-73
-75,-25,45,48,-60,2,-1,-77,-63,-71,-43,-73
-75,-25,45,48,-60,2,-1,-77,-63,-71,-43,-73
-81,-25,51,54,-66,8,-1,-71,-63,-77,-43,-73
-81,-25,51,54,-66,8,-1,-71,-63,-77,-43,-73
-75,-31,39,54,-60,-4,5,-71,-63,-77,-49,-73
-75,-31,39,54,-60,-4,5,-71,-63,-77,-49,-73
-69,-37,27,54,-48,-4,11,-71,-63,-77,-55,-73
-69,-37,27,54,-48,-4,11,-71,-63,-77,-55,-73
-69,-31,33,48,-54,-4,11,-77,-63,-77,-49,-67
-69,-31,33,48,-54,-4,11,-77,-63,-77,-49,-67
-69,-25,39,48,-54,2,11,-83,-63,-77,-43,-61
-69,-25,39,48,-54,2,11,-83,-63,-77,-43,-61
-75,-31,39,54,-60,-4,11,-77,-69,-77,-43,-61
-75,-31,39,54,-60,-4,11,-77,-69,-77,-43,-61
-81,-37,39,60,-60,-4,11,-71,-75,-77,-43,-61
-81,-37,39,60,-60,-4,11,-71,-75,-77,-43,-61
-81,-37,39,60,-60,-4,5,-71,-69,-77,-49,-67
-81,-37,39,60,-60,-4,5,-71,-69,-77,-49,-67
-81,-37,39,60,-60,-4,-1,-71,-63,-77,-55,-73
-81,-37,39,60,-60,-4,-1,-71,-63,-77,-55,-73
-81,-31,45,54,-66,2,-1,-77,-69,-77,-55,-73
-81,-31,45,54,-66,2,-1,-83,-75,-77,-55,-73
-81,-25,51,54,-66,8,-1,-89,-81,-77,-55,-73
-81,-25,51,54,-66,8,-1,-95,-87,-77,-55,-73
-81,-25,51,54,-66,8,-1,-89,-81,-77,-55,-67
-81,-25,51,54,-66,8,-1,-89,-81,-77,-55,-67
-81,-25,51,54,-66,8,-1,-83,-75,-77,-55,-61
-81,-25,51,54,-66,8,-1,-83,-75,-77,-55,-61
-81,-31,45,54,-66,2,-1,-89,-75,-77,-55,-61
-81,-31,45,54,-66,2,-1,-89,-75,-77,-55,-61
-81,-37,39,60,-60,-4,-1,-95,-75,-77,-55,-61
-81,-37,39,60,-60,-4,-1,-95,-75,-77,-55,-61
-87,-37,45,60,-66,-4,-1,-95,-75,-83,-55,-67
-87,-37,45,60,-66,-4,-1,-95,-75,-83,-55,-67
-93,-37,51,66,-72,2,-1,-95,-75,-89,-55,-73
-93,-37,51,66,-72,2,-1,-95,-75,-89,-55,-73
-87,-37,45,60,-66,-4,-7,-95,-69,-89,-55,-73
-87,-31,51,60,-72,2,-7,-95,-75,-89,-49,-73
-81,-31,45,54,-66,2,-7,-95,-69,-77,-49,-67
-81,-31,45,54,-66,2,-7,-101,-69,-77,-49,-67
-75,-25,45,48,-60,2,-1,-95,-69,-77,-49,-73
-75,-25,45,48,-60,2,-1,-95,-69,-77,-49,-73
-69,-13,51,42,-60,14,11,-89,-69,-77,-49,-73
-75,-13,57,42,-66,14,11,-89,-63,-77,-49,-73
-69,-13,51,42,-60,14,11,-83,-63,-71,-49,-67
-63,-13,45,36,-54,8,11,-71,-51,-65,-43,-61
-57,-8,45,30,-54,14,16,-59,-45,-53,-43,-49
-57,-8,57,24,-54,26,22,-53,-33,-47,-37,-49
-57,-2,63,24,-60,32,34,-41,-33,-41,-37,-49
-57,-2,63,24,-60,32,40,-41,-27,-35,-31,-49
-51,-2,57,18,-54,26,46,-29,-21,-29,-31,-49
-39,4,51,12,-42,26,52,-29,-21,-29,-19,-43
-39,-2,45,12,-42,20,64,-23,-9,-29,-19,-43
-39,-2,45,12,-42,20,70,-17,-9,-29,-19,-43
-39,-2,45,12,-42,20,76,-11,-3,-23,-19,-37
-33,-2,39,12,-36,20,76,-11,-3,-23,-19,-31
-39,-2,45,12,-42,20,82,-11,-3,-29,-13,-31
-39,4,51,12,-42,26,82,-11,2,-29,-13,-31
-45,4,57,12,-48,32,88,-6,2,-29,-7,-31
-39,4,51,12,-42,26,94,-6,2,-23,-2,-25
-27,10,45,6,-36,26,94,-6,2,-11,-2,-25
-21,16,45,6,-30,32,94,-6,8,-5,-2,-25
-4,34,39,-11,-18,38,94,-6,14,0,-2,-25
8,40,27,-23,-1,38,94,6,14,0,-2,-25
14,40,21,-23,-1,32,94,12,26,6,10,-20
26,52,21,-35,-1,38,88,18,44,18,16,-8
38,70,27,-53,-1,50,76,24,56,30,28,4
50,82,27,-65,5,56,58,36,62,42,34,16
56,88,27,-71,11,62,52,30,62,42,40,16
50,88,33,-65,5,62,40,24,62,42,46,22
50,82,27,-65,5,56,28,12,50,42,46,16
44,70,21,-53,5,50,22,6,50,48,46,16
44,64,15,-53,11,44,16,-6,38,36,46,22
44,40,-3,-41,23,20,16,-6,14,18,40,16
38,28,-3,-29,23,8,-1,-23,2,0,28,4
32,16,-8,-23,23,2,-19,-47,-15,-5,16,-8
26,4,-14,-11,23,-4,-19,-53,-27,-23,-2,-8
26,-2,-20,-11,23,-4,-25,-77,-45,-41,-2,-8
20,-8,-26,1,23,-9,-31,-101,-63,-65,-2,-20
20,-13,-38,6,29,-21,-31,-113,-75,-71,-13,-20
20,-8,-26,1,23,-9,-43,-119,-75,-77,-2,-20
20,-8,-32,1,23,-15,-43,-119,-75,-77,-7,-20
8,-13,-26,6,17,-15,-37,-107,-69,-71,-7,-25
14,-8,-26,6,17,-15,-19,-83,-57,-59,-13,-25
8,-8,-20,6,11,-9,5,-71,-51,-59,-7,-31
2,-8,-14,6,5,-9,16,-53,-45,-53,-19,-31
-4,-25,-14,12,-1,-21,40,-41,-39,-53,-25,-37
-27,-25,-3,24,-12,-9,58,-29,-33,-53,-31,-43
-39,-25,9,30,-24,-4,88,-6,-9,-41,-31,-37
-51,-25,21,36,-36,-4,118,6,2,-35,-25,-43
-63,-31,27,48,-48,-4,160,30,8,-29,-25,-49
-51,-31,15,42,-36,-4,208,54,14,-29,-19,-55
-57,-31,21,42,-42,-4,274,84,38,-17,-19,-55
-69,-31,33,48,-54,-4,340,120,56,-5,-31,-61
-63,-37,21,48,-42,-4,352,150,74,0,-19,-61
-45,-25,15,36,-30,-4,316,168,92,12,-13,-49
-27,-13,9,18,-18,-4,286,186,110,36,-13,-43
-15,-8,15,6,-12,2,262,198,140,42,-2,-43
8,16,3,-11,-1,14,190,216,164,66,-2,-25
56,52,-3,-53,29,26,82,222,194,96,34,-14
56,70,9,-59,17,44,16,240,218,120,46,-8
62,88,21,-71,17,56,5,258,242,132,52,10
110,124,9,-113,47,68,-37,288,254,144,70,22
146,124,-14,-131,83,50,-79,312,278,168,94,46
158,118,-32,-137,95,38,-109,366,314,192,94,46
170,124,-38,-143,107,38,-139,396,332,216,106,64
194,112,-74,-149,137,14,-211,390,344,228,124,70
218,118,-92,-167,155,8,-265,372,344,240,118,70
236,130,-104,-185,173,8,-337,360,344,252,136,82
260,142,-116,-203,191,8,-415,324,332,252,142,94
284,142,-140,-215,215,-4,-499,258,308,246,148,100
302,136,-164,-221,239,-4,-571,210,260,240,148,106
320,142,-176,-233,245,-9,-673,120,224,234,166,112
350,154,-194,-245,269,-9,-763,0,158,210,160,124
368,154,-212,-257,287,-21,-835,-77,110,210,166,130
386,142,-242,-257,311,-39,-859,-137,74,198,166,130
398,142,-248,-263,323,-45,-889,-185,62,204,178,136
386,148,-236,-263,311,-33,-919,-245,38,210,190,154
392,166,-224,-275,305,-21,-943,-305,32,228,220,160
410,208,-200,-305,305,2,-961,-347,50,258,250,190
422,232,-188,-323,305,20,-985,-395,50,306,286,226
428,256,-164,-341,293,44,-1015,-437,38,360,334,262
434,286,-140,-359,287,74,-1045,-461,62,408,376,298
452,346,-98,-395,275,122,-1057,-491,92,480,418,334
464,370,-86,-413,275,140,-1093,-539,86,522,454,370
494,382,-110,-437,305,134,-1177,-641,56,546,484,406
572,412,-158,-485,365,128,-1291,-761,8,582,550,442
686,454,-230,-563,461,110,-1459,-911,-27,636,652,520
842,466,-374,-653,611,44,-1639,-1043,-81,708,766,622
1016,466,-548,-737,785,-33,-1855,-1175,-141,780,898,730
1232,484,-740,-857,989,-123,-2065,-1301,-195,894,1060,874
1454,544,-902,-995,1181,-171,-2287,-1397,-213,1026,1252,1030
1646,580,-1058,-1109,1355,-237,-2496,-1535,-243,1134,1432,1192
1814,598,-1214,-1205,1511,-297,-2706,-1679,-333,1188,1552,1294
1958,622,-1334,-1289,1649,-351,-2844,-1781,-381,1188,1648,1402
2077,706,-1370,-1391,1721,-327,-2922,-1811,-375,1200,1720,1486
2137,796,-1334,-1463,1733,-261,-2970,-1823,-351,1236,1816,1594
2155,892,-1256,-1517,1703,-177,-3000,-1871,-339,1278,1918,1690
2155,982,-1166,-1565,1661,-81,-3000,-1907,-357,1296,2008,1786
2095,1072,-1016,-1583,1559,26,-2952,-1937,-417,1260,2061,1858
1976,1078,-896,-1523,1439,92,-2868,-1955,-495,1158,2049,1864
1826,940,-884,-1379,1355,26,-2706,-1925,-621,876,1912,1756
1646,712,-932,-1175,1289,-105,-2502,-1877,-789,450,1630,1546
1424,526,-890,-971,1157,-177,-2287,-1835,-987,18,1288,1300
1166,382,-776,-767,971,-195,-2041,-1805,-1149,-317,964,1042
938,262,-668,-599,803,-195,-1813,-1757,-1263,-605,682,802
710,142,-560,-425,635,-207,-1567,-1667,-1317,-809,406,562
440,28,-404,-233,425,-183,-1291,-1517,-1281,-923,106,280
218,-31,-248,-83,233,-141,-1045,-1319,-1185,-935,-115,58
146,-49,-200,-41,173,-123,-877,-1139,-1035,-827,-157,-14
116,-8,-128,-47,119,-63,-733,-941,-849,-665,-91,22
50,16,-26,-29,41,-4,-583,-743,-693,-515,-43,28
-4,10,15,1,-6,14,-475,-623,-597,-449,-43,16
-33,4,45,6,-36,26,-403,-545,-531,-419,-61,-8
-69,10,87,24,-78,50,-319,-473,-459,-377,-85,-31
-93,22,123,30,-108,74,-241,-401,-381,-365,-97,-55
-111,22,141,36,-126,80,-217,-371,-345,-353,-109,-55
-117,28,153,36,-132,92,-157,-323,-303,-335,-109,-73
-117,4,129,48,-120,68,-79,-245,-249,-287,-121,-85
-129,-31,93,78,-114,26,-19,-161,-201,-239,-121,-103
-141,-55,81,96,-114,8,16,-101,-183,-215,-121,-115
-117,-49,63,84,-90,2,52,-35,-129,-167,-109,-115
-105,-67,33,84,-72,-9,94,6,-87,-137,-91,-109
-129,-97,27,114,-78,-27,106,36,-63,-119,-103,-109
-141,-115,21,126,-84,-39,118,48,-45,-119,-109,-121
-129,-91,33,108,-84,-21,166,60,-15,-119,-115,-121
-141,-103,33,120,-90,-27,196,66,-9,-119,-115,-127
-153,-109,39,132,-96,-27,202,72,-3,-125,-133,-139
-159,-121,33,138,-96,-39,214,96,2,-125,-133,-151
-165,-127,33,144,-102,-39,220,108,2,-125,-145,-157
-165,-121,39,144,-102,-33,214,114,2,-143,-145,-157
-165,-115,45,138,-108,-27,226,120,-3,-131,-151,-157
-165,-115,45,138,-108,-27,226,120,-3,-125,-151,-151
-165,-115,45,138,-108,-27,226,132,-3,-119,-151,-151
-165,-115,45,138,-108,-27,238,138,2,-107,-145,-145
-171,-109,57,138,-114,-21,238,144,8,-101,-139,-145
-171,-115,51,144,-114,-27,244,150,14,-107,-145,-145
-171,-109,57,138,-114,-21,256,162,20,-101,-145,-145
-165,-115,45,138,-108,-27,256,168,26,-95,-151,-145
-165,-127,33,144,-102,-39,262,174,32,-89,-145,-145
-171,-121,45,144,-108,-33,268,180,32,-89,-145,-145
-171,-127,39,150,-108,-39,274,192,38,-89,-145,-145
-171,-121,45,144,-108,-33,280,198,32,-95,-145,-145
-171,-121,45,144,-108,-33,280,204,44,-95,-145,-145
-171,-121,45,144,-108,-33,274,210,44,-89,-139,-145
-171,-121,45,144,-108,-33,286,216,44,-83,-139,-145
-171,-121,45,144,-108,-33,286,222,50,-83,-133,-145
-177,-121,51,150,-114,-27,292,228,50,-83,-127,-145
-171,-115,51,144,-114,-27,292,234,56,-77,-127,-145
-171,-127,39,150,-108,-39,298,234,62,-77,-127,-145
-165,-121,39,144,-102,-33,310,234,68,-77,-133,-151
-165,-115,45,138,-108,-27,316,240,68,-77,-139,-151
-171,-121,45,144,-108,-33,322,246,74,-77,-139,-151
-171,-121,45,144,-108,-33,328,258,74,-77,-139,-157
-177,-121,51,150,-114,-27,334,264,74,-77,-139,-157
-177,-115,57,144,-120,-21,340,270,80,-71,-139,-157
-171,-115,51,144,-114,-27,346,270,80,-71,-139,-157
-177,-115,57,144,-120,-21,346,276,92,-71,-139,-157
-171,-115,51,144,-114,-27,358,276,98,-65,-139,-163
-171,-121,45,144,-108,-33,370,282,104,-65,-127,-169
-171,-121,45,144,-108,-33,370,288,110,-65,-127,-163
-171,-121,45,144,-108,-33,376,294,116,-59,-127,-163
-171,-121,45,144,-108,-33,382,300,128,-53,-133,-157
-171,-121,45,144,-108,-33,388,306,134,-53,-133,-157
-171,-121,45,144,-108,-33,400,312,134,-53,-139,-157
-171,-121,45,144,-108,-33,400,318,134,-53,-139,-157
-171,-121,45,144,-108,-33,406,330,134,-53,-145,-157
-177,-121,51,150,-114,-27,412,342,134,-47,-151,-157
-177,-115,57,144,-120,-21,424,360,146,-41,-151,-157
-177,-115,57,144,-120,-21,430,378,152,-41,-151,-157
-183,-127,51,156,-120,-33,454,396,158,-35,-151,-157
-183,-127,51,156,-120,-33,466,402,164,-29,-151,-157
-183,-127,51,156,-120,-33,478,414,176,-29,-157,-163
-183,-121,57,150,-120,-27,484,426,182,-29,-151,-163
-189,-127,57,156,-126,-27,490,432,182,-23,-157,-169
-189,-121,63,156,-126,-21,484,444,194,-23,-163,-169
-183,-121,57,150,-120,-27,502,456,200,-23,-163,-169
-183,-121,57,150,-120,-27,508,468,206,-23,-163,-175
-177,-127,45,150,-114,-33,514,480,212,-17,-157,-169
-183,-127,51,156,-120,-33,520,492,218,-17,-163,-169
-189,-127,57,156,-126,-27,532,504,224,-11,-163,-181
-189,-127,57,156,-126,-27,550,516,242,-5,-163,-187
-189,-115,69,150,-132,-15,562,534,242,-5,-163,-187
-195,-115,75,156,-138,-15,580,552,254,0,-163,-181
-195,-115,75,156,-138,-15,592,558,260,0,-163,-187
-195,-121,69,156,-132,-21,598,570,266,0,-169,-193
-201,-115,81,156,-144,-9,610,576,278,0,-175,-205
-201,-115,81,156,-144,-9,622,600,290,6,-175,-205
-201,-121,75,162,-138,-15,634,618,290,6,-169,-217
-201,-121,75,162,-138,-15,646,636,308,12,-169,-217
-201,-127,69,162,-138,-21,670,654,314,18,-163,-223
-213,-127,81,168,-150,-15,682,666,320,24,-163,-229
-207,-115,87,162,-150,-9,694,672,320,30,-163,-235
-207,-115,87,162,-150,-9,712,690,338,36,-163,-229
-213,-109,99,162,-156,-4,718,696,350,36,-169,-223
-225,-115,105,168,-168,-4,730,714,350,36,-169,-217
-225,-121,99,174,-162,-4,742,720,374,42,-169,-217
-213,-115,93,162,-156,-4,754,732,386,48,-181,-217
-213,-121,87,168,-150,-9,766,744,392,54,-175,-217
-213,-121,87,168,-150,-9,778,768,398,60,-181,-211
-219,-127,87,174,-156,-15,784,780,404,60,-175,-217
-219,-127,87,174,-156,-15,796,780,416,66,-175,-217
-225,-133,87,180,-156,-15,802,798,416,66,-181,-217
-225,-133,87,180,-156,-15,814,810,434,72,-175,-217
-219,-127,87,174,-156,-15,820,816,446,66,-181,-223
-219,-121,93,168,-156,-9,826,834,446,66,-181,-217
-213,-109,99,162,-156,-4,832,834,452,66,-187,-223
-207,-109,93,156,-150,-4,832,846,458,66,-187,-229
-207,-115,87,162,-150,-9,838,858,470,78,-187,-229
-207,-115,87,162,-150,-9,850,870,476,84,-187,-229
-207,-115,87,162,-150,-9,856,894,488,96,-187,-229
-201,-109,87,156,-144,-4,862,906,494,102,-187,-229
-201,-103,93,150,-150,-4,862,912,500,102,-187,-217
-201,-103,93,150,-150,-4,862,918,506,102,-193,-217
-189,-97,87,144,-138,-4,862,906,506,108,-187,-211
-183,-97,81,138,-132,-4,862,906,512,114,-181,-211
-189,-97,87,144,-138,-4,856,906,518,108,-181,-211
-189,-91,93,138,-144,-4,844,906,518,108,-181,-211
-177,-85,87,132,-132,-4,844,906,518,108,-181,-211
-177,-85,87,132,-132,-4,838,906,518,108,-175,-211
-171,-79,87,126,-132,-4,820,900,512,108,-175,-211
-165,-67,93,114,-132,8,802,888,512,108,-169,-211
-159,-61,93,108,-126,8,784,888,506,108,-169,-211
-159,-61,93,108,-126,8,772,882,500,108,-169,-211
-153,-61,87,108,-120,8,748,858,488,108,-163,-199
-147,-61,81,102,-114,2,742,846,488,114,-157,-199
-129,-61,63,96,-96,-4,718,828,482,114,-151,-187
-123,-55,63,90,-96,-4,700,816,476,114,-151,-187
-123,-55,63,90,-96,-4,682,798,464,108,-145,-187
-117,-55,57,84,-90,-4,664,774,452,102,-145,-187
-105,-43,57,72,-84,2,640,750,440,96,-139,-181
-93,-43,45,66,-72,-4,616,726,434,90,-139,-175
-93,-37,51,66,-72,2,592,714,422,90,-133,-169
-81,-31,45,54,-66,2,574,690,410,84,-127,-163
-87,-31,51,60,-72,2,556,678,398,84,-127,-157
-81,-31,45,54,-66,2,532,660,386,84,-121,-157
-75,-31,39,54,-60,-4,508,630,380,84,-115,-151
-63,-25,33,42,-48,-4,490,612,362,84,-109,-145
-63,-25,33,42,-48,-4,460,582,350,78,-103,-139
-57,-19,33,36,-48,2,430,564,338,72,-97,-133
-45,-25,15,36,-30,-4,412,540,320,72,-91,-121
-39,-25,9,30,-24,-4,388,504,308,72,-85,-115
-27,-25,-3,24,-12,-9,376,480,278,60,-79,-103
-21,-25,-3,24,-6,-9,346,450,266,60,-73,-97
-15,-13,-3,12,-6,-4,328,426,254,60,-67,-91
-15,-13,-3,12,-6,-4,304,402,248,60,-55,-85
-15,-13,-3,12,-6,-4,286,378,242,54,-55,-79
-21,-13,3,18,-12,-4,256,342,230,48,-55,-85
-21,-13,3,18,-12,-4,238,318,218,42,-55,-85
-15,-13,-3,12,-6,-4,220,294,194,36,-49,-79
-21,-8,9,12,-18,-4,208,270,176,36,-43,-73
-21,-8,9,12,-18,-4,190,234,152,36,-37,-67
-9,-8,3,6,-6,-4,172,216,146,36,-31,-67
-9,-8,3,6,-6,-4,154,204,140,30,-25,-61
-9,-8,-3,6,-6,-4,136,192,122,24,-19,-55
-15,-13,-3,12,-6,-4,130,186,116,18,-19,-55
-15,-8,3,12,-12,-4,118,168,98,18,-13,-55
-15,-8,9,6,-12,-4,106,138,86,12,-7,-49
-15,-2,21,6,-18,8,100,120,74,6,-2,-49
-15,4,27,6,-18,14,94,96,62,0,-2,-49
-15,-2,21,6,-18,8,82,78,56,0,-2,-49
-15,-2,21,6,-18,8,70,66,56,0,-2,-49
-27,-8,21,12,-24,2,58,48,44,0,-2,-49
-27,-8,21,12,-24,2,52,36,38,0,-2,-49
-33,-8,27,18,-30,8,52,24,32,0,-7,-49
-33,-8,27,18,-30,8,46,18,20,0,-7,-43
-39,-8,27,24,-36,2,34,24,14,0,-13,-43
-39,-19,15,30,-30,-4,28,18,2,0,-13,-43
-45,-19,21,30,-36,-4,28,12,2,0,-7,-49
-45,-19,21,30,-36,-4,22,6,2,-5,-7,-49
-51,-19,27,36,-42,-4,22,-6,2,-5,-7,-55
-51,-19,27,36,-42,-4,16,-6,2,-11,-13,-49
-45,-19,21,30,-36,-4,22,-6,2,-17,-13,-43
-45,-19,21,30,-36,-4,22,-11,-3,-17,-13,-43
-45,-13,27,30,-36,2,28,-17,-9,-23,-13,-37
-45,-19,21,30,-36,-4,28,-23,-15,-29,-13,-43
-51,-25,21,36,-36,-4,22,-23,-21,-35,-25,-43
-57,-25,27,42,-42,-4,22,-29,-21,-41,-25,-49
-69,-31,33,48,-54,-4,16,-29,-27,-47,-31,-49
-69,-25,39,48,-54,2,16,-29,-27,-47,-31,-49
-63,-25,33,42,-48,-4,16,-35,-21,-41,-37,-49
-63,-25,33,42,-48,-4,16,-35,-21,-41,-37,-55
-57,-37,15,48,-36,-4,22,-29,-15,-41,-37,-55
-57,-37,15,48,-36,-4,16,-29,-21,-41,-37,-55
-63,-37,21,48,-42,-4,16,-29,-21,-41,-37,-61
-63,-43,15,54,-42,-9,22,-29,-21,-41,-37,-61
-69,-43,21,54,-48,-4,22,-29,-21,-41,-37,-73
-69,-43,21,54,-48,-4,22,-29,-21,-47,-37,-73
-63,-37,21,48,-42,-4,22,-29,-21,-47,-31,-67
-63,-43,15,54,-42,-9,22,-35,-21,-47,-31,-67
-63,-37,21,48,-42,-4,22,-35,-27,-41,-31,-61
-63,-37,21,48,-42,-4,22,-29,-27,-41,-31,-61
-69,-43,21,54,-48,-4,28,-29,-27,-47,-31,-61
-69,-43,21,54,-48,-4,28,-29,-27,-47,-31,-61
-75,-49,21,60,-48,-9,34,-23,-27,-53,-31,-61
-75,-49,21,60,-48,-9,34,-23,-27,-53,-31,-61
-75,-49,21,60,-48,-9,34,-29,-27,-53,-37,-67
-75,-49,21,60,-48,-9,40,-29,-27,-53,-37,-67
-81,-49,27,66,-54,-4,40,-29,-27,-53,-43,-67
-81,-49,27,66,-54,-4,46,-29,-27,-53,-43,-67
-75,-49,21,60,-48,-9,46,-23,-33,-53,-49,-67
-75,-49,21,60,-48,-9,40,-23,-33,-53,-49,-67
-69,-49,15,60,-42,-9,40,-23,-39,-53,-49,-67
-69,-49,15,60,-42,-9,46,-23,-39,-53,-49,-67
-75,-49,21,60,-48,-9,46,-23,-33,-53,-49,-73
-75,-49,21,60,-48,-9,46,-23,-33,-59,-55,-73
-75,-49,21,60,-48,-9,52,-23,-27,-59,-55,-85
-75,-49,21,60,-48,-9,52,-23,-27,-59,-55,-85
-75,-43,27,60,-54,-4,52,-23,-27,-53,-55,-85
-75,-43,27,60,-54,-4,52,-23,-27,-53,-55,-85
-81,-37,39,60,-60,-4,58,-23,-27,-47,-55,-85
-81,-37,39,60,-60,-4,64,-23,-21,-47,-55,-85
-81,-37,39,60,-60,-4,58,-17,-21,-47,-55,-79
-81,-37,39,60,-60,-4,58,-17,-21,-47,-49,-79
-81,-43,33,60,-60,-4,52,-17,-21,-47,-49,-73
-81,-43,33,60,-60,-4,52,-17,-21,-47,-49,-73
-87,-43,39,66,-66,-4,52,-17,-21,-47,-49,-73
-93,-49,39,72,-66,-4,52,-17,-21,-47,-49,-73
-99,-49,45,72,-72,-4,52,-17,-15,-53,-49,-73
-99,-49,45,72,-72,-4,52,-17,-15,-53,-49,-73
-93,-49,39,72,-66,-4,52,-17,-21,-53,-43,-73
-93,-43,45,66,-72,-4,58,-17,-15,-53,-43,-67
-87,-43,39,66,-66,-4,58,-17,-15,-47,-37,-67
-87,-43,39,66,-66,-4,58,-17,-15,-47,-37,-73
-81,-37,39,60,-60,-4,58,-17,-15,-47,-43,-73
-81,-37,39,60,-60,-4,58,-17,-15,-47,-37,-73
-81,-31,45,54,-66,2,64,-17,-15,-47,-37,-73
-81,-31,45,54,-66,2,64,-17,-15,-47,-37,-73
-81,-37,39,60,-60,-4,64,-17,-15,-47,-43,-79
-81,-37,39,60,-60,-4,64,-11,-15,-41,-43,-79
-87,-43,39,66,-66,-4,64,-11,-15,-41,-49,-85
-87,-43,39,66,-66,-4,64,-11,-15,-41,-49,-85
-87,-37,45,60,-66,-4,64,-11,-15,-41,-43,-79
-87,-37,45,60,-66,-4,64,-11,-15,-41,-43,-79
-87,-37,45,60,-66,-4,64,-11,-15,-41,-37,-73
-87,-37,45,60,-66,-4,64,-11,-15,-47,-37,-67
-87,-37,45,60,-66,-4,64,-11,-9,-47,-37,-73
-87,-37,45,60,-66,-4,64,-11,-9,-41,-37,-73
-87,-25,57,54,-72,8,64,-11,-9,-41,-37,-79
-87,-25,57,54,-72,8,64,-11,-15,-41,-37,-79
-87,-31,51,60,-72,2,64,-17,-21,-47,-37,-79
-87,-31,51,60,-72,2,58,-17,-21,-47,-37,-79
-87,-37,45,60,-66,-4,58,-23,-27,-53,-49,-79
-87,-37,45,60,-66,-4,58,-23,-33,-53,-49,-79
-87,-37,45,60,-66,-4,58,-23,-27,-53,-49,-73
-87,-37,45,60,-66,-4,58,-23,-27,-53,-49,-73
-87,-37,45,60,-66,-4,58,-29,-21,-59,-49,-67
-87,-37,45,60,-66,-4,58,-35,-21,-59,-49,-67
-87,-37,45,60,-66,-4,58,-29,-21,-59,-43,-67
-87,-37,45,60,-66,-4,58,-29,-21,-59,-43,-67
-87,-37,45,60,-66,-4,52,-23,-27,-59,-37,-67
-87,-37,45,60,-66,-4,52,-29,-27,-59,-37,-67
-87,-43,39,66,-66,-4,46,-35,-27,-59,-43,-67
-87,-43,39,66,-66,-4,46,-41,-27,-59,-43,-67
-87,-43,39,66,-66,-4,40,-47,-33,-59,-55,-79
-87,-43,39,66,-66,-4,40,-47,-33,-65,-55,-79
-87,-43,39,66,-66,-4,40,-47,-33,-65,-49,-73
-87,-43,39,66,-66,-4,40,-47,-33,-59,-49,-73
-87,-43,39,66,-66,-4,40,-47,-33,-59,-49,-67
-87,-43,39,66,-66,-4,34,-47,-33,-59,-49,-67
-87,-43,39,66,-66,-4,28,-53,-39,-65,-49,-73
-87,-43,39,66,-66,-4,28,-53,-39,-65,-49,-73
-87,-43,39,66,-66,-4,28,-59,-39,-71,-49,-79
-87,-43,39,66,-66,-4,28,-59,-39,-71,-49,-79
-93,-43,45,66,-72,-4,28,-65,-45,-65,-55,-79
-93,-43,45,66,-72,-4,28,-71,-45,-65,-55,-79
-99,-43,51,72,-78,-4,28,-77,-51,-59,-61,-79
-99,-43,51,72,-78,-4,28,-83,-51,-59,-61,-79
-93,-37,51,66,-72,2,22,-89,-51,-65,-55,-79
-87,-37,45,60,-66,-4,22,-95,-51,-65,-55,-79
-81,-25,51,54,-66,8,16,-101,-51,-77,-55,-79
-75,-25,45,48,-60,2,16,-107,-51,-77,-55,-73
-81,-31,45,54,-66,2,22,-107,-51,-71,-55,-73
-81,-37,39,60,-60,-4,22,-107,-51,-71,-55,-73
-81,-43,33,60,-60,-4,22,-113,-57,-65,-55,-73
-81,-49,27,66,-54,-4,22,-119,-63,-65,-55,-79
-81,-43,33,60,-60,-4,16,-119,-63,-71,-55,-79
-81,-43,33,60,-60,-4,16,-119,-63,-77,-55,-79
-81,-49,27,66,-54,-4,16,-125,-63,-83,-55,-79
-81,-49,27,66,-54,-4,16,-125,-63,-83,-55,-73
-87,-43,39,66,-66,-4,16,-125,-63,-77,-55,-73
-87,-43,39,66,-66,-4,16,-125,-63,-71,-49,-73
-93,-43,45,66,-72,-4,22,-125,-63,-65,-49,-73
-93,-43,45,66,-72,-4,22,-125,-63,-65,-49,-73
-93,-43,45,66,-72,-4,16,-137,-69,-77,-55,-79
-93,-43,45,66,-72,-4,16,-137,-69,-77,-55,-79
-93,-43,45,66,-72,-4,16,-143,-75,-83,-55,-85
-93,-43,45,66,-72,-4,16,-143,-75,-83,-55,-85
-93,-43,45,66,-72,-4,11,-149,-75,-83,-49,-85
-93,-49,39,72,-66,-4,11,-149,-75,-83,-49,-85
-93,-49,39,72,-66,-4,11,-149,-75,-83,-49,-85
-93,-43,45,66,-72,-4,11,-155,-75,-83,-49,-85
-93,-49,39,72,-66,-4,16,-149,-75,-77,-49,-85
-93,-43,45,66,-72,-4,16,-155,-75,-77,-49,-85
-93,-49,39,72,-66,-4,16,-149,-81,-77,-49,-79
-93,-49,39,72,-66,-4,16,-155,-81,-77,-49,-79
-93,-43,45,66,-72,-4,16,-155,-75,-83,-55,-79
-93,-43,45,66,-72,-4,16,-155,-75,-83,-49,-73
-93,-49,39,72,-66,-4,16,-155,-69,-83,-55,-73
-93,-49,39,72,-66,-4,16,-155,-69,-83,-55,-73
-99,-55,39,78,-72,-4,16,-155,-81,-83,-55,-73
-99,-55,39,78,-72,-4,16,-161,-81,-83,-61,-67
-87,-55,27,72,-60,-9,16,-161,-87,-83,-55,-73
-87,-43,39,66,-66,-4,16,-161,-87,-83,-55,-73
-93,-49,39,72,-66,-4,16,-161,-75,-77,-55,-73
-99,-49,45,72,-72,-4,16,-155,-75,-77,-55,-73
-105,-55,45,78,-78,-4,16,-155,-69,-71,-55,-67
-105,-55,45,78,-78,-4,16,-155,-69,-71,-55,-61
-99,-55,39,78,-72,-4,16,-155,-75,-77,-55,-67
-99,-55,39,78,-72,-4,16,-155,-75,-77,-55,-67
-99,-55,39,78,-72,-4,16,-161,-81,-83,-55,-79
-99,-55,39,78,-72,-4,16,-161,-81,-83,-55,-79
-93,-61,27,78,-60,-9,16,-161,-81,-83,-55,-79
-93,-55,33,72,-66,-4,16,-167,-81,-77,-55,-79
-87,-61,21,72,-54,-15,16,-173,-87,-77,-55,-79
-87,-61,21,72,-54,-15,16,-173,-81,-77,-55,-79
-99,-55,39,78,-72,-4,16,-167,-81,-83,-61,-73
-93,-55,33,72,-66,-4,16,-161,-81,-83,-61,-73
-93,-49,39,72,-66,-4,16,-155,-81,-89,-61,-73
-99,-49,45,72,-72,-4,16,-167,-81,-89,-55,-73
-99,-49,45,72,-72,-4,11,-173,-87,-89,-61,-73
-93,-37,51,66,-72,2,16,-167,-81,-89,-55,-73
-99,-43,51,72,-78,-4,11,-173,-87,-89,-61,-73
-99,-43,51,72,-78,-4,11,-173,-87,-89,-61,-73
-99,-55,39,78,-72,-4,11,-173,-87,-89,-61,-73
-111,-67,39,90,-78,-9,11,-173,-87,-89,-55,-73
-111,-61,45,84,-78,-4,11,-179,-93,-83,-55,-85
-87,-49,33,66,-60,-4,16,-167,-81,-95,-67,-73
-93,-49,39,72,-66,-4,16,-167,-87,-101,-67,-73
-93,-49,39,72,-66,-4,16,-173,-87,-101,-67,-79
-93,-49,39,72,-66,-4,16,-173,-87,-101,-67,-79
-93,-49,39,72,-66,-4,11,-179,-87,-101,-67,-85
-93,-49,39,72,-66,-4,11,-179,-87,-101,-67,-85
-99,-55,39,78,-72,-4,11,-179,-87,-101,-67,-85
-99,-49,45,72,-72,-4,11,-179,-93,-101,-61,-85
-105,-55,45,78,-78,-4,16,-179,-93,-89,-61,-79
-105,-55,45,78,-78,-4,16,-185,-93,-89,-61,-79
-99,-49,45,72,-72,-4,16,-179,-87,-89,-61,-79
-99,-49,45,72,-72,-4,16,-179,-87,-89,-61,-79
-93,-37,51,66,-72,2,16,-173,-81,-89,-61,-73
-99,-37,57,66,-78,2,16,-173,-75,-89,-61,-73
-93,-43,45,66,-72,-4,16,-173,-75,-83,-61,-79
-87,-43,39,66,-66,-4,16,-161,-63,-77,-55,-73
-81,-43,33,60,-60,-4,28,-155,-57,-65,-55,-73
-81,-31,45,54,-66,2,34,-149,-45,-59,-49,-73
-81,-19,57,48,-72,14,46,-137,-45,-53,-49,-67
-81,-19,57,48,-72,14,52,-137,-39,-47,-43,-67
-75,-13,57,42,-66,14,58,-125,-33,-41,-43,-61
-63,-8,51,36,-60,14,64,-125,-33,-41,-31,-55
-63,-8,51,36,-60,14,76,-113,-21,-35,-25,-55
-63,-8,51,36,-60,14,82,-107,-21,-35,-25,-55
-63,-8,57,30,-60,20,88,-95,-15,-23,-19,-49
-57,-8,51,30,-54,20,88,-95,-15,-23,-19,-43
-51,-8,45,24,-48,14,94,-101,-15,-29,-19,-43
-51,-8,51,24,-48,20,94,-101,-9,-29,-19,-43
-45,-8,45,18,-42,20,100,-101,-9,-29,-19,-43
-39,-8,39,18,-36,14,106,-101,-9,-23,-13,-37
-39,-8,39,18,-36,14,106,-89,-3,-11,-7,-31
-39,-8,39,18,-36,14,106,-89,2,-5,-7,-31
-27,4,39,6,-30,20,106,-89,2,0,-2,-25
-15,4,27,6,-18,14,106,-77,2,0,-2,-25
-4,10,21,6,-12,14,106,-71,2,6,4,-20
2,22,15,-11,-1,20,100,-65,20,12,10,-14
20,46,21,-29,-1,38,88,-59,32,24,16,-2
38,58,15,-47,5,38,70,-47,38,30,22,4
44,64,15,-53,11,44,70,-47,38,30,28,4
44,70,21,-53,5,50,58,-53,38,30,34,10
44,64,15,-53,11,44,52,-59,26,30,34,4
44,58,9,-47,11,38,46,-65,26,36,34,4
38,46,3,-41,11,26,34,-77,20,24,34,10
32,22,-3,-23,17,8,22,-89,2,12,28,4
20,4,-8,-11,17,-4,11,-107,2,0,16,-8
8,-8,-8,1,11,-4,-7,-131,-15,-5,4,-20
8,-8,-14,6,11,-4,-13,-137,-33,-23,-2,-20
8,-8,-20,6,11,-9,-19,-167,-57,-41,-7,-20
8,-13,-26,6,17,-15,-31,-191,-81,-65,-13,-31
8,-25,-38,6,23,-27,-31,-209,-99,-71,-25,-31
8,-25,-38,6,23,-27,-19,-191,-87,-65,-37,-43
-4,-43,-44,18,17,-39,-19,-191,-87,-65,-31,-43
-4,-49,-50,18,23,-45,-13,-179,-81,-59,-31,-37
-4,-43,-38,18,11,-39,-7,-167,-69,-59,-25,-37
-4,-43,-32,24,5,-39,5,-155,-75,-47,-31,-43
-21,-43,-14,30,-1,-27,11,-149,-57,-53,-19,-31
-15,-37,-14,24,-1,-27,16,-149,-63,-53,-25,-37
-27,-37,-3,30,-6,-21,46,-137,-57,-53,-31,-43
-39,-37,-3,36,-18,-15,76,-113,-33,-41,-31,-49
-63,-37,21,48,-42,-4,118,-77,-9,-35,-37,-55
-63,-43,15,54,-42,-9,160,-53,-3,-41,-37,-61
-75,-43,27,60,-54,-4,208,-29,2,-41,-43,-67
-93,-43,45,66,-72,-4,286,0,14,-29,-43,-79
-93,-43,45,66,-72,-4,352,36,44,-17,-43,-73
-87,-49,33,66,-60,-4,352,54,62,-11,-31,-61
-81,-49,27,66,-54,-4,304,60,68,0,-37,-61
-63,-25,33,42,-48,-4,286,78,98,12,-37,-55
-39,-8,27,24,-36,2,262,90,116,30,-25,-55
-4,-8,3,6,-1,-4,190,96,152,66,-2,-37
20,16,-3,-17,11,8,94,126,182,96,10,-14
44,46,-3,-41,17,26,52,150,206,120,34,-8
74,64,-3,-65,41,26,40,192,230,144,40,10
98,76,-14,-83,59,26,-1,222,242,156,58,22
122,76,-38,-95,83,14,-55,234,254,168,70,22
146,94,-44,-119,95,20,-97,258,278,180,70,34
170,88,-74,-125,125,2,-151,276,296,192,82,40
182,88,-86,-131,137,-4,-223,258,308,204,88,46
218,106,-104,-161,161,-4,-277,240,296,216,94,58
248,130,-116,-191,185,2,-361,234,296,234,124,70
272,130,-140,-203,209,-4,-439,198,296,240,130,82
284,106,-176,-197,233,-27,-523,144,260,240,136,88
314,100,-212,-209,263,-45,-595,78,230,222,136,82
344,118,-224,-233,281,-45,-685,12,200,210,154,100
350,118,-230,-233,287,-45,-775,-59,158,210,160,112
356,118,-236,-233,293,-51,-835,-125,122,210,166,118
386,118,-260,-245,323,-63,-871,-185,98,198,166,106
398,118,-272,-251,335,-69,-901,-245,62,204,178,112
410,124,-278,-263,347,-69,-919,-299,62,222,190,130
416,142,-266,-275,341,-57,-943,-365,44,246,220,160
434,172,-254,-299,347,-33,-961,-419,38,282,262,202
434,208,-224,-317,329,-4,-997,-467,26,306,298,226
464,244,-212,-353,335,14,-1039,-515,26,348,334,274
488,298,-188,-395,341,56,-1081,-551,38,396,388,310
506,334,-170,-419,341,80,-1117,-587,56,444,430,334
518,358,-158,-437,341,98,-1165,-659,38,468,442,358
554,370,-182,-461,371,92,-1267,-767,2,468,478,382
620,388,-230,-497,425,80,-1399,-917,-39,498,526,418
728,430,-296,-575,515,62,-1567,-1061,-99,552,616,484
878,430,-446,-653,665,-4,-1753,-1223,-165,612,724,586
1064,418,-644,-737,857,-105,-1969,-1361,-243,666,826,676
1268,442,-824,-851,1049,-189,-2173,-1475,-309,720,946,778
1484,478,-1004,-977,1247,-255,-2371,-1571,-351,804,1102,904
1700,496,-1202,-1097,1457,-345,-2580,-1679,-387,876,1228,1024
1898,502,-1388,-1199,1643,-435,-2778,-1805,-465,906,1330,1120
2053,514,-1532,-1283,1793,-501,-2922,-1889,-507,906,1402,1192
2185,550,-1628,-1367,1907,-531,-3006,-1907,-489,906,1474,1264
2275,634,-1640,-1457,1955,-495,-3042,-1895,-459,948,1558,1360
2317,718,-1598,-1511,1955,-435,-3060,-1895,-423,996,1660,1468
2317,796,-1514,-1553,1919,-351,-3060,-1919,-417,1026,1750,1564
2269,886,-1382,-1577,1829,-243,-3012,-1949,-453,1038,1816,1636
2191,916,-1268,-1547,1727,-171,-2922,-1955,-507,960,1828,1678
2059,820,-1232,-1439,1649,-201,-2778,-1937,-621,732,1708,1594
1892,628,-1256,-1253,1577,-309,-2598,-1913,-813,330,1456,1408
1658,460,-1196,-1055,1427,-363,-2406,-1919,-1035,-101,1150,1174
1376,346,-1022,-857,1205,-333,-2179,-1913,-1209,-449,844,940
1100,238,-854,-671,977,-297,-1933,-1865,-1323,-713,574,718
860,118,-734,-485,797,-303,-1705,-1793,-1377,-893,346,514
590,16,-566,-299,581,-267,-1453,-1685,-1329,-959,130,304
320,-67,-392,-119,353,-231,-1189,-1505,-1227,-947,-79,94
170,-121,-290,-17,233,-207,-967,-1313,-1107,-887,-193,-25
140,-103,-242,-11,191,-171,-817,-1127,-957,-755,-163,-25
98,-43,-146,-17,119,-93,-655,-923,-771,-587,-91,-8
26,-13,-44,1,35,-27,-523,-761,-645,-491,-79,-8
-21,-19,-3,18,-12,-4,-451,-677,-579,-455,-97,-31
-57,-13,39,36,-48,8,-367,-599,-501,-425,-109,-55
-105,-8,99,54,-102,44,-277,-515,-429,-389,-133,-91
-135,-8,129,66,-132,56,-223,-479,-381,-389,-145,-103
-153,-8,153,72,-150,74,-193,-443,-351,-359,-145,-109
-141,-8,129,72,-138,56,-115,-371,-285,-299,-133,-109
-153,-43,105,96,-132,26,-43,-275,-237,-251,-133,-115
-153,-79,69,114,-114,-4,16,-221,-195,-227,-133,-127
-153,-109,39,132,-96,-27,40,-167,-177,-191,-133,-139
-153,-115,33,132,-96,-33,70,-113,-135,-173,-115,-133
-141,-121,15,132,-78,-45,106,-71,-99,-155,-103,-121
-129,-127,-3,126,-66,-57,118,-47,-69,-143,-109,-133
-141,-127,9,132,-78,-51,142,-47,-51,-143,-115,-145
-165,-127,33,144,-102,-39,160,-29,-33,-131,-115,-139
-165,-121,39,144,-102,-33,190,-11,-15,-113,-109,-139
-171,-139,27,156,-102,-51,208,-6,-9,-113,-115,-151
-177,-151,21,162,-102,-57,214,0,-9,-113,-133,-157
-177,-151,21,162,-102,-57,214,0,-21,-131,-139,-157
-177,-151,21,162,-102,-57,226,0,-27,-119,-151,-157
-183,-145,33,162,-108,-51,226,6,-21,-119,-151,-151
-183,-145,33,162,-108,-51,226,18,-21,-119,-151,-151
-189,-139,45,162,-120,-39,238,30,2,-113,-145,-145
-195,-133,57,162,-126,-33,238,36,2,-113,-139,-145
-195,-139,51,168,-126,-39,244,42,2,-113,-145,-145
-195,-133,57,162,-126,-33,256,54,2,-107,-145,-145
-189,-139,45,162,-120,-39,256,60,2,-95,-151,-145
-189,-151,33,168,-114,-51,262,66,8,-89,-145,-145
-195,-145,45,168,-120,-45,268,72,14,-89,-145,-151
-195,-145,45,168,-120,-45,274,84,20,-89,-145,-151
-195,-139,51,168,-126,-39,280,90,20,-95,-145,-157
-195,-133,57,162,-126,-33,280,96,32,-95,-145,-157
-195,-139,51,168,-126,-39,274,96,32,-89,-145,-157
-195,-139,51,168,-126,-39,286,102,32,-83,-145,-157
-195,-145,45,168,-120,-45,286,102,38,-83,-145,-157
-201,-145,51,174,-126,-39,292,108,38,-83,-139,-157
-195,-139,51,168,-126,-39,298,120,44,-77,-133,-157
-195,-151,39,174,-120,-51,304,126,50,-77,-133,-157
-189,-145,39,168,-114,-45,322,132,56,-77,-133,-163
-189,-139,45,162,-120,-39,328,138,56,-77,-139,-163
-189,-139,45,162,-120,-39,328,138,56,-77,-139,-163
-189,-139,45,162,-120,-39,334,150,56,-77,-139,-169
-189,-133,51,162,-120,-33,334,150,50,-77,-139,-169
-189,-127,57,156,-126,-27,340,156,56,-71,-139,-169
-195,-133,57,162,-126,-33,352,168,56,-65,-139,-169
-201,-133,63,168,-132,-27,352,174,68,-65,-139,-169
-207,-139,63,174,-138,-33,370,186,74,-53,-139,-175
-207,-145,57,174,-132,-39,382,192,80,-53,-127,-181
-201,-145,51,174,-126,-39,382,198,80,-59,-133,-175
-201,-139,57,168,-132,-33,388,204,86,-53,-133,-175
-195,-139,51,168,-126,-39,394,210,92,-53,-145,-169
-195,-133,57,162,-126,-33,400,216,98,-53,-145,-169
-201,-139,57,168,-132,-33,412,228,104,-53,-145,-169
-201,-139,57,168,-132,-33,412,234,110,-53,-145,-169
-207,-145,57,174,-132,-39,418,246,116,-53,-145,-169
-213,-145,63,180,-138,-33,424,258,122,-47,-151,-169
-213,-139,69,174,-144,-27,430,264,128,-47,-151,-175
-213,-139,69,174,-144,-27,436,282,134,-47,-151,-175
-219,-151,63,186,-144,-39,454,288,134,-47,-151,-181
-219,-151,63,186,-144,-39,466,294,140,-41,-151,-181
-213,-139,69,174,-144,-27,478,318,158,-35,-157,-175
-213,-133,75,174,-144,-21,490,330,164,-35,-157,-175
-213,-127,81,168,-150,-15,496,348,170,-23,-163,-169
-213,-121,87,168,-150,-9,496,360,182,-23,-175,-169
-219,-127,87,174,-156,-15,508,372,188,-23,-175,-169
-219,-133,81,174,-150,-21,520,384,194,-23,-175,-175
-225,-145,75,186,-150,-27,526,402,200,-17,-169,-169
-231,-151,75,192,-156,-33,532,414,206,-17,-175,-169
-231,-151,75,192,-156,-33,544,420,206,-17,-175,-181
-231,-151,75,192,-156,-33,562,432,224,-11,-175,-187
-225,-139,81,180,-156,-21,574,444,218,-17,-175,-187
-231,-139,87,186,-162,-21,592,462,236,-11,-175,-181
-231,-139,87,186,-162,-21,610,474,242,-11,-169,-187
-231,-145,81,186,-156,-27,616,480,242,-11,-175,-193
-237,-139,93,186,-168,-15,634,492,254,0,-175,-205
-237,-139,93,186,-168,-15,646,516,266,0,-175,-205
-237,-139,93,186,-168,-15,658,534,272,0,-169,-217
-237,-139,93,186,-168,-15,670,552,290,6,-169,-217
-237,-139,93,186,-168,-15,694,570,302,18,-163,-223
-243,-139,105,192,-180,-9,706,582,308,24,-163,-229
-243,-139,99,192,-174,-15,718,588,308,30,-157,-235
-243,-139,99,192,-174,-15,736,606,326,36,-157,-229
-243,-145,99,198,-174,-15,742,612,338,36,-157,-223
-255,-151,105,204,-186,-15,748,630,338,36,-157,-217
-261,-145,117,204,-192,-9,760,642,350,36,-157,-217
-249,-139,111,198,-186,-9,778,660,362,42,-169,-217
-255,-133,123,198,-192,-4,790,678,356,42,-163,-217
-255,-133,123,198,-192,-4,802,702,362,48,-169,-211
-255,-133,123,198,-192,-4,808,714,374,48,-169,-217
-255,-133,123,198,-192,-4,820,720,386,54,-175,-217
-255,-133,123,198,-192,-4,826,732,392,54,-187,-217
-255,-133,123,198,-192,-4,838,750,410,60,-187,-217
-255,-139,117,198,-192,-4,850,756,422,60,-187,-223
-261,-133,129,198,-198,-4,856,774,422,60,-187,-217
-261,-133,129,198,-198,-4,868,774,428,66,-187,-223
-261,-133,129,198,-198,-4,868,786,434,66,-187,-229
-255,-127,129,192,-198,-4,880,798,446,72,-193,-223
-255,-127,129,192,-198,-4,892,810,452,78,-193,-223
-249,-115,135,186,-198,2,904,834,470,84,-199,-217
-243,-109,135,180,-192,8,910,846,476,90,-199,-217
-243,-103,141,174,-198,14,904,852,482,90,-199,-211
-243,-103,141,174,-198,14,904,858,488,90,-205,-211
-237,-97,135,168,-186,14,898,846,488,96,-199,-211
-231,-97,129,162,-180,8,898,846,500,102,-193,-211
-237,-97,135,168,-186,14,892,852,500,102,-187,-211
-237,-91,141,162,-192,20,880,852,500,102,-187,-211
-225,-85,135,156,-180,20,880,858,494,108,-181,-211
-225,-85,135,156,-180,20,874,858,494,108,-175,-211
-225,-91,129,156,-180,14,862,852,494,108,-181,-211
-219,-79,135,150,-180,20,844,840,494,108,-175,-211
-219,-85,129,150,-174,14,832,840,494,108,-181,-211
-219,-85,129,150,-174,14,820,834,488,108,-181,-211
-213,-79,129,144,-174,20,802,810,482,102,-181,-211
-201,-79,117,138,-162,14,790,798,476,108,-175,-211
-183,-73,105,126,-144,8,772,780,470,102,-175,-211
-171,-67,99,120,-138,8,754,768,464,102,-175,-211
-177,-67,105,120,-144,14,742,762,458,102,-163,-205
-171,-67,99,120,-138,8,724,744,446,102,-163,-205
-165,-55,105,108,-138,20,700,732,440,102,-151,-193
-153,-55,93,102,-126,14,676,720,434,102,-151,-187
-147,-49,93,96,-120,14,646,690,416,96,-145,-175
-135,-43,87,90,-114,14,628,666,404,90,-139,-169
-135,-43,87,90,-114,14,604,642,386,84,-139,-157
-129,-43,81,84,-108,14,580,624,374,84,-133,-157
-117,-37,75,78,-96,14,562,600,362,84,-133,-157
-105,-31,69,66,-90,14,538,582,344,84,-127,-151
-99,-25,69,60,-84,14,514,558,326,78,-127,-151
-93,-19,69,54,-84,20,490,540,314,72,-121,-145
-87,-19,63,54,-78,14,466,516,308,66,-109,-139
-81,-19,57,48,-72,14,436,480,296,66,-103,-133
-75,-13,57,42,-66,14,418,456,278,48,-91,-127
-69,-13,51,42,-60,14,382,426,266,48,-85,-121
-63,-8,51,36,-60,14,370,408,248,48,-79,-115
-57,-8,45,30,-54,14,346,384,242,48,-67,-103
-57,-13,39,36,-48,8,334,366,230,42,-67,-97
-57,-13,39,36,-48,8,298,330,218,36,-67,-97
-51,-8,39,30,-48,8,280,312,206,30,-61,-91
-45,-8,33,24,-42,8,256,288,182,30,-55,-85
-45,-8,45,18,-42,20,250,270,164,30,-43,-73
-45,-8,45,18,-42,20,226,234,140,36,-37,-67
-33,-2,39,12,-36,20,208,210,134,36,-43,-67
-33,-2,39,12,-36,20,184,186,128,24,-37,-61
-33,-8,33,12,-30,14,166,168,110,18,-43,-55
-39,-8,33,18,-36,8,154,150,104,6,-43,-55
-39,-8,33,18,-36,8,136,138,86,12,-37,-55
-39,-8,33,18,-36,8,124,114,80,6,-31,-49
-39,-8,39,18,-36,14,112,102,68,6,-25,-49
-39,-8,39,18,-36,14,106,84,62,0,-25,-49
-33,-8,33,12,-30,14,88,66,44,0,-19,-49
-33,-8,33,12,-30,14,76,48,44,0,-19,-49
-39,-8,33,18,-36,8,58,30,20,0,-13,-49
-39,-8,33,18,-36,8,52,12,14,0,-13,-49
-45,-8,33,24,-42,8,58,0,8,0,-19,-43
-45,-8,33,24,-42,8,52,-6,2,-5,-19,-37
-51,-19,27,36,-42,-4,46,0,2,-5,-25,-31
-51,-31,15,42,-36,-4,40,-6,2,-11,-25,-31
-51,-25,21,36,-36,-4,34,-6,-3,-11,-19,-37
-51,-19,27,36,-42,-4,28,-11,-3,-17,-19,-37
-51,-13,33,30,-42,2,22,-29,-15,-17,-19,-43
-51,-8,39,30,-48,8,16,-41,-21,-23,-25,-37
-57,-13,39,36,-48,8,16,-35,-15,-23,-25,-37
-57,-13,39,36,-48,8,16,-41,-21,-23,-25,-37
-69,-13,51,42,-60,14,16,-41,-21,-23,-25,-37
-69,-19,45,42,-60,8,16,-47,-27,-29,-25,-43
-63,-25,33,42,-48,-4,16,-41,-33,-29,-37,-43
-69,-25,39,48,-54,2,16,-47,-33,-35,-37,-49
-69,-31,33,48,-54,-4,16,-41,-39,-35,-43,-49
-69,-25,39,48,-54,2,16,-41,-39,-35,-43,-49
-69,-25,39,48,-54,2,16,-53,-45,-35,-49,-49
-69,-25,39,48,-54,2,16,-53,-45,-41,-49,-55
-69,-37,27,54,-48,-4,16,-53,-51,-47,-49,-55
-69,-37,27,54,-48,-4,16,-53,-57,-53,-49,-55
-63,-37,21,48,-42,-4,16,-53,-57,-53,-55,-55
-63,-43,15,54,-42,-9,16,-53,-57,-53,-55,-55
-57,-43,9,48,-36,-9,16,-53,-57,-53,-61,-61
-57,-43,9,48,-36,-9,16,-53,-57,-59,-61,-61
-63,-37,21,48,-42,-4,16,-47,-57,-65,-55,-61
-63,-43,15,54,-42,-9,16,-53,-57,-65,-55,-61
-75,-37,33,54,-54,-4,16,-47,-63,-65,-55,-61
-75,-37,33,54,-54,-4,16,-41,-63,-65,-55,-61
-69,-37,27,54,-48,-4,16,-47,-63,-59,-55,-67
-69,-37,27,54,-48,-4,16,-47,-63,-59,-55,-67
-63,-37,21,48,-42,-4,16,-47,-63,-53,-55,-73
-63,-37,21,48,-42,-4,16,-47,-63,-53,-55,-73
-69,-37,27,54,-48,-4,16,-53,-63,-53,-55,-73
-69,-37,27,54,-48,-4,16,-53,-63,-53,-55,-73
-81,-37,39,60,-60,-4,16,-53,-63,-53,-55,-67
-81,-37,39,60,-60,-4,22,-53,-63,-53,-55,-67
-81,-37,39,60,-60,-4,22,-47,-57,-53,-61,-73
-81,-37,39,60,-60,-4,16,-47,-57,-53,-61,-73
-81,-37,39,60,-60,-4,16,-47,-51,-53,-61,-79
-81,-37,39,60,-60,-4,22,-47,-51,-53,-61,-79
-87,-37,45,60,-66,-4,22,-47,-57,-53,-61,-79
-87,-37,45,60,-66,-4,22,-47,-57,-59,-67,-79
-87,-37,45,60,-66,-4,28,-47,-63,-59,-67,-85
-87,-37,45,60,-66,-4,28,-47,-63,-59,-67,-85
-87,-37,45,60,-66,-4,28,-41,-57,-59,-67,-79
-87,-37,45,60,-66,-4,28,-41,-57,-59,-67,-79
-93,-37,51,66,-72,2,34,-35,-51,-59,-67,-73
-93,-37,51,66,-72,2,40,-35,-45,-59,-67,-73
-93,-37,51,66,-72,2,40,-35,-51,-65,-73,-79
-93,-37,51,66,-72,2,40,-35,-51,-65,-67,-79
-93,-43,45,66,-72,-4,40,-41,-57,-71,-73,-85
-93,-43,45,66,-72,-4,40,-41,-57,-71,-73,-85
-93,-43,45,66,-72,-4,40,-35,-57,-65,-73,-79
-99,-49,45,72,-72,-4,40,-35,-57,-65,-73,-79
-99,-49,45,72,-72,-4,40,-29,-51,-65,-73,-73
-99,-49,45,72,-72,-4,40,-29,-51,-65,-73,-73
-99,-49,45,72,-72,-4,40,-29,-57,-65,-73,-73
-99,-43,51,72,-78,-4,46,-29,-51,-65,-73,-67
-99,-43,51,72,-78,-4,46,-29,-51,-59,-73,-67
-99,-43,51,72,-78,-4,46,-29,-51,-59,-73,-73
-99,-43,51,72,-78,-4,46,-29,-45,-59,-73,-67
-99,-43,51,72,-78,-4,46,-29,-45,-59,-67,-67
-105,-43,57,72,-84,2,52,-29,-39,-59,-61,-61
-105,-43,57,72,-84,2,52,-29,-39,-59,-61,-61
-99,-37,57,66,-78,2,52,-29,-45,-59,-55,-61
-99,-37,57,66,-78,2,52,-23,-45,-53,-55,-61
-99,-31,63,66,-84,8,52,-23,-51,-53,-49,-61
-99,-31,63,66,-84,8,52,-23,-51,-53,-49,-61
-99,-25,69,60,-84,14,46,-23,-51,-53,-55,-67
-99,-25,69,60,-84,14,46,-23,-51,-53,-55,-67
-99,-25,69,60,-84,14,40,-23,-51,-53,-61,-73
-99,-25,69,60,-84,14,40,-23,-51,-59,-61,-67
-99,-37,57,66,-78,2,40,-23,-45,-59,-61,-67
-99,-37,57,66,-78,2,40,-23,-45,-53,-61,-67
-99,-37,57,66,-78,2,40,-23,-45,-53,-61,-67
-99,-37,57,66,-78,2,40,-23,-51,-53,-61,-67
-99,-37,57,66,-78,2,46,-23,-51,-53,-55,-73
-99,-37,57,66,-78,2,40,-23,-51,-53,-55,-73
-99,-37,57,66,-78,2,46,-23,-51,-53,-61,-79
-99,-37,57,66,-78,2,46,-23,-57,-53,-61,-79
-105,-37,63,72,-84,8,46,-23,-51,-47,-61,-73
-105,-37,63,72,-84,8,46,-23,-51,-47,-61,-73
-111,-37,69,72,-90,8,46,-29,-45,-47,-61,-67
-111,-37,69,72,-90,8,46,-35,-45,-47,-61,-67
-111,-37,69,72,-90,8,40,-35,-45,-47,-61,-67
-111,-37,69,72,-90,8,40,-35,-45,-47,-61,-67
-111,-37,69,72,-90,8,28,-35,-51,-47,-61,-67
-111,-37,69,72,-90,8,28,-41,-51,-47,-61,-67
-105,-43,57,72,-84,2,34,-35,-51,-47,-61,-61
-105,-43,57,72,-84,2,34,-41,-51,-47,-61,-61
-99,-43,51,72,-78,-4,40,-35,-57,-47,-67,-67
-99,-43,51,72,-78,-4,40,-35,-57,-53,-67,-67
-105,-49,51,78,-78,-4,40,-41,-57,-53,-61,-67
-105,-49,51,78,-78,-4,40,-41,-57,-47,-61,-67
-111,-55,51,84,-84,-4,40,-47,-57,-47,-61,-67
-111,-55,51,84,-84,-4,34,-47,-57,-47,-61,-67
-105,-49,51,78,-78,-4,22,-53,-69,-59,-61,-73
-105,-49,51,78,-78,-4,22,-53,-69,-59,-61,-73
-99,-43,51,72,-78,-4,16,-59,-75,-71,-61,-79
-99,-43,51,72,-78,-4,16,-59,-75,-71,-61,-79
-105,-43,57,72,-84,2,16,-53,-75,-71,-67,-79
-105,-43,57,72,-84,2,16,-59,-75,-71,-67,-79
-111,-43,63,78,-90,2,16,-53,-75,-71,-73,-79
-111,-43,63,78,-90,2,16,-59,-75,-71,-73,-79
-111,-49,57,78,-84,-4,16,-59,-75,-71,-73,-73
-111,-49,57,78,-84,-4,16,-59,-75,-71,-73,-73
-111,-49,57,78,-84,-4,16,-59,-75,-77,-79,-67
-111,-49,57,78,-84,-4,16,-59,-75,-77,-79,-61
-111,-49,57,78,-84,-4,16,-65,-81,-77,-73,-61
-111,-49,57,78,-84,-4,16,-65,-81,-77,-73,-61
-105,-49,51,78,-78,-4,16,-77,-93,-77,-67,-61
-105,-49,51,78,-78,-4,16,-83,-99,-77,-67,-67
-105,-43,57,72,-84,2,16,-77,-93,-71,-67,-61
-105,-43,57,72,-84,2,16,-77,-93,-77,-67,-61
-105,-49,51,78,-78,-4,16,-77,-87,-71,-67,-55
-105,-49,51,78,-78,-4,16,-77,-87,-71,-67,-49
-105,-49,51,78,-78,-4,16,-77,-87,-77,-73,-55
-105,-49,51,78,-78,-4,16,-77,-87,-71,-67,-61
-105,-55,45,78,-78,-4,16,-77,-87,-77,-73,-67
-105,-55,45,78,-78,-4,16,-77,-87,-77,-73,-73
-105,-55,45,78,-78,-4,16,-89,-93,-83,-79,-79
-105,-55,45,78,-78,-4,16,-89,-93,-83,-79,-79
-105,-55,45,78,-78,-4,16,-95,-99,-83,-79,-85
-105,-55,45,78,-78,-4,16,-95,-99,-83,-79,-85
-105,-55,45,78,-78,-4,16,-95,-99,-83,-73,-79
-105,-61,39,84,-72,-4,16,-95,-99,-83,-73,-79
-105,-61,39,84,-72,-4,16,-89,-99,-83,-73,-73
-105,-55,45,78,-78,-4,16,-95,-99,-83,-73,-73
-105,-55,45,78,-78,-4,16,-89,-99,-83,-73,-79
-105,-49,51,78,-78,-4,16,-95,-99,-83,-73,-79
-105,-49,51,78,-78,-4,16,-89,-105,-89,-73,-79
-105,-49,51,78,-78,-4,16,-95,-105,-89,-73,-79
-111,-49,57,78,-84,-4,16,-95,-105,-89,-73,-73
-111,-49,57,78,-84,-4,16,-95,-105,-89,-67,-67
-117,-61,51,90,-84,-4,16,-95,-105,-83,-67,-61
-117,-61,51,90,-84,-4,16,-95,-105,-83,-67,-61
-123,-61,57,90,-90,-4,16,-89,-105,-83,-67,-61
-123,-61,57,90,-90,-4,16,-95,-105,-83,-73,-55
-111,-55,51,84,-84,-4,16,-89,-99,-83,-67,-61
-111,-43,63,78,-90,2,16,-89,-99,-83,-67,-61
-111,-49,57,78,-84,-4,11,-95,-99,-89,-73,-67
-117,-49,63,84,-90,2,11,-89,-105,-89,-73,-67
-117,-55,57,84,-90,-4,5,-95,-111,-95,-79,-67
-117,-55,57,84,-90,-4,5,-95,-117,-95,-79,-61
-111,-61,45,84,-78,-4,11,-95,-111,-95,-79,-61
-111,-61,45,84,-78,-4,16,-95,-111,-95,-79,-61
-111,-67,39,90,-78,-9,16,-101,-105,-95,-79,-67
-111,-67,39,90,-78,-9,16,-101,-105,-95,-79,-67
-111,-67,39,90,-78,-9,16,-95,-105,-95,-79,-73
-111,-61,45,84,-78,-4,16,-101,-105,-89,-79,-73
-111,-61,45,84,-78,-4,16,-101,-111,-89,-79,-79
-111,-61,45,84,-78,-4,16,-101,-105,-89,-79,-79
-117,-61,51,90,-84,-4,11,-95,-111,-95,-85,-73
-105,-61,39,84,-72,-4,11,-89,-111,-95,-85,-73
-99,-61,33,78,-66,-9,5,-83,-117,-101,-85,-73
-99,-61,33,78,-66,-9,5,-95,-117,-101,-79,-73
-117,-67,45,90,-84,-4,5,-95,-117,-95,-91,-79
-99,-55,39,78,-72,-4,11,-89,-111,-83,-97,-67
-99,-55,39,78,-72,-4,11,-89,-111,-89,-85,-73
-117,-49,63,84,-90,2,11,-83,-111,-89,-91,-85
-111,-49,57,78,-84,-4,11,-83,-111,-95,-91,-85
-111,-49,57,78,-84,-4,11,-83,-111,-95,-91,-85
-105,-49,51,78,-78,-4,11,-83,-111,-101,-91,-85
-105,-49,51,78,-78,-4,11,-83,-111,-101,-91,-85
-111,-55,51,84,-84,-4,5,-89,-105,-101,-91,-79
-111,-49,57,78,-84,-4,5,-89,-111,-101,-85,-79
-117,-55,57,84,-90,-4,5,-95,-105,-89,-85,-67
-117,-55,57,84,-90,-4,5,-101,-105,-89,-85,-67
-111,-55,51,84,-84,-4,11,-95,-105,-89,-79,-73
-111,-55,51,84,-84,-4,11,-95,-105,-89,-79,-73
-105,-49,51,78,-78,-4,16,-89,-105,-89,-73,-73
-111,-49,57,78,-84,-4,16,-89,-99,-89,-73,-73
-111,-43,63,78,-90,2,16,-89,-105,-95,-73,-73
-105,-43,57,72,-84,2,16,-77,-93,-89,-67,-67
-105,-31,69,66,-90,14,16,-71,-93,-89,-67,-61
-105,-19,81,60,-96,26,22,-65,-81,-83,-61,-61
-99,-13,81,54,-90,26,34,-53,-87,-77,-67,-61
-99,-13,81,54,-90,26,46,-53,-81,-71,-61,-61
-87,-13,69,48,-78,20,52,-41,-81,-65,-67,-61
-75,-8,63,42,-72,20,64,-41,-81,-65,-55,-55
-75,-8,63,42,-72,20,70,-29,-69,-59,-49,-55
-75,-8,63,42,-72,20,76,-23,-63,-59,-49,-55
-75,-8,69,36,-72,26,76,-11,-57,-47,-43,-49
-69,-8,63,36,-66,26,76,-11,-51,-47,-43,-43
-69,-8,63,36,-66,26,82,-6,-51,-41,-37,-37
-69,-8,69,30,-66,32,82,-6,-45,-41,-37,-37
-69,-8,69,30,-66,32,88,-6,-45,-29,-31,-31
-63,-8,63,30,-60,26,94,-6,-45,-23,-25,-25
-57,-8,51,30,-54,20,94,6,-33,-17,-25,-20
-57,-8,51,30,-54,20,94,6,-27,-11,-25,-20
-39,-8,39,18,-36,14,94,6,-21,-11,-25,-20
-27,-8,27,12,-24,8,94,18,-21,-11,-13,-20
-15,-2,21,6,-18,8,100,30,-9,0,-2,-14
-4,16,21,1,-6,20,100,36,2,6,-2,-8
8,40,27,-23,-1,38,94,48,8,18,4,-2
26,58,27,-41,-1,44,82,60,14,30,10,4
32,64,27,-47,-1,50,76,60,20,24,10,10
32,64,27,-47,-1,50,64,54,20,24,16,16
32,58,21,-41,-1,44,52,48,14,18,10,16
32,46,9,-35,5,32,46,42,14,24,10,16
32,46,9,-35,5,32,40,30,2,18,16,22
26,28,-3,-23,11,14,34,18,-3,6,10,16
20,22,-3,-17,5,14,16,0,-21,0,4,4
8,16,3,-11,-1,14,16,-11,-39,-5,-2,-8
8,4,-3,-5,5,2,11,-17,-57,-23,-7,-14
8,-2,-3,1,5,-4,-1,-41,-75,-41,-13,-14
8,-8,-14,6,11,-4,-13,-65,-99,-65,-13,-20
8,-13,-26,6,17,-15,-19,-77,-111,-71,-25,-20
8,-25,-38,6,23,-27,-31,-71,-111,-89,-37,-20
8,-43,-56,12,29,-45,-31,-71,-123,-89,-31,-20
8,-37,-50,6,29,-39,-13,-59,-105,-71,-43,-25
-4,-43,-38,18,11,-39,-7,-47,-105,-71,-49,-25
-27,-43,-8,36,-6,-27,16,-47,-99,-71,-43,-31
-33,-43,-3,36,-12,-21,22,-29,-81,-65,-43,-31
-39,-37,-3,36,-18,-15,40,-17,-87,-77,-49,-37
-51,-37,9,42,-30,-9,58,-6,-81,-77,-67,-43
-63,-37,21,48,-42,-4,76,-6,-69,-65,-67,-49
-75,-37,33,54,-54,-4,94,6,-45,-47,-61,-43
-75,-43,27,60,-54,-4,136,42,-39,-41,-61,-49
-75,-43,27,60,-54,-4,184,66,-21,-41,-67,-55
-93,-43,45,66,-72,-4,262,108,-9,-29,-67,-55
-105,-43,57,72,-84,2,340,144,2,-17,-55,-49
-87,-49,33,66,-60,-4,364,186,26,0,-55,-49
-69,-37,27,54,-48,-4,340,192,44,0,-49,-49
-63,-25,33,42,-48,-4,298,210,62,0,-37,-55
-51,-19,27,36,-42,-4,274,222,80,18,-37,-43
-27,-8,15,18,-24,-4,214,228,104,30,-37,-37
-4,4,3,1,-1,8,106,234,134,60,-13,-20
20,34,9,-23,-1,26,28,240,158,96,-2,-8
38,64,21,-47,5,44,16,282,182,120,28,22
62,76,9,-65,23,44,-13,300,200,144,34,34
98,88,-3,-89,53,38,-79,324,224,168,46,46
134,94,-32,-113,83,26,-109,354,242,192,70,58
158,88,-62,-119,113,8,-139,396,272,204,82,64
182,88,-86,-131,137,-4,-199,402,284,204,88,58
194,82,-104,-137,149,-4,-265,384,272,204,82,58
218,94,-116,-155,167,-4,-349,360,272,222,88,70
236,94,-140,-167,191,-15,-439,336,284,240,106,82
260,106,-152,-185,209,-15,-511,294,260,240,112,100
290,112,-176,-203,239,-21,-583,240,230,234,124,106
320,118,-200,-221,257,-33,-673,180,188,222,130,112
338,130,-206,-233,269,-27,-763,96,146,210,136,124
356,130,-224,-239,287,-39,-823,18,110,210,142,118
386,118,-260,-245,323,-63,-871,-29,86,198,142,118
410,130,-272,-263,341,-63,-901,-77,62,192,154,136
410,136,-266,-269,341,-57,-919,-137,38,198,166,142
404,142,-254,-269,329,-51,-931,-203,20,216,196,160
422,160,-254,-287,341,-39,-973,-263,14,240,232,190
446,184,-254,-311,353,-27,-1009,-323,14,270,262,226
452,214,-236,-329,341,-4,-1063,-377,2,312,286,250
470,262,-200,-365,335,32,-1105,-425,2,360,328,286
494,334,-158,-413,329,86,-1129,-461,8,408,382,334
518,382,-134,-449,329,122,-1177,-515,14,444,406,358
530,394,-134,-461,335,128,-1243,-605,-15,456,430,370
584,400,-182,-485,383,110,-1351,-731,-75,456,460,406
662,430,-230,-539,449,98,-1495,-875,-135,492,532,472
782,454,-326,-617,557,62,-1693,-1043,-201,540,628,562
962,430,-524,-695,743,-39,-1915,-1223,-279,570,730,640
1154,418,-734,-779,947,-153,-2125,-1361,-369,588,838,730
1358,430,-926,-893,1145,-243,-2335,-1499,-447,642,952,844
1586,478,-1106,-1025,1349,-309,-2556,-1619,-513,690,1066,952
1802,514,-1280,-1157,1541,-375,-2754,-1733,-591,732,1192,1048
1982,526,-1454,-1253,1715,-459,-2922,-1853,-663,738,1282,1132
2137,538,-1592,-1337,1865,-519,-3066,-1919,-717,720,1348,1198
2239,574,-1664,-1409,1949,-537,-3126,-1931,-717,714,1408,1264
2317,670,-1646,-1487,1979,-483,-3144,-1931,-681,750,1492,1354
2365,772,-1586,-1565,1973,-399,-3150,-1955,-651,792,1588,1444
2365,850,-1508,-1607,1943,-321,-3132,-1967,-639,816,1666,1540
2293,916,-1376,-1601,1835,-225,-3078,-1973,-663,804,1708,1606
2179,916,-1256,-1541,1715,-165,-2976,-1967,-735,702,1690,1618
2030,778,-1244,-1403,1643,-231,-2820,-1949,-873,426,1522,1498
1844,586,-1250,-1211,1547,-327,-2616,-1919,-1083,0,1240,1288
1598,442,-1154,-1013,1379,-351,-2406,-1913,-1287,-389,940,1042
1310,322,-980,-815,1151,-321,-2167,-1877,-1431,-677,646,826
1034,214,-818,-623,929,-297,-1909,-1817,-1503,-893,406,610
788,112,-674,-449,731,-273,-1669,-1727,-1491,-989,214,412
518,4,-506,-257,515,-243,-1411,-1589,-1395,-977,16,214
236,-85,-326,-71,281,-207,-1135,-1409,-1269,-971,-157,22
128,-115,-242,1,185,-177,-925,-1199,-1131,-887,-235,-37
110,-91,-206,1,155,-147,-769,-989,-951,-731,-175,-20
38,-49,-92,6,65,-69,-619,-773,-771,-575,-127,-8
-21,-8,9,12,-18,-4,-493,-629,-663,-497,-133,-8
-45,-8,39,24,-42,14,-403,-527,-597,-461,-133,-20
-93,-8,87,48,-90,38,-325,-461,-519,-425,-145,-43
-159,-2,165,72,-162,80,-247,-407,-465,-401,-157,-79
-165,4,177,72,-168,92,-205,-371,-423,-383,-169,-97
-153,4,165,66,-156,86,-151,-335,-369,-347,-157,-97
-177,-8,165,90,-174,74,-67,-251,-291,-299,-157,-103
-177,-55,117,114,-150,26,5,-161,-237,-257,-157,-103
-177,-85,87,132,-132,-4,28,-95,-213,-227,-157,-115
-165,-103,57,132,-114,-15,58,-41,-183,-209,-151,-121
-165,-109,51,138,-108,-21,94,0,-159,-179,-139,-109
-165,-115,45,138,-108,-27,118,36,-141,-167,-133,-121
-165,-115,45,138,-108,-27,142,48,-111,-155,-127,-121
-177,-115,57,144,-120,-21,172,54,-93,-155,-127,-127
-201,-133,63,168,-132,-27,190,60,-75,-149,-145,-139
-207,-145,57,174,-132,-39,214,78,-51,-137,-145,-151
-213,-157,51,186,-132,-45,226,90,-45,-131,-157,-157
-213,-151,57,180,-138,-39,232,90,-39,-137,-157,-157
-213,-151,57,180,-138,-39,250,96,-39,-119,-163,-157
-219,-145,69,180,-144,-33,250,102,-45,-119,-163,-151
-219,-145,69,180,-144,-33,250,114,-45,-119,-169,-151
-225,-139,81,180,-156,-21,256,126,-33,-113,-163,-145
-231,-133,93,180,-162,-15,256,132,-27,-113,-163,-145
-225,-133,87,180,-156,-15,262,132,-21,-113,-163,-145
-225,-127,93,174,-162,-9,280,144,-15,-107,-163,-145
-213,-127,81,168,-150,-15,280,144,-9,-95,-163,-145
-213,-139,69,174,-144,-27,286,150,-3,-89,-157,-145
-219,-145,69,180,-144,-33,292,150,2,-89,-163,-151
-219,-151,63,186,-144,-39,298,162,2,-89,-169,-151
-219,-157,57,186,-138,-45,304,162,2,-95,-175,-157
-219,-157,57,186,-138,-45,304,168,8,-95,-181,-157
-225,-151,69,186,-150,-33,304,168,2,-95,-181,-157
-225,-151,69,186,-150,-33,316,174,2,-89,-181,-157
-231,-145,81,186,-156,-27,322,174,2,-95,-181,-157
-237,-145,87,192,-162,-21,328,180,2,-95,-175,-157
-231,-145,81,186,-156,-27,322,192,14,-89,-169,-151
-231,-157,69,192,-150,-39,328,198,20,-89,-169,-151
-225,-157,63,192,-144,-39,334,204,32,-89,-169,-151
-225,-151,69,186,-150,-33,340,210,32,-89,-175,-151
-225,-151,69,186,-150,-33,346,216,38,-89,-169,-151
-225,-151,69,186,-150,-33,352,228,38,-89,-163,-157
-225,-145,75,186,-150,-27,358,234,38,-89,-157,-157
-225,-139,81,180,-156,-21,364,234,44,-83,-151,-157
-219,-139,75,180,-150,-27,364,234,38,-83,-157,-157
-225,-139,81,180,-156,-21,364,240,50,-83,-157,-157
-219,-139,75,180,-150,-27,370,240,50,-77,-163,-163
-219,-145,69,180,-144,-33,382,246,56,-77,-151,-169
-225,-145,75,186,-150,-27,388,252,56,-77,-157,-169
-225,-145,75,186,-150,-27,394,258,62,-71,-157,-169
-231,-145,81,186,-156,-27,406,264,68,-65,-169,-169
-231,-145,81,186,-156,-27,412,270,74,-65,-169,-169
-231,-145,81,186,-156,-27,424,276,80,-65,-169,-163
-231,-145,81,186,-156,-27,424,282,86,-65,-163,-163
-231,-145,81,186,-156,-27,430,294,92,-65,-163,-157
-237,-145,87,192,-162,-21,436,306,98,-59,-163,-157
-231,-139,87,186,-162,-21,442,312,104,-59,-169,-157
-231,-139,87,186,-162,-21,448,330,110,-59,-169,-157
-231,-151,75,192,-156,-33,466,336,110,-59,-175,-157
-231,-151,75,192,-156,-33,478,342,116,-53,-175,-157
-225,-145,75,186,-150,-27,490,354,128,-53,-181,-163
-225,-139,81,180,-156,-21,496,360,128,-53,-175,-163
-225,-139,81,180,-156,-21,502,366,128,-47,-181,-169
-225,-133,87,180,-156,-15,496,372,134,-47,-187,-169
-231,-133,93,180,-162,-15,514,384,146,-41,-187,-175
-231,-133,93,180,-162,-15,526,396,152,-41,-187,-181
-237,-139,93,186,-168,-15,538,414,164,-29,-181,-181
-243,-139,99,192,-174,-15,544,426,170,-29,-187,-181
-243,-145,99,198,-174,-15,556,432,170,-23,-187,-187
-243,-145,99,198,-174,-15,574,444,188,-17,-187,-193
-243,-139,105,192,-180,-9,586,456,182,-17,-187,-187
-249,-139,111,198,-186,-9,604,474,200,-11,-187,-181
-249,-139,111,198,-186,-9,616,480,200,-17,-187,-187
-249,-145,105,198,-180,-15,622,486,206,-17,-193,-199
-255,-139,117,198,-192,-4,634,492,212,-11,-199,-211
-255,-139,117,198,-192,-4,646,516,224,-5,-199,-217
-255,-139,117,198,-192,-4,658,528,236,0,-193,-223
-255,-139,117,198,-192,-4,670,546,248,0,-193,-223
-255,-139,117,198,-192,-4,694,558,266,6,-187,-223
-267,-139,129,204,-204,-4,706,570,272,12,-187,-229
-261,-139,123,204,-198,-4,718,576,272,18,-181,-235
-261,-139,123,204,-198,-4,736,594,290,24,-181,-229
-267,-145,123,210,-198,-4,742,600,302,24,-181,-223
-279,-151,129,216,-210,-4,748,618,302,24,-181,-217
-279,-151,129,216,-210,-4,766,624,320,24,-181,-217
-267,-145,123,210,-198,-4,784,642,332,30,-193,-217
-267,-145,123,210,-198,-4,802,654,332,30,-187,-217
-267,-145,123,210,-198,-4,814,678,338,36,-193,-211
-273,-145,129,210,-204,-4,820,690,350,36,-193,-217
-273,-145,129,210,-204,-4,832,696,362,42,-199,-217
-279,-145,135,216,-210,-4,838,714,368,42,-211,-217
-279,-145,135,216,-210,-4,850,726,386,48,-211,-217
-279,-145,135,216,-210,-4,868,732,398,48,-211,-217
-285,-139,147,216,-222,-4,874,750,398,48,-211,-211
-285,-133,153,210,-222,2,892,750,404,54,-211,-211
-285,-133,153,210,-222,2,892,762,410,54,-211,-217
-285,-139,147,216,-222,-4,892,768,422,66,-211,-217
-285,-139,147,216,-222,-4,904,780,428,72,-211,-217
-285,-139,147,216,-222,-4,904,798,446,84,-211,-217
-279,-133,147,210,-216,2,910,810,452,90,-211,-217
-279,-127,153,204,-222,8,916,822,458,90,-217,-217
-279,-127,153,204,-222,8,916,834,470,90,-223,-217
-267,-121,147,198,-210,8,922,828,470,96,-223,-223
-261,-121,141,192,-204,2,922,834,482,102,-217,-223
-267,-121,147,198,-210,8,922,840,488,102,-217,-223
-267,-115,153,192,-216,14,910,840,488,102,-217,-223
-255,-109,147,186,-204,14,916,846,488,108,-217,-223
-255,-109,147,186,-204,14,910,846,488,108,-211,-223
-249,-103,147,180,-204,14,892,834,482,102,-217,-229
-243,-91,147,168,-198,20,874,822,482,96,-211,-229
-237,-85,147,162,-192,26,856,816,476,90,-217,-235
-231,-85,141,156,-186,20,844,810,470,84,-217,-235
-225,-79,141,150,-186,26,826,786,458,84,-211,-229
-219,-73,141,144,-180,26,814,774,452,90,-205,-229
-201,-67,129,132,-168,26,796,756,446,90,-199,-223
-195,-55,135,126,-168,32,778,744,440,90,-199,-223
-201,-61,135,132,-168,32,766,732,434,96,-187,-217
-201,-61,135,132,-168,32,748,720,422,96,-187,-217
-195,-55,135,126,-168,32,736,702,416,102,-175,-205
-189,-55,129,120,-162,32,712,684,410,102,-175,-199
-177,-49,123,114,-150,32,682,660,398,96,-163,-187
-165,-43,117,102,-144,32,664,636,386,90,-157,-175
-159,-43,111,102,-138,26,640,618,374,84,-151,-163
-153,-43,105,96,-132,26,616,600,362,84,-145,-157
-147,-43,99,96,-126,20,592,570,350,84,-145,-157
-135,-37,93,84,-114,20,568,546,332,84,-145,-151
-135,-37,93,84,-114,20,538,516,314,78,-145,-151
-129,-31,93,78,-114,26,508,492,302,72,-145,-145
-129,-31,93,78,-114,26,496,480,296,72,-139,-145
-123,-31,87,78,-108,20,472,450,290,72,-133,-139
-123,-25,93,72,-108,26,460,426,272,60,-127,-139
-117,-25,87,72,-102,26,430,402,266,60,-121,-133
-105,-19,81,60,-96,26,412,378,248,60,-115,-127
-99,-19,75,60,-90,20,388,348,242,60,-97,-115
-93,-25,63,60,-78,14,370,324,224,54,-97,-109
-93,-25,63,60,-78,14,334,282,206,48,-91,-109
-87,-19,63,54,-78,14,316,264,194,42,-85,-97
-81,-19,57,48,-72,14,292,240,176,36,-79,-91
-81,-8,69,42,-78,26,280,228,158,36,-67,-73
-81,-8,69,42,-78,26,256,192,140,36,-61,-67
-69,-8,63,36,-66,26,244,162,134,36,-55,-67
-69,-8,63,36,-66,26,220,138,122,24,-49,-61
-69,-8,57,36,-66,20,202,120,104,18,-43,-55
-75,-13,57,42,-66,14,190,102,92,6,-43,-55
-69,-13,51,42,-60,14,172,84,74,12,-43,-55
-69,-13,51,42,-60,14,154,54,68,6,-37,-49
-63,-8,51,36,-60,14,142,36,56,6,-37,-49
-63,-8,51,36,-60,14,130,12,50,0,-37,-49
-63,-13,45,36,-54,8,124,-6,38,0,-37,-49
-63,-13,45,36,-54,8,112,-6,38,0,-37,-49
-75,-25,45,48,-60,2,106,-23,20,-5,-37,-49
-75,-25,45,48,-60,2,100,-35,14,-11,-37,-49
-69,-19,45,42,-60,8,94,-47,8,-5,-37,-43
-69,-19,45,42,-60,8,88,-59,2,-11,-37,-37
-63,-19,39,42,-54,2,70,-53,2,-5,-37,-31
-63,-31,27,48,-48,-4,64,-65,-9,-11,-37,-31
-69,-31,33,48,-54,-4,58,-77,-15,-11,-31,-31
-69,-31,33,48,-54,-4,52,-83,-15,-17,-31,-31
-75,-31,39,54,-60,-4,46,-101,-27,-17,-31,-31
-75,-31,39,54,-60,-4,40,-113,-33,-23,-37,-25
-75,-37,33,54,-54,-4,40,-113,-33,-29,-37,-31
-75,-37,33,54,-54,-4,40,-119,-39,-29,-37,-31
-81,-37,39,60,-60,-4,40,-125,-45,-35,-37,-37
-81,-43,33,60,-60,-4,40,-131,-51,-41,-37,-43
-81,-43,33,60,-60,-4,40,-131,-51,-41,-49,-43
-87,-43,39,66,-66,-4,40,-137,-51,-47,-49,-49
-93,-43,45,66,-72,-4,34,-137,-51,-47,-55,-49
-93,-37,51,66,-72,2,34,-137,-51,-47,-55,-49
-93,-37,51,66,-72,2,34,-143,-57,-47,-67,-49
-93,-37,51,66,-72,2,34,-143,-57,-47,-67,-55
-93,-49,39,72,-66,-4,34,-137,-63,-53,-73,-55
-93,-49,39,72,-66,-4,28,-137,-69,-53,-73,-55
-99,-49,45,72,-72,-4,28,-143,-69,-59,-73,-55
-99,-55,39,78,-72,-4,34,-143,-69,-59,-73,-55
-105,-55,45,78,-78,-4,34,-149,-69,-65,-73,-61
-105,-55,45,78,-78,-4,34,-149,-69,-71,-73,-61
-105,-55,45,78,-78,-4,40,-143,-69,-71,-73,-67
-105,-61,39,84,-72,-4,40,-149,-69,-71,-73,-67
-111,-61,45,84,-78,-4,46,-143,-75,-65,-79,-73
-111,-61,45,84,-78,-4,46,-137,-75,-65,-79,-73
-105,-61,39,84,-72,-4,46,-143,-69,-65,-73,-73
-105,-61,39,84,-72,-4,46,-143,-69,-65,-73,-73
-99,-61,33,78,-66,-9,46,-143,-63,-65,-67,-73
-99,-61,33,78,-66,-9,46,-143,-63,-65,-67,-73
-99,-67,27,84,-66,-15,46,-149,-69,-71,-67,-73
-99,-67,27,84,-66,-15,52,-149,-69,-71,-67,-73
-105,-73,27,90,-66,-15,52,-149,-75,-77,-67,-67
-105,-73,27,90,-66,-15,58,-149,-75,-77,-67,-67
-105,-67,33,84,-72,-9,58,-143,-75,-71,-67,-67
-105,-67,33,84,-72,-9,52,-143,-75,-71,-67,-67
-105,-61,39,84,-72,-4,52,-143,-75,-65,-61,-67
-105,-61,39,84,-72,-4,58,-143,-75,-65,-61,-67
-111,-55,51,84,-84,-4,58,-137,-75,-59,-61,-61
-111,-55,51,84,-84,-4,58,-137,-75,-65,-67,-61
-111,-49,57,78,-84,-4,64,-131,-75,-59,-67,-61
-111,-49,57,78,-84,-4,64,-131,-75,-59,-67,-61
-111,-55,51,84,-84,-4,64,-125,-69,-65,-61,-55
-111,-61,45,84,-78,-4,64,-125,-69,-65,-61,-55
-117,-67,45,90,-84,-4,70,-119,-63,-71,-55,-49
-117,-73,39,96,-78,-9,76,-119,-57,-71,-55,-49
-117,-61,51,90,-84,-4,76,-119,-63,-71,-61,-55
-117,-61,51,90,-84,-4,76,-119,-63,-71,-61,-61
-117,-55,57,84,-90,-4,76,-125,-69,-71,-67,-67
-117,-55,57,84,-90,-4,76,-125,-69,-71,-73,-73
-117,-49,63,84,-90,2,70,-125,-69,-65,-79,-73
-123,-55,63,90,-96,-4,70,-125,-69,-65,-79,-73
-123,-49,69,84,-96,2,64,-125,-63,-65,-85,-73
-123,-49,69,84,-96,2,64,-125,-63,-65,-85,-73
-123,-55,63,90,-96,-4,64,-125,-63,-65,-79,-79
-123,-49,69,84,-96,2,70,-125,-57,-65,-79,-73
-123,-55,63,90,-96,-4,70,-125,-51,-59,-73,-79
-123,-55,63,90,-96,-4,70,-125,-51,-59,-73,-85
-123,-61,57,90,-90,-4,70,-125,-51,-53,-73,-79
-123,-61,57,90,-90,-4,70,-125,-51,-53,-67,-79
-129,-67,57,96,-96,-4,76,-125,-51,-47,-61,-73
-129,-67,57,96,-96,-4,76,-125,-51,-47,-61,-73
-123,-67,51,96,-90,-4,76,-119,-51,-53,-61,-79
-123,-67,51,96,-90,-4,76,-113,-51,-47,-61,-79
-123,-67,51,96,-90,-4,76,-107,-51,-53,-61,-85
-123,-67,51,96,-90,-4,76,-107,-51,-53,-61,-85
-129,-55,69,90,-102,2,70,-113,-57,-53,-67,-85
-129,-55,69,90,-102,2,70,-119,-57,-53,-67,-85
-135,-49,81,90,-108,8,64,-125,-63,-53,-73,-85
-135,-49,81,90,-108,8,64,-131,-63,-59,-73,-79
-129,-55,69,90,-102,2,70,-125,-51,-59,-67,-73
-129,-55,69,90,-102,2,70,-119,-51,-53,-67,-73
-123,-49,69,84,-96,2,76,-113,-45,-53,-61,-67
-123,-49,69,84,-96,2,76,-107,-51,-53,-61,-67
-123,-49,69,84,-96,2,76,-107,-45,-47,-49,-61
-123,-49,69,84,-96,2,70,-107,-45,-47,-49,-61
-123,-49,69,84,-96,2,70,-107,-39,-41,-49,-55
-123,-49,69,84,-96,2,70,-107,-45,-41,-49,-55
-117,-49,63,84,-90,2,70,-107,-45,-47,-49,-55
-117,-49,63,84,-90,2,70,-107,-45,-47,-49,-55
-111,-49,57,78,-84,-4,70,-113,-45,-59,-49,-55
-111,-49,57,78,-84,-4,70,-119,-45,-59,-49,-55
-117,-49,63,84,-90,2,70,-113,-45,-53,-49,-55
-117,-49,63,84,-90,2,70,-113,-45,-47,-49,-55
-123,-49,69,84,-96,2,64,-107,-51,-41,-49,-55
-123,-49,69,84,-96,2,64,-113,-51,-35,-49,-55
-129,-55,69,90,-102,2,70,-113,-51,-35,-43,-43
-129,-55,69,90,-102,2,70,-119,-51,-35,-43,-43
-135,-55,75,96,-108,2,76,-119,-57,-35,-43,-43
-135,-55,75,96,-108,2,76,-119,-57,-41,-43,-43
-129,-61,63,96,-96,-4,70,-119,-57,-47,-37,-43
-129,-61,63,96,-96,-4,70,-119,-57,-41,-37,-43
-123,-67,51,96,-90,-4,64,-119,-57,-47,-37,-43
-123,-67,51,96,-90,-4,58,-119,-57,-47,-37,-43
-129,-61,63,96,-96,-4,52,-119,-69,-53,-43,-49
-129,-61,63,96,-96,-4,52,-119,-69,-53,-49,-55
-135,-55,75,96,-108,2,52,-119,-75,-59,-55,-61
-135,-55,75,96,-108,2,52,-119,-75,-59,-61,-67
-135,-55,75,96,-108,2,52,-119,-75,-65,-61,-67
-135,-55,75,96,-108,2,52,-125,-75,-65,-61,-67
-135,-55,75,96,-108,2,52,-125,-75,-71,-61,-67
-135,-55,75,96,-108,2,52,-131,-75,-71,-61,-67
-129,-61,63,96,-96,-4,52,-131,-75,-65,-55,-67
-129,-61,63,96,-96,-4,52,-131,-75,-65,-55,-67
-123,-61,57,90,-90,-4,52,-131,-75,-65,-55,-67
-123,-61,57,90,-90,-4,52,-131,-75,-65,-55,-61
-123,-61,57,90,-90,-4,52,-131,-81,-71,-61,-61
-123,-61,57,90,-90,-4,52,-131,-81,-71,-61,-61
-117,-61,51,90,-84,-4,46,-137,-93,-77,-67,-61
-117,-61,51,90,-84,-4,46,-143,-99,-77,-67,-67
-117,-55,57,84,-90,-4,40,-143,-99,-77,-67,-67
-117,-55,57,84,-90,-4,40,-143,-99,-83,-67,-67
-117,-61,51,90,-84,-4,34,-149,-99,-83,-67,-67
-117,-61,51,90,-84,-4,34,-149,-99,-83,-67,-61
-123,-55,63,90,-96,-4,34,-149,-99,-83,-61,-61
-123,-55,63,90,-96,-4,34,-149,-99,-77,-55,-61
-129,-55,69,90,-102,2,34,-149,-99,-77,-49,-61
-129,-55,69,90,-102,2,34,-149,-99,-77,-49,-61
-129,-61,63,96,-96,-4,34,-149,-99,-83,-55,-61
-129,-61,63,96,-96,-4,34,-149,-99,-83,-55,-61
-129,-67,57,96,-96,-4,28,-143,-99,-83,-55,-61
-129,-67,57,96,-96,-4,28,-143,-99,-83,-55,-61
-129,-67,57,96,-96,-4,28,-143,-93,-77,-49,-67
-129,-73,51,102,-90,-4,28,-143,-93,-77,-49,-67
-129,-73,51,102,-90,-4,34,-137,-87,-71,-49,-73
-129,-67,57,96,-96,-4,34,-143,-87,-71,-49,-73
-129,-61,63,96,-96,-4,34,-137,-93,-77,-55,-73
-129,-55,69,90,-102,2,34,-143,-93,-77,-55,-73
-129,-49,75,90,-102,8,34,-137,-105,-89,-61,-67
-129,-49,75,90,-102,8,34,-143,-105,-89,-61,-67
-123,-49,69,84,-96,2,34,-143,-99,-89,-61,-67
-123,-49,69,84,-96,2,34,-143,-99,-89,-55,-61
-117,-61,51,90,-84,-4,34,-143,-93,-83,-55,-61
-117,-61,51,90,-84,-4,34,-143,-93,-83,-55,-61
-129,-67,57,96,-96,-4,34,-137,-99,-77,-55,-61
-129,-67,57,96,-96,-4,34,-143,-99,-77,-61,-55
-123,-67,51,96,-90,-4,34,-137,-99,-71,-55,-61
-123,-55,63,90,-96,-4,34,-137,-99,-71,-55,-61
-135,-55,75,96,-108,2,28,-137,-105,-83,-55,-61
-129,-55,69,90,-102,2,28,-143,-105,-95,-55,-61
-129,-55,69,90,-102,2,28,-131,-105,-95,-55,-67
-129,-55,69,90,-102,2,28,-131,-105,-95,-55,-61
-129,-61,63,96,-96,-4,22,-143,-111,-101,-55,-61
-129,-61,63,96,-96,-4,28,-143,-111,-95,-55,-61
-129,-61,63,96,-96,-4,28,-143,-111,-95,-55,-61
-129,-61,63,96,-96,-4,34,-143,-111,-89,-55,-61
-129,-61,63,96,-96,-4,34,-143,-111,-89,-55,-61
-129,-67,57,96,-96,-4,34,-137,-105,-95,-61,-67
-129,-67,57,96,-96,-4,34,-137,-105,-95,-55,-67
-129,-73,51,102,-90,-4,40,-131,-99,-89,-61,-67
-129,-79,45,102,-90,-9,40,-137,-93,-89,-61,-67
-129,-79,45,102,-90,-9,34,-137,-99,-89,-67,-67
-129,-79,45,102,-90,-9,34,-137,-99,-89,-67,-67
-129,-73,51,102,-90,-4,34,-137,-105,-89,-73,-61
-135,-73,57,102,-96,-4,34,-137,-99,-89,-73,-61
-135,-67,63,102,-102,-4,40,-137,-99,-83,-67,-67
-129,-67,57,96,-96,-4,40,-125,-87,-77,-61,-61
-129,-55,69,90,-102,2,64,-119,-81,-65,-55,-61
-129,-43,81,84,-108,14,70,-113,-69,-59,-49,-61
-117,-25,87,72,-102,26,76,-101,-69,-53,-49,-55
-117,-25,87,72,-102,26,82,-101,-63,-47,-43,-55
-99,-13,81,54,-90,26,82,-89,-57,-41,-43,-49
-87,-8,75,48,-84,26,88,-89,-57,-41,-31,-43
-93,-13,75,54,-84,26,100,-77,-45,-41,-25,-37
-99,-13,81,54,-90,26,106,-71,-45,-41,-25,-37
-105,-13,87,60,-96,32,112,-59,-39,-35,-19,-25
-105,-13,87,60,-96,32,112,-59,-39,-35,-19,-20
-105,-19,81,60,-96,26,118,-59,-39,-35,-13,-25
-105,-13,87,60,-96,32,118,-59,-33,-35,-13,-25
-105,-19,81,60,-96,26,124,-53,-33,-29,-7,-31
-99,-19,75,60,-90,20,130,-53,-33,-23,-2,-25
-93,-13,75,54,-84,26,130,-41,-21,-11,-2,-20
-87,-13,69,48,-78,20,130,-41,-15,-5,-2,-20
-69,-8,69,30,-66,32,130,-41,-9,0,-2,-20
-51,-8,51,24,-48,20,130,-29,-9,0,-2,-20
-39,-8,39,18,-36,14,136,-23,2,6,10,-8
-27,4,39,6,-30,20,136,-17,2,12,16,-2
-9,22,39,1,-24,32,130,-11,14,24,28,10
-4,34,39,-11,-18,38,118,-6,14,30,34,16
-4,46,45,-17,-18,50,106,-6,26,36,34,16
-4,52,51,-23,-18,56,94,-6,26,36,34,16
-4,52,51,-23,-18,56,76,-6,26,42,28,10
-4,46,45,-17,-18,50,70,-6,26,48,22,4
-4,46,45,-17,-18,50,64,-11,20,36,28,10
-4,28,27,-11,-6,32,52,-17,2,24,22,10
-4,22,27,-5,-12,26,34,-29,2,6,16,-2
-4,16,27,1,-12,20,16,-47,-15,0,4,-8
-9,4,21,6,-12,14,16,-53,-27,0,-2,-8
-9,-8,9,6,-6,2,16,-77,-45,-17,-2,-8
-15,-8,3,12,-12,-4,16,-101,-63,-29,4,-20
-15,-25,-3,18,-1,-15,16,-113,-75,-35,-2,-20
-15,-37,-14,24,-1,-27,5,-119,-75,-41,-2,-20
-4,-31,-20,18,-1,-27,5,-119,-87,-53,-2,-20
-15,-37,-14,24,-1,-27,-1,-119,-93,-59,-2,-25
-45,-43,-3,42,-24,-15,16,-119,-93,-59,-13,-25
-51,-43,3,48,-30,-15,16,-107,-87,-59,-19,-31
-57,-43,9,48,-36,-9,34,-101,-93,-77,-43,-43
-75,-37,33,54,-54,-4,52,-101,-87,-77,-49,-49
-99,-49,45,72,-72,-4,82,-77,-69,-65,-55,-55
-111,-49,57,78,-84,-4,124,-53,-45,-53,-55,-73
-111,-49,57,78,-84,-4,154,-29,-33,-59,-61,-79
-111,-67,39,90,-78,-9,184,-6,-27,-53,-61,-73
-111,-79,27,96,-72,-21,232,6,-21,-53,-67,-79
-117,-67,45,90,-84,-4,298,36,2,-41,-55,-67
-117,-67,45,90,-84,-4,388,84,20,-17,-43,-61
-111,-73,33,90,-72,-15,412,126,38,0,-43,-49
-93,-61,27,78,-60,-9,364,132,44,0,-25,-49
-99,-61,33,78,-66,-9,310,126,62,0,-25,-43
-99,-55,39,78,-72,-4,286,138,80,18,-13,-43
-51,-8,39,30,-48,8,226,156,92,42,-2,-25
-15,4,27,6,-18,14,106,150,110,72,10,-20
-15,10,33,6,-24,20,28,162,146,84,22,-8
2,28,21,-11,-1,26,16,204,182,108,28,-2
38,40,-3,-35,17,20,-25,234,200,120,46,-2
62,52,-3,-53,35,20,-91,240,224,144,58,10
86,58,-20,-71,53,14,-109,282,254,180,82,34
110,64,-38,-83,77,8,-139,324,284,204,82,52
134,76,-50,-101,95,8,-199,318,284,204,88,58
158,70,-80,-113,119,-4,-277,288,272,204,106,58
182,94,-80,-137,131,2,-337,276,272,222,112,70
230,130,-92,-179,161,14,-415,264,284,240,130,82
236,130,-104,-185,173,8,-499,228,272,240,136,88
254,112,-140,-185,203,-4,-583,174,242,222,148,82
260,94,-164,-179,215,-27,-673,108,200,210,142,88
278,106,-170,-191,227,-21,-775,12,146,210,160,112
296,106,-188,-203,239,-33,-859,-77,110,210,178,130
326,106,-218,-215,269,-45,-907,-125,74,210,178,130
338,94,-242,-215,287,-63,-937,-185,50,192,178,136
350,100,-242,-227,299,-63,-955,-245,26,210,190,142
356,130,-224,-239,287,-39,-973,-305,2,228,208,172
362,160,-200,-257,281,-9,-997,-383,-9,246,238,190
374,184,-188,-275,281,-4,-1033,-431,-9,282,274,220
392,214,-176,-299,281,14,-1063,-485,-9,324,310,238
410,250,-152,-329,281,50,-1105,-515,-9,348,340,262
428,286,-134,-353,281,74,-1129,-551,2,396,370,298
440,322,-110,-377,275,104,-1153,-575,14,456,394,322
452,346,-98,-395,275,122,-1177,-629,8,486,430,346
482,340,-134,-407,305,104,-1243,-719,-27,498,460,382
542,370,-170,-455,359,98,-1369,-839,-75,528,508,418
632,406,-224,-515,431,92,-1531,-983,-117,588,604,502
782,418,-362,-599,575,26,-1723,-1139,-177,654,730,616
968,430,-530,-695,749,-45,-1933,-1289,-249,738,886,730
1148,454,-692,-797,923,-111,-2149,-1445,-327,804,1030,856
1340,478,-860,-905,1103,-189,-2347,-1559,-387,888,1198,1000
1532,514,-1010,-1019,1271,-243,-2568,-1691,-453,954,1342,1132
1712,550,-1160,-1133,1439,-297,-2784,-1841,-543,966,1462,1246
1868,586,-1274,-1223,1571,-339,-2958,-1961,-621,954,1546,1336
1982,634,-1346,-1307,1667,-351,-3078,-2033,-657,936,1630,1432
2059,736,-1316,-1397,1691,-279,-3144,-2081,-681,942,1714,1528
2107,844,-1256,-1469,1685,-201,-3186,-2165,-711,972,1810,1636
2095,946,-1148,-1517,1625,-93,-3210,-2225,-729,978,1912,1714
2024,1018,-998,-1517,1511,8,-3156,-2243,-741,1002,1966,1792
1952,1090,-860,-1517,1409,116,-3084,-2249,-783,972,2014,1852
1820,1024,-788,-1421,1307,116,-2946,-2237,-861,810,1948,1804
1646,832,-806,-1235,1223,8,-2742,-2177,-999,456,1702,1630
1448,616,-824,-1025,1139,-99,-2508,-2111,-1197,-11,1360,1372
1214,454,-758,-833,989,-147,-2269,-2051,-1359,-407,1018,1108
974,316,-656,-647,815,-165,-2011,-1991,-1479,-695,724,856
752,196,-554,-473,659,-177,-1759,-1883,-1515,-899,448,622
506,76,-428,-287,473,-171,-1477,-1715,-1473,-989,184,376
248,-8,-254,-119,251,-129,-1201,-1523,-1341,-989,-49,142
104,-43,-152,-23,125,-93,-979,-1313,-1179,-911,-163,10
62,-19,-86,-11,71,-51,-805,-1085,-993,-761,-139,4
26,10,-8,-17,17,-4,-643,-881,-807,-599,-91,28
-21,28,57,6,-36,44,-517,-725,-675,-497,-85,4
-69,22,99,18,-84,62,-427,-611,-597,-461,-97,-20
-93,10,111,36,-102,62,-349,-527,-531,-425,-121,-43
-135,34,177,42,-156,104,-283,-479,-477,-401,-133,-67
-141,52,201,36,-168,128,-223,-431,-435,-383,-133,-73
-141,40,189,42,-162,116,-163,-371,-369,-347,-133,-73
-153,28,189,54,-168,110,-79,-287,-291,-287,-133,-91
-165,-8,165,78,-162,80,-19,-209,-237,-257,-133,-115
-177,-25,147,102,-162,56,16,-155,-201,-227,-145,-139
-165,-67,93,114,-132,8,58,-89,-171,-197,-151,-133
-165,-97,63,132,-114,-9,94,-35,-135,-167,-139,-133
-165,-91,69,126,-120,-4,106,-6,-117,-155,-133,-121
-153,-79,69,114,-114,-4,130,0,-87,-143,-127,-121
-153,-67,81,108,-120,2,160,18,-69,-131,-115,-115
-177,-73,99,126,-138,8,178,24,-51,-137,-121,-115
-183,-85,93,132,-138,-4,202,42,-33,-125,-127,-133
-189,-97,87,144,-138,-4,214,54,-27,-125,-139,-139
-189,-91,93,138,-144,-4,220,54,-27,-131,-145,-145
-189,-91,93,138,-144,-4,238,60,-27,-119,-151,-145
-189,-97,87,144,-138,-4,238,66,-33,-113,-151,-151
-189,-97,87,144,-138,-4,238,78,-33,-113,-157,-151
-189,-103,81,144,-138,-4,250,90,-21,-101,-151,-157
-195,-97,93,144,-144,-4,250,96,-15,-101,-151,-157
-195,-103,87,150,-144,-4,256,96,-15,-101,-151,-151
-195,-97,93,144,-144,-4,268,108,-9,-95,-151,-151
-189,-103,81,144,-138,-4,268,108,-9,-83,-151,-145
-189,-115,69,150,-132,-15,274,114,-3,-77,-145,-145
-195,-115,75,156,-138,-15,280,126,2,-77,-151,-151
-195,-121,69,156,-132,-21,286,138,2,-83,-151,-151
-195,-121,69,156,-132,-21,292,150,2,-89,-157,-157
-195,-121,69,156,-132,-21,292,156,8,-95,-157,-157
-195,-115,75,156,-138,-15,286,162,14,-89,-157,-163
-195,-115,75,156,-138,-15,298,168,14,-83,-157,-163
-195,-109,81,150,-138,-9,298,174,26,-83,-157,-169
-201,-109,87,156,-144,-4,304,180,26,-83,-151,-169
-201,-109,87,156,-144,-4,304,186,26,-77,-145,-163
-201,-121,75,162,-138,-15,310,192,32,-77,-145,-163
-201,-121,75,162,-138,-15,322,192,32,-77,-145,-163
-201,-115,81,156,-144,-9,328,198,32,-77,-151,-163
-195,-115,75,156,-138,-15,328,204,44,-77,-157,-157
-195,-115,75,156,-138,-15,334,216,44,-77,-157,-163
-189,-109,75,150,-132,-9,334,222,50,-77,-163,-157
-189,-103,81,144,-138,-4,340,228,56,-71,-163,-157
-189,-103,81,144,-138,-4,346,234,56,-71,-163,-163
-195,-103,87,150,-144,-4,346,234,68,-71,-163,-169
-195,-103,87,150,-144,-4,358,240,74,-65,-163,-181
-195,-109,81,150,-138,-9,370,246,80,-65,-151,-193
-189,-109,75,150,-132,-9,370,252,74,-65,-151,-187
-189,-109,75,150,-132,-9,376,258,80,-59,-151,-181
-183,-109,69,144,-126,-15,382,264,80,-53,-157,-175
-183,-109,69,144,-126,-15,388,270,86,-53,-157,-169
-189,-109,75,150,-132,-9,406,276,92,-53,-157,-169
-189,-109,75,150,-132,-9,406,282,98,-53,-151,-169
-195,-109,81,150,-138,-9,418,294,104,-53,-151,-169
-201,-109,87,156,-144,-4,424,306,110,-47,-151,-169
-201,-109,87,156,-144,-4,424,312,110,-47,-157,-169
-201,-109,87,156,-144,-4,430,330,116,-47,-157,-169
-207,-127,75,168,-144,-21,442,336,110,-47,-163,-169
-207,-127,75,168,-144,-21,454,342,116,-41,-163,-169
-201,-121,75,162,-138,-15,466,354,134,-41,-169,-175
-201,-115,81,156,-144,-9,478,366,140,-41,-169,-181
-201,-115,81,156,-144,-9,484,372,146,-35,-175,-187
-201,-109,87,156,-144,-4,484,384,158,-35,-187,-193
-201,-103,93,150,-150,-4,496,390,158,-41,-193,-199
-201,-103,93,150,-150,-4,502,402,164,-41,-193,-205
-201,-103,93,150,-150,-4,502,414,164,-41,-193,-205
-207,-103,99,156,-156,-4,508,426,170,-41,-199,-205
-213,-109,99,162,-156,-4,526,438,176,-29,-199,-211
-213,-109,99,162,-156,-4,544,450,194,-23,-199,-217
-213,-103,105,156,-162,-4,562,468,194,-17,-199,-211
-219,-103,111,162,-168,-4,580,480,212,-11,-199,-205
-213,-103,105,156,-162,-4,592,492,224,-5,-193,-205
-213,-109,99,162,-156,-4,598,504,230,-5,-199,-211
-213,-103,105,156,-162,-4,610,516,242,0,-199,-217
-213,-103,105,156,-162,-4,622,540,254,6,-199,-217
-213,-103,105,156,-162,-4,628,552,254,0,-199,-217
-213,-103,105,156,-162,-4,640,570,266,6,-199,-217
-213,-103,105,156,-162,-4,658,582,272,6,-199,-211
-225,-103,117,162,-174,2,670,594,272,12,-199,-217
-219,-97,117,156,-168,2,682,606,278,18,-199,-235
-219,-97,117,156,-168,2,700,624,296,24,-199,-235
-225,-97,123,162,-174,8,706,636,314,24,-205,-241
-237,-103,129,168,-186,8,718,654,314,24,-205,-241
-237,-103,129,168,-186,8,724,660,326,18,-205,-241
-225,-97,123,162,-174,8,742,678,338,24,-217,-241
-225,-97,123,162,-174,8,748,690,332,18,-211,-241
-225,-97,123,162,-174,8,754,714,338,24,-217,-235
-225,-97,123,162,-174,8,760,726,350,30,-211,-235
-225,-97,123,162,-174,8,772,726,362,36,-217,-235
-225,-97,123,162,-174,8,778,744,368,42,-223,-229
-225,-97,123,162,-174,8,790,762,386,48,-223,-229
-225,-97,123,162,-174,8,808,768,404,48,-223,-235
-231,-91,135,162,-186,14,814,786,404,48,-223,-235
-231,-85,141,156,-186,20,832,786,416,54,-223,-241
-231,-85,141,156,-186,20,832,798,422,54,-223,-253
-231,-85,141,156,-186,20,838,810,428,54,-229,-253
-231,-85,141,156,-186,20,850,822,434,60,-229,-253
-231,-79,147,156,-192,26,856,846,446,60,-235,-253
-225,-73,147,150,-186,32,862,858,452,66,-235,-253
-225,-73,147,150,-186,32,862,876,464,72,-235,-241
-225,-73,147,150,-186,32,862,888,476,72,-241,-241
-213,-73,135,144,-174,26,862,888,482,84,-235,-235
-207,-73,129,138,-168,20,862,894,488,90,-229,-235
-213,-73,135,144,-174,26,862,894,488,84,-229,-235
-213,-67,141,138,-180,32,850,894,488,84,-229,-235
-201,-61,135,132,-168,32,856,894,488,84,-229,-235
-201,-61,135,132,-168,32,850,894,488,84,-223,-235
-195,-61,129,126,-162,26,838,894,488,84,-229,-235
-189,-49,135,120,-162,38,820,882,488,84,-223,-235
-183,-49,129,114,-156,32,808,888,488,84,-229,-235
-183,-49,129,114,-156,32,796,882,482,84,-229,-235
-183,-43,135,114,-162,38,784,864,482,84,-223,-229
-177,-43,129,108,-156,38,772,852,476,90,-217,-229
-165,-37,123,102,-144,38,760,840,482,90,-211,-223
-159,-31,123,96,-144,38,748,828,476,90,-211,-223
-165,-37,123,102,-144,38,724,810,464,84,-211,-223
-159,-37,117,96,-138,32,706,792,452,84,-211,-223
-153,-31,117,90,-138,38,676,768,440,78,-211,-217
-141,-31,105,84,-126,32,652,750,434,78,-211,-211
-135,-25,105,78,-120,32,628,732,422,78,-199,-205
-123,-19,99,72,-114,32,610,714,410,72,-193,-199
-123,-19,99,72,-114,32,592,702,398,72,-187,-193
-117,-19,93,66,-108,32,568,684,386,72,-181,-193
-111,-13,93,60,-102,32,550,660,374,72,-175,-187
-99,-8,87,54,-96,32,526,642,356,72,-169,-181
-99,-8,93,48,-96,38,502,618,338,66,-163,-175
-93,-8,93,42,-90,44,478,600,326,60,-157,-169
-87,-8,87,42,-84,38,460,582,320,60,-151,-157
-81,-8,81,36,-78,38,436,552,308,60,-145,-151
-75,-2,81,30,-78,38,424,528,290,48,-139,-139
-69,-2,75,30,-72,38,394,504,278,48,-133,-133
-63,10,81,18,-72,44,370,480,260,48,-121,-121
-57,10,75,18,-66,44,346,450,248,48,-103,-109
-57,10,75,18,-66,44,322,420,236,42,-97,-97
-57,10,75,18,-66,44,286,378,218,36,-91,-97
-51,10,69,12,-60,38,268,360,212,30,-85,-91
-45,10,63,12,-54,38,256,342,194,30,-79,-85
-45,16,69,6,-54,44,244,324,182,30,-67,-73
-45,16,69,6,-54,44,226,294,164,36,-61,-67
-33,28,69,6,-48,50,202,264,152,36,-61,-73
-33,28,69,6,-48,50,178,240,140,30,-55,-67
-33,28,69,6,-48,50,154,228,116,24,-55,-67
-39,22,69,6,-54,44,142,210,104,18,-55,-67
-39,16,63,6,-48,38,124,192,86,24,-49,-61
-39,16,63,6,-48,38,112,168,74,18,-43,-55
-39,16,63,6,-48,38,100,150,62,18,-37,-49
-39,16,63,6,-48,38,94,132,50,12,-37,-49
-39,16,63,6,-48,38,88,120,44,12,-37,-49
-45,16,69,6,-54,44,76,108,50,6,-37,-49
-57,10,75,18,-66,44,70,96,38,6,-37,-49
-63,10,81,18,-72,44,64,84,38,0,-37,-49
-57,16,81,12,-66,50,58,66,26,6,-31,-43
-51,16,75,12,-60,44,52,54,14,0,-31,-37
-45,16,69,6,-54,44,34,54,2,6,-25,-31
-39,4,51,12,-42,26,28,42,2,0,-25,-31
-45,10,63,12,-54,38,28,36,-3,0,-25,-31
-51,10,69,12,-60,38,22,30,-3,-5,-25,-31
-57,16,81,12,-66,50,22,18,-15,-11,-31,-31
-63,16,87,18,-72,50,16,6,-21,-23,-37,-25
-63,10,81,18,-72,44,16,12,-15,-23,-37,-31
-63,10,81,18,-72,44,16,6,-15,-23,-37,-31
-69,10,87,24,-78,50,16,6,-15,-23,-37,-37
-69,4,81,24,-72,44,16,0,-15,-29,-37,-43
-63,4,75,24,-66,38,16,0,-21,-29,-49,-43
-69,4,81,24,-72,44,16,-6,-21,-35,-49,-49
-69,4,81,24,-72,44,16,-6,-27,-35,-55,-49
-69,10,87,24,-78,50,16,-6,-27,-35,-55,-49
-75,4,87,30,-78,44,16,-6,-33,-29,-61,-49
-81,4,93,30,-84,50,16,-6,-33,-29,-61,-55
-87,-8,81,42,-84,32,22,6,-39,-29,-61,-55
-93,-8,87,48,-90,38,16,6,-45,-29,-61,-55
-93,-8,87,48,-90,38,16,0,-39,-35,-61,-55
-93,-8,81,48,-90,32,22,0,-39,-35,-61,-55
-93,-8,81,48,-90,32,22,-6,-33,-41,-61,-61
-93,-8,81,48,-90,32,22,-6,-33,-47,-61,-61
-87,-8,75,48,-84,26,22,-6,-33,-47,-61,-61
-87,-13,69,48,-78,20,22,-6,-33,-47,-61,-61
-87,-13,69,48,-78,20,22,-6,-39,-41,-67,-61
-87,-13,69,48,-78,20,22,-6,-39,-41,-67,-61
-87,-8,75,48,-84,26,28,0,-33,-35,-67,-61
-87,-8,81,42,-84,32,28,0,-33,-35,-67,-61
-87,-8,87,42,-84,38,34,12,-27,-29,-67,-61
-87,-2,93,36,-90,44,34,12,-27,-29,-67,-61
-87,-8,87,42,-84,38,34,6,-27,-35,-67,-73
-87,-8,87,42,-84,38,40,6,-27,-35,-67,-73
-93,-8,87,48,-90,38,40,6,-27,-41,-67,-79
-93,-8,87,48,-90,38,46,6,-27,-41,-67,-79
-93,-8,87,48,-90,38,46,6,-27,-35,-67,-73
-93,-8,87,48,-90,38,40,6,-27,-35,-67,-73
-93,-8,87,48,-90,38,40,0,-27,-29,-61,-67
-93,-8,87,48,-90,38,46,0,-27,-29,-61,-67
-93,-8,93,42,-90,44,46,0,-27,-29,-55,-61
-93,-8,93,42,-90,44,46,0,-27,-35,-61,-61
-87,-2,93,36,-90,44,52,0,-27,-35,-55,-61
-87,-2,93,36,-90,44,52,0,-27,-35,-55,-61
-87,-8,87,42,-84,38,52,6,-27,-35,-61,-67
-87,-8,87,42,-84,38,52,6,-27,-35,-61,-67
-93,-8,87,48,-90,38,58,12,-27,-35,-67,-73
-93,-8,87,48,-90,38,64,12,-21,-35,-67,-73
-99,-8,99,48,-96,44,58,12,-21,-41,-73,-73
-99,-8,99,48,-96,44,52,12,-21,-41,-67,-73
-105,-8,105,48,-102,50,46,6,-21,-47,-73,-73
-105,-8,105,48,-102,50,40,6,-21,-47,-73,-73
-99,-8,99,48,-96,44,40,6,-27,-41,-73,-73
-99,-8,93,48,-96,38,40,6,-27,-41,-73,-73
-93,-8,87,48,-90,38,40,6,-27,-41,-73,-73
-87,-8,81,42,-84,32,40,6,-27,-41,-73,-73
-93,-8,87,48,-90,38,40,6,-33,-47,-73,-73
-93,-8,93,42,-90,44,46,6,-27,-47,-73,-67
-99,-8,99,48,-96,44,46,6,-27,-47,-73,-67
-99,-8,99,48,-96,44,46,6,-27,-47,-73,-73
-93,-2,99,42,-96,50,40,6,-27,-41,-73,-73
-93,-2,99,42,-96,50,40,6,-27,-41,-67,-73
-93,4,105,36,-96,56,40,6,-27,-35,-61,-73
-93,4,105,36,-96,56,40,6,-27,-35,-61,-73
-87,-2,93,36,-90,44,40,0,-27,-41,-61,-73
-87,-2,93,36,-90,44,40,6,-27,-35,-61,-73
-87,-8,87,42,-84,38,40,0,-27,-41,-61,-73
-87,-8,87,42,-84,38,40,0,-27,-41,-61,-73
-87,-2,93,36,-90,44,40,0,-27,-47,-61,-73
-87,-2,93,36,-90,44,40,0,-27,-47,-61,-73
-87,-2,93,36,-90,44,40,0,-27,-53,-61,-73
-87,-2,93,36,-90,44,40,0,-27,-59,-61,-67
-87,-8,81,42,-84,32,34,-6,-27,-53,-55,-67
-87,-8,81,42,-84,32,34,-6,-27,-47,-55,-67
-87,-8,81,42,-84,32,28,-6,-33,-41,-49,-67
-87,-8,81,42,-84,32,28,-6,-39,-41,-49,-67
-93,-8,87,48,-90,38,34,-6,-33,-47,-49,-67
-93,-8,87,48,-90,38,28,-6,-33,-47,-49,-67
-99,-8,93,48,-96,38,34,-6,-27,-53,-61,-67
-99,-8,93,48,-96,38,34,-6,-33,-53,-61,-67
-99,-8,93,48,-96,38,28,-6,-39,-53,-61,-67
-99,-8,93,48,-96,38,28,-6,-39,-53,-61,-67
-99,-8,93,48,-96,38,22,-6,-45,-59,-61,-67
-99,-8,93,48,-96,38,22,-11,-45,-59,-61,-67
-99,-8,93,48,-96,38,22,-11,-45,-59,-61,-61
-99,-8,93,48,-96,38,22,-11,-45,-59,-61,-61
-99,-8,93,48,-96,38,16,-11,-51,-59,-61,-55
-99,-8,93,48,-96,38,16,-17,-51,-59,-61,-55
-93,-8,81,48,-90,32,16,-11,-57,-59,-61,-55
-93,-8,81,48,-90,32,16,-17,-57,-59,-61,-61
-87,-8,75,48,-84,26,16,-11,-69,-59,-67,-73
-87,-8,75,48,-84,26,16,-11,-69,-65,-67,-79
-87,-8,81,42,-84,32,16,-17,-63,-71,-73,-79
-87,-8,81,42,-84,32,16,-17,-63,-65,-73,-79
-87,-8,87,42,-84,38,16,-23,-57,-71,-85,-79
-87,-8,87,42,-84,38,11,-23,-57,-71,-85,-79
-87,-8,81,42,-84,32,11,-29,-69,-77,-79,-79
-87,-8,81,42,-84,32,11,-29,-69,-77,-79,-79
-87,-8,75,48,-84,26,16,-35,-75,-83,-73,-79
-87,-8,75,48,-84,26,16,-35,-75,-83,-73,-79
-93,-13,75,54,-84,26,16,-29,-75,-77,-73,-79
-93,-13,75,54,-84,26,16,-35,-75,-77,-73,-79
-99,-19,75,60,-90,20,16,-29,-75,-71,-73,-79
-99,-19,75,60,-90,20,16,-35,-75,-71,-73,-79
-93,-13,75,54,-84,26,11,-41,-75,-71,-67,-79
-93,-13,75,54,-84,26,11,-41,-75,-71,-67,-79
-87,-8,81,42,-84,32,5,-47,-75,-77,-67,-79
-87,-8,81,42,-84,32,5,-47,-75,-77,-67,-73
-87,-8,81,42,-84,32,11,-47,-75,-77,-73,-73
-87,-8,81,42,-84,32,11,-47,-75,-77,-73,-73
-81,-8,75,42,-78,32,11,-53,-81,-77,-79,-73
-81,-8,75,42,-78,32,11,-59,-87,-77,-79,-79
-87,-8,81,42,-84,32,11,-53,-87,-77,-79,-85
-93,-8,87,48,-90,38,11,-53,-87,-83,-79,-85
-99,-13,81,54,-90,26,11,-53,-87,-83,-79,-91
-105,-13,87,60,-96,32,11,-53,-87,-83,-79,-85
-105,-8,93,54,-102,38,11,-53,-87,-89,-79,-85
-105,-8,93,54,-102,38,11,-53,-87,-83,-73,-85
-105,-8,93,54,-102,38,11,-53,-87,-89,-73,-85
-105,-8,93,54,-102,38,11,-53,-87,-89,-73,-85
-99,-8,87,54,-96,32,16,-59,-81,-89,-73,-79
-99,-8,87,54,-96,32,16,-59,-81,-89,-73,-79
-93,-8,81,48,-90,32,16,-59,-75,-83,-67,-73
-93,-8,81,48,-90,32,16,-59,-75,-83,-67,-73
-99,-8,87,54,-96,32,11,-65,-81,-83,-67,-79
-99,-13,81,54,-90,26,11,-65,-81,-83,-67,-79
-105,-13,87,60,-96,32,11,-65,-87,-83,-73,-85
-105,-8,93,54,-102,38,11,-71,-87,-83,-73,-85
-105,-13,87,60,-96,32,11,-65,-87,-83,-67,-85
-105,-8,93,54,-102,38,11,-71,-87,-83,-67,-85
-105,-13,87,60,-96,32,11,-65,-93,-89,-61,-79
-105,-13,87,60,-96,32,11,-71,-93,-89,-61,-79
-99,-13,81,54,-90,26,11,-71,-93,-89,-61,-79
-99,-13,81,54,-90,26,11,-71,-93,-89,-55,-73
-93,-25,63,60,-78,14,11,-71,-93,-83,-55,-73
-93,-25,63,60,-78,14,11,-71,-93,-83,-55,-73
-87,-13,69,48,-78,20,11,-71,-87,-83,-61,-67
-87,-13,69,48,-78,20,11,-65,-87,-83,-67,-73
-75,-8,63,42,-72,20,16,-53,-87,-71,-67,-73
-93,-13,75,54,-84,26,16,-59,-87,-77,-67,-85
-93,-13,75,54,-84,26,16,-65,-87,-83,-73,-85
-93,-13,75,54,-84,26,16,-65,-87,-83,-73,-85
-93,-13,75,54,-84,26,11,-71,-87,-89,-79,-85
-93,-13,75,54,-84,26,11,-71,-87,-89,-79,-85
-99,-19,75,60,-90,20,11,-71,-87,-95,-79,-91
-99,-13,81,54,-90,26,11,-71,-93,-95,-73,-91
-105,-19,81,60,-96,26,16,-71,-93,-89,-73,-91
-105,-19,81,60,-96,26,16,-77,-93,-89,-73,-91
-99,-19,75,60,-90,20,11,-77,-93,-89,-73,-91
-99,-19,75,60,-90,20,11,-77,-93,-89,-73,-91
-93,-13,75,54,-84,26,11,-77,-93,-89,-73,-85
-99,-13,81,54,-90,26,11,-77,-87,-89,-73,-85
-105,-13,87,60,-96,32,16,-77,-93,-89,-73,-85
-99,-13,81,54,-90,26,16,-65,-81,-83,-67,-79
-105,-8,93,54,-102,38,28,-59,-81,-77,-67,-73
-105,-8,105,48,-102,50,34,-53,-69,-71,-61,-73
-93,4,105,36,-96,56,46,-41,-63,-65,-61,-67
-93,4,105,36,-96,56,52,-35,-57,-59,-55,-67
-75,10,93,24,-84,50,58,-23,-45,-53,-55,-61
-63,16,87,18,-72,50,64,-17,-45,-53,-43,-55
-63,22,93,12,-78,56,70,-11,-33,-47,-37,-55
-63,22,93,12,-78,56,76,-6,-33,-47,-37,-55
-63,34,105,6,-84,68,76,-6,-27,-35,-31,-49
-57,34,99,6,-78,68,76,-6,-27,-35,-31,-43
-63,28,99,12,-78,62,76,-6,-27,-35,-31,-49
-63,28,99,12,-78,62,76,-6,-21,-35,-31,-49
-69,22,99,18,-84,62,76,-6,-21,-29,-31,-55
-63,16,87,18,-72,50,82,-6,-21,-23,-25,-49
-57,22,87,12,-72,56,82,6,-15,-23,-31,-49
-57,28,93,6,-72,62,82,6,-9,-23,-31,-49
-39,46,93,6,-66,68,82,6,-9,-29,-37,-49
-27,52,87,-5,-54,68,82,18,-9,-35,-25,-49
-15,58,81,-11,-48,68,88,24,2,-11,-13,-31
-4,70,81,-23,-42,74,82,24,8,0,-7,-25
2,94,87,-47,-36,92,76,30,20,6,-2,-20
14,106,87,-59,-30,98,58,36,26,18,-2,-20
26,112,81,-65,-18,98,58,36,32,24,10,-8
26,118,87,-71,-24,104,46,30,32,24,16,-2
32,112,75,-71,-12,98,40,24,26,30,22,4
32,106,69,-65,-12,92,34,18,26,36,22,4
26,100,69,-59,-12,86,28,12,20,24,28,10
20,76,51,-47,-6,68,16,6,2,12,22,4
8,64,51,-35,-12,62,11,-6,2,0,16,-8
-4,52,51,-23,-18,56,-7,-11,-15,-5,4,-20
2,40,33,-17,-6,38,-7,-17,-27,-17,-2,-20
2,34,27,-17,-6,32,-13,-41,-45,-35,-2,-20
8,22,9,-11,-1,20,-19,-65,-63,-53,-2,-20
8,10,-3,-5,-1,8,-19,-77,-75,-59,-2,-20
8,10,-3,-5,-1,8,-19,-83,-75,-65,-2,-20
-4,4,3,1,-1,8,-19,-83,-75,-65,-7,-20
-4,-2,9,6,-6,2,-13,-83,-81,-71,-19,-20
-4,-8,-3,6,-1,-4,-7,-83,-81,-71,-25,-37
-4,4,15,6,-6,8,5,-71,-75,-71,-43,-43
-21,4,33,6,-24,20,16,-65,-69,-77,-43,-43
-39,-8,33,18,-36,8,28,-41,-63,-65,-37,-61
-51,-8,45,24,-48,14,46,-29,-57,-65,-55,-67
-51,-8,45,24,-48,14,76,-6,-33,-53,-55,-61
-63,-13,45,36,-54,8,118,6,-9,-35,-49,-55
-63,-8,51,36,-60,14,172,30,-3,-29,-49,-61
-75,-8,63,42,-72,20,208,54,2,-29,-67,-79
-93,-19,69,54,-84,20,274,84,14,-29,-67,-79
-93,-8,81,48,-90,32,352,120,44,-5,-55,-73
-75,-8,69,36,-72,26,352,150,62,0,-55,-61
-69,-8,63,36,-66,26,304,168,80,0,-37,-61
-63,-8,57,30,-60,20,274,174,98,12,-25,-55
-39,4,51,12,-42,26,256,186,116,30,-25,-55
-15,28,51,1,-30,38,166,192,128,42,-13,-49
20,52,27,-35,-1,44,70,210,158,72,-2,-25
44,82,33,-59,-1,62,28,234,194,108,10,-8
62,100,33,-77,11,68,16,258,230,132,16,-2
86,112,21,-95,29,68,-13,288,242,156,34,10
110,112,-3,-107,53,56,-79,324,278,168,46,10
134,130,-3,-131,65,62,-109,366,314,192,58,22
170,148,-14,-155,95,62,-151,396,332,216,70,28
182,148,-26,-161,107,56,-223,378,320,216,76,34
206,154,-44,-179,125,50,-289,360,308,216,82,34
230,166,-56,-197,143,50,-361,336,308,234,100,58
260,166,-92,-215,179,32,-427,312,308,240,118,82
272,154,-116,-215,197,14,-499,246,272,240,124,88
290,148,-140,-221,221,2,-583,198,242,234,124,94
320,154,-164,-233,239,-4,-673,108,200,222,130,100
338,166,-170,-245,251,-4,-775,-6,146,210,148,112
356,166,-188,-257,269,-4,-847,-77,98,198,154,118
362,166,-194,-257,275,-4,-883,-125,74,198,154,118
362,166,-194,-257,275,-4,-913,-185,62,204,166,124
362,160,-200,-257,281,-9,-931,-251,38,210,178,130
380,190,-188,-281,281,-4,-961,-305,32,240,208,160
410,238,-164,-323,287,38,-985,-359,26,270,250,202
446,262,-176,-353,311,44,-1033,-431,14,294,298,250
452,292,-152,-371,299,68,-1099,-503,2,348,346,286
470,346,-116,-407,293,116,-1141,-551,2,396,388,334
482,394,-86,-437,287,152,-1165,-599,2,432,418,358
482,406,-74,-443,281,164,-1207,-671,-21,444,430,370
506,406,-98,-455,305,152,-1279,-767,-75,444,454,382
548,424,-122,-479,335,152,-1399,-893,-147,444,484,406
626,454,-170,-533,401,140,-1555,-1061,-207,486,556,472
746,484,-254,-617,503,116,-1765,-1229,-267,552,676,574
890,496,-386,-695,641,56,-1993,-1421,-351,618,814,688
1070,508,-554,-785,815,-15,-2191,-1595,-441,660,946,790
1238,508,-728,-875,983,-99,-2383,-1709,-501,726,1078,916
1448,532,-908,-983,1181,-183,-2580,-1817,-561,792,1216,1036
1628,550,-1070,-1085,1349,-249,-2754,-1937,-627,858,1354,1144
1808,586,-1220,-1199,1511,-309,-2910,-2015,-675,906,1462,1246
1958,598,-1358,-1277,1661,-375,-3030,-2057,-705,930,1534,1324
2101,634,-1466,-1367,1781,-411,-3102,-2093,-717,936,1618,1408
2155,694,-1460,-1421,1805,-375,-3132,-2129,-705,966,1702,1492
2179,772,-1400,-1469,1787,-303,-3144,-2141,-687,1002,1786,1600
2179,886,-1286,-1529,1733,-195,-3120,-2159,-651,1062,1900,1702
2155,970,-1178,-1559,1667,-93,-3078,-2165,-639,1098,1978,1792
2071,994,-1070,-1529,1571,-27,-3012,-2183,-681,1050,2014,1840
1946,934,-1010,-1439,1481,-33,-2892,-2159,-765,870,1936,1792
1784,772,-1004,-1277,1397,-111,-2694,-2093,-909,510,1708,1630
1574,604,-968,-1085,1271,-177,-2472,-2039,-1101,60,1396,1384
1334,466,-866,-899,1103,-195,-2245,-1991,-1275,-311,1066,1132
1094,352,-734,-725,917,-189,-1975,-1901,-1365,-587,766,892
872,232,-638,-545,755,-201,-1735,-1799,-1401,-779,502,670
614,88,-518,-347,569,-213,-1489,-1685,-1383,-911,262,436
344,-13,-362,-161,353,-189,-1213,-1499,-1293,-959,-2,190
176,-79,-254,-41,215,-165,-991,-1301,-1155,-935,-151,10
110,-79,-194,-5,149,-135,-841,-1121,-1005,-821,-163,-20
74,-25,-104,-17,89,-63,-703,-917,-831,-659,-103,16
14,16,-3,-11,5,8,-541,-737,-687,-533,-85,4
-9,34,51,-5,-30,44,-439,-611,-585,-473,-109,-20
-45,22,75,6,-60,50,-361,-527,-531,-449,-133,-43
-123,22,153,42,-138,86,-271,-455,-465,-413,-157,-91
-153,28,189,54,-168,110,-205,-407,-411,-395,-169,-109
-141,40,189,42,-162,116,-163,-371,-357,-359,-157,-109
-153,28,189,54,-168,110,-103,-311,-303,-323,-145,-115
-177,-8,165,90,-174,74,-43,-233,-237,-281,-145,-127
-165,-49,111,108,-138,26,16,-155,-189,-245,-145,-127
-153,-55,93,102,-126,14,46,-77,-147,-221,-139,-133
-141,-73,63,108,-102,-4,82,-23,-123,-191,-151,-133
-141,-79,57,108,-102,-4,118,12,-93,-167,-145,-133
-141,-67,69,102,-108,-4,142,36,-75,-143,-151,-145
-153,-67,81,108,-120,2,172,42,-69,-131,-151,-139
-177,-85,87,132,-132,-4,190,48,-51,-137,-145,-139
-183,-97,81,138,-132,-4,208,66,-27,-131,-145,-151
-189,-109,75,150,-132,-9,214,78,-15,-131,-157,-157
-189,-103,81,144,-138,-4,214,78,-9,-143,-157,-157
-189,-103,81,144,-138,-4,226,84,-3,-131,-163,-157
-195,-109,81,150,-138,-9,226,96,-9,-131,-163,-157
-195,-109,81,150,-138,-9,232,108,-9,-131,-169,-157
-201,-115,81,156,-144,-9,244,126,2,-125,-163,-157
-207,-109,93,156,-150,-4,250,132,2,-125,-163,-157
-201,-109,87,156,-144,-4,256,132,2,-125,-169,-163
-201,-103,93,150,-150,-4,268,144,8,-119,-169,-163
-189,-103,81,144,-138,-4,268,144,14,-107,-175,-169
-189,-115,69,150,-132,-15,274,150,20,-101,-169,-169
-201,-109,87,156,-144,-4,280,156,26,-101,-169,-169
-201,-115,81,156,-144,-9,286,168,32,-101,-169,-169
-207,-109,93,156,-150,-4,292,174,32,-107,-169,-169
-207,-109,93,156,-150,-4,292,180,44,-107,-169,-169
-207,-109,93,156,-150,-4,292,186,44,-101,-169,-169
-207,-109,93,156,-150,-4,304,192,44,-95,-169,-169
-207,-109,93,156,-150,-4,310,198,50,-95,-169,-169
-213,-109,99,162,-156,-4,316,204,50,-95,-163,-169
-207,-109,93,156,-150,-4,316,216,56,-83,-163,-169
-207,-121,81,162,-144,-15,322,222,62,-83,-163,-169
-201,-121,75,162,-138,-15,334,228,68,-77,-169,-175
-201,-115,81,156,-144,-9,340,234,68,-77,-175,-175
-201,-115,81,156,-144,-9,346,234,74,-77,-169,-175
-201,-115,81,156,-144,-9,352,246,74,-77,-169,-181
-201,-109,87,156,-144,-4,358,252,74,-77,-163,-181
-201,-103,93,150,-150,-4,364,258,80,-71,-163,-181
-201,-109,87,156,-144,-4,370,264,80,-71,-163,-181
-207,-109,93,156,-150,-4,370,270,92,-71,-163,-181
-207,-115,87,162,-150,-9,382,276,98,-65,-163,-187
-207,-121,81,162,-144,-15,394,282,104,-65,-151,-193
-207,-121,81,162,-144,-15,394,294,104,-71,-157,-193
-207,-121,81,162,-144,-15,400,300,110,-71,-163,-193
-207,-121,81,162,-144,-15,406,312,116,-71,-175,-193
-207,-121,81,162,-144,-15,412,318,122,-77,-181,-193
-213,-121,87,168,-150,-9,430,324,128,-71,-181,-193
-213,-121,87,168,-150,-9,430,330,134,-71,-175,-193
-219,-121,93,168,-156,-9,442,342,140,-65,-175,-193
-225,-121,99,174,-162,-4,448,354,146,-59,-175,-193
-219,-115,99,168,-162,-4,454,360,146,-59,-181,-193
-219,-115,99,168,-162,-4,460,378,152,-59,-181,-193
-219,-127,87,174,-156,-15,478,384,146,-59,-187,-193
-219,-127,87,174,-156,-15,490,390,152,-53,-187,-193
-219,-121,93,168,-156,-9,502,414,176,-47,-187,-193
-219,-115,99,168,-162,-4,508,432,182,-47,-181,-193
-225,-115,105,168,-168,-4,514,450,194,-35,-181,-193
-225,-109,111,168,-168,-4,514,468,206,-35,-187,-193
-225,-109,111,168,-168,-4,532,474,212,-35,-193,-199
-225,-109,111,168,-168,-4,544,480,218,-35,-193,-205
-225,-115,105,168,-168,-4,550,492,224,-29,-193,-205
-231,-115,111,174,-174,-4,556,504,230,-29,-199,-205
-237,-121,111,180,-174,-4,568,516,230,-23,-205,-217
-237,-121,111,180,-174,-4,586,528,242,-17,-205,-223
-237,-115,117,174,-180,-4,598,546,242,-17,-211,-223
-243,-115,123,180,-186,-4,616,564,254,-11,-211,-217
-243,-121,117,180,-180,-4,634,582,260,-11,-205,-211
-243,-127,111,186,-180,-4,640,594,266,-11,-205,-217
-243,-127,117,186,-186,-4,658,612,278,0,-205,-217
-243,-127,117,186,-186,-4,670,636,290,0,-199,-217
-243,-121,117,180,-180,-4,682,648,296,0,-199,-229
-243,-121,117,180,-180,-4,694,666,314,0,-199,-229
-237,-115,117,174,-180,-4,718,678,326,6,-199,-235
-243,-115,129,180,-192,2,730,690,332,12,-199,-241
-243,-115,129,180,-192,2,742,702,338,18,-199,-253
-243,-115,129,180,-192,2,754,720,356,24,-199,-253
-255,-121,135,192,-198,2,760,726,374,24,-205,-253
-267,-127,141,198,-210,2,772,744,374,24,-205,-253
-267,-127,141,198,-210,2,784,750,386,24,-205,-253
-255,-121,135,192,-198,2,802,768,398,30,-217,-253
-255,-121,135,192,-198,2,814,780,392,30,-211,-253
-255,-121,135,192,-198,2,826,804,398,36,-217,-247
-261,-115,147,192,-210,8,838,816,416,42,-211,-253
-261,-115,147,192,-210,8,850,822,428,48,-217,-253
-267,-109,159,192,-216,20,862,840,440,54,-223,-253
-267,-109,159,192,-216,20,874,858,458,60,-223,-253
-261,-115,147,192,-210,8,880,870,470,60,-223,-253
-267,-109,159,192,-216,20,886,888,470,60,-223,-247
-261,-109,153,186,-210,14,892,894,476,66,-223,-247
-261,-109,153,186,-210,14,892,906,482,66,-223,-253
-255,-103,153,180,-210,20,898,912,488,72,-223,-253
-255,-103,153,180,-210,20,910,924,494,78,-223,-253
-249,-91,159,174,-210,26,916,942,512,84,-223,-253
-243,-85,159,168,-204,32,922,954,518,90,-223,-253
-249,-85,165,168,-210,32,922,966,524,96,-223,-241
-255,-91,165,174,-216,32,922,978,536,96,-229,-241
-249,-91,159,174,-210,26,922,978,536,108,-223,-235
-249,-97,153,174,-204,20,922,984,548,114,-217,-235
-243,-91,153,168,-204,26,922,984,554,120,-211,-235
-243,-85,159,168,-204,32,910,984,554,120,-211,-235
-225,-73,147,150,-186,32,916,984,554,132,-205,-235
-225,-73,147,150,-186,32,910,984,554,132,-199,-235
-225,-73,147,150,-186,32,898,978,560,132,-205,-235
-219,-61,153,138,-186,38,880,966,560,132,-199,-235
-219,-61,153,138,-186,38,868,966,566,132,-205,-235
-219,-61,153,138,-186,38,856,966,560,132,-205,-235
-213,-55,153,132,-186,44,838,948,548,126,-199,-229
-207,-55,147,132,-180,38,826,936,542,132,-193,-229
-189,-49,135,120,-162,38,808,924,536,126,-187,-223
-183,-43,135,114,-162,38,790,912,530,126,-187,-223
-183,-43,135,114,-162,38,766,900,524,126,-181,-217
-177,-43,129,108,-156,38,748,882,512,126,-181,-217
-165,-31,129,96,-150,44,724,864,506,126,-175,-205
-153,-31,117,90,-138,38,700,846,500,126,-175,-199
-153,-31,117,90,-138,38,676,822,488,120,-169,-193
-141,-25,111,84,-126,38,658,798,482,114,-163,-187
-147,-31,111,90,-132,32,640,780,470,108,-163,-181
-141,-31,105,84,-126,32,616,762,458,108,-157,-181
-129,-25,99,78,-114,32,598,744,446,114,-145,-169
-117,-19,93,66,-108,32,574,726,428,120,-139,-157
-111,-13,93,60,-102,32,550,714,410,120,-127,-145
-105,-8,93,54,-102,38,520,696,398,120,-121,-133
-93,-8,81,48,-90,32,502,666,392,120,-121,-127
-87,-8,75,48,-84,26,472,630,380,120,-115,-121
-75,-8,69,36,-72,26,454,594,362,108,-115,-115
-69,-8,63,36,-66,26,418,564,350,108,-109,-109
-63,4,75,24,-66,38,394,540,332,108,-97,-103
-57,4,69,18,-60,38,370,510,320,108,-79,-91
-57,10,75,18,-66,44,346,486,302,102,-73,-85
-57,10,75,18,-66,44,310,450,284,96,-67,-85
-57,4,69,18,-60,38,292,426,266,84,-61,-79
-51,4,63,18,-54,32,268,402,242,78,-55,-73
-57,4,69,18,-60,38,256,378,224,72,-43,-61
-57,4,69,18,-60,38,238,342,200,72,-37,-55
-45,10,63,12,-54,38,220,306,194,72,-37,-61
-45,10,63,12,-54,38,196,282,182,60,-31,-55
-45,4,57,12,-48,32,178,258,164,54,-31,-55
-51,-2,57,18,-54,26,166,240,152,42,-31,-55
-51,4,63,18,-54,32,148,228,134,48,-25,-49
-51,4,63,18,-54,32,130,198,122,42,-19,-43
-51,16,75,12,-60,44,118,180,110,42,-13,-37
-51,16,75,12,-60,44,106,156,98,36,-13,-37
-45,16,69,6,-54,44,94,138,80,24,-13,-37
-45,16,69,6,-54,44,82,120,80,18,-13,-37
-51,10,69,12,-60,38,70,102,56,6,-13,-37
-51,10,69,12,-60,38,64,84,50,0,-13,-37
-51,4,63,18,-54,32,64,72,44,0,-13,-37
-51,4,63,18,-54,32,58,60,32,0,-13,-31
-51,-8,51,24,-48,20,46,66,26,0,-13,-31
-51,-8,39,30,-48,8,40,54,14,0,-13,-31
-57,-8,45,30,-54,14,34,42,2,0,-13,-31
-57,-8,45,30,-54,14,28,36,2,-5,-13,-31
-63,-8,51,36,-60,14,22,18,-3,-5,-19,-31
-63,-8,51,36,-60,14,16,6,-9,-11,-25,-25
-63,-13,45,36,-54,8,16,0,-9,-17,-31,-31
-63,-13,45,36,-54,8,16,-6,-15,-17,-31,-37
-69,-13,51,42,-60,14,16,-6,-21,-23,-37,-43
-69,-19,45,42,-60,8,16,-11,-27,-29,-37,-55
-69,-19,45,42,-60,8,16,-6,-33,-29,-49,-49
-75,-19,51,48,-66,8,16,-11,-33,-35,-49,-55
-81,-19,57,48,-72,14,16,-6,-39,-35,-55,-49
-81,-13,63,48,-72,20,16,-6,-39,-35,-55,-49
-75,-13,57,42,-66,14,16,-17,-45,-35,-55,-49
-75,-13,57,42,-66,14,16,-17,-45,-41,-55,-55
-69,-25,39,48,-54,2,16,-17,-51,-47,-49,-55
-69,-25,39,48,-54,2,16,-17,-57,-53,-49,-55
-69,-19,45,42,-60,8,16,-17,-51,-53,-49,-55
-69,-25,39,48,-54,2,16,-17,-51,-53,-49,-55
-69,-19,45,42,-60,8,22,-17,-45,-53,-49,-61
-69,-19,45,42,-60,8,22,-17,-45,-59,-49,-61
-69,-19,45,42,-60,8,22,-17,-45,-59,-55,-55
-69,-25,39,48,-54,2,22,-23,-45,-59,-55,-55
-75,-25,45,48,-60,2,22,-23,-51,-53,-67,-49
-75,-25,45,48,-60,2,22,-17,-51,-53,-67,-49
-75,-25,45,48,-60,2,22,-23,-57,-59,-67,-55
-75,-25,45,48,-60,2,22,-23,-57,-59,-67,-61
-75,-25,45,48,-60,2,22,-23,-63,-65,-67,-67
-75,-25,45,48,-60,2,22,-23,-63,-65,-67,-73
-81,-31,45,54,-66,2,16,-23,-57,-65,-73,-73
-81,-31,45,54,-66,2,22,-23,-57,-65,-73,-73
-93,-37,51,66,-72,2,16,-17,-51,-65,-79,-67
-93,-37,51,66,-72,2,22,-17,-51,-65,-79,-67
-93,-37,51,66,-72,2,28,-17,-57,-65,-79,-67
-93,-37,51,66,-72,2,22,-17,-57,-65,-79,-67
-93,-37,51,66,-72,2,28,-23,-63,-65,-73,-67
-93,-37,51,66,-72,2,34,-23,-63,-65,-73,-67
-99,-37,57,66,-78,2,34,-23,-57,-65,-73,-67
-99,-37,57,66,-78,2,34,-23,-57,-71,-79,-67
-99,-37,57,66,-78,2,40,-23,-51,-71,-79,-73
-99,-37,57,66,-78,2,40,-23,-51,-71,-79,-73
-93,-37,51,66,-72,2,40,-17,-57,-71,-73,-73
-93,-37,51,66,-72,2,40,-17,-57,-71,-73,-73
-93,-37,51,66,-72,2,46,-11,-63,-71,-67,-73
-93,-37,51,66,-72,2,52,-11,-57,-71,-67,-73
-99,-31,63,66,-84,8,46,-6,-51,-65,-73,-79
-99,-31,63,66,-84,8,46,-6,-51,-65,-67,-79
-105,-31,69,66,-90,14,40,-6,-45,-59,-73,-85
-105,-31,69,66,-90,14,40,-6,-45,-59,-73,-85
-105,-31,69,66,-90,14,46,-6,-45,-59,-73,-79
-111,-37,69,72,-90,8,46,-6,-45,-59,-73,-79
-111,-37,69,72,-90,8,52,-6,-39,-65,-73,-73
-111,-37,69,72,-90,8,52,-6,-39,-65,-73,-73
-105,-37,63,72,-84,8,52,-6,-45,-65,-73,-73
-105,-31,69,66,-90,14,58,-6,-39,-65,-73,-67
-99,-31,63,66,-84,8,58,-6,-39,-59,-73,-67
-99,-31,63,66,-84,8,58,-6,-39,-59,-73,-73
-99,-31,63,66,-84,8,58,-6,-33,-59,-73,-73
-99,-31,63,66,-84,8,58,-6,-33,-59,-67,-73
-105,-31,69,66,-90,14,64,-6,-27,-59,-61,-73
-105,-31,69,66,-90,14,64,-6,-27,-59,-61,-73
-105,-31,69,66,-90,14,58,-6,-33,-59,-61,-73
-105,-31,69,66,-90,14,58,0,-33,-53,-61,-73
-111,-31,75,72,-96,14,52,0,-39,-53,-61,-73
-111,-31,75,72,-96,14,52,0,-39,-53,-61,-73
-111,-31,75,72,-96,14,58,0,-33,-53,-61,-73
-111,-31,75,72,-96,14,58,0,-33,-53,-61,-73
-111,-37,69,72,-90,8,64,0,-27,-53,-61,-73
-111,-37,69,72,-90,8,64,0,-27,-59,-61,-67
-111,-37,69,72,-90,8,58,-6,-27,-59,-67,-73
-111,-37,69,72,-90,8,58,-6,-27,-53,-67,-73
-111,-25,81,66,-96,20,52,-6,-33,-53,-73,-79
-111,-25,81,66,-96,20,52,-6,-39,-53,-73,-79
-111,-25,81,66,-96,20,52,-6,-33,-47,-67,-79
-111,-25,81,66,-96,20,46,-6,-33,-47,-67,-79
-111,-25,81,66,-96,20,46,-6,-27,-41,-73,-79
-111,-25,81,66,-96,20,46,-6,-33,-41,-73,-79
-111,-25,81,66,-96,20,52,-6,-33,-41,-67,-73
-111,-25,81,66,-96,20,52,-6,-33,-41,-67,-73
-111,-25,81,66,-96,20,58,-6,-33,-47,-61,-67
-111,-25,81,66,-96,20,58,-6,-33,-47,-61,-67
-105,-19,81,60,-96,26,52,-6,-33,-47,-61,-67
-105,-19,81,60,-96,26,52,-6,-33,-47,-61,-67
-99,-13,81,54,-90,26,40,-6,-39,-47,-61,-67
-99,-13,81,54,-90,26,40,-6,-39,-47,-61,-67
-99,-19,75,60,-90,20,40,-6,-39,-47,-61,-61
-99,-19,75,60,-90,20,40,-11,-39,-47,-61,-61
-99,-19,75,60,-90,20,40,-11,-45,-47,-67,-67
-99,-19,75,60,-90,20,40,-11,-45,-53,-67,-67
-105,-25,75,66,-90,20,40,-11,-45,-59,-61,-67
-105,-25,75,66,-90,20,40,-11,-45,-53,-61,-67
-111,-31,75,72,-96,14,40,-11,-45,-59,-61,-67
-111,-31,75,72,-96,14,34,-11,-45,-59,-61,-67
-111,-31,75,72,-96,14,28,-17,-51,-65,-67,-67
-111,-31,75,72,-96,14,28,-17,-51,-65,-67,-67
-111,-31,75,72,-96,14,28,-23,-51,-71,-73,-67
-111,-31,75,72,-96,14,28,-23,-51,-71,-73,-67
-111,-31,75,72,-96,14,28,-23,-57,-65,-67,-67
-111,-31,75,72,-96,14,28,-29,-57,-65,-67,-67
-111,-31,75,72,-96,14,28,-29,-63,-59,-61,-67
-111,-31,75,72,-96,14,28,-35,-63,-59,-61,-67
-111,-31,75,72,-96,14,28,-35,-63,-65,-61,-67
-111,-31,75,72,-96,14,28,-35,-63,-65,-61,-67
-111,-25,81,66,-96,20,28,-35,-63,-77,-67,-67
-111,-25,81,66,-96,20,28,-35,-63,-77,-67,-61
-111,-31,75,72,-96,14,28,-41,-69,-83,-73,-67
-111,-31,75,72,-96,14,28,-41,-69,-83,-73,-67
-105,-37,63,72,-84,8,22,-53,-81,-89,-79,-73
-105,-37,63,72,-84,8,22,-59,-87,-89,-79,-79
-105,-31,69,66,-90,14,22,-53,-87,-83,-79,-79
-105,-31,69,66,-90,14,22,-53,-87,-89,-79,-79
-105,-37,63,72,-84,8,22,-53,-87,-83,-79,-79
-105,-37,63,72,-84,8,22,-53,-87,-83,-79,-73
-99,-37,57,66,-78,2,22,-53,-81,-83,-79,-73
-99,-37,57,66,-78,2,22,-53,-81,-77,-73,-73
-93,-43,45,66,-72,-4,22,-53,-75,-77,-73,-73
-93,-43,45,66,-72,-4,22,-53,-75,-77,-73,-73
-99,-43,51,72,-78,-4,22,-53,-81,-83,-79,-73
-99,-43,51,72,-78,-4,22,-53,-81,-83,-79,-73
-105,-43,57,72,-84,2,16,-47,-87,-83,-79,-73
-105,-43,57,72,-84,2,16,-47,-87,-83,-79,-73
-111,-49,57,78,-84,-4,16,-59,-87,-89,-79,-73
-111,-55,51,84,-84,-4,16,-59,-87,-89,-79,-73
-117,-61,51,90,-84,-4,16,-65,-87,-95,-85,-73
-117,-55,57,84,-90,-4,16,-71,-87,-95,-85,-73
-111,-55,51,84,-84,-4,16,-65,-87,-95,-85,-79
-111,-49,57,78,-84,-4,16,-71,-87,-95,-85,-79
-105,-49,51,78,-78,-4,16,-65,-93,-101,-85,-79
-105,-49,51,78,-78,-4,16,-71,-93,-101,-85,-79
-105,-43,57,72,-84,2,16,-65,-93,-101,-85,-79
-105,-43,57,72,-84,2,16,-65,-93,-101,-79,-73
-105,-49,51,78,-78,-4,16,-59,-93,-95,-79,-73
-105,-49,51,78,-78,-4,16,-59,-93,-95,-79,-73
-111,-49,57,78,-84,-4,16,-59,-99,-95,-85,-73
-111,-49,57,78,-84,-4,16,-65,-99,-95,-91,-73
-99,-43,51,72,-78,-4,22,-65,-99,-95,-91,-79
-99,-31,63,66,-84,8,22,-65,-99,-95,-91,-85
-111,-43,63,78,-90,2,16,-53,-93,-107,-79,-73
-105,-43,57,72,-84,2,16,-59,-93,-95,-91,-73
-105,-49,51,78,-78,-4,22,-47,-99,-89,-79,-73
-105,-49,51,78,-78,-4,16,-53,-105,-95,-79,-73
-105,-49,51,78,-78,-4,16,-53,-105,-95,-79,-73
-105,-49,51,78,-78,-4,16,-59,-111,-101,-79,-73
-105,-49,51,78,-78,-4,16,-59,-111,-101,-79,-73
-99,-49,45,72,-72,-4,16,-65,-105,-107,-79,-79
-99,-43,51,72,-78,-4,16,-65,-111,-107,-73,-79
-93,-43,45,66,-72,-4,16,-71,-105,-101,-73,-79
-93,-43,45,66,-72,-4,16,-77,-105,-101,-73,-79
-99,-43,51,72,-78,-4,16,-71,-105,-95,-79,-79
-99,-43,51,72,-78,-4,16,-71,-105,-95,-79,-79
-105,-37,63,72,-84,8,22,-65,-105,-89,-85,-73
-111,-37,69,72,-90,8,22,-65,-99,-89,-85,-73
-105,-37,63,72,-84,8,22,-59,-99,-89,-79,-73
-99,-37,57,66,-78,2,22,-47,-87,-83,-73,-67
-93,-31,57,60,-78,8,40,-35,-81,-77,-67,-61
-93,-19,69,54,-84,20,46,-29,-69,-71,-61,-61
-87,-8,75,48,-84,26,58,-23,-69,-65,-67,-61
-87,-8,75,48,-84,26,64,-23,-63,-59,-61,-61
-75,-8,69,36,-72,26,70,-17,-57,-53,-67,-61
-63,-8,63,30,-60,26,76,-17,-57,-53,-55,-55
-69,-8,69,30,-66,32,82,-6,-45,-53,-55,-55
-69,-8,69,30,-66,32,88,-6,-45,-53,-55,-55
-75,-2,81,30,-78,38,88,0,-39,-47,-55,-49
-69,-2,75,30,-72,38,88,0,-39,-47,-55,-43
-63,-2,69,24,-66,32,94,0,-33,-47,-55,-43
-63,4,75,24,-66,38,94,0,-27,-47,-55,-43
-57,4,69,18,-60,38,100,6,-21,-41,-55,-43
-51,4,63,18,-54,32,106,6,-21,-35,-49,-37
-45,4,57,12,-48,32,106,12,-21,-29,-49,-37
-45,4,57,12,-48,32,106,12,-15,-23,-49,-37
-27,16,51,6,-36,32,106,6,-21,-23,-49,-37
-15,16,39,6,-24,26,106,18,-21,-23,-37,-37
-9,16,33,6,-18,26,106,24,-9,-5,-25,-20
-4,28,33,-5,-12,32,100,30,2,0,-13,-20
2,46,39,-23,-12,44,88,36,8,6,-2,-8
14,58,39,-35,-6,50,70,48,14,18,-2,4
20,64,39,-41,-1,56,70,48,20,18,4,4
20,70,45,-41,-6,62,58,42,20,18,10,10
20,64,39,-41,-1,56,52,36,14,18,10,4
20,58,33,-35,-1,50,46,30,14,24,10,4
20,58,33,-35,-1,50,40,18,2,12,16,10
20,40,15,-29,-1,32,28,6,-3,0,10,4
14,34,15,-23,-1,26,16,-6,-21,-5,4,-8
8,28,15,-17,-1,26,5,-23,-39,-17,-2,-20
8,16,3,-11,-1,14,-1,-23,-45,-29,-7,-20
8,4,-3,-5,5,2,-7,-47,-63,-47,-13,-20
8,-8,-8,1,11,-4,-19,-65,-75,-65,-13,-20
8,-13,-26,6,17,-15,-19,-77,-87,-71,-25,-20
-4,-25,-26,6,11,-21,-19,-83,-99,-77,-49,-43
8,-31,-44,6,23,-33,-19,-83,-111,-77,-55,-43
-4,-25,-14,12,-1,-21,-25,-83,-105,-83,-55,-37
-9,-31,-14,18,-1,-21,-7,-83,-93,-83,-61,-37
-4,-19,-8,12,-1,-15,16,-59,-75,-71,-55,-31
-9,-19,-3,12,-1,-9,22,-41,-69,-65,-43,-31
-27,-37,-3,30,-6,-21,52,-29,-63,-65,-49,-37
-39,-37,-3,36,-18,-15,70,-6,-45,-65,-55,-55
-51,-37,9,42,-30,-9,88,6,-33,-53,-55,-49
-63,-37,21,48,-42,-4,130,30,-21,-47,-61,-55
-63,-31,27,48,-48,-4,160,54,-15,-41,-61,-61
-63,-31,27,48,-48,-4,208,66,-9,-41,-67,-67
-93,-43,45,66,-72,-4,274,84,2,-41,-79,-67
-93,-43,45,66,-72,-4,352,132,20,-17,-67,-61
-75,-25,45,48,-60,2,352,162,50,0,-55,-61
-57,-25,27,42,-42,-4,316,180,80,0,-49,-49
-51,-13,33,30,-42,2,298,198,98,12,-49,-43
-27,-8,27,12,-24,8,262,210,116,30,-37,-43
-4,4,3,1,-1,8,178,216,128,54,-13,-37
20,16,-3,-17,11,8,82,222,146,72,-2,-20
44,46,-3,-41,17,26,28,240,182,108,10,-8
62,76,9,-65,23,44,16,270,206,132,28,10
86,88,-3,-83,41,44,-37,288,236,156,34,22
122,88,-26,-101,77,26,-79,324,254,168,46,34
158,106,-44,-131,101,26,-97,366,290,204,58,46
182,100,-74,-137,131,8,-139,384,308,216,70,52
194,100,-86,-143,143,2,-223,366,308,216,76,58
230,106,-116,-167,173,-4,-289,348,308,228,82,58
248,130,-116,-191,185,2,-361,336,296,234,100,70
260,118,-140,-191,203,-4,-451,300,284,234,106,82
272,118,-152,-197,215,-9,-535,234,248,228,112,88
302,124,-176,-215,239,-15,-619,174,206,210,112,82
332,130,-200,-233,263,-27,-709,84,176,210,118,100
362,142,-218,-245,287,-27,-775,0,146,210,136,124
368,130,-236,-245,299,-45,-835,-65,110,198,142,130
374,106,-260,-233,317,-69,-883,-125,74,198,142,130
398,130,-260,-257,329,-57,-901,-185,50,216,166,148
422,148,-266,-281,347,-51,-931,-233,38,234,202,166
428,166,-254,-293,341,-39,-961,-293,20,246,220,196
446,208,-236,-323,341,-4,-997,-359,2,270,250,214
458,232,-224,-341,341,2,-1045,-419,2,306,286,250
476,256,-212,-365,341,20,-1099,-491,2,348,322,286
488,310,-176,-401,335,68,-1129,-551,2,396,364,334
506,358,-146,-431,329,104,-1177,-611,2,420,394,358
542,382,-158,-461,353,110,-1219,-695,-21,432,418,382
566,382,-182,-473,377,98,-1315,-791,-87,432,442,418
608,400,-206,-497,407,98,-1447,-941,-159,432,490,454
698,406,-284,-545,491,56,-1639,-1109,-231,474,568,508
818,430,-386,-623,605,20,-1861,-1301,-303,504,664,586
968,442,-524,-707,749,-33,-2101,-1499,-423,534,754,676
1154,442,-710,-791,935,-129,-2287,-1655,-507,564,862,742
1346,466,-878,-905,1115,-201,-2472,-1781,-585,606,970,844
1550,478,-1070,-1007,1313,-291,-2652,-1889,-645,654,1078,946
1742,478,-1256,-1109,1499,-381,-2814,-1979,-711,684,1204,1048
1928,478,-1442,-1205,1685,-477,-2958,-2051,-741,720,1282,1144
2101,478,-1616,-1289,1859,-561,-3066,-2081,-771,732,1360,1204
2227,514,-1706,-1373,1967,-591,-3138,-2081,-759,732,1432,1288
2293,574,-1712,-1433,2003,-561,-3150,-2093,-735,774,1516,1378
2329,658,-1670,-1487,1997,-495,-3162,-2105,-699,816,1624,1468
2317,742,-1568,-1529,1949,-405,-3144,-2123,-675,864,1708,1552
2257,820,-1436,-1535,1847,-297,-3102,-2129,-675,876,1756,1630
2197,844,-1352,-1517,1775,-243,-3012,-2135,-735,804,1768,1642
2077,754,-1316,-1415,1703,-273,-2868,-2111,-849,576,1642,1558
1880,586,-1286,-1229,1583,-345,-2664,-2057,-1011,186,1384,1372
1658,454,-1202,-1049,1433,-369,-2436,-2039,-1215,-227,1090,1174
1406,346,-1052,-875,1229,-345,-2197,-1991,-1371,-533,808,952
1118,226,-890,-671,1001,-327,-1951,-1925,-1449,-773,556,724
872,100,-764,-479,821,-327,-1723,-1835,-1461,-923,328,526
638,4,-626,-317,635,-303,-1489,-1709,-1395,-971,136,340
368,-85,-458,-137,413,-267,-1213,-1511,-1281,-947,-73,130
188,-151,-338,-11,257,-243,-991,-1325,-1167,-911,-211,-14
122,-163,-284,12,203,-225,-841,-1145,-1029,-797,-211,-31
74,-97,-176,6,125,-135,-679,-941,-843,-647,-163,-20
14,-43,-62,6,35,-51,-505,-755,-687,-521,-145,-20
-21,-25,-3,24,-6,-9,-415,-647,-597,-473,-145,-20
-69,-25,39,48,-54,2,-337,-575,-531,-449,-157,-43
-123,-25,93,72,-108,26,-247,-497,-465,-413,-169,-67
-153,-19,129,84,-144,50,-205,-455,-411,-395,-169,-85
-153,-19,129,84,-144,50,-163,-419,-369,-371,-157,-97
-165,-31,129,96,-150,44,-115,-347,-315,-323,-157,-91
-165,-67,93,114,-132,8,-43,-275,-261,-269,-169,-115
-165,-97,63,132,-114,-9,16,-203,-213,-239,-169,-127
-165,-103,57,132,-114,-15,58,-137,-171,-197,-175,-133
-153,-97,51,126,-102,-15,106,-83,-135,-167,-163,-133
-153,-103,45,126,-102,-21,142,-35,-105,-143,-157,-133
-153,-103,45,126,-102,-21,166,-11,-75,-143,-151,-133
-165,-115,45,138,-108,-27,184,-6,-57,-131,-151,-127
-177,-109,63,144,-120,-15,190,-6,-51,-137,-145,-127
-183,-133,45,156,-114,-39,208,6,-33,-125,-145,-139
-189,-145,39,168,-114,-45,214,18,-27,-125,-157,-145
-189,-151,33,168,-114,-51,214,18,-27,-131,-157,-145
-189,-151,33,168,-114,-51,226,24,-27,-119,-163,-145
-201,-151,45,174,-126,-45,238,30,-27,-119,-169,-151
-201,-151,45,174,-126,-45,250,42,-27,-119,-175,-151
-213,-151,57,180,-138,-39,268,54,-9,-113,-175,-157
-219,-145,69,180,-144,-33,280,60,-3,-113,-175,-157
-219,-145,69,180,-144,-33,280,66,2,-113,-175,-151
-219,-139,75,180,-150,-27,298,78,2,-107,-175,-145
-213,-139,69,174,-144,-27,292,84,2,-95,-175,-139
-213,-151,57,180,-138,-39,298,90,8,-89,-169,-133
-219,-157,57,186,-138,-45,298,90,14,-89,-175,-139
-219,-163,51,192,-138,-51,304,102,20,-89,-181,-139
-219,-169,45,192,-132,-57,304,102,20,-95,-187,-145
-219,-169,45,192,-132,-57,304,108,32,-95,-193,-145
-219,-163,51,192,-138,-51,310,114,32,-89,-187,-151
-219,-157,57,186,-138,-45,322,120,32,-83,-187,-151
-219,-151,63,186,-144,-39,334,126,38,-83,-181,-157
-225,-145,75,186,-150,-27,340,132,38,-83,-175,-157
-225,-151,69,186,-150,-33,334,144,44,-77,-175,-163
-225,-163,57,192,-144,-45,340,150,50,-77,-175,-163
-225,-169,51,198,-138,-51,346,156,56,-77,-181,-175
-225,-163,57,192,-144,-45,352,162,56,-77,-187,-175
-225,-163,57,192,-144,-45,364,162,62,-77,-181,-169
-225,-163,57,192,-144,-45,370,174,62,-77,-181,-175
-225,-157,63,192,-144,-39,382,174,62,-77,-175,-169
-225,-151,69,186,-150,-33,388,180,68,-71,-175,-169
-225,-157,63,192,-144,-39,394,186,68,-65,-175,-163
-231,-157,69,192,-150,-39,394,192,80,-65,-175,-163
-231,-163,63,198,-150,-45,406,198,86,-53,-175,-163
-231,-169,57,198,-144,-51,418,204,92,-53,-163,-169
-231,-169,57,198,-144,-51,424,210,92,-59,-169,-169
-231,-169,57,198,-144,-51,430,216,98,-53,-169,-169
-231,-169,57,198,-144,-51,442,222,104,-53,-181,-169
-231,-169,57,198,-144,-51,448,228,110,-53,-181,-169
-231,-169,57,198,-144,-51,454,234,110,-53,-181,-169
-231,-169,57,198,-144,-51,454,234,116,-53,-181,-169
-231,-169,57,198,-144,-51,454,246,116,-53,-181,-169
-237,-169,63,204,-150,-45,460,258,122,-47,-187,-169
-237,-163,69,198,-156,-39,466,264,134,-47,-193,-169
-237,-163,69,198,-156,-39,472,282,140,-47,-193,-169
-243,-175,63,210,-156,-51,490,288,146,-47,-199,-169
-243,-175,63,210,-156,-51,502,294,152,-41,-199,-169
-243,-169,69,204,-156,-45,520,312,170,-29,-199,-169
-243,-163,75,204,-162,-39,532,324,176,-29,-193,-169
-243,-163,81,204,-168,-33,550,336,182,-11,-193,-169
-243,-157,87,204,-168,-27,550,348,194,-11,-199,-169
-243,-151,87,198,-168,-27,562,360,194,-17,-205,-169
-243,-151,87,198,-168,-27,574,372,200,-17,-205,-175
-237,-151,81,192,-162,-27,574,390,200,-17,-205,-169
-243,-151,87,198,-168,-27,580,402,206,-17,-211,-169
-249,-157,93,204,-174,-27,598,414,212,-11,-211,-181
-249,-157,93,204,-174,-27,616,426,230,-5,-211,-187
-255,-151,105,204,-186,-15,634,444,230,-5,-211,-187
-261,-151,111,210,-192,-15,652,462,242,0,-211,-181
-255,-157,99,210,-180,-21,658,468,242,0,-205,-187
-255,-163,93,210,-180,-27,664,474,248,0,-211,-199
-255,-163,93,210,-180,-27,670,480,254,0,-211,-211
-255,-163,93,210,-180,-27,682,492,266,6,-211,-217
-261,-163,99,216,-186,-27,700,510,272,6,-205,-217
-261,-163,99,216,-186,-27,712,528,290,12,-205,-217
-267,-163,105,216,-192,-21,742,546,302,18,-199,-211
-279,-163,117,222,-204,-15,748,558,308,24,-199,-217
-273,-157,117,216,-198,-15,766,570,314,30,-193,-229
-273,-157,117,216,-198,-15,784,588,332,36,-193,-229
-279,-157,123,222,-204,-9,796,600,350,36,-193,-229
-291,-163,129,228,-216,-9,808,618,350,36,-193,-229
-297,-163,135,234,-222,-9,814,624,374,42,-199,-229
-285,-157,129,222,-210,-9,832,642,386,48,-211,-229
-291,-157,135,228,-216,-4,838,654,392,54,-211,-229
-291,-157,135,228,-216,-4,850,678,398,60,-217,-223
-285,-157,129,222,-210,-9,862,690,404,60,-211,-229
-285,-157,129,222,-210,-9,874,696,416,66,-217,-229
-279,-157,123,222,-204,-9,886,714,416,66,-223,-229
-279,-157,123,222,-204,-9,898,726,434,72,-223,-229
-285,-157,129,222,-210,-9,910,732,446,72,-223,-229
-291,-151,141,222,-222,-4,916,750,446,72,-223,-223
-297,-145,153,222,-228,-4,928,750,452,78,-223,-223
-297,-145,153,222,-228,-4,928,762,458,78,-223,-229
-297,-145,153,222,-228,-4,934,774,470,84,-223,-223
-297,-145,153,222,-228,-4,946,786,476,90,-223,-223
-297,-139,159,222,-234,2,952,810,488,96,-223,-217
-291,-133,159,216,-228,8,958,822,494,102,-223,-217
-285,-127,159,210,-228,8,958,834,500,102,-229,-217
-285,-127,159,210,-228,8,958,840,512,102,-235,-217
-267,-121,147,198,-210,8,958,834,512,108,-235,-223
-261,-121,141,192,-204,2,958,834,524,114,-229,-223
-267,-121,147,198,-210,8,952,840,536,120,-223,-217
-267,-115,153,192,-216,14,940,846,536,120,-223,-217
-255,-109,147,186,-204,14,940,852,542,132,-217,-211
-255,-109,147,186,-204,14,934,858,542,132,-211,-211
-249,-109,141,180,-198,8,922,852,536,138,-211,-205
-243,-97,147,174,-198,20,904,840,536,138,-205,-205
-243,-97,141,168,-192,14,892,840,530,144,-205,-199
-243,-97,141,168,-192,14,880,834,524,144,-205,-199
-237,-97,135,168,-186,14,868,816,518,138,-205,-193
-231,-97,129,162,-180,8,856,804,512,144,-199,-193
-213,-97,111,156,-162,2,844,792,512,138,-199,-187
-207,-91,111,150,-162,2,826,780,506,138,-199,-187
-213,-97,111,156,-162,2,802,768,500,132,-193,-181
-207,-97,105,150,-156,-4,784,750,488,132,-193,-181
-201,-91,105,144,-156,2,754,732,488,126,-187,-169
-189,-91,93,138,-144,-4,736,720,482,126,-187,-163
-189,-79,105,132,-150,8,706,696,470,126,-175,-163
-177,-73,99,126,-138,8,688,672,458,120,-169,-157
-183,-67,111,126,-150,14,664,654,446,120,-163,-157
-177,-67,105,120,-144,14,640,636,434,120,-157,-157
-159,-61,93,108,-126,8,622,612,422,120,-151,-145
-147,-55,87,102,-120,8,598,594,404,126,-145,-139
-135,-49,81,90,-108,8,574,570,386,120,-139,-127
-129,-43,81,84,-108,14,544,552,374,120,-133,-121
-123,-43,75,84,-102,8,520,534,368,120,-127,-115
-117,-43,69,78,-96,8,496,498,362,120,-121,-109
-111,-37,69,72,-90,8,478,480,344,108,-115,-103
-105,-37,63,72,-84,8,442,450,338,108,-109,-97
-93,-25,63,60,-78,14,430,426,314,108,-103,-91
-87,-25,57,54,-72,8,406,396,302,108,-85,-79
-81,-25,51,54,-66,8,394,372,278,102,-85,-73
-81,-25,51,54,-66,8,358,330,260,96,-79,-73
-75,-31,39,54,-60,-4,328,306,242,84,-73,-67
-69,-31,33,48,-54,-4,304,282,224,78,-67,-61
-69,-31,33,48,-54,-4,280,258,200,72,-55,-49
-69,-31,33,48,-54,-4,256,228,176,72,-49,-43
-63,-19,39,42,-54,2,244,198,170,72,-55,-49
-63,-19,39,42,-54,2,226,180,164,66,-49,-43
-69,-19,45,42,-60,8,208,162,146,60,-55,-43
-75,-25,45,48,-60,2,202,150,140,54,-55,-43
-75,-25,45,48,-60,2,178,120,116,48,-49,-43
-75,-25,45,48,-60,2,160,90,104,42,-43,-37
-75,-19,51,48,-66,8,142,60,86,30,-37,-37
-75,-19,51,48,-66,8,130,36,74,24,-37,-37
-63,-25,33,42,-48,-4,124,18,62,24,-43,-37
-63,-25,33,42,-48,-4,112,6,62,18,-43,-37
-63,-37,21,48,-42,-4,106,-6,44,18,-49,-37
-63,-37,21,48,-42,-4,100,-11,38,12,-49,-37
-69,-37,27,54,-48,-4,94,-29,26,12,-49,-37
-69,-37,27,54,-48,-4,88,-41,14,6,-49,-31
-75,-43,27,60,-54,-4,70,-41,2,6,-49,-31
-75,-55,15,66,-48,-15,64,-53,2,0,-49,-31
-75,-55,15,66,-48,-15,64,-59,-3,0,-43,-31
-75,-55,15,66,-48,-15,58,-65,-3,0,-43,-31
-75,-55,15,66,-48,-15,58,-77,-15,-5,-43,-31
-75,-55,15,66,-48,-15,52,-89,-21,-11,-49,-25
-75,-61,9,66,-42,-21,52,-89,-21,-17,-49,-25
-75,-61,9,66,-42,-21,52,-95,-27,-17,-49,-25
-81,-61,15,72,-48,-15,52,-101,-33,-23,-49,-25
-81,-67,9,72,-48,-21,52,-107,-39,-29,-49,-31
-81,-67,9,72,-48,-21,46,-107,-39,-29,-61,-31
-87,-67,15,78,-54,-21,46,-113,-39,-35,-61,-37
-93,-67,21,78,-60,-15,34,-113,-39,-35,-67,-37
-93,-61,27,78,-60,-9,34,-113,-39,-35,-67,-37
-93,-61,27,78,-60,-9,34,-125,-45,-35,-73,-37
-93,-61,27,78,-60,-9,34,-125,-45,-35,-73,-43
-93,-73,15,84,-54,-21,34,-125,-51,-41,-73,-43
-93,-73,15,84,-54,-21,28,-125,-57,-41,-73,-43
-93,-73,15,84,-54,-21,34,-125,-57,-41,-67,-43
-93,-79,9,84,-54,-27,40,-125,-57,-41,-67,-43
-93,-79,9,84,-54,-27,46,-125,-57,-41,-61,-49
-93,-79,9,84,-54,-27,46,-125,-57,-47,-61,-49
-93,-79,9,84,-54,-27,46,-125,-57,-53,-67,-49
-93,-85,3,90,-48,-33,46,-131,-57,-53,-67,-49
-99,-85,9,90,-54,-33,46,-131,-63,-53,-79,-49
-99,-85,9,90,-54,-33,46,-125,-63,-53,-79,-49
-99,-85,9,90,-54,-33,46,-125,-63,-53,-85,-49
-99,-85,9,90,-54,-33,46,-125,-63,-53,-85,-49
-99,-85,9,90,-54,-33,46,-119,-63,-53,-91,-49
-99,-85,9,90,-54,-33,46,-119,-63,-53,-91,-49
-99,-85,9,90,-54,-33,46,-125,-63,-53,-97,-61
-99,-85,9,90,-54,-33,52,-125,-63,-53,-97,-61
-105,-85,15,96,-60,-27,52,-125,-63,-53,-103,-67
-105,-85,15,96,-60,-27,58,-125,-63,-53,-103,-67
-105,-85,15,96,-60,-27,58,-113,-57,-59,-103,-67
-105,-85,15,96,-60,-27,52,-113,-57,-59,-103,-67
-105,-85,15,96,-60,-27,52,-107,-51,-65,-97,-67
-105,-85,15,96,-60,-27,58,-107,-51,-65,-97,-67
-111,-91,15,102,-66,-33,58,-113,-57,-65,-97,-67
-111,-91,15,102,-66,-33,58,-113,-63,-71,-103,-67
-111,-97,9,102,-60,-39,64,-119,-69,-71,-103,-73
-111,-97,9,102,-60,-39,64,-119,-75,-71,-103,-73
-105,-91,9,96,-60,-33,64,-119,-69,-71,-103,-73
-105,-85,15,96,-60,-27,64,-119,-69,-71,-103,-73
-105,-79,21,90,-66,-21,70,-119,-63,-71,-103,-73
-105,-73,27,90,-66,-15,76,-119,-57,-71,-103,-73
-105,-73,27,90,-66,-15,70,-107,-57,-71,-103,-73
-105,-73,27,90,-66,-15,70,-107,-57,-71,-97,-73
-105,-79,21,90,-66,-21,64,-101,-57,-71,-97,-73
-105,-79,21,90,-66,-21,64,-101,-57,-71,-97,-73
-105,-73,27,90,-66,-15,64,-101,-57,-65,-97,-73
-111,-79,27,96,-72,-21,64,-101,-57,-65,-97,-73
-111,-73,33,90,-72,-15,64,-101,-51,-65,-97,-73
-111,-73,33,90,-72,-15,64,-101,-51,-65,-97,-73
-111,-79,27,96,-72,-21,64,-95,-51,-65,-91,-67
-111,-73,33,90,-72,-15,70,-95,-45,-65,-91,-61
-111,-79,27,96,-72,-21,70,-89,-39,-59,-85,-55
-111,-79,27,96,-72,-21,70,-89,-39,-59,-85,-61
-117,-79,33,96,-78,-15,70,-89,-39,-53,-85,-61
-117,-79,33,96,-78,-15,70,-89,-39,-53,-79,-61
-129,-79,45,102,-90,-9,76,-89,-39,-47,-73,-61
-129,-79,45,102,-90,-9,76,-89,-39,-47,-73,-61
-123,-79,39,102,-84,-15,76,-89,-39,-47,-73,-55
-123,-79,39,102,-84,-15,76,-83,-39,-41,-73,-55
-123,-79,39,102,-84,-15,76,-83,-39,-41,-73,-49
