,,,,,,,,,,,
2019-09-04 23:54:28,,,,,,,,,,,
,,,,,,,,,,,
I,II,III,aVR,aVL,aVF,V1,V2,V3,V4,V5,V6
143,223,78,-179,32,154,-42,-103,-154,-124,-64,-14
149,217,66,-179,44,142,-48,-103,-154,-124,-64,-14
149,211,60,-179,44,136,-54,-109,-160,-124,-64,-14
149,199,49,-173,50,124,-66,-115,-160,-124,-70,-20
149,187,38,-167,56,112,-66,-115,-166,-130,-76,-20
149,181,32,-161,62,106,-66,-121,-172,-142,-76,-26
143,169,26,-149,62,100,-66,-127,-178,-142,-76,-20
131,163,32,-143,50,100,-66,-145,-184,-154,-88,-31
125,151,26,-137,50,88,-66,-151,-196,-166,-94,-36
119,145,26,-125,50,88,-78,-157,-208,-178,-106,-42
119,133,14,-119,56,76,-78,-163,-214,-190,-112,-48
113,121,8,-113,56,64,-78,-175,-220,-190,-118,-54
113,115,2,-113,56,58,-72,-175,-226,-190,-124,-54
113,109,-4,-107,62,53,-72,-175,-226,-196,-130,-54
107,97,-10,-95,62,48,-66,-175,-226,-196,-130,-54
101,85,-16,-89,62,36,-66,-181,-226,-196,-130,-60
89,73,-16,-77,56,30,-60,-181,-238,-202,-136,-66
83,61,-22,-65,56,24,-54,-181,-244,-208,-148,-78
77,56,-22,-65,50,18,-54,-187,-244,-214,-148,-84
83,56,-28,-65,56,18,-54,-187,-244,-214,-148,-90
95,56,-40,-71,68,12,-54,-187,-244,-220,-154,-90
83,51,-34,-65,56,12,-48,-181,-250,-220,-148,-90
71,39,-34,-53,50,6,-48,-181,-250,-220,-148,-90
71,33,-40,-47,56,0,-48,-187,-256,-226,-148,-96
71,33,-40,-47,56,0,-48,-187,-256,-226,-154,-96
71,27,-46,-47,56,-6,-48,-193,-262,-226,-160,-102
71,27,-46,-47,56,-6,-48,-199,-262,-226,-166,-102
71,21,-52,-41,62,-12,-48,-199,-262,-232,-166,-96
71,15,-58,-41,62,-18,-54,-205,-262,-232,-172,-96
71,15,-58,-41,62,-18,-60,-211,-274,-238,-172,-96
77,15,-64,-47,68,-24,-54,-205,-274,-238,-172,-102
83,15,-70,-47,74,-24,-54,-205,-274,-238,-172,-96
77,15,-64,-47,68,-24,-54,-205,-274,-238,-172,-96
71,15,-58,-41,62,-18,-54,-205,-268,-232,-166,-96
71,15,-58,-41,62,-18,-48,-205,-262,-226,-166,-90
71,21,-52,-41,62,-12,-48,-199,-250,-220,-160,-90
77,27,-52,-53,62,-12,-48,-193,-250,-214,-154,-90
83,27,-58,-53,68,-12,-42,-187,-244,-208,-160,-84
83,33,-52,-53,68,-6,-42,-187,-244,-208,-160,-90
83,33,-52,-53,68,-6,-37,-175,-238,-208,-154,-90
53,27,-28,-41,38,0,-26,-163,-226,-196,-142,-72
41,21,-22,-30,32,0,-14,-151,-214,-184,-136,-78
35,27,-10,-30,20,12,-8,-139,-202,-172,-130,-72
29,39,8,-35,8,24,4,-121,-184,-154,-118,-66
29,45,14,-35,8,30,10,-109,-166,-142,-112,-66
35,51,14,-41,8,36,10,-91,-148,-130,-100,-66
35,51,14,-41,8,36,16,-79,-136,-118,-94,-66
35,51,14,-41,8,36,28,-55,-118,-100,-88,-66
29,56,26,-41,2,42,46,-32,-94,-82,-76,-66
29,51,20,-41,2,36,64,-3,-58,-64,-70,-66
17,45,26,-30,-4,36,88,33,-29,-46,-64,-60
11,33,20,-19,-4,30,106,63,0,-22,-58,-60
11,21,8,-13,2,18,124,93,18,-17,-58,-72
17,3,-16,-13,14,-6,142,123,42,0,-52,-90
11,-9,-22,-1,14,-12,160,153,60,6,-46,-102
11,-33,-46,11,26,-36,178,183,72,18,-46,-108
6,-51,-58,23,32,-54,202,207,84,30,-52,-120
6,-69,-76,29,38,-72,238,243,108,42,-52,-132
1,-93,-94,41,44,-96,274,285,138,60,-52,-138
-5,-105,-100,53,44,-102,322,333,174,78,-40,-138
1,-117,-118,53,56,-120,370,393,222,108,-29,-126
6,-123,-130,59,68,-126,412,453,270,138,0,-114
6,-147,-154,71,80,-150,448,513,318,168,24,-96
1,-183,-184,89,92,-186,484,585,366,216,42,-96
1,-219,-220,107,110,-222,526,681,450,282,90,-72
6,-243,-250,119,128,-246,568,813,564,390,162,-36
17,-255,-274,119,146,-264,622,957,702,522,264,22
47,-243,-292,101,170,-264,664,1107,870,696,396,106
83,-225,-310,71,194,-264,694,1251,1056,882,546,196
137,-213,-352,35,242,-282,694,1395,1254,1098,702,292
197,-189,-388,-7,290,-288,676,1539,1488,1326,864,394
263,-147,-412,-53,338,-276,634,1671,1740,1590,1044,508
335,-87,-424,-119,380,-252,562,1791,2016,1878,1242,628
401,-3,-406,-197,404,-204,460,1905,2316,2208,1470,778
461,103,-358,-281,410,-126,346,2031,2639,2549,1704,922
521,223,-298,-371,410,-36,238,2139,2951,2879,1938,1060
581,343,-238,-461,410,53,124,2217,3233,3197,2154,1192
623,451,-172,-533,398,142,28,2283,3515,3503,2358,1306
647,541,-106,-587,380,220,-37,2337,3791,3797,2531,1408
659,595,-64,-623,362,268,-78,2349,4031,4049,2669,1474
647,601,-46,-617,350,280,-96,2319,4175,4193,2711,1480
611,571,-40,-587,326,268,-90,2229,4187,4175,2645,1426
557,535,-22,-545,290,256,-84,2049,4037,4001,2477,1318
497,475,-22,-485,260,226,-66,1845,3797,3713,2238,1162
413,397,-16,-401,218,190,-37,1617,3467,3335,1938,964
299,319,20,-305,140,172,-2,1323,2999,2837,1578,742
185,241,54,-209,68,148,34,999,2447,2268,1200,514
89,163,72,-125,8,118,64,699,1902,1716,858,310
17,85,66,-47,-21,76,82,417,1362,1212,564,142
-41,27,66,5,-56,48,106,141,822,726,306,4
-83,-21,60,47,-74,18,124,-61,402,372,114,-78
-101,-51,49,77,-74,0,136,-169,156,156,-6,-126
-107,-51,54,77,-80,0,136,-223,6,30,-76,-144
-101,-33,66,65,-86,18,130,-241,-64,-34,-112,-150
-89,-3,84,47,-86,42,124,-247,-112,-70,-124,-144
-77,27,102,23,-92,64,100,-253,-142,-100,-124,-132
-53,51,102,-1,-80,76,76,-253,-154,-118,-124,-120
-65,67,132,-1,-98,100,58,-241,-154,-124,-106,-102
-53,85,138,-13,-92,112,46,-223,-154,-130,-100,-84
-41,91,132,-25,-86,112,34,-205,-154,-136,-100,-72
-35,91,126,-30,-80,106,34,-187,-160,-148,-100,-66
-17,91,108,-35,-62,100,28,-175,-172,-154,-106,-60
-5,91,96,-41,-50,94,22,-169,-184,-166,-112,-60
6,97,90,-47,-38,94,10,-163,-190,-172,-118,-54
17,91,72,-53,-26,82,-8,-163,-202,-184,-124,-54
23,85,60,-47,-16,76,-20,-163,-214,-196,-130,-60
29,73,44,-47,-4,58,-32,-163,-226,-214,-136,-60
29,67,38,-47,-4,53,-32,-157,-232,-220,-142,-60
23,61,38,-35,-4,53,-37,-151,-238,-232,-148,-66
23,56,32,-35,-4,48,-37,-157,-244,-244,-154,-66
29,61,32,-41,2,48,-37,-151,-250,-250,-154,-66
41,67,26,-53,8,48,-37,-151,-250,-250,-154,-60
47,67,20,-53,14,48,-37,-151,-262,-262,-166,-66
35,67,32,-47,2,53,-37,-145,-262,-262,-166,-60
35,67,32,-47,2,53,-42,-145,-262,-262,-166,-60
47,67,20,-53,14,48,-42,-151,-268,-262,-166,-60
59,67,8,-59,26,42,-48,-151,-274,-262,-166,-54
47,61,14,-47,20,42,-48,-157,-274,-262,-166,-54
47,61,14,-47,20,42,-48,-157,-268,-262,-166,-54
47,61,14,-47,20,42,-54,-163,-268,-268,-166,-54
47,61,14,-47,20,42,-54,-163,-262,-268,-166,-54
47,56,8,-47,20,36,-54,-163,-262,-274,-166,-54
53,56,2,-53,26,30,-54,-163,-268,-280,-166,-54
59,56,-4,-53,32,30,-60,-163,-268,-280,-172,-54
59,56,-4,-53,32,30,-60,-157,-268,-280,-166,-54
53,56,2,-53,26,30,-60,-151,-262,-274,-166,-48
53,51,-4,-53,26,24,-60,-145,-256,-274,-160,-48
53,51,-4,-53,26,24,-60,-145,-256,-268,-160,-48
53,51,-4,-53,26,24,-66,-139,-256,-262,-160,-48
41,45,2,-41,20,24,-60,-139,-256,-262,-154,-48
47,45,-4,-41,26,24,-60,-133,-256,-256,-148,-42
47,45,-4,-41,26,24,-60,-133,-256,-256,-148,-42
41,45,2,-41,20,24,-60,-133,-250,-256,-142,-36
41,45,2,-41,20,24,-60,-139,-250,-256,-142,-31
41,51,8,-47,14,30,-60,-139,-244,-250,-136,-31
47,51,2,-47,20,30,-60,-139,-244,-250,-136,-31
47,51,2,-47,20,30,-60,-139,-244,-250,-136,-31
53,56,2,-53,26,30,-60,-139,-244,-250,-136,-36
59,61,2,-53,32,36,-60,-133,-244,-250,-136,-31
59,61,2,-53,32,36,-60,-133,-244,-250,-136,-31
59,56,-4,-53,32,30,-60,-133,-244,-250,-136,-36
59,56,-4,-53,32,30,-60,-127,-244,-244,-136,-36
59,56,-4,-53,32,30,-60,-121,-238,-244,-130,-31
59,61,2,-53,32,36,-54,-115,-238,-238,-130,-26
59,61,2,-53,32,36,-54,-115,-238,-238,-136,-26
59,67,8,-59,26,42,-54,-115,-238,-238,-136,-20
53,73,20,-59,20,48,-54,-109,-232,-232,-136,-14
53,79,26,-65,14,53,-54,-103,-232,-232,-136,-20
53,79,26,-65,14,53,-60,-103,-232,-226,-130,-20
59,85,26,-65,20,58,-66,-97,-226,-226,-130,-20
71,91,20,-77,26,58,-66,-91,-220,-226,-124,-20
77,91,14,-83,32,53,-66,-91,-220,-226,-124,-26
89,97,8,-89,44,53,-72,-85,-220,-232,-130,-26
95,97,2,-89,50,53,-66,-79,-220,-226,-124,-26
83,91,8,-83,38,53,-60,-73,-214,-214,-124,-20
77,91,14,-83,32,53,-60,-73,-208,-208,-124,-14
77,85,8,-77,38,48,-60,-67,-208,-202,-124,-14
77,85,8,-77,38,48,-54,-61,-202,-202,-124,-8
71,85,14,-71,32,53,-54,-49,-190,-196,-112,-2
71,85,14,-71,32,53,-54,-43,-190,-196,-112,4
77,79,2,-77,38,42,-54,-37,-184,-190,-106,4
77,79,2,-77,38,42,-60,-32,-172,-190,-106,10
83,79,-4,-77,44,42,-60,-27,-172,-190,-100,16
83,73,-10,-71,50,36,-54,-21,-166,-184,-94,16
77,73,-4,-71,44,36,-48,-15,-160,-178,-88,22
77,73,-4,-71,44,36,-48,-9,-154,-172,-82,28
71,73,2,-65,38,42,-42,-3,-154,-166,-76,28
71,73,2,-65,38,42,-37,9,-154,-160,-76,28
77,79,2,-77,38,42,-37,21,-148,-148,-70,34
83,79,-4,-77,44,42,-37,27,-142,-142,-64,40
83,79,-4,-77,44,42,-37,33,-130,-142,-58,46
89,79,-10,-83,50,36,-37,39,-124,-142,-52,52
101,79,-22,-89,62,30,-42,51,-118,-136,-46,58
101,79,-22,-89,62,30,-48,57,-106,-130,-34,64
89,79,-10,-83,50,36,-37,75,-94,-118,-29,76
89,85,-4,-83,50,42,-37,87,-88,-112,-18,88
101,97,-4,-95,56,48,-37,93,-82,-100,-12,94
107,109,2,-101,56,58,-32,105,-70,-88,0,106
107,121,14,-107,50,70,-26,117,-64,-76,6,118
101,121,20,-107,44,70,-26,123,-58,-70,12,124
101,127,26,-113,38,76,-26,129,-52,-64,18,130
101,139,38,-119,32,88,-26,135,-46,-52,30,136
101,145,44,-119,32,94,-26,141,-34,-46,36,136
107,157,49,-125,32,106,-26,147,-29,-34,48,142
107,163,54,-131,26,112,-32,153,-24,-22,60,148
119,175,54,-143,32,118,-32,165,-12,-17,66,160
131,187,54,-155,38,124,-32,177,0,-6,78,172
125,187,60,-155,32,124,-26,189,12,6,90,178
125,205,78,-161,26,142,-26,201,24,12,102,184
125,229,102,-173,14,166,-20,207,36,24,114,196
125,241,114,-179,8,178,-20,213,48,36,126,202
131,253,120,-185,8,190,-20,225,54,54,138,208
131,271,138,-197,-4,208,-20,237,72,72,156,214
137,289,150,-209,-4,220,-32,243,84,90,168,226
137,301,162,-215,-10,232,-26,261,102,102,180,232
137,313,174,-221,-16,244,-26,267,120,120,186,238
137,325,186,-227,-21,256,-26,279,138,132,198,244
143,343,198,-239,-26,274,-26,285,144,144,204,250
143,361,216,-245,-32,292,-26,291,156,150,216,256
149,373,222,-257,-32,298,-26,303,168,168,222,262
149,385,234,-263,-38,310,-26,309,180,180,222,268
149,391,240,-269,-44,316,-26,309,192,192,228,268
149,397,246,-269,-44,322,-20,315,204,210,240,268
149,403,252,-275,-50,328,-20,327,216,222,246,274
155,403,246,-275,-44,328,-20,327,228,240,246,274
149,409,258,-275,-50,334,-20,333,246,252,252,280
137,415,276,-275,-68,346,-14,339,264,264,264,286
137,415,276,-275,-68,346,-8,339,276,276,270,286
137,415,276,-275,-68,346,-8,345,288,282,276,286
137,415,276,-275,-68,346,-8,345,294,294,276,280
137,421,282,-275,-68,352,-2,351,294,300,282,280
137,415,276,-275,-68,346,-2,345,300,306,276,274
137,415,276,-275,-68,346,-2,345,306,312,276,274
131,421,288,-269,-74,358,-2,339,312,318,276,262
125,415,288,-269,-80,352,-2,327,312,318,276,256
125,409,282,-263,-74,346,-2,315,318,312,270,250
113,391,276,-251,-80,334,-2,303,306,312,264,238
113,379,264,-245,-74,322,4,285,294,300,252,226
113,373,258,-239,-68,316,4,279,288,294,240,214
113,361,246,-233,-62,304,10,261,270,282,228,202
107,343,234,-221,-62,292,10,249,252,264,216,190
107,331,222,-215,-56,280,10,225,234,240,204,178
101,325,222,-209,-56,274,10,207,216,222,186,166
95,313,216,-197,-56,268,10,183,198,198,168,154
77,289,210,-179,-62,250,10,159,174,174,150,142
71,271,198,-167,-62,238,4,141,150,156,138,130
65,259,192,-161,-62,226,4,117,126,138,120,118
59,241,180,-143,-56,214,4,93,102,114,96,100
53,223,168,-137,-56,196,4,75,84,90,78,82
41,211,168,-125,-62,190,-2,57,60,72,60,70
47,205,156,-119,-50,184,-2,39,42,48,42,52
47,199,150,-119,-50,178,-8,27,18,24,30,46
47,193,144,-113,-44,172,-14,9,-6,0,12,34
47,175,126,-107,-38,154,-20,-15,-29,-22,0,22
35,169,132,-95,-44,154,-26,-32,-46,-40,-18,10
17,163,144,-89,-62,154,-26,-43,-58,-52,-29,-2
17,157,138,-83,-56,148,-26,-55,-70,-64,-40,-8
17,145,126,-77,-50,136,-20,-67,-82,-76,-58,-20
17,139,120,-77,-50,130,-20,-73,-100,-88,-70,-26
23,133,108,-71,-38,124,-20,-85,-112,-100,-82,-31
23,121,96,-65,-32,112,-20,-91,-124,-112,-94,-42
17,109,90,-59,-32,100,-20,-97,-136,-124,-100,-48
11,109,96,-53,-38,106,-26,-109,-148,-136,-106,-54
6,97,90,-47,-38,94,-26,-115,-154,-148,-112,-60
6,91,84,-47,-38,88,-26,-121,-166,-154,-112,-60
1,91,90,-47,-44,88,-26,-133,-172,-166,-118,-66
1,91,90,-47,-44,88,-26,-139,-172,-166,-118,-66
6,85,78,-41,-32,82,-32,-139,-178,-166,-124,-66
6,73,66,-35,-26,70,-32,-145,-184,-172,-130,-72
6,61,54,-30,-21,58,-37,-151,-190,-178,-130,-72
6,56,49,-30,-21,53,-32,-151,-190,-184,-130,-78
6,56,49,-30,-21,53,-32,-151,-196,-184,-130,-78
6,51,44,-30,-21,48,-26,-157,-196,-184,-130,-78
6,45,38,-25,-16,42,-26,-157,-196,-184,-130,-78
1,45,44,-25,-21,42,-20,-151,-196,-184,-136,-84
1,45,44,-25,-21,42,-26,-151,-196,-184,-136,-84
6,39,32,-25,-16,36,-32,-157,-196,-190,-142,-84
6,27,20,-19,-10,24,-32,-163,-202,-190,-142,-84
6,27,20,-19,-10,24,-32,-163,-202,-190,-148,-84
-5,27,32,-13,-21,30,-26,-157,-202,-190,-148,-84
-5,21,26,-7,-16,24,-26,-163,-202,-190,-148,-90
-5,15,20,-7,-16,18,-26,-157,-202,-190,-148,-90
-5,9,14,-1,-10,12,-20,-157,-196,-190,-148,-96
-11,3,14,-1,-16,6,-20,-157,-196,-190,-148,-90
-11,3,14,-1,-16,6,-20,-157,-196,-190,-148,-90
-11,3,14,-1,-16,6,-26,-157,-190,-184,-148,-90
-11,3,14,-1,-16,6,-26,-157,-190,-184,-148,-90
-17,-3,14,11,-16,6,-26,-157,-190,-178,-148,-90
-11,-3,8,5,-10,0,-26,-157,-190,-178,-142,-90
-5,-3,2,5,-4,0,-20,-151,-190,-178,-142,-90
-5,-9,-4,5,-4,-6,-20,-151,-190,-178,-136,-90
-17,-21,-4,17,-10,-12,-20,-151,-196,-184,-142,-96
-17,-21,-4,17,-10,-12,-20,-151,-190,-184,-142,-96
-29,-21,8,23,-21,-6,-14,-145,-184,-178,-136,-84
-17,-21,-4,17,-10,-12,-14,-145,-178,-178,-136,-84
-17,-15,2,17,-10,-6,-8,-139,-172,-178,-142,-78
-17,-21,-4,17,-10,-12,-8,-145,-172,-178,-136,-72
-5,-15,-10,11,2,-12,-8,-145,-166,-178,-136,-72
-5,-15,-10,11,2,-12,-2,-139,-166,-172,-136,-72
-17,-15,2,17,-10,-6,-2,-139,-166,-172,-130,-72
-17,-15,2,17,-10,-6,-2,-139,-172,-172,-136,-72
-17,-15,2,17,-10,-6,-2,-133,-172,-166,-136,-78
-17,-21,-4,17,-10,-12,-2,-133,-172,-166,-130,-78
-17,-27,-10,23,-4,-18,-2,-133,-172,-166,-130,-78
-11,-21,-10,11,-4,-18,-2,-133,-166,-172,-130,-78
-17,-21,-4,17,-10,-12,4,-133,-166,-172,-130,-78
-17,-27,-10,23,-4,-18,4,-133,-172,-172,-130,-78
-23,-33,-10,23,-10,-24,4,-133,-172,-172,-130,-78
-29,-39,-10,35,-10,-24,-2,-139,-178,-172,-130,-78
-29,-33,-4,29,-16,-18,-2,-145,-184,-178,-130,-78
-23,-21,2,17,-16,-12,-8,-145,-178,-172,-130,-78
-11,-9,2,5,-10,-6,-2,-145,-178,-172,-124,-72
1,-3,-4,-1,2,-6,-2,-145,-178,-172,-124,-72
1,-3,-4,-1,2,-6,4,-145,-184,-172,-124,-66
-5,-9,-4,5,-4,-6,10,-145,-184,-172,-124,-66
1,-3,-4,-1,2,-6,10,-145,-184,-172,-118,-66
6,3,-4,-7,2,0,10,-151,-184,-172,-118,-60
6,3,-4,-7,2,0,10,-151,-184,-166,-118,-60
-5,3,8,-1,-10,6,4,-151,-178,-166,-112,-60
-5,-3,2,5,-4,0,-2,-151,-184,-172,-118,-60
-11,-3,8,5,-10,0,-8,-151,-190,-172,-118,-66
-11,-9,2,5,-10,-6,-8,-151,-196,-172,-118,-66
-17,-9,8,11,-16,0,-8,-151,-202,-172,-124,-66
-11,-9,2,5,-10,-6,-14,-157,-202,-172,-124,-66
-5,-9,-4,5,-4,-6,-14,-157,-202,-172,-124,-60
-5,-3,2,5,-4,0,-14,-157,-202,-172,-124,-60
-5,-3,2,5,-4,0,-14,-157,-202,-172,-124,-54
-5,-3,2,5,-4,0,-14,-163,-202,-178,-124,-54
-5,-3,2,5,-4,0,-20,-163,-208,-184,-130,-54
-5,-3,2,5,-4,0,-26,-169,-214,-184,-130,-66
-5,-3,2,5,-4,0,-26,-169,-214,-190,-130,-66
-11,-3,8,5,-10,0,-26,-169,-214,-190,-130,-66
-17,-3,14,11,-16,6,-20,-169,-214,-184,-130,-66
-17,3,20,5,-21,12,-26,-169,-214,-190,-130,-66
-17,3,20,5,-21,12,-20,-175,-214,-190,-130,-60
-17,3,20,5,-21,12,-20,-175,-214,-190,-130,-60
-17,3,20,5,-21,12,-26,-175,-214,-190,-130,-54
-17,9,26,5,-21,18,-20,-175,-214,-190,-130,-54
-11,9,20,-1,-16,12,-20,-169,-214,-190,-130,-54
-5,15,20,-7,-16,18,-26,-169,-220,-190,-124,-54
-5,9,14,-1,-10,12,-26,-175,-220,-190,-130,-54
-11,9,20,-1,-16,12,-26,-181,-226,-196,-130,-60
-11,3,14,-1,-16,6,-32,-187,-226,-196,-136,-60
1,3,2,-7,-4,0,-37,-193,-232,-202,-136,-66
1,9,8,-7,-4,6,-37,-193,-226,-202,-136,-66
-5,21,26,-7,-16,24,-32,-181,-214,-202,-124,-60
-5,21,26,-7,-16,24,-26,-181,-214,-202,-124,-60
-5,21,26,-7,-16,24,-26,-181,-214,-208,-124,-60
-11,21,32,-7,-21,24,-32,-181,-220,-208,-124,-60
-17,15,32,-1,-26,24,-37,-187,-226,-214,-136,-66
-5,15,20,-7,-16,18,-37,-187,-238,-214,-136,-72
1,21,20,-13,-10,18,-32,-193,-238,-214,-142,-72
1,21,20,-13,-10,18,-37,-193,-238,-214,-142,-72
1,21,20,-13,-10,18,-37,-199,-238,-214,-142,-72
6,21,14,-13,-4,18,-37,-199,-232,-220,-142,-72
6,27,20,-19,-10,24,-37,-199,-232,-220,-136,-72
6,27,20,-19,-10,24,-42,-199,-238,-220,-136,-78
6,21,14,-13,-4,18,-42,-199,-238,-214,-142,-78
1,15,14,-13,-10,12,-42,-205,-244,-214,-142,-84
6,9,2,-7,2,6,-42,-205,-244,-214,-142,-84
11,9,-4,-7,8,6,-48,-217,-250,-220,-148,-90
6,3,-4,-7,2,0,-42,-217,-244,-220,-148,-84
-5,9,14,-1,-10,12,-42,-211,-244,-220,-148,-78
1,9,8,-7,-4,6,-42,-217,-244,-226,-148,-78
6,9,2,-7,2,6,-42,-217,-244,-226,-142,-84
6,3,-4,-7,2,0,-42,-223,-244,-226,-142,-84
1,3,2,-7,-4,0,-37,-217,-250,-226,-142,-84
-5,3,8,-1,-10,6,-37,-223,-256,-226,-142,-84
-5,3,8,-1,-10,6,-32,-223,-256,-226,-142,-84
1,3,2,-7,-4,0,-37,-223,-256,-226,-148,-84
6,3,-4,-7,2,0,-37,-229,-256,-232,-148,-84
6,3,-4,-7,2,0,-37,-229,-262,-226,-154,-84
-11,-3,8,5,-10,0,-37,-223,-256,-226,-154,-78
-17,-9,8,11,-16,0,-42,-223,-262,-226,-154,-78
-17,-9,8,11,-16,0,-48,-223,-262,-226,-154,-78
-17,-15,2,17,-10,-6,-42,-223,-262,-220,-154,-78
-17,-21,-4,17,-10,-12,-42,-223,-256,-220,-148,-72
-17,-27,-10,23,-4,-18,-37,-229,-262,-220,-154,-72
-11,-27,-16,17,2,-24,-37,-223,-262,-220,-154,-72
-5,-21,-16,11,2,-18,-37,-223,-262,-220,-148,-72
-5,-27,-22,17,8,-24,-37,-223,-262,-220,-148,-78
-11,-33,-22,17,2,-30,-42,-229,-268,-226,-154,-84
-17,-39,-22,29,2,-30,-42,-229,-268,-232,-154,-84
-23,-51,-28,35,2,-42,-42,-229,-262,-232,-154,-84
-23,-45,-22,29,-4,-36,-42,-229,-262,-232,-154,-90
-29,-51,-22,41,-4,-36,-42,-229,-262,-232,-154,-84
-23,-57,-34,35,2,-48,-42,-229,-262,-226,-154,-84
-17,-51,-34,35,8,-42,-37,-229,-262,-226,-154,-84
-11,-57,-46,29,14,-54,-32,-229,-256,-220,-148,-84
-5,-63,-58,35,26,-60,-32,-229,-262,-214,-148,-90
-5,-69,-64,35,26,-66,-32,-229,-262,-214,-148,-90
-5,-69,-64,35,26,-66,-26,-229,-256,-214,-148,-90
-11,-69,-58,35,20,-66,-32,-229,-262,-214,-148,-90
-11,-69,-58,35,20,-66,-37,-229,-262,-220,-148,-90
-17,-57,-40,35,8,-48,-37,-229,-268,-220,-148,-90
-17,-57,-40,35,8,-48,-42,-229,-268,-220,-142,-90
-17,-57,-40,35,8,-48,-42,-229,-268,-226,-142,-84
-11,-57,-46,29,14,-54,-37,-223,-268,-226,-142,-84
-5,-57,-52,29,20,-54,-37,-223,-268,-226,-142,-84
1,-63,-64,29,32,-66,-42,-229,-268,-226,-148,-84
1,-69,-70,29,32,-72,-37,-235,-268,-220,-148,-84
1,-63,-64,29,32,-66,-42,-235,-268,-220,-148,-90
-5,-63,-58,35,26,-60,-42,-235,-262,-220,-148,-84
-11,-63,-52,35,20,-60,-42,-235,-262,-220,-148,-84
-5,-63,-58,35,26,-60,-37,-235,-262,-226,-148,-84
-11,-63,-52,35,20,-60,-42,-229,-262,-226,-148,-90
-17,-63,-46,41,14,-54,-42,-235,-262,-226,-148,-90
-23,-69,-46,41,8,-60,-42,-235,-268,-226,-148,-90
-23,-69,-46,41,8,-60,-37,-235,-268,-232,-148,-90
-23,-63,-40,41,8,-54,-42,-235,-268,-232,-148,-90
-11,-63,-52,35,20,-60,-42,-235,-268,-238,-148,-90
-11,-63,-52,35,20,-60,-42,-235,-268,-238,-154,-96
-17,-63,-46,41,14,-54,-42,-235,-262,-238,-154,-96
-17,-63,-46,41,14,-54,-48,-235,-268,-238,-160,-96
-17,-63,-46,41,14,-54,-54,-235,-262,-232,-160,-96
-17,-45,-28,29,2,-36,-54,-235,-262,-232,-160,-90
-17,-45,-28,29,2,-36,-54,-235,-262,-232,-160,-84
-17,-39,-22,29,2,-30,-48,-235,-262,-232,-160,-84
-11,-33,-22,17,2,-30,-48,-229,-262,-226,-154,-84
-11,-27,-16,17,2,-24,-42,-223,-256,-226,-148,-90
-11,-21,-10,11,-4,-18,-37,-223,-250,-226,-142,-90
-5,-9,-4,5,-4,-6,-37,-217,-244,-220,-142,-90
-5,-3,2,5,-4,0,-32,-211,-238,-214,-136,-84
-5,3,8,-1,-10,6,-26,-211,-238,-214,-136,-84
-5,15,20,-7,-16,18,-20,-205,-232,-202,-130,-78
1,33,32,-19,-16,30,-20,-199,-220,-196,-130,-72
-5,39,44,-19,-26,42,-8,-193,-214,-190,-118,-66
-11,51,60,-25,-38,53,4,-187,-214,-190,-118,-60
-11,51,60,-25,-38,53,4,-181,-214,-184,-118,-66
-5,56,60,-25,-32,58,4,-181,-208,-184,-112,-66
6,61,54,-30,-21,58,16,-169,-202,-178,-106,-60
11,67,54,-35,-21,64,16,-169,-202,-172,-100,-60
11,67,54,-35,-21,64,4,-169,-202,-172,-100,-60
11,73,60,-35,-21,70,-8,-169,-202,-172,-100,-60
11,67,54,-35,-21,64,-14,-169,-196,-172,-106,-54
11,79,66,-41,-26,76,-20,-163,-190,-166,-106,-48
17,91,72,-53,-26,82,-26,-163,-184,-154,-100,-42
23,97,72,-53,-21,88,-26,-163,-184,-154,-94,-36
29,103,72,-65,-21,88,-37,-163,-184,-148,-88,-31
35,103,66,-65,-16,88,-42,-169,-184,-148,-88,-31
47,103,54,-71,-4,82,-48,-169,-184,-148,-82,-26
53,97,44,-71,8,70,-60,-169,-184,-148,-82,-31
53,91,38,-71,8,64,-66,-163,-178,-136,-76,-26
59,91,32,-71,14,64,-72,-163,-178,-136,-76,-20
59,91,32,-71,14,64,-78,-163,-172,-136,-70,-14
59,91,32,-71,14,64,-78,-169,-172,-136,-70,-14
59,91,32,-71,14,64,-84,-169,-178,-142,-76,-14
65,79,14,-71,26,48,-90,-187,-190,-148,-88,-20
65,73,8,-65,32,42,-96,-193,-196,-154,-94,-26
53,61,8,-53,26,36,-96,-205,-208,-160,-100,-26
47,56,8,-47,20,36,-96,-217,-220,-166,-112,-31
41,45,2,-41,20,24,-96,-223,-232,-178,-118,-36
41,33,-10,-35,26,12,-108,-229,-244,-190,-118,-42
41,15,-28,-30,32,-6,-120,-241,-256,-202,-130,-60
35,9,-28,-19,32,-6,-120,-241,-262,-214,-136,-66
23,-9,-34,-7,26,-18,-114,-241,-262,-214,-136,-72
11,-21,-34,5,20,-24,-108,-241,-262,-220,-142,-72
6,-27,-34,11,20,-30,-102,-241,-262,-220,-148,-78
1,-33,-34,11,14,-36,-102,-241,-262,-232,-154,-72
-5,-33,-28,17,8,-30,-102,-247,-268,-232,-160,-78
-11,-51,-40,29,14,-48,-96,-247,-274,-238,-166,-84
-11,-57,-46,29,14,-54,-96,-253,-274,-244,-172,-90
-17,-69,-52,41,14,-60,-96,-253,-274,-238,-166,-90
-17,-63,-46,41,14,-54,-96,-253,-274,-238,-166,-96
-23,-69,-46,41,8,-60,-96,-253,-274,-238,-172,-96
-29,-81,-52,53,8,-66,-96,-259,-286,-244,-178,-102
-29,-87,-58,59,14,-72,-96,-265,-286,-244,-190,-108
-29,-81,-52,53,8,-66,-90,-259,-286,-244,-190,-108
-29,-81,-52,53,8,-66,-90,-259,-292,-244,-190,-102
-29,-87,-58,59,14,-72,-90,-265,-292,-250,-196,-108
-29,-93,-64,59,14,-78,-90,-265,-298,-256,-196,-102
-29,-99,-70,65,20,-84,-90,-265,-304,-262,-196,-102
-23,-99,-76,59,26,-90,-90,-271,-304,-262,-190,-96
-17,-99,-82,59,32,-90,-102,-277,-298,-256,-184,-96
-17,-99,-82,59,32,-90,-102,-277,-298,-262,-178,-96
-17,-99,-82,59,32,-90,-102,-277,-298,-256,-178,-102
-17,-99,-82,59,32,-90,-96,-277,-292,-250,-172,-102
-17,-105,-88,59,32,-96,-96,-271,-292,-244,-172,-102
-17,-99,-82,59,32,-90,-96,-265,-286,-244,-166,-96
-17,-93,-76,53,26,-84,-90,-259,-280,-244,-166,-96
-17,-93,-76,53,26,-84,-90,-253,-280,-238,-166,-90
-17,-87,-70,53,26,-78,-84,-247,-274,-238,-166,-90
-35,-87,-52,59,8,-72,-72,-241,-262,-226,-154,-84
-47,-87,-40,65,-4,-66,-66,-229,-256,-214,-154,-78
-53,-87,-34,71,-10,-60,-60,-217,-238,-202,-142,-72
-53,-81,-28,65,-16,-54,-54,-199,-226,-190,-136,-66
-53,-81,-28,65,-16,-54,-48,-187,-214,-184,-124,-66
-59,-81,-22,65,-21,-54,-37,-169,-196,-172,-124,-66
-59,-81,-22,65,-21,-54,-32,-151,-178,-160,-118,-66
-71,-81,-10,71,-32,-48,-20,-127,-160,-148,-112,-66
-77,-69,8,71,-44,-30,4,-103,-142,-130,-100,-66
-77,-63,14,71,-44,-24,22,-73,-118,-112,-100,-66
-83,-63,20,71,-50,-24,40,-37,-88,-88,-88,-66
-89,-69,20,77,-56,-24,58,-9,-58,-64,-76,-72
-89,-81,8,83,-50,-36,70,21,-34,-40,-70,-78
-89,-87,2,89,-44,-42,82,45,-18,-22,-64,-84
-89,-105,-16,95,-38,-60,100,75,0,-17,-64,-90
-101,-123,-22,113,-38,-72,112,99,24,-12,-70,-102
-113,-141,-28,125,-44,-84,136,123,48,0,-70,-108
-107,-159,-52,131,-26,-108,154,159,66,6,-70,-126
-107,-183,-76,143,-16,-132,184,195,90,6,-76,-144
-113,-207,-94,161,-10,-150,220,243,114,24,-70,-156
-113,-237,-124,173,2,-180,262,297,150,48,-64,-156
-125,-255,-130,191,2,-192,298,357,192,78,-46,-144
-125,-267,-142,197,8,-204,334,405,234,114,-29,-132
-113,-273,-160,191,20,-216,376,471,282,156,0,-108
-107,-291,-184,197,38,-240,418,543,336,198,30,-96
-101,-309,-208,203,50,-258,466,627,414,258,72,-84
-89,-333,-244,209,74,-288,514,753,522,354,138,-48
-71,-339,-268,203,98,-306,562,897,666,474,228,-8
-53,-339,-286,197,116,-312,616,1053,822,624,342,64
-23,-339,-316,179,146,-330,658,1209,990,798,474,148
6,-351,-358,173,182,-354,676,1347,1170,984,618,238
53,-345,-400,143,224,-372,670,1485,1368,1188,762,322
113,-321,-436,101,272,-378,646,1623,1590,1416,918,418
167,-273,-442,53,302,-354,598,1737,1836,1674,1098,526
227,-195,-424,-13,326,-306,526,1839,2106,1968,1296,652
299,-87,-388,-101,344,-234,436,1953,2411,2292,1524,790
371,33,-340,-197,356,-150,346,2067,2735,2627,1752,928
431,133,-298,-275,368,-78,244,2157,3029,2945,1962,1048
491,241,-250,-359,374,0,142,2217,3299,3245,2166,1162
527,331,-196,-425,362,70,58,2271,3563,3533,2340,1270
551,397,-154,-467,356,124,-14,2319,3815,3809,2501,1360
551,427,-124,-485,338,154,-60,2319,4013,4019,2597,1408
533,421,-112,-473,326,154,-66,2283,4115,4097,2603,1402
491,391,-100,-437,296,148,-66,2157,4067,4013,2501,1336
431,349,-82,-383,260,136,-54,1971,3881,3785,2304,1210
347,283,-64,-311,206,112,-26,1761,3623,3449,2028,1024
257,217,-40,-233,152,88,16,1503,3245,3017,1698,808
143,145,2,-137,74,76,64,1191,2747,2489,1332,580
35,67,32,-47,2,53,100,873,2208,1950,978,370
-47,-9,38,23,-44,12,124,579,1656,1434,678,196
-113,-75,38,95,-74,-18,136,291,1098,936,402,58
-167,-135,32,149,-98,-54,154,39,588,510,186,-36
-191,-171,20,179,-104,-78,166,-127,246,222,42,-102
-191,-183,8,185,-98,-90,166,-211,42,42,-46,-132
-191,-165,26,173,-110,-72,160,-259,-70,-52,-100,-150
-197,-129,66,161,-134,-30,154,-265,-118,-94,-112,-138
-197,-99,96,149,-146,0,142,-271,-142,-118,-118,-138
-185,-75,108,131,-146,18,118,-277,-154,-136,-124,-132
-167,-51,114,107,-140,30,88,-271,-166,-148,-130,-120
-155,-33,120,89,-140,42,64,-259,-172,-154,-130,-108
-137,-21,114,77,-128,48,46,-247,-178,-154,-130,-96
-119,-21,96,65,-110,36,40,-229,-190,-166,-124,-84
-107,-21,84,59,-98,30,34,-211,-202,-172,-124,-66
-95,-15,78,53,-86,30,28,-193,-208,-178,-118,-66
-83,-15,66,47,-74,24,16,-187,-214,-190,-124,-66
-77,-21,54,47,-68,18,4,-181,-220,-196,-130,-66
-71,-21,49,41,-62,12,-8,-181,-226,-202,-130,-66
-59,-21,38,35,-50,6,-20,-175,-232,-208,-136,-66
-47,-21,26,29,-38,0,-26,-175,-244,-220,-142,-72
-47,-27,20,35,-32,-6,-32,-169,-256,-232,-148,-66
-47,-39,8,41,-26,-18,-37,-169,-262,-244,-154,-66
-53,-39,14,47,-32,-12,-37,-163,-268,-250,-160,-66
-47,-39,8,41,-26,-18,-37,-157,-274,-256,-160,-60
-41,-33,8,35,-26,-12,-37,-151,-280,-256,-160,-60
-35,-39,-4,35,-16,-24,-37,-151,-280,-256,-160,-60
-35,-39,-4,35,-16,-24,-42,-157,-286,-262,-166,-60
-35,-45,-10,35,-16,-30,-42,-163,-286,-262,-166,-66
-35,-45,-10,35,-16,-30,-48,-163,-292,-268,-172,-66
-41,-51,-10,47,-16,-30,-48,-169,-292,-274,-172,-66
-35,-51,-16,41,-10,-36,-48,-163,-286,-274,-172,-66
-35,-45,-10,35,-16,-30,-42,-163,-286,-280,-166,-60
-29,-45,-16,35,-10,-30,-42,-163,-286,-274,-166,-54
-29,-45,-16,35,-10,-30,-42,-163,-286,-274,-160,-54
-35,-45,-10,35,-16,-30,-42,-163,-286,-274,-160,-54
-29,-51,-22,41,-4,-36,-42,-157,-292,-280,-166,-54
-23,-51,-28,35,2,-42,-42,-151,-286,-280,-166,-54
-17,-45,-28,29,2,-36,-42,-151,-286,-274,-166,-54
-17,-51,-34,35,8,-42,-42,-145,-286,-268,-160,-48
-11,-51,-40,29,14,-48,-42,-139,-280,-262,-154,-42
-11,-51,-40,29,14,-48,-42,-145,-274,-262,-148,-36
-17,-51,-34,35,8,-42,-48,-145,-274,-256,-148,-42
-17,-45,-28,29,2,-36,-48,-145,-268,-256,-148,-42
-23,-45,-22,29,-4,-36,-54,-145,-268,-256,-148,-42
-23,-39,-16,29,-4,-30,-54,-145,-262,-256,-142,-42
-23,-39,-16,29,-4,-30,-54,-139,-262,-256,-142,-36
-23,-39,-16,29,-4,-30,-54,-139,-262,-256,-142,-36
-23,-39,-16,29,-4,-30,-54,-139,-262,-256,-142,-31
-17,-33,-16,23,-4,-24,-60,-139,-262,-250,-136,-31
-17,-33,-16,23,-4,-24,-66,-139,-256,-250,-136,-31
-11,-27,-16,17,2,-24,-66,-139,-256,-250,-136,-31
-5,-21,-16,11,2,-18,-66,-139,-250,-250,-130,-26
-5,-15,-10,11,2,-12,-66,-139,-250,-250,-130,-26
-5,-15,-10,11,2,-12,-66,-133,-250,-250,-130,-26
-17,-9,8,11,-16,0,-66,-133,-244,-250,-124,-20
-17,-3,14,11,-16,6,-66,-133,-244,-250,-124,-26
-5,-3,2,5,-4,0,-66,-133,-244,-250,-130,-26
1,3,2,-7,-4,0,-66,-127,-250,-250,-130,-26
1,15,14,-13,-10,12,-66,-121,-250,-250,-124,-26
-5,21,26,-7,-16,24,-60,-115,-244,-250,-124,-26
-11,21,32,-7,-21,24,-54,-115,-244,-250,-124,-26
-11,27,38,-13,-26,30,-54,-109,-244,-250,-124,-31
-5,33,38,-13,-21,36,-60,-109,-238,-250,-124,-31
1,39,38,-25,-21,36,-60,-103,-232,-250,-124,-31
1,39,38,-25,-21,36,-60,-97,-232,-250,-124,-31
1,39,38,-25,-21,36,-60,-91,-226,-244,-124,-26
-5,39,44,-19,-26,42,-60,-91,-226,-244,-130,-26
-5,39,44,-19,-26,42,-60,-85,-226,-232,-130,-26
-5,33,38,-13,-21,36,-60,-85,-226,-226,-130,-20
-5,33,38,-13,-21,36,-54,-79,-220,-220,-130,-20
1,33,32,-19,-16,30,-54,-73,-220,-220,-130,-14
1,39,38,-25,-21,36,-54,-67,-214,-220,-124,-14
1,39,38,-25,-21,36,-54,-61,-208,-214,-118,-8
1,33,32,-19,-16,30,-48,-55,-202,-214,-112,-8
6,27,20,-19,-10,24,-48,-49,-196,-208,-106,-2
6,27,20,-19,-10,24,-42,-43,-190,-202,-100,4
17,27,8,-25,2,18,-42,-37,-184,-196,-100,4
6,21,14,-13,-4,18,-48,-27,-178,-184,-94,10
6,21,14,-13,-4,18,-48,-21,-172,-178,-94,16
11,21,8,-13,2,18,-54,-9,-166,-178,-88,16
11,21,8,-13,2,18,-54,-3,-166,-172,-88,22
11,27,14,-19,-4,24,-48,3,-154,-172,-82,28
17,33,14,-25,2,24,-42,15,-148,-166,-70,34
17,33,14,-25,2,24,-37,21,-136,-154,-64,40
23,33,8,-25,8,24,-37,33,-130,-148,-58,46
23,33,8,-25,8,24,-37,39,-124,-142,-52,52
23,39,14,-30,2,30,-32,45,-118,-136,-46,58
23,45,20,-30,2,36,-32,57,-112,-130,-34,64
29,51,20,-41,2,36,-32,69,-106,-124,-29,76
35,51,14,-41,8,36,-32,75,-94,-112,-29,88
41,56,14,-47,14,36,-32,87,-88,-106,-18,100
41,61,20,-47,14,42,-32,99,-82,-94,-6,106
41,67,26,-53,8,48,-32,111,-76,-82,6,112
47,73,26,-53,14,53,-26,123,-64,-64,18,124
53,79,26,-65,14,53,-26,129,-58,-58,30,130
65,91,26,-77,20,58,-32,135,-52,-46,42,136
65,109,44,-83,14,76,-26,141,-34,-34,54,142
71,121,49,-89,14,88,-32,153,-29,-28,66,154
65,133,66,-95,2,100,-32,165,-18,-22,72,166
65,145,78,-101,-4,112,-37,171,-6,-17,78,172
65,157,90,-107,-10,124,-42,183,12,-6,90,178
71,175,102,-119,-16,142,-42,195,24,6,102,190
71,187,114,-125,-21,154,-42,201,30,24,108,190
77,205,126,-137,-21,166,-42,213,42,36,126,202
89,217,126,-149,-16,172,-42,213,48,48,138,208
95,229,132,-155,-16,184,-37,225,60,60,144,214
89,229,138,-155,-21,184,-37,231,72,78,156,226
89,241,150,-161,-26,196,-37,243,90,90,162,232
89,259,168,-173,-38,214,-42,249,102,102,174,238
89,277,186,-179,-44,232,-48,255,114,108,180,244
95,295,198,-191,-50,250,-54,267,132,126,192,244
107,313,204,-203,-44,262,-54,279,144,138,198,250
107,325,216,-209,-50,274,-54,285,156,150,210,256
89,331,240,-209,-74,286,-48,297,174,174,222,268
89,331,240,-209,-74,286,-48,309,192,186,234,274
89,331,240,-209,-74,286,-48,315,198,198,240,280
95,331,234,-209,-68,286,-42,315,204,216,246,280
101,337,234,-215,-62,286,-42,321,222,228,252,280
101,343,240,-221,-68,292,-42,327,234,240,258,280
101,349,246,-221,-68,298,-37,333,252,246,264,280
101,355,252,-227,-74,304,-37,339,264,252,264,280
101,361,258,-227,-74,310,-32,339,276,264,270,280
95,361,264,-221,-80,316,-32,339,282,276,276,280
95,355,258,-221,-80,310,-32,333,288,282,276,274
101,349,246,-221,-68,298,-32,327,294,288,270,274
95,343,246,-215,-74,298,-32,327,300,288,270,268
95,343,246,-215,-74,298,-26,321,300,294,270,262
95,343,246,-215,-74,298,-26,315,300,288,264,256
95,337,240,-209,-68,292,-26,303,300,282,252,244
89,325,234,-203,-68,280,-20,285,294,276,246,232
77,313,234,-191,-74,274,-26,273,282,264,228,220
65,301,234,-179,-80,268,-20,261,270,258,216,208
53,289,234,-167,-86,262,-20,243,258,240,198,190
47,271,222,-155,-86,250,-14,225,240,222,180,178
41,265,222,-149,-86,244,-14,207,228,204,168,166
41,253,210,-143,-80,232,-14,189,210,186,156,154
41,241,198,-137,-74,220,-14,171,192,168,132,136
47,229,180,-131,-62,208,-14,153,162,144,108,124
29,217,186,-119,-74,202,-14,135,144,126,96,112
23,211,186,-113,-80,202,-14,117,120,114,78,100
17,205,186,-107,-80,196,-14,93,96,90,54,82
17,193,174,-101,-74,184,-20,75,78,66,36,64
17,187,168,-101,-74,178,-26,51,54,42,24,46
11,169,156,-83,-68,166,-26,33,30,24,6,28
6,151,144,-77,-68,148,-26,15,12,6,-6,22
-5,139,144,-65,-74,142,-37,3,-6,-12,-18,10
-5,127,132,-59,-68,130,-37,-15,-24,-28,-29,-2
-5,121,126,-53,-62,124,-42,-32,-40,-52,-40,-14
-11,115,126,-53,-68,118,-42,-43,-58,-70,-58,-20
-23,109,132,-41,-74,118,-42,-55,-76,-82,-64,-26
-29,109,138,-35,-80,124,-42,-73,-94,-94,-76,-31
-29,97,126,-30,-74,112,-42,-85,-106,-112,-88,-42
-41,85,126,-19,-80,106,-42,-97,-118,-124,-100,-48
-41,73,114,-13,-74,94,-42,-103,-130,-136,-106,-54
-41,73,114,-13,-74,94,-42,-109,-136,-142,-118,-60
-41,61,102,-7,-68,82,-48,-121,-148,-154,-124,-66
-47,56,102,-7,-74,76,-48,-127,-154,-154,-130,-66
-47,56,102,-7,-74,76,-48,-133,-160,-160,-136,-72
-47,56,102,-7,-74,76,-48,-139,-172,-166,-136,-72
-47,45,90,-1,-68,64,-48,-145,-178,-172,-142,-78
-47,39,84,-1,-68,58,-42,-145,-178,-172,-148,-78
-53,33,84,11,-68,58,-42,-151,-184,-178,-148,-84
-53,27,78,11,-68,53,-42,-151,-190,-184,-154,-90
-47,21,66,11,-56,42,-42,-157,-196,-190,-154,-90
-53,9,60,23,-56,36,-42,-157,-196,-196,-148,-90
-53,3,54,23,-56,30,-42,-157,-196,-196,-148,-90
-59,-3,54,29,-56,24,-37,-157,-196,-196,-148,-90
-59,-9,49,29,-56,18,-42,-157,-190,-196,-148,-84
-53,-9,44,29,-50,18,-42,-163,-190,-196,-154,-90
-47,-15,32,29,-38,6,-42,-163,-190,-196,-154,-90
-53,-21,32,35,-44,6,-37,-163,-196,-196,-154,-96
-53,-27,26,41,-38,0,-37,-157,-196,-196,-154,-96
-59,-39,20,47,-38,-12,-32,-157,-196,-190,-148,-96
-59,-45,14,47,-38,-18,-32,-151,-190,-190,-142,-90
-59,-51,8,53,-32,-24,-26,-151,-184,-184,-136,-90
-53,-51,2,53,-26,-24,-26,-145,-178,-184,-136,-84
-53,-57,-4,53,-26,-30,-26,-145,-178,-184,-130,-84
-53,-63,-10,59,-21,-36,-26,-145,-178,-184,-136,-78
-53,-69,-16,59,-21,-42,-26,-145,-178,-184,-136,-78
-53,-69,-16,59,-21,-42,-26,-139,-172,-184,-136,-78
-59,-63,-4,59,-26,-36,-20,-139,-166,-178,-136,-78
-59,-75,-16,65,-21,-48,-14,-139,-166,-178,-142,-84
-53,-75,-22,65,-16,-48,-14,-139,-166,-178,-136,-84
-53,-75,-22,65,-16,-48,-14,-133,-166,-178,-130,-78
-53,-81,-28,65,-16,-54,-14,-133,-166,-172,-124,-78
-59,-81,-22,65,-21,-54,-20,-133,-166,-178,-124,-84
-59,-87,-28,71,-16,-60,-20,-139,-166,-178,-124,-84
-59,-87,-28,71,-16,-60,-14,-139,-160,-178,-124,-78
-53,-87,-34,71,-10,-60,-14,-139,-160,-178,-124,-78
-53,-87,-34,71,-10,-60,-14,-139,-154,-172,-124,-72
-59,-93,-34,71,-16,-66,-8,-133,-154,-172,-124,-72
-53,-93,-40,71,-10,-66,-8,-133,-154,-172,-124,-78
-53,-93,-40,71,-10,-66,-8,-127,-154,-172,-118,-72
-59,-93,-34,71,-16,-66,-8,-133,-154,-172,-124,-78
-53,-99,-46,77,-4,-72,-8,-127,-148,-172,-124,-72
-53,-93,-40,71,-10,-66,-14,-133,-154,-172,-124,-72
-59,-99,-40,77,-10,-72,-8,-133,-154,-166,-124,-72
-59,-105,-46,77,-10,-78,-2,-133,-154,-166,-124,-66
-65,-105,-40,83,-16,-72,-2,-133,-154,-166,-118,-60
-65,-105,-40,83,-16,-72,-2,-139,-154,-172,-118,-60
-59,-105,-46,77,-10,-78,4,-139,-154,-172,-118,-60
-59,-105,-46,77,-10,-78,-2,-139,-154,-172,-118,-60
-53,-93,-40,71,-10,-66,-2,-145,-154,-172,-124,-60
-53,-87,-34,71,-10,-60,-2,-145,-154,-172,-118,-60
-53,-87,-34,71,-10,-60,-8,-145,-154,-172,-118,-60
-53,-87,-34,71,-10,-60,-8,-145,-160,-166,-124,-60
-47,-81,-34,59,-10,-60,-8,-145,-166,-166,-124,-60
-47,-81,-34,59,-10,-60,-14,-139,-166,-166,-124,-54
-59,-87,-28,71,-16,-60,-14,-139,-172,-172,-130,-60
-65,-87,-22,77,-21,-54,-14,-139,-166,-172,-130,-60
-65,-81,-16,71,-26,-48,-14,-145,-166,-172,-136,-60
-59,-69,-10,59,-26,-42,-26,-151,-172,-172,-130,-54
-59,-69,-10,59,-26,-42,-26,-151,-172,-172,-130,-54
-53,-69,-16,59,-21,-42,-26,-151,-172,-172,-124,-54
-53,-69,-16,59,-21,-42,-32,-151,-172,-172,-118,-48
-53,-63,-10,59,-21,-36,-32,-151,-172,-172,-112,-48
-47,-63,-16,53,-16,-42,-26,-151,-172,-172,-118,-48
-47,-57,-10,47,-21,-36,-26,-151,-172,-172,-118,-42
-41,-51,-10,47,-16,-30,-26,-151,-178,-178,-118,-42
-35,-45,-10,35,-16,-30,-32,-151,-184,-172,-124,-42
-29,-33,-4,29,-16,-18,-37,-151,-184,-178,-124,-42
-29,-33,-4,29,-16,-18,-37,-157,-184,-178,-124,-42
-35,-33,2,29,-21,-18,-37,-163,-184,-178,-130,-42
-41,-39,2,41,-21,-18,-42,-163,-184,-178,-124,-42
-41,-45,-4,41,-21,-24,-42,-169,-190,-178,-130,-48
-41,-45,-4,41,-21,-24,-48,-169,-190,-184,-124,-48
-41,-39,2,41,-21,-18,-42,-169,-196,-184,-124,-48
-41,-39,2,41,-21,-18,-42,-169,-196,-184,-124,-42
-41,-39,2,41,-21,-18,-42,-163,-196,-184,-124,-36
-41,-39,2,41,-21,-18,-42,-169,-196,-184,-118,-36
-41,-39,2,41,-21,-18,-42,-169,-196,-184,-118,-36
-41,-33,8,35,-26,-12,-42,-169,-196,-184,-118,-36
-35,-33,2,29,-21,-18,-48,-169,-196,-184,-118,-36
-35,-33,2,29,-21,-18,-54,-169,-202,-184,-118,-36
-35,-21,14,23,-26,-6,-54,-175,-208,-190,-118,-42
-41,-27,14,35,-26,-6,-54,-175,-214,-190,-118,-42
-41,-33,8,35,-26,-12,-54,-175,-208,-196,-118,-42
-41,-27,14,35,-26,-6,-54,-181,-208,-196,-118,-42
-47,-33,14,35,-32,-12,-54,-187,-214,-202,-118,-42
-47,-39,8,41,-26,-18,-66,-193,-214,-208,-124,-48
-41,-33,8,35,-26,-12,-66,-193,-214,-208,-124,-48
-35,-21,14,23,-26,-6,-60,-181,-208,-202,-118,-42
-47,-21,26,29,-38,0,-60,-181,-208,-202,-112,-36
-47,-21,26,29,-38,0,-60,-181,-208,-202,-112,-42
-47,-27,20,35,-32,-6,-60,-181,-214,-202,-112,-42
-41,-21,20,29,-32,0,-60,-187,-214,-196,-112,-42
-35,-15,20,23,-26,0,-54,-193,-214,-202,-118,-36
-29,-15,14,23,-21,0,-54,-199,-220,-208,-124,-36
-35,-15,20,23,-26,0,-54,-205,-220,-208,-124,-36
-35,-27,8,29,-21,-12,-48,-211,-220,-208,-124,-36
-41,-33,8,35,-26,-12,-54,-211,-220,-214,-124,-42
-35,-27,8,29,-21,-12,-54,-211,-226,-214,-124,-42
-35,-27,8,29,-21,-12,-60,-205,-226,-214,-118,-42
-41,-27,14,35,-26,-6,-66,-205,-226,-214,-118,-48
-41,-33,8,35,-26,-12,-66,-211,-232,-220,-118,-54
-47,-33,14,35,-32,-12,-66,-211,-238,-220,-124,-60
-41,-33,8,35,-26,-12,-66,-211,-238,-220,-124,-60
-35,-27,8,29,-21,-12,-66,-211,-238,-226,-124,-60
-29,-21,8,23,-21,-6,-66,-211,-238,-226,-130,-60
-29,-15,14,23,-21,0,-66,-217,-244,-226,-130,-60
-23,-15,8,17,-16,-6,-66,-217,-244,-226,-136,-60
-23,-15,8,17,-16,-6,-66,-217,-238,-226,-136,-60
-29,-21,8,23,-21,-6,-66,-217,-238,-226,-136,-60
-35,-27,8,29,-21,-12,-66,-217,-244,-226,-130,-60
-35,-33,2,29,-21,-18,-66,-217,-244,-220,-130,-60
-41,-33,8,35,-26,-12,-66,-217,-244,-220,-130,-60
-41,-39,2,41,-21,-18,-60,-217,-244,-220,-136,-60
-35,-33,2,29,-21,-18,-60,-217,-244,-220,-136,-60
-35,-33,2,29,-21,-18,-66,-217,-244,-220,-136,-54
-29,-33,-4,29,-16,-18,-60,-223,-244,-220,-136,-60
-35,-33,2,29,-21,-18,-60,-223,-244,-220,-142,-60
-35,-33,2,29,-21,-18,-60,-223,-244,-226,-136,-54
-41,-33,8,35,-26,-12,-60,-223,-244,-226,-136,-60
-41,-33,8,35,-26,-12,-60,-229,-244,-226,-136,-60
-47,-33,14,35,-32,-12,-66,-229,-244,-226,-142,-66
-47,-33,14,35,-32,-12,-66,-229,-244,-226,-142,-66
-53,-39,14,47,-32,-12,-60,-229,-244,-226,-142,-72
-53,-45,8,47,-32,-18,-60,-229,-250,-226,-148,-72
-41,-45,-4,41,-21,-24,-60,-223,-250,-226,-148,-72
-35,-45,-10,35,-16,-30,-60,-223,-250,-226,-148,-78
-41,-45,-4,41,-21,-24,-60,-229,-250,-232,-148,-78
-41,-45,-4,41,-21,-24,-60,-229,-250,-238,-148,-72
-47,-57,-10,47,-21,-36,-60,-229,-244,-238,-148,-72
-47,-57,-10,47,-21,-36,-60,-229,-244,-232,-142,-66
-47,-57,-10,47,-21,-36,-60,-229,-244,-232,-142,-60
-47,-63,-16,53,-16,-42,-60,-229,-244,-226,-136,-54
-47,-63,-16,53,-16,-42,-54,-235,-244,-226,-136,-54
-41,-57,-16,47,-16,-36,-54,-235,-244,-226,-130,-54
-29,-51,-22,41,-4,-36,-54,-235,-244,-226,-136,-54
-29,-45,-16,35,-10,-30,-60,-235,-244,-232,-136,-60
-29,-45,-16,35,-10,-30,-60,-235,-244,-232,-136,-60
-35,-39,-4,35,-16,-24,-60,-235,-244,-238,-136,-66
-41,-33,8,35,-26,-12,-66,-235,-250,-238,-136,-72
-41,-27,14,35,-26,-6,-72,-235,-250,-232,-136,-78
-41,-27,14,35,-26,-6,-66,-235,-250,-232,-136,-78
-35,-27,8,29,-21,-12,-66,-235,-250,-232,-136,-78
-29,-27,2,29,-16,-12,-66,-241,-256,-238,-142,-78
-35,-27,8,29,-21,-12,-60,-241,-250,-238,-142,-72
-41,-33,8,35,-26,-12,-60,-241,-250,-238,-142,-72
-35,-33,2,29,-21,-18,-66,-241,-250,-244,-148,-78
-29,-21,8,23,-21,-6,-72,-241,-256,-244,-154,-78
-29,-15,14,23,-21,0,-72,-241,-256,-244,-160,-84
-35,-15,20,23,-26,0,-78,-241,-256,-244,-160,-84
-29,-15,14,23,-21,0,-78,-241,-256,-244,-160,-84
-29,-15,14,23,-21,0,-72,-241,-256,-244,-160,-84
-29,-9,20,17,-26,6,-72,-241,-256,-238,-160,-78
-29,-9,20,17,-26,6,-72,-247,-256,-238,-160,-84
-35,-9,26,17,-32,6,-72,-247,-262,-238,-166,-84
-35,-3,32,17,-32,12,-72,-247,-268,-244,-166,-84
-29,3,32,11,-32,18,-66,-247,-262,-244,-172,-84
-23,9,32,5,-26,18,-66,-247,-262,-250,-172,-90
-23,9,32,5,-26,18,-72,-247,-262,-250,-178,-96
-35,9,44,11,-38,24,-78,-241,-262,-250,-172,-90
-35,9,44,11,-38,24,-78,-241,-262,-250,-172,-90
-23,15,38,-1,-32,24,-78,-247,-268,-250,-178,-96
-17,21,38,-1,-26,30,-90,-247,-274,-256,-178,-102
-17,33,49,-7,-32,42,-90,-247,-280,-262,-178,-102
-11,33,44,-13,-26,36,-90,-247,-280,-262,-178,-102
-11,33,44,-13,-26,36,-96,-247,-280,-268,-178,-96
-5,33,38,-13,-21,36,-90,-253,-280,-268,-178,-96
-5,33,38,-13,-21,36,-84,-253,-274,-262,-172,-90
1,39,38,-25,-21,36,-78,-247,-268,-256,-166,-90
1,45,44,-25,-21,42,-72,-241,-262,-256,-160,-84
1,51,49,-30,-26,48,-66,-241,-250,-250,-160,-84
6,61,54,-30,-21,58,-66,-235,-250,-250,-154,-84
6,67,60,-35,-26,64,-60,-223,-244,-244,-154,-78
6,73,66,-35,-26,70,-48,-217,-238,-238,-148,-78
6,79,72,-41,-32,76,-37,-205,-232,-226,-142,-72
6,85,78,-41,-32,82,-37,-199,-220,-220,-142,-66
6,91,84,-47,-38,88,-32,-193,-214,-214,-142,-60
6,97,90,-47,-38,94,-20,-193,-214,-208,-142,-60
6,103,96,-53,-44,100,-20,-193,-214,-208,-142,-60
11,115,102,-59,-44,112,-20,-193,-208,-202,-142,-66
11,121,108,-59,-44,118,-20,-193,-202,-202,-136,-66
11,127,114,-65,-50,124,-14,-181,-196,-196,-130,-60
17,139,120,-77,-50,130,-20,-181,-196,-196,-124,-60
23,133,108,-71,-38,124,-26,-175,-190,-196,-118,-54
29,133,102,-77,-32,118,-26,-175,-190,-196,-118,-48
35,127,90,-77,-26,112,-32,-169,-184,-190,-112,-48
35,127,90,-77,-26,112,-37,-169,-178,-184,-106,-42
41,133,90,-83,-21,112,-37,-169,-172,-178,-106,-36
47,133,84,-83,-16,112,-37,-163,-166,-172,-100,-26
59,133,72,-89,-4,106,-48,-163,-166,-172,-94,-26
59,127,66,-89,-4,100,-60,-169,-166,-172,-88,-26
59,127,66,-89,-4,100,-66,-163,-166,-166,-88,-20
65,127,60,-95,2,94,-72,-163,-160,-160,-76,-14
83,133,49,-101,20,94,-78,-163,-160,-160,-70,-8
83,133,49,-101,20,94,-90,-157,-148,-160,-70,-8
83,139,54,-107,14,100,-96,-157,-154,-160,-70,-8
77,127,49,-101,14,88,-96,-169,-160,-166,-70,-8
77,115,38,-95,20,76,-102,-181,-172,-172,-76,-14
71,103,32,-83,20,70,-102,-187,-184,-178,-82,-20
71,91,20,-77,26,58,-108,-199,-190,-184,-82,-20
65,85,20,-71,26,53,-108,-205,-202,-190,-88,-26
59,73,14,-59,26,48,-102,-211,-202,-196,-94,-26
65,67,2,-65,32,36,-102,-211,-208,-202,-100,-31
65,56,-10,-59,38,24,-102,-217,-220,-214,-112,-36
59,45,-16,-47,38,18,-96,-223,-226,-220,-124,-48
53,33,-22,-41,38,6,-96,-229,-238,-226,-136,-60
47,21,-28,-30,38,0,-90,-235,-238,-232,-142,-66
35,15,-22,-25,26,0,-84,-235,-238,-232,-148,-72
23,9,-16,-13,20,0,-84,-241,-244,-238,-148,-72
17,-3,-22,-7,20,-12,-90,-241,-250,-244,-148,-84
11,-3,-16,-1,14,-6,-96,-247,-256,-244,-154,-90
11,-9,-22,-1,14,-12,-96,-241,-256,-244,-154,-90
11,-15,-28,5,20,-18,-90,-247,-256,-256,-154,-96
11,-15,-28,5,20,-18,-84,-247,-262,-256,-154,-96
11,-21,-34,5,20,-24,-78,-247,-262,-256,-160,-96
11,-33,-46,11,26,-36,-84,-247,-262,-262,-166,-102
11,-39,-52,17,32,-42,-84,-253,-268,-262,-172,-108
6,-39,-46,17,26,-42,-84,-253,-274,-268,-178,-114
11,-45,-58,17,32,-48,-84,-259,-280,-274,-178,-114
17,-39,-58,11,38,-48,-90,-259,-280,-274,-178,-114
11,-45,-58,17,32,-48,-84,-259,-280,-274,-172,-108
11,-45,-58,17,32,-48,-90,-259,-280,-274,-178,-108
11,-51,-64,23,38,-54,-96,-265,-280,-280,-178,-108
11,-57,-70,23,38,-60,-90,-265,-280,-274,-178,-108
11,-51,-64,23,38,-54,-90,-265,-280,-274,-178,-114
11,-51,-64,23,38,-54,-90,-259,-274,-262,-178,-102
11,-51,-64,23,38,-54,-90,-259,-274,-262,-178,-102
11,-51,-64,23,38,-54,-84,-253,-280,-256,-178,-102
11,-51,-64,23,38,-54,-84,-247,-280,-250,-172,-96
11,-51,-64,23,38,-54,-84,-247,-274,-250,-178,-96
17,-45,-64,11,38,-54,-78,-241,-274,-244,-178,-96
17,-39,-58,11,38,-48,-78,-235,-268,-244,-172,-90
11,-33,-46,11,26,-36,-72,-229,-262,-244,-166,-90
6,-27,-34,11,20,-30,-60,-223,-256,-238,-160,-90
1,-27,-28,11,14,-30,-54,-211,-244,-226,-148,-84
-5,-21,-16,11,2,-18,-48,-205,-232,-220,-142,-84
-5,-21,-16,11,2,-18,-42,-199,-220,-208,-136,-90
-5,-21,-16,11,2,-18,-37,-187,-202,-196,-136,-90
-23,-27,-4,23,-10,-18,-32,-175,-190,-184,-130,-96
-29,-15,14,23,-21,0,-20,-151,-172,-172,-124,-96
-29,-9,20,17,-26,6,-8,-127,-148,-160,-118,-90
-29,-3,26,17,-26,12,4,-97,-124,-142,-112,-90
-41,-9,32,23,-38,12,22,-73,-106,-124,-100,-96
-53,-15,38,35,-44,12,40,-43,-82,-106,-94,-102
-47,-21,26,29,-38,0,58,-21,-58,-88,-88,-108
-47,-21,26,29,-38,0,76,3,-34,-70,-82,-114
-41,-33,8,35,-26,-12,94,39,-12,-52,-76,-120
-41,-51,-10,47,-16,-30,118,69,12,-40,-82,-132
-47,-81,-34,59,-10,-60,136,99,36,-22,-76,-144
-41,-105,-64,71,8,-84,160,135,60,-17,-82,-150
-41,-135,-94,89,26,-114,190,183,84,-12,-82,-162
-35,-153,-118,89,38,-138,226,231,114,6,-76,-168
-41,-165,-124,101,38,-144,262,279,150,30,-70,-174
-47,-183,-136,113,44,-162,304,327,186,54,-52,-168
-53,-189,-136,119,38,-162,346,375,228,90,-29,-150
-53,-195,-142,125,44,-168,382,423,270,126,0,-138
-47,-219,-172,131,62,-198,418,495,330,174,30,-132
-41,-255,-214,149,86,-234,466,579,408,234,72,-120
-23,-285,-262,149,116,-276,508,711,522,330,132,-90
1,-297,-298,143,146,-300,562,879,666,456,222,-36
11,-297,-310,143,158,-300,616,1053,822,606,336,34
35,-297,-334,131,182,-312,652,1203,990,774,468,124
71,-285,-358,107,212,-318,670,1341,1170,966,606,220
125,-273,-400,71,260,-336,670,1467,1362,1170,756,310
185,-237,-424,23,302,-330,658,1599,1590,1404,924,406
239,-183,-424,-25,332,-300,616,1707,1836,1662,1104,502
305,-111,-418,-95,362,-264,550,1815,2118,1962,1308,622
371,-21,-394,-173,380,-204,466,1941,2423,2286,1530,760
437,79,-358,-257,398,-138,376,2079,2753,2633,1764,904
497,187,-310,-341,404,-60,262,2181,3053,2951,1974,1036
557,295,-262,-425,410,18,154,2247,3329,3251,2172,1162
605,403,-202,-503,404,100,58,2307,3593,3545,2358,1276
617,475,-142,-545,380,166,-14,2343,3851,3821,2525,1372
617,517,-100,-563,362,208,-60,2337,4049,4037,2627,1432
611,517,-94,-557,356,214,-72,2277,4151,4127,2639,1414
575,487,-88,-527,332,202,-78,2145,4103,4049,2543,1330
509,433,-76,-467,296,178,-66,1953,3935,3827,2352,1192
431,367,-64,-395,248,154,-37,1755,3671,3497,2076,1006
335,289,-46,-305,194,124,-8,1509,3293,3071,1746,790
221,211,-10,-215,116,100,34,1203,2795,2543,1380,568
119,133,14,-119,56,76,70,897,2250,1992,1014,364
41,61,20,-47,14,42,94,597,1698,1470,696,202
-23,-9,14,11,-21,0,118,291,1116,960,420,64
-89,-69,20,77,-56,-24,142,9,588,510,192,-48
-119,-105,14,107,-68,-48,154,-175,228,210,36,-120
-137,-123,14,131,-74,-54,160,-277,18,30,-58,-168
-143,-117,26,125,-86,-48,160,-325,-88,-70,-106,-192
-149,-105,44,125,-98,-30,148,-331,-142,-124,-136,-192
-143,-75,66,107,-104,-6,124,-325,-166,-148,-142,-186
-125,-45,78,83,-104,18,94,-319,-178,-166,-154,-180
-107,-21,84,59,-98,30,64,-307,-190,-178,-154,-168
-107,-3,102,53,-104,48,46,-295,-196,-172,-142,-150
-95,9,102,41,-98,53,22,-283,-202,-178,-142,-132
-77,27,102,23,-92,64,22,-265,-208,-190,-136,-108
-47,33,78,5,-62,53,16,-247,-208,-196,-136,-90
-29,33,60,-1,-44,48,16,-235,-214,-208,-136,-90
-23,27,49,-7,-38,36,10,-223,-226,-220,-142,-90
-17,21,38,-1,-26,30,4,-211,-238,-226,-148,-90
-17,15,32,-1,-26,24,-2,-205,-244,-232,-142,-96
-11,15,26,-7,-21,18,-14,-205,-250,-232,-142,-96
-5,15,20,-7,-16,18,-20,-199,-250,-238,-148,-96
1,9,8,-7,-4,6,-32,-199,-256,-244,-148,-96
1,3,2,-7,-4,0,-32,-193,-262,-250,-154,-96
1,3,2,-7,-4,0,-37,-187,-268,-262,-154,-90
6,-3,-10,-1,8,-6,-37,-187,-280,-268,-160,-90
6,-9,-16,-1,8,-12,-42,-193,-292,-280,-166,-96
11,-9,-22,-1,14,-12,-42,-193,-298,-286,-166,-90
23,-3,-28,-7,26,-12,-37,-193,-298,-286,-172,-90
29,-3,-34,-13,32,-18,-42,-187,-298,-292,-178,-96
23,-3,-28,-7,26,-12,-42,-187,-298,-292,-184,-96
23,-3,-28,-7,26,-12,-48,-187,-292,-292,-178,-96
11,-3,-16,-1,14,-6,-48,-187,-292,-292,-172,-90
11,-3,-16,-1,14,-6,-48,-187,-292,-292,-172,-90
11,-9,-22,-1,14,-12,-54,-193,-292,-292,-178,-90
11,-15,-28,5,20,-18,-54,-187,-298,-298,-178,-84
23,-3,-28,-7,26,-12,-48,-181,-292,-292,-178,-78
23,-9,-34,-7,26,-18,-48,-175,-292,-292,-178,-78
23,-9,-34,-7,26,-18,-42,-175,-292,-292,-178,-78
17,-15,-34,-1,26,-24,-42,-169,-292,-292,-184,-78
17,-15,-34,-1,26,-24,-42,-169,-286,-292,-184,-84
17,-21,-40,-1,26,-30,-48,-169,-286,-286,-178,-84
11,-15,-28,5,20,-18,-48,-169,-280,-286,-178,-84
11,-9,-22,-1,14,-12,-54,-169,-280,-286,-178,-84
17,-9,-28,-7,20,-18,-54,-163,-280,-286,-172,-78
17,-9,-28,-7,20,-18,-54,-163,-280,-286,-172,-78
17,-9,-28,-7,20,-18,-54,-157,-286,-286,-172,-84
23,-3,-28,-7,26,-12,-54,-157,-286,-286,-172,-84
23,3,-22,-13,20,-6,-54,-157,-286,-286,-172,-84
23,9,-16,-13,20,0,-54,-157,-280,-286,-166,-78
29,15,-16,-25,20,0,-54,-151,-274,-280,-166,-78
23,21,-4,-19,14,12,-60,-151,-268,-280,-160,-78
17,21,2,-19,8,12,-60,-151,-268,-274,-160,-78
17,15,-4,-19,8,6,-60,-145,-268,-274,-160,-78
17,15,-4,-19,8,6,-66,-145,-268,-268,-154,-72
17,9,-10,-13,14,0,-66,-145,-268,-268,-154,-66
17,9,-10,-13,14,0,-66,-139,-274,-268,-154,-66
23,9,-16,-13,20,0,-66,-139,-274,-268,-154,-66
29,15,-16,-25,20,0,-66,-139,-274,-268,-148,-72
23,27,2,-25,8,18,-60,-133,-268,-262,-148,-72
23,27,2,-25,8,18,-60,-133,-262,-262,-148,-66
23,27,2,-25,8,18,-66,-127,-256,-262,-148,-66
23,21,-4,-19,14,12,-60,-127,-256,-262,-148,-60
17,15,-4,-19,8,6,-60,-127,-256,-262,-148,-54
17,15,-4,-19,8,6,-60,-121,-256,-262,-148,-54
23,27,2,-25,8,18,-54,-115,-250,-256,-142,-54
23,33,8,-25,8,24,-54,-109,-250,-256,-142,-54
23,33,8,-25,8,24,-60,-109,-250,-256,-142,-54
23,33,8,-25,8,24,-54,-103,-244,-250,-142,-60
23,33,8,-25,8,24,-54,-97,-244,-250,-142,-60
29,33,2,-30,14,18,-54,-91,-238,-250,-130,-60
29,33,2,-30,14,18,-54,-91,-238,-244,-124,-60
29,27,-4,-30,14,12,-60,-85,-232,-238,-124,-54
23,21,-4,-19,14,12,-60,-79,-226,-232,-118,-54
17,21,2,-19,8,12,-60,-73,-226,-232,-118,-42
23,27,2,-25,8,18,-60,-61,-220,-226,-118,-36
29,33,2,-30,14,18,-54,-49,-208,-214,-118,-31
41,33,-10,-35,26,12,-48,-37,-202,-214,-112,-26
41,33,-10,-35,26,12,-42,-32,-196,-208,-106,-20
41,27,-16,-35,26,6,-42,-27,-184,-202,-106,-20
41,21,-22,-30,32,0,-37,-21,-178,-196,-100,-14
41,15,-28,-30,32,-6,-37,-15,-178,-184,-88,-14
41,21,-22,-30,32,0,-37,-9,-172,-178,-88,-8
41,21,-22,-30,32,0,-37,-3,-166,-178,-82,-2
41,21,-22,-30,32,0,-37,3,-154,-172,-76,-2
35,27,-10,-30,20,12,-37,15,-148,-166,-70,4
41,33,-10,-35,26,12,-32,21,-136,-160,-64,10
41,33,-10,-35,26,12,-32,27,-130,-154,-58,22
41,39,-4,-41,20,18,-32,39,-124,-148,-52,28
47,39,-10,-41,26,18,-32,51,-118,-142,-40,40
47,45,-4,-41,26,24,-26,57,-112,-136,-29,46
53,45,-10,-47,32,18,-32,69,-106,-124,-29,46
53,51,-4,-53,26,24,-32,81,-100,-118,-18,52
53,56,2,-53,26,30,-32,87,-88,-112,-12,58
53,56,2,-53,26,30,-32,93,-82,-100,-12,64
47,61,14,-47,20,42,-26,111,-64,-88,-6,76
53,73,20,-59,20,48,-26,117,-52,-76,0,88
65,91,26,-77,20,58,-26,123,-40,-58,12,100
71,103,32,-83,20,70,-26,135,-29,-46,24,106
77,109,32,-89,26,70,-20,147,-24,-40,42,118
83,121,38,-95,26,82,-20,153,-18,-28,54,124
89,133,44,-107,26,88,-20,165,-6,-17,66,130
89,145,54,-113,20,100,-20,177,6,-12,72,136
95,151,54,-119,20,106,-20,189,18,6,84,148
95,157,60,-119,20,112,-20,201,30,24,96,160
107,175,66,-137,20,124,-26,213,36,36,102,166
113,187,72,-149,20,130,-26,219,48,42,108,172
107,187,78,-143,14,136,-26,225,60,54,126,184
101,193,90,-143,8,142,-14,237,72,66,138,190
107,205,96,-149,8,154,-14,243,84,78,144,196
107,217,108,-155,2,166,-14,249,96,90,156,202
101,223,120,-161,-10,172,-8,267,114,102,168,208
101,241,138,-167,-16,190,-8,279,126,114,180,214
107,253,144,-173,-16,202,-14,285,138,126,186,214
107,259,150,-179,-21,208,-8,291,150,138,192,220
107,259,150,-179,-21,208,-2,303,162,156,204,220
107,265,156,-179,-21,214,-2,309,168,168,210,226
113,271,156,-191,-21,214,-2,309,174,174,222,226
113,277,162,-191,-21,220,4,315,186,180,234,232
113,283,168,-197,-26,226,10,327,204,198,246,238
113,295,180,-203,-32,238,10,333,216,204,252,244
107,301,192,-197,-38,250,10,339,228,216,252,238
113,307,192,-209,-38,250,10,345,240,228,252,238
113,307,192,-209,-38,250,16,345,252,240,252,238
113,307,192,-209,-38,250,22,345,264,252,252,238
119,307,186,-209,-32,250,28,345,270,258,258,232
113,301,186,-203,-32,244,22,339,276,264,258,226
101,301,198,-197,-44,250,22,333,282,270,252,214
95,301,204,-191,-50,256,22,333,282,270,252,208
89,295,204,-191,-56,250,28,327,288,276,252,208
83,283,198,-179,-56,244,22,321,294,270,246,202
77,271,192,-173,-56,232,28,309,288,258,234,190
77,265,186,-167,-50,226,28,297,282,252,222,178
77,253,174,-161,-44,214,34,285,270,246,216,178
71,247,174,-155,-50,214,40,267,258,240,204,166
65,247,180,-155,-56,214,40,249,246,228,186,154
53,235,180,-143,-62,208,40,231,228,210,174,142
53,217,162,-131,-50,190,40,213,204,192,162,130
47,205,156,-119,-50,184,34,189,186,168,138,112
41,193,150,-113,-50,172,28,171,162,150,120,100
29,181,150,-101,-56,166,28,153,144,126,108,88
29,169,138,-95,-50,154,22,135,126,108,84,70
29,157,126,-89,-44,142,16,117,102,84,60,46
23,145,120,-77,-44,136,10,99,84,60,48,28
11,127,114,-65,-50,124,16,81,54,36,24,16
6,121,114,-59,-50,118,22,63,30,12,12,4
6,109,102,-53,-44,106,22,51,12,-6,-6,-8
1,103,102,-53,-50,100,22,39,-6,-22,-18,-14
-5,97,102,-41,-50,100,22,21,-24,-34,-29,-26
-5,85,90,-35,-44,88,10,3,-34,-52,-46,-31
-11,73,84,-30,-44,76,4,-9,-46,-64,-58,-31
-17,67,84,-25,-50,76,-8,-32,-64,-76,-70,-42
-17,56,72,-19,-44,64,-14,-43,-76,-88,-82,-48
-23,51,72,-19,-50,58,-14,-55,-94,-100,-88,-60
-23,45,66,-13,-44,53,-8,-67,-112,-112,-100,-66
-29,33,60,-1,-44,48,-2,-73,-124,-124,-106,-78
-23,27,49,-7,-38,36,-8,-79,-136,-136,-112,-84
-29,21,49,5,-38,36,-2,-85,-142,-142,-112,-90
-29,15,44,5,-38,30,-2,-91,-148,-154,-118,-90
-35,3,38,11,-38,18,-8,-97,-154,-160,-124,-96
-41,3,44,17,-44,24,-8,-109,-160,-172,-136,-102
-47,-3,44,23,-44,18,-8,-115,-172,-178,-142,-108
-47,-3,44,23,-44,18,-14,-121,-178,-184,-148,-108
-47,-9,38,23,-44,12,-8,-127,-184,-184,-154,-114
-47,-21,26,29,-38,0,-8,-127,-184,-184,-160,-108
-47,-21,26,29,-38,0,-14,-127,-184,-190,-160,-108
-47,-27,20,35,-32,-6,-14,-127,-190,-196,-160,-114
-47,-39,8,41,-26,-18,-14,-127,-190,-196,-166,-120
-53,-51,2,53,-26,-24,-14,-133,-190,-202,-166,-126
-53,-51,2,53,-26,-24,-14,-133,-190,-202,-166,-132
-41,-51,-10,47,-16,-30,-14,-133,-190,-202,-160,-126
-35,-51,-16,41,-10,-36,-8,-127,-184,-196,-160,-120
-35,-51,-16,41,-10,-36,-2,-133,-190,-196,-166,-120
-29,-57,-28,41,-4,-42,-14,-133,-190,-196,-172,-120
-29,-63,-34,47,2,-48,-14,-139,-190,-202,-172,-126
-23,-63,-40,41,8,-54,-14,-139,-190,-196,-178,-126
-35,-69,-34,47,-4,-54,-14,-139,-184,-196,-178,-126
-41,-69,-28,53,-10,-48,-14,-139,-184,-190,-178,-126
-35,-75,-40,53,2,-60,-14,-133,-184,-196,-178,-132
-29,-81,-52,53,8,-66,-20,-133,-190,-196,-178,-132
-29,-81,-52,53,8,-66,-20,-133,-196,-196,-178,-132
-41,-87,-46,65,2,-66,-14,-127,-196,-196,-178,-126
-53,-93,-40,71,-10,-66,-14,-127,-190,-196,-178,-126
-53,-93,-40,71,-10,-66,-8,-127,-190,-196,-178,-126
-59,-99,-40,77,-10,-72,4,-127,-190,-196,-178,-126
-53,-93,-40,71,-10,-66,4,-127,-190,-196,-172,-132
-47,-93,-46,65,-4,-72,-2,-127,-196,-196,-172,-132
-47,-93,-46,65,-4,-72,-2,-127,-196,-190,-172,-132
-47,-99,-52,71,2,-78,4,-127,-190,-190,-166,-126
-53,-105,-52,77,-4,-78,4,-127,-190,-190,-166,-126
-53,-105,-52,77,-4,-78,4,-127,-190,-190,-172,-126
-53,-105,-52,77,-4,-78,10,-127,-184,-190,-172,-126
-47,-111,-64,77,8,-90,4,-121,-184,-190,-172,-126
-47,-105,-58,71,2,-84,4,-115,-184,-190,-172,-120
-41,-111,-70,77,14,-90,10,-115,-184,-190,-178,-126
-41,-111,-70,77,14,-90,10,-109,-190,-190,-178,-132
-41,-111,-70,77,14,-90,10,-109,-190,-190,-178,-132
-41,-117,-76,77,14,-96,10,-109,-190,-190,-178,-126
-47,-111,-64,77,8,-90,10,-109,-190,-190,-172,-126
-47,-117,-70,77,8,-96,10,-115,-184,-190,-172,-120
-47,-117,-70,77,8,-96,10,-121,-184,-190,-172,-120
-41,-117,-76,77,14,-96,4,-127,-184,-190,-166,-114
-47,-117,-70,77,8,-96,10,-127,-184,-184,-160,-108
-47,-117,-70,77,8,-96,10,-121,-184,-184,-160,-108
-47,-123,-76,83,14,-102,10,-121,-184,-184,-160,-108
-41,-117,-76,77,14,-96,10,-121,-190,-184,-166,-108
-41,-117,-76,77,14,-96,4,-115,-190,-190,-160,-108
-41,-111,-70,77,14,-90,4,-115,-184,-184,-160,-108
-47,-111,-64,77,8,-90,4,-115,-178,-184,-154,-108
-47,-111,-64,77,8,-90,-2,-121,-178,-184,-154,-108
-47,-105,-58,71,2,-84,-2,-127,-172,-178,-154,-108
-47,-105,-58,71,2,-84,-8,-127,-178,-178,-154,-102
-47,-99,-52,71,2,-78,-8,-127,-178,-172,-148,-96
-41,-93,-52,65,2,-72,-2,-127,-178,-172,-148,-96
-47,-93,-46,65,-4,-72,-2,-127,-184,-172,-142,-96
-41,-99,-58,71,8,-78,-2,-133,-184,-172,-142,-96
-35,-93,-58,59,8,-78,-8,-127,-184,-178,-142,-96
-35,-87,-52,59,8,-72,-8,-133,-184,-178,-142,-102
-29,-75,-46,53,8,-60,-14,-133,-184,-184,-136,-102
-29,-69,-40,47,2,-54,-14,-133,-184,-184,-136,-102
-29,-69,-40,47,2,-54,-14,-133,-184,-184,-136,-102
-35,-63,-28,47,-4,-48,-14,-139,-184,-178,-136,-96
-29,-63,-34,47,2,-48,-14,-145,-190,-178,-142,-96
-29,-63,-34,47,2,-48,-14,-145,-190,-178,-142,-96
-23,-63,-40,41,8,-54,-14,-145,-190,-178,-142,-96
-23,-63,-40,41,8,-54,-20,-145,-196,-178,-142,-96
-23,-63,-40,41,8,-54,-20,-151,-202,-178,-142,-96
-23,-63,-40,41,8,-54,-26,-151,-202,-178,-142,-102
-23,-63,-40,41,8,-54,-26,-157,-202,-178,-142,-96
-23,-57,-34,35,2,-48,-26,-157,-202,-184,-142,-96
-23,-63,-40,41,8,-54,-37,-157,-208,-184,-142,-96
-29,-63,-34,47,2,-48,-37,-157,-208,-190,-142,-102
-47,-63,-16,53,-16,-42,-32,-157,-208,-190,-142,-102
-35,-57,-22,41,-10,-42,-32,-163,-208,-190,-142,-102
-35,-51,-16,41,-10,-36,-32,-163,-214,-190,-142,-102
-29,-51,-22,41,-4,-36,-32,-169,-214,-196,-148,-108
-29,-51,-22,41,-4,-36,-32,-169,-220,-196,-154,-108
-23,-45,-22,29,-4,-36,-32,-175,-220,-196,-154,-108
-29,-51,-22,41,-4,-36,-32,-175,-220,-196,-154,-108
-29,-57,-28,41,-4,-42,-37,-175,-226,-202,-154,-108
-29,-51,-22,41,-4,-36,-37,-181,-232,-202,-154,-114
-29,-45,-16,35,-10,-30,-32,-181,-226,-202,-154,-114
-29,-45,-16,35,-10,-30,-32,-181,-232,-202,-154,-114
-29,-45,-16,35,-10,-30,-32,-181,-232,-208,-154,-114
-29,-45,-16,35,-10,-30,-32,-181,-232,-208,-154,-114
-23,-39,-16,29,-4,-30,-26,-181,-232,-208,-154,-108
-23,-33,-10,23,-10,-24,-26,-181,-232,-202,-154,-102
-17,-39,-22,29,2,-30,-26,-181,-238,-202,-154,-96
-23,-45,-22,29,-4,-36,-26,-181,-238,-202,-148,-96
-11,-45,-34,23,8,-42,-32,-187,-238,-202,-148,-96
-11,-45,-34,23,8,-42,-37,-187,-238,-202,-148,-90
-11,-45,-34,23,8,-42,-37,-193,-244,-196,-142,-90
-11,-51,-40,29,14,-48,-37,-193,-244,-196,-142,-84
-17,-51,-34,35,8,-42,-37,-199,-244,-196,-142,-90
-29,-57,-28,41,-4,-42,-37,-199,-244,-202,-142,-84
-29,-63,-34,47,2,-48,-37,-205,-244,-202,-142,-84
-29,-69,-40,47,2,-54,-37,-205,-250,-202,-142,-90
-29,-69,-40,47,2,-54,-37,-205,-250,-208,-148,-96
-23,-69,-46,41,8,-60,-37,-205,-250,-214,-148,-96
-23,-75,-52,47,14,-66,-37,-205,-250,-214,-148,-96
-23,-75,-52,47,14,-66,-37,-211,-256,-214,-154,-102
-17,-69,-52,41,14,-60,-32,-211,-256,-220,-154,-102
-17,-69,-52,41,14,-60,-37,-211,-256,-214,-154,-102
-23,-69,-46,41,8,-60,-37,-211,-256,-214,-148,-102
-29,-75,-46,53,8,-60,-37,-211,-256,-220,-148,-102
-35,-81,-46,53,2,-66,-37,-211,-256,-220,-148,-102
-35,-81,-46,53,2,-66,-37,-217,-262,-220,-148,-96
-35,-81,-46,53,2,-66,-37,-223,-268,-220,-154,-96
-35,-87,-52,59,8,-72,-37,-223,-262,-220,-154,-96
-23,-87,-64,53,20,-78,-32,-229,-262,-220,-154,-96
-23,-87,-64,53,20,-78,-32,-229,-262,-220,-154,-96
-23,-93,-70,53,20,-84,-32,-229,-262,-214,-154,-96
-17,-93,-76,53,26,-84,-37,-229,-262,-220,-154,-102
-17,-93,-76,53,26,-84,-37,-229,-274,-220,-160,-108
-23,-93,-70,53,20,-84,-32,-229,-274,-220,-160,-108
-23,-93,-70,53,20,-84,-37,-229,-274,-220,-160,-108
-29,-99,-70,65,20,-84,-37,-223,-268,-220,-154,-108
-41,-105,-64,71,8,-84,-32,-223,-268,-220,-154,-108
-41,-105,-64,71,8,-84,-26,-223,-268,-226,-160,-114
-41,-105,-64,71,8,-84,-26,-223,-262,-226,-160,-120
-41,-111,-70,77,14,-90,-32,-229,-268,-226,-160,-120
-35,-111,-76,71,20,-96,-32,-229,-268,-226,-154,-120
-29,-105,-76,65,20,-90,-32,-229,-262,-220,-154,-114
-23,-105,-82,59,26,-96,-32,-229,-262,-220,-154,-108
-23,-117,-94,65,32,-108,-32,-229,-274,-220,-154,-108
-29,-117,-88,71,26,-102,-32,-229,-274,-220,-154,-108
-29,-123,-94,77,32,-108,-32,-229,-274,-226,-154,-108
-29,-123,-94,77,32,-108,-32,-229,-274,-226,-154,-102
-23,-111,-88,65,32,-102,-26,-229,-268,-226,-154,-108
-23,-111,-88,65,32,-102,-26,-229,-268,-226,-154,-114
-29,-111,-82,71,26,-96,-26,-235,-268,-232,-160,-114
-23,-105,-82,59,26,-96,-32,-235,-268,-232,-160,-114
-23,-105,-82,59,26,-96,-37,-241,-268,-232,-160,-114
-23,-105,-82,59,26,-96,-37,-241,-274,-232,-166,-114
-29,-105,-76,65,20,-90,-37,-247,-274,-232,-166,-120
-23,-105,-82,59,26,-96,-32,-247,-274,-232,-172,-120
-23,-111,-88,65,32,-102,-26,-241,-274,-232,-172,-120
-23,-105,-82,59,26,-96,-32,-247,-280,-232,-178,-120
-23,-105,-82,59,26,-96,-26,-247,-286,-238,-184,-120
-23,-99,-76,59,26,-90,-32,-247,-286,-244,-178,-120
-23,-87,-64,53,20,-78,-32,-247,-280,-238,-172,-114
-23,-87,-64,53,20,-78,-37,-253,-280,-238,-172,-120
-29,-81,-52,53,8,-66,-37,-259,-280,-238,-166,-120
-29,-81,-52,53,8,-66,-42,-259,-280,-238,-166,-126
-23,-87,-64,53,20,-78,-37,-253,-286,-238,-166,-126
-23,-81,-58,47,14,-72,-37,-247,-286,-232,-166,-126
-23,-81,-58,47,14,-72,-42,-247,-286,-238,-172,-132
-23,-81,-58,47,14,-72,-37,-241,-286,-238,-172,-126
-23,-81,-58,47,14,-72,-37,-247,-286,-238,-178,-132
-23,-81,-58,47,14,-72,-42,-253,-286,-244,-178,-132
-29,-81,-52,53,8,-66,-42,-259,-286,-244,-178,-132
-35,-81,-46,53,2,-66,-48,-265,-292,-250,-178,-132
-41,-81,-40,59,-4,-60,-54,-265,-292,-250,-184,-138
-35,-69,-34,47,-4,-54,-54,-265,-292,-250,-178,-132
-35,-69,-34,47,-4,-54,-48,-265,-298,-250,-178,-138
-29,-57,-28,41,-4,-42,-48,-259,-298,-250,-172,-132
-23,-51,-28,35,2,-42,-48,-259,-298,-250,-172,-126
-17,-45,-28,29,2,-36,-48,-259,-298,-250,-172,-126
-17,-45,-28,29,2,-36,-48,-265,-292,-250,-178,-126
-17,-39,-22,29,2,-30,-42,-259,-286,-244,-172,-120
-17,-33,-16,23,-4,-24,-37,-259,-280,-238,-166,-120
-17,-33,-16,23,-4,-24,-32,-247,-274,-232,-166,-120
-17,-27,-10,23,-4,-18,-20,-241,-268,-226,-160,-120
-11,-21,-10,11,-4,-18,-14,-235,-268,-220,-154,-120
-17,-9,8,11,-16,0,-8,-229,-262,-214,-148,-114
-17,3,20,5,-21,12,-8,-223,-256,-208,-142,-108
-17,9,26,5,-21,18,-2,-223,-250,-208,-142,-102
-11,15,26,-7,-21,18,4,-217,-250,-202,-136,-96
-17,21,38,-1,-26,30,10,-211,-238,-196,-130,-90
-23,21,44,-1,-32,30,22,-211,-232,-196,-130,-78
-23,27,49,-7,-38,36,22,-211,-232,-190,-136,-78
-23,27,49,-7,-38,36,34,-205,-232,-190,-136,-78
-23,33,54,-7,-38,42,28,-199,-226,-184,-136,-78
-17,39,54,-13,-38,48,22,-199,-226,-184,-130,-78
-11,33,44,-13,-26,36,16,-199,-226,-184,-130,-72
-5,33,38,-13,-21,36,10,-193,-220,-178,-124,-66
1,33,32,-19,-16,30,10,-193,-214,-178,-124,-66
6,39,32,-25,-16,36,4,-193,-214,-172,-118,-66
6,45,38,-25,-16,42,-2,-187,-208,-166,-106,-60
17,51,32,-35,-10,42,-8,-187,-208,-160,-100,-54
17,51,32,-35,-10,42,-20,-187,-208,-154,-94,-48
29,56,26,-41,2,42,-32,-187,-208,-148,-88,-36
35,61,26,-41,8,48,-37,-187,-202,-142,-88,-36
35,56,20,-41,8,42,-37,-187,-202,-142,-82,-31
35,51,14,-41,8,36,-42,-187,-196,-136,-88,-26
41,51,8,-47,14,30,-42,-187,-196,-142,-88,-26
41,51,8,-47,14,30,-48,-187,-202,-148,-88,-26
41,45,2,-41,20,24,-48,-193,-208,-154,-94,-31
41,39,-4,-41,20,18,-54,-193,-208,-160,-94,-36
47,27,-22,-35,32,6,-60,-199,-214,-166,-100,-42
47,21,-28,-30,38,0,-66,-211,-232,-172,-106,-54
35,9,-28,-19,32,-6,-66,-217,-244,-184,-106,-60
23,3,-22,-13,20,-6,-72,-223,-250,-190,-106,-66
17,-15,-34,-1,26,-24,-72,-229,-262,-190,-112,-72
11,-39,-52,17,32,-42,-72,-235,-274,-202,-124,-78
11,-51,-64,23,38,-54,-72,-241,-280,-214,-142,-90
11,-63,-76,29,44,-66,-72,-247,-280,-220,-154,-90
11,-63,-76,29,44,-66,-66,-253,-280,-220,-166,-90
11,-69,-82,29,44,-72,-54,-253,-286,-226,-166,-96
11,-75,-88,35,50,-78,-48,-253,-286,-226,-166,-96
6,-75,-82,35,44,-78,-48,-253,-286,-232,-166,-96
6,-81,-88,35,44,-84,-42,-253,-292,-232,-166,-102
6,-81,-88,35,44,-84,-42,-253,-292,-238,-166,-108
-11,-93,-82,47,32,-90,-42,-253,-298,-238,-166,-108
-23,-105,-82,59,26,-96,-37,-253,-298,-238,-166,-108
-29,-105,-76,65,20,-90,-37,-253,-298,-244,-166,-108
-23,-111,-88,65,32,-102,-42,-259,-298,-250,-172,-114
-23,-117,-94,65,32,-108,-48,-265,-304,-250,-178,-120
-11,-123,-112,65,50,-120,-48,-265,-304,-256,-184,-126
-11,-123,-112,65,50,-120,-48,-271,-310,-256,-190,-132
-11,-123,-112,65,50,-120,-54,-277,-304,-262,-196,-138
-17,-129,-112,71,44,-120,-54,-283,-292,-256,-196,-138
-11,-135,-124,71,56,-132,-60,-289,-268,-256,-190,-144
-11,-135,-124,71,56,-132,-66,-301,-268,-256,-190,-144
-23,-141,-118,77,44,-132,-66,-301,-268,-256,-190,-138
-23,-147,-124,83,50,-138,-66,-307,-268,-256,-190,-138
-23,-147,-124,83,50,-138,-72,-307,-268,-256,-190,-138
-17,-141,-124,77,50,-132,-78,-301,-268,-262,-184,-138
-17,-135,-118,77,50,-126,-78,-307,-268,-256,-184,-132
-17,-123,-106,71,44,-114,-72,-301,-262,-250,-178,-132
-23,-117,-94,65,32,-108,-72,-301,-268,-250,-178,-132
-23,-111,-88,65,32,-102,-66,-295,-268,-244,-178,-132
-23,-105,-82,59,26,-96,-66,-295,-274,-238,-178,-138
-23,-105,-82,59,26,-96,-60,-289,-274,-232,-178,-132
-29,-105,-76,65,20,-90,-60,-277,-274,-232,-178,-138
-35,-105,-70,65,14,-90,-54,-265,-262,-226,-166,-138
-41,-99,-58,71,8,-78,-48,-259,-250,-226,-160,-132
-41,-93,-52,65,2,-72,-37,-247,-238,-214,-148,-132
-53,-93,-40,71,-10,-66,-32,-229,-220,-202,-142,-120
-59,-87,-28,71,-16,-60,-26,-211,-202,-184,-136,-120
-59,-87,-28,71,-16,-60,-14,-199,-184,-172,-136,-120
-59,-81,-22,65,-21,-54,-2,-175,-166,-160,-124,-114
-59,-81,-22,65,-21,-54,4,-151,-148,-136,-118,-114
-59,-87,-28,71,-16,-60,16,-121,-124,-112,-112,-114
-71,-93,-22,77,-26,-60,34,-91,-100,-94,-100,-120
-77,-93,-16,83,-32,-54,52,-67,-76,-76,-100,-132
-77,-99,-22,89,-26,-60,70,-37,-64,-58,-94,-132
-83,-111,-28,95,-26,-72,94,-9,-40,-46,-94,-138
-89,-135,-46,113,-21,-90,118,21,-18,-34,-94,-144
-83,-153,-70,113,-10,-114,142,51,6,-22,-94,-156
-77,-165,-88,119,2,-126,166,87,30,-12,-88,-162
-77,-195,-118,137,20,-156,196,129,60,6,-88,-174
-77,-225,-148,149,32,-186,232,171,96,24,-88,-186
-83,-255,-172,167,44,-216,268,225,132,48,-82,-204
-89,-273,-184,179,44,-228,316,273,174,78,-70,-204
-95,-285,-190,185,44,-240,370,327,210,108,-52,-198
-101,-297,-196,197,44,-246,418,387,252,144,-24,-180
-101,-315,-214,209,56,-264,466,459,300,180,0,-168
-95,-345,-250,215,74,-300,514,537,360,228,30,-156
-83,-381,-298,227,104,-342,556,645,456,306,84,-132
-71,-405,-334,233,128,-372,604,789,594,420,168,-84
-53,-417,-364,233,152,-390,658,945,756,564,282,-20
-35,-405,-370,215,164,-390,694,1101,942,750,426,82
6,-393,-400,191,200,-396,700,1251,1128,948,588,184
59,-381,-442,161,248,-408,694,1383,1326,1164,756,286
107,-345,-454,119,278,-396,682,1527,1554,1416,930,394
155,-291,-448,71,302,-366,646,1659,1806,1686,1122,514
227,-213,-442,-7,332,-324,580,1779,2082,1986,1332,640
299,-105,-406,-95,350,-252,496,1893,2388,2322,1572,790
365,9,-358,-185,362,-174,400,2025,2723,2681,1818,940
419,127,-292,-269,356,-78,286,2121,3047,3035,2064,1096
473,241,-232,-353,356,6,166,2181,3329,3359,2292,1234
515,349,-166,-425,344,94,52,2229,3593,3659,2495,1366
539,427,-112,-479,326,160,-37,2259,3851,3953,2681,1474
551,475,-76,-509,314,202,-90,2259,4061,4205,2819,1546
539,475,-64,-503,302,208,-114,2199,4163,4325,2855,1552
509,451,-58,-479,284,196,-120,2055,4121,4277,2765,1480
461,409,-52,-431,260,178,-114,1851,3935,4079,2579,1348
389,355,-34,-371,212,160,-84,1629,3659,3767,2322,1168
299,271,-28,-281,164,124,-54,1383,3293,3347,1986,946
185,187,2,-185,92,94,-20,1089,2801,2813,1596,700
83,103,20,-89,32,64,16,807,2268,2238,1212,466
6,27,20,-19,-10,24,46,543,1746,1692,858,268
-65,-51,14,59,-38,-18,70,279,1200,1152,552,106
-119,-117,2,113,-62,-60,94,21,660,654,282,-26
-155,-159,-4,155,-74,-84,112,-163,264,306,90,-108
-167,-189,-22,173,-74,-108,124,-277,36,90,-29,-162
-173,-195,-22,185,-74,-108,124,-343,-100,-28,-100,-198
-173,-183,-10,179,-80,-96,118,-379,-178,-100,-142,-210
-173,-153,20,161,-98,-66,112,-385,-214,-130,-154,-210
-173,-123,49,149,-110,-36,100,-379,-226,-148,-154,-198
-167,-99,66,131,-116,-18,88,-367,-238,-160,-154,-186
-155,-87,66,119,-110,-12,64,-343,-238,-166,-148,-174
-137,-69,66,101,-104,0,46,-313,-232,-172,-142,-156
-125,-57,66,89,-98,6,34,-283,-232,-178,-142,-150
-101,-45,54,71,-80,6,28,-259,-232,-184,-148,-138
-77,-39,38,59,-56,0,22,-241,-238,-196,-148,-132
-53,-39,14,47,-32,-12,16,-235,-244,-208,-160,-132
-53,-39,14,47,-32,-12,16,-229,-256,-214,-166,-132
-53,-39,14,47,-32,-12,10,-223,-262,-220,-172,-126
-47,-45,2,41,-26,-24,4,-217,-262,-226,-172,-126
-41,-45,-4,41,-21,-24,-2,-211,-268,-232,-178,-126
-41,-57,-16,47,-16,-36,-2,-205,-274,-238,-184,-126
-41,-69,-28,53,-10,-48,-8,-199,-280,-250,-190,-126
-35,-75,-40,53,2,-60,-14,-187,-280,-256,-190,-126
-29,-75,-46,53,8,-60,-20,-187,-286,-262,-190,-126
-23,-75,-52,47,14,-66,-20,-181,-298,-268,-190,-126
-17,-69,-52,41,14,-60,-20,-181,-304,-274,-196,-126
-11,-69,-58,35,20,-66,-32,-181,-310,-280,-196,-126
-5,-69,-64,35,26,-66,-32,-187,-316,-286,-196,-126
-11,-69,-58,35,20,-66,-37,-187,-316,-292,-202,-126
-17,-63,-46,41,14,-54,-37,-187,-316,-286,-196,-120
-11,-63,-52,35,20,-60,-32,-187,-310,-286,-196,-120
-11,-63,-52,35,20,-60,-32,-175,-310,-286,-196,-114
-11,-63,-52,35,20,-60,-32,-175,-310,-286,-196,-114
-5,-63,-58,35,26,-60,-26,-175,-316,-286,-190,-108
-5,-63,-58,35,26,-60,-32,-175,-316,-286,-190,-108
-5,-63,-58,35,26,-60,-32,-175,-316,-286,-190,-108
-5,-63,-58,35,26,-60,-26,-175,-316,-280,-190,-108
-5,-57,-52,29,20,-54,-32,-175,-310,-286,-190,-108
-5,-57,-52,29,20,-54,-37,-169,-316,-286,-190,-108
-5,-63,-58,35,26,-60,-42,-163,-310,-286,-184,-108
-5,-63,-58,35,26,-60,-42,-157,-310,-280,-178,-108
1,-57,-58,23,26,-60,-42,-151,-304,-280,-172,-108
1,-57,-58,23,26,-60,-37,-151,-304,-280,-178,-108
1,-51,-52,23,26,-54,-37,-145,-298,-274,-172,-108
1,-45,-46,17,20,-48,-37,-139,-298,-274,-172,-108
1,-45,-46,17,20,-48,-37,-139,-292,-274,-178,-108
-5,-45,-40,23,14,-42,-37,-139,-292,-280,-178,-108
-5,-39,-34,23,14,-36,-37,-139,-292,-274,-184,-102
-5,-39,-34,23,14,-36,-37,-133,-292,-274,-178,-102
1,-21,-22,5,8,-24,-48,-133,-286,-274,-178,-102
1,-21,-22,5,8,-24,-42,-127,-280,-268,-172,-96
1,-15,-16,5,8,-18,-42,-127,-280,-268,-172,-90
6,-9,-16,-1,8,-12,-37,-121,-280,-262,-166,-84
11,-3,-16,-1,14,-6,-37,-121,-280,-262,-166,-90
11,-9,-22,-1,14,-12,-37,-121,-280,-262,-166,-90
6,-9,-16,-1,8,-12,-42,-127,-286,-268,-166,-96
6,-9,-16,-1,8,-12,-42,-121,-280,-262,-160,-96
1,-9,-10,-1,2,-12,-48,-115,-280,-262,-160,-96
6,-3,-10,-1,8,-6,-54,-115,-274,-262,-160,-96
11,-3,-16,-1,14,-6,-48,-109,-268,-256,-154,-90
11,3,-10,-7,8,0,-48,-103,-268,-250,-154,-90
6,3,-4,-7,2,0,-48,-109,-268,-250,-154,-90
11,-3,-16,-1,14,-6,-48,-103,-268,-244,-160,-90
11,3,-10,-7,8,0,-48,-97,-268,-244,-154,-84
17,3,-16,-13,14,-6,-48,-91,-262,-244,-154,-78
17,3,-16,-13,14,-6,-48,-85,-256,-238,-148,-72
17,3,-16,-13,14,-6,-42,-85,-250,-238,-148,-66
17,3,-16,-13,14,-6,-42,-79,-244,-232,-142,-66
17,3,-16,-13,14,-6,-42,-73,-244,-232,-142,-66
11,-3,-16,-1,14,-6,-42,-73,-238,-232,-142,-66
6,-9,-16,-1,8,-12,-42,-67,-238,-220,-136,-60
11,-9,-22,-1,14,-12,-42,-67,-238,-208,-130,-60
17,-15,-34,-1,26,-24,-37,-61,-232,-202,-130,-60
23,-3,-28,-7,26,-12,-32,-49,-226,-190,-124,-54
29,-3,-34,-13,32,-18,-32,-43,-220,-190,-118,-48
29,-9,-40,-13,32,-24,-26,-37,-214,-190,-118,-42
29,-9,-40,-13,32,-24,-26,-32,-202,-184,-112,-42
29,-3,-34,-13,32,-18,-26,-27,-196,-178,-112,-36
23,-3,-28,-7,26,-12,-26,-15,-184,-172,-106,-31
23,-9,-34,-7,26,-18,-26,-9,-178,-166,-106,-26
29,-9,-40,-13,32,-24,-20,-3,-166,-160,-100,-20
35,-9,-46,-13,38,-24,-20,9,-160,-154,-88,-8
29,-15,-46,-7,38,-30,-20,21,-148,-142,-76,-8
35,-21,-58,-7,44,-36,-14,33,-142,-136,-70,-8
41,-21,-64,-13,50,-42,-8,39,-136,-130,-64,-2
41,-21,-64,-13,50,-42,-8,51,-130,-124,-64,4
47,-15,-64,-13,56,-36,-8,57,-118,-118,-58,10
47,-9,-58,-19,50,-30,-8,63,-112,-112,-52,16
47,-9,-58,-19,50,-30,-8,75,-100,-100,-46,22
47,-3,-52,-19,50,-24,-8,87,-94,-94,-40,28
47,-3,-52,-19,50,-24,-8,93,-82,-88,-29,40
47,9,-40,-25,44,-12,-2,105,-76,-82,-29,46
59,27,-34,-41,44,0,4,123,-64,-70,-12,58
65,39,-28,-53,44,6,10,135,-58,-64,-6,64
71,51,-22,-59,44,18,16,147,-46,-52,6,70
71,56,-16,-59,44,24,16,153,-40,-46,18,76
65,61,-4,-59,38,30,16,159,-29,-40,24,82
65,73,8,-65,32,42,10,171,-24,-28,30,88
65,85,20,-71,26,53,4,177,-12,-17,42,94
65,91,26,-77,20,58,4,195,0,-6,60,100
77,103,26,-89,26,64,4,207,18,6,72,112
83,115,32,-95,26,76,10,219,30,18,84,118
95,127,32,-107,32,82,10,225,36,30,90,124
95,139,44,-113,26,94,4,231,42,42,96,130
101,157,54,-125,26,106,4,243,48,60,102,142
107,169,60,-131,26,118,10,255,60,72,114,154
95,181,84,-131,8,136,10,261,66,84,132,166
95,199,102,-143,-4,154,10,267,78,96,144,166
95,205,108,-143,-4,160,4,273,96,108,156,172
89,217,126,-149,-16,172,4,285,114,120,168,172
83,223,138,-149,-26,184,10,291,126,132,180,178
89,235,144,-161,-26,190,10,303,138,144,192,184
95,235,138,-161,-21,190,10,309,144,156,198,190
113,253,138,-179,-10,196,16,315,156,174,210,202
113,259,144,-185,-16,202,16,327,168,186,216,208
113,265,150,-185,-16,208,16,327,174,198,222,214
113,271,156,-191,-21,214,22,333,186,210,222,214
113,283,168,-197,-26,226,28,333,204,228,234,226
113,289,174,-197,-26,232,28,339,216,240,240,226
113,295,180,-203,-32,238,34,345,228,246,246,220
119,295,174,-203,-26,238,34,345,240,258,252,220
119,295,174,-203,-26,238,34,345,246,270,258,220
113,307,192,-209,-38,250,40,345,252,276,264,220
101,301,198,-197,-44,250,40,345,258,282,264,220
101,301,198,-197,-44,250,40,345,264,282,264,214
101,301,198,-197,-44,250,40,339,270,288,258,208
95,301,204,-191,-50,256,46,333,276,288,246,196
89,295,204,-191,-56,250,46,327,276,288,246,190
83,283,198,-179,-56,244,52,315,270,288,240,184
77,277,198,-173,-56,238,52,297,264,276,228,178
83,271,186,-173,-50,232,52,285,252,270,222,172
83,265,180,-167,-44,226,52,267,246,258,216,160
77,253,174,-161,-44,214,52,255,234,246,204,154
71,241,168,-149,-44,208,52,237,210,234,186,136
71,229,156,-143,-38,196,46,219,192,216,168,124
65,217,150,-137,-38,184,40,195,168,198,150,106
53,211,156,-131,-50,184,40,183,150,180,126,88
41,193,150,-113,-50,172,34,165,132,156,108,70
41,181,138,-107,-44,160,28,141,108,132,90,52
29,163,132,-95,-50,148,28,117,84,102,72,34
17,145,126,-77,-50,136,22,99,60,84,48,16
17,139,120,-77,-50,130,16,75,42,66,36,4
23,139,114,-77,-44,130,22,63,24,48,18,-2
29,139,108,-83,-38,124,22,45,6,30,6,-14
23,133,108,-71,-38,124,22,27,-6,12,-6,-26
23,121,96,-65,-32,112,16,9,-29,-12,-24,-31
17,103,84,-59,-32,94,10,-9,-52,-28,-34,-42
11,97,84,-47,-32,94,10,-21,-64,-46,-52,-48
11,85,72,-41,-26,82,4,-32,-82,-58,-64,-60
6,79,72,-41,-32,76,-2,-43,-94,-76,-76,-66
1,61,60,-30,-26,58,-8,-55,-106,-88,-88,-72
-5,56,60,-25,-32,58,-14,-61,-118,-94,-100,-84
1,56,54,-30,-26,53,-14,-73,-136,-106,-106,-90
1,51,49,-30,-26,48,-14,-85,-148,-118,-118,-102
-5,45,49,-19,-26,48,-20,-91,-160,-130,-124,-114
-5,39,44,-19,-26,42,-20,-103,-172,-142,-136,-120
-5,33,38,-13,-21,36,-20,-115,-184,-154,-142,-132
1,27,26,-19,-16,24,-20,-121,-190,-166,-148,-132
1,21,20,-13,-10,18,-20,-127,-196,-172,-154,-138
1,21,20,-13,-10,18,-20,-133,-196,-178,-154,-138
-5,15,20,-7,-16,18,-20,-133,-202,-184,-160,-138
-11,9,20,-1,-16,12,-14,-139,-202,-184,-160,-132
-17,-3,14,11,-16,6,-14,-139,-208,-184,-166,-138
-17,-9,8,11,-16,0,-14,-145,-214,-190,-166,-138
-23,-15,8,17,-16,-6,-14,-145,-214,-190,-166,-138
-17,-21,-4,17,-10,-12,-14,-145,-220,-196,-166,-144
-11,-27,-16,17,2,-24,-14,-145,-220,-202,-166,-150
-11,-33,-22,17,2,-30,-14,-151,-220,-202,-172,-150
-17,-33,-16,23,-4,-24,-20,-151,-214,-202,-172,-150
-17,-39,-22,29,2,-30,-20,-151,-214,-208,-178,-156
-17,-33,-16,23,-4,-24,-20,-151,-214,-208,-178,-150
-23,-33,-10,23,-10,-24,-20,-151,-214,-208,-178,-150
-23,-39,-16,29,-4,-30,-14,-151,-214,-208,-178,-150
-23,-45,-22,29,-4,-36,-14,-151,-214,-214,-178,-156
-23,-51,-28,35,2,-42,-14,-151,-220,-220,-178,-156
-17,-57,-40,35,8,-48,-8,-145,-220,-220,-184,-162
-29,-63,-34,47,2,-48,-8,-145,-214,-226,-184,-162
-29,-63,-34,47,2,-48,-8,-145,-214,-220,-184,-162
-35,-75,-40,53,2,-60,-14,-145,-214,-220,-184,-168
-35,-81,-46,53,2,-66,-14,-145,-214,-214,-184,-162
-35,-87,-52,59,8,-72,-14,-139,-214,-208,-178,-162
-35,-81,-46,53,2,-66,-14,-139,-202,-208,-172,-156
-23,-81,-58,47,14,-72,-8,-139,-202,-202,-172,-150
-17,-81,-64,47,20,-72,-8,-139,-202,-208,-172,-150
-17,-81,-64,47,20,-72,-8,-139,-196,-208,-172,-150
-17,-93,-76,53,26,-84,-8,-145,-196,-208,-172,-150
-17,-93,-76,53,26,-84,-2,-151,-202,-208,-178,-156
-17,-93,-76,53,26,-84,4,-145,-196,-208,-172,-156
-23,-87,-64,53,20,-78,4,-139,-196,-202,-172,-156
-23,-93,-70,53,20,-84,10,-139,-196,-202,-172,-156
-29,-93,-64,59,14,-78,10,-139,-190,-202,-172,-156
-35,-93,-58,59,8,-78,4,-139,-190,-208,-172,-150
-35,-93,-58,59,8,-78,4,-139,-184,-208,-172,-150
-35,-93,-58,59,8,-78,4,-139,-184,-208,-166,-144
-29,-87,-58,59,14,-72,-2,-139,-178,-208,-166,-144
-29,-93,-64,59,14,-78,-2,-145,-178,-202,-166,-144
-29,-93,-64,59,14,-78,4,-145,-178,-202,-160,-144
-23,-93,-70,53,20,-84,-2,-151,-184,-202,-154,-144
-23,-93,-70,53,20,-84,-2,-151,-190,-202,-154,-144
-23,-99,-76,59,26,-90,-2,-151,-190,-202,-148,-144
-17,-93,-76,53,26,-84,-8,-145,-190,-196,-148,-144
-17,-93,-76,53,26,-84,-8,-139,-184,-190,-148,-144
-23,-87,-64,53,20,-78,-8,-139,-184,-196,-148,-144
-23,-87,-64,53,20,-78,-14,-139,-184,-196,-148,-144
-23,-81,-58,47,14,-72,-14,-145,-184,-190,-148,-138
-23,-81,-58,47,14,-72,-14,-151,-184,-190,-148,-138
-23,-81,-58,47,14,-72,-14,-151,-184,-190,-148,-138
-23,-81,-58,47,14,-72,-20,-151,-184,-190,-148,-138
-17,-81,-64,47,20,-72,-20,-151,-184,-196,-148,-138
-17,-81,-64,47,20,-72,-20,-151,-184,-196,-148,-138
-23,-75,-52,47,14,-66,-20,-151,-184,-196,-154,-132
-23,-69,-46,41,8,-60,-26,-151,-190,-202,-154,-132
-29,-69,-40,47,2,-54,-26,-157,-196,-202,-154,-132
-35,-75,-40,53,2,-60,-26,-157,-202,-202,-160,-132
-35,-75,-40,53,2,-60,-26,-157,-202,-196,-160,-132
-41,-75,-34,59,-4,-54,-26,-157,-202,-202,-160,-132
-29,-69,-40,47,2,-54,-26,-157,-202,-202,-160,-132
-17,-57,-40,35,8,-48,-26,-157,-202,-202,-154,-132
-11,-45,-34,23,8,-42,-32,-157,-208,-196,-154,-126
-11,-39,-28,23,8,-36,-32,-157,-208,-196,-148,-126
-11,-39,-28,23,8,-36,-32,-163,-208,-190,-148,-120
-23,-39,-16,29,-4,-30,-32,-163,-208,-190,-148,-114
-23,-27,-4,23,-10,-18,-37,-163,-214,-184,-148,-108
-17,-21,-4,17,-10,-12,-32,-163,-214,-190,-148,-102
-11,-21,-10,11,-4,-18,-32,-163,-214,-190,-154,-102
-11,-15,-4,11,-4,-12,-32,-163,-214,-190,-154,-96
-11,-15,-4,11,-4,-12,-26,-163,-214,-196,-154,-96
-11,-15,-4,11,-4,-12,-20,-163,-214,-202,-154,-96
-11,-21,-10,11,-4,-18,-26,-163,-214,-202,-160,-102
-11,-21,-10,11,-4,-18,-32,-169,-226,-214,-160,-108
-11,-21,-10,11,-4,-18,-32,-169,-226,-214,-154,-102
-17,-21,-4,17,-10,-12,-32,-169,-232,-214,-154,-108
-17,-15,2,17,-10,-6,-32,-169,-232,-208,-154,-102
-17,-15,2,17,-10,-6,-32,-169,-232,-208,-154,-108
-17,-15,2,17,-10,-6,-32,-175,-232,-208,-154,-108
-23,-21,2,17,-16,-12,-32,-169,-232,-214,-160,-114
-23,-21,2,17,-16,-12,-26,-169,-232,-214,-160,-114
-23,-21,2,17,-16,-12,-26,-169,-226,-214,-160,-114
-23,-21,2,17,-16,-12,-32,-169,-226,-214,-160,-114
-23,-15,8,17,-16,-6,-37,-169,-232,-214,-166,-108
-23,-9,14,11,-21,0,-37,-169,-238,-220,-166,-108
-17,-9,8,11,-16,0,-37,-169,-238,-220,-160,-102
-17,-3,14,11,-16,6,-37,-175,-244,-220,-160,-102
-11,-3,8,5,-10,0,-37,-175,-244,-220,-160,-108
-5,-3,2,5,-4,0,-37,-175,-244,-220,-160,-102
1,-3,-4,-1,2,-6,-37,-175,-244,-226,-166,-114
1,-3,-4,-1,2,-6,-32,-181,-244,-226,-166,-114
1,-3,-4,-1,2,-6,-37,-181,-244,-226,-166,-120
6,-3,-10,-1,8,-6,-37,-181,-250,-226,-172,-120
6,-3,-10,-1,8,-6,-32,-181,-250,-226,-172,-120
1,-9,-10,-1,2,-12,-37,-181,-250,-226,-178,-114
1,-15,-16,5,8,-18,-37,-181,-250,-226,-172,-114
-5,-27,-22,17,8,-24,-32,-187,-250,-226,-172,-114
-17,-27,-10,23,-4,-18,-32,-187,-250,-226,-166,-114
-17,-27,-10,23,-4,-18,-37,-187,-250,-226,-160,-114
-11,-27,-16,17,2,-24,-37,-187,-256,-232,-160,-114
-5,-27,-22,17,8,-24,-37,-193,-262,-232,-166,-120
1,-21,-22,5,8,-24,-37,-193,-262,-232,-172,-120
1,-15,-16,5,8,-18,-37,-193,-262,-226,-166,-114
-11,-15,-4,11,-4,-12,-32,-193,-262,-232,-172,-114
-11,-21,-10,11,-4,-18,-26,-199,-262,-232,-172,-114
-11,-21,-10,11,-4,-18,-32,-199,-256,-232,-178,-114
-5,-21,-16,11,2,-18,-32,-199,-256,-232,-178,-114
-5,-27,-22,17,8,-24,-32,-199,-256,-232,-184,-120
-5,-27,-22,17,8,-24,-37,-193,-262,-238,-184,-120
-5,-27,-22,17,8,-24,-32,-193,-262,-232,-178,-114
-5,-39,-34,23,14,-36,-32,-193,-268,-238,-178,-114
-11,-51,-40,29,14,-48,-32,-193,-262,-238,-178,-114
-11,-57,-46,29,14,-54,-37,-193,-262,-238,-178,-114
-17,-63,-46,41,14,-54,-37,-193,-256,-238,-172,-114
-11,-63,-52,35,20,-60,-37,-193,-250,-238,-172,-120
-17,-69,-52,41,14,-60,-32,-187,-250,-232,-172,-114
-17,-63,-46,41,14,-54,-32,-187,-250,-232,-172,-114
-17,-63,-46,41,14,-54,-32,-187,-256,-232,-172,-114
-17,-69,-52,41,14,-60,-32,-193,-262,-238,-178,-114
-11,-63,-52,35,20,-60,-37,-199,-268,-244,-184,-114
-5,-63,-58,35,26,-60,-37,-199,-274,-250,-184,-120
-11,-69,-58,35,20,-66,-37,-199,-268,-244,-184,-114
-17,-75,-58,47,20,-66,-32,-199,-268,-244,-184,-114
-17,-75,-58,47,20,-66,-32,-193,-268,-238,-184,-114
-23,-81,-58,47,14,-72,-32,-193,-268,-238,-184,-126
-23,-81,-58,47,14,-72,-26,-193,-262,-238,-184,-126
-17,-81,-64,47,20,-72,-26,-193,-256,-238,-184,-126
-11,-81,-70,41,26,-78,-20,-193,-256,-232,-178,-120
-5,-81,-76,41,32,-78,-26,-199,-256,-232,-178,-120
-5,-87,-82,47,38,-84,-26,-199,-262,-238,-178,-120
-11,-93,-82,47,32,-90,-26,-199,-274,-244,-178,-120
-5,-81,-76,41,32,-78,-26,-199,-268,-244,-178,-114
-5,-81,-76,41,32,-78,-32,-193,-268,-244,-172,-114
-5,-81,-76,41,32,-78,-26,-193,-262,-238,-172,-114
-11,-81,-70,41,26,-78,-20,-193,-262,-238,-178,-114
-11,-81,-70,41,26,-78,-20,-199,-268,-238,-178,-120
1,-81,-82,35,38,-84,-26,-199,-268,-238,-178,-120
6,-81,-88,35,44,-84,-26,-205,-268,-238,-178,-120
6,-75,-82,35,44,-78,-26,-205,-274,-244,-178,-120
-5,-75,-70,41,32,-72,-26,-205,-274,-244,-178,-120
1,-69,-70,29,32,-72,-26,-205,-274,-244,-178,-120
1,-63,-64,29,32,-66,-26,-199,-274,-250,-178,-120
1,-57,-58,23,26,-60,-26,-199,-268,-244,-178,-120
1,-51,-52,23,26,-54,-26,-193,-262,-244,-172,-120
1,-45,-46,17,20,-48,-26,-199,-262,-244,-172,-120
-5,-51,-46,29,20,-48,-32,-205,-268,-244,-178,-120
-5,-51,-46,29,20,-48,-32,-211,-268,-244,-178,-120
-5,-51,-46,29,20,-48,-32,-211,-268,-244,-178,-120
-5,-51,-46,29,20,-48,-37,-211,-274,-250,-178,-120
-5,-51,-46,29,20,-48,-37,-205,-274,-256,-178,-126
-11,-51,-40,29,14,-48,-37,-205,-280,-256,-184,-126
-11,-51,-40,29,14,-48,-37,-205,-280,-262,-184,-132
-11,-45,-34,23,8,-42,-42,-205,-280,-256,-190,-138
-11,-45,-34,23,8,-42,-37,-211,-280,-256,-190,-132
-17,-39,-22,29,2,-30,-37,-211,-280,-250,-184,-132
-11,-39,-28,23,8,-36,-42,-211,-274,-250,-184,-132
-17,-39,-22,29,2,-30,-37,-217,-274,-250,-190,-138
-17,-33,-16,23,-4,-24,-37,-217,-280,-256,-190,-138
-23,-33,-10,23,-10,-24,-37,-217,-286,-262,-196,-138
-11,-27,-16,17,2,-24,-37,-217,-286,-262,-196,-138
-5,-27,-22,17,8,-24,-37,-223,-286,-268,-202,-138
-5,-21,-16,11,2,-18,-37,-223,-286,-268,-202,-138
6,-15,-22,5,14,-18,-37,-217,-280,-262,-202,-138
11,-3,-16,-1,14,-6,-32,-217,-274,-256,-196,-132
6,-3,-10,-1,8,-6,-32,-211,-268,-250,-196,-132
11,9,-4,-7,8,6,-32,-205,-262,-244,-190,-126
11,21,8,-13,2,18,-26,-199,-256,-238,-184,-120
11,33,20,-19,-4,30,-14,-193,-250,-232,-178,-120
11,39,26,-25,-10,36,-8,-187,-244,-226,-178,-114
6,45,38,-25,-16,42,4,-181,-238,-220,-172,-108
6,51,44,-30,-21,48,16,-175,-232,-214,-166,-102
11,56,44,-30,-16,53,22,-169,-226,-208,-166,-96
6,56,49,-30,-21,53,28,-169,-220,-208,-160,-96
6,56,49,-30,-21,53,28,-163,-214,-208,-160,-90
11,67,54,-35,-21,64,34,-157,-214,-202,-154,-84
17,73,54,-41,-16,64,28,-157,-208,-202,-148,-84
17,73,54,-41,-16,64,28,-157,-208,-196,-142,-78
17,73,54,-41,-16,64,22,-157,-208,-196,-142,-78
17,79,60,-47,-21,70,16,-157,-202,-190,-136,-78
23,85,60,-47,-16,76,16,-157,-202,-184,-136,-72
29,85,54,-53,-10,70,4,-157,-196,-184,-136,-66
41,85,44,-59,2,64,-8,-157,-196,-184,-130,-60
53,91,38,-71,8,64,-20,-157,-196,-172,-124,-54
47,85,38,-59,8,64,-32,-157,-196,-172,-118,-48
41,85,44,-59,2,64,-32,-157,-190,-166,-112,-48
41,79,38,-59,2,58,-37,-157,-184,-160,-112,-42
41,73,32,-53,8,53,-42,-157,-184,-154,-106,-42
47,73,26,-53,14,53,-42,-157,-178,-154,-106,-42
53,73,20,-59,20,48,-42,-157,-178,-154,-100,-42
53,67,14,-59,20,42,-42,-163,-178,-160,-100,-42
47,56,8,-47,20,36,-42,-163,-184,-166,-106,-42
47,51,2,-47,20,30,-48,-163,-190,-172,-106,-42
47,45,-4,-41,26,24,-54,-163,-196,-178,-112,-48
47,33,-16,-35,32,12,-60,-169,-208,-184,-124,-54
47,33,-16,-35,32,12,-60,-175,-214,-190,-130,-60
47,27,-22,-35,32,6,-60,-181,-214,-190,-136,-60
41,21,-22,-30,32,0,-60,-187,-220,-196,-148,-66
35,9,-28,-19,32,-6,-60,-199,-232,-208,-154,-72
29,3,-28,-19,26,-12,-60,-205,-238,-214,-160,-78
23,-3,-28,-7,26,-12,-60,-205,-238,-220,-166,-84
17,-9,-28,-7,20,-18,-60,-211,-244,-232,-172,-90
11,-21,-34,5,20,-24,-54,-211,-250,-232,-172,-96
6,-27,-34,11,20,-30,-54,-217,-256,-238,-178,-96
6,-33,-40,11,20,-36,-54,-223,-256,-244,-178,-102
6,-45,-52,17,26,-48,-54,-223,-268,-250,-184,-108
1,-57,-58,23,26,-60,-54,-223,-268,-250,-190,-108
-5,-69,-64,35,26,-66,-48,-229,-274,-250,-190,-114
-11,-75,-64,41,26,-72,-48,-229,-274,-256,-190,-120
-17,-81,-64,47,20,-72,-48,-235,-280,-262,-196,-120
-17,-93,-76,53,26,-84,-54,-235,-286,-268,-196,-126
-29,-105,-76,65,20,-90,-54,-247,-292,-274,-202,-138
-23,-99,-76,59,26,-90,-54,-247,-292,-274,-202,-138
-17,-87,-70,53,26,-78,-48,-241,-292,-274,-196,-132
-17,-81,-64,47,20,-72,-48,-241,-292,-274,-196,-132
-17,-87,-70,53,26,-78,-54,-241,-292,-280,-202,-132
-17,-87,-70,53,26,-78,-54,-247,-292,-286,-208,-138
-17,-87,-70,53,26,-78,-48,-253,-298,-286,-208,-138
-11,-87,-76,47,32,-84,-48,-253,-298,-286,-208,-138
-11,-81,-70,41,26,-78,-48,-253,-298,-286,-214,-138
-11,-81,-70,41,26,-78,-48,-253,-292,-280,-208,-138
-5,-75,-70,41,32,-72,-48,-253,-298,-280,-208,-144
-11,-81,-70,41,26,-78,-48,-247,-298,-280,-208,-144
-11,-81,-70,41,26,-78,-48,-241,-292,-274,-202,-138
-17,-87,-70,53,26,-78,-42,-235,-286,-268,-196,-132
-17,-87,-70,53,26,-78,-42,-235,-280,-268,-196,-126
-17,-87,-70,53,26,-78,-42,-229,-274,-268,-190,-126
-23,-87,-64,53,20,-78,-42,-223,-268,-256,-184,-126
-23,-75,-52,47,14,-66,-37,-211,-256,-244,-178,-126
-29,-75,-46,53,8,-60,-32,-205,-250,-238,-172,-126
-29,-69,-40,47,2,-54,-26,-199,-238,-232,-166,-120
-41,-75,-34,59,-4,-54,-20,-187,-226,-220,-166,-120
-47,-63,-16,53,-16,-42,-14,-169,-214,-214,-160,-120
-53,-57,-4,53,-26,-30,-8,-157,-196,-196,-148,-114
-59,-57,2,53,-32,-30,4,-139,-178,-184,-136,-108
-65,-57,8,59,-38,-24,16,-115,-154,-166,-124,-108
-71,-57,14,59,-44,-24,28,-97,-136,-148,-112,-102
-77,-63,14,71,-44,-24,46,-67,-106,-124,-100,-102
-83,-63,20,71,-50,-24,70,-32,-70,-106,-88,-102
-83,-63,20,71,-50,-24,88,-3,-40,-82,-76,-102
-83,-75,8,77,-44,-36,106,27,-18,-64,-76,-108
-89,-93,-4,89,-44,-48,124,51,0,-46,-70,-114
-95,-111,-16,101,-38,-66,142,75,18,-34,-70,-126
-95,-129,-34,107,-32,-84,160,105,36,-22,-76,-132
-89,-153,-64,119,-16,-108,184,129,54,-17,-76,-144
-89,-177,-88,131,-4,-132,214,171,84,-6,-76,-150
-101,-201,-100,149,-4,-150,256,213,108,12,-76,-162
-101,-219,-118,161,8,-168,304,261,144,36,-70,-174
-113,-237,-124,173,2,-180,358,315,174,60,-58,-180
-119,-255,-136,185,8,-198,400,363,210,84,-46,-174
-113,-279,-166,197,26,-222,442,411,252,102,-29,-168
-113,-297,-184,203,32,-240,484,483,300,138,-6,-156
-101,-333,-232,215,62,-282,520,573,378,198,36,-138
-83,-363,-280,221,98,-324,562,705,498,300,108,-96
-71,-381,-310,221,116,-348,616,867,648,444,216,-36
-53,-375,-322,215,134,-348,664,1023,828,630,354,46
-17,-363,-346,191,164,-354,688,1179,1014,828,510,148
23,-351,-376,167,200,-360,688,1323,1224,1050,678,256
77,-321,-400,119,236,-360,664,1461,1452,1302,870,370
149,-273,-424,59,284,-348,616,1593,1710,1578,1068,496
227,-207,-436,-7,332,-318,532,1707,1992,1878,1284,640
299,-111,-412,-89,356,-258,442,1827,2310,2214,1524,796
365,-3,-370,-179,368,-186,340,1953,2645,2573,1770,952
431,121,-310,-269,374,-90,232,2073,2975,2927,2010,1108
491,247,-244,-365,368,6,118,2145,3263,3257,2238,1246
533,367,-166,-449,350,100,16,2211,3545,3575,2453,1372
545,463,-82,-503,314,190,-48,2271,3821,3899,2645,1474
539,517,-22,-521,284,250,-102,2283,4055,4169,2795,1552
533,523,-10,-527,272,256,-126,2223,4193,4319,2855,1564
491,493,2,-485,248,250,-132,2109,4181,4301,2795,1510
443,445,2,-437,224,226,-126,1923,4031,4127,2633,1402
383,391,8,-383,188,202,-108,1713,3785,3833,2405,1258
311,319,8,-311,152,166,-78,1479,3443,3431,2094,1060
209,235,26,-221,92,130,-37,1191,2957,2903,1698,814
95,139,44,-113,26,94,-2,891,2411,2328,1290,562
11,56,44,-30,-16,53,34,615,1878,1782,918,334
-53,-21,32,35,-44,6,64,351,1338,1260,594,148
-113,-93,20,101,-68,-36,88,81,786,762,318,4
-155,-135,20,143,-86,-60,106,-109,360,384,120,-96
-161,-159,2,161,-80,-78,118,-223,114,156,0,-144
-173,-177,-4,173,-86,-90,124,-289,-29,12,-64,-168
-179,-165,14,167,-98,-78,124,-319,-100,-76,-106,-174
-179,-147,32,161,-104,-60,118,-325,-136,-124,-124,-162
-179,-111,66,143,-122,-24,106,-325,-154,-154,-136,-156
-167,-81,84,119,-128,0,94,-307,-166,-166,-142,-144
-149,-51,96,101,-122,24,82,-295,-172,-166,-142,-132
-131,-33,96,77,-116,30,70,-271,-172,-160,-136,-120
-119,-27,90,71,-104,30,52,-247,-178,-166,-136,-114
-101,-21,78,59,-92,30,46,-223,-178,-172,-130,-102
-89,-21,66,53,-80,24,40,-205,-178,-178,-130,-90
-77,-27,49,53,-62,12,34,-193,-184,-190,-130,-84
-71,-27,44,47,-56,6,28,-187,-190,-208,-136,-78
-59,-33,26,41,-44,-6,22,-181,-196,-220,-142,-78
-53,-33,20,41,-38,-6,22,-181,-202,-232,-148,-78
-53,-39,14,47,-32,-12,22,-175,-208,-238,-154,-78
-53,-45,8,47,-32,-18,16,-169,-214,-244,-160,-78
-47,-51,-4,47,-21,-30,10,-163,-220,-250,-166,-84
-47,-57,-10,47,-21,-36,4,-169,-226,-250,-172,-90
-41,-57,-16,47,-16,-36,-2,-169,-232,-256,-178,-96
-47,-57,-10,47,-21,-36,-8,-169,-238,-262,-178,-96
-35,-57,-22,41,-10,-42,-8,-169,-244,-262,-184,-96
-23,-51,-28,35,2,-42,-14,-175,-256,-268,-190,-102
-29,-51,-22,41,-4,-36,-14,-169,-256,-274,-184,-96
-29,-51,-22,41,-4,-36,-14,-169,-262,-274,-184,-96
-29,-57,-28,41,-4,-42,-14,-175,-262,-280,-190,-96
-35,-57,-22,41,-10,-42,-14,-175,-268,-286,-190,-90
-35,-57,-22,41,-10,-42,-20,-175,-262,-286,-184,-84
-35,-57,-22,41,-10,-42,-20,-169,-262,-286,-184,-84
-23,-51,-28,35,2,-42,-20,-169,-262,-286,-184,-90
-11,-45,-34,23,8,-42,-26,-163,-262,-286,-178,-84
-11,-45,-34,23,8,-42,-26,-169,-262,-292,-184,-90
-11,-45,-34,23,8,-42,-32,-169,-274,-292,-190,-90
-17,-45,-28,29,2,-36,-26,-163,-268,-292,-184,-90
-23,-51,-28,35,2,-42,-26,-157,-268,-292,-184,-90
-23,-45,-22,29,-4,-36,-26,-157,-262,-286,-178,-90
-23,-39,-16,29,-4,-30,-26,-151,-256,-286,-178,-84
-17,-33,-16,23,-4,-24,-26,-151,-256,-280,-172,-78
-17,-33,-16,23,-4,-24,-26,-151,-256,-280,-172,-72
-23,-33,-10,23,-10,-24,-26,-145,-250,-274,-166,-72
-23,-33,-10,23,-10,-24,-32,-145,-256,-274,-166,-72
-11,-21,-10,11,-4,-18,-32,-139,-256,-280,-166,-72
-5,-3,2,5,-4,0,-26,-133,-250,-274,-166,-72
6,-3,-10,-1,8,-6,-26,-133,-250,-274,-166,-72
1,-9,-10,-1,2,-12,-32,-127,-250,-274,-166,-66
6,3,-4,-7,2,0,-32,-121,-244,-268,-160,-66
1,3,2,-7,-4,0,-32,-121,-238,-268,-160,-66
1,15,14,-13,-10,12,-26,-115,-238,-262,-160,-66
1,21,20,-13,-10,18,-26,-115,-238,-262,-154,-66
6,27,20,-19,-10,24,-20,-115,-238,-262,-160,-66
6,27,20,-19,-10,24,-20,-115,-238,-262,-160,-60
6,27,20,-19,-10,24,-20,-115,-232,-262,-160,-54
17,21,2,-19,8,12,-20,-115,-232,-268,-166,-60
23,21,-4,-19,14,12,-20,-115,-232,-268,-166,-60
11,21,8,-13,2,18,-20,-103,-226,-256,-154,-60
-5,21,26,-7,-16,24,-20,-97,-226,-250,-154,-54
-11,21,32,-7,-21,24,-26,-91,-226,-250,-154,-60
-11,21,32,-7,-21,24,-32,-85,-226,-250,-160,-60
-17,15,32,-1,-26,24,-32,-85,-226,-250,-160,-66
-11,27,38,-13,-26,30,-32,-85,-226,-250,-154,-60
-5,27,32,-13,-21,30,-26,-85,-220,-244,-154,-54
1,33,32,-19,-16,30,-26,-79,-220,-244,-154,-54
6,33,26,-19,-10,30,-20,-79,-220,-244,-148,-48
11,33,20,-19,-4,30,-26,-73,-220,-244,-142,-42
11,33,20,-19,-4,30,-26,-67,-208,-238,-136,-36
6,27,20,-19,-10,24,-26,-55,-202,-232,-136,-31
6,27,20,-19,-10,24,-26,-49,-196,-226,-136,-31
6,27,20,-19,-10,24,-26,-43,-184,-220,-130,-31
6,27,20,-19,-10,24,-20,-32,-178,-208,-130,-26
1,21,20,-13,-10,18,-14,-27,-172,-196,-124,-20
6,15,8,-13,-4,12,-8,-21,-160,-190,-118,-14
6,9,2,-7,2,6,4,-15,-154,-190,-112,-8
11,3,-10,-7,8,0,10,-3,-142,-184,-100,-2
11,-3,-16,-1,14,-6,16,9,-142,-178,-94,-2
11,-3,-16,-1,14,-6,10,21,-136,-172,-94,4
23,3,-22,-13,20,-6,10,27,-124,-172,-88,10
23,-3,-28,-7,26,-12,10,39,-118,-166,-82,16
23,-3,-28,-7,26,-12,10,45,-112,-154,-76,22
17,-3,-22,-7,20,-12,10,57,-100,-148,-70,34
17,-9,-28,-7,20,-18,16,63,-94,-136,-64,34
17,-9,-28,-7,20,-18,16,69,-82,-130,-52,46
23,-9,-34,-7,26,-18,16,75,-76,-124,-46,52
23,-9,-34,-7,26,-18,22,87,-64,-112,-40,58
29,-3,-34,-13,32,-18,28,99,-58,-106,-29,64
35,3,-34,-19,32,-12,34,111,-46,-100,-24,76
41,9,-34,-25,38,-12,34,123,-40,-94,-12,82
41,15,-28,-30,32,-6,40,141,-34,-82,-6,88
41,27,-16,-35,26,6,46,153,-24,-70,6,100
53,33,-22,-41,38,6,46,165,-12,-58,12,112
47,39,-10,-41,26,18,46,183,0,-46,30,118
47,51,2,-47,20,30,46,189,12,-28,42,130
53,56,2,-53,26,30,46,201,24,-22,54,136
65,67,2,-65,32,36,52,213,36,-17,66,142
65,79,14,-71,26,48,58,225,48,-6,78,142
77,91,14,-83,32,53,52,231,54,0,90,148
77,97,20,-83,32,58,52,237,66,12,96,154
71,109,38,-83,20,76,58,249,78,30,102,166
65,115,49,-89,8,82,58,267,96,42,114,178
71,133,60,-95,8,100,58,273,108,54,120,184
77,151,72,-113,2,112,64,279,114,66,120,184
77,163,84,-119,-4,124,64,297,132,84,138,190
77,175,96,-125,-10,136,64,309,144,102,150,202
89,193,102,-137,-4,148,64,321,156,114,162,208
89,205,114,-143,-10,160,64,327,168,120,174,214
89,217,126,-149,-16,172,58,339,180,132,180,220
89,229,138,-155,-21,184,58,351,192,144,192,226
89,247,156,-167,-32,202,58,357,204,156,204,232
89,253,162,-167,-32,208,52,363,216,174,210,238
83,259,174,-167,-44,220,58,363,228,192,210,244
83,271,186,-173,-50,232,64,375,240,210,222,244
95,289,192,-185,-44,244,70,381,258,222,228,250
107,301,192,-197,-38,250,70,387,264,234,234,256
107,307,198,-203,-44,256,76,393,276,240,246,262
107,313,204,-203,-44,262,76,399,282,252,258,268
101,319,216,-209,-56,268,76,399,294,258,258,268
101,325,222,-209,-56,274,76,405,306,270,264,262
101,331,228,-215,-62,280,76,405,318,282,270,262
95,331,234,-209,-68,286,70,411,330,288,276,262
89,331,240,-209,-74,286,76,411,342,300,282,262
89,331,240,-209,-74,286,76,411,348,306,282,262
89,337,246,-209,-74,292,76,405,354,312,288,262
95,343,246,-215,-74,298,76,399,360,324,294,262
95,343,246,-215,-74,298,76,393,360,330,294,256
95,337,240,-209,-68,292,76,381,354,330,288,256
95,325,228,-203,-62,280,76,369,354,330,282,250
89,313,222,-197,-62,268,76,357,348,324,276,244
83,301,216,-185,-62,262,76,345,342,312,264,232
77,301,222,-185,-68,262,76,333,330,300,252,220
71,289,216,-173,-68,256,76,315,312,288,240,208
71,277,204,-167,-62,244,70,291,294,270,228,196
65,271,204,-167,-68,238,70,267,276,252,210,178
59,259,198,-155,-68,232,64,243,258,234,192,166
65,259,192,-161,-62,226,58,219,234,210,174,148
65,247,180,-155,-56,214,58,201,210,192,156,130
53,235,180,-143,-62,208,52,177,186,168,132,112
47,229,180,-131,-62,208,52,159,168,150,120,100
47,217,168,-125,-56,196,46,141,144,126,102,88
41,199,156,-119,-56,178,34,123,120,96,84,70
29,187,156,-107,-62,172,28,105,90,72,66,58
17,169,150,-89,-62,160,28,81,66,54,48,46
11,157,144,-77,-62,154,22,63,42,30,30,34
6,145,138,-71,-62,142,16,45,24,12,18,28
6,133,126,-65,-56,130,16,27,6,-6,6,16
6,127,120,-65,-56,124,10,9,-6,-22,-12,4
1,115,114,-59,-56,112,10,-9,-24,-40,-29,-14
1,109,108,-53,-50,106,4,-27,-40,-58,-40,-26
6,103,96,-53,-44,100,4,-32,-52,-70,-52,-31
1,91,90,-47,-44,88,-2,-43,-70,-82,-58,-36
1,85,84,-41,-38,82,-2,-55,-82,-94,-64,-42
1,73,72,-35,-32,70,-2,-61,-94,-100,-76,-54
1,73,72,-35,-32,70,-2,-67,-106,-112,-88,-54
1,73,72,-35,-32,70,4,-79,-112,-118,-94,-60
1,67,66,-35,-32,64,4,-85,-124,-130,-100,-66
-5,56,60,-25,-32,58,-2,-91,-136,-142,-112,-72
-11,51,60,-25,-38,53,-8,-97,-148,-154,-118,-72
-11,45,54,-19,-32,48,-8,-103,-154,-160,-124,-78
-11,33,44,-13,-26,36,-8,-109,-154,-166,-124,-78
-11,27,38,-13,-26,30,-8,-115,-160,-166,-130,-78
-11,21,32,-7,-21,24,-8,-121,-160,-166,-130,-78
-11,15,26,-7,-21,18,-2,-121,-160,-172,-130,-84
-11,15,26,-7,-21,18,4,-121,-166,-172,-130,-84
-11,9,20,-1,-16,12,4,-121,-172,-178,-130,-90
-11,9,20,-1,-16,12,4,-115,-172,-178,-130,-96
-11,9,20,-1,-16,12,4,-115,-172,-178,-130,-102
-17,-3,14,11,-16,6,-2,-121,-172,-178,-130,-96
-23,-15,8,17,-16,-6,-2,-121,-178,-184,-136,-96
-29,-21,8,23,-21,-6,-2,-127,-178,-178,-142,-96
-17,-27,-10,23,-4,-18,-2,-127,-172,-178,-142,-90
-17,-21,-4,17,-10,-12,-2,-127,-172,-178,-142,-90
-17,-27,-10,23,-4,-18,4,-121,-160,-172,-142,-90
-11,-33,-22,17,2,-30,4,-121,-160,-172,-142,-90
-17,-39,-22,29,2,-30,4,-121,-166,-172,-142,-96
-5,-45,-40,23,14,-42,4,-121,-166,-178,-148,-96
1,-51,-52,23,26,-54,4,-115,-172,-184,-142,-96
-11,-57,-46,29,14,-54,4,-115,-172,-178,-142,-96
-23,-57,-34,35,2,-48,10,-115,-166,-172,-142,-90
-17,-57,-40,35,8,-48,16,-115,-166,-178,-142,-90
-17,-63,-46,41,14,-54,16,-115,-166,-178,-142,-96
-29,-69,-40,47,2,-54,16,-115,-166,-172,-136,-96
-35,-75,-40,53,2,-60,16,-115,-166,-172,-136,-96
-41,-81,-40,59,-4,-60,16,-109,-166,-172,-142,-96
-41,-87,-46,65,2,-66,10,-109,-160,-172,-142,-96
-41,-93,-52,65,2,-72,10,-109,-160,-172,-136,-96
-35,-93,-58,59,8,-78,10,-109,-160,-172,-136,-96
-35,-93,-58,59,8,-78,16,-109,-154,-166,-130,-90
-35,-99,-64,65,14,-84,22,-109,-154,-166,-130,-90
-35,-99,-64,65,14,-84,22,-109,-154,-166,-136,-90
-29,-93,-64,59,14,-78,22,-109,-148,-160,-130,-84
-35,-87,-52,59,8,-72,22,-109,-142,-154,-130,-84
-41,-87,-46,65,2,-66,22,-109,-142,-160,-130,-84
-35,-81,-46,53,2,-66,28,-103,-136,-160,-130,-84
-29,-81,-52,53,8,-66,28,-97,-142,-166,-130,-84
-23,-81,-58,47,14,-72,28,-103,-142,-166,-130,-90
-23,-75,-52,47,14,-66,34,-97,-136,-166,-130,-84
-23,-81,-58,47,14,-72,34,-103,-142,-166,-124,-84
-17,-81,-64,47,20,-72,28,-103,-142,-166,-124,-84
-17,-87,-70,53,26,-78,28,-109,-142,-160,-124,-78
-17,-87,-70,53,26,-78,28,-109,-136,-154,-118,-72
-23,-93,-70,53,20,-84,22,-109,-142,-154,-118,-72
-23,-87,-64,53,20,-78,22,-109,-142,-154,-118,-66
-23,-81,-58,47,14,-72,22,-103,-142,-154,-112,-66
-23,-81,-58,47,14,-72,22,-103,-142,-154,-112,-72
-23,-81,-58,47,14,-72,22,-103,-142,-160,-112,-72
-29,-75,-46,53,8,-60,28,-103,-142,-160,-112,-72
-29,-75,-46,53,8,-60,28,-109,-142,-160,-112,-72
-23,-69,-46,41,8,-60,28,-109,-142,-160,-112,-66
-11,-63,-52,35,20,-60,22,-109,-148,-160,-112,-66
-5,-57,-52,29,20,-54,16,-109,-154,-154,-112,-60
-17,-51,-34,35,8,-42,16,-109,-154,-154,-106,-60
-23,-45,-22,29,-4,-36,10,-109,-154,-154,-106,-60
-29,-45,-16,35,-10,-30,4,-109,-154,-160,-112,-60
-35,-45,-10,35,-16,-30,-2,-109,-160,-160,-112,-66
-35,-39,-4,35,-16,-24,4,-115,-160,-166,-112,-66
-23,-33,-10,23,-10,-24,10,-115,-160,-166,-112,-66
-17,-33,-16,23,-4,-24,16,-121,-160,-166,-112,-66
-17,-33,-16,23,-4,-24,16,-121,-166,-166,-112,-66
-11,-27,-16,17,2,-24,10,-121,-172,-166,-112,-66
-11,-27,-16,17,2,-24,4,-127,-172,-160,-112,-66
-11,-33,-22,17,2,-30,4,-127,-172,-154,-112,-60
-11,-27,-16,17,2,-24,4,-127,-172,-154,-112,-60
-17,-27,-10,23,-4,-18,-2,-127,-178,-154,-112,-60
-23,-27,-4,23,-10,-18,-2,-133,-178,-160,-112,-66
-23,-27,-4,23,-10,-18,-2,-127,-184,-160,-106,-60
-23,-21,2,17,-16,-12,-2,-127,-184,-160,-106,-60
-23,-27,-4,23,-10,-18,-8,-127,-184,-166,-112,-66
-23,-21,2,17,-16,-12,-8,-127,-190,-172,-112,-66
-23,-21,2,17,-16,-12,-8,-127,-190,-172,-112,-66
-23,-21,2,17,-16,-12,-14,-133,-190,-178,-118,-66
-17,-15,2,17,-10,-6,-14,-133,-190,-178,-118,-60
-17,-9,8,11,-16,0,-8,-133,-190,-178,-118,-60
-23,-9,14,11,-21,0,-14,-133,-196,-184,-118,-60
-35,-15,20,23,-26,0,-14,-133,-196,-184,-118,-66
-35,-9,26,17,-32,6,-8,-139,-196,-184,-118,-66
-35,-9,26,17,-32,6,-14,-139,-202,-184,-118,-66
-41,-15,26,29,-32,6,-14,-139,-202,-184,-118,-66
-29,-9,20,17,-26,6,-14,-139,-202,-184,-112,-72
-17,3,20,5,-21,12,-14,-139,-196,-184,-106,-66
-11,3,14,-1,-16,6,-14,-139,-196,-184,-106,-66
-17,-3,14,11,-16,6,-14,-145,-196,-190,-112,-66
-23,-3,20,11,-21,6,-14,-151,-202,-190,-112,-72
-23,-3,20,11,-21,6,-14,-157,-202,-190,-106,-72
-29,-3,26,17,-26,12,-14,-157,-202,-184,-106,-72
-29,-3,26,17,-26,12,-14,-157,-208,-190,-106,-72
-29,-9,20,17,-26,6,-14,-157,-208,-190,-112,-78
-29,-3,26,17,-26,12,-8,-157,-208,-190,-106,-72
-23,-3,20,11,-21,6,-14,-163,-208,-190,-112,-72
-29,-9,20,17,-26,6,-14,-163,-208,-190,-118,-72
-29,-9,20,17,-26,6,-20,-169,-208,-196,-118,-72
-29,-15,14,23,-21,0,-20,-169,-214,-196,-118,-72
-29,-15,14,23,-21,0,-20,-175,-214,-202,-124,-78
-35,-15,20,23,-26,0,-20,-175,-214,-202,-124,-72
-29,-15,14,23,-21,0,-14,-175,-214,-202,-124,-72
-17,-15,2,17,-10,-6,-14,-175,-220,-202,-124,-72
-11,-21,-10,11,-4,-18,-14,-175,-226,-202,-124,-78
-17,-33,-16,23,-4,-24,-14,-175,-226,-202,-118,-72
-29,-39,-10,35,-10,-24,-20,-175,-226,-202,-118,-72
-23,-39,-16,29,-4,-30,-20,-175,-226,-202,-118,-72
-29,-39,-10,35,-10,-24,-26,-175,-232,-208,-118,-72
-35,-45,-10,35,-16,-30,-26,-181,-238,-208,-118,-78
-47,-51,-4,47,-21,-30,-26,-187,-238,-214,-124,-78
-47,-57,-10,47,-21,-36,-26,-187,-238,-220,-130,-84
-47,-69,-22,53,-16,-48,-26,-187,-238,-220,-136,-84
-41,-75,-34,59,-4,-54,-20,-187,-244,-226,-142,-90
-35,-75,-40,53,2,-60,-20,-187,-244,-226,-142,-102
-29,-75,-46,53,8,-60,-32,-193,-250,-232,-142,-102
-29,-75,-46,53,8,-60,-37,-199,-256,-238,-148,-108
-29,-81,-52,53,8,-66,-42,-199,-256,-238,-148,-108
-35,-81,-46,53,2,-66,-42,-199,-250,-226,-142,-108
-41,-87,-46,65,2,-66,-42,-205,-244,-220,-142,-102
-41,-87,-46,65,2,-66,-37,-205,-244,-220,-142,-102
-47,-87,-40,65,-4,-66,-37,-205,-244,-220,-142,-102
-47,-87,-40,65,-4,-66,-37,-205,-256,-220,-148,-102
-47,-93,-46,65,-4,-72,-32,-211,-262,-220,-154,-108
-53,-99,-46,77,-4,-72,-32,-211,-268,-220,-154,-108
-53,-99,-46,77,-4,-72,-37,-211,-268,-226,-154,-108
-59,-105,-46,77,-10,-78,-37,-217,-268,-232,-160,-114
-59,-117,-58,83,-4,-90,-42,-217,-274,-238,-160,-114
-65,-123,-58,95,-4,-90,-42,-217,-274,-244,-160,-120
-65,-129,-64,95,-4,-96,-48,-223,-274,-244,-166,-120
-53,-123,-70,89,8,-96,-42,-223,-274,-244,-166,-114
-47,-123,-76,83,14,-102,-42,-223,-274,-244,-166,-114
-29,-117,-88,71,26,-102,-42,-223,-274,-244,-166,-108
-29,-111,-82,71,26,-96,-42,-217,-274,-238,-166,-102
-35,-111,-76,71,20,-96,-37,-223,-274,-238,-172,-102
-29,-111,-82,71,26,-96,-37,-217,-274,-238,-172,-108
-29,-105,-76,65,20,-90,-37,-217,-274,-238,-172,-108
-29,-105,-76,65,20,-90,-32,-217,-274,-238,-172,-108
-23,-105,-82,59,26,-96,-37,-217,-274,-238,-172,-108
-23,-105,-82,59,26,-96,-42,-223,-274,-244,-172,-114
-23,-105,-82,59,26,-96,-42,-217,-280,-244,-172,-114
-35,-105,-70,65,14,-90,-42,-217,-280,-244,-178,-114
-41,-111,-70,77,14,-90,-48,-223,-280,-250,-184,-120
-41,-111,-70,77,14,-90,-42,-229,-286,-256,-184,-126
-41,-105,-64,71,8,-84,-42,-229,-286,-256,-190,-126
-35,-99,-64,65,14,-84,-42,-235,-286,-250,-184,-126
-29,-99,-70,65,20,-84,-37,-229,-286,-250,-184,-126
-35,-99,-64,65,14,-84,-42,-229,-286,-250,-178,-126
-29,-99,-70,65,20,-84,-42,-229,-286,-250,-178,-126
-29,-93,-64,59,14,-78,-48,-235,-286,-250,-178,-126
-41,-87,-46,65,2,-66,-42,-229,-286,-250,-178,-126
-47,-81,-34,59,-10,-60,-42,-229,-280,-250,-184,-126
-41,-81,-40,59,-4,-60,-48,-235,-280,-250,-184,-126
-41,-81,-40,59,-4,-60,-48,-235,-286,-256,-190,-132
-41,-81,-40,59,-4,-60,-54,-235,-292,-262,-190,-132
-47,-81,-34,59,-10,-60,-54,-241,-292,-268,-190,-138
-41,-75,-34,59,-4,-54,-48,-241,-292,-268,-190,-132
-41,-75,-34,59,-4,-54,-48,-235,-292,-268,-184,-132
-41,-75,-34,59,-4,-54,-48,-235,-298,-268,-184,-132
-41,-69,-28,53,-10,-48,-48,-235,-292,-268,-184,-132
-41,-63,-22,53,-10,-42,-54,-235,-298,-268,-190,-132
-41,-63,-22,53,-10,-42,-60,-241,-298,-274,-190,-132
-41,-63,-22,53,-10,-42,-66,-241,-304,-274,-196,-126
-47,-63,-16,53,-16,-42,-66,-241,-304,-274,-202,-126
-53,-63,-10,59,-21,-36,-66,-235,-304,-274,-196,-126
-53,-63,-10,59,-21,-36,-60,-235,-304,-274,-196,-132
-47,-63,-16,53,-16,-42,-60,-235,-304,-274,-196,-132
-41,-57,-16,47,-16,-36,-60,-235,-304,-274,-190,-132
-41,-57,-16,47,-16,-36,-60,-235,-304,-274,-190,-132
-41,-57,-16,47,-16,-36,-54,-235,-304,-274,-190,-132
-35,-51,-16,41,-10,-36,-54,-235,-304,-268,-190,-126
-29,-45,-16,35,-10,-30,-54,-235,-304,-268,-190,-126
-23,-39,-16,29,-4,-30,-54,-235,-304,-262,-190,-120
-29,-39,-10,35,-10,-24,-48,-223,-298,-250,-184,-126
-53,-39,14,47,-32,-12,-42,-211,-280,-244,-178,-120
-59,-33,26,41,-44,-6,-37,-205,-274,-244,-172,-114
-65,-21,44,41,-56,12,-26,-199,-262,-238,-166,-114
-53,-9,44,29,-50,18,-20,-187,-250,-232,-154,-102
-41,9,49,17,-44,30,-14,-181,-244,-226,-148,-96
-35,15,49,5,-44,30,-8,-181,-238,-220,-142,-96
-35,21,54,5,-44,36,4,-169,-232,-208,-136,-90
-41,27,66,5,-56,48,10,-169,-226,-202,-130,-84
-35,33,66,-1,-50,48,16,-163,-226,-202,-130,-78
-23,33,54,-7,-38,42,16,-163,-226,-202,-130,-78
-11,33,44,-13,-26,36,10,-163,-226,-196,-136,-78
1,39,38,-25,-21,36,10,-169,-214,-190,-130,-72
-17,39,54,-13,-38,48,10,-163,-202,-184,-124,-66
-17,33,49,-7,-32,42,4,-163,-196,-184,-118,-60
-11,33,44,-13,-26,36,-8,-157,-196,-184,-106,-54
-5,33,38,-13,-21,36,-14,-157,-196,-178,-94,-48
1,39,38,-25,-21,36,-20,-157,-196,-172,-88,-42
6,39,32,-25,-16,36,-32,-157,-196,-172,-88,-36
6,33,26,-19,-10,30,-42,-151,-196,-166,-94,-31
6,33,26,-19,-10,30,-42,-151,-190,-160,-94,-31
6,27,20,-19,-10,24,-48,-157,-184,-154,-88,-26
17,27,8,-25,2,18,-48,-151,-184,-154,-82,-20
17,27,8,-25,2,18,-48,-157,-178,-148,-76,-20
17,21,2,-19,8,12,-48,-163,-184,-154,-76,-20
23,15,-10,-19,14,6,-54,-169,-190,-160,-76,-26
29,9,-22,-19,26,-6,-60,-169,-196,-160,-82,-31
23,3,-22,-13,20,-6,-66,-175,-196,-166,-88,-31
23,-3,-28,-7,26,-12,-72,-181,-208,-178,-94,-36
11,-9,-22,-1,14,-12,-78,-187,-208,-184,-100,-36
11,-21,-34,5,20,-24,-72,-193,-220,-190,-112,-42
6,-27,-34,11,20,-30,-72,-205,-226,-196,-112,-48
6,-51,-58,23,32,-54,-78,-217,-238,-208,-118,-60
-5,-63,-58,35,26,-60,-78,-223,-250,-214,-124,-66
-11,-81,-70,41,26,-78,-72,-223,-262,-220,-130,-72
-17,-87,-70,53,26,-78,-72,-223,-268,-226,-136,-84
-29,-99,-70,65,20,-84,-72,-223,-274,-232,-142,-84
-41,-111,-70,77,14,-90,-66,-229,-274,-232,-142,-90
-53,-111,-58,83,2,-84,-72,-235,-280,-238,-148,-96
-59,-117,-58,83,-4,-90,-66,-241,-280,-238,-154,-96
-65,-123,-58,95,-4,-90,-60,-241,-280,-238,-154,-96
-59,-123,-64,89,2,-96,-60,-241,-280,-244,-154,-96
-59,-123,-64,89,2,-96,-60,-241,-280,-244,-154,-102
-59,-129,-70,89,2,-102,-60,-241,-286,-244,-160,-102
-71,-129,-58,95,-10,-96,-54,-247,-286,-250,-166,-108
-65,-129,-64,95,-4,-96,-54,-247,-292,-256,-166,-108
-65,-129,-64,95,-4,-96,-54,-253,-298,-262,-172,-108
-59,-129,-70,89,2,-102,-54,-253,-298,-262,-178,-114
-59,-129,-70,89,2,-102,-60,-253,-298,-262,-184,-114
-65,-135,-70,101,2,-102,-66,-259,-304,-268,-184,-114
-65,-135,-70,101,2,-102,-66,-259,-304,-268,-190,-120
-71,-141,-70,101,-4,-108,-72,-259,-304,-268,-190,-126
-77,-147,-70,113,-4,-108,-72,-265,-304,-268,-190,-126
-71,-147,-76,107,2,-114,-78,-265,-304,-274,-190,-126
-65,-141,-76,101,2,-108,-78,-271,-310,-274,-190,-120
-59,-141,-82,95,8,-114,-78,-271,-316,-280,-196,-114
-53,-135,-82,95,14,-108,-78,-271,-316,-274,-190,-114
-59,-129,-70,89,2,-102,-72,-271,-310,-268,-184,-108
-65,-129,-64,95,-4,-96,-66,-259,-304,-256,-178,-108
-71,-117,-46,89,-16,-84,-66,-259,-298,-256,-178,-108
-71,-117,-46,89,-16,-84,-66,-259,-292,-262,-178,-114
-77,-111,-34,95,-21,-72,-66,-253,-280,-256,-172,-120
-83,-105,-22,89,-32,-66,-54,-241,-274,-250,-166,-120
-89,-99,-10,95,-38,-54,-54,-235,-262,-238,-160,-114
-89,-93,-4,89,-44,-48,-37,-223,-250,-226,-154,-114
-95,-93,2,89,-50,-48,-32,-211,-244,-214,-148,-102
-101,-87,14,95,-56,-36,-26,-199,-232,-208,-142,-102
-95,-87,8,89,-50,-42,-14,-187,-226,-196,-136,-102
-101,-87,14,95,-56,-36,-8,-169,-208,-184,-136,-102
-107,-87,20,95,-62,-36,-2,-151,-190,-172,-130,-102
-107,-81,26,89,-68,-30,4,-127,-166,-154,-118,-102
-113,-81,32,95,-74,-24,16,-97,-130,-136,-106,-102
-125,-87,38,107,-80,-24,34,-61,-100,-112,-94,-102
-131,-87,44,107,-86,-24,52,-32,-70,-88,-88,-102
-137,-99,38,119,-86,-30,76,-9,-46,-76,-76,-108
-137,-105,32,119,-86,-36,100,27,-24,-52,-70,-108
-143,-117,26,125,-86,-48,124,57,0,-34,-64,-120
-137,-135,2,137,-68,-66,148,87,18,-28,-70,-126
-143,-159,-16,149,-62,-90,166,111,36,-17,-76,-138
-143,-189,-46,161,-50,-120,190,141,54,-17,-82,-150
-149,-219,-70,185,-38,-144,220,177,78,-12,-82,-168
-149,-237,-88,191,-32,-162,256,213,102,0,-82,-186
-143,-249,-106,191,-21,-180,298,261,132,24,-70,-186
-137,-261,-124,197,-10,-192,346,309,162,54,-52,-180
-137,-279,-142,209,2,-210,388,363,204,84,-34,-168
-137,-309,-172,221,14,-240,430,429,246,120,-18,-150
-131,-339,-208,233,38,-276,472,525,324,174,24,-132
-125,-375,-250,251,62,-312,526,657,438,270,84,-90
-113,-387,-274,251,80,-330,574,807,588,402,186,-31
-83,-393,-310,233,110,-354,616,963,756,570,318,46
-47,-387,-340,215,146,-366,634,1113,936,762,468,136
1,-375,-376,185,188,-378,634,1251,1134,966,630,232
65,-345,-412,137,236,-378,604,1389,1356,1212,804,340
137,-303,-442,83,290,-372,562,1521,1608,1482,996,460
209,-243,-454,17,332,-348,496,1641,1878,1776,1194,586
275,-147,-424,-59,350,-282,412,1755,2178,2100,1422,730
341,-39,-382,-149,362,-210,322,1881,2501,2435,1662,886
407,79,-328,-239,368,-120,226,2001,2825,2771,1890,1036
461,193,-268,-323,368,-36,124,2085,3119,3083,2112,1168
509,307,-202,-407,356,53,16,2151,3395,3395,2322,1294
539,391,-148,-461,344,124,-66,2229,3683,3701,2507,1396
551,439,-112,-491,332,166,-132,2259,3929,3971,2657,1462
557,463,-94,-509,326,184,-156,2229,4085,4139,2717,1474
521,439,-82,-479,302,178,-162,2139,4115,4145,2657,1420
461,403,-58,-431,260,172,-144,1983,3995,3995,2507,1318
389,355,-34,-371,212,160,-108,1779,3773,3731,2292,1180
299,283,-16,-287,158,136,-66,1563,3467,3359,1998,994
185,193,8,-185,92,100,-20,1281,3017,2873,1644,772
71,103,32,-83,20,70,28,969,2483,2310,1260,538
-11,27,38,-13,-26,30,52,675,1938,1764,906,334
-77,-57,20,65,-50,-18,70,399,1398,1248,600,160
-137,-123,14,131,-74,-54,88,123,840,762,330,22
-179,-171,8,173,-92,-84,106,-97,390,378,132,-72
-197,-195,2,197,-98,-96,112,-223,126,150,0,-132
-209,-195,14,203,-110,-90,124,-295,-29,12,-70,-162
-221,-183,38,203,-128,-72,124,-325,-106,-64,-112,-168
-227,-159,66,191,-146,-48,118,-337,-142,-106,-124,-162
-233,-141,90,185,-164,-24,112,-331,-160,-130,-136,-144
-221,-117,102,167,-164,-6,94,-325,-172,-148,-130,-132
-197,-93,102,143,-152,6,70,-301,-178,-154,-124,-120
-173,-75,96,125,-134,12,52,-277,-184,-154,-118,-108
-149,-69,78,107,-116,6,34,-259,-190,-154,-112,-102
-131,-51,78,89,-104,12,28,-241,-190,-160,-112,-90
-113,-45,66,77,-92,12,22,-223,-196,-166,-118,-84
-101,-45,54,71,-80,6,16,-211,-196,-178,-124,-78
-89,-45,44,65,-68,0,10,-211,-208,-196,-130,-72
-89,-57,32,71,-62,-12,4,-211,-220,-214,-136,-72
-101,-63,38,83,-68,-12,4,-205,-232,-226,-142,-66
-95,-69,26,77,-62,-24,-8,-205,-244,-238,-142,-66
-95,-69,26,77,-62,-24,-14,-199,-256,-244,-142,-72
-89,-75,14,83,-50,-30,-20,-199,-262,-250,-148,-72
-83,-69,14,71,-50,-30,-20,-193,-268,-250,-154,-78
-77,-69,8,71,-44,-30,-20,-193,-274,-250,-160,-78
-77,-69,8,71,-44,-30,-20,-187,-268,-250,-160,-72
-77,-69,8,71,-44,-30,-26,-187,-268,-250,-160,-72
-71,-69,2,65,-38,-36,-32,-187,-268,-256,-160,-72
-71,-75,-4,71,-32,-42,-37,-193,-274,-262,-160,-72
-65,-81,-16,71,-26,-48,-37,-193,-274,-268,-160,-72
-65,-81,-16,71,-26,-48,-37,-199,-280,-274,-166,-72
-59,-81,-22,65,-21,-54,-37,-193,-280,-280,-166,-66
-59,-75,-16,65,-21,-48,-37,-193,-280,-280,-166,-72
-59,-75,-16,65,-21,-48,-37,-193,-280,-280,-166,-66
-65,-81,-16,71,-26,-48,-42,-193,-280,-280,-166,-66
-65,-81,-16,71,-26,-48,-54,-193,-274,-280,-166,-60
-65,-75,-10,71,-26,-42,-54,-187,-268,-280,-160,-60
-53,-69,-16,59,-21,-42,-54,-187,-268,-274,-154,-60
-53,-69,-16,59,-21,-42,-54,-187,-268,-274,-154,-60
-53,-69,-16,59,-21,-42,-42,-187,-268,-274,-160,-66
-53,-63,-10,59,-21,-36,-42,-181,-274,-274,-154,-66
-53,-63,-10,59,-21,-36,-42,-175,-274,-268,-154,-66
-65,-69,-4,65,-32,-36,-37,-175,-262,-268,-154,-66
-71,-75,-4,71,-32,-42,-37,-169,-262,-268,-148,-60
-71,-75,-4,71,-32,-42,-42,-169,-256,-262,-148,-54
-71,-81,-10,71,-32,-48,-42,-169,-256,-262,-142,-54
-53,-63,-10,59,-21,-36,-42,-163,-244,-256,-142,-48
-41,-51,-10,47,-16,-30,-42,-157,-244,-256,-142,-48
-53,-57,-4,53,-26,-30,-42,-157,-250,-256,-142,-48
-53,-63,-10,59,-21,-36,-42,-157,-256,-256,-148,-48
-47,-57,-10,47,-21,-36,-48,-157,-256,-262,-142,-48
-41,-57,-16,47,-16,-36,-48,-157,-256,-262,-142,-48
-41,-51,-10,47,-16,-30,-48,-163,-256,-262,-142,-48
-41,-51,-10,47,-16,-30,-54,-163,-256,-262,-136,-48
-47,-45,2,41,-26,-24,-54,-151,-250,-256,-130,-42
-53,-39,14,47,-32,-12,-48,-145,-250,-256,-130,-42
-53,-45,8,47,-32,-18,-48,-145,-250,-256,-136,-48
-53,-45,8,47,-32,-18,-48,-139,-250,-256,-136,-48
-53,-39,14,47,-32,-12,-48,-133,-250,-256,-136,-48
-41,-33,8,35,-26,-12,-48,-133,-244,-256,-142,-48
-29,-27,2,29,-16,-12,-48,-133,-244,-250,-142,-48
-23,-21,2,17,-16,-12,-42,-127,-238,-244,-136,-36
-29,-21,8,23,-21,-6,-42,-121,-238,-244,-136,-36
-29,-21,8,23,-21,-6,-42,-115,-232,-238,-136,-31
-29,-21,8,23,-21,-6,-42,-109,-226,-238,-136,-31
-29,-15,14,23,-21,0,-42,-97,-226,-232,-130,-31
-23,-9,14,11,-21,0,-42,-91,-220,-232,-130,-26
-23,-3,20,11,-21,6,-37,-91,-220,-232,-124,-26
-23,-9,14,11,-21,0,-37,-85,-220,-232,-124,-20
-23,-9,14,11,-21,0,-37,-79,-214,-226,-124,-20
-23,-9,14,11,-21,0,-42,-79,-208,-226,-124,-20
-29,-15,14,23,-21,0,-42,-73,-202,-220,-124,-26
-29,-21,8,23,-21,-6,-42,-73,-196,-214,-118,-20
-23,-15,8,17,-16,-6,-42,-61,-196,-208,-112,-20
-11,-15,-4,11,-4,-12,-42,-55,-190,-202,-112,-14
-11,-15,-4,11,-4,-12,-42,-43,-184,-202,-106,-8
-11,-15,-4,11,-4,-12,-42,-37,-184,-196,-100,-2
-5,-9,-4,5,-4,-6,-42,-32,-178,-196,-100,4
1,-3,-4,-1,2,-6,-42,-21,-172,-190,-94,4
1,-3,-4,-1,2,-6,-37,-15,-160,-184,-88,10
1,-3,-4,-1,2,-6,-32,-9,-154,-178,-82,16
1,-3,-4,-1,2,-6,-32,-3,-142,-172,-76,16
1,-3,-4,-1,2,-6,-20,9,-136,-166,-70,22
1,-9,-10,-1,2,-12,-20,15,-130,-160,-64,28
1,-9,-10,-1,2,-12,-20,21,-130,-154,-58,34
1,-9,-10,-1,2,-12,-14,33,-118,-142,-52,34
-5,-3,2,5,-4,0,-8,45,-106,-136,-52,40
1,3,2,-7,-4,0,-8,57,-94,-130,-46,52
1,9,8,-7,-4,6,-8,69,-88,-118,-34,58
6,15,8,-13,-4,12,-2,81,-76,-112,-29,64
11,21,8,-13,2,18,-2,87,-70,-106,-24,70
11,27,14,-19,-4,24,-2,99,-58,-100,-12,76
6,27,20,-19,-10,24,-2,105,-52,-94,-12,82
11,39,26,-25,-10,36,4,117,-46,-88,0,88
23,45,20,-30,2,36,-2,129,-40,-82,6,88
29,51,20,-41,2,36,4,141,-29,-70,12,94
17,56,38,-35,-10,48,4,153,-24,-52,24,106
1,61,60,-30,-26,58,10,165,-6,-40,36,118
-5,73,78,-30,-38,76,10,177,6,-28,48,130
6,91,84,-47,-38,88,10,189,18,-17,54,136
35,121,84,-71,-21,106,10,201,30,-6,66,148
41,133,90,-83,-21,112,10,213,42,6,78,160
41,133,90,-83,-21,112,4,219,48,18,84,166
41,145,102,-89,-26,124,10,231,60,30,102,178
47,163,114,-101,-32,142,16,243,66,48,114,184
47,175,126,-107,-38,154,22,261,84,60,126,190
53,193,138,-119,-38,166,34,273,102,78,138,196
59,205,144,-125,-38,178,34,279,114,90,144,196
71,211,138,-137,-32,178,34,285,126,102,150,202
71,223,150,-143,-38,190,40,297,138,114,162,208
71,235,162,-149,-44,202,46,303,150,126,168,214
77,241,162,-155,-38,202,46,315,162,132,174,220
83,259,174,-167,-44,220,46,321,174,144,186,226
95,271,174,-179,-38,226,46,327,180,156,192,232
83,283,198,-179,-56,244,52,339,204,180,210,238
77,295,216,-185,-68,256,58,351,216,192,222,250
77,307,228,-191,-74,268,64,357,234,210,228,250
71,313,240,-185,-80,280,64,363,246,222,240,256
65,313,246,-185,-86,280,64,369,264,234,246,256
71,319,246,-191,-86,286,64,381,276,246,252,262
77,331,252,-203,-86,292,64,387,282,252,258,262
89,343,252,-215,-80,298,64,387,294,264,264,262
89,349,258,-215,-80,304,64,399,300,270,270,262
89,349,258,-215,-80,304,76,399,318,288,282,262
83,349,264,-209,-86,310,76,399,324,300,288,256
83,349,264,-209,-86,310,82,399,336,312,288,256
71,343,270,-203,-98,310,82,393,342,318,288,256
71,337,264,-197,-92,304,88,387,348,318,288,250
65,331,264,-197,-98,298,88,375,348,318,288,250
71,331,258,-197,-92,298,88,363,348,318,282,244
77,325,246,-197,-80,286,82,351,336,312,276,238
77,313,234,-191,-74,274,82,333,330,300,264,232
65,301,234,-179,-80,268,82,321,318,294,252,220
65,283,216,-173,-74,250,76,303,306,282,240,208
53,271,216,-161,-80,244,76,279,288,270,228,190
47,259,210,-149,-80,238,76,255,270,258,216,172
35,247,210,-137,-86,232,70,237,252,240,198,154
23,223,198,-119,-86,214,70,213,228,216,174,136
11,211,198,-107,-92,208,76,189,210,192,156,124
11,211,198,-107,-92,208,76,171,186,174,144,118
23,205,180,-107,-74,196,76,159,168,150,132,106
23,187,162,-101,-68,178,70,141,150,126,114,94
17,169,150,-89,-62,160,64,123,120,102,96,82
17,163,144,-89,-62,154,64,105,102,84,84,76
17,151,132,-83,-56,142,58,81,78,66,72,64
17,145,126,-77,-50,136,52,63,60,48,60,52
17,145,126,-77,-50,136,52,39,42,30,42,34
17,139,120,-77,-50,130,40,21,24,6,24,22
6,127,120,-65,-56,124,46,3,0,-17,6,4
6,115,108,-59,-50,112,46,-15,-24,-34,-12,-2
1,97,96,-47,-44,94,46,-32,-46,-58,-24,-14
-11,79,90,-35,-50,82,46,-43,-58,-70,-29,-14
-23,67,90,-25,-56,76,52,-55,-70,-82,-34,-14
-23,61,84,-19,-50,70,52,-67,-88,-94,-46,-20
-23,56,78,-19,-50,64,46,-85,-100,-100,-58,-31
-17,56,72,-19,-44,64,40,-97,-112,-106,-70,-31
-17,51,66,-19,-44,58,34,-103,-124,-118,-82,-42
-23,45,66,-13,-44,53,28,-103,-130,-124,-88,-48
-23,39,60,-13,-44,48,34,-103,-136,-130,-100,-60
-35,33,66,-1,-50,48,34,-109,-142,-142,-106,-66
-41,27,66,5,-56,48,34,-115,-154,-154,-112,-72
-41,21,60,11,-50,42,34,-121,-166,-166,-124,-78
-41,15,54,11,-50,36,34,-133,-172,-172,-124,-84
-41,9,49,17,-44,30,34,-133,-178,-184,-130,-84
-35,3,38,11,-38,18,28,-139,-178,-184,-130,-84
-35,-3,32,17,-32,12,28,-139,-184,-184,-136,-84
-35,-3,32,17,-32,12,22,-139,-190,-190,-142,-84
-35,-9,26,17,-32,6,22,-145,-190,-190,-154,-90
-53,-21,32,35,-44,6,28,-139,-190,-190,-148,-90
-53,-15,38,35,-44,12,40,-139,-190,-184,-148,-96
-53,-21,32,35,-44,6,40,-139,-196,-184,-148,-102
-47,-33,14,35,-32,-12,34,-145,-190,-184,-148,-96
-41,-39,2,41,-21,-18,40,-145,-184,-184,-142,-90
-23,-33,-10,23,-10,-24,40,-145,-184,-184,-142,-90
-17,-33,-16,23,-4,-24,34,-133,-184,-184,-142,-90
-23,-39,-16,29,-4,-30,34,-127,-184,-184,-142,-90
-35,-39,-4,35,-16,-24,40,-127,-178,-184,-142,-90
-35,-39,-4,35,-16,-24,40,-127,-184,-184,-142,-90
-35,-39,-4,35,-16,-24,46,-127,-184,-184,-142,-90
-47,-45,2,41,-26,-24,52,-127,-184,-184,-142,-90
-53,-51,2,53,-26,-24,52,-127,-184,-184,-148,-96
-47,-51,-4,47,-21,-30,52,-127,-184,-184,-148,-96
-41,-45,-4,41,-21,-24,52,-127,-178,-184,-142,-90
-29,-45,-16,35,-10,-30,52,-121,-172,-184,-142,-90
-23,-51,-28,35,2,-42,52,-127,-178,-184,-142,-90
-17,-63,-46,41,14,-54,52,-133,-178,-190,-142,-84
-17,-63,-46,41,14,-54,52,-127,-178,-190,-142,-84
-29,-63,-34,47,2,-48,58,-127,-178,-184,-136,-84
-35,-69,-34,47,-4,-54,58,-121,-172,-184,-130,-84
-41,-69,-28,53,-10,-48,52,-121,-172,-178,-130,-84
-41,-69,-28,53,-10,-48,46,-121,-172,-172,-130,-84
-41,-69,-28,53,-10,-48,46,-121,-172,-172,-130,-84
-41,-69,-28,53,-10,-48,52,-115,-172,-172,-130,-90
-41,-75,-34,59,-4,-54,52,-115,-172,-172,-130,-90
-41,-75,-34,59,-4,-54,52,-115,-166,-172,-130,-90
-41,-81,-40,59,-4,-60,52,-109,-166,-172,-130,-84
-41,-75,-34,59,-4,-54,58,-109,-166,-166,-130,-84
-41,-75,-34,59,-4,-54,52,-115,-166,-166,-124,-78
-41,-75,-34,59,-4,-54,52,-115,-166,-166,-124,-78
-41,-75,-34,59,-4,-54,52,-115,-172,-166,-124,-78
