,,,,,,,,,,,
2019-09-04 23:54:37,,,,,,,,,,,
,,,,,,,,,,,
I,II,III,aVR,aVL,aVF,V1,V2,V3,V4,V5,V6
5,46,58,-11,-7,51,93,0,-20,-122,39,51
-7,-235,-199,108,58,-218,-38,-107,-230,-236,-194,-86
-13,-253,-217,126,76,-242,-74,-137,-254,-260,-224,-110
-13,-253,-217,126,82,-242,-92,-149,-266,-272,-236,-122
-13,-253,-217,126,88,-242,-98,-155,-272,-272,-242,-128
-13,-253,-217,126,94,-242,-98,-161,-278,-272,-242,-134
-13,-253,-217,132,94,-242,-98,-161,-284,-278,-242,-134
-13,-253,-223,132,100,-242,-104,-161,-290,-278,-242,-134
-13,-259,-223,132,106,-242,-104,-161,-290,-278,-248,-134
-13,-259,-229,132,106,-242,-104,-161,-290,-278,-254,-134
-13,-259,-235,132,112,-242,-104,-161,-290,-278,-254,-134
-13,-259,-241,132,112,-248,-104,-161,-290,-278,-254,-134
-13,-259,-241,132,112,-254,-104,-161,-290,-278,-254,-134
-13,-259,-241,132,112,-254,-104,-161,-290,-278,-254,-134
-13,-265,-247,138,112,-260,-104,-161,-290,-278,-254,-134
-13,-271,-253,144,112,-266,-104,-161,-290,-278,-254,-134
-13,-271,-259,144,112,-266,-104,-161,-290,-278,-254,-134
-13,-271,-259,144,112,-266,-104,-161,-290,-278,-254,-134
-13,-271,-259,144,112,-266,-104,-161,-290,-278,-254,-140
-19,-271,-253,144,112,-266,-104,-161,-290,-278,-254,-140
-19,-271,-247,144,112,-260,-104,-161,-290,-284,-254,-146
-19,-259,-247,144,112,-260,-104,-161,-290,-284,-254,-146
-19,-259,-247,144,112,-260,-104,-161,-290,-284,-254,-146
-19,-259,-247,144,112,-260,-110,-161,-296,-284,-254,-146
-19,-259,-247,144,112,-260,-110,-167,-296,-290,-260,-146
-19,-265,-247,144,112,-260,-110,-167,-296,-290,-260,-146
-19,-265,-247,144,112,-260,-110,-167,-296,-290,-260,-146
-19,-265,-247,144,112,-260,-110,-167,-296,-290,-260,-146
-19,-265,-247,144,112,-260,-110,-167,-296,-290,-260,-146
-19,-265,-247,144,112,-260,-110,-167,-296,-290,-260,-146
-19,-265,-247,144,112,-260,-110,-167,-296,-290,-260,-146
-19,-265,-247,144,112,-266,-110,-167,-296,-290,-260,-146
-19,-265,-253,144,112,-266,-104,-167,-296,-290,-260,-146
-19,-265,-253,144,112,-266,-104,-167,-296,-290,-260,-146
-19,-265,-253,144,112,-260,-104,-167,-296,-296,-260,-146
-19,-265,-253,144,112,-260,-104,-167,-296,-296,-260,-146
-19,-265,-253,144,112,-260,-104,-167,-296,-296,-260,-146
-19,-265,-253,144,112,-260,-104,-167,-296,-296,-260,-146
-19,-265,-253,144,118,-260,-104,-167,-296,-296,-260,-146
-19,-265,-253,144,118,-260,-104,-167,-296,-296,-260,-146
-19,-265,-247,144,118,-260,-104,-167,-296,-296,-260,-146
-19,-265,-247,144,118,-254,-104,-167,-296,-296,-260,-146
-19,-265,-247,144,118,-254,-104,-167,-296,-296,-260,-146
-19,-259,-247,144,118,-254,-104,-167,-296,-296,-260,-146
-19,-259,-247,144,118,-254,-104,-167,-296,-296,-260,-146
-19,-259,-241,144,118,-254,-104,-167,-296,-296,-260,-146
-19,-259,-241,144,118,-254,-104,-167,-296,-296,-260,-146
-19,-259,-241,144,118,-254,-104,-167,-296,-296,-254,-146
-19,-259,-241,144,118,-254,-98,-167,-290,-296,-254,-146
-19,-241,-229,138,118,-236,-98,-167,-290,-296,-254,-146
-19,-229,-223,132,118,-224,-98,-167,-290,-296,-254,-146
-19,-229,-217,132,118,-218,-98,-167,-284,-296,-254,-146
-19,-229,-217,132,118,-218,-98,-161,-278,-296,-248,-146
-19,-223,-211,132,118,-212,-92,-161,-278,-290,-248,-146
-13,-211,-205,126,118,-206,-86,-155,-278,-290,-248,-146
-13,-205,-199,120,118,-200,-86,-149,-272,-290,-248,-146
-13,-199,-193,114,118,-200,-86,-143,-272,-290,-242,-146
-13,-199,-193,114,118,-200,-80,-137,-266,-284,-242,-146
-13,-199,-193,114,118,-200,-74,-131,-260,-284,-242,-146
-13,-199,-193,114,112,-200,-74,-131,-260,-284,-242,-146
-7,-199,-193,108,112,-200,-74,-131,-260,-284,-242,-146
-7,-199,-193,108,112,-200,-74,-131,-254,-284,-236,-140
-7,-199,-199,108,112,-200,-74,-131,-248,-278,-230,-140
-7,-199,-199,108,112,-200,-80,-131,-248,-278,-230,-140
-7,-199,-199,102,112,-200,-92,-137,-248,-278,-230,-140
-7,-193,-199,96,112,-194,-104,-143,-248,-278,-224,-134
-7,-181,-193,90,112,-182,-110,-149,-248,-272,-212,-128
-7,-169,-187,90,112,-176,-116,-149,-248,-266,-206,-122
-1,-163,-181,90,112,-170,-116,-155,-248,-260,-206,-116
5,-157,-175,84,112,-164,-122,-155,-248,-260,-200,-110
5,-151,-175,78,112,-164,-128,-155,-248,-254,-194,-110
5,-151,-175,78,112,-164,-128,-155,-248,-254,-188,-104
5,-151,-175,78,112,-164,-128,-155,-248,-248,-182,-98
5,-151,-175,78,112,-164,-128,-155,-248,-248,-182,-98
5,-151,-175,78,112,-164,-128,-155,-248,-248,-182,-98
5,-151,-175,78,112,-164,-128,-155,-248,-248,-182,-98
10,-151,-181,78,112,-164,-128,-155,-248,-242,-176,-92
10,-151,-181,78,112,-164,-128,-155,-248,-242,-170,-86
10,-157,-181,78,112,-170,-128,-155,-248,-242,-170,-86
10,-163,-187,78,112,-176,-128,-155,-248,-242,-170,-86
10,-163,-187,78,112,-176,-128,-155,-248,-242,-170,-86
10,-163,-187,78,112,-176,-128,-155,-248,-242,-170,-86
10,-163,-187,78,112,-176,-128,-155,-248,-242,-170,-86
10,-169,-193,78,112,-182,-128,-155,-248,-242,-170,-86
10,-181,-199,84,112,-188,-128,-155,-248,-242,-170,-86
10,-193,-199,90,112,-194,-128,-155,-248,-242,-176,-86
10,-199,-199,96,112,-200,-128,-155,-248,-242,-182,-92
10,-205,-199,102,112,-200,-128,-155,-254,-248,-188,-98
5,-205,-199,108,112,-200,-128,-155,-260,-254,-194,-104
-1,-205,-199,108,112,-200,-128,-161,-266,-260,-200,-110
-1,-211,-205,114,112,-206,-128,-161,-266,-266,-206,-110
-1,-217,-211,114,112,-212,-128,-161,-272,-272,-206,-110
-7,-217,-211,114,112,-212,-128,-161,-272,-278,-212,-116
-7,-217,-211,114,112,-212,-128,-161,-272,-284,-218,-122
-7,-223,-211,114,112,-218,-128,-161,-278,-284,-218,-122
-7,-229,-217,120,112,-224,-128,-161,-278,-284,-218,-122
-7,-229,-223,120,112,-224,-128,-161,-278,-284,-218,-122
-7,-235,-229,120,112,-230,-128,-161,-278,-284,-218,-122
-7,-235,-229,120,112,-236,-128,-167,-278,-284,-218,-122
-7,-235,-229,120,112,-236,-128,-167,-284,-284,-218,-122
-7,-235,-229,120,112,-236,-128,-167,-284,-284,-218,-122
-7,-235,-229,120,112,-236,-128,-167,-284,-284,-218,-122
-7,-235,-229,126,112,-236,-128,-161,-278,-284,-212,-122
-7,-229,-223,126,112,-230,-122,-155,-266,-278,-212,-122
-7,-205,-199,120,106,-206,-122,-149,-254,-266,-206,-122
-7,-169,-157,108,94,-164,-122,-143,-230,-248,-200,-122
-7,-151,-133,96,82,-140,-116,-131,-194,-212,-182,-116
-7,-145,-127,90,76,-134,-92,-95,-152,-164,-152,-98
-7,-139,-115,84,70,-122,-68,-59,-110,-116,-122,-80
-13,-109,-85,72,58,-98,-56,-35,-80,-98,-110,-68
-19,-85,-55,66,34,-74,-44,-5,-50,-86,-104,-68
-25,-73,-31,66,16,-62,-20,36,-14,-74,-98,-68
-31,-49,-2,60,4,-32,21,96,27,-62,-98,-68
-31,-19,34,54,-7,-3,87,186,81,-50,-98,-68
-37,-2,46,48,-19,21,171,300,141,-38,-98,-80
-43,4,58,48,-31,27,255,426,207,-32,-110,-116
-55,4,70,48,-43,33,369,570,279,-38,-164,-176
-67,10,82,48,-67,45,471,714,351,-74,-254,-248
-85,58,160,42,-115,105,561,846,423,-152,-362,-338
-115,148,298,24,-193,225,633,966,519,-188,-440,-404
-127,232,400,-17,-241,321,663,1074,663,-188,-446,-410
-133,346,508,-71,-301,429,687,1182,831,-98,-410,-404
-133,484,634,-137,-343,555,699,1242,999,87,-296,-362
-133,652,766,-233,-397,711,705,1248,1167,321,-140,-248
-109,838,904,-353,-439,867,693,1242,1395,693,141,-38
-43,1048,1030,-497,-475,1041,615,1134,1683,1233,567,267
46,1234,1120,-635,-487,1185,489,942,1983,1881,1065,609
148,1390,1174,-767,-487,1287,321,720,2282,2593,1611,975
244,1576,1252,-917,-487,1413,123,462,2509,3307,2162,1347
334,1762,1366,-1049,-487,1563,-74,174,2629,3961,2695,1713
394,1930,1480,-1163,-499,1707,-236,-197,2635,4477,3145,2031
412,2079,1648,-1223,-565,1863,-332,-623,2539,4741,3409,2234
406,2193,1804,-1259,-667,2001,-356,-905,2312,4783,3493,2312
394,2241,1900,-1277,-733,2072,-368,-1061,2066,4783,3499,2342
346,2295,2014,-1283,-829,2150,-434,-1271,1707,4603,3451,2348
244,2319,2109,-1277,-919,2204,-500,-1457,1227,4189,3187,2324
160,2139,2020,-1145,-919,2084,-488,-1457,939,3763,2875,2162
118,1606,1522,-869,-745,1569,-260,-1253,921,3499,2641,1935
88,1120,1060,-611,-529,1095,-26,-1007,873,3127,2318,1659
40,826,820,-437,-433,819,99,-905,603,2527,1803,1269
-7,658,712,-329,-403,687,117,-887,291,1869,1239,879
-49,544,652,-245,-379,597,93,-899,-68,1257,795,579
-85,460,592,-179,-367,525,-8,-965,-398,669,399,345
-121,364,538,-119,-355,459,-86,-1001,-590,147,21,123
-145,274,466,-59,-331,369,-158,-1031,-692,-224,-212,-14
-157,172,370,-11,-295,273,-224,-1043,-746,-374,-278,-56
-169,82,268,30,-253,177,-266,-1043,-752,-386,-290,-68
-169,28,202,60,-211,123,-296,-1013,-746,-386,-290,-74
-169,-7,160,72,-181,81,-320,-959,-728,-380,-290,-80
-169,-31,118,78,-151,45,-332,-893,-704,-380,-290,-92
-157,-61,70,84,-121,3,-332,-809,-650,-380,-290,-98
-145,-85,22,96,-85,-32,-326,-683,-584,-374,-290,-98
-133,-97,-2,102,-61,-50,-290,-563,-506,-362,-284,-104
-121,-109,-13,108,-49,-62,-236,-455,-422,-350,-284,-110
-109,-115,-31,108,-25,-74,-182,-365,-374,-338,-278,-110
-103,-121,-55,108,-13,-86,-146,-323,-338,-326,-272,-110
-97,-133,-79,108,-1,-104,-122,-287,-314,-320,-272,-110
-85,-139,-91,108,10,-116,-110,-245,-290,-314,-272,-110
-73,-145,-103,108,22,-122,-98,-215,-278,-308,-266,-110
-67,-145,-109,108,22,-128,-92,-191,-272,-308,-266,-110
-61,-145,-109,108,22,-128,-92,-179,-266,-308,-266,-110
-55,-151,-115,108,34,-134,-92,-167,-254,-308,-266,-110
-49,-163,-127,108,46,-146,-86,-149,-248,-308,-266,-110
-49,-163,-127,108,52,-146,-80,-137,-242,-308,-266,-116
-43,-163,-127,108,52,-146,-74,-125,-236,-314,-266,-122
-37,-163,-127,108,52,-146,-68,-113,-230,-314,-266,-128
-37,-169,-139,108,58,-152,-68,-101,-224,-314,-266,-128
-31,-175,-151,108,58,-158,-68,-95,-218,-314,-266,-128
-25,-175,-151,108,58,-158,-68,-89,-212,-314,-266,-128
-25,-175,-151,108,58,-158,-68,-89,-206,-314,-266,-128
-25,-175,-151,108,58,-164,-62,-83,-206,-314,-266,-128
-25,-181,-157,108,58,-170,-62,-77,-200,-314,-266,-128
-25,-181,-157,108,58,-170,-62,-71,-194,-314,-266,-128
-25,-175,-157,102,58,-164,-62,-65,-194,-314,-266,-128
-25,-175,-157,102,58,-164,-62,-59,-188,-314,-266,-128
-25,-175,-157,102,64,-164,-56,-53,-182,-314,-260,-128
-25,-175,-157,102,70,-164,-56,-47,-170,-308,-260,-128
-25,-175,-157,102,70,-164,-56,-41,-164,-308,-260,-128
-25,-175,-157,102,70,-164,-56,-41,-158,-308,-260,-128
-19,-175,-157,102,70,-164,-56,-41,-158,-308,-260,-128
-19,-169,-157,102,70,-164,-56,-41,-158,-308,-260,-128
-19,-169,-157,102,70,-164,-56,-35,-158,-302,-254,-128
-19,-169,-157,102,70,-164,-56,-35,-158,-296,-248,-128
-19,-169,-157,102,70,-164,-56,-35,-152,-296,-248,-128
-19,-169,-157,102,70,-164,-56,-29,-146,-290,-248,-128
-13,-169,-157,102,70,-164,-56,-23,-146,-290,-248,-128
-13,-163,-157,96,70,-164,-56,-17,-140,-284,-242,-128
-13,-157,-157,90,70,-164,-56,-11,-134,-278,-236,-128
-13,-157,-157,90,70,-158,-50,-11,-128,-278,-236,-128
-13,-157,-157,90,70,-158,-44,-5,-122,-272,-236,-128
-13,-157,-157,90,70,-158,-38,0,-116,-266,-236,-128
-13,-157,-157,90,70,-158,-32,6,-116,-260,-236,-128
-13,-157,-157,90,70,-158,-32,12,-110,-254,-230,-128
-13,-157,-157,90,70,-158,-32,12,-110,-248,-224,-128
-13,-157,-157,90,70,-158,-32,12,-110,-248,-224,-128
-13,-157,-157,90,70,-158,-32,18,-110,-248,-224,-128
-13,-151,-151,84,70,-152,-32,24,-104,-248,-224,-128
-13,-151,-151,84,70,-152,-32,30,-98,-242,-224,-128
-13,-151,-151,84,70,-152,-32,30,-92,-236,-218,-128
-13,-151,-151,84,70,-152,-26,36,-86,-236,-212,-122
-7,-151,-151,84,70,-152,-20,42,-74,-230,-206,-116
-7,-139,-151,84,70,-146,-20,48,-68,-224,-200,-110
-7,-127,-139,78,70,-128,-20,48,-68,-224,-200,-110
-7,-127,-139,72,70,-122,-20,48,-62,-218,-194,-110
-7,-133,-139,72,70,-128,-14,54,-56,-206,-188,-104
-7,-133,-139,72,70,-134,-14,60,-50,-200,-188,-104
-7,-133,-139,72,70,-134,-14,66,-38,-194,-182,-104
-1,-133,-139,72,70,-134,-8,72,-32,-188,-182,-104
-1,-127,-133,66,70,-134,-8,78,-26,-188,-176,-104
-1,-121,-127,66,70,-128,-8,78,-20,-188,-176,-104
-1,-121,-127,66,70,-128,-2,84,-14,-188,-176,-98
-1,-121,-127,66,70,-128,-2,90,-8,-182,-176,-98
-1,-115,-127,66,70,-122,-2,96,-3,-176,-170,-98
-1,-109,-121,66,70,-116,-2,102,3,-170,-170,-98
-1,-109,-121,66,70,-116,3,108,9,-164,-170,-92
-1,-109,-121,66,70,-116,9,114,15,-152,-164,-92
5,-109,-121,66,70,-116,15,126,27,-146,-158,-86
5,-109,-121,60,70,-116,15,132,39,-140,-152,-80
10,-109,-121,60,70,-110,15,138,45,-134,-146,-74
10,-109,-121,60,70,-110,21,144,57,-128,-140,-68
10,-109,-121,60,70,-110,21,150,63,-116,-134,-62
10,-109,-121,60,70,-110,21,162,69,-110,-128,-56
10,-97,-115,54,70,-104,27,174,75,-104,-122,-56
10,-91,-115,48,70,-98,27,180,81,-98,-116,-50
10,-85,-109,48,70,-98,27,186,87,-92,-116,-50
10,-79,-103,48,70,-92,27,186,93,-86,-110,-50
10,-67,-91,42,70,-80,27,192,99,-80,-110,-50
10,-67,-91,36,70,-80,33,198,111,-68,-104,-44
10,-67,-91,36,70,-80,45,210,123,-56,-98,-38
10,-67,-91,36,70,-80,51,222,135,-44,-92,-38
10,-61,-85,36,64,-74,51,234,147,-38,-86,-38
10,-61,-85,30,64,-74,57,246,159,-26,-80,-38
10,-61,-85,30,64,-74,57,258,171,-20,-74,-32
10,-55,-79,24,64,-62,63,270,177,-14,-74,-32
10,-49,-73,24,64,-56,69,282,189,-2,-68,-26
10,-49,-73,24,64,-56,75,294,213,15,-56,-14
10,-43,-67,24,64,-50,75,306,225,33,-44,-8
10,-37,-61,24,58,-44,75,318,243,45,-32,-2
10,-31,-55,18,58,-38,75,336,255,57,-26,3
16,-19,-49,12,52,-26,81,354,273,69,-20,9
22,-13,-43,6,46,-20,81,366,285,81,-14,9
22,-7,-31,0,40,-14,81,384,297,93,-8,9
22,-2,-25,0,40,-14,81,408,321,123,3,15
22,-2,-25,0,40,-14,87,432,339,153,15,21
28,4,-25,-5,40,-8,99,450,369,183,27,33
34,34,-19,-23,40,15,111,468,387,201,45,45
40,64,-2,-35,34,39,117,480,405,213,57,51
40,70,4,-41,34,45,123,492,417,237,69,57
40,70,4,-41,34,45,129,516,447,267,81,69
40,70,4,-41,34,45,135,534,483,291,93,81
46,70,4,-47,34,45,141,552,501,309,105,87
52,76,10,-59,34,51,147,576,513,345,117,99
58,94,28,-71,28,69,153,588,525,375,129,105
58,112,46,-83,16,87,159,600,543,399,135,111
58,118,52,-89,10,93,165,612,573,435,153,123
58,124,52,-89,10,93,171,624,603,471,189,141
58,130,52,-95,10,99,177,642,627,501,219,153
58,142,58,-101,10,105,177,648,645,537,231,165
64,160,70,-107,10,117,177,660,663,555,237,177
64,172,88,-113,4,129,177,666,687,585,249,189
64,178,100,-113,-1,135,177,678,705,621,261,201
64,184,112,-119,-1,147,177,690,717,651,285,213
70,208,124,-131,-7,171,177,696,735,681,297,219
76,220,130,-143,-13,183,177,702,753,711,321,231
82,220,130,-143,-13,183,183,708,783,753,345,249
88,226,130,-149,-13,183,183,714,795,789,375,261
88,238,136,-161,-13,189,183,714,813,813,387,279
88,250,148,-167,-19,201,183,720,825,843,399,291
88,262,160,-173,-25,213,183,720,837,861,411,297
94,274,172,-173,-25,225,183,720,855,891,423,309
100,280,172,-179,-25,231,183,720,867,921,435,321
100,286,172,-179,-25,231,183,720,879,939,459,333
100,292,178,-179,-31,237,177,720,891,969,471,345
100,298,184,-185,-37,243,177,720,897,981,477,351
100,304,196,-191,-43,255,177,708,903,993,483,357
100,316,208,-197,-43,273,171,690,903,1005,495,363
100,328,220,-203,-43,279,165,678,903,1017,507,369
100,328,226,-203,-43,285,159,666,903,1029,519,375
100,328,232,-203,-49,285,159,648,903,1041,525,381
100,334,238,-203,-55,291,153,630,903,1047,525,387
100,340,244,-209,-61,297,141,606,903,1053,531,393
100,346,250,-209,-67,303,129,576,903,1059,531,399
100,346,250,-209,-67,303,117,558,891,1059,531,399
100,346,250,-209,-73,303,111,522,879,1059,531,399
100,352,262,-209,-79,309,99,480,855,1053,531,399
94,352,268,-209,-85,315,87,438,837,1041,531,399
94,352,274,-209,-91,315,75,402,813,1017,531,399
94,364,286,-215,-97,327,45,366,777,987,519,393
88,376,298,-215,-103,339,33,330,735,945,495,387
82,376,298,-215,-103,339,21,306,705,915,483,381
76,370,298,-215,-103,333,9,282,675,879,465,375
70,364,298,-209,-103,327,3,258,645,843,447,369
64,352,292,-197,-103,321,-2,234,621,801,417,357
58,340,286,-191,-103,315,-8,204,591,759,393,339
58,328,274,-185,-103,303,-14,168,543,699,369,321
52,310,262,-173,-103,279,-20,138,501,645,345,297
46,280,250,-161,-103,261,-26,114,459,585,315,285
40,262,238,-149,-103,249,-32,96,411,531,279,255
34,250,232,-143,-103,243,-38,72,369,483,243,231
28,238,220,-137,-103,237,-44,54,327,423,213,201
22,226,208,-125,-97,225,-50,42,285,375,177,171
22,196,190,-113,-91,195,-50,30,255,333,153,153
16,166,160,-95,-85,165,-56,18,225,291,135,141
10,154,148,-83,-79,153,-56,-11,189,249,111,129
5,142,142,-71,-79,141,-56,-29,153,195,81,99
-1,130,130,-59,-73,129,-56,-47,117,147,51,81
-7,100,118,-47,-67,99,-62,-59,87,105,21,69
-7,76,94,-35,-55,81,-62,-71,57,63,3,51
-7,46,76,-23,-43,63,-62,-77,27,21,-26,27
-13,34,70,-11,-37,51,-62,-89,-3,-8,-50,-2
-19,28,70,-5,-37,51,-62,-95,-26,-38,-80,-26
-25,22,64,0,-37,39,-62,-101,-38,-68,-98,-38
-25,10,46,12,-31,27,-62,-101,-56,-98,-110,-50
-25,-2,16,18,-19,3,-62,-107,-68,-116,-116,-56
-25,-31,-13,30,-7,-26,-62,-107,-80,-122,-122,-62
-25,-55,-25,42,-1,-38,-62,-107,-92,-128,-128,-68
-25,-67,-31,48,4,-50,-62,-113,-104,-140,-140,-74
-25,-79,-37,54,4,-62,-62,-119,-122,-176,-152,-86
-25,-91,-49,60,10,-74,-62,-125,-134,-194,-164,-98
-25,-103,-55,66,16,-80,-62,-125,-146,-206,-170,-110
-25,-115,-61,72,22,-86,-62,-125,-158,-218,-176,-116
-25,-121,-67,78,22,-92,-62,-131,-170,-230,-188,-122
-25,-127,-73,78,22,-98,-62,-137,-182,-242,-194,-134
-25,-133,-79,78,22,-98,-62,-137,-188,-254,-206,-140
-25,-133,-85,78,22,-98,-62,-137,-194,-260,-212,-146
-31,-139,-97,84,28,-104,-62,-137,-200,-266,-218,-146
-37,-145,-103,90,28,-110,-62,-137,-206,-272,-224,-152
-37,-145,-103,90,28,-110,-62,-137,-212,-278,-224,-158
-37,-145,-103,90,28,-116,-62,-137,-218,-284,-230,-164
-37,-157,-115,102,34,-128,-56,-137,-224,-290,-230,-170
-37,-175,-121,114,34,-146,-56,-137,-224,-296,-230,-170
-37,-187,-127,126,34,-158,-56,-137,-224,-302,-230,-170
-37,-187,-127,126,34,-158,-56,-137,-224,-302,-230,-170
-37,-187,-127,126,34,-158,-56,-137,-230,-308,-236,-170
-37,-187,-127,126,34,-158,-56,-137,-236,-314,-242,-176
-37,-187,-127,126,40,-158,-56,-137,-236,-314,-242,-176
-37,-187,-127,126,40,-158,-56,-137,-236,-314,-242,-176
-37,-187,-127,126,40,-158,-50,-137,-236,-314,-248,-176
-37,-187,-127,126,40,-158,-50,-137,-242,-320,-248,-176
-37,-187,-127,126,40,-158,-50,-137,-242,-326,-248,-176
-37,-187,-133,126,40,-158,-50,-137,-242,-326,-248,-176
-37,-187,-133,126,40,-164,-50,-137,-242,-326,-248,-176
-37,-187,-133,126,40,-164,-50,-137,-242,-332,-254,-182
-43,-187,-133,126,40,-164,-50,-137,-242,-332,-254,-182
-43,-187,-133,126,40,-164,-50,-137,-242,-332,-254,-182
-43,-187,-133,126,40,-164,-50,-137,-242,-332,-254,-188
-43,-187,-133,126,40,-164,-50,-137,-242,-332,-254,-188
-43,-193,-139,126,40,-164,-44,-137,-242,-332,-254,-188
-43,-193,-139,126,40,-164,-44,-137,-242,-332,-254,-188
-43,-193,-139,126,40,-164,-44,-137,-242,-332,-254,-188
-43,-193,-139,126,40,-164,-44,-137,-242,-332,-254,-188
-43,-193,-139,126,40,-164,-44,-131,-242,-332,-254,-188
-43,-193,-139,126,40,-164,-44,-131,-242,-332,-254,-188
-43,-193,-139,126,40,-164,-44,-131,-242,-332,-254,-188
-43,-193,-139,126,40,-164,-44,-131,-242,-332,-254,-188
-43,-193,-139,126,40,-164,-44,-125,-236,-332,-254,-188
-43,-193,-139,126,40,-164,-44,-119,-236,-332,-254,-188
-43,-193,-139,126,40,-164,-44,-119,-236,-332,-254,-188
-43,-193,-139,126,40,-164,-44,-119,-236,-332,-254,-188
-43,-187,-139,126,40,-164,-38,-119,-236,-332,-254,-188
-43,-187,-139,126,40,-164,-38,-119,-230,-332,-254,-188
-43,-187,-139,126,40,-164,-38,-119,-224,-332,-254,-188
-43,-187,-139,126,40,-164,-38,-113,-224,-332,-254,-188
-43,-187,-139,126,40,-164,-38,-113,-224,-332,-254,-188
-43,-181,-139,120,40,-158,-38,-113,-224,-332,-254,-188
-43,-181,-139,120,40,-158,-38,-107,-224,-332,-254,-188
-43,-181,-139,120,40,-158,-38,-107,-224,-332,-248,-182
-43,-175,-133,120,40,-152,-38,-107,-224,-332,-248,-182
-43,-169,-127,120,40,-146,-38,-107,-224,-332,-248,-182
-43,-169,-127,120,40,-146,-38,-107,-218,-332,-248,-182
-43,-169,-127,120,40,-146,-38,-101,-212,-326,-242,-182
-43,-169,-127,120,40,-146,-38,-95,-206,-320,-236,-182
-43,-169,-127,120,40,-146,-38,-95,-206,-320,-236,-176
-43,-157,-115,114,40,-134,-38,-95,-206,-320,-236,-176
-43,-145,-109,108,34,-122,-38,-95,-206,-320,-236,-176
-43,-145,-109,108,34,-122,-38,-95,-206,-314,-230,-170
-43,-145,-115,108,34,-122,-38,-89,-200,-308,-224,-164
-43,-145,-115,108,34,-122,-38,-89,-200,-308,-218,-164
-43,-145,-115,108,34,-122,-38,-89,-200,-308,-218,-158
-43,-145,-115,108,34,-122,-38,-89,-200,-308,-218,-158
-43,-151,-115,108,34,-122,-38,-89,-200,-308,-218,-158
-43,-151,-115,108,34,-122,-38,-89,-200,-308,-218,-158
-43,-145,-115,102,34,-122,-38,-89,-200,-308,-218,-158
-37,-139,-115,96,34,-116,-38,-89,-200,-308,-218,-158
-37,-139,-115,96,34,-116,-38,-89,-200,-308,-218,-158
-37,-139,-115,96,34,-116,-38,-89,-200,-308,-212,-152
-37,-139,-115,96,34,-116,-38,-89,-200,-302,-206,-146
-37,-139,-115,96,34,-116,-38,-89,-200,-302,-206,-146
-37,-139,-115,96,34,-116,-38,-89,-200,-302,-206,-146
-37,-133,-109,90,34,-110,-38,-89,-200,-302,-206,-146
-37,-133,-109,90,34,-110,-38,-89,-200,-296,-200,-146
-37,-145,-115,90,40,-116,-38,-89,-200,-290,-194,-146
-37,-145,-121,90,40,-122,-38,-89,-200,-284,-194,-146
-37,-145,-121,90,40,-122,-38,-89,-200,-284,-194,-146
-37,-139,-121,90,40,-122,-38,-89,-206,-284,-194,-146
-37,-139,-121,90,40,-122,-38,-89,-206,-284,-194,-146
-31,-139,-121,90,40,-122,-38,-89,-206,-284,-188,-146
-25,-139,-121,90,46,-122,-38,-89,-206,-284,-188,-146
-25,-139,-121,90,46,-122,-38,-89,-206,-284,-188,-146
-25,-139,-115,90,46,-122,-38,-89,-212,-284,-188,-146
-25,-139,-115,90,46,-122,-44,-95,-212,-284,-188,-146
-25,-139,-115,90,46,-122,-44,-95,-218,-284,-188,-146
-25,-133,-115,90,46,-122,-44,-95,-224,-284,-188,-146
-25,-133,-115,90,46,-122,-44,-95,-230,-284,-188,-146
-25,-133,-115,90,46,-122,-44,-95,-230,-284,-188,-146
-25,-133,-115,90,46,-122,-44,-101,-230,-284,-188,-146
-25,-133,-115,90,46,-122,-44,-107,-230,-284,-188,-146
-25,-133,-115,90,46,-122,-44,-107,-230,-284,-188,-146
-25,-139,-115,90,46,-122,-44,-107,-230,-284,-188,-146
-25,-139,-115,90,46,-122,-44,-107,-230,-290,-188,-146
-25,-133,-115,90,46,-122,-44,-107,-230,-290,-188,-146
-25,-133,-115,90,46,-122,-44,-107,-230,-290,-188,-146
-25,-133,-115,90,46,-122,-44,-107,-230,-290,-188,-146
-25,-133,-115,90,46,-122,-50,-113,-236,-296,-188,-146
-25,-133,-115,90,46,-122,-56,-119,-236,-296,-188,-146
-25,-133,-115,90,46,-122,-56,-119,-236,-296,-188,-146
-25,-133,-115,90,46,-122,-56,-119,-236,-296,-188,-146
-25,-133,-115,90,46,-122,-56,-119,-236,-296,-188,-146
-25,-133,-115,90,46,-122,-56,-119,-242,-296,-188,-146
-25,-133,-115,90,46,-122,-56,-119,-242,-296,-188,-146
-25,-139,-115,90,46,-128,-56,-119,-242,-296,-188,-146
-25,-139,-121,90,46,-128,-56,-119,-242,-296,-188,-146
-25,-139,-121,90,46,-128,-56,-119,-242,-296,-188,-146
-25,-139,-121,90,46,-128,-56,-119,-242,-296,-188,-146
-25,-139,-121,90,46,-128,-56,-125,-242,-296,-188,-146
-25,-139,-121,90,46,-122,-56,-125,-242,-296,-188,-146
-25,-139,-121,90,46,-122,-56,-125,-242,-296,-188,-146
-25,-139,-121,90,46,-122,-56,-125,-242,-296,-188,-146
-25,-139,-121,90,46,-122,-56,-125,-242,-296,-188,-146
-25,-139,-121,90,46,-122,-56,-125,-242,-296,-188,-146
-25,-139,-121,90,46,-122,-56,-125,-242,-296,-188,-146
-25,-139,-121,90,46,-128,-56,-131,-242,-302,-188,-146
-25,-139,-121,90,46,-128,-56,-137,-248,-302,-188,-146
-25,-139,-121,90,46,-128,-56,-137,-248,-302,-188,-146
-25,-139,-121,90,46,-128,-56,-137,-248,-302,-188,-146
-25,-139,-121,90,46,-128,-56,-137,-248,-302,-188,-146
-25,-139,-121,90,46,-128,-56,-137,-248,-302,-188,-146
-25,-139,-121,90,46,-128,-56,-137,-254,-302,-188,-146
-25,-145,-121,90,46,-128,-56,-137,-254,-302,-188,-146
-25,-151,-121,90,46,-134,-56,-137,-254,-302,-188,-146
-25,-151,-121,96,46,-134,-56,-137,-254,-302,-188,-146
-25,-151,-121,96,46,-134,-56,-137,-254,-302,-188,-146
-25,-151,-121,96,46,-134,-56,-137,-254,-302,-188,-146
-25,-151,-121,96,46,-134,-56,-137,-260,-308,-188,-146
-25,-157,-127,96,46,-140,-56,-137,-260,-308,-188,-146
-25,-157,-133,96,52,-146,-56,-137,-260,-308,-188,-146
-25,-157,-139,96,58,-146,-56,-137,-260,-308,-188,-146
-25,-157,-139,96,58,-146,-56,-137,-260,-308,-188,-146
-25,-157,-139,96,58,-146,-56,-137,-260,-308,-188,-146
-25,-157,-139,96,58,-146,-56,-137,-260,-314,-188,-146
-25,-157,-139,96,58,-146,-56,-137,-260,-314,-188,-146
-25,-157,-139,96,58,-146,-56,-137,-260,-314,-188,-146
-25,-157,-139,96,58,-146,-56,-137,-260,-314,-188,-146
-25,-157,-139,96,58,-146,-56,-137,-260,-314,-188,-146
-25,-157,-139,96,58,-146,-56,-137,-260,-314,-188,-146
-25,-157,-139,96,58,-146,-56,-137,-260,-314,-188,-146
-25,-157,-139,96,58,-146,-56,-137,-260,-314,-188,-146
-25,-157,-139,96,58,-146,-56,-137,-266,-314,-188,-146
-25,-157,-139,96,58,-146,-56,-137,-266,-314,-188,-146
-25,-157,-139,96,58,-146,-56,-137,-266,-314,-188,-146
-25,-157,-139,96,58,-146,-56,-137,-266,-314,-188,-146
-25,-157,-139,96,58,-146,-56,-137,-266,-314,-188,-146
-25,-157,-139,96,58,-146,-56,-137,-266,-314,-188,-146
-25,-157,-139,96,58,-146,-56,-143,-266,-314,-188,-146
-25,-157,-139,96,58,-146,-56,-143,-266,-314,-188,-146
-25,-157,-139,96,58,-146,-56,-143,-266,-314,-188,-146
-25,-157,-139,96,58,-146,-56,-143,-266,-314,-188,-146
-25,-157,-139,96,58,-146,-56,-143,-266,-314,-188,-146
-25,-157,-139,96,58,-146,-56,-143,-266,-314,-188,-146
-25,-157,-139,96,58,-146,-56,-143,-266,-314,-188,-146
-25,-157,-139,96,58,-146,-56,-143,-266,-314,-188,-146
-25,-151,-133,96,58,-140,-56,-143,-266,-314,-188,-146
-25,-151,-127,96,58,-134,-56,-143,-266,-314,-188,-146
-25,-151,-127,96,58,-134,-56,-143,-266,-314,-188,-146
-25,-151,-127,96,58,-134,-56,-143,-266,-314,-188,-146
-25,-151,-127,90,58,-134,-56,-143,-266,-314,-188,-146
-25,-151,-127,90,58,-134,-56,-143,-266,-314,-188,-146
-25,-151,-127,90,58,-134,-56,-143,-266,-314,-188,-146
-25,-151,-127,90,58,-134,-56,-143,-266,-314,-188,-146
-25,-151,-127,90,58,-134,-56,-143,-266,-314,-188,-146
-25,-151,-133,90,58,-140,-56,-143,-266,-314,-188,-146
-25,-151,-133,90,58,-140,-56,-143,-266,-314,-188,-146
-25,-151,-133,90,58,-140,-56,-143,-266,-314,-188,-146
-25,-151,-133,90,58,-146,-56,-143,-266,-314,-188,-146
-25,-151,-139,90,58,-146,-56,-143,-266,-314,-188,-146
-25,-151,-139,90,58,-146,-56,-143,-266,-314,-188,-146
-25,-151,-139,90,58,-146,-56,-143,-266,-314,-188,-146
-25,-151,-139,90,58,-146,-56,-143,-266,-314,-188,-146
-25,-151,-139,90,58,-146,-56,-143,-266,-314,-188,-146
-25,-151,-139,90,58,-146,-56,-143,-266,-314,-188,-146
-25,-151,-139,90,58,-140,-56,-143,-272,-314,-188,-146
-25,-151,-139,90,58,-140,-56,-143,-272,-320,-188,-146
-25,-151,-139,90,58,-140,-56,-143,-272,-320,-188,-146
-25,-151,-139,90,58,-140,-56,-143,-272,-320,-188,-146
-25,-151,-139,90,58,-140,-56,-143,-272,-320,-188,-146
-25,-151,-139,90,58,-140,-56,-143,-272,-320,-188,-146
-25,-151,-139,90,58,-140,-56,-143,-272,-320,-188,-146
-25,-157,-139,90,58,-140,-56,-143,-272,-320,-188,-146
-25,-163,-145,90,58,-146,-56,-143,-272,-320,-188,-146
-25,-163,-145,90,58,-146,-56,-143,-272,-320,-188,-146
-25,-163,-145,90,58,-146,-56,-143,-272,-320,-188,-146
-25,-163,-145,90,58,-146,-56,-143,-272,-320,-188,-146
-25,-163,-145,90,58,-146,-50,-143,-272,-320,-188,-146
-25,-163,-145,90,58,-146,-50,-143,-272,-320,-188,-146
-25,-163,-151,90,64,-152,-50,-143,-272,-320,-188,-146
-25,-163,-151,90,70,-158,-50,-143,-272,-320,-188,-146
-25,-163,-151,90,70,-158,-50,-143,-272,-320,-188,-146
-25,-157,-151,90,70,-158,-50,-143,-272,-320,-188,-146
-25,-157,-151,90,70,-158,-50,-143,-272,-320,-188,-146
-25,-157,-151,90,70,-158,-50,-143,-272,-320,-188,-146
-25,-157,-151,90,70,-158,-50,-143,-272,-320,-188,-146
-25,-157,-151,90,70,-158,-50,-143,-272,-320,-188,-146
-25,-157,-151,90,70,-158,-50,-143,-272,-320,-188,-146
-25,-157,-151,90,70,-158,-50,-143,-272,-320,-188,-146
-25,-157,-151,90,70,-158,-50,-143,-272,-320,-188,-146
-25,-157,-151,90,70,-158,-50,-143,-272,-320,-188,-146
-25,-157,-151,90,70,-158,-50,-143,-272,-320,-188,-146
-25,-157,-151,90,70,-158,-50,-143,-272,-320,-188,-146
-25,-163,-157,90,70,-158,-50,-143,-272,-320,-188,-146
-25,-163,-157,90,70,-158,-50,-143,-272,-320,-188,-146
-25,-163,-157,90,70,-158,-50,-143,-272,-320,-188,-146
-25,-157,-157,90,70,-158,-50,-143,-272,-320,-188,-146
-25,-157,-157,90,70,-158,-50,-143,-272,-320,-188,-146
-25,-157,-157,90,70,-158,-50,-143,-272,-320,-188,-146
-25,-157,-157,90,70,-158,-50,-143,-272,-320,-188,-146
-25,-157,-157,90,70,-158,-50,-143,-272,-320,-188,-146
-25,-157,-157,90,70,-158,-50,-143,-272,-320,-188,-146
-25,-151,-151,90,70,-152,-50,-143,-278,-320,-188,-146
-25,-145,-145,84,70,-146,-50,-143,-284,-320,-188,-146
-25,-145,-145,84,70,-146,-50,-143,-284,-320,-188,-146
-25,-145,-145,84,70,-146,-50,-143,-284,-320,-188,-146
-25,-145,-145,84,70,-146,-50,-143,-284,-320,-188,-146
-25,-145,-145,84,70,-146,-50,-143,-284,-320,-188,-146
-25,-145,-145,84,70,-146,-50,-143,-284,-320,-188,-146
-25,-151,-145,84,70,-146,-50,-143,-284,-320,-188,-146
-25,-151,-145,84,70,-146,-50,-143,-284,-320,-188,-146
-25,-151,-145,84,70,-146,-50,-143,-284,-320,-188,-146
-19,-145,-145,78,70,-140,-50,-143,-284,-320,-188,-146
-19,-139,-139,78,70,-140,-50,-143,-284,-320,-188,-146
-19,-139,-139,78,70,-140,-50,-143,-284,-320,-188,-146
-19,-139,-139,78,70,-140,-50,-143,-284,-320,-182,-146
-19,-145,-139,78,70,-140,-50,-143,-284,-320,-182,-146
-19,-151,-145,78,70,-146,-50,-143,-284,-320,-182,-146
-19,-151,-145,78,70,-146,-50,-143,-284,-320,-182,-146
-19,-151,-145,78,70,-146,-50,-143,-284,-320,-182,-146
-19,-151,-145,78,70,-146,-50,-143,-284,-320,-176,-146
-19,-151,-145,78,70,-146,-50,-143,-284,-320,-176,-146
-19,-151,-145,78,70,-146,-50,-143,-284,-320,-176,-146
-19,-151,-145,78,70,-146,-50,-143,-284,-320,-176,-146
-19,-151,-145,78,70,-146,-44,-143,-284,-320,-176,-146
-19,-151,-145,78,70,-146,-44,-143,-284,-320,-176,-146
-19,-151,-145,78,70,-146,-44,-143,-284,-320,-176,-146
-19,-151,-145,78,70,-146,-44,-143,-284,-320,-176,-146
-19,-139,-139,78,70,-140,-38,-137,-284,-320,-176,-146
-19,-133,-133,72,70,-134,-38,-131,-278,-320,-170,-146
-19,-127,-133,66,70,-134,-38,-125,-278,-320,-164,-140
-19,-127,-133,66,70,-134,-38,-125,-272,-320,-164,-140
-19,-127,-133,66,70,-134,-32,-125,-266,-320,-164,-140
-19,-127,-133,66,70,-128,-26,-125,-266,-320,-164,-140
-19,-127,-127,66,70,-122,-20,-125,-260,-320,-164,-134
-19,-121,-121,66,70,-116,-20,-125,-260,-320,-164,-134
-19,-115,-121,66,70,-110,-14,-119,-260,-320,-164,-134
-19,-103,-115,60,70,-104,-8,-113,-254,-314,-158,-134
-19,-97,-103,54,64,-98,-8,-107,-254,-314,-158,-128
-19,-97,-103,54,64,-98,-2,-101,-248,-308,-158,-128
-19,-97,-103,54,64,-98,-2,-101,-248,-308,-152,-128
-13,-97,-103,54,64,-98,-2,-101,-248,-308,-152,-128
-7,-97,-103,48,64,-98,-2,-101,-242,-308,-152,-128
-7,-97,-103,48,64,-98,-2,-101,-236,-308,-152,-128
-7,-97,-103,48,64,-98,-2,-101,-236,-302,-152,-128
-7,-97,-103,48,64,-98,-2,-101,-236,-302,-152,-122
-7,-91,-103,42,64,-92,-14,-101,-236,-302,-146,-116
-1,-79,-103,36,64,-80,-26,-107,-236,-302,-140,-110
5,-79,-103,30,64,-80,-38,-113,-236,-302,-134,-104
5,-79,-103,30,64,-80,-44,-113,-236,-296,-128,-98
5,-79,-103,24,64,-80,-50,-113,-236,-290,-122,-98
5,-73,-97,24,58,-74,-50,-113,-236,-284,-116,-92
5,-61,-85,18,58,-62,-50,-113,-236,-278,-110,-86
5,-49,-79,12,58,-56,-50,-113,-236,-278,-110,-86
10,-43,-73,12,58,-56,-50,-113,-236,-278,-104,-80
10,-37,-67,6,58,-50,-50,-113,-236,-272,-104,-74
10,-37,-67,6,52,-50,-50,-113,-236,-272,-104,-74
10,-37,-67,6,52,-50,-56,-113,-236,-272,-104,-74
16,-37,-67,6,52,-50,-56,-113,-236,-272,-98,-74
16,-43,-73,6,52,-56,-56,-113,-236,-272,-92,-74
22,-49,-79,6,52,-62,-56,-113,-236,-266,-92,-68
22,-49,-79,6,58,-62,-56,-113,-236,-260,-92,-68
22,-49,-79,6,58,-62,-56,-119,-236,-260,-92,-62
22,-55,-79,6,58,-62,-56,-125,-236,-260,-86,-62
22,-61,-85,18,58,-68,-62,-131,-242,-260,-86,-62
22,-67,-91,24,58,-80,-62,-131,-248,-260,-86,-62
22,-79,-103,24,64,-92,-62,-131,-248,-260,-86,-62
22,-91,-115,30,64,-104,-62,-131,-248,-260,-86,-62
16,-97,-115,30,64,-104,-62,-131,-248,-266,-86,-62
10,-97,-109,30,64,-104,-62,-131,-254,-272,-98,-68
10,-97,-109,30,58,-104,-62,-131,-260,-278,-104,-74
5,-103,-109,36,58,-104,-62,-131,-260,-284,-110,-80
5,-109,-109,42,58,-104,-62,-137,-266,-284,-116,-86
5,-115,-115,48,58,-110,-62,-137,-266,-290,-122,-92
5,-121,-121,54,58,-122,-62,-137,-266,-296,-122,-98
5,-127,-121,54,58,-122,-62,-137,-266,-296,-128,-104
5,-127,-121,54,58,-122,-62,-137,-266,-302,-128,-104
5,-127,-121,54,58,-122,-62,-137,-266,-308,-128,-110
5,-127,-121,54,58,-128,-62,-137,-272,-314,-134,-116
5,-139,-133,60,58,-134,-62,-137,-272,-314,-134,-116
5,-145,-139,66,58,-140,-62,-137,-272,-314,-134,-116
5,-145,-139,66,58,-140,-62,-137,-278,-314,-134,-116
5,-145,-139,66,58,-140,-62,-137,-284,-314,-134,-116
5,-145,-139,66,58,-140,-62,-137,-284,-314,-134,-116
5,-145,-139,66,58,-140,-62,-137,-284,-314,-134,-116
5,-139,-133,66,58,-134,-62,-137,-284,-314,-134,-116
5,-127,-127,60,58,-122,-62,-137,-278,-308,-134,-116
5,-121,-115,60,58,-110,-56,-125,-266,-296,-128,-110
-1,-109,-85,54,46,-98,-50,-107,-236,-260,-110,-104
-7,-91,-67,54,34,-86,-38,-77,-206,-224,-80,-98
-13,-73,-55,48,22,-68,-26,-47,-176,-182,-62,-86
-19,-43,-25,42,4,-38,-14,-29,-146,-146,-50,-80
-19,4,28,30,-25,9,-2,-17,-122,-116,-38,-74
-19,40,58,12,-37,39,9,-5,-92,-98,-26,-68
-19,52,70,6,-49,57,33,24,-50,-86,-20,-62
-25,58,88,0,-61,69,69,90,-8,-74,-14,-62
-37,70,112,-5,-73,81,123,192,51,-68,-14,-62
-43,76,124,-5,-79,93,213,312,105,-62,-14,-74
-49,76,130,-5,-85,99,303,438,159,-62,-26,-98
-55,76,136,-5,-91,105,411,582,219,-62,-68,-140
-61,82,154,-5,-109,117,519,732,267,-104,-146,-218
-85,106,226,-5,-157,165,633,864,327,-194,-260,-314
-115,178,340,-11,-241,255,711,1002,429,-242,-344,-362
-133,268,442,-35,-289,351,753,1116,561,-242,-362,-380
-139,388,550,-95,-331,465,771,1224,723,-170,-350,-380
-139,538,694,-179,-391,615,777,1302,885,-8,-272,-356
-139,724,844,-281,-451,783,777,1314,1053,201,-122,-248
-115,910,982,-389,-493,951,771,1314,1281,531,141,-74
-55,1084,1078,-515,-517,1089,729,1266,1569,1047,549,219
28,1240,1150,-641,-523,1203,621,1074,1881,1677,1053,537
124,1402,1222,-761,-529,1323,477,834,2198,2378,1587,873
214,1594,1318,-911,-535,1461,297,576,2485,3115,2162,1251
322,1798,1426,-1061,-541,1617,93,264,2677,3847,2719,1635
400,1996,1540,-1199,-547,1767,-80,-125,2731,4459,3211,1983
430,2169,1702,-1295,-589,1929,-200,-563,2719,4819,3547,2222
430,2277,1840,-1337,-667,2060,-230,-857,2575,4950,3691,2342
418,2307,1924,-1343,-739,2114,-242,-1019,2396,4956,3709,2384
358,2343,2032,-1343,-835,2192,-308,-1211,2066,4896,3697,2390
256,2385,2169,-1343,-937,2282,-410,-1409,1635,4561,3487,2378
190,2295,2145,-1253,-943,2222,-410,-1415,1359,4189,3205,2240
148,1792,1684,-971,-811,1743,-236,-1235,1359,3967,2983,2025
118,1270,1186,-701,-583,1221,9,-971,1359,3673,2689,1749
70,898,868,-485,-463,885,147,-839,1137,3127,2192,1383
5,682,736,-341,-415,711,159,-809,759,2449,1623,1011
-43,562,658,-251,-397,603,135,-821,291,1743,1119,693
-91,502,628,-209,-385,561,33,-941,-200,1035,657,447
-133,430,598,-161,-379,519,-68,-995,-488,381,219,219
-151,358,544,-113,-367,459,-128,-1019,-638,-92,-80,39
-163,274,466,-71,-337,375,-188,-1031,-722,-338,-188,-26
-169,196,376,-29,-301,285,-230,-1031,-740,-374,-206,-44
-169,148,322,-5,-265,237,-260,-1019,-740,-374,-206,-50
-169,100,256,12,-229,177,-278,-959,-728,-368,-206,-56
-169,34,184,36,-199,105,-290,-881,-704,-362,-200,-62
-163,-7,142,48,-163,63,-290,-809,-656,-356,-200,-62
-151,-37,88,60,-127,21,-284,-695,-584,-350,-200,-68
-133,-55,46,66,-97,-8,-254,-563,-500,-338,-194,-68
-115,-67,16,72,-67,-32,-170,-431,-422,-326,-188,-68
-97,-73,-2,72,-37,-44,-110,-341,-368,-314,-182,-68
-85,-73,-13,72,-25,-50,-80,-293,-338,-308,-176,-68
-79,-79,-25,72,-19,-56,-56,-257,-326,-308,-176,-68
-73,-85,-31,72,-13,-62,-44,-227,-314,-308,-176,-74
-67,-85,-37,72,-7,-62,-38,-203,-308,-308,-176,-74
-61,-91,-43,72,-1,-62,-32,-179,-302,-308,-176,-74
-55,-91,-49,72,4,-68,-26,-167,-296,-308,-176,-80
-49,-91,-55,72,10,-68,-26,-155,-290,-314,-182,-92
-43,-91,-55,66,16,-68,-26,-143,-284,-320,-182,-98
-37,-91,-61,60,22,-68,-26,-131,-278,-326,-182,-104
-31,-91,-73,60,28,-74,-20,-107,-266,-326,-182,-104
-31,-97,-79,60,28,-80,-14,-83,-260,-326,-182,-104
-31,-103,-85,60,28,-92,-8,-71,-254,-326,-182,-104
-25,-103,-91,60,34,-98,-2,-65,-254,-326,-182,-104
-25,-103,-91,60,34,-98,-2,-59,-248,-326,-182,-104
-25,-103,-91,60,34,-98,-2,-53,-242,-326,-182,-104
-25,-103,-91,60,34,-104,-2,-47,-236,-326,-182,-104
-25,-109,-97,60,40,-110,-2,-47,-236,-326,-182,-104
-25,-109,-97,60,40,-110,-2,-47,-236,-326,-182,-104
-19,-109,-97,60,40,-110,-2,-41,-230,-326,-182,-104
-19,-109,-97,60,40,-110,-2,-35,-224,-326,-182,-104
-19,-109,-97,60,40,-110,-2,-29,-218,-326,-182,-104
-19,-109,-97,60,46,-110,-2,-23,-212,-326,-182,-104
-19,-109,-97,60,46,-110,-2,-23,-206,-326,-182,-104
-19,-103,-97,60,46,-104,-2,-23,-206,-326,-176,-104
-19,-97,-91,54,46,-98,-2,-23,-200,-320,-176,-104
-13,-97,-91,54,46,-98,-2,-17,-194,-314,-176,-104
-13,-97,-91,54,46,-98,-2,-11,-188,-314,-176,-104
-13,-97,-91,54,46,-98,3,-11,-182,-314,-176,-104
-13,-97,-91,54,46,-98,3,-11,-182,-314,-176,-104
-13,-103,-97,54,46,-104,9,-5,-176,-308,-170,-104
-7,-103,-97,54,46,-104,9,0,-170,-302,-164,-104
-7,-97,-97,48,46,-104,9,0,-170,-296,-164,-104
-7,-97,-97,48,46,-104,9,6,-170,-296,-158,-104
-7,-97,-97,48,46,-104,9,6,-170,-296,-158,-104
-7,-97,-97,48,46,-104,9,6,-164,-296,-158,-104
-7,-97,-97,48,46,-98,9,12,-158,-290,-158,-104
-7,-97,-97,48,46,-98,15,18,-152,-284,-152,-104
-1,-91,-97,42,46,-92,21,18,-146,-284,-152,-104
-1,-85,-91,42,46,-86,21,18,-140,-284,-152,-104
-1,-85,-91,42,46,-86,27,24,-134,-278,-152,-104
-1,-85,-91,42,46,-86,27,30,-128,-272,-152,-104
-1,-85,-91,42,46,-80,27,36,-128,-266,-152,-104
-1,-79,-85,42,46,-74,27,36,-128,-266,-152,-104
-1,-79,-85,42,46,-74,27,42,-122,-260,-146,-104
-1,-79,-85,42,46,-80,33,48,-116,-254,-134,-104
10,-79,-85,36,46,-80,33,54,-110,-254,-128,-104
16,-67,-85,24,46,-74,33,54,-110,-254,-128,-104
16,-61,-79,18,46,-68,33,54,-104,-254,-128,-104
16,-61,-79,18,46,-68,33,60,-98,-248,-122,-104
16,-61,-79,18,46,-68,33,66,-92,-242,-116,-98
16,-61,-79,18,46,-68,33,66,-86,-236,-116,-98
16,-61,-79,18,46,-68,33,66,-80,-230,-116,-98
16,-61,-79,18,46,-68,39,72,-68,-224,-116,-98
16,-61,-79,18,46,-68,45,78,-56,-218,-110,-92
16,-61,-79,18,46,-68,45,84,-44,-212,-104,-92
16,-55,-73,18,40,-62,45,90,-38,-212,-104,-92
16,-55,-73,18,40,-62,45,96,-32,-206,-98,-86
16,-55,-73,18,40,-62,51,102,-26,-194,-92,-80
16,-49,-73,12,40,-62,51,108,-20,-188,-92,-80
16,-37,-67,6,40,-50,57,108,-14,-188,-86,-80
16,-37,-67,6,40,-50,63,114,-8,-182,-80,-74
16,-37,-67,6,40,-50,63,120,3,-170,-74,-68
16,-37,-67,6,40,-50,63,126,15,-164,-74,-68
22,-37,-61,6,40,-50,63,132,27,-158,-68,-62
28,-37,-61,6,46,-50,69,138,39,-152,-62,-62
28,-37,-61,6,46,-50,69,150,45,-146,-62,-62
28,-37,-61,6,46,-50,69,156,51,-140,-62,-62
28,-31,-61,0,46,-50,69,162,57,-134,-62,-56
28,-25,-61,0,46,-50,75,168,63,-122,-56,-56
28,-19,-55,-5,46,-44,75,174,69,-116,-56,-50
28,-13,-49,-11,46,-38,75,180,75,-110,-50,-44
34,-7,-49,-11,46,-38,75,186,81,-104,-44,-44
34,-7,-49,-11,46,-32,75,192,87,-98,-38,-44
34,-2,-49,-17,46,-26,81,204,99,-86,-32,-38
34,4,-43,-17,46,-20,87,222,123,-68,-26,-26
34,10,-37,-17,40,-14,93,240,141,-56,-20,-20
34,10,-31,-17,40,-8,99,252,153,-50,-14,-20
34,10,-25,-17,40,-8,99,258,159,-44,-8,-20
34,10,-25,-17,40,-8,105,270,171,-20,-2,-14
34,16,-25,-23,40,-3,111,282,183,-2,3,-14
40,28,-19,-35,40,9,111,294,195,9,9,-8
46,40,-13,-41,40,15,111,306,213,21,21,-2
46,46,-13,-47,40,21,117,324,237,33,33,3
46,52,-13,-53,40,27,123,342,249,45,45,9
46,58,-7,-53,40,33,123,354,261,57,51,9
46,64,-2,-53,40,33,129,384,291,75,57,21
52,70,-2,-59,40,39,135,396,309,93,63,27
58,70,-2,-59,40,39,141,408,321,117,75,33
58,76,4,-65,40,45,147,432,339,147,87,45
58,88,16,-71,34,57,153,444,357,171,99,51
58,100,28,-77,34,69,153,456,369,183,105,57
58,106,34,-83,34,69,159,474,399,207,117,63
58,112,40,-89,34,75,165,492,423,237,129,75
64,124,46,-95,34,81,171,522,453,267,147,87
70,136,52,-101,34,87,177,540,471,291,159,93
70,142,58,-101,34,93,183,552,495,315,171,99
70,148,58,-107,28,99,189,570,519,345,183,111
70,154,58,-107,28,99,189,582,537,375,207,123
76,154,58,-113,28,99,195,606,555,411,225,129
82,166,70,-125,28,111,201,618,585,447,237,141
82,196,112,-137,16,141,201,624,597,465,249,153
82,202,124,-137,4,159,201,636,627,501,273,165
82,208,124,-143,4,165,201,648,657,537,291,177
88,214,124,-149,4,171,207,666,681,573,309,189
94,226,124,-155,4,183,207,678,705,603,327,201
94,232,124,-155,-1,183,207,690,729,633,339,213
94,232,130,-155,-7,183,207,696,747,663,357,225
94,256,148,-167,-13,201,207,702,759,693,369,231
100,292,166,-191,-13,237,207,708,777,735,387,243
112,304,172,-197,-13,243,207,714,807,783,405,255
112,304,178,-197,-13,243,207,714,819,807,435,273
112,310,190,-203,-19,249,207,714,831,831,447,279
112,322,196,-209,-25,261,207,714,843,855,465,291
118,334,202,-221,-25,267,207,714,867,891,495,303
124,346,208,-227,-25,279,207,714,879,915,507,315
124,352,214,-233,-31,291,207,714,891,933,519,327
124,358,226,-233,-37,297,207,714,903,963,531,339
124,364,232,-239,-43,303,207,714,915,993,543,345
124,370,238,-245,-43,309,207,714,927,1023,561,357
124,376,244,-251,-43,315,207,714,933,1047,573,363
124,388,256,-251,-49,321,201,708,939,1059,579,375
124,394,262,-251,-55,327,195,696,939,1077,591,381
124,406,274,-251,-61,339,189,678,945,1089,597,387
124,412,286,-251,-67,351,183,654,945,1101,609,393
124,418,292,-257,-73,357,177,630,945,1107,615,399
124,424,298,-263,-79,363,171,600,945,1113,621,405
124,430,304,-269,-79,369,165,588,945,1113,621,405
124,430,310,-269,-79,375,159,558,939,1113,627,405
124,430,310,-269,-79,375,153,528,933,1113,627,411
124,430,316,-269,-79,375,141,510,921,1113,627,417
124,436,322,-269,-85,381,123,474,903,1107,627,417
124,448,334,-269,-91,387,105,426,867,1089,621,417
124,454,340,-269,-97,393,87,384,843,1059,615,417
118,460,346,-269,-97,399,75,348,813,1029,597,411
112,460,352,-269,-103,405,63,318,789,987,579,405
106,460,352,-269,-115,405,51,282,753,951,561,393
100,454,352,-269,-115,405,39,252,723,915,537,387
94,442,346,-263,-115,399,33,234,687,873,525,375
94,418,334,-251,-115,381,27,204,651,831,501,351
88,406,328,-239,-115,375,21,174,603,771,465,333
76,400,328,-233,-115,369,15,144,561,723,441,321
64,376,322,-221,-115,357,9,126,519,669,417,309
58,346,304,-209,-115,327,3,108,483,621,387,297
52,334,286,-197,-109,315,3,84,453,573,351,273
46,322,280,-185,-109,303,-2,60,411,507,315,255
40,298,268,-173,-109,291,-8,36,369,453,285,225
40,274,256,-161,-109,273,-8,18,327,405,255,201
34,262,244,-149,-109,261,-14,-5,285,351,225,171
28,250,232,-143,-109,249,-20,-17,243,297,201,141
22,226,214,-131,-109,225,-20,-29,201,255,171,129
22,208,190,-119,-103,201,-20,-41,171,213,153,117
22,196,178,-113,-91,189,-20,-53,141,171,129,99
16,184,166,-101,-85,177,-26,-77,111,123,99,75
16,166,154,-95,-79,159,-26,-89,81,81,69,57
10,124,130,-83,-73,129,-26,-101,63,39,45,45
5,94,118,-71,-67,117,-26,-107,39,9,27,33
-1,82,106,-59,-61,105,-26,-113,9,-26,9,9
-1,70,94,-47,-55,93,-26,-119,-20,-56,-14,-8
-1,58,82,-35,-49,81,-26,-125,-38,-80,-26,-26
-1,46,64,-23,-43,69,-26,-131,-56,-98,-38,-38
-1,22,34,-11,-37,39,-26,-131,-68,-110,-44,-44
-1,4,16,0,-31,9,-26,-131,-80,-128,-56,-50
-7,-7,4,6,-25,3,-26,-137,-98,-152,-68,-62
-7,-13,-2,12,-25,-3,-26,-143,-110,-182,-80,-74
-7,-19,-7,12,-19,-8,-26,-149,-122,-200,-92,-80
-7,-19,-7,12,-13,-14,-26,-155,-134,-206,-104,-86
-13,-25,-7,18,-7,-20,-26,-155,-146,-212,-116,-98
-19,-37,-19,30,-7,-32,-26,-155,-158,-224,-122,-104
-19,-43,-25,30,-1,-38,-26,-155,-164,-236,-128,-116
-19,-43,-25,30,-1,-38,-26,-161,-176,-248,-140,-128
-19,-43,-25,30,-1,-38,-26,-167,-188,-260,-146,-134
-19,-61,-37,36,4,-50,-26,-167,-194,-266,-152,-140
-19,-73,-49,42,4,-56,-26,-167,-200,-272,-158,-140
-19,-79,-55,48,4,-62,-26,-167,-206,-278,-158,-146
-19,-85,-61,54,10,-68,-26,-167,-212,-284,-158,-146
-19,-91,-73,54,16,-74,-26,-167,-212,-290,-158,-146
-19,-91,-73,54,22,-80,-26,-167,-212,-290,-164,-152
-19,-91,-73,54,22,-80,-26,-167,-218,-302,-170,-158
-19,-91,-73,54,22,-80,-26,-167,-218,-308,-170,-164
-19,-91,-73,54,22,-80,-26,-167,-218,-314,-176,-164
-19,-97,-73,54,22,-80,-26,-167,-218,-314,-176,-164
-19,-97,-79,54,22,-80,-26,-167,-224,-314,-176,-164
-19,-103,-85,54,22,-86,-26,-167,-224,-320,-182,-164
-19,-109,-85,54,22,-92,-26,-167,-224,-320,-182,-164
-19,-109,-85,54,22,-92,-26,-167,-224,-320,-188,-170
-19,-109,-85,54,22,-92,-26,-167,-230,-320,-194,-170
-19,-109,-85,54,22,-92,-26,-167,-230,-320,-194,-170
-25,-115,-85,60,22,-98,-26,-167,-230,-326,-194,-170
-25,-115,-85,66,22,-98,-26,-167,-230,-326,-194,-170
-25,-115,-85,66,22,-98,-26,-167,-230,-326,-194,-170
-25,-109,-85,66,22,-98,-26,-167,-230,-326,-194,-170
-25,-109,-85,66,22,-98,-26,-167,-230,-332,-194,-176
-25,-109,-85,66,22,-98,-26,-161,-230,-332,-194,-176
-25,-109,-85,66,22,-98,-26,-161,-230,-332,-194,-176
-25,-109,-85,66,22,-98,-26,-161,-230,-332,-194,-176
-25,-109,-85,66,22,-98,-20,-155,-230,-332,-194,-176
-25,-109,-85,66,22,-98,-20,-149,-230,-332,-194,-176
-25,-109,-85,66,22,-98,-20,-143,-230,-332,-194,-176
-25,-109,-85,66,22,-98,-20,-143,-230,-332,-194,-176
-25,-109,-85,66,22,-98,-20,-143,-230,-332,-194,-176
-25,-109,-85,66,28,-98,-20,-143,-230,-332,-194,-176
-25,-109,-85,66,28,-98,-20,-137,-230,-332,-194,-176
-25,-109,-85,66,28,-98,-20,-137,-230,-332,-194,-176
-25,-109,-79,66,28,-92,-20,-137,-230,-332,-194,-176
-25,-109,-79,66,28,-92,-20,-131,-230,-332,-194,-176
-25,-109,-79,66,28,-92,-20,-125,-230,-332,-194,-176
-25,-109,-79,66,28,-92,-14,-119,-224,-326,-194,-176
-25,-109,-79,66,28,-92,-8,-113,-218,-326,-194,-176
-25,-109,-79,66,28,-92,-2,-107,-218,-326,-194,-176
-25,-109,-79,66,28,-92,-2,-107,-218,-326,-194,-176
-25,-109,-79,60,28,-92,-2,-101,-212,-326,-194,-176
-25,-109,-79,54,28,-92,-2,-95,-212,-326,-194,-176
-25,-109,-79,54,28,-92,3,-95,-212,-326,-194,-176
-25,-109,-79,54,28,-92,3,-95,-212,-326,-188,-170
-25,-109,-79,54,28,-92,3,-95,-212,-326,-182,-170
-25,-109,-79,54,28,-92,3,-95,-206,-320,-182,-170
-25,-109,-79,54,28,-92,3,-95,-206,-320,-182,-170
-25,-109,-79,54,28,-92,3,-95,-206,-320,-176,-164
-25,-109,-79,54,28,-92,3,-89,-206,-320,-176,-158
-25,-109,-79,54,28,-92,3,-89,-206,-320,-170,-158
-25,-109,-79,54,28,-92,3,-89,-200,-314,-170,-158
-25,-109,-79,54,28,-92,3,-83,-200,-314,-164,-158
-25,-109,-79,54,28,-92,3,-83,-200,-314,-164,-158
-25,-97,-67,54,28,-80,3,-83,-200,-314,-164,-158
-25,-85,-61,48,28,-68,3,-83,-200,-308,-164,-158
-25,-85,-61,48,28,-68,3,-83,-200,-302,-158,-152
-25,-85,-61,48,28,-68,3,-77,-200,-302,-152,-152
-25,-85,-61,48,28,-68,3,-77,-200,-302,-152,-152
-25,-85,-61,48,28,-68,3,-77,-200,-302,-152,-146
-25,-85,-61,48,28,-68,3,-77,-200,-302,-146,-140
-19,-85,-61,42,28,-68,3,-77,-200,-302,-146,-140
-19,-85,-61,42,28,-68,3,-77,-200,-302,-146,-140
-19,-85,-61,42,28,-74,3,-77,-200,-302,-146,-140
-19,-85,-61,42,28,-80,3,-77,-200,-302,-146,-140
-19,-85,-61,42,28,-74,3,-77,-200,-302,-146,-140
-19,-85,-61,42,28,-68,3,-77,-200,-302,-146,-140
-19,-85,-61,42,28,-68,3,-77,-200,-296,-146,-140
-19,-85,-61,42,28,-68,3,-77,-200,-296,-146,-140
-19,-85,-61,42,28,-68,-2,-77,-206,-296,-146,-140
-19,-85,-61,42,28,-68,-8,-77,-206,-296,-146,-140
-19,-79,-55,36,28,-68,-14,-77,-206,-296,-146,-140
-19,-73,-55,36,28,-68,-20,-77,-206,-296,-146,-140
-19,-73,-55,36,28,-68,-20,-77,-206,-296,-146,-140
-19,-73,-55,36,28,-74,-20,-71,-206,-296,-140,-140
-19,-73,-61,36,28,-74,-20,-65,-206,-296,-140,-140
-19,-73,-61,36,28,-74,-20,-59,-206,-296,-140,-140
-19,-73,-61,36,28,-74,-20,-53,-206,-296,-140,-140
-19,-73,-61,36,28,-74,-20,-47,-206,-296,-140,-134
-19,-73,-61,36,28,-74,-20,-47,-206,-296,-134,-134
-19,-73,-61,36,28,-74,-20,-41,-206,-296,-134,-134
-19,-73,-61,36,28,-74,-20,-41,-212,-296,-134,-134
-19,-73,-61,36,28,-74,-20,-41,-212,-296,-134,-134
-19,-73,-61,36,34,-74,-20,-35,-212,-296,-134,-134
-19,-73,-61,36,34,-74,-20,-35,-218,-296,-134,-134
-19,-73,-55,36,34,-74,-20,-35,-224,-296,-134,-134
-19,-73,-55,36,34,-74,-20,-35,-224,-296,-134,-134
-19,-73,-55,36,34,-74,-20,-29,-230,-296,-134,-134
-19,-73,-55,36,34,-74,-20,-29,-230,-296,-134,-134
-19,-73,-55,36,34,-74,-20,-23,-230,-296,-134,-134
-19,-79,-55,36,34,-74,-20,-23,-230,-296,-134,-134
-19,-85,-61,36,34,-80,-20,-17,-230,-302,-134,-134
-19,-85,-67,36,34,-80,-20,-17,-230,-302,-134,-134
-19,-85,-67,36,34,-80,-20,-17,-230,-302,-134,-134
-19,-85,-61,36,34,-80,-20,-11,-230,-302,-134,-134
-19,-85,-61,36,34,-80,-20,-5,-230,-302,-134,-134
-19,-97,-67,42,40,-86,-20,0,-230,-302,-134,-134
-19,-103,-73,48,40,-92,-20,0,-230,-302,-134,-134
-19,-103,-79,48,40,-92,-20,0,-236,-302,-134,-134
-19,-103,-79,48,40,-92,-20,0,-236,-302,-134,-134
-19,-103,-79,48,40,-92,-20,6,-236,-302,-134,-134
-19,-103,-85,48,46,-92,-20,6,-236,-302,-134,-134
-19,-103,-85,48,46,-92,-20,6,-236,-302,-134,-134
-19,-103,-85,48,46,-92,-20,6,-242,-308,-134,-134
-19,-103,-85,48,46,-92,-20,6,-242,-308,-134,-134
-19,-103,-85,48,46,-92,-20,6,-242,-308,-134,-134
-19,-103,-85,48,46,-92,-20,6,-242,-308,-134,-134
-19,-103,-85,48,46,-92,-20,6,-242,-314,-134,-134
-19,-103,-85,48,46,-92,-20,6,-242,-314,-134,-134
-19,-103,-85,48,46,-92,-20,6,-242,-314,-134,-134
-19,-103,-85,48,46,-92,-20,6,-248,-314,-134,-134
-19,-103,-85,48,46,-92,-20,6,-248,-314,-134,-134
-19,-103,-85,48,46,-92,-20,6,-248,-314,-134,-134
-19,-109,-85,48,46,-92,-20,6,-248,-314,-134,-134
-19,-115,-85,48,46,-92,-20,6,-248,-314,-134,-134
-19,-115,-85,48,46,-92,-20,6,-248,-314,-134,-134
-19,-115,-85,48,46,-92,-20,6,-248,-314,-134,-134
-19,-115,-85,48,46,-92,-20,6,-248,-314,-134,-134
-19,-115,-85,48,46,-92,-20,6,-248,-314,-134,-134
-19,-115,-85,48,46,-92,-20,6,-248,-314,-134,-134
-19,-115,-85,48,46,-92,-20,6,-248,-314,-134,-134
-19,-115,-91,48,46,-104,-20,6,-248,-314,-134,-134
-19,-115,-91,48,46,-104,-20,6,-248,-314,-134,-134
-19,-115,-91,48,46,-104,-20,6,-248,-314,-134,-134
-19,-115,-91,48,46,-104,-20,6,-248,-314,-134,-134
-19,-121,-91,54,46,-104,-20,6,-248,-314,-134,-134
-19,-127,-91,60,46,-104,-20,6,-248,-314,-134,-134
-19,-127,-91,60,46,-104,-20,6,-248,-314,-134,-134
-19,-121,-91,60,46,-98,-20,0,-248,-314,-134,-134
-19,-115,-85,60,46,-92,-20,-5,-248,-314,-134,-134
-19,-115,-85,60,46,-92,-20,-5,-248,-314,-134,-134
-19,-121,-91,60,46,-104,-20,-5,-248,-314,-134,-134
-19,-121,-91,60,46,-104,-20,-5,-248,-314,-134,-134
-19,-121,-91,60,46,-104,-20,-5,-248,-314,-134,-134
-19,-121,-91,60,46,-104,-20,-5,-248,-314,-134,-134
-19,-121,-91,60,46,-104,-20,-5,-248,-314,-134,-134
-19,-121,-91,60,46,-104,-20,-11,-248,-314,-134,-134
-19,-121,-97,60,46,-110,-20,-11,-248,-314,-134,-134
-19,-121,-97,60,46,-110,-20,-11,-248,-314,-134,-134
-19,-127,-97,60,46,-116,-20,-11,-248,-314,-134,-134
-19,-133,-97,66,46,-116,-20,-11,-248,-314,-134,-134
-19,-133,-97,66,46,-116,-20,-11,-248,-314,-134,-134
-19,-133,-97,66,46,-116,-20,-11,-248,-314,-134,-134
-19,-133,-97,66,46,-116,-20,-11,-248,-314,-134,-134
-19,-139,-103,66,46,-122,-20,-11,-248,-314,-134,-134
-19,-139,-103,66,46,-122,-20,-11,-248,-314,-134,-134
-19,-133,-103,66,46,-122,-20,-17,-248,-314,-134,-134
-19,-127,-103,66,46,-116,-20,-17,-248,-314,-134,-134
-19,-127,-103,66,46,-116,-26,-17,-248,-314,-134,-134
-19,-127,-103,66,46,-116,-26,-17,-248,-314,-134,-134
-19,-127,-103,66,46,-116,-26,-17,-248,-314,-134,-134
-19,-127,-103,66,46,-116,-26,-23,-248,-314,-134,-134
-19,-127,-103,66,46,-116,-26,-23,-248,-314,-134,-134
-19,-133,-103,66,46,-116,-26,-23,-248,-314,-134,-134
-19,-133,-103,66,46,-122,-26,-23,-248,-314,-134,-134
-19,-139,-103,66,46,-128,-26,-23,-248,-314,-134,-134
-19,-139,-103,66,46,-128,-26,-23,-248,-314,-134,-134
-19,-139,-103,66,46,-128,-26,-23,-248,-314,-134,-134
-19,-139,-103,66,46,-128,-26,-23,-248,-314,-134,-134
-19,-139,-103,66,46,-128,-26,-23,-248,-314,-134,-134
-19,-139,-103,66,46,-128,-26,-23,-248,-314,-134,-134
-19,-139,-103,66,46,-128,-26,-23,-248,-314,-134,-134
-19,-139,-103,66,46,-128,-32,-23,-248,-314,-134,-134
-19,-139,-109,66,46,-128,-32,-23,-248,-314,-134,-134
-19,-139,-109,66,46,-128,-32,-23,-248,-314,-134,-134
-19,-139,-109,66,46,-128,-32,-23,-248,-314,-134,-134
-19,-139,-109,66,46,-128,-32,-23,-248,-314,-134,-134
-19,-139,-109,66,46,-128,-32,-23,-248,-314,-134,-134
-19,-139,-115,66,52,-128,-32,-23,-248,-314,-134,-134
-19,-139,-115,66,52,-128,-32,-23,-248,-314,-134,-134
-19,-139,-115,66,52,-128,-32,-23,-248,-314,-134,-134
-19,-139,-115,66,52,-128,-32,-23,-248,-314,-134,-134
-19,-139,-115,66,52,-128,-32,-29,-248,-314,-134,-134
-19,-139,-115,66,52,-128,-32,-29,-248,-314,-134,-134
-19,-145,-115,66,52,-134,-32,-29,-248,-314,-134,-134
-19,-145,-115,72,52,-134,-32,-29,-248,-314,-134,-134
-19,-145,-115,72,52,-134,-32,-29,-248,-314,-134,-134
-19,-145,-115,72,52,-134,-32,-29,-248,-314,-134,-134
-19,-151,-121,72,52,-140,-32,-29,-248,-314,-134,-134
-19,-151,-121,72,52,-140,-32,-29,-248,-314,-134,-134
-19,-151,-121,72,52,-140,-32,-29,-248,-314,-134,-134
-19,-151,-121,72,52,-140,-32,-29,-248,-314,-134,-134
-19,-151,-121,72,52,-140,-32,-29,-248,-314,-134,-134
-19,-151,-115,72,52,-134,-38,-35,-248,-314,-134,-134
-19,-151,-115,72,52,-134,-38,-41,-248,-314,-134,-134
-19,-151,-115,72,52,-134,-38,-41,-248,-314,-134,-134
-19,-151,-121,72,52,-134,-38,-41,-248,-314,-134,-134
-19,-151,-127,72,52,-134,-38,-41,-248,-314,-134,-134
-19,-151,-127,72,52,-134,-38,-41,-248,-314,-134,-134
-19,-151,-127,72,52,-134,-38,-41,-248,-314,-134,-134
-19,-151,-127,72,52,-134,-38,-41,-248,-314,-134,-134
-19,-151,-127,72,52,-140,-38,-41,-248,-314,-134,-134
-19,-151,-127,72,52,-140,-38,-41,-248,-314,-134,-134
-19,-151,-127,72,52,-140,-38,-41,-248,-314,-134,-134
-19,-151,-127,72,52,-140,-38,-41,-248,-314,-134,-134
-19,-151,-127,72,52,-140,-38,-41,-248,-314,-134,-134
-19,-151,-127,72,52,-140,-38,-41,-248,-314,-134,-134
-19,-151,-127,72,52,-140,-38,-41,-248,-314,-134,-134
-19,-151,-127,72,52,-140,-38,-41,-248,-314,-134,-134
-19,-151,-127,72,52,-140,-38,-41,-248,-314,-134,-134
-19,-151,-127,72,52,-140,-38,-41,-248,-314,-134,-134
-19,-151,-127,72,52,-140,-38,-41,-248,-314,-134,-134
-19,-151,-127,72,52,-140,-38,-41,-248,-314,-134,-134
-19,-151,-127,72,52,-140,-38,-41,-248,-314,-134,-134
-19,-151,-127,72,52,-140,-38,-41,-248,-314,-134,-134
-19,-151,-127,72,52,-140,-38,-41,-248,-314,-134,-134
-19,-151,-127,78,52,-140,-38,-41,-248,-314,-134,-134
-19,-151,-127,78,52,-140,-38,-41,-248,-314,-134,-134
-19,-151,-127,78,52,-140,-38,-47,-248,-314,-134,-134
-19,-151,-127,78,52,-140,-38,-47,-248,-314,-134,-134
-19,-151,-127,78,52,-140,-38,-47,-248,-314,-134,-134
-19,-151,-127,78,52,-140,-38,-47,-248,-314,-134,-134
-19,-151,-127,78,52,-140,-38,-47,-248,-314,-134,-134
-19,-151,-127,78,52,-140,-38,-47,-248,-314,-134,-134
-19,-151,-127,78,52,-140,-38,-47,-248,-314,-134,-134
-19,-157,-139,78,52,-146,-38,-47,-248,-314,-134,-134
-19,-163,-145,78,52,-152,-38,-47,-248,-314,-134,-134
-19,-163,-145,78,52,-152,-38,-47,-248,-314,-134,-134
-19,-163,-145,78,52,-152,-38,-47,-248,-314,-134,-134
-19,-163,-145,78,52,-152,-38,-47,-248,-314,-134,-134
-19,-163,-145,78,52,-152,-38,-47,-242,-314,-134,-134
-19,-163,-145,78,52,-152,-38,-47,-242,-314,-134,-134
-19,-169,-145,84,52,-152,-38,-47,-242,-314,-134,-134
-19,-169,-145,90,52,-152,-38,-47,-242,-314,-134,-134
-19,-169,-145,90,52,-152,-38,-47,-242,-314,-134,-134
-19,-169,-145,90,52,-152,-38,-47,-242,-314,-134,-134
-19,-169,-145,90,52,-152,-38,-47,-242,-314,-134,-134
-19,-169,-145,90,52,-152,-38,-47,-242,-314,-134,-134
-19,-169,-145,90,52,-152,-38,-47,-242,-314,-134,-134
-19,-169,-145,90,58,-158,-38,-47,-242,-314,-134,-134
-19,-169,-145,90,58,-158,-38,-47,-242,-314,-134,-134
-19,-169,-145,90,58,-158,-38,-47,-242,-314,-134,-134
-19,-169,-145,90,58,-158,-38,-47,-242,-314,-134,-134
-19,-169,-145,90,58,-158,-38,-47,-242,-314,-134,-134
-19,-169,-145,90,58,-158,-38,-47,-242,-314,-134,-134
-19,-169,-145,90,58,-158,-38,-47,-242,-314,-134,-134
-19,-169,-145,90,58,-158,-38,-47,-242,-314,-134,-134
-19,-163,-145,84,58,-158,-32,-47,-236,-308,-134,-134
-19,-157,-139,84,58,-152,-26,-47,-236,-308,-134,-134
-19,-157,-139,84,58,-152,-20,-47,-236,-308,-134,-134
-19,-151,-139,84,58,-152,-14,-41,-236,-308,-134,-134
-19,-145,-133,84,58,-152,-14,-41,-230,-308,-128,-128
-19,-139,-133,78,58,-146,-8,-41,-230,-308,-128,-128
-19,-139,-127,78,58,-140,-8,-35,-230,-308,-128,-128
-19,-139,-127,78,58,-140,-8,-35,-230,-308,-128,-128
-19,-133,-121,78,58,-134,-2,-35,-224,-308,-128,-128
-19,-127,-115,66,58,-128,3,-35,-218,-302,-128,-128
-19,-115,-109,60,58,-116,9,-29,-218,-302,-128,-128
-19,-115,-109,54,58,-110,15,-29,-218,-302,-128,-128
-19,-115,-109,54,58,-110,21,-23,-218,-302,-128,-128
-19,-115,-103,54,58,-110,21,-17,-218,-302,-128,-128
-19,-103,-97,54,58,-104,21,-17,-218,-302,-128,-128
-19,-103,-97,54,58,-104,21,-11,-212,-296,-128,-128
-13,-103,-103,54,58,-104,21,-11,-200,-290,-122,-122
-13,-103,-103,54,58,-104,21,-11,-194,-284,-122,-122
-13,-103,-103,54,58,-104,9,-17,-194,-284,-122,-116
-13,-103,-103,54,58,-104,-2,-23,-194,-284,-116,-110
-13,-97,-97,48,58,-98,-14,-23,-194,-284,-104,-104
-7,-85,-91,36,58,-86,-20,-29,-194,-284,-98,-104
-7,-79,-91,36,58,-86,-26,-29,-194,-278,-92,-98
-7,-79,-91,36,58,-86,-26,-29,-194,-278,-92,-92
-7,-79,-91,36,58,-86,-26,-29,-194,-278,-86,-86
-7,-73,-85,36,58,-80,-32,-35,-194,-278,-86,-86
-1,-61,-73,30,52,-62,-32,-41,-194,-278,-86,-86
5,-55,-73,24,52,-62,-32,-41,-194,-272,-80,-80
5,-55,-79,24,52,-68,-32,-41,-194,-266,-74,-68
10,-61,-85,24,52,-74,-32,-41,-194,-260,-68,-62
10,-61,-91,24,52,-74,-32,-41,-194,-260,-68,-62
10,-61,-91,24,52,-74,-32,-41,-194,-260,-62,-56
16,-61,-91,24,58,-74,-32,-41,-194,-254,-56,-50
16,-61,-97,24,64,-74,-32,-41,-194,-254,-56,-50
16,-61,-97,24,64,-74,-32,-41,-194,-254,-56,-50
16,-61,-97,24,64,-74,-32,-41,-194,-254,-56,-50
16,-67,-97,24,64,-80,-32,-41,-194,-254,-56,-50
16,-79,-109,24,70,-92,-32,-47,-194,-254,-56,-50
16,-91,-115,30,70,-104,-32,-47,-194,-254,-56,-50
10,-97,-115,36,70,-110,-32,-47,-194,-254,-56,-50
10,-103,-115,42,70,-116,-32,-47,-194,-254,-56,-50
10,-109,-115,42,70,-116,-32,-47,-194,-254,-62,-50
5,-115,-115,48,70,-122,-32,-47,-200,-260,-68,-56
-1,-121,-115,54,70,-122,-32,-47,-206,-266,-74,-62
-7,-127,-115,60,70,-122,-32,-47,-212,-266,-74,-68
-7,-133,-115,66,70,-128,-32,-47,-212,-272,-80,-74
-7,-139,-121,72,70,-134,-32,-47,-218,-278,-86,-80
-13,-145,-127,78,70,-140,-32,-47,-218,-284,-92,-86
-13,-151,-127,78,70,-146,-32,-47,-218,-290,-98,-92
-13,-157,-133,78,70,-146,-32,-53,-218,-290,-104,-92
-13,-163,-139,78,70,-152,-32,-53,-224,-296,-104,-92
-13,-169,-145,84,70,-158,-32,-53,-230,-296,-104,-92
-13,-169,-151,84,70,-158,-32,-59,-230,-296,-104,-92
-13,-169,-151,84,70,-158,-32,-65,-242,-296,-104,-92
-13,-169,-151,84,70,-152,-32,-71,-242,-296,-104,-92
-13,-169,-151,84,70,-152,-32,-71,-242,-296,-104,-92
-13,-163,-151,84,70,-152,-32,-71,-242,-296,-104,-92
-13,-163,-145,84,70,-152,-32,-71,-236,-296,-104,-92
-19,-163,-139,84,64,-152,-32,-65,-224,-290,-98,-92
-19,-157,-127,84,58,-146,-26,-53,-200,-278,-92,-86
-19,-133,-97,78,52,-122,-14,-23,-170,-236,-74,-80
-19,-115,-85,72,46,-104,3,6,-128,-206,-50,-68
-19,-85,-61,60,34,-74,15,24,-98,-170,-32,-56
-19,-55,-25,48,10,-38,27,42,-68,-140,-20,-50
-19,-25,4,42,-7,-8,45,66,-38,-110,-8,-44
-25,-13,22,36,-19,9,57,96,-8,-92,3,-38
-31,-2,40,30,-31,21,87,138,33,-80,9,-32
-37,10,70,30,-49,33,129,192,69,-68,15,-32
-43,22,100,24,-61,51,177,282,111,-62,15,-32
-55,28,112,24,-73,63,261,402,159,-56,9,-44
-61,28,118,24,-79,69,345,522,207,-56,-2,-74
-67,34,124,24,-85,75,459,672,255,-62,-38,-116
-79,46,142,18,-97,93,567,816,309,-116,-128,-194
-109,76,196,18,-139,135,669,966,369,-212,-248,-272
-139,130,304,12,-223,207,765,1098,459,-260,-326,-350
-157,244,436,-5,-295,339,807,1230,585,-260,-344,-368
-163,382,562,-71,-349,477,831,1368,747,-206,-338,-368
-163,484,664,-125,-391,579,843,1458,927,-26,-242,-326
-163,628,784,-203,-439,711,849,1476,1101,201,-80,-206
-139,838,928,-353,-481,885,849,1476,1335,537,183,-20
-61,1048,1048,-497,-499,1059,795,1392,1623,1041,579,255
28,1222,1138,-635,-511,1191,681,1182,1935,1659,1083,567
124,1402,1210,-767,-517,1305,537,936,2282,2366,1611,903
220,1582,1294,-923,-517,1449,345,660,2605,3127,2174,1257
316,1780,1396,-1055,-523,1581,141,330,2815,3859,2743,1629
388,1954,1492,-1169,-529,1731,-32,-65,2893,4501,3247,1971
430,2115,1648,-1271,-571,1887,-146,-485,2893,4914,3613,2228
430,2235,1798,-1313,-649,2013,-176,-767,2827,5100,3775,2360
424,2277,1888,-1325,-709,2084,-212,-935,2647,5124,3805,2408
382,2337,2014,-1331,-805,2186,-308,-1163,2330,5094,3805,2425
304,2379,2145,-1331,-907,2270,-398,-1367,1941,4831,3685,2425
220,2265,2097,-1253,-907,2186,-398,-1367,1719,4537,3427,2330
166,1738,1618,-965,-763,1677,-218,-1169,1719,4339,3193,2090
118,1222,1144,-683,-559,1185,3,-893,1731,4039,2881,1803
52,868,844,-479,-457,861,117,-755,1569,3493,2378,1431
5,664,694,-335,-409,675,135,-725,1155,2809,1803,1059
-49,544,640,-245,-391,591,117,-743,567,2060,1287,759
-85,478,616,-185,-379,543,15,-857,-14,1281,813,495
-127,394,580,-137,-373,483,-80,-929,-374,567,327,261
-157,292,508,-77,-361,405,-134,-959,-524,21,-2,81
-169,202,418,-29,-325,315,-182,-971,-602,-260,-122,21
-175,160,346,-5,-283,255,-224,-971,-620,-314,-140,-2
-175,100,268,24,-241,177,-254,-929,-620,-314,-140,-14
-175,28,196,54,-199,117,-272,-851,-596,-302,-140,-20
-175,-7,148,66,-181,75,-278,-785,-572,-296,-140,-20
-169,-19,124,72,-157,51,-278,-707,-530,-296,-140,-26
-163,-25,112,72,-145,39,-272,-593,-470,-290,-140,-32
-151,-43,70,78,-115,9,-224,-467,-392,-278,-140,-38
-139,-97,16,90,-73,-50,-140,-341,-326,-272,-134,-38
-115,-115,-19,96,-43,-74,-80,-251,-278,-266,-128,-38
-91,-115,-31,96,-25,-80,-62,-209,-254,-266,-128,-38
-85,-115,-37,96,-13,-80,-50,-173,-242,-266,-128,-44
-79,-115,-43,96,-7,-86,-38,-137,-230,-266,-128,-50
-73,-115,-55,96,-1,-92,-8,-107,-218,-266,-128,-50
-73,-121,-67,96,4,-104,9,-77,-206,-266,-128,-50
-67,-133,-79,96,4,-110,15,-65,-200,-272,-128,-50
-61,-133,-91,96,10,-116,15,-59,-194,-284,-128,-56
-55,-133,-91,96,16,-116,15,-53,-194,-296,-134,-62
-49,-133,-91,96,16,-116,15,-41,-194,-302,-146,-74
-43,-133,-91,96,22,-116,21,-23,-188,-308,-146,-74
-37,-133,-103,90,34,-122,27,0,-182,-308,-146,-74
-37,-133,-109,90,40,-128,33,12,-176,-308,-146,-74
-37,-133,-109,90,46,-128,39,24,-170,-308,-146,-74
-37,-133,-115,90,46,-128,39,30,-164,-308,-146,-74
-31,-133,-121,90,46,-128,39,36,-164,-308,-146,-74
-31,-133,-121,90,46,-128,39,42,-158,-308,-146,-74
-31,-133,-121,90,46,-128,39,42,-152,-308,-146,-74
-31,-133,-121,90,46,-128,39,42,-152,-308,-146,-74
-31,-133,-121,90,46,-128,39,48,-152,-308,-146,-74
-31,-133,-121,90,46,-128,39,54,-146,-308,-146,-74
-25,-133,-121,90,46,-128,39,60,-146,-308,-146,-74
-25,-133,-121,84,46,-128,39,66,-140,-308,-146,-74
-25,-139,-121,84,46,-128,39,72,-134,-308,-146,-74
-25,-139,-121,84,46,-134,39,78,-128,-308,-146,-74
-25,-139,-121,84,46,-134,39,78,-122,-308,-146,-74
-25,-139,-121,84,46,-134,39,78,-122,-308,-146,-74
-25,-139,-121,84,46,-134,39,84,-116,-308,-146,-74
-25,-139,-127,84,52,-134,45,90,-110,-308,-140,-74
-25,-139,-127,84,52,-134,51,96,-104,-302,-134,-74
-25,-133,-127,84,52,-134,51,96,-98,-296,-134,-74
-25,-115,-115,72,52,-122,51,96,-98,-296,-134,-74
-25,-115,-115,66,52,-122,51,96,-92,-296,-134,-74
-19,-121,-121,66,52,-128,51,102,-86,-290,-128,-74
-19,-121,-121,66,52,-128,51,108,-80,-284,-122,-74
-19,-121,-121,66,52,-128,51,114,-80,-278,-122,-74
-19,-121,-121,66,52,-128,51,114,-80,-278,-122,-74
-19,-121,-121,66,52,-128,51,120,-80,-278,-122,-74
-19,-121,-121,66,52,-128,51,120,-74,-278,-116,-74
-19,-121,-121,66,52,-128,57,126,-68,-278,-116,-74
-19,-121,-121,60,52,-122,57,126,-62,-278,-116,-74
-19,-115,-121,60,52,-122,57,126,-56,-272,-110,-74
-19,-115,-121,60,52,-122,57,126,-50,-260,-110,-74
-19,-115,-121,60,52,-122,57,132,-44,-254,-110,-74
-19,-115,-121,60,52,-122,63,138,-38,-248,-104,-74
-13,-115,-121,60,52,-122,69,144,-38,-242,-98,-74
-13,-115,-121,60,52,-122,75,150,-32,-236,-92,-68
-13,-115,-121,60,52,-122,75,150,-26,-236,-92,-68
-13,-115,-121,60,52,-122,75,156,-26,-236,-92,-62
-13,-115,-121,60,52,-122,81,162,-20,-230,-86,-56
-7,-115,-127,60,52,-128,81,168,-14,-218,-80,-50
-7,-115,-127,60,52,-128,81,174,-8,-212,-80,-50
-7,-115,-127,60,52,-128,81,174,-3,-206,-80,-50
-7,-115,-127,60,52,-128,81,180,3,-200,-74,-50
-7,-109,-127,60,52,-122,81,186,9,-200,-74,-50
-7,-103,-121,60,52,-116,81,192,15,-200,-74,-50
-7,-103,-121,60,52,-116,81,198,27,-200,-74,-50
-7,-103,-121,60,52,-116,87,204,33,-194,-68,-50
-7,-103,-121,60,52,-110,93,210,39,-188,-62,-50
-7,-97,-115,54,52,-104,99,216,45,-176,-56,-44
-1,-91,-109,48,52,-98,99,216,51,-164,-56,-38
-1,-91,-109,48,52,-98,99,222,57,-158,-56,-32
-1,-91,-109,48,52,-98,105,228,63,-152,-50,-32
-1,-91,-109,48,52,-98,105,240,69,-146,-44,-32
-1,-91,-109,48,52,-98,105,246,75,-140,-38,-26
5,-85,-109,42,52,-98,105,252,87,-134,-38,-26
10,-85,-109,36,52,-98,105,258,93,-128,-32,-26
10,-85,-109,36,52,-98,105,264,99,-122,-32,-26
10,-79,-109,36,52,-98,111,270,105,-116,-32,-26
10,-79,-109,36,52,-98,111,282,117,-104,-26,-20
10,-79,-109,36,52,-98,117,294,123,-92,-20,-14
10,-79,-109,36,52,-98,123,300,135,-80,-14,-8
10,-73,-103,30,52,-86,123,306,141,-74,-8,-2
10,-67,-91,30,52,-80,123,312,153,-68,-2,-2
10,-67,-91,30,52,-74,129,324,165,-62,3,-2
10,-67,-91,30,52,-74,135,336,177,-56,9,-2
10,-61,-85,24,52,-68,141,348,189,-50,15,3
10,-49,-73,12,46,-56,141,360,201,-38,21,9
10,-37,-67,6,46,-50,141,372,219,-26,27,15
10,-37,-67,6,46,-50,147,390,231,3,33,21
16,-37,-67,6,46,-50,153,408,243,27,45,27
16,-37,-67,6,46,-50,159,414,261,39,57,33
16,-37,-67,6,46,-50,159,420,273,51,69,39
16,-31,-61,0,46,-44,159,438,285,63,75,45
22,-19,-61,-11,46,-38,165,462,309,75,87,51
28,-19,-61,-11,46,-32,171,486,333,87,93,57
28,-19,-61,-11,46,-32,177,498,345,99,99,63
28,-7,-55,-17,46,-26,177,504,357,111,105,63
34,22,-43,-29,46,-14,177,516,375,129,111,69
40,34,-31,-35,40,-3,183,540,393,159,117,75
40,40,-25,-41,40,3,189,558,411,189,129,81
40,40,-25,-41,40,3,195,588,441,219,141,93
46,40,-25,-47,40,3,201,600,465,249,159,105
46,46,-19,-53,40,9,201,612,483,261,171,111
46,52,-7,-53,34,21,201,630,495,285,183,111
46,58,-2,-59,28,33,207,642,525,315,195,117
52,64,4,-65,28,39,219,672,555,345,207,129
52,76,10,-71,28,45,231,684,585,375,219,141
52,82,16,-71,28,51,237,702,603,405,231,153
52,88,22,-77,28,57,243,714,621,441,243,165
52,94,28,-77,28,63,243,732,639,477,267,171
52,106,40,-83,22,75,243,744,663,513,291,183
58,142,58,-101,22,93,243,756,681,549,315,195
70,166,70,-119,22,105,249,768,711,579,327,207
76,172,76,-125,16,117,249,780,741,609,351,219
76,172,82,-131,10,123,249,792,765,645,375,231
82,172,82,-131,10,129,249,804,795,681,387,243
82,178,88,-131,10,135,249,816,807,705,399,255
88,190,100,-137,4,141,249,822,831,741,417,267
94,208,112,-143,4,153,249,834,855,795,435,279
94,226,124,-155,-1,165,249,840,867,831,459,291
94,238,130,-161,-7,171,249,846,897,861,483,309
94,244,136,-167,-13,177,249,846,909,891,513,321
94,256,142,-173,-19,195,249,846,921,921,525,333
100,268,154,-185,-19,207,249,846,939,951,537,345
106,280,160,-191,-19,219,249,846,963,981,561,357
106,286,166,-197,-19,231,249,846,969,999,573,369
106,298,184,-203,-31,243,243,846,975,1017,579,375
106,304,196,-203,-37,249,237,846,981,1041,585,381
106,310,202,-203,-43,255,237,846,987,1071,597,393
106,322,208,-209,-43,267,237,846,999,1101,609,405
112,334,214,-215,-43,273,237,840,1011,1131,633,417
112,340,214,-215,-43,279,231,828,1017,1143,645,429
112,340,220,-215,-49,279,219,810,1017,1155,657,435
112,346,232,-221,-55,291,207,792,1017,1161,663,441
112,358,244,-233,-61,303,201,762,1017,1167,669,447
112,358,244,-233,-61,309,195,750,1017,1173,675,453
112,358,244,-233,-67,309,195,738,1017,1179,675,459
112,358,250,-233,-73,309,189,696,1011,1179,675,465
112,370,262,-233,-79,315,183,666,1005,1179,675,465
112,376,268,-233,-85,321,177,636,993,1179,675,465
112,382,280,-233,-91,327,165,600,969,1173,675,465
106,388,292,-233,-91,333,147,564,945,1161,669,465
100,388,298,-233,-91,339,135,528,921,1137,663,459
94,388,298,-233,-97,339,123,498,891,1101,657,453
88,388,298,-233,-97,339,111,468,867,1065,645,447
82,382,298,-233,-97,339,99,438,837,1023,621,441
76,370,298,-227,-97,333,87,408,807,981,591,435
70,364,292,-221,-97,327,75,372,765,939,567,423
64,352,286,-209,-97,321,69,342,723,897,549,411
64,340,280,-197,-97,309,63,312,681,849,531,399
64,328,268,-191,-97,297,57,282,639,801,507,387
58,316,262,-185,-97,285,51,252,591,735,465,351
52,304,256,-179,-97,279,39,222,543,675,429,321
46,274,250,-167,-97,267,33,192,501,609,399,291
40,250,238,-155,-97,255,27,168,459,549,363,267
34,238,226,-143,-97,243,27,156,429,495,321,243
28,226,214,-131,-97,231,27,138,387,435,285,231
22,220,208,-119,-97,219,21,114,345,387,261,213
16,196,196,-107,-97,189,15,102,303,345,243,201
10,166,166,-89,-91,153,15,90,267,303,219,189
10,124,136,-71,-85,117,15,78,237,267,201,171
5,100,118,-59,-79,99,15,66,195,219,165,141
5,88,106,-53,-73,87,15,54,159,171,135,123
5,70,88,-47,-61,75,15,42,129,123,117,99
5,40,70,-35,-49,63,15,24,105,69,87,75
-7,28,64,-23,-43,51,15,12,75,27,57,51
-13,22,58,-11,-43,45,15,0,51,-2,27,33
-13,16,52,-5,-43,39,15,-5,33,-32,9,21
-13,10,46,0,-37,33,15,-11,15,-50,-2,3
-13,-7,22,12,-31,3,15,-17,-3,-68,-14,-8
-13,-43,-7,24,-25,-26,15,-23,-14,-80,-20,-14
-13,-67,-37,30,-13,-56,15,-23,-26,-92,-26,-20
-19,-91,-55,42,-7,-80,15,-23,-44,-110,-38,-32
-19,-97,-61,48,-1,-86,15,-29,-68,-140,-50,-44
-19,-97,-61,48,-1,-86,15,-35,-80,-170,-62,-56
-19,-97,-61,48,4,-86,15,-41,-92,-188,-74,-62
-19,-103,-67,54,10,-86,15,-41,-98,-200,-86,-68
-19,-115,-79,60,22,-98,15,-41,-110,-212,-98,-74
-19,-127,-85,66,22,-104,15,-47,-116,-218,-104,-80
-19,-133,-91,72,22,-110,15,-47,-128,-224,-110,-86
-19,-139,-97,72,22,-116,15,-47,-134,-230,-116,-86
-19,-145,-97,78,22,-122,15,-53,-146,-242,-122,-92
-25,-145,-97,84,22,-128,15,-59,-158,-254,-128,-104
-31,-151,-103,90,22,-128,15,-65,-164,-260,-134,-110
-31,-151,-103,96,28,-128,15,-65,-170,-266,-134,-116
-31,-151,-109,96,34,-128,15,-65,-170,-272,-134,-116
-31,-157,-115,96,34,-134,15,-65,-176,-278,-140,-122
-31,-163,-115,96,34,-134,15,-65,-182,-284,-146,-122
-37,-169,-115,102,34,-140,15,-65,-182,-284,-152,-128
-43,-175,-121,108,34,-152,15,-65,-188,-284,-152,-128
-43,-181,-127,108,34,-158,15,-65,-188,-284,-152,-128
-43,-181,-133,108,40,-158,15,-65,-188,-284,-152,-128
-43,-181,-133,108,40,-158,15,-65,-188,-290,-152,-128
-43,-181,-133,108,40,-158,15,-65,-188,-296,-158,-128
-43,-187,-139,108,40,-164,15,-65,-188,-302,-158,-128
-43,-193,-139,108,40,-170,15,-65,-188,-302,-158,-128
-43,-193,-139,108,40,-170,15,-65,-194,-302,-158,-128
-43,-193,-145,108,46,-170,15,-65,-194,-302,-158,-128
-43,-193,-145,108,46,-170,15,-65,-194,-302,-158,-128
-43,-193,-145,108,46,-170,15,-65,-194,-302,-158,-128
-43,-193,-145,108,46,-170,15,-65,-194,-302,-158,-134
-43,-193,-145,108,46,-170,15,-65,-194,-302,-158,-134
-43,-193,-145,114,46,-176,21,-59,-194,-302,-158,-134
-43,-193,-145,114,46,-176,27,-59,-194,-302,-158,-134
-43,-193,-145,114,46,-176,27,-59,-194,-302,-164,-140
-43,-193,-145,114,46,-176,27,-59,-194,-302,-164,-140
-43,-193,-145,114,46,-170,27,-59,-194,-302,-164,-140
-43,-193,-145,114,46,-170,27,-59,-194,-302,-164,-140
-43,-193,-145,114,46,-170,27,-53,-194,-302,-164,-140
-43,-193,-145,114,46,-170,27,-47,-194,-302,-164,-140
-43,-193,-145,114,46,-170,27,-41,-194,-302,-164,-140
-43,-193,-145,114,46,-170,27,-41,-194,-302,-164,-140
-43,-193,-145,114,46,-170,27,-41,-188,-302,-164,-140
-43,-193,-145,114,46,-170,27,-35,-188,-302,-164,-140
-43,-193,-145,114,46,-170,33,-29,-182,-302,-164,-140
-43,-193,-145,114,46,-170,33,-29,-176,-302,-164,-140
-43,-193,-145,114,46,-170,33,-29,-176,-302,-164,-140
-43,-193,-145,114,46,-170,33,-29,-176,-302,-164,-140
-43,-193,-145,114,46,-170,33,-29,-176,-302,-164,-140
-43,-193,-145,114,46,-170,33,-29,-176,-302,-164,-140
-43,-193,-145,114,46,-170,33,-29,-176,-302,-164,-140
-43,-193,-145,114,46,-170,33,-23,-176,-302,-164,-140
-43,-193,-145,114,46,-170,33,-17,-170,-302,-158,-140
-43,-193,-145,114,46,-170,33,-17,-164,-302,-158,-140
-43,-187,-145,108,46,-164,33,-17,-164,-302,-158,-140
-43,-181,-145,108,46,-158,33,-17,-158,-302,-152,-140
-43,-175,-145,108,46,-158,33,-17,-158,-302,-146,-134
-43,-169,-145,108,46,-152,33,-17,-158,-302,-146,-134
-43,-169,-139,108,46,-152,33,-17,-158,-302,-146,-134
-43,-169,-139,108,46,-152,33,-17,-158,-302,-140,-128
-43,-169,-139,108,46,-152,33,-11,-158,-302,-140,-128
-43,-169,-139,108,46,-152,33,-11,-158,-302,-140,-128
-43,-163,-139,108,46,-152,33,-11,-158,-302,-140,-128
-37,-163,-133,102,46,-146,33,-11,-158,-302,-140,-128
-37,-163,-133,102,46,-146,33,-11,-158,-302,-140,-128
-37,-163,-133,102,46,-146,33,-11,-158,-296,-134,-128
-37,-163,-133,102,46,-146,33,-11,-158,-296,-134,-122
-37,-163,-133,102,46,-146,33,-11,-158,-296,-128,-116
-37,-163,-133,102,46,-146,33,-11,-158,-296,-128,-116
-37,-163,-133,102,46,-146,33,-11,-158,-296,-128,-110
-37,-163,-133,102,46,-146,33,-11,-158,-296,-122,-110
-37,-163,-133,102,46,-146,33,-11,-158,-296,-122,-110
-37,-163,-133,102,46,-146,33,-11,-158,-290,-122,-110
-37,-163,-133,102,46,-146,33,-11,-158,-284,-116,-110
-37,-163,-133,102,46,-146,33,-11,-158,-278,-116,-110
-37,-163,-133,102,46,-146,33,-17,-158,-278,-116,-110
-37,-163,-133,102,46,-146,27,-17,-158,-278,-116,-104
-37,-163,-133,102,46,-146,21,-23,-158,-278,-116,-104
-37,-163,-133,102,46,-146,21,-29,-158,-278,-116,-104
-37,-157,-133,102,46,-146,21,-29,-158,-278,-116,-104
-37,-151,-133,102,46,-146,21,-29,-158,-278,-116,-104
-37,-151,-133,102,46,-146,21,-29,-164,-278,-116,-104
-37,-151,-133,102,46,-146,21,-35,-170,-278,-116,-104
-37,-151,-133,102,46,-146,15,-41,-170,-278,-116,-104
-31,-151,-133,96,46,-146,15,-41,-170,-278,-116,-104
-31,-151,-133,96,46,-146,15,-41,-170,-278,-116,-104
-31,-151,-133,96,46,-146,9,-47,-176,-278,-116,-104
-31,-151,-133,96,46,-146,9,-47,-182,-278,-116,-104
-31,-151,-133,96,46,-146,9,-47,-182,-278,-116,-104
-31,-151,-133,96,46,-146,3,-53,-188,-278,-116,-104
-31,-151,-133,96,46,-146,3,-53,-188,-278,-116,-104
-31,-151,-133,96,46,-146,3,-53,-194,-278,-116,-104
-31,-151,-133,96,46,-146,3,-53,-200,-278,-116,-104
-31,-151,-133,96,46,-146,3,-53,-200,-278,-116,-104
-31,-151,-139,96,46,-146,3,-53,-200,-278,-116,-104
-31,-151,-139,96,46,-146,3,-53,-200,-278,-116,-104
-31,-151,-139,96,46,-146,3,-53,-200,-278,-116,-104
-31,-151,-139,96,46,-146,3,-53,-200,-278,-116,-104
-31,-151,-139,96,46,-146,3,-53,-200,-278,-116,-104
-31,-157,-145,96,52,-152,3,-53,-200,-278,-116,-104
-31,-163,-151,96,52,-152,3,-53,-200,-278,-116,-98
-31,-163,-151,96,52,-152,3,-53,-200,-278,-116,-98
-31,-163,-151,96,52,-152,3,-59,-206,-278,-116,-98
-31,-163,-151,96,52,-152,3,-65,-212,-278,-116,-98
-31,-163,-151,96,52,-152,3,-65,-212,-278,-116,-98
-31,-163,-151,96,52,-152,3,-65,-212,-278,-116,-98
-31,-163,-151,96,52,-152,3,-65,-212,-278,-116,-98
-31,-163,-151,96,52,-152,3,-65,-212,-278,-116,-98
-31,-163,-151,96,52,-152,3,-65,-212,-278,-116,-98
-31,-169,-151,96,52,-152,3,-65,-212,-278,-116,-98
-31,-175,-151,102,52,-158,3,-65,-212,-278,-116,-98
-31,-181,-151,108,52,-158,3,-65,-212,-278,-116,-98
-31,-187,-151,108,52,-158,3,-65,-212,-278,-116,-98
-31,-187,-151,108,52,-158,3,-71,-212,-278,-116,-98
-31,-187,-151,108,52,-158,3,-71,-212,-278,-116,-92
-31,-187,-157,108,52,-164,3,-71,-212,-278,-116,-92
-31,-181,-157,108,52,-164,3,-71,-212,-278,-116,-92
-31,-169,-151,108,52,-158,-2,-77,-218,-284,-116,-92
-31,-169,-151,108,52,-158,-2,-77,-218,-290,-116,-92
-31,-175,-157,108,58,-158,-2,-77,-218,-290,-116,-92
-31,-187,-163,108,64,-164,-2,-77,-218,-290,-116,-92
-31,-193,-163,108,64,-170,-2,-77,-218,-290,-116,-92
-31,-193,-163,108,64,-170,-2,-77,-218,-290,-116,-92
-31,-193,-163,108,64,-170,-2,-77,-218,-290,-116,-92
-31,-187,-163,108,64,-170,-2,-77,-218,-290,-116,-92
-31,-187,-163,108,64,-170,-2,-77,-218,-290,-116,-92
-31,-187,-163,108,64,-170,-2,-77,-224,-290,-116,-92
-31,-187,-163,108,64,-170,-2,-77,-224,-290,-116,-92
-31,-187,-163,108,64,-170,-2,-77,-224,-290,-116,-92
-31,-187,-163,108,64,-170,-2,-77,-224,-290,-116,-92
-31,-187,-163,108,64,-170,-2,-77,-230,-290,-122,-92
-31,-187,-163,108,64,-170,-2,-77,-230,-290,-122,-92
-31,-187,-163,108,64,-170,-2,-77,-230,-290,-122,-92
-31,-187,-163,108,64,-170,-2,-83,-230,-290,-128,-92
-31,-193,-169,108,64,-176,-2,-83,-230,-290,-128,-92
-31,-199,-169,108,64,-182,-2,-83,-230,-290,-128,-92
-31,-199,-169,108,64,-182,-2,-83,-230,-290,-128,-92
-31,-199,-169,108,64,-182,-8,-83,-230,-290,-128,-92
-31,-199,-169,108,64,-182,-8,-83,-230,-290,-128,-92
-31,-199,-169,108,64,-182,-8,-83,-230,-290,-128,-92
-31,-199,-169,108,64,-182,-8,-83,-230,-290,-128,-92
-31,-199,-169,108,64,-182,-8,-83,-230,-290,-128,-92
-31,-199,-169,108,64,-182,-8,-83,-230,-290,-128,-92
-31,-199,-169,108,64,-182,-8,-83,-230,-290,-128,-92
-31,-199,-169,108,64,-182,-8,-83,-230,-290,-128,-92
-31,-199,-169,108,64,-182,-8,-83,-230,-290,-128,-92
-31,-199,-169,108,64,-182,-8,-83,-230,-290,-128,-92
-31,-193,-163,108,64,-176,-8,-83,-230,-290,-128,-92
-31,-193,-163,108,64,-176,-8,-83,-230,-290,-128,-92
-31,-193,-163,108,64,-176,-8,-83,-230,-290,-128,-92
-31,-193,-163,108,64,-176,-8,-83,-230,-290,-128,-92
-31,-193,-163,108,64,-176,-8,-83,-230,-290,-128,-92
-31,-193,-163,108,64,-176,-8,-83,-230,-290,-134,-92
-31,-193,-163,108,64,-176,-8,-83,-230,-290,-134,-92
-31,-193,-163,108,64,-176,-8,-83,-230,-290,-134,-92
-31,-193,-163,108,64,-176,-14,-83,-236,-290,-134,-92
-31,-193,-163,108,64,-176,-14,-83,-236,-290,-134,-92
-31,-193,-169,108,64,-182,-14,-83,-236,-290,-134,-92
-31,-193,-175,108,64,-182,-14,-83,-236,-290,-134,-92
-31,-193,-175,108,64,-182,-14,-83,-236,-290,-140,-92
-31,-193,-169,108,64,-176,-14,-83,-236,-290,-140,-92
-31,-193,-169,108,64,-176,-14,-83,-236,-290,-140,-92
-31,-193,-169,108,64,-176,-14,-83,-236,-290,-140,-92
-31,-199,-169,114,64,-182,-14,-83,-236,-290,-140,-92
-31,-205,-175,120,64,-188,-14,-83,-236,-290,-140,-92
-31,-205,-175,120,64,-188,-14,-83,-236,-290,-140,-92
-31,-205,-175,120,64,-182,-14,-83,-236,-290,-140,-92
-31,-205,-175,120,64,-176,-14,-83,-236,-290,-140,-92
-31,-205,-175,120,64,-176,-14,-83,-236,-290,-140,-92
-31,-205,-175,120,64,-182,-14,-83,-236,-290,-140,-92
-31,-205,-175,120,64,-188,-14,-83,-236,-290,-140,-86
-31,-205,-175,120,64,-188,-14,-83,-236,-290,-140,-86
-31,-205,-175,120,64,-188,-14,-83,-236,-290,-140,-86
-31,-211,-175,120,64,-194,-14,-83,-236,-290,-140,-86
-31,-211,-175,120,64,-194,-14,-83,-236,-290,-140,-86
-31,-199,-169,120,64,-182,-14,-83,-236,-290,-140,-86
-31,-193,-169,120,64,-176,-14,-83,-236,-290,-146,-86
-31,-199,-169,120,64,-176,-14,-83,-236,-290,-146,-86
-31,-205,-175,120,64,-182,-14,-83,-236,-290,-146,-86
-31,-205,-175,120,64,-182,-14,-83,-236,-290,-146,-86
-31,-205,-175,120,64,-182,-14,-83,-236,-290,-146,-86
-31,-205,-175,120,64,-182,-14,-83,-236,-290,-146,-86
-31,-199,-175,120,64,-182,-14,-83,-236,-290,-146,-86
-31,-199,-175,120,64,-182,-14,-83,-236,-290,-146,-86
-31,-199,-175,120,64,-182,-14,-83,-236,-290,-146,-86
-31,-199,-175,120,64,-182,-14,-83,-236,-290,-146,-86
-31,-199,-175,120,64,-182,-14,-83,-236,-290,-146,-86
-31,-199,-175,120,64,-182,-14,-83,-236,-290,-146,-86
-31,-199,-175,120,64,-182,-14,-83,-236,-290,-146,-86
-31,-199,-175,120,64,-182,-14,-83,-236,-290,-146,-86
-31,-199,-175,120,64,-182,-14,-83,-236,-290,-146,-86
-31,-199,-175,120,64,-182,-14,-83,-236,-290,-146,-86
-31,-199,-175,120,64,-182,-14,-83,-236,-290,-146,-86
-31,-199,-175,120,64,-182,-14,-83,-236,-290,-146,-86
-31,-199,-175,120,64,-182,-14,-83,-236,-290,-152,-86
-31,-199,-175,120,64,-182,-14,-83,-236,-290,-152,-86
-31,-199,-175,120,64,-182,-14,-83,-236,-290,-152,-86
-31,-199,-175,120,64,-182,-14,-83,-236,-290,-152,-86
-31,-199,-175,120,64,-182,-14,-83,-236,-290,-152,-86
-31,-199,-175,120,64,-182,-14,-83,-236,-290,-152,-86
-31,-199,-175,120,64,-182,-14,-83,-236,-290,-152,-86
-31,-199,-169,120,64,-182,-14,-83,-236,-290,-152,-86
-31,-199,-169,120,64,-182,-14,-83,-236,-290,-152,-86
-31,-205,-175,120,70,-188,-14,-83,-236,-290,-152,-86
-31,-211,-181,120,70,-194,-14,-83,-236,-290,-152,-86
-31,-211,-181,120,70,-194,-14,-83,-236,-290,-152,-86
-31,-211,-181,120,70,-194,-14,-83,-236,-290,-152,-86
-31,-211,-181,120,70,-194,-14,-83,-236,-290,-152,-86
-31,-211,-181,120,70,-194,-14,-83,-242,-290,-152,-86
-31,-211,-181,120,70,-194,-14,-83,-242,-290,-152,-86
-31,-211,-181,120,70,-194,-14,-83,-242,-290,-152,-86
-31,-211,-181,120,70,-194,-14,-83,-242,-290,-152,-86
-31,-211,-181,120,70,-194,-14,-83,-242,-290,-152,-86
-31,-211,-175,120,70,-194,-14,-83,-242,-290,-152,-86
-31,-211,-175,120,70,-194,-20,-83,-242,-290,-152,-86
-31,-211,-175,120,70,-194,-20,-83,-242,-290,-152,-86
-31,-211,-175,120,70,-194,-20,-83,-242,-290,-152,-86
-31,-211,-175,120,70,-194,-20,-83,-242,-290,-152,-86
-31,-211,-175,120,70,-194,-20,-83,-242,-290,-152,-86
-31,-211,-175,120,70,-194,-20,-83,-242,-290,-152,-86
-31,-211,-175,120,70,-194,-20,-83,-242,-290,-152,-86
-31,-211,-175,120,70,-194,-20,-89,-242,-296,-158,-86
-31,-211,-175,120,70,-194,-20,-95,-242,-296,-158,-86
-31,-211,-175,120,70,-194,-26,-95,-242,-296,-158,-86
-31,-211,-175,120,70,-194,-26,-95,-242,-296,-158,-86
-31,-211,-181,126,70,-194,-26,-95,-242,-296,-158,-86
-31,-217,-187,126,70,-194,-26,-95,-242,-296,-158,-86
-31,-217,-187,126,70,-194,-26,-95,-248,-296,-158,-86
-31,-205,-181,120,70,-188,-26,-95,-248,-296,-158,-86
-31,-193,-169,108,70,-176,-26,-95,-254,-296,-158,-86
-31,-181,-163,102,70,-170,-32,-95,-254,-296,-158,-86
-31,-181,-163,102,70,-170,-32,-95,-254,-296,-158,-86
-31,-199,-169,108,70,-182,-32,-95,-254,-296,-158,-86
-31,-211,-181,114,76,-194,-32,-95,-254,-296,-158,-86
-31,-211,-181,114,76,-194,-32,-95,-254,-296,-158,-86
-31,-205,-175,114,76,-188,-32,-95,-254,-296,-158,-86
-31,-205,-175,114,76,-188,-32,-95,-254,-296,-164,-86
-31,-217,-175,120,76,-194,-32,-95,-254,-296,-164,-86
-31,-223,-181,126,76,-200,-32,-95,-254,-296,-164,-86
-31,-223,-181,126,76,-200,-32,-95,-254,-296,-164,-86
-31,-223,-181,126,76,-200,-32,-95,-254,-296,-164,-86
-31,-217,-181,126,76,-200,-32,-95,-254,-296,-164,-86
-31,-217,-181,126,76,-200,-32,-95,-254,-296,-164,-86
-31,-211,-181,126,76,-200,-32,-95,-254,-296,-164,-86
-31,-199,-181,120,76,-194,-32,-95,-254,-296,-164,-86
-31,-193,-181,120,76,-188,-32,-95,-254,-296,-164,-86
-31,-193,-181,120,76,-188,-32,-95,-248,-296,-164,-86
-31,-193,-181,120,76,-188,-32,-95,-248,-296,-164,-86
-31,-187,-169,120,76,-182,-32,-95,-248,-296,-164,-86
-31,-175,-157,114,76,-170,-32,-95,-248,-296,-164,-86
-31,-169,-145,108,70,-164,-32,-95,-248,-296,-164,-86
-31,-169,-145,102,70,-164,-32,-95,-248,-296,-164,-86
-31,-169,-145,102,70,-164,-32,-95,-242,-296,-164,-86
-31,-169,-145,102,70,-164,-32,-95,-236,-290,-164,-80
-31,-163,-145,96,70,-152,-26,-89,-236,-290,-164,-80
-25,-151,-145,90,70,-146,-26,-89,-236,-290,-164,-80
-25,-151,-145,90,70,-140,-26,-89,-236,-290,-164,-80
-25,-151,-145,90,70,-140,-26,-89,-230,-284,-164,-80
-25,-151,-139,90,70,-140,-26,-83,-230,-284,-164,-80
-19,-151,-139,90,70,-140,-26,-83,-230,-278,-164,-80
-19,-151,-139,90,70,-140,-26,-77,-230,-278,-164,-80
-19,-151,-139,90,70,-140,-26,-77,-230,-278,-164,-80
-19,-151,-139,84,70,-140,-32,-77,-230,-272,-164,-74
-13,-145,-139,78,70,-140,-44,-83,-230,-272,-164,-74
-7,-133,-139,72,70,-134,-56,-89,-230,-272,-158,-68
-1,-121,-133,66,70,-122,-62,-89,-230,-266,-152,-62
-1,-109,-121,60,70,-116,-68,-95,-230,-260,-146,-56
-1,-109,-121,60,70,-110,-74,-95,-230,-254,-140,-50
-1,-109,-121,60,64,-110,-74,-95,-230,-248,-134,-44
-1,-109,-121,60,64,-110,-74,-95,-224,-242,-128,-44
5,-109,-121,54,64,-110,-74,-95,-218,-236,-128,-38
5,-103,-121,54,64,-110,-74,-95,-218,-236,-122,-38
5,-97,-121,48,64,-104,-74,-101,-218,-236,-122,-38
5,-97,-121,48,58,-98,-80,-101,-218,-236,-122,-38
5,-97,-121,48,58,-98,-80,-101,-218,-236,-122,-38
5,-97,-121,48,58,-98,-80,-107,-218,-236,-122,-38
10,-97,-121,48,58,-98,-80,-107,-218,-230,-116,-32
16,-97,-121,48,58,-98,-80,-107,-218,-224,-110,-26
16,-97,-121,48,58,-98,-80,-107,-218,-224,-110,-26
16,-97,-121,48,58,-98,-80,-107,-218,-224,-110,-26
16,-97,-121,48,58,-104,-80,-107,-218,-224,-110,-26
16,-103,-121,48,58,-104,-80,-107,-218,-224,-110,-26
16,-103,-121,48,58,-104,-86,-113,-224,-230,-110,-26
16,-103,-121,48,58,-104,-86,-113,-224,-230,-110,-26
16,-109,-121,54,58,-110,-86,-113,-224,-230,-110,-26
10,-115,-127,54,58,-116,-86,-113,-224,-230,-116,-26
5,-121,-127,60,58,-122,-86,-113,-224,-236,-128,-32
5,-133,-127,66,58,-128,-86,-113,-230,-242,-140,-38
-1,-139,-127,72,58,-134,-86,-119,-236,-254,-146,-44
-1,-145,-127,78,58,-134,-86,-125,-242,-260,-152,-50
-1,-145,-127,78,58,-134,-86,-125,-248,-266,-158,-56
-1,-151,-127,84,58,-140,-86,-125,-248,-272,-164,-62
-1,-157,-139,90,58,-146,-86,-125,-248,-278,-164,-68
-1,-169,-151,96,58,-158,-86,-125,-248,-278,-164,-68
-1,-175,-157,96,58,-158,-86,-125,-248,-278,-164,-68
-1,-175,-163,96,58,-158,-86,-125,-248,-278,-164,-74
-7,-175,-163,96,58,-158,-86,-125,-254,-278,-164,-80
-7,-175,-163,96,58,-158,-86,-131,-260,-278,-164,-80
-7,-175,-157,96,58,-158,-86,-137,-266,-278,-164,-80
-7,-175,-151,96,58,-158,-86,-143,-272,-278,-164,-80
-7,-175,-151,96,58,-158,-86,-143,-272,-278,-164,-80
-7,-175,-151,96,58,-158,-86,-143,-260,-278,-164,-80
-7,-175,-151,96,58,-158,-86,-137,-248,-272,-164,-74
-7,-163,-139,96,52,-146,-86,-125,-224,-260,-158,-68
-7,-121,-103,84,46,-110,-80,-107,-194,-236,-146,-62
-7,-79,-79,72,34,-74,-68,-89,-164,-200,-128,-56
-7,-73,-73,66,28,-68,-62,-59,-134,-152,-98,-44
-7,-67,-67,60,16,-62,-50,-29,-104,-110,-80,-32
-7,-55,-43,54,4,-50,-38,-11,-74,-80,-68,-20
-7,-31,-7,48,-7,-26,-20,0,-56,-68,-62,-14
-13,-19,22,42,-37,-3,3,30,-26,-56,-56,-14
-25,4,58,36,-55,27,33,78,21,-50,-56,-14
-31,28,82,24,-67,51,87,168,81,-38,-56,-14
-37,40,94,18,-73,75,153,276,153,-26,-56,-20
-43,46,106,12,-79,81,237,402,207,-20,-62,-50
-49,46,112,12,-85,81,327,546,267,-20,-92,-92
-55,52,118,12,-97,87,429,696,339,-32,-164,-170
-67,76,160,12,-133,111,549,846,405,-98,-260,-248
-103,130,274,12,-193,195,639,966,507,-146,-338,-326
-121,238,406,-5,-271,309,687,1074,633,-152,-374,-350
-127,358,532,-65,-343,441,705,1170,777,-122,-374,-350
-127,496,652,-137,-385,573,717,1254,957,27,-326,-338
-127,652,778,-227,-439,711,723,1284,1119,225,-182,-242
-121,832,928,-335,-481,879,717,1284,1329,537,63,-68
-73,1030,1036,-467,-505,1035,663,1260,1599,1023,447,201
5,1192,1108,-593,-517,1155,549,1092,1881,1641,939,525
94,1330,1162,-701,-523,1251,405,864,2156,2354,1491,879
208,1516,1246,-851,-523,1377,231,618,2419,3097,2066,1263
316,1750,1378,-1007,-523,1563,33,348,2587,3805,2623,1647
382,1942,1516,-1151,-541,1719,-146,0,2629,4399,3109,1989
412,2079,1642,-1229,-583,1857,-248,-413,2593,4753,3451,2258
412,2181,1780,-1271,-661,1977,-272,-755,2396,4872,3613,2396
400,2241,1888,-1289,-751,2066,-278,-941,2186,4878,3619,2437
340,2301,2020,-1289,-841,2162,-320,-1121,1857,4783,3595,2449
262,2355,2151,-1289,-937,2252,-422,-1349,1389,4411,3379,2437
184,2319,2145,-1241,-961,2240,-428,-1391,1005,3937,3055,2288
136,1876,1786,-1007,-877,1833,-308,-1277,945,3613,2779,2066
94,1342,1294,-719,-655,1317,-44,-1013,927,3331,2503,1809
46,964,964,-497,-517,957,135,-857,735,2809,2049,1455
10,748,796,-371,-457,771,177,-815,429,2174,1485,1065
-31,616,700,-281,-433,651,171,-815,87,1557,1017,747
-79,514,652,-215,-409,585,99,-881,-278,939,615,507
-115,442,622,-161,-397,537,-14,-947,-524,357,195,261
-145,382,574,-113,-385,483,-104,-983,-662,-98,-140,75
-157,304,502,-71,-373,399,-170,-1007,-740,-344,-260,-14
-169,202,388,-11,-331,291,-212,-1013,-758,-386,-278,-32
-169,106,286,30,-271,195,-248,-1007,-758,-386,-278,-38
-169,52,202,48,-229,123,-266,-947,-734,-368,-266,-38
-163,10,154,60,-187,75,-278,-875,-692,-356,-260,-38
-157,-19,112,72,-157,39,-290,-821,-668,-350,-260,-38
-151,-49,82,84,-139,9,-290,-725,-626,-350,-260,-44
-151,-79,52,96,-121,-14,-284,-611,-536,-344,-260,-50
-139,-85,40,96,-103,-20,-242,-485,-446,-338,-254,-56
-109,-85,28,96,-73,-20,-176,-377,-386,-326,-248,-56
-97,-91,-2,96,-55,-32,-134,-317,-332,-314,-242,-56
-91,-103,-37,96,-43,-62,-110,-275,-302,-302,-236,-56
-85,-103,-49,96,-31,-74,-104,-245,-290,-296,-236,-56
-73,-103,-55,90,-25,-74,-98,-215,-278,-290,-236,-56
-61,-103,-61,90,-13,-80,-92,-185,-266,-284,-236,-56
-55,-109,-67,90,-1,-92,-86,-167,-260,-284,-236,-56
-49,-115,-73,90,4,-98,-80,-155,-254,-284,-236,-62
-49,-121,-79,90,4,-104,-74,-143,-248,-290,-236,-68
-49,-127,-85,90,10,-110,-68,-131,-236,-290,-236,-74
-49,-133,-97,90,22,-122,-62,-113,-224,-290,-236,-80
-49,-133,-97,90,28,-122,-62,-101,-218,-290,-236,-80
-49,-127,-97,84,28,-116,-62,-95,-212,-290,-236,-80
-43,-121,-91,78,28,-110,-62,-89,-206,-290,-236,-80
-43,-121,-91,78,28,-110,-62,-83,-200,-290,-236,-80
-43,-133,-97,84,28,-116,-62,-77,-200,-290,-236,-80
-43,-139,-103,84,28,-116,-62,-71,-200,-290,-236,-80
-37,-139,-103,84,28,-116,-62,-65,-188,-284,-236,-80
-31,-139,-103,84,28,-116,-56,-53,-176,-278,-230,-80
-25,-139,-109,84,34,-116,-56,-41,-170,-278,-230,-80
-25,-139,-115,84,34,-116,-56,-35,-164,-278,-230,-80
-25,-139,-115,84,34,-116,-56,-35,-158,-278,-230,-80
-25,-139,-115,84,34,-116,-56,-29,-152,-278,-230,-80
-25,-139,-115,84,34,-116,-56,-23,-146,-272,-224,-80
-25,-139,-115,84,34,-116,-56,-23,-146,-266,-218,-80
-25,-139,-115,84,34,-116,-56,-23,-146,-266,-218,-80
-25,-139,-115,84,34,-116,-56,-23,-146,-266,-218,-80
-25,-133,-109,84,34,-116,-56,-23,-140,-266,-218,-80
-25,-127,-103,84,34,-110,-56,-23,-140,-266,-218,-80
-25,-121,-97,84,34,-104,-56,-23,-140,-266,-218,-80
-25,-121,-97,84,34,-104,-56,-23,-140,-266,-218,-80
-25,-121,-97,84,34,-104,-56,-17,-134,-260,-218,-80
-25,-121,-103,84,34,-104,-50,-11,-122,-254,-212,-74
-25,-127,-109,84,40,-110,-44,-5,-116,-248,-206,-74
-25,-127,-109,78,40,-110,-44,0,-110,-242,-206,-74
-25,-109,-103,66,40,-104,-44,6,-104,-242,-206,-74
-25,-103,-97,60,40,-98,-44,6,-104,-236,-206,-74
-25,-103,-97,60,40,-98,-44,12,-98,-230,-200,-74
-25,-109,-97,60,40,-98,-44,18,-92,-224,-200,-74
-25,-109,-97,60,40,-98,-44,18,-86,-218,-200,-74
-19,-103,-97,60,40,-98,-44,18,-86,-218,-200,-74
-7,-97,-97,54,40,-98,-44,24,-80,-212,-194,-74
-7,-97,-97,54,40,-98,-44,24,-74,-206,-188,-74
-7,-97,-97,54,40,-98,-44,24,-74,-206,-188,-74
-7,-97,-97,54,40,-98,-44,30,-68,-206,-188,-74
-7,-97,-97,54,40,-98,-44,36,-62,-206,-188,-74
-7,-91,-97,54,40,-98,-44,42,-56,-200,-182,-74
-7,-91,-97,54,40,-98,-44,48,-50,-194,-176,-68
-7,-97,-97,54,40,-98,-44,48,-44,-194,-170,-68
-7,-103,-97,54,40,-98,-44,48,-38,-188,-170,-68
-7,-103,-97,54,40,-92,-44,54,-32,-182,-170,-68
-7,-97,-97,54,40,-92,-38,60,-26,-176,-164,-68
-7,-97,-97,54,40,-92,-32,66,-20,-170,-164,-68
-7,-97,-97,54,40,-92,-32,66,-20,-170,-164,-68
-7,-91,-97,54,40,-92,-32,72,-14,-170,-164,-68
-7,-73,-91,48,40,-80,-32,78,-8,-164,-158,-68
-7,-67,-85,42,40,-68,-32,84,-3,-158,-152,-62
-7,-67,-85,42,40,-68,-32,90,3,-146,-146,-56
-7,-67,-85,42,40,-68,-32,96,9,-134,-146,-56
-1,-67,-85,42,40,-68,-26,102,15,-128,-140,-56
-1,-67,-79,42,40,-68,-26,108,27,-122,-140,-56
-1,-67,-79,42,40,-68,-26,114,33,-116,-134,-50
-1,-67,-79,42,40,-68,-26,114,39,-110,-134,-50
-1,-67,-79,42,40,-68,-20,114,45,-110,-134,-50
-1,-67,-79,42,40,-68,-14,126,51,-104,-134,-50
-1,-61,-79,36,40,-62,-8,138,57,-98,-128,-44
-1,-55,-73,30,40,-50,-8,144,63,-92,-122,-38
-1,-49,-67,30,40,-44,-8,150,75,-86,-122,-38
-1,-49,-67,30,40,-44,-8,156,81,-80,-116,-38
-1,-49,-61,30,40,-44,-8,162,87,-74,-110,-38
-1,-43,-55,24,40,-38,-8,168,93,-62,-104,-38
-1,-37,-49,18,40,-38,-8,174,99,-56,-98,-32
-1,-31,-49,18,40,-38,-8,180,105,-50,-98,-32
-1,-25,-49,18,40,-38,-8,186,117,-44,-92,-26
-1,-25,-49,18,40,-38,-8,198,129,-32,-86,-20
-1,-25,-49,18,40,-38,-2,210,141,-20,-80,-14
5,-25,-49,18,40,-38,3,228,153,-8,-68,-2
10,-19,-49,12,40,-38,9,240,165,3,-62,3
16,-13,-43,6,34,-32,15,252,177,15,-56,9
22,-7,-43,0,34,-26,15,264,189,27,-50,9
22,-7,-43,-5,34,-26,21,276,201,39,-44,15
22,-7,-43,-5,34,-26,27,288,213,57,-38,21
28,4,-37,-11,34,-14,33,294,225,69,-32,21
28,16,-25,-17,34,3,33,306,231,75,-32,21
28,28,-13,-23,34,9,33,318,243,81,-32,21
28,34,-7,-23,34,15,39,342,261,93,-20,27
34,40,-7,-29,34,21,45,366,285,117,-8,33
34,40,-7,-29,34,21,51,396,315,147,3,45
34,40,-7,-29,28,21,51,402,327,165,15,51
34,40,-7,-29,28,21,51,408,339,177,21,63
40,46,-7,-35,28,27,51,420,351,195,33,69
46,58,-2,-47,28,33,63,432,375,219,45,75
52,64,4,-53,28,39,75,450,393,249,57,81
52,70,10,-53,22,45,81,468,405,261,63,87
52,76,16,-59,22,51,87,486,423,273,75,93
52,82,22,-65,22,57,93,516,453,303,93,99
52,94,28,-71,22,63,99,546,483,333,111,105
52,106,40,-77,16,75,105,558,501,357,117,111
52,118,58,-83,4,93,111,564,513,381,123,117
52,130,64,-89,-1,105,111,576,525,411,135,123
58,142,70,-95,-1,117,111,588,555,447,165,141
64,154,76,-101,-1,123,117,600,567,477,177,153
64,160,82,-101,-7,129,123,606,579,501,189,165
64,166,88,-107,-7,129,123,618,609,531,201,177
70,172,88,-113,-7,135,123,636,639,561,225,201
70,178,94,-119,-7,141,123,654,663,591,249,213
76,190,106,-131,-7,153,123,666,675,615,261,219
76,214,124,-137,-13,171,123,672,693,645,273,225
82,238,136,-149,-13,195,123,678,705,675,285,231
88,244,142,-155,-19,201,123,684,717,711,309,243
88,244,148,-155,-19,201,123,690,729,741,327,261
88,244,148,-155,-19,201,123,690,747,771,351,273
88,256,154,-161,-25,213,123,690,765,801,363,285
88,286,178,-173,-31,231,123,690,777,819,369,297
88,298,190,-185,-37,243,123,690,783,837,375,303
88,304,196,-185,-43,249,123,690,789,855,387,309
88,304,202,-185,-49,249,123,690,801,873,399,321
88,304,202,-185,-49,249,123,690,813,903,411,333
94,316,208,-191,-49,261,123,690,819,927,435,345
106,328,214,-203,-49,267,123,690,825,963,459,357
106,334,214,-209,-49,267,123,690,831,981,471,369
106,340,226,-209,-55,279,117,678,831,987,477,375
106,346,238,-215,-61,291,111,666,831,999,483,381
106,352,244,-221,-61,297,111,654,831,1011,489,393
106,358,250,-221,-61,303,105,642,831,1023,495,399
106,358,256,-221,-67,303,99,624,831,1029,495,399
106,358,256,-221,-67,303,93,600,831,1035,501,405
106,364,256,-221,-67,309,81,570,831,1035,501,411
106,370,262,-227,-67,315,69,540,825,1035,501,411
106,370,268,-227,-67,315,63,510,813,1035,501,411
106,370,274,-227,-73,321,51,480,801,1035,501,411
100,370,286,-227,-79,327,39,444,771,1035,501,411
100,370,286,-227,-85,327,33,408,753,1023,501,411
100,370,286,-227,-91,327,21,378,723,999,495,411
94,370,286,-227,-97,327,9,348,687,963,483,405
88,370,286,-227,-97,327,-2,318,651,927,471,393
88,370,286,-221,-103,327,-20,282,621,885,453,387
88,370,292,-221,-103,327,-32,240,591,855,429,375
82,364,292,-215,-103,327,-44,216,561,819,417,369
76,352,286,-209,-103,321,-50,192,531,789,399,357
70,340,280,-203,-103,315,-56,168,513,753,369,345
64,334,280,-203,-103,309,-68,138,465,699,339,321
64,328,280,-197,-103,303,-74,108,423,645,309,297
58,304,268,-185,-103,291,-80,90,387,591,279,285
46,292,262,-173,-103,279,-86,60,339,531,243,249
46,292,262,-167,-103,279,-92,36,285,471,207,219
46,292,262,-167,-103,279,-98,18,249,417,177,201
46,280,250,-161,-103,267,-104,6,225,387,153,189
40,238,226,-149,-103,225,-110,-5,195,345,123,165
28,208,196,-119,-97,195,-110,-23,165,303,99,153
22,172,166,-107,-91,165,-110,-35,147,267,81,135
16,142,154,-89,-85,147,-110,-47,117,225,63,123
10,130,148,-77,-85,135,-110,-59,87,183,33,93
5,124,142,-71,-79,129,-110,-65,57,141,3,75
5,112,130,-65,-73,117,-110,-77,27,93,-14,57
5,82,106,-53,-67,87,-110,-89,-3,51,-32,45
-1,70,94,-41,-61,69,-110,-95,-14,21,-50,33
-7,58,82,-29,-55,63,-110,-101,-44,9,-68,21
-7,46,70,-23,-49,51,-110,-107,-56,-14,-80,9
-7,34,52,-11,-43,39,-110,-113,-74,-32,-98,-2
-13,22,46,-5,-37,33,-110,-119,-98,-50,-116,-20
-13,10,40,0,-31,21,-110,-131,-110,-80,-140,-38
-13,-13,28,6,-31,9,-110,-137,-128,-104,-152,-50
-13,-25,22,12,-25,-3,-110,-143,-146,-128,-164,-62
-13,-31,16,12,-25,-8,-110,-143,-158,-146,-176,-74
-13,-37,4,18,-25,-14,-110,-143,-170,-158,-182,-80
-19,-49,-7,30,-19,-32,-110,-143,-176,-170,-188,-86
-19,-67,-31,42,-13,-56,-110,-143,-182,-176,-194,-92
-25,-79,-43,48,-7,-62,-110,-143,-188,-188,-206,-104
-25,-79,-43,54,-7,-68,-110,-143,-194,-194,-218,-116
-25,-79,-43,54,-1,-68,-110,-149,-206,-200,-218,-122
-25,-79,-43,54,-1,-68,-110,-149,-218,-212,-224,-128
-25,-85,-43,54,4,-74,-110,-149,-224,-218,-224,-128
-31,-97,-55,60,10,-86,-104,-149,-230,-224,-224,-128
-31,-109,-61,66,10,-92,-98,-149,-230,-230,-224,-128
-31,-109,-61,66,10,-92,-98,-149,-236,-236,-224,-128
-31,-109,-61,66,10,-92,-98,-149,-242,-248,-230,-134
-31,-109,-67,66,10,-92,-98,-149,-248,-254,-236,-140
-31,-115,-73,66,10,-92,-98,-149,-248,-260,-242,-146
-31,-115,-73,66,10,-92,-98,-149,-248,-266,-248,-152
-31,-121,-73,72,10,-98,-98,-149,-248,-266,-254,-152
-31,-127,-79,72,10,-104,-98,-149,-248,-266,-254,-152
-31,-127,-79,72,10,-104,-98,-149,-248,-266,-254,-152
-31,-127,-79,72,10,-104,-98,-149,-254,-272,-260,-158
-31,-133,-79,78,10,-110,-98,-149,-260,-278,-260,-164
-31,-139,-85,84,16,-116,-98,-149,-260,-278,-260,-164
-31,-139,-91,84,22,-116,-98,-149,-260,-278,-260,-164
-31,-139,-91,84,22,-116,-98,-149,-260,-278,-260,-164
-31,-139,-97,84,22,-116,-98,-149,-260,-278,-260,-164
-31,-139,-97,84,22,-116,-98,-149,-260,-278,-260,-164
-31,-139,-97,84,22,-116,-98,-149,-260,-278,-260,-164
-31,-139,-97,84,22,-116,-98,-149,-260,-278,-260,-164
-31,-139,-97,84,22,-122,-98,-149,-260,-284,-260,-164
-31,-139,-97,84,22,-128,-98,-149,-260,-290,-260,-164
-31,-139,-97,84,22,-128,-98,-149,-260,-296,-266,-164
-31,-127,-79,84,22,-116,-98,-149,-260,-302,-272,-164
-31,-115,-73,84,22,-104,-98,-149,-260,-302,-272,-164
-31,-115,-73,84,22,-104,-98,-149,-260,-302,-272,-164
-31,-127,-85,84,22,-116,-92,-143,-260,-302,-272,-164
-31,-139,-97,84,28,-116,-86,-143,-260,-302,-272,-164
-31,-139,-103,84,28,-116,-86,-143,-260,-302,-272,-164
-31,-139,-103,84,28,-116,-86,-143,-260,-302,-272,-164
-31,-139,-103,84,28,-116,-86,-143,-260,-302,-272,-164
-31,-139,-103,84,28,-116,-86,-143,-254,-302,-272,-164
-31,-139,-103,84,28,-116,-86,-137,-248,-302,-272,-164
-31,-139,-103,84,28,-116,-86,-131,-242,-296,-272,-164
-31,-133,-97,84,28,-116,-86,-131,-242,-296,-272,-164
-31,-121,-91,78,28,-104,-86,-131,-242,-296,-272,-164
-31,-109,-85,72,28,-98,-86,-131,-242,-296,-272,-164
-31,-109,-85,72,28,-98,-86,-131,-236,-296,-266,-158
-31,-115,-85,72,28,-98,-86,-131,-236,-296,-266,-158
-31,-115,-85,72,28,-98,-86,-131,-236,-296,-266,-158
-31,-115,-85,72,28,-98,-86,-131,-236,-296,-266,-152
-31,-115,-85,72,28,-98,-86,-131,-236,-296,-260,-152
-31,-115,-79,72,28,-98,-86,-131,-236,-296,-260,-152
-31,-109,-73,72,28,-92,-80,-131,-230,-290,-254,-146
-31,-109,-73,72,28,-92,-80,-125,-224,-284,-254,-146
-31,-109,-73,72,28,-92,-80,-125,-224,-278,-254,-146
-31,-109,-73,72,28,-92,-80,-125,-224,-278,-248,-146
-31,-109,-73,72,28,-92,-80,-125,-224,-272,-242,-146
-31,-109,-73,72,28,-92,-80,-125,-218,-266,-242,-140
-31,-109,-73,72,28,-92,-80,-125,-218,-266,-236,-140
-31,-109,-73,72,28,-92,-80,-119,-218,-260,-230,-140
-31,-109,-73,72,28,-92,-80,-119,-212,-254,-230,-134
-31,-109,-73,72,28,-92,-80,-119,-212,-254,-230,-134
-31,-109,-73,72,28,-92,-80,-119,-212,-254,-224,-128
-31,-109,-73,72,28,-92,-80,-119,-206,-248,-218,-122
-31,-109,-73,66,28,-92,-80,-119,-206,-242,-218,-116
-31,-109,-73,66,28,-92,-80,-113,-206,-242,-218,-116
-31,-109,-73,66,28,-92,-80,-113,-206,-242,-218,-116
-31,-109,-73,66,28,-92,-80,-113,-206,-242,-218,-116
-31,-109,-73,66,28,-92,-80,-113,-206,-242,-218,-116
-31,-109,-73,66,28,-92,-80,-113,-206,-242,-218,-116
-31,-103,-73,66,28,-92,-80,-113,-206,-242,-212,-116
-31,-103,-73,66,28,-92,-80,-113,-206,-236,-212,-116
-31,-103,-73,66,28,-92,-80,-113,-206,-230,-206,-116
-31,-97,-73,60,28,-92,-80,-113,-206,-230,-206,-116
-25,-85,-67,54,28,-86,-80,-113,-206,-230,-206,-116
-25,-79,-61,48,28,-80,-80,-113,-206,-230,-206,-116
-25,-79,-61,48,28,-80,-80,-113,-206,-230,-206,-116
-25,-91,-67,54,28,-86,-80,-113,-206,-230,-206,-110
-25,-97,-73,54,28,-86,-80,-113,-206,-230,-200,-110
-25,-97,-73,54,28,-86,-80,-113,-206,-230,-200,-110
-25,-97,-73,54,28,-86,-80,-113,-206,-230,-200,-110
-25,-97,-73,54,28,-86,-80,-113,-206,-230,-200,-110
-25,-103,-79,54,34,-92,-80,-113,-206,-230,-200,-110
-25,-109,-85,54,34,-98,-80,-119,-206,-230,-200,-110
-25,-109,-85,54,34,-98,-80,-125,-212,-230,-200,-110
-25,-109,-85,54,34,-98,-80,-125,-218,-230,-200,-110
-25,-109,-85,54,34,-98,-80,-125,-218,-230,-200,-110
-25,-109,-85,54,34,-98,-80,-131,-218,-230,-200,-110
-19,-109,-85,54,34,-98,-80,-137,-218,-230,-200,-110
-19,-109,-85,54,40,-98,-80,-137,-218,-230,-200,-110
-19,-109,-85,54,40,-98,-80,-137,-218,-230,-200,-110
-19,-109,-85,54,40,-98,-80,-143,-218,-230,-200,-110
-19,-109,-85,54,40,-98,-80,-149,-218,-230,-200,-110
-19,-109,-85,54,40,-98,-80,-155,-218,-230,-200,-110
-19,-109,-85,54,40,-98,-80,-161,-224,-230,-200,-110
-19,-109,-85,54,40,-98,-80,-161,-230,-230,-200,-110
-19,-133,-97,66,40,-116,-80,-161,-230,-230,-200,-110
-19,-139,-103,72,46,-122,-80,-161,-230,-230,-200,-110
-19,-139,-103,72,46,-122,-80,-161,-236,-230,-200,-110
-19,-133,-103,72,46,-122,-80,-161,-236,-236,-200,-110
-19,-133,-103,72,46,-122,-80,-161,-236,-242,-200,-110
-19,-133,-103,72,46,-122,-86,-161,-236,-242,-200,-110
-19,-133,-103,72,46,-122,-86,-161,-236,-242,-200,-110
-19,-127,-103,72,46,-122,-86,-161,-236,-242,-200,-110
-19,-127,-103,72,46,-122,-86,-161,-236,-242,-200,-110
-19,-127,-103,72,46,-122,-86,-167,-242,-242,-200,-110
-19,-133,-109,72,46,-122,-86,-167,-248,-242,-200,-110
-19,-139,-115,72,46,-128,-86,-167,-248,-242,-200,-110
-19,-139,-115,72,46,-128,-86,-167,-248,-242,-200,-110
-19,-139,-115,72,46,-128,-86,-167,-248,-242,-200,-110
-19,-139,-115,72,46,-128,-86,-167,-248,-242,-200,-110
-19,-139,-115,72,46,-128,-92,-167,-248,-242,-200,-110
-19,-139,-115,72,46,-128,-92,-167,-248,-242,-200,-110
-19,-139,-115,72,46,-128,-92,-167,-248,-242,-200,-110
-19,-139,-115,72,46,-128,-92,-167,-248,-242,-200,-110
-19,-139,-115,72,46,-128,-92,-167,-248,-248,-200,-110
-19,-139,-115,72,46,-128,-92,-167,-248,-248,-200,-110
-19,-139,-115,72,46,-128,-92,-167,-248,-248,-200,-110
-19,-139,-115,72,46,-128,-92,-167,-254,-248,-200,-110
-19,-139,-115,72,46,-128,-92,-167,-254,-248,-200,-110
-19,-139,-115,72,46,-128,-92,-167,-254,-248,-200,-110
-19,-139,-115,72,46,-128,-92,-167,-260,-248,-200,-110
-19,-139,-121,72,46,-128,-92,-167,-260,-248,-200,-110
-19,-145,-127,72,46,-134,-92,-167,-260,-248,-200,-110
-19,-145,-133,72,46,-134,-92,-167,-260,-248,-200,-110
-19,-145,-133,72,46,-134,-92,-167,-260,-254,-200,-110
-19,-145,-133,72,46,-134,-92,-167,-260,-254,-200,-110
-19,-145,-133,72,46,-134,-98,-167,-260,-260,-200,-110
-19,-145,-133,72,46,-134,-104,-167,-260,-260,-200,-110
-19,-145,-133,72,46,-134,-104,-167,-260,-260,-200,-110
-19,-145,-133,72,46,-134,-104,-167,-260,-260,-200,-110
-19,-145,-133,72,46,-134,-104,-167,-260,-260,-206,-110
-19,-145,-133,72,46,-134,-104,-167,-260,-260,-212,-110
-19,-145,-133,72,46,-134,-104,-167,-260,-260,-212,-110
-19,-145,-133,72,46,-134,-104,-167,-260,-260,-212,-110
-19,-145,-133,72,52,-134,-104,-167,-260,-260,-212,-110
-19,-145,-133,72,58,-140,-104,-167,-260,-260,-212,-110
-19,-145,-133,72,58,-140,-104,-167,-260,-260,-212,-110
-19,-145,-133,72,58,-140,-104,-167,-260,-260,-212,-110
-19,-145,-133,72,58,-140,-104,-167,-260,-260,-212,-110
-19,-145,-133,72,58,-140,-104,-167,-260,-260,-212,-110
-19,-145,-133,72,58,-140,-104,-167,-260,-260,-212,-110
-19,-151,-133,72,58,-140,-104,-167,-260,-260,-212,-110
-19,-151,-133,72,58,-140,-104,-167,-260,-260,-212,-110
-19,-151,-133,72,58,-140,-104,-167,-260,-260,-212,-110
-19,-151,-133,72,58,-140,-104,-167,-260,-260,-212,-110
-19,-157,-133,78,58,-140,-104,-167,-260,-260,-212,-110
-19,-163,-133,84,58,-140,-104,-167,-260,-260,-212,-110
-19,-163,-139,84,58,-146,-104,-167,-260,-260,-212,-110
-19,-163,-145,84,64,-152,-104,-167,-260,-260,-212,-110
-19,-163,-145,84,64,-152,-104,-167,-260,-260,-212,-110
-19,-163,-145,84,64,-152,-104,-173,-266,-266,-212,-110
-19,-163,-145,84,64,-152,-104,-173,-272,-266,-212,-110
-19,-163,-145,84,64,-152,-104,-173,-272,-266,-212,-110
-19,-163,-145,84,64,-152,-104,-173,-272,-266,-212,-110
-19,-163,-145,84,64,-152,-110,-173,-272,-266,-212,-110
-19,-163,-145,84,64,-152,-110,-173,-272,-266,-212,-110
-19,-163,-139,84,64,-146,-116,-173,-272,-272,-212,-110
-19,-163,-139,84,64,-146,-116,-173,-272,-272,-212,-110
-19,-163,-139,84,64,-146,-116,-173,-272,-272,-218,-110
-19,-163,-139,84,64,-146,-116,-173,-272,-272,-218,-110
-19,-157,-139,84,64,-146,-116,-173,-272,-272,-218,-110
-19,-151,-139,84,64,-146,-116,-173,-272,-272,-218,-110
-19,-151,-139,84,64,-146,-122,-173,-272,-278,-218,-110
-19,-151,-139,84,64,-146,-122,-173,-272,-278,-218,-110
-19,-151,-139,84,64,-146,-122,-173,-272,-278,-218,-110
-19,-151,-139,84,64,-146,-122,-173,-272,-278,-218,-110
-19,-151,-139,84,64,-146,-122,-173,-272,-278,-218,-110
-19,-157,-145,84,64,-152,-122,-173,-272,-278,-218,-110
-19,-157,-145,84,64,-152,-122,-173,-272,-278,-218,-110
-19,-157,-145,84,64,-152,-122,-173,-272,-278,-218,-110
-19,-157,-139,84,64,-146,-122,-173,-272,-278,-218,-116
-19,-151,-133,84,64,-140,-122,-173,-272,-278,-218,-116
-19,-151,-133,84,64,-140,-122,-173,-272,-278,-218,-116
-19,-151,-139,84,64,-140,-122,-173,-272,-278,-218,-116
-19,-151,-139,84,64,-140,-122,-173,-272,-278,-218,-116
-19,-151,-139,84,64,-140,-122,-173,-272,-278,-218,-116
-19,-151,-139,84,64,-140,-122,-173,-272,-278,-218,-116
-19,-151,-139,84,64,-140,-122,-173,-272,-278,-218,-116
-19,-151,-139,84,64,-140,-122,-173,-272,-278,-218,-116
-19,-151,-139,84,64,-140,-122,-173,-272,-278,-218,-116
-19,-151,-139,84,64,-140,-122,-179,-278,-284,-224,-122
-19,-157,-139,84,64,-140,-122,-179,-284,-284,-224,-122
-19,-157,-145,84,64,-146,-122,-179,-284,-284,-224,-122
-19,-157,-151,84,64,-146,-122,-179,-284,-284,-224,-122
-19,-157,-151,84,64,-146,-122,-179,-284,-284,-224,-122
-19,-157,-151,84,64,-146,-122,-179,-284,-284,-224,-122
-19,-157,-151,84,64,-146,-128,-185,-284,-284,-224,-122
-19,-157,-151,84,64,-146,-128,-185,-284,-284,-224,-122
-19,-157,-151,84,70,-146,-128,-185,-284,-284,-224,-122
-19,-163,-151,84,70,-152,-128,-185,-284,-284,-224,-122
-19,-163,-151,84,70,-158,-128,-185,-284,-284,-224,-122
-19,-163,-151,84,70,-158,-128,-185,-284,-284,-224,-122
-19,-163,-151,84,70,-158,-128,-185,-284,-284,-224,-122
-19,-163,-151,84,70,-158,-128,-185,-284,-284,-224,-122
-19,-163,-151,84,70,-158,-128,-185,-284,-284,-224,-122
-19,-163,-151,84,70,-158,-128,-185,-284,-284,-224,-122
-19,-169,-151,84,70,-158,-128,-185,-284,-284,-224,-122
-19,-169,-151,84,70,-158,-128,-185,-284,-290,-224,-122
-19,-169,-151,84,70,-158,-128,-185,-284,-290,-224,-122
-19,-169,-151,84,70,-158,-128,-185,-284,-290,-224,-122
-19,-169,-151,84,70,-158,-128,-185,-284,-290,-224,-122
-19,-169,-151,84,70,-158,-128,-185,-284,-290,-224,-122
-19,-169,-151,84,70,-158,-128,-185,-284,-290,-224,-122
-19,-169,-151,84,70,-158,-128,-185,-284,-290,-224,-122
-19,-169,-151,84,70,-158,-128,-185,-284,-290,-224,-122
-19,-169,-151,84,70,-158,-128,-185,-284,-290,-224,-122
-19,-169,-151,84,70,-158,-128,-185,-284,-290,-224,-122
-19,-169,-151,84,70,-158,-128,-185,-284,-290,-224,-122
-19,-169,-151,84,70,-158,-128,-185,-284,-290,-224,-122
-19,-169,-151,84,70,-158,-128,-185,-284,-290,-224,-122
-19,-169,-151,84,70,-158,-128,-185,-284,-290,-224,-122
-19,-169,-151,84,70,-158,-128,-185,-284,-290,-224,-122
-19,-169,-151,84,70,-158,-128,-185,-284,-290,-224,-122
-19,-169,-151,84,70,-158,-128,-185,-284,-290,-224,-122
-19,-169,-151,84,70,-158,-128,-185,-284,-290,-224,-122
-19,-169,-157,84,70,-158,-128,-185,-284,-290,-224,-122
-19,-175,-163,84,70,-164,-128,-185,-284,-290,-224,-122
-19,-175,-163,84,70,-164,-128,-185,-284,-290,-224,-122
-19,-175,-163,84,70,-164,-128,-185,-284,-290,-224,-122
-19,-163,-151,84,70,-158,-128,-185,-284,-290,-224,-128
-19,-151,-139,78,70,-152,-128,-185,-284,-296,-224,-134
-19,-151,-139,78,70,-152,-128,-179,-284,-296,-224,-134
-19,-157,-139,78,70,-152,-128,-179,-284,-296,-224,-134
-19,-157,-139,78,70,-152,-128,-179,-284,-296,-224,-134
-19,-151,-139,78,70,-152,-128,-179,-284,-296,-224,-134
-19,-151,-139,72,70,-152,-128,-173,-284,-296,-224,-134
-19,-151,-139,72,70,-152,-128,-173,-278,-296,-224,-134
-19,-151,-139,72,70,-152,-128,-173,-272,-296,-224,-134
-19,-145,-133,72,70,-146,-128,-173,-272,-296,-224,-128
-19,-145,-133,72,70,-140,-128,-173,-272,-296,-224,-128
-19,-145,-133,72,70,-140,-122,-167,-272,-290,-224,-128
-19,-145,-133,72,70,-140,-116,-161,-266,-284,-218,-128
-19,-139,-133,66,70,-134,-110,-155,-266,-284,-218,-128
-19,-127,-127,60,64,-128,-110,-149,-266,-284,-218,-128
-13,-121,-121,54,64,-122,-110,-143,-266,-284,-218,-128
-13,-115,-121,48,64,-122,-104,-143,-266,-284,-218,-128
-13,-109,-115,48,64,-122,-104,-143,-266,-284,-218,-128
-7,-109,-115,48,64,-116,-104,-143,-266,-284,-218,-128
-7,-109,-115,48,64,-116,-104,-143,-260,-284,-218,-128
-7,-109,-115,48,64,-116,-104,-143,-254,-284,-218,-128
-7,-109,-115,48,64,-116,-110,-143,-254,-284,-218,-128
-1,-103,-115,42,64,-116,-116,-149,-254,-284,-212,-122
10,-97,-115,36,64,-116,-122,-155,-254,-278,-206,-116
16,-91,-115,30,64,-110,-128,-155,-254,-278,-200,-110
16,-79,-109,24,64,-98,-134,-155,-254,-278,-200,-110
16,-73,-103,18,64,-92,-140,-155,-254,-272,-194,-104
22,-73,-103,18,64,-92,-146,-155,-254,-266,-188,-92
22,-73,-103,18,64,-92,-146,-155,-254,-260,-182,-86
22,-67,-103,18,64,-92,-146,-161,-254,-260,-182,-86
22,-61,-97,12,64,-86,-146,-161,-254,-254,-176,-86
22,-61,-97,12,64,-86,-146,-161,-248,-248,-176,-80
22,-61,-97,12,64,-86,-146,-161,-248,-248,-176,-80
22,-67,-97,12,64,-86,-146,-161,-248,-248,-176,-80
22,-67,-97,12,64,-86,-146,-161,-248,-248,-170,-80
22,-67,-97,12,64,-86,-146,-161,-248,-248,-164,-80
22,-67,-97,12,64,-86,-146,-161,-248,-248,-158,-80
22,-67,-103,12,64,-86,-146,-161,-248,-248,-152,-74
22,-67,-109,12,64,-86,-146,-161,-248,-248,-152,-68
22,-67,-109,12,64,-86,-146,-161,-248,-248,-152,-62
22,-67,-109,12,64,-86,-146,-161,-248,-248,-152,-62
22,-73,-115,18,64,-92,-146,-161,-248,-248,-152,-62
22,-85,-115,24,64,-104,-146,-161,-248,-248,-152,-62
22,-97,-115,30,64,-110,-146,-161,-248,-248,-152,-62
22,-103,-115,36,64,-110,-146,-161,-248,-248,-152,-68
22,-109,-115,42,64,-110,-146,-161,-248,-254,-158,-74
22,-109,-115,42,64,-110,-146,-161,-254,-260,-170,-80
16,-109,-115,42,64,-116,-146,-161,-260,-266,-176,-86
10,-121,-121,48,64,-122,-146,-161,-260,-266,-182,-92
10,-127,-127,54,64,-128,-146,-161,-266,-272,-188,-98
5,-133,-133,60,64,-134,-146,-167,-272,-278,-194,-110
-1,-139,-139,66,64,-140,-146,-167,-272,-284,-200,-116
-1,-151,-139,72,64,-146,-146,-167,-272,-290,-200,-116
-1,-157,-145,78,64,-152,-146,-167,-272,-296,-200,-116
-1,-163,-151,78,64,-158,-146,-167,-272,-296,-200,-116
-1,-169,-151,78,64,-158,-146,-173,-272,-296,-200,-116
-1,-169,-157,78,64,-158,-146,-173,-278,-296,-200,-116
-1,-169,-157,78,64,-158,-146,-179,-284,-296,-200,-116
-1,-163,-157,78,64,-158,-146,-179,-290,-296,-200,-116
-1,-163,-157,78,64,-158,-146,-185,-290,-296,-200,-116
-1,-163,-151,78,64,-158,-146,-185,-290,-296,-200,-116
-1,-157,-145,78,64,-152,-146,-185,-290,-296,-200,-116
-1,-145,-133,78,64,-146,-146,-179,-284,-296,-200,-116
-1,-139,-121,72,64,-134,-140,-167,-260,-284,-194,-116
-1,-127,-115,66,64,-122,-128,-131,-218,-248,-176,-110
-1,-103,-97,54,58,-98,-110,-101,-176,-206,-158,-104
-1,-67,-61,42,40,-62,-98,-89,-146,-176,-146,-98
-1,-49,-37,30,22,-44,-80,-77,-116,-140,-134,-86
-1,-37,-25,24,10,-32,-68,-47,-80,-104,-116,-74
-7,-7,10,12,-19,-3,-56,-35,-50,-92,-110,-68
-13,34,64,6,-43,39,-44,-5,-38,-86,-104,-68
-19,52,88,0,-55,69,-8,54,-3,-74,-104,-68
-25,64,100,-5,-61,75,57,156,63,-62,-104,-74
-31,70,112,-5,-67,87,135,276,135,-56,-104,-86
-37,70,118,-5,-73,93,231,402,207,-50,-110,-116
-43,64,118,-5,-73,93,339,552,279,-50,-134,-158
-55,64,124,-5,-85,99,453,696,339,-74,-218,-236
-67,124,208,-17,-139,177,549,816,405,-146,-332,-332
-97,208,328,-41,-223,267,627,948,519,-182,-398,-386
-115,292,430,-65,-277,351,669,1050,651,-182,-416,-404
-127,388,544,-107,-331,453,675,1140,795,-122,-410,-404
-127,526,658,-161,-373,579,681,1200,951,45,-332,-380
-121,682,784,-257,-415,723,687,1224,1143,285,-158,-260
-97,880,934,-389,-457,909,687,1224,1377,633,123,-74
-37,1084,1066,-527,-493,1071,627,1164,1659,1137,519,219
46,1246,1150,-653,-511,1203,495,954,1941,1767,1011,561
148,1420,1216,-791,-517,1323,333,726,2216,2479,1551,903
256,1612,1300,-941,-517,1467,129,480,2467,3199,2096,1293
328,1780,1396,-1073,-523,1593,-68,198,2611,3865,2635,1665
376,1972,1516,-1187,-535,1737,-224,-173,2617,4399,3097,1995
418,2151,1678,-1289,-583,1911,-320,-569,2545,4705,3391,2222
418,2265,1822,-1325,-667,2031,-350,-857,2324,4777,3511,2342
406,2295,1912,-1331,-733,2090,-362,-1019,2090,4777,3517,2366
358,2337,2032,-1337,-823,2186,-422,-1235,1725,4597,3469,2366
280,2379,2163,-1337,-931,2276,-500,-1445,1233,4177,3217,2336
208,2265,2109,-1241,-937,2192,-494,-1451,897,3709,2899,2168
166,1732,1618,-959,-787,1683,-284,-1289,867,3439,2653,1959
124,1228,1156,-677,-577,1197,-44,-1043,825,3103,2354,1695
70,910,892,-503,-481,909,93,-917,597,2533,1845,1317
16,718,754,-377,-439,735,123,-893,303,1905,1299,933
-25,598,670,-287,-409,633,111,-899,-38,1287,837,615
-73,526,634,-227,-391,579,21,-953,-386,699,441,369
-109,424,586,-155,-379,501,-80,-995,-584,171,63,141
-139,346,520,-113,-355,435,-146,-1019,-692,-218,-194,-8
-151,274,460,-71,-325,363,-212,-1037,-752,-404,-278,-56
-157,184,352,-35,-283,279,-254,-1037,-758,-422,-290,-74
-157,76,238,6,-235,159,-272,-1019,-752,-416,-290,-80
-157,22,166,36,-193,99,-296,-953,-728,-404,-290,-80
-151,4,136,42,-175,69,-314,-899,-698,-398,-290,-86
-145,-19,100,54,-151,39,-320,-827,-656,-392,-290,-92
-139,-49,58,66,-121,-3,-314,-707,-596,-386,-290,-98
-121,-55,28,66,-79,-20,-290,-581,-512,-374,-284,-98
-91,-61,-2,66,-37,-32,-212,-449,-410,-350,-272,-98
-79,-73,-31,66,-19,-56,-146,-341,-350,-338,-260,-98
-73,-85,-37,66,-7,-62,-116,-305,-320,-326,-254,-98
-67,-85,-43,66,-7,-62,-104,-275,-308,-326,-248,-98
-61,-85,-55,66,-1,-62,-92,-245,-296,-326,-248,-104
-55,-85,-61,66,4,-62,-86,-227,-284,-326,-248,-104
-49,-91,-73,66,4,-74,-80,-197,-272,-326,-248,-104
-49,-109,-85,66,10,-98,-80,-173,-260,-320,-248,-104
-49,-115,-91,72,10,-104,-74,-161,-254,-320,-248,-110
-43,-121,-97,72,16,-110,-74,-149,-248,-320,-248,-116
-31,-121,-109,72,28,-116,-68,-131,-236,-320,-248,-116
-25,-127,-115,72,40,-122,-56,-107,-224,-320,-248,-116
-25,-139,-121,72,46,-128,-50,-95,-212,-320,-248,-116
-25,-145,-127,72,46,-134,-44,-83,-200,-320,-248,-116
-25,-145,-127,72,46,-134,-44,-71,-194,-320,-248,-116
-19,-139,-127,66,46,-134,-38,-65,-188,-320,-248,-116
-19,-139,-127,66,46,-134,-38,-65,-182,-320,-248,-116
-19,-139,-127,66,46,-134,-38,-65,-182,-320,-248,-116
-19,-139,-127,66,46,-134,-38,-65,-182,-320,-248,-116
-19,-139,-133,66,52,-134,-38,-59,-182,-320,-242,-116
-13,-139,-133,66,52,-134,-38,-53,-176,-320,-242,-116
-13,-139,-133,66,58,-134,-38,-47,-170,-320,-242,-116
-13,-139,-133,66,58,-134,-38,-41,-164,-320,-236,-116
-13,-139,-133,66,58,-134,-38,-35,-158,-320,-236,-116
-13,-133,-133,60,58,-134,-38,-29,-152,-320,-236,-116
-7,-127,-133,54,58,-134,-38,-23,-146,-314,-236,-116
-1,-127,-133,54,58,-134,-38,-17,-146,-314,-230,-116
-1,-127,-133,54,58,-134,-38,-17,-146,-308,-224,-116
-1,-127,-133,54,58,-134,-38,-17,-140,-302,-224,-116
-1,-127,-133,54,58,-134,-38,-17,-140,-302,-224,-116
-1,-127,-133,54,58,-134,-38,-17,-140,-302,-224,-116
-1,-127,-133,54,58,-134,-38,-11,-134,-296,-224,-116
-1,-127,-133,54,58,-134,-32,-5,-128,-290,-224,-116
-1,-121,-133,54,58,-128,-32,-5,-128,-290,-218,-116
-1,-121,-133,54,58,-128,-26,0,-122,-290,-218,-116
-1,-121,-133,54,58,-128,-26,6,-116,-284,-212,-116
-1,-121,-133,54,58,-128,-26,6,-110,-284,-206,-116
-1,-121,-133,54,58,-128,-26,6,-104,-278,-200,-116
5,-115,-133,54,58,-128,-20,6,-98,-272,-200,-116
5,-115,-133,54,58,-128,-20,6,-98,-266,-200,-116
5,-115,-133,54,58,-128,-20,12,-92,-260,-200,-116
5,-115,-133,54,58,-128,-14,18,-86,-254,-194,-110
10,-115,-133,54,58,-128,-14,30,-80,-248,-188,-104
10,-115,-133,54,58,-128,-8,36,-74,-248,-182,-104
10,-115,-133,54,58,-128,-8,42,-74,-248,-182,-104
10,-115,-133,54,58,-128,-8,48,-74,-248,-182,-104
10,-115,-133,54,58,-128,-8,48,-68,-242,-176,-98
10,-115,-133,48,58,-128,-8,54,-62,-236,-176,-98
10,-115,-133,42,58,-128,-8,60,-56,-230,-176,-98
16,-115,-133,42,58,-128,-2,66,-50,-224,-170,-92
16,-115,-133,42,64,-128,-2,66,-44,-218,-170,-92
16,-115,-127,42,64,-128,-2,72,-38,-212,-170,-92
16,-103,-115,42,64,-116,-2,72,-32,-212,-164,-92
16,-91,-109,36,64,-104,-2,72,-32,-212,-164,-92
22,-85,-109,36,64,-104,3,78,-26,-206,-164,-92
22,-85,-115,36,64,-104,3,84,-20,-206,-164,-92
22,-91,-127,36,64,-110,9,90,-14,-200,-158,-92
22,-91,-127,36,64,-110,9,96,-8,-194,-152,-92
22,-79,-115,24,64,-98,9,96,-8,-194,-152,-92
22,-61,-91,18,58,-80,9,96,-8,-188,-152,-92
22,-55,-91,18,58,-80,15,102,3,-182,-146,-92
22,-55,-91,18,58,-86,21,114,15,-170,-140,-86
22,-61,-91,18,58,-86,27,126,27,-164,-134,-80
22,-61,-91,18,58,-86,27,132,33,-158,-128,-74
22,-55,-91,18,58,-80,27,132,39,-152,-128,-68
22,-55,-91,18,58,-80,27,138,45,-146,-128,-68
22,-55,-91,18,58,-74,27,138,45,-146,-128,-68
22,-55,-85,18,58,-74,27,144,51,-146,-128,-68
22,-55,-85,12,58,-68,27,150,63,-140,-122,-62
28,-55,-85,6,58,-68,33,162,75,-128,-110,-56
34,-55,-85,6,58,-68,39,174,93,-116,-104,-50
34,-49,-85,6,58,-62,45,180,105,-104,-98,-44
34,-43,-85,6,58,-62,51,192,111,-92,-92,-44
34,-43,-85,6,58,-62,57,204,123,-80,-86,-44
34,-37,-85,0,58,-62,63,210,129,-68,-80,-44
34,-25,-79,-5,58,-56,63,222,135,-62,-74,-38
34,-19,-73,-5,58,-50,63,228,141,-56,-74,-38
34,-19,-73,-5,58,-50,69,240,153,-50,-74,-38
34,-19,-73,-5,58,-50,69,246,159,-44,-74,-38
34,-13,-61,-11,58,-38,69,252,165,-38,-74,-32
34,-7,-55,-11,58,-26,75,264,177,-26,-62,-20
40,-2,-49,-17,52,-20,75,276,195,-14,-50,-14
40,4,-49,-23,52,-14,75,294,207,3,-44,-8
40,10,-43,-23,52,-14,81,312,225,21,-32,-2
40,16,-43,-23,52,-14,93,330,243,39,-20,3
40,22,-43,-29,52,-8,99,348,261,51,-8,9
46,28,-43,-35,52,-3,105,360,273,63,-2,9
52,34,-37,-41,52,3,105,378,285,75,3,15
58,40,-37,-47,52,3,111,390,315,99,15,21
64,46,-37,-53,52,9,117,408,339,123,27,33
64,52,-31,-59,52,15,123,432,357,147,33,39
64,52,-25,-59,52,21,129,444,369,159,45,45
64,58,-13,-59,52,27,135,468,381,171,57,51
64,70,-7,-65,46,39,141,486,411,201,69,57
64,82,-2,-77,46,45,141,498,435,243,81,69
64,88,4,-83,40,51,147,522,459,267,93,75
64,94,10,-89,40,57,153,540,477,285,105,81
64,100,16,-89,40,63,159,552,495,303,117,87
64,112,22,-95,34,69,165,564,513,321,129,93
70,124,34,-101,34,81,171,576,531,345,141,99
76,136,46,-107,28,99,177,588,549,375,153,111
76,148,58,-113,22,111,183,606,579,417,177,123
76,154,64,-119,22,117,189,630,603,465,201,141
82,160,70,-125,22,123,195,642,633,495,231,153
82,166,70,-131,22,129,195,654,651,525,243,165
82,178,76,-137,22,135,195,666,669,555,255,177
88,190,82,-143,22,141,201,678,699,579,267,189
94,202,88,-149,22,147,207,684,711,609,285,201
100,214,94,-155,16,153,207,690,735,633,303,207
100,232,112,-161,10,165,207,696,747,663,315,219
100,244,136,-167,-1,189,207,702,771,699,327,231
100,256,148,-179,-7,207,207,708,795,741,351,243
100,268,154,-185,-13,219,207,714,813,771,369,267
100,274,160,-185,-19,225,207,720,825,801,393,279
100,280,166,-191,-19,231,207,720,831,819,405,285
100,310,178,-203,-25,243,207,720,843,849,417,297
106,322,190,-215,-31,255,207,720,855,867,429,309
106,328,196,-221,-37,261,207,720,867,885,441,315
106,328,202,-221,-37,261,207,720,879,915,453,321
106,328,208,-221,-37,261,207,720,891,939,465,333
112,334,214,-227,-37,273,207,714,897,957,477,345
118,358,226,-233,-37,297,207,708,903,969,489,357
118,364,238,-239,-37,309,201,702,903,993,501,363
118,370,238,-245,-43,309,195,690,909,1005,513,369
