,,,,,,,,,,,
2019-09-04 23:15:15,,,,,,,,,,,
,,,,,,,,,,,
I,II,III,aVR,aVL,aVF,V1,V2,V3,V4,V5,V6
37,190,104,-116,-11,149,966,796,922,128,390,468
-4,-31,26,9,-11,5,222,358,190,-33,-77,6
-40,-91,-9,57,-11,-42,78,250,52,-81,-173,-89
-58,-115,-21,75,-11,-66,30,208,16,-99,-191,-107
-64,-121,-27,87,-11,-78,0,178,-1,-111,-203,-113
-64,-121,-33,87,-11,-78,-17,154,-13,-117,-203,-119
-64,-115,-39,87,-11,-78,-29,136,-19,-117,-203,-119
-64,-109,-39,87,-11,-78,-41,118,-25,-117,-203,-119
-64,-109,-39,87,-17,-72,-59,88,-31,-117,-203,-119
-70,-109,-39,87,-23,-72,-83,64,-37,-117,-203,-119
-82,-109,-39,87,-29,-72,-95,34,-49,-123,-203,-119
-82,-109,-33,87,-29,-72,-113,4,-55,-123,-203,-119
-88,-109,-27,87,-35,-72,-125,-13,-61,-123,-203,-119
-94,-109,-21,87,-41,-66,-131,-25,-61,-123,-203,-119
-94,-103,-15,87,-47,-60,-137,-37,-61,-123,-197,-113
-94,-91,-9,87,-47,-48,-143,-43,-61,-123,-185,-107
-88,-61,3,81,-47,-36,-143,-49,-61,-123,-179,-101
-82,-49,8,75,-47,-24,-149,-55,-61,-123,-173,-95
-82,-49,14,75,-53,-24,-155,-61,-61,-123,-167,-95
-88,-55,20,75,-59,-24,-161,-73,-61,-123,-167,-95
-88,-55,20,75,-65,-24,-167,-85,-67,-123,-167,-95
-88,-55,20,69,-65,-18,-167,-97,-67,-117,-167,-89
-88,-49,20,63,-65,-12,-167,-103,-67,-117,-161,-83
-88,-43,26,63,-65,-6,-167,-109,-67,-117,-155,-77
-88,-43,32,63,-65,-6,-167,-115,-73,-117,-155,-77
-88,-43,32,63,-65,-6,-167,-115,-73,-117,-155,-77
-88,-43,32,63,-65,-6,-167,-115,-73,-117,-155,-77
-94,-43,32,63,-65,-6,-173,-115,-73,-117,-155,-77
-94,-43,38,63,-71,-6,-173,-115,-73,-117,-155,-77
-94,-43,38,63,-71,-6,-173,-121,-73,-111,-149,-77
-94,-43,38,63,-71,-1,-179,-127,-73,-111,-149,-77
-100,-49,38,69,-77,-1,-185,-133,-73,-111,-143,-77
-112,-61,38,81,-83,-1,-191,-139,-79,-111,-143,-77
-118,-61,38,87,-89,-1,-191,-145,-79,-111,-143,-77
-118,-61,38,87,-89,-1,-191,-145,-79,-111,-137,-77
-112,-55,38,81,-89,-1,-191,-145,-79,-105,-137,-77
-112,-49,38,81,-89,-1,-191,-145,-79,-99,-131,-71
-112,-49,38,81,-89,-1,-191,-145,-79,-99,-131,-65
-112,-49,38,81,-89,-1,-191,-145,-79,-99,-131,-65
-112,-49,44,81,-89,-1,-191,-145,-79,-99,-131,-65
-106,-43,44,75,-89,-1,-191,-145,-79,-99,-131,-65
-94,-31,44,51,-89,5,-191,-145,-79,-93,-125,-59
-82,-7,44,39,-83,11,-191,-145,-79,-87,-119,-53
-82,-7,44,39,-77,11,-191,-145,-79,-81,-119,-53
-82,-7,44,39,-77,11,-191,-145,-79,-81,-119,-53
-82,-13,44,45,-77,11,-191,-145,-79,-81,-119,-53
-88,-25,44,51,-77,11,-191,-145,-79,-81,-119,-53
-88,-31,44,57,-77,11,-191,-145,-79,-81,-119,-53
-88,-31,44,57,-77,11,-191,-145,-79,-81,-119,-53
-82,-31,44,51,-77,11,-185,-145,-79,-81,-119,-53
-82,-31,44,45,-77,11,-185,-145,-79,-81,-119,-53
-82,-31,44,45,-77,11,-185,-145,-79,-81,-119,-53
-82,-31,44,45,-77,11,-185,-145,-79,-81,-119,-53
-82,-31,44,45,-77,11,-185,-145,-79,-81,-119,-53
-82,-31,44,45,-77,11,-185,-145,-79,-81,-119,-53
-82,-31,44,45,-77,11,-185,-145,-73,-81,-119,-53
-82,-31,44,45,-77,11,-185,-145,-67,-75,-113,-53
-82,-31,44,45,-77,11,-185,-139,-61,-75,-113,-53
-82,-31,44,45,-77,11,-185,-139,-61,-75,-113,-53
-82,-31,44,45,-77,11,-185,-139,-61,-75,-113,-53
-82,-31,44,45,-77,11,-185,-139,-61,-75,-113,-53
-82,-31,44,45,-77,11,-179,-133,-55,-69,-113,-53
-82,-25,44,45,-77,11,-173,-127,-55,-63,-107,-53
-82,-25,44,45,-77,11,-173,-127,-55,-63,-101,-53
-88,-31,44,51,-77,11,-173,-127,-55,-63,-101,-53
-94,-37,44,57,-77,11,-173,-127,-55,-63,-101,-53
-94,-37,44,57,-77,11,-167,-127,-55,-63,-101,-53
-88,-37,44,57,-77,11,-167,-121,-55,-63,-101,-53
-82,-31,44,57,-77,11,-167,-115,-49,-63,-101,-53
-82,-31,44,57,-77,11,-161,-115,-43,-63,-101,-53
-82,-31,44,57,-77,11,-161,-115,-43,-63,-101,-53
-88,-31,44,57,-77,11,-161,-115,-43,-63,-101,-53
-88,-31,50,57,-77,11,-161,-115,-43,-57,-101,-53
-88,-31,50,57,-77,11,-161,-115,-37,-57,-95,-53
-88,-31,50,57,-77,11,-155,-109,-37,-57,-95,-53
-82,-25,50,51,-77,11,-149,-103,-37,-57,-95,-53
-76,-13,50,45,-77,17,-143,-103,-37,-57,-95,-53
-70,-13,50,45,-77,17,-143,-103,-37,-57,-95,-53
-70,-13,50,45,-77,17,-143,-103,-37,-57,-95,-53
-70,-13,50,45,-77,17,-143,-103,-37,-57,-95,-53
-70,-13,50,45,-77,17,-143,-103,-37,-57,-95,-53
-76,-19,50,51,-77,17,-143,-103,-37,-57,-95,-53
-76,-19,50,51,-77,17,-143,-103,-37,-57,-95,-53
-76,-19,50,51,-77,17,-143,-103,-37,-57,-95,-47
-76,-25,50,51,-77,17,-143,-103,-37,-57,-95,-47
-76,-31,50,57,-77,17,-143,-103,-37,-57,-95,-47
-76,-31,50,57,-77,17,-143,-103,-37,-57,-95,-47
-76,-31,50,57,-77,17,-143,-97,-37,-57,-95,-47
-76,-31,56,57,-77,17,-137,-97,-37,-57,-95,-47
-76,-31,56,57,-77,17,-131,-97,-37,-57,-95,-47
-76,-31,56,57,-77,17,-131,-97,-37,-57,-95,-47
-76,-31,56,57,-77,17,-125,-97,-37,-57,-95,-47
-76,-31,56,57,-77,17,-119,-97,-37,-57,-95,-47
-76,-25,56,57,-77,17,-113,-97,-37,-57,-95,-47
-76,-25,56,57,-77,17,-113,-97,-37,-57,-89,-47
-76,-25,56,57,-77,17,-113,-97,-37,-57,-89,-47
-76,-25,56,57,-77,17,-113,-97,-37,-57,-89,-47
-76,-25,56,57,-77,17,-113,-97,-37,-57,-89,-47
-76,-25,56,57,-77,17,-113,-97,-37,-57,-89,-47
-76,-25,56,57,-77,17,-113,-97,-37,-57,-89,-47
-88,-31,56,63,-77,17,-113,-97,-37,-57,-89,-47
-100,-37,56,69,-83,17,-113,-97,-37,-57,-89,-47
-106,-43,56,75,-83,17,-113,-97,-37,-63,-89,-47
-106,-43,56,75,-83,17,-113,-97,-37,-63,-89,-47
-106,-43,56,75,-83,17,-113,-97,-37,-63,-89,-47
-106,-43,56,75,-83,17,-113,-97,-37,-63,-89,-47
-112,-49,56,75,-83,17,-113,-97,-37,-63,-89,-47
-118,-55,56,81,-89,11,-113,-97,-37,-63,-89,-47
-118,-55,56,81,-89,11,-113,-97,-37,-63,-89,-47
-118,-49,56,81,-89,11,-113,-97,-37,-63,-89,-47
-112,-43,56,75,-89,11,-113,-97,-37,-63,-89,-47
-106,-43,56,69,-89,11,-113,-97,-37,-63,-89,-47
-106,-43,56,69,-89,11,-113,-103,-43,-63,-89,-47
-106,-43,56,69,-89,11,-113,-109,-43,-69,-89,-47
-106,-43,56,69,-89,11,-113,-109,-43,-69,-89,-47
-106,-43,56,63,-89,11,-113,-109,-43,-69,-89,-47
-106,-43,62,63,-89,11,-113,-109,-43,-69,-89,-47
-106,-43,62,63,-89,11,-113,-115,-43,-69,-89,-47
-106,-43,62,63,-89,11,-113,-121,-49,-69,-89,-47
-118,-49,62,69,-89,11,-113,-127,-55,-75,-95,-53
-130,-61,62,81,-95,11,-113,-133,-55,-81,-101,-53
-130,-61,62,81,-95,11,-113,-133,-61,-81,-101,-53
-112,-49,62,69,-89,17,-107,-133,-61,-81,-101,-53
-100,-25,68,57,-89,29,-107,-133,-61,-81,-101,-53
-100,-25,68,57,-89,29,-107,-133,-61,-81,-101,-53
-100,-31,68,63,-89,29,-107,-133,-67,-87,-101,-53
-100,-37,68,63,-89,29,-107,-133,-67,-87,-101,-53
-100,-37,68,63,-89,29,-107,-139,-67,-87,-101,-53
-100,-37,68,63,-89,29,-107,-139,-67,-87,-101,-53
-100,-37,68,63,-89,29,-107,-139,-67,-87,-101,-53
-100,-37,68,63,-89,29,-107,-139,-67,-87,-101,-53
-100,-37,68,63,-89,23,-107,-145,-67,-87,-101,-53
-100,-37,68,63,-89,23,-107,-145,-67,-87,-101,-53
-100,-37,68,63,-89,23,-107,-145,-73,-87,-101,-53
-106,-37,68,69,-89,23,-107,-151,-79,-93,-101,-53
-112,-43,68,75,-89,17,-107,-151,-85,-99,-107,-53
-124,-55,68,81,-95,17,-107,-151,-85,-105,-107,-53
-124,-55,68,81,-95,17,-107,-151,-85,-105,-107,-53
-118,-55,68,75,-89,17,-107,-151,-85,-105,-107,-53
-112,-49,68,69,-89,17,-107,-151,-85,-105,-107,-53
-112,-49,68,69,-89,17,-107,-151,-85,-105,-107,-53
-112,-43,68,69,-89,17,-107,-151,-85,-105,-107,-53
-112,-43,68,69,-89,17,-107,-151,-85,-105,-107,-53
-112,-37,68,69,-89,17,-101,-151,-85,-105,-101,-53
-106,-31,68,63,-89,17,-95,-151,-85,-105,-95,-47
-106,-31,68,63,-89,17,-89,-151,-85,-105,-95,-47
-106,-31,68,63,-89,17,-89,-151,-79,-105,-95,-47
-106,-31,68,63,-89,17,-83,-145,-79,-105,-95,-47
-106,-31,68,63,-89,17,-77,-139,-73,-105,-95,-47
-100,-25,68,57,-89,23,-71,-133,-67,-99,-89,-47
-82,-7,68,45,-83,29,-65,-127,-61,-93,-83,-41
-76,4,74,33,-83,41,-59,-121,-55,-87,-77,-35
-76,10,80,33,-83,47,-53,-115,-55,-81,-77,-35
-76,10,80,33,-83,47,-53,-109,-55,-81,-77,-35
-76,10,80,33,-83,47,-47,-103,-49,-75,-71,-35
-64,22,80,21,-77,53,-35,-97,-37,-63,-65,-29
-52,46,86,9,-71,65,-23,-85,-25,-51,-53,-17
-46,58,92,3,-71,71,-17,-79,-13,-45,-47,-11
-46,64,92,-3,-71,77,-17,-73,-7,-39,-41,-5
-40,70,92,-8,-71,77,-17,-73,-1,-33,-35,1
-34,76,92,-14,-71,77,-17,-73,4,-27,-29,6
-28,76,92,-20,-65,77,-17,-73,4,-21,-29,6
-16,82,86,-32,-53,77,-17,-61,4,-15,-29,12
-4,82,80,-38,-41,77,-17,-55,4,-15,-29,12
-4,82,74,-38,-35,71,-23,-55,4,-15,-29,12
-4,70,68,-38,-29,65,-35,-55,-1,-15,-29,12
-4,58,56,-32,-29,59,-41,-67,-7,-21,-29,12
-4,40,50,-26,-29,53,-47,-79,-7,-27,-35,6
-4,28,44,-20,-29,47,-53,-85,-13,-33,-41,6
-4,16,38,-14,-29,35,-59,-97,-19,-45,-41,1
-4,10,38,-8,-29,29,-65,-109,-31,-57,-47,-5
-16,-1,32,3,-29,23,-71,-133,-61,-69,-59,-11
-34,-13,32,21,-29,11,-77,-145,-79,-81,-71,-17
-52,-25,32,33,-35,5,-83,-157,-91,-87,-77,-23
-58,-31,32,39,-35,5,-83,-163,-97,-93,-83,-29
-58,-31,32,39,-35,5,-83,-163,-97,-99,-83,-29
-52,-25,32,33,-35,5,-83,-163,-97,-99,-83,-29
-52,-25,32,33,-35,5,-83,-163,-97,-99,-83,-29
-52,-31,32,33,-35,5,-83,-163,-97,-99,-83,-35
-52,-31,32,33,-35,5,-77,-163,-97,-99,-83,-41
-58,-37,32,39,-41,5,-71,-157,-97,-99,-83,-41
-82,-49,32,57,-53,5,-65,-151,-97,-99,-89,-41
-94,-49,32,63,-59,5,-53,-139,-97,-99,-89,-47
-100,-49,32,69,-59,5,-41,-127,-97,-99,-89,-47
-112,-61,32,81,-59,-1,-29,-121,-97,-105,-95,-53
-124,-73,32,93,-65,-6,-29,-115,-97,-111,-101,-59
-136,-97,32,105,-71,-18,-23,-115,-97,-117,-107,-65
-142,-109,32,117,-77,-24,-23,-115,-97,-117,-113,-71
-136,-109,32,117,-77,-24,-11,-109,-91,-117,-113,-71
-118,-91,32,99,-77,-24,0,-97,-79,-105,-107,-65
-106,-79,32,87,-71,-24,12,-85,-73,-99,-101,-65
-100,-73,26,81,-65,-24,24,-73,-67,-93,-101,-65
-94,-73,26,75,-59,-24,30,-49,-55,-87,-95,-59
-88,-73,26,69,-53,-24,42,-25,-49,-75,-89,-59
-76,-67,20,63,-41,-24,54,4,-37,-63,-83,-53
-64,-61,14,57,-35,-24,78,46,-19,-51,-77,-47
-64,-61,14,57,-29,-24,120,76,-1,-39,-71,-47
-64,-61,14,57,-29,-30,144,106,16,-27,-65,-47
-64,-61,8,57,-23,-36,156,130,40,3,-53,-41
-46,-61,3,51,-17,-36,168,160,70,38,-29,-23
13,-31,-9,9,6,-36,174,202,118,86,12,6
85,34,-21,-68,48,-24,174,256,160,140,54,42
127,82,-33,-116,78,-12,150,292,214,182,96,84
175,112,-45,-152,108,-1,66,304,256,230,144,114
211,142,-51,-182,138,17,-65,310,286,278,186,150
253,166,-63,-218,162,29,-215,304,310,314,222,174
301,202,-69,-260,186,47,-335,280,328,356,264,204
367,256,-75,-314,216,65,-455,268,358,404,306,234
427,310,-81,-362,246,95,-557,250,400,464,354,282
499,376,-87,-434,276,119,-641,238,442,530,420,330
547,430,-93,-482,306,143,-707,226,478,584,468,372
577,472,-93,-518,324,167,-791,196,508,626,504,408
601,544,-87,-566,330,209,-905,160,538,674,564,468
637,628,-63,-632,330,287,-995,124,580,746,642,528
679,718,-21,-704,336,353,-1079,100,622,824,714,594
751,802,8,-800,348,413,-1145,94,700,926,804,666
847,898,26,-872,378,455,-1211,100,820,1082,936,756
949,964,26,-956,438,479,-1277,124,970,1280,1086,846
1045,1012,8,-1028,516,485,-1379,130,1084,1466,1236,948
1153,1048,-39,-1094,594,485,-1529,70,1138,1628,1368,1044
1279,1090,-117,-1178,696,485,-1727,-121,1168,1766,1500,1146
1423,1150,-225,-1286,816,479,-1919,-301,1180,1910,1638,1254
1573,1192,-345,-1388,972,461,-2093,-457,1192,2065,1788,1368
1717,1204,-483,-1460,1110,413,-2231,-589,1210,2215,1914,1458
1837,1210,-597,-1520,1230,359,-2333,-703,1222,2353,2034,1548
1927,1216,-681,-1580,1314,317,-2399,-817,1228,2454,2135,1608
1993,1228,-723,-1616,1356,287,-2428,-901,1234,2532,2213,1680
2035,1252,-741,-1646,1386,281,-2446,-937,1246,2610,2285,1740
2052,1270,-747,-1658,1392,275,-2446,-943,1258,2664,2333,1782
2052,1276,-753,-1658,1392,269,-2434,-943,1258,2682,2339,1800
2029,1276,-747,-1646,1380,269,-2357,-943,1252,2658,2327,1800
1885,1240,-699,-1562,1290,269,-2249,-985,1084,2395,2141,1740
1669,1126,-615,-1406,1146,269,-2165,-1255,628,1808,1746,1530
1423,904,-585,-1178,1014,215,-2081,-1651,-19,1022,1206,1218
1201,640,-585,-926,918,65,-1979,-1873,-577,308,672,864
1057,388,-609,-740,882,-96,-1835,-1903,-907,-207,246,558
943,190,-681,-572,858,-240,-1661,-1891,-1051,-477,-23,336
847,52,-729,-452,834,-342,-1511,-1777,-1081,-579,-155,198
739,-49,-747,-344,792,-396,-1355,-1639,-1087,-633,-239,102
631,-97,-741,-260,696,-414,-1205,-1495,-1087,-663,-299,24
535,-103,-669,-224,588,-408,-1019,-1321,-1045,-669,-329,-5
421,-103,-531,-182,474,-348,-839,-1123,-925,-657,-329,-17
283,-103,-387,-134,336,-258,-671,-919,-769,-567,-317,-23
163,-97,-249,-92,210,-186,-503,-715,-619,-477,-287,-23
79,-97,-165,-44,126,-144,-401,-589,-523,-429,-269,-29
7,-97,-111,3,66,-120,-329,-499,-463,-399,-263,-41
-40,-103,-69,45,24,-108,-245,-439,-421,-375,-257,-53
-70,-109,-39,69,-11,-96,-197,-385,-373,-345,-251,-71
-88,-109,-21,87,-41,-90,-143,-343,-331,-321,-245,-83
-106,-115,-3,105,-59,-84,-101,-289,-289,-303,-239,-95
-124,-115,8,117,-71,-78,-59,-253,-265,-297,-239,-107
-148,-121,14,129,-83,-78,-29,-223,-253,-291,-239,-119
-172,-127,26,141,-95,-78,0,-187,-241,-285,-239,-131
-196,-133,32,153,-107,-72,30,-157,-229,-279,-239,-143
-214,-145,44,165,-119,-72,54,-127,-217,-273,-239,-149
-220,-151,50,177,-125,-72,66,-115,-205,-273,-239,-155
-226,-157,56,183,-131,-72,78,-103,-193,-273,-239,-161
-238,-163,62,195,-143,-72,84,-97,-181,-273,-245,-167
-262,-175,68,219,-161,-72,90,-91,-175,-273,-251,-173
-262,-175,74,219,-167,-66,102,-85,-169,-267,-251,-179
-262,-175,80,219,-167,-54,120,-73,-157,-261,-251,-179
-262,-175,80,219,-167,-48,132,-67,-157,-261,-251,-179
-268,-181,80,225,-173,-48,138,-61,-157,-261,-251,-185
-274,-187,80,231,-179,-48,144,-49,-151,-261,-251,-185
-274,-187,80,231,-179,-48,150,-37,-145,-255,-251,-191
-262,-175,80,213,-173,-48,168,-7,-133,-249,-251,-191
-250,-163,80,201,-173,-48,180,4,-121,-249,-251,-191
-250,-163,80,201,-173,-48,186,10,-115,-249,-251,-191
-250,-163,80,207,-173,-48,192,10,-109,-249,-251,-191
-262,-181,80,225,-179,-48,192,10,-109,-249,-251,-191
-304,-229,80,267,-191,-60,192,10,-109,-249,-251,-197
-334,-265,80,297,-203,-72,192,10,-109,-249,-257,-203
-334,-265,80,297,-203,-72,192,16,-109,-249,-257,-203
-310,-211,86,249,-197,-60,204,40,-103,-237,-251,-203
-280,-169,86,213,-185,-48,210,58,-97,-225,-245,-203
-274,-157,86,207,-185,-42,216,70,-91,-219,-239,-203
-268,-157,86,207,-185,-42,222,76,-85,-219,-239,-203
-268,-157,86,207,-185,-42,228,82,-79,-219,-239,-203
-262,-157,86,207,-185,-36,234,94,-73,-213,-239,-197
-256,-151,86,201,-185,-30,240,106,-67,-213,-239,-191
-250,-151,86,201,-185,-30,246,112,-61,-213,-239,-191
-250,-151,86,201,-185,-30,252,118,-55,-213,-239,-191
-256,-157,86,207,-185,-30,258,130,-55,-213,-239,-191
-262,-163,86,213,-185,-30,264,148,-55,-213,-239,-191
-268,-169,92,213,-185,-30,270,160,-49,-207,-239,-191
-274,-169,92,213,-185,-30,276,172,-43,-201,-239,-191
-274,-169,92,213,-185,-36,282,184,-37,-201,-239,-191
-274,-169,92,213,-185,-36,288,196,-31,-201,-239,-191
-262,-157,92,207,-185,-36,294,208,-19,-195,-233,-191
-244,-145,92,195,-179,-36,306,226,-13,-189,-227,-185
-238,-145,92,195,-173,-36,312,238,-7,-183,-221,-185
-238,-145,92,195,-173,-36,318,250,4,-177,-221,-185
-238,-145,92,195,-173,-36,330,280,10,-177,-221,-185
-238,-145,92,195,-173,-36,342,304,16,-177,-221,-185
-238,-151,92,195,-173,-36,354,322,22,-177,-221,-185
-238,-151,92,195,-173,-36,366,334,28,-177,-221,-185
-244,-163,92,201,-173,-36,372,346,34,-177,-221,-191
-262,-175,92,213,-179,-42,384,358,40,-177,-221,-197
-268,-181,92,225,-179,-48,396,376,46,-177,-221,-197
-268,-181,92,225,-179,-48,408,400,52,-177,-221,-203
-268,-181,92,225,-179,-48,420,418,58,-177,-221,-203
-280,-187,92,237,-185,-48,432,442,58,-177,-227,-209
-292,-199,92,249,-185,-54,444,460,58,-177,-233,-215
-304,-211,92,255,-185,-60,456,490,64,-177,-239,-221
-310,-217,92,261,-185,-66,468,520,76,-177,-239,-227
-310,-217,92,261,-185,-66,480,544,88,-171,-239,-227
-310,-217,92,261,-185,-66,510,568,100,-165,-239,-227
-310,-217,92,261,-191,-66,528,592,112,-165,-239,-227
-310,-217,92,261,-191,-60,534,610,124,-159,-239,-227
-310,-217,92,261,-191,-60,546,634,130,-159,-239,-227
-310,-217,92,261,-191,-60,558,652,142,-159,-239,-227
-310,-211,92,261,-191,-60,570,682,148,-153,-239,-233
-310,-205,92,261,-191,-60,594,712,160,-147,-239,-233
-310,-205,92,261,-191,-60,606,742,172,-141,-239,-233
-310,-205,92,261,-191,-60,618,760,178,-141,-239,-233
-310,-205,92,261,-191,-60,630,784,190,-141,-239,-239
-310,-211,92,261,-191,-60,642,796,196,-141,-251,-245
-316,-223,92,261,-191,-66,654,808,202,-141,-257,-251
-322,-235,92,273,-191,-72,666,820,202,-141,-263,-263
-322,-241,92,279,-191,-78,678,832,208,-141,-269,-269
-322,-247,92,285,-191,-78,684,844,214,-141,-269,-275
-322,-253,86,285,-191,-84,690,856,220,-141,-275,-281
-322,-259,80,291,-191,-90,696,874,226,-141,-281,-281
-328,-265,74,291,-191,-96,702,886,226,-141,-281,-281
-328,-271,68,297,-191,-102,702,892,232,-141,-281,-287
-328,-277,68,297,-191,-108,708,898,232,-141,-281,-287
-322,-277,68,297,-185,-108,708,904,232,-141,-281,-287
-316,-271,68,285,-179,-108,714,910,232,-135,-281,-287
-304,-265,62,273,-173,-108,720,910,238,-135,-281,-287
-292,-259,56,267,-167,-108,720,910,238,-135,-281,-287
-286,-259,44,267,-161,-108,720,910,238,-135,-281,-287
-286,-259,32,267,-155,-114,720,904,238,-135,-281,-287
-274,-259,26,261,-149,-114,714,898,238,-135,-281,-287
-268,-259,20,255,-143,-114,708,886,238,-135,-281,-287
-262,-259,14,249,-137,-114,696,862,238,-135,-281,-287
-262,-259,14,249,-137,-114,678,844,232,-135,-281,-287
-262,-265,8,249,-137,-120,654,808,220,-135,-281,-287
-262,-265,3,249,-131,-132,630,784,202,-135,-281,-287
-256,-265,-9,249,-125,-138,606,754,190,-135,-281,-281
-250,-265,-15,249,-119,-138,576,724,178,-135,-281,-281
-244,-265,-21,249,-113,-138,558,694,166,-135,-281,-281
-244,-265,-27,249,-107,-138,534,670,154,-135,-281,-281
-238,-265,-27,249,-101,-138,510,640,142,-135,-281,-275
-214,-253,-33,231,-89,-138,498,610,136,-135,-281,-263
-160,-223,-45,189,-59,-138,486,586,130,-135,-269,-251
-118,-193,-51,147,-35,-132,468,556,124,-135,-257,-239
-100,-175,-51,135,-23,-126,456,520,118,-135,-245,-221
-100,-175,-51,135,-23,-120,414,484,106,-135,-239,-209
-100,-175,-51,135,-23,-120,372,442,88,-135,-239,-203
-100,-169,-51,135,-23,-120,342,400,76,-135,-233,-197
-100,-169,-51,135,-23,-120,330,370,64,-135,-233,-197
-100,-169,-51,135,-23,-120,300,340,52,-135,-221,-191
-100,-169,-51,135,-23,-120,276,298,40,-135,-215,-185
-100,-169,-51,135,-23,-120,240,250,28,-141,-215,-185
-106,-169,-51,135,-23,-120,204,208,10,-147,-215,-179
-112,-169,-51,135,-23,-120,180,172,-7,-147,-209,-179
-112,-169,-51,135,-23,-114,168,136,-19,-147,-203,-173
-100,-145,-45,117,-23,-102,156,112,-25,-147,-191,-161
-82,-115,-39,87,-23,-84,144,100,-31,-147,-179,-143
-70,-103,-39,75,-23,-78,132,82,-31,-147,-161,-131
-64,-91,-39,69,-23,-72,120,70,-31,-141,-149,-119
-58,-85,-33,63,-23,-66,108,58,-31,-135,-143,-107
-52,-79,-33,57,-23,-60,96,34,-37,-135,-137,-95
-52,-79,-27,57,-23,-54,84,4,-43,-135,-131,-89
-52,-79,-21,57,-23,-48,72,-13,-49,-135,-125,-89
-52,-73,-9,57,-23,-42,60,-25,-55,-129,-119,-89
-52,-67,-3,51,-23,-30,54,-37,-55,-123,-107,-83
-52,-55,3,45,-23,-18,48,-49,-61,-117,-101,-77
-52,-43,8,39,-23,-12,48,-61,-61,-117,-95,-71
-58,-43,14,39,-29,-12,42,-73,-67,-117,-95,-71
-70,-49,20,51,-35,-12,36,-85,-67,-117,-95,-71
-82,-55,20,63,-47,-12,30,-97,-67,-117,-95,-71
-94,-61,20,75,-53,-12,18,-109,-67,-117,-95,-71
-100,-61,26,81,-59,-12,12,-115,-67,-117,-95,-71
-100,-55,32,75,-59,-12,12,-121,-67,-117,-95,-65
-88,-43,38,63,-59,-6,12,-121,-67,-111,-89,-53
-82,-31,38,51,-59,-1,6,-127,-67,-105,-83,-47
-82,-31,38,51,-59,-1,0,-133,-67,-99,-83,-47
-82,-31,38,51,-59,5,0,-139,-67,-99,-83,-47
-82,-31,44,51,-65,5,0,-145,-67,-99,-77,-47
-82,-31,44,51,-65,5,0,-145,-67,-99,-77,-47
-82,-31,44,51,-65,5,-5,-145,-67,-99,-77,-47
-76,-25,44,45,-65,11,-5,-151,-67,-99,-77,-47
-70,-19,44,39,-65,17,-5,-151,-67,-99,-77,-47
-70,-19,44,39,-65,17,-5,-151,-67,-99,-77,-47
-76,-31,44,45,-65,17,-5,-157,-73,-99,-77,-47
-94,-43,44,63,-71,11,-11,-163,-79,-99,-77,-47
-112,-55,44,75,-77,11,-11,-169,-85,-99,-77,-47
-118,-61,50,81,-83,11,-11,-169,-91,-99,-77,-47
-118,-55,50,81,-83,11,-11,-169,-91,-93,-77,-47
-106,-43,50,69,-83,17,-11,-169,-91,-87,-71,-47
-94,-31,50,63,-83,17,-11,-169,-91,-87,-71,-47
-82,-19,50,51,-77,17,-11,-169,-91,-87,-71,-41
-76,-13,50,45,-77,17,-11,-169,-91,-87,-71,-41
-76,-13,50,45,-77,17,-11,-169,-91,-81,-65,-35
-70,-7,50,39,-77,23,-11,-169,-91,-75,-59,-35
-70,-7,50,39,-77,23,-11,-169,-91,-75,-59,-35
-70,-7,50,39,-77,23,-11,-169,-91,-75,-59,-35
-70,-7,50,39,-77,23,-11,-169,-91,-75,-59,-35
-70,-7,50,39,-71,23,-11,-169,-91,-75,-59,-35
-70,-7,50,39,-71,23,-11,-169,-91,-75,-53,-35
-70,-13,50,39,-71,23,-11,-169,-91,-75,-53,-35
-82,-25,50,51,-71,23,-11,-169,-91,-75,-53,-35
-88,-31,50,57,-71,23,-11,-169,-91,-75,-53,-35
-88,-37,50,57,-71,23,-11,-169,-91,-75,-53,-35
-88,-37,50,57,-71,23,-11,-169,-91,-75,-53,-35
-82,-31,50,51,-71,23,-11,-169,-91,-75,-53,-35
-76,-25,50,45,-71,29,-11,-163,-85,-69,-47,-35
-70,-13,50,33,-71,35,-11,-157,-79,-63,-41,-35
-58,-1,50,21,-65,35,-5,-151,-73,-63,-41,-35
-58,-1,50,21,-65,35,-5,-151,-67,-63,-41,-35
-58,-1,50,21,-65,35,-5,-151,-67,-63,-41,-35
-52,4,50,15,-59,35,-5,-151,-67,-57,-41,-35
-40,10,50,9,-53,35,-5,-145,-67,-57,-41,-35
-40,10,50,9,-53,35,-5,-145,-61,-57,-41,-35
-40,10,50,9,-53,35,0,-145,-61,-57,-41,-35
-46,4,50,21,-53,29,0,-145,-61,-57,-41,-35
-58,-1,50,27,-53,29,0,-145,-61,-57,-41,-35
-58,-1,50,27,-53,29,0,-145,-61,-57,-41,-35
-58,-1,50,27,-53,29,6,-145,-61,-57,-41,-35
-58,-7,50,27,-53,29,6,-145,-61,-57,-41,-35
-64,-13,50,33,-59,29,6,-145,-61,-57,-41,-35
-70,-25,50,39,-65,23,6,-145,-61,-57,-41,-35
-76,-31,50,45,-65,23,12,-145,-61,-57,-41,-35
-76,-31,50,45,-65,23,12,-139,-61,-57,-41,-35
-76,-25,50,45,-65,23,12,-139,-55,-57,-41,-35
-76,-19,50,45,-65,23,12,-139,-55,-57,-41,-35
-76,-19,50,45,-65,23,12,-139,-55,-57,-41,-35
-76,-19,50,45,-65,23,12,-139,-55,-57,-41,-29
-76,-19,50,45,-65,23,12,-139,-55,-57,-41,-29
-76,-19,50,45,-65,23,18,-139,-55,-57,-41,-29
-82,-19,56,45,-65,23,18,-139,-55,-57,-41,-29
-88,-19,56,51,-71,23,18,-139,-55,-57,-41,-29
-88,-19,56,57,-71,23,18,-139,-55,-57,-41,-29
-88,-19,56,57,-77,23,18,-139,-55,-57,-41,-29
-88,-19,56,57,-77,23,18,-139,-55,-57,-41,-29
-88,-19,56,57,-77,23,18,-139,-55,-57,-41,-29
-94,-25,56,63,-77,23,18,-139,-55,-57,-41,-29
-106,-31,56,69,-83,23,18,-139,-55,-57,-41,-35
-112,-37,56,75,-89,23,18,-139,-55,-57,-41,-35
-112,-37,56,75,-89,23,18,-139,-55,-57,-41,-35
-112,-37,56,69,-89,23,18,-139,-55,-57,-41,-35
-112,-31,56,63,-89,23,18,-139,-55,-57,-41,-35
-112,-31,62,63,-89,23,18,-139,-55,-57,-41,-35
-106,-31,62,57,-89,23,18,-139,-55,-57,-41,-35
-106,-31,62,57,-89,23,18,-139,-55,-57,-41,-35
-106,-31,62,57,-89,23,18,-139,-55,-57,-41,-35
-106,-31,62,57,-89,23,18,-139,-55,-57,-41,-35
-94,-19,62,45,-83,29,24,-133,-55,-57,-41,-35
-82,-1,62,33,-83,35,30,-133,-55,-57,-41,-35
-82,4,62,33,-83,35,30,-127,-55,-57,-41,-35
-82,4,62,33,-83,35,30,-127,-55,-57,-41,-35
-82,4,62,33,-83,35,30,-127,-55,-57,-41,-35
-76,4,62,33,-83,35,36,-127,-55,-57,-41,-35
-70,10,62,27,-83,35,42,-127,-55,-57,-41,-35
-70,10,68,27,-83,35,48,-127,-55,-57,-41,-35
-70,10,68,27,-83,35,48,-127,-55,-57,-41,-35
-76,10,68,27,-83,35,48,-127,-55,-57,-41,-35
-76,10,68,27,-83,35,48,-127,-55,-57,-41,-35
-76,10,68,27,-83,35,48,-127,-55,-57,-41,-35
-76,10,68,27,-83,35,42,-127,-55,-57,-41,-35
-76,10,68,27,-83,35,42,-127,-55,-57,-41,-35
-76,10,68,27,-83,35,36,-127,-55,-57,-41,-35
-82,-1,68,39,-83,29,30,-133,-61,-57,-41,-35
-88,-13,68,51,-83,23,24,-139,-67,-57,-41,-35
-94,-25,68,57,-83,23,24,-145,-67,-63,-41,-35
-106,-37,68,69,-83,23,18,-145,-67,-63,-41,-35
-130,-55,68,87,-95,17,12,-145,-73,-69,-47,-41
-142,-67,68,105,-107,11,0,-151,-85,-75,-53,-47
-142,-67,68,105,-107,11,0,-157,-85,-81,-53,-47
-124,-55,68,87,-107,11,0,-157,-85,-81,-53,-47
-100,-31,68,63,-101,17,0,-157,-85,-81,-53,-47
-88,-19,68,57,-95,17,0,-157,-85,-81,-53,-47
-88,-19,68,57,-89,17,0,-157,-85,-81,-53,-47
-88,-19,68,57,-89,17,0,-157,-85,-81,-53,-47
-88,-19,68,57,-89,17,0,-157,-85,-81,-53,-47
-88,-19,68,57,-89,17,0,-157,-85,-81,-53,-47
-94,-25,68,57,-89,17,0,-157,-91,-81,-53,-47
-100,-31,68,63,-89,17,0,-157,-91,-81,-53,-47
-106,-31,68,69,-89,17,0,-157,-91,-81,-53,-47
-112,-37,68,75,-89,17,0,-157,-91,-81,-53,-47
-112,-43,68,81,-89,17,0,-163,-91,-87,-59,-47
-124,-55,68,93,-89,11,0,-169,-97,-93,-65,-53
-130,-67,68,105,-95,5,0,-175,-103,-99,-65,-53
-130,-67,68,105,-95,5,0,-175,-103,-99,-65,-53
-130,-67,68,105,-95,5,0,-175,-103,-99,-65,-53
-130,-67,68,105,-95,5,0,-175,-103,-99,-65,-53
-130,-61,68,99,-95,11,0,-175,-103,-99,-65,-53
-130,-55,68,93,-95,17,0,-175,-103,-99,-65,-53
-130,-55,68,93,-95,17,0,-175,-103,-99,-65,-53
-136,-61,68,105,-95,11,-5,-175,-109,-105,-71,-53
-142,-73,68,111,-95,5,-11,-181,-115,-105,-77,-53
-142,-73,68,111,-95,5,-11,-181,-115,-105,-77,-53
-106,-43,68,75,-89,11,-11,-181,-115,-105,-77,-53
-70,-1,68,33,-77,23,-11,-181,-109,-99,-71,-47
-64,4,68,27,-71,23,-11,-181,-109,-99,-65,-47
-64,4,68,27,-71,23,-11,-181,-109,-99,-65,-47
-64,4,68,27,-71,23,-11,-181,-109,-99,-65,-47
-64,4,68,27,-71,23,-5,-175,-103,-93,-59,-47
-64,4,68,27,-71,29,0,-169,-103,-93,-53,-47
-64,4,68,27,-71,29,6,-169,-103,-87,-53,-47
-64,4,68,27,-71,29,12,-163,-97,-87,-53,-47
-64,4,68,27,-71,29,18,-157,-91,-81,-53,-41
-64,4,68,27,-71,29,24,-151,-85,-81,-47,-41
-64,4,68,27,-71,29,30,-145,-85,-81,-47,-41
-64,4,68,27,-71,35,30,-145,-85,-81,-47,-41
-64,4,68,27,-71,35,30,-145,-85,-81,-47,-41
-64,4,68,27,-71,35,30,-145,-85,-81,-47,-41
-64,4,68,27,-71,35,36,-139,-79,-75,-41,-35
-64,10,68,27,-71,41,48,-127,-67,-63,-29,-29
-58,16,68,21,-71,41,60,-115,-61,-51,-23,-29
-58,16,68,21,-71,41,66,-103,-55,-45,-17,-29
-58,16,74,21,-71,41,66,-97,-49,-39,-11,-23
-58,28,80,15,-71,47,66,-91,-37,-33,-5,-17
-46,52,86,3,-71,59,66,-79,-25,-21,6,-5
-22,70,86,-20,-65,71,66,-73,-19,-9,18,6
-4,82,86,-32,-53,77,66,-61,-13,-3,24,18
7,82,80,-38,-41,77,66,-55,-7,-3,30,24
13,82,68,-38,-29,71,66,-55,-7,-3,30,24
19,82,56,-38,-23,65,60,-55,-7,-3,30,24
19,76,44,-38,-17,59,54,-61,-7,-3,30,24
13,64,38,-32,-17,53,42,-73,-13,-9,24,18
7,46,32,-26,-17,47,36,-85,-31,-21,18,6
7,46,32,-26,-17,41,30,-91,-43,-27,12,1
7,40,26,-20,-17,35,30,-103,-55,-33,6,-5
1,4,20,3,-17,23,24,-127,-73,-45,-5,-11
-4,-13,20,15,-17,11,12,-145,-91,-57,-17,-17
-4,-13,20,15,-17,11,6,-157,-103,-69,-23,-17
-10,-13,20,15,-17,11,6,-163,-103,-75,-29,-17
-16,-13,20,15,-17,11,6,-169,-109,-81,-29,-23
-22,-13,20,15,-17,11,6,-169,-115,-81,-29,-29
-22,-13,20,15,-17,11,6,-169,-115,-87,-29,-29
-22,-13,20,15,-17,11,6,-169,-115,-87,-29,-29
-22,-13,20,15,-17,11,6,-169,-115,-93,-29,-29
-22,-13,20,21,-17,11,6,-169,-115,-99,-35,-35
-34,-19,20,33,-29,5,12,-169,-115,-99,-35,-35
-52,-25,20,45,-41,5,24,-163,-115,-99,-41,-41
-76,-37,20,57,-53,5,36,-157,-115,-99,-41,-47
-88,-43,20,63,-59,5,48,-145,-115,-99,-47,-47
-94,-43,26,63,-65,5,60,-139,-115,-99,-47,-53
-94,-43,26,63,-65,5,72,-133,-115,-99,-47,-53
-94,-43,26,63,-65,5,78,-127,-115,-99,-53,-53
-94,-49,26,69,-65,5,84,-121,-115,-99,-53,-53
-100,-55,32,75,-65,5,84,-121,-115,-99,-53,-53
-100,-55,32,81,-65,5,90,-121,-115,-99,-53,-53
-100,-61,32,87,-65,5,96,-115,-115,-99,-53,-59
-100,-61,32,87,-65,-1,102,-103,-115,-99,-53,-59
-88,-61,26,81,-59,-1,108,-73,-109,-93,-53,-59
-76,-55,20,69,-47,-1,120,-49,-97,-81,-47,-59
-64,-55,14,63,-35,-6,132,-25,-85,-69,-41,-59
-58,-55,8,63,-29,-12,150,4,-61,-57,-35,-53
-52,-55,3,57,-23,-12,186,46,-37,-45,-23,-47
-40,-49,-3,51,-17,-12,216,82,-7,-27,-11,-41
-34,-49,-9,51,-11,-18,234,106,10,-9,1,-35
-34,-55,-15,51,-6,-30,240,124,22,8,6,-29
-34,-67,-21,51,0,-36,246,154,34,32,18,-23
-10,-61,-27,39,12,-36,246,190,70,74,60,-11
73,-13,-39,-32,54,-30,240,238,124,140,114,30
181,88,-51,-128,120,-18,180,268,184,206,168,78
253,148,-81,-194,168,-6,54,274,226,248,210,114
295,178,-99,-230,198,5,-101,274,250,284,240,144
319,190,-111,-254,210,17,-239,262,274,320,270,174
361,220,-117,-284,228,29,-353,238,304,356,306,204
427,262,-123,-332,258,47,-455,214,334,398,348,246
499,334,-129,-404,306,83,-551,202,364,464,402,288
565,400,-135,-470,342,113,-629,190,400,518,462,330
601,448,-135,-518,360,143,-707,178,436,566,516,366
631,496,-135,-560,366,173,-803,154,466,620,558,408
661,580,-123,-620,378,221,-899,124,502,674,624,456
715,682,-93,-698,390,281,-989,94,544,746,684,528
781,766,-63,-770,396,335,-1055,76,610,836,768,606
853,856,-45,-848,420,389,-1115,76,712,968,882,684
961,934,-39,-944,468,437,-1169,88,844,1142,1020,792
1075,1000,-39,-1016,546,455,-1259,106,970,1322,1164,882
1195,1048,-87,-1106,654,461,-1385,100,1036,1478,1290,978
1339,1108,-171,-1214,762,461,-1553,-13,1072,1622,1428,1074
1483,1150,-267,-1310,888,455,-1757,-193,1090,1760,1554,1164
1609,1168,-411,-1376,1008,425,-1937,-355,1096,1880,1662,1242
1735,1174,-549,-1436,1146,353,-2099,-493,1102,2006,1782,1326
1867,1180,-693,-1502,1278,281,-2213,-607,1114,2137,1902,1404
1963,1180,-789,-1544,1380,221,-2297,-745,1120,2221,1974,1458
2029,1180,-849,-1574,1446,185,-2357,-871,1120,2287,2034,1512
2070,1186,-867,-1604,1476,179,-2381,-925,1120,2359,2099,1578
2112,1210,-873,-1640,1494,179,-2381,-931,1126,2419,2159,1638
2142,1228,-879,-1670,1506,179,-2369,-931,1132,2454,2189,1668
2142,1234,-879,-1676,1506,179,-2297,-925,1132,2454,2189,1674
2070,1228,-849,-1652,1464,185,-2201,-925,1054,2323,2129,1668
1861,1162,-741,-1502,1308,191,-2093,-1111,724,1880,1800,1512
1603,994,-681,-1298,1146,185,-2015,-1489,136,1184,1326,1236
1369,760,-663,-1070,1032,89,-1913,-1795,-433,470,804,912
1189,496,-675,-842,966,-72,-1775,-1879,-811,-81,360,588
1063,286,-723,-668,936,-222,-1613,-1879,-1003,-411,54,348
943,112,-771,-518,906,-330,-1463,-1813,-1057,-555,-107,198
823,-19,-789,-386,858,-390,-1319,-1687,-1075,-615,-197,102
697,-109,-789,-284,768,-426,-1163,-1561,-1081,-657,-275,24
535,-163,-735,-182,636,-432,-1019,-1399,-1075,-675,-305,-29
409,-181,-615,-122,504,-420,-851,-1213,-1003,-675,-311,-47
313,-175,-459,-92,390,-330,-659,-991,-853,-615,-299,-47
211,-145,-321,-68,264,-240,-491,-775,-673,-495,-257,-47
115,-127,-207,-32,156,-180,-347,-625,-559,-423,-227,-47
31,-121,-135,9,78,-138,-233,-523,-475,-387,-209,-47
-16,-115,-93,39,30,-108,-149,-445,-415,-357,-203,-59
-52,-109,-51,69,-6,-90,-83,-385,-373,-333,-197,-65
-82,-109,-15,87,-35,-78,-41,-337,-337,-315,-197,-77
-106,-109,3,99,-53,-66,0,-295,-307,-303,-191,-89
-118,-109,14,111,-65,-60,42,-247,-289,-291,-191,-101
-124,-109,20,117,-77,-54,84,-199,-271,-279,-191,-113
-136,-109,26,129,-83,-54,120,-163,-253,-267,-191,-125
-154,-121,32,141,-95,-54,138,-133,-235,-261,-191,-137
-178,-127,38,147,-107,-54,162,-115,-223,-261,-191,-143
-190,-133,44,159,-119,-54,174,-103,-217,-261,-191,-149
-220,-139,56,171,-137,-48,186,-91,-205,-261,-191,-161
-238,-145,68,195,-149,-48,198,-85,-199,-261,-191,-167
-256,-163,68,219,-161,-48,210,-79,-193,-261,-191,-173
-268,-175,68,231,-167,-48,222,-73,-187,-261,-191,-173
-268,-181,74,237,-173,-48,228,-61,-181,-261,-191,-173
-268,-187,74,237,-173,-48,234,-49,-175,-261,-191,-173
-280,-193,74,243,-179,-48,240,-37,-175,-261,-191,-173
-292,-199,80,255,-185,-48,246,-25,-169,-255,-191,-173
-292,-199,80,255,-185,-48,258,-13,-157,-249,-191,-173
-286,-187,86,243,-185,-42,270,-2,-139,-237,-191,-173
-274,-175,86,231,-185,-36,276,10,-127,-231,-191,-173
-274,-175,86,231,-185,-36,282,16,-121,-231,-191,-179
-274,-175,86,231,-185,-36,288,16,-121,-231,-191,-179
-274,-175,92,231,-185,-36,300,28,-121,-225,-191,-179
-274,-175,92,231,-185,-36,306,40,-115,-225,-191,-179
-274,-175,92,231,-185,-36,312,52,-115,-225,-191,-179
-274,-187,92,237,-185,-42,312,58,-115,-225,-191,-179
-280,-193,92,243,-185,-48,318,64,-115,-225,-191,-179
-286,-199,92,243,-191,-48,318,70,-115,-225,-191,-185
-292,-205,92,249,-191,-48,324,76,-115,-225,-191,-185
-298,-211,92,255,-197,-48,330,82,-115,-225,-191,-185
-304,-217,92,261,-197,-48,336,88,-115,-225,-191,-185
-298,-211,92,255,-197,-48,348,100,-109,-225,-191,-185
-286,-193,92,243,-191,-48,360,112,-97,-219,-191,-185
-280,-187,92,243,-191,-48,366,124,-91,-219,-191,-185
-280,-187,98,243,-191,-48,372,136,-85,-219,-191,-185
-274,-181,98,237,-191,-48,378,154,-73,-213,-185,-185
-268,-175,98,231,-191,-48,384,166,-61,-207,-185,-185
-268,-175,98,231,-191,-48,390,178,-55,-201,-185,-185
-268,-175,98,231,-191,-48,396,190,-49,-195,-185,-185
-274,-175,98,231,-191,-48,402,202,-43,-195,-185,-185
-280,-175,104,231,-191,-48,408,214,-43,-189,-185,-185
-280,-175,104,231,-191,-48,414,226,-37,-189,-185,-185
-268,-169,104,219,-185,-42,426,250,-25,-183,-179,-185
-262,-163,104,213,-185,-42,432,268,-13,-183,-179,-185
-262,-163,104,213,-185,-42,438,280,-7,-183,-179,-185
-262,-163,104,213,-185,-42,444,298,-1,-177,-179,-185
-262,-163,104,213,-185,-42,456,310,4,-177,-179,-185
-262,-163,104,213,-185,-42,468,328,10,-177,-179,-185
-268,-169,104,213,-185,-42,474,340,16,-177,-179,-185
-274,-175,104,225,-185,-42,480,352,16,-177,-179,-185
-280,-181,104,231,-185,-42,492,364,16,-177,-179,-185
-286,-187,104,237,-185,-48,504,382,22,-177,-179,-191
-286,-187,104,243,-185,-48,516,412,28,-177,-179,-191
-286,-187,104,243,-185,-48,528,442,40,-171,-179,-191
-286,-193,104,243,-185,-48,540,460,52,-171,-179,-191
-292,-193,104,243,-191,-48,552,484,58,-171,-179,-197
-292,-193,104,243,-191,-48,570,508,64,-171,-179,-197
-292,-193,104,243,-191,-48,588,538,76,-165,-179,-197
-286,-187,104,237,-191,-48,606,568,88,-159,-179,-197
-286,-187,104,237,-191,-48,624,580,94,-153,-179,-203
-286,-187,104,237,-191,-48,636,604,100,-147,-179,-209
-292,-193,104,243,-191,-48,648,616,106,-147,-179,-215
-292,-193,104,243,-191,-48,660,640,112,-147,-179,-221
-292,-193,104,243,-191,-48,672,670,118,-147,-179,-227
-298,-193,104,243,-191,-48,684,682,130,-147,-179,-227
-304,-199,104,249,-197,-48,696,706,136,-147,-185,-233
-304,-199,104,249,-197,-48,714,736,142,-147,-191,-233
-304,-199,104,249,-197,-48,726,760,154,-147,-191,-233
-304,-199,104,249,-197,-48,738,778,166,-141,-191,-233
-310,-205,104,255,-197,-54,750,790,166,-141,-197,-239
-316,-211,104,261,-197,-60,762,808,166,-141,-197,-245
-316,-211,104,261,-197,-60,774,820,178,-141,-197,-245
-316,-211,104,261,-197,-60,786,844,184,-135,-197,-245
-316,-211,104,261,-197,-60,792,856,190,-135,-203,-245
-316,-223,104,267,-197,-66,798,868,190,-135,-209,-251
-322,-235,104,279,-203,-72,804,880,196,-135,-209,-257
-322,-247,104,285,-203,-78,810,892,202,-135,-215,-257
-322,-247,98,285,-203,-78,816,904,202,-135,-215,-257
-310,-241,92,279,-191,-78,822,910,202,-129,-215,-257
-304,-241,80,279,-185,-78,822,916,202,-129,-215,-257
-304,-247,74,279,-185,-84,822,916,202,-129,-215,-263
-304,-253,62,279,-185,-96,822,916,202,-129,-221,-269
-304,-253,56,279,-185,-102,822,916,202,-129,-227,-269
-292,-247,50,273,-179,-102,822,916,202,-129,-227,-269
-280,-247,44,267,-173,-102,816,910,202,-129,-227,-269
-280,-253,44,267,-173,-108,810,904,196,-129,-233,-275
-292,-271,44,279,-173,-120,798,886,190,-135,-233,-275
-298,-283,38,291,-173,-126,786,868,178,-141,-233,-275
-298,-289,32,291,-167,-132,774,844,166,-141,-233,-275
-286,-283,20,285,-155,-132,762,826,160,-141,-233,-275
-274,-283,8,279,-143,-132,750,802,148,-147,-233,-275
-268,-283,3,279,-137,-132,726,778,136,-153,-233,-275
-256,-277,-3,273,-131,-132,702,754,130,-153,-233,-275
-238,-265,-9,261,-119,-132,678,730,124,-153,-233,-275
-226,-259,-15,249,-107,-132,642,700,118,-153,-233,-269
-208,-247,-21,225,-95,-132,618,676,112,-153,-233,-263
-178,-235,-27,207,-83,-132,606,646,100,-159,-233,-257
-166,-229,-33,195,-77,-132,594,610,88,-165,-233,-251
-160,-223,-33,189,-71,-132,564,568,76,-165,-233,-245
-160,-217,-33,183,-71,-132,540,532,64,-165,-227,-245
-154,-211,-33,177,-65,-132,510,490,52,-165,-221,-245
-148,-205,-33,171,-59,-132,474,460,40,-165,-221,-239
-148,-199,-33,171,-59,-132,438,418,28,-165,-215,-233
-148,-199,-33,171,-59,-132,408,376,16,-165,-215,-227
-148,-199,-33,171,-59,-132,372,334,-1,-171,-209,-221
-148,-199,-33,171,-59,-132,354,298,-13,-171,-203,-215
-130,-181,-33,153,-47,-126,342,280,-19,-171,-197,-203
-82,-139,-33,111,-35,-114,330,268,-25,-171,-185,-179
-64,-115,-33,93,-29,-102,312,244,-25,-171,-167,-167
-64,-109,-33,93,-29,-96,294,214,-31,-171,-161,-155
-64,-109,-33,93,-29,-96,270,178,-37,-171,-155,-149
-64,-109,-33,93,-29,-90,246,148,-43,-171,-149,-143
-64,-109,-33,93,-29,-84,222,118,-49,-165,-143,-131
-64,-109,-27,93,-29,-78,210,88,-55,-159,-137,-125
-70,-109,-27,99,-29,-78,192,70,-61,-153,-131,-119
-70,-109,-21,99,-29,-78,180,58,-61,-147,-119,-107
-70,-109,-15,99,-29,-72,174,46,-67,-147,-107,-101
-76,-109,-15,99,-35,-72,168,34,-67,-147,-101,-95
-88,-109,-9,99,-41,-72,156,22,-67,-141,-95,-89
-88,-97,-3,99,-41,-66,150,10,-67,-141,-89,-83
-88,-85,3,93,-47,-54,144,-2,-67,-135,-83,-77
-88,-73,8,87,-47,-42,138,-13,-67,-129,-83,-71
-82,-61,14,75,-47,-30,138,-25,-67,-123,-77,-65
-76,-49,20,63,-47,-18,132,-31,-67,-117,-65,-59
-76,-49,26,63,-47,-18,126,-43,-67,-111,-59,-59
-76,-49,26,63,-47,-18,114,-55,-67,-105,-59,-59
-76,-49,32,63,-53,-18,108,-61,-67,-105,-59,-59
-82,-49,38,63,-59,-18,102,-67,-67,-105,-59,-53
-82,-43,44,63,-59,-12,102,-67,-67,-105,-53,-47
-82,-31,50,57,-59,-1,96,-67,-67,-99,-47,-41
-82,-25,50,57,-59,5,96,-67,-67,-93,-47,-41
-82,-25,50,57,-59,5,96,-73,-67,-93,-47,-41
-82,-25,50,57,-59,5,96,-79,-67,-93,-47,-41
-82,-25,50,57,-59,5,96,-85,-67,-93,-47,-41
-82,-25,50,57,-59,5,96,-85,-67,-93,-47,-41
-82,-25,50,57,-59,5,96,-85,-73,-93,-47,-41
-82,-25,50,57,-65,5,96,-85,-73,-93,-47,-41
-82,-25,50,57,-65,5,90,-85,-73,-93,-47,-41
-82,-25,50,57,-65,5,90,-85,-73,-93,-41,-41
-82,-25,50,57,-65,5,84,-85,-73,-93,-41,-41
-82,-25,50,57,-65,5,84,-85,-73,-93,-41,-35
-82,-25,50,57,-65,5,84,-85,-73,-87,-41,-35
-88,-31,50,63,-65,5,78,-91,-73,-87,-41,-35
-94,-37,50,63,-71,5,78,-91,-73,-87,-41,-35
-94,-37,50,63,-71,5,78,-91,-73,-81,-35,-29
-82,-31,50,57,-71,11,78,-91,-73,-75,-29,-23
-76,-25,50,51,-71,11,78,-91,-73,-75,-29,-23
-76,-25,50,51,-71,11,78,-91,-73,-75,-29,-23
-76,-25,50,51,-71,11,78,-91,-73,-75,-29,-23
-76,-25,50,51,-71,11,78,-91,-73,-75,-29,-23
-82,-31,50,57,-71,11,72,-97,-73,-75,-29,-23
-88,-37,50,63,-71,11,72,-97,-73,-75,-29,-23
-94,-37,50,63,-71,11,72,-97,-73,-75,-29,-23
-94,-31,50,57,-71,17,72,-97,-73,-75,-29,-23
-88,-25,50,57,-71,17,72,-97,-73,-75,-29,-23
-88,-25,50,57,-71,17,72,-97,-73,-75,-29,-23
-88,-31,50,57,-71,11,72,-97,-73,-75,-29,-23
-82,-31,50,57,-71,11,72,-97,-73,-75,-29,-23
-70,-19,50,45,-71,17,72,-97,-73,-69,-29,-23
-70,-13,50,39,-71,23,72,-97,-73,-63,-29,-23
-70,-13,50,39,-71,23,72,-97,-73,-63,-29,-23
-82,-25,50,51,-71,23,72,-97,-73,-63,-29,-23
-100,-37,50,63,-71,17,72,-97,-73,-63,-29,-23
-100,-37,50,63,-71,17,72,-97,-73,-63,-29,-23
-88,-31,50,51,-65,17,72,-91,-73,-63,-23,-17
-76,-19,50,39,-65,17,72,-85,-67,-57,-17,-17
-76,-13,50,39,-65,17,72,-79,-67,-57,-17,-17
-76,-13,50,39,-65,17,72,-79,-67,-57,-17,-17
-76,-13,50,39,-65,17,72,-79,-67,-57,-17,-17
-76,-13,50,39,-65,17,72,-73,-67,-57,-17,-17
-76,-13,50,39,-65,17,72,-73,-67,-57,-17,-17
-76,-13,50,39,-65,17,72,-73,-67,-51,-17,-17
-76,-13,50,39,-65,17,72,-73,-61,-51,-17,-17
-76,-13,50,39,-65,17,72,-67,-61,-51,-17,-17
-76,-13,56,39,-65,17,72,-61,-55,-51,-17,-17
-76,-13,56,39,-65,17,72,-61,-55,-51,-17,-17
-76,-13,56,39,-65,17,72,-55,-55,-51,-17,-17
-76,-13,56,39,-65,17,78,-49,-55,-51,-17,-17
-76,-13,56,39,-65,17,78,-49,-55,-51,-17,-17
-76,-13,56,39,-65,17,78,-43,-55,-51,-17,-17
-76,-13,56,39,-65,17,84,-43,-55,-51,-17,-17
-76,-13,56,39,-65,17,84,-43,-55,-51,-17,-17
-76,-13,56,39,-65,17,84,-43,-55,-51,-17,-17
-76,-13,56,39,-65,17,84,-43,-55,-51,-17,-17
-76,-13,56,45,-65,17,84,-43,-55,-51,-17,-17
-76,-13,56,45,-71,17,84,-43,-55,-51,-17,-17
-76,-13,56,45,-71,17,84,-43,-55,-51,-17,-17
-76,-13,62,45,-71,17,84,-43,-55,-51,-17,-17
-82,-13,62,51,-77,17,84,-43,-55,-51,-17,-17
-88,-19,62,57,-77,17,84,-43,-55,-51,-17,-17
-88,-19,62,57,-77,17,84,-43,-55,-51,-17,-17
-88,-19,62,57,-77,17,84,-43,-55,-51,-17,-17
-76,-7,62,45,-77,23,90,-37,-49,-45,-17,-17
-64,4,62,33,-77,29,96,-31,-43,-39,-11,-17
-64,4,62,33,-77,29,96,-31,-43,-39,-11,-17
-64,4,62,33,-77,29,96,-31,-43,-39,-11,-17
-70,-1,62,39,-77,29,96,-31,-43,-39,-11,-17
-76,-7,62,45,-77,29,96,-31,-43,-39,-11,-17
-76,-7,62,45,-77,29,96,-31,-43,-39,-11,-17
-76,-7,62,45,-77,29,102,-31,-43,-39,-11,-17
-76,-13,62,45,-77,29,102,-31,-43,-39,-11,-17
-76,-13,62,45,-77,29,102,-31,-43,-39,-11,-17
-76,-13,62,45,-77,29,102,-31,-43,-39,-11,-17
-76,-13,62,39,-77,29,102,-31,-43,-39,-11,-17
-76,-13,62,39,-77,29,102,-31,-43,-39,-11,-17
-76,-13,62,39,-77,29,102,-31,-43,-39,-11,-17
-76,-7,62,39,-77,29,102,-31,-43,-39,-11,-17
-76,-1,62,33,-77,35,102,-31,-43,-39,-11,-17
-76,-1,62,33,-77,35,102,-31,-43,-39,-11,-17
-76,-1,62,33,-77,35,102,-31,-43,-39,-11,-17
-76,-1,62,33,-77,35,102,-31,-43,-39,-11,-17
-76,-1,62,33,-77,35,102,-31,-43,-39,-11,-17
-82,-1,62,39,-77,35,108,-31,-49,-45,-11,-17
-88,-7,62,45,-77,35,108,-37,-55,-51,-11,-17
-88,-7,62,45,-77,35,108,-43,-55,-51,-11,-17
-88,-7,62,45,-77,35,108,-43,-55,-51,-11,-17
-88,-7,62,45,-77,35,114,-43,-55,-57,-11,-17
-88,-13,62,51,-83,35,114,-43,-61,-63,-17,-17
-94,-13,62,57,-83,35,114,-43,-61,-63,-23,-17
-100,-19,62,63,-83,35,120,-49,-67,-63,-23,-17
-100,-19,62,63,-83,35,120,-55,-73,-63,-23,-17
-100,-19,62,63,-83,35,120,-55,-73,-63,-23,-17
-94,-19,62,57,-83,35,120,-55,-73,-63,-23,-17
-94,-19,62,57,-83,35,120,-55,-73,-63,-23,-17
-94,-19,62,57,-83,35,120,-55,-73,-63,-23,-17
-94,-19,62,57,-83,29,120,-55,-79,-63,-23,-17
-94,-25,62,63,-83,29,120,-55,-85,-63,-23,-17
-94,-25,62,63,-83,29,120,-55,-85,-63,-23,-17
-94,-25,62,63,-83,29,120,-55,-85,-63,-23,-17
-94,-25,68,63,-83,35,120,-55,-85,-63,-23,-17
-94,-25,68,63,-83,35,120,-55,-85,-63,-23,-17
-94,-25,68,63,-83,35,120,-61,-91,-69,-29,-23
-106,-37,68,75,-83,29,120,-73,-97,-81,-41,-35
-112,-43,68,81,-89,23,120,-79,-103,-87,-47,-41
-112,-43,68,81,-89,23,120,-79,-103,-87,-47,-41
-106,-43,68,69,-89,23,126,-79,-103,-87,-47,-41
-106,-43,68,69,-89,23,126,-79,-103,-87,-47,-41
-118,-49,68,81,-95,17,126,-79,-103,-87,-47,-41
-118,-55,68,87,-95,17,126,-79,-103,-87,-47,-41
-112,-55,68,87,-95,17,126,-79,-103,-87,-47,-41
-106,-43,68,81,-95,17,126,-79,-103,-87,-47,-41
-100,-25,68,69,-95,23,126,-79,-103,-87,-47,-35
-94,-13,68,57,-95,23,126,-79,-103,-87,-47,-35
-94,-13,68,57,-95,23,126,-79,-103,-87,-47,-35
-106,-13,68,57,-95,23,126,-79,-103,-87,-47,-35
-112,-13,74,57,-101,23,126,-79,-103,-87,-47,-35
-112,-13,74,57,-101,23,126,-79,-103,-93,-47,-35
-112,-13,74,57,-101,23,126,-79,-103,-93,-47,-35
-118,-25,74,69,-101,23,126,-85,-103,-99,-53,-35
-142,-55,74,99,-107,11,126,-91,-109,-105,-59,-41
-142,-61,74,105,-107,5,120,-97,-115,-111,-59,-41
-136,-61,74,105,-107,5,120,-97,-115,-111,-59,-41
-124,-49,74,87,-101,5,120,-97,-115,-111,-59,-41
-106,-37,74,75,-95,11,126,-97,-115,-105,-59,-41
-100,-31,74,63,-89,17,132,-97,-115,-105,-59,-41
-100,-31,74,63,-89,17,132,-97,-115,-105,-59,-41
-100,-31,74,63,-89,17,132,-97,-115,-99,-59,-41
-100,-31,74,63,-89,17,138,-97,-109,-93,-53,-35
-94,-13,74,51,-89,29,144,-85,-97,-81,-41,-29
-76,22,74,27,-83,41,156,-73,-85,-69,-29,-23
-64,40,74,15,-83,53,162,-61,-73,-63,-23,-23
-52,46,74,3,-83,59,168,-49,-67,-63,-17,-17
-52,46,74,3,-83,59,168,-43,-67,-63,-11,-11
-52,46,74,3,-83,59,168,-43,-67,-63,-11,-11
-52,46,74,3,-83,59,168,-43,-67,-63,-11,-11
-52,46,74,3,-83,59,174,-43,-67,-57,-11,-11
-52,46,74,3,-83,59,186,-37,-61,-51,-5,-11
-52,46,74,3,-83,59,192,-25,-55,-45,-5,-11
-52,46,74,3,-83,59,198,-13,-49,-39,-5,-11
-58,40,80,9,-83,59,198,-7,-43,-33,-5,-11
-64,34,86,15,-83,59,198,-2,-37,-33,1,-5
-70,34,92,15,-83,59,198,-2,-37,-33,6,1
-64,46,98,9,-83,71,198,4,-31,-27,12,6
-22,82,98,-26,-71,83,198,10,-19,-15,24,18
-4,88,92,-38,-59,83,198,10,-13,-9,24,24
1,88,86,-38,-53,83,198,10,-13,-9,24,24
13,88,74,-44,-41,83,192,10,-13,-9,24,24
19,88,62,-44,-29,77,186,10,-13,-9,24,24
19,76,56,-44,-29,71,180,10,-13,-9,24,24
19,64,50,-38,-29,65,174,-2,-13,-9,24,24
19,58,44,-38,-29,59,168,-13,-19,-15,18,24
19,46,38,-32,-29,53,168,-25,-31,-21,12,18
13,34,32,-20,-29,47,162,-55,-43,-33,1,12
-4,22,26,-8,-29,35,156,-85,-73,-51,-5,6
-22,4,26,15,-29,23,144,-115,-97,-63,-17,1
-28,-1,26,21,-29,17,138,-133,-109,-75,-23,-5
-34,-7,26,21,-29,17,132,-139,-115,-81,-29,-11
-34,-7,26,21,-29,17,132,-139,-115,-81,-29,-11
-34,-7,26,21,-29,17,132,-139,-115,-81,-29,-11
-28,-7,26,21,-29,17,132,-139,-115,-81,-29,-11
-28,-7,26,21,-29,17,132,-139,-115,-87,-35,-17
-34,-13,26,21,-29,17,132,-139,-115,-93,-35,-23
-46,-13,26,27,-35,17,138,-139,-115,-93,-35,-23
-58,-19,32,33,-41,17,144,-133,-115,-93,-35,-23
-70,-25,32,45,-47,17,150,-127,-115,-93,-35,-29
-82,-31,32,57,-59,11,156,-121,-115,-93,-41,-35
-94,-37,38,63,-65,11,162,-109,-115,-93,-41,-41
-100,-43,44,69,-71,11,168,-103,-115,-93,-41,-41
-112,-55,44,81,-83,11,168,-103,-115,-93,-47,-41
-124,-67,44,93,-89,5,174,-103,-115,-99,-53,-47
-136,-85,44,105,-89,-6,180,-103,-115,-105,-59,-53
-142,-97,44,117,-89,-12,186,-97,-115,-105,-65,-53
-142,-97,44,117,-89,-18,192,-85,-115,-105,-65,-53
-136,-97,38,117,-89,-18,204,-73,-109,-105,-65,-53
-112,-79,32,93,-77,-18,216,-61,-97,-93,-53,-53
-82,-55,32,63,-65,-18,228,-37,-91,-81,-41,-47
-70,-55,26,57,-53,-18,234,-19,-85,-69,-35,-47
-64,-55,14,57,-41,-18,240,16,-73,-57,-29,-41
-58,-55,3,57,-35,-18,270,58,-43,-39,-17,-35
-52,-55,-3,57,-29,-18,318,100,-19,-27,-11,-29
-46,-55,-9,57,-23,-24,348,130,4,-15,-5,-23
-40,-55,-15,57,-11,-30,360,160,22,-3,6,-11
-28,-49,-27,45,0,-30,366,184,40,20,30,1
1,-37,-33,27,12,-30,372,208,70,56,60,12
43,-7,-45,-14,36,-30,366,238,100,98,84,24
97,22,-57,-62,66,-24,330,262,136,152,126,60
145,64,-63,-104,96,-18,222,268,172,194,168,96
217,106,-69,-170,132,-6,96,268,208,248,210,138
307,184,-81,-248,180,17,-35,268,250,302,270,186
367,244,-87,-314,222,47,-167,256,280,344,312,228
403,280,-93,-338,252,59,-275,226,310,386,348,258
433,310,-99,-362,270,71,-395,196,328,422,384,288
499,364,-105,-422,300,101,-479,178,370,464,432,330
553,430,-105,-482,318,137,-551,166,412,530,480,372
583,466,-105,-518,330,167,-647,148,436,572,522,402
619,520,-105,-572,342,203,-731,100,460,620,576,450
661,610,-93,-632,348,263,-839,40,496,692,648,516
691,694,-51,-692,348,323,-935,-7,532,770,726,576
745,778,-15,-770,360,389,-1007,-37,604,896,822,666
865,880,-9,-878,402,431,-1079,-37,718,1058,960,774
1015,964,-15,-986,498,449,-1151,-31,862,1232,1110,876
1141,1024,-51,-1070,606,455,-1253,-25,958,1400,1242,966
1255,1072,-135,-1154,696,455,-1379,-49,1018,1538,1374,1056
1363,1102,-213,-1226,798,455,-1559,-211,1048,1676,1494,1134
1489,1120,-333,-1298,906,431,-1763,-403,1048,1796,1614,1218
1651,1138,-471,-1394,1062,389,-1937,-571,1048,1922,1734,1326
1825,1162,-615,-1496,1224,329,-2075,-685,1048,2065,1866,1416
1963,1180,-741,-1568,1356,269,-2171,-787,1054,2173,1968,1494
2035,1192,-825,-1610,1434,227,-2237,-913,1054,2263,2034,1554
2076,1198,-849,-1634,1470,209,-2279,-1021,1054,2305,2099,1614
2106,1228,-855,-1664,1488,209,-2297,-1069,1054,2377,2159,1686
2124,1264,-855,-1688,1494,215,-2297,-1087,1054,2419,2207,1728
2124,1270,-849,-1694,1494,215,-2267,-1087,1048,2419,2213,1746
2082,1270,-813,-1682,1452,221,-2171,-1093,994,2335,2177,1734
1891,1234,-711,-1562,1308,233,-2057,-1171,742,1970,1908,1608
1615,1066,-597,-1340,1110,233,-1955,-1477,256,1346,1464,1350
1345,814,-567,-1088,954,191,-1865,-1789,-319,638,942,1032
1129,562,-567,-848,876,35,-1727,-1915,-739,44,468,708
1003,352,-591,-680,846,-102,-1571,-1915,-955,-315,138,462
919,214,-651,-566,834,-222,-1397,-1837,-1009,-465,-29,306
823,88,-681,-446,804,-294,-1241,-1687,-1027,-537,-137,192
691,-25,-687,-326,732,-336,-1085,-1543,-1027,-579,-215,96
577,-61,-669,-260,630,-342,-905,-1381,-1015,-603,-251,36
457,-73,-567,-200,516,-336,-743,-1207,-967,-609,-269,6
331,-79,-435,-146,390,-294,-569,-1033,-853,-597,-269,-11
217,-79,-285,-104,246,-198,-401,-817,-703,-519,-257,-11
121,-73,-165,-62,138,-132,-251,-643,-559,-429,-239,-11
25,-73,-87,-8,60,-102,-125,-517,-481,-375,-221,-17
-40,-79,-45,45,12,-84,-59,-439,-427,-345,-209,-29
-82,-79,-9,75,-29,-66,0,-373,-379,-327,-203,-41
-94,-79,14,87,-47,-54,48,-307,-325,-309,-197,-53
-106,-79,26,99,-59,-48,90,-271,-289,-291,-191,-65
-148,-91,38,123,-83,-48,132,-229,-271,-279,-191,-77
-184,-109,50,147,-113,-48,162,-193,-259,-273,-191,-95
-202,-121,62,159,-125,-48,192,-169,-253,-273,-191,-107
-208,-133,62,171,-131,-48,210,-145,-241,-267,-191,-119
-226,-145,62,183,-143,-48,234,-127,-229,-261,-191,-131
-256,-169,68,201,-155,-48,258,-103,-217,-261,-191,-137
-274,-181,74,219,-167,-48,270,-91,-211,-261,-191,-143
-280,-181,80,225,-173,-48,288,-79,-199,-255,-191,-143
-274,-175,80,225,-173,-42,306,-67,-187,-249,-191,-143
-268,-163,86,219,-173,-36,324,-55,-175,-249,-191,-143
-268,-163,92,219,-173,-36,336,-43,-169,-249,-191,-143
-268,-163,92,219,-173,-36,342,-31,-163,-249,-191,-149
-274,-169,92,219,-173,-36,354,-19,-157,-249,-197,-149
-280,-175,92,225,-179,-36,360,-7,-151,-249,-197,-155
-280,-175,92,225,-179,-36,366,4,-145,-249,-197,-155
-274,-175,92,225,-179,-36,372,16,-139,-243,-197,-155
-268,-169,92,219,-179,-36,378,28,-127,-237,-197,-155
-268,-169,98,219,-179,-36,384,34,-121,-231,-197,-155
-280,-175,98,231,-185,-36,390,40,-121,-231,-197,-155
-292,-187,98,249,-191,-42,390,40,-121,-231,-197,-161
-304,-193,98,261,-197,-42,390,40,-121,-231,-203,-167
-304,-193,104,255,-197,-42,396,46,-121,-231,-203,-167
-292,-169,110,219,-197,-30,408,58,-115,-219,-197,-167
-262,-133,116,189,-191,-18,420,70,-103,-207,-191,-161
-250,-121,116,177,-191,-12,426,82,-97,-201,-191,-161
-250,-121,116,177,-191,-12,432,88,-97,-201,-191,-161
-256,-127,116,189,-191,-12,432,94,-97,-201,-191,-161
-268,-139,116,201,-191,-18,432,100,-97,-201,-191,-161
-280,-151,116,213,-191,-24,438,106,-97,-201,-191,-161
-286,-157,116,225,-191,-24,444,118,-91,-201,-191,-161
-286,-163,116,231,-191,-24,450,130,-85,-201,-191,-161
-286,-169,116,231,-191,-24,456,142,-79,-201,-191,-161
-286,-169,116,225,-191,-24,462,154,-67,-195,-191,-161
-274,-157,116,213,-191,-18,468,166,-61,-189,-185,-161
-274,-151,116,207,-191,-18,474,178,-55,-189,-179,-161
-274,-157,116,213,-191,-24,480,184,-55,-189,-179,-161
-280,-169,116,225,-191,-30,480,190,-55,-189,-179,-161
-280,-169,116,225,-191,-30,486,202,-49,-189,-179,-161
-274,-157,116,219,-191,-24,498,232,-37,-183,-179,-161
-268,-151,116,213,-191,-18,510,250,-25,-177,-179,-161
-268,-157,116,219,-191,-18,516,262,-19,-177,-179,-161
-286,-175,116,231,-197,-30,516,268,-19,-177,-185,-161
-298,-205,116,249,-197,-42,522,274,-19,-177,-185,-167
-310,-217,116,261,-203,-48,522,280,-19,-177,-191,-179
-322,-229,116,273,-209,-54,522,286,-19,-177,-191,-191
-322,-229,116,273,-209,-54,528,304,-13,-177,-191,-191
-316,-217,116,267,-209,-54,540,334,4,-177,-191,-191
-304,-205,116,255,-203,-48,558,364,16,-171,-191,-191
-280,-175,116,231,-197,-36,582,388,28,-165,-191,-191
-238,-133,116,189,-185,-24,606,418,46,-153,-191,-185
-226,-127,116,183,-179,-18,624,448,58,-147,-191,-185
-226,-127,116,183,-179,-18,636,466,64,-147,-191,-185
-232,-139,116,189,-179,-18,648,478,70,-147,-191,-185
-250,-157,116,201,-179,-24,660,484,70,-147,-191,-185
-262,-181,116,213,-179,-36,666,496,70,-153,-191,-191
-268,-187,116,225,-185,-42,672,514,70,-153,-191,-191
-274,-187,116,231,-185,-42,678,544,76,-153,-191,-197
-286,-193,116,243,-185,-42,684,556,76,-153,-197,-203
-304,-205,116,255,-191,-54,696,580,82,-153,-209,-209
-316,-217,110,261,-191,-60,708,610,88,-153,-215,-215
-316,-217,110,261,-191,-60,726,640,100,-153,-221,-215
-310,-211,110,255,-191,-60,750,670,112,-153,-221,-215
-304,-205,110,249,-191,-60,762,688,124,-153,-221,-215
-304,-211,104,249,-191,-60,774,700,130,-153,-221,-221
-316,-229,98,261,-191,-72,780,712,130,-153,-221,-233
-322,-235,98,273,-197,-78,792,730,136,-153,-227,-239
-322,-235,98,273,-197,-78,810,760,142,-153,-227,-239
-310,-229,98,267,-197,-78,822,790,154,-141,-227,-239
-310,-229,92,267,-191,-78,840,808,166,-135,-227,-239
-310,-229,86,267,-191,-78,846,820,172,-135,-233,-245
-310,-229,80,267,-191,-78,858,838,184,-135,-233,-251
-304,-229,80,261,-191,-78,876,862,196,-129,-233,-251
-298,-229,80,261,-185,-78,888,880,208,-123,-233,-251
-292,-229,74,255,-179,-78,906,892,214,-123,-233,-251
-286,-229,68,255,-173,-78,918,904,220,-117,-233,-251
-280,-229,62,255,-167,-78,924,916,220,-117,-233,-251
-280,-229,56,255,-167,-84,924,922,220,-117,-233,-251
-286,-241,50,261,-167,-96,924,922,220,-117,-233,-251
-292,-253,44,267,-167,-108,924,922,220,-117,-239,-251
-298,-259,38,273,-167,-114,918,922,220,-117,-239,-251
-304,-265,38,279,-167,-114,912,922,220,-117,-239,-251
-304,-271,32,285,-167,-114,906,916,220,-117,-245,-257
-298,-271,26,279,-161,-114,894,910,214,-117,-245,-257
-268,-265,20,261,-143,-114,888,904,208,-117,-245,-257
-250,-253,14,249,-131,-114,882,892,208,-117,-245,-257
-244,-247,14,243,-125,-114,870,880,202,-123,-245,-257
-244,-247,8,243,-125,-114,858,856,190,-129,-251,-257
-238,-247,3,243,-119,-114,846,832,178,-135,-251,-257
-232,-241,-3,243,-113,-114,834,814,172,-135,-251,-257
-226,-241,-9,237,-107,-114,816,784,160,-135,-251,-257
-220,-241,-15,237,-101,-120,786,754,148,-141,-251,-257
-220,-247,-21,237,-101,-126,756,718,124,-147,-251,-257
-220,-259,-33,237,-101,-138,726,676,112,-153,-251,-257
-220,-265,-39,237,-95,-150,696,646,100,-153,-251,-257
-208,-265,-45,231,-89,-150,678,616,88,-159,-251,-257
-196,-259,-45,219,-83,-150,660,586,76,-159,-251,-257
-184,-241,-45,207,-77,-150,642,574,70,-159,-251,-245
-172,-223,-45,189,-71,-144,630,544,70,-159,-251,-239
-160,-211,-45,177,-59,-138,594,514,64,-159,-245,-227
-154,-205,-45,171,-53,-138,558,466,58,-159,-245,-221
-148,-205,-51,171,-47,-138,528,430,46,-159,-245,-209
-142,-205,-51,165,-41,-138,498,394,34,-159,-239,-203
-142,-205,-51,165,-41,-138,468,352,16,-159,-233,-197
-142,-205,-51,165,-41,-138,438,310,4,-159,-221,-191
-142,-205,-51,159,-41,-138,426,280,-7,-159,-215,-185
-136,-193,-51,153,-41,-132,414,250,-19,-159,-209,-179
-124,-175,-51,141,-41,-120,408,232,-25,-159,-203,-167
-112,-157,-51,135,-41,-114,396,202,-31,-159,-197,-161
-112,-157,-51,135,-41,-114,366,172,-43,-159,-191,-155
-112,-157,-51,135,-41,-114,336,136,-49,-159,-191,-149
-112,-151,-45,135,-41,-108,324,112,-55,-159,-185,-143
-112,-139,-39,129,-41,-96,312,100,-61,-159,-173,-131
-100,-115,-33,105,-41,-72,300,88,-61,-153,-155,-119
-70,-85,-27,69,-35,-48,294,76,-61,-141,-137,-95
-64,-73,-21,57,-35,-42,288,64,-61,-135,-125,-83
-64,-67,-15,57,-35,-36,282,46,-61,-129,-113,-77
-64,-67,-9,57,-35,-30,276,28,-61,-129,-107,-71
-64,-67,-3,57,-35,-30,264,10,-61,-129,-101,-65
-64,-61,3,57,-35,-30,252,-2,-61,-129,-101,-59
-64,-55,8,57,-35,-24,246,-7,-61,-123,-95,-53
-64,-49,14,57,-41,-12,240,-13,-61,-117,-89,-47
-70,-49,20,57,-47,-6,234,-25,-61,-117,-89,-47
-76,-49,26,57,-53,-6,222,-37,-61,-117,-83,-47
-82,-49,32,57,-59,-6,216,-49,-61,-111,-83,-47
-88,-49,38,57,-65,-6,210,-61,-67,-111,-83,-47
-100,-55,38,63,-71,-6,204,-67,-73,-111,-83,-47
-100,-55,38,69,-71,-6,204,-73,-73,-111,-77,-47
-100,-55,38,69,-71,-6,204,-73,-73,-105,-71,-47
-100,-49,38,69,-71,-6,204,-73,-73,-105,-71,-47
-94,-43,44,63,-71,-1,204,-73,-73,-105,-65,-41
-94,-37,44,57,-71,-1,204,-79,-73,-99,-65,-41
-94,-31,50,57,-71,-1,204,-79,-73,-99,-65,-41
-94,-31,50,57,-71,5,204,-79,-73,-99,-65,-41
-94,-31,50,57,-71,5,204,-85,-73,-99,-65,-41
-94,-31,50,57,-71,5,198,-91,-73,-99,-65,-41
-94,-31,50,57,-71,5,198,-91,-73,-93,-59,-41
-94,-31,56,57,-71,5,198,-91,-73,-93,-59,-41
-94,-31,62,57,-71,5,198,-97,-73,-93,-59,-41
-94,-31,62,57,-71,5,198,-97,-73,-93,-59,-41
-94,-25,62,57,-71,5,198,-97,-73,-93,-59,-35
-94,-25,62,57,-71,5,192,-97,-73,-93,-53,-29
-94,-25,62,57,-71,5,192,-97,-73,-87,-53,-29
-94,-25,62,57,-71,5,192,-97,-73,-87,-53,-29
-88,-25,62,57,-71,5,192,-97,-73,-81,-47,-23
-88,-25,62,57,-71,5,192,-97,-73,-81,-47,-23
-88,-31,62,63,-71,5,192,-97,-73,-81,-47,-23
-88,-31,62,63,-71,5,192,-97,-73,-81,-47,-23
-88,-31,62,63,-71,5,192,-97,-73,-75,-47,-23
-88,-25,62,57,-71,5,192,-97,-73,-69,-47,-23
-88,-25,62,51,-71,11,192,-97,-73,-69,-41,-23
-88,-25,62,45,-71,11,192,-97,-73,-63,-41,-23
-82,-19,62,39,-71,11,192,-97,-73,-63,-35,-17
-76,-19,62,39,-71,11,192,-97,-73,-63,-35,-11
-76,-19,62,39,-71,11,192,-97,-73,-63,-35,-11
-76,-19,62,39,-71,11,192,-97,-73,-63,-35,-11
-76,-19,62,39,-71,11,192,-97,-73,-63,-35,-11
-76,-19,62,39,-71,11,192,-97,-73,-63,-35,-11
-76,-19,62,39,-71,11,192,-91,-73,-57,-35,-11
-76,-13,62,39,-71,17,192,-85,-73,-57,-29,-11
-76,-13,62,39,-71,17,192,-79,-73,-57,-29,-11
-82,-13,62,45,-71,17,192,-79,-73,-57,-29,-11
-88,-25,62,51,-71,11,192,-79,-73,-57,-29,-11
-88,-31,62,57,-71,11,198,-73,-73,-57,-29,-11
-88,-31,62,57,-71,11,204,-73,-73,-57,-29,-11
-88,-31,62,57,-71,11,210,-67,-67,-57,-29,-11
-88,-31,62,57,-71,11,210,-67,-67,-57,-29,-11
-88,-31,62,57,-71,11,210,-67,-67,-51,-29,-11
-88,-31,62,57,-71,11,210,-67,-67,-51,-29,-11
-88,-31,62,57,-71,11,210,-67,-67,-51,-29,-11
-88,-31,62,51,-71,11,210,-67,-67,-51,-29,-11
-88,-25,62,51,-71,11,210,-67,-67,-51,-29,-11
-88,-25,62,51,-71,11,210,-67,-67,-51,-29,-11
-88,-25,62,57,-71,11,210,-67,-67,-51,-29,-11
-88,-25,62,57,-71,11,210,-61,-61,-45,-29,-11
-82,-25,62,57,-71,11,210,-55,-61,-45,-29,-11
-82,-25,62,57,-71,11,210,-49,-61,-45,-29,-11
-82,-25,62,57,-71,11,210,-49,-61,-45,-29,-11
-82,-25,62,57,-71,11,210,-49,-61,-45,-29,-11
-88,-31,62,63,-71,11,210,-49,-61,-45,-29,-11
-94,-31,62,63,-71,11,210,-49,-61,-45,-29,-11
-94,-31,62,63,-71,11,210,-49,-61,-45,-29,-11
-94,-31,62,63,-71,11,210,-49,-61,-45,-29,-11
-94,-31,62,63,-71,11,210,-49,-61,-45,-29,-11
-94,-31,62,63,-71,11,210,-49,-61,-45,-29,-11
-94,-31,62,63,-71,11,210,-43,-61,-45,-29,-11
-94,-31,62,63,-71,11,204,-43,-61,-45,-29,-11
-94,-31,62,63,-71,11,198,-43,-61,-45,-29,-11
-94,-31,62,63,-71,11,192,-43,-61,-45,-29,-11
-88,-25,62,57,-71,11,192,-37,-55,-45,-29,-11
-88,-25,62,57,-71,11,186,-37,-55,-45,-29,-11
-88,-25,62,57,-71,11,180,-37,-55,-45,-29,-11
-88,-25,62,57,-71,11,174,-37,-55,-45,-29,-11
-88,-25,62,57,-71,11,174,-37,-55,-45,-29,-5
-88,-19,62,57,-71,17,174,-37,-55,-45,-29,-5
-88,-13,62,51,-71,23,174,-37,-55,-45,-29,-5
-88,-7,62,51,-71,23,168,-37,-55,-45,-29,-5
-88,-7,62,51,-71,29,162,-37,-55,-45,-29,-5
-88,-1,62,51,-71,29,156,-37,-55,-45,-29,-5
-88,-1,62,51,-71,29,156,-37,-55,-45,-29,-5
-88,-7,62,51,-71,29,150,-37,-55,-45,-29,-5
-88,-13,62,51,-71,29,150,-37,-55,-45,-29,-5
-88,-13,62,51,-71,29,150,-37,-55,-45,-29,-5
-88,-13,62,51,-71,29,144,-37,-55,-45,-29,-5
-94,-13,62,51,-71,29,144,-37,-55,-51,-29,-5
-100,-19,62,57,-77,29,138,-43,-61,-51,-35,-5
-106,-25,62,63,-77,23,138,-49,-61,-51,-41,-5
-106,-25,62,63,-77,23,132,-55,-61,-57,-41,-5
-106,-25,62,63,-77,23,132,-55,-61,-57,-41,-5
-106,-25,62,63,-77,23,132,-55,-61,-57,-41,-5
-106,-25,62,63,-77,23,132,-55,-73,-63,-41,-5
-106,-25,62,63,-77,23,132,-55,-79,-63,-41,-11
-106,-25,62,63,-77,23,132,-55,-79,-63,-41,-11
-100,-25,62,63,-77,23,132,-55,-79,-63,-41,-11
-100,-25,62,63,-77,23,132,-55,-79,-63,-41,-11
-100,-25,62,63,-77,23,126,-61,-79,-69,-47,-11
-106,-31,62,69,-77,23,126,-67,-85,-69,-47,-17
-106,-31,62,69,-77,23,126,-67,-85,-69,-47,-17
-106,-25,62,63,-77,23,126,-67,-85,-69,-47,-17
-106,-25,62,63,-77,23,126,-67,-85,-69,-47,-17
-106,-31,62,63,-77,23,126,-67,-91,-69,-47,-17
-106,-37,62,69,-77,23,126,-73,-91,-69,-47,-17
-112,-37,62,69,-83,23,126,-79,-91,-75,-47,-17
-112,-37,62,69,-89,23,126,-79,-97,-75,-47,-17
-112,-37,62,69,-89,23,126,-79,-97,-75,-47,-17
-112,-37,62,69,-89,23,126,-79,-97,-75,-47,-17
-112,-37,62,69,-89,23,120,-79,-97,-75,-47,-17
-106,-37,62,63,-89,23,114,-85,-97,-75,-47,-17
-106,-37,62,63,-89,23,108,-91,-97,-75,-53,-17
-100,-31,62,63,-83,23,108,-91,-97,-75,-53,-17
-94,-31,62,63,-77,23,108,-91,-97,-75,-53,-17
-94,-31,62,63,-77,23,108,-91,-103,-81,-59,-17
-100,-37,62,69,-77,23,108,-97,-109,-87,-59,-17
-100,-37,62,69,-77,23,108,-97,-109,-93,-65,-17
-100,-37,62,69,-77,23,108,-103,-115,-99,-65,-17
-100,-37,62,69,-77,23,108,-103,-115,-99,-65,-23
-100,-37,62,69,-77,23,108,-103,-115,-99,-65,-23
-112,-49,62,81,-83,17,108,-109,-121,-99,-65,-29
-142,-73,62,111,-89,5,108,-115,-127,-99,-71,-41
-154,-103,62,129,-95,-6,102,-121,-133,-105,-71,-47
-154,-103,62,129,-95,-6,102,-121,-133,-105,-71,-47
-148,-91,62,123,-95,-6,102,-121,-133,-105,-71,-47
-142,-79,62,105,-95,-1,102,-121,-133,-105,-71,-47
-130,-49,62,75,-95,11,102,-121,-133,-105,-71,-41
-118,-31,62,57,-95,23,102,-121,-133,-105,-71,-35
-112,-25,62,51,-95,29,102,-121,-133,-105,-71,-35
-112,-25,62,51,-95,29,102,-121,-133,-105,-71,-35
-112,-25,62,57,-95,29,102,-121,-133,-105,-71,-35
-112,-25,62,57,-95,29,108,-121,-133,-105,-71,-35
-112,-25,62,63,-95,29,108,-121,-133,-105,-71,-35
-112,-25,62,69,-95,29,108,-121,-133,-105,-71,-35
-112,-31,62,69,-95,23,108,-121,-133,-105,-71,-41
-112,-37,62,69,-95,17,108,-121,-133,-105,-71,-41
-112,-37,62,69,-95,17,108,-121,-133,-105,-71,-47
-118,-43,62,75,-95,17,108,-121,-133,-105,-71,-47
-124,-49,62,81,-95,17,108,-121,-133,-105,-71,-47
-130,-55,62,87,-95,17,108,-121,-133,-105,-71,-47
-130,-55,62,87,-95,17,114,-121,-127,-105,-71,-47
-112,-43,62,75,-89,17,120,-115,-115,-105,-65,-41
-100,-31,62,63,-83,17,132,-103,-103,-99,-59,-35
-88,-19,62,57,-77,17,138,-97,-97,-93,-53,-29
-76,-7,62,45,-77,23,150,-91,-91,-87,-47,-23
-70,-1,68,33,-77,35,156,-85,-85,-81,-47,-17
-70,4,68,27,-77,41,162,-85,-79,-75,-47,-17
-70,10,68,27,-77,47,168,-79,-79,-75,-47,-11
-70,16,68,21,-77,47,174,-67,-73,-69,-47,-11
-70,16,74,21,-77,47,186,-55,-67,-63,-41,-5
-70,22,80,21,-77,53,192,-43,-55,-57,-29,1
-70,28,86,21,-77,59,198,-37,-43,-45,-17,6
-70,28,86,21,-77,59,198,-31,-37,-39,-11,12
-70,28,86,21,-77,59,198,-31,-31,-33,-5,18
-64,40,86,15,-77,65,198,-31,-25,-27,-5,18
-46,52,86,3,-71,65,198,-31,-19,-21,1,18
-28,58,86,-8,-59,65,198,-31,-13,-21,1,18
-16,58,74,-20,-47,65,198,-31,-13,-21,1,18
-10,58,68,-20,-35,65,192,-31,-13,-21,1,18
-4,58,62,-20,-29,65,186,-31,-13,-21,1,18
-4,58,56,-20,-29,59,174,-31,-19,-21,1,18
-4,58,56,-20,-29,59,168,-31,-25,-21,1,18
-4,52,50,-20,-29,53,162,-37,-31,-21,1,18
-10,28,38,-8,-29,29,156,-49,-43,-27,-5,12
-28,-13,32,21,-29,11,150,-85,-61,-39,-17,6
-46,-31,32,39,-29,-1,144,-115,-79,-69,-29,1
-58,-37,32,45,-35,-1,138,-127,-91,-81,-35,-5
-58,-43,32,51,-35,-6,132,-139,-103,-93,-41,-5
-58,-43,32,51,-35,-6,132,-139,-109,-93,-47,-5
-52,-37,32,45,-35,-6,132,-139,-109,-93,-47,-5
-52,-37,32,39,-35,-6,132,-139,-109,-93,-47,-5
-52,-37,32,39,-35,-6,132,-139,-109,-93,-53,-11
-52,-37,32,39,-35,-6,132,-139,-115,-93,-53,-11
-52,-37,32,39,-35,-6,132,-139,-115,-99,-53,-17
-52,-37,32,39,-35,-6,132,-139,-115,-99,-53,-17
-64,-37,32,45,-41,-6,138,-133,-115,-99,-53,-23
-76,-49,32,57,-53,-6,144,-127,-115,-99,-53,-29
-106,-73,32,87,-65,-6,156,-121,-115,-99,-59,-35
-124,-91,32,105,-71,-12,168,-115,-115,-105,-65,-41
-124,-97,32,105,-71,-18,180,-103,-115,-105,-71,-47
-124,-97,32,105,-71,-18,186,-91,-115,-105,-71,-47
-124,-91,32,99,-71,-18,186,-85,-109,-105,-77,-47
-112,-79,32,87,-71,-18,186,-79,-103,-105,-77,-47
-100,-67,32,75,-65,-18,186,-73,-97,-105,-77,-47
-88,-61,32,63,-59,-18,192,-67,-91,-105,-77,-47
-82,-61,26,63,-59,-18,198,-67,-91,-105,-77,-47
-82,-67,26,63,-59,-24,198,-61,-91,-99,-77,-47
-82,-67,20,63,-53,-24,204,-49,-91,-93,-71,-47
-82,-73,14,63,-47,-24,216,-31,-79,-81,-59,-47
-82,-73,14,63,-47,-24,234,4,-61,-69,-53,-47
-82,-73,8,63,-47,-24,264,34,-43,-57,-47,-47
-76,-73,3,63,-41,-30,300,76,-31,-51,-41,-47
-76,-79,-3,69,-41,-42,330,106,-19,-45,-41,-47
-76,-85,-15,75,-41,-54,348,118,-7,-39,-35,-47
-64,-79,-21,63,-29,-54,372,148,22,-3,-5,-35
25,-19,-21,-14,6,-42,384,190,76,62,42,1
79,22,-27,-56,42,-30,384,226,118,116,78,36
97,28,-39,-68,72,-30,360,244,142,146,102,66
103,28,-51,-68,78,-30,264,250,172,176,126,90
115,34,-63,-80,90,-24,138,250,202,218,162,120
181,88,-69,-128,114,-6,0,244,238,272,222,162
271,178,-69,-218,156,23,-125,232,280,326,288,204
319,220,-69,-272,192,41,-245,202,310,368,330,240
361,256,-75,-308,216,53,-347,184,340,410,372,270
427,322,-75,-380,240,83,-455,160,376,464,420,312
493,406,-75,-452,264,125,-515,148,418,536,474,354
565,496,-69,-524,288,197,-569,142,484,632,552,420
607,574,-57,-590,306,263,-665,130,538,710,624,504
625,616,-27,-620,312,317,-761,76,580,788,714,564
637,682,14,-650,312,359,-851,10,622,860,780,630
667,766,50,-710,312,419,-941,-25,700,986,888,714
775,874,62,-818,336,467,-1025,-31,826,1160,1044,810
919,952,56,-938,420,479,-1121,-31,946,1370,1200,924
1033,1000,20,-1022,498,485,-1229,-31,1060,1550,1362,1026
1129,1042,-21,-1088,570,485,-1373,-55,1132,1718,1506,1128
1243,1108,-87,-1172,666,485,-1541,-223,1174,1886,1662,1236
1411,1162,-189,-1286,792,485,-1733,-415,1192,2054,1830,1368
1603,1222,-327,-1418,960,479,-1919,-595,1198,2203,1980,1518
1765,1258,-465,-1514,1122,455,-2051,-721,1204,2353,2129,1626
1855,1264,-555,-1550,1212,413,-2141,-859,1210,2460,2225,1698
1879,1264,-603,-1568,1248,383,-2207,-997,1210,2526,2291,1746
1909,1276,-609,-1592,1266,371,-2249,-1111,1198,2574,2345,1788
1939,1312,-609,-1622,1272,371,-2261,-1171,1180,2634,2399,1854
1945,1342,-609,-1634,1272,371,-2261,-1195,1168,2658,2440,1884
1933,1342,-591,-1634,1260,371,-2243,-1201,1126,2646,2440,1890
1813,1306,-537,-1562,1164,371,-2141,-1213,994,2460,2309,1866
1585,1174,-441,-1382,1008,371,-2009,-1351,658,1976,1944,1668
1333,994,-375,-1160,852,353,-1895,-1651,94,1238,1428,1368
1081,760,-357,-926,738,263,-1781,-1903,-463,488,870,1014
895,508,-363,-698,678,101,-1649,-1957,-841,-75,390,690
787,310,-423,-536,654,-36,-1475,-1945,-985,-375,102,450
709,166,-483,-434,642,-150,-1307,-1807,-1009,-489,-47,294
631,46,-525,-332,612,-234,-1139,-1645,-1015,-543,-149,180
541,-31,-531,-254,570,-282,-953,-1465,-1009,-573,-221,84
451,-55,-525,-206,492,-288,-779,-1291,-955,-585,-257,36
349,-67,-441,-152,384,-276,-611,-1099,-877,-585,-269,6
247,-67,-309,-110,270,-216,-449,-907,-745,-549,-269,1
157,-67,-201,-80,180,-138,-281,-721,-619,-471,-257,-5
73,-67,-135,-38,114,-102,-161,-571,-499,-405,-245,-11
13,-67,-93,3,66,-78,-83,-469,-433,-375,-233,-23
-16,-67,-57,33,30,-66,-5,-403,-379,-339,-221,-35
-58,-73,-27,63,-11,-60,42,-349,-337,-321,-215,-47
-88,-85,-15,93,-41,-60,84,-307,-307,-309,-215,-71
-106,-97,-3,105,-53,-60,132,-265,-283,-297,-215,-89
-118,-103,3,111,-65,-60,174,-235,-259,-285,-215,-101
-130,-109,14,117,-77,-60,216,-199,-247,-273,-215,-113
-142,-121,20,123,-83,-60,234,-163,-235,-267,-215,-125
-166,-133,26,147,-95,-60,252,-139,-223,-261,-215,-131
-202,-151,32,177,-107,-60,264,-127,-211,-255,-215,-143
-232,-169,38,207,-119,-60,276,-115,-205,-249,-215,-155
-244,-175,44,219,-131,-60,288,-103,-193,-249,-215,-161
-244,-175,50,219,-137,-60,300,-91,-187,-249,-215,-167
-238,-175,50,207,-137,-60,306,-79,-181,-249,-215,-173
-238,-175,50,207,-137,-60,312,-73,-175,-249,-215,-179
-238,-175,50,207,-137,-60,324,-67,-169,-249,-215,-179
-238,-175,50,207,-137,-60,336,-55,-163,-249,-215,-179
-238,-175,50,207,-137,-60,342,-49,-163,-249,-221,-185
-244,-181,50,213,-143,-60,348,-43,-157,-249,-227,-191
-244,-187,50,213,-143,-60,354,-37,-151,-249,-233,-191
-250,-193,56,219,-149,-60,354,-31,-151,-249,-233,-197
-262,-205,56,231,-155,-60,354,-25,-151,-249,-233,-197
-274,-211,56,237,-161,-60,360,-25,-151,-249,-233,-203
-286,-217,56,249,-167,-66,366,-19,-145,-249,-233,-203
-286,-217,56,255,-173,-66,366,-13,-145,-249,-233,-203
-286,-217,56,255,-173,-66,378,-7,-139,-249,-233,-203
-274,-211,56,243,-173,-66,390,4,-133,-243,-233,-203
-262,-205,56,231,-167,-66,402,16,-127,-243,-233,-203
-262,-205,56,231,-167,-66,408,22,-121,-237,-233,-203
-262,-205,56,231,-167,-66,414,34,-115,-237,-233,-203
-262,-205,56,231,-167,-66,420,46,-109,-237,-233,-203
-256,-199,56,225,-161,-60,420,58,-97,-231,-233,-203
-250,-187,56,213,-155,-54,426,70,-91,-225,-233,-203
-244,-181,56,207,-155,-54,432,76,-85,-219,-233,-203
-244,-175,56,201,-155,-48,426,82,-85,-213,-233,-203
-244,-175,56,201,-155,-48,402,88,-85,-213,-233,-203
-244,-175,56,201,-155,-48,372,94,-85,-213,-233,-203
-244,-175,56,207,-155,-48,354,100,-85,-213,-233,-203
-250,-181,56,213,-155,-48,342,112,-79,-213,-233,-203
-250,-181,56,213,-155,-48,336,124,-67,-213,-233,-203
-250,-181,56,213,-155,-48,336,136,-55,-207,-227,-203
-250,-181,56,213,-155,-48,330,148,-49,-201,-227,-203
-250,-181,56,213,-155,-48,324,154,-43,-201,-227,-203
-250,-181,56,213,-155,-48,318,166,-37,-195,-227,-203
-250,-187,56,213,-155,-48,312,172,-37,-195,-227,-203
-250,-187,56,213,-155,-48,312,184,-31,-195,-227,-203
-250,-187,56,213,-155,-48,312,196,-25,-189,-227,-203
-250,-187,56,213,-155,-48,312,226,-19,-189,-227,-203
-244,-187,56,213,-155,-48,312,250,-13,-189,-227,-203
-238,-181,56,213,-155,-48,312,274,-1,-183,-227,-203
-238,-181,56,213,-155,-48,312,286,4,-183,-227,-209
-238,-181,56,213,-155,-48,318,298,10,-183,-227,-215
-244,-181,56,213,-155,-48,324,310,16,-183,-227,-215
-250,-187,56,219,-155,-54,324,322,22,-183,-233,-221
-250,-199,56,219,-155,-66,324,334,22,-189,-239,-227
-256,-211,50,231,-155,-72,330,352,22,-189,-239,-227
-262,-217,50,231,-155,-78,342,382,28,-189,-239,-227
-262,-211,50,231,-155,-78,354,406,40,-189,-239,-227
-250,-199,50,219,-149,-78,366,436,52,-183,-239,-227
-238,-199,44,213,-143,-78,378,466,58,-177,-239,-227
-238,-199,38,213,-143,-78,390,490,70,-177,-239,-227
-238,-199,38,213,-143,-78,414,514,82,-171,-239,-227
-238,-199,38,213,-143,-78,432,532,94,-165,-239,-227
-238,-199,38,213,-137,-78,450,550,100,-165,-239,-227
-238,-199,32,213,-131,-78,462,574,106,-165,-239,-233
-238,-205,32,213,-131,-78,480,592,112,-165,-245,-233
-238,-205,32,213,-131,-84,498,628,124,-165,-251,-233
-238,-205,32,213,-131,-84,510,658,136,-159,-251,-233
-238,-205,32,213,-131,-90,522,670,142,-159,-251,-239
-238,-211,32,219,-131,-90,528,700,148,-159,-257,-245
-238,-211,32,225,-131,-96,540,718,154,-159,-257,-251
-238,-217,20,231,-131,-102,552,742,160,-153,-257,-257
-238,-229,14,237,-131,-108,558,754,166,-147,-263,-263
-238,-235,8,237,-131,-108,570,766,178,-141,-263,-263
-238,-235,8,237,-131,-108,576,784,190,-141,-263,-263
-232,-235,8,231,-131,-108,582,796,196,-141,-263,-269
-226,-229,8,225,-125,-108,588,814,202,-135,-269,-275
-226,-229,8,225,-125,-108,588,826,208,-135,-269,-281
-226,-235,3,231,-125,-114,588,832,208,-135,-275,-281
-238,-259,-3,255,-125,-126,588,838,208,-135,-281,-287
-256,-295,-15,285,-125,-150,588,844,208,-135,-287,-293
-268,-313,-21,297,-125,-162,588,850,208,-135,-293,-299
-268,-319,-27,297,-125,-168,588,856,208,-135,-293,-299
-268,-319,-33,297,-119,-168,588,856,208,-135,-293,-299
-262,-313,-33,285,-113,-168,588,856,208,-135,-293,-299
-250,-307,-39,273,-101,-168,588,856,208,-135,-293,-299
-244,-307,-39,267,-95,-168,588,856,208,-135,-293,-299
-238,-301,-39,261,-95,-168,588,856,208,-135,-293,-299
-214,-277,-39,249,-83,-168,588,850,208,-135,-293,-299
-190,-265,-45,237,-71,-168,588,844,202,-135,-293,-299
-178,-259,-51,225,-65,-168,582,832,196,-135,-293,-299
-166,-247,-57,213,-53,-162,570,820,190,-135,-293,-293
-160,-241,-57,201,-47,-156,558,796,184,-135,-293,-293
-160,-241,-57,201,-47,-156,528,766,178,-135,-293,-293
-160,-241,-63,201,-47,-156,504,730,166,-141,-293,-293
-166,-253,-69,207,-47,-162,474,688,148,-147,-293,-293
-178,-283,-75,225,-47,-174,444,646,124,-153,-293,-293
-184,-295,-81,237,-47,-186,414,616,112,-159,-293,-293
-172,-283,-87,231,-41,-186,408,598,106,-159,-293,-287
-118,-217,-87,171,-29,-168,402,586,106,-159,-287,-269
-100,-199,-87,153,-17,-162,372,556,100,-159,-281,-263
-100,-199,-87,153,-17,-162,330,514,82,-159,-281,-263
-100,-199,-87,153,-17,-162,300,472,64,-159,-281,-257
-88,-193,-87,141,-6,-156,288,442,58,-159,-275,-239
-82,-181,-87,129,0,-150,276,406,52,-159,-263,-227
-82,-181,-87,129,0,-150,246,364,46,-159,-257,-221
-88,-181,-87,135,0,-150,216,322,28,-159,-251,-215
-88,-181,-87,135,0,-150,192,292,16,-159,-251,-209
-82,-175,-87,129,0,-144,174,268,4,-159,-239,-203
-52,-145,-87,99,6,-132,162,238,-1,-159,-227,-191
-40,-121,-87,81,12,-114,150,208,-7,-159,-215,-179
-40,-115,-81,75,12,-102,120,178,-13,-159,-209,-173
-40,-115,-75,75,12,-96,90,142,-25,-159,-203,-167
-40,-115,-69,75,12,-90,66,112,-31,-159,-197,-155
-40,-115,-63,75,12,-84,48,88,-37,-159,-191,-143
-46,-115,-57,75,6,-78,30,64,-43,-159,-185,-131
-52,-115,-45,75,0,-72,12,46,-49,-153,-179,-125
-58,-109,-39,75,-6,-72,6,22,-55,-153,-173,-119
-58,-109,-33,81,-6,-72,0,-2,-61,-153,-167,-119
-58,-109,-33,81,-11,-72,-5,-13,-67,-153,-161,-119
-58,-97,-33,81,-11,-66,-11,-31,-67,-147,-155,-113
-46,-67,-27,57,-11,-54,-17,-37,-67,-135,-143,-101
-34,-43,-21,39,-11,-42,-23,-49,-67,-129,-131,-89
-34,-37,-9,39,-17,-30,-35,-61,-67,-123,-125,-83
-40,-37,-3,39,-23,-24,-47,-79,-67,-123,-119,-77
-40,-37,3,39,-23,-24,-59,-91,-67,-117,-119,-71
-40,-37,8,39,-23,-18,-65,-97,-67,-111,-113,-65
-40,-31,14,39,-23,-12,-65,-103,-67,-105,-107,-59
-40,-31,20,39,-23,-6,-65,-109,-67,-105,-101,-59
-40,-31,26,39,-29,-6,-71,-115,-67,-105,-95,-59
-40,-31,26,39,-35,-1,-77,-121,-67,-105,-95,-59
-40,-25,32,39,-35,5,-77,-127,-67,-99,-89,-59
-40,-19,38,33,-35,11,-77,-133,-67,-93,-83,-59
-40,-13,38,27,-35,17,-77,-133,-67,-93,-83,-59
-40,-7,38,21,-35,17,-77,-139,-67,-93,-83,-59
-40,-7,38,21,-35,17,-83,-139,-67,-93,-83,-53
-52,-19,38,33,-41,17,-89,-145,-67,-93,-83,-53
-76,-49,38,63,-53,11,-95,-151,-73,-93,-83,-53
-88,-61,38,81,-59,5,-107,-163,-79,-93,-83,-53
-94,-61,38,81,-59,-1,-113,-169,-85,-93,-83,-53
-94,-61,44,81,-59,-1,-113,-169,-85,-93,-83,-53
-94,-49,50,69,-59,5,-113,-169,-79,-87,-77,-47
-82,-31,50,57,-59,11,-113,-169,-73,-87,-77,-41
-76,-19,50,45,-59,11,-113,-169,-73,-87,-77,-41
-70,-13,50,39,-59,11,-113,-169,-73,-87,-77,-41
-58,-7,50,33,-59,17,-113,-169,-73,-81,-77,-41
-46,4,50,21,-53,23,-113,-169,-73,-75,-71,-35
-34,16,50,9,-47,29,-113,-169,-67,-69,-65,-29
-22,28,50,3,-47,41,-113,-169,-67,-63,-59,-29
-22,28,50,-3,-47,47,-113,-169,-67,-63,-59,-29
-22,28,50,-3,-47,47,-113,-169,-67,-63,-59,-29
-28,16,50,3,-47,47,-113,-169,-67,-63,-59,-29
-34,10,50,9,-47,41,-113,-169,-67,-63,-59,-29
-40,4,50,15,-47,41,-113,-169,-67,-63,-59,-29
-40,4,50,15,-47,41,-113,-169,-67,-63,-59,-29
-40,4,50,15,-47,41,-113,-163,-67,-57,-59,-29
-34,10,50,9,-47,41,-113,-163,-61,-51,-53,-29
-28,10,50,9,-47,41,-113,-163,-61,-45,-53,-29
-28,10,50,9,-47,41,-113,-163,-61,-45,-53,-29
-28,10,50,9,-47,41,-113,-163,-61,-45,-53,-29
-34,10,50,9,-47,41,-113,-157,-55,-45,-53,-29
-40,10,50,15,-47,41,-113,-157,-55,-45,-53,-29
-40,10,50,15,-47,41,-113,-151,-55,-45,-53,-29
-40,10,50,15,-47,41,-113,-145,-55,-45,-53,-29
-40,10,50,15,-47,41,-113,-139,-49,-45,-53,-29
-40,10,50,15,-47,41,-113,-139,-49,-45,-53,-29
-40,10,50,15,-47,41,-113,-139,-49,-45,-53,-29
-40,16,50,9,-47,41,-113,-133,-43,-39,-47,-29
-40,16,50,3,-47,41,-113,-127,-37,-39,-47,-23
-40,16,50,3,-47,41,-113,-127,-37,-39,-47,-23
-40,16,50,9,-47,41,-113,-127,-37,-39,-47,-23
-40,16,50,9,-47,41,-113,-127,-37,-39,-47,-23
-40,16,50,9,-47,41,-113,-127,-31,-39,-47,-23
-40,16,50,15,-47,41,-113,-127,-31,-39,-47,-23
-46,10,50,21,-47,35,-113,-127,-31,-39,-47,-23
-52,4,50,27,-47,29,-113,-127,-31,-39,-47,-23
-52,4,50,27,-47,29,-107,-121,-25,-39,-47,-23
-46,4,50,27,-47,29,-107,-115,-25,-33,-47,-23
-46,-1,50,27,-47,29,-107,-115,-25,-33,-47,-23
-58,-25,50,39,-47,23,-107,-115,-25,-33,-47,-23
-70,-31,50,45,-53,23,-107,-115,-25,-33,-47,-23
-70,-31,50,45,-53,23,-101,-109,-25,-33,-47,-23
-64,-19,50,39,-53,29,-95,-103,-19,-33,-41,-23
-58,-1,50,27,-53,29,-89,-97,-13,-33,-41,-23
-52,10,50,21,-53,35,-89,-97,-13,-33,-41,-23
-46,16,50,15,-53,35,-89,-97,-13,-33,-41,-23
-46,16,50,15,-53,35,-89,-97,-13,-33,-41,-23
-46,16,50,15,-53,35,-89,-97,-13,-33,-41,-23
-46,16,50,15,-53,35,-89,-91,-13,-33,-41,-23
-46,16,50,15,-53,35,-89,-91,-13,-33,-41,-23
-46,16,50,15,-53,35,-89,-91,-13,-33,-41,-23
-46,16,50,15,-53,35,-89,-91,-13,-33,-41,-23
-46,16,50,15,-53,35,-83,-91,-13,-33,-41,-23
-46,10,56,21,-53,35,-83,-91,-13,-33,-41,-23
-52,4,56,27,-53,35,-83,-91,-13,-33,-41,-23
-58,-1,56,33,-53,35,-83,-91,-13,-33,-41,-23
-64,-7,56,39,-53,35,-83,-91,-13,-33,-41,-23
-70,-13,56,39,-53,35,-83,-91,-13,-33,-41,-23
-70,-13,56,39,-53,35,-83,-91,-13,-33,-41,-23
-58,10,56,21,-53,41,-77,-91,-13,-33,-41,-23
-28,22,56,-3,-53,47,-77,-85,-13,-33,-41,-23
-28,22,56,-3,-53,47,-77,-85,-13,-33,-41,-23
-28,22,56,3,-53,47,-77,-85,-13,-33,-41,-23
-34,10,56,15,-53,41,-77,-85,-13,-33,-41,-23
-40,4,56,21,-53,41,-77,-85,-13,-39,-41,-23
-40,4,56,21,-53,41,-77,-85,-13,-39,-41,-23
-46,4,56,21,-53,41,-77,-85,-13,-39,-41,-23
-52,4,56,21,-53,41,-77,-85,-13,-39,-41,-23
-52,4,56,21,-53,41,-77,-85,-13,-39,-41,-23
-52,4,56,21,-53,41,-77,-85,-19,-45,-47,-23
-58,-1,56,27,-53,41,-77,-91,-25,-51,-53,-23
-58,-1,56,27,-53,41,-83,-91,-31,-51,-53,-23
-58,-1,56,27,-53,41,-83,-91,-31,-51,-53,-23
-58,-1,62,27,-53,41,-83,-91,-31,-57,-53,-23
-58,-1,62,27,-59,41,-83,-97,-37,-57,-53,-23
-58,-1,62,27,-59,41,-83,-103,-37,-57,-53,-23
-58,-1,62,27,-59,41,-83,-103,-37,-63,-59,-23
-58,-1,62,27,-59,41,-83,-103,-37,-63,-59,-23
-58,-1,62,27,-59,41,-83,-103,-37,-63,-59,-23
-58,-1,62,27,-59,41,-83,-109,-43,-63,-59,-23
-64,-13,62,39,-65,35,-89,-115,-49,-63,-59,-29
-76,-25,62,51,-65,29,-95,-121,-55,-69,-59,-35
-82,-31,62,57,-65,23,-101,-121,-55,-69,-59,-35
-82,-31,62,57,-65,23,-101,-121,-55,-69,-59,-35
-82,-31,62,63,-65,23,-101,-121,-55,-69,-59,-41
-82,-31,62,63,-65,23,-107,-121,-61,-69,-59,-41
-82,-31,62,57,-65,23,-107,-121,-61,-69,-59,-41
-82,-31,62,57,-65,23,-107,-121,-61,-69,-59,-41
-82,-31,62,57,-65,23,-113,-121,-67,-75,-65,-41
-82,-31,62,57,-65,23,-113,-121,-67,-75,-65,-41
-70,-13,62,45,-65,23,-113,-121,-67,-75,-65,-41
-52,10,62,21,-65,29,-113,-121,-67,-75,-65,-41
-46,16,62,15,-65,29,-113,-121,-67,-75,-65,-41
-46,16,62,15,-65,29,-113,-121,-73,-81,-65,-41
-58,4,62,27,-65,29,-113,-127,-79,-87,-71,-41
-76,-13,62,51,-65,23,-113,-133,-85,-93,-71,-41
-82,-19,62,57,-65,23,-113,-139,-85,-99,-77,-47
-82,-19,62,57,-65,23,-113,-139,-85,-99,-77,-47
-82,-19,62,57,-65,23,-113,-139,-85,-99,-77,-47
-88,-25,62,57,-71,23,-113,-139,-85,-99,-77,-53
-88,-25,62,57,-77,23,-119,-139,-91,-99,-77,-59
-94,-25,62,57,-83,23,-119,-145,-97,-99,-77,-59
-94,-25,62,57,-83,23,-119,-145,-97,-99,-77,-59
-94,-19,62,51,-83,23,-119,-145,-97,-99,-77,-59
-94,-19,62,51,-83,23,-119,-145,-97,-99,-77,-59
-100,-25,62,63,-83,23,-119,-145,-97,-99,-83,-59
-106,-37,62,75,-83,17,-119,-145,-97,-105,-89,-59
-106,-37,62,75,-83,17,-119,-145,-97,-105,-89,-59
-94,-37,62,69,-77,17,-119,-145,-97,-105,-89,-59
-88,-37,62,63,-77,17,-119,-145,-97,-105,-89,-59
-88,-37,56,63,-77,17,-119,-145,-97,-105,-89,-59
-82,-37,56,57,-77,17,-119,-145,-97,-105,-89,-59
-76,-25,56,45,-71,17,-119,-139,-91,-105,-83,-59
-76,-13,56,39,-71,23,-119,-133,-85,-99,-83,-53
-82,-13,56,39,-71,23,-119,-133,-85,-99,-83,-53
-100,-25,62,51,-77,23,-119,-133,-85,-99,-83,-53
-106,-37,62,63,-77,23,-119,-133,-85,-99,-83,-53
-106,-37,62,63,-77,23,-119,-133,-85,-99,-83,-53
-94,-31,62,57,-77,29,-113,-127,-85,-99,-83,-53
-64,4,62,33,-71,35,-107,-121,-79,-93,-77,-47
-58,16,62,21,-71,41,-101,-115,-73,-93,-77,-41
-58,16,68,21,-71,41,-101,-115,-73,-93,-77,-41
-64,16,74,21,-77,41,-95,-115,-73,-93,-77,-41
-64,16,74,21,-77,41,-89,-103,-67,-87,-77,-41
-58,16,74,21,-77,41,-77,-91,-55,-81,-71,-35
-40,40,80,-3,-71,53,-65,-73,-37,-69,-59,-23
-22,82,86,-32,-65,83,-53,-61,-19,-45,-41,-11
-16,88,92,-38,-65,89,-47,-49,-7,-33,-29,1
-16,94,92,-38,-65,95,-47,-43,-1,-27,-23,6
-10,100,98,-44,-65,101,-47,-43,4,-21,-17,12
1,106,98,-50,-53,101,-47,-37,10,-15,-11,18
7,106,98,-56,-47,101,-47,-31,10,-9,-11,18
7,100,86,-56,-41,95,-47,-31,10,-9,-11,18
7,88,74,-56,-35,77,-53,-31,10,-9,-11,18
7,64,68,-50,-29,65,-65,-37,4,-9,-11,18
7,52,68,-38,-29,53,-77,-49,-1,-9,-11,18
7,46,68,-32,-29,47,-83,-55,-7,-9,-17,18
7,40,62,-26,-29,41,-89,-61,-7,-15,-23,12
7,34,56,-20,-29,35,-89,-67,-13,-21,-29,6
1,28,56,-8,-29,35,-89,-79,-25,-33,-35,-5
-4,22,50,-8,-29,35,-95,-91,-55,-63,-41,-17
-4,22,44,-8,-29,35,-101,-103,-67,-75,-47,-23
-4,22,38,-8,-29,35,-101,-115,-73,-81,-53,-23
-4,22,38,-8,-29,35,-101,-121,-79,-81,-53,-23
-10,16,38,-8,-29,29,-101,-121,-85,-87,-59,-23
-16,4,38,3,-29,17,-107,-121,-85,-93,-65,-23
-28,-7,38,15,-29,11,-113,-127,-91,-93,-65,-29
-28,-13,38,21,-29,5,-119,-127,-97,-93,-71,-29
-28,-13,38,21,-29,5,-119,-127,-97,-93,-71,-29
-28,-13,38,21,-29,5,-119,-121,-97,-93,-71,-29
-34,-13,38,27,-29,5,-113,-115,-97,-93,-71,-29
-46,-19,38,39,-41,5,-107,-115,-97,-93,-77,-35
-58,-25,38,45,-47,5,-95,-109,-97,-93,-77,-35
-64,-25,38,45,-53,5,-77,-97,-97,-93,-83,-35
-64,-25,38,45,-53,5,-65,-85,-91,-93,-83,-35
-64,-25,38,45,-53,5,-53,-73,-85,-93,-89,-41
-64,-31,38,45,-53,5,-41,-67,-85,-93,-95,-47
-70,-37,38,51,-53,-1,-35,-61,-85,-93,-95,-47
-70,-37,38,57,-53,-6,-29,-55,-85,-93,-95,-47
-76,-43,38,63,-53,-6,-23,-55,-85,-93,-95,-47
-82,-55,38,69,-53,-12,-23,-49,-85,-93,-95,-47
-82,-67,32,75,-53,-18,-23,-43,-85,-93,-95,-53
-82,-79,20,81,-53,-30,-23,-31,-79,-93,-95,-53
-82,-85,14,87,-53,-36,-23,-7,-73,-87,-95,-53
-82,-85,8,87,-47,-36,-11,22,-49,-69,-89,-53
-70,-79,8,75,-41,-36,24,70,-19,-45,-77,-47
-58,-73,8,69,-35,-36,66,112,10,-27,-65,-41
-46,-61,3,57,-23,-36,96,148,40,-3,-47,-29
-10,-37,-3,27,-6,-36,108,178,64,26,-17,-17
7,-19,-3,-3,6,-30,120,202,94,56,12,1
31,-7,-9,-14,18,-24,120,232,124,86,48,24
55,4,-15,-38,36,-18,114,250,154,128,84,42
103,40,-27,-74,66,-12,54,268,184,176,126,72
163,88,-33,-128,96,-1,-41,292,226,242,168,120
217,136,-39,-182,126,17,-143,298,274,296,210,162
265,190,-45,-230,150,47,-281,298,310,338,252,204
307,232,-45,-272,168,65,-389,286,340,392,294,234
343,274,-51,-308,192,77,-485,268,370,428,336,264
385,304,-57,-338,210,89,-587,250,394,470,390,294
427,346,-57,-380,234,113,-677,238,436,530,444,342
481,418,-57,-446,252,161,-755,226,478,590,510,396
529,496,-51,-512,270,221,-851,196,514,644,558,438
571,580,-39,-572,282,281,-941,154,556,710,630,498
607,664,3,-644,282,341,-1031,112,598,794,696,564
661,754,44,-704,282,407,-1115,76,670,896,780,630
715,856,86,-788,288,479,-1199,64,754,1034,888,726
793,928,110,-854,312,515,-1265,64,886,1208,1026,822
907,1000,110,-944,384,533,-1349,70,1012,1394,1200,930
1027,1060,86,-1034,474,539,-1463,70,1102,1586,1368,1044
1129,1096,32,-1112,564,539,-1613,-25,1174,1754,1518,1152
1231,1126,-45,-1166,642,539,-1829,-235,1192,1910,1686,1272
1345,1150,-141,-1244,750,533,-2039,-439,1198,2065,1836,1392
1501,1192,-273,-1340,882,509,-2207,-619,1204,2227,1986,1512
1675,1234,-393,-1454,1026,479,-2333,-745,1216,2401,2147,1632
1777,1252,-495,-1514,1134,437,-2405,-859,1228,2526,2255,1716
1819,1258,-537,-1538,1176,395,-2476,-985,1228,2598,2327,1776
1849,1270,-549,-1562,1194,383,-2506,-1069,1228,2664,2393,1842
1867,1294,-549,-1580,1206,383,-2512,-1099,1228,2730,2464,1896
1879,1312,-549,-1592,1212,383,-2512,-1105,1228,2760,2494,1932
1879,1324,-543,-1592,1212,389,-2482,-1105,1216,2754,2494,1938
1819,1324,-495,-1580,1170,401,-2357,-1111,1096,2580,2405,1914
1615,1276,-399,-1436,1008,413,-2231,-1243,760,2095,2046,1734
1363,1078,-339,-1220,846,407,-2135,-1561,178,1346,1512,1434
1141,826,-333,-992,744,293,-2033,-1813,-397,572,942,1080
967,568,-357,-770,702,113,-1889,-1855,-781,3,432,732
829,322,-453,-572,672,-66,-1721,-1849,-973,-345,84,462
739,154,-519,-446,660,-186,-1559,-1741,-1015,-495,-89,288
673,58,-549,-368,648,-252,-1391,-1579,-1021,-549,-179,180
595,-7,-555,-290,612,-282,-1223,-1417,-1021,-579,-233,102
475,-49,-543,-206,522,-288,-1067,-1267,-997,-597,-275,36
361,-67,-459,-146,414,-282,-899,-1111,-925,-597,-287,1
253,-67,-345,-110,306,-240,-743,-919,-793,-573,-287,-11
151,-67,-225,-68,186,-174,-581,-721,-649,-495,-275,-17
73,-67,-141,-26,96,-126,-467,-577,-535,-423,-263,-23
31,-67,-93,-8,54,-96,-371,-475,-469,-387,-257,-35
1,-67,-63,9,24,-84,-293,-397,-403,-357,-251,-47
-22,-67,-33,21,6,-72,-227,-331,-355,-327,-245,-59
-52,-67,-9,45,-11,-66,-185,-283,-319,-309,-245,-71
-94,-73,14,81,-41,-66,-155,-253,-301,-303,-245,-95
-136,-91,20,123,-65,-66,-137,-223,-289,-303,-245,-113
-154,-109,26,141,-77,-66,-107,-193,-277,-297,-245,-125
-160,-115,26,147,-83,-66,-71,-157,-253,-291,-245,-131
-166,-121,26,153,-89,-66,-41,-127,-241,-285,-245,-137
-178,-127,32,153,-101,-66,-17,-97,-229,-285,-245,-143
-178,-127,32,153,-107,-66,6,-79,-217,-279,-245,-149
-178,-127,32,153,-107,-66,18,-67,-205,-273,-245,-155
-184,-133,38,153,-113,-66,36,-49,-187,-267,-245,-155
-190,-139,50,159,-119,-66,48,-37,-169,-261,-245,-155
-196,-139,56,159,-125,-66,60,-25,-163,-255,-245,-161
-196,-139,56,165,-131,-66,66,-19,-157,-255,-245,-167
-196,-139,56,165,-131,-66,72,-13,-151,-255,-245,-173
-202,-139,56,171,-137,-66,84,-7,-151,-255,-245,-173
-214,-151,56,177,-143,-66,90,-2,-145,-255,-245,-179
-226,-157,56,189,-149,-66,96,4,-145,-255,-245,-185
-238,-163,56,201,-155,-66,102,10,-145,-255,-245,-185
-250,-175,56,213,-161,-66,108,16,-145,-255,-245,-191
-262,-187,56,225,-161,-66,108,22,-145,-255,-251,-197
-274,-193,62,231,-167,-72,108,22,-145,-255,-251,-197
-280,-205,62,237,-167,-78,108,28,-145,-255,-251,-203
-280,-211,62,243,-167,-78,108,28,-139,-255,-251,-203
-280,-211,62,243,-167,-78,114,34,-133,-249,-251,-203
-268,-199,62,231,-167,-72,126,46,-127,-243,-251,-203
-238,-169,62,207,-161,-60,138,58,-115,-231,-245,-197
-226,-157,62,195,-161,-48,150,70,-109,-225,-239,-197
-220,-151,62,189,-161,-42,156,88,-103,-219,-239,-197
-220,-151,62,183,-161,-42,162,100,-97,-219,-239,-197
-220,-151,62,183,-161,-42,168,112,-91,-219,-239,-197
-226,-157,62,189,-161,-42,168,118,-91,-219,-239,-197
-226,-157,62,189,-161,-42,168,124,-91,-213,-239,-197
-226,-157,62,189,-161,-42,168,130,-91,-213,-239,-197
-232,-163,62,195,-161,-42,168,136,-91,-213,-239,-197
-244,-193,62,219,-167,-48,168,142,-91,-213,-239,-197
-274,-217,62,249,-173,-60,168,142,-91,-213,-239,-197
-280,-223,62,255,-173,-66,168,148,-85,-213,-239,-197
-268,-205,62,243,-173,-66,180,166,-73,-207,-239,-197
-232,-163,62,195,-161,-54,198,196,-61,-201,-233,-197
-214,-145,62,171,-155,-48,210,220,-55,-195,-233,-197
-214,-145,62,171,-155,-48,216,232,-49,-195,-233,-197
-220,-151,62,177,-155,-48,216,238,-43,-195,-233,-197
-226,-157,62,189,-155,-48,216,244,-37,-195,-233,-197
-238,-169,62,201,-155,-48,216,250,-37,-195,-233,-203
-244,-181,62,213,-155,-54,222,256,-37,-195,-233,-209
-250,-187,62,225,-161,-54,234,268,-31,-195,-233,-215
-256,-193,62,225,-161,-54,246,286,-25,-195,-233,-215
-256,-193,62,225,-161,-54,258,310,-13,-195,-233,-215
-250,-187,62,219,-161,-54,270,346,-1,-195,-233,-215
-244,-181,62,207,-155,-54,288,376,16,-189,-233,-215
-244,-181,62,207,-155,-54,300,394,28,-183,-233,-215
-244,-181,62,207,-155,-60,312,406,34,-183,-233,-215
-244,-181,62,207,-155,-60,324,418,40,-177,-233,-215
-238,-181,62,207,-155,-60,336,442,46,-171,-233,-215
-238,-181,62,207,-155,-60,348,454,52,-165,-233,-215
-238,-181,62,207,-155,-60,372,478,58,-159,-233,-215
-238,-181,62,207,-155,-60,384,502,58,-159,-233,-215
-238,-187,62,213,-155,-60,402,520,64,-159,-239,-221
-238,-187,62,213,-155,-60,414,556,76,-159,-239,-227
-238,-187,62,213,-155,-60,432,586,88,-159,-239,-227
-232,-187,62,207,-149,-60,444,616,100,-153,-239,-227
-232,-187,62,207,-149,-60,456,640,112,-153,-239,-227
-238,-193,62,213,-149,-66,468,652,118,-153,-245,-233
-250,-205,62,225,-149,-72,474,664,118,-153,-251,-239
-256,-211,62,231,-149,-78,486,682,124,-153,-257,-245
-256,-217,62,237,-149,-78,498,706,130,-153,-263,-251
-256,-217,62,237,-149,-78,510,724,136,-147,-263,-257
-262,-217,56,237,-149,-78,522,736,148,-147,-269,-263
-268,-229,56,243,-149,-84,528,766,160,-147,-275,-263
-280,-241,56,255,-155,-90,540,790,166,-141,-275,-263
-280,-247,56,255,-155,-90,552,808,178,-135,-281,-269
-280,-247,50,255,-155,-90,570,826,184,-129,-281,-269
-268,-241,44,249,-149,-90,582,838,190,-129,-281,-269
-256,-229,38,237,-143,-90,588,850,202,-123,-281,-269
-244,-217,38,225,-137,-90,600,868,214,-117,-281,-269
-232,-211,32,219,-131,-90,606,880,220,-117,-281,-269
-226,-211,20,219,-125,-102,612,892,220,-117,-281,-269
-226,-223,14,225,-125,-114,612,892,220,-117,-287,-275
-238,-253,8,243,-125,-120,612,892,220,-117,-287,-281
-256,-283,3,267,-131,-132,612,892,220,-117,-293,-287
-262,-295,-3,273,-131,-138,612,892,220,-117,-299,-293
-256,-289,-3,267,-125,-138,612,892,220,-117,-299,-293
-232,-259,-3,243,-113,-132,612,892,220,-117,-299,-293
-220,-247,-3,231,-107,-132,612,892,220,-117,-299,-293
-214,-247,-9,231,-101,-132,612,886,220,-117,-299,-293
-208,-247,-15,231,-95,-138,606,874,214,-117,-299,-293
-208,-247,-27,231,-89,-144,594,862,208,-117,-299,-293
-208,-247,-33,231,-89,-144,582,850,202,-117,-299,-293
-196,-241,-33,219,-83,-144,564,838,202,-117,-299,-287
-184,-229,-39,207,-71,-144,552,826,196,-117,-293,-281
-178,-229,-45,207,-65,-144,522,790,184,-117,-293,-281
-178,-235,-51,207,-65,-150,486,748,166,-117,-293,-281
-178,-241,-57,207,-65,-156,456,706,148,-117,-293,-281
-172,-241,-63,207,-59,-156,432,688,136,-117,-293,-275
-148,-235,-69,195,-47,-156,420,658,130,-117,-287,-263
-136,-229,-69,183,-35,-156,396,634,124,-117,-281,-257
-124,-223,-69,177,-29,-156,366,604,118,-117,-275,-245
-118,-223,-75,171,-23,-156,336,562,106,-117,-263,-239
-118,-223,-75,171,-23,-156,306,532,94,-123,-257,-233
-118,-223,-75,171,-23,-156,276,502,76,-129,-257,-227
-118,-223,-81,171,-23,-156,252,460,64,-129,-251,-221
-118,-217,-81,171,-17,-156,222,424,46,-129,-251,-215
-118,-217,-81,165,-17,-156,192,382,22,-129,-251,-209
-118,-211,-81,165,-17,-156,162,340,10,-135,-251,-203
-118,-205,-81,165,-17,-156,138,298,-1,-141,-245,-197
-112,-193,-81,159,-17,-150,114,262,-13,-141,-239,-191
-100,-169,-75,135,-17,-138,96,238,-19,-141,-227,-179
-82,-145,-75,117,-11,-120,84,220,-25,-141,-203,-155
-70,-133,-69,105,-11,-108,60,202,-25,-141,-191,-143
-64,-121,-69,99,-11,-102,42,172,-31,-141,-179,-137
-58,-109,-63,93,-11,-96,30,148,-37,-141,-173,-131
-52,-103,-57,81,-11,-84,12,130,-43,-135,-167,-125
-52,-91,-45,69,-11,-78,0,100,-49,-135,-161,-119
-40,-79,-39,57,-11,-66,-11,76,-49,-129,-155,-113
-34,-67,-33,45,-11,-60,-17,58,-49,-123,-149,-107
-34,-61,-27,39,-11,-54,-23,34,-49,-117,-143,-101
-40,-61,-21,39,-11,-54,-35,4,-55,-117,-143,-95
-52,-61,-9,51,-23,-54,-47,-13,-67,-117,-143,-95
-64,-67,-3,57,-29,-48,-53,-25,-73,-117,-143,-95
-64,-67,-3,57,-29,-42,-59,-31,-73,-117,-137,-95
-64,-61,3,57,-29,-36,-65,-37,-73,-117,-125,-89
-64,-55,8,57,-29,-30,-71,-43,-73,-117,-119,-83
-64,-55,8,57,-29,-30,-83,-55,-79,-117,-119,-77
-70,-55,8,63,-35,-30,-95,-67,-85,-117,-119,-77
-76,-55,14,69,-41,-30,-101,-79,-85,-117,-119,-77
-76,-55,20,69,-47,-24,-107,-85,-85,-117,-113,-71
-76,-49,26,63,-47,-18,-113,-91,-85,-117,-107,-65
-76,-43,26,57,-47,-12,-113,-91,-85,-111,-101,-59
-76,-37,32,57,-47,-6,-113,-91,-85,-111,-101,-53
-76,-37,38,57,-53,-1,-113,-97,-85,-111,-101,-47
-76,-37,44,57,-53,-1,-113,-97,-85,-105,-95,-47
-70,-25,44,45,-53,5,-113,-97,-85,-99,-89,-47
-58,4,44,33,-53,17,-113,-97,-85,-93,-83,-41
-46,10,44,27,-53,23,-113,-103,-85,-87,-77,-35
-46,10,44,27,-53,23,-113,-109,-85,-87,-77,-35
-52,4,44,33,-53,23,-113,-109,-85,-87,-77,-35
-58,-1,44,33,-53,23,-113,-115,-85,-87,-77,-35
-58,-7,44,33,-53,23,-113,-121,-85,-87,-77,-35
-58,-13,44,33,-53,23,-119,-127,-85,-87,-77,-35
-58,-19,44,33,-53,17,-125,-127,-85,-87,-77,-35
-64,-25,50,45,-59,11,-125,-127,-91,-87,-77,-35
-82,-37,50,63,-59,5,-131,-133,-97,-87,-77,-35
-82,-43,50,69,-59,5,-137,-133,-97,-87,-77,-35
-82,-43,50,69,-59,5,-137,-133,-97,-87,-77,-35
-82,-37,50,69,-59,5,-137,-133,-97,-87,-77,-35
-82,-37,50,63,-59,5,-137,-133,-97,-87,-77,-35
-76,-25,50,51,-59,5,-137,-133,-97,-81,-71,-35
-58,-13,50,33,-59,11,-137,-133,-97,-75,-65,-29
-40,4,50,21,-53,17,-137,-133,-97,-69,-59,-29
-40,4,50,21,-53,17,-137,-133,-97,-69,-59,-29
-40,4,50,21,-53,17,-137,-133,-97,-69,-59,-29
-40,4,50,21,-53,17,-137,-133,-97,-69,-59,-29
-40,4,50,21,-53,17,-137,-133,-97,-69,-59,-29
-40,4,50,21,-53,17,-137,-133,-97,-69,-59,-29
-40,-1,50,21,-53,17,-137,-133,-97,-69,-59,-29
-52,-7,50,27,-53,17,-137,-133,-97,-69,-59,-29
-58,-7,50,27,-53,17,-137,-133,-97,-69,-59,-29
-58,-7,50,27,-53,17,-137,-133,-97,-69,-59,-29
-58,-7,50,27,-53,17,-137,-133,-97,-69,-59,-29
-58,-7,50,27,-53,17,-137,-127,-97,-69,-59,-29
-58,-7,50,27,-53,17,-137,-127,-97,-69,-59,-29
-58,-7,50,27,-53,17,-137,-127,-97,-69,-59,-29
-58,-7,50,33,-53,17,-137,-127,-97,-69,-59,-29
-58,-7,50,33,-53,17,-137,-121,-91,-63,-53,-29
-58,-7,50,33,-53,17,-131,-115,-91,-57,-53,-29
-58,-7,50,33,-53,17,-125,-109,-85,-57,-53,-29
-58,-1,50,33,-53,17,-119,-109,-79,-51,-47,-29
-58,-1,50,33,-53,17,-119,-109,-73,-51,-47,-29
-58,-1,50,33,-53,17,-119,-109,-73,-51,-47,-29
-58,-1,50,33,-53,17,-119,-109,-73,-51,-47,-29
-58,-1,50,33,-53,23,-113,-103,-67,-51,-47,-29
-58,-1,50,33,-53,23,-107,-103,-67,-51,-47,-29
-58,-1,50,33,-53,23,-101,-103,-67,-51,-47,-29
-58,-1,50,33,-53,23,-101,-103,-67,-45,-47,-29
-58,-1,50,33,-53,23,-101,-103,-67,-45,-47,-29
-58,-1,50,39,-53,23,-101,-103,-67,-45,-47,-29
-64,-13,50,51,-59,23,-101,-103,-67,-45,-47,-29
-76,-25,50,63,-65,17,-101,-103,-67,-45,-47,-29
-82,-31,50,63,-71,17,-101,-103,-67,-45,-47,-29
-82,-25,50,57,-71,17,-101,-97,-67,-45,-47,-29
-76,-13,50,45,-71,17,-101,-85,-61,-45,-47,-29
-76,-13,50,45,-71,17,-101,-85,-61,-45,-47,-29
-76,-19,50,45,-71,17,-101,-85,-61,-45,-47,-29
-82,-25,50,51,-77,17,-101,-85,-61,-45,-47,-29
-88,-31,50,57,-77,17,-101,-85,-61,-45,-47,-29
-88,-31,50,57,-77,17,-95,-85,-61,-45,-47,-29
-88,-31,50,57,-77,17,-89,-85,-61,-45,-41,-29
-88,-31,50,57,-77,17,-89,-85,-55,-45,-41,-23
-82,-25,50,51,-77,17,-83,-85,-55,-45,-41,-23
-70,-19,50,45,-71,17,-83,-85,-55,-45,-41,-23
-64,-13,50,33,-71,23,-77,-79,-55,-45,-41,-17
-64,-7,56,27,-71,29,-71,-73,-55,-45,-41,-17
-64,-7,56,27,-71,29,-71,-73,-55,-45,-41,-17
-64,-7,56,27,-71,29,-71,-73,-55,-45,-41,-17
-64,-7,56,27,-71,29,-71,-73,-55,-45,-41,-17
-64,-7,56,27,-71,29,-71,-73,-55,-45,-41,-17
-64,-7,56,27,-71,29,-71,-73,-55,-45,-41,-17
-70,-13,56,39,-71,29,-71,-73,-55,-45,-41,-17
-94,-49,56,69,-77,17,-71,-73,-55,-51,-41,-23
-106,-67,56,93,-77,5,-77,-73,-61,-57,-41,-29
-106,-67,56,93,-77,-1,-77,-73,-61,-57,-41,-29
-100,-55,56,81,-77,-1,-77,-73,-61,-57,-41,-29
-76,-19,56,51,-71,11,-77,-73,-61,-51,-41,-29
-70,-1,56,39,-71,23,-77,-73,-61,-51,-41,-29
-70,-1,56,39,-71,23,-77,-73,-61,-51,-41,-29
-64,4,56,33,-71,23,-77,-73,-61,-51,-41,-29
-58,10,56,27,-71,29,-77,-73,-61,-51,-41,-29
-58,10,56,27,-71,29,-77,-73,-61,-51,-41,-29
-64,4,56,33,-71,29,-77,-73,-61,-51,-41,-29
-70,4,56,39,-71,29,-77,-79,-61,-57,-41,-29
-70,-1,56,39,-71,29,-77,-85,-61,-57,-41,-29
-76,-7,56,45,-71,29,-83,-85,-61,-57,-47,-29
-76,-13,56,51,-71,29,-83,-85,-67,-57,-47,-29
-76,-13,56,51,-71,23,-83,-85,-73,-63,-47,-35
-82,-13,56,51,-71,23,-83,-85,-79,-69,-47,-35
-94,-25,56,57,-77,23,-83,-91,-85,-75,-53,-35
-100,-37,56,69,-77,23,-83,-97,-85,-75,-53,-35
-106,-43,56,69,-77,23,-83,-103,-91,-75,-53,-35
-106,-43,56,69,-77,23,-83,-103,-91,-75,-53,-35
-100,-37,56,63,-77,23,-83,-103,-91,-75,-53,-35
-88,-31,56,51,-77,23,-83,-103,-91,-75,-53,-35
-88,-31,56,51,-77,23,-83,-103,-91,-75,-53,-35
-88,-31,56,57,-77,17,-83,-103,-91,-75,-53,-35
-94,-37,56,63,-83,11,-83,-103,-91,-75,-53,-35
-94,-37,56,63,-83,11,-83,-109,-91,-75,-53,-35
-88,-31,56,63,-83,11,-83,-109,-91,-75,-53,-35
-76,-19,56,57,-77,17,-83,-109,-91,-75,-53,-35
-76,-13,56,57,-77,17,-83,-109,-91,-75,-53,-35
-76,-13,56,57,-77,17,-83,-109,-91,-75,-53,-35
-76,-13,56,57,-77,17,-83,-115,-91,-75,-53,-35
-76,-13,56,57,-77,17,-83,-115,-97,-81,-53,-35
-76,-13,56,57,-77,17,-83,-115,-97,-87,-53,-35
-76,-13,56,57,-77,17,-83,-115,-97,-87,-53,-35
-76,-13,56,57,-77,23,-83,-115,-97,-87,-53,-35
-76,-13,62,57,-77,23,-83,-115,-97,-87,-53,-35
-82,-13,62,57,-77,23,-83,-115,-103,-93,-59,-35
-88,-19,62,63,-77,23,-83,-115,-109,-99,-65,-35
-94,-19,62,63,-77,23,-83,-115,-115,-99,-65,-35
-94,-19,62,63,-77,23,-83,-115,-115,-99,-65,-35
-94,-19,62,63,-77,23,-83,-115,-115,-99,-65,-35
-94,-19,62,63,-77,23,-83,-115,-115,-99,-65,-35
-94,-25,62,63,-77,23,-83,-121,-115,-99,-71,-35
-94,-25,62,63,-77,23,-83,-121,-115,-99,-71,-35
-88,-19,62,57,-77,23,-83,-121,-115,-99,-71,-35
-88,-19,62,57,-77,23,-83,-121,-115,-99,-71,-35
-88,-19,62,57,-77,23,-83,-121,-115,-99,-71,-35
-94,-25,62,63,-77,23,-83,-121,-115,-99,-71,-35
-94,-31,62,63,-77,23,-83,-121,-115,-99,-71,-35
-94,-31,62,63,-77,23,-83,-121,-115,-99,-71,-35
-100,-37,62,69,-77,23,-89,-127,-121,-99,-71,-35
-100,-43,62,75,-77,23,-89,-133,-121,-99,-71,-41
-100,-43,62,75,-77,23,-89,-133,-121,-99,-71,-41
-106,-43,62,75,-77,23,-89,-133,-121,-99,-71,-47
-106,-43,62,75,-77,23,-89,-133,-121,-99,-71,-47
-100,-37,62,69,-77,23,-89,-133,-121,-99,-71,-47
-100,-37,62,69,-77,23,-89,-133,-121,-99,-71,-47
-112,-43,62,81,-83,17,-89,-127,-121,-99,-71,-47
-124,-49,62,87,-89,11,-89,-127,-121,-99,-71,-47
-124,-43,62,87,-89,11,-89,-121,-115,-99,-71,-47
-100,-13,62,63,-83,23,-77,-109,-103,-93,-65,-41
-82,10,62,39,-77,35,-71,-97,-91,-81,-59,-35
-82,10,62,39,-77,35,-71,-97,-91,-81,-59,-35
-82,4,62,45,-77,35,-65,-97,-91,-81,-59,-35
-82,4,62,45,-77,35,-59,-91,-91,-81,-59,-35
-70,10,62,33,-77,41,-41,-79,-85,-75,-53,-29
-52,40,62,3,-71,53,-23,-61,-73,-69,-41,-17
-40,58,74,-8,-71,65,-17,-49,-61,-57,-29,-5
-40,70,86,-14,-71,71,-17,-43,-49,-45,-23,1
-40,76,98,-20,-71,77,-17,-37,-43,-39,-17,6
-34,88,104,-26,-71,89,-17,-37,-37,-33,-11,12
-22,94,104,-32,-65,89,-17,-37,-31,-27,1,18
-16,94,104,-32,-59,89,-17,-31,-25,-21,6,24
-16,88,98,-32,-53,89,-17,-31,-25,-15,6,24
-16,70,80,-32,-47,77,-23,-31,-25,-15,6,24
-16,52,62,-26,-41,65,-41,-31,-25,-21,6,18
-16,46,50,-26,-35,59,-53,-37,-31,-21,1,12
-4,46,44,-32,-29,59,-59,-37,-31,-21,1,12
13,52,38,-38,-23,59,-65,-37,-31,-21,1,12
13,52,32,-38,-17,53,-65,-43,-37,-27,-5,12
7,40,26,-26,-11,41,-71,-61,-49,-39,-17,6
-4,10,20,-3,-11,17,-77,-85,-73,-57,-29,-5
-16,-1,20,9,-11,11,-77,-97,-85,-69,-35,-11
-16,-1,20,9,-11,11,-77,-109,-97,-75,-35,-11
-16,-1,20,9,-11,11,-77,-115,-109,-81,-35,-11
-16,-1,20,9,-11,11,-77,-121,-115,-81,-35,-11
-16,-1,20,9,-11,11,-77,-121,-115,-81,-35,-11
-16,-1,20,9,-11,11,-77,-121,-115,-87,-35,-11
-16,-1,20,9,-11,11,-77,-121,-115,-87,-41,-11
-16,-1,20,9,-11,11,-77,-121,-115,-87,-47,-17
-28,-7,20,15,-17,5,-77,-121,-115,-87,-53,-23
-40,-13,20,21,-29,5,-71,-121,-115,-87,-59,-23
-46,-13,26,27,-35,5,-59,-121,-115,-87,-59,-29
-52,-13,26,33,-41,5,-47,-109,-115,-87,-59,-29
-64,-25,26,45,-47,5,-35,-97,-115,-87,-59,-35
-76,-43,26,57,-53,5,-29,-91,-115,-93,-65,-41
-106,-73,26,87,-59,-6,-29,-91,-115,-105,-77,-53
-118,-97,26,111,-65,-18,-29,-91,-115,-111,-83,-65
-130,-103,32,117,-71,-24,-29,-85,-115,-117,-89,-71
-130,-97,32,111,-71,-24,-23,-73,-115,-117,-89,-71
-112,-55,32,81,-65,-18,-11,-61,-109,-117,-89,-71
-70,-19,32,39,-53,-6,6,-43,-97,-105,-77,-65
-40,4,32,9,-41,-1,36,-13,-85,-87,-65,-53
-28,10,26,3,-35,-1,48,4,-73,-69,-59,-47
-22,10,14,3,-29,-1,60,28,-61,-57,-53,-41
-22,-1,3,9,-23,-1,72,58,-49,-45,-47,-41
-22,-19,-3,21,-23,-6,90,88,-37,-39,-41,-41
-28,-31,-9,33,-17,-12,132,130,-25,-33,-35,-41
-28,-37,-9,39,-11,-24,162,160,-7,-21,-29,-35
-28,-49,-15,45,-11,-36,174,172,10,-9,-17,-29
-34,-61,-21,51,-11,-54,180,190,34,8,-5,-23
-34,-61,-33,51,-6,-60,186,232,76,56,24,-5
19,-37,-45,9,18,-54,186,280,124,122,66,30
115,46,-51,-80,60,-30,162,310,178,182,132,78
181,118,-57,-146,102,-1,72,328,232,242,180,126
241,160,-63,-200,144,29,-59,334,262,290,222,168
301,208,-69,-248,180,53,-197,334,298,332,270,204
361,262,-69,-308,210,71,-323,328,328,374,312,240
403,292,-75,-344,240,83,-425,316,352,416,348,270
445,328,-81,-374,270,89,-521,292,382,452,390,312
481,370,-87,-434,288,101,-617,280,412,506,432,348
517,412,-87,-470,300,131,-671,268,454,566,486,390
547,454,-87,-500,306,161,-761,244,496,620,534,420
571,502,-87,-530,312,203,-869,190,520,680,588,468
583,562,-69,-572,312,251,-983,136,544,728,648,510
613,628,-33,-614,312,317,-1085,94,580,806,702,570
679,736,3,-704,318,383,-1157,82,658,914,816,654
793,862,32,-818,342,443,-1211,88,784,1076,948,756
907,952,38,-926,408,479,-1271,118,928,1262,1110,870
1033,1030,32,-1028,492,491,-1367,124,1036,1454,1266,972
1141,1066,-15,-1106,576,491,-1511,70,1090,1610,1398,1068
1249,1108,-93,-1184,666,491,-1691,-133,1120,1766,1542,1176
1381,1156,-177,-1268,780,491,-1883,-319,1138,1922,1686,1290
1543,1192,-309,-1352,930,479,-2057,-487,1150,2077,1842,1404
1711,1222,-447,-1454,1080,449,-2189,-625,1168,2245,1986,1506
1855,1246,-567,-1532,1218,407,-2279,-733,1186,2389,2111,1602
1915,1246,-645,-1574,1290,347,-2351,-853,1192,2478,2219,1668
1945,1246,-681,-1580,1320,311,-2405,-955,1192,2538,2267,1710
1957,1246,-693,-1586,1332,293,-2422,-985,1192,2598,2327,1758
1969,1258,-699,-1604,1344,287,-2422,-991,1192,2646,2369,1806
1987,1276,-699,-1628,1350,287,-2393,-985,1192,2664,2387,1836
1987,1288,-687,-1628,1344,293,-2291,-979,1186,2652,2381,1836
1855,1276,-645,-1568,1254,299,-2189,-1003,1018,2365,2177,1782
1615,1102,-573,-1358,1092,293,-2105,-1291,538,1766,1764,1536
1339,868,-537,-1094,942,227,-2039,-1657,-97,974,1218,1212
1135,616,-537,-878,858,83,-1931,-1867,-625,266,684,858
997,388,-561,-692,822,-72,-1769,-1885,-931,-213,264,564
925,220,-627,-578,810,-192,-1601,-1849,-1063,-465,6,366
871,124,-681,-494,804,-282,-1427,-1699,-1087,-555,-119,234
769,16,-699,-380,774,-348,-1271,-1561,-1087,-609,-209,132
589,-97,-699,-242,666,-384,-1109,-1429,-1087,-651,-275,48
439,-139,-639,-152,528,-390,-947,-1279,-1063,-657,-311,6
325,-145,-507,-110,420,-366,-779,-1075,-943,-651,-317,-11
253,-139,-375,-92,312,-264,-605,-865,-775,-567,-305,-17
169,-121,-255,-68,216,-180,-449,-679,-631,-459,-263,-17
85,-115,-177,-26,132,-144,-335,-553,-541,-411,-245,-23
19,-115,-123,9,72,-120,-269,-475,-487,-387,-239,-35
-16,-115,-81,33,36,-96,-203,-397,-433,-357,-233,-47
-40,-109,-45,39,6,-84,-137,-325,-385,-333,-227,-59
-58,-103,-15,51,-17,-72,-83,-271,-337,-309,-221,-65
-88,-103,-3,69,-41,-72,-29,-229,-301,-297,-221,-71
-112,-103,3,81,-53,-66,12,-199,-277,-285,-221,-83
-130,-109,14,105,-65,-66,42,-169,-265,-273,-221,-95
-154,-121,20,129,-77,-66,66,-139,-253,-267,-221,-107
-172,-133,26,147,-89,-66,78,-115,-247,-267,-221,-131
-184,-145,32,159,-101,-66,90,-85,-235,-267,-221,-143
-190,-151,38,165,-113,-66,102,-67,-223,-267,-221,-149
-202,-151,44,171,-119,-66,114,-49,-211,-267,-221,-149
-214,-151,56,177,-131,-66,126,-37,-199,-267,-221,-155
-220,-151,62,183,-143,-66,138,-31,-193,-267,-221,-155
-226,-151,68,189,-149,-66,150,-25,-187,-261,-221,-155
-238,-157,68,195,-155,-66,162,-25,-181,-261,-221,-161
-262,-181,68,213,-161,-66,168,-19,-181,-261,-227,-167
-274,-193,68,225,-167,-66,180,-13,-181,-261,-227,-173
-274,-193,68,225,-167,-66,192,-2,-169,-261,-227,-173
-268,-193,68,225,-167,-66,204,16,-163,-261,-227,-173
-268,-193,68,225,-167,-66,216,28,-157,-261,-227,-179
-268,-187,74,225,-167,-60,228,40,-151,-255,-227,-179
-262,-181,74,219,-167,-54,240,52,-139,-249,-227,-179
-262,-181,74,219,-167,-54,246,58,-133,-249,-227,-179
-262,-181,74,219,-173,-54,246,58,-133,-243,-227,-179
-268,-181,74,219,-173,-54,246,58,-133,-237,-227,-179
-268,-181,74,219,-173,-54,252,64,-133,-231,-227,-179
-262,-175,74,213,-173,-48,258,76,-127,-225,-227,-179
-262,-175,74,213,-173,-48,258,82,-121,-225,-227,-179
-262,-175,74,213,-173,-48,258,88,-121,-219,-227,-179
-268,-181,74,219,-173,-48,258,94,-121,-219,-227,-179
-274,-187,74,225,-173,-48,258,106,-115,-219,-227,-179
-274,-187,74,225,-173,-48,264,118,-109,-219,-227,-179
-268,-175,74,219,-173,-48,276,130,-97,-213,-227,-179
-262,-163,80,213,-173,-42,288,142,-91,-213,-227,-179
-262,-163,80,213,-173,-42,294,148,-85,-213,-227,-179
-262,-163,80,213,-173,-42,300,154,-85,-213,-227,-179
-262,-163,80,213,-173,-42,306,160,-85,-207,-227,-179
-268,-169,86,219,-179,-42,306,166,-85,-207,-227,-179
-274,-181,86,225,-179,-42,312,178,-79,-207,-227,-179
-274,-181,86,225,-179,-42,318,190,-79,-207,-227,-179
-274,-181,86,225,-179,-42,330,214,-73,-207,-227,-179
-274,-181,86,225,-179,-42,336,232,-67,-207,-227,-179
-274,-181,86,225,-179,-42,342,244,-61,-207,-227,-179
-274,-181,86,225,-179,-48,348,256,-55,-207,-227,-179
-274,-181,86,225,-179,-48,354,262,-49,-207,-227,-179
-274,-181,86,225,-179,-48,360,274,-43,-201,-227,-179
-274,-181,86,225,-179,-48,372,286,-37,-195,-227,-179
-280,-181,86,231,-179,-48,384,298,-31,-195,-227,-179
-280,-181,86,231,-179,-48,396,328,-19,-195,-227,-185
-280,-181,86,231,-179,-48,408,340,-13,-195,-227,-185
-274,-181,86,225,-179,-48,420,370,-1,-189,-227,-185
-274,-181,86,225,-179,-48,432,382,4,-189,-227,-191
-274,-187,86,225,-179,-48,444,400,10,-189,-227,-197
-280,-199,86,237,-179,-48,450,418,16,-189,-227,-203
-292,-205,86,249,-185,-48,462,430,22,-189,-227,-203
-292,-211,86,249,-185,-54,474,454,34,-183,-227,-203
-292,-211,86,249,-185,-54,492,484,40,-183,-227,-203
-298,-217,86,255,-185,-60,510,508,46,-183,-227,-209
-304,-217,86,255,-185,-66,528,538,58,-177,-227,-209
-304,-217,86,255,-185,-66,552,562,70,-171,-227,-209
-298,-217,86,255,-185,-66,570,592,82,-165,-227,-209
-292,-217,86,255,-185,-66,582,616,88,-165,-227,-209
-292,-217,86,255,-185,-66,594,628,94,-165,-227,-209
-298,-217,86,255,-185,-66,606,652,106,-159,-227,-215
-304,-217,86,255,-185,-66,618,670,118,-153,-227,-215
-304,-217,86,255,-185,-66,630,700,130,-147,-233,-215
-298,-217,86,255,-185,-66,642,718,136,-147,-233,-215
-298,-217,86,255,-185,-66,648,742,142,-147,-233,-227
-298,-217,86,255,-185,-66,660,754,148,-147,-239,-233
-298,-217,86,255,-185,-66,672,778,154,-147,-239,-239
-304,-217,86,255,-185,-66,684,790,160,-147,-245,-239
-304,-217,86,255,-185,-66,702,814,166,-147,-251,-239
-298,-217,86,255,-185,-66,714,826,172,-147,-251,-239
-298,-217,86,255,-185,-66,726,850,178,-147,-251,-239
-298,-217,86,255,-185,-72,738,862,184,-147,-251,-245
-298,-223,80,255,-185,-78,744,874,184,-147,-257,-251
-298,-223,74,255,-185,-78,750,886,190,-147,-257,-257
-298,-223,68,255,-185,-84,756,898,196,-141,-257,-257
-298,-223,62,255,-185,-84,762,904,196,-135,-257,-257
-298,-229,56,255,-185,-90,762,910,196,-135,-257,-257
-298,-241,50,261,-185,-96,762,910,196,-135,-263,-263
-298,-253,44,273,-185,-108,762,910,196,-135,-269,-263
-298,-259,38,273,-179,-114,762,910,196,-135,-269,-263
-292,-259,32,273,-167,-114,762,910,196,-135,-269,-263
-292,-259,26,273,-161,-120,762,910,196,-135,-269,-263
-286,-259,20,273,-155,-120,756,904,196,-135,-269,-263
-274,-259,14,267,-143,-120,750,898,196,-135,-269,-263
-268,-259,8,261,-137,-120,744,892,196,-135,-269,-263
-262,-259,8,255,-137,-120,732,880,190,-135,-269,-263
-256,-259,3,249,-125,-120,708,862,178,-135,-269,-263
-250,-259,-9,249,-119,-126,696,832,172,-135,-269,-263
-238,-259,-15,243,-107,-126,684,808,160,-135,-269,-263
-226,-253,-21,243,-101,-126,672,790,154,-135,-269,-257
-220,-247,-21,237,-95,-126,660,760,148,-135,-269,-257
-214,-241,-21,225,-89,-126,636,730,142,-135,-269,-251
-196,-235,-27,213,-77,-126,606,700,130,-135,-263,-245
-184,-229,-39,207,-71,-132,582,670,118,-135,-263,-239
-178,-229,-45,207,-65,-132,552,640,100,-135,-263,-233
-172,-229,-45,207,-59,-132,522,610,88,-135,-257,-227
-172,-229,-51,207,-59,-138,486,568,76,-135,-257,-221
-172,-229,-57,207,-59,-138,456,526,58,-141,-257,-215
-166,-229,-57,201,-53,-138,426,484,46,-141,-251,-215
-154,-223,-63,189,-47,-138,414,454,34,-141,-245,-209
-142,-211,-63,177,-41,-138,384,424,22,-141,-239,-197
-130,-199,-63,159,-35,-138,360,388,16,-141,-227,-185
-118,-187,-63,147,-29,-132,324,346,10,-141,-215,-179
-118,-181,-63,141,-29,-132,294,304,-1,-141,-209,-173
-112,-169,-63,135,-29,-126,270,274,-13,-141,-203,-161
-100,-157,-63,123,-29,-120,240,244,-25,-141,-197,-149
-94,-145,-63,117,-29,-108,222,214,-37,-141,-191,-137
-88,-133,-57,111,-29,-102,210,184,-43,-141,-185,-131
-82,-127,-57,111,-29,-96,198,154,-55,-141,-179,-125
-82,-127,-57,111,-29,-90,186,124,-61,-141,-167,-119
-82,-115,-51,105,-29,-84,174,100,-67,-141,-161,-107
-82,-103,-45,99,-29,-78,162,76,-73,-141,-149,-101
-82,-103,-39,99,-29,-78,132,52,-73,-141,-143,-95
-82,-103,-33,99,-29,-78,120,34,-79,-141,-137,-89
-82,-103,-27,93,-29,-72,102,22,-85,-141,-137,-89
-82,-97,-21,87,-29,-60,90,10,-91,-141,-131,-83
-82,-85,-15,75,-29,-48,84,-13,-91,-135,-119,-71
-82,-79,-9,69,-35,-42,78,-25,-91,-135,-113,-65
-82,-73,-3,69,-41,-36,72,-37,-91,-135,-107,-59
-82,-73,3,69,-41,-30,66,-55,-97,-135,-101,-53
-82,-73,8,69,-41,-30,60,-67,-103,-135,-101,-53
-82,-73,14,75,-47,-30,48,-79,-103,-135,-101,-53
-88,-73,20,75,-53,-30,36,-91,-103,-129,-101,-53
-88,-73,20,75,-59,-24,30,-97,-103,-129,-95,-47
-88,-61,20,69,-59,-18,24,-103,-103,-123,-89,-47
-82,-49,20,63,-59,-12,18,-109,-103,-123,-83,-41
-82,-49,26,63,-59,-6,12,-115,-103,-123,-83,-41
-88,-49,32,63,-59,-6,6,-121,-103,-123,-77,-41
-94,-49,38,69,-65,-6,6,-127,-109,-123,-77,-41
-94,-49,38,69,-65,-6,0,-133,-115,-123,-77,-41
-94,-49,44,69,-65,-6,0,-139,-115,-117,-77,-41
-94,-49,44,69,-65,-6,0,-139,-115,-111,-71,-41
-94,-49,44,69,-65,-6,0,-139,-115,-111,-71,-41
-94,-49,44,69,-65,-6,0,-145,-115,-111,-71,-41
-94,-49,44,69,-65,-6,0,-145,-115,-111,-71,-41
-94,-49,44,69,-65,-6,0,-145,-115,-111,-71,-41
-94,-49,44,69,-65,-6,0,-145,-115,-111,-71,-41
-94,-49,44,69,-65,-6,0,-145,-121,-111,-71,-41
-94,-43,44,69,-65,-6,0,-145,-121,-105,-65,-35
-88,-37,44,63,-65,-1,0,-145,-121,-99,-65,-35
-82,-31,44,57,-65,-1,0,-145,-121,-99,-65,-35
-76,-19,44,45,-65,5,0,-145,-121,-99,-59,-35
-70,-13,44,39,-65,11,0,-145,-121,-93,-53,-29
-70,-13,44,39,-65,11,0,-145,-121,-87,-53,-29
-70,-19,44,39,-65,11,0,-145,-121,-87,-53,-29
-70,-19,44,39,-65,11,0,-145,-121,-87,-53,-29
-70,-19,44,39,-65,11,0,-145,-121,-87,-47,-29
-70,-19,44,39,-65,11,0,-145,-121,-87,-47,-29
-70,-19,44,39,-65,11,0,-145,-121,-87,-47,-29
-70,-19,44,39,-65,11,0,-145,-121,-87,-41,-29
-64,-13,44,39,-65,11,0,-145,-121,-81,-41,-29
-52,-1,44,27,-59,17,0,-145,-121,-75,-41,-23
-52,-1,44,21,-59,17,0,-145,-121,-75,-41,-23
-52,-1,44,21,-59,17,0,-145,-121,-75,-41,-23
-52,-7,44,21,-59,17,0,-145,-121,-75,-41,-23
-52,-7,44,21,-59,17,0,-145,-121,-75,-41,-23
-52,-7,44,21,-59,17,0,-145,-121,-75,-41,-23
-52,-7,44,21,-59,17,0,-145,-121,-75,-41,-23
-52,-7,44,21,-59,17,0,-145,-121,-75,-41,-23
-58,-19,44,33,-59,11,0,-145,-121,-75,-41,-23
-82,-43,44,63,-65,-1,0,-145,-121,-75,-41,-23
-94,-55,44,75,-65,-6,0,-145,-121,-75,-41,-23
-94,-55,44,75,-65,-6,0,-145,-121,-75,-41,-23
-94,-49,44,75,-65,-6,6,-139,-121,-75,-41,-23
-94,-43,44,69,-65,-1,12,-139,-121,-75,-41,-23
-94,-43,44,69,-65,-1,12,-133,-115,-69,-41,-23
-94,-43,44,69,-65,-1,18,-133,-115,-69,-41,-23
-94,-43,44,69,-65,5,24,-133,-115,-69,-41,-23
-82,-31,44,57,-65,11,30,-127,-115,-69,-35,-23
-70,-19,44,45,-65,17,36,-127,-109,-63,-35,-23
-70,-19,44,45,-65,17,42,-127,-109,-57,-35,-23
-70,-19,44,45,-65,17,42,-127,-103,-57,-35,-23
-70,-19,44,45,-65,17,48,-121,-103,-57,-35,-23
-70,-19,44,45,-65,17,54,-121,-103,-51,-29,-23
-70,-19,44,45,-65,17,54,-121,-103,-51,-29,-23
-76,-25,44,51,-65,17,54,-121,-103,-51,-29,-23
-82,-25,44,51,-65,17,54,-121,-103,-51,-29,-23
-76,-25,44,51,-65,17,54,-121,-97,-51,-29,-23
-70,-25,44,51,-65,17,54,-115,-97,-51,-29,-23
-70,-25,44,51,-65,17,54,-115,-97,-51,-29,-29
-70,-25,44,51,-65,17,54,-115,-97,-51,-29,-35
-70,-25,44,51,-65,17,54,-115,-97,-51,-29,-35
-70,-25,50,51,-65,17,60,-115,-97,-51,-29,-35
-76,-25,50,51,-65,17,60,-115,-97,-51,-29,-35
-82,-31,50,57,-71,17,60,-115,-97,-51,-29,-41
-88,-31,50,63,-77,17,60,-115,-97,-51,-29,-41
-88,-31,56,63,-77,17,66,-115,-97,-51,-29,-41
-88,-31,56,63,-77,17,66,-109,-97,-51,-29,-41
-88,-31,56,63,-77,17,66,-103,-91,-51,-29,-41
-88,-31,56,63,-77,17,66,-103,-91,-51,-29,-41
-88,-31,56,63,-77,17,66,-103,-91,-51,-29,-41
-88,-25,56,57,-77,17,66,-103,-91,-51,-29,-41
-82,-19,56,51,-77,17,66,-103,-91,-51,-29,-41
-82,-19,56,51,-77,17,66,-103,-91,-51,-29,-41
-94,-25,56,57,-83,17,66,-103,-91,-51,-29,-41
-106,-37,56,69,-89,17,66,-103,-91,-51,-29,-47
-112,-49,56,75,-89,11,66,-103,-91,-57,-29,-47
-112,-55,56,75,-89,11,66,-103,-91,-57,-29,-47
-118,-61,56,81,-89,11,66,-103,-91,-57,-29,-47
-124,-61,56,87,-89,11,66,-103,-91,-57,-29,-53
-124,-61,56,87,-89,11,72,-103,-91,-57,-29,-53
-100,-31,56,63,-83,17,72,-103,-91,-57,-29,-53
-58,4,56,27,-71,23,78,-103,-91,-57,-23,-47
-52,10,56,21,-65,23,78,-103,-91,-57,-23,-47
-52,10,56,21,-65,23,78,-103,-91,-57,-23,-53
-52,4,56,21,-65,23,78,-103,-91,-57,-23,-53
-52,4,56,21,-65,23,78,-103,-91,-57,-23,-53
-52,4,56,21,-65,23,78,-103,-91,-57,-23,-53
-64,4,56,33,-65,23,78,-103,-91,-57,-29,-59
-70,-1,56,45,-65,23,78,-103,-91,-63,-29,-59
-82,-19,56,57,-71,17,78,-103,-97,-69,-35,-59
-106,-43,56,75,-77,11,78,-103,-103,-75,-41,-65
-124,-55,56,87,-83,5,78,-109,-109,-75,-41,-65
-124,-55,62,87,-89,5,84,-109,-109,-75,-41,-65
-106,-37,68,69,-89,11,90,-109,-109,-75,-41,-65
-76,-7,68,39,-83,17,96,-109,-109,-75,-41,-65
-70,-7,68,39,-83,17,96,-109,-109,-75,-41,-65
-70,-7,68,39,-83,17,96,-109,-109,-75,-41,-65
-70,-7,68,39,-83,17,96,-109,-109,-75,-41,-65
-82,-13,68,51,-83,17,96,-109,-109,-75,-41,-65
-100,-37,68,75,-89,17,96,-115,-115,-81,-41,-71
-112,-61,68,87,-89,11,96,-115,-121,-81,-41,-77
-118,-67,68,93,-89,5,96,-115,-127,-87,-41,-77
-118,-67,68,93,-89,5,96,-115,-127,-87,-41,-77
-112,-61,68,87,-89,5,96,-115,-133,-87,-41,-77
-112,-61,68,87,-89,5,96,-121,-139,-87,-47,-77
-112,-55,68,87,-89,5,96,-121,-139,-87,-47,-77
-106,-49,68,81,-89,5,96,-121,-139,-87,-47,-77
-106,-49,68,81,-89,5,96,-121,-139,-87,-47,-77
-106,-49,68,81,-89,5,96,-127,-139,-87,-47,-77
-106,-49,68,75,-89,5,96,-127,-139,-87,-47,-77
-106,-49,68,75,-89,5,96,-127,-139,-87,-47,-77
-106,-49,68,75,-89,5,96,-127,-139,-93,-47,-77
-106,-49,68,75,-89,5,96,-127,-139,-93,-47,-77
-106,-49,68,75,-89,5,96,-127,-139,-93,-47,-77
-106,-49,68,75,-89,5,96,-127,-139,-93,-47,-77
-106,-49,68,75,-89,5,96,-127,-139,-93,-47,-77
-106,-43,68,75,-89,5,96,-133,-139,-93,-47,-77
-106,-37,68,75,-89,5,96,-133,-145,-93,-47,-77
-106,-37,68,75,-89,5,96,-133,-145,-93,-47,-83
-106,-37,68,75,-89,5,96,-139,-145,-93,-47,-83
-112,-37,68,75,-89,5,96,-139,-145,-93,-47,-83
-112,-37,68,75,-89,5,96,-139,-145,-93,-47,-83
-112,-37,68,75,-89,5,96,-139,-145,-99,-47,-83
-112,-37,68,75,-89,5,96,-139,-145,-99,-47,-83
-106,-37,68,69,-89,5,96,-139,-145,-99,-47,-83
-106,-37,68,69,-89,5,96,-139,-145,-99,-47,-83
-106,-37,68,69,-89,5,90,-139,-151,-99,-47,-83
-106,-37,68,69,-89,5,90,-139,-151,-99,-47,-83
-106,-37,68,69,-89,5,90,-139,-151,-99,-47,-83
-106,-37,68,69,-89,5,90,-139,-151,-99,-47,-83
-106,-37,68,69,-89,5,90,-139,-157,-99,-47,-83
-106,-37,68,69,-89,5,90,-139,-157,-99,-47,-83
-106,-37,68,69,-89,5,90,-139,-157,-99,-47,-89
-106,-43,68,69,-89,5,90,-139,-157,-105,-47,-89
-106,-49,68,75,-89,5,90,-139,-157,-105,-47,-89
-112,-55,68,75,-89,5,90,-139,-157,-105,-47,-89
-112,-55,68,75,-89,5,90,-139,-157,-105,-47,-89
-118,-55,68,75,-89,5,90,-139,-157,-105,-47,-89
-118,-55,68,75,-89,5,90,-133,-157,-105,-47,-89
-112,-43,68,69,-89,5,96,-127,-151,-105,-47,-89
-82,-1,68,39,-83,17,108,-115,-139,-99,-41,-83
-52,22,68,21,-71,29,114,-109,-127,-87,-29,-77
-46,28,68,9,-65,35,120,-103,-121,-81,-23,-71
-46,28,68,9,-65,41,126,-97,-115,-75,-17,-65
-46,28,68,9,-65,41,126,-97,-115,-75,-17,-65
-52,22,68,15,-65,41,126,-91,-115,-75,-17,-65
-52,16,68,15,-65,41,126,-85,-109,-69,-17,-65
-52,16,68,15,-65,41,132,-73,-103,-63,-17,-65
-52,22,68,15,-65,47,138,-61,-97,-51,-11,-59
-52,28,74,9,-65,53,138,-55,-85,-45,-5,-59
-52,28,80,9,-65,53,138,-49,-79,-39,1,-53
-52,34,86,9,-65,53,138,-43,-73,-33,6,-47
-46,46,86,-3,-65,59,138,-43,-67,-27,18,-35
-10,70,86,-32,-53,71,138,-37,-61,-15,30,-29
7,76,74,-38,-41,71,138,-31,-55,-15,30,-23
7,70,62,-38,-35,71,138,-31,-55,-15,30,-23
7,64,50,-38,-29,65,132,-31,-55,-15,30,-23
13,64,38,-44,-17,65,120,-31,-55,-15,30,-23
25,64,32,-50,-11,65,114,-37,-55,-15,30,-23
25,64,32,-50,-11,59,108,-43,-61,-15,30,-23
13,40,26,-26,-11,35,102,-55,-79,-27,24,-29
-16,-25,20,15,-11,-1,90,-85,-103,-51,6,-41
-34,-49,14,45,-11,-12,84,-115,-121,-69,-11,-53
-40,-49,14,45,-11,-12,84,-121,-133,-75,-17,-59
-40,-49,14,45,-11,-12,78,-127,-139,-81,-23,-59
-40,-43,14,45,-11,-12,72,-133,-145,-87,-29,-65
-40,-37,14,39,-11,-6,72,-139,-145,-93,-29,-65
-40,-37,14,39,-11,-6,72,-139,-145,-93,-29,-65
-40,-37,14,39,-11,-6,72,-139,-151,-93,-29,-65
-40,-37,14,39,-11,-6,72,-139,-151,-93,-35,-65
-40,-37,14,39,-11,-6,72,-139,-151,-99,-35,-65
-46,-43,14,51,-17,-12,72,-139,-151,-105,-35,-71
-52,-49,14,51,-17,-12,72,-139,-151,-105,-35,-77
-52,-49,14,51,-17,-12,78,-133,-151,-105,-35,-77
-58,-49,14,51,-23,-12,84,-121,-151,-105,-35,-77
-70,-55,14,57,-35,-12,90,-115,-151,-105,-35,-83
-82,-55,20,63,-47,-12,102,-109,-151,-105,-35,-89
-88,-55,20,63,-53,-12,120,-97,-151,-105,-35,-89
-88,-55,20,63,-53,-12,132,-91,-145,-105,-35,-89
-88,-55,20,63,-53,-12,138,-85,-145,-105,-35,-89
-88,-55,20,63,-53,-12,144,-79,-145,-105,-35,-89
-88,-55,20,63,-53,-12,150,-73,-145,-105,-35,-89
-88,-55,20,63,-53,-12,156,-67,-139,-105,-35,-89
-82,-55,20,63,-47,-12,162,-55,-127,-99,-35,-89
-76,-55,14,63,-41,-18,162,-37,-121,-99,-35,-89
-76,-61,8,63,-41,-24,168,-25,-115,-93,-35,-89
-76,-67,-3,63,-41,-24,168,-7,-109,-87,-35,-89
-76,-67,-9,63,-35,-30,180,22,-97,-75,-29,-89
-70,-67,-9,63,-29,-30,222,64,-79,-57,-23,-89
-58,-61,-9,51,-23,-30,270,112,-49,-27,-11,-83
-16,-43,-15,21,-6,-30,300,160,-19,3,6,-71
19,-31,-21,3,18,-30,312,190,10,32,30,-47
37,-19,-33,-14,30,-30,318,220,40,62,60,-29
67,-7,-39,-38,48,-30,318,262,82,98,84,-5
97,22,-45,-62,60,-24,306,292,124,140,126,18
145,64,-57,-110,96,-12,234,304,166,188,168,54
241,142,-69,-188,150,11,126,310,208,248,228,96
307,196,-93,-248,198,23,-11,310,238,308,276,126
349,220,-105,-290,228,35,-155,304,256,344,312,156
385,250,-111,-320,240,41,-269,292,286,380,342,186
439,298,-117,-362,270,53,-371,268,316,428,384,228
499,334,-123,-404,312,65,-479,244,346,470,432,270
535,376,-123,-452,336,89,-563,232,382,512,474,312
571,424,-123,-500,348,131,-647,220,424,566,516,354
619,508,-123,-554,360,179,-749,196,454,614,570,396
667,586,-117,-632,372,233,-851,154,484,680,630,438
709,676,-93,-692,384,299,-935,112,526,752,696,498
751,754,-63,-752,390,347,-1007,94,568,842,780,570
823,844,-33,-824,402,401,-1073,94,664,974,888,642
943,940,-27,-938,456,443,-1127,106,796,1142,1026,750
1063,1006,-27,-1040,534,461,-1199,118,916,1316,1170,858
1165,1036,-69,-1088,618,461,-1331,112,994,1466,1302,948
1249,1048,-147,-1148,714,455,-1517,-25,1024,1598,1428,1032
1363,1060,-249,-1208,810,443,-1727,-223,1042,1730,1548,1122
1483,1078,-363,-1268,924,401,-1913,-391,1048,1856,1668,1212
1639,1108,-495,-1370,1068,359,-2057,-523,1060,2012,1794,1314
1843,1168,-639,-1502,1236,323,-2171,-637,1072,2161,1938,1410
1975,1198,-753,-1586,1362,281,-2243,-745,1084,2287,2040,1482
2047,1216,-801,-1628,1428,251,-2297,-853,1090,2359,2105,1536
2094,1246,-825,-1664,1464,239,-2333,-901,1096,2425,2177,1602
2136,1276,-831,-1706,1488,239,-2333,-919,1108,2502,2243,1656
2154,1282,-837,-1724,1500,239,-2321,-919,1120,2520,2267,1686
2154,1282,-837,-1724,1500,233,-2273,-913,1120,2520,2267,1692
2070,1270,-813,-1676,1458,233,-2183,-913,1060,2395,2195,1686
1843,1156,-741,-1508,1296,233,-2081,-1075,736,1958,1878,1536
1561,958,-675,-1262,1110,197,-2015,-1459,154,1262,1398,1248
1315,718,-657,-1016,996,83,-1943,-1789,-439,530,876,918
1129,460,-663,-794,936,-72,-1805,-1897,-859,-45,408,594
1003,244,-717,-626,900,-228,-1637,-1897,-1075,-399,72,330
895,82,-777,-500,882,-342,-1481,-1831,-1141,-561,-101,180
811,-25,-795,-386,846,-408,-1319,-1693,-1159,-627,-191,84
715,-97,-795,-302,786,-438,-1157,-1555,-1159,-657,-239,18
613,-115,-747,-254,678,-438,-989,-1387,-1135,-669,-275,-17
493,-115,-603,-212,558,-396,-827,-1201,-1045,-669,-281,-35
379,-115,-477,-170,420,-318,-647,-991,-895,-627,-281,-47
247,-115,-339,-104,282,-234,-485,-793,-745,-507,-257,-53
121,-109,-231,-50,162,-174,-347,-631,-619,-435,-227,-59
19,-109,-153,15,84,-132,-245,-517,-535,-393,-215,-71
-40,-109,-93,57,30,-114,-173,-445,-493,-363,-209,-83
-76,-109,-51,75,-6,-102,-119,-379,-451,-339,-203,-95
-94,-109,-21,87,-23,-90,-65,-331,-409,-321,-197,-107
-100,-109,3,93,-35,-78,-11,-289,-367,-309,-197,-113
-106,-103,14,93,-41,-66,36,-235,-337,-297,-191,-119
-106,-97,26,93,-47,-54,78,-193,-307,-285,-185,-125
-118,-97,32,99,-59,-54,108,-157,-289,-273,-185,-137
