,,,,,,,,,,,
2019-09-04 23:16:09,,,,,,,,,,,
,,,,,,,,,,,
I,II,III,aVR,aVL,aVF,V1,V2,V3,V4,V5,V6
-200,-3,197,101,-196,95,235,-20,76,-117,-127,-386
-200,-3,197,101,-196,95,235,-8,76,-117,-133,-386
-206,-3,203,107,-202,101,235,-8,76,-117,-133,-386
-206,3,209,101,-208,107,235,-3,70,-117,-139,-380
-212,3,215,101,-214,107,241,-3,76,-117,-139,-380
-212,9,221,101,-214,113,247,2,76,-117,-139,-380
-212,3,215,101,-214,107,253,2,76,-117,-139,-386
-212,9,221,101,-214,113,265,8,82,-123,-139,-380
-212,9,221,101,-214,113,265,8,82,-117,-139,-374
-212,15,227,95,-220,119,271,8,88,-111,-145,-374
-206,3,209,101,-208,107,277,14,88,-111,-145,-380
-212,3,215,101,-214,107,277,26,94,-105,-145,-374
-212,9,221,101,-214,113,277,26,100,-105,-145,-374
-212,9,221,101,-214,113,283,32,100,-105,-145,-368
-212,15,227,95,-220,119,277,38,106,-105,-139,-368
-212,21,233,95,-220,125,283,44,112,-105,-133,-368
-212,21,233,95,-220,125,283,50,118,-99,-127,-368
-212,15,227,95,-220,119,283,56,118,-93,-121,-368
-206,15,221,95,-214,119,289,62,124,-81,-121,-362
-206,21,227,95,-214,125,289,68,136,-81,-121,-362
-206,27,233,89,-220,131,301,80,142,-75,-121,-362
-206,21,227,95,-214,125,301,86,148,-75,-115,-368
-206,27,233,89,-220,131,301,92,148,-63,-115,-374
-206,33,239,89,-220,137,307,92,154,-63,-109,-386
-206,33,239,89,-220,137,307,104,160,-57,-103,-380
-206,33,239,89,-220,137,307,110,166,-57,-97,-386
-206,39,245,83,-226,143,307,122,172,-57,-91,-398
-206,39,245,83,-226,143,313,128,178,-51,-91,-404
-206,45,251,83,-226,149,319,134,190,-39,-85,-410
-212,45,257,83,-232,149,319,140,196,-39,-85,-422
-212,45,257,83,-232,149,325,152,202,-33,-85,-416
-224,51,275,83,-250,161,325,164,208,-27,-79,-416
-218,51,269,83,-244,161,325,170,220,-27,-79,-422
-224,51,275,83,-250,161,331,170,220,-27,-73,-428
-224,57,281,83,-250,167,337,188,226,-21,-67,-434
-224,63,287,77,-256,173,343,194,232,-15,-67,-440
-224,63,287,77,-256,173,349,206,238,-9,-61,-440
-224,69,293,77,-256,179,355,212,250,-3,-55,-446
-230,75,305,77,-268,191,355,218,262,3,-49,-446
-230,81,311,77,-268,197,361,230,262,3,-49,-452
-230,81,311,77,-268,197,367,236,274,9,-49,-458
-236,87,323,71,-280,203,379,242,280,15,-49,-458
-236,93,329,71,-280,209,385,254,286,20,-49,-458
-242,93,335,77,-286,215,391,266,304,25,-49,-458
-242,93,335,77,-286,215,397,278,310,31,-49,-464
-242,99,341,71,-292,221,397,284,316,37,-43,-470
-248,99,347,71,-298,221,397,296,322,43,-43,-470
-248,105,353,71,-298,227,403,308,328,49,-43,-470
-248,105,353,71,-298,227,409,320,346,61,-43,-476
-254,111,365,71,-310,239,415,326,358,61,-43,-476
-260,123,383,65,-322,251,427,332,370,67,-49,-476
-260,129,389,65,-322,257,433,338,376,67,-49,-476
-266,135,401,65,-334,269,445,350,382,73,-49,-482
-266,141,407,65,-334,275,451,362,388,79,-55,-482
-266,141,407,65,-334,275,457,380,406,91,-49,-476
-266,141,407,65,-334,275,469,392,412,103,-49,-476
-266,147,413,59,-340,281,481,410,424,109,-43,-470
-266,159,425,53,-346,293,493,422,436,115,-43,-464
-272,165,437,53,-352,299,499,440,448,121,-43,-464
-272,177,449,47,-358,311,505,452,466,127,-37,-464
-278,183,461,47,-370,323,517,464,484,139,-37,-458
-278,195,473,41,-376,335,529,482,496,157,-25,-452
-284,201,485,41,-382,341,541,494,502,169,-25,-446
-290,201,491,47,-388,347,559,512,502,175,-25,-440
-290,207,497,41,-394,353,571,524,514,187,-19,-440
-290,213,503,41,-394,359,583,542,520,199,-19,-440
-290,219,509,35,-400,365,595,554,532,217,-19,-434
-296,231,527,29,-412,377,607,572,544,229,-19,-428
-296,237,533,29,-412,383,619,596,550,247,-13,-428
-302,243,545,29,-424,395,631,614,562,259,-7,-428
-302,249,551,29,-424,401,649,632,574,271,-2,-428
-308,255,563,23,-436,407,661,650,598,277,-2,-422
-302,261,563,23,-430,413,673,668,610,289,3,-422
-302,267,569,18,-436,419,685,680,628,301,9,-416
-308,273,581,18,-442,425,697,704,640,319,15,-410
-308,279,587,13,-448,431,709,722,658,343,27,-404
-308,279,587,13,-448,431,721,740,670,361,33,-398
-308,285,593,13,-448,437,739,758,688,379,39,-392
-308,291,599,7,-454,443,751,776,706,391,45,-386
-308,291,599,7,-454,443,757,794,718,403,51,-380
-308,291,599,7,-454,443,769,818,736,415,57,-374
-308,291,599,7,-454,443,769,830,754,427,63,-362
-308,285,593,13,-448,437,781,854,772,439,81,-356
-302,285,587,13,-442,437,787,872,796,451,87,-350
-296,285,581,7,-436,431,805,890,808,463,93,-338
-290,285,575,7,-430,431,811,902,826,481,105,-320
-284,285,569,1,-424,425,811,920,838,499,117,-308
-272,291,563,-11,-418,425,811,932,844,517,123,-290
-260,291,551,-17,-406,419,805,944,862,535,129,-272
-254,297,551,-17,-400,425,799,944,868,547,141,-242
-242,303,545,-29,-394,425,793,956,880,559,147,-224
-230,303,533,-35,-382,419,787,956,886,565,159,-212
-224,291,515,-35,-370,401,781,956,886,571,171,-200
-212,279,491,-35,-352,383,775,956,886,577,183,-188
-200,273,473,-35,-334,371,757,950,892,583,195,-176
-182,267,449,-41,-316,359,739,944,886,601,207,-164
-170,261,431,-41,-298,347,715,926,874,607,213,-152
-158,255,413,-47,-286,335,697,908,862,607,219,-140
-146,255,401,-53,-274,329,667,884,856,607,231,-122
-128,255,383,-65,-256,317,643,860,838,601,237,-110
-116,249,365,-65,-238,305,613,830,820,589,243,-98
-104,237,341,-65,-220,287,589,800,796,577,249,-92
-92,231,323,-71,-208,275,553,764,760,565,249,-86
-80,225,305,-71,-190,263,529,728,724,541,249,-80
-68,213,281,-71,-172,245,493,686,694,523,249,-80
-62,207,269,-71,-166,239,457,644,652,505,249,-68
-56,195,251,-71,-154,221,421,602,616,487,243,-68
-50,189,239,-65,-142,215,391,554,574,463,231,-68
-44,177,221,-65,-130,197,367,512,532,439,219,-68
-32,165,197,-65,-112,179,343,476,496,409,207,-74
-26,153,179,-59,-100,167,325,428,454,379,195,-74
-20,147,167,-65,-94,155,307,386,412,343,183,-80
-15,135,149,-59,-82,143,283,350,370,313,171,-86
-15,129,143,-53,-76,137,259,314,334,277,153,-98
-15,117,131,-47,-70,125,229,278,298,253,135,-110
-15,105,119,-41,-64,113,205,242,262,229,117,-122
-20,93,113,-35,-64,101,187,206,226,199,93,-140
-20,93,113,-35,-64,101,169,170,196,181,75,-152
-20,81,101,-29,-58,89,157,140,172,157,57,-158
-15,69,83,-23,-46,77,145,110,148,133,45,-176
-20,63,83,-23,-52,71,133,80,118,103,33,-194
-26,57,83,-11,-52,71,121,56,88,73,21,-206
-32,51,83,-11,-58,65,115,38,64,43,3,-218
-32,45,77,-5,-52,59,103,20,34,20,-7,-236
-32,39,71,-5,-52,53,91,2,18,-3,-19,-248
-32,33,65,1,-46,47,79,-3,0,-21,-31,-266
-32,27,59,1,-46,41,73,-20,-18,-33,-43,-284
-38,27,65,7,-52,47,73,-32,-36,-45,-55,-296
-44,15,59,13,-52,35,67,-44,-48,-57,-67,-314
-44,9,53,18,-46,29,67,-62,-54,-63,-73,-326
-50,9,59,23,-52,35,61,-74,-60,-75,-79,-338
-50,9,59,23,-52,35,55,-86,-78,-93,-91,-356
-50,9,59,23,-52,35,49,-98,-90,-105,-97,-368
-50,3,53,23,-52,29,43,-104,-108,-117,-109,-380
-56,3,59,23,-58,29,43,-116,-126,-123,-115,-386
-62,-3,59,35,-58,29,43,-122,-132,-135,-127,-386
-62,-3,59,35,-58,29,43,-128,-144,-141,-133,-386
-62,3,65,29,-64,35,37,-128,-156,-147,-139,-392
-56,3,59,23,-58,29,37,-134,-162,-147,-139,-386
-62,9,71,29,-64,41,37,-134,-168,-153,-145,-386
-62,15,77,23,-70,47,37,-134,-168,-147,-145,-380
-62,15,77,23,-70,47,43,-140,-168,-153,-151,-380
-68,9,77,29,-70,41,37,-146,-174,-159,-151,-374
-74,9,83,35,-76,47,31,-146,-180,-165,-157,-374
-74,9,83,35,-76,47,25,-152,-180,-165,-157,-374
-80,9,89,35,-82,47,19,-152,-180,-171,-157,-368
-80,9,89,35,-82,47,19,-152,-180,-171,-163,-368
-80,9,89,35,-82,47,19,-158,-186,-177,-169,-368
-80,9,89,35,-82,47,25,-158,-186,-177,-169,-362
-80,15,95,29,-88,53,25,-158,-192,-177,-169,-362
-80,21,101,29,-88,59,25,-158,-192,-183,-175,-368
-80,21,101,29,-88,59,25,-158,-192,-183,-175,-368
-80,15,95,29,-88,53,25,-158,-186,-177,-175,-368
-80,15,95,29,-88,53,19,-158,-186,-183,-175,-362
-74,15,89,29,-82,53,19,-164,-186,-177,-175,-356
-68,21,89,23,-76,53,13,-164,-192,-177,-169,-350
-68,21,89,23,-76,53,13,-164,-192,-177,-169,-344
-68,21,89,23,-76,53,13,-158,-192,-177,-175,-338
-68,27,95,18,-82,59,13,-158,-192,-177,-175,-338
-68,33,101,18,-82,65,7,-164,-192,-183,-175,-338
-68,33,101,18,-82,65,13,-164,-186,-183,-175,-332
-74,33,107,23,-88,71,13,-164,-192,-183,-175,-326
-74,33,107,23,-88,71,13,-164,-192,-177,-175,-332
-74,33,107,23,-88,71,13,-164,-186,-183,-181,-332
-74,33,107,23,-88,71,7,-164,-186,-183,-181,-326
-68,39,107,13,-88,71,2,-158,-186,-177,-175,-320
-68,45,113,13,-88,77,2,-158,-186,-177,-175,-314
-68,45,113,13,-88,77,2,-158,-186,-177,-181,-302
-68,45,113,13,-88,77,2,-158,-186,-171,-181,-296
-74,51,125,13,-100,89,-3,-158,-186,-171,-175,-296
-68,51,119,7,-94,83,2,-158,-186,-171,-175,-290
-68,57,125,7,-94,89,2,-158,-192,-171,-175,-290
-68,57,125,7,-94,89,2,-158,-192,-171,-175,-284
-74,51,125,13,-100,89,13,-158,-192,-177,-175,-284
-68,57,125,7,-94,89,13,-152,-186,-171,-175,-278
-62,63,125,1,-94,95,13,-158,-192,-177,-169,-272
-62,63,125,1,-94,95,7,-158,-192,-171,-169,-266
-56,69,125,-5,-88,95,2,-158,-192,-177,-169,-260
-56,69,125,-5,-88,95,2,-158,-192,-177,-169,-260
-62,69,131,1,-94,101,2,-164,-198,-183,-175,-254
-62,69,131,1,-94,101,7,-164,-192,-183,-175,-254
-68,63,131,1,-100,95,7,-164,-192,-177,-175,-248
-74,69,143,7,-106,107,2,-170,-198,-183,-175,-248
-74,69,143,7,-106,107,2,-176,-204,-183,-175,-248
-80,75,155,1,-118,113,2,-170,-204,-183,-175,-242
-80,81,161,1,-118,119,7,-164,-198,-183,-175,-242
-80,81,161,1,-118,119,13,-164,-192,-189,-175,-242
-80,87,167,-5,-124,125,13,-164,-186,-189,-175,-242
-80,87,167,-5,-124,125,13,-164,-186,-189,-181,-236
-80,81,161,1,-118,119,13,-164,-186,-195,-181,-230
-80,75,155,1,-118,113,13,-164,-186,-195,-181,-224
-80,75,155,1,-118,113,13,-164,-186,-189,-175,-218
-80,69,149,7,-112,107,13,-164,-186,-195,-175,-218
-86,69,155,13,-118,113,19,-170,-186,-195,-175,-218
-86,75,161,7,-124,119,19,-164,-192,-201,-175,-218
-86,75,161,7,-124,119,13,-164,-198,-201,-169,-218
-80,75,155,1,-118,113,13,-158,-204,-201,-175,-212
-80,81,161,1,-118,119,7,-158,-210,-201,-175,-212
-80,81,161,1,-118,119,7,-164,-210,-207,-181,-218
-80,81,161,1,-118,119,7,-170,-210,-207,-181,-218
-80,81,161,1,-118,119,2,-176,-210,-207,-181,-218
-80,87,167,-5,-124,125,2,-176,-204,-207,-181,-218
-74,93,167,-5,-118,131,-3,-176,-210,-207,-181,-224
-74,87,161,-5,-118,125,-3,-182,-216,-207,-181,-224
-74,87,161,-5,-118,125,-9,-182,-216,-213,-181,-230
-68,87,155,-11,-112,119,-3,-182,-216,-219,-175,-236
-68,81,149,-5,-106,113,-3,-182,-222,-213,-175,-248
-68,81,149,-5,-106,113,-3,-182,-222,-219,-181,-248
-68,81,149,-5,-106,113,-9,-182,-222,-219,-181,-254
-68,81,149,-5,-106,113,-15,-182,-228,-225,-181,-254
-74,81,155,1,-112,119,-15,-182,-222,-225,-187,-254
-74,81,155,1,-112,119,-9,-188,-222,-231,-187,-260
-74,75,149,1,-112,113,-15,-194,-228,-231,-187,-266
-80,69,149,7,-112,107,-15,-200,-234,-237,-187,-266
-80,69,149,7,-112,107,-21,-200,-234,-231,-187,-272
-74,63,137,7,-106,101,-21,-200,-234,-231,-187,-272
-74,57,131,13,-100,95,-21,-200,-228,-231,-181,-272
-74,51,125,13,-100,89,-21,-206,-234,-237,-187,-278
-74,51,125,13,-100,89,-21,-212,-240,-243,-193,-278
-74,51,125,13,-100,89,-21,-218,-246,-243,-193,-278
-74,51,125,13,-100,89,-21,-224,-246,-243,-199,-278
-74,51,125,13,-100,89,-27,-224,-246,-249,-199,-278
-74,51,125,13,-100,89,-27,-230,-240,-249,-205,-272
-74,51,125,13,-100,89,-33,-230,-246,-255,-205,-272
-74,51,125,13,-100,89,-33,-230,-246,-255,-205,-278
-74,45,119,18,-94,83,-39,-230,-252,-255,-205,-278
-68,45,113,13,-88,77,-39,-236,-258,-261,-211,-284
-68,51,119,7,-94,83,-39,-230,-264,-255,-211,-284
-68,51,119,7,-94,83,-39,-230,-258,-255,-211,-284
-68,51,119,7,-94,83,-45,-236,-258,-255,-217,-284
-68,51,119,7,-94,83,-39,-242,-258,-255,-217,-290
-68,45,113,13,-88,77,-45,-242,-258,-255,-223,-296
-74,45,119,18,-94,83,-45,-248,-264,-261,-223,-296
-74,45,119,18,-94,83,-45,-254,-264,-267,-223,-302
-80,39,119,18,-100,77,-45,-254,-264,-273,-217,-308
-86,39,125,23,-106,83,-45,-260,-264,-273,-211,-320
-86,39,125,23,-106,83,-39,-260,-264,-273,-211,-326
-80,27,107,23,-94,65,-27,-260,-264,-279,-211,-326
-80,15,95,29,-88,53,-27,-254,-270,-273,-217,-326
-80,15,95,29,-88,53,-21,-254,-270,-273,-211,-326
-80,15,95,29,-88,53,-21,-254,-264,-273,-217,-326
-80,21,101,29,-88,59,-21,-248,-270,-279,-217,-332
-86,21,107,35,-94,65,-21,-248,-270,-279,-217,-332
-86,21,107,35,-94,65,-15,-254,-276,-279,-217,-344
-86,21,107,35,-94,65,-21,-254,-282,-285,-217,-344
-80,21,101,29,-88,59,-21,-254,-282,-285,-217,-344
-80,15,95,29,-88,53,-21,-254,-282,-285,-211,-344
-74,15,89,29,-82,53,-27,-260,-276,-285,-217,-338
-74,15,89,29,-82,53,-27,-260,-276,-291,-217,-338
-74,15,89,29,-82,53,-27,-266,-282,-291,-223,-338
-74,9,83,35,-76,47,-33,-266,-288,-297,-229,-338
-74,9,83,35,-76,47,-33,-266,-288,-291,-229,-338
-80,9,89,35,-82,47,-39,-266,-288,-291,-229,-338
-80,15,95,29,-88,53,-39,-266,-288,-291,-235,-338
-80,15,95,29,-88,53,-39,-266,-294,-291,-235,-338
-80,15,95,29,-88,53,-39,-266,-294,-291,-235,-332
-80,21,101,29,-88,59,-33,-266,-294,-291,-235,-332
-80,21,101,29,-88,59,-27,-266,-294,-297,-235,-338
-80,15,95,29,-88,53,-27,-266,-294,-291,-235,-332
-80,15,95,29,-88,53,-33,-266,-288,-291,-235,-332
-80,15,95,29,-88,53,-39,-266,-294,-291,-235,-326
-86,9,95,41,-88,53,-33,-260,-294,-291,-235,-320
-86,9,95,41,-88,53,-39,-254,-300,-291,-235,-320
-86,3,89,41,-88,47,-39,-254,-306,-291,-229,-320
-80,9,89,35,-82,47,-39,-254,-306,-285,-229,-320
-74,-3,71,41,-70,35,-39,-254,-306,-285,-229,-314
-74,-9,65,41,-70,29,-45,-254,-300,-285,-235,-314
-80,-9,71,41,-76,29,-45,-254,-300,-285,-235,-308
-74,-3,71,41,-70,35,-39,-248,-294,-285,-235,-308
-80,-9,71,41,-76,29,-45,-254,-294,-285,-235,-302
-80,-9,71,41,-76,29,-45,-254,-294,-291,-235,-302
-80,-3,77,41,-76,35,-45,-254,-300,-297,-235,-302
-80,-3,77,41,-76,35,-51,-254,-294,-291,-235,-296
-80,-9,71,41,-76,29,-51,-254,-294,-291,-235,-296
-86,-9,77,47,-82,35,-45,-248,-294,-291,-235,-290
-86,-3,83,47,-82,41,-45,-242,-294,-285,-229,-290
-80,-3,77,41,-76,35,-45,-242,-294,-285,-229,-290
-80,-3,77,41,-76,35,-45,-236,-300,-291,-229,-284
-80,3,83,35,-82,41,-45,-242,-300,-291,-223,-278
-74,3,77,35,-76,41,-51,-242,-306,-291,-223,-272
-74,3,77,35,-76,41,-51,-242,-306,-291,-229,-266
-74,3,77,35,-76,41,-51,-242,-306,-285,-229,-266
-74,3,77,35,-76,41,-51,-242,-306,-285,-229,-266
-74,3,77,35,-76,41,-51,-242,-306,-285,-229,-266
-74,-3,71,41,-70,35,-51,-242,-300,-285,-229,-260
-80,-9,71,41,-76,29,-51,-236,-300,-285,-229,-260
-80,-9,71,41,-76,29,-45,-236,-300,-285,-229,-260
-86,-9,77,47,-82,35,-45,-236,-300,-291,-235,-266
-86,-15,71,53,-76,29,-45,-236,-300,-297,-235,-272
-86,-15,71,53,-76,29,-45,-236,-300,-291,-235,-266
-92,-15,77,53,-82,29,-45,-236,-300,-291,-235,-266
-92,-15,77,53,-82,29,-45,-236,-300,-285,-235,-266
-92,-15,77,53,-82,29,-45,-236,-294,-291,-241,-266
-86,-20,65,53,-76,23,-45,-236,-294,-297,-241,-266
-86,-20,65,53,-76,23,-39,-236,-294,-297,-247,-260
-80,-20,59,47,-70,17,-45,-236,-300,-297,-241,-248
-80,-25,53,47,-70,11,-51,-236,-294,-297,-241,-242
-80,-25,53,47,-70,11,-51,-236,-300,-297,-241,-242
-86,-20,65,53,-76,23,-57,-236,-300,-297,-241,-248
-86,-20,65,53,-76,23,-57,-236,-300,-297,-241,-242
-86,-15,71,53,-76,29,-57,-242,-300,-291,-241,-242
-86,-15,71,53,-76,29,-57,-242,-294,-291,-247,-242
-86,-15,71,53,-76,29,-57,-242,-294,-291,-241,-242
-86,-20,65,53,-76,23,-57,-242,-294,-297,-247,-248
-86,-25,59,53,-76,17,-57,-242,-300,-291,-241,-242
-86,-25,59,53,-76,17,-57,-242,-300,-297,-241,-242
-92,-25,65,53,-82,17,-57,-248,-294,-297,-241,-242
-92,-25,65,53,-82,17,-51,-242,-294,-297,-241,-248
-92,-20,71,53,-82,23,-51,-248,-294,-297,-241,-248
-86,-20,65,53,-76,23,-51,-242,-288,-291,-241,-248
-86,-20,65,53,-76,23,-57,-236,-288,-291,-241,-248
-86,-25,59,53,-76,17,-51,-236,-288,-291,-241,-248
-80,-25,53,47,-70,11,-57,-236,-288,-297,-241,-248
-80,-37,41,53,-64,-1,-51,-236,-288,-297,-241,-254
-80,-37,41,53,-64,-1,-57,-236,-294,-297,-241,-248
-80,-31,47,53,-64,5,-57,-236,-294,-297,-241,-242
-86,-31,53,59,-70,11,-57,-236,-288,-291,-241,-236
-92,-25,65,53,-82,17,-57,-236,-288,-285,-235,-230
-92,-25,65,53,-82,17,-57,-230,-282,-291,-235,-230
-92,-25,65,53,-82,17,-57,-230,-282,-285,-235,-230
-86,-25,59,53,-76,17,-57,-236,-288,-285,-235,-230
-92,-31,59,59,-76,11,-63,-236,-288,-285,-241,-230
-92,-31,59,59,-76,11,-63,-230,-294,-285,-235,-230
-92,-31,59,59,-76,11,-63,-230,-294,-291,-235,-236
-86,-31,53,59,-70,11,-63,-224,-294,-291,-235,-242
-86,-25,59,53,-76,17,-63,-218,-288,-291,-235,-242
-80,-25,53,47,-70,11,-57,-224,-282,-291,-235,-242
-80,-25,53,47,-70,11,-57,-224,-276,-297,-235,-248
-80,-25,53,47,-70,11,-57,-224,-276,-297,-235,-254
-74,-25,47,47,-64,11,-57,-218,-276,-291,-235,-254
-80,-31,47,53,-64,5,-51,-218,-270,-285,-229,-254
-80,-31,47,53,-64,5,-51,-212,-270,-285,-229,-254
-80,-31,47,53,-64,5,-51,-212,-264,-279,-229,-260
-80,-31,47,53,-64,5,-51,-212,-264,-279,-235,-260
-80,-31,47,53,-64,5,-51,-206,-258,-279,-229,-260
-74,-31,41,53,-58,5,-51,-206,-252,-273,-229,-254
-74,-31,41,53,-58,5,-57,-206,-252,-273,-223,-254
-74,-31,41,53,-58,5,-51,-206,-258,-273,-229,-254
-74,-37,35,53,-58,-1,-51,-200,-258,-273,-229,-254
-68,-37,29,47,-52,-7,-51,-200,-258,-273,-229,-248
-68,-31,35,47,-52,-1,-45,-200,-252,-267,-235,-248
-68,-25,41,41,-58,5,-39,-188,-246,-261,-235,-254
-62,-20,41,41,-52,11,-33,-182,-234,-255,-229,-254
-62,-20,41,41,-52,11,-21,-176,-228,-249,-229,-248
-56,-15,41,35,-46,11,-15,-164,-228,-243,-229,-248
-56,-3,53,29,-52,23,-15,-158,-222,-237,-217,-242
-50,3,53,23,-52,29,-9,-146,-216,-231,-211,-236
-44,3,47,18,-46,23,-9,-140,-210,-225,-205,-230
-44,3,47,18,-46,23,-9,-134,-198,-225,-199,-224
-32,3,35,13,-34,17,-3,-128,-186,-213,-193,-218
-20,3,23,7,-22,11,2,-122,-174,-207,-187,-212
-15,3,17,7,-16,11,2,-110,-174,-201,-181,-212
-4,3,5,1,-5,5,2,-104,-174,-189,-175,-200
2,9,5,1,0,11,2,-98,-168,-177,-169,-194
2,9,5,1,0,11,-3,-92,-156,-165,-157,-188
8,27,17,-17,-5,23,-3,-86,-150,-153,-151,-182
14,33,17,-17,0,29,2,-74,-132,-147,-139,-170
20,45,23,-29,0,35,7,-62,-120,-141,-133,-158
26,51,23,-35,0,41,7,-56,-114,-135,-121,-152
32,51,17,-41,6,35,2,-56,-108,-129,-109,-146
32,51,17,-41,6,35,2,-56,-108,-129,-109,-140
38,51,11,-41,12,35,-9,-56,-108,-123,-103,-134
44,51,5,-47,18,29,-3,-56,-108,-117,-103,-128
44,51,5,-47,18,29,-9,-56,-102,-123,-103,-134
38,45,5,-35,18,29,-21,-68,-120,-129,-115,-140
32,33,-1,-29,18,17,-27,-74,-132,-147,-127,-146
26,21,-6,-17,18,11,-39,-86,-144,-153,-133,-152
26,9,-17,-11,24,-1,-51,-98,-156,-165,-145,-158
20,3,-17,-11,18,-7,-51,-104,-162,-165,-151,-158
20,-9,-29,-5,24,-17,-51,-116,-168,-171,-157,-164
14,-15,-29,7,24,-17,-57,-122,-174,-183,-163,-164
8,-15,-23,7,18,-17,-63,-134,-180,-189,-169,-176
-4,-20,-17,13,6,-17,-63,-140,-192,-195,-163,-176
-10,-20,-11,18,0,-12,-57,-146,-192,-195,-163,-176
-15,-20,-6,18,-5,-12,-51,-140,-192,-195,-163,-176
-15,-15,-1,18,-5,-7,-51,-140,-192,-195,-163,-182
-20,-15,5,18,-10,-7,-51,-146,-198,-195,-163,-182
-26,-20,5,23,-16,-7,-51,-146,-204,-207,-169,-182
-32,-25,5,23,-22,-12,-51,-158,-210,-213,-181,-188
-38,-31,5,35,-22,-12,-51,-164,-222,-225,-187,-200
-38,-31,5,35,-22,-12,-45,-164,-222,-231,-187,-206
-44,-37,5,35,-28,-17,-45,-170,-228,-237,-193,-212
-50,-49,-1,47,-28,-23,-51,-182,-240,-249,-205,-224
-62,-55,5,59,-34,-23,-57,-188,-246,-255,-211,-236
-68,-61,5,59,-40,-29,-63,-194,-252,-267,-223,-242
-68,-67,-1,65,-34,-35,-69,-194,-252,-273,-229,-242
-74,-79,-6,77,-34,-41,-63,-194,-252,-279,-241,-248
-80,-85,-6,77,-40,-47,-51,-200,-258,-285,-247,-254
-86,-85,-1,83,-46,-41,-45,-200,-258,-285,-253,-248
-86,-79,5,83,-46,-35,-45,-200,-258,-279,-247,-248
-86,-85,-1,83,-46,-41,-39,-200,-252,-273,-241,-248
-86,-85,-1,83,-46,-41,-33,-194,-252,-273,-235,-248
-80,-91,-11,83,-34,-53,-27,-194,-246,-273,-235,-242
-80,-91,-11,83,-34,-53,-21,-188,-234,-273,-229,-236
-74,-91,-17,83,-28,-53,-15,-176,-228,-267,-223,-230
-68,-97,-29,77,-22,-65,-15,-176,-228,-261,-217,-230
-62,-97,-35,77,-16,-65,-21,-176,-228,-255,-211,-218
-50,-103,-53,77,0,-77,-21,-170,-222,-243,-205,-206
-38,-97,-59,65,6,-77,-15,-164,-204,-225,-193,-200
-26,-91,-65,59,18,-77,-21,-158,-192,-213,-181,-182
-15,-91,-77,53,30,-83,-27,-146,-174,-195,-163,-164
2,-85,-89,41,42,-83,-33,-134,-150,-165,-145,-146
26,-79,-107,29,66,-89,-39,-122,-126,-135,-115,-128
50,-79,-131,18,90,-101,-51,-104,-108,-111,-79,-104
80,-73,-155,-5,114,-113,-57,-104,-96,-87,-55,-80
110,-61,-173,-23,138,-113,-75,-92,-84,-69,-31,-62
134,-61,-197,-35,162,-125,-87,-80,-72,-57,-7,-44
164,-67,-233,-47,198,-149,-99,-74,-66,-39,9,-20
188,-73,-263,-59,222,-167,-117,-74,-60,-27,27,-8
212,-79,-293,-65,252,-185,-147,-80,-66,-15,39,9
248,-91,-341,-77,294,-215,-183,-98,-66,-9,57,26
284,-91,-377,-95,330,-233,-237,-128,-84,-3,75,44
326,-97,-425,-113,372,-257,-279,-164,-96,-3,81,56
356,-109,-467,-125,408,-287,-321,-194,-120,-9,93,80
392,-127,-521,-131,456,-323,-357,-212,-132,-15,111,92
434,-151,-587,-137,510,-365,-387,-230,-144,-9,123,116
476,-175,-653,-149,564,-413,-411,-242,-156,-15,141,140
512,-193,-707,-161,606,-449,-423,-242,-162,-9,153,164
542,-211,-755,-161,648,-479,-423,-230,-156,-3,177,182
578,-229,-809,-173,690,-515,-429,-218,-144,9,201,212
620,-241,-863,-191,738,-551,-441,-182,-120,37,243,254
662,-253,-917,-203,786,-581,-447,-146,-90,73,279,290
710,-271,-983,-215,846,-623,-471,-122,-66,109,315,320
764,-289,-1055,-239,906,-671,-513,-110,-48,139,357,356
830,-307,-1139,-257,984,-719,-567,-98,-30,187,411,398
902,-313,-1217,-293,1056,-761,-645,-86,0,235,483,452
980,-313,-1295,-335,1134,-803,-735,-80,34,307,561,518
1064,-313,-1379,-377,1218,-845,-825,-68,82,385,651,590
1160,-301,-1463,-431,1308,-881,-915,-32,148,493,759,662
1262,-289,-1553,-485,1404,-917,-1017,14,256,643,897,770
1376,-259,-1637,-557,1506,-947,-1143,26,370,823,1065,902
1496,-223,-1721,-635,1608,-971,-1287,-14,442,991,1239,1034
1616,-181,-1799,-719,1704,-989,-1443,-134,460,1141,1425,1184
1724,-139,-1865,-791,1794,-1001,-1581,-296,442,1261,1605,1328
1820,-97,-1919,-863,1866,-1007,-1689,-470,394,1345,1767,1460
1910,-55,-1967,-923,1938,-1007,-1785,-644,316,1399,1923,1586
1994,-9,-2003,-989,1998,-1001,-1869,-824,220,1441,2079,1724
2072,27,-2045,-1049,2058,-1007,-1941,-986,112,1465,2223,1856
2126,63,-2063,-1091,2094,-995,-1995,-1112,18,1489,2361,1976
2156,105,-2051,-1127,2106,-971,-2019,-1202,-54,1531,2504,2102
2162,153,-2009,-1151,2088,-923,-2019,-1274,-108,1573,2642,2228
2126,201,-1925,-1157,2028,-857,-1989,-1292,-114,1639,2780,2336
2048,255,-1793,-1151,1920,-767,-1911,-1268,-66,1735,2912,2431
1928,315,-1613,-1121,1770,-647,-1791,-1202,24,1843,3038,2515
1760,375,-1385,-1067,1572,-503,-1647,-1112,124,1951,3128,2551
1574,417,-1157,-989,1368,-365,-1479,-1004,238,2029,3164,2533
1382,435,-947,-905,1164,-251,-1311,-884,322,2041,3122,2455
1196,429,-767,-809,984,-167,-1143,-764,382,2017,3008,2312
1010,417,-593,-707,804,-83,-969,-638,430,1957,2834,2132
824,399,-425,-611,624,-12,-795,-500,460,1837,2570,1874
644,369,-275,-503,462,47,-627,-380,454,1633,2205,1568
488,297,-191,-389,342,53,-477,-284,382,1303,1731,1214
362,213,-149,-281,258,35,-339,-212,268,913,1221,854
260,147,-113,-203,186,17,-225,-164,184,589,819,572
188,105,-83,-143,138,11,-141,-122,136,379,555,392
122,81,-41,-95,84,23,-69,-98,106,247,393,278
74,63,-11,-65,42,29,-21,-74,82,163,291,212
26,63,35,-41,-5,53,13,-56,58,109,225,164
-10,57,65,-17,-34,65,37,-44,34,73,177,134
-26,63,89,-17,-58,77,43,-38,18,49,141,110
-44,69,113,-11,-76,89,55,-32,0,25,105,80
-56,75,131,-11,-94,101,67,-20,-6,15,69,56
-68,75,143,-5,-106,107,73,-26,-12,-9,33,32
-80,75,155,1,-118,113,91,-20,-6,-33,-2,9
-92,63,155,13,-124,107,103,-20,-6,-63,-37,-14
-104,51,155,23,-130,101,109,-14,-12,-87,-67,-44
-116,51,167,29,-142,107,127,-14,-24,-105,-97,-56
-128,51,179,35,-154,113,139,-3,-30,-123,-109,-68
-140,51,191,41,-166,119,145,-3,-36,-135,-121,-86
-152,51,203,47,-178,125,151,-3,-42,-147,-139,-92
-158,57,215,53,-184,137,151,-3,-54,-159,-151,-98
-164,51,215,53,-190,131,151,2,-60,-171,-169,-104
-170,51,221,59,-196,137,157,2,-54,-171,-181,-110
-176,51,227,59,-202,137,163,8,-54,-177,-199,-116
-176,51,227,59,-202,137,163,14,-54,-189,-211,-122
-176,51,227,59,-202,137,169,20,-48,-195,-217,-122
-176,57,233,59,-202,143,175,26,-48,-207,-223,-128
-176,57,233,59,-202,143,175,32,-54,-213,-235,-134
-176,63,239,53,-208,149,175,32,-54,-219,-235,-134
-176,63,239,53,-208,149,181,38,-54,-213,-235,-134
-176,63,239,53,-208,149,181,38,-54,-213,-235,-140
-182,69,251,59,-214,161,187,38,-48,-213,-235,-146
-182,69,251,59,-214,161,187,44,-48,-213,-241,-146
-188,69,257,59,-220,161,187,50,-42,-213,-247,-152
-188,69,257,59,-220,161,187,56,-36,-207,-241,-152
-188,69,257,59,-220,161,187,62,-30,-207,-241,-146
-188,63,251,59,-220,155,193,68,-24,-201,-241,-146
-188,57,245,65,-214,149,199,74,-24,-201,-241,-152
-188,51,239,65,-214,143,205,80,-18,-195,-241,-140
-194,45,239,77,-214,143,205,86,-18,-195,-235,-134
-194,39,233,77,-214,137,211,92,-12,-195,-235,-128
-194,39,233,77,-214,137,211,98,-6,-195,-235,-122
-194,33,227,83,-208,131,211,104,6,-195,-229,-122
-200,27,227,83,-214,125,217,110,12,-189,-229,-122
-200,27,227,83,-214,125,223,116,12,-183,-223,-122
-200,27,227,83,-214,125,223,122,18,-177,-223,-122
-200,27,227,83,-214,125,223,128,24,-171,-217,-122
-194,27,221,83,-208,125,229,134,29,-165,-211,-122
-194,27,221,83,-208,125,235,140,29,-159,-211,-122
-188,33,221,77,-202,125,235,146,34,-153,-211,-122
-188,33,221,77,-202,125,247,146,34,-153,-211,-122
-188,33,221,77,-202,125,253,152,40,-147,-211,-116
-188,39,227,71,-208,131,259,158,52,-141,-205,-110
-194,39,233,77,-214,137,265,170,64,-135,-205,-104
-194,39,233,77,-214,137,271,176,70,-135,-199,-104
-194,39,233,77,-214,137,277,182,70,-129,-193,-98
-194,45,239,77,-214,143,277,194,76,-123,-187,-92
-194,45,239,77,-214,143,283,206,82,-117,-181,-98
-200,39,239,77,-220,137,295,218,94,-105,-175,-98
-206,39,245,83,-226,143,307,224,100,-105,-175,-98
-206,45,251,83,-226,149,307,224,112,-99,-169,-98
-206,45,251,83,-226,149,307,236,118,-93,-169,-98
-212,45,257,83,-232,149,307,248,124,-87,-163,-98
-206,45,251,83,-226,149,313,254,130,-75,-163,-92
-206,51,257,77,-232,155,313,266,142,-69,-157,-98
-212,51,263,77,-238,155,313,278,154,-63,-157,-98
-206,57,263,77,-232,161,319,284,160,-57,-151,-92
-206,57,263,77,-232,161,325,296,166,-51,-151,-98
-212,63,275,71,-244,167,331,302,178,-51,-151,-92
-212,69,281,71,-244,173,337,314,190,-39,-145,-92
-218,75,293,71,-256,185,343,320,196,-33,-139,-92
-218,75,293,71,-256,185,349,332,208,-33,-133,-98
-218,81,299,71,-256,191,355,344,214,-27,-127,-92
-218,75,293,71,-256,185,361,350,220,-21,-127,-86
-218,87,305,65,-262,197,367,356,226,-9,-127,-92
-224,87,311,65,-268,197,373,368,232,-3,-127,-92
-224,87,311,65,-268,197,379,380,244,9,-121,-86
-224,93,317,65,-268,203,385,392,256,15,-121,-92
-224,93,317,65,-268,203,385,398,274,15,-115,-98
-236,99,335,65,-286,215,397,416,286,25,-115,-98
-236,105,341,65,-286,221,403,428,298,31,-115,-98
-242,111,353,65,-298,233,421,440,304,43,-109,-110
-248,117,365,65,-304,239,427,446,316,49,-103,-104
-248,117,365,65,-304,239,433,458,322,61,-103,-104
-248,123,371,59,-310,245,439,464,334,67,-103,-110
-248,123,371,59,-310,245,445,476,346,73,-103,-110
-242,129,371,59,-304,251,451,488,358,85,-103,-110
-242,129,371,59,-304,251,463,500,382,91,-103,-110
-242,135,377,53,-310,257,475,518,400,103,-97,-110
-248,135,383,53,-316,257,493,536,412,115,-97,-104
-248,147,395,47,-322,269,499,548,424,133,-91,-104
-254,153,407,53,-328,281,505,566,442,145,-85,-104
-254,159,413,47,-334,287,511,578,454,157,-85,-104
-260,159,419,47,-340,287,517,602,472,169,-79,-104
-260,159,419,47,-340,287,529,620,484,187,-73,-98
-260,159,419,47,-340,287,541,638,496,199,-73,-104
-266,171,437,47,-352,305,547,656,514,205,-67,-104
-266,177,443,47,-352,311,559,680,532,223,-61,-104
-266,183,449,41,-358,317,565,698,544,235,-61,-110
-272,189,461,41,-364,323,577,722,568,253,-55,-110
-278,195,473,41,-376,335,589,746,586,265,-55,-110
-278,195,473,41,-376,335,601,770,604,277,-55,-116
-278,201,479,41,-376,341,613,788,628,295,-43,-104
-284,207,491,35,-388,347,619,812,646,313,-37,-98
-284,207,491,35,-388,347,631,830,664,331,-31,-92
-284,201,485,41,-382,341,637,854,682,343,-19,-86
-284,201,485,41,-382,341,649,878,700,355,-7,-74
-284,201,485,41,-382,341,661,902,718,373,-2,-62
-284,195,479,41,-382,335,667,926,736,391,9,-56
-284,201,485,41,-382,341,673,950,748,415,21,-50
-284,207,491,35,-388,347,673,968,766,433,27,-44
-284,213,497,35,-388,353,679,986,784,445,33,-38
-278,213,491,35,-382,353,691,1004,802,463,45,-38
-278,207,485,35,-382,347,697,1022,814,475,51,-32
-272,201,473,35,-370,335,709,1046,838,499,63,-32
-266,195,461,35,-364,329,709,1064,856,523,75,-26
-260,189,449,35,-352,317,715,1082,868,541,87,-20
-254,189,443,35,-346,317,715,1094,880,553,99,-14
-242,189,431,29,-334,311,709,1100,892,565,105,-8
-236,183,419,23,-328,299,703,1106,904,577,117,4
-230,171,401,29,-316,287,697,1112,910,589,129,9
-218,165,383,29,-298,275,685,1112,916,601,141,20
-206,159,365,23,-286,263,673,1106,916,613,153,26
-194,147,341,23,-268,245,661,1106,910,619,171,32
-188,147,335,18,-262,239,649,1094,904,625,183,44
-176,147,323,13,-250,233,625,1082,892,631,195,44
-158,135,293,13,-226,215,607,1064,886,637,207,62
-140,129,269,7,-202,197,583,1046,868,637,219,74
-128,117,245,7,-184,179,559,1016,844,631,219,80
-116,111,227,1,-172,167,535,980,826,625,225,92
-104,105,209,1,-154,155,511,950,802,613,231,104
-104,93,197,7,-148,143,481,914,772,595,231,110
-92,87,179,1,-136,131,451,872,736,577,231,116
-92,75,167,7,-130,119,421,830,700,565,237,122
-80,63,143,7,-112,101,397,794,664,553,237,128
-68,51,119,7,-94,83,367,752,634,535,237,128
-56,39,95,7,-76,65,337,710,598,523,231,134
-44,27,71,7,-58,47,307,674,562,499,225,134
-32,21,53,7,-40,35,271,632,526,463,219,134
-26,15,41,7,-34,29,241,584,484,427,207,134
-26,3,29,13,-28,17,217,542,436,385,195,134
-26,-3,23,18,-22,11,193,494,394,349,183,128
-26,-15,11,23,-16,-1,175,452,346,313,171,116
-32,-25,5,23,-22,-12,157,416,304,283,153,104
-32,-37,-6,29,-16,-23,139,386,268,259,135,98
-32,-43,-11,35,-10,-29,115,356,238,235,111,86
-32,-49,-17,35,-10,-35,97,326,208,211,93,74
-26,-55,-29,41,0,-41,85,290,184,181,75,68
-26,-61,-35,41,0,-47,67,260,154,157,63,62
-32,-73,-41,47,0,-59,55,236,124,133,45,50
-32,-85,-53,53,6,-71,37,212,100,109,33,44
-32,-91,-59,59,12,-77,25,194,76,85,21,38
-32,-91,-59,59,12,-77,13,170,52,61,9,32
-38,-103,-65,71,12,-83,7,152,29,43,-2,20
-38,-115,-77,77,18,-95,2,128,6,20,-13,9
-38,-121,-83,77,18,-101,-3,110,-12,-3,-31,9
-38,-127,-89,83,24,-107,-9,98,-30,-21,-43,-8
-44,-127,-83,83,18,-107,-3,86,-42,-33,-55,-14
-44,-133,-89,83,18,-113,-9,74,-48,-45,-61,-20
-50,-133,-83,89,12,-107,-21,62,-60,-63,-73,-26
-56,-133,-77,89,6,-107,-27,50,-72,-75,-79,-32
-56,-127,-71,89,6,-101,-33,44,-84,-81,-91,-32
-56,-127,-71,89,6,-101,-39,32,-96,-93,-103,-32
-62,-127,-65,95,0,-95,-45,26,-96,-99,-115,-32
-62,-127,-65,95,0,-95,-45,20,-108,-111,-121,-38
-68,-127,-59,95,-5,-95,-45,14,-114,-123,-127,-38
-68,-127,-59,95,-5,-95,-51,14,-126,-129,-133,-38
-68,-127,-59,95,-5,-95,-51,2,-126,-135,-133,-32
-62,-127,-65,95,0,-95,-57,-3,-132,-141,-133,-38
-68,-127,-59,95,-5,-95,-57,-3,-138,-147,-133,-32
-68,-127,-59,95,-5,-95,-57,-3,-138,-147,-133,-26
-74,-121,-47,95,-16,-83,-57,-3,-144,-147,-139,-26
-74,-121,-47,95,-16,-83,-63,-3,-150,-147,-139,-26
-80,-127,-47,101,-16,-89,-57,-8,-150,-153,-139,-20
-86,-127,-41,107,-22,-83,-57,-8,-150,-147,-145,-20
-86,-127,-41,107,-22,-83,-57,-8,-144,-141,-145,-20
-80,-127,-47,101,-16,-89,-57,-8,-144,-141,-145,-20
-80,-121,-41,95,-22,-83,-57,-8,-144,-141,-145,-14
-80,-121,-41,95,-22,-83,-57,-8,-144,-141,-139,-14
-80,-121,-41,95,-22,-83,-57,-8,-144,-141,-139,-14
-74,-127,-53,101,-10,-89,-63,-8,-150,-141,-139,-14
-74,-127,-53,101,-10,-89,-63,-14,-150,-147,-145,-8
-74,-127,-53,101,-10,-89,-63,-20,-150,-153,-145,-14
-74,-121,-47,95,-16,-83,-69,-20,-156,-153,-145,-14
-74,-115,-41,95,-16,-77,-63,-20,-150,-147,-139,-8
-68,-109,-41,83,-16,-77,-69,-20,-150,-147,-139,-8
-74,-103,-29,89,-22,-65,-69,-20,-156,-147,-145,-8
-74,-103,-29,89,-22,-65,-75,-20,-162,-153,-151,-2
-74,-97,-23,83,-28,-59,-75,-14,-156,-147,-151,4
-74,-91,-17,83,-28,-53,-75,-14,-156,-147,-151,-2
-74,-91,-17,83,-28,-53,-81,-14,-162,-153,-151,-2
-80,-85,-6,77,-40,-47,-75,-8,-162,-153,-145,-2
-80,-85,-6,77,-40,-47,-75,-8,-168,-153,-145,-2
-80,-79,-1,77,-40,-41,-75,-8,-168,-153,-145,-2
-80,-79,-1,77,-40,-41,-81,-3,-162,-147,-145,-2
-74,-73,-1,71,-40,-35,-81,-3,-162,-147,-145,-2
-68,-73,-6,65,-34,-41,-81,-3,-156,-147,-145,-8
-68,-85,-17,71,-28,-53,-75,2,-150,-147,-145,-8
-74,-85,-11,77,-34,-47,-81,-3,-150,-141,-139,-2
-80,-79,-1,77,-40,-41,-81,-3,-150,-141,-127,-2
-86,-85,-1,83,-46,-41,-69,-3,-144,-141,-127,4
-86,-85,-1,83,-46,-41,-69,2,-144,-141,-127,4
-86,-79,5,83,-46,-35,-75,2,-144,-141,-121,4
-80,-79,-1,77,-40,-41,-69,-3,-150,-141,-121,9
-80,-73,5,71,-46,-35,-63,2,-150,-141,-121,4
-80,-67,11,71,-46,-29,-63,2,-156,-141,-121,9
-74,-67,5,71,-40,-29,-63,2,-156,-141,-121,9
-74,-73,-1,71,-40,-35,-69,8,-162,-141,-127,9
-74,-73,-1,71,-40,-35,-75,14,-162,-141,-133,4
-68,-73,-6,65,-34,-41,-69,14,-162,-147,-133,-2
-68,-73,-6,65,-34,-41,-69,14,-162,-147,-133,-8
-68,-73,-6,65,-34,-41,-69,14,-162,-159,-133,-8
-74,-67,5,71,-40,-29,-69,14,-162,-159,-127,-8
-74,-67,5,71,-40,-29,-69,14,-162,-165,-127,-2
-74,-67,5,71,-40,-29,-69,14,-162,-159,-121,4
-74,-61,11,65,-46,-23,-75,14,-162,-159,-121,4
-74,-61,11,65,-46,-23,-75,14,-156,-159,-121,4
-74,-61,11,65,-46,-23,-75,8,-150,-159,-115,4
-74,-61,11,65,-46,-23,-75,8,-156,-159,-115,4
-74,-61,11,65,-46,-23,-69,8,-156,-159,-115,4
-80,-61,17,65,-52,-23,-69,8,-162,-165,-115,4
-80,-67,11,71,-46,-29,-69,8,-162,-165,-115,4
-80,-61,17,65,-52,-23,-69,8,-162,-165,-115,4
-80,-61,17,65,-52,-23,-69,8,-156,-165,-115,4
-80,-67,11,71,-46,-29,-69,8,-156,-165,-109,-2
-80,-67,11,71,-46,-29,-69,8,-156,-171,-115,-2
-80,-67,11,71,-46,-29,-69,2,-162,-171,-115,-2
-80,-73,5,71,-46,-35,-69,-3,-162,-171,-115,-2
-74,-73,-1,71,-40,-35,-69,-3,-162,-171,-115,-2
-74,-67,5,71,-40,-29,-69,-8,-168,-177,-121,4
-74,-67,5,71,-40,-29,-69,-3,-168,-177,-121,4
-80,-79,-1,77,-40,-41,-69,-3,-168,-177,-127,4
-80,-79,-1,77,-40,-41,-69,-3,-168,-177,-127,4
-86,-79,5,83,-46,-35,-69,-3,-174,-177,-133,4
-86,-79,5,83,-46,-35,-69,-3,-180,-183,-133,9
-86,-79,5,83,-46,-35,-75,-3,-186,-183,-139,9
-80,-73,5,71,-46,-35,-81,-3,-186,-183,-139,4
-80,-79,-1,77,-40,-41,-87,-8,-186,-189,-139,4
-80,-79,-1,77,-40,-41,-87,-8,-186,-189,-139,4
-74,-73,-1,71,-40,-35,-81,-8,-186,-195,-139,4
-74,-73,-1,71,-40,-35,-81,-14,-192,-201,-145,-8
-74,-73,-1,71,-40,-35,-87,-14,-198,-201,-151,-8
-74,-73,-1,71,-40,-35,-87,-20,-204,-201,-151,-8
-74,-73,-1,71,-40,-35,-93,-26,-204,-207,-157,-8
-80,-79,-1,77,-40,-41,-87,-26,-210,-207,-163,-14
-80,-79,-1,77,-40,-41,-93,-26,-210,-207,-163,-14
-86,-85,-1,83,-46,-41,-93,-26,-204,-207,-163,-8
-86,-91,-6,89,-40,-47,-99,-32,-198,-207,-163,-14
-86,-103,-17,95,-34,-59,-105,-32,-198,-207,-163,-20
-86,-103,-17,95,-34,-59,-99,-38,-198,-213,-163,-20
-86,-103,-17,95,-34,-59,-99,-38,-198,-213,-163,-26
-80,-97,-17,83,-34,-59,-99,-44,-204,-213,-163,-26
-80,-97,-17,83,-34,-59,-105,-44,-204,-213,-163,-32
-80,-103,-23,89,-28,-65,-105,-50,-210,-213,-169,-38
-80,-103,-23,89,-28,-65,-105,-56,-210,-213,-169,-44
-80,-109,-29,89,-28,-71,-105,-56,-216,-219,-169,-44
-80,-109,-29,89,-28,-71,-105,-62,-216,-219,-175,-50
-80,-109,-29,89,-28,-71,-105,-68,-222,-225,-175,-50
-80,-115,-35,95,-22,-77,-105,-68,-222,-225,-175,-50
-80,-115,-35,95,-22,-77,-111,-68,-228,-225,-175,-50
-80,-109,-29,89,-28,-71,-105,-68,-240,-219,-181,-56
-80,-109,-29,89,-28,-71,-99,-68,-234,-219,-181,-56
-86,-109,-23,95,-34,-65,-105,-68,-240,-219,-181,-56
-92,-109,-17,95,-40,-65,-105,-74,-240,-225,-181,-56
-92,-109,-17,95,-40,-65,-105,-74,-240,-225,-181,-62
-92,-115,-23,101,-34,-71,-105,-80,-240,-231,-181,-68
-92,-115,-23,101,-34,-71,-105,-86,-240,-237,-181,-74
-92,-115,-23,101,-34,-71,-105,-86,-240,-237,-181,-74
-86,-115,-29,101,-28,-71,-105,-86,-240,-237,-181,-74
-86,-121,-35,101,-28,-77,-111,-92,-240,-243,-181,-74
-86,-121,-35,101,-28,-77,-111,-92,-246,-249,-181,-74
-86,-121,-35,101,-28,-77,-111,-98,-246,-249,-187,-80
-92,-115,-23,101,-34,-71,-111,-86,-252,-255,-193,-86
-92,-115,-23,101,-34,-71,-111,-86,-252,-255,-193,-92
-92,-109,-17,95,-40,-65,-111,-92,-252,-261,-199,-92
-92,-109,-17,95,-40,-65,-111,-92,-258,-261,-199,-86
-92,-103,-11,95,-40,-59,-117,-92,-264,-261,-199,-80
-86,-103,-17,95,-34,-59,-117,-92,-258,-261,-199,-80
-86,-103,-17,95,-34,-59,-117,-98,-258,-261,-199,-86
-86,-103,-17,95,-34,-59,-123,-98,-264,-261,-205,-86
-80,-103,-23,89,-28,-65,-123,-98,-264,-255,-211,-86
-80,-97,-17,83,-34,-59,-123,-98,-270,-255,-211,-86
-86,-97,-11,89,-40,-53,-129,-104,-270,-255,-211,-92
-92,-91,-1,89,-46,-47,-117,-98,-276,-261,-217,-92
-86,-91,-6,89,-40,-47,-117,-98,-276,-267,-211,-92
-86,-85,-1,83,-46,-41,-123,-98,-276,-267,-211,-92
-92,-79,11,83,-52,-35,-123,-98,-276,-273,-211,-92
-92,-73,17,77,-58,-29,-123,-98,-276,-273,-211,-98
-92,-73,17,77,-58,-29,-129,-92,-276,-273,-211,-98
-92,-67,23,77,-58,-23,-129,-92,-276,-273,-211,-98
-92,-73,17,77,-58,-29,-129,-98,-276,-273,-211,-104
-86,-73,11,77,-52,-29,-129,-104,-276,-273,-211,-110
-86,-73,11,77,-52,-29,-129,-98,-276,-273,-211,-116
-86,-73,11,77,-52,-29,-129,-98,-270,-273,-211,-116
-92,-67,23,77,-58,-23,-129,-104,-270,-273,-217,-116
-92,-67,23,77,-58,-23,-123,-104,-276,-267,-211,-116
-86,-73,11,77,-52,-29,-123,-104,-276,-267,-211,-116
-86,-73,11,77,-52,-29,-123,-110,-282,-267,-217,-116
-86,-73,11,77,-52,-29,-117,-110,-282,-267,-217,-116
-86,-67,17,77,-52,-23,-117,-110,-282,-267,-217,-110
-86,-67,17,77,-52,-23,-123,-110,-282,-267,-217,-110
-86,-67,17,77,-52,-23,-123,-110,-276,-267,-223,-110
-86,-61,23,71,-58,-17,-123,-104,-276,-267,-229,-104
-92,-61,29,71,-64,-17,-129,-104,-282,-267,-229,-110
-92,-61,29,71,-64,-17,-129,-104,-282,-273,-235,-110
-92,-55,35,71,-64,-12,-123,-104,-282,-267,-229,-110
-92,-61,29,71,-64,-17,-123,-110,-282,-267,-223,-104
-92,-61,29,71,-64,-17,-123,-110,-282,-261,-223,-98
-92,-55,35,71,-64,-12,-123,-116,-282,-261,-223,-98
-92,-55,35,71,-64,-12,-123,-116,-288,-267,-223,-98
-86,-49,35,65,-64,-7,-117,-122,-282,-267,-223,-92
-86,-55,29,71,-58,-12,-117,-122,-282,-273,-223,-92
-92,-61,29,71,-64,-17,-117,-122,-276,-279,-223,-92
-86,-61,23,71,-58,-17,-117,-122,-276,-279,-223,-92
-86,-67,17,77,-52,-23,-123,-122,-276,-273,-223,-98
-86,-67,17,77,-52,-23,-123,-116,-276,-273,-217,-98
-86,-67,17,77,-52,-23,-117,-116,-276,-273,-217,-98
-80,-67,11,71,-46,-29,-111,-122,-276,-273,-217,-92
-80,-67,11,71,-46,-29,-111,-122,-282,-273,-217,-92
-80,-67,11,71,-46,-29,-111,-134,-276,-273,-217,-98
-80,-67,11,71,-46,-29,-117,-134,-276,-273,-223,-98
-80,-61,17,65,-52,-23,-117,-140,-282,-273,-223,-98
-80,-61,17,65,-52,-23,-111,-134,-282,-267,-223,-104
-86,-67,17,77,-52,-23,-111,-134,-282,-267,-223,-104
-92,-67,23,77,-58,-23,-105,-134,-288,-273,-223,-110
-92,-67,23,77,-58,-23,-105,-134,-288,-267,-229,-116
-98,-67,29,83,-64,-17,-105,-134,-282,-267,-229,-116
-98,-67,29,83,-64,-17,-99,-134,-276,-267,-229,-116
-92,-67,23,77,-58,-23,-105,-134,-270,-267,-229,-116
-92,-61,29,71,-64,-17,-105,-140,-270,-273,-229,-122
-92,-61,29,71,-64,-17,-105,-140,-270,-273,-229,-116
-92,-61,29,71,-64,-17,-105,-146,-270,-273,-223,-116
-98,-61,35,77,-70,-12,-111,-152,-270,-267,-223,-116
-98,-61,35,77,-70,-12,-111,-152,-270,-267,-223,-116
-98,-61,35,77,-70,-12,-111,-152,-270,-261,-217,-116
-98,-67,29,83,-64,-17,-111,-152,-264,-261,-211,-110
-92,-61,29,71,-64,-17,-111,-152,-264,-261,-211,-110
-92,-61,29,71,-64,-17,-105,-152,-264,-261,-211,-110
-92,-61,29,71,-64,-17,-105,-152,-270,-267,-217,-104
-92,-61,29,71,-64,-17,-111,-146,-270,-267,-217,-110
-92,-61,29,71,-64,-17,-111,-140,-270,-267,-217,-110
-92,-67,23,77,-58,-23,-105,-140,-270,-267,-223,-104
-92,-67,23,77,-58,-23,-105,-140,-276,-267,-223,-104
-98,-67,29,83,-64,-17,-105,-140,-276,-267,-223,-104
-98,-67,29,83,-64,-17,-105,-140,-276,-267,-217,-104
-98,-67,29,83,-64,-17,-105,-134,-276,-273,-217,-110
-98,-67,29,83,-64,-17,-105,-134,-270,-273,-217,-110
-92,-67,23,77,-58,-23,-105,-140,-270,-273,-217,-110
-92,-67,23,77,-58,-23,-105,-146,-270,-273,-217,-110
-92,-67,23,77,-58,-23,-105,-146,-264,-267,-217,-104
-92,-67,23,77,-58,-23,-99,-140,-258,-267,-211,-104
-92,-67,23,77,-58,-23,-99,-140,-258,-267,-211,-104
-92,-61,29,71,-64,-17,-99,-140,-258,-267,-217,-104
-86,-61,23,71,-58,-17,-93,-140,-258,-267,-217,-110
-86,-61,23,71,-58,-17,-93,-146,-258,-267,-211,-110
-86,-61,23,71,-58,-17,-93,-140,-252,-273,-211,-110
-80,-55,23,65,-52,-17,-87,-140,-252,-273,-205,-104
-74,-55,17,65,-46,-17,-81,-134,-246,-267,-199,-98
-68,-43,23,53,-46,-12,-75,-128,-240,-255,-193,-92
-62,-37,23,47,-46,-7,-75,-122,-240,-249,-193,-92
-62,-31,29,47,-46,-1,-63,-116,-240,-243,-193,-86
-62,-31,29,47,-46,-1,-57,-98,-234,-231,-187,-86
-56,-25,29,35,-46,-1,-51,-92,-228,-219,-181,-80
-44,-20,23,29,-34,-1,-51,-86,-222,-213,-175,-80
-44,-20,23,29,-34,-1,-51,-80,-216,-213,-175,-74
-38,-20,17,29,-28,-1,-45,-74,-204,-207,-169,-68
-26,-15,11,23,-16,-1,-39,-62,-186,-207,-157,-68
-26,-15,11,23,-16,-1,-33,-62,-174,-201,-151,-56
-20,-9,11,13,-16,-1,-33,-56,-162,-189,-145,-44
-15,-9,5,13,-10,-1,-27,-50,-156,-177,-139,-38
-15,-9,5,13,-10,-1,-27,-44,-150,-171,-133,-32
-4,-3,-1,7,0,-1,-27,-38,-144,-159,-121,-20
8,9,-1,-5,6,5,-27,-26,-132,-147,-109,-20
14,9,-6,-5,12,5,-27,-14,-120,-135,-103,-8
20,15,-6,-17,12,5,-21,-8,-114,-129,-97,-2
26,15,-11,-17,18,5,-21,-3,-108,-123,-91,4
26,15,-11,-17,18,5,-27,-3,-102,-117,-85,9
32,21,-11,-23,24,5,-27,-8,-96,-117,-79,9
32,21,-11,-23,24,5,-33,-8,-96,-117,-79,4
20,15,-6,-17,12,5,-39,-8,-96,-117,-79,4
14,9,-6,-5,12,5,-51,-20,-108,-123,-79,4
8,3,-6,-5,6,-1,-57,-32,-126,-135,-85,-2
8,3,-6,-5,6,-1,-75,-50,-138,-147,-91,-2
8,-3,-11,1,12,-7,-81,-62,-156,-159,-103,-8
2,-15,-17,13,12,-12,-81,-74,-162,-165,-109,-14
2,-20,-23,13,12,-17,-87,-86,-168,-171,-115,-20
-4,-25,-23,13,6,-23,-87,-98,-180,-177,-121,-26
-10,-20,-11,18,0,-12,-93,-110,-186,-183,-127,-26
-15,-20,-6,18,-5,-12,-87,-116,-192,-183,-127,-32
-20,-25,-6,18,-10,-17,-81,-122,-198,-183,-127,-32
-20,-25,-6,18,-10,-17,-81,-116,-192,-189,-133,-38
-26,-25,-1,23,-16,-12,-81,-116,-198,-189,-133,-38
-26,-31,-6,29,-10,-17,-87,-122,-198,-189,-133,-38
-32,-37,-6,29,-16,-23,-93,-128,-204,-201,-139,-44
-38,-43,-6,41,-16,-23,-93,-134,-210,-207,-145,-44
-50,-49,-1,47,-28,-23,-93,-140,-210,-207,-151,-50
-62,-49,11,53,-40,-17,-93,-146,-210,-207,-151,-56
-68,-55,11,59,-40,-23,-93,-158,-216,-219,-157,-62
-74,-61,11,65,-46,-23,-93,-164,-234,-225,-169,-68
-80,-73,5,71,-46,-35,-99,-176,-246,-237,-181,-74
-80,-79,-1,77,-40,-41,-99,-176,-258,-249,-193,-86
-80,-91,-11,83,-34,-53,-99,-182,-264,-255,-199,-92
-80,-97,-17,83,-34,-59,-105,-188,-270,-255,-199,-98
-86,-103,-17,95,-34,-59,-105,-188,-270,-255,-205,-104
-86,-103,-17,95,-34,-59,-105,-188,-270,-261,-205,-110
-86,-103,-17,95,-34,-59,-105,-188,-258,-261,-205,-110
-92,-109,-17,95,-40,-65,-105,-182,-258,-261,-205,-104
-92,-115,-23,101,-34,-71,-99,-176,-252,-267,-205,-104
-92,-115,-23,101,-34,-71,-93,-170,-246,-261,-205,-98
-92,-115,-23,101,-34,-71,-93,-158,-246,-261,-199,-104
-86,-115,-29,101,-28,-71,-93,-152,-240,-255,-199,-98
-80,-115,-35,95,-22,-77,-93,-152,-234,-243,-193,-86
-74,-121,-47,95,-16,-83,-93,-146,-222,-237,-181,-80
-62,-127,-65,95,0,-95,-93,-140,-210,-225,-163,-68
-50,-133,-83,89,12,-107,-93,-134,-192,-207,-151,-56
-38,-127,-89,83,24,-107,-99,-128,-180,-183,-133,-38
-20,-121,-101,65,36,-113,-99,-110,-162,-159,-115,-20
2,-121,-125,59,60,-119,-105,-92,-138,-135,-91,4
26,-115,-143,47,84,-125,-117,-74,-114,-105,-61,32
50,-109,-161,29,102,-131,-129,-62,-90,-75,-31,56
68,-109,-179,18,120,-143,-141,-50,-72,-51,-2,80
92,-109,-203,7,144,-155,-153,-38,-60,-27,21,104
110,-109,-221,1,162,-161,-165,-32,-48,-3,51,116
134,-115,-251,-5,192,-179,-177,-26,-42,15,75,134
164,-127,-293,-17,228,-209,-189,-20,-36,25,93,158
200,-139,-341,-29,270,-239,-219,-32,-42,37,111,176
236,-151,-389,-41,312,-269,-267,-50,-48,49,123,200
272,-169,-443,-53,354,-305,-315,-74,-54,49,141,230
308,-187,-497,-59,402,-341,-357,-98,-66,49,153,248
338,-205,-545,-65,438,-371,-405,-122,-78,49,165,266
374,-229,-605,-71,486,-413,-441,-134,-84,49,183,284
410,-259,-671,-71,540,-461,-465,-146,-90,49,207,308
446,-283,-731,-77,588,-503,-489,-152,-102,55,231,326
476,-301,-779,-89,624,-539,-495,-152,-108,61,249,344
506,-319,-827,-89,666,-569,-483,-146,-108,67,267,362
536,-331,-869,-101,702,-599,-483,-134,-96,91,297,392
572,-337,-911,-119,738,-623,-489,-116,-72,133,345,428
614,-349,-965,-131,786,-653,-489,-74,-30,181,387,476
662,-373,-1037,-143,846,-701,-513,-44,0,223,429,512
710,-391,-1103,-155,906,-743,-555,-20,24,259,471,554
776,-409,-1187,-185,978,-797,-597,-3,52,307,531,602
848,-421,-1271,-215,1056,-845,-663,26,100,367,603,662
920,-421,-1343,-251,1128,-881,-735,50,148,445,687,722
998,-427,-1427,-281,1212,-923,-813,74,208,535,783,788
1088,-415,-1505,-335,1296,-959,-891,122,310,679,915,872
1190,-397,-1589,-395,1386,-989,-993,194,454,871,1083,986
1304,-367,-1673,-467,1488,-1019,-1119,248,610,1087,1281,1124
1424,-331,-1757,-545,1590,-1043,-1257,242,724,1297,1491,1268
1544,-289,-1835,-629,1686,-1061,-1407,164,772,1489,1701,1436
1652,-241,-1895,-707,1770,-1067,-1539,32,766,1639,1905,1604
1742,-187,-1931,-773,1836,-1055,-1653,-140,718,1747,2091,1760
1826,-127,-1955,-845,1890,-1037,-1755,-332,634,1819,2271,1916
1904,-67,-1973,-917,1938,-1019,-1839,-536,520,1861,2444,2072
1958,-31,-1991,-959,1974,-1007,-1911,-728,406,1897,2600,2210
1994,3,-1991,-995,1992,-989,-1953,-878,304,1933,2750,2330
2006,51,-1955,-1025,1980,-947,-1977,-998,220,1981,2894,2443
1982,93,-1889,-1031,1938,-893,-1971,-1076,172,2035,3044,2557
1916,147,-1769,-1031,1842,-809,-1929,-1094,178,2119,3188,2659
1814,207,-1607,-1007,1710,-695,-1833,-1064,214,2221,3320,2743
1676,261,-1415,-965,1548,-575,-1713,-998,286,2311,3410,2785
1514,315,-1199,-911,1356,-437,-1563,-908,364,2371,3446,2779
1352,339,-1013,-845,1182,-335,-1395,-806,436,2383,3404,2713
1184,345,-839,-761,1014,-245,-1227,-704,490,2347,3296,2581
1010,333,-677,-665,846,-167,-1047,-584,532,2275,3116,2390
836,309,-527,-569,684,-107,-867,-458,562,2143,2858,2132
662,261,-401,-455,534,-65,-693,-326,562,1939,2504,1820
506,195,-311,-347,408,-53,-549,-230,508,1627,2055,1466
374,111,-263,-239,318,-71,-417,-158,400,1225,1545,1100
272,45,-227,-155,252,-89,-315,-110,292,853,1089,794
200,3,-197,-101,198,-95,-231,-68,214,577,765,590
146,-20,-167,-59,156,-89,-159,-38,166,397,561,464
104,-25,-131,-41,114,-77,-99,-14,142,283,435,386
56,-31,-89,-11,72,-59,-51,2,112,211,351,338
14,-31,-47,13,30,-35,-9,20,88,163,285,302
-20,-25,-6,18,-10,-17,13,26,64,139,243,278
-50,-25,23,35,-40,-1,25,26,46,115,201,248
-62,-25,35,41,-52,5,31,26,34,103,159,224
-74,-31,41,53,-58,5,37,26,29,79,117,206
-80,-31,47,53,-64,5,49,26,24,55,75,188
-86,-37,47,59,-70,5,55,32,18,31,45,170
-92,-37,53,59,-76,5,73,32,12,3,15,152
-104,-43,59,71,-82,5,85,44,6,-21,-7,128
-116,-43,71,77,-94,11,103,50,0,-45,-31,110
-128,-43,83,83,-106,17,121,50,-6,-69,-49,98
-140,-43,95,89,-118,23,133,56,-12,-81,-67,80
-146,-43,101,95,-124,29,139,62,-18,-93,-85,68
-158,-43,113,101,-136,35,139,56,-24,-99,-103,62
-164,-43,119,101,-142,35,145,62,-24,-99,-115,56
-170,-49,119,107,-148,35,145,62,-24,-99,-127,56
-176,-55,119,113,-148,29,145,68,-24,-105,-139,50
-176,-61,113,113,-148,23,151,68,-30,-111,-151,44
-176,-61,113,113,-148,23,157,68,-30,-117,-157,38
-182,-61,119,119,-154,29,157,68,-30,-123,-157,32
-182,-61,119,119,-154,29,163,74,-30,-129,-163,32
-182,-61,119,119,-154,29,169,80,-24,-135,-169,32
-182,-61,119,119,-154,29,169,86,-24,-135,-175,32
-182,-55,125,119,-154,35,169,92,-18,-141,-175,32
-176,-55,119,113,-148,29,169,98,-18,-135,-181,38
-176,-49,125,107,-154,35,169,98,-12,-129,-181,44
-176,-43,131,107,-154,41,175,98,-12,-129,-181,44
-182,-43,137,113,-160,47,175,104,-12,-123,-181,38
-182,-43,137,113,-160,47,181,110,-12,-117,-181,38
-188,-43,143,113,-166,47,181,110,-6,-117,-181,38
-188,-37,149,107,-172,53,187,110,0,-117,-181,38
-182,-37,143,107,-166,53,187,122,6,-117,-181,38
-182,-37,143,107,-166,53,187,122,6,-111,-181,38
-182,-37,143,107,-166,53,187,128,6,-111,-169,38
-176,-37,137,101,-160,47,199,128,12,-105,-169,38
-176,-37,137,101,-160,47,199,134,12,-105,-169,44
-176,-37,137,101,-160,47,199,134,12,-99,-169,44
-176,-37,137,101,-160,47,199,140,12,-99,-163,44
-176,-31,143,101,-160,53,205,146,18,-99,-163,44
-176,-31,143,101,-160,53,205,152,24,-93,-163,44
-182,-37,143,107,-166,53,211,158,29,-93,-157,44
-182,-31,149,107,-166,59,211,164,29,-87,-151,44
-182,-25,155,101,-172,65,223,170,34,-87,-151,44
-182,-25,155,101,-172,65,229,182,40,-75,-145,44
-182,-20,161,101,-172,71,235,200,46,-69,-145,44
-182,-20,161,101,-172,71,247,218,58,-63,-139,44
-188,-20,167,101,-178,71,247,236,58,-57,-139,44
-182,-15,167,101,-172,77,253,248,64,-57,-139,44
-188,-9,179,95,-184,83,265,266,64,-51,-139,44
-188,-3,185,95,-184,89,271,278,70,-45,-139,44
-188,-3,185,95,-184,89,271,290,76,-39,-133,44
-188,-3,185,95,-184,89,271,296,82,-33,-127,50
-188,-3,185,95,-184,89,271,308,88,-27,-121,50
-188,-3,185,95,-184,89,277,314,94,-15,-121,50
-188,-3,185,95,-184,89,277,314,106,-3,-115,56
-194,3,197,95,-196,101,283,314,112,-3,-109,56
-200,9,209,95,-202,107,289,314,118,-3,-115,62
-200,9,209,95,-202,107,301,320,130,-3,-115,62
-200,9,209,95,-202,107,307,320,136,3,-115,62
-200,15,215,89,-208,113,313,332,148,3,-115,62
-206,21,227,95,-214,125,319,332,154,9,-115,62
-200,27,227,83,-214,125,325,338,160,15,-115,56
-200,27,227,83,-214,125,325,344,166,20,-109,56
-206,33,239,89,-220,137,325,350,172,25,-109,56
-206,33,239,89,-220,137,331,356,184,31,-109,56
-200,39,239,77,-220,137,343,362,190,37,-103,50
-206,45,251,83,-226,149,343,368,202,43,-103,56
-206,51,257,77,-232,155,349,374,208,43,-103,56
-212,63,275,71,-244,167,349,380,220,49,-103,50
-212,69,281,71,-244,173,355,392,232,55,-103,44
-212,81,293,65,-250,185,355,398,244,61,-109,44
-218,81,299,71,-256,191,361,404,262,67,-103,38
-212,87,299,59,-256,191,373,422,274,85,-97,38
-218,87,305,65,-262,197,379,434,280,91,-91,32
-218,93,311,65,-262,203,391,440,292,97,-91,32
-218,99,317,59,-268,209,397,446,292,97,-91,26
-218,111,329,53,-274,221,403,452,304,103,-91,20
-224,123,347,47,-286,233,403,464,316,109,-85,20
-224,129,353,47,-286,239,409,476,334,115,-85,20
-230,141,371,47,-298,257,421,494,346,115,-85,20
-236,147,383,41,-310,263,427,506,358,133,-85,20
-236,153,389,41,-310,269,439,518,370,145,-79,20
-242,159,401,41,-322,281,451,530,382,163,-73,26
-242,159,401,41,-322,281,463,542,400,175,-73,26
-248,165,413,41,-328,287,469,554,412,187,-73,26
-248,171,419,35,-334,293,481,566,430,199,-67,26
-248,177,425,35,-334,299,493,590,448,211,-67,26
-242,177,419,35,-328,299,505,602,466,217,-61,26
-248,183,431,29,-340,305,517,620,478,223,-61,26
-248,195,443,23,-346,317,529,632,496,229,-61,20
-248,195,443,23,-346,317,541,650,514,241,-61,20
-248,201,449,23,-346,323,553,662,526,253,-55,20
-254,207,461,23,-358,335,559,686,538,265,-49,26
-260,207,467,23,-364,335,571,704,556,277,-49,26
-260,213,473,23,-364,341,583,722,574,289,-43,26
-260,219,479,18,-370,347,595,740,592,307,-37,32
-254,225,479,18,-364,353,607,758,616,325,-25,32
-254,225,479,18,-364,353,619,782,634,343,-19,38
-254,231,485,13,-370,359,637,800,652,361,-7,38
-254,237,491,13,-370,365,643,824,670,385,-2,38
-248,237,485,7,-364,359,649,842,688,403,9,44
-248,243,491,1,-370,365,661,860,706,421,15,44
-248,249,497,1,-370,371,679,884,730,433,27,50
-242,249,491,1,-364,371,685,896,748,451,33,56
-236,243,479,-5,-358,359,691,914,766,469,39,68
-230,243,473,-5,-352,359,697,932,784,481,45,74
-230,243,473,-5,-352,359,703,944,802,493,57,86
-224,243,467,-11,-346,353,703,956,814,511,69,92
-218,237,455,-5,-334,347,709,968,832,523,81,104
-212,237,449,-11,-328,341,709,980,844,541,93,110
-212,237,449,-11,-328,341,703,992,850,553,99,116
-206,231,437,-11,-322,335,703,1004,862,571,105,128
-194,231,425,-17,-310,329,697,1010,868,583,117,140
-188,231,419,-23,-304,323,685,1010,874,595,129,146
-176,225,401,-23,-286,311,673,1004,874,601,135,152
-164,213,377,-23,-268,293,667,998,880,619,153,164
-158,213,371,-23,-262,293,649,986,880,625,165,176
-146,213,359,-29,-250,287,637,980,880,631,183,182
-134,207,341,-35,-238,275,619,962,868,631,195,188
-122,201,323,-35,-220,263,601,944,856,637,201,200
-110,189,299,-35,-202,245,583,920,838,637,213,206
-98,177,275,-35,-184,227,559,884,814,631,219,218
-86,171,257,-41,-172,215,535,854,790,625,225,218
-74,165,239,-41,-154,203,511,818,766,613,231,224
-68,153,221,-41,-142,185,481,776,736,595,237,224
-56,135,191,-41,-124,161,451,734,706,577,243,230
-50,123,173,-35,-112,149,421,698,670,559,243,230
-44,117,161,-35,-100,137,391,662,634,535,237,230
-38,105,143,-29,-88,125,367,626,592,511,231,224
-32,99,131,-35,-82,113,337,578,550,487,219,218
-32,93,125,-29,-76,107,313,536,508,457,207,212
-26,81,107,-23,-64,95,283,482,466,427,195,206
-26,75,101,-23,-64,89,259,434,424,397,177,200
-20,63,83,-23,-52,71,229,398,382,361,171,194
-15,51,65,-17,-40,59,205,350,340,331,153,188
-15,45,59,-11,-34,53,187,314,304,295,141,182
-15,33,47,-5,-28,41,163,278,268,265,123,170
-20,21,41,1,-28,29,139,248,232,229,105,158
-20,9,29,7,-22,17,127,224,196,205,87,140
-26,3,29,13,-28,17,115,194,166,175,69,134
-26,-3,23,18,-22,11,97,164,136,151,51,122
-26,-15,11,23,-16,-1,85,128,112,133,33,110
-26,-20,5,23,-16,-7,73,98,82,109,21,98
-32,-25,5,23,-22,-12,61,68,58,79,9,86
-32,-37,-6,29,-16,-23,55,50,34,49,-7,68
-32,-43,-11,35,-10,-29,43,26,12,25,-19,62
-32,-49,-17,35,-10,-35,37,14,-12,9,-31,56
-38,-49,-11,41,-16,-29,25,-3,-30,-15,-49,44
-38,-55,-17,47,-10,-35,25,-14,-42,-33,-61,32
-38,-61,-23,47,-10,-41,19,-20,-54,-51,-73,26
-44,-67,-23,53,-10,-47,13,-38,-72,-63,-85,20
-44,-73,-29,53,-10,-53,13,-50,-84,-75,-97,9
-50,-79,-29,65,-10,-53,7,-62,-96,-81,-103,4
-56,-73,-17,59,-22,-47,2,-74,-108,-87,-103,-2
-56,-73,-17,59,-22,-47,2,-80,-120,-93,-109,-8
-56,-79,-23,65,-16,-53,2,-92,-126,-105,-109,-8
-56,-79,-23,65,-16,-53,2,-98,-132,-111,-115,-14
-62,-85,-23,71,-22,-53,-3,-104,-132,-117,-121,-14
-62,-85,-23,71,-22,-53,-3,-104,-132,-123,-127,-20
-68,-97,-29,77,-22,-65,-3,-110,-138,-129,-133,-20
-68,-97,-29,77,-22,-65,-15,-116,-138,-135,-139,-26
-74,-103,-29,89,-22,-65,-9,-116,-144,-141,-139,-32
-74,-97,-23,83,-28,-59,-9,-122,-144,-141,-139,-38
-74,-97,-23,83,-28,-59,-15,-122,-144,-147,-145,-44
-74,-97,-23,83,-28,-59,-9,-128,-144,-147,-151,-50
-74,-97,-23,83,-28,-59,-9,-122,-150,-147,-151,-50
-74,-97,-23,83,-28,-59,-9,-128,-150,-153,-157,-50
-80,-91,-11,83,-34,-53,-15,-134,-156,-153,-157,-56
-80,-91,-11,83,-34,-53,-15,-140,-156,-159,-157,-56
-80,-91,-11,83,-34,-53,-21,-140,-156,-153,-157,-56
-80,-91,-11,83,-34,-53,-27,-134,-156,-153,-163,-56
-80,-91,-11,83,-34,-53,-27,-134,-156,-153,-163,-56
-74,-91,-17,83,-28,-53,-27,-134,-156,-153,-163,-62
-74,-91,-17,83,-28,-53,-27,-134,-156,-153,-163,-62
-74,-91,-17,83,-28,-53,-27,-134,-156,-153,-163,-62
-74,-91,-17,83,-28,-53,-27,-140,-156,-159,-163,-62
-74,-85,-11,77,-34,-47,-33,-134,-156,-159,-163,-62
-74,-85,-11,77,-34,-47,-33,-134,-156,-153,-163,-62
-80,-79,-1,77,-40,-41,-33,-134,-156,-153,-163,-62
-80,-79,-1,77,-40,-41,-33,-140,-156,-147,-169,-62
-86,-79,5,83,-46,-35,-33,-140,-156,-147,-169,-62
-86,-79,5,83,-46,-35,-33,-146,-162,-147,-169,-62
-86,-73,11,77,-52,-29,-33,-140,-156,-147,-169,-62
-86,-73,11,77,-52,-29,-39,-140,-156,-147,-169,-56
-80,-67,11,71,-46,-29,-39,-134,-150,-147,-163,-50
-80,-73,5,71,-46,-35,-33,-128,-150,-147,-157,-44
-80,-73,5,71,-46,-35,-33,-128,-150,-147,-157,-38
-80,-67,11,71,-46,-29,-33,-134,-150,-147,-163,-38
-80,-61,17,65,-52,-23,-27,-128,-150,-147,-157,-32
-80,-61,17,65,-52,-23,-27,-134,-144,-147,-157,-32
-86,-67,17,77,-52,-23,-27,-134,-144,-147,-163,-32
-86,-61,23,71,-58,-17,-27,-134,-144,-141,-163,-20
-74,-61,11,65,-46,-23,-27,-134,-144,-141,-157,-14
-74,-55,17,65,-46,-17,-27,-140,-144,-141,-157,-8
-68,-61,5,59,-40,-29,-21,-134,-144,-147,-157,-2
-68,-55,11,59,-40,-23,-21,-134,-144,-147,-151,4
-68,-49,17,53,-46,-17,-21,-140,-144,-141,-151,9
-68,-49,17,53,-46,-17,-21,-146,-144,-141,-151,9
-74,-49,23,59,-52,-12,-15,-146,-144,-141,-157,9
-80,-49,29,59,-58,-12,-15,-146,-138,-141,-157,9
-80,-49,29,59,-58,-12,-15,-146,-138,-141,-151,9
-80,-49,29,59,-58,-12,-15,-146,-138,-147,-151,9
-74,-49,23,59,-52,-12,-15,-146,-144,-147,-151,9
-74,-43,29,59,-52,-7,-15,-140,-144,-147,-145,9
-74,-43,29,59,-52,-7,-9,-140,-144,-141,-145,14
-74,-43,29,59,-52,-7,-9,-140,-138,-147,-145,14
-80,-43,35,59,-58,-7,-9,-134,-138,-147,-145,14
-80,-43,35,59,-58,-7,-9,-140,-144,-153,-151,20
-80,-43,35,59,-58,-7,-3,-140,-144,-153,-157,26
-74,-43,29,59,-52,-7,-3,-140,-144,-153,-157,26
-80,-43,35,59,-58,-7,-3,-140,-150,-159,-157,26
-80,-49,29,59,-58,-12,-3,-146,-150,-159,-163,26
-80,-43,35,59,-58,-7,-3,-140,-150,-159,-163,26
-80,-37,41,53,-64,-1,-3,-140,-144,-159,-157,26
-86,-37,47,59,-70,5,-3,-140,-150,-165,-163,20
-86,-37,47,59,-70,5,-3,-140,-150,-165,-157,20
-86,-37,47,59,-70,5,-3,-146,-156,-165,-145,20
-86,-31,53,59,-70,11,-9,-152,-156,-165,-145,20
-86,-31,53,59,-70,11,-9,-146,-156,-159,-145,14
-86,-43,41,65,-64,-1,-9,-146,-156,-159,-145,14
-80,-43,35,59,-58,-7,-15,-146,-162,-159,-151,9
-80,-49,29,59,-58,-12,-15,-146,-156,-165,-151,14
-80,-49,29,59,-58,-12,-15,-146,-156,-165,-157,14
-80,-49,29,59,-58,-12,-15,-152,-162,-165,-157,14
-80,-49,29,59,-58,-12,-15,-152,-162,-165,-157,14
-80,-43,35,59,-58,-7,-15,-152,-168,-171,-157,20
-80,-43,35,59,-58,-7,-15,-158,-168,-171,-163,20
-80,-43,35,59,-58,-7,-21,-164,-168,-177,-163,14
-80,-43,35,59,-58,-7,-21,-164,-174,-177,-163,14
-80,-49,29,59,-58,-12,-21,-158,-174,-183,-169,14
-86,-43,41,65,-64,-1,-21,-158,-180,-183,-169,9
-86,-43,41,65,-64,-1,-21,-164,-186,-177,-169,4
-86,-43,41,65,-64,-1,-21,-158,-186,-183,-175,4
-86,-43,41,65,-64,-1,-21,-158,-186,-183,-175,4
-80,-43,35,59,-58,-7,-27,-164,-192,-189,-175,-2
-74,-43,29,59,-52,-7,-27,-158,-192,-189,-181,-8
-74,-43,29,59,-52,-7,-27,-164,-192,-189,-181,-8
-68,-43,23,53,-46,-12,-27,-164,-192,-195,-187,-8
-74,-43,29,59,-52,-7,-27,-170,-192,-195,-187,-8
-74,-49,23,59,-52,-12,-27,-176,-198,-195,-193,-8
-74,-49,23,59,-52,-12,-27,-182,-198,-201,-193,-14
-74,-55,17,65,-46,-17,-27,-176,-204,-201,-199,-20
-80,-61,17,65,-52,-23,-27,-176,-204,-207,-199,-26
-80,-67,11,71,-46,-29,-33,-170,-210,-207,-205,-26
-80,-67,11,71,-46,-29,-39,-176,-216,-207,-205,-26
-80,-67,11,71,-46,-29,-39,-176,-222,-207,-205,-26
-80,-61,17,65,-52,-23,-39,-182,-228,-213,-205,-26
-86,-61,23,71,-58,-17,-39,-182,-228,-213,-205,-26
-86,-61,23,71,-58,-17,-33,-182,-228,-213,-205,-26
-86,-61,23,71,-58,-17,-33,-188,-228,-213,-205,-26
-86,-61,23,71,-58,-17,-33,-194,-228,-219,-211,-26
-92,-61,29,71,-64,-17,-33,-194,-228,-219,-217,-26
-86,-61,23,71,-58,-17,-33,-200,-228,-219,-217,-32
-86,-61,23,71,-58,-17,-33,-200,-234,-219,-217,-32
-86,-67,17,77,-52,-23,-39,-200,-234,-225,-217,-38
-80,-67,11,71,-46,-29,-33,-200,-228,-225,-217,-32
-80,-73,5,71,-46,-35,-33,-200,-228,-225,-217,-32
-80,-79,-1,77,-40,-41,-39,-206,-234,-225,-217,-32
-80,-85,-6,77,-40,-47,-39,-206,-228,-219,-217,-38
-80,-91,-11,83,-34,-53,-39,-206,-228,-219,-217,-38
-86,-85,-1,83,-46,-41,-39,-212,-234,-225,-211,-38
-86,-85,-1,83,-46,-41,-39,-218,-234,-225,-211,-38
-92,-91,-1,89,-46,-47,-45,-218,-240,-225,-217,-38
-92,-91,-1,89,-46,-47,-45,-218,-240,-225,-217,-38
-98,-85,11,89,-58,-35,-45,-218,-246,-225,-217,-32
-92,-85,5,83,-52,-41,-51,-212,-240,-231,-223,-32
-92,-85,5,83,-52,-41,-51,-218,-240,-237,-229,-38
-92,-85,5,83,-52,-41,-51,-218,-240,-243,-229,-38
-92,-85,5,83,-52,-41,-51,-218,-240,-249,-229,-38
-92,-85,5,83,-52,-41,-51,-224,-246,-249,-229,-44
-92,-91,-1,89,-46,-47,-51,-224,-246,-255,-229,-44
-86,-85,-1,83,-46,-41,-45,-218,-246,-255,-229,-44
-86,-91,-6,89,-40,-47,-45,-218,-246,-255,-229,-50
-86,-85,-1,83,-46,-41,-45,-218,-246,-255,-223,-44
-80,-85,-6,77,-40,-47,-45,-218,-246,-255,-217,-38
-80,-85,-6,77,-40,-47,-51,-218,-252,-255,-217,-38
-80,-85,-6,77,-40,-47,-57,-224,-252,-255,-217,-38
-80,-85,-6,77,-40,-47,-57,-224,-252,-255,-217,-32
-86,-91,-6,89,-40,-47,-57,-224,-246,-255,-217,-32
-86,-91,-6,89,-40,-47,-51,-218,-240,-261,-217,-32
-86,-97,-11,89,-40,-53,-51,-218,-240,-261,-217,-38
-86,-97,-11,89,-40,-53,-51,-218,-246,-267,-217,-38
-86,-91,-6,89,-40,-47,-51,-218,-246,-267,-217,-44
-80,-91,-11,83,-34,-53,-45,-218,-252,-261,-217,-44
-80,-91,-11,83,-34,-53,-45,-212,-252,-255,-217,-44
-80,-91,-11,83,-34,-53,-45,-212,-246,-255,-217,-44
-86,-91,-6,89,-40,-47,-45,-218,-252,-255,-217,-44
-86,-91,-6,89,-40,-47,-45,-218,-252,-255,-217,-44
-86,-91,-6,89,-40,-47,-45,-224,-252,-255,-217,-50
-86,-91,-6,89,-40,-47,-45,-224,-252,-255,-211,-50
-86,-97,-11,89,-40,-53,-51,-218,-252,-261,-211,-50
-80,-97,-17,83,-34,-59,-51,-218,-258,-267,-217,-44
-80,-103,-23,89,-28,-65,-51,-218,-258,-273,-217,-50
-80,-97,-17,83,-34,-59,-45,-224,-264,-273,-217,-50
-80,-97,-17,83,-34,-59,-45,-224,-264,-273,-217,-50
-74,-97,-23,83,-28,-59,-45,-224,-264,-279,-217,-56
-74,-97,-23,83,-28,-59,-51,-218,-264,-273,-223,-56
-80,-103,-23,89,-28,-65,-51,-218,-270,-267,-223,-62
-80,-103,-23,89,-28,-65,-51,-218,-270,-267,-223,-62
-80,-103,-23,89,-28,-65,-51,-218,-264,-267,-223,-56
-80,-103,-23,89,-28,-65,-51,-218,-264,-267,-223,-56
-80,-103,-23,89,-28,-65,-51,-218,-264,-267,-223,-62
-80,-103,-23,89,-28,-65,-45,-212,-264,-267,-217,-56
-80,-103,-23,89,-28,-65,-45,-206,-258,-267,-217,-62
-80,-103,-23,89,-28,-65,-45,-206,-258,-267,-217,-62
-80,-97,-17,83,-34,-59,-45,-206,-258,-267,-223,-68
-80,-103,-23,89,-28,-65,-45,-206,-258,-267,-223,-68
-80,-97,-17,83,-34,-59,-45,-206,-264,-273,-223,-68
-80,-103,-23,89,-28,-65,-45,-206,-264,-273,-223,-68
-80,-103,-23,89,-28,-65,-45,-206,-264,-273,-229,-68
-86,-97,-11,89,-40,-53,-45,-212,-264,-273,-229,-68
-86,-103,-17,95,-34,-59,-45,-212,-264,-273,-229,-68
-86,-97,-11,89,-40,-53,-45,-212,-270,-273,-229,-74
-80,-91,-11,83,-34,-53,-45,-218,-270,-279,-223,-80
-80,-91,-11,83,-34,-53,-45,-218,-276,-279,-229,-74
-80,-85,-6,77,-40,-47,-45,-212,-270,-279,-229,-68
-80,-91,-11,83,-34,-53,-45,-212,-264,-273,-223,-68
-80,-97,-17,83,-34,-59,-45,-212,-264,-273,-229,-68
-86,-97,-11,89,-40,-53,-45,-212,-264,-267,-229,-68
-86,-97,-11,89,-40,-53,-51,-218,-264,-267,-229,-74
-86,-97,-11,89,-40,-53,-51,-218,-264,-267,-229,-80
-86,-97,-11,89,-40,-53,-45,-212,-264,-273,-223,-74
-80,-91,-11,83,-34,-53,-45,-212,-270,-273,-223,-74
-80,-91,-11,83,-34,-53,-45,-212,-264,-273,-217,-74
-74,-91,-17,83,-28,-53,-45,-218,-264,-267,-217,-74
-74,-97,-23,83,-28,-59,-45,-218,-264,-267,-217,-74
-74,-91,-17,83,-28,-53,-45,-218,-264,-267,-223,-74
-74,-91,-17,83,-28,-53,-45,-212,-264,-267,-223,-80
-74,-97,-23,83,-28,-59,-45,-212,-264,-267,-223,-80
-80,-97,-17,83,-34,-59,-45,-212,-264,-267,-223,-80
-80,-97,-17,83,-34,-59,-45,-218,-264,-267,-223,-80
-80,-91,-11,83,-34,-53,-45,-218,-264,-273,-223,-86
-80,-91,-11,83,-34,-53,-51,-224,-264,-273,-223,-92
-74,-91,-17,83,-28,-53,-51,-224,-264,-273,-223,-98
-80,-97,-17,83,-34,-59,-51,-218,-264,-273,-223,-104
-80,-91,-11,83,-34,-53,-51,-218,-264,-273,-223,-104
-74,-85,-11,77,-34,-47,-57,-218,-264,-279,-217,-104
-74,-85,-11,77,-34,-47,-57,-218,-270,-279,-217,-110
-74,-85,-11,77,-34,-47,-57,-224,-270,-273,-217,-110
-74,-85,-11,77,-34,-47,-57,-224,-270,-267,-217,-110
-74,-85,-11,77,-34,-47,-57,-218,-276,-267,-217,-110
-80,-85,-6,77,-40,-47,-51,-218,-270,-273,-223,-116
-80,-79,-1,77,-40,-41,-51,-218,-270,-273,-223,-110
-80,-85,-6,77,-40,-47,-57,-218,-270,-273,-217,-116
-80,-85,-6,77,-40,-47,-57,-218,-264,-273,-217,-122
-80,-85,-6,77,-40,-47,-57,-218,-264,-273,-217,-128
-80,-85,-6,77,-40,-47,-57,-212,-264,-279,-217,-128
-80,-85,-6,77,-40,-47,-63,-218,-264,-279,-223,-134
-80,-85,-6,77,-40,-47,-57,-218,-264,-279,-223,-128
-80,-79,-1,77,-40,-41,-57,-224,-264,-279,-223,-128
-80,-79,-1,77,-40,-41,-57,-230,-264,-279,-223,-134
-86,-79,5,83,-46,-35,-51,-230,-264,-273,-217,-134
-86,-79,5,83,-46,-35,-51,-230,-264,-267,-217,-134
-80,-79,-1,77,-40,-41,-51,-218,-270,-273,-217,-134
-80,-73,5,71,-46,-35,-57,-218,-270,-273,-217,-134
-74,-73,-1,71,-40,-35,-57,-212,-258,-273,-217,-128
-68,-67,-1,65,-34,-35,-57,-206,-258,-273,-211,-128
-62,-61,-1,59,-34,-29,-51,-206,-252,-267,-211,-122
-62,-55,5,59,-34,-23,-45,-206,-246,-261,-205,-122
-56,-49,5,47,-34,-23,-33,-194,-234,-255,-199,-122
-56,-43,11,47,-34,-17,-27,-188,-234,-255,-193,-122
-50,-37,11,41,-34,-12,-15,-182,-228,-249,-187,-110
-50,-37,11,41,-34,-12,-15,-182,-222,-237,-187,-110
-44,-31,11,35,-28,-12,-15,-170,-210,-231,-175,-104
-38,-25,11,29,-28,-7,-9,-170,-204,-225,-175,-104
-32,-31,-1,29,-16,-17,-9,-158,-198,-213,-169,-104
-20,-31,-11,23,-5,-23,-3,-152,-192,-207,-169,-98
-15,-31,-17,23,0,-23,2,-140,-186,-195,-163,-92
-10,-25,-17,18,0,-17,2,-128,-174,-189,-157,-80
-4,-20,-17,13,6,-17,13,-122,-162,-183,-145,-80
2,-20,-23,13,12,-17,13,-116,-156,-183,-139,-74
8,-15,-23,7,18,-17,13,-110,-144,-171,-127,-68
14,-3,-17,1,18,-7,13,-104,-132,-159,-115,-62
20,3,-17,-11,18,-7,13,-98,-120,-147,-103,-56
26,9,-17,-11,24,-1,13,-92,-114,-141,-97,-44
26,9,-17,-11,24,-1,13,-86,-108,-129,-91,-44
38,15,-23,-23,30,-1,13,-86,-108,-123,-85,-38
38,15,-23,-23,30,-1,13,-86,-108,-123,-85,-32
44,15,-29,-29,36,-7,7,-86,-108,-111,-85,-26
44,9,-35,-23,42,-12,2,-86,-108,-117,-85,-26
32,3,-29,-17,30,-12,-3,-98,-120,-123,-91,-20
26,-3,-29,-5,30,-12,-9,-116,-132,-141,-97,-32
26,-15,-41,1,36,-23,-21,-134,-144,-153,-103,-38
20,-15,-35,1,30,-23,-33,-146,-156,-171,-109,-44
14,-20,-35,7,24,-23,-33,-158,-162,-183,-115,-44
14,-20,-35,7,24,-23,-39,-170,-174,-195,-127,-44
14,-25,-41,7,24,-29,-45,-170,-186,-201,-139,-44
8,-25,-35,7,18,-29,-45,-182,-186,-207,-145,-38
2,-31,-35,18,18,-29,-45,-188,-192,-213,-151,-38
-4,-31,-29,18,12,-29,-45,-200,-204,-219,-151,-44
-10,-31,-23,23,6,-23,-39,-200,-210,-219,-151,-50
-10,-25,-17,18,0,-17,-39,-200,-210,-213,-151,-44
-15,-31,-17,23,0,-23,-39,-194,-210,-213,-151,-44
-15,-31,-17,23,0,-23,-39,-200,-210,-219,-151,-44
-20,-37,-17,23,-5,-29,-45,-206,-216,-225,-157,-50
-26,-31,-6,29,-10,-17,-45,-212,-222,-231,-163,-56
-32,-31,-1,29,-16,-17,-45,-212,-222,-237,-169,-56
-32,-37,-6,29,-16,-23,-45,-218,-228,-243,-175,-62
-38,-43,-6,41,-16,-23,-45,-224,-234,-249,-181,-68
-50,-55,-6,53,-22,-29,-45,-230,-240,-261,-193,-74
-56,-67,-11,59,-22,-41,-45,-236,-252,-273,-205,-86
-68,-79,-11,71,-28,-47,-45,-242,-258,-279,-211,-92
-68,-79,-11,71,-28,-47,-45,-248,-258,-285,-217,-92
-68,-85,-17,71,-28,-53,-45,-248,-258,-291,-217,-92
-74,-91,-17,83,-28,-53,-45,-248,-258,-291,-223,-98
-74,-91,-17,83,-28,-53,-45,-248,-264,-291,-229,-98
-80,-103,-23,89,-28,-65,-39,-248,-264,-291,-229,-104
-80,-109,-29,89,-28,-71,-39,-248,-258,-291,-217,-104
-80,-115,-35,95,-22,-77,-39,-242,-252,-285,-217,-104
-80,-109,-29,89,-28,-71,-33,-242,-252,-285,-217,-104
-80,-109,-29,89,-28,-71,-33,-236,-252,-279,-211,-98
-74,-109,-35,89,-22,-71,-33,-236,-246,-273,-205,-92
-62,-109,-47,83,-10,-77,-33,-224,-234,-267,-193,-86
-50,-109,-59,77,0,-83,-33,-212,-222,-255,-181,-74
-38,-115,-77,77,18,-95,-33,-206,-210,-243,-169,-62
-26,-121,-95,71,30,-107,-27,-194,-192,-225,-151,-50
-15,-121,-107,65,42,-113,-27,-182,-180,-201,-133,-38
-4,-121,-119,59,54,-119,-27,-158,-162,-171,-109,-20
20,-121,-143,47,78,-131,-33,-140,-138,-141,-85,4
44,-115,-161,35,102,-137,-39,-122,-114,-105,-55,20
62,-115,-179,29,120,-143,-51,-104,-90,-75,-25,56
92,-109,-203,7,144,-155,-57,-92,-66,-51,3,80
122,-109,-233,-5,174,-167,-63,-80,-42,-27,33,98
152,-121,-275,-17,210,-197,-75,-68,-24,-3,63,116
182,-127,-311,-23,246,-215,-81,-56,-6,15,81,134
218,-139,-359,-35,288,-245,-105,-50,6,25,99,158
254,-145,-401,-53,324,-269,-141,-56,6,37,123,176
290,-157,-449,-65,366,-299,-183,-74,-6,49,135,194
320,-169,-491,-77,402,-329,-225,-92,-18,49,153,212
356,-193,-551,-83,450,-371,-261,-110,-30,55,171,230
392,-211,-605,-89,498,-407,-297,-116,-36,67,189,248
422,-235,-659,-89,540,-443,-315,-128,-42,73,213,272
464,-259,-725,-101,594,-491,-345,-128,-42,85,237,296
500,-277,-779,-113,636,-527,-363,-140,-48,97,261,320
530,-289,-821,-119,672,-551,-363,-140,-48,103,285,344
566,-295,-863,-131,714,-575,-369,-134,-36,127,309,368
608,-301,-911,-155,756,-605,-375,-116,-12,157,345,398
650,-313,-965,-167,804,-635,-381,-80,29,199,393,428
698,-331,-1031,-179,864,-677,-393,-44,64,247,435,464
752,-349,-1103,-203,924,-725,-429,-20,94,283,477,494
818,-361,-1181,-227,996,-767,-477,-3,118,325,537,536
884,-379,-1265,-251,1074,-821,-543,26,160,385,603,590
956,-379,-1337,-287,1146,-857,-621,50,202,457,681,644
1034,-373,-1409,-329,1218,-887,-705,80,268,553,777,716
1118,-367,-1487,-371,1302,-923,-783,128,352,673,891,794
1214,-349,-1565,-431,1386,-953,-879,206,484,835,1035,890
1322,-313,-1637,-503,1476,-971,-993,260,634,1033,1209,1010
1442,-277,-1721,-581,1578,-995,-1131,248,736,1219,1395,1142
1550,-235,-1787,-653,1668,-1007,-1281,158,772,1375,1575,1274
1658,-205,-1865,-725,1758,-1031,-1431,14,760,1501,1755,1406
1748,-175,-1925,-785,1836,-1049,-1563,-170,706,1591,1911,1538
1838,-139,-1979,-845,1908,-1055,-1671,-368,616,1651,2061,1664
1922,-97,-2021,-911,1968,-1055,-1779,-566,502,1693,2211,1802
2000,-49,-2051,-977,2022,-1049,-1863,-752,388,1729,2373,1934
2060,-20,-2081,-1019,2070,-1049,-1929,-914,286,1765,2516,2060
2096,21,-2075,-1055,2088,-1025,-1965,-1034,202,1807,2660,2186
2108,63,-2045,-1085,2076,-989,-1977,-1124,136,1861,2816,2306
2090,111,-1979,-1097,2034,-929,-1959,-1172,118,1921,2960,2420
2024,171,-1853,-1097,1938,-839,-1899,-1160,148,2011,3104,2521
1916,237,-1679,-1073,1800,-719,-1803,-1112,214,2125,3242,2605
1766,303,-1463,-1031,1614,-575,-1671,-1034,304,2239,3338,2653
1586,357,-1229,-965,1410,-431,-1509,-938,394,2317,3374,2647
1406,381,-1025,-887,1218,-317,-1341,-842,460,2341,3326,2575
1220,375,-845,-797,1032,-233,-1167,-740,508,2305,3212,2437
1040,363,-677,-701,858,-155,-993,-632,550,2233,3038,2252
854,339,-515,-593,684,-83,-813,-500,580,2095,2768,2006
668,303,-365,-485,516,-29,-639,-368,574,1873,2409,1688
512,249,-263,-377,390,-7,-483,-260,514,1537,1953,1328
386,171,-215,-275,300,-17,-351,-188,394,1117,1437,962
278,111,-167,-191,222,-23,-249,-140,286,757,1005,668
200,69,-131,-131,168,-29,-165,-104,214,505,705,470
134,45,-89,-83,114,-17,-99,-80,160,343,513,350
86,21,-65,-47,78,-17,-39,-68,118,247,393,266
38,9,-29,-17,36,-7,2,-50,82,181,315,212
-4,3,5,1,-5,5,37,-50,46,127,261,170
-26,3,29,13,-28,17,55,-50,29,91,219,134
-44,3,47,18,-46,23,67,-44,18,73,171,98
-56,3,59,23,-58,29,73,-44,6,43,135,68
-74,3,77,35,-76,41,79,-38,6,20,87,44
-86,-3,83,47,-82,41,91,-38,0,-3,45,20
-98,-3,95,53,-94,47,97,-26,0,-27,3,-2
-110,-9,101,59,-106,47,115,-20,-6,-57,-19,-26
-122,-15,107,71,-112,47,127,-14,-18,-81,-49,-44
-134,-20,113,77,-124,47,139,-14,-24,-105,-67,-62
-146,-20,125,83,-136,53,151,-8,-36,-123,-85,-80
-152,-20,131,83,-142,53,157,-8,-42,-129,-97,-92
-158,-20,137,89,-148,59,163,-8,-48,-141,-109,-98
-158,-15,143,89,-148,65,163,-8,-54,-153,-127,-110
-164,-9,155,83,-160,71,169,-3,-54,-159,-139,-122
-170,-9,161,89,-166,77,169,-3,-54,-171,-151,-134
-176,-15,161,95,-166,71,175,-3,-54,-177,-163,-140
-176,-15,161,95,-166,71,187,2,-54,-183,-169,-140
-176,-15,161,95,-166,71,193,8,-54,-183,-175,-140
-182,-15,167,101,-172,77,199,8,-54,-189,-175,-146
-188,-15,173,101,-178,77,205,8,-54,-195,-181,-140
-188,-9,179,95,-184,83,211,14,-54,-189,-187,-140
-188,-9,179,95,-184,83,211,20,-54,-195,-187,-140
-194,-9,185,101,-190,89,211,20,-48,-189,-187,-134
-200,-3,197,101,-196,95,217,20,-42,-183,-193,-128
-200,-3,197,101,-196,95,217,26,-42,-183,-193,-110
-200,-3,197,101,-196,95,223,26,-36,-183,-193,-104
-206,-3,203,107,-202,101,223,26,-42,-189,-199,-104
-200,-3,197,101,-196,95,223,26,-36,-189,-199,-104
-200,-3,197,101,-196,95,229,26,-36,-189,-199,-104
-200,-3,197,101,-196,95,229,38,-36,-195,-199,-98
-200,3,203,95,-202,101,235,38,-36,-195,-193,-104
-200,3,203,95,-202,101,235,38,-30,-189,-187,-104
-200,3,203,95,-202,101,235,38,-24,-189,-187,-104
-200,9,209,95,-202,107,235,44,-18,-183,-181,-104
-194,15,209,89,-202,113,235,50,-12,-183,-181,-104
-194,15,209,89,-202,113,235,56,-6,-183,-175,-98
-200,21,221,89,-208,119,241,68,-6,-177,-181,-98
-194,27,221,83,-208,125,247,68,0,-177,-181,-98
-194,33,227,83,-208,131,247,74,0,-171,-181,-86
-194,33,227,83,-208,131,247,80,6,-165,-175,-86
-194,33,227,83,-208,131,253,80,6,-159,-175,-86
-194,27,221,83,-208,125,259,86,12,-159,-169,-80
-188,33,221,77,-202,125,265,92,18,-153,-163,-80
-194,33,227,83,-208,131,265,104,24,-153,-163,-80
-194,39,233,77,-214,137,271,110,29,-147,-163,-80
-194,45,239,77,-214,143,271,116,29,-141,-163,-80
-194,45,239,77,-214,143,271,116,40,-135,-157,-86
-194,51,245,71,-220,149,277,122,46,-135,-157,-80
-194,51,245,71,-220,149,289,128,52,-129,-151,-80
-200,57,257,71,-226,155,295,134,58,-129,-151,-80
-200,57,257,71,-226,155,307,140,64,-117,-145,-80
-206,57,263,77,-232,161,313,158,76,-111,-145,-74
-206,63,269,71,-238,167,319,164,82,-111,-145,-74
-206,63,269,71,-238,167,325,170,94,-105,-139,-74
-206,69,275,71,-238,173,331,176,100,-105,-139,-80
-206,69,275,71,-238,173,337,182,112,-99,-133,-80
-206,69,275,71,-238,173,343,194,118,-93,-127,-80
-206,75,281,65,-244,179,349,200,124,-87,-121,-86
-212,69,281,71,-244,173,349,206,130,-75,-121,-86
-212,69,281,71,-244,173,355,224,136,-63,-115,-86
-218,75,293,71,-256,185,361,230,142,-57,-115,-86
-224,81,305,71,-262,191,361,236,148,-57,-115,-80
-224,87,311,65,-268,197,367,242,160,-51,-121,-80
-230,93,323,71,-274,209,373,248,166,-45,-121,-80
-230,99,329,65,-280,215,379,254,178,-39,-115,-80
-230,105,335,65,-280,221,385,266,190,-33,-109,-74
-230,99,329,65,-280,215,391,272,202,-21,-109,-74
-230,99,329,65,-280,215,397,290,214,-15,-109,-74
-236,105,341,65,-286,221,403,296,220,-9,-109,-80
-236,105,341,65,-286,221,409,302,232,-3,-103,-86
-236,111,347,59,-292,227,415,314,244,3,-103,-80
-242,117,359,65,-298,239,421,326,250,15,-97,-86
-242,123,365,59,-304,245,427,332,262,20,-97,-86
-242,129,371,59,-304,251,439,350,280,25,-97,-86
-248,135,383,53,-316,257,445,362,298,31,-97,-80
-254,135,389,59,-322,263,457,380,316,37,-97,-80
-254,141,395,59,-322,269,463,392,328,49,-91,-80
-254,153,407,53,-328,281,475,404,340,61,-91,-86
-248,153,401,47,-322,275,487,422,352,73,-91,-86
-248,159,407,41,-328,281,493,434,364,85,-91,-86
-248,165,413,41,-328,287,505,446,376,91,-91,-86
-254,171,425,41,-340,299,517,458,388,103,-85,-86
-254,183,437,35,-346,311,523,476,406,109,-79,-86
-254,177,431,41,-340,305,535,494,418,115,-79,-86
-260,177,437,41,-346,305,547,518,436,121,-73,-86
-266,183,449,41,-358,317,553,536,454,133,-73,-86
-266,183,449,41,-358,317,565,548,478,145,-61,-86
-272,189,461,41,-364,323,571,566,496,157,-55,-86
-272,195,467,35,-370,329,583,584,508,175,-55,-80
-272,195,467,35,-370,329,589,608,532,199,-49,-74
-272,201,473,35,-370,335,601,626,550,211,-43,-74
-278,201,479,41,-376,341,613,644,568,223,-43,-68
-278,207,485,35,-382,347,625,668,586,241,-31,-62
-278,207,485,35,-382,347,643,698,610,253,-25,-56
-284,213,497,35,-388,353,661,716,628,265,-19,-56
-290,213,503,41,-394,359,673,740,646,277,-7,-50
-290,219,509,35,-400,365,685,758,658,301,-2,-50
-290,219,509,35,-400,365,691,770,676,319,3,-38
-284,225,509,29,-394,365,697,788,700,337,15,-38
-284,225,509,29,-394,365,703,806,718,355,27,-32
-284,219,503,29,-394,359,709,830,742,373,33,-26
-278,225,503,29,-388,365,715,854,760,385,39,-20
-278,225,503,29,-388,365,727,872,778,397,45,-8
-272,225,497,23,-382,359,739,896,796,421,51,-2
-272,231,503,18,-388,365,739,914,814,439,63,-2
-260,231,491,13,-376,359,745,932,826,457,75,4
-254,231,485,13,-370,359,745,944,844,475,87,9
-254,225,479,18,-364,353,745,962,856,493,99,14
-248,225,473,13,-358,347,751,974,868,511,111,20
-242,219,461,13,-352,341,745,992,886,523,129,26
-230,219,449,7,-340,335,739,998,892,535,135,38
-224,219,443,1,-334,329,733,1004,910,547,147,50
-218,213,431,7,-322,323,727,1004,916,559,153,62
-206,207,413,1,-310,311,715,1004,922,571,165,74
-194,201,395,1,-292,299,703,998,928,583,183,92
-182,195,377,-5,-280,287,685,992,928,595,195,104
-170,195,365,-11,-268,281,667,980,916,595,207,110
-152,183,335,-17,-244,257,643,968,904,601,219,116
-140,177,317,-17,-226,245,619,956,892,607,231,128
-128,171,299,-23,-214,233,595,932,880,607,243,140
-110,165,275,-23,-190,221,571,896,856,595,249,146
-98,165,263,-29,-178,215,541,860,832,583,249,152
-86,159,245,-35,-166,203,517,824,802,571,249,158
-74,153,227,-35,-148,191,487,782,772,559,249,164
-68,147,215,-41,-142,179,451,740,736,547,249,170
-62,135,197,-35,-130,167,421,698,700,529,243,170
-50,117,167,-29,-106,143,391,656,664,511,243,170
-44,99,143,-29,-94,119,361,620,628,481,237,170
-44,93,137,-23,-88,113,331,578,592,451,225,164
-38,81,119,-17,-76,101,307,536,550,415,219,158
-32,75,107,-23,-70,89,283,500,508,385,207,152
-26,63,89,-17,-58,77,259,458,472,355,195,140
-26,51,77,-11,-52,65,241,422,430,325,177,140
-26,39,65,-5,-46,53,223,380,388,295,165,128
-20,27,47,-5,-34,35,205,338,346,265,147,110
-20,21,41,1,-28,29,181,296,310,235,129,98
-20,3,23,7,-22,11,169,254,268,205,117,86
-20,-9,11,13,-16,-1,151,218,232,169,105,74
-20,-20,-1,18,-10,-12,133,188,202,133,87,62
-15,-31,-17,23,0,-23,115,158,166,103,69,44
-20,-37,-17,23,-5,-29,97,134,136,73,51,38
-20,-43,-23,29,0,-35,85,110,106,49,39,26
-20,-49,-29,29,0,-41,79,86,76,25,21,14
-26,-49,-23,35,-5,-35,67,62,52,9,3,9
-26,-55,-29,41,0,-41,55,38,40,-3,-7,-2
-32,-61,-29,41,-5,-47,43,14,24,-21,-25,-14
-38,-67,-29,53,-5,-47,37,2,12,-45,-37,-32
-38,-73,-35,53,-5,-53,31,-3,-6,-57,-49,-44
-44,-79,-35,59,-5,-59,25,-14,-18,-75,-61,-56
-44,-85,-41,59,-5,-65,25,-26,-36,-93,-73,-68
-50,-97,-47,71,-5,-71,19,-32,-48,-105,-79,-80
-50,-97,-47,71,-5,-71,13,-44,-54,-123,-85,-92
-50,-97,-47,71,-5,-71,7,-50,-66,-135,-97,-92
-50,-103,-53,77,0,-77,2,-62,-72,-141,-103,-98
-50,-103,-53,77,0,-77,2,-68,-84,-147,-103,-104
-56,-109,-53,77,-5,-83,-3,-74,-96,-153,-109,-110
-56,-103,-47,77,-5,-77,-3,-80,-102,-159,-121,-116
-62,-103,-41,83,-10,-71,-9,-80,-108,-165,-127,-122
-62,-109,-47,83,-10,-77,-15,-86,-114,-171,-133,-134
-68,-103,-35,83,-16,-71,-15,-98,-120,-183,-139,-146
-68,-109,-41,83,-16,-77,-15,-98,-126,-189,-139,-146
-68,-109,-41,83,-16,-77,-15,-104,-126,-189,-139,-146
-68,-103,-35,83,-16,-71,-15,-110,-126,-195,-145,-152
-74,-109,-35,89,-22,-71,-15,-110,-132,-201,-151,-164
-74,-103,-29,89,-22,-65,-15,-110,-132,-195,-157,-164
-80,-103,-23,89,-28,-65,-15,-110,-138,-189,-157,-164
-80,-97,-17,83,-34,-59,-9,-110,-132,-183,-163,-170
-80,-97,-17,83,-34,-59,-9,-110,-132,-177,-163,-176
-80,-91,-11,83,-34,-53,-15,-110,-132,-177,-163,-176
-74,-85,-11,77,-34,-47,-15,-116,-132,-177,-163,-176
-74,-85,-11,77,-34,-47,-15,-122,-132,-171,-163,-176
-74,-91,-17,83,-28,-53,-15,-116,-132,-171,-157,-176
-74,-91,-17,83,-28,-53,-15,-116,-132,-177,-157,-176
-74,-91,-17,83,-28,-53,-15,-116,-132,-177,-157,-176
-74,-79,-6,77,-34,-41,-15,-116,-132,-177,-157,-176
-80,-79,-1,77,-40,-41,-21,-110,-132,-171,-163,-182
-80,-79,-1,77,-40,-41,-15,-110,-138,-171,-163,-188
-86,-73,11,77,-52,-29,-15,-110,-138,-171,-169,-182
-80,-73,5,71,-46,-35,-15,-116,-138,-171,-175,-188
-80,-73,5,71,-46,-35,-15,-116,-138,-171,-175,-188
-80,-73,5,71,-46,-35,-15,-110,-138,-171,-181,-188
-80,-67,11,71,-46,-29,-15,-110,-138,-171,-175,-182
-80,-67,11,71,-46,-29,-15,-110,-138,-159,-175,-188
-80,-61,17,65,-52,-23,-15,-116,-138,-159,-175,-188
-74,-61,11,65,-46,-23,-15,-110,-144,-159,-175,-188
-74,-61,11,65,-46,-23,-21,-110,-144,-159,-175,-188
-74,-67,5,71,-40,-29,-21,-110,-138,-159,-169,-188
-68,-61,5,59,-40,-29,-15,-110,-138,-159,-169,-188
-68,-61,5,59,-40,-29,-21,-110,-138,-159,-169,-188
-68,-61,5,59,-40,-29,-15,-104,-132,-153,-169,-176
-68,-55,11,59,-40,-23,-9,-104,-132,-153,-169,-170
-68,-49,17,53,-46,-17,-9,-104,-132,-153,-163,-164
-74,-49,23,59,-52,-12,-9,-110,-132,-153,-163,-158
-74,-55,17,65,-46,-17,-9,-110,-132,-153,-163,-146
-74,-49,23,59,-52,-12,2,-110,-138,-147,-163,-146
-74,-49,23,59,-52,-12,2,-116,-138,-147,-163,-146
-74,-49,23,59,-52,-12,2,-116,-138,-141,-163,-140
-74,-49,23,59,-52,-12,7,-116,-138,-129,-163,-134
-74,-43,29,59,-52,-7,7,-122,-132,-135,-163,-134
-74,-43,29,59,-52,-7,7,-116,-132,-135,-163,-134
-74,-43,29,59,-52,-7,7,-122,-132,-141,-169,-134
-74,-43,29,59,-52,-7,2,-122,-126,-141,-163,-128
-80,-37,41,53,-64,-1,7,-128,-132,-141,-169,-128
-80,-31,47,53,-64,5,7,-128,-132,-147,-169,-128
-80,-25,53,47,-70,11,7,-128,-138,-147,-169,-134
-80,-31,47,53,-64,5,7,-128,-144,-153,-169,-134
-80,-31,47,53,-64,5,7,-128,-144,-153,-163,-134
-80,-31,47,53,-64,5,7,-128,-144,-153,-163,-134
-80,-25,53,47,-70,11,7,-128,-144,-147,-163,-134
-74,-25,47,47,-64,11,7,-128,-144,-153,-169,-128
-74,-25,47,47,-64,11,7,-134,-144,-153,-169,-128
-74,-25,47,47,-64,11,2,-134,-144,-147,-175,-128
-74,-20,53,47,-64,17,2,-134,-144,-147,-169,-128
-74,-20,53,47,-64,17,2,-134,-144,-153,-169,-128
-80,-20,59,47,-70,17,2,-134,-144,-153,-169,-134
-80,-25,53,47,-70,11,2,-134,-150,-159,-169,-134
-86,-25,59,53,-76,17,2,-134,-150,-159,-175,-140
-80,-20,59,47,-70,17,2,-134,-150,-159,-175,-134
-86,-25,59,53,-76,17,-3,-128,-150,-159,-175,-134
-86,-25,59,53,-76,17,-3,-128,-150,-165,-175,-140
-86,-25,59,53,-76,17,-3,-134,-150,-165,-175,-146
-86,-20,65,53,-76,23,-3,-134,-150,-165,-181,-140
-86,-25,59,53,-76,17,-3,-140,-150,-165,-181,-146
-86,-25,59,53,-76,17,-3,-140,-150,-165,-181,-152
-86,-20,65,53,-76,23,-9,-146,-156,-171,-181,-158
-86,-20,65,53,-76,23,-9,-146,-162,-171,-187,-158
-80,-15,65,47,-70,23,-9,-152,-168,-171,-187,-158
-80,-15,65,47,-70,23,-9,-146,-168,-171,-187,-164
-80,-15,65,47,-70,23,-9,-140,-174,-171,-187,-170
-80,-15,65,47,-70,23,-9,-140,-174,-171,-193,-164
-80,-20,59,47,-70,17,-9,-146,-180,-171,-193,-170
-86,-20,65,53,-76,23,-9,-152,-180,-171,-199,-176
-92,-25,65,53,-82,17,-15,-158,-180,-177,-199,-176
-92,-31,59,59,-76,11,-15,-158,-186,-177,-199,-176
-92,-31,59,59,-76,11,-15,-158,-186,-177,-199,-176
-92,-25,65,53,-82,17,-15,-164,-186,-177,-199,-182
-86,-25,59,53,-76,17,-9,-164,-186,-183,-205,-182
-86,-25,59,53,-76,17,-15,-164,-186,-189,-211,-176
-86,-25,59,53,-76,17,-21,-164,-192,-189,-217,-182
-86,-25,59,53,-76,17,-27,-170,-192,-189,-217,-182
-86,-25,59,53,-76,17,-27,-170,-198,-189,-223,-188
-86,-25,59,53,-76,17,-33,-176,-204,-189,-223,-182
-86,-25,59,53,-76,17,-33,-182,-204,-189,-223,-182
-86,-25,59,53,-76,17,-27,-182,-198,-195,-217,-188
-86,-25,59,53,-76,17,-27,-188,-198,-195,-223,-188
-86,-25,59,53,-76,17,-27,-188,-198,-195,-223,-182
-86,-25,59,53,-76,17,-33,-194,-198,-201,-229,-182
-86,-31,53,59,-70,11,-33,-200,-204,-201,-229,-188
-86,-37,47,59,-70,5,-39,-200,-204,-207,-235,-188
-86,-37,47,59,-70,5,-33,-200,-204,-207,-235,-188
-86,-37,47,59,-70,5,-33,-200,-210,-213,-235,-188
-80,-37,41,53,-64,-1,-33,-206,-210,-213,-235,-194
-80,-37,41,53,-64,-1,-33,-206,-216,-213,-235,-188
-86,-43,41,65,-64,-1,-33,-206,-216,-213,-235,-188
-86,-43,41,65,-64,-1,-33,-212,-216,-213,-229,-188
-92,-43,47,65,-70,-1,-33,-212,-222,-219,-235,-188
-92,-49,41,65,-70,-7,-33,-218,-222,-225,-235,-182
-92,-49,41,65,-70,-7,-33,-224,-228,-225,-241,-182
-86,-49,35,65,-64,-7,-27,-224,-228,-225,-247,-188
-86,-49,35,65,-64,-7,-27,-230,-234,-225,-247,-188
-80,-55,23,65,-52,-17,-27,-224,-234,-219,-247,-182
-80,-55,23,65,-52,-17,-27,-224,-234,-219,-247,-182
-80,-61,17,65,-52,-23,-27,-224,-234,-219,-247,-182
-86,-61,23,71,-58,-17,-27,-224,-240,-225,-247,-188
-86,-61,23,71,-58,-17,-27,-230,-240,-225,-247,-188
-86,-61,23,71,-58,-17,-33,-230,-246,-225,-247,-188
-86,-67,17,77,-52,-23,-27,-230,-252,-231,-253,-182
-86,-67,17,77,-52,-23,-27,-230,-252,-231,-247,-182
-86,-67,17,77,-52,-23,-27,-230,-252,-225,-247,-182
-86,-67,17,77,-52,-23,-27,-230,-252,-225,-253,-182
-86,-67,17,77,-52,-23,-27,-236,-252,-225,-253,-188
-86,-67,17,77,-52,-23,-27,-236,-252,-225,-253,-194
-92,-67,23,77,-58,-23,-27,-236,-252,-231,-253,-188
-92,-67,23,77,-58,-23,-27,-242,-246,-231,-253,-188
-92,-67,23,77,-58,-23,-21,-242,-246,-231,-259,-194
-92,-67,23,77,-58,-23,-21,-248,-246,-231,-253,-194
-98,-73,23,83,-64,-23,-21,-248,-246,-237,-259,-194
-98,-67,29,83,-64,-17,-27,-242,-252,-237,-259,-194
-92,-67,23,77,-58,-23,-27,-242,-252,-237,-253,-188
-92,-61,29,71,-64,-17,-33,-242,-252,-237,-253,-188
-92,-61,29,71,-64,-17,-33,-242,-252,-237,-259,-182
-92,-55,35,71,-64,-12,-39,-242,-252,-237,-259,-176
-92,-55,35,71,-64,-12,-39,-236,-252,-231,-259,-176
-92,-61,29,71,-64,-17,-33,-236,-258,-231,-259,-176
-92,-61,29,71,-64,-17,-33,-236,-258,-225,-259,-170
-92,-67,23,77,-58,-23,-39,-236,-258,-231,-259,-170
-92,-67,23,77,-58,-23,-39,-236,-258,-231,-253,-170
-86,-67,17,77,-52,-23,-39,-236,-264,-231,-253,-170
-92,-73,17,77,-58,-29,-45,-236,-264,-231,-253,-164
-92,-73,17,77,-58,-29,-39,-236,-264,-231,-253,-164
-92,-67,23,77,-58,-23,-27,-236,-264,-237,-253,-164
-92,-67,23,77,-58,-23,-27,-236,-264,-237,-253,-164
-86,-67,17,77,-52,-23,-27,-242,-258,-237,-247,-152
-86,-67,17,77,-52,-23,-27,-242,-258,-237,-247,-158
-92,-73,17,77,-58,-29,-33,-236,-264,-243,-253,-158
-92,-73,17,77,-58,-29,-39,-230,-264,-243,-253,-158
-92,-73,17,77,-58,-29,-39,-230,-258,-237,-253,-152
-86,-73,11,77,-52,-29,-39,-230,-258,-237,-253,-158
-92,-73,17,77,-58,-29,-33,-236,-258,-243,-253,-158
-92,-73,17,77,-58,-29,-33,-242,-258,-243,-253,-158
-92,-79,11,83,-52,-35,-33,-242,-252,-243,-253,-152
-86,-73,11,77,-52,-29,-33,-242,-258,-243,-253,-152
-86,-73,11,77,-52,-29,-33,-242,-258,-237,-247,-158
-86,-79,5,83,-46,-35,-27,-236,-258,-237,-247,-158
-86,-73,11,77,-52,-29,-27,-236,-258,-237,-247,-152
-86,-73,11,77,-52,-29,-33,-236,-258,-243,-247,-152
-86,-79,5,83,-46,-35,-33,-236,-258,-237,-247,-158
-86,-73,11,77,-52,-29,-33,-236,-258,-243,-241,-158
-80,-73,5,71,-46,-35,-39,-236,-252,-243,-241,-152
-80,-79,-1,77,-40,-41,-39,-236,-252,-243,-241,-146
-80,-85,-6,77,-40,-47,-45,-236,-252,-243,-241,-146
-86,-85,-1,83,-46,-41,-45,-242,-252,-237,-241,-146
-86,-85,-1,83,-46,-41,-51,-242,-246,-237,-241,-146
-86,-85,-1,83,-46,-41,-51,-248,-252,-237,-241,-146
-92,-85,5,83,-52,-41,-51,-248,-252,-243,-241,-152
-92,-79,11,83,-52,-35,-51,-248,-252,-243,-247,-152
-92,-85,5,83,-52,-41,-51,-248,-258,-243,-253,-146
-86,-85,-1,83,-46,-41,-51,-248,-258,-243,-253,-146
-86,-91,-6,89,-40,-47,-51,-242,-252,-243,-247,-146
-86,-91,-6,89,-40,-47,-51,-242,-252,-243,-247,-146
-86,-85,-1,83,-46,-41,-45,-242,-252,-249,-247,-140
-86,-85,-1,83,-46,-41,-45,-242,-258,-243,-247,-140
-86,-85,-1,83,-46,-41,-45,-242,-252,-243,-247,-140
-86,-79,5,83,-46,-35,-45,-236,-252,-243,-247,-140
-86,-79,5,83,-46,-35,-45,-236,-258,-237,-247,-140
-86,-79,5,83,-46,-35,-45,-236,-258,-231,-247,-146
-86,-79,5,83,-46,-35,-45,-236,-258,-237,-247,-146
-86,-85,-1,83,-46,-41,-45,-236,-258,-243,-247,-140
-80,-91,-11,83,-34,-53,-45,-236,-252,-243,-247,-146
-80,-91,-11,83,-34,-53,-39,-236,-252,-243,-241,-146
-80,-91,-11,83,-34,-53,-39,-236,-252,-243,-241,-152
-86,-91,-6,89,-40,-47,-33,-236,-252,-243,-241,-146
-86,-91,-6,89,-40,-47,-39,-242,-252,-243,-241,-152
-86,-91,-6,89,-40,-47,-39,-242,-252,-237,-241,-152
-92,-91,-1,89,-46,-47,-39,-242,-258,-237,-241,-152
-92,-91,-1,89,-46,-47,-39,-236,-258,-243,-241,-146
-92,-91,-1,89,-46,-47,-39,-236,-258,-243,-241,-152
-92,-91,-1,89,-46,-47,-39,-230,-258,-249,-235,-152
-86,-91,-6,89,-40,-47,-39,-230,-258,-243,-235,-152
-86,-91,-6,89,-40,-47,-39,-236,-258,-243,-235,-152
-86,-91,-6,89,-40,-47,-39,-236,-252,-243,-229,-152
-86,-91,-6,89,-40,-47,-39,-242,-252,-237,-229,-152
-80,-91,-11,83,-34,-53,-33,-242,-246,-231,-229,-158
-80,-91,-11,83,-34,-53,-33,-242,-246,-231,-229,-152
-80,-97,-17,83,-34,-59,-33,-236,-246,-231,-229,-152
-80,-103,-23,89,-28,-65,-33,-236,-246,-231,-229,-158
-86,-103,-17,95,-34,-59,-27,-236,-246,-237,-235,-164
-86,-103,-17,95,-34,-59,-33,-236,-246,-243,-235,-158
-86,-103,-17,95,-34,-59,-33,-242,-246,-243,-235,-158
-86,-103,-17,95,-34,-59,-33,-236,-246,-243,-229,-152
-86,-97,-11,89,-40,-53,-33,-236,-246,-243,-229,-152
-86,-91,-6,89,-40,-47,-39,-236,-246,-243,-223,-146
-86,-79,5,83,-46,-35,-33,-236,-246,-237,-223,-146
-86,-79,5,83,-46,-35,-33,-230,-246,-237,-223,-146
-86,-73,11,77,-52,-29,-33,-230,-246,-237,-223,-146
-86,-67,17,77,-52,-23,-33,-230,-246,-237,-223,-140
-86,-67,17,77,-52,-23,-33,-230,-252,-243,-229,-140
-80,-55,23,65,-52,-17,-33,-230,-246,-243,-229,-146
-74,-49,23,59,-52,-12,-33,-230,-246,-243,-229,-146
-68,-37,29,47,-52,-7,-33,-230,-240,-237,-229,-146
-68,-25,41,41,-58,5,-27,-230,-234,-237,-229,-140
-62,-20,41,41,-52,11,-27,-224,-228,-231,-223,-140
-56,-20,35,35,-46,5,-21,-218,-222,-225,-217,-140
-56,-15,41,35,-46,11,-15,-212,-216,-225,-211,-134
-50,-9,41,29,-46,17,-3,-206,-204,-213,-211,-122
-50,-3,47,29,-46,23,2,-200,-204,-213,-205,-116
-44,3,47,18,-46,23,2,-194,-198,-201,-199,-110
-38,3,41,18,-40,23,7,-188,-192,-195,-193,-110
-32,9,41,13,-34,23,2,-182,-186,-189,-187,-104
-20,9,29,7,-22,17,2,-176,-180,-183,-187,-98
-15,9,23,7,-16,17,7,-164,-168,-177,-181,-92
-10,9,17,7,-10,17,13,-158,-156,-171,-169,-92
-4,15,17,-5,-10,17,13,-152,-150,-165,-163,-80
2,27,23,-11,-10,29,19,-140,-138,-159,-157,-80
8,39,29,-23,-10,35,19,-134,-132,-147,-139,-74
14,51,35,-29,-10,47,19,-128,-126,-135,-133,-68
26,57,29,-35,0,47,19,-122,-120,-129,-127,-56
32,63,29,-47,0,47,13,-122,-114,-117,-127,-50
38,63,23,-47,6,47,13,-122,-108,-111,-121,-44
38,57,17,-41,12,41,7,-116,-102,-105,-109,-44
38,57,17,-41,12,41,2,-110,-102,-99,-103,-38
38,51,11,-41,12,35,2,-110,-102,-99,-103,-38
38,45,5,-35,18,29,-3,-110,-108,-105,-103,-38
32,39,5,-35,12,23,-9,-128,-120,-117,-109,-50
26,39,11,-29,6,29,-15,-140,-132,-129,-121,-62
20,33,11,-23,6,23,-27,-158,-144,-147,-127,-62
20,27,5,-23,6,17,-33,-170,-156,-159,-139,-68
14,27,11,-17,0,23,-33,-176,-168,-165,-145,-74
8,15,5,-11,0,11,-39,-188,-174,-171,-157,-68
2,9,5,1,0,11,-45,-194,-186,-177,-163,-68
2,9,5,1,0,11,-45,-206,-198,-183,-169,-68
-4,3,5,1,-5,5,-51,-218,-204,-189,-169,-68
-4,-3,-1,7,0,-1,-57,-224,-210,-195,-169,-62
-10,-3,5,13,-5,5,-51,-224,-210,-195,-175,-62
-15,3,17,7,-16,11,-51,-224,-210,-195,-175,-62
-15,-3,11,13,-10,5,-51,-224,-210,-195,-169,-62
-15,-3,11,13,-10,5,-45,-224,-216,-201,-169,-62
-26,-3,23,18,-22,11,-45,-224,-222,-201,-175,-62
-32,-9,23,18,-28,5,-51,-230,-228,-207,-181,-62
-44,-9,35,23,-40,11,-51,-236,-228,-213,-187,-68
-50,-15,35,35,-40,11,-51,-242,-228,-213,-193,-68
-62,-20,41,41,-52,11,-57,-248,-234,-219,-199,-68
-68,-25,41,41,-58,5,-63,-260,-240,-237,-211,-74
-74,-37,35,53,-58,-1,-63,-266,-252,-255,-223,-80
-80,-43,35,59,-58,-7,-69,-278,-264,-267,-229,-86
-80,-55,23,65,-52,-17,-69,-278,-264,-273,-235,-80
-80,-61,17,65,-52,-23,-63,-278,-270,-273,-235,-86
-80,-67,11,71,-46,-29,-63,-278,-276,-279,-235,-86
-80,-67,11,71,-46,-29,-57,-278,-270,-273,-235,-86
-80,-61,17,65,-52,-23,-57,-278,-270,-273,-235,-86
-86,-61,23,71,-58,-17,-51,-278,-264,-267,-235,-86
-86,-67,17,77,-52,-23,-51,-272,-264,-267,-235,-86
-86,-67,17,77,-52,-23,-51,-272,-258,-261,-241,-86
-80,-67,11,71,-46,-29,-51,-266,-252,-261,-235,-74
-74,-67,5,71,-40,-29,-51,-260,-246,-255,-229,-68
-62,-73,-11,65,-28,-41,-51,-254,-240,-249,-217,-62
-50,-73,-23,59,-16,-47,-51,-248,-228,-237,-205,-56
-38,-85,-47,59,0,-65,-51,-242,-216,-225,-193,-44
-26,-85,-59,53,12,-71,-51,-230,-204,-207,-175,-26
-15,-85,-71,47,24,-77,-51,-218,-180,-189,-151,-14
2,-79,-83,41,42,-77,-51,-200,-156,-153,-127,4
26,-73,-101,23,60,-83,-51,-188,-132,-117,-103,20
56,-67,-125,7,90,-95,-57,-170,-108,-93,-73,56
86,-61,-149,-11,114,-101,-69,-152,-90,-63,-43,86
116,-61,-179,-29,144,-119,-75,-134,-66,-39,-19,104
146,-55,-203,-41,174,-125,-87,-116,-48,-15,9,116
170,-67,-239,-47,204,-149,-93,-104,-30,3,27,140
200,-79,-281,-59,240,-179,-111,-98,-18,20,45,152
236,-91,-329,-71,282,-209,-141,-98,-18,25,69,164
278,-103,-383,-83,330,-239,-183,-110,-18,31,81,182
314,-115,-431,-95,372,-269,-225,-134,-24,37,99,200
356,-133,-491,-113,420,-311,-261,-146,-30,49,117,230
386,-145,-533,-119,456,-335,-297,-152,-36,55,141,254
422,-157,-581,-131,498,-365,-321,-164,-36,67,171,278
464,-175,-641,-143,552,-407,-345,-164,-36,85,195,296
500,-199,-701,-149,600,-449,-375,-164,-36,91,219,320
530,-217,-749,-155,636,-479,-381,-164,-42,97,231,338
566,-229,-797,-167,678,-509,-381,-158,-42,109,255,356
602,-241,-845,-179,720,-539,-393,-152,-30,127,279,380
650,-253,-905,-197,774,-575,-405,-128,0,163,315,416
698,-271,-971,-209,834,-617,-417,-104,29,205,357,458
752,-289,-1043,-233,894,-665,-441,-80,46,241,399,488
812,-307,-1121,-251,966,-713,-489,-68,64,277,441,524
878,-313,-1193,-281,1032,-749,-555,-56,94,319,495,566
944,-319,-1265,-311,1104,-791,-627,-32,136,379,555,614
1022,-319,-1343,-347,1182,-827,-705,-3,190,451,633,680
1106,-313,-1421,-395,1260,-863,-789,38,262,541,729,746
1202,-301,-1505,-449,1350,-899,-879,110,376,673,849,824
1304,-283,-1589,-509,1446,-935,-987,170,508,841,999,926
1418,-253,-1673,-581,1542,-959,-1125,176,604,1015,1161,1040
1538,-223,-1763,-653,1650,-989,-1269,110,646,1165,1323,1154
1646,-193,-1841,-725,1740,-1013,-1425,-26,640,1279,1479,1274
1754,-157,-1913,-797,1830,-1031,-1563,-200,592,1381,1629,1394
1844,-127,-1973,-857,1908,-1049,-1677,-386,526,1441,1761,1496
1928,-91,-2021,-917,1974,-1055,-1779,-578,442,1477,1887,1616
2012,-49,-2063,-983,2034,-1055,-1863,-752,352,1519,2025,1736
2084,-20,-2105,-1031,2094,-1061,-1929,-890,274,1555,2163,1862
2144,15,-2129,-1079,2136,-1055,-1977,-1004,208,1603,2307,1976
2180,63,-2117,-1121,2148,-1025,-2007,-1088,154,1657,2456,2090
2192,111,-2081,-1151,2136,-983,-2007,-1154,118,1717,2612,2210
2168,165,-2003,-1163,2088,-917,-1977,-1178,118,1801,2762,2312
2102,225,-1877,-1157,1992,-821,-1905,-1160,154,1903,2900,2408
1982,285,-1697,-1127,1842,-701,-1803,-1106,238,2017,3026,2479
1826,345,-1481,-1079,1656,-563,-1665,-1028,334,2125,3110,2527
1640,399,-1241,-1019,1440,-419,-1497,-926,436,2203,3140,2515
1436,417,-1019,-923,1230,-299,-1329,-818,508,2221,3086,2443
1244,417,-827,-827,1038,-203,-1149,-710,562,2197,2966,2306
1046,405,-641,-719,846,-113,-975,-584,610,2125,2804,2132
842,387,-455,-611,648,-29,-789,-452,634,1999,2558,1892
650,351,-299,-497,474,29,-615,-332,616,1777,2217,1598
494,279,-215,-383,354,35,-453,-248,526,1435,1767,1244
362,201,-161,-275,264,23,-321,-194,394,1027,1281,896
260,135,-125,-197,192,5,-219,-164,280,691,885,626
194,87,-107,-137,150,-7,-147,-134,208,469,621,452
128,63,-65,-95,96,-1,-87,-116,166,337,441,338
74,39,-35,-53,54,5,-39,-98,124,247,333,266
26,33,5,-23,12,23,2,-98,94,181,255,218
-15,27,41,-5,-28,35,25,-92,70,139,207,182
-38,27,65,7,-52,47,43,-92,46,103,177,158
-62,27,89,18,-76,59,55,-86,29,79,147,134
-74,27,101,23,-88,65,67,-86,29,55,117,110
-80,21,101,29,-88,59,73,-86,18,25,81,80
-86,15,101,35,-94,59,85,-80,12,9,39,56
-92,15,107,35,-100,59,97,-74,12,-9,-2,38
-104,9,113,47,-106,59,109,-68,0,-27,-37,14
-122,3,125,59,-124,65,121,-68,-6,-45,-67,9
-140,3,143,65,-142,71,127,-68,-18,-63,-85,-2
-152,-3,149,77,-148,71,139,-68,-24,-75,-97,-8
-164,-3,161,83,-160,77,145,-68,-30,-93,-103,-20
-170,-3,167,89,-166,83,157,-68,-36,-99,-109,-32
-176,-3,173,89,-172,83,163,-62,-36,-111,-121,-44
-182,-9,173,95,-178,83,169,-62,-36,-117,-133,-50
-188,-9,179,95,-184,83,175,-56,-42,-129,-145,-62
-188,-9,179,95,-184,83,175,-50,-36,-129,-157,-68
-194,-9,185,101,-190,89,181,-44,-30,-135,-169,-68
-194,-15,179,107,-184,83,187,-38,-30,-141,-175,-68
-188,-15,173,101,-178,77,193,-32,-30,-147,-175,-68
-188,-9,179,95,-184,83,199,-32,-30,-147,-175,-74
-194,-3,191,101,-190,95,199,-32,-30,-147,-181,-80
-194,-3,191,101,-190,95,199,-32,-24,-153,-187,-74
-200,-3,197,101,-196,95,205,-32,-24,-153,-187,-74
-200,-3,197,101,-196,95,211,-26,-18,-153,-193,-74
-200,-3,197,101,-196,95,211,-26,-18,-153,-199,-74
-206,-3,203,107,-202,101,211,-20,-18,-147,-199,-74
-206,-3,203,107,-202,101,217,-20,-18,-147,-205,-80
-206,-3,203,107,-202,101,217,-14,-12,-147,-205,-80
-200,-3,197,101,-196,95,217,-14,-12,-147,-199,-86
-200,3,203,95,-202,101,217,-8,-6,-141,-199,-86
-194,3,197,95,-196,101,223,-3,0,-141,-193,-86
-194,-3,191,101,-190,95,229,2,6,-141,-199,-86
-194,-3,191,101,-190,95,235,8,6,-135,-199,-86
-188,-3,185,95,-184,89,241,8,12,-135,-199,-80
-194,-3,191,101,-190,95,241,14,12,-135,-199,-80
-194,-3,191,101,-190,95,247,20,18,-135,-199,-74
-194,3,197,95,-196,101,247,20,18,-129,-199,-74
-194,9,203,95,-196,107,247,26,24,-123,-199,-74
-200,9,209,95,-202,107,253,32,29,-117,-193,-74
-206,15,221,95,-214,119,253,38,29,-111,-187,-68
-206,21,227,95,-214,125,259,44,34,-111,-181,-68
-206,21,227,95,-214,125,259,50,40,-105,-175,-68
-206,15,221,95,-214,119,265,56,40,-105,-169,-62
-206,21,227,95,-214,125,271,68,46,-99,-163,-62
-206,15,221,95,-214,119,271,74,52,-93,-163,-56
-206,21,227,95,-214,125,271,86,58,-87,-163,-62
-212,21,233,95,-220,125,271,92,64,-81,-157,-62
-206,27,233,89,-220,131,277,104,76,-81,-151,-62
-206,33,239,89,-220,137,283,116,82,-75,-151,-62
-206,39,245,83,-226,143,295,122,88,-69,-145,-56
-206,39,245,83,-226,143,301,128,100,-63,-145,-56
-206,33,239,89,-220,137,301,134,100,-57,-139,-56
-206,33,239,89,-220,137,307,134,112,-51,-139,-56
-212,33,245,89,-226,137,319,140,124,-51,-133,-50
-212,39,251,83,-232,143,325,152,130,-45,-127,-44
-212,45,257,83,-232,149,331,158,136,-45,-127,-44
-218,45,263,89,-238,155,337,170,142,-39,-127,-44
-218,51,269,83,-244,161,337,182,154,-39,-127,-44
-218,51,269,83,-244,161,337,188,160,-33,-121,-38
-218,57,275,83,-244,167,343,200,172,-21,-115,-38
-224,63,287,77,-256,173,343,206,178,-15,-115,-44
-230,63,293,83,-262,179,349,212,190,-9,-115,-50
-230,63,293,83,-262,179,355,218,196,3,-115,-50
-236,69,305,83,-268,185,367,230,214,15,-109,-50
-236,75,311,77,-274,191,373,236,226,20,-109,-56
-236,81,317,77,-274,197,379,248,232,20,-103,-68
-236,81,317,77,-274,197,385,254,238,25,-97,-74
-236,87,323,71,-280,203,391,260,250,25,-97,-86
-242,87,329,77,-286,209,397,272,256,25,-97,-86
-242,99,341,71,-292,221,409,284,262,31,-91,-92
-248,105,353,71,-298,227,409,296,274,37,-91,-98
-248,111,359,65,-304,233,415,314,280,43,-91,-98
-254,117,371,71,-310,245,427,326,292,55,-91,-104
-254,123,377,65,-316,251,433,338,310,67,-91,-98
-254,129,383,65,-316,257,445,344,322,73,-91,-104
-260,129,389,65,-322,257,451,356,340,85,-97,-104
-266,129,395,71,-328,263,463,368,352,91,-97,-104
-260,141,401,59,-328,269,475,380,358,103,-97,-104
-266,141,407,65,-334,275,487,392,370,109,-91,-104
-260,147,407,53,-334,275,499,410,388,121,-85,-110
-260,153,413,53,-334,281,505,422,406,127,-79,-110
-260,159,419,47,-340,287,511,440,418,139,-79,-110
-266,165,431,53,-346,299,523,452,436,151,-79,-110
-272,165,437,53,-352,299,535,470,454,163,-73,-110
-272,171,443,47,-358,305,547,482,466,169,-67,-110
-278,177,455,53,-364,317,565,500,484,181,-67,-110
-290,177,467,59,-376,323,583,518,502,193,-61,-110
-290,189,479,53,-382,335,589,536,520,205,-55,-104
-296,195,491,47,-394,341,601,554,538,217,-55,-110
-296,195,491,47,-394,341,613,578,556,235,-49,-116
-296,195,491,47,-394,341,625,596,568,253,-37,-116
-296,195,491,47,-394,341,637,620,586,271,-31,-122
-296,201,497,47,-394,347,655,638,604,289,-31,-122
-290,207,497,41,-394,353,661,656,628,307,-25,-122
-290,213,503,41,-394,359,673,674,646,319,-19,-122
-290,219,509,35,-400,365,691,692,664,325,-7,-122
-290,225,515,35,-400,371,703,710,682,337,-2,-116
-290,225,515,35,-400,371,709,722,700,349,3,-116
-296,231,527,29,-412,377,721,740,724,361,9,-110
-296,225,521,35,-406,371,727,764,742,379,9,-116
-296,231,527,29,-412,377,739,782,754,403,21,-116
-296,231,527,29,-412,377,751,806,778,427,33,-110
-290,237,527,29,-406,383,763,830,796,445,45,-104
-290,243,533,23,-412,389,769,848,814,469,63,-98
-284,243,527,18,-406,383,769,860,832,481,75,-98
-278,249,527,18,-400,389,769,878,844,499,75,-92
-266,243,509,13,-388,377,775,890,856,511,81,-92
-260,243,503,7,-382,371,769,896,868,517,87,-92
-254,243,497,7,-376,371,763,908,880,529,93,-80
-248,231,479,7,-364,353,757,914,892,541,105,-74
-236,231,467,1,-352,347,751,926,904,559,123,-68
-224,219,443,1,-334,329,739,932,910,571,135,-62
-212,219,431,-5,-322,323,727,932,916,589,147,-56
-200,219,419,-11,-310,317,715,932,922,601,165,-50
-182,219,401,-17,-292,311,697,926,922,613,177,-38
-170,213,383,-17,-274,299,685,914,922,619,189,-26
-158,213,371,-23,-262,293,667,902,916,625,201,-20
-146,207,353,-29,-250,281,643,890,904,631,207,-14
-134,207,341,-35,-238,275,619,866,892,631,207,-8
-128,195,323,-35,-226,257,595,830,874,631,219,4
-110,189,299,-35,-202,245,565,800,856,619,225,4
-98,183,281,-41,-190,233,529,764,826,613,231,9
-86,171,257,-41,-172,215,499,728,796,595,237,9
-74,165,239,-41,-154,203,469,692,766,583,237,9
-62,159,221,-47,-142,191,439,656,730,571,237,9
-56,147,203,-47,-130,173,409,620,694,547,231,9
-56,135,191,-41,-124,161,379,578,658,529,225,9
-50,123,173,-35,-112,149,355,530,616,505,219,9
-44,117,161,-35,-100,137,331,488,574,475,207,4
-32,105,137,-35,-82,119,307,440,538,451,195,-2
-26,93,119,-29,-70,107,277,398,496,421,189,-8
-26,81,107,-23,-64,95,247,356,466,391,177,-14
-26,69,95,-17,-58,83,223,308,430,355,159,-26
-26,63,89,-17,-58,77,199,272,388,325,141,-38
-26,51,77,-11,-52,65,175,236,352,295,123,-50
-26,39,65,-5,-46,53,151,200,310,259,105,-68
-26,33,59,1,-40,47,133,170,274,229,87,-74
-26,21,47,7,-34,35,115,140,238,205,75,-92
-20,15,35,1,-28,23,97,110,202,181,63,-104
-20,3,23,7,-22,11,85,80,172,157,51,-122
-26,-15,11,23,-16,-1,73,50,148,133,39,-140
-26,-20,5,23,-16,-7,61,20,124,109,27,-152
-20,-31,-11,23,-5,-23,49,-3,100,79,9,-164
-20,-31,-11,23,-5,-23,37,-20,76,55,-2,-176
-26,-37,-11,29,-10,-23,25,-44,52,37,-19,-194
-26,-43,-17,35,-5,-29,19,-62,34,15,-37,-212
-32,-49,-17,35,-10,-35,13,-74,18,-3,-49,-224
-38,-55,-17,47,-10,-35,2,-86,6,-15,-61,-230
-44,-55,-11,47,-16,-35,2,-104,-12,-33,-73,-236
-44,-67,-23,53,-10,-47,-3,-116,-24,-45,-79,-248
-50,-73,-23,59,-16,-47,-9,-128,-42,-57,-85,-254
-50,-79,-29,65,-10,-53,-15,-140,-48,-69,-91,-260
-50,-85,-35,65,-10,-59,-15,-146,-60,-81,-97,-272
-50,-91,-41,71,-5,-65,-15,-158,-66,-87,-103,-278
-56,-85,-29,65,-16,-59,-21,-164,-78,-93,-115,-290
-56,-91,-35,71,-10,-65,-27,-170,-84,-105,-121,-302
-56,-85,-29,65,-16,-59,-27,-176,-90,-111,-127,-314
-56,-91,-35,71,-10,-65,-27,-182,-90,-111,-127,-326
-56,-85,-29,65,-16,-59,-27,-182,-96,-117,-133,-332
-56,-85,-29,65,-16,-59,-27,-188,-96,-123,-139,-332
-56,-91,-35,71,-10,-65,-33,-188,-102,-129,-139,-332
-56,-85,-29,65,-16,-59,-45,-194,-108,-135,-145,-338
-56,-85,-29,65,-16,-59,-45,-200,-114,-135,-139,-344
-56,-85,-29,65,-16,-59,-45,-200,-114,-135,-145,-344
-56,-91,-35,71,-10,-65,-45,-206,-120,-135,-145,-344
-56,-91,-35,71,-10,-65,-39,-206,-120,-135,-151,-338
-62,-91,-29,77,-16,-59,-39,-212,-126,-141,-151,-332
-62,-85,-23,71,-22,-53,-39,-212,-126,-141,-157,-326
-62,-79,-17,71,-22,-47,-45,-206,-126,-141,-157,-320
-62,-79,-17,71,-22,-47,-45,-206,-126,-141,-157,-314
-62,-79,-17,71,-22,-47,-45,-206,-120,-141,-157,-314
-62,-73,-11,65,-28,-41,-51,-200,-120,-147,-157,-314
-62,-73,-11,65,-28,-41,-51,-194,-120,-147,-157,-308
-62,-79,-17,71,-22,-47,-51,-194,-120,-147,-157,-302
-68,-79,-11,71,-28,-47,-51,-194,-114,-147,-151,-302
-68,-79,-11,71,-28,-47,-45,-194,-108,-141,-151,-302
-68,-79,-11,71,-28,-47,-51,-200,-114,-147,-151,-302
-68,-73,-6,65,-34,-41,-57,-206,-114,-147,-151,-302
-68,-73,-6,65,-34,-41,-57,-212,-120,-153,-157,-308
-68,-67,-1,65,-34,-35,-57,-212,-126,-159,-157,-302
-74,-73,-1,71,-40,-35,-51,-212,-126,-153,-157,-302
-74,-73,-1,71,-40,-35,-51,-206,-126,-153,-163,-302
-68,-73,-6,65,-34,-41,-51,-206,-126,-153,-163,-302
-68,-67,-1,65,-34,-35,-51,-200,-120,-153,-163,-302
-68,-61,5,59,-40,-29,-51,-194,-120,-147,-163,-302
-68,-55,11,59,-40,-23,-51,-188,-120,-147,-163,-308
-62,-55,5,59,-34,-23,-51,-182,-120,-141,-157,-308
-62,-55,5,59,-34,-23,-51,-182,-120,-147,-157,-308
-62,-55,5,59,-34,-23,-45,-176,-120,-147,-157,-308
-62,-49,11,53,-40,-17,-45,-176,-120,-147,-157,-314
-62,-55,5,59,-34,-23,-51,-170,-120,-147,-157,-314
-56,-55,-1,53,-28,-29,-51,-164,-114,-141,-151,-314
-56,-49,5,47,-34,-23,-51,-164,-114,-141,-151,-314
-56,-49,5,47,-34,-23,-51,-164,-114,-141,-145,-314
-56,-43,11,47,-34,-17,-39,-158,-108,-141,-151,-308
-56,-43,11,47,-34,-17,-39,-158,-108,-141,-145,-308
-62,-43,17,53,-40,-12,-39,-158,-102,-141,-145,-308
-62,-43,17,53,-40,-12,-39,-158,-108,-135,-145,-314
-62,-43,17,53,-40,-12,-33,-164,-108,-141,-145,-314
-62,-49,11,53,-40,-17,-33,-158,-114,-135,-145,-320
-62,-43,17,53,-40,-12,-33,-158,-114,-135,-145,-320
-62,-43,17,53,-40,-12,-33,-158,-114,-141,-145,-314
-62,-43,17,53,-40,-12,-33,-158,-114,-147,-145,-308
-62,-43,17,53,-40,-12,-33,-158,-120,-147,-145,-308
-62,-37,23,47,-46,-7,-33,-158,-120,-153,-145,-308
-62,-37,23,47,-46,-7,-27,-152,-120,-153,-145,-308
-62,-31,29,47,-46,-1,-27,-152,-126,-159,-145,-314
-62,-31,29,47,-46,-1,-27,-158,-126,-153,-145,-314
-68,-31,35,47,-52,-1,-21,-152,-126,-147,-151,-314
-68,-37,29,47,-52,-7,-15,-152,-120,-147,-151,-308
-68,-31,35,47,-52,-1,-15,-152,-120,-147,-145,-308
-68,-31,35,47,-52,-1,-15,-146,-126,-147,-145,-308
-68,-31,35,47,-52,-1,-15,-146,-126,-147,-145,-308
-68,-31,35,47,-52,-1,-15,-140,-132,-147,-139,-314
-74,-31,41,53,-58,5,-15,-140,-132,-153,-139,-314
-74,-31,41,53,-58,5,-15,-146,-132,-153,-139,-314
-74,-31,41,53,-58,5,-15,-146,-132,-159,-145,-320
-68,-31,35,47,-52,-1,-15,-146,-132,-153,-145,-320
-74,-31,41,53,-58,5,-15,-146,-138,-153,-145,-320
-74,-37,35,53,-58,-1,-15,-146,-138,-147,-151,-320
-74,-31,41,53,-58,5,-21,-146,-138,-147,-151,-320
-74,-31,41,53,-58,5,-21,-140,-138,-153,-157,-326
-68,-31,35,47,-52,-1,-15,-140,-144,-153,-157,-326
-68,-31,35,47,-52,-1,-15,-140,-144,-159,-151,-332
-68,-31,35,47,-52,-1,-15,-140,-150,-159,-157,-332
-68,-31,35,47,-52,-1,-15,-140,-150,-165,-157,-344
-74,-31,41,53,-58,5,-15,-134,-150,-165,-157,-350
-74,-31,41,53,-58,5,-15,-134,-150,-165,-163,-356
-80,-31,47,53,-64,5,-15,-134,-150,-165,-169,-362
-80,-31,47,53,-64,5,-21,-134,-156,-165,-169,-368
-74,-31,41,53,-58,5,-27,-134,-156,-165,-169,-374
-74,-31,41,53,-58,5,-27,-140,-162,-165,-169,-386
-74,-31,41,53,-58,5,-21,-140,-168,-171,-175,-392
-74,-31,41,53,-58,5,-21,-140,-168,-171,-175,-398
-74,-31,41,53,-58,5,-27,-140,-180,-177,-175,-404
-74,-25,47,47,-64,11,-27,-146,-180,-183,-175,-410
-74,-25,47,47,-64,11,-27,-146,-186,-189,-181,-416
-74,-20,53,47,-64,17,-33,-146,-192,-189,-181,-422
-74,-20,53,47,-64,17,-33,-146,-192,-195,-187,-428
-68,-25,41,41,-58,5,-33,-152,-192,-195,-187,-428
-68,-25,41,41,-58,5,-33,-152,-192,-189,-187,-428
-68,-25,41,41,-58,5,-33,-152,-198,-195,-187,-428
-68,-25,41,41,-58,5,-33,-158,-198,-195,-193,-434
-74,-25,47,47,-64,11,-39,-158,-204,-195,-193,-440
-74,-25,47,47,-64,11,-39,-164,-204,-201,-199,-440
-80,-31,47,53,-64,5,-39,-170,-204,-201,-199,-446
-80,-31,47,53,-64,5,-45,-170,-210,-207,-205,-446
-80,-31,47,53,-64,5,-51,-170,-210,-207,-199,-452
-80,-37,41,53,-64,-1,-51,-170,-210,-207,-199,-458
-80,-43,35,59,-58,-7,-45,-176,-204,-213,-199,-452
-74,-37,35,53,-58,-1,-45,-176,-204,-213,-199,-440
-74,-37,35,53,-58,-1,-45,-176,-210,-213,-205,-440
-74,-43,29,59,-52,-7,-45,-176,-216,-213,-211,-446
-74,-49,23,59,-52,-12,-39,-176,-216,-213,-211,-440
-74,-55,17,65,-46,-17,-45,-176,-216,-219,-211,-434
-80,-55,23,65,-52,-17,-45,-176,-222,-225,-211,-434
-80,-55,23,65,-52,-17,-45,-176,-216,-225,-217,-434
-80,-55,23,65,-52,-17,-45,-176,-216,-225,-211,-434
-80,-61,17,65,-52,-23,-45,-176,-216,-225,-211,-434
-86,-67,17,77,-52,-23,-39,-176,-216,-219,-205,-428
-86,-67,17,77,-52,-23,-45,-176,-216,-225,-205,-428
-80,-67,11,71,-46,-29,-45,-176,-216,-219,-205,-422
-80,-61,17,65,-52,-23,-39,-182,-222,-219,-205,-422
-74,-61,11,65,-46,-23,-39,-182,-216,-219,-205,-416
-74,-55,17,65,-46,-17,-39,-182,-222,-225,-211,-410
-74,-55,17,65,-46,-17,-39,-188,-228,-231,-211,-410
-74,-61,11,65,-46,-23,-39,-188,-228,-231,-211,-410
-74,-55,17,65,-46,-17,-39,-188,-234,-231,-211,-410
-80,-61,17,65,-52,-23,-39,-188,-240,-231,-217,-410
-80,-67,11,71,-46,-29,-39,-188,-240,-237,-217,-404
-80,-67,11,71,-46,-29,-39,-188,-240,-243,-217,-404
-80,-67,11,71,-46,-29,-39,-194,-240,-243,-211,-410
-86,-67,17,77,-52,-23,-33,-200,-240,-237,-211,-410
-86,-67,17,77,-52,-23,-33,-200,-246,-237,-217,-404
-86,-67,17,77,-52,-23,-27,-200,-246,-237,-217,-404
-86,-67,17,77,-52,-23,-21,-200,-246,-237,-217,-398
-86,-61,23,71,-58,-17,-15,-200,-246,-237,-223,-392
-86,-61,23,71,-58,-17,-15,-200,-246,-243,-223,-392
-86,-61,23,71,-58,-17,-15,-206,-246,-243,-229,-386
-80,-61,17,65,-52,-23,-15,-206,-246,-243,-223,-380
-80,-67,11,71,-46,-29,-9,-206,-246,-243,-217,-374
-80,-67,11,71,-46,-29,-15,-206,-252,-249,-217,-374
-80,-67,11,71,-46,-29,-15,-200,-252,-249,-217,-374
-80,-73,5,71,-46,-35,-15,-200,-258,-243,-217,-374
-80,-73,5,71,-46,-35,-15,-206,-264,-243,-211,-368
-86,-73,11,77,-52,-29,-9,-206,-264,-243,-217,-368
-86,-73,11,77,-52,-29,-9,-206,-264,-249,-223,-368
-86,-73,11,77,-52,-29,-15,-206,-264,-249,-223,-368
-86,-73,11,77,-52,-29,-3,-206,-270,-249,-229,-368
-86,-67,17,77,-52,-23,-3,-206,-270,-255,-229,-368
-86,-67,17,77,-52,-23,-9,-212,-276,-255,-223,-374
-86,-67,17,77,-52,-23,-9,-212,-270,-261,-223,-368
-86,-67,17,77,-52,-23,-9,-212,-264,-255,-217,-362
-86,-67,17,77,-52,-23,-3,-212,-264,-249,-217,-362
-86,-67,17,77,-52,-23,-3,-218,-258,-249,-217,-362
-80,-61,17,65,-52,-23,-3,-218,-258,-249,-223,-362
-80,-61,17,65,-52,-23,-3,-224,-264,-249,-223,-368
-80,-61,17,65,-52,-23,-9,-218,-264,-249,-223,-368
-80,-61,17,65,-52,-23,-3,-218,-264,-249,-229,-374
-74,-61,11,65,-46,-23,-3,-212,-258,-249,-223,-374
-74,-67,5,71,-40,-29,-3,-212,-258,-249,-223,-368
-74,-73,-1,71,-40,-35,2,-212,-258,-249,-223,-368
-74,-73,-1,71,-40,-35,-3,-218,-258,-255,-223,-368
-74,-73,-1,71,-40,-35,-3,-212,-258,-255,-223,-368
-80,-73,5,71,-46,-35,-9,-218,-258,-249,-223,-362
-80,-67,11,71,-46,-29,-3,-218,-258,-249,-223,-362
-80,-67,11,71,-46,-29,-9,-218,-258,-249,-223,-368
-80,-67,11,71,-46,-29,-9,-218,-264,-249,-229,-368
-86,-67,17,77,-52,-23,-15,-218,-264,-249,-223,-368
-80,-67,11,71,-46,-29,-15,-212,-264,-249,-223,-374
-80,-67,11,71,-46,-29,-15,-212,-264,-249,-223,-374
-74,-73,-1,71,-40,-35,-21,-218,-264,-249,-223,-374
-74,-73,-1,71,-40,-35,-21,-218,-270,-255,-223,-374
-74,-73,-1,71,-40,-35,-21,-218,-270,-255,-223,-368
-74,-73,-1,71,-40,-35,-9,-224,-270,-255,-223,-362
-74,-79,-6,77,-34,-41,-9,-224,-270,-249,-229,-356
-80,-73,5,71,-46,-35,-9,-224,-270,-249,-229,-356
-80,-73,5,71,-46,-35,-15,-224,-270,-249,-235,-350
-86,-73,11,77,-52,-29,-15,-224,-276,-249,-229,-350
-92,-67,23,77,-58,-23,-15,-218,-270,-249,-229,-344
-92,-67,23,77,-58,-23,-15,-224,-276,-249,-217,-344
-86,-67,17,77,-52,-23,-21,-218,-276,-255,-217,-344
-86,-67,17,77,-52,-23,-21,-218,-276,-255,-223,-344
-86,-67,17,77,-52,-23,-27,-218,-270,-255,-223,-338
-86,-73,11,77,-52,-29,-27,-212,-270,-255,-223,-338
-86,-73,11,77,-52,-29,-27,-212,-270,-249,-229,-332
-80,-79,-1,77,-40,-41,-21,-218,-270,-249,-229,-332
-80,-73,5,71,-46,-35,-27,-218,-270,-249,-229,-332
-80,-73,5,71,-46,-35,-27,-218,-264,-249,-229,-332
-80,-73,5,71,-46,-35,-27,-224,-264,-249,-229,-332
-80,-67,11,71,-46,-29,-27,-224,-264,-249,-229,-326
-74,-67,5,71,-40,-29,-27,-224,-258,-249,-223,-320
-74,-73,-1,71,-40,-35,-27,-224,-258,-255,-217,-320
-68,-73,-6,65,-34,-41,-27,-224,-258,-255,-217,-314
-68,-73,-6,65,-34,-41,-27,-218,-258,-255,-223,-308
-74,-73,-1,71,-40,-35,-27,-218,-258,-255,-223,-308
-74,-73,-1,71,-40,-35,-27,-218,-258,-249,-223,-308
-74,-73,-1,71,-40,-35,-27,-212,-258,-249,-223,-302
-80,-79,-1,77,-40,-41,-21,-212,-258,-249,-223,-296
-80,-79,-1,77,-40,-41,-21,-218,-258,-249,-223,-290
-86,-79,5,83,-46,-35,-21,-218,-258,-255,-217,-284
-86,-85,-1,83,-46,-41,-21,-218,-258,-255,-217,-278
-86,-85,-1,83,-46,-41,-21,-218,-258,-255,-211,-272
-86,-85,-1,83,-46,-41,-21,-218,-258,-255,-211,-272
-86,-79,5,83,-46,-35,-21,-224,-264,-255,-205,-272
-86,-79,5,83,-46,-35,-21,-224,-264,-255,-211,-272
-86,-79,5,83,-46,-35,-21,-224,-264,-255,-211,-272
-86,-73,11,77,-52,-29,-21,-224,-270,-255,-211,-272
-86,-79,5,83,-46,-35,-27,-218,-270,-261,-211,-278
-86,-79,5,83,-46,-35,-33,-224,-276,-261,-217,-278
-86,-79,5,83,-46,-35,-33,-224,-276,-261,-211,-278
-80,-79,-1,77,-40,-41,-33,-224,-270,-261,-217,-278
-80,-85,-6,77,-40,-47,-33,-218,-270,-261,-217,-278
-80,-79,-1,77,-40,-41,-33,-218,-270,-261,-217,-278
-80,-79,-1,77,-40,-41,-27,-218,-270,-261,-223,-278
-80,-79,-1,77,-40,-41,-27,-212,-264,-261,-223,-278
-86,-79,5,83,-46,-35,-27,-212,-270,-261,-223,-272
-86,-79,5,83,-46,-35,-33,-218,-270,-261,-223,-272
-86,-79,5,83,-46,-35,-33,-218,-276,-255,-223,-266
-86,-73,11,77,-52,-29,-33,-224,-276,-255,-217,-266
-80,-67,11,71,-46,-29,-33,-224,-270,-249,-217,-260
-74,-67,5,71,-40,-29,-33,-218,-270,-249,-211,-254
-74,-67,5,71,-40,-29,-27,-218,-264,-255,-211,-254
-68,-61,5,59,-40,-29,-21,-218,-258,-249,-211,-254
-68,-61,5,59,-40,-29,-21,-212,-258,-249,-211,-254
-68,-61,5,59,-40,-29,-15,-206,-252,-249,-205,-248
-62,-55,5,59,-34,-23,-15,-200,-252,-243,-205,-248
-56,-49,5,47,-34,-23,-9,-194,-246,-243,-199,-242
-50,-43,5,47,-28,-17,-9,-194,-240,-243,-193,-236
-44,-37,5,35,-28,-17,-3,-188,-234,-231,-187,-230
-44,-31,11,35,-28,-12,2,-182,-216,-219,-181,-218
-44,-20,23,29,-34,-1,7,-170,-204,-213,-175,-212
-44,-20,23,29,-34,-1,7,-170,-192,-207,-169,-200
-38,-20,17,29,-28,-1,13,-164,-186,-201,-163,-188
-32,-20,11,23,-22,-7,13,-158,-186,-195,-157,-182
-20,-15,5,18,-10,-7,19,-152,-180,-195,-151,-170
-15,-15,-1,18,-5,-7,25,-140,-180,-189,-151,-164
-10,-9,-1,13,-5,-1,31,-140,-174,-183,-145,-158
2,-3,-6,7,6,-1,31,-128,-168,-171,-139,-146
2,-3,-6,7,6,-1,25,-122,-156,-171,-139,-140
8,3,-6,-5,6,-1,25,-116,-144,-159,-127,-128
14,9,-6,-5,12,5,25,-110,-138,-147,-115,-116
26,15,-11,-17,18,5,25,-104,-126,-141,-109,-104
32,21,-11,-23,24,5,25,-98,-114,-135,-97,-92
38,21,-17,-23,30,5,19,-92,-102,-123,-91,-92
44,27,-17,-35,30,5,19,-92,-96,-117,-85,-86
50,27,-23,-35,36,5,19,-92,-96,-111,-73,-80
50,27,-23,-35,36,5,7,-98,-96,-105,-73,-74
50,21,-29,-29,42,-1,2,-98,-96,-111,-73,-74
44,15,-29,-29,36,-7,2,-104,-102,-117,-79,-74
38,9,-29,-17,36,-7,-9,-116,-120,-129,-85,-86
32,3,-29,-17,30,-12,-21,-134,-138,-141,-91,-92
32,3,-29,-17,30,-12,-27,-152,-150,-147,-97,-98
26,3,-23,-11,24,-7,-33,-158,-156,-159,-97,-104
20,-3,-23,-5,24,-12,-33,-170,-168,-171,-103,-110
14,-15,-29,7,24,-17,-39,-176,-174,-177,-109,-116
14,-15,-29,7,24,-17,-39,-194,-180,-189,-121,-116
8,-20,-29,7,18,-23,-39,-200,-192,-195,-133,-122
-4,-25,-23,13,6,-23,-39,-200,-198,-201,-145,-128
-10,-25,-17,18,0,-17,-39,-200,-198,-201,-145,-128
-15,-31,-17,23,0,-23,-33,-194,-198,-201,-145,-128
-15,-37,-23,23,0,-29,-33,-188,-198,-201,-139,-122
-20,-37,-17,23,-5,-29,-39,-188,-204,-207,-145,-128
-20,-37,-17,23,-5,-29,-39,-194,-216,-213,-145,-128
-26,-37,-11,29,-10,-23,-45,-200,-222,-219,-157,-134
-32,-43,-11,35,-10,-29,-51,-218,-228,-225,-163,-140
-38,-43,-6,41,-16,-23,-51,-224,-228,-231,-163,-140
-44,-55,-11,47,-16,-35,-51,-230,-234,-237,-169,-140
-56,-55,-1,53,-28,-29,-51,-236,-246,-249,-181,-146
-62,-61,-1,59,-34,-29,-51,-242,-258,-261,-193,-158
-68,-61,5,59,-40,-29,-57,-248,-264,-273,-205,-158
-74,-67,5,71,-40,-29,-57,-248,-270,-279,-211,-164
-80,-73,5,71,-46,-35,-57,-248,-270,-279,-211,-170
-80,-79,-1,77,-40,-41,-57,-248,-270,-279,-217,-170
-80,-79,-1,77,-40,-41,-63,-248,-264,-279,-217,-170
-86,-91,-6,89,-40,-47,-57,-248,-264,-279,-211,-170
-86,-91,-6,89,-40,-47,-57,-248,-258,-273,-211,-164
-86,-91,-6,89,-40,-47,-51,-242,-258,-273,-211,-170
-80,-97,-17,83,-34,-59,-39,-242,-258,-273,-211,-170
-80,-103,-23,89,-28,-65,-39,-236,-252,-267,-211,-170
-68,-103,-35,83,-16,-71,-39,-230,-246,-261,-211,-170
-62,-109,-47,83,-10,-77,-39,-224,-240,-255,-205,-158
-50,-109,-59,77,0,-83,-39,-218,-234,-243,-199,-152
-44,-103,-59,71,6,-83,-39,-212,-222,-231,-181,-140
-32,-103,-71,65,18,-89,-45,-206,-210,-219,-163,-128
-20,-103,-83,59,30,-95,-51,-194,-192,-201,-145,-116
-15,-97,-83,53,30,-89,-51,-176,-174,-189,-127,-98
2,-91,-95,47,48,-89,-51,-164,-156,-165,-97,-86
26,-85,-113,29,66,-95,-57,-146,-138,-135,-73,-62
62,-85,-149,13,102,-113,-63,-128,-120,-105,-49,-38
98,-85,-185,-5,138,-131,-69,-110,-96,-81,-19,-14
134,-85,-221,-23,174,-149,-75,-98,-78,-51,3,9
158,-91,-251,-29,204,-167,-87,-86,-60,-27,27,32
188,-97,-287,-47,234,-191,-99,-80,-42,-3,51,50
212,-97,-311,-59,258,-203,-123,-80,-36,20,75,62
242,-103,-347,-65,294,-221,-153,-86,-36,20,87,80
278,-115,-395,-77,336,-251,-201,-104,-48,25,111,98
314,-127,-443,-89,378,-281,-249,-122,-60,25,123,116
350,-145,-497,-101,420,-317,-291,-146,-84,25,141,134
398,-163,-563,-113,480,-359,-327,-170,-96,25,153,152
434,-181,-617,-125,522,-395,-357,-176,-102,25,165,164
482,-205,-689,-137,582,-443,-381,-194,-108,37,183,182
518,-223,-743,-143,630,-479,-405,-212,-114,43,195,206
548,-241,-791,-155,666,-515,-417,-218,-120,49,207,230
578,-247,-827,-161,702,-533,-423,-212,-114,49,231,254
614,-259,-875,-173,744,-563,-441,-200,-102,73,267,284
656,-265,-923,-197,786,-593,-453,-164,-72,103,309,320
704,-283,-989,-209,846,-635,-477,-128,-42,139,351,350
752,-301,-1055,-227,900,-677,-507,-104,-24,169,387,380
824,-325,-1151,-251,984,-737,-555,-86,-12,199,429,416
896,-337,-1235,-281,1062,-785,-627,-74,12,247,489,452
974,-337,-1313,-317,1140,-821,-699,-62,40,307,555,506
1052,-343,-1397,-353,1224,-869,-783,-56,88,379,627,560
1136,-337,-1475,-401,1302,-905,-867,-38,142,469,717,626
1232,-325,-1559,-455,1392,-941,-963,-3,232,595,831,704
1334,-301,-1637,-515,1482,-965,-1077,26,346,751,981,806
1448,-265,-1715,-593,1578,-989,-1227,8,430,907,1155,926
1568,-229,-1799,-671,1680,-1013,-1389,-80,466,1051,1329,1058
1688,-193,-1883,-749,1782,-1037,-1545,-218,448,1165,1491,1190
1796,-157,-1955,-821,1872,-1055,-1665,-386,406,1255,1647,1322
1886,-121,-2009,-881,1944,-1061,-1767,-566,340,1315,1779,1442
1976,-85,-2063,-947,2016,-1073,-1851,-734,256,1357,1917,1562
2060,-49,-2111,-1007,2082,-1079,-1923,-908,160,1393,2049,1688
2126,-20,-2147,-1049,2136,-1079,-1983,-1052,70,1423,2181,1814
2174,9,-2165,-1085,2172,-1073,-2019,-1160,0,1453,2319,1928
2198,57,-2141,-1121,2172,-1037,-2043,-1244,-60,1495,2456,2048
2204,111,-2093,-1157,2148,-989,-2037,-1286,-90,1543,2600,2162
2162,165,-1997,-1157,2082,-911,-1995,-1280,-72,1627,2750,2264
2072,231,-1841,-1151,1956,-803,-1911,-1232,-12,1735,2900,2366
1940,303,-1637,-1121,1788,-665,-1791,-1154,82,1849,3020,2437
1766,363,-1403,-1061,1584,-515,-1635,-1052,202,1957,3098,2467
1574,399,-1175,-983,1374,-383,-1461,-938,310,2029,3116,2449
1382,411,-971,-893,1176,-275,-1287,-830,388,2041,3050,2366
1190,399,-791,-791,990,-191,-1113,-722,448,2017,2924,2228
992,381,-611,-683,804,-113,-933,-596,502,1951,2738,2036
788,357,-431,-569,612,-35,-753,-458,526,1813,2456,1772
608,315,-293,-461,450,11,-585,-344,502,1573,2079,1454
458,243,-215,-347,336,17,-441,-248,406,1207,1599,1088
338,165,-173,-245,258,-1,-309,-182,292,829,1131,752
248,111,-137,-179,192,-12,-213,-134,214,547,783,506
182,75,-107,-125,144,-12,-141,-104,166,367,555,356
122,51,-71,-83,96,-7,-75,-86,130,253,405,254
68,39,-29,-53,48,5,-27,-74,106,181,309,194
20,33,11,-23,6,23,13,-68,82,133,243,152
-15,33,47,-5,-28,41,31,-62,58,97,195,122
-44,27,71,7,-58,47,43,-56,34,67,153,92
-62,27,89,18,-76,59,55,-50,24,37,117,56
-74,27,101,23,-88,65,61,-44,12,20,81,26
-86,33,119,29,-100,77,67,-38,12,9,45,4
-86,27,113,29,-100,71,79,-26,12,-9,15,-20
-92,27,119,29,-106,71,91,-20,12,-33,-7,-44
-104,15,119,41,-112,65,103,-26,6,-57,-43,-68
-116,15,131,47,-124,71,121,-26,0,-75,-67,-92
-128,9,137,59,-130,71,133,-20,-12,-93,-91,-104
-140,9,149,65,-142,77,145,-14,-18,-105,-109,-116
-152,9,161,71,-154,83,151,-14,-24,-117,-121,-122
-164,9,173,77,-166,89,151,-8,-30,-129,-133,-134
-170,3,173,83,-172,89,157,-3,-30,-135,-139,-140
