,,,,,,,,,,,
2019-09-04 23:55:13,,,,,,,,,,,
,,,,,,,,,,,
I,II,III,aVR,aVL,aVF,V1,V2,V3,V4,V5,V6
68,429,352,-245,-136,390,-150,147,357,572,490,259
68,429,352,-245,-136,390,-150,147,357,572,490,259
68,429,352,-245,-136,390,-150,147,357,572,490,259
68,429,352,-245,-136,390,-150,147,357,572,490,259
68,435,358,-245,-136,396,-144,153,369,584,496,265
68,441,364,-251,-142,402,-144,159,381,596,502,265
68,447,370,-251,-142,408,-138,165,393,608,508,271
68,453,376,-257,-148,414,-138,171,405,620,514,271
68,453,376,-257,-148,414,-126,183,417,626,520,265
68,453,376,-257,-148,414,-120,195,429,632,520,265
68,453,376,-257,-148,414,-108,207,441,638,526,259
68,453,376,-257,-148,414,-102,219,453,644,526,259
62,447,376,-251,-148,414,-96,231,465,650,520,253
62,441,370,-245,-148,408,-90,237,477,650,520,247
56,435,370,-239,-148,402,-84,249,489,656,514,241
56,429,364,-239,-148,396,-78,261,495,656,514,235
50,411,352,-227,-142,384,-66,273,501,644,496,217
50,399,340,-227,-136,372,-60,279,507,638,484,199
44,381,328,-215,-136,354,-48,291,513,626,466,181
44,369,316,-209,-130,342,-42,297,519,620,460,163
38,351,304,-197,-124,330,-30,303,513,596,436,145
38,339,292,-191,-118,318,-18,303,507,578,418,133
32,321,280,-179,-118,300,-6,309,501,554,394,115
32,309,268,-173,-112,288,-1,309,495,536,376,103
26,285,250,-155,-106,270,-1,303,483,518,346,79
20,267,238,-143,-100,252,5,297,471,500,322,55
14,243,226,-131,-94,234,11,291,453,488,292,44
8,225,214,-119,-94,222,17,285,441,470,268,20
2,207,196,-101,-88,204,23,273,423,434,244,-4
-4,183,178,-89,-82,180,29,267,405,404,220,-22
-10,159,160,-71,-76,162,35,255,387,368,202,-46
-10,135,142,-59,-70,138,41,249,369,338,178,-64
-10,117,130,-47,-64,120,47,237,345,314,154,-88
-10,99,112,-35,-58,102,47,225,327,290,130,-106
-15,81,100,-23,-52,90,53,207,303,266,106,-130
-15,63,82,-17,-46,72,53,195,285,242,82,-148
-21,45,70,-5,-40,54,59,177,261,224,58,-166
-21,27,52,7,-34,36,59,165,243,206,40,-184
-27,9,40,12,-28,24,65,147,219,182,16,-196
-27,-9,22,12,-22,6,65,135,195,164,-2,-214
-33,-15,16,18,-22,-6,65,123,183,140,-20,-226
-33,-20,4,24,-16,-12,65,111,177,122,-20,-232
-39,-32,-2,36,-16,-12,65,99,165,98,-37,-244
-39,-44,-8,42,-10,-23,65,87,159,80,-49,-250
-45,-56,-8,48,-10,-35,59,81,141,74,-55,-256
-45,-62,-13,54,-10,-41,59,81,129,68,-61,-262
-51,-74,-19,60,-10,-47,53,75,111,62,-67,-268
-51,-80,-25,66,-4,-53,53,75,99,56,-73,-274
-51,-86,-31,66,-4,-59,59,69,93,44,-79,-274
-51,-92,-37,72,1,-65,59,63,87,32,-85,-274
-51,-98,-43,72,1,-71,65,57,81,20,-91,-274
-51,-104,-49,78,1,-77,65,51,75,8,-97,-274
-51,-110,-55,78,1,-83,65,39,69,2,-103,-280
-51,-110,-55,78,1,-83,65,33,63,2,-109,-280
-51,-116,-61,84,1,-89,65,21,57,2,-115,-286
-51,-116,-61,84,1,-89,65,15,51,2,-121,-286
-51,-122,-67,84,1,-95,59,9,45,2,-127,-292
-51,-122,-67,84,1,-95,59,9,39,2,-127,-292
-51,-128,-73,90,7,-101,53,3,33,-3,-133,-298
-51,-128,-73,90,7,-101,53,3,27,-3,-133,-298
-45,-128,-79,84,13,-107,53,3,27,-9,-133,-304
-45,-128,-79,84,13,-107,53,3,27,-9,-133,-304
-39,-128,-85,84,19,-107,53,3,27,-15,-133,-310
-39,-128,-85,84,19,-107,53,3,27,-15,-133,-310
-45,-128,-79,84,13,-107,53,9,27,-15,-133,-316
-45,-128,-79,84,13,-107,53,9,27,-15,-133,-316
-51,-128,-73,90,7,-101,53,15,27,-15,-133,-322
-51,-128,-73,90,7,-101,53,15,27,-15,-133,-322
-45,-128,-79,84,13,-107,53,21,27,-15,-133,-316
-45,-128,-79,84,13,-107,53,21,27,-15,-133,-316
-39,-128,-85,84,19,-107,53,27,27,-15,-133,-310
-39,-128,-85,84,19,-107,53,27,27,-15,-133,-310
-45,-128,-79,84,13,-107,53,33,27,-15,-133,-304
-45,-128,-79,84,13,-107,53,33,27,-15,-133,-298
-51,-128,-73,90,7,-101,53,39,27,-15,-133,-292
-51,-128,-73,90,7,-101,53,39,27,-15,-133,-286
-45,-128,-79,84,13,-107,53,39,27,-15,-133,-286
-45,-128,-79,84,13,-107,53,39,27,-15,-133,-286
-39,-128,-85,84,19,-107,53,39,27,-15,-133,-286
-39,-128,-85,84,19,-107,53,39,27,-15,-133,-286
-39,-128,-85,84,19,-107,53,33,21,-21,-133,-280
-39,-128,-85,84,19,-107,53,33,21,-21,-133,-280
-39,-128,-85,84,19,-107,53,27,15,-27,-133,-274
-39,-128,-85,84,19,-107,53,27,15,-27,-133,-274
-39,-128,-85,84,19,-107,53,21,9,-33,-133,-268
-39,-128,-85,84,19,-107,53,21,9,-33,-133,-268
-39,-128,-85,84,19,-107,53,15,9,-39,-133,-262
-39,-128,-85,84,19,-107,53,15,9,-39,-133,-262
-39,-128,-85,84,19,-107,53,15,9,-39,-133,-256
-39,-128,-85,84,19,-107,53,15,9,-39,-133,-256
-39,-128,-85,84,19,-107,53,15,4,-39,-133,-250
-39,-128,-85,84,19,-107,53,15,4,-39,-133,-250
-39,-122,-79,78,13,-101,47,15,-2,-39,-133,-250
-39,-122,-79,78,13,-101,47,15,-2,-39,-133,-250
-39,-116,-73,78,13,-95,41,15,-8,-39,-133,-250
-39,-116,-73,78,13,-95,41,15,-8,-39,-133,-250
-33,-122,-85,78,19,-107,41,9,-8,-45,-139,-250
-33,-122,-85,78,19,-107,41,9,-8,-51,-139,-250
-27,-128,-97,78,31,-113,41,3,-8,-57,-145,-250
-27,-128,-97,78,31,-113,41,3,-8,-63,-145,-250
-33,-128,-91,78,25,-113,47,-3,-14,-69,-151,-250
-33,-128,-91,78,25,-113,47,-3,-20,-69,-151,-250
-39,-128,-85,84,19,-107,53,-3,-26,-75,-157,-250
-39,-128,-85,84,19,-107,53,-3,-32,-75,-157,-250
-39,-128,-85,84,19,-107,53,-3,-38,-81,-157,-256
-39,-128,-85,84,19,-107,53,-3,-38,-81,-157,-256
-39,-128,-85,84,19,-107,53,-8,-44,-87,-157,-262
-39,-128,-85,84,19,-107,53,-8,-44,-87,-157,-262
-39,-128,-85,84,19,-107,53,-14,-50,-93,-163,-262
-39,-128,-85,84,19,-107,53,-20,-56,-93,-163,-262
-39,-128,-85,84,19,-107,53,-26,-62,-99,-169,-262
-39,-128,-85,84,19,-107,53,-32,-68,-99,-169,-262
-39,-134,-91,84,19,-113,47,-32,-68,-105,-169,-262
-39,-134,-91,84,19,-113,47,-32,-68,-105,-169,-262
-39,-140,-97,90,25,-119,41,-32,-68,-111,-169,-262
-39,-140,-97,90,25,-119,41,-32,-68,-111,-169,-262
-39,-140,-97,90,25,-119,35,-32,-74,-117,-169,-262
-39,-140,-97,90,25,-119,35,-32,-74,-117,-169,-262
-39,-140,-97,90,25,-119,29,-32,-80,-123,-169,-262
-39,-140,-97,90,25,-119,29,-32,-80,-123,-169,-262
-39,-140,-97,90,25,-119,29,-38,-80,-129,-175,-256
-39,-140,-97,90,25,-119,29,-38,-80,-129,-175,-256
-39,-140,-97,90,25,-119,29,-44,-80,-135,-181,-250
-39,-140,-97,90,25,-119,29,-44,-80,-135,-181,-250
-39,-146,-103,90,25,-125,29,-44,-86,-141,-187,-250
-39,-146,-103,90,25,-125,29,-44,-92,-141,-187,-250
-39,-152,-109,96,31,-131,29,-44,-98,-147,-193,-250
-39,-152,-109,96,31,-131,29,-44,-104,-147,-193,-250
-39,-152,-109,96,31,-131,23,-44,-104,-147,-199,-244
-39,-152,-109,96,31,-131,23,-44,-104,-147,-199,-244
-39,-152,-109,96,31,-131,17,-44,-104,-147,-205,-238
-39,-152,-109,96,31,-131,17,-44,-104,-147,-205,-238
-39,-158,-115,96,31,-137,23,-44,-104,-147,-205,-232
-39,-158,-115,96,31,-137,23,-44,-104,-147,-205,-232
-39,-164,-121,102,37,-143,29,-44,-104,-147,-205,-226
-39,-164,-121,102,37,-143,29,-44,-104,-147,-205,-226
-39,-164,-121,102,37,-143,29,-50,-110,-153,-205,-226
-39,-164,-121,102,37,-143,29,-50,-110,-153,-205,-226
-39,-164,-121,102,37,-143,29,-56,-116,-159,-205,-226
-39,-164,-121,102,37,-143,29,-56,-116,-159,-205,-226
-39,-158,-115,96,31,-137,29,-62,-116,-153,-211,-232
-39,-158,-115,96,31,-137,29,-62,-116,-153,-211,-232
-39,-152,-109,96,31,-131,29,-68,-116,-147,-217,-238
-39,-152,-109,96,31,-131,29,-68,-116,-147,-217,-238
-39,-152,-109,96,31,-131,29,-74,-116,-147,-217,-232
-39,-152,-109,96,31,-131,29,-80,-116,-147,-217,-232
-39,-152,-109,96,31,-131,29,-86,-116,-147,-217,-226
-39,-152,-109,96,31,-131,29,-92,-116,-147,-217,-226
-39,-152,-109,96,31,-131,23,-92,-122,-141,-211,-220
-39,-152,-109,96,31,-131,23,-92,-122,-141,-211,-220
-39,-152,-109,96,31,-131,17,-92,-128,-135,-205,-214
-39,-152,-109,96,31,-131,17,-92,-128,-135,-205,-214
-33,-152,-115,90,37,-137,17,-98,-128,-141,-199,-214
-33,-152,-115,90,37,-137,17,-98,-128,-141,-199,-214
-27,-152,-121,90,43,-137,17,-104,-128,-147,-193,-214
-27,-152,-121,90,43,-137,17,-104,-128,-147,-193,-214
-33,-158,-121,96,37,-143,17,-110,-128,-147,-199,-220
-33,-158,-121,96,37,-143,17,-110,-128,-147,-199,-220
-39,-164,-121,102,37,-143,17,-116,-128,-147,-205,-226
-39,-164,-121,102,37,-143,17,-116,-128,-147,-205,-226
-39,-164,-121,102,37,-143,17,-116,-128,-147,-205,-226
-39,-164,-121,102,37,-143,17,-116,-128,-147,-205,-226
-39,-164,-121,102,37,-143,17,-116,-128,-147,-205,-226
-39,-164,-121,102,37,-143,17,-116,-128,-147,-205,-226
-39,-158,-115,96,31,-137,11,-122,-128,-153,-211,-232
-39,-158,-115,96,31,-137,11,-122,-128,-153,-211,-232
-39,-152,-109,96,31,-131,5,-128,-128,-159,-217,-238
-39,-152,-109,96,31,-131,5,-128,-128,-159,-217,-238
-39,-158,-115,96,31,-137,5,-122,-134,-159,-211,-238
-39,-158,-115,96,31,-137,5,-122,-134,-159,-211,-238
-39,-164,-121,102,37,-143,5,-116,-140,-159,-205,-238
-39,-164,-121,102,37,-143,5,-116,-140,-159,-205,-238
-39,-164,-121,102,37,-143,5,-116,-140,-165,-205,-238
-39,-164,-121,102,37,-143,5,-116,-140,-165,-205,-238
-39,-164,-121,102,37,-143,5,-116,-140,-171,-205,-238
-39,-164,-121,102,37,-143,5,-116,-140,-171,-205,-238
-39,-164,-121,102,37,-143,5,-110,-140,-171,-205,-232
-39,-164,-121,102,37,-143,5,-110,-140,-171,-205,-232
-39,-164,-121,102,37,-143,5,-104,-140,-171,-205,-226
-39,-164,-121,102,37,-143,5,-104,-140,-171,-205,-226
-33,-164,-127,96,43,-149,-1,-104,-134,-171,-205,-226
-33,-164,-127,96,43,-149,-1,-104,-134,-171,-205,-226
-27,-164,-133,96,49,-149,-1,-104,-128,-171,-205,-226
-27,-164,-133,96,49,-149,-1,-104,-128,-171,-205,-226
-33,-164,-127,96,43,-149,-1,-98,-128,-171,-205,-220
-33,-164,-127,96,43,-149,-1,-98,-128,-171,-205,-220
-39,-164,-121,102,37,-143,-1,-92,-128,-171,-205,-214
-39,-164,-121,102,37,-143,-1,-92,-128,-171,-205,-214
-39,-164,-121,102,37,-143,-1,-92,-128,-171,-199,-214
-39,-164,-121,102,37,-143,-1,-92,-128,-171,-199,-214
-39,-164,-121,102,37,-143,-1,-92,-128,-171,-193,-214
-39,-164,-121,102,37,-143,-1,-92,-128,-171,-193,-214
-33,-164,-127,96,43,-149,-1,-92,-128,-171,-193,-214
-33,-164,-127,96,43,-149,-1,-92,-128,-171,-193,-214
-27,-164,-133,96,49,-149,-1,-92,-128,-171,-193,-214
-27,-164,-133,96,49,-149,-1,-92,-128,-171,-193,-214
-27,-164,-133,96,49,-149,-1,-98,-128,-171,-199,-214
-27,-164,-133,96,49,-149,-1,-98,-128,-171,-199,-214
-27,-164,-133,96,49,-149,-1,-104,-128,-171,-205,-214
-27,-164,-133,96,49,-149,-1,-104,-128,-171,-205,-214
-33,-164,-127,96,43,-149,-1,-110,-128,-171,-199,-214
-33,-164,-127,96,43,-149,-1,-110,-128,-171,-199,-214
-39,-164,-121,102,37,-143,-1,-116,-128,-171,-193,-214
-39,-164,-121,102,37,-143,-1,-116,-128,-171,-193,-214
-33,-164,-127,96,43,-149,-1,-116,-128,-171,-193,-208
-33,-164,-127,96,43,-149,-1,-116,-128,-171,-193,-208
-27,-164,-133,96,49,-149,-1,-116,-128,-171,-193,-202
-27,-164,-133,96,49,-149,-1,-116,-128,-171,-193,-202
-27,-164,-133,96,49,-149,-1,-122,-128,-171,-193,-208
-27,-164,-133,96,49,-149,-1,-122,-128,-171,-193,-208
-27,-164,-133,96,49,-149,-1,-128,-128,-171,-193,-214
-27,-164,-133,96,49,-149,-1,-128,-128,-171,-193,-214
-27,-158,-127,90,43,-143,-1,-128,-134,-171,-193,-208
-27,-158,-127,90,43,-143,-1,-128,-134,-171,-193,-208
-27,-152,-121,90,43,-137,-1,-128,-140,-171,-193,-202
-27,-152,-121,90,43,-137,-1,-128,-140,-171,-193,-202
-27,-152,-121,90,43,-137,-1,-134,-140,-171,-193,-208
-27,-152,-121,90,43,-137,-1,-134,-140,-171,-193,-208
-27,-152,-121,90,43,-137,-6,-140,-140,-171,-193,-214
-27,-152,-121,90,43,-137,-6,-140,-140,-171,-193,-214
-27,-158,-127,90,43,-143,-1,-134,-140,-171,-193,-214
-27,-158,-127,90,43,-143,-1,-134,-140,-171,-193,-214
-27,-164,-133,96,49,-149,-1,-128,-140,-171,-193,-214
-27,-164,-133,96,49,-149,-1,-128,-140,-171,-193,-214
-27,-164,-133,96,49,-149,-1,-128,-140,-177,-193,-220
-27,-164,-133,96,49,-149,-1,-128,-140,-177,-193,-220
-27,-164,-133,96,49,-149,-1,-128,-140,-183,-193,-226
-27,-164,-133,96,49,-149,-1,-128,-140,-183,-193,-226
-21,-164,-139,90,55,-155,-1,-128,-146,-183,-193,-226
-21,-164,-139,90,55,-155,-1,-128,-146,-183,-193,-226
-15,-164,-145,90,61,-155,-1,-128,-152,-183,-193,-226
-15,-164,-145,90,61,-155,-1,-128,-152,-183,-193,-226
-21,-158,-133,90,49,-149,-1,-122,-146,-183,-193,-226
-21,-158,-133,90,49,-149,-1,-122,-146,-183,-193,-226
-27,-152,-121,90,43,-137,-1,-116,-140,-183,-193,-226
-27,-152,-121,90,43,-137,-1,-116,-140,-183,-193,-226
-21,-152,-127,84,49,-143,-1,-116,-140,-183,-193,-226
-21,-152,-127,84,49,-143,-1,-116,-140,-183,-193,-226
-15,-152,-133,84,55,-143,-1,-116,-140,-183,-193,-226
-15,-152,-133,84,55,-143,-1,-116,-140,-183,-193,-226
-15,-158,-139,84,55,-149,-1,-122,-140,-183,-193,-226
-15,-158,-139,84,55,-149,-1,-122,-140,-183,-193,-226
-15,-164,-145,90,61,-155,-1,-128,-140,-183,-193,-226
-15,-164,-145,90,61,-155,-1,-128,-140,-183,-193,-226
-15,-164,-145,90,61,-155,-1,-128,-140,-183,-193,-226
-15,-164,-145,90,61,-155,-1,-128,-140,-183,-193,-226
-15,-164,-145,90,61,-155,-6,-128,-140,-183,-193,-226
-15,-164,-145,90,61,-155,-6,-128,-140,-183,-193,-226
-21,-158,-133,90,49,-149,-6,-128,-140,-189,-193,-226
-21,-158,-133,90,49,-149,-6,-128,-140,-189,-193,-226
-27,-152,-121,90,43,-137,-6,-128,-140,-195,-193,-226
-27,-152,-121,90,43,-137,-6,-128,-140,-195,-193,-226
-27,-152,-121,90,43,-137,-1,-128,-140,-195,-193,-226
-27,-152,-121,90,43,-137,-1,-128,-140,-195,-193,-226
-27,-152,-121,90,43,-137,-1,-128,-140,-195,-193,-226
-27,-152,-121,90,43,-137,-1,-128,-140,-195,-193,-226
-21,-158,-133,90,49,-149,-1,-128,-140,-195,-193,-226
-21,-158,-133,90,49,-149,-1,-128,-140,-195,-193,-226
-15,-164,-145,90,61,-155,-1,-128,-140,-195,-193,-226
-15,-164,-145,90,61,-155,-1,-128,-140,-195,-193,-226
-21,-164,-139,90,55,-155,-1,-128,-146,-195,-193,-226
-21,-164,-139,90,55,-155,-1,-128,-146,-195,-193,-226
-27,-164,-133,96,49,-149,-1,-128,-152,-195,-193,-226
-27,-164,-133,96,49,-149,-1,-128,-152,-195,-193,-226
-21,-164,-139,90,55,-155,-1,-128,-146,-189,-187,-226
-21,-164,-139,90,55,-155,-1,-128,-146,-189,-187,-226
-15,-164,-145,90,61,-155,-1,-128,-140,-183,-181,-226
-15,-164,-145,90,61,-155,-1,-128,-140,-183,-181,-226
-15,-158,-139,84,55,-149,-1,-128,-140,-189,-181,-226
-15,-158,-139,84,55,-149,-1,-128,-140,-183,-181,-226
-15,-158,-139,84,55,-149,-6,-128,-140,-189,-181,-226
-15,-158,-139,84,55,-149,-6,-128,-140,-195,-181,-226
-15,-158,-139,84,55,-149,-1,-128,-140,-195,-187,-232
-15,-158,-139,84,55,-149,-1,-128,-140,-189,-181,-226
-15,-152,-133,84,55,-143,-1,-134,-140,-189,-187,-232
-15,-152,-133,84,55,-143,-1,-134,-140,-189,-187,-238
-15,-152,-133,84,55,-143,-1,-128,-146,-189,-187,-232
-15,-152,-133,84,55,-143,-1,-134,-146,-189,-187,-232
-15,-152,-133,84,55,-143,-1,-128,-152,-189,-187,-226
-15,-140,-121,78,49,-131,-1,-122,-146,-183,-187,-226
-10,-140,-127,72,55,-137,-1,-116,-134,-177,-175,-220
-10,-134,-121,72,49,-131,11,-110,-128,-171,-169,-208
-10,-122,-109,66,43,-119,23,-110,-110,-165,-163,-196
-10,-110,-97,60,37,-107,29,-104,-104,-159,-163,-196
-10,-104,-91,54,37,-101,35,-98,-104,-153,-163,-202
-10,-98,-85,54,31,-95,41,-92,-98,-147,-151,-190
-10,-92,-85,48,37,-89,41,-80,-98,-147,-145,-196
-10,-80,-73,42,31,-77,41,-74,-92,-141,-145,-196
-10,-68,-61,36,25,-65,41,-74,-86,-135,-151,-190
-10,-68,-61,36,25,-65,41,-68,-92,-135,-151,-190
-10,-62,-49,36,13,-59,35,-74,-86,-129,-145,-190
-10,-62,-49,36,13,-59,35,-68,-80,-129,-145,-190
-10,-56,-49,30,19,-53,41,-68,-74,-123,-139,-190
-10,-50,-49,24,19,-47,41,-68,-74,-123,-139,-184
-10,-38,-37,18,13,-35,35,-68,-68,-117,-127,-184
-10,-26,-25,12,7,-23,35,-68,-62,-105,-121,-178
-4,-15,-19,12,7,-17,35,-74,-62,-105,-121,-172
-4,-15,-8,12,7,-12,29,-74,-56,-99,-115,-172
2,-3,-8,1,7,-6,29,-80,-56,-99,-109,-172
8,9,-8,-5,7,0,23,-80,-44,-87,-103,-166
2,9,-2,-5,1,6,17,-68,-44,-81,-97,-154
2,27,16,-11,1,24,17,-68,-38,-69,-85,-148
8,39,22,-23,1,30,11,-56,-38,-63,-73,-130
14,57,34,-35,1,48,-1,-56,-38,-57,-73,-130
26,57,22,-41,1,42,-1,-56,-38,-57,-67,-124
26,45,10,-35,7,30,-12,-56,-38,-57,-67,-118
38,39,-8,-35,19,18,-12,-56,-38,-57,-67,-112
44,39,-8,-41,25,12,-12,-56,-38,-57,-67,-112
44,39,-8,-41,25,12,-6,-50,-38,-63,-67,-106
44,27,-13,-35,31,0,-6,-50,-38,-63,-67,-106
44,21,-19,-29,37,-6,-1,-56,-44,-75,-79,-118
32,9,-19,-17,31,-12,-1,-62,-50,-75,-85,-124
32,-9,-37,-11,37,-17,-6,-68,-50,-69,-79,-118
26,-15,-37,-5,37,-17,-1,-62,-50,-69,-79,-124
20,-26,-55,12,37,-41,-1,-68,-62,-75,-79,-124
2,-50,-61,18,31,-53,-1,-68,-62,-93,-91,-130
-4,-68,-73,30,37,-71,-1,-80,-74,-111,-115,-154
-10,-92,-85,48,37,-89,-1,-98,-86,-129,-133,-172
-15,-98,-79,54,25,-89,-1,-104,-92,-141,-139,-190
-21,-104,-79,60,25,-95,-1,-104,-104,-153,-151,-196
-21,-122,-97,72,31,-113,-1,-116,-116,-159,-157,-196
-27,-134,-103,78,31,-119,-1,-128,-122,-159,-163,-196
-27,-152,-121,90,43,-137,-1,-134,-134,-165,-175,-202
-27,-152,-121,90,43,-137,-1,-134,-146,-171,-181,-208
-33,-164,-127,96,43,-149,-1,-152,-152,-171,-187,-208
-33,-164,-127,96,43,-149,-1,-152,-152,-177,-193,-208
-39,-170,-127,102,37,-149,-6,-158,-152,-171,-193,-202
-39,-170,-127,102,37,-149,-6,-152,-152,-171,-187,-202
-33,-164,-127,96,43,-149,-6,-152,-152,-177,-187,-208
-33,-164,-127,96,43,-149,-6,-158,-152,-177,-187,-208
-27,-158,-127,90,43,-143,-6,-158,-152,-183,-187,-214
-27,-158,-127,90,43,-143,-6,-152,-152,-183,-187,-208
-27,-158,-127,90,43,-143,-6,-134,-140,-171,-175,-214
-27,-146,-115,84,37,-131,-6,-134,-146,-165,-175,-202
-33,-134,-97,84,25,-119,-1,-116,-128,-147,-169,-202
-39,-146,-103,90,25,-125,11,-92,-104,-135,-169,-202
-51,-140,-85,96,13,-113,17,-86,-92,-135,-163,-196
-51,-122,-67,84,1,-95,23,-74,-80,-129,-169,-190
-51,-122,-67,84,1,-95,35,-56,-56,-117,-157,-190
-57,-116,-55,84,1,-89,35,-32,-38,-99,-139,-190
-57,-110,-49,84,1,-83,41,-8,-20,-87,-121,-190
-57,-92,-31,72,-4,-65,53,3,-2,-75,-109,-190
-57,-98,-37,78,-4,-71,71,33,9,-69,-97,-178
-57,-86,-25,72,-10,-59,95,63,21,-45,-85,-160
-51,-80,-25,66,-4,-53,107,81,51,-3,-73,-142
-51,-62,-8,54,-16,-35,119,123,81,8,-43,-124
-51,-50,-8,48,-22,-23,149,159,129,44,-25,-106
-39,-38,-8,36,-16,-17,179,213,183,80,-14,-100
-27,-50,-19,36,1,-35,197,267,231,92,-14,-88
-21,-50,-25,36,1,-41,233,339,273,104,4,-88
-21,-44,-19,30,1,-35,281,453,339,116,4,-88
-21,-38,-13,30,1,-29,359,567,393,146,16,-82
-21,-20,-8,18,-4,-12,461,705,447,158,16,-94
-27,-9,22,12,-22,6,545,825,501,164,16,-94
-33,45,82,1,-52,60,617,921,549,188,28,-76
-39,123,166,-35,-100,144,683,993,633,242,76,-28
-45,255,304,-101,-172,276,737,1095,741,338,178,49
-57,417,478,-173,-262,444,791,1173,897,488,316,169
-45,627,676,-281,-358,648,803,1197,1107,728,544,373
-10,861,868,-425,-436,864,779,1161,1323,1004,838,637
2,1053,1042,-527,-508,1050,761,1125,1485,1292,1114,877
20,1161,1132,-587,-544,1146,695,1011,1605,1514,1336,1075
56,1245,1186,-653,-556,1212,527,795,1701,1742,1558,1267
128,1335,1204,-725,-526,1266,251,531,1743,1988,1798,1459
194,1389,1192,-785,-490,1290,-24,255,1773,2203,2002,1615
218,1371,1150,-791,-460,1260,-240,51,1803,2395,2127,1675
254,1257,994,-755,-364,1128,-366,-50,1863,2520,2193,1693
290,1161,862,-719,-274,1008,-480,-176,1887,2610,2241,1705
290,1131,832,-713,-262,978,-576,-320,1851,2682,2283,1693
290,1095,796,-695,-244,948,-660,-410,1815,2748,2301,1669
284,1035,742,-659,-226,894,-732,-500,1725,2760,2277,1591
260,927,658,-593,-190,792,-822,-566,1617,2724,2193,1483
236,753,508,-491,-130,636,-798,-524,1533,2616,2043,1303
194,531,334,-359,-64,438,-642,-404,1407,2323,1696,1015
110,303,190,-209,-28,246,-468,-326,1167,1772,1174,625
44,93,40,-65,1,66,-372,-326,867,1208,670,265
2,9,-2,-5,1,6,-336,-362,591,800,394,61
-15,-15,-2,12,-4,-12,-270,-386,333,476,208,-22
-45,-44,-8,42,-16,-23,-210,-386,81,140,10,-106
-45,-68,-19,54,-4,-47,-168,-362,-14,-33,-73,-160
-45,-74,-25,60,-4,-53,-126,-302,33,-15,-55,-160
-39,-98,-55,66,1,-77,-78,-230,87,20,-43,-160
-27,-128,-97,78,31,-113,-54,-188,87,2,-55,-166
-27,-128,-97,78,31,-113,-30,-152,81,2,-49,-166
-21,-122,-97,72,31,-113,-12,-140,69,2,-49,-166
-10,-134,-121,72,49,-131,-6,-122,45,-9,-61,-172
-10,-134,-127,66,55,-131,-6,-110,27,-51,-97,-172
-10,-122,-115,60,49,-119,-1,-92,21,-75,-115,-178
-10,-122,-121,60,55,-119,-12,-92,9,-111,-133,-184
-10,-122,-121,60,55,-119,-12,-92,-2,-135,-145,-190
-10,-122,-115,60,49,-119,-6,-80,-20,-159,-157,-190
-15,-122,-103,66,37,-113,-6,-80,-26,-171,-163,-190
-15,-128,-109,72,43,-119,-1,-92,-44,-177,-181,-196
-21,-140,-115,78,43,-131,-1,-92,-62,-183,-181,-196
-21,-158,-133,90,49,-149,-1,-98,-80,-183,-193,-202
-21,-158,-133,90,49,-149,-1,-104,-86,-189,-193,-208
-21,-158,-133,90,49,-149,-1,-110,-92,-189,-199,-202
-21,-152,-127,84,49,-143,5,-110,-92,-195,-199,-202
-21,-152,-127,84,49,-143,11,-110,-98,-207,-199,-190
-21,-152,-127,84,49,-143,17,-116,-98,-213,-199,-184
-15,-152,-133,84,55,-143,11,-116,-110,-219,-199,-184
-15,-152,-133,84,55,-143,11,-116,-116,-219,-205,-178
-10,-152,-139,78,61,-149,5,-116,-122,-231,-205,-184
-10,-152,-139,78,61,-149,5,-116,-128,-231,-205,-184
-10,-152,-139,78,61,-149,5,-110,-134,-231,-205,-184
-10,-158,-145,84,61,-155,-1,-110,-134,-225,-205,-184
-10,-158,-145,84,61,-155,-1,-110,-128,-219,-205,-184
-10,-158,-151,78,67,-155,-1,-104,-128,-219,-205,-190
-10,-158,-151,78,67,-155,5,-110,-134,-225,-211,-196
-10,-158,-151,78,67,-155,5,-104,-134,-225,-211,-202
-10,-152,-145,78,67,-149,17,-110,-134,-231,-211,-208
-10,-146,-139,72,61,-143,17,-110,-134,-231,-211,-214
-10,-152,-145,78,67,-149,17,-104,-128,-231,-211,-226
-10,-152,-145,78,67,-149,17,-104,-116,-231,-211,-226
-10,-158,-151,78,67,-155,11,-98,-110,-231,-211,-232
-10,-152,-145,78,67,-149,11,-98,-104,-231,-211,-226
-10,-146,-139,72,61,-143,17,-92,-104,-237,-211,-238
-10,-146,-139,72,61,-143,17,-92,-98,-237,-205,-238
-10,-140,-127,72,55,-137,17,-92,-98,-237,-205,-244
-10,-140,-127,72,55,-137,17,-86,-98,-237,-205,-244
-10,-140,-127,72,55,-137,23,-80,-92,-237,-199,-238
-10,-140,-133,72,61,-137,23,-80,-92,-237,-199,-238
-10,-140,-133,72,61,-137,29,-68,-92,-237,-193,-226
-10,-134,-127,66,55,-131,29,-68,-92,-237,-187,-220
-10,-128,-121,66,55,-125,29,-68,-92,-237,-187,-208
-10,-128,-121,66,55,-125,29,-68,-92,-237,-181,-190
-10,-122,-115,60,49,-119,29,-62,-92,-237,-169,-184
-10,-122,-115,60,49,-119,29,-62,-92,-237,-163,-172
-10,-128,-127,60,61,-125,29,-62,-98,-237,-163,-154
-10,-122,-121,60,55,-119,29,-56,-98,-237,-163,-136
-4,-128,-133,60,67,-131,29,-56,-104,-237,-169,-124
-4,-128,-133,60,67,-131,29,-56,-104,-237,-169,-112
-10,-116,-115,54,55,-113,17,-56,-98,-237,-163,-94
-10,-116,-115,54,55,-113,17,-56,-98,-231,-157,-82
-10,-110,-103,54,43,-107,17,-56,-92,-231,-157,-76
-10,-104,-97,54,43,-101,17,-56,-86,-231,-151,-58
-10,-98,-91,48,37,-95,17,-56,-92,-225,-145,-46
-10,-98,-97,48,43,-95,17,-56,-92,-225,-145,-46
-10,-98,-97,48,43,-95,17,-56,-98,-225,-133,-34
-10,-98,-97,48,43,-95,17,-56,-92,-225,-121,-28
-10,-92,-91,42,43,-89,17,-50,-92,-225,-121,-22
-10,-86,-85,42,37,-83,11,-50,-92,-225,-121,-22
-10,-80,-79,36,37,-77,17,-44,-92,-225,-121,-16
-10,-74,-73,36,31,-71,23,-44,-92,-225,-121,-16
-10,-74,-73,36,31,-71,17,-44,-86,-225,-115,-16
-10,-68,-67,30,31,-65,17,-44,-86,-225,-115,-10
-10,-68,-67,30,31,-65,11,-50,-80,-219,-109,-10
-10,-62,-61,30,25,-59,11,-38,-74,-219,-103,-10
-4,-62,-67,24,31,-65,17,-32,-74,-219,-103,-16
-4,-62,-67,24,31,-65,23,-26,-62,-213,-91,-16
-4,-62,-67,24,31,-65,29,-20,-56,-207,-91,-16
-4,-56,-61,24,31,-59,29,-20,-56,-207,-85,-16
-4,-50,-55,18,25,-53,29,-14,-56,-207,-79,-16
-4,-44,-49,18,25,-47,29,-3,-50,-201,-79,-16
-4,-38,-43,12,19,-41,23,-3,-50,-201,-73,-22
2,-32,-43,12,25,-35,23,-3,-44,-189,-67,-22
2,-20,-31,12,19,-23,29,-3,-38,-189,-67,-28
2,-15,-25,12,13,-17,29,-3,-32,-183,-67,-28
8,-15,-19,7,19,-12,29,-3,-38,-177,-61,-34
8,-9,-13,1,13,-12,35,-3,-38,-171,-61,-34
14,-9,-19,1,19,-12,35,3,-32,-159,-49,-40
14,-3,-13,-5,19,-12,35,9,-14,-153,-43,-40
14,-3,-13,-5,19,-12,35,15,-2,-135,-31,-34
20,3,-13,-11,19,-12,35,21,4,-123,-20,-28
20,15,-8,-17,13,0,41,21,4,-117,-20,-28
20,21,-8,-17,13,6,41,21,4,-105,-20,-22
20,33,4,-23,7,18,41,21,9,-93,-8,-10
26,45,10,-35,7,30,41,21,9,-87,-2,-4
26,45,10,-35,7,30,35,27,15,-69,16,8
26,51,16,-35,1,36,35,33,21,-57,28,20
26,51,16,-35,1,36,29,39,27,-45,28,44
26,63,28,-41,1,48,17,51,39,-33,40,49
32,69,28,-47,1,48,17,51,45,-21,52,67
32,75,34,-53,1,54,11,51,57,-3,64,85
38,87,40,-59,1,66,11,51,63,2,70,97
38,99,52,-65,1,78,11,51,75,8,82,115
38,111,64,-71,-4,90,5,57,81,20,94,139
38,123,76,-77,-10,102,-1,57,93,32,106,157
44,135,82,-89,-10,108,-1,57,99,44,118,181
44,153,100,-95,-16,126,-1,57,105,56,130,199
44,165,112,-101,-22,138,-1,57,111,80,142,223
50,177,118,-113,-22,150,-6,57,117,92,160,229
50,183,124,-113,-28,156,-18,63,129,122,172,247
50,201,142,-125,-34,174,-18,63,135,128,184,259
56,207,142,-131,-34,174,-24,69,147,146,202,271
56,219,154,-137,-40,186,-30,75,165,164,220,283
56,231,172,-143,-46,204,-36,81,171,176,244,289
56,243,184,-149,-52,216,-36,81,183,188,262,301
62,255,190,-161,-52,228,-42,87,195,212,274,313
62,267,202,-167,-58,234,-48,87,207,230,292,325
68,279,208,-173,-58,240,-48,87,219,248,292,337
68,291,220,-179,-64,252,-54,93,231,254,316,349
68,303,232,-185,-70,264,-54,99,237,284,334,361
74,315,232,-197,-70,276,-54,105,249,302,352,373
74,333,250,-203,-82,294,-54,111,255,320,364,385
80,345,256,-215,-82,300,-54,123,267,332,382,403
86,351,256,-221,-76,306,-60,129,279,356,400,403
86,363,268,-227,-82,318,-60,141,291,374,406,409
86,375,280,-227,-88,330,-66,147,303,380,424,409
92,387,286,-233,-88,336,-66,153,309,398,442,415
92,399,298,-239,-94,348,-66,165,327,410,454,421
92,411,310,-245,-100,360,-66,177,333,428,466,421
98,423,316,-257,-100,372,-60,183,357,440,472,433
98,423,316,-257,-100,372,-60,189,369,452,484,445
98,435,328,-263,-106,384,-60,201,381,476,508,439
98,441,334,-263,-112,390,-60,213,387,488,520,445
98,453,346,-269,-118,402,-60,219,405,500,532,439
98,465,358,-275,-124,414,-54,225,417,512,544,445
98,471,364,-281,-124,420,-48,237,423,524,550,439
104,471,364,-287,-124,420,-48,243,441,536,562,451
104,483,376,-293,-130,432,-48,249,459,548,562,451
104,489,382,-293,-130,438,-48,255,471,560,574,457
110,489,376,-299,-124,438,-48,267,483,572,580,469
110,501,388,-305,-130,450,-48,273,489,584,586,475
110,501,388,-305,-130,450,-48,285,495,596,598,481
110,501,388,-305,-130,450,-48,297,507,608,604,481
116,501,382,-305,-124,444,-36,309,531,620,610,481
116,501,382,-305,-124,444,-36,321,543,620,616,481
116,507,388,-311,-130,450,-30,339,561,638,622,487
116,507,388,-311,-130,450,-18,363,573,638,628,487
116,507,388,-311,-130,450,-18,375,579,644,622,481
116,507,388,-311,-130,450,-18,387,591,656,622,481
110,507,394,-305,-136,456,-6,393,597,662,622,475
110,507,394,-305,-136,456,-1,399,609,668,622,475
110,501,388,-305,-130,450,-1,405,609,662,610,463
110,489,376,-299,-124,438,5,417,627,662,604,457
104,477,370,-287,-124,426,11,423,627,656,598,445
98,471,364,-281,-124,420,23,429,633,644,580,433
92,459,358,-269,-124,408,29,441,633,632,568,409
92,441,340,-263,-118,390,35,447,633,620,544,391
86,423,328,-251,-112,378,41,453,627,602,514,373
80,405,316,-239,-112,360,59,465,621,590,490,361
80,381,292,-227,-100,336,65,459,609,560,472,331
74,363,280,-221,-94,324,71,453,591,542,460,307
68,339,262,-203,-88,300,77,441,567,518,430,277
62,321,250,-191,-88,288,83,423,543,488,406,259
56,303,238,-179,-82,270,83,399,519,470,370,241
50,279,226,-167,-76,252,89,381,501,440,340,217
38,261,220,-149,-82,240,89,357,483,410,310,193
32,237,202,-137,-76,222,95,345,471,374,286,169
32,219,178,-125,-64,198,95,321,447,350,256,139
26,195,160,-107,-58,180,101,303,417,326,232,115
32,171,130,-101,-40,150,101,285,387,308,214,85
26,153,118,-89,-34,138,101,255,363,278,190,67
14,141,118,-77,-40,132,95,237,333,248,166,49
8,123,106,-65,-40,114,95,225,309,236,142,38
-4,105,100,-47,-40,102,89,195,267,212,112,32
-4,87,82,-41,-34,84,89,183,249,176,94,8
-10,69,70,-29,-28,72,89,159,237,164,76,-16
-10,51,52,-17,-22,54,89,147,225,146,52,-28
-10,33,34,-11,-10,36,89,129,213,128,46,-40
-10,15,28,7,-16,18,89,123,195,104,28,-58
-10,9,16,7,-4,12,89,105,177,98,10,-58
-10,-9,4,12,-4,-6,89,93,159,80,-2,-70
-10,-9,-2,12,1,-6,83,81,135,68,-14,-82
-10,-15,-8,12,1,-12,77,69,117,56,-20,-94
-10,-15,-8,12,1,-12,77,57,105,44,-25,-94
-10,-20,-13,12,1,-17,77,45,99,32,-37,-100
-10,-32,-25,18,7,-29,77,33,93,26,-43,-106
-10,-32,-19,18,1,-29,71,33,87,14,-55,-112
-10,-38,-25,24,1,-35,65,39,87,2,-61,-118
-10,-44,-31,24,7,-41,65,39,81,2,-67,-124
-15,-62,-43,36,7,-53,65,45,75,2,-73,-118
-15,-62,-43,36,7,-53,71,33,63,2,-73,-118
-15,-62,-43,36,7,-53,71,39,57,-3,-79,-118
-15,-68,-49,42,13,-59,71,39,51,-9,-85,-118
-15,-74,-55,42,13,-65,71,33,45,-15,-91,-130
-15,-74,-55,42,13,-65,71,27,39,-15,-91,-130
-15,-74,-55,42,13,-65,71,27,45,-15,-91,-136
-15,-74,-55,42,13,-65,71,21,45,-21,-91,-136
-21,-80,-55,48,13,-71,65,21,45,-15,-91,-142
-27,-80,-49,54,7,-65,65,27,45,-15,-103,-142
-21,-86,-61,54,13,-77,65,33,39,-21,-103,-142
-21,-86,-61,54,13,-77,59,27,39,-21,-97,-142
-15,-86,-67,48,19,-77,59,33,27,-33,-97,-142
-15,-86,-67,48,19,-77,59,33,27,-39,-97,-142
-21,-86,-61,54,13,-77,59,33,21,-39,-103,-136
-21,-80,-55,48,13,-71,59,33,15,-39,-103,-142
-21,-80,-55,48,13,-71,59,39,15,-39,-103,-136
-21,-80,-55,48,13,-71,59,39,15,-39,-103,-136
-21,-80,-55,48,13,-71,59,39,15,-33,-109,-136
-21,-80,-55,48,13,-71,59,39,15,-33,-109,-130
-21,-80,-55,48,13,-71,59,39,15,-27,-109,-130
-21,-80,-55,48,13,-71,59,39,15,-27,-109,-130
-15,-86,-67,48,19,-77,59,33,15,-27,-109,-130
-21,-86,-61,54,13,-77,59,33,15,-33,-109,-130
-15,-80,-61,48,19,-71,53,27,9,-33,-109,-124
-10,-80,-67,42,25,-77,53,27,9,-33,-109,-124
-10,-80,-67,42,25,-77,53,27,9,-27,-109,-124
-10,-80,-67,42,25,-77,53,21,9,-27,-109,-124
-10,-80,-67,42,25,-77,53,21,9,-21,-109,-118
-10,-80,-67,42,25,-77,53,21,9,-21,-109,-118
-10,-86,-73,48,25,-83,53,15,9,-27,-109,-118
-10,-86,-73,48,25,-83,53,15,9,-27,-109,-118
-10,-86,-73,48,25,-83,53,15,9,-33,-109,-106
-10,-86,-73,48,25,-83,47,9,9,-33,-109,-106
-15,-86,-67,48,19,-77,47,9,9,-33,-109,-112
-15,-86,-67,48,19,-77,47,9,9,-45,-109,-112
-21,-80,-55,48,13,-71,47,9,4,-45,-109,-112
-21,-80,-55,48,13,-71,41,3,4,-45,-109,-112
-15,-86,-67,48,19,-77,41,3,-8,-45,-115,-112
-15,-86,-67,48,19,-77,41,-3,-8,-57,-115,-118
-10,-80,-67,42,25,-77,41,-3,-20,-57,-127,-118
-10,-80,-67,42,25,-77,41,-3,-20,-63,-127,-112
-10,-86,-73,48,25,-83,41,-3,-20,-75,-121,-118
-10,-86,-73,48,25,-83,41,-8,-26,-75,-121,-124
-15,-86,-67,48,19,-77,41,-8,-26,-87,-115,-130
-15,-86,-67,48,19,-77,41,-8,-26,-87,-121,-130
-15,-86,-67,48,19,-77,41,-14,-26,-87,-121,-124
-15,-86,-67,48,19,-77,35,-14,-26,-93,-127,-130
-15,-86,-67,48,19,-77,35,-14,-38,-87,-127,-124
-15,-86,-67,48,19,-77,35,-20,-44,-93,-127,-118
-10,-86,-73,48,25,-83,35,-26,-44,-99,-127,-118
-10,-86,-73,48,25,-83,35,-32,-50,-105,-133,-118
-10,-86,-79,42,31,-83,35,-32,-50,-111,-139,-124
-10,-86,-79,42,31,-83,35,-38,-56,-117,-139,-124
-10,-86,-73,48,25,-83,35,-38,-56,-123,-139,-124
-10,-86,-73,48,25,-83,35,-38,-62,-123,-139,-130
-21,-92,-67,54,19,-83,29,-38,-68,-135,-139,-130
-21,-92,-67,54,19,-83,29,-38,-68,-135,-145,-136
-15,-92,-73,54,25,-83,29,-44,-68,-135,-151,-142
-15,-92,-73,54,25,-83,29,-44,-74,-147,-151,-142
-10,-92,-79,48,31,-89,29,-56,-74,-147,-151,-142
-10,-92,-79,48,31,-89,29,-56,-74,-153,-151,-142
-10,-92,-79,48,31,-89,29,-50,-86,-153,-151,-148
-10,-92,-79,48,31,-89,23,-62,-92,-159,-157,-148
-10,-98,-85,54,31,-95,23,-56,-92,-165,-157,-142
-10,-98,-85,54,31,-95,23,-56,-98,-165,-157,-142
-10,-98,-85,54,31,-95,23,-62,-104,-165,-163,-142
-10,-98,-85,54,31,-95,17,-62,-110,-165,-169,-142
-10,-98,-85,54,31,-95,17,-74,-116,-165,-175,-136
-10,-98,-85,54,31,-95,17,-74,-116,-171,-175,-136
-10,-104,-91,54,37,-101,11,-74,-116,-183,-175,-142
-10,-104,-91,54,37,-101,11,-74,-116,-183,-175,-130
-10,-104,-91,54,37,-101,5,-74,-128,-189,-169,-136
-10,-104,-91,54,37,-101,5,-74,-128,-189,-169,-136
-10,-104,-91,54,37,-101,5,-74,-122,-195,-175,-136
-10,-110,-97,60,37,-107,5,-80,-122,-195,-175,-136
-10,-110,-97,60,37,-107,11,-80,-134,-195,-169,-136
-10,-110,-97,60,37,-107,17,-80,-140,-201,-169,-136
-10,-110,-97,60,37,-107,17,-80,-140,-201,-175,-130
-10,-110,-97,60,37,-107,17,-80,-134,-201,-175,-130
-10,-116,-103,60,43,-113,17,-80,-134,-195,-193,-130
-10,-116,-103,60,43,-113,17,-80,-134,-195,-193,-130
-10,-116,-103,60,43,-113,17,-80,-134,-195,-193,-130
-10,-116,-103,60,43,-113,17,-80,-134,-195,-193,-130
-10,-116,-103,60,43,-113,17,-80,-128,-201,-193,-130
-15,-122,-103,66,37,-113,17,-80,-128,-201,-193,-124
-15,-116,-97,66,37,-107,17,-86,-134,-207,-199,-124
-15,-116,-97,66,37,-107,17,-86,-140,-207,-199,-124
-15,-110,-91,60,31,-101,17,-86,-146,-213,-199,-124
-15,-110,-91,60,31,-101,17,-92,-146,-213,-199,-124
-15,-110,-91,60,31,-101,17,-98,-146,-207,-199,-130
-15,-110,-91,60,31,-101,17,-98,-146,-207,-199,-130
-15,-116,-97,66,37,-107,11,-98,-152,-201,-199,-130
-15,-116,-97,66,37,-107,11,-98,-152,-201,-199,-130
-15,-122,-103,66,37,-113,11,-104,-152,-201,-199,-130
-15,-122,-103,66,37,-113,11,-104,-152,-201,-199,-130
-15,-128,-109,72,43,-119,17,-104,-152,-195,-199,-130
-15,-128,-109,72,43,-119,17,-104,-152,-195,-199,-130
-15,-128,-109,72,43,-119,11,-110,-152,-195,-199,-130
-15,-128,-109,72,43,-119,11,-110,-152,-195,-199,-136
-15,-128,-109,72,43,-119,5,-104,-146,-195,-199,-142
-15,-128,-109,72,43,-119,5,-110,-146,-195,-199,-142
-15,-134,-115,72,43,-125,5,-122,-146,-195,-199,-136
-15,-134,-115,72,43,-125,5,-122,-152,-195,-199,-136
-15,-134,-115,72,43,-125,5,-128,-152,-195,-199,-130
-15,-134,-115,72,43,-125,5,-128,-152,-195,-199,-130
-15,-134,-115,72,43,-125,5,-134,-158,-195,-199,-136
-15,-134,-115,72,43,-125,5,-140,-158,-195,-199,-136
-15,-134,-115,72,43,-125,5,-146,-164,-195,-199,-142
-15,-134,-115,72,43,-125,5,-146,-164,-195,-199,-148
-15,-128,-109,72,43,-119,-1,-152,-164,-201,-199,-148
-15,-128,-109,72,43,-119,-1,-152,-164,-201,-199,-148
-15,-122,-103,66,37,-113,-1,-158,-170,-207,-205,-148
-15,-122,-103,66,37,-113,-1,-158,-170,-207,-205,-154
-15,-122,-103,66,37,-113,-1,-158,-164,-201,-205,-148
-15,-122,-103,66,37,-113,-1,-158,-164,-201,-205,-160
-10,-122,-109,66,43,-119,-1,-158,-158,-195,-205,-154
-10,-122,-109,66,43,-119,-1,-164,-164,-195,-205,-154
-15,-128,-109,72,43,-119,-1,-158,-164,-195,-205,-154
-15,-128,-109,72,43,-119,-1,-158,-164,-195,-205,-154
-15,-134,-115,72,43,-125,-1,-152,-164,-201,-205,-154
-15,-134,-115,72,43,-125,-1,-146,-164,-201,-205,-154
-15,-134,-115,72,43,-125,-1,-146,-164,-201,-205,-160
-15,-134,-115,72,43,-125,-1,-146,-158,-201,-205,-160
-15,-128,-109,72,43,-119,-1,-140,-158,-207,-205,-166
-15,-128,-109,72,43,-119,-1,-140,-164,-207,-205,-166
-15,-128,-109,72,43,-119,-1,-134,-164,-207,-205,-166
-15,-128,-109,72,43,-119,-1,-134,-164,-207,-205,-166
-15,-128,-109,72,43,-119,-1,-128,-164,-207,-205,-166
-15,-128,-109,72,43,-119,-1,-128,-164,-207,-205,-172
-15,-128,-109,72,43,-119,-1,-128,-158,-207,-205,-172
-15,-128,-109,72,43,-119,-1,-128,-158,-207,-205,-172
-10,-128,-115,66,49,-125,-1,-122,-152,-207,-205,-172
-10,-128,-115,66,49,-125,-1,-122,-152,-207,-205,-172
-10,-134,-121,72,49,-131,-1,-122,-158,-207,-205,-172
-10,-134,-121,72,49,-131,-1,-122,-158,-213,-205,-172
-10,-140,-127,72,55,-137,-6,-122,-164,-213,-205,-172
-10,-140,-127,72,55,-137,-6,-122,-164,-213,-205,-172
-15,-140,-121,78,49,-131,-6,-122,-164,-213,-205,-172
-15,-140,-121,78,49,-131,-6,-122,-164,-213,-205,-172
-15,-140,-121,78,49,-131,-6,-122,-164,-213,-205,-172
-15,-140,-121,78,49,-131,-6,-122,-164,-219,-205,-172
-15,-134,-115,72,43,-125,-12,-122,-164,-213,-205,-166
-15,-134,-115,72,43,-125,-12,-122,-164,-213,-205,-166
-15,-128,-109,72,43,-119,-12,-122,-170,-207,-205,-166
-15,-128,-109,72,43,-119,-12,-128,-170,-207,-205,-166
-15,-128,-109,72,43,-119,-12,-128,-170,-201,-205,-166
-15,-128,-109,72,43,-119,-12,-128,-164,-201,-205,-166
-15,-128,-109,72,43,-119,-12,-128,-164,-195,-205,-166
-15,-134,-115,72,43,-125,-12,-134,-164,-195,-205,-166
-15,-134,-115,72,43,-125,-12,-146,-170,-189,-199,-166
-15,-134,-115,72,43,-125,-12,-146,-170,-189,-199,-160
-15,-134,-115,72,43,-125,-12,-152,-176,-183,-193,-160
-15,-134,-115,72,43,-125,-18,-152,-176,-183,-193,-160
-15,-134,-115,72,43,-125,-12,-146,-176,-189,-193,-166
-15,-134,-115,72,43,-125,-12,-152,-176,-189,-193,-166
-15,-134,-115,72,43,-125,-6,-146,-164,-195,-193,-172
-15,-134,-115,72,43,-125,-6,-146,-164,-195,-193,-172
-15,-134,-115,72,43,-125,-6,-146,-164,-195,-199,-166
-15,-134,-115,72,43,-125,-6,-146,-164,-195,-199,-166
-15,-134,-115,72,43,-125,-6,-152,-164,-189,-205,-166
-15,-134,-115,72,43,-125,-6,-152,-164,-189,-205,-166
-15,-140,-121,78,49,-131,-6,-152,-164,-189,-205,-166
-15,-134,-115,72,43,-125,-6,-152,-164,-189,-205,-160
-15,-140,-121,78,49,-131,-6,-158,-164,-189,-205,-160
-15,-140,-121,78,49,-131,-12,-158,-176,-189,-205,-166
-15,-140,-121,78,49,-131,-18,-146,-176,-177,-205,-166
-15,-140,-121,78,49,-131,-18,-152,-176,-183,-205,-172
-15,-140,-121,78,49,-131,-18,-158,-170,-189,-199,-166
-15,-140,-121,78,49,-131,-18,-158,-170,-189,-199,-166
-15,-140,-121,78,49,-131,-18,-164,-164,-195,-193,-160
-15,-140,-121,78,49,-131,-18,-164,-164,-195,-193,-160
-15,-140,-121,78,49,-131,-18,-164,-170,-189,-199,-160
-15,-140,-121,78,49,-131,-18,-164,-170,-189,-199,-160
-15,-140,-121,78,49,-131,-18,-164,-176,-183,-205,-160
-15,-140,-121,78,49,-131,-18,-164,-176,-183,-205,-160
-15,-140,-121,78,49,-131,-12,-158,-176,-177,-199,-154
-15,-140,-121,78,49,-131,-12,-158,-176,-177,-199,-154
-15,-140,-121,78,49,-131,-6,-152,-176,-171,-193,-148
-15,-140,-121,78,49,-131,-6,-152,-176,-171,-193,-148
-15,-140,-121,78,49,-131,-6,-152,-176,-171,-199,-154
-15,-140,-121,78,49,-131,-6,-152,-176,-171,-199,-154
-15,-140,-121,78,49,-131,-6,-152,-176,-171,-205,-160
-15,-140,-121,78,49,-131,-6,-152,-176,-171,-205,-160
-15,-140,-121,78,49,-131,-6,-146,-170,-177,-205,-160
-15,-140,-121,78,49,-131,-6,-146,-170,-177,-205,-160
-15,-140,-121,78,49,-131,-6,-140,-164,-183,-205,-160
-15,-140,-121,78,49,-131,-6,-140,-164,-183,-205,-160
-15,-140,-121,78,49,-131,-6,-140,-170,-183,-205,-160
-15,-140,-121,78,49,-131,-6,-140,-170,-183,-205,-160
-15,-140,-121,78,49,-131,-6,-140,-176,-183,-205,-160
-15,-140,-121,78,49,-131,-6,-140,-176,-183,-205,-160
-15,-140,-121,78,49,-131,-1,-140,-176,-183,-205,-160
-15,-140,-121,78,49,-131,-1,-140,-176,-183,-205,-160
-15,-140,-121,78,49,-131,-1,-140,-176,-183,-205,-160
-15,-140,-121,78,49,-131,-1,-140,-176,-183,-205,-160
-15,-140,-121,78,49,-131,-1,-140,-176,-183,-205,-166
-15,-140,-121,78,49,-131,-1,-140,-176,-183,-205,-166
-15,-140,-121,78,49,-131,-6,-140,-176,-183,-205,-172
-15,-140,-121,78,49,-131,-6,-140,-176,-183,-205,-172
-15,-140,-121,78,49,-131,-1,-140,-176,-183,-205,-172
-15,-140,-121,78,49,-131,-1,-140,-176,-183,-205,-172
-15,-140,-121,78,49,-131,-1,-140,-176,-183,-205,-172
-15,-140,-121,78,49,-131,-1,-140,-176,-183,-205,-172
-15,-146,-127,78,49,-137,-1,-140,-176,-177,-205,-166
-15,-146,-127,78,49,-137,-1,-140,-176,-177,-205,-166
-15,-152,-133,84,55,-143,-1,-140,-176,-171,-205,-160
-15,-152,-133,84,55,-143,-1,-140,-176,-171,-205,-160
-21,-146,-121,84,43,-137,-1,-140,-182,-171,-205,-166
-21,-146,-121,84,43,-137,-1,-140,-182,-171,-205,-166
-27,-140,-109,84,37,-125,-1,-140,-188,-171,-205,-172
-27,-140,-109,84,37,-125,-1,-140,-188,-171,-205,-172
-27,-140,-109,84,37,-125,-1,-146,-188,-171,-205,-178
-27,-140,-109,84,37,-125,-1,-146,-188,-171,-205,-178
-27,-140,-109,84,37,-125,-1,-152,-188,-171,-205,-184
-27,-140,-109,84,37,-125,-1,-152,-188,-171,-205,-184
-21,-140,-115,78,43,-131,-1,-152,-182,-171,-205,-178
-21,-140,-115,78,43,-131,-1,-152,-182,-171,-205,-178
-15,-140,-121,78,49,-131,-6,-152,-176,-171,-205,-172
-15,-140,-121,78,49,-131,-6,-152,-176,-171,-205,-172
-15,-140,-121,78,49,-131,-1,-152,-176,-171,-205,-172
-15,-140,-121,78,49,-131,-1,-152,-176,-171,-205,-172
-15,-140,-121,78,49,-131,-1,-152,-176,-171,-205,-172
-15,-140,-121,78,49,-131,-1,-152,-176,-171,-205,-172
-15,-140,-121,78,49,-131,-1,-152,-182,-165,-199,-166
-15,-140,-121,78,49,-131,-1,-152,-182,-165,-199,-166
-15,-140,-121,78,49,-131,-1,-152,-188,-159,-193,-160
-15,-140,-121,78,49,-131,-1,-152,-188,-159,-193,-160
-15,-140,-121,78,49,-131,-1,-146,-188,-159,-199,-166
-15,-140,-121,78,49,-131,-1,-146,-188,-159,-199,-166
-15,-140,-121,78,49,-131,-1,-140,-188,-159,-205,-172
-15,-140,-121,78,49,-131,-1,-140,-188,-159,-205,-172
-15,-140,-121,78,49,-131,-1,-146,-188,-159,-205,-172
-15,-140,-121,78,49,-131,-1,-146,-188,-159,-205,-172
-15,-140,-121,78,49,-131,-1,-152,-188,-159,-205,-172
-15,-140,-121,78,49,-131,-1,-152,-188,-159,-205,-172
-15,-140,-121,78,49,-131,-1,-152,-182,-159,-205,-172
-15,-140,-121,78,49,-131,-1,-152,-182,-159,-205,-172
-15,-140,-121,78,49,-131,-6,-152,-176,-159,-205,-172
-15,-140,-121,78,49,-131,-6,-152,-176,-153,-205,-172
-15,-146,-127,78,49,-137,-6,-152,-176,-153,-199,-166
-15,-146,-127,78,49,-137,-6,-152,-176,-159,-199,-166
-15,-146,-127,78,49,-137,-6,-146,-176,-159,-193,-160
-15,-146,-127,78,49,-137,-6,-146,-176,-153,-187,-154
-15,-140,-121,78,49,-131,-6,-146,-182,-153,-193,-154
-15,-140,-121,78,49,-131,-6,-146,-182,-153,-193,-160
-15,-140,-121,78,49,-131,-6,-146,-188,-153,-199,-160
-15,-140,-121,78,49,-131,-6,-152,-188,-153,-199,-160
-15,-140,-121,78,49,-131,-6,-152,-188,-147,-199,-160
-15,-128,-109,72,43,-119,-1,-146,-182,-141,-199,-160
-10,-122,-109,66,43,-119,-1,-134,-176,-129,-187,-160
-10,-116,-103,60,43,-113,-1,-128,-170,-123,-181,-148
-10,-104,-97,54,43,-101,11,-122,-158,-123,-175,-142
-10,-92,-85,48,37,-89,17,-116,-152,-117,-175,-142
-10,-92,-91,42,43,-89,23,-116,-146,-117,-175,-142
-10,-86,-85,42,37,-83,29,-116,-140,-111,-163,-130
-10,-74,-73,36,31,-71,29,-110,-134,-105,-157,-136
-10,-62,-61,30,25,-59,29,-110,-128,-99,-157,-136
-10,-50,-43,24,13,-47,35,-104,-128,-93,-163,-136
-10,-50,-43,24,13,-47,35,-98,-134,-93,-163,-130
-10,-56,-43,30,13,-53,35,-98,-134,-93,-157,-124
-10,-56,-43,30,13,-53,35,-92,-128,-93,-157,-124
-10,-50,-43,24,13,-47,35,-92,-128,-87,-151,-118
-10,-44,-43,18,19,-41,35,-92,-128,-87,-151,-112
-10,-32,-31,12,13,-29,29,-92,-128,-81,-139,-112
-10,-20,-19,12,7,-17,29,-92,-122,-69,-133,-106
-4,-15,-19,12,7,-17,35,-92,-122,-69,-133,-94
-4,-15,-8,12,7,-12,29,-92,-116,-63,-127,-94
8,3,-8,-5,7,-6,23,-86,-116,-63,-127,-88
14,15,-8,-11,7,6,17,-86,-104,-51,-121,-82
20,21,-8,-17,13,6,11,-74,-98,-45,-121,-76
20,39,10,-29,1,24,11,-74,-92,-33,-109,-70
26,51,16,-35,1,36,17,-68,-80,-27,-91,-52
32,69,28,-47,1,48,5,-68,-80,-21,-91,-52
32,69,28,-47,1,48,5,-68,-74,-21,-79,-46
32,57,16,-41,7,36,-1,-68,-74,-21,-79,-40
38,51,4,-41,13,30,-6,-62,-74,-15,-79,-46
44,51,-2,-47,19,24,-6,-62,-74,-15,-79,-46
44,45,-8,-41,25,18,-12,-50,-74,-15,-79,-46
44,33,-8,-35,31,6,-12,-50,-74,-15,-79,-46
50,21,-25,-35,43,-6,-12,-62,-86,-27,-97,-58
38,9,-25,-23,37,-12,-12,-68,-92,-27,-103,-64
44,-9,-49,-17,49,-23,-12,-74,-98,-27,-109,-64
38,-15,-49,-11,49,-23,-6,-68,-98,-27,-109,-70
32,-20,-61,1,49,-41,-1,-74,-110,-39,-109,-76
14,-38,-61,12,37,-47,-1,-74,-110,-57,-121,-82
8,-56,-73,18,43,-65,-1,-98,-128,-69,-139,-100
-4,-74,-79,30,37,-77,-1,-116,-140,-87,-157,-118
-10,-92,-79,48,31,-89,-1,-122,-152,-93,-157,-124
-15,-98,-79,54,25,-89,-1,-122,-164,-105,-169,-130
-21,-116,-91,66,31,-107,-6,-128,-170,-111,-163,-124
-27,-128,-97,78,31,-113,-6,-140,-176,-111,-169,-118
-27,-140,-109,84,37,-125,-6,-152,-182,-123,-181,-130
-27,-140,-109,84,37,-125,-12,-152,-194,-129,-187,-142
-27,-146,-115,84,37,-131,-12,-170,-200,-141,-199,-154
-27,-146,-115,84,37,-131,-12,-170,-200,-147,-205,-160
-27,-146,-115,84,37,-131,-18,-176,-200,-147,-211,-160
-27,-146,-115,84,37,-131,-18,-170,-200,-147,-205,-160
-27,-146,-115,84,37,-131,-18,-176,-200,-147,-211,-160
-27,-146,-115,84,37,-131,-18,-182,-200,-147,-211,-160
-27,-146,-115,84,37,-131,-18,-170,-200,-135,-199,-160
-27,-146,-115,84,37,-131,-18,-164,-200,-135,-199,-142
-27,-146,-115,84,37,-131,-6,-146,-200,-123,-187,-148
-27,-146,-115,84,37,-131,-1,-146,-194,-117,-187,-148
-33,-146,-109,90,31,-131,-1,-128,-176,-111,-181,-136
-27,-134,-103,78,31,-119,-1,-116,-164,-111,-181,-136
-39,-128,-85,84,19,-107,5,-110,-152,-99,-175,-142
-39,-110,-67,72,7,-89,11,-98,-140,-81,-169,-136
-39,-98,-55,66,1,-77,23,-80,-116,-69,-157,-130
-45,-92,-43,66,1,-71,35,-44,-98,-51,-151,-124
-57,-98,-37,78,-4,-71,53,-20,-80,-27,-121,-106
-57,-80,-19,66,-10,-53,77,3,-62,-27,-121,-106
-45,-74,-25,60,-4,-53,83,21,-50,-21,-109,-94
-45,-62,-13,54,-10,-41,83,39,-38,-9,-97,-88
-39,-56,-13,48,-4,-35,95,69,4,8,-85,-82
-39,-50,-8,42,-10,-29,107,99,21,44,-55,-64
-39,-38,-8,36,-16,-17,137,147,69,80,-25,-34
-39,-38,-8,36,-16,-17,155,189,111,104,-14,-16
-27,-38,-8,30,-4,-23,185,243,147,116,-2,-4
-21,-38,-13,30,1,-29,221,303,183,140,4,-4
-10,-32,-19,18,1,-29,257,405,237,152,16,-4
-10,-15,-8,12,1,-12,323,531,297,170,16,-10
-10,-9,4,12,-4,-6,413,657,363,194,16,-10
-15,15,34,7,-22,24,509,777,435,224,16,-22
-33,45,82,1,-52,60,593,885,495,242,28,-16
-39,123,166,-35,-100,144,659,969,549,284,76,20
-45,231,280,-89,-160,252,719,1071,651,374,166,91
-45,381,430,-161,-238,402,767,1185,813,524,292,217
-33,591,628,-269,-328,606,791,1263,1023,746,508,409
-4,825,820,-413,-406,822,803,1263,1239,1028,790,673
14,1017,994,-515,-484,1008,797,1215,1431,1292,1066,937
20,1137,1108,-575,-532,1122,749,1131,1545,1514,1288,1123
44,1209,1162,-629,-550,1188,611,939,1617,1718,1498,1297
128,1299,1168,-713,-508,1230,359,663,1665,1946,1726,1495
182,1365,1180,-767,-490,1272,71,387,1707,2149,1930,1651
206,1371,1162,-785,-472,1266,-144,195,1731,2323,2067,1735
242,1269,1018,-755,-382,1146,-282,69,1767,2448,2139,1753
278,1161,874,-719,-286,1014,-408,-68,1791,2538,2175,1753
290,1119,820,-707,-256,966,-504,-242,1755,2610,2211,1753
302,1083,772,-695,-232,930,-576,-350,1719,2670,2253,1741
284,1035,742,-659,-226,894,-666,-446,1635,2682,2241,1687
260,939,670,-599,-196,804,-762,-542,1509,2634,2163,1573
236,789,544,-509,-148,672,-774,-524,1419,2544,2020,1411
194,579,382,-383,-88,480,-654,-404,1323,2299,1708,1129
122,339,214,-227,-34,276,-468,-314,1107,1796,1216,757
44,117,64,-77,1,90,-360,-290,807,1238,712,379
-10,-3,-2,7,1,0,-324,-338,555,836,406,157
-27,-20,-2,24,-10,-12,-294,-374,309,530,220,49
-45,-56,-8,48,-10,-35,-234,-398,57,212,46,-22
-45,-80,-31,60,1,-59,-180,-374,-86,2,-61,-88
-45,-86,-37,66,1,-65,-138,-314,-50,2,-67,-88
-27,-86,-55,54,7,-71,-90,-242,15,44,-43,-76
-27,-104,-73,66,19,-89,-66,-188,15,26,-55,-94
-15,-116,-97,66,37,-107,-42,-164,9,8,-73,-106
-10,-122,-109,66,43,-119,-24,-152,9,14,-61,-94
-10,-122,-109,66,43,-119,-18,-134,-2,-9,-73,-100
-10,-134,-127,66,55,-131,-18,-134,-32,-39,-97,-124
-10,-122,-115,60,49,-119,-24,-116,-38,-63,-115,-118
-10,-122,-121,60,55,-119,-24,-116,-50,-75,-133,-124
-10,-122,-109,66,43,-119,-12,-104,-62,-111,-145,-124
-15,-122,-103,66,37,-113,-6,-104,-80,-135,-169,-136
-15,-134,-115,72,43,-125,-6,-104,-98,-147,-175,-136
-15,-134,-115,72,43,-125,-1,-110,-122,-159,-187,-142
-21,-146,-121,84,43,-137,-1,-110,-140,-165,-187,-136
-21,-158,-133,90,49,-149,-1,-110,-164,-171,-193,-142
-21,-158,-133,90,49,-149,-1,-116,-170,-177,-193,-142
-21,-158,-133,90,49,-149,-1,-128,-170,-183,-205,-142
-21,-152,-127,84,49,-143,-1,-128,-170,-189,-205,-142
-21,-152,-127,84,49,-143,-1,-134,-170,-207,-211,-130
-21,-152,-127,84,49,-143,-1,-140,-170,-213,-211,-124
-15,-158,-139,84,55,-149,-1,-140,-176,-213,-211,-112
-15,-158,-139,84,55,-149,-1,-140,-182,-213,-217,-106
-10,-164,-151,84,67,-161,-1,-140,-182,-219,-217,-100
-10,-164,-151,84,67,-161,-1,-140,-188,-219,-217,-100
-10,-158,-145,84,61,-155,-1,-128,-200,-219,-217,-100
-10,-164,-151,84,67,-161,-1,-128,-200,-213,-217,-100
-10,-158,-145,84,61,-155,-1,-122,-200,-207,-217,-100
-10,-158,-151,78,67,-155,-1,-116,-200,-207,-217,-106
-10,-158,-145,84,61,-155,-1,-116,-200,-213,-217,-118
-10,-158,-145,84,61,-155,-1,-110,-200,-213,-217,-124
-15,-152,-133,84,55,-143,-1,-110,-194,-219,-211,-130
-15,-146,-127,78,49,-137,-1,-110,-194,-219,-211,-136
-10,-146,-133,78,55,-143,-1,-116,-194,-225,-217,-160
-10,-146,-133,78,55,-143,-1,-116,-182,-231,-217,-166
-10,-146,-139,72,61,-143,-1,-122,-182,-237,-223,-184
-10,-140,-133,72,61,-137,-1,-122,-176,-237,-223,-184
-10,-140,-139,66,67,-137,5,-116,-176,-237,-223,-190
-10,-140,-139,66,67,-137,5,-116,-170,-237,-217,-190
-10,-140,-139,66,67,-137,5,-116,-170,-237,-217,-190
-10,-140,-139,66,67,-137,5,-110,-170,-237,-217,-190
-10,-134,-127,66,55,-131,5,-104,-170,-237,-211,-190
-10,-134,-133,66,61,-131,5,-104,-170,-237,-211,-190
-10,-128,-121,66,55,-125,5,-92,-176,-237,-205,-184
-10,-122,-115,60,49,-119,5,-92,-176,-237,-199,-178
-10,-122,-115,60,49,-119,5,-92,-176,-237,-199,-166
-10,-122,-115,60,49,-119,5,-92,-176,-237,-193,-148
-10,-122,-115,60,49,-119,5,-86,-176,-237,-181,-136
-10,-122,-115,60,49,-119,5,-86,-176,-237,-175,-124
-10,-122,-115,60,49,-119,5,-92,-170,-237,-169,-106
-10,-116,-109,60,49,-113,5,-86,-170,-231,-169,-88
-10,-116,-109,60,49,-113,5,-92,-164,-231,-169,-76
-10,-116,-109,60,49,-113,5,-92,-164,-225,-169,-64
-10,-116,-109,60,49,-113,-1,-86,-170,-231,-163,-52
-10,-116,-109,60,49,-113,-1,-86,-170,-225,-157,-40
-10,-122,-115,60,49,-119,-1,-80,-176,-231,-157,-40
-10,-116,-109,60,49,-113,-1,-80,-170,-231,-151,-22
-10,-110,-103,54,43,-107,-1,-74,-164,-219,-145,-16
-10,-110,-109,54,49,-107,-1,-74,-158,-219,-145,-16
-10,-110,-109,54,49,-107,5,-68,-152,-213,-133,-10
-10,-110,-109,54,49,-107,5,-68,-140,-213,-121,-4
-10,-104,-103,48,49,-101,-1,-62,-146,-219,-127,-4
-10,-98,-97,48,43,-95,-1,-62,-146,-225,-133,-4
-10,-92,-91,42,43,-89,-6,-56,-152,-231,-139,-4
-10,-86,-85,42,37,-83,-1,-56,-152,-237,-145,-4
-10,-86,-85,42,37,-83,-1,-50,-146,-231,-139,-10
-10,-80,-79,36,37,-77,-1,-50,-146,-231,-139,-4
-10,-80,-79,36,37,-77,-1,-50,-140,-219,-133,-10
-10,-74,-73,36,31,-71,-1,-38,-134,-219,-127,-10
-4,-74,-79,30,37,-77,-1,-44,-134,-219,-121,-16
-4,-74,-79,30,37,-77,-1,-38,-122,-213,-109,-16
-4,-74,-79,30,37,-77,-1,-44,-116,-207,-103,-16
-4,-68,-73,30,37,-71,-1,-44,-116,-207,-97,-16
-4,-56,-61,24,31,-59,-1,-38,-116,-207,-97,-16
-4,-50,-55,18,25,-53,-1,-26,-110,-201,-97,-16
-4,-38,-43,12,19,-41,-1,-26,-110,-201,-97,-22
2,-32,-43,12,25,-35,-1,-26,-104,-189,-91,-22
2,-32,-43,12,25,-35,-1,-20,-92,-189,-85,-28
2,-26,-37,12,19,-29,-1,-20,-86,-183,-85,-28
8,-26,-43,12,25,-35,5,-14,-86,-177,-73,-34
8,-20,-37,12,25,-29,11,-14,-86,-171,-73,-34
14,-15,-37,7,25,-23,5,-20,-92,-165,-67,-34
14,-15,-31,7,25,-17,5,-14,-74,-165,-61,-34
14,-15,-25,1,25,-12,-1,-20,-74,-153,-55,-22
20,-9,-25,-5,25,-12,-1,-14,-68,-147,-43,-16
14,-3,-13,-5,19,-12,-1,-14,-68,-141,-37,-10
14,3,-8,-5,13,-6,-1,-14,-68,-129,-31,2
8,9,-8,-5,7,0,-1,-14,-56,-117,-20,20
14,21,-2,-17,7,12,-1,-14,-50,-111,-20,32
14,21,-2,-17,7,12,-1,-8,-44,-87,-8,44
14,27,4,-17,1,18,-1,-8,-38,-75,4,49
14,27,4,-17,1,18,-6,-3,-32,-57,4,67
14,39,16,-23,1,30,-18,-3,-20,-45,16,85
26,51,16,-35,1,36,-18,-3,-8,-33,34,103
26,57,22,-41,1,42,-24,-3,4,-15,46,121
38,75,28,-53,1,54,-24,3,9,-3,58,133
38,87,40,-59,1,66,-24,3,15,2,70,151
38,87,40,-59,1,66,-24,15,21,14,82,169
38,99,52,-65,1,78,-30,15,33,26,94,187
44,99,46,-71,1,72,-24,21,39,44,106,205
44,117,64,-77,1,90,-30,21,45,56,118,223
44,129,76,-83,-4,102,-30,27,57,74,130,247
50,141,82,-95,-4,114,-36,27,69,86,148,253
50,147,88,-95,-10,120,-42,39,87,110,160,271
50,165,106,-107,-16,138,-42,39,99,116,172,283
56,171,106,-113,-16,138,-48,51,99,128,184,289
56,183,118,-119,-22,150,-54,57,117,146,208,301
56,201,136,-125,-28,168,-60,69,111,152,220,313
56,213,148,-131,-34,180,-60,69,123,164,238,325
62,225,154,-143,-34,192,-60,87,141,188,256,343
62,231,166,-149,-40,204,-60,87,153,206,274,361
68,243,172,-155,-40,210,-54,99,171,230,280,379
68,255,184,-161,-46,222,-54,105,183,236,304,397
68,267,196,-167,-52,228,-60,111,189,254,328,403
74,279,202,-179,-52,240,-60,117,201,272,346,409
74,297,220,-185,-64,258,-66,123,213,284,364,415
80,309,226,-197,-64,264,-66,135,225,296,382,427
86,315,226,-203,-58,270,-72,135,231,320,400,439
86,327,232,-209,-64,282,-72,147,243,338,406,445
86,339,244,-215,-70,294,-78,147,249,344,424,457
92,351,250,-221,-70,300,-78,153,249,362,442,463
92,363,262,-227,-76,312,-78,165,267,374,454,463
92,375,274,-227,-82,324,-78,177,273,392,466,463
98,387,280,-239,-82,336,-72,183,297,404,472,469
98,387,280,-239,-82,336,-72,189,309,416,484,481
98,399,292,-245,-88,348,-72,195,315,434,496,475
98,405,298,-245,-94,354,-72,207,321,446,508,481
98,417,310,-251,-100,366,-72,207,333,458,508,475
98,429,322,-257,-106,378,-66,213,345,470,520,481
92,435,334,-257,-112,384,-66,225,345,482,538,487
98,441,334,-263,-112,390,-66,237,363,488,550,499
92,453,352,-269,-124,402,-72,237,375,500,562,511
92,459,358,-269,-124,408,-72,243,387,512,574,517
104,465,352,-281,-118,408,-78,249,405,530,580,523
104,471,364,-287,-124,420,-78,255,411,542,586,529
110,477,364,-293,-118,426,-84,261,429,560,598,529
110,477,364,-293,-118,426,-84,273,441,572,604,529
116,483,364,-299,-118,426,-72,279,453,584,610,535
116,483,364,-299,-118,426,-72,285,465,584,616,535
116,495,376,-305,-124,438,-66,297,471,602,622,541
116,495,376,-305,-124,438,-54,315,483,602,628,541
110,495,382,-299,-130,444,-54,327,495,608,622,541
110,495,382,-299,-130,444,-54,339,507,620,622,541
98,495,394,-293,-142,450,-42,345,525,626,622,541
98,495,394,-293,-142,450,-36,351,537,632,622,541
104,489,382,-293,-130,438,-24,363,531,632,610,535
104,477,370,-287,-124,426,-18,381,549,632,604,529
104,471,358,-281,-118,414,-12,393,543,632,598,517
98,459,352,-275,-118,408,-1,405,549,620,580,505
92,447,346,-263,-118,396,-1,417,555,620,580,487
92,429,328,-257,-112,378,-1,423,561,608,562,469
86,411,316,-245,-106,366,5,429,561,602,544,457
80,393,304,-233,-106,348,23,441,561,590,526,445
80,381,292,-227,-100,336,23,441,549,566,502,427
74,363,280,-221,-94,324,29,441,537,548,484,403
68,351,274,-209,-94,312,29,435,513,530,454,379
62,333,262,-197,-94,300,35,423,495,500,430,361
56,315,250,-185,-88,282,41,405,483,482,394,337
50,291,232,-173,-82,264,47,387,465,452,364,313
38,273,232,-155,-88,252,53,369,447,422,334,289
32,249,214,-143,-82,228,59,357,435,386,310,265
32,225,190,-131,-70,210,59,339,417,356,286,241
26,207,172,-113,-64,192,65,327,387,332,262,217
32,183,142,-107,-46,162,65,315,363,308,244,193
26,165,130,-95,-40,150,65,291,339,278,220,175
20,147,118,-83,-40,132,65,267,309,242,196,151
14,129,106,-71,-34,120,65,249,285,230,172,127
8,105,88,-53,-28,96,65,219,249,200,136,115
8,87,70,-47,-22,78,65,207,231,164,118,91
2,75,64,-35,-22,72,59,189,207,152,94,61
2,57,46,-29,-10,54,59,177,195,134,70,49
2,45,34,-23,-4,42,53,165,177,116,58,44
-10,27,28,-5,-10,30,53,159,159,92,40,26
-10,15,16,1,-4,18,59,141,141,80,16,20
-10,-3,4,12,1,0,59,129,123,62,4,8
-10,-9,-2,12,1,-6,59,117,99,44,-14,-10
-10,-15,-8,12,1,-12,53,105,81,32,-20,-22
-10,-15,-8,12,1,-12,59,99,63,20,-20,-16
-10,-20,-8,12,1,-17,59,87,57,8,-31,-16
-15,-32,-13,24,1,-23,65,81,45,2,-31,-16
-21,-32,-8,24,1,-23,59,81,39,2,-43,-16
-15,-44,-25,30,1,-35,53,81,39,-3,-49,-22
-15,-50,-31,30,1,-41,53,81,33,-3,-55,-28
-15,-74,-55,42,13,-65,53,81,27,-3,-61,-22
-15,-74,-55,42,13,-65,59,69,15,-9,-61,-22
-15,-68,-49,42,13,-59,53,69,9,-9,-61,-22
-15,-74,-55,42,13,-65,53,69,9,-15,-67,-22
-15,-74,-55,42,13,-65,47,57,-2,-15,-67,-34
-15,-74,-55,42,13,-65,47,51,-8,-15,-67,-34
-10,-80,-67,42,25,-77,47,51,-2,-21,-67,-40
-10,-80,-67,42,25,-77,47,45,-2,-27,-67,-40
-10,-92,-79,48,31,-89,41,45,-2,-27,-67,-46
-15,-92,-73,54,25,-83,41,51,-2,-27,-79,-46
-21,-92,-67,54,19,-83,41,51,-2,-27,-79,-40
-21,-92,-67,54,19,-83,35,45,-2,-27,-73,-40
-27,-86,-55,54,7,-71,35,45,-8,-33,-73,-34
-27,-86,-55,54,7,-71,35,45,-8,-39,-73,-34
-21,-86,-61,54,13,-77,35,39,-20,-33,-85,-40
-21,-80,-55,48,13,-71,35,39,-26,-33,-85,-46
-10,-80,-67,42,25,-77,35,39,-32,-27,-91,-52
-10,-80,-67,42,25,-77,35,39,-32,-27,-91,-52
-10,-86,-73,48,25,-83,29,39,-32,-27,-97,-52
-10,-86,-73,48,25,-83,29,39,-32,-27,-97,-46
-10,-92,-79,48,31,-89,23,39,-32,-27,-97,-46
-10,-92,-79,48,31,-89,23,39,-32,-27,-97,-46
-10,-98,-85,54,31,-95,29,39,-32,-21,-91,-40
-15,-98,-79,54,25,-89,29,39,-32,-27,-91,-40
-15,-92,-73,54,25,-83,29,39,-38,-21,-85,-28
-10,-92,-79,48,31,-89,29,39,-38,-21,-85,-28
-10,-92,-79,48,31,-89,29,39,-32,-21,-85,-28
-10,-92,-79,48,31,-89,29,33,-32,-21,-85,-28
-10,-92,-79,48,31,-89,29,33,-32,-21,-85,-22
-10,-92,-79,48,31,-89,29,33,-32,-21,-85,-22
-10,-92,-79,48,31,-89,29,27,-38,-27,-91,-22
-10,-92,-79,48,31,-89,29,27,-38,-27,-91,-22
-10,-86,-73,48,25,-83,29,27,-44,-33,-97,-10
-10,-86,-73,48,25,-83,23,21,-50,-33,-97,-10
-10,-86,-73,48,25,-83,17,21,-44,-27,-97,-10
-10,-86,-73,48,25,-83,17,21,-50,-39,-97,-10
-10,-80,-67,42,25,-77,11,21,-56,-33,-97,-4
-10,-80,-67,42,25,-77,5,15,-56,-33,-97,-4
-10,-92,-79,48,31,-89,11,15,-62,-33,-97,-4
-10,-92,-79,48,31,-89,11,3,-62,-45,-97,-10
-10,-92,-79,48,31,-89,17,3,-68,-45,-103,-10
-10,-92,-79,48,31,-89,17,3,-68,-51,-103,-4
-10,-98,-91,48,37,-95,17,-3,-80,-51,-103,-4
-10,-98,-91,48,37,-95,17,-3,-86,-51,-103,-10
-10,-98,-91,48,37,-95,17,-3,-98,-51,-103,-10
-10,-98,-91,48,37,-95,17,-3,-98,-51,-109,-10
-10,-92,-85,48,37,-89,17,-3,-98,-63,-109,-4
-10,-92,-85,48,37,-89,11,-3,-98,-69,-115,-10
-10,-86,-79,42,31,-83,11,-3,-110,-75,-115,-4
-10,-86,-79,42,31,-83,11,-8,-116,-81,-115,2
-10,-86,-79,42,31,-83,11,-14,-116,-81,-115,8
-10,-86,-79,42,31,-83,11,-20,-122,-87,-121,8
-10,-86,-79,42,31,-83,11,-20,-122,-87,-127,8
-10,-86,-79,42,31,-83,11,-26,-128,-93,-127,8
-10,-86,-79,42,31,-83,11,-26,-128,-93,-127,8
-10,-86,-79,42,31,-83,11,-26,-134,-93,-127,2
-10,-92,-79,48,31,-89,5,-26,-140,-99,-127,2
-10,-92,-79,48,31,-89,5,-26,-140,-99,-133,-4
-10,-98,-85,54,31,-95,5,-20,-140,-93,-133,-10
-10,-98,-85,54,31,-95,5,-20,-146,-99,-133,-10
-10,-104,-91,54,37,-101,5,-20,-146,-93,-127,-10
-10,-104,-91,54,37,-101,5,-20,-146,-93,-127,-10
-10,-104,-97,54,43,-101,5,-20,-158,-99,-127,-16
-10,-104,-97,54,43,-101,-1,-32,-164,-105,-133,-16
-10,-110,-109,54,49,-107,-1,-32,-164,-117,-133,-10
-10,-110,-109,54,49,-107,-1,-32,-170,-117,-133,-10
-10,-110,-109,54,49,-107,-1,-32,-170,-117,-133,-16
-10,-110,-109,54,49,-107,-1,-32,-176,-117,-139,-16
-10,-110,-109,54,49,-107,-1,-38,-176,-117,-139,-16
-10,-110,-109,54,49,-107,-1,-38,-176,-123,-139,-16
-10,-116,-109,60,49,-113,-1,-38,-176,-123,-151,-16
-10,-116,-109,60,49,-113,-1,-38,-176,-123,-151,-4
-10,-116,-103,60,43,-113,-1,-38,-188,-117,-157,-4
-10,-116,-103,60,43,-113,-1,-38,-188,-117,-157,-4
-10,-116,-103,60,43,-113,-1,-38,-182,-129,-169,-4
-10,-122,-109,66,43,-119,-1,-44,-182,-129,-169,-4
-10,-122,-109,66,43,-119,-1,-44,-194,-135,-169,-4
-10,-122,-109,66,43,-119,-1,-44,-200,-141,-169,-4
-10,-122,-109,66,43,-119,-1,-44,-200,-147,-169,2
-10,-122,-109,66,43,-119,-1,-44,-194,-147,-169,2
-10,-128,-115,66,49,-125,-1,-44,-194,-147,-181,2
-10,-128,-115,66,49,-125,-1,-44,-194,-147,-181,2
-10,-128,-115,66,49,-125,-1,-44,-206,-141,-187,8
-10,-128,-115,66,49,-125,-1,-44,-206,-141,-187,8
-10,-128,-115,66,49,-125,-1,-44,-212,-141,-193,14
-15,-134,-115,72,43,-125,-1,-44,-212,-141,-193,20
-15,-134,-115,72,43,-125,-1,-50,-212,-147,-193,14
-15,-134,-115,72,43,-125,-1,-50,-218,-147,-193,14
-15,-134,-115,72,43,-125,-1,-50,-218,-153,-187,8
-15,-134,-115,72,43,-125,-1,-56,-218,-153,-187,8
-15,-134,-115,72,43,-125,-1,-56,-212,-153,-193,8
-15,-134,-115,72,43,-125,-1,-56,-212,-153,-193,8
-15,-140,-121,78,49,-131,-1,-50,-212,-153,-199,14
-15,-140,-121,78,49,-131,-1,-50,-212,-153,-199,14
-15,-140,-121,78,49,-131,-6,-56,-212,-153,-193,14
-15,-140,-121,78,49,-131,-6,-56,-212,-153,-193,14
-15,-140,-121,78,49,-131,-6,-56,-212,-147,-187,14
-15,-140,-121,78,49,-131,-6,-56,-212,-147,-187,14
-15,-140,-121,78,49,-131,-6,-68,-218,-153,-187,20
-15,-140,-121,78,49,-131,-6,-68,-218,-153,-187,14
-15,-140,-121,78,49,-131,-6,-68,-218,-159,-187,14
-15,-140,-121,78,49,-131,-6,-74,-218,-159,-187,14
-15,-140,-121,78,49,-131,-6,-80,-224,-165,-193,14
-15,-140,-121,78,49,-131,-6,-80,-230,-165,-193,14
-15,-134,-115,72,43,-125,-6,-80,-230,-171,-199,14
-15,-134,-115,72,43,-125,-6,-80,-230,-171,-199,14
-15,-140,-121,78,49,-131,-6,-80,-230,-171,-199,14
-15,-140,-121,78,49,-131,-6,-86,-230,-171,-199,14
-15,-146,-127,78,49,-137,-6,-86,-224,-171,-199,14
-15,-146,-127,78,49,-137,-6,-86,-224,-171,-199,8
-15,-146,-127,78,49,-137,-12,-98,-224,-177,-199,8
-15,-146,-127,78,49,-137,-12,-98,-224,-177,-199,8
-15,-146,-127,78,49,-137,-12,-110,-230,-183,-205,8
-15,-146,-127,78,49,-137,-18,-110,-230,-183,-205,2
-15,-140,-121,78,49,-131,-18,-104,-230,-189,-205,8
-15,-140,-121,78,49,-131,-18,-104,-230,-195,-205,-4
-10,-134,-121,72,49,-131,-18,-98,-236,-201,-205,2
-10,-134,-121,72,49,-131,-18,-104,-242,-207,-205,2
-15,-134,-115,72,43,-125,-18,-104,-236,-207,-211,2
-15,-134,-115,72,43,-125,-18,-104,-236,-213,-211,2
-15,-134,-115,72,43,-125,-18,-104,-230,-219,-217,2
-15,-134,-115,72,43,-125,-18,-98,-230,-225,-217,2
-15,-140,-121,78,49,-131,-12,-98,-230,-225,-211,8
-15,-140,-121,78,49,-131,-18,-98,-230,-225,-205,8
-15,-140,-121,78,49,-131,-12,-92,-230,-231,-199,14
-15,-140,-121,78,49,-131,-12,-92,-230,-231,-193,14
-15,-134,-115,72,43,-125,-12,-98,-230,-237,-199,8
-15,-134,-115,72,43,-125,-12,-98,-230,-237,-199,8
-15,-128,-109,72,43,-119,-12,-104,-230,-243,-205,2
-15,-128,-109,72,43,-119,-12,-104,-230,-249,-205,-4
-15,-134,-115,72,43,-125,-18,-98,-230,-255,-211,-10
-15,-134,-115,72,43,-125,-24,-98,-230,-261,-211,-10
-10,-140,-127,72,55,-137,-30,-86,-230,-267,-217,-16
-10,-140,-127,72,55,-137,-30,-86,-230,-273,-217,-16
-10,-140,-127,72,55,-137,-30,-86,-230,-279,-217,-16
-10,-140,-127,72,55,-137,-30,-86,-230,-285,-217,-16
-10,-140,-127,72,55,-137,-30,-86,-230,-291,-217,-16
-10,-140,-127,72,55,-137,-30,-86,-230,-291,-217,-16
-15,-146,-127,78,49,-137,-24,-80,-230,-291,-217,-10
-15,-146,-127,78,49,-137,-24,-80,-230,-291,-217,-10
-15,-152,-133,84,55,-143,-18,-74,-230,-291,-217,-4
-15,-152,-133,84,55,-143,-18,-74,-230,-297,-217,-4
-15,-152,-133,84,55,-143,-24,-74,-236,-303,-211,-4
-15,-152,-133,84,55,-143,-24,-74,-236,-303,-211,-4
-15,-152,-133,84,55,-143,-24,-74,-248,-309,-205,-10
-15,-152,-133,84,55,-143,-24,-80,-248,-309,-205,-10
-15,-152,-133,84,55,-143,-24,-74,-248,-315,-211,-4
-15,-152,-133,84,55,-143,-24,-74,-242,-321,-211,-4
-15,-152,-133,84,55,-143,-24,-68,-242,-327,-217,2
-15,-158,-139,84,55,-149,-24,-74,-242,-333,-217,2
-15,-152,-133,84,55,-143,-24,-74,-236,-327,-223,8
-15,-152,-133,84,55,-143,-24,-68,-236,-327,-223,14
-15,-146,-127,78,49,-137,-24,-62,-230,-321,-229,20
-15,-146,-127,78,49,-137,-30,-56,-230,-321,-229,20
-15,-146,-127,78,49,-137,-24,-62,-236,-321,-223,20
-15,-146,-127,78,49,-137,-24,-68,-236,-321,-223,20
-15,-146,-127,78,49,-137,-18,-74,-230,-321,-217,20
-15,-146,-127,78,49,-137,-18,-74,-230,-321,-217,20
-15,-146,-127,78,49,-137,-24,-74,-230,-333,-217,26
-15,-146,-127,78,49,-137,-24,-74,-230,-333,-217,26
-15,-146,-127,78,49,-137,-30,-80,-230,-339,-217,26
-15,-146,-127,78,49,-137,-30,-80,-230,-339,-217,26
-15,-152,-133,84,55,-143,-30,-80,-230,-339,-217,26
-15,-146,-127,78,49,-137,-30,-80,-230,-339,-217,32
-15,-152,-133,84,55,-143,-30,-86,-230,-339,-217,32
-15,-152,-133,84,55,-143,-36,-86,-242,-339,-217,26
-10,-140,-133,72,61,-137,-30,-74,-242,-351,-217,38
-10,-140,-133,72,61,-137,-18,-80,-230,-345,-217,44
-10,-140,-127,72,55,-137,-18,-80,-230,-345,-217,44
-10,-140,-127,72,55,-137,-18,-80,-230,-345,-217,44
-15,-140,-121,78,49,-131,-18,-80,-230,-345,-217,44
-15,-140,-121,78,49,-131,-18,-80,-230,-345,-217,44
-15,-140,-121,78,49,-131,-24,-80,-230,-345,-217,44
-15,-140,-121,78,49,-131,-24,-80,-230,-345,-217,44
-15,-140,-121,78,49,-131,-30,-80,-224,-345,-217,44
-15,-140,-121,78,49,-131,-30,-80,-224,-345,-217,44
-15,-146,-127,78,49,-137,-30,-74,-224,-351,-211,44
-15,-146,-127,78,49,-137,-30,-74,-224,-351,-211,44
-15,-152,-133,84,55,-143,-30,-68,-224,-357,-205,44
-15,-152,-133,84,55,-143,-30,-68,-224,-357,-205,44
-15,-146,-127,78,49,-137,-30,-62,-230,-357,-205,44
-15,-146,-127,78,49,-137,-30,-62,-230,-357,-205,44
-15,-140,-121,78,49,-131,-30,-56,-230,-357,-205,44
-15,-140,-121,78,49,-131,-30,-56,-230,-357,-205,44
-10,-140,-127,72,55,-137,-30,-50,-230,-357,-211,38
-10,-140,-127,72,55,-137,-30,-50,-230,-357,-211,38
-10,-140,-133,72,61,-137,-30,-44,-224,-357,-217,32
-10,-140,-133,72,61,-137,-30,-44,-224,-357,-217,32
-10,-146,-139,72,61,-143,-24,-44,-230,-357,-217,26
-10,-146,-139,72,61,-143,-24,-44,-230,-357,-217,26
-10,-152,-145,78,67,-149,-18,-44,-230,-357,-217,20
-10,-152,-145,78,67,-149,-18,-44,-230,-357,-217,20
-10,-146,-133,78,55,-143,-18,-44,-230,-363,-217,20
-10,-146,-133,78,55,-143,-18,-44,-230,-363,-217,20
-15,-140,-121,78,49,-131,-18,-44,-230,-369,-217,20
-15,-140,-121,78,49,-131,-18,-44,-230,-369,-217,20
-15,-146,-127,78,49,-137,-24,-38,-230,-363,-217,14
-15,-146,-127,78,49,-137,-24,-38,-230,-363,-217,14
-15,-152,-133,84,55,-143,-30,-32,-230,-357,-217,8
-15,-152,-133,84,55,-143,-30,-32,-230,-357,-217,8
-15,-158,-139,84,55,-149,-30,-38,-230,-351,-217,8
-15,-158,-139,84,55,-149,-30,-38,-230,-351,-217,8
-15,-164,-145,90,61,-155,-30,-44,-230,-345,-217,8
-15,-164,-145,90,61,-155,-30,-44,-230,-345,-217,8
-15,-158,-139,84,55,-149,-30,-44,-230,-345,-217,2
-15,-158,-139,84,55,-149,-30,-44,-230,-345,-217,2
-15,-152,-133,84,55,-143,-30,-44,-230,-345,-217,-4
-15,-152,-133,84,55,-143,-30,-44,-230,-345,-217,-4
-15,-152,-133,84,55,-143,-30,-50,-230,-345,-217,-4
-15,-152,-133,84,55,-143,-30,-56,-230,-345,-217,-4
-15,-152,-133,84,55,-143,-30,-62,-230,-345,-217,-4
-15,-152,-133,84,55,-143,-30,-68,-230,-345,-217,-4
-15,-152,-133,84,55,-143,-30,-68,-230,-339,-223,-4
-15,-152,-133,84,55,-143,-30,-68,-230,-339,-223,-4
-15,-152,-133,84,55,-143,-30,-68,-224,-333,-229,-4
-15,-152,-133,84,55,-143,-30,-68,-224,-333,-229,-4
-15,-152,-133,84,55,-143,-24,-68,-224,-333,-223,-10
-15,-152,-133,84,55,-143,-24,-68,-224,-333,-223,-10
-15,-152,-133,84,55,-143,-18,-68,-224,-327,-217,-16
-15,-158,-139,84,55,-149,-18,-68,-224,-327,-217,-16
-15,-158,-139,84,55,-149,-24,-68,-230,-327,-223,-10
-15,-158,-139,84,55,-149,-24,-62,-230,-327,-223,-10
-15,-158,-139,84,55,-149,-30,-62,-230,-315,-223,2
-15,-152,-133,84,55,-143,-30,-62,-230,-315,-223,2
-15,-158,-139,84,55,-149,-24,-56,-230,-315,-223,-4
-15,-158,-139,84,55,-149,-24,-56,-230,-315,-223,-4
-15,-164,-145,90,61,-155,-18,-56,-224,-315,-223,-4
-15,-164,-145,90,61,-155,-18,-56,-224,-315,-223,-4
-15,-146,-127,78,49,-137,-12,-50,-224,-309,-223,-4
-10,-140,-127,72,55,-137,-12,-38,-218,-303,-211,-4
-10,-128,-115,66,49,-125,-1,-32,-218,-297,-205,8
-10,-110,-97,60,37,-107,-1,-26,-206,-291,-199,14
-10,-98,-85,54,31,-95,5,-14,-200,-279,-193,14
-10,-92,-79,48,31,-89,11,-14,-194,-273,-193,14
-10,-86,-73,48,25,-83,17,-8,-188,-261,-175,26
-10,-80,-73,42,31,-77,17,-3,-182,-261,-169,26
-10,-74,-67,36,25,-71,17,-3,-176,-255,-175,20
-10,-68,-61,36,25,-65,23,-3,-176,-255,-181,26
-10,-74,-67,36,25,-71,23,-3,-182,-255,-187,26
-10,-74,-61,42,19,-71,23,-3,-182,-255,-181,26
-10,-74,-61,42,19,-71,23,3,-176,-255,-181,20
-10,-62,-55,30,19,-59,23,3,-176,-249,-175,20
-10,-56,-55,24,25,-53,23,3,-176,-249,-175,20
-10,-38,-37,18,13,-35,11,3,-176,-243,-163,20
-4,-26,-31,12,13,-29,11,3,-170,-237,-163,20
2,-15,-25,12,13,-17,11,3,-170,-237,-163,32
8,-15,-19,7,19,-12,5,3,-164,-231,-163,26
14,-3,-13,-5,19,-12,5,3,-164,-231,-157,32
14,15,-8,-11,7,6,5,9,-152,-213,-145,44
14,15,-8,-11,7,6,5,15,-146,-207,-139,49
8,39,22,-23,1,30,11,21,-140,-189,-121,49
20,51,22,-35,1,36,11,27,-134,-183,-109,61
26,69,34,-47,1,54,-1,27,-128,-171,-103,61
32,69,28,-47,1,48,-1,27,-128,-171,-97,61
32,57,16,-41,7,36,-12,27,-122,-165,-91,67
38,51,4,-41,13,30,-12,27,-122,-165,-91,67
44,45,-8,-41,25,18,-12,21,-128,-171,-97,67
44,39,-8,-41,25,12,-12,27,-128,-177,-97,73
44,21,-19,-29,37,-6,-12,21,-134,-183,-103,73
44,9,-31,-23,43,-12,-12,15,-140,-195,-115,61
32,-3,-31,-11,37,-12,-18,3,-152,-195,-127,49
32,-15,-49,-5,43,-29,-18,3,-152,-195,-127,49
26,-15,-49,1,37,-29,-18,3,-158,-195,-133,49
20,-38,-67,12,43,-53,-12,3,-170,-207,-139,44
2,-62,-73,24,37,-65,-6,9,-164,-219,-151,32
-4,-86,-91,36,43,-89,-6,-3,-182,-231,-175,14
-10,-110,-103,54,43,-107,-1,-8,-188,-237,-193,-10
-15,-122,-103,66,37,-113,-1,-20,-200,-243,-199,-22
-21,-122,-97,72,31,-113,-6,-20,-212,-249,-205,-28
-21,-134,-109,78,37,-125,-12,-32,-218,-255,-205,-28
-27,-140,-109,84,37,-125,-18,-44,-224,-249,-205,-22
-27,-152,-121,90,43,-137,-18,-50,-230,-255,-211,-28
-27,-152,-121,90,43,-137,-24,-44,-236,-267,-217,-28
-27,-158,-127,90,43,-143,-24,-56,-242,-273,-223,-34
-27,-158,-127,90,43,-143,-24,-50,-242,-285,-229,-28
-27,-158,-127,90,43,-143,-30,-50,-242,-285,-229,-28
-27,-164,-133,96,49,-149,-24,-44,-242,-285,-223,-34
-27,-164,-133,96,49,-149,-24,-44,-242,-285,-223,-34
-27,-170,-139,96,49,-155,-18,-50,-242,-285,-223,-40
-27,-170,-139,96,49,-155,-18,-50,-242,-285,-223,-40
-27,-158,-127,90,43,-143,-6,-44,-230,-261,-211,-34
-39,-158,-115,96,31,-137,-6,-26,-224,-261,-199,-28
-39,-158,-115,96,31,-137,-6,-3,-206,-243,-199,-16
-33,-146,-109,90,31,-131,-1,3,-200,-237,-193,-16
-39,-134,-91,84,19,-113,11,15,-176,-231,-193,-16
-39,-140,-97,90,25,-119,5,33,-164,-219,-187,-10
-39,-134,-91,84,19,-113,11,45,-152,-213,-181,-4
-39,-122,-79,78,13,-101,23,63,-128,-201,-181,2
-45,-116,-67,78,7,-95,35,87,-98,-171,-163,32
-45,-110,-61,78,1,-89,41,111,-68,-147,-145,38
-57,-92,-31,72,-4,-65,53,135,-50,-147,-133,38
-57,-86,-25,72,-10,-59,59,153,-38,-129,-121,49
-45,-74,-25,60,-4,-53,71,183,-2,-93,-109,55
-39,-44,-8,42,-10,-23,83,213,15,-63,-85,73
-39,-38,-8,36,-16,-17,107,261,57,-27,-55,79
-39,-26,4,30,-22,-12,149,309,105,2,-20,109
-27,-26,-8,24,-10,-12,167,351,147,20,-14,127
-10,-26,-19,12,1,-23,185,411,171,32,-14,127
-10,-38,-37,18,13,-35,221,483,231,56,4,139
2,-32,-43,12,25,-35,269,591,291,80,16,151
2,-26,-37,12,19,-29,347,723,357,98,16,145
-10,-20,-8,12,1,-17,449,855,435,122,16,145
-27,-9,22,12,-22,6,533,969,501,140,28,145
-57,45,106,12,-76,72,605,1047,549,176,52,163
-63,147,214,-35,-136,180,659,1125,621,230,100,211
-69,279,352,-101,-208,312,707,1221,723,326,202,289
-57,453,508,-191,-280,474,755,1335,909,524,376,439
-21,687,712,-323,-364,696,767,1443,1167,806,640,679
-4,921,916,-461,-454,918,779,1485,1407,1112,946,943
14,1053,1030,-533,-496,1044,761,1443,1569,1376,1186,1159
32,1149,1108,-587,-526,1128,695,1329,1689,1586,1408,1333
68,1221,1150,-647,-532,1188,527,1137,1791,1838,1642,1531
116,1299,1180,-707,-520,1236,287,861,1827,2071,1882,1717
158,1341,1180,-743,-502,1260,35,561,1809,2275,2049,1825
218,1275,1054,-743,-412,1170,-180,333,1803,2419,2163,1873
266,1167,892,-719,-304,1026,-342,177,1815,2532,2205,1879
290,1101,802,-695,-244,954,-444,15,1791,2622,2253,1879
290,1095,796,-695,-244,948,-516,-146,1743,2712,2295,1867
290,1071,772,-683,-238,924,-576,-266,1677,2784,2313,1843
260,999,730,-629,-232,870,-642,-362,1587,2796,2289,1765
236,879,634,-557,-190,756,-720,-404,1467,2748,2193,1645
206,711,496,-455,-142,606,-720,-350,1347,2580,1984,1423
158,471,310,-311,-70,396,-594,-260,1185,2185,1570,1081
86,231,142,-161,-16,192,-432,-212,921,1598,1018,685
8,69,52,-35,-10,60,-324,-212,657,1064,574,367
-21,-3,22,12,-16,6,-312,-254,405,686,310,205
-39,-20,10,30,-22,-12,-294,-314,99,296,100,97
-45,-68,-19,54,-4,-47,-234,-326,-122,-15,-73,26
-45,-92,-43,66,1,-71,-204,-278,-146,-93,-133,-16
-45,-98,-49,72,1,-77,-174,-212,-74,-39,-103,-4
-51,-134,-79,90,7,-107,-114,-158,-44,-27,-91,8
-39,-164,-121,102,37,-143,-78,-104,-44,-45,-91,2
-27,-176,-145,102,55,-161,-54,-56,-38,-51,-97,2
-21,-170,-145,96,55,-161,-48,-32,-26,-57,-97,2
-21,-158,-133,90,49,-149,-30,-3,-38,-81,-109,-4
-10,-158,-151,78,67,-155,-18,-3,-44,-111,-121,-16
-10,-146,-139,72,61,-143,-24,3,-50,-147,-151,-22
-10,-146,-145,72,67,-143,-24,3,-62,-171,-181,-40
-10,-146,-133,78,55,-143,-24,3,-86,-195,-193,-40
-15,-146,-127,78,49,-137,-18,3,-104,-207,-217,-40
-15,-146,-127,78,49,-137,-18,15,-122,-219,-223,-40
-15,-146,-127,78,49,-137,-12,9,-134,-231,-235,-46
-21,-158,-133,90,49,-149,-6,9,-152,-237,-235,-40
-21,-170,-145,96,55,-161,-6,9,-164,-237,-241,-46
-21,-170,-145,96,55,-161,-6,3,-170,-243,-241,-46
-21,-176,-151,96,61,-167,-1,3,-164,-237,-247,-40
-21,-176,-151,96,61,-167,-1,9,-164,-243,-247,-40
-21,-182,-157,102,61,-173,-1,15,-158,-249,-247,-22
-21,-188,-163,102,67,-179,-1,15,-158,-255,-247,-16
-21,-182,-157,102,61,-173,-1,15,-176,-249,-247,-4
-21,-182,-157,102,61,-173,-1,15,-182,-249,-253,2
-21,-176,-151,96,61,-167,-6,15,-194,-249,-253,8
-21,-176,-151,96,61,-167,-6,15,-200,-249,-253,8
-21,-176,-151,96,61,-167,-1,21,-206,-255,-247,2
-21,-182,-157,102,61,-173,-6,21,-206,-249,-247,2
-21,-182,-157,102,61,-173,-1,21,-200,-249,-241,-4
-15,-182,-163,96,67,-173,-1,27,-200,-249,-241,-10
-15,-182,-163,96,67,-173,-1,21,-206,-249,-247,-28
-15,-182,-163,96,67,-173,-1,21,-206,-249,-247,-40
-15,-176,-157,96,67,-167,-1,15,-206,-249,-247,-52
-15,-170,-151,90,61,-161,-1,9,-206,-249,-247,-64
-15,-170,-151,90,61,-161,-1,9,-206,-249,-247,-82
-15,-170,-151,90,61,-161,-1,9,-194,-249,-247,-88
-15,-170,-151,90,61,-161,-1,9,-194,-249,-247,-100
-15,-164,-145,90,61,-155,-1,9,-188,-249,-247,-100
-10,-158,-145,84,61,-155,-1,15,-182,-243,-247,-112
-10,-158,-145,84,61,-155,-1,15,-170,-237,-241,-112
-10,-152,-139,78,61,-149,-1,15,-164,-237,-241,-118
-10,-152,-139,78,61,-149,-1,21,-158,-231,-241,-118
-10,-152,-139,78,61,-149,-1,15,-152,-231,-247,-118
-10,-152,-145,78,67,-149,-1,15,-152,-231,-247,-118
-10,-152,-145,78,67,-149,-1,15,-152,-231,-253,-112
-10,-146,-139,72,61,-143,-1,15,-152,-231,-247,-106
-10,-146,-139,72,61,-143,-1,9,-152,-231,-253,-94
-10,-146,-139,72,61,-143,-1,9,-152,-231,-247,-76
-10,-146,-139,72,61,-143,-6,9,-152,-225,-241,-64
-10,-146,-139,72,61,-143,-6,9,-152,-225,-235,-52
-10,-146,-139,72,61,-143,-12,3,-152,-225,-229,-40
-10,-140,-133,72,61,-137,-12,9,-152,-219,-229,-22
-10,-140,-133,72,61,-137,-18,3,-152,-219,-229,-16
-10,-140,-133,72,61,-137,-18,3,-152,-213,-229,-4
-10,-134,-127,66,55,-131,-30,-3,-152,-213,-223,8
-10,-134,-127,66,55,-131,-30,-3,-152,-207,-217,20
-10,-134,-127,66,55,-131,-30,-3,-152,-207,-217,20
-10,-128,-121,66,55,-125,-30,-3,-146,-207,-211,38
-10,-122,-115,60,49,-119,-36,-3,-152,-201,-205,49
-10,-122,-121,60,55,-119,-36,-3,-152,-201,-205,49
-10,-122,-121,60,55,-119,-42,3,-158,-201,-193,49
-10,-122,-121,60,55,-119,-42,3,-152,-201,-181,55
-10,-122,-121,60,55,-119,-42,9,-158,-207,-181,49
-10,-116,-115,54,55,-113,-48,9,-158,-207,-181,49
-10,-116,-115,54,55,-113,-42,15,-164,-213,-181,49
-10,-110,-109,54,49,-107,-36,15,-164,-213,-181,49
-10,-110,-109,54,49,-107,-36,21,-164,-213,-175,49
-10,-104,-103,48,49,-101,-36,21,-164,-213,-175,49
-10,-104,-103,48,49,-101,-36,21,-164,-207,-169,49
-10,-98,-97,48,43,-95,-36,33,-158,-207,-163,49
-4,-92,-97,42,49,-95,-42,39,-158,-207,-169,44
-4,-92,-97,42,49,-95,-36,45,-146,-201,-157,44
-4,-86,-91,36,43,-89,-42,51,-140,-195,-163,44
-4,-80,-85,36,43,-83,-42,51,-140,-195,-157,44
-4,-74,-79,30,37,-77,-42,57,-134,-189,-145,49
-4,-68,-73,30,37,-71,-42,69,-128,-183,-145,49
-4,-62,-67,24,31,-65,-48,69,-122,-177,-133,49
2,-56,-67,18,37,-59,-48,69,-116,-165,-127,49
2,-56,-67,18,37,-59,-42,69,-104,-153,-127,49
2,-50,-61,18,31,-53,-42,69,-98,-147,-127,49
8,-50,-67,12,37,-59,-42,69,-98,-129,-121,49
8,-44,-61,12,37,-53,-36,69,-98,-123,-121,49
14,-38,-61,12,37,-47,-36,69,-98,-105,-109,49
14,-32,-55,12,37,-41,-36,75,-80,-99,-103,49
14,-26,-49,12,31,-35,-36,75,-74,-75,-91,61
20,-20,-49,7,37,-35,-36,81,-68,-63,-79,67
20,-15,-43,7,31,-29,-36,75,-74,-57,-73,79
20,-15,-37,1,31,-23,-36,75,-74,-45,-67,91
20,-15,-31,1,31,-17,-42,69,-68,-33,-55,115
26,-3,-25,-11,31,-12,-42,69,-62,-27,-49,127
26,9,-13,-17,25,-6,-42,63,-56,-9,-37,133
26,15,-8,-17,19,0,-42,63,-50,2,-25,145
26,27,-8,-23,13,12,-42,57,-44,2,-31,163
26,39,4,-29,7,24,-54,63,-32,14,-20,181
32,45,4,-35,13,24,-54,57,-32,26,-14,199
32,51,10,-41,7,30,-60,57,-20,44,-2,217
38,63,16,-47,7,42,-60,51,-20,56,10,229
38,75,28,-53,1,54,-60,51,-8,68,22,247
38,75,28,-53,1,54,-66,51,-8,80,40,259
38,87,40,-59,1,66,-72,45,4,92,52,277
44,87,34,-65,1,60,-72,39,4,104,70,289
44,105,52,-71,1,78,-78,33,9,116,82,301
44,117,64,-77,1,90,-84,33,9,128,88,313
50,129,70,-89,1,102,-90,33,9,140,100,313
50,135,76,-89,-4,108,-102,39,21,158,106,319
50,153,94,-101,-10,126,-102,39,27,164,112,325
56,159,94,-107,-10,126,-114,39,33,176,130,337
56,171,106,-113,-16,138,-120,45,51,194,160,349
56,189,124,-119,-22,156,-132,45,51,200,184,361
56,201,136,-125,-28,168,-132,45,63,212,208,373
62,213,142,-137,-28,180,-132,57,69,230,220,373
62,225,154,-143,-34,192,-138,57,81,242,232,379
68,231,160,-149,-34,198,-132,63,87,260,232,379
68,243,172,-155,-40,210,-138,69,99,266,256,385
68,255,184,-161,-46,222,-144,75,99,284,268,391
74,267,190,-173,-46,228,-144,81,111,302,286,397
74,285,208,-179,-58,246,-150,87,117,308,292,403
80,297,214,-191,-58,252,-150,99,129,320,310,415
80,303,220,-191,-58,258,-150,99,141,344,334,421
80,315,232,-197,-64,270,-150,111,153,362,346,427
74,327,244,-203,-76,288,-150,111,165,368,370,433
80,339,250,-209,-76,294,-150,117,171,386,394,439
80,351,262,-215,-82,306,-156,129,183,404,400,439
80,363,274,-221,-88,318,-156,141,189,422,412,439
86,375,280,-227,-88,330,-156,147,207,440,418,445
86,375,280,-227,-88,330,-156,153,219,452,430,457
86,387,292,-233,-94,342,-156,159,225,464,448,463
86,393,298,-233,-100,348,-156,171,231,476,460,469
86,405,310,-239,-106,360,-156,171,243,482,466,475
86,417,322,-245,-112,372,-150,177,249,488,472,481
92,423,322,-251,-106,372,-150,183,249,500,484,475
98,429,322,-257,-106,378,-156,195,267,512,496,481
104,441,328,-269,-106,384,-162,195,279,524,502,481
104,447,334,-269,-106,390,-168,201,291,536,514,481
110,447,328,-275,-100,390,-162,207,303,548,520,499
110,459,340,-281,-106,402,-156,213,309,560,526,505
110,459,340,-281,-106,402,-150,219,321,572,538,517
110,459,340,-281,-106,402,-144,231,333,584,544,517
110,465,346,-281,-112,408,-144,231,351,590,550,517
110,465,346,-281,-112,408,-150,231,363,590,556,517
104,471,364,-287,-124,420,-156,237,375,602,562,523
104,471,364,-287,-124,420,-150,243,387,602,568,523
104,471,364,-287,-124,420,-144,255,393,614,568,523
104,471,364,-287,-124,420,-144,267,405,626,568,523
98,471,370,-281,-130,426,-126,273,411,638,574,523
98,471,370,-281,-130,426,-120,279,423,644,574,523
98,471,370,-281,-130,426,-108,291,429,644,562,517
98,465,358,-275,-124,414,-102,303,453,644,556,511
92,459,358,-269,-124,408,-96,315,459,644,550,505
86,447,352,-263,-124,402,-84,321,471,632,532,493
80,429,340,-251,-124,384,-78,333,477,626,520,469
80,411,322,-239,-112,366,-72,339,483,614,502,445
74,387,304,-227,-106,348,-66,345,483,602,472,427
68,369,292,-221,-106,330,-48,357,483,590,460,409
74,351,268,-215,-88,312,-36,363,483,572,442,385
68,333,256,-203,-88,294,-30,369,477,554,424,361
68,315,238,-191,-76,276,-18,369,465,542,394,331
62,297,232,-179,-76,264,-12,363,453,512,370,313
62,279,214,-173,-64,246,-12,351,435,488,334,289
56,255,196,-155,-58,228,-6,339,417,464,304,265
50,237,184,-143,-58,216,-6,327,399,434,274,229
44,219,166,-131,-52,192,-1,321,387,398,250,205
38,201,154,-119,-46,180,-1,309,375,374,220,175
32,177,136,-101,-40,156,-1,297,345,350,202,151
32,159,118,-95,-34,138,5,291,327,332,178,121
26,141,106,-83,-28,126,5,267,303,302,154,103
20,123,94,-71,-28,108,11,255,285,266,136,85
14,105,82,-59,-22,96,17,243,261,248,112,61
8,81,64,-41,-16,72,23,225,237,224,88,55
8,63,46,-35,-10,54,29,219,219,188,70,44
2,45,34,-23,-4,42,29,207,195,170,40,14
2,27,16,-11,1,24,29,195,183,152,10,-4
2,9,-2,-5,1,6,29,189,165,128,-8,-22
-10,-9,-8,12,1,-6,29,183,147,104,-20,-46
-10,-15,-8,12,1,-12,35,177,141,86,-31,-46
-10,-20,-13,12,1,-17,35,165,123,68,-43,-58
-10,-20,-13,12,1,-17,35,165,111,44,-49,-70
-10,-26,-19,12,1,-23,29,153,93,32,-61,-82
-10,-32,-25,18,7,-29,35,141,81,26,-67,-82
-10,-44,-37,24,13,-41,35,129,75,14,-79,-88
-10,-56,-49,30,19,-53,41,117,69,14,-79,-94
-10,-56,-43,30,13,-53,35,117,63,2,-91,-100
-10,-56,-49,30,19,-53,29,111,57,2,-97,-118
-10,-62,-55,30,19,-59,29,111,51,2,-103,-124
-10,-74,-67,36,25,-71,29,105,39,-3,-109,-130
-10,-74,-67,36,25,-71,35,93,27,-9,-109,-130
-10,-74,-67,36,25,-71,35,87,21,-21,-109,-130
-10,-80,-73,42,31,-77,35,87,15,-27,-115,-130
-10,-86,-79,42,31,-83,35,69,9,-39,-115,-142
-10,-86,-79,42,31,-83,35,63,9,-39,-115,-142
-10,-92,-85,48,37,-89,35,63,9,-45,-121,-160
-10,-92,-85,48,37,-89,35,57,9,-51,-121,-166
-10,-104,-91,54,37,-101,29,57,9,-51,-127,-184
-15,-104,-85,60,31,-95,29,63,9,-51,-139,-190
-10,-104,-91,54,37,-101,29,63,9,-51,-139,-190
-10,-104,-91,54,37,-101,23,57,9,-51,-133,-190
-10,-98,-91,48,37,-95,23,57,9,-57,-133,-196
-10,-98,-91,48,37,-95,23,57,9,-63,-133,-196
-10,-98,-91,48,37,-95,23,57,9,-63,-139,-196
-10,-92,-85,48,37,-89,23,57,9,-63,-139,-202
-10,-92,-91,42,43,-89,23,63,9,-63,-139,-202
-10,-92,-91,42,43,-89,23,63,9,-63,-139,-202
-10,-98,-97,48,43,-95,23,63,9,-69,-145,-208
-10,-98,-97,48,43,-95,23,63,9,-69,-145,-208
-10,-104,-103,48,49,-101,23,63,9,-75,-145,-214
-10,-104,-103,48,49,-101,23,63,9,-75,-145,-220
-10,-104,-103,48,49,-101,23,63,9,-81,-139,-214
-10,-104,-97,54,43,-101,23,63,9,-87,-139,-214
-10,-92,-85,48,37,-89,17,63,9,-93,-133,-202
-10,-92,-91,42,43,-89,17,63,9,-93,-133,-202
-10,-98,-97,48,43,-95,17,63,9,-93,-139,-202
-10,-98,-97,48,43,-95,17,57,9,-93,-139,-202
-10,-104,-103,48,49,-101,17,57,4,-93,-145,-196
-10,-104,-103,48,49,-101,17,57,4,-93,-145,-196
-10,-104,-103,48,49,-101,17,45,4,-99,-145,-208
-10,-104,-103,48,49,-101,17,45,4,-105,-145,-208
-10,-98,-97,48,43,-95,17,39,4,-111,-145,-208
-10,-98,-97,48,43,-95,11,33,-2,-117,-145,-208
-10,-104,-103,48,49,-101,11,33,-2,-111,-145,-214
-10,-104,-103,48,49,-101,11,33,-8,-123,-145,-214
-10,-104,-103,48,49,-101,11,33,-20,-117,-145,-214
-10,-104,-103,48,49,-101,5,27,-20,-117,-145,-214
-10,-104,-103,48,49,-101,5,27,-32,-123,-145,-220
-10,-104,-103,48,49,-101,5,15,-32,-135,-145,-226
-10,-92,-91,42,43,-89,5,15,-44,-141,-151,-232
-10,-92,-91,42,43,-89,5,15,-44,-147,-151,-226
-10,-98,-97,48,43,-95,5,9,-50,-153,-151,-232
-10,-98,-97,48,43,-95,5,3,-56,-153,-151,-238
-10,-98,-91,48,37,-95,5,3,-62,-159,-151,-244
-10,-98,-91,48,37,-95,5,3,-62,-159,-157,-244
-10,-98,-91,48,37,-95,5,-3,-56,-165,-157,-238
-10,-98,-91,48,37,-95,-1,-3,-56,-171,-163,-244
-10,-98,-91,48,37,-95,-1,-3,-62,-171,-163,-238
-10,-98,-91,48,37,-95,-1,-3,-68,-177,-163,-232
-10,-104,-103,48,49,-101,5,-3,-62,-171,-163,-238
-10,-104,-103,48,49,-101,5,-8,-68,-177,-169,-244
-4,-110,-115,48,55,-113,11,-8,-62,-171,-175,-256
-4,-110,-115,48,55,-113,11,-14,-68,-177,-175,-262
-4,-110,-115,48,55,-113,11,-20,-74,-183,-175,-268
-4,-110,-115,48,55,-113,11,-20,-80,-183,-175,-274
-10,-116,-115,54,55,-113,5,-26,-92,-195,-175,-280
-10,-116,-115,54,55,-113,5,-26,-92,-195,-181,-286
-10,-116,-115,54,55,-113,5,-26,-92,-195,-187,-286
-10,-116,-115,54,55,-113,5,-26,-98,-207,-187,-286
-10,-116,-115,54,55,-113,5,-32,-98,-207,-187,-280
-10,-116,-115,54,55,-113,5,-32,-98,-213,-187,-280
-10,-116,-109,60,49,-113,5,-38,-110,-207,-187,-286
-10,-116,-109,60,49,-113,-1,-50,-116,-213,-193,-286
-10,-122,-109,66,43,-119,-1,-56,-116,-213,-193,-280
-10,-122,-109,66,43,-119,-1,-56,-122,-213,-193,-280
-10,-116,-103,60,43,-113,-1,-56,-122,-219,-193,-280
-10,-116,-103,60,43,-113,-1,-56,-128,-219,-199,-280
-10,-110,-97,60,37,-107,-1,-62,-128,-225,-199,-274
-10,-110,-97,60,37,-107,-1,-62,-128,-231,-199,-274
-10,-116,-103,60,43,-113,-1,-56,-122,-237,-199,-274
-10,-116,-103,60,43,-113,-1,-56,-122,-237,-199,-262
-10,-116,-103,60,43,-113,5,-50,-128,-237,-193,-262
-10,-116,-103,60,43,-113,5,-50,-128,-237,-193,-262
-10,-122,-109,66,43,-119,-1,-56,-122,-237,-205,-268
-10,-128,-115,66,49,-125,-1,-62,-122,-237,-205,-268
-10,-134,-121,72,49,-131,-1,-68,-134,-237,-205,-274
-10,-134,-121,72,49,-131,5,-68,-140,-243,-205,-274
-10,-134,-121,72,49,-131,-1,-68,-146,-243,-205,-274
-10,-134,-121,72,49,-131,-1,-68,-140,-243,-205,-274
-10,-140,-127,72,55,-137,-1,-68,-146,-237,-217,-280
-10,-140,-127,72,55,-137,-1,-68,-146,-237,-217,-280
-10,-134,-121,72,49,-131,-1,-68,-152,-237,-223,-286
-10,-134,-121,72,49,-131,-1,-68,-152,-237,-223,-286
-10,-128,-115,66,49,-125,-1,-68,-152,-243,-229,-292
-15,-134,-115,72,43,-125,-1,-68,-152,-243,-229,-286
-15,-134,-115,72,43,-125,-1,-80,-152,-243,-235,-280
-15,-134,-115,72,43,-125,-1,-80,-158,-243,-235,-280
-15,-134,-115,72,43,-125,5,-86,-158,-243,-235,-274
-15,-134,-115,72,43,-125,5,-92,-158,-243,-235,-274
-15,-134,-115,72,43,-125,11,-98,-158,-243,-229,-280
-15,-134,-115,72,43,-125,11,-98,-158,-243,-229,-280
-15,-140,-121,78,49,-131,11,-98,-164,-243,-223,-280
-15,-140,-121,78,49,-131,11,-98,-164,-243,-223,-280
-15,-140,-121,78,49,-131,5,-110,-164,-237,-223,-280
-15,-140,-121,78,49,-131,5,-110,-164,-237,-223,-280
-15,-140,-121,78,49,-131,5,-116,-164,-231,-223,-280
-15,-140,-121,78,49,-131,5,-116,-164,-231,-223,-280
-15,-140,-121,78,49,-131,-1,-128,-170,-231,-223,-280
-15,-140,-121,78,49,-131,-1,-128,-170,-231,-223,-286
-15,-140,-121,78,49,-131,-1,-128,-170,-231,-223,-292
-15,-140,-121,78,49,-131,-1,-134,-170,-231,-223,-292
-15,-140,-121,78,49,-131,-1,-140,-170,-231,-223,-286
-15,-140,-121,78,49,-131,-1,-140,-176,-231,-223,-286
-15,-134,-115,72,43,-125,-1,-140,-176,-231,-223,-280
-15,-134,-115,72,43,-125,-1,-140,-176,-231,-223,-280
-15,-140,-121,78,49,-131,-1,-140,-176,-225,-229,-280
-15,-140,-121,78,49,-131,-1,-146,-176,-225,-229,-280
-15,-146,-127,78,49,-137,5,-146,-176,-219,-235,-280
-15,-146,-127,78,49,-137,5,-146,-176,-219,-235,-286
-15,-140,-121,78,49,-131,-1,-152,-176,-207,-235,-286
-15,-140,-121,78,49,-131,-1,-152,-176,-201,-235,-286
-15,-134,-115,72,43,-125,-1,-158,-182,-189,-241,-286
-15,-134,-115,72,43,-125,-1,-158,-182,-183,-241,-292
-15,-134,-115,72,43,-125,-1,-158,-182,-165,-235,-286
-15,-134,-115,72,43,-125,-1,-158,-182,-147,-235,-298
-10,-134,-121,72,49,-131,5,-158,-182,-129,-229,-292
-10,-134,-121,72,49,-131,5,-164,-188,-111,-229,-292
-15,-140,-121,78,49,-131,-1,-158,-188,-87,-229,-286
-15,-140,-121,78,49,-131,-1,-158,-188,-69,-229,-286
-15,-146,-127,78,49,-137,-1,-152,-188,-51,-229,-280
-15,-146,-127,78,49,-137,-1,-146,-188,-33,-229,-280
-15,-152,-133,84,55,-143,-1,-146,-188,-27,-229,-280
-15,-152,-133,84,55,-143,-1,-146,-182,-21,-229,-280
-15,-152,-133,84,55,-143,-1,-140,-182,-21,-229,-280
-15,-152,-133,84,55,-143,-1,-140,-188,-15,-229,-280
-15,-152,-133,84,55,-143,-1,-140,-182,-15,-229,-274
-15,-152,-133,84,55,-143,-1,-140,-182,-15,-229,-274
-15,-152,-133,84,55,-143,-1,-140,-176,-15,-229,-268
-15,-152,-133,84,55,-143,-1,-140,-176,-15,-229,-274
-15,-146,-127,78,49,-137,-1,-134,-176,-21,-229,-268
-15,-146,-127,78,49,-137,-6,-134,-176,-21,-229,-268
-10,-140,-127,72,55,-137,-6,-122,-176,-27,-229,-262
-10,-140,-127,72,55,-137,-6,-122,-176,-27,-229,-262
-10,-146,-133,78,55,-143,-6,-122,-176,-33,-229,-262
-10,-146,-133,78,55,-143,-6,-122,-176,-45,-229,-262
-10,-152,-139,78,61,-149,-6,-122,-176,-51,-229,-262
-10,-152,-139,78,61,-149,-6,-122,-176,-57,-229,-262
-15,-152,-133,84,55,-143,-6,-122,-176,-51,-229,-256
-15,-152,-133,84,55,-143,-6,-128,-176,-51,-229,-256
-15,-152,-133,84,55,-143,-6,-128,-176,-45,-229,-250
-15,-152,-133,84,55,-143,-6,-134,-176,-51,-229,-250
-15,-152,-133,84,55,-143,-6,-134,-176,-45,-229,-250
-15,-152,-133,84,55,-143,-6,-134,-176,-45,-229,-250
-15,-152,-133,84,55,-143,-1,-134,-182,-39,-229,-256
-15,-152,-133,84,55,-143,-1,-140,-182,-39,-229,-256
-15,-152,-133,84,55,-143,-1,-140,-182,-39,-229,-256
-15,-152,-133,84,55,-143,-1,-140,-176,-39,-229,-256
-15,-152,-133,84,55,-143,-1,-140,-176,-39,-229,-256
-15,-158,-139,84,55,-149,-1,-146,-176,-39,-229,-256
-15,-158,-139,84,55,-149,-1,-146,-176,-45,-223,-256
-15,-158,-139,84,55,-149,-1,-146,-176,-45,-223,-250
-15,-158,-139,84,55,-149,-1,-140,-176,-51,-217,-250
-15,-158,-139,84,55,-149,-6,-140,-176,-51,-217,-250
-15,-152,-133,84,55,-143,-6,-146,-182,-57,-217,-256
-15,-152,-133,84,55,-143,-6,-152,-182,-63,-217,-256
-15,-146,-127,78,49,-137,-6,-158,-176,-69,-217,-262
-15,-146,-127,78,49,-137,-6,-158,-176,-75,-217,-262
-15,-146,-127,78,49,-137,-1,-152,-176,-87,-217,-256
-15,-146,-127,78,49,-137,-1,-152,-176,-93,-217,-256
-15,-146,-127,78,49,-137,-1,-152,-176,-99,-217,-256
-15,-146,-127,78,49,-137,-1,-152,-176,-105,-217,-256
-15,-146,-127,78,49,-137,-1,-152,-170,-111,-217,-256
-15,-140,-121,78,49,-131,-1,-152,-170,-117,-217,-250
-15,-140,-121,78,49,-131,-1,-158,-164,-123,-217,-250
-15,-140,-121,78,49,-131,-1,-158,-176,-129,-217,-256
-15,-140,-121,78,49,-131,-1,-158,-176,-141,-205,-256
-15,-140,-121,78,49,-131,-6,-152,-164,-135,-205,-250
-15,-146,-127,78,49,-137,-1,-146,-170,-141,-205,-250
-15,-146,-127,78,49,-137,-1,-146,-170,-141,-205,-250
-15,-152,-133,84,55,-143,-1,-140,-176,-147,-205,-250
-15,-152,-133,84,55,-143,-1,-140,-176,-147,-205,-250
-10,-152,-139,78,61,-149,-1,-146,-170,-153,-211,-256
-10,-152,-139,78,61,-149,-1,-146,-170,-159,-211,-256
-10,-152,-145,78,67,-149,-6,-152,-164,-165,-217,-262
-10,-152,-145,78,67,-149,-6,-152,-164,-171,-217,-262
-10,-146,-139,72,61,-143,-1,-146,-164,-177,-217,-262
-10,-146,-139,72,61,-143,-1,-146,-164,-177,-217,-262
-10,-140,-133,72,61,-137,-1,-140,-164,-183,-217,-262
-10,-140,-133,72,61,-137,-1,-140,-164,-183,-217,-262
-10,-146,-139,72,61,-143,-1,-134,-164,-183,-211,-256
-10,-146,-139,72,61,-143,-1,-134,-164,-183,-211,-256
-10,-152,-145,78,67,-149,-1,-128,-164,-183,-205,-250
-10,-152,-145,78,67,-149,-1,-128,-164,-183,-205,-250
-10,-146,-133,78,55,-143,-1,-128,-170,-183,-211,-250
-10,-146,-133,78,55,-143,-1,-128,-170,-183,-211,-250
-15,-140,-121,78,49,-131,-1,-128,-176,-183,-217,-250
-15,-140,-121,78,49,-131,-1,-128,-176,-183,-217,-250
-15,-140,-121,78,49,-131,-1,-128,-176,-183,-217,-250
-15,-140,-121,78,49,-131,-1,-128,-176,-183,-217,-250
-15,-140,-121,78,49,-131,-1,-128,-176,-183,-217,-250
-15,-140,-121,78,49,-131,-1,-128,-176,-183,-217,-250
-10,-146,-133,78,55,-143,-1,-128,-170,-189,-211,-250
-10,-146,-133,78,55,-143,-1,-128,-170,-189,-211,-250
-10,-152,-145,78,67,-149,-1,-128,-164,-195,-205,-250
-10,-152,-145,78,67,-149,-1,-128,-164,-195,-205,-250
-10,-146,-139,72,61,-143,-1,-128,-170,-195,-205,-256
-10,-146,-139,72,61,-143,-1,-128,-170,-195,-205,-256
-10,-140,-133,72,61,-137,-1,-128,-176,-195,-205,-262
-10,-140,-133,72,61,-137,-1,-128,-176,-195,-205,-262
-10,-140,-133,72,61,-137,-1,-128,-176,-195,-211,-256
-10,-140,-133,72,61,-137,-1,-128,-176,-195,-211,-256
-10,-140,-133,72,61,-137,-1,-128,-176,-189,-217,-250
-10,-146,-139,72,61,-143,-1,-128,-176,-189,-217,-250
-10,-146,-139,72,61,-143,-1,-134,-176,-195,-211,-250
-10,-146,-139,72,61,-143,-1,-128,-176,-195,-211,-250
-10,-146,-139,72,61,-143,-1,-134,-176,-189,-199,-244
-10,-140,-133,72,61,-137,-1,-134,-176,-189,-199,-244
-10,-140,-133,72,61,-137,-1,-134,-176,-189,-199,-250
-10,-140,-133,72,61,-137,-1,-134,-176,-189,-199,-250
-10,-140,-133,72,61,-137,-1,-140,-176,-189,-199,-250
-10,-140,-133,72,61,-137,-1,-140,-176,-189,-199,-250
-10,-128,-121,66,55,-125,-1,-134,-170,-183,-199,-244
-10,-122,-121,60,55,-119,-1,-122,-164,-177,-187,-244
-10,-116,-115,54,55,-113,11,-116,-158,-171,-181,-226
-10,-98,-97,48,43,-95,23,-110,-146,-165,-175,-220
-10,-86,-85,42,37,-83,29,-104,-140,-153,-181,-220
-10,-80,-79,36,37,-77,35,-104,-134,-147,-181,-220
-10,-74,-73,36,31,-71,41,-104,-128,-135,-175,-208
-4,-68,-73,30,37,-71,41,-98,-122,-135,-169,-208
-4,-56,-61,24,31,-59,41,-98,-116,-129,-163,-208
-4,-50,-55,18,25,-53,47,-92,-116,-129,-163,-202
-4,-50,-55,18,25,-53,47,-86,-122,-129,-157,-196
-10,-50,-49,24,19,-47,47,-86,-122,-129,-145,-196
-10,-50,-49,24,19,-47,47,-80,-110,-129,-151,-196
-4,-38,-43,12,19,-41,47,-80,-110,-123,-145,-196
2,-32,-43,12,25,-35,47,-80,-104,-123,-151,-190
2,-15,-25,12,13,-17,35,-80,-104,-117,-139,-190
8,-9,-13,1,13,-12,41,-80,-98,-99,-133,-190
14,9,-8,-11,13,0,47,-80,-98,-99,-133,-178
20,27,-2,-23,7,12,47,-80,-92,-87,-127,-178
26,45,10,-35,7,30,53,-80,-92,-87,-121,-172
32,51,10,-41,7,30,41,-86,-86,-75,-115,-160
32,51,10,-41,7,30,35,-80,-80,-69,-109,-154
32,63,22,-47,1,42,29,-86,-80,-57,-97,-142
44,75,22,-59,7,48,23,-80,-74,-51,-85,-130
38,87,40,-59,1,66,11,-80,-68,-51,-85,-136
38,81,34,-59,1,60,5,-80,-68,-51,-79,-142
26,63,28,-41,1,48,-1,-80,-62,-57,-79,-142
26,51,16,-35,1,36,-1,-80,-62,-57,-79,-148
32,57,16,-41,7,36,-1,-80,-68,-57,-85,-142
32,51,10,-41,7,30,-1,-74,-68,-63,-85,-136
32,45,4,-35,13,24,-1,-74,-74,-63,-91,-130
32,33,-8,-29,19,12,-1,-80,-80,-75,-103,-142
20,15,-8,-17,13,0,-6,-86,-86,-75,-109,-148
20,-3,-19,-5,25,-12,-6,-86,-86,-75,-109,-148
14,-15,-25,1,25,-12,-6,-80,-86,-75,-109,-154
8,-26,-43,12,25,-35,-1,-80,-98,-87,-115,-160
-10,-50,-43,24,13,-47,-1,-80,-98,-99,-127,-166
-10,-74,-61,42,19,-71,-1,-98,-116,-111,-151,-184
-27,-98,-67,60,13,-83,-1,-116,-128,-123,-169,-196
-39,-110,-67,72,7,-89,-1,-128,-140,-129,-175,-208
-45,-122,-73,84,7,-101,-1,-128,-152,-147,-187,-220
-45,-140,-91,90,19,-119,-1,-140,-158,-159,-187,-220
-51,-158,-103,102,19,-131,-1,-152,-164,-165,-193,-220
-51,-176,-121,114,31,-149,-1,-158,-170,-177,-199,-226
-57,-176,-115,114,25,-149,-6,-164,-182,-183,-199,-238
-57,-182,-121,120,25,-155,-6,-176,-188,-189,-205,-244
-63,-182,-115,120,19,-149,-12,-182,-188,-195,-205,-250
-63,-182,-115,120,19,-149,-18,-182,-188,-195,-205,-250
-69,-188,-115,126,19,-155,-18,-170,-188,-195,-205,-244
-69,-188,-115,126,19,-155,-18,-170,-188,-195,-205,-244
-75,-194,-115,132,13,-155,-18,-170,-188,-195,-211,-238
-75,-194,-115,132,13,-155,-18,-170,-188,-195,-211,-238
-75,-194,-115,132,13,-155,-18,-164,-188,-183,-211,-232
-75,-206,-127,138,19,-167,-18,-158,-176,-183,-211,-226
-75,-194,-115,132,13,-155,-6,-158,-170,-189,-211,-238
-81,-194,-109,138,7,-155,-1,-140,-164,-171,-205,-238
-87,-194,-103,138,1,-149,-1,-128,-140,-159,-205,-226
-99,-188,-85,144,1,-137,5,-110,-128,-147,-187,-220
-99,-182,-79,138,-4,-131,11,-98,-116,-141,-193,-214
-111,-170,-55,138,-22,-113,23,-68,-92,-129,-181,-208
-117,-164,-43,138,-28,-107,35,-44,-62,-99,-163,-202
-117,-146,-25,132,-40,-89,41,-8,-44,-87,-157,-196
-117,-128,-8,120,-46,-71,41,3,-26,-75,-133,-190
-117,-122,-8,120,-52,-65,59,9,-14,-57,-121,-178
-117,-122,-8,120,-52,-65,71,39,9,-33,-97,-160
-111,-116,-8,114,-46,-59,95,69,27,-15,-73,-142
-99,-98,-8,96,-46,-47,107,111,69,8,-43,-124
-99,-98,-8,96,-46,-47,137,159,117,44,-25,-106
-99,-86,4,90,-52,-35,167,213,171,80,-14,-76
-87,-86,-8,84,-40,-41,197,267,207,104,-2,-76
-93,-86,-2,90,-46,-41,221,339,249,128,4,-64
-81,-80,-8,78,-34,-41,269,453,303,140,16,-64
-81,-74,-2,78,-40,-35,335,555,369,158,16,-58
-93,-56,28,72,-58,-12,437,681,423,170,16,-70
-87,-32,46,60,-64,0,521,801,483,164,16,-82
-93,-3,94,42,-88,42,605,897,537,188,40,-64
-99,75,178,12,-136,126,659,981,597,242,88,-28
-105,201,304,-41,-202,246,719,1059,699,326,166,49
-117,369,484,-119,-298,426,779,1161,861,488,304,169
-105,579,688,-227,-394,630,815,1215,1083,734,532,373
-75,801,880,-359,-478,840,803,1227,1311,1040,826,625
-45,981,1030,-467,-532,1002,785,1185,1497,1304,1090,865
-27,1089,1120,-521,-568,1104,731,1083,1629,1538,1312,1051
8,1179,1162,-593,-568,1170,575,903,1713,1754,1546,1231
92,1251,1156,-671,-520,1206,299,627,1755,2000,1786,1435
134,1329,1192,-725,-520,1260,11,339,1785,2227,1978,1591
158,1311,1150,-731,-484,1230,-216,123,1815,2407,2127,1663
188,1203,1006,-695,-406,1104,-354,-3,1839,2556,2193,1693
230,1089,850,-659,-298,966,-480,-140,1863,2658,2241,1681
230,1071,832,-653,-292,954,-576,-296,1827,2736,2271,1669
230,1059,820,-647,-286,942,-648,-398,1791,2808,2301,1669
230,999,766,-611,-262,888,-726,-482,1725,2832,2289,1603
218,891,670,-551,-220,780,-810,-554,1617,2784,2217,1495
206,729,520,-467,-154,630,-810,-536,1509,2676,2055,1315
170,519,346,-341,-82,438,-702,-440,1371,2371,1732,1045
86,267,178,-179,-34,228,-510,-362,1131,1832,1216,661
-4,69,64,-29,-22,66,-384,-350,819,1250,706,289
-45,-26,10,36,-28,-12,-348,-386,543,836,394,73
-87,-68,10,78,-46,-23,-306,-422,285,488,196,-22
-105,-104,-8,102,-46,-53,-240,-434,45,152,10,-118
-117,-128,-8,120,-46,-71,-192,-398,-74,-45,-97,-172
-105,-134,-25,120,-34,-83,-150,-338,-26,-39,-91,-160
-99,-158,-55,126,-16,-107,-102,-272,27,-3,-79,-148
-75,-176,-97,126,7,-137,-66,-236,27,-21,-79,-154
-63,-188,-121,126,25,-155,-42,-212,9,-39,-85,-166
-45,-182,-133,114,37,-161,-36,-188,9,-33,-73,-166
-33,-182,-145,108,49,-167,-30,-158,-2,-45,-85,-184
-39,-194,-151,114,49,-173,-18,-134,-20,-75,-109,-184
-51,-182,-127,114,31,-155,-24,-116,-26,-99,-127,-190
-45,-170,-121,108,31,-149,-24,-116,-38,-123,-157,-190
-45,-170,-121,108,31,-149,-24,-116,-38,-159,-181,-190
-51,-170,-115,108,25,-143,-18,-116,-56,-183,-193,-190
-63,-170,-103,114,13,-137,-18,-116,-74,-195,-211,-202
-63,-176,-109,120,19,-143,-12,-122,-98,-201,-217,-208
-69,-188,-115,126,19,-155,-6,-122,-116,-207,-217,-202
-69,-206,-133,138,25,-173,-6,-122,-140,-207,-217,-208
-69,-206,-133,138,25,-173,-6,-128,-146,-213,-217,-208
-69,-212,-139,138,31,-179,-1,-134,-146,-213,-223,-202
-69,-206,-133,138,25,-173,-1,-134,-146,-219,-223,-202
-69,-212,-139,138,31,-179,-1,-134,-146,-231,-223,-190
-69,-212,-139,138,31,-179,-1,-140,-146,-237,-223,-184
-63,-212,-145,138,37,-179,-1,-140,-158,-237,-223,-184
-63,-212,-145,138,37,-179,-1,-140,-164,-237,-229,-178
-57,-212,-151,132,43,-185,-6,-140,-170,-237,-229,-184
-57,-212,-151,132,43,-185,-6,-140,-176,-237,-229,-184
-63,-212,-145,138,37,-179,-1,-134,-182,-237,-229,-184
-63,-218,-151,138,37,-185,-6,-134,-182,-237,-229,-184
-69,-218,-145,144,31,-185,-1,-134,-176,-231,-229,-184
-63,-218,-151,138,37,-185,-1,-128,-176,-231,-229,-190
-63,-218,-151,138,37,-185,-1,-128,-182,-231,-235,-196
-63,-218,-151,138,37,-185,-1,-122,-182,-231,-235,-202
-63,-212,-145,138,37,-179,-1,-122,-182,-231,-235,-208
-63,-206,-139,132,31,-173,-1,-122,-182,-231,-235,-214
-57,-206,-145,132,37,-179,-1,-116,-176,-231,-229,-232
-57,-206,-145,132,37,-179,-1,-116,-164,-231,-229,-238
-51,-206,-151,126,43,-179,-1,-110,-158,-231,-223,-250
-51,-200,-145,126,43,-173,-1,-110,-152,-231,-223,-250
-51,-194,-139,120,37,-167,5,-110,-152,-231,-223,-256
-51,-194,-139,120,37,-167,5,-110,-146,-231,-217,-256
-57,-188,-127,120,31,-161,5,-116,-146,-231,-217,-256
-57,-188,-127,120,31,-161,5,-110,-146,-231,-217,-256
-57,-182,-121,120,25,-155,5,-104,-140,-231,-223,-256
-51,-182,-127,114,31,-155,5,-104,-140,-231,-223,-256
-51,-176,-121,114,31,-149,5,-92,-140,-231,-229,-250
-51,-170,-115,108,25,-143,5,-92,-140,-231,-223,-244
-45,-176,-127,108,37,-155,5,-92,-140,-231,-223,-226
-45,-176,-127,108,37,-155,5,-92,-140,-231,-217,-208
-39,-182,-139,108,43,-161,5,-86,-140,-225,-205,-190
-39,-182,-139,108,43,-161,5,-86,-140,-225,-199,-184
-39,-176,-133,108,43,-155,5,-86,-140,-225,-193,-166
-39,-170,-127,102,37,-149,5,-80,-140,-219,-193,-148
-39,-164,-121,102,37,-143,5,-80,-140,-219,-193,-136
-39,-164,-121,102,37,-143,5,-80,-140,-213,-193,-124
-33,-158,-121,96,37,-143,-1,-86,-140,-213,-181,-112
-33,-158,-121,96,37,-143,-1,-86,-140,-207,-169,-100
-27,-158,-127,90,43,-143,5,-92,-140,-207,-163,-100
-27,-152,-121,90,43,-137,5,-92,-134,-207,-151,-82
-33,-146,-109,90,31,-131,-1,-92,-134,-201,-157,-70
-27,-146,-115,84,37,-131,-1,-92,-134,-201,-157,-70
-33,-146,-109,90,31,-131,-1,-92,-134,-201,-157,-58
-33,-146,-109,90,31,-131,-1,-92,-128,-201,-145,-52
-33,-146,-109,90,31,-131,-1,-86,-128,-195,-145,-46
-33,-140,-103,84,31,-125,-1,-86,-128,-195,-145,-46
-33,-140,-103,84,31,-125,-1,-80,-128,-189,-145,-40
-33,-134,-97,84,25,-119,-1,-80,-128,-189,-145,-40
-33,-134,-97,84,25,-119,-1,-74,-128,-189,-139,-46
-33,-128,-91,78,25,-113,-1,-74,-128,-189,-139,-40
-33,-128,-91,78,25,-113,-1,-74,-128,-183,-133,-46
-33,-122,-85,78,19,-107,-1,-62,-122,-183,-127,-46
-27,-110,-79,66,19,-95,-1,-62,-122,-183,-127,-52
-27,-110,-79,66,19,-95,-1,-56,-110,-177,-115,-52
-27,-98,-67,60,13,-83,-1,-56,-104,-171,-115,-52
-27,-92,-61,60,13,-77,-1,-56,-104,-171,-109,-52
-27,-86,-55,54,7,-71,-1,-44,-104,-171,-109,-52
-27,-80,-49,54,7,-65,-1,-32,-98,-165,-109,-52
-27,-74,-43,48,1,-59,-1,-26,-98,-165,-109,-58
-21,-68,-43,42,7,-59,-1,-26,-92,-153,-103,-58
-21,-68,-43,42,7,-59,-1,-26,-80,-153,-91,-58
-21,-62,-37,42,1,-53,-1,-26,-74,-147,-91,-58
-15,-62,-43,36,7,-53,-1,-26,-74,-141,-73,-58
-15,-56,-37,36,7,-47,-1,-26,-74,-135,-73,-58
-10,-50,-43,24,13,-47,-1,-26,-74,-123,-67,-58
-10,-44,-37,24,13,-41,-1,-20,-56,-117,-61,-58
-10,-38,-37,18,13,-35,-1,-20,-50,-99,-55,-46
-4,-32,-37,12,19,-35,-1,-14,-44,-87,-43,-40
-4,-20,-25,12,13,-23,-1,-14,-38,-81,-37,-34
-4,-15,-19,12,7,-17,-1,-14,-38,-69,-31,-22
-4,-15,-8,12,7,-12,-1,-14,-20,-57,-20,-4
2,-3,-8,1,7,-6,-1,-14,-14,-51,-20,8
2,3,-8,1,1,0,-1,-8,-8,-39,-8,20
2,9,-2,-5,1,6,-1,-8,-2,-27,4,32
2,15,4,-5,1,12,-1,-3,4,-21,4,49
2,27,16,-11,1,24,-6,-3,9,-9,16,61
8,33,16,-17,1,24,-6,-3,9,2,28,79
8,39,22,-23,1,30,-12,-3,15,14,40,97
14,51,28,-29,1,42,-12,-3,15,32,46,109
14,63,40,-35,-4,54,-12,-3,27,44,58,127
8,69,52,-35,-10,60,-24,3,33,50,76,145
8,81,64,-41,-16,72,-30,3,45,62,88,163
8,87,70,-47,-22,78,-36,9,51,68,106,181
8,105,88,-53,-28,96,-42,9,57,80,118,199
14,111,88,-59,-28,102,-42,9,69,104,130,223
20,123,94,-71,-28,108,-48,9,75,116,148,229
26,123,88,-71,-22,108,-54,15,93,146,160,247
26,141,106,-83,-28,126,-54,15,99,152,172,259
32,153,112,-89,-28,132,-54,21,111,170,184,271
32,165,124,-95,-34,144,-60,27,129,188,208,283
32,189,148,-107,-46,168,-60,33,135,200,220,289
32,201,160,-113,-52,180,-60,33,147,212,238,301
32,207,166,-119,-58,186,-66,39,153,230,256,313
32,219,178,-125,-64,198,-72,39,165,242,274,325
32,225,184,-125,-64,204,-72,39,171,260,280,337
32,231,196,-131,-70,216,-78,45,183,266,304,349
32,243,208,-137,-76,228,-84,51,189,296,322,361
38,255,214,-149,-76,234,-84,57,201,314,340,367
38,273,232,-155,-88,252,-90,63,213,332,352,379
44,285,232,-167,-88,258,-90,75,225,344,370,391
50,297,238,-173,-88,270,-96,81,237,362,388,391
50,309,250,-179,-94,282,-96,93,249,380,394,391
50,327,268,-191,-100,300,-102,99,255,380,412,391
56,339,274,-197,-100,306,-102,105,261,398,430,391
56,351,286,-203,-106,318,-108,111,267,416,442,397
56,363,298,-209,-112,330,-108,123,273,434,454,403
62,375,304,-221,-112,342,-108,123,285,452,466,415
62,375,304,-221,-112,342,-108,129,297,464,472,433
62,387,316,-227,-118,354,-108,135,315,476,484,427
62,393,322,-227,-124,360,-108,147,321,488,496,433
62,405,334,-227,-130,372,-108,147,345,488,496,427
62,417,346,-233,-136,384,-102,153,357,500,508,433
62,423,352,-239,-136,390,-96,165,357,512,526,433
68,429,352,-245,-136,390,-96,177,375,524,538,445
68,441,364,-251,-142,402,-96,183,387,536,550,451
68,447,370,-251,-142,408,-96,189,399,548,562,457
74,453,370,-257,-142,414,-96,195,405,560,568,463
74,465,382,-263,-148,426,-96,201,411,572,574,463
74,471,388,-269,-148,432,-96,207,417,584,586,463
74,471,388,-269,-148,432,-96,219,429,596,592,457
80,471,382,-269,-142,426,-84,231,453,608,598,463
80,471,382,-269,-142,426,-84,237,465,608,604,463
80,471,388,-275,-148,432,-78,249,483,626,610,475
80,471,388,-275,-148,432,-66,267,495,626,616,475
80,471,388,-275,-148,432,-66,279,495,632,616,475
80,471,388,-275,-148,432,-66,291,507,644,616,475
74,471,394,-269,-154,438,-54,297,513,650,622,475
74,471,394,-269,-154,438,-48,303,525,656,622,475
74,471,394,-269,-154,438,-36,309,525,650,610,463
74,465,382,-263,-148,426,-30,321,543,650,604,457
68,459,382,-257,-148,420,-24,327,543,644,598,445
62,447,376,-251,-148,414,-12,333,549,632,580,433
62,435,364,-245,-142,402,-6,345,549,620,568,409
62,417,346,-233,-136,384,-1,351,555,608,550,391
62,399,328,-227,-124,366,-1,357,549,590,520,373
56,381,316,-221,-124,348,11,369,549,578,502,361
50,357,298,-203,-118,330,17,369,543,554,484,343
44,339,286,-191,-112,312,23,375,531,536,466,319
32,315,274,-173,-112,294,29,369,513,518,442,295
26,297,262,-161,-112,282,35,363,495,488,418,283
26,279,244,-155,-100,264,41,339,483,476,388,259
20,255,232,-137,-94,240,47,321,465,446,358,235
14,237,220,-125,-94,228,53,297,447,422,334,205
8,219,202,-113,-88,210,59,285,435,386,310,181
2,195,184,-95,-82,192,59,273,411,356,280,157
-4,171,166,-83,-76,168,65,261,381,332,256,133
-4,147,142,-71,-64,144,65,255,351,308,232,109
-10,129,130,-59,-58,132,65,237,327,278,214,91
-10,117,124,-47,-58,120,65,219,303,248,190,67
-10,99,112,-35,-58,102,65,201,279,236,166,49
-15,81,100,-23,-52,90,65,171,249,212,136,44
-15,63,82,-17,-46,72,65,159,231,176,118,20
-27,45,76,1,-46,60,65,141,207,158,94,-4
-27,27,58,7,-40,42,65,129,195,140,70,-16
-33,9,46,12,-34,24,65,117,177,116,58,-28
-45,-9,40,18,-40,12,65,111,159,92,40,-46
-39,-15,22,24,-28,0,71,99,147,80,22,-52
-45,-26,10,36,-28,-12,71,87,129,62,10,-64
-39,-32,-2,36,-16,-12,71,81,111,44,-2,-82
-39,-38,-8,36,-16,-17,65,69,93,32,-14,-94
-45,-44,-8,42,-16,-23,65,57,75,20,-20,-88
-45,-56,-8,48,-10,-35,65,45,69,8,-25,-94
-51,-68,-13,60,-10,-41,65,33,57,2,-31,-94
-57,-68,-8,60,-16,-41,59,33,51,2,-43,-100
-51,-74,-19,60,-10,-47,53,33,51,-9,-49,-106
-51,-80,-25,66,-4,-53,53,33,45,-9,-55,-112
-51,-98,-43,72,1,-71,53,33,39,-15,-61,-106
-51,-98,-43,72,1,-71,59,21,27,-21,-61,-106
-51,-98,-43,72,1,-71,59,27,27,-21,-67,-106
-51,-104,-49,78,1,-77,59,27,21,-27,-73,-106
-51,-110,-55,78,1,-83,59,21,21,-27,-79,-118
-51,-110,-55,78,1,-83,59,15,15,-27,-79,-118
-45,-110,-61,78,1,-89,53,15,15,-33,-79,-124
-45,-110,-61,78,1,-89,53,9,15,-39,-79,-124
-45,-116,-67,78,7,-95,41,9,9,-39,-79,-130
-51,-116,-61,84,1,-89,41,15,9,-39,-91,-130
-51,-122,-67,84,1,-95,47,15,9,-45,-91,-136
-51,-122,-67,84,1,-95,41,9,9,-45,-85,-136
-51,-122,-67,84,1,-95,47,9,9,-57,-85,-142
-51,-122,-67,84,1,-95,47,9,9,-63,-85,-142
-51,-122,-67,84,1,-95,47,9,9,-63,-91,-148
-51,-116,-61,84,1,-89,47,9,4,-63,-91,-154
-45,-116,-67,78,7,-95,47,15,4,-63,-91,-160
-45,-116,-67,78,7,-95,47,15,4,-63,-91,-160
-45,-116,-67,78,7,-95,47,15,4,-63,-97,-160
-45,-116,-67,78,7,-95,47,15,4,-63,-97,-154
-45,-116,-67,78,7,-95,47,15,4,-63,-97,-154
-45,-116,-67,78,7,-95,47,15,4,-63,-97,-154
-45,-122,-73,84,7,-101,47,15,4,-63,-97,-148
-51,-122,-67,84,1,-95,47,15,4,-69,-97,-148
-51,-116,-61,84,1,-89,41,15,-2,-69,-97,-136
-45,-116,-67,78,7,-95,41,15,-2,-69,-97,-136
-45,-116,-67,78,7,-95,47,9,-2,-63,-97,-130
-45,-116,-67,78,7,-95,47,3,-2,-63,-97,-130
-45,-116,-67,78,7,-95,53,-3,-8,-57,-97,-118
-45,-116,-67,78,7,-95,53,-3,-8,-57,-97,-118
-39,-122,-79,78,13,-101,47,-3,-8,-57,-91,-118
-39,-122,-79,78,13,-101,47,-3,-8,-57,-91,-118
-33,-122,-85,78,19,-107,41,3,-8,-57,-85,-106
-33,-122,-85,78,19,-107,35,-3,-14,-57,-85,-106
-33,-116,-79,72,19,-101,35,-3,-8,-63,-85,-106
-33,-116,-79,72,19,-101,35,-3,-14,-75,-85,-106
-33,-104,-67,66,13,-89,35,-3,-20,-81,-85,-100
-33,-104,-67,66,13,-89,29,-8,-20,-81,-85,-100
-33,-116,-79,72,19,-101,29,-3,-26,-81,-85,-106
-33,-116,-79,72,19,-101,29,-14,-26,-93,-85,-112
-33,-116,-79,72,19,-101,29,-8,-32,-93,-91,-118
-33,-116,-79,72,19,-101,29,-8,-32,-99,-91,-112
-33,-122,-85,78,19,-107,29,-14,-32,-99,-91,-112
-33,-122,-85,78,19,-107,29,-20,-38,-99,-91,-118
-39,-122,-79,78,13,-101,29,-20,-38,-99,-91,-118
-39,-122,-79,78,13,-101,29,-20,-38,-99,-97,-118
-39,-122,-79,78,13,-101,29,-26,-38,-105,-103,-112
-39,-122,-79,78,13,-101,23,-26,-38,-111,-109,-118
-39,-122,-79,78,13,-101,23,-26,-50,-111,-115,-112
-39,-122,-79,78,13,-101,23,-32,-56,-117,-115,-106
-39,-122,-79,78,13,-101,23,-38,-56,-111,-109,-106
-39,-122,-79,78,13,-101,23,-44,-62,-117,-115,-106
-39,-122,-79,78,13,-101,23,-44,-62,-111,-115,-112
-39,-122,-79,78,13,-101,23,-50,-68,-117,-115,-112
-39,-122,-79,78,13,-101,23,-50,-68,-123,-115,-112
-39,-122,-79,78,13,-101,23,-50,-74,-123,-115,-118
-45,-128,-79,84,13,-107,17,-50,-80,-135,-115,-118
-45,-128,-79,84,13,-107,17,-50,-80,-135,-121,-124
-45,-128,-79,84,13,-107,17,-50,-86,-135,-127,-130
-45,-128,-79,84,13,-107,17,-50,-92,-147,-127,-130
-45,-128,-79,84,13,-107,17,-56,-98,-147,-127,-130
-45,-128,-79,84,13,-107,17,-56,-98,-153,-127,-130
-45,-128,-79,84,13,-107,17,-62,-104,-153,-127,-142
-45,-128,-79,84,13,-107,11,-74,-110,-159,-133,-142
-45,-134,-85,90,13,-113,11,-80,-104,-165,-133,-142
-45,-134,-85,90,13,-113,11,-80,-110,-165,-133,-142
-39,-134,-91,84,19,-113,11,-80,-110,-165,-133,-142
-39,-134,-91,84,19,-113,5,-80,-116,-165,-139,-136
-33,-134,-97,84,25,-119,5,-86,-116,-165,-139,-130
-33,-134,-97,84,25,-119,5,-86,-116,-171,-139,-124
-39,-140,-97,90,25,-119,5,-86,-122,-177,-145,-124
-39,-140,-97,90,25,-119,5,-86,-122,-177,-145,-112
-45,-140,-91,90,19,-119,5,-86,-140,-177,-145,-112
-45,-140,-91,90,19,-119,5,-86,-140,-177,-145,-112
-45,-140,-91,90,19,-119,-1,-80,-128,-183,-151,-112
-45,-146,-97,96,19,-125,-1,-86,-128,-183,-151,-112
-45,-146,-97,96,19,-125,-1,-80,-134,-183,-145,-112
-45,-146,-97,96,19,-125,5,-80,-140,-189,-145,-112
-45,-146,-97,96,19,-125,-1,-80,-146,-195,-151,-112
-45,-146,-97,96,19,-125,-1,-80,-140,-195,-151,-112
-45,-152,-103,96,25,-131,-1,-80,-146,-195,-169,-118
-45,-152,-103,96,25,-131,-1,-80,-146,-195,-169,-118
-45,-152,-103,96,25,-131,-1,-80,-146,-189,-169,-118
-45,-152,-103,96,25,-131,-1,-80,-146,-189,-169,-118
-45,-152,-103,96,25,-131,5,-80,-140,-189,-169,-118
-51,-158,-103,102,19,-131,5,-80,-140,-189,-169,-112
-51,-158,-103,102,19,-131,5,-86,-146,-189,-175,-112
-51,-158,-103,102,19,-131,5,-86,-152,-189,-175,-112
-51,-158,-103,102,19,-131,5,-86,-158,-189,-175,-112
-51,-158,-103,102,19,-131,5,-92,-158,-189,-175,-112
-51,-158,-103,102,19,-131,11,-98,-158,-189,-175,-118
-51,-158,-103,102,19,-131,11,-98,-158,-189,-175,-118
-51,-164,-109,108,25,-137,11,-98,-164,-189,-175,-118
-51,-164,-109,108,25,-137,11,-98,-164,-189,-175,-118
-45,-164,-115,102,31,-143,5,-104,-164,-189,-175,-118
-45,-164,-115,102,31,-143,5,-104,-164,-189,-175,-118
-39,-164,-121,102,37,-143,5,-104,-164,-183,-175,-118
-39,-164,-121,102,37,-143,5,-104,-164,-183,-175,-118
-39,-164,-121,102,37,-143,5,-116,-170,-177,-181,-118
-39,-164,-121,102,37,-143,5,-116,-170,-177,-181,-124
-39,-164,-121,102,37,-143,5,-116,-170,-171,-187,-130
-39,-164,-121,102,37,-143,5,-122,-170,-171,-187,-130
-39,-170,-127,102,37,-149,5,-128,-170,-171,-187,-124
-39,-170,-127,102,37,-149,5,-128,-176,-171,-187,-124
-39,-170,-127,102,37,-149,5,-128,-176,-171,-187,-118
-39,-170,-127,102,37,-149,5,-128,-176,-171,-187,-118
-39,-170,-127,102,37,-149,5,-128,-176,-165,-181,-118
-39,-170,-127,102,37,-149,5,-134,-176,-165,-181,-118
-39,-170,-127,102,37,-149,5,-134,-176,-159,-175,-118
-39,-170,-127,102,37,-149,5,-134,-176,-159,-175,-124
-39,-170,-127,102,37,-149,-1,-140,-170,-159,-175,-124
-39,-170,-127,102,37,-149,-1,-140,-170,-159,-175,-124
-39,-170,-127,102,37,-149,-1,-146,-170,-159,-181,-124
-39,-170,-127,102,37,-149,-1,-146,-170,-159,-181,-130
-39,-170,-127,102,37,-149,-1,-146,-170,-159,-175,-124
-39,-170,-127,102,37,-149,-1,-146,-170,-159,-175,-136
-33,-170,-133,102,43,-155,5,-146,-170,-159,-169,-130
-33,-170,-133,102,43,-155,5,-152,-176,-159,-169,-130
-39,-170,-127,102,37,-149,5,-152,-182,-159,-175,-136
-39,-170,-127,102,37,-149,5,-152,-182,-159,-175,-136
-39,-170,-127,102,37,-149,5,-152,-188,-165,-181,-142
-39,-170,-127,102,37,-149,5,-146,-188,-165,-181,-142
-39,-170,-127,102,37,-149,5,-152,-188,-159,-187,-142
-39,-170,-127,102,37,-149,-1,-152,-182,-159,-187,-142
-39,-164,-121,102,37,-143,-1,-152,-182,-159,-193,-142
-39,-164,-121,102,37,-143,-1,-152,-188,-159,-193,-142
-33,-164,-127,96,43,-149,-1,-146,-188,-159,-193,-148
-33,-164,-127,96,43,-149,-1,-146,-188,-159,-193,-148
-27,-164,-133,96,49,-149,-1,-140,-188,-159,-193,-154
-27,-164,-133,96,49,-149,-1,-140,-188,-159,-193,-160
-33,-164,-127,96,43,-149,-1,-140,-188,-159,-187,-154
-33,-164,-127,96,43,-149,-6,-140,-188,-159,-187,-154
-33,-164,-127,96,43,-149,-6,-134,-188,-159,-181,-148
-33,-164,-127,96,43,-149,-6,-134,-188,-159,-181,-148
-33,-170,-133,102,43,-155,-6,-134,-188,-159,-181,-142
-33,-170,-133,102,43,-155,-6,-134,-188,-165,-181,-142
-33,-176,-139,102,49,-161,-6,-134,-188,-165,-181,-136
-33,-176,-139,102,49,-161,-6,-134,-188,-165,-181,-136
-39,-176,-133,108,43,-155,-6,-128,-182,-165,-181,-136
-39,-176,-133,108,43,-155,-6,-128,-182,-165,-181,-136
-39,-176,-133,108,43,-155,-6,-122,-176,-165,-181,-136
-39,-176,-133,108,43,-155,-6,-122,-176,-171,-181,-136
-39,-176,-133,108,43,-155,-6,-122,-176,-165,-181,-136
-39,-176,-133,108,43,-155,-6,-122,-176,-165,-181,-136
-39,-176,-133,108,43,-155,-1,-122,-182,-159,-181,-142
-39,-176,-133,108,43,-155,-1,-128,-182,-159,-181,-142
-39,-170,-127,102,37,-149,-6,-128,-182,-159,-181,-142
-39,-170,-127,102,37,-149,-6,-128,-176,-159,-181,-142
-39,-164,-121,102,37,-143,-12,-128,-176,-159,-181,-142
-39,-170,-127,102,37,-149,-12,-134,-176,-159,-181,-142
-39,-170,-127,102,37,-149,-12,-140,-182,-159,-181,-142
-39,-170,-127,102,37,-149,-12,-140,-182,-159,-181,-136
-39,-170,-127,102,37,-149,-12,-140,-188,-159,-181,-136
-39,-170,-127,102,37,-149,-18,-140,-188,-159,-181,-136
-39,-176,-133,108,43,-155,-18,-146,-188,-153,-181,-136
-39,-176,-133,108,43,-155,-18,-152,-188,-153,-181,-136
-39,-182,-139,108,43,-161,-18,-158,-176,-147,-181,-136
-39,-182,-139,108,43,-161,-18,-158,-176,-147,-181,-136
-39,-182,-139,108,43,-161,-18,-152,-182,-153,-181,-136
-39,-182,-139,108,43,-161,-18,-152,-182,-153,-181,-136
-39,-182,-139,108,43,-161,-18,-152,-188,-153,-181,-142
-39,-182,-139,108,43,-161,-18,-152,-188,-153,-181,-142
-39,-182,-139,108,43,-161,-18,-152,-182,-153,-181,-136
-39,-176,-133,108,43,-155,-18,-152,-182,-153,-181,-130
-39,-176,-133,108,43,-155,-18,-158,-176,-153,-181,-124
-39,-176,-133,108,43,-155,-24,-158,-188,-153,-181,-130
-39,-176,-133,108,43,-155,-6,-158,-188,-141,-181,-130
-39,-176,-133,108,43,-155,-6,-152,-188,-147,-181,-136
-39,-176,-133,108,43,-155,-12,-152,-188,-147,-181,-142
-39,-176,-133,108,43,-155,-12,-152,-188,-147,-181,-142
-39,-176,-133,108,43,-155,-18,-152,-188,-147,-181,-148
-39,-176,-133,108,43,-155,-18,-152,-188,-147,-181,-148
-39,-176,-133,108,43,-155,-18,-158,-188,-147,-181,-142
-39,-176,-133,108,43,-155,-18,-158,-188,-147,-181,-142
-39,-176,-133,108,43,-155,-18,-164,-188,-147,-181,-136
-39,-176,-133,108,43,-155,-18,-164,-188,-147,-181,-136
-39,-170,-127,102,37,-149,-18,-158,-188,-147,-181,-136
-39,-170,-127,102,37,-149,-18,-158,-188,-147,-181,-136
-39,-164,-121,102,37,-143,-18,-152,-188,-147,-181,-136
-39,-164,-121,102,37,-143,-18,-152,-188,-147,-181,-136
-33,-164,-127,96,43,-149,-12,-146,-188,-141,-181,-136
-33,-164,-127,96,43,-149,-12,-146,-188,-141,-181,-136
-27,-164,-133,96,49,-149,-6,-140,-188,-135,-181,-136
-27,-164,-133,96,49,-149,-6,-140,-188,-135,-181,-136
-33,-164,-127,96,43,-149,-6,-146,-188,-141,-181,-136
-33,-164,-127,96,43,-149,-6,-146,-188,-141,-181,-136
-39,-164,-121,102,37,-143,-6,-152,-188,-147,-181,-136
-39,-164,-121,102,37,-143,-6,-152,-188,-147,-181,-136
-33,-170,-133,102,43,-155,-6,-146,-188,-147,-181,-136
-33,-170,-133,102,43,-155,-6,-146,-188,-147,-181,-136
-27,-176,-145,102,55,-161,-6,-140,-188,-147,-181,-136
-27,-176,-145,102,55,-161,-6,-140,-188,-147,-181,-136
-27,-176,-145,102,55,-161,-12,-140,-188,-147,-181,-136
-27,-176,-145,102,55,-161,-12,-140,-188,-147,-181,-136
-27,-176,-145,102,55,-161,-18,-140,-188,-147,-181,-136
-27,-176,-145,102,55,-161,-18,-140,-188,-147,-181,-136
-33,-170,-133,102,43,-155,-12,-140,-188,-147,-181,-130
-33,-170,-133,102,43,-155,-12,-140,-188,-147,-181,-130
-39,-164,-121,102,37,-143,-6,-140,-188,-147,-181,-124
-39,-164,-121,102,37,-143,-6,-140,-188,-147,-181,-124
-39,-170,-127,102,37,-149,-6,-140,-194,-147,-181,-124
-39,-170,-127,102,37,-149,-6,-140,-194,-147,-181,-124
-39,-176,-133,108,43,-155,-6,-140,-200,-147,-181,-124
-39,-176,-133,108,43,-155,-6,-140,-200,-147,-181,-124
-33,-170,-133,102,43,-155,-6,-140,-194,-147,-175,-124
-33,-170,-133,102,43,-155,-6,-140,-194,-147,-175,-124
-27,-164,-133,96,49,-149,-6,-140,-188,-147,-169,-124
-27,-164,-133,96,49,-149,-6,-140,-188,-147,-169,-124
-33,-170,-133,102,43,-155,-1,-140,-188,-153,-175,-130
-33,-170,-133,102,43,-155,-1,-140,-188,-153,-175,-130
-39,-176,-133,108,43,-155,-1,-140,-188,-159,-181,-136
-39,-176,-133,108,43,-155,-1,-140,-188,-159,-181,-136
-33,-170,-133,102,43,-155,-1,-140,-188,-153,-175,-136
-33,-170,-133,102,43,-155,-1,-140,-188,-153,-175,-136
-27,-164,-133,96,49,-149,-6,-140,-188,-147,-169,-136
-27,-164,-133,96,49,-149,-6,-140,-188,-147,-169,-136
-27,-170,-139,96,49,-155,-6,-140,-194,-153,-175,-136
-27,-170,-139,96,49,-155,-6,-140,-194,-153,-175,-136
-27,-176,-145,102,55,-161,-6,-140,-200,-159,-181,-136
-27,-176,-145,102,55,-161,-6,-140,-200,-159,-181,-136
-27,-176,-145,102,55,-161,-1,-140,-200,-159,-181,-136
-27,-176,-145,102,55,-161,-1,-140,-200,-159,-181,-136
-27,-176,-145,102,55,-161,-1,-140,-200,-159,-181,-136
-27,-176,-145,102,55,-161,-1,-140,-200,-159,-181,-136
-27,-176,-145,102,55,-161,-1,-140,-194,-159,-175,-142
-27,-176,-145,102,55,-161,-1,-140,-194,-159,-175,-142
-27,-176,-145,102,55,-161,-1,-140,-188,-153,-169,-148
-27,-182,-151,102,55,-167,-1,-140,-188,-153,-169,-148
-27,-182,-151,102,55,-167,-1,-140,-194,-153,-175,-142
-27,-182,-151,102,55,-167,-1,-134,-194,-153,-175,-142
-27,-182,-151,102,55,-167,-6,-134,-200,-141,-175,-130
-27,-176,-145,102,55,-161,-6,-134,-200,-141,-175,-130
-27,-176,-145,102,55,-161,-6,-134,-200,-141,-175,-136
-27,-176,-145,102,55,-161,-6,-134,-200,-141,-175,-136
-27,-176,-145,102,55,-161,-6,-140,-200,-141,-175,-136
-27,-176,-145,102,55,-161,-6,-140,-200,-141,-175,-136
-27,-164,-133,96,49,-149,-1,-134,-188,-141,-175,-136
-21,-158,-133,90,49,-149,-1,-122,-182,-135,-163,-136
-21,-152,-127,84,49,-143,11,-116,-170,-135,-157,-124
-21,-134,-109,78,37,-125,23,-110,-158,-129,-151,-118
-21,-122,-97,72,31,-113,23,-98,-152,-117,-145,-118
-21,-116,-91,66,31,-107,29,-98,-146,-111,-145,-118
-21,-110,-85,66,25,-101,29,-92,-140,-99,-127,-106
-15,-104,-85,60,31,-95,29,-86,-134,-99,-121,-106
-15,-92,-73,54,25,-83,29,-92,-128,-87,-127,-112
-15,-86,-67,48,19,-77,35,-86,-128,-87,-133,-106
-15,-86,-67,48,19,-77,35,-86,-134,-81,-139,-106
-21,-86,-61,54,13,-77,35,-86,-134,-81,-133,-106
-21,-80,-55,48,13,-71,35,-80,-128,-87,-133,-106
-15,-68,-49,42,13,-59,35,-80,-128,-81,-127,-106
-10,-56,-43,30,13,-53,35,-80,-128,-87,-127,-100
-10,-38,-25,24,1,-35,23,-80,-128,-81,-115,-100
-10,-32,-19,18,1,-29,23,-80,-122,-69,-109,-88
-10,-20,-13,12,1,-17,23,-80,-122,-69,-109,-76
-10,-15,-8,12,1,-12,17,-80,-116,-63,-103,-70
-10,-15,-8,12,1,-12,17,-80,-116,-63,-97,-64
-4,-3,-8,7,1,-6,11,-86,-104,-57,-91,-58
-4,-3,-8,7,1,-6,11,-80,-98,-51,-85,-52
-4,15,10,-5,1,12,11,-86,-92,-45,-73,-46
8,27,10,-17,1,18,11,-80,-86,-39,-61,-34
14,45,22,-29,1,36,-1,-86,-86,-33,-61,-34
20,45,16,-29,1,30,-1,-86,-86,-33,-55,-34
20,33,4,-23,7,18,-24,-92,-86,-33,-55,-28
26,27,-8,-23,13,12,-24,-92,-86,-33,-55,-28
32,27,-8,-29,19,6,-18,-86,-86,-33,-55,-28
32,21,-8,-23,25,0,-18,-80,-86,-39,-55,-22
32,9,-19,-17,31,-12,-12,-74,-86,-39,-55,-22
32,-3,-31,-11,37,-12,-12,-80,-92,-51,-67,-34
20,-15,-31,1,31,-17,-12,-86,-98,-51,-73,-40
20,-20,-49,7,37,-35,-12,-86,-98,-51,-73,-40
14,-26,-49,12,31,-35,-6,-80,-98,-51,-73,-46
8,-50,-67,12,37,-59,-1,-80,-110,-63,-79,-52
-10,-74,-73,36,31,-71,-1,-74,-110,-81,-91,-58
-10,-98,-91,48,37,-95,-1,-92,-128,-93,-115,-76
-15,-122,-103,66,37,-113,-1,-104,-140,-111,-133,-94
-27,-134,-103,78,31,-119,-1,-116,-152,-117,-139,-106
-33,-134,-97,84,25,-119,-1,-122,-164,-129,-151,-118
-33,-146,-109,90,31,-131,-6,-134,-170,-135,-151,-118
-39,-152,-109,96,31,-131,-6,-152,-176,-135,-157,-118
-39,-164,-121,102,37,-143,-6,-158,-182,-141,-163,-124
-39,-170,-127,102,37,-149,-12,-152,-194,-147,-169,-130
-39,-176,-133,108,43,-155,-12,-164,-200,-153,-175,-136
-39,-182,-139,108,43,-161,-12,-158,-200,-159,-181,-136
-39,-182,-139,108,43,-161,-18,-158,-200,-159,-181,-136
-39,-176,-133,108,43,-155,-18,-158,-200,-159,-175,-136
-39,-176,-133,108,43,-155,-18,-158,-200,-159,-175,-136
-39,-170,-127,102,37,-149,-18,-170,-200,-159,-175,-136
-39,-170,-127,102,37,-149,-18,-170,-200,-159,-175,-136
-27,-170,-139,96,49,-155,-6,-164,-200,-159,-175,-130
-39,-170,-127,102,37,-149,-1,-158,-188,-159,-163,-136
-51,-170,-115,108,25,-143,5,-134,-170,-153,-151,-124
-57,-170,-109,114,19,-143,11,-116,-152,-147,-157,-124
