,,,,,,,,,,,
2019-09-04 23:15:33,,,,,,,,,,,
,,,,,,,,,,,
I,II,III,aVR,aVL,aVF,V1,V2,V3,V4,V5,V6
-141,-225,-80,183,-26,-151,233,164,-120,-262,-251,-316
-141,-225,-80,183,-26,-151,233,164,-120,-262,-251,-316
-141,-225,-80,183,-26,-151,233,164,-120,-262,-251,-316
-141,-225,-80,183,-26,-151,233,164,-120,-262,-251,-316
-141,-225,-80,183,-26,-151,239,176,-114,-256,-245,-322
-141,-225,-80,183,-26,-151,239,182,-108,-256,-245,-322
-141,-225,-80,183,-26,-151,239,194,-102,-250,-239,-328
-141,-225,-80,183,-26,-151,239,200,-96,-250,-239,-328
-135,-219,-80,177,-26,-151,245,212,-90,-244,-239,-322
-135,-219,-80,177,-26,-151,251,224,-84,-244,-239,-322
-129,-213,-80,171,-20,-145,257,236,-78,-238,-239,-316
-129,-213,-80,171,-20,-145,263,242,-72,-238,-239,-316
-129,-219,-86,171,-20,-151,269,254,-60,-232,-233,-316
-129,-219,-86,171,-20,-151,275,260,-54,-232,-233,-316
-129,-225,-92,177,-14,-157,281,272,-42,-226,-227,-316
-129,-225,-92,177,-14,-157,287,278,-36,-226,-227,-316
-129,-225,-92,177,-14,-157,293,296,-24,-220,-227,-316
-129,-225,-92,177,-14,-157,299,308,-18,-220,-227,-316
-129,-225,-92,177,-14,-157,305,326,-6,-214,-227,-316
-129,-225,-92,177,-14,-157,311,338,0,-214,-227,-316
-135,-225,-86,177,-20,-157,323,356,5,-208,-227,-322
-135,-225,-86,177,-20,-157,335,374,5,-202,-227,-328
-141,-225,-80,183,-26,-151,347,392,17,-202,-227,-334
-141,-225,-80,183,-26,-151,359,410,23,-196,-227,-340
-141,-231,-86,183,-26,-157,377,434,35,-190,-227,-334
-141,-231,-86,183,-26,-157,389,452,47,-190,-227,-334
-141,-231,-92,189,-20,-163,407,476,59,-184,-227,-328
-141,-231,-92,189,-20,-163,419,488,71,-184,-227,-328
-141,-231,-92,189,-20,-163,437,518,89,-172,-227,-334
-141,-231,-92,189,-20,-163,449,548,101,-166,-227,-334
-141,-231,-92,189,-20,-163,467,578,119,-154,-221,-340
-141,-231,-92,189,-20,-163,479,608,131,-148,-221,-340
-141,-231,-92,189,-20,-163,491,638,149,-142,-221,-340
-141,-231,-92,189,-20,-163,509,662,167,-136,-221,-340
-141,-231,-92,189,-20,-163,527,692,185,-130,-221,-340
-141,-231,-92,189,-20,-163,545,716,203,-124,-221,-340
-141,-231,-92,189,-20,-163,563,740,221,-112,-221,-340
-141,-231,-92,189,-20,-163,581,770,233,-100,-221,-340
-141,-231,-92,189,-20,-163,599,800,245,-88,-221,-340
-141,-231,-92,189,-20,-163,617,830,257,-76,-221,-340
-135,-231,-92,183,-20,-163,629,854,275,-64,-215,-334
-135,-231,-92,183,-20,-163,641,878,293,-58,-209,-334
-129,-225,-92,177,-14,-157,653,902,311,-46,-203,-328
-129,-225,-92,177,-14,-157,665,926,329,-40,-197,-328
-129,-225,-92,177,-14,-157,677,944,347,-28,-185,-322
-129,-225,-92,177,-14,-157,683,956,359,-16,-173,-322
-129,-225,-92,177,-14,-157,695,974,377,-4,-161,-316
-129,-225,-92,177,-14,-157,701,980,389,8,-149,-316
-123,-219,-92,171,-14,-157,701,986,395,20,-143,-310
-123,-213,-86,165,-14,-151,701,986,401,26,-137,-304
-117,-207,-86,159,-14,-145,701,992,407,37,-131,-298
-117,-201,-80,159,-14,-139,701,992,413,37,-125,-292
-111,-195,-80,153,-14,-139,695,986,419,37,-113,-286
-105,-189,-80,147,-8,-133,689,980,419,43,-107,-280
-99,-183,-80,141,-8,-133,683,974,425,49,-95,-274
-93,-177,-80,135,-2,-127,677,974,425,55,-89,-268
-87,-171,-80,129,-2,-127,665,956,419,61,-89,-262
-81,-165,-80,123,4,-121,653,944,413,61,-89,-262
-75,-159,-80,117,4,-121,641,926,407,67,-89,-256
-69,-153,-80,111,10,-115,629,914,401,67,-89,-256
-63,-147,-80,105,10,-115,611,890,395,67,-77,-244
-63,-147,-80,105,10,-115,599,872,389,67,-71,-244
-57,-141,-80,99,15,-109,581,848,383,67,-59,-232
-57,-141,-80,99,15,-109,569,830,377,67,-53,-226
-51,-129,-74,87,15,-103,551,800,365,67,-53,-220
-45,-123,-74,81,15,-97,533,770,353,67,-53,-214
-39,-111,-68,75,15,-91,515,740,341,67,-53,-208
-33,-105,-68,69,15,-85,497,716,329,67,-53,-202
-33,-99,-62,63,15,-79,479,680,311,61,-53,-196
-33,-99,-62,63,15,-79,455,644,299,61,-53,-196
-33,-93,-56,63,15,-73,431,608,281,55,-53,-190
-33,-93,-56,63,15,-73,407,572,269,55,-53,-190
-27,-87,-56,57,15,-73,383,542,251,49,-53,-184
-27,-87,-56,57,15,-73,365,512,239,43,-53,-184
-21,-81,-56,51,15,-67,341,488,221,37,-53,-178
-21,-81,-56,51,15,-67,323,458,203,37,-53,-178
-21,-75,-50,45,15,-61,299,416,185,37,-53,-172
-21,-69,-44,45,15,-55,281,380,167,32,-53,-172
-21,-63,-38,39,10,-49,257,338,149,26,-53,-166
-21,-57,-32,39,10,-43,239,302,131,20,-53,-166
-21,-51,-26,33,4,-37,227,278,113,8,-53,-160
-21,-45,-20,33,4,-31,209,254,101,2,-53,-160
-21,-39,-15,27,-2,-25,191,236,83,-10,-53,-154
-21,-33,-15,27,-2,-19,173,212,71,-16,-53,-154
-27,-33,-15,27,-8,-19,161,188,59,-22,-47,-154
-27,-33,-15,27,-8,-19,149,170,53,-22,-47,-154
-33,-33,-9,33,-14,-13,137,146,41,-28,-41,-154
-33,-33,-9,33,-14,-13,125,128,35,-28,-41,-154
-33,-27,-3,27,-20,-7,113,110,23,-34,-47,-154
-33,-27,-3,27,-20,-7,107,92,11,-40,-47,-154
-33,-21,3,27,-20,-2,95,74,5,-46,-53,-154
-33,-21,3,27,-20,-2,89,56,0,-52,-53,-154
-39,-21,9,27,-26,-2,83,50,-6,-58,-59,-154
-39,-21,9,27,-26,-2,77,44,-12,-58,-59,-154
-45,-21,15,33,-32,-2,71,38,-18,-64,-65,-154
-45,-21,15,33,-32,-2,65,32,-24,-64,-65,-154
-45,-15,21,27,-38,-2,59,26,-30,-70,-65,-160
-45,-15,21,27,-38,-2,53,20,-30,-70,-65,-160
-45,-9,27,27,-38,4,47,14,-36,-76,-65,-166
-45,-9,27,27,-38,4,41,8,-36,-76,-65,-166
-45,-15,21,27,-38,-2,35,2,-42,-76,-65,-166
-45,-15,21,27,-38,-2,29,2,-48,-76,-65,-166
-45,-21,15,33,-32,-2,23,2,-54,-76,-65,-166
-45,-21,15,33,-32,-2,17,-3,-60,-76,-65,-166
-45,-15,21,27,-38,-2,11,-9,-66,-82,-65,-166
-45,-15,21,27,-38,-2,5,-9,-66,-82,-65,-166
-45,-9,27,27,-38,4,-1,-15,-72,-88,-65,-166
-45,-9,27,27,-38,4,-1,-15,-72,-88,-65,-166
-45,-9,27,27,-38,4,-1,-15,-66,-82,-59,-160
-45,-9,27,27,-38,4,-1,-15,-66,-82,-59,-160
-45,-9,27,27,-38,4,-1,-15,-60,-76,-53,-154
-45,-9,27,27,-38,4,-1,-15,-60,-76,-53,-154
-45,-9,27,27,-38,4,-1,-21,-66,-76,-53,-154
-45,-9,27,27,-38,4,-1,-21,-66,-76,-53,-154
-45,-9,27,27,-38,4,-6,-27,-72,-76,-53,-154
-45,-9,27,27,-38,4,-6,-27,-72,-76,-53,-154
-51,-9,33,27,-44,4,-6,-27,-72,-76,-53,-154
-51,-9,33,27,-44,4,-6,-27,-72,-76,-53,-154
-57,-9,39,33,-50,10,-6,-27,-72,-76,-53,-154
-57,-9,39,33,-50,10,-6,-27,-72,-76,-53,-154
-57,-3,45,27,-56,16,-6,-21,-66,-70,-47,-148
-57,3,51,27,-56,22,-6,-21,-66,-70,-47,-148
-57,8,57,21,-62,28,-6,-15,-60,-64,-41,-142
-57,8,63,21,-62,34,-6,-15,-60,-64,-41,-142
-51,8,51,21,-56,22,-6,-15,-60,-64,-41,-142
-51,8,51,21,-56,22,-6,-15,-60,-64,-41,-142
-45,3,39,21,-44,16,-6,-15,-60,-64,-41,-142
-45,3,39,21,-44,16,-6,-15,-60,-64,-41,-142
-45,3,39,21,-44,16,-1,-9,-54,-58,-35,-142
-45,3,39,21,-44,16,-1,-3,-54,-58,-29,-142
-45,3,39,21,-44,16,-1,2,-48,-52,-23,-142
-45,3,39,21,-44,16,-1,2,-48,-52,-17,-142
-51,8,51,21,-56,22,-1,2,-42,-46,-17,-142
-51,8,51,21,-56,22,-1,2,-42,-46,-17,-142
-57,8,63,21,-62,34,-1,8,-36,-40,-17,-142
-57,8,63,21,-62,34,-1,8,-36,-40,-17,-142
-51,8,63,15,-56,34,-1,8,-30,-34,-11,-136
-51,8,63,15,-56,34,-1,8,-30,-34,-11,-136
-45,14,63,9,-56,40,-1,8,-24,-28,-5,-130
-45,14,63,9,-56,40,-1,8,-24,-28,-5,-130
-45,14,63,9,-56,40,-1,8,-24,-28,-5,-136
-45,14,63,9,-56,40,-1,8,-24,-28,-5,-136
-45,14,63,9,-56,40,5,8,-24,-28,-5,-142
-45,14,63,9,-56,40,5,8,-24,-28,-5,-142
-51,14,69,9,-62,40,-1,14,-24,-28,-5,-142
-51,14,69,9,-62,40,-1,14,-24,-28,-5,-142
-57,14,75,15,-68,46,-1,20,-24,-28,-5,-142
-57,14,75,15,-68,46,-1,20,-24,-28,-5,-142
-51,20,75,9,-62,46,-1,14,-30,-28,-5,-136
-51,26,81,3,-68,52,-1,14,-30,-28,-5,-136
-45,32,81,-3,-62,58,-1,8,-36,-28,-5,-130
-45,38,87,-3,-68,64,-1,8,-36,-28,-5,-130
-45,32,81,-3,-62,58,-1,2,-42,-34,-11,-130
-45,32,81,-3,-62,58,-1,2,-42,-34,-11,-130
-45,26,75,3,-62,52,-1,2,-48,-40,-17,-130
-45,26,75,3,-62,52,-1,2,-48,-40,-17,-130
-51,26,81,3,-68,52,-1,2,-54,-40,-23,-130
-51,26,81,3,-68,52,-1,2,-54,-40,-23,-130
-57,26,87,9,-74,58,-1,8,-60,-40,-29,-130
-57,26,87,9,-74,58,-1,8,-60,-40,-29,-130
-51,20,75,9,-62,46,-1,2,-60,-46,-23,-136
-51,20,75,9,-62,46,-1,2,-60,-46,-23,-136
-45,14,63,9,-56,40,-1,2,-60,-52,-17,-142
-45,14,63,9,-56,40,-1,2,-60,-52,-17,-142
-51,20,75,9,-62,46,-1,2,-66,-58,-23,-148
-51,20,75,9,-62,46,-1,2,-66,-58,-23,-148
-57,26,87,9,-74,58,-6,-3,-72,-64,-29,-154
-57,26,87,9,-74,58,-6,-3,-72,-64,-29,-154
-57,20,81,9,-68,52,-12,-9,-78,-70,-29,-154
-57,20,81,9,-68,52,-12,-9,-84,-70,-29,-154
-57,14,75,15,-68,46,-18,-15,-90,-76,-29,-154
-57,14,75,15,-68,46,-18,-15,-96,-76,-29,-154
-57,8,63,21,-62,34,-18,-15,-102,-82,-29,-160
-57,8,57,21,-62,28,-18,-15,-102,-82,-29,-160
-57,-3,45,27,-56,16,-18,-15,-108,-88,-29,-166
-57,-9,39,33,-50,10,-18,-15,-108,-88,-29,-166
-57,-3,45,27,-56,16,-18,-15,-102,-82,-29,-166
-57,3,51,27,-56,22,-18,-15,-102,-82,-29,-166
-57,8,57,21,-62,28,-18,-15,-96,-76,-29,-166
-57,8,63,21,-62,34,-18,-15,-96,-76,-29,-166
-57,8,57,21,-62,28,-18,-21,-102,-82,-35,-166
-57,8,57,21,-62,28,-18,-21,-102,-82,-35,-166
-57,3,51,27,-56,22,-18,-27,-108,-88,-41,-166
-57,3,51,27,-56,22,-18,-27,-108,-88,-41,-166
-57,-3,45,27,-56,16,-24,-27,-114,-94,-41,-172
-57,-3,45,27,-56,16,-24,-27,-114,-94,-41,-172
-57,-9,39,33,-50,10,-30,-27,-120,-100,-41,-178
-57,-9,39,33,-50,10,-30,-27,-120,-100,-41,-178
-57,-9,39,33,-50,10,-30,-33,-126,-106,-47,-178
-57,-9,39,33,-50,10,-30,-33,-126,-106,-47,-178
-57,-9,39,33,-50,10,-30,-39,-132,-112,-53,-178
-57,-9,39,33,-50,10,-30,-39,-132,-112,-53,-178
-57,-15,33,33,-50,4,-36,-45,-138,-112,-53,-184
-57,-15,33,33,-50,4,-36,-45,-138,-112,-53,-184
-57,-21,27,39,-44,-2,-42,-51,-144,-112,-53,-190
-57,-21,27,39,-44,-2,-42,-51,-144,-112,-53,-190
-57,-21,27,39,-44,-2,-42,-51,-144,-118,-59,-196
-57,-21,27,39,-44,-2,-42,-51,-144,-118,-59,-196
-57,-21,27,39,-44,-2,-42,-51,-144,-124,-65,-202
-57,-21,27,39,-44,-2,-42,-51,-144,-124,-65,-202
-63,-15,39,39,-56,4,-42,-57,-144,-124,-59,-202
-63,-15,39,39,-56,4,-42,-57,-144,-124,-59,-202
-69,-9,51,39,-62,16,-42,-63,-144,-124,-53,-202
-69,-9,51,39,-62,16,-42,-63,-144,-124,-53,-202
-63,-15,39,39,-56,4,-48,-63,-144,-124,-53,-196
-63,-15,39,39,-56,4,-48,-63,-144,-124,-53,-196
-57,-21,27,39,-44,-2,-54,-63,-144,-124,-53,-190
-57,-21,27,39,-44,-2,-54,-63,-144,-124,-53,-190
-63,-27,27,45,-50,-2,-54,-69,-150,-130,-59,-196
-63,-27,27,45,-50,-2,-54,-75,-150,-130,-59,-196
-69,-33,27,51,-50,-2,-54,-87,-162,-136,-71,-202
-69,-39,21,51,-50,-2,-54,-87,-162,-136,-71,-202
-69,-39,21,51,-50,-2,-54,-87,-162,-142,-77,-208
-69,-39,21,51,-50,-2,-54,-87,-162,-142,-77,-214
-69,-39,21,51,-50,-2,-54,-87,-162,-142,-77,-220
-69,-39,21,51,-50,-2,-54,-87,-168,-142,-77,-226
-69,-39,21,51,-50,-2,-54,-87,-162,-142,-77,-220
-69,-39,21,51,-50,-2,-60,-87,-162,-142,-77,-220
-69,-39,21,51,-50,-2,-60,-87,-156,-142,-77,-214
-69,-39,21,51,-50,-2,-60,-87,-156,-142,-77,-214
-69,-33,27,51,-50,-2,-60,-81,-156,-136,-71,-214
-69,-39,21,51,-50,-2,-60,-87,-156,-136,-71,-214
-69,-33,27,51,-50,-2,-60,-81,-156,-136,-65,-214
-69,-33,27,51,-50,-2,-60,-81,-156,-136,-65,-220
-63,-33,21,45,-44,-2,-60,-81,-156,-136,-65,-214
-63,-33,21,45,-44,-2,-60,-81,-156,-136,-65,-214
-63,-33,21,45,-44,-2,-60,-81,-162,-136,-65,-208
-63,-33,21,45,-44,-2,-60,-81,-162,-136,-65,-208
-63,-33,21,45,-44,-2,-60,-81,-168,-136,-59,-208
-63,-27,27,45,-50,-2,-60,-81,-162,-136,-59,-208
-63,-27,27,45,-50,-2,-60,-81,-168,-136,-53,-208
-63,-27,27,45,-50,-2,-60,-81,-168,-136,-53,-208
-63,-27,27,45,-50,-2,-66,-81,-168,-142,-59,-208
-57,-27,21,39,-44,-2,-66,-81,-162,-142,-53,-208
-57,-27,21,39,-44,-2,-66,-81,-162,-142,-47,-214
-57,-15,33,33,-50,4,-66,-69,-156,-142,-47,-214
-57,-15,33,33,-50,4,-66,-75,-156,-142,-47,-208
-57,-9,39,33,-50,10,-66,-63,-150,-130,-47,-208
-63,-15,39,39,-56,4,-60,-69,-150,-124,-47,-208
-57,-3,45,27,-56,16,-54,-63,-150,-118,-47,-208
-51,8,51,21,-56,22,-54,-51,-138,-112,-35,-208
-39,14,57,3,-50,34,-48,-33,-126,-100,-29,-202
-39,8,51,9,-44,28,-48,-27,-114,-100,-17,-202
-39,14,57,3,-50,34,-42,-27,-114,-94,-17,-202
-33,32,69,-9,-50,52,-30,-27,-108,-88,-11,-196
-33,44,81,-15,-56,64,-30,-21,-102,-88,-5,-184
-27,56,87,-15,-56,70,-30,-21,-96,-82,1,-172
-27,74,105,-15,-68,88,-30,-21,-96,-76,7,-166
-33,80,117,-15,-74,100,-24,-21,-96,-76,12,-160
-33,92,129,-20,-80,112,-30,-21,-96,-76,12,-154
-33,104,141,-26,-86,124,-42,-15,-96,-70,12,-142
-27,116,147,-38,-86,130,-48,-15,-90,-64,18,-142
-21,140,165,-50,-92,154,-42,-3,-72,-40,36,-118
-15,164,183,-68,-98,172,-42,2,-60,-28,60,-106
-3,176,183,-80,-92,178,-36,2,-42,-16,66,-100
3,182,183,-86,-92,184,-36,2,-36,-10,72,-106
9,188,183,-92,-86,184,-36,14,-36,-10,72,-94
15,194,183,-98,-86,190,-36,8,-42,-10,60,-94
20,188,171,-98,-74,178,-42,8,-36,-4,66,-94
20,170,153,-86,-68,160,-48,8,-48,-10,66,-100
20,146,129,-74,-56,136,-72,2,-60,-22,60,-106
20,134,117,-68,-50,124,-96,-27,-72,-40,48,-118
20,104,81,-56,-26,94,-108,-39,-84,-58,36,-124
20,86,69,-44,-26,76,-120,-51,-96,-58,18,-130
9,68,63,-32,-26,64,-132,-75,-108,-70,12,-148
15,56,45,-26,-14,52,-156,-87,-120,-82,1,-166
20,56,33,-32,-2,46,-156,-87,-126,-82,1,-160
9,56,51,-26,-20,52,-156,-87,-126,-82,1,-160
9,44,39,-20,-14,40,-168,-87,-126,-70,1,-160
9,20,15,-15,-2,16,-180,-99,-138,-70,1,-166
3,14,15,-15,-8,16,-210,-123,-132,-82,7,-166
15,8,-15,-15,10,-2,-240,-141,-144,-88,7,-166
15,-15,-26,-3,15,-19,-276,-165,-156,-88,1,-166
20,-27,-56,-3,33,-37,-348,-201,-162,-88,1,-166
44,-27,-80,-15,57,-49,-426,-255,-186,-100,1,-172
62,3,-68,-26,63,-31,-486,-285,-186,-82,12,-148
80,38,-38,-56,57,-2,-510,-291,-174,-58,24,-124
104,68,-32,-86,69,16,-546,-315,-168,-22,48,-94
134,74,-56,-104,93,4,-576,-345,-174,-10,66,-70
158,104,-50,-128,105,22,-600,-345,-144,26,102,-46
176,140,-32,-158,105,52,-606,-333,-114,55,144,-10
194,176,-15,-182,105,76,-636,-321,-78,103,192,13
224,218,-15,-218,111,106,-672,-333,-36,151,240,55
254,254,-3,-254,123,130,-720,-333,5,205,288,91
278,302,15,-290,129,166,-738,-321,47,259,330,133
308,332,15,-320,141,178,-756,-285,107,307,366,169
338,380,33,-356,147,214,-780,-231,161,367,402,211
380,428,39,-404,165,238,-792,-171,209,433,438,235
404,470,57,-434,171,262,-780,-117,245,475,486,259
416,512,93,-464,159,304,-750,-75,305,523,534,301
434,584,147,-506,141,370,-750,-69,377,589,594,367
470,674,201,-566,129,442,-768,-111,443,673,666,415
476,728,243,-596,111,484,-786,-219,473,697,714,457
458,770,309,-614,69,544,-792,-375,461,709,726,481
452,812,357,-632,39,586,-828,-585,413,679,714,487
452,842,387,-644,27,616,-846,-795,341,649,702,493
446,866,417,-656,15,646,-834,-897,311,649,720,505
452,926,471,-686,-2,700,-840,-933,323,667,744,529
458,998,537,-728,-38,772,-882,-1005,299,691,780,583
464,1064,597,-758,-62,832,-990,-1137,269,691,810,625
494,1148,651,-818,-74,904,-1134,-1245,245,733,876,703
536,1274,729,-908,-92,1006,-1308,-1371,197,775,972,787
560,1394,825,-980,-128,1114,-1500,-1599,59,799,1056,907
590,1520,927,-1052,-164,1222,-1656,-1791,-42,859,1170,1027
638,1658,1011,-1148,-188,1336,-1842,-1941,-84,973,1302,1177
710,1832,1119,-1268,-206,1474,-2040,-2103,-150,1069,1470,1345
740,1952,1203,-1340,-230,1582,-2190,-2253,-246,1141,1578,1477
764,1958,1191,-1364,-212,1576,-2292,-2307,-306,1213,1674,1585
806,1958,1149,-1382,-170,1558,-2358,-2319,-330,1261,1746,1651
848,1970,1119,-1412,-134,1546,-2400,-2331,-372,1315,1818,1717
878,1982,1101,-1430,-110,1546,-2441,-2319,-408,1363,1896,1819
908,1964,1053,-1436,-68,1510,-2453,-2283,-420,1417,1962,1885
932,1916,975,-1424,-20,1450,-2394,-2175,-390,1465,1992,1909
932,1838,903,-1382,15,1372,-2274,-2001,-294,1543,2016,1915
926,1760,831,-1340,39,1300,-2154,-1803,-204,1627,2028,1891
914,1628,711,-1268,99,1174,-2010,-1635,-126,1651,1998,1825
884,1418,525,-1148,177,970,-1842,-1455,-90,1597,1884,1693
824,1172,339,-992,243,754,-1680,-1269,-90,1483,1716,1495
728,932,201,-824,255,568,-1464,-1089,-96,1279,1470,1243
620,680,51,-650,279,370,-1224,-903,-138,985,1140,931
494,398,-92,-446,291,154,-990,-741,-228,625,768,601
326,200,-128,-260,231,34,-780,-609,-312,301,456,319
176,62,-110,-116,141,-13,-576,-501,-390,37,180,55
50,-45,-104,-9,75,-73,-408,-399,-444,-160,-23,-142
9,-93,-98,39,45,-97,-330,-327,-456,-232,-89,-214
15,-93,-104,39,51,-97,-300,-261,-420,-202,-71,-208
3,-111,-110,51,45,-109,-264,-207,-390,-196,-83,-238
-33,-129,-92,81,21,-109,-228,-159,-360,-196,-95,-250
-45,-123,-74,81,15,-97,-186,-117,-324,-184,-101,-262
-63,-135,-68,99,4,-103,-168,-111,-306,-202,-113,-286
-75,-147,-68,111,-2,-109,-138,-105,-312,-232,-143,-310
-87,-141,-50,111,-14,-97,-108,-87,-288,-238,-143,-316
-93,-141,-44,117,-20,-91,-72,-45,-270,-238,-149,-322
-105,-177,-68,141,-14,-121,-48,-15,-270,-250,-155,-328
-111,-183,-68,147,-20,-127,-36,-3,-282,-262,-167,-340
-111,-201,-86,153,-8,-145,-30,8,-276,-268,-179,-352
-117,-213,-92,165,-8,-151,-18,14,-276,-274,-185,-358
-123,-225,-98,171,-8,-163,-18,14,-270,-274,-203,-370
-123,-225,-98,171,-8,-163,-6,20,-264,-286,-209,-382
-123,-219,-92,171,-14,-157,-6,20,-264,-292,-215,-394
-135,-219,-80,177,-26,-151,-1,26,-252,-292,-215,-394
-135,-213,-74,171,-26,-145,-1,32,-246,-292,-215,-394
-135,-213,-74,171,-26,-145,5,38,-240,-292,-215,-394
-135,-213,-74,171,-26,-145,11,62,-234,-292,-209,-388
-135,-213,-74,171,-26,-145,23,74,-228,-286,-209,-382
-135,-213,-74,171,-26,-145,35,92,-216,-286,-203,-376
-135,-213,-74,171,-26,-145,35,104,-216,-286,-197,-370
-135,-219,-80,177,-26,-151,29,98,-216,-286,-197,-376
-135,-219,-80,177,-26,-151,35,104,-210,-286,-197,-376
-135,-219,-80,177,-26,-151,35,98,-204,-286,-197,-382
-135,-219,-80,177,-26,-151,41,104,-198,-286,-203,-382
-135,-219,-80,177,-26,-151,41,110,-204,-286,-209,-394
-135,-219,-80,177,-26,-151,53,116,-192,-286,-209,-394
-135,-213,-74,171,-26,-145,53,122,-192,-280,-215,-394
-135,-213,-74,171,-26,-145,59,134,-192,-280,-209,-394
-135,-207,-68,171,-32,-139,65,140,-186,-280,-209,-388
-135,-207,-68,171,-32,-139,71,158,-174,-274,-209,-388
-135,-201,-62,165,-32,-133,71,158,-168,-274,-209,-376
-135,-201,-62,165,-32,-133,77,164,-168,-274,-209,-376
-141,-201,-56,171,-38,-127,83,170,-162,-268,-209,-388
-141,-201,-56,171,-38,-127,89,188,-156,-262,-209,-388
-141,-201,-56,171,-38,-127,89,188,-150,-256,-209,-394
-141,-195,-50,165,-44,-121,95,206,-144,-256,-209,-394
-141,-201,-56,171,-38,-127,101,218,-132,-250,-209,-388
-141,-201,-56,171,-38,-127,107,230,-126,-250,-209,-388
-141,-207,-62,171,-38,-133,113,242,-108,-250,-203,-382
-141,-207,-62,171,-38,-133,119,248,-102,-244,-203,-382
-141,-195,-50,165,-44,-121,131,260,-96,-250,-209,-382
-141,-195,-50,165,-44,-121,137,272,-90,-238,-209,-382
-141,-189,-44,165,-44,-115,161,284,-90,-238,-215,-382
-141,-189,-44,165,-44,-115,167,302,-72,-238,-215,-382
-141,-201,-56,171,-38,-127,173,314,-66,-232,-215,-388
-141,-201,-56,171,-38,-127,179,338,-60,-226,-209,-382
-135,-207,-68,171,-32,-139,191,350,-42,-226,-209,-388
-135,-207,-68,171,-32,-139,203,368,-30,-226,-203,-394
-141,-213,-68,177,-32,-139,215,392,-24,-220,-197,-394
-141,-213,-68,177,-32,-139,227,410,-12,-214,-197,-394
-147,-219,-68,183,-38,-145,239,446,-6,-214,-191,-388
-147,-219,-68,183,-38,-145,251,458,5,-208,-191,-388
-147,-219,-68,183,-38,-145,269,482,11,-202,-197,-394
-147,-219,-68,183,-38,-145,281,500,23,-202,-197,-400
-147,-213,-62,177,-38,-139,299,518,41,-196,-197,-412
-147,-213,-62,177,-38,-139,317,554,59,-190,-197,-418
-153,-213,-56,183,-44,-133,329,584,77,-184,-197,-412
-153,-219,-62,183,-44,-139,353,614,89,-172,-197,-406
-153,-219,-62,183,-44,-139,365,644,101,-166,-197,-406
-153,-225,-68,189,-38,-145,383,674,119,-160,-191,-400
-153,-225,-68,189,-38,-145,407,704,131,-148,-197,-400
-153,-225,-68,189,-38,-145,425,734,143,-136,-197,-400
-153,-225,-68,189,-38,-145,443,758,173,-130,-203,-400
-159,-225,-62,189,-44,-145,461,788,191,-124,-203,-406
-153,-219,-62,183,-44,-139,485,818,203,-118,-197,-406
-153,-219,-62,183,-44,-139,497,848,221,-112,-197,-406
-147,-219,-68,183,-38,-145,521,878,233,-100,-179,-406
-147,-219,-68,183,-38,-145,533,902,245,-88,-173,-400
-147,-225,-74,183,-32,-151,539,920,263,-88,-179,-400
-147,-219,-68,183,-38,-145,551,944,269,-70,-173,-400
-147,-225,-74,183,-32,-151,563,956,287,-58,-173,-406
-147,-225,-74,183,-32,-151,575,974,299,-52,-167,-394
-141,-219,-74,177,-32,-145,581,980,317,-34,-167,-394
-141,-213,-68,177,-32,-139,587,992,329,-28,-161,-394
-141,-213,-68,177,-32,-139,593,1004,341,-16,-155,-394
-129,-201,-68,165,-26,-133,593,1004,347,-10,-149,-394
-123,-189,-62,153,-26,-127,593,1010,353,-4,-137,-382
-117,-189,-68,153,-20,-127,593,1010,359,2,-131,-370
-111,-183,-68,147,-20,-127,587,1010,365,8,-119,-358
-111,-177,-62,141,-20,-121,581,1004,365,14,-107,-346
-105,-177,-68,141,-14,-121,569,998,359,26,-107,-340
-93,-159,-62,123,-14,-109,563,992,359,32,-95,-334
-81,-153,-68,117,-2,-109,539,974,359,37,-95,-334
-75,-153,-74,111,4,-115,533,962,359,37,-89,-322
-75,-147,-68,111,-2,-109,527,944,347,37,-83,-316
-75,-147,-68,111,-2,-109,515,926,347,37,-83,-304
-75,-147,-68,111,-2,-109,503,896,341,37,-71,-304
-69,-135,-62,99,-2,-97,491,878,341,37,-71,-298
-63,-129,-62,93,4,-97,479,860,329,37,-71,-286
-63,-129,-62,93,4,-97,461,836,323,37,-65,-286
-63,-129,-62,93,4,-97,437,824,299,37,-59,-286
-51,-117,-62,81,10,-91,419,788,293,37,-59,-280
-45,-117,-68,81,15,-91,389,758,281,37,-53,-268
-45,-111,-62,75,10,-85,371,728,269,37,-53,-262
-39,-111,-68,75,15,-91,347,686,251,32,-47,-250
-33,-105,-68,69,15,-85,329,656,245,20,-47,-244
-33,-99,-62,63,15,-79,305,614,221,20,-53,-244
-33,-93,-56,63,15,-73,287,584,215,20,-53,-238
-27,-87,-56,57,15,-73,257,542,191,26,-59,-232
-27,-81,-50,51,15,-67,239,500,173,20,-53,-226
-27,-69,-38,45,10,-55,215,470,167,8,-59,-232
-27,-63,-32,45,4,-49,191,434,149,2,-59,-232
-15,-57,-38,33,15,-49,167,398,137,-10,-65,-232
-15,-45,-26,27,10,-37,149,362,131,-16,-65,-232
-15,-45,-26,27,10,-37,131,326,113,-16,-59,-226
-15,-45,-26,27,10,-37,107,302,101,-28,-59,-220
-9,-45,-32,27,15,-37,89,272,83,-28,-53,-208
-9,-39,-26,21,10,-31,77,242,71,-34,-53,-208
-15,-27,-15,21,-2,-19,53,224,53,-40,-53,-208
-15,-27,-15,21,-2,-19,41,206,41,-40,-53,-208
-21,-21,-9,21,-8,-7,35,188,29,-46,-53,-202
-27,-21,-3,21,-14,-7,17,164,17,-46,-53,-202
-27,-21,-3,21,-14,-7,5,140,5,-52,-53,-202
-27,-15,3,21,-20,-2,-1,122,5,-58,-53,-196
-27,-15,3,21,-20,-2,-1,98,5,-64,-53,-196
-27,-15,3,21,-20,-2,-6,80,5,-64,-53,-190
-33,-9,15,21,-26,-2,-18,74,0,-70,-53,-190
-39,-9,21,21,-32,-2,-18,68,-6,-76,-53,-190
-39,-9,21,21,-32,-2,-36,62,-18,-82,-53,-190
-39,-9,21,21,-32,-2,-42,50,-30,-82,-53,-190
-45,-3,33,21,-44,10,-54,44,-42,-88,-53,-196
-45,-3,33,21,-44,10,-60,32,-48,-94,-53,-196
-51,-3,39,27,-50,10,-72,20,-60,-100,-53,-202
-57,-3,45,27,-56,16,-78,14,-72,-112,-53,-202
-51,-9,33,27,-44,4,-72,14,-72,-106,-59,-208
-51,-9,33,27,-44,4,-78,8,-72,-106,-59,-208
-45,-9,27,27,-38,4,-78,8,-66,-106,-65,-208
-45,-9,27,27,-38,4,-84,8,-72,-106,-65,-214
-45,-9,27,27,-38,4,-90,2,-66,-112,-59,-208
-45,-3,33,21,-44,10,-90,2,-66,-112,-59,-202
-45,-3,33,21,-44,10,-96,2,-66,-112,-59,-196
-45,-3,33,21,-44,10,-96,-3,-66,-112,-59,-196
-45,3,39,21,-44,16,-102,-3,-72,-112,-65,-202
-45,3,39,21,-44,16,-102,-3,-78,-112,-65,-202
-45,8,45,15,-50,22,-102,-9,-90,-118,-59,-208
-45,8,45,15,-50,22,-108,-9,-96,-118,-59,-208
-45,8,45,15,-50,22,-108,-9,-96,-118,-65,-208
-45,8,45,15,-50,22,-108,-9,-96,-118,-65,-208
-45,8,51,15,-50,28,-108,-9,-102,-112,-71,-202
-45,8,51,15,-50,28,-108,-9,-102,-112,-71,-202
-51,8,51,21,-56,22,-114,-9,-96,-112,-65,-202
-51,8,51,21,-56,22,-114,-9,-96,-106,-65,-196
-57,3,51,27,-56,22,-114,-9,-90,-106,-59,-196
-57,3,51,27,-56,22,-114,-15,-90,-106,-59,-196
-51,8,51,21,-56,22,-120,-15,-90,-112,-65,-196
-51,8,51,21,-56,22,-120,-9,-84,-112,-65,-196
-45,8,51,15,-50,28,-126,-9,-84,-118,-71,-196
-45,8,51,15,-50,28,-126,-9,-84,-118,-65,-196
-45,8,57,9,-50,34,-126,-9,-90,-106,-59,-190
-45,8,57,9,-50,34,-126,-9,-90,-106,-59,-190
-45,8,57,9,-50,34,-126,-15,-90,-100,-59,-196
-45,14,63,9,-56,40,-126,-15,-84,-100,-59,-196
-45,8,57,9,-50,34,-114,-3,-78,-100,-59,-196
-45,14,63,9,-56,40,-114,-3,-78,-100,-59,-196
-45,8,57,9,-50,34,-108,2,-72,-94,-53,-196
-45,8,57,9,-50,34,-108,2,-72,-94,-53,-190
-51,14,69,9,-62,40,-108,2,-72,-94,-47,-184
-51,14,69,9,-62,40,-102,2,-66,-88,-41,-184
-57,20,81,9,-68,52,-102,2,-66,-88,-41,-178
-57,20,81,9,-68,52,-102,2,-66,-82,-41,-172
-57,32,93,3,-74,64,-102,2,-60,-82,-35,-172
-57,32,93,3,-74,64,-96,2,-60,-82,-35,-172
-63,38,105,3,-86,70,-96,2,-60,-82,-29,-166
-63,38,105,3,-86,70,-96,2,-60,-82,-29,-166
-57,44,105,-3,-80,76,-96,2,-54,-82,-35,-166
-57,44,105,-3,-80,76,-96,2,-54,-82,-35,-160
-51,44,99,-3,-74,70,-96,8,-54,-88,-41,-160
-51,50,105,-9,-80,76,-90,8,-54,-82,-41,-160
-51,44,99,-3,-74,70,-90,20,-54,-76,-35,-160
-51,44,99,-3,-74,70,-90,20,-54,-76,-35,-160
-51,38,93,-3,-74,64,-84,26,-54,-70,-35,-160
-45,38,87,-3,-68,64,-84,26,-54,-70,-35,-160
-51,32,87,3,-68,58,-84,20,-42,-64,-35,-154
-51,32,87,3,-68,58,-84,20,-42,-70,-35,-154
-57,32,93,3,-74,64,-84,14,-36,-70,-29,-154
-57,32,93,3,-74,64,-84,20,-36,-70,-23,-154
-57,38,99,3,-80,70,-84,26,-48,-76,-29,-154
-57,38,99,3,-80,70,-84,26,-48,-76,-29,-154
-57,44,105,-3,-80,76,-84,32,-54,-76,-35,-148
-57,44,105,-3,-80,76,-78,26,-60,-76,-35,-142
-51,44,99,-3,-74,70,-84,20,-60,-76,-41,-148
-51,44,99,-3,-74,70,-84,20,-60,-76,-47,-148
-45,44,93,-9,-68,70,-90,14,-60,-82,-47,-160
-45,38,87,-3,-68,64,-96,8,-60,-82,-53,-160
-51,38,93,-3,-74,64,-90,8,-66,-82,-53,-154
-51,38,93,-3,-74,64,-96,8,-66,-88,-53,-154
-57,38,99,3,-80,70,-90,8,-66,-88,-53,-154
-57,38,99,3,-80,70,-90,8,-72,-88,-59,-154
-57,32,93,3,-74,64,-84,14,-66,-94,-53,-154
-63,32,99,9,-80,64,-84,8,-72,-100,-53,-154
-63,32,99,9,-80,64,-78,14,-72,-100,-47,-154
-63,32,99,9,-80,64,-78,14,-78,-100,-59,-154
-57,26,87,9,-74,58,-78,8,-78,-100,-65,-154
-57,26,87,9,-74,58,-84,2,-78,-106,-59,-154
-51,26,81,3,-68,52,-84,2,-84,-106,-65,-160
-51,26,81,3,-68,52,-84,2,-84,-112,-65,-160
-51,20,75,9,-62,46,-78,2,-84,-112,-65,-166
-51,20,75,9,-62,46,-78,2,-90,-112,-65,-166
-57,8,69,15,-62,40,-72,2,-90,-118,-65,-172
-57,8,69,15,-62,40,-72,2,-90,-118,-65,-178
-63,8,75,21,-68,40,-78,2,-90,-118,-71,-172
-63,8,75,21,-68,40,-78,-3,-102,-130,-77,-172
-63,8,69,21,-68,34,-84,-3,-102,-130,-77,-172
-63,8,69,21,-68,34,-84,-3,-102,-130,-83,-172
-63,8,69,21,-68,34,-90,-3,-108,-130,-83,-178
-63,8,69,21,-68,34,-96,-9,-108,-130,-89,-178
-63,8,75,21,-68,40,-96,-9,-114,-142,-89,-184
-63,8,69,21,-68,34,-102,-15,-120,-142,-95,-184
-63,8,63,27,-68,28,-96,-9,-126,-142,-95,-190
-63,8,63,27,-68,28,-96,-9,-126,-142,-95,-190
-63,3,57,27,-62,22,-90,-9,-126,-148,-101,-190
-63,3,57,27,-62,22,-90,-9,-126,-148,-101,-190
-63,3,57,27,-62,22,-90,-15,-138,-154,-101,-190
-63,3,57,27,-62,22,-96,-15,-138,-154,-101,-190
-63,8,63,27,-68,28,-96,-21,-144,-160,-101,-190
-63,8,63,27,-68,28,-96,-21,-144,-160,-101,-190
-57,8,57,21,-62,28,-96,-27,-144,-160,-107,-190
-57,8,57,21,-62,28,-96,-27,-144,-160,-107,-202
-51,8,51,21,-56,22,-96,-21,-138,-166,-107,-202
-51,8,51,21,-56,22,-96,-21,-138,-166,-107,-202
-51,8,51,21,-56,22,-96,-27,-144,-166,-113,-202
-51,3,45,21,-50,16,-90,-27,-144,-166,-113,-202
-57,3,51,27,-56,22,-84,-39,-150,-166,-113,-196
-63,3,57,27,-62,22,-84,-39,-156,-166,-113,-196
-63,3,57,27,-62,22,-90,-39,-150,-172,-125,-196
-63,8,63,27,-68,28,-90,-39,-150,-172,-125,-196
-63,8,63,27,-68,28,-96,-39,-150,-178,-131,-196
-63,-9,45,33,-56,10,-96,-39,-150,-178,-131,-196
-63,-9,45,33,-56,10,-96,-45,-150,-178,-131,-202
-63,3,57,27,-62,22,-96,-51,-156,-178,-137,-208
-63,8,63,27,-68,28,-102,-57,-162,-178,-137,-214
-63,8,63,27,-68,28,-108,-63,-168,-178,-137,-214
-63,3,57,27,-62,22,-108,-57,-162,-178,-131,-208
-63,3,57,27,-62,22,-102,-57,-168,-178,-131,-214
-63,-3,51,33,-62,16,-96,-57,-162,-184,-131,-208
-63,-3,51,33,-62,16,-84,-57,-162,-184,-131,-208
-63,-3,51,33,-62,16,-84,-57,-162,-184,-125,-196
-69,-9,51,39,-62,16,-90,-63,-168,-184,-125,-202
-69,-3,57,33,-68,22,-90,-63,-168,-184,-125,-202
-69,-3,57,33,-68,22,-90,-63,-168,-184,-125,-202
-69,3,63,33,-68,28,-90,-63,-168,-184,-125,-202
-69,3,63,33,-68,28,-90,-63,-168,-184,-125,-202
-69,3,63,33,-68,28,-90,-69,-168,-184,-131,-208
-69,3,63,33,-68,28,-90,-75,-174,-184,-137,-208
-69,-3,57,33,-68,22,-90,-75,-174,-184,-143,-214
-69,-3,57,33,-68,22,-90,-75,-174,-190,-149,-214
-69,-3,57,33,-68,22,-90,-75,-174,-190,-149,-214
-69,-3,57,33,-68,22,-90,-75,-174,-190,-149,-214
-69,-3,57,33,-68,22,-90,-75,-180,-190,-149,-214
-69,-3,57,33,-68,22,-90,-75,-180,-190,-149,-214
-69,-9,51,39,-62,16,-90,-75,-174,-190,-149,-208
-69,-9,51,39,-62,16,-90,-75,-174,-190,-149,-208
-69,-15,45,39,-62,10,-84,-75,-168,-190,-149,-202
-69,-15,45,39,-62,10,-84,-75,-168,-190,-149,-202
-69,-15,45,39,-62,10,-84,-75,-174,-190,-143,-202
-69,-9,51,39,-62,16,-84,-75,-174,-196,-143,-202
-69,-3,57,33,-68,22,-84,-69,-180,-196,-137,-208
-69,3,63,33,-68,28,-84,-69,-180,-196,-137,-208
-63,-3,51,33,-62,16,-84,-69,-180,-196,-143,-214
-69,-3,57,33,-68,22,-84,-69,-186,-196,-143,-214
-63,-9,45,33,-56,10,-84,-69,-186,-196,-149,-220
-63,-9,45,33,-56,10,-84,-69,-186,-196,-149,-220
-63,-9,45,33,-56,10,-78,-69,-180,-190,-149,-220
-63,-9,45,33,-56,10,-78,-69,-180,-190,-149,-220
-63,-15,39,39,-56,4,-72,-69,-180,-184,-149,-220
-63,-9,45,33,-56,10,-72,-69,-180,-184,-149,-214
-63,-15,39,39,-56,4,-72,-69,-180,-190,-149,-214
-63,-9,45,33,-56,10,-66,-69,-180,-184,-137,-214
-69,-3,57,33,-68,22,-66,-57,-180,-190,-143,-214
-63,3,57,27,-62,22,-60,-57,-174,-190,-137,-202
-63,8,63,27,-68,28,-66,-51,-168,-184,-131,-202
-63,8,63,27,-68,28,-54,-51,-162,-178,-125,-196
-57,8,69,15,-62,40,-54,-51,-162,-178,-119,-196
-51,26,81,3,-68,52,-48,-39,-156,-166,-113,-190
-33,38,75,-9,-56,58,-42,-21,-144,-154,-107,-178
-33,38,75,-9,-56,58,-36,-15,-138,-148,-101,-172
-27,38,69,-15,-50,52,-30,-15,-138,-142,-101,-166
-27,56,87,-15,-56,70,-24,-15,-132,-136,-95,-166
-27,74,105,-15,-68,88,-18,-15,-126,-136,-89,-160
-27,86,117,-20,-74,100,-24,-15,-120,-130,-83,-154
-27,110,141,-32,-86,124,-18,-21,-120,-124,-77,-154
-27,116,147,-38,-86,130,-18,-21,-114,-124,-71,-148
-27,128,159,-44,-92,142,-18,-15,-114,-124,-65,-142
-21,140,165,-50,-92,154,-30,-9,-108,-118,-59,-130
-15,152,171,-62,-92,160,-30,-3,-102,-112,-53,-130
-9,164,177,-68,-92,172,-24,2,-96,-94,-41,-112
-9,188,201,-80,-104,196,-18,2,-84,-82,-17,-88
3,194,195,-92,-98,196,-12,2,-72,-70,-17,-82
3,200,201,-92,-98,202,-6,8,-66,-64,-11,-76
9,200,195,-98,-92,196,-12,14,-60,-58,-11,-70
15,194,183,-98,-86,190,-12,20,-54,-58,1,-70
20,200,183,-104,-80,190,-18,8,-60,-64,-5,-82
20,182,153,-98,-62,172,-36,2,-72,-70,-29,-88
20,170,141,-92,-56,160,-72,-21,-96,-94,-47,-94
20,134,105,-74,-38,124,-84,-39,-120,-100,-71,-118
20,104,81,-56,-26,94,-84,-51,-132,-118,-83,-136
20,86,69,-44,-26,76,-96,-63,-144,-130,-89,-142
20,80,63,-44,-20,70,-108,-87,-156,-142,-101,-148
20,56,33,-32,-2,46,-120,-99,-168,-142,-95,-154
15,44,33,-20,-8,40,-132,-99,-162,-142,-95,-148
-3,44,51,-15,-26,46,-132,-99,-150,-142,-95,-148
-3,44,51,-15,-26,46,-144,-99,-162,-142,-95,-148
9,44,39,-20,-14,40,-156,-111,-162,-130,-95,-142
15,38,27,-20,-8,34,-174,-111,-168,-130,-101,-142
15,32,21,-15,-2,28,-216,-129,-168,-148,-101,-142
20,8,-15,-15,15,-2,-252,-165,-180,-148,-107,-142
32,8,-32,-15,27,-7,-324,-213,-198,-148,-95,-142
56,8,-44,-32,51,-7,-402,-267,-210,-148,-83,-136
74,26,-44,-50,57,-2,-450,-297,-210,-130,-71,-112
104,50,-50,-74,75,-2,-486,-327,-198,-106,-47,-88
116,68,-44,-92,81,10,-522,-339,-192,-82,-23,-58
134,98,-32,-116,81,28,-552,-369,-198,-46,-5,-34
158,128,-26,-140,93,46,-564,-357,-180,-22,12,-10
176,140,-32,-158,105,52,-582,-345,-150,8,36,-5
194,176,-15,-182,105,76,-612,-345,-114,43,60,25
236,218,-15,-224,123,100,-660,-357,-72,91,120,67
260,254,-15,-254,135,124,-696,-369,-12,133,162,103
290,314,15,-302,135,172,-720,-357,35,199,216,145
332,356,15,-344,153,190,-732,-309,95,265,270,193
362,404,33,-380,159,226,-744,-249,149,319,318,235
392,452,51,-422,165,250,-744,-195,185,385,354,277
416,494,69,-452,171,280,-726,-129,227,427,402,319
428,548,117,-488,153,334,-696,-75,281,475,444,349
458,608,147,-530,153,382,-696,-45,353,553,498,403
482,674,189,-572,141,436,-702,-63,419,625,558,463
500,728,225,-608,135,478,-720,-159,449,649,594,481
494,770,273,-632,105,526,-744,-327,437,637,606,493
476,824,345,-650,57,586,-780,-561,377,619,606,511
476,854,375,-662,45,616,-786,-759,317,601,606,505
494,890,393,-692,45,646,-786,-849,287,601,612,517
500,950,447,-722,21,700,-792,-885,299,619,636,565
506,1010,501,-752,4,760,-846,-981,275,631,678,607
506,1088,573,-794,-26,832,-972,-1149,245,643,720,661
536,1172,627,-854,-38,904,-1134,-1305,197,673,768,727
572,1274,699,-926,-56,988,-1320,-1509,101,685,840,823
584,1418,825,-998,-116,1126,-1488,-1773,-24,709,942,943
602,1568,957,-1082,-176,1264,-1656,-1977,-90,775,1062,1075
662,1724,1059,-1196,-200,1396,-1866,-2151,-156,877,1212,1231
722,1856,1131,-1286,-206,1492,-2052,-2337,-252,955,1338,1381
758,1940,1173,-1346,-206,1558,-2190,-2450,-366,1009,1440,1501
800,1952,1143,-1376,-170,1546,-2292,-2492,-426,1069,1518,1597
842,1958,1113,-1400,-134,1540,-2346,-2480,-450,1123,1608,1687
884,1958,1071,-1424,-92,1516,-2400,-2492,-498,1153,1668,1765
938,1958,1017,-1448,-38,1492,-2441,-2492,-558,1189,1716,1843
956,1946,981,-1448,-8,1462,-2435,-2432,-558,1243,1794,1909
956,1892,933,-1424,15,1414,-2358,-2313,-504,1309,1842,1921
956,1814,855,-1382,45,1336,-2238,-2145,-414,1369,1854,1915
950,1736,783,-1340,75,1264,-2106,-1935,-294,1453,1878,1891
950,1652,699,-1298,123,1180,-1962,-1737,-210,1501,1872,1849
920,1496,573,-1208,171,1036,-1806,-1557,-174,1471,1788,1759
860,1262,399,-1058,231,832,-1632,-1377,-162,1351,1614,1579
758,986,225,-872,261,610,-1416,-1173,-168,1165,1362,1315
644,704,51,-674,291,382,-1182,-969,-222,865,1008,985
512,458,-56,-488,285,202,-960,-825,-318,529,678,673
362,278,-80,-320,225,100,-744,-693,-384,259,384,403
200,110,-86,-152,141,10,-540,-561,-438,20,108,139
62,-33,-104,-15,81,-67,-372,-447,-486,-202,-119,-106
9,-93,-98,39,45,-97,-282,-375,-498,-292,-209,-214
3,-93,-92,45,39,-91,-240,-309,-468,-268,-179,-196
-9,-99,-86,51,27,-91,-210,-249,-438,-238,-179,-202
-33,-129,-92,81,21,-109,-144,-183,-420,-250,-203,-232
-57,-135,-74,93,10,-103,-90,-141,-384,-238,-209,-232
-75,-135,-56,105,-8,-97,-48,-111,-354,-244,-221,-244
-99,-147,-44,123,-26,-97,-18,-105,-348,-268,-245,-262
-111,-141,-26,123,-38,-85,-1,-99,-336,-286,-257,-280
-105,-129,-20,117,-38,-73,-1,-69,-330,-298,-263,-286
-117,-141,-20,129,-44,-79,23,-39,-318,-298,-269,-304
-111,-171,-56,141,-26,-115,23,-15,-306,-298,-269,-316
-111,-183,-68,147,-20,-127,35,2,-306,-304,-269,-322
-117,-195,-74,153,-20,-133,47,2,-306,-310,-275,-322
-123,-201,-74,159,-20,-139,53,2,-306,-310,-281,-328
-123,-201,-74,159,-20,-139,65,8,-300,-322,-287,-334
-123,-195,-68,159,-26,-133,77,8,-300,-328,-299,-346
-135,-195,-56,165,-38,-127,83,14,-288,-328,-305,-346
-135,-189,-50,159,-38,-121,107,20,-282,-328,-311,-346
-135,-189,-50,159,-38,-121,113,26,-276,-328,-317,-346
-141,-195,-50,165,-44,-121,113,50,-258,-328,-311,-346
-141,-195,-50,165,-44,-121,125,62,-252,-322,-305,-346
-147,-201,-50,171,-44,-127,131,80,-234,-322,-299,-346
-147,-201,-50,171,-44,-127,131,92,-234,-322,-287,-346
-147,-207,-56,177,-44,-133,137,92,-240,-322,-293,-346
-147,-207,-56,177,-44,-133,143,98,-240,-322,-293,-346
-147,-207,-56,177,-44,-133,155,98,-240,-322,-299,-346
-147,-207,-56,177,-44,-133,161,104,-240,-322,-305,-346
-147,-207,-56,177,-44,-133,167,110,-234,-322,-299,-352
-147,-207,-56,177,-44,-133,179,116,-228,-322,-299,-352
-147,-201,-50,171,-44,-127,185,122,-216,-316,-293,-346
-147,-201,-50,171,-44,-127,191,134,-216,-316,-287,-346
-141,-201,-56,171,-38,-127,191,140,-216,-310,-287,-352
-141,-201,-56,171,-38,-127,197,158,-204,-304,-287,-352
-135,-201,-62,165,-32,-133,191,158,-204,-298,-287,-352
-135,-201,-62,165,-32,-133,197,164,-204,-298,-287,-352
-147,-201,-50,171,-44,-127,209,170,-198,-298,-287,-352
-147,-201,-50,171,-44,-127,215,188,-192,-292,-287,-352
-153,-201,-44,177,-50,-121,221,188,-186,-292,-287,-346
-153,-195,-38,171,-56,-115,227,206,-180,-292,-287,-346
-153,-201,-44,177,-50,-121,239,218,-174,-286,-287,-346
-153,-201,-44,177,-50,-121,239,230,-168,-286,-287,-346
-153,-207,-50,177,-50,-127,251,242,-156,-286,-281,-346
-153,-207,-50,177,-50,-127,257,248,-150,-280,-281,-346
-153,-195,-38,171,-56,-115,263,260,-138,-280,-281,-346
-153,-195,-38,171,-56,-115,269,272,-132,-268,-281,-346
-153,-189,-32,171,-56,-109,287,284,-126,-262,-281,-346
-153,-189,-32,171,-56,-109,293,302,-108,-262,-281,-346
-159,-195,-32,177,-62,-115,305,320,-102,-256,-281,-346
-159,-195,-32,177,-62,-115,311,344,-96,-250,-275,-340
-159,-195,-32,177,-62,-115,329,362,-78,-250,-275,-340
-159,-195,-32,177,-62,-115,341,380,-66,-250,-269,-346
-159,-201,-38,177,-56,-121,359,398,-60,-238,-269,-346
-159,-201,-38,177,-56,-121,371,416,-48,-232,-269,-346
-159,-207,-44,183,-56,-127,389,446,-42,-226,-269,-340
-159,-207,-44,183,-56,-127,407,458,-30,-220,-269,-340
-159,-207,-44,183,-56,-127,425,488,-12,-220,-275,-346
-159,-207,-44,183,-56,-127,437,506,0,-220,-275,-346
-159,-201,-38,177,-56,-121,455,530,5,-214,-275,-358
-159,-201,-38,177,-56,-121,473,566,23,-208,-275,-358
-165,-207,-38,183,-62,-121,485,596,47,-202,-275,-352
-165,-213,-44,189,-56,-127,509,626,59,-184,-275,-352
-165,-219,-50,189,-56,-133,527,656,77,-172,-275,-352
-165,-225,-56,195,-50,-139,545,686,95,-160,-269,-352
-165,-231,-62,195,-50,-145,569,716,101,-154,-269,-358
-165,-231,-62,195,-50,-145,587,740,113,-148,-269,-358
-165,-231,-68,201,-44,-151,605,770,137,-148,-269,-364
-171,-231,-62,201,-50,-151,623,800,155,-148,-269,-370
-165,-231,-62,195,-50,-145,647,836,173,-136,-269,-370
-165,-225,-56,195,-50,-139,665,866,191,-130,-269,-370
-159,-225,-62,189,-44,-145,689,902,209,-112,-257,-370
-159,-219,-56,189,-50,-139,701,926,227,-100,-251,-364
-159,-219,-56,189,-50,-139,713,950,245,-94,-245,-358
-159,-213,-50,183,-50,-133,725,974,251,-70,-239,-358
-159,-213,-50,183,-50,-133,737,986,275,-52,-227,-358
-159,-213,-50,183,-50,-133,749,1004,287,-40,-227,-346
-147,-201,-50,171,-44,-127,755,1010,299,-34,-221,-340
-147,-195,-44,171,-50,-121,755,1022,311,-28,-215,-340
-141,-189,-44,165,-44,-115,761,1028,317,-28,-203,-334
-129,-177,-44,153,-38,-109,755,1028,323,-22,-197,-334
-129,-177,-44,153,-38,-109,761,1034,335,-10,-185,-328
-123,-177,-50,147,-32,-115,761,1040,341,-4,-185,-322
-123,-183,-56,153,-32,-121,761,1040,353,8,-173,-316
-123,-177,-50,147,-32,-115,755,1040,353,14,-167,-310
-117,-171,-50,141,-32,-109,755,1034,353,26,-149,-292
-105,-153,-44,129,-26,-97,749,1028,353,37,-131,-280
-93,-141,-44,117,-20,-91,737,1010,359,37,-113,-268
-87,-141,-50,111,-14,-97,731,992,359,43,-101,-250
-87,-135,-44,111,-20,-91,719,974,347,43,-101,-250
-87,-135,-44,111,-20,-91,701,962,347,43,-107,-244
-87,-135,-44,111,-20,-91,677,932,341,43,-101,-244
-81,-123,-38,99,-20,-79,659,914,341,43,-107,-244
-69,-117,-44,93,-8,-79,653,890,329,49,-107,-238
-63,-117,-50,87,-2,-85,635,866,323,49,-101,-238
-57,-117,-56,87,4,-85,623,848,299,55,-95,-244
-39,-105,-62,69,15,-85,605,812,293,55,-95,-238
-39,-99,-56,69,10,-79,569,776,281,49,-89,-220
-45,-93,-44,69,4,-67,551,740,269,49,-89,-214
-45,-87,-38,63,-2,-61,521,698,251,43,-83,-196
-45,-81,-32,63,-2,-55,503,668,245,37,-83,-184
-39,-69,-26,51,-2,-49,485,626,227,37,-89,-190
-39,-63,-20,51,-8,-43,467,596,221,37,-89,-184
-27,-51,-20,39,-2,-37,437,554,203,37,-95,-184
-27,-45,-15,33,-2,-31,419,512,185,32,-89,-178
-27,-39,-15,33,-8,-25,389,482,173,20,-89,-178
-27,-33,-15,27,-8,-19,365,446,155,14,-89,-178
-15,-33,-15,21,4,-25,341,410,137,2,-89,-172
-15,-21,-15,15,-2,-13,323,374,131,-4,-89,-172
-21,-21,-9,21,-8,-7,305,338,113,-4,-89,-166
-21,-27,-15,21,-8,-13,281,314,101,-16,-89,-160
-21,-27,-15,21,-8,-13,263,284,83,-16,-89,-148
-21,-27,-15,21,-8,-13,251,254,71,-22,-89,-148
-27,-15,3,21,-20,-2,233,230,53,-28,-89,-148
-27,-15,3,21,-20,-2,221,212,41,-28,-89,-148
-33,-9,15,21,-26,-2,215,188,29,-34,-89,-142
-39,-9,21,21,-32,-2,197,164,17,-34,-89,-142
-33,-15,9,21,-26,-2,179,140,5,-46,-95,-148
-33,-9,15,21,-26,-2,173,116,-6,-58,-95,-142
-27,-15,3,21,-20,-2,161,92,-24,-70,-101,-148
-27,-15,3,21,-20,-2,149,68,-30,-76,-101,-142
-33,-9,15,21,-26,-2,143,56,-36,-82,-101,-148
-39,-9,21,21,-32,-2,143,50,-42,-88,-101,-148
-39,-9,21,21,-32,-2,131,38,-54,-94,-101,-154
-39,-9,21,21,-32,-2,125,26,-66,-94,-101,-154
-39,-9,21,21,-32,-2,119,32,-66,-94,-101,-154
-39,-9,21,21,-32,-2,113,20,-66,-94,-101,-154
-39,-15,15,27,-32,-2,107,20,-66,-94,-101,-154
-45,-15,21,27,-38,-2,101,14,-72,-100,-101,-154
-45,-15,21,27,-38,-2,101,8,-78,-100,-107,-160
-45,-15,21,27,-38,-2,95,2,-78,-100,-107,-160
-45,-9,27,27,-38,4,89,2,-78,-106,-113,-160
-45,-9,27,27,-38,4,83,2,-84,-106,-113,-166
-51,-9,33,27,-44,4,77,2,-90,-118,-113,-166
-51,-3,39,27,-50,10,77,2,-90,-118,-113,-160
-57,-3,45,27,-56,16,71,2,-102,-124,-119,-160
-57,-3,45,27,-56,16,71,-3,-102,-124,-119,-160
-57,-9,39,33,-50,10,65,-3,-102,-118,-125,-160
-57,-9,39,33,-50,10,65,-3,-102,-118,-125,-160
-57,-15,33,33,-50,4,65,-9,-108,-118,-119,-160
-57,-15,33,33,-50,4,59,-9,-108,-118,-119,-160
-57,-15,33,33,-50,4,59,-9,-108,-118,-119,-160
-57,-15,33,33,-50,4,59,-9,-108,-118,-119,-160
-57,-9,39,33,-50,10,59,-9,-114,-112,-119,-154
-57,-9,39,33,-50,10,59,-9,-114,-112,-119,-154
-57,-9,39,33,-50,10,53,-15,-114,-112,-113,-154
-57,-9,39,33,-50,10,53,-15,-114,-106,-113,-148
-57,-9,39,33,-50,10,53,-21,-114,-106,-107,-148
-57,-9,39,33,-50,10,53,-27,-114,-106,-107,-148
-57,-9,39,33,-50,10,53,-27,-114,-106,-107,-148
-57,-9,39,33,-50,10,53,-21,-108,-106,-107,-148
-57,-9,39,33,-50,10,53,-21,-108,-106,-107,-148
-57,-9,39,33,-50,10,53,-21,-108,-106,-101,-148
-57,-3,45,27,-56,16,53,-15,-114,-106,-101,-142
-57,-3,45,27,-56,16,53,-15,-114,-106,-101,-142
-57,-3,45,27,-56,16,53,-15,-114,-112,-107,-148
-57,3,51,27,-56,22,53,-15,-108,-112,-107,-148
-51,-3,39,27,-50,10,53,-15,-102,-112,-107,-154
-51,3,45,21,-50,16,53,-15,-102,-112,-107,-154
-45,-3,33,21,-44,10,47,-21,-96,-106,-101,-160
-45,-3,33,21,-44,10,47,-21,-96,-106,-101,-154
-51,3,45,21,-50,16,47,-15,-102,-106,-95,-148
-51,3,45,21,-50,16,53,-15,-96,-100,-89,-148
-57,8,57,21,-62,28,53,-15,-102,-100,-89,-142
-57,8,57,21,-62,28,53,-9,-102,-94,-89,-136
-51,8,57,15,-56,28,53,-9,-102,-94,-95,-136
-51,8,57,15,-56,28,59,-9,-102,-94,-95,-136
-51,8,57,15,-56,28,59,-3,-108,-94,-101,-130
-51,8,57,15,-56,28,59,-3,-108,-94,-101,-130
-51,8,63,15,-56,34,65,-3,-96,-88,-95,-130
-51,8,63,15,-56,34,65,-3,-96,-88,-95,-124
-51,8,63,15,-56,34,71,-3,-90,-88,-89,-124
-51,14,69,9,-62,40,77,-3,-90,-82,-89,-124
-51,14,69,9,-62,40,77,2,-90,-82,-83,-124
-51,14,69,9,-62,40,77,2,-90,-82,-83,-124
-51,14,69,9,-62,40,83,2,-90,-82,-83,-124
-45,14,63,9,-56,40,83,2,-90,-82,-83,-124
-51,8,63,15,-56,34,77,2,-78,-82,-89,-124
-51,8,63,15,-56,34,77,2,-78,-88,-89,-124
-57,8,69,15,-62,40,71,2,-72,-94,-89,-130
-57,8,69,15,-62,40,71,8,-72,-94,-83,-130
-57,8,69,15,-62,40,71,8,-78,-94,-83,-130
-57,8,69,15,-62,40,71,8,-78,-88,-83,-130
-57,8,69,15,-62,40,71,8,-78,-82,-83,-124
-57,8,69,15,-62,40,77,2,-84,-76,-83,-118
-57,8,69,15,-62,40,77,2,-84,-82,-89,-124
-57,8,69,15,-62,40,77,2,-84,-82,-95,-124
-57,8,69,15,-62,40,77,2,-84,-94,-95,-136
-57,8,63,21,-62,34,71,2,-84,-94,-101,-136
-57,8,63,21,-62,34,77,2,-90,-88,-95,-130
-57,8,63,21,-62,34,71,2,-90,-94,-95,-130
-57,8,63,21,-62,34,77,2,-90,-88,-89,-130
-57,8,63,21,-62,34,77,2,-96,-88,-95,-130
-63,8,69,21,-68,34,77,2,-96,-94,-101,-130
-69,8,75,27,-74,40,77,2,-102,-100,-101,-130
-75,8,87,27,-80,46,77,2,-108,-100,-107,-130
-75,8,87,27,-80,46,77,2,-114,-100,-119,-130
-69,8,69,27,-74,34,83,2,-108,-100,-113,-130
-69,8,69,27,-74,34,77,2,-108,-106,-107,-130
-63,3,57,27,-62,22,83,2,-108,-106,-101,-136
-63,3,57,27,-62,22,83,2,-108,-112,-101,-136
-63,8,63,27,-68,28,77,2,-108,-112,-95,-136
-63,8,63,27,-68,28,77,2,-114,-112,-95,-136
-69,8,69,27,-74,34,71,2,-114,-118,-89,-136
-69,8,69,27,-74,34,71,2,-114,-118,-89,-142
-69,8,69,27,-74,34,71,2,-114,-112,-101,-142
-69,8,69,27,-74,34,71,-3,-126,-124,-107,-142
-63,3,57,27,-62,22,71,-3,-126,-118,-113,-148
-63,3,57,27,-62,22,71,-3,-126,-118,-119,-148
-63,-3,51,33,-62,16,65,-3,-126,-118,-113,-148
-63,-3,51,33,-62,16,59,-9,-126,-118,-119,-148
-63,-3,51,33,-62,16,59,-9,-126,-130,-113,-148
-63,-9,45,33,-56,10,53,-15,-132,-130,-119,-148
-63,-9,45,33,-56,10,53,-15,-138,-130,-119,-154
-63,-9,45,33,-56,10,53,-15,-138,-130,-119,-154
-63,-9,45,33,-56,10,53,-21,-138,-136,-125,-154
-63,-9,45,33,-56,10,53,-21,-138,-136,-125,-154
-63,-15,39,39,-56,4,53,-21,-132,-136,-125,-154
-63,-27,27,45,-50,-2,47,-21,-144,-136,-125,-154
-63,-27,27,45,-50,-2,47,-33,-156,-148,-137,-154
-63,-15,39,39,-56,4,47,-33,-156,-148,-137,-166
-57,-9,39,33,-50,10,53,-39,-156,-148,-125,-166
-63,-15,39,39,-56,4,47,-39,-156,-154,-131,-172
-63,-15,39,39,-56,4,47,-39,-156,-154,-137,-172
-69,-21,39,45,-56,4,41,-39,-156,-160,-143,-178
-69,-21,39,45,-56,4,41,-39,-156,-160,-149,-178
-69,-21,39,45,-56,4,41,-45,-156,-160,-149,-178
-69,-21,39,45,-56,4,41,-51,-162,-160,-155,-178
-69,-27,33,45,-56,-2,41,-51,-162,-160,-155,-178
-69,-27,33,45,-56,-2,41,-51,-162,-166,-161,-178
-63,-27,27,45,-50,-2,47,-51,-162,-166,-155,-172
-63,-27,27,45,-50,-2,47,-51,-162,-166,-149,-172
-57,-27,21,39,-44,-2,53,-51,-168,-166,-143,-166
-57,-27,21,39,-44,-2,53,-51,-168,-166,-137,-166
-63,-27,27,45,-50,-2,47,-51,-168,-166,-143,-172
-63,-27,27,45,-50,-2,47,-51,-168,-166,-143,-172
-69,-27,33,45,-56,-2,47,-51,-168,-166,-149,-178
-69,-27,33,45,-56,-2,47,-51,-168,-166,-149,-178
-69,-33,27,51,-50,-2,41,-57,-174,-166,-149,-178
-69,-33,27,51,-50,-2,41,-57,-174,-172,-149,-178
-69,-33,27,51,-50,-2,35,-57,-180,-172,-149,-184
-69,-33,27,51,-50,-2,35,-57,-180,-172,-149,-184
-69,-39,21,51,-50,-2,35,-63,-174,-178,-155,-184
-75,-39,27,57,-56,-2,35,-63,-180,-178,-155,-184
-75,-45,21,57,-50,-7,35,-69,-174,-184,-161,-184
-75,-45,21,57,-50,-7,35,-69,-174,-184,-161,-184
-69,-33,27,51,-50,-2,35,-63,-168,-178,-161,-184
-69,-33,27,51,-50,-2,35,-63,-168,-178,-161,-184
-63,-27,27,45,-50,-2,35,-57,-168,-172,-161,-184
-63,-21,33,39,-50,-2,35,-57,-168,-172,-161,-178
-51,-15,27,33,-44,-2,41,-51,-156,-160,-149,-166
-51,-3,39,27,-50,10,53,-45,-150,-148,-131,-160
-45,8,51,15,-50,28,59,-27,-138,-136,-125,-148
-39,14,57,3,-50,34,71,-21,-126,-130,-113,-130
-39,32,75,-3,-56,52,71,-3,-108,-118,-101,-124
-39,38,81,-9,-62,58,83,-3,-102,-112,-95,-118
-33,62,99,-15,-68,82,89,2,-90,-106,-83,-112
-27,86,117,-20,-74,100,95,8,-84,-94,-77,-106
-21,98,123,-32,-74,112,101,20,-78,-88,-77,-106
-27,92,123,-26,-74,106,107,20,-78,-82,-71,-100
-33,92,129,-20,-80,112,113,14,-84,-82,-77,-106
-39,104,147,-26,-92,124,119,8,-84,-76,-71,-106
-39,110,153,-26,-98,130,113,14,-78,-76,-71,-100
-39,116,159,-32,-98,136,107,14,-72,-70,-65,-94
-39,128,171,-38,-104,148,101,14,-72,-64,-65,-94
-39,128,171,-38,-104,148,101,14,-66,-64,-59,-88
-39,140,183,-44,-110,160,89,8,-66,-70,-53,-82
-33,152,189,-50,-110,172,71,14,-60,-64,-47,-70
-27,164,195,-62,-110,178,59,8,-54,-64,-41,-70
-21,176,201,-68,-110,190,59,14,-48,-46,-29,-52
-15,188,207,-80,-110,196,47,2,-54,-46,-17,-46
-3,182,189,-80,-98,184,41,2,-54,-46,-17,-46
3,176,177,-80,-86,178,29,-3,-66,-52,-23,-58
9,164,159,-80,-74,160,11,-9,-72,-58,-23,-58
20,158,135,-86,-56,148,-1,-3,-66,-46,-23,-58
20,140,123,-74,-50,130,5,-3,-60,-52,-17,-58
20,122,105,-62,-44,112,11,-3,-72,-58,-17,-52
20,122,105,-62,-44,112,11,-9,-72,-58,-23,-58
9,110,105,-50,-50,106,11,-15,-84,-76,-35,-70
15,104,93,-50,-38,100,-1,-15,-96,-82,-47,-64
9,86,81,-38,-38,82,-1,-39,-108,-94,-65,-82
-3,44,51,-15,-26,46,-12,-63,-132,-118,-77,-100
-21,20,45,-9,-32,34,-36,-75,-156,-142,-95,-118
-21,8,33,-3,-26,22,-48,-87,-150,-142,-107,-124
-27,8,27,9,-32,10,-60,-87,-150,-142,-107,-124
-39,-3,27,21,-38,4,-72,-99,-162,-154,-119,-136
-39,-3,27,21,-38,4,-108,-123,-174,-154,-119,-142
-21,-21,-9,21,-8,-7,-126,-135,-180,-142,-113,-142
-9,-27,-15,15,4,-19,-144,-141,-180,-136,-113,-130
3,-39,-38,15,15,-37,-186,-153,-180,-136,-107,-130
20,-51,-80,9,45,-61,-240,-201,-198,-136,-107,-142
44,-51,-104,-3,69,-73,-318,-255,-210,-136,-95,-136
62,-21,-92,-15,75,-55,-390,-309,-210,-130,-83,-112
80,3,-86,-32,81,-37,-432,-339,-198,-94,-71,-88
104,20,-80,-62,93,-19,-468,-363,-192,-70,-35,-46
122,38,-80,-80,99,-13,-504,-381,-186,-58,-5,-22
146,68,-74,-104,111,-2,-528,-381,-168,-22,12,1
164,92,-68,-128,117,10,-522,-345,-126,20,36,25
194,128,-62,-158,129,28,-552,-345,-90,55,84,49
224,194,-26,-206,123,82,-588,-345,-48,91,132,91
260,248,-15,-254,141,112,-624,-357,0,157,174,127
290,302,3,-296,141,160,-660,-357,47,223,228,181
320,344,15,-332,147,184,-678,-321,95,283,270,217
362,380,9,-368,171,202,-702,-273,149,331,318,253
392,404,3,-398,189,208,-702,-219,185,385,354,289
404,458,45,-428,177,250,-678,-153,239,427,390,319
416,500,81,-458,165,292,-648,-75,293,487,444,361
446,572,123,-506,159,352,-636,-33,365,565,498,415
482,650,165,-560,153,412,-642,-27,443,637,558,475
500,716,213,-602,141,466,-648,-99,485,673,606,511
494,770,273,-632,105,526,-678,-267,473,673,618,529
488,800,309,-644,81,556,-702,-525,413,631,618,535
476,818,339,-644,63,580,-708,-747,341,601,606,529
494,842,345,-668,69,598,-708,-825,323,613,624,553
506,902,387,-704,57,646,-726,-885,323,643,660,589
506,980,471,-740,15,730,-798,-1005,299,655,690,643
518,1064,537,-788,-2,802,-936,-1173,257,667,732,697
536,1160,615,-848,-32,892,-1122,-1329,221,685,780,757
572,1262,687,-920,-50,976,-1308,-1533,113,709,864,847
572,1382,801,-980,-110,1096,-1464,-1797,-12,733,954,967
614,1544,927,-1076,-152,1234,-1644,-2001,-102,799,1074,1111
662,1706,1035,-1184,-188,1372,-1854,-2193,-168,877,1224,1267
710,1820,1107,-1262,-200,1462,-2028,-2373,-276,943,1350,1405
758,1868,1101,-1310,-170,1486,-2166,-2498,-378,991,1452,1525
812,1892,1071,-1352,-128,1480,-2244,-2516,-426,1057,1530,1633
842,1892,1041,-1364,-98,1468,-2298,-2504,-450,1135,1620,1717
884,1892,999,-1388,-56,1450,-2364,-2504,-498,1165,1668,1777
926,1892,957,-1406,-14,1432,-2412,-2492,-546,1201,1728,1843
956,1886,927,-1418,15,1408,-2388,-2415,-546,1255,1782,1909
944,1820,873,-1382,27,1348,-2298,-2277,-492,1297,1806,1909
944,1742,795,-1340,69,1270,-2172,-2097,-402,1357,1818,1891
950,1658,705,-1298,117,1186,-2022,-1887,-270,1429,1842,1867
914,1532,615,-1226,147,1078,-1884,-1701,-198,1465,1824,1825
872,1370,489,-1118,189,934,-1746,-1545,-174,1423,1728,1723
824,1160,327,-986,249,742,-1572,-1365,-174,1291,1542,1531
728,896,165,-806,273,532,-1356,-1161,-168,1093,1266,1243
620,620,-9,-620,309,310,-1122,-963,-234,781,930,919
494,374,-116,-434,303,130,-900,-801,-330,475,594,613
326,176,-152,-254,243,10,-702,-657,-396,199,300,331
164,8,-158,-80,159,-67,-486,-525,-450,-52,24,55
38,-93,-140,21,87,-115,-312,-411,-498,-250,-167,-142
-3,-129,-122,63,51,-127,-240,-339,-486,-304,-209,-202
-9,-153,-140,81,57,-145,-210,-285,-456,-268,-179,-184
-21,-171,-146,93,51,-157,-162,-231,-426,-250,-179,-190
-45,-165,-116,105,27,-139,-120,-183,-396,-250,-203,-208
-69,-195,-122,129,15,-157,-78,-141,-360,-238,-209,-220
-87,-207,-116,147,15,-163,-48,-111,-342,-232,-227,-244
-99,-195,-92,147,-2,-145,-18,-93,-336,-256,-245,-262
-111,-189,-74,147,-14,-133,-1,-75,-324,-274,-245,-268
-117,-201,-80,159,-14,-139,11,-57,-306,-286,-263,-286
-117,-213,-92,165,-8,-151,35,-27,-294,-286,-269,-292
-123,-219,-92,171,-14,-157,47,-3,-294,-298,-257,-304
-123,-231,-104,177,-8,-169,53,2,-294,-304,-263,-316
-129,-237,-110,183,-8,-175,65,8,-294,-310,-269,-316
-135,-243,-110,189,-8,-181,65,2,-294,-310,-281,-328
-135,-243,-110,189,-8,-181,77,8,-288,-322,-287,-334
-135,-249,-116,195,-8,-187,83,8,-288,-328,-293,-340
-147,-249,-104,201,-20,-181,89,14,-276,-328,-293,-340
-147,-255,-110,201,-14,-187,107,20,-270,-328,-293,-334
-147,-255,-110,201,-14,-187,113,26,-264,-328,-293,-334
-153,-255,-104,207,-20,-181,113,50,-252,-328,-299,-340
-153,-255,-104,207,-20,-181,125,62,-246,-322,-299,-340
-159,-255,-98,207,-26,-181,131,80,-234,-322,-305,-346
-159,-255,-98,207,-26,-181,131,92,-234,-322,-299,-346
-153,-255,-104,207,-20,-181,131,92,-234,-322,-299,-346
-153,-255,-104,207,-20,-181,137,98,-234,-322,-299,-346
-147,-249,-104,201,-20,-181,143,98,-228,-322,-299,-346
-147,-249,-104,201,-20,-181,149,104,-222,-322,-305,-346
-147,-249,-104,201,-20,-181,155,110,-222,-322,-299,-352
-147,-249,-104,201,-20,-181,167,116,-210,-322,-299,-352
-147,-243,-98,195,-20,-175,173,122,-204,-316,-293,-346
-147,-243,-98,195,-20,-175,179,134,-204,-316,-287,-346
-147,-243,-98,195,-20,-175,185,140,-198,-304,-293,-346
-147,-243,-98,195,-20,-175,191,158,-186,-298,-293,-346
-147,-243,-98,195,-20,-175,191,158,-180,-286,-299,-340
-147,-243,-98,195,-20,-175,197,164,-180,-286,-299,-340
-153,-237,-86,195,-32,-163,203,170,-174,-286,-293,-346
-153,-237,-86,195,-32,-163,209,188,-168,-280,-293,-346
-153,-231,-80,195,-32,-157,209,188,-162,-280,-287,-346
-153,-231,-74,189,-38,-151,215,206,-156,-280,-287,-346
-153,-231,-74,189,-38,-151,227,218,-150,-280,-287,-340
-153,-231,-74,189,-38,-151,233,230,-144,-280,-287,-340
-153,-231,-74,189,-38,-151,239,242,-132,-286,-281,-334
-153,-231,-74,189,-38,-151,245,248,-126,-280,-281,-334
-153,-225,-68,189,-38,-145,251,266,-108,-274,-281,-334
-153,-225,-68,189,-38,-145,257,278,-102,-262,-281,-334
-153,-225,-68,189,-38,-145,275,296,-90,-250,-281,-334
-153,-225,-68,189,-38,-145,281,314,-72,-250,-281,-334
-159,-225,-62,189,-44,-145,293,326,-66,-244,-275,-334
-159,-225,-62,189,-44,-145,299,350,-60,-238,-269,-328
-159,-219,-56,189,-50,-139,317,362,-42,-238,-263,-328
-159,-219,-56,189,-50,-139,329,380,-30,-238,-257,-334
-165,-219,-50,189,-56,-133,341,404,-24,-226,-257,-340
-165,-219,-50,189,-56,-133,353,422,-12,-220,-257,-340
-171,-219,-44,195,-62,-133,365,458,-6,-214,-257,-340
-171,-219,-44,195,-62,-133,383,470,5,-208,-257,-340
-171,-231,-56,201,-56,-145,401,494,11,-208,-263,-340
-171,-231,-62,201,-50,-151,413,518,23,-208,-263,-340
-171,-237,-68,207,-50,-157,431,542,41,-202,-263,-346
-171,-243,-74,207,-44,-163,449,578,59,-202,-263,-346
-177,-237,-62,207,-56,-151,467,608,83,-190,-263,-346
-177,-237,-62,207,-56,-151,485,638,95,-178,-263,-346
-177,-231,-56,207,-56,-145,503,668,113,-166,-263,-352
-177,-231,-56,207,-56,-145,521,698,131,-160,-257,-352
-177,-231,-56,207,-56,-145,545,734,137,-154,-263,-358
-177,-231,-56,207,-56,-145,563,758,149,-142,-263,-358
-177,-231,-56,207,-56,-145,581,794,173,-142,-269,-364
-183,-231,-50,207,-62,-145,599,824,191,-136,-269,-370
-177,-237,-62,207,-56,-151,623,854,209,-130,-269,-370
-177,-237,-62,207,-56,-151,641,884,227,-124,-269,-370
-171,-249,-80,213,-44,-169,665,914,245,-112,-257,-370
-171,-249,-80,213,-44,-169,677,938,257,-100,-251,-364
-171,-243,-74,207,-44,-163,689,962,281,-94,-251,-358
-171,-237,-68,207,-50,-157,701,980,293,-70,-245,-358
-171,-231,-62,201,-50,-151,719,998,317,-52,-239,-358
-171,-231,-62,201,-50,-151,731,1016,335,-40,-233,-346
-165,-225,-56,195,-50,-139,731,1022,341,-28,-227,-340
-165,-219,-50,189,-56,-133,731,1034,353,-22,-215,-340
-165,-213,-44,189,-56,-127,731,1040,353,-16,-197,-334
-153,-201,-44,177,-50,-121,725,1040,359,-10,-185,-334
-147,-201,-50,171,-44,-127,725,1046,371,-4,-179,-322
-141,-201,-56,171,-38,-127,725,1046,377,2,-179,-316
-135,-207,-68,171,-32,-139,719,1046,389,8,-173,-304
-135,-201,-62,165,-32,-133,713,1040,389,14,-167,-298
-135,-195,-56,165,-38,-127,707,1028,389,26,-155,-286
-123,-171,-44,147,-38,-109,701,1022,389,32,-143,-280
-117,-159,-38,135,-38,-97,683,998,395,37,-131,-274
-111,-153,-38,129,-32,-97,677,980,395,37,-125,-262
-105,-147,-38,123,-32,-91,659,962,377,37,-119,-256
-105,-147,-38,123,-32,-91,641,944,377,37,-119,-244
-99,-147,-44,123,-26,-97,617,908,365,37,-107,-244
-93,-135,-38,111,-26,-85,599,890,365,37,-107,-244
-87,-135,-44,111,-20,-91,587,860,353,37,-113,-232
-87,-135,-44,111,-20,-91,569,836,341,37,-107,-232
-87,-141,-50,111,-14,-97,551,812,317,37,-107,-232
-75,-129,-50,99,-8,-91,533,776,305,37,-107,-226
-69,-123,-50,93,-8,-85,497,740,293,37,-107,-214
-69,-117,-44,93,-8,-79,485,704,281,37,-107,-208
-63,-111,-44,87,-8,-79,455,656,263,32,-107,-196
-57,-105,-44,81,-2,-73,437,620,251,20,-107,-184
-57,-93,-32,75,-8,-61,407,578,233,8,-107,-184
-57,-87,-26,69,-14,-55,389,548,227,8,-107,-178
-51,-75,-20,63,-14,-49,353,506,203,2,-107,-172
-51,-69,-15,57,-14,-43,335,470,185,-4,-101,-166
-51,-63,-15,57,-20,-37,305,428,173,-10,-107,-166
-51,-57,-15,51,-20,-31,281,386,155,-16,-107,-166
-39,-57,-15,45,-8,-37,257,344,137,-22,-113,-160
-39,-45,-15,39,-14,-25,239,302,131,-28,-113,-160
-45,-39,-3,39,-26,-13,221,266,113,-34,-113,-160
-45,-39,-3,39,-26,-13,197,242,101,-46,-113,-154
-45,-33,3,39,-26,-7,173,218,83,-52,-113,-148
-45,-27,9,33,-32,-2,161,188,71,-58,-113,-148
-45,-27,9,33,-32,-2,143,164,53,-64,-113,-154
-45,-27,9,33,-32,-2,131,146,41,-64,-113,-154
-45,-33,3,39,-26,-7,131,128,29,-70,-113,-154
-51,-33,9,39,-32,-7,113,104,17,-70,-113,-154
-57,-33,15,45,-38,-2,101,86,5,-76,-107,-148
-57,-27,21,39,-44,-2,95,68,5,-82,-107,-142
-63,-27,27,45,-50,-2,89,50,5,-88,-101,-136
-63,-27,27,45,-50,-2,77,32,5,-88,-101,-130
-63,-15,39,39,-56,4,65,26,-6,-100,-107,-136
-69,-15,45,39,-62,10,65,20,-12,-106,-107,-136
-63,-9,45,33,-56,10,47,14,-30,-118,-113,-142
-63,-9,45,33,-56,10,41,2,-42,-118,-113,-142
-63,-9,45,33,-56,10,35,2,-48,-124,-119,-148
-63,-9,45,33,-56,10,29,-3,-48,-124,-119,-148
-63,-15,39,39,-56,4,23,-15,-54,-130,-125,-154
-69,-15,45,39,-62,10,17,-21,-60,-136,-125,-154
-69,-21,39,45,-56,4,17,-21,-66,-130,-119,-154
-69,-21,39,45,-56,4,11,-27,-66,-130,-119,-154
-69,-21,39,45,-56,4,5,-27,-66,-130,-113,-148
-69,-21,39,45,-56,4,-1,-27,-72,-130,-113,-154
-69,-21,39,45,-56,4,-1,-33,-72,-136,-113,-154
-69,-15,45,39,-62,10,-1,-33,-72,-136,-113,-148
-69,-15,45,39,-62,10,-1,-33,-78,-136,-119,-148
-69,-15,45,39,-62,10,-1,-39,-78,-136,-119,-148
-63,-15,39,39,-56,4,-1,-39,-78,-136,-125,-148
-63,-15,39,39,-56,4,-1,-39,-78,-136,-125,-148
-57,-15,33,33,-50,4,-1,-45,-84,-142,-119,-148
-57,-15,33,33,-50,4,-1,-45,-84,-142,-119,-148
-57,-15,33,33,-50,4,-6,-51,-84,-148,-119,-148
-57,-15,33,33,-50,4,-6,-51,-84,-148,-119,-148
-57,-9,39,33,-50,10,-12,-57,-90,-148,-119,-142
-57,-9,39,33,-50,10,-12,-57,-90,-148,-119,-142
-57,-9,39,33,-50,10,-18,-57,-90,-148,-119,-148
-57,-9,39,33,-50,10,-18,-57,-90,-142,-119,-142
-57,-9,39,33,-50,10,-18,-57,-90,-142,-119,-148
-57,-9,39,33,-50,10,-18,-63,-90,-142,-119,-148
-51,-3,39,27,-50,10,-18,-63,-96,-148,-119,-154
-51,-3,39,27,-50,10,-18,-57,-90,-148,-119,-154
-45,3,39,21,-44,16,-18,-57,-96,-154,-119,-160
-45,3,39,21,-44,16,-18,-57,-96,-154,-113,-160
-45,8,45,15,-50,22,-18,-57,-102,-148,-107,-154
-45,8,45,15,-50,22,-18,-57,-102,-148,-107,-154
-45,8,45,15,-50,22,-18,-63,-102,-148,-107,-160
-45,8,51,15,-50,28,-18,-63,-96,-148,-107,-160
-45,8,45,15,-50,22,-6,-51,-84,-142,-107,-154
-45,8,51,15,-50,28,-6,-45,-84,-142,-107,-154
-45,8,45,15,-50,22,-1,-39,-72,-130,-101,-148
-45,8,45,15,-50,22,-1,-33,-72,-130,-101,-142
-51,3,45,21,-50,16,-1,-27,-72,-130,-95,-136
-51,3,45,21,-50,16,-1,-27,-66,-124,-89,-136
-57,-3,45,27,-56,16,-1,-27,-66,-124,-89,-130
-57,-3,45,27,-56,16,-1,-21,-66,-118,-89,-124
-57,3,51,27,-56,22,-1,-21,-54,-112,-83,-118
-57,3,51,27,-56,22,-1,-21,-54,-112,-83,-118
-63,3,57,27,-62,22,-1,-15,-48,-106,-77,-106
-63,3,57,27,-62,22,-1,-15,-48,-106,-77,-106
-69,8,75,27,-74,40,-1,-15,-42,-94,-77,-100
-69,8,75,27,-74,40,-1,-15,-42,-94,-77,-94
-75,8,87,27,-80,46,-1,-15,-42,-88,-77,-88
-75,14,93,21,-86,52,-1,-15,-42,-82,-77,-88
-75,8,87,27,-80,46,-1,-9,-42,-82,-71,-88
-75,8,81,27,-80,40,-1,-9,-42,-82,-71,-88
-75,8,75,33,-80,34,-1,-9,-42,-82,-71,-88
-69,3,63,33,-68,28,-1,-9,-42,-82,-71,-88
-75,3,69,33,-74,28,-1,-9,-36,-82,-83,-94
-75,3,69,33,-74,28,-1,-9,-36,-88,-83,-94
-81,8,81,33,-86,40,-1,-9,-36,-94,-89,-106
-81,8,81,33,-86,40,-1,-3,-36,-94,-83,-106
-75,8,81,27,-80,40,-1,-9,-36,-100,-83,-106
-75,8,81,27,-80,40,-1,-9,-36,-100,-83,-106
-69,8,81,21,-74,46,-1,-15,-30,-100,-83,-100
-69,8,81,21,-74,46,5,-21,-36,-100,-83,-94
-75,8,87,27,-80,46,-1,-15,-42,-100,-83,-94
-75,8,87,27,-80,46,-1,-15,-42,-100,-89,-94
-81,8,93,27,-86,52,-1,-9,-48,-106,-83,-100
-81,8,87,33,-86,46,-1,-15,-48,-106,-89,-100
-81,14,99,27,-92,58,-1,-3,-42,-94,-89,-88
-69,14,87,21,-80,52,5,-3,-36,-112,-89,-106
-69,8,81,21,-74,46,5,-9,-42,-112,-89,-106
-69,8,81,21,-74,46,5,-9,-42,-112,-89,-106
-69,8,75,27,-74,40,5,-15,-48,-112,-89,-106
-69,8,75,27,-74,40,5,-15,-48,-112,-89,-106
-69,8,75,27,-74,40,5,-15,-54,-112,-95,-106
-69,8,75,27,-74,40,5,-21,-60,-112,-101,-106
-69,8,69,27,-74,34,5,-15,-66,-112,-107,-106
-69,8,69,27,-74,34,5,-15,-66,-118,-113,-106
-69,3,63,33,-68,28,-1,-15,-66,-124,-107,-106
-69,3,63,33,-68,28,-1,-15,-66,-124,-107,-106
-69,-3,57,33,-68,22,-1,-15,-72,-130,-101,-106
-69,-3,57,33,-68,22,-1,-15,-72,-130,-101,-106
-69,-3,57,33,-68,22,-1,-21,-78,-136,-101,-112
-69,-3,57,33,-68,22,-1,-21,-78,-136,-101,-112
-69,-3,57,33,-68,22,-1,-27,-84,-142,-101,-118
-69,-3,57,33,-68,22,-1,-27,-84,-142,-101,-118
-69,-3,57,33,-68,22,-1,-33,-84,-142,-107,-118
-69,-3,57,33,-68,22,-1,-33,-84,-148,-107,-118
-69,3,63,33,-68,28,-1,-33,-84,-148,-113,-124
-69,3,63,33,-68,28,-1,-33,-84,-148,-113,-124
-63,-3,51,33,-62,16,-1,-33,-84,-148,-119,-130
-69,-3,57,33,-68,22,-1,-33,-90,-148,-119,-130
-63,-9,45,33,-56,10,-1,-33,-90,-148,-125,-136
-63,-9,45,33,-56,10,-1,-33,-90,-148,-125,-136
-57,3,51,27,-56,22,-1,-33,-90,-148,-125,-136
-57,3,51,27,-56,22,-1,-33,-90,-148,-125,-136
-51,8,51,21,-56,22,-1,-33,-96,-148,-125,-136
-51,8,57,15,-56,28,-1,-33,-96,-148,-125,-130
-45,8,57,9,-50,34,-1,-21,-78,-136,-107,-118
-45,20,69,3,-56,46,5,-15,-72,-124,-89,-112
-45,38,87,-3,-68,64,11,2,-54,-112,-77,-100
-39,50,93,-15,-68,70,23,2,-42,-106,-65,-82
-39,62,105,-15,-74,82,23,8,-30,-94,-59,-76
-39,68,111,-15,-74,88,35,8,-24,-88,-53,-70
-33,86,123,-20,-80,106,41,8,-18,-82,-47,-64
-27,110,141,-32,-86,124,47,20,-12,-70,-41,-58
-21,122,147,-44,-86,136,47,32,-6,-64,-41,-58
-21,116,141,-38,-80,130,53,32,-6,-64,-35,-52
-27,116,147,-38,-86,130,53,26,-12,-64,-41,-58
-27,128,159,-44,-92,142,59,20,-12,-64,-35,-58
-27,134,165,-44,-98,148,65,26,0,-58,-29,-46
-27,146,177,-50,-104,160,59,26,5,-52,-23,-40
-27,158,189,-56,-110,172,65,26,5,-40,-17,-34
-27,164,195,-62,-110,178,65,26,5,-40,-11,-28
-27,188,219,-74,-122,202,53,14,5,-46,-5,-16
-21,206,225,-86,-128,220,29,14,5,-40,1,-5
-15,230,243,-98,-134,238,17,2,5,-40,7,-5
-9,248,255,-110,-134,250,11,2,11,-22,12,7
-3,248,249,-116,-128,244,-1,2,5,-22,12,7
9,236,225,-116,-110,232,-1,2,5,-22,12,1
15,218,207,-110,-98,214,-12,-3,5,-28,7,-5
20,200,183,-104,-80,190,-36,-9,0,-34,1,-10
15,194,183,-98,-86,190,-36,-27,-6,-58,-11,-10
20,188,171,-98,-74,178,-30,-27,0,-52,-5,-10
20,170,153,-86,-68,160,-24,-27,-12,-58,-17,-16
20,158,141,-80,-62,148,-36,-45,-24,-70,-23,-10
20,146,129,-74,-56,136,-48,-51,-48,-88,-35,-22
15,128,117,-62,-50,124,-36,-51,-60,-94,-35,-28
-3,110,117,-44,-62,112,-36,-63,-60,-106,-41,-46
-15,80,99,-26,-56,88,-48,-75,-84,-106,-65,-52
-21,56,81,-15,-50,70,-60,-87,-84,-118,-71,-70
-21,20,45,-9,-32,34,-72,-99,-90,-130,-95,-76
-39,8,39,15,-44,16,-96,-123,-102,-142,-107,-88
-27,-15,3,21,-20,-2,-108,-123,-114,-154,-119,-100
-15,-27,-15,21,-2,-19,-120,-135,-114,-154,-119,-106
-21,-33,-15,27,-2,-19,-150,-147,-120,-154,-125,-106
-21,-39,-15,27,-2,-25,-192,-165,-132,-160,-125,-106
15,-39,-50,9,21,-43,-222,-189,-156,-160,-119,-118
20,-27,-56,-3,33,-37,-276,-225,-162,-160,-119,-118
32,-27,-68,-9,45,-43,-342,-267,-174,-160,-107,-100
62,-21,-92,-15,75,-55,-414,-321,-174,-142,-107,-88
92,3,-98,-38,93,-43,-468,-351,-162,-130,-83,-64
116,8,-104,-62,111,-37,-498,-375,-144,-94,-59,-34
122,38,-80,-80,99,-13,-528,-393,-138,-70,-17,-10
146,68,-74,-104,111,-2,-552,-405,-132,-46,12,13
164,92,-68,-128,117,10,-570,-381,-102,-4,48,37
194,116,-74,-152,135,16,-588,-381,-78,32,72,61
224,158,-62,-188,141,46,-636,-393,-48,55,108,91
260,224,-38,-242,153,88,-672,-405,-12,97,150,127
290,248,-44,-266,171,100,-696,-405,23,163,192,169
332,296,-32,-314,183,130,-702,-369,83,217,240,205
374,344,-26,-356,201,160,-726,-321,149,283,282,241
404,380,-20,-392,213,178,-726,-261,209,337,342,289
416,410,-15,-410,213,202,-714,-201,257,379,390,319
440,470,21,-452,207,244,-672,-123,305,439,432,349
470,548,75,-506,195,316,-660,-57,377,499,498,403
506,638,129,-566,183,388,-654,-27,467,577,558,451
530,704,165,-614,183,436,-660,-39,515,637,606,499
512,746,225,-632,141,490,-666,-153,515,661,642,541
500,764,261,-632,111,514,-690,-375,485,643,642,559
506,794,279,-650,111,538,-696,-597,425,625,642,565
512,842,321,-680,93,586,-708,-723,407,637,648,601
518,890,363,-704,75,628,-726,-789,419,655,672,625
524,944,411,-734,51,682,-774,-903,395,667,714,679
542,1016,471,-776,33,742,-924,-1065,365,691,750,727
560,1112,543,-836,15,832,-1098,-1245,311,709,816,805
596,1226,627,-914,-8,934,-1284,-1473,209,721,888,907
620,1394,765,-1004,-68,1084,-1434,-1749,83,769,984,1021
638,1580,939,-1106,-146,1258,-1620,-1989,5,835,1122,1171
686,1748,1059,-1220,-188,1408,-1830,-2193,-72,913,1254,1327
746,1868,1119,-1304,-188,1492,-2016,-2385,-174,967,1362,1459
782,1904,1113,-1340,-164,1510,-2154,-2498,-270,1009,1464,1573
812,1916,1095,-1364,-140,1504,-2244,-2528,-318,1069,1542,1669
854,1928,1065,-1388,-104,1498,-2322,-2504,-342,1147,1632,1765
896,1916,1011,-1406,-56,1462,-2400,-2516,-396,1201,1704,1849
926,1892,957,-1406,-14,1432,-2441,-2516,-468,1225,1764,1927
944,1862,915,-1400,15,1390,-2435,-2456,-468,1273,1818,1987
968,1820,849,-1394,51,1336,-2346,-2325,-426,1333,1854,1999
968,1742,771,-1352,93,1258,-2214,-2145,-342,1405,1866,1969
962,1658,693,-1304,129,1180,-2082,-1935,-228,1465,1878,1945
950,1580,627,-1262,159,1108,-1944,-1737,-126,1507,1872,1921
920,1430,501,-1172,207,970,-1806,-1581,-90,1471,1788,1819
860,1208,339,-1028,255,772,-1644,-1401,-78,1363,1626,1651
770,932,153,-848,303,544,-1428,-1173,-84,1177,1374,1399
656,632,-20,-644,339,304,-1194,-981,-138,889,1032,1069
524,386,-140,-458,333,124,-978,-837,-246,553,690,751
386,200,-188,-290,285,4,-780,-717,-336,271,396,481
224,38,-182,-128,201,-61,-564,-585,-402,8,96,199
86,-105,-200,3,141,-151,-372,-471,-468,-214,-131,-46
20,-165,-194,63,105,-175,-270,-375,-468,-292,-221,-142
20,-165,-188,69,99,-175,-234,-297,-420,-256,-179,-124
15,-183,-194,81,93,-187,-186,-237,-378,-238,-179,-130
-21,-213,-188,117,75,-199,-132,-171,-348,-238,-203,-160
-33,-219,-182,123,63,-199,-90,-129,-312,-226,-209,-172
-63,-231,-164,147,39,-199,-48,-99,-294,-232,-209,-172
-87,-237,-152,165,21,-199,-30,-93,-288,-244,-227,-196
-99,-231,-134,165,15,-187,-12,-75,-276,-262,-245,-226
-105,-231,-128,171,15,-181,-1,-57,-270,-274,-251,-232
-105,-231,-128,171,15,-181,11,-27,-258,-286,-257,-238
-111,-249,-140,183,15,-199,35,-3,-258,-286,-257,-238
-111,-273,-164,195,15,-223,41,8,-252,-292,-263,-244
-117,-291,-176,207,21,-235,53,14,-252,-298,-269,-244
-123,-309,-188,219,21,-247,53,14,-246,-298,-281,-256
-123,-315,-194,219,27,-253,65,20,-240,-310,-287,-262
-129,-309,-182,219,15,-241,71,26,-246,-316,-299,-274
-141,-309,-170,225,15,-241,77,32,-234,-316,-299,-274
-147,-303,-158,225,10,-235,95,44,-234,-316,-305,-274
-147,-303,-158,225,10,-235,101,50,-234,-316,-305,-274
-141,-297,-158,219,10,-229,107,62,-222,-322,-305,-280
-141,-291,-152,219,10,-223,119,74,-216,-316,-305,-280
-135,-285,-152,213,10,-223,131,80,-204,-322,-305,-286
-135,-279,-146,207,10,-217,131,92,-204,-322,-299,-286
-141,-291,-152,219,10,-223,131,98,-198,-316,-299,-286
-141,-297,-158,219,10,-229,137,104,-192,-316,-299,-286
-147,-303,-158,225,10,-235,143,110,-180,-310,-299,-286
-147,-309,-164,225,10,-241,149,116,-174,-310,-305,-286
-147,-303,-158,225,10,-235,149,122,-180,-310,-305,-292
-147,-303,-158,225,10,-235,161,128,-168,-310,-305,-292
-147,-291,-146,219,4,-223,161,134,-168,-304,-305,-286
-147,-291,-146,219,4,-223,167,146,-168,-304,-299,-286
-147,-291,-146,219,4,-223,173,158,-156,-298,-299,-286
-147,-291,-146,219,4,-223,179,176,-144,-292,-299,-286
-147,-291,-146,219,4,-223,179,182,-132,-286,-299,-280
-147,-291,-146,219,4,-223,185,188,-132,-286,-299,-280
-153,-291,-140,225,-2,-217,191,194,-126,-286,-299,-280
-153,-291,-140,225,-2,-217,197,212,-120,-280,-299,-274
-153,-291,-140,225,-2,-217,197,212,-114,-280,-299,-268
-153,-285,-134,219,-8,-211,203,230,-108,-280,-299,-262
-153,-285,-134,219,-8,-211,221,242,-102,-274,-305,-268
-153,-285,-134,219,-8,-211,227,248,-96,-274,-305,-274
-153,-285,-134,219,-8,-211,239,260,-84,-274,-305,-280
-153,-285,-134,219,-8,-211,245,272,-78,-268,-305,-286
-159,-279,-122,219,-14,-205,257,290,-60,-262,-299,-280
-159,-279,-122,219,-14,-205,263,302,-54,-250,-293,-280
-165,-279,-116,225,-20,-199,287,320,-42,-238,-287,-274
-165,-279,-116,225,-20,-199,293,338,-24,-238,-281,-274
-165,-279,-116,225,-20,-199,299,356,-18,-238,-287,-274
-165,-279,-116,225,-20,-199,305,380,-12,-232,-281,-268
-159,-273,-116,219,-20,-199,317,398,5,-238,-287,-268
-159,-273,-116,219,-20,-199,329,416,5,-238,-281,-274
-159,-273,-116,219,-20,-199,347,440,17,-226,-281,-280
-159,-273,-116,219,-20,-199,359,458,29,-220,-281,-280
-159,-273,-116,219,-20,-199,377,488,41,-214,-281,-280
-159,-273,-116,219,-20,-199,395,500,53,-208,-281,-280
-165,-273,-110,219,-26,-193,413,530,65,-202,-281,-280
-165,-273,-110,219,-26,-193,425,554,77,-202,-281,-280
-171,-267,-98,219,-32,-187,443,578,89,-196,-275,-286
-171,-267,-98,219,-32,-187,461,614,107,-190,-275,-286
-171,-267,-98,219,-32,-187,485,650,131,-184,-281,-286
-171,-273,-104,225,-32,-193,503,680,143,-172,-281,-286
-165,-273,-110,219,-26,-193,527,716,161,-166,-287,-292
-165,-279,-116,225,-20,-199,545,740,179,-160,-281,-292
-171,-279,-110,225,-26,-199,575,776,191,-148,-281,-298
-171,-279,-110,225,-26,-199,593,806,203,-136,-281,-298
-177,-279,-104,225,-32,-193,617,842,233,-130,-281,-304
-183,-279,-98,225,-38,-193,635,872,245,-124,-281,-310
-177,-273,-98,225,-38,-187,659,908,263,-112,-281,-304
-177,-273,-98,225,-38,-187,677,938,281,-106,-281,-298
-171,-273,-104,225,-32,-193,701,974,299,-88,-269,-292
-171,-273,-104,225,-32,-193,713,992,317,-76,-263,-280
-165,-273,-110,219,-26,-193,725,1010,341,-70,-263,-280
-165,-267,-104,219,-26,-187,731,1034,347,-52,-257,-280
-159,-267,-110,213,-20,-193,749,1046,371,-34,-251,-286
-159,-267,-110,213,-20,-193,761,1064,383,-28,-245,-274
-153,-261,-110,207,-20,-187,761,1070,395,-16,-239,-274
-153,-255,-104,207,-20,-181,761,1082,407,-10,-233,-274
-153,-255,-104,207,-20,-181,761,1088,413,-4,-227,-274
-141,-243,-104,195,-14,-175,755,1088,419,2,-221,-274
-135,-231,-98,183,-14,-169,755,1088,425,8,-215,-262
-129,-231,-98,177,-14,-163,755,1088,431,14,-215,-250
-123,-225,-98,171,-8,-163,749,1082,437,20,-209,-244
-123,-213,-86,165,-14,-151,743,1076,437,26,-203,-232
-123,-219,-92,171,-14,-157,731,1064,425,32,-191,-220
-111,-201,-86,153,-8,-145,731,1052,425,37,-173,-214
-105,-201,-92,153,-2,-145,707,1028,419,37,-161,-208
-99,-201,-98,147,4,-151,701,1004,419,37,-149,-196
-93,-195,-98,141,4,-145,683,980,407,37,-149,-190
-93,-195,-98,141,4,-145,665,968,407,37,-149,-178
-87,-195,-104,141,10,-151,641,932,401,37,-143,-178
-81,-183,-98,129,10,-139,623,914,401,37,-143,-172
-69,-171,-98,117,15,-133,605,884,389,37,-143,-160
-69,-171,-98,117,15,-133,587,854,377,37,-137,-160
-63,-165,-98,111,15,-133,563,830,353,37,-131,-160
-51,-153,-98,99,15,-127,545,788,341,37,-131,-154
-45,-147,-98,93,15,-121,509,752,323,37,-131,-142
-45,-141,-92,93,15,-115,485,716,311,37,-131,-136
-39,-135,-92,87,15,-115,461,668,287,32,-131,-124
-33,-129,-92,81,21,-109,437,632,275,20,-131,-112
-33,-117,-80,75,15,-97,413,590,251,14,-131,-106
-33,-111,-74,69,15,-91,395,560,245,14,-131,-100
-27,-99,-68,63,15,-85,365,518,227,14,-131,-88
-27,-93,-62,57,15,-79,347,482,209,8,-125,-82
-33,-87,-50,57,10,-67,317,440,197,2,-125,-82
-33,-81,-44,57,10,-61,293,398,179,-4,-125,-82
-27,-81,-50,51,15,-67,269,356,161,-10,-125,-76
-27,-69,-38,45,10,-55,251,314,155,-16,-125,-76
-33,-69,-32,51,4,-49,239,278,137,-22,-125,-70
-33,-69,-32,51,4,-49,215,254,125,-34,-125,-64
-33,-69,-32,51,4,-49,197,230,107,-40,-125,-52
-33,-63,-26,45,-2,-43,185,200,95,-46,-125,-52
-33,-51,-15,39,-8,-31,161,176,83,-52,-119,-58
-33,-51,-15,39,-8,-31,149,158,71,-52,-119,-58
-33,-45,-15,39,-8,-25,143,140,65,-58,-113,-58
-39,-45,-15,39,-14,-25,125,116,53,-58,-113,-58
-39,-45,-15,39,-14,-25,119,104,41,-64,-119,-64
-39,-39,-9,39,-20,-19,113,86,35,-70,-119,-58
-39,-39,-9,39,-20,-19,113,74,29,-76,-125,-64
-39,-39,-9,39,-20,-19,101,56,29,-76,-125,-58
-39,-39,-9,39,-20,-19,89,44,17,-82,-131,-58
-45,-39,-3,39,-26,-13,89,38,11,-88,-131,-58
-39,-45,-15,39,-14,-25,71,26,5,-94,-137,-58
-39,-45,-15,39,-14,-25,65,14,-6,-94,-137,-58
-39,-45,-15,39,-14,-25,65,14,-6,-94,-137,-58
-39,-45,-15,39,-14,-25,59,2,-6,-94,-137,-58
-39,-51,-15,45,-14,-31,59,2,-6,-94,-137,-58
-45,-51,-15,45,-20,-25,53,2,-12,-100,-137,-58
-45,-51,-15,45,-20,-25,53,2,-18,-100,-137,-64
-45,-51,-15,45,-20,-25,47,-3,-18,-100,-137,-64
-45,-45,-9,45,-20,-19,41,-3,-18,-106,-137,-64
-45,-45,-9,45,-20,-19,35,-3,-24,-106,-137,-70
-51,-45,-3,45,-26,-19,35,-3,-24,-112,-137,-64
-51,-39,3,45,-32,-13,35,-3,-24,-112,-137,-58
-57,-39,9,45,-38,-7,35,2,-30,-112,-143,-52
-57,-39,9,45,-38,-7,35,-3,-30,-112,-143,-52
-51,-39,3,45,-32,-13,23,-9,-30,-106,-149,-52
-51,-39,3,45,-32,-13,23,-9,-30,-106,-149,-52
-45,-39,-3,39,-26,-13,17,-21,-36,-106,-143,-52
-45,-39,-3,39,-26,-13,11,-21,-36,-106,-143,-52
-45,-39,-3,39,-26,-13,11,-21,-42,-112,-143,-52
-45,-39,-3,39,-26,-13,11,-21,-42,-112,-143,-52
-45,-33,3,39,-26,-7,11,-21,-54,-112,-143,-46
-45,-33,3,39,-26,-7,11,-21,-54,-112,-143,-46
-45,-33,3,39,-26,-7,5,-21,-48,-112,-143,-46
-45,-33,3,39,-26,-7,5,-21,-48,-106,-143,-40
-45,-33,3,39,-26,-7,5,-21,-42,-106,-143,-40
-45,-33,3,39,-26,-7,5,-27,-42,-106,-143,-40
-51,-39,3,45,-32,-13,5,-27,-42,-112,-143,-40
-51,-39,3,45,-32,-13,5,-21,-36,-112,-143,-40
-57,-45,3,51,-32,-13,5,-21,-36,-118,-143,-40
-57,-45,3,51,-32,-13,5,-21,-36,-118,-137,-40
-51,-39,3,45,-32,-13,5,-15,-42,-112,-137,-34
-51,-39,3,45,-32,-13,5,-15,-42,-112,-137,-34
-45,-39,-3,39,-26,-13,5,-15,-42,-112,-143,-40
-45,-33,3,39,-26,-7,5,-15,-36,-112,-143,-40
-45,-33,3,39,-26,-7,11,-9,-36,-112,-137,-34
-45,-27,9,33,-32,-2,11,-9,-36,-112,-137,-34
-45,-27,9,33,-32,-2,11,-9,-36,-106,-125,-28
-45,-27,9,33,-32,-2,11,-9,-36,-106,-125,-22
-51,-21,21,33,-38,-2,11,-3,-36,-100,-125,-22
-51,-21,21,33,-38,-2,17,-3,-30,-94,-119,-22
-57,-15,33,33,-50,4,17,-3,-30,-88,-125,-22
-57,-15,33,33,-50,4,17,2,-30,-82,-125,-16
-51,-9,33,27,-44,4,17,2,-24,-82,-119,-16
-51,-9,33,27,-44,4,23,2,-24,-82,-119,-16
-51,-9,33,27,-44,4,23,2,-24,-82,-113,-10
-51,-9,33,27,-44,4,23,2,-24,-82,-113,-10
-51,-3,39,27,-50,10,23,2,-12,-76,-113,-10
-51,-3,39,27,-50,10,23,2,-12,-76,-113,-5
-51,-3,39,27,-50,10,23,2,-6,-76,-113,-5
-51,3,45,21,-50,16,29,2,-6,-70,-113,-5
-51,-3,39,27,-50,10,29,8,-6,-70,-107,-5
-51,-3,39,27,-50,10,29,8,-6,-70,-107,-5
-51,-9,33,27,-44,4,35,14,-6,-70,-107,-5
-45,-9,27,27,-38,4,35,14,-6,-70,-107,-5
-51,-9,33,27,-44,4,35,8,0,-70,-113,-5
-51,-9,33,27,-44,4,35,8,0,-76,-113,-5
-57,-3,45,27,-56,16,35,2,0,-82,-113,-10
-57,-3,45,27,-56,16,35,8,0,-82,-107,-10
-57,-3,45,27,-56,16,35,8,0,-82,-113,-10
-57,-3,45,27,-56,16,35,8,0,-82,-113,-10
-57,-3,45,27,-56,16,35,8,5,-76,-119,-5
-57,-3,45,27,-56,16,41,2,0,-76,-119,-5
-57,-3,45,27,-56,16,41,2,0,-70,-119,-5
-57,-3,45,27,-56,16,41,2,0,-70,-125,-5
-57,-3,45,27,-56,16,41,2,0,-70,-119,-16
-57,-9,39,33,-50,10,35,2,0,-70,-125,-16
-57,-3,45,27,-56,16,35,2,-6,-70,-119,-10
-57,-3,45,27,-56,16,29,2,-6,-76,-119,-10
-57,3,51,27,-56,22,29,2,-6,-76,-113,-10
-57,3,51,27,-56,22,29,2,-12,-76,-119,-10
-57,-3,45,27,-56,16,29,2,-12,-82,-119,-16
-63,-3,51,33,-62,16,29,-3,-18,-88,-119,-16
-63,-3,51,33,-62,16,29,-9,-24,-88,-119,-22
-63,-3,51,33,-62,16,29,-9,-30,-88,-131,-22
-63,-9,45,33,-56,10,29,-3,-30,-88,-131,-16
-63,-9,45,33,-56,10,23,-9,-30,-94,-125,-16
-63,-9,45,33,-56,10,23,-3,-36,-94,-125,-16
-63,-9,45,33,-56,10,23,-3,-36,-100,-125,-16
-57,-15,33,33,-50,4,23,-3,-36,-100,-125,-16
-57,-15,33,33,-50,4,23,-9,-42,-100,-125,-16
-57,-27,21,39,-44,-2,23,-9,-42,-106,-125,-16
-57,-27,21,39,-44,-2,23,-9,-42,-106,-125,-22
-63,-27,27,45,-50,-2,23,-15,-42,-106,-131,-22
-63,-27,27,45,-50,-2,23,-21,-54,-118,-137,-22
-63,-33,21,45,-44,-2,23,-27,-54,-118,-137,-28
-63,-33,21,45,-44,-2,23,-27,-54,-118,-143,-28
-63,-33,21,45,-44,-2,17,-27,-60,-118,-143,-34
-63,-33,21,45,-44,-2,11,-33,-60,-118,-149,-34
-63,-27,27,45,-50,-2,11,-33,-66,-130,-149,-40
-63,-33,21,45,-44,-2,5,-39,-72,-130,-155,-40
-63,-33,21,45,-44,-2,11,-39,-72,-124,-149,-40
-63,-33,21,45,-44,-2,11,-39,-72,-124,-149,-40
-63,-33,21,45,-44,-2,17,-45,-66,-124,-149,-34
-63,-33,21,45,-44,-2,17,-45,-66,-124,-149,-34
-51,-51,-9,51,-26,-25,17,-33,-72,-112,-149,-34
-57,-57,-9,57,-26,-25,17,-39,-72,-124,-149,-46
-57,-57,-9,57,-26,-25,17,-39,-72,-130,-149,-46
-57,-57,-9,57,-26,-25,17,-39,-72,-130,-149,-46
-57,-57,-9,57,-26,-25,17,-39,-72,-136,-149,-46
-57,-57,-9,57,-26,-25,17,-39,-72,-136,-149,-46
-63,-57,-3,57,-32,-25,17,-51,-72,-136,-149,-52
-63,-57,-3,57,-32,-25,17,-57,-78,-136,-155,-52
-69,-63,-3,63,-38,-25,17,-63,-78,-136,-155,-58
-69,-63,-3,63,-38,-25,17,-63,-78,-142,-161,-58
-63,-63,-9,63,-32,-31,17,-63,-84,-142,-161,-58
-63,-63,-9,63,-32,-31,17,-63,-84,-142,-161,-58
-57,-63,-15,57,-26,-31,17,-63,-96,-142,-161,-58
-57,-63,-15,57,-26,-31,17,-63,-96,-142,-161,-58
-63,-63,-9,63,-32,-31,11,-69,-96,-148,-161,-58
-63,-63,-9,63,-32,-31,11,-69,-96,-148,-161,-58
-69,-63,-3,63,-38,-25,11,-75,-96,-154,-161,-58
-69,-63,-3,63,-38,-25,11,-75,-96,-154,-161,-58
-69,-69,-9,69,-32,-31,11,-81,-96,-148,-161,-58
-69,-69,-9,69,-32,-31,11,-81,-96,-154,-161,-58
-69,-69,-9,69,-32,-31,11,-81,-96,-148,-161,-64
-69,-69,-9,69,-32,-31,11,-81,-96,-148,-161,-64
-63,-69,-15,63,-26,-37,17,-81,-96,-148,-161,-64
-69,-69,-9,69,-32,-31,17,-81,-102,-148,-161,-64
-63,-69,-15,63,-26,-37,23,-81,-102,-148,-161,-64
-63,-69,-15,63,-26,-37,23,-81,-102,-148,-161,-64
-63,-57,-3,57,-32,-25,17,-81,-90,-142,-155,-58
-63,-51,3,57,-38,-19,17,-81,-90,-142,-155,-58
-63,-45,9,51,-38,-13,11,-81,-84,-136,-149,-52
-63,-33,21,45,-44,-2,11,-81,-84,-136,-149,-46
-51,-27,15,39,-38,-2,23,-75,-72,-130,-137,-40
-51,-15,27,33,-44,-2,35,-69,-66,-118,-125,-34
-45,3,39,21,-44,16,47,-51,-54,-112,-119,-28
-39,8,45,9,-44,22,59,-45,-42,-106,-113,-10
-45,14,63,9,-56,40,53,-33,-30,-94,-107,-10
-51,14,69,9,-62,40,65,-33,-24,-88,-101,-5
-51,32,87,3,-68,58,65,-27,-18,-82,-95,-5
-51,50,105,-9,-80,76,71,-15,-12,-70,-89,-5
-45,56,105,-15,-74,82,71,-3,-6,-64,-83,-5
-45,50,99,-9,-74,76,77,-3,0,-58,-77,1
-51,44,99,-3,-74,70,77,-9,-6,-58,-77,1
-51,56,111,-9,-80,82,83,-15,0,-52,-71,1
-45,74,123,-15,-86,100,89,-3,5,-52,-65,13
-45,86,135,-15,-92,112,83,-3,5,-46,-59,19
-39,110,153,-26,-98,130,89,2,11,-40,-53,25
-39,116,159,-32,-98,136,89,2,17,-40,-47,31
-39,134,177,-38,-110,154,71,-3,11,-40,-41,37
-33,152,189,-50,-110,172,47,-3,17,-34,-35,49
-27,170,201,-62,-116,184,29,-9,17,-28,-29,49
-21,188,213,-74,-116,202,23,-9,23,-10,-17,67
-21,194,219,-80,-122,208,17,-15,23,-10,-5,73
-9,188,201,-80,-104,196,17,-21,23,-10,-11,67
-9,176,189,-74,-98,184,11,-27,17,-16,-17,55
-3,164,171,-74,-86,166,-1,-33,11,-22,-23,49
15,146,135,-74,-62,142,11,-39,5,-22,-23,49
-3,140,147,-62,-74,142,5,-39,0,-28,-17,49
-3,122,129,-50,-68,124,-1,-39,0,-34,-29,43
9,110,105,-50,-50,106,-1,-57,-12,-46,-35,49
-3,86,93,-32,-50,88,-12,-63,-12,-52,-35,37
-21,68,93,-15,-56,82,-12,-63,-24,-58,-35,31
-27,50,81,-15,-56,64,-12,-75,-36,-70,-53,25
-39,20,63,3,-50,40,-12,-87,-48,-94,-77,-5
-33,8,33,9,-38,16,-24,-99,-60,-106,-95,-10
-33,-15,9,21,-26,-2,-36,-111,-78,-118,-107,-16
-39,-39,-9,39,-20,-19,-60,-135,-102,-130,-119,-40
-39,-51,-15,45,-14,-31,-72,-135,-114,-130,-131,-52
-39,-63,-20,51,-8,-43,-96,-147,-102,-130,-119,-46
-21,-69,-44,45,15,-55,-114,-159,-108,-130,-125,-46
-21,-87,-62,51,15,-73,-156,-177,-108,-124,-125,-46
-9,-75,-62,39,15,-67,-198,-189,-120,-124,-119,-34
20,-75,-92,27,45,-85,-252,-237,-138,-124,-119,-22
44,-75,-128,9,81,-97,-318,-303,-162,-136,-119,-28
74,-69,-152,-9,111,-109,-390,-357,-174,-130,-107,-16
92,-45,-146,-15,117,-91,-432,-387,-162,-106,-95,-5
116,-15,-140,-44,123,-73,-456,-399,-144,-70,-59,13
122,8,-116,-62,117,-49,-492,-417,-126,-22,-17,49
134,32,-98,-80,117,-25,-516,-429,-108,2,12,73
152,56,-92,-104,123,-7,-522,-405,-90,32,36,97
182,80,-98,-128,141,-2,-540,-393,-42,55,72,133
212,122,-86,-164,147,16,-588,-405,-12,91,108,175
242,164,-74,-200,159,40,-636,-417,23,145,150,223
266,212,-56,-242,165,76,-660,-393,71,211,204,259
308,248,-56,-278,183,94,-666,-357,143,277,252,295
350,284,-62,-314,207,112,-678,-309,197,331,282,325
380,344,-32,-362,207,154,-690,-249,245,397,342,361
392,398,-3,-392,195,202,-666,-189,293,463,390,415
404,446,33,-422,183,238,-636,-123,365,523,444,445
422,512,87,-470,165,304,-624,-81,437,577,498,493
458,590,129,-518,159,364,-642,-87,509,649,570,565
476,644,165,-554,153,406,-648,-159,539,697,618,607
482,692,207,-584,135,454,-666,-315,527,685,618,625
476,734,249,-602,105,490,-702,-561,473,655,618,619
476,770,291,-620,87,532,-708,-783,413,625,618,637
482,806,321,-644,75,568,-696,-873,395,637,636,649
488,854,363,-668,57,610,-702,-921,407,679,660,685
470,908,435,-686,15,676,-750,-1017,371,679,690,715
488,992,501,-740,-2,748,-888,-1185,329,691,720,763
512,1088,567,-800,-20,832,-1062,-1329,299,721,780,841
536,1196,651,-866,-50,928,-1236,-1509,209,745,852,943
548,1322,765,-938,-104,1048,-1422,-1761,59,757,954,1045
590,1472,879,-1028,-140,1180,-1584,-1977,-18,811,1074,1195
638,1622,975,-1130,-170,1300,-1782,-2163,-84,901,1212,1339
686,1748,1059,-1220,-188,1408,-1980,-2337,-186,979,1338,1471
740,1832,1089,-1280,-176,1462,-2106,-2474,-294,1033,1440,1585
776,1844,1059,-1310,-140,1456,-2196,-2516,-342,1093,1518,1681
806,1832,1017,-1316,-104,1432,-2250,-2504,-366,1171,1584,1753
860,1832,963,-1346,-50,1402,-2304,-2504,-408,1213,1656,1837
902,1844,939,-1370,-14,1396,-2364,-2504,-468,1249,1728,1939
920,1838,915,-1376,10,1378,-2352,-2444,-480,1285,1794,1999
932,1760,825,-1346,45,1294,-2274,-2313,-426,1345,1830,2011
932,1688,747,-1304,87,1216,-2160,-2133,-330,1417,1866,2005
926,1622,693,-1268,111,1162,-2010,-1923,-228,1501,1890,1993
902,1520,615,-1214,141,1072,-1872,-1737,-138,1531,1860,1945
884,1346,459,-1112,213,904,-1710,-1569,-114,1483,1752,1819
836,1148,303,-986,261,730,-1548,-1401,-90,1363,1590,1627
740,884,141,-806,291,514,-1332,-1197,-96,1165,1326,1363
632,584,-44,-608,339,268,-1098,-1005,-150,865,978,1033
506,302,-200,-404,351,52,-888,-837,-234,541,630,721
326,104,-224,-218,273,-49,-678,-705,-312,259,348,451
164,-45,-218,-50,189,-127,-474,-585,-378,8,84,187
38,-153,-200,51,117,-175,-288,-471,-432,-202,-119,-10
9,-189,-194,87,93,-193,-216,-399,-432,-268,-197,-94
3,-201,-200,99,93,-199,-174,-333,-384,-232,-167,-88
-9,-219,-206,111,87,-211,-138,-261,-342,-202,-179,-106
-21,-231,-212,129,87,-223,-84,-219,-312,-202,-215,-136
-45,-219,-170,129,51,-193,-42,-177,-288,-196,-221,-148
-75,-219,-140,147,21,-181,-1,-159,-258,-202,-221,-148
-99,-237,-140,171,15,-193,17,-141,-252,-220,-233,-172
-111,-255,-146,183,15,-205,35,-123,-240,-250,-233,-190
-117,-255,-140,189,15,-199,59,-93,-234,-250,-239,-196
-117,-243,-128,183,10,-187,71,-51,-216,-262,-233,-202
-111,-249,-140,183,15,-199,83,-27,-216,-262,-245,-214
-111,-267,-158,189,15,-217,89,-9,-216,-268,-257,-226
-117,-279,-164,201,15,-223,101,-3,-216,-274,-263,-226
-123,-291,-170,207,15,-235,101,-9,-216,-274,-281,-238
-123,-291,-170,207,15,-235,113,-3,-210,-286,-287,-244
-123,-291,-170,207,15,-235,119,-9,-210,-292,-293,-250
-135,-291,-158,213,15,-229,125,-3,-198,-292,-293,-250
-135,-291,-158,213,15,-229,143,-3,-192,-292,-293,-250
-135,-291,-158,213,15,-229,149,2,-186,-292,-293,-250
-135,-291,-158,213,15,-229,155,8,-180,-292,-293,-256
-135,-291,-158,213,15,-229,167,20,-174,-286,-293,-256
-135,-291,-158,213,15,-229,179,32,-168,-286,-293,-262
-135,-291,-158,213,15,-229,179,44,-168,-286,-287,-262
-135,-297,-164,219,15,-235,179,44,-162,-280,-281,-256
-135,-297,-164,219,15,-235,185,50,-156,-280,-281,-256
-135,-297,-164,219,15,-235,191,50,-144,-274,-275,-250
-135,-297,-164,219,15,-235,197,56,-138,-274,-281,-250
-135,-291,-158,213,15,-229,197,62,-138,-274,-281,-256
-135,-291,-158,213,15,-229,209,68,-126,-274,-281,-256
-135,-279,-146,207,10,-217,209,74,-120,-268,-281,-250
-135,-279,-146,207,10,-217,215,86,-120,-268,-275,-250
-141,-285,-146,213,4,-217,227,98,-108,-262,-269,-250
-141,-285,-146,213,4,-217,233,116,-96,-256,-269,-250
-147,-291,-146,219,4,-223,239,122,-84,-250,-263,-244
-147,-291,-146,219,4,-223,239,128,-84,-250,-263,-244
-147,-285,-140,219,-2,-217,239,128,-78,-250,-269,-250
-147,-285,-140,219,-2,-217,245,146,-72,-244,-269,-250
-141,-279,-140,213,4,-211,239,140,-66,-244,-275,-250
-141,-273,-134,207,-2,-205,245,158,-60,-244,-275,-250
-141,-273,-134,207,-2,-205,263,176,-48,-238,-269,-256
-141,-273,-134,207,-2,-205,269,188,-42,-238,-269,-256
-141,-273,-134,207,-2,-205,287,206,-24,-238,-257,-262
-141,-273,-134,207,-2,-205,293,218,-18,-232,-257,-262
-141,-273,-134,207,-2,-205,305,230,-6,-232,-257,-262
-141,-273,-134,207,-2,-205,311,242,0,-220,-257,-262
-141,-279,-140,213,4,-211,335,248,5,-214,-257,-262
-141,-279,-140,213,4,-211,341,266,11,-214,-257,-262
-147,-285,-140,219,-2,-217,347,278,11,-208,-263,-262
-147,-285,-140,219,-2,-217,353,302,17,-202,-257,-256
-147,-285,-140,219,-2,-217,365,314,29,-202,-263,-256
-147,-285,-140,219,-2,-217,377,332,41,-202,-257,-262
-147,-279,-134,213,-2,-211,395,350,47,-196,-257,-268
-147,-279,-134,213,-2,-211,407,368,59,-190,-257,-268
-147,-273,-128,213,-8,-205,425,398,65,-184,-257,-268
-147,-273,-128,213,-8,-205,443,410,77,-178,-257,-268
-147,-285,-140,219,-2,-217,461,440,95,-172,-257,-262
-147,-285,-140,219,-2,-217,473,464,113,-172,-257,-262
-147,-291,-146,219,4,-223,485,488,131,-160,-251,-262
-147,-291,-146,219,4,-223,503,518,155,-154,-251,-262
-153,-291,-140,225,-2,-217,515,542,173,-148,-251,-268
-153,-297,-146,225,-2,-223,539,572,185,-136,-251,-268
-153,-297,-146,225,-2,-223,551,596,197,-130,-251,-280
-153,-303,-152,225,4,-229,569,626,215,-124,-245,-280
-153,-303,-152,225,4,-229,593,662,221,-118,-245,-280
-153,-303,-152,225,4,-229,611,692,233,-106,-245,-280
-153,-303,-152,225,4,-229,629,728,251,-106,-245,-280
-159,-303,-146,225,-2,-229,647,752,269,-100,-245,-286
-159,-297,-140,225,-8,-223,665,776,293,-82,-245,-286
-159,-297,-140,225,-8,-223,683,806,311,-76,-245,-286
-159,-297,-140,225,-8,-223,701,830,335,-52,-233,-286
-159,-297,-140,225,-8,-223,713,854,353,-40,-227,-280
-153,-303,-152,225,4,-229,725,872,365,-46,-227,-274
-153,-297,-146,225,-2,-223,731,896,371,-28,-227,-274
-147,-303,-158,225,10,-235,749,908,383,-22,-221,-274
-147,-303,-158,225,10,-235,761,926,395,-16,-215,-262
-141,-291,-152,219,10,-223,761,932,413,2,-203,-262
-141,-285,-146,213,4,-217,761,944,425,8,-197,-262
-141,-279,-140,213,4,-211,761,950,437,20,-179,-262
-129,-267,-140,201,10,-205,755,950,443,26,-173,-262
-123,-261,-140,195,10,-205,755,944,443,32,-161,-250
-117,-261,-146,189,15,-205,755,944,449,37,-161,-244
-111,-261,-152,189,15,-211,749,932,449,37,-149,-238
-111,-255,-146,183,15,-205,743,926,449,37,-143,-232
-111,-255,-146,183,15,-205,737,914,449,43,-137,-220
-99,-237,-140,171,15,-193,731,908,449,49,-125,-214
-93,-231,-140,165,15,-187,719,884,455,55,-119,-208
-87,-231,-146,159,21,-193,713,866,455,55,-113,-196
-81,-231,-146,153,21,-187,701,854,443,61,-107,-190
-81,-231,-146,153,21,-187,683,836,443,67,-107,-178
-75,-231,-152,153,27,-193,665,812,437,73,-95,-178
-69,-219,-146,141,27,-181,647,794,437,79,-95,-172
-63,-213,-146,135,33,-181,641,764,425,79,-95,-166
-63,-213,-146,135,33,-181,623,740,419,73,-89,-166
-63,-213,-146,135,33,-181,611,722,395,73,-83,-172
-51,-201,-146,123,39,-175,593,686,389,67,-83,-166
-51,-195,-140,123,33,-169,563,656,383,67,-83,-154
-51,-189,-134,117,33,-163,545,620,371,67,-83,-148
-51,-183,-128,117,27,-157,521,578,359,67,-83,-136
-45,-177,-128,111,33,-151,503,548,347,55,-83,-124
-39,-165,-122,99,33,-145,479,512,323,49,-77,-118
-33,-159,-122,93,33,-139,461,488,317,49,-77,-112
-21,-147,-122,81,39,-133,425,452,293,49,-71,-100
-15,-141,-122,75,45,-133,407,410,275,43,-65,-94
-15,-129,-110,69,39,-121,389,374,269,43,-59,-88
-15,-123,-104,69,33,-115,365,338,251,37,-59,-88
-3,-117,-110,57,45,-115,353,302,245,37,-53,-76
-3,-105,-98,51,39,-103,335,266,239,37,-53,-76
-15,-99,-80,57,21,-91,317,242,221,37,-53,-76
-15,-99,-80,57,21,-91,293,218,209,32,-53,-76
-21,-93,-68,57,15,-79,275,194,191,32,-53,-70
-21,-87,-62,51,15,-73,263,164,179,26,-53,-76
-21,-81,-56,51,15,-67,239,140,161,20,-53,-76
-21,-81,-56,51,15,-67,233,122,149,20,-53,-76
-21,-81,-56,51,15,-67,227,104,137,14,-53,-70
-27,-81,-50,51,15,-67,209,80,125,14,-53,-70
-27,-81,-50,51,15,-67,197,56,113,8,-53,-76
-27,-75,-44,51,10,-61,191,38,107,2,-53,-70
-27,-75,-44,51,10,-61,185,14,101,-4,-53,-76
-27,-75,-44,51,10,-61,173,2,101,-4,-53,-70
-27,-69,-38,45,10,-55,161,-3,89,-16,-59,-76
-33,-69,-32,51,4,-49,161,-9,77,-22,-59,-76
-27,-69,-38,45,10,-55,143,-21,59,-34,-65,-82
-27,-69,-38,45,10,-55,137,-33,41,-34,-65,-82
-33,-63,-26,45,-2,-43,131,-33,41,-34,-59,-82
-33,-63,-26,45,-2,-43,125,-45,41,-34,-59,-82
-39,-63,-20,51,-8,-43,119,-51,41,-34,-53,-82
-45,-63,-15,51,-14,-37,113,-57,35,-40,-53,-82
-45,-69,-20,57,-8,-43,119,-57,35,-40,-47,-82
-45,-69,-20,57,-8,-43,113,-63,35,-40,-47,-76
-45,-69,-20,57,-8,-43,113,-63,41,-46,-41,-70
-45,-69,-20,57,-8,-43,107,-63,35,-46,-41,-70
-45,-69,-20,57,-8,-43,107,-69,35,-46,-41,-70
-45,-63,-15,51,-14,-37,107,-69,35,-46,-41,-64
-45,-63,-15,51,-14,-37,107,-69,29,-40,-47,-64
-45,-63,-15,51,-14,-37,107,-75,29,-40,-47,-64
-45,-69,-20,57,-8,-43,95,-75,23,-40,-53,-70
-45,-69,-20,57,-8,-43,95,-75,23,-40,-53,-76
-45,-75,-26,57,-8,-49,89,-81,11,-46,-47,-82
-45,-75,-26,57,-8,-49,83,-81,11,-46,-47,-88
-45,-69,-20,57,-8,-43,83,-87,17,-46,-47,-88
-45,-63,-15,51,-14,-37,83,-87,17,-46,-47,-88
-45,-51,-15,45,-20,-25,83,-93,17,-40,-47,-82
-45,-45,-9,45,-20,-19,83,-93,17,-40,-47,-82
-45,-51,-15,45,-20,-25,77,-87,17,-40,-41,-82
-45,-51,-15,45,-20,-25,77,-87,17,-34,-41,-76
-45,-57,-15,51,-14,-31,77,-81,17,-34,-35,-76
-45,-57,-15,51,-14,-31,77,-87,17,-34,-35,-76
-45,-57,-15,51,-14,-31,77,-87,17,-34,-35,-76
-45,-57,-15,51,-14,-31,77,-81,23,-34,-35,-76
-45,-57,-15,51,-14,-31,77,-81,23,-34,-35,-76
-45,-57,-15,51,-14,-31,77,-81,23,-34,-29,-76
-45,-45,-9,45,-20,-19,77,-75,17,-28,-23,-64
-45,-45,-9,45,-20,-19,77,-75,17,-28,-23,-64
-45,-39,-3,39,-26,-13,77,-75,17,-28,-23,-64
-45,-33,3,39,-26,-7,77,-75,23,-28,-23,-64
-51,-33,9,39,-32,-7,83,-69,29,-22,-23,-64
-51,-27,15,39,-38,-2,83,-69,29,-22,-23,-64
-57,-27,21,39,-44,-2,83,-69,35,-10,-17,-64
-57,-27,21,39,-44,-2,83,-69,35,-10,-17,-58
-51,-27,15,39,-38,-2,89,-63,35,-16,-11,-64
-51,-27,15,39,-38,-2,95,-63,41,-10,-5,-64
-45,-27,9,33,-32,-2,101,-63,41,-16,-5,-70
-45,-27,9,33,-32,-2,101,-57,41,-10,-5,-64
-45,-15,21,27,-38,-2,95,-57,47,-10,-5,-64
-45,-15,21,27,-38,-2,101,-57,47,-10,-5,-64
-51,-9,33,27,-44,4,95,-51,47,-10,-5,-58
-51,-9,33,27,-44,4,95,-51,47,-10,-5,-58
-51,-9,33,27,-44,4,95,-51,53,-4,1,-58
-51,-9,33,27,-44,4,95,-51,53,-4,1,-52
-51,-15,27,33,-44,-2,95,-51,53,-4,7,-52
-51,-9,33,27,-44,4,101,-51,53,2,7,-52
-51,-9,33,27,-44,4,107,-45,53,2,12,-52
-51,-9,33,27,-44,4,107,-45,53,2,12,-52
-51,-9,33,27,-44,4,119,-45,53,2,12,-52
-45,-9,27,27,-38,4,119,-45,53,2,12,-52
-45,-15,21,27,-38,-2,113,-45,59,8,7,-46
-45,-15,21,27,-38,-2,113,-45,59,2,7,-46
-45,-15,21,27,-38,-2,107,-45,59,2,7,-46
-45,-15,21,27,-38,-2,107,-39,59,2,12,-46
-45,-9,27,27,-38,4,107,-45,53,-4,12,-52
-45,-9,27,27,-38,4,107,-45,53,-4,12,-52
-45,-3,33,21,-44,10,107,-51,53,-4,12,-52
-45,-3,33,21,-44,10,113,-57,47,-4,12,-46
-51,-9,33,27,-44,4,113,-57,41,-10,7,-46
-51,-9,33,27,-44,4,113,-57,41,-10,1,-46
-57,-15,33,33,-50,4,113,-57,35,-22,1,-52
-57,-21,27,39,-44,-2,107,-63,35,-22,-5,-52
-51,-21,21,33,-38,-2,113,-57,35,-16,1,-52
-51,-21,21,33,-38,-2,107,-57,35,-22,1,-52
-45,-21,15,33,-32,-2,113,-51,41,-16,7,-58
-45,-21,15,33,-32,-2,113,-51,35,-16,1,-58
-51,-33,9,39,-32,-7,113,-57,35,-22,7,-58
-57,-33,15,45,-38,-2,113,-63,29,-28,7,-58
-63,-39,15,51,-44,-7,113,-69,23,-28,12,-58
-63,-39,15,51,-44,-7,113,-69,17,-28,1,-58
-57,-39,9,45,-38,-7,113,-69,17,-28,-5,-58
-57,-39,9,45,-38,-7,107,-75,17,-34,1,-58
-51,-33,9,39,-32,-7,107,-75,11,-34,-5,-64
-51,-33,9,39,-32,-7,107,-75,11,-40,-5,-64
-45,-33,3,39,-26,-7,107,-75,11,-40,-11,-70
-45,-33,3,39,-26,-7,107,-81,5,-40,-11,-70
-45,-39,-3,39,-26,-13,107,-81,5,-46,-17,-76
-45,-39,-3,39,-26,-13,107,-81,5,-46,-17,-82
-39,-39,-9,39,-20,-19,107,-81,5,-46,-11,-70
-39,-39,-9,39,-20,-19,95,-87,5,-46,-5,-82
-51,-45,-3,45,-26,-19,95,-87,-6,-46,-5,-76
-51,-45,-3,45,-26,-19,107,-75,5,-46,1,-64
-45,-45,-9,45,-20,-19,101,-87,5,-40,7,-58
-45,-51,-15,45,-20,-25,95,-87,5,-46,1,-64
-45,-57,-15,51,-14,-31,95,-87,5,-46,1,-64
-45,-63,-15,51,-14,-37,89,-87,0,-52,-5,-70
-45,-69,-20,57,-8,-43,89,-87,0,-52,-5,-70
-45,-69,-20,57,-8,-43,89,-99,-6,-58,-11,-82
-45,-69,-20,57,-8,-43,89,-105,-12,-58,-23,-88
-45,-75,-26,57,-8,-49,89,-111,-18,-64,-29,-100
-45,-75,-26,57,-8,-49,89,-111,-18,-70,-41,-106
-51,-69,-15,57,-14,-43,89,-105,-18,-70,-35,-100
-51,-69,-15,57,-14,-43,89,-105,-18,-70,-35,-100
-57,-63,-15,57,-26,-31,89,-99,-24,-70,-29,-94
-57,-63,-15,57,-26,-31,89,-99,-24,-70,-29,-94
-51,-69,-15,57,-14,-43,89,-105,-30,-76,-35,-100
-51,-69,-15,57,-14,-43,89,-111,-30,-76,-35,-100
-45,-75,-26,57,-8,-49,95,-117,-36,-82,-41,-106
-45,-75,-26,57,-8,-49,95,-123,-36,-82,-41,-106
-51,-81,-26,63,-8,-55,95,-129,-36,-82,-35,-106
-51,-81,-26,63,-8,-55,95,-129,-36,-88,-35,-106
-57,-81,-20,69,-14,-49,95,-129,-36,-88,-29,-112
-57,-81,-20,69,-14,-49,95,-129,-36,-88,-29,-112
-57,-87,-26,69,-14,-55,95,-129,-30,-88,-29,-112
-63,-87,-20,75,-20,-55,95,-129,-36,-88,-29,-112
-63,-93,-26,75,-14,-61,95,-129,-30,-88,-29,-112
-63,-93,-26,75,-14,-61,95,-129,-30,-88,-29,-112
-57,-81,-20,69,-14,-49,95,-123,-18,-82,-29,-106
-51,-75,-20,63,-14,-49,95,-123,-18,-82,-29,-106
-45,-69,-20,57,-8,-43,95,-117,-12,-76,-29,-100
-39,-57,-15,45,-8,-37,95,-117,-12,-76,-29,-94
-39,-45,-15,39,-14,-25,101,-111,0,-70,-17,-88
-39,-33,-3,33,-20,-13,107,-105,0,-58,-5,-82
-45,-9,27,27,-38,4,113,-87,5,-52,1,-76
-39,3,33,15,-38,10,119,-81,5,-46,7,-58
-39,8,45,9,-44,22,119,-69,17,-28,12,-58
-39,8,45,9,-44,22,131,-69,23,-22,12,-52
-33,20,57,-3,-44,40,137,-63,29,-10,12,-52
-27,38,69,-15,-50,52,143,-51,35,2,18,-46
-21,50,75,-15,-50,64,143,-39,41,8,24,-46
-27,44,75,-15,-50,58,149,-39,47,8,30,-40
-33,44,81,-15,-56,64,149,-45,41,8,30,-46
-39,56,99,-15,-68,76,155,-51,47,8,36,-46
-33,74,111,-15,-74,94,155,-45,59,14,48,-28
-33,86,123,-20,-80,106,149,-45,65,20,54,-22
-27,110,141,-32,-86,124,149,-45,71,32,66,-10
-27,116,147,-38,-86,130,149,-45,77,32,72,-5
-27,128,159,-44,-92,142,131,-57,71,32,84,-5
-21,140,165,-50,-92,154,107,-57,77,37,90,1
-15,152,171,-62,-92,160,89,-69,77,37,102,1
-9,164,177,-68,-92,172,83,-69,83,49,114,19
-3,176,183,-80,-92,178,77,-75,77,49,120,25
9,170,165,-80,-80,166,77,-81,77,49,114,19
15,164,153,-80,-68,160,71,-87,65,43,102,7
20,152,135,-80,-56,142,59,-93,59,37,96,1
3,134,135,-62,-68,136,71,-87,65,37,96,1
20,140,123,-74,-50,130,65,-87,59,37,102,13
20,122,105,-62,-44,112,59,-99,47,26,90,7
9,98,93,-44,-44,94,59,-105,23,14,72,-5
9,62,57,-26,-26,58,59,-111,11,-4,60,-22
-9,44,57,-15,-32,52,59,-123,5,-10,48,-28
-15,38,57,-15,-38,46,47,-123,5,-10,42,-34
-15,20,39,-9,-26,28,47,-135,0,-22,42,-28
-21,-3,9,9,-20,-2,23,-147,0,-22,36,-46
-21,-27,-15,21,-8,-13,11,-159,-18,-46,24,-64
-27,-39,-15,33,-8,-25,-1,-171,-42,-58,12,-88
-27,-63,-32,45,4,-49,-12,-171,-42,-70,12,-100
-15,-75,-56,45,15,-67,-24,-183,-54,-70,1,-106
-9,-93,-80,51,27,-85,-54,-195,-72,-82,-17,-106
-9,-87,-74,45,21,-79,-84,-213,-72,-76,-5,-106
3,-99,-98,45,39,-97,-126,-237,-84,-64,1,-94
20,-111,-140,39,75,-121,-198,-291,-102,-64,1,-94
44,-111,-164,27,99,-133,-258,-339,-114,-64,1,-88
74,-81,-164,-3,117,-121,-318,-369,-102,-46,24,-64
104,-45,-158,-20,129,-97,-360,-387,-78,-10,48,-28
116,-15,-140,-44,123,-73,-384,-399,-72,14,84,-5
134,8,-128,-68,129,-55,-414,-417,-66,37,102,1
158,20,-134,-86,147,-49,-438,-405,-36,61,138,37
164,44,-116,-104,141,-25,-456,-405,-6,103,168,61
182,80,-98,-128,141,-2,-474,-393,5,139,204,97
212,134,-74,-170,141,28,-516,-405,47,187,240,127
242,188,-50,-212,147,64,-552,-405,95,241,276,175
278,236,-44,-254,165,94,-576,-393,155,301,330,217
320,272,-44,-296,183,112,-594,-333,227,379,390,247
362,296,-62,-326,213,118,-606,-261,287,451,438,289
392,332,-56,-362,225,136,-618,-207,347,505,498,337
392,386,-15,-386,201,190,-594,-153,401,553,540,379
404,446,33,-422,183,238,-564,-99,461,613,582,421
434,524,87,-482,171,310,-564,-105,527,685,654,481
470,614,141,-536,159,382,-582,-183,581,757,714,541
464,680,213,-566,123,448,-600,-297,599,775,738,571
458,728,261,-590,93,496,-618,-483,575,769,738,577
440,752,309,-596,57,532,-654,-717,503,739,738,583
440,758,315,-596,57,538,-672,-903,437,709,738,577
458,794,333,-626,57,568,-660,-975,419,721,750,601
464,854,387,-656,33,622,-666,-1011,407,739,786,649
458,920,459,-686,4,694,-732,-1125,371,739,816,691
476,992,513,-734,-14,754,-852,-1263,341,763,858,727
506,1100,591,-800,-38,850,-1002,-1365,311,787,912,793
524,1208,675,-866,-68,946,-1182,-1509,221,823,990,895
548,1322,765,-938,-104,1048,-1362,-1725,71,859,1080,1009
590,1466,867,-1022,-134,1168,-1536,-1923,5,931,1218,1147
650,1622,963,-1136,-158,1294,-1722,-2055,-36,1051,1374,1303
698,1784,1083,-1238,-194,1438,-1914,-2217,-114,1153,1524,1459
752,1868,1113,-1304,-182,1492,-2046,-2349,-216,1225,1650,1597
788,1880,1083,-1334,-146,1480,-2130,-2391,-258,1291,1740,1681
806,1868,1053,-1334,-122,1462,-2184,-2379,-282,1345,1806,1753
836,1844,999,-1340,-80,1426,-2220,-2391,-312,1399,1866,1837
878,1844,957,-1358,-38,1408,-2268,-2367,-348,1447,1932,1903
896,1850,951,-1370,-20,1402,-2256,-2319,-360,1489,1980,1963
896,1784,885,-1340,10,1336,-2172,-2193,-318,1543,2004,1975
908,1688,771,-1292,63,1228,-2040,-2013,-216,1627,2028,1957
902,1574,669,-1232,111,1126,-1896,-1815,-108,1699,2052,1945
878,1454,567,-1166,153,1012,-1752,-1647,-42,1711,2010,1873
860,1262,399,-1058,231,832,-1596,-1473,-18,1633,1896,1735
800,1052,243,-926,273,652,-1422,-1305,-18,1483,1698,1531
680,788,105,-734,279,454,-1182,-1101,-36,1249,1410,1243
560,458,-104,-506,333,178,-936,-903,-90,901,1008,883
434,176,-254,-302,345,-31,-726,-753,-192,523,618,541
266,8,-254,-140,261,-115,-510,-633,-276,211,312,271
116,-105,-230,-15,171,-163,-318,-525,-342,-28,60,19
20,-177,-200,75,105,-187,-186,-447,-396,-184,-95,-130
9,-201,-206,93,99,-205,-132,-375,-384,-190,-89,-154
15,-213,-224,99,111,-217,-90,-309,-336,-142,-47,-136
-9,-231,-218,117,93,-223,-42,-237,-294,-136,-59,-154
-33,-231,-200,135,75,-217,-1,-207,-264,-136,-71,-184
-57,-231,-170,141,45,-199,29,-177,-240,-136,-77,-196
-63,-237,-176,153,45,-211,47,-159,-228,-154,-101,-220
-87,-249,-164,171,27,-211,65,-153,-222,-190,-143,-232
-99,-255,-158,177,21,-211,83,-135,-210,-202,-155,-238
-105,-267,-164,189,21,-217,107,-93,-192,-202,-161,-250
-105,-279,-176,195,27,-229,131,-75,-192,-214,-167,-256
-111,-285,-176,201,21,-235,143,-51,-192,-214,-167,-268
-111,-291,-182,201,27,-241,143,-33,-192,-220,-167,-280
-117,-303,-188,213,27,-241,155,-33,-192,-226,-173,-280
-123,-303,-182,213,21,-241,149,-39,-192,-226,-179,-292
-123,-303,-182,213,21,-241,161,-39,-186,-238,-185,-298
-123,-309,-188,219,21,-247,167,-33,-192,-244,-197,-316
-135,-309,-176,225,15,-241,173,-27,-180,-244,-197,-316
-135,-315,-182,225,15,-247,191,-15,-180,-244,-203,-322
-135,-315,-182,225,15,-247,197,-9,-174,-244,-203,-322
-135,-315,-182,225,15,-247,203,2,-162,-244,-203,-316
-135,-315,-182,225,15,-247,215,8,-156,-238,-203,-310
-135,-315,-182,225,15,-247,227,20,-144,-238,-203,-304
-135,-315,-182,225,15,-247,227,32,-144,-238,-197,-298
-135,-315,-182,225,15,-247,221,32,-144,-238,-197,-304
-135,-315,-182,225,15,-247,227,38,-138,-238,-197,-310
-135,-309,-176,225,15,-241,227,38,-132,-238,-197,-316
-135,-309,-176,225,15,-241,233,44,-126,-238,-203,-322
-135,-315,-182,225,15,-247,239,50,-120,-232,-197,-322
-135,-315,-182,225,15,-247,251,56,-108,-232,-197,-322
-135,-315,-182,225,15,-247,263,62,-96,-220,-191,-310
-135,-315,-182,225,15,-247,269,74,-96,-220,-185,-310
-129,-309,-182,219,15,-241,269,80,-90,-214,-185,-310
-129,-309,-182,219,15,-241,275,98,-78,-208,-185,-310
-123,-303,-182,213,21,-241,269,98,-72,-202,-185,-304
-123,-303,-182,213,21,-241,275,104,-72,-202,-185,-304
-129,-303,-176,219,15,-241,281,116,-66,-202,-185,-310
-129,-303,-176,219,15,-241,287,134,-60,-202,-185,-310
-129,-303,-176,219,15,-241,287,140,-54,-202,-185,-310
-129,-297,-170,213,15,-235,293,158,-48,-202,-185,-310
-129,-297,-170,213,15,-235,311,170,-36,-196,-185,-310
-129,-297,-170,213,15,-235,317,182,-30,-196,-185,-310
-129,-297,-170,213,15,-235,335,194,-12,-196,-179,-310
-129,-297,-170,213,15,-235,341,206,-6,-190,-179,-310
-135,-297,-164,219,15,-235,341,218,0,-196,-179,-310
-135,-297,-164,219,15,-235,347,230,5,-184,-179,-310
-141,-303,-164,225,15,-235,359,242,5,-184,-179,-310
-141,-303,-164,225,15,-235,365,254,11,-184,-179,-310
-147,-303,-158,225,10,-235,377,266,11,-178,-179,-316
-147,-303,-158,225,10,-235,383,290,17,-172,-173,-310
-147,-297,-152,225,4,-229,401,302,29,-172,-173,-316
-147,-297,-152,225,4,-229,413,320,41,-172,-167,-322
-147,-303,-158,225,10,-235,431,344,53,-160,-173,-328
-147,-303,-158,225,10,-235,443,362,65,-154,-173,-328
-147,-309,-164,225,10,-241,461,398,77,-148,-179,-328
-147,-309,-164,225,10,-241,479,410,89,-142,-179,-328
-147,-315,-170,225,15,-241,485,440,101,-142,-179,-328
-147,-315,-170,225,15,-241,497,464,113,-142,-179,-328
-147,-315,-170,225,15,-241,509,488,125,-136,-173,-334
-147,-315,-170,225,15,-241,527,518,143,-130,-173,-334
-153,-315,-164,231,10,-241,551,548,167,-124,-173,-328
-153,-321,-170,231,10,-241,575,578,179,-112,-173,-328
-153,-321,-170,231,10,-241,599,608,197,-106,-173,-328
-153,-327,-176,237,15,-247,617,638,215,-100,-167,-328
-153,-327,-176,237,15,-247,641,668,221,-88,-173,-334
-153,-327,-176,237,15,-247,659,698,233,-76,-173,-334
-153,-327,-176,237,15,-247,677,728,251,-70,-179,-340
-159,-327,-170,237,10,-247,695,752,269,-64,-179,-346
-153,-321,-170,231,10,-241,707,776,281,-58,-179,-346
-153,-321,-170,231,10,-241,725,806,299,-52,-179,-346
-147,-321,-176,231,15,-247,731,830,311,-40,-167,-346
-147,-321,-176,231,15,-247,743,854,329,-28,-161,-340
-141,-321,-182,225,15,-247,749,866,347,-28,-161,-340
-141,-315,-176,225,15,-241,761,890,353,-10,-155,-340
-135,-315,-182,225,15,-247,773,896,371,2,-149,-346
-135,-315,-182,225,15,-247,785,914,383,8,-143,-334
-129,-315,-188,225,21,-247,785,914,389,20,-137,-328
-129,-309,-182,219,15,-241,785,926,401,26,-131,-328
-129,-315,-188,225,21,-247,785,926,401,32,-119,-322
-117,-303,-188,213,27,-241,779,926,407,37,-113,-322
-111,-291,-182,201,27,-241,779,920,407,37,-113,-322
-105,-291,-188,201,33,-241,779,920,407,37,-113,-316
-99,-285,-188,195,33,-241,773,908,407,37,-113,-316
-99,-279,-182,189,33,-235,767,902,401,37,-107,-310
-105,-285,-182,195,27,-235,761,896,401,43,-95,-292
-93,-267,-176,183,33,-223,755,890,401,49,-83,-280
-93,-267,-176,183,33,-223,737,872,407,55,-71,-268
-87,-267,-182,177,39,-229,731,854,407,55,-65,-250
-81,-261,-182,171,39,-223,725,830,389,49,-65,-250
-81,-261,-182,171,39,-223,707,812,389,49,-65,-244
-75,-261,-188,171,45,-229,689,776,377,43,-59,-244
-69,-249,-182,159,45,-217,671,758,377,43,-59,-244
-63,-249,-188,159,51,-223,653,734,365,49,-65,-238
-63,-249,-188,159,51,-223,635,710,353,49,-59,-238
-63,-255,-194,159,57,-229,611,686,329,55,-59,-244
-51,-243,-194,147,63,-223,593,650,317,55,-59,-238
-45,-237,-194,141,63,-217,569,626,311,49,-53,-226
-45,-231,-188,141,63,-211,551,590,299,49,-53,-220
-39,-231,-188,135,63,-211,533,554,287,43,-47,-208
-33,-225,-188,129,69,-205,515,524,275,37,-47,-196
-33,-213,-176,123,63,-193,491,488,251,37,-41,-196
-33,-207,-170,117,57,-187,479,464,245,37,-41,-190
-27,-195,-164,111,57,-181,449,428,227,37,-35,-184
-27,-189,-158,105,57,-175,431,386,209,37,-29,-178
-21,-177,-152,99,57,-163,401,350,197,37,-35,-178
-21,-171,-146,93,51,-157,377,314,179,32,-35,-178
-3,-165,-158,81,69,-163,353,278,161,26,-41,-172
-3,-153,-146,75,63,-151,335,242,155,20,-41,-172
-15,-153,-134,81,51,-145,323,218,149,20,-35,-160
-21,-153,-128,87,45,-139,299,200,137,14,-29,-154
-27,-153,-122,87,39,-139,287,176,131,14,-23,-136
-33,-147,-110,87,27,-127,275,152,119,14,-17,-136
-33,-135,-98,81,21,-115,251,128,101,8,-17,-142
-33,-129,-92,81,21,-109,239,110,89,8,-17,-142
-33,-123,-86,75,15,-103,239,92,77,2,-17,-142
-39,-117,-74,75,15,-97,221,68,65,2,-17,-142
-39,-117,-74,75,15,-97,215,56,53,2,-17,-136
-39,-111,-68,75,15,-91,209,44,47,-4,-17,-130
-39,-111,-68,75,15,-91,209,32,41,-4,-17,-124
-39,-111,-68,75,15,-91,197,20,41,-4,-17,-118
-39,-99,-56,69,10,-79,185,8,35,-16,-17,-124
-45,-99,-50,69,4,-73,185,2,29,-22,-17,-124
-39,-93,-50,63,10,-73,167,2,17,-34,-17,-130
-39,-93,-50,63,10,-73,161,-9,5,-34,-17,-130
-39,-93,-50,63,10,-73,155,-9,5,-34,-17,-130
-39,-93,-50,63,10,-73,149,-21,5,-34,-17,-130
-39,-99,-56,69,10,-79,143,-27,5,-34,-17,-130
-45,-99,-50,69,4,-73,137,-33,0,-40,-17,-130
-51,-99,-44,75,-2,-73,143,-39,0,-34,-17,-130
-51,-99,-44,75,-2,-73,137,-45,0,-34,-17,-130
-57,-93,-32,75,-8,-61,137,-51,5,-34,-17,-124
-57,-93,-32,75,-8,-61,131,-51,0,-34,-17,-130
-57,-87,-26,69,-14,-55,125,-57,0,-40,-11,-130
-57,-81,-20,69,-14,-49,125,-57,0,-40,-11,-124
-57,-75,-15,63,-20,-43,119,-57,-6,-40,-11,-124
-57,-75,-15,63,-20,-43,119,-63,-6,-40,-11,-124
-57,-81,-20,69,-14,-49,113,-63,-6,-40,-17,-124
-57,-81,-20,69,-14,-49,113,-63,-6,-40,-17,-124
-57,-87,-26,69,-14,-55,113,-69,-12,-46,-11,-124
-57,-87,-26,69,-14,-55,107,-69,-12,-46,-11,-124
-51,-87,-32,69,-8,-61,107,-63,-12,-46,-5,-124
-51,-87,-32,69,-8,-61,107,-63,-12,-46,-5,-124
-45,-81,-32,63,-2,-55,107,-57,-18,-40,1,-118
-45,-81,-32,63,-2,-55,107,-57,-18,-40,1,-118
-51,-81,-26,63,-8,-55,107,-57,-18,-40,1,-118
-51,-81,-26,63,-8,-55,107,-57,-18,-34,1,-112
-57,-81,-20,69,-14,-49,113,-57,-18,-34,1,-112
-57,-81,-20,69,-14,-49,113,-63,-18,-34,1,-112
-57,-81,-20,69,-14,-49,107,-57,-12,-40,-5,-118
-57,-81,-20,69,-14,-49,107,-51,-6,-40,-5,-118
-57,-81,-20,69,-14,-49,101,-45,0,-46,-11,-124
-57,-81,-20,69,-14,-49,101,-45,0,-46,-5,-124
-57,-69,-15,63,-20,-37,107,-39,-6,-34,1,-118
-57,-69,-15,63,-20,-37,107,-39,-6,-34,1,-118
-57,-63,-15,57,-26,-31,113,-39,-6,-28,1,-124
-57,-57,-9,57,-26,-25,113,-39,0,-28,1,-124
-57,-57,-9,57,-26,-25,119,-27,5,-22,7,-118
-57,-51,-3,51,-32,-19,119,-27,5,-22,7,-112
-57,-51,-3,51,-32,-19,119,-21,5,-10,12,-106
-57,-51,-3,51,-32,-19,119,-21,5,-10,12,-94
-57,-51,-3,51,-32,-19,125,-9,5,-10,12,-94
-57,-51,-3,51,-32,-19,131,-9,11,-4,18,-94
-57,-51,-3,51,-32,-19,137,-3,17,-4,18,-94
-57,-51,-3,51,-32,-19,137,2,17,2,18,-88
-51,-45,-3,45,-26,-19,137,2,23,8,18,-88
-51,-45,-3,45,-26,-19,143,2,23,8,18,-88
-51,-45,-3,45,-26,-19,143,2,23,14,18,-82
-51,-45,-3,45,-26,-19,143,2,23,14,18,-82
-51,-33,9,39,-32,-7,137,2,23,14,18,-88
-51,-33,9,39,-32,-7,137,2,23,8,18,-82
-51,-27,15,39,-38,-2,131,2,17,2,18,-88
-51,-21,21,33,-38,-2,137,2,17,2,18,-88
-57,-27,21,39,-44,-2,137,2,17,2,18,-88
-57,-27,21,39,-44,-2,137,2,17,2,18,-88
-63,-33,21,45,-44,-2,143,2,17,2,12,-88
-57,-33,15,45,-38,-2,143,2,17,2,12,-88
-57,-33,15,45,-38,-2,143,2,17,8,12,-82
-57,-33,15,45,-38,-2,143,2,17,2,12,-82
-57,-27,21,39,-44,-2,143,2,11,2,18,-82
-57,-27,21,39,-44,-2,143,2,11,2,24,-82
-57,-33,15,45,-38,-2,143,2,11,-4,18,-88
-57,-33,15,45,-38,-2,143,2,11,-4,18,-88
-57,-39,9,45,-38,-7,143,2,17,-4,12,-88
-57,-39,9,45,-38,-7,149,2,11,-4,12,-82
-57,-39,9,45,-38,-7,143,2,5,-10,12,-88
-57,-39,9,45,-38,-7,143,2,5,-10,12,-88
-57,-39,9,45,-38,-7,137,2,5,-22,12,-100
-57,-45,3,51,-32,-13,131,-3,5,-22,7,-100
-57,-45,3,51,-32,-13,131,-3,0,-22,7,-100
-57,-45,3,51,-32,-13,125,-3,0,-28,7,-100
-57,-45,3,51,-32,-13,125,-3,-6,-28,7,-106
-57,-45,3,51,-32,-13,125,-3,-12,-28,1,-106
-57,-51,-3,51,-32,-19,125,-3,-6,-34,1,-100
-63,-51,3,57,-38,-19,125,-9,-12,-40,1,-100
-63,-51,3,57,-38,-19,125,-9,-12,-40,1,-94
-63,-51,3,57,-38,-19,125,-9,-18,-40,-11,-94
-57,-57,-9,57,-26,-25,125,-15,-24,-46,-17,-100
-57,-57,-9,57,-26,-25,119,-21,-24,-52,-11,-100
-51,-57,-15,51,-20,-31,119,-27,-36,-58,-17,-112
-51,-57,-15,51,-20,-31,119,-27,-36,-64,-17,-112
-51,-57,-15,51,-20,-31,119,-27,-36,-58,-11,-112
-51,-57,-15,51,-20,-31,119,-33,-42,-58,-11,-112
-57,-63,-15,57,-26,-31,119,-33,-42,-58,-5,-112
-57,-63,-15,57,-26,-31,119,-33,-42,-58,-5,-118
-63,-69,-15,63,-26,-37,119,-33,-42,-58,-11,-118
-63,-69,-15,63,-26,-37,119,-39,-54,-70,-17,-118
-63,-81,-15,69,-20,-49,119,-39,-54,-70,-17,-124
-63,-81,-15,69,-20,-49,119,-39,-54,-70,-23,-124
-63,-81,-15,69,-20,-49,113,-39,-60,-76,-23,-124
-63,-81,-15,69,-20,-49,107,-45,-60,-76,-29,-124
-63,-75,-15,69,-26,-43,107,-45,-66,-94,-29,-124
-63,-81,-15,69,-20,-49,101,-51,-72,-94,-35,-124
-63,-69,-15,63,-26,-37,101,-51,-66,-82,-35,-130
-63,-69,-15,63,-26,-37,101,-51,-66,-82,-35,-130
-63,-81,-15,69,-20,-49,101,-57,-78,-88,-29,-118
-69,-81,-15,75,-26,-43,101,-63,-72,-88,-29,-118
-69,-75,-15,69,-32,-37,101,-63,-78,-94,-35,-124
-69,-75,-15,69,-32,-37,101,-63,-78,-94,-35,-124
-69,-69,-9,69,-32,-31,101,-63,-84,-100,-41,-130
-69,-69,-9,69,-32,-31,101,-63,-84,-100,-41,-130
-69,-75,-15,69,-32,-37,101,-63,-90,-106,-47,-136
-69,-75,-15,69,-32,-37,101,-69,-96,-106,-53,-136
-69,-87,-15,75,-26,-49,101,-63,-102,-112,-59,-142
-69,-87,-15,75,-26,-49,101,-63,-102,-118,-65,-142
-69,-87,-15,75,-26,-49,101,-63,-96,-112,-59,-142
-69,-87,-15,75,-26,-49,101,-63,-96,-112,-59,-142
-69,-87,-15,75,-26,-49,101,-63,-96,-106,-53,-142
-69,-87,-15,75,-26,-49,101,-63,-96,-106,-53,-142
-69,-87,-15,75,-26,-49,95,-69,-96,-106,-53,-136
-69,-87,-15,75,-26,-49,95,-69,-96,-106,-53,-136
-69,-87,-15,75,-26,-49,95,-75,-96,-106,-53,-130
-69,-87,-15,75,-26,-49,95,-75,-96,-106,-53,-130
-69,-93,-20,81,-20,-55,101,-81,-96,-106,-53,-130
-69,-93,-20,81,-20,-55,101,-81,-96,-112,-53,-130
-69,-93,-20,81,-20,-55,107,-81,-96,-112,-53,-136
-69,-93,-20,81,-20,-55,107,-81,-96,-112,-53,-136
-63,-93,-26,75,-14,-61,101,-81,-102,-118,-59,-136
-69,-93,-20,81,-20,-55,101,-81,-108,-118,-59,-136
-63,-93,-26,75,-14,-61,95,-81,-114,-124,-65,-136
-63,-93,-26,75,-14,-61,95,-81,-114,-124,-65,-136
-57,-81,-20,69,-14,-49,101,-75,-102,-118,-59,-130
-57,-75,-15,63,-20,-43,101,-69,-96,-112,-53,-130
-51,-69,-15,57,-14,-43,107,-63,-90,-106,-47,-124
-51,-57,-15,51,-20,-31,107,-57,-84,-100,-41,-118
-51,-45,-3,45,-26,-19,113,-51,-72,-94,-35,-112
-51,-33,9,39,-32,-7,125,-51,-72,-82,-23,-112
-57,-9,39,33,-50,10,131,-33,-60,-76,-23,-106
-51,3,45,21,-50,16,143,-33,-54,-70,-17,-94
-51,8,57,15,-56,28,143,-15,-36,-58,-5,-82
-51,8,63,15,-56,34,155,-15,-30,-52,1,-76
-45,26,75,3,-62,52,161,-3,-18,-46,12,-64
-39,50,93,-15,-68,70,167,2,-12,-34,12,-58
-33,62,99,-15,-68,82,167,8,-6,-28,12,-58
-39,56,99,-15,-68,76,173,8,0,-22,12,-52
-45,56,105,-15,-74,82,173,2,-6,-22,12,-58
-51,68,123,-15,-86,94,179,2,0,-16,12,-58
-45,86,135,-15,-92,112,173,2,5,-16,24,-40
-39,98,141,-20,-92,118,161,2,5,-10,30,-34
-33,122,159,-38,-98,142,155,2,5,-4,42,-22
-27,128,159,-44,-92,142,149,2,5,-4,48,-16
-27,134,165,-44,-98,148,137,2,5,2,48,-10
-21,146,171,-56,-98,160,119,2,5,8,54,-5
-15,152,171,-62,-92,160,107,2,5,20,54,-5
-9,164,177,-68,-92,172,107,2,11,37,66,7
-3,176,183,-80,-92,178,101,2,11,32,78,13
9,170,165,-80,-80,166,95,-3,11,32,72,7
15,164,153,-80,-68,160,89,-15,5,20,66,-5
20,152,135,-80,-56,142,71,-21,5,14,60,-5
15,146,135,-74,-62,142,83,-15,5,2,60,-5
9,140,135,-68,-62,136,77,-27,-12,-4,54,-5
9,122,117,-56,-56,118,71,-39,-36,-10,42,-16
9,110,105,-50,-50,106,59,-45,-36,-22,24,-22
9,98,93,-44,-44,94,59,-39,-48,-28,24,-22
-9,68,81,-20,-44,76,47,-51,-60,-34,12,-40
-15,38,57,-15,-38,46,47,-63,-60,-46,7,-58
-27,20,51,-3,-38,34,47,-63,-72,-58,7,-64
-33,8,33,9,-38,16,35,-75,-84,-58,1,-70
-33,-3,21,15,-32,4,11,-99,-102,-82,-11,-76
-39,-27,3,33,-26,-7,-1,-99,-114,-94,-23,-88
-27,-27,-9,27,-14,-13,-1,-111,-114,-106,-35,-88
-27,-51,-20,39,-2,-37,-24,-123,-126,-106,-35,-94
-21,-69,-44,45,15,-55,-54,-135,-132,-106,-29,-94
-9,-75,-62,39,15,-67,-96,-153,-132,-100,-29,-94
15,-75,-86,27,39,-79,-138,-177,-144,-100,-35,-106
32,-75,-116,15,69,-91,-210,-237,-162,-100,-47,-106
56,-75,-140,3,93,-103,-282,-291,-174,-112,-47,-100
86,-69,-164,-15,123,-115,-330,-321,-174,-94,-23,-88
104,-33,-146,-26,123,-85,-372,-339,-150,-58,12,-64
116,-15,-140,-44,123,-73,-408,-363,-144,-22,36,-22
134,3,-140,-62,135,-67,-438,-369,-126,2,54,1
158,20,-134,-86,147,-49,-450,-357,-108,37,90,37
164,68,-92,-116,129,-2,-468,-333,-78,67,144,73
194,104,-86,-146,141,4,-486,-321,-30,115,180,109
236,134,-98,-182,165,16,-528,-333,5,163,216,139
260,200,-62,-230,165,64,-576,-357,35,205,246,175
290,254,-32,-272,165,112,-588,-333,95,271,282,205
332,272,-56,-302,195,106,-594,-273,167,331,330,235
374,296,-74,-332,225,112,-618,-207,221,391,378,277
404,344,-56,-374,231,142,-606,-147,263,445,438,313
416,422,-3,-416,207,214,-570,-69,317,511,498,379
428,494,57,-458,183,274,-540,-15,389,577,558,433
458,572,111,-512,171,346,-552,-9,473,649,618,493
482,626,141,-548,165,388,-582,-75,509,697,666,541
488,680,189,-578,147,436,-588,-207,515,721,678,559
482,716,225,-596,123,478,-630,-411,485,697,666,553
476,740,261,-608,99,502,-654,-657,413,655,666,559
476,770,291,-620,87,532,-660,-819,377,649,666,565
494,818,321,-656,81,574,-648,-873,371,673,708,601
488,878,387,-680,45,634,-666,-933,371,691,744,649
494,968,471,-728,15,724,-762,-1065,347,703,780,691
518,1040,513,-776,10,778,-912,-1209,317,727,822,751
548,1124,567,-836,-2,850,-1086,-1341,263,757,888,829
560,1226,663,-896,-44,952,-1260,-1545,149,775,948,919
584,1370,777,-980,-92,1078,-1434,-1797,23,811,1044,1033
626,1532,903,-1076,-134,1216,-1620,-1989,-30,895,1194,1183
686,1694,999,-1190,-158,1348,-1818,-2163,-96,997,1338,1339
734,1808,1071,-1268,-170,1444,-1992,-2337,-198,1069,1470,1483
770,1868,1089,-1316,-158,1480,-2106,-2432,-282,1117,1566,1597
812,1856,1035,-1334,-110,1450,-2178,-2426,-306,1189,1662,1693
866,1856,981,-1358,-56,1426,-2238,-2426,-330,1255,1722,1765
908,1880,963,-1394,-26,1426,-2292,-2432,-396,1279,1782,1849
938,1880,939,-1406,4,1414,-2328,-2426,-432,1327,1860,1927
944,1838,891,-1388,21,1366,-2280,-2343,-420,1381,1902,1975
956,1760,801,-1358,69,1282,-2172,-2187,-354,1453,1926,1963
956,1700,735,-1322,105,1216,-2040,-1977,-246,1519,1938,1945
938,1598,657,-1262,135,1132,-1896,-1779,-144,1579,1950,1927
914,1454,531,-1184,189,994,-1752,-1599,-78,1579,1896,1849
884,1274,387,-1076,249,832,-1608,-1455,-66,1501,1776,1711
812,1064,243,-938,279,658,-1422,-1257,-66,1351,1578,1495
704,776,69,-740,309,430,-1194,-1065,-96,1129,1278,1219
584,494,-92,-536,339,202,-960,-891,-186,793,930,895
446,254,-188,-350,315,34,-744,-741,-270,475,594,589
290,68,-224,-182,255,-67,-534,-621,-348,187,312,307
128,-81,-218,-15,171,-145,-330,-489,-426,-76,24,43
26,-165,-200,63,111,-181,-198,-387,-468,-226,-131,-118
-3,-177,-170,87,75,-175,-132,-315,-444,-244,-137,-142
3,-189,-188,93,87,-187,-102,-249,-396,-208,-119,-136
-9,-207,-194,105,81,-199,-54,-207,-378,-196,-131,-166
-45,-225,-176,135,57,-199,-12,-147,-348,-196,-143,-184
-57,-231,-170,141,45,-199,17,-117,-324,-196,-137,-184
-75,-219,-140,147,21,-181,47,-111,-306,-208,-161,-208
-87,-231,-140,159,15,-187,77,-93,-300,-232,-191,-220
-99,-255,-158,177,21,-211,95,-75,-288,-238,-203,-238
-105,-255,-152,183,15,-205,119,-33,-270,-250,-197,-244
-105,-255,-152,183,15,-205,131,-3,-270,-262,-215,-244
-111,-273,-164,195,15,-223,143,2,-270,-274,-227,-256
-111,-285,-176,201,21,-235,149,14,-264,-274,-227,-268
-117,-297,-182,207,21,-241,161,20,-264,-280,-227,-274
-123,-303,-182,213,21,-241,161,14,-258,-274,-233,-286
-123,-303,-182,213,21,-241,173,20,-252,-286,-239,-298
-123,-297,-176,213,15,-241,185,26,-252,-292,-239,-304
-135,-297,-164,219,15,-235,191,32,-240,-292,-239,-304
-135,-291,-158,213,15,-229,215,44,-234,-292,-233,-298
-135,-291,-158,213,15,-229,221,50,-234,-292,-233,-298
-135,-291,-158,213,15,-229,221,68,-222,-292,-239,-298
-135,-291,-158,213,15,-229,233,80,-216,-286,-239,-298
-135,-291,-158,213,15,-229,239,92,-204,-286,-245,-298
-135,-291,-158,213,15,-229,239,104,-204,-286,-239,-298
-141,-297,-158,219,10,-229,239,104,-204,-280,-239,-298
-141,-297,-158,219,10,-229,239,110,-198,-280,-239,-298
-147,-297,-152,225,4,-229,245,110,-192,-274,-239,-298
-147,-297,-152,225,4,-229,251,116,-186,-274,-245,-298
-147,-297,-152,225,4,-229,251,122,-192,-274,-245,-298
-147,-297,-152,225,4,-229,263,128,-180,-274,-245,-298
-147,-291,-146,219,4,-223,263,134,-180,-268,-245,-286
-147,-291,-146,219,4,-223,269,146,-180,-268,-239,-286
-141,-291,-152,219,10,-223,281,158,-168,-268,-245,-292
-141,-291,-152,219,10,-223,287,176,-156,-262,-245,-292
-135,-291,-158,213,15,-229,293,182,-144,-262,-251,-292
-135,-291,-158,213,15,-229,299,188,-144,-262,-251,-292
-141,-285,-146,213,4,-217,305,194,-138,-256,-245,-292
-141,-285,-146,213,4,-217,311,212,-132,-250,-245,-292
-141,-279,-140,213,4,-211,311,212,-126,-244,-239,-286
-141,-273,-134,207,-2,-205,317,230,-120,-244,-239,-286
-141,-273,-134,207,-2,-205,329,242,-114,-238,-239,-286
-141,-273,-134,207,-2,-205,335,248,-108,-238,-239,-286
-141,-273,-134,207,-2,-205,347,260,-96,-238,-233,-286
-141,-273,-134,207,-2,-205,353,272,-90,-232,-233,-286
-147,-273,-128,213,-8,-205,359,284,-78,-238,-239,-286
-147,-273,-128,213,-8,-205,365,296,-72,-226,-239,-286
-153,-279,-128,219,-8,-205,383,308,-66,-226,-245,-286
-153,-279,-128,219,-8,-205,389,326,-48,-226,-245,-286
-153,-279,-128,219,-8,-205,401,344,-42,-220,-239,-292
-153,-279,-128,219,-8,-205,407,368,-36,-214,-233,-292
-147,-273,-128,213,-8,-205,425,386,-18,-214,-227,-298
-147,-273,-128,213,-8,-205,437,404,-6,-214,-227,-310
-147,-279,-134,213,-2,-211,455,428,0,-202,-227,-310
-147,-279,-134,213,-2,-211,467,446,5,-202,-227,-310
-147,-285,-140,219,-2,-217,485,482,5,-196,-233,-304
-147,-285,-140,219,-2,-217,497,488,17,-190,-233,-304
-153,-291,-140,225,-2,-217,515,518,29,-190,-239,-304
-153,-291,-140,225,-2,-217,527,542,41,-190,-239,-304
-159,-291,-134,225,-8,-217,545,566,53,-184,-239,-310
-159,-291,-134,225,-8,-217,563,602,71,-178,-239,-310
-165,-285,-122,225,-20,-205,581,632,95,-172,-239,-310
-165,-291,-128,225,-14,-211,605,662,107,-160,-239,-310
-165,-285,-122,225,-20,-205,623,692,125,-154,-239,-316
-165,-291,-128,225,-14,-211,641,722,143,-148,-233,-316
-165,-291,-128,225,-14,-211,671,746,149,-136,-233,-316
-165,-291,-128,225,-14,-211,689,776,161,-124,-233,-316
-165,-291,-128,225,-14,-211,713,806,185,-118,-233,-316
-171,-291,-122,225,-20,-211,731,836,203,-112,-233,-322
-165,-297,-134,225,-14,-217,737,866,215,-106,-239,-322
-165,-297,-134,225,-14,-217,755,896,233,-100,-239,-322
-159,-309,-152,231,-2,-235,767,926,245,-88,-233,-322
-159,-309,-152,231,-2,-235,779,950,257,-76,-227,-316
-159,-309,-152,231,-2,-235,791,968,275,-70,-227,-316
-159,-303,-146,225,-2,-229,803,986,281,-52,-227,-316
-159,-303,-146,225,-2,-229,821,998,299,-34,-221,-322
-159,-303,-146,225,-2,-229,833,1016,311,-28,-215,-310
-147,-291,-146,219,4,-223,839,1022,323,-16,-203,-298
-147,-285,-140,219,-2,-217,839,1034,335,-10,-197,-292
-141,-279,-140,213,4,-211,845,1040,341,-4,-179,-280
-129,-267,-140,201,10,-205,839,1040,347,2,-173,-274
-123,-261,-140,195,10,-205,833,1034,347,8,-167,-274
-117,-261,-146,189,15,-205,833,1034,353,14,-167,-268
-111,-261,-152,189,15,-211,821,1022,353,20,-161,-268
-111,-255,-146,183,15,-205,815,1016,353,26,-155,-262
-117,-255,-140,189,15,-199,815,1004,347,32,-155,-250
-105,-237,-134,171,15,-187,809,998,347,37,-143,-244
-105,-231,-128,171,15,-181,797,974,347,37,-143,-244
-99,-231,-134,165,15,-187,791,962,347,37,-137,-232
