,,,,,,,,,,,
2019-09-04 23:52:06,,,,,,,,,,,
,,,,,,,,,,,
I,II,III,aVR,aVL,aVF,V1,V2,V3,V4,V5,V6
-59,-120,-62,83,-2,-94,-13,-149,-356,-188,-139,-110
-53,-114,-62,83,4,-88,-13,-143,-344,-182,-133,-104
-47,-108,-62,71,4,-88,-19,-131,-332,-170,-121,-98
-41,-96,-56,65,4,-76,-19,-125,-320,-158,-109,-92
-35,-84,-50,53,4,-70,-13,-107,-308,-146,-97,-86
-30,-72,-44,47,4,-58,-13,-95,-290,-134,-91,-74
-35,-60,-26,41,-8,-46,-13,-83,-272,-116,-73,-56
-30,-48,-20,35,-8,-34,-19,-65,-254,-98,-55,-44
-19,-42,-26,29,4,-34,-13,-60,-236,-86,-32,-26
-19,-36,-20,23,-2,-28,-7,-43,-212,-68,-27,-14
-7,-36,-32,18,10,-34,-1,-31,-194,-56,-15,4
-1,-36,-38,18,16,-34,-7,-19,-176,-50,-3,9
5,-36,-44,13,22,-40,-13,-7,-164,-45,3,14
23,-42,-68,13,46,-52,-13,17,-140,-34,21,32
35,-48,-86,7,58,-64,-13,41,-110,-10,33,44
47,-54,-104,7,76,-76,-19,71,-86,8,51,62
65,-60,-128,-5,94,-94,-31,95,-62,32,69,74
71,-78,-152,7,112,-112,-25,137,-40,56,87,86
89,-90,-182,1,136,-136,-13,185,-4,92,117,104
113,-102,-218,-5,166,-160,5,245,44,140,147,128
131,-114,-248,-5,190,-178,23,311,98,194,183,158
149,-138,-290,-5,220,-214,47,389,164,248,225,188
173,-156,-332,-11,250,-244,71,479,248,314,267,230
197,-162,-362,-17,280,-262,95,575,344,386,315,272
233,-174,-410,-29,322,-292,107,677,440,464,381,320
275,-186,-464,-41,370,-322,113,791,548,554,453,380
317,-198,-518,-59,418,-358,137,929,704,674,549,458
365,-204,-572,-83,466,-388,161,1103,884,824,663,554
425,-198,-626,-113,526,-412,197,1307,1124,1004,807,668
485,-180,-668,-155,574,-424,239,1541,1400,1214,969,800
545,-150,-698,-197,622,-424,293,1793,1694,1436,1149,944
599,-114,-716,-239,658,-412,353,2021,1988,1664,1335,1100
653,-66,-722,-293,688,-394,371,2123,2216,1874,1533,1262
695,28,-668,-359,682,-316,323,2045,2318,2042,1731,1430
731,160,-572,-443,652,-202,239,1889,2372,2180,1917,1598
755,310,-446,-527,604,-64,143,1691,2383,2306,2103,1754
767,478,-290,-617,532,96,59,1457,2342,2401,2265,1898
755,652,-104,-701,430,276,-7,1211,2300,2473,2402,2012
719,790,68,-749,328,432,-43,983,2258,2521,2510,2096
659,904,242,-779,208,576,-43,767,2186,2509,2552,2126
557,1000,440,-779,58,720,-13,539,2054,2419,2528,2090
449,1084,632,-767,-90,858,29,317,1874,2258,2444,2006
341,1138,794,-737,-222,966,65,125,1682,2072,2331,1892
251,1168,914,-707,-330,1044,107,-19,1490,1880,2211,1784
179,1150,968,-659,-390,1062,161,-101,1298,1694,2085,1676
119,1102,980,-605,-426,1044,221,-161,1106,1496,1929,1550
59,1006,944,-527,-438,978,299,-215,866,1262,1725,1388
-1,856,854,-425,-426,858,389,-269,590,980,1449,1178
-47,646,692,-299,-366,666,479,-293,338,710,1149,932
-101,358,458,-125,-276,408,587,-251,164,494,843,662
-143,58,200,41,-168,126,683,-197,20,314,543,398
-179,-162,16,167,-96,-76,725,-179,-110,158,303,188
-203,-306,-104,251,-48,-208,701,-191,-236,26,129,44
-203,-348,-146,269,-30,-250,647,-191,-314,-50,21,-32
-197,-354,-158,275,-20,-256,593,-185,-350,-104,-37,-86
-197,-342,-146,269,-25,-244,533,-179,-368,-140,-97,-122
-203,-300,-98,245,-54,-202,467,-167,-374,-164,-133,-140
-197,-246,-50,221,-72,-148,389,-167,-368,-176,-151,-152
-185,-198,-14,191,-84,-106,305,-167,-368,-182,-163,-158
-173,-168,4,167,-90,-82,215,-173,-380,-188,-175,-170
-161,-150,10,155,-84,-70,143,-179,-380,-188,-175,-170
-149,-138,10,143,-78,-64,77,-179,-380,-188,-175,-170
-143,-138,4,137,-72,-70,41,-185,-374,-188,-175,-170
-143,-138,4,137,-72,-70,23,-185,-368,-194,-181,-170
-137,-126,10,131,-72,-58,23,-173,-368,-200,-181,-176
-137,-126,10,131,-72,-58,29,-173,-368,-206,-193,-182
-143,-132,10,131,-78,-64,35,-173,-368,-212,-199,-194
-137,-132,4,131,-72,-64,35,-173,-368,-224,-211,-200
-137,-132,4,131,-72,-64,23,-173,-374,-230,-217,-206
-137,-144,-8,137,-66,-76,11,-173,-374,-236,-217,-212
-137,-150,-14,143,-60,-82,-7,-173,-374,-242,-223,-218
-137,-162,-26,149,-54,-94,-19,-173,-374,-254,-223,-218
-137,-156,-20,143,-60,-88,-31,-173,-374,-254,-223,-212
-131,-156,-26,137,-54,-94,-31,-167,-368,-248,-223,-206
-125,-150,-26,137,-48,-88,-25,-167,-368,-242,-223,-206
-125,-150,-26,137,-48,-88,-25,-167,-362,-236,-223,-212
-125,-144,-20,131,-54,-82,-25,-167,-368,-236,-223,-212
-125,-144,-20,131,-54,-82,-19,-167,-362,-236,-223,-212
-119,-144,-26,125,-48,-88,-25,-167,-362,-236,-229,-218
-119,-138,-20,125,-48,-82,-31,-167,-356,-236,-229,-224
-125,-138,-14,131,-54,-76,-37,-167,-350,-236,-223,-224
-125,-132,-8,125,-60,-70,-43,-167,-344,-236,-223,-224
-125,-120,4,119,-66,-58,-43,-167,-338,-236,-223,-224
-125,-114,10,119,-66,-52,-49,-167,-338,-230,-217,-218
-119,-108,10,107,-66,-52,-49,-167,-332,-224,-217,-218
-119,-102,16,107,-66,-46,-49,-161,-326,-224,-211,-218
-113,-102,10,107,-60,-46,-49,-161,-314,-218,-211,-212
-113,-102,10,107,-60,-46,-54,-167,-314,-218,-211,-212
-113,-102,10,107,-60,-46,-54,-161,-302,-212,-211,-206
-107,-96,10,95,-60,-46,-54,-167,-296,-206,-211,-206
-101,-96,4,95,-54,-46,-54,-167,-296,-206,-205,-200
-101,-96,4,95,-54,-46,-54,-167,-302,-206,-205,-200
-101,-96,4,95,-54,-46,-59,-173,-296,-206,-199,-200
-101,-96,4,95,-54,-46,-59,-173,-296,-206,-199,-200
-101,-90,10,95,-54,-40,-65,-173,-296,-212,-199,-200
-101,-90,10,95,-54,-40,-71,-173,-290,-218,-199,-200
-101,-84,16,89,-60,-34,-71,-167,-284,-212,-193,-194
-95,-72,21,77,-60,-28,-71,-167,-284,-206,-193,-200
-95,-66,26,77,-60,-22,-71,-173,-284,-206,-199,-200
-101,-60,38,77,-72,-10,-77,-173,-290,-206,-199,-206
-95,-48,44,65,-72,-4,-83,-173,-296,-212,-199,-206
-83,-36,44,53,-66,2,-83,-173,-290,-206,-199,-206
-89,-30,56,59,-72,12,-89,-179,-290,-212,-199,-206
-89,-30,56,59,-72,12,-89,-173,-290,-206,-199,-200
-83,-18,62,47,-72,18,-95,-167,-290,-200,-193,-200
-77,-12,62,41,-72,24,-101,-167,-296,-194,-193,-194
-71,-7,62,35,-66,24,-101,-167,-302,-188,-187,-194
-71,-2,68,35,-66,30,-107,-167,-308,-182,-181,-194
-71,10,80,29,-72,42,-107,-173,-314,-182,-181,-188
-71,16,86,23,-78,48,-113,-167,-308,-182,-181,-194
-71,22,92,23,-78,54,-113,-167,-308,-188,-175,-188
-77,28,104,23,-90,66,-119,-167,-308,-188,-181,-188
-77,34,110,23,-90,72,-125,-167,-308,-194,-187,-188
-71,40,110,13,-90,72,-125,-167,-314,-194,-187,-188
-71,46,116,13,-90,78,-131,-155,-302,-188,-187,-182
-71,46,116,13,-90,78,-137,-155,-296,-182,-181,-176
-71,64,134,1,-102,96,-143,-149,-290,-170,-181,-170
-71,70,140,1,-102,102,-143,-149,-284,-164,-175,-170
-71,88,158,-11,-114,120,-149,-149,-278,-164,-175,-170
-71,94,164,-11,-114,126,-149,-155,-272,-164,-175,-170
-77,100,176,-11,-126,138,-155,-155,-272,-164,-169,-164
-77,106,182,-11,-126,144,-155,-149,-260,-164,-169,-164
-89,118,206,-11,-144,162,-161,-149,-254,-164,-169,-164
-89,118,206,-11,-144,162,-167,-143,-242,-164,-169,-164
-83,136,218,-29,-150,174,-173,-137,-236,-152,-163,-158
-77,148,224,-35,-150,186,-179,-131,-230,-146,-157,-158
-77,154,230,-35,-150,192,-185,-125,-230,-140,-151,-152
-77,160,236,-41,-156,198,-185,-119,-218,-134,-145,-152
-71,172,242,-53,-156,204,-191,-113,-212,-134,-145,-146
-71,178,248,-53,-156,210,-191,-113,-206,-134,-133,-140
-71,190,260,-59,-162,222,-191,-113,-200,-128,-127,-134
-77,202,278,-59,-174,240,-185,-107,-194,-116,-115,-122
-83,214,296,-65,-186,252,-185,-101,-194,-110,-109,-116
-83,226,308,-71,-192,264,-179,-89,-182,-104,-103,-116
-77,232,308,-77,-192,270,-185,-83,-176,-98,-103,-116
-71,238,308,-83,-186,270,-185,-77,-164,-92,-91,-116
-65,244,308,-89,-186,276,-185,-71,-152,-80,-85,-110
-59,250,308,-95,-180,276,-185,-65,-146,-62,-73,-104
-53,256,308,-101,-180,282,-191,-60,-128,-50,-67,-92
-53,262,314,-101,-180,288,-185,-55,-116,-40,-55,-86
-53,268,320,-107,-186,294,-179,-49,-98,-34,-43,-80
-53,274,326,-107,-186,300,-179,-37,-80,-22,-32,-74
-53,280,332,-113,-192,306,-179,-25,-68,-16,-32,-74
-59,286,344,-113,-198,312,-173,-13,-56,-10,-27,-62
-59,292,350,-119,-204,318,-167,-7,-45,2,-15,-56
-59,298,356,-119,-204,324,-161,-1,-40,14,-9,-44
-53,298,350,-119,-198,324,-155,5,-22,26,3,-38
-53,298,350,-119,-198,324,-143,17,-10,44,9,-26
-53,298,350,-119,-198,324,-143,29,2,56,21,-14
-47,286,332,-119,-186,306,-131,41,14,74,33,-8
-41,274,314,-113,-174,294,-125,47,32,86,45,-2
-35,268,302,-119,-168,282,-113,65,44,104,51,9
-35,262,296,-113,-162,276,-107,77,62,116,63,14
-30,256,284,-113,-156,270,-95,95,74,134,75,20
-25,244,266,-107,-144,258,-83,113,92,152,87,26
-30,232,260,-101,-144,246,-71,125,110,170,99,38
-30,220,248,-95,-138,234,-59,143,128,182,111,44
-35,214,248,-89,-138,228,-54,155,146,194,117,50
-30,208,236,-89,-132,222,-43,161,158,200,129,62
-25,202,224,-83,-120,216,-31,167,158,206,135,62
-19,184,200,-83,-108,192,-19,179,170,212,141,68
-13,172,182,-77,-96,180,-7,179,176,212,141,68
-13,160,170,-71,-90,168,-1,179,176,212,141,68
-19,142,158,-59,-84,150,11,185,170,206,135,68
-13,124,134,-53,-72,132,23,185,164,206,135,68
-13,112,122,-47,-66,120,35,185,152,200,129,62
-7,100,104,-47,-54,102,41,173,140,188,117,50
-7,82,86,-35,-42,84,47,167,128,176,105,38
-13,70,80,-23,-42,78,47,155,116,164,93,26
-13,58,68,-17,-36,66,47,137,104,146,87,20
-7,46,50,-17,-25,48,53,119,86,134,75,14
-7,40,44,-17,-25,42,59,113,80,122,69,9
-13,22,32,1,-20,30,53,95,68,110,57,4
-19,10,26,7,-20,18,59,83,50,92,39,-8
-25,-7,16,18,-20,7,59,71,38,74,27,-20
-25,-12,10,18,-20,2,59,59,20,50,9,-32
-25,-24,-2,23,-14,-10,65,47,2,38,-3,-38
-30,-30,-2,29,-14,-16,65,35,-16,26,-15,-44
-30,-42,-14,35,-8,-28,59,17,-22,8,-21,-50
-35,-54,-20,41,-8,-40,59,-1,-34,-4,-32,-56
-41,-66,-26,53,-8,-46,59,-13,-45,-16,-37,-68
-35,-72,-38,47,-2,-58,53,-25,-56,-22,-43,-74
-35,-78,-44,53,4,-64,53,-31,-68,-34,-55,-86
-35,-84,-50,53,4,-70,53,-37,-80,-40,-67,-92
-35,-90,-56,59,10,-76,47,-43,-92,-45,-73,-92
-30,-90,-62,59,16,-76,41,-49,-104,-50,-79,-92
-30,-96,-68,59,16,-82,35,-60,-110,-56,-79,-98
-30,-96,-68,59,16,-82,35,-65,-122,-68,-85,-98
-30,-96,-68,59,16,-82,29,-71,-128,-74,-91,-104
-35,-102,-68,65,16,-88,29,-71,-134,-80,-91,-104
-41,-108,-68,71,10,-88,35,-77,-140,-86,-97,-110
-47,-114,-68,77,10,-94,35,-77,-146,-92,-97,-110
-47,-132,-86,83,16,-112,35,-77,-146,-98,-97,-116
-53,-138,-86,95,16,-112,41,-77,-158,-98,-103,-110
-53,-144,-92,95,16,-118,41,-71,-158,-104,-109,-110
-47,-144,-98,89,22,-124,47,-65,-152,-116,-109,-110
-47,-150,-104,95,28,-130,47,-65,-152,-110,-109,-110
-47,-150,-104,95,28,-130,41,-65,-152,-110,-109,-110
-47,-150,-104,95,28,-130,41,-65,-152,-110,-109,-110
-47,-150,-104,95,28,-130,41,-65,-158,-110,-109,-110
-53,-150,-98,101,22,-124,41,-71,-158,-110,-109,-116
-53,-150,-98,101,22,-124,41,-77,-158,-110,-109,-116
-53,-150,-98,101,22,-124,41,-77,-158,-110,-103,-116
-59,-150,-92,101,16,-124,47,-71,-152,-110,-103,-116
-59,-150,-92,101,16,-124,47,-71,-152,-110,-103,-110
-59,-150,-92,101,16,-124,47,-71,-158,-110,-109,-110
-59,-150,-92,101,16,-124,47,-71,-158,-110,-109,-110
-59,-144,-86,95,10,-118,47,-71,-158,-104,-103,-110
-59,-144,-86,95,10,-118,41,-71,-158,-104,-109,-110
-59,-150,-92,101,16,-124,41,-71,-158,-104,-103,-110
-59,-150,-92,101,16,-124,47,-71,-152,-104,-103,-110
-59,-162,-104,107,22,-136,47,-71,-158,-104,-103,-110
-59,-162,-104,107,22,-136,53,-65,-152,-104,-103,-110
-59,-156,-98,101,16,-130,59,-65,-152,-104,-103,-110
-59,-156,-98,101,16,-130,59,-65,-146,-104,-103,-110
-53,-150,-98,101,22,-124,59,-65,-146,-104,-103,-116
-59,-150,-92,101,16,-124,59,-65,-146,-110,-103,-116
-59,-144,-86,95,10,-118,59,-65,-152,-110,-97,-110
-59,-138,-80,95,10,-112,59,-65,-152,-110,-91,-110
-59,-132,-74,89,4,-106,59,-60,-146,-116,-91,-110
-59,-132,-74,89,4,-106,65,-60,-146,-116,-91,-110
-59,-132,-74,89,4,-106,59,-60,-146,-122,-91,-116
-53,-126,-74,89,10,-100,59,-55,-152,-122,-97,-122
-53,-126,-74,89,10,-100,59,-55,-152,-122,-97,-122
-53,-126,-74,89,10,-100,59,-49,-152,-122,-97,-122
-47,-120,-74,77,10,-100,59,-49,-152,-122,-97,-122
-47,-120,-74,77,10,-100,59,-43,-152,-116,-97,-122
-47,-114,-68,77,10,-94,53,-37,-152,-116,-97,-122
-47,-108,-62,71,4,-88,53,-49,-158,-122,-103,-122
-47,-108,-62,71,4,-88,47,-49,-164,-128,-103,-128
-53,-102,-50,77,-2,-76,47,-55,-164,-128,-109,-128
-59,-96,-38,71,-14,-70,47,-60,-170,-134,-109,-134
-59,-84,-26,65,-20,-58,41,-60,-170,-134,-109,-134
-59,-78,-20,65,-20,-52,41,-60,-170,-128,-109,-134
-53,-72,-20,59,-20,-46,41,-60,-176,-128,-109,-128
-47,-72,-26,53,-14,-52,41,-60,-176,-128,-109,-128
-47,-72,-26,53,-14,-52,41,-60,-170,-128,-109,-134
-47,-72,-26,53,-14,-52,41,-60,-164,-128,-109,-134
-41,-66,-26,53,-8,-46,41,-60,-164,-134,-115,-134
-41,-66,-26,53,-8,-46,35,-60,-164,-134,-115,-140
-41,-66,-26,53,-8,-46,35,-60,-170,-134,-115,-134
-47,-66,-20,53,-14,-46,29,-60,-170,-134,-115,-134
-53,-54,-2,53,-25,-28,29,-60,-164,-134,-121,-134
-53,-54,-2,53,-25,-28,29,-60,-164,-128,-121,-134
-47,-54,-8,47,-20,-34,23,-60,-164,-128,-121,-134
-47,-42,4,41,-25,-22,23,-60,-164,-128,-121,-140
-53,-42,10,47,-30,-16,17,-60,-170,-134,-121,-140
-47,-36,10,35,-30,-16,17,-65,-170,-134,-115,-134
-47,-36,10,35,-30,-16,17,-71,-164,-134,-115,-134
-41,-42,-2,41,-20,-22,17,-71,-164,-146,-115,-140
-47,-42,4,41,-25,-22,23,-71,-164,-146,-121,-140
-41,-48,-8,41,-20,-28,29,-71,-170,-146,-121,-140
-41,-54,-14,47,-14,-34,29,-71,-170,-146,-127,-146
-47,-54,-8,47,-20,-34,29,-71,-176,-146,-127,-146
-47,-48,-2,41,-25,-28,23,-71,-176,-152,-127,-146
-41,-48,-8,41,-20,-28,23,-71,-170,-152,-127,-140
-41,-42,-2,41,-20,-22,23,-65,-170,-146,-121,-134
-35,-36,-2,29,-20,-22,29,-65,-176,-146,-121,-128
-35,-36,-2,29,-20,-22,29,-65,-176,-140,-121,-128
-41,-36,4,35,-25,-16,35,-65,-170,-140,-127,-128
-41,-42,-2,41,-20,-22,35,-60,-170,-140,-127,-128
-41,-36,4,35,-25,-16,41,-60,-170,-140,-127,-128
-41,-42,-2,41,-20,-22,35,-60,-176,-146,-127,-128
-41,-36,4,35,-25,-16,35,-60,-176,-146,-121,-128
-41,-36,4,35,-25,-16,35,-55,-176,-146,-121,-134
-41,-36,4,35,-25,-16,35,-55,-176,-146,-127,-134
-47,-42,4,41,-25,-22,35,-55,-164,-146,-127,-134
-35,-42,-8,35,-14,-28,35,-55,-152,-146,-121,-134
-30,-42,-14,35,-8,-28,35,-55,-158,-152,-127,-140
-30,-48,-20,35,-8,-34,35,-49,-158,-152,-127,-140
-30,-48,-20,35,-8,-34,29,-49,-158,-152,-127,-146
-25,-42,-20,35,-2,-28,29,-49,-152,-152,-127,-140
-25,-42,-20,35,-2,-28,23,-49,-158,-146,-127,-140
-25,-36,-14,29,-8,-22,23,-49,-158,-146,-127,-140
-25,-30,-8,29,-8,-16,23,-49,-164,-140,-121,-140
-19,-30,-14,23,-2,-22,23,-49,-164,-140,-121,-134
-25,-30,-8,29,-8,-16,29,-55,-164,-140,-121,-134
-25,-30,-8,29,-8,-16,29,-60,-164,-134,-115,-128
-19,-30,-14,23,-2,-22,29,-60,-164,-134,-115,-128
-13,-30,-20,23,4,-22,29,-65,-164,-134,-115,-128
-13,-24,-14,18,-2,-16,29,-60,-170,-134,-127,-128
-13,-24,-14,18,-2,-16,29,-60,-170,-134,-133,-128
-7,-24,-20,13,4,-22,35,-60,-170,-134,-133,-128
5,-18,-26,7,16,-22,41,-55,-164,-128,-133,-134
17,-18,-38,1,28,-28,35,-49,-164,-128,-127,-134
17,-12,-32,-5,22,-22,35,-49,-170,-128,-127,-134
23,-7,-32,-5,28,-16,35,-49,-164,-134,-121,-134
29,-2,-32,-11,34,-16,35,-49,-164,-134,-121,-134
35,10,-26,-17,34,-4,35,-49,-164,-134,-121,-134
47,16,-32,-29,40,-4,35,-55,-170,-134,-121,-134
47,16,-32,-29,40,-4,35,-49,-164,-128,-115,-128
47,22,-26,-29,40,2,41,-43,-170,-128,-109,-122
47,16,-32,-29,40,-4,41,-43,-170,-134,-109,-122
53,22,-32,-35,46,-4,41,-43,-176,-140,-109,-122
53,16,-38,-35,46,-10,35,-43,-170,-140,-103,-122
53,10,-44,-29,52,-16,35,-43,-164,-146,-103,-122
53,10,-44,-29,52,-16,35,-43,-164,-152,-109,-116
59,22,-38,-35,52,-4,35,-43,-164,-152,-109,-116
59,22,-38,-35,52,-4,29,-49,-164,-158,-109,-122
59,22,-38,-35,52,-4,29,-55,-170,-164,-115,-128
59,28,-32,-41,46,2,29,-55,-170,-164,-109,-128
59,22,-38,-35,52,-4,35,-55,-176,-164,-109,-128
59,22,-38,-35,52,-4,35,-49,-182,-164,-109,-134
59,16,-44,-35,52,-10,41,-43,-182,-164,-115,-134
65,16,-50,-41,58,-16,41,-43,-176,-158,-115,-134
65,16,-50,-41,58,-16,35,-49,-176,-158,-115,-134
59,16,-44,-35,52,-10,35,-43,-170,-158,-115,-140
59,16,-44,-35,52,-10,35,-49,-170,-158,-115,-134
59,28,-32,-41,46,2,35,-55,-170,-158,-115,-134
59,28,-32,-41,46,2,35,-60,-170,-158,-115,-134
59,22,-38,-35,52,-4,35,-60,-170,-158,-115,-134
59,16,-44,-35,52,-10,35,-60,-170,-158,-121,-134
59,10,-50,-29,58,-16,29,-60,-170,-158,-127,-128
59,4,-56,-29,58,-22,29,-55,-176,-152,-121,-128
53,4,-50,-29,52,-22,29,-55,-176,-152,-121,-128
53,4,-50,-29,52,-22,29,-55,-176,-158,-121,-128
59,4,-56,-29,58,-22,29,-60,-176,-158,-121,-128
53,4,-50,-29,52,-22,29,-60,-158,-158,-121,-128
47,-7,-56,-17,52,-28,29,-60,-134,-158,-121,-134
47,-7,-56,-17,52,-28,35,-60,-110,-158,-127,-140
41,-2,-44,-17,46,-22,35,-60,-110,-164,-133,-146
41,-2,-44,-17,46,-22,35,-60,-110,-164,-133,-146
41,-2,-44,-17,46,-22,35,-60,-104,-164,-127,-146
41,-2,-44,-17,46,-22,35,-60,-104,-164,-127,-140
41,-2,-44,-17,46,-22,29,-60,-110,-170,-133,-140
47,-7,-56,-17,52,-28,29,-60,-104,-170,-133,-140
47,-7,-56,-17,52,-28,29,-60,-110,-176,-133,-140
53,-7,-62,-23,58,-34,35,-60,-110,-170,-133,-146
47,-18,-68,-11,58,-40,29,-60,-122,-170,-127,-140
47,-18,-68,-11,58,-40,35,-60,-128,-170,-127,-140
41,-12,-56,-17,46,-34,35,-60,-128,-164,-127,-140
41,-12,-56,-17,46,-34,35,-60,-128,-164,-127,-134
41,-7,-50,-17,46,-28,35,-60,-134,-164,-133,-134
35,-7,-44,-11,40,-22,35,-60,-128,-164,-133,-134
35,-7,-44,-11,40,-22,35,-55,-134,-164,-133,-134
29,-7,-38,-11,34,-22,35,-60,-128,-164,-133,-134
23,-12,-38,-5,28,-22,41,-55,-128,-164,-133,-134
23,-7,-32,-5,28,-16,41,-60,-134,-164,-133,-140
29,-7,-38,-11,34,-22,35,-60,-146,-170,-133,-140
29,-12,-44,-11,34,-28,35,-65,-152,-176,-139,-140
29,-18,-50,-5,40,-34,35,-65,-146,-176,-145,-146
29,-24,-56,-5,40,-40,35,-65,-146,-176,-145,-140
29,-24,-56,-5,40,-40,29,-71,-146,-182,-145,-140
29,-30,-62,1,46,-46,29,-71,-146,-182,-145,-140
29,-24,-56,-5,40,-40,29,-71,-146,-182,-145,-140
35,-18,-56,-5,46,-34,29,-71,-140,-182,-145,-140
35,-18,-56,-5,46,-34,29,-65,-140,-182,-151,-146
35,-18,-56,-5,46,-34,29,-65,-128,-182,-151,-146
35,-18,-56,-5,46,-34,23,-60,-134,-182,-151,-146
35,-18,-56,-5,46,-34,17,-65,-128,-188,-151,-152
35,-18,-56,-5,46,-34,17,-65,-122,-194,-151,-146
29,-18,-50,-5,40,-34,17,-65,-122,-194,-151,-146
29,-24,-56,-5,40,-40,17,-65,-122,-194,-145,-140
35,-30,-68,1,52,-46,17,-65,-128,-188,-145,-140
35,-30,-68,1,52,-46,11,-60,-122,-188,-139,-140
29,-24,-56,-5,40,-40,5,-60,-116,-188,-139,-140
35,-18,-56,-5,46,-34,5,-60,-110,-188,-145,-134
35,-12,-50,-11,40,-28,11,-60,-110,-182,-139,-134
35,-18,-56,-5,46,-34,11,-60,-110,-182,-139,-140
35,-18,-56,-5,46,-34,11,-60,-110,-182,-145,-140
35,-24,-62,-5,46,-40,11,-60,-116,-182,-145,-146
41,-30,-74,-5,58,-52,5,-65,-116,-188,-145,-146
41,-30,-74,-5,58,-52,5,-65,-116,-194,-145,-152
41,-30,-74,-5,58,-52,11,-71,-122,-194,-145,-146
41,-24,-68,-11,52,-46,17,-71,-116,-188,-145,-146
41,-24,-68,-11,52,-46,23,-71,-116,-182,-145,-140
47,-24,-74,-11,58,-46,23,-71,-104,-176,-145,-140
53,-18,-74,-17,64,-46,23,-71,-104,-170,-145,-140
47,-7,-56,-17,52,-28,23,-71,-104,-170,-139,-140
41,-2,-44,-17,46,-22,23,-65,-98,-170,-133,-140
41,4,-38,-23,40,-16,29,-65,-86,-164,-133,-140
41,10,-32,-23,40,-10,29,-60,-80,-158,-127,-140
41,22,-20,-29,34,2,29,-60,-74,-158,-127,-140
47,40,-8,-41,28,18,29,-60,-74,-152,-121,-134
47,52,4,-47,22,30,23,-60,-68,-152,-121,-128
53,52,-2,-53,28,24,17,-55,-62,-158,-115,-128
53,46,-8,-47,34,18,17,-60,-56,-152,-115,-128
59,52,-8,-53,34,24,11,-55,-56,-152,-109,-122
59,58,-2,-53,34,30,5,-49,-50,-146,-103,-116
65,70,4,-65,34,36,-1,-43,-45,-140,-103,-110
65,82,16,-71,28,48,-7,-43,-40,-140,-109,-110
71,88,16,-77,28,54,-13,-37,-34,-140,-103,-104
71,88,16,-77,28,54,-19,-31,-28,-134,-103,-104
71,88,16,-77,28,54,-19,-31,-28,-128,-97,-98
71,100,26,-83,22,66,-19,-31,-22,-128,-97,-104
71,106,32,-83,22,72,-25,-31,-22,-128,-97,-104
71,100,26,-83,22,66,-37,-37,-22,-122,-97,-104
71,94,21,-77,28,60,-37,-31,-16,-116,-97,-98
71,88,16,-77,28,54,-31,-31,-10,-116,-91,-92
71,82,10,-71,34,48,-37,-31,-4,-116,-91,-92
65,82,16,-71,28,48,-37,-31,-4,-116,-91,-86
65,76,10,-71,28,42,-37,-31,2,-110,-91,-74
65,64,-2,-65,34,30,-31,-25,2,-116,-91,-56
65,58,-8,-59,40,24,-31,-19,2,-116,-85,-38
59,52,-8,-53,34,24,-31,-19,8,-110,-85,-26
65,46,-20,-53,46,12,-31,-13,14,-110,-79,-20
65,40,-26,-53,46,7,-31,-19,14,-110,-79,-14
71,28,-44,-47,58,-4,-37,-19,8,-116,-79,-14
71,16,-56,-41,64,-16,-43,-31,-4,-122,-85,-14
71,16,-56,-41,64,-16,-43,-37,-10,-128,-85,-20
65,10,-56,-35,64,-22,-43,-43,-16,-134,-97,-20
59,4,-56,-29,58,-22,-43,-43,-16,-134,-103,-26
47,-7,-56,-17,52,-28,-37,-43,-16,-128,-109,-26
41,-12,-56,-17,46,-34,-37,-43,-22,-128,-109,-32
41,-12,-56,-17,46,-34,-31,-37,-22,-128,-109,-32
35,-18,-56,-5,46,-34,-25,-37,-22,-128,-109,-38
35,-12,-50,-11,40,-28,-19,-37,-22,-134,-115,-44
29,-7,-38,-11,34,-22,-25,-43,-22,-140,-115,-44
29,-2,-32,-11,34,-16,-25,-43,-22,-140,-109,-38
29,4,-26,-17,28,-10,-31,-31,-22,-134,-103,-32
35,4,-32,-17,34,-10,-37,-25,-16,-122,-91,-20
41,4,-38,-23,40,-16,-49,-13,-10,-110,-79,-20
53,4,-50,-29,52,-22,-54,-7,2,-98,-73,-8
59,16,-44,-35,52,-10,-59,-1,8,-86,-61,-2
59,34,-26,-41,46,7,-59,17,20,-74,-43,9
71,52,-20,-59,46,18,-59,29,38,-62,-32,20
71,70,-2,-65,40,36,-65,41,50,-50,-21,32
77,82,4,-77,40,42,-59,59,68,-40,-9,44
83,94,10,-83,40,54,-59,77,86,-16,9,56
95,100,4,-95,46,54,-71,83,92,-4,21,68
95,100,4,-95,46,54,-83,95,92,14,27,80
107,106,-2,-101,58,54,-95,107,98,32,39,98
119,100,-20,-107,70,42,-101,131,116,50,51,116
137,88,-50,-113,94,18,-107,155,134,74,69,140
149,88,-62,-119,106,12,-119,173,152,92,81,152
161,76,-86,-119,124,-4,-131,197,170,116,105,170
179,58,-122,-113,154,-28,-131,239,206,140,129,182
197,46,-152,-119,178,-52,-119,293,260,176,165,206
221,28,-194,-125,208,-82,-113,347,314,218,201,236
233,4,-230,-119,232,-112,-101,407,374,266,243,272
257,-12,-272,-125,262,-142,-83,485,446,338,291,314
281,-30,-314,-125,298,-172,-65,575,518,410,339,362
305,-48,-356,-131,328,-202,-54,659,602,488,399,410
341,-72,-416,-137,376,-244,-43,761,710,578,465,470
377,-96,-476,-143,424,-286,-19,881,842,686,555,542
419,-120,-542,-149,478,-328,5,1025,1016,824,669,632
479,-132,-614,-173,544,-370,29,1199,1232,992,801,740
545,-126,-674,-209,610,-400,53,1409,1502,1196,969,872
605,-108,-716,-251,658,-412,89,1661,1808,1424,1155,1028
665,-90,-758,-287,712,-424,137,1925,2138,1676,1359,1196
719,-54,-776,-329,748,-412,179,2123,2431,1922,1569,1370
761,16,-746,-389,754,-364,167,2135,2635,2108,1767,1544
797,130,-668,-461,736,-268,101,1991,2773,2234,1947,1700
815,274,-542,-539,682,-130,29,1793,2839,2330,2115,1850
827,442,-386,-629,610,30,-31,1571,2839,2407,2271,1982
815,628,-188,-719,502,222,-77,1319,2767,2443,2402,2090
785,814,26,-797,382,420,-113,1061,2665,2449,2492,2162
725,958,230,-839,250,594,-119,815,2539,2401,2528,2180
641,1072,428,-857,106,750,-89,587,2372,2288,2492,2144
527,1168,638,-845,-54,906,-31,353,2126,2102,2385,2048
401,1240,836,-821,-216,1038,41,149,1868,1874,2229,1910
293,1276,980,-785,-342,1128,119,-7,1622,1634,2067,1772
203,1300,1094,-749,-444,1200,203,-113,1382,1400,1899,1628
137,1270,1130,-701,-492,1200,299,-173,1166,1166,1719,1478
83,1204,1118,-641,-516,1164,383,-209,962,944,1527,1316
41,1090,1046,-563,-498,1068,467,-245,734,698,1287,1124
5,904,896,-455,-444,900,551,-263,524,470,1017,896
-30,628,656,-299,-342,642,647,-227,386,302,741,650
-65,286,350,-107,-204,318,743,-137,296,182,489,416
-95,-2,92,47,-90,42,809,-71,206,80,279,230
-119,-186,-68,149,-25,-130,821,-55,98,-16,117,98
-137,-276,-140,203,-2,-208,785,-49,14,-98,3,14
-143,-312,-170,221,10,-244,707,-49,-40,-164,-67,-32
-149,-300,-152,221,-2,-226,629,-49,-56,-206,-115,-68
-149,-270,-122,209,-14,-196,563,-43,-50,-236,-151,-104
-143,-234,-92,185,-25,-166,479,-49,-45,-248,-175,-122
-131,-192,-62,155,-36,-130,383,-55,-34,-248,-187,-134
-113,-150,-38,131,-36,-94,269,-60,-28,-236,-193,-134
-83,-126,-44,101,-20,-88,155,-65,-28,-224,-193,-122
-65,-108,-44,83,-14,-76,59,-71,-28,-212,-187,-110
-59,-102,-44,77,-8,-76,-7,-77,-40,-212,-187,-104
-53,-96,-44,71,-8,-70,-43,-77,-45,-212,-193,-98
-53,-84,-32,65,-14,-58,-59,-71,-45,-218,-199,-104
-59,-66,-8,59,-25,-40,-54,-65,-40,-218,-199,-104
-65,-54,10,59,-36,-22,-49,-60,-34,-224,-205,-110
-65,-48,16,53,-42,-16,-49,-55,-40,-224,-211,-116
-65,-54,10,59,-36,-22,-54,-60,-45,-230,-211,-122
-65,-66,-2,65,-30,-34,-65,-60,-45,-230,-223,-128
-65,-78,-14,71,-25,-46,-83,-65,-56,-236,-223,-134
-65,-90,-26,77,-20,-58,-101,-65,-62,-236,-229,-134
-65,-90,-26,77,-20,-58,-119,-71,-68,-236,-229,-134
-59,-84,-26,65,-20,-58,-131,-71,-74,-236,-235,-134
-53,-78,-26,65,-14,-52,-137,-71,-74,-236,-235,-134
-53,-72,-20,59,-20,-46,-137,-71,-74,-236,-235,-134
-53,-66,-14,59,-20,-40,-137,-71,-74,-236,-235,-140
-53,-60,-8,53,-25,-34,-137,-71,-80,-236,-235,-140
-53,-60,-8,53,-25,-34,-131,-71,-86,-236,-235,-140
-53,-66,-14,59,-20,-40,-137,-71,-92,-236,-235,-140
-53,-66,-14,59,-20,-40,-137,-71,-92,-236,-235,-140
-59,-72,-14,59,-25,-46,-143,-77,-98,-236,-235,-140
-59,-78,-20,65,-20,-52,-143,-71,-98,-230,-235,-140
-53,-72,-20,59,-20,-46,-143,-65,-98,-230,-235,-140
-53,-72,-20,59,-20,-46,-143,-60,-92,-230,-229,-140
-53,-72,-20,59,-20,-46,-137,-60,-86,-236,-229,-134
-53,-66,-14,59,-20,-40,-137,-55,-92,-236,-229,-134
-47,-54,-8,47,-20,-34,-137,-55,-92,-242,-223,-134
-47,-48,-2,41,-25,-28,-143,-55,-86,-242,-217,-128
-41,-42,-2,41,-20,-22,-137,-55,-86,-242,-217,-128
-41,-36,4,35,-25,-16,-143,-60,-86,-242,-223,-134
-47,-36,10,35,-30,-16,-143,-65,-80,-242,-223,-134
-47,-30,16,35,-30,-10,-143,-65,-74,-236,-223,-128
-53,-30,21,41,-36,-4,-143,-65,-74,-236,-223,-128
-53,-36,16,41,-36,-10,-143,-65,-74,-236,-217,-122
-53,-36,16,41,-36,-10,-143,-65,-74,-236,-217,-122
-47,-30,16,35,-30,-10,-143,-60,-80,-230,-211,-122
-41,-24,16,29,-30,-4,-149,-60,-80,-230,-211,-122
-41,-18,21,29,-30,2,-155,-65,-86,-224,-211,-122
-41,-7,32,23,-36,12,-155,-65,-86,-218,-211,-122
-41,-7,32,23,-36,12,-161,-65,-86,-212,-211,-116
-41,-2,38,23,-36,18,-167,-65,-92,-212,-211,-116
-41,4,44,18,-42,24,-167,-65,-92,-212,-211,-116
-47,4,50,18,-48,24,-173,-65,-98,-212,-211,-110
-53,4,56,23,-54,30,-173,-65,-98,-212,-211,-110
-53,4,56,23,-54,30,-179,-65,-104,-206,-211,-110
-53,10,62,23,-54,36,-179,-60,-110,-206,-205,-110
-47,16,62,13,-54,36,-179,-60,-110,-200,-205,-110
-47,28,74,7,-60,48,-185,-60,-110,-200,-211,-110
-47,40,86,1,-66,60,-185,-65,-104,-200,-205,-116
-41,46,86,1,-60,66,-191,-71,-104,-194,-205,-110
-41,52,92,-5,-66,72,-191,-71,-104,-194,-199,-104
-41,52,92,-5,-66,72,-191,-65,-98,-188,-199,-104
-41,52,92,-5,-66,72,-197,-65,-98,-188,-193,-104
-41,58,98,-5,-66,78,-197,-65,-98,-182,-193,-98
-41,64,104,-11,-72,84,-203,-60,-98,-182,-187,-98
-41,70,110,-11,-72,90,-203,-60,-98,-176,-187,-92
-41,82,122,-17,-78,102,-209,-65,-92,-176,-181,-92
-41,88,128,-23,-84,108,-209,-65,-92,-176,-181,-92
-47,94,140,-23,-90,114,-215,-60,-86,-176,-181,-86
-47,106,152,-29,-96,126,-221,-60,-74,-182,-175,-86
-47,112,158,-35,-102,132,-227,-55,-62,-176,-175,-86
-47,124,170,-41,-108,144,-227,-55,-56,-176,-175,-92
-53,142,194,-41,-120,168,-239,-55,-50,-170,-169,-92
-53,154,206,-47,-126,180,-245,-49,-50,-164,-157,-86
-53,166,218,-53,-132,192,-251,-43,-45,-158,-151,-86
-47,178,224,-65,-132,198,-251,-37,-40,-152,-145,-86
-41,184,224,-71,-132,204,-251,-37,-34,-152,-139,-80
-35,190,224,-77,-126,204,-257,-37,-28,-152,-133,-74
-35,196,230,-83,-132,210,-257,-37,-28,-146,-127,-74
-35,202,236,-83,-132,216,-263,-37,-22,-140,-121,-68
-35,214,248,-89,-138,228,-263,-31,-16,-134,-121,-68
-30,232,260,-101,-144,246,-263,-25,-10,-134,-121,-68
-30,250,278,-107,-150,264,-269,-25,-4,-128,-115,-68
-30,262,290,-113,-156,276,-275,-13,2,-116,-109,-62
-35,262,296,-113,-162,276,-275,-1,14,-110,-103,-50
-35,268,302,-119,-168,282,-281,5,26,-98,-91,-44
-30,274,302,-119,-162,288,-287,11,32,-86,-85,-38
-30,280,308,-125,-168,294,-287,17,44,-74,-67,-32
-30,280,308,-125,-168,294,-287,23,50,-68,-55,-20
-30,280,308,-125,-168,294,-293,35,56,-56,-37,-14
-30,286,314,-125,-168,300,-293,41,68,-45,-32,-8
-30,298,326,-131,-174,312,-293,53,80,-40,-27,-2
-25,310,332,-137,-174,324,-293,53,92,-28,-21,4
-25,322,344,-143,-180,336,-293,65,110,-16,-15,9
-25,322,344,-143,-180,336,-287,71,122,2,-3,20
-25,316,338,-143,-180,330,-281,83,140,20,9,38
-19,310,326,-143,-168,318,-269,95,152,32,21,50
-19,310,326,-143,-168,318,-263,101,158,44,33,56
-19,304,320,-143,-168,312,-257,113,170,50,39,56
-13,304,314,-143,-162,312,-251,119,170,62,51,56
-13,298,308,-137,-156,306,-251,131,176,68,63,62
-13,292,302,-137,-156,300,-245,143,194,80,75,74
-7,280,284,-137,-144,282,-233,155,206,98,87,80
-7,268,272,-131,-138,270,-227,173,224,110,93,86
-1,262,260,-125,-126,264,-215,191,236,128,105,92
5,256,248,-131,-120,252,-203,203,248,140,111,104
11,250,236,-125,-108,246,-197,221,260,152,117,110
17,238,218,-125,-96,228,-185,233,266,158,129,122
17,226,206,-119,-90,216,-167,245,272,170,141,128
17,214,194,-113,-84,204,-149,251,278,176,147,134
17,190,170,-101,-72,180,-137,257,278,176,147,134
23,178,152,-95,-60,168,-125,257,278,176,141,128
23,160,134,-89,-54,150,-119,257,272,170,141,122
23,154,128,-83,-48,144,-113,251,260,164,129,116
29,142,110,-83,-36,126,-107,257,254,152,123,110
29,136,104,-83,-36,120,-101,257,242,140,117,104
23,130,104,-71,-36,120,-95,251,230,128,105,104
17,118,98,-65,-36,108,-89,239,218,110,93,92
17,100,80,-59,-30,90,-89,233,206,98,81,86
17,88,68,-53,-25,78,-89,221,188,86,69,74
17,76,56,-47,-20,66,-89,209,164,68,57,62
23,58,32,-35,-2,48,-89,191,146,50,39,56
23,52,26,-35,-2,42,-89,179,128,32,27,44
17,46,26,-29,-2,36,-95,161,104,14,9,32
17,46,26,-29,-2,36,-101,149,86,2,-3,20
11,34,21,-17,-2,30,-101,131,62,-10,-15,9
11,22,10,-11,4,18,-107,119,44,-28,-21,4
5,10,4,-5,4,7,-107,107,20,-40,-32,-2
5,4,-2,-5,4,2,-107,89,2,-45,-32,-8
5,4,-2,-5,4,2,-107,77,-16,-56,-43,-14
-1,-2,-2,7,4,2,-113,59,-28,-62,-55,-20
-7,-7,-2,7,-2,-4,-113,41,-40,-74,-61,-26
-7,-7,-2,7,-2,-4,-113,29,-50,-86,-73,-26
-7,-12,-8,7,-2,-10,-119,11,-68,-98,-85,-38
-1,-24,-26,13,10,-22,-125,11,-74,-104,-85,-38
-1,-30,-32,18,16,-28,-125,5,-80,-110,-85,-44
-1,-24,-26,13,10,-22,-125,-7,-92,-116,-91,-50
-1,-36,-38,18,16,-34,-131,-13,-98,-122,-97,-56
-7,-36,-32,18,10,-34,-131,-19,-104,-122,-109,-62
-7,-48,-44,23,16,-46,-125,-25,-110,-128,-115,-62
-7,-48,-44,23,16,-46,-125,-31,-110,-128,-115,-56
-7,-48,-44,23,16,-46,-125,-37,-116,-134,-121,-56
-7,-48,-44,23,16,-46,-131,-43,-122,-140,-121,-62
-1,-48,-50,23,22,-46,-125,-43,-128,-146,-127,-62
-1,-48,-50,23,22,-46,-119,-43,-128,-152,-127,-68
-7,-54,-50,29,22,-52,-119,-43,-134,-158,-133,-74
-7,-54,-50,29,22,-52,-119,-43,-134,-158,-139,-74
-7,-54,-50,29,22,-52,-119,-49,-134,-158,-139,-74
-7,-60,-56,29,22,-58,-125,-49,-134,-158,-133,-74
-7,-60,-56,29,22,-58,-119,-55,-134,-158,-133,-74
-13,-66,-56,41,22,-58,-119,-60,-134,-164,-133,-74
-13,-72,-62,41,22,-64,-113,-60,-134,-164,-133,-74
-13,-72,-62,41,22,-64,-113,-60,-128,-158,-127,-68
-19,-78,-62,47,22,-70,-113,-60,-128,-158,-133,-74
-19,-78,-62,47,22,-70,-107,-60,-128,-158,-133,-74
-19,-78,-62,47,22,-70,-107,-55,-122,-158,-133,-74
-25,-78,-56,53,16,-64,-107,-55,-122,-158,-127,-74
-25,-78,-56,53,16,-64,-101,-49,-116,-152,-127,-74
-25,-72,-50,47,10,-58,-107,-49,-116,-152,-127,-74
-25,-66,-44,47,10,-52,-107,-55,-116,-158,-127,-74
-30,-60,-32,41,-2,-46,-101,-55,-116,-152,-121,-74
-30,-60,-32,41,-2,-46,-101,-55,-116,-152,-121,-68
-30,-60,-32,41,-2,-46,-101,-49,-122,-146,-121,-68
-25,-60,-38,41,4,-46,-107,-49,-122,-152,-115,-68
-25,-66,-44,47,10,-52,-101,-49,-128,-152,-115,-68
-19,-66,-50,41,16,-58,-101,-43,-128,-152,-109,-68
-13,-60,-50,35,16,-52,-107,-43,-128,-152,-109,-62
-13,-54,-44,35,16,-46,-107,-43,-128,-152,-109,-68
-19,-54,-38,35,10,-46,-113,-49,-128,-152,-109,-68
-19,-54,-38,35,10,-46,-113,-49,-122,-146,-109,-68
-25,-54,-32,41,4,-40,-113,-49,-116,-146,-103,-68
-25,-48,-26,35,-2,-34,-107,-43,-110,-140,-103,-68
-25,-48,-26,35,-2,-34,-101,-37,-110,-140,-103,-68
-30,-42,-14,35,-8,-28,-101,-43,-110,-140,-103,-68
-30,-36,-8,29,-14,-22,-101,-43,-104,-140,-103,-68
-25,-30,-8,29,-8,-16,-101,-43,-98,-140,-103,-68
-25,-30,-8,29,-8,-16,-101,-43,-98,-146,-103,-68
-25,-30,-8,29,-8,-16,-113,-43,-98,-146,-103,-68
-25,-30,-8,29,-8,-16,-107,-37,-98,-152,-109,-74
-30,-30,-2,29,-14,-16,-107,-37,-98,-152,-109,-68
-30,-24,4,23,-20,-10,-101,-37,-98,-146,-109,-68
-25,-24,-2,23,-14,-10,-101,-37,-98,-146,-115,-68
-19,-24,-8,18,-8,-16,-101,-37,-104,-146,-115,-74
-19,-30,-14,23,-2,-22,-101,-37,-104,-152,-115,-80
-13,-30,-20,23,4,-22,-101,-31,-104,-146,-121,-80
-13,-30,-20,23,4,-22,-101,-31,-104,-146,-121,-74
-13,-36,-26,23,4,-28,-101,-37,-104,-140,-121,-74
-13,-36,-26,23,4,-28,-107,-37,-104,-140,-115,-74
-13,-30,-20,23,4,-22,-101,-43,-104,-140,-115,-74
-19,-24,-8,18,-8,-16,-107,-55,-110,-140,-115,-74
-19,-18,-2,18,-8,-10,-107,-55,-110,-134,-109,-74
-19,-18,-2,18,-8,-10,-107,-55,-110,-140,-109,-74
-19,-18,-2,18,-8,-10,-101,-49,-110,-146,-115,-80
-25,-24,-2,23,-14,-10,-101,-49,-110,-146,-115,-80
-25,-24,-2,23,-14,-10,-101,-43,-110,-146,-115,-86
-19,-18,-2,18,-8,-10,-101,-37,-110,-140,-115,-86
-13,-18,-8,18,-2,-10,-107,-43,-110,-140,-121,-92
-13,-18,-8,18,-2,-10,-107,-43,-110,-146,-121,-92
-19,-18,-2,18,-8,-10,-101,-43,-116,-140,-121,-92
-19,-24,-8,18,-8,-16,-101,-49,-122,-140,-127,-92
-19,-30,-14,23,-2,-22,-101,-49,-122,-140,-127,-92
-25,-36,-14,29,-8,-22,-95,-43,-122,-140,-127,-92
-25,-42,-20,35,-2,-28,-89,-43,-122,-140,-127,-92
-25,-42,-20,35,-2,-28,-89,-43,-122,-140,-127,-92
-25,-36,-14,29,-8,-22,-89,-43,-122,-140,-121,-92
-25,-36,-14,29,-8,-22,-89,-49,-116,-146,-121,-92
-25,-42,-20,35,-2,-28,-95,-49,-116,-146,-121,-86
-25,-42,-20,35,-2,-28,-95,-55,-110,-146,-121,-86
-25,-48,-26,35,-2,-34,-89,-55,-110,-152,-121,-86
-25,-42,-20,35,-2,-28,-89,-55,-110,-152,-115,-86
-19,-42,-26,29,4,-34,-83,-60,-116,-152,-115,-86
-25,-42,-20,35,-2,-28,-83,-60,-116,-158,-115,-86
-25,-42,-20,35,-2,-28,-83,-60,-116,-158,-115,-86
-30,-36,-8,29,-14,-22,-89,-60,-116,-158,-115,-86
-30,-42,-14,35,-8,-28,-89,-55,-116,-158,-109,-86
-30,-48,-20,35,-8,-34,-89,-55,-116,-158,-109,-86
-25,-48,-26,35,-2,-34,-95,-60,-116,-158,-103,-80
-25,-48,-26,35,-2,-34,-95,-60,-116,-158,-103,-80
-25,-54,-32,41,4,-40,-89,-65,-122,-164,-103,-86
-25,-54,-32,41,4,-40,-83,-65,-128,-164,-103,-86
-19,-54,-38,35,10,-46,-83,-71,-128,-158,-109,-86
-25,-54,-32,41,4,-40,-77,-71,-128,-158,-109,-86
-25,-48,-26,35,-2,-34,-77,-71,-134,-152,-115,-92
-25,-54,-32,41,4,-40,-77,-77,-140,-152,-115,-92
-25,-54,-32,41,4,-40,-77,-77,-146,-146,-115,-92
-25,-60,-38,41,4,-46,-77,-71,-146,-146,-115,-86
-25,-60,-38,41,4,-46,-83,-71,-152,-146,-115,-86
-30,-66,-38,47,4,-52,-83,-77,-158,-152,-115,-92
-25,-66,-44,47,10,-52,-83,-77,-158,-152,-115,-92
-25,-66,-44,47,10,-52,-77,-77,-158,-152,-121,-92
-25,-66,-44,47,10,-52,-83,-83,-164,-158,-121,-92
-30,-72,-44,47,4,-58,-77,-95,-164,-164,-127,-98
-25,-72,-50,47,10,-58,-77,-101,-164,-158,-127,-98
-30,-78,-50,53,10,-64,-71,-101,-164,-158,-127,-98
-30,-78,-50,53,10,-64,-71,-101,-164,-152,-127,-98
-30,-78,-50,53,10,-64,-71,-101,-164,-152,-127,-98
-30,-78,-50,53,10,-64,-71,-101,-170,-152,-127,-104
-30,-72,-44,47,4,-58,-77,-101,-170,-158,-127,-104
-25,-72,-50,47,10,-58,-83,-101,-170,-158,-133,-104
-19,-66,-50,41,16,-58,-83,-101,-170,-158,-133,-110
-19,-72,-56,41,16,-64,-77,-107,-170,-164,-139,-110
-19,-78,-62,47,22,-70,-77,-101,-170,-164,-145,-116
-19,-84,-68,47,22,-76,-77,-101,-176,-164,-145,-116
-25,-90,-68,59,22,-76,-77,-101,-176,-164,-145,-116
-30,-90,-62,59,16,-76,-77,-101,-182,-164,-151,-116
-30,-90,-62,59,16,-76,-83,-101,-182,-164,-145,-116
-30,-90,-62,59,16,-76,-89,-107,-182,-164,-145,-110
-35,-90,-56,59,10,-76,-95,-107,-182,-164,-139,-116
-35,-96,-62,59,10,-82,-95,-107,-182,-158,-139,-116
-30,-84,-56,53,10,-70,-101,-107,-182,-152,-139,-116
-30,-84,-56,53,10,-70,-95,-107,-182,-152,-139,-116
-25,-84,-62,53,16,-70,-89,-113,-182,-152,-145,-122
-25,-84,-62,53,16,-70,-89,-113,-182,-152,-145,-122
-25,-84,-62,53,16,-70,-83,-119,-182,-152,-151,-122
-25,-84,-62,53,16,-70,-89,-119,-188,-152,-151,-116
-30,-84,-56,53,10,-70,-89,-125,-182,-152,-151,-116
-30,-84,-56,53,10,-70,-95,-125,-188,-158,-157,-110
-30,-90,-62,59,16,-76,-95,-125,-188,-164,-157,-110
-35,-90,-56,59,10,-76,-95,-131,-188,-164,-163,-110
-30,-96,-68,59,16,-82,-95,-131,-194,-164,-169,-110
-30,-96,-68,59,16,-82,-89,-131,-200,-164,-169,-116
-25,-96,-74,59,22,-82,-89,-131,-200,-170,-169,-116
-25,-96,-74,59,22,-82,-83,-125,-200,-164,-163,-116
-30,-102,-74,65,22,-88,-89,-125,-200,-164,-163,-122
-30,-108,-80,65,22,-94,-83,-119,-200,-164,-163,-122
-35,-108,-74,65,16,-94,-83,-119,-200,-164,-163,-122
-35,-108,-74,65,16,-94,-89,-113,-206,-164,-163,-122
-30,-102,-74,65,22,-88,-89,-119,-212,-164,-163,-122
-30,-102,-74,65,22,-88,-95,-125,-218,-164,-163,-128
-30,-96,-68,59,16,-82,-95,-125,-218,-164,-163,-128
-30,-102,-74,65,22,-88,-89,-125,-218,-164,-163,-134
-30,-102,-74,65,22,-88,-83,-131,-218,-158,-163,-134
-30,-102,-74,65,22,-88,-83,-131,-218,-164,-157,-134
-35,-114,-80,71,22,-100,-77,-137,-218,-164,-157,-134
-35,-114,-80,71,22,-100,-77,-137,-218,-164,-157,-134
-35,-114,-80,71,22,-100,-77,-137,-218,-170,-157,-140
-35,-114,-80,71,22,-100,-83,-137,-224,-170,-157,-140
-35,-108,-74,65,16,-94,-89,-137,-224,-164,-157,-134
-35,-108,-74,65,16,-94,-89,-137,-224,-164,-151,-134
-35,-114,-80,71,22,-100,-89,-137,-224,-164,-157,-134
-41,-114,-74,77,16,-94,-89,-143,-218,-164,-157,-134
-41,-114,-74,77,16,-94,-83,-143,-218,-164,-163,-134
-30,-114,-86,71,28,-100,-83,-143,-224,-170,-163,-134
-30,-114,-86,71,28,-100,-83,-143,-224,-164,-169,-134
-30,-114,-86,71,28,-100,-83,-143,-218,-164,-169,-134
-35,-114,-80,71,22,-100,-83,-137,-218,-164,-169,-128
-41,-114,-74,77,16,-94,-77,-137,-218,-164,-169,-128
-41,-108,-68,71,10,-88,-77,-137,-218,-164,-175,-128
-41,-102,-62,71,10,-82,-77,-137,-218,-164,-175,-128
-41,-102,-62,71,10,-82,-71,-143,-218,-170,-181,-128
-30,-102,-74,65,22,-88,-77,-149,-224,-170,-187,-128
-30,-96,-68,59,16,-82,-71,-155,-224,-170,-187,-134
-25,-96,-74,59,22,-82,-71,-155,-224,-164,-187,-128
-19,-96,-80,53,28,-88,-71,-149,-218,-158,-181,-128
-19,-96,-80,53,28,-88,-65,-143,-218,-158,-175,-128
-25,-90,-68,59,22,-76,-59,-143,-218,-152,-169,-122
-25,-78,-56,53,16,-64,-65,-143,-212,-158,-169,-122
-25,-72,-50,47,10,-58,-54,-137,-212,-152,-163,-122
-25,-60,-38,41,4,-46,-49,-131,-206,-146,-163,-122
-19,-42,-26,29,4,-34,-49,-131,-200,-140,-157,-128
-13,-24,-14,18,-2,-16,-54,-131,-194,-134,-157,-128
-7,-12,-8,7,-2,-10,-54,-125,-188,-134,-157,-128
-13,-12,-2,13,-8,-4,-54,-131,-188,-134,-157,-128
-13,-7,4,13,-8,2,-59,-131,-188,-134,-157,-122
-7,-7,-2,7,-2,-4,-54,-131,-182,-134,-151,-122
-7,-2,4,7,-2,2,-54,-125,-182,-122,-145,-116
-1,10,10,1,-2,12,-54,-125,-176,-116,-145,-116
-1,10,10,1,-2,12,-65,-119,-176,-116,-145,-110
5,16,10,-11,-2,12,-65,-119,-170,-110,-139,-110
11,22,10,-11,4,18,-77,-113,-164,-98,-139,-110
11,22,10,-11,4,18,-77,-113,-158,-98,-133,-104
11,28,16,-17,-2,24,-77,-113,-158,-104,-133,-104
11,22,10,-11,4,18,-83,-119,-164,-104,-133,-110
5,16,10,-11,-2,12,-83,-125,-170,-104,-139,-110
11,16,4,-11,4,12,-83,-125,-164,-104,-133,-104
17,22,4,-17,10,12,-83,-119,-158,-98,-133,-104
17,16,-2,-17,10,7,-89,-119,-152,-98,-127,-98
11,16,4,-11,4,12,-95,-125,-152,-98,-133,-98
5,10,4,-5,4,7,-95,-125,-152,-98,-133,-98
-1,-2,-2,7,4,2,-83,-125,-146,-98,-133,-98
-7,-12,-8,7,-2,-10,-71,-119,-140,-92,-127,-98
-7,-24,-20,13,4,-22,-65,-119,-140,-92,-127,-92
-1,-36,-38,18,16,-34,-71,-113,-134,-86,-121,-92
5,-42,-50,18,28,-46,-65,-107,-134,-86,-115,-86
17,-42,-62,13,40,-52,-65,-107,-134,-86,-115,-86
11,-42,-56,18,34,-46,-65,-107,-134,-86,-115,-86
17,-48,-68,13,40,-58,-71,-113,-140,-92,-115,-86
11,-54,-68,23,40,-58,-71,-113,-146,-104,-121,-92
5,-54,-62,23,34,-58,-71,-113,-158,-98,-121,-92
5,-54,-62,23,34,-58,-71,-113,-158,-98,-121,-92
-1,-60,-62,29,28,-58,-65,-113,-158,-104,-121,-98
-13,-60,-50,35,16,-52,-59,-113,-158,-104,-127,-104
-19,-60,-44,35,10,-52,-59,-119,-158,-116,-133,-116
-30,-72,-44,47,4,-58,-54,-119,-158,-128,-145,-122
-30,-72,-44,47,4,-58,-54,-119,-152,-134,-151,-128
-30,-66,-38,47,4,-52,-54,-119,-140,-128,-145,-122
-35,-60,-26,41,-8,-46,-54,-113,-128,-116,-139,-110
-30,-60,-32,41,-2,-46,-54,-107,-116,-110,-133,-110
-30,-60,-32,41,-2,-46,-59,-107,-110,-98,-127,-104
-30,-54,-26,41,-2,-40,-65,-95,-98,-92,-115,-98
-19,-42,-26,29,4,-34,-71,-83,-86,-92,-103,-92
-13,-30,-20,23,4,-22,-77,-71,-74,-80,-85,-80
5,-18,-26,7,16,-22,-77,-60,-50,-68,-67,-68
17,-7,-26,-5,22,-16,-83,-60,-40,-56,-49,-50
29,-2,-32,-11,34,-16,-77,-49,-22,-45,-37,-38
35,10,-26,-17,34,-4,-71,-31,-4,-34,-32,-26
41,16,-26,-29,34,-4,-77,-13,2,-22,-21,-8
47,22,-26,-29,40,2,-89,5,14,-10,-15,4
53,28,-26,-41,40,2,-95,17,20,8,-3,9
59,28,-32,-41,46,2,-101,41,32,26,9,20
71,22,-50,-41,64,-10,-101,65,56,44,27,38
83,10,-74,-41,82,-28,-101,89,86,68,45,56
101,10,-92,-53,100,-40,-101,119,110,92,63,68
113,-2,-116,-53,118,-58,-107,149,146,116,87,86
131,-7,-140,-59,136,-70,-95,197,194,152,111,110
149,-18,-170,-65,160,-94,-77,257,248,200,147,140
173,-36,-212,-71,190,-124,-65,323,308,254,189,170
191,-54,-248,-65,220,-148,-49,407,380,320,237,206
215,-78,-296,-65,256,-184,-19,509,476,398,297,248
245,-96,-344,-77,292,-220,-7,611,572,482,357,290
275,-120,-398,-77,334,-256,17,725,680,566,423,350
311,-150,-464,-77,388,-304,41,857,812,680,513,422
359,-174,-536,-89,448,-352,71,1001,986,800,609,500
413,-186,-602,-113,508,-394,101,1175,1190,944,729,596
467,-180,-650,-143,556,-412,143,1385,1448,1130,873,716
521,-156,-680,-185,598,-418,179,1631,1742,1346,1047,860
575,-126,-704,-221,640,-412,239,1883,2054,1586,1239,1010
629,-84,-716,-275,670,-400,293,2069,2336,1814,1443,1178
683,-7,-692,-335,688,-346,281,2099,2503,2018,1641,1346
725,100,-626,-413,676,-262,203,1985,2575,2180,1827,1520
755,238,-518,-491,640,-136,113,1829,2611,2312,2013,1688
779,394,-386,-581,586,7,23,1637,2605,2431,2193,1844
785,568,-218,-677,502,174,-59,1403,2545,2503,2343,1976
773,748,-26,-761,400,360,-125,1157,2473,2545,2462,2078
731,904,170,-815,280,540,-167,917,2389,2539,2528,2132
659,1030,368,-839,148,702,-161,689,2276,2473,2546,2126
563,1144,578,-851,-8,864,-143,449,2090,2330,2480,2054
449,1222,770,-833,-156,996,-113,215,1868,2126,2361,1940
335,1270,932,-797,-294,1104,-77,23,1646,1904,2217,1808
239,1282,1040,-755,-396,1164,-37,-113,1430,1682,2061,1682
161,1258,1094,-707,-462,1176,17,-197,1220,1466,1893,1550
107,1210,1100,-653,-492,1158,83,-251,1010,1244,1719,1412
65,1108,1040,-587,-486,1074,173,-305,764,992,1491,1244
17,946,926,-479,-450,936,269,-359,506,728,1227,1028
-25,700,722,-335,-372,714,383,-347,302,506,951,794
-65,370,434,-149,-246,402,527,-281,176,344,663,530
-101,64,164,18,-132,114,635,-221,68,212,411,296
-137,-138,-2,137,-66,-70,671,-209,-50,92,213,116
-161,-258,-98,209,-30,-178,635,-209,-152,-10,69,4
-173,-306,-134,239,-20,-220,557,-209,-218,-74,-27,-68
-185,-312,-128,245,-30,-220,479,-203,-242,-128,-85,-110
-185,-288,-104,233,-42,-196,413,-191,-254,-164,-133,-146
-173,-246,-74,209,-48,-160,347,-179,-248,-188,-163,-158
-155,-192,-38,167,-60,-118,269,-173,-242,-200,-187,-170
-137,-156,-20,143,-60,-88,191,-173,-236,-206,-199,-176
-113,-132,-20,119,-48,-76,119,-173,-230,-194,-205,-170
-95,-120,-26,101,-36,-76,41,-179,-230,-182,-193,-164
-83,-114,-32,95,-25,-76,-19,-179,-230,-176,-193,-164
-77,-114,-38,95,-20,-76,-54,-173,-224,-170,-193,-164
-77,-108,-32,89,-25,-70,-77,-161,-224,-164,-193,-164
-77,-96,-20,83,-30,-58,-89,-149,-224,-170,-193,-170
-89,-96,-8,89,-42,-52,-83,-143,-230,-182,-199,-182
-89,-90,-2,89,-42,-46,-83,-143,-230,-188,-211,-182
-95,-90,4,89,-48,-46,-89,-143,-236,-194,-217,-188
-95,-90,4,89,-48,-46,-89,-143,-236,-200,-223,-194
-95,-90,4,89,-48,-46,-101,-143,-242,-206,-229,-200
-83,-96,-14,83,-36,-58,-119,-149,-242,-200,-235,-194
-77,-96,-20,83,-30,-58,-125,-149,-248,-200,-235,-194
-77,-96,-20,83,-30,-58,-143,-149,-248,-200,-235,-200
-77,-102,-26,89,-25,-64,-155,-149,-248,-200,-235,-200
-71,-102,-32,83,-20,-70,-149,-143,-242,-200,-235,-206
-65,-96,-32,77,-20,-64,-149,-143,-242,-200,-241,-200
-59,-90,-32,71,-14,-64,-149,-137,-236,-200,-241,-200
-65,-84,-20,71,-25,-52,-149,-137,-236,-200,-241,-200
-59,-84,-26,65,-20,-58,-149,-137,-230,-200,-241,-194
-59,-84,-26,65,-20,-58,-161,-125,-224,-200,-241,-188
-59,-84,-26,65,-20,-58,-167,-125,-218,-194,-229,-188
-59,-84,-26,65,-20,-58,-173,-125,-218,-194,-229,-188
-59,-78,-20,65,-20,-52,-173,-131,-212,-200,-229,-188
-65,-72,-8,65,-30,-40,-173,-131,-206,-194,-229,-182
-65,-72,-8,65,-30,-40,-173,-131,-200,-194,-229,-182
-65,-72,-8,65,-30,-40,-179,-131,-200,-194,-229,-188
-71,-78,-8,71,-30,-46,-179,-125,-194,-200,-229,-194
-71,-78,-8,71,-30,-46,-179,-125,-188,-200,-223,-194
-71,-84,-14,71,-30,-52,-179,-125,-188,-200,-223,-194
-71,-78,-8,71,-30,-46,-185,-125,-188,-200,-223,-200
-71,-72,-2,65,-36,-40,-179,-125,-188,-200,-217,-200
-71,-72,-2,65,-36,-40,-185,-131,-188,-200,-217,-194
-71,-66,4,65,-36,-34,-185,-131,-182,-200,-217,-188
-71,-60,10,59,-42,-28,-191,-131,-182,-200,-211,-188
-65,-54,10,59,-36,-22,-191,-125,-182,-194,-211,-188
-65,-48,16,53,-42,-16,-197,-125,-182,-194,-211,-188
-65,-48,16,53,-42,-16,-197,-131,-188,-194,-217,-188
-65,-36,26,47,-48,-4,-203,-131,-176,-188,-217,-188
-65,-36,26,47,-48,-4,-203,-125,-176,-182,-217,-182
-65,-36,26,47,-48,-4,-209,-125,-170,-176,-217,-182
-71,-36,32,47,-54,-4,-209,-125,-164,-176,-211,-176
-71,-30,38,47,-54,2,-215,-125,-164,-176,-205,-176
-71,-18,50,41,-60,12,-215,-125,-164,-176,-205,-176
-71,-12,56,35,-66,18,-221,-125,-164,-176,-205,-176
-77,-7,68,41,-72,30,-221,-119,-170,-176,-205,-170
-77,-7,68,41,-72,30,-221,-119,-170,-170,-205,-170
-77,-2,74,41,-72,36,-215,-119,-176,-170,-205,-176
-71,10,80,29,-72,42,-215,-119,-176,-170,-205,-176
-71,10,80,29,-72,42,-221,-113,-170,-164,-205,-176
-77,10,86,35,-78,48,-227,-113,-170,-164,-205,-176
-77,16,92,29,-84,54,-233,-113,-164,-158,-205,-170
-71,22,92,23,-78,54,-233,-113,-164,-158,-205,-164
-65,34,98,18,-78,66,-233,-113,-164,-158,-199,-164
-65,34,98,18,-78,66,-239,-113,-158,-152,-199,-158
-71,40,110,13,-90,72,-239,-113,-158,-152,-193,-158
-71,40,110,13,-90,72,-251,-113,-152,-152,-193,-158
-77,46,122,18,-96,84,-245,-113,-146,-152,-193,-158
-77,52,128,13,-102,90,-245,-107,-140,-152,-187,-146
-77,70,146,7,-108,108,-239,-101,-128,-146,-187,-140
-71,82,152,-5,-108,114,-233,-101,-122,-146,-181,-134
-71,94,164,-11,-114,126,-233,-101,-116,-140,-175,-134
-71,100,170,-17,-120,132,-227,-95,-110,-140,-169,-134
-71,106,176,-17,-120,138,-215,-95,-98,-134,-163,-128
-71,112,182,-23,-126,144,-209,-89,-92,-128,-163,-128
-71,124,194,-29,-132,156,-197,-89,-86,-122,-157,-128
-77,130,206,-23,-138,168,-191,-83,-74,-122,-157,-128
-71,142,212,-35,-138,174,-179,-77,-68,-116,-151,-128
-71,148,218,-41,-144,180,-179,-71,-56,-110,-151,-122
-65,166,230,-47,-144,198,-167,-65,-45,-104,-145,-116
-65,178,242,-53,-150,210,-161,-60,-40,-92,-133,-110
-65,190,254,-59,-156,222,-155,-60,-28,-86,-127,-110
-65,202,266,-65,-162,234,-149,-55,-16,-80,-115,-110
-65,208,272,-71,-168,240,-143,-49,2,-68,-109,-104
-65,208,272,-71,-168,240,-143,-37,14,-56,-97,-92
-59,220,278,-83,-168,246,-131,-19,26,-45,-91,-86
-59,232,290,-89,-174,258,-125,-7,38,-40,-79,-80
-53,238,290,-89,-168,264,-119,-1,50,-28,-73,-74
-53,250,302,-95,-174,276,-107,11,62,-16,-67,-68
-59,256,314,-101,-186,282,-101,17,80,-4,-61,-68
-59,256,314,-101,-186,282,-89,29,92,8,-55,-62
-59,268,326,-107,-192,294,-77,35,104,26,-43,-56
-53,274,326,-107,-186,300,-59,47,122,38,-32,-50
-53,274,326,-107,-186,300,-49,59,140,44,-27,-38
-53,280,332,-113,-192,306,-31,77,152,62,-9,-32
-53,274,326,-107,-186,300,-13,95,164,74,3,-14
-47,274,320,-113,-180,294,-1,107,182,86,9,-14
-47,274,320,-113,-180,294,11,119,194,104,21,-8
-53,268,320,-107,-186,294,23,131,212,116,33,-2
-53,262,314,-101,-180,288,41,143,230,134,45,9
-59,262,320,-101,-186,288,59,161,242,152,57,14
-53,262,314,-101,-180,288,77,179,260,170,69,26
-47,256,302,-107,-174,276,95,191,278,182,81,32
-41,250,290,-101,-162,270,107,203,296,200,93,44
-35,244,278,-107,-156,258,125,215,314,212,105,56
-30,238,266,-101,-144,252,137,227,326,224,111,62
-30,226,254,-95,-138,240,149,245,338,242,123,68
-30,214,242,-89,-132,228,155,257,350,254,123,74
-30,202,230,-83,-126,216,167,269,356,266,129,80
-30,190,218,-77,-120,204,185,275,368,272,135,80
-30,172,200,-71,-114,186,197,281,374,272,141,80
-30,154,182,-59,-102,168,215,293,374,272,141,86
-30,142,170,-53,-96,156,227,293,374,266,141,86
-25,130,152,-47,-84,144,233,293,362,260,141,86
-25,118,140,-41,-78,132,239,287,350,248,141,86
-25,106,128,-35,-72,120,245,275,338,236,135,74
-19,94,110,-35,-60,102,257,263,320,224,129,68
-19,76,92,-29,-54,84,263,251,296,200,117,62
-25,64,86,-17,-54,78,269,239,278,182,99,56
-25,46,68,-5,-42,60,269,221,260,164,81,50
-25,34,56,1,-36,48,275,209,236,152,69,38
-25,22,44,7,-30,36,275,191,218,134,57,32
-30,10,38,13,-30,24,281,173,194,122,45,20
-30,-2,26,18,-25,12,275,155,170,104,33,9
-35,-7,26,18,-30,7,275,131,146,92,21,4
-41,-12,26,23,-36,7,269,113,122,74,9,-2
-47,-24,21,29,-36,-4,269,95,98,56,-3,-8
-47,-36,10,35,-30,-16,263,77,80,38,-21,-20
-47,-42,4,41,-25,-22,263,65,56,20,-32,-26
-47,-54,-8,47,-20,-34,263,47,38,2,-37,-32
-47,-66,-20,53,-14,-46,257,35,20,-10,-49,-38
-47,-72,-26,53,-14,-52,245,17,2,-22,-61,-50
-47,-84,-38,59,-8,-64,239,-1,-10,-34,-73,-62
-47,-90,-44,65,-2,-70,233,-13,-22,-40,-79,-62
-47,-96,-50,65,-2,-76,227,-19,-34,-45,-85,-68
-41,-96,-56,65,4,-76,227,-31,-45,-56,-85,-80
-47,-102,-56,71,4,-82,233,-37,-50,-68,-85,-80
-47,-108,-62,71,4,-88,227,-43,-62,-80,-85,-86
-47,-108,-62,71,4,-88,227,-55,-68,-92,-85,-86
-47,-114,-68,77,10,-94,227,-60,-80,-98,-91,-92
-47,-120,-74,77,10,-100,221,-65,-86,-104,-91,-92
-47,-126,-80,83,16,-106,221,-71,-92,-104,-91,-92
-47,-132,-86,83,16,-112,221,-77,-98,-104,-91,-92
-47,-132,-86,83,16,-112,221,-77,-104,-104,-91,-86
-53,-132,-80,89,10,-106,215,-77,-104,-104,-91,-86
-59,-132,-74,89,4,-106,215,-77,-104,-110,-91,-86
-59,-126,-68,89,4,-100,215,-83,-110,-110,-91,-86
-59,-126,-68,89,4,-100,209,-89,-110,-110,-91,-86
-59,-132,-74,89,4,-106,209,-89,-116,-116,-97,-86
-53,-132,-80,89,10,-106,215,-89,-116,-122,-97,-86
-53,-138,-86,95,16,-112,209,-95,-122,-122,-91,-86
-59,-138,-80,95,10,-112,209,-95,-128,-122,-91,-86
-59,-138,-80,95,10,-112,209,-95,-128,-122,-85,-86
-59,-138,-80,95,10,-112,209,-95,-128,-122,-85,-92
-59,-144,-86,95,10,-118,209,-95,-134,-122,-85,-92
-59,-150,-92,101,16,-124,209,-95,-128,-122,-85,-98
-59,-150,-92,101,16,-124,209,-95,-122,-122,-85,-98
-65,-150,-86,107,10,-118,203,-95,-122,-122,-85,-104
-65,-156,-92,107,10,-124,209,-95,-122,-122,-85,-104
-59,-156,-98,101,16,-130,209,-95,-116,-116,-91,-104
-59,-156,-98,101,16,-130,203,-89,-116,-122,-91,-104
-59,-150,-92,101,16,-124,197,-89,-122,-122,-97,-110
-65,-150,-86,107,10,-118,197,-89,-122,-122,-97,-110
-65,-150,-86,107,10,-118,191,-89,-122,-122,-97,-110
-59,-150,-92,101,16,-124,191,-83,-122,-122,-97,-104
-59,-150,-92,101,16,-124,197,-83,-122,-116,-103,-104
-59,-144,-86,95,10,-118,203,-77,-116,-116,-97,-104
-65,-144,-80,101,4,-112,203,-83,-116,-116,-97,-104
-59,-138,-80,95,10,-112,203,-77,-116,-122,-97,-104
-53,-138,-86,95,16,-112,203,-77,-122,-116,-97,-104
-53,-138,-86,95,16,-112,197,-77,-122,-116,-97,-104
-53,-138,-86,95,16,-112,197,-77,-116,-116,-91,-104
-59,-132,-74,89,4,-106,197,-83,-116,-110,-91,-104
-59,-132,-74,89,4,-106,197,-77,-116,-110,-91,-104
-59,-126,-68,89,4,-100,197,-77,-110,-110,-91,-104
-59,-126,-68,89,4,-100,203,-77,-110,-116,-91,-104
-59,-126,-68,89,4,-100,203,-77,-110,-116,-91,-104
-59,-126,-68,89,4,-100,197,-77,-104,-116,-97,-98
-65,-126,-62,95,-2,-94,197,-77,-104,-116,-97,-98
-65,-126,-62,95,-2,-94,203,-77,-104,-116,-97,-92
-65,-126,-62,95,-2,-94,203,-77,-104,-122,-91,-92
-65,-126,-62,95,-2,-94,203,-77,-104,-122,-91,-92
-65,-126,-62,95,-2,-94,197,-83,-104,-122,-91,-92
-65,-120,-56,89,-8,-88,197,-83,-98,-122,-91,-92
-65,-114,-50,89,-8,-82,203,-83,-98,-122,-85,-92
-59,-114,-56,83,-2,-88,197,-83,-98,-116,-85,-92
-65,-114,-50,89,-8,-82,197,-83,-98,-122,-85,-86
-65,-114,-50,89,-8,-82,191,-83,-98,-122,-91,-92
-65,-114,-50,89,-8,-82,191,-83,-98,-122,-85,-98
-65,-114,-50,89,-8,-82,191,-77,-92,-122,-85,-92
-65,-108,-44,83,-14,-76,185,-83,-92,-122,-79,-92
-65,-108,-44,83,-14,-76,185,-83,-92,-116,-79,-92
-71,-102,-32,83,-20,-70,185,-83,-92,-122,-79,-86
-71,-102,-32,83,-20,-70,179,-83,-98,-122,-79,-92
-71,-108,-38,83,-20,-76,179,-95,-98,-122,-85,-92
-65,-108,-44,83,-14,-76,185,-89,-104,-122,-85,-92
-59,-108,-50,77,-8,-82,191,-89,-104,-122,-85,-98
-59,-108,-50,77,-8,-82,191,-89,-110,-122,-91,-98
-65,-102,-38,83,-14,-70,191,-89,-116,-122,-85,-98
-59,-90,-32,71,-14,-64,191,-89,-116,-128,-85,-92
-59,-90,-32,71,-14,-64,185,-95,-116,-128,-91,-92
-65,-90,-26,77,-20,-58,179,-101,-110,-128,-91,-92
-65,-90,-26,77,-20,-58,173,-101,-110,-134,-97,-92
-71,-90,-20,77,-25,-58,179,-107,-110,-134,-103,-92
-71,-84,-14,71,-30,-52,173,-113,-110,-134,-103,-92
-71,-84,-14,71,-30,-52,173,-113,-110,-134,-109,-98
-71,-84,-14,71,-30,-52,179,-113,-116,-140,-109,-104
-71,-84,-14,71,-30,-52,179,-107,-116,-140,-109,-104
-65,-78,-14,71,-25,-46,179,-113,-116,-140,-109,-104
-65,-78,-14,71,-25,-46,173,-113,-116,-146,-109,-110
-65,-78,-14,71,-25,-46,173,-113,-116,-146,-109,-110
-65,-78,-14,71,-25,-46,167,-113,-116,-152,-109,-110
-65,-78,-14,71,-25,-46,167,-113,-116,-152,-109,-110
-65,-78,-14,71,-25,-46,167,-113,-122,-152,-109,-110
-65,-78,-14,71,-25,-46,161,-113,-128,-152,-109,-110
-65,-78,-14,71,-25,-46,161,-119,-128,-152,-109,-110
-71,-78,-8,71,-30,-46,167,-119,-134,-158,-109,-116
-77,-72,4,71,-42,-34,161,-119,-134,-164,-103,-122
-77,-78,-2,77,-36,-40,155,-119,-140,-170,-109,-122
-77,-78,-2,77,-36,-40,155,-119,-146,-170,-109,-122
-71,-84,-14,71,-30,-52,155,-119,-146,-170,-115,-128
-65,-78,-14,71,-25,-46,161,-119,-140,-170,-115,-122
-65,-84,-20,71,-25,-52,161,-119,-140,-164,-115,-122
-59,-84,-26,65,-20,-58,161,-125,-146,-164,-121,-128
-65,-84,-20,71,-25,-52,161,-131,-146,-164,-121,-128
-65,-90,-26,77,-20,-58,167,-131,-146,-170,-121,-134
-65,-90,-26,77,-20,-58,167,-125,-152,-176,-121,-134
-65,-90,-26,77,-20,-58,167,-125,-152,-176,-121,-128
-65,-90,-26,77,-20,-58,167,-125,-152,-182,-121,-128
-59,-84,-26,65,-20,-58,167,-119,-146,-182,-127,-128
-59,-84,-26,65,-20,-58,161,-119,-152,-176,-115,-128
-59,-84,-26,65,-20,-58,155,-119,-152,-176,-115,-128
-65,-90,-26,77,-20,-58,155,-125,-152,-170,-115,-122
-65,-90,-26,77,-20,-58,155,-125,-152,-170,-115,-122
-65,-96,-32,77,-20,-64,149,-131,-152,-170,-121,-122
-65,-90,-26,77,-20,-58,149,-137,-152,-176,-121,-122
-71,-90,-20,77,-25,-58,149,-137,-152,-176,-121,-122
-71,-90,-20,77,-25,-58,149,-143,-152,-182,-121,-122
-65,-90,-26,77,-20,-58,143,-149,-152,-182,-121,-122
-65,-96,-32,77,-20,-64,143,-149,-146,-176,-121,-122
-65,-102,-38,83,-14,-70,143,-155,-146,-176,-121,-122
-65,-108,-44,83,-14,-76,143,-155,-146,-176,-127,-128
-65,-102,-38,83,-14,-70,143,-155,-140,-176,-127,-122
-65,-96,-32,77,-20,-64,143,-155,-140,-176,-121,-122
-65,-96,-32,77,-20,-64,137,-161,-146,-182,-127,-122
-71,-102,-32,83,-20,-70,137,-155,-152,-182,-121,-116
-71,-108,-38,83,-20,-76,143,-155,-152,-182,-121,-116
-71,-114,-44,89,-14,-82,143,-155,-158,-182,-121,-122
-71,-114,-44,89,-14,-82,137,-161,-158,-182,-127,-122
-65,-120,-56,89,-8,-88,137,-161,-158,-176,-121,-122
-65,-120,-56,89,-8,-88,131,-167,-158,-176,-121,-128
-65,-114,-50,89,-8,-82,125,-167,-170,-176,-127,-128
-59,-114,-56,83,-2,-88,119,-173,-170,-182,-127,-122
-59,-108,-50,77,-8,-82,113,-167,-176,-182,-127,-122
-59,-108,-50,77,-8,-82,113,-167,-176,-188,-127,-122
-59,-114,-56,83,-2,-88,119,-161,-182,-188,-127,-122
-59,-108,-50,77,-8,-82,119,-161,-182,-188,-127,-122
-59,-108,-50,77,-8,-82,119,-161,-176,-188,-127,-122
-59,-102,-44,77,-8,-76,119,-161,-176,-182,-127,-122
-59,-102,-44,77,-8,-76,119,-161,-176,-182,-127,-122
-59,-108,-50,77,-8,-82,113,-161,-176,-182,-127,-122
-65,-108,-44,83,-14,-76,107,-161,-176,-182,-127,-128
-65,-108,-44,83,-14,-76,107,-155,-176,-188,-121,-128
-65,-108,-44,83,-14,-76,107,-155,-176,-188,-121,-128
-59,-108,-50,77,-8,-82,107,-149,-176,-188,-121,-128
-59,-114,-56,83,-2,-88,113,-149,-176,-188,-127,-128
-65,-114,-50,89,-8,-82,113,-149,-176,-188,-127,-128
-65,-120,-56,89,-8,-88,107,-155,-176,-188,-139,-134
-65,-126,-62,95,-2,-94,107,-155,-176,-194,-139,-134
-71,-126,-56,95,-8,-94,101,-155,-176,-194,-139,-140
-71,-120,-50,89,-14,-88,83,-155,-176,-194,-139,-140
-77,-114,-38,95,-20,-76,83,-155,-176,-194,-139,-134
-77,-108,-32,89,-25,-70,77,-155,-182,-194,-133,-134
-71,-108,-38,83,-20,-76,71,-155,-182,-194,-133,-134
-71,-108,-38,83,-20,-76,65,-161,-188,-194,-139,-134
-77,-108,-32,89,-25,-70,71,-161,-194,-194,-145,-134
-77,-108,-32,89,-25,-70,71,-167,-188,-188,-145,-134
-71,-108,-38,83,-20,-76,77,-167,-182,-188,-151,-128
-71,-114,-44,89,-14,-82,77,-161,-176,-188,-151,-128
-65,-108,-44,83,-14,-76,77,-161,-176,-188,-151,-122
-65,-108,-44,83,-14,-76,71,-161,-176,-188,-151,-122
-59,-108,-50,77,-8,-82,71,-161,-170,-188,-145,-122
-59,-108,-50,77,-8,-82,71,-161,-170,-188,-145,-122
-59,-102,-44,77,-8,-76,65,-167,-176,-188,-145,-128
-59,-102,-44,77,-8,-76,65,-161,-176,-188,-145,-128
-59,-102,-44,77,-8,-76,71,-161,-176,-182,-145,-128
-59,-108,-50,77,-8,-82,71,-167,-182,-182,-145,-128
-65,-108,-44,83,-14,-76,71,-161,-182,-182,-151,-128
-65,-114,-50,89,-8,-82,71,-161,-182,-188,-151,-128
-65,-120,-56,89,-8,-88,71,-161,-182,-182,-151,-128
-65,-120,-56,89,-8,-88,71,-161,-176,-182,-151,-122
-59,-114,-56,83,-2,-88,65,-155,-182,-182,-151,-122
-59,-114,-56,83,-2,-88,65,-155,-182,-182,-157,-122
-65,-120,-56,89,-8,-88,65,-155,-176,-182,-157,-122
-65,-120,-56,89,-8,-88,65,-155,-176,-182,-157,-122
-65,-120,-56,89,-8,-88,65,-155,-182,-182,-163,-122
-71,-126,-56,95,-8,-94,65,-161,-188,-188,-163,-122
-71,-126,-56,95,-8,-94,59,-161,-188,-188,-163,-128
-71,-126,-56,95,-8,-94,59,-161,-188,-188,-169,-128
-65,-120,-56,89,-8,-88,59,-167,-194,-188,-169,-122
-65,-114,-50,89,-8,-82,53,-167,-194,-194,-169,-122
-65,-114,-50,89,-8,-82,47,-173,-194,-200,-169,-128
-59,-114,-56,83,-2,-88,47,-173,-194,-200,-163,-128
-59,-114,-56,83,-2,-88,47,-173,-194,-200,-157,-128
-59,-120,-62,83,-2,-94,47,-173,-194,-200,-157,-128
-59,-126,-68,89,4,-100,53,-173,-200,-194,-157,-134
-59,-126,-68,89,4,-100,53,-173,-200,-194,-157,-134
-65,-126,-62,95,-2,-94,53,-173,-200,-194,-151,-134
-71,-126,-56,95,-8,-94,53,-173,-200,-194,-145,-134
-71,-126,-56,95,-8,-94,59,-167,-194,-194,-145,-128
-71,-120,-50,89,-14,-88,53,-167,-194,-194,-145,-128
-71,-114,-44,89,-14,-82,47,-161,-188,-188,-145,-122
-71,-114,-44,89,-14,-82,47,-161,-188,-188,-151,-122
-71,-114,-44,89,-14,-82,41,-161,-182,-188,-151,-128
-65,-114,-50,89,-8,-82,41,-161,-182,-182,-151,-128
-65,-108,-44,83,-14,-76,47,-161,-188,-182,-151,-128
-59,-108,-50,77,-8,-82,47,-155,-188,-182,-151,-128
-59,-102,-44,77,-8,-76,53,-155,-188,-182,-151,-128
-59,-102,-44,77,-8,-76,59,-149,-188,-176,-151,-128
-53,-96,-44,71,-8,-70,59,-149,-188,-176,-151,-128
-53,-84,-32,65,-14,-58,59,-143,-188,-170,-145,-122
-47,-78,-32,59,-8,-58,59,-137,-182,-164,-145,-116
-47,-60,-14,47,-20,-40,65,-137,-170,-158,-139,-110
-47,-54,-8,47,-20,-34,71,-131,-164,-158,-133,-104
-47,-42,4,41,-25,-22,71,-131,-164,-158,-127,-104
-47,-30,16,35,-30,-10,71,-125,-158,-152,-121,-98
-41,-18,21,29,-30,2,71,-125,-152,-152,-121,-98
-41,-7,32,23,-36,12,65,-125,-152,-152,-121,-98
-35,-7,26,18,-30,7,59,-125,-152,-152,-121,-104
-35,-2,32,18,-30,12,59,-119,-140,-146,-115,-98
-30,4,32,13,-30,18,53,-107,-134,-140,-109,-92
-30,16,44,7,-36,30,47,-107,-134,-134,-103,-86
-30,22,50,7,-36,36,35,-113,-134,-134,-103,-80
-25,28,50,1,-36,42,29,-113,-134,-122,-103,-80
-30,28,56,1,-42,42,23,-113,-134,-116,-97,-80
-25,22,44,7,-30,36,23,-107,-128,-110,-97,-74
-25,28,50,1,-36,42,23,-101,-128,-110,-97,-74
-25,28,50,1,-36,42,17,-107,-128,-104,-97,-74
-25,16,38,7,-30,30,11,-107,-128,-104,-103,-80
-25,16,38,7,-30,30,11,-101,-128,-104,-97,-86
-19,16,32,1,-25,24,11,-101,-122,-98,-91,-86
-19,16,32,1,-25,24,17,-95,-122,-98,-85,-80
-19,16,32,1,-25,24,17,-95,-122,-98,-85,-80
-13,16,26,1,-20,24,11,-101,-128,-98,-91,-74
-19,10,26,7,-20,18,11,-101,-128,-98,-97,-74
-25,-7,16,18,-20,7,11,-95,-128,-98,-97,-74
-19,-12,4,13,-14,-4,17,-95,-128,-92,-91,-74
-19,-18,-2,18,-8,-10,17,-95,-122,-92,-91,-74
-13,-30,-20,23,4,-22,11,-95,-122,-92,-91,-74
-13,-36,-26,23,4,-28,11,-95,-122,-92,-85,-74
-13,-36,-26,23,4,-28,5,-101,-122,-92,-85,-68
-13,-42,-32,29,10,-34,5,-101,-128,-98,-85,-74
-19,-48,-32,29,4,-40,5,-101,-134,-98,-85,-74
-25,-48,-26,35,-2,-34,11,-107,-134,-98,-91,-74
-30,-48,-20,35,-8,-34,11,-113,-134,-104,-91,-74
-25,-54,-32,41,4,-40,17,-107,-128,-104,-91,-74
-30,-60,-32,41,-2,-46,23,-107,-128,-104,-97,-74
-35,-66,-32,47,-2,-52,23,-107,-128,-104,-103,-74
-35,-66,-32,47,-2,-52,23,-107,-134,-110,-115,-80
-47,-66,-20,53,-14,-46,29,-113,-134,-110,-121,-92
-53,-60,-8,53,-25,-34,29,-113,-134,-110,-121,-92
-53,-54,-2,53,-25,-28,35,-107,-128,-104,-115,-86
-47,-48,-2,41,-25,-28,35,-101,-116,-98,-109,-80
-35,-42,-8,35,-14,-28,35,-95,-98,-86,-97,-68
-35,-36,-2,29,-20,-22,23,-89,-86,-80,-85,-62
-30,-24,4,23,-20,-10,17,-77,-74,-68,-79,-50
-25,-12,10,18,-20,2,17,-60,-62,-50,-67,-38
-19,-7,10,13,-14,2,23,-55,-50,-40,-61,-32
-13,4,16,7,-14,12,23,-43,-40,-22,-49,-14
-7,16,21,-5,-14,18,23,-31,-22,-4,-37,-2
-1,22,21,-5,-8,24,29,-13,-4,14,-32,4
5,34,26,-17,-8,30,35,-1,8,32,-21,9
17,40,21,-29,-2,30,29,11,20,44,-3,20
29,40,10,-35,10,24,29,29,38,56,9,32
35,40,4,-35,16,24,35,53,62,74,33,44
47,28,-20,-35,34,7,47,89,92,92,57,62
59,22,-38,-35,52,-4,53,125,116,110,75,74
71,10,-62,-35,70,-22,53,155,146,134,93,92
83,-2,-86,-35,88,-40,65,191,182,164,117,110
101,-12,-116,-47,106,-64,83,239,230,200,141,134
125,-24,-152,-53,136,-88,107,305,284,248,171,158
155,-36,-194,-59,172,-112,119,371,338,296,201,182
179,-48,-230,-65,202,-136,143,455,416,344,243,212
197,-60,-260,-71,226,-160,179,563,506,416,297,254
221,-72,-296,-77,256,-184,209,665,602,488,351,296
251,-84,-338,-83,292,-208,227,779,698,566,423,350
293,-102,-398,-95,346,-250,251,899,824,662,495,422
341,-114,-458,-113,400,-286,269,1049,980,788,591,500
389,-126,-518,-131,454,-322,299,1229,1178,938,705,596
443,-114,-560,-161,502,-334,353,1451,1424,1124,837,704
515,-78,-596,-215,556,-334,401,1697,1706,1334,1005,824
581,-42,-626,-269,604,-334,455,1943,1982,1550,1173,962
641,-7,-650,-317,646,-328,503,2129,2234,1766,1359,1106
701,52,-650,-377,676,-298,503,2189,2425,1958,1551,1274
755,148,-608,-449,682,-226,431,2117,2557,2138,1743,1448
791,268,-524,-527,658,-124,323,1985,2653,2300,1941,1622
815,412,-404,-611,610,7,209,1787,2689,2437,2127,1790
827,568,-260,-695,544,156,89,1553,2671,2545,2289,1928
827,724,-104,-773,466,312,-13,1313,2659,2635,2432,2048
809,862,50,-833,382,456,-89,1097,2641,2695,2546,2126
755,982,224,-863,268,606,-131,881,2593,2689,2594,2150
677,1090,410,-881,136,750,-149,641,2479,2605,2582,2126
557,1174,614,-863,-25,894,-137,401,2306,2449,2498,2048
431,1234,800,-827,-180,1020,-107,185,2108,2252,2385,1940
317,1246,926,-779,-300,1086,-54,17,1898,2048,2265,1838
221,1210,986,-713,-378,1098,11,-83,1694,1844,2127,1724
149,1156,1004,-653,-426,1080,101,-161,1478,1622,1971,1592
95,1066,968,-575,-432,1020,203,-245,1214,1370,1767,1430
47,934,884,-485,-414,912,305,-323,902,1076,1503,1220
-1,748,746,-371,-372,750,407,-359,614,794,1209,986
-30,496,524,-233,-276,510,515,-329,416,572,927,734
-71,220,290,-77,-180,252,599,-281,266,392,639,476
-107,-2,104,53,-102,48,629,-245,128,236,399,272
-125,-132,-8,125,-60,-70,587,-239,-4,104,225,128
-143,-198,-56,167,-42,-130,521,-245,-92,2,99,44
-161,-228,-68,191,-48,-148,473,-239,-140,-62,15,-8
-161,-216,-56,185,-54,-136,425,-227,-158,-98,-37,-44
-161,-180,-20,167,-72,-100,383,-209,-170,-128,-79,-74
-143,-132,10,131,-78,-64,341,-197,-176,-146,-109,-104
-119,-90,26,101,-72,-34,293,-197,-182,-158,-127,-116
-107,-66,38,83,-72,-16,233,-203,-194,-164,-139,-128
-89,-48,38,65,-66,-4,179,-203,-206,-164,-145,-134
-77,-54,21,65,-48,-16,131,-203,-212,-170,-139,-134
-77,-54,21,65,-48,-16,101,-197,-218,-170,-139,-134
-83,-66,16,71,-48,-28,89,-197,-224,-170,-145,-134
-89,-72,16,77,-54,-28,95,-191,-224,-182,-157,-146
-95,-78,16,83,-54,-34,119,-191,-230,-194,-169,-152
-95,-84,10,83,-54,-40,137,-185,-242,-200,-181,-164
-89,-78,10,83,-48,-34,149,-185,-254,-212,-193,-170
-89,-84,4,83,-48,-40,149,-185,-254,-218,-205,-170
-83,-84,-2,77,-42,-46,137,-185,-260,-224,-217,-176
-83,-84,-2,77,-42,-46,113,-179,-266,-230,-223,-182
-83,-96,-14,83,-36,-58,89,-179,-272,-236,-223,-188
-77,-96,-20,83,-30,-58,71,-179,-278,-236,-229,-188
-77,-90,-14,83,-30,-52,65,-179,-278,-236,-223,-194
-77,-96,-20,83,-30,-58,65,-179,-284,-236,-229,-194
-77,-90,-14,83,-30,-52,71,-179,-284,-242,-229,-200
-77,-90,-14,83,-30,-52,77,-173,-284,-242,-229,-200
-77,-84,-8,77,-36,-46,77,-173,-290,-242,-229,-200
-83,-78,4,77,-42,-40,71,-167,-290,-242,-229,-200
-83,-78,4,77,-42,-40,65,-167,-290,-236,-229,-206
-77,-78,-2,77,-36,-40,59,-167,-290,-236,-229,-206
-71,-72,-2,65,-36,-40,53,-167,-290,-236,-223,-206
-71,-72,-2,65,-36,-40,53,-161,-284,-236,-223,-200
-71,-66,4,65,-36,-34,53,-161,-290,-236,-223,-200
-65,-60,4,59,-36,-28,53,-161,-290,-230,-229,-206
-65,-60,4,59,-36,-28,53,-167,-284,-230,-223,-206
-71,-60,10,59,-42,-28,53,-167,-284,-230,-223,-206
-65,-60,4,59,-36,-28,53,-173,-284,-230,-223,-200
-65,-54,10,59,-36,-22,53,-167,-278,-224,-223,-200
-65,-54,10,59,-36,-22,47,-167,-272,-224,-223,-200
-65,-48,16,53,-42,-16,47,-167,-266,-224,-223,-188
-65,-48,16,53,-42,-16,47,-161,-266,-224,-223,-188
-71,-42,26,53,-48,-10,47,-155,-260,-224,-217,-188
-77,-42,32,59,-54,-4,47,-155,-266,-224,-217,-188
-77,-36,38,53,-60,2,47,-155,-266,-224,-217,-188
-77,-24,50,47,-66,12,41,-155,-266,-230,-211,-188
-77,-24,50,47,-66,12,41,-149,-272,-230,-211,-182
-77,-18,56,47,-66,18,41,-149,-272,-224,-211,-182
-71,-18,50,41,-60,12,35,-149,-266,-224,-205,-182
-71,-24,44,41,-60,7,29,-149,-266,-224,-205,-182
-59,-12,44,29,-54,12,29,-143,-266,-218,-199,-182
-59,-7,50,29,-54,18,23,-143,-266,-212,-199,-182
-59,4,62,23,-60,30,17,-143,-266,-212,-199,-182
-59,10,68,23,-60,36,11,-149,-266,-212,-199,-182
-59,22,80,18,-66,48,11,-149,-260,-212,-199,-182
-59,28,86,13,-72,54,5,-149,-260,-212,-199,-182
-59,22,80,18,-66,48,5,-143,-254,-206,-199,-176
-59,22,80,18,-66,48,-1,-143,-254,-200,-205,-176
-59,22,80,18,-66,48,-7,-143,-248,-200,-205,-176
-59,28,86,13,-72,54,-13,-143,-242,-194,-199,-170
-59,34,92,13,-72,60,-19,-137,-236,-200,-199,-170
-59,40,98,7,-78,66,-19,-143,-230,-194,-193,-170
-59,52,110,1,-84,78,-25,-143,-230,-200,-187,-164
-59,58,116,1,-84,84,-31,-143,-224,-194,-187,-164
-65,64,128,1,-96,96,-31,-143,-224,-194,-193,-158
-71,76,146,-5,-108,108,-31,-137,-218,-194,-193,-158
-71,88,158,-11,-114,120,-37,-131,-200,-194,-193,-158
-71,94,164,-11,-114,126,-37,-125,-194,-194,-199,-158
-77,106,182,-11,-126,144,-43,-125,-188,-188,-193,-158
-71,112,182,-23,-126,144,-49,-119,-182,-188,-193,-152
-71,118,188,-23,-126,150,-49,-119,-176,-188,-187,-152
-71,124,194,-29,-132,156,-49,-119,-170,-182,-187,-146
-71,130,200,-29,-132,162,-49,-113,-164,-176,-181,-146
-71,136,206,-35,-138,168,-54,-113,-146,-176,-187,-146
-77,142,218,-29,-144,180,-54,-107,-134,-176,-181,-146
-77,154,230,-35,-150,192,-54,-95,-122,-170,-169,-140
-77,166,242,-41,-156,204,-54,-89,-116,-164,-163,-134
-77,178,254,-47,-162,216,-54,-83,-110,-164,-157,-134
-71,184,254,-59,-162,216,-54,-77,-110,-158,-157,-134
-71,202,272,-65,-168,234,-59,-71,-104,-158,-157,-134
-71,214,284,-71,-174,246,-71,-71,-98,-152,-151,-134
-71,226,296,-77,-180,258,-71,-60,-86,-146,-151,-134
-71,232,302,-83,-186,264,-77,-55,-80,-134,-145,-128
-71,238,308,-83,-186,270,-77,-43,-68,-128,-139,-134
-71,250,320,-89,-192,282,-77,-37,-56,-116,-133,-128
-77,250,326,-83,-198,288,-71,-19,-45,-98,-127,-116
-77,256,332,-89,-204,294,-71,-7,-34,-86,-121,-116
-71,268,338,-101,-204,300,-71,-1,-28,-74,-115,-116
-71,274,344,-101,-204,306,-65,5,-10,-56,-103,-104
-65,286,350,-107,-204,318,-65,17,2,-45,-91,-104
-59,292,350,-119,-204,318,-59,29,20,-34,-79,-92
-59,298,356,-119,-204,324,-59,41,32,-22,-67,-86
-59,304,362,-125,-210,330,-54,53,50,-4,-55,-68
-59,304,362,-125,-210,330,-54,65,62,14,-49,-62
-59,304,362,-125,-210,330,-49,83,74,26,-37,-56
-59,304,362,-125,-210,330,-43,101,86,44,-32,-50
-59,304,362,-125,-210,330,-43,119,92,56,-27,-44
-59,310,368,-125,-210,336,-37,137,110,74,-15,-38
-59,310,368,-125,-210,336,-31,149,122,92,-3,-26
-65,310,374,-119,-216,342,-25,161,140,104,9,-20
-59,298,356,-119,-204,324,-19,179,152,116,21,-8
-59,292,350,-119,-204,318,-13,197,170,134,33,4
-53,280,332,-113,-192,306,-7,215,182,146,45,9
-47,274,320,-113,-180,294,-1,233,188,164,57,14
-47,262,308,-107,-174,282,11,251,206,176,69,20
-35,256,290,-113,-162,270,23,269,212,188,81,32
-30,250,278,-107,-150,264,35,281,224,206,87,38
-25,244,266,-107,-144,258,41,293,230,212,93,44
-25,232,254,-101,-138,246,47,299,242,224,99,50
-25,226,248,-95,-132,240,59,311,248,230,105,56
-19,208,224,-95,-120,216,65,317,248,236,111,62
-19,196,212,-89,-114,204,71,317,248,236,117,62
-19,178,194,-77,-102,186,83,323,242,236,117,62
-13,160,170,-71,-90,168,83,317,236,230,111,62
-13,148,158,-65,-84,156,89,305,224,224,105,62
-7,136,140,-65,-72,138,89,293,212,218,105,62
-7,124,128,-59,-66,126,89,281,200,206,99,62
-7,112,116,-53,-60,114,89,269,182,194,87,56
-13,94,104,-35,-54,102,95,257,158,176,75,50
-13,82,92,-29,-48,90,89,245,134,164,63,38
-13,70,80,-23,-42,78,89,227,110,146,51,32
-19,52,68,-17,-42,60,89,209,86,128,33,20
-19,40,56,-11,-36,48,89,191,62,110,21,14
-19,34,50,-5,-30,42,83,173,50,98,15,9
-25,28,50,1,-36,42,83,155,32,80,3,4
-25,16,38,7,-30,30,77,137,14,62,-9,-2
-30,4,32,13,-30,18,71,119,-10,44,-27,-8
-30,-7,21,18,-25,7,59,101,-34,32,-32,-20
-30,-12,16,18,-25,2,59,89,-56,8,-43,-32
-30,-18,10,23,-20,-4,47,71,-74,-4,-55,-38
-30,-24,4,23,-20,-10,41,59,-92,-16,-61,-44
-25,-36,-14,29,-8,-22,41,47,-104,-22,-61,-44
-25,-42,-20,35,-2,-28,35,35,-110,-34,-73,-50
-30,-54,-26,41,-2,-40,35,23,-122,-45,-79,-50
-30,-60,-32,41,-2,-46,29,11,-128,-45,-85,-56
-25,-60,-38,41,4,-46,23,5,-140,-50,-85,-62
-25,-72,-50,47,10,-58,17,-7,-152,-56,-91,-68
-30,-78,-50,53,10,-64,17,-13,-158,-62,-97,-74
-35,-90,-56,59,10,-76,11,-25,-170,-68,-103,-80
-35,-96,-62,59,10,-82,5,-37,-176,-74,-109,-80
-35,-90,-56,59,10,-76,-1,-43,-182,-80,-115,-86
-35,-96,-62,59,10,-82,-1,-43,-188,-80,-115,-86
-35,-96,-62,59,10,-82,-1,-49,-182,-80,-121,-86
-35,-102,-68,65,16,-88,-7,-49,-182,-86,-121,-86
-41,-108,-68,71,10,-88,-7,-49,-188,-86,-121,-86
-47,-108,-62,71,4,-88,-7,-49,-188,-92,-127,-92
-53,-108,-56,77,-2,-82,-13,-49,-188,-92,-127,-92
-59,-108,-50,77,-8,-82,-13,-49,-188,-98,-133,-86
-59,-114,-56,83,-2,-88,-13,-49,-188,-98,-133,-86
-59,-120,-62,83,-2,-94,-13,-55,-194,-98,-133,-86
-53,-120,-68,83,4,-94,-13,-55,-194,-92,-127,-80
-53,-126,-74,89,10,-100,-13,-55,-194,-92,-127,-80
-53,-126,-74,89,10,-100,-19,-55,-200,-92,-127,-80
-53,-126,-74,89,10,-100,-19,-55,-206,-92,-127,-86
-53,-120,-68,83,4,-94,-19,-55,-206,-92,-127,-80
-59,-126,-68,89,4,-100,-13,-49,-206,-92,-127,-80
-59,-120,-62,83,-2,-94,-13,-49,-206,-98,-127,-80
-59,-120,-62,83,-2,-94,-7,-49,-206,-98,-127,-80
-53,-114,-62,83,4,-88,-7,-49,-200,-92,-127,-80
-53,-120,-68,83,4,-94,-7,-49,-200,-92,-127,-80
-47,-120,-74,77,10,-100,-1,-49,-194,-86,-127,-86
-53,-120,-68,83,4,-94,-1,-49,-194,-86,-127,-86
-53,-114,-62,83,4,-88,5,-43,-188,-80,-121,-86
-53,-114,-62,83,4,-88,5,-43,-194,-80,-127,-86
-47,-108,-62,71,4,-88,5,-43,-200,-86,-127,-86
-47,-108,-62,71,4,-88,5,-43,-200,-86,-121,-86
-53,-108,-56,77,-2,-82,-1,-43,-206,-86,-121,-86
-53,-114,-62,83,4,-88,-1,-43,-206,-86,-121,-92
-59,-120,-62,83,-2,-94,-7,-37,-206,-86,-115,-86
-59,-114,-56,83,-2,-88,-7,-37,-200,-86,-115,-86
-59,-114,-56,83,-2,-88,-1,-37,-200,-86,-115,-86
-53,-108,-56,77,-2,-82,5,-37,-194,-80,-115,-86
-53,-108,-56,77,-2,-82,5,-37,-194,-80,-115,-86
-53,-102,-50,77,-2,-76,5,-37,-194,-80,-121,-86
-53,-96,-44,71,-8,-70,5,-43,-194,-80,-121,-86
-53,-102,-50,77,-2,-76,5,-43,-194,-80,-121,-86
-59,-102,-44,77,-8,-76,-1,-43,-194,-74,-121,-92
-59,-102,-44,77,-8,-76,-1,-49,-194,-74,-121,-92
-53,-102,-50,77,-2,-76,-1,-49,-200,-80,-121,-92
-47,-102,-56,71,4,-82,-1,-49,-200,-80,-115,-92
-47,-96,-50,65,-2,-76,-1,-43,-200,-80,-115,-92
-41,-96,-56,65,4,-76,-1,-43,-206,-80,-121,-92
-35,-96,-62,59,10,-82,-1,-43,-206,-80,-115,-92
-35,-90,-56,59,10,-76,-1,-49,-206,-86,-121,-98
-35,-84,-50,53,4,-70,-1,-43,-206,-80,-115,-98
-35,-78,-44,53,4,-64,-1,-43,-206,-74,-115,-92
-30,-78,-50,53,10,-64,-7,-43,-206,-74,-115,-92
-30,-78,-50,53,10,-64,-13,-49,-212,-74,-109,-92
-30,-78,-50,53,10,-64,-13,-49,-212,-74,-109,-86
-30,-78,-50,53,10,-64,-13,-49,-218,-74,-109,-86
-30,-78,-50,53,10,-64,-13,-49,-218,-74,-109,-80
-30,-72,-44,47,4,-58,-13,-49,-218,-80,-103,-80
-35,-72,-38,47,-2,-58,-13,-55,-212,-80,-103,-80
-35,-66,-32,47,-2,-52,-13,-55,-212,-80,-109,-80
-35,-66,-32,47,-2,-52,-13,-60,-212,-80,-109,-80
-35,-66,-32,47,-2,-52,-13,-60,-212,-80,-115,-86
-41,-66,-26,53,-8,-46,-13,-60,-212,-86,-121,-92
-41,-66,-26,53,-8,-46,-13,-60,-212,-86,-121,-92
-35,-66,-32,47,-2,-52,-7,-60,-206,-86,-121,-92
-35,-60,-26,41,-8,-46,-13,-60,-206,-92,-121,-92
-35,-60,-26,41,-8,-46,-13,-65,-206,-92,-121,-92
-35,-72,-38,47,-2,-58,-13,-65,-206,-92,-121,-92
-35,-78,-44,53,4,-64,-19,-65,-206,-92,-115,-86
-35,-78,-44,53,4,-64,-19,-71,-206,-92,-115,-86
-35,-78,-44,53,4,-64,-19,-71,-206,-92,-115,-86
-35,-78,-44,53,4,-64,-19,-71,-212,-98,-109,-86
-30,-78,-50,53,10,-64,-7,-71,-218,-98,-109,-80
-30,-78,-50,53,10,-64,-7,-71,-218,-98,-115,-80
-30,-84,-56,53,10,-70,-7,-77,-218,-104,-115,-80
-30,-84,-56,53,10,-70,-7,-71,-218,-104,-121,-80
-30,-84,-56,53,10,-70,-13,-77,-218,-104,-121,-80
-25,-84,-62,53,16,-70,-13,-71,-218,-110,-127,-80
-25,-84,-62,53,16,-70,-13,-71,-218,-116,-127,-80
-25,-84,-62,53,16,-70,-19,-77,-218,-116,-127,-86
-25,-84,-62,53,16,-70,-19,-77,-218,-122,-127,-86
-25,-90,-68,59,22,-76,-25,-83,-218,-116,-127,-86
-25,-84,-62,53,16,-70,-25,-77,-218,-122,-133,-92
-19,-84,-68,47,22,-76,-25,-77,-218,-122,-139,-92
-19,-78,-62,47,22,-70,-25,-77,-218,-128,-139,-92
-19,-78,-62,47,22,-70,-25,-77,-224,-128,-139,-92
-19,-84,-68,47,22,-76,-25,-77,-224,-128,-139,-86
-13,-78,-68,47,28,-70,-25,-71,-218,-122,-139,-86
-13,-78,-68,47,28,-70,-19,-71,-218,-122,-139,-86
-13,-78,-68,47,28,-70,-19,-77,-224,-122,-139,-86
-13,-78,-68,47,28,-70,-19,-83,-230,-128,-139,-86
-19,-84,-68,47,22,-76,-19,-83,-236,-134,-139,-86
-13,-90,-80,53,34,-82,-19,-89,-242,-134,-133,-86
-13,-90,-80,53,34,-82,-13,-89,-236,-128,-133,-86
-13,-96,-86,53,34,-88,-19,-89,-242,-128,-133,-86
-13,-96,-86,53,34,-88,-19,-89,-242,-128,-139,-92
-13,-102,-92,59,40,-94,-19,-95,-248,-134,-139,-98
-13,-102,-92,59,40,-94,-19,-95,-248,-134,-145,-98
-13,-102,-92,59,40,-94,-19,-101,-254,-140,-145,-104
-13,-102,-92,59,40,-94,-25,-107,-254,-146,-145,-104
-13,-102,-92,59,40,-94,-25,-107,-260,-146,-145,-110
-13,-108,-98,59,40,-100,-25,-101,-260,-146,-145,-104
-13,-108,-98,59,40,-100,-31,-101,-260,-146,-145,-110
-13,-108,-98,59,40,-100,-31,-101,-254,-146,-145,-110
-13,-108,-98,59,40,-100,-37,-101,-254,-152,-151,-110
-7,-108,-104,53,46,-106,-37,-101,-254,-158,-151,-116
-7,-108,-104,53,46,-106,-37,-101,-254,-158,-157,-122
-7,-108,-104,53,46,-106,-31,-107,-254,-158,-157,-116
-1,-108,-110,53,52,-106,-31,-107,-254,-158,-157,-116
-7,-108,-104,53,46,-106,-25,-107,-254,-152,-157,-110
-7,-108,-104,53,46,-106,-31,-107,-254,-152,-157,-110
-7,-108,-104,53,46,-106,-37,-113,-254,-152,-157,-110
-1,-108,-110,53,52,-106,-43,-119,-254,-146,-151,-110
-1,-114,-116,59,58,-112,-43,-119,-254,-152,-151,-110
-7,-114,-110,59,52,-112,-37,-119,-254,-152,-151,-110
-7,-120,-116,59,52,-118,-31,-119,-260,-152,-151,-116
-1,-120,-122,59,58,-118,-31,-119,-260,-152,-151,-116
-7,-120,-116,59,52,-118,-25,-119,-260,-158,-151,-122
-1,-120,-122,59,58,-118,-31,-119,-266,-158,-157,-122
5,-120,-128,53,64,-124,-31,-125,-272,-158,-157,-128
5,-120,-128,53,64,-124,-31,-125,-278,-158,-163,-128
5,-120,-128,53,64,-124,-31,-119,-278,-158,-163,-128
5,-120,-128,53,64,-124,-37,-119,-272,-158,-163,-128
-1,-120,-122,59,58,-118,-37,-119,-272,-158,-163,-128
-1,-120,-122,59,58,-118,-37,-113,-272,-158,-163,-134
-1,-120,-122,59,58,-118,-37,-113,-266,-158,-163,-134
-7,-126,-122,65,58,-124,-37,-119,-266,-164,-163,-134
-7,-120,-116,59,52,-118,-37,-119,-266,-164,-163,-128
5,-114,-122,53,64,-118,-37,-125,-266,-170,-163,-128
5,-120,-128,53,64,-124,-37,-131,-272,-170,-163,-128
5,-120,-128,53,64,-124,-43,-131,-272,-170,-169,-128
5,-126,-134,59,70,-130,-43,-131,-272,-176,-169,-128
-1,-132,-134,65,64,-130,-49,-131,-272,-182,-175,-128
-1,-132,-134,65,64,-130,-49,-131,-272,-182,-175,-128
5,-132,-140,59,70,-136,-43,-131,-278,-182,-169,-128
-1,-138,-140,71,70,-136,-49,-131,-278,-182,-169,-134
-1,-132,-134,65,64,-130,-49,-131,-278,-188,-169,-134
5,-120,-128,53,64,-124,-43,-131,-278,-188,-175,-134
5,-120,-128,53,64,-124,-43,-131,-272,-182,-175,-128
5,-114,-122,53,64,-118,-43,-131,-272,-182,-175,-128
5,-114,-122,53,64,-118,-43,-131,-272,-188,-175,-128
5,-120,-128,53,64,-124,-43,-137,-278,-182,-175,-134
-1,-120,-122,59,58,-118,-43,-131,-278,-176,-169,-134
-1,-126,-128,65,64,-124,-37,-131,-272,-176,-175,-134
-1,-126,-128,65,64,-124,-43,-131,-272,-176,-169,-128
5,-126,-134,59,70,-130,-49,-131,-266,-176,-169,-128
5,-126,-134,59,70,-130,-49,-131,-260,-176,-169,-134
-1,-126,-128,65,64,-124,-49,-131,-260,-176,-169,-134
-1,-132,-134,65,64,-130,-49,-131,-260,-176,-169,-134
-1,-138,-140,71,70,-136,-49,-131,-260,-182,-169,-134
5,-138,-146,65,76,-142,-54,-131,-266,-182,-169,-128
5,-138,-146,65,76,-142,-54,-131,-266,-188,-175,-128
-1,-138,-140,71,70,-136,-54,-137,-266,-188,-175,-128
-1,-132,-134,65,64,-130,-59,-137,-266,-194,-175,-128
-1,-132,-134,65,64,-130,-59,-137,-266,-194,-181,-128
-7,-132,-128,65,58,-130,-65,-137,-266,-188,-181,-122
-1,-132,-134,65,64,-130,-65,-137,-260,-188,-181,-122
-1,-132,-134,65,64,-130,-71,-143,-254,-188,-187,-122
-7,-132,-128,65,58,-130,-71,-143,-254,-188,-181,-122
-7,-132,-128,65,58,-130,-71,-149,-260,-194,-181,-128
-7,-126,-122,65,58,-124,-65,-149,-260,-194,-181,-134
-7,-132,-128,65,58,-130,-65,-149,-260,-200,-181,-140
-7,-138,-134,71,64,-136,-65,-149,-254,-200,-181,-140
-7,-138,-134,71,64,-136,-65,-143,-254,-200,-175,-140
-1,-138,-140,71,70,-136,-65,-143,-248,-200,-175,-140
5,-138,-146,65,76,-142,-65,-143,-248,-200,-175,-140
-1,-132,-134,65,64,-130,-65,-149,-248,-200,-175,-140
-1,-132,-134,65,64,-130,-65,-149,-242,-200,-175,-140
-1,-132,-134,65,64,-130,-65,-149,-236,-200,-175,-140
-1,-132,-134,65,64,-130,-71,-155,-236,-200,-175,-140
-1,-132,-134,65,64,-130,-71,-155,-236,-200,-181,-146
-1,-132,-134,65,64,-130,-77,-155,-236,-194,-187,-152
11,-132,-146,59,76,-136,-77,-149,-236,-194,-187,-152
23,-126,-152,53,88,-136,-83,-149,-236,-188,-187,-152
23,-132,-158,53,88,-142,-83,-143,-236,-194,-187,-152
5,-132,-140,59,70,-136,-83,-143,-236,-194,-187,-152
-7,-132,-128,65,58,-130,-83,-143,-236,-194,-187,-146
-7,-138,-134,71,64,-136,-83,-143,-236,-194,-187,-146
-7,-132,-128,65,58,-130,-83,-143,-236,-200,-187,-146
-7,-132,-128,65,58,-130,-83,-149,-236,-206,-181,-146
-7,-132,-128,65,58,-130,-83,-143,-236,-206,-181,-146
-7,-132,-128,65,58,-130,-83,-143,-236,-206,-181,-146
-7,-132,-128,65,58,-130,-83,-137,-236,-206,-181,-146
-7,-138,-134,71,64,-136,-83,-143,-242,-206,-187,-146
-13,-138,-128,77,58,-130,-77,-143,-236,-200,-187,-146
-13,-138,-128,77,58,-130,-71,-149,-236,-200,-187,-146
-13,-138,-128,77,58,-130,-71,-149,-236,-200,-181,-146
-7,-132,-128,65,58,-130,-71,-149,-242,-200,-181,-140
-7,-126,-122,65,58,-124,-71,-149,-242,-200,-181,-140
-7,-126,-122,65,58,-124,-65,-149,-242,-200,-181,-140
-7,-126,-122,65,58,-124,-65,-149,-242,-200,-181,-140
-1,-126,-128,65,64,-124,-59,-149,-242,-200,-181,-146
-1,-132,-134,65,64,-130,-59,-149,-242,-200,-187,-146
5,-132,-140,59,70,-136,-59,-143,-242,-194,-187,-146
5,-126,-134,59,70,-130,-59,-143,-242,-194,-187,-146
11,-126,-140,59,76,-130,-59,-143,-236,-188,-181,-146
11,-120,-134,53,70,-124,-54,-137,-236,-188,-181,-140
11,-108,-122,47,64,-112,-54,-137,-230,-188,-181,-140
11,-102,-116,47,64,-106,-49,-131,-224,-188,-175,-134
11,-96,-110,41,58,-100,-49,-131,-218,-182,-175,-128
11,-84,-98,35,52,-88,-43,-119,-212,-182,-163,-128
17,-72,-92,23,52,-82,-31,-119,-200,-176,-163,-122
23,-66,-92,23,58,-76,-31,-113,-194,-170,-157,-116
29,-54,-86,13,58,-70,-25,-107,-188,-170,-157,-116
29,-42,-74,7,52,-58,-25,-107,-182,-164,-151,-110
29,-30,-62,1,46,-46,-25,-101,-176,-164,-151,-110
29,-24,-56,-5,40,-40,-31,-101,-176,-164,-151,-110
29,-12,-44,-11,34,-28,-31,-101,-176,-164,-151,-110
35,-7,-44,-11,40,-22,-31,-101,-170,-158,-145,-104
29,-2,-32,-11,34,-16,-25,-101,-164,-152,-139,-98
35,-2,-38,-11,40,-16,-31,-101,-164,-152,-139,-98
35,-2,-38,-11,40,-16,-31,-101,-158,-146,-133,-92
35,4,-32,-17,34,-10,-37,-101,-158,-146,-133,-92
41,4,-38,-23,40,-16,-37,-95,-158,-140,-133,-86
47,10,-38,-23,46,-10,-37,-95,-152,-140,-133,-86
47,16,-32,-29,40,-4,-49,-95,-152,-134,-127,-86
53,10,-44,-29,52,-16,-54,-101,-152,-134,-127,-86
53,10,-44,-29,52,-16,-54,-107,-158,-140,-127,-86
53,10,-44,-29,52,-16,-54,-107,-158,-134,-127,-80
47,10,-38,-23,46,-10,-54,-101,-152,-128,-121,-74
47,16,-32,-29,40,-4,-43,-101,-140,-128,-115,-68
53,16,-38,-35,46,-10,-37,-101,-128,-128,-115,-68
53,10,-44,-29,52,-16,-43,-101,-128,-128,-115,-74
53,4,-50,-29,52,-22,-37,-95,-122,-134,-115,-74
53,-7,-62,-23,58,-34,-31,-89,-116,-128,-115,-74
59,-12,-74,-23,64,-40,-25,-89,-116,-128,-115,-74
59,-18,-80,-17,70,-46,-25,-83,-116,-122,-109,-68
59,-30,-92,-11,76,-58,-25,-83,-116,-122,-109,-68
59,-36,-98,-11,76,-64,-31,-83,-116,-122,-115,-68
53,-42,-98,-5,76,-70,-37,-89,-128,-128,-121,-74
53,-48,-104,-5,76,-76,-37,-95,-134,-128,-127,-68
53,-48,-104,-5,76,-76,-31,-95,-140,-134,-127,-74
53,-54,-110,1,82,-82,-25,-101,-146,-146,-133,-74
47,-66,-116,13,82,-88,-19,-101,-146,-146,-133,-80
41,-72,-116,13,76,-94,-13,-95,-146,-140,-133,-80
29,-78,-110,23,70,-94,-7,-95,-146,-140,-139,-80
23,-84,-110,29,64,-94,-7,-95,-146,-140,-139,-86
17,-84,-104,29,58,-94,-7,-101,-152,-146,-139,-92
11,-84,-98,35,52,-88,-1,-107,-152,-152,-145,-98
5,-84,-92,35,46,-88,-1,-107,-146,-158,-145,-98
5,-72,-80,29,40,-76,-1,-101,-140,-152,-139,-98
11,-66,-80,29,46,-70,-7,-89,-128,-146,-139,-92
11,-60,-74,23,40,-64,-7,-77,-116,-134,-127,-86
17,-54,-74,18,46,-64,-7,-65,-104,-122,-115,-80
23,-48,-74,13,46,-58,-1,-60,-86,-110,-103,-68
29,-36,-68,1,46,-52,-1,-49,-68,-98,-91,-56
41,-24,-68,-11,52,-46,-1,-37,-50,-80,-73,-44
47,-12,-62,-17,52,-34,5,-25,-34,-62,-55,-26
59,-2,-62,-23,64,-28,5,-19,-22,-50,-37,-14
65,10,-56,-35,64,-22,5,-1,-4,-45,-32,-2
71,16,-56,-41,64,-16,11,17,14,-40,-27,9
83,22,-62,-47,76,-16,11,35,26,-28,-15,14
89,16,-74,-53,82,-28,5,53,38,-16,-3,26
101,10,-92,-53,100,-40,11,71,62,2,3,38
107,-2,-110,-47,112,-52,23,101,86,26,21,50
119,-7,-128,-53,124,-64,23,131,116,50,39,62
137,-7,-146,-65,142,-76,23,161,140,80,57,80
149,-18,-170,-65,160,-94,29,203,170,110,81,98
167,-30,-200,-65,184,-112,47,251,218,152,105,116
185,-42,-230,-71,208,-136,65,311,272,194,135,146
209,-48,-260,-83,232,-154,83,383,332,242,171,176
239,-54,-296,-89,268,-172,101,461,404,302,219,206
263,-72,-338,-95,298,-202,137,557,500,374,273,248
293,-84,-380,-107,334,-232,167,665,590,446,321,296
323,-90,-416,-113,370,-250,179,767,686,524,375,344
365,-102,-470,-131,418,-286,197,881,794,620,447,410
413,-108,-524,-155,466,-316,215,1025,944,740,537,482
461,-114,-578,-173,520,-346,245,1199,1124,884,651,572
515,-96,-614,-209,562,-352,287,1409,1352,1052,783,680
575,-72,-650,-251,610,-358,335,1649,1622,1250,939,800
641,-36,-680,-305,658,-358,383,1895,1898,1460,1107,938
695,-2,-698,-341,700,-346,431,2099,2156,1670,1281,1088
749,52,-698,-401,724,-322,437,2189,2372,1874,1473,1250
803,142,-662,-467,736,-256,371,2135,2515,2060,1665,1418
845,256,-590,-551,718,-166,287,2003,2617,2222,1863,1592
869,394,-476,-629,676,-40,179,1817,2659,2366,2049,1754
881,544,-338,-713,610,102,71,1571,2635,2467,2211,1886
875,700,-176,-785,526,264,-19,1331,2617,2557,2361,2006
857,844,-14,-851,436,414,-89,1109,2611,2623,2480,2096
803,970,164,-881,322,570,-125,899,2575,2635,2540,2138
719,1078,356,-893,184,720,-131,677,2497,2569,2546,2126
605,1162,554,-881,28,858,-119,455,2360,2443,2480,2060
485,1216,728,-851,-120,972,-89,251,2198,2270,2385,1964
377,1228,848,-803,-234,1038,-49,101,2006,2090,2277,1862
293,1204,908,-749,-306,1056,17,-1,1820,1910,2157,1760
221,1144,920,-683,-348,1032,95,-77,1598,1700,2013,1628
161,1054,890,-605,-360,972,185,-155,1328,1448,1821,1460
107,928,818,-515,-354,876,281,-233,1022,1154,1563,1250
59,748,686,-401,-312,720,377,-275,728,860,1269,1016
17,496,476,-257,-228,486,479,-263,518,620,969,770
-19,220,236,-101,-126,228,563,-215,368,416,657,500
-47,-7,38,23,-42,12,599,-185,218,236,393,278
-77,-144,-68,107,-8,-106,563,-191,74,98,195,128
-95,-204,-110,143,4,-160,497,-191,-34,-4,75,38
-107,-228,-122,161,4,-178,449,-185,-86,-68,-9,-20
-119,-216,-98,161,-14,-160,389,-173,-116,-98,-49,-62
-107,-192,-86,143,-14,-142,341,-161,-128,-128,-85,-98
-95,-144,-50,113,-25,-100,293,-149,-134,-146,-109,-116
-77,-108,-32,89,-25,-70,233,-143,-140,-158,-133,-128
-65,-84,-20,71,-25,-52,173,-149,-146,-170,-145,-140
-53,-60,-8,53,-25,-34,113,-155,-152,-176,-157,-140
-35,-48,-14,35,-14,-34,59,-167,-158,-182,-163,-140
-30,-48,-20,35,-8,-34,23,-167,-164,-188,-175,-140
-35,-48,-14,35,-14,-34,5,-167,-170,-188,-181,-140
-41,-54,-14,47,-14,-34,5,-155,-170,-194,-187,-140
-47,-60,-14,47,-20,-40,23,-149,-176,-206,-199,-146
-47,-66,-20,53,-14,-46,35,-149,-182,-218,-217,-158
-47,-72,-26,53,-14,-52,47,-149,-188,-230,-229,-170
-41,-72,-32,53,-8,-52,47,-149,-194,-236,-235,-176
-47,-72,-26,53,-14,-52,35,-155,-200,-242,-235,-182
-47,-72,-26,53,-14,-52,23,-155,-206,-242,-241,-188
-47,-78,-32,59,-8,-58,11,-149,-212,-242,-247,-194
-41,-78,-38,59,-2,-58,-1,-149,-218,-242,-253,-200
-47,-78,-32,59,-8,-58,-7,-143,-224,-242,-259,-200
-47,-72,-26,53,-14,-52,-7,-137,-224,-242,-259,-200
-47,-66,-20,53,-14,-46,-1,-137,-224,-242,-253,-200
-47,-60,-14,47,-20,-40,-1,-131,-224,-242,-253,-200
-41,-60,-20,47,-14,-40,-1,-131,-224,-248,-253,-206
-41,-54,-14,47,-14,-34,-1,-131,-224,-248,-247,-206
-35,-54,-20,41,-8,-40,-7,-125,-224,-242,-247,-200
-35,-54,-20,41,-8,-40,-13,-125,-224,-242,-247,-200
-35,-54,-20,41,-8,-40,-7,-125,-224,-242,-247,-194
-35,-54,-20,41,-8,-40,-13,-125,-218,-236,-247,-188
-30,-54,-26,41,-2,-40,-19,-125,-218,-230,-247,-188
-30,-54,-26,41,-2,-40,-13,-119,-206,-230,-247,-188
-30,-54,-26,41,-2,-40,-19,-119,-200,-230,-241,-194
-30,-54,-26,41,-2,-40,-19,-125,-200,-236,-241,-194
-35,-48,-14,35,-14,-34,-19,-119,-194,-236,-241,-194
-30,-36,-8,29,-14,-22,-19,-125,-194,-236,-241,-200
-30,-30,-2,29,-14,-16,-25,-125,-200,-242,-241,-200
-30,-24,4,23,-20,-10,-25,-125,-206,-242,-241,-200
-35,-24,10,23,-25,-10,-25,-125,-206,-242,-247,-200
-41,-24,16,29,-30,-4,-31,-125,-200,-242,-247,-200
-41,-24,16,29,-30,-4,-31,-125,-200,-236,-247,-200
-41,-18,21,29,-30,2,-37,-125,-200,-236,-247,-200
-41,-12,26,23,-36,7,-43,-125,-194,-236,-247,-200
-41,-7,32,23,-36,12,-43,-119,-188,-236,-247,-200
-35,-7,26,18,-30,7,-43,-119,-182,-236,-247,-200
-30,-2,26,18,-25,12,-49,-119,-182,-230,-247,-200
-30,10,38,13,-30,24,-49,-119,-176,-230,-247,-200
-30,10,38,13,-30,24,-54,-119,-170,-224,-247,-200
-30,10,38,13,-30,24,-54,-119,-164,-224,-247,-200
-30,10,38,13,-30,24,-59,-119,-158,-224,-241,-200
-41,10,50,18,-42,30,-65,-119,-152,-218,-241,-200
-41,16,56,13,-48,36,-65,-113,-146,-212,-235,-194
-41,22,62,13,-48,42,-71,-113,-140,-212,-235,-194
-47,28,74,7,-60,48,-77,-113,-134,-212,-235,-194
-41,34,74,7,-54,54,-77,-113,-134,-206,-235,-182
-35,46,80,-5,-54,60,-77,-113,-134,-206,-235,-176
-35,52,86,-11,-60,66,-77,-119,-128,-206,-229,-176
-35,58,92,-11,-60,72,-83,-119,-122,-206,-229,-170
-35,64,98,-17,-66,78,-83,-113,-116,-206,-229,-170
-41,70,110,-11,-72,90,-89,-119,-116,-206,-229,-170
-35,76,110,-23,-72,90,-95,-113,-110,-206,-229,-170
-35,76,110,-23,-72,90,-107,-113,-104,-200,-223,-170
-35,88,122,-29,-78,102,-113,-107,-104,-200,-223,-170
-41,94,134,-23,-84,114,-107,-107,-98,-194,-217,-170
-41,112,152,-35,-96,132,-107,-107,-98,-194,-217,-170
-41,124,164,-41,-102,144,-107,-107,-92,-194,-217,-170
-41,130,170,-41,-102,150,-113,-107,-92,-188,-217,-170
-41,136,176,-47,-108,156,-113,-107,-86,-188,-217,-170
-41,142,182,-47,-108,162,-113,-107,-80,-188,-217,-170
-41,154,194,-53,-114,174,-113,-95,-74,-182,-211,-170
-41,160,200,-59,-120,180,-119,-89,-62,-182,-211,-170
-41,166,206,-59,-120,186,-119,-83,-56,-176,-205,-164
-47,172,218,-65,-132,192,-125,-83,-45,-170,-199,-158
-53,178,230,-59,-138,204,-119,-77,-45,-164,-193,-158
-53,190,242,-65,-144,216,-119,-71,-34,-158,-193,-152
-53,196,248,-71,-150,222,-125,-65,-28,-152,-187,-146
-53,208,260,-77,-156,234,-125,-60,-16,-152,-175,-140
-53,220,272,-83,-162,246,-125,-55,-4,-152,-175,-140
-53,226,278,-83,-162,252,-131,-55,2,-146,-169,-134
-53,232,284,-89,-168,258,-131,-43,8,-140,-169,-134
-47,250,296,-101,-168,270,-131,-37,20,-134,-163,-128
-41,262,302,-107,-168,282,-131,-31,26,-122,-157,-122
-41,274,314,-113,-174,294,-137,-25,38,-110,-151,-122
-41,280,320,-119,-180,300,-143,-19,44,-98,-139,-116
-41,292,332,-125,-186,312,-137,-7,62,-86,-133,-110
-47,298,344,-125,-192,318,-137,-1,74,-74,-121,-104
-47,298,344,-125,-192,318,-137,11,86,-50,-109,-98
-47,304,350,-131,-198,324,-137,17,92,-45,-103,-98
-53,304,356,-125,-204,330,-131,23,104,-40,-91,-92
-47,304,350,-131,-198,324,-131,35,116,-28,-79,-86
-47,304,350,-131,-198,324,-125,47,128,-10,-73,-74
-47,304,350,-131,-198,324,-119,59,146,8,-61,-68
-47,310,356,-131,-198,330,-113,71,158,20,-49,-62
-41,316,356,-137,-198,336,-107,89,176,32,-37,-50
-41,322,362,-137,-198,342,-101,101,188,44,-32,-44
-35,322,356,-143,-192,336,-95,119,200,56,-27,-38
-41,316,356,-137,-198,336,-83,131,206,68,-15,-32
-35,316,350,-143,-192,330,-77,137,218,80,-9,-20
-30,310,338,-137,-180,324,-65,155,230,98,3,-14
-30,298,326,-131,-174,312,-59,173,242,116,15,-2
-25,292,314,-131,-168,306,-54,185,260,128,21,4
-25,280,302,-125,-162,294,-49,203,272,140,33,9
-25,268,290,-119,-156,282,-37,221,284,164,39,20
-25,262,284,-113,-150,276,-31,233,290,176,51,26
-19,250,266,-113,-138,258,-19,245,302,188,63,38
-19,244,260,-113,-138,252,-7,251,308,200,75,44
-13,232,242,-107,-126,240,5,257,314,206,81,50
-13,220,230,-101,-120,228,17,257,320,206,87,62
-13,208,218,-95,-114,216,23,257,320,206,87,62
-7,196,200,-95,-102,198,29,257,314,206,87,56
-7,178,182,-83,-90,180,35,257,308,206,81,56
-7,166,170,-77,-84,168,41,257,302,200,81,56
-7,148,152,-71,-78,150,47,251,290,188,81,50
-7,130,134,-59,-66,132,53,239,272,182,75,50
-7,118,122,-53,-60,120,59,233,260,170,69,44
-7,106,110,-47,-54,108,59,215,236,152,57,38
-7,100,104,-47,-54,102,65,197,224,134,45,32
-1,88,86,-41,-42,90,65,179,206,116,33,26
-1,76,74,-35,-36,78,71,167,188,98,21,20
-1,58,56,-23,-25,60,71,149,170,92,9,9
-1,40,38,-17,-20,42,65,131,158,74,-3,4
5,34,26,-17,-8,30,65,113,140,56,-15,-2
5,28,21,-17,-8,24,59,95,122,38,-27,-8
5,16,10,-11,-2,12,59,83,110,26,-32,-14
-1,4,4,1,-2,7,53,65,92,8,-43,-26
-1,-7,-8,7,4,-4,41,47,74,-10,-55,-32
-7,-12,-8,7,-2,-10,41,29,50,-28,-67,-44
-7,-24,-20,13,4,-22,35,11,32,-40,-79,-50
-7,-36,-32,18,10,-34,29,-7,14,-45,-85,-56
-7,-42,-38,23,16,-40,23,-19,2,-56,-91,-62
-13,-48,-38,29,10,-40,23,-25,-10,-68,-103,-68
-13,-54,-44,35,16,-46,23,-37,-22,-80,-109,-74
-13,-60,-50,35,16,-52,23,-43,-34,-86,-115,-74
-13,-72,-62,41,22,-64,17,-49,-40,-92,-115,-80
-13,-78,-68,47,28,-70,17,-60,-45,-104,-121,-80
-13,-84,-74,47,28,-76,11,-65,-50,-104,-121,-86
-13,-84,-74,47,28,-76,11,-71,-56,-104,-127,-86
-13,-84,-74,47,28,-76,5,-77,-62,-110,-133,-86
-19,-90,-74,53,28,-82,-1,-83,-74,-122,-139,-92
-25,-96,-74,59,22,-82,-1,-89,-68,-128,-145,-98
-19,-96,-80,53,28,-88,5,-89,-68,-128,-145,-98
-19,-102,-86,59,34,-94,5,-89,-74,-128,-145,-104
-19,-108,-92,59,34,-100,5,-95,-80,-128,-139,-110
-19,-108,-92,59,34,-100,5,-95,-80,-128,-139,-110
-19,-108,-92,59,34,-100,11,-95,-86,-122,-139,-110
-19,-108,-92,59,34,-100,11,-95,-92,-116,-139,-110
-25,-108,-86,65,28,-94,5,-107,-98,-122,-139,-116
-25,-114,-92,71,34,-100,5,-107,-98,-116,-139,-116
-25,-108,-86,65,28,-94,11,-101,-98,-110,-133,-110
-25,-114,-92,71,34,-100,11,-101,-98,-110,-133,-110
-30,-114,-86,71,28,-100,11,-101,-98,-116,-133,-116
-30,-114,-86,71,28,-100,17,-101,-92,-116,-127,-116
-35,-114,-80,71,22,-100,17,-95,-92,-122,-127,-110
-35,-108,-74,65,16,-94,17,-89,-86,-116,-133,-110
-35,-108,-74,65,16,-94,23,-89,-86,-116,-133,-104
-35,-114,-80,71,22,-100,23,-89,-86,-116,-139,-104
-35,-114,-80,71,22,-100,17,-89,-92,-116,-139,-104
-30,-120,-92,71,28,-106,17,-89,-98,-116,-139,-104
-30,-120,-92,71,28,-106,11,-89,-98,-116,-139,-104
-30,-120,-92,71,28,-106,11,-89,-98,-122,-139,-98
-35,-126,-92,77,28,-112,5,-83,-92,-122,-139,-98
-41,-126,-86,83,22,-106,5,-83,-92,-122,-139,-98
-41,-120,-80,77,16,-100,5,-83,-92,-128,-139,-98
-41,-120,-80,77,16,-100,5,-83,-92,-128,-139,-98
-41,-114,-74,77,16,-94,5,-83,-86,-128,-139,-98
-41,-114,-74,77,16,-94,11,-83,-86,-122,-133,-98
-41,-114,-74,77,16,-94,11,-89,-80,-122,-139,-104
-41,-114,-74,77,16,-94,11,-89,-80,-122,-133,-98
-35,-108,-74,65,16,-94,17,-83,-80,-122,-139,-98
-35,-108,-74,65,16,-94,23,-83,-80,-116,-133,-98
-35,-108,-74,65,16,-94,23,-83,-80,-116,-133,-92
-35,-108,-74,65,16,-94,23,-83,-80,-116,-133,-98
-35,-102,-68,65,16,-88,17,-83,-80,-122,-133,-104
-35,-102,-68,65,16,-88,17,-83,-80,-122,-133,-104
-35,-102,-68,65,16,-88,17,-77,-80,-122,-133,-104
-35,-96,-62,59,10,-82,17,-77,-80,-116,-139,-104
-35,-96,-62,59,10,-82,11,-83,-74,-116,-139,-104
-35,-96,-62,59,10,-82,11,-83,-80,-122,-139,-104
-35,-96,-62,59,10,-82,5,-83,-80,-122,-139,-104
-41,-96,-56,65,4,-76,5,-89,-80,-116,-133,-104
-41,-96,-56,65,4,-76,5,-89,-80,-116,-133,-104
-41,-90,-50,65,4,-70,5,-89,-80,-116,-133,-104
-41,-84,-44,59,-2,-64,5,-95,-86,-122,-139,-104
-41,-84,-44,59,-2,-64,5,-95,-86,-122,-145,-110
-35,-78,-44,53,4,-64,5,-95,-92,-128,-145,-110
-35,-84,-50,53,4,-70,-1,-101,-92,-128,-151,-110
-41,-84,-44,59,-2,-64,-1,-101,-98,-128,-157,-110
-35,-78,-44,53,4,-64,-7,-101,-104,-134,-157,-110
-35,-72,-38,47,-2,-58,-13,-107,-110,-134,-157,-116
-35,-72,-38,47,-2,-58,-13,-101,-116,-140,-163,-116
-35,-72,-38,47,-2,-58,-13,-95,-116,-134,-163,-116
-41,-72,-32,53,-8,-52,-13,-95,-116,-134,-163,-116
-41,-72,-32,53,-8,-52,-13,-101,-116,-134,-163,-116
-41,-72,-32,53,-8,-52,-7,-101,-110,-140,-169,-116
-41,-78,-38,59,-2,-58,-7,-101,-116,-140,-163,-116
-41,-78,-38,59,-2,-58,-13,-101,-116,-140,-163,-116
-41,-78,-38,59,-2,-58,-13,-107,-116,-140,-157,-110
-41,-78,-38,59,-2,-58,-13,-101,-122,-140,-151,-104
-47,-72,-26,53,-14,-52,-13,-101,-122,-140,-151,-104
-47,-72,-26,53,-14,-52,-13,-101,-122,-134,-145,-98
-47,-72,-26,53,-14,-52,-13,-101,-116,-134,-151,-98
-47,-78,-32,59,-8,-58,-7,-101,-116,-134,-145,-98
-47,-78,-32,59,-8,-58,-7,-101,-116,-128,-139,-92
-41,-84,-44,59,-2,-64,-1,-101,-116,-128,-139,-92
-35,-84,-50,53,4,-70,-1,-101,-116,-128,-139,-92
-30,-84,-56,53,10,-70,-1,-101,-116,-128,-139,-98
-30,-84,-56,53,10,-70,-1,-107,-122,-128,-145,-104
-30,-84,-56,53,10,-70,-1,-107,-122,-128,-145,-104
-30,-84,-56,53,10,-70,-7,-107,-128,-134,-145,-104
-30,-90,-62,59,16,-76,-7,-113,-128,-134,-151,-104
-30,-90,-62,59,16,-76,-7,-113,-134,-134,-151,-104
-30,-90,-62,59,16,-76,-7,-113,-134,-134,-151,-104
-30,-90,-62,59,16,-76,-13,-113,-140,-140,-151,-104
-30,-90,-62,59,16,-76,-13,-113,-140,-140,-151,-104
-30,-90,-62,59,16,-76,-7,-113,-140,-140,-151,-104
-30,-96,-68,59,16,-82,-7,-113,-140,-140,-151,-110
-35,-96,-62,59,10,-82,-7,-113,-146,-140,-151,-116
-30,-96,-68,59,16,-82,5,-113,-146,-140,-145,-110
-30,-102,-74,65,22,-88,5,-113,-146,-140,-145,-110
-30,-102,-74,65,22,-88,5,-113,-146,-140,-139,-104
-30,-102,-74,65,22,-88,5,-119,-146,-146,-145,-104
-30,-96,-68,59,16,-82,-1,-119,-152,-152,-145,-110
-30,-96,-68,59,16,-82,-1,-125,-152,-152,-145,-110
-30,-102,-74,65,22,-88,-1,-119,-152,-146,-139,-110
-25,-108,-86,65,28,-94,-1,-119,-158,-146,-139,-110
-25,-108,-86,65,28,-94,-1,-119,-164,-140,-139,-110
-25,-108,-86,65,28,-94,-1,-119,-170,-146,-139,-110
-25,-108,-86,65,28,-94,-1,-119,-170,-152,-139,-110
-30,-108,-80,65,22,-94,-1,-113,-176,-158,-139,-116
-30,-114,-86,71,28,-100,-1,-119,-176,-158,-133,-110
-30,-114,-86,71,28,-100,-1,-119,-176,-158,-133,-110
-25,-120,-98,71,34,-106,5,-119,-182,-158,-133,-110
-30,-120,-92,71,28,-106,5,-125,-182,-158,-139,-110
-30,-120,-92,71,28,-106,5,-125,-182,-158,-145,-110
-25,-114,-92,71,34,-100,11,-131,-182,-152,-139,-110
-19,-114,-98,65,40,-106,11,-131,-182,-158,-139,-116
-19,-108,-92,59,34,-100,11,-131,-182,-158,-139,-116
-19,-108,-92,59,34,-100,11,-131,-182,-158,-139,-122
-19,-114,-98,65,40,-106,5,-137,-188,-164,-139,-128
-19,-114,-98,65,40,-106,5,-131,-194,-164,-145,-128
-25,-114,-92,71,34,-100,5,-131,-194,-164,-145,-122
-19,-114,-98,65,40,-106,5,-131,-188,-164,-139,-122
-25,-114,-92,71,34,-100,5,-131,-194,-170,-145,-122
-30,-108,-80,65,22,-94,5,-137,-194,-170,-145,-122
-19,-108,-92,59,34,-100,5,-137,-200,-170,-145,-122
-25,-114,-92,71,34,-100,5,-137,-194,-170,-145,-122
-25,-120,-98,71,34,-106,5,-137,-194,-176,-139,-122
-25,-120,-98,71,34,-106,5,-137,-188,-170,-139,-122
-19,-120,-104,65,40,-112,5,-131,-188,-170,-139,-128
-25,-126,-104,77,40,-112,5,-131,-188,-170,-139,-128
-25,-132,-110,77,40,-118,5,-131,-188,-170,-139,-134
-19,-132,-116,71,46,-124,5,-131,-188,-164,-133,-134
-19,-132,-116,71,46,-124,-1,-131,-188,-164,-133,-134
-19,-132,-116,71,46,-124,-1,-131,-188,-164,-133,-134
-19,-132,-116,71,46,-124,-1,-131,-194,-170,-139,-134
-19,-132,-116,71,46,-124,-7,-137,-194,-170,-139,-140
-19,-126,-110,71,46,-118,-7,-143,-200,-170,-145,-140
-19,-126,-110,71,46,-118,-7,-143,-200,-170,-145,-140
-19,-126,-110,71,46,-118,-7,-149,-200,-170,-151,-140
-19,-126,-110,71,46,-118,-7,-155,-200,-164,-151,-134
-13,-126,-116,71,52,-118,-7,-155,-206,-164,-157,-134
-7,-126,-122,65,58,-124,-7,-161,-200,-164,-151,-134
-1,-120,-122,59,58,-118,-7,-167,-200,-158,-151,-128
-7,-126,-122,65,58,-124,-7,-167,-206,-158,-145,-128
-7,-126,-122,65,58,-124,-7,-167,-206,-164,-145,-128
-13,-126,-116,71,52,-118,-1,-161,-206,-170,-145,-134
-19,-126,-110,71,46,-118,-7,-155,-212,-170,-145,-134
-19,-132,-116,71,46,-124,-7,-149,-212,-170,-145,-134
-13,-132,-122,71,52,-124,-7,-143,-206,-170,-145,-134
-13,-138,-128,77,58,-130,-7,-143,-206,-170,-145,-134
-13,-144,-134,77,58,-136,-7,-143,-206,-164,-145,-134
-13,-138,-128,77,58,-130,-7,-143,-206,-164,-145,-134
-13,-138,-128,77,58,-130,-7,-149,-206,-164,-145,-140
-19,-138,-122,77,52,-130,-7,-155,-212,-164,-145,-134
-19,-132,-116,71,46,-124,-7,-149,-212,-164,-145,-134
-19,-126,-110,71,46,-118,-7,-149,-218,-158,-139,-128
-19,-126,-110,71,46,-118,-7,-149,-218,-158,-139,-128
-25,-126,-104,77,40,-112,-7,-149,-224,-164,-145,-128
-25,-126,-104,77,40,-112,-7,-149,-224,-164,-145,-128
-25,-132,-110,77,40,-118,-13,-143,-218,-164,-145,-134
-19,-132,-116,71,46,-124,-13,-149,-224,-170,-151,-134
-19,-132,-116,71,46,-124,-19,-143,-224,-170,-145,-140
-19,-132,-116,71,46,-124,-25,-143,-224,-170,-151,-140
-19,-132,-116,71,46,-124,-25,-149,-230,-176,-151,-134
-19,-138,-122,77,52,-130,-19,-149,-236,-176,-145,-134
-19,-138,-122,77,52,-130,-7,-155,-230,-176,-145,-134
-25,-144,-122,83,46,-130,-1,-161,-224,-176,-145,-134
-25,-144,-122,83,46,-130,5,-161,-218,-176,-145,-128
-25,-132,-110,77,40,-118,5,-155,-218,-182,-151,-128
-25,-132,-110,77,40,-118,-1,-155,-218,-182,-151,-128
-25,-132,-110,77,40,-118,-7,-155,-218,-182,-151,-134
-25,-132,-110,77,40,-118,-13,-155,-218,-182,-157,-134
-25,-126,-104,77,40,-112,-13,-155,-218,-182,-151,-128
-19,-132,-116,71,46,-124,-7,-155,-218,-176,-145,-128
-13,-132,-122,71,52,-124,-7,-161,-224,-170,-145,-128
-7,-132,-128,65,58,-130,-7,-167,-224,-170,-145,-128
-19,-132,-116,71,46,-124,-7,-167,-230,-170,-145,-134
-25,-138,-116,83,46,-124,-7,-167,-236,-170,-145,-134
-25,-132,-110,77,40,-118,-7,-161,-236,-176,-151,-140
-25,-132,-110,77,40,-118,-7,-161,-242,-176,-151,-140
-25,-138,-116,83,46,-124,-7,-155,-242,-176,-157,-140
-19,-138,-122,77,52,-130,-7,-149,-242,-176,-151,-140
-25,-144,-122,83,46,-130,-7,-149,-242,-170,-151,-140
-25,-144,-122,83,46,-130,-7,-143,-242,-170,-151,-134
-25,-138,-116,83,46,-124,-7,-149,-248,-170,-151,-140
-13,-126,-116,71,52,-118,-7,-155,-254,-170,-151,-140
-13,-126,-116,71,52,-118,-13,-161,-260,-170,-151,-140
-13,-132,-122,71,52,-124,-13,-161,-260,-164,-151,-140
-13,-132,-122,71,52,-124,-7,-161,-260,-164,-151,-140
-19,-138,-122,77,52,-130,-7,-161,-266,-170,-157,-146
-19,-138,-122,77,52,-130,-7,-161,-266,-176,-157,-146
-19,-138,-122,77,52,-130,-13,-167,-272,-176,-157,-146
-19,-132,-116,71,46,-124,-13,-161,-272,-176,-163,-152
-13,-132,-122,71,52,-124,-13,-161,-272,-170,-157,-146
-13,-120,-110,65,46,-112,-7,-161,-266,-170,-157,-140
-13,-120,-110,65,46,-112,-7,-155,-266,-170,-151,-140
-7,-114,-110,59,52,-112,-1,-155,-272,-170,-151,-146
-13,-120,-110,65,46,-112,-1,-155,-272,-170,-151,-146
-13,-120,-110,65,46,-112,-1,-155,-278,-170,-151,-146
-13,-126,-116,71,52,-118,-1,-161,-278,-170,-151,-146
-13,-126,-116,71,52,-118,-1,-155,-278,-170,-151,-140
-7,-126,-122,65,58,-124,5,-155,-278,-170,-151,-134
-1,-120,-122,59,58,-118,5,-155,-272,-170,-145,-134
-1,-120,-122,59,58,-118,5,-155,-266,-170,-151,-134
-1,-108,-110,53,52,-106,11,-155,-260,-170,-145,-134
-1,-96,-98,47,46,-94,11,-155,-254,-170,-139,-128
5,-90,-98,41,52,-94,11,-149,-248,-170,-133,-128
5,-78,-86,35,46,-82,11,-149,-242,-164,-127,-128
5,-66,-74,29,40,-70,17,-149,-236,-164,-127,-122
5,-54,-62,23,34,-58,17,-149,-236,-158,-121,-122
11,-42,-56,18,34,-46,17,-143,-236,-158,-121,-122
11,-42,-56,18,34,-46,17,-143,-236,-158,-127,-116
11,-36,-50,13,28,-40,17,-143,-236,-158,-127,-116
11,-30,-44,13,28,-34,17,-137,-236,-158,-121,-116
17,-24,-44,1,28,-34,11,-125,-224,-152,-115,-110
23,-12,-38,-5,28,-22,11,-119,-218,-152,-115,-110
29,-7,-38,-11,34,-22,5,-113,-218,-146,-109,-104
29,-7,-38,-11,34,-22,-1,-107,-206,-134,-103,-98
29,-2,-32,-11,34,-16,-1,-113,-206,-134,-103,-92
35,4,-32,-17,34,-10,-7,-113,-200,-134,-97,-86
35,10,-26,-17,34,-4,-13,-119,-200,-128,-97,-80
41,16,-26,-29,34,-4,-1,-119,-200,-128,-91,-74
41,10,-32,-23,40,-10,-7,-119,-200,-122,-91,-74
35,10,-26,-17,34,-4,-13,-113,-194,-122,-85,-68
29,4,-26,-17,28,-10,-13,-107,-182,-116,-79,-68
29,4,-26,-17,28,-10,-7,-107,-170,-110,-79,-62
29,4,-26,-17,28,-10,-13,-107,-170,-110,-79,-62
29,-2,-32,-11,34,-16,-13,-113,-170,-116,-85,-62
29,-7,-38,-11,34,-22,-13,-119,-170,-116,-91,-62
29,-12,-44,-11,34,-28,-13,-113,-164,-116,-85,-62
29,-18,-50,-5,40,-34,-13,-113,-164,-116,-85,-62
29,-24,-56,-5,40,-40,-7,-107,-164,-116,-85,-62
35,-30,-68,1,52,-46,-7,-101,-158,-110,-79,-62
41,-30,-74,-5,58,-52,-13,-107,-158,-110,-85,-62
41,-36,-80,-5,58,-58,-19,-113,-164,-116,-85,-62
41,-48,-92,1,64,-70,-19,-113,-164,-122,-85,-62
35,-54,-92,13,64,-70,-19,-119,-170,-128,-91,-62
29,-60,-92,13,58,-76,-19,-125,-170,-134,-97,-68
29,-72,-104,18,64,-88,-13,-131,-170,-140,-103,-68
23,-78,-104,29,64,-88,-13,-125,-170,-140,-103,-80
17,-84,-104,29,58,-94,-7,-125,-176,-140,-109,-86
11,-90,-104,41,58,-94,-1,-125,-176,-146,-115,-92
5,-90,-98,41,52,-94,5,-125,-176,-152,-121,-104
-1,-96,-98,47,46,-94,5,-125,-176,-152,-127,-116
-1,-90,-92,47,46,-88,5,-125,-170,-152,-121,-116
-1,-84,-86,41,40,-82,5,-125,-164,-158,-121,-116
-1,-78,-80,41,40,-76,5,-119,-152,-152,-115,-110
11,-66,-80,29,46,-70,5,-107,-134,-140,-103,-98
17,-60,-80,18,46,-70,5,-107,-116,-128,-85,-86
23,-48,-74,13,46,-58,-1,-101,-98,-116,-67,-68
29,-36,-68,1,46,-52,-7,-89,-80,-98,-55,-56
29,-24,-56,-5,40,-40,-13,-77,-62,-86,-43,-38
41,-12,-56,-17,46,-34,-19,-65,-45,-68,-27,-20
47,4,-44,-23,46,-16,-19,-60,-34,-50,-15,-8
53,16,-38,-35,46,-10,-19,-49,-16,-45,-3,4
65,28,-38,-47,52,-4,-19,-37,2,-34,15,9
71,34,-38,-47,58,2,-25,-25,14,-22,27,14
89,34,-56,-59,76,-10,-31,-13,32,-10,39,26
101,34,-68,-65,88,-16,-37,-1,50,8,51,38
113,28,-86,-71,100,-28,-43,17,68,26,63,50
125,28,-98,-77,112,-34,-49,29,80,38,81,62
137,28,-110,-83,124,-40,-54,53,104,62,99,80
149,22,-128,-83,142,-52,-65,71,128,86,117,92
155,10,-146,-77,154,-64,-59,107,158,116,141,116
167,-7,-176,-77,172,-88,-54,161,206,164,177,140
191,-24,-218,-83,202,-118,-43,221,260,218,219,176
215,-42,-260,-83,238,-148,-37,287,320,272,255,212
245,-60,-308,-95,274,-184,-13,371,398,344,309,254
281,-72,-356,-107,316,-214,11,461,488,416,363,302
311,-90,-404,-107,358,-244,35,551,584,488,417,350
341,-114,-458,-113,400,-286,53,647,686,578,489,404
371,-138,-512,-113,442,-322,71,767,818,680,579,476
413,-156,-572,-131,490,-364,89,905,992,818,687,560
461,-156,-620,-155,538,-388,107,1079,1208,980,819,674
527,-144,-674,-191,598,-406,131,1301,1478,1190,981,806
593,-126,-722,-233,658,-424,167,1559,1790,1424,1173,956
665,-90,-758,-287,712,-424,215,1823,2114,1670,1371,1124
731,-42,-776,-341,754,-406,251,1979,2389,1898,1581,1298
779,46,-734,-407,760,-340,215,1949,2503,2066,1773,1472
815,166,-650,-485,736,-238,155,1787,2515,2180,1953,1628
827,310,-518,-563,676,-100,95,1589,2485,2276,2115,1778
827,472,-356,-647,592,60,41,1349,2407,2348,2265,1910
809,646,-164,-725,490,240,-7,1085,2294,2383,2385,2012
767,820,50,-791,358,438,-31,827,2186,2389,2468,2078
701,958,254,-827,226,606,-25,593,2066,2342,2498,2090
617,1072,452,-845,82,762,17,377,1910,2228,2456,2054
509,1168,656,-839,-72,912,83,161,1694,2048,2349,1952
389,1234,842,-809,-222,1038,149,-25,1472,1814,2199,1814
287,1276,986,-779,-348,1134,221,-161,1256,1586,2043,1676
209,1288,1076,-749,-432,1182,299,-263,1046,1358,1881,1532
137,1252,1112,-695,-486,1182,389,-311,860,1142,1713,1388
89,1168,1076,-629,-492,1122,473,-347,662,920,1521,1226
41,1036,992,-539,-474,1014,551,-389,428,680,1275,1028
5,838,830,-419,-408,834,635,-401,230,464,1005,812
-30,544,572,-257,-300,558,725,-347,116,302,729,584
-65,202,266,-65,-162,234,827,-251,38,188,477,356
-95,-66,26,77,-60,-22,881,-203,-50,86,273,182
-119,-234,-116,173,-2,-178,881,-185,-152,-16,117,50
-131,-312,-182,215,22,-250,827,-179,-224,-92,15,-32
-143,-336,-194,233,22,-268,749,-185,-260,-152,-49,-92
-149,-324,-176,233,10,-250,677,-179,-272,-194,-97,-140
-143,-294,-152,215,4,-226,611,-179,-272,-230,-133,-170
-131,-252,-122,185,-8,-190,539,-179,-260,-242,-157,-188
-113,-204,-92,155,-14,-148,449,-185,-236,-236,-163,-182
-83,-162,-80,119,-2,-124,347,-185,-218,-224,-169,-170
-65,-132,-68,95,-2,-100,245,-191,-212,-212,-169,-164
-59,-120,-62,83,-2,-94,155,-197,-212,-212,-169,-164
-53,-108,-56,77,-2,-82,95,-197,-212,-212,-169,-164
-47,-90,-44,65,-2,-70,65,-191,-200,-212,-169,-164
-41,-84,-44,59,-2,-64,47,-185,-200,-212,-163,-170
-47,-78,-32,59,-8,-58,53,-185,-194,-218,-169,-176
-53,-78,-26,65,-14,-52,59,-179,-194,-224,-175,-182
-47,-72,-26,53,-14,-52,65,-179,-194,-230,-181,-188
-47,-72,-26,53,-14,-52,59,-185,-200,-230,-187,-200
-41,-78,-38,59,-2,-58,41,-191,-206,-230,-199,-206
-35,-72,-38,47,-2,-58,17,-197,-218,-236,-205,-206
-35,-72,-38,47,-2,-58,-7,-197,-224,-236,-211,-206
-35,-72,-38,47,-2,-58,-19,-203,-224,-242,-211,-200
-35,-78,-44,53,4,-64,-25,-203,-224,-242,-211,-200
-35,-78,-44,53,4,-64,-25,-197,-224,-248,-211,-200
-35,-72,-38,47,-2,-58,-25,-197,-224,-248,-217,-206
-35,-72,-38,47,-2,-58,-19,-191,-218,-248,-217,-200
-35,-66,-32,47,-2,-52,-19,-185,-218,-242,-217,-206
-35,-66,-32,47,-2,-52,-19,-179,-206,-242,-211,-206
-41,-66,-26,53,-8,-46,-19,-179,-200,-236,-211,-206
-41,-66,-26,53,-8,-46,-31,-179,-200,-230,-211,-206
-41,-60,-20,47,-14,-40,-37,-179,-206,-236,-217,-206
-35,-54,-20,41,-8,-40,-37,-179,-212,-242,-223,-212
-35,-48,-14,35,-14,-34,-37,-179,-212,-248,-223,-218
-35,-48,-14,35,-14,-34,-37,-179,-206,-242,-223,-212
-30,-48,-20,35,-8,-34,-37,-173,-200,-242,-223,-206
-30,-48,-20,35,-8,-34,-37,-167,-200,-242,-223,-206
-35,-48,-14,35,-14,-34,-43,-167,-200,-242,-223,-200
-35,-42,-8,35,-14,-28,-49,-173,-206,-236,-223,-200
-35,-36,-2,29,-20,-22,-54,-179,-206,-236,-217,-200
-35,-30,4,29,-20,-16,-54,-185,-200,-236,-217,-200
-30,-30,-2,29,-14,-16,-54,-185,-194,-230,-205,-200
-25,-30,-8,29,-8,-16,-54,-185,-188,-230,-205,-200
-25,-24,-2,23,-14,-10,-54,-179,-188,-236,-211,-200
-30,-18,10,23,-20,-4,-54,-179,-176,-230,-205,-194
-30,-7,21,18,-25,7,-54,-179,-176,-230,-205,-194
-30,-7,21,18,-25,7,-59,-179,-182,-230,-211,-194
-30,-2,26,18,-25,12,-65,-185,-182,-224,-211,-188
-35,-7,26,18,-30,7,-65,-179,-182,-218,-211,-188
-35,-7,26,18,-30,7,-59,-179,-182,-218,-211,-188
-35,-2,32,18,-30,12,-59,-179,-182,-212,-205,-188
-35,4,38,13,-36,18,-65,-185,-188,-212,-205,-188
-35,10,44,13,-36,24,-71,-191,-194,-212,-211,-188
-35,22,56,7,-42,36,-77,-191,-194,-212,-211,-188
-30,28,56,1,-42,42,-83,-191,-200,-218,-211,-188
-30,22,50,7,-36,36,-83,-191,-200,-218,-211,-194
-30,22,50,7,-36,36,-89,-191,-194,-212,-205,-194
-30,28,56,1,-42,42,-95,-191,-194,-206,-205,-194
-35,28,62,1,-48,42,-95,-185,-194,-200,-199,-188
-35,40,74,-5,-54,54,-95,-185,-194,-200,-199,-188
-41,46,86,1,-60,66,-95,-191,-188,-194,-199,-188
-30,58,86,-11,-54,72,-95,-185,-188,-194,-193,-188
-30,70,98,-17,-60,84,-95,-185,-188,-194,-193,-182
-30,76,104,-23,-66,90,-95,-179,-188,-200,-193,-182
-30,82,110,-23,-66,96,-101,-179,-188,-200,-193,-182
-30,82,110,-23,-66,96,-107,-173,-182,-200,-193,-188
-30,88,116,-29,-72,102,-113,-173,-182,-200,-193,-188
-30,94,122,-29,-72,108,-119,-173,-182,-194,-193,-182
-30,100,128,-35,-78,114,-125,-167,-176,-194,-187,-182
-30,106,134,-35,-78,120,-125,-167,-170,-188,-181,-170
-30,118,146,-41,-84,132,-131,-167,-170,-188,-181,-170
-30,124,152,-47,-90,138,-137,-173,-158,-188,-175,-164
-30,130,158,-47,-90,144,-137,-173,-152,-188,-169,-164
-30,136,164,-53,-96,150,-137,-167,-140,-182,-157,-164
-30,142,170,-53,-96,156,-137,-167,-134,-182,-157,-164
-30,148,176,-59,-102,162,-143,-161,-122,-182,-151,-158
-30,154,182,-59,-102,168,-149,-155,-110,-176,-145,-152
-30,160,188,-65,-108,174,-155,-155,-104,-176,-145,-152
-35,172,206,-71,-120,186,-161,-149,-98,-176,-139,-146
-35,184,218,-77,-126,198,-167,-143,-86,-170,-133,-146
-35,196,230,-83,-132,210,-173,-143,-80,-164,-127,-140
-35,202,236,-83,-132,216,-173,-137,-74,-158,-121,-134
-30,214,242,-89,-132,228,-173,-131,-62,-146,-115,-128
-30,220,248,-95,-138,234,-173,-131,-56,-140,-109,-128
-35,232,266,-101,-150,246,-173,-125,-50,-128,-97,-122
-30,238,266,-101,-144,252,-179,-119,-45,-116,-91,-116
-30,250,278,-107,-150,264,-179,-113,-45,-104,-85,-104
-30,262,290,-113,-156,276,-185,-101,-40,-80,-79,-98
-30,262,290,-113,-156,276,-185,-95,-28,-68,-73,-92
-25,268,290,-119,-156,282,-185,-89,-22,-56,-61,-80
-25,274,296,-119,-156,288,-191,-83,-10,-45,-55,-74
-25,274,296,-119,-156,288,-185,-77,2,-40,-43,-68
-13,280,290,-131,-150,288,-179,-65,14,-28,-32,-50
-19,286,302,-131,-156,294,-179,-60,26,-22,-27,-44
-19,286,302,-131,-156,294,-173,-55,44,-10,-21,-38
-19,286,302,-131,-156,294,-173,-49,56,2,-15,-32
-19,286,302,-131,-156,294,-167,-43,68,14,-9,-32
-13,292,302,-137,-156,300,-167,-31,80,26,3,-32
-13,292,302,-137,-156,300,-161,-25,86,38,9,-26
-13,292,302,-137,-156,300,-155,-13,98,50,21,-14
-13,286,296,-131,-150,294,-155,-7,104,62,33,-8
-13,274,284,-125,-144,282,-149,5,116,80,45,4
-13,268,278,-125,-144,276,-137,23,128,92,57,9
-7,268,272,-131,-138,270,-131,41,146,110,69,14
-7,256,260,-125,-132,258,-119,53,158,122,75,20
-13,238,248,-107,-126,246,-107,71,170,134,81,26
-7,226,230,-107,-114,228,-95,77,182,146,93,32
-13,214,224,-95,-114,222,-89,89,188,158,99,44
-7,202,206,-95,-102,204,-77,95,200,164,111,50
-7,196,200,-95,-102,198,-65,107,206,176,123,62
-1,196,194,-95,-96,198,-54,113,212,182,123,62
-1,184,182,-89,-90,186,-49,125,218,188,129,68
11,172,158,-89,-72,168,-37,131,218,188,123,74
17,160,140,-89,-60,150,-25,137,212,188,123,74
17,142,122,-77,-48,132,-19,143,218,188,123,74
17,130,110,-71,-42,120,-7,143,212,176,111,68
17,118,98,-65,-36,108,5,137,200,170,105,68
17,106,86,-59,-30,96,11,131,188,158,93,62
11,94,80,-47,-30,90,23,113,170,146,81,56
17,88,68,-53,-25,78,29,101,158,134,63,44
11,82,68,-41,-25,78,29,89,140,122,51,38
11,70,56,-35,-20,66,29,77,122,110,45,26
5,64,56,-35,-25,60,35,65,104,92,33,14
-1,46,44,-17,-20,48,41,53,86,74,27,9
-7,34,38,-11,-20,36,41,41,62,56,15,4
-13,10,21,7,-14,18,41,29,50,44,9,-2
-7,-2,4,7,-2,2,41,17,32,26,-3,-8
-1,-7,-8,7,4,-4,29,5,14,8,-15,-14
-1,-12,-14,7,4,-10,29,-19,-4,-4,-27,-14
-1,-12,-14,7,4,-10,23,-37,-28,-22,-32,-20
-1,-12,-14,7,4,-10,23,-55,-45,-34,-43,-32
-7,-18,-14,13,4,-16,17,-65,-62,-45,-55,-44
-7,-30,-26,18,10,-28,17,-77,-74,-56,-67,-50
-13,-36,-26,23,4,-28,11,-89,-92,-68,-73,-62
-13,-42,-32,29,10,-34,5,-95,-104,-80,-85,-68
-13,-48,-38,29,10,-40,-1,-107,-116,-92,-91,-74
-13,-48,-38,29,10,-40,-1,-113,-128,-104,-91,-80
-19,-54,-38,35,10,-46,-7,-125,-134,-104,-97,-86
-19,-60,-44,35,10,-52,-7,-131,-140,-110,-109,-86
-13,-60,-50,35,16,-52,-13,-137,-146,-116,-115,-86
-13,-66,-56,41,22,-58,-25,-143,-152,-116,-115,-86
-13,-72,-62,41,22,-64,-31,-149,-158,-116,-121,-86
-13,-66,-56,41,22,-58,-37,-155,-170,-122,-127,-86
-13,-66,-56,41,22,-58,-43,-161,-170,-122,-133,-92
-19,-72,-56,41,16,-64,-43,-167,-176,-128,-133,-92
-19,-72,-56,41,16,-64,-49,-173,-182,-128,-139,-98
-25,-78,-56,53,16,-64,-49,-173,-182,-128,-145,-104
-30,-78,-50,53,10,-64,-54,-167,-182,-128,-145,-110
-30,-72,-44,47,4,-58,-54,-167,-176,-128,-145,-104
-30,-72,-44,47,4,-58,-43,-167,-176,-128,-145,-104
-30,-72,-44,47,4,-58,-49,-167,-176,-128,-145,-104
-35,-78,-44,53,4,-64,-49,-173,-182,-128,-151,-104
-35,-78,-44,53,4,-64,-49,-179,-176,-128,-151,-110
-30,-78,-50,53,10,-64,-54,-179,-182,-134,-151,-110
-25,-84,-62,53,16,-70,-54,-191,-182,-134,-151,-110
-25,-84,-62,53,16,-70,-49,-191,-176,-134,-151,-110
-19,-84,-68,47,22,-76,-49,-191,-176,-134,-151,-110
-30,-84,-56,53,10,-70,-49,-191,-176,-128,-151,-110
-30,-90,-62,59,16,-76,-49,-191,-170,-128,-151,-104
-30,-84,-56,53,10,-70,-49,-185,-170,-128,-151,-104
-35,-90,-56,59,10,-76,-49,-185,-170,-122,-151,-104
-30,-90,-62,59,16,-76,-49,-185,-170,-116,-145,-98
-30,-90,-62,59,16,-76,-49,-179,-164,-110,-145,-98
-30,-90,-62,59,16,-76,-49,-179,-164,-110,-139,-98
-30,-84,-56,53,10,-70,-49,-173,-164,-104,-133,-92
-30,-84,-56,53,10,-70,-43,-173,-170,-110,-133,-92
-35,-84,-50,53,4,-70,-43,-173,-170,-110,-133,-98
-35,-84,-50,53,4,-70,-49,-179,-170,-116,-139,-98
-35,-78,-44,53,4,-64,-37,-185,-170,-116,-139,-98
-30,-78,-50,53,10,-64,-37,-185,-164,-116,-133,-98
-30,-72,-44,47,4,-58,-37,-185,-164,-116,-133,-92
-30,-66,-38,47,4,-52,-37,-185,-158,-110,-127,-92
-35,-60,-26,41,-8,-46,-31,-179,-152,-110,-127,-92
-35,-42,-8,35,-14,-28,-31,-179,-152,-116,-133,-98
-35,-42,-8,35,-14,-28,-25,-185,-152,-116,-139,-104
-35,-48,-14,35,-14,-34,-25,-185,-146,-116,-133,-104
-35,-54,-20,41,-8,-40,-25,-179,-146,-110,-127,-104
-35,-60,-26,41,-8,-46,-31,-179,-146,-110,-127,-98
-35,-60,-26,41,-8,-46,-37,-179,-146,-104,-121,-98
-35,-54,-20,41,-8,-40,-37,-185,-146,-98,-121,-92
-30,-48,-20,35,-8,-34,-43,-185,-146,-98,-121,-92
-30,-48,-20,35,-8,-34,-43,-191,-146,-98,-121,-98
-30,-54,-26,41,-2,-40,-43,-185,-146,-92,-127,-98
-30,-48,-20,35,-8,-34,-37,-185,-152,-92,-127,-98
-30,-48,-20,35,-8,-34,-31,-185,-152,-92,-127,-92
-30,-48,-20,35,-8,-34,-25,-185,-152,-92,-127,-92
-30,-48,-20,35,-8,-34,-13,-185,-158,-92,-133,-92
-30,-42,-14,35,-8,-28,-13,-185,-164,-98,-133,-98
-25,-42,-20,35,-2,-28,-13,-185,-170,-104,-139,-104
-25,-42,-20,35,-2,-28,-13,-191,-170,-110,-139,-104
-25,-36,-14,29,-8,-22,-13,-191,-170,-116,-139,-104
-19,-36,-20,23,-2,-28,-13,-197,-170,-116,-133,-104
-19,-30,-14,23,-2,-22,-13,-191,-170,-116,-133,-104
-19,-30,-14,23,-2,-22,-13,-191,-170,-116,-133,-104
-19,-30,-14,23,-2,-22,-13,-185,-170,-122,-133,-104
-25,-36,-14,29,-8,-22,-13,-191,-170,-122,-139,-104
-30,-42,-14,35,-8,-28,-13,-185,-170,-116,-139,-110
-30,-48,-20,35,-8,-34,-13,-191,-182,-116,-139,-110
-35,-48,-14,35,-14,-34,-7,-191,-176,-110,-133,-110
-30,-48,-20,35,-8,-34,-1,-191,-176,-104,-127,-104
-30,-42,-14,35,-8,-28,-7,-191,-176,-104,-127,-104
-25,-36,-14,29,-8,-22,-13,-197,-182,-110,-127,-104
-25,-42,-20,35,-2,-28,-13,-203,-176,-110,-121,-98
-19,-48,-32,29,4,-40,-7,-197,-176,-110,-121,-98
-19,-48,-32,29,4,-40,-1,-197,-176,-110,-127,-98
-19,-48,-32,29,4,-40,-1,-197,-176,-116,-133,-98
-25,-48,-26,35,-2,-34,-1,-191,-170,-116,-139,-98
-30,-48,-20,35,-8,-34,-1,-191,-170,-116,-145,-98
-30,-42,-14,35,-8,-28,-1,-191,-170,-116,-145,-92
-35,-42,-8,35,-14,-28,-1,-197,-170,-122,-139,-92
-35,-48,-14,35,-14,-34,-1,-197,-176,-122,-139,-92
-30,-48,-20,35,-8,-34,5,-197,-182,-122,-133,-98
-25,-54,-32,41,4,-40,5,-197,-182,-116,-133,-98
-25,-60,-38,41,4,-46,5,-191,-182,-116,-127,-98
-25,-66,-44,47,10,-52,5,-191,-182,-116,-127,-104
-25,-66,-44,47,10,-52,5,-185,-188,-116,-133,-104
-30,-60,-32,41,-2,-46,5,-179,-188,-122,-139,-104
-30,-60,-32,41,-2,-46,5,-167,-182,-122,-139,-104
-25,-60,-38,41,4,-46,11,-161,-182,-122,-139,-98
-25,-60,-38,41,4,-46,11,-155,-182,-128,-139,-98
-30,-60,-32,41,-2,-46,11,-149,-188,-134,-139,-98
-30,-60,-32,41,-2,-46,5,-143,-188,-140,-145,-104
-30,-60,-32,41,-2,-46,11,-131,-194,-140,-145,-104
-30,-60,-32,41,-2,-46,11,-125,-194,-140,-151,-104
-30,-60,-32,41,-2,-46,11,-119,-206,-146,-151,-104
-25,-66,-44,47,10,-52,5,-113,-206,-146,-151,-98
-25,-78,-56,53,16,-64,11,-101,-206,-146,-151,-98
-25,-84,-62,53,16,-70,17,-89,-212,-146,-151,-98
-30,-90,-62,59,16,-76,11,-89,-212,-152,-157,-98
-25,-78,-56,53,16,-64,17,-83,-218,-152,-163,-104
-25,-78,-56,53,16,-64,11,-83,-218,-152,-157,-104
-30,-78,-50,53,10,-64,11,-77,-218,-152,-157,-110
-30,-78,-50,53,10,-64,11,-71,-212,-152,-157,-110
-30,-78,-50,53,10,-64,5,-65,-212,-146,-157,-110
-30,-84,-56,53,10,-70,-1,-60,-212,-146,-157,-110
-30,-84,-56,53,10,-70,-1,-60,-212,-152,-157,-116
-30,-90,-62,59,16,-76,5,-55,-218,-152,-163,-116
-30,-96,-68,59,16,-82,5,-49,-218,-152,-163,-116
-35,-90,-56,59,10,-76,-1,-49,-224,-152,-169,-122
-35,-90,-56,59,10,-76,5,-43,-224,-158,-169,-116
-35,-102,-68,65,16,-88,5,-37,-230,-158,-169,-116
-35,-114,-80,71,22,-100,5,-31,-230,-158,-163,-122
-35,-114,-80,71,22,-100,-1,-25,-230,-158,-169,-122
-30,-108,-80,65,22,-94,-7,-25,-230,-152,-169,-122
-30,-108,-80,65,22,-94,-7,-19,-230,-152,-169,-122
-35,-108,-74,65,16,-94,-1,-13,-230,-158,-169,-122
-35,-108,-74,65,16,-94,-1,-13,-230,-164,-169,-122
-35,-114,-80,71,22,-100,-1,-7,-230,-158,-163,-122
-41,-108,-68,71,10,-88,-1,-1,-230,-158,-163,-122
-41,-108,-68,71,10,-88,-7,-1,-230,-152,-169,-122
-41,-108,-68,71,10,-88,-13,5,-236,-152,-169,-128
-41,-114,-74,77,16,-94,-7,11,-236,-158,-169,-122
-47,-114,-68,77,10,-94,-7,17,-242,-158,-175,-128
-47,-108,-62,71,4,-88,-7,17,-242,-164,-175,-128
-47,-108,-62,71,4,-88,-7,17,-248,-170,-175,-128
-47,-102,-56,71,4,-82,-7,23,-248,-176,-175,-128
-47,-108,-62,71,4,-88,-13,23,-248,-170,-169,-128
-41,-114,-74,77,16,-94,-7,17,-248,-170,-169,-128
-41,-114,-74,77,16,-94,-7,23,-248,-176,-169,-128
-41,-120,-80,77,16,-100,-1,23,-248,-176,-169,-128
-41,-126,-86,83,22,-106,-1,29,-248,-176,-163,-128
-47,-126,-80,83,16,-106,-1,35,-248,-176,-163,-128
-53,-132,-80,89,10,-106,5,41,-248,-176,-163,-128
-53,-132,-80,89,10,-106,-1,41,-248,-176,-169,-134
-47,-132,-86,83,16,-112,-1,41,-254,-182,-175,-134
-53,-132,-80,89,10,-106,-1,41,-242,-182,-175,-134
-47,-132,-86,83,16,-112,-7,41,-242,-182,-175,-134
-47,-132,-86,83,16,-112,-13,41,-242,-188,-181,-134
-47,-132,-86,83,16,-112,-7,35,-242,-188,-181,-134
-47,-132,-86,83,16,-112,-1,41,-242,-188,-181,-128
-47,-132,-86,83,16,-112,-7,41,-248,-188,-181,-134
-47,-144,-98,89,22,-124,-7,47,-248,-188,-181,-134
-47,-144,-98,89,22,-124,-1,53,-254,-188,-181,-134
-47,-144,-98,89,22,-124,-7,59,-254,-182,-181,-134
-47,-144,-98,89,22,-124,-7,59,-254,-182,-181,-134
-47,-144,-98,89,22,-124,-7,59,-254,-182,-181,-134
-47,-144,-98,89,22,-124,-7,65,-254,-182,-181,-134
-53,-144,-92,95,16,-118,-7,65,-254,-176,-181,-134
