,,,,,,,,,,,
2019-09-04 23:16:17,,,,,,,,,,,
,,,,,,,,,,,
I,II,III,aVR,aVL,aVF,V1,V2,V3,V4,V5,V6
-126,-99,19,112,-73,-32,-94,-160,-180,-121,-13,-368
-126,-99,19,112,-73,-32,-94,-160,-180,-121,-13,-368
-126,-99,19,112,-73,-32,-94,-160,-180,-121,-13,-368
-126,-99,19,112,-73,-32,-94,-160,-180,-121,-13,-368
-132,-99,25,112,-79,-32,-94,-160,-174,-121,-13,-368
-132,-99,25,112,-79,-32,-94,-166,-180,-121,-13,-368
-132,-99,25,112,-79,-32,-94,-166,-174,-121,-13,-380
-132,-99,25,112,-79,-32,-94,-166,-174,-121,-13,-380
-126,-105,13,112,-73,-38,-94,-172,-180,-127,-19,-380
-120,-105,13,112,-67,-44,-94,-172,-180,-127,-19,-380
-114,-105,13,106,-61,-44,-100,-172,-186,-127,-25,-380
-126,-111,13,118,-67,-44,-100,-172,-186,-127,-25,-380
-120,-111,13,112,-61,-50,-100,-172,-198,-127,-25,-380
-120,-93,19,106,-73,-32,-100,-172,-198,-127,-25,-380
-126,-105,13,112,-73,-38,-100,-172,-204,-127,-19,-380
-138,-111,19,124,-79,-38,-100,-172,-204,-127,-19,-386
-132,-105,19,118,-79,-38,-94,-172,-198,-121,-13,-380
-120,-93,19,106,-73,-32,-100,-178,-198,-127,-13,-374
-114,-87,19,100,-67,-26,-94,-178,-192,-121,-7,-368
-108,-81,19,94,-67,-26,-94,-178,-198,-121,-7,-374
-102,-81,13,88,-61,-26,-94,-178,-198,-127,-13,-380
-102,-87,13,94,-55,-32,-88,-172,-192,-127,-13,-374
-114,-93,13,100,-67,-32,-94,-172,-192,-133,-19,-380
-126,-99,19,112,-73,-32,-94,-172,-192,-133,-19,-380
-120,-93,19,106,-73,-32,-94,-172,-186,-127,-19,-380
-114,-81,25,94,-73,-20,-88,-166,-186,-127,-13,-380
-120,-81,31,100,-79,-20,-88,-166,-186,-121,-13,-374
-132,-81,43,106,-91,-14,-88,-148,-180,-121,-13,-374
-114,-57,49,82,-85,4,-70,-142,-168,-109,-1,-362
-114,-57,49,82,-85,4,-64,-136,-168,-103,5,-362
-108,-51,49,76,-79,4,-58,-130,-162,-97,5,-362
-102,-45,49,70,-79,9,-58,-130,-162,-97,11,-356
-102,-45,49,70,-79,9,-58,-136,-162,-97,11,-356
-102,-51,43,76,-73,4,-58,-136,-162,-97,5,-350
-102,-51,43,76,-73,4,-64,-136,-162,-97,5,-344
-90,-27,55,58,-73,9,-64,-130,-150,-91,11,-338
-96,-27,61,58,-79,9,-52,-130,-144,-85,16,-338
-96,-21,67,58,-85,15,-46,-118,-138,-79,16,-326
-90,-15,67,52,-79,21,-46,-118,-144,-79,16,-332
-90,-9,73,46,-85,27,-58,-130,-144,-79,16,-332
-84,-3,73,40,-79,27,-70,-124,-138,-73,16,-326
-84,-9,67,46,-79,21,-82,-130,-150,-73,16,-326
-78,-3,67,40,-73,27,-100,-136,-150,-67,16,-326
-90,-3,79,46,-85,33,-106,-148,-162,-79,16,-326
-102,2,97,46,-103,45,-118,-172,-180,-91,16,-326
-108,2,115,46,-109,57,-130,-196,-192,-103,16,-326
-126,-15,103,70,-115,39,-160,-214,-216,-121,11,-338
-132,-21,103,76,-121,33,-178,-226,-222,-127,11,-338
-108,-21,79,64,-97,21,-184,-226,-228,-133,11,-338
-96,-15,73,52,-85,21,-196,-232,-228,-127,16,-338
-84,-15,61,46,-73,15,-202,-238,-234,-133,16,-332
-66,-15,43,40,-55,9,-214,-250,-240,-133,16,-332
-60,-15,37,34,-49,9,-220,-256,-240,-139,11,-332
-60,-15,37,34,-49,9,-214,-250,-240,-133,16,-326
-60,-21,31,40,-49,9,-208,-250,-234,-139,11,-326
-72,-39,25,52,-49,-2,-196,-250,-234,-139,11,-332
-72,-33,31,52,-55,4,-190,-232,-228,-133,5,-332
-78,-51,19,64,-49,-8,-172,-232,-222,-133,5,-338
-90,-57,25,70,-61,-8,-160,-214,-216,-139,5,-350
-90,-81,13,82,-49,-32,-154,-208,-216,-145,-7,-356
-114,-105,13,106,-61,-44,-136,-202,-216,-145,-13,-374
-126,-111,13,118,-67,-44,-136,-202,-216,-145,-19,-380
-132,-123,13,124,-67,-56,-124,-202,-222,-145,-31,-386
-144,-141,8,142,-73,-68,-124,-202,-228,-151,-43,-398
-180,-183,2,178,-85,-92,-136,-214,-228,-163,-49,-410
-150,-147,8,148,-73,-68,-124,-196,-210,-151,-37,-398
-108,-111,2,106,-49,-56,-88,-160,-186,-127,-13,-374
-120,-111,13,112,-61,-50,-94,-160,-192,-121,-19,-374
-144,-129,13,136,-79,-56,-100,-148,-186,-127,-25,-380
-138,-129,13,130,-73,-56,-82,-142,-174,-115,-19,-374
-120,-111,13,112,-61,-50,-52,-124,-162,-103,-13,-368
-96,-87,13,88,-49,-38,-22,-100,-126,-79,-1,-356
-102,-111,-4,106,-43,-56,-5,-64,-102,-61,16,-350
-126,-123,8,124,-61,-56,1,-46,-84,-55,16,-356
-126,-123,8,124,-61,-56,7,-34,-72,-43,16,-350
-126,-123,8,124,-61,-56,19,-28,-66,-31,16,-344
-108,-105,8,106,-55,-50,25,2,-48,-13,22,-338
-78,-69,13,70,-43,-26,25,25,-30,-1,40,-320
-54,-57,2,52,-25,-26,13,25,-12,16,52,-308
-54,-69,-10,58,-19,-38,13,25,0,28,70,-302
-54,-87,-28,70,-14,-56,25,31,5,28,76,-296
-42,-69,-22,52,-14,-44,31,43,17,58,82,-290
-13,-51,-34,28,4,-44,31,49,29,76,112,-260
-13,-63,-58,28,22,-56,-5,43,35,88,136,-248
11,-81,-100,28,52,-86,-70,25,23,100,154,-230
59,-69,-136,4,94,-98,-148,8,29,124,190,-194
113,-93,-214,-1,160,-152,-226,8,41,142,214,-170
161,-129,-292,-7,226,-212,-310,-10,29,154,232,-164
227,-141,-370,-37,292,-248,-394,-22,35,160,250,-140
293,-159,-460,-61,376,-302,-460,2,47,184,280,-122
347,-165,-514,-85,430,-338,-520,2,59,214,304,-104
407,-177,-586,-109,490,-380,-622,-34,71,244,352,-62
473,-231,-712,-121,592,-470,-742,-82,47,250,388,-56
533,-267,-808,-127,670,-536,-862,-136,35,250,400,-32
641,-243,-892,-193,760,-566,-958,-166,35,280,442,4
731,-267,-1006,-229,868,-638,-1042,-190,29,292,466,22
767,-339,-1114,-211,940,-722,-1138,-214,41,310,472,22
815,-339,-1162,-235,982,-746,-1216,-274,29,346,484,28
905,-291,-1204,-301,1048,-740,-1312,-412,-24,340,520,82
983,-249,-1240,-361,1114,-740,-1474,-646,-150,334,592,141
1049,-237,-1294,-403,1174,-764,-1654,-904,-288,334,670,213
1145,-243,-1396,-445,1264,-818,-1816,-1132,-396,352,760,297
1253,-285,-1546,-481,1402,-914,-1960,-1330,-486,370,832,345
1343,-315,-1666,-505,1498,-986,-2086,-1492,-564,412,928,405
1439,-273,-1714,-577,1576,-992,-2200,-1648,-606,508,1084,537
1517,-171,-1690,-673,1606,-932,-2302,-1810,-618,646,1300,717
1559,-75,-1642,-733,1600,-854,-2332,-1882,-624,772,1486,885
1499,-39,-1546,-727,1522,-788,-2278,-1876,-594,868,1624,987
1397,8,-1384,-703,1390,-680,-2176,-1816,-570,946,1714,1059
1283,110,-1174,-697,1228,-524,-2008,-1738,-516,994,1786,1113
1157,206,-952,-679,1054,-368,-1822,-1612,-468,994,1780,1119
1001,188,-814,-595,910,-308,-1606,-1444,-444,868,1612,987
785,56,-724,-421,754,-326,-1354,-1252,-486,520,1216,687
473,-93,-568,-187,514,-326,-1078,-1078,-588,70,694,297
179,-219,-400,10,286,-302,-844,-904,-666,-295,226,-56
29,-267,-304,112,166,-284,-610,-688,-648,-481,-85,-308
-36,-297,-256,166,106,-278,-436,-478,-510,-421,-193,-422
-96,-297,-202,196,46,-248,-322,-334,-378,-271,-127,-422
-114,-267,-154,190,10,-212,-238,-250,-312,-217,-91,-404
-114,-255,-142,184,4,-200,-178,-214,-294,-211,-97,-410
-138,-243,-106,190,-14,-176,-154,-190,-258,-169,-85,-398
-144,-219,-70,178,-31,-146,-118,-160,-210,-139,-55,-386
-138,-177,-34,154,-49,-104,-88,-130,-174,-115,-43,-374
-144,-147,2,142,-67,-74,-64,-118,-132,-103,-37,-374
-150,-117,25,130,-91,-38,-52,-94,-120,-91,-43,-362
-174,-117,49,142,-115,-26,-40,-76,-126,-97,-55,-362
-204,-135,61,166,-133,-32,-34,-70,-138,-103,-61,-380
-192,-135,49,160,-121,-38,-22,-58,-156,-121,-79,-386
-186,-141,37,160,-115,-44,-16,-58,-162,-133,-91,-404
-192,-153,31,172,-115,-56,-16,-64,-174,-139,-91,-410
-204,-171,25,184,-115,-68,-5,-70,-168,-145,-97,-428
-204,-165,31,184,-121,-62,-5,-64,-156,-139,-103,-428
-210,-147,55,178,-133,-38,-5,-58,-138,-133,-103,-422
-210,-129,73,166,-145,-20,1,-52,-126,-133,-109,-422
-222,-135,79,178,-151,-20,13,-40,-126,-127,-109,-422
-222,-135,79,178,-151,-20,19,-40,-126,-127,-109,-422
-222,-129,85,172,-157,-14,19,-34,-126,-121,-103,-416
-222,-135,79,178,-151,-20,31,-34,-132,-121,-103,-416
-228,-141,79,184,-157,-26,31,-28,-144,-127,-109,-428
-234,-159,67,196,-151,-38,31,-28,-144,-127,-115,-434
-240,-159,73,196,-157,-38,31,-22,-144,-133,-115,-434
-234,-147,79,190,-157,-26,43,-22,-132,-121,-115,-434
-228,-141,79,184,-157,-26,49,-4,-108,-109,-103,-428
-228,-129,91,178,-163,-14,55,2,-96,-109,-103,-428
-222,-135,79,178,-151,-20,55,14,-84,-103,-103,-416
-222,-123,91,172,-157,-8,67,14,-84,-91,-103,-398
-210,-117,85,160,-151,-8,67,20,-90,-85,-103,-404
-222,-117,97,166,-163,-2,67,25,-90,-85,-103,-410
-228,-123,97,172,-163,-8,67,25,-96,-79,-103,-416
-228,-123,97,172,-163,-8,73,25,-102,-79,-103,-428
-228,-123,97,172,-163,-8,67,25,-96,-85,-97,-422
-228,-117,103,172,-169,-2,73,25,-78,-73,-97,-422
-222,-123,91,172,-157,-8,73,25,-66,-79,-97,-416
-222,-123,91,172,-157,-8,73,25,-54,-79,-97,-416
-216,-117,91,166,-157,-8,79,43,-48,-67,-91,-422
-216,-105,103,160,-163,4,79,49,-48,-67,-91,-422
-228,-111,109,166,-169,4,85,61,-48,-55,-103,-428
-234,-111,115,172,-175,9,91,61,-48,-55,-103,-434
-228,-99,121,160,-175,9,115,67,-42,-43,-91,-428
-216,-99,109,154,-163,9,121,85,-30,-43,-91,-422
-210,-93,109,148,-163,9,133,97,-18,-37,-85,-416
-210,-87,115,148,-163,9,133,97,-18,-31,-85,-416
-216,-81,127,148,-175,15,127,109,-18,-25,-91,-422
-222,-87,127,154,-175,15,133,103,-6,-25,-91,-422
-246,-93,145,166,-199,21,133,103,0,-25,-97,-428
-240,-93,139,166,-193,15,145,115,5,-31,-97,-428
-246,-99,139,172,-193,15,151,121,5,-31,-91,-422
-252,-99,145,172,-199,15,163,139,5,-25,-91,-422
-258,-105,151,184,-211,15,175,139,17,-25,-91,-422
-264,-93,169,178,-223,33,175,157,23,-13,-91,-422
-252,-81,169,166,-217,39,193,175,47,4,-85,-416
-252,-75,169,160,-211,39,205,187,53,4,-85,-416
-246,-57,181,148,-217,57,217,205,65,16,-85,-416
-252,-51,193,148,-223,63,229,217,83,22,-85,-416
-252,-45,205,148,-235,75,235,247,107,28,-79,-422
-252,-33,217,142,-241,87,247,259,119,34,-79,-416
-264,-33,229,148,-253,93,259,277,131,40,-79,-422
-264,-33,229,148,-253,93,271,295,143,52,-79,-422
-264,-27,235,148,-253,99,295,313,149,64,-67,-422
-264,-21,241,142,-253,105,313,331,173,76,-67,-416
-270,-9,253,142,-265,117,325,343,185,82,-55,-416
-270,-9,253,142,-265,117,343,361,197,94,-49,-416
-264,2,259,130,-265,129,361,391,221,106,-55,-416
-276,2,271,136,-277,135,379,415,245,118,-55,-416
-276,2,283,130,-277,147,403,445,269,136,-55,-416
-276,8,289,130,-283,153,421,469,287,142,-49,-416
-276,20,301,124,-289,165,445,499,305,154,-43,-416
-276,32,313,118,-295,177,469,517,323,172,-37,-410
-294,26,325,130,-307,177,487,547,347,184,-31,-410
-300,32,337,130,-319,189,505,577,371,196,-31,-404
-300,44,349,124,-325,201,523,607,407,220,-19,-404
-294,50,349,118,-319,201,559,631,431,244,-13,-398
-294,80,379,100,-337,231,589,667,461,256,-1,-398
-300,80,385,106,-343,237,601,685,485,268,5,-398
-306,80,391,106,-349,237,613,709,491,292,5,-398
-306,86,397,106,-349,243,631,733,515,310,11,-386
-318,92,415,106,-367,249,637,751,527,328,5,-380
-318,92,415,106,-367,249,649,769,551,346,16,-380
-312,104,421,100,-367,261,661,793,569,358,16,-380
-306,110,421,94,-361,261,673,805,593,364,16,-374
-300,116,421,88,-361,267,691,823,617,370,16,-368
-288,128,421,76,-355,273,709,847,641,388,34,-356
-288,134,427,70,-355,279,709,853,653,412,40,-356
-288,146,439,64,-361,291,715,865,671,418,46,-356
-282,158,445,58,-361,297,727,871,671,436,46,-344
-270,164,439,46,-355,297,727,877,683,448,64,-344
-276,164,445,52,-361,303,709,877,683,454,58,-344
-270,164,439,46,-355,297,703,877,689,460,70,-338
-276,158,439,52,-355,297,691,871,689,460,70,-338
-264,164,433,46,-349,297,685,871,695,466,76,-332
-264,164,433,46,-349,297,685,865,695,460,76,-332
-264,158,427,46,-343,291,667,847,689,454,82,-320
-258,158,421,46,-337,285,655,829,671,448,94,-326
-252,158,409,40,-325,279,637,805,659,454,100,-314
-246,158,403,34,-319,279,625,781,641,454,94,-308
-240,140,379,40,-307,255,601,757,629,454,100,-302
-228,146,373,34,-295,255,571,733,611,454,100,-308
-216,146,361,28,-283,249,535,715,599,442,100,-314
-198,152,349,16,-271,249,481,667,563,436,100,-314
-192,146,337,16,-259,243,445,619,539,418,112,-308
-192,146,337,16,-259,243,409,565,503,406,112,-314
-174,140,313,10,-247,231,373,523,479,394,112,-314
-162,122,283,10,-223,207,349,493,449,376,112,-314
-150,122,271,4,-211,201,319,457,419,346,112,-314
-144,98,247,16,-193,171,301,415,383,328,100,-314
-138,92,235,16,-187,165,259,385,347,310,100,-308
-120,86,211,10,-163,147,235,343,311,292,100,-314
-114,86,205,4,-157,147,199,301,281,262,94,-320
-102,68,175,10,-139,123,157,265,239,244,88,-326
-90,74,169,4,-127,123,121,223,203,226,88,-332
-96,80,181,4,-139,129,97,187,179,202,76,-332
-96,68,169,4,-133,117,85,163,149,184,70,-338
-102,44,151,22,-127,99,67,121,119,154,58,-344
-102,38,145,22,-121,93,43,103,95,136,46,-350
-96,26,127,28,-109,75,31,85,71,118,40,-356
-90,26,121,22,-103,75,13,67,53,100,28,-356
-84,20,109,22,-97,63,-5,43,29,82,16,-362
-84,14,103,28,-91,57,-16,14,5,70,16,-374
-90,8,103,34,-97,57,-28,-4,-12,58,11,-380
-90,8,103,34,-97,57,-40,-22,-24,34,5,-386
-96,14,115,34,-103,63,-52,-28,-30,28,-1,-386
-96,2,103,40,-97,51,-58,-34,-42,22,-1,-386
-96,2,91,46,-97,39,-70,-52,-60,4,-13,-392
-90,-9,73,46,-85,27,-82,-70,-72,-1,-19,-404
-90,-21,61,52,-79,15,-88,-82,-90,-7,-31,-404
-90,-27,55,58,-73,9,-88,-88,-96,-19,-37,-404
-96,-45,43,70,-73,4,-88,-94,-108,-19,-37,-410
-96,-51,37,70,-67,-2,-94,-100,-108,-31,-43,-416
-108,-63,37,82,-73,-8,-100,-106,-108,-31,-43,-422
-108,-69,31,88,-73,-14,-100,-112,-120,-37,-43,-422
-108,-63,37,82,-73,-8,-94,-112,-126,-43,-49,-422
-108,-63,37,82,-73,-8,-94,-118,-126,-43,-49,-422
-96,-63,25,76,-61,-14,-88,-124,-132,-43,-49,-422
-96,-63,25,76,-61,-14,-88,-124,-132,-43,-49,-422
-96,-69,19,82,-61,-20,-94,-124,-132,-49,-49,-416
-96,-75,13,82,-55,-26,-100,-124,-138,-49,-49,-416
-96,-75,13,82,-55,-26,-100,-124,-138,-61,-55,-410
-96,-81,13,88,-55,-32,-94,-124,-138,-61,-55,-416
-96,-87,13,88,-49,-38,-100,-124,-144,-61,-55,-416
-96,-69,19,82,-61,-20,-106,-124,-144,-61,-55,-410
-96,-87,13,88,-49,-38,-112,-130,-150,-61,-55,-410
-96,-99,2,94,-43,-50,-112,-130,-162,-61,-55,-410
-102,-105,2,100,-49,-50,-106,-130,-162,-67,-61,-410
-120,-111,13,112,-61,-50,-106,-142,-162,-67,-61,-410
-114,-123,-4,118,-49,-62,-100,-142,-162,-67,-67,-404
-114,-141,-22,124,-43,-80,-100,-142,-162,-67,-67,-404
-120,-135,-10,124,-49,-74,-100,-142,-156,-67,-61,-404
-102,-123,-16,112,-37,-68,-100,-124,-156,-67,-61,-404
-96,-117,-16,106,-37,-68,-94,-124,-156,-67,-55,-404
-90,-111,-16,100,-31,-62,-94,-130,-156,-67,-55,-404
-96,-105,-4,100,-43,-56,-100,-136,-156,-61,-55,-404
-96,-123,-22,106,-31,-74,-100,-136,-156,-49,-49,-404
-102,-129,-22,112,-37,-74,-106,-130,-156,-61,-49,-398
-108,-135,-22,118,-37,-80,-106,-130,-156,-61,-49,-398
-102,-129,-22,112,-37,-74,-106,-124,-150,-55,-43,-392
-102,-129,-22,112,-37,-74,-106,-124,-150,-55,-43,-392
-96,-123,-22,106,-31,-74,-106,-118,-144,-43,-37,-386
-96,-117,-16,106,-37,-68,-106,-118,-138,-43,-37,-386
-84,-111,-22,94,-25,-68,-106,-118,-138,-43,-37,-380
-84,-111,-22,94,-25,-68,-106,-118,-138,-37,-37,-380
-78,-99,-16,88,-25,-56,-100,-112,-132,-37,-31,-374
-84,-99,-10,88,-31,-56,-94,-106,-132,-37,-31,-374
-90,-105,-10,94,-37,-56,-100,-106,-132,-43,-31,-380
-90,-111,-16,100,-31,-62,-100,-112,-132,-37,-31,-380
-96,-117,-16,106,-37,-68,-106,-112,-126,-43,-37,-374
-96,-123,-22,106,-31,-74,-106,-118,-126,-43,-37,-374
-96,-123,-22,106,-31,-74,-100,-118,-126,-31,-37,-374
-90,-111,-16,100,-31,-62,-100,-118,-126,-31,-31,-374
-90,-117,-22,100,-31,-68,-94,-118,-126,-25,-31,-368
-90,-123,-28,106,-25,-74,-94,-118,-132,-25,-31,-368
-90,-117,-22,100,-31,-68,-94,-112,-132,-25,-25,-368
-90,-129,-34,106,-25,-80,-94,-112,-126,-25,-25,-368
-90,-123,-28,106,-25,-74,-94,-106,-126,-25,-13,-362
-90,-105,-10,94,-37,-56,-100,-106,-120,-25,-13,-356
-90,-111,-16,100,-31,-62,-100,-106,-120,-25,-19,-356
-90,-117,-22,100,-31,-68,-94,-106,-126,-25,-19,-350
-90,-123,-28,106,-25,-74,-94,-106,-126,-25,-25,-350
-90,-129,-34,106,-25,-80,-94,-106,-126,-25,-25,-350
-90,-123,-28,106,-25,-74,-94,-112,-120,-25,-25,-344
-90,-123,-28,106,-25,-74,-94,-112,-120,-25,-25,-356
-84,-123,-34,100,-19,-80,-94,-118,-126,-25,-19,-350
-84,-123,-34,100,-19,-80,-94,-118,-126,-25,-19,-350
-96,-123,-22,106,-31,-74,-100,-118,-132,-25,-25,-350
-96,-123,-22,106,-31,-74,-100,-118,-132,-25,-25,-344
-102,-135,-28,118,-31,-80,-112,-118,-138,-25,-31,-338
-102,-135,-28,118,-31,-80,-112,-118,-138,-25,-31,-338
-96,-135,-34,112,-25,-86,-112,-130,-138,-25,-25,-338
-96,-135,-34,112,-25,-86,-112,-130,-144,-25,-25,-338
-90,-135,-40,112,-19,-86,-118,-136,-144,-25,-19,-350
-90,-135,-40,112,-19,-86,-118,-136,-144,-31,-19,-350
-90,-129,-34,106,-25,-80,-112,-130,-144,-31,-19,-350
-84,-129,-40,106,-19,-86,-112,-124,-150,-31,-25,-344
-84,-123,-34,100,-19,-80,-112,-118,-144,-31,-25,-338
-84,-123,-34,100,-19,-80,-112,-112,-144,-31,-25,-332
-84,-123,-34,100,-19,-80,-112,-100,-144,-31,-31,-332
-84,-135,-46,106,-14,-92,-112,-100,-144,-37,-31,-332
-78,-135,-52,106,-14,-92,-112,-88,-150,-37,-37,-344
-72,-135,-58,100,-14,-98,-112,-82,-150,-37,-37,-356
-72,-129,-52,100,-14,-92,-112,-88,-150,-43,-37,-350
-72,-129,-52,100,-14,-92,-112,-88,-150,-49,-37,-344
-78,-123,-40,100,-14,-80,-118,-88,-150,-55,-43,-338
-78,-117,-34,94,-19,-74,-118,-88,-150,-55,-43,-332
-90,-123,-28,106,-25,-74,-118,-100,-156,-55,-43,-338
-96,-129,-28,112,-31,-80,-118,-100,-156,-55,-43,-338
-102,-141,-34,118,-31,-86,-118,-94,-168,-55,-49,-338
-108,-147,-34,124,-31,-92,-118,-94,-168,-55,-49,-332
-102,-141,-34,118,-31,-86,-118,-100,-168,-55,-49,-320
-102,-141,-34,118,-31,-86,-118,-100,-168,-55,-49,-320
-96,-135,-34,112,-25,-86,-118,-100,-162,-49,-49,-326
-96,-129,-28,112,-31,-80,-118,-106,-162,-55,-49,-326
-90,-123,-28,106,-25,-74,-118,-106,-168,-61,-49,-320
-90,-123,-28,106,-25,-74,-118,-106,-174,-61,-55,-320
-84,-117,-28,100,-25,-74,-106,-106,-186,-67,-55,-326
-84,-117,-28,100,-25,-74,-106,-106,-192,-67,-55,-332
-84,-117,-28,100,-25,-74,-112,-106,-192,-67,-61,-332
-84,-123,-34,100,-19,-80,-112,-112,-186,-73,-61,-326
-84,-123,-34,100,-19,-80,-118,-112,-180,-73,-55,-320
-78,-123,-40,100,-14,-80,-124,-112,-174,-73,-55,-320
-78,-117,-34,94,-19,-74,-124,-112,-180,-79,-55,-320
-84,-117,-28,100,-25,-74,-130,-118,-186,-79,-61,-320
-90,-129,-34,106,-25,-80,-130,-130,-192,-85,-73,-326
-90,-129,-34,106,-25,-80,-130,-130,-192,-85,-73,-326
-90,-129,-34,106,-25,-80,-124,-124,-186,-79,-73,-320
-90,-129,-34,106,-25,-80,-118,-124,-186,-79,-73,-320
-90,-135,-40,112,-19,-86,-118,-124,-186,-79,-73,-314
-90,-135,-40,112,-19,-86,-118,-118,-186,-79,-67,-308
-84,-129,-40,106,-19,-86,-118,-124,-192,-79,-67,-314
-84,-135,-46,106,-14,-92,-118,-124,-192,-79,-67,-314
-84,-141,-52,112,-14,-98,-124,-136,-204,-85,-67,-314
-84,-141,-52,112,-14,-98,-124,-136,-210,-85,-73,-314
-84,-123,-34,100,-19,-80,-124,-130,-204,-91,-73,-314
-84,-123,-34,100,-19,-80,-124,-130,-204,-91,-73,-314
-96,-123,-22,106,-31,-74,-124,-136,-198,-97,-73,-314
-96,-123,-22,106,-31,-74,-124,-124,-198,-91,-79,-308
-90,-123,-28,106,-25,-74,-124,-124,-198,-97,-85,-302
-90,-123,-28,106,-25,-74,-124,-130,-198,-97,-85,-302
-84,-123,-34,100,-19,-80,-124,-130,-192,-103,-91,-308
-84,-129,-40,106,-19,-86,-124,-130,-192,-109,-91,-308
-78,-129,-46,100,-14,-86,-130,-118,-204,-97,-79,-296
-78,-123,-40,100,-14,-80,-130,-124,-204,-97,-85,-290
-78,-129,-46,100,-14,-86,-130,-124,-204,-103,-85,-296
-78,-129,-46,100,-14,-86,-130,-124,-204,-103,-85,-296
-78,-135,-52,106,-14,-92,-130,-124,-204,-109,-85,-302
-78,-135,-52,106,-14,-92,-130,-124,-204,-109,-85,-302
-84,-135,-46,106,-14,-92,-124,-124,-198,-103,-85,-290
-84,-135,-46,106,-14,-92,-124,-130,-204,-103,-85,-284
-84,-135,-46,106,-14,-92,-118,-130,-198,-97,-85,-284
-84,-135,-46,106,-14,-92,-118,-130,-198,-97,-85,-278
-90,-147,-52,118,-14,-98,-118,-130,-198,-103,-79,-278
-90,-153,-58,118,-14,-104,-118,-124,-198,-103,-79,-278
-96,-159,-58,124,-14,-110,-124,-118,-198,-103,-73,-278
-114,-171,-52,142,-25,-110,-124,-112,-198,-103,-73,-278
-96,-165,-64,130,-14,-116,-124,-118,-204,-103,-85,-272
-96,-147,-46,118,-19,-98,-124,-118,-204,-103,-85,-272
-90,-153,-58,118,-14,-104,-124,-124,-204,-103,-91,-266
-102,-159,-52,130,-19,-104,-124,-124,-204,-103,-91,-272
-96,-159,-58,124,-14,-110,-124,-124,-204,-103,-85,-272
-90,-153,-58,118,-14,-104,-130,-130,-204,-109,-85,-266
-84,-153,-64,118,-14,-110,-130,-130,-204,-109,-79,-266
-84,-153,-64,118,-14,-110,-130,-130,-210,-109,-79,-272
-78,-153,-70,112,-14,-110,-124,-130,-210,-109,-79,-272
-84,-153,-64,118,-14,-110,-118,-124,-204,-109,-79,-266
-96,-159,-58,124,-14,-110,-118,-124,-204,-109,-79,-266
-114,-159,-40,136,-31,-98,-118,-124,-204,-109,-79,-266
-96,-147,-46,118,-19,-98,-112,-118,-198,-103,-85,-266
-84,-135,-46,106,-14,-92,-106,-112,-198,-103,-79,-266
-78,-129,-46,100,-14,-86,-100,-106,-198,-97,-85,-260
-84,-129,-40,106,-19,-86,-100,-88,-192,-97,-85,-260
-78,-117,-34,94,-19,-74,-88,-88,-180,-85,-73,-242
-84,-123,-34,100,-19,-80,-82,-82,-180,-79,-67,-242
-90,-129,-34,106,-25,-80,-82,-82,-174,-73,-67,-236
-90,-129,-34,106,-25,-80,-82,-82,-174,-73,-61,-230
-90,-123,-28,106,-25,-74,-82,-88,-180,-79,-61,-230
-90,-129,-34,106,-25,-80,-82,-88,-180,-79,-67,-230
-90,-123,-28,106,-25,-74,-88,-88,-186,-85,-67,-230
-78,-99,-16,88,-25,-56,-88,-82,-174,-79,-61,-230
-66,-81,-10,70,-25,-44,-64,-76,-156,-67,-43,-218
-60,-63,2,58,-25,-32,-52,-64,-144,-55,-37,-200
-36,-39,2,34,-14,-20,-40,-58,-138,-49,-31,-194
-30,-21,13,22,-19,-2,-46,-70,-132,-43,-31,-188
-36,-27,13,28,-19,-8,-52,-76,-132,-43,-31,-188
-42,-39,8,40,-19,-14,-64,-82,-144,-43,-31,-188
-48,-45,8,46,-25,-20,-76,-100,-150,-43,-31,-194
-66,-51,13,58,-37,-14,-82,-112,-162,-55,-31,-194
-72,-39,25,52,-49,-2,-94,-130,-186,-73,-43,-188
-72,-27,37,46,-55,9,-106,-154,-198,-91,-49,-188
-84,-51,25,64,-55,-8,-136,-172,-228,-115,-67,-194
-84,-57,19,70,-55,-14,-154,-184,-234,-127,-73,-194
-60,-63,2,58,-25,-32,-160,-178,-234,-121,-67,-188
-54,-57,2,52,-25,-26,-172,-184,-234,-115,-61,-188
-42,-63,-16,52,-14,-38,-178,-184,-234,-109,-55,-176
-30,-63,-28,46,-8,-44,-190,-196,-240,-109,-55,-176
-18,-57,-34,34,-2,-44,-196,-196,-234,-109,-49,-170
-18,-51,-28,34,-2,-38,-190,-184,-234,-103,-43,-164
-13,-51,-34,28,4,-44,-184,-178,-222,-103,-37,-158
-24,-63,-34,40,-2,-50,-172,-172,-222,-103,-37,-164
-36,-75,-34,52,-8,-56,-160,-160,-222,-103,-55,-170
-48,-99,-46,70,-8,-74,-142,-160,-216,-103,-61,-176
-72,-123,-46,94,-14,-86,-124,-148,-216,-115,-73,-194
-78,-153,-70,112,-14,-110,-118,-136,-216,-121,-91,-200
-96,-171,-70,130,-14,-122,-112,-136,-222,-127,-91,-224
-102,-171,-64,136,-14,-116,-112,-136,-222,-127,-97,-230
-102,-177,-70,136,-14,-122,-112,-142,-234,-133,-103,-236
-108,-189,-76,148,-14,-134,-112,-142,-234,-139,-115,-248
-120,-207,-82,160,-14,-146,-112,-130,-234,-151,-133,-248
-102,-183,-76,142,-14,-128,-100,-112,-234,-139,-121,-236
-72,-159,-82,112,-2,-122,-88,-100,-222,-127,-109,-224
-84,-159,-70,118,-14,-116,-82,-100,-216,-121,-103,-212
-96,-165,-64,130,-14,-116,-76,-88,-198,-103,-97,-206
-102,-165,-58,130,-19,-110,-58,-82,-186,-91,-79,-200
-96,-159,-58,124,-14,-110,-40,-64,-174,-79,-73,-194
-96,-159,-58,124,-14,-110,-22,-40,-150,-55,-61,-188
-102,-183,-76,142,-14,-128,-10,-28,-126,-49,-67,-194
-90,-171,-76,130,-14,-122,1,-10,-108,-31,-61,-188
-54,-123,-64,88,-2,-92,31,25,-84,-19,-37,-158
-54,-123,-64,88,-2,-92,55,31,-66,-7,-31,-152
-72,-141,-64,106,-14,-104,61,49,-60,-1,-25,-146
-54,-129,-70,88,-2,-98,49,61,-54,4,-19,-140
-30,-129,-94,76,22,-110,37,61,-36,16,5,-128
-30,-141,-106,82,28,-122,37,61,-24,28,11,-134
-30,-159,-124,94,40,-140,25,67,-24,40,16,-128
-42,-165,-118,100,28,-140,19,67,-18,58,16,-122
-13,-147,-130,76,52,-140,19,73,5,64,28,-110
11,-135,-154,52,82,-140,-5,67,5,88,52,-74
47,-141,-196,40,118,-164,-58,49,0,112,82,-44
59,-165,-226,46,142,-194,-136,31,-6,124,94,-20
89,-201,-292,46,190,-242,-214,25,5,130,118,-8
173,-189,-364,4,262,-272,-298,25,5,154,160,22
257,-189,-454,-31,352,-314,-370,25,5,172,202,58
293,-231,-526,-25,412,-374,-436,25,11,196,226,76
347,-255,-610,-37,472,-434,-508,25,35,226,250,100
443,-255,-706,-85,568,-476,-598,25,59,262,292,129
521,-285,-814,-115,670,-548,-700,14,71,298,328,159
593,-291,-892,-145,736,-590,-778,25,95,322,352,183
653,-327,-982,-157,814,-656,-862,25,119,352,382,195
689,-387,-1078,-145,880,-728,-952,25,137,376,382,189
743,-399,-1150,-169,946,-770,-1018,25,173,418,412,213
815,-363,-1186,-223,994,-770,-1108,-16,197,478,472,255
881,-339,-1222,-265,1048,-776,-1228,-202,119,502,532,321
953,-333,-1288,-301,1120,-806,-1408,-466,-6,508,628,399
1049,-345,-1402,-349,1222,-872,-1594,-706,-138,520,718,471
1181,-375,-1558,-397,1366,-962,-1756,-910,-252,538,796,531
1289,-393,-1690,-445,1486,-1034,-1882,-1084,-336,580,880,603
1367,-363,-1732,-493,1546,-1046,-2014,-1270,-414,658,1030,711
1427,-285,-1714,-565,1570,-998,-2158,-1480,-468,766,1228,885
1457,-183,-1648,-637,1552,-914,-2230,-1648,-498,904,1444,1059
1445,-99,-1546,-667,1492,-818,-2212,-1678,-492,1018,1606,1203
1349,-39,-1396,-649,1372,-716,-2128,-1630,-444,1126,1720,1293
1229,20,-1204,-625,1216,-584,-1960,-1534,-384,1204,1792,1347
1121,110,-1006,-613,1066,-446,-1786,-1426,-342,1222,1798,1347
1001,122,-880,-559,946,-374,-1612,-1318,-348,1102,1666,1239
803,2,-802,-403,802,-398,-1372,-1180,-420,760,1294,951
503,-159,-670,-169,586,-410,-1096,-1006,-546,250,736,549
203,-291,-496,40,346,-392,-856,-868,-696,-235,190,153
11,-357,-376,166,196,-362,-622,-682,-726,-517,-181,-122
-30,-363,-328,196,142,-344,-412,-442,-564,-457,-295,-248
-60,-357,-292,208,112,-326,-268,-244,-384,-277,-217,-224
-96,-345,-244,220,70,-296,-208,-172,-330,-217,-163,-200
-90,-315,-226,202,58,-266,-166,-136,-324,-217,-163,-194
-78,-279,-202,178,52,-236,-130,-100,-282,-175,-145,-188
-78,-243,-166,160,34,-206,-94,-82,-234,-133,-121,-176
-60,-195,-130,124,28,-164,-70,-76,-198,-127,-115,-164
-66,-165,-94,112,4,-128,-40,-58,-174,-115,-127,-164
-120,-159,-34,136,-37,-98,-28,-46,-180,-127,-133,-164
-150,-153,2,148,-73,-74,-16,-22,-180,-127,-139,-164
-150,-141,13,142,-79,-62,-5,-4,-174,-133,-139,-176
-168,-159,13,160,-85,-74,1,14,-186,-151,-157,-182
-180,-183,2,178,-85,-92,1,14,-216,-169,-175,-200
-174,-177,2,172,-85,-86,7,14,-222,-169,-187,-206
-168,-189,-16,178,-73,-104,7,8,-222,-163,-187,-224
-180,-207,-22,190,-73,-116,13,-4,-216,-169,-193,-236
-180,-201,-16,190,-79,-110,13,-4,-204,-163,-199,-236
-186,-183,8,184,-91,-86,19,-4,-186,-157,-199,-224
-186,-165,13,172,-103,-68,25,-4,-174,-157,-205,-224
-198,-171,19,184,-109,-68,43,20,-174,-157,-199,-218
-198,-165,25,178,-115,-62,49,25,-174,-157,-199,-218
-198,-159,31,178,-115,-56,55,31,-174,-157,-187,-206
-198,-159,31,178,-115,-56,67,37,-180,-157,-187,-206
-192,-165,19,178,-109,-68,61,31,-192,-163,-193,-218
-198,-183,13,190,-103,-80,61,31,-192,-163,-199,-224
-192,-183,13,184,-97,-86,55,25,-192,-169,-199,-224
-186,-171,13,178,-97,-74,67,25,-180,-157,-199,-224
-186,-153,25,166,-109,-56,67,31,-162,-151,-193,-230
-186,-141,37,160,-115,-44,73,37,-150,-151,-193,-230
-186,-135,43,160,-115,-38,67,37,-144,-151,-199,-230
-186,-123,55,154,-121,-26,79,37,-144,-139,-199,-212
-180,-129,43,154,-115,-38,85,49,-150,-139,-193,-212
-192,-129,55,160,-127,-32,85,61,-150,-139,-193,-212
-204,-147,49,172,-127,-44,91,67,-156,-139,-187,-212
-204,-147,49,172,-127,-44,97,73,-162,-139,-187,-218
-198,-135,55,166,-127,-32,97,67,-156,-133,-181,-212
-192,-123,61,154,-127,-26,103,79,-138,-121,-181,-212
-180,-117,55,148,-121,-26,109,73,-126,-115,-181,-206
-174,-111,55,142,-115,-20,109,73,-114,-115,-181,-206
-180,-117,55,148,-121,-26,121,91,-114,-115,-175,-206
-186,-105,73,142,-133,-8,121,97,-114,-115,-175,-200
-210,-123,79,166,-145,-14,133,109,-120,-115,-187,-200
-222,-123,91,172,-157,-8,139,109,-120,-115,-187,-200
-216,-111,97,160,-157,-2,151,103,-120,-115,-181,-206
-204,-111,85,154,-145,-8,157,121,-108,-115,-181,-206
-198,-105,85,148,-145,-2,157,121,-102,-121,-181,-212
-198,-99,91,148,-145,4,157,121,-102,-115,-181,-218
-198,-87,103,142,-151,9,157,133,-90,-103,-175,-212
-198,-87,103,142,-151,9,163,133,-78,-97,-175,-212
-216,-87,121,148,-169,9,169,133,-60,-91,-169,-206
-204,-81,115,142,-163,9,181,151,-54,-91,-169,-206
-204,-75,121,136,-163,15,187,163,-54,-91,-163,-200
-204,-75,121,136,-163,15,199,181,-48,-85,-163,-200
-210,-69,133,136,-175,27,211,187,-42,-85,-163,-200
-210,-57,145,130,-181,39,211,205,-36,-73,-163,-200
-210,-57,145,130,-181,39,229,211,-24,-67,-163,-206
-210,-63,139,136,-175,33,235,223,-18,-67,-163,-212
-216,-57,151,136,-187,39,247,229,-18,-61,-169,-224
-228,-63,157,142,-193,39,259,241,0,-61,-169,-230
-234,-51,175,142,-205,57,271,265,11,-49,-157,-230
-234,-39,187,136,-211,69,283,271,23,-43,-157,-224
-246,-33,205,136,-229,81,295,289,35,-31,-151,-224
-246,-33,205,136,-229,81,307,307,47,-19,-151,-224
-240,-21,211,130,-229,87,331,331,53,-7,-145,-230
-240,-15,217,124,-229,93,349,349,77,-1,-145,-224
-240,2,235,118,-241,111,361,367,89,4,-139,-230
-240,2,235,118,-241,111,379,385,101,4,-133,-230
-240,2,247,112,-241,123,403,403,125,10,-139,-230
-252,2,253,118,-253,129,421,427,149,22,-139,-230
-252,14,271,112,-259,147,451,445,179,40,-139,-230
-252,20,277,112,-265,153,469,469,197,46,-133,-230
-252,38,289,100,-265,165,481,499,209,64,-121,-224
-252,50,301,94,-271,177,505,517,227,82,-115,-218
-258,50,313,100,-283,183,523,547,245,100,-103,-212
-264,56,325,100,-295,195,541,577,263,112,-103,-206
-264,56,325,100,-295,195,559,601,293,124,-97,-206
-258,62,325,94,-289,195,595,625,317,148,-91,-200
-258,80,343,82,-301,213,625,655,341,154,-85,-200
-264,80,349,88,-307,219,637,673,365,166,-79,-200
-258,92,355,76,-307,225,649,697,383,190,-73,-200
-252,104,361,70,-307,237,667,721,407,208,-67,-188
-252,122,379,58,-313,249,673,739,425,226,-67,-182
-252,128,379,52,-313,249,685,757,449,244,-55,-182
-252,134,385,52,-313,255,697,787,461,256,-43,-176
-252,140,391,46,-319,261,715,799,485,262,-43,-164
-252,140,391,46,-319,261,727,823,497,274,-31,-152
-246,152,397,40,-319,273,751,847,521,292,-13,-134
-252,152,403,40,-325,273,745,847,533,304,-13,-140
-252,164,415,34,-331,285,751,859,551,310,-13,-140
-252,170,421,34,-331,291,757,859,551,316,-19,-134
-240,176,415,22,-325,291,757,865,563,328,-7,-140
-240,182,421,22,-325,297,751,877,569,346,-1,-128
-234,182,415,16,-319,297,745,883,575,358,16,-116
-234,182,415,16,-319,297,745,889,581,370,16,-110
-222,188,409,10,-313,297,739,895,587,382,28,-98
-216,182,397,10,-301,285,733,883,587,382,22,-92
-216,176,391,10,-301,279,721,865,587,376,28,-80
-204,170,373,10,-283,267,703,841,569,376,34,-80
-192,170,361,4,-271,261,685,817,563,382,40,-68
-192,164,355,4,-271,255,661,787,539,376,40,-62
-192,146,337,16,-259,243,631,763,527,370,46,-50
-186,146,331,10,-253,243,589,733,503,364,52,-56
-180,146,325,10,-253,237,547,715,491,346,52,-56
-156,152,307,4,-235,231,511,685,467,346,58,-44
-150,146,295,4,-223,225,481,643,443,334,70,-38
-144,146,289,4,-217,219,463,607,413,328,76,-32
-126,140,265,-1,-199,207,433,571,383,322,76,-32
-126,116,247,4,-187,183,409,535,353,304,70,-32
-120,116,241,4,-181,177,379,499,323,274,70,-32
-126,86,217,10,-169,153,361,457,287,256,52,-32
-126,80,211,16,-169,147,319,421,251,244,52,-26
-108,74,187,10,-145,129,295,391,227,226,58,-26
-102,68,175,10,-139,123,259,355,197,196,52,-26
-90,50,145,10,-115,99,229,325,155,178,52,-26
-78,50,133,4,-103,93,193,289,119,154,52,-26
-78,44,127,10,-103,87,169,259,101,136,34,-32
-78,32,115,16,-97,75,163,235,71,118,28,-38
-78,2,79,34,-79,39,145,193,47,94,16,-50
-78,2,73,34,-79,33,127,175,23,76,11,-56
-84,-21,55,52,-73,9,121,163,5,52,16,-56
-90,-27,55,58,-73,9,103,151,0,34,5,-56
-96,-45,43,70,-73,4,91,133,-18,10,5,-62
-108,-57,43,82,-79,-2,67,97,-42,4,-7,-74
-102,-63,31,82,-67,-8,55,79,-66,4,-13,-74
-96,-57,31,76,-67,-8,43,61,-78,-19,-19,-80
-90,-51,31,70,-61,-2,31,55,-78,-19,-25,-74
-84,-57,19,70,-55,-14,25,49,-90,-25,-25,-74
-84,-63,13,70,-49,-20,25,43,-96,-37,-37,-74
-78,-69,13,70,-43,-26,13,25,-108,-49,-43,-86
-78,-75,8,76,-37,-32,19,25,-114,-49,-55,-80
-78,-75,8,76,-37,-32,19,25,-120,-55,-61,-80
-84,-93,-4,88,-37,-50,13,25,-132,-61,-61,-80
-90,-105,-10,94,-37,-56,7,20,-132,-73,-67,-86
-102,-117,-10,106,-43,-62,-5,14,-132,-79,-67,-86
-108,-129,-16,118,-43,-74,-5,8,-144,-85,-67,-86
-108,-123,-10,112,-43,-68,-5,8,-150,-85,-73,-86
-108,-117,-4,112,-49,-62,-5,2,-150,-85,-73,-86
-96,-117,-16,106,-37,-68,-5,-4,-156,-79,-73,-86
-96,-111,-10,100,-37,-62,-5,-4,-156,-79,-73,-86
-102,-123,-16,112,-37,-68,-5,2,-156,-85,-73,-86
-102,-135,-28,118,-31,-80,-10,2,-162,-91,-73,-86
-108,-141,-28,124,-37,-86,-5,8,-162,-103,-79,-86
-108,-153,-40,130,-31,-98,-5,8,-162,-109,-79,-92
-102,-147,-40,124,-25,-92,-5,2,-162,-103,-79,-92
-96,-123,-22,106,-31,-74,-5,2,-162,-103,-79,-86
-90,-129,-34,106,-25,-80,-5,-10,-162,-97,-79,-86
-84,-135,-46,106,-14,-92,-5,-10,-174,-97,-79,-86
-78,-129,-46,100,-14,-86,-5,-4,-168,-103,-79,-86
-96,-129,-28,112,-31,-80,-5,-16,-168,-103,-79,-86
-78,-129,-46,100,-14,-86,-5,-10,-162,-103,-79,-80
-78,-141,-58,106,-14,-98,-5,-10,-162,-103,-79,-80
-102,-147,-40,124,-25,-92,-10,-16,-156,-109,-79,-80
-96,-147,-46,118,-19,-98,-10,2,-156,-109,-79,-80
-108,-153,-40,130,-31,-98,-10,-4,-156,-115,-79,-80
-114,-159,-40,136,-31,-98,-10,-10,-156,-115,-79,-80
-120,-153,-28,136,-43,-92,-10,-10,-156,-103,-85,-80
-114,-165,-46,136,-31,-104,-10,-10,-156,-91,-79,-80
-120,-171,-46,142,-31,-110,-10,2,-156,-97,-85,-74
-120,-171,-46,142,-31,-110,-10,2,-156,-97,-85,-74
-120,-165,-40,142,-37,-104,-5,14,-150,-97,-79,-68
-120,-165,-40,142,-37,-104,-5,14,-150,-97,-79,-68
-120,-159,-34,136,-37,-98,-5,25,-144,-91,-73,-62
-120,-153,-28,136,-43,-92,-5,25,-138,-91,-73,-62
-108,-153,-40,130,-31,-98,-5,20,-144,-97,-79,-56
-108,-153,-40,130,-31,-98,-5,20,-144,-91,-79,-56
-102,-147,-40,124,-25,-92,-5,20,-144,-97,-79,-50
-108,-147,-34,124,-31,-92,1,25,-144,-97,-79,-50
-102,-141,-34,118,-31,-86,7,25,-138,-85,-67,-50
-96,-135,-34,112,-25,-86,7,25,-132,-73,-67,-50
-90,-129,-34,106,-25,-80,13,25,-120,-61,-61,-38
-84,-123,-34,100,-19,-80,13,25,-114,-55,-61,-38
-90,-123,-28,106,-25,-74,7,25,-114,-55,-61,-38
-90,-117,-22,100,-31,-68,7,25,-114,-61,-55,-38
-96,-123,-22,106,-31,-74,1,25,-114,-67,-55,-32
-102,-135,-28,118,-31,-80,1,25,-120,-73,-55,-32
-102,-141,-34,118,-31,-86,-5,25,-126,-79,-61,-32
-102,-153,-46,124,-25,-98,-5,25,-120,-79,-61,-32
-102,-159,-52,130,-19,-104,-5,25,-126,-85,-61,-26
-102,-141,-34,118,-31,-86,-5,25,-120,-85,-61,-20
-102,-135,-28,118,-31,-80,-5,25,-120,-79,-61,-20
-102,-135,-28,118,-31,-80,-5,25,-126,-79,-61,-14
-102,-129,-22,112,-37,-74,-5,25,-126,-73,-61,-20
-102,-129,-22,112,-37,-74,-5,25,-126,-73,-61,-20
-102,-123,-16,112,-37,-68,-5,25,-120,-79,-61,-14
-102,-123,-16,112,-37,-68,-5,25,-120,-79,-61,-20
-96,-123,-22,106,-31,-74,-5,25,-126,-85,-55,-14
-96,-123,-22,106,-31,-74,-5,25,-126,-85,-55,-8
-96,-117,-16,106,-37,-68,-5,20,-126,-85,-49,-8
-96,-117,-16,106,-37,-68,-5,20,-126,-85,-49,-2
-90,-123,-28,106,-25,-74,-5,14,-126,-85,-43,4
-90,-123,-28,106,-25,-74,-5,14,-126,-85,-43,4
-90,-117,-22,100,-31,-68,1,14,-120,-79,-43,10
-90,-117,-22,100,-31,-68,1,14,-126,-79,-43,10
-90,-111,-16,100,-31,-62,1,20,-120,-73,-43,4
-90,-111,-16,100,-31,-62,1,20,-120,-79,-43,4
-96,-117,-16,106,-37,-68,1,14,-126,-85,-43,4
-96,-123,-22,106,-31,-74,1,14,-132,-91,-49,4
-102,-129,-22,112,-37,-74,-5,8,-132,-97,-49,10
-108,-135,-22,118,-37,-80,-5,8,-132,-103,-49,10
-108,-135,-22,118,-37,-80,-5,8,-132,-103,-55,22
-108,-147,-34,124,-31,-92,-5,2,-132,-109,-55,22
-102,-147,-40,124,-25,-92,-5,2,-138,-109,-61,22
-96,-147,-46,118,-19,-98,-5,2,-138,-109,-61,10
-102,-141,-34,118,-31,-86,1,2,-138,-103,-61,16
-102,-141,-34,118,-31,-86,1,2,-138,-109,-61,16
-114,-135,-16,124,-43,-74,1,8,-138,-103,-67,22
-114,-129,-10,118,-49,-68,1,8,-138,-103,-67,22
-114,-129,-10,118,-49,-68,-5,-4,-138,-109,-67,22
-108,-129,-16,118,-43,-74,-5,-10,-138,-109,-67,22
-102,-135,-28,118,-31,-80,-5,-4,-144,-115,-73,28
-96,-135,-34,112,-25,-86,-5,-10,-144,-115,-73,34
-96,-129,-28,112,-31,-80,-5,-16,-150,-121,-79,40
-96,-129,-28,112,-31,-80,-5,-16,-150,-121,-79,34
-96,-123,-22,106,-31,-74,1,-16,-150,-121,-85,22
-96,-117,-16,106,-37,-68,1,-22,-150,-127,-85,16
-102,-123,-16,112,-37,-68,-5,-16,-150,-127,-79,28
-108,-129,-16,118,-43,-74,-5,-16,-150,-127,-85,28
-114,-135,-16,124,-43,-74,1,-10,-156,-127,-79,28
-120,-141,-16,130,-49,-80,1,-10,-156,-127,-79,22
-114,-135,-16,124,-43,-74,1,-10,-156,-127,-79,28
-114,-141,-22,124,-43,-80,1,-16,-156,-133,-79,34
-108,-135,-22,118,-37,-80,1,-16,-150,-133,-67,46
-102,-135,-28,118,-31,-80,-5,-16,-150,-133,-67,46
-96,-123,-22,106,-31,-74,1,-16,-156,-133,-67,46
-96,-123,-22,106,-31,-74,1,-22,-162,-133,-73,46
-96,-129,-28,112,-31,-80,7,-34,-168,-133,-85,40
-90,-129,-34,106,-25,-80,13,-34,-168,-133,-85,40
-96,-129,-28,112,-31,-80,13,-28,-168,-139,-85,40
-102,-129,-22,112,-37,-74,19,-28,-168,-139,-85,40
-108,-135,-22,118,-37,-80,13,-28,-174,-151,-85,40
-114,-135,-16,124,-43,-74,13,-22,-174,-151,-79,46
-96,-135,-34,112,-25,-86,13,-10,-162,-139,-67,58
-102,-147,-40,124,-25,-92,13,-16,-168,-145,-85,52
-102,-141,-34,118,-31,-86,7,-22,-168,-151,-91,52
-102,-141,-34,118,-31,-86,7,-22,-168,-151,-91,52
-102,-135,-28,118,-31,-80,1,-28,-168,-157,-97,52
-102,-135,-28,118,-31,-80,1,-28,-168,-157,-97,52
-108,-135,-22,118,-37,-80,1,-34,-168,-157,-97,58
-108,-135,-22,118,-37,-80,1,-40,-174,-157,-97,58
-108,-135,-22,118,-37,-80,1,-46,-174,-157,-97,52
-108,-135,-22,118,-37,-80,1,-46,-174,-157,-97,52
-114,-141,-22,124,-43,-80,1,-52,-180,-163,-97,52
-108,-141,-28,124,-37,-86,1,-52,-180,-163,-97,52
-114,-141,-22,124,-43,-80,-5,-52,-186,-163,-97,52
-126,-147,-16,136,-49,-80,-5,-52,-186,-163,-97,52
-114,-147,-28,130,-37,-86,1,-52,-186,-169,-103,58
-114,-129,-10,118,-49,-68,1,-52,-186,-169,-103,64
-114,-141,-22,124,-43,-80,7,-52,-180,-175,-103,70
-126,-147,-16,136,-49,-80,7,-52,-180,-175,-103,70
-120,-141,-16,130,-49,-80,7,-46,-174,-169,-97,64
-114,-135,-16,124,-43,-74,1,-52,-174,-175,-97,70
-108,-129,-16,118,-43,-74,1,-46,-168,-169,-91,64
-108,-129,-16,118,-43,-74,1,-46,-174,-169,-91,58
-96,-123,-22,106,-31,-74,7,-52,-174,-169,-91,64
-96,-123,-22,106,-31,-74,13,-46,-168,-169,-91,70
-102,-123,-16,112,-37,-68,13,-52,-168,-169,-91,76
-114,-123,-4,118,-49,-62,13,-52,-168,-169,-91,76
-96,-117,-16,106,-37,-68,13,-46,-162,-163,-91,76
-90,-105,-10,94,-37,-56,19,-40,-162,-163,-85,76
-84,-105,-16,94,-31,-62,19,-34,-162,-157,-85,82
-96,-105,-4,100,-43,-56,19,-16,-156,-157,-85,82
-90,-81,13,82,-49,-32,31,-16,-144,-151,-79,94
-96,-81,13,88,-55,-32,37,-10,-144,-145,-73,94
-102,-75,19,88,-61,-20,37,-10,-138,-145,-79,94
-102,-69,25,82,-67,-14,37,-10,-138,-145,-73,100
-90,-69,13,76,-55,-20,49,-10,-132,-139,-73,100
-84,-75,13,76,-43,-32,49,-10,-132,-139,-79,100
-72,-75,2,70,-31,-38,55,-4,-126,-133,-79,100
-54,-51,8,52,-25,-20,55,2,-114,-127,-73,100
-60,-45,13,52,-37,-14,61,-4,-108,-127,-61,106
-66,-39,19,52,-43,-2,61,8,-102,-121,-55,118
-60,-27,25,40,-43,4,55,2,-108,-127,-55,118
-66,-21,37,40,-55,9,37,-10,-108,-127,-55,118
-72,-21,43,46,-61,9,37,-16,-114,-133,-55,124
-72,-27,37,46,-55,9,25,-28,-126,-133,-55,124
-78,-27,43,52,-61,9,19,-46,-138,-139,-55,124
-90,-27,55,58,-73,9,13,-64,-150,-151,-55,124
-84,-15,61,46,-73,15,1,-82,-168,-163,-67,124
-84,-3,73,40,-79,27,-5,-106,-180,-175,-67,124
-84,-27,49,52,-67,9,-28,-124,-204,-193,-85,112
-84,-33,43,58,-67,9,-46,-136,-210,-199,-85,112
-60,-33,19,46,-43,-2,-46,-130,-204,-193,-79,118
-54,-27,19,40,-37,4,-52,-136,-204,-187,-67,124
-42,-27,13,34,-25,-2,-52,-136,-204,-181,-61,129
-30,-27,8,28,-14,-8,-58,-148,-210,-181,-55,129
-30,-27,8,28,-14,-8,-52,-136,-204,-175,-55,129
-30,-27,8,28,-14,-8,-40,-118,-198,-163,-49,135
-36,-33,8,34,-19,-14,-22,-100,-180,-157,-49,135
-48,-51,2,46,-19,-26,-5,-88,-174,-151,-49,129
-60,-63,2,58,-25,-32,-5,-82,-174,-157,-67,129
-78,-93,-10,82,-31,-50,1,-82,-168,-157,-73,124
-102,-117,-10,106,-43,-62,7,-76,-168,-175,-85,100
-114,-153,-34,130,-37,-92,13,-64,-168,-181,-103,94
-120,-159,-34,136,-37,-98,19,-70,-174,-193,-103,76
-120,-153,-28,136,-43,-92,19,-70,-180,-193,-109,70
-108,-147,-34,124,-31,-92,19,-82,-192,-205,-115,70
-108,-153,-40,130,-31,-98,19,-82,-204,-211,-127,58
-132,-183,-46,154,-37,-116,19,-82,-204,-211,-133,58
-102,-159,-52,130,-19,-104,19,-76,-186,-211,-133,70
-72,-123,-46,94,-14,-86,31,-64,-174,-199,-121,82
-72,-123,-46,94,-14,-86,49,-52,-156,-181,-115,82
-96,-141,-40,118,-25,-92,67,-28,-150,-163,-109,76
-90,-117,-22,100,-31,-68,85,-10,-126,-151,-103,82
-72,-99,-22,82,-19,-62,115,20,-102,-127,-85,100
-72,-99,-22,82,-19,-62,133,31,-78,-115,-73,106
-78,-99,-16,88,-25,-56,145,43,-66,-109,-67,100
-78,-111,-28,94,-19,-68,145,49,-60,-103,-61,106
-66,-111,-40,88,-14,-74,163,61,-48,-91,-61,112
-54,-99,-40,76,-14,-68,175,79,-30,-79,-43,118
-48,-93,-40,70,-14,-68,193,97,-12,-73,-37,124
-42,-117,-70,76,4,-92,181,109,5,-49,-31,129
-42,-129,-82,82,10,-104,181,109,5,-43,-19,129
-42,-129,-82,82,10,-104,181,121,11,-19,-13,135
-18,-99,-76,58,22,-86,181,139,35,4,16,153
-7,-81,-82,34,34,-80,163,139,41,10,22,171
-1,-87,-94,34,46,-86,127,133,41,16,40,177
23,-87,-118,22,70,-98,67,115,35,28,64,201
59,-105,-172,16,112,-134,-5,97,35,40,82,219
107,-129,-238,4,172,-182,-64,79,41,52,94,231
173,-141,-316,-7,238,-230,-130,79,41,82,118,255
251,-153,-412,-43,328,-278,-208,73,65,106,172,297
293,-189,-484,-49,388,-332,-250,85,83,148,214,321
305,-237,-550,-25,430,-392,-304,97,107,184,238,339
371,-255,-634,-49,496,-446,-382,109,143,226,280,369
473,-255,-736,-103,604,-494,-472,145,191,274,340,411
533,-285,-826,-121,682,-554,-544,169,227,310,364,441
605,-315,-928,-139,760,-620,-616,211,257,334,388,441
701,-327,-1030,-181,862,-680,-688,253,305,376,406,453
755,-339,-1102,-205,928,-722,-748,271,371,436,418,471
803,-339,-1150,-229,970,-740,-832,235,407,496,460,495
851,-327,-1186,-253,1012,-752,-958,79,347,544,526,549
929,-303,-1234,-307,1078,-764,-1138,-178,227,562,628,633
1007,-309,-1324,-343,1168,-812,-1324,-448,89,568,736,741
1109,-345,-1456,-379,1282,-902,-1486,-658,-6,604,820,813
1223,-375,-1606,-421,1414,-986,-1630,-826,-78,658,928,867
1325,-357,-1690,-481,1504,-1016,-1750,-1012,-150,754,1090,999
1403,-255,-1666,-565,1528,-962,-1912,-1258,-234,880,1300,1179
1451,-147,-1600,-649,1522,-872,-2014,-1444,-276,1000,1504,1347
1427,-39,-1468,-691,1450,-752,-1996,-1504,-276,1126,1666,1479
1373,32,-1336,-703,1354,-644,-1900,-1468,-234,1240,1792,1581
1217,44,-1174,-631,1198,-554,-1762,-1408,-198,1324,1858,1617
1043,80,-958,-559,1000,-434,-1600,-1312,-174,1330,1864,1617
965,134,-832,-547,904,-344,-1414,-1192,-156,1240,1774,1539
803,62,-736,-433,772,-332,-1192,-1036,-198,952,1456,1311
521,-111,-640,-205,580,-374,-940,-898,-348,412,910,891
269,-219,-490,-19,382,-350,-700,-760,-546,-163,334,489
95,-267,-370,82,226,-314,-472,-610,-636,-517,-97,177
-13,-309,-292,160,136,-302,-280,-400,-522,-541,-283,4
-42,-279,-232,160,88,-254,-130,-226,-354,-373,-247,-26
-48,-249,-202,148,70,-230,-46,-142,-288,-277,-193,10
-72,-237,-166,154,40,-206,-16,-112,-270,-271,-199,10
-66,-201,-130,130,22,-164,1,-76,-234,-229,-175,28
-66,-165,-94,112,4,-128,25,-40,-180,-175,-133,70
-78,-153,-70,112,-14,-110,49,-10,-144,-169,-109,82
-96,-135,-34,112,-25,-86,61,8,-114,-151,-103,82
-114,-117,2,112,-55,-56,67,14,-102,-151,-103,82
-120,-99,13,106,-67,-38,79,14,-120,-175,-121,58
-114,-105,13,106,-61,-44,91,14,-144,-199,-151,46
-114,-105,13,106,-61,-44,115,25,-150,-205,-163,34
-132,-99,25,112,-79,-32,121,25,-150,-211,-169,28
-144,-123,13,130,-79,-50,133,25,-156,-217,-187,10
-138,-129,13,130,-73,-56,139,25,-162,-229,-199,4
-144,-117,19,130,-85,-44,163,31,-150,-223,-199,10
-150,-129,13,136,-85,-50,163,25,-150,-223,-199,-2
-150,-117,25,130,-91,-38,163,31,-144,-217,-199,-2
-150,-93,49,118,-103,-14,163,37,-132,-205,-193,10
-150,-69,73,106,-115,9,169,43,-126,-205,-193,10
-156,-87,61,118,-109,-8,175,49,-132,-211,-199,4
-156,-87,61,118,-109,-8,181,49,-132,-211,-199,4
-150,-93,49,118,-103,-14,175,49,-138,-217,-199,4
-150,-99,43,124,-97,-20,187,49,-144,-217,-199,4
-156,-99,49,124,-103,-20,187,55,-150,-217,-199,-8
-162,-111,43,136,-103,-26,187,55,-150,-217,-205,-14
-168,-105,55,136,-115,-20,187,61,-144,-217,-199,-14
-162,-87,67,124,-115,-2,199,61,-132,-205,-199,-14
-162,-81,73,118,-121,4,199,67,-114,-199,-193,-20
-162,-69,85,112,-127,9,205,73,-102,-199,-193,-20
-162,-75,79,118,-121,9,199,73,-96,-199,-199,-20
-162,-63,91,112,-127,9,211,73,-96,-187,-199,-2
-150,-57,85,100,-121,9,217,79,-96,-187,-199,-8
-162,-57,97,106,-133,15,217,85,-96,-187,-199,-8
-168,-63,97,112,-133,9,223,85,-96,-187,-199,-14
-168,-63,97,112,-133,9,229,85,-102,-187,-199,-20
-162,-51,103,106,-133,21,229,91,-96,-181,-187,-32
-162,-39,115,100,-139,33,235,103,-78,-169,-187,-44
-150,-33,109,88,-133,33,235,109,-66,-163,-181,-56
-150,-27,115,88,-133,39,235,109,-54,-163,-181,-68
-150,-33,109,88,-133,33,235,115,-54,-163,-169,-92
-156,-27,121,88,-139,39,235,115,-60,-169,-169,-104
-174,-45,121,106,-151,33,235,115,-66,-169,-175,-122
-186,-51,127,118,-157,33,241,109,-72,-175,-175,-140
-180,-39,133,106,-157,39,259,115,-66,-169,-163,-146
-168,-33,127,100,-151,39,265,133,-54,-169,-163,-152
-162,-27,127,94,-145,45,271,145,-42,-169,-157,-158
-162,-15,139,88,-151,57,271,145,-42,-163,-157,-170
-156,-3,145,76,-151,63,277,163,-36,-151,-151,-164
-156,-3,145,76,-151,63,283,163,-24,-145,-151,-158
-168,-3,157,82,-163,69,295,169,-12,-139,-145,-152
-156,2,151,76,-157,69,307,187,-6,-139,-145,-146
-162,2,163,76,-163,81,307,187,-6,-139,-145,-152
-162,2,163,76,-163,81,319,205,0,-133,-145,-158
-174,2,181,76,-175,93,325,199,5,-133,-151,-170
-174,14,193,70,-181,105,325,217,5,-121,-151,-176
-180,14,199,76,-187,105,343,229,23,-115,-139,-170
-180,14,199,76,-187,105,355,241,29,-109,-139,-170
-192,20,217,76,-205,117,367,253,41,-103,-133,-170
-204,20,229,82,-217,123,379,265,59,-97,-133,-170
-198,38,241,70,-217,141,397,283,77,-85,-127,-176
-198,50,253,64,-223,153,409,295,89,-79,-127,-170
-198,62,259,58,-229,165,427,313,95,-67,-127,-176
-198,62,259,58,-229,165,439,331,107,-55,-127,-176
-204,68,271,58,-241,171,457,349,119,-43,-121,-176
-204,74,277,58,-241,177,475,367,143,-31,-121,-170
-216,86,301,58,-253,195,481,379,161,-25,-115,-170
-216,86,301,58,-253,195,493,397,173,-13,-109,-170
-210,92,301,52,-253,201,511,421,191,-7,-109,-164
-222,86,307,58,-259,201,529,445,215,4,-109,-164
-222,92,313,58,-265,207,553,469,239,4,-103,-158
-222,92,313,58,-265,207,571,493,251,10,-97,-158
-216,116,331,40,-271,225,589,517,269,28,-91,-164
-216,128,343,34,-277,237,613,541,287,46,-85,-158
-228,134,361,40,-289,249,631,571,311,64,-79,-164
-234,140,373,40,-301,255,649,601,335,76,-79,-158
-228,152,379,28,-301,261,661,619,359,88,-67,-164
-222,158,379,22,-295,267,691,637,377,112,-61,-158
-216,188,403,4,-307,291,715,661,395,118,-49,-164
-222,188,409,10,-313,297,721,673,413,130,-43,-164
-222,188,409,10,-313,297,739,709,431,154,-37,-158
-222,200,421,4,-319,309,757,733,455,172,-31,-146
-228,206,433,4,-325,315,775,757,473,190,-31,-134
-228,212,439,4,-331,321,787,781,491,208,-19,-134
-222,224,445,4,-331,333,793,799,509,226,-7,-134
-216,230,445,-1,-325,333,805,811,533,232,-7,-128
-210,236,445,-7,-325,339,817,823,557,244,5,-122
-198,242,445,-19,-319,345,835,847,581,256,16,-110
-204,242,445,-13,-319,339,829,847,587,268,16,-110
-204,248,457,-19,-325,351,829,859,599,274,16,-110
-204,248,457,-19,-325,351,835,859,593,280,16,-98
-192,254,451,-25,-319,351,829,865,599,292,28,-98
-186,254,445,-31,-313,351,823,871,605,304,34,-86
-180,254,439,-31,-307,345,817,871,611,310,46,-80
-174,248,427,-31,-295,339,817,871,617,316,58,-68
-162,254,421,-43,-289,339,811,871,623,322,64,-62
-156,260,421,-49,-283,339,793,859,623,328,70,-62
-150,260,415,-49,-277,339,769,841,617,322,76,-50
-138,266,409,-61,-271,339,739,817,599,328,94,-56
-120,272,397,-73,-253,333,721,793,587,334,100,-44
-120,260,385,-67,-253,321,703,763,563,328,94,-32
-114,242,355,-55,-235,297,679,745,545,322,100,-20
-108,236,343,-55,-229,285,643,709,521,316,100,-20
-96,230,325,-61,-211,273,607,691,503,298,100,-20
-72,230,301,-73,-187,261,565,661,485,298,100,-14
-66,224,289,-73,-181,255,529,619,467,280,112,-8
-60,218,277,-73,-169,249,505,583,443,274,112,-8
-42,212,253,-79,-151,237,481,547,419,262,112,-8
-42,200,247,-73,-145,225,445,505,377,244,106,-8
-30,200,235,-79,-133,219,415,463,341,220,106,-8
-36,182,223,-67,-127,201,385,409,293,202,88,-8
-30,176,211,-67,-121,195,343,373,251,184,88,-2
-24,158,187,-61,-103,171,325,343,233,166,82,-8
-24,146,175,-55,-97,159,295,313,215,136,76,-8
-24,116,145,-37,-85,129,265,283,179,118,64,-14
-18,110,133,-37,-73,123,235,259,155,94,64,-14
-18,110,133,-37,-73,123,217,229,137,76,58,-14
-18,98,121,-31,-67,111,211,211,107,58,52,-20
-18,68,91,-19,-55,81,193,175,83,34,46,-26
-18,62,85,-13,-49,75,175,163,59,16,34,-32
-13,50,67,-13,-37,57,169,151,47,4,28,-32
-13,50,67,-13,-37,57,151,139,29,-1,16,-32
-13,44,55,-13,-31,51,139,121,17,-13,16,-38
-13,38,55,-7,-31,45,115,85,5,-25,5,-50
-18,20,43,4,-31,33,115,79,-18,-31,5,-56
-18,20,43,4,-31,33,109,67,-24,-55,-1,-62
-24,14,43,4,-31,27,109,73,-24,-55,-1,-62
-24,2,31,4,-25,15,109,73,-30,-61,-1,-62
-24,2,31,4,-25,15,103,61,-42,-73,-13,-68
-18,2,19,4,-19,9,91,43,-54,-85,-19,-80
-18,2,19,4,-19,9,91,37,-66,-85,-31,-80
-18,2,19,4,-19,9,91,31,-72,-91,-37,-80
-24,-3,13,10,-19,9,85,31,-78,-91,-37,-86
-24,-9,13,16,-19,4,79,25,-78,-103,-43,-92
-36,-15,13,22,-25,4,67,25,-72,-103,-43,-98
-36,-21,13,28,-25,-2,67,25,-84,-109,-43,-98
-36,-21,13,28,-25,-2,61,25,-90,-115,-49,-98
-36,-21,13,28,-25,-2,61,20,-90,-115,-49,-98
-24,-27,2,22,-14,-14,55,8,-96,-115,-49,-98
-24,-27,2,22,-14,-14,55,8,-96,-115,-49,-98
-30,-33,2,28,-14,-14,55,8,-96,-115,-49,-104
-36,-39,2,34,-14,-20,49,8,-102,-115,-49,-104
-42,-39,8,40,-19,-14,55,8,-102,-121,-55,-110
-48,-45,8,46,-25,-20,61,8,-102,-121,-55,-110
-36,-39,2,34,-14,-20,67,8,-102,-115,-55,-110
-24,-21,8,22,-14,-8,61,8,-102,-115,-55,-110
-13,-27,-10,16,-8,-20,67,2,-102,-109,-55,-110
-13,-39,-34,16,10,-32,67,2,-114,-109,-55,-110
-13,-39,-28,22,4,-32,61,2,-114,-121,-61,-110
-30,-39,-4,34,-14,-20,61,-10,-114,-121,-61,-110
-24,-45,-16,34,-14,-32,55,-10,-114,-127,-67,-110
-30,-57,-22,40,-14,-38,55,-10,-114,-127,-67,-110
-48,-57,-4,52,-19,-32,55,-10,-108,-121,-61,-110
-36,-51,-10,40,-14,-32,55,8,-108,-121,-61,-110
-42,-51,-4,46,-14,-26,61,8,-108,-115,-55,-104
-42,-51,-4,46,-14,-26,61,2,-108,-115,-55,-104
-42,-39,8,40,-19,-14,61,-4,-108,-109,-61,-110
-36,-51,-10,40,-14,-32,61,-4,-108,-97,-55,-110
-36,-51,-10,40,-14,-32,61,2,-108,-109,-61,-110
-36,-51,-10,40,-14,-32,61,2,-108,-109,-61,-110
-42,-57,-10,46,-14,-32,61,2,-108,-109,-61,-110
-42,-57,-10,46,-14,-32,61,2,-108,-109,-61,-110
-48,-63,-10,52,-14,-38,61,2,-108,-103,-61,-110
-48,-57,-4,52,-19,-32,61,2,-102,-103,-61,-110
-36,-51,-10,40,-14,-32,61,2,-96,-97,-55,-104
-36,-51,-10,40,-14,-32,61,2,-96,-91,-55,-104
-30,-39,-4,34,-14,-20,67,8,-84,-85,-43,-98
-36,-39,2,34,-14,-20,73,14,-84,-85,-43,-98
-30,-33,2,28,-14,-14,67,14,-84,-91,-43,-104
-30,-33,2,28,-14,-14,67,8,-84,-85,-43,-104
-24,-27,2,22,-14,-14,61,8,-78,-91,-49,-98
-24,-27,2,22,-14,-14,61,2,-78,-91,-49,-98
-30,-27,8,28,-14,-8,67,8,-78,-85,-49,-92
-24,-15,13,16,-14,-2,67,8,-78,-85,-43,-92
-30,-21,13,22,-19,-2,73,14,-78,-85,-43,-80
-30,-27,8,28,-14,-8,73,14,-84,-85,-43,-80
-30,-27,8,28,-14,-8,73,14,-90,-85,-43,-86
-30,-39,-4,34,-14,-20,73,14,-84,-85,-43,-86
-30,-39,-4,34,-14,-20,73,14,-90,-85,-37,-86
-30,-21,13,22,-19,-2,67,14,-84,-85,-37,-80
-30,-21,13,22,-19,-2,67,8,-84,-85,-37,-80
-30,-21,13,22,-19,-2,73,8,-90,-85,-37,-74
-30,-21,13,22,-19,-2,73,2,-90,-85,-37,-80
-30,-21,13,22,-19,-2,73,2,-90,-85,-37,-80
-36,-21,13,28,-25,-2,73,2,-84,-85,-37,-86
-36,-21,13,28,-25,-2,73,2,-84,-85,-37,-104
-36,-27,13,28,-19,-8,73,2,-90,-85,-31,-110
-36,-27,13,28,-19,-8,73,2,-90,-85,-31,-110
-36,-15,13,22,-25,4,73,2,-84,-79,-31,-116
-30,-9,13,16,-25,9,73,2,-84,-79,-31,-110
-24,-9,13,16,-19,4,67,2,-78,-73,-31,-110
-18,-3,13,10,-14,9,67,2,-78,-73,-31,-110
-24,-9,13,16,-19,4,67,-10,-84,-79,-31,-116
-30,-15,13,22,-19,4,61,-10,-90,-79,-31,-116
-36,-21,13,28,-25,-2,55,-16,-96,-85,-31,-134
-42,-27,13,34,-25,-2,49,-16,-96,-91,-31,-134
-36,-21,13,28,-25,-2,55,-10,-96,-85,-31,-146
-24,-15,13,16,-14,-2,55,-10,-102,-85,-37,-146
-18,-9,13,10,-14,4,55,-4,-96,-79,-37,-152
-13,-3,13,4,-14,4,55,-4,-96,-79,-37,-152
-24,-3,13,10,-19,9,49,-10,-96,-85,-37,-152
-24,-15,13,16,-14,-2,49,-16,-96,-91,-37,-158
-30,-15,13,22,-19,4,43,-22,-102,-97,-37,-170
-24,-15,13,16,-14,-2,43,-22,-102,-97,-37,-188
-24,-21,8,22,-14,-8,43,-28,-108,-91,-37,-194
-24,-21,8,22,-14,-8,43,-28,-108,-97,-37,-194
-30,-27,8,28,-14,-8,37,-28,-114,-91,-43,-200
-30,-21,13,22,-19,-2,37,-28,-114,-91,-43,-200
-42,-27,13,34,-25,-2,31,-40,-114,-97,-43,-212
-42,-27,13,34,-25,-2,31,-40,-114,-97,-43,-212
-48,-39,13,40,-25,-14,25,-34,-120,-103,-49,-218
-48,-39,13,40,-25,-14,25,-34,-120,-103,-49,-212
-42,-39,8,40,-19,-14,25,-40,-126,-109,-49,-206
-42,-39,8,40,-19,-14,25,-40,-126,-109,-49,-206
-36,-39,2,34,-14,-20,25,-40,-126,-109,-49,-218
-36,-33,8,34,-19,-14,25,-46,-126,-115,-49,-218
-36,-33,8,34,-19,-14,19,-52,-132,-115,-55,-218
-36,-33,8,34,-19,-14,19,-52,-132,-115,-61,-218
-36,-33,8,34,-19,-14,25,-58,-144,-115,-67,-230
-36,-33,8,34,-19,-14,25,-58,-144,-115,-67,-236
-36,-27,13,28,-19,-8,19,-52,-144,-115,-67,-236
-36,-33,8,34,-19,-14,19,-58,-144,-121,-67,-230
-36,-27,13,28,-19,-8,13,-52,-138,-121,-55,-224
-30,-27,8,28,-14,-8,7,-52,-138,-121,-55,-224
-24,-27,2,22,-14,-14,13,-52,-144,-127,-61,-230
-30,-27,8,28,-14,-8,7,-58,-150,-127,-67,-230
-30,-45,-10,34,-14,-26,13,-70,-156,-133,-85,-242
-30,-45,-10,34,-14,-26,13,-70,-156,-133,-85,-242
-42,-51,-4,46,-14,-26,7,-64,-168,-133,-85,-242
-42,-39,8,40,-19,-14,1,-64,-156,-133,-85,-242
-7,-3,-4,4,-2,-2,25,-40,-138,-115,-61,-218
5,2,-4,-1,4,4,25,-40,-144,-121,-61,-206
-13,-9,-4,4,-8,-2,19,-52,-150,-127,-67,-218
-18,-27,-4,22,-14,-14,13,-58,-156,-133,-73,-230
-36,-45,-4,40,-14,-26,7,-70,-162,-139,-79,-242
-54,-63,-4,58,-19,-32,1,-76,-168,-145,-85,-254
-54,-57,2,52,-25,-26,-5,-76,-168,-145,-91,-242
-54,-57,2,52,-25,-26,-5,-82,-174,-145,-91,-242
-48,-51,2,46,-19,-26,-5,-82,-174,-145,-97,-242
-48,-51,2,46,-19,-26,-5,-82,-174,-145,-97,-242
-42,-51,-4,46,-14,-26,-5,-82,-168,-145,-91,-236
-30,-45,-10,34,-14,-26,-5,-76,-168,-145,-91,-236
-24,-39,-10,28,-14,-26,-5,-70,-162,-139,-85,-230
-30,-39,-4,34,-14,-20,-5,-64,-162,-139,-85,-230
-24,-45,-16,34,-14,-32,-5,-70,-174,-145,-91,-230
-30,-33,2,28,-14,-14,-5,-70,-174,-145,-91,-230
-36,-51,-10,40,-14,-32,-5,-76,-180,-151,-91,-230
-54,-63,-4,58,-19,-32,-5,-76,-180,-151,-91,-236
-48,-57,-4,52,-19,-32,-10,-70,-174,-151,-91,-236
-42,-51,-4,46,-14,-26,-16,-76,-174,-157,-91,-230
-36,-45,-4,40,-14,-26,-22,-70,-168,-157,-91,-230
-36,-45,-4,40,-14,-26,-22,-70,-174,-157,-91,-236
-30,-45,-10,34,-14,-26,-22,-76,-180,-157,-91,-236
-30,-45,-10,34,-14,-26,-16,-70,-174,-157,-91,-230
-42,-51,-4,46,-14,-26,-22,-76,-180,-157,-91,-230
-54,-51,8,52,-25,-20,-22,-76,-180,-157,-91,-230
-42,-51,-4,46,-14,-26,-22,-76,-174,-145,-91,-224
-36,-39,2,34,-14,-20,-16,-70,-174,-145,-85,-224
-36,-45,-4,40,-14,-26,-16,-70,-174,-133,-85,-212
-48,-45,8,46,-25,-20,-16,-52,-168,-133,-85,-212
-30,-9,13,16,-25,9,-5,-46,-150,-121,-73,-194
-24,-3,13,10,-19,9,-5,-40,-150,-115,-67,-194
-18,2,25,4,-19,15,1,-34,-138,-109,-67,-188
-13,14,25,4,-14,21,1,-34,-138,-109,-61,-182
-13,8,25,4,-19,15,1,-28,-138,-109,-61,-176
-13,2,19,4,-14,9,1,-28,-138,-109,-67,-176
-18,2,19,4,-19,9,-5,-16,-138,-109,-67,-170
-13,20,31,-1,-19,27,-5,-10,-126,-103,-61,-170
-13,26,43,-1,-25,33,7,-16,-120,-91,-49,-164
-18,32,55,-1,-37,45,13,-4,-114,-85,-43,-152
-13,44,61,-7,-37,51,13,-10,-120,-79,-43,-152
-18,50,73,-7,-43,63,1,-22,-120,-79,-43,-152
-13,50,61,-13,-31,57,-5,-28,-114,-79,-37,-140
-13,44,49,-13,-25,51,-10,-34,-126,-79,-37,-140
-1,44,37,-19,-14,45,-28,-52,-126,-79,-31,-134
-7,44,43,-19,-19,45,-34,-64,-138,-91,-31,-134
-13,56,61,-19,-31,63,-40,-88,-156,-103,-43,-134
-13,68,79,-25,-43,75,-52,-112,-168,-115,-43,-140
-18,44,67,-7,-43,57,-76,-136,-192,-133,-61,-152
-24,38,67,-1,-43,51,-94,-148,-198,-139,-61,-158
-13,32,49,-1,-31,39,-106,-148,-198,-145,-61,-152
-13,38,49,-7,-25,45,-118,-154,-198,-139,-55,-152
-13,32,43,-7,-25,39,-130,-160,-204,-145,-55,-140
-7,32,31,-13,-14,33,-142,-172,-210,-145,-55,-140
5,38,25,-19,-14,33,-142,-166,-216,-145,-55,-134
5,44,31,-25,-14,39,-136,-154,-216,-139,-49,-128
11,44,25,-25,-14,39,-124,-142,-210,-139,-49,-122
-1,32,25,-13,-14,33,-112,-136,-210,-139,-49,-128
-7,32,31,-13,-14,33,-106,-130,-210,-133,-61,-140
-13,8,19,4,-14,15,-88,-130,-204,-133,-67,-152
-24,2,25,4,-25,9,-76,-124,-204,-139,-73,-176
-30,-21,13,22,-19,-2,-70,-112,-204,-145,-91,-188
-48,-39,13,40,-25,-14,-58,-112,-198,-151,-97,-200
-54,-39,13,46,-31,-8,-58,-112,-198,-151,-103,-206
-54,-45,13,46,-31,-14,-52,-118,-198,-157,-115,-200
-60,-57,8,58,-31,-26,-52,-118,-204,-163,-127,-212
-48,-51,2,46,-19,-26,-52,-118,-216,-175,-121,-212
-54,-51,8,52,-25,-20,-52,-112,-210,-163,-133,-212
-24,-27,2,22,-14,-14,-40,-88,-186,-151,-121,-212
-36,-39,2,34,-14,-20,-22,-76,-168,-133,-115,-200
-60,-45,13,52,-37,-14,-5,-64,-138,-127,-109,-194
-30,-9,13,16,-25,9,1,-46,-114,-115,-91,-188
-13,2,13,4,-14,9,19,-28,-78,-103,-73,-182
-24,-3,13,10,-19,9,37,-4,-54,-79,-73,-164
-42,-27,13,34,-25,-2,49,8,-30,-73,-67,-158
-66,-39,19,52,-43,-2,61,25,-12,-67,-61,-164
-54,-39,13,46,-31,-8,79,25,0,-55,-49,-158
-30,-15,13,22,-19,4,115,43,17,-31,-43,-140
-13,2,13,4,-14,9,133,73,59,-1,-25,-134
-13,-9,2,4,-14,-2,121,73,77,4,-19,-140
5,2,2,-1,4,9,121,97,107,16,5,-128
41,26,-10,-31,28,9,121,121,131,40,16,-110
41,20,-16,-31,28,9,121,127,131,52,16,-110
41,14,-22,-25,34,4,115,127,137,70,22,-104
71,32,-34,-49,52,9,103,121,137,76,52,-86
95,32,-58,-61,76,-2,55,103,131,88,76,-62
119,14,-100,-67,112,-32,-10,73,131,112,94,-44
167,2,-160,-85,166,-68,-76,79,161,136,118,-20
227,2,-226,-115,226,-104,-142,79,185,154,154,4
287,-33,-328,-121,304,-182,-232,61,185,178,184,22
329,-81,-418,-121,370,-242,-310,73,203,196,190,22
377,-111,-490,-127,436,-296,-376,73,203,208,214,40
431,-129,-562,-145,490,-344,-466,61,215,244,250,64
533,-117,-658,-205,592,-386,-574,37,215,274,292,106
629,-123,-754,-247,694,-440,-688,25,203,286,328,129
665,-177,-844,-235,748,-506,-790,-52,167,274,340,135
713,-213,-928,-241,814,-566,-922,-118,131,268,346,135
815,-225,-1042,-289,928,-632,-994,-118,161,292,382,153
887,-243,-1138,-313,1006,-692,-1066,-136,185,322,400,165
911,-267,-1186,-313,1042,-722,-1180,-262,125,310,400,171
995,-237,-1234,-379,1114,-728,-1300,-448,23,304,442,213
1091,-207,-1300,-439,1198,-746,-1474,-682,-102,298,508,297
1145,-219,-1366,-463,1252,-788,-1654,-940,-234,298,598,357
1247,-213,-1462,-511,1354,-836,-1816,-1168,-336,328,682,423
1349,-237,-1594,-547,1468,-914,-1942,-1342,-432,358,760,471
1427,-279,-1708,-565,1564,-992,-2038,-1468,-480,400,844,525
1529,-231,-1762,-649,1648,-992,-2122,-1576,-480,532,1036,663
1637,-123,-1762,-751,1696,-944,-2206,-1714,-486,682,1240,861
1667,-27,-1696,-811,1684,-860,-2236,-1798,-480,784,1420,1005
1619,2,-1618,-805,1618,-800,-2188,-1804,-480,868,1540,1101
1499,44,-1450,-769,1474,-698,-2104,-1780,-480,910,1630,1173
1343,134,-1204,-733,1276,-530,-1954,-1702,-450,952,1696,1245
1205,218,-982,-709,1096,-380,-1738,-1552,-372,964,1690,1227
1061,224,-838,-643,952,-302,-1486,-1366,-336,820,1504,1095
845,128,-718,-481,778,-284,-1234,-1192,-396,478,1120,795
539,-9,-556,-259,544,-278,-964,-994,-480,70,622,411
269,-111,-388,-73,328,-242,-694,-808,-546,-283,154,76
101,-189,-292,34,196,-236,-490,-628,-540,-499,-181,-188
23,-195,-226,76,124,-206,-316,-436,-408,-445,-271,-296
-1,-159,-166,70,82,-158,-196,-274,-246,-283,-199,-284
-30,-165,-130,94,40,-146,-130,-196,-174,-229,-163,-278
-42,-153,-106,94,22,-128,-94,-172,-156,-223,-181,-284
-18,-93,-70,52,16,-80,-46,-130,-120,-181,-157,-260
-36,-75,-34,52,-8,-56,-22,-112,-78,-163,-139,-236
-66,-57,13,58,-37,-20,-5,-94,-66,-163,-139,-236
-72,-15,49,40,-61,9,7,-82,-48,-139,-133,-224
-78,2,73,34,-79,33,31,-58,-48,-139,-127,-212
-114,-21,85,64,-103,27,43,-52,-54,-157,-139,-224
-168,-63,97,112,-133,9,37,-58,-66,-187,-169,-254
-156,-51,97,100,-127,15,49,-46,-60,-193,-187,-248
-78,2,73,34,-79,33,79,-22,-42,-181,-175,-230
-72,-9,55,40,-67,15,79,-16,-30,-175,-187,-236
-96,-39,49,64,-73,9,79,-22,-36,-181,-193,-254
-108,-39,61,70,-85,9,79,-22,-30,-181,-193,-260
-126,-33,85,76,-109,21,79,-16,-24,-175,-193,-254
-138,-21,109,76,-127,39,85,-16,-18,-181,-193,-260
-150,-27,115,88,-133,39,103,-4,-12,-175,-187,-254
-150,-27,115,88,-133,39,109,-4,-12,-169,-187,-254
-150,-21,121,82,-139,45,115,2,-6,-163,-175,-242
-150,-27,115,88,-133,39,127,2,-12,-157,-175,-242
-144,-39,97,88,-121,21,127,8,-18,-163,-187,-254
-150,-63,79,106,-115,9,127,14,-18,-169,-193,-260
-144,-69,67,106,-109,4,127,20,-12,-175,-199,-260
-138,-63,67,100,-103,9,139,25,0,-169,-199,-260
-144,-51,85,94,-115,9,145,25,5,-157,-181,-260
-144,-39,97,88,-121,21,151,25,5,-157,-181,-260
-150,-39,103,94,-127,27,151,25,5,-151,-175,-254
-150,-27,115,88,-133,39,163,25,5,-139,-175,-236
-132,-21,103,76,-121,33,163,25,5,-139,-175,-236
-144,-21,115,82,-133,39,163,31,11,-139,-175,-236
-144,-27,109,82,-127,33,163,37,17,-139,-175,-236
-144,-27,109,82,-127,33,169,37,17,-139,-175,-242
-150,-27,115,88,-133,39,169,37,11,-145,-175,-242
-150,-21,121,82,-139,45,175,49,29,-133,-175,-242
-150,-27,115,88,-133,39,181,49,29,-139,-181,-242
-150,-27,115,88,-133,39,181,49,41,-139,-181,-242
-144,-21,115,82,-133,39,193,67,53,-127,-169,-242
-144,-9,127,76,-139,51,199,73,53,-121,-169,-236
-156,-15,133,82,-145,51,211,85,59,-109,-175,-236
-162,-15,139,88,-151,57,223,85,59,-103,-175,-236
-168,-15,145,88,-157,57,235,79,59,-103,-175,-236
-168,-21,139,94,-157,51,235,97,71,-103,-175,-236
-174,-27,139,100,-157,51,235,97,77,-109,-181,-236
-186,-27,151,106,-169,57,229,97,77,-103,-181,-242
-180,-9,163,94,-175,69,235,121,89,-91,-175,-236
-174,-3,163,88,-169,75,241,121,101,-85,-169,-236
-186,2,181,88,-187,87,253,133,119,-79,-163,-230
-168,2,175,76,-169,87,271,151,125,-79,-157,-230
-174,8,187,76,-181,99,277,157,131,-79,-157,-224
-174,8,187,76,-181,99,289,175,137,-73,-163,-224
-186,14,205,76,-193,111,301,175,149,-73,-169,-224
-186,26,217,70,-199,123,301,193,155,-61,-175,-224
-186,26,217,70,-199,123,319,205,179,-49,-169,-224
-186,26,217,70,-199,123,331,217,185,-43,-169,-224
-192,32,229,70,-211,129,343,229,197,-31,-169,-230
-204,32,241,76,-223,135,355,241,215,-25,-169,-230
-198,50,253,64,-223,153,373,265,233,-19,-157,-236
-198,62,259,58,-229,165,385,283,245,-13,-157,-230
-198,74,271,52,-235,177,403,307,245,-7,-151,-236
-198,74,271,52,-235,177,415,331,257,4,-151,-236
-204,80,283,52,-247,183,439,355,275,4,-151,-236
-204,86,289,52,-247,189,457,373,299,16,-151,-230
-216,98,313,52,-259,207,469,391,323,22,-151,-230
-216,98,313,52,-259,207,481,409,335,34,-145,-230
-216,110,325,46,-265,219,499,433,353,46,-139,-230
-228,110,337,52,-277,225,517,457,377,58,-133,-230
-234,122,355,46,-289,243,541,481,401,76,-121,-230
-234,128,361,46,-295,249,559,505,419,82,-109,-230
-228,152,379,28,-301,261,583,529,443,94,-109,-230
-228,164,391,22,-307,273,607,559,461,112,-109,-224
-240,170,409,28,-319,285,631,589,491,124,-109,-224
-246,176,421,28,-331,297,649,625,509,136,-115,-218
-246,182,427,22,-331,303,661,643,533,154,-109,-218
-240,188,427,16,-331,303,697,667,557,178,-103,-212
-240,212,451,4,-343,327,721,691,575,190,-97,-212
-246,212,457,10,-349,333,727,709,599,202,-91,-212
-252,218,469,10,-355,339,751,739,617,226,-79,-212
-252,230,481,4,-361,351,769,757,641,244,-73,-200
-258,242,499,4,-379,369,787,781,659,256,-67,-194
-258,242,505,4,-385,375,799,805,683,274,-55,-194
-258,254,517,4,-391,387,799,823,695,286,-55,-194
-258,260,523,4,-391,393,811,835,719,286,-55,-188
-258,266,529,4,-397,399,817,847,737,292,-55,-182
-252,278,535,-7,-397,411,835,871,755,304,-37,-170
-258,272,535,-1,-397,405,829,871,767,328,-31,-176
-264,278,547,-1,-409,417,835,883,779,334,-25,-170
-264,278,547,-1,-409,417,841,883,779,352,-25,-164
-258,278,541,-1,-403,411,841,889,785,364,-7,-164
-252,296,553,-13,-403,429,835,895,791,376,-7,-152
-246,302,547,-25,-397,429,829,895,797,382,5,-146
-240,314,553,-31,-397,435,829,895,803,388,11,-134
-222,326,547,-49,-385,441,823,895,809,394,16,-128
-216,326,541,-49,-379,435,805,877,803,388,16,-128
-216,320,535,-49,-373,429,781,847,797,382,16,-116
-204,320,523,-55,-361,423,751,817,773,376,22,-122
-192,320,511,-61,-349,417,727,781,761,382,28,-110
-186,320,505,-61,-343,417,721,757,743,388,34,-98
-180,308,493,-61,-331,399,697,739,737,388,40,-80
-168,314,487,-67,-325,399,667,709,719,394,52,-74
-156,320,481,-79,-313,399,631,691,707,382,52,-68
-138,308,451,-79,-289,381,583,649,671,370,46,-62
-132,296,433,-79,-277,363,541,601,647,346,58,-56
-132,278,415,-67,-271,345,511,553,611,328,52,-56
-114,266,385,-73,-253,327,481,511,581,310,52,-56
-102,254,361,-73,-235,309,445,475,545,298,58,-56
-90,260,355,-79,-223,309,409,433,515,268,58,-56
-84,242,331,-73,-211,285,379,385,479,256,52,-56
-78,242,325,-79,-205,285,331,349,443,244,52,-50
-66,230,295,-73,-181,261,313,313,407,220,46,-56
-60,218,277,-73,-169,249,277,277,377,190,34,-56
-54,188,247,-61,-151,219,247,247,329,166,22,-62
-42,182,229,-61,-133,207,217,211,293,142,16,-62
-42,182,229,-61,-133,207,187,169,269,118,16,-62
-42,170,217,-55,-127,195,175,145,245,100,11,-68
-42,140,187,-43,-115,165,151,97,215,70,-1,-74
-42,134,181,-37,-109,159,127,79,191,52,-13,-80
-36,122,163,-37,-97,141,121,67,179,40,-13,-86
-36,116,157,-31,-97,135,103,55,161,22,-25,-86
-30,110,145,-31,-85,129,91,37,149,10,-31,-98
-36,98,139,-25,-85,117,67,14,125,4,-43,-110
-36,80,121,-13,-79,99,61,-4,95,-7,-55,-110
-36,80,121,-13,-79,99,49,-22,83,-31,-61,-116
-36,74,115,-13,-73,93,43,-28,77,-43,-73,-116
-36,62,103,-7,-67,81,37,-34,65,-49,-73,-116
-48,50,103,4,-73,75,25,-52,47,-67,-79,-122
-48,38,91,4,-67,63,13,-70,35,-79,-85,-134
-60,26,91,10,-73,57,7,-82,17,-85,-91,-134
-66,20,91,16,-79,57,7,-88,11,-91,-97,-134
-54,20,79,10,-67,51,7,-88,5,-91,-97,-134
-48,20,73,4,-61,45,1,-94,5,-103,-103,-140
-42,26,73,4,-55,51,-5,-94,11,-103,-103,-140
-36,26,67,4,-49,45,-5,-100,5,-109,-103,-140
-48,20,73,4,-61,45,-5,-100,5,-109,-103,-140
-54,20,79,10,-67,51,-5,-106,5,-109,-103,-140
-54,8,67,16,-61,39,-5,-112,0,-103,-97,-140
-60,8,73,16,-67,39,-5,-112,0,-103,-97,-140
-66,2,73,22,-67,39,-5,-118,0,-109,-103,-140
-72,2,73,28,-73,33,-10,-118,-6,-109,-103,-140
-78,2,79,34,-79,39,-16,-124,-6,-121,-115,-140
-84,2,79,40,-85,33,-10,-124,-6,-121,-115,-146
-84,-3,73,40,-79,27,-5,-118,-6,-121,-115,-146
-84,2,91,34,-85,45,-10,-118,-6,-121,-115,-140
-84,-3,73,40,-79,27,-5,-118,-6,-121,-115,-140
-84,-15,61,46,-73,15,-5,-118,-18,-121,-115,-140
-84,-9,67,46,-79,21,-10,-118,-12,-121,-109,-140
-102,-9,85,52,-97,33,-10,-130,-12,-121,-109,-140
-90,-9,73,46,-85,27,-16,-130,-6,-115,-103,-134
-90,-21,61,52,-79,15,-16,-130,-6,-115,-103,-134
-102,-21,73,58,-91,21,-16,-136,-6,-115,-109,-134
-90,-15,67,52,-79,21,-16,-118,-6,-115,-109,-134
-90,-15,67,52,-79,21,-10,-124,-12,-115,-115,-134
-90,-15,67,52,-79,21,-10,-130,-12,-115,-115,-134
-90,-3,79,46,-85,33,-10,-130,-12,-115,-115,-134
-84,-15,61,46,-73,15,-10,-130,-12,-103,-109,-134
-84,-15,61,46,-73,15,-10,-118,-12,-121,-109,-128
-84,-15,61,46,-73,15,-10,-118,-12,-121,-109,-128
-84,-15,61,46,-73,15,-10,-112,-6,-115,-103,-128
-84,-15,61,46,-73,15,-10,-112,-6,-115,-103,-128
-84,-15,61,46,-73,15,-10,-106,0,-103,-97,-128
-84,-9,67,46,-79,21,-10,-106,5,-103,-97,-128
-78,-9,61,40,-73,21,-10,-112,5,-109,-97,-128
-78,-9,61,40,-73,21,-10,-112,5,-103,-97,-128
-78,-3,67,40,-73,27,-5,-112,5,-109,-91,-128
-84,-3,73,40,-79,27,-5,-106,5,-109,-91,-128
-84,-9,67,46,-79,21,-5,-100,5,-109,-91,-134
-84,-9,67,46,-79,21,-5,-106,5,-103,-91,-134
-84,-15,61,46,-73,15,-10,-100,5,-103,-97,-128
-84,-15,61,46,-73,15,-10,-106,5,-103,-97,-128
-84,-15,61,46,-73,15,-5,-100,5,-91,-97,-128
-78,-3,67,40,-73,27,-5,-100,5,-91,-91,-128
-78,-9,61,40,-73,21,-5,-94,5,-85,-91,-122
-78,-15,55,46,-67,15,-5,-94,0,-85,-91,-122
-84,-9,67,46,-79,21,-5,-94,5,-85,-91,-128
-84,-21,55,52,-73,9,-5,-94,5,-85,-91,-128
-90,-15,67,52,-79,21,-5,-94,5,-85,-85,-128
-90,2,85,40,-91,39,-5,-94,11,-85,-85,-122
-84,2,79,40,-85,33,-5,-94,17,-85,-79,-116
-84,2,79,40,-85,33,-5,-94,11,-85,-79,-110
-78,2,73,34,-79,33,-5,-94,17,-85,-73,-110
-78,2,73,34,-79,33,-5,-94,17,-85,-73,-110
-84,2,79,40,-85,33,-5,-94,17,-85,-79,-110
-84,2,79,40,-85,33,-5,-94,17,-85,-79,-122
-84,-3,73,40,-79,27,-5,-94,5,-85,-79,-122
-84,-3,73,40,-79,27,-5,-94,5,-85,-79,-122
-84,2,79,40,-85,33,-5,-88,5,-85,-73,-122
-84,2,79,40,-85,33,-5,-88,5,-85,-73,-116
-78,-3,67,40,-73,27,-5,-82,5,-85,-67,-110
-78,-3,67,40,-73,27,-5,-82,5,-85,-67,-110
-84,-3,73,40,-79,27,-5,-88,5,-85,-67,-110
-84,-3,73,40,-79,27,-5,-88,0,-85,-67,-110
-90,-3,79,46,-85,33,-5,-88,0,-85,-67,-122
-90,-3,79,46,-85,33,-5,-88,0,-91,-67,-122
-84,-3,73,40,-79,27,-5,-94,-6,-91,-67,-128
-78,-3,67,40,-73,27,-5,-94,-12,-91,-73,-128
-72,-3,61,34,-67,21,-5,-100,-12,-91,-73,-128
-72,-3,61,34,-67,21,-5,-100,-12,-91,-73,-128
-84,-3,73,40,-79,27,-5,-100,-12,-85,-73,-128
-84,-15,61,46,-73,15,-5,-106,-12,-91,-73,-128
-90,-15,67,52,-79,21,-5,-106,-18,-85,-73,-140
-84,-15,61,46,-73,15,-5,-106,-18,-85,-73,-152
-84,-15,61,46,-73,15,-5,-112,-18,-85,-73,-158
-84,-15,61,46,-73,15,-5,-112,-18,-91,-73,-158
-90,-15,67,52,-79,21,-5,-112,-18,-91,-79,-164
-90,-9,73,46,-85,27,-5,-112,-18,-91,-79,-164
-90,-9,73,46,-85,27,-5,-124,-24,-97,-73,-176
-90,-9,73,46,-85,27,-5,-124,-30,-97,-73,-176
-84,-15,61,46,-73,15,-5,-118,-42,-103,-73,-182
-84,-15,61,46,-73,15,-5,-118,-48,-103,-73,-176
-90,-15,67,52,-79,21,-5,-118,-54,-103,-73,-170
-90,-15,67,52,-79,21,-5,-118,-54,-103,-73,-170
-96,-15,73,52,-85,21,-10,-112,-54,-97,-73,-182
-96,-9,79,52,-91,27,-10,-118,-54,-103,-73,-182
-90,-3,79,46,-85,33,-10,-124,-54,-109,-73,-182
-90,-3,79,46,-85,33,-10,-124,-54,-109,-79,-182
-84,2,79,40,-85,33,-5,-130,-60,-115,-79,-194
-84,2,79,40,-85,33,-5,-130,-60,-115,-79,-200
-90,-3,79,46,-85,33,-5,-130,-66,-121,-85,-200
-96,-15,73,52,-85,21,-5,-136,-66,-127,-85,-194
-102,-21,73,58,-91,21,-10,-136,-66,-133,-79,-188
-102,-27,67,64,-85,15,-16,-136,-66,-133,-79,-188
-96,-15,73,52,-85,21,-10,-136,-66,-133,-73,-188
-102,-15,79,58,-91,27,-16,-142,-72,-133,-79,-188
-102,-21,73,58,-91,21,-10,-154,-72,-133,-85,-194
-102,-21,73,58,-91,21,-10,-154,-72,-133,-85,-194
-102,-15,79,58,-91,27,-10,-148,-72,-127,-85,-194
-102,-15,79,58,-91,27,-10,-148,-72,-127,-85,-194
-102,-15,79,58,-91,27,-16,-148,-78,-127,-85,-194
-102,-15,79,58,-91,27,-22,-142,-78,-127,-79,-188
-102,-15,79,58,-91,27,-22,-142,-78,-133,-85,-188
-102,-21,73,58,-91,21,-22,-142,-78,-133,-85,-188
-108,-33,67,70,-91,9,-28,-148,-84,-145,-91,-182
-108,-33,67,70,-91,9,-28,-148,-90,-145,-97,-182
-96,-15,73,52,-85,21,-28,-148,-78,-157,-97,-194
-108,-15,85,58,-97,27,-28,-160,-90,-169,-97,-194
-96,-3,85,46,-91,33,-28,-160,-90,-169,-97,-194
-90,-3,79,46,-85,33,-34,-160,-96,-181,-97,-194
-96,-9,79,52,-91,27,-34,-160,-96,-181,-97,-188
-96,-15,73,52,-85,21,-34,-160,-96,-181,-97,-188
-102,-21,73,58,-91,21,-34,-160,-96,-181,-97,-182
-102,-27,67,64,-85,15,-34,-160,-96,-181,-97,-182
-114,-33,73,70,-97,15,-34,-160,-96,-181,-103,-182
-114,-33,73,70,-97,15,-34,-166,-102,-181,-103,-182
-120,-39,73,76,-97,9,-34,-166,-102,-181,-109,-194
-120,-39,73,76,-97,9,-34,-166,-102,-181,-109,-194
-114,-33,73,70,-97,15,-28,-166,-102,-181,-103,-188
-102,-27,67,64,-85,15,-28,-166,-102,-181,-103,-188
-96,-15,73,52,-85,21,-28,-160,-102,-175,-97,-182
-102,-15,79,58,-91,27,-28,-160,-102,-175,-97,-182
-102,-27,67,64,-85,15,-34,-166,-114,-181,-109,-188
-108,-21,79,64,-97,21,-40,-166,-114,-181,-109,-188
-120,-45,67,82,-97,9,-46,-172,-120,-187,-115,-194
-138,-63,67,100,-103,9,-52,-172,-120,-187,-115,-200
-138,-57,73,94,-109,9,-46,-172,-114,-187,-115,-200
-132,-51,73,88,-103,9,-46,-178,-114,-193,-115,-194
-132,-45,79,88,-109,9,-40,-178,-108,-193,-115,-194
-132,-45,79,88,-109,9,-34,-178,-114,-193,-115,-200
-114,-33,73,70,-97,15,-34,-178,-114,-193,-109,-194
-108,-33,67,70,-91,9,-28,-172,-108,-193,-109,-188
-108,-27,73,64,-91,15,-34,-172,-108,-193,-103,-182
-114,-27,79,70,-97,21,-34,-172,-108,-193,-103,-182
-102,-27,67,64,-85,15,-34,-172,-102,-181,-103,-188
-96,-15,73,52,-85,21,-28,-166,-102,-181,-97,-188
-96,-21,67,58,-85,15,-28,-166,-102,-169,-97,-188
-108,-21,79,64,-97,21,-28,-148,-96,-169,-97,-188
-102,-3,91,52,-97,39,-16,-148,-90,-163,-91,-176
-102,-3,91,52,-97,39,-10,-142,-90,-157,-85,-176
-108,-3,97,52,-103,39,-10,-142,-90,-157,-91,-176
-102,2,97,46,-103,45,-10,-142,-90,-157,-85,-170
-96,2,97,40,-97,45,-5,-136,-84,-151,-79,-164
-90,2,91,40,-91,45,-5,-136,-84,-151,-85,-164
-84,2,91,34,-85,45,-5,-124,-78,-145,-79,-158
-66,32,103,10,-85,69,-5,-118,-66,-139,-73,-158
-72,32,109,10,-91,69,1,-118,-60,-139,-61,-158
-78,32,115,16,-97,75,7,-106,-54,-133,-55,-146
-72,38,115,10,-91,75,1,-106,-60,-139,-55,-152
-78,38,121,10,-97,81,-5,-118,-60,-139,-55,-152
-66,44,115,4,-91,81,-5,-118,-54,-133,-49,-140
-60,44,109,4,-85,75,-10,-124,-66,-133,-49,-140
-48,50,103,4,-73,75,-16,-136,-66,-127,-43,-134
-54,56,115,4,-85,87,-22,-148,-78,-139,-43,-134
-60,74,139,-1,-97,105,-34,-166,-96,-151,-55,-134
-60,86,151,-7,-103,117,-46,-190,-108,-163,-55,-134
-72,68,145,4,-109,105,-76,-208,-132,-181,-73,-146
-72,62,139,4,-103,99,-94,-214,-138,-187,-73,-146
-48,62,115,-1,-79,87,-100,-220,-144,-193,-73,-146
-42,68,115,-7,-79,93,-112,-226,-144,-187,-67,-146
-30,68,103,-13,-67,87,-118,-238,-156,-193,-67,-140
-18,68,91,-19,-55,81,-130,-250,-162,-193,-67,-140
-24,62,91,-13,-55,75,-130,-250,-168,-193,-67,-140
-30,62,97,-7,-61,81,-124,-238,-168,-187,-61,-134
-42,50,97,4,-67,75,-112,-232,-162,-187,-61,-134
-60,32,97,4,-79,63,-100,-226,-162,-187,-61,-140
-60,26,91,10,-73,57,-94,-214,-162,-187,-73,-152
-66,2,73,22,-67,39,-76,-214,-156,-187,-79,-158
-78,-3,67,40,-73,27,-64,-208,-156,-199,-85,-182
-78,-33,37,52,-61,9,-58,-196,-156,-205,-103,-188
-90,-39,43,64,-67,9,-40,-190,-150,-205,-103,-200
-96,-33,55,64,-79,9,-34,-184,-144,-205,-109,-206
-90,-27,55,58,-73,9,-22,-184,-144,-205,-115,-200
-96,-33,55,64,-79,9,-16,-178,-144,-211,-127,-212
-108,-39,61,70,-85,9,-28,-178,-156,-211,-133,-224
-102,-39,55,70,-79,9,-28,-184,-150,-199,-133,-212
-96,-27,61,58,-79,9,-16,-172,-138,-199,-121,-212
-84,-27,49,52,-67,9,-10,-160,-120,-205,-115,-200
-96,-33,55,64,-79,9,-5,-148,-114,-199,-109,-206
-102,-33,61,64,-85,9,13,-130,-102,-175,-103,-200
-72,2,73,28,-73,33,43,-100,-66,-151,-73,-170
-48,8,61,10,-55,33,73,-64,-30,-115,-61,-164
-66,8,79,22,-73,45,97,-40,-6,-97,-55,-158
-54,8,67,16,-61,39,109,-22,0,-79,-37,-152
-30,20,55,4,-43,39,127,-10,5,-67,-37,-146
-30,32,67,4,-49,51,139,8,17,-67,-31,-140
-36,14,55,4,-43,33,145,14,35,-49,-25,-134
-42,2,49,10,-43,27,121,14,41,-49,-19,-128
-30,14,49,4,-37,33,109,25,47,-31,-7,-116
-30,14,49,4,-37,33,109,37,71,-19,11,-110
-30,20,55,4,-43,39,121,43,83,4,16,-110
-13,50,61,-13,-31,57,127,55,101,10,34,-92
11,80,61,-43,-19,75,103,61,113,40,64,-62
35,68,25,-49,-2,51,55,31,107,52,76,-50
47,38,-4,-43,28,15,-10,14,107,64,106,-32
95,26,-64,-61,82,-8,-88,8,125,88,130,-8
185,14,-166,-97,178,-68,-166,8,125,106,166,16
251,2,-256,-121,250,-128,-250,-10,113,106,184,34
305,-33,-346,-133,322,-188,-334,-10,107,124,202,46
389,-27,-424,-175,406,-224,-400,14,131,148,238,76
455,-33,-490,-205,472,-260,-490,2,143,178,280,100
497,-81,-586,-205,538,-332,-610,-46,143,196,304,129
545,-123,-676,-211,610,-398,-736,-94,119,208,316,135
605,-129,-736,-235,670,-434,-838,-160,95,208,340,159
689,-141,-832,-265,754,-482,-946,-214,71,202,358,183
779,-165,-952,-301,862,-554,-1030,-244,65,214,382,189
863,-165,-1030,-343,946,-596,-1102,-274,65,232,388,201
911,-177,-1090,-361,994,-632,-1192,-394,5,232,412,219
953,-201,-1156,-373,1048,-674,-1336,-598,-108,202,430,249
1007,-183,-1198,-409,1102,-686,-1510,-832,-240,196,502,309
1121,-147,-1270,-481,1198,-710,-1678,-1054,-336,232,598,411
1235,-153,-1396,-535,1312,-770,-1828,-1246,-420,256,706,495
1289,-231,-1522,-523,1408,-872,-1960,-1438,-510,262,748,531
1379,-243,-1630,-559,1498,-938,-2062,-1576,-564,304,856,597
1493,-171,-1672,-661,1582,-920,-2158,-1690,-582,430,1024,747
1577,-63,-1648,-751,1612,-854,-2242,-1858,-606,538,1222,903
1583,-3,-1594,-781,1588,-794,-2260,-1936,-612,646,1372,1041
1547,56,-1486,-799,1516,-710,-2200,-1912,-594,718,1480,1113
1463,152,-1312,-805,1390,-572,-2068,-1864,-570,778,1570,1197
1319,242,-1078,-775,1204,-416,-1894,-1762,-528,832,1648,1257
1133,272,-856,-703,994,-284,-1696,-1588,-468,832,1630,1239
977,236,-742,-607,862,-248,-1456,-1402,-432,670,1414,1083
737,128,-610,-433,676,-230,-1192,-1192,-468,322,1000,759
437,2,-442,-217,436,-218,-916,-994,-528,-61,502,399
179,-99,-280,-31,226,-188,-658,-820,-570,-403,70,88
17,-165,-190,64,100,-176,-460,-640,-552,-547,-217,-164
-24,-171,-142,94,52,-158,-292,-460,-408,-469,-271,-248
-48,-147,-94,94,16,-122,-172,-322,-282,-319,-199,-236
-78,-141,-58,106,-14,-98,-106,-250,-240,-283,-175,-242
-66,-105,-34,82,-14,-68,-58,-208,-216,-253,-169,-236
-54,-57,2,52,-25,-26,-10,-154,-156,-205,-133,-212
-84,-51,25,64,-55,-8,1,-124,-114,-175,-115,-188
-126,-45,73,82,-103,9,19,-106,-78,-175,-115,-176
-144,-15,121,76,-133,45,31,-94,-60,-163,-109,-164
-138,2,133,64,-139,63,55,-82,-48,-163,-103,-164
-138,2,145,58,-139,75,79,-76,-42,-169,-115,-164
-156,2,157,70,-157,75,85,-70,-54,-187,-133,-182
-168,-15,145,88,-157,57,97,-82,-84,-217,-163,-212
-174,-21,145,94,-163,57,103,-82,-102,-229,-175,-242
-156,-33,115,94,-139,33,115,-76,-114,-235,-187,-248
-168,-51,109,106,-139,21,121,-70,-102,-229,-187,-254
-174,-39,127,106,-151,39,121,-64,-90,-223,-187,-254
-180,-21,151,100,-169,57,127,-46,-66,-205,-181,-236
-186,2,181,88,-187,87,133,-40,-54,-205,-181,-236
-198,-9,181,100,-193,81,145,-28,-48,-199,-175,-230
-198,-9,181,100,-193,81,151,-28,-48,-199,-175,-230
-198,-9,181,100,-193,81,151,-22,-42,-193,-163,-218
-198,-15,175,106,-187,75,163,-22,-48,-193,-163,-218
-198,-15,175,106,-187,75,163,-16,-60,-193,-175,-236
-204,-33,163,118,-187,57,163,-16,-60,-193,-181,-242
-204,-27,169,112,-187,63,163,-10,-60,-193,-187,-248
-198,-15,175,106,-187,75,175,-10,-48,-181,-187,-248
-204,-9,187,106,-199,81,175,-4,-30,-181,-169,-248
-210,-3,199,106,-205,93,181,2,-18,-181,-169,-248
-216,-9,199,112,-211,87,175,2,-12,-187,-163,-242
-222,-3,211,112,-217,99,187,2,-12,-175,-163,-224
-204,-3,193,100,-199,87,193,14,-12,-175,-163,-230
-216,-3,205,106,-211,93,193,20,-12,-175,-163,-230
-216,-15,193,112,-205,81,199,25,-12,-175,-163,-236
-216,-15,193,112,-205,81,205,25,-18,-175,-163,-242
-210,-3,199,106,-205,93,205,25,-12,-169,-157,-236
-204,2,211,94,-205,105,211,31,5,-157,-157,-236
-192,8,205,82,-199,105,217,37,5,-151,-157,-230
-186,20,211,76,-199,117,217,37,17,-151,-157,-230
-186,20,211,76,-199,117,223,49,23,-145,-145,-224
-186,32,223,70,-205,129,223,55,23,-145,-145,-218
-204,20,229,82,-217,123,229,61,23,-139,-151,-212
-210,20,235,88,-223,129,235,61,23,-139,-151,-212
-216,20,241,88,-229,129,247,61,23,-139,-145,-218
-210,14,229,88,-217,123,253,79,35,-139,-145,-218
-216,8,229,94,-223,117,259,85,41,-145,-145,-224
-222,8,235,100,-229,123,259,85,41,-139,-145,-230
-222,14,241,94,-229,129,265,109,53,-127,-139,-224
-222,14,241,94,-229,129,271,109,65,-121,-139,-224
-240,8,253,106,-247,129,283,121,83,-115,-133,-218
-228,14,247,100,-235,129,295,139,89,-115,-133,-218
-228,20,253,94,-241,135,295,145,95,-109,-127,-212
-228,20,253,94,-241,135,307,163,101,-103,-127,-212
-234,26,259,94,-247,147,313,163,113,-97,-127,-212
-234,38,271,88,-253,159,313,181,119,-85,-127,-212
-228,44,271,82,-253,159,337,199,143,-73,-115,-206
-228,44,271,82,-253,159,355,211,149,-67,-115,-206
-228,56,283,76,-253,171,373,229,161,-55,-109,-206
-240,56,295,82,-265,177,391,241,179,-49,-109,-206
-246,62,307,82,-271,189,409,265,197,-43,-109,-206
-252,68,319,82,-283,195,421,271,209,-37,-109,-200
-258,68,331,88,-295,201,439,289,215,-31,-115,-200
-264,62,331,94,-295,201,451,307,227,-19,-115,-200
-258,74,337,88,-295,207,481,337,245,-1,-103,-200
-252,86,343,76,-295,219,493,355,269,4,-103,-194
-252,104,361,70,-307,237,511,379,293,10,-91,-194
-252,110,361,64,-301,237,529,397,311,22,-85,-194
-252,116,373,64,-313,249,547,427,329,34,-85,-188
-264,116,385,70,-325,249,565,451,353,46,-85,-188
-276,122,403,70,-337,261,589,481,377,64,-79,-182
-276,128,409,70,-343,267,607,505,395,70,-73,-182
-276,140,421,64,-349,279,625,523,407,82,-73,-182
-276,152,433,58,-355,291,649,547,425,100,-67,-176
-294,146,445,70,-367,291,667,571,443,112,-67,-176
-300,152,457,70,-379,303,685,601,467,124,-67,-170
-300,164,469,64,-385,315,703,631,497,148,-55,-164
-294,170,469,58,-379,315,733,655,521,172,-49,-158
-294,200,499,40,-397,345,763,691,551,190,-37,-152
-300,200,499,46,-403,351,775,709,575,202,-31,-152
-294,206,499,40,-397,351,787,733,581,214,-25,-152
-294,218,511,34,-403,363,805,757,605,232,-19,-140
-294,230,523,28,-409,375,811,769,611,238,-19,-134
-294,236,529,22,-415,381,823,793,635,250,-7,-134
-300,242,541,22,-421,393,835,817,653,268,-1,-140
-300,242,547,22,-427,399,847,829,677,274,-1,-134
-306,242,553,22,-433,399,865,847,701,286,5,-134
-300,254,559,16,-433,411,883,871,725,304,16,-122
-294,254,553,10,-427,405,889,877,737,328,22,-116
-294,266,565,4,-433,417,895,889,749,334,28,-110
-282,272,559,4,-421,417,913,895,749,352,34,-98
-270,278,553,4,-415,417,913,901,761,364,52,-98
-270,284,559,-1,-415,423,901,907,761,376,52,-86
-264,284,553,-1,-409,423,895,907,767,382,64,-80
-264,284,553,-1,-409,423,889,907,767,388,70,-68
-252,290,547,-13,-403,423,883,907,773,394,76,-62
-252,290,547,-13,-403,423,871,895,773,394,82,-56
-252,284,541,-7,-397,417,853,877,767,388,88,-44
-252,284,535,-13,-391,411,829,853,749,388,106,-44
-240,284,523,-19,-379,405,811,829,737,394,112,-32
-228,278,505,-19,-367,393,793,799,719,388,112,-20
-222,260,487,-13,-349,375,769,775,707,388,118,-8
-204,260,469,-25,-331,363,733,745,683,382,124,-8
-192,260,457,-31,-319,357,703,727,671,370,124,-8
-174,254,433,-37,-301,345,661,685,641,358,118,-2
-168,248,421,-37,-289,333,619,643,617,340,130,4
-168,242,409,-31,-283,321,595,595,587,322,124,4
-150,236,385,-37,-265,309,559,559,557,310,124,4
-138,218,355,-31,-247,285,529,523,521,298,124,10
-126,218,343,-37,-235,279,499,487,491,268,124,10
-120,194,313,-31,-217,249,481,445,455,256,112,16
-114,188,301,-31,-211,249,439,409,419,244,112,22
-102,176,277,-31,-193,231,409,367,377,220,106,22
-96,170,265,-31,-181,219,373,325,347,190,100,22
-90,146,241,-19,-163,195,331,283,293,166,88,22
-78,146,229,-25,-151,189,295,247,257,142,88,22
-84,140,229,-19,-157,183,265,205,245,124,76,16
-90,128,223,-13,-157,177,253,181,215,106,70,4
-96,92,193,4,-145,141,235,133,191,82,58,-8
-102,86,193,4,-145,141,211,115,167,64,46,-20
-96,68,169,4,-133,117,205,103,149,52,46,-20
-90,62,157,4,-121,111,187,91,131,34,34,-20
-84,50,139,10,-109,93,175,73,113,22,28,-26
-84,38,127,16,-103,81,151,37,89,10,16,-38
-84,32,121,16,-103,75,145,25,65,4,16,-38
-84,32,121,16,-103,75,133,14,53,-13,16,-44
-84,38,127,16,-103,81,127,8,53,-19,11,-38
-84,26,115,22,-97,69,121,2,41,-25,11,-38
-90,14,109,28,-97,63,109,-10,29,-43,5,-44
-90,2,97,34,-91,51,97,-28,17,-55,-1,-56
-96,2,91,46,-97,39,91,-34,5,-61,-7,-56
-102,-3,91,52,-97,39,91,-40,5,-67,-13,-56
-96,-9,79,52,-91,27,91,-40,0,-67,-19,-56
-90,-9,73,46,-85,27,85,-46,0,-79,-25,-62
-90,-9,73,46,-85,27,79,-46,0,-79,-31,-62
-84,-9,67,46,-79,21,79,-52,-12,-85,-31,-62
-96,-15,73,52,-85,21,73,-52,-18,-91,-31,-68
-96,-15,73,52,-85,21,73,-58,-18,-91,-31,-68
-96,-27,61,58,-79,9,67,-64,-24,-91,-25,-74
-96,-27,61,58,-79,9,67,-64,-24,-91,-25,-74
-96,-39,49,64,-73,9,61,-70,-24,-97,-31,-80
-96,-45,43,70,-73,4,55,-70,-30,-97,-31,-80
-96,-51,37,70,-67,-2,55,-76,-30,-109,-43,-86
-96,-57,31,76,-67,-8,61,-76,-30,-109,-43,-92
-96,-51,37,70,-67,-2,61,-76,-30,-109,-37,-92
-96,-33,55,64,-79,9,55,-76,-30,-109,-37,-86
-96,-39,49,64,-73,9,55,-82,-30,-109,-31,-86
-96,-51,37,70,-67,-2,55,-82,-42,-109,-31,-86
-90,-51,31,70,-61,-2,55,-76,-42,-115,-37,-92
-108,-51,49,76,-79,4,55,-82,-42,-115,-37,-92
-90,-57,25,70,-61,-8,55,-76,-42,-115,-43,-92
-90,-69,13,76,-55,-20,55,-70,-42,-115,-43,-92
-108,-69,31,88,-73,-14,49,-76,-36,-115,-43,-86
-102,-63,31,82,-67,-8,49,-58,-36,-115,-43,-86
-108,-63,37,82,-73,-8,49,-64,-36,-115,-43,-80
-114,-63,43,88,-79,-2,49,-70,-36,-115,-43,-80
-108,-45,55,76,-85,9,55,-70,-30,-109,-37,-74
-96,-57,31,76,-67,-8,55,-70,-30,-97,-25,-74
-90,-51,31,70,-61,-2,61,-58,-24,-109,-19,-62
-84,-51,25,64,-55,-8,61,-58,-24,-109,-13,-62
-90,-51,31,70,-61,-2,67,-52,-24,-103,-13,-62
-90,-51,31,70,-61,-2,67,-52,-24,-97,-13,-62
-96,-51,37,70,-67,-2,73,-46,-24,-85,-13,-62
-96,-45,43,70,-73,4,73,-46,-18,-79,-13,-62
-90,-45,37,64,-67,4,73,-46,-18,-79,-13,-62
-90,-45,37,64,-67,4,73,-46,-18,-73,-13,-62
-90,-39,43,64,-67,9,79,-40,-12,-73,-7,-62
-96,-39,49,64,-73,9,85,-34,-12,-73,-7,-62
-96,-45,43,70,-73,4,85,-28,-12,-79,-7,-62
-96,-45,43,70,-73,4,85,-34,-12,-73,-7,-62
-96,-51,37,70,-67,-2,85,-28,-6,-79,-13,-50
-96,-51,37,70,-67,-2,85,-34,-6,-79,-13,-50
-102,-51,43,76,-73,4,91,-34,0,-73,-13,-50
-96,-39,49,64,-73,9,91,-34,0,-73,-7,-50
-102,-45,49,70,-79,9,97,-34,5,-73,-7,-44
-102,-51,43,76,-73,4,97,-34,0,-73,-7,-44
-102,-51,43,76,-73,4,91,-34,-6,-73,-7,-44
-102,-63,31,82,-67,-8,91,-34,0,-73,-7,-44
-102,-63,31,82,-67,-8,85,-34,-6,-73,-1,-38
-102,-45,49,70,-79,9,79,-34,0,-73,-1,-32
-96,-45,43,70,-73,4,79,-28,5,-73,-1,-32
-96,-45,43,70,-73,4,85,-28,0,-73,-1,-26
-90,-45,37,64,-67,4,85,-22,5,-73,-1,-32
-90,-45,37,64,-67,4,85,-22,5,-73,-1,-32
-96,-45,43,70,-73,4,85,-28,5,-73,-1,-26
-96,-45,43,70,-73,4,85,-28,5,-73,-1,-38
-96,-51,37,70,-67,-2,85,-34,-6,-73,5,-32
-96,-51,37,70,-67,-2,85,-34,-6,-73,5,-32
-102,-45,49,70,-79,9,85,-34,-6,-73,5,-32
-102,-45,49,70,-79,9,85,-34,-6,-73,5,-26
-102,-51,43,76,-73,4,79,-34,-6,-73,5,-20
-102,-51,43,76,-73,4,79,-34,-6,-73,5,-20
-102,-45,49,70,-79,9,85,-34,-6,-73,5,-26
-102,-45,49,70,-79,9,85,-34,-12,-73,5,-26
-102,-39,55,70,-79,9,85,-28,-12,-73,5,-44
-102,-39,55,70,-79,9,85,-28,-12,-79,5,-44
-102,-45,49,70,-79,9,85,-28,-18,-79,5,-44
-96,-45,43,70,-73,4,85,-28,-24,-79,-1,-38
-96,-51,37,70,-67,-2,79,-28,-24,-79,-1,-32
-96,-51,37,70,-67,-2,79,-28,-24,-79,-1,-26
-102,-45,49,70,-79,9,85,-28,-24,-79,-1,-20
-102,-57,37,76,-73,-2,85,-34,-24,-85,-1,-20
-102,-51,43,76,-73,4,91,-34,-30,-85,-1,-26
-96,-51,37,70,-67,-2,91,-34,-30,-85,-1,-38
-90,-45,37,64,-67,4,85,-40,-30,-79,-1,-32
-90,-45,37,64,-67,4,85,-40,-30,-85,-1,-32
-90,-39,43,64,-67,9,73,-40,-30,-79,-7,-26
-90,-33,49,58,-73,9,73,-40,-30,-79,-7,-26
-90,-33,49,58,-73,9,79,-52,-36,-85,-7,-32
-90,-33,49,58,-73,9,79,-52,-36,-85,-7,-32
-84,-39,37,58,-61,4,85,-46,-48,-91,-13,-32
-84,-39,37,58,-61,4,85,-46,-48,-91,-13,-26
-90,-45,37,64,-67,4,85,-58,-48,-97,-13,-14
-90,-45,37,64,-67,4,85,-58,-48,-97,-13,-14
-96,-51,37,70,-67,-2,85,-64,-42,-97,-13,-20
-96,-45,43,70,-73,4,85,-70,-42,-103,-13,-20
-96,-45,43,70,-73,4,79,-70,-48,-103,-13,-20
-96,-45,43,70,-73,4,79,-70,-48,-103,-19,-20
-96,-45,43,70,-73,4,85,-70,-60,-103,-19,-32
-96,-45,43,70,-73,4,85,-70,-60,-103,-19,-38
-96,-45,43,70,-73,4,85,-64,-66,-103,-25,-32
-96,-51,37,70,-67,-2,85,-70,-66,-109,-25,-26
-96,-51,37,70,-67,-2,85,-64,-66,-109,-19,-14
-90,-51,31,70,-61,-2,79,-64,-66,-109,-19,-14
-90,-45,37,64,-67,4,85,-64,-66,-109,-25,-20
-96,-45,43,70,-73,4,79,-70,-72,-109,-31,-20
-102,-57,37,76,-73,-2,85,-82,-72,-109,-49,-32
-102,-57,37,76,-73,-2,85,-82,-72,-109,-49,-32
-102,-51,43,76,-73,4,85,-76,-72,-109,-43,-26
-102,-51,43,76,-73,4,85,-76,-72,-109,-43,-26
-102,-51,43,76,-73,4,79,-76,-78,-115,-37,-20
-102,-51,43,76,-73,4,73,-70,-78,-115,-31,-14
-96,-45,43,70,-73,4,73,-70,-84,-115,-31,-20
-96,-51,37,70,-67,-2,73,-70,-84,-115,-31,-20
-96,-57,31,76,-67,-8,67,-76,-96,-121,-31,-20
-96,-57,31,76,-67,-8,67,-76,-102,-121,-37,-20
-102,-51,43,76,-73,4,67,-82,-102,-127,-43,-26
-102,-57,37,76,-73,-2,67,-82,-102,-127,-43,-26
-120,-69,43,94,-85,-8,67,-100,-102,-133,-49,-32
-120,-75,37,94,-79,-14,67,-88,-102,-127,-55,-26
-108,-63,37,82,-73,-8,67,-88,-102,-133,-49,-20
-102,-57,37,76,-73,-2,67,-94,-102,-133,-49,-20
-90,-45,37,64,-67,4,67,-94,-96,-139,-43,-26
-84,-45,31,64,-61,-2,67,-94,-96,-145,-43,-26
-90,-33,49,58,-73,9,61,-94,-96,-133,-43,-14
-102,-51,43,76,-73,4,61,-100,-108,-145,-61,-20
-96,-45,43,70,-73,4,61,-94,-102,-145,-55,-14
-96,-45,43,70,-73,4,61,-94,-102,-145,-55,-14
-90,-39,43,64,-67,9,61,-88,-96,-145,-49,-8
-90,-39,43,64,-67,9,61,-88,-96,-145,-49,-8
-96,-39,49,64,-73,9,55,-94,-102,-145,-49,-8
-96,-39,49,64,-73,9,55,-100,-108,-145,-49,-8
-96,-39,49,64,-73,9,49,-106,-114,-145,-49,-20
-96,-39,49,64,-73,9,49,-106,-114,-145,-49,-20
-90,-39,43,64,-67,9,55,-106,-108,-145,-49,-20
-84,-39,37,58,-61,4,55,-106,-108,-145,-49,-20
-78,-33,37,52,-61,9,55,-100,-102,-139,-49,-20
-90,-39,43,64,-67,9,55,-100,-102,-139,-49,-20
-78,-39,31,58,-55,4,61,-100,-108,-145,-55,-14
-78,-21,49,46,-67,9,67,-100,-108,-145,-55,-14
-78,-33,37,52,-61,9,73,-100,-108,-151,-55,-8
-90,-39,43,64,-67,9,79,-100,-108,-151,-55,-14
-96,-45,43,70,-73,4,73,-100,-114,-151,-61,-14
-90,-39,43,64,-67,9,67,-106,-114,-157,-61,-8
-96,-45,43,70,-73,4,61,-106,-120,-157,-67,-8
-96,-45,43,70,-73,4,61,-106,-126,-157,-67,-14
-78,-33,37,52,-61,9,67,-106,-120,-151,-61,-14
-78,-33,37,52,-61,9,73,-100,-114,-151,-61,-8
-78,-27,43,52,-61,9,73,-100,-108,-145,-55,-8
-90,-27,55,58,-73,9,73,-100,-108,-145,-55,-8
-84,-27,49,52,-67,9,73,-100,-102,-139,-61,-8
-78,-15,55,46,-67,15,79,-94,-102,-139,-55,-8
-84,-21,55,52,-73,9,79,-94,-102,-133,-61,-2
-96,-21,67,58,-85,15,79,-76,-96,-133,-61,-2
-78,2,73,34,-79,33,91,-76,-84,-121,-49,16
-78,2,73,34,-79,33,97,-70,-84,-115,-43,16
-72,2,73,28,-73,33,97,-70,-78,-109,-43,22
-66,2,73,22,-67,39,97,-70,-78,-109,-37,28
-72,2,73,28,-73,33,109,-70,-78,-115,-37,28
-72,2,67,34,-73,27,109,-70,-78,-115,-43,28
-78,-3,67,40,-73,27,115,-64,-78,-121,-43,28
-66,8,79,22,-73,45,115,-58,-66,-115,-37,28
-72,8,85,22,-79,45,121,-58,-60,-109,-25,34
-78,14,97,22,-85,57,121,-46,-54,-103,-19,46
-72,20,97,16,-85,57,115,-46,-60,-103,-19,46
-78,26,109,16,-91,69,97,-58,-60,-103,-19,46
-66,32,103,10,-85,69,97,-58,-54,-97,-13,58
-54,32,91,4,-73,63,85,-64,-60,-97,-13,64
-42,38,85,4,-61,63,79,-76,-60,-91,-7,70
-42,44,91,4,-67,69,73,-88,-66,-103,-7,76
-48,56,109,4,-79,81,73,-106,-90,-115,-13,82
-48,68,121,-1,-85,93,61,-130,-102,-127,-13,82
-60,44,109,4,-85,75,43,-148,-132,-145,-25,76
-60,38,103,4,-79,69,25,-160,-138,-151,-25,76
-36,32,73,4,-55,51,19,-154,-132,-145,-25,82
-30,38,73,4,-49,57,7,-160,-132,-139,-19,82
-18,32,55,-1,-37,45,1,-160,-132,-133,-19,94
-13,32,43,-7,-25,39,-5,-172,-138,-133,-19,94
-13,32,43,-7,-25,39,-5,-178,-144,-139,-19,94
-13,32,43,-7,-25,39,-5,-166,-144,-133,-13,100
-13,26,43,-1,-25,33,7,-166,-138,-139,-13,100
-24,8,37,4,-31,21,19,-160,-138,-139,-13,94
-30,2,37,4,-31,21,25,-148,-132,-139,-25,88
-42,-9,25,22,-37,9,43,-148,-126,-139,-31,82
-60,-27,25,40,-43,4,55,-136,-120,-151,-37,64
-66,-57,13,58,-37,-20,61,-124,-120,-157,-55,58
-84,-69,13,76,-49,-26,73,-118,-120,-163,-61,34
-90,-69,13,76,-55,-20,73,-118,-120,-163,-67,28
-90,-69,13,76,-55,-20,79,-118,-126,-169,-79,22
-96,-81,13,88,-55,-32,79,-118,-132,-175,-91,10
-96,-87,13,88,-49,-38,91,-118,-132,-163,-85,10
-90,-75,13,82,-49,-26,91,-112,-126,-163,-73,10
-96,-87,13,88,-49,-38,91,-112,-114,-163,-85,10
-84,-75,13,76,-43,-32,97,-100,-108,-169,-79,22
-48,-33,13,40,-31,-8,115,-76,-90,-139,-61,40
-30,-21,13,22,-19,-2,133,-58,-66,-127,-55,46
-60,-51,13,52,-31,-20,127,-52,-66,-115,-49,40
-84,-63,13,70,-49,-20,133,-28,-54,-103,-49,46
-66,-39,19,52,-43,-2,169,20,-6,-73,-31,64
-54,-27,19,40,-37,4,205,25,5,-43,-13,82
-78,-51,19,64,-49,-8,211,37,5,-43,-25,88
-90,-63,19,76,-55,-14,223,43,17,-43,-19,82
-60,-45,13,52,-37,-14,235,61,35,-13,-1,100
-30,-33,2,28,-14,-14,229,73,53,-1,5,106
-42,-57,-10,46,-14,-32,205,61,59,-7,16,118
-54,-57,2,52,-25,-26,193,73,59,4,16,124
-18,-27,-4,22,-14,-14,181,103,95,28,40,129
5,2,-10,4,4,-2,151,115,113,58,58,159
-1,-3,-10,4,4,-2,127,121,125,64,76,177
11,-15,-34,4,22,-20,79,103,119,76,88,189
83,2,-88,-37,82,-38,1,85,119,100,118,207
143,2,-148,-67,142,-68,-64,91,125,124,154,243
161,-45,-214,-49,184,-128,-154,55,113,118,178,243
209,-93,-304,-49,250,-200,-262,25,101,130,196,261
281,-105,-394,-85,334,-242,-346,37,107,148,226,297
353,-99,-460,-121,406,-272,-400,61,131,184,256,327
395,-129,-526,-127,460,-326,-466,61,155,214,292,351
455,-153,-610,-145,526,-380,-562,37,155,232,328,369
509,-171,-688,-169,598,-428,-676,25,167,244,352,393
581,-201,-784,-187,682,-488,-766,8,155,262,376,417
677,-225,-904,-223,784,-560,-874,-34,143,268,394,441
755,-243,-1006,-247,880,-626,-976,-46,137,280,406,447
839,-255,-1102,-283,964,-680,-1042,-64,173,334,436,459
899,-255,-1162,-313,1024,-710,-1120,-136,173,370,472,501
953,-255,-1210,-343,1078,-728,-1252,-316,83,376,520,555
1007,-237,-1252,-379,1132,-740,-1420,-562,-30,382,604,621
1085,-237,-1330,-421,1204,-782,-1582,-784,-138,406,706,717
1193,-255,-1450,-463,1318,-854,-1744,-976,-234,412,784,777
1301,-273,-1582,-505,1444,-926,-1882,-1168,-336,418,844,825
1391,-267,-1666,-553,1522,-962,-1990,-1330,-414,460,952,885
1469,-195,-1672,-637,1570,-932,-2110,-1504,-468,568,1132,1053
1553,-87,-1648,-727,1600,-866,-2206,-1672,-498,694,1336,1221
1571,-3,-1582,-775,1576,-788,-2212,-1750,-492,808,1498,1365
1499,20,-1474,-757,1486,-722,-2140,-1720,-444,928,1636,1479
1397,92,-1300,-739,1348,-596,-1996,-1642,-396,1012,1720,1551
1235,170,-1066,-703,1156,-446,-1834,-1552,-354,1042,1774,1587
1073,182,-892,-625,982,-350,-1660,-1438,-336,976,1702,1521
887,116,-766,-499,826,-320,-1444,-1282,-348,718,1414,1293
635,8,-622,-319,628,-296,-1156,-1078,-432,286,922,921
353,-81,-442,-133,394,-254,-880,-892,-528,-157,400,543
119,-171,-292,16,208,-230,-646,-724,-618,-481,-25,207
-7,-225,-226,106,106,-224,-448,-520,-540,-559,-247,10
-24,-231,-202,124,82,-218,-292,-328,-372,-409,-235,-14
-36,-219,-178,124,64,-200,-208,-214,-270,-283,-163,34
-90,-225,-130,154,10,-176,-154,-184,-252,-259,-151,40
-66,-177,-106,118,10,-140,-106,-124,-192,-223,-121,58
-30,-93,-58,58,4,-74,-58,-82,-120,-157,-73,94
-60,-75,-10,64,-19,-44,-34,-64,-90,-151,-79,82
-102,-69,25,82,-67,-14,-28,-58,-66,-163,-103,70
-96,-15,73,52,-85,21,-5,-34,-48,-151,-97,82
-102,14,121,34,-109,69,19,-10,-48,-151,-91,82
-126,2,121,58,-127,57,19,-4,-78,-169,-115,70
-108,-3,97,52,-103,39,37,2,-90,-175,-121,64
-108,-27,73,64,-91,15,49,14,-96,-181,-127,70
-162,-93,61,124,-115,-8,31,2,-138,-205,-151,40
-192,-117,67,154,-133,-20,31,-4,-138,-211,-163,34
-186,-117,61,148,-127,-20,43,-4,-120,-211,-157,28
-180,-93,79,136,-133,-2,49,2,-102,-205,-157,34
-168,-57,103,112,-139,15,61,14,-72,-193,-145,52
-162,-21,133,88,-151,51,73,20,-54,-193,-145,58
-180,-33,139,106,-163,45,85,25,-60,-187,-145,58
-180,-33,139,106,-163,45,91,25,-60,-187,-145,58
-186,-33,145,106,-169,51,91,37,-66,-181,-139,64
-186,-39,139,112,-163,45,103,37,-72,-181,-139,64
-186,-51,127,118,-157,33,103,37,-84,-187,-145,58
-192,-69,115,130,-157,15,103,37,-84,-187,-151,52
-192,-75,109,130,-151,9,103,37,-84,-193,-151,58
-186,-63,115,124,-151,21,115,37,-72,-181,-151,58
-180,-45,127,112,-157,33,121,43,-48,-169,-139,58
-174,-27,139,100,-157,51,127,49,-36,-169,-139,58
-168,-21,139,94,-157,51,127,49,-24,-163,-139,64
-162,-3,151,82,-157,69,139,49,-24,-151,-139,82
-156,-9,139,82,-151,57,139,61,-30,-151,-139,82
-168,-15,145,88,-157,57,139,73,-36,-151,-139,82
-180,-33,139,106,-163,45,139,79,-42,-151,-139,82
-180,-39,133,106,-157,39,145,85,-54,-151,-139,76
-174,-27,139,100,-157,51,151,79,-48,-157,-133,76
-174,-9,157,88,-169,69,157,91,-24,-145,-133,76
-162,-3,151,82,-157,69,169,85,-12,-151,-133,76
-162,2,163,76,-163,81,169,85,5,-151,-133,76
-150,8,163,64,-157,87,169,103,5,-139,-121,64
-150,26,181,52,-163,105,169,109,5,-139,-121,64
-156,26,187,58,-169,105,169,121,5,-127,-127,52
-162,32,199,58,-181,117,175,121,5,-127,-127,46
-162,32,199,58,-181,117,187,121,5,-127,-121,28
-156,32,193,52,-175,111,193,139,5,-127,-121,16
-156,26,187,58,-169,105,193,145,5,-133,-121,-2
-162,32,199,58,-181,117,193,145,5,-127,-121,-20
-156,50,211,46,-181,129,199,163,17,-115,-121,-32
-156,50,211,46,-181,129,205,163,29,-109,-121,-38
-168,56,229,46,-199,141,217,169,47,-103,-121,-50
-156,62,223,40,-187,141,229,187,53,-103,-121,-56
-150,68,223,34,-187,147,235,193,53,-97,-109,-50
-150,68,223,34,-187,147,247,211,59,-91,-109,-50
-150,74,229,28,-187,153,265,211,65,-85,-103,-50
-150,86,241,22,-193,165,265,229,71,-73,-103,-50
-156,86,247,28,-199,165,277,235,83,-67,-103,-56
-156,80,241,28,-199,159,289,247,89,-67,-103,-56
-168,86,253,34,-211,171,295,253,89,-61,-109,-68
-180,80,259,40,-223,171,307,265,107,-61,-109,-68
-180,92,271,34,-229,183,325,277,125,-49,-103,-68
-180,104,283,28,-235,195,337,289,137,-43,-103,-62
-186,110,295,28,-241,207,355,301,143,-31,-103,-62
-186,110,295,28,-241,207,367,319,155,-19,-103,-62
-192,116,307,28,-253,213,391,337,167,-7,-91,-56
-192,122,313,28,-253,219,409,355,191,4,-91,-50
-204,134,337,28,-265,237,421,367,209,4,-79,-44
-204,134,337,28,-265,237,439,385,221,10,-73,-44
-204,146,349,22,-271,249,457,403,245,16,-79,-44
-216,146,361,28,-283,249,475,427,263,28,-79,-44
-222,158,379,22,-295,267,493,445,293,40,-79,-44
-222,164,385,22,-301,273,511,469,311,46,-73,-44
-210,182,391,4,-295,285,535,499,323,64,-61,-38
-210,194,403,4,-301,297,559,517,341,82,-55,-26
-216,194,409,4,-307,297,583,547,359,100,-43,-20
-222,200,421,4,-319,309,601,577,383,112,-43,-8
-228,200,427,4,-325,309,613,595,407,124,-43,-8
-222,200,421,4,-319,309,643,613,431,148,-37,-2
-228,218,445,4,-331,327,667,637,449,154,-37,-2
-234,212,445,4,-337,327,673,649,473,166,-31,-2
-228,224,451,4,-337,333,697,685,491,184,-25,4
-228,242,469,-1,-343,351,715,715,515,202,-19,16
-228,254,487,-7,-355,369,727,745,533,214,-19,28
-228,266,499,-13,-361,381,739,769,563,232,-7,28
-222,278,499,-25,-361,393,745,787,575,244,5,28
-216,290,505,-31,-361,399,757,793,593,250,5,34
-210,296,505,-37,-355,405,769,805,611,262,16,40
-198,314,511,-55,-355,417,787,823,629,280,22,52
-204,308,511,-49,-355,411,793,835,641,298,22,46
-210,314,523,-49,-367,423,799,847,659,304,22,52
-210,314,523,-49,-367,423,817,859,659,316,16,58
-204,314,517,-49,-361,417,817,865,671,328,28,58
-204,320,523,-55,-361,423,811,877,677,346,34,70
-198,320,517,-55,-355,423,811,877,683,352,52,76
-198,320,517,-55,-355,423,811,883,689,364,64,88
-186,326,511,-67,-349,423,811,883,695,370,76,94
-180,332,511,-73,-343,423,799,871,695,376,70,100
-174,326,499,-73,-337,417,775,853,689,370,76,112
-162,332,499,-79,-325,417,751,829,671,376,82,112
-144,332,481,-91,-307,405,727,805,659,382,88,124
-144,326,475,-85,-307,399,721,787,641,376,88,129
-138,308,451,-79,-289,381,697,769,629,376,94,129
-132,308,445,-85,-283,375,667,751,611,370,100,129
-120,308,433,-91,-271,369,631,739,599,358,100,129
-96,308,409,-103,-253,357,589,709,569,352,106,135
-90,302,397,-103,-247,351,553,667,551,334,118,147
-84,296,385,-103,-235,339,529,631,521,322,124,153
-66,290,361,-109,-217,327,499,595,497,310,124,159
-60,272,337,-103,-199,303,475,559,467,298,124,153
-48,272,325,-109,-187,297,445,517,437,268,124,153
-48,248,301,-97,-175,273,421,481,395,256,112,147
-42,242,289,-97,-169,267,379,445,359,244,112,153
-30,230,259,-91,-145,249,361,403,329,220,106,141
-30,224,253,-91,-145,243,325,367,299,190,100,129
-24,194,223,-79,-121,207,295,325,257,166,88,129
-18,194,217,-79,-115,207,259,289,227,142,88,118
-18,194,217,-79,-115,207,235,265,203,124,76,94
-18,182,205,-73,-109,195,223,241,173,106,70,64
-18,152,175,-61,-97,165,199,205,143,82,58,34
-18,146,169,-55,-91,159,175,187,119,64,46,4
-13,134,151,-55,-79,141,175,169,107,52,46,-8
-13,134,151,-55,-79,141,157,157,89,40,34,-14
-13,128,139,-55,-73,135,151,133,77,28,28,-32
-13,122,139,-49,-73,129,127,97,53,22,16,-50
-13,104,121,-37,-67,111,115,79,17,4,16,-50
-13,98,115,-37,-61,105,103,61,5,-13,16,-50
-13,92,109,-31,-61,99,91,55,5,-25,11,-44
-13,74,91,-25,-49,81,85,49,-6,-37,11,-38
-18,68,91,-19,-55,81,79,37,-12,-43,5,-50
-13,62,79,-19,-43,69,67,25,-18,-55,-1,-68
-18,56,79,-13,-49,69,67,25,-24,-49,-7,-74
-18,56,79,-13,-49,69,67,20,-24,-55,-13,-80
-18,44,67,-7,-43,57,67,14,-36,-67,-19,-86
-18,38,61,-1,-37,51,61,8,-36,-79,-25,-92
-24,32,61,4,-43,45,55,2,-36,-91,-31,-98
-24,26,55,4,-37,39,55,-4,-48,-97,-31,-98
-30,26,61,4,-43,45,49,-10,-60,-109,-37,-104
-30,26,61,4,-43,45,43,-22,-66,-109,-37,-104
-24,20,49,4,-37,33,37,-34,-78,-115,-37,-110
-24,20,49,4,-37,33,31,-40,-84,-115,-37,-110
-18,26,49,4,-31,39,31,-34,-72,-109,-31,-110
-18,26,49,4,-31,39,31,-28,-72,-103,-31,-110
-13,38,55,-7,-31,45,37,-22,-60,-103,-31,-110
-13,38,55,-7,-31,45,49,-16,-54,-97,-31,-110
-13,32,49,-1,-31,39,43,-16,-60,-103,-31,-110
-13,44,61,-7,-37,51,37,-16,-66,-103,-31,-104
-13,26,43,-1,-25,33,31,-22,-72,-109,-31,-98
-13,8,25,4,-19,15,31,-22,-90,-109,-31,-98
-13,8,25,4,-19,15,31,-22,-84,-109,-37,-104
-30,8,43,4,-37,27,31,-34,-84,-109,-37,-110
-18,2,25,4,-19,15,31,-34,-78,-103,-43,-110
-18,2,13,4,-19,9,31,-34,-78,-103,-43,-110
-30,2,25,10,-31,9,37,-34,-66,-103,-43,-110
-18,2,19,4,-19,9,37,-16,-66,-103,-43,-110
-18,2,19,4,-19,9,49,-16,-60,-103,-43,-104
-18,2,19,4,-19,9,49,-22,-60,-103,-43,-104
-24,8,37,4,-31,21,43,-28,-66,-103,-43,-104
-18,2,19,4,-19,9,43,-28,-66,-91,-37,-104
-24,2,25,4,-25,9,37,-22,-72,-109,-37,-98
-24,2,25,4,-25,9,37,-22,-72,-109,-37,-98
-18,2,19,4,-19,9,37,-22,-66,-103,-37,-92
-18,2,19,4,-19,9,37,-22,-66,-103,-37,-92
-13,2,13,4,-14,9,37,-22,-60,-91,-37,-86
-13,2,19,4,-14,9,37,-22,-54,-91,-37,-86
-13,2,19,4,-14,9,37,-16,-60,-91,-37,-86
-13,2,19,4,-14,9,37,-16,-60,-85,-37,-86
-18,8,31,4,-25,21,43,-4,-60,-85,-31,-86
-24,8,37,4,-31,21,49,2,-60,-85,-31,-86
-18,14,37,4,-25,27,43,2,-66,-85,-25,-86
-18,14,37,4,-25,27,43,-4,-66,-79,-25,-80
-13,20,37,4,-25,27,37,-4,-66,-79,-25,-68
-13,20,37,4,-25,27,37,-10,-66,-79,-25,-62
-18,20,43,4,-31,33,37,-4,-60,-67,-25,-62
-13,26,43,-1,-25,33,37,-4,-60,-67,-19,-62
-18,20,43,4,-31,33,37,2,-54,-61,-19,-56
-18,8,31,4,-25,21,37,2,-60,-61,-19,-56
-18,8,31,4,-25,21,37,2,-66,-55,-19,-62
-18,2,19,4,-19,9,37,2,-60,-55,-19,-62
-18,2,19,4,-19,9,37,2,-66,-49,-13,-62
-18,14,37,4,-25,27,31,2,-60,-49,-13,-56
-13,20,37,4,-25,27,25,8,-54,-43,-13,-50
-13,26,43,-1,-25,33,31,8,-60,-43,-13,-44
-13,32,43,-7,-25,39,25,14,-54,-37,-13,-44
-13,38,49,-7,-25,45,25,14,-54,-37,-13,-44
-13,38,55,-7,-31,45,25,8,-54,-37,-13,-38
-13,32,49,-1,-31,39,25,8,-54,-37,-13,-50
-13,26,43,-1,-25,33,25,2,-66,-37,-7,-44
-13,20,37,4,-25,27,25,2,-66,-37,-7,-44
-13,26,43,-1,-25,33,31,2,-66,-37,-7,-44
-13,26,43,-1,-25,33,31,2,-66,-37,-7,-38
-13,20,31,-1,-19,27,31,2,-66,-37,-7,-32
-13,20,31,-1,-19,27,31,2,-66,-37,-7,-32
-13,20,31,-1,-19,27,31,-4,-66,-31,-7,-32
-13,20,31,-1,-19,27,31,-4,-72,-31,-7,-32
-13,20,31,-1,-19,27,25,-4,-72,-25,-7,-44
-13,20,31,-1,-19,27,25,-4,-72,-31,-7,-44
-13,26,37,-1,-19,33,31,-4,-78,-37,-1,-44
-13,26,31,-7,-14,33,37,-4,-84,-37,-7,-44
-13,32,37,-7,-19,39,37,-4,-84,-43,-1,-38
-13,32,37,-7,-19,39,43,-4,-84,-43,-1,-38
-13,26,43,-1,-25,33,49,-4,-84,-37,-7,-32
-13,14,31,4,-19,21,55,-10,-84,-43,-7,-32
-18,8,31,4,-25,21,61,-10,-90,-37,-13,-38
-13,8,25,4,-19,15,67,-10,-90,-37,-13,-50
-13,8,25,4,-19,15,61,-16,-90,-37,-13,-44
-13,8,25,4,-19,15,61,-16,-90,-43,-13,-44
-18,8,31,4,-25,21,49,-16,-90,-43,-19,-38
-18,14,37,4,-25,27,49,-16,-90,-43,-19,-38
-24,14,43,4,-31,27,49,-22,-96,-49,-19,-38
-24,14,43,4,-31,27,49,-22,-96,-49,-19,-38
-24,8,37,4,-31,21,49,-10,-108,-55,-25,-32
-24,8,37,4,-31,21,49,-10,-108,-55,-25,-26
-24,2,31,4,-25,15,43,-22,-108,-61,-25,-14
-24,2,31,4,-25,15,43,-22,-108,-61,-25,-14
-24,2,25,4,-25,9,37,-28,-102,-61,-25,-20
-24,2,31,4,-25,15,37,-34,-102,-67,-25,-20
-18,2,19,4,-19,9,31,-34,-108,-67,-25,-20
-18,2,19,4,-19,9,31,-34,-108,-67,-31,-20
-13,2,13,4,-14,9,37,-34,-120,-67,-31,-32
-13,2,13,4,-14,9,37,-34,-120,-67,-31,-38
-13,2,13,4,-14,9,37,-34,-120,-67,-37,-38
-13,2,13,4,-14,9,37,-40,-120,-73,-37,-32
-13,2,13,4,-14,9,37,-40,-114,-73,-31,-26
-13,2,13,4,-14,9,31,-40,-114,-73,-31,-26
-13,2,13,4,-14,9,31,-34,-114,-79,-31,-26
-24,2,25,4,-25,9,25,-40,-120,-79,-37,-26
-36,-9,19,22,-31,9,25,-46,-120,-85,-49,-32
-42,-9,25,22,-37,9,25,-46,-120,-85,-49,-32
-42,-3,31,22,-37,9,25,-40,-120,-85,-43,-32
-42,-3,31,22,-37,9,31,-40,-120,-85,-43,-32
-42,-3,31,22,-37,9,25,-40,-126,-91,-37,-32
-42,-3,31,22,-37,9,25,-34,-126,-91,-31,-26
-36,2,31,16,-37,9,31,-40,-126,-85,-37,-32
-36,-3,25,16,-31,9,31,-40,-126,-85,-37,-32
-36,-9,19,22,-31,9,31,-52,-132,-85,-43,-32
-36,-9,19,22,-31,9,31,-52,-138,-85,-49,-32
-30,2,25,10,-31,9,31,-52,-138,-91,-49,-26
-30,2,25,10,-31,9,31,-52,-138,-91,-49,-26
-36,-3,25,16,-31,9,31,-64,-138,-97,-49,-20
-36,-3,25,16,-31,9,31,-52,-138,-91,-55,-14
-24,2,25,4,-25,9,31,-52,-138,-91,-55,-20
-36,-3,25,16,-31,9,31,-46,-138,-91,-55,-20
-48,-27,13,34,-31,-2,19,-58,-144,-103,-55,-26
-54,-27,19,40,-37,4,25,-64,-156,-109,-61,-32
-48,-21,19,34,-37,4,31,-58,-150,-103,-61,-26
-48,-15,25,28,-37,9,31,-58,-150,-103,-61,-26
-42,-9,25,22,-37,9,37,-52,-144,-97,-61,-20
-42,-3,31,22,-37,9,37,-52,-144,-97,-61,-20
-42,-9,25,22,-37,9,37,-52,-144,-103,-55,-14
-42,-9,25,22,-37,9,37,-58,-150,-103,-55,-14
-36,-15,13,22,-25,4,37,-58,-150,-109,-49,-20
-36,-15,13,22,-25,4,37,-58,-150,-109,-49,-20
-36,-21,13,28,-25,-2,31,-64,-156,-115,-55,-26
-30,-21,13,22,-19,-2,31,-64,-162,-115,-55,-26
-30,-21,13,22,-19,-2,19,-64,-168,-115,-61,-32
-42,-27,13,34,-25,-2,19,-64,-174,-115,-61,-32
-36,-21,13,28,-25,-2,19,-64,-174,-115,-67,-32
-36,-3,25,16,-31,9,19,-64,-174,-115,-67,-32
-42,-9,25,22,-37,9,19,-64,-168,-115,-67,-32
-54,-15,31,34,-43,9,19,-64,-168,-115,-67,-38
-48,-15,25,28,-37,9,25,-58,-168,-115,-67,-32
-42,-9,25,22,-37,9,19,-64,-168,-121,-67,-26
-36,-9,19,22,-31,9,25,-58,-168,-121,-67,-20
-36,-9,19,22,-31,9,25,-58,-174,-121,-67,-26
-24,-3,13,10,-19,9,37,-58,-174,-115,-61,-20
-24,-3,13,10,-19,9,43,-52,-168,-115,-61,-14
-30,-3,19,16,-25,9,49,-52,-168,-109,-55,-8
-42,-3,31,22,-37,9,49,-52,-168,-109,-55,-8
-30,2,25,10,-31,9,49,-52,-162,-103,-49,-8
-24,2,31,4,-25,15,55,-46,-162,-103,-43,-8
-24,2,31,4,-25,15,55,-46,-162,-97,-37,-2
-36,2,43,10,-37,21,55,-28,-156,-97,-37,-2
-30,20,55,4,-43,39,61,-28,-144,-91,-31,10
-30,20,55,4,-43,39,67,-22,-144,-85,-25,10
-36,20,61,4,-49,39,61,-22,-138,-85,-31,10
-30,26,61,4,-43,45,61,-22,-138,-85,-25,16
-24,32,61,4,-43,45,67,-16,-138,-79,-19,22
-18,26,49,4,-31,39,67,-16,-138,-79,-25,22
-13,32,49,-1,-31,39,67,-4,-138,-73,-19,28
-7,56,55,-25,-25,57,67,2,-126,-67,-13,28
-13,56,61,-19,-31,63,73,-4,-120,-67,-1,34
-13,62,67,-25,-31,69,79,2,-114,-61,5,46
-7,68,67,-31,-31,69,73,-4,-120,-67,5,46
-7,74,73,-31,-31,75,61,-22,-120,-67,5,46
-13,74,79,-31,-37,81,49,-28,-126,-73,-1,46
-13,68,73,-25,-37,75,37,-34,-138,-73,-1,46
-13,68,79,-25,-43,75,19,-52,-150,-79,-7,40
-18,68,91,-19,-55,81,13,-64,-162,-91,-7,40
-13,80,97,-25,-55,87,7,-76,-180,-103,-19,46
-13,92,109,-31,-61,99,-5,-100,-192,-115,-19,46
-13,68,85,-19,-49,75,-16,-112,-216,-133,-37,40
-13,62,79,-19,-43,69,-34,-124,-222,-139,-37,40
-1,68,61,-31,-25,69,-34,-118,-216,-133,-31,46
5,74,61,-37,-19,69,-46,-124,-210,-121,-25,52
17,80,55,-49,-14,69,-46,-124,-210,-115,-19,64
29,80,43,-55,-14,63,-58,-136,-210,-109,-19,70
23,68,37,-43,-14,57,-52,-124,-204,-109,-13,64
17,56,31,-37,-14,45,-46,-106,-198,-103,-7,64
5,38,25,-19,-14,33,-28,-88,-180,-103,-1,58
-13,8,13,4,-14,15,-16,-76,-174,-103,-1,46
-13,8,13,4,-14,15,-5,-64,-174,-109,-19,34
-13,2,13,4,-14,9,1,-64,-168,-109,-31,28
-24,-9,13,16,-19,4,19,-52,-168,-127,-43,4
-30,-33,2,28,-14,-14,25,-40,-168,-133,-67,-2
-42,-45,2,40,-19,-20,31,-52,-174,-139,-61,-14
-48,-45,8,46,-25,-20,31,-58,-180,-139,-67,-20
-42,-45,2,40,-19,-20,31,-76,-192,-145,-67,-14
-48,-57,-4,52,-19,-32,31,-82,-204,-151,-79,-26
-60,-75,-10,64,-19,-44,19,-70,-192,-151,-73,-26
-42,-51,-4,46,-14,-26,31,-52,-174,-139,-61,-14
-13,-27,-10,16,-8,-20,43,-28,-162,-127,-49,-2
-24,-39,-10,28,-14,-26,49,-16,-156,-133,-55,-14
-36,-33,8,34,-19,-14,67,-16,-150,-115,-61,-8
-13,-9,2,4,-14,-2,85,2,-126,-91,-43,10
-13,-15,2,10,-14,-8,91,20,-114,-67,-37,4
-24,-27,2,22,-14,-14,121,31,-90,-55,-25,10
-7,-3,-4,4,-2,-2,133,43,-54,-25,-7,28
5,2,-4,-1,4,4,145,61,-48,-19,-13,34
-7,-3,-4,4,-2,-2,151,73,-48,-19,-1,28
-13,-3,8,4,-14,4,175,103,-18,-7,5,34
-13,-9,-4,4,-8,-2,169,121,-12,4,11,40
5,-9,-22,4,10,-14,169,121,5,10,16,34
-7,-21,-22,4,4,-20,157,121,0,16,16,46
-7,-33,-34,10,10,-32,157,133,5,16,22,52
17,-27,-52,4,34,-38,157,139,11,40,28,70
53,2,-58,-19,52,-26,163,151,29,70,70,100
83,2,-82,-37,82,-32,127,145,41,88,100,129
107,-3,-118,-43,112,-56,55,115,35,112,124,153
179,2,-172,-91,178,-74,-10,109,47,136,166,183
215,-9,-226,-97,220,-116,-64,103,53,148,190,207
227,-81,-316,-67,268,-200,-154,91,29,154,202,219
299,-105,-412,-91,352,-254,-244,85,29,166,232,237
377,-117,-496,-127,436,-302,-274,97,47,196,256,261
401,-147,-550,-121,472,-344,-316,121,83,232,292,291
455,-165,-622,-139,532,-392,-394,121,119,256,328,315
497,-201,-706,-145,598,-452,-490,121,143,298,364,345
581,-219,-802,-181,694,-506,-568,169,191,346,400,363
677,-237,-916,-217,790,-572,-616,235,257,418,448,393
731,-279,-1018,-223,874,-650,-688,283,341,472,478,405
791,-303,-1102,-235,946,-704,-736,319,419,538,508,435
875,-279,-1162,-289,1012,-722,-808,301,479,628,574,495
935,-267,-1204,-325,1066,-734,-946,151,431,688,658,561
995,-243,-1246,-373,1120,-740,-1138,-106,281,694,748,633
1103,-231,-1336,-433,1216,-776,-1324,-364,149,712,850,717
1205,-285,-1492,-457,1348,-890,-1486,-574,41,736,928,765
1271,-339,-1618,-463,1444,-974,-1642,-766,-42,784,1030,825
1373,-297,-1678,-529,1522,-980,-1774,-964,-102,898,1210,951
1439,-189,-1630,-619,1528,-908,-1948,-1210,-180,1018,1420,1131
1493,-75,-1576,-709,1534,-824,-2038,-1402,-234,1144,1624,1323
1481,20,-1456,-751,1468,-716,-2008,-1438,-210,1276,1792,1455
1385,56,-1324,-721,1354,-626,-1912,-1390,-144,1396,1900,1545
1241,116,-1126,-679,1186,-494,-1762,-1300,-102,1468,1966,1587
1127,188,-940,-655,1030,-368,-1564,-1192,-78,1450,1960,1563
977,158,-820,-565,904,-326,-1390,-1096,-120,1276,1762,1419
767,38,-724,-403,748,-338,-1168,-952,-210,892,1372,1101
521,-63,-592,-229,556,-326,-892,-814,-384,328,802,681
281,-159,-448,-55,364,-296,-664,-706,-594,-235,244,303
95,-237,-334,64,214,-278,-460,-550,-648,-517,-145,10
11,-261,-280,118,148,-266,-268,-316,-480,-439,-235,-104
5,-243,-256,112,130,-248,-142,-160,-294,-241,-157,-74
-13,-219,-214,106,100,-212,-82,-94,-252,-199,-109,-26
-13,-207,-190,106,82,-200,-40,-64,-234,-193,-103,-26
-7,-165,-166,76,76,-164,-10,-16,-186,-157,-79,-20
5,-105,-118,40,58,-110,25,20,-144,-115,-49,10
-7,-81,-82,34,34,-80,49,25,-120,-109,-49,10
-48,-63,-10,52,-14,-38,61,25,-114,-115,-67,-14
-54,-33,13,40,-37,-2,91,25,-102,-115,-67,-14
-48,2,49,16,-49,21,115,49,-96,-115,-85,-14
-54,2,49,22,-55,21,127,61,-108,-127,-91,-14
-102,-57,37,76,-73,-2,115,55,-126,-145,-115,-26
-120,-111,13,112,-61,-50,109,49,-150,-163,-121,-32
-96,-99,2,94,-43,-50,109,49,-156,-169,-127,-38
-66,-81,-10,70,-25,-44,127,61,-150,-169,-127,-32
-72,-81,-4,76,-31,-44,139,55,-138,-163,-127,-38
-90,-87,8,88,-43,-38,145,49,-138,-169,-133,-56
-96,-75,13,82,-55,-26,145,55,-126,-163,-133,-62
-108,-45,55,76,-85,9,151,61,-114,-157,-133,-56
-114,-21,85,64,-103,27,157,67,-102,-157,-133,-62
-120,-39,73,76,-97,9,169,79,-108,-157,-133,-56
-114,-39,67,76,-91,9,175,79,-114,-157,-133,-56
-108,-45,55,76,-85,9,175,85,-120,-157,-127,-44
-102,-51,43,76,-73,4,187,85,-132,-157,-127,-44
-102,-57,37,76,-73,-2,181,85,-138,-151,-127,-50
-108,-75,25,88,-67,-20,181,85,-132,-151,-133,-56
-108,-75,25,88,-67,-20,175,85,-126,-145,-127,-50
-102,-63,31,82,-67,-8,187,85,-108,-133,-127,-50
-108,-51,49,76,-79,4,187,97,-96,-133,-121,-56
-108,-39,61,70,-85,9,193,103,-84,-139,-121,-56
-114,-39,67,76,-91,9,187,109,-84,-145,-127,-56
-114,-27,79,70,-97,21,199,109,-84,-139,-127,-38
-96,-21,67,58,-85,15,205,115,-84,-133,-121,-32
-102,-21,73,58,-91,21,205,121,-84,-133,-121,-32
-102,-27,67,64,-85,15,211,121,-84,-127,-115,-26
-96,-27,61,58,-79,9,217,121,-90,-127,-115,-32
-96,-21,67,58,-85,15,217,121,-90,-127,-109,-38
-96,-9,79,52,-91,27,223,133,-72,-115,-109,-44
-90,-9,73,46,-85,27,229,133,-66,-115,-109,-50
-90,-3,79,46,-85,33,229,133,-54,-115,-109,-56
-90,-3,79,46,-85,33,229,145,-48,-109,-103,-56
-90,2,91,40,-91,45,229,151,-48,-109,-103,-50
-108,-3,97,52,-103,39,229,157,-48,-103,-115,-50
-114,-3,103,58,-109,45,235,157,-48,-103,-115,-50
-120,-3,109,58,-115,45,241,151,-48,-103,-115,-50
-114,-3,103,58,-109,45,247,169,-36,-103,-115,-50
-120,-9,103,64,-115,39,247,169,-30,-109,-121,-50
-126,-3,115,64,-121,51,247,169,-30,-103,-121,-56
-120,2,127,52,-121,63,247,187,-24,-91,-115,-56
-114,8,127,46,-121,69,253,187,-12,-85,-115,-56
-126,14,145,46,-133,81,259,193,0,-79,-109,-56
-108,26,139,34,-121,81,271,211,5,-79,-109,-56
-114,20,139,40,-127,81,277,211,5,-85,-103,-44
-120,14,139,46,-127,75,289,229,5,-79,-103,-44
-132,8,145,52,-139,75,301,223,5,-85,-103,-38
-138,14,157,52,-145,87,301,241,11,-73,-103,-38
-132,26,163,46,-145,93,325,253,35,-61,-97,-38
-126,32,163,40,-145,99,337,265,41,-55,-97,-38
-126,50,181,28,-151,117,355,271,53,-43,-97,-44
-132,56,193,28,-163,123,367,283,71,-37,-97,-44
-132,62,199,28,-163,129,373,301,83,-37,-97,-44
-132,74,211,22,-169,141,379,307,89,-31,-97,-38
-138,74,217,22,-175,147,385,319,89,-31,-103,-38
-138,74,217,22,-175,147,391,331,95,-19,-103,-38
-144,80,229,22,-187,153,415,349,107,-7,-97,-38
-144,86,235,22,-187,159,433,367,131,4,-97,-32
-156,98,253,22,-205,177,445,379,149,4,-91,-32
-156,98,253,22,-205,177,463,397,161,10,-85,-32
-162,104,265,22,-217,189,481,427,179,16,-85,-32
-174,104,277,28,-229,195,499,451,203,28,-85,-32
-186,110,295,28,-241,207,529,481,227,40,-79,-32
-186,116,301,28,-247,213,547,505,245,46,-73,-32
-174,140,313,10,-247,231,559,517,251,64,-67,-26
-174,152,325,4,-253,243,577,535,269,82,-61,-14
-180,158,337,4,-253,249,589,553,287,100,-55,-8
-186,164,349,4,-265,255,601,577,311,112,-55,4
-180,170,349,4,-259,255,625,607,341,130,-43,10
-174,176,349,4,-259,261,661,637,365,154,-37,16
-168,200,367,-7,-265,279,697,673,389,166,-25,22
-174,200,373,-7,-271,285,709,697,413,178,-19,22
-174,206,379,-7,-271,291,721,721,431,196,-13,22
-174,218,391,-13,-277,303,733,745,461,214,-7,34
-180,230,409,-19,-289,315,739,757,479,226,-7,40
-180,236,415,-19,-295,321,751,781,503,244,5,40
-180,236,415,-19,-295,321,757,799,509,250,11,40
-180,242,421,-25,-295,327,769,805,527,256,11,46
-180,236,415,-19,-295,321,781,817,539,262,16,52
-174,242,421,-31,-295,333,799,835,557,280,22,64
-174,242,421,-31,-295,333,805,847,581,304,34,70
-174,254,433,-37,-301,345,817,865,599,316,40,76
-168,260,433,-43,-295,345,835,877,611,334,46,94
-156,266,427,-49,-289,345,841,889,623,352,64,94
-162,266,433,-49,-295,351,823,889,617,358,58,100
-156,266,427,-49,-289,345,817,883,623,358,70,106
-162,260,427,-43,-289,345,805,877,617,358,70,112
-150,266,421,-55,-283,345,799,871,623,358,76,118
-138,272,415,-61,-271,345,793,871,623,364,82,124
-132,272,409,-67,-265,339,775,853,623,364,88,129
-114,278,397,-79,-253,339,757,841,605,370,106,129
-96,284,385,-91,-241,333,739,817,599,382,112,135
-96,278,379,-85,-241,327,727,793,587,382,118,147
-90,260,355,-79,-223,309,703,769,581,382,124,159
-84,260,349,-85,-217,303,667,745,569,382,136,159
-72,260,337,-91,-205,297,631,727,563,370,136,159
-54,254,313,-97,-187,285,589,685,533,358,130,165
-48,242,295,-91,-175,267,553,643,515,340,142,171
-48,236,283,-85,-169,255,529,595,491,322,136,171
-30,224,253,-91,-145,243,499,559,467,310,136,171
-30,200,235,-79,-133,219,469,523,425,298,136,171
-24,200,229,-79,-127,213,439,493,395,268,136,171
-30,170,205,-61,-115,189,409,451,347,256,124,171
-30,164,199,-61,-115,183,367,421,311,244,124,177
-13,164,175,-73,-91,171,355,397,293,232,124,177
-7,164,163,-79,-79,165,325,367,275,202,118,177
11,152,133,-79,-55,147,301,343,245,190,112,177
29,158,121,-91,-37,141,271,313,227,166,112,177
23,152,121,-85,-43,141,247,283,209,148,94,171
17,134,109,-73,-37,123,241,265,179,130,88,165
11,98,79,-55,-25,93,229,229,155,106,70,153
5,86,73,-43,-25,81,211,211,131,88,58,147
-1,74,67,-37,-25,75,205,199,119,76,64,141
-1,74,67,-37,-25,75,187,187,101,64,52,141
-7,68,67,-31,-31,69,175,169,89,52,52,129
-13,62,67,-25,-31,69,151,133,65,46,40,129
-13,44,49,-13,-25,51,145,121,35,34,34,129
-13,38,43,-13,-19,45,133,109,23,10,28,124
-13,32,37,-7,-19,39,127,109,17,4,22,129
-13,14,19,-1,-14,21,121,109,5,4,22,129
-13,8,13,4,-14,15,121,103,5,-1,16,124
-7,2,13,4,-8,9,109,85,0,-13,16,112
-7,2,8,4,-8,9,115,85,-6,-13,5,112
-7,2,8,4,-8,9,115,79,-12,-19,-1,112
-7,2,2,4,-8,4,115,73,-18,-19,-1,112
-7,-3,-4,4,-2,-2,109,67,-18,-31,-7,106
-13,-3,2,4,-8,4,103,61,-12,-31,-7,106
-13,-9,-4,4,-8,-2,103,55,-24,-37,-7,106
-13,-9,2,4,-14,-2,103,55,-30,-43,-13,112
-13,-9,2,4,-14,-2,103,49,-30,-43,-13,118
-13,-15,-10,4,-2,-8,103,43,-36,-43,-13,124
-13,-15,-10,4,-2,-8,103,43,-36,-43,-13,129
-13,-21,-16,10,-2,-14,103,49,-30,-49,-13,129
-13,-27,-22,10,4,-20,97,49,-36,-49,-13,129
-13,-27,-22,10,4,-20,103,55,-30,-61,-19,129
-13,-33,-28,16,4,-26,109,55,-30,-61,-19,124
-13,-27,-22,10,4,-20,103,55,-36,-61,-19,124
-13,-9,-4,4,-8,-2,97,55,-36,-61,-19,129
-13,-15,-10,4,-2,-8,91,49,-42,-61,-19,129
-13,-27,-22,10,4,-20,91,49,-54,-61,-19,129
-7,-27,-28,10,10,-26,97,49,-48,-67,-19,124
-13,-27,-10,16,-8,-20,97,37,-48,-67,-19,124
-7,-33,-34,10,10,-32,103,37,-42,-67,-19,124
-7,-45,-46,16,16,-44,103,37,-42,-67,-19,124
-13,-45,-28,28,-2,-38,103,43,-42,-67,-19,124
-13,-39,-34,16,10,-32,103,61,-42,-67,-19,124
-13,-39,-28,22,4,-32,109,67,-48,-67,-19,124
-13,-39,-28,22,4,-32,109,61,-48,-67,-19,124
-13,-21,-16,10,-2,-14,115,55,-42,-61,-25,129
-7,-33,-34,10,10,-32,115,55,-42,-49,-19,129
-1,-27,-34,4,16,-26,121,61,-36,-61,-25,129
-1,-27,-34,4,16,-26,121,61,-36,-61,-25,129
-7,-27,-28,10,10,-26,121,61,-30,-67,-19,129
-7,-27,-28,10,10,-26,121,61,-30,-67,-19,129
-13,-27,-22,10,4,-20,121,61,-24,-67,-13,129
-13,-21,-16,10,-2,-14,121,61,-18,-67,-13,129
-13,-27,-22,10,4,-20,121,67,-24,-61,-13,129
-13,-27,-22,10,4,-20,121,67,-24,-55,-13,129
-13,-27,-16,16,-2,-20,127,79,-24,-49,-7,135
-13,-27,-10,16,-8,-20,133,85,-24,-49,-7,141
-13,-33,-22,16,-2,-26,133,79,-30,-55,-1,135
-13,-33,-22,16,-2,-26,133,73,-30,-49,-1,135
-13,-39,-34,16,10,-32,133,67,-30,-55,-1,141
-13,-39,-34,16,10,-32,133,61,-30,-55,-1,141
-13,-27,-22,10,4,-20,133,67,-24,-43,-1,147
-7,-9,-10,4,-2,-8,133,73,-18,-43,5,147
-7,-3,-4,4,-2,-2,133,79,-12,-37,5,159
-7,-3,-4,4,-2,-2,133,85,-12,-37,5,159
-7,-9,-10,4,-2,-8,139,85,-18,-37,-1,159
-7,-21,-22,4,4,-20,139,85,-18,-37,-1,159
-7,-27,-28,10,10,-26,145,85,-24,-37,-1,165
-7,-9,-10,4,-2,-8,139,85,-24,-37,-1,171
-1,-3,-10,4,4,-2,139,85,-18,-37,5,171
-1,-3,-10,4,4,-2,145,85,-24,-37,11,177
5,2,-10,4,4,-2,145,85,-18,-37,16,171
5,2,-10,4,4,-2,145,85,-18,-37,16,171
-1,2,-4,4,-2,4,145,85,-18,-37,16,177
-7,2,2,4,-8,4,145,85,-18,-37,16,165
-7,-3,-4,4,-2,-2,145,85,-30,-37,16,171
-13,-3,2,4,-8,4,145,85,-30,-37,16,171
-13,2,8,4,-14,9,151,79,-30,-43,16,171
-7,2,2,4,-8,4,151,79,-30,-43,16,177
-1,-3,-10,4,4,-2,151,73,-30,-49,16,183
5,-3,-16,4,10,-8,151,73,-30,-49,16,183
-1,-3,-10,4,4,-2,151,61,-30,-49,11,183
-7,-3,-4,4,-2,-2,151,61,-36,-49,11,183
-13,-3,2,4,-8,4,145,55,-36,-49,5,171
-13,-3,8,4,-14,4,145,55,-36,-55,5,171
-13,-3,2,4,-8,4,151,61,-36,-55,11,171
-7,-3,-4,4,-2,-2,157,61,-42,-55,5,177
-1,-3,-10,4,4,-2,157,67,-36,-55,11,183
-1,-3,-10,4,4,-2,163,67,-36,-55,11,189
-1,2,-4,4,-2,4,157,73,-36,-55,16,201
-1,-9,-16,4,4,-8,157,67,-36,-61,16,201
5,-3,-16,4,10,-8,151,73,-42,-61,16,201
11,-3,-22,4,16,-8,151,73,-42,-61,16,189
11,2,-16,-1,10,-2,151,61,-42,-61,16,195
11,2,-16,-1,10,-2,151,61,-42,-67,16,195
5,2,-4,-1,4,4,145,55,-42,-67,5,201
5,2,2,-1,4,9,145,55,-42,-67,5,201
-7,2,8,4,-8,9,151,49,-48,-73,5,189
-7,2,2,4,-8,4,151,49,-48,-73,5,189
-13,-9,-4,4,-8,-2,157,61,-60,-79,-1,183
-13,-15,-10,4,-2,-8,157,61,-60,-79,-1,189
-13,-15,-10,4,-2,-8,157,49,-66,-91,-7,195
-13,-15,-10,4,-2,-8,157,49,-66,-91,-7,195
-13,-15,-10,4,-2,-8,157,43,-66,-97,-13,183
