,,,,,,,,,,,
2019-09-04 23:53:17,,,,,,,,,,,
,,,,,,,,,,,
I,II,III,aVR,aVL,aVF,V1,V2,V3,V4,V5,V6
28,-32,-60,2,44,-46,-14,150,48,-5,-2,39
34,-26,-60,-4,47,-43,-9,162,54,1,4,45
33,-32,-65,0,49,-48,-14,168,60,7,10,51
40,-20,-60,-10,50,-40,-14,174,66,19,15,51
39,-26,-65,-6,52,-45,-14,180,72,25,20,57
39,-26,-65,-6,52,-45,-19,192,72,37,26,69
51,-14,-65,-18,58,-39,-19,204,84,49,38,81
57,-14,-71,-21,64,-42,-19,216,90,61,44,87
63,-2,-65,-30,64,-33,-19,228,102,67,56,93
69,4,-65,-36,67,-30,-14,240,114,73,62,93
69,4,-65,-36,67,-30,-14,246,126,79,74,99
75,10,-65,-42,70,-27,-9,258,132,85,80,105
75,10,-65,-42,70,-27,-3,270,138,97,86,111
81,16,-65,-48,73,-24,-3,282,150,103,98,123
81,16,-65,-48,73,-24,3,294,162,115,110,129
93,28,-65,-60,79,-18,3,312,168,127,116,147
105,40,-65,-72,85,-12,-3,324,180,139,128,153
111,46,-65,-78,88,-9,-3,342,186,151,140,165
117,52,-65,-84,91,-6,-3,354,198,163,146,171
124,64,-60,-94,92,2,-3,360,210,175,158,183
130,70,-60,-100,95,5,-3,372,222,187,176,189
136,76,-60,-106,98,8,-3,384,234,199,188,201
143,88,-55,-115,99,16,-9,396,246,211,206,213
149,94,-55,-121,102,19,-9,408,258,229,218,225
155,106,-49,-130,102,28,-9,414,270,241,230,237
161,112,-49,-136,105,31,-9,426,282,253,236,249
161,112,-49,-136,105,31,-9,438,288,265,248,261
167,118,-49,-142,108,34,-9,450,300,277,260,273
173,130,-43,-151,108,43,-3,456,318,289,272,285
173,136,-37,-154,105,49,-3,468,324,295,284,291
173,136,-37,-154,105,49,-3,474,336,307,296,303
179,148,-31,-163,105,58,-3,480,348,319,308,309
185,160,-25,-172,105,67,-3,492,354,337,320,321
185,166,-19,-175,102,73,-3,498,366,349,326,327
185,166,-19,-175,102,73,3,504,372,355,338,333
191,178,-13,-184,102,82,3,510,378,361,344,345
191,178,-13,-184,102,82,3,516,390,367,350,351
191,184,-7,-187,99,88,3,522,396,379,362,357
191,184,-7,-187,99,88,9,522,402,385,368,363
191,190,-1,-190,96,94,15,528,408,391,374,369
185,190,5,-187,90,97,21,528,414,397,380,369
185,196,11,-190,87,103,21,528,420,403,392,375
179,202,23,-190,78,112,27,522,426,409,392,375
179,208,29,-193,75,118,33,522,432,415,398,375
179,214,35,-196,72,124,39,516,432,421,398,381
173,214,41,-193,66,127,39,510,438,421,398,381
173,220,47,-196,63,133,45,504,438,427,404,381
167,214,47,-190,60,130,45,498,438,427,404,375
161,214,53,-187,54,133,51,492,438,427,398,375
149,202,53,-175,48,127,51,480,438,427,392,369
137,196,59,-166,39,127,57,456,426,415,386,357
125,184,59,-154,33,121,51,432,414,403,380,345
107,172,65,-139,21,118,57,408,402,385,368,327
107,178,71,-142,18,124,57,390,384,373,350,321
107,178,71,-142,18,124,57,378,372,361,338,309
95,166,71,-130,12,118,57,354,348,343,314,291
83,154,71,-118,6,112,57,330,324,313,290,267
65,142,77,-103,-6,109,57,306,300,289,260,243
59,130,71,-94,-6,100,51,276,282,265,236,219
47,118,71,-82,-12,94,51,252,264,241,212,201
41,106,65,-73,-12,85,45,228,240,217,194,177
35,100,65,-67,-15,82,45,204,216,193,176,159
23,82,59,-52,-18,70,45,180,192,169,158,141
11,64,53,-37,-21,58,39,156,168,145,134,123
5,52,47,-28,-21,49,39,132,144,121,104,111
-7,40,47,-16,-27,43,39,114,126,103,80,93
-19,22,41,-1,-30,31,39,96,102,79,56,75
-25,16,41,4,-33,28,33,84,84,61,38,57
-25,16,41,4,-33,28,33,66,66,43,15,33
-31,4,35,13,-33,19,27,54,48,25,10,15
-31,-2,29,16,-30,13,21,42,30,7,-2,3
-37,-8,29,22,-33,10,21,30,25,-5,-14,-9
-43,-26,17,34,-30,-4,21,18,14,-23,-20,-21
-49,-32,17,40,-33,-7,15,6,2,-29,-32,-27
-55,-44,11,49,-33,-16,15,-6,-10,-34,-50,-32
-61,-50,11,55,-36,-19,15,-12,-22,-45,-62,-37
-61,-56,5,58,-33,-25,21,-17,-28,-51,-68,-49
-61,-56,5,58,-33,-25,15,-22,-34,-57,-80,-55
-61,-56,5,58,-33,-25,15,-28,-46,-63,-86,-55
-67,-62,5,64,-36,-28,15,-28,-46,-69,-92,-61
-67,-62,5,64,-36,-28,15,-34,-52,-81,-92,-67
-67,-68,-1,67,-33,-34,15,-34,-58,-81,-98,-73
-67,-68,-1,67,-33,-34,15,-40,-58,-87,-104,-73
-67,-68,-1,67,-33,-34,9,-40,-64,-87,-104,-79
-73,-80,-7,76,-33,-43,9,-46,-70,-93,-110,-85
-73,-80,-7,76,-33,-43,9,-46,-70,-93,-110,-91
-73,-80,-7,76,-33,-43,3,-46,-76,-99,-110,-85
-67,-74,-7,70,-30,-40,3,-52,-76,-99,-110,-91
-73,-80,-7,76,-33,-43,9,-52,-76,-105,-110,-91
-79,-86,-7,82,-36,-46,9,-52,-82,-111,-110,-97
-73,-80,-7,76,-33,-43,9,-58,-82,-111,-110,-97
-73,-80,-7,76,-33,-43,9,-52,-82,-105,-110,-97
-67,-80,-13,73,-27,-46,15,-52,-88,-111,-110,-97
-73,-86,-13,79,-30,-49,15,-52,-82,-111,-110,-97
-73,-86,-13,79,-30,-49,9,-52,-82,-111,-116,-97
-73,-86,-13,79,-30,-49,9,-52,-82,-105,-116,-97
-73,-86,-13,79,-30,-49,3,-46,-76,-105,-110,-97
-79,-92,-13,85,-33,-52,3,-52,-76,-105,-110,-97
-85,-92,-7,88,-39,-49,3,-52,-76,-99,-110,-97
-85,-92,-7,88,-39,-49,3,-58,-76,-99,-116,-103
-79,-86,-7,82,-36,-46,3,-58,-76,-105,-116,-97
-73,-86,-13,79,-30,-49,3,-58,-76,-105,-116,-97
-73,-86,-13,79,-30,-49,9,-58,-76,-99,-116,-91
-73,-80,-7,76,-33,-43,9,-58,-76,-99,-116,-91
-73,-80,-7,76,-33,-43,9,-58,-76,-99,-116,-91
-73,-74,-1,73,-36,-37,15,-58,-76,-99,-116,-91
-73,-74,-1,73,-36,-37,9,-58,-76,-99,-110,-91
-73,-74,-1,73,-36,-37,9,-58,-76,-99,-110,-91
-73,-80,-7,76,-33,-43,9,-58,-76,-99,-110,-91
-73,-80,-7,76,-33,-43,9,-64,-70,-99,-110,-91
-73,-86,-13,79,-30,-49,3,-64,-70,-99,-116,-91
-73,-86,-13,79,-30,-49,9,-64,-70,-99,-116,-91
-73,-86,-13,79,-30,-49,9,-64,-70,-99,-110,-91
-67,-80,-13,73,-27,-46,3,-64,-70,-93,-110,-85
-73,-86,-13,79,-30,-49,9,-64,-70,-93,-110,-85
-73,-86,-13,79,-30,-49,9,-58,-76,-93,-110,-79
-67,-80,-13,73,-27,-46,9,-58,-70,-93,-110,-79
-73,-86,-13,79,-30,-49,9,-52,-70,-93,-104,-79
-73,-80,-7,76,-33,-43,9,-52,-70,-93,-104,-79
-67,-74,-7,70,-30,-40,9,-52,-70,-93,-104,-85
-67,-74,-7,70,-30,-40,9,-46,-70,-87,-104,-85
-67,-74,-7,70,-30,-40,9,-46,-64,-87,-104,-85
-67,-80,-13,73,-27,-46,9,-46,-64,-87,-98,-85
-67,-74,-7,70,-30,-40,9,-46,-64,-87,-104,-85
-67,-74,-7,70,-30,-40,9,-52,-64,-87,-104,-85
-67,-74,-7,70,-30,-40,9,-52,-64,-93,-104,-79
-61,-74,-13,67,-24,-43,9,-58,-64,-93,-104,-79
-61,-74,-13,67,-24,-43,9,-58,-64,-93,-104,-73
-61,-74,-13,67,-24,-43,9,-52,-64,-93,-98,-67
-61,-74,-13,67,-24,-43,3,-52,-64,-93,-98,-73
-61,-74,-13,67,-24,-43,3,-52,-64,-93,-98,-79
-61,-74,-13,67,-24,-43,3,-52,-64,-93,-98,-79
-67,-80,-13,73,-27,-46,3,-52,-64,-99,-98,-79
-73,-86,-13,79,-30,-49,3,-52,-64,-99,-98,-91
-61,-74,-13,67,-24,-43,3,-46,-64,-99,-98,-85
-55,-68,-13,61,-21,-40,3,-40,-64,-99,-92,-79
-49,-62,-13,55,-18,-37,3,-40,-64,-93,-92,-79
-55,-68,-13,61,-21,-40,3,-46,-64,-93,-92,-79
-55,-68,-13,61,-21,-40,3,-52,-58,-93,-92,-79
-55,-68,-13,61,-21,-40,3,-52,-58,-87,-92,-79
-55,-68,-13,61,-21,-40,9,-52,-58,-87,-98,-79
-55,-68,-13,61,-21,-40,9,-52,-64,-93,-98,-79
-61,-74,-13,67,-24,-43,3,-52,-64,-93,-98,-79
-67,-80,-13,73,-27,-46,3,-52,-70,-99,-104,-79
-61,-74,-13,67,-24,-43,3,-46,-70,-99,-104,-73
-61,-74,-13,67,-24,-43,-3,-46,-76,-99,-104,-73
-61,-74,-13,67,-24,-43,-3,-46,-70,-99,-104,-73
-61,-74,-13,67,-24,-43,-3,-46,-70,-99,-104,-73
-67,-80,-13,73,-27,-46,-3,-52,-70,-99,-110,-79
-67,-80,-13,73,-27,-46,-3,-52,-70,-105,-110,-79
-67,-80,-13,73,-27,-46,-3,-58,-70,-105,-110,-85
-73,-86,-13,79,-30,-49,-3,-58,-76,-105,-110,-85
-67,-86,-19,76,-24,-52,-3,-64,-76,-105,-110,-85
-67,-86,-19,76,-24,-52,-3,-64,-82,-105,-110,-85
-67,-86,-19,76,-24,-52,-3,-70,-82,-105,-110,-85
-61,-74,-13,67,-24,-43,-9,-70,-88,-111,-110,-85
-61,-74,-13,67,-24,-43,-9,-70,-94,-111,-110,-85
-61,-80,-19,70,-21,-49,-9,-70,-94,-111,-110,-85
-61,-80,-19,70,-21,-49,-9,-70,-94,-111,-110,-91
-67,-86,-19,76,-24,-52,-9,-70,-94,-111,-110,-97
-67,-86,-19,76,-24,-52,-9,-76,-94,-111,-110,-97
-67,-92,-25,79,-21,-58,-3,-76,-94,-117,-110,-103
-67,-92,-25,79,-21,-58,-3,-76,-94,-117,-116,-103
-67,-92,-25,79,-21,-58,-3,-76,-94,-117,-116,-103
-66,-97,-31,81,-17,-64,-3,-76,-100,-117,-116,-103
-67,-92,-25,79,-21,-58,-3,-82,-100,-123,-116,-103
-67,-92,-25,79,-21,-58,-9,-88,-100,-123,-116,-103
-61,-86,-25,73,-18,-55,-9,-88,-100,-123,-122,-103
-61,-86,-25,73,-18,-55,-14,-88,-100,-123,-122,-109
-61,-86,-25,73,-18,-55,-14,-94,-106,-129,-128,-109
-61,-86,-25,73,-18,-55,-9,-88,-106,-129,-128,-115
-61,-86,-25,73,-18,-55,-9,-88,-100,-129,-128,-115
-61,-92,-31,76,-15,-61,-9,-88,-100,-129,-134,-115
-72,-97,-25,84,-23,-61,-9,-88,-106,-129,-134,-115
-61,-86,-25,73,-18,-55,-9,-82,-106,-129,-134,-115
-61,-86,-25,73,-18,-55,-9,-88,-112,-129,-134,-109
-61,-80,-19,70,-21,-49,-14,-88,-112,-129,-134,-109
-67,-86,-19,76,-24,-52,-14,-88,-118,-129,-134,-109
-67,-86,-19,76,-24,-52,-19,-94,-118,-129,-134,-109
-67,-86,-19,76,-24,-52,-19,-94,-118,-135,-134,-109
-72,-97,-25,84,-23,-61,-14,-94,-118,-135,-134,-109
-77,-102,-25,89,-26,-63,-14,-100,-118,-135,-140,-115
-72,-97,-25,84,-23,-61,-14,-100,-124,-135,-140,-109
-72,-97,-25,84,-23,-61,-14,-100,-124,-141,-140,-109
-72,-97,-25,84,-23,-61,-14,-100,-124,-141,-146,-109
-72,-97,-25,84,-23,-61,-14,-100,-118,-141,-146,-109
-72,-97,-25,84,-23,-61,-19,-106,-118,-141,-146,-109
-67,-92,-25,79,-21,-58,-19,-106,-124,-141,-146,-115
-72,-97,-25,84,-23,-61,-19,-106,-124,-141,-146,-115
-77,-102,-25,89,-26,-63,-19,-106,-124,-141,-146,-121
-77,-102,-25,89,-26,-63,-19,-106,-124,-141,-146,-121
-77,-102,-25,89,-26,-63,-14,-106,-124,-141,-146,-121
-77,-108,-31,92,-23,-69,-14,-112,-124,-141,-146,-121
-83,-114,-31,98,-26,-72,-19,-112,-124,-147,-152,-121
-77,-108,-31,92,-23,-69,-19,-112,-130,-147,-152,-121
-77,-108,-31,92,-23,-69,-19,-106,-124,-147,-146,-115
-83,-114,-31,98,-26,-72,-19,-106,-130,-147,-146,-115
-83,-114,-31,98,-26,-72,-25,-112,-130,-153,-152,-115
-77,-102,-25,89,-26,-63,-19,-106,-130,-147,-152,-115
-83,-108,-25,95,-29,-66,-19,-112,-130,-147,-152,-115
-83,-114,-31,98,-26,-72,-19,-112,-130,-147,-152,-115
-83,-114,-31,98,-26,-72,-19,-112,-130,-141,-152,-109
-77,-108,-31,92,-23,-69,-19,-118,-130,-141,-152,-109
-77,-108,-31,92,-23,-69,-19,-118,-130,-147,-158,-109
-71,-102,-31,86,-20,-66,-19,-118,-130,-147,-158,-109
-71,-102,-31,86,-20,-66,-19,-118,-130,-147,-158,-109
-66,-97,-31,81,-17,-64,-19,-118,-130,-147,-164,-109
-66,-97,-31,81,-17,-64,-19,-118,-130,-147,-158,-109
-66,-97,-31,81,-17,-64,-19,-112,-124,-147,-152,-109
-66,-97,-31,81,-17,-64,-19,-112,-124,-141,-152,-109
-61,-92,-31,76,-15,-61,-14,-112,-124,-141,-152,-109
-61,-92,-31,76,-15,-61,-14,-112,-130,-141,-152,-115
-61,-92,-31,76,-15,-61,-14,-112,-130,-141,-152,-109
-61,-92,-31,76,-15,-61,-14,-118,-130,-147,-158,-115
-61,-92,-31,76,-15,-61,-14,-118,-130,-147,-158,-109
-61,-92,-31,76,-15,-61,-14,-118,-130,-147,-158,-109
-61,-92,-31,76,-15,-61,-19,-118,-130,-153,-158,-103
-61,-92,-31,76,-15,-61,-19,-118,-130,-153,-158,-103
-61,-92,-31,76,-15,-61,-19,-118,-130,-153,-158,-109
-61,-92,-31,76,-15,-61,-19,-124,-124,-147,-164,-109
-61,-92,-31,76,-15,-61,-14,-124,-124,-147,-164,-109
-61,-92,-31,76,-15,-61,-14,-124,-124,-147,-164,-109
-55,-86,-31,70,-12,-58,-14,-124,-124,-153,-158,-109
-61,-86,-25,73,-18,-55,-14,-124,-130,-153,-158,-109
-61,-86,-25,73,-18,-55,-14,-124,-130,-159,-158,-109
-61,-92,-31,76,-15,-61,-14,-124,-130,-165,-152,-109
-61,-92,-31,76,-15,-61,-19,-130,-130,-165,-158,-109
-55,-86,-31,70,-12,-58,-19,-130,-130,-165,-158,-109
-61,-92,-31,76,-15,-61,-19,-130,-130,-165,-152,-109
-61,-92,-31,76,-15,-61,-19,-130,-130,-165,-158,-115
-61,-92,-31,76,-15,-61,-14,-136,-130,-159,-158,-115
-61,-92,-31,76,-15,-61,-14,-136,-130,-159,-158,-115
-66,-97,-31,81,-17,-64,-14,-136,-130,-165,-164,-121
-66,-97,-31,81,-17,-64,-14,-136,-136,-165,-164,-115
-66,-97,-31,81,-17,-64,-14,-130,-136,-159,-158,-109
-66,-97,-31,81,-17,-64,-19,-130,-136,-165,-158,-109
-61,-92,-31,76,-15,-61,-19,-130,-136,-159,-158,-109
-55,-80,-25,67,-15,-52,-19,-130,-130,-159,-158,-109
-49,-74,-25,61,-12,-49,-19,-130,-130,-159,-158,-109
-55,-80,-25,67,-15,-52,-19,-130,-130,-159,-158,-109
-55,-80,-25,67,-15,-52,-19,-136,-130,-159,-158,-109
-55,-80,-25,67,-15,-52,-19,-136,-130,-159,-158,-115
-61,-86,-25,73,-18,-55,-19,-136,-130,-159,-158,-115
-61,-86,-25,73,-18,-55,-19,-130,-130,-153,-158,-115
-61,-86,-25,73,-18,-55,-19,-130,-130,-153,-158,-121
-55,-80,-25,67,-15,-52,-19,-130,-130,-153,-152,-121
-61,-86,-25,73,-18,-55,-19,-136,-130,-153,-152,-115
-61,-86,-25,73,-18,-55,-19,-136,-136,-153,-152,-115
-61,-92,-31,76,-15,-61,-19,-136,-130,-153,-152,-109
-61,-92,-31,76,-15,-61,-19,-136,-130,-153,-152,-109
-55,-80,-25,67,-15,-52,-19,-136,-136,-159,-152,-103
-55,-80,-25,67,-15,-52,-19,-136,-142,-159,-158,-103
-55,-74,-19,64,-18,-46,-19,-142,-142,-159,-158,-109
-55,-74,-19,64,-18,-46,-19,-136,-142,-159,-152,-109
-55,-74,-19,64,-18,-46,-19,-136,-142,-159,-158,-115
-55,-74,-19,64,-18,-46,-19,-136,-142,-159,-158,-115
-55,-74,-19,64,-18,-46,-14,-136,-142,-159,-158,-115
-55,-74,-19,64,-18,-46,-14,-130,-142,-153,-158,-115
-55,-74,-19,64,-18,-46,-14,-130,-136,-153,-158,-115
-55,-74,-19,64,-18,-46,-9,-124,-136,-147,-152,-109
-61,-80,-19,70,-21,-49,-3,-124,-130,-147,-152,-103
-61,-80,-19,70,-21,-49,3,-124,-124,-147,-152,-103
-55,-74,-19,64,-18,-46,3,-124,-118,-141,-146,-103
-55,-68,-13,61,-21,-40,9,-118,-112,-141,-146,-103
-61,-68,-7,64,-27,-37,15,-112,-112,-135,-140,-103
-55,-56,-1,55,-27,-28,21,-106,-106,-129,-140,-97
-55,-50,5,52,-30,-22,33,-100,-106,-123,-134,-91
-49,-38,11,43,-30,-13,33,-100,-106,-123,-128,-85
-49,-38,11,43,-30,-13,33,-100,-100,-123,-128,-85
-43,-32,11,37,-27,-10,33,-100,-100,-117,-128,-79
-37,-26,11,31,-24,-7,39,-100,-100,-117,-122,-79
-37,-20,17,28,-27,-1,39,-100,-94,-117,-122,-79
-37,-14,23,25,-30,4,33,-100,-94,-117,-122,-79
-37,-14,23,25,-30,4,33,-94,-88,-111,-122,-79
-37,-20,17,28,-27,-1,39,-88,-88,-111,-116,-73
-37,-20,17,28,-27,-1,45,-88,-88,-111,-116,-73
-43,-26,17,34,-30,-4,45,-88,-88,-111,-110,-73
-37,-14,23,25,-30,4,51,-88,-88,-111,-110,-73
-37,-8,29,22,-33,10,51,-88,-88,-105,-110,-73
-37,-2,35,19,-36,16,51,-88,-88,-105,-110,-67
-31,4,35,13,-33,19,45,-88,-88,-99,-110,-67
-31,4,35,13,-33,19,39,-94,-88,-99,-110,-67
-31,-2,29,16,-30,13,33,-100,-88,-105,-116,-61
-31,4,35,13,-33,19,21,-106,-88,-117,-116,-61
-25,10,35,7,-30,22,21,-112,-88,-111,-110,-49
-13,16,29,-1,-21,22,15,-112,-88,-111,-110,-43
-7,22,29,-7,-18,25,3,-112,-88,-111,-104,-43
-7,22,29,-7,-18,25,-9,-118,-88,-105,-104,-37
-1,16,17,-7,-9,16,-14,-124,-88,-99,-98,-43
5,22,17,-13,-6,19,-19,-124,-88,-93,-98,-37
5,16,11,-10,-3,13,-25,-118,-88,-93,-92,-37
11,22,11,-16,0,16,-25,-118,-88,-93,-92,-37
11,22,11,-16,0,16,-25,-118,-88,-93,-86,-32
11,16,5,-13,3,10,-25,-118,-94,-93,-86,-32
17,16,-1,-16,9,7,-25,-118,-94,-93,-86,-32
23,16,-7,-19,15,4,-31,-124,-94,-93,-86,-32
23,16,-7,-19,15,4,-31,-118,-94,-99,-86,-37
23,10,-13,-16,18,-1,-31,-118,-94,-99,-86,-37
17,-2,-19,-7,18,-10,-37,-124,-100,-105,-92,-43
11,-14,-25,1,18,-19,-43,-136,-106,-111,-104,-49
5,-26,-31,10,18,-28,-49,-148,-112,-117,-110,-55
-7,-32,-25,19,9,-28,-43,-148,-112,-117,-116,-55
-25,-56,-31,40,3,-43,-37,-148,-118,-129,-128,-61
-37,-68,-31,52,-3,-49,-37,-148,-124,-135,-134,-67
-43,-80,-37,61,-3,-58,-25,-148,-124,-141,-140,-73
-43,-80,-37,61,-3,-58,-25,-148,-130,-147,-146,-79
-55,-86,-31,70,-12,-58,-25,-154,-142,-153,-152,-85
-61,-92,-31,76,-15,-61,-25,-154,-148,-159,-158,-91
-66,-97,-31,81,-17,-64,-19,-160,-154,-165,-164,-97
-66,-97,-31,81,-17,-64,-19,-160,-154,-165,-176,-103
-71,-108,-37,89,-17,-72,-25,-166,-160,-171,-182,-109
-71,-108,-37,89,-17,-72,-25,-172,-166,-177,-182,-115
-71,-114,-43,92,-14,-78,-31,-178,-172,-183,-188,-115
-71,-114,-43,92,-14,-78,-31,-184,-178,-189,-194,-121
-65,-108,-43,86,-11,-75,-37,-184,-184,-195,-194,-121
-65,-108,-43,86,-11,-75,-37,-184,-184,-195,-194,-121
-65,-108,-43,86,-11,-75,-37,-184,-184,-195,-194,-121
-65,-108,-43,86,-11,-75,-37,-184,-184,-201,-194,-121
-65,-108,-43,86,-11,-75,-37,-184,-184,-195,-188,-115
-60,-97,-37,78,-11,-67,-37,-178,-178,-195,-188,-115
-60,-97,-37,78,-11,-67,-37,-172,-172,-189,-182,-115
-65,-102,-37,83,-14,-69,-37,-172,-166,-183,-176,-109
-71,-102,-31,86,-20,-66,-31,-166,-154,-177,-170,-103
-72,-97,-25,84,-23,-61,-25,-154,-142,-165,-158,-103
-79,-92,-13,85,-33,-52,-14,-142,-130,-153,-152,-103
-85,-92,-7,88,-39,-49,-9,-130,-118,-135,-146,-97
-97,-92,5,94,-51,-43,3,-112,-106,-123,-140,-97
-103,-86,17,94,-60,-34,15,-94,-88,-105,-134,-91
-109,-80,29,94,-69,-25,33,-70,-76,-99,-128,-85
-115,-74,41,94,-78,-16,45,-52,-58,-93,-122,-85
-121,-74,47,97,-84,-13,57,-28,-40,-81,-110,-85
-127,-68,59,97,-93,-4,69,-17,-28,-69,-104,-91
-139,-74,65,106,-102,-4,81,6,-10,-57,-98,-91
-151,-80,71,115,-111,-4,99,36,20,-39,-86,-91
-151,-74,77,112,-114,1,123,84,54,-17,-74,-91
-157,-74,83,115,-120,4,159,174,114,13,-56,-91
-169,-74,95,121,-132,10,225,312,216,73,-32,-91
-175,-68,107,121,-141,19,321,510,360,157,10,-91
-175,-56,119,115,-147,31,423,708,516,259,56,-79
-175,-32,143,103,-159,55,525,882,678,379,128,-61
-163,4,167,79,-165,85,609,1002,834,505,224,-21
-145,46,191,49,-168,118,675,1092,984,649,350,51
-115,100,215,7,-165,157,723,1152,1122,805,494,147
-67,160,227,-46,-147,193,753,1152,1230,961,656,279
5,244,239,-124,-117,241,777,1134,1338,1129,848,435
101,358,257,-229,-78,307,765,1050,1404,1309,1064,639
209,490,281,-349,-36,385,693,876,1428,1489,1298,861
323,640,317,-481,3,478,585,618,1422,1675,1544,1101
413,802,389,-607,12,595,453,300,1404,1861,1802,1341
485,952,467,-718,9,709,279,-46,1332,1993,2012,1551
539,1030,491,-784,24,760,87,-370,1200,2011,2108,1665
545,994,449,-769,48,721,-55,-628,990,1867,2024,1647
485,892,407,-688,39,649,-145,-802,738,1609,1802,1515
377,772,395,-574,-9,583,-217,-940,474,1309,1532,1335
245,640,395,-442,-75,517,-253,-1054,204,985,1214,1119
113,502,389,-307,-138,445,-283,-1132,-70,631,866,861
5,370,365,-187,-180,367,-301,-1150,-286,313,530,609
-79,262,341,-91,-210,301,-301,-1126,-412,85,278,387
-133,190,323,-28,-228,256,-289,-1060,-460,-63,86,219
-163,136,299,13,-231,217,-271,-970,-466,-153,-32,93
-175,106,281,34,-228,193,-259,-886,-454,-207,-98,21
-187,82,269,52,-228,175,-247,-790,-424,-225,-122,-15
-187,70,257,58,-222,163,-217,-688,-382,-213,-128,-27
-175,58,233,58,-204,145,-187,-580,-334,-189,-116,-27
-151,52,203,49,-177,127,-163,-484,-286,-165,-104,-21
-127,40,167,43,-147,103,-139,-388,-238,-141,-104,-9
-97,34,131,31,-114,82,-115,-316,-202,-129,-98,-9
-79,22,101,28,-90,61,-91,-268,-172,-117,-98,-9
-67,-2,65,34,-66,31,-73,-226,-148,-111,-98,-15
-61,-20,41,40,-51,10,-67,-202,-136,-111,-98,-21
-55,-38,17,46,-36,-10,-61,-184,-124,-111,-98,-32
-55,-50,5,52,-30,-22,-55,-166,-124,-111,-104,-32
-61,-68,-7,64,-27,-37,-55,-154,-118,-111,-110,-43
-61,-74,-13,67,-24,-43,-49,-142,-118,-117,-116,-49
-67,-86,-19,76,-24,-52,-49,-130,-124,-123,-128,-55
-55,-80,-25,67,-15,-52,-43,-124,-124,-135,-134,-55
-49,-80,-31,64,-9,-55,-37,-112,-124,-141,-140,-61
-49,-80,-31,64,-9,-55,-37,-112,-124,-141,-140,-61
-49,-86,-37,67,-6,-61,-37,-106,-124,-141,-146,-67
-37,-80,-43,58,3,-61,-37,-106,-124,-141,-146,-67
-37,-80,-43,58,3,-61,-37,-106,-124,-147,-146,-67
-43,-92,-49,67,3,-70,-37,-106,-124,-147,-146,-67
-43,-92,-49,67,3,-70,-37,-106,-124,-147,-146,-61
-37,-86,-49,61,6,-67,-37,-100,-124,-147,-146,-61
-37,-92,-55,64,9,-73,-37,-94,-124,-147,-146,-61
-37,-92,-55,64,9,-73,-37,-88,-124,-141,-146,-61
-37,-92,-55,64,9,-73,-37,-88,-118,-141,-146,-61
-31,-86,-55,58,12,-70,-31,-82,-118,-141,-146,-61
-25,-80,-55,52,15,-67,-31,-76,-112,-135,-140,-67
-19,-74,-55,46,18,-64,-37,-70,-106,-135,-140,-61
-20,-80,-60,50,20,-70,-37,-70,-106,-135,-140,-61
-20,-80,-60,50,20,-70,-37,-70,-106,-135,-140,-61
-20,-80,-60,50,20,-70,-37,-70,-106,-129,-134,-55
-20,-80,-60,50,20,-70,-37,-70,-106,-129,-128,-49
-20,-80,-60,50,20,-70,-37,-64,-106,-129,-128,-49
-20,-80,-60,50,20,-70,-37,-64,-106,-123,-122,-43
-20,-80,-60,50,20,-70,-37,-58,-106,-123,-122,-49
-15,-80,-65,47,25,-72,-37,-52,-100,-123,-116,-43
-15,-80,-65,47,25,-72,-37,-52,-100,-117,-116,-43
-15,-80,-65,47,25,-72,-31,-46,-100,-117,-116,-43
-15,-80,-65,47,25,-72,-37,-40,-100,-117,-116,-37
-9,-74,-65,41,28,-69,-37,-40,-88,-117,-110,-37
-9,-74,-65,41,28,-69,-37,-40,-88,-117,-110,-37
-3,-68,-65,35,31,-66,-37,-34,-82,-111,-110,-37
-3,-68,-65,35,31,-66,-37,-28,-82,-105,-110,-37
-3,-68,-65,35,31,-66,-37,-28,-76,-105,-104,-32
-9,-74,-65,41,28,-69,-37,-22,-70,-105,-104,-32
-3,-68,-65,35,31,-66,-43,-17,-64,-105,-98,-32
3,-68,-71,32,37,-69,-37,-12,-58,-99,-92,-32
-3,-68,-65,35,31,-66,-37,-12,-58,-99,-92,-32
-3,-68,-65,35,31,-66,-37,-12,-58,-99,-92,-32
3,-62,-65,29,34,-63,-31,-6,-58,-93,-92,-32
9,-56,-65,23,37,-60,-25,-6,-52,-87,-86,-27
15,-50,-65,17,40,-57,-25,0,-52,-87,-86,-21
16,-44,-60,14,38,-52,-31,0,-52,-81,-86,-15
16,-44,-60,14,38,-52,-37,6,-52,-81,-80,-9
16,-44,-60,14,38,-52,-37,12,-46,-81,-80,-9
17,-38,-55,10,36,-46,-43,18,-46,-75,-74,-9
23,-32,-55,4,39,-43,-43,24,-40,-69,-62,-9
23,-32,-55,4,39,-43,-43,24,-34,-63,-62,-9
23,-32,-55,4,39,-43,-37,30,-34,-57,-56,-9
22,-38,-60,8,41,-49,-37,30,-28,-57,-50,-3
22,-38,-60,8,41,-49,-31,36,-22,-51,-44,3
22,-38,-60,8,41,-49,-31,42,-22,-51,-44,9
22,-38,-60,8,41,-49,-31,48,-10,-45,-38,15
28,-32,-60,2,44,-46,-31,54,-4,-39,-38,21
33,-32,-65,0,49,-48,-37,60,2,-39,-32,21
34,-26,-60,-4,47,-43,-37,66,8,-34,-26,27
33,-32,-65,0,49,-48,-37,72,14,-29,-20,27
45,-20,-65,-12,55,-42,-37,78,20,-29,-20,33
51,-14,-65,-18,58,-39,-37,84,25,-23,-14,39
57,-14,-71,-21,64,-42,-31,90,25,-17,-8,45
57,-14,-71,-21,64,-42,-31,96,25,-11,-2,51
57,-8,-65,-24,61,-36,-31,102,30,-5,4,57
63,-8,-71,-27,67,-39,-31,108,30,1,10,63
69,-2,-71,-33,70,-36,-31,108,30,13,10,63
69,-2,-71,-33,70,-36,-37,114,36,13,15,69
63,-8,-71,-27,67,-39,-43,120,42,19,15,69
69,4,-65,-36,67,-30,-49,126,48,25,20,75
75,10,-65,-42,70,-27,-43,132,54,31,32,81
75,10,-65,-42,70,-27,-43,144,60,37,38,93
75,10,-65,-42,70,-27,-43,156,72,43,50,99
81,16,-65,-48,73,-24,-37,168,78,49,56,105
87,22,-65,-54,76,-21,-37,180,90,55,62,105
93,22,-71,-57,82,-24,-37,192,96,73,68,111
105,34,-71,-69,88,-18,-37,204,102,85,80,117
111,40,-71,-75,91,-15,-43,210,108,97,86,123
117,46,-71,-81,94,-12,-43,216,120,103,92,129
123,52,-71,-87,97,-9,-43,228,126,109,104,141
123,52,-71,-87,97,-9,-43,240,132,115,110,147
129,58,-71,-93,100,-6,-43,252,138,127,122,159
135,64,-71,-99,103,-3,-43,264,150,133,128,177
141,64,-77,-102,109,-6,-43,276,162,145,140,183
153,76,-77,-114,115,0,-43,288,174,157,152,195
159,82,-77,-120,118,2,-43,294,186,169,164,207
171,88,-83,-129,127,2,-43,306,198,181,182,213
177,100,-77,-138,127,11,-49,318,210,193,194,225
183,106,-77,-144,130,14,-49,330,216,205,206,237
189,118,-71,-153,130,23,-43,342,228,211,218,249
189,118,-71,-153,130,23,-43,354,240,223,230,255
195,130,-65,-162,130,32,-43,366,252,235,242,267
195,130,-65,-162,130,32,-37,378,264,247,254,279
201,136,-65,-168,133,35,-37,390,276,259,266,291
208,148,-60,-178,134,44,-37,402,288,271,284,303
214,154,-60,-184,137,47,-37,408,294,289,302,315
220,160,-60,-190,140,50,-37,420,306,301,314,327
220,160,-60,-190,140,50,-37,426,318,313,326,339
227,172,-55,-199,141,58,-37,438,330,325,344,345
233,178,-55,-205,144,61,-31,444,342,337,350,357
239,190,-49,-214,144,70,-25,456,354,349,362,369
239,190,-49,-214,144,70,-25,462,360,355,368,375
239,196,-43,-217,141,76,-25,468,366,361,374,375
239,196,-43,-217,141,76,-19,474,372,373,380,381
245,208,-37,-226,141,85,-19,480,390,385,386,387
245,214,-31,-229,138,91,-14,486,396,391,392,387
245,220,-25,-232,135,97,-14,486,402,397,398,393
245,226,-19,-235,132,103,-14,492,414,409,404,393
245,232,-13,-238,129,109,-9,492,414,415,410,399
239,238,-1,-238,120,118,-3,492,420,421,410,399
233,238,5,-235,114,121,3,492,426,427,416,399
227,238,11,-232,108,124,3,486,426,421,422,393
215,232,17,-223,99,124,9,474,420,421,416,387
203,226,23,-214,90,124,9,462,420,415,410,381
203,226,23,-214,90,124,15,450,420,415,410,381
197,226,29,-211,84,127,21,438,420,409,398,375
179,214,35,-196,72,124,27,426,408,397,386,369
173,214,41,-193,66,127,27,408,396,391,380,357
161,202,41,-181,60,121,27,396,384,379,368,339
155,202,47,-178,54,124,27,372,372,361,356,321
137,184,47,-160,45,115,27,348,360,349,338,297
125,178,53,-151,36,115,33,324,342,325,314,273
113,166,53,-139,30,109,33,300,324,307,284,255
95,154,59,-124,18,106,39,276,300,283,248,231
83,142,59,-112,12,100,39,252,282,259,212,207
77,130,53,-103,12,91,39,228,258,235,188,195
65,118,53,-91,6,85,39,204,234,211,164,171
53,100,47,-76,3,73,39,180,216,187,146,153
41,88,47,-64,-3,67,39,162,192,163,128,129
29,76,47,-52,-9,61,33,144,174,139,110,111
23,64,41,-43,-9,52,33,120,150,115,98,93
17,58,41,-37,-12,49,33,102,132,97,80,81
11,46,35,-28,-12,40,27,90,114,79,62,63
11,40,29,-25,-9,34,27,72,96,61,38,57
5,28,23,-16,-9,25,21,54,78,49,20,45
-7,10,17,-1,-12,13,21,42,60,31,10,39
-13,-2,11,7,-12,4,21,30,42,13,-8,27
-19,-14,5,16,-12,-4,15,18,30,-11,-20,9
-31,-26,5,28,-18,-10,15,12,20,-23,-32,-3
-31,-26,5,28,-18,-10,15,0,14,-34,-38,-15
-31,-26,5,28,-18,-10,15,-12,2,-34,-50,-21
-37,-38,-1,37,-18,-19,15,-17,-4,-45,-56,-27
-37,-44,-7,40,-15,-25,15,-22,-16,-51,-62,-32
-37,-44,-7,40,-15,-25,15,-34,-28,-57,-68,-37
-37,-44,-7,40,-15,-25,9,-40,-40,-63,-74,-43
-37,-50,-13,43,-12,-31,15,-46,-52,-69,-80,-49
-31,-44,-13,37,-9,-28,15,-52,-52,-75,-86,-49
-37,-50,-13,43,-12,-31,15,-58,-58,-75,-92,-55
-37,-50,-13,43,-12,-31,15,-58,-64,-81,-92,-61
-43,-56,-13,49,-15,-34,15,-58,-58,-87,-98,-61
-43,-56,-13,49,-15,-34,15,-64,-64,-87,-98,-61
-43,-62,-19,52,-12,-40,15,-64,-64,-87,-98,-61
-49,-68,-19,58,-15,-43,15,-64,-70,-93,-104,-67
-49,-68,-19,58,-15,-43,15,-70,-70,-93,-104,-67
-55,-74,-19,64,-18,-46,9,-70,-64,-99,-104,-73
-49,-74,-25,61,-12,-49,9,-70,-70,-99,-104,-73
-43,-68,-25,55,-9,-46,9,-64,-76,-99,-104,-73
-43,-68,-25,55,-9,-46,15,-64,-76,-99,-110,-79
-43,-68,-25,55,-9,-46,15,-64,-76,-93,-110,-79
-43,-62,-19,52,-12,-40,15,-64,-76,-99,-110,-85
-49,-68,-19,58,-15,-43,15,-64,-70,-99,-110,-79
-49,-68,-19,58,-15,-43,15,-64,-70,-99,-116,-79
-49,-68,-19,58,-15,-43,15,-64,-64,-99,-110,-73
-55,-80,-25,67,-15,-52,15,-70,-64,-99,-116,-73
-61,-80,-19,70,-21,-49,9,-70,-64,-99,-110,-73
-61,-80,-19,70,-21,-49,9,-70,-64,-99,-110,-73
-67,-86,-19,76,-24,-52,9,-70,-70,-99,-110,-73
-67,-86,-19,76,-24,-52,3,-70,-70,-93,-110,-73
-61,-80,-19,70,-21,-49,3,-70,-70,-99,-110,-67
-55,-74,-19,64,-18,-46,9,-70,-70,-93,-110,-67
-55,-68,-13,61,-21,-40,9,-76,-76,-99,-110,-73
-55,-74,-19,64,-18,-46,9,-76,-76,-99,-110,-73
-49,-68,-19,58,-15,-43,15,-76,-76,-99,-110,-73
-43,-62,-19,52,-12,-40,15,-76,-76,-93,-110,-79
-43,-62,-19,52,-12,-40,15,-76,-76,-93,-110,-79
-43,-62,-19,52,-12,-40,15,-76,-76,-93,-110,-79
-43,-56,-13,49,-15,-34,9,-70,-76,-93,-104,-79
-37,-50,-13,43,-12,-31,9,-64,-76,-93,-104,-73
-37,-50,-13,43,-12,-31,9,-58,-76,-87,-104,-73
-37,-56,-19,46,-9,-37,9,-58,-76,-87,-104,-73
-37,-56,-19,46,-9,-37,9,-58,-76,-87,-104,-73
-37,-56,-19,46,-9,-37,9,-64,-76,-87,-104,-73
-37,-56,-19,46,-9,-37,9,-64,-76,-87,-98,-73
-43,-62,-19,52,-12,-40,9,-70,-76,-87,-98,-67
-55,-74,-19,64,-18,-46,9,-70,-76,-87,-104,-67
-55,-74,-19,64,-18,-46,9,-76,-76,-87,-104,-67
-55,-74,-19,64,-18,-46,3,-76,-76,-87,-98,-67
-43,-62,-19,52,-12,-40,3,-76,-70,-87,-98,-67
-43,-62,-19,52,-12,-40,3,-76,-70,-87,-98,-67
-43,-56,-13,49,-15,-34,3,-76,-64,-87,-92,-67
-43,-56,-13,49,-15,-34,3,-82,-64,-81,-92,-67
-43,-56,-13,49,-15,-34,3,-82,-58,-81,-92,-67
-37,-50,-13,43,-12,-31,3,-76,-58,-75,-92,-61
-37,-50,-13,43,-12,-31,3,-76,-64,-75,-92,-61
-37,-50,-13,43,-12,-31,3,-76,-64,-75,-92,-61
-31,-44,-13,37,-9,-28,3,-76,-64,-75,-92,-61
-31,-44,-13,37,-9,-28,3,-76,-64,-75,-92,-61
-31,-44,-13,37,-9,-28,9,-76,-64,-81,-92,-61
-31,-50,-19,40,-6,-34,3,-76,-64,-81,-98,-61
-31,-50,-19,40,-6,-34,9,-76,-64,-81,-98,-67
-31,-50,-19,40,-6,-34,9,-70,-64,-81,-98,-67
-31,-50,-19,40,-6,-34,9,-70,-70,-81,-98,-73
-37,-56,-19,46,-9,-37,15,-70,-70,-81,-92,-73
-37,-56,-19,46,-9,-37,15,-70,-70,-81,-92,-73
-43,-62,-19,52,-12,-40,9,-70,-70,-81,-98,-73
-43,-62,-19,52,-12,-40,3,-64,-70,-81,-98,-73
-37,-56,-19,46,-9,-37,3,-64,-76,-87,-98,-67
-37,-56,-19,46,-9,-37,-3,-64,-70,-87,-98,-67
-31,-50,-19,40,-6,-34,-3,-64,-76,-93,-104,-67
-37,-56,-19,46,-9,-37,-3,-64,-76,-93,-104,-67
-37,-50,-13,43,-12,-31,-3,-70,-76,-93,-104,-67
-31,-44,-13,37,-9,-28,3,-70,-76,-93,-98,-67
-25,-32,-7,28,-9,-19,3,-70,-76,-93,-92,-73
-25,-38,-13,31,-6,-25,3,-76,-70,-93,-98,-73
-31,-44,-13,37,-9,-28,-3,-76,-70,-99,-104,-79
-31,-44,-13,37,-9,-28,-3,-82,-70,-99,-104,-79
-37,-56,-19,46,-9,-37,-3,-82,-76,-99,-110,-79
-37,-62,-25,49,-6,-43,-3,-82,-76,-105,-110,-73
-31,-56,-25,43,-3,-40,-3,-82,-76,-99,-104,-73
-31,-56,-25,43,-3,-40,-3,-82,-76,-99,-104,-67
-31,-56,-25,43,-3,-40,-3,-82,-82,-99,-104,-67
-37,-62,-25,49,-6,-43,-3,-82,-82,-99,-98,-67
-37,-62,-25,49,-6,-43,-3,-82,-82,-99,-98,-67
-37,-62,-25,49,-6,-43,-3,-88,-88,-99,-98,-73
-37,-62,-25,49,-6,-43,-3,-88,-88,-105,-104,-73
-37,-62,-25,49,-6,-43,-9,-82,-94,-111,-104,-73
-37,-68,-31,52,-3,-49,-9,-82,-94,-111,-104,-73
-43,-74,-31,58,-6,-52,-9,-82,-94,-117,-110,-73
-43,-74,-31,58,-6,-52,-9,-82,-94,-111,-110,-79
-37,-68,-31,52,-3,-49,-9,-82,-94,-111,-110,-79
-37,-68,-31,52,-3,-49,-9,-88,-94,-111,-110,-79
-43,-74,-31,58,-6,-52,-9,-94,-94,-111,-116,-85
-43,-80,-37,61,-3,-58,-9,-100,-100,-111,-116,-91
-37,-74,-37,55,0,-55,-9,-100,-100,-111,-116,-91
-43,-74,-31,58,-6,-52,-3,-100,-100,-111,-116,-91
-43,-74,-31,58,-6,-52,-9,-100,-106,-117,-116,-97
-37,-68,-31,52,-3,-49,-9,-100,-106,-117,-116,-97
-37,-68,-31,52,-3,-49,-14,-94,-106,-123,-122,-97
-43,-74,-31,58,-6,-52,-14,-94,-106,-123,-122,-103
-43,-74,-31,58,-6,-52,-9,-94,-106,-123,-122,-103
-37,-62,-25,49,-6,-43,-9,-94,-106,-129,-122,-103
-43,-74,-31,58,-6,-52,-9,-100,-106,-123,-122,-103
-43,-74,-31,58,-6,-52,-9,-100,-112,-123,-122,-103
-37,-68,-31,52,-3,-49,-9,-100,-112,-123,-122,-103
-43,-74,-31,58,-6,-52,-9,-106,-112,-123,-122,-103
-43,-68,-25,55,-9,-46,-9,-106,-112,-129,-122,-103
-43,-74,-31,58,-6,-52,-9,-106,-112,-129,-128,-103
-43,-74,-31,58,-6,-52,-9,-112,-112,-135,-128,-103
-43,-68,-25,55,-9,-46,-14,-112,-118,-135,-128,-103
-43,-68,-25,55,-9,-46,-14,-112,-112,-135,-128,-103
-43,-68,-25,55,-9,-46,-9,-112,-112,-135,-128,-103
-43,-68,-25,55,-9,-46,-9,-112,-112,-129,-122,-103
-43,-74,-31,58,-6,-52,-14,-112,-112,-129,-122,-103
-43,-80,-37,61,-3,-58,-14,-118,-112,-129,-128,-109
-43,-80,-37,61,-3,-58,-14,-118,-118,-135,-128,-109
-43,-86,-43,64,0,-64,-14,-118,-118,-141,-128,-115
-37,-80,-43,58,3,-61,-14,-118,-118,-141,-128,-115
-37,-80,-43,58,3,-61,-14,-118,-124,-141,-128,-115
-37,-80,-43,58,3,-61,-14,-118,-124,-141,-128,-109
-43,-80,-37,61,-3,-58,-19,-130,-130,-141,-128,-115
-43,-80,-37,61,-3,-58,-19,-124,-136,-141,-128,-121
-37,-74,-37,55,0,-55,-19,-124,-136,-135,-128,-121
-37,-74,-37,55,0,-55,-19,-118,-136,-141,-134,-121
-37,-74,-37,55,0,-55,-19,-118,-136,-141,-134,-121
-31,-68,-37,49,3,-52,-19,-112,-130,-141,-134,-121
-37,-68,-31,52,-3,-49,-25,-118,-130,-135,-134,-121
-37,-68,-31,52,-3,-49,-25,-124,-130,-141,-140,-121
-37,-68,-31,52,-3,-49,-19,-124,-130,-141,-134,-121
-37,-68,-31,52,-3,-49,-19,-124,-130,-141,-134,-121
-37,-68,-31,52,-3,-49,-19,-124,-130,-141,-134,-121
-43,-74,-31,58,-6,-52,-19,-124,-130,-141,-134,-127
-49,-80,-31,64,-9,-55,-25,-124,-130,-141,-134,-127
-55,-86,-31,70,-12,-58,-31,-124,-136,-147,-134,-133
-55,-86,-31,70,-12,-58,-25,-124,-136,-147,-140,-133
-55,-86,-31,70,-12,-58,-25,-118,-130,-147,-140,-133
-61,-92,-31,76,-15,-61,-25,-118,-136,-147,-140,-133
-65,-102,-37,83,-14,-69,-19,-124,-136,-153,-146,-133
-65,-102,-37,83,-14,-69,-19,-124,-136,-153,-146,-133
-60,-97,-37,78,-11,-67,-19,-124,-142,-153,-140,-133
-65,-102,-37,83,-14,-69,-19,-124,-148,-153,-140,-133
-65,-102,-37,83,-14,-69,-19,-124,-142,-153,-140,-133
-65,-102,-37,83,-14,-69,-25,-124,-142,-147,-140,-133
-65,-108,-43,86,-11,-75,-25,-130,-142,-147,-140,-133
-65,-108,-43,86,-11,-75,-25,-130,-142,-153,-140,-133
-65,-102,-37,83,-14,-69,-25,-124,-142,-153,-140,-133
-60,-97,-37,78,-11,-67,-25,-124,-142,-153,-140,-133
-60,-97,-37,78,-11,-67,-25,-124,-142,-153,-140,-133
-60,-97,-37,78,-11,-67,-25,-118,-142,-153,-140,-133
-60,-97,-37,78,-11,-67,-25,-124,-142,-153,-146,-133
-55,-92,-37,73,-9,-64,-25,-118,-142,-147,-152,-127
-55,-92,-37,73,-9,-64,-19,-124,-142,-147,-152,-121
-49,-86,-37,67,-6,-61,-25,-124,-142,-153,-152,-121
-55,-86,-31,70,-12,-58,-25,-124,-142,-147,-152,-127
-60,-97,-37,78,-11,-67,-25,-130,-142,-153,-152,-127
-60,-97,-37,78,-11,-67,-19,-130,-142,-153,-146,-127
-54,-97,-43,75,-5,-70,-19,-130,-136,-153,-146,-127
-55,-92,-37,73,-9,-64,-14,-130,-136,-153,-140,-127
-55,-92,-37,73,-9,-64,-14,-124,-136,-153,-146,-127
-60,-97,-37,78,-11,-67,-14,-124,-142,-147,-146,-133
-60,-97,-37,78,-11,-67,-19,-124,-142,-153,-146,-139
-60,-97,-37,78,-11,-67,-19,-130,-136,-153,-152,-139
-61,-92,-31,76,-15,-61,-19,-130,-136,-153,-146,-145
-61,-86,-25,73,-18,-55,-25,-130,-136,-153,-146,-145
-61,-86,-25,73,-18,-55,-25,-130,-136,-153,-152,-139
-61,-86,-25,73,-18,-55,-19,-130,-136,-153,-146,-139
-61,-92,-31,76,-15,-61,-19,-130,-136,-153,-146,-133
-61,-92,-31,76,-15,-61,-25,-130,-142,-153,-146,-133
-71,-102,-31,86,-20,-66,-25,-130,-148,-159,-152,-133
-71,-102,-31,86,-20,-66,-25,-130,-148,-159,-152,-133
-71,-102,-31,86,-20,-66,-25,-130,-148,-159,-152,-133
-72,-97,-25,84,-23,-61,-25,-130,-148,-159,-152,-133
-67,-92,-25,79,-21,-58,-25,-136,-148,-159,-152,-139
-67,-92,-25,79,-21,-58,-25,-136,-154,-153,-152,-139
-67,-92,-25,79,-21,-58,-25,-136,-154,-153,-158,-139
-61,-86,-25,73,-18,-55,-25,-136,-160,-159,-158,-139
-61,-86,-25,73,-18,-55,-25,-136,-154,-153,-152,-139
-61,-86,-25,73,-18,-55,-25,-136,-154,-153,-152,-145
-67,-92,-25,79,-21,-58,-31,-130,-154,-153,-146,-145
-66,-97,-31,81,-17,-64,-31,-130,-148,-153,-146,-145
-66,-97,-31,81,-17,-64,-25,-130,-148,-153,-146,-145
-66,-97,-31,81,-17,-64,-25,-130,-148,-153,-152,-145
-60,-97,-37,78,-11,-67,-25,-130,-148,-153,-152,-151
-60,-97,-37,78,-11,-67,-19,-124,-154,-153,-152,-145
-61,-92,-31,76,-15,-61,-19,-124,-148,-147,-152,-145
-55,-80,-25,67,-15,-52,-14,-118,-148,-147,-152,-133
-49,-74,-25,61,-12,-49,-14,-118,-148,-141,-146,-133
-49,-74,-25,61,-12,-49,-14,-118,-148,-141,-146,-133
-55,-74,-19,64,-18,-46,-14,-112,-142,-135,-140,-127
-49,-68,-19,58,-15,-43,-9,-106,-136,-129,-140,-127
-49,-62,-13,55,-18,-37,-3,-100,-136,-129,-134,-127
-55,-56,-1,55,-27,-28,9,-100,-136,-129,-134,-127
-61,-56,5,58,-33,-25,9,-100,-130,-135,-134,-133
-61,-50,11,55,-36,-19,15,-106,-130,-135,-128,-133
-49,-32,17,40,-33,-7,21,-100,-124,-129,-122,-127
-43,-26,17,34,-30,-4,21,-94,-118,-123,-122,-121
-43,-20,23,31,-33,1,21,-88,-112,-117,-122,-115
-43,-20,23,31,-33,1,21,-88,-112,-117,-122,-115
-43,-26,17,34,-30,-4,21,-82,-112,-117,-122,-115
-43,-26,17,34,-30,-4,27,-82,-112,-117,-128,-115
-37,-26,11,31,-24,-7,27,-76,-112,-123,-128,-121
-37,-32,5,34,-21,-13,33,-76,-112,-117,-122,-115
-31,-26,5,28,-18,-10,33,-82,-106,-111,-116,-115
-31,-26,5,28,-18,-10,33,-88,-106,-111,-116,-115
-31,-26,5,28,-18,-10,33,-88,-106,-117,-116,-115
-31,-20,11,25,-21,-4,33,-88,-106,-117,-116,-109
-31,-14,17,22,-24,1,33,-88,-106,-117,-116,-109
-31,-14,17,22,-24,1,27,-94,-106,-117,-110,-115
-31,-14,17,22,-24,1,21,-94,-106,-111,-110,-115
-37,-14,23,25,-30,4,9,-106,-106,-111,-104,-115
-31,-8,23,19,-27,7,-3,-112,-112,-105,-98,-109
-31,-2,29,16,-30,13,-9,-124,-112,-105,-98,-109
-31,-2,29,16,-30,13,-14,-124,-112,-99,-92,-103
-19,4,23,7,-21,13,-19,-124,-106,-99,-92,-97
-13,4,17,4,-15,10,-25,-124,-106,-99,-92,-91
-1,10,11,-4,-6,10,-31,-124,-106,-93,-92,-91
-1,10,11,-4,-6,10,-31,-118,-106,-93,-92,-91
5,10,5,-7,0,7,-31,-118,-100,-93,-92,-85
5,10,5,-7,0,7,-25,-112,-100,-93,-86,-85
5,4,-1,-4,3,1,-31,-112,-100,-93,-86,-85
11,4,-7,-7,9,-1,-37,-112,-100,-93,-80,-85
17,4,-13,-10,15,-4,-43,-112,-100,-93,-86,-85
17,-2,-19,-7,18,-10,-49,-112,-106,-99,-86,-85
11,-14,-25,1,18,-19,-55,-118,-106,-105,-92,-91
11,-20,-31,4,21,-25,-55,-124,-118,-111,-104,-91
11,-26,-37,7,24,-31,-55,-124,-124,-123,-110,-97
5,-38,-43,16,24,-40,-49,-124,-130,-129,-110,-103
-1,-44,-43,22,21,-43,-43,-130,-130,-129,-110,-103
-13,-56,-43,34,15,-49,-43,-130,-130,-135,-116,-109
-25,-62,-37,43,6,-49,-37,-130,-136,-135,-122,-121
-37,-74,-37,55,0,-55,-37,-130,-142,-141,-128,-127
-43,-74,-31,58,-6,-52,-37,-136,-148,-147,-140,-133
-55,-86,-31,70,-12,-58,-37,-142,-154,-153,-146,-139
-66,-97,-31,81,-17,-64,-37,-148,-166,-159,-158,-139
-77,-108,-31,92,-23,-69,-43,-148,-172,-165,-164,-145
-89,-126,-37,107,-26,-81,-37,-148,-178,-171,-176,-151
-83,-126,-43,104,-20,-84,-43,-154,-184,-177,-182,-151
-83,-126,-43,104,-20,-84,-43,-160,-184,-183,-182,-157
-77,-126,-49,101,-14,-87,-43,-166,-190,-195,-188,-157
-77,-126,-49,101,-14,-87,-43,-172,-190,-195,-188,-157
-71,-120,-49,95,-11,-84,-43,-172,-196,-195,-188,-157
-71,-120,-49,95,-11,-84,-49,-178,-196,-195,-188,-157
-71,-120,-49,95,-11,-84,-49,-178,-202,-195,-188,-157
-71,-120,-49,95,-11,-84,-49,-178,-202,-195,-182,-151
-71,-120,-49,95,-11,-84,-49,-172,-202,-195,-182,-151
-77,-120,-43,98,-17,-81,-43,-172,-202,-195,-176,-151
-77,-120,-43,98,-17,-81,-43,-166,-196,-189,-170,-151
-77,-114,-37,95,-20,-75,-37,-160,-184,-183,-164,-145
-83,-120,-37,101,-23,-78,-37,-148,-172,-177,-164,-145
-83,-114,-31,98,-26,-72,-31,-136,-160,-165,-158,-139
-83,-108,-25,95,-29,-66,-19,-118,-142,-153,-152,-139
-89,-102,-13,95,-38,-57,-14,-100,-124,-135,-140,-133
-95,-102,-7,98,-44,-54,-3,-82,-112,-123,-122,-127
-107,-102,5,104,-56,-48,15,-58,-94,-111,-110,-127
-114,-97,17,105,-65,-40,27,-46,-82,-99,-104,-127
-120,-97,23,108,-71,-37,45,-28,-70,-87,-92,-127
-127,-92,35,109,-81,-28,57,-6,-52,-69,-80,-121
-127,-92,35,109,-81,-28,69,18,-34,-57,-74,-115
-139,-92,47,115,-93,-22,81,42,-16,-45,-68,-115
-139,-86,53,112,-96,-16,93,78,14,-34,-62,-115
-145,-86,59,115,-102,-13,117,120,48,-17,-50,-115
-151,-80,71,115,-111,-4,153,180,102,19,-38,-121
-163,-80,83,121,-123,1,213,300,198,73,-14,-121
-175,-80,95,127,-135,7,309,480,336,157,20,-121
-175,-68,107,121,-141,19,423,696,510,259,74,-115
-181,-56,125,118,-153,34,537,894,684,379,140,-103
-175,-20,155,97,-165,67,639,1056,858,499,224,-67
-163,16,179,73,-171,97,723,1176,1014,637,332,-15
-133,82,215,25,-174,148,801,1272,1176,793,464,69
-91,148,239,-28,-165,193,849,1308,1308,955,626,183
-37,214,251,-88,-144,232,885,1290,1410,1129,806,327
35,304,269,-169,-117,286,879,1200,1476,1309,1016,501
131,430,299,-280,-84,364,819,1020,1500,1495,1244,705
233,568,335,-400,-51,451,705,780,1500,1687,1502,945
335,730,395,-532,-30,562,555,492,1494,1903,1778,1197
419,898,479,-658,-30,688,369,162,1464,2089,2030,1437
491,1018,527,-754,-18,772,153,-154,1386,2191,2198,1617
539,1048,509,-793,15,778,-37,-418,1224,2131,2204,1665
521,976,455,-748,33,715,-163,-604,1002,1927,2048,1593
425,856,431,-640,-3,643,-241,-748,750,1645,1802,1443
305,730,425,-517,-60,577,-307,-874,468,1327,1514,1239
179,598,419,-388,-120,508,-343,-988,150,949,1160,993
59,448,389,-253,-165,418,-367,-1054,-136,571,794,723
-31,328,359,-148,-195,343,-379,-1060,-334,265,488,483
-97,238,335,-70,-216,286,-373,-1030,-436,55,248,291
-145,166,311,-10,-228,238,-355,-964,-466,-75,80,147
-169,118,287,25,-228,202,-337,-886,-454,-165,-20,45
-181,88,269,46,-225,178,-325,-802,-442,-207,-86,-9
-181,70,251,55,-216,160,-307,-718,-418,-225,-116,-43
-175,58,233,58,-204,145,-277,-628,-382,-219,-122,-61
-163,46,209,58,-186,127,-241,-526,-340,-195,-110,-67
-139,40,179,49,-159,109,-211,-430,-298,-171,-92,-61
-115,34,149,40,-132,91,-181,-352,-256,-147,-80,-55
-91,22,113,34,-102,67,-145,-280,-214,-129,-74,-49
-73,10,83,31,-78,46,-115,-232,-178,-123,-74,-49
-61,-8,53,34,-57,22,-91,-196,-154,-117,-74,-49
-55,-32,23,43,-39,-4,-73,-172,-142,-117,-80,-49
-61,-56,5,58,-33,-25,-61,-154,-130,-117,-86,-55
-61,-74,-13,67,-24,-43,-55,-142,-130,-117,-92,-67
-61,-86,-25,73,-18,-55,-55,-130,-130,-123,-98,-73
-60,-97,-37,78,-11,-67,-49,-118,-136,-129,-104,-85
-59,-102,-43,80,-8,-72,-49,-112,-136,-135,-110,-91
-53,-102,-49,77,-2,-75,-43,-100,-136,-141,-116,-91
-53,-102,-49,77,-2,-75,-37,-94,-130,-147,-116,-91
-54,-97,-43,75,-5,-70,-37,-94,-130,-153,-122,-91
-49,-92,-43,70,-3,-67,-37,-88,-130,-153,-128,-91
-43,-92,-49,67,3,-70,-37,-82,-130,-153,-134,-97
-42,-97,-55,69,6,-76,-37,-82,-130,-153,-140,-97
-42,-102,-60,72,9,-81,-37,-82,-130,-153,-140,-103
-42,-102,-60,72,9,-81,-43,-82,-130,-153,-140,-103
-43,-108,-65,75,11,-86,-37,-70,-130,-153,-134,-103
-43,-108,-65,75,11,-86,-37,-64,-124,-153,-134,-103
-43,-108,-65,75,11,-86,-31,-58,-124,-153,-128,-97
-48,-108,-60,78,6,-84,-25,-52,-124,-153,-128,-97
-48,-108,-60,78,6,-84,-25,-52,-124,-159,-128,-97
-49,-114,-65,81,8,-89,-25,-52,-124,-159,-128,-97
-43,-108,-65,75,11,-86,-19,-46,-118,-153,-128,-91
-37,-108,-71,72,17,-89,-19,-46,-118,-153,-122,-91
-37,-108,-71,72,17,-89,-19,-46,-118,-147,-122,-97
-31,-102,-71,66,20,-86,-19,-46,-118,-135,-116,-91
-31,-102,-71,66,20,-86,-25,-40,-112,-135,-116,-91
-31,-102,-71,66,20,-86,-25,-40,-112,-135,-116,-85
-31,-102,-71,66,20,-86,-25,-34,-112,-141,-122,-85
-25,-102,-77,63,26,-89,-25,-28,-106,-141,-116,-79
-31,-108,-77,69,23,-92,-31,-22,-106,-141,-116,-79
-25,-102,-77,63,26,-89,-25,-17,-106,-135,-110,-73
-25,-102,-77,63,26,-89,-25,-17,-100,-129,-104,-73
-15,-92,-77,53,31,-84,-19,-17,-94,-129,-104,-73
-15,-92,-77,53,31,-84,-19,-17,-94,-123,-104,-67
-14,-97,-83,55,34,-90,-19,-17,-88,-117,-98,-67
-14,-97,-83,55,34,-90,-25,-17,-88,-111,-92,-73
-9,-92,-83,50,37,-87,-31,-17,-82,-105,-86,-67
-9,-92,-83,50,37,-87,-25,-12,-70,-99,-80,-67
-9,-92,-83,50,37,-87,-25,-12,-70,-99,-80,-61
-9,-92,-83,50,37,-87,-25,-12,-64,-105,-80,-55
-9,-92,-83,50,37,-87,-19,-6,-64,-99,-80,-49
-9,-92,-83,50,37,-87,-19,0,-64,-99,-80,-49
-9,-92,-83,50,37,-87,-19,0,-64,-99,-74,-49
-3,-86,-83,44,40,-84,-19,6,-58,-93,-74,-49
3,-86,-89,41,46,-87,-19,6,-58,-87,-68,-49
9,-80,-89,35,49,-84,-19,12,-46,-81,-56,-43
9,-80,-89,35,49,-84,-25,18,-46,-81,-56,-37
15,-74,-89,29,52,-81,-25,24,-46,-75,-56,-37
15,-74,-89,29,52,-81,-25,24,-40,-75,-56,-32
15,-74,-89,29,52,-81,-25,30,-34,-69,-50,-32
15,-74,-89,29,52,-81,-19,36,-34,-63,-50,-27
15,-74,-89,29,52,-81,-19,36,-28,-57,-44,-21
15,-74,-89,29,52,-81,-19,42,-28,-57,-38,-15
15,-74,-89,29,52,-81,-19,48,-22,-51,-38,-15
15,-74,-89,29,52,-81,-19,54,-22,-51,-32,-15
15,-74,-89,29,52,-81,-19,60,-16,-45,-26,-9
21,-68,-89,23,55,-78,-19,66,-16,-45,-26,-3
21,-68,-89,23,55,-78,-19,66,-10,-39,-26,-3
21,-62,-83,20,52,-72,-14,66,-4,-34,-14,9
15,-68,-83,26,49,-75,-14,72,2,-34,-14,9
21,-62,-83,20,52,-72,-14,78,8,-34,-8,9
27,-56,-83,14,55,-69,-9,84,14,-29,4,15
39,-44,-83,2,61,-63,-14,90,20,-23,10,15
45,-38,-83,-3,64,-60,-19,96,25,-23,15,15
51,-38,-89,-6,70,-63,-19,96,25,-11,15,21
51,-38,-89,-6,70,-63,-25,108,30,1,20,27
51,-38,-89,-6,70,-63,-19,114,36,7,20,33
51,-38,-89,-6,70,-63,-19,120,42,13,26,39
51,-44,-95,-3,73,-69,-14,126,42,13,26,51
57,-38,-95,-9,76,-66,-14,132,48,19,32,57
69,-26,-95,-21,82,-60,-9,138,60,19,38,63
75,-26,-101,-24,88,-63,-14,150,72,31,50,63
81,-20,-101,-30,91,-60,-14,156,78,37,62,69
81,-20,-101,-30,91,-60,-19,168,78,43,68,69
87,-8,-95,-39,91,-51,-25,180,84,55,80,81
93,-2,-95,-45,94,-48,-25,192,96,67,86,87
93,-2,-95,-45,94,-48,-25,204,102,79,92,93
99,4,-95,-51,97,-45,-19,210,108,85,98,99
99,4,-95,-51,97,-45,-14,222,114,91,104,117
105,4,-101,-54,103,-48,-14,222,126,97,110,123
111,10,-101,-60,106,-45,-14,240,132,109,122,129
111,10,-101,-60,106,-45,-14,246,144,121,134,135
123,16,-107,-69,115,-45,-19,264,156,127,146,141
135,28,-107,-81,121,-39,-25,276,168,139,158,153
141,40,-101,-90,121,-30,-31,288,180,151,176,171
147,46,-101,-96,124,-27,-31,300,198,169,188,183
153,52,-101,-102,127,-24,-31,312,210,181,200,195
159,58,-101,-108,130,-21,-31,324,222,193,212,207
159,64,-95,-111,127,-15,-31,336,234,205,224,219
165,70,-95,-117,130,-12,-31,342,240,217,236,225
177,88,-89,-132,133,0,-31,348,246,229,248,231
183,94,-89,-138,136,2,-25,360,264,241,260,243
183,94,-89,-138,136,2,-31,372,270,253,278,249
195,112,-83,-153,139,14,-31,384,282,265,290,261
201,124,-77,-162,139,23,-37,396,288,283,308,273
207,130,-77,-168,142,26,-31,408,300,295,314,285
213,142,-71,-177,142,35,-31,420,312,307,326,297
213,142,-71,-177,142,35,-25,426,324,313,332,303
213,148,-65,-180,139,41,-19,432,336,325,338,309
213,148,-65,-180,139,41,-14,444,342,331,338,315
226,166,-60,-196,143,53,-14,456,348,343,350,327
221,172,-49,-196,135,61,-9,468,360,355,362,339
227,184,-43,-205,135,70,-9,480,366,367,374,345
221,178,-43,-199,132,67,-9,486,378,373,386,351
221,184,-37,-202,129,73,-3,492,384,379,392,351
221,184,-37,-202,129,73,3,492,390,391,398,357
221,190,-31,-205,126,79,3,492,396,397,404,363
221,196,-25,-208,123,85,9,492,408,403,410,363
221,196,-25,-208,123,85,9,492,414,409,410,369
215,196,-19,-205,117,88,15,492,414,415,416,369
209,196,-13,-202,111,91,27,486,420,421,416,369
209,202,-7,-205,108,97,33,486,420,421,416,369
203,208,5,-205,99,106,33,480,426,427,422,369
191,202,11,-196,90,106,39,468,426,421,422,369
179,190,11,-184,84,100,39,456,420,421,422,363
173,190,17,-181,78,103,39,444,420,415,416,357
161,178,17,-169,72,97,51,432,414,403,404,345
149,178,29,-163,60,103,57,414,408,391,392,327
137,166,29,-151,54,97,63,390,396,379,374,309
131,166,35,-148,48,100,63,366,384,367,356,291
125,160,35,-142,45,97,63,348,366,349,338,273
107,142,35,-124,36,88,63,324,348,331,320,255
101,142,41,-121,30,91,63,300,330,313,302,237
89,130,41,-109,24,85,63,282,306,289,278,219
71,118,47,-94,12,82,63,258,282,259,254,201
65,112,47,-88,9,79,63,234,258,235,230,183
53,94,41,-73,6,67,57,210,234,211,206,159
41,82,41,-61,0,61,51,186,204,187,182,141
35,70,35,-52,0,52,45,162,180,163,158,123
23,58,35,-40,-6,46,45,138,156,139,134,105
17,46,29,-31,-6,37,45,120,138,115,116,87
11,40,29,-25,-9,34,39,96,114,97,98,69
5,28,23,-16,-9,25,39,78,96,79,80,51
-7,10,17,-1,-12,13,39,66,72,61,62,33
-13,-2,11,7,-12,4,33,48,48,37,44,15
-13,-2,11,7,-12,4,33,36,30,19,26,3
-25,-20,5,22,-15,-7,33,18,25,7,15,-3
-31,-26,5,28,-18,-10,33,6,8,-11,4,-15
-31,-32,-1,31,-15,-16,27,-6,-4,-29,-8,-21
-37,-38,-1,37,-18,-19,21,-17,-16,-34,-14,-32
-37,-38,-1,37,-18,-19,21,-22,-22,-39,-26,-32
-43,-50,-7,46,-18,-28,15,-28,-28,-51,-38,-43
-43,-50,-7,46,-18,-28,9,-34,-40,-57,-50,-49
-55,-62,-7,58,-24,-34,9,-40,-46,-69,-56,-55
-49,-56,-7,52,-21,-31,15,-40,-52,-69,-62,-55
-49,-56,-7,52,-21,-31,15,-40,-58,-75,-62,-61
-49,-56,-7,52,-21,-31,15,-46,-64,-87,-74,-67
-61,-74,-13,67,-24,-43,15,-52,-76,-93,-80,-79
-61,-74,-13,67,-24,-43,15,-58,-82,-99,-86,-85
-49,-68,-19,58,-15,-43,21,-58,-82,-99,-86,-85
-43,-62,-19,52,-12,-40,21,-58,-82,-99,-92,-85
-37,-56,-19,46,-9,-37,15,-64,-88,-99,-98,-91
-37,-56,-19,46,-9,-37,15,-70,-88,-105,-98,-91
-37,-56,-19,46,-9,-37,15,-76,-88,-105,-98,-91
-43,-68,-25,55,-9,-46,15,-70,-88,-105,-98,-97
-43,-68,-25,55,-9,-46,15,-70,-88,-105,-98,-97
-43,-68,-25,55,-9,-46,15,-70,-88,-111,-98,-97
-49,-68,-19,58,-15,-43,15,-70,-88,-111,-98,-103
-49,-68,-19,58,-15,-43,15,-70,-82,-117,-98,-97
-49,-68,-19,58,-15,-43,15,-70,-88,-117,-104,-97
-49,-68,-19,58,-15,-43,15,-76,-88,-117,-98,-97
-49,-74,-25,61,-12,-49,15,-76,-88,-117,-98,-91
-43,-68,-25,55,-9,-46,21,-76,-94,-117,-104,-85
-43,-68,-25,55,-9,-46,21,-76,-88,-117,-98,-85
-43,-68,-25,55,-9,-46,21,-76,-88,-117,-98,-85
-43,-68,-25,55,-9,-46,21,-76,-88,-117,-98,-85
-43,-68,-25,55,-9,-46,21,-70,-88,-117,-98,-85
-49,-74,-25,61,-12,-49,21,-70,-88,-117,-92,-85
-49,-74,-25,61,-12,-49,15,-70,-88,-117,-92,-85
-55,-80,-25,67,-15,-52,15,-64,-88,-117,-92,-85
-55,-80,-25,67,-15,-52,15,-58,-88,-111,-86,-85
-55,-86,-31,70,-12,-58,15,-58,-88,-105,-86,-85
-49,-80,-31,64,-9,-55,21,-58,-88,-99,-86,-85
-49,-74,-25,61,-12,-49,21,-52,-94,-93,-86,-85
-49,-74,-25,61,-12,-49,21,-58,-94,-93,-86,-79
-43,-68,-25,55,-9,-46,15,-58,-94,-93,-86,-79
-43,-68,-25,55,-9,-46,15,-58,-88,-99,-86,-85
-43,-62,-19,52,-12,-40,15,-58,-88,-99,-86,-79
-37,-56,-19,46,-9,-37,15,-58,-88,-99,-86,-79
-37,-56,-19,46,-9,-37,9,-64,-88,-99,-86,-79
-31,-44,-13,37,-9,-28,15,-64,-82,-93,-80,-73
-31,-44,-13,37,-9,-28,15,-64,-82,-93,-80,-73
-37,-56,-19,46,-9,-37,15,-64,-88,-93,-80,-67
-37,-56,-19,46,-9,-37,21,-64,-88,-87,-80,-61
-37,-62,-25,49,-6,-43,15,-64,-82,-87,-80,-67
-43,-68,-25,55,-9,-46,9,-64,-82,-93,-74,-61
-37,-62,-25,49,-6,-43,9,-64,-82,-87,-74,-67
-37,-62,-25,49,-6,-43,3,-58,-82,-87,-74,-67
-31,-56,-25,43,-3,-40,3,-58,-82,-87,-74,-67
-31,-56,-25,43,-3,-40,3,-58,-82,-87,-74,-67
-37,-62,-25,49,-6,-43,9,-58,-82,-93,-80,-67
-37,-56,-19,46,-9,-37,9,-58,-82,-93,-80,-73
-37,-56,-19,46,-9,-37,15,-52,-82,-93,-80,-73
-31,-50,-19,40,-6,-34,15,-52,-82,-87,-80,-73
-31,-50,-19,40,-6,-34,21,-52,-82,-87,-80,-67
-37,-56,-19,46,-9,-37,15,-52,-82,-87,-80,-67
-37,-56,-19,46,-9,-37,15,-58,-82,-87,-80,-61
-25,-44,-19,34,-3,-31,15,-52,-82,-81,-80,-55
-25,-50,-25,37,0,-37,9,-58,-82,-81,-74,-55
-25,-50,-25,37,0,-37,3,-58,-88,-87,-74,-55
-25,-50,-25,37,0,-37,3,-64,-88,-87,-74,-55
-25,-50,-25,37,0,-37,3,-58,-88,-93,-68,-55
-25,-56,-31,40,3,-43,9,-52,-88,-93,-68,-55
-25,-56,-31,40,3,-43,9,-52,-88,-93,-68,-55
-25,-56,-31,40,3,-43,9,-52,-88,-93,-68,-61
-25,-50,-25,37,0,-37,9,-52,-88,-93,-68,-61
-31,-56,-25,43,-3,-40,3,-52,-88,-93,-74,-67
-25,-50,-25,37,0,-37,3,-52,-88,-93,-74,-67
-25,-56,-31,40,3,-43,9,-58,-88,-93,-74,-67
-25,-56,-31,40,3,-43,9,-58,-88,-93,-74,-55
-25,-56,-31,40,3,-43,9,-58,-88,-93,-74,-55
-25,-56,-31,40,3,-43,9,-58,-88,-99,-74,-61
-25,-56,-31,40,3,-43,9,-64,-94,-99,-74,-61
-25,-56,-31,40,3,-43,3,-70,-88,-105,-80,-61
-25,-50,-25,37,0,-37,3,-70,-88,-111,-80,-67
-25,-50,-25,37,0,-37,-3,-70,-94,-111,-86,-67
-25,-50,-25,37,0,-37,-3,-76,-94,-117,-92,-73
-25,-50,-25,37,0,-37,-3,-76,-94,-111,-92,-73
-25,-50,-25,37,0,-37,3,-76,-100,-111,-92,-79
-25,-50,-25,37,0,-37,3,-82,-106,-117,-92,-85
-25,-50,-25,37,0,-37,-3,-82,-106,-111,-92,-85
-25,-50,-25,37,0,-37,-3,-76,-106,-111,-92,-91
-19,-44,-25,31,3,-34,-3,-76,-100,-105,-92,-85
-19,-44,-25,31,3,-34,-9,-76,-94,-105,-92,-85
-19,-44,-25,31,3,-34,-9,-82,-94,-111,-92,-85
-19,-44,-25,31,3,-34,-3,-82,-88,-117,-92,-79
-25,-50,-25,37,0,-37,-3,-82,-94,-117,-92,-79
-25,-56,-31,40,3,-43,-3,-88,-100,-117,-98,-79
-19,-50,-31,34,6,-40,-3,-94,-100,-117,-92,-79
-19,-56,-37,37,9,-46,3,-94,-106,-111,-92,-85
-25,-62,-37,43,6,-49,3,-94,-106,-111,-98,-85
-25,-62,-37,43,6,-49,3,-94,-106,-117,-98,-91
-25,-62,-37,43,6,-49,3,-94,-106,-117,-98,-91
-25,-62,-37,43,6,-49,-3,-94,-106,-123,-98,-85
-25,-62,-37,43,6,-49,-3,-94,-106,-129,-98,-91
-31,-68,-37,49,3,-52,-3,-94,-106,-129,-104,-91
-31,-62,-31,46,0,-46,-9,-94,-112,-129,-104,-91
-31,-62,-31,46,0,-46,-9,-94,-112,-129,-104,-91
-31,-62,-31,46,0,-46,-9,-94,-112,-129,-104,-85
-25,-56,-31,40,3,-43,-9,-94,-112,-129,-104,-85
-25,-56,-31,40,3,-43,-9,-94,-112,-129,-110,-85
-31,-68,-37,49,3,-52,-9,-94,-118,-135,-110,-91
-31,-68,-37,49,3,-52,-14,-94,-118,-135,-116,-91
-37,-74,-37,55,0,-55,-14,-94,-124,-141,-116,-85
-37,-74,-37,55,0,-55,-14,-100,-124,-141,-116,-85
-31,-74,-43,52,6,-58,-14,-100,-124,-135,-116,-85
-37,-80,-43,58,3,-61,-14,-100,-124,-135,-116,-91
-37,-74,-37,55,0,-55,-14,-100,-124,-135,-110,-91
-37,-74,-37,55,0,-55,-9,-106,-130,-135,-110,-97
-37,-74,-37,55,0,-55,-3,-106,-130,-141,-110,-97
-31,-68,-37,49,3,-52,-3,-106,-130,-141,-116,-97
-31,-74,-43,52,6,-58,-3,-106,-136,-141,-116,-97
-31,-74,-43,52,6,-58,-3,-106,-136,-141,-122,-97
-31,-68,-37,49,3,-52,-9,-106,-136,-141,-122,-97
-31,-68,-37,49,3,-52,-14,-106,-136,-141,-128,-103
-37,-68,-31,52,-3,-49,-14,-112,-142,-147,-128,-103
-37,-68,-31,52,-3,-49,-14,-112,-142,-153,-134,-115
-37,-74,-37,55,0,-55,-14,-112,-142,-147,-134,-115
-37,-74,-37,55,0,-55,-9,-112,-142,-147,-140,-115
-37,-74,-37,55,0,-55,-9,-106,-142,-147,-134,-115
-31,-68,-37,49,3,-52,-9,-118,-142,-147,-134,-115
-37,-74,-37,55,0,-55,-14,-118,-142,-147,-134,-115
-37,-74,-37,55,0,-55,-14,-112,-148,-153,-134,-109
-37,-80,-43,58,3,-61,-14,-112,-154,-153,-134,-109
-37,-74,-37,55,0,-55,-9,-106,-148,-147,-128,-103
-37,-74,-37,55,0,-55,-9,-106,-148,-141,-128,-103
-37,-74,-37,55,0,-55,-14,-112,-148,-147,-128,-103
-43,-86,-43,64,0,-64,-14,-112,-148,-147,-128,-103
-37,-80,-43,58,3,-61,-14,-112,-148,-147,-134,-103
-37,-86,-49,61,6,-67,-14,-112,-148,-147,-134,-109
-37,-86,-49,61,6,-67,-9,-112,-142,-153,-128,-103
-37,-86,-49,61,6,-67,-14,-112,-148,-153,-128,-103
-37,-86,-49,61,6,-67,-14,-112,-148,-153,-128,-103
-37,-86,-49,61,6,-67,-14,-106,-148,-159,-128,-103
-37,-86,-49,61,6,-67,-14,-106,-148,-159,-128,-103
-43,-86,-43,64,0,-64,-19,-112,-154,-159,-134,-103
-54,-97,-43,75,-5,-70,-14,-112,-160,-159,-134,-109
-49,-92,-43,70,-3,-67,-14,-106,-160,-153,-128,-109
-49,-92,-43,70,-3,-67,-14,-106,-154,-153,-128,-103
-49,-92,-43,70,-3,-67,-19,-106,-154,-153,-128,-109
-49,-92,-43,70,-3,-67,-19,-106,-160,-153,-128,-109
-43,-86,-43,64,0,-64,-19,-100,-160,-159,-134,-109
-43,-92,-49,67,3,-70,-14,-100,-160,-159,-134,-115
-43,-92,-49,67,3,-70,-14,-100,-160,-165,-140,-115
-43,-92,-49,67,3,-70,-14,-94,-160,-165,-146,-121
-43,-92,-49,67,3,-70,-14,-94,-160,-165,-146,-121
-43,-86,-43,64,0,-64,-14,-100,-154,-165,-146,-121
-43,-86,-43,64,0,-64,-19,-100,-160,-165,-146,-121
-43,-86,-43,64,0,-64,-19,-100,-160,-165,-146,-115
-49,-92,-43,70,-3,-67,-19,-106,-160,-165,-146,-115
-49,-92,-43,70,-3,-67,-19,-100,-160,-165,-146,-115
-43,-92,-49,67,3,-70,-19,-106,-160,-159,-140,-121
-48,-97,-49,72,0,-73,-25,-106,-166,-165,-140,-121
-43,-92,-49,67,3,-70,-25,-106,-166,-165,-140,-121
-43,-92,-49,67,3,-70,-31,-112,-166,-165,-140,-121
-43,-86,-43,64,0,-64,-31,-118,-166,-171,-140,-115
-49,-92,-43,70,-3,-67,-31,-118,-160,-171,-146,-115
-43,-86,-43,64,0,-64,-25,-112,-154,-165,-140,-115
-43,-86,-43,64,0,-64,-25,-112,-154,-159,-146,-109
-43,-86,-43,64,0,-64,-25,-112,-154,-165,-146,-109
-49,-92,-43,70,-3,-67,-25,-112,-154,-165,-146,-109
-49,-92,-43,70,-3,-67,-19,-112,-160,-165,-146,-109
-43,-86,-43,64,0,-64,-19,-112,-160,-165,-146,-109
-43,-86,-43,64,0,-64,-19,-112,-166,-159,-146,-109
-43,-86,-43,64,0,-64,-19,-112,-166,-159,-146,-109
-43,-86,-43,64,0,-64,-19,-112,-166,-159,-140,-109
-37,-80,-43,58,3,-61,-19,-118,-166,-159,-140,-109
-43,-86,-43,64,0,-64,-19,-112,-160,-159,-140,-109
-43,-86,-43,64,0,-64,-19,-112,-160,-165,-146,-109
-49,-92,-43,70,-3,-67,-25,-112,-166,-171,-152,-109
-54,-97,-43,75,-5,-70,-25,-112,-160,-171,-152,-115
-55,-92,-37,73,-9,-64,-25,-112,-166,-171,-152,-115
-55,-92,-37,73,-9,-64,-25,-118,-166,-171,-152,-115
-55,-92,-37,73,-9,-64,-25,-118,-166,-171,-152,-121
-49,-92,-43,70,-3,-67,-19,-118,-166,-171,-146,-127
-54,-97,-43,75,-5,-70,-25,-118,-160,-171,-146,-127
-54,-97,-43,75,-5,-70,-25,-118,-166,-171,-146,-127
-54,-97,-43,75,-5,-70,-25,-124,-166,-171,-146,-127
-54,-97,-43,75,-5,-70,-25,-118,-166,-171,-146,-127
-49,-92,-43,70,-3,-67,-25,-118,-166,-171,-146,-121
-49,-92,-43,70,-3,-67,-25,-124,-166,-171,-146,-121
-49,-92,-43,70,-3,-67,-25,-124,-172,-177,-146,-127
-49,-92,-43,70,-3,-67,-25,-124,-172,-171,-146,-127
-49,-86,-37,67,-6,-61,-31,-124,-172,-171,-146,-121
-55,-92,-37,73,-9,-64,-31,-130,-178,-171,-152,-127
-49,-86,-37,67,-6,-61,-31,-130,-178,-171,-152,-127
-49,-86,-37,67,-6,-61,-25,-130,-178,-171,-152,-127
-55,-86,-31,70,-12,-58,-19,-130,-172,-165,-152,-127
-49,-80,-31,64,-9,-55,-14,-124,-166,-159,-146,-121
-43,-68,-25,55,-9,-46,-9,-118,-160,-153,-146,-115
-43,-68,-25,55,-9,-46,-3,-112,-160,-153,-146,-121
-37,-62,-25,49,-6,-43,-3,-106,-154,-153,-140,-109
-37,-56,-19,46,-9,-37,-3,-100,-148,-147,-134,-103
-37,-56,-19,46,-9,-37,-3,-100,-142,-141,-128,-103
-37,-44,-7,40,-15,-25,-3,-94,-142,-135,-122,-97
-37,-38,-1,37,-18,-19,-3,-94,-136,-135,-122,-97
-31,-32,-1,31,-15,-16,-3,-94,-136,-129,-122,-97
-37,-32,5,34,-21,-13,-3,-94,-136,-135,-122,-97
-31,-26,5,28,-18,-10,-3,-94,-130,-135,-122,-97
-31,-26,5,28,-18,-10,-3,-88,-124,-141,-122,-97
-25,-20,5,22,-15,-7,3,-82,-124,-147,-116,-97
-19,-20,-1,19,-9,-10,9,-76,-118,-141,-116,-97
-13,-20,-7,16,-3,-13,9,-70,-118,-141,-116,-91
-13,-20,-7,16,-3,-13,15,-76,-118,-141,-116,-91
-19,-20,-1,19,-9,-10,15,-76,-118,-135,-116,-91
-25,-26,-1,25,-12,-13,15,-76,-124,-129,-110,-85
-25,-20,5,22,-15,-7,15,-82,-124,-129,-110,-85
-25,-14,11,19,-18,-1,15,-88,-124,-123,-104,-79
-25,-8,17,16,-21,4,15,-88,-124,-123,-104,-79
-25,-8,17,16,-21,4,15,-94,-124,-117,-104,-79
-19,-8,11,13,-15,1,3,-100,-124,-117,-104,-79
-19,-8,11,13,-15,1,-3,-100,-124,-117,-104,-85
-19,-8,11,13,-15,1,-14,-106,-130,-123,-110,-85
-13,4,17,4,-15,10,-19,-106,-124,-123,-104,-79
-7,10,17,-1,-12,13,-25,-106,-124,-117,-104,-79
-1,22,23,-10,-12,22,-31,-112,-124,-117,-98,-73
5,28,23,-16,-9,25,-37,-112,-124,-117,-98,-73
5,22,17,-13,-6,19,-37,-112,-124,-111,-92,-67
5,22,17,-13,-6,19,-43,-112,-124,-111,-92,-61
11,22,11,-16,0,16,-43,-112,-124,-111,-86,-61
11,22,11,-16,0,16,-43,-106,-124,-111,-86,-55
17,16,-1,-16,9,7,-43,-106,-124,-117,-80,-49
17,16,-1,-16,9,7,-43,-106,-118,-111,-74,-43
23,10,-13,-16,18,-1,-43,-106,-118,-111,-74,-43
23,4,-19,-13,21,-7,-43,-106,-118,-111,-74,-43
23,-2,-25,-10,24,-13,-49,-106,-124,-117,-86,-43
17,-14,-31,-1,24,-22,-49,-112,-124,-123,-92,-49
17,-20,-37,1,27,-28,-55,-112,-136,-129,-98,-55
11,-32,-43,10,27,-37,-55,-118,-148,-135,-104,-61
-1,-44,-43,22,21,-43,-55,-124,-154,-135,-110,-67
-13,-50,-37,31,12,-43,-49,-130,-154,-141,-110,-73
-25,-56,-31,40,3,-43,-43,-130,-160,-147,-116,-85
-37,-74,-37,55,0,-55,-43,-130,-166,-153,-128,-97
-43,-80,-37,61,-3,-58,-43,-136,-172,-165,-134,-109
-49,-86,-37,67,-6,-61,-37,-142,-184,-177,-146,-121
-55,-92,-37,73,-9,-64,-43,-142,-190,-189,-158,-127
-60,-97,-37,78,-11,-67,-43,-148,-196,-195,-164,-139
-71,-108,-37,89,-17,-72,-43,-148,-202,-195,-164,-139
-71,-114,-43,92,-14,-78,-43,-148,-208,-201,-170,-145
-77,-126,-49,101,-14,-87,-49,-154,-214,-201,-176,-151
-77,-126,-49,101,-14,-87,-49,-160,-220,-213,-182,-145
-77,-126,-49,101,-14,-87,-55,-166,-220,-213,-182,-145
-77,-126,-49,101,-14,-87,-61,-172,-226,-225,-188,-151
-71,-120,-49,95,-11,-84,-61,-178,-226,-225,-188,-151
-71,-120,-49,95,-11,-84,-67,-178,-226,-225,-182,-145
-65,-120,-55,92,-5,-87,-67,-172,-220,-225,-182,-145
-59,-114,-55,86,-2,-84,-67,-166,-220,-213,-176,-139
-66,-126,-60,96,-3,-93,-61,-160,-214,-207,-170,-139
-66,-126,-60,96,-3,-93,-55,-154,-208,-201,-164,-133
-66,-126,-60,96,-3,-93,-55,-142,-196,-195,-158,-127
-71,-126,-55,98,-8,-90,-49,-136,-190,-189,-152,-127
-77,-126,-49,101,-14,-87,-37,-124,-178,-177,-146,-121
-71,-108,-37,89,-17,-72,-31,-112,-166,-165,-134,-115
-71,-102,-31,86,-20,-66,-19,-94,-154,-159,-128,-115
-79,-92,-13,85,-33,-52,-14,-76,-136,-147,-116,-115
-85,-86,-1,85,-42,-43,-9,-58,-118,-129,-104,-109
-91,-80,11,85,-51,-34,3,-40,-100,-111,-98,-109
-97,-74,23,85,-60,-25,21,-22,-76,-99,-92,-109
-103,-68,35,85,-69,-16,39,-6,-58,-81,-80,-109
-109,-68,41,88,-75,-13,57,18,-40,-63,-74,-115
-121,-74,47,97,-84,-13,81,42,-22,-45,-62,-115
-127,-74,53,100,-90,-10,99,72,2,-29,-50,-115
-133,-80,53,106,-93,-13,123,120,36,-5,-38,-115
-139,-80,59,109,-99,-10,165,192,96,25,-26,-115
-145,-68,77,106,-111,4,231,312,204,73,-8,-115
-163,-74,89,118,-126,7,321,498,354,157,20,-115
-175,-74,101,124,-138,13,441,714,546,265,74,-109
-187,-68,119,127,-153,25,561,912,732,385,146,-97
-175,-32,143,103,-159,55,675,1068,906,523,236,-61
-163,16,179,73,-171,97,759,1146,1050,661,344,-9
-139,76,215,31,-177,145,831,1188,1176,817,488,75
-109,142,251,-16,-180,196,867,1182,1278,979,650,189
-49,220,269,-85,-159,244,879,1140,1356,1147,836,339
17,316,299,-166,-141,307,855,1050,1410,1327,1046,519
101,430,329,-265,-114,379,771,870,1416,1519,1280,729
197,574,377,-385,-90,475,633,636,1416,1729,1544,969
293,736,443,-514,-75,589,459,354,1410,1969,1838,1227
383,922,539,-652,-78,730,243,36,1380,2191,2114,1473
461,1054,593,-757,-66,823,9,-250,1296,2317,2294,1653
497,1072,575,-784,-39,823,-187,-484,1140,2269,2312,1701
473,1000,527,-736,-27,763,-313,-640,930,2071,2168,1623
395,898,503,-646,-54,700,-391,-760,684,1783,1922,1467
293,778,485,-535,-96,631,-451,-862,414,1441,1616,1269
173,646,473,-409,-150,559,-481,-964,90,1021,1238,1011
59,502,443,-280,-192,472,-493,-1030,-202,601,836,735
-25,370,395,-172,-210,382,-487,-1036,-400,271,500,489
-91,268,359,-88,-225,313,-469,-1006,-490,49,248,291
-127,196,323,-34,-225,259,-445,-940,-514,-81,80,141
-151,142,293,4,-222,217,-415,-856,-508,-165,-20,33
-163,106,269,28,-216,187,-385,-772,-490,-207,-74,-21
-169,76,245,46,-207,160,-349,-682,-460,-219,-98,-49
-157,70,227,43,-192,148,-313,-586,-418,-207,-104,-61
-151,52,203,49,-177,127,-265,-478,-364,-189,-98,-55
-133,40,173,46,-153,106,-223,-388,-310,-165,-98,-49
-109,28,137,40,-123,82,-187,-310,-262,-141,-92,-37
-85,16,101,34,-93,58,-151,-250,-214,-129,-92,-32
-73,-8,65,40,-69,28,-121,-208,-184,-123,-92,-32
-61,-26,35,43,-48,4,-97,-184,-166,-117,-86,-32
-61,-50,11,55,-36,-19,-79,-160,-160,-117,-86,-37
-61,-74,-13,67,-24,-43,-73,-148,-154,-117,-86,-49
-61,-92,-31,76,-15,-61,-67,-130,-154,-123,-92,-55
-60,-97,-37,78,-11,-67,-61,-112,-154,-129,-98,-67
-65,-108,-43,86,-11,-75,-55,-94,-154,-129,-110,-79
-59,-114,-55,86,-2,-84,-43,-76,-148,-141,-122,-91
-42,-97,-55,69,6,-76,-37,-64,-142,-141,-122,-91
-43,-92,-49,67,3,-70,-37,-58,-142,-147,-128,-91
-42,-97,-55,69,6,-76,-31,-58,-142,-153,-134,-91
-42,-102,-60,72,9,-81,-31,-58,-142,-159,-140,-91
-48,-108,-60,78,6,-84,-31,-58,-142,-165,-140,-91
-49,-114,-65,81,8,-89,-31,-52,-142,-165,-146,-91
-49,-114,-65,81,8,-89,-31,-52,-142,-165,-146,-97
-43,-108,-65,75,11,-86,-31,-46,-148,-165,-152,-103
-37,-102,-65,69,14,-83,-31,-46,-142,-159,-146,-103
-32,-97,-65,64,16,-81,-31,-40,-142,-159,-146,-103
-32,-97,-65,64,16,-81,-25,-34,-142,-165,-152,-103
-31,-102,-71,66,20,-86,-19,-22,-130,-165,-140,-103
-31,-102,-71,66,20,-86,-19,-22,-130,-165,-140,-97
-31,-102,-71,66,20,-86,-14,-22,-124,-159,-140,-97
-25,-102,-77,63,26,-89,-14,-17,-118,-159,-134,-97
-31,-114,-83,72,26,-98,-14,-17,-118,-153,-140,-97
-37,-120,-83,78,23,-101,-14,-17,-118,-153,-140,-91
-37,-120,-83,78,23,-101,-14,-17,-118,-147,-140,-85
-31,-108,-77,69,23,-92,-19,-12,-112,-141,-134,-79
-25,-108,-83,66,29,-95,-25,-12,-112,-141,-134,-79
-25,-108,-83,66,29,-95,-25,-12,-112,-141,-134,-79
-19,-102,-83,60,32,-92,-25,-12,-112,-135,-128,-85
-25,-102,-77,63,26,-89,-25,-6,-106,-135,-128,-85
-31,-108,-77,69,23,-92,-25,-6,-112,-141,-128,-91
-20,-97,-77,58,28,-87,-14,6,-106,-129,-116,-85
-15,-92,-77,53,31,-84,-14,12,-100,-129,-116,-79
-15,-92,-77,53,31,-84,-14,12,-100,-123,-110,-73
-14,-97,-83,55,34,-90,-9,12,-100,-123,-104,-67
-14,-97,-83,55,34,-90,-9,12,-94,-123,-98,-61
-14,-97,-83,55,34,-90,-14,12,-88,-117,-98,-61
-15,-92,-77,53,31,-84,-14,6,-82,-111,-98,-61
-15,-86,-71,50,28,-78,-14,6,-76,-111,-92,-61
-9,-80,-71,44,31,-75,-14,12,-76,-111,-92,-61
-9,-74,-65,41,28,-69,-19,18,-76,-105,-92,-55
-3,-68,-65,35,31,-66,-19,24,-76,-105,-86,-55
3,-68,-71,32,37,-69,-19,30,-70,-99,-86,-49
3,-74,-77,35,40,-75,-19,36,-64,-93,-80,-43
3,-80,-83,38,43,-81,-14,42,-58,-93,-80,-37
3,-80,-83,38,43,-81,-14,42,-58,-87,-80,-32
3,-80,-83,38,43,-81,-9,42,-46,-87,-74,-32
3,-80,-83,38,43,-81,-3,48,-40,-81,-74,-32
3,-80,-83,38,43,-81,-9,54,-40,-75,-68,-27
9,-74,-83,32,46,-78,-9,60,-34,-75,-62,-27
9,-68,-77,29,43,-72,-14,66,-28,-75,-62,-27
15,-68,-83,26,49,-75,-14,72,-22,-69,-56,-27
15,-62,-77,23,46,-69,-14,72,-16,-63,-50,-21
15,-62,-77,23,46,-69,-9,78,-16,-57,-44,-21
21,-56,-77,17,49,-66,-9,84,-10,-51,-38,-21
21,-62,-83,20,52,-72,-9,84,-10,-51,-38,-15
21,-62,-83,20,52,-72,-9,90,-4,-45,-26,-9
27,-56,-83,14,55,-69,-3,96,8,-39,-20,-3
33,-50,-83,8,58,-66,-9,108,14,-34,-20,3
33,-44,-77,5,55,-60,-9,108,20,-29,-14,9
39,-44,-83,2,61,-63,-9,114,25,-29,-14,15
33,-50,-83,8,58,-66,3,126,30,-17,-2,15
33,-50,-83,8,58,-66,3,132,42,-11,-2,21
39,-44,-83,2,61,-63,3,138,48,1,4,21
39,-44,-83,2,61,-63,3,144,54,7,10,21
39,-44,-83,2,61,-63,9,156,60,7,10,27
45,-38,-83,-3,64,-60,9,162,66,19,15,33
45,-32,-77,-6,61,-54,9,168,66,19,20,33
39,-32,-71,-3,55,-51,9,168,72,19,26,39
51,-20,-71,-15,61,-45,9,180,84,25,32,45
57,-14,-71,-21,64,-42,9,186,96,31,32,51
57,-14,-71,-21,64,-42,9,192,108,43,38,51
63,-8,-71,-27,67,-39,9,198,114,55,44,63
63,-14,-77,-24,70,-45,9,210,120,61,50,69
69,-8,-77,-30,73,-42,9,216,132,73,62,75
75,-2,-77,-36,76,-39,3,234,144,91,80,81
81,4,-77,-42,79,-36,3,240,150,103,92,93
81,4,-77,-42,79,-36,9,258,162,115,110,99
87,10,-77,-48,82,-33,9,276,174,127,122,111
93,10,-83,-51,88,-36,15,288,186,139,128,123
99,10,-89,-54,94,-39,15,300,198,139,134,129
99,10,-89,-54,94,-39,15,312,210,151,146,135
105,10,-95,-57,100,-42,21,318,228,157,152,147
111,16,-95,-63,103,-39,21,324,240,169,158,159
117,28,-89,-72,103,-30,15,336,246,181,170,171
123,34,-89,-78,106,-27,15,348,258,193,182,183
135,52,-83,-93,109,-15,9,366,270,211,200,201
141,64,-77,-102,109,-6,9,378,288,229,218,213
147,70,-77,-108,112,-3,9,390,300,241,230,225
153,82,-71,-117,112,5,15,402,318,259,248,237
153,88,-65,-120,109,11,15,414,330,271,266,255
159,94,-65,-126,112,14,21,432,348,295,284,273
165,100,-65,-132,115,17,27,444,360,307,302,279
171,106,-65,-138,118,20,27,450,366,319,314,285
178,118,-60,-148,119,29,27,456,384,337,320,297
178,118,-60,-148,119,29,27,468,396,349,332,309
184,124,-60,-154,122,32,27,474,408,361,338,315
191,136,-55,-163,123,40,27,486,420,373,350,327
197,148,-49,-172,123,49,33,498,432,385,362,333
203,160,-43,-181,123,58,33,504,444,397,374,339
203,160,-43,-181,123,58,33,516,450,409,386,351
203,166,-37,-184,120,64,39,522,462,421,398,357
203,172,-31,-187,117,70,39,528,468,433,404,357
203,178,-25,-190,114,76,45,528,474,439,410,363
203,184,-19,-193,111,82,45,528,486,451,416,363
203,190,-13,-196,108,88,45,534,492,457,422,369
203,196,-7,-199,105,94,51,534,492,457,422,369
203,208,5,-205,99,106,57,534,504,469,428,369
197,208,11,-202,93,109,57,534,510,469,434,369
197,208,11,-202,93,109,63,534,510,469,434,363
191,208,17,-199,87,112,69,528,510,475,434,363
185,208,23,-196,81,115,69,516,510,475,434,363
179,196,17,-187,81,106,69,504,504,469,440,369
173,196,23,-184,75,109,75,486,504,469,440,369
167,196,29,-181,69,112,75,474,498,463,434,363
161,196,35,-178,63,115,75,462,492,457,422,357
143,190,47,-166,48,118,69,444,480,445,410,345
131,184,53,-157,39,118,69,426,462,433,398,327
125,178,53,-151,36,115,69,414,444,421,386,315
113,172,59,-142,27,115,69,390,420,403,368,297
107,166,59,-136,24,112,75,366,402,385,350,279
89,148,59,-118,15,103,75,336,378,355,326,255
77,136,59,-106,9,97,81,312,354,331,296,231
71,130,59,-100,6,94,75,282,330,301,266,213
59,118,59,-88,0,88,69,258,300,271,236,189
53,112,59,-82,-3,85,63,234,276,247,206,165
47,106,59,-76,-6,82,57,210,246,217,182,141
41,94,53,-67,-6,73,57,186,222,193,158,117
35,82,47,-58,-6,64,57,168,198,169,146,105
23,64,41,-43,-9,52,51,144,168,145,122,87
17,52,35,-34,-9,43,51,126,144,121,98,69
11,40,29,-25,-9,34,45,102,114,97,74,51
-1,22,23,-10,-12,22,39,84,90,73,56,39
-7,16,23,-4,-15,19,33,66,72,55,32,21
-19,-2,17,10,-18,7,33,48,60,37,15,3
-19,-2,17,10,-18,7,33,36,42,13,4,-9
-19,-8,11,13,-15,1,33,24,30,-5,-8,-15
-25,-14,11,19,-18,-1,33,12,25,-23,-14,-27
-31,-26,5,28,-18,-10,27,6,14,-34,-26,-32
-37,-38,-1,37,-18,-19,27,-6,-4,-45,-38,-37
-37,-38,-1,37,-18,-19,27,-12,-16,-51,-44,-49
-37,-44,-7,40,-15,-25,27,-17,-28,-57,-50,-55
-43,-50,-7,46,-18,-28,27,-28,-40,-69,-68,-61
-49,-62,-13,55,-18,-37,27,-34,-46,-81,-80,-73
-43,-62,-19,52,-12,-40,27,-46,-58,-93,-86,-73
-43,-68,-25,55,-9,-46,27,-46,-64,-99,-92,-79
-49,-74,-25,61,-12,-49,21,-52,-70,-99,-98,-79
-49,-74,-25,61,-12,-49,15,-52,-76,-105,-98,-91
-55,-80,-25,67,-15,-52,15,-52,-82,-111,-104,-91
-55,-80,-25,67,-15,-52,15,-52,-88,-117,-110,-97
-55,-80,-25,67,-15,-52,15,-58,-94,-129,-116,-97
-67,-92,-25,79,-21,-58,15,-64,-100,-135,-122,-103
-67,-86,-19,76,-24,-52,15,-64,-100,-135,-122,-103
-67,-86,-19,76,-24,-52,21,-70,-100,-135,-128,-109
-67,-86,-19,76,-24,-52,21,-70,-106,-135,-128,-115
-67,-92,-25,79,-21,-58,15,-76,-100,-135,-128,-115
-55,-80,-25,67,-15,-52,15,-76,-100,-135,-128,-115
-55,-80,-25,67,-15,-52,9,-76,-100,-129,-128,-115
-49,-74,-25,61,-12,-49,9,-70,-100,-129,-128,-115
-49,-74,-25,61,-12,-49,9,-70,-94,-129,-128,-115
-49,-74,-25,61,-12,-49,9,-70,-94,-129,-128,-109
-49,-74,-25,61,-12,-49,9,-70,-100,-123,-122,-109
-49,-80,-31,64,-9,-55,9,-70,-100,-123,-122,-109
-49,-80,-31,64,-9,-55,9,-70,-106,-129,-128,-109
-55,-86,-31,70,-12,-58,9,-64,-106,-129,-134,-115
-55,-86,-31,70,-12,-58,9,-64,-112,-135,-134,-121
-55,-80,-25,67,-15,-52,3,-70,-112,-135,-134,-127
-61,-86,-25,73,-18,-55,3,-70,-112,-135,-128,-127
-61,-86,-25,73,-18,-55,-3,-70,-112,-129,-128,-121
-61,-86,-25,73,-18,-55,-3,-70,-112,-129,-128,-115
-67,-92,-25,79,-21,-58,-3,-76,-112,-129,-128,-115
-61,-86,-25,73,-18,-55,3,-76,-100,-123,-122,-115
-61,-86,-25,73,-18,-55,3,-70,-100,-123,-122,-109
-61,-86,-25,73,-18,-55,9,-70,-100,-123,-122,-103
-55,-80,-25,67,-15,-52,9,-70,-100,-117,-122,-103
-55,-80,-25,67,-15,-52,9,-70,-100,-111,-122,-103
-55,-86,-31,70,-12,-58,9,-70,-100,-117,-116,-103
-49,-80,-31,64,-9,-55,3,-70,-100,-111,-116,-103
-43,-74,-31,58,-6,-52,3,-70,-100,-111,-104,-103
-43,-74,-31,58,-6,-52,3,-70,-106,-111,-104,-103
-43,-74,-31,58,-6,-52,3,-70,-106,-111,-104,-103
-43,-74,-31,58,-6,-52,9,-64,-100,-111,-98,-103
-43,-74,-31,58,-6,-52,15,-64,-100,-111,-104,-103
-49,-80,-31,64,-9,-55,15,-58,-100,-111,-104,-97
-49,-80,-31,64,-9,-55,15,-58,-94,-111,-98,-97
-55,-86,-31,70,-12,-58,15,-58,-94,-111,-92,-91
-55,-86,-31,70,-12,-58,15,-58,-88,-111,-92,-85
-55,-86,-31,70,-12,-58,15,-58,-88,-111,-92,-85
-49,-80,-31,64,-9,-55,9,-58,-88,-111,-92,-79
-49,-80,-31,64,-9,-55,9,-58,-88,-105,-92,-79
-49,-80,-31,64,-9,-55,9,-58,-88,-105,-92,-79
-43,-74,-31,58,-6,-52,9,-58,-88,-99,-92,-79
-37,-68,-31,52,-3,-49,15,-52,-88,-99,-92,-79
-37,-68,-31,52,-3,-49,15,-52,-94,-99,-98,-79
-37,-68,-31,52,-3,-49,15,-52,-94,-105,-98,-79
-31,-62,-31,46,0,-46,15,-46,-94,-105,-92,-85
-37,-62,-25,49,-6,-43,15,-52,-94,-111,-92,-85
-37,-56,-19,46,-9,-37,9,-52,-94,-111,-92,-79
-37,-62,-25,49,-6,-43,9,-58,-88,-105,-92,-79
-43,-68,-25,55,-9,-46,9,-58,-88,-105,-92,-79
-43,-74,-31,58,-6,-52,9,-52,-88,-105,-92,-79
-43,-74,-31,58,-6,-52,15,-58,-94,-105,-92,-79
-49,-80,-31,64,-9,-55,15,-58,-94,-105,-98,-79
-49,-80,-31,64,-9,-55,9,-58,-94,-105,-98,-85
-43,-74,-31,58,-6,-52,9,-52,-94,-105,-92,-91
-37,-62,-25,49,-6,-43,9,-52,-88,-105,-92,-91
-31,-50,-19,40,-6,-34,3,-46,-88,-111,-98,-97
-31,-50,-19,40,-6,-34,3,-46,-88,-111,-98,-97
-31,-50,-19,40,-6,-34,3,-46,-94,-111,-98,-97
-31,-56,-25,43,-3,-40,9,-46,-100,-111,-104,-97
-31,-56,-25,43,-3,-40,9,-46,-100,-111,-98,-97
-31,-62,-31,46,0,-46,9,-46,-100,-105,-98,-85
-31,-68,-37,49,3,-52,15,-46,-94,-105,-98,-85
-31,-68,-37,49,3,-52,15,-46,-94,-105,-98,-85
-31,-68,-37,49,3,-52,15,-46,-94,-111,-92,-79
-31,-68,-37,49,3,-52,15,-46,-94,-111,-92,-79
-31,-68,-37,49,3,-52,9,-40,-94,-111,-86,-79
-37,-74,-37,55,0,-55,9,-46,-94,-111,-86,-79
-37,-74,-37,55,0,-55,3,-46,-94,-111,-92,-79
-31,-68,-37,49,3,-52,3,-46,-94,-111,-86,-79
-31,-68,-37,49,3,-52,3,-46,-94,-105,-86,-85
-37,-74,-37,55,0,-55,3,-46,-94,-105,-92,-91
-37,-74,-37,55,0,-55,3,-52,-100,-111,-92,-97
-37,-74,-37,55,0,-55,3,-52,-100,-117,-98,-97
-37,-74,-37,55,0,-55,3,-52,-106,-117,-98,-97
-37,-80,-43,58,3,-61,3,-52,-106,-117,-104,-97
-31,-68,-37,49,3,-52,-3,-52,-112,-123,-104,-97
-31,-62,-31,46,0,-46,-3,-58,-112,-129,-110,-97
-31,-56,-25,43,-3,-40,-3,-58,-106,-123,-104,-97
-31,-56,-25,43,-3,-40,-3,-70,-106,-123,-104,-97
-37,-68,-31,52,-3,-49,-3,-70,-106,-123,-98,-97
-37,-68,-31,52,-3,-49,3,-70,-106,-123,-98,-97
-43,-80,-37,61,-3,-58,3,-76,-112,-123,-92,-97
-43,-80,-37,61,-3,-58,9,-76,-112,-123,-92,-97
-43,-86,-43,64,0,-64,3,-70,-118,-123,-98,-91
-37,-80,-43,58,3,-61,3,-70,-112,-123,-98,-85
-31,-74,-43,52,6,-58,3,-64,-118,-123,-98,-85
-31,-74,-43,52,6,-58,-3,-70,-118,-129,-104,-85
-37,-80,-43,58,3,-61,-9,-70,-124,-129,-104,-91
-37,-74,-37,55,0,-55,-9,-76,-130,-135,-110,-91
-37,-74,-37,55,0,-55,-9,-76,-130,-141,-116,-97
-37,-74,-37,55,0,-55,-3,-76,-130,-135,-116,-103
-43,-80,-37,61,-3,-58,3,-76,-130,-141,-128,-103
-54,-97,-43,75,-5,-70,3,-82,-136,-147,-134,-115
-43,-86,-43,64,0,-64,3,-76,-136,-141,-122,-109
-37,-80,-43,58,3,-61,3,-76,-136,-141,-116,-109
-37,-80,-43,58,3,-61,-3,-76,-136,-141,-116,-109
-37,-80,-43,58,3,-61,-9,-76,-136,-135,-110,-109
-31,-68,-37,49,3,-52,-9,-76,-136,-135,-104,-103
-37,-74,-37,55,0,-55,-9,-76,-136,-141,-104,-103
-37,-74,-37,55,0,-55,-3,-76,-136,-141,-110,-103
-37,-80,-43,58,3,-61,3,-76,-136,-141,-110,-103
-31,-74,-43,52,6,-58,9,-82,-136,-147,-116,-109
-37,-80,-43,58,3,-61,9,-82,-142,-147,-128,-115
-43,-80,-37,61,-3,-58,9,-88,-142,-153,-128,-121
-43,-80,-37,61,-3,-58,3,-88,-142,-153,-134,-121
-49,-80,-31,64,-9,-55,3,-88,-148,-153,-134,-121
-49,-86,-37,67,-6,-61,-3,-88,-148,-153,-128,-115
-49,-86,-37,67,-6,-61,-3,-82,-148,-153,-128,-115
-49,-92,-43,70,-3,-67,-3,-76,-148,-153,-128,-115
-49,-86,-37,67,-6,-61,-3,-82,-148,-147,-128,-115
-49,-86,-37,67,-6,-61,-3,-76,-148,-147,-128,-115
-49,-86,-37,67,-6,-61,-3,-82,-148,-153,-128,-115
-49,-86,-37,67,-6,-61,3,-82,-148,-153,-128,-109
-43,-74,-31,58,-6,-52,3,-82,-148,-147,-128,-109
-43,-80,-37,61,-3,-58,-3,-82,-148,-147,-128,-109
-49,-86,-37,67,-6,-61,-3,-82,-154,-153,-128,-115
-49,-86,-37,67,-6,-61,-3,-82,-154,-153,-122,-115
-49,-86,-37,67,-6,-61,-3,-82,-154,-153,-122,-115
-49,-86,-37,67,-6,-61,-3,-88,-160,-153,-122,-121
-49,-86,-37,67,-6,-61,-9,-94,-160,-159,-128,-121
-49,-80,-31,64,-9,-55,-9,-94,-160,-159,-128,-121
-43,-74,-31,58,-6,-52,-9,-94,-160,-159,-128,-121
-49,-80,-31,64,-9,-55,-14,-100,-160,-159,-134,-127
-55,-86,-31,70,-12,-58,-14,-100,-166,-159,-140,-127
-55,-86,-31,70,-12,-58,-9,-94,-166,-159,-140,-121
-49,-80,-31,64,-9,-55,-9,-94,-172,-153,-134,-115
-49,-86,-37,67,-6,-61,-3,-94,-172,-153,-128,-115
-49,-86,-37,67,-6,-61,-3,-94,-166,-153,-122,-115
-55,-92,-37,73,-9,-64,-9,-94,-166,-153,-122,-121
-55,-92,-37,73,-9,-64,-9,-100,-166,-159,-122,-115
-43,-80,-37,61,-3,-58,-9,-100,-160,-159,-128,-115
-43,-80,-37,61,-3,-58,-9,-100,-160,-159,-128,-109
-43,-80,-37,61,-3,-58,-9,-100,-160,-159,-128,-109
-43,-80,-37,61,-3,-58,-9,-100,-160,-159,-128,-109
-49,-92,-43,70,-3,-67,-9,-94,-160,-159,-128,-103
-49,-92,-43,70,-3,-67,-14,-88,-160,-165,-128,-109
-54,-97,-43,75,-5,-70,-14,-88,-160,-165,-128,-115
-55,-92,-37,73,-9,-64,-14,-94,-160,-165,-128,-115
-54,-97,-43,75,-5,-70,-14,-94,-154,-159,-128,-121
-54,-97,-43,75,-5,-70,-9,-94,-154,-159,-128,-121
-59,-108,-49,83,-5,-78,-9,-94,-154,-165,-134,-127
-53,-102,-49,77,-2,-75,-3,-94,-160,-171,-140,-133
-53,-102,-49,77,-2,-75,3,-94,-160,-171,-140,-139
-54,-97,-43,75,-5,-70,-3,-94,-160,-165,-140,-139
-54,-97,-43,75,-5,-70,-3,-100,-160,-171,-140,-139
-43,-86,-43,64,0,-64,-3,-100,-160,-171,-140,-133
-43,-80,-37,61,-3,-58,-9,-100,-160,-171,-140,-133
-43,-80,-37,61,-3,-58,-9,-100,-160,-171,-140,-127
-43,-80,-37,61,-3,-58,-9,-100,-160,-171,-134,-127
-43,-80,-37,61,-3,-58,-3,-100,-160,-171,-134,-121
-43,-80,-37,61,-3,-58,-9,-106,-166,-165,-128,-121
-43,-86,-43,64,0,-64,-9,-106,-172,-165,-128,-127
-49,-92,-43,70,-3,-67,-14,-106,-178,-171,-134,-127
-55,-92,-37,73,-9,-64,-14,-100,-178,-171,-134,-133
-54,-97,-43,75,-5,-70,-14,-100,-178,-177,-140,-127
-55,-92,-37,73,-9,-64,-14,-100,-184,-189,-140,-133
-49,-86,-37,67,-6,-61,-9,-100,-178,-189,-140,-133
-49,-80,-31,64,-9,-55,-9,-100,-178,-183,-140,-133
-49,-80,-31,64,-9,-55,-14,-106,-172,-183,-140,-133
-55,-86,-31,70,-12,-58,-14,-106,-172,-177,-146,-133
-55,-86,-31,70,-12,-58,-14,-112,-166,-177,-146,-133
-55,-92,-37,73,-9,-64,-14,-112,-172,-177,-152,-139
-55,-92,-37,73,-9,-64,-14,-112,-166,-171,-146,-133
-55,-92,-37,73,-9,-64,-14,-112,-172,-171,-146,-133
-54,-97,-43,75,-5,-70,-9,-106,-178,-171,-146,-133
-48,-97,-49,72,0,-73,-9,-112,-178,-171,-146,-127
-48,-97,-49,72,0,-73,-9,-112,-184,-177,-146,-127
-48,-97,-49,72,0,-73,-14,-112,-184,-177,-152,-127
-43,-92,-49,67,3,-70,-14,-112,-184,-177,-152,-127
-43,-92,-49,67,3,-70,-14,-112,-184,-183,-158,-127
-49,-92,-43,70,-3,-67,-19,-112,-184,-183,-158,-133
-55,-92,-37,73,-9,-64,-19,-112,-178,-189,-164,-139
-55,-92,-37,73,-9,-64,-14,-112,-178,-183,-158,-139
-49,-86,-37,67,-6,-61,-14,-106,-178,-177,-152,-133
-49,-86,-37,67,-6,-61,-9,-100,-172,-177,-146,-133
-49,-86,-37,67,-6,-61,-9,-100,-172,-177,-140,-127
-49,-80,-31,64,-9,-55,-9,-94,-166,-171,-140,-127
-49,-74,-25,61,-12,-49,-3,-88,-160,-165,-134,-127
-49,-68,-19,58,-15,-43,3,-82,-160,-159,-134,-127
-43,-62,-19,52,-12,-40,9,-76,-154,-153,-128,-115
-37,-50,-13,43,-12,-31,15,-70,-148,-153,-128,-115
-37,-44,-7,40,-15,-25,15,-70,-148,-153,-128,-109
-37,-38,-1,37,-18,-19,15,-70,-148,-147,-128,-109
-37,-38,-1,37,-18,-19,15,-70,-142,-147,-116,-103
-37,-38,-1,37,-18,-19,15,-70,-142,-141,-116,-103
-37,-38,-1,37,-18,-19,21,-70,-148,-147,-116,-103
-37,-38,-1,37,-18,-19,21,-70,-142,-147,-116,-103
-37,-32,5,34,-21,-13,15,-70,-142,-147,-110,-103
-37,-32,5,34,-21,-13,21,-70,-142,-147,-116,-103
-37,-38,-1,37,-18,-19,21,-76,-136,-147,-110,-109
-31,-32,-1,31,-15,-16,21,-76,-130,-147,-110,-103
-25,-32,-7,28,-9,-19,21,-76,-136,-147,-116,-109
-19,-26,-7,22,-6,-16,21,-82,-136,-147,-116,-109
-19,-20,-1,19,-9,-10,15,-88,-142,-147,-122,-109
-19,-20,-1,19,-9,-10,15,-94,-148,-147,-122,-109
-19,-14,5,16,-12,-4,21,-94,-142,-147,-122,-103
-19,-8,11,13,-15,1,21,-100,-136,-147,-122,-103
-19,-2,17,10,-18,7,21,-106,-136,-141,-116,-109
-19,-2,17,10,-18,7,15,-112,-136,-141,-116,-115
-13,4,17,4,-15,10,3,-112,-136,-141,-116,-115
-7,4,11,1,-9,7,-9,-118,-136,-141,-116,-109
-7,4,11,1,-9,7,-14,-118,-136,-135,-110,-109
-1,10,11,-4,-6,10,-19,-112,-130,-129,-104,-97
11,16,5,-13,3,10,-25,-106,-130,-129,-98,-97
17,22,5,-19,6,13,-25,-106,-130,-129,-92,-91
17,16,-1,-16,9,7,-25,-100,-118,-123,-80,-79
17,16,-1,-16,9,7,-25,-100,-118,-117,-74,-73
17,22,5,-19,6,13,-19,-100,-124,-117,-74,-73
23,22,-1,-22,12,10,-19,-106,-130,-117,-74,-67
23,16,-7,-19,15,4,-19,-106,-130,-117,-74,-61
23,10,-13,-16,18,-1,-19,-106,-130,-117,-80,-67
23,-2,-25,-10,24,-13,-25,-106,-130,-117,-86,-73
23,-2,-25,-10,24,-13,-31,-112,-136,-123,-92,-73
23,-8,-31,-7,27,-19,-37,-118,-142,-129,-92,-73
23,-14,-37,-4,30,-25,-43,-124,-154,-141,-104,-79
23,-26,-49,1,36,-37,-43,-130,-166,-141,-110,-85
17,-38,-55,10,36,-46,-43,-130,-166,-147,-116,-85
5,-44,-49,19,27,-46,-43,-124,-166,-147,-116,-91
-7,-56,-49,31,21,-52,-37,-124,-166,-153,-122,-97
-19,-68,-49,43,15,-58,-31,-124,-166,-165,-128,-109
-31,-80,-49,55,9,-64,-25,-124,-166,-171,-134,-115
-37,-86,-49,61,6,-67,-19,-124,-172,-177,-140,-127
-43,-92,-49,67,3,-70,-19,-130,-184,-189,-152,-139
-47,-102,-55,74,4,-78,-19,-136,-190,-195,-158,-151
-48,-108,-60,78,6,-84,-19,-136,-196,-195,-164,-151
-49,-114,-65,81,8,-89,-19,-142,-208,-201,-170,-151
-55,-126,-71,90,8,-98,-31,-142,-214,-213,-182,-151
-55,-132,-77,93,11,-104,-37,-148,-226,-219,-182,-145
-61,-138,-77,99,8,-107,-43,-154,-232,-225,-182,-145
-61,-138,-77,99,8,-107,-43,-160,-238,-225,-182,-145
-55,-132,-77,93,11,-104,-43,-166,-238,-231,-182,-145
-55,-132,-77,93,11,-104,-37,-166,-238,-237,-188,-151
-49,-120,-71,84,11,-95,-37,-166,-238,-237,-182,-151
-43,-114,-71,78,14,-92,-37,-160,-238,-231,-182,-151
-49,-120,-71,84,11,-95,-43,-160,-238,-231,-182,-151
-49,-120,-71,84,11,-95,-43,-154,-232,-225,-176,-151
-49,-114,-65,81,8,-89,-37,-148,-220,-225,-176,-157
-54,-114,-60,84,3,-87,-37,-142,-208,-219,-176,-157
-59,-108,-49,83,-5,-78,-31,-136,-196,-213,-176,-163
-71,-108,-37,89,-17,-72,-19,-124,-184,-201,-164,-157
-71,-102,-31,86,-20,-66,-9,-106,-166,-177,-158,-151
-83,-108,-25,95,-29,-66,3,-82,-148,-159,-146,-151
-89,-102,-13,95,-38,-57,15,-64,-130,-141,-134,-145
-96,-97,-1,96,-47,-49,27,-40,-112,-129,-122,-145
-103,-92,11,97,-57,-40,51,-17,-94,-117,-110,-139
-97,-74,23,85,-60,-25,63,0,-70,-99,-98,-133
-103,-74,29,88,-66,-22,81,24,-46,-87,-86,-127
-103,-62,41,82,-72,-10,99,48,-22,-63,-74,-127
-109,-68,41,88,-75,-13,123,78,14,-39,-62,-133
-109,-56,53,82,-81,-1,147,132,48,-17,-50,-133
-121,-62,59,91,-90,-1,183,204,114,19,-38,-139
-133,-62,71,97,-102,4,255,324,216,67,-20,-139
-139,-44,95,91,-117,25,357,498,384,151,15,-133
-151,-32,119,91,-135,43,477,690,570,253,74,-127
-157,-14,143,85,-150,64,603,840,750,373,140,-109
-157,10,167,73,-162,88,705,936,894,499,230,-73
-145,52,197,46,-171,124,783,978,1020,637,338,-15
-109,118,227,-4,-168,172,843,1008,1128,799,476,69
-73,184,257,-55,-165,220,861,996,1206,967,644,183
-31,256,287,-112,-159,271,843,960,1266,1147,836,321
41,364,323,-202,-141,343,789,882,1302,1345,1064,495
125,496,371,-310,-123,433,669,738,1314,1567,1316,711
227,658,431,-442,-102,544,501,540,1326,1813,1610,957
323,838,515,-580,-96,676,297,294,1344,2083,1922,1221
413,1018,605,-715,-96,811,63,12,1326,2323,2198,1473
485,1138,653,-811,-84,895,-181,-250,1248,2436,2366,1653
521,1150,629,-835,-54,889,-379,-460,1092,2377,2366,1695
485,1054,569,-769,-42,811,-481,-604,882,2155,2192,1611
407,946,539,-676,-66,742,-547,-718,636,1849,1934,1449
299,814,515,-556,-108,664,-589,-820,354,1483,1610,1239
185,682,497,-433,-156,589,-595,-916,20,1027,1220,969
83,538,455,-310,-186,496,-583,-964,-274,583,818,693
5,406,401,-205,-198,403,-559,-964,-454,247,488,453
-55,298,353,-121,-204,325,-529,-928,-538,19,242,261
-85,226,311,-70,-198,268,-493,-862,-550,-111,74,123
-103,184,287,-40,-195,235,-451,-784,-538,-189,-26,33
-115,148,263,-16,-189,205,-409,-712,-520,-219,-86,-27
-115,130,245,-7,-180,187,-367,-628,-484,-225,-110,-43
-109,118,227,-4,-168,172,-313,-532,-424,-207,-116,-61
-97,106,203,-4,-150,154,-253,-430,-364,-183,-104,-67
-79,88,167,-4,-123,127,-211,-334,-298,-159,-98,-67
-67,64,131,1,-99,97,-169,-262,-250,-147,-98,-67
-55,40,95,7,-75,67,-139,-214,-214,-141,-92,-61
-49,16,65,16,-57,40,-109,-178,-190,-141,-86,-55
-43,-8,35,25,-39,13,-85,-154,-172,-135,-86,-49
-49,-38,11,43,-30,-13,-61,-136,-166,-141,-86,-55
-43,-56,-13,49,-15,-34,-49,-124,-166,-141,-92,-55
-37,-68,-31,52,-3,-49,-37,-112,-154,-135,-98,-67
-37,-74,-37,55,0,-55,-25,-88,-148,-129,-98,-73
-31,-74,-43,52,6,-58,-19,-64,-142,-135,-104,-85
-37,-92,-55,64,9,-73,-14,-46,-136,-141,-116,-97
-37,-97,-60,67,11,-78,-9,-40,-130,-147,-122,-103
-32,-97,-65,64,16,-81,-3,-34,-130,-147,-128,-97
-31,-102,-71,66,20,-86,3,-40,-130,-153,-134,-97
-37,-108,-71,72,17,-89,-3,-40,-136,-165,-140,-97
-37,-114,-77,75,20,-95,-3,-40,-130,-165,-140,-97
-37,-120,-83,78,23,-101,-9,-40,-136,-171,-146,-103
-37,-126,-89,81,26,-107,-9,-34,-136,-177,-146,-109
-31,-126,-95,78,32,-110,-9,-34,-136,-177,-152,-115
-31,-120,-89,75,29,-104,-9,-28,-136,-177,-152,-109
-25,-120,-95,72,35,-107,-3,-28,-136,-177,-158,-109
-19,-114,-95,66,38,-104,3,-22,-130,-171,-158,-109
-19,-114,-95,66,38,-104,3,-22,-124,-171,-152,-109
-19,-108,-89,63,35,-98,9,-22,-124,-171,-152,-109
-19,-108,-89,63,35,-98,15,-17,-124,-171,-152,-109
-19,-108,-89,63,35,-98,15,-17,-118,-171,-146,-103
-13,-108,-95,60,41,-101,15,-17,-112,-165,-140,-103
-19,-114,-95,66,38,-104,15,-17,-106,-159,-134,-103
-19,-120,-101,69,41,-110,15,-12,-106,-159,-134,-103
-19,-120,-101,69,41,-110,21,-12,-100,-153,-134,-97
-19,-120,-101,69,41,-110,21,-12,-94,-153,-128,-97
-13,-114,-101,63,44,-107,21,-6,-94,-147,-128,-97
-7,-102,-95,54,44,-98,21,-6,-94,-141,-116,-91
-7,-102,-95,54,44,-98,15,0,-94,-135,-110,-85
-7,-108,-101,57,47,-104,21,0,-88,-135,-110,-85
-7,-108,-101,57,47,-104,21,6,-88,-135,-110,-85
-7,-102,-95,54,44,-98,21,6,-88,-129,-110,-85
-7,-102,-95,54,44,-98,21,6,-88,-129,-110,-85
-7,-102,-95,54,44,-98,15,12,-82,-129,-110,-85
-7,-102,-95,54,44,-98,15,12,-76,-129,-110,-85
-1,-102,-101,51,50,-101,15,12,-76,-129,-110,-79
-1,-102,-101,51,50,-101,15,12,-70,-123,-104,-79
4,-97,-101,46,52,-99,15,12,-70,-117,-98,-73
4,-97,-101,46,52,-99,21,18,-64,-111,-92,-67
3,-92,-95,44,49,-93,21,24,-64,-111,-92,-67
3,-86,-89,41,46,-87,21,24,-58,-105,-92,-67
3,-86,-89,41,46,-87,21,30,-58,-105,-92,-67
-3,-86,-83,44,40,-84,21,30,-58,-105,-86,-67
3,-80,-83,38,43,-81,27,30,-52,-93,-86,-67
9,-74,-83,32,46,-78,27,36,-40,-81,-74,-55
15,-68,-83,26,49,-75,27,48,-34,-75,-68,-49
15,-68,-83,26,49,-75,21,48,-28,-75,-62,-43
21,-68,-89,23,55,-78,27,54,-22,-75,-62,-37
21,-62,-83,20,52,-72,33,60,-22,-75,-56,-37
15,-74,-89,29,52,-81,33,60,-22,-69,-50,-32
15,-74,-89,29,52,-81,39,72,-16,-63,-44,-37
21,-74,-95,26,58,-84,39,78,-4,-51,-44,-32
21,-80,-101,29,61,-90,39,90,2,-51,-38,-32
15,-80,-95,32,55,-87,39,90,8,-45,-38,-27
15,-80,-95,32,55,-87,39,96,14,-45,-44,-32
21,-68,-89,23,55,-78,39,96,25,-39,-38,-32
21,-68,-89,23,55,-78,39,96,25,-39,-38,-27
21,-68,-89,23,55,-78,39,108,36,-34,-32,-21
21,-68,-89,23,55,-78,39,114,48,-29,-20,-21
27,-62,-89,17,58,-75,45,120,54,-17,-8,-15
33,-56,-89,11,61,-72,45,126,60,-5,-8,-9
39,-44,-83,2,61,-63,45,132,66,1,10,-3
39,-44,-83,2,61,-63,45,138,66,7,15,3
39,-50,-89,5,64,-69,45,144,72,13,15,9
45,-44,-89,0,67,-66,45,150,84,13,26,15
45,-44,-89,0,67,-66,39,162,96,25,32,21
45,-38,-83,-3,64,-60,45,174,108,31,38,21
39,-44,-83,2,61,-63,45,180,114,37,32,21
45,-38,-83,-3,64,-60,51,192,126,43,38,21
57,-26,-83,-15,70,-54,51,198,138,55,44,27
57,-26,-83,-15,70,-54,51,204,144,61,56,39
57,-26,-83,-15,70,-54,57,216,156,67,62,45
57,-26,-83,-15,70,-54,57,222,162,73,68,51
63,-20,-83,-21,73,-51,63,234,168,85,80,57
63,-20,-83,-21,73,-51,63,246,180,97,92,63
75,-8,-83,-33,79,-45,57,252,198,115,104,81
81,4,-77,-42,79,-36,57,264,210,127,116,93
87,16,-71,-51,79,-27,63,270,222,139,128,111
87,16,-71,-51,79,-27,69,282,240,157,140,117
93,16,-77,-54,85,-30,69,294,246,169,152,123
105,22,-83,-63,94,-30,75,306,252,187,164,135
111,34,-77,-72,94,-21,75,318,270,199,182,141
117,40,-77,-78,97,-18,75,330,282,217,194,153
123,58,-65,-90,94,-3,75,342,300,229,206,165
123,58,-65,-90,94,-3,75,354,312,235,218,171
123,58,-65,-90,94,-3,75,366,330,247,230,177
135,70,-65,-102,100,2,81,378,354,259,242,189
141,76,-65,-108,103,5,93,390,372,271,254,201
147,82,-65,-114,106,8,93,402,384,289,272,213
148,88,-60,-118,104,14,93,414,396,307,290,225
154,94,-60,-124,107,17,93,426,414,331,308,243
155,100,-55,-127,105,22,93,444,432,355,326,255
161,112,-49,-136,105,31,99,456,450,373,344,273
167,124,-43,-145,105,40,99,468,462,385,356,285
173,130,-43,-151,108,43,99,474,480,403,374,297
179,142,-37,-160,108,52,105,486,492,421,386,315
179,148,-31,-163,105,58,111,498,504,433,392,321
179,154,-25,-166,102,64,111,504,516,439,398,327
185,166,-19,-175,102,73,111,510,528,451,410,333
185,166,-19,-175,102,73,117,522,540,463,422,339
191,178,-13,-184,102,82,117,528,546,481,428,345
191,184,-7,-187,99,88,117,534,558,493,440,351
191,196,5,-193,93,100,117,540,570,499,452,357
191,202,11,-196,90,106,117,540,576,505,452,363
185,208,23,-196,81,115,123,546,582,511,458,369
179,208,29,-193,75,118,123,552,588,517,464,369
179,208,29,-193,75,118,129,552,588,523,470,375
179,208,29,-193,75,118,129,552,594,529,476,375
179,214,35,-196,72,124,135,546,594,529,476,375
173,214,41,-193,66,127,129,540,588,529,470,369
167,220,53,-193,57,136,129,528,582,523,464,363
161,220,59,-190,51,139,129,522,576,523,458,363
155,220,65,-187,45,142,123,504,570,517,458,357
149,226,77,-187,36,151,123,492,558,517,452,351
143,226,83,-184,30,154,123,474,552,511,446,345
131,220,89,-175,21,154,123,456,540,493,434,333
119,214,95,-166,12,154,123,438,516,475,416,315
113,214,101,-163,6,157,123,420,504,457,404,297
107,214,107,-160,0,160,117,396,480,433,380,285
89,190,101,-139,-6,145,111,372,450,409,350,267
83,178,95,-130,-6,136,105,348,420,373,326,249
71,166,95,-118,-12,130,99,324,390,343,308,237
65,154,89,-109,-12,121,93,300,360,313,278,213
53,130,77,-91,-12,103,87,276,324,277,254,189
59,130,71,-94,-6,100,81,252,294,253,230,171
59,124,65,-91,-3,94,75,228,270,229,206,141
47,118,71,-82,-12,94,75,198,240,199,176,123
35,100,65,-67,-15,82,69,174,210,169,146,99
23,76,53,-49,-15,64,63,156,186,145,122,81
17,64,47,-40,-15,55,63,138,162,115,92,63
11,46,35,-28,-12,40,57,120,138,91,68,51
-1,28,29,-13,-15,28,57,102,114,67,44,33
-1,16,17,-7,-9,16,51,84,90,49,26,15
-7,4,11,1,-9,7,51,72,66,25,15,3
-13,-2,11,7,-12,4,45,54,48,13,-2,-9
-13,-8,5,10,-9,-1,45,42,25,-5,-20,-21
-19,-20,-1,19,-9,-10,39,30,14,-29,-38,-37
-19,-26,-7,22,-6,-16,33,24,-4,-45,-56,-49
-19,-32,-13,25,-3,-22,27,12,-16,-63,-62,-61
-25,-38,-13,31,-6,-25,21,0,-28,-75,-74,-73
-25,-32,-7,28,-9,-19,21,-6,-40,-87,-80,-79
-25,-32,-7,28,-9,-19,15,-12,-52,-93,-86,-79
-25,-38,-13,31,-6,-25,15,-17,-58,-93,-98,-85
-31,-50,-19,40,-6,-34,15,-17,-70,-99,-104,-91
-31,-50,-19,40,-6,-34,15,-17,-82,-99,-116,-97
-37,-62,-25,49,-6,-43,9,-22,-82,-105,-122,-97
-43,-68,-25,55,-9,-46,9,-28,-94,-117,-122,-103
-49,-80,-31,64,-9,-55,9,-34,-100,-123,-122,-103
-49,-86,-37,67,-6,-61,9,-40,-106,-129,-122,-103
-49,-92,-43,70,-3,-67,9,-40,-106,-135,-128,-103
-48,-97,-49,72,0,-73,9,-46,-106,-135,-128,-109
-48,-97,-49,72,0,-73,9,-46,-106,-135,-134,-109
-49,-92,-43,70,-3,-67,9,-52,-106,-141,-134,-115
-49,-92,-43,70,-3,-67,9,-52,-106,-141,-134,-115
-54,-97,-43,75,-5,-70,9,-52,-106,-141,-134,-115
-53,-102,-49,77,-2,-75,9,-52,-106,-141,-134,-115
-53,-102,-49,77,-2,-75,9,-52,-106,-153,-140,-121
-48,-97,-49,72,0,-73,9,-58,-106,-159,-140,-121
-53,-102,-49,77,-2,-75,9,-52,-106,-165,-146,-121
-48,-97,-49,72,0,-73,15,-52,-106,-159,-146,-121
-48,-97,-49,72,0,-73,9,-52,-106,-153,-140,-121
-43,-86,-43,64,0,-64,9,-52,-112,-147,-140,-121
-43,-86,-43,64,0,-64,9,-52,-112,-147,-140,-115
-37,-86,-49,61,6,-67,9,-46,-106,-141,-140,-115
-37,-86,-49,61,6,-67,3,-46,-106,-141,-140,-115
-37,-86,-49,61,6,-67,3,-46,-106,-141,-140,-115
-43,-92,-49,67,3,-70,9,-52,-106,-141,-140,-115
-43,-92,-49,67,3,-70,3,-52,-100,-141,-140,-115
-48,-97,-49,72,0,-73,9,-52,-100,-141,-140,-115
-47,-102,-55,74,4,-78,15,-52,-100,-141,-140,-115
-47,-102,-55,74,4,-78,9,-58,-100,-147,-140,-115
-42,-97,-55,69,6,-76,9,-58,-100,-153,-146,-121
-42,-97,-55,69,6,-76,9,-58,-106,-153,-152,-121
-43,-92,-49,67,3,-70,9,-58,-112,-159,-152,-127
-43,-86,-43,64,0,-64,9,-52,-106,-153,-146,-127
-43,-86,-43,64,0,-64,9,-52,-106,-153,-146,-133
-43,-86,-43,64,0,-64,9,-52,-112,-153,-146,-133
-43,-80,-37,61,-3,-58,9,-52,-112,-147,-146,-127
-43,-74,-31,58,-6,-52,9,-58,-106,-147,-146,-121
-43,-74,-31,58,-6,-52,9,-58,-106,-141,-140,-115
-43,-74,-31,58,-6,-52,9,-58,-106,-135,-140,-109
-43,-80,-37,61,-3,-58,9,-52,-106,-135,-134,-109
-43,-86,-43,64,0,-64,9,-52,-100,-141,-134,-103
-43,-92,-49,67,3,-70,9,-52,-100,-141,-134,-109
-42,-97,-55,69,6,-76,3,-52,-100,-135,-128,-103
-47,-102,-55,74,4,-78,3,-46,-94,-129,-122,-97
-48,-97,-49,72,0,-73,-3,-46,-94,-129,-122,-91
-48,-97,-49,72,0,-73,-3,-46,-94,-129,-122,-91
-49,-92,-43,70,-3,-67,-3,-46,-100,-129,-122,-91
-49,-92,-43,70,-3,-67,-3,-40,-100,-123,-116,-91
-43,-86,-43,64,0,-64,3,-40,-100,-123,-116,-91
-43,-92,-49,67,3,-70,3,-40,-94,-123,-122,-97
-43,-86,-43,64,0,-64,3,-34,-94,-123,-122,-97
-37,-80,-43,58,3,-61,3,-34,-94,-123,-122,-97
-31,-74,-43,52,6,-58,3,-34,-88,-123,-116,-97
-31,-74,-43,52,6,-58,3,-34,-88,-123,-116,-97
-31,-74,-43,52,6,-58,3,-34,-88,-123,-116,-91
-31,-74,-43,52,6,-58,3,-34,-88,-123,-116,-91
-37,-74,-37,55,0,-55,3,-34,-88,-123,-122,-91
-37,-74,-37,55,0,-55,-3,-34,-88,-123,-122,-97
-37,-74,-37,55,0,-55,-3,-28,-88,-123,-122,-97
-37,-68,-31,52,-3,-49,-3,-28,-88,-123,-128,-103
-37,-68,-31,52,-3,-49,-3,-22,-88,-123,-122,-97
-37,-68,-31,52,-3,-49,-9,-28,-88,-117,-122,-97
-37,-68,-31,52,-3,-49,-9,-34,-94,-123,-128,-103
-37,-62,-25,49,-6,-43,-3,-34,-94,-135,-134,-109
-37,-62,-25,49,-6,-43,-3,-28,-88,-135,-134,-109
-31,-50,-19,40,-6,-34,3,-28,-88,-141,-128,-103
-31,-56,-25,43,-3,-40,3,-28,-88,-141,-128,-103
-37,-68,-31,52,-3,-49,3,-28,-88,-141,-128,-103
-37,-68,-31,52,-3,-49,3,-28,-94,-135,-128,-103
-31,-62,-31,46,0,-46,3,-28,-88,-129,-128,-97
-25,-62,-37,43,6,-49,3,-28,-88,-123,-122,-91
-19,-56,-37,37,9,-46,3,-34,-88,-117,-116,-91
-25,-62,-37,43,6,-49,3,-34,-88,-117,-116,-85
-31,-74,-43,52,6,-58,-3,-34,-88,-123,-116,-85
-31,-74,-43,52,6,-58,-3,-34,-88,-129,-110,-85
-25,-68,-43,46,9,-55,3,-34,-88,-129,-116,-91
-19,-62,-43,40,12,-52,-3,-34,-94,-135,-116,-97
-25,-68,-43,46,9,-55,-3,-40,-100,-141,-122,-103
-25,-62,-37,43,6,-49,-3,-40,-106,-141,-122,-97
-25,-56,-31,40,3,-43,-9,-46,-112,-141,-122,-103
-31,-62,-31,46,0,-46,-9,-46,-112,-141,-122,-97
-31,-62,-31,46,0,-46,-9,-46,-106,-141,-122,-97
-31,-62,-31,46,0,-46,-9,-52,-106,-141,-122,-97
-37,-74,-37,55,0,-55,-3,-52,-106,-141,-122,-97
-31,-68,-37,49,3,-52,-3,-52,-106,-141,-122,-91
-31,-68,-37,49,3,-52,-3,-46,-106,-141,-128,-91
-31,-74,-43,52,6,-58,-9,-40,-112,-141,-128,-91
-25,-68,-43,46,9,-55,-9,-40,-112,-141,-128,-91
-31,-68,-37,49,3,-52,-9,-40,-112,-141,-128,-91
-25,-62,-37,43,6,-49,-9,-40,-112,-147,-134,-91
-25,-56,-31,40,3,-43,-14,-40,-112,-147,-134,-91
-19,-50,-31,34,6,-40,-14,-46,-112,-147,-140,-91
-25,-56,-31,40,3,-43,-14,-52,-112,-159,-146,-103
-25,-56,-31,40,3,-43,-14,-58,-112,-159,-152,-103
-25,-62,-37,43,6,-49,-14,-58,-118,-159,-152,-109
-31,-68,-37,49,3,-52,-14,-58,-118,-153,-146,-109
-31,-74,-43,52,6,-58,-14,-58,-124,-153,-146,-115
-31,-74,-43,52,6,-58,-14,-58,-124,-153,-146,-115
-31,-74,-43,52,6,-58,-14,-58,-124,-147,-140,-109
-37,-86,-49,61,6,-67,-9,-58,-124,-147,-134,-103
-37,-86,-49,61,6,-67,-9,-58,-124,-147,-134,-103
-43,-92,-49,67,3,-70,-14,-64,-124,-153,-140,-109
-43,-92,-49,67,3,-70,-9,-70,-124,-159,-140,-109
-37,-80,-43,58,3,-61,-14,-70,-124,-159,-140,-109
-31,-74,-43,52,6,-58,-14,-76,-124,-165,-146,-115
-31,-74,-43,52,6,-58,-14,-76,-130,-171,-152,-115
-25,-68,-43,46,9,-55,-9,-70,-130,-171,-152,-115
-25,-68,-43,46,9,-55,-9,-70,-130,-171,-158,-121
-31,-74,-43,52,6,-58,-14,-70,-130,-171,-158,-121
-31,-74,-43,52,6,-58,-9,-70,-136,-171,-158,-121
-37,-80,-43,58,3,-61,-9,-70,-142,-171,-158,-121
-37,-86,-49,61,6,-67,-9,-70,-142,-177,-158,-121
-37,-86,-49,61,6,-67,-9,-70,-142,-177,-158,-115
-42,-97,-55,69,6,-76,-9,-70,-142,-177,-158,-115
-37,-92,-55,64,9,-73,-9,-70,-142,-171,-158,-109
-37,-92,-55,64,9,-73,-9,-64,-136,-171,-158,-109
-37,-97,-60,67,11,-78,-9,-64,-136,-171,-158,-115
-37,-97,-60,67,11,-78,-9,-64,-142,-171,-158,-115
-37,-97,-60,67,11,-78,-9,-64,-142,-171,-158,-115
-37,-97,-60,67,11,-78,-9,-64,-148,-177,-164,-115
-37,-92,-55,64,9,-73,-9,-70,-148,-177,-164,-121
-43,-92,-49,67,3,-70,-9,-70,-142,-177,-170,-121
-43,-86,-43,64,0,-64,-14,-76,-142,-183,-176,-127
-43,-86,-43,64,0,-64,-14,-76,-148,-189,-176,-133
-54,-97,-43,75,-5,-70,-14,-82,-148,-195,-182,-145
-37,-86,-49,61,6,-67,-14,-76,-142,-189,-176,-139
-37,-86,-49,61,6,-67,-14,-82,-142,-189,-176,-139
-37,-86,-49,61,6,-67,-19,-82,-142,-189,-176,-139
-37,-86,-49,61,6,-67,-19,-88,-148,-189,-176,-133
-37,-92,-55,64,9,-73,-25,-88,-148,-183,-176,-133
-37,-92,-55,64,9,-73,-19,-82,-148,-183,-170,-127
-42,-97,-55,69,6,-76,-19,-82,-154,-183,-170,-127
-42,-97,-55,69,6,-76,-19,-76,-148,-177,-164,-127
-47,-102,-55,74,4,-78,-14,-76,-148,-177,-164,-121
-48,-108,-60,78,6,-84,-14,-76,-148,-177,-164,-121
-48,-108,-60,78,6,-84,-19,-82,-148,-183,-170,-121
-49,-114,-65,81,8,-89,-19,-88,-154,-183,-164,-121
-42,-102,-60,72,9,-81,-19,-88,-148,-177,-164,-115
-42,-102,-60,72,9,-81,-19,-88,-148,-183,-164,-115
-37,-97,-60,67,11,-78,-19,-88,-148,-183,-170,-121
-37,-97,-60,67,11,-78,-25,-88,-154,-189,-176,-127
-37,-102,-65,69,14,-83,-19,-88,-154,-189,-182,-133
-42,-102,-60,72,9,-81,-14,-88,-154,-189,-182,-139
-42,-102,-60,72,9,-81,-14,-88,-160,-189,-182,-139
-43,-108,-65,75,11,-86,-14,-88,-160,-189,-182,-145
-49,-114,-65,81,8,-89,-19,-88,-166,-189,-182,-139
-48,-108,-60,78,6,-84,-19,-88,-172,-189,-176,-139
-49,-114,-65,81,8,-89,-19,-82,-172,-189,-176,-139
-54,-114,-60,84,3,-87,-25,-88,-172,-195,-176,-139
-54,-114,-60,84,3,-87,-19,-82,-172,-189,-176,-139
-37,-92,-55,64,9,-73,-19,-76,-166,-183,-170,-127
-37,-92,-55,64,9,-73,-19,-82,-172,-189,-170,-127
-31,-86,-55,58,12,-70,-25,-82,-166,-189,-170,-133
-25,-80,-55,52,15,-67,-31,-88,-166,-189,-176,-133
-32,-92,-60,62,14,-76,-31,-88,-166,-189,-176,-139
-32,-92,-60,62,14,-76,-25,-82,-166,-189,-176,-139
-37,-97,-60,67,11,-78,-25,-82,-166,-189,-182,-145
-42,-102,-60,72,9,-81,-25,-82,-166,-189,-182,-139
-42,-102,-60,72,9,-81,-31,-82,-166,-195,-182,-145
-37,-97,-60,67,11,-78,-31,-88,-166,-195,-182,-139
-37,-97,-60,67,11,-78,-31,-88,-166,-195,-182,-139
-37,-102,-65,69,14,-83,-31,-94,-166,-195,-182,-139
-37,-102,-65,69,14,-83,-31,-94,-172,-195,-182,-139
-37,-97,-60,67,11,-78,-31,-94,-172,-195,-182,-139
-42,-102,-60,72,9,-81,-31,-94,-166,-195,-182,-133
-37,-92,-55,64,9,-73,-25,-94,-166,-195,-188,-133
-37,-92,-55,64,9,-73,-25,-94,-166,-201,-188,-139
-37,-92,-55,64,9,-73,-25,-94,-166,-201,-188,-139
-37,-92,-55,64,9,-73,-31,-94,-166,-201,-188,-139
-42,-97,-55,69,6,-76,-31,-88,-172,-201,-188,-145
-47,-102,-55,74,4,-78,-31,-88,-172,-201,-188,-145
-42,-97,-55,69,6,-76,-31,-94,-172,-201,-188,-145
-42,-102,-60,72,9,-81,-31,-94,-172,-201,-194,-139
-42,-102,-60,72,9,-81,-37,-100,-172,-201,-188,-139
-37,-102,-65,69,14,-83,-37,-100,-172,-195,-188,-133
-43,-108,-65,75,11,-86,-37,-100,-178,-195,-188,-133
-48,-108,-60,78,6,-84,-37,-100,-172,-195,-182,-133
-42,-102,-60,72,9,-81,-37,-100,-172,-195,-182,-127
-42,-102,-60,72,9,-81,-37,-100,-172,-201,-188,-133
-42,-97,-55,69,6,-76,-31,-100,-178,-201,-188,-133
-43,-92,-49,67,3,-70,-31,-106,-178,-201,-188,-133
-43,-92,-49,67,3,-70,-31,-106,-184,-207,-188,-139
-43,-92,-49,67,3,-70,-31,-112,-184,-207,-188,-139
-49,-92,-43,70,-3,-67,-31,-112,-190,-207,-194,-145
-49,-92,-43,70,-3,-67,-31,-112,-190,-207,-194,-151
-49,-92,-43,70,-3,-67,-31,-112,-184,-207,-194,-151
-49,-92,-43,70,-3,-67,-31,-112,-184,-201,-194,-145
-37,-74,-37,55,0,-55,-25,-106,-178,-195,-188,-139
-37,-74,-37,55,0,-55,-25,-100,-172,-189,-182,-127
-31,-74,-43,52,6,-58,-25,-94,-166,-189,-182,-121
-31,-74,-43,52,6,-58,-19,-88,-154,-183,-170,-115
-37,-74,-37,55,0,-55,-14,-82,-148,-177,-158,-115
-37,-68,-31,52,-3,-49,-9,-82,-148,-171,-158,-115
-43,-68,-25,55,-9,-46,-9,-88,-148,-171,-152,-115
-43,-62,-19,52,-12,-40,-9,-88,-148,-165,-152,-115
-43,-56,-13,49,-15,-34,-14,-94,-148,-159,-152,-115
-37,-44,-7,40,-15,-25,-14,-94,-142,-153,-146,-115
-31,-32,-1,31,-15,-16,-14,-94,-142,-159,-146,-115
-31,-26,5,28,-18,-10,-19,-94,-136,-153,-152,-121
-25,-14,11,19,-18,-1,-25,-88,-130,-159,-152,-121
-25,-20,5,22,-15,-7,-25,-88,-130,-159,-152,-121
-25,-20,5,22,-15,-7,-25,-82,-124,-159,-146,-115
-25,-20,5,22,-15,-7,-25,-76,-124,-159,-140,-109
-19,-20,-1,19,-9,-10,-19,-76,-124,-153,-140,-109
-19,-20,-1,19,-9,-10,-19,-76,-124,-153,-140,-109
-19,-14,5,16,-12,-4,-19,-82,-130,-153,-140,-109
-19,-8,11,13,-15,1,-25,-88,-130,-159,-140,-109
-25,-8,17,16,-21,4,-25,-88,-130,-159,-146,-109
-25,-8,17,16,-21,4,-25,-94,-130,-159,-146,-109
-25,-2,23,13,-24,10,-31,-100,-136,-159,-146,-109
-25,-2,23,13,-24,10,-43,-112,-136,-159,-140,-103
-25,-2,23,13,-24,10,-55,-118,-136,-159,-134,-97
-19,10,29,4,-24,19,-55,-118,-136,-153,-134,-97
-19,16,35,1,-27,25,-55,-112,-136,-153,-134,-97
-19,16,35,1,-27,25,-55,-112,-136,-153,-128,-97
-13,22,35,-4,-24,28,-61,-112,-136,-147,-128,-91
-7,22,29,-7,-18,25,-61,-112,-130,-141,-122,-85
5,28,23,-16,-9,25,-67,-106,-130,-135,-122,-79
5,28,23,-16,-9,25,-73,-106,-130,-129,-116,-67
5,28,23,-16,-9,25,-79,-106,-130,-123,-110,-67
11,34,23,-22,-6,28,-79,-106,-124,-123,-110,-61
11,22,11,-16,0,16,-79,-100,-124,-129,-110,-61
17,22,5,-19,6,13,-85,-100,-124,-135,-110,-67
23,22,-1,-22,12,10,-85,-100,-130,-141,-110,-67
29,16,-13,-22,21,1,-85,-100,-124,-141,-110,-67
29,10,-19,-19,24,-4,-85,-100,-130,-147,-116,-67
23,-8,-31,-7,27,-19,-85,-112,-136,-147,-122,-73
17,-26,-43,4,30,-34,-85,-118,-142,-153,-128,-73
5,-38,-43,16,24,-40,-79,-118,-142,-153,-134,-79
-7,-56,-49,31,21,-52,-73,-112,-148,-159,-140,-85
-13,-62,-49,37,18,-55,-67,-112,-148,-159,-140,-97
-25,-68,-43,46,9,-55,-61,-112,-148,-165,-152,-103
-37,-86,-49,61,6,-67,-61,-118,-154,-177,-164,-115
-43,-92,-49,67,3,-70,-61,-124,-166,-189,-176,-121
-48,-97,-49,72,0,-73,-61,-130,-172,-201,-182,-127
-53,-102,-49,77,-2,-75,-61,-130,-178,-207,-188,-133
-59,-108,-49,83,-5,-78,-67,-136,-190,-213,-200,-145
-54,-114,-60,84,3,-87,-67,-130,-190,-219,-200,-151
-54,-114,-60,84,3,-87,-73,-130,-196,-219,-206,-157
-49,-120,-71,84,11,-95,-73,-136,-202,-225,-206,-163
-49,-126,-77,87,14,-101,-79,-136,-208,-231,-206,-157
-49,-132,-83,90,17,-107,-79,-142,-214,-231,-206,-157
-49,-132,-83,90,17,-107,-85,-148,-220,-237,-206,-157
-49,-132,-83,90,17,-107,-79,-154,-220,-237,-206,-157
-49,-132,-83,90,17,-107,-79,-154,-226,-237,-206,-157
-49,-126,-77,87,14,-101,-79,-154,-226,-231,-206,-157
-55,-132,-77,93,11,-104,-73,-154,-220,-231,-206,-157
-55,-132,-77,93,11,-104,-73,-148,-214,-225,-200,-151
-61,-132,-71,96,5,-101,-73,-142,-208,-219,-200,-151
-61,-126,-65,93,2,-95,-73,-136,-196,-207,-194,-151
-60,-120,-60,90,0,-90,-61,-124,-184,-201,-188,-145
-59,-114,-55,86,-2,-84,-49,-106,-166,-183,-170,-139
-65,-108,-43,86,-11,-75,-37,-88,-148,-171,-158,-139
-77,-108,-31,92,-23,-69,-25,-70,-130,-159,-152,-133
-83,-108,-25,95,-29,-66,-14,-52,-112,-141,-140,-133
-95,-108,-13,101,-41,-60,3,-34,-94,-123,-134,-127
-107,-102,5,104,-56,-48,21,-17,-82,-105,-122,-121
-109,-92,17,100,-63,-37,33,6,-58,-87,-110,-121
-115,-86,29,100,-72,-28,45,30,-34,-75,-104,-115
-121,-86,35,103,-78,-25,63,54,-4,-45,-86,-115
-127,-80,47,103,-87,-16,87,90,30,-23,-68,-115
-127,-74,53,100,-90,-10,111,138,78,7,-50,-121
-133,-74,59,103,-96,-7,159,222,162,43,-38,-127
-145,-62,83,103,-114,10,243,348,282,97,-20,-139
-157,-50,107,103,-132,28,357,522,456,187,15,-139
-169,-44,125,106,-147,40,483,690,636,289,62,-133
-181,-26,155,103,-168,64,597,810,792,403,128,-115
-175,16,191,79,-183,103,681,882,924,529,218,-73
-157,64,221,46,-189,142,735,918,1032,673,344,-15
-121,124,245,-1,-183,184,753,918,1110,835,494,87
-85,196,281,-55,-183,238,735,888,1164,1015,680,219
-31,280,311,-124,-171,295,699,828,1200,1207,902,387
41,394,353,-217,-156,373,615,726,1224,1423,1160,591
137,544,407,-340,-135,475,477,558,1236,1669,1448,831
233,706,473,-469,-120,589,309,348,1242,1939,1760,1095
317,904,587,-610,-135,745,99,84,1242,2221,2072,1359
395,1090,695,-742,-150,892,-139,-202,1182,2424,2318,1575
449,1174,725,-811,-138,949,-367,-442,1068,2478,2414,1695
455,1138,683,-796,-114,910,-505,-604,894,2353,2342,1683
413,1048,635,-730,-111,841,-577,-718,684,2089,2126,1557
323,916,593,-619,-135,754,-625,-820,420,1747,1826,1371
215,778,563,-496,-174,670,-643,-910,120,1321,1460,1137
113,634,521,-373,-204,577,-637,-982,-196,829,1046,855
29,490,461,-259,-216,475,-619,-994,-424,415,662,591
-31,370,401,-169,-216,385,-583,-970,-544,127,368,375
-67,286,353,-109,-210,319,-547,-916,-580,-45,158,207
-97,208,305,-55,-201,256,-511,-832,-574,-153,15,87
-109,160,269,-25,-189,214,-469,-748,-544,-207,-62,9
-121,118,239,1,-180,178,-427,-664,-508,-225,-104,-32
-121,100,221,10,-171,160,-373,-574,-454,-219,-122,-49
-115,76,191,19,-153,133,-313,-472,-394,-195,-116,-61
-103,58,161,22,-132,109,-265,-376,-328,-171,-104,-61
-91,40,131,25,-111,85,-223,-298,-262,-147,-98,-61
-73,22,95,25,-84,58,-187,-244,-214,-141,-92,-61
-61,-2,59,31,-60,28,-157,-202,-178,-135,-86,-55
-49,-20,29,34,-39,4,-139,-172,-154,-129,-86,-55
-43,-44,-1,43,-21,-22,-115,-154,-142,-129,-92,-61
-43,-62,-19,52,-12,-40,-97,-136,-142,-129,-104,-67
-37,-74,-37,55,0,-55,-85,-118,-142,-135,-116,-79
-37,-86,-49,61,6,-67,-67,-100,-136,-141,-128,-85
-37,-92,-55,64,9,-73,-61,-82,-130,-141,-134,-97
-37,-97,-60,67,11,-78,-55,-64,-124,-141,-134,-103
-43,-108,-65,75,11,-86,-49,-52,-118,-141,-140,-109
-43,-114,-71,78,14,-92,-49,-46,-112,-147,-140,-115
-43,-120,-77,81,17,-98,-49,-46,-112,-159,-146,-115
-49,-132,-83,90,17,-107,-49,-46,-112,-165,-146,-121
-49,-132,-83,90,17,-107,-49,-52,-112,-171,-152,-121
-43,-132,-89,87,23,-110,-43,-46,-112,-171,-146,-115
-37,-132,-95,84,29,-113,-43,-40,-112,-171,-146,-109
-37,-138,-101,87,32,-119,-37,-34,-112,-171,-146,-109
-31,-126,-95,78,32,-110,-31,-22,-112,-177,-146,-109
-31,-126,-95,78,32,-110,-25,-17,-106,-177,-152,-109
-31,-132,-101,81,35,-116,-31,-17,-106,-177,-158,-115
-25,-132,-107,78,41,-119,-25,-12,-106,-171,-152,-115
-19,-126,-107,72,44,-116,-19,-6,-100,-165,-146,-115
-19,-132,-113,75,47,-122,-14,-6,-94,-159,-140,-115
-25,-138,-113,81,44,-125,-19,-6,-94,-159,-140,-115
-25,-144,-119,84,47,-131,-25,-6,-94,-159,-140,-115
-25,-138,-113,81,44,-125,-25,-6,-94,-159,-134,-115
-25,-138,-113,81,44,-125,-25,-6,-88,-153,-134,-115
-19,-132,-113,75,47,-122,-31,0,-88,-153,-128,-115
-19,-132,-113,75,47,-122,-31,6,-88,-147,-128,-109
-19,-132,-113,75,47,-122,-31,6,-82,-147,-128,-109
-13,-120,-107,66,47,-113,-25,12,-76,-135,-128,-109
-13,-120,-107,66,47,-113,-19,12,-76,-135,-128,-109
-13,-120,-107,66,47,-113,-19,18,-70,-129,-128,-103
-13,-120,-107,66,47,-113,-19,18,-70,-129,-128,-103
-13,-120,-107,66,47,-113,-14,18,-64,-129,-122,-97
-13,-120,-107,66,47,-113,-14,24,-58,-123,-122,-91
-7,-114,-107,60,50,-110,-14,24,-58,-117,-116,-85
-13,-114,-101,63,44,-107,-14,24,-52,-117,-116,-85
-13,-120,-107,66,47,-113,-14,30,-52,-111,-110,-79
-19,-120,-101,69,41,-110,-14,30,-46,-111,-110,-79
-7,-108,-101,57,47,-104,-14,36,-40,-105,-104,-79
-1,-102,-101,51,50,-101,-19,36,-40,-99,-104,-79
-1,-102,-101,51,50,-101,-19,42,-34,-99,-104,-79
-1,-102,-101,51,50,-101,-19,42,-28,-93,-98,-79
4,-97,-101,46,52,-99,-19,48,-22,-93,-98,-79
-1,-102,-101,51,50,-101,-14,48,-16,-93,-92,-79
-2,-97,-95,49,46,-96,-14,48,-16,-87,-92,-79
-2,-97,-95,49,46,-96,-14,48,-10,-81,-86,-73
3,-92,-95,44,49,-93,-9,54,-10,-81,-80,-67
-3,-92,-89,47,43,-90,-9,54,-4,-75,-80,-61
-3,-92,-89,47,43,-90,-14,54,-4,-69,-80,-61
-8,-97,-89,52,40,-93,-14,54,2,-69,-74,-55
3,-86,-89,41,46,-87,-14,60,8,-57,-68,-55
15,-74,-89,29,52,-81,-14,72,14,-51,-62,-55
21,-68,-89,23,55,-78,-14,78,20,-45,-56,-49
21,-68,-89,23,55,-78,-14,78,25,-45,-44,-43
21,-68,-89,23,55,-78,-14,84,30,-34,-38,-37
21,-68,-89,23,55,-78,-9,90,36,-34,-32,-37
15,-74,-89,29,52,-81,-9,90,42,-29,-32,-37
15,-74,-89,29,52,-81,-9,90,48,-23,-32,-37
9,-74,-83,32,46,-78,-9,96,48,-17,-26,-32
9,-74,-83,32,46,-78,-9,102,54,-11,-26,-32
15,-62,-77,23,46,-69,-9,108,60,-11,-26,-27
15,-62,-77,23,46,-69,-9,114,72,-5,-20,-27
21,-56,-77,17,49,-66,-3,120,78,1,-8,-15
27,-50,-77,11,52,-63,-3,126,84,7,-2,-9
33,-50,-83,8,58,-66,-3,132,90,13,10,-3
33,-50,-83,8,58,-66,-3,144,96,19,15,3
39,-44,-83,2,61,-63,-3,150,108,31,20,15
39,-44,-83,2,61,-63,-3,156,114,37,32,21
45,-32,-77,-6,61,-54,3,162,126,43,38,27
45,-32,-77,-6,61,-54,3,174,138,55,50,33
51,-26,-77,-12,64,-51,3,180,144,61,56,39
51,-26,-77,-12,64,-51,9,186,156,67,62,39
51,-26,-77,-12,64,-51,15,192,162,79,68,39
57,-20,-77,-18,67,-48,15,204,168,91,74,51
57,-20,-77,-18,67,-48,21,216,180,97,86,57
57,-20,-77,-18,67,-48,21,222,192,109,92,63
57,-26,-83,-15,70,-54,21,240,198,115,98,69
63,-14,-77,-24,70,-45,27,246,210,127,104,75
69,-2,-71,-33,70,-36,33,258,222,139,116,81
75,4,-71,-39,73,-33,39,264,240,157,128,93
81,16,-65,-48,73,-24,39,276,252,175,140,105
87,22,-65,-54,76,-21,45,282,264,187,152,117
87,22,-65,-54,76,-21,45,294,276,199,170,129
93,28,-65,-60,79,-18,45,300,294,211,182,141
94,34,-60,-64,77,-13,45,318,306,223,194,147
100,40,-60,-70,80,-10,51,330,318,241,206,159
112,52,-60,-82,86,-4,57,348,336,259,224,171
119,64,-55,-91,87,4,57,360,354,271,236,183
125,70,-55,-97,90,7,57,372,372,289,254,195
131,82,-49,-106,90,16,63,390,384,307,266,207
131,88,-43,-109,87,22,63,408,402,325,284,219
143,100,-43,-121,93,28,69,420,414,343,302,237
149,112,-37,-130,93,37,69,426,432,355,320,249
143,106,-37,-124,90,34,69,438,444,367,332,255
149,118,-31,-133,90,43,69,444,456,385,356,267
155,130,-25,-142,90,52,75,456,474,403,368,279
161,148,-13,-154,87,67,75,468,486,421,380,291
155,142,-13,-148,84,64,81,474,498,433,392,297
155,148,-7,-151,81,70,81,486,516,451,404,303
161,154,-7,-157,84,73,87,492,528,463,410,309
161,160,-1,-160,81,79,87,492,540,475,422,315
161,172,11,-166,75,91,93,498,552,487,434,321
161,178,17,-169,72,97,99,504,558,499,446,333
161,184,23,-172,69,103,99,510,564,505,458,339
161,190,29,-175,66,109,99,516,564,517,464,339
161,190,29,-175,66,109,105,516,570,523,470,345
167,202,35,-184,66,118,105,516,576,529,470,345
167,214,47,-190,60,130,105,516,582,535,476,351
167,220,53,-193,57,136,105,510,582,541,476,357
161,220,59,-190,51,139,105,504,588,547,476,363
161,226,65,-193,48,145,105,498,582,547,482,363
161,238,77,-199,42,157,105,492,582,547,488,363
155,238,83,-196,36,160,105,480,576,547,494,363
149,238,89,-193,30,163,105,474,570,547,494,357
137,238,101,-187,18,169,105,456,564,541,494,351
131,232,101,-181,15,166,99,444,552,535,488,345
131,238,107,-184,12,172,99,426,540,523,476,339
125,232,107,-178,9,169,93,408,528,511,464,333
119,226,107,-172,6,166,93,390,510,499,452,321
107,220,113,-163,-3,166,93,366,492,481,434,309
95,208,113,-151,-9,160,99,342,468,457,404,291
83,196,113,-139,-15,154,87,318,438,427,380,273
71,184,113,-127,-21,148,87,288,402,397,350,255
65,172,107,-118,-21,139,81,270,372,361,326,231
53,160,107,-106,-27,133,75,246,342,331,302,213
47,148,101,-97,-27,124,75,222,318,307,278,189
53,142,89,-97,-18,115,75,210,294,277,254,165
47,130,83,-88,-18,106,69,186,264,253,230,141
35,106,71,-70,-18,88,63,162,240,223,200,117
23,88,65,-55,-21,76,63,138,210,199,170,99
17,76,59,-46,-21,67,57,120,186,169,146,81
11,64,53,-37,-21,58,51,102,156,139,122,69
11,58,47,-34,-18,52,51,84,132,109,104,51
5,46,41,-25,-18,43,45,66,108,79,80,33
-1,40,41,-19,-21,40,39,48,84,55,62,21
-7,28,35,-10,-21,31,39,36,60,37,50,3
-7,22,29,-7,-18,25,33,24,42,19,38,-9
-13,10,23,1,-18,16,33,18,25,7,20,-27
-19,-8,11,13,-15,1,33,6,14,-11,4,-37
-25,-20,5,22,-15,-7,27,-6,-4,-29,-14,-49
-31,-26,5,28,-18,-10,21,-17,-16,-34,-26,-61
-37,-38,-1,37,-18,-19,21,-22,-34,-51,-44,-73
-37,-44,-7,40,-15,-25,21,-28,-52,-63,-56,-85
-31,-38,-7,34,-12,-22,21,-34,-58,-75,-62,-85
-31,-44,-13,37,-9,-28,27,-40,-70,-81,-62,-91
-37,-50,-13,43,-12,-31,21,-40,-76,-93,-68,-97
-37,-56,-19,46,-9,-37,21,-46,-76,-99,-74,-97
-43,-62,-19,52,-12,-40,15,-52,-76,-111,-80,-103
-43,-74,-31,58,-6,-52,9,-64,-82,-117,-92,-109
-37,-74,-37,55,0,-55,9,-64,-88,-123,-98,-115
-43,-80,-37,61,-3,-58,9,-70,-94,-129,-104,-115
-43,-80,-37,61,-3,-58,9,-70,-94,-135,-110,-115
-43,-86,-43,64,0,-64,9,-76,-94,-135,-110,-115
-43,-86,-43,64,0,-64,9,-64,-100,-135,-110,-115
-43,-86,-43,64,0,-64,15,-64,-100,-135,-110,-115
-43,-86,-43,64,0,-64,15,-64,-100,-135,-110,-121
-43,-86,-43,64,0,-64,15,-64,-100,-135,-110,-121
-49,-92,-43,70,-3,-67,15,-70,-100,-135,-116,-127
-49,-92,-43,70,-3,-67,15,-70,-100,-141,-116,-133
-55,-92,-37,73,-9,-64,15,-70,-100,-141,-116,-133
-55,-92,-37,73,-9,-64,15,-70,-100,-141,-116,-139
-49,-86,-37,67,-6,-61,15,-70,-100,-135,-116,-133
-43,-80,-37,61,-3,-58,15,-70,-106,-135,-116,-133
-43,-80,-37,61,-3,-58,15,-76,-106,-135,-122,-139
-37,-74,-37,55,0,-55,21,-76,-106,-135,-116,-139
-43,-80,-37,61,-3,-58,21,-76,-106,-135,-116,-139
-49,-92,-43,70,-3,-67,21,-76,-112,-135,-110,-139
-49,-92,-43,70,-3,-67,21,-76,-112,-129,-104,-133
-49,-92,-43,70,-3,-67,27,-70,-106,-129,-98,-133
-49,-92,-43,70,-3,-67,27,-70,-106,-135,-98,-133
-49,-92,-43,70,-3,-67,27,-70,-106,-135,-98,-133
-49,-92,-43,70,-3,-67,27,-70,-106,-135,-98,-127
-43,-86,-43,64,0,-64,27,-64,-100,-135,-98,-127
-43,-86,-43,64,0,-64,27,-64,-100,-129,-104,-121
-37,-86,-49,61,6,-67,27,-64,-100,-123,-104,-121
-37,-80,-43,58,3,-61,33,-64,-94,-117,-104,-121
-31,-74,-43,52,6,-58,33,-64,-94,-117,-98,-121
-31,-74,-43,52,6,-58,33,-70,-100,-117,-104,-127
-31,-74,-43,52,6,-58,39,-70,-100,-123,-104,-127
-37,-80,-43,58,3,-61,39,-70,-100,-123,-104,-133
-37,-86,-49,61,6,-67,39,-70,-106,-129,-104,-133
-37,-86,-49,61,6,-67,39,-70,-106,-135,-104,-133
-37,-86,-49,61,6,-67,39,-70,-106,-135,-98,-127
-37,-86,-49,61,6,-67,33,-70,-100,-129,-98,-121
-37,-80,-43,58,3,-61,33,-70,-100,-123,-98,-121
-37,-80,-43,58,3,-61,33,-64,-100,-123,-98,-121
-43,-86,-43,64,0,-64,33,-64,-94,-123,-92,-121
-43,-86,-43,64,0,-64,33,-64,-94,-117,-98,-121
-43,-86,-43,64,0,-64,33,-58,-94,-117,-92,-115
-43,-86,-43,64,0,-64,39,-58,-94,-117,-92,-115
-43,-86,-43,64,0,-64,39,-58,-94,-117,-92,-109
-43,-86,-43,64,0,-64,33,-58,-94,-117,-92,-109
-43,-86,-43,64,0,-64,27,-52,-100,-117,-92,-109
-37,-80,-43,58,3,-61,27,-52,-100,-111,-86,-109
-31,-74,-43,52,6,-58,27,-52,-94,-111,-86,-109
-31,-74,-43,52,6,-58,27,-52,-94,-111,-86,-109
-31,-74,-43,52,6,-58,33,-52,-94,-111,-86,-109
-31,-68,-37,49,3,-52,39,-52,-94,-105,-80,-109
-37,-74,-37,55,0,-55,39,-52,-94,-111,-80,-109
-37,-80,-43,58,3,-61,39,-58,-88,-111,-80,-109
-31,-68,-37,49,3,-52,39,-58,-88,-111,-80,-109
-31,-62,-31,46,0,-46,33,-58,-88,-111,-80,-115
-31,-68,-37,49,3,-52,33,-52,-88,-111,-80,-109
-31,-68,-37,49,3,-52,33,-52,-82,-111,-80,-109
-31,-68,-37,49,3,-52,33,-52,-82,-111,-80,-109
-25,-68,-43,46,9,-55,33,-52,-82,-111,-86,-109
-25,-68,-43,46,9,-55,33,-52,-82,-111,-86,-109
-31,-68,-37,49,3,-52,39,-52,-82,-105,-86,-109
-31,-68,-37,49,3,-52,39,-52,-82,-105,-80,-109
-37,-74,-37,55,0,-55,39,-52,-88,-105,-80,-109
-37,-74,-37,55,0,-55,39,-52,-88,-105,-80,-109
-37,-74,-37,55,0,-55,39,-52,-88,-105,-80,-109
-37,-74,-37,55,0,-55,39,-52,-88,-105,-80,-103
-37,-80,-43,58,3,-61,39,-52,-88,-105,-80,-103
-31,-74,-43,52,6,-58,39,-52,-88,-105,-80,-103
-31,-74,-43,52,6,-58,39,-46,-88,-105,-80,-97
-25,-68,-43,46,9,-55,39,-46,-88,-105,-80,-97
-25,-68,-43,46,9,-55,39,-46,-88,-105,-80,-97
-25,-68,-43,46,9,-55,39,-52,-88,-105,-80,-97
-31,-74,-43,52,6,-58,33,-52,-88,-111,-80,-103
-31,-74,-43,52,6,-58,33,-52,-88,-111,-80,-97
-31,-74,-43,52,6,-58,33,-52,-88,-111,-80,-97
-25,-68,-43,46,9,-55,33,-52,-88,-111,-80,-97
-19,-68,-49,43,15,-58,33,-52,-94,-111,-86,-91
-25,-74,-49,49,12,-61,33,-58,-94,-111,-80,-97
-25,-74,-49,49,12,-61,33,-58,-94,-111,-80,-97
-31,-80,-49,55,9,-64,33,-58,-94,-111,-80,-103
-31,-80,-49,55,9,-64,33,-58,-94,-111,-80,-103
-31,-80,-49,55,9,-64,33,-58,-94,-111,-80,-103
-31,-80,-49,55,9,-64,33,-64,-94,-117,-86,-103
-25,-74,-49,49,12,-61,33,-58,-94,-117,-80,-103
-25,-74,-49,49,12,-61,27,-58,-94,-117,-74,-103
-25,-68,-43,46,9,-55,27,-64,-94,-117,-80,-103
-25,-68,-43,46,9,-55,21,-64,-100,-123,-86,-109
-25,-68,-43,46,9,-55,21,-64,-100,-117,-92,-109
-19,-62,-43,40,12,-52,15,-58,-100,-117,-92,-115
-25,-62,-37,43,6,-49,15,-64,-100,-117,-92,-109
-25,-62,-37,43,6,-49,15,-64,-106,-117,-92,-115
-31,-68,-37,49,3,-52,15,-70,-112,-123,-92,-121
-31,-68,-37,49,3,-52,15,-70,-112,-135,-92,-121
-31,-68,-37,49,3,-52,15,-76,-112,-141,-98,-121
-25,-62,-37,43,6,-49,15,-76,-118,-141,-98,-115
-25,-62,-37,43,6,-49,9,-88,-118,-141,-104,-115
-25,-68,-43,46,9,-55,9,-88,-118,-141,-104,-115
-25,-68,-43,46,9,-55,9,-88,-124,-141,-104,-115
-19,-62,-43,40,12,-52,9,-82,-124,-135,-104,-115
-19,-68,-49,43,15,-58,9,-76,-130,-135,-104,-115
-25,-74,-49,49,12,-61,15,-76,-130,-141,-104,-115
-25,-74,-49,49,12,-61,15,-82,-130,-141,-104,-115
-25,-80,-55,52,15,-67,15,-82,-130,-141,-104,-115
-25,-80,-55,52,15,-67,15,-88,-136,-147,-104,-121
-31,-80,-49,55,9,-64,15,-88,-136,-147,-104,-121
-25,-74,-49,49,12,-61,15,-82,-136,-147,-104,-121
-25,-74,-49,49,12,-61,15,-82,-136,-147,-104,-121
-25,-74,-49,49,12,-61,9,-82,-136,-147,-104,-121
-25,-74,-49,49,12,-61,9,-82,-142,-147,-110,-121
-31,-80,-49,55,9,-64,15,-82,-142,-153,-110,-121
-31,-80,-49,55,9,-64,15,-82,-142,-147,-110,-121
-31,-80,-49,55,9,-64,15,-88,-142,-147,-110,-121
-37,-86,-49,61,6,-67,21,-88,-142,-153,-110,-121
-31,-80,-49,55,9,-64,21,-94,-142,-153,-116,-127
-31,-80,-49,55,9,-64,15,-94,-142,-153,-116,-127
-31,-80,-49,55,9,-64,15,-94,-142,-153,-116,-133
-31,-80,-49,55,9,-64,15,-100,-142,-159,-116,-133
-37,-86,-49,61,6,-67,15,-100,-142,-159,-122,-133
-37,-86,-49,61,6,-67,21,-100,-142,-159,-122,-133
-37,-86,-49,61,6,-67,21,-94,-148,-159,-122,-133
-37,-86,-49,61,6,-67,21,-94,-148,-159,-116,-133
-43,-86,-43,64,0,-64,21,-94,-154,-159,-116,-127
-37,-86,-49,61,6,-67,21,-94,-154,-159,-116,-127
-37,-86,-49,61,6,-67,15,-94,-154,-159,-116,-127
-43,-92,-49,67,3,-70,15,-100,-154,-159,-116,-127
-37,-86,-49,61,6,-67,9,-100,-154,-165,-116,-127
-37,-92,-55,64,9,-73,9,-100,-154,-165,-122,-127
-37,-86,-49,61,6,-67,9,-100,-160,-165,-122,-127
-37,-86,-49,61,6,-67,9,-100,-160,-165,-122,-133
-37,-86,-49,61,6,-67,15,-106,-160,-165,-122,-133
-31,-80,-49,55,9,-64,9,-106,-160,-159,-122,-133
-31,-80,-49,55,9,-64,9,-106,-160,-165,-116,-139
-37,-92,-55,64,9,-73,9,-106,-160,-165,-122,-139
-42,-97,-55,69,6,-76,3,-112,-160,-171,-122,-139
-42,-97,-55,69,6,-76,3,-112,-160,-177,-122,-145
-42,-97,-55,69,6,-76,3,-112,-160,-177,-128,-145
-42,-97,-55,69,6,-76,3,-106,-154,-171,-128,-139
-42,-97,-55,69,6,-76,3,-106,-154,-171,-128,-139
-37,-92,-55,64,9,-73,3,-106,-154,-171,-128,-139
-37,-92,-55,64,9,-73,9,-106,-154,-171,-128,-139
-37,-86,-49,61,6,-67,9,-106,-154,-165,-128,-139
-31,-80,-49,55,9,-64,9,-106,-154,-165,-122,-139
-31,-80,-49,55,9,-64,3,-106,-154,-165,-122,-145
-31,-74,-43,52,6,-58,3,-106,-160,-165,-116,-139
-37,-80,-43,58,3,-61,3,-106,-160,-165,-116,-139
-37,-86,-49,61,6,-67,3,-106,-160,-165,-116,-139
-37,-86,-49,61,6,-67,-3,-112,-160,-171,-122,-133
-37,-86,-49,61,6,-67,-3,-112,-160,-171,-122,-133
-37,-92,-55,64,9,-73,-3,-112,-154,-171,-122,-133
-37,-92,-55,64,9,-73,-9,-112,-154,-171,-128,-133
-42,-97,-55,69,6,-76,-9,-106,-154,-171,-128,-139
-43,-92,-49,67,3,-70,-3,-100,-154,-171,-128,-139
-43,-92,-49,67,3,-70,-3,-100,-154,-171,-128,-139
-43,-92,-49,67,3,-70,-3,-100,-154,-177,-128,-139
-43,-92,-49,67,3,-70,3,-100,-154,-177,-128,-139
-37,-86,-49,61,6,-67,-3,-100,-160,-177,-122,-139
-43,-92,-49,67,3,-70,3,-100,-160,-171,-122,-133
-42,-97,-55,69,6,-76,-3,-100,-160,-171,-122,-133
-42,-102,-60,72,9,-81,-3,-106,-160,-171,-122,-133
-42,-102,-60,72,9,-81,-3,-106,-160,-177,-128,-133
-42,-97,-55,69,6,-76,-3,-112,-166,-177,-128,-133
-42,-97,-55,69,6,-76,-3,-112,-166,-171,-122,-133
-43,-92,-49,67,3,-70,3,-112,-172,-171,-122,-133
-37,-86,-49,61,6,-67,3,-112,-172,-177,-128,-133
-37,-86,-49,61,6,-67,3,-106,-172,-171,-128,-133
-37,-86,-49,61,6,-67,3,-106,-172,-177,-128,-139
-37,-86,-49,61,6,-67,-3,-106,-178,-177,-128,-145
-37,-86,-49,61,6,-67,-3,-106,-178,-177,-128,-145
-37,-92,-55,64,9,-73,-9,-106,-178,-177,-128,-145
-42,-102,-60,72,9,-81,-9,-112,-172,-171,-128,-145
-47,-102,-55,74,4,-78,-14,-118,-172,-177,-128,-145
-42,-97,-55,69,6,-76,-14,-118,-172,-171,-128,-145
-37,-86,-49,61,6,-67,-14,-124,-172,-171,-128,-145
-37,-86,-49,61,6,-67,-14,-118,-172,-177,-128,-145
-43,-92,-49,67,3,-70,-19,-118,-178,-177,-134,-151
-37,-86,-49,61,6,-67,-14,-112,-166,-171,-128,-151
-37,-86,-49,61,6,-67,-14,-112,-166,-171,-128,-145
-37,-86,-49,61,6,-67,-14,-106,-166,-177,-134,-145
-43,-92,-49,67,3,-70,-14,-106,-166,-177,-128,-151
-43,-92,-49,67,3,-70,-14,-106,-166,-177,-122,-151
-43,-92,-49,67,3,-70,-14,-112,-166,-177,-122,-157
-43,-86,-43,64,0,-64,-14,-112,-166,-183,-122,-157
-43,-86,-43,64,0,-64,-14,-112,-172,-183,-122,-151
-43,-86,-43,64,0,-64,-14,-118,-172,-183,-122,-151
-43,-86,-43,64,0,-64,-14,-118,-172,-177,-122,-151
-43,-86,-43,64,0,-64,-19,-118,-178,-171,-122,-151
-37,-80,-43,58,3,-61,-19,-124,-178,-171,-122,-145
-37,-80,-43,58,3,-61,-19,-118,-172,-171,-122,-145
-37,-80,-43,58,3,-61,-25,-118,-172,-171,-122,-145
-37,-80,-43,58,3,-61,-25,-118,-172,-177,-122,-145
-43,-86,-43,64,0,-64,-25,-118,-166,-177,-122,-151
-43,-86,-43,64,0,-64,-19,-112,-166,-177,-122,-151
-49,-92,-43,70,-3,-67,-25,-112,-172,-177,-122,-151
-43,-92,-49,67,3,-70,-25,-118,-172,-183,-122,-157
-49,-92,-43,70,-3,-67,-19,-112,-172,-183,-122,-151
-43,-86,-43,64,0,-64,-19,-112,-172,-183,-122,-145
-43,-86,-43,64,0,-64,-19,-112,-172,-183,-122,-145
-43,-86,-43,64,0,-64,-14,-118,-172,-183,-122,-145
-49,-92,-43,70,-3,-67,-19,-118,-172,-183,-122,-145
-49,-92,-43,70,-3,-67,-19,-118,-172,-177,-122,-139
-49,-92,-43,70,-3,-67,-19,-118,-166,-177,-122,-139
-49,-92,-43,70,-3,-67,-25,-124,-160,-177,-122,-139
-49,-92,-43,70,-3,-67,-25,-124,-160,-177,-122,-139
-48,-97,-49,72,0,-73,-25,-124,-160,-177,-122,-145
-49,-92,-43,70,-3,-67,-19,-118,-160,-177,-122,-139
-49,-92,-43,70,-3,-67,-14,-112,-154,-177,-116,-139
-43,-80,-37,61,-3,-58,-9,-112,-154,-171,-116,-133
-37,-68,-31,52,-3,-49,-3,-106,-148,-165,-116,-139
-37,-62,-25,49,-6,-43,-3,-100,-148,-159,-110,-133
-31,-56,-25,43,-3,-40,3,-94,-136,-153,-104,-133
-25,-44,-19,34,-3,-31,9,-94,-130,-147,-98,-133
-31,-44,-13,37,-9,-28,9,-88,-124,-141,-98,-127
