,,,,,,,,,,,
2019-09-04 23:54:02,,,,,,,,,,,
,,,,,,,,,,,
I,II,III,aVR,aVL,aVF,V1,V2,V3,V4,V5,V6
319,679,295,-500,3,473,225,373,417,233,419,648
283,133,-118,-212,147,5,-86,103,45,65,53,162
265,31,-190,-158,177,-72,-146,55,-20,23,-12,78
253,13,-208,-134,195,-90,-164,37,-38,11,-30,60
247,1,-214,-128,201,-96,-170,31,-38,11,-36,54
241,1,-214,-122,201,-96,-176,31,-38,11,-42,48
229,1,-214,-116,201,-96,-176,31,-38,11,-42,48
223,1,-214,-110,201,-96,-176,31,-38,11,-42,48
217,1,-214,-104,201,-96,-176,37,-38,17,-42,48
211,1,-208,-104,195,-96,-170,37,-38,23,-36,48
199,1,-196,-104,189,-96,-164,43,-32,29,-30,48
187,1,-184,-104,183,-90,-158,49,-26,35,-24,48
181,1,-172,-104,177,-84,-146,61,-14,47,-18,54
169,1,-160,-104,165,-78,-134,67,3,59,-12,60
163,1,-148,-104,153,-72,-122,73,15,65,-6,60
157,1,-136,-104,147,-66,-116,73,27,77,0,60
151,1,-130,-98,135,-60,-110,73,33,77,0,60
139,1,-118,-92,129,-54,-104,73,39,83,0,60
133,1,-112,-86,123,-54,-92,73,45,83,5,66
121,1,-100,-80,111,-48,-80,73,45,83,5,66
109,1,-94,-74,99,-42,-74,73,45,83,5,66
97,1,-82,-68,87,-42,-68,73,45,83,5,66
85,1,-76,-62,81,-42,-56,73,45,83,5,66
79,1,-64,-56,75,-42,-50,73,45,83,5,66
73,1,-58,-50,69,-42,-44,67,45,83,5,66
61,1,-52,-44,63,-42,-44,61,45,83,5,60
55,1,-52,-38,57,-42,-44,49,45,83,0,54
49,1,-52,-32,57,-42,-44,37,45,83,-6,42
43,1,-52,-26,51,-42,-44,25,39,77,-12,30
31,1,-52,-20,45,-42,-44,19,33,71,-24,18
19,-4,-46,-8,39,-42,-38,7,27,59,-36,6
7,-10,-46,3,33,-42,-32,2,15,53,-42,1
1,-16,-46,9,33,-42,-32,-4,9,47,-48,-5
-4,-22,-46,15,33,-42,-32,-10,3,41,-54,-11
-10,-34,-46,21,33,-48,-32,-22,-2,35,-60,-17
-10,-40,-46,27,33,-48,-32,-34,-8,29,-72,-23
-10,-46,-46,33,33,-48,-32,-46,-14,17,-84,-29
-16,-52,-46,39,33,-54,-32,-58,-20,11,-90,-35
-22,-58,-46,45,33,-54,-32,-70,-26,5,-96,-47
-28,-64,-46,45,27,-54,-32,-76,-32,0,-102,-53
-28,-64,-46,45,27,-54,-32,-82,-44,-12,-108,-65
-28,-70,-46,45,27,-54,-32,-88,-56,-24,-114,-71
-28,-70,-46,45,21,-54,-32,-94,-62,-30,-120,-77
-34,-70,-46,45,21,-54,-32,-100,-62,-36,-126,-83
-34,-76,-46,51,21,-54,-32,-106,-62,-42,-132,-83
-40,-76,-46,57,21,-54,-32,-106,-62,-48,-138,-83
-40,-82,-46,57,21,-60,-32,-106,-62,-48,-144,-83
-40,-88,-46,63,21,-66,-32,-112,-62,-54,-150,-89
-46,-94,-46,69,21,-72,-32,-112,-68,-54,-156,-95
-46,-100,-46,69,21,-78,-32,-112,-68,-60,-156,-95
-46,-100,-46,75,21,-78,-32,-118,-68,-60,-162,-95
-46,-100,-46,75,21,-78,-32,-118,-68,-60,-162,-101
-46,-100,-46,75,21,-78,-32,-118,-74,-66,-162,-101
-46,-100,-46,75,21,-78,-32,-118,-74,-72,-162,-101
-46,-100,-52,75,21,-78,-32,-124,-74,-72,-162,-101
-46,-100,-58,75,21,-78,-32,-124,-74,-72,-162,-101
-46,-100,-58,75,21,-78,-32,-124,-74,-72,-162,-107
-46,-100,-58,75,21,-78,-32,-124,-74,-72,-162,-113
-46,-100,-58,75,21,-78,-32,-124,-74,-72,-168,-113
-46,-106,-58,75,21,-78,-32,-124,-74,-78,-168,-113
-46,-106,-58,75,21,-78,-32,-124,-74,-78,-168,-113
-46,-112,-58,75,21,-78,-32,-124,-74,-78,-168,-113
-46,-112,-58,75,21,-78,-32,-124,-74,-78,-168,-113
-46,-112,-58,75,21,-78,-32,-124,-74,-78,-168,-113
-46,-112,-64,75,21,-84,-32,-124,-74,-78,-168,-113
-46,-112,-64,75,21,-84,-32,-124,-74,-78,-168,-113
-52,-112,-64,81,21,-84,-32,-124,-74,-78,-168,-113
-52,-112,-64,81,21,-84,-32,-124,-74,-78,-168,-113
-52,-112,-64,81,21,-84,-32,-124,-74,-78,-168,-113
-52,-112,-64,81,21,-84,-32,-124,-74,-78,-168,-113
-52,-112,-64,81,21,-90,-32,-124,-74,-78,-168,-113
-52,-112,-64,81,21,-90,-32,-124,-74,-78,-168,-113
-52,-112,-64,81,21,-90,-32,-124,-74,-78,-168,-113
-52,-112,-64,81,21,-90,-32,-124,-74,-78,-168,-113
-52,-112,-64,81,21,-90,-32,-124,-74,-78,-168,-113
-52,-112,-64,81,21,-90,-32,-124,-74,-78,-168,-113
-52,-112,-64,81,21,-90,-32,-124,-74,-78,-162,-113
-52,-118,-70,81,21,-90,-32,-124,-74,-78,-162,-113
-52,-118,-70,81,21,-90,-32,-124,-74,-78,-162,-113
-52,-118,-70,81,21,-90,-32,-124,-74,-78,-156,-113
-52,-118,-70,81,21,-90,-32,-124,-74,-78,-156,-113
-52,-118,-70,81,21,-90,-32,-124,-74,-78,-156,-113
-52,-118,-70,81,21,-90,-32,-124,-74,-78,-156,-107
-52,-118,-70,81,21,-90,-32,-124,-74,-78,-156,-101
-52,-118,-70,81,21,-90,-32,-124,-74,-78,-156,-101
-52,-118,-70,81,21,-90,-32,-124,-74,-78,-156,-101
-52,-118,-70,81,21,-90,-32,-124,-74,-78,-156,-101
-52,-118,-70,81,21,-90,-32,-124,-74,-78,-150,-101
-52,-118,-70,81,21,-90,-32,-124,-74,-78,-150,-101
-52,-118,-70,81,21,-90,-32,-124,-74,-78,-144,-101
-52,-118,-70,81,21,-90,-32,-124,-74,-78,-144,-101
-52,-118,-70,81,21,-90,-32,-124,-74,-78,-144,-101
-52,-118,-70,81,21,-90,-32,-124,-74,-78,-144,-101
-52,-118,-70,81,21,-90,-32,-124,-74,-78,-144,-101
-46,-118,-70,81,21,-90,-32,-124,-74,-78,-144,-101
-46,-118,-70,81,21,-90,-32,-124,-74,-78,-144,-101
-46,-118,-70,81,21,-90,-32,-124,-74,-78,-138,-101
-46,-118,-70,81,21,-90,-32,-124,-74,-78,-138,-101
-46,-118,-70,81,21,-90,-32,-124,-74,-78,-138,-101
-46,-118,-70,81,21,-90,-32,-124,-74,-78,-138,-95
-46,-118,-70,75,21,-90,-32,-124,-74,-78,-138,-95
-46,-118,-70,75,21,-90,-32,-124,-74,-78,-138,-95
-46,-118,-70,75,21,-90,-32,-124,-74,-78,-138,-95
-46,-118,-70,75,21,-90,-32,-124,-74,-78,-138,-95
-46,-118,-70,75,21,-90,-32,-124,-74,-78,-138,-95
-46,-118,-70,75,21,-90,-32,-124,-80,-78,-138,-95
-46,-118,-70,75,21,-90,-32,-124,-80,-78,-138,-95
-46,-118,-70,75,21,-90,-32,-124,-80,-78,-138,-95
-46,-118,-70,75,21,-90,-32,-124,-86,-78,-138,-95
-46,-118,-70,75,21,-90,-32,-124,-86,-78,-138,-95
-46,-118,-70,75,21,-90,-32,-124,-86,-78,-138,-95
-46,-118,-76,75,21,-90,-32,-124,-86,-78,-138,-95
-46,-118,-76,75,21,-90,-32,-124,-92,-78,-138,-95
-46,-118,-76,75,21,-90,-32,-124,-92,-78,-138,-95
-46,-118,-76,75,21,-90,-32,-124,-92,-78,-138,-95
-46,-118,-76,75,21,-90,-32,-124,-92,-78,-138,-95
-46,-118,-76,75,21,-90,-32,-130,-98,-78,-138,-95
-46,-118,-76,75,21,-90,-32,-130,-98,-78,-138,-95
-46,-118,-76,75,21,-90,-32,-130,-104,-84,-138,-95
-46,-118,-76,75,21,-90,-32,-130,-104,-90,-138,-95
-46,-118,-76,75,21,-90,-32,-136,-110,-90,-138,-95
-46,-118,-76,75,21,-90,-32,-136,-110,-90,-138,-95
-46,-118,-76,75,21,-90,-32,-136,-116,-90,-138,-95
-46,-118,-76,75,21,-90,-32,-142,-116,-90,-138,-95
-46,-118,-76,75,21,-90,-32,-148,-116,-90,-138,-95
-46,-118,-76,75,21,-90,-32,-148,-122,-96,-138,-95
-46,-118,-76,75,21,-90,-32,-148,-122,-96,-138,-95
-46,-124,-76,75,21,-90,-32,-148,-122,-102,-138,-95
-46,-124,-76,75,21,-90,-32,-154,-122,-102,-138,-95
-46,-130,-76,75,21,-90,-32,-154,-122,-102,-138,-95
-46,-130,-76,75,21,-96,-32,-154,-122,-102,-138,-95
-46,-130,-76,75,21,-96,-32,-154,-128,-108,-138,-95
-46,-130,-76,75,21,-96,-32,-154,-128,-108,-138,-95
-46,-130,-76,75,21,-96,-32,-154,-128,-114,-138,-95
-46,-130,-76,75,21,-96,-32,-154,-134,-114,-138,-95
-46,-130,-76,75,21,-96,-38,-154,-134,-114,-138,-95
-46,-130,-76,75,21,-96,-38,-154,-140,-114,-138,-95
-46,-130,-76,75,21,-96,-38,-154,-140,-114,-138,-95
-46,-130,-76,75,21,-96,-38,-160,-140,-120,-144,-95
-46,-130,-76,75,21,-102,-38,-166,-140,-120,-144,-95
-46,-130,-76,75,21,-102,-38,-172,-140,-120,-144,-95
-46,-130,-76,75,21,-102,-38,-172,-140,-120,-144,-95
-46,-130,-76,75,21,-102,-38,-172,-146,-120,-144,-95
-46,-130,-76,75,21,-108,-38,-172,-146,-126,-144,-95
-46,-130,-76,75,21,-114,-38,-172,-146,-126,-144,-95
-46,-130,-76,75,21,-114,-38,-178,-146,-126,-144,-95
-46,-130,-76,75,21,-114,-38,-178,-146,-126,-144,-101
-46,-130,-76,75,21,-114,-38,-178,-146,-126,-144,-101
-46,-130,-76,75,21,-114,-38,-178,-146,-126,-144,-101
-46,-130,-76,75,21,-114,-38,-178,-146,-126,-144,-101
-46,-130,-76,75,21,-114,-38,-178,-146,-126,-144,-101
-46,-130,-82,75,21,-114,-38,-178,-146,-126,-144,-101
-46,-130,-82,75,21,-114,-38,-178,-146,-126,-144,-101
-46,-130,-82,75,21,-114,-38,-178,-146,-126,-144,-101
-46,-130,-82,75,21,-114,-38,-178,-146,-126,-144,-101
-46,-130,-82,75,21,-114,-38,-184,-152,-132,-144,-101
-46,-130,-82,75,21,-114,-38,-190,-152,-138,-144,-101
-46,-130,-82,75,21,-114,-38,-190,-152,-138,-144,-107
-46,-130,-82,75,21,-114,-38,-190,-152,-138,-144,-107
-46,-130,-82,75,21,-114,-38,-190,-152,-138,-144,-107
-46,-124,-82,75,21,-114,-38,-190,-152,-138,-144,-107
-46,-124,-82,75,21,-114,-32,-190,-152,-132,-144,-107
-46,-118,-82,69,21,-114,-26,-184,-146,-132,-144,-107
-40,-112,-82,69,21,-108,-20,-178,-146,-132,-144,-107
-34,-106,-82,63,21,-102,-14,-172,-140,-126,-138,-107
-28,-100,-82,57,21,-96,-14,-166,-134,-126,-138,-107
-22,-94,-82,57,21,-90,-8,-166,-128,-126,-138,-107
-22,-94,-82,51,21,-84,-8,-166,-122,-120,-132,-101
-16,-94,-82,51,21,-84,-8,-166,-122,-120,-132,-95
-16,-94,-82,51,21,-84,-8,-166,-122,-120,-132,-95
-16,-94,-82,51,21,-84,-8,-166,-122,-120,-132,-95
-16,-94,-76,51,21,-84,-8,-166,-122,-120,-132,-95
-16,-94,-76,51,21,-84,-8,-166,-122,-120,-132,-95
-10,-94,-76,45,27,-84,-8,-160,-122,-120,-132,-89
1,-94,-82,39,39,-84,-8,-154,-116,-114,-126,-89
13,-94,-94,39,45,-84,-8,-148,-110,-108,-120,-83
19,-94,-100,39,51,-90,-8,-142,-104,-108,-120,-83
25,-94,-100,33,57,-90,-3,-136,-104,-102,-114,-83
25,-88,-100,33,57,-90,-3,-130,-98,-102,-114,-83
25,-82,-100,33,57,-90,-3,-130,-98,-102,-114,-77
25,-82,-100,33,57,-90,-3,-130,-98,-102,-114,-71
25,-82,-100,33,57,-90,-3,-130,-98,-102,-114,-71
25,-76,-100,33,57,-90,-8,-136,-98,-102,-114,-71
25,-76,-100,33,57,-90,-14,-142,-98,-102,-114,-71
25,-76,-100,33,63,-90,-26,-148,-104,-102,-114,-71
25,-76,-106,33,63,-90,-38,-154,-116,-102,-114,-71
25,-76,-112,33,69,-96,-50,-166,-128,-108,-114,-77
25,-82,-118,33,69,-102,-56,-178,-134,-120,-114,-83
25,-94,-130,33,75,-114,-62,-190,-146,-132,-120,-89
25,-106,-136,33,81,-126,-68,-202,-158,-144,-132,-95
25,-112,-142,33,81,-132,-74,-214,-176,-156,-144,-101
25,-118,-148,39,81,-138,-80,-226,-188,-162,-150,-107
25,-124,-148,39,81,-144,-86,-238,-194,-168,-156,-113
25,-124,-148,39,81,-144,-86,-244,-200,-174,-162,-119
25,-124,-148,39,81,-144,-86,-250,-206,-180,-168,-119
25,-124,-148,39,81,-144,-86,-256,-206,-186,-168,-119
25,-124,-148,39,81,-144,-86,-262,-212,-186,-168,-125
25,-124,-148,39,81,-144,-86,-262,-212,-186,-168,-125
25,-124,-148,39,81,-144,-86,-262,-212,-186,-168,-125
25,-124,-148,45,81,-144,-86,-262,-212,-186,-174,-125
19,-124,-142,51,75,-144,-86,-262,-212,-186,-174,-125
7,-124,-136,57,69,-144,-86,-262,-212,-186,-174,-125
-4,-130,-130,69,63,-144,-86,-256,-212,-186,-174,-125
-16,-136,-130,75,57,-144,-86,-256,-212,-186,-174,-125
-22,-136,-124,81,57,-144,-80,-256,-212,-186,-174,-125
-28,-142,-124,87,51,-144,-74,-256,-212,-186,-174,-125
-34,-142,-118,87,45,-144,-74,-256,-212,-186,-174,-125
-40,-142,-112,87,39,-144,-74,-256,-212,-186,-174,-131
-40,-148,-112,93,39,-144,-74,-256,-212,-186,-174,-131
-40,-154,-112,93,39,-144,-74,-256,-212,-186,-174,-137
-40,-154,-112,93,39,-144,-74,-256,-212,-192,-180,-137
-40,-154,-112,93,39,-144,-74,-262,-218,-198,-180,-137
-46,-154,-112,93,39,-144,-74,-262,-224,-204,-186,-137
-46,-154,-112,93,39,-144,-74,-262,-224,-204,-186,-137
-46,-154,-112,93,39,-144,-74,-262,-224,-204,-186,-137
-46,-154,-112,93,39,-138,-68,-262,-218,-204,-186,-137
-46,-154,-106,93,33,-132,-56,-256,-206,-198,-186,-137
-52,-148,-94,93,21,-120,-44,-244,-194,-186,-174,-131
-58,-142,-76,93,9,-108,-32,-226,-170,-168,-162,-125
-64,-136,-58,93,-3,-96,-20,-214,-152,-156,-144,-113
-64,-124,-40,93,-14,-84,-8,-190,-140,-144,-126,-101
-70,-112,-22,93,-26,-60,-3,-166,-128,-132,-114,-89
-76,-100,7,93,-38,-48,9,-148,-110,-114,-102,-77
-82,-76,25,93,-50,-30,21,-118,-80,-90,-90,-65
-94,-64,55,87,-74,-12,39,-88,-50,-66,-66,-47
-106,-52,85,87,-98,11,69,-64,-8,-30,-36,-35
-118,-34,127,87,-128,41,105,-28,33,11,-6,-11
-136,-16,157,87,-152,65,141,19,81,53,35,18
-148,7,187,81,-176,95,171,61,123,83,65,48
-154,19,211,75,-188,125,195,103,153,119,95,66
-160,43,241,69,-200,143,213,139,183,149,131,90
-166,55,259,69,-212,161,237,181,213,179,149,108
-178,73,289,63,-230,185,267,223,243,209,161,120
-190,91,301,57,-242,197,291,277,285,239,191,132
-196,103,319,51,-260,209,327,325,333,281,227,162
-202,115,337,45,-272,227,381,391,393,323,263,186
-208,127,367,45,-284,239,429,457,453,365,293,204
-220,133,379,45,-296,245,483,529,495,401,323,216
-232,133,385,45,-308,257,537,577,525,419,335,222
-250,133,391,51,-320,257,579,637,549,431,341,222
-262,133,397,63,-332,257,627,679,561,437,347,222
-280,127,403,75,-344,263,675,721,573,443,347,216
-304,121,421,81,-362,269,735,763,585,443,347,210
-334,121,451,87,-392,281,777,823,615,455,347,210
-352,127,481,93,-422,293,843,883,669,479,353,210
-364,139,511,93,-446,311,891,931,723,521,371,216
-370,163,553,93,-464,341,933,997,801,593,425,234
-370,211,589,81,-470,389,969,1087,897,695,515,294
-358,283,619,39,-476,437,987,1201,1023,815,641,402
-310,361,631,-32,-476,491,999,1357,1185,983,797,522
-214,445,643,-110,-458,533,1023,1543,1371,1163,965,666
-136,535,649,-188,-428,581,1035,1705,1551,1343,1145,828
-40,601,649,-284,-386,617,1035,1813,1713,1517,1331,990
55,715,649,-374,-338,659,1029,1903,1875,1703,1523,1164
163,847,655,-506,-290,737,963,1951,2049,1913,1757,1374
259,991,685,-632,-260,815,867,1981,2240,2152,2015,1614
325,1105,721,-716,-236,899,807,2011,2449,2392,2260,1818
403,1159,733,-788,-206,941,741,2047,2635,2601,2469,1986
475,1201,733,-830,-158,959,657,2064,2785,2763,2655,2141
505,1225,733,-860,-122,965,591,2088,2905,2901,2775,2231
511,1231,733,-866,-116,971,573,2130,3007,2997,2853,2291
487,1237,775,-860,-146,989,567,2178,3121,3093,2925,2345
415,1237,853,-848,-212,1025,567,2196,3211,3177,2991,2393
367,1225,853,-794,-236,1025,561,2196,3229,3183,2991,2393
325,1039,775,-692,-236,911,549,2076,3121,3033,2829,2267
247,811,619,-542,-230,725,519,1777,2725,2631,2457,1962
157,595,493,-386,-218,551,471,1417,2222,2116,1973,1596
43,391,403,-212,-212,389,387,979,1623,1535,1433,1176
-82,211,349,-56,-212,275,279,499,1023,959,887,756
-184,85,319,57,-224,209,171,121,567,521,479,426
-226,13,295,105,-230,155,63,-124,291,287,239,210
-244,-28,271,141,-236,119,-26,-280,123,119,77,66
-256,-64,241,159,-236,83,-74,-364,33,17,-30,-35
-262,-94,199,171,-236,53,-116,-430,-32,-48,-78,-77
-262,-118,151,177,-224,23,-158,-502,-128,-114,-126,-107
-250,-130,97,177,-194,-12,-188,-562,-212,-180,-168,-137
-220,-148,31,177,-140,-54,-200,-580,-260,-222,-192,-155
-190,-160,-10,177,-98,-90,-206,-580,-284,-252,-204,-167
-160,-166,-28,171,-68,-102,-206,-562,-290,-264,-216,-173
-148,-166,-40,165,-56,-108,-200,-520,-290,-270,-222,-173
-136,-166,-46,159,-44,-114,-182,-478,-290,-270,-222,-173
-112,-166,-58,153,-26,-114,-152,-436,-290,-270,-222,-173
-94,-166,-70,141,-8,-120,-134,-394,-284,-270,-222,-173
-82,-166,-94,135,9,-126,-116,-364,-278,-270,-222,-173
-70,-172,-112,135,21,-138,-104,-352,-278,-270,-222,-173
-64,-178,-124,135,27,-150,-98,-346,-278,-270,-222,-173
-64,-184,-130,135,33,-156,-92,-334,-278,-270,-222,-173
-64,-184,-136,135,39,-162,-86,-328,-278,-270,-222,-173
-58,-184,-142,135,45,-168,-86,-328,-278,-270,-222,-173
-52,-184,-148,135,51,-174,-86,-328,-278,-270,-222,-173
-46,-190,-148,135,51,-174,-86,-328,-278,-270,-222,-173
-40,-190,-154,135,57,-174,-86,-328,-278,-270,-222,-179
-40,-190,-160,135,63,-174,-86,-328,-278,-270,-222,-179
-40,-190,-172,129,63,-180,-86,-328,-278,-270,-222,-179
-40,-190,-178,129,69,-180,-86,-328,-278,-276,-222,-179
-34,-190,-184,129,69,-180,-86,-328,-278,-276,-222,-179
-34,-190,-184,129,69,-186,-86,-328,-278,-276,-222,-179
-34,-196,-184,129,75,-192,-86,-328,-278,-282,-222,-179
-28,-196,-184,123,75,-192,-86,-328,-278,-282,-222,-179
-22,-196,-184,123,81,-192,-86,-328,-278,-282,-222,-185
-22,-196,-190,123,81,-192,-86,-328,-278,-282,-222,-185
-22,-196,-196,123,87,-192,-86,-322,-278,-282,-222,-185
-16,-196,-202,123,93,-192,-86,-316,-278,-282,-222,-185
-10,-196,-208,123,93,-198,-86,-316,-278,-282,-222,-185
-4,-196,-208,123,99,-204,-86,-316,-278,-282,-222,-185
1,-196,-208,123,99,-204,-86,-316,-278,-282,-222,-185
1,-196,-208,117,99,-204,-86,-316,-278,-282,-222,-185
1,-196,-214,117,99,-204,-86,-310,-278,-282,-222,-185
7,-196,-214,117,105,-204,-86,-304,-278,-282,-222,-185
7,-196,-220,117,111,-204,-86,-304,-278,-282,-222,-185
7,-202,-220,117,111,-210,-86,-304,-278,-282,-222,-185
7,-202,-226,117,117,-216,-86,-304,-278,-282,-222,-185
13,-202,-232,117,117,-216,-86,-298,-278,-282,-222,-185
19,-208,-232,117,117,-216,-86,-298,-278,-282,-222,-185
19,-208,-232,117,117,-216,-86,-298,-278,-282,-222,-185
25,-208,-238,117,123,-222,-92,-298,-278,-282,-222,-185
25,-208,-244,111,129,-222,-92,-298,-278,-282,-222,-185
25,-208,-244,111,129,-228,-92,-292,-278,-282,-222,-185
31,-208,-244,111,129,-228,-92,-286,-278,-282,-222,-185
31,-208,-250,111,135,-228,-92,-286,-278,-282,-222,-185
31,-208,-256,105,141,-228,-92,-280,-278,-282,-222,-185
37,-208,-256,99,141,-234,-92,-280,-278,-282,-222,-185
43,-208,-262,99,147,-234,-92,-280,-278,-282,-222,-185
49,-208,-262,99,153,-234,-92,-280,-278,-282,-222,-185
49,-208,-262,99,153,-234,-98,-280,-278,-282,-222,-185
49,-208,-268,93,159,-234,-98,-274,-278,-282,-222,-185
55,-208,-274,93,159,-234,-104,-274,-278,-282,-222,-185
55,-208,-274,93,159,-240,-110,-274,-278,-282,-222,-185
55,-208,-280,87,165,-240,-110,-268,-278,-282,-222,-185
61,-208,-280,87,165,-240,-110,-262,-278,-282,-222,-185
67,-208,-286,87,171,-240,-116,-262,-278,-282,-222,-185
73,-208,-286,81,177,-246,-116,-262,-278,-282,-222,-185
79,-208,-292,81,183,-246,-122,-262,-278,-282,-216,-185
85,-208,-292,81,189,-246,-122,-256,-272,-282,-210,-185
91,-208,-298,75,189,-246,-122,-256,-272,-282,-210,-185
97,-208,-304,75,195,-246,-122,-250,-272,-282,-210,-185
97,-208,-310,69,201,-252,-128,-244,-272,-282,-210,-185
103,-208,-316,69,207,-258,-128,-238,-272,-282,-204,-185
103,-208,-322,63,213,-258,-128,-232,-272,-282,-204,-185
103,-208,-322,57,213,-258,-128,-226,-266,-282,-198,-185
109,-208,-328,57,219,-264,-128,-220,-260,-282,-192,-185
115,-208,-334,51,219,-270,-128,-214,-254,-276,-186,-179
127,-208,-340,51,225,-270,-128,-208,-254,-276,-186,-173
133,-208,-346,45,231,-270,-128,-202,-254,-270,-186,-167
145,-208,-352,45,237,-270,-128,-196,-248,-264,-180,-161
151,-208,-352,45,243,-270,-128,-190,-242,-258,-174,-155
157,-208,-352,39,249,-270,-128,-178,-242,-258,-168,-149
163,-208,-352,33,255,-270,-128,-172,-242,-252,-162,-143
163,-208,-352,27,261,-270,-128,-160,-236,-246,-156,-137
169,-208,-352,21,261,-270,-128,-148,-230,-240,-150,-131
175,-208,-358,15,261,-270,-128,-136,-224,-234,-144,-125
181,-202,-358,9,267,-270,-128,-130,-218,-228,-138,-119
187,-196,-358,3,267,-270,-128,-124,-212,-216,-126,-113
193,-190,-358,3,273,-270,-128,-112,-200,-204,-114,-107
199,-184,-358,-3,273,-270,-128,-100,-188,-192,-108,-95
199,-178,-358,-8,279,-270,-128,-88,-176,-186,-96,-89
205,-172,-358,-14,279,-270,-128,-76,-170,-174,-84,-83
205,-166,-358,-14,279,-270,-128,-64,-164,-168,-78,-77
211,-166,-358,-20,279,-270,-122,-52,-158,-162,-72,-71
211,-160,-358,-26,279,-264,-116,-40,-152,-156,-66,-65
211,-154,-358,-32,279,-258,-116,-28,-140,-150,-60,-59
211,-142,-352,-32,279,-246,-116,-22,-128,-138,-54,-47
211,-136,-346,-38,279,-234,-116,-10,-116,-126,-42,-41
211,-130,-340,-38,279,-228,-110,2,-110,-114,-30,-29
211,-118,-334,-38,273,-222,-104,13,-98,-102,-24,-23
211,-112,-322,-38,267,-216,-98,19,-86,-90,-12,-17
211,-106,-316,-38,261,-210,-86,31,-74,-84,0,-11
211,-100,-310,-44,255,-204,-74,43,-62,-72,5,-5
211,-94,-298,-44,243,-192,-68,55,-50,-66,11,1
205,-88,-280,-44,237,-180,-56,67,-44,-60,17,6
199,-82,-268,-44,225,-168,-50,73,-32,-48,23,12
193,-70,-250,-44,213,-156,-44,79,-20,-36,29,18
187,-64,-238,-44,201,-144,-38,85,-14,-24,41,24
175,-58,-220,-44,189,-132,-32,91,-2,-18,47,30
169,-46,-208,-44,177,-120,-20,97,9,-6,59,36
163,-40,-196,-44,165,-108,-14,103,15,0,65,42
157,-34,-178,-44,153,-102,-3,103,21,5,71,42
151,-34,-166,-44,141,-96,9,103,27,11,77,48
139,-34,-148,-44,129,-90,15,103,33,17,83,48
127,-34,-136,-44,123,-84,27,103,39,17,83,48
115,-34,-130,-38,111,-78,33,103,39,17,83,48
103,-28,-124,-38,105,-72,39,103,39,17,83,48
97,-28,-118,-38,99,-72,39,103,39,17,83,48
91,-28,-112,-32,93,-66,39,97,39,17,83,48
85,-28,-106,-26,87,-66,39,91,39,17,83,48
79,-28,-100,-20,81,-66,39,79,39,17,83,42
67,-28,-94,-14,75,-66,39,67,33,17,77,36
55,-34,-94,-8,69,-66,39,49,27,11,71,30
43,-40,-94,-3,63,-66,39,37,21,5,65,18
31,-46,-88,3,57,-66,39,25,15,0,53,12
25,-52,-88,9,51,-66,39,13,3,-6,47,6
19,-52,-88,15,45,-66,39,2,-2,-18,35,1
13,-58,-88,21,45,-66,39,-10,-14,-30,23,-5
13,-58,-88,21,45,-66,39,-28,-20,-36,11,-11
13,-58,-88,21,45,-66,39,-52,-32,-42,5,-17
7,-64,-88,27,45,-66,33,-64,-44,-48,-6,-23
1,-70,-88,39,45,-72,27,-82,-56,-60,-12,-35
-4,-82,-88,45,39,-72,27,-94,-62,-72,-24,-47
-10,-88,-88,51,33,-72,27,-100,-68,-78,-30,-59
-16,-94,-88,51,33,-72,27,-112,-74,-90,-42,-65
-22,-100,-88,57,33,-78,27,-118,-80,-96,-48,-71
-28,-106,-88,57,33,-78,21,-124,-86,-102,-54,-77
-28,-112,-88,63,33,-78,15,-130,-92,-108,-60,-83
-28,-118,-88,69,33,-84,9,-142,-98,-114,-66,-89
-28,-118,-88,75,33,-84,3,-148,-104,-120,-72,-95
-34,-124,-88,81,33,-84,3,-154,-110,-126,-78,-107
-34,-130,-88,81,33,-90,3,-166,-116,-132,-84,-113
-34,-130,-88,81,33,-96,3,-172,-122,-138,-90,-119
-34,-130,-88,87,33,-96,3,-172,-128,-144,-96,-125
-40,-136,-88,87,33,-96,3,-178,-128,-150,-102,-131
-40,-136,-88,93,33,-102,3,-178,-128,-156,-108,-137
-40,-142,-94,93,33,-108,3,-178,-128,-156,-108,-137
-40,-148,-94,99,33,-108,3,-178,-128,-162,-108,-137
-40,-148,-94,99,33,-108,3,-178,-134,-162,-114,-137
-40,-148,-94,99,33,-114,3,-178,-140,-162,-114,-137
-46,-148,-94,99,33,-114,3,-178,-140,-162,-120,-137
-46,-154,-94,99,33,-114,-3,-178,-140,-162,-120,-137
-46,-160,-94,99,33,-114,-8,-178,-140,-162,-120,-137
-46,-160,-94,105,33,-114,-8,-178,-140,-168,-120,-143
-46,-160,-94,105,33,-120,-8,-184,-140,-168,-120,-143
-46,-160,-94,105,33,-120,-14,-184,-140,-168,-120,-149
-46,-160,-94,105,33,-120,-14,-184,-140,-168,-120,-149
-46,-160,-94,105,33,-120,-14,-184,-140,-168,-120,-149
-46,-160,-94,105,33,-120,-14,-184,-140,-168,-126,-149
-46,-160,-94,105,33,-120,-14,-184,-140,-168,-126,-149
-46,-160,-94,105,33,-120,-14,-184,-140,-168,-126,-149
-46,-160,-94,105,33,-120,-14,-184,-140,-168,-126,-149
-46,-160,-94,105,33,-120,-14,-184,-140,-168,-126,-149
-46,-160,-94,105,33,-120,-14,-184,-140,-168,-126,-155
-46,-160,-94,105,33,-120,-14,-184,-140,-168,-126,-155
-46,-160,-94,105,33,-120,-20,-184,-140,-168,-126,-155
-46,-160,-94,105,33,-120,-20,-184,-140,-168,-126,-155
-46,-160,-94,105,33,-120,-20,-184,-140,-168,-126,-155
-46,-160,-94,105,33,-120,-20,-184,-140,-168,-126,-155
-46,-160,-94,105,33,-120,-20,-184,-140,-168,-126,-155
-46,-160,-94,105,33,-120,-20,-184,-140,-168,-126,-155
-46,-160,-94,105,33,-120,-20,-184,-140,-168,-126,-155
-46,-160,-94,105,33,-120,-20,-184,-140,-168,-126,-155
-46,-160,-94,105,33,-120,-20,-184,-140,-168,-126,-155
-46,-160,-94,105,33,-120,-20,-184,-140,-168,-126,-161
-46,-160,-94,105,33,-120,-20,-184,-140,-168,-126,-161
-46,-160,-94,105,33,-120,-20,-184,-140,-168,-126,-161
-46,-160,-94,105,33,-120,-20,-184,-140,-168,-126,-161
-46,-160,-94,105,33,-120,-20,-184,-140,-168,-126,-161
-46,-160,-94,105,33,-120,-20,-184,-140,-168,-126,-161
-46,-160,-94,105,33,-120,-20,-184,-140,-168,-126,-161
-46,-160,-94,105,33,-120,-20,-184,-140,-168,-126,-161
-46,-160,-94,105,33,-120,-20,-184,-140,-168,-126,-161
-46,-160,-94,105,33,-120,-26,-184,-140,-168,-126,-161
-46,-160,-94,105,33,-120,-26,-184,-140,-168,-126,-161
-46,-160,-94,105,33,-120,-26,-184,-140,-168,-126,-161
-46,-160,-94,105,33,-120,-26,-184,-140,-168,-126,-161
-46,-160,-94,105,33,-120,-26,-184,-140,-168,-126,-161
-46,-160,-94,105,33,-120,-26,-184,-140,-168,-126,-161
-46,-160,-94,105,33,-120,-26,-184,-140,-168,-126,-161
-46,-160,-94,105,33,-120,-26,-184,-140,-168,-126,-161
-46,-160,-94,105,33,-120,-26,-184,-140,-168,-126,-161
-46,-160,-94,105,33,-120,-32,-184,-140,-168,-126,-161
-46,-154,-94,105,33,-120,-32,-184,-140,-168,-126,-161
-46,-154,-94,105,33,-120,-32,-184,-140,-168,-126,-161
-46,-154,-94,105,33,-120,-32,-184,-140,-168,-126,-161
-46,-154,-94,105,33,-120,-32,-184,-140,-168,-126,-161
-46,-154,-94,105,33,-120,-38,-184,-140,-168,-126,-167
-46,-154,-94,105,33,-120,-38,-184,-140,-168,-126,-167
-46,-148,-94,105,33,-120,-38,-184,-140,-168,-126,-167
-46,-148,-94,105,33,-120,-38,-184,-140,-168,-126,-167
-46,-148,-94,105,33,-120,-38,-184,-140,-168,-126,-167
-46,-148,-94,105,33,-120,-44,-184,-140,-168,-126,-167
-46,-148,-94,105,33,-120,-50,-184,-140,-168,-126,-167
-46,-148,-94,105,33,-120,-56,-184,-140,-168,-126,-167
-46,-148,-94,105,33,-120,-56,-184,-140,-168,-126,-173
-46,-148,-94,105,33,-120,-56,-184,-140,-168,-126,-173
-46,-148,-94,105,33,-120,-56,-184,-140,-168,-126,-179
-46,-148,-94,105,33,-120,-56,-184,-140,-168,-126,-179
-46,-148,-94,105,33,-120,-56,-184,-140,-168,-126,-179
-46,-148,-94,105,33,-120,-56,-184,-140,-168,-126,-179
-46,-148,-94,105,33,-120,-56,-184,-140,-168,-126,-185
-46,-148,-94,105,33,-120,-56,-184,-140,-174,-126,-185
-46,-148,-94,105,33,-120,-56,-184,-146,-174,-126,-185
-46,-148,-94,105,33,-120,-56,-184,-152,-174,-126,-191
-46,-148,-94,105,33,-120,-56,-184,-152,-174,-126,-191
-46,-148,-94,105,33,-120,-56,-184,-152,-174,-126,-191
-46,-148,-94,105,33,-120,-56,-184,-152,-180,-126,-191
-46,-148,-94,105,33,-120,-56,-184,-152,-180,-126,-191
-46,-148,-94,105,33,-120,-62,-184,-158,-180,-132,-191
-46,-148,-94,105,33,-120,-62,-190,-158,-180,-138,-191
-46,-148,-94,105,33,-120,-62,-196,-158,-180,-138,-191
-46,-148,-94,105,33,-120,-62,-196,-158,-186,-138,-197
-46,-148,-94,105,33,-120,-62,-196,-164,-186,-144,-203
-46,-148,-94,105,33,-120,-62,-196,-164,-186,-144,-203
-46,-148,-94,105,33,-120,-68,-196,-164,-192,-144,-203
-46,-148,-94,105,33,-120,-68,-196,-164,-192,-144,-203
-46,-148,-94,105,33,-120,-68,-196,-164,-192,-144,-209
-46,-148,-94,105,33,-120,-68,-196,-164,-192,-150,-209
-46,-148,-94,105,33,-120,-68,-196,-164,-192,-150,-209
-46,-148,-94,105,33,-120,-68,-196,-164,-192,-150,-209
-46,-148,-94,105,33,-126,-68,-196,-170,-192,-150,-215
-46,-148,-94,105,33,-126,-68,-202,-176,-192,-150,-221
-46,-148,-94,105,33,-126,-68,-208,-176,-192,-150,-221
-46,-148,-94,105,33,-126,-68,-208,-176,-192,-150,-221
-46,-148,-94,105,33,-126,-68,-208,-176,-192,-156,-221
-46,-148,-94,105,33,-126,-68,-208,-176,-198,-156,-221
-46,-148,-94,105,33,-126,-68,-208,-176,-198,-156,-221
-46,-148,-94,105,33,-126,-68,-208,-176,-198,-156,-221
-46,-148,-94,105,33,-126,-74,-208,-176,-198,-156,-221
-46,-148,-94,105,33,-126,-74,-208,-176,-198,-156,-221
-46,-148,-94,105,33,-126,-74,-214,-176,-204,-156,-221
-46,-148,-94,105,33,-126,-80,-214,-176,-210,-156,-221
-46,-148,-94,105,33,-126,-80,-214,-176,-216,-162,-221
-46,-148,-94,105,33,-126,-80,-214,-182,-216,-162,-221
-46,-148,-94,105,33,-126,-80,-214,-182,-216,-168,-221
-46,-148,-94,105,33,-126,-80,-214,-182,-216,-168,-221
-46,-148,-94,105,33,-126,-86,-214,-182,-216,-168,-221
-46,-148,-94,105,33,-126,-86,-214,-182,-216,-174,-221
-46,-148,-94,105,33,-126,-86,-214,-188,-216,-180,-221
-46,-148,-94,105,33,-126,-86,-214,-188,-216,-180,-221
-46,-148,-94,105,33,-126,-86,-214,-188,-216,-180,-221
-46,-148,-94,105,33,-126,-86,-214,-188,-216,-180,-221
-46,-148,-94,105,33,-126,-86,-214,-188,-216,-180,-221
-46,-148,-94,105,33,-126,-86,-220,-188,-216,-180,-221
-46,-148,-94,105,33,-126,-86,-220,-188,-216,-180,-221
-46,-148,-94,105,33,-126,-86,-220,-188,-216,-180,-221
-46,-142,-94,105,33,-126,-86,-220,-188,-216,-180,-221
-46,-136,-94,99,33,-126,-86,-220,-188,-216,-180,-221
-46,-130,-94,93,33,-126,-86,-220,-188,-216,-180,-221
-46,-124,-94,93,33,-126,-80,-214,-188,-216,-180,-221
-40,-118,-94,93,33,-126,-74,-208,-188,-216,-180,-221
-34,-112,-94,87,33,-126,-68,-202,-182,-216,-174,-221
-28,-106,-94,81,33,-120,-62,-196,-176,-210,-174,-221
-28,-100,-94,75,33,-114,-62,-196,-176,-210,-174,-221
-22,-100,-94,75,33,-108,-62,-190,-176,-210,-174,-221
-22,-100,-94,69,33,-108,-56,-184,-170,-204,-168,-221
-22,-100,-94,69,39,-108,-56,-178,-164,-198,-162,-215
-16,-94,-94,63,39,-108,-56,-172,-164,-198,-156,-209
-10,-94,-94,63,45,-108,-56,-166,-164,-192,-156,-203
-10,-94,-94,63,45,-108,-56,-166,-164,-192,-150,-197
-10,-94,-94,63,45,-108,-56,-160,-164,-192,-150,-191
-4,-94,-94,57,51,-108,-56,-160,-164,-192,-144,-191
7,-94,-94,57,57,-108,-56,-154,-158,-186,-144,-185
13,-94,-100,51,63,-108,-56,-148,-152,-180,-144,-179
19,-94,-106,45,69,-108,-56,-148,-146,-180,-138,-179
25,-94,-112,45,75,-108,-56,-148,-146,-174,-138,-179
25,-88,-112,45,81,-108,-56,-148,-146,-174,-138,-179
25,-82,-112,39,81,-108,-56,-148,-146,-168,-132,-173
25,-82,-112,39,81,-108,-56,-148,-140,-168,-132,-173
25,-82,-112,39,81,-108,-56,-148,-140,-168,-132,-173
25,-82,-112,39,81,-108,-56,-148,-140,-168,-132,-173
25,-82,-112,39,81,-108,-62,-148,-140,-168,-132,-173
25,-82,-112,39,81,-108,-68,-148,-140,-174,-132,-173
25,-82,-112,39,81,-108,-80,-154,-146,-180,-138,-173
25,-82,-118,39,81,-114,-86,-160,-152,-186,-144,-179
25,-88,-124,39,81,-120,-92,-172,-164,-192,-150,-185
25,-100,-136,45,81,-126,-104,-184,-176,-198,-162,-197
25,-106,-142,51,81,-132,-116,-202,-188,-210,-174,-203
25,-112,-148,51,87,-138,-128,-214,-200,-222,-180,-209
25,-118,-154,57,93,-144,-134,-226,-212,-234,-186,-221
25,-118,-154,57,93,-150,-146,-238,-224,-246,-192,-227
25,-124,-160,57,99,-156,-152,-250,-236,-258,-198,-233
25,-124,-160,57,99,-156,-158,-256,-242,-264,-204,-239
25,-124,-160,57,99,-156,-158,-262,-248,-264,-210,-245
25,-124,-160,57,99,-156,-158,-262,-248,-264,-210,-245
25,-130,-160,57,99,-162,-158,-262,-248,-264,-210,-245
25,-136,-160,63,99,-162,-158,-262,-248,-270,-216,-245
25,-142,-160,69,99,-162,-158,-262,-248,-270,-216,-251
19,-142,-160,75,99,-162,-158,-262,-248,-270,-216,-251
7,-142,-160,81,93,-162,-158,-262,-248,-270,-216,-251
-4,-142,-154,87,87,-162,-152,-262,-248,-270,-216,-251
-16,-142,-148,93,81,-162,-146,-262,-248,-270,-216,-251
-28,-142,-142,99,75,-162,-140,-262,-248,-270,-216,-251
-34,-148,-136,105,69,-162,-140,-262,-248,-270,-216,-251
-40,-154,-136,105,63,-162,-140,-262,-248,-270,-216,-251
-46,-154,-130,111,57,-162,-140,-262,-248,-270,-216,-251
-46,-154,-130,111,51,-162,-140,-262,-248,-270,-222,-251
-46,-160,-130,111,51,-162,-140,-262,-248,-270,-222,-257
-46,-160,-130,111,51,-162,-140,-262,-248,-270,-228,-263
-46,-160,-124,111,51,-162,-140,-262,-248,-270,-228,-269
-46,-160,-124,111,51,-162,-140,-262,-254,-276,-228,-275
-46,-160,-118,111,51,-162,-140,-262,-254,-276,-228,-275
-46,-160,-118,111,51,-162,-140,-262,-254,-276,-228,-281
-46,-160,-118,111,45,-162,-140,-256,-254,-276,-228,-281
-46,-160,-112,111,39,-156,-134,-250,-248,-276,-228,-281
-52,-160,-106,111,27,-144,-128,-238,-242,-276,-228,-275
-58,-154,-94,111,15,-138,-122,-214,-230,-270,-222,-269
-64,-148,-82,111,9,-120,-110,-196,-212,-258,-210,-263
-70,-142,-58,111,3,-108,-98,-184,-200,-240,-198,-251
-76,-130,-46,111,-3,-96,-86,-160,-182,-216,-186,-239
-82,-118,-16,111,-8,-84,-74,-148,-164,-192,-162,-227
-88,-106,7,111,-20,-72,-56,-118,-146,-180,-150,-209
-100,-94,31,111,-38,-42,-32,-88,-116,-156,-126,-197
-106,-76,55,111,-62,-18,-14,-58,-86,-126,-102,-179
-118,-58,73,111,-92,11,15,-22,-44,-90,-78,-161
-130,-46,115,111,-122,41,45,25,3,-54,-42,-137
-142,-16,151,111,-146,65,69,73,45,-24,-12,-113
-154,7,175,111,-158,89,93,115,81,11,23,-89
-160,19,193,105,-170,101,117,157,117,47,53,-65
-166,31,217,99,-182,113,141,199,153,77,77,-53
-178,43,253,93,-194,131,165,229,183,107,107,-35
-190,61,283,87,-212,149,195,271,213,137,131,-17
-196,79,295,81,-230,173,225,313,249,167,161,1
-202,91,313,75,-242,197,267,373,291,209,191,30
-208,103,325,75,-254,209,309,445,363,251,215,54
-220,115,337,75,-278,221,357,517,417,287,245,72
-232,121,349,75,-290,227,405,577,447,317,257,84
-244,121,361,81,-302,233,453,625,477,341,269,90
-262,121,373,81,-308,239,501,685,507,353,281,90
-274,121,385,87,-314,245,561,727,525,359,281,84
-298,121,397,99,-332,245,609,769,537,359,281,78
-316,121,433,105,-362,251,669,817,555,371,281,72
-340,121,469,111,-386,263,717,877,591,389,287,72
-352,127,499,111,-416,293,771,937,645,419,299,72
-364,145,529,111,-440,323,807,997,711,461,335,84
-364,187,559,111,-458,365,849,1075,801,557,407,120
-364,241,583,87,-464,407,867,1165,891,653,497,192
-340,313,595,39,-464,449,879,1279,1017,785,629,294
-262,391,607,-44,-452,491,891,1441,1179,929,773,426
-178,463,613,-128,-410,521,903,1609,1359,1103,935,564
-82,541,613,-224,-356,551,909,1741,1527,1283,1109,702
13,619,613,-314,-302,581,909,1855,1665,1451,1283,864
127,727,613,-422,-260,623,897,1927,1827,1637,1493,1050
241,865,613,-548,-206,707,819,1987,2001,1853,1727,1260
337,991,619,-656,-164,779,747,2029,2204,2080,1967,1482
415,1075,625,-734,-134,833,693,2082,2402,2302,2194,1674
487,1129,625,-794,-92,863,621,2112,2551,2487,2386,1842
559,1159,613,-836,-32,869,537,2118,2671,2643,2553,1980
589,1171,601,-860,-3,869,501,2130,2779,2745,2655,2057
583,1183,607,-860,-3,881,495,2172,2887,2841,2727,2117
523,1189,703,-854,-68,923,495,2208,2995,2943,2805,2171
457,1189,745,-836,-122,941,495,2226,3055,2991,2841,2195
409,1123,739,-752,-128,911,489,2214,3055,2979,2823,2171
343,907,613,-614,-128,755,471,2011,2809,2697,2535,1944
253,697,481,-470,-128,581,429,1711,2390,2254,2116,1602
139,487,385,-296,-128,437,387,1327,1851,1733,1619,1224
7,295,331,-128,-134,311,291,871,1263,1175,1085,810
-130,145,301,9,-164,221,189,433,741,677,605,432
-208,49,283,93,-200,167,87,127,411,359,281,162
-250,1,271,141,-224,125,-20,-94,189,155,83,-17
-280,-40,259,171,-230,89,-98,-238,57,23,-48,-131
-292,-76,247,189,-230,59,-152,-310,-20,-54,-120,-209
-292,-106,205,195,-230,29,-194,-370,-80,-102,-150,-239
-286,-124,151,195,-218,5,-230,-448,-164,-168,-186,-269
-274,-136,97,195,-182,-24,-260,-496,-254,-246,-228,-299
-244,-148,43,195,-140,-54,-284,-514,-296,-288,-258,-311
-208,-160,-10,195,-98,-84,-296,-514,-320,-312,-276,-323
-172,-166,-40,189,-62,-96,-296,-490,-332,-324,-288,-329
-154,-166,-52,183,-44,-108,-290,-448,-338,-330,-294,-335
-142,-166,-58,171,-32,-114,-278,-406,-338,-330,-294,-335
-130,-166,-64,159,-20,-120,-254,-364,-338,-330,-294,-335
-112,-166,-76,153,-8,-126,-236,-334,-332,-330,-294,-335
-94,-166,-88,147,9,-132,-224,-310,-332,-330,-294,-335
-82,-166,-100,141,21,-144,-212,-298,-332,-330,-294,-335
-76,-172,-112,141,27,-150,-206,-286,-332,-330,-294,-335
-70,-178,-124,141,33,-156,-194,-280,-332,-330,-294,-341
-70,-184,-136,141,39,-162,-194,-274,-332,-330,-294,-341
-70,-190,-148,141,39,-168,-194,-274,-332,-330,-294,-341
-70,-190,-154,141,45,-174,-194,-268,-332,-330,-294,-341
-64,-190,-160,141,51,-180,-194,-268,-332,-330,-294,-341
-58,-190,-160,141,57,-186,-194,-268,-332,-336,-300,-347
-52,-190,-166,141,63,-186,-194,-268,-332,-342,-306,-347
-46,-190,-172,141,69,-186,-194,-268,-332,-348,-312,-347
-40,-190,-172,141,69,-192,-194,-268,-332,-348,-312,-353
-40,-196,-172,141,75,-192,-194,-262,-332,-354,-312,-353
-40,-196,-172,141,75,-192,-194,-262,-332,-354,-318,-353
-40,-196,-178,141,81,-192,-194,-262,-332,-354,-318,-353
-40,-196,-184,141,81,-198,-194,-256,-332,-354,-318,-353
-34,-202,-190,141,87,-204,-194,-250,-332,-354,-318,-353
-34,-202,-196,141,87,-204,-194,-250,-332,-354,-318,-353
-28,-202,-202,141,93,-210,-194,-244,-332,-354,-318,-353
-28,-202,-202,141,93,-210,-194,-244,-332,-354,-318,-353
-28,-202,-202,141,93,-210,-194,-244,-332,-354,-318,-353
-28,-202,-208,141,93,-216,-194,-244,-332,-354,-318,-353
-22,-202,-208,135,93,-216,-194,-238,-332,-348,-318,-353
-16,-202,-208,129,99,-216,-194,-232,-332,-348,-318,-353
-16,-202,-208,129,99,-216,-194,-232,-332,-348,-318,-353
-16,-202,-214,129,99,-216,-194,-232,-332,-348,-318,-353
-10,-202,-220,123,105,-216,-194,-226,-332,-348,-318,-353
-10,-202,-220,123,111,-216,-194,-226,-332,-348,-318,-353
-10,-202,-220,123,111,-216,-194,-220,-332,-348,-318,-353
-4,-202,-220,123,111,-222,-194,-220,-332,-348,-318,-353
1,-202,-226,123,117,-222,-194,-214,-332,-348,-318,-353
7,-202,-232,123,123,-222,-194,-214,-332,-348,-318,-353
7,-202,-238,123,129,-222,-194,-214,-332,-348,-318,-359
7,-202,-238,123,129,-228,-194,-214,-332,-348,-318,-359
7,-202,-244,123,129,-234,-194,-214,-332,-348,-318,-359
13,-202,-244,117,135,-234,-194,-208,-332,-348,-318,-359
19,-202,-244,111,135,-234,-194,-208,-326,-348,-318,-359
25,-202,-244,111,141,-234,-194,-208,-326,-348,-318,-359
25,-202,-244,111,141,-234,-194,-202,-326,-348,-318,-359
31,-202,-250,105,147,-234,-194,-202,-326,-348,-318,-359
37,-202,-256,105,153,-234,-200,-202,-326,-348,-318,-359
37,-202,-256,105,153,-234,-200,-196,-326,-342,-318,-359
37,-202,-256,105,153,-234,-206,-196,-326,-342,-318,-359
43,-202,-256,105,159,-234,-206,-196,-326,-342,-318,-359
43,-202,-262,99,165,-234,-212,-190,-326,-342,-318,-359
49,-202,-268,93,165,-234,-218,-190,-326,-342,-318,-359
55,-202,-274,87,165,-234,-218,-184,-326,-342,-318,-359
55,-202,-274,87,165,-234,-224,-184,-326,-342,-318,-359
61,-202,-274,81,165,-234,-230,-178,-326,-342,-318,-359
67,-202,-274,81,171,-234,-230,-178,-326,-342,-318,-359
73,-202,-274,75,177,-234,-230,-178,-326,-342,-318,-359
79,-202,-280,75,183,-234,-230,-172,-326,-336,-312,-359
85,-202,-280,69,189,-234,-236,-172,-326,-330,-306,-359
91,-202,-286,63,195,-234,-242,-166,-326,-324,-300,-359
97,-202,-292,63,201,-234,-248,-160,-326,-324,-300,-359
103,-202,-298,57,207,-234,-248,-154,-320,-324,-300,-359
109,-202,-304,51,213,-240,-248,-148,-320,-324,-300,-359
109,-202,-310,51,213,-240,-248,-142,-314,-324,-300,-359
115,-202,-316,51,219,-246,-248,-136,-314,-324,-300,-359
121,-202,-322,51,225,-246,-248,-130,-314,-318,-300,-359
127,-202,-322,51,231,-246,-248,-118,-308,-312,-294,-353
133,-202,-328,45,237,-252,-248,-112,-308,-306,-288,-347
139,-202,-334,39,243,-258,-248,-106,-308,-300,-282,-341
145,-202,-346,33,249,-258,-248,-100,-302,-300,-276,-329
157,-202,-352,27,261,-258,-248,-94,-296,-300,-270,-329
169,-202,-364,21,267,-264,-248,-88,-296,-294,-264,-323
181,-196,-370,15,273,-270,-248,-82,-296,-288,-258,-317
187,-190,-376,9,285,-270,-248,-76,-290,-276,-252,-311
199,-184,-382,3,291,-270,-248,-64,-284,-270,-246,-305
211,-178,-382,-3,297,-270,-248,-52,-278,-264,-240,-299
217,-178,-382,-8,303,-270,-248,-40,-272,-258,-240,-299
223,-172,-382,-14,309,-270,-248,-28,-266,-252,-240,-293
223,-166,-382,-14,309,-270,-248,-22,-254,-240,-234,-281
223,-160,-382,-20,309,-264,-248,-10,-248,-234,-222,-269
229,-148,-382,-32,309,-258,-248,2,-242,-222,-210,-263
229,-136,-382,-38,309,-252,-248,13,-230,-216,-198,-257
235,-130,-382,-44,309,-252,-248,19,-218,-210,-186,-251
235,-124,-382,-50,309,-252,-248,31,-206,-198,-180,-245
235,-118,-376,-50,309,-246,-248,43,-200,-186,-174,-239
235,-118,-370,-56,309,-246,-242,55,-188,-174,-168,-233
235,-112,-364,-62,309,-240,-236,67,-182,-162,-162,-227
235,-106,-358,-62,309,-228,-230,79,-170,-150,-156,-221
235,-100,-346,-62,309,-216,-224,85,-158,-138,-144,-215
235,-94,-334,-62,303,-210,-218,97,-146,-132,-132,-203
235,-88,-328,-62,297,-204,-212,103,-134,-126,-120,-191
235,-82,-322,-62,291,-198,-200,115,-122,-114,-108,-179
235,-76,-316,-62,285,-186,-188,127,-110,-96,-84,-167
229,-70,-298,-62,273,-180,-176,139,-98,-78,-72,-155
223,-64,-286,-62,261,-174,-170,151,-92,-66,-66,-143
217,-58,-268,-62,249,-162,-164,157,-80,-54,-60,-137
211,-52,-250,-62,237,-150,-158,163,-74,-48,-54,-131
205,-46,-238,-62,225,-138,-146,169,-68,-42,-48,-131
193,-40,-226,-62,213,-126,-134,169,-56,-36,-48,-125
181,-34,-214,-62,201,-114,-128,169,-50,-30,-48,-125
169,-34,-202,-62,189,-108,-122,169,-44,-24,-48,-125
157,-28,-184,-62,177,-102,-116,169,-38,-18,-42,-125
151,-22,-172,-62,165,-96,-110,169,-32,-18,-42,-125
145,-22,-160,-62,153,-90,-104,169,-32,-18,-42,-125
133,-22,-148,-62,141,-90,-104,169,-32,-18,-42,-125
121,-22,-136,-56,129,-84,-98,163,-32,-18,-42,-125
115,-22,-130,-50,123,-84,-92,157,-32,-18,-42,-125
103,-22,-124,-44,117,-78,-92,151,-32,-18,-42,-125
91,-22,-124,-38,111,-78,-92,139,-32,-18,-42,-131
85,-22,-124,-32,105,-78,-92,127,-32,-18,-48,-137
79,-22,-124,-26,105,-78,-92,115,-38,-24,-54,-143
67,-22,-118,-20,99,-78,-92,103,-44,-30,-66,-149
61,-28,-112,-20,93,-78,-92,85,-50,-36,-78,-155
55,-34,-112,-14,87,-78,-92,67,-62,-42,-84,-167
49,-40,-112,-8,81,-78,-92,49,-74,-48,-96,-179
43,-46,-112,-3,75,-78,-92,31,-80,-54,-102,-191
31,-52,-106,3,69,-78,-92,19,-86,-60,-108,-197
25,-52,-100,9,63,-78,-92,7,-92,-66,-114,-209
19,-52,-100,15,63,-78,-92,2,-104,-72,-126,-221
13,-52,-100,21,57,-78,-92,-10,-116,-84,-138,-233
7,-58,-100,27,57,-78,-92,-28,-128,-96,-150,-239
1,-64,-100,27,57,-78,-92,-40,-140,-108,-162,-245
1,-70,-100,27,57,-78,-92,-52,-152,-114,-174,-251
1,-76,-100,33,57,-78,-92,-58,-158,-120,-180,-257
-4,-82,-100,39,57,-84,-98,-70,-164,-126,-186,-263
-10,-88,-100,51,57,-90,-98,-76,-164,-132,-192,-269
-16,-94,-100,57,57,-90,-104,-82,-170,-138,-192,-275
-22,-100,-100,63,57,-90,-110,-88,-176,-138,-192,-275
-22,-106,-100,69,51,-90,-116,-94,-176,-138,-198,-275
-22,-106,-100,69,51,-90,-116,-100,-182,-144,-210,-281
-28,-112,-100,69,51,-96,-116,-106,-188,-156,-222,-287
-28,-112,-100,69,51,-96,-122,-112,-194,-162,-228,-287
-28,-112,-100,69,45,-96,-122,-118,-200,-168,-228,-287
-28,-112,-100,69,45,-96,-122,-124,-200,-168,-234,-293
-28,-118,-100,75,45,-96,-128,-124,-200,-168,-240,-299
-28,-118,-100,75,39,-96,-128,-124,-206,-174,-240,-305
-28,-118,-100,75,39,-96,-128,-124,-206,-174,-240,-305
-28,-118,-100,75,39,-96,-128,-130,-212,-174,-240,-305
-28,-118,-100,75,39,-96,-128,-130,-218,-174,-240,-305
-28,-118,-100,75,39,-96,-128,-130,-218,-174,-240,-311
-28,-118,-100,75,39,-102,-128,-130,-218,-174,-246,-311
-28,-118,-100,75,39,-102,-128,-130,-218,-174,-252,-311
-28,-118,-100,75,39,-102,-128,-130,-218,-174,-252,-311
-28,-118,-100,75,39,-102,-134,-130,-218,-174,-252,-317
-28,-118,-100,81,39,-102,-134,-130,-218,-180,-258,-317
-28,-124,-100,81,39,-102,-134,-130,-218,-180,-258,-317
-34,-124,-100,81,39,-102,-134,-130,-218,-180,-258,-317
-34,-124,-100,81,39,-102,-134,-130,-218,-180,-258,-317
-34,-124,-100,81,39,-102,-134,-130,-218,-180,-258,-317
-34,-124,-100,81,39,-102,-134,-130,-218,-180,-258,-317
-34,-124,-100,81,39,-102,-134,-130,-218,-180,-258,-317
-40,-124,-100,81,39,-102,-134,-130,-218,-180,-258,-317
-40,-124,-100,81,39,-102,-134,-130,-218,-180,-258,-317
-40,-124,-100,81,39,-102,-134,-130,-218,-180,-258,-317
-40,-124,-100,81,39,-102,-134,-130,-218,-180,-258,-317
-40,-124,-100,81,39,-102,-140,-130,-218,-180,-258,-317
-40,-124,-100,81,39,-102,-140,-130,-218,-180,-258,-317
-40,-124,-100,81,39,-102,-140,-130,-218,-180,-258,-317
-40,-124,-100,81,39,-102,-140,-130,-218,-180,-258,-317
-40,-124,-100,81,39,-102,-146,-130,-218,-180,-258,-317
-40,-124,-100,81,39,-102,-146,-130,-218,-180,-258,-317
-40,-124,-100,81,39,-102,-146,-130,-218,-180,-258,-311
-40,-124,-100,81,39,-102,-146,-130,-218,-180,-258,-311
-40,-124,-94,81,39,-102,-146,-130,-218,-180,-258,-311
-40,-124,-94,81,39,-102,-146,-130,-218,-180,-258,-311
-40,-124,-94,81,39,-102,-146,-130,-218,-180,-258,-305
-40,-124,-94,81,39,-102,-146,-130,-218,-174,-252,-299
-40,-124,-94,81,39,-102,-146,-130,-218,-168,-252,-299
-40,-124,-94,81,39,-102,-146,-130,-218,-168,-252,-299
-40,-124,-94,81,39,-102,-146,-130,-218,-168,-252,-299
-40,-124,-94,81,39,-102,-146,-130,-218,-168,-252,-299
-40,-124,-94,81,39,-102,-146,-130,-218,-168,-252,-299
-40,-124,-94,81,39,-102,-146,-130,-218,-168,-252,-299
-40,-124,-94,81,39,-102,-146,-130,-218,-168,-252,-299
-40,-124,-94,81,39,-102,-146,-130,-218,-168,-252,-299
-40,-124,-94,81,39,-102,-146,-130,-218,-168,-252,-299
-40,-124,-94,81,39,-102,-146,-130,-218,-168,-252,-299
-40,-124,-94,81,39,-102,-146,-130,-218,-168,-252,-299
-40,-124,-94,81,39,-102,-146,-130,-218,-168,-252,-299
-40,-124,-94,81,39,-102,-146,-130,-218,-168,-252,-299
-40,-124,-94,81,39,-102,-146,-130,-218,-168,-252,-299
-40,-124,-94,81,39,-102,-146,-130,-218,-168,-252,-299
-40,-124,-94,81,39,-102,-146,-130,-218,-168,-252,-299
-40,-124,-94,81,39,-102,-146,-130,-218,-162,-252,-299
-40,-124,-94,81,39,-102,-146,-130,-218,-162,-252,-299
-40,-124,-94,81,39,-102,-146,-130,-218,-162,-252,-299
-40,-124,-94,81,39,-102,-146,-130,-218,-162,-252,-299
-40,-124,-94,81,39,-102,-146,-130,-218,-162,-252,-299
-40,-124,-94,81,39,-102,-146,-130,-218,-162,-252,-293
-40,-124,-94,81,39,-102,-146,-130,-218,-162,-252,-293
-40,-124,-94,81,39,-102,-146,-130,-218,-162,-252,-293
-40,-124,-94,81,39,-102,-146,-130,-218,-162,-252,-293
-40,-124,-94,81,39,-102,-146,-130,-218,-162,-252,-293
-40,-124,-94,81,39,-102,-146,-130,-218,-162,-252,-293
-40,-124,-94,81,39,-102,-146,-130,-218,-162,-252,-293
-40,-124,-94,81,39,-102,-146,-130,-218,-162,-252,-293
-40,-124,-94,81,39,-102,-146,-130,-224,-162,-252,-293
-40,-124,-94,81,39,-102,-146,-136,-224,-162,-252,-293
-40,-124,-94,81,39,-102,-146,-136,-230,-162,-252,-293
-40,-124,-94,81,39,-102,-152,-136,-230,-162,-252,-293
-40,-124,-94,81,39,-102,-152,-136,-230,-162,-252,-293
-40,-124,-94,81,39,-102,-158,-136,-230,-162,-252,-293
-40,-124,-94,81,39,-102,-158,-142,-230,-162,-252,-293
-40,-124,-94,81,39,-102,-158,-142,-230,-162,-252,-293
-40,-124,-94,81,39,-102,-158,-142,-230,-162,-252,-293
-40,-124,-94,81,39,-102,-158,-142,-230,-162,-252,-293
-40,-124,-94,81,39,-102,-158,-142,-230,-162,-252,-293
-40,-124,-94,81,39,-102,-158,-142,-230,-162,-252,-293
-40,-124,-94,81,39,-102,-164,-148,-230,-162,-258,-293
-40,-124,-94,81,39,-102,-170,-154,-236,-162,-264,-293
-40,-124,-94,81,39,-102,-170,-160,-236,-168,-264,-293
-40,-124,-94,81,39,-102,-170,-160,-236,-174,-264,-293
-40,-124,-94,81,39,-102,-170,-160,-242,-174,-264,-293
-40,-124,-94,81,39,-102,-170,-166,-242,-174,-264,-293
-40,-124,-94,75,39,-102,-176,-166,-242,-174,-264,-293
-40,-124,-94,75,39,-102,-176,-166,-242,-174,-264,-293
-40,-124,-94,75,39,-102,-176,-166,-242,-174,-264,-293
-40,-124,-94,75,39,-102,-176,-166,-242,-174,-264,-293
-40,-124,-94,75,39,-102,-176,-166,-242,-174,-264,-293
-40,-124,-94,75,39,-102,-176,-172,-242,-174,-264,-293
-40,-124,-94,75,39,-102,-176,-172,-242,-174,-264,-293
-40,-124,-94,75,39,-102,-176,-172,-242,-174,-264,-293
-40,-124,-94,75,39,-102,-176,-172,-242,-174,-264,-293
-40,-124,-94,75,39,-102,-176,-172,-242,-174,-264,-293
-40,-124,-94,75,39,-102,-176,-178,-248,-174,-264,-293
-40,-124,-94,75,39,-102,-176,-178,-248,-174,-264,-293
-40,-124,-94,75,39,-102,-176,-178,-248,-174,-264,-293
-40,-124,-94,75,39,-102,-176,-178,-248,-174,-264,-293
-40,-124,-94,75,39,-102,-176,-178,-254,-174,-264,-293
-40,-124,-94,75,39,-102,-176,-184,-260,-174,-270,-293
-40,-124,-94,75,39,-102,-182,-190,-260,-174,-270,-293
-40,-124,-94,75,39,-102,-182,-190,-260,-174,-270,-293
-40,-124,-94,75,39,-102,-182,-190,-260,-174,-270,-293
-40,-124,-94,75,39,-102,-182,-190,-260,-174,-270,-293
-40,-124,-94,75,39,-102,-182,-190,-260,-174,-270,-293
-40,-124,-94,75,39,-102,-182,-190,-260,-174,-270,-293
-40,-124,-94,75,39,-102,-182,-190,-260,-174,-270,-293
-40,-124,-94,75,39,-102,-182,-190,-260,-174,-270,-293
-40,-124,-94,75,39,-102,-182,-190,-260,-174,-270,-293
-40,-124,-88,75,39,-102,-182,-190,-260,-174,-270,-293
-40,-124,-88,75,39,-102,-182,-190,-260,-174,-270,-293
-40,-124,-88,75,39,-102,-182,-190,-260,-174,-270,-293
-40,-118,-88,69,39,-96,-182,-190,-260,-174,-270,-293
-40,-112,-82,69,39,-90,-176,-184,-260,-174,-270,-293
-40,-106,-82,63,39,-90,-170,-178,-254,-168,-270,-293
-34,-100,-82,51,39,-84,-170,-172,-254,-168,-270,-293
-28,-94,-82,45,39,-78,-170,-172,-254,-162,-270,-293
-28,-88,-76,39,39,-72,-170,-166,-248,-156,-270,-293
-28,-82,-70,33,39,-66,-170,-166,-242,-156,-270,-293
-28,-82,-64,33,39,-66,-164,-160,-236,-156,-264,-287
-22,-76,-64,33,39,-66,-164,-160,-236,-156,-264,-281
-16,-76,-64,33,39,-66,-164,-160,-236,-150,-258,-281
-16,-76,-64,33,39,-66,-164,-160,-230,-150,-258,-281
-16,-76,-64,33,39,-66,-164,-154,-230,-150,-258,-281
-10,-76,-64,33,39,-66,-164,-154,-230,-150,-258,-281
-4,-70,-64,27,39,-66,-164,-148,-224,-144,-252,-275
7,-70,-64,21,45,-66,-164,-142,-218,-138,-246,-269
13,-64,-64,15,51,-66,-164,-136,-218,-132,-246,-263
19,-64,-70,15,57,-66,-164,-130,-218,-126,-246,-257
25,-64,-70,9,57,-66,-158,-130,-212,-126,-240,-257
25,-58,-70,9,57,-66,-152,-124,-206,-126,-234,-251
25,-58,-70,3,57,-66,-152,-118,-200,-126,-234,-245
25,-58,-70,3,57,-66,-152,-118,-200,-120,-234,-239
25,-58,-70,3,57,-66,-152,-118,-200,-120,-234,-239
25,-58,-70,3,57,-66,-158,-124,-200,-120,-234,-239
25,-58,-70,3,57,-66,-164,-130,-200,-120,-234,-239
25,-58,-70,3,57,-66,-170,-136,-206,-120,-234,-239
25,-58,-76,3,63,-66,-176,-142,-212,-126,-234,-239
25,-64,-82,3,69,-72,-182,-148,-218,-132,-234,-239
25,-76,-94,9,69,-78,-194,-154,-224,-144,-246,-245
25,-82,-106,15,69,-84,-206,-166,-236,-162,-258,-251
25,-88,-112,15,69,-90,-218,-184,-248,-174,-270,-257
25,-88,-118,15,69,-96,-230,-208,-260,-186,-282,-269
25,-94,-124,21,75,-102,-236,-226,-272,-192,-288,-275
25,-100,-130,21,75,-108,-242,-238,-290,-198,-294,-281
25,-100,-130,21,75,-114,-242,-244,-296,-204,-300,-281
25,-100,-130,21,75,-114,-248,-250,-302,-204,-300,-281
25,-100,-130,27,75,-114,-248,-250,-308,-210,-300,-287
25,-106,-130,33,75,-114,-248,-250,-308,-210,-300,-293
19,-106,-130,39,75,-114,-248,-256,-308,-210,-306,-293
13,-106,-130,45,69,-114,-248,-256,-308,-210,-312,-293
1,-112,-124,45,69,-114,-248,-256,-308,-210,-312,-293
-10,-112,-118,51,63,-114,-248,-256,-308,-210,-318,-293
-22,-112,-112,51,51,-114,-242,-256,-308,-210,-318,-293
-28,-112,-106,57,45,-114,-236,-256,-308,-210,-318,-293
-34,-112,-100,63,39,-114,-236,-256,-308,-210,-318,-293
-34,-112,-94,63,33,-108,-236,-256,-308,-210,-318,-299
-34,-112,-82,63,27,-102,-236,-256,-308,-210,-318,-299
-40,-112,-76,63,21,-96,-236,-256,-308,-210,-318,-299
-40,-112,-70,63,15,-96,-236,-256,-308,-210,-318,-299
-40,-112,-70,63,15,-96,-236,-256,-308,-210,-318,-299
-46,-112,-70,69,15,-96,-236,-256,-308,-210,-318,-299
-46,-112,-70,69,15,-96,-236,-256,-308,-210,-318,-299
-46,-112,-70,69,15,-96,-236,-256,-308,-210,-318,-299
-46,-112,-70,69,15,-96,-236,-256,-308,-210,-318,-299
-52,-112,-70,69,15,-96,-230,-256,-308,-210,-318,-299
-58,-118,-70,69,15,-96,-230,-256,-308,-210,-318,-299
-58,-118,-64,69,15,-96,-224,-244,-302,-210,-318,-299
-64,-118,-58,69,9,-90,-212,-232,-290,-204,-312,-299
-70,-118,-46,69,-3,-84,-200,-202,-272,-192,-300,-293
-70,-118,-28,69,-14,-72,-176,-178,-254,-162,-282,-281
-70,-112,-16,69,-26,-60,-164,-154,-224,-138,-252,-263
-76,-100,1,69,-38,-48,-152,-130,-194,-114,-228,-239
-76,-88,25,69,-50,-30,-140,-112,-164,-90,-210,-221
-82,-58,49,69,-62,-6,-128,-94,-146,-72,-186,-209
-94,-34,79,63,-80,17,-110,-76,-134,-54,-174,-197
-106,-16,109,57,-104,47,-92,-52,-110,-30,-156,-185
-118,-4,151,51,-122,77,-68,-10,-68,0,-126,-155
-130,13,187,51,-146,107,-38,37,-26,41,-96,-131
-142,37,217,51,-176,137,3,97,21,83,-66,-107
-154,55,247,51,-194,161,33,145,69,125,-24,-83
-160,67,265,51,-212,173,63,181,117,161,5,-53
-166,79,289,45,-224,185,93,229,159,197,35,-23
-172,97,301,39,-236,203,117,271,201,233,71,-5
-178,115,313,33,-248,215,141,319,249,275,107,24
-184,139,343,27,-260,239,165,361,291,305,143,48
-184,151,361,21,-272,269,195,415,327,347,173,72
-190,169,385,15,-278,287,237,481,381,389,209,102
-196,181,403,9,-290,305,273,541,435,431,239,120
-202,193,415,9,-302,317,315,613,477,455,257,132
-208,199,427,9,-308,323,369,673,507,479,269,138
-220,199,439,9,-320,329,429,715,543,491,281,138
-232,199,451,9,-332,335,483,763,567,503,287,138
-244,199,463,9,-344,335,543,811,597,515,293,138
-268,199,475,15,-374,341,603,865,633,527,293,138
-286,199,499,21,-404,353,663,925,651,539,293,138
-304,205,529,27,-428,365,717,967,687,569,299,138
-316,211,559,33,-440,377,765,1033,729,599,311,144
-328,223,589,33,-452,401,801,1093,789,659,359,162
-328,259,613,33,-464,437,831,1165,867,743,443,222
-328,307,643,15,-470,479,861,1261,969,857,557,300
-304,391,655,-44,-470,521,885,1375,1119,983,677,408
-238,481,667,-128,-464,569,897,1537,1287,1145,839,540
-154,565,679,-218,-440,611,903,1687,1473,1337,1013,678
-70,649,685,-308,-410,659,903,1813,1641,1511,1187,840
7,727,691,-392,-380,701,897,1903,1779,1673,1367,984
115,829,697,-494,-338,755,867,1957,1929,1859,1577,1194
235,943,703,-602,-284,815,789,2023,2108,2080,1817,1410
319,1051,709,-686,-230,863,723,2094,2300,2320,2056,1626
391,1111,715,-758,-188,905,681,2148,2491,2541,2290,1818
457,1159,715,-818,-134,923,621,2178,2659,2727,2487,1992
505,1201,709,-860,-92,935,543,2178,2785,2871,2655,2129
511,1207,709,-866,-92,941,513,2178,2887,2991,2763,2213
487,1207,721,-860,-116,953,507,2178,2989,3081,2841,2255
433,1207,763,-836,-164,977,501,2178,3067,3153,2883,2303
391,1189,769,-806,-194,977,489,2172,3097,3177,2901,2309
361,1075,751,-734,-194,923,459,2100,3079,3141,2853,2273
307,871,625,-602,-188,755,429,1873,2779,2811,2523,2010
205,685,535,-446,-182,611,399,1567,2342,2350,2074,1656
85,511,487,-302,-182,503,387,1231,1857,1847,1565,1254
-58,349,457,-146,-206,407,351,841,1299,1289,1031,828
-184,211,439,-14,-248,329,273,445,795,803,563,450
-262,115,409,63,-278,257,159,157,465,491,251,174
-304,49,379,105,-296,215,39,-58,255,287,35,-5
-316,1,337,141,-302,179,-62,-214,117,143,-108,-137
-316,-28,307,153,-302,149,-158,-322,21,65,-174,-197
-316,-46,277,159,-296,119,-230,-406,-62,17,-210,-221
-310,-58,235,159,-284,95,-272,-472,-152,-54,-228,-233
-298,-76,193,159,-248,65,-302,-526,-254,-132,-264,-257
-268,-100,151,159,-212,35,-332,-562,-326,-192,-306,-287
-238,-112,109,159,-170,5,-350,-568,-362,-234,-330,-299
-208,-118,67,159,-128,-24,-356,-568,-380,-252,-342,-311
-178,-124,31,159,-92,-42,-356,-550,-392,-270,-354,-323
-154,-124,7,147,-74,-48,-356,-520,-398,-282,-366,-329
-130,-124,-5,135,-62,-54,-350,-478,-398,-288,-366,-329
-118,-124,-16,123,-56,-60,-338,-436,-398,-288,-366,-329
-112,-124,-22,117,-50,-66,-326,-394,-386,-288,-366,-329
-100,-124,-34,111,-38,-72,-302,-364,-380,-288,-366,-329
-88,-124,-46,105,-26,-78,-284,-334,-374,-282,-366,-329
-76,-130,-58,105,-14,-90,-272,-322,-368,-282,-366,-329
-70,-136,-64,105,-3,-96,-260,-310,-362,-276,-366,-329
-64,-142,-70,105,3,-102,-260,-304,-362,-276,-366,-329
-58,-142,-76,105,9,-108,-260,-304,-362,-276,-366,-329
-58,-142,-88,105,15,-114,-260,-304,-362,-276,-366,-329
-52,-142,-100,105,21,-114,-260,-304,-362,-276,-366,-329
-46,-142,-106,105,27,-120,-260,-304,-362,-276,-366,-329
-46,-142,-112,105,27,-126,-260,-304,-362,-276,-366,-329
-46,-142,-112,105,33,-126,-260,-298,-362,-276,-366,-329
-46,-148,-118,105,39,-126,-260,-298,-362,-276,-366,-329
-46,-148,-118,105,39,-126,-260,-298,-362,-276,-366,-329
-46,-148,-118,105,39,-126,-260,-298,-362,-276,-366,-335
-40,-148,-118,99,39,-126,-260,-292,-362,-276,-366,-335
-40,-148,-118,99,45,-126,-260,-292,-362,-276,-366,-335
-34,-148,-124,99,45,-126,-260,-292,-362,-276,-366,-335
-28,-148,-130,93,51,-126,-260,-286,-362,-276,-366,-335
-22,-148,-136,93,51,-126,-260,-286,-362,-276,-366,-335
-22,-148,-136,93,51,-126,-260,-286,-362,-276,-366,-329
-22,-148,-136,93,57,-126,-260,-280,-362,-276,-366,-329
-16,-148,-136,87,57,-126,-260,-280,-362,-276,-366,-323
-16,-148,-142,81,63,-126,-260,-280,-362,-276,-366,-323
-10,-148,-142,81,63,-126,-260,-280,-362,-276,-360,-323
-4,-148,-142,75,69,-132,-260,-280,-362,-270,-360,-317
-4,-148,-142,75,69,-132,-260,-274,-362,-270,-360,-311
-4,-148,-142,75,69,-132,-260,-268,-362,-270,-360,-311
1,-148,-142,75,69,-132,-260,-268,-362,-270,-360,-311
7,-148,-142,69,69,-132,-260,-268,-356,-270,-360,-311
7,-148,-148,63,75,-138,-260,-268,-356,-270,-360,-311
7,-148,-154,63,75,-138,-260,-262,-350,-270,-360,-311
13,-148,-160,63,81,-138,-260,-262,-350,-270,-360,-311
13,-148,-160,63,87,-138,-260,-262,-350,-270,-360,-311
13,-148,-160,63,87,-138,-260,-262,-350,-270,-360,-311
19,-148,-160,63,87,-138,-260,-262,-350,-270,-360,-311
25,-148,-166,57,87,-138,-260,-262,-350,-270,-360,-311
25,-148,-166,57,93,-138,-260,-256,-350,-270,-360,-311
25,-148,-172,57,93,-138,-260,-256,-350,-270,-360,-311
31,-148,-172,57,93,-138,-266,-256,-344,-270,-360,-311
31,-148,-178,51,99,-138,-272,-256,-344,-270,-360,-311
31,-148,-178,51,99,-138,-278,-256,-338,-270,-360,-311
37,-148,-184,45,105,-144,-278,-250,-332,-270,-360,-311
43,-148,-184,45,111,-144,-284,-250,-332,-270,-354,-311
49,-148,-190,39,117,-144,-284,-250,-332,-270,-348,-311
55,-148,-190,39,123,-144,-284,-250,-332,-270,-348,-305
55,-148,-196,39,129,-150,-284,-250,-326,-270,-342,-305
61,-148,-202,39,129,-156,-284,-244,-320,-270,-342,-299
67,-148,-208,33,129,-156,-290,-238,-320,-270,-336,-293
73,-148,-208,27,135,-156,-290,-238,-314,-270,-336,-293
79,-148,-214,21,141,-156,-296,-238,-314,-270,-336,-293
85,-148,-214,15,141,-162,-296,-238,-314,-270,-336,-287
91,-148,-220,15,147,-162,-302,-238,-314,-264,-330,-281
91,-148,-220,15,153,-168,-302,-232,-314,-264,-330,-281
91,-148,-226,15,159,-168,-308,-232,-314,-264,-330,-281
97,-148,-232,15,165,-174,-308,-232,-314,-264,-330,-281
109,-148,-238,9,171,-174,-308,-226,-314,-264,-324,-275
115,-148,-244,3,177,-174,-314,-220,-314,-258,-324,-275
121,-142,-244,-3,183,-174,-314,-220,-314,-258,-324,-269
127,-142,-250,-8,189,-174,-314,-214,-314,-258,-318,-263
133,-142,-256,-8,195,-174,-320,-214,-314,-258,-312,-257
139,-142,-262,-8,201,-174,-326,-208,-314,-252,-306,-251
145,-142,-262,-14,201,-174,-326,-202,-308,-246,-306,-245
151,-136,-262,-20,207,-174,-326,-196,-302,-240,-300,-239
157,-136,-268,-26,213,-174,-326,-190,-296,-234,-294,-227
163,-136,-274,-32,219,-174,-326,-184,-290,-234,-288,-221
169,-130,-280,-38,225,-174,-332,-178,-290,-228,-282,-215
175,-124,-280,-38,225,-174,-332,-172,-284,-222,-282,-215
181,-118,-280,-44,225,-174,-332,-166,-278,-216,-276,-209
181,-112,-286,-44,225,-174,-332,-154,-272,-216,-270,-203
187,-106,-286,-50,225,-174,-332,-148,-266,-210,-264,-197
187,-106,-286,-56,225,-174,-332,-142,-266,-198,-252,-185
193,-100,-286,-56,225,-174,-332,-136,-260,-186,-240,-173
199,-94,-286,-62,225,-174,-332,-124,-248,-174,-228,-161
205,-88,-286,-68,225,-168,-332,-112,-236,-162,-216,-149
205,-82,-286,-74,225,-162,-332,-100,-230,-156,-204,-137
205,-70,-286,-80,225,-156,-332,-88,-218,-144,-198,-131
205,-64,-280,-80,225,-156,-332,-82,-206,-138,-192,-125
205,-58,-274,-86,225,-156,-332,-70,-200,-132,-186,-119
205,-52,-268,-86,225,-150,-326,-58,-188,-126,-180,-107
205,-52,-262,-86,225,-144,-320,-46,-176,-114,-168,-101
205,-52,-256,-86,219,-138,-314,-40,-164,-102,-156,-95
205,-46,-244,-86,213,-132,-308,-34,-158,-90,-150,-83
205,-34,-232,-92,207,-120,-302,-28,-152,-78,-144,-77
205,-22,-220,-92,201,-108,-296,-16,-146,-72,-132,-71
205,-16,-208,-92,195,-96,-290,-10,-140,-60,-126,-65
199,-4,-190,-92,183,-84,-284,-4,-134,-54,-120,-59
193,7,-166,-92,171,-72,-272,2,-128,-42,-114,-53
187,13,-154,-98,159,-60,-266,13,-122,-30,-108,-41
181,19,-142,-98,147,-48,-254,19,-110,-18,-96,-35
169,25,-124,-98,135,-36,-242,25,-98,-6,-84,-29
163,31,-106,-98,123,-24,-224,31,-86,0,-72,-23
151,37,-94,-98,111,-18,-206,43,-74,5,-66,-17
139,37,-82,-98,105,-12,-194,49,-68,17,-60,-11
133,37,-76,-98,99,-6,-188,55,-56,23,-54,1
127,43,-70,-98,93,-1,-176,55,-50,29,-48,6
121,43,-64,-98,87,-1,-164,61,-44,41,-42,6
109,43,-58,-98,75,-1,-152,61,-44,47,-42,12
97,43,-52,-92,63,5,-146,61,-38,47,-42,12
91,43,-46,-92,57,11,-140,61,-38,47,-42,12
79,43,-40,-86,51,11,-128,61,-38,47,-42,12
73,43,-34,-80,45,11,-122,61,-38,47,-42,6
61,43,-28,-74,39,11,-116,55,-38,47,-42,1
55,43,-22,-68,33,11,-116,49,-38,47,-48,-5
49,43,-16,-62,27,17,-110,43,-38,47,-54,-11
43,43,-10,-56,21,17,-104,37,-38,47,-60,-17
37,37,-5,-50,15,17,-98,31,-38,47,-66,-23
25,31,1,-44,9,17,-98,19,-38,41,-72,-29
19,25,1,-38,3,17,-98,7,-44,35,-72,-35
13,19,1,-32,-3,17,-98,-4,-50,29,-72,-41
7,13,1,-26,-3,17,-98,-10,-56,23,-78,-41
1,13,1,-20,-8,17,-98,-16,-62,17,-84,-47
-4,7,1,-14,-8,17,-98,-28,-68,5,-90,-53
-10,1,1,-8,-14,17,-98,-34,-74,-6,-102,-59
-16,-4,1,-3,-14,17,-98,-40,-80,-12,-114,-65
-16,-10,1,3,-14,17,-98,-46,-80,-18,-126,-71
-22,-16,1,9,-14,17,-98,-52,-86,-24,-138,-83
-28,-22,1,9,-20,17,-98,-64,-92,-36,-150,-95
-28,-28,1,9,-26,17,-98,-76,-98,-42,-150,-101
-34,-34,1,15,-26,17,-98,-82,-104,-48,-156,-107
-34,-34,1,21,-26,17,-98,-88,-110,-54,-162,-113
-40,-34,1,21,-26,11,-98,-88,-116,-60,-168,-125
-46,-40,1,27,-26,11,-98,-94,-122,-60,-168,-125
-52,-40,1,27,-26,11,-98,-94,-122,-66,-174,-131
-52,-40,1,27,-26,5,-98,-100,-128,-72,-180,-137
-52,-46,1,33,-26,5,-98,-106,-128,-72,-186,-137
-52,-46,1,33,-26,-1,-98,-106,-128,-78,-186,-137
-58,-52,1,39,-26,-1,-98,-112,-134,-78,-186,-137
-58,-52,1,39,-26,-1,-98,-118,-140,-78,-186,-137
-58,-52,1,39,-26,-1,-98,-118,-140,-78,-186,-137
-58,-58,1,45,-26,-1,-98,-118,-140,-78,-186,-137
-58,-58,1,45,-26,-1,-98,-118,-140,-84,-186,-137
-58,-58,1,45,-26,-6,-98,-118,-140,-84,-186,-137
-58,-58,1,45,-26,-6,-98,-124,-140,-84,-186,-137
-58,-58,1,45,-26,-6,-98,-124,-140,-84,-186,-137
-58,-64,1,51,-26,-6,-98,-124,-140,-84,-192,-137
-58,-64,1,57,-26,-6,-98,-124,-140,-84,-192,-137
-58,-64,1,57,-26,-12,-98,-124,-140,-84,-192,-137
-58,-70,1,57,-26,-18,-98,-124,-140,-90,-192,-137
-58,-70,1,57,-26,-24,-98,-124,-140,-90,-192,-137
-58,-70,1,57,-26,-24,-98,-124,-140,-90,-192,-137
-58,-70,1,57,-26,-24,-98,-124,-140,-90,-192,-137
-58,-70,1,57,-26,-24,-98,-124,-140,-90,-192,-137
-58,-70,1,57,-26,-24,-98,-124,-140,-90,-192,-137
-58,-70,1,57,-26,-24,-98,-124,-140,-90,-192,-137
-58,-70,1,57,-26,-30,-98,-124,-140,-90,-192,-137
-58,-70,1,57,-26,-30,-98,-124,-140,-90,-192,-137
-58,-70,1,57,-26,-30,-98,-124,-140,-90,-192,-137
-58,-70,1,57,-26,-30,-98,-124,-140,-90,-192,-137
-58,-70,1,57,-26,-30,-98,-124,-140,-90,-192,-137
-58,-70,1,57,-26,-30,-98,-124,-140,-90,-192,-137
-58,-70,1,57,-26,-30,-98,-124,-140,-90,-192,-137
-58,-70,1,57,-26,-30,-98,-124,-140,-90,-192,-137
-58,-70,1,57,-26,-30,-98,-124,-140,-90,-192,-137
-58,-70,1,57,-26,-30,-98,-124,-140,-90,-192,-137
-58,-70,1,57,-26,-30,-98,-124,-140,-90,-192,-137
-58,-70,1,57,-26,-30,-98,-124,-140,-90,-192,-137
-58,-70,1,57,-26,-30,-98,-124,-140,-90,-192,-137
-58,-70,1,57,-26,-30,-98,-124,-140,-90,-192,-131
-58,-70,1,57,-26,-30,-98,-118,-140,-90,-192,-125
-58,-64,1,57,-26,-30,-98,-118,-140,-90,-186,-119
-58,-64,1,57,-26,-30,-98,-118,-140,-90,-186,-119
-58,-64,1,57,-26,-30,-98,-118,-140,-90,-186,-119
-58,-64,1,51,-26,-30,-98,-118,-140,-90,-186,-119
-58,-64,1,51,-26,-30,-98,-118,-140,-90,-186,-119
-52,-64,1,45,-26,-30,-98,-118,-140,-90,-186,-113
-46,-58,1,45,-26,-30,-98,-118,-140,-90,-180,-113
-46,-58,1,45,-26,-30,-98,-118,-140,-90,-180,-113
-46,-52,1,45,-26,-30,-98,-118,-140,-90,-180,-113
-46,-52,1,45,-26,-30,-98,-118,-140,-90,-180,-113
-46,-52,1,45,-26,-30,-98,-118,-140,-90,-180,-113
-46,-46,1,39,-26,-30,-98,-118,-140,-90,-174,-107
-46,-46,1,39,-26,-30,-98,-118,-140,-90,-174,-101
-46,-46,1,39,-26,-30,-98,-118,-140,-90,-174,-101
-46,-46,1,39,-26,-30,-98,-118,-140,-90,-174,-95
-46,-46,1,39,-26,-30,-98,-118,-140,-90,-174,-95
-46,-46,1,39,-26,-30,-98,-118,-140,-90,-174,-95
-46,-46,1,39,-26,-30,-98,-118,-140,-90,-174,-95
-46,-40,1,39,-26,-30,-98,-118,-140,-90,-174,-95
-46,-40,1,39,-26,-30,-98,-118,-140,-90,-174,-95
-46,-40,1,39,-26,-30,-98,-118,-140,-90,-174,-95
-46,-40,1,39,-26,-30,-98,-118,-140,-90,-174,-95
-46,-40,1,39,-26,-24,-98,-118,-140,-90,-174,-95
-46,-40,1,39,-26,-24,-98,-118,-140,-90,-174,-95
-46,-40,1,39,-26,-24,-98,-118,-140,-90,-174,-95
-46,-40,1,39,-26,-24,-98,-118,-140,-90,-174,-95
-46,-40,1,39,-26,-24,-98,-118,-140,-90,-174,-95
-46,-40,1,39,-26,-24,-98,-118,-140,-90,-174,-95
-46,-40,1,39,-26,-24,-98,-118,-140,-90,-174,-95
-46,-40,1,39,-26,-24,-98,-118,-140,-90,-174,-95
-46,-40,1,39,-26,-24,-98,-118,-140,-90,-174,-89
-46,-40,1,39,-26,-24,-98,-118,-146,-90,-174,-89
-46,-40,1,39,-26,-24,-98,-118,-146,-90,-174,-83
-46,-40,1,39,-26,-24,-98,-118,-152,-90,-174,-83
-46,-40,1,39,-26,-24,-98,-118,-152,-90,-174,-83
-46,-40,1,39,-26,-24,-98,-118,-152,-90,-174,-83
-46,-40,1,39,-26,-24,-98,-118,-158,-90,-174,-83
-46,-40,1,39,-26,-24,-98,-118,-164,-90,-174,-83
-46,-40,1,39,-26,-24,-98,-118,-164,-90,-174,-83
-46,-40,1,39,-26,-24,-98,-118,-164,-90,-174,-83
-46,-40,1,39,-26,-24,-98,-118,-164,-90,-174,-83
-46,-40,1,39,-26,-24,-98,-118,-170,-96,-174,-83
-46,-40,1,39,-26,-24,-98,-118,-170,-96,-174,-83
-46,-40,1,39,-26,-24,-98,-118,-170,-96,-174,-83
-46,-40,1,39,-26,-24,-98,-118,-176,-96,-174,-83
-46,-40,1,39,-26,-24,-98,-118,-176,-96,-174,-83
-46,-40,1,39,-26,-24,-98,-118,-176,-96,-174,-83
-46,-40,1,39,-26,-24,-98,-118,-176,-96,-174,-83
-46,-40,1,39,-26,-24,-98,-118,-176,-102,-174,-83
-46,-40,1,39,-26,-24,-98,-118,-176,-102,-174,-83
-46,-40,1,39,-26,-24,-98,-124,-176,-102,-174,-83
-46,-40,1,39,-26,-24,-98,-130,-176,-102,-174,-83
-46,-40,1,39,-26,-24,-98,-130,-182,-108,-174,-83
-46,-40,1,39,-26,-24,-98,-130,-182,-108,-174,-83
-46,-40,1,39,-26,-24,-98,-130,-182,-108,-174,-83
-46,-40,1,39,-26,-24,-98,-130,-182,-108,-174,-89
-46,-40,1,39,-26,-24,-98,-136,-182,-108,-174,-89
-46,-40,1,39,-26,-24,-98,-136,-188,-108,-174,-89
-46,-40,1,39,-26,-24,-98,-136,-194,-114,-174,-89
-46,-40,1,39,-26,-24,-98,-142,-194,-114,-174,-89
-46,-40,1,39,-26,-24,-98,-142,-194,-114,-180,-89
-46,-40,1,39,-26,-24,-98,-142,-194,-114,-180,-89
-46,-40,1,39,-26,-24,-98,-142,-194,-114,-180,-89
-46,-40,1,39,-26,-24,-98,-142,-200,-114,-180,-89
-46,-40,1,39,-26,-24,-98,-142,-200,-120,-180,-89
-46,-46,1,39,-26,-24,-98,-142,-200,-120,-180,-89
-46,-46,1,39,-26,-24,-98,-142,-200,-120,-180,-89
-46,-46,1,39,-26,-24,-98,-142,-200,-120,-180,-95
-46,-46,1,39,-26,-24,-98,-142,-200,-120,-180,-95
-46,-46,1,39,-26,-24,-98,-142,-200,-120,-180,-95
-46,-46,1,39,-26,-24,-92,-142,-200,-120,-180,-95
-46,-46,1,39,-26,-24,-92,-142,-200,-120,-180,-95
-46,-46,1,39,-26,-24,-86,-142,-200,-120,-180,-95
-46,-46,1,39,-26,-24,-86,-142,-200,-120,-180,-95
-46,-40,1,39,-26,-24,-80,-142,-200,-120,-180,-95
-40,-34,1,39,-26,-18,-74,-136,-200,-114,-180,-95
-40,-28,7,33,-26,-12,-68,-130,-194,-114,-174,-95
-40,-16,13,27,-26,-6,-62,-124,-194,-114,-168,-95
-34,-10,13,21,-26,-1,-56,-118,-194,-114,-162,-89
-28,-4,19,15,-26,5,-56,-112,-188,-108,-162,-83
-28,1,19,9,-26,11,-56,-106,-188,-108,-162,-83
-22,1,19,3,-26,11,-56,-106,-182,-108,-156,-77
-16,1,19,-3,-26,11,-56,-106,-176,-102,-156,-77
-10,1,19,-3,-26,11,-56,-106,-176,-102,-150,-71
-10,1,19,-3,-26,11,-56,-106,-176,-96,-150,-65
-10,1,19,-3,-26,11,-56,-106,-176,-96,-150,-65
-10,1,19,-3,-26,11,-56,-106,-176,-96,-144,-59
-4,1,19,-8,-26,11,-56,-106,-176,-96,-144,-59
7,7,19,-14,-20,11,-56,-100,-176,-96,-144,-59
13,7,13,-20,-8,11,-56,-94,-170,-96,-144,-53
19,7,7,-20,-3,11,-56,-88,-164,-96,-144,-53
19,7,1,-20,-3,11,-50,-82,-164,-96,-144,-47
19,13,1,-20,3,11,-50,-76,-164,-96,-138,-47
19,13,1,-26,3,11,-50,-76,-164,-96,-132,-41
19,13,1,-26,3,11,-50,-76,-164,-96,-132,-41
19,13,1,-26,3,11,-50,-76,-164,-96,-132,-41
19,13,1,-26,3,11,-50,-76,-164,-96,-132,-41
25,13,1,-26,3,11,-56,-76,-164,-96,-132,-41
25,13,1,-26,3,11,-62,-82,-170,-96,-132,-41
25,13,-5,-26,9,5,-74,-88,-176,-96,-132,-41
25,7,-16,-26,15,-1,-86,-100,-182,-96,-132,-41
25,-4,-22,-20,21,-12,-92,-112,-194,-102,-138,-47
25,-10,-28,-14,21,-18,-104,-124,-206,-114,-144,-53
25,-16,-34,-14,21,-24,-116,-142,-218,-132,-156,-59
25,-22,-40,-14,21,-30,-122,-166,-236,-144,-168,-65
25,-28,-46,-8,21,-36,-128,-178,-248,-156,-174,-65
25,-28,-46,-8,21,-36,-134,-184,-260,-162,-180,-65
25,-28,-46,-8,21,-36,-134,-190,-266,-162,-186,-71
25,-34,-46,-8,21,-36,-134,-196,-266,-168,-192,-71
25,-34,-46,-8,21,-36,-134,-202,-272,-174,-192,-71
25,-34,-46,-3,21,-36,-134,-202,-272,-174,-192,-71
25,-40,-46,3,21,-36,-134,-202,-272,-174,-192,-71
19,-40,-46,9,21,-36,-134,-202,-272,-174,-192,-77
13,-40,-40,15,21,-36,-134,-202,-272,-174,-192,-77
1,-40,-34,21,15,-36,-128,-202,-272,-174,-192,-77
-10,-46,-28,27,9,-36,-122,-196,-272,-174,-192,-83
-22,-52,-28,33,3,-36,-122,-196,-272,-174,-192,-83
-28,-52,-28,39,-3,-36,-122,-196,-272,-174,-192,-83
-34,-52,-22,45,-8,-36,-122,-196,-272,-174,-192,-83
-40,-52,-16,45,-8,-36,-116,-196,-272,-174,-192,-83
-46,-52,-16,45,-14,-36,-116,-196,-272,-174,-192,-89
-46,-58,-16,45,-20,-36,-110,-196,-272,-174,-198,-89
-46,-64,-16,45,-20,-36,-110,-196,-272,-180,-198,-89
-46,-64,-16,45,-20,-36,-110,-196,-272,-180,-198,-89
-46,-64,-16,45,-20,-36,-110,-196,-278,-180,-198,-89
-46,-64,-16,45,-20,-36,-110,-196,-278,-180,-198,-89
-46,-64,-16,45,-20,-36,-110,-196,-278,-186,-198,-89
-46,-64,-10,45,-20,-36,-110,-196,-278,-186,-198,-89
-46,-64,-5,45,-20,-36,-104,-196,-278,-186,-198,-89
-52,-64,1,45,-26,-36,-98,-184,-272,-186,-198,-89
-58,-58,13,45,-38,-30,-86,-166,-260,-180,-192,-83
-64,-52,31,45,-50,-18,-74,-148,-248,-162,-180,-77
-70,-40,55,45,-62,-1,-62,-124,-230,-144,-168,-65
-76,-28,67,45,-74,11,-50,-112,-200,-120,-144,-41
-76,-16,79,45,-86,29,-38,-88,-188,-102,-126,-29
-82,7,103,45,-98,41,-20,-70,-158,-78,-96,-11
-88,25,127,45,-110,59,-8,-40,-140,-60,-84,1
-94,43,151,45,-122,89,9,-16,-116,-42,-66,18
-100,55,181,39,-146,107,39,13,-86,-18,-54,30
-112,67,217,39,-176,137,69,55,-44,17,-24,48
-130,79,259,39,-206,167,99,103,-2,47,5,78
-148,103,295,33,-230,203,129,145,39,89,41,102
-160,121,325,27,-242,227,153,187,75,119,77,132
-166,145,355,21,-260,251,171,223,117,161,113,162
-172,169,379,15,-272,269,195,265,147,197,137,174
-178,193,403,9,-284,287,225,307,189,227,167,204
-184,217,421,3,-302,311,255,355,231,257,197,216
-190,235,439,-3,-314,329,291,403,273,299,227,246
-196,247,463,-8,-326,341,333,463,333,341,257,264
-202,253,475,-14,-338,353,369,535,381,383,293,282
-208,259,499,-14,-350,365,417,607,429,413,317,306
-214,265,511,-14,-362,377,465,655,477,449,341,318
-226,271,523,-14,-374,389,501,715,507,467,353,330
-238,271,535,-14,-386,395,543,745,525,479,365,330
-250,271,547,-14,-398,407,597,793,543,491,371,330
-268,271,559,-8,-410,407,663,841,567,503,377,330
-298,271,577,-3,-440,413,723,901,591,509,377,330
-322,271,601,9,-464,425,783,943,615,515,377,324
-334,271,631,15,-488,437,849,1009,657,527,383,324
-346,283,661,15,-512,461,897,1075,711,569,395,324
-352,307,691,15,-524,491,939,1141,777,635,449,336
-352,349,703,9,-530,521,969,1213,861,725,533,396
-352,391,733,-14,-530,557,987,1315,981,839,641,486
-316,451,745,-68,-530,599,1011,1447,1131,989,785,606
-250,547,757,-146,-524,641,1023,1627,1311,1169,965,756
-172,637,769,-242,-500,683,1041,1789,1503,1367,1151,906
-82,715,781,-320,-470,725,1047,1915,1677,1547,1343,1080
-4,817,787,-410,-428,785,1047,1999,1827,1721,1529,1236
97,925,799,-512,-386,845,1005,2058,1995,1919,1739,1434
205,1051,811,-632,-344,929,921,2118,2186,2152,1985,1668
289,1159,823,-722,-314,983,855,2172,2384,2392,2236,1884
355,1225,835,-782,-278,1025,807,2220,2581,2619,2469,2075
415,1267,835,-836,-236,1043,741,2250,2755,2805,2661,2237
457,1285,835,-872,-200,1049,669,2262,2887,2949,2805,2363
457,1285,835,-872,-200,1055,639,2274,2989,3057,2907,2423
433,1285,865,-866,-212,1067,633,2298,3091,3147,2973,2464
379,1285,907,-848,-260,1079,633,2304,3169,3207,3015,2500
337,1279,925,-806,-290,1079,615,2298,3187,3225,3021,2500
301,1153,901,-728,-290,1019,585,2214,3145,3153,2943,2434
247,955,763,-596,-284,851,555,1939,2809,2799,2601,2183
157,751,655,-446,-278,695,525,1621,2342,2326,2152,1824
49,547,565,-296,-278,551,483,1249,1797,1769,1631,1410
-82,379,511,-140,-278,443,405,799,1185,1181,1067,978
-190,229,469,-26,-290,353,297,403,663,689,599,612
-244,139,439,45,-302,299,189,109,333,383,299,360
-280,97,409,87,-308,251,81,-94,129,191,107,198
-292,55,385,111,-314,215,-14,-214,9,59,-18,78
-292,37,349,123,-314,185,-92,-304,-74,-18,-66,24
-292,13,307,129,-302,155,-140,-370,-152,-72,-96,6
-280,-10,265,129,-272,119,-182,-442,-242,-138,-138,-17
-268,-28,217,129,-242,83,-212,-484,-320,-210,-192,-47
-250,-52,163,129,-206,53,-230,-502,-374,-258,-222,-71
-220,-64,121,129,-170,29,-236,-502,-404,-288,-240,-83
-184,-70,91,123,-140,11,-236,-490,-416,-300,-252,-89
-154,-70,73,117,-110,-1,-236,-460,-416,-306,-252,-89
-130,-70,61,111,-92,-6,-224,-418,-416,-306,-252,-89
-118,-70,49,105,-80,-12,-200,-376,-416,-306,-252,-89
-106,-70,43,99,-68,-18,-182,-334,-404,-306,-252,-89
-94,-70,31,93,-56,-24,-170,-304,-392,-306,-252,-89
-82,-70,7,87,-44,-36,-152,-274,-380,-306,-252,-89
-76,-76,-5,87,-32,-48,-140,-262,-374,-306,-252,-89
-70,-82,-22,81,-26,-54,-128,-250,-374,-300,-252,-89
-64,-82,-34,81,-20,-60,-122,-244,-374,-300,-252,-89
-58,-88,-46,81,-14,-66,-122,-238,-374,-300,-252,-89
-52,-88,-52,81,-8,-78,-122,-238,-374,-300,-252,-89
-52,-94,-58,81,-3,-84,-122,-238,-374,-300,-252,-89
-46,-100,-64,81,3,-90,-122,-238,-374,-300,-252,-89
-40,-100,-70,81,9,-90,-122,-238,-374,-300,-252,-89
-40,-100,-76,81,15,-96,-122,-238,-374,-300,-252,-89
-40,-100,-82,81,21,-96,-122,-238,-374,-306,-252,-89
-40,-106,-88,81,21,-102,-122,-238,-374,-306,-252,-89
-40,-106,-94,81,27,-102,-122,-232,-374,-306,-252,-89
-34,-106,-94,81,27,-102,-122,-226,-374,-306,-252,-89
-28,-106,-94,81,33,-102,-122,-226,-374,-306,-252,-89
-22,-106,-94,75,33,-102,-122,-226,-374,-306,-252,-89
-22,-106,-94,75,39,-108,-122,-226,-374,-306,-246,-89
-22,-112,-100,75,39,-108,-122,-226,-374,-306,-240,-89
-22,-112,-106,75,45,-114,-122,-226,-374,-306,-240,-83
-16,-112,-106,75,51,-120,-122,-226,-374,-306,-234,-83
-16,-112,-112,75,57,-120,-122,-220,-374,-306,-234,-77
-16,-112,-112,69,57,-120,-122,-220,-374,-306,-234,-77
-16,-112,-112,69,63,-120,-122,-220,-374,-306,-234,-77
-16,-112,-112,69,63,-120,-122,-220,-374,-306,-234,-77
-16,-112,-112,69,63,-120,-122,-220,-374,-306,-234,-77
-10,-112,-118,63,63,-120,-122,-220,-374,-306,-234,-77
-4,-112,-118,57,63,-120,-122,-220,-374,-306,-234,-77
1,-112,-124,57,63,-120,-122,-220,-374,-306,-234,-77
1,-112,-124,57,63,-120,-122,-220,-374,-306,-234,-77
7,-112,-130,57,63,-120,-122,-214,-374,-306,-234,-77
13,-112,-130,57,69,-126,-122,-214,-374,-306,-234,-77
13,-112,-136,51,75,-126,-122,-208,-374,-306,-234,-77
13,-112,-136,51,81,-126,-122,-208,-374,-306,-234,-77
13,-112,-142,51,81,-132,-122,-208,-374,-306,-228,-77
13,-112,-142,51,81,-132,-122,-208,-374,-306,-228,-77
19,-112,-142,51,87,-132,-122,-208,-374,-306,-222,-71
25,-112,-148,45,87,-132,-122,-202,-374,-306,-222,-71
31,-112,-154,45,93,-132,-122,-202,-374,-306,-222,-71
37,-112,-160,45,99,-132,-128,-202,-374,-306,-222,-71
43,-112,-160,39,105,-132,-128,-202,-374,-306,-222,-71
49,-112,-160,39,111,-132,-128,-202,-374,-306,-222,-65
55,-112,-166,39,111,-138,-134,-202,-374,-306,-222,-65
55,-112,-166,33,111,-138,-134,-202,-374,-306,-222,-65
55,-112,-172,33,117,-138,-140,-202,-374,-306,-222,-65
55,-112,-172,27,123,-138,-140,-202,-374,-306,-222,-65
61,-112,-178,27,129,-138,-140,-202,-374,-306,-222,-65
61,-112,-184,27,129,-144,-140,-196,-374,-306,-222,-65
67,-112,-190,27,135,-150,-140,-190,-374,-306,-222,-65
73,-112,-196,21,141,-156,-140,-190,-374,-306,-216,-65
85,-112,-202,15,147,-156,-140,-184,-374,-306,-210,-65
91,-112,-208,15,153,-156,-146,-184,-374,-306,-210,-59
97,-112,-214,9,159,-162,-152,-184,-374,-306,-210,-53
103,-112,-220,3,165,-162,-152,-184,-374,-306,-210,-47
109,-112,-220,3,171,-162,-158,-178,-374,-306,-210,-47
115,-112,-220,-3,177,-162,-158,-178,-374,-306,-210,-47
115,-112,-226,-3,177,-162,-164,-172,-374,-306,-210,-47
121,-112,-232,-3,183,-162,-164,-166,-374,-306,-204,-47
133,-112,-238,-8,189,-168,-164,-160,-374,-306,-198,-41
139,-112,-244,-14,195,-168,-164,-154,-374,-306,-198,-35
145,-112,-250,-20,195,-168,-164,-154,-374,-306,-192,-35
151,-112,-256,-26,201,-168,-164,-154,-368,-306,-186,-29
157,-112,-262,-32,207,-168,-164,-148,-368,-306,-180,-23
163,-106,-262,-38,213,-168,-164,-142,-362,-306,-180,-17
169,-106,-262,-38,219,-168,-164,-136,-362,-306,-174,-11
175,-106,-262,-44,225,-168,-164,-130,-356,-306,-168,1
181,-106,-262,-44,225,-168,-170,-118,-356,-300,-162,6
187,-100,-262,-50,231,-168,-170,-106,-356,-294,-156,12
193,-94,-262,-56,231,-168,-170,-94,-350,-288,-150,18
199,-88,-262,-62,237,-168,-170,-82,-344,-282,-138,24
205,-82,-262,-62,237,-168,-170,-76,-338,-276,-126,30
205,-82,-262,-62,237,-168,-170,-70,-332,-270,-114,42
211,-76,-262,-68,237,-168,-170,-64,-320,-264,-108,48
211,-70,-262,-74,237,-168,-170,-58,-308,-258,-102,60
217,-64,-262,-80,237,-162,-170,-46,-302,-252,-96,72
217,-58,-262,-86,237,-156,-170,-34,-296,-240,-84,84
217,-52,-262,-92,237,-150,-170,-22,-284,-228,-78,96
217,-46,-256,-98,237,-150,-164,-10,-272,-216,-72,102
217,-40,-250,-98,237,-144,-164,2,-266,-210,-60,114
217,-34,-244,-98,237,-138,-158,7,-254,-198,-48,120
217,-28,-238,-98,237,-126,-146,13,-248,-186,-36,126
217,-22,-232,-104,231,-114,-140,19,-236,-174,-24,138
217,-10,-220,-104,225,-102,-128,25,-224,-162,-12,144
217,-4,-208,-104,219,-96,-122,37,-212,-156,-6,150
217,1,-196,-104,207,-90,-116,49,-200,-150,0,156
211,7,-184,-104,195,-84,-104,55,-188,-144,5,162
205,13,-172,-104,183,-72,-98,67,-176,-138,5,162
199,19,-154,-104,177,-66,-92,79,-170,-126,11,168
193,25,-142,-104,171,-54,-86,85,-158,-114,23,174
187,31,-130,-104,159,-42,-74,91,-146,-102,35,180
181,37,-118,-104,147,-30,-56,97,-134,-90,47,180
169,43,-106,-104,135,-18,-44,97,-122,-78,59,180
163,49,-94,-104,123,-12,-32,103,-116,-72,65,186
157,55,-82,-104,111,-6,-26,109,-110,-66,71,192
145,61,-70,-104,99,-1,-20,109,-104,-60,77,198
133,61,-58,-104,87,5,-8,109,-98,-54,83,198
121,61,-34,-104,75,11,-3,109,-92,-54,83,198
109,61,-22,-104,69,17,3,109,-92,-54,83,198
103,61,-16,-104,63,23,9,109,-92,-54,83,198
97,61,-10,-98,57,29,15,109,-92,-54,83,198
91,61,-5,-92,51,29,21,109,-92,-54,83,198
85,61,1,-86,39,35,21,103,-92,-54,83,198
73,61,7,-80,33,35,27,97,-92,-54,83,192
67,61,13,-74,21,35,27,85,-92,-54,83,186
55,61,19,-68,15,35,33,79,-92,-54,77,180
49,61,19,-62,9,35,33,73,-92,-54,71,174
37,55,19,-56,3,35,33,61,-92,-60,65,168
31,49,25,-50,-3,35,33,49,-98,-66,53,162
25,43,25,-44,-3,35,33,37,-104,-72,47,156
19,37,25,-38,-8,35,33,25,-110,-78,41,150
19,31,25,-32,-8,35,33,13,-116,-84,29,144
13,25,25,-26,-14,35,33,2,-122,-90,17,132
7,19,25,-14,-14,35,33,-4,-128,-96,11,120
7,19,25,-8,-14,35,33,-16,-134,-102,5,114
7,13,25,-3,-14,35,33,-28,-140,-108,0,108
1,13,25,-3,-20,35,33,-40,-146,-120,-12,96
-4,7,25,-3,-20,29,33,-46,-152,-132,-24,90
-10,1,25,3,-20,29,33,-58,-158,-144,-36,84
-10,-4,25,3,-20,29,33,-64,-164,-150,-42,78
-16,-10,25,9,-26,23,33,-70,-170,-156,-42,72
-16,-10,25,15,-26,23,33,-76,-176,-156,-42,66
-22,-16,25,21,-26,17,33,-82,-182,-162,-42,66
-28,-22,25,27,-26,11,33,-88,-182,-162,-48,60
-34,-28,25,27,-26,5,33,-94,-182,-162,-48,54
-40,-28,25,33,-26,-1,33,-100,-188,-168,-54,54
-40,-34,25,39,-26,-1,33,-106,-194,-174,-60,54
-40,-34,25,39,-26,-1,33,-106,-194,-174,-60,54
-40,-34,25,39,-26,-1,33,-106,-194,-180,-60,48
-46,-34,25,39,-26,-1,33,-112,-200,-186,-66,42
-46,-40,25,39,-26,-1,33,-112,-200,-186,-66,42
-46,-40,25,39,-26,-1,33,-112,-200,-186,-66,42
-46,-40,25,39,-26,-1,33,-112,-200,-186,-66,42
-46,-40,25,39,-26,-6,33,-112,-200,-186,-66,42
-46,-40,25,39,-26,-6,33,-112,-200,-186,-66,42
-46,-40,25,39,-26,-6,33,-112,-200,-186,-66,42
-46,-40,25,39,-26,-6,33,-112,-200,-186,-66,36
-46,-40,25,39,-26,-6,33,-112,-200,-186,-66,36
-46,-40,25,39,-26,-6,33,-112,-200,-186,-66,36
-46,-40,25,45,-26,-6,33,-112,-200,-186,-66,36
-46,-40,25,45,-26,-6,33,-112,-200,-186,-66,36
-46,-40,25,45,-26,-6,33,-112,-200,-186,-66,36
-46,-40,25,45,-26,-6,33,-112,-200,-186,-66,36
-46,-40,25,45,-26,-6,33,-112,-200,-186,-66,36
-46,-40,25,45,-26,-6,33,-112,-200,-186,-66,36
-46,-40,25,45,-26,-6,33,-112,-200,-186,-66,36
-46,-40,25,45,-26,-12,33,-112,-200,-186,-66,36
-46,-40,25,45,-26,-12,33,-112,-200,-186,-66,36
-46,-40,25,45,-26,-12,33,-112,-194,-186,-66,36
-46,-40,25,45,-26,-12,33,-112,-194,-186,-66,36
-46,-40,25,45,-26,-12,33,-112,-194,-186,-66,36
-46,-40,25,45,-26,-12,33,-112,-194,-186,-66,36
-46,-40,25,45,-26,-18,33,-112,-188,-186,-66,36
-46,-40,25,45,-26,-18,33,-112,-188,-186,-66,36
-46,-40,25,45,-26,-18,33,-112,-182,-186,-66,36
-46,-40,25,45,-26,-18,33,-112,-182,-186,-66,36
-46,-40,25,45,-26,-18,33,-112,-176,-186,-66,36
-46,-40,25,45,-26,-18,33,-112,-176,-186,-66,36
-46,-40,25,45,-26,-18,33,-112,-170,-186,-60,42
-46,-40,25,45,-26,-18,33,-112,-164,-186,-54,48
-46,-40,25,45,-26,-18,33,-112,-164,-186,-48,48
-46,-40,25,45,-26,-18,33,-112,-164,-180,-48,48
-46,-40,25,45,-26,-18,33,-112,-164,-180,-48,48
-46,-40,25,45,-26,-18,33,-112,-164,-174,-48,48
-46,-40,25,45,-26,-18,33,-112,-164,-174,-48,48
-46,-40,25,45,-26,-18,33,-112,-164,-174,-48,48
-46,-40,25,45,-26,-18,33,-112,-164,-174,-48,48
-46,-40,25,45,-26,-18,33,-112,-164,-174,-48,48
-46,-40,25,45,-26,-18,33,-112,-158,-174,-48,48
-46,-40,25,45,-26,-18,33,-112,-158,-174,-48,48
-46,-40,25,39,-26,-18,33,-112,-158,-174,-48,48
-46,-40,25,39,-26,-18,33,-112,-158,-174,-48,48
-46,-40,25,39,-26,-18,33,-112,-158,-174,-48,48
-46,-40,25,39,-26,-18,33,-112,-158,-174,-48,48
-46,-40,25,39,-26,-18,33,-112,-158,-174,-48,48
-40,-40,25,39,-26,-18,33,-112,-158,-174,-48,48
-40,-40,25,39,-26,-18,33,-112,-158,-174,-48,48
-40,-40,25,39,-26,-18,33,-112,-158,-174,-48,48
-40,-40,19,39,-26,-18,33,-112,-158,-174,-48,48
-40,-40,19,39,-26,-18,33,-112,-158,-174,-48,48
-40,-40,19,39,-26,-18,33,-112,-158,-174,-48,48
-40,-40,19,39,-26,-18,33,-112,-158,-174,-48,48
-40,-40,19,39,-26,-18,33,-112,-158,-174,-48,48
-40,-40,13,39,-26,-18,33,-112,-158,-174,-48,54
-40,-40,13,39,-26,-18,33,-112,-152,-174,-48,54
-40,-40,13,39,-26,-18,33,-112,-152,-174,-48,54
-40,-34,13,39,-26,-18,33,-112,-152,-174,-48,54
-40,-34,13,39,-26,-18,33,-118,-152,-174,-48,54
-34,-34,13,39,-26,-18,33,-118,-152,-174,-48,54
-34,-34,13,39,-26,-18,33,-118,-152,-174,-48,54
-34,-34,13,39,-26,-18,33,-124,-152,-174,-48,54
-34,-34,13,39,-26,-18,33,-124,-152,-174,-48,54
-34,-34,13,39,-26,-18,27,-130,-152,-174,-48,54
-34,-34,13,39,-26,-18,27,-130,-152,-174,-48,54
-34,-34,13,39,-26,-18,27,-130,-152,-174,-48,54
-34,-34,13,33,-26,-18,27,-130,-152,-174,-48,54
-34,-34,13,33,-26,-18,27,-136,-152,-174,-48,54
-34,-34,13,33,-26,-18,27,-136,-152,-174,-48,54
-34,-34,13,33,-26,-18,27,-142,-152,-174,-48,54
-34,-34,13,33,-26,-18,27,-142,-152,-174,-48,54
-34,-34,13,27,-26,-18,27,-142,-152,-174,-48,54
-34,-34,13,27,-26,-18,27,-148,-152,-174,-48,54
-34,-34,13,27,-26,-18,27,-148,-152,-180,-48,54
-34,-34,13,27,-26,-18,27,-148,-152,-180,-48,54
-34,-34,13,27,-26,-18,27,-148,-152,-180,-48,54
-34,-34,13,27,-26,-18,21,-154,-152,-180,-48,54
-34,-34,13,27,-26,-18,21,-154,-152,-186,-54,54
-34,-34,13,27,-26,-18,21,-160,-152,-186,-54,54
-34,-34,13,27,-26,-18,21,-160,-152,-186,-54,54
-34,-34,13,27,-26,-18,21,-160,-152,-186,-60,48
-34,-34,13,27,-26,-18,21,-160,-152,-192,-60,42
-34,-34,13,27,-26,-18,21,-160,-152,-192,-60,42
-34,-34,13,27,-26,-18,21,-166,-152,-192,-60,42
-34,-34,13,27,-26,-18,21,-166,-152,-192,-60,42
-34,-34,13,27,-26,-18,21,-172,-152,-192,-60,42
-34,-34,13,27,-26,-18,21,-172,-152,-192,-60,42
-34,-34,13,27,-26,-18,21,-172,-152,-192,-60,42
-34,-34,13,27,-26,-18,21,-172,-152,-192,-60,42
-34,-34,13,27,-26,-18,21,-172,-152,-198,-60,42
-34,-34,13,27,-26,-18,21,-172,-152,-204,-60,42
-34,-34,13,27,-26,-18,21,-172,-152,-204,-60,42
-34,-34,13,27,-26,-18,21,-172,-152,-204,-60,42
-34,-34,13,27,-26,-18,21,-178,-152,-204,-60,42
-34,-34,13,27,-26,-18,21,-178,-152,-210,-60,42
-34,-34,13,27,-26,-18,21,-178,-152,-210,-60,36
-34,-34,13,27,-26,-18,21,-178,-152,-210,-60,36
-34,-34,13,27,-26,-18,21,-178,-152,-210,-60,36
-34,-34,13,27,-26,-18,21,-184,-152,-210,-60,36
-34,-34,13,27,-26,-18,21,-184,-152,-210,-66,36
-34,-34,13,27,-26,-18,21,-184,-152,-210,-66,36
-34,-34,13,27,-26,-18,21,-184,-152,-210,-66,36
-34,-34,13,27,-26,-18,21,-184,-152,-210,-66,36
-34,-34,13,27,-26,-18,21,-184,-152,-210,-66,36
-34,-34,13,27,-26,-18,21,-184,-152,-210,-66,36
-34,-34,13,27,-26,-18,21,-190,-152,-216,-72,36
-34,-34,13,27,-26,-18,21,-190,-152,-216,-72,36
-34,-34,13,27,-26,-18,21,-190,-152,-216,-72,36
-34,-34,13,27,-26,-18,21,-190,-152,-216,-72,36
-34,-34,13,27,-26,-18,21,-190,-152,-216,-72,36
-34,-34,13,27,-26,-18,21,-190,-152,-216,-72,36
-34,-34,13,27,-26,-18,21,-190,-152,-216,-72,36
-34,-34,13,27,-26,-24,15,-196,-152,-216,-72,36
-34,-34,7,27,-26,-24,15,-196,-152,-216,-72,36
-34,-34,7,27,-26,-24,15,-196,-152,-216,-72,30
-34,-34,7,27,-26,-24,15,-196,-152,-216,-72,30
-34,-34,7,27,-26,-24,15,-196,-152,-216,-72,30
-34,-34,7,33,-26,-24,15,-196,-152,-216,-72,30
-34,-34,7,33,-26,-24,15,-196,-152,-216,-72,30
-34,-34,7,33,-26,-24,15,-202,-152,-216,-72,30
-34,-34,7,33,-26,-24,15,-202,-152,-216,-72,30
-34,-34,7,33,-26,-24,15,-202,-152,-216,-72,30
-34,-34,7,33,-26,-24,15,-202,-152,-216,-72,30
-34,-34,7,33,-26,-24,15,-202,-152,-216,-72,30
-28,-28,7,27,-26,-24,15,-202,-152,-216,-66,30
-28,-22,7,27,-26,-18,15,-202,-146,-210,-60,30
-28,-16,7,27,-26,-12,21,-196,-140,-204,-54,30
-22,-10,7,21,-26,-12,21,-190,-134,-204,-48,30
-16,-4,7,15,-26,-6,27,-184,-134,-204,-48,30
-10,1,7,9,-26,-6,33,-178,-128,-204,-48,30
-10,7,7,3,-26,-6,33,-172,-122,-198,-42,30
-10,13,7,3,-26,-1,39,-166,-116,-192,-42,30
-4,13,7,-3,-26,-1,39,-166,-116,-192,-42,36
1,19,7,-8,-26,-1,39,-160,-116,-186,-42,42
7,25,7,-14,-26,-1,39,-160,-116,-186,-42,48
7,31,7,-20,-26,-1,39,-160,-110,-180,-42,48
13,31,7,-20,-26,-1,39,-160,-104,-180,-42,48
19,31,7,-20,-20,-1,39,-154,-104,-174,-42,48
25,31,1,-26,-14,-1,39,-148,-104,-174,-36,48
31,31,-5,-26,-3,-1,39,-142,-98,-174,-30,48
37,31,-10,-32,3,-1,39,-136,-92,-174,-24,54
37,31,-10,-32,9,-1,39,-130,-86,-168,-24,54
37,31,-10,-32,9,-1,39,-130,-86,-162,-18,54
43,31,-10,-38,9,-1,39,-130,-86,-162,-18,54
43,31,-10,-38,9,-1,39,-130,-86,-162,-18,54
43,31,-10,-38,9,-1,39,-130,-86,-162,-18,60
43,31,-10,-38,9,-1,39,-130,-86,-162,-18,60
43,31,-10,-38,9,-1,39,-130,-86,-162,-18,60
43,31,-10,-38,9,-1,33,-136,-92,-162,-18,60
43,31,-10,-38,9,-1,21,-148,-98,-162,-18,60
43,31,-16,-38,9,-6,9,-166,-104,-168,-24,60
43,25,-28,-38,15,-12,3,-178,-110,-180,-30,54
43,13,-34,-32,15,-18,-3,-190,-122,-186,-36,48
43,1,-40,-26,15,-24,-8,-202,-134,-198,-42,42
43,-4,-40,-26,15,-24,-14,-214,-146,-210,-48,36
43,-4,-40,-26,15,-24,-20,-226,-158,-222,-54,30
43,-4,-46,-26,15,-30,-26,-232,-170,-228,-60,30
43,-10,-46,-26,15,-36,-32,-244,-176,-234,-66,24
43,-10,-46,-26,15,-36,-38,-250,-176,-240,-66,24
43,-10,-46,-20,15,-42,-38,-250,-182,-240,-66,18
37,-16,-46,-20,15,-42,-38,-250,-182,-240,-72,18
31,-16,-46,-20,15,-42,-38,-250,-182,-240,-72,18
31,-16,-46,-14,15,-42,-38,-250,-188,-240,-72,12
31,-16,-46,-14,15,-42,-38,-250,-188,-240,-72,12
25,-22,-46,-14,15,-42,-38,-250,-188,-240,-72,6
19,-22,-46,-8,9,-42,-38,-250,-188,-240,-72,6
7,-22,-40,3,3,-42,-32,-250,-188,-240,-72,6
1,-28,-40,15,-3,-42,-26,-250,-188,-240,-72,6
-4,-28,-34,21,-8,-42,-26,-250,-188,-240,-78,6
-10,-28,-28,27,-14,-42,-20,-250,-188,-240,-84,1
-16,-28,-22,27,-20,-42,-14,-250,-188,-240,-84,1
-22,-34,-22,33,-20,-42,-14,-250,-188,-240,-84,1
-28,-34,-22,33,-20,-42,-14,-250,-188,-240,-84,1
-34,-34,-22,33,-20,-42,-14,-250,-188,-240,-84,1
-34,-34,-22,33,-20,-42,-14,-250,-188,-246,-84,1
-40,-34,-22,33,-20,-42,-14,-250,-194,-246,-84,-5
-40,-40,-22,33,-20,-42,-14,-250,-200,-252,-84,-5
-40,-40,-22,33,-20,-42,-14,-250,-200,-252,-84,-5
-40,-40,-16,33,-20,-42,-14,-250,-200,-252,-84,-5
-40,-40,-10,33,-26,-42,-8,-250,-200,-252,-84,-5
-40,-40,-5,33,-32,-36,-3,-250,-194,-252,-84,-5
-40,-34,1,33,-44,-24,9,-244,-182,-240,-84,-5
-46,-28,13,33,-56,-12,15,-232,-152,-228,-78,1
-52,-22,31,33,-62,-1,21,-220,-140,-216,-66,12
-58,-16,49,33,-68,11,33,-190,-128,-204,-48,24
-58,-4,73,33,-74,23,39,-166,-116,-180,-30,36
-64,7,91,33,-86,35,51,-154,-98,-156,-18,48
-70,19,121,33,-104,53,63,-124,-68,-138,-6,60
-76,31,145,33,-122,71,81,-94,-44,-120,5,72
-88,49,169,33,-146,95,111,-64,-14,-90,29,84
-100,67,199,33,-176,119,141,-28,27,-60,53,102
-118,79,223,33,-200,143,177,13,69,-24,83,132
-130,103,253,33,-218,167,207,55,123,11,125,156
-142,127,283,27,-230,197,225,97,153,41,155,186
-154,139,307,27,-242,215,243,133,183,71,185,204
-160,157,337,21,-254,239,261,169,213,113,221,222
-172,169,367,15,-272,269,285,211,243,149,251,234
-178,193,397,9,-296,287,315,253,285,179,269,264
-184,205,415,3,-308,299,357,319,333,215,293,282
-190,217,427,-3,-320,311,399,379,387,251,323,306
-196,229,439,-8,-332,323,447,445,447,281,353,318
-208,235,451,-8,-344,329,501,505,489,317,371,330
-220,235,463,-8,-356,335,549,559,531,347,383,336
-238,235,475,-3,-368,341,603,619,555,359,395,342
-256,235,481,9,-380,347,657,679,567,365,401,342
-268,235,493,21,-392,347,705,715,579,371,401,342
-298,235,517,27,-410,353,759,751,591,377,401,330
-310,235,547,33,-440,365,813,799,621,389,401,324
-328,241,577,39,-470,377,861,865,669,419,413,324
-340,247,607,39,-494,413,921,925,723,455,425,330
-346,277,637,39,-512,449,957,985,795,515,473,354
-346,319,667,27,-524,491,987,1057,891,611,563,402
-340,379,697,-8,-524,539,1005,1171,1023,737,677,498
-298,457,709,-80,-524,581,1017,1321,1161,887,833,624
-220,535,715,-158,-500,611,1029,1483,1335,1055,995,762
-136,613,721,-236,-464,647,1035,1639,1503,1235,1163,906
-34,691,721,-332,-410,677,1035,1765,1665,1403,1355,1068
67,799,721,-434,-368,725,1029,1861,1815,1583,1547,1230
187,937,727,-554,-326,803,981,1903,1983,1793,1781,1446
301,1075,739,-686,-284,905,891,1945,2174,2027,2021,1680
379,1195,757,-776,-254,971,819,1987,2372,2248,2254,1896
451,1267,769,-860,-224,1013,759,2005,2551,2463,2463,2069
523,1303,769,-908,-170,1037,663,2011,2701,2625,2649,2237
565,1321,763,-938,-128,1037,603,2023,2803,2751,2781,2351
571,1327,763,-944,-122,1037,585,2058,2911,2853,2877,2417
547,1333,805,-944,-140,1061,585,2118,3019,2955,2949,2470
463,1339,895,-926,-230,1103,585,2142,3115,3051,3021,2518
415,1327,907,-878,-260,1103,585,2142,3139,3057,3027,2518
373,1165,853,-770,-260,1001,573,2064,3055,2925,2889,2405
301,943,697,-620,-248,809,549,1789,2671,2541,2511,2099
199,721,565,-452,-236,641,507,1435,2192,2051,2039,1734
73,517,481,-296,-236,503,423,1009,1623,1487,1511,1326
-58,337,427,-140,-242,383,321,535,1023,929,983,912
-172,211,397,-14,-266,311,219,169,585,515,563,570
-220,133,385,39,-278,269,111,-82,315,269,317,354
-250,91,373,75,-290,233,33,-244,147,101,167,210
-268,61,355,93,-296,209,-20,-322,57,5,71,114
-268,43,331,105,-296,179,-56,-376,-2,-54,23,60
-268,25,289,111,-290,149,-92,-442,-86,-126,-18,30
-256,1,235,111,-266,113,-122,-508,-170,-180,-66,1
-226,-16,163,111,-224,71,-146,-538,-224,-240,-102,-17
-190,-28,115,111,-176,41,-152,-538,-254,-270,-126,-29
-160,-34,79,111,-140,23,-152,-532,-272,-288,-138,-41
-148,-40,61,105,-122,11,-146,-502,-278,-300,-144,-47
-136,-40,55,99,-110,5,-140,-460,-278,-306,-150,-47
-124,-40,49,93,-98,-1,-122,-418,-278,-306,-150,-47
-112,-40,43,87,-92,-6,-92,-376,-278,-306,-150,-47
-94,-46,31,81,-86,-12,-74,-346,-278,-306,-150,-47
-82,-46,19,75,-74,-24,-62,-322,-278,-306,-150,-47
-70,-52,1,75,-62,-36,-50,-310,-278,-306,-150,-47
-64,-58,-10,75,-50,-42,-44,-304,-272,-306,-150,-47
-58,-58,-16,75,-44,-48,-38,-298,-272,-306,-150,-47
-58,-64,-22,75,-38,-54,-38,-298,-272,-306,-150,-47
-52,-64,-28,75,-32,-60,-38,-298,-272,-306,-150,-47
-52,-70,-34,75,-26,-66,-38,-298,-272,-306,-150,-47
-46,-70,-40,69,-20,-66,-38,-298,-272,-306,-150,-47
-46,-70,-40,69,-14,-66,-38,-298,-272,-306,-150,-53
-40,-70,-46,63,-8,-72,-38,-298,-272,-312,-150,-53
-34,-70,-52,63,-3,-72,-38,-298,-272,-312,-150,-53
-34,-70,-58,63,-3,-72,-38,-298,-272,-312,-150,-53
-34,-70,-58,57,-3,-72,-38,-298,-272,-312,-150,-53
-28,-70,-64,57,-3,-72,-38,-298,-272,-318,-156,-53
-28,-76,-70,57,-3,-72,-38,-298,-272,-318,-156,-53
-22,-76,-70,57,3,-78,-38,-298,-272,-318,-156,-53
-22,-76,-70,57,3,-78,-38,-292,-272,-318,-156,-53
-22,-76,-76,57,3,-78,-38,-286,-272,-318,-156,-53
-22,-76,-76,57,9,-78,-38,-280,-272,-318,-156,-53
-22,-76,-82,57,15,-78,-38,-280,-272,-318,-156,-53
-16,-76,-88,51,21,-78,-38,-280,-272,-318,-156,-53
-10,-76,-88,51,21,-78,-38,-280,-272,-318,-156,-53
-4,-76,-88,51,21,-78,-38,-280,-272,-318,-156,-53
-4,-76,-88,51,21,-78,-38,-274,-272,-318,-156,-53
-4,-76,-88,45,21,-78,-38,-274,-272,-318,-156,-53
1,-76,-88,45,21,-78,-38,-274,-272,-318,-156,-53
7,-76,-88,45,21,-78,-38,-268,-272,-318,-156,-53
7,-76,-88,45,21,-78,-38,-268,-272,-318,-156,-53
7,-76,-94,45,27,-84,-38,-268,-272,-318,-156,-53
13,-76,-100,45,33,-84,-38,-268,-272,-318,-156,-53
13,-76,-100,39,33,-84,-38,-268,-272,-318,-156,-53
13,-76,-100,39,39,-84,-38,-268,-272,-318,-156,-53
19,-76,-106,39,45,-90,-38,-262,-272,-318,-156,-53
19,-76,-112,39,51,-90,-38,-262,-272,-318,-156,-53
25,-76,-118,39,51,-96,-44,-262,-272,-318,-150,-53
31,-76,-118,33,51,-96,-44,-262,-272,-318,-150,-53
37,-76,-118,33,51,-96,-44,-256,-272,-318,-150,-53
37,-76,-118,33,51,-96,-44,-256,-272,-318,-150,-53
37,-76,-118,27,57,-96,-44,-250,-272,-318,-150,-53
43,-76,-124,27,57,-96,-44,-250,-272,-318,-150,-53
43,-76,-124,27,57,-96,-50,-244,-272,-318,-144,-53
49,-76,-130,27,63,-102,-50,-238,-272,-318,-144,-53
55,-76,-136,27,63,-102,-50,-238,-272,-318,-144,-53
55,-76,-142,21,69,-108,-50,-232,-272,-318,-138,-53
55,-76,-148,21,75,-108,-50,-232,-272,-318,-138,-53
61,-76,-148,15,81,-114,-50,-226,-272,-318,-132,-53
67,-76,-154,9,93,-114,-50,-220,-272,-318,-126,-53
73,-76,-160,3,99,-114,-50,-220,-272,-312,-126,-47
79,-76,-166,3,105,-120,-56,-220,-272,-312,-126,-47
79,-76,-172,3,105,-120,-56,-220,-272,-312,-126,-47
85,-76,-178,3,111,-126,-56,-220,-272,-306,-126,-47
91,-76,-178,-3,117,-126,-56,-214,-272,-306,-126,-47
97,-76,-178,-8,117,-126,-56,-208,-272,-306,-126,-47
103,-76,-178,-8,117,-126,-56,-202,-272,-306,-120,-47
109,-76,-184,-8,117,-132,-56,-196,-272,-306,-114,-47
115,-76,-190,-8,123,-132,-56,-190,-272,-300,-114,-47
115,-76,-196,-8,129,-132,-62,-184,-272,-300,-114,-47
121,-76,-202,-8,135,-132,-62,-178,-266,-300,-114,-41
121,-76,-208,-8,141,-132,-62,-178,-266,-294,-108,-41
127,-76,-208,-14,147,-132,-62,-172,-260,-288,-108,-35
133,-76,-214,-20,147,-138,-62,-166,-254,-288,-108,-29
133,-76,-220,-26,153,-144,-62,-154,-254,-282,-108,-23
139,-76,-226,-32,153,-144,-62,-148,-254,-276,-102,-23
145,-76,-226,-38,159,-144,-62,-142,-248,-270,-96,-17
151,-76,-226,-44,165,-144,-62,-130,-242,-264,-90,-11
157,-76,-232,-44,171,-144,-62,-118,-236,-264,-84,-5
163,-76,-232,-44,177,-144,-62,-112,-230,-258,-72,1
169,-70,-232,-50,183,-144,-62,-100,-224,-252,-66,1
175,-64,-232,-56,183,-144,-62,-88,-218,-246,-60,6
181,-58,-232,-62,189,-144,-62,-76,-206,-234,-54,12
187,-52,-232,-68,189,-144,-62,-64,-194,-228,-48,18
187,-46,-232,-74,189,-144,-62,-52,-188,-222,-42,24
193,-40,-232,-80,189,-144,-62,-40,-182,-216,-36,30
199,-34,-232,-80,189,-144,-62,-34,-176,-204,-30,36
199,-28,-232,-86,189,-138,-62,-22,-170,-192,-24,42
199,-22,-232,-92,189,-138,-56,-10,-164,-180,-18,54
199,-16,-232,-92,189,-132,-56,-4,-158,-174,-6,66
205,-10,-226,-98,189,-120,-50,7,-146,-162,5,72
205,-4,-220,-98,189,-114,-44,19,-134,-150,17,78
205,1,-214,-104,189,-108,-38,31,-122,-144,23,84
205,7,-214,-104,189,-102,-32,43,-110,-138,29,90
205,13,-208,-104,189,-96,-26,55,-104,-126,35,102
205,19,-202,-104,183,-90,-20,67,-92,-114,47,114
205,31,-190,-104,177,-84,-8,73,-80,-102,53,120
205,37,-178,-110,171,-72,3,85,-68,-90,65,126
205,43,-160,-110,159,-66,15,91,-62,-84,71,132
199,49,-148,-110,153,-54,21,97,-56,-78,83,138
193,55,-136,-110,141,-42,27,103,-50,-72,89,144
187,61,-124,-110,129,-24,33,109,-38,-60,95,150
181,67,-112,-110,123,-12,39,121,-26,-48,107,156
175,73,-100,-110,111,-6,45,127,-14,-42,113,162
169,79,-88,-110,105,-1,57,127,-8,-36,119,168
163,85,-76,-110,93,5,63,133,-2,-30,125,168
151,91,-64,-110,81,11,69,139,3,-24,131,168
145,91,-52,-110,69,17,81,139,3,-18,137,168
133,91,-40,-110,57,23,87,139,9,-12,143,168
121,97,-28,-110,45,35,93,139,9,-6,143,168
115,97,-16,-110,39,41,93,139,9,-6,143,168
103,97,-10,-110,33,47,93,139,9,0,143,168
91,97,-5,-104,21,47,99,139,9,0,143,174
85,97,1,-98,15,53,99,133,9,0,143,174
79,97,13,-92,9,59,99,121,9,0,143,174
73,97,25,-92,-3,59,99,109,9,0,143,174
61,97,31,-86,-8,59,99,97,9,0,137,174
55,97,37,-80,-14,59,99,85,9,0,137,168
49,97,43,-74,-20,59,99,73,3,-6,131,162
43,97,43,-68,-26,59,99,61,-2,-12,125,150
37,97,43,-68,-26,59,99,49,-14,-24,113,138
31,97,43,-62,-32,59,99,31,-26,-30,101,126
25,91,49,-56,-38,59,99,13,-32,-42,89,114
19,85,49,-50,-38,59,99,2,-44,-54,83,108
13,79,49,-44,-38,59,99,-10,-50,-60,77,102
7,67,49,-38,-38,59,99,-22,-56,-66,65,96
1,61,49,-32,-38,59,99,-34,-68,-72,59,90
-4,55,49,-26,-38,59,99,-46,-74,-78,47,84
-10,49,49,-20,-38,53,99,-52,-86,-90,41,78
-10,43,49,-14,-44,47,99,-58,-98,-96,35,72
-10,43,49,-14,-44,47,99,-64,-110,-102,29,66
-10,43,49,-14,-44,47,99,-76,-116,-114,23,54
-16,37,49,-8,-44,41,99,-88,-122,-120,17,48
-22,31,49,-3,-44,41,93,-100,-128,-132,11,42
-28,25,49,-3,-44,35,93,-106,-134,-138,5,36
-28,19,49,3,-44,35,87,-112,-140,-144,0,30
-28,13,49,3,-44,35,87,-118,-146,-150,-6,24
-34,13,49,3,-44,35,81,-124,-152,-156,-12,18
-34,13,49,9,-44,29,81,-124,-152,-162,-18,12
-34,13,49,15,-44,29,81,-130,-158,-162,-24,6
-40,7,49,15,-44,29,81,-130,-164,-162,-24,6
-40,7,49,15,-44,29,75,-136,-164,-162,-30,1
-40,7,49,15,-44,29,75,-142,-164,-162,-30,1
-40,7,49,15,-44,29,75,-142,-164,-162,-30,-5
-40,7,49,21,-44,29,69,-142,-170,-168,-30,-5
-40,1,49,21,-44,29,69,-142,-176,-174,-30,-5
-40,1,49,21,-44,29,69,-142,-182,-180,-30,-5
-40,1,49,21,-44,29,69,-142,-182,-180,-30,-5
-40,1,49,21,-44,29,69,-142,-182,-180,-30,-5
-40,1,49,21,-44,29,69,-148,-188,-180,-36,-5
-40,1,49,21,-44,29,69,-148,-188,-180,-36,-5
-40,1,49,21,-44,29,69,-148,-188,-180,-36,-5
-40,1,49,21,-44,29,69,-148,-188,-186,-36,-5
-40,1,49,21,-44,29,69,-148,-188,-186,-36,-5
-40,1,49,21,-44,29,69,-148,-188,-186,-36,-5
-40,1,49,21,-44,29,69,-148,-188,-186,-36,-5
-40,1,49,21,-44,29,69,-148,-188,-186,-36,-5
-40,1,49,21,-44,23,63,-148,-188,-186,-36,-5
-40,1,49,21,-44,23,63,-148,-188,-186,-36,-5
-40,1,49,21,-44,23,63,-148,-188,-186,-36,-5
-40,1,49,21,-44,23,63,-148,-188,-186,-36,-5
-40,1,49,21,-44,23,63,-148,-188,-186,-36,-5
-40,1,49,21,-44,23,63,-148,-188,-186,-36,-5
-40,1,49,21,-44,23,63,-148,-188,-186,-36,-5
-40,1,49,21,-44,23,63,-148,-188,-186,-36,-5
-40,1,49,21,-44,23,63,-148,-188,-186,-36,-5
-40,1,49,21,-44,23,63,-148,-188,-186,-36,-5
-40,1,49,21,-44,23,63,-148,-188,-186,-36,-5
-40,1,49,21,-44,23,63,-148,-188,-186,-36,-5
-40,1,49,21,-44,23,63,-148,-188,-186,-36,-5
-40,1,49,21,-44,23,63,-148,-188,-186,-36,-5
-40,1,49,21,-44,23,63,-148,-188,-180,-36,-5
-40,1,49,21,-44,23,63,-148,-188,-180,-36,-5
-40,1,49,21,-44,23,63,-148,-188,-180,-36,-5
-40,1,49,21,-44,23,57,-148,-188,-180,-36,-5
-40,1,49,21,-44,23,57,-148,-188,-180,-36,-5
-40,1,49,21,-44,23,57,-148,-188,-180,-36,-5
-40,1,49,21,-44,23,57,-148,-188,-180,-36,-5
-40,1,49,21,-44,23,57,-148,-188,-180,-36,-5
-40,1,49,21,-44,23,57,-148,-188,-180,-36,-5
-40,1,49,21,-44,23,57,-148,-188,-180,-36,-5
-40,1,49,21,-44,23,57,-148,-188,-180,-36,-5
-40,1,49,21,-44,23,57,-148,-188,-180,-36,-5
-40,1,49,21,-44,23,51,-148,-188,-180,-36,-5
-40,1,49,21,-44,23,51,-148,-182,-180,-36,-5
-40,1,49,21,-44,23,51,-148,-176,-180,-36,-5
-40,1,49,21,-44,23,45,-148,-176,-180,-36,-5
-40,1,49,21,-44,23,45,-148,-176,-180,-36,-5
-40,7,49,21,-44,23,39,-148,-176,-180,-36,-5
-40,7,49,15,-44,23,39,-148,-176,-180,-36,-5
-40,7,49,15,-44,23,39,-148,-176,-180,-36,-5
-40,7,49,15,-44,23,39,-148,-176,-180,-36,-5
-40,7,49,15,-44,23,39,-148,-176,-180,-36,-5
-40,7,49,15,-44,23,39,-148,-176,-180,-36,-5
-40,7,49,15,-44,23,39,-148,-176,-180,-36,-5
-40,7,49,15,-44,23,39,-148,-176,-180,-36,-5
-40,7,49,15,-44,23,39,-148,-176,-180,-36,-5
-40,7,49,15,-44,23,39,-148,-176,-180,-36,-5
-40,7,49,15,-44,23,39,-148,-176,-180,-36,-5
-40,7,49,15,-44,23,39,-148,-176,-180,-36,-5
-40,7,49,15,-44,23,39,-148,-176,-180,-36,-5
-40,7,49,15,-44,23,39,-148,-176,-180,-36,-5
-40,7,49,15,-44,23,39,-148,-176,-180,-36,-5
-34,7,49,15,-44,23,39,-148,-176,-180,-36,-5
-34,7,49,15,-44,23,39,-148,-176,-180,-36,-5
-34,7,49,15,-44,23,39,-148,-176,-180,-36,-5
-34,7,49,15,-44,23,33,-148,-176,-180,-36,-5
-34,7,49,15,-44,23,33,-148,-176,-180,-36,-5
-34,7,49,15,-44,23,33,-154,-182,-180,-36,-5
-34,7,49,15,-44,23,27,-154,-188,-180,-36,-5
-34,7,49,15,-44,23,27,-154,-188,-180,-36,-5
-34,7,49,15,-44,23,27,-154,-188,-180,-36,-5
-34,7,49,15,-44,23,21,-154,-188,-180,-36,-5
-34,7,49,15,-44,23,21,-160,-188,-180,-36,-5
-34,7,49,15,-44,23,21,-160,-188,-180,-36,-5
-34,7,49,15,-44,23,21,-160,-188,-180,-36,-5
-34,7,49,15,-44,23,15,-160,-194,-180,-36,-5
-34,7,49,15,-44,23,9,-160,-200,-180,-36,-5
-34,7,49,15,-44,23,3,-160,-200,-180,-36,-11
-34,7,49,15,-44,23,3,-160,-200,-180,-36,-11
-34,7,49,15,-44,23,3,-160,-200,-180,-36,-11
-34,7,49,15,-44,23,3,-166,-206,-180,-36,-11
-34,7,49,15,-44,23,3,-166,-212,-180,-36,-11
-34,7,49,15,-44,23,3,-166,-212,-180,-36,-11
-34,7,49,15,-44,23,3,-166,-212,-180,-36,-11
-34,7,49,15,-44,23,3,-166,-212,-180,-36,-11
-34,7,49,15,-44,23,3,-166,-212,-186,-36,-11
-34,7,49,15,-44,23,3,-166,-212,-186,-36,-11
-34,7,49,15,-44,23,3,-172,-212,-186,-36,-11
-34,7,49,15,-44,23,3,-172,-212,-186,-36,-17
-34,7,49,15,-44,23,3,-172,-212,-186,-36,-17
-34,7,49,15,-44,23,3,-178,-212,-186,-36,-17
-34,7,49,15,-44,23,3,-178,-218,-186,-36,-17
-34,7,49,15,-44,23,3,-178,-218,-192,-36,-17
-34,7,49,15,-44,23,3,-178,-218,-198,-36,-23
-34,7,49,15,-44,23,3,-184,-224,-198,-42,-23
-34,7,49,15,-44,23,3,-190,-224,-198,-42,-23
-34,7,49,15,-44,23,3,-190,-224,-198,-42,-23
-34,7,49,15,-44,23,3,-190,-224,-198,-42,-23
-34,7,49,15,-44,23,3,-190,-224,-198,-42,-23
-34,7,49,15,-44,23,3,-190,-224,-198,-48,-23
-34,7,49,15,-44,23,3,-190,-224,-198,-48,-23
-34,7,49,15,-44,23,3,-190,-224,-198,-48,-23
-34,7,49,15,-44,23,3,-190,-224,-198,-48,-23
-34,7,49,15,-44,23,3,-190,-224,-198,-48,-23
-34,7,43,15,-44,23,3,-190,-224,-198,-48,-23
-34,7,43,15,-44,23,3,-190,-224,-198,-48,-23
-34,7,43,15,-44,23,3,-190,-224,-198,-48,-23
-34,7,43,15,-44,23,3,-190,-224,-198,-48,-23
-34,7,43,15,-44,23,3,-190,-224,-198,-48,-23
-34,7,43,15,-38,23,3,-190,-224,-198,-48,-23
-28,13,43,15,-38,23,3,-190,-224,-198,-48,-23
-28,13,43,15,-38,23,3,-190,-224,-198,-48,-23
-28,19,43,9,-38,23,3,-184,-224,-192,-48,-23
-22,25,43,3,-38,23,3,-172,-218,-186,-48,-17
-16,31,43,-3,-38,29,3,-166,-218,-180,-48,-11
-16,37,43,-8,-38,35,9,-160,-212,-174,-42,-5
-16,43,43,-14,-38,35,9,-160,-212,-174,-42,-5
-10,49,43,-14,-38,35,15,-154,-206,-174,-42,-5
-4,55,43,-20,-38,35,21,-148,-200,-168,-42,1
1,55,43,-26,-32,35,21,-148,-194,-168,-42,1
7,55,43,-32,-26,35,21,-148,-194,-168,-36,1
7,55,43,-32,-26,35,21,-148,-188,-162,-36,6
7,55,43,-32,-26,35,21,-142,-188,-156,-30,6
13,55,43,-38,-20,35,21,-136,-182,-150,-24,6
19,55,43,-44,-14,35,21,-130,-176,-150,-24,6
31,55,37,-44,-3,35,21,-124,-170,-150,-24,6
37,55,31,-50,3,35,21,-118,-170,-150,-24,6
43,55,25,-50,9,35,21,-112,-164,-144,-24,12
43,55,19,-50,15,35,21,-106,-158,-138,-24,12
43,61,19,-50,15,35,21,-100,-152,-132,-24,12
49,61,19,-50,15,35,21,-94,-146,-132,-24,12
49,61,19,-50,15,35,21,-94,-146,-132,-24,12
49,61,19,-50,15,35,21,-94,-146,-132,-24,12
49,61,19,-50,15,35,21,-100,-146,-132,-24,12
49,67,19,-50,21,35,15,-106,-146,-132,-24,12
49,67,19,-50,21,35,9,-112,-146,-132,-24,12
49,67,19,-50,21,35,3,-118,-152,-132,-24,12
49,67,19,-50,21,35,-3,-124,-158,-138,-24,12
49,61,13,-50,21,29,-14,-142,-170,-144,-30,6
49,55,7,-50,21,23,-26,-160,-182,-162,-42,1
49,49,1,-50,21,17,-38,-178,-200,-174,-54,-5
49,43,1,-50,21,17,-50,-202,-218,-186,-66,-17
49,43,-5,-50,21,11,-56,-226,-230,-198,-78,-23
49,37,-5,-44,21,5,-62,-238,-242,-204,-84,-29
49,31,-5,-44,21,5,-68,-244,-248,-210,-90,-29
49,31,-10,-44,21,5,-68,-244,-254,-210,-90,-29
49,31,-10,-38,21,5,-68,-244,-254,-210,-90,-29
43,31,-10,-38,21,5,-68,-244,-254,-210,-90,-29
37,31,-10,-32,21,5,-74,-244,-254,-210,-90,-29
37,25,-10,-32,21,5,-74,-244,-254,-216,-90,-29
31,25,-10,-32,21,5,-74,-244,-254,-216,-90,-29
25,25,-10,-26,21,5,-68,-244,-254,-216,-90,-29
13,19,-5,-20,15,5,-62,-244,-248,-216,-90,-29
1,13,1,-8,9,5,-56,-244,-248,-216,-90,-29
-4,7,7,-3,9,5,-56,-244,-248,-216,-90,-35
-16,1,13,3,3,5,-56,-244,-248,-216,-90,-35
-22,1,19,9,-8,5,-56,-244,-248,-216,-96,-41
-28,1,19,9,-14,5,-56,-244,-248,-216,-96,-47
-28,1,25,9,-20,5,-56,-244,-248,-216,-96,-53
-34,1,25,9,-20,5,-50,-244,-248,-216,-96,-53
-40,1,25,9,-26,5,-50,-244,-248,-216,-96,-53
-40,1,25,9,-26,5,-50,-244,-248,-216,-102,-53
-40,1,25,9,-26,5,-50,-244,-248,-216,-102,-53
-40,1,25,9,-26,5,-50,-244,-248,-216,-102,-53
-40,1,25,15,-26,5,-50,-244,-248,-216,-102,-53
-46,1,25,21,-26,5,-50,-244,-248,-216,-102,-53
-52,1,31,21,-26,5,-50,-244,-248,-216,-102,-53
-52,1,37,21,-32,5,-44,-238,-242,-216,-102,-53
-52,1,43,21,-44,11,-38,-226,-224,-210,-96,-47
-52,1,55,21,-56,17,-26,-208,-206,-198,-90,-35
-58,1,73,21,-62,29,-14,-184,-176,-180,-78,-29
-64,7,85,21,-74,41,-3,-166,-152,-150,-66,-17
-70,19,103,21,-86,53,9,-142,-128,-126,-42,-5
-76,37,127,21,-92,77,21,-112,-116,-102,-24,18
-76,55,145,21,-98,89,33,-88,-98,-78,-12,30
-82,67,163,21,-110,113,45,-58,-74,-66,5,42
-94,85,193,21,-134,137,69,-28,-50,-42,35,60
-106,109,229,15,-164,167,99,7,-8,-12,59,84
-118,127,271,9,-194,197,129,49,33,17,89,108
-130,151,301,3,-212,227,159,91,63,47,119,126
-136,169,331,3,-224,245,189,127,105,83,149,150
-148,181,361,-3,-242,269,207,169,147,125,179,174
-154,205,391,-8,-260,287,231,211,189,167,209,192
-166,229,415,-14,-272,317,249,259,231,209,239,222
-172,253,433,-20,-290,329,273,307,273,251,281,252
-178,265,451,-32,-296,347,303,355,315,293,317,276
-178,283,469,-38,-308,371,345,415,369,335,359,306
-178,295,481,-44,-320,383,387,481,429,371,383,330
-184,301,493,-44,-332,395,435,547,471,407,413,348
-190,307,505,-44,-344,401,483,601,507,431,443,354
-202,307,517,-44,-356,407,525,649,543,449,455,360
-214,307,523,-38,-368,407,567,697,573,473,461,360
-226,307,529,-32,-380,407,621,745,591,485,461,360
-250,307,547,-26,-392,407,675,799,603,491,461,360
-280,307,577,-20,-422,419,735,859,633,497,461,354
-304,307,607,-14,-440,431,795,913,675,515,461,354
-316,307,631,-8,-464,449,855,985,717,545,467,354
-328,313,655,-8,-488,473,909,1039,783,581,491,354
-334,325,667,-8,-500,503,945,1093,843,629,533,372
-334,367,697,-20,-506,533,975,1165,921,731,629,438
-316,433,715,-50,-506,569,987,1267,1041,845,743,534
-250,505,727,-110,-506,611,999,1405,1185,1001,893,666
-178,595,733,-188,-482,641,1011,1561,1365,1181,1055,804
-76,667,733,-290,-440,671,1017,1723,1533,1343,1229,948
1,745,733,-368,-392,713,1017,1837,1695,1517,1403,1104
97,829,733,-458,-338,749,1011,1921,1845,1691,1583,1266
205,949,733,-572,-284,821,963,1987,2007,1889,1811,1476
319,1075,739,-692,-242,887,873,2041,2186,2110,2056,1704
391,1165,745,-782,-206,947,825,2094,2378,2314,2278,1896
475,1225,745,-848,-164,977,771,2136,2557,2523,2481,2063
559,1267,733,-896,-110,983,705,2148,2695,2691,2655,2219
601,1285,715,-926,-68,983,645,2148,2803,2811,2781,2333
601,1291,715,-932,-68,989,627,2160,2905,2919,2871,2393
553,1297,751,-926,-104,1007,621,2184,3007,3009,2949,2434
475,1297,817,-902,-164,1031,615,2196,3085,3081,3003,2476
433,1261,817,-848,-176,1031,603,2196,3097,3087,3003,2476
391,1105,763,-746,-176,929,573,2094,3019,2979,2871,2369
325,913,631,-608,-170,761,549,1843,2683,2601,2529,2099
217,715,535,-458,-170,617,519,1531,2246,2152,2080,1752
91,535,493,-296,-176,509,477,1153,1725,1637,1577,1350
-52,367,463,-140,-218,419,417,721,1173,1109,1061,942
-166,241,445,-20,-260,341,321,367,741,689,635,600
-232,169,427,45,-290,299,201,103,453,407,359,354
-274,121,415,81,-308,263,81,-112,255,227,173,198
-286,91,403,99,-314,233,-3,-238,135,119,65,84
-286,73,385,105,-314,221,-68,-322,63,59,11,36
-286,61,343,111,-308,191,-110,-388,-14,-6,-18,6
-280,43,301,117,-296,161,-146,-460,-110,-90,-54,-23
-268,19,247,117,-260,125,-176,-508,-188,-156,-96,-53
-238,1,187,117,-218,95,-200,-526,-242,-210,-138,-77
-196,-10,145,117,-176,65,-212,-526,-272,-240,-156,-89
-166,-16,121,111,-152,47,-212,-520,-290,-258,-168,-95
-142,-22,109,105,-134,35,-212,-502,-308,-270,-180,-101
-130,-22,97,99,-122,35,-212,-460,-314,-276,-180,-101
-118,-22,85,93,-110,29,-200,-418,-314,-276,-180,-101
-106,-22,73,87,-86,23,-182,-382,-308,-276,-180,-101
-100,-28,55,81,-74,11,-164,-346,-296,-276,-180,-101
-88,-28,37,75,-62,-1,-152,-328,-290,-276,-180,-101
-82,-34,25,75,-56,-6,-146,-316,-284,-276,-180,-101
-76,-40,13,75,-50,-12,-140,-304,-284,-276,-180,-101
-70,-40,7,69,-44,-18,-134,-298,-284,-276,-180,-101
-64,-40,1,63,-44,-18,-134,-298,-284,-276,-180,-101
-58,-40,-5,63,-38,-18,-134,-298,-284,-276,-180,-101
-52,-40,-5,63,-32,-24,-134,-298,-284,-276,-180,-101
-46,-40,-10,57,-20,-24,-134,-298,-284,-276,-180,-101
-40,-40,-16,51,-8,-24,-134,-298,-284,-276,-180,-101
-34,-40,-22,51,-3,-24,-134,-298,-284,-276,-180,-101
-28,-40,-28,51,3,-24,-134,-298,-284,-276,-180,-101
-28,-40,-28,51,9,-30,-134,-298,-284,-276,-186,-107
-28,-40,-28,51,9,-30,-134,-292,-284,-276,-186,-113
-22,-40,-28,51,15,-30,-134,-292,-284,-276,-186,-113
-22,-40,-34,51,15,-36,-134,-286,-284,-276,-186,-113
-22,-40,-40,51,15,-36,-134,-286,-284,-276,-186,-113
-22,-40,-46,51,21,-42,-134,-286,-284,-276,-186,-113
-22,-40,-46,51,21,-48,-134,-280,-284,-276,-186,-113
-22,-40,-52,51,21,-48,-134,-280,-284,-276,-186,-113
-16,-40,-52,45,27,-54,-134,-280,-284,-276,-186,-113
-16,-46,-58,45,27,-60,-134,-274,-284,-276,-186,-113
-16,-46,-58,45,27,-60,-134,-274,-284,-276,-186,-113
-10,-46,-64,45,27,-60,-134,-274,-284,-276,-186,-113
-4,-46,-64,39,33,-60,-134,-268,-284,-276,-186,-113
1,-46,-70,39,39,-60,-134,-262,-284,-276,-186,-113
7,-46,-76,39,45,-60,-134,-256,-284,-276,-186,-113
13,-46,-82,39,51,-60,-134,-256,-278,-276,-186,-113
13,-46,-82,39,51,-60,-134,-256,-278,-276,-186,-113
13,-46,-88,39,57,-60,-134,-256,-278,-276,-186,-113
13,-46,-88,33,57,-60,-140,-256,-278,-276,-186,-113
19,-46,-88,27,57,-60,-146,-256,-278,-276,-186,-113
19,-46,-88,27,57,-60,-146,-256,-278,-276,-186,-113
19,-46,-88,27,57,-66,-146,-250,-278,-276,-192,-113
25,-46,-88,27,63,-66,-146,-244,-278,-276,-192,-113
31,-46,-88,21,69,-66,-146,-244,-278,-276,-192,-113
37,-46,-88,15,75,-66,-152,-244,-272,-276,-192,-113
43,-46,-94,15,75,-66,-158,-244,-266,-276,-192,-113
43,-46,-100,9,75,-66,-158,-244,-260,-276,-192,-113
43,-46,-106,9,81,-72,-158,-244,-260,-276,-192,-113
43,-46,-112,9,81,-72,-158,-238,-260,-276,-192,-113
49,-46,-118,9,87,-78,-158,-232,-260,-276,-192,-113
55,-46,-124,9,87,-84,-158,-226,-254,-276,-186,-107
61,-46,-130,9,87,-84,-158,-226,-248,-270,-180,-101
61,-46,-130,3,93,-84,-164,-226,-248,-270,-180,-101
67,-46,-130,3,99,-84,-170,-226,-248,-270,-180,-101
67,-46,-130,-3,105,-90,-170,-226,-248,-270,-180,-101
67,-46,-130,-3,105,-90,-170,-226,-248,-270,-180,-101
73,-46,-136,-8,111,-90,-176,-226,-248,-270,-180,-101
79,-46,-142,-14,117,-90,-182,-226,-248,-270,-180,-101
91,-46,-148,-14,123,-90,-182,-226,-248,-270,-180,-101
97,-46,-154,-20,129,-96,-188,-226,-248,-270,-180,-101
103,-46,-154,-20,129,-96,-194,-226,-248,-270,-180,-101
109,-46,-154,-20,129,-102,-194,-220,-248,-270,-180,-101
115,-46,-160,-26,135,-102,-200,-220,-248,-270,-180,-101
115,-46,-166,-26,141,-108,-200,-208,-242,-270,-180,-95
121,-46,-178,-32,147,-114,-200,-202,-242,-264,-174,-89
127,-46,-184,-38,159,-114,-200,-190,-236,-258,-168,-89
139,-46,-196,-38,171,-120,-200,-184,-230,-258,-162,-89
151,-46,-208,-38,177,-126,-200,-178,-230,-252,-156,-89
163,-46,-214,-44,183,-126,-206,-178,-224,-252,-156,-89
169,-46,-214,-50,189,-126,-206,-178,-218,-246,-156,-83
175,-46,-214,-56,195,-126,-206,-172,-218,-246,-156,-77
175,-46,-220,-62,195,-126,-206,-166,-212,-240,-156,-71
175,-46,-220,-68,195,-132,-206,-154,-212,-234,-156,-65
181,-40,-220,-68,201,-132,-212,-148,-206,-228,-150,-59
181,-34,-226,-74,207,-132,-212,-136,-200,-228,-144,-47
187,-28,-226,-80,207,-132,-212,-130,-194,-222,-132,-41
193,-28,-226,-86,207,-132,-212,-118,-188,-216,-126,-35
199,-22,-226,-86,207,-132,-212,-112,-182,-210,-120,-29
205,-22,-226,-92,207,-132,-212,-106,-182,-204,-114,-23
211,-16,-226,-98,207,-126,-212,-100,-176,-198,-108,-17
217,-10,-226,-104,207,-120,-212,-88,-170,-192,-102,-5
217,1,-226,-110,207,-114,-212,-76,-158,-180,-90,6
223,13,-226,-116,207,-114,-212,-64,-146,-162,-78,18
223,19,-226,-122,207,-114,-212,-52,-134,-150,-66,30
223,19,-226,-122,207,-108,-212,-40,-122,-144,-60,42
223,25,-220,-122,207,-102,-212,-28,-116,-138,-48,54
223,25,-220,-122,207,-96,-212,-16,-104,-132,-42,60
223,31,-214,-122,207,-90,-206,-10,-98,-126,-36,66
223,37,-202,-122,207,-84,-200,-4,-92,-120,-30,66
223,43,-190,-122,207,-72,-194,7,-86,-114,-24,72
223,49,-178,-122,201,-60,-188,13,-80,-108,-18,78
223,55,-166,-122,195,-54,-182,19,-74,-102,-12,84
223,67,-154,-122,189,-48,-176,31,-62,-90,-6,90
223,73,-148,-122,183,-42,-170,43,-50,-78,5,102
217,79,-142,-122,183,-36,-164,55,-38,-60,23,114
211,85,-136,-122,177,-30,-158,67,-20,-48,35,120
211,85,-130,-122,171,-24,-146,79,-8,-36,47,126
205,85,-118,-122,165,-18,-134,85,3,-24,59,132
193,91,-100,-122,153,-6,-116,91,15,-12,71,138
181,97,-88,-122,141,5,-104,97,21,0,77,144
169,97,-70,-122,129,17,-98,103,27,11,83,150
157,103,-46,-122,111,29,-86,109,33,17,89,156
151,109,-34,-122,99,35,-80,109,39,23,89,156
145,115,-22,-122,87,41,-74,109,45,23,89,156
133,115,-16,-122,75,47,-68,109,45,23,89,156
127,121,-10,-122,69,53,-56,109,51,23,89,156
121,121,-5,-122,63,59,-44,109,57,23,89,156
115,121,1,-116,57,65,-38,109,57,23,89,150
109,121,13,-110,45,65,-32,109,57,23,89,144
97,121,19,-104,39,65,-26,103,57,23,89,144
85,121,25,-104,33,65,-20,97,57,23,89,144
79,121,31,-98,27,65,-14,91,57,23,89,138
67,121,37,-92,21,65,-14,79,57,23,83,126
55,121,43,-86,15,65,-14,67,51,23,77,120
43,121,43,-80,9,65,-14,55,51,17,65,114
37,115,43,-74,3,65,-14,49,45,11,59,102
31,103,43,-68,-3,65,-8,43,39,5,47,90
25,91,43,-56,-8,65,-8,31,27,0,35,78
19,85,43,-50,-14,65,-8,19,21,-6,23,72
13,79,43,-44,-20,65,-8,7,15,-18,11,60
7,73,43,-38,-20,65,-8,-4,3,-30,0,48
1,67,43,-32,-20,65,-8,-16,-2,-42,-12,42
-4,67,43,-26,-20,65,-8,-28,-8,-48,-24,30
-10,61,43,-20,-20,59,-8,-34,-14,-54,-30,24
-16,55,43,-14,-20,47,-8,-40,-20,-60,-36,18
-22,49,43,-8,-20,47,-8,-52,-32,-66,-42,12
-22,43,43,-8,-26,47,-8,-64,-44,-66,-42,6
-22,37,43,-3,-32,47,-8,-70,-50,-72,-48,1
-22,37,43,-3,-32,47,-8,-76,-50,-78,-54,-5
-22,31,43,3,-32,47,-8,-82,-50,-84,-60,-11
-28,25,43,9,-32,47,-8,-82,-50,-90,-66,-17
-34,25,43,15,-32,41,-8,-88,-56,-96,-72,-23
-34,25,43,15,-32,41,-8,-94,-62,-96,-78,-29
-40,25,43,15,-38,41,-8,-100,-68,-96,-78,-29
-40,19,43,21,-38,35,-8,-100,-68,-102,-84,-35
-40,13,43,21,-38,29,-8,-100,-68,-108,-84,-35
-40,13,43,21,-38,23,-8,-100,-74,-108,-84,-35
-46,7,43,21,-38,23,-8,-106,-74,-108,-90,-41
-46,7,43,21,-38,23,-8,-106,-74,-108,-90,-41
-46,7,43,21,-38,23,-8,-106,-80,-108,-90,-41
-46,7,43,21,-38,23,-8,-112,-80,-114,-90,-41
-46,7,43,21,-38,23,-14,-118,-86,-114,-90,-41
-46,7,43,21,-38,23,-14,-118,-86,-114,-96,-41
-46,7,43,21,-38,23,-14,-118,-86,-114,-102,-41
-46,7,43,21,-38,23,-14,-118,-86,-114,-108,-41
-46,7,43,21,-38,23,-20,-118,-86,-114,-108,-41
-46,7,43,21,-38,23,-20,-118,-86,-114,-108,-41
-46,7,43,21,-38,23,-20,-118,-86,-114,-108,-41
-46,7,43,21,-38,23,-20,-118,-86,-114,-108,-41
-46,1,43,21,-38,23,-20,-118,-86,-120,-108,-41
-46,1,43,21,-38,23,-20,-118,-86,-120,-108,-41
-46,1,43,21,-38,23,-20,-118,-86,-120,-108,-41
-46,1,43,21,-38,23,-20,-118,-86,-120,-108,-41
-46,1,43,21,-38,17,-20,-118,-86,-120,-108,-41
-46,1,43,21,-38,17,-20,-118,-86,-120,-108,-41
-46,1,43,21,-38,17,-20,-118,-86,-120,-108,-41
-46,1,43,21,-38,17,-20,-118,-86,-120,-108,-41
-46,-4,43,21,-38,17,-20,-118,-86,-120,-108,-41
-46,-10,37,21,-38,17,-20,-118,-86,-120,-108,-41
-46,-10,37,21,-38,17,-20,-118,-86,-120,-108,-41
-46,-10,37,21,-38,17,-20,-118,-86,-120,-108,-41
-46,-10,37,21,-38,11,-20,-118,-86,-114,-108,-41
-46,-10,37,21,-38,5,-20,-118,-86,-114,-108,-41
-46,-10,37,21,-38,5,-20,-118,-86,-114,-108,-41
-46,-10,37,21,-38,5,-20,-118,-86,-114,-108,-41
-46,-10,37,21,-38,5,-20,-118,-86,-114,-108,-41
-46,-10,37,21,-38,5,-20,-118,-86,-114,-108,-41
-46,-10,37,21,-38,5,-20,-118,-86,-114,-102,-35
-46,-10,37,21,-38,5,-20,-118,-86,-114,-102,-35
-46,-10,37,21,-38,5,-20,-118,-86,-114,-102,-35
-46,-10,37,21,-38,5,-20,-118,-86,-114,-102,-35
-46,-10,37,21,-38,5,-20,-118,-86,-114,-102,-35
-46,-10,37,21,-38,5,-20,-118,-86,-114,-102,-35
-46,-10,37,21,-38,5,-20,-118,-86,-114,-102,-35
-46,-10,37,21,-38,5,-20,-118,-86,-114,-102,-35
-46,-10,37,21,-38,5,-20,-118,-86,-114,-102,-35
-46,-10,37,21,-38,5,-20,-118,-86,-114,-102,-35
-46,-10,37,21,-38,5,-20,-118,-86,-114,-102,-35
-46,-10,37,21,-38,5,-20,-118,-86,-114,-102,-35
-46,-10,37,21,-38,5,-20,-118,-86,-114,-102,-35
-46,-10,37,21,-38,5,-20,-118,-86,-114,-102,-35
-46,-10,37,21,-38,5,-20,-118,-86,-114,-102,-35
-46,-4,37,21,-38,5,-20,-118,-86,-114,-102,-35
-46,-4,37,21,-38,5,-20,-118,-86,-114,-102,-35
-46,-4,37,21,-38,5,-20,-118,-86,-114,-102,-35
-46,-4,37,21,-38,5,-26,-118,-86,-114,-102,-35
-40,1,37,15,-38,5,-32,-118,-86,-114,-102,-35
-34,1,37,15,-38,5,-32,-118,-86,-114,-102,-35
-34,7,37,15,-38,5,-32,-118,-86,-114,-102,-35
-34,7,37,9,-38,5,-32,-118,-86,-114,-102,-35
-34,7,37,9,-38,5,-32,-124,-86,-114,-102,-35
-34,7,37,9,-38,5,-32,-124,-92,-114,-102,-35
-34,7,37,9,-38,5,-32,-130,-98,-114,-102,-35
-34,7,37,9,-38,5,-38,-130,-98,-114,-102,-35
-34,7,37,9,-38,5,-44,-130,-104,-114,-102,-35
-34,7,37,9,-38,5,-50,-130,-110,-114,-102,-35
-34,7,37,9,-38,5,-50,-130,-110,-114,-102,-35
-34,7,37,9,-38,5,-50,-130,-110,-114,-102,-35
-34,7,37,9,-38,5,-50,-130,-110,-114,-102,-35
-34,7,37,9,-38,5,-50,-130,-110,-114,-102,-35
-34,7,37,9,-38,5,-50,-130,-110,-114,-102,-35
-34,7,37,9,-38,5,-50,-130,-110,-114,-102,-35
-34,7,37,9,-38,5,-50,-130,-116,-114,-102,-35
-34,7,37,9,-38,5,-50,-136,-122,-114,-102,-35
-34,7,37,9,-38,5,-50,-136,-122,-114,-102,-35
-34,7,37,9,-38,5,-50,-136,-122,-114,-108,-35
-34,7,37,9,-38,5,-50,-136,-128,-120,-108,-35
-34,7,37,9,-38,5,-50,-136,-134,-120,-108,-35
-34,7,31,9,-38,5,-50,-142,-134,-120,-108,-35
-34,7,31,9,-38,5,-50,-142,-134,-120,-114,-35
-34,7,31,9,-38,5,-50,-142,-134,-120,-114,-35
-34,7,31,9,-38,5,-56,-148,-134,-120,-114,-35
-34,7,31,9,-38,5,-56,-148,-134,-120,-114,-35
-34,7,31,9,-38,5,-56,-148,-140,-126,-114,-35
-34,7,31,9,-38,5,-56,-148,-140,-126,-114,-35
-34,7,31,9,-38,5,-56,-148,-140,-126,-120,-35
-34,7,31,9,-38,5,-56,-154,-140,-126,-120,-35
-34,7,31,9,-38,5,-56,-154,-140,-132,-120,-35
-34,7,31,9,-38,5,-56,-154,-140,-138,-126,-35
-34,7,31,9,-38,5,-56,-154,-146,-138,-126,-35
-34,7,31,9,-38,5,-56,-160,-152,-138,-126,-35
-34,7,31,9,-38,5,-56,-160,-158,-138,-126,-35
-34,7,31,9,-38,5,-56,-160,-158,-138,-132,-35
-34,7,31,9,-38,5,-56,-160,-158,-138,-132,-35
-34,7,31,9,-38,5,-56,-160,-158,-138,-132,-35
-34,7,31,9,-38,5,-56,-160,-158,-138,-132,-35
-34,7,31,9,-38,5,-56,-160,-158,-138,-132,-35
-34,7,31,9,-38,5,-56,-160,-158,-138,-132,-35
-34,7,31,9,-38,5,-56,-160,-158,-138,-132,-35
-34,7,31,9,-38,5,-56,-160,-158,-138,-132,-35
-34,7,31,9,-38,11,-56,-160,-158,-138,-132,-35
-34,13,31,9,-38,11,-56,-160,-158,-138,-132,-35
-28,19,31,9,-38,11,-50,-154,-158,-138,-132,-35
-22,25,37,3,-38,17,-44,-148,-158,-138,-132,-35
-16,31,37,-3,-38,23,-38,-142,-152,-132,-132,-35
-10,37,37,-8,-38,29,-32,-136,-146,-126,-126,-35
-4,37,37,-14,-38,35,-32,-136,-140,-120,-120,-29
-4,37,37,-14,-38,41,-32,-136,-134,-114,-114,-23
1,37,37,-20,-32,41,-32,-130,-134,-114,-108,-17
1,37,37,-26,-32,41,-32,-130,-128,-114,-102,-11
7,37,37,-32,-26,41,-32,-130,-122,-114,-102,-5
7,37,37,-32,-20,41,-32,-130,-116,-108,-102,-5
7,37,37,-32,-20,41,-32,-130,-116,-108,-102,-5
13,37,37,-38,-14,41,-32,-130,-110,-108,-102,-5
19,37,37,-44,-8,41,-32,-124,-104,-102,-96,-5
31,43,31,-44,-3,41,-32,-112,-92,-96,-90,1
37,43,25,-44,3,41,-32,-106,-86,-96,-90,1
37,43,25,-50,3,41,-32,-106,-80,-96,-90,1
43,49,25,-50,3,41,-32,-106,-80,-96,-90,1
43,55,25,-50,3,41,-32,-106,-74,-90,-90,1
43,55,25,-50,3,41,-32,-106,-74,-90,-90,1
43,55,25,-50,3,41,-32,-106,-74,-90,-90,1
43,55,25,-50,3,41,-32,-106,-74,-90,-90,1
43,55,25,-50,9,41,-32,-106,-74,-90,-90,1
43,55,19,-50,15,41,-38,-106,-74,-90,-90,1
43,55,13,-50,15,35,-44,-112,-74,-90,-90,1
43,55,7,-50,15,29,-56,-118,-74,-90,-90,1
43,49,1,-50,21,23,-62,-124,-80,-96,-96,1
43,37,-10,-50,27,11,-68,-136,-86,-102,-102,1
43,31,-16,-50,27,5,-74,-154,-98,-114,-108,-5
43,25,-22,-50,27,-1,-86,-166,-122,-126,-120,-11
43,19,-28,-44,27,-6,-98,-184,-134,-138,-132,-23
43,13,-34,-38,27,-12,-104,-196,-152,-150,-144,-29
43,13,-34,-38,27,-12,-110,-208,-164,-162,-156,-35
