,,,,,,,,,,,
2019-09-04 23:54:46,,,,,,,,,,,
,,,,,,,,,,,
I,II,III,aVR,aVL,aVF,V1,V2,V3,V4,V5,V6
127,701,507,-407,-135,602,166,453,212,716,2594,1150
25,53,75,-41,-81,68,-61,-122,-21,20,-61,-121
-4,11,45,-11,-63,32,-91,-164,-51,-21,-193,-193
-10,5,27,-6,-51,26,-97,-176,-57,-39,-211,-211
-10,5,21,-6,-45,26,-97,-182,-63,-45,-217,-217
-10,5,21,-6,-45,26,-103,-188,-63,-45,-217,-223
-16,5,21,-6,-45,26,-103,-188,-63,-45,-217,-223
-16,5,21,-6,-33,26,-103,-188,-57,-45,-217,-223
-10,5,9,-6,-21,20,-103,-176,-45,-39,-217,-223
-10,5,3,-6,-15,14,-103,-164,-33,-33,-217,-223
-4,11,3,-11,-9,14,-103,-152,-27,-33,-217,-217
1,23,3,-23,-9,14,-103,-140,-21,-27,-211,-211
13,35,3,-35,-3,14,-97,-128,-9,-3,-193,-193
31,47,3,-47,-3,20,-97,-116,26,20,-163,-163
55,107,15,-89,-3,56,-97,-104,50,32,-145,-151
73,137,27,-113,-3,74,-97,-80,86,62,-115,-121
91,149,27,-125,8,80,-91,-32,134,104,-73,-79
121,155,27,-137,26,86,-73,21,188,146,-31,-49
157,167,15,-155,56,86,-49,75,230,182,-1,-19
181,179,9,-179,86,92,-25,135,272,206,16,-7
181,203,15,-191,86,104,28,225,308,224,22,-1
181,209,15,-191,86,110,124,321,344,242,28,-1
193,209,9,-197,92,110,166,363,362,254,34,-1
235,221,-20,-239,116,110,172,399,404,266,46,4
337,239,-68,-281,182,104,160,429,464,296,88,34
487,245,-224,-347,326,50,82,465,566,356,154,94
679,251,-404,-449,536,-27,-31,513,692,452,274,202
901,323,-524,-611,710,-45,-133,591,854,566,400,316
1093,437,-614,-767,866,-51,-241,657,1034,710,568,460
1291,545,-698,-917,1016,-51,-337,705,1238,878,742,622
1447,683,-740,-1061,1094,-45,-415,747,1448,1070,958,820
1579,863,-740,-1229,1136,38,-445,831,1688,1298,1192,1006
1711,1013,-740,-1367,1178,116,-457,945,1958,1502,1396,1174
1777,1067,-740,-1433,1226,146,-451,1071,2197,1652,1552,1282
1783,1067,-740,-1433,1232,152,-403,1149,2353,1748,1624,1330
1747,1031,-734,-1385,1220,152,-301,1167,2383,1760,1630,1330
1555,971,-650,-1265,1094,152,-187,1167,2383,1754,1618,1312
1357,905,-524,-1127,938,164,-79,1155,2317,1682,1540,1240
1141,755,-446,-953,800,164,16,1089,2095,1526,1372,1120
865,611,-338,-731,602,164,106,945,1790,1280,1114,916
589,467,-200,-527,404,158,184,789,1424,986,826,658
403,305,-164,-365,284,122,226,627,1070,734,556,430
241,119,-158,-185,212,14,238,399,692,482,298,208
91,-60,-158,-23,146,-75,238,165,302,200,22,-13
13,-156,-158,72,98,-129,226,3,62,8,-163,-175
-4,-174,-164,90,92,-159,184,-44,-15,-63,-223,-223
-4,-180,-170,96,92,-171,130,-74,-51,-99,-253,-241
-10,-186,-176,102,92,-177,82,-104,-81,-117,-265,-253
-16,-186,-176,102,86,-177,28,-122,-99,-123,-271,-259
-22,-186,-176,102,80,-177,-13,-134,-111,-129,-277,-265
-22,-174,-164,102,74,-171,-37,-140,-111,-129,-277,-265
-22,-162,-152,96,68,-159,-55,-146,-117,-129,-277,-265
-28,-156,-128,96,56,-147,-67,-158,-123,-129,-277,-265
-34,-144,-98,90,32,-123,-79,-170,-123,-129,-277,-265
-40,-126,-68,84,8,-93,-85,-176,-123,-129,-277,-265
-46,-120,-44,84,-15,-75,-91,-182,-129,-129,-277,-265
-58,-120,-32,84,-27,-69,-97,-188,-135,-129,-277,-265
-64,-114,-26,84,-33,-63,-103,-194,-141,-129,-277,-265
-70,-102,-14,84,-39,-51,-103,-194,-147,-129,-277,-265
-76,-96,-3,84,-45,-39,-109,-194,-153,-129,-277,-265
-88,-96,-3,90,-51,-39,-109,-194,-159,-129,-277,-265
-94,-108,-14,96,-51,-51,-109,-194,-159,-129,-277,-265
-94,-114,-20,102,-51,-57,-109,-194,-159,-129,-277,-259
-94,-114,-14,102,-51,-57,-109,-200,-165,-129,-277,-259
-94,-102,-3,102,-57,-45,-109,-212,-177,-135,-283,-259
-94,-96,-3,96,-57,-45,-109,-212,-183,-141,-289,-259
-94,-96,-3,96,-57,-45,-109,-212,-183,-141,-289,-259
-100,-102,-3,96,-57,-45,-109,-212,-183,-141,-289,-259
-100,-102,-3,96,-57,-45,-109,-212,-183,-141,-289,-259
-100,-102,-3,96,-57,-45,-109,-212,-183,-141,-289,-259
-100,-102,-3,96,-57,-45,-109,-212,-183,-141,-289,-253
-100,-102,-3,96,-57,-45,-109,-212,-183,-141,-289,-253
-100,-102,-3,96,-57,-45,-109,-212,-183,-141,-289,-247
-106,-96,3,96,-63,-45,-109,-212,-183,-141,-289,-247
-106,-96,3,96,-63,-45,-109,-212,-183,-141,-289,-247
-106,-96,3,96,-63,-45,-109,-212,-183,-141,-289,-247
-106,-96,3,102,-63,-45,-109,-212,-183,-141,-289,-247
-106,-96,3,102,-69,-45,-109,-212,-183,-141,-289,-247
-106,-90,9,102,-69,-39,-109,-212,-189,-141,-289,-247
-106,-84,9,102,-69,-33,-109,-212,-189,-141,-289,-247
-106,-90,9,102,-69,-33,-109,-212,-189,-141,-289,-247
-106,-96,-3,102,-63,-45,-109,-212,-189,-141,-289,-247
-106,-96,-3,102,-57,-45,-109,-212,-189,-141,-289,-247
-106,-96,-3,102,-57,-45,-109,-212,-189,-141,-289,-247
-106,-96,-3,102,-57,-45,-109,-212,-189,-141,-289,-247
-106,-96,-3,102,-57,-45,-109,-212,-189,-141,-289,-247
-100,-96,-3,102,-57,-45,-103,-206,-189,-141,-289,-247
-100,-96,-3,102,-57,-45,-97,-200,-189,-141,-289,-247
-100,-96,-3,102,-57,-45,-97,-200,-189,-141,-289,-247
-100,-96,3,102,-63,-39,-97,-200,-189,-141,-289,-247
-100,-90,9,102,-63,-33,-91,-200,-189,-141,-289,-241
-100,-90,9,102,-63,-33,-85,-194,-189,-135,-283,-235
-100,-96,9,102,-63,-33,-79,-188,-189,-135,-277,-229
-100,-96,9,102,-63,-33,-73,-188,-189,-135,-277,-229
-106,-90,21,102,-69,-27,-73,-188,-189,-135,-277,-229
-106,-90,21,102,-69,-27,-73,-188,-189,-135,-277,-229
-106,-90,21,102,-69,-33,-67,-188,-189,-135,-277,-223
-106,-90,15,102,-69,-39,-67,-188,-189,-135,-271,-223
-106,-96,9,102,-69,-45,-67,-188,-189,-135,-271,-223
-106,-96,9,102,-69,-45,-67,-188,-189,-135,-271,-223
-106,-90,9,96,-69,-33,-67,-188,-189,-135,-271,-223
-106,-90,15,96,-69,-27,-67,-188,-183,-135,-271,-223
-106,-90,15,96,-69,-27,-67,-188,-183,-135,-265,-223
-106,-90,15,96,-69,-27,-67,-188,-183,-135,-265,-223
-106,-90,15,96,-69,-27,-67,-188,-183,-135,-265,-223
-106,-90,15,96,-69,-27,-67,-182,-183,-135,-265,-223
-106,-90,15,96,-69,-33,-67,-170,-177,-135,-259,-217
-106,-90,15,96,-69,-33,-67,-170,-177,-135,-259,-217
-106,-90,15,96,-69,-39,-67,-170,-177,-135,-259,-217
-112,-102,15,108,-69,-45,-61,-170,-171,-135,-259,-217
-118,-108,15,114,-69,-51,-55,-170,-165,-135,-259,-217
-118,-114,15,120,-69,-51,-55,-164,-165,-135,-259,-217
-124,-114,15,126,-69,-51,-55,-164,-165,-135,-259,-217
-124,-120,15,126,-69,-51,-55,-164,-165,-135,-259,-217
-124,-120,9,126,-69,-51,-55,-158,-165,-135,-259,-211
-124,-120,9,126,-69,-51,-55,-158,-165,-135,-259,-211
-130,-120,15,126,-75,-51,-55,-158,-159,-135,-259,-211
-130,-120,15,126,-75,-51,-55,-152,-153,-135,-259,-211
-124,-120,9,126,-69,-51,-55,-146,-153,-135,-259,-211
-124,-120,9,126,-69,-51,-55,-140,-153,-135,-259,-211
-130,-120,9,132,-69,-51,-55,-134,-147,-135,-253,-205
-136,-132,9,138,-69,-57,-55,-128,-141,-135,-253,-205
-136,-132,9,138,-69,-57,-55,-122,-135,-135,-253,-205
-136,-108,21,126,-75,-39,-49,-110,-129,-129,-253,-199
-130,-96,21,114,-75,-33,-43,-92,-105,-123,-247,-193
-130,-102,15,114,-75,-33,-37,-80,-99,-117,-241,-187
-136,-120,9,126,-75,-45,-31,-74,-93,-117,-241,-181
-142,-132,9,132,-75,-51,-25,-62,-87,-117,-235,-181
-142,-132,9,132,-75,-51,-19,-50,-75,-111,-229,-181
-142,-126,9,132,-75,-51,-13,-38,-69,-105,-223,-181
-142,-120,9,132,-75,-51,-13,-32,-63,-99,-223,-175
-142,-114,9,132,-75,-51,-7,-20,-51,-87,-217,-175
-142,-114,9,132,-75,-51,-1,-2,-39,-81,-211,-175
-136,-114,9,132,-75,-51,4,9,-27,-75,-205,-175
-124,-108,9,120,-69,-51,10,21,-15,-69,-199,-175
-118,-108,9,114,-63,-51,22,51,-3,-63,-193,-169
-118,-108,9,114,-63,-51,34,69,14,-51,-181,-157
-118,-108,9,114,-63,-51,40,81,26,-45,-175,-151
-118,-102,9,108,-63,-45,46,93,38,-39,-169,-151
-118,-96,9,108,-63,-45,52,105,56,-27,-163,-145
-112,-96,9,108,-57,-45,58,129,80,-15,-151,-133
-112,-102,-3,108,-51,-51,70,159,110,8,-139,-121
-112,-108,-3,108,-51,-57,76,189,134,20,-127,-109
-112,-108,-3,108,-51,-57,82,201,146,26,-115,-103
-112,-108,-3,108,-51,-57,88,213,158,32,-109,-103
-112,-108,-3,108,-51,-57,94,225,164,32,-103,-103
-106,-96,-3,102,-51,-51,100,237,170,38,-97,-97
-94,-78,-3,90,-45,-39,100,249,182,50,-91,-91
-88,-72,-3,84,-45,-33,100,261,194,56,-85,-85
-88,-72,-3,84,-45,-33,106,273,206,62,-79,-79
-88,-72,-3,84,-45,-33,112,291,230,74,-67,-73
-82,-72,-3,84,-39,-33,118,297,236,80,-61,-73
-76,-72,-3,78,-33,-33,118,303,242,80,-55,-73
-70,-66,-3,72,-27,-33,118,315,254,86,-49,-67
-64,-60,-3,66,-21,-33,124,327,266,86,-43,-61
-58,-60,-3,66,-21,-33,130,333,272,92,-37,-55
-52,-54,-3,54,-21,-27,130,339,278,92,-37,-49
-46,-48,-3,42,-21,-21,130,339,278,92,-37,-49
-46,-54,-14,42,-15,-27,136,351,284,104,-31,-43
-40,-66,-44,42,-3,-51,142,357,290,110,-25,-37
-34,-66,-44,42,2,-51,142,357,290,116,-25,-37
-34,-54,-44,36,2,-45,142,357,290,116,-25,-37
-28,-48,-38,36,2,-45,142,357,290,116,-25,-37
-22,-42,-32,36,2,-45,142,357,290,116,-25,-37
-22,-42,-32,36,2,-39,142,357,290,116,-25,-37
-22,-42,-32,36,8,-39,142,357,290,116,-25,-37
-16,-54,-44,36,14,-45,142,351,290,116,-25,-37
-16,-54,-44,36,14,-45,142,345,278,116,-25,-37
-16,-54,-44,36,14,-45,142,333,272,116,-25,-31
-16,-54,-44,36,14,-45,142,321,266,110,-25,-31
-16,-54,-44,36,14,-45,142,303,254,104,-25,-31
-16,-54,-44,36,14,-45,136,273,242,98,-25,-31
-16,-42,-38,36,14,-39,130,249,218,92,-25,-31
-16,-36,-32,36,14,-33,124,231,206,86,-31,-31
-16,-36,-26,36,14,-33,118,219,194,86,-37,-31
-16,-36,-26,36,14,-33,118,207,182,86,-37,-31
-16,-36,-26,36,14,-33,112,195,158,80,-43,-31
-16,-42,-26,36,14,-33,106,171,134,74,-49,-31
-22,-42,-26,36,8,-33,94,141,116,62,-55,-37
-22,-30,-14,30,2,-21,82,111,98,50,-67,-43
-22,-18,-8,24,-3,-9,70,93,80,38,-79,-49
-34,-18,-8,30,-9,-9,64,69,68,26,-85,-55
-46,-30,-8,42,-15,-15,58,57,56,20,-91,-61
-52,-42,-8,54,-15,-21,58,45,44,14,-97,-61
-52,-48,-8,54,-15,-27,58,39,38,8,-97,-61
-52,-48,-8,54,-15,-27,58,27,26,2,-103,-61
-64,-60,-8,66,-21,-33,52,15,14,-3,-115,-61
-70,-78,-8,72,-21,-39,40,3,-3,-9,-121,-61
-76,-84,-14,78,-21,-45,34,-8,-9,-15,-127,-61
-76,-84,-14,78,-21,-45,28,-14,-15,-15,-127,-61
-76,-78,-14,78,-21,-39,22,-20,-15,-15,-127,-61
-76,-78,-14,78,-21,-33,16,-32,-21,-15,-127,-61
-76,-78,-14,78,-21,-33,4,-44,-33,-21,-133,-67
-76,-78,-14,78,-21,-33,-1,-56,-45,-21,-133,-73
-76,-78,-14,78,-21,-33,-7,-62,-51,-21,-133,-73
-76,-78,-14,78,-21,-33,-7,-62,-51,-21,-133,-73
-76,-78,-14,78,-21,-33,-7,-62,-51,-21,-133,-73
-76,-78,-14,78,-27,-33,-13,-68,-57,-27,-133,-73
-82,-78,-8,78,-39,-33,-19,-74,-63,-33,-133,-79
-88,-78,-8,78,-45,-33,-19,-80,-69,-39,-133,-85
-88,-78,-8,78,-45,-33,-19,-86,-69,-39,-139,-85
-88,-84,-14,78,-39,-45,-19,-86,-69,-39,-139,-85
-88,-84,-14,78,-39,-45,-19,-86,-69,-39,-139,-85
-88,-84,-8,78,-39,-45,-25,-86,-69,-39,-139,-85
-88,-84,-3,78,-39,-45,-31,-86,-69,-39,-139,-85
-88,-90,-3,78,-39,-45,-37,-86,-69,-39,-139,-85
-88,-96,-3,84,-39,-45,-37,-86,-69,-39,-139,-85
-88,-96,-8,84,-39,-51,-37,-86,-69,-39,-139,-85
-82,-96,-20,84,-39,-57,-37,-86,-69,-39,-139,-85
-76,-84,-14,78,-39,-45,-37,-86,-69,-39,-139,-85
-76,-72,-3,72,-45,-33,-37,-86,-75,-45,-139,-85
-76,-72,-3,72,-45,-33,-37,-86,-75,-45,-139,-85
-76,-78,-3,78,-45,-33,-37,-86,-75,-45,-139,-85
-76,-84,-3,78,-45,-33,-37,-86,-75,-45,-139,-85
-76,-84,-3,78,-45,-33,-37,-86,-75,-45,-139,-85
-76,-84,-3,78,-45,-33,-37,-86,-75,-45,-139,-85
-76,-84,-3,78,-45,-33,-37,-86,-75,-45,-139,-85
-76,-84,-3,78,-45,-33,-37,-86,-75,-45,-139,-85
-76,-84,-3,78,-45,-33,-31,-80,-75,-45,-139,-85
-76,-84,-3,78,-45,-33,-31,-80,-75,-45,-139,-85
-76,-84,-3,78,-45,-33,-31,-80,-75,-45,-139,-85
-88,-84,-3,78,-45,-33,-25,-80,-69,-45,-139,-79
-88,-84,-3,78,-45,-33,-19,-80,-69,-45,-139,-73
-88,-72,3,78,-45,-27,-13,-80,-69,-45,-139,-67
-88,-66,3,72,-45,-27,-7,-80,-69,-45,-139,-67
-82,-60,3,72,-45,-27,-7,-80,-69,-45,-139,-67
-82,-60,3,72,-45,-27,-7,-80,-69,-45,-133,-67
-82,-66,3,72,-45,-27,-1,-80,-69,-45,-127,-67
-82,-66,3,72,-45,-27,4,-80,-69,-39,-121,-67
-82,-60,3,72,-45,-27,4,-80,-69,-39,-121,-67
-82,-60,3,72,-45,-27,4,-80,-69,-39,-121,-67
-82,-66,3,72,-45,-27,4,-80,-69,-39,-121,-67
-82,-66,3,72,-45,-27,10,-74,-63,-39,-115,-67
-82,-66,3,72,-45,-27,10,-74,-63,-39,-115,-67
-76,-60,3,72,-45,-27,10,-68,-63,-39,-115,-67
-70,-48,3,66,-45,-27,10,-68,-63,-39,-115,-67
-70,-42,3,66,-45,-21,10,-62,-57,-33,-115,-61
-70,-36,9,66,-45,-15,10,-56,-51,-27,-109,-49
-70,-36,15,66,-45,-15,10,-56,-51,-27,-109,-43
-70,-36,15,66,-45,-15,10,-56,-51,-27,-109,-43
-70,-36,15,66,-45,-15,10,-56,-51,-27,-109,-43
-58,-36,9,60,-39,-15,10,-56,-51,-27,-109,-43
-52,-30,9,54,-39,-9,10,-56,-51,-27,-109,-37
-52,-18,27,48,-39,8,10,-56,-51,-27,-109,-37
-52,-12,39,48,-45,14,10,-56,-51,-27,-109,-37
-52,-12,39,48,-51,14,10,-56,-51,-27,-109,-37
-52,-12,39,48,-51,14,10,-56,-51,-27,-109,-37
-52,-12,33,48,-51,8,10,-56,-51,-27,-103,-37
-52,-12,33,42,-51,8,10,-56,-51,-27,-103,-37
-52,-6,33,36,-51,8,10,-56,-51,-27,-103,-37
-52,-6,33,36,-51,8,10,-56,-51,-21,-103,-37
-46,-6,33,30,-45,8,10,-56,-51,-21,-103,-37
-46,-6,33,30,-39,8,10,-56,-51,-21,-103,-37
-46,-6,33,30,-39,8,10,-56,-51,-21,-103,-37
-46,-6,33,30,-33,8,10,-56,-51,-15,-97,-31
-40,-6,21,30,-27,2,10,-50,-51,-15,-97,-25
-40,-6,21,30,-27,2,10,-50,-51,-15,-97,-25
-40,0,33,30,-39,8,10,-50,-51,-15,-97,-25
-40,0,39,30,-45,14,10,-50,-51,-15,-97,-25
-40,0,39,30,-45,14,10,-50,-51,-15,-97,-25
-40,0,39,30,-45,14,10,-50,-51,-15,-97,-25
-40,5,45,30,-51,26,10,-56,-51,-15,-97,-25
-40,11,51,30,-51,32,10,-56,-51,-15,-97,-25
-46,11,51,30,-51,32,10,-56,-51,-15,-97,-25
-46,11,51,30,-51,32,10,-56,-51,-15,-97,-25
-46,5,45,30,-51,26,10,-56,-51,-15,-97,-25
-52,-6,39,36,-51,14,10,-56,-51,-15,-97,-25
-52,-12,33,36,-51,8,10,-62,-51,-15,-97,-25
-52,-12,33,36,-51,8,10,-62,-51,-21,-97,-25
-52,-12,33,36,-51,8,10,-62,-51,-21,-97,-25
-52,-18,33,36,-51,8,16,-62,-51,-21,-97,-25
-52,-24,33,36,-51,8,22,-62,-51,-21,-97,-25
-52,-30,33,42,-51,8,22,-62,-51,-21,-97,-25
-52,-30,33,42,-51,8,22,-62,-51,-21,-97,-25
-46,-30,27,36,-45,8,22,-68,-57,-21,-97,-25
-46,-30,27,36,-45,8,22,-68,-57,-21,-97,-25
-46,-30,27,36,-45,8,22,-68,-57,-21,-97,-25
-46,-30,27,36,-45,8,22,-68,-57,-21,-97,-25
-46,-30,27,36,-45,8,22,-68,-57,-21,-97,-25
-46,-30,27,36,-45,8,22,-74,-57,-21,-97,-25
-46,-24,27,36,-45,8,22,-74,-63,-27,-97,-25
-46,-18,33,36,-45,8,22,-74,-69,-33,-103,-25
-46,-18,33,36,-45,8,22,-74,-75,-33,-103,-25
-58,-24,33,42,-45,8,22,-74,-75,-33,-103,-25
-58,-24,33,42,-45,8,22,-74,-75,-33,-103,-25
-58,-24,33,42,-45,8,22,-80,-75,-39,-103,-25
-58,-24,33,42,-45,8,16,-86,-75,-45,-103,-25
-58,-24,33,42,-45,8,16,-92,-81,-51,-103,-25
-58,-24,33,42,-45,8,16,-92,-81,-51,-103,-25
-58,-24,33,42,-45,8,16,-92,-81,-51,-103,-25
-58,-24,21,42,-39,2,16,-92,-81,-51,-103,-25
-58,-30,15,42,-39,2,16,-92,-81,-51,-103,-25
-52,-30,15,42,-39,2,16,-92,-81,-51,-103,-25
-46,-24,15,36,-39,2,16,-92,-81,-51,-103,-25
-46,-24,15,36,-39,2,10,-92,-81,-51,-103,-25
-46,-24,15,42,-39,2,4,-98,-81,-51,-103,-31
-46,-24,15,42,-39,2,4,-98,-81,-51,-103,-31
-46,-24,15,42,-39,2,4,-98,-81,-51,-103,-31
-46,-18,15,42,-39,2,4,-98,-81,-51,-103,-31
-46,-18,15,42,-39,2,-1,-104,-87,-51,-103,-31
-46,-18,15,42,-39,2,-7,-110,-93,-51,-109,-31
-46,-18,15,42,-39,2,-7,-110,-93,-51,-109,-31
-46,-18,21,42,-39,2,-7,-110,-93,-51,-109,-31
-46,-18,21,42,-39,2,-7,-110,-93,-51,-109,-31
-40,-24,15,42,-33,-3,-7,-110,-93,-57,-115,-31
-40,-24,15,42,-33,-3,-7,-110,-93,-57,-115,-31
-40,-12,27,42,-39,2,-7,-110,-93,-57,-115,-31
-40,-6,33,42,-39,8,-7,-110,-93,-57,-115,-31
-40,-6,33,42,-39,8,-7,-110,-93,-57,-115,-31
-40,-6,33,42,-39,8,-13,-110,-93,-57,-115,-31
-40,-6,33,42,-39,8,-13,-110,-93,-57,-115,-37
-40,-6,33,42,-39,8,-13,-110,-93,-57,-115,-37
-40,-6,33,42,-39,8,-13,-110,-93,-57,-115,-37
-40,-6,33,42,-39,8,-13,-110,-93,-57,-115,-37
-40,-6,33,36,-39,8,-13,-110,-93,-57,-115,-37
-40,-6,33,30,-39,8,-13,-110,-93,-57,-115,-37
-40,-6,33,30,-39,8,-13,-110,-93,-57,-115,-37
-40,-6,33,30,-39,8,-13,-110,-93,-57,-115,-37
-40,-6,33,30,-39,8,-13,-110,-99,-57,-115,-37
-40,-12,33,30,-39,8,-13,-116,-99,-57,-115,-37
-40,-12,33,30,-39,8,-13,-116,-99,-57,-115,-37
-40,-12,33,30,-39,8,-13,-116,-99,-57,-115,-37
-40,-12,33,30,-39,8,-13,-116,-105,-57,-115,-37
-40,-12,33,30,-39,8,-13,-116,-105,-57,-115,-37
-40,-12,33,30,-39,8,-13,-116,-105,-57,-115,-37
-40,-12,33,30,-39,8,-13,-116,-111,-57,-115,-37
-34,-6,33,30,-39,8,-13,-116,-111,-57,-115,-37
-34,-6,33,30,-39,8,-13,-116,-111,-57,-115,-37
-34,-6,33,30,-39,8,-13,-116,-111,-57,-115,-37
-34,-6,33,30,-39,8,-13,-116,-111,-57,-115,-37
-34,-6,33,30,-39,8,-13,-116,-111,-57,-121,-37
-34,-6,33,30,-39,8,-13,-122,-111,-57,-121,-37
-34,-6,33,30,-39,8,-13,-122,-111,-57,-121,-37
-34,-6,33,30,-39,8,-13,-122,-111,-57,-121,-37
-34,-6,33,30,-39,8,-13,-122,-111,-57,-121,-37
-34,-6,33,30,-39,8,-13,-122,-111,-57,-121,-37
-34,0,39,30,-39,14,-13,-128,-117,-63,-121,-37
-34,5,39,24,-39,20,-13,-134,-123,-63,-121,-37
-34,5,39,24,-39,20,-13,-134,-123,-63,-121,-37
-34,-6,33,24,-39,14,-13,-134,-123,-63,-121,-37
-34,-6,33,24,-39,14,-13,-134,-123,-63,-121,-37
-34,-6,33,24,-39,14,-13,-134,-123,-63,-121,-37
-34,-6,33,24,-39,14,-13,-134,-123,-63,-121,-37
-34,-12,33,24,-39,14,-13,-134,-123,-63,-121,-37
-34,-12,27,24,-39,8,-13,-134,-123,-63,-121,-37
-34,-6,27,24,-39,8,-13,-134,-123,-63,-121,-37
-34,-6,27,24,-39,8,-13,-134,-123,-63,-121,-37
-34,-6,27,24,-39,8,-13,-134,-123,-63,-121,-37
-34,-6,27,24,-39,8,-13,-134,-123,-63,-121,-37
-34,-6,27,24,-39,8,-13,-134,-123,-63,-121,-37
-34,-6,27,24,-39,8,-13,-134,-123,-63,-121,-37
-34,-12,27,24,-39,8,-13,-134,-123,-63,-121,-37
-40,-18,27,24,-39,8,-13,-134,-123,-63,-121,-37
-40,-12,39,24,-45,14,-13,-134,-123,-63,-121,-37
-40,-6,45,24,-51,20,-13,-134,-123,-63,-121,-37
-40,-6,45,24,-51,20,-13,-134,-123,-63,-121,-37
-40,-12,39,30,-45,14,-13,-134,-123,-63,-121,-37
-40,-12,39,30,-45,14,-13,-134,-123,-63,-121,-37
-40,-12,39,30,-45,14,-13,-134,-123,-63,-121,-37
-46,-12,45,30,-45,14,-13,-134,-123,-63,-121,-37
-46,-12,45,30,-45,14,-13,-134,-123,-63,-121,-37
-40,-12,45,24,-45,14,-13,-134,-123,-63,-121,-37
-40,-12,45,24,-45,14,-13,-134,-123,-63,-121,-37
-46,-12,51,24,-51,20,-19,-140,-129,-63,-127,-37
-46,-12,51,24,-51,26,-19,-140,-129,-69,-127,-37
-46,-12,45,24,-45,26,-19,-140,-129,-69,-127,-37
-40,-12,39,24,-39,26,-19,-140,-129,-69,-127,-37
-40,-12,39,24,-39,26,-19,-140,-129,-69,-127,-37
-40,-12,39,24,-39,26,-19,-140,-129,-69,-127,-37
-34,-12,33,24,-39,26,-19,-140,-129,-69,-127,-37
-34,-12,33,24,-39,26,-19,-140,-129,-63,-127,-37
-34,-12,33,24,-39,26,-19,-134,-129,-63,-127,-37
-34,-6,33,18,-33,26,-19,-128,-129,-63,-121,-37
-28,17,39,6,-33,38,-19,-122,-129,-57,-121,-37
-22,59,57,-11,-33,68,-19,-122,-129,-51,-121,-37
-16,83,63,-23,-33,74,-13,-116,-117,-39,-115,-25
-10,83,63,-23,-33,74,10,-98,-105,-27,-103,-13
-10,83,69,-23,-33,80,22,-86,-93,-15,-91,-1
-10,113,111,-41,-39,104,28,-80,-87,-15,-91,-1
-10,125,123,-53,-45,122,34,-80,-81,-15,-85,4
-4,131,123,-59,-45,128,40,-68,-69,-9,-73,16
25,137,117,-83,-39,128,52,-50,-57,2,-61,28
61,137,99,-95,-15,128,58,-38,-45,14,-49,34
73,137,87,-101,-3,122,58,-32,-39,20,-43,40
73,137,81,-101,2,116,58,-26,-33,26,-37,46
73,143,81,-107,2,116,58,-26,-27,26,-31,52
73,143,81,-107,2,116,58,-20,-21,32,-31,52
79,143,75,-107,8,116,58,-20,-15,32,-31,52
85,143,63,-107,14,110,52,-20,-15,32,-31,52
85,131,45,-107,20,98,40,-20,-15,32,-31,52
85,119,33,-107,26,86,28,-20,-15,32,-31,52
85,113,27,-107,26,80,16,-32,-21,26,-31,52
85,107,21,-107,26,74,10,-44,-33,14,-37,52
85,101,15,-101,32,62,4,-56,-39,8,-43,46
85,95,3,-95,38,50,-1,-68,-51,2,-49,40
91,95,-8,-95,50,44,-1,-74,-57,-3,-55,40
91,89,-14,-95,56,38,-1,-80,-63,-9,-61,40
85,83,-14,-89,50,38,-1,-80,-69,-15,-61,40
79,83,-8,-89,44,38,-1,-86,-75,-15,-61,34
79,83,-8,-89,44,38,-1,-86,-75,-15,-61,28
79,77,-8,-83,44,38,-1,-86,-75,-15,-61,28
67,77,3,-77,32,38,-1,-86,-75,-15,-61,28
55,77,15,-71,20,38,-1,-86,-81,-21,-67,22
49,65,15,-59,20,38,4,-92,-87,-27,-73,16
37,53,15,-47,20,32,4,-98,-93,-39,-79,10
13,35,15,-23,8,26,4,-104,-105,-45,-85,4
1,23,15,-11,2,20,4,-110,-117,-51,-91,-1
-4,11,15,0,-3,20,4,-116,-123,-51,-97,-7
-10,5,15,6,-9,20,4,-122,-129,-57,-103,-13
-22,0,15,12,-15,20,4,-122,-135,-63,-109,-19
-28,-6,15,18,-21,14,4,-122,-135,-63,-109,-25
-34,-12,15,18,-21,14,4,-122,-141,-63,-115,-25
-34,-12,15,18,-21,14,4,-122,-141,-63,-115,-31
-34,-18,15,18,-21,14,10,-122,-141,-63,-115,-31
-34,-18,21,18,-21,14,16,-122,-141,-63,-115,-31
-34,-12,27,18,-27,14,22,-116,-135,-63,-115,-31
-34,-6,27,18,-27,14,22,-110,-129,-63,-115,-31
-34,-6,27,18,-27,14,22,-104,-123,-57,-109,-31
-34,-6,27,18,-27,14,22,-92,-111,-45,-97,-25
-34,5,33,12,-27,20,28,-62,-87,-33,-85,-13
-28,23,39,0,-27,26,28,-50,-75,-21,-73,-7
-16,41,39,-17,-27,32,28,-44,-63,-15,-67,-1
7,53,39,-29,-21,38,28,-32,-39,-3,-55,16
19,65,39,-41,-9,44,34,-8,-9,26,-25,46
49,95,45,-65,-3,62,40,21,32,62,4,76
73,137,51,-107,2,92,40,51,68,92,34,106
103,155,51,-131,14,98,52,93,104,128,70,136
139,167,51,-143,32,104,70,159,152,170,112,166
163,191,51,-173,44,110,106,225,200,206,142,196
169,203,51,-179,50,116,154,315,248,230,154,208
169,209,51,-185,56,122,238,387,284,236,154,208
169,209,51,-191,62,122,286,441,302,242,154,208
181,215,45,-197,74,122,304,483,332,248,160,208
265,233,9,-245,134,122,298,507,374,278,178,214
433,269,-104,-341,272,116,226,537,464,332,232,238
625,305,-266,-467,440,74,112,603,608,422,346,346
835,347,-434,-587,632,14,16,711,788,566,496,478
1033,419,-566,-725,794,-15,-85,771,968,698,652,622
1207,539,-626,-863,914,-15,-199,801,1148,854,820,772
1369,707,-644,-1025,986,8,-283,837,1364,1040,1030,940
1519,893,-644,-1199,1046,104,-325,891,1604,1256,1252,1132
1645,995,-644,-1319,1136,146,-343,1011,1880,1484,1474,1318
1711,1037,-656,-1367,1178,158,-343,1155,2143,1676,1666,1468
1729,1067,-656,-1385,1184,188,-313,1221,2317,1790,1768,1540
1717,1067,-644,-1385,1172,206,-247,1239,2371,1814,1786,1546
1561,1031,-572,-1307,1082,212,-139,1239,2371,1814,1780,1534
1363,923,-500,-1139,926,212,-19,1233,2335,1778,1708,1462
1165,797,-434,-965,782,212,76,1191,2155,1640,1570,1354
913,647,-326,-785,614,200,160,1053,1874,1412,1348,1174
637,509,-194,-563,416,194,244,909,1526,1118,1054,928
415,353,-134,-377,278,152,298,759,1166,830,772,688
271,215,-104,-245,194,104,316,543,776,566,502,472
133,65,-98,-101,140,20,316,291,368,284,220,238
43,-90,-104,24,110,-81,304,99,50,50,-7,34
13,-156,-122,60,98,-129,262,3,-87,-69,-121,-55
-4,-168,-128,72,92,-141,202,-38,-129,-117,-163,-91
-10,-168,-134,78,86,-147,154,-56,-165,-147,-187,-109
-16,-174,-140,84,86,-153,118,-68,-177,-153,-193,-115
-28,-174,-140,96,74,-153,94,-74,-183,-153,-193,-115
-40,-168,-122,102,44,-141,76,-80,-183,-153,-193,-115
-46,-144,-92,102,26,-111,52,-92,-189,-153,-193,-115
-46,-132,-80,96,20,-99,40,-104,-195,-153,-193,-115
-52,-126,-68,96,14,-93,34,-110,-195,-153,-193,-109
-64,-114,-26,96,-9,-69,28,-116,-201,-153,-193,-109
-70,-102,-8,96,-15,-57,22,-128,-207,-153,-193,-109
-76,-102,-3,96,-21,-51,22,-134,-213,-153,-193,-109
-82,-102,3,96,-33,-45,22,-134,-213,-153,-193,-109
-82,-90,9,96,-39,-39,22,-140,-213,-153,-193,-109
-82,-84,9,96,-39,-33,22,-146,-219,-153,-193,-109
-82,-84,9,96,-39,-33,16,-146,-225,-153,-193,-109
-82,-84,3,96,-39,-33,16,-146,-231,-153,-199,-109
-82,-84,3,96,-45,-33,16,-152,-237,-153,-199,-109
-88,-78,9,96,-51,-33,16,-152,-237,-153,-199,-109
-94,-78,15,96,-57,-27,16,-152,-237,-153,-199,-109
-100,-78,15,96,-57,-27,16,-152,-243,-153,-199,-109
-100,-90,15,102,-57,-33,16,-158,-249,-153,-199,-109
-106,-90,21,102,-63,-33,16,-158,-249,-153,-199,-109
-112,-84,33,102,-75,-21,16,-158,-249,-153,-199,-109
-112,-78,39,102,-81,-15,16,-158,-249,-153,-199,-109
-112,-78,39,102,-81,-15,16,-164,-249,-153,-199,-109
-112,-78,39,102,-81,-15,16,-164,-249,-153,-199,-109
-118,-84,39,108,-81,-21,16,-164,-255,-153,-199,-109
-124,-90,39,114,-81,-27,16,-164,-255,-153,-199,-109
-124,-90,39,114,-81,-27,16,-164,-255,-153,-199,-109
-124,-84,39,108,-81,-21,16,-164,-255,-159,-199,-109
-124,-84,45,108,-81,-21,16,-164,-255,-165,-199,-109
-124,-84,45,108,-81,-21,16,-164,-255,-165,-205,-109
-124,-84,45,108,-81,-21,16,-164,-261,-165,-211,-109
-124,-90,33,108,-81,-27,16,-164,-261,-165,-211,-109
-124,-96,21,108,-81,-33,16,-164,-261,-165,-211,-109
-124,-96,21,108,-81,-33,16,-164,-261,-165,-211,-109
-124,-90,27,108,-81,-27,16,-164,-261,-165,-211,-109
-130,-90,27,108,-81,-27,16,-164,-261,-165,-211,-115
-130,-90,27,108,-81,-27,16,-164,-261,-165,-211,-115
-130,-90,27,108,-81,-27,16,-164,-261,-165,-211,-115
-130,-90,27,108,-81,-27,16,-164,-261,-165,-211,-115
-130,-90,27,108,-81,-27,16,-164,-261,-165,-211,-115
-130,-90,27,108,-81,-27,16,-164,-261,-165,-211,-115
-130,-84,33,108,-81,-27,16,-164,-261,-165,-211,-115
-130,-78,39,108,-81,-21,16,-164,-261,-165,-211,-115
-130,-72,39,108,-81,-15,16,-158,-261,-165,-211,-115
-130,-66,39,102,-81,-9,16,-158,-261,-165,-211,-115
-130,-66,39,102,-81,-9,16,-158,-261,-165,-211,-115
-130,-72,39,102,-81,-15,22,-152,-255,-165,-211,-115
-130,-78,33,102,-75,-21,28,-146,-249,-159,-205,-115
-124,-78,33,102,-75,-21,28,-140,-243,-153,-205,-115
-118,-78,33,102,-69,-21,28,-140,-243,-153,-205,-115
-118,-78,27,102,-69,-21,28,-140,-243,-153,-199,-115
-118,-78,27,102,-69,-21,28,-134,-243,-153,-199,-115
-118,-78,27,102,-69,-21,28,-134,-243,-153,-199,-115
-118,-78,27,102,-69,-21,28,-134,-237,-153,-193,-115
-118,-72,33,102,-69,-15,28,-128,-237,-153,-187,-115
-118,-60,39,96,-69,-9,28,-122,-231,-153,-187,-115
-118,-54,45,90,-69,-3,28,-122,-231,-153,-187,-115
-112,-54,45,84,-69,-3,28,-122,-231,-153,-187,-115
-106,-54,45,84,-63,-3,28,-122,-231,-153,-187,-115
-106,-54,45,84,-63,-3,28,-122,-231,-153,-187,-109
-106,-54,45,84,-63,-3,28,-122,-231,-153,-187,-109
-106,-60,39,84,-63,-9,28,-116,-225,-153,-187,-109
-106,-66,39,84,-63,-9,28,-110,-219,-153,-187,-109
-106,-66,39,84,-63,-9,28,-104,-213,-147,-181,-103
-106,-66,39,84,-63,-9,28,-104,-213,-147,-181,-103
-106,-72,39,90,-63,-15,28,-104,-213,-147,-181,-103
-106,-78,39,96,-63,-15,28,-104,-207,-147,-181,-103
-106,-78,39,96,-63,-15,28,-98,-195,-141,-181,-103
-106,-78,39,96,-63,-15,28,-98,-195,-141,-181,-103
-106,-78,39,96,-63,-15,28,-92,-189,-141,-181,-103
-106,-78,39,96,-63,-15,28,-86,-183,-141,-181,-103
-106,-78,39,96,-63,-15,28,-80,-177,-141,-181,-103
-106,-78,39,96,-63,-15,28,-74,-177,-141,-181,-103
-106,-78,39,96,-63,-15,28,-68,-171,-141,-181,-103
-106,-78,39,96,-63,-15,28,-62,-165,-135,-181,-103
-106,-78,39,96,-63,-15,28,-56,-159,-135,-181,-103
-118,-78,39,102,-69,-15,28,-56,-159,-135,-181,-103
-130,-84,39,108,-75,-15,28,-44,-153,-135,-181,-103
-130,-96,39,108,-75,-21,28,-26,-141,-129,-175,-103
-130,-96,39,114,-75,-27,28,-14,-135,-129,-175,-103
-130,-96,39,114,-75,-27,28,-8,-135,-129,-175,-103
-130,-90,45,114,-75,-21,28,-2,-129,-129,-175,-103
-130,-90,45,114,-75,-21,28,9,-111,-117,-169,-103
-130,-90,45,114,-75,-27,34,21,-93,-111,-163,-97
-130,-90,45,114,-75,-27,40,33,-81,-105,-157,-97
-130,-90,39,114,-75,-27,46,45,-69,-99,-151,-91
-130,-90,39,114,-75,-27,58,63,-57,-87,-145,-85
-130,-90,45,114,-75,-27,64,93,-39,-81,-133,-85
-130,-84,51,114,-75,-21,70,105,-21,-75,-127,-79
-130,-84,51,114,-75,-21,76,117,-3,-69,-121,-79
-130,-84,51,114,-75,-21,82,141,14,-57,-115,-73
-130,-84,45,114,-75,-27,88,165,44,-45,-103,-61
-130,-90,39,114,-75,-33,100,195,68,-27,-91,-49
-130,-90,39,114,-75,-33,106,207,80,-15,-85,-43
-130,-90,39,108,-69,-33,106,213,92,-9,-79,-43
-130,-84,45,108,-69,-27,106,219,98,-9,-79,-43
-130,-78,57,108,-69,-15,112,231,104,-3,-73,-43
-130,-78,57,108,-69,-15,124,255,116,8,-61,-37
-130,-84,45,108,-63,-21,130,279,146,20,-49,-31
-124,-84,45,108,-63,-21,136,291,158,26,-43,-25
-124,-72,45,102,-63,-21,142,303,170,32,-37,-19
-124,-72,45,102,-63,-21,148,315,182,38,-31,-13
-118,-72,45,96,-63,-21,154,327,194,44,-25,-7
-106,-60,45,84,-63,-9,154,339,206,50,-19,-7
-94,-48,45,72,-57,-3,154,345,218,50,-19,-7
-88,-42,45,66,-51,2,154,351,224,56,-13,-7
-88,-42,45,66,-51,2,160,357,230,62,-7,-1
-82,-42,39,66,-45,-3,172,375,242,74,4,10
-70,-42,33,60,-39,-3,184,387,254,80,16,16
-58,-30,33,48,-33,2,184,393,260,86,16,16
-52,-24,33,42,-33,8,184,399,266,86,16,22
-46,-24,33,36,-27,8,184,405,272,86,16,22
-46,-24,33,36,-27,8,184,405,272,86,16,28
-46,-24,33,36,-27,8,184,405,272,86,16,28
-46,-24,33,30,-27,8,184,405,272,86,16,28
-40,-24,21,30,-15,-3,184,405,272,86,16,28
-34,-24,9,30,-3,-9,184,405,278,92,22,34
-34,-24,3,30,-3,-9,184,405,278,92,28,34
-34,-24,3,30,-3,-9,184,399,278,92,34,34
-28,-24,3,24,2,-9,178,393,278,98,34,40
-22,-18,3,18,8,-9,172,381,278,98,34,40
-22,-18,3,18,8,-9,166,369,272,98,34,40
-22,-18,3,18,8,-9,160,357,266,98,34,40
-16,-18,3,18,8,-9,154,327,254,98,34,40
-16,-18,3,18,8,-9,148,303,236,98,34,40
-16,-18,3,18,8,-9,142,285,218,92,28,34
-16,-18,9,18,8,-9,136,267,200,86,22,28
-16,-12,9,18,8,-9,130,249,182,80,16,28
-16,-12,9,18,8,-9,118,219,158,68,4,22
-16,-12,15,18,2,-3,106,201,146,62,-1,22
-16,-12,21,18,-3,2,94,189,128,56,-7,22
-16,-12,21,18,-3,2,88,171,116,56,-13,22
-16,-12,21,18,-3,2,76,147,104,44,-19,22
-16,-12,21,18,-3,2,64,123,80,32,-25,16
-16,-12,21,18,-3,2,58,105,68,26,-31,10
-28,-18,21,24,-9,-3,52,87,50,20,-37,4
-40,-18,21,30,-15,-3,46,63,26,8,-43,-1
-40,-18,21,30,-15,-3,40,57,14,2,-43,-1
-40,-18,21,30,-15,-3,34,45,2,-3,-49,-1
-46,-24,21,30,-15,-3,28,33,-9,-9,-55,-7
-46,-24,21,30,-15,-3,22,27,-15,-15,-55,-7
-46,-30,21,30,-15,-3,16,15,-21,-21,-55,-13
-52,-30,21,30,-21,-3,10,3,-27,-27,-61,-13
-52,-30,27,30,-27,-3,4,-8,-33,-33,-67,-13
-52,-30,27,30,-27,-3,-1,-20,-45,-33,-73,-19
-58,-30,27,36,-33,-3,-13,-32,-57,-39,-79,-19
-58,-30,27,42,-33,-3,-19,-38,-63,-45,-79,-19
-58,-30,27,48,-33,-3,-25,-44,-69,-51,-85,-25
-64,-30,33,48,-33,2,-31,-50,-75,-57,-91,-25
-70,-30,45,48,-39,8,-37,-50,-75,-57,-97,-25
-76,-30,45,48,-39,8,-37,-50,-75,-57,-97,-25
-76,-36,39,54,-39,8,-43,-50,-75,-57,-97,-25
-76,-42,33,60,-39,-3,-43,-50,-75,-57,-97,-25
-76,-54,27,66,-39,-15,-43,-50,-75,-57,-97,-31
-76,-54,21,66,-39,-21,-43,-50,-75,-57,-97,-31
-76,-54,21,66,-39,-21,-43,-50,-75,-57,-97,-31
-76,-42,33,66,-39,-9,-43,-50,-75,-57,-97,-31
-82,-36,39,66,-45,-3,-49,-56,-75,-57,-97,-31
-82,-42,39,66,-45,-3,-49,-56,-75,-57,-97,-31
-82,-48,33,66,-45,-9,-49,-56,-75,-57,-97,-31
-82,-48,33,66,-45,-9,-55,-56,-81,-57,-97,-31
-82,-48,33,66,-45,-9,-55,-56,-81,-57,-103,-31
-82,-48,33,66,-45,-9,-55,-56,-81,-57,-103,-31
-82,-54,33,66,-45,-9,-55,-56,-81,-57,-103,-31
-82,-54,33,66,-45,-9,-55,-56,-81,-57,-103,-31
-82,-42,33,66,-45,-3,-55,-56,-81,-57,-103,-31
-82,-36,39,66,-45,2,-55,-56,-81,-57,-103,-37
-82,-36,39,66,-45,2,-55,-56,-81,-57,-103,-37
-82,-36,39,66,-45,2,-55,-56,-81,-57,-103,-37
-82,-30,45,60,-45,8,-55,-56,-81,-57,-103,-37
-82,-18,63,54,-51,20,-55,-56,-81,-57,-103,-37
-82,-6,69,48,-51,26,-55,-56,-81,-57,-103,-37
-76,11,69,36,-51,32,-55,-56,-81,-57,-103,-37
-70,11,69,30,-51,32,-55,-56,-81,-57,-103,-37
-70,0,63,36,-51,26,-55,-56,-81,-57,-103,-37
-70,-12,57,42,-51,20,-49,-56,-81,-57,-103,-37
-70,-18,51,42,-51,14,-43,-56,-81,-57,-103,-37
-70,-18,45,42,-51,8,-43,-56,-81,-57,-103,-37
-70,-24,45,42,-45,8,-43,-56,-81,-57,-103,-37
-70,-30,39,42,-45,2,-37,-56,-75,-51,-103,-37
-70,-30,39,42,-45,2,-37,-56,-75,-45,-103,-37
-70,-30,39,42,-45,2,-37,-56,-75,-45,-103,-37
-70,-30,39,42,-45,2,-37,-56,-75,-45,-97,-37
-70,-30,39,42,-45,2,-31,-56,-75,-45,-97,-37
-70,-18,45,42,-45,14,-31,-56,-75,-45,-97,-37
-70,-18,45,42,-45,14,-31,-56,-75,-45,-97,-37
-70,-18,45,42,-45,14,-31,-56,-75,-45,-97,-31
-70,-18,45,42,-45,14,-31,-56,-75,-45,-97,-31
-64,-12,45,36,-45,14,-25,-56,-75,-39,-97,-31
-58,-6,45,30,-45,14,-19,-56,-75,-39,-97,-31
-58,-6,45,30,-45,14,-19,-50,-75,-39,-97,-31
-58,-6,45,30,-45,14,-19,-50,-75,-39,-97,-31
-58,-6,45,30,-45,14,-19,-50,-75,-39,-97,-31
-58,-6,45,30,-45,14,-19,-50,-75,-39,-97,-31
-58,-6,45,30,-45,14,-19,-50,-75,-39,-91,-31
-58,-6,45,30,-45,14,-19,-50,-75,-39,-85,-25
-58,-6,45,30,-45,20,-19,-50,-75,-39,-85,-25
-58,-6,45,30,-45,20,-19,-50,-75,-39,-85,-25
-58,-6,45,30,-45,20,-19,-50,-75,-39,-85,-25
-52,5,45,24,-45,26,-19,-50,-75,-39,-85,-25
-52,5,45,24,-45,26,-19,-50,-69,-39,-85,-25
-52,5,51,24,-45,26,-13,-44,-69,-39,-85,-25
-52,5,57,24,-45,32,-13,-44,-69,-39,-85,-25
-52,11,57,18,-45,32,-13,-44,-69,-39,-85,-25
-52,17,63,18,-45,38,-13,-44,-69,-39,-85,-25
-52,23,63,18,-45,44,-13,-44,-69,-39,-85,-19
-52,23,69,18,-45,44,-13,-38,-63,-33,-79,-13
-52,23,69,18,-45,44,-13,-38,-63,-27,-73,-13
-52,23,69,18,-45,44,-13,-38,-63,-27,-73,-13
-46,23,69,12,-45,44,-13,-38,-63,-27,-73,-13
-40,23,69,12,-45,44,-13,-38,-63,-27,-73,-13
-40,23,69,12,-45,44,-13,-38,-63,-27,-73,-13
-40,23,69,12,-45,44,-13,-38,-63,-27,-73,-13
-40,17,69,12,-45,44,-13,-38,-63,-27,-67,-13
-40,17,69,12,-45,44,-13,-38,-63,-27,-67,-13
-40,23,69,12,-45,44,-19,-44,-69,-27,-67,-19
-40,29,69,12,-45,50,-19,-44,-69,-27,-67,-19
-40,29,69,12,-45,50,-19,-44,-69,-27,-67,-19
-46,29,69,12,-45,50,-19,-44,-69,-27,-67,-19
-52,29,69,12,-45,50,-19,-44,-69,-27,-67,-19
-52,29,69,12,-45,50,-19,-44,-69,-27,-67,-19
-52,29,69,12,-45,50,-19,-44,-69,-27,-67,-19
-46,29,69,12,-45,50,-19,-50,-69,-27,-67,-19
-46,29,63,12,-45,44,-19,-50,-69,-27,-67,-19
-46,23,63,12,-45,44,-19,-50,-69,-27,-67,-19
-46,23,69,12,-51,44,-19,-50,-69,-27,-67,-19
-46,23,69,12,-51,44,-19,-50,-69,-27,-67,-19
-46,23,69,12,-51,44,-19,-50,-69,-27,-67,-19
-52,11,69,18,-51,44,-25,-50,-69,-33,-67,-19
-58,11,69,24,-51,44,-25,-50,-69,-33,-67,-19
-58,17,69,24,-51,44,-25,-50,-69,-33,-67,-19
-58,17,69,24,-51,44,-25,-56,-75,-33,-67,-19
-52,17,69,24,-51,44,-31,-56,-81,-33,-67,-19
-52,17,69,24,-51,44,-31,-62,-81,-33,-67,-19
-52,17,69,24,-51,44,-31,-62,-81,-39,-67,-19
-52,17,75,24,-51,44,-31,-62,-81,-45,-67,-19
-52,17,75,24,-51,44,-31,-62,-81,-45,-67,-19
-52,17,75,24,-51,44,-31,-62,-81,-45,-67,-19
-52,17,75,24,-51,44,-37,-68,-87,-45,-67,-25
-52,17,75,30,-51,44,-43,-74,-93,-45,-67,-25
-58,17,75,30,-51,44,-43,-74,-93,-45,-67,-25
-58,17,75,30,-57,44,-43,-74,-93,-45,-73,-25
-58,17,75,30,-57,44,-43,-80,-93,-51,-73,-25
-58,17,75,30,-57,44,-43,-86,-93,-51,-73,-31
-58,5,69,30,-57,38,-43,-86,-99,-51,-73,-31
-58,0,69,30,-57,38,-43,-86,-99,-51,-73,-31
-58,0,69,30,-57,38,-49,-92,-99,-57,-79,-31
-58,0,81,30,-63,44,-61,-98,-105,-63,-85,-37
-64,17,105,30,-69,68,-67,-104,-111,-69,-91,-43
-64,23,111,30,-69,74,-73,-110,-117,-75,-97,-49
-64,11,87,36,-63,50,-73,-110,-117,-75,-97,-49
-64,-30,45,48,-51,2,-73,-110,-117,-75,-97,-49
-64,-36,39,54,-51,-3,-73,-110,-117,-75,-97,-49
-64,-36,45,54,-51,2,-73,-110,-117,-75,-97,-49
-70,-36,51,54,-51,2,-73,-110,-117,-75,-97,-49
-70,-36,51,54,-51,2,-73,-110,-117,-75,-97,-49
-70,-36,45,54,-51,2,-73,-110,-117,-75,-97,-49
-70,-36,45,54,-51,2,-73,-110,-117,-75,-97,-49
-70,-36,45,54,-51,2,-67,-110,-117,-75,-97,-49
-70,-36,45,54,-51,2,-61,-110,-117,-75,-97,-49
-70,-30,45,54,-51,2,-61,-110,-117,-75,-97,-49
-70,-24,45,54,-51,2,-61,-110,-117,-75,-97,-49
-70,-24,45,54,-51,2,-61,-110,-117,-75,-97,-49
-76,-24,45,54,-51,2,-61,-110,-117,-75,-97,-49
-76,-24,45,54,-51,8,-61,-110,-117,-75,-97,-49
-76,-24,45,54,-51,8,-61,-110,-123,-75,-97,-49
-70,-24,45,54,-51,8,-61,-110,-129,-75,-97,-49
-64,-18,45,48,-51,14,-61,-110,-129,-75,-97,-49
-64,-12,51,48,-51,20,-61,-110,-129,-75,-97,-49
-64,-18,51,48,-51,20,-61,-110,-129,-75,-97,-49
-64,-24,45,48,-45,14,-67,-110,-129,-75,-97,-49
-64,-24,45,48,-45,14,-67,-110,-129,-75,-97,-49
-64,-18,51,48,-45,20,-67,-110,-129,-75,-97,-49
-64,-6,57,48,-45,26,-67,-116,-135,-75,-103,-49
-64,-6,57,48,-45,26,-73,-116,-141,-75,-103,-49
-64,-18,45,48,-45,14,-73,-116,-147,-75,-103,-49
-64,-18,39,48,-45,8,-73,-122,-147,-75,-103,-49
-70,-18,39,48,-45,8,-73,-122,-147,-75,-103,-49
-70,-18,39,48,-51,8,-73,-122,-147,-75,-103,-49
-70,-18,39,48,-51,8,-73,-122,-147,-75,-103,-49
-70,-18,39,48,-51,8,-73,-122,-147,-75,-103,-49
-70,-18,39,48,-51,8,-79,-122,-147,-75,-103,-49
-70,-18,39,48,-51,14,-79,-122,-147,-75,-103,-49
-70,-18,39,48,-51,14,-79,-122,-147,-75,-103,-49
-70,-18,39,48,-51,14,-79,-122,-147,-75,-103,-49
-70,-18,39,48,-51,14,-79,-122,-147,-75,-103,-49
-70,-18,39,48,-51,14,-79,-122,-147,-75,-103,-49
-70,-18,39,48,-51,14,-79,-122,-147,-75,-103,-49
-70,-18,39,48,-51,14,-79,-122,-147,-75,-103,-49
-70,-18,39,48,-51,14,-79,-122,-147,-81,-103,-49
-70,-18,39,48,-51,14,-79,-122,-147,-81,-103,-49
-70,-18,39,48,-51,14,-79,-122,-147,-81,-103,-49
-70,-18,39,48,-51,14,-79,-122,-147,-81,-103,-49
-70,-18,39,48,-51,14,-85,-122,-147,-81,-103,-49
-70,-18,51,48,-51,20,-91,-128,-147,-87,-103,-49
-70,-12,57,48,-57,26,-97,-128,-147,-87,-103,-49
-70,-12,57,48,-57,26,-97,-128,-147,-87,-103,-49
-70,-12,51,48,-51,26,-97,-128,-147,-87,-103,-49
-70,-12,51,48,-51,26,-97,-128,-147,-87,-103,-49
-70,-12,51,48,-51,26,-97,-128,-147,-87,-103,-49
-70,-12,51,48,-51,26,-97,-128,-147,-87,-103,-49
-70,-18,51,48,-51,26,-97,-128,-147,-87,-103,-49
-70,-18,51,48,-51,26,-97,-128,-147,-87,-103,-49
-70,-18,51,48,-51,26,-97,-128,-147,-87,-103,-49
-70,-18,51,48,-51,26,-97,-128,-147,-87,-103,-49
-70,-18,51,48,-57,26,-97,-128,-147,-87,-103,-49
-70,-18,51,48,-57,26,-97,-128,-147,-87,-103,-49
-70,-18,45,48,-57,26,-97,-128,-147,-87,-103,-49
-70,-18,45,48,-57,26,-97,-128,-147,-87,-103,-49
-76,-18,57,48,-63,26,-97,-134,-147,-93,-109,-49
-82,-18,63,54,-69,26,-97,-134,-147,-93,-109,-49
-82,-18,63,54,-69,26,-97,-134,-147,-93,-109,-49
-76,-12,63,48,-69,32,-97,-134,-147,-93,-109,-49
-70,-6,63,42,-63,32,-97,-134,-147,-93,-109,-49
-70,-12,57,42,-57,32,-97,-134,-147,-93,-109,-49
-70,-12,57,42,-57,32,-97,-134,-147,-93,-109,-49
-76,-12,57,42,-57,32,-97,-134,-147,-93,-109,-49
-76,-12,57,42,-57,32,-97,-134,-147,-93,-109,-49
-76,-12,57,42,-57,32,-97,-134,-147,-93,-109,-49
-76,-12,57,42,-57,32,-103,-134,-147,-93,-109,-55
-82,-6,81,42,-69,44,-115,-140,-147,-105,-121,-61
-88,5,99,42,-81,56,-121,-146,-147,-111,-121,-67
-82,5,93,42,-75,56,-121,-146,-147,-111,-121,-67
-76,-12,51,42,-57,26,-115,-140,-147,-105,-115,-61
-76,-18,45,42,-51,20,-109,-140,-147,-99,-115,-55
-76,-18,45,42,-51,20,-103,-140,-141,-99,-115,-55
-76,-12,51,42,-51,26,-97,-134,-141,-93,-115,-55
-76,0,57,36,-51,32,-85,-122,-129,-81,-103,-43
-64,17,57,12,-51,38,-79,-110,-117,-69,-91,-31
-52,35,57,0,-51,50,-67,-104,-105,-63,-85,-25
-52,47,81,-6,-51,62,-61,-98,-99,-57,-85,-19
-52,59,111,-6,-63,74,-55,-92,-93,-51,-79,-13
-52,65,111,-11,-63,80,-49,-86,-87,-51,-73,-13
-28,77,111,-23,-57,86,-49,-80,-81,-45,-73,-13
-10,89,111,-35,-57,92,-49,-74,-75,-39,-73,-13
-10,101,111,-41,-57,98,-43,-62,-63,-27,-61,-1
1,113,111,-53,-51,104,-37,-50,-57,-21,-55,4
13,119,99,-65,-39,104,-37,-44,-51,-15,-49,10
19,119,93,-65,-27,104,-37,-44,-45,-9,-43,16
25,119,87,-65,-21,104,-37,-38,-39,-9,-37,16
37,119,81,-71,-9,104,-37,-32,-33,-3,-31,16
49,119,63,-77,2,104,-37,-32,-27,-3,-25,22
61,119,57,-83,8,98,-43,-32,-27,-3,-25,22
61,119,57,-83,8,98,-55,-32,-27,-3,-25,22
55,119,57,-83,8,98,-67,-38,-33,-3,-25,22
55,113,57,-83,8,92,-79,-50,-39,-9,-31,22
55,101,45,-83,14,74,-91,-62,-51,-15,-37,22
55,71,15,-71,20,50,-97,-74,-63,-27,-43,16
55,65,9,-65,20,44,-103,-80,-69,-33,-49,16
55,65,9,-65,20,44,-103,-86,-75,-39,-49,10
55,65,9,-65,26,44,-103,-92,-75,-45,-55,10
55,65,3,-65,32,38,-103,-98,-75,-45,-55,10
55,65,3,-65,32,38,-103,-104,-75,-45,-55,10
49,65,9,-59,32,38,-103,-104,-81,-51,-61,10
31,47,9,-47,26,32,-103,-110,-93,-57,-67,4
19,35,9,-35,26,26,-103,-110,-99,-57,-73,-1
13,35,15,-29,14,26,-103,-116,-105,-63,-79,-7
-4,35,27,-23,-3,26,-103,-116,-111,-69,-79,-13
-22,29,33,-11,-15,26,-103,-116,-111,-69,-85,-19
-34,23,39,0,-27,26,-103,-122,-123,-81,-97,-31
-46,17,45,12,-39,26,-103,-134,-135,-93,-109,-43
-58,5,45,24,-45,26,-103,-146,-141,-99,-115,-49
-70,-6,45,36,-51,26,-103,-152,-147,-105,-121,-55
-76,-30,45,48,-51,14,-103,-152,-147,-105,-121,-55
-82,-60,33,66,-51,-15,-103,-152,-147,-105,-121,-55
-94,-66,33,72,-51,-21,-103,-152,-147,-105,-121,-55
-100,-66,33,72,-51,-21,-103,-152,-147,-105,-127,-55
-100,-66,33,72,-51,-21,-97,-152,-147,-105,-127,-55
-100,-66,27,72,-51,-21,-91,-152,-147,-105,-127,-55
-100,-60,27,72,-51,-15,-85,-146,-147,-105,-127,-55
-100,-54,33,72,-51,-9,-79,-134,-135,-93,-121,-55
-94,-48,39,66,-51,-3,-73,-122,-117,-87,-115,-49
-82,-36,39,54,-51,2,-67,-110,-99,-81,-109,-43
-70,-24,39,48,-51,8,-61,-92,-87,-75,-97,-37
-58,-18,39,42,-45,8,-55,-80,-75,-63,-91,-31
-46,0,39,30,-39,14,-49,-62,-63,-57,-79,-19
-34,65,63,-11,-39,56,-49,-50,-51,-45,-67,-7
-16,125,99,-47,-39,98,-49,-38,-27,-15,-43,4
7,131,99,-65,-27,104,-49,-8,2,26,-7,40
37,131,75,-71,-3,104,-43,27,50,62,22,76
61,137,69,-83,2,104,-31,69,104,98,58,106
79,143,69,-101,8,110,-1,117,152,128,82,130
97,149,63,-113,20,110,34,189,212,164,112,154
109,155,57,-125,26,110,106,291,266,188,136,166
121,167,57,-137,32,110,178,375,302,200,142,172
133,179,51,-149,38,110,220,423,326,212,148,178
163,191,39,-173,62,110,238,465,356,224,160,184
247,203,-20,-215,140,104,238,495,392,254,184,196
391,221,-134,-305,278,86,160,513,464,296,226,238
589,263,-290,-425,452,44,58,573,608,368,328,310
823,317,-446,-569,650,-3,-55,663,770,482,448,418
1015,401,-560,-707,794,-21,-151,717,950,608,598,550
1207,509,-644,-863,938,-27,-265,747,1118,752,754,688
1399,653,-692,-1019,1052,-27,-373,771,1316,920,934,850
1537,797,-716,-1163,1118,2,-403,849,1556,1130,1156,1036
1663,923,-728,-1295,1184,56,-409,993,1832,1358,1390,1234
1759,1007,-740,-1379,1244,98,-403,1125,2077,1532,1558,1354
1777,1025,-740,-1403,1262,116,-367,1179,2209,1628,1624,1396
1753,1019,-740,-1391,1256,122,-289,1203,2263,1646,1642,1402
1603,953,-698,-1277,1172,128,-169,1209,2281,1646,1642,1396
1405,863,-584,-1133,1004,134,-61,1203,2257,1622,1588,1354
1165,743,-476,-947,836,134,4,1131,2077,1466,1432,1228
895,587,-356,-737,626,134,82,987,1790,1238,1210,1036
637,431,-266,-533,464,122,172,867,1466,974,946,820
421,275,-212,-353,314,80,226,717,1124,722,688,610
229,125,-164,-185,200,26,244,507,758,476,442,400
79,-12,-146,-35,128,-33,244,249,362,212,178,184
7,-120,-140,54,92,-93,238,63,50,2,-31,4
-34,-180,-140,96,80,-129,214,-26,-75,-105,-127,-79
-46,-216,-146,120,80,-159,154,-68,-117,-147,-163,-109
-52,-222,-146,132,74,-165,112,-98,-141,-171,-187,-127
-64,-216,-134,132,50,-159,70,-110,-153,-183,-199,-139
-70,-204,-116,132,32,-147,40,-122,-159,-183,-205,-139
-70,-192,-110,132,26,-141,28,-128,-159,-183,-205,-139
-70,-180,-98,132,14,-129,10,-134,-165,-183,-205,-139
-82,-168,-74,132,2,-117,-1,-134,-165,-183,-205,-139
-94,-162,-56,132,-9,-111,-7,-134,-165,-183,-205,-133
-100,-150,-38,132,-21,-93,-13,-140,-165,-177,-205,-133
-106,-126,-3,126,-33,-63,-19,-152,-177,-177,-205,-133
-118,-120,21,126,-45,-45,-25,-164,-189,-177,-205,-133
-124,-120,27,126,-57,-39,-25,-164,-195,-177,-205,-133
-124,-120,27,126,-63,-39,-25,-170,-195,-177,-205,-133
-130,-120,27,126,-69,-39,-25,-176,-201,-177,-205,-133
-136,-120,27,126,-75,-39,-25,-176,-207,-177,-205,-133
-142,-120,33,126,-87,-39,-25,-182,-213,-177,-205,-133
-148,-114,39,126,-93,-33,-25,-188,-219,-177,-205,-133
-148,-102,45,126,-93,-27,-25,-188,-225,-177,-205,-133
-148,-102,45,126,-93,-27,-25,-188,-225,-177,-205,-133
-154,-108,45,132,-93,-27,-25,-188,-231,-177,-205,-133
-154,-114,45,138,-93,-27,-25,-194,-231,-177,-205,-133
-154,-114,45,138,-93,-21,-25,-194,-231,-177,-205,-133
-154,-114,51,138,-93,-15,-25,-194,-231,-177,-205,-133
-154,-108,57,138,-93,-15,-25,-194,-231,-177,-205,-133
-154,-102,57,138,-93,-15,-25,-194,-231,-177,-205,-133
-154,-102,57,138,-93,-15,-25,-194,-231,-177,-205,-133
-154,-102,57,138,-99,-15,-25,-194,-237,-183,-205,-133
-160,-102,57,138,-99,-15,-25,-200,-243,-189,-211,-133
-160,-102,57,138,-105,-15,-31,-200,-243,-189,-211,-133
-160,-102,63,138,-105,-15,-31,-200,-243,-189,-211,-133
-160,-102,63,138,-105,-15,-31,-200,-243,-189,-211,-133
-160,-102,69,138,-111,-9,-31,-200,-243,-195,-217,-139
-160,-102,75,138,-111,-9,-31,-200,-243,-195,-217,-139
-160,-102,75,138,-111,-9,-31,-200,-243,-195,-217,-139
-160,-102,75,138,-111,-9,-31,-200,-243,-195,-217,-139
-160,-102,69,138,-111,-9,-31,-200,-243,-195,-217,-139
-160,-102,63,138,-111,-9,-31,-200,-243,-195,-217,-139
-160,-102,63,138,-111,-9,-31,-200,-243,-195,-217,-139
-166,-102,63,138,-111,-9,-31,-200,-243,-195,-217,-139
-166,-102,63,138,-111,-9,-31,-200,-243,-195,-217,-139
-166,-102,63,138,-111,-9,-31,-200,-243,-195,-217,-139
-166,-108,63,138,-111,-15,-31,-200,-243,-195,-217,-139
-166,-108,63,138,-111,-15,-31,-200,-243,-195,-217,-139
-166,-108,57,138,-111,-15,-31,-194,-243,-195,-217,-139
-166,-114,57,138,-111,-21,-25,-194,-243,-195,-217,-139
-166,-114,57,138,-111,-21,-25,-194,-243,-195,-217,-139
-166,-114,63,138,-111,-21,-25,-194,-243,-195,-217,-139
-166,-114,63,138,-111,-21,-25,-194,-243,-195,-217,-139
-166,-114,63,138,-111,-21,-25,-188,-243,-195,-217,-139
-166,-114,63,138,-111,-21,-25,-188,-237,-189,-217,-139
-166,-114,63,138,-111,-21,-25,-188,-237,-189,-217,-139
-166,-108,63,138,-111,-15,-25,-188,-237,-189,-217,-139
-160,-96,63,126,-111,-9,-25,-188,-237,-189,-217,-139
-160,-96,63,126,-111,-9,-25,-188,-237,-189,-217,-139
-160,-96,63,126,-111,-9,-25,-182,-237,-189,-217,-139
-160,-96,63,126,-111,-9,-25,-182,-237,-189,-217,-139
-166,-96,63,132,-111,-9,-25,-176,-237,-189,-217,-139
-166,-96,63,132,-111,-9,-19,-170,-231,-189,-211,-139
-166,-96,63,132,-111,-9,-19,-164,-225,-189,-205,-139
-166,-96,63,132,-111,-9,-19,-164,-225,-189,-205,-139
-166,-96,63,132,-111,-9,-19,-164,-225,-189,-205,-139
-166,-96,57,132,-111,-9,-19,-164,-225,-189,-205,-139
-166,-96,57,132,-111,-9,-19,-158,-219,-189,-205,-139
-166,-96,57,132,-111,-9,-19,-158,-213,-189,-205,-139
-166,-96,57,132,-111,-9,-19,-158,-213,-189,-205,-139
-166,-96,57,132,-111,-9,-19,-158,-213,-189,-205,-139
-166,-96,63,132,-117,-9,-19,-152,-213,-189,-205,-139
-166,-90,75,132,-123,-3,-19,-152,-213,-189,-205,-139
-166,-90,75,132,-123,-3,-19,-146,-207,-189,-205,-139
-166,-102,63,132,-111,-15,-19,-140,-201,-189,-205,-139
-166,-102,63,132,-111,-15,-19,-140,-201,-189,-205,-139
-166,-96,63,132,-111,-9,-19,-140,-195,-189,-205,-139
-166,-96,63,132,-111,-9,-19,-134,-189,-183,-205,-139
-166,-96,57,132,-111,-9,-13,-128,-183,-177,-199,-139
-166,-96,63,132,-111,-9,-13,-122,-177,-177,-193,-139
-166,-90,75,132,-123,-3,-13,-116,-177,-177,-193,-139
-166,-90,75,132,-123,-3,-7,-110,-171,-171,-187,-139
-166,-96,69,132,-117,-9,4,-98,-159,-159,-181,-133
-166,-102,69,132,-117,-15,10,-92,-153,-147,-175,-127
-166,-108,69,132,-117,-15,10,-86,-147,-147,-175,-127
-166,-108,69,132,-117,-15,16,-74,-141,-147,-175,-127
-166,-108,69,132,-117,-15,16,-68,-129,-147,-175,-127
-160,-102,69,132,-117,-15,16,-56,-123,-147,-175,-127
-160,-102,63,132,-111,-15,22,-44,-111,-141,-169,-127
-160,-108,57,132,-105,-21,22,-26,-99,-135,-163,-121
-160,-108,51,132,-105,-21,22,-14,-87,-129,-157,-115
-154,-108,51,132,-105,-21,28,3,-75,-117,-151,-109
-154,-102,51,126,-105,-21,34,21,-63,-105,-145,-109
-148,-102,51,120,-105,-21,40,39,-45,-93,-139,-103
-148,-102,51,114,-105,-21,46,51,-27,-81,-133,-97
-148,-102,51,114,-105,-21,58,69,-9,-75,-121,-91
-148,-102,51,114,-105,-21,64,87,8,-69,-115,-85
-154,-102,51,120,-105,-21,70,99,20,-63,-109,-79
-154,-102,51,120,-105,-21,76,117,38,-57,-103,-79
-148,-102,51,120,-99,-21,82,135,56,-51,-97,-79
-142,-102,51,120,-99,-21,88,159,74,-45,-85,-73
-142,-102,51,120,-99,-21,94,183,92,-33,-73,-67
-136,-96,51,114,-99,-21,106,207,110,-15,-61,-61
-124,-84,51,102,-93,-21,112,219,122,-9,-55,-55
-118,-78,51,96,-87,-21,118,231,134,2,-49,-49
-112,-72,51,90,-81,-21,130,243,146,8,-43,-43
-112,-66,51,90,-81,-15,130,255,164,14,-37,-37
-106,-60,51,84,-81,-15,136,267,176,20,-31,-31
-100,-54,51,78,-81,-15,142,279,188,26,-25,-31
-94,-54,51,72,-75,-15,142,291,200,26,-19,-31
-94,-54,51,72,-69,-15,148,303,212,32,-13,-25
-94,-60,45,72,-69,-15,154,315,218,38,-7,-25
-88,-66,39,72,-63,-15,154,327,224,44,-7,-19
-70,-60,33,60,-51,-15,160,333,236,50,-1,-13
-46,-48,27,48,-39,-15,166,339,242,56,4,-13
-46,-42,21,42,-33,-15,172,345,248,62,10,-7
-46,-42,21,42,-33,-15,172,351,254,68,16,-7
-46,-42,15,42,-33,-15,172,357,260,74,16,-7
-40,-42,15,36,-27,-15,172,363,266,74,16,-7
-28,-36,15,30,-27,-15,172,363,272,74,16,-7
-22,-30,15,24,-27,-9,172,369,272,80,22,-1
-16,-24,15,18,-27,-9,172,375,272,86,28,4
-10,-24,9,18,-21,-9,172,375,272,86,28,4
-4,-18,9,12,-15,-9,172,375,272,86,28,4
-4,-12,9,12,-15,-3,172,375,272,86,28,4
-4,-6,9,12,-15,2,172,369,272,86,28,4
-4,-6,3,12,-9,2,172,357,266,86,28,4
-4,-6,-3,12,-3,-3,172,345,260,86,28,4
-4,-6,-3,12,-3,-3,166,333,248,86,28,4
-4,0,3,6,-3,2,160,321,236,80,28,4
7,5,3,-6,-3,8,154,309,230,80,28,4
7,5,3,-6,-3,8,154,297,224,80,28,4
7,0,3,-6,-3,8,148,267,212,80,28,4
7,-6,3,0,-3,8,136,237,188,74,28,4
7,-6,3,0,-3,8,124,219,158,68,22,4
7,0,9,0,-3,14,112,189,128,56,16,4
1,0,15,0,-3,14,100,159,110,50,10,4
-4,0,15,0,-9,14,94,147,98,44,4,-1
-4,0,15,0,-9,14,88,135,92,38,-1,-1
-4,0,15,0,-9,8,82,123,80,32,-1,-1
-4,-6,15,0,-9,8,70,105,68,20,-7,-1
-10,-18,15,12,-9,8,64,93,56,14,-13,-1
-22,-24,15,24,-15,8,58,63,32,8,-19,-1
-28,-24,21,24,-21,8,46,33,2,-3,-31,-13
-28,-24,21,24,-21,8,34,9,-15,-15,-43,-19
-28,-24,21,24,-21,8,28,-2,-21,-15,-43,-19
-34,-24,21,24,-21,2,22,-8,-27,-15,-49,-19
-40,-30,21,30,-21,-3,16,-14,-33,-21,-55,-19
-40,-30,21,30,-21,-9,16,-20,-39,-21,-55,-19
-40,-30,21,30,-21,-9,10,-32,-45,-27,-55,-25
-40,-24,27,30,-27,-3,-1,-44,-57,-33,-61,-31
-40,-18,33,30,-27,8,-1,-50,-63,-39,-61,-31
-40,-18,33,30,-27,8,-1,-50,-63,-39,-61,-31
-40,-24,27,30,-27,8,-7,-56,-63,-39,-61,-31
-40,-24,27,30,-27,8,-7,-62,-69,-45,-67,-31
-40,-24,27,30,-27,8,-7,-68,-75,-51,-67,-31
-40,-24,21,30,-27,2,-13,-74,-75,-51,-67,-31
-40,-24,15,30,-27,-3,-13,-74,-81,-57,-73,-37
-40,-24,15,30,-27,-3,-13,-74,-87,-63,-73,-37
-40,-18,27,30,-33,2,-19,-80,-93,-63,-73,-37
-40,-18,27,30,-33,2,-25,-80,-99,-63,-73,-37
-40,-18,27,30,-33,2,-31,-80,-99,-69,-73,-37
-40,-18,27,30,-33,2,-31,-86,-99,-75,-79,-37
-40,-18,27,30,-33,2,-37,-92,-105,-81,-85,-43
-40,-18,27,30,-33,2,-43,-98,-111,-81,-85,-43
-40,-18,27,30,-39,2,-43,-98,-111,-81,-85,-43
-40,-18,27,30,-39,2,-43,-98,-111,-81,-85,-43
-40,-18,21,30,-39,2,-43,-98,-111,-81,-85,-43
-46,-30,15,36,-33,-9,-43,-98,-111,-81,-85,-43
-46,-42,9,42,-33,-15,-43,-98,-111,-81,-85,-43
-46,-42,9,42,-33,-15,-43,-98,-111,-81,-85,-43
-46,-42,9,48,-33,-15,-43,-98,-111,-81,-85,-43
-46,-48,9,48,-33,-15,-43,-98,-111,-81,-85,-49
-46,-48,9,48,-33,-15,-43,-98,-111,-81,-85,-49
-46,-48,9,48,-33,-15,-43,-98,-111,-81,-85,-49
-46,-48,9,48,-33,-15,-43,-98,-111,-81,-85,-49
-46,-48,9,48,-33,-15,-43,-98,-111,-81,-85,-49
-46,-42,9,48,-33,-9,-43,-98,-111,-81,-85,-49
-46,-36,15,42,-33,-9,-43,-98,-111,-81,-85,-49
-52,-36,15,42,-33,-9,-43,-98,-111,-81,-85,-49
-58,-42,15,48,-33,-9,-43,-98,-111,-81,-85,-49
-58,-48,15,48,-33,-9,-43,-98,-111,-81,-85,-49
-64,-48,15,48,-33,-9,-43,-98,-111,-81,-85,-49
-64,-54,15,54,-33,-9,-43,-98,-111,-81,-85,-49
-70,-54,15,60,-33,-9,-43,-98,-111,-81,-85,-49
-70,-54,15,60,-39,-9,-43,-98,-111,-81,-85,-49
-70,-54,15,60,-39,-9,-43,-98,-111,-81,-85,-49
-70,-48,21,60,-45,-3,-43,-98,-111,-81,-85,-49
-70,-48,27,60,-45,2,-43,-98,-111,-81,-85,-49
-70,-48,27,60,-45,2,-43,-98,-111,-81,-85,-49
-70,-48,27,60,-45,2,-43,-98,-111,-81,-85,-49
-70,-48,27,60,-51,2,-43,-98,-111,-81,-85,-49
-70,-42,33,60,-51,2,-43,-98,-111,-81,-85,-49
-70,-36,39,60,-51,2,-43,-98,-111,-81,-85,-49
-70,-36,39,60,-51,2,-43,-98,-111,-75,-85,-49
-70,-36,39,60,-51,2,-43,-98,-111,-69,-79,-49
-70,-36,39,60,-51,2,-43,-98,-111,-63,-73,-43
-70,-36,39,60,-57,2,-43,-98,-105,-57,-67,-37
-70,-36,45,60,-57,8,-43,-98,-99,-57,-67,-31
-70,-30,45,54,-57,8,-43,-98,-99,-57,-67,-31
-64,-24,45,42,-57,8,-43,-98,-99,-57,-67,-31
-52,-24,45,36,-51,8,-43,-98,-93,-57,-67,-31
-52,-24,45,36,-51,8,-43,-98,-93,-57,-61,-31
-58,-24,51,36,-57,14,-43,-98,-93,-57,-61,-31
-58,-12,63,30,-63,32,-43,-98,-93,-57,-61,-31
-58,-6,69,30,-63,38,-43,-98,-93,-57,-61,-31
-58,-6,63,30,-63,32,-43,-98,-93,-57,-61,-31
-58,-24,51,42,-57,20,-43,-98,-93,-57,-61,-31
-58,-30,39,42,-51,14,-43,-98,-93,-57,-61,-31
-58,-30,39,42,-51,14,-43,-98,-93,-57,-61,-31
-58,-24,45,42,-51,20,-43,-98,-93,-57,-61,-31
-58,-18,45,42,-51,26,-43,-98,-93,-57,-55,-31
-58,-12,45,42,-51,26,-43,-98,-93,-51,-55,-31
-58,-12,45,42,-51,26,-43,-98,-93,-51,-55,-31
-58,-12,45,42,-51,26,-43,-98,-93,-51,-55,-31
-58,-12,45,42,-51,26,-43,-98,-93,-51,-55,-31
-58,-12,45,42,-51,26,-37,-98,-93,-51,-55,-31
-58,-12,45,36,-51,26,-31,-98,-93,-51,-55,-31
-58,-6,51,36,-51,32,-31,-98,-93,-51,-55,-31
-58,0,51,36,-51,32,-31,-98,-93,-51,-55,-31
-52,0,51,30,-51,32,-31,-98,-93,-51,-55,-31
-52,0,51,30,-51,32,-31,-98,-93,-51,-55,-31
-52,-6,45,30,-51,26,-31,-98,-93,-51,-55,-31
-52,-12,45,30,-51,26,-31,-98,-93,-51,-55,-31
-58,-12,51,30,-51,26,-31,-98,-93,-51,-55,-31
-58,-12,57,30,-51,32,-31,-98,-93,-51,-55,-31
-58,-6,57,30,-51,38,-37,-98,-93,-51,-55,-31
-58,-6,57,30,-51,38,-37,-98,-93,-51,-55,-31
-58,-12,57,30,-51,32,-37,-98,-93,-51,-55,-31
-58,-18,57,30,-51,32,-43,-104,-93,-51,-55,-31
-58,-18,57,30,-51,32,-49,-110,-93,-51,-55,-31
-58,-18,57,30,-51,32,-49,-110,-93,-51,-55,-31
-58,-18,51,30,-51,32,-49,-110,-93,-51,-55,-31
-58,-18,51,30,-51,32,-55,-116,-93,-51,-55,-31
-58,-18,51,30,-51,32,-55,-116,-93,-51,-55,-31
-58,-18,51,30,-51,32,-55,-116,-93,-51,-55,-31
-58,-24,45,36,-51,26,-55,-122,-93,-51,-55,-31
-58,-24,45,36,-51,26,-55,-122,-93,-51,-55,-31
-58,-24,45,36,-51,20,-55,-122,-93,-51,-55,-31
-64,-30,45,42,-51,14,-55,-128,-93,-51,-55,-31
-70,-36,39,48,-51,8,-55,-128,-93,-51,-55,-31
-70,-36,39,54,-51,8,-61,-128,-99,-57,-55,-31
-70,-36,39,54,-51,8,-61,-128,-99,-57,-55,-31
-70,-42,33,60,-51,2,-67,-134,-105,-63,-55,-31
-76,-48,33,60,-51,-3,-73,-134,-105,-63,-55,-37
-76,-54,33,60,-51,-3,-79,-134,-105,-63,-55,-37
-76,-54,33,60,-51,-3,-79,-140,-111,-63,-55,-37
-76,-48,39,60,-51,2,-85,-146,-123,-69,-55,-49
-76,-48,39,60,-51,2,-91,-152,-129,-75,-61,-55
-76,-48,39,60,-51,2,-91,-152,-129,-75,-61,-55
-76,-48,39,60,-51,2,-91,-152,-129,-75,-61,-55
-76,-42,39,60,-51,2,-91,-152,-129,-75,-61,-55
-76,-36,45,54,-51,8,-91,-158,-129,-75,-67,-55
-76,-30,51,54,-51,14,-91,-164,-129,-81,-73,-55
-76,-30,57,54,-51,14,-91,-164,-129,-81,-73,-55
-76,-30,51,54,-51,8,-91,-164,-129,-81,-73,-55
-64,-30,39,48,-39,8,-91,-164,-129,-81,-67,-55
-64,-36,33,48,-39,2,-91,-164,-129,-81,-61,-55
-70,-42,33,54,-45,-3,-91,-164,-129,-81,-61,-55
-70,-42,33,54,-51,-3,-91,-164,-129,-81,-61,-55
-70,-42,33,54,-51,-3,-91,-164,-129,-81,-61,-55
-70,-48,27,54,-51,-9,-91,-164,-129,-81,-61,-55
-70,-48,27,54,-51,-9,-91,-164,-129,-81,-61,-55
-70,-48,27,54,-51,-9,-91,-164,-129,-81,-61,-55
-70,-48,33,54,-51,-9,-91,-164,-129,-81,-61,-55
-70,-48,39,54,-51,-9,-91,-164,-129,-81,-61,-55
-70,-36,45,54,-51,-3,-91,-164,-129,-87,-67,-61
-70,-30,45,54,-51,2,-91,-170,-129,-87,-67,-61
-70,-30,45,54,-51,2,-91,-170,-129,-87,-67,-61
-70,-30,45,54,-51,2,-91,-170,-129,-87,-67,-55
-70,-30,45,54,-51,2,-91,-170,-129,-87,-67,-55
-70,-30,39,54,-51,2,-91,-170,-129,-87,-67,-55
-64,-30,39,54,-45,2,-91,-170,-135,-87,-73,-55
-64,-24,39,48,-45,8,-91,-170,-135,-87,-73,-55
-64,-24,39,48,-45,8,-91,-170,-135,-87,-73,-55
-64,-30,33,48,-45,-3,-91,-170,-135,-87,-73,-55
-64,-36,21,48,-39,-9,-91,-170,-135,-87,-73,-55
-64,-36,21,48,-39,-9,-91,-170,-135,-87,-73,-55
-58,-36,21,48,-39,-9,-91,-170,-135,-87,-73,-55
-58,-36,21,48,-39,-9,-91,-170,-135,-87,-73,-55
-58,-36,27,48,-39,-9,-91,-170,-135,-87,-73,-55
-58,-36,27,48,-39,-3,-91,-170,-135,-87,-73,-55
-58,-36,27,48,-39,-3,-91,-170,-135,-87,-73,-55
-58,-36,27,48,-39,-3,-91,-170,-135,-87,-73,-55
-58,-36,27,48,-39,-3,-91,-170,-135,-87,-73,-55
-58,-36,27,48,-39,-3,-91,-170,-135,-87,-73,-55
-58,-36,27,48,-39,-3,-91,-170,-135,-87,-73,-55
-58,-36,27,48,-39,-3,-91,-170,-135,-87,-73,-55
-58,-42,21,48,-39,-9,-91,-170,-135,-87,-73,-55
-58,-42,15,48,-39,-9,-91,-170,-135,-87,-73,-55
-58,-42,15,42,-39,-9,-91,-170,-135,-87,-73,-55
-58,-30,21,36,-39,-3,-91,-170,-135,-87,-67,-55
-58,-30,27,36,-45,2,-91,-170,-135,-87,-67,-55
-64,-30,27,42,-45,2,-91,-170,-135,-87,-67,-55
-64,-36,21,48,-45,-3,-91,-170,-135,-87,-67,-55
-64,-36,21,48,-45,-3,-91,-170,-135,-87,-67,-55
-64,-36,27,48,-51,-3,-91,-170,-135,-87,-67,-55
-64,-36,27,48,-51,-3,-91,-170,-135,-87,-67,-55
-64,-42,27,48,-51,-9,-91,-170,-135,-87,-67,-55
-64,-48,27,48,-51,-9,-91,-170,-135,-87,-67,-55
-64,-48,27,48,-51,-9,-91,-176,-141,-87,-67,-55
-64,-54,27,48,-51,-9,-91,-176,-141,-87,-67,-55
-64,-54,27,48,-51,-9,-91,-176,-141,-87,-67,-55
-64,-54,27,54,-51,-9,-91,-176,-141,-87,-67,-55
-70,-54,27,60,-51,-9,-91,-176,-141,-87,-67,-55
-70,-54,27,60,-51,-9,-85,-176,-141,-87,-67,-55
-64,-48,27,54,-51,-9,-79,-176,-141,-87,-67,-55
-64,-48,27,54,-51,-9,-79,-176,-141,-87,-67,-55
-70,-48,27,54,-51,-9,-79,-176,-147,-93,-67,-55
-70,-48,27,54,-51,-9,-79,-176,-147,-93,-67,-55
-70,-48,33,54,-51,-9,-79,-176,-153,-99,-67,-61
-70,-48,33,54,-51,-9,-79,-176,-153,-99,-67,-61
-70,-54,27,54,-51,-15,-79,-176,-153,-99,-61,-61
-70,-54,27,54,-51,-15,-79,-176,-153,-99,-61,-61
-70,-48,39,54,-51,-9,-79,-176,-153,-99,-61,-61
-70,-48,39,54,-51,-9,-79,-176,-153,-99,-61,-61
-70,-54,27,54,-45,-21,-79,-176,-153,-99,-61,-61
-64,-54,15,54,-45,-27,-79,-176,-153,-99,-61,-61
-64,-54,15,54,-45,-27,-79,-176,-153,-99,-61,-61
-64,-54,15,54,-45,-27,-79,-176,-153,-99,-61,-61
-64,-54,15,54,-45,-21,-79,-176,-153,-99,-61,-61
-64,-48,27,54,-51,-9,-79,-176,-153,-99,-61,-61
-64,-36,33,54,-51,-3,-79,-176,-153,-99,-61,-61
-64,-30,39,54,-51,2,-79,-176,-153,-99,-61,-61
-64,-24,45,54,-51,8,-79,-176,-153,-99,-61,-61
-64,-24,45,54,-51,8,-79,-176,-153,-99,-61,-61
-64,-30,45,54,-51,2,-79,-176,-153,-99,-61,-61
-64,-36,45,54,-51,2,-79,-176,-153,-99,-61,-61
-64,-36,45,54,-51,2,-79,-176,-153,-99,-61,-61
-58,-36,45,54,-51,2,-79,-176,-153,-99,-61,-61
-58,-36,45,54,-51,-3,-79,-176,-153,-99,-61,-61
-58,-36,45,54,-51,-3,-79,-176,-153,-99,-61,-61
-58,-36,45,54,-51,-3,-79,-176,-153,-99,-55,-55
-58,-30,45,48,-51,-3,-73,-170,-147,-93,-49,-55
-58,-24,45,42,-51,2,-67,-170,-147,-93,-49,-55
-52,-18,45,36,-51,8,-67,-170,-147,-93,-49,-55
-34,-6,45,18,-45,14,-61,-164,-141,-87,-43,-49
-22,35,51,-11,-45,38,-55,-152,-135,-81,-37,-43
-16,77,93,-23,-51,80,-49,-152,-129,-81,-37,-37
-16,107,135,-35,-63,110,-49,-146,-123,-75,-37,-37
-16,119,147,-47,-69,122,-43,-140,-117,-69,-31,-31
-16,113,141,-47,-63,116,-31,-122,-99,-57,-7,-13
-4,89,87,-47,-33,86,-19,-110,-81,-45,10,4
13,89,69,-47,-15,80,-7,-98,-69,-33,22,10
19,89,69,-53,-15,80,-1,-86,-57,-21,28,16
25,89,69,-53,-15,80,-1,-80,-51,-15,28,22
31,95,69,-65,-15,80,-7,-74,-45,-15,28,28
43,113,69,-77,-15,86,-13,-74,-45,-15,28,28
49,113,69,-77,-9,86,-19,-74,-45,-15,28,28
55,101,45,-77,2,62,-25,-74,-39,-15,28,28
61,89,33,-77,14,50,-31,-74,-39,-15,28,28
61,83,27,-77,20,44,-43,-74,-39,-15,28,28
61,83,27,-77,26,44,-55,-80,-45,-15,28,28
61,83,27,-77,26,44,-67,-92,-57,-21,28,22
61,77,15,-77,32,38,-79,-104,-69,-27,28,16
67,65,-14,-71,44,26,-85,-110,-75,-33,28,16
67,53,-20,-65,50,14,-91,-122,-81,-39,16,10
67,47,-26,-65,50,8,-97,-134,-87,-45,10,-1
67,47,-26,-65,50,8,-97,-140,-93,-45,4,-7
67,47,-26,-65,50,8,-97,-140,-93,-45,4,-7
61,47,-20,-65,44,8,-97,-140,-93,-45,4,-7
61,41,-14,-59,44,8,-97,-140,-99,-51,4,-7
55,41,-14,-53,44,8,-97,-140,-105,-51,4,-7
49,41,-14,-47,38,8,-97,-140,-105,-51,4,-7
37,29,-14,-35,26,8,-97,-140,-111,-51,4,-7
25,23,-8,-29,20,8,-97,-146,-117,-51,4,-7
19,17,-3,-23,14,8,-97,-152,-123,-57,-1,-13
-4,-6,-3,6,2,2,-97,-158,-129,-63,-7,-25
-40,-36,3,30,-15,-3,-97,-164,-129,-69,-13,-31
-52,-42,9,42,-27,-3,-97,-164,-135,-75,-19,-31
-58,-48,9,48,-33,-9,-97,-170,-141,-81,-25,-37
-58,-54,9,54,-33,-9,-97,-176,-147,-87,-31,-43
-64,-54,9,60,-33,-9,-97,-182,-153,-93,-37,-49
-70,-54,15,66,-39,-15,-97,-188,-159,-99,-43,-55
-70,-54,15,66,-39,-15,-97,-188,-159,-99,-43,-55
-70,-54,15,66,-39,-15,-91,-188,-159,-99,-43,-55
-70,-54,15,66,-39,-15,-85,-188,-159,-99,-43,-55
-70,-54,21,66,-39,-15,-85,-188,-159,-99,-43,-55
-70,-54,21,66,-39,-15,-85,-182,-153,-99,-43,-55
-70,-48,21,60,-39,-15,-79,-170,-141,-93,-43,-55
-58,-42,21,54,-33,-15,-73,-152,-129,-87,-37,-49
-52,-42,21,48,-33,-15,-67,-128,-111,-75,-25,-43
-46,-30,21,42,-33,-9,-67,-116,-99,-69,-13,-37
-40,-12,27,36,-33,2,-61,-104,-87,-57,-7,-31
-34,0,33,24,-33,8,-61,-92,-75,-39,10,-19
-22,29,33,0,-33,20,-61,-80,-45,-21,34,-1
25,83,39,-47,-21,32,-61,-62,-15,8,58,28
67,125,45,-107,-9,62,-55,-26,26,44,88,58
85,167,69,-125,-9,104,-49,9,68,74,118,76
97,179,75,-137,-3,110,-37,63,110,104,148,100
115,179,69,-143,20,110,-7,123,152,134,178,130
133,179,57,-149,38,110,40,201,206,164,208,142
145,185,57,-161,44,110,118,291,248,182,220,148
151,191,57,-167,44,116,184,339,272,188,220,148
163,191,33,-173,68,110,214,381,302,200,226,160
241,191,-44,-191,146,86,214,423,356,242,256,190
385,209,-146,-287,266,62,190,459,416,284,304,220
559,227,-272,-401,422,14,70,495,524,332,358,268
763,251,-452,-503,614,-63,-43,549,662,416,454,352
1003,329,-602,-671,806,-93,-145,627,806,518,580,454
1237,437,-722,-839,986,-105,-265,657,956,632,712,568
1417,563,-788,-983,1112,-105,-367,681,1130,782,874,718
1561,725,-800,-1127,1178,-75,-421,729,1346,986,1102,904
1699,881,-806,-1277,1238,2,-439,843,1592,1184,1306,1084
1801,941,-818,-1367,1304,26,-439,969,1844,1352,1474,1228
1831,959,-848,-1391,1340,32,-427,1077,2036,1466,1570,1294
1831,959,-848,-1391,1340,32,-343,1119,2119,1514,1612,1312
1753,935,-836,-1355,1298,38,-229,1143,2149,1526,1612,1312
1561,857,-740,-1211,1154,38,-127,1143,2149,1514,1594,1294
1351,755,-626,-1055,992,44,-43,1107,2030,1418,1480,1186
1099,629,-506,-863,818,44,28,987,1772,1220,1288,1036
799,473,-362,-641,590,44,118,855,1466,992,1048,838
529,305,-260,-419,404,38,208,741,1166,752,808,634
337,185,-200,-251,278,26,244,555,848,524,586,442
163,71,-140,-107,158,-3,244,285,446,272,322,220
19,-72,-122,30,86,-51,238,39,68,8,70,10
-34,-168,-122,90,68,-117,208,-74,-105,-117,-61,-109
-52,-198,-128,120,62,-147,166,-110,-147,-159,-103,-139
-58,-222,-134,132,62,-171,130,-128,-165,-183,-121,-151
-64,-234,-140,138,62,-183,94,-146,-177,-189,-127,-151
-64,-234,-140,138,56,-183,64,-152,-183,-189,-127,-151
-70,-228,-134,138,50,-183,46,-158,-183,-189,-127,-151
-76,-222,-122,138,38,-171,28,-164,-183,-189,-127,-151
-82,-204,-92,138,26,-147,16,-170,-189,-189,-127,-151
-88,-192,-74,138,2,-135,4,-182,-195,-189,-127,-151
-106,-186,-56,144,-27,-129,-1,-188,-195,-183,-121,-145
-118,-180,-44,144,-39,-123,-7,-194,-195,-177,-115,-139
-118,-168,-32,138,-45,-105,-7,-194,-195,-171,-115,-133
-118,-156,-20,138,-51,-93,-13,-194,-195,-171,-115,-127
-118,-150,-8,138,-51,-87,-13,-200,-195,-171,-115,-127
-118,-144,-3,138,-51,-81,-13,-200,-195,-171,-115,-127
-118,-144,3,138,-51,-75,-13,-200,-201,-171,-115,-127
-124,-138,9,138,-63,-69,-19,-212,-213,-171,-115,-127
-130,-138,15,138,-69,-69,-19,-218,-225,-171,-115,-127
-130,-138,15,138,-69,-69,-19,-218,-231,-171,-115,-127
-130,-138,15,138,-75,-63,-19,-218,-231,-171,-115,-127
-130,-138,15,138,-75,-63,-19,-224,-231,-171,-115,-127
-136,-138,15,138,-75,-63,-19,-224,-237,-171,-115,-127
-142,-138,21,138,-81,-63,-19,-224,-237,-171,-115,-127
-142,-138,21,138,-81,-63,-19,-224,-237,-171,-115,-127
-142,-138,21,138,-81,-63,-19,-224,-237,-171,-115,-127
-148,-132,33,138,-87,-57,-19,-224,-237,-171,-115,-127
-148,-126,45,138,-93,-51,-19,-224,-237,-171,-115,-127
-148,-126,45,138,-93,-51,-19,-224,-237,-171,-115,-127
-148,-126,45,138,-93,-51,-19,-224,-237,-171,-115,-127
-148,-126,45,138,-93,-51,-19,-224,-243,-171,-115,-127
-154,-126,45,144,-99,-51,-19,-224,-243,-171,-115,-127
-160,-126,51,144,-105,-45,-19,-224,-243,-171,-115,-127
-160,-120,51,144,-105,-39,-19,-224,-243,-171,-115,-127
-154,-114,51,138,-99,-39,-19,-224,-243,-171,-115,-127
-154,-108,51,138,-99,-33,-19,-224,-243,-171,-115,-127
-154,-108,51,138,-99,-33,-19,-224,-249,-177,-115,-127
-154,-108,51,138,-99,-33,-19,-224,-249,-177,-115,-127
-154,-108,51,132,-99,-33,-19,-224,-249,-177,-115,-127
-154,-120,51,132,-99,-39,-19,-224,-249,-177,-115,-127
-154,-132,45,138,-99,-45,-19,-224,-249,-177,-115,-127
-154,-132,45,138,-99,-45,-19,-224,-249,-177,-115,-127
-154,-126,45,138,-99,-39,-19,-224,-249,-177,-115,-127
-154,-126,45,138,-99,-39,-19,-224,-249,-183,-115,-127
-154,-126,51,138,-99,-39,-19,-224,-249,-183,-115,-127
-154,-120,51,138,-99,-33,-19,-224,-249,-183,-115,-127
-154,-114,51,138,-99,-33,-19,-218,-249,-183,-115,-127
-154,-114,51,138,-99,-33,-19,-212,-249,-183,-115,-127
-154,-114,51,138,-99,-33,-19,-206,-249,-183,-115,-127
-154,-114,51,138,-99,-33,-19,-206,-249,-183,-115,-127
-154,-114,51,138,-99,-39,-19,-200,-249,-183,-115,-127
-154,-114,51,138,-99,-39,-19,-194,-243,-183,-109,-127
-154,-114,51,138,-99,-39,-19,-194,-243,-183,-109,-127
-154,-114,51,138,-99,-39,-19,-194,-243,-183,-109,-127
-154,-114,51,138,-99,-39,-19,-194,-243,-183,-109,-127
-154,-114,45,138,-99,-39,-13,-188,-237,-177,-103,-127
-154,-114,45,138,-99,-39,-13,-182,-237,-177,-97,-127
-154,-114,45,138,-99,-39,-13,-182,-237,-177,-97,-127
-148,-114,45,138,-99,-39,-13,-182,-237,-177,-97,-127
-142,-114,45,132,-93,-39,-13,-176,-237,-177,-91,-127
-142,-108,51,126,-93,-33,-13,-176,-231,-177,-91,-127
-142,-108,51,126,-93,-33,-13,-176,-231,-177,-91,-127
-142,-114,45,126,-93,-33,-13,-170,-231,-177,-91,-127
-142,-120,39,126,-93,-39,-13,-164,-225,-171,-91,-127
-142,-120,39,126,-93,-39,-13,-164,-225,-171,-91,-127
-142,-120,39,126,-93,-39,-13,-164,-225,-171,-91,-127
-148,-120,45,126,-99,-39,-13,-164,-219,-171,-91,-127
-148,-120,45,126,-99,-39,-13,-158,-213,-171,-91,-127
-142,-120,45,126,-99,-39,-13,-152,-207,-171,-91,-127
-136,-120,39,126,-93,-39,-13,-152,-207,-171,-91,-127
-136,-114,39,120,-93,-39,-13,-146,-201,-171,-91,-127
-136,-114,39,120,-93,-39,-13,-146,-195,-171,-91,-127
-136,-114,39,120,-93,-39,-13,-140,-195,-171,-91,-127
-136,-114,39,120,-93,-39,-13,-134,-189,-171,-85,-127
-136,-114,39,120,-93,-39,-7,-128,-183,-165,-85,-127
-142,-114,39,126,-93,-39,-1,-116,-171,-159,-85,-121
-142,-114,39,126,-93,-39,-1,-116,-171,-159,-85,-121
-136,-108,39,120,-93,-39,-1,-116,-171,-159,-85,-121
-130,-96,45,114,-93,-27,-1,-116,-171,-159,-85,-121
-130,-90,51,114,-93,-21,-1,-110,-165,-159,-85,-121
-136,-90,51,120,-93,-21,-1,-104,-159,-153,-79,-121
-142,-102,51,126,-93,-27,-1,-92,-147,-147,-73,-121
-142,-102,51,126,-93,-33,-1,-86,-141,-141,-67,-121
-142,-102,51,126,-93,-33,-1,-80,-135,-135,-67,-121
-142,-102,51,126,-93,-33,-1,-74,-129,-135,-67,-121
-142,-102,51,126,-93,-33,4,-62,-117,-129,-61,-121
-136,-102,51,126,-93,-33,10,-32,-99,-123,-55,-115
-136,-102,45,126,-93,-33,16,-2,-87,-117,-43,-115
-136,-108,45,126,-93,-33,22,9,-75,-111,-37,-115
-136,-108,45,126,-93,-33,22,21,-63,-111,-37,-115
-130,-108,39,126,-87,-33,28,33,-51,-105,-37,-115
-130,-108,39,126,-81,-33,34,45,-39,-93,-31,-109
-130,-108,39,126,-81,-33,40,51,-27,-81,-25,-103
-130,-102,45,126,-81,-27,46,63,-15,-69,-19,-97
-124,-66,57,102,-81,-3,46,75,-3,-69,-19,-97
-118,-60,57,96,-81,-3,52,87,8,-63,-13,-91
-118,-72,51,96,-81,-15,64,117,38,-51,-1,-85
-118,-84,33,96,-75,-27,76,153,68,-27,10,-73
-118,-84,27,96,-75,-27,88,177,98,-15,22,-67
-118,-78,27,96,-75,-27,94,189,110,-3,34,-61
-106,-66,27,90,-75,-21,100,201,122,2,40,-55
-100,-66,27,84,-69,-21,106,213,134,14,52,-49
-94,-66,27,78,-63,-21,112,225,146,20,58,-43
-76,-66,21,72,-51,-21,118,237,158,26,64,-37
-70,-66,15,66,-45,-21,124,249,170,26,70,-31
-70,-66,15,66,-45,-21,124,261,182,32,76,-25
-70,-54,21,60,-45,-15,130,279,200,44,82,-19
-64,-48,21,54,-45,-9,136,297,212,56,94,-13
-52,-48,21,48,-45,-9,142,309,224,62,106,-13
-46,-42,21,42,-45,-9,148,321,230,68,112,-7
-40,-36,27,42,-45,2,148,327,236,68,112,-7
-34,-18,33,30,-45,14,154,327,242,68,112,-7
-28,-12,33,24,-39,14,154,333,248,68,112,-7
-22,-12,27,24,-33,14,154,345,260,74,118,4
-16,-12,21,24,-27,8,154,351,266,80,124,10
-10,-12,15,24,-21,2,154,351,272,86,124,10
-10,-12,15,24,-21,2,154,357,272,86,130,10
-4,-12,15,18,-21,2,154,357,272,86,130,10
1,-12,3,18,-9,-3,154,357,272,86,130,10
7,-12,-3,12,-3,-3,154,357,278,86,136,16
13,-6,-3,0,-3,-3,154,357,278,86,142,16
13,-6,-8,0,2,-3,154,357,278,86,142,16
13,-12,-14,0,8,-9,154,357,278,86,142,16
13,-12,-14,0,8,-9,154,351,278,86,142,16
19,-6,-14,-11,8,-3,154,345,272,86,142,16
19,0,-8,-17,8,2,148,333,266,86,142,16
19,0,-8,-17,8,2,142,321,260,86,142,16
19,0,-8,-17,8,2,142,309,248,86,142,16
19,0,-8,-17,8,2,142,285,236,80,142,16
19,0,-8,-17,8,2,136,273,224,74,136,16
19,0,-8,-17,8,2,130,261,212,74,136,16
19,0,-8,-17,8,2,124,243,200,74,136,16
13,-6,-8,-6,2,2,112,207,170,62,130,16
13,-12,-8,0,2,-3,100,177,152,50,124,16
13,-12,-8,0,2,-3,88,159,140,44,118,16
13,-12,-3,0,2,-3,76,147,128,38,112,16
13,-12,-3,0,2,-3,70,123,116,32,106,16
13,-12,-3,-6,2,-3,58,111,104,32,100,16
13,-12,3,-6,2,-3,52,93,92,26,94,16
13,-12,3,-6,2,-3,40,69,74,20,88,10
7,-12,3,-6,-3,-3,28,45,50,8,82,-1
7,-12,3,-6,-3,-3,16,33,26,-3,70,-13
7,-12,3,-6,-3,-3,10,21,20,-9,64,-13
7,-12,9,-6,-9,-3,4,9,8,-15,58,-19
1,-12,9,-6,-9,-3,-7,-8,-3,-21,52,-25
-10,-12,15,0,-15,-3,-13,-20,-9,-27,46,-31
-16,-12,15,6,-15,-3,-13,-26,-15,-27,46,-31
-22,-18,15,12,-15,-3,-19,-38,-27,-27,46,-31
-22,-18,15,18,-15,-3,-31,-50,-33,-33,34,-37
-34,-18,27,24,-27,2,-37,-62,-45,-45,28,-43
-40,-18,39,30,-39,14,-49,-74,-57,-57,22,-49
-40,-18,39,30,-39,14,-55,-80,-69,-63,16,-49
-40,-18,39,30,-39,14,-61,-86,-75,-69,10,-49
-40,-18,39,30,-39,14,-61,-92,-81,-75,4,-55
-40,-24,39,30,-39,8,-61,-92,-81,-75,4,-55
-40,-36,33,30,-33,-3,-61,-92,-81,-75,4,-55
-40,-36,33,30,-33,-3,-61,-98,-81,-75,4,-55
-40,-30,33,30,-33,-3,-61,-98,-81,-75,4,-55
-40,-30,21,30,-27,-9,-61,-98,-81,-75,4,-55
-40,-42,9,36,-21,-21,-61,-98,-81,-75,4,-55
-40,-48,3,42,-21,-21,-61,-98,-81,-75,4,-55
-40,-48,3,42,-21,-21,-61,-98,-81,-75,4,-55
-34,-48,3,42,-21,-21,-61,-98,-81,-75,4,-55
-34,-48,3,42,-21,-21,-61,-98,-81,-75,4,-55
-34,-48,3,42,-21,-21,-61,-98,-81,-75,4,-55
-34,-48,9,42,-21,-15,-61,-98,-81,-75,4,-55
-34,-30,21,42,-21,-3,-61,-104,-81,-75,4,-61
-34,-30,21,42,-21,-3,-61,-104,-81,-75,4,-61
-34,-36,15,42,-21,-9,-61,-104,-81,-75,4,-61
-34,-36,15,42,-21,-9,-61,-104,-81,-75,4,-61
-34,-36,15,42,-21,-9,-61,-104,-81,-75,4,-61
-34,-36,9,42,-21,-9,-61,-104,-81,-75,4,-61
-34,-42,9,48,-21,-15,-61,-104,-81,-75,4,-61
-34,-42,9,48,-21,-15,-61,-104,-81,-75,4,-61
-34,-42,9,48,-21,-15,-61,-104,-81,-75,4,-61
-40,-42,9,48,-21,-15,-61,-104,-81,-75,4,-61
-40,-42,9,48,-21,-15,-61,-104,-81,-75,4,-61
-34,-42,9,42,-21,-15,-61,-104,-81,-75,4,-61
-34,-42,9,42,-21,-15,-61,-104,-75,-69,4,-61
-34,-42,9,42,-21,-15,-61,-104,-75,-69,4,-61
-34,-36,15,42,-21,-9,-61,-104,-75,-69,4,-61
-34,-36,15,42,-21,-9,-61,-104,-69,-69,4,-61
-34,-36,15,42,-21,-9,-61,-104,-69,-69,4,-61
-34,-36,15,42,-21,-9,-61,-104,-69,-69,4,-61
-34,-36,15,42,-21,-9,-61,-104,-69,-69,4,-61
-34,-36,15,42,-21,-9,-61,-104,-69,-69,4,-61
-34,-36,15,42,-21,-3,-55,-104,-63,-63,4,-61
-34,-36,15,42,-21,-3,-55,-104,-57,-63,4,-61
-40,-36,21,42,-27,-3,-55,-104,-57,-63,4,-61
-40,-30,27,42,-27,-3,-55,-104,-57,-63,4,-61
-40,-24,27,42,-27,-3,-55,-104,-57,-63,4,-61
-40,-24,27,42,-27,-3,-55,-104,-57,-57,4,-61
-40,-24,27,42,-27,-3,-55,-104,-57,-57,4,-55
-40,-24,27,42,-27,-3,-55,-104,-57,-57,4,-55
-40,-24,27,42,-27,-3,-55,-104,-57,-57,4,-55
-40,-24,27,42,-27,-3,-55,-98,-57,-57,10,-49
-40,-18,27,36,-27,2,-55,-92,-51,-57,16,-43
-40,-18,27,36,-27,8,-49,-92,-51,-57,16,-43
-40,-18,33,36,-33,14,-49,-92,-51,-57,16,-43
-40,-12,39,30,-33,20,-49,-92,-51,-57,16,-43
-40,-12,39,30,-33,20,-49,-92,-51,-57,16,-43
-40,-12,39,30,-33,20,-49,-92,-51,-57,16,-43
-40,-12,39,30,-33,20,-49,-86,-45,-51,22,-37
-40,-6,39,24,-33,20,-49,-86,-39,-45,28,-31
-40,0,45,24,-33,26,-49,-86,-39,-45,28,-31
-40,0,45,24,-33,26,-49,-86,-39,-45,28,-31
-40,0,45,24,-33,26,-49,-86,-39,-45,28,-31
-40,0,45,24,-33,26,-49,-86,-39,-45,28,-31
-40,0,45,24,-33,26,-49,-86,-39,-45,28,-31
-40,0,45,24,-33,26,-43,-86,-39,-39,28,-31
-34,0,33,24,-33,20,-37,-86,-39,-39,28,-31
-34,-6,27,24,-33,14,-37,-86,-39,-39,28,-31
-40,0,45,24,-45,20,-37,-86,-39,-39,28,-31
-40,47,117,12,-75,80,-43,-86,-39,-45,22,-31
-40,65,123,6,-75,86,-43,-86,-39,-45,22,-31
-40,53,99,6,-69,74,-37,-74,-27,-39,28,-19
-40,23,63,12,-57,44,-37,-68,-21,-39,34,-13
-40,11,51,12,-51,32,-37,-68,-21,-39,34,-13
-34,11,33,12,-39,26,-37,-68,-27,-39,34,-13
-28,11,21,12,-33,20,-37,-68,-27,-39,34,-13
-28,11,21,12,-33,20,-37,-68,-27,-39,34,-13
-28,11,21,12,-33,20,-37,-68,-27,-39,34,-13
-28,11,21,12,-33,20,-37,-68,-27,-39,34,-13
-28,11,21,12,-33,20,-37,-68,-27,-39,34,-13
-28,11,21,12,-33,20,-37,-68,-27,-39,34,-13
-22,11,21,6,-27,20,-31,-68,-27,-39,34,-13
-22,11,21,6,-27,20,-31,-68,-27,-39,34,-13
-34,11,33,6,-39,26,-31,-74,-33,-39,34,-13
-34,17,45,6,-45,32,-31,-80,-39,-39,34,-13
-28,17,45,6,-39,32,-31,-80,-39,-39,34,-13
-28,11,39,6,-39,32,-31,-80,-39,-39,34,-13
-28,0,39,12,-39,26,-31,-80,-45,-45,34,-13
-28,0,39,12,-39,26,-31,-80,-45,-45,34,-13
-28,0,39,12,-39,26,-31,-80,-51,-45,34,-13
-28,0,39,12,-39,26,-31,-86,-51,-45,34,-13
-28,-6,39,12,-39,26,-31,-86,-51,-45,34,-13
-28,-6,39,12,-39,26,-31,-86,-51,-45,34,-13
-28,-6,39,12,-39,26,-31,-86,-51,-45,34,-13
-28,-6,39,12,-39,26,-31,-92,-57,-45,34,-19
-28,-6,39,12,-39,26,-31,-92,-63,-45,34,-19
-28,-6,39,12,-39,26,-31,-92,-63,-45,34,-19
-34,-6,39,12,-39,26,-31,-92,-63,-45,34,-19
-34,-6,39,12,-39,26,-31,-92,-63,-45,28,-19
-34,-6,39,12,-39,26,-31,-98,-63,-45,22,-19
-40,-6,39,18,-39,26,-31,-98,-63,-45,22,-19
-46,-12,39,24,-39,20,-31,-98,-69,-45,22,-19
-52,-18,39,30,-39,20,-31,-104,-75,-51,16,-25
-52,-18,39,30,-39,14,-31,-110,-81,-51,16,-25
-52,-18,39,30,-39,14,-31,-116,-81,-51,16,-25
-52,-18,33,30,-39,8,-31,-122,-81,-51,16,-25
-52,-18,33,30,-39,8,-31,-122,-81,-51,16,-25
-52,-18,33,30,-39,8,-31,-122,-81,-51,16,-25
-52,-12,39,30,-39,20,-31,-128,-87,-57,10,-31
-46,35,69,12,-45,50,-37,-128,-93,-63,-1,-37
-40,41,69,0,-45,56,-43,-128,-99,-69,-7,-43
-40,23,57,6,-45,44,-43,-128,-99,-69,-13,-43
-52,-6,51,30,-45,32,-43,-128,-99,-69,-13,-43
-64,-12,51,36,-51,32,-43,-128,-99,-69,-13,-43
-64,-12,51,36,-51,26,-43,-128,-99,-69,-13,-43
-64,-12,51,36,-51,26,-43,-134,-99,-81,-13,-49
-64,-18,45,36,-51,20,-43,-134,-99,-81,-13,-49
-64,-30,33,36,-45,8,-43,-134,-99,-81,-13,-49
-64,-36,21,36,-45,-3,-43,-134,-99,-81,-13,-49
-64,-36,21,36,-45,-3,-37,-134,-99,-81,-13,-49
-64,-36,21,36,-45,-3,-37,-134,-99,-81,-13,-49
-64,-36,21,36,-45,2,-37,-134,-99,-81,-13,-49
-64,-36,21,36,-45,2,-37,-134,-99,-81,-13,-49
-64,-30,21,36,-45,2,-37,-134,-99,-81,-13,-49
-64,-30,27,36,-45,2,-37,-134,-99,-81,-13,-49
-64,-30,27,36,-45,2,-37,-134,-99,-81,-13,-49
-64,-30,27,36,-45,2,-37,-134,-99,-81,-13,-49
-58,-24,27,36,-45,8,-37,-134,-99,-81,-13,-49
-58,-24,33,36,-45,8,-37,-134,-99,-81,-19,-49
-58,-30,33,42,-45,2,-37,-134,-99,-81,-19,-49
-58,-36,27,42,-45,-3,-37,-134,-99,-81,-19,-49
-58,-36,27,42,-45,-3,-37,-134,-99,-81,-19,-49
-58,-36,27,42,-45,-3,-37,-134,-99,-81,-19,-49
-52,-36,27,42,-45,-3,-37,-134,-105,-81,-19,-49
-46,-36,27,36,-45,-3,-37,-134,-105,-81,-19,-49
-46,-36,27,36,-45,-3,-37,-134,-105,-81,-19,-49
-52,-36,27,42,-45,-3,-37,-134,-105,-81,-19,-49
-58,-36,27,48,-45,-3,-37,-134,-105,-81,-19,-49
-64,-36,27,48,-45,-3,-37,-134,-105,-81,-19,-49
-64,-36,27,48,-45,-3,-37,-134,-105,-81,-19,-49
-64,-36,27,42,-45,-3,-37,-134,-105,-81,-19,-49
-58,-36,27,42,-45,-3,-37,-134,-111,-81,-19,-49
-58,-36,27,42,-45,-3,-37,-134,-111,-81,-19,-49
-58,-36,27,42,-45,2,-37,-134,-111,-81,-19,-49
-58,-30,27,42,-45,8,-37,-134,-111,-81,-19,-49
-58,-24,27,42,-45,8,-37,-134,-111,-81,-19,-49
-58,-24,27,42,-45,8,-37,-134,-111,-81,-19,-49
-58,-24,27,42,-45,8,-37,-134,-117,-81,-19,-49
-52,-24,27,42,-45,8,-37,-134,-117,-81,-19,-49
-46,-24,27,42,-45,8,-37,-134,-117,-81,-19,-49
-46,-24,27,42,-45,8,-37,-134,-117,-81,-19,-49
-52,-30,27,48,-45,2,-37,-134,-117,-81,-19,-49
-58,-36,27,48,-45,-3,-37,-134,-117,-81,-19,-49
-58,-42,27,48,-45,-3,-37,-134,-117,-81,-19,-49
-58,-42,27,48,-45,-3,-37,-134,-117,-81,-19,-49
-58,-42,27,48,-45,-3,-37,-134,-117,-81,-19,-49
-58,-42,27,48,-45,-3,-37,-134,-117,-81,-19,-49
-58,-42,27,48,-45,-3,-43,-134,-117,-81,-25,-49
-58,-30,39,48,-51,8,-49,-140,-123,-81,-31,-49
-58,-18,51,48,-57,20,-49,-140,-123,-81,-31,-49
-58,-18,45,48,-51,14,-49,-140,-123,-81,-31,-49
-58,-30,27,48,-45,2,-49,-140,-123,-81,-31,-49
-58,-30,27,48,-45,2,-49,-140,-123,-81,-31,-49
-58,-30,33,48,-45,2,-49,-140,-123,-81,-31,-49
-58,-30,33,48,-45,2,-49,-140,-123,-81,-31,-49
-58,-30,33,48,-45,2,-49,-140,-123,-81,-31,-49
-58,-24,39,48,-45,8,-49,-140,-123,-81,-31,-49
-58,-24,39,48,-45,8,-49,-140,-123,-81,-31,-49
-58,-30,33,48,-39,-3,-43,-140,-123,-81,-31,-49
-58,-36,27,48,-39,-9,-43,-140,-123,-81,-31,-49
-64,-42,27,54,-39,-9,-43,-140,-123,-81,-31,-49
-70,-42,27,54,-45,-9,-43,-140,-123,-81,-31,-49
-70,-42,27,54,-45,-9,-43,-140,-123,-81,-31,-49
-70,-42,27,54,-45,-9,-43,-140,-123,-81,-31,-49
-70,-42,27,54,-45,-9,-37,-140,-123,-81,-31,-49
-70,-42,27,54,-45,-9,-37,-140,-123,-81,-31,-49
-70,-42,27,54,-45,-9,-37,-140,-123,-81,-31,-49
-70,-42,27,54,-45,-9,-37,-140,-123,-81,-31,-49
-70,-42,27,54,-45,-9,-37,-140,-123,-81,-31,-49
-70,-42,27,54,-45,-9,-37,-140,-123,-81,-31,-49
-70,-42,27,54,-45,-9,-37,-140,-123,-81,-31,-49
-64,-36,27,48,-45,-3,-31,-140,-123,-81,-31,-49
-52,-24,27,36,-45,2,-31,-140,-123,-81,-31,-49
-46,-18,27,36,-45,2,-31,-140,-123,-81,-31,-49
-46,-18,33,36,-45,2,-31,-140,-123,-81,-31,-49
-46,-18,39,36,-45,2,-31,-140,-123,-81,-31,-49
-46,-18,39,36,-45,2,-31,-140,-123,-81,-31,-49
-40,-18,39,36,-45,2,-31,-140,-123,-81,-31,-49
-40,-18,39,30,-45,2,-25,-140,-123,-81,-31,-49
-34,-12,39,24,-45,8,-25,-140,-123,-81,-31,-49
-34,-6,39,18,-45,14,-25,-140,-123,-81,-31,-49
-34,11,51,12,-45,26,-19,-140,-123,-75,-31,-49
-34,41,63,0,-45,44,-19,-134,-123,-69,-31,-49
-22,53,63,-11,-45,50,-13,-128,-123,-63,-25,-43
-16,53,63,-17,-45,50,-1,-116,-111,-51,-19,-37
-10,53,63,-17,-45,50,22,-86,-99,-39,-7,-25
-10,53,63,-17,-45,50,34,-74,-87,-27,4,-19
-4,65,63,-29,-45,56,40,-68,-81,-21,10,-13
7,89,69,-41,-45,68,40,-62,-75,-15,16,-7
13,95,69,-53,-45,74,40,-62,-63,-9,22,4
19,95,69,-59,-39,74,40,-56,-51,2,28,16
31,101,69,-65,-27,74,40,-50,-39,8,40,22
43,107,69,-77,-21,80,46,-44,-33,14,46,28
55,113,69,-83,-15,80,46,-38,-27,20,52,34
61,113,63,-89,-9,80,46,-38,-27,20,52,34
73,119,63,-95,-3,80,46,-38,-27,20,52,40
79,119,57,-101,2,80,46,-32,-21,26,52,40
85,119,51,-101,8,80,40,-32,-15,26,58,40
91,119,45,-101,14,74,34,-32,-15,26,58,40
91,113,33,-101,20,62,22,-32,-15,26,58,40
91,95,3,-95,32,50,10,-44,-21,20,52,40
91,83,-26,-89,44,26,-1,-56,-27,14,46,40
97,71,-38,-89,56,20,-13,-68,-33,8,40,34
97,65,-38,-83,56,14,-19,-80,-39,2,34,28
91,59,-38,-77,50,14,-25,-92,-51,-3,28,22
85,53,-38,-71,50,8,-31,-98,-63,-9,22,16
79,41,-38,-59,50,8,-31,-104,-69,-9,22,16
73,35,-38,-53,44,8,-31,-104,-75,-15,22,16
73,35,-32,-53,38,8,-31,-104,-81,-21,16,10
67,35,-26,-47,32,8,-31,-110,-87,-27,10,10
55,35,-20,-41,26,8,-31,-110,-87,-27,10,4
43,35,-3,-35,20,8,-31,-116,-93,-33,4,-1
13,35,15,-23,2,14,-31,-122,-105,-39,-1,-7
-16,23,21,-6,-9,14,-31,-128,-111,-45,-7,-7
-22,0,21,6,-9,8,-31,-134,-117,-51,-13,-13
-28,-30,9,18,-9,-3,-31,-140,-117,-57,-25,-19
-34,-42,3,30,-9,-15,-31,-146,-123,-63,-37,-25
-40,-42,9,36,-21,-15,-31,-146,-129,-69,-43,-31
-46,-42,21,42,-33,-15,-31,-146,-135,-75,-49,-43
-52,-42,21,48,-39,-15,-31,-146,-141,-75,-55,-49
-58,-66,21,60,-39,-27,-31,-146,-141,-75,-55,-49
-70,-84,21,72,-39,-39,-31,-146,-141,-75,-55,-49
-70,-84,15,78,-39,-39,-31,-146,-141,-75,-55,-55
-70,-84,15,78,-39,-39,-31,-146,-141,-75,-55,-55
-76,-84,15,78,-45,-33,-25,-146,-135,-75,-55,-55
-76,-84,15,78,-45,-33,-19,-140,-129,-69,-55,-55
-76,-84,15,78,-45,-33,-19,-128,-123,-63,-55,-55
-76,-78,15,78,-45,-33,-19,-122,-117,-63,-55,-55
-64,-72,15,72,-45,-33,-19,-110,-105,-57,-49,-55
-52,-72,3,66,-33,-33,-19,-98,-93,-45,-37,-43
-46,-66,3,60,-27,-33,-19,-86,-81,-33,-25,-31
-40,-48,9,48,-27,-21,-19,-68,-51,-9,-1,-7
-28,-6,15,6,-27,2,-13,-38,-21,20,28,22
1,23,15,-23,-15,14,-13,-26,8,44,52,46
31,35,15,-35,-3,20,-13,-8,26,56,64,64
61,65,15,-59,8,32,-7,33,68,86,94,94
79,95,21,-83,14,50,10,81,110,122,124,124
91,107,21,-95,14,62,34,141,152,158,154,142
103,119,21,-107,20,68,76,219,200,188,184,160
127,131,21,-119,32,68,142,303,242,206,190,166
139,143,21,-137,44,68,208,375,272,218,190,166
151,149,9,-149,62,68,244,423,302,230,196,166
199,149,-26,-173,110,62,256,471,350,266,226,178
307,155,-116,-221,218,38,244,501,428,302,256,208
487,179,-242,-329,368,8,136,531,512,350,316,262
709,221,-410,-467,560,-33,28,585,650,422,418,358
931,293,-584,-611,752,-87,-91,657,800,530,544,472
1141,389,-698,-761,914,-111,-205,705,974,662,694,592
1333,515,-770,-917,1034,-111,-295,747,1166,830,874,754
1501,659,-788,-1067,1130,-99,-367,801,1388,1052,1108,952
1633,791,-800,-1205,1202,-57,-397,897,1640,1262,1324,1138
1747,887,-812,-1319,1268,-15,-403,1017,1898,1448,1510,1282
1801,947,-824,-1385,1310,26,-391,1143,2119,1598,1642,1390
1801,953,-824,-1391,1310,44,-325,1203,2239,1658,1690,1420
1735,929,-812,-1343,1280,50,-223,1215,2257,1664,1690,1420
1537,857,-722,-1199,1130,56,-103,1215,2251,1652,1672,1396
1315,779,-590,-1037,956,68,4,1191,2143,1562,1558,1294
1087,695,-428,-881,746,86,76,1077,1898,1364,1366,1138
799,563,-296,-671,536,92,160,945,1580,1100,1108,922
523,353,-230,-425,368,80,238,801,1250,854,862,712
301,185,-176,-245,236,44,268,627,902,620,622,502
151,47,-146,-107,152,2,274,387,530,380,370,298
61,-102,-146,12,134,-111,280,171,182,152,142,118
1,-234,-170,114,122,-195,280,45,-21,-21,-31,-19
-76,-294,-176,174,92,-225,238,-20,-111,-111,-109,-91
-100,-312,-176,192,62,-231,196,-62,-153,-153,-139,-121
-100,-312,-176,192,56,-231,154,-74,-171,-165,-151,-127
-100,-300,-170,192,50,-231,118,-86,-177,-165,-151,-133
-100,-264,-152,192,26,-219,76,-92,-177,-165,-151,-133
-100,-234,-140,180,20,-195,52,-98,-177,-165,-151,-133
-100,-216,-122,174,14,-171,40,-104,-177,-159,-151,-133
-100,-204,-92,168,-3,-141,22,-110,-177,-159,-151,-133
-112,-186,-50,162,-27,-105,10,-116,-183,-159,-151,-133
-118,-162,-8,156,-39,-75,4,-128,-189,-159,-151,-133
-124,-156,-3,150,-51,-69,-1,-134,-195,-159,-151,-127
-124,-156,-3,150,-57,-69,-1,-134,-195,-153,-151,-127
-124,-150,-3,150,-57,-69,-1,-140,-195,-153,-151,-127
-130,-150,3,150,-69,-69,-1,-146,-201,-153,-151,-127
-142,-150,9,150,-81,-69,-7,-152,-207,-153,-151,-127
-148,-150,15,150,-87,-69,-7,-152,-213,-153,-151,-127
-148,-150,15,150,-87,-69,-7,-152,-219,-153,-151,-127
-148,-150,15,150,-87,-69,-7,-152,-225,-153,-151,-127
-154,-150,15,156,-93,-69,-13,-158,-231,-153,-151,-127
-154,-150,21,156,-93,-69,-13,-158,-231,-153,-151,-127
-154,-144,27,156,-93,-57,-19,-164,-237,-153,-151,-127
-154,-138,33,156,-99,-51,-19,-170,-237,-153,-151,-127
-160,-138,33,156,-99,-51,-19,-170,-237,-153,-151,-127
-160,-138,33,156,-99,-51,-19,-170,-237,-153,-151,-127
-160,-138,33,156,-99,-57,-19,-170,-237,-153,-151,-127
-160,-144,27,156,-99,-63,-25,-176,-243,-153,-151,-127
-166,-144,27,156,-105,-63,-31,-176,-249,-153,-157,-127
-172,-144,39,156,-111,-63,-31,-176,-249,-153,-157,-127
-184,-150,39,162,-117,-63,-31,-176,-249,-153,-157,-127
-184,-156,39,168,-117,-63,-31,-176,-249,-153,-157,-127
-178,-156,39,162,-111,-63,-31,-176,-249,-153,-157,-127
-172,-144,39,156,-105,-57,-31,-176,-249,-153,-157,-127
-172,-138,45,156,-111,-45,-31,-176,-249,-153,-157,-127
-172,-132,51,156,-111,-45,-31,-176,-249,-153,-157,-127
-172,-132,51,156,-111,-45,-31,-176,-249,-153,-157,-127
-172,-132,45,156,-111,-45,-31,-176,-249,-153,-157,-127
-172,-132,45,156,-111,-45,-31,-176,-249,-153,-157,-127
-172,-138,39,156,-111,-51,-31,-176,-249,-153,-157,-127
-172,-156,27,162,-105,-69,-31,-176,-249,-153,-157,-127
-172,-156,27,162,-105,-69,-31,-176,-249,-153,-157,-127
-172,-150,33,162,-105,-63,-31,-176,-249,-153,-163,-127
-172,-150,33,162,-105,-63,-31,-176,-249,-153,-163,-127
-172,-144,33,162,-105,-63,-31,-170,-249,-153,-163,-127
-172,-138,39,162,-105,-63,-31,-170,-249,-153,-163,-127
-172,-138,39,162,-105,-63,-25,-170,-249,-153,-163,-127
-172,-144,39,162,-105,-69,-19,-170,-243,-153,-163,-127
-172,-144,39,162,-105,-69,-19,-170,-243,-153,-163,-127
-172,-144,45,162,-105,-63,-19,-164,-243,-153,-163,-127
-166,-132,45,150,-105,-51,-13,-158,-243,-153,-163,-127
-160,-120,45,144,-105,-45,-7,-152,-237,-153,-163,-127
-160,-126,39,144,-105,-45,-7,-146,-231,-153,-163,-121
-160,-132,33,150,-105,-57,-7,-140,-225,-153,-163,-121
-160,-132,33,150,-105,-57,-7,-140,-225,-153,-163,-121
-160,-132,33,150,-105,-57,-7,-140,-225,-153,-163,-121
-160,-132,33,150,-105,-57,-7,-140,-225,-153,-157,-115
-160,-132,33,150,-105,-57,-7,-140,-225,-153,-151,-115
-160,-132,33,150,-105,-57,-7,-134,-225,-153,-151,-115
-160,-132,33,150,-105,-57,-7,-134,-225,-153,-151,-115
-160,-132,33,150,-105,-57,-7,-134,-225,-153,-151,-115
-160,-132,33,150,-105,-57,-7,-134,-225,-153,-151,-115
-160,-132,33,150,-105,-57,-7,-134,-225,-153,-151,-115
-166,-138,33,150,-111,-57,-7,-134,-219,-153,-151,-115
-172,-150,33,156,-111,-63,-7,-134,-219,-153,-151,-115
-172,-156,27,156,-105,-63,-7,-134,-213,-153,-151,-115
-166,-156,21,156,-99,-63,-7,-134,-207,-147,-151,-115
-166,-156,21,156,-99,-63,-7,-128,-207,-147,-145,-115
-166,-156,21,156,-99,-63,-7,-122,-201,-147,-145,-115
-166,-156,21,156,-99,-63,-7,-116,-195,-147,-145,-115
-166,-156,21,156,-99,-63,-7,-116,-195,-147,-145,-115
-166,-156,21,156,-99,-63,-7,-116,-189,-147,-145,-115
-166,-156,21,156,-99,-63,-7,-110,-189,-147,-145,-115
-178,-162,21,162,-105,-63,-7,-110,-189,-147,-145,-115
-184,-168,21,168,-111,-63,-7,-110,-189,-147,-145,-115
-190,-180,21,180,-111,-69,-13,-110,-183,-147,-145,-115
-202,-186,21,186,-117,-69,-13,-104,-177,-147,-145,-115
-202,-180,33,186,-123,-69,-13,-98,-171,-147,-145,-115
-202,-174,33,186,-123,-69,-13,-98,-171,-147,-145,-115
-202,-174,33,186,-123,-69,-13,-92,-165,-141,-145,-115
-202,-180,27,186,-123,-75,-13,-80,-153,-135,-145,-115
-202,-186,21,186,-117,-81,-13,-68,-147,-135,-145,-115
-202,-192,21,186,-117,-87,-13,-56,-141,-135,-145,-115
-202,-192,21,186,-117,-87,-13,-50,-135,-129,-139,-109
-202,-192,21,186,-117,-87,-7,-38,-123,-123,-133,-103
-202,-192,21,186,-117,-87,-7,-26,-111,-117,-127,-103
-202,-192,21,192,-117,-87,-1,-14,-105,-111,-127,-103
-208,-192,21,192,-117,-87,-1,-2,-99,-105,-121,-103
-208,-192,21,192,-117,-87,4,9,-87,-99,-115,-97
-202,-186,21,192,-117,-87,10,27,-75,-93,-109,-97
-202,-186,21,192,-117,-87,10,39,-63,-93,-103,-97
-208,-186,27,192,-123,-81,16,51,-51,-87,-97,-97
-214,-180,39,192,-129,-75,22,63,-39,-81,-91,-97
-214,-174,45,186,-129,-75,34,75,-15,-69,-85,-97
-208,-174,45,186,-123,-75,46,105,14,-57,-79,-91
-202,-174,33,180,-117,-75,58,135,32,-45,-67,-79
-196,-174,27,180,-111,-75,64,153,50,-33,-61,-67
-196,-168,27,180,-111,-69,70,177,62,-21,-55,-61
-190,-156,33,174,-111,-57,70,189,74,-15,-49,-61
-178,-144,33,168,-111,-57,76,207,86,-9,-49,-55
-172,-144,27,162,-105,-57,88,231,110,2,-37,-43
-166,-144,21,162,-99,-63,100,243,134,14,-19,-31
-154,-138,21,144,-93,-63,106,255,146,26,-7,-25
-142,-126,21,126,-93,-63,112,261,158,32,-1,-25
-136,-120,21,126,-93,-63,118,279,182,38,4,-19
-136,-120,21,126,-87,-63,130,309,206,50,10,-7
-124,-114,21,114,-81,-63,136,321,218,56,16,-1
-112,-102,21,102,-75,-51,142,333,224,62,22,4
-100,-90,21,96,-69,-33,142,339,224,62,22,4
-94,-90,21,96,-63,-33,142,345,230,62,22,4
-94,-90,15,96,-57,-39,148,357,242,74,34,10
-94,-90,15,96,-57,-39,154,369,260,86,46,16
-82,-90,9,90,-51,-39,160,381,272,98,52,22
-76,-84,3,78,-45,-39,160,387,278,104,58,22
-70,-78,3,72,-39,-39,166,387,278,104,58,22
-64,-78,-3,66,-33,-39,172,393,278,104,58,22
-64,-78,-3,60,-33,-39,178,399,284,104,58,28
-58,-78,-3,60,-33,-39,184,399,284,110,64,28
-52,-78,-3,54,-27,-39,184,399,284,110,64,34
-46,-72,-3,54,-27,-39,184,399,284,110,64,34
-46,-72,-3,54,-27,-39,184,399,284,110,64,34
-46,-66,-3,54,-27,-39,184,399,284,110,64,40
-46,-54,-3,48,-27,-33,184,399,284,110,64,40
-46,-36,3,42,-27,-21,184,393,284,110,64,40
-46,-30,3,36,-27,-21,184,393,284,110,64,40
-46,-36,-3,36,-27,-21,184,387,284,110,64,40
-46,-42,-3,36,-27,-21,178,369,272,110,64,40
-46,-54,-3,36,-27,-27,178,357,266,110,64,40
-46,-66,-14,36,-21,-39,178,345,260,110,64,46
-46,-66,-14,36,-21,-39,178,333,248,110,64,46
-46,-54,-8,36,-21,-33,166,303,218,104,58,46
-46,-48,-3,36,-21,-27,154,267,188,92,52,46
-46,-42,-3,36,-21,-27,148,249,170,86,46,46
-46,-42,-3,36,-21,-27,142,237,164,80,46,46
-46,-48,-3,42,-21,-27,136,225,158,80,46,46
-52,-54,-3,48,-21,-27,130,201,146,74,40,46
-52,-60,-3,54,-21,-33,118,177,122,68,34,46
-52,-60,-3,54,-21,-33,106,159,110,62,28,46
-52,-60,-3,54,-21,-33,100,147,92,62,28,46
-46,-54,-3,48,-21,-33,94,129,80,56,22,40
-46,-54,-3,48,-21,-33,88,105,62,44,16,34
-46,-54,-3,48,-21,-33,82,93,44,38,10,34
-46,-60,-3,48,-21,-33,76,75,32,32,4,28
-46,-60,-3,48,-21,-33,70,51,20,26,-7,22
-52,-60,-3,48,-21,-33,64,39,8,20,-13,16
-52,-60,-3,48,-21,-33,58,27,-3,14,-13,10
-52,-60,-3,54,-21,-33,46,15,-21,8,-19,10
-52,-66,-3,60,-21,-39,34,3,-27,-3,-25,10
-52,-66,-3,60,-21,-39,28,-2,-33,-9,-31,10
-52,-66,-3,60,-21,-39,28,-8,-39,-15,-37,10
-58,-66,-3,60,-27,-39,28,-14,-45,-15,-37,10
-64,-66,-3,66,-33,-39,28,-14,-51,-15,-43,10
-70,-66,3,66,-39,-39,22,-20,-57,-21,-43,10
-70,-66,3,66,-39,-39,16,-26,-57,-21,-43,4
-76,-66,9,66,-39,-39,16,-26,-57,-21,-43,4
-76,-60,21,66,-45,-27,10,-32,-57,-21,-43,-1
-70,-42,33,54,-45,-15,4,-38,-63,-27,-49,-7
-64,-36,33,48,-45,-15,4,-38,-69,-27,-49,-7
-64,-42,27,48,-45,-15,4,-38,-69,-27,-49,-7
-64,-54,21,54,-45,-21,4,-38,-69,-33,-49,-7
-64,-60,15,54,-45,-27,4,-38,-69,-39,-49,-13
-64,-66,3,54,-39,-33,4,-38,-69,-39,-49,-13
-64,-72,-3,54,-39,-39,4,-38,-69,-39,-49,-13
-64,-72,-3,54,-39,-39,4,-38,-69,-39,-49,-13
-64,-72,-3,54,-39,-39,4,-38,-69,-39,-49,-13
-64,-72,-3,54,-39,-39,4,-38,-69,-39,-49,-13
-70,-72,-3,54,-39,-39,4,-38,-69,-39,-49,-13
-70,-72,-3,60,-39,-39,-1,-38,-69,-39,-49,-13
-70,-72,-3,60,-39,-39,-1,-38,-69,-39,-49,-13
-64,-66,-3,54,-39,-39,-1,-38,-69,-39,-49,-13
-64,-66,-3,54,-39,-39,-7,-38,-69,-39,-49,-13
-64,-66,-3,54,-39,-39,-7,-38,-69,-39,-49,-13
-64,-66,-3,54,-39,-39,-7,-38,-69,-39,-49,-13
-64,-66,-8,54,-39,-45,-7,-38,-69,-39,-49,-13
-58,-66,-8,54,-33,-45,-7,-38,-69,-39,-49,-13
-58,-66,-8,54,-33,-45,-7,-38,-69,-39,-49,-13
-58,-60,-3,54,-33,-39,-7,-38,-69,-39,-49,-13
-58,-60,3,54,-33,-33,-13,-38,-69,-39,-49,-13
-58,-60,3,48,-33,-33,-13,-38,-69,-39,-49,-13
-58,-60,3,48,-33,-33,-13,-38,-69,-39,-49,-13
-58,-60,9,48,-33,-33,-13,-38,-69,-39,-49,-13
-58,-48,15,42,-33,-27,-13,-38,-69,-39,-49,-13
-52,-36,21,36,-33,-15,-13,-38,-69,-39,-49,-13
-52,-30,21,36,-33,-15,-13,-38,-69,-39,-49,-13
-52,-30,21,36,-33,-15,-13,-38,-69,-39,-49,-13
-46,-30,15,36,-33,-15,-13,-38,-69,-39,-49,-7
-40,-30,15,36,-33,-21,-13,-38,-63,-33,-43,-1
-34,-30,15,36,-33,-21,-13,-38,-57,-33,-43,-1
-34,-30,15,36,-33,-21,-13,-38,-57,-33,-43,-1
-34,-30,15,36,-33,-21,-7,-38,-57,-33,-43,-1
-28,-24,15,30,-27,-21,-1,-38,-57,-33,-43,-1
-28,-24,15,24,-27,-21,-1,-38,-57,-27,-43,4
-28,-24,15,24,-27,-21,-1,-38,-57,-27,-43,4
-28,-24,15,24,-27,-21,-1,-38,-57,-27,-43,4
-28,-12,15,24,-27,-15,-1,-38,-57,-27,-43,4
-22,-6,15,18,-21,-15,4,-32,-51,-27,-37,10
-16,0,15,18,-21,-15,4,-26,-45,-27,-31,10
-16,5,27,18,-27,-3,4,-26,-45,-27,-31,10
-16,5,39,18,-33,8,4,-26,-45,-27,-31,10
-16,5,39,18,-33,8,4,-26,-45,-21,-31,10
-10,5,39,12,-33,8,10,-26,-45,-21,-25,16
-10,11,39,6,-33,8,16,-26,-39,-21,-25,16
-10,17,39,0,-33,14,16,-26,-39,-21,-25,16
-10,17,39,0,-33,14,16,-26,-39,-21,-25,16
-10,17,39,0,-33,14,16,-26,-39,-21,-25,16
-10,23,39,-6,-33,14,16,-26,-39,-21,-25,16
-10,35,45,-11,-33,26,16,-26,-39,-15,-19,16
-10,47,51,-17,-33,38,16,-26,-39,-15,-19,16
-4,47,57,-23,-33,44,16,-26,-39,-15,-19,16
-4,47,57,-29,-33,44,16,-26,-39,-15,-19,16
7,47,45,-35,-21,44,16,-26,-39,-15,-19,16
13,47,39,-35,-15,44,16,-26,-33,-9,-19,22
7,47,45,-35,-21,44,22,-26,-27,-3,-13,28
1,47,45,-35,-27,44,22,-26,-27,2,-7,28
1,47,45,-35,-27,44,22,-26,-27,2,-7,28
7,47,45,-35,-27,44,22,-26,-27,2,-7,28
7,47,45,-35,-21,44,22,-26,-27,2,-7,28
7,47,45,-35,-21,44,22,-26,-27,2,-7,28
7,47,45,-35,-21,44,22,-26,-27,2,-7,28
7,47,45,-35,-21,44,22,-26,-27,2,-7,28
7,47,45,-35,-21,44,22,-26,-27,2,-7,28
7,47,45,-35,-21,44,22,-26,-27,2,-7,28
7,53,51,-35,-27,50,22,-32,-27,2,-7,28
7,65,63,-41,-27,62,22,-32,-27,2,-7,28
7,65,63,-41,-27,62,22,-32,-27,2,-7,28
7,47,51,-35,-27,38,22,-32,-27,2,-7,28
7,35,21,-35,-15,14,22,-32,-27,2,-7,28
7,35,21,-35,-15,14,22,-32,-27,2,-7,28
7,35,21,-35,-15,14,22,-32,-27,2,-7,28
7,35,27,-35,-15,20,22,-32,-27,2,-7,28
7,35,27,-35,-15,26,22,-32,-33,2,-7,28
7,35,27,-35,-15,26,22,-32,-33,2,-7,28
7,29,27,-29,-15,26,22,-32,-33,2,-7,28
7,23,27,-23,-15,20,22,-38,-33,-3,-7,28
1,17,27,-17,-15,14,22,-38,-33,-9,-7,28
1,17,27,-17,-15,14,22,-38,-33,-9,-7,28
1,17,27,-17,-15,14,22,-44,-39,-15,-13,28
1,17,27,-17,-15,14,22,-44,-39,-15,-13,28
1,17,21,-17,-15,14,22,-44,-39,-15,-13,28
1,17,27,-17,-15,14,22,-44,-39,-15,-13,28
1,17,33,-17,-21,14,16,-50,-39,-15,-13,28
1,17,33,-17,-21,14,10,-50,-39,-15,-13,28
1,17,33,-17,-21,14,10,-50,-39,-15,-13,28
1,17,33,-17,-21,14,10,-50,-39,-15,-13,28
1,17,33,-17,-21,14,10,-56,-39,-15,-13,28
1,17,33,-17,-21,14,10,-56,-45,-15,-13,28
1,17,33,-17,-21,14,10,-56,-45,-15,-13,28
1,23,33,-17,-21,14,10,-56,-51,-21,-19,22
1,23,33,-17,-21,14,10,-56,-57,-27,-19,16
-4,11,33,-11,-21,14,10,-56,-63,-27,-19,16
-4,11,33,-11,-21,14,10,-56,-63,-27,-19,16
-4,11,33,-11,-21,14,10,-56,-63,-27,-19,16
-4,11,33,-11,-21,14,10,-62,-63,-27,-25,16
-4,11,27,-11,-21,14,4,-68,-63,-33,-31,16
-4,11,27,-11,-21,14,-1,-68,-63,-33,-31,16
-4,11,27,-11,-21,14,-1,-68,-63,-33,-31,16
-4,17,27,-11,-21,14,-1,-68,-63,-33,-31,16
-4,17,27,-11,-21,14,-1,-68,-63,-33,-31,16
-4,17,21,-11,-15,8,-1,-68,-63,-33,-31,16
1,17,15,-11,-15,2,-1,-68,-63,-33,-31,16
1,17,15,-11,-15,2,-1,-74,-69,-39,-37,10
1,23,21,-11,-15,14,-7,-74,-75,-45,-37,4
1,23,21,-11,-15,14,-7,-74,-75,-45,-37,4
1,23,21,-11,-15,14,-7,-74,-75,-45,-37,4
1,23,21,-11,-15,14,-7,-74,-75,-45,-37,4
1,35,27,-17,-15,20,-7,-74,-75,-45,-37,4
1,35,33,-17,-15,20,-7,-80,-75,-45,-37,4
1,35,39,-17,-21,20,-7,-80,-75,-45,-37,4
1,35,39,-17,-21,20,-7,-80,-81,-45,-37,4
1,35,39,-17,-21,20,-7,-80,-81,-45,-37,4
1,35,39,-17,-21,20,-7,-86,-87,-45,-37,4
1,35,39,-17,-21,20,-7,-86,-87,-45,-37,4
1,35,33,-17,-21,20,-7,-86,-87,-45,-37,4
1,29,27,-17,-21,20,-7,-86,-87,-45,-37,4
1,29,27,-17,-21,20,-7,-92,-87,-45,-37,4
1,29,27,-17,-21,20,-7,-92,-87,-45,-37,4
1,29,27,-17,-21,20,-7,-92,-87,-45,-37,4
7,29,27,-23,-15,20,-7,-92,-87,-45,-37,4
13,29,27,-23,-9,20,-7,-92,-87,-45,-37,4
13,17,21,-17,-9,14,-7,-92,-87,-45,-37,4
7,17,21,-11,-9,14,-7,-92,-87,-45,-37,4
7,17,21,-17,-9,14,-7,-92,-87,-45,-37,4
7,17,21,-17,-9,14,-7,-92,-87,-45,-37,4
1,17,21,-17,-9,14,-7,-92,-87,-45,-37,4
-4,17,21,-17,-15,14,-7,-92,-87,-45,-37,4
-4,17,21,-17,-15,14,-7,-92,-93,-51,-37,-1
-4,17,21,-17,-15,14,-7,-92,-93,-51,-37,-1
-4,17,21,-17,-15,14,-7,-92,-93,-51,-37,-1
-4,17,21,-11,-15,14,-7,-92,-93,-51,-37,-1
-10,11,21,0,-15,14,-7,-92,-93,-51,-37,-1
-10,11,21,0,-15,14,-7,-92,-93,-51,-37,-1
-10,11,21,0,-15,14,-7,-98,-93,-51,-37,-1
-10,11,21,0,-15,14,-7,-98,-93,-51,-37,-1
-10,11,21,0,-15,14,-7,-98,-93,-51,-37,-1
-10,11,21,0,-15,14,-7,-98,-93,-51,-37,-1
-10,11,21,0,-15,14,-7,-98,-93,-51,-37,-1
-22,11,27,6,-27,14,-7,-98,-93,-51,-37,-1
-22,11,27,6,-33,14,-7,-98,-93,-51,-37,-1
-16,11,27,6,-33,14,-7,-98,-93,-51,-37,-1
-16,11,27,6,-33,14,-7,-98,-93,-51,-37,-1
-16,11,27,6,-33,14,-7,-98,-93,-51,-37,-1
-16,11,27,6,-33,14,-7,-98,-93,-51,-37,-1
-16,17,27,6,-33,20,-7,-98,-93,-51,-37,-1
-16,17,27,6,-33,20,-7,-98,-93,-51,-37,-1
-16,11,15,6,-27,14,-7,-98,-93,-51,-37,-1
-16,5,15,6,-27,8,-7,-98,-99,-51,-43,-1
-16,5,15,6,-27,8,-7,-98,-99,-51,-43,-1
-16,5,15,6,-27,8,-7,-98,-99,-51,-43,-1
-16,5,15,6,-27,8,-7,-98,-99,-51,-43,-1
-16,5,15,6,-27,8,-7,-98,-99,-51,-43,-1
-16,5,15,0,-27,14,-7,-98,-99,-51,-43,-1
-10,17,15,-11,-27,26,-7,-98,-99,-51,-43,-1
-10,23,15,-11,-27,26,-7,-98,-99,-51,-43,-1
-16,23,15,-11,-27,26,-7,-98,-99,-51,-43,-1
-22,23,15,-11,-27,26,-7,-98,-99,-51,-43,-1
-22,23,15,-11,-27,26,-7,-98,-99,-51,-43,-1
-22,23,15,-11,-27,26,-7,-98,-99,-51,-43,-1
-22,23,21,-11,-27,26,-7,-98,-99,-51,-43,-1
-22,23,21,-11,-27,26,-7,-98,-99,-51,-43,-1
-22,23,21,-11,-27,26,-7,-98,-99,-51,-43,-1
-22,23,21,-11,-27,26,-7,-98,-99,-51,-43,-1
-28,23,21,-11,-27,26,-7,-98,-99,-51,-43,-1
-28,23,21,-11,-27,26,-7,-98,-99,-51,-43,-1
-22,29,21,-17,-27,26,-7,-98,-99,-51,-43,-1
-22,29,21,-17,-27,26,-7,-104,-99,-51,-43,-1
-22,29,21,-17,-27,26,-7,-104,-99,-51,-43,-1
-22,17,21,-11,-27,20,-7,-104,-99,-51,-43,-1
-22,17,21,-11,-27,20,-7,-104,-99,-51,-43,-1
-22,29,33,-11,-27,38,-7,-104,-99,-51,-43,-1
-22,59,51,-17,-33,68,-13,-104,-99,-57,-43,-7
-22,59,51,-17,-33,68,-13,-104,-99,-57,-43,-7
-22,35,45,-11,-33,44,-13,-104,-93,-51,-43,-7
-22,23,33,-6,-33,32,-13,-104,-93,-51,-43,-7
-16,23,27,-6,-33,32,-13,-104,-93,-51,-43,-7
-16,23,27,-6,-33,32,-19,-104,-93,-51,-43,-7
-16,23,27,-6,-33,32,-25,-104,-93,-51,-43,-7
-16,23,27,-6,-33,32,-31,-104,-93,-51,-43,-7
-16,23,27,-6,-27,32,-31,-104,-93,-51,-43,-7
-16,23,27,-6,-27,32,-31,-104,-87,-45,-37,-7
-16,29,39,-6,-33,38,-31,-104,-81,-39,-31,-1
-16,35,51,-6,-33,50,-31,-104,-81,-33,-31,-1
-16,47,57,-17,-33,56,-31,-98,-81,-33,-31,-1
-4,65,57,-29,-33,62,-31,-86,-75,-27,-25,4
1,77,57,-41,-33,68,-25,-74,-63,-15,-13,16
1,83,57,-47,-33,68,-13,-62,-51,-3,-1,28
1,89,57,-53,-33,74,-13,-50,-45,8,4,34
7,101,63,-59,-33,86,-13,-44,-39,14,10,40
25,119,63,-71,-27,92,-13,-38,-33,20,16,46
37,125,63,-83,-21,98,-13,-32,-27,20,16,46
43,125,63,-89,-21,98,-13,-32,-21,26,22,52
55,137,69,-101,-21,104,-13,-26,-15,32,28,52
61,167,81,-113,-21,122,-13,-20,-9,32,28,52
67,173,81,-119,-21,122,-19,-20,-9,32,28,52
73,167,63,-119,-9,116,-19,-14,-3,38,34,58
79,161,39,-119,8,104,-19,-8,-3,38,34,64
85,161,33,-119,14,98,-25,-8,-3,38,34,64
91,155,27,-119,20,92,-37,-8,-3,38,34,64
97,149,21,-119,32,86,-49,-14,-3,32,34,64
97,149,21,-119,32,86,-67,-26,-9,26,28,58
97,149,21,-119,32,86,-79,-38,-15,20,22,58
97,125,15,-113,32,74,-85,-44,-21,14,22,58
97,95,-3,-107,38,50,-91,-50,-27,8,22,58
97,95,-8,-107,38,50,-97,-56,-33,2,16,52
97,95,-8,-107,38,50,-97,-62,-39,2,10,46
97,95,-8,-107,38,50,-97,-74,-45,-3,4,46
91,95,-8,-107,38,50,-97,-80,-51,-3,-1,40
85,95,-8,-107,38,50,-97,-80,-57,-3,-7,40
79,89,-8,-95,38,50,-97,-86,-63,-3,-7,40
67,77,-8,-83,32,44,-97,-86,-63,-3,-7,40
55,71,-3,-71,26,44,-97,-86,-63,-9,-7,40
43,59,3,-53,14,44,-97,-86,-69,-15,-7,34
31,47,3,-35,2,44,-97,-92,-75,-21,-13,28
19,41,9,-29,-3,44,-97,-98,-81,-27,-19,22
7,35,9,-23,-9,38,-97,-98,-87,-33,-25,16
-10,29,15,-11,-21,38,-97,-98,-99,-39,-37,4
-22,29,21,-6,-27,38,-97,-104,-111,-51,-49,-7
-28,29,27,0,-33,38,-97,-104,-117,-57,-55,-13
-28,29,27,0,-33,38,-97,-104,-117,-57,-61,-13
-28,23,27,6,-33,38,-97,-110,-117,-63,-67,-19
-34,17,27,12,-33,32,-97,-110,-117,-63,-67,-25
-34,17,33,12,-33,32,-97,-110,-117,-63,-67,-25
-34,17,45,12,-39,38,-97,-110,-117,-63,-67,-25
-34,17,45,12,-39,38,-85,-110,-111,-57,-55,-25
-34,17,39,12,-39,32,-73,-104,-99,-51,-49,-19
-34,17,33,12,-39,32,-67,-86,-87,-39,-43,-13
-28,23,33,6,-39,32,-67,-74,-63,-27,-31,-1
-22,29,33,0,-39,32,-61,-62,-51,-21,-25,10
-22,29,33,0,-39,32,-55,-44,-39,-15,-13,16
-16,35,33,-6,-39,32,-55,-26,-27,-3,-1,28
7,47,33,-29,-27,38,-55,-14,-9,8,16,40
37,83,33,-59,-15,50,-49,15,26,38,40,70
49,113,33,-89,-9,68,-43,27,68,68,70,94
79,143,33,-119,2,80,-37,51,92,98,100,124
121,179,33,-155,14,92,-31,93,134,128,124,154
151,209,33,-185,26,110,-19,141,176,164,142,166
169,221,33,-197,38,122,10,195,218,194,160,178
169,227,33,-203,44,122,58,291,260,224,184,190
169,233,45,-209,44,128,142,387,302,242,196,196
175,239,45,-215,50,128,196,435,326,248,202,196
205,245,39,-227,62,128,214,471,356,260,208,202
283,257,3,-269,134,128,214,513,410,290,238,226
415,269,-116,-335,260,116,178,531,494,332,292,268
601,299,-278,-449,428,74,58,573,602,404,388,346
823,347,-452,-587,638,8,-49,657,770,512,508,454
1015,401,-584,-713,788,-33,-157,729,938,638,628,574
1189,509,-644,-851,908,-39,-283,753,1088,752,778,694
1387,677,-680,-1031,1028,-27,-373,789,1286,944,964,868
1573,827,-710,-1199,1130,8,-403,855,1538,1166,1204,1066
1729,947,-740,-1331,1220,56,-409,987,1820,1394,1438,1252
1819,1037,-752,-1433,1274,98,-409,1125,2083,1580,1618,1402
1837,1067,-752,-1451,1292,128,-391,1209,2263,1676,1720,1468
1813,1067,-746,-1439,1280,140,-331,1227,2317,1694,1738,1474
1651,1007,-710,-1325,1184,140,-211,1233,2335,1694,1738,1468
1453,905,-620,-1181,1028,140,-79,1233,2329,1688,1708,1438
1255,851,-482,-1061,866,152,-1,1197,2179,1586,1570,1324
1027,743,-344,-881,680,164,58,1053,1892,1358,1342,1138
727,551,-236,-647,488,164,160,933,1568,1106,1090,928
469,347,-188,-407,326,128,244,813,1244,854,844,712
289,209,-146,-257,218,86,268,615,896,608,592,514
163,77,-128,-137,152,14,268,345,482,320,322,280
61,-60,-128,-11,116,-75,262,129,128,80,76,76
1,-138,-134,66,92,-117,232,9,-45,-57,-61,-31
-34,-156,-134,90,68,-135,172,-32,-99,-105,-109,-79
-52,-168,-134,102,56,-141,118,-56,-123,-123,-127,-97
-52,-174,-134,108,50,-147,82,-68,-135,-135,-133,-103
-52,-174,-134,108,44,-147,52,-80,-141,-135,-139,-103
-52,-162,-122,108,32,-141,22,-86,-141,-135,-139,-103
-58,-156,-104,108,20,-129,10,-92,-141,-135,-139,-103
-70,-150,-68,108,-3,-111,-1,-98,-147,-135,-139,-103
-76,-126,-38,108,-15,-81,-7,-110,-153,-135,-139,-103
-76,-102,-20,102,-21,-57,-13,-116,-153,-135,-139,-103
-76,-96,-14,102,-27,-45,-19,-128,-159,-135,-139,-103
-88,-96,-8,102,-39,-39,-19,-134,-165,-135,-139,-103
-94,-90,-3,96,-51,-33,-19,-140,-171,-135,-139,-103
-100,-84,9,96,-57,-27,-19,-146,-171,-135,-139,-103
-112,-84,21,96,-69,-27,-25,-146,-177,-135,-139,-103
-124,-90,21,102,-75,-33,-31,-146,-183,-135,-139,-103
-124,-90,21,102,-75,-33,-31,-146,-183,-135,-139,-97
-124,-84,27,102,-75,-33,-31,-146,-183,-135,-139,-97
-124,-78,39,102,-75,-27,-31,-152,-195,-135,-139,-97
-124,-78,51,102,-81,-21,-37,-158,-207,-141,-139,-97
-130,-72,57,102,-87,-9,-43,-164,-213,-141,-139,-97
-130,-60,63,96,-87,2,-43,-170,-219,-141,-139,-97
-130,-60,63,96,-93,2,-37,-170,-219,-141,-139,-97
-142,-78,63,108,-99,-9,-31,-170,-219,-141,-139,-97
-142,-90,57,114,-99,-15,-25,-170,-219,-141,-139,-97
-136,-90,57,114,-99,-15,-19,-170,-219,-141,-139,-97
-136,-90,57,114,-99,-15,-19,-170,-219,-141,-139,-97
-136,-90,57,114,-99,-15,-13,-170,-219,-141,-139,-97
-136,-90,57,114,-99,-15,-13,-170,-219,-141,-139,-97
-142,-90,57,114,-99,-15,-13,-170,-219,-141,-139,-97
-148,-84,69,114,-111,-9,-13,-170,-219,-141,-139,-97
-154,-84,69,114,-117,-3,-7,-170,-219,-141,-145,-97
-154,-84,69,114,-117,-3,-7,-170,-219,-141,-145,-97
-148,-84,57,114,-111,-9,-7,-170,-219,-141,-145,-97
-142,-84,51,114,-105,-15,-7,-170,-219,-147,-151,-97
-142,-84,51,114,-105,-15,-7,-170,-219,-153,-151,-103
-142,-84,51,114,-105,-15,-7,-170,-219,-153,-151,-103
-148,-84,63,114,-111,-15,-7,-170,-219,-159,-151,-103
-154,-84,63,114,-111,-15,-7,-170,-219,-159,-151,-103
-154,-90,63,114,-111,-21,-1,-170,-219,-159,-151,-103
-154,-90,63,114,-111,-21,-1,-170,-219,-159,-151,-103
-154,-90,63,114,-111,-21,-1,-170,-219,-159,-157,-103
-154,-90,63,114,-111,-21,-1,-170,-219,-159,-157,-103
-154,-90,63,114,-111,-21,-1,-170,-219,-159,-157,-103
-160,-90,69,114,-117,-15,4,-170,-219,-159,-157,-103
-160,-90,69,114,-117,-15,4,-170,-219,-159,-157,-103
-160,-90,69,114,-117,-15,4,-170,-219,-159,-157,-103
-160,-96,63,120,-117,-21,10,-164,-219,-159,-157,-103
-160,-96,63,126,-117,-27,10,-164,-219,-159,-157,-103
-160,-96,57,126,-117,-33,10,-164,-219,-159,-157,-103
-154,-84,57,120,-117,-27,16,-164,-219,-159,-157,-103
-148,-60,63,108,-117,2,16,-158,-219,-159,-157,-103
-148,-60,63,108,-117,2,16,-158,-219,-159,-157,-103
-148,-66,63,108,-111,2,16,-152,-219,-159,-157,-103
-148,-72,63,108,-111,2,16,-146,-219,-159,-157,-103
-148,-72,63,108,-111,2,22,-146,-219,-159,-157,-103
-148,-72,69,108,-111,2,22,-146,-219,-159,-157,-103
-148,-72,75,108,-117,2,22,-146,-219,-159,-157,-103
-148,-72,75,108,-117,2,22,-146,-219,-159,-157,-103
-148,-72,69,108,-117,-3,22,-146,-219,-159,-157,-103
-148,-72,69,108,-117,-3,22,-146,-219,-159,-157,-103
-148,-72,69,108,-117,-3,22,-140,-219,-159,-151,-103
-148,-72,69,108,-117,2,22,-134,-219,-159,-151,-103
-148,-66,75,108,-117,2,22,-134,-219,-159,-151,-103
-148,-66,75,108,-117,2,22,-134,-219,-159,-151,-103
-148,-78,75,114,-117,-3,22,-134,-219,-159,-151,-103
-148,-84,75,114,-117,-9,22,-134,-219,-159,-151,-103
-148,-84,75,114,-117,-9,22,-134,-219,-159,-151,-103
-148,-84,75,114,-117,-9,22,-134,-213,-159,-151,-103
-154,-96,63,120,-117,-21,22,-128,-207,-159,-151,-103
-160,-108,57,132,-117,-33,22,-122,-201,-159,-151,-103
-160,-114,51,132,-117,-33,22,-116,-195,-159,-151,-103
-160,-114,51,138,-117,-33,22,-116,-189,-159,-151,-103
-166,-114,51,144,-117,-33,22,-116,-183,-159,-151,-103
-172,-120,51,150,-117,-33,22,-110,-177,-159,-151,-103
-178,-120,51,150,-117,-33,22,-104,-177,-159,-151,-103
-178,-120,51,150,-117,-33,28,-98,-177,-159,-151,-103
-172,-120,51,150,-117,-33,28,-98,-177,-159,-151,-103
-172,-114,51,144,-117,-33,28,-98,-177,-159,-151,-103
-172,-114,57,144,-117,-33,28,-92,-171,-159,-151,-103
-172,-114,57,144,-117,-33,34,-80,-159,-159,-151,-103
-172,-114,57,144,-117,-33,40,-68,-147,-153,-145,-103
-172,-114,57,144,-117,-33,40,-56,-135,-147,-139,-103
-172,-108,57,144,-117,-33,40,-44,-129,-147,-139,-103
-172,-108,57,144,-117,-33,40,-32,-123,-141,-139,-103
-172,-108,57,144,-117,-33,46,-20,-111,-129,-127,-103
-166,-108,57,144,-117,-33,58,3,-87,-117,-115,-97
-166,-108,57,144,-117,-33,70,15,-75,-105,-109,-91
-166,-108,57,144,-117,-33,76,21,-69,-99,-103,-91
-166,-108,57,144,-117,-33,76,33,-57,-93,-103,-91
-166,-108,57,138,-117,-33,82,51,-45,-87,-97,-85
-160,-102,57,132,-117,-27,82,69,-33,-81,-91,-85
-154,-102,57,126,-117,-27,88,93,-3,-69,-79,-85
-142,-102,51,126,-105,-27,100,123,20,-57,-67,-79
-142,-102,51,120,-99,-27,112,141,32,-45,-61,-73
-142,-90,63,114,-99,-15,118,147,44,-39,-55,-73
-142,-72,69,108,-99,-3,124,159,50,-33,-55,-67
-142,-72,69,108,-99,-3,130,171,68,-21,-49,-61
-142,-72,63,108,-99,-9,136,189,86,-9,-37,-55
-136,-72,57,108,-93,-9,142,213,104,2,-31,-49
-124,-66,51,102,-87,-9,148,237,134,14,-19,-43
-118,-60,51,96,-87,-9,154,249,152,26,-7,-37
-112,-54,51,90,-87,-9,160,267,164,32,-1,-25
-106,-48,51,78,-87,-9,160,279,176,38,10,-19
-100,-42,51,72,-87,-9,166,297,188,44,16,-13
-100,-36,57,72,-87,-3,166,303,200,50,22,-13
-100,-24,63,60,-87,8,166,309,206,56,28,-13
-94,-12,63,54,-87,14,172,321,218,62,34,-7
-94,-12,63,54,-81,14,178,333,230,68,40,-1
-88,-12,57,54,-81,8,184,351,242,74,46,4
-76,-6,57,42,-75,8,190,363,254,80,52,10
-64,-6,51,36,-63,8,190,369,260,80,58,16
-64,-6,45,36,-57,8,190,375,266,80,64,16
-64,-6,45,36,-57,14,190,381,272,80,64,16
-64,-6,45,36,-57,14,190,393,278,86,70,22
-64,-12,39,36,-51,8,190,399,284,92,76,28
-58,-12,33,36,-45,8,190,399,290,98,82,34
-46,-12,27,30,-39,8,190,399,290,104,82,34
-34,-6,27,24,-33,8,190,399,290,110,82,34
-28,-6,27,18,-33,8,190,399,290,110,82,34
-22,-6,27,18,-33,8,184,393,290,110,82,34
-16,0,27,12,-33,8,184,387,290,110,82,34
-16,5,27,6,-33,14,178,381,290,110,82,34
-16,5,21,6,-27,14,178,381,290,110,82,34
-16,5,9,6,-15,8,178,375,284,110,82,34
-16,5,3,6,-9,2,172,357,272,104,82,34
-16,5,3,6,-3,2,172,345,260,98,76,34
-16,5,3,6,-3,2,166,327,248,98,76,34
-16,5,3,6,-3,2,154,297,236,92,70,34
-16,5,3,6,-3,2,142,267,218,86,64,34
-16,5,3,6,-3,2,136,255,206,80,64,34
-16,5,3,6,-9,2,130,237,194,74,64,34
-16,5,3,6,-15,2,118,219,170,68,58,34
-16,5,3,6,-15,2,112,207,152,68,58,34
-16,0,3,6,-15,-3,106,183,140,62,52,34
-28,-6,3,12,-21,-3,94,153,110,50,46,28
-40,-12,3,24,-21,-3,82,135,92,38,34,22
-40,-18,3,24,-21,-3,76,117,80,26,22,16
-40,-18,3,24,-21,-3,64,87,62,14,10,10
-40,-24,3,30,-21,-3,52,69,38,8,4,4
-40,-24,3,30,-21,-3,46,57,26,2,-1,4
-40,-24,3,30,-21,-3,40,45,14,-3,-7,-1
-52,-30,3,36,-27,-3,34,33,2,-9,-13,-7
-58,-30,3,36,-33,-3,28,21,-9,-15,-13,-13
-58,-30,3,36,-33,-3,28,15,-15,-15,-13,-13
-58,-30,3,36,-33,-3,22,3,-21,-21,-19,-13
-58,-30,15,36,-39,-3,10,-26,-33,-39,-31,-25
-70,-30,27,42,-51,-3,-1,-44,-57,-51,-49,-37
-76,-42,27,54,-57,-3,-7,-50,-63,-57,-49,-43
-76,-54,21,60,-51,-15,-7,-50,-63,-57,-49,-43
-76,-54,21,60,-51,-15,-7,-50,-69,-57,-49,-43
-82,-54,27,66,-57,-15,-7,-56,-75,-57,-49,-43
-88,-54,39,66,-69,-9,-13,-62,-81,-57,-55,-43
-88,-54,39,66,-69,-9,-19,-68,-87,-63,-55,-43
-88,-60,27,66,-69,-21,-19,-74,-87,-63,-55,-43
-88,-66,21,66,-63,-27,-19,-74,-87,-63,-55,-43
-88,-66,15,66,-63,-33,-19,-74,-87,-63,-55,-43
-88,-66,15,66,-63,-33,-19,-74,-87,-63,-55,-43
-88,-66,15,66,-63,-33,-19,-74,-93,-69,-55,-43
-88,-66,15,66,-63,-33,-19,-74,-93,-69,-55,-43
-88,-72,9,72,-57,-33,-19,-74,-93,-69,-55,-43
-88,-72,9,78,-57,-33,-19,-74,-93,-69,-55,-43
-88,-66,21,78,-63,-27,-19,-80,-93,-69,-55,-43
-88,-66,27,78,-63,-21,-19,-86,-93,-69,-55,-49
-88,-72,21,84,-63,-27,-19,-86,-93,-69,-55,-49
-88,-78,15,84,-63,-33,-19,-86,-93,-69,-55,-49
-88,-78,15,84,-63,-33,-19,-86,-93,-69,-55,-49
-88,-78,15,84,-63,-33,-19,-86,-93,-69,-55,-49
-94,-78,15,84,-63,-33,-19,-86,-93,-69,-55,-49
-94,-78,15,84,-63,-33,-19,-86,-93,-75,-61,-49
-94,-78,15,84,-63,-33,-19,-86,-93,-75,-61,-49
-94,-78,15,84,-63,-33,-19,-86,-93,-75,-61,-49
-94,-78,21,84,-63,-33,-19,-86,-93,-75,-61,-49
-94,-78,21,84,-63,-33,-19,-86,-93,-75,-61,-49
-94,-78,21,84,-63,-33,-19,-86,-93,-75,-61,-49
-94,-78,15,84,-63,-33,-19,-86,-93,-75,-61,-55
-88,-72,15,84,-63,-33,-19,-86,-93,-75,-67,-55
-88,-66,15,84,-63,-27,-19,-86,-93,-75,-67,-55
-88,-66,21,84,-69,-21,-19,-86,-93,-75,-67,-55
-88,-66,21,84,-69,-21,-19,-86,-93,-75,-67,-55
-88,-66,21,84,-69,-21,-19,-86,-93,-75,-67,-55
-88,-66,21,78,-69,-21,-19,-86,-93,-75,-67,-55
-88,-66,21,72,-63,-21,-19,-86,-93,-75,-67,-55
-88,-66,21,72,-63,-21,-19,-86,-93,-75,-67,-55
-88,-66,21,72,-63,-21,-19,-86,-93,-69,-67,-55
-88,-66,21,72,-63,-21,-19,-80,-87,-69,-61,-49
-88,-66,21,72,-63,-21,-19,-80,-87,-69,-61,-49
-88,-66,21,72,-63,-21,-19,-74,-87,-63,-61,-49
-88,-66,21,72,-63,-21,-19,-74,-87,-63,-61,-49
-88,-54,27,66,-63,-15,-19,-74,-87,-63,-61,-49
-88,-48,27,60,-63,-9,-19,-74,-87,-63,-61,-49
-88,-48,27,60,-63,-9,-19,-74,-87,-63,-61,-49
-88,-48,27,60,-63,-9,-19,-74,-87,-63,-61,-49
-88,-36,33,60,-63,-3,-19,-74,-87,-63,-61,-49
-82,-18,39,48,-63,2,-19,-74,-87,-63,-61,-49
-82,-18,39,48,-63,2,-19,-74,-87,-63,-61,-49
-82,-18,39,48,-63,2,-25,-74,-87,-63,-61,-49
-82,-12,45,48,-63,8,-25,-74,-87,-63,-61,-49
-82,-12,45,48,-63,8,-25,-74,-87,-57,-55,-49
-82,-12,45,48,-63,8,-25,-68,-81,-57,-49,-49
-82,-12,45,48,-63,8,-25,-68,-75,-57,-49,-49
-82,-12,45,48,-63,8,-25,-68,-75,-57,-49,-49
-82,-12,45,48,-63,8,-25,-68,-75,-57,-43,-43
-76,-12,45,42,-63,8,-25,-68,-75,-51,-37,-37
-70,0,51,36,-63,14,-25,-68,-75,-51,-37,-31
-70,0,51,36,-63,14,-25,-68,-75,-51,-37,-31
-70,-6,45,36,-63,14,-25,-68,-75,-51,-37,-31
-64,-6,45,36,-57,14,-25,-62,-75,-51,-37,-31
-64,-6,45,36,-57,14,-25,-62,-75,-51,-37,-31
-64,-12,45,36,-57,14,-25,-62,-75,-51,-37,-31
-64,-12,45,36,-63,14,-25,-62,-75,-45,-31,-25
-64,-6,57,36,-69,20,-25,-62,-75,-45,-31,-25
-70,-6,63,36,-75,20,-25,-62,-75,-45,-31,-25
-70,-6,63,36,-75,20,-25,-62,-75,-39,-31,-25
-70,-6,57,36,-69,20,-25,-62,-75,-39,-25,-25
-64,-6,45,36,-57,20,-25,-62,-75,-39,-25,-25
-64,-6,45,36,-57,20,-25,-62,-69,-39,-25,-25
-64,-6,45,36,-57,20,-25,-62,-69,-39,-25,-25
-70,-6,51,36,-63,26,-25,-62,-69,-39,-25,-25
-70,-6,51,36,-63,26,-31,-62,-69,-39,-25,-25
-64,-6,51,30,-63,26,-31,-62,-69,-39,-25,-25
-64,-6,51,30,-63,20,-31,-62,-69,-39,-25,-25
-64,-12,45,30,-57,14,-31,-62,-69,-39,-25,-25
-64,-12,45,30,-57,14,-37,-62,-69,-39,-25,-25
-64,-12,45,30,-57,14,-37,-62,-69,-39,-25,-25
-64,-12,45,30,-57,20,-37,-62,-69,-39,-25,-25
-64,-12,45,30,-57,20,-37,-62,-69,-39,-25,-25
-64,-12,45,30,-57,20,-37,-62,-69,-39,-25,-25
-64,-18,45,30,-57,14,-37,-62,-69,-39,-25,-25
-64,-18,45,30,-57,14,-37,-62,-69,-39,-25,-25
-64,-18,45,30,-57,14,-37,-62,-69,-39,-25,-25
-64,-18,45,30,-57,14,-37,-62,-69,-39,-25,-25
-64,-18,45,30,-57,14,-37,-62,-69,-39,-25,-25
-64,-18,45,30,-51,14,-37,-62,-69,-45,-25,-25
-64,-24,45,36,-51,14,-37,-62,-69,-45,-25,-25
-70,-24,45,42,-51,14,-37,-62,-69,-45,-25,-25
-76,-24,45,42,-51,14,-37,-68,-69,-45,-25,-25
-76,-24,45,42,-51,14,-37,-74,-69,-45,-25,-25
-70,-24,45,42,-51,14,-37,-74,-69,-45,-25,-25
-64,-18,45,36,-51,14,-37,-74,-69,-45,-25,-25
-64,-18,45,36,-51,14,-37,-74,-75,-45,-25,-25
-70,-36,45,48,-51,8,-37,-74,-75,-45,-25,-25
-70,-48,39,54,-51,2,-37,-74,-75,-45,-25,-25
-70,-42,39,54,-51,2,-37,-74,-75,-45,-25,-25
-70,-36,39,48,-51,8,-43,-80,-81,-45,-25,-31
-70,-36,39,48,-51,8,-43,-86,-87,-45,-25,-37
-70,-36,39,48,-51,8,-43,-92,-93,-51,-31,-37
-70,-36,39,48,-51,8,-43,-92,-93,-51,-31,-37
-70,-36,39,48,-51,2,-43,-92,-93,-51,-31,-37
-70,-36,39,48,-51,2,-43,-92,-93,-51,-31,-37
-76,-36,39,54,-57,2,-43,-98,-93,-57,-37,-37
-82,-42,39,60,-57,2,-43,-98,-93,-57,-37,-37
-82,-48,39,60,-57,2,-43,-98,-93,-57,-37,-43
-82,-48,39,60,-57,2,-43,-98,-93,-63,-37,-43
-82,-48,39,60,-57,2,-43,-98,-93,-63,-37,-43
-82,-48,39,60,-57,2,-43,-98,-93,-63,-37,-43
-82,-48,39,60,-57,2,-43,-104,-99,-63,-37,-43
-82,-48,39,60,-57,2,-43,-104,-105,-63,-37,-43
-82,-48,39,60,-57,2,-43,-104,-111,-63,-37,-43
-82,-48,39,60,-57,2,-43,-104,-111,-63,-37,-43
-82,-54,39,60,-57,2,-43,-104,-111,-63,-37,-43
-82,-54,39,60,-57,2,-43,-104,-111,-63,-37,-43
-82,-54,39,60,-57,2,-49,-110,-111,-63,-43,-49
-82,-60,33,66,-57,-3,-49,-110,-111,-63,-43,-49
-82,-60,33,66,-57,-3,-49,-110,-111,-63,-43,-49
-82,-60,33,72,-57,-9,-49,-110,-111,-63,-43,-49
-82,-66,27,78,-57,-15,-49,-110,-111,-63,-49,-49
-82,-66,27,78,-57,-15,-49,-110,-111,-69,-49,-49
-82,-66,27,78,-57,-15,-49,-110,-111,-69,-49,-49
-82,-66,27,78,-57,-15,-49,-110,-111,-69,-49,-49
-82,-66,21,78,-51,-15,-49,-110,-111,-75,-49,-49
-76,-60,21,72,-45,-15,-49,-110,-117,-75,-49,-49
-76,-54,21,72,-45,-15,-49,-110,-117,-75,-49,-49
-76,-54,21,72,-45,-15,-49,-110,-117,-75,-49,-49
-76,-54,21,72,-45,-15,-49,-110,-117,-75,-49,-49
-76,-54,21,66,-45,-15,-49,-110,-117,-75,-49,-49
-76,-54,21,66,-45,-21,-49,-110,-117,-75,-49,-49
-82,-54,21,66,-51,-21,-49,-116,-123,-75,-49,-49
-82,-54,27,66,-57,-21,-49,-122,-129,-81,-49,-55
-76,-54,27,66,-57,-21,-49,-122,-129,-81,-49,-55
-70,-54,21,66,-51,-21,-49,-122,-129,-81,-49,-55
-70,-54,21,60,-51,-21,-49,-122,-129,-81,-49,-55
-70,-42,21,54,-51,-9,-49,-122,-129,-81,-49,-55
-70,-30,27,54,-51,-3,-49,-122,-129,-81,-49,-55
-70,-30,27,54,-51,-3,-49,-122,-129,-81,-49,-55
-70,-30,27,54,-45,-3,-49,-122,-129,-81,-49,-55
-64,-30,27,54,-45,-3,-49,-122,-129,-81,-49,-55
-58,-24,27,42,-45,-3,-49,-122,-129,-81,-49,-55
-58,-24,27,42,-45,-3,-49,-122,-129,-81,-49,-55
-58,-30,27,42,-45,-3,-49,-122,-129,-81,-49,-55
-58,-30,27,42,-45,-3,-49,-122,-129,-81,-49,-55
-58,-30,27,48,-45,-3,-49,-122,-129,-81,-49,-55
-64,-36,27,54,-45,-3,-49,-122,-129,-81,-49,-55
-70,-36,27,54,-45,-3,-49,-122,-129,-81,-49,-55
-70,-36,27,54,-45,-3,-49,-122,-129,-81,-49,-55
-70,-30,27,48,-45,-3,-49,-122,-129,-81,-49,-55
-70,-30,27,48,-45,-3,-49,-122,-129,-81,-49,-55
-70,-30,27,48,-45,-3,-49,-122,-129,-81,-49,-55
-70,-24,27,42,-45,2,-49,-122,-129,-81,-49,-55
-70,-24,27,42,-45,2,-49,-122,-129,-81,-49,-55
-70,-24,27,42,-45,2,-49,-122,-129,-81,-49,-55
-64,-24,27,36,-45,2,-49,-122,-129,-81,-49,-55
-64,-24,27,36,-45,2,-49,-122,-129,-81,-49,-55
-64,-30,27,36,-45,2,-49,-122,-129,-81,-49,-55
-64,-30,27,36,-45,2,-49,-122,-129,-81,-49,-55
-64,-30,33,36,-45,2,-49,-122,-129,-81,-49,-61
-64,-30,39,36,-45,2,-49,-122,-129,-87,-49,-61
-64,-30,39,36,-45,2,-43,-122,-129,-87,-49,-61
-64,-30,39,36,-45,-3,-43,-122,-129,-87,-49,-61
-64,-36,33,42,-45,-9,-43,-128,-129,-87,-49,-61
-70,-42,33,48,-45,-9,-43,-128,-129,-87,-49,-61
-70,-42,33,48,-45,-9,-43,-128,-129,-87,-49,-61
-70,-42,33,48,-45,-9,-43,-128,-129,-87,-49,-61
-70,-42,33,48,-45,-9,-43,-128,-129,-87,-49,-61
-70,-42,33,48,-45,-9,-49,-128,-129,-87,-49,-61
-70,-42,33,48,-45,-9,-55,-128,-129,-87,-49,-61
-70,-42,33,48,-45,-9,-55,-128,-129,-87,-49,-61
-70,-42,33,48,-45,-9,-55,-128,-129,-87,-49,-61
-70,-48,33,48,-45,-9,-55,-128,-129,-87,-49,-61
-70,-48,33,48,-45,-9,-55,-128,-129,-87,-49,-61
-70,-48,33,48,-45,-9,-55,-128,-129,-87,-49,-61
-70,-48,33,48,-45,-9,-55,-128,-129,-87,-49,-61
-70,-48,33,48,-45,-9,-61,-128,-129,-87,-49,-61
-70,-42,33,48,-45,-9,-67,-128,-129,-87,-49,-61
-70,-42,33,48,-45,-9,-73,-128,-129,-87,-49,-61
-70,-42,27,48,-45,-15,-73,-128,-129,-87,-49,-61
-70,-42,27,48,-45,-15,-73,-128,-129,-87,-49,-61
-70,-42,27,48,-45,-15,-73,-128,-129,-87,-49,-61
-70,-42,27,48,-45,-15,-73,-128,-129,-87,-49,-61
-70,-42,27,48,-45,-15,-73,-128,-129,-87,-49,-61
-70,-42,27,48,-45,-15,-73,-128,-129,-87,-49,-61
-64,-42,27,48,-45,-15,-73,-128,-129,-87,-49,-61
-64,-42,27,48,-45,-15,-73,-128,-129,-87,-49,-61
-64,-42,27,48,-45,-15,-73,-128,-129,-87,-49,-61
-64,-42,27,48,-45,-15,-73,-128,-129,-87,-49,-61
-58,-42,27,42,-39,-15,-73,-128,-129,-87,-49,-61
-58,-36,27,36,-39,-9,-73,-128,-129,-87,-49,-61
-58,-36,33,36,-39,-3,-79,-128,-129,-87,-49,-61
-58,-36,39,36,-39,-3,-85,-128,-129,-93,-49,-61
-58,-30,39,36,-39,-3,-85,-128,-129,-93,-49,-61
-52,-24,39,36,-39,2,-85,-128,-129,-93,-49,-61
-46,-12,39,30,-39,8,-79,-128,-129,-87,-43,-61
-40,0,39,24,-39,20,-73,-122,-123,-81,-37,-55
-40,11,45,18,-39,32,-67,-116,-117,-75,-31,-43
-40,17,51,12,-39,38,-61,-110,-111,-69,-31,-37
-40,23,57,12,-39,44,-55,-104,-105,-63,-25,-31
-34,35,63,0,-39,50,-49,-92,-99,-57,-13,-19
-28,47,69,-11,-39,62,-43,-80,-87,-51,-1,-13
-22,59,75,-23,-39,68,-37,-74,-81,-45,4,-7
-16,83,87,-35,-45,80,-37,-68,-75,-39,10,-1
-16,95,111,-41,-51,92,-37,-62,-75,-33,10,-1
-10,107,111,-47,-51,98,-37,-56,-69,-27,16,-1
13,113,105,-59,-39,98,-37,-50,-63,-21,22,4
31,119,93,-71,-27,98,-37,-44,-51,-15,28,10
43,119,87,-77,-15,98,-37,-44,-45,-9,34,16
49,119,81,-83,-9,98,-37,-44,-39,-9,34,16
49,119,75,-83,-3,98,-43,-38,-39,-9,34,16
55,119,63,-83,2,98,-49,-38,-39,-9,34,22
61,119,63,-89,8,98,-61,-38,-39,-9,34,22
73,119,57,-95,14,98,-73,-38,-39,-15,34,22
73,107,33,-95,20,74,-85,-50,-45,-15,34,16
73,71,15,-83,20,44,-97,-62,-51,-21,34,10
67,59,9,-71,20,38,-103,-74,-57,-21,28,10
67,59,3,-65,20,38,-103,-74,-63,-27,22,10
67,59,3,-65,26,38,-109,-80,-69,-39,16,4
67,77,9,-71,26,50,-115,-92,-81,-51,4,-1
67,83,15,-71,26,56,-115,-98,-87,-57,4,-7
61,59,-8,-59,32,32,-115,-98,-87,-57,4,-7
55,23,-20,-47,32,2,-115,-98,-87,-57,4,-7
49,23,-14,-47,32,2,-115,-98,-93,-57,4,-7
43,23,-8,-41,26,8,-115,-104,-99,-57,4,-7
37,17,-8,-29,20,8,-115,-104,-99,-57,4,-7
19,17,-3,-17,8,8,-115,-104,-99,-57,4,-7
-10,17,21,-6,-9,14,-115,-110,-105,-63,-1,-13
-16,17,33,-6,-15,20,-115,-116,-117,-75,-13,-25
-16,11,33,-6,-15,20,-115,-122,-129,-81,-19,-31
-22,0,27,6,-15,14,-115,-122,-129,-81,-25,-37
-40,-12,27,18,-21,14,-115,-128,-135,-87,-31,-43
-46,-18,27,24,-27,8,-115,-134,-141,-87,-37,-49
-46,-18,27,24,-27,8,-109,-134,-141,-93,-37,-49
-46,-24,27,30,-27,8,-103,-134,-141,-93,-37,-55
-58,-30,27,42,-33,8,-103,-134,-141,-93,-37,-55
-64,-30,27,48,-39,8,-97,-134,-141,-93,-37,-55
-64,-30,33,48,-39,8,-97,-134,-141,-93,-37,-55
-64,-30,33,48,-39,8,-97,-134,-141,-93,-37,-55
-58,-18,33,36,-39,14,-97,-134,-141,-93,-37,-55
-52,0,39,24,-39,26,-97,-134,-141,-93,-37,-55
-52,5,39,18,-39,26,-91,-122,-129,-87,-37,-55
-46,0,33,18,-33,20,-79,-86,-99,-69,-13,-43
-34,-6,15,18,-21,8,-67,-68,-75,-57,-1,-31
-16,-6,3,12,-9,8,-61,-62,-63,-45,10,-25
-4,5,3,0,-3,8,-61,-56,-51,-39,22,-19
7,35,15,-17,-3,32,-61,-44,-39,-27,34,-7
31,71,15,-53,2,44,-55,-20,-9,2,58,22
73,95,15,-83,26,50,-55,9,20,32,88,52
91,119,15,-113,32,56,-49,45,62,74,118,82
97,143,27,-131,32,74,-37,93,122,116,160,112
109,167,33,-143,38,86,-7,147,164,146,184,136
145,185,33,-173,50,98,22,213,206,170,202,148
169,197,33,-185,56,104,70,291,248,182,214,160
181,209,33,-191,62,110,148,369,272,194,220,160
193,221,33,-197,68,110,184,411,290,206,220,160
235,233,21,-227,98,110,196,447,332,224,232,172
307,245,-38,-269,176,104,196,483,392,254,262,190
433,245,-176,-323,308,74,130,513,464,296,316,220
643,257,-350,-449,500,8,16,567,584,362,400,304
901,347,-506,-641,716,-27,-91,639,752,464,514,412
1141,431,-650,-791,902,-63,-199,687,908,590,664,538
1345,515,-764,-935,1064,-87,-307,723,1070,734,814,676
1513,641,-806,-1073,1154,-87,-391,759,1280,902,1012,838
1645,797,-818,-1211,1214,-57,-433,837,1508,1112,1216,1006
1753,905,-824,-1319,1262,-9,-445,951,1772,1304,1408,1168
1837,989,-830,-1391,1316,32,-445,1089,2012,1466,1558,1294
