,,,,,,,,,,,
2019-09-04 23:52:24,,,,,,,,,,,
,,,,,,,,,,,
I,II,III,aVR,aVL,aVF,V1,V2,V3,V4,V5,V6
-31,21,50,3,-43,35,-52,-135,-96,-110,-76,-42
-25,21,44,-3,-37,29,-57,-141,-96,-116,-82,-42
-19,21,38,-3,-31,29,-63,-153,-102,-122,-88,-48
-13,21,32,-9,-25,24,-63,-147,-102,-128,-88,-54
-19,21,38,-3,-31,29,-63,-147,-102,-128,-82,-48
-19,26,44,-3,-31,35,-63,-147,-102,-128,-82,-42
-25,26,50,-3,-37,35,-69,-147,-102,-128,-76,-42
-19,26,44,-3,-31,35,-69,-153,-108,-128,-82,-36
-13,21,32,-9,-25,24,-69,-159,-108,-122,-82,-36
-13,21,32,-9,-25,24,-75,-159,-102,-128,-82,-30
-19,21,38,-3,-31,29,-69,-165,-102,-128,-82,-30
-13,15,26,-3,-19,19,-69,-165,-102,-128,-82,-36
-13,9,21,-3,-19,13,-75,-165,-102,-134,-88,-36
-7,3,10,3,-8,7,-75,-165,-102,-140,-88,-42
-7,9,16,-3,-13,13,-75,-165,-102,-140,-94,-42
-7,15,21,-3,-13,19,-75,-171,-102,-140,-94,-42
-13,15,26,-3,-19,19,-75,-171,-108,-140,-94,-48
-19,15,32,3,-25,24,-75,-177,-114,-140,-100,-54
-19,15,32,3,-25,24,-75,-171,-114,-140,-100,-54
-19,21,38,-3,-31,29,-75,-177,-114,-146,-100,-60
-19,21,38,-3,-31,29,-75,-177,-120,-152,-106,-66
-25,21,44,-3,-37,29,-75,-183,-120,-158,-106,-66
-25,21,44,-3,-37,29,-75,-189,-126,-164,-106,-72
-19,21,38,-3,-31,29,-75,-189,-126,-170,-118,-78
-13,15,26,-3,-19,19,-75,-189,-132,-164,-118,-78
-13,15,26,-3,-19,19,-69,-183,-132,-158,-124,-78
-13,15,26,-3,-19,19,-69,-183,-132,-158,-124,-78
-19,15,32,3,-25,24,-69,-183,-132,-158,-124,-72
-13,9,21,-3,-19,13,-69,-183,-138,-158,-118,-66
-7,9,16,-3,-13,13,-69,-183,-138,-164,-112,-60
-7,9,16,-3,-13,13,-75,-189,-138,-164,-106,-54
-13,9,21,-3,-19,13,-75,-195,-138,-158,-100,-54
-13,9,21,-3,-19,13,-75,-195,-138,-158,-100,-54
-7,9,16,-3,-13,13,-75,-201,-144,-164,-106,-66
-7,9,16,-3,-13,13,-75,-201,-144,-170,-106,-66
-13,3,16,3,-13,7,-81,-201,-144,-170,-106,-72
-13,3,16,3,-13,7,-81,-201,-144,-170,-112,-72
-19,3,21,9,-19,13,-81,-201,-150,-176,-118,-78
-19,3,21,9,-19,13,-81,-201,-150,-176,-118,-78
-19,3,21,9,-19,13,-81,-207,-150,-182,-118,-78
-19,3,21,9,-19,13,-87,-213,-150,-182,-118,-72
-19,3,21,9,-19,13,-87,-213,-150,-182,-118,-72
-19,-3,16,9,-19,7,-87,-213,-150,-176,-118,-66
-13,-3,10,3,-13,1,-87,-213,-150,-182,-118,-72
-13,-9,4,9,-8,-5,-81,-219,-150,-182,-124,-72
-13,-9,4,9,-8,-5,-87,-219,-156,-182,-124,-66
-13,-15,-2,9,-8,-11,-93,-225,-156,-182,-130,-66
-13,-15,-2,9,-8,-11,-93,-225,-162,-182,-136,-66
-13,-15,-2,9,-8,-11,-93,-225,-156,-182,-136,-66
-19,-15,4,15,-13,-5,-93,-225,-162,-188,-136,-66
-13,-15,-2,9,-8,-11,-93,-225,-156,-188,-136,-66
-13,-15,-2,9,-8,-11,-99,-219,-156,-188,-136,-66
-13,-9,4,9,-8,-5,-99,-219,-150,-188,-130,-66
-13,-9,4,9,-8,-5,-99,-219,-156,-194,-142,-78
-13,-9,4,9,-8,-5,-99,-219,-156,-200,-142,-78
-19,-9,10,15,-13,1,-93,-219,-156,-194,-148,-78
-19,-9,10,15,-13,1,-93,-219,-156,-188,-148,-84
-19,-3,16,9,-19,7,-93,-213,-156,-188,-148,-84
-19,-3,16,9,-19,7,-93,-213,-150,-182,-148,-84
-19,-3,16,9,-19,7,-99,-213,-150,-182,-148,-78
-25,-3,21,9,-25,7,-99,-213,-150,-188,-148,-78
-19,-3,16,9,-19,7,-99,-219,-156,-182,-148,-84
-13,-3,10,3,-13,1,-105,-219,-150,-182,-148,-78
-13,-9,4,9,-8,-5,-99,-225,-150,-182,-148,-78
-13,-9,4,9,-8,-5,-99,-225,-156,-188,-142,-78
-13,-15,-2,9,-8,-11,-99,-225,-156,-188,-148,-78
-13,-15,-2,9,-8,-11,-105,-225,-162,-188,-148,-72
-13,-15,-2,9,-8,-11,-105,-225,-162,-188,-142,-72
-13,-15,-2,9,-8,-11,-105,-225,-156,-188,-136,-66
-13,-21,-8,15,-3,-17,-105,-225,-156,-188,-130,-66
-13,-21,-8,15,-3,-17,-105,-231,-156,-194,-136,-66
-19,-15,4,15,-13,-5,-105,-231,-162,-194,-130,-72
-31,-15,16,21,-25,1,-99,-225,-150,-188,-130,-66
-31,-15,16,21,-25,1,-93,-225,-150,-188,-130,-66
-25,-15,10,15,-19,-5,-93,-225,-150,-182,-130,-72
-25,-15,10,15,-19,-5,-93,-231,-156,-176,-130,-72
-19,-15,4,15,-13,-5,-99,-237,-156,-176,-124,-72
-7,-15,-8,9,-3,-11,-105,-237,-156,-176,-124,-72
-13,-15,-2,9,-8,-11,-111,-231,-150,-176,-118,-66
-13,-15,-2,9,-8,-11,-105,-225,-150,-176,-118,-60
-7,-15,-8,9,-3,-11,-105,-231,-150,-182,-118,-66
-7,-21,-14,15,3,-17,-105,-231,-156,-194,-124,-60
-13,-21,-8,15,-3,-17,-99,-231,-156,-188,-118,-54
-13,-21,-8,15,-3,-17,-99,-231,-156,-188,-124,-54
-7,-21,-14,15,3,-17,-99,-231,-162,-188,-124,-60
-7,-15,-8,9,-3,-11,-99,-225,-156,-188,-130,-60
-13,-15,-2,9,-8,-11,-99,-225,-156,-188,-136,-66
-19,-9,10,15,-13,1,-99,-225,-150,-188,-130,-66
-13,-9,4,9,-8,-5,-99,-225,-144,-188,-130,-60
-7,-9,-2,9,-3,-5,-99,-225,-144,-194,-124,-66
-13,-15,-2,9,-8,-11,-105,-231,-150,-194,-124,-66
-7,-15,-8,9,-3,-11,-105,-231,-150,-194,-118,-66
-7,-15,-8,9,-3,-11,-105,-231,-144,-194,-118,-66
-1,-15,-14,3,3,-17,-105,-231,-144,-194,-124,-66
-1,-15,-14,3,3,-17,-99,-225,-138,-188,-118,-66
-1,-15,-14,3,3,-17,-99,-219,-138,-188,-124,-66
-1,-15,-14,3,3,-17,-99,-219,-138,-182,-124,-60
-1,-15,-14,3,3,-17,-99,-213,-138,-188,-124,-66
-1,-9,-8,3,3,-11,-93,-213,-138,-188,-118,-60
-1,-3,-2,-3,-3,-5,-93,-213,-138,-188,-112,-54
-1,9,10,-9,-8,7,-87,-207,-132,-182,-106,-54
-1,15,16,-9,-8,13,-87,-201,-126,-176,-100,-48
-7,26,32,-9,-19,29,-87,-195,-120,-170,-100,-48
-1,26,26,-14,-13,24,-87,-189,-114,-170,-100,-54
4,37,32,-19,-13,35,-81,-177,-102,-164,-94,-48
9,43,32,-19,-8,41,-75,-165,-96,-152,-82,-42
15,43,26,-25,-3,35,-75,-159,-90,-146,-82,-36
21,43,21,-25,3,35,-69,-159,-90,-146,-82,-30
27,37,10,-31,9,24,-69,-159,-90,-146,-76,-25
27,37,10,-31,9,24,-69,-159,-90,-146,-82,-25
21,37,16,-25,3,29,-57,-153,-84,-140,-76,-25
21,37,16,-25,3,29,-57,-147,-78,-140,-70,-20
21,37,16,-25,3,29,-57,-141,-78,-134,-64,-20
27,43,16,-31,9,29,-57,-135,-78,-134,-58,-20
33,49,16,-37,9,35,-69,-135,-72,-128,-58,-20
45,61,16,-49,15,41,-75,-135,-72,-128,-52,-14
45,67,21,-49,15,47,-87,-141,-66,-128,-52,-20
45,67,21,-49,15,47,-99,-147,-66,-128,-46,-14
57,67,10,-55,27,41,-111,-147,-66,-128,-46,-20
69,61,-8,-61,39,29,-123,-153,-72,-128,-40,-20
69,61,-8,-61,39,29,-129,-153,-72,-122,-40,-14
69,55,-14,-55,45,24,-135,-153,-78,-116,-34,-2
69,49,-20,-55,45,19,-141,-153,-84,-116,-34,-2
75,49,-26,-61,51,13,-141,-159,-96,-122,-40,-8
69,43,-26,-49,51,13,-141,-177,-108,-128,-46,-8
57,43,-14,-43,39,19,-147,-189,-120,-134,-52,-14
45,43,-2,-37,27,24,-135,-195,-132,-140,-58,-14
39,37,-2,-37,21,19,-129,-195,-126,-152,-58,-14
33,31,-2,-25,21,19,-129,-195,-126,-152,-58,-14
33,31,-2,-25,21,19,-135,-195,-132,-158,-58,-20
33,26,-8,-25,21,13,-135,-201,-132,-164,-64,-20
33,26,-8,-25,21,13,-135,-207,-144,-170,-70,-20
39,26,-14,-31,27,7,-129,-207,-144,-170,-70,-20
39,26,-14,-31,27,7,-129,-213,-150,-176,-70,-25
39,21,-20,-31,27,1,-129,-219,-156,-188,-70,-25
39,21,-20,-31,27,1,-135,-225,-162,-188,-76,-30
33,9,-26,-19,27,-5,-141,-231,-168,-200,-88,-36
33,3,-32,-14,33,-11,-141,-237,-174,-206,-94,-42
33,-3,-38,-14,33,-17,-141,-243,-180,-212,-106,-42
15,-3,-20,-9,15,-11,-147,-249,-180,-218,-112,-48
9,-9,-20,3,15,-11,-147,-255,-192,-218,-124,-54
4,-21,-26,9,15,-23,-147,-267,-198,-224,-130,-66
-7,-27,-20,15,3,-23,-141,-267,-204,-230,-136,-72
-13,-33,-20,21,3,-29,-141,-273,-210,-236,-142,-78
-13,-39,-26,21,3,-35,-129,-273,-210,-236,-136,-78
-13,-39,-26,21,3,-35,-123,-267,-210,-230,-130,-72
-19,-39,-20,27,-3,-29,-117,-267,-204,-230,-130,-72
-25,-45,-20,33,-3,-35,-117,-267,-204,-236,-136,-78
-25,-45,-20,33,-3,-35,-111,-267,-210,-242,-142,-84
-31,-45,-14,39,-8,-29,-111,-267,-210,-242,-148,-90
-31,-45,-14,39,-8,-29,-117,-267,-216,-242,-148,-96
-37,-45,-8,39,-13,-29,-117,-261,-216,-242,-148,-96
-37,-39,-2,33,-19,-23,-117,-261,-210,-242,-142,-90
-31,-39,-8,33,-13,-23,-105,-255,-204,-242,-142,-90
-31,-39,-8,33,-13,-23,-99,-249,-198,-236,-136,-84
-31,-45,-14,39,-8,-29,-93,-243,-186,-224,-136,-78
-31,-51,-20,39,-8,-35,-81,-231,-180,-218,-130,-78
-19,-57,-38,39,9,-47,-69,-219,-168,-212,-130,-78
-19,-63,-44,39,9,-53,-57,-201,-156,-200,-118,-78
-13,-69,-56,39,21,-65,-52,-183,-138,-182,-100,-66
-1,-75,-74,33,33,-77,-47,-153,-120,-164,-88,-60
4,-81,-86,39,45,-83,-29,-117,-90,-146,-64,-42
15,-87,-104,33,57,-95,-5,-81,-60,-122,-46,-25
15,-93,-110,39,63,-101,19,-45,-24,-98,-29,-20
15,-105,-122,45,69,-113,49,-4,10,-68,0,4
39,-117,-158,39,99,-137,67,31,40,-44,18,16
57,-135,-194,39,123,-161,85,67,64,-14,36,28
69,-147,-218,39,141,-179,109,103,94,14,60,40
87,-159,-248,33,165,-203,127,139,124,62,84,64
93,-177,-272,45,183,-221,139,175,160,104,120,82
117,-195,-314,39,213,-251,145,211,172,134,138,100
135,-213,-350,39,243,-281,151,235,190,158,162,118
147,-231,-380,39,261,-305,163,271,208,182,180,136
159,-243,-404,39,279,-323,175,307,232,200,198,154
177,-261,-440,45,309,-347,193,361,262,218,210,166
195,-285,-482,45,339,-383,223,421,292,242,222,178
219,-309,-530,45,375,-419,253,493,340,284,246,196
243,-339,-584,45,411,-461,283,571,388,332,276,214
279,-369,-650,45,465,-509,307,649,436,398,318,238
327,-381,-710,27,519,-545,325,739,502,494,384,292
381,-393,-776,9,579,-581,349,865,622,632,498,376
447,-387,-836,-31,639,-611,391,1045,784,824,660,496
531,-369,-902,-79,717,-635,433,1273,988,1052,864,652
651,-339,-992,-157,819,-665,469,1531,1216,1322,1110,844
783,-291,-1076,-247,927,-683,493,1801,1462,1634,1398,1072
921,-219,-1142,-349,1029,-677,475,2029,1690,1970,1704,1324
1059,-123,-1184,-469,1119,-653,421,2161,1864,2294,2010,1588
1209,-3,-1214,-601,1209,-605,307,2185,1972,2599,2310,1858
1353,133,-1220,-739,1287,-539,157,2113,2032,2893,2615,2134
1485,271,-1214,-871,1353,-467,-17,1969,2056,3151,2891,2392
1593,373,-1220,-979,1407,-419,-189,1759,1996,3295,3083,2589
1659,439,-1220,-1045,1443,-389,-351,1489,1840,3289,3155,2703
1683,463,-1220,-1069,1455,-377,-501,1135,1570,3115,3083,2715
1629,451,-1178,-1033,1407,-359,-621,697,1162,2707,2807,2571
1449,385,-1064,-913,1257,-335,-675,187,646,2072,2322,2254
1125,277,-848,-697,987,-281,-633,-291,136,1346,1710,1798
777,133,-644,-451,711,-251,-519,-627,-246,704,1110,1282
477,-3,-482,-235,477,-239,-375,-801,-480,236,606,814
261,-117,-380,-67,321,-245,-255,-837,-594,-50,264,472
105,-207,-314,51,207,-257,-165,-801,-630,-212,42,232
4,-291,-296,141,147,-293,-99,-735,-636,-326,-118,46
-55,-357,-302,207,123,-329,-57,-669,-624,-398,-226,-90
-85,-399,-314,237,111,-359,-35,-615,-612,-446,-292,-174
-103,-417,-314,261,105,-365,-5,-567,-582,-464,-322,-222
-97,-411,-314,249,105,-365,7,-513,-546,-452,-322,-246
-91,-399,-308,243,105,-353,19,-453,-504,-428,-316,-246
-79,-369,-290,225,105,-329,25,-393,-462,-404,-304,-240
-67,-333,-266,201,99,-299,37,-333,-426,-374,-298,-234
-67,-285,-218,177,75,-251,43,-273,-378,-344,-280,-216
-55,-237,-182,147,63,-209,49,-225,-336,-320,-262,-204
-49,-195,-146,117,45,-173,49,-195,-294,-302,-244,-192
-49,-159,-110,99,27,-137,49,-171,-252,-278,-220,-180
-43,-135,-92,87,21,-113,43,-165,-216,-260,-202,-174
-61,-111,-50,81,-8,-83,43,-153,-180,-242,-184,-162
-79,-93,-14,87,-31,-53,49,-141,-156,-218,-160,-150
-85,-75,10,75,-49,-35,43,-135,-144,-212,-160,-144
-91,-63,26,75,-61,-17,37,-135,-138,-212,-160,-144
-103,-51,50,75,-79,1,31,-141,-138,-218,-166,-150
-115,-45,68,81,-91,13,19,-141,-138,-218,-172,-156
-115,-39,74,75,-97,19,7,-153,-144,-224,-178,-162
-109,-39,68,69,-91,13,7,-159,-144,-230,-184,-168
-115,-39,74,75,-97,19,7,-159,-144,-230,-184,-168
-127,-45,80,87,-103,19,7,-159,-144,-230,-184,-168
-121,-51,68,81,-97,7,13,-159,-144,-236,-190,-174
-121,-51,68,81,-97,7,19,-153,-144,-242,-190,-180
-121,-57,62,87,-91,1,25,-147,-138,-236,-184,-180
-127,-51,74,87,-103,13,25,-147,-138,-236,-184,-180
-121,-45,74,81,-97,13,19,-141,-138,-236,-184,-180
-115,-39,74,75,-97,19,13,-141,-138,-236,-178,-174
-115,-39,74,75,-97,19,7,-141,-138,-236,-178,-174
-115,-39,74,75,-97,19,7,-135,-138,-242,-184,-174
-121,-33,86,75,-103,24,7,-135,-138,-242,-178,-174
-121,-27,92,69,-109,29,7,-135,-138,-242,-178,-174
-127,-27,98,75,-115,35,7,-129,-138,-248,-184,-180
-133,-27,104,75,-121,35,13,-123,-132,-254,-184,-186
-133,-27,104,75,-121,35,13,-123,-132,-254,-184,-186
-133,-27,104,75,-121,35,7,-123,-126,-254,-190,-186
-127,-21,104,75,-115,41,7,-123,-126,-248,-190,-186
-127,-21,104,75,-115,41,1,-123,-126,-236,-190,-186
-127,-21,104,75,-115,41,1,-117,-120,-230,-184,-180
-133,-15,116,69,-127,47,1,-117,-120,-224,-184,-180
-133,-9,122,69,-127,53,1,-105,-114,-218,-184,-180
-133,-15,116,69,-127,47,1,-105,-114,-212,-184,-180
-127,-21,104,75,-115,41,1,-105,-108,-212,-184,-180
-127,-21,104,75,-115,41,1,-93,-102,-200,-178,-168
-127,-21,104,75,-115,41,7,-93,-102,-188,-172,-162
-133,-15,116,69,-127,47,7,-93,-102,-182,-172,-162
-127,-15,110,69,-121,47,13,-93,-96,-170,-166,-156
-127,-15,110,69,-121,47,13,-87,-90,-158,-160,-156
-121,-21,98,69,-109,35,19,-81,-84,-152,-160,-150
-127,-27,98,75,-115,35,19,-81,-84,-152,-166,-156
-127,-27,98,75,-115,35,25,-75,-84,-152,-166,-162
-127,-27,98,75,-115,35,19,-75,-78,-146,-166,-168
-133,-15,116,69,-127,47,25,-69,-72,-146,-160,-168
-139,-15,122,75,-133,53,25,-63,-66,-140,-160,-162
-139,-15,122,75,-133,53,25,-63,-66,-140,-160,-168
-139,-15,122,75,-133,53,25,-69,-66,-146,-166,-168
-139,-9,128,75,-133,59,25,-69,-66,-140,-172,-168
-139,-9,128,75,-133,59,31,-63,-60,-134,-166,-168
-145,-3,140,69,-145,65,31,-63,-60,-134,-166,-168
-139,-3,134,69,-139,65,31,-63,-54,-134,-172,-174
-139,-3,134,69,-139,65,31,-57,-54,-134,-172,-174
-139,-3,134,69,-139,65,25,-51,-48,-140,-172,-174
-133,3,134,63,-133,65,31,-45,-48,-152,-178,-180
-139,9,146,63,-145,77,31,-39,-48,-158,-178,-180
-145,9,152,63,-151,77,31,-27,-48,-152,-172,-180
-151,15,164,69,-157,89,31,-27,-42,-146,-172,-180
-145,15,158,63,-151,83,31,-21,-42,-146,-172,-180
-145,21,164,57,-157,89,31,-15,-42,-140,-166,-174
-145,21,164,57,-157,89,31,-9,-36,-134,-166,-174
-151,26,176,63,-163,101,37,-4,-30,-122,-160,-174
-163,31,194,69,-175,113,43,7,-24,-122,-154,-174
-163,37,200,63,-181,119,43,13,-19,-116,-148,-180
-163,37,200,63,-181,119,43,25,-19,-116,-142,-180
-163,43,206,63,-181,125,43,31,-14,-110,-136,-180
-163,49,212,57,-187,131,43,37,-14,-104,-142,-180
-163,55,218,57,-187,137,43,43,-8,-98,-142,-180
-163,49,212,57,-187,131,43,55,4,-98,-148,-180
-163,43,206,63,-181,125,43,61,4,-92,-148,-180
-163,49,212,57,-187,131,43,73,10,-86,-142,-180
-181,49,230,63,-205,137,49,91,22,-80,-142,-180
-187,55,242,69,-211,149,55,103,28,-74,-136,-180
-187,67,254,63,-217,161,55,115,34,-74,-136,-186
-181,73,254,51,-217,161,61,121,40,-74,-148,-192
-199,79,278,63,-235,179,67,133,58,-56,-136,-186
-211,85,296,63,-253,191,79,145,76,-38,-130,-180
-211,91,302,63,-253,197,91,163,94,-32,-130,-180
-205,97,302,51,-253,197,97,175,106,-20,-124,-180
-199,103,302,51,-247,203,103,187,112,-14,-118,-180
-199,109,308,45,-253,209,109,193,118,-14,-118,-180
-211,121,332,45,-271,227,115,211,130,-9,-112,-180
-235,127,362,57,-295,245,127,235,142,2,-106,-180
-235,133,368,51,-301,251,133,247,154,8,-106,-186
-235,133,368,51,-301,251,139,265,166,8,-118,-198
-235,139,374,51,-301,257,151,283,172,20,-118,-198
-241,145,386,45,-313,263,163,295,184,32,-118,-204
-235,151,386,45,-307,269,175,313,202,44,-118,-204
-235,157,392,39,-313,275,187,325,220,56,-118,-204
-235,169,404,33,-319,287,199,343,238,68,-106,-204
-241,169,410,33,-325,287,205,361,256,80,-100,-204
-247,169,416,39,-331,293,217,379,268,92,-100,-210
-247,169,416,39,-331,293,229,397,286,110,-94,-210
-247,175,422,39,-331,299,235,421,310,128,-88,-204
-259,175,434,45,-343,305,247,439,328,140,-76,-204
-265,169,434,45,-349,299,265,457,346,158,-70,-198
-271,169,440,51,-355,305,277,487,364,176,-64,-198
-271,169,440,51,-355,305,289,505,382,182,-58,-198
-271,169,440,51,-355,305,301,523,394,188,-58,-198
-265,175,440,45,-349,305,313,541,406,200,-52,-198
-271,175,446,51,-355,311,319,553,418,212,-52,-198
-271,175,446,51,-355,311,325,571,430,224,-52,-204
-271,175,446,51,-355,311,337,583,442,230,-52,-204
-271,169,440,51,-355,305,343,601,460,242,-40,-210
-277,169,446,51,-361,305,355,613,478,254,-40,-210
-271,169,440,51,-355,305,361,637,490,266,-34,-210
-265,163,428,51,-343,293,361,649,502,284,-29,-204
-265,151,416,57,-337,281,367,661,508,296,-24,-204
-259,151,410,57,-331,281,373,673,520,308,-24,-198
-259,145,404,57,-331,275,379,679,532,314,-18,-192
-259,139,398,63,-325,269,379,685,532,320,-12,-186
-247,133,380,57,-313,257,379,685,532,320,-12,-180
-241,133,374,51,-307,251,379,679,538,326,-6,-168
-235,127,362,57,-295,245,367,667,538,332,0,-156
-229,115,344,57,-283,227,361,655,538,338,12,-150
-217,109,326,51,-271,215,355,643,532,338,18,-144
-211,109,320,51,-265,215,343,631,520,338,30,-132
-199,109,308,45,-253,209,325,607,508,332,30,-126
-187,109,296,39,-241,203,307,577,490,332,36,-114
-181,109,290,33,-235,197,295,547,472,326,42,-102
-169,103,272,33,-217,185,277,511,454,320,48,-84
-157,97,254,27,-205,173,259,475,430,308,48,-72
-145,91,236,27,-187,161,247,439,412,296,54,-60
-133,79,212,27,-169,143,229,409,382,284,60,-48
-121,67,188,27,-151,125,211,373,352,266,60,-48
-109,67,176,21,-139,119,193,337,322,248,60,-42
-97,61,158,15,-127,107,169,301,292,236,60,-36
-85,55,140,15,-109,95,145,265,262,218,54,-30
-79,49,128,15,-103,89,121,229,232,194,48,-30
-73,49,122,9,-97,83,103,199,208,176,42,-25
-67,49,116,9,-91,83,85,169,184,158,36,-20
-67,37,104,15,-85,71,73,139,160,134,24,-20
-61,31,92,15,-73,59,61,109,130,116,18,-20
-61,26,86,15,-73,53,49,79,112,98,12,-14
-55,21,74,15,-67,47,37,55,88,86,6,-14
-49,15,62,15,-55,35,31,31,64,68,6,-14
-37,21,56,3,-49,35,19,13,46,56,6,-8
-31,21,50,3,-43,35,7,-4,28,38,-6,-8
-25,21,44,-3,-37,29,-5,-21,10,20,-12,-14
-25,15,38,3,-31,24,-11,-33,-2,14,-12,-14
-25,9,32,3,-31,19,-17,-45,-14,8,-18,-14
-19,3,21,9,-19,13,-23,-57,-19,-4,-24,-14
-13,3,16,3,-13,7,-23,-69,-24,-9,-29,-20
-13,-3,10,3,-13,1,-35,-81,-30,-9,-34,-25
-13,-3,10,3,-13,1,-41,-93,-42,-20,-46,-25
-7,-3,4,3,-8,1,-47,-105,-54,-32,-46,-25
-7,-9,-2,9,-3,-5,-52,-111,-60,-44,-46,-25
-7,-9,-2,9,-3,-5,-57,-117,-66,-50,-46,-25
-13,-15,-2,9,-8,-11,-57,-117,-72,-62,-52,-30
-13,-15,-2,9,-8,-11,-63,-123,-84,-68,-52,-30
-13,-15,-2,9,-8,-11,-63,-129,-78,-68,-52,-30
-7,-9,-2,9,-3,-5,-63,-123,-78,-62,-52,-30
-1,-9,-8,3,3,-11,-63,-117,-78,-62,-46,-25
4,-9,-14,3,9,-11,-63,-117,-78,-62,-46,-25
4,-9,-14,3,9,-11,-57,-123,-72,-62,-46,-20
-1,-15,-14,3,3,-17,-57,-117,-72,-62,-34,-14
-7,-15,-8,9,-3,-11,-52,-117,-72,-56,-34,-2
-1,-21,-20,9,9,-23,-57,-123,-78,-56,-34,-2
-1,-21,-20,9,9,-23,-52,-129,-84,-56,-34,-2
4,-21,-26,9,15,-23,-52,-129,-84,-50,-29,-8
4,-21,-26,9,15,-23,-63,-129,-90,-56,-34,-8
-1,-15,-14,3,3,-17,-63,-123,-90,-56,-40,-2
-7,-21,-14,15,3,-17,-63,-123,-84,-62,-40,-8
-13,-15,-2,9,-8,-11,-69,-123,-84,-62,-46,-14
-13,-9,4,9,-8,-5,-57,-129,-84,-68,-52,-20
-13,-9,4,9,-8,-5,-52,-129,-84,-62,-52,-20
-13,-9,4,9,-8,-5,-52,-129,-84,-56,-52,-25
-13,-9,4,9,-8,-5,-52,-129,-84,-56,-52,-25
-13,-15,-2,9,-8,-11,-52,-129,-90,-62,-52,-25
-13,-15,-2,9,-8,-11,-57,-129,-96,-62,-52,-30
-13,-21,-8,15,-3,-17,-57,-129,-102,-62,-58,-30
-13,-21,-8,15,-3,-17,-63,-129,-102,-68,-58,-36
-7,-27,-20,15,3,-23,-63,-129,-102,-74,-58,-36
-7,-27,-20,15,3,-23,-63,-129,-102,-74,-58,-36
-1,-33,-32,15,15,-35,-63,-123,-102,-86,-64,-42
-7,-27,-20,15,3,-23,-63,-123,-102,-86,-70,-42
-7,-27,-20,15,3,-23,-63,-123,-102,-86,-70,-42
-7,-27,-20,15,3,-23,-63,-123,-102,-92,-70,-36
-7,-27,-20,15,3,-23,-63,-129,-102,-86,-64,-36
-13,-21,-8,15,-3,-17,-57,-117,-102,-80,-58,-36
-19,-21,-2,21,-8,-11,-57,-117,-102,-74,-58,-36
-19,-21,-2,21,-8,-11,-57,-117,-96,-74,-52,-36
-13,-15,-2,9,-8,-11,-57,-117,-96,-74,-52,-36
-13,-9,4,9,-8,-5,-63,-117,-96,-68,-46,-30
-13,-9,4,9,-8,-5,-63,-117,-90,-68,-52,-30
-13,-9,4,9,-8,-5,-63,-117,-90,-68,-58,-30
-7,-15,-8,9,-3,-11,-63,-117,-96,-68,-58,-30
-1,-15,-14,3,3,-17,-63,-117,-96,-68,-58,-25
4,-15,-20,3,9,-17,-63,-117,-96,-74,-58,-25
-1,-21,-20,9,9,-23,-63,-117,-96,-74,-58,-25
-1,-15,-14,3,3,-17,-63,-117,-96,-74,-58,-25
-7,-15,-8,9,-3,-11,-63,-123,-96,-80,-58,-25
-7,-15,-8,9,-3,-11,-57,-129,-96,-80,-58,-25
-13,-21,-8,15,-3,-17,-57,-129,-96,-80,-58,-25
-13,-21,-8,15,-3,-17,-57,-135,-96,-86,-64,-30
-13,-15,-2,9,-8,-11,-52,-129,-96,-80,-64,-25
-13,-9,4,9,-8,-5,-47,-129,-90,-74,-64,-25
-7,-9,-2,9,-3,-5,-52,-129,-90,-68,-64,-25
-1,-9,-8,3,3,-11,-52,-129,-90,-74,-70,-30
-1,-9,-8,3,3,-11,-52,-123,-90,-80,-76,-36
-1,-15,-14,3,3,-17,-52,-129,-90,-80,-76,-36
-1,-15,-14,3,3,-17,-52,-129,-96,-92,-70,-36
-7,-9,-2,9,-3,-5,-57,-135,-102,-92,-58,-36
-7,-3,4,3,-8,1,-57,-141,-102,-92,-58,-36
-13,-9,4,9,-8,-5,-57,-141,-102,-98,-58,-42
-13,-9,4,9,-8,-5,-52,-135,-108,-98,-64,-42
-13,-15,-2,9,-8,-11,-57,-135,-108,-98,-70,-42
-13,-21,-8,15,-3,-17,-57,-135,-108,-98,-70,-42
-13,-21,-8,15,-3,-17,-57,-135,-108,-104,-76,-42
-19,-21,-2,21,-8,-11,-52,-141,-108,-98,-70,-36
-19,-27,-8,21,-8,-17,-57,-141,-108,-98,-64,-36
-25,-27,-2,21,-13,-17,-57,-147,-114,-98,-58,-30
-25,-27,-2,21,-13,-17,-52,-147,-114,-98,-58,-25
-19,-27,-8,21,-8,-17,-52,-147,-120,-104,-58,-25
-19,-21,-2,21,-8,-11,-57,-153,-126,-116,-64,-30
-19,-21,-2,21,-8,-11,-57,-159,-132,-122,-70,-36
-19,-27,-8,21,-8,-17,-63,-159,-132,-116,-76,-36
-13,-27,-14,15,-3,-23,-63,-159,-138,-116,-82,-36
-19,-33,-14,27,-3,-23,-69,-165,-138,-122,-88,-42
-19,-39,-20,27,-3,-29,-69,-165,-138,-116,-88,-42
-19,-39,-20,27,-3,-29,-69,-165,-138,-122,-88,-42
-19,-39,-20,27,-3,-29,-69,-171,-138,-128,-88,-48
-19,-39,-20,27,-3,-29,-69,-177,-144,-128,-88,-48
-25,-39,-14,27,-8,-29,-69,-183,-138,-134,-88,-54
-19,-39,-20,27,-3,-29,-69,-183,-138,-134,-88,-54
-13,-33,-20,21,3,-29,-69,-183,-138,-134,-82,-60
-13,-33,-20,21,3,-29,-75,-183,-138,-128,-82,-54
-13,-33,-20,21,3,-29,-75,-183,-138,-128,-82,-54
-13,-27,-14,15,-3,-23,-75,-189,-144,-128,-82,-60
-13,-21,-8,15,-3,-17,-75,-183,-144,-122,-82,-60
-25,-21,4,21,-13,-11,-75,-183,-150,-128,-82,-60
-19,-21,-2,21,-8,-11,-81,-189,-150,-134,-88,-60
-19,-21,-2,21,-8,-11,-81,-195,-156,-146,-94,-66
-19,-21,-2,21,-8,-11,-87,-201,-162,-152,-100,-66
-13,-27,-14,15,-3,-23,-87,-207,-162,-158,-112,-72
-7,-27,-20,15,3,-23,-87,-207,-162,-158,-106,-72
-13,-21,-8,15,-3,-17,-87,-201,-162,-152,-100,-66
-7,-21,-14,15,3,-17,-87,-207,-162,-152,-100,-66
-1,-21,-20,9,9,-23,-93,-207,-168,-152,-94,-66
-7,-21,-14,15,3,-17,-93,-207,-168,-152,-94,-60
-13,-21,-8,15,-3,-17,-99,-213,-174,-152,-94,-60
-19,-21,-2,21,-8,-11,-99,-219,-180,-152,-94,-60
-13,-21,-8,15,-3,-17,-93,-219,-186,-158,-94,-60
-19,-21,-2,21,-8,-11,-93,-219,-180,-152,-88,-48
-25,-27,-2,21,-13,-17,-93,-225,-180,-152,-88,-48
-19,-33,-14,27,-3,-23,-93,-219,-180,-152,-88,-48
-25,-33,-8,27,-8,-23,-93,-219,-180,-152,-94,-54
-19,-33,-14,27,-3,-23,-93,-225,-180,-152,-88,-54
-19,-33,-14,27,-3,-23,-93,-225,-180,-152,-88,-48
-19,-39,-20,27,-3,-29,-93,-225,-180,-152,-88,-48
-19,-39,-20,27,-3,-29,-93,-231,-180,-158,-88,-48
-25,-39,-14,27,-8,-29,-99,-231,-180,-158,-94,-54
-25,-33,-8,27,-8,-23,-99,-225,-186,-164,-100,-54
-25,-33,-8,27,-8,-23,-99,-225,-186,-164,-100,-54
-19,-33,-14,27,-3,-23,-99,-225,-192,-164,-106,-60
-19,-27,-8,21,-8,-17,-93,-225,-192,-164,-112,-60
-19,-27,-8,21,-8,-17,-93,-231,-192,-164,-112,-60
-19,-27,-8,21,-8,-17,-99,-231,-192,-164,-112,-66
-19,-27,-8,21,-8,-17,-93,-237,-198,-170,-118,-66
-25,-27,-2,21,-13,-17,-93,-231,-198,-170,-118,-66
-25,-27,-2,21,-13,-17,-99,-231,-198,-176,-118,-72
-25,-27,-2,21,-13,-17,-105,-237,-198,-176,-118,-72
-25,-27,-2,21,-13,-17,-105,-243,-198,-182,-124,-78
-25,-21,4,21,-13,-11,-111,-243,-198,-182,-118,-78
-19,-27,-8,21,-8,-17,-105,-243,-192,-188,-118,-78
-13,-27,-14,15,-3,-23,-105,-243,-198,-188,-118,-78
-7,-27,-20,15,3,-23,-105,-249,-198,-182,-118,-78
-7,-33,-26,21,9,-29,-105,-255,-198,-182,-118,-78
-7,-27,-20,15,3,-23,-99,-261,-198,-176,-118,-72
-13,-27,-14,15,-3,-23,-99,-261,-198,-176,-118,-66
-13,-27,-14,15,-3,-23,-105,-261,-204,-176,-112,-66
-19,-27,-8,21,-8,-17,-105,-255,-204,-176,-112,-66
-19,-27,-8,21,-8,-17,-105,-249,-204,-176,-106,-66
-25,-27,-2,21,-13,-17,-105,-249,-204,-176,-106,-72
-25,-33,-8,27,-8,-23,-105,-249,-210,-182,-112,-72
-19,-27,-8,21,-8,-17,-105,-249,-210,-182,-112,-78
-19,-27,-8,21,-8,-17,-105,-249,-204,-182,-112,-72
-25,-33,-8,27,-8,-23,-105,-255,-198,-182,-118,-72
-25,-27,-2,21,-13,-17,-99,-255,-198,-188,-118,-66
-19,-27,-8,21,-8,-17,-99,-249,-198,-182,-118,-66
-19,-21,-2,21,-8,-11,-93,-249,-198,-182,-112,-66
-19,-21,-2,21,-8,-11,-99,-249,-198,-182,-112,-66
-31,-15,16,21,-25,1,-99,-243,-192,-176,-106,-72
-31,-15,16,21,-25,1,-99,-243,-192,-176,-106,-72
-31,-15,16,21,-25,1,-99,-243,-198,-176,-112,-78
-31,-21,10,27,-19,-5,-93,-249,-204,-182,-118,-78
-31,-21,10,27,-19,-5,-93,-255,-204,-182,-124,-78
-25,-21,4,21,-13,-11,-93,-255,-204,-176,-124,-72
-19,-21,-2,21,-8,-11,-93,-255,-198,-176,-124,-78
-13,-21,-8,15,-3,-17,-93,-255,-198,-170,-118,-78
-13,-21,-8,15,-3,-17,-99,-255,-204,-176,-118,-78
-13,-21,-8,15,-3,-17,-99,-255,-204,-176,-118,-78
-19,-21,-2,21,-8,-11,-99,-249,-198,-176,-112,-78
-19,-21,-2,21,-8,-11,-99,-249,-198,-176,-112,-72
-25,-21,4,21,-13,-11,-99,-249,-198,-176,-118,-72
-25,-15,10,15,-19,-5,-99,-249,-204,-176,-118,-66
-25,-9,16,15,-19,1,-105,-249,-204,-176,-118,-66
-25,-9,16,15,-19,1,-105,-255,-210,-176,-118,-66
-31,-9,21,21,-25,7,-105,-261,-210,-176,-118,-66
-19,-9,10,15,-13,1,-105,-261,-210,-182,-124,-72
-1,-15,-14,3,3,-17,-111,-267,-210,-182,-130,-72
4,-15,-20,3,9,-17,-111,-267,-210,-188,-130,-78
-7,-9,-2,9,-3,-5,-105,-255,-198,-182,-124,-78
-25,-9,16,15,-19,1,-105,-255,-192,-176,-118,-72
-25,-9,16,15,-19,1,-105,-261,-192,-176,-124,-72
-19,-3,16,9,-19,7,-99,-255,-186,-176,-124,-66
-13,3,16,3,-13,7,-99,-255,-180,-176,-124,-66
-7,3,10,3,-8,7,-99,-249,-186,-170,-118,-60
-7,15,21,-3,-13,19,-93,-243,-186,-170,-112,-54
-7,21,26,-9,-19,24,-87,-231,-180,-158,-106,-48
-1,26,26,-14,-13,24,-87,-231,-180,-158,-100,-54
-1,31,32,-14,-13,29,-93,-231,-174,-152,-88,-48
-1,37,38,-19,-19,35,-93,-231,-162,-146,-82,-42
-1,43,44,-19,-19,41,-93,-231,-156,-140,-76,-42
4,43,38,-19,-13,41,-87,-225,-156,-140,-76,-48
9,49,38,-25,-13,47,-81,-219,-150,-140,-82,-48
9,55,44,-25,-13,53,-81,-213,-144,-134,-82,-42
4,61,56,-31,-25,59,-75,-207,-138,-122,-76,-36
4,67,62,-31,-25,65,-75,-201,-132,-116,-70,-36
9,61,50,-31,-19,59,-69,-195,-132,-110,-70,-36
15,55,38,-31,-8,47,-69,-189,-126,-104,-70,-36
21,61,38,-37,-8,53,-69,-183,-126,-98,-70,-42
27,61,32,-43,-3,47,-75,-177,-120,-98,-70,-42
27,67,38,-43,-3,53,-75,-177,-120,-98,-64,-36
33,73,38,-49,-3,59,-81,-177,-120,-104,-58,-30
39,73,32,-55,3,53,-87,-177,-120,-104,-52,-25
39,79,38,-55,3,59,-99,-177,-114,-98,-46,-20
45,79,32,-55,9,59,-111,-177,-108,-98,-46,-14
45,79,32,-55,9,59,-117,-183,-108,-98,-46,-14
57,85,26,-67,15,59,-123,-183,-108,-92,-46,-14
51,85,32,-67,9,59,-129,-189,-114,-92,-46,-14
57,79,21,-61,21,53,-135,-201,-126,-98,-46,-14
57,67,10,-55,27,41,-141,-207,-132,-98,-40,-20
51,55,4,-49,27,29,-147,-219,-138,-104,-40,-20
45,43,-2,-37,27,24,-159,-231,-150,-116,-46,-25
39,43,4,-37,21,24,-159,-237,-156,-134,-52,-25
39,43,4,-37,21,24,-153,-237,-156,-128,-52,-20
39,49,10,-43,15,29,-147,-243,-162,-128,-58,-20
39,43,4,-37,21,24,-141,-243,-168,-128,-70,-25
45,43,-2,-37,27,24,-141,-249,-174,-134,-76,-25
39,43,4,-37,21,24,-141,-249,-174,-134,-76,-25
39,43,4,-37,21,24,-135,-255,-174,-146,-88,-25
39,37,-2,-37,21,19,-135,-255,-174,-152,-94,-30
33,26,-8,-25,21,13,-141,-255,-180,-152,-94,-30
33,26,-8,-25,21,13,-147,-261,-192,-164,-100,-36
27,21,-8,-25,15,7,-147,-267,-198,-176,-100,-42
21,21,-2,-19,9,13,-153,-273,-204,-182,-100,-48
21,15,-8,-14,15,7,-159,-291,-216,-194,-112,-54
21,9,-14,-14,15,1,-159,-303,-222,-206,-124,-60
9,3,-8,-3,9,1,-159,-303,-228,-206,-124,-60
-1,-3,-2,-3,-3,-5,-159,-303,-222,-206,-118,-60
-7,-9,-2,9,-3,-5,-159,-303,-222,-206,-118,-60
-13,-15,-2,9,-8,-11,-153,-297,-222,-206,-118,-66
-13,-21,-8,15,-3,-17,-153,-297,-222,-206,-118,-72
-19,-27,-8,21,-8,-17,-147,-291,-222,-206,-118,-72
-25,-33,-8,27,-8,-23,-141,-291,-222,-206,-124,-78
-31,-33,-2,33,-13,-17,-135,-285,-216,-200,-124,-78
-31,-33,-2,33,-13,-17,-135,-285,-216,-194,-130,-84
-31,-39,-8,33,-13,-23,-135,-285,-222,-200,-142,-96
-31,-33,-2,33,-13,-17,-135,-285,-222,-194,-148,-96
-31,-33,-2,33,-13,-17,-135,-279,-222,-200,-154,-102
-31,-33,-2,33,-13,-17,-129,-273,-222,-206,-160,-102
-25,-33,-8,27,-8,-23,-129,-267,-216,-206,-154,-102
-25,-33,-8,27,-8,-23,-123,-255,-210,-194,-148,-96
-25,-39,-14,27,-8,-29,-111,-249,-198,-188,-142,-96
-13,-45,-32,27,9,-41,-99,-237,-186,-176,-130,-90
-13,-51,-38,27,9,-47,-87,-225,-174,-164,-118,-84
-7,-57,-50,33,21,-53,-69,-207,-162,-146,-106,-78
4,-63,-68,27,33,-65,-57,-195,-138,-134,-94,-72
9,-69,-80,33,45,-71,-52,-165,-114,-116,-82,-60
4,-81,-86,39,45,-83,-41,-129,-84,-92,-70,-42
-1,-87,-86,39,39,-89,-11,-87,-54,-68,-46,-25
-7,-99,-92,51,39,-95,7,-57,-24,-50,-29,-14
9,-111,-122,51,63,-113,19,-21,4,-26,-12,4
21,-117,-140,51,81,-125,37,1,28,-4,6,10
39,-135,-176,45,105,-155,61,31,52,26,24,28
63,-153,-218,45,141,-185,79,67,76,62,48,46
87,-165,-254,39,171,-209,91,97,100,92,72,64
99,-183,-284,39,189,-233,103,139,124,122,96,94
105,-195,-302,45,201,-245,109,175,148,158,126,118
117,-213,-332,51,225,-269,121,211,160,176,150,148
141,-225,-368,45,255,-293,121,235,184,194,174,166
159,-243,-404,39,279,-323,133,283,214,218,198,178
177,-267,-446,45,309,-353,151,331,250,242,216,190
195,-291,-488,45,339,-389,181,385,298,266,228,190
213,-315,-530,51,369,-419,223,463,346,302,252,202
237,-345,-584,57,411,-461,253,541,400,350,276,220
267,-375,-644,51,453,-509,277,619,454,416,312,244
309,-393,-704,45,507,-545,295,721,538,524,384,304
357,-399,-758,21,555,-575,331,865,676,692,516,394
423,-387,-812,-19,615,-599,379,1051,868,908,702,526
501,-363,-866,-67,681,-611,427,1285,1102,1166,930,700
597,-333,-932,-127,765,-629,463,1555,1366,1466,1200,904
717,-279,-998,-217,855,-635,487,1819,1636,1796,1500,1138
849,-207,-1058,-319,951,-629,475,2041,1882,2144,1818,1396
987,-105,-1094,-439,1041,-599,421,2173,2062,2473,2130,1660
1131,26,-1106,-577,1119,-539,307,2203,2182,2803,2447,1924
1269,175,-1094,-715,1185,-455,169,2149,2248,3109,2753,2194
1377,313,-1064,-841,1221,-371,25,2047,2272,3367,3035,2445
1461,421,-1040,-937,1251,-305,-123,1879,2218,3523,3233,2637
1515,487,-1028,-997,1275,-269,-267,1645,2056,3541,3317,2763
1521,517,-1004,-1015,1263,-239,-411,1309,1774,3367,3251,2787
1437,505,-932,-967,1185,-209,-519,859,1336,2917,2957,2643
1227,427,-800,-823,1017,-185,-567,319,760,2210,2405,2284
921,295,-626,-601,777,-161,-519,-159,208,1418,1734,1774
627,127,-500,-373,567,-185,-411,-477,-192,752,1092,1234
387,-15,-404,-187,393,-209,-291,-639,-432,278,588,766
207,-135,-344,-37,273,-239,-177,-675,-552,-9,246,430
81,-225,-308,75,195,-263,-87,-645,-588,-176,18,190
-7,-303,-296,153,141,-299,-35,-591,-600,-278,-130,16
-61,-363,-302,207,117,-335,1,-543,-594,-344,-232,-102
-91,-411,-320,249,111,-365,25,-501,-582,-392,-298,-180
-109,-429,-320,267,105,-377,43,-471,-564,-404,-322,-222
-103,-423,-320,261,105,-371,49,-435,-534,-398,-328,-234
-85,-411,-326,243,117,-371,49,-393,-492,-386,-328,-240
-73,-381,-308,225,117,-347,49,-339,-444,-362,-316,-240
-55,-339,-284,195,111,-311,49,-285,-396,-344,-310,-228
-43,-291,-248,165,99,-269,55,-237,-348,-320,-298,-222
-37,-249,-212,141,87,-233,61,-189,-306,-302,-286,-210
-43,-219,-176,129,63,-197,67,-159,-264,-272,-262,-198
-43,-183,-140,111,45,-161,61,-141,-234,-254,-244,-180
-55,-159,-104,105,21,-131,55,-135,-204,-230,-220,-168
-67,-135,-68,99,-3,-101,49,-129,-180,-212,-196,-150
-79,-111,-32,93,-25,-71,43,-129,-162,-194,-178,-138
-79,-93,-14,87,-31,-53,37,-129,-144,-194,-172,-132
-85,-75,10,75,-49,-35,31,-135,-144,-194,-178,-132
-85,-69,16,75,-49,-29,19,-135,-144,-194,-184,-138
-91,-57,32,75,-61,-11,13,-141,-144,-194,-190,-138
-103,-51,50,75,-79,1,7,-147,-144,-200,-196,-150
-103,-51,50,75,-79,1,1,-147,-138,-200,-202,-156
-103,-51,50,75,-79,1,1,-147,-144,-206,-208,-162
-103,-45,56,75,-79,7,1,-153,-144,-206,-208,-168
-103,-39,62,69,-85,13,1,-147,-144,-212,-202,-168
-103,-39,62,69,-85,13,1,-147,-144,-212,-196,-168
-103,-45,56,75,-79,7,1,-147,-144,-212,-196,-174
-103,-51,50,75,-79,1,7,-141,-138,-206,-196,-174
-103,-51,50,75,-79,1,1,-141,-138,-200,-196,-174
-103,-51,50,75,-79,1,1,-141,-138,-206,-196,-174
-109,-51,56,75,-85,1,-5,-141,-138,-212,-202,-174
-103,-45,56,75,-79,7,-17,-141,-138,-218,-202,-180
-103,-45,56,75,-79,7,-17,-141,-138,-218,-208,-180
-109,-39,68,69,-91,13,-11,-141,-132,-218,-208,-174
-109,-33,74,69,-91,19,-11,-135,-126,-218,-208,-174
-115,-33,80,75,-97,24,-11,-135,-126,-218,-208,-168
-121,-33,86,75,-103,24,-11,-129,-120,-218,-208,-174
-127,-33,92,81,-109,29,-5,-123,-120,-218,-208,-168
-121,-33,86,75,-103,24,-11,-111,-120,-218,-208,-168
-127,-33,92,81,-109,29,-11,-111,-114,-218,-208,-168
-127,-33,92,81,-109,29,-17,-111,-114,-224,-214,-174
-133,-33,98,81,-115,29,-17,-105,-108,-224,-208,-168
-127,-33,92,81,-109,29,-17,-105,-108,-230,-208,-168
-121,-33,86,75,-103,24,-17,-99,-102,-236,-214,-174
-115,-27,86,69,-103,29,-17,-93,-102,-236,-220,-180
-115,-21,92,69,-103,35,-17,-93,-102,-230,-220,-180
-121,-27,92,69,-109,29,-17,-87,-96,-230,-214,-180
-127,-33,92,81,-109,29,-11,-81,-96,-224,-208,-174
-127,-33,92,81,-109,29,-17,-81,-102,-218,-208,-174
-127,-27,98,75,-115,35,-23,-87,-96,-212,-202,-168
-121,-21,98,69,-109,35,-23,-81,-96,-212,-202,-168
-121,-21,98,69,-109,35,-23,-81,-90,-200,-196,-168
-127,-15,110,69,-121,47,-23,-75,-90,-200,-190,-168
-127,-15,110,69,-121,47,-23,-75,-84,-194,-190,-168
-133,-15,116,69,-127,47,-17,-69,-84,-194,-190,-174
-133,-21,110,75,-121,41,-17,-69,-84,-194,-196,-180
-133,-21,110,75,-121,41,-17,-69,-78,-194,-196,-180
-133,-15,116,69,-127,47,-11,-63,-72,-194,-190,-180
-133,-9,122,69,-127,53,-11,-57,-72,-194,-190,-180
-139,-9,128,75,-133,59,-17,-57,-72,-194,-190,-174
-133,-9,122,69,-127,53,-17,-63,-72,-188,-196,-180
-133,-9,122,69,-127,53,-17,-57,-72,-182,-190,-174
-133,-9,122,69,-127,53,-17,-51,-66,-182,-190,-180
-139,-3,134,69,-139,65,-11,-45,-66,-182,-190,-180
-145,-3,140,69,-145,65,-11,-45,-60,-182,-190,-186
-145,3,146,69,-145,71,-5,-39,-60,-182,-190,-186
-145,9,152,63,-151,77,-5,-39,-60,-182,-184,-192
-145,9,152,63,-151,77,1,-33,-54,-176,-184,-192
-145,9,152,63,-151,77,1,-27,-48,-170,-184,-192
-145,9,152,63,-151,77,-5,-21,-42,-170,-184,-192
-151,15,164,69,-157,89,-5,-9,-36,-164,-184,-192
-157,21,176,63,-169,95,-5,-4,-30,-164,-184,-192
-157,21,176,63,-169,95,-5,1,-30,-158,-178,-192
-163,26,188,69,-175,107,1,7,-24,-164,-178,-192
-163,31,194,69,-175,113,7,13,-19,-164,-172,-192
-163,31,194,69,-175,113,7,19,-19,-158,-172,-192
-163,31,194,69,-175,113,7,25,-14,-152,-172,-192
-163,37,200,63,-181,119,13,37,-8,-146,-172,-198
-157,43,200,57,-175,119,13,43,4,-140,-172,-198
-157,49,206,51,-181,125,13,55,10,-134,-172,-204
-163,49,212,57,-187,131,13,73,16,-128,-178,-204
-169,55,224,57,-193,137,13,85,22,-116,-172,-204
-163,67,230,51,-193,149,13,91,28,-116,-172,-210
-163,67,230,51,-193,149,13,97,40,-116,-178,-210
-163,79,242,45,-199,161,19,103,46,-110,-178,-216
-169,79,248,45,-205,161,25,121,58,-104,-172,-216
-175,85,260,45,-217,173,31,133,70,-98,-172,-222
-181,91,272,45,-223,179,43,145,82,-86,-178,-222
-181,97,278,39,-229,185,49,157,88,-80,-178,-228
-181,103,284,39,-229,191,55,169,100,-74,-178,-228
-193,109,302,39,-247,203,61,187,118,-62,-184,-234
-199,115,314,45,-253,215,73,211,136,-44,-178,-234
-199,121,320,39,-259,221,79,223,148,-38,-184,-234
-205,127,332,39,-265,227,91,241,166,-32,-184,-240
-217,127,344,45,-277,233,103,259,184,-26,-178,-240
-229,133,362,45,-295,245,115,277,196,-20,-178,-240
-229,133,362,45,-295,245,121,289,202,-20,-178,-246
-229,139,368,45,-295,251,127,307,214,-9,-172,-246
-235,145,380,45,-307,263,139,325,232,-4,-160,-246
-229,151,380,39,-301,263,151,343,244,8,-154,-240
-235,157,392,39,-313,275,169,361,262,20,-148,-234
-235,157,392,39,-313,275,175,379,280,32,-142,-234
-235,157,392,39,-313,275,181,397,292,44,-142,-240
-235,163,398,39,-313,281,187,415,310,62,-136,-240
-235,163,398,39,-313,281,199,427,322,74,-124,-246
-241,163,404,39,-319,281,205,451,334,86,-118,-246
-247,163,410,45,-325,287,223,463,352,98,-118,-246
-247,163,410,45,-325,287,235,481,364,104,-124,-246
-247,163,410,45,-325,287,253,499,382,122,-124,-246
-265,163,428,51,-343,293,265,523,400,140,-118,-246
-271,163,434,57,-349,299,277,541,412,152,-112,-246
-271,157,428,57,-349,293,289,559,424,158,-106,-252
-271,157,428,57,-349,293,295,577,442,170,-100,-246
-265,157,422,51,-343,287,301,589,454,182,-94,-246
-265,151,416,57,-337,281,313,601,466,188,-94,-246
-259,151,410,57,-331,281,319,613,478,194,-88,-246
-259,145,404,57,-331,275,325,619,490,200,-88,-246
-253,139,392,57,-319,263,337,625,496,206,-82,-252
-253,133,386,57,-319,257,343,637,508,218,-76,-246
-247,127,374,63,-307,251,349,649,520,230,-70,-240
-247,121,368,63,-307,245,355,649,526,236,-58,-234
-241,121,362,57,-301,239,355,649,532,242,-46,-228
-235,115,350,63,-289,233,349,655,532,254,-34,-210
-223,115,338,57,-277,227,337,643,526,254,-29,-198
-223,109,332,57,-277,221,325,631,514,260,-24,-186
-211,109,320,51,-265,215,313,619,508,260,-12,-174
-205,103,308,51,-253,203,301,607,502,260,-6,-168
-193,97,290,45,-241,191,295,589,490,254,-6,-156
-187,91,278,51,-229,185,289,571,478,254,-6,-150
-175,85,260,45,-217,173,277,541,466,248,0,-144
-163,79,242,45,-199,161,253,505,448,236,0,-138
-151,73,224,39,-187,149,235,469,418,230,0,-126
-145,67,212,39,-175,137,211,433,394,212,0,-120
-139,67,206,39,-169,137,193,397,364,200,0,-114
-127,61,188,33,-157,125,175,361,340,176,0,-102
-115,55,170,33,-139,113,157,331,316,164,0,-96
-103,49,152,27,-127,101,133,301,286,146,-6,-90
-91,49,140,21,-115,95,121,271,262,128,-6,-84
-79,49,128,15,-103,89,97,241,232,122,-12,-78
-73,43,116,15,-91,77,73,205,208,104,-18,-72
-67,37,104,15,-85,71,61,175,178,86,-24,-66
-73,31,104,21,-85,65,43,145,154,68,-24,-60
-67,26,92,21,-79,59,31,115,130,56,-29,-54
-61,26,86,15,-73,53,13,91,106,38,-29,-60
-55,21,74,15,-67,47,1,67,82,26,-29,-54
-43,15,56,15,-49,35,-11,49,64,14,-29,-48
-37,15,50,9,-43,29,-23,37,46,2,-29,-42
-31,15,44,9,-37,29,-29,19,28,-4,-24,-36
-31,15,44,9,-37,29,-41,1,16,-4,-24,-36
-19,9,26,3,-25,19,-47,-9,-2,-9,-29,-30
-13,9,21,-3,-19,13,-47,-21,-14,-20,-29,-30
-7,9,16,-3,-13,13,-52,-27,-19,-26,-34,-25
-7,3,10,3,-8,7,-52,-39,-30,-32,-34,-25
-13,3,16,3,-13,7,-57,-45,-36,-44,-40,-25
-7,3,10,3,-8,7,-63,-45,-42,-50,-40,-30
-13,3,16,3,-13,7,-69,-51,-48,-56,-40,-30
-13,-3,10,3,-13,1,-69,-57,-60,-62,-46,-36
-7,-3,4,3,-8,1,-75,-63,-66,-68,-52,-36
-7,-9,-2,9,-3,-5,-75,-69,-72,-68,-58,-42
-1,-15,-14,3,3,-17,-75,-75,-78,-68,-64,-42
-1,-15,-14,3,3,-17,-75,-75,-78,-62,-64,-42
-1,-15,-14,3,3,-17,-75,-69,-78,-62,-64,-42
4,-21,-26,9,15,-23,-81,-75,-84,-68,-64,-48
-1,-21,-20,9,9,-23,-93,-75,-84,-80,-64,-48
-1,-27,-26,9,9,-29,-93,-75,-84,-92,-64,-48
-1,-27,-26,9,9,-29,-93,-75,-84,-92,-58,-42
-7,-27,-20,15,3,-23,-93,-75,-84,-98,-58,-42
-7,-21,-14,15,3,-17,-87,-63,-84,-92,-52,-36
-1,-15,-14,3,3,-17,-87,-63,-84,-86,-46,-36
-7,-15,-8,9,-3,-11,-87,-63,-90,-92,-46,-36
-7,-15,-8,9,-3,-11,-87,-69,-90,-92,-52,-42
-7,-15,-8,9,-3,-11,-87,-69,-84,-92,-52,-36
-7,-9,-2,9,-3,-5,-87,-69,-84,-86,-46,-36
-13,-9,4,9,-8,-5,-81,-75,-84,-86,-46,-36
-13,-15,-2,9,-8,-11,-81,-75,-84,-86,-52,-36
-13,-21,-8,15,-3,-17,-81,-75,-84,-86,-52,-36
-13,-15,-2,9,-8,-11,-81,-75,-84,-86,-52,-36
-13,-15,-2,9,-8,-11,-75,-75,-78,-86,-52,-36
-7,-9,-2,9,-3,-5,-75,-75,-78,-86,-52,-36
-7,-15,-8,9,-3,-11,-75,-75,-84,-86,-58,-36
-19,-15,4,15,-13,-5,-75,-75,-84,-86,-58,-36
-7,-9,-2,9,-3,-5,-81,-69,-90,-86,-64,-36
-13,-3,10,3,-13,1,-81,-69,-84,-86,-64,-36
-13,-3,10,3,-13,1,-81,-69,-90,-92,-64,-42
-13,-9,4,9,-8,-5,-81,-69,-90,-104,-64,-42
-13,-9,4,9,-8,-5,-81,-69,-90,-104,-64,-42
-13,-9,4,9,-8,-5,-81,-69,-96,-110,-64,-48
-19,-9,10,15,-13,1,-81,-69,-90,-110,-64,-48
-19,-9,10,15,-13,1,-81,-69,-90,-110,-64,-48
-7,-9,-2,9,-3,-5,-87,-75,-90,-110,-64,-48
-13,-3,10,3,-13,1,-87,-75,-96,-104,-64,-48
-7,-3,4,3,-8,1,-93,-75,-96,-104,-58,-48
-7,-3,4,3,-8,1,-93,-75,-96,-104,-64,-54
-7,-9,-2,9,-3,-5,-93,-81,-102,-110,-70,-60
-7,-9,-2,9,-3,-5,-87,-81,-102,-116,-64,-60
-7,-3,4,3,-8,1,-87,-81,-102,-116,-64,-60
-13,-3,10,3,-13,1,-81,-75,-102,-116,-64,-66
-13,-3,10,3,-13,1,-81,-75,-102,-122,-64,-66
-7,-3,4,3,-8,1,-81,-75,-102,-116,-64,-66
-7,-9,-2,9,-3,-5,-87,-75,-108,-122,-70,-66
-7,-9,-2,9,-3,-5,-93,-75,-108,-116,-70,-66
-13,-9,4,9,-8,-5,-93,-69,-108,-110,-70,-54
-25,-9,16,15,-19,1,-93,-63,-108,-110,-70,-54
-19,-9,10,15,-13,1,-93,-69,-108,-116,-70,-54
-13,-9,4,9,-8,-5,-93,-69,-108,-116,-70,-54
-7,-3,4,3,-8,1,-93,-69,-108,-116,-70,-48
-13,-3,10,3,-13,1,-87,-69,-108,-116,-64,-48
-13,3,16,3,-13,7,-87,-69,-102,-116,-58,-42
-13,3,16,3,-13,7,-87,-63,-102,-110,-58,-42
-13,3,16,3,-13,7,-93,-63,-102,-110,-58,-42
-13,-3,10,3,-13,1,-93,-63,-102,-110,-64,-42
-13,-3,10,3,-13,1,-99,-63,-108,-116,-64,-42
-13,-3,10,3,-13,1,-99,-69,-114,-116,-64,-42
-13,-9,4,9,-8,-5,-93,-75,-114,-122,-64,-42
-13,-9,4,9,-8,-5,-93,-81,-120,-128,-64,-42
-13,-9,4,9,-8,-5,-93,-87,-126,-134,-70,-42
-13,-9,4,9,-8,-5,-93,-93,-126,-134,-70,-42
-19,-9,10,15,-13,1,-87,-87,-126,-128,-76,-42
-13,-9,4,9,-8,-5,-93,-87,-132,-128,-82,-48
-13,-9,4,9,-8,-5,-99,-93,-132,-128,-82,-54
-13,-15,-2,9,-8,-11,-99,-99,-132,-128,-88,-54
-19,-15,4,15,-13,-5,-93,-99,-132,-128,-88,-54
-19,-9,10,15,-13,1,-93,-105,-132,-128,-88,-54
-13,-9,4,9,-8,-5,-99,-105,-132,-128,-88,-54
-7,-9,-2,9,-3,-5,-93,-105,-138,-128,-88,-60
-7,-3,4,3,-8,1,-93,-99,-132,-128,-88,-60
-7,-3,4,3,-8,1,-93,-99,-138,-128,-88,-60
-7,-9,-2,9,-3,-5,-93,-93,-144,-128,-88,-66
-7,-15,-8,9,-3,-11,-99,-99,-144,-128,-88,-72
-7,-15,-8,9,-3,-11,-99,-105,-144,-128,-94,-66
-13,-15,-2,9,-8,-11,-105,-111,-144,-134,-94,-72
-13,-15,-2,9,-8,-11,-105,-117,-150,-134,-106,-72
-13,-15,-2,9,-8,-11,-111,-123,-156,-134,-106,-66
-13,-21,-8,15,-3,-17,-111,-123,-162,-134,-106,-66
-13,-15,-2,9,-8,-11,-105,-123,-156,-134,-106,-66
-7,-15,-8,9,-3,-11,-111,-123,-162,-140,-106,-66
-7,-15,-8,9,-3,-11,-111,-123,-168,-140,-112,-72
-13,-21,-8,15,-3,-17,-111,-123,-168,-146,-106,-78
-7,-21,-14,15,3,-17,-111,-123,-168,-146,-106,-78
-1,-15,-14,3,3,-17,-117,-129,-174,-152,-106,-78
-1,-15,-14,3,3,-17,-117,-129,-174,-158,-106,-72
-7,-9,-2,9,-3,-5,-111,-129,-174,-158,-112,-72
-13,-15,-2,9,-8,-11,-111,-135,-180,-158,-112,-72
-13,-21,-8,15,-3,-17,-111,-141,-180,-164,-112,-72
-13,-21,-8,15,-3,-17,-111,-147,-180,-164,-106,-72
-19,-27,-8,21,-8,-17,-111,-141,-180,-158,-106,-66
-13,-27,-14,15,-3,-23,-111,-141,-180,-158,-106,-72
-13,-21,-8,15,-3,-17,-111,-135,-180,-158,-94,-66
-13,-21,-8,15,-3,-17,-111,-135,-180,-158,-94,-66
-7,-15,-8,9,-3,-11,-117,-141,-186,-158,-94,-72
-7,-15,-8,9,-3,-11,-117,-141,-192,-158,-94,-72
-7,-15,-8,9,-3,-11,-123,-141,-192,-158,-100,-72
-7,-15,-8,9,-3,-11,-123,-147,-192,-158,-100,-66
-7,-15,-8,9,-3,-11,-123,-147,-192,-158,-106,-66
-7,-15,-8,9,-3,-11,-123,-153,-192,-158,-106,-72
-7,-21,-14,15,3,-17,-123,-153,-192,-158,-112,-78
-7,-21,-14,15,3,-17,-123,-159,-192,-164,-118,-78
-7,-27,-20,15,3,-23,-123,-159,-198,-158,-112,-84
-1,-27,-26,9,9,-29,-123,-159,-198,-158,-118,-84
9,-27,-38,9,21,-29,-129,-159,-204,-158,-124,-90
4,-27,-32,9,15,-29,-129,-165,-198,-164,-124,-90
-1,-27,-26,9,9,-29,-129,-165,-204,-164,-130,-96
-1,-21,-20,9,9,-23,-129,-165,-204,-170,-130,-96
-7,-21,-14,15,3,-17,-129,-165,-204,-170,-130,-96
-7,-15,-8,9,-3,-11,-129,-165,-204,-176,-130,-96
-7,-15,-8,9,-3,-11,-129,-165,-210,-176,-124,-90
-7,-15,-8,9,-3,-11,-129,-165,-210,-176,-124,-90
-1,-15,-14,3,3,-17,-129,-165,-210,-182,-118,-90
-1,-9,-8,3,3,-11,-129,-159,-204,-176,-118,-84
4,-9,-14,3,9,-11,-135,-159,-210,-176,-118,-84
4,-15,-20,3,9,-17,-135,-165,-210,-182,-118,-84
4,-15,-20,3,9,-17,-135,-165,-216,-182,-118,-84
-7,-9,-2,9,-3,-5,-129,-165,-216,-176,-112,-78
-13,-9,4,9,-8,-5,-129,-165,-216,-176,-112,-78
-19,-9,10,15,-13,1,-123,-171,-222,-176,-118,-84
-13,-9,4,9,-8,-5,-123,-171,-228,-182,-118,-84
-13,-15,-2,9,-8,-11,-123,-171,-228,-188,-124,-84
-13,-15,-2,9,-8,-11,-117,-165,-222,-194,-124,-84
-7,-15,-8,9,-3,-11,-117,-159,-222,-188,-118,-78
-1,-15,-14,3,3,-17,-117,-159,-216,-188,-124,-78
-1,-21,-20,9,9,-23,-117,-159,-216,-188,-124,-84
-1,-27,-26,9,9,-29,-117,-165,-222,-188,-124,-84
-1,-33,-32,15,15,-35,-123,-165,-222,-188,-124,-84
-1,-33,-32,15,15,-35,-123,-171,-222,-194,-130,-84
4,-27,-32,9,15,-29,-117,-171,-222,-194,-136,-90
-1,-21,-20,9,9,-23,-117,-171,-222,-200,-136,-90
4,-21,-26,9,15,-23,-123,-177,-228,-200,-136,-96
4,-21,-26,9,15,-23,-123,-177,-228,-200,-136,-96
4,-27,-32,9,15,-29,-123,-177,-228,-194,-130,-96
4,-21,-26,9,15,-23,-123,-177,-228,-194,-124,-96
4,-21,-26,9,15,-23,-123,-177,-234,-194,-124,-96
-1,-21,-20,9,9,-23,-123,-171,-228,-188,-118,-90
-7,-21,-14,15,3,-17,-123,-171,-228,-188,-118,-84
-7,-27,-20,15,3,-23,-123,-171,-234,-194,-118,-84
-7,-27,-20,15,3,-23,-117,-165,-228,-194,-118,-78
-13,-27,-14,15,-3,-23,-117,-165,-222,-188,-118,-78
-13,-21,-8,15,-3,-17,-117,-165,-222,-188,-118,-78
-13,-21,-8,15,-3,-17,-117,-171,-222,-188,-118,-78
-13,-21,-8,15,-3,-17,-117,-171,-222,-182,-112,-78
-7,-21,-14,15,3,-17,-117,-171,-222,-182,-112,-72
-13,-21,-8,15,-3,-17,-117,-177,-222,-182,-118,-72
-7,-21,-14,15,3,-17,-111,-171,-222,-182,-112,-66
-7,-21,-14,15,3,-17,-111,-171,-222,-182,-112,-66
-7,-21,-14,15,3,-17,-123,-177,-222,-188,-118,-66
-1,-21,-20,9,9,-23,-123,-171,-216,-194,-112,-66
-1,-21,-20,9,9,-23,-123,-171,-216,-188,-106,-66
-13,-21,-8,15,-3,-17,-123,-171,-216,-194,-106,-66
-13,-15,-2,9,-8,-11,-123,-165,-210,-188,-112,-66
-13,-9,4,9,-8,-5,-123,-165,-216,-188,-112,-72
-13,-9,4,9,-8,-5,-123,-159,-210,-176,-112,-72
-7,3,10,3,-8,7,-123,-153,-204,-176,-106,-66
-1,9,10,-9,-8,7,-123,-153,-198,-176,-106,-60
4,15,10,-9,-3,13,-123,-153,-192,-176,-100,-66
9,21,10,-14,-3,19,-117,-153,-186,-176,-94,-66
9,26,16,-14,-3,24,-111,-153,-180,-170,-88,-60
15,26,10,-19,3,19,-105,-147,-174,-170,-88,-60
9,26,16,-14,-3,24,-93,-135,-162,-158,-76,-48
4,31,26,-14,-8,29,-87,-123,-156,-152,-76,-48
9,37,26,-19,-8,35,-87,-117,-150,-140,-76,-42
15,37,21,-25,-3,29,-81,-111,-150,-140,-76,-36
21,37,16,-25,3,29,-75,-105,-150,-140,-76,-36
27,49,21,-37,3,35,-75,-105,-144,-140,-70,-36
21,49,26,-31,-3,41,-75,-99,-144,-134,-64,-30
21,55,32,-31,-3,47,-75,-99,-144,-134,-64,-30
27,55,26,-37,3,41,-75,-99,-138,-128,-58,-25
33,61,26,-43,3,47,-81,-99,-138,-122,-52,-20
39,67,26,-49,9,47,-93,-105,-144,-122,-52,-14
45,73,26,-55,9,53,-105,-105,-138,-110,-46,-14
57,79,21,-61,21,53,-117,-105,-144,-110,-46,-8
69,79,10,-67,33,47,-129,-111,-150,-116,-46,-8
75,79,4,-73,39,41,-135,-111,-156,-122,-52,-8
75,79,4,-73,39,41,-141,-117,-162,-122,-52,-2
75,73,-2,-73,39,35,-147,-123,-162,-122,-46,-2
69,67,-2,-61,39,35,-153,-135,-168,-134,-52,-8
63,55,-8,-55,39,24,-159,-147,-174,-140,-58,-14
51,55,4,-49,27,29,-159,-159,-186,-152,-64,-20
45,49,4,-43,21,29,-159,-165,-198,-158,-76,-25
45,49,4,-43,21,29,-147,-171,-204,-164,-82,-30
45,49,4,-43,21,29,-141,-171,-204,-164,-82,-36
39,43,4,-37,21,24,-141,-171,-204,-164,-82,-42
39,43,4,-37,21,24,-135,-171,-204,-164,-82,-42
39,43,4,-37,21,24,-135,-171,-204,-164,-82,-42
39,37,-2,-37,21,19,-141,-165,-204,-164,-82,-42
39,31,-8,-31,27,13,-141,-171,-216,-170,-88,-42
45,26,-20,-31,33,7,-147,-177,-222,-176,-88,-48
45,21,-26,-31,33,1,-147,-177,-234,-188,-100,-48
39,15,-26,-25,33,-5,-153,-183,-246,-200,-106,-54
39,9,-32,-25,33,-11,-159,-195,-258,-212,-112,-60
33,9,-26,-19,27,-5,-159,-201,-258,-212,-112,-60
27,3,-26,-14,27,-11,-159,-213,-264,-218,-112,-60
27,-3,-32,-14,27,-17,-159,-225,-270,-230,-124,-72
21,-9,-32,-3,27,-17,-165,-231,-276,-236,-130,-78
15,-15,-32,-3,21,-23,-159,-231,-276,-236,-130,-78
4,-15,-20,3,9,-17,-159,-237,-276,-236,-142,-84
-7,-21,-14,15,3,-17,-153,-231,-270,-236,-142,-90
-13,-21,-8,15,-3,-17,-147,-225,-270,-230,-148,-90
-13,-21,-8,15,-3,-17,-141,-225,-276,-236,-148,-90
-19,-27,-8,21,-8,-17,-135,-219,-276,-236,-154,-96
-19,-27,-8,21,-8,-17,-129,-219,-276,-236,-148,-90
-19,-27,-8,21,-8,-17,-129,-219,-276,-236,-148,-90
-25,-33,-8,27,-8,-23,-123,-213,-276,-242,-148,-90
-25,-33,-8,27,-8,-23,-123,-213,-276,-242,-142,-90
-19,-39,-20,27,-3,-29,-123,-213,-276,-242,-142,-90
-19,-39,-20,27,-3,-29,-117,-213,-270,-236,-142,-84
-19,-45,-26,33,3,-35,-111,-213,-258,-224,-142,-84
-19,-45,-26,33,3,-35,-99,-201,-252,-212,-136,-78
-19,-45,-26,33,3,-35,-93,-195,-240,-206,-130,-78
-13,-45,-32,27,9,-41,-81,-183,-234,-200,-124,-78
-7,-51,-44,27,15,-47,-75,-165,-222,-188,-118,-78
-1,-51,-50,21,21,-53,-69,-141,-204,-170,-106,-66
4,-57,-62,27,33,-59,-57,-105,-186,-152,-88,-54
4,-69,-74,33,39,-71,-41,-69,-156,-128,-70,-36
4,-75,-80,33,39,-77,-23,-39,-126,-104,-46,-25
15,-87,-104,33,57,-95,-5,-9,-96,-80,-29,-20
27,-99,-128,33,75,-113,19,19,-60,-50,-6,-2
45,-105,-152,33,99,-125,37,55,-36,-26,18,16
57,-123,-182,33,117,-149,55,85,-8,2,42,34
69,-135,-206,33,135,-167,79,127,28,38,66,58
81,-147,-230,33,153,-185,97,169,58,68,90,76
93,-165,-260,39,177,-209,115,205,88,98,108,94
117,-177,-296,33,207,-233,127,241,106,122,126,112
141,-189,-332,27,237,-257,133,271,124,146,144,130
159,-207,-368,21,261,-287,145,301,142,164,162,142
171,-225,-398,27,285,-311,163,349,172,194,186,154
183,-243,-428,27,303,-335,193,403,208,224,210,166
195,-267,-464,33,327,-365,223,463,256,260,234,184
219,-297,-518,39,369,-407,265,535,316,302,264,196
243,-327,-572,39,405,-449,301,613,370,350,300,220
273,-363,-638,45,453,-497,319,691,418,410,342,250
315,-375,-692,27,501,-533,343,787,502,506,420,310
363,-381,-746,9,555,-563,379,931,634,656,534,400
435,-369,-806,-31,621,-587,421,1123,820,866,702,526
525,-339,-866,-91,693,-599,469,1363,1048,1118,918,694
633,-297,-932,-163,783,-611,511,1633,1306,1418,1176,892
759,-249,-1010,-253,885,-629,535,1897,1576,1754,1470,1120
903,-177,-1082,-361,993,-629,511,2107,1816,2102,1788,1378
1041,-75,-1118,-481,1077,-593,445,2227,1996,2437,2106,1642
1185,49,-1136,-613,1161,-539,319,2233,2098,2761,2423,1912
1317,193,-1124,-751,1221,-461,169,2167,2170,3055,2735,2188
1443,337,-1106,-889,1275,-383,-5,2023,2182,3301,3005,2439
1533,445,-1088,-985,1311,-317,-165,1825,2110,3427,3185,2625
1587,511,-1076,-1045,1335,-281,-321,1555,1930,3421,3251,2733
1599,541,-1058,-1069,1329,-257,-471,1201,1630,3229,3161,2739
1521,523,-998,-1015,1263,-233,-597,727,1174,2773,2849,2577
1323,445,-878,-883,1101,-215,-657,187,598,2072,2316,2230
1011,313,-698,-661,855,-191,-627,-297,58,1310,1674,1750
693,139,-554,-409,627,-203,-519,-627,-336,662,1056,1222
423,-15,-440,-205,429,-227,-393,-789,-570,188,558,766
243,-135,-380,-55,309,-257,-279,-825,-678,-86,222,442
105,-225,-332,63,219,-275,-189,-777,-708,-248,6,208
4,-297,-302,147,153,-299,-117,-711,-708,-350,-142,22
-49,-357,-308,201,129,-335,-69,-645,-696,-416,-250,-96
-79,-393,-314,237,117,-353,-41,-579,-678,-440,-304,-174
-85,-405,-320,243,117,-365,-17,-525,-642,-440,-322,-216
-73,-399,-326,231,123,-365,1,-465,-594,-416,-322,-228
-61,-381,-320,219,129,-353,7,-405,-540,-380,-310,-222
-55,-351,-296,201,117,-323,13,-351,-486,-356,-292,-210
-37,-315,-278,171,117,-299,19,-297,-438,-332,-274,-198
-31,-273,-242,153,105,-257,31,-243,-390,-308,-256,-186
-25,-231,-206,123,87,-221,43,-201,-354,-290,-238,-168
-25,-195,-170,105,69,-185,49,-171,-324,-278,-226,-156
-31,-153,-122,93,45,-137,49,-153,-294,-260,-208,-138
-37,-117,-80,75,21,-101,37,-141,-264,-242,-184,-132
-49,-93,-44,69,-3,-71,37,-129,-234,-218,-172,-126
-55,-75,-20,63,-19,-47,37,-123,-210,-200,-160,-126
-61,-69,-8,63,-25,-41,31,-123,-198,-188,-154,-126
-67,-57,10,63,-37,-23,25,-123,-186,-188,-154,-126
-73,-51,21,57,-49,-17,19,-129,-186,-194,-160,-138
-73,-45,26,57,-49,-11,13,-135,-192,-200,-172,-144
-85,-45,38,63,-61,-5,7,-147,-192,-212,-178,-150
-85,-39,44,57,-67,1,7,-159,-198,-218,-190,-156
-85,-33,50,57,-67,7,7,-159,-198,-224,-196,-162
-97,-33,62,63,-79,13,7,-153,-192,-218,-196,-162
-109,-33,74,69,-91,19,7,-153,-192,-218,-196,-162
-109,-27,80,63,-97,24,7,-153,-192,-218,-196,-162
-109,-27,80,63,-97,24,7,-147,-192,-218,-196,-162
-109,-27,80,63,-97,24,1,-153,-186,-218,-202,-162
-103,-33,68,69,-85,19,1,-147,-186,-218,-202,-168
-103,-33,68,69,-85,19,1,-147,-186,-212,-202,-168
-103,-39,62,69,-85,13,1,-153,-186,-218,-202,-168
-103,-39,62,69,-85,13,1,-147,-186,-218,-202,-174
-109,-39,68,69,-91,13,1,-147,-186,-212,-202,-174
-109,-39,68,69,-91,13,1,-141,-180,-212,-202,-174
-115,-33,80,75,-97,24,1,-141,-180,-212,-202,-180
-115,-33,80,75,-97,24,1,-135,-174,-206,-202,-180
-103,-27,74,63,-91,24,-5,-135,-174,-206,-202,-180
-97,-21,74,57,-85,24,-5,-135,-168,-206,-202,-174
-97,-15,80,51,-91,29,-5,-129,-162,-206,-196,-168
-97,-9,86,51,-91,35,1,-123,-162,-200,-190,-168
-91,3,92,45,-91,47,1,-117,-156,-194,-190,-162
-91,3,92,45,-91,47,1,-111,-156,-194,-190,-168
-91,-3,86,45,-91,41,7,-105,-150,-200,-196,-174
-91,-3,86,45,-91,41,7,-105,-150,-194,-196,-174
-91,-3,86,45,-91,41,1,-105,-150,-200,-202,-174
-97,3,98,45,-97,47,7,-99,-144,-194,-202,-168
-103,3,104,51,-103,53,7,-93,-138,-188,-196,-162
-109,3,110,51,-109,53,1,-93,-132,-188,-202,-168
-109,3,110,51,-109,53,7,-93,-126,-182,-196,-168
-109,3,110,51,-109,53,7,-93,-126,-176,-196,-168
-109,-3,104,51,-109,47,13,-93,-120,-170,-196,-162
-109,-3,104,51,-109,47,19,-87,-108,-170,-184,-162
-109,-3,104,51,-109,47,19,-81,-102,-170,-178,-162
-103,-3,98,51,-103,47,13,-81,-102,-164,-178,-156
-97,3,98,45,-97,47,13,-81,-102,-164,-172,-156
-97,3,98,45,-97,47,13,-81,-102,-170,-172,-150
-97,3,98,45,-97,47,13,-75,-102,-164,-166,-150
-103,3,104,51,-103,53,13,-75,-102,-164,-166,-150
-103,3,104,51,-103,53,19,-69,-96,-158,-166,-150
-103,15,116,45,-109,65,19,-69,-96,-152,-166,-150
-97,15,110,39,-103,59,19,-69,-96,-152,-166,-150
-97,21,116,33,-109,65,19,-69,-90,-146,-166,-150
-109,21,128,39,-121,71,19,-63,-84,-140,-166,-144
-109,21,128,39,-121,71,13,-63,-84,-140,-166,-144
-109,21,128,39,-121,71,13,-63,-78,-146,-160,-144
-115,21,134,45,-127,77,19,-51,-78,-146,-154,-150
-115,26,140,45,-127,83,19,-45,-72,-146,-148,-150
-115,26,140,45,-127,83,25,-39,-72,-146,-148,-156
-115,31,146,45,-127,89,31,-27,-66,-146,-154,-162
-121,37,158,39,-139,95,31,-15,-60,-140,-148,-168
-121,43,164,39,-139,101,31,-15,-54,-134,-148,-168
-115,49,164,33,-139,107,37,-15,-48,-140,-148,-174
-115,49,164,33,-139,107,37,-9,-42,-134,-148,-174
-115,55,170,33,-139,113,37,-4,-36,-128,-148,-168
-121,61,182,27,-151,119,43,1,-30,-122,-142,-162
-127,61,188,33,-157,125,49,19,-24,-122,-142,-162
-121,61,182,27,-151,119,49,31,-19,-116,-142,-156
-121,61,182,27,-151,119,49,43,-14,-116,-136,-156
-121,67,188,27,-151,125,49,49,-8,-116,-136,-156
-121,79,200,21,-157,137,55,61,-2,-104,-136,-156
-127,85,212,21,-169,149,61,67,4,-104,-136,-156
-133,91,224,21,-175,155,67,73,10,-98,-136,-162
-133,103,236,15,-181,167,67,85,16,-92,-136,-168
-139,109,248,15,-193,179,73,103,28,-86,-130,-168
-151,109,260,21,-205,185,85,115,34,-80,-124,-168
-145,115,260,15,-199,185,91,133,40,-74,-118,-174
-145,115,260,15,-199,185,97,139,52,-62,-118,-174
-145,121,266,9,-205,191,103,151,64,-56,-118,-174
-151,127,278,15,-211,203,109,163,70,-44,-112,-174
-163,139,302,15,-229,221,121,175,88,-32,-112,-168
-151,145,296,3,-223,221,127,187,94,-32,-112,-174
-151,145,296,3,-223,221,133,193,100,-26,-118,-180
-157,151,308,3,-229,227,145,211,118,-20,-118,-186
-175,157,332,9,-253,245,151,229,136,-9,-112,-186
-187,163,350,15,-265,257,163,247,148,2,-112,-186
-193,169,362,9,-277,263,175,265,160,8,-112,-186
-199,169,368,15,-283,269,181,283,172,14,-106,-186
-199,175,374,15,-283,275,193,295,184,26,-106,-192
-199,181,380,9,-289,281,199,313,202,32,-106,-192
-205,187,392,9,-295,287,211,331,220,44,-106,-192
-205,187,392,9,-295,287,217,349,232,56,-106,-192
-211,193,404,9,-307,299,229,373,250,62,-106,-198
-211,187,398,15,-301,293,241,391,268,74,-112,-198
-211,187,398,15,-301,293,247,409,280,86,-106,-198
-217,187,404,15,-307,293,265,427,298,98,-100,-198
-223,187,410,21,-313,299,277,445,316,110,-94,-192
-223,193,416,15,-319,305,295,457,328,122,-88,-192
-217,187,404,15,-307,293,295,469,340,134,-88,-192
-217,187,404,15,-307,293,301,487,352,146,-82,-198
-217,187,404,15,-307,293,313,511,376,164,-70,-198
-229,187,416,21,-319,299,325,529,400,188,-58,-192
-241,193,434,21,-337,311,337,547,418,206,-52,-192
-235,193,428,21,-331,311,343,559,436,224,-46,-186
-235,187,422,27,-325,305,361,577,448,242,-40,-180
-229,187,416,21,-319,299,367,589,454,248,-40,-180
-223,181,404,21,-313,293,373,601,466,260,-40,-180
-217,181,398,15,-307,287,379,619,472,272,-34,-180
-211,175,386,21,-295,281,379,631,484,278,-29,-174
-211,163,374,27,-289,269,385,637,490,284,-24,-174
-211,163,374,27,-289,269,391,643,502,290,-12,-168
-205,157,362,21,-283,257,391,643,508,302,-6,-162
-199,157,356,21,-277,257,391,643,514,308,0,-156
-193,157,350,15,-271,251,391,643,520,320,0,-150
-187,151,338,21,-259,245,385,637,520,326,12,-138
-181,151,332,15,-253,239,379,625,514,326,18,-132
-169,145,314,9,-241,227,367,613,508,332,18,-120
-163,145,308,9,-235,227,355,595,496,332,24,-114
-157,139,296,9,-223,215,337,583,484,320,30,-102
-145,139,284,3,-211,209,325,553,466,314,36,-90
-133,133,266,-3,-199,197,313,517,448,302,42,-72
-127,127,254,3,-187,191,295,481,430,290,48,-60
-115,121,236,-3,-175,179,277,445,400,272,42,-54
-103,109,212,-3,-157,161,259,409,370,254,42,-48
-91,103,194,-3,-139,149,235,373,346,242,42,-42
-79,103,182,-9,-127,143,217,337,316,224,36,-36
-67,97,164,-14,-115,131,193,313,292,212,36,-30
-55,91,146,-14,-97,119,175,283,274,200,36,-25
-49,79,128,-14,-85,101,151,247,250,176,30,-20
-43,73,116,-14,-79,95,139,211,226,158,30,-20
-43,67,110,-9,-73,89,121,175,202,140,24,-14
-37,67,104,-14,-67,83,97,139,178,122,12,-8
-25,61,86,-19,-55,71,85,103,154,98,6,-8
-13,61,74,-25,-43,65,67,73,130,92,6,-2
-7,61,68,-25,-37,65,49,43,106,86,12,4
-1,55,56,-25,-25,53,31,25,88,74,12,10
-1,49,50,-25,-25,47,19,13,64,56,12,10
9,43,32,-19,-8,41,7,1,40,44,6,10
15,43,26,-25,-3,35,-5,-21,22,20,0,10
27,37,10,-31,9,24,-5,-33,10,2,-6,4
15,31,16,-19,3,24,-11,-45,4,-9,-12,10
15,31,16,-19,3,24,-17,-63,-8,-14,-18,10
15,26,10,-19,3,19,-23,-75,-19,-26,-29,4
15,26,10,-19,3,19,-29,-87,-24,-32,-29,4
21,21,-2,-19,9,13,-35,-99,-30,-32,-34,4
21,21,-2,-19,9,13,-35,-105,-36,-32,-34,-2
27,21,-8,-25,15,7,-41,-111,-42,-32,-34,-2
39,26,-14,-31,27,7,-47,-111,-42,-38,-34,-2
39,26,-14,-31,27,7,-52,-117,-48,-44,-34,-2
39,21,-20,-31,27,1,-52,-129,-54,-56,-40,-2
33,21,-14,-25,21,7,-52,-135,-60,-56,-46,-2
33,21,-14,-25,21,7,-57,-147,-60,-62,-46,4
33,15,-20,-19,27,1,-52,-147,-60,-68,-52,-2
39,15,-26,-25,33,-5,-57,-147,-66,-74,-52,-2
39,15,-26,-25,33,-5,-57,-147,-72,-74,-52,-2
45,15,-32,-25,39,-5,-57,-147,-72,-74,-52,-8
45,21,-26,-31,33,1,-52,-141,-72,-74,-52,-8
45,21,-26,-31,33,1,-57,-141,-72,-80,-52,-8
45,21,-26,-31,33,1,-57,-147,-78,-80,-52,-14
33,15,-20,-19,27,1,-52,-147,-84,-86,-52,-20
27,15,-14,-19,21,1,-52,-147,-84,-86,-52,-20
27,15,-14,-19,21,1,-52,-147,-84,-86,-52,-20
33,21,-14,-25,21,7,-52,-147,-84,-86,-52,-20
27,21,-8,-25,15,7,-52,-135,-78,-80,-52,-20
27,21,-8,-25,15,7,-52,-135,-78,-80,-52,-20
27,21,-8,-25,15,7,-52,-135,-84,-80,-46,-14
33,21,-14,-25,21,7,-52,-135,-84,-86,-46,-14
39,26,-14,-31,27,7,-57,-135,-84,-92,-40,-14
39,26,-14,-31,27,7,-57,-129,-72,-86,-34,-8
21,26,4,-19,9,19,-52,-123,-66,-80,-29,-2
21,26,4,-19,9,19,-52,-123,-60,-74,-29,4
33,26,-8,-25,21,13,-52,-117,-66,-74,-40,4
33,26,-8,-25,21,13,-57,-117,-66,-74,-46,4
27,26,-2,-25,15,13,-52,-117,-60,-74,-46,4
27,21,-8,-25,15,7,-57,-117,-60,-74,-46,10
27,26,-2,-25,15,13,-57,-117,-66,-74,-40,4
21,26,4,-19,9,19,-52,-117,-66,-80,-40,4
15,26,10,-19,3,19,-52,-117,-66,-80,-40,-2
15,31,16,-19,3,24,-52,-123,-66,-80,-40,-2
15,37,21,-25,-3,29,-47,-123,-66,-86,-46,-8
21,37,16,-25,3,29,-47,-123,-66,-80,-52,-8
27,37,10,-31,9,24,-47,-129,-66,-80,-58,-14
33,31,-2,-25,21,19,-47,-129,-66,-86,-64,-20
33,31,-2,-25,21,19,-47,-129,-66,-86,-64,-14
33,31,-2,-25,21,19,-47,-129,-66,-86,-64,-14
33,26,-8,-25,21,13,-52,-129,-66,-92,-64,-8
33,26,-8,-25,21,13,-52,-123,-60,-92,-64,-8
33,26,-8,-25,21,13,-52,-123,-60,-92,-58,-8
27,21,-8,-25,15,7,-47,-123,-60,-92,-58,-2
27,15,-14,-19,21,1,-41,-129,-66,-98,-58,-8
27,21,-8,-25,15,7,-41,-129,-66,-92,-58,-8
21,26,4,-19,9,19,-41,-129,-66,-92,-58,-8
21,26,4,-19,9,19,-47,-135,-72,-92,-58,-8
21,26,4,-19,9,19,-47,-129,-78,-98,-58,-8
15,26,10,-19,3,19,-47,-129,-78,-92,-58,-2
15,26,10,-19,3,19,-47,-129,-78,-92,-58,-8
15,26,10,-19,3,19,-47,-129,-78,-92,-58,-8
15,26,10,-19,3,19,-41,-129,-78,-98,-58,-14
15,26,10,-19,3,19,-41,-129,-78,-98,-58,-20
15,31,16,-19,3,24,-41,-135,-72,-98,-64,-25
15,31,16,-19,3,24,-35,-141,-72,-98,-58,-25
15,31,16,-19,3,24,-41,-141,-72,-98,-58,-25
21,31,10,-19,9,24,-41,-141,-72,-104,-64,-25
15,31,16,-19,3,24,-41,-141,-72,-104,-64,-25
15,31,16,-19,3,24,-47,-135,-72,-98,-58,-20
15,26,10,-19,3,19,-47,-135,-72,-98,-64,-20
15,26,10,-19,3,19,-47,-135,-72,-98,-64,-25
27,26,-2,-25,15,13,-52,-141,-78,-98,-70,-25
27,26,-2,-25,15,13,-52,-147,-78,-104,-70,-30
21,26,4,-19,9,19,-47,-147,-84,-104,-64,-30
15,31,16,-19,3,24,-47,-147,-84,-98,-64,-30
15,26,10,-19,3,19,-47,-147,-84,-98,-64,-30
21,26,4,-19,9,19,-47,-153,-84,-104,-70,-30
21,21,-2,-19,9,13,-47,-153,-90,-110,-76,-25
21,21,-2,-19,9,13,-47,-153,-90,-110,-76,-25
21,21,-2,-19,9,13,-52,-153,-90,-110,-70,-25
21,21,-2,-19,9,13,-52,-159,-96,-122,-70,-25
21,26,4,-19,9,19,-52,-165,-96,-128,-70,-25
15,26,10,-19,3,19,-52,-165,-102,-134,-64,-25
21,31,10,-19,9,24,-52,-171,-102,-140,-70,-30
21,26,4,-19,9,19,-52,-171,-108,-140,-70,-36
27,26,-2,-25,15,13,-57,-165,-108,-140,-76,-42
21,26,4,-19,9,19,-52,-171,-108,-140,-82,-48
15,26,10,-19,3,19,-52,-171,-114,-134,-88,-42
21,26,4,-19,9,19,-57,-177,-114,-134,-88,-42
15,26,10,-19,3,19,-57,-177,-120,-140,-94,-42
9,21,10,-14,-3,19,-57,-177,-120,-140,-94,-36
4,21,16,-14,-8,19,-57,-177,-120,-140,-88,-36
9,21,10,-14,-3,19,-63,-183,-120,-140,-88,-36
15,21,4,-19,3,13,-63,-183,-126,-140,-88,-36
21,15,-8,-14,15,7,-63,-183,-120,-134,-82,-36
15,21,4,-19,3,13,-63,-183,-120,-128,-82,-30
21,21,-2,-19,9,13,-57,-189,-120,-128,-82,-36
21,21,-2,-19,9,13,-57,-183,-126,-128,-88,-42
27,26,-2,-25,15,13,-57,-183,-126,-134,-88,-42
33,26,-8,-25,21,13,-63,-189,-132,-140,-94,-42
21,21,-2,-19,9,13,-63,-189,-132,-146,-94,-42
15,26,10,-19,3,19,-63,-189,-132,-146,-94,-42
15,26,10,-19,3,19,-63,-195,-132,-146,-94,-42
21,26,4,-19,9,19,-69,-195,-132,-152,-94,-42
21,21,-2,-19,9,13,-69,-195,-138,-146,-94,-42
27,21,-8,-25,15,7,-75,-201,-138,-146,-100,-48
27,15,-14,-19,21,1,-75,-201,-138,-146,-100,-48
21,9,-14,-14,15,1,-75,-201,-144,-140,-100,-48
15,3,-14,-9,15,-5,-81,-201,-144,-140,-100,-48
15,9,-8,-14,9,1,-87,-207,-144,-146,-106,-48
9,9,-2,-9,3,7,-93,-213,-150,-152,-106,-54
4,9,4,-9,-3,7,-93,-213,-150,-158,-106,-54
4,3,-2,-3,3,1,-93,-213,-150,-158,-106,-54
-1,3,4,-3,-3,1,-93,-213,-150,-158,-106,-60
-1,-3,-2,-3,-3,-5,-87,-213,-150,-158,-100,-60
-7,-9,-2,9,-3,-5,-87,-219,-150,-158,-100,-66
-7,-15,-8,9,-3,-11,-93,-219,-156,-164,-100,-72
-7,-21,-14,15,3,-17,-93,-219,-150,-164,-106,-72
-7,-21,-14,15,3,-17,-93,-225,-156,-164,-106,-72
-7,-21,-14,15,3,-17,-99,-225,-162,-170,-112,-72
-19,-21,-2,21,-8,-11,-99,-225,-162,-170,-112,-72
-13,-27,-14,15,-3,-23,-105,-231,-162,-170,-118,-78
-13,-27,-14,15,-3,-23,-105,-231,-168,-176,-118,-78
-25,-33,-8,27,-8,-23,-99,-237,-168,-176,-118,-72
-25,-33,-8,27,-8,-23,-93,-237,-168,-176,-118,-72
-31,-33,-2,33,-13,-17,-93,-237,-168,-176,-118,-72
-31,-39,-8,33,-13,-23,-93,-243,-168,-176,-124,-78
-37,-39,-2,33,-19,-23,-93,-243,-168,-176,-124,-78
-37,-39,-2,33,-19,-23,-93,-243,-168,-182,-124,-72
-37,-39,-2,33,-19,-23,-99,-249,-168,-182,-124,-78
-43,-45,-2,45,-19,-23,-105,-249,-174,-188,-130,-78
-43,-45,-2,45,-19,-23,-105,-249,-174,-188,-124,-78
-43,-51,-8,45,-19,-29,-99,-249,-174,-188,-124,-78
-43,-51,-8,45,-19,-29,-105,-249,-180,-194,-130,-90
-43,-45,-2,45,-19,-23,-99,-243,-186,-194,-130,-90
-43,-51,-8,45,-19,-29,-99,-243,-186,-194,-130,-90
-43,-51,-8,45,-19,-29,-99,-237,-180,-194,-130,-90
-49,-51,-2,45,-25,-29,-99,-237,-180,-194,-130,-90
-49,-51,-2,45,-25,-29,-99,-237,-180,-194,-130,-90
-49,-57,-8,51,-19,-35,-99,-237,-186,-194,-130,-90
-61,-69,-8,63,-25,-41,-105,-237,-186,-194,-130,-90
-61,-75,-14,63,-25,-47,-105,-237,-186,-200,-130,-96
-67,-81,-14,75,-25,-47,-105,-243,-192,-200,-130,-96
-67,-81,-14,75,-25,-47,-105,-243,-192,-200,-130,-96
-67,-81,-14,75,-25,-47,-99,-243,-192,-194,-130,-90
-67,-81,-14,75,-25,-47,-99,-243,-192,-188,-130,-90
-67,-81,-14,75,-25,-47,-99,-243,-198,-188,-136,-90
-67,-81,-14,75,-25,-47,-99,-243,-198,-188,-136,-90
-67,-81,-14,75,-25,-47,-105,-243,-198,-188,-136,-90
-67,-87,-20,75,-25,-53,-105,-249,-198,-188,-142,-90
-67,-87,-20,75,-25,-53,-105,-243,-192,-194,-136,-90
-61,-87,-26,69,-19,-59,-105,-243,-192,-194,-136,-90
-55,-87,-32,69,-13,-59,-105,-249,-192,-194,-130,-90
-55,-87,-32,69,-13,-59,-105,-249,-186,-194,-130,-90
-61,-87,-26,69,-19,-59,-99,-243,-180,-188,-124,-84
-61,-87,-26,69,-19,-59,-111,-249,-186,-182,-124,-84
-55,-93,-38,75,-8,-65,-111,-249,-180,-182,-124,-84
-55,-87,-32,69,-13,-59,-111,-255,-186,-176,-130,-90
-55,-87,-32,69,-13,-59,-111,-255,-186,-182,-136,-90
-61,-87,-26,69,-19,-59,-117,-255,-192,-182,-142,-96
-61,-87,-26,69,-19,-59,-111,-249,-192,-182,-148,-96
-67,-93,-26,81,-19,-59,-111,-249,-186,-182,-142,-96
-67,-93,-26,81,-19,-59,-117,-255,-192,-182,-142,-102
-67,-87,-20,75,-25,-53,-111,-249,-186,-188,-148,-102
-67,-81,-14,75,-25,-47,-111,-249,-186,-182,-142,-96
-61,-75,-14,63,-25,-47,-111,-249,-192,-182,-148,-96
-55,-69,-14,63,-19,-41,-111,-249,-192,-182,-148,-96
-55,-69,-14,63,-19,-41,-111,-243,-186,-176,-154,-90
-55,-69,-14,63,-19,-41,-111,-249,-186,-176,-154,-90
-61,-69,-8,63,-25,-41,-105,-255,-180,-170,-148,-90
-73,-69,4,69,-37,-35,-105,-255,-180,-170,-142,-90
-73,-63,10,63,-43,-29,-105,-243,-174,-164,-130,-84
-73,-63,10,63,-43,-29,-105,-243,-174,-164,-130,-84
-67,-69,-2,69,-31,-35,-99,-231,-180,-164,-130,-84
-55,-63,-8,57,-25,-35,-99,-231,-180,-164,-130,-78
-49,-57,-8,51,-19,-35,-93,-225,-174,-158,-124,-66
-49,-51,-2,45,-25,-29,-93,-225,-168,-152,-124,-66
-43,-45,-2,45,-19,-23,-93,-225,-162,-152,-124,-60
-43,-27,16,33,-31,-5,-87,-219,-156,-140,-118,-54
-49,-21,26,33,-37,1,-87,-213,-150,-140,-112,-48
-49,-15,32,27,-43,7,-81,-207,-144,-128,-106,-48
-37,-9,26,21,-31,7,-81,-201,-144,-128,-106,-48
-31,-15,16,21,-25,1,-81,-201,-138,-122,-100,-48
-25,-15,10,15,-19,-5,-75,-195,-138,-122,-100,-54
-25,-15,10,15,-19,-5,-69,-189,-132,-122,-88,-48
-31,-15,16,21,-25,1,-69,-183,-126,-116,-82,-36
-31,-15,16,21,-25,1,-57,-177,-120,-116,-76,-30
-31,-9,21,21,-25,7,-57,-171,-114,-110,-70,-25
-31,-9,21,21,-25,7,-57,-171,-108,-110,-70,-20
-25,-15,10,15,-19,-5,-63,-171,-108,-104,-70,-20
-19,-9,10,15,-13,1,-69,-171,-108,-104,-64,-20
-19,-9,10,15,-13,1,-81,-171,-108,-98,-64,-20
-7,-3,4,3,-8,1,-99,-171,-108,-98,-58,-14
-1,3,4,-3,-3,1,-111,-171,-108,-98,-58,-8
4,3,-2,-3,3,1,-117,-177,-108,-98,-58,-2
9,3,-8,-3,9,1,-129,-177,-114,-98,-52,-2
15,3,-14,-9,15,-5,-141,-183,-120,-98,-52,4
4,-3,-8,-3,3,-5,-147,-189,-120,-98,-46,4
9,-3,-14,-3,9,-5,-153,-201,-126,-104,-52,-2
4,-15,-20,3,9,-17,-159,-213,-138,-116,-58,-8
4,-21,-26,9,15,-23,-165,-225,-150,-134,-70,-20
-1,-27,-26,9,9,-29,-165,-237,-156,-140,-82,-20
-7,-27,-20,15,3,-23,-153,-237,-162,-140,-82,-20
-7,-21,-14,15,3,-17,-141,-231,-162,-140,-88,-25
-7,-27,-20,15,3,-23,-135,-237,-168,-146,-88,-30
-7,-33,-26,21,9,-29,-135,-237,-168,-146,-88,-36
-7,-33,-26,21,9,-29,-135,-243,-174,-152,-94,-42
-7,-33,-26,21,9,-29,-135,-249,-174,-158,-100,-48
-7,-33,-26,21,9,-29,-141,-255,-174,-164,-106,-48
-13,-39,-26,21,3,-35,-147,-261,-180,-170,-112,-48
-19,-45,-26,33,3,-35,-153,-261,-180,-176,-118,-54
-25,-51,-26,33,-3,-41,-165,-261,-192,-188,-124,-54
-31,-63,-32,45,-3,-47,-165,-267,-204,-194,-136,-60
-31,-69,-38,51,3,-53,-165,-273,-216,-206,-136,-66
-37,-75,-38,51,-3,-59,-165,-279,-222,-212,-136,-66
-37,-81,-44,57,3,-65,-171,-291,-228,-218,-142,-66
-37,-87,-50,57,3,-71,-165,-297,-234,-224,-148,-66
-49,-87,-38,63,-8,-65,-159,-297,-234,-224,-148,-66
-61,-87,-26,69,-19,-59,-159,-297,-234,-224,-148,-66
-61,-93,-32,75,-13,-65,-153,-297,-234,-224,-148,-66
-67,-99,-32,81,-19,-65,-147,-303,-234,-224,-154,-84
-73,-105,-32,87,-19,-71,-147,-297,-234,-224,-154,-90
-79,-105,-26,93,-25,-65,-141,-303,-234,-224,-160,-96
-85,-105,-20,93,-31,-65,-135,-297,-234,-230,-160,-102
-85,-105,-20,93,-31,-65,-135,-297,-234,-230,-166,-102
-85,-105,-20,93,-31,-65,-129,-291,-234,-230,-166,-102
-85,-105,-20,93,-31,-65,-129,-297,-234,-224,-166,-102
-85,-105,-20,93,-31,-65,-129,-297,-228,-224,-160,-108
-85,-111,-26,93,-31,-71,-135,-297,-228,-224,-160,-108
-85,-117,-32,99,-25,-77,-129,-291,-228,-224,-154,-108
-85,-111,-26,93,-31,-71,-123,-279,-216,-218,-142,-102
-79,-111,-32,93,-25,-71,-117,-267,-204,-212,-136,-96
-73,-111,-38,87,-19,-77,-105,-249,-198,-206,-130,-90
-73,-117,-44,93,-13,-83,-93,-237,-186,-194,-124,-84
-73,-129,-56,99,-8,-95,-75,-213,-168,-182,-112,-72
-61,-129,-68,93,3,-101,-57,-189,-144,-158,-100,-66
-55,-135,-80,93,9,-107,-41,-153,-114,-134,-88,-48
-55,-141,-86,99,15,-113,-11,-117,-78,-104,-70,-30
-43,-147,-104,93,27,-125,7,-75,-48,-74,-46,-25
-31,-159,-128,93,45,-143,31,-39,-19,-44,-29,-8
-19,-171,-152,93,63,-161,49,1,10,-20,-12,10
-1,-177,-176,87,87,-179,67,37,40,2,6,28
21,-189,-212,87,117,-197,85,79,70,26,30,52
39,-201,-242,81,141,-221,109,115,100,56,54,64
51,-213,-266,81,159,-239,127,157,136,92,78,88
63,-225,-290,81,177,-257,145,199,166,134,114,112
81,-249,-332,87,207,-287,157,229,190,170,138,124
99,-267,-368,81,231,-317,169,265,208,200,156,142
129,-279,-410,75,267,-341,181,307,238,236,174,160
153,-297,-452,75,303,-371,199,355,262,260,192,172
171,-315,-488,69,327,-401,217,403,292,278,198,184
183,-333,-518,75,351,-425,247,469,328,302,216,190
195,-357,-554,81,375,-455,289,541,376,338,246,208
219,-381,-602,81,411,-491,325,619,430,380,276,214
261,-405,-668,75,465,-533,343,697,478,446,324,244
315,-417,-734,51,525,-575,367,799,568,554,414,310
381,-411,-794,15,585,-599,397,955,706,722,546,406
465,-399,-866,-31,663,-629,439,1165,886,944,732,550
567,-369,-938,-97,753,-653,475,1411,1108,1202,960,730
687,-333,-1022,-175,855,-677,499,1675,1348,1502,1224,946
825,-285,-1112,-265,969,-695,487,1903,1570,1814,1512,1180
969,-207,-1178,-379,1071,-689,439,2059,1756,2126,1806,1432
1119,-105,-1226,-505,1173,-665,343,2113,1882,2425,2106,1690
1269,26,-1244,-643,1257,-605,199,2053,1948,2707,2411,1954
1407,175,-1232,-787,1323,-527,37,1927,1984,2977,2705,2230
1533,295,-1238,-907,1389,-467,-135,1741,1960,3181,2939,2457
1623,373,-1250,-997,1437,-437,-303,1501,1840,3253,3065,2607
1671,415,-1256,-1039,1467,-419,-459,1201,1612,3175,3065,2673
1659,421,-1238,-1039,1449,-407,-609,817,1276,2905,2903,2625
1545,373,-1172,-955,1359,-395,-723,319,814,2390,2525,2409
1287,277,-1010,-781,1149,-365,-759,-213,274,1670,1956,2020
939,133,-806,-535,873,-335,-687,-651,-168,968,1344,1528
609,-21,-632,-289,621,-323,-549,-897,-468,404,780,1018
351,-153,-506,-97,429,-329,-405,-987,-630,26,366,604
171,-255,-428,39,297,-341,-279,-963,-696,-188,96,322
39,-327,-368,141,201,-347,-189,-885,-708,-308,-82,106
-43,-393,-350,219,153,-371,-123,-795,-702,-386,-214,-54
-91,-435,-344,261,123,-389,-81,-717,-690,-434,-298,-162
-115,-459,-344,285,111,-401,-57,-645,-660,-446,-340,-216
-127,-465,-338,297,105,-401,-41,-579,-618,-440,-352,-246
-121,-453,-332,285,105,-395,-29,-519,-558,-416,-346,-252
-115,-417,-302,267,93,-359,-23,-453,-492,-386,-328,-240
-103,-381,-278,243,87,-329,-11,-387,-426,-362,-304,-228
-97,-333,-236,213,69,-287,7,-321,-372,-338,-292,-216
-85,-285,-200,183,57,-245,19,-267,-324,-314,-274,-204
-79,-249,-170,165,45,-209,31,-219,-294,-290,-256,-186
-73,-213,-140,141,33,-179,31,-189,-270,-278,-238,-174
-73,-183,-110,123,15,-149,31,-171,-246,-254,-226,-162
-85,-159,-74,117,-8,-119,31,-165,-222,-230,-202,-156
-103,-147,-44,123,-31,-95,31,-165,-198,-212,-190,-144
-121,-129,-8,123,-55,-71,25,-159,-174,-194,-178,-138
-133,-111,21,117,-79,-47,13,-165,-156,-188,-172,-138
-139,-105,32,123,-85,-35,7,-171,-150,-188,-172,-144
-145,-93,50,117,-97,-23,1,-177,-150,-194,-178,-144
-151,-87,62,117,-109,-11,-5,-177,-150,-200,-178,-144
-151,-87,62,117,-109,-11,-11,-183,-150,-206,-178,-144
-157,-87,68,117,-115,-11,-11,-183,-156,-212,-184,-150
-157,-87,68,117,-115,-11,-5,-177,-162,-218,-190,-156
-157,-87,68,117,-115,-11,-11,-183,-168,-218,-196,-156
-157,-87,68,117,-115,-11,-11,-177,-174,-218,-208,-162
-157,-81,74,117,-115,-5,-5,-177,-168,-218,-208,-162
-157,-81,74,117,-115,-5,-11,-177,-168,-218,-208,-162
-157,-81,74,117,-115,-5,-11,-177,-168,-218,-208,-162
-157,-81,74,117,-115,-5,-11,-177,-162,-218,-208,-168
-157,-81,74,117,-115,-5,-11,-165,-162,-218,-208,-168
-169,-81,86,123,-127,1,-11,-159,-162,-218,-202,-168
-175,-81,92,129,-133,7,-5,-153,-156,-218,-196,-168
-181,-75,104,123,-145,13,1,-141,-150,-212,-196,-168
-175,-75,98,123,-139,13,-5,-141,-144,-212,-196,-168
-169,-75,92,117,-133,7,-5,-141,-144,-212,-202,-174
-163,-75,86,117,-127,7,-5,-141,-144,-206,-202,-174
-163,-75,86,117,-127,7,-5,-141,-144,-206,-208,-180
-163,-75,86,117,-127,7,-11,-141,-144,-206,-208,-180
-157,-69,86,111,-121,7,-11,-135,-144,-206,-202,-186
-169,-63,104,111,-139,19,-5,-123,-138,-200,-196,-186
-163,-63,98,111,-133,19,1,-123,-138,-200,-196,-186
-163,-63,98,111,-133,19,1,-123,-138,-200,-202,-186
-157,-57,98,105,-127,19,1,-117,-132,-200,-196,-186
-151,-57,92,105,-121,19,7,-117,-126,-200,-196,-186
-139,-51,86,93,-115,19,7,-123,-126,-200,-196,-186
-145,-51,92,93,-121,19,7,-111,-120,-188,-202,-186
-163,-63,98,111,-133,19,13,-105,-114,-182,-196,-180
-175,-63,110,117,-145,24,19,-93,-108,-176,-196,-180
-181,-57,122,117,-151,29,13,-87,-102,-170,-196,-174
-175,-51,122,111,-151,35,13,-81,-96,-170,-196,-174
-175,-51,122,111,-151,35,13,-75,-90,-170,-196,-174
-175,-51,122,111,-151,35,13,-69,-84,-164,-196,-174
-175,-51,122,111,-151,35,19,-69,-84,-164,-190,-168
-181,-57,122,117,-151,29,25,-69,-84,-158,-190,-162
-181,-51,128,111,-157,35,25,-69,-78,-158,-190,-162
-181,-51,128,111,-157,35,25,-69,-72,-164,-190,-162
-175,-51,122,111,-151,35,19,-69,-72,-164,-190,-168
-181,-51,128,111,-157,35,19,-63,-78,-164,-190,-168
-175,-51,122,111,-151,35,13,-57,-78,-164,-190,-174
-175,-45,128,111,-151,41,13,-57,-78,-158,-184,-174
-181,-45,134,111,-157,41,13,-51,-72,-152,-184,-174
-187,-39,146,111,-169,53,13,-45,-72,-152,-178,-168
-181,-33,146,105,-163,53,13,-39,-66,-146,-178,-174
-181,-21,158,99,-169,65,19,-33,-60,-146,-172,-168
-181,-21,158,99,-169,65,19,-27,-60,-146,-172,-174
-187,-21,164,105,-175,71,19,-21,-54,-146,-172,-180
-193,-15,176,99,-187,77,25,-15,-48,-140,-172,-180
-193,-9,182,99,-187,83,25,-4,-42,-140,-166,-180
-193,-3,188,93,-193,89,31,1,-36,-140,-160,-180
-193,-3,188,93,-193,89,31,7,-30,-134,-160,-180
-193,-3,188,93,-193,89,31,13,-30,-134,-160,-174
-193,-3,188,93,-193,89,37,19,-30,-134,-160,-174
-193,3,194,93,-193,95,43,25,-30,-128,-160,-180
-193,3,194,93,-193,95,43,31,-24,-128,-154,-174
-193,3,194,93,-193,95,43,43,-19,-128,-154,-174
-193,9,200,87,-199,101,49,55,-19,-128,-154,-180
-193,21,212,81,-205,113,49,61,-14,-128,-154,-180
-199,26,224,87,-211,125,43,73,-8,-122,-148,-180
-205,26,230,87,-217,125,43,79,-8,-122,-154,-186
-211,37,248,87,-229,143,55,91,-2,-116,-154,-186
-211,37,248,87,-229,143,61,97,10,-110,-154,-186
-211,43,254,87,-229,149,67,103,10,-104,-160,-192
-211,49,260,81,-235,155,67,109,16,-98,-160,-192
-211,55,266,81,-235,161,73,115,22,-92,-160,-186
-211,61,272,75,-241,167,73,133,28,-86,-160,-186
-217,67,284,75,-247,173,79,145,40,-74,-154,-186
-217,73,290,69,-253,179,85,163,52,-68,-148,-186
-229,79,308,75,-265,191,91,175,58,-62,-142,-186
-229,79,308,75,-265,191,97,187,70,-56,-142,-186
-229,91,320,69,-271,203,103,199,88,-44,-142,-180
-229,97,326,63,-277,209,109,211,100,-38,-142,-180
-235,103,338,69,-283,221,121,229,112,-26,-142,-180
-241,109,350,63,-295,227,127,241,124,-14,-136,-174
-235,121,356,57,-295,239,133,253,130,-9,-136,-174
-229,121,350,51,-289,233,145,265,142,2,-130,-174
-241,127,368,57,-301,245,157,289,160,14,-118,-168
-253,127,380,63,-313,251,175,319,184,20,-106,-162
-259,133,392,63,-325,263,181,337,196,26,-106,-162
-265,133,398,63,-331,263,193,355,208,32,-106,-174
-271,139,410,69,-337,275,205,373,226,50,-106,-180
-277,139,416,69,-343,275,217,397,232,62,-106,-186
-283,151,434,69,-355,293,229,409,244,74,-106,-192
-283,151,434,69,-355,293,235,427,256,86,-106,-198
-283,151,434,69,-355,293,247,445,268,98,-100,-198
-283,163,446,63,-361,305,253,463,286,110,-94,-204
-283,163,446,63,-361,305,265,475,304,116,-88,-204
-295,169,464,63,-379,317,277,499,322,134,-82,-198
-295,169,464,63,-379,317,295,511,340,146,-76,-198
-295,169,464,63,-379,317,307,535,352,152,-76,-198
-289,169,458,57,-373,311,319,553,364,164,-70,-198
-289,169,458,57,-373,311,325,577,376,182,-64,-192
-295,163,458,69,-373,311,337,601,394,194,-58,-186
-295,157,452,69,-373,305,337,619,406,206,-52,-192
-295,157,452,69,-373,305,343,631,418,218,-40,-186
-295,157,452,69,-373,305,349,643,436,230,-34,-186
-301,157,458,69,-379,305,361,661,442,242,-29,-180
-289,151,440,69,-361,293,367,673,454,248,-29,-180
-295,145,440,75,-367,293,373,679,460,260,-24,-180
-295,145,440,75,-367,293,385,691,472,266,-18,-174
-289,139,428,75,-355,281,385,697,484,284,-6,-168
-283,133,416,75,-349,275,379,703,484,296,0,-168
-271,133,404,69,-337,269,373,703,490,302,6,-162
-259,127,386,69,-319,257,373,703,490,302,6,-150
-247,127,374,63,-307,251,361,697,490,314,12,-138
-241,121,362,57,-301,239,355,685,484,314,24,-126
-235,115,350,63,-289,233,349,673,472,320,30,-120
-229,109,338,57,-283,221,337,655,460,320,36,-108
-223,109,332,57,-277,221,325,625,448,320,48,-102
-211,103,314,57,-259,209,307,595,430,308,48,-96
-199,103,302,51,-247,203,295,565,418,302,48,-84
-187,97,284,45,-235,191,277,535,400,296,48,-78
-169,91,260,39,-211,173,265,499,376,284,48,-72
-157,85,242,33,-199,161,247,469,352,272,54,-60
-145,79,224,33,-181,149,229,433,328,260,60,-54
-139,73,212,33,-175,143,199,391,298,248,54,-54
-127,61,188,33,-157,125,181,355,268,224,48,-54
-121,55,176,33,-145,113,151,313,232,200,42,-48
-115,49,164,33,-139,107,133,277,208,182,42,-36
-109,49,158,27,-133,101,115,241,184,164,36,-36
-97,43,140,27,-115,89,91,205,160,140,30,-30
-79,37,116,21,-97,77,67,175,136,122,18,-30
-67,37,104,15,-85,71,49,145,112,110,6,-25
-55,26,80,15,-67,53,31,121,88,92,0,-25
-49,26,74,9,-61,47,19,97,64,80,0,-20
-43,21,62,9,-55,41,13,73,46,62,-6,-14
-49,21,68,9,-61,41,7,49,28,50,-12,-8
-49,21,68,9,-61,41,-5,31,16,38,-12,-2
-43,21,62,9,-55,41,-17,13,-2,26,-18,-2
-37,15,50,9,-43,29,-23,-4,-14,14,-24,-2
-25,15,38,3,-31,24,-35,-15,-19,2,-24,-2
-13,9,21,-3,-19,13,-47,-33,-30,-4,-24,-2
-7,3,10,3,-8,7,-52,-45,-48,-9,-29,-2
-7,-3,4,3,-8,1,-57,-57,-60,-9,-29,-2
-7,-3,4,3,-8,1,-57,-69,-66,-14,-29,4
-7,-3,4,3,-8,1,-63,-75,-72,-20,-29,4
-1,-9,-8,3,3,-11,-63,-87,-84,-32,-34,-2
-7,-9,-2,9,-3,-5,-63,-93,-84,-38,-40,-2
-7,-15,-8,9,-3,-11,-63,-99,-90,-44,-40,-8
-7,-15,-8,9,-3,-11,-63,-105,-96,-56,-46,-14
-1,-15,-14,3,3,-17,-63,-105,-96,-62,-46,-20
-1,-9,-8,3,3,-11,-69,-105,-96,-62,-52,-20
-13,-9,4,9,-8,-5,-69,-111,-90,-62,-46,-20
-7,-9,-2,9,-3,-5,-69,-111,-96,-68,-46,-20
-7,-9,-2,9,-3,-5,-69,-117,-102,-74,-46,-14
-1,-15,-14,3,3,-17,-75,-117,-108,-80,-46,-14
-1,-9,-8,3,3,-11,-75,-117,-108,-86,-52,-14
-1,-9,-8,3,3,-11,-75,-117,-114,-86,-52,-20
-1,-15,-14,3,3,-17,-75,-123,-114,-92,-52,-20
4,-9,-14,3,9,-11,-75,-123,-120,-98,-52,-20
4,-9,-14,3,9,-11,-75,-123,-114,-92,-40,-14
4,-3,-8,-3,3,-5,-75,-117,-120,-86,-34,-14
4,-3,-8,-3,3,-5,-81,-117,-120,-98,-40,-14
21,-3,-26,-9,21,-11,-87,-123,-132,-104,-46,-20
9,-9,-20,3,15,-11,-75,-117,-126,-92,-34,-14
-7,-9,-2,9,-3,-5,-75,-111,-114,-86,-29,-8
-19,-9,10,15,-13,1,-75,-105,-114,-86,-34,-14
-13,-9,4,9,-8,-5,-75,-105,-114,-86,-34,-20
-7,-9,-2,9,-3,-5,-75,-105,-114,-86,-40,-25
4,-9,-14,3,9,-11,-69,-111,-108,-98,-46,-30
4,-9,-14,3,9,-11,-63,-111,-108,-104,-52,-30
4,-15,-20,3,9,-17,-63,-111,-108,-104,-52,-30
-1,-21,-20,9,9,-23,-57,-111,-108,-104,-52,-25
-1,-21,-20,9,9,-23,-63,-117,-108,-110,-58,-25
-1,-15,-14,3,3,-17,-63,-117,-114,-104,-58,-25
-7,-9,-2,9,-3,-5,-69,-123,-114,-104,-58,-20
-7,-9,-2,9,-3,-5,-75,-117,-114,-104,-58,-20
-7,-15,-8,9,-3,-11,-75,-117,-114,-98,-58,-20
-7,-15,-8,9,-3,-11,-75,-117,-108,-98,-58,-20
-7,-15,-8,9,-3,-11,-75,-123,-108,-98,-64,-25
-1,-15,-14,3,3,-17,-75,-123,-108,-104,-58,-20
-1,-9,-8,3,3,-11,-75,-123,-108,-104,-58,-20
-1,-9,-8,3,3,-11,-75,-129,-102,-104,-58,-20
-1,-15,-14,3,3,-17,-75,-129,-102,-104,-58,-25
-1,-15,-14,3,3,-17,-75,-129,-108,-104,-58,-25
-7,-15,-8,9,-3,-11,-69,-123,-108,-98,-58,-25
-13,-15,-2,9,-8,-11,-69,-117,-108,-98,-58,-20
-19,-15,4,15,-13,-5,-63,-117,-108,-98,-52,-20
-25,-15,10,15,-19,-5,-63,-117,-108,-98,-58,-20
-25,-9,16,15,-19,1,-63,-117,-102,-104,-58,-25
-25,-3,21,9,-25,7,-63,-117,-96,-104,-58,-25
-19,-3,16,9,-19,7,-63,-117,-96,-110,-58,-25
-19,-3,16,9,-19,7,-63,-123,-102,-110,-64,-30
-13,3,16,3,-13,7,-57,-129,-102,-110,-64,-30
-13,3,16,3,-13,7,-57,-129,-96,-110,-64,-30
-13,3,16,3,-13,7,-63,-129,-102,-104,-64,-30
-13,3,16,3,-13,7,-57,-123,-96,-104,-64,-30
-19,3,21,9,-19,13,-57,-123,-90,-104,-64,-30
-19,-3,16,9,-19,7,-57,-117,-90,-104,-64,-30
-19,-9,10,15,-13,1,-57,-123,-90,-110,-64,-30
-19,-3,16,9,-19,7,-57,-129,-96,-110,-70,-30
-19,-3,16,9,-19,7,-57,-135,-96,-110,-70,-30
-19,-3,16,9,-19,7,-63,-141,-96,-110,-70,-36
-19,-3,16,9,-19,7,-63,-141,-102,-104,-70,-36
-25,-3,21,9,-25,7,-63,-141,-102,-104,-64,-30
-25,-3,21,9,-25,7,-69,-147,-102,-104,-70,-30
-19,-3,16,9,-19,7,-69,-147,-108,-104,-70,-36
-13,-9,4,9,-8,-5,-69,-147,-108,-104,-70,-30
-19,-15,4,15,-13,-5,-69,-147,-114,-98,-64,-30
-31,-15,16,21,-25,1,-63,-147,-114,-98,-64,-25
-31,-15,16,21,-25,1,-63,-147,-114,-98,-64,-25
-31,-15,16,21,-25,1,-63,-153,-114,-92,-58,-20
-25,-9,16,15,-19,1,-63,-159,-108,-92,-58,-20
-25,-9,16,15,-19,1,-63,-159,-114,-98,-64,-20
-19,-9,10,15,-13,1,-63,-165,-114,-104,-64,-20
-13,-9,4,9,-8,-5,-63,-165,-114,-110,-70,-25
-13,-9,4,9,-8,-5,-63,-165,-120,-116,-76,-25
-13,-9,4,9,-8,-5,-69,-165,-120,-116,-70,-25
-13,-3,10,3,-13,1,-69,-165,-120,-116,-70,-25
-13,-3,10,3,-13,1,-75,-171,-132,-122,-76,-30
-13,3,16,3,-13,7,-75,-171,-132,-116,-76,-36
-13,3,16,3,-13,7,-75,-177,-132,-116,-82,-36
-19,-3,16,9,-19,7,-75,-183,-132,-110,-82,-42
-25,3,26,9,-25,13,-75,-189,-132,-104,-88,-42
-25,3,26,9,-25,13,-75,-189,-132,-104,-88,-42
-25,-9,16,15,-19,1,-69,-189,-126,-104,-88,-42
-31,-15,16,21,-25,1,-69,-189,-126,-104,-88,-42
-25,-9,16,15,-19,1,-69,-183,-126,-104,-94,-42
-19,-9,10,15,-13,1,-69,-183,-120,-104,-94,-42
-19,-9,10,15,-13,1,-69,-183,-120,-110,-100,-42
-13,-3,10,3,-13,1,-69,-189,-120,-116,-100,-42
-13,-3,10,3,-13,1,-69,-189,-120,-122,-106,-42
-19,-9,10,15,-13,1,-63,-189,-114,-122,-106,-42
-13,-9,4,9,-8,-5,-63,-189,-120,-122,-100,-42
-13,-9,4,9,-8,-5,-63,-189,-120,-116,-100,-42
-13,-9,4,9,-8,-5,-69,-189,-126,-116,-100,-36
-13,-9,4,9,-8,-5,-69,-189,-126,-122,-100,-36
-7,-9,-2,9,-3,-5,-69,-195,-126,-128,-100,-36
-7,-9,-2,9,-3,-5,-75,-195,-126,-134,-100,-42
-13,-15,-2,9,-8,-11,-75,-201,-126,-140,-106,-42
-7,-15,-8,9,-3,-11,-75,-201,-132,-140,-106,-48
-7,-9,-2,9,-3,-5,-75,-207,-132,-140,-112,-48
-13,-9,4,9,-8,-5,-81,-207,-138,-140,-112,-48
-19,-9,10,15,-13,1,-81,-207,-138,-134,-112,-48
-25,-15,10,15,-19,-5,-81,-207,-144,-134,-106,-48
-25,-21,4,21,-13,-11,-87,-207,-150,-140,-112,-48
-19,-21,-2,21,-8,-11,-87,-207,-150,-146,-112,-48
-25,-21,4,21,-13,-11,-87,-201,-144,-140,-106,-42
-31,-15,16,21,-25,1,-87,-195,-138,-140,-106,-36
-31,-15,16,21,-25,1,-87,-201,-138,-146,-106,-42
-25,-21,4,21,-13,-11,-99,-201,-144,-152,-112,-42
-25,-21,4,21,-13,-11,-99,-201,-138,-158,-106,-42
-25,-21,4,21,-13,-11,-99,-207,-138,-158,-112,-48
-25,-21,4,21,-13,-11,-99,-213,-144,-164,-118,-54
-25,-21,4,21,-13,-11,-99,-213,-144,-158,-118,-54
-31,-21,10,27,-19,-5,-93,-213,-144,-158,-118,-54
-31,-21,10,27,-19,-5,-87,-213,-138,-152,-124,-54
-25,-15,10,15,-19,-5,-81,-207,-138,-146,-118,-54
-25,-21,4,21,-13,-11,-81,-207,-144,-146,-118,-54
-25,-21,4,21,-13,-11,-81,-213,-144,-146,-118,-54
-13,-21,-8,15,-3,-17,-81,-213,-144,-146,-118,-54
-7,-21,-14,15,3,-17,-87,-219,-144,-152,-118,-60
-7,-27,-20,15,3,-23,-87,-225,-144,-158,-118,-60
-13,-33,-20,21,3,-29,-87,-225,-144,-158,-118,-60
-19,-33,-14,27,-3,-23,-87,-219,-144,-152,-124,-60
-19,-33,-14,27,-3,-23,-87,-219,-138,-152,-124,-60
-19,-27,-8,21,-8,-17,-87,-219,-138,-152,-130,-60
-19,-27,-8,21,-8,-17,-87,-213,-138,-152,-130,-66
-13,-27,-14,15,-3,-23,-93,-219,-138,-158,-130,-72
-13,-21,-8,15,-3,-17,-93,-219,-138,-158,-130,-78
-13,-21,-8,15,-3,-17,-93,-213,-138,-152,-124,-78
-19,-21,-2,21,-8,-11,-93,-213,-138,-152,-124,-78
-25,-21,4,21,-13,-11,-93,-219,-138,-158,-124,-72
-31,-15,16,21,-25,1,-93,-219,-138,-158,-130,-72
-25,-15,10,15,-19,-5,-93,-219,-144,-164,-130,-72
-25,-21,4,21,-13,-11,-93,-225,-144,-164,-142,-72
-19,-15,4,15,-13,-5,-99,-225,-144,-170,-142,-72
-19,-9,10,15,-13,1,-99,-225,-144,-164,-136,-72
-19,-9,10,15,-13,1,-105,-219,-144,-164,-136,-72
-19,-15,4,15,-13,-5,-99,-225,-156,-170,-142,-72
-19,-21,-2,21,-8,-11,-99,-225,-156,-164,-142,-66
-19,-21,-2,21,-8,-11,-93,-225,-150,-164,-142,-66
-19,-21,-2,21,-8,-11,-93,-231,-150,-164,-142,-66
-13,-27,-14,15,-3,-23,-93,-231,-150,-164,-142,-66
-13,-27,-14,15,-3,-23,-99,-231,-150,-164,-142,-66
-13,-27,-14,15,-3,-23,-99,-237,-150,-170,-142,-72
-13,-27,-14,15,-3,-23,-93,-237,-150,-170,-142,-72
-13,-21,-8,15,-3,-17,-93,-237,-144,-164,-136,-72
-25,-21,4,21,-13,-11,-87,-231,-138,-164,-130,-66
-31,-21,10,27,-19,-5,-87,-237,-144,-170,-130,-72
-31,-21,10,27,-19,-5,-93,-237,-144,-164,-130,-72
-31,-27,4,27,-19,-11,-93,-237,-144,-164,-124,-66
-25,-21,4,21,-13,-11,-93,-237,-138,-158,-118,-60
-25,-21,4,21,-13,-11,-99,-231,-138,-158,-118,-54
-25,-21,4,21,-13,-11,-99,-231,-132,-158,-118,-48
-31,-21,10,27,-19,-5,-99,-231,-132,-152,-118,-48
-37,-21,16,27,-25,-5,-93,-231,-126,-152,-118,-42
-31,-21,10,27,-19,-5,-93,-231,-126,-152,-118,-42
-25,-21,4,21,-13,-11,-93,-237,-132,-152,-124,-42
-25,-21,4,21,-13,-11,-93,-243,-144,-158,-130,-48
-19,-21,-2,21,-8,-11,-93,-243,-144,-158,-130,-54
-19,-27,-8,21,-8,-17,-87,-243,-144,-158,-124,-48
-25,-27,-2,21,-13,-17,-87,-237,-144,-158,-118,-48
-19,-27,-8,21,-8,-17,-87,-237,-144,-170,-124,-54
-13,-27,-14,15,-3,-23,-87,-231,-150,-164,-124,-54
-13,-21,-8,15,-3,-17,-93,-237,-156,-164,-124,-54
-13,-21,-8,15,-3,-17,-87,-237,-156,-164,-130,-54
-19,-15,4,15,-13,-5,-87,-231,-150,-158,-130,-60
-19,-9,10,15,-13,1,-87,-231,-150,-152,-130,-60
-13,-9,4,9,-8,-5,-87,-231,-144,-152,-124,-66
-19,-3,16,9,-19,7,-81,-225,-138,-146,-118,-66
-13,3,16,3,-13,7,-87,-225,-132,-146,-118,-66
-13,3,16,3,-13,7,-87,-225,-132,-146,-118,-66
-13,9,21,-3,-19,13,-81,-225,-126,-146,-124,-60
-13,15,26,-3,-19,19,-81,-225,-120,-146,-118,-60
-7,21,26,-9,-19,24,-81,-219,-120,-146,-124,-54
-1,26,26,-14,-13,24,-81,-219,-108,-140,-118,-48
4,31,26,-14,-8,29,-75,-207,-102,-128,-112,-42
4,37,32,-19,-13,35,-69,-195,-96,-122,-106,-42
9,37,26,-19,-8,35,-63,-189,-84,-122,-100,-42
9,37,26,-19,-8,35,-57,-177,-78,-110,-94,-30
9,43,32,-19,-8,41,-52,-171,-66,-104,-88,-25
15,49,32,-31,-8,41,-52,-165,-66,-104,-88,-25
27,49,21,-37,3,35,-52,-165,-60,-104,-82,-25
39,55,16,-43,15,35,-52,-159,-54,-92,-76,-20
27,61,32,-43,-3,47,-52,-153,-54,-92,-76,-14
27,61,32,-43,-3,47,-47,-147,-48,-86,-64,-14
27,61,32,-43,-3,47,-52,-147,-48,-80,-58,-14
33,61,26,-43,3,47,-52,-141,-42,-80,-52,-14
33,67,32,-43,3,53,-52,-135,-42,-80,-46,-8
39,73,32,-55,3,53,-63,-135,-42,-74,-40,-2
45,73,26,-55,9,53,-81,-135,-42,-74,-46,-2
45,73,26,-55,9,53,-93,-141,-48,-80,-46,-2
45,79,32,-55,9,59,-99,-147,-48,-80,-40,4
51,73,21,-61,15,47,-111,-153,-48,-80,-40,10
57,67,10,-55,27,41,-123,-159,-54,-80,-40,10
63,67,4,-61,33,35,-135,-171,-60,-86,-40,10
69,61,-8,-61,39,29,-141,-177,-66,-86,-40,10
69,55,-14,-55,45,24,-147,-183,-72,-98,-46,4
63,55,-8,-55,39,24,-147,-201,-90,-110,-52,-2
57,55,-2,-49,33,29,-141,-213,-96,-122,-64,-2
45,61,16,-49,15,41,-135,-219,-96,-122,-64,4
45,61,16,-49,15,41,-129,-219,-102,-122,-64,4
39,55,16,-43,15,35,-123,-225,-108,-128,-70,-2
45,49,4,-43,21,29,-123,-225,-108,-128,-70,-2
51,43,-8,-43,33,19,-123,-231,-108,-134,-70,-8
45,43,-2,-37,27,24,-123,-237,-114,-140,-76,-8
45,43,-2,-37,27,24,-123,-237,-120,-146,-76,-14
39,37,-2,-37,21,19,-123,-243,-126,-152,-76,-20
39,31,-8,-31,27,13,-129,-255,-144,-164,-88,-25
27,26,-2,-25,15,13,-129,-255,-156,-170,-100,-25
21,26,4,-19,9,19,-135,-267,-162,-176,-106,-30
15,21,4,-19,3,13,-141,-273,-168,-188,-118,-36
9,21,10,-14,-3,19,-141,-279,-180,-194,-118,-36
4,15,10,-9,-3,13,-147,-291,-186,-200,-124,-42
-1,3,4,-3,-3,1,-147,-297,-186,-212,-124,-48
-13,-9,4,9,-8,-5,-141,-303,-186,-212,-124,-60
-19,-15,4,15,-13,-5,-135,-297,-186,-212,-124,-60
-25,-27,-2,21,-13,-17,-129,-297,-186,-212,-130,-66
-25,-33,-8,27,-8,-23,-129,-297,-186,-212,-130,-72
-25,-33,-8,27,-8,-23,-117,-285,-180,-206,-130,-72
-31,-33,-2,33,-13,-17,-111,-285,-186,-206,-130,-78
-37,-33,4,33,-19,-17,-105,-279,-186,-206,-136,-78
-37,-33,4,33,-19,-17,-105,-279,-180,-206,-142,-90
-31,-27,4,27,-19,-11,-105,-279,-180,-206,-142,-90
-31,-27,4,27,-19,-11,-111,-279,-180,-206,-142,-90
-31,-27,4,27,-19,-11,-105,-285,-186,-212,-148,-90
-31,-27,4,27,-19,-11,-105,-279,-180,-212,-148,-90
-19,-27,-8,21,-8,-17,-105,-279,-174,-212,-148,-90
-25,-27,-2,21,-13,-17,-99,-273,-168,-206,-148,-90
-31,-27,4,27,-19,-11,-87,-255,-156,-194,-136,-78
-31,-33,-2,33,-13,-17,-75,-237,-144,-182,-136,-72
-37,-39,-2,33,-19,-23,-63,-225,-126,-170,-124,-66
-19,-39,-20,27,-3,-29,-52,-207,-114,-158,-112,-54
-7,-45,-38,27,15,-41,-47,-183,-96,-146,-100,-36
-7,-57,-50,33,21,-53,-29,-165,-72,-122,-88,-30
-1,-63,-62,27,27,-65,-11,-129,-42,-104,-70,-25
4,-69,-74,33,39,-71,7,-99,-19,-80,-52,-20
4,-81,-86,39,45,-83,25,-69,10,-50,-34,-8
21,-93,-116,39,69,-101,37,-33,34,-26,-24,-2
39,-105,-146,33,93,-125,55,7,64,-4,6,22
57,-123,-182,33,117,-149,73,55,94,32,36,52
75,-135,-212,27,141,-173,97,97,124,68,66,76
87,-141,-230,27,159,-185,115,145,160,98,96,94
111,-153,-266,21,189,-209,127,181,190,128,120,112
135,-171,-308,15,219,-239,139,217,208,152,138,130
153,-189,-344,21,249,-263,151,247,226,170,156,142
171,-207,-380,15,273,-293,163,277,244,194,174,154
183,-231,-416,21,297,-323,181,325,274,224,192,172
201,-249,-452,27,327,-347,205,373,304,254,210,184
207,-267,-476,27,339,-371,235,445,352,290,240,202
231,-291,-524,27,375,-407,271,529,400,338,264,220
249,-321,-572,39,411,-443,301,607,448,386,294,238
291,-351,-644,27,465,-497,319,685,496,446,336,268
339,-363,-704,9,519,-533,343,781,580,554,414,328
393,-369,-764,-9,579,-563,379,931,718,710,546,424
471,-357,-830,-55,651,-593,421,1117,892,914,726,556
567,-327,-896,-121,729,-611,457,1351,1096,1166,936,718
681,-291,-974,-193,825,-629,487,1615,1330,1454,1194,922
819,-237,-1058,-289,939,-647,487,1867,1558,1772,1482,1162
975,-159,-1136,-409,1053,-647,445,2059,1762,2102,1794,1420
1131,-51,-1184,-541,1155,-617,367,2149,1912,2419,2094,1684
1287,79,-1208,-679,1251,-563,235,2131,1996,2719,2399,1948
1437,217,-1220,-823,1329,-497,73,2029,2044,2989,2693,2218
1563,337,-1226,-949,1395,-443,-93,1855,2038,3199,2939,2445
1653,415,-1238,-1027,1449,-407,-261,1621,1942,3283,3077,2601
1707,457,-1250,-1081,1479,-395,-417,1309,1726,3205,3083,2679
1701,457,-1244,-1075,1473,-389,-561,913,1396,2941,2933,2637
1587,421,-1166,-1003,1377,-371,-669,427,928,2437,2567,2433
1335,337,-998,-835,1167,-329,-699,-99,394,1736,2016,2056
993,223,-770,-601,885,-269,-627,-525,-60,1052,1416,1588
663,73,-590,-367,627,-257,-489,-777,-360,500,858,1090
411,-57,-470,-175,441,-263,-351,-879,-534,110,432,676
219,-171,-392,-25,303,-281,-237,-873,-606,-116,144,376
81,-255,-338,87,207,-293,-147,-813,-624,-248,-40,154
-1,-333,-332,165,165,-335,-93,-747,-618,-344,-184,-14
-55,-393,-338,225,141,-365,-52,-693,-612,-416,-280,-132
-85,-417,-332,249,123,-377,-23,-639,-588,-440,-328,-192
-97,-417,-320,255,111,-371,-5,-591,-552,-434,-340,-222
-85,-411,-326,243,117,-371,1,-531,-516,-422,-334,-234
-73,-381,-308,225,117,-347,7,-465,-468,-386,-316,-228
-61,-351,-290,201,111,-323,19,-393,-420,-356,-298,-222
-43,-315,-272,177,111,-293,19,-327,-378,-332,-292,-216
-37,-273,-236,153,99,-257,31,-267,-336,-314,-280,-204
-31,-231,-200,129,81,-215,37,-219,-294,-296,-268,-198
-37,-195,-158,111,57,-179,43,-195,-258,-278,-256,-186
-37,-153,-116,93,39,-137,49,-177,-216,-260,-238,-174
-49,-129,-80,87,15,-107,49,-171,-174,-236,-214,-162
-55,-105,-50,81,-3,-77,55,-171,-150,-212,-190,-144
-61,-81,-20,69,-19,-53,49,-165,-126,-194,-172,-132
-67,-69,-2,69,-31,-35,43,-159,-114,-176,-160,-126
-73,-69,4,69,-37,-35,37,-153,-108,-176,-154,-126
-85,-63,21,69,-55,-23,19,-159,-114,-182,-160,-126
-85,-63,21,69,-55,-23,7,-165,-120,-194,-166,-132
-91,-57,32,75,-61,-11,7,-165,-120,-200,-172,-138
-103,-57,44,81,-73,-5,13,-171,-120,-206,-178,-144
-103,-51,50,75,-79,1,13,-171,-120,-212,-184,-156
-103,-51,50,75,-79,1,13,-177,-120,-206,-178,-168
-103,-45,56,75,-79,7,13,-177,-114,-206,-178,-174
-103,-45,56,75,-79,7,13,-177,-120,-200,-178,-180
-91,-45,44,69,-67,1,13,-177,-126,-194,-178,-180
-97,-45,50,69,-73,1,19,-171,-120,-188,-172,-174
-109,-45,62,75,-85,7,19,-165,-114,-188,-172,-174
-115,-45,68,81,-91,13,25,-165,-114,-188,-172,-174
-121,-51,68,81,-97,7,19,-159,-114,-188,-178,-180
-121,-45,74,81,-97,13,19,-159,-108,-188,-178,-186
-121,-45,74,81,-97,13,19,-153,-108,-182,-178,-180
-121,-39,80,75,-103,19,19,-147,-102,-182,-178,-180
-121,-39,80,75,-103,19,19,-147,-108,-182,-178,-180
-121,-39,80,75,-103,19,13,-147,-108,-194,-184,-180
-115,-39,74,75,-97,19,13,-141,-108,-194,-184,-174
-109,-33,74,69,-91,19,13,-135,-108,-194,-184,-174
-121,-27,92,69,-109,29,19,-123,-102,-188,-184,-162
-127,-27,98,75,-115,35,19,-117,-96,-194,-184,-162
-115,-27,86,69,-103,29,19,-117,-96,-188,-190,-162
-115,-27,86,69,-103,29,19,-117,-96,-194,-190,-168
-115,-33,80,75,-97,24,19,-117,-90,-188,-190,-168
-121,-33,86,75,-103,24,25,-117,-84,-182,-184,-168
-127,-33,92,81,-109,29,25,-111,-78,-176,-178,-162
-133,-39,92,81,-115,24,31,-111,-72,-176,-178,-162
-133,-39,92,81,-115,24,31,-111,-66,-170,-172,-156
-133,-39,92,81,-115,24,31,-105,-66,-164,-166,-150
-133,-39,92,81,-115,24,31,-105,-60,-164,-166,-150
-133,-33,98,81,-115,29,31,-99,-60,-164,-160,-150
-127,-33,92,81,-109,29,31,-99,-60,-158,-160,-144
-121,-27,92,69,-109,29,31,-99,-60,-152,-160,-138
-121,-21,98,69,-109,35,37,-93,-54,-152,-160,-138
-121,-21,98,69,-109,35,43,-87,-54,-146,-154,-138
-115,-15,98,63,-109,41,37,-81,-48,-146,-154,-138
-109,-9,98,57,-103,41,37,-81,-54,-152,-154,-144
-115,-9,104,63,-109,47,37,-75,-48,-140,-154,-144
-133,-9,122,69,-127,53,43,-75,-42,-140,-154,-144
-133,-9,122,69,-127,53,43,-75,-48,-140,-160,-150
-133,-9,122,69,-127,53,43,-69,-48,-140,-166,-150
-133,-9,122,69,-127,53,43,-63,-42,-134,-160,-144
-133,-9,122,69,-127,53,49,-63,-42,-134,-160,-144
-133,-9,122,69,-127,53,49,-57,-42,-134,-160,-150
-127,-3,122,63,-127,59,55,-51,-36,-128,-160,-150
-127,3,128,63,-127,65,55,-45,-36,-122,-154,-150
-121,9,128,51,-127,65,55,-39,-30,-122,-154,-150
-121,15,134,51,-127,71,55,-33,-24,-116,-154,-150
-121,15,134,51,-127,71,55,-27,-24,-116,-148,-150
-121,15,134,51,-127,71,55,-27,-24,-116,-154,-156
-133,21,152,51,-145,83,61,-21,-19,-116,-148,-156
-139,21,158,57,-151,89,61,-15,-19,-116,-148,-162
-139,26,164,57,-151,95,61,-4,-14,-110,-148,-168
-145,26,170,57,-157,95,67,1,-8,-104,-148,-168
-139,31,170,57,-151,101,67,13,-2,-98,-142,-174
-145,37,182,51,-163,107,73,19,4,-92,-142,-174
-151,37,188,57,-169,113,79,19,4,-92,-142,-186
-145,43,188,51,-163,113,85,31,10,-86,-136,-186
-145,55,200,45,-169,125,85,37,22,-80,-124,-186
-151,55,206,51,-175,131,85,49,28,-74,-124,-186
-157,61,218,45,-187,137,85,61,40,-74,-118,-186
-157,67,224,45,-187,143,85,73,46,-68,-118,-180
-163,73,236,45,-199,155,91,79,46,-68,-124,-180
-163,79,242,45,-199,161,97,91,52,-68,-118,-180
-169,85,254,39,-211,167,103,97,58,-62,-118,-174
-169,91,260,39,-211,173,109,109,64,-62,-112,-174
-169,97,266,33,-217,179,115,115,76,-56,-118,-180
-169,103,272,33,-217,185,121,133,88,-44,-112,-180
-163,115,278,27,-217,197,121,151,100,-32,-112,-180
-169,121,290,21,-229,203,127,163,112,-26,-118,-180
-175,121,296,27,-235,209,127,181,118,-26,-118,-180
-181,127,308,27,-241,215,139,193,136,-20,-118,-180
-193,133,326,27,-259,227,145,211,148,-14,-118,-180
-199,133,332,33,-265,233,157,223,160,-9,-118,-180
-199,133,332,33,-265,233,169,241,178,-4,-112,-180
-199,139,338,33,-265,239,175,253,190,8,-112,-180
-199,139,338,33,-265,239,181,259,202,8,-112,-180
-205,139,344,33,-271,239,193,283,220,26,-112,-180
-211,151,362,33,-283,257,205,301,232,38,-106,-180
-217,151,368,33,-289,257,217,319,238,50,-100,-186
-223,157,380,33,-301,269,229,337,256,62,-100,-192
-229,157,386,33,-307,269,235,355,268,68,-100,-198
-235,157,392,39,-313,275,253,373,286,80,-100,-204
-247,157,404,45,-325,281,265,391,304,92,-100,-198
-247,157,404,45,-325,281,277,415,322,104,-94,-198
-241,157,398,39,-319,275,289,433,340,116,-88,-198
-241,145,386,45,-313,263,307,451,364,134,-76,-198
-235,145,380,45,-307,263,325,475,382,158,-64,-192
-241,139,380,51,-307,257,337,505,394,176,-58,-192
-247,133,380,57,-313,257,349,529,412,194,-52,-198
-253,127,380,63,-313,251,361,553,430,206,-46,-198
-253,127,380,63,-313,251,373,571,442,218,-40,-192
-253,127,380,63,-313,251,379,589,460,230,-34,-192
-253,121,374,63,-313,245,385,601,466,236,-34,-192
-253,121,374,63,-313,245,397,613,484,254,-29,-192
-253,121,374,63,-313,245,409,625,502,266,-24,-186
-247,121,368,63,-307,245,415,637,514,272,-24,-186
-241,115,356,63,-295,233,421,655,526,290,-12,-180
-247,115,362,69,-301,239,433,673,538,302,-6,-174
-241,121,362,57,-301,239,439,685,550,314,0,-168
-241,127,368,57,-301,245,445,691,556,320,6,-162
-241,127,368,57,-301,245,439,697,562,332,12,-156
-235,127,362,57,-295,245,433,685,562,332,12,-156
-229,127,356,51,-289,239,433,679,556,332,18,-156
-223,121,344,51,-283,233,427,673,562,338,24,-144
-211,115,326,51,-265,221,415,661,556,344,30,-144
-205,109,314,45,-259,209,409,637,550,344,24,-144
-193,103,296,45,-241,197,397,625,538,344,30,-132
-181,103,284,39,-229,191,379,601,526,338,30,-120
-175,97,272,39,-223,185,373,577,508,326,36,-108
-163,91,254,39,-205,173,361,553,496,320,42,-102
-157,85,242,33,-199,161,343,517,472,308,48,-90
-145,85,230,27,-187,155,313,487,448,296,48,-72
-139,79,218,33,-175,149,295,451,418,284,54,-66
-127,73,200,27,-163,137,277,409,388,272,54,-54
-115,67,182,27,-145,125,253,373,364,260,48,-42
-97,61,158,15,-127,107,235,337,334,242,48,-36
-85,61,146,9,-115,101,223,301,316,230,54,-30
-79,55,134,15,-103,95,205,271,286,212,54,-25
-67,55,122,9,-91,89,187,241,262,194,54,-20
-67,43,110,15,-85,77,169,211,238,182,60,-14
-55,37,92,9,-73,65,157,181,214,164,60,-8
-43,31,74,9,-55,53,139,145,190,140,48,-2
-31,26,56,3,-43,41,121,115,166,116,42,-2
-25,21,44,-3,-37,29,109,91,142,98,36,4
-19,21,38,-3,-31,29,91,67,118,80,30,4
-13,9,21,-3,-19,13,73,37,94,62,24,-2
-7,3,10,3,-8,7,61,19,76,50,18,-2
4,9,4,-9,-3,7,43,-4,58,38,18,-2
4,3,-2,-3,3,1,31,-21,40,26,12,-2
4,3,-2,-3,3,1,25,-33,28,14,6,-2
9,3,-8,-3,9,1,19,-45,10,8,0,-8
9,3,-8,-3,9,1,7,-63,-2,2,-6,-8
21,-3,-26,-9,21,-11,1,-81,-14,-9,-18,-14
21,-3,-26,-9,21,-11,-5,-87,-19,-9,-18,-8
9,-3,-14,-3,9,-5,-11,-93,-19,-9,-18,-2
4,-3,-8,-3,3,-5,-17,-93,-24,-14,-24,-2
4,-9,-14,3,9,-11,-23,-99,-30,-26,-29,-2
4,-15,-20,3,9,-17,-29,-105,-36,-26,-29,-2
9,-15,-26,3,15,-17,-35,-111,-30,-32,-34,-8
15,-15,-32,-3,21,-23,-35,-117,-36,-44,-40,-8
15,-15,-32,-3,21,-23,-41,-117,-36,-44,-34,-8
21,-15,-38,-3,27,-23,-41,-117,-42,-44,-34,-8
21,-15,-38,-3,27,-23,-41,-117,-42,-44,-29,-2
15,-15,-32,-3,21,-23,-47,-117,-48,-38,-24,-2
21,-21,-44,3,33,-29,-47,-117,-48,-44,-18,-2
27,-21,-50,-3,39,-35,-52,-123,-54,-56,-24,-2
27,-21,-50,-3,39,-35,-52,-123,-60,-62,-24,-8
21,-21,-44,3,33,-29,-52,-123,-60,-62,-29,-2
15,-27,-44,3,27,-35,-52,-123,-60,-62,-29,-2
21,-27,-50,3,33,-35,-52,-123,-66,-62,-34,-2
9,-21,-32,9,21,-23,-52,-117,-60,-56,-29,-2
9,-21,-32,9,21,-23,-52,-123,-60,-56,-29,-2
15,-21,-38,3,27,-29,-52,-117,-60,-56,-29,-2
9,-21,-32,9,21,-23,-52,-111,-54,-50,-24,4
15,-21,-38,3,27,-29,-52,-111,-60,-56,-24,-2
15,-15,-32,-3,21,-23,-52,-117,-66,-62,-29,-2
21,-15,-38,-3,27,-23,-47,-111,-60,-62,-29,-8
21,-9,-32,-3,27,-17,-47,-111,-60,-56,-29,-8
15,-3,-20,-9,15,-11,-52,-111,-66,-62,-29,-14
15,-3,-20,-9,15,-11,-52,-117,-66,-68,-34,-20
9,-3,-14,-3,9,-5,-52,-123,-66,-68,-34,-20
9,-3,-14,-3,9,-5,-52,-123,-66,-68,-34,-20
15,-3,-20,-9,15,-11,-52,-123,-60,-62,-34,-20
15,-3,-20,-9,15,-11,-52,-117,-60,-56,-34,-20
21,-3,-26,-9,21,-11,-47,-117,-60,-56,-34,-14
21,-3,-26,-9,21,-11,-47,-117,-60,-62,-29,-14
21,-3,-26,-9,21,-11,-47,-111,-60,-68,-29,-14
27,-9,-38,-9,33,-23,-52,-117,-66,-62,-29,-8
33,-9,-44,-9,39,-23,-52,-117,-72,-62,-18,-2
27,-3,-32,-14,27,-17,-52,-123,-72,-62,-18,-2
15,-3,-20,-9,15,-11,-47,-123,-72,-62,-12,4
15,-3,-20,-9,15,-11,-47,-123,-72,-68,-18,-2
15,-3,-20,-9,15,-11,-47,-129,-72,-74,-24,-2
21,-3,-26,-9,21,-11,-47,-129,-72,-74,-29,-8
15,-3,-20,-9,15,-11,-47,-129,-72,-74,-29,-2
9,-3,-14,-3,9,-5,-47,-129,-66,-74,-29,-8
9,-3,-14,-3,9,-5,-47,-129,-66,-68,-29,-2
9,3,-8,-3,9,1,-47,-129,-66,-68,-29,-2
15,3,-14,-9,15,-5,-47,-129,-66,-68,-29,-8
9,3,-8,-3,9,1,-47,-123,-66,-74,-29,-8
4,3,-2,-3,3,1,-41,-123,-66,-74,-29,-2
9,3,-8,-3,9,1,-41,-123,-72,-80,-29,-2
15,-3,-20,-9,15,-11,-41,-129,-72,-80,-29,-8
9,-3,-14,-3,9,-5,-41,-123,-72,-86,-29,-8
4,-3,-8,-3,3,-5,-47,-123,-72,-86,-29,-8
-1,-3,-2,-3,-3,-5,-47,-129,-72,-92,-34,-14
4,-3,-8,-3,3,-5,-47,-129,-72,-92,-40,-14
4,3,-2,-3,3,1,-47,-129,-72,-92,-40,-14
9,-3,-14,-3,9,-5,-52,-135,-78,-92,-46,-20
4,-3,-8,-3,3,-5,-52,-141,-90,-98,-46,-25
9,-3,-14,-3,9,-5,-52,-141,-90,-98,-46,-25
15,-3,-20,-9,15,-11,-52,-147,-96,-98,-52,-30
21,-3,-26,-9,21,-11,-52,-147,-96,-104,-58,-36
21,-3,-26,-9,21,-11,-57,-153,-102,-110,-64,-36
15,-3,-20,-9,15,-11,-57,-153,-102,-110,-64,-36
15,-3,-20,-9,15,-11,-57,-159,-102,-110,-64,-36
15,-3,-20,-9,15,-11,-57,-159,-102,-104,-58,-30
9,-3,-14,-3,9,-5,-63,-159,-102,-98,-52,-25
4,-3,-8,-3,3,-5,-57,-159,-102,-98,-52,-20
9,-3,-14,-3,9,-5,-57,-159,-102,-98,-52,-20
15,-3,-20,-9,15,-11,-63,-153,-108,-98,-46,-14
9,-9,-20,3,15,-11,-69,-153,-108,-98,-46,-8
9,-3,-14,-3,9,-5,-69,-153,-114,-98,-46,-8
4,-3,-8,-3,3,-5,-69,-153,-108,-98,-40,-8
4,-3,-8,-3,3,-5,-69,-153,-108,-98,-40,-8
-7,-9,-2,9,-3,-5,-69,-159,-114,-110,-46,-14
-7,-9,-2,9,-3,-5,-63,-165,-108,-110,-46,-14
-13,-9,4,9,-8,-5,-63,-171,-108,-116,-46,-14
-7,-15,-8,9,-3,-11,-69,-183,-114,-122,-52,-20
-7,-21,-14,15,3,-17,-69,-195,-120,-128,-64,-25
-7,-21,-14,15,3,-17,-75,-195,-120,-134,-64,-30
-13,-27,-14,15,-3,-23,-75,-201,-126,-134,-64,-30
-7,-27,-20,15,3,-23,-75,-201,-126,-134,-70,-30
-13,-27,-14,15,-3,-23,-81,-201,-132,-134,-70,-30
-7,-27,-20,15,3,-23,-81,-201,-138,-140,-70,-36
-7,-21,-14,15,3,-17,-87,-201,-144,-140,-76,-36
-13,-21,-8,15,-3,-17,-87,-201,-144,-140,-76,-30
-13,-21,-8,15,-3,-17,-87,-213,-150,-146,-82,-30
-19,-21,-2,21,-8,-11,-93,-213,-144,-140,-82,-30
-19,-15,4,15,-13,-5,-93,-213,-144,-146,-88,-30
-19,-15,4,15,-13,-5,-93,-213,-144,-146,-88,-36
-25,-15,10,15,-19,-5,-87,-213,-144,-146,-88,-36
-25,-15,10,15,-19,-5,-87,-213,-150,-146,-88,-36
-19,-21,-2,21,-8,-11,-87,-207,-156,-146,-94,-42
-19,-21,-2,21,-8,-11,-87,-207,-156,-152,-100,-42
-25,-21,4,21,-13,-11,-87,-213,-162,-158,-100,-48
-19,-21,-2,21,-8,-11,-81,-213,-168,-170,-106,-54
-19,-21,-2,21,-8,-11,-81,-219,-168,-170,-100,-54
-25,-21,4,21,-13,-11,-81,-219,-174,-176,-106,-54
-19,-21,-2,21,-8,-11,-87,-225,-174,-182,-112,-60
-19,-27,-8,21,-8,-17,-81,-231,-180,-176,-106,-60
-19,-21,-2,21,-8,-11,-81,-231,-174,-164,-100,-54
-25,-21,4,21,-13,-11,-87,-231,-168,-158,-94,-54
-19,-27,-8,21,-8,-17,-87,-237,-174,-158,-94,-48
-13,-27,-14,15,-3,-23,-93,-243,-174,-164,-94,-48
-13,-27,-14,15,-3,-23,-93,-249,-174,-170,-100,-48
-7,-27,-20,15,3,-23,-93,-255,-180,-176,-100,-48
-13,-27,-14,15,-3,-23,-93,-249,-180,-176,-100,-54
-19,-27,-8,21,-8,-17,-93,-249,-180,-176,-100,-54
-13,-21,-8,15,-3,-17,-87,-243,-180,-182,-106,-60
-13,-21,-8,15,-3,-17,-93,-243,-186,-176,-106,-66
-13,-27,-14,15,-3,-23,-93,-243,-192,-182,-106,-72
-19,-33,-14,27,-3,-23,-93,-243,-192,-182,-106,-72
-25,-33,-8,27,-8,-23,-87,-243,-192,-176,-106,-72
-31,-39,-8,33,-13,-23,-87,-243,-186,-176,-100,-66
-25,-39,-14,27,-8,-29,-81,-243,-186,-182,-106,-66
-19,-33,-14,27,-3,-23,-81,-243,-192,-188,-106,-72
-13,-33,-20,21,3,-29,-81,-243,-192,-188,-106,-66
-19,-39,-20,27,-3,-29,-81,-243,-186,-188,-106,-66
-31,-39,-8,33,-13,-23,-81,-237,-186,-188,-106,-60
-31,-39,-8,33,-13,-23,-87,-237,-186,-188,-106,-60
-19,-39,-20,27,-3,-29,-93,-243,-186,-188,-106,-66
-19,-33,-14,27,-3,-23,-99,-249,-192,-200,-112,-72
-19,-21,-2,21,-8,-11,-99,-249,-192,-200,-106,-72
-19,-21,-2,21,-8,-11,-99,-255,-192,-200,-106,-72
-19,-21,-2,21,-8,-11,-93,-261,-192,-206,-112,-78
-19,-27,-8,21,-8,-17,-87,-261,-198,-206,-112,-78
-19,-33,-14,27,-3,-23,-87,-255,-198,-206,-118,-78
-19,-33,-14,27,-3,-23,-87,-255,-198,-206,-118,-72
-19,-33,-14,27,-3,-23,-87,-249,-204,-212,-124,-72
-19,-33,-14,27,-3,-23,-87,-249,-204,-218,-130,-72
-19,-33,-14,27,-3,-23,-93,-249,-204,-224,-136,-72
-19,-39,-20,27,-3,-29,-93,-255,-204,-230,-136,-72
-19,-39,-20,27,-3,-29,-93,-249,-198,-230,-130,-72
-25,-39,-14,27,-8,-29,-93,-249,-198,-224,-124,-72
-31,-39,-8,33,-13,-23,-93,-249,-198,-230,-124,-66
-25,-39,-14,27,-8,-29,-93,-249,-198,-218,-124,-66
-25,-33,-8,27,-8,-23,-93,-249,-198,-206,-118,-60
-25,-33,-8,27,-8,-23,-93,-249,-198,-200,-124,-60
-25,-27,-2,21,-13,-17,-99,-249,-198,-194,-118,-54
-25,-21,4,21,-13,-11,-99,-249,-198,-188,-112,-48
-19,-21,-2,21,-8,-11,-99,-255,-198,-188,-112,-42
-19,-21,-2,21,-8,-11,-99,-255,-198,-188,-112,-42
-19,-27,-8,21,-8,-17,-99,-255,-198,-188,-106,-42
-19,-33,-14,27,-3,-23,-99,-255,-192,-188,-106,-48
-19,-33,-14,27,-3,-23,-99,-261,-198,-188,-106,-54
-25,-33,-8,27,-8,-23,-105,-261,-192,-188,-106,-54
-25,-33,-8,27,-8,-23,-105,-261,-198,-188,-106,-54
-25,-33,-8,27,-8,-23,-105,-261,-198,-188,-112,-60
-25,-33,-8,27,-8,-23,-105,-261,-204,-194,-118,-72
-13,-33,-20,21,3,-29,-105,-261,-210,-200,-124,-78
-1,-27,-26,9,9,-29,-111,-261,-204,-200,-124,-78
-1,-21,-20,9,9,-23,-105,-255,-204,-200,-118,-84
-25,-15,10,15,-19,-5,-99,-243,-192,-194,-112,-84
-25,-15,10,15,-19,-5,-99,-243,-198,-194,-118,-84
-25,-21,4,21,-13,-11,-105,-255,-204,-206,-130,-96
-31,-21,10,27,-19,-5,-105,-249,-204,-200,-130,-96
-25,-21,4,21,-13,-11,-105,-249,-204,-194,-136,-90
-19,-21,-2,21,-8,-11,-105,-249,-204,-194,-136,-84
-13,-21,-8,15,-3,-17,-99,-249,-198,-194,-130,-72
-25,-15,10,15,-19,-5,-93,-243,-192,-182,-118,-66
-25,-9,16,15,-19,1,-93,-243,-186,-182,-112,-66
-19,-9,10,15,-13,1,-93,-243,-186,-188,-112,-66
-13,-3,10,3,-13,1,-93,-243,-180,-188,-106,-66
-7,-3,4,3,-8,1,-99,-243,-180,-188,-100,-66
-7,-9,-2,9,-3,-5,-105,-249,-186,-194,-100,-66
-7,-3,4,3,-8,1,-99,-249,-180,-188,-94,-54
-1,3,4,-3,-3,1,-93,-243,-174,-176,-94,-48
4,15,10,-9,-3,13,-93,-243,-168,-164,-94,-42
9,21,10,-14,-3,19,-87,-237,-162,-158,-88,-36
9,26,16,-14,-3,24,-81,-225,-156,-152,-76,-30
15,31,16,-19,3,24,-75,-219,-150,-146,-70,-25
15,37,21,-25,-3,29,-75,-213,-144,-146,-70,-30
15,43,26,-25,-3,35,-75,-207,-132,-140,-64,-30
21,43,21,-25,3,35,-69,-201,-126,-134,-58,-30
27,49,21,-37,3,35,-69,-201,-126,-140,-64,-30
21,55,32,-31,-3,47,-63,-201,-120,-140,-64,-25
21,55,32,-31,-3,47,-57,-195,-114,-134,-58,-25
21,61,38,-37,-8,53,-57,-195,-114,-128,-64,-25
33,61,26,-43,3,47,-63,-189,-120,-128,-70,-25
45,55,10,-43,21,35,-63,-189,-120,-122,-64,-20
45,55,10,-43,21,35,-69,-183,-114,-116,-58,-14
45,55,10,-43,21,35,-75,-177,-108,-116,-52,-8
45,61,16,-49,15,41,-87,-177,-108,-116,-46,-8
51,67,16,-55,21,41,-99,-183,-108,-116,-40,-8
57,73,16,-61,21,47,-111,-189,-108,-116,-40,-14
51,73,21,-61,15,47,-111,-189,-108,-110,-34,-8
45,73,26,-55,9,53,-117,-189,-108,-110,-34,-2
45,67,21,-49,15,47,-123,-195,-114,-110,-40,-2
57,67,10,-55,27,41,-135,-213,-132,-116,-46,-8
69,61,-8,-61,39,29,-147,-225,-138,-122,-58,-8
51,49,-2,-49,27,24,-147,-237,-150,-128,-64,-14
45,37,-8,-37,27,19,-147,-243,-156,-146,-70,-25
39,31,-8,-31,27,13,-141,-243,-156,-146,-76,-25
27,31,4,-25,15,19,-135,-243,-156,-146,-70,-25
27,31,4,-25,15,19,-123,-243,-156,-152,-64,-25
27,26,-2,-25,15,13,-123,-243,-162,-152,-64,-25
27,26,-2,-25,15,13,-123,-243,-162,-152,-64,-25
27,26,-2,-25,15,13,-117,-249,-162,-152,-64,-25
33,26,-8,-25,21,13,-117,-249,-168,-152,-58,-25
33,26,-8,-25,21,13,-117,-249,-168,-152,-58,-20
33,21,-14,-25,21,7,-123,-255,-180,-152,-64,-20
27,9,-20,-19,21,-5,-129,-267,-186,-164,-76,-25
21,3,-20,-9,21,-5,-129,-273,-198,-170,-82,-25
21,-3,-26,-9,21,-11,-129,-279,-204,-182,-94,-30
21,-9,-32,-3,27,-17,-135,-291,-210,-188,-106,-42
21,-9,-32,-3,27,-17,-129,-297,-222,-200,-118,-54
9,-9,-20,3,15,-11,-129,-303,-228,-200,-124,-60
4,-9,-14,3,9,-11,-129,-303,-228,-206,-130,-66
4,-15,-20,3,9,-17,-129,-309,-234,-212,-142,-78
-1,-15,-14,3,3,-17,-123,-309,-240,-212,-148,-84
-7,-21,-14,15,3,-17,-123,-309,-234,-212,-148,-84
-7,-27,-20,15,3,-23,-117,-309,-234,-218,-148,-90
-13,-39,-26,21,3,-35,-111,-297,-228,-212,-142,-90
-19,-45,-26,33,3,-35,-105,-297,-228,-212,-142,-90
-31,-51,-20,39,-8,-35,-99,-297,-228,-218,-142,-96
-37,-45,-8,39,-13,-29,-99,-291,-228,-218,-142,-96
-31,-51,-20,39,-8,-35,-99,-291,-234,-218,-142,-96
-25,-51,-26,33,-3,-41,-105,-297,-234,-218,-148,-102
-31,-51,-20,39,-8,-35,-105,-291,-228,-218,-142,-102
-31,-51,-20,39,-8,-35,-105,-285,-216,-212,-142,-96
-25,-57,-32,39,3,-47,-93,-273,-210,-206,-136,-90
-37,-57,-20,45,-8,-41,-81,-255,-192,-194,-124,-78
-25,-57,-32,39,3,-47,-69,-243,-180,-188,-112,-72
-19,-57,-38,39,9,-47,-57,-225,-162,-170,-100,-60
-13,-51,-38,27,9,-47,-52,-213,-144,-158,-88,-54
-7,-51,-44,27,15,-47,-35,-189,-126,-146,-70,-42
-7,-63,-56,33,21,-59,-17,-159,-96,-116,-58,-30
-1,-75,-74,33,33,-77,-5,-129,-66,-92,-40,-20
4,-87,-92,39,45,-89,7,-93,-42,-68,-29,-8
9,-99,-110,45,57,-101,25,-63,-19,-44,-18,4
21,-111,-134,45,75,-119,43,-33,4,-20,6,16
39,-123,-164,39,99,-143,61,-4,28,-4,24,28
51,-135,-188,39,117,-161,79,37,52,20,54,46
69,-147,-218,39,141,-179,97,73,82,44,84,58
81,-159,-242,39,159,-197,115,103,112,68,108,70
105,-177,-284,39,195,-227,127,139,136,92,132,94
123,-189,-314,33,219,-251,133,169,160,128,150,118
135,-213,-350,39,243,-281,139,199,178,146,162,136
153,-231,-386,39,267,-305,145,229,196,170,174,148
165,-249,-416,45,291,-329,163,271,226,194,192,166
177,-273,-452,51,315,-359,181,319,256,218,210,178
201,-297,-500,51,351,-395,205,379,292,248,228,190
225,-327,-554,51,387,-437,235,451,340,290,252,202
255,-351,-608,45,429,-479,265,529,388,338,288,226
291,-387,-680,45,483,-533,289,607,448,392,336,256
339,-399,-740,27,537,-569,313,715,544,506,426,322
399,-411,-812,3,603,-611,337,853,682,668,552,406
459,-399,-860,-31,657,-629,385,1051,880,878,720,538
525,-375,-902,-73,711,-635,439,1303,1114,1142,942,706
621,-339,-962,-139,789,-647,487,1579,1378,1454,1206,910
747,-279,-1028,-235,885,-653,511,1855,1654,1802,1512,1156
879,-201,-1082,-337,981,-641,487,2065,1888,2150,1830,1414
1017,-105,-1124,-451,1071,-611,421,2185,2062,2485,2148,1678
1161,26,-1136,-589,1149,-551,313,2209,2182,2815,2471,1948
1293,163,-1130,-721,1215,-479,181,2161,2254,3115,2783,2218
1419,301,-1118,-859,1269,-407,25,2053,2278,3367,3059,2463
1515,409,-1106,-961,1311,-347,-129,1879,2218,3511,3239,2655
1575,475,-1100,-1021,1341,-311,-279,1639,2056,3511,3311,2769
1563,505,-1058,-1033,1311,-275,-417,1291,1768,3325,3221,2781
1479,487,-992,-979,1239,-251,-537,835,1312,2869,2903,2625
1263,409,-854,-835,1059,-221,-585,289,736,2156,2352,2260
939,265,-674,-601,807,-203,-531,-195,190,1388,1698,1762
621,103,-518,-355,573,-203,-411,-513,-204,734,1074,1234
375,-45,-422,-163,399,-233,-291,-669,-456,266,582,766
195,-165,-362,-14,279,-263,-177,-705,-564,-20,246,424
69,-249,-320,93,195,-281,-93,-657,-594,-182,24,178
-13,-321,-308,165,147,-317,-47,-603,-600,-296,-130,-8
-61,-375,-314,213,123,-347,-17,-555,-588,-374,-238,-126
-85,-405,-320,243,117,-365,13,-513,-576,-416,-304,-198
-97,-417,-320,255,111,-371,31,-483,-552,-416,-328,-228
-103,-417,-314,261,105,-365,43,-453,-516,-398,-328,-240
-91,-405,-314,249,111,-359,43,-411,-486,-374,-316,-234
-73,-375,-302,219,111,-341,43,-357,-450,-350,-304,-222
-49,-339,-290,189,117,-317,43,-297,-414,-326,-286,-216
-43,-291,-248,165,99,-269,43,-249,-372,-308,-274,-204
-31,-237,-206,135,87,-221,49,-195,-330,-296,-262,-192
-31,-189,-158,111,63,-173,49,-165,-282,-272,-250,-180
-37,-147,-110,87,33,-131,49,-147,-240,-254,-238,-168
-49,-123,-74,81,9,-101,43,-141,-198,-230,-226,-162
-61,-99,-38,75,-13,-71,43,-141,-174,-212,-214,-162
-73,-87,-14,75,-31,-53,37,-147,-156,-206,-208,-156
-85,-81,4,81,-43,-41,31,-153,-150,-200,-202,-156
-91,-81,10,87,-49,-35,25,-153,-150,-194,-202,-156
-91,-69,21,81,-55,-23,13,-153,-156,-200,-196,-150
-97,-63,32,75,-67,-17,7,-159,-168,-206,-202,-156
-97,-57,38,75,-67,-11,1,-159,-168,-218,-208,-156
-97,-51,44,69,-73,-5,-5,-165,-162,-224,-214,-162
-97,-45,50,69,-73,1,-11,-171,-162,-224,-214,-162
-91,-39,50,63,-73,7,-5,-171,-156,-230,-208,-162
-103,-39,62,69,-85,13,1,-165,-156,-218,-202,-156
-103,-39,62,69,-85,13,1,-165,-156,-218,-202,-156
-103,-39,62,69,-85,13,1,-165,-150,-212,-190,-156
-103,-39,62,69,-85,13,1,-159,-156,-212,-196,-156
-115,-39,74,75,-97,19,1,-153,-156,-206,-196,-156
-115,-45,68,81,-91,13,-5,-153,-162,-212,-196,-162
-115,-39,74,75,-97,19,-5,-153,-168,-224,-202,-168
-115,-33,80,75,-97,24,-11,-153,-162,-230,-202,-174
-115,-27,86,69,-103,29,-5,-153,-162,-230,-202,-168
-115,-21,92,69,-103,35,-5,-153,-156,-236,-202,-174
-115,-21,92,69,-103,35,-5,-147,-150,-230,-202,-168
-115,-21,92,69,-103,35,-11,-141,-150,-230,-196,-168
-115,-27,86,69,-103,29,-11,-141,-150,-224,-196,-168
-115,-15,98,63,-109,41,-11,-135,-144,-224,-196,-174
-115,-9,104,63,-109,47,-11,-129,-138,-224,-190,-174
-115,-3,110,57,-115,53,-11,-135,-138,-230,-196,-174
-121,-3,116,57,-121,53,-17,-129,-138,-230,-196,-174
-115,-3,110,57,-115,53,-17,-129,-132,-230,-196,-174
-115,-3,110,57,-115,53,-17,-129,-132,-224,-202,-174
-121,-3,116,57,-121,53,-23,-123,-132,-218,-202,-174
-115,-3,110,57,-115,53,-23,-123,-132,-218,-202,-174
-115,3,116,57,-115,59,-23,-117,-126,-212,-202,-168
-115,-3,110,57,-115,53,-23,-117,-120,-212,-196,-168
-115,-9,104,63,-109,47,-17,-111,-114,-206,-190,-162
-109,-9,98,57,-103,41,-17,-111,-114,-200,-190,-162
-109,-9,98,57,-103,41,-17,-117,-108,-200,-190,-162
-103,-15,86,57,-97,35,-5,-117,-108,-200,-196,-168
-103,-15,86,57,-97,35,-5,-111,-102,-194,-190,-168
-103,-9,92,57,-97,41,-5,-105,-102,-188,-190,-168
-103,-9,92,57,-97,41,-5,-99,-102,-194,-190,-162
-109,-3,104,51,-109,47,-5,-93,-96,-188,-178,-156
-115,3,116,57,-115,59,-11,-93,-96,-188,-178,-156
-115,-3,110,57,-115,53,-17,-87,-96,-194,-184,-162
-115,3,116,57,-115,59,-11,-87,-96,-194,-184,-156
-115,9,122,51,-121,65,-11,-87,-96,-188,-184,-156
-121,9,128,51,-127,65,-5,-87,-96,-188,-190,-156
-121,15,134,51,-127,71,1,-75,-90,-176,-190,-156
-127,21,146,51,-139,83,7,-69,-90,-170,-190,-156
-115,21,134,45,-127,77,1,-75,-90,-170,-190,-156
-115,26,140,45,-127,83,1,-63,-84,-176,-190,-162
-115,31,146,45,-127,89,1,-57,-84,-176,-190,-162
-121,31,152,45,-133,89,1,-57,-78,-176,-190,-168
-127,31,158,51,-139,95,1,-51,-78,-176,-190,-174
-133,31,164,51,-145,95,1,-45,-72,-170,-190,-174
-139,26,164,57,-151,95,1,-27,-66,-164,-184,-174
-145,26,170,57,-157,95,1,-21,-60,-164,-184,-180
-133,31,164,51,-145,95,7,-4,-54,-152,-178,-180
-133,37,170,45,-151,101,7,-4,-48,-146,-178,-180
-127,37,164,45,-145,101,13,1,-42,-140,-172,-180
-127,49,176,39,-151,113,13,7,-42,-134,-172,-180
-133,49,182,39,-157,113,19,13,-36,-128,-172,-180
-139,43,182,51,-157,113,19,19,-36,-134,-172,-180
-139,49,188,45,-163,119,19,25,-30,-134,-178,-186
-151,55,206,51,-175,131,25,31,-24,-134,-178,-186
-157,61,218,45,-187,137,31,43,-19,-128,-178,-186
-151,67,218,45,-181,143,31,43,-19,-134,-178,-192
-151,73,224,39,-187,149,31,55,-14,-122,-178,-198
-163,79,242,45,-199,161,43,73,-2,-104,-166,-198
-169,79,248,45,-205,161,49,85,10,-104,-166,-198
-169,85,254,39,-211,167,49,91,22,-98,-172,-204
-169,97,266,33,-217,179,55,97,34,-98,-172,-204
-175,103,278,39,-223,191,61,109,40,-92,-172,-204
-169,109,278,27,-223,191,61,115,46,-92,-172,-204
-169,115,284,27,-223,197,67,121,52,-86,-166,-204
-175,121,296,27,-235,209,73,133,64,-80,-160,-204
-175,127,302,27,-235,215,73,151,76,-74,-160,-210
-175,133,308,21,-241,221,79,169,88,-62,-160,-222
-181,145,326,15,-253,233,85,181,100,-50,-160,-228
-187,145,332,21,-259,239,91,193,112,-44,-160,-234
-187,151,338,21,-259,245,97,205,124,-32,-154,-234
-193,157,350,15,-271,251,103,217,130,-20,-154,-228
-199,157,356,21,-277,257,109,235,148,-9,-154,-228
-205,157,362,21,-283,257,115,247,160,-9,-148,-228
-205,157,362,21,-283,257,133,265,178,2,-148,-228
-205,163,368,21,-283,263,145,289,196,14,-142,-228
-217,163,380,27,-295,269,157,313,214,26,-136,-222
-229,169,398,27,-313,281,175,337,232,38,-130,-222
-235,175,410,33,-319,293,181,355,244,50,-130,-222
-235,181,416,27,-325,299,193,373,262,62,-130,-228
-235,187,422,27,-325,305,199,385,274,62,-130,-234
-241,187,428,27,-331,305,211,403,292,74,-130,-240
-247,187,434,33,-337,311,223,421,310,92,-130,-240
-253,187,440,33,-343,311,235,439,322,104,-130,-246
-253,187,440,33,-343,311,241,463,334,116,-124,-252
-253,187,440,33,-343,311,247,475,346,122,-118,-258
-247,181,428,33,-337,305,259,481,358,128,-118,-258
-247,187,434,33,-337,311,265,499,364,140,-112,-258
-241,181,422,27,-331,299,277,511,382,152,-112,-252
-241,181,422,27,-331,299,289,529,394,164,-106,-252
-247,175,422,39,-331,299,301,553,406,176,-100,-246
-253,175,428,39,-337,299,313,565,424,188,-88,-240
-253,175,428,39,-337,299,319,583,436,200,-82,-234
-259,169,428,45,-343,299,325,595,454,212,-76,-234
-247,169,416,39,-331,293,331,607,460,218,-70,-234
-241,157,398,39,-319,275,325,613,472,224,-70,-228
-235,151,386,45,-307,269,325,619,478,236,-70,-222
-235,145,380,45,-307,263,331,631,484,248,-58,-210
-223,139,362,45,-289,251,331,637,496,260,-52,-204
-211,133,344,39,-277,239,331,643,496,266,-40,-204
-205,133,338,33,-271,233,331,643,502,272,-34,-192
-205,133,338,33,-271,233,331,637,502,278,-29,-186
-193,127,320,33,-253,221,319,631,496,278,-24,-180
-193,127,320,33,-253,221,313,613,484,278,-24,-174
-193,121,314,33,-253,215,301,601,472,278,-18,-162
-181,121,302,27,-241,209,283,577,460,272,-12,-162
-169,115,284,27,-223,197,265,541,442,260,-18,-156
-157,115,272,21,-211,191,253,511,424,254,-12,-144
-139,109,248,15,-193,179,235,481,406,248,0,-126
-133,103,236,15,-181,167,217,445,382,236,6,-108
-121,97,218,9,-169,155,199,409,358,218,12,-102
-115,91,206,15,-157,149,187,379,334,206,12,-84
-103,85,188,9,-145,137,169,349,310,194,12,-72
-91,73,164,9,-127,119,145,319,280,176,6,-60
-91,67,158,15,-121,113,127,283,250,158,6,-54
-85,61,146,9,-115,101,109,253,220,152,6,-48
-73,55,128,9,-97,89,91,217,196,134,0,-42
-67,49,116,9,-91,83,73,187,172,122,6,-30
-55,49,104,3,-79,77,61,157,148,110,6,-25
-43,49,92,-3,-67,71,43,133,124,92,6,-20
-37,49,86,-9,-61,65,31,109,100,80,0,-14
-37,43,80,-3,-55,59,19,91,82,68,6,-2
-37,43,80,-3,-55,59,1,73,64,62,6,4
-25,37,62,-9,-43,47,-11,55,46,44,-6,-2
-13,31,44,-9,-25,35,-29,31,28,32,-6,-2
-7,26,32,-9,-19,29,-41,13,16,26,-12,-2
-7,26,32,-9,-19,29,-47,-4,-2,8,-18,-8
-7,26,32,-9,-19,29,-47,-9,-8,8,-18,-2
-19,21,38,-3,-31,29,-47,-21,-19,2,-18,-2
-13,21,32,-9,-25,24,-52,-33,-30,-9,-24,-2
-7,21,26,-9,-19,24,-52,-45,-42,-14,-29,-2
-1,15,16,-9,-8,13,-57,-51,-54,-26,-29,-8
-7,9,16,-3,-13,13,-63,-57,-60,-32,-34,-8
-7,3,10,3,-8,7,-63,-57,-60,-38,-40,-14
4,3,-2,-3,3,1,-63,-57,-60,-44,-46,-20
9,3,-8,-3,9,1,-69,-63,-66,-50,-52,-20
15,-3,-20,-9,15,-11,-75,-75,-66,-56,-52,-25
9,-3,-14,-3,9,-5,-69,-75,-66,-50,-46,-20
-1,-3,-2,-3,-3,-5,-69,-75,-66,-44,-46,-14
-1,-3,-2,-3,-3,-5,-75,-75,-72,-44,-46,-14
-7,-3,4,3,-8,1,-75,-75,-78,-50,-52,-14
-7,-9,-2,9,-3,-5,-75,-75,-84,-50,-52,-14
-1,-9,-8,3,3,-11,-75,-75,-84,-50,-52,-8
