,,,,,,,,,,,
2019-09-04 23:52:50,,,,,,,,,,,
,,,,,,,,,,,
I,II,III,aVR,aVL,aVF,V1,V2,V3,V4,V5,V6
-528,-14,487,265,-486,187,1625,763,1691,6622,1022,1966
-126,39,223,55,-162,163,293,481,455,697,572,298
-60,69,175,7,-102,151,77,427,245,-256,482,10
-36,75,145,-10,-84,145,41,403,203,-406,452,-31
-30,81,139,-22,-78,139,29,391,179,-436,440,-49
-30,87,139,-22,-72,133,23,379,173,-448,434,-55
-30,87,139,-22,-72,133,17,373,161,-460,428,-67
-30,87,139,-22,-72,133,17,367,149,-466,428,-73
-30,87,139,-22,-72,133,17,355,137,-466,422,-85
-30,87,139,-22,-72,133,11,343,125,-472,416,-97
-36,87,139,-22,-72,127,11,325,119,-478,410,-103
-42,87,139,-16,-78,121,11,307,107,-478,398,-109
-54,81,139,-10,-84,121,11,295,101,-490,386,-121
-60,75,139,-4,-90,121,11,283,89,-502,374,-127
-66,69,139,1,-96,115,11,271,77,-502,362,-133
-72,63,139,7,-96,115,11,253,65,-508,350,-139
-78,57,139,13,-96,109,5,229,41,-514,344,-145
-84,51,139,19,-96,109,0,217,29,-520,338,-151
-90,45,139,25,-102,109,0,199,17,-526,332,-157
-96,45,139,31,-102,109,0,187,5,-532,326,-157
-96,39,139,31,-102,109,-6,175,-6,-538,320,-163
-102,33,139,37,-108,109,-6,163,-18,-544,308,-163
-108,27,139,43,-114,103,-6,157,-24,-544,302,-169
-114,21,139,49,-114,97,-12,145,-30,-550,296,-175
-120,15,139,55,-120,91,-12,139,-36,-550,290,-175
-126,9,139,61,-120,85,-18,127,-42,-550,290,-175
-126,9,139,67,-120,79,-24,115,-54,-556,284,-175
-126,3,139,67,-120,79,-24,103,-66,-556,278,-175
-126,-3,139,67,-120,79,-30,91,-72,-562,272,-175
-126,-3,139,67,-120,79,-30,85,-84,-568,266,-181
-132,-3,139,67,-126,79,-36,79,-90,-568,260,-187
-138,-8,139,67,-126,79,-36,73,-96,-574,254,-187
-138,-8,139,67,-126,79,-36,67,-102,-574,242,-187
-138,-8,139,67,-126,79,-42,61,-102,-574,236,-187
-138,-8,139,67,-126,79,-42,61,-102,-574,236,-193
-138,-8,139,73,-126,79,-42,61,-102,-574,236,-193
-138,-8,139,79,-126,79,-48,55,-102,-574,230,-193
-138,-8,139,79,-132,79,-48,55,-108,-574,230,-193
-138,-8,139,79,-132,73,-48,49,-108,-574,230,-199
-138,-8,139,79,-132,67,-48,49,-108,-574,230,-199
-138,-8,139,79,-132,67,-48,49,-114,-574,230,-199
-144,-14,139,79,-132,61,-48,49,-114,-574,230,-199
-144,-14,139,79,-132,61,-48,43,-114,-574,230,-199
-144,-20,139,85,-132,61,-48,43,-114,-574,230,-199
-144,-26,139,85,-132,55,-48,43,-114,-574,224,-199
-144,-26,133,85,-132,55,-48,43,-114,-574,224,-199
-144,-26,133,85,-132,55,-48,43,-114,-574,224,-199
-144,-26,127,85,-132,55,-48,43,-114,-574,224,-199
-144,-32,127,85,-132,55,-48,43,-114,-568,224,-199
-144,-32,121,85,-132,55,-48,43,-114,-568,224,-199
-144,-32,121,85,-132,55,-48,43,-114,-568,224,-199
-144,-32,121,85,-132,55,-48,43,-114,-568,224,-199
-144,-32,121,85,-132,55,-48,43,-114,-568,224,-199
-144,-32,121,85,-132,55,-48,43,-114,-568,224,-199
-144,-32,121,85,-132,55,-48,43,-114,-562,224,-199
-144,-32,121,85,-132,55,-48,43,-114,-562,224,-199
-144,-32,121,85,-132,55,-48,43,-114,-562,224,-199
-144,-32,121,85,-132,55,-48,43,-114,-556,224,-199
-144,-32,121,85,-132,55,-48,43,-114,-556,224,-199
-144,-32,121,85,-132,55,-48,43,-114,-550,224,-199
-144,-32,121,85,-132,55,-48,43,-114,-550,218,-199
-144,-32,121,85,-132,55,-48,43,-114,-550,218,-199
-144,-32,121,85,-132,55,-48,43,-114,-544,218,-199
-144,-32,121,85,-132,55,-48,43,-114,-538,218,-193
-144,-32,121,85,-132,55,-48,43,-114,-532,218,-193
-144,-32,121,85,-132,55,-48,43,-114,-532,218,-193
-144,-32,121,85,-132,55,-48,43,-114,-532,218,-187
-144,-32,121,85,-132,55,-48,43,-114,-532,218,-187
-144,-32,121,85,-132,55,-48,43,-114,-532,212,-187
-144,-32,121,85,-132,55,-48,43,-114,-532,206,-187
-144,-32,121,85,-132,55,-48,43,-114,-526,206,-187
-144,-32,121,85,-132,55,-48,43,-114,-526,206,-187
-144,-32,121,85,-132,55,-48,43,-114,-526,206,-187
-144,-32,121,85,-132,55,-48,43,-114,-526,206,-187
-144,-32,121,85,-132,55,-48,43,-114,-526,206,-187
-144,-32,121,85,-132,55,-48,43,-114,-526,206,-187
-144,-32,121,85,-132,55,-48,37,-114,-526,206,-181
-144,-32,121,85,-132,55,-48,37,-114,-526,206,-175
-144,-32,121,85,-132,49,-48,31,-120,-526,200,-175
-144,-32,121,85,-132,49,-48,25,-126,-526,200,-175
-144,-32,121,85,-132,49,-48,25,-126,-526,194,-175
-144,-32,121,85,-132,49,-48,25,-126,-526,188,-175
-144,-32,121,85,-132,49,-54,25,-126,-526,182,-175
-144,-32,121,85,-132,49,-54,25,-132,-526,176,-175
-144,-32,121,85,-132,49,-54,25,-132,-526,170,-175
-144,-32,115,85,-132,43,-54,25,-132,-526,170,-175
-144,-32,109,85,-126,43,-60,19,-138,-526,170,-175
-144,-32,109,85,-126,43,-60,13,-138,-526,170,-175
-144,-32,109,85,-126,43,-60,7,-138,-526,164,-175
-144,-32,109,85,-126,37,-60,1,-144,-526,164,-175
-144,-32,109,85,-126,37,-60,1,-144,-526,164,-175
-144,-32,109,85,-126,37,-66,-4,-150,-526,164,-175
-144,-38,109,85,-126,37,-66,-4,-150,-526,164,-175
-144,-38,109,85,-126,31,-66,-4,-150,-526,158,-175
-144,-38,109,85,-126,31,-66,-4,-150,-526,152,-175
-144,-38,109,85,-126,31,-66,-10,-156,-526,152,-175
-144,-38,109,85,-126,31,-66,-16,-156,-526,146,-175
-144,-38,109,85,-126,31,-66,-16,-162,-526,140,-175
-144,-38,109,85,-126,31,-66,-16,-162,-526,140,-175
-144,-38,103,85,-126,31,-72,-22,-162,-526,134,-175
-144,-38,103,85,-120,31,-78,-28,-162,-526,128,-175
-144,-38,103,85,-120,31,-78,-34,-168,-526,122,-175
-144,-38,103,85,-120,31,-78,-40,-174,-526,116,-181
-138,-38,97,85,-120,31,-78,-40,-180,-526,116,-187
-132,-38,97,85,-120,31,-84,-40,-180,-526,116,-187
-126,-38,97,85,-120,31,-84,-46,-186,-526,116,-187
-126,-38,97,85,-120,31,-84,-46,-186,-526,110,-187
-126,-38,91,85,-114,31,-84,-46,-186,-526,104,-187
-126,-38,85,85,-108,31,-84,-52,-186,-526,104,-187
-126,-38,85,85,-108,31,-84,-52,-186,-526,104,-187
-126,-38,79,85,-102,25,-84,-52,-186,-526,104,-187
-120,-44,73,85,-102,19,-84,-52,-186,-526,104,-187
-114,-50,67,85,-102,13,-84,-52,-186,-526,104,-187
-114,-50,61,85,-96,13,-84,-52,-186,-526,98,-187
-114,-56,55,85,-90,7,-84,-58,-192,-526,92,-187
-114,-56,49,85,-84,1,-84,-58,-198,-526,92,-187
-114,-56,49,85,-84,1,-84,-58,-198,-526,86,-187
-114,-56,49,85,-84,1,-84,-58,-204,-526,86,-187
-114,-56,43,85,-78,1,-84,-58,-204,-526,86,-187
-108,-56,43,85,-72,-4,-90,-64,-210,-526,80,-187
-102,-56,43,85,-66,-4,-90,-64,-216,-526,80,-187
-102,-56,43,85,-66,-4,-90,-64,-222,-526,80,-187
-96,-56,37,85,-66,-4,-90,-70,-222,-526,74,-187
-90,-56,37,85,-66,-4,-90,-70,-222,-526,68,-187
-84,-56,37,79,-60,-4,-90,-70,-222,-526,62,-187
-84,-56,37,79,-60,-4,-90,-70,-228,-526,56,-187
-84,-56,37,73,-60,-4,-90,-70,-228,-526,56,-187
-84,-56,37,73,-60,-4,-90,-76,-228,-526,56,-193
-84,-56,37,73,-60,-4,-96,-76,-228,-526,56,-193
-84,-56,31,73,-60,-10,-96,-76,-228,-526,56,-193
-84,-56,31,73,-54,-16,-96,-82,-234,-526,50,-193
-84,-56,31,73,-54,-16,-96,-82,-234,-526,50,-193
-84,-56,31,73,-54,-16,-96,-82,-234,-526,50,-193
-84,-56,31,73,-54,-16,-96,-82,-234,-526,50,-193
-84,-62,25,73,-48,-16,-102,-82,-234,-526,50,-193
-78,-62,19,73,-48,-16,-102,-82,-234,-526,44,-193
-78,-62,13,73,-42,-16,-102,-82,-234,-526,38,-193
-72,-62,7,73,-36,-22,-102,-82,-234,-526,38,-193
-66,-62,7,73,-30,-28,-102,-82,-234,-526,38,-193
-66,-62,1,73,-30,-28,-102,-82,-234,-526,38,-193
-60,-62,1,67,-30,-28,-102,-82,-234,-526,38,-193
-60,-62,1,67,-30,-28,-102,-82,-234,-526,38,-193
-54,-62,1,67,-30,-28,-102,-82,-234,-520,38,-193
-54,-56,1,61,-30,-28,-102,-82,-234,-514,38,-193
-54,-50,1,55,-30,-22,-102,-82,-234,-508,38,-193
-48,-38,7,43,-30,-16,-102,-82,-228,-496,38,-187
-48,-26,19,31,-30,-4,-102,-82,-222,-484,38,-181
-48,-8,31,19,-30,7,-96,-76,-216,-472,44,-175
-42,9,37,7,-30,19,-84,-70,-210,-460,50,-169
-36,21,43,-4,-30,25,-78,-64,-204,-454,50,-163
-30,27,49,-10,-30,31,-72,-58,-198,-448,50,-157
-18,33,49,-16,-30,31,-66,-46,-192,-442,50,-151
-12,33,49,-22,-30,31,-66,-40,-186,-436,50,-145
-6,33,49,-22,-30,31,-60,-34,-180,-430,56,-145
-1,39,49,-22,-30,37,-54,-28,-174,-424,56,-145
-1,45,49,-28,-30,43,-48,-22,-168,-412,56,-145
5,57,49,-34,-30,55,-48,-16,-162,-400,62,-139
11,63,49,-40,-30,61,-48,-16,-156,-394,62,-133
17,69,49,-52,-30,67,-60,-16,-156,-388,62,-127
23,81,55,-64,-30,73,-72,-16,-156,-388,68,-127
29,93,61,-70,-30,79,-84,-16,-156,-382,74,-121
35,105,73,-76,-30,85,-90,-22,-156,-382,80,-115
35,111,79,-76,-30,91,-96,-28,-156,-382,80,-109
35,117,79,-76,-30,91,-96,-34,-156,-382,80,-109
41,117,79,-82,-30,97,-102,-40,-156,-382,80,-103
41,117,79,-82,-30,97,-102,-40,-156,-382,80,-97
41,117,79,-82,-30,97,-108,-40,-156,-382,80,-97
41,117,79,-82,-24,97,-108,-40,-156,-376,80,-97
47,117,79,-82,-18,97,-108,-40,-156,-376,80,-97
47,117,79,-82,-12,97,-108,-40,-156,-376,80,-97
47,117,73,-82,-12,97,-108,-40,-150,-370,80,-97
53,117,73,-82,-6,97,-108,-34,-150,-364,80,-97
53,117,67,-82,0,91,-108,-34,-150,-358,80,-97
53,111,61,-82,5,85,-108,-34,-150,-358,80,-97
53,99,49,-82,5,79,-114,-40,-150,-358,80,-97
53,87,43,-82,5,67,-126,-52,-156,-364,74,-97
53,75,37,-82,5,55,-132,-58,-168,-370,68,-97
53,63,25,-76,11,43,-138,-70,-174,-376,62,-97
53,51,13,-64,17,19,-138,-76,-186,-388,50,-103
53,27,1,-52,17,7,-138,-82,-198,-400,38,-109
47,15,-4,-40,17,-4,-138,-88,-210,-412,26,-121
41,3,-10,-28,17,-10,-138,-94,-222,-424,14,-127
29,-8,-10,-16,17,-16,-138,-100,-234,-436,-3,-139
17,-20,-10,-4,17,-22,-138,-106,-240,-448,-15,-151
5,-38,-16,7,17,-34,-138,-112,-252,-454,-27,-157
-6,-50,-22,19,17,-40,-138,-118,-252,-460,-33,-163
-12,-62,-28,25,17,-46,-138,-124,-258,-466,-39,-169
-18,-74,-34,37,17,-52,-138,-130,-270,-472,-45,-175
-24,-80,-40,43,17,-58,-138,-136,-276,-478,-51,-181
-24,-86,-46,49,17,-64,-138,-142,-282,-490,-63,-187
-24,-92,-52,55,17,-70,-138,-142,-288,-496,-69,-193
-24,-98,-52,55,17,-76,-138,-148,-294,-502,-75,-193
-24,-98,-58,55,17,-82,-138,-154,-300,-508,-81,-193
-24,-104,-58,55,17,-88,-138,-154,-306,-508,-87,-193
-24,-110,-64,55,17,-94,-138,-154,-312,-508,-87,-193
-24,-110,-64,55,17,-94,-138,-154,-312,-508,-87,-193
-24,-110,-64,55,17,-94,-138,-154,-312,-508,-87,-193
-24,-110,-64,55,17,-94,-138,-148,-312,-502,-87,-193
-24,-110,-64,55,17,-94,-138,-142,-306,-496,-87,-193
-30,-110,-64,55,17,-94,-132,-136,-300,-490,-87,-193
-36,-110,-52,55,11,-88,-126,-130,-288,-478,-81,-193
-42,-104,-40,55,5,-76,-114,-118,-270,-460,-75,-187
-48,-98,-28,55,0,-64,-102,-100,-246,-442,-63,-181
-54,-86,-10,55,-12,-52,-78,-70,-228,-412,-51,-175
-60,-80,7,55,-24,-40,-66,-46,-198,-382,-21,-169
-66,-68,19,55,-36,-28,-54,-16,-168,-358,8,-163
-72,-56,37,55,-48,-16,-36,19,-138,-322,38,-151
-78,-38,61,55,-66,7,-12,55,-96,-280,68,-121
-84,-20,79,49,-78,37,17,85,-54,-238,98,-91
-90,-3,109,49,-90,49,35,115,-24,-196,128,-73
-96,9,127,43,-108,73,53,145,11,-166,158,-55
-102,21,151,43,-120,85,83,181,53,-124,188,-43
-108,33,169,43,-132,103,119,247,107,-82,218,-31
-108,39,181,37,-138,115,161,343,179,-34,248,-19
-108,45,187,31,-138,115,209,469,287,43,284,-13
-108,57,193,19,-138,121,287,631,431,151,344,-2
-108,93,205,-10,-138,139,383,835,617,319,452,40
-96,159,217,-52,-138,181,473,1033,833,511,608,124
-54,261,253,-118,-138,259,545,1207,1049,733,806,256
-18,369,331,-172,-144,349,647,1441,1325,1021,1040,406
11,465,427,-238,-168,451,791,1801,1691,1345,1304,574
53,561,469,-310,-180,523,941,2184,2074,1675,1556,730
125,651,505,-388,-180,577,1007,2388,2380,1987,1814,898
173,753,553,-466,-180,649,1043,2400,2547,2250,2065,1072
221,861,601,-538,-180,727,1049,2322,2595,2435,2293,1240
275,939,631,-616,-180,769,995,2035,2589,2519,2454,1378
341,1041,649,-706,-168,829,785,1651,2481,2567,2604,1534
407,1149,685,-790,-162,907,581,1219,2296,2585,2724,1672
437,1173,697,-814,-156,931,395,871,2128,2585,2754,1714
437,1155,697,-808,-150,925,293,655,2003,2525,2694,1702
389,969,631,-688,-144,805,227,463,1823,2304,2371,1480
299,711,481,-514,-132,601,155,277,1559,1969,1976,1156
179,471,355,-340,-120,409,89,61,1223,1573,1568,850
59,303,307,-184,-120,301,35,-148,839,1159,1208,586
-54,195,295,-70,-138,247,-18,-370,425,715,848,328
-156,123,295,1,-192,217,-120,-574,11,253,482,100
-216,81,295,55,-228,199,-228,-712,-360,-166,176,-73
-252,39,295,91,-246,175,-300,-802,-624,-484,-33,-157
-258,-3,271,121,-246,133,-336,-826,-738,-670,-177,-199
-258,-44,205,127,-234,79,-360,-826,-756,-718,-249,-229
-246,-68,157,133,-192,43,-372,-802,-756,-730,-267,-235
-222,-74,127,133,-168,31,-384,-778,-744,-730,-273,-241
-192,-74,121,127,-156,31,-396,-748,-714,-724,-273,-241
-180,-74,121,121,-150,31,-402,-718,-684,-712,-267,-241
-168,-68,115,109,-144,31,-408,-676,-654,-700,-261,-241
-156,-68,103,103,-126,25,-408,-628,-636,-694,-261,-241
-144,-68,79,97,-102,13,-408,-568,-606,-682,-261,-241
-132,-68,49,91,-78,1,-396,-502,-570,-670,-261,-241
-114,-68,19,85,-60,-10,-360,-442,-522,-634,-255,-241
-90,-68,-4,79,-42,-22,-312,-388,-486,-604,-249,-241
-78,-68,-16,73,-24,-34,-282,-352,-462,-586,-243,-241
-60,-74,-28,73,-12,-40,-246,-316,-432,-574,-237,-241
-48,-80,-40,67,0,-52,-228,-292,-420,-568,-231,-241
-42,-86,-46,67,5,-58,-216,-274,-414,-562,-231,-241
-42,-92,-52,67,11,-70,-210,-262,-408,-562,-231,-241
-42,-98,-58,67,17,-82,-204,-250,-402,-562,-225,-241
-42,-104,-70,67,23,-88,-204,-238,-396,-556,-225,-241
-42,-104,-76,67,29,-94,-198,-226,-390,-556,-225,-241
-36,-104,-88,67,35,-100,-192,-220,-384,-550,-225,-235
-30,-104,-94,67,41,-100,-186,-214,-378,-550,-225,-229
-24,-104,-100,67,47,-100,-186,-214,-372,-550,-225,-223
-18,-104,-106,67,47,-100,-180,-208,-372,-544,-225,-217
-12,-104,-106,61,53,-106,-180,-202,-366,-538,-225,-217
-6,-104,-106,55,59,-106,-180,-196,-360,-538,-219,-217
-1,-104,-106,49,65,-106,-174,-190,-360,-538,-219,-217
-1,-104,-112,49,65,-106,-168,-184,-354,-538,-219,-217
-1,-104,-112,43,71,-106,-162,-178,-348,-526,-213,-217
5,-104,-112,43,71,-106,-156,-172,-342,-520,-213,-211
11,-104,-112,43,71,-106,-150,-166,-336,-508,-213,-205
17,-104,-118,43,77,-106,-144,-160,-330,-502,-213,-199
23,-104,-124,43,77,-106,-138,-160,-324,-496,-207,-199
23,-104,-130,37,77,-112,-138,-160,-318,-490,-201,-199
29,-104,-136,37,83,-118,-132,-160,-318,-490,-201,-193
35,-104,-136,37,89,-118,-132,-160,-312,-484,-201,-193
41,-104,-142,31,95,-118,-132,-160,-312,-484,-201,-193
47,-104,-148,31,101,-124,-132,-154,-306,-484,-195,-187
47,-104,-148,25,107,-124,-132,-154,-306,-478,-189,-187
47,-104,-148,19,107,-124,-132,-154,-306,-478,-189,-187
53,-104,-148,19,107,-124,-132,-154,-306,-472,-189,-187
59,-104,-148,13,107,-124,-132,-154,-300,-472,-189,-187
65,-104,-148,13,107,-124,-132,-154,-300,-466,-189,-181
65,-104,-148,7,107,-124,-132,-154,-300,-466,-189,-181
71,-104,-148,1,107,-124,-132,-154,-300,-466,-189,-181
71,-98,-148,-4,107,-124,-132,-154,-294,-460,-189,-175
71,-98,-148,-4,113,-124,-132,-148,-294,-454,-183,-169
71,-98,-148,-4,119,-124,-132,-148,-288,-448,-183,-163
77,-98,-154,-4,125,-124,-132,-148,-288,-442,-177,-163
83,-98,-154,-10,131,-124,-132,-148,-282,-436,-171,-163
89,-98,-154,-16,131,-124,-132,-142,-282,-436,-171,-163
95,-98,-154,-16,137,-124,-132,-136,-282,-430,-171,-163
101,-98,-160,-22,143,-124,-132,-136,-276,-430,-171,-157
107,-98,-166,-22,143,-124,-132,-130,-276,-424,-171,-157
107,-92,-166,-28,143,-124,-132,-130,-276,-424,-171,-151
113,-92,-172,-28,149,-124,-132,-130,-276,-424,-171,-151
113,-86,-178,-34,149,-124,-138,-130,-270,-418,-171,-145
119,-80,-178,-40,149,-124,-144,-130,-264,-418,-171,-139
125,-74,-178,-46,149,-124,-150,-130,-258,-412,-171,-139
131,-68,-178,-52,149,-124,-156,-130,-258,-406,-171,-139
137,-62,-178,-58,155,-124,-162,-130,-258,-406,-171,-139
143,-56,-178,-64,155,-124,-168,-130,-252,-406,-171,-139
149,-50,-178,-70,161,-124,-174,-130,-252,-400,-171,-133
155,-44,-178,-76,167,-124,-174,-130,-246,-400,-165,-127
161,-38,-178,-76,173,-118,-180,-130,-240,-394,-165,-127
161,-38,-178,-76,173,-112,-186,-130,-240,-394,-165,-127
167,-32,-178,-82,173,-112,-192,-130,-240,-388,-165,-127
167,-26,-178,-82,173,-112,-198,-130,-234,-382,-165,-121
173,-20,-178,-88,179,-112,-204,-130,-228,-376,-165,-115
179,-14,-178,-94,179,-112,-210,-130,-222,-376,-165,-115
185,-8,-178,-94,185,-112,-216,-130,-216,-370,-165,-115
191,-3,-178,-100,185,-112,-222,-130,-210,-370,-165,-115
197,-3,-178,-100,185,-106,-228,-130,-204,-364,-159,-115
203,3,-178,-106,185,-106,-234,-124,-198,-358,-147,-109
203,9,-178,-112,191,-100,-234,-118,-192,-352,-141,-103
209,15,-178,-124,197,-100,-234,-118,-192,-346,-135,-97
209,21,-178,-130,197,-100,-240,-112,-186,-340,-129,-91
215,27,-178,-136,203,-100,-246,-106,-180,-340,-129,-85
227,33,-184,-142,209,-100,-252,-100,-174,-334,-123,-79
239,33,-190,-148,215,-100,-252,-88,-168,-328,-117,-73
251,39,-190,-154,221,-100,-252,-76,-156,-316,-105,-61
257,39,-196,-160,227,-100,-258,-70,-144,-310,-99,-55
263,45,-196,-160,233,-100,-258,-64,-132,-304,-93,-49
269,45,-202,-166,239,-100,-258,-58,-126,-298,-87,-43
275,45,-208,-172,251,-100,-264,-52,-120,-292,-87,-37
281,45,-214,-178,257,-100,-264,-46,-114,-286,-81,-37
287,45,-220,-184,263,-100,-264,-40,-108,-280,-75,-37
293,51,-226,-190,263,-100,-264,-28,-102,-274,-75,-37
299,57,-226,-190,263,-94,-264,-22,-96,-274,-75,-37
305,57,-226,-190,263,-94,-270,-10,-90,-268,-69,-31
311,63,-226,-196,263,-88,-270,1,-84,-262,-63,-31
317,75,-226,-202,263,-82,-270,13,-72,-256,-57,-25
317,87,-226,-208,263,-76,-270,19,-66,-250,-51,-25
317,93,-226,-208,263,-70,-270,25,-60,-244,-45,-25
317,99,-220,-214,263,-64,-270,37,-54,-238,-39,-19
317,99,-214,-220,263,-58,-264,43,-48,-232,-39,-13
317,99,-208,-220,263,-58,-258,49,-42,-226,-33,-7
317,99,-208,-220,263,-58,-252,61,-30,-214,-27,-2
317,99,-202,-220,263,-58,-240,73,-18,-208,-21,4
317,99,-202,-220,263,-58,-228,85,-6,-202,-15,10
317,99,-196,-220,257,-58,-222,97,5,-190,-9,10
317,99,-196,-220,251,-58,-210,109,11,-184,-3,10
311,99,-190,-220,245,-52,-204,121,23,-178,2,10
305,99,-190,-220,245,-52,-192,133,29,-166,2,10
299,99,-184,-220,239,-52,-180,145,35,-160,2,10
293,99,-178,-220,239,-52,-174,157,47,-148,8,10
287,99,-172,-220,233,-52,-162,169,53,-142,14,10
281,99,-166,-214,227,-46,-150,181,59,-136,14,10
275,99,-160,-208,221,-46,-132,193,65,-130,14,10
269,99,-154,-202,215,-46,-120,205,77,-124,14,10
263,99,-154,-196,209,-46,-108,217,83,-112,14,10
257,93,-154,-190,203,-46,-96,229,89,-100,20,10
245,93,-148,-184,197,-46,-84,235,101,-94,26,10
233,93,-142,-178,191,-46,-78,235,107,-82,26,10
221,87,-136,-172,185,-46,-66,241,113,-70,32,10
209,81,-130,-160,179,-46,-54,241,119,-64,32,10
197,75,-130,-154,173,-46,-42,241,119,-58,32,4
191,69,-124,-148,161,-46,-36,241,125,-58,32,4
185,69,-118,-142,155,-46,-30,241,125,-52,32,4
179,69,-112,-136,149,-46,-24,241,125,-46,32,4
173,69,-106,-130,143,-46,-18,241,125,-40,32,4
167,63,-106,-124,137,-46,-12,241,125,-40,32,-2
161,63,-106,-124,131,-46,-12,235,125,-34,32,-7
155,57,-106,-118,131,-46,-12,223,119,-34,32,-13
149,57,-106,-112,131,-46,-12,211,113,-34,32,-19
143,51,-106,-106,131,-46,-12,199,107,-34,32,-25
137,45,-100,-100,125,-46,-12,187,95,-34,32,-37
131,39,-94,-94,119,-46,-12,175,83,-34,26,-43
125,33,-88,-88,113,-46,-12,163,71,-34,20,-55
119,33,-88,-82,107,-46,-12,145,59,-40,14,-61
113,33,-82,-82,101,-46,-12,133,47,-46,2,-67
107,27,-82,-76,95,-46,-12,121,35,-52,-3,-73
95,27,-76,-70,89,-46,-12,109,29,-58,-9,-79
89,27,-70,-64,83,-46,-12,91,23,-70,-15,-79
83,21,-70,-58,77,-46,-12,79,11,-76,-21,-85
77,15,-70,-52,77,-46,-12,67,5,-82,-21,-85
71,9,-70,-46,71,-46,-12,55,-1,-88,-21,-85
65,3,-70,-40,65,-46,-12,49,-6,-94,-21,-85
65,-3,-70,-34,65,-46,-12,43,-12,-94,-21,-85
59,-3,-70,-28,65,-46,-12,37,-18,-94,-21,-85
59,-8,-70,-28,65,-46,-12,31,-24,-100,-27,-85
59,-14,-70,-22,65,-46,-12,25,-30,-106,-33,-85
59,-20,-70,-22,65,-46,-12,19,-36,-112,-33,-85
59,-26,-70,-22,65,-46,-12,13,-42,-124,-33,-85
53,-26,-70,-16,65,-52,-18,1,-42,-130,-39,-85
47,-26,-70,-16,65,-52,-18,-4,-48,-136,-39,-85
47,-32,-70,-16,65,-52,-18,-10,-48,-142,-39,-85
47,-32,-70,-16,65,-52,-18,-10,-48,-142,-39,-85
47,-38,-70,-16,65,-52,-18,-16,-54,-142,-39,-85
47,-38,-70,-10,65,-52,-18,-16,-60,-142,-39,-85
41,-38,-70,-10,65,-52,-18,-22,-60,-142,-39,-85
41,-38,-70,-10,65,-52,-24,-22,-60,-142,-39,-85
41,-38,-70,-10,65,-52,-24,-22,-60,-142,-39,-85
41,-38,-70,-10,65,-52,-24,-28,-60,-148,-39,-85
41,-38,-70,-10,65,-52,-24,-28,-60,-148,-39,-85
41,-38,-70,-10,59,-52,-24,-34,-60,-148,-39,-91
41,-38,-70,-10,59,-52,-24,-34,-60,-148,-39,-91
35,-38,-70,-10,59,-52,-24,-34,-60,-148,-39,-91
35,-38,-70,-10,59,-52,-24,-40,-60,-148,-39,-91
35,-38,-70,-10,59,-52,-24,-40,-60,-148,-39,-91
35,-38,-70,-10,59,-52,-24,-40,-66,-148,-39,-91
35,-38,-70,-10,59,-52,-24,-40,-66,-148,-39,-97
35,-38,-70,-10,59,-52,-24,-46,-66,-154,-39,-97
35,-38,-70,-10,59,-52,-24,-46,-66,-154,-39,-97
35,-38,-70,-10,59,-52,-30,-46,-72,-154,-39,-97
35,-38,-70,-10,53,-52,-30,-46,-72,-154,-39,-97
35,-38,-70,-10,53,-52,-36,-46,-72,-154,-39,-97
35,-38,-70,-10,53,-52,-36,-46,-72,-154,-39,-97
35,-38,-70,-10,53,-52,-36,-46,-72,-154,-39,-97
35,-38,-70,-10,53,-52,-36,-46,-72,-160,-39,-97
35,-38,-70,-10,53,-52,-36,-46,-72,-160,-39,-97
35,-38,-64,-10,53,-52,-36,-46,-78,-166,-39,-97
35,-38,-64,-10,53,-52,-36,-46,-78,-172,-39,-97
35,-38,-64,-10,53,-52,-36,-46,-78,-184,-45,-97
35,-38,-64,-10,53,-52,-36,-46,-84,-190,-45,-97
35,-38,-58,-10,53,-52,-36,-46,-84,-202,-45,-97
35,-38,-58,-10,53,-52,-36,-46,-84,-208,-45,-97
35,-38,-58,-10,53,-52,-36,-46,-84,-214,-45,-97
35,-38,-58,-10,53,-52,-36,-46,-84,-220,-45,-97
35,-38,-58,-10,53,-52,-36,-46,-84,-220,-45,-97
35,-38,-58,-10,53,-52,-36,-46,-90,-220,-45,-97
35,-38,-58,-10,53,-52,-36,-46,-90,-220,-45,-97
35,-38,-58,-10,53,-52,-36,-46,-90,-220,-45,-97
41,-38,-58,-10,53,-52,-36,-46,-90,-220,-45,-97
41,-38,-58,-10,53,-52,-36,-46,-90,-220,-45,-97
41,-38,-58,-10,53,-52,-36,-46,-90,-220,-45,-97
41,-38,-58,-10,53,-52,-36,-46,-90,-220,-45,-97
41,-38,-58,-10,53,-52,-36,-46,-90,-220,-45,-97
41,-38,-58,-10,53,-52,-36,-46,-90,-220,-45,-97
41,-38,-58,-10,53,-52,-36,-46,-90,-220,-45,-97
41,-38,-58,-10,53,-52,-36,-52,-90,-220,-45,-97
41,-38,-58,-10,53,-52,-36,-52,-90,-220,-45,-97
41,-38,-58,-10,53,-52,-36,-52,-90,-220,-51,-97
41,-38,-58,-10,53,-52,-36,-58,-90,-220,-51,-97
41,-44,-64,-4,53,-52,-36,-64,-96,-220,-51,-97
41,-44,-64,1,53,-52,-36,-64,-96,-220,-57,-97
41,-44,-64,1,53,-52,-36,-64,-96,-220,-63,-97
41,-44,-64,1,53,-52,-36,-70,-96,-220,-63,-97
41,-44,-64,1,53,-52,-36,-70,-96,-220,-63,-97
41,-44,-64,1,53,-52,-36,-70,-96,-220,-63,-97
41,-44,-64,1,53,-52,-36,-70,-96,-220,-63,-97
41,-44,-64,1,53,-52,-36,-76,-102,-220,-63,-97
41,-44,-64,1,53,-52,-36,-76,-102,-220,-63,-97
41,-44,-64,1,53,-52,-36,-76,-102,-220,-63,-97
41,-44,-64,1,53,-52,-36,-76,-108,-220,-69,-97
41,-44,-64,1,53,-52,-36,-82,-114,-220,-69,-97
41,-44,-64,1,53,-52,-36,-88,-114,-220,-69,-97
41,-50,-64,1,53,-52,-36,-88,-120,-220,-69,-97
41,-50,-64,1,53,-52,-36,-88,-120,-226,-75,-97
41,-50,-64,1,53,-52,-36,-94,-120,-226,-75,-97
41,-50,-64,1,53,-52,-36,-94,-126,-226,-75,-97
41,-50,-64,1,53,-52,-36,-94,-132,-232,-81,-97
41,-50,-64,7,53,-52,-36,-94,-132,-238,-87,-97
41,-50,-64,7,53,-52,-36,-94,-132,-244,-93,-97
41,-50,-64,7,53,-52,-36,-100,-132,-250,-99,-97
41,-50,-64,7,53,-58,-36,-106,-138,-250,-99,-97
41,-50,-64,7,53,-58,-36,-112,-138,-250,-99,-97
41,-50,-64,7,53,-58,-36,-112,-144,-250,-99,-103
41,-50,-64,7,53,-58,-36,-118,-144,-250,-99,-103
41,-50,-64,13,53,-58,-36,-118,-144,-250,-99,-109
41,-50,-64,13,53,-58,-36,-118,-144,-250,-99,-115
41,-50,-64,13,53,-58,-36,-118,-144,-250,-99,-115
41,-50,-64,13,53,-58,-36,-118,-150,-256,-99,-115
41,-50,-64,13,53,-58,-36,-118,-150,-256,-99,-115
41,-50,-64,13,53,-58,-36,-124,-150,-262,-105,-115
41,-50,-64,13,53,-58,-36,-130,-156,-262,-105,-121
41,-50,-64,13,53,-58,-36,-130,-156,-262,-105,-121
41,-50,-64,13,53,-58,-36,-130,-156,-262,-105,-121
41,-50,-64,13,53,-58,-36,-136,-156,-262,-105,-121
41,-50,-64,13,53,-58,-36,-136,-156,-262,-105,-121
41,-50,-64,13,53,-58,-36,-136,-162,-262,-111,-121
41,-50,-64,13,53,-58,-36,-136,-168,-262,-111,-121
41,-50,-64,13,53,-58,-36,-136,-168,-262,-111,-121
41,-56,-64,19,53,-58,-36,-136,-168,-262,-111,-121
41,-56,-64,19,53,-64,-36,-136,-168,-262,-111,-121
41,-62,-64,19,53,-70,-36,-136,-168,-262,-111,-121
41,-62,-64,25,53,-76,-36,-136,-168,-262,-111,-121
41,-62,-70,25,53,-76,-36,-136,-168,-262,-111,-121
41,-68,-76,25,53,-76,-36,-136,-168,-262,-111,-121
41,-74,-82,31,53,-82,-36,-136,-168,-262,-111,-121
41,-80,-88,31,53,-82,-36,-136,-168,-262,-111,-121
41,-80,-88,31,53,-82,-36,-136,-168,-262,-111,-121
41,-80,-94,31,53,-82,-36,-136,-168,-262,-111,-121
41,-80,-94,31,53,-82,-36,-136,-168,-262,-111,-121
41,-80,-94,31,53,-82,-36,-136,-168,-262,-111,-121
41,-80,-94,31,53,-82,-36,-142,-168,-262,-117,-121
41,-80,-94,31,53,-82,-36,-142,-168,-262,-117,-121
41,-80,-94,31,53,-82,-36,-142,-168,-262,-117,-121
41,-80,-94,31,53,-82,-36,-142,-168,-262,-117,-121
41,-80,-88,31,53,-82,-36,-142,-168,-262,-117,-121
41,-80,-88,31,53,-82,-36,-142,-168,-262,-117,-121
41,-80,-82,31,53,-82,-36,-142,-174,-262,-117,-121
41,-80,-82,31,53,-82,-36,-142,-174,-262,-117,-121
35,-80,-82,31,53,-82,-36,-142,-174,-262,-117,-121
35,-80,-76,31,53,-82,-36,-142,-174,-262,-117,-121
35,-80,-76,31,53,-82,-36,-142,-174,-262,-123,-121
35,-80,-76,31,53,-82,-36,-142,-180,-262,-123,-121
29,-80,-76,31,53,-82,-36,-142,-180,-262,-123,-121
29,-80,-76,31,53,-82,-36,-142,-180,-262,-123,-121
29,-80,-76,31,53,-82,-36,-142,-186,-262,-123,-121
29,-80,-76,31,53,-82,-36,-142,-186,-262,-123,-121
29,-80,-76,31,53,-82,-36,-142,-186,-262,-123,-121
29,-80,-76,31,53,-82,-36,-142,-186,-262,-123,-121
29,-80,-76,31,53,-82,-36,-142,-186,-262,-123,-121
29,-80,-76,31,53,-82,-36,-142,-186,-262,-123,-121
29,-80,-76,31,53,-82,-36,-142,-186,-262,-123,-121
29,-74,-76,31,53,-82,-36,-142,-186,-262,-123,-121
29,-68,-70,31,53,-76,-30,-142,-186,-262,-123,-121
29,-62,-64,25,53,-70,-30,-142,-186,-256,-123,-121
29,-50,-58,25,53,-64,-30,-142,-186,-250,-123,-121
29,-38,-52,19,53,-52,-24,-142,-180,-250,-123,-115
35,-26,-46,13,53,-40,-18,-142,-174,-244,-117,-109
41,-14,-40,7,53,-28,-12,-136,-168,-238,-111,-103
47,-3,-34,1,53,-16,-6,-130,-162,-232,-105,-97
53,9,-28,-10,53,-10,0,-118,-156,-226,-99,-91
53,21,-28,-16,53,-4,0,-112,-150,-220,-93,-91
59,27,-28,-22,53,1,0,-106,-144,-214,-87,-91
59,33,-28,-34,53,7,0,-100,-144,-214,-87,-85
59,39,-22,-40,53,13,5,-94,-138,-208,-81,-85
59,45,-16,-46,53,19,5,-88,-132,-208,-81,-85
59,51,-10,-52,53,25,5,-82,-126,-202,-81,-85
65,57,-4,-52,53,31,5,-82,-126,-202,-75,-85
71,63,1,-58,53,31,5,-82,-126,-196,-69,-79
77,69,1,-64,53,37,-6,-82,-126,-196,-63,-67
77,81,7,-70,53,43,-18,-88,-126,-196,-57,-61
83,93,13,-76,53,43,-24,-94,-126,-196,-57,-55
89,99,13,-82,53,49,-30,-100,-126,-196,-57,-49
95,105,13,-88,53,49,-36,-106,-126,-196,-51,-43
101,105,13,-88,53,49,-42,-106,-126,-196,-51,-43
107,105,13,-88,53,49,-42,-112,-126,-196,-51,-43
113,105,13,-88,53,49,-42,-112,-126,-196,-45,-37
113,105,13,-94,59,49,-42,-112,-120,-190,-45,-31
113,105,13,-94,59,49,-42,-106,-114,-184,-45,-25
113,105,7,-94,59,49,-42,-100,-114,-184,-45,-25
113,105,1,-94,59,49,-42,-100,-114,-178,-45,-25
113,105,-4,-94,65,43,-42,-100,-108,-178,-39,-25
113,99,-10,-94,65,37,-42,-100,-102,-178,-39,-25
113,99,-16,-94,71,37,-42,-100,-102,-178,-39,-25
113,99,-22,-94,77,31,-48,-106,-108,-178,-39,-25
113,93,-28,-94,83,25,-60,-118,-120,-184,-45,-25
113,81,-34,-88,89,13,-72,-130,-132,-196,-51,-31
113,69,-40,-82,89,7,-78,-142,-144,-208,-57,-31
113,57,-46,-76,89,1,-84,-154,-156,-220,-69,-37
113,45,-52,-64,89,-10,-84,-166,-168,-238,-75,-43
107,21,-58,-52,89,-22,-84,-172,-180,-250,-87,-55
95,9,-64,-34,89,-28,-84,-178,-192,-262,-99,-67
83,-3,-64,-22,83,-34,-84,-184,-198,-268,-111,-73
71,-20,-64,-10,83,-46,-84,-190,-210,-274,-123,-79
59,-32,-70,7,83,-58,-84,-196,-216,-286,-135,-91
47,-44,-70,19,83,-70,-84,-202,-222,-292,-147,-97
41,-62,-70,31,83,-76,-84,-202,-228,-298,-153,-103
35,-74,-76,37,83,-82,-84,-202,-234,-304,-159,-109
29,-86,-82,43,83,-88,-84,-202,-240,-316,-165,-121
23,-98,-88,49,83,-94,-84,-208,-252,-328,-171,-127
23,-104,-94,49,83,-100,-84,-214,-264,-334,-177,-133
23,-110,-100,55,83,-106,-84,-226,-270,-340,-183,-133
23,-110,-100,55,83,-106,-84,-232,-276,-346,-189,-139
23,-116,-100,55,83,-106,-84,-238,-282,-352,-189,-139
17,-116,-100,55,83,-112,-84,-238,-282,-352,-189,-139
17,-122,-106,55,83,-118,-84,-238,-282,-352,-189,-139
17,-122,-106,55,83,-118,-84,-238,-282,-352,-189,-139
17,-122,-112,55,83,-118,-84,-238,-282,-352,-189,-139
17,-122,-112,55,83,-118,-84,-238,-276,-352,-189,-139
17,-122,-112,55,77,-118,-84,-226,-270,-352,-189,-139
11,-116,-106,55,71,-118,-78,-214,-258,-340,-183,-139
5,-110,-94,55,59,-106,-66,-202,-240,-328,-171,-133
-1,-98,-76,55,47,-94,-54,-190,-222,-298,-147,-127
-6,-92,-58,55,35,-82,-42,-166,-210,-286,-135,-115
-12,-86,-46,55,23,-70,-30,-148,-180,-262,-117,-103
-18,-80,-34,55,11,-58,-18,-118,-150,-238,-99,-91
-24,-74,-16,55,0,-46,-6,-88,-120,-214,-81,-79
-36,-68,13,55,-12,-28,11,-52,-90,-184,-45,-73
-48,-38,37,55,-30,-4,35,-10,-48,-154,-15,-55
-54,-14,67,49,-48,25,59,25,-6,-118,20,-31
-60,9,97,43,-66,49,77,61,35,-76,50,-7
-66,27,115,37,-78,67,107,97,77,-28,86,10
-72,39,133,37,-90,79,137,139,119,25,116,22
-72,51,145,37,-96,91,179,217,179,67,146,34
-72,57,151,31,-102,103,221,331,269,145,176,46
-72,63,157,25,-108,109,287,475,395,229,218,58
-72,75,163,13,-108,121,389,655,557,349,308,76
-66,117,181,-16,-108,151,467,877,767,535,446,142
-36,207,211,-82,-108,205,539,1057,989,745,626,256
-6,315,271,-166,-108,295,617,1243,1223,985,842,406
29,435,361,-238,-120,391,737,1537,1529,1267,1076,562
77,543,421,-304,-126,475,911,1945,1913,1603,1334,712
155,633,439,-376,-126,517,1025,2286,2272,1921,1574,862
221,693,457,-448,-126,559,1091,2406,2517,2208,1814,1024
269,789,487,-520,-126,637,1121,2400,2631,2429,2030,1186
335,855,511,-586,-120,679,1115,2196,2637,2549,2209,1330
407,939,523,-676,-90,727,983,1891,2613,2603,2353,1474
485,1059,547,-772,-72,793,773,1483,2463,2645,2502,1636
527,1119,571,-820,-54,841,587,1069,2296,2651,2574,1738
527,1119,571,-826,-42,841,437,787,2134,2639,2574,1738
503,1029,559,-784,-36,793,347,595,1997,2483,2383,1606
419,819,469,-604,-30,631,269,403,1775,2196,2030,1324
311,579,337,-436,-30,457,197,193,1463,1849,1646,1018
191,399,289,-274,-30,343,149,-40,1121,1477,1280,760
59,285,271,-148,-72,277,107,-262,737,1081,944,514
-66,189,271,-52,-144,247,47,-484,317,631,590,274
-156,135,289,13,-222,235,-66,-658,-84,199,266,82
-210,99,301,55,-252,229,-186,-766,-402,-136,38,-19
-228,63,301,73,-258,205,-252,-820,-582,-388,-111,-73
-228,27,265,85,-246,151,-294,-826,-648,-508,-213,-115
-222,-14,199,97,-210,91,-330,-826,-654,-550,-261,-151
-210,-32,157,103,-180,61,-348,-814,-654,-562,-291,-163
-198,-38,133,103,-162,43,-360,-802,-654,-562,-303,-169
-180,-44,127,103,-150,37,-372,-778,-648,-562,-303,-169
-156,-44,121,103,-138,31,-378,-748,-636,-556,-303,-169
-138,-44,109,103,-126,25,-378,-706,-618,-550,-303,-169
-126,-44,79,103,-108,13,-378,-664,-594,-550,-303,-169
-114,-50,61,103,-90,1,-378,-622,-564,-544,-303,-169
-102,-56,31,103,-78,-10,-360,-556,-540,-538,-303,-169
-90,-62,1,97,-48,-22,-318,-490,-498,-520,-303,-169
-78,-68,-10,97,-36,-34,-276,-430,-468,-508,-303,-169
-72,-74,-22,91,-18,-46,-234,-394,-438,-484,-297,-169
-60,-80,-40,91,-6,-58,-210,-364,-408,-466,-297,-169
-48,-86,-52,91,5,-70,-192,-334,-396,-454,-291,-169
-36,-98,-64,91,11,-82,-180,-310,-384,-448,-291,-169
-30,-104,-70,91,17,-94,-174,-298,-378,-442,-291,-169
-24,-110,-76,91,23,-100,-168,-292,-372,-436,-291,-169
-24,-110,-82,85,29,-100,-162,-280,-366,-430,-291,-169
-18,-110,-88,85,35,-106,-156,-268,-360,-430,-291,-169
-18,-110,-94,79,41,-106,-150,-256,-354,-424,-285,-169
-18,-110,-100,79,41,-106,-150,-250,-348,-418,-279,-169
-12,-110,-100,73,47,-106,-150,-244,-342,-418,-279,-163
-12,-110,-100,73,47,-106,-150,-238,-336,-412,-279,-163
-12,-110,-106,73,47,-106,-150,-232,-330,-412,-279,-163
-6,-110,-112,73,47,-106,-150,-226,-330,-412,-279,-163
-6,-110,-118,73,47,-112,-144,-220,-324,-412,-273,-163
-6,-110,-118,73,47,-112,-138,-214,-318,-406,-273,-163
-6,-110,-118,73,47,-112,-138,-214,-318,-400,-273,-163
-1,-116,-124,73,53,-112,-138,-208,-312,-394,-273,-157
-1,-116,-124,73,59,-112,-132,-202,-306,-388,-273,-157
-1,-116,-124,73,65,-112,-132,-202,-294,-382,-267,-157
5,-116,-124,73,65,-112,-132,-202,-288,-376,-261,-151
11,-116,-124,73,65,-112,-132,-202,-282,-376,-261,-151
11,-116,-124,67,71,-112,-132,-202,-282,-376,-261,-151
17,-116,-130,61,77,-118,-132,-196,-282,-370,-261,-151
17,-116,-136,61,83,-124,-132,-196,-282,-364,-255,-145
23,-116,-136,61,83,-124,-132,-190,-276,-358,-249,-145
23,-116,-136,61,83,-124,-132,-190,-270,-358,-249,-145
23,-116,-136,55,89,-124,-132,-184,-270,-352,-249,-145
29,-116,-142,55,89,-124,-132,-184,-270,-352,-249,-145
29,-116,-142,55,89,-124,-132,-184,-264,-352,-249,-145
35,-116,-142,55,89,-124,-132,-184,-258,-346,-243,-145
41,-116,-142,55,95,-124,-132,-184,-258,-346,-243,-145
41,-116,-142,49,95,-124,-132,-178,-258,-340,-243,-139
41,-116,-142,43,95,-124,-132,-178,-258,-340,-243,-133
47,-116,-142,43,95,-124,-132,-178,-258,-340,-243,-133
53,-116,-142,43,101,-124,-132,-172,-252,-328,-237,-127
53,-116,-148,43,107,-124,-138,-166,-252,-322,-231,-121
59,-116,-148,37,107,-124,-138,-166,-246,-316,-231,-115
65,-116,-148,31,113,-124,-138,-166,-246,-310,-231,-115
65,-116,-148,31,113,-124,-138,-160,-246,-304,-231,-115
71,-116,-154,31,119,-124,-138,-160,-246,-298,-225,-115
77,-116,-154,25,125,-124,-150,-160,-246,-292,-225,-109
77,-110,-154,19,125,-124,-156,-154,-240,-292,-225,-109
77,-98,-154,13,125,-124,-162,-154,-234,-292,-225,-109
83,-92,-154,7,125,-124,-162,-154,-234,-292,-225,-103
83,-92,-154,1,125,-124,-162,-154,-234,-286,-225,-103
89,-86,-154,-4,125,-124,-168,-148,-234,-280,-225,-97
95,-86,-154,-4,131,-124,-168,-142,-234,-274,-225,-97
101,-86,-154,-10,131,-124,-174,-142,-234,-274,-225,-97
107,-80,-160,-10,137,-124,-174,-142,-228,-268,-225,-91
107,-80,-160,-10,137,-124,-180,-142,-222,-268,-219,-91
113,-80,-160,-16,143,-124,-186,-142,-222,-262,-219,-85
119,-80,-160,-16,143,-124,-192,-142,-222,-256,-219,-79
119,-80,-166,-16,149,-124,-198,-142,-216,-256,-213,-73
125,-80,-172,-22,155,-124,-204,-142,-216,-256,-213,-67
131,-74,-178,-28,161,-124,-210,-142,-210,-256,-213,-67
131,-68,-178,-34,161,-124,-216,-142,-210,-256,-213,-67
137,-62,-178,-40,161,-124,-222,-142,-210,-256,-207,-61
143,-56,-178,-46,167,-124,-228,-142,-204,-256,-207,-61
149,-50,-178,-52,173,-124,-234,-142,-198,-256,-207,-61
155,-44,-178,-58,173,-124,-234,-136,-192,-256,-207,-61
161,-38,-178,-64,173,-124,-234,-130,-186,-256,-207,-55
167,-38,-178,-70,179,-124,-240,-130,-180,-256,-207,-49
173,-32,-178,-76,179,-124,-246,-130,-174,-250,-201,-43
179,-26,-178,-82,185,-124,-252,-130,-168,-244,-201,-37
185,-26,-178,-88,191,-124,-264,-124,-162,-238,-195,-31
191,-20,-178,-94,197,-124,-264,-118,-156,-238,-195,-25
197,-14,-184,-100,203,-124,-270,-112,-150,-232,-195,-19
203,-8,-190,-106,209,-118,-276,-106,-144,-226,-189,-13
209,-3,-196,-112,209,-118,-276,-94,-132,-220,-177,-7
215,-3,-196,-118,209,-112,-276,-88,-126,-220,-171,-2
221,3,-196,-118,215,-106,-276,-82,-114,-220,-165,4
227,9,-196,-124,215,-106,-276,-76,-108,-214,-165,10
233,15,-196,-130,215,-100,-276,-70,-102,-214,-159,16
233,15,-196,-130,215,-100,-276,-58,-96,-214,-153,22
233,21,-196,-130,215,-100,-276,-46,-90,-208,-153,22
239,21,-196,-136,215,-94,-276,-34,-84,-202,-147,28
239,27,-196,-142,215,-94,-276,-22,-72,-196,-147,28
245,33,-196,-142,215,-88,-276,-10,-60,-190,-147,34
245,39,-196,-148,215,-88,-276,1,-54,-184,-147,34
245,45,-196,-148,215,-88,-276,7,-48,-178,-147,34
245,51,-196,-154,215,-82,-276,13,-48,-172,-147,34
245,57,-196,-154,215,-76,-270,19,-42,-166,-147,34
245,63,-190,-154,215,-70,-264,25,-36,-160,-141,40
245,69,-184,-154,215,-64,-252,31,-30,-154,-135,46
245,75,-178,-154,215,-58,-240,43,-24,-148,-129,46
245,75,-172,-154,209,-52,-228,55,-18,-142,-123,52
245,75,-166,-154,209,-52,-216,67,-12,-136,-117,52
245,75,-160,-154,209,-52,-210,79,-1,-130,-111,58
239,75,-154,-154,203,-52,-204,97,11,-118,-111,58
239,75,-154,-154,203,-52,-192,109,23,-106,-105,58
233,75,-154,-154,197,-46,-180,121,35,-94,-99,58
227,75,-148,-154,191,-46,-168,133,47,-88,-93,58
221,75,-142,-154,185,-46,-150,145,59,-76,-93,58
215,75,-136,-154,179,-40,-138,157,65,-70,-87,58
209,75,-130,-154,173,-40,-126,175,77,-64,-81,58
203,75,-124,-148,167,-40,-114,187,83,-58,-81,58
197,75,-118,-142,161,-34,-102,199,89,-52,-75,58
191,75,-112,-136,155,-34,-96,211,95,-46,-75,58
179,75,-106,-124,143,-34,-84,223,107,-40,-69,58
167,75,-100,-118,131,-34,-72,229,113,-28,-63,58
155,69,-94,-112,125,-34,-66,235,125,-22,-57,58
143,69,-94,-106,119,-34,-66,241,131,-10,-57,58
137,63,-88,-100,113,-34,-66,247,137,-4,-57,58
131,57,-88,-94,113,-34,-66,247,143,2,-57,52
125,51,-88,-88,107,-34,-66,247,149,7,-57,46
119,45,-88,-82,101,-34,-66,247,149,13,-57,40
113,39,-88,-76,95,-34,-66,247,149,13,-51,34
107,33,-82,-70,89,-34,-66,247,149,19,-51,28
101,27,-76,-64,89,-34,-66,247,149,25,-51,22
95,21,-76,-58,89,-34,-66,247,149,25,-51,22
89,15,-76,-52,83,-34,-66,247,149,25,-51,22
77,9,-76,-46,77,-34,-66,241,149,25,-51,16
71,3,-70,-40,71,-34,-66,235,143,25,-51,10
65,-3,-64,-34,65,-34,-66,223,137,25,-51,4
59,-8,-58,-28,59,-34,-66,211,125,25,-57,-2
53,-8,-52,-28,53,-34,-66,199,119,25,-57,-7
47,-8,-46,-28,47,-34,-66,187,113,25,-57,-13
41,-14,-46,-22,41,-34,-66,181,107,19,-57,-19
29,-20,-46,-16,35,-34,-66,169,95,13,-63,-25
17,-26,-46,-4,35,-34,-66,151,89,7,-63,-31
11,-32,-46,1,29,-34,-66,139,77,2,-69,-37
5,-32,-46,7,29,-34,-66,127,71,-4,-75,-43
-1,-38,-46,13,29,-34,-66,115,65,-10,-81,-49
-6,-50,-46,19,29,-40,-66,109,59,-16,-87,-49
-6,-56,-46,25,29,-46,-66,97,47,-16,-93,-49
-6,-68,-46,31,23,-52,-66,85,35,-22,-99,-55
-6,-74,-46,37,23,-52,-66,79,29,-28,-105,-55
-12,-80,-46,43,23,-52,-66,73,23,-28,-111,-61
-18,-80,-46,43,23,-58,-66,67,17,-28,-111,-61
-18,-86,-46,43,23,-58,-66,61,17,-28,-111,-61
-18,-86,-46,43,23,-58,-66,55,11,-28,-111,-61
-18,-86,-46,43,23,-58,-66,49,11,-34,-111,-61
-18,-86,-46,43,23,-58,-66,43,11,-34,-111,-61
-18,-86,-46,43,23,-58,-66,37,5,-34,-111,-61
-18,-86,-46,43,23,-58,-66,37,-1,-34,-111,-61
-18,-86,-46,43,23,-58,-66,31,-1,-34,-111,-61
-18,-86,-46,43,23,-58,-66,25,-1,-34,-111,-61
-18,-86,-46,43,23,-58,-66,25,-1,-34,-111,-61
-18,-86,-46,43,23,-58,-66,19,-6,-40,-111,-61
-18,-86,-46,43,23,-58,-66,19,-6,-40,-111,-61
-18,-86,-46,43,23,-58,-66,13,-6,-40,-111,-61
-18,-86,-46,43,23,-58,-66,13,-6,-46,-111,-61
-18,-86,-46,43,23,-58,-66,13,-12,-52,-111,-61
-18,-86,-46,43,23,-58,-66,7,-12,-52,-111,-61
-18,-86,-46,43,23,-58,-66,1,-18,-52,-111,-61
-18,-86,-46,43,23,-58,-66,1,-18,-52,-111,-67
-18,-86,-46,43,23,-58,-66,1,-18,-52,-111,-67
-18,-86,-46,43,23,-58,-66,1,-18,-52,-111,-73
-18,-86,-46,43,23,-58,-66,1,-24,-52,-111,-73
-18,-86,-46,43,23,-58,-66,1,-24,-52,-111,-73
-18,-86,-46,43,23,-58,-66,1,-24,-52,-111,-73
-18,-86,-46,43,23,-58,-66,1,-24,-52,-111,-73
-18,-86,-46,43,23,-58,-66,1,-24,-52,-117,-73
-18,-86,-46,43,23,-58,-66,1,-24,-52,-117,-73
-18,-86,-46,43,23,-58,-66,1,-30,-52,-117,-73
-18,-86,-46,43,23,-58,-66,-4,-30,-52,-117,-73
-18,-86,-46,43,23,-58,-66,-10,-36,-52,-117,-73
-18,-86,-46,43,23,-58,-66,-10,-36,-52,-117,-73
-18,-86,-46,43,23,-58,-66,-10,-36,-52,-117,-73
-18,-86,-46,43,23,-58,-66,-10,-36,-52,-117,-73
-18,-86,-46,43,23,-58,-66,-10,-36,-52,-117,-73
-18,-86,-46,43,23,-58,-66,-10,-36,-52,-117,-73
-18,-86,-46,43,23,-58,-66,-10,-36,-52,-117,-73
-18,-86,-46,43,23,-58,-66,-10,-36,-52,-117,-73
-18,-86,-46,43,23,-58,-66,-10,-36,-52,-123,-73
-18,-86,-46,43,23,-58,-66,-10,-42,-52,-123,-73
-18,-86,-46,43,23,-58,-66,-10,-42,-52,-123,-73
-18,-86,-46,43,23,-58,-66,-10,-42,-52,-123,-73
-18,-86,-46,43,23,-58,-66,-10,-42,-52,-123,-73
-18,-86,-46,43,23,-58,-66,-16,-42,-52,-123,-73
-18,-86,-46,43,23,-58,-66,-16,-48,-52,-123,-73
-18,-86,-46,43,23,-58,-66,-22,-54,-58,-123,-73
-18,-86,-46,43,23,-58,-66,-22,-54,-64,-123,-73
-18,-80,-46,43,23,-58,-66,-22,-54,-64,-123,-73
-18,-80,-46,43,23,-58,-66,-22,-60,-70,-123,-73
-18,-80,-46,43,23,-58,-66,-22,-60,-76,-123,-73
-18,-80,-46,43,23,-58,-66,-22,-60,-82,-123,-73
-18,-80,-46,43,23,-58,-66,-22,-60,-82,-129,-73
-18,-80,-46,43,23,-58,-66,-28,-60,-88,-129,-73
-18,-80,-46,43,23,-58,-66,-28,-66,-88,-129,-73
-18,-80,-46,43,23,-58,-66,-28,-66,-88,-129,-73
-18,-80,-46,43,23,-58,-66,-34,-66,-94,-129,-73
-18,-80,-46,43,23,-58,-66,-40,-66,-94,-129,-73
-18,-80,-46,43,23,-58,-66,-40,-66,-94,-135,-73
-18,-80,-46,43,23,-58,-66,-46,-66,-100,-135,-73
-18,-80,-46,43,23,-58,-66,-46,-72,-100,-135,-73
-18,-80,-46,43,23,-58,-66,-46,-78,-106,-135,-73
-18,-80,-46,43,23,-58,-66,-46,-84,-106,-141,-73
-24,-80,-46,49,23,-58,-66,-46,-84,-106,-141,-73
-24,-80,-46,49,23,-58,-66,-46,-84,-112,-147,-73
-24,-80,-46,49,23,-58,-66,-52,-90,-112,-153,-73
-24,-80,-46,49,23,-58,-66,-58,-90,-118,-153,-73
-24,-80,-46,49,23,-58,-66,-58,-96,-118,-153,-73
-24,-80,-46,49,23,-58,-66,-58,-96,-118,-153,-73
-24,-80,-46,49,23,-58,-66,-58,-96,-118,-153,-73
-24,-80,-46,49,23,-58,-66,-58,-96,-124,-153,-79
-24,-80,-46,49,23,-58,-66,-58,-96,-124,-159,-79
-24,-80,-46,49,23,-58,-66,-58,-96,-124,-159,-79
-24,-80,-46,49,23,-58,-66,-64,-96,-130,-159,-79
-30,-80,-46,49,23,-58,-66,-64,-96,-130,-159,-79
-30,-80,-46,49,23,-58,-66,-64,-96,-130,-159,-85
-30,-80,-46,49,23,-58,-66,-64,-96,-130,-159,-85
-36,-80,-46,49,23,-58,-66,-64,-102,-130,-159,-91
-36,-80,-46,49,23,-58,-66,-70,-108,-130,-159,-91
-36,-80,-46,55,17,-58,-66,-70,-114,-136,-159,-91
-36,-80,-46,61,11,-58,-66,-70,-114,-142,-159,-91
-42,-80,-46,61,5,-58,-66,-76,-114,-142,-165,-97
-42,-80,-40,61,5,-58,-66,-76,-114,-142,-165,-97
-42,-80,-40,61,5,-58,-66,-82,-114,-142,-171,-97
-48,-80,-40,61,5,-58,-66,-82,-120,-148,-177,-97
-48,-80,-40,61,5,-58,-66,-82,-120,-148,-177,-97
-48,-80,-40,67,5,-58,-66,-82,-120,-148,-177,-97
-48,-80,-40,67,5,-58,-66,-82,-126,-148,-177,-97
-48,-80,-40,67,5,-58,-66,-88,-132,-148,-177,-97
-54,-80,-40,67,5,-58,-66,-88,-132,-154,-177,-97
-54,-80,-40,67,5,-58,-66,-88,-132,-154,-177,-97
-54,-80,-40,67,5,-58,-66,-88,-132,-154,-177,-97
-54,-80,-40,67,5,-58,-66,-88,-132,-154,-177,-103
-54,-80,-40,67,5,-58,-66,-88,-132,-154,-177,-103
-54,-80,-40,67,5,-58,-66,-88,-132,-154,-177,-103
-54,-80,-40,67,5,-58,-66,-88,-132,-154,-183,-109
-54,-80,-40,67,5,-58,-66,-88,-132,-154,-183,-109
-54,-80,-40,67,5,-58,-66,-94,-132,-154,-189,-109
-54,-80,-40,67,5,-58,-66,-100,-138,-154,-189,-109
-54,-80,-40,67,5,-58,-66,-100,-138,-154,-195,-109
-54,-80,-40,67,5,-58,-66,-106,-138,-160,-195,-109
-54,-80,-40,67,5,-58,-66,-106,-138,-160,-201,-109
-54,-80,-40,67,5,-58,-66,-106,-138,-160,-207,-115
-54,-80,-40,67,5,-58,-66,-106,-138,-166,-207,-115
-54,-80,-40,67,5,-58,-66,-106,-144,-166,-207,-121
-54,-80,-40,67,5,-58,-66,-112,-144,-166,-207,-121
-54,-80,-40,67,5,-58,-66,-112,-144,-166,-207,-121
-54,-80,-40,67,5,-58,-66,-112,-144,-166,-207,-121
-54,-80,-40,67,5,-58,-66,-112,-144,-166,-207,-121
-54,-80,-40,67,5,-58,-66,-112,-144,-166,-207,-121
-54,-80,-40,67,5,-58,-66,-112,-144,-166,-207,-121
-54,-80,-40,67,5,-58,-66,-112,-144,-166,-207,-121
-54,-80,-40,67,5,-58,-66,-112,-144,-166,-207,-121
-54,-80,-40,67,5,-58,-66,-118,-144,-166,-207,-121
-54,-80,-40,67,5,-58,-66,-118,-150,-166,-207,-121
-54,-80,-40,67,5,-58,-66,-118,-150,-166,-207,-121
-54,-80,-40,67,5,-58,-66,-118,-150,-166,-207,-121
-54,-80,-40,67,5,-58,-66,-118,-150,-166,-207,-121
-54,-80,-40,67,5,-58,-66,-118,-150,-166,-207,-121
-54,-80,-40,67,5,-58,-66,-118,-150,-166,-207,-121
-54,-80,-40,67,5,-58,-66,-118,-150,-166,-207,-121
-54,-80,-40,67,5,-58,-66,-118,-150,-166,-207,-121
-54,-80,-40,67,5,-58,-66,-118,-150,-160,-207,-121
-54,-80,-40,67,5,-58,-66,-118,-150,-160,-207,-121
-54,-80,-40,61,5,-52,-66,-118,-150,-160,-207,-121
-54,-74,-34,55,5,-46,-66,-118,-150,-160,-207,-121
-54,-68,-28,55,5,-40,-66,-118,-150,-160,-207,-115
-54,-62,-16,49,5,-34,-60,-112,-144,-154,-207,-109
-54,-50,-10,43,5,-28,-54,-106,-138,-148,-201,-103
-48,-38,-4,37,5,-22,-48,-100,-132,-136,-195,-103
-42,-26,1,31,5,-16,-42,-94,-120,-130,-189,-97
-36,-14,7,25,5,-10,-36,-88,-108,-130,-183,-91
-36,-14,7,19,5,-4,-30,-82,-102,-124,-177,-85
-36,-14,7,13,5,1,-24,-76,-96,-118,-171,-85
-36,-14,7,13,5,7,-18,-70,-90,-112,-165,-85
-36,-8,13,7,5,13,-12,-64,-90,-112,-165,-85
-30,3,19,1,5,19,-12,-58,-90,-106,-165,-85
-24,15,25,-4,5,25,-12,-58,-90,-106,-165,-85
-18,33,31,-16,5,31,-18,-58,-90,-106,-165,-85
-6,51,37,-28,0,43,-30,-64,-90,-106,-159,-85
-1,63,43,-40,0,55,-42,-70,-90,-106,-153,-79
5,75,49,-46,0,67,-54,-76,-90,-106,-147,-73
5,81,55,-52,0,73,-60,-76,-90,-100,-141,-67
5,87,55,-58,0,79,-66,-76,-90,-94,-135,-61
11,87,55,-58,0,79,-66,-76,-90,-94,-129,-55
11,87,55,-58,0,79,-66,-76,-90,-88,-129,-49
11,87,55,-58,0,79,-66,-76,-90,-88,-123,-43
11,87,55,-58,0,79,-66,-76,-90,-88,-123,-43
11,81,55,-58,0,79,-66,-76,-84,-82,-123,-43
11,81,55,-58,0,79,-66,-70,-78,-70,-117,-37
11,81,55,-58,0,79,-66,-70,-72,-52,-117,-37
11,81,55,-58,0,79,-66,-70,-72,-40,-117,-37
11,75,49,-58,0,73,-66,-70,-72,-34,-117,-37
11,75,49,-58,0,73,-66,-70,-72,-28,-117,-37
11,75,49,-58,5,73,-66,-70,-72,-28,-117,-37
11,69,37,-58,5,61,-66,-76,-78,-28,-117,-37
11,63,25,-52,11,49,-72,-82,-84,-28,-117,-37
11,57,19,-52,11,37,-78,-88,-96,-28,-117,-37
11,51,13,-46,11,25,-84,-100,-102,-34,-123,-37
11,27,1,-34,17,13,-90,-112,-108,-46,-135,-37
11,-3,-10,-22,17,-4,-90,-118,-120,-58,-147,-43
11,-20,-16,-10,17,-16,-90,-124,-126,-64,-153,-49
-1,-32,-22,7,17,-22,-90,-130,-132,-70,-159,-61
-6,-44,-28,19,17,-28,-90,-130,-144,-82,-171,-79
-18,-56,-28,31,17,-34,-90,-136,-156,-94,-183,-97
-30,-68,-28,43,11,-40,-90,-136,-168,-100,-189,-109
-42,-74,-28,55,5,-40,-90,-142,-174,-106,-195,-115
-48,-80,-28,61,5,-46,-90,-142,-180,-112,-201,-121
-54,-86,-28,67,5,-52,-90,-142,-186,-118,-213,-127
-54,-98,-34,73,5,-58,-90,-148,-192,-124,-225,-133
-54,-104,-40,79,5,-64,-90,-154,-192,-130,-237,-139
-60,-110,-40,85,5,-70,-90,-160,-198,-136,-243,-145
-60,-116,-40,91,5,-70,-90,-166,-204,-142,-249,-151
-60,-116,-40,91,5,-70,-90,-172,-210,-142,-249,-151
-60,-116,-40,91,5,-76,-90,-178,-216,-142,-249,-151
-60,-122,-46,91,5,-82,-90,-178,-222,-142,-249,-151
-60,-128,-52,91,5,-88,-90,-178,-222,-148,-249,-151
-60,-134,-58,91,5,-94,-90,-178,-222,-148,-249,-151
-60,-140,-58,91,5,-100,-90,-178,-222,-148,-249,-151
-60,-140,-58,91,5,-100,-84,-178,-216,-148,-249,-151
-66,-140,-58,91,0,-94,-78,-172,-204,-148,-243,-145
-72,-128,-46,91,-6,-82,-72,-160,-192,-136,-231,-139
-78,-116,-22,91,-18,-64,-60,-148,-174,-100,-201,-133
-84,-104,1,91,-30,-46,-48,-130,-150,-70,-183,-127
-90,-92,13,91,-36,-34,-42,-112,-132,-46,-171,-121
-96,-86,25,91,-48,-22,-30,-82,-120,-28,-159,-115
-102,-80,37,91,-54,-16,-18,-58,-90,-4,-147,-103
-108,-74,49,91,-66,-4,11,-28,-60,25,-123,-97
-114,-62,61,91,-78,7,41,1,-18,49,-93,-85
-120,-50,79,91,-90,25,77,37,23,79,-63,-73
-126,-38,109,85,-102,49,107,67,59,121,-33,-61
-132,-8,139,79,-114,67,119,97,95,163,-3,-43
-138,9,163,73,-126,85,137,139,137,205,32,-25
-138,21,187,67,-138,103,167,199,179,253,62,-7
-138,33,199,61,-144,115,203,289,251,319,104,4
-138,45,199,55,-150,121,257,409,359,391,146,16
-138,57,199,49,-150,127,335,565,503,505,206,34
-132,81,211,31,-150,145,431,757,695,661,308,76
-120,135,229,-10,-150,187,515,961,911,859,482,166
-90,219,271,-76,-150,259,581,1123,1139,1093,686,304
-60,339,349,-142,-156,349,677,1339,1409,1393,950,466
-30,453,439,-214,-180,445,821,1693,1775,1711,1214,622
11,537,487,-280,-192,511,971,2088,2158,2047,1484,784
83,627,517,-346,-192,565,1043,2310,2463,2382,1760,964
125,735,565,-424,-198,649,1079,2328,2625,2657,2030,1162
179,825,607,-496,-198,715,1085,2256,2655,2819,2251,1330
239,903,625,-562,-198,757,1055,1981,2649,2897,2419,1492
293,1005,655,-652,-192,829,893,1627,2541,2951,2580,1660
341,1119,715,-736,-192,931,695,1225,2380,2981,2748,1828
365,1149,733,-766,-192,949,527,889,2206,2981,2778,1870
365,1131,733,-754,-186,943,425,703,2080,2933,2730,1852
311,951,691,-646,-186,829,353,529,1913,2729,2419,1612
221,711,553,-466,-180,631,275,337,1655,2394,2006,1300
131,489,439,-304,-174,463,203,121,1319,2011,1610,970
23,327,379,-166,-174,361,155,-88,965,1609,1232,682
-102,213,361,-46,-192,289,107,-292,563,1177,848,424
-204,135,361,31,-234,259,29,-496,143,685,458,166
-264,93,361,79,-270,247,-90,-670,-234,253,152,-13
-282,63,361,103,-282,229,-174,-772,-486,-88,-57,-91
-288,21,325,115,-282,187,-216,-802,-618,-286,-213,-133
-288,-20,259,127,-270,127,-252,-802,-636,-358,-303,-169
-282,-50,217,133,-240,91,-270,-796,-636,-382,-345,-199
-270,-68,193,139,-222,61,-282,-784,-636,-388,-357,-211
-258,-74,187,145,-210,55,-306,-766,-630,-388,-363,-217
-246,-74,181,145,-204,49,-312,-736,-618,-382,-363,-217
-234,-74,169,145,-192,49,-318,-694,-588,-370,-363,-217
-222,-74,151,145,-174,37,-318,-658,-564,-364,-363,-217
-210,-80,115,145,-150,25,-318,-616,-546,-358,-369,-223
-198,-86,85,145,-132,7,-306,-562,-510,-346,-369,-223
-186,-98,55,145,-108,-16,-264,-490,-462,-322,-369,-223
-174,-110,31,145,-84,-28,-222,-424,-420,-292,-357,-223
-150,-116,13,145,-66,-46,-180,-382,-378,-280,-351,-223
-132,-122,-4,145,-54,-58,-162,-346,-360,-268,-345,-223
-120,-128,-16,145,-42,-70,-150,-316,-348,-250,-339,-223
-108,-134,-28,145,-36,-76,-132,-292,-336,-232,-327,-223
-102,-134,-34,139,-30,-76,-120,-274,-324,-220,-321,-223
-96,-140,-40,139,-24,-82,-108,-262,-312,-214,-321,-223
-96,-140,-46,139,-18,-88,-102,-250,-306,-214,-321,-223
-96,-140,-52,133,-12,-88,-96,-244,-300,-214,-321,-223
-96,-140,-52,127,-12,-88,-96,-238,-294,-208,-315,-223
-90,-140,-52,127,-6,-88,-90,-232,-288,-208,-315,-223
-84,-140,-58,127,0,-94,-84,-226,-282,-202,-315,-223
-78,-140,-58,127,5,-94,-78,-220,-276,-202,-315,-223
-78,-140,-64,127,11,-100,-78,-214,-270,-196,-309,-223
-72,-140,-70,127,11,-100,-72,-208,-270,-190,-309,-223
-72,-146,-76,127,17,-100,-72,-202,-270,-190,-309,-223
-66,-146,-82,127,23,-106,-72,-196,-264,-184,-309,-223
-60,-152,-88,127,29,-112,-66,-190,-252,-178,-303,-223
-60,-158,-94,127,35,-118,-66,-184,-240,-166,-297,-217
-60,-158,-100,127,41,-118,-60,-178,-234,-160,-297,-211
-54,-158,-106,127,41,-130,-60,-172,-228,-154,-297,-211
-54,-158,-112,127,41,-136,-60,-172,-222,-154,-297,-211
-54,-158,-112,127,41,-142,-60,-172,-222,-154,-297,-211
-54,-158,-112,127,41,-142,-60,-172,-222,-154,-291,-211
-48,-158,-112,121,41,-142,-60,-172,-222,-154,-285,-211
-48,-158,-112,115,41,-142,-60,-172,-222,-154,-279,-211
-42,-158,-112,109,41,-142,-60,-172,-222,-154,-279,-205
-36,-152,-112,103,41,-136,-60,-172,-222,-154,-279,-199
-36,-146,-112,97,41,-130,-60,-172,-222,-154,-279,-199
-36,-140,-112,91,41,-130,-60,-166,-216,-148,-279,-199
-30,-134,-112,85,41,-124,-60,-160,-216,-142,-273,-193
-30,-128,-112,85,41,-118,-60,-160,-216,-136,-267,-187
-30,-122,-112,79,47,-118,-60,-154,-216,-136,-261,-187
-30,-122,-112,79,47,-118,-60,-154,-216,-136,-255,-187
-18,-122,-112,73,47,-118,-66,-154,-210,-130,-255,-181
-12,-122,-112,73,47,-118,-66,-154,-210,-130,-255,-175
-6,-122,-112,73,47,-118,-66,-148,-210,-130,-255,-175
-6,-122,-112,73,47,-118,-66,-142,-204,-124,-255,-175
-6,-122,-112,67,47,-118,-72,-142,-204,-118,-255,-175
-6,-122,-112,67,47,-118,-78,-136,-198,-112,-255,-169
-6,-122,-112,67,47,-118,-78,-130,-192,-106,-249,-163
-1,-116,-112,61,53,-118,-78,-130,-186,-100,-249,-163
-1,-116,-112,61,53,-118,-78,-124,-186,-94,-243,-163
-1,-116,-112,61,53,-118,-84,-124,-180,-88,-243,-163
5,-116,-112,55,59,-118,-90,-124,-180,-88,-243,-163
5,-110,-112,49,65,-118,-96,-124,-174,-88,-237,-157
11,-110,-112,43,65,-118,-96,-124,-174,-82,-237,-151
17,-110,-112,43,71,-118,-102,-124,-168,-82,-231,-151
23,-110,-112,43,71,-118,-102,-118,-162,-76,-231,-151
29,-104,-112,43,71,-118,-102,-118,-156,-76,-231,-145
35,-104,-112,37,77,-118,-108,-118,-150,-70,-225,-139
41,-98,-118,31,83,-118,-114,-118,-150,-64,-225,-133
47,-92,-118,25,89,-118,-120,-118,-150,-64,-225,-133
53,-86,-118,19,89,-118,-126,-118,-144,-58,-225,-127
59,-80,-118,13,95,-118,-126,-118,-144,-58,-225,-121
65,-80,-124,7,101,-118,-132,-112,-138,-52,-225,-115
65,-80,-124,7,107,-118,-138,-106,-132,-46,-219,-109
71,-74,-130,1,113,-118,-144,-100,-132,-40,-213,-109
77,-74,-136,1,119,-118,-144,-100,-132,-34,-207,-103
83,-74,-136,1,125,-118,-150,-100,-126,-34,-201,-97
89,-74,-142,1,125,-118,-156,-94,-120,-28,-195,-91
95,-74,-148,1,125,-118,-156,-88,-108,-28,-189,-85
101,-74,-148,-4,131,-118,-162,-88,-102,-28,-183,-79
107,-68,-148,-10,137,-118,-168,-88,-90,-28,-177,-73
113,-62,-148,-16,143,-118,-174,-82,-78,-28,-171,-67
119,-56,-154,-22,149,-118,-180,-76,-72,-28,-171,-67
125,-56,-154,-28,149,-118,-186,-70,-66,-28,-171,-61
125,-56,-154,-34,149,-118,-192,-64,-60,-28,-165,-55
131,-50,-154,-40,149,-118,-192,-64,-48,-28,-165,-49
143,-44,-154,-46,149,-112,-192,-58,-42,-28,-165,-43
149,-32,-154,-52,155,-106,-192,-58,-36,-28,-165,-37
155,-20,-154,-58,161,-100,-198,-52,-24,-28,-159,-31
161,-14,-154,-64,167,-94,-198,-46,-12,-16,-153,-25
167,-8,-154,-76,173,-88,-198,-40,-1,-4,-147,-19
173,-3,-154,-82,173,-82,-198,-28,11,7,-141,-19
173,3,-154,-88,173,-82,-198,-16,17,13,-135,-13
173,9,-154,-88,173,-76,-198,-10,23,19,-129,-7
179,15,-154,-94,173,-70,-198,-4,29,25,-117,-2
179,21,-154,-100,173,-64,-198,1,35,31,-105,4
179,27,-154,-106,173,-64,-198,13,47,43,-99,10
179,27,-154,-106,173,-64,-198,25,59,49,-93,16
179,27,-154,-106,173,-64,-192,37,65,55,-87,22
179,27,-154,-106,173,-64,-186,49,71,61,-87,28
179,27,-154,-106,173,-64,-180,61,77,61,-87,28
179,33,-148,-106,173,-58,-180,67,77,67,-81,34
179,39,-136,-106,173,-52,-180,79,83,73,-75,34
179,45,-130,-106,173,-46,-174,85,83,79,-69,34
179,51,-124,-106,173,-40,-162,97,89,85,-63,40
179,51,-118,-106,173,-34,-150,109,95,91,-57,40
179,57,-112,-106,173,-28,-138,115,101,91,-57,40
179,57,-112,-106,167,-28,-132,127,107,97,-51,40
179,57,-106,-106,161,-28,-120,133,119,109,-45,40
173,57,-100,-106,155,-28,-114,145,131,115,-45,40
167,57,-94,-106,143,-28,-102,157,143,127,-39,40
161,57,-88,-106,137,-22,-90,169,149,133,-39,40
155,57,-82,-106,131,-16,-78,181,155,139,-39,40
155,57,-76,-106,131,-16,-66,193,155,139,-39,40
149,57,-70,-106,125,-16,-54,205,161,145,-39,40
143,57,-70,-106,125,-10,-42,211,167,145,-33,40
137,57,-64,-100,119,-10,-30,217,173,145,-33,40
131,57,-58,-94,107,-10,-24,223,179,151,-33,40
125,57,-52,-94,101,-4,-18,229,185,163,-33,34
113,57,-46,-88,89,1,-6,235,191,169,-33,28
101,57,-34,-82,77,1,0,241,197,175,-33,22
95,57,-28,-76,71,1,11,241,197,181,-33,22
89,57,-22,-70,71,1,23,247,203,187,-27,16
77,57,-22,-64,65,1,35,247,203,193,-21,10
65,51,-22,-58,59,1,47,247,203,199,-15,10
59,45,-22,-46,59,1,53,247,203,205,-15,10
53,39,-22,-40,53,1,53,247,203,205,-15,10
47,33,-22,-34,53,1,59,247,203,205,-15,4
41,27,-22,-28,47,1,59,241,203,205,-15,-2
35,27,-16,-28,41,1,59,235,203,205,-15,-13
35,21,-16,-22,41,1,65,229,197,205,-15,-25
29,15,-16,-22,41,1,65,217,191,205,-15,-37
23,9,-16,-16,35,1,65,205,185,199,-15,-43
17,3,-16,-10,29,1,65,181,173,193,-21,-49
11,3,-16,-4,29,1,71,163,161,187,-27,-55
5,-3,-16,1,23,1,71,151,149,181,-33,-61
-1,-3,-16,7,17,1,71,139,137,175,-39,-67
-6,-8,-16,13,11,1,71,127,125,163,-45,-73
-12,-14,-16,19,11,1,71,115,119,157,-51,-79
-12,-20,-16,25,11,-4,71,103,113,151,-57,-79
-18,-26,-16,31,5,-10,71,91,101,145,-57,-79
-24,-32,-16,31,5,-10,71,79,89,139,-63,-79
-24,-38,-16,37,5,-10,71,67,77,127,-69,-85
-30,-38,-16,37,5,-10,71,55,65,115,-69,-85
-30,-44,-16,43,5,-16,71,49,59,103,-75,-91
-30,-44,-16,43,5,-16,71,43,53,91,-81,-97
-30,-44,-16,43,5,-16,71,37,47,85,-87,-97
-36,-44,-16,43,5,-16,71,31,35,79,-93,-103
-36,-44,-16,43,0,-16,71,25,29,73,-99,-103
-36,-44,-16,43,0,-16,71,19,23,73,-99,-103
-36,-44,-16,43,0,-16,71,13,23,73,-99,-103
-42,-44,-16,43,-6,-16,71,7,17,67,-99,-103
-42,-44,-16,43,-6,-16,71,7,11,61,-99,-103
-42,-44,-16,43,-6,-16,71,1,5,61,-99,-103
-42,-44,-16,43,-6,-16,71,1,5,61,-99,-103
-48,-44,-16,43,-12,-16,71,1,5,61,-99,-109
-48,-44,-16,43,-12,-22,71,-4,5,61,-105,-109
-48,-44,-16,49,-12,-22,71,-4,5,61,-105,-109
-48,-44,-16,49,-12,-22,71,-4,5,61,-105,-109
-48,-44,-16,49,-12,-22,71,-4,5,61,-105,-109
-48,-44,-16,49,-12,-22,71,-4,5,61,-105,-109
-48,-44,-16,49,-12,-22,71,-4,5,61,-105,-109
-48,-44,-10,49,-12,-22,71,-4,5,61,-105,-109
-54,-44,-4,49,-18,-22,71,-4,-1,61,-105,-115
-54,-44,-4,49,-24,-22,71,-4,-6,61,-105,-115
-54,-44,1,49,-24,-22,71,-10,-6,61,-105,-115
-54,-44,1,49,-24,-22,71,-16,-6,61,-105,-115
-54,-44,1,49,-24,-22,71,-16,-12,61,-105,-115
-54,-44,1,49,-24,-22,71,-16,-12,61,-105,-115
-54,-44,1,49,-24,-22,71,-16,-12,61,-105,-115
-54,-50,1,49,-24,-22,71,-16,-12,61,-105,-115
-54,-56,1,49,-24,-22,71,-16,-12,61,-105,-115
-54,-56,1,49,-24,-22,71,-16,-12,61,-105,-115
-54,-56,1,49,-24,-22,71,-16,-12,61,-105,-115
-54,-56,1,49,-24,-22,71,-16,-12,61,-105,-115
-54,-56,1,49,-24,-22,71,-16,-12,61,-105,-115
-54,-56,1,49,-24,-22,71,-16,-12,61,-105,-115
-54,-56,1,49,-24,-22,71,-16,-12,61,-105,-115
-54,-56,1,49,-24,-22,71,-16,-18,61,-105,-115
-54,-56,1,49,-24,-22,71,-22,-18,61,-105,-121
-54,-56,1,49,-24,-22,71,-22,-18,61,-105,-121
-54,-56,1,49,-24,-22,71,-22,-18,61,-105,-121
-54,-56,1,49,-24,-22,71,-22,-18,61,-105,-121
-54,-56,1,49,-24,-22,71,-22,-18,61,-105,-121
-54,-56,1,49,-24,-22,71,-22,-18,61,-105,-121
-54,-56,1,49,-24,-22,71,-22,-24,61,-105,-121
-54,-56,1,49,-24,-22,71,-22,-30,61,-105,-121
-54,-56,1,49,-24,-22,71,-28,-30,61,-105,-121
-54,-56,1,49,-24,-22,71,-28,-36,61,-105,-121
-54,-56,1,49,-24,-22,71,-28,-36,61,-105,-121
-54,-56,1,49,-24,-22,71,-28,-36,61,-105,-121
-54,-56,1,49,-24,-22,71,-34,-42,61,-105,-121
-54,-56,1,49,-24,-22,71,-34,-42,61,-105,-121
-54,-56,1,49,-24,-22,71,-34,-42,61,-105,-121
-54,-56,1,49,-24,-22,71,-34,-42,61,-105,-121
-54,-56,1,49,-24,-22,71,-34,-42,61,-105,-121
-54,-56,1,49,-24,-22,71,-34,-42,61,-105,-121
-54,-56,1,49,-24,-22,71,-34,-42,61,-111,-121
-54,-56,1,49,-24,-22,71,-34,-42,61,-111,-121
-54,-56,1,49,-24,-22,71,-40,-48,61,-111,-121
-54,-56,1,49,-24,-22,71,-46,-54,55,-111,-121
-54,-56,1,49,-24,-22,71,-46,-54,55,-111,-121
-54,-56,1,49,-24,-22,71,-46,-54,55,-111,-121
-54,-56,1,49,-24,-22,71,-52,-60,49,-117,-121
-54,-56,1,49,-24,-22,71,-58,-66,43,-123,-121
-54,-50,1,49,-24,-22,71,-58,-66,43,-123,-121
-54,-50,1,49,-24,-22,71,-58,-66,37,-123,-121
-54,-50,1,49,-24,-22,71,-64,-66,37,-129,-121
-54,-50,1,49,-24,-22,71,-64,-66,37,-129,-121
-54,-50,1,49,-24,-22,71,-64,-72,31,-135,-121
-54,-50,1,49,-24,-22,71,-70,-78,25,-135,-121
-54,-50,1,49,-24,-22,71,-70,-78,25,-135,-121
-54,-50,1,49,-24,-22,71,-70,-78,25,-135,-121
-54,-56,1,49,-24,-28,71,-70,-78,25,-135,-127
-54,-56,1,49,-24,-34,71,-76,-78,25,-135,-127
-54,-56,1,49,-24,-40,71,-76,-78,25,-135,-127
-54,-56,1,49,-24,-40,71,-76,-78,25,-135,-127
-54,-56,1,49,-24,-40,71,-76,-78,25,-135,-133
-54,-56,1,49,-24,-40,71,-76,-84,25,-135,-139
-54,-56,1,49,-24,-40,71,-76,-84,25,-135,-139
-54,-56,1,49,-24,-40,71,-76,-90,19,-135,-139
-54,-56,1,49,-24,-40,71,-76,-96,19,-135,-139
-54,-56,1,49,-24,-40,71,-76,-102,19,-135,-139
-54,-56,1,49,-24,-40,71,-82,-108,19,-141,-139
-54,-56,1,49,-24,-40,71,-88,-108,13,-147,-139
-54,-56,1,49,-24,-40,71,-88,-108,13,-147,-139
-54,-56,1,49,-24,-40,71,-88,-114,7,-147,-145
-54,-56,1,49,-24,-40,71,-88,-114,2,-153,-145
-54,-56,1,49,-24,-40,71,-94,-120,-4,-153,-145
-54,-56,1,49,-24,-40,71,-94,-120,-4,-153,-145
-54,-56,1,49,-24,-40,71,-94,-120,-4,-153,-145
-54,-62,1,49,-24,-40,71,-94,-120,-4,-153,-145
-54,-62,1,49,-24,-40,71,-94,-120,-10,-153,-145
-54,-62,1,49,-24,-40,71,-94,-120,-10,-159,-145
-54,-62,1,49,-24,-40,71,-94,-120,-10,-159,-145
-54,-62,1,49,-24,-40,71,-94,-126,-10,-159,-145
-54,-62,1,55,-24,-40,71,-100,-126,-10,-159,-145
-54,-62,1,55,-30,-40,71,-100,-132,-10,-159,-145
-54,-62,1,55,-30,-40,71,-100,-132,-10,-159,-145
-54,-62,1,55,-30,-40,71,-100,-138,-16,-165,-145
-54,-62,1,55,-30,-40,71,-100,-138,-22,-165,-145
-54,-62,1,55,-30,-40,71,-100,-144,-28,-165,-151
-54,-62,1,55,-30,-40,71,-106,-144,-28,-165,-151
-54,-62,1,55,-30,-40,71,-106,-144,-28,-165,-151
-54,-62,1,55,-30,-40,71,-106,-144,-28,-165,-151
-54,-62,1,55,-30,-40,71,-106,-150,-28,-165,-151
-54,-62,1,55,-30,-40,71,-106,-150,-28,-171,-151
-54,-62,1,55,-30,-40,71,-106,-150,-28,-171,-151
-54,-62,1,55,-30,-40,71,-106,-150,-28,-171,-151
-54,-62,1,55,-36,-40,71,-112,-150,-28,-171,-151
-54,-62,1,55,-36,-40,71,-112,-150,-34,-171,-151
-54,-62,1,55,-36,-40,71,-112,-150,-34,-171,-151
-54,-62,1,55,-36,-40,71,-118,-150,-34,-171,-151
-54,-62,1,55,-36,-40,71,-118,-150,-34,-171,-151
-54,-62,1,55,-36,-40,71,-118,-150,-34,-171,-151
-54,-62,1,55,-36,-40,71,-118,-150,-34,-171,-151
-54,-62,1,55,-36,-40,71,-118,-150,-34,-171,-151
-54,-62,1,55,-36,-40,71,-118,-150,-34,-171,-151
-54,-62,1,55,-36,-34,71,-118,-150,-34,-171,-151
-54,-56,1,49,-36,-28,71,-118,-144,-34,-171,-151
-48,-44,7,43,-36,-22,71,-118,-144,-28,-171,-145
-42,-32,13,31,-36,-16,71,-118,-138,-22,-165,-145
-42,-14,25,25,-36,-4,71,-118,-132,-16,-153,-139
-42,-3,37,19,-42,7,77,-112,-120,-4,-141,-133
-36,9,43,13,-42,19,83,-100,-108,7,-129,-127
-30,15,43,7,-42,25,89,-94,-102,13,-123,-121
-24,21,43,1,-42,25,95,-82,-96,19,-117,-115
-18,21,43,1,-42,25,101,-70,-84,25,-111,-115
-18,21,43,1,-42,25,107,-58,-72,31,-111,-109
-18,21,43,1,-42,25,113,-46,-60,37,-111,-103
-18,27,55,1,-42,31,119,-40,-54,43,-105,-97
-18,33,61,-4,-42,43,119,-40,-54,49,-99,-91
-12,45,61,-16,-42,49,119,-40,-54,49,-99,-85
-1,51,61,-28,-42,49,107,-46,-54,49,-99,-85
5,63,61,-34,-42,55,101,-58,-54,49,-93,-79
11,75,67,-40,-42,61,89,-64,-54,49,-87,-79
11,87,73,-46,-42,67,77,-70,-54,49,-81,-73
11,93,79,-52,-42,73,71,-76,-60,49,-81,-73
11,93,79,-52,-42,73,71,-82,-60,49,-81,-73
11,93,79,-58,-42,73,71,-82,-60,49,-81,-73
11,93,79,-58,-42,73,71,-82,-66,49,-81,-73
11,93,79,-58,-42,73,71,-82,-66,49,-81,-73
17,93,79,-58,-42,73,71,-82,-66,49,-81,-67
17,93,79,-58,-42,73,71,-82,-66,55,-81,-61
17,93,79,-58,-42,73,71,-82,-66,55,-75,-55
17,93,73,-58,-42,73,71,-82,-66,61,-69,-55
17,93,67,-58,-36,73,71,-82,-66,61,-63,-55
17,87,61,-58,-30,67,71,-82,-66,61,-63,-55
17,81,55,-58,-30,61,71,-82,-66,61,-63,-55
17,75,55,-58,-30,55,65,-82,-66,49,-63,-55
17,69,49,-58,-30,49,59,-88,-72,43,-69,-55
17,63,37,-58,-30,37,53,-88,-72,37,-69,-55
17,51,25,-52,-24,31,53,-94,-84,25,-75,-61
17,33,13,-40,-24,19,53,-106,-96,13,-87,-67
17,9,7,-28,-24,7,53,-112,-108,2,-99,-79
17,-3,1,-16,-24,-4,53,-118,-114,-10,-111,-85
11,-14,-4,-4,-24,-10,53,-124,-120,-16,-117,-97
-1,-26,-10,7,-24,-16,53,-130,-126,-28,-129,-109
-12,-44,-10,25,-24,-28,53,-136,-138,-40,-147,-133
-24,-56,-16,31,-24,-40,53,-136,-150,-58,-159,-139
-30,-68,-16,43,-24,-46,53,-136,-156,-70,-171,-145
-36,-80,-22,49,-24,-58,53,-136,-162,-76,-177,-151
-42,-86,-34,55,-24,-70,53,-142,-168,-82,-183,-157
-42,-98,-40,67,-24,-82,53,-148,-180,-94,-195,-169
-42,-110,-46,73,-24,-88,53,-154,-186,-106,-207,-175
-42,-116,-52,79,-24,-94,53,-160,-198,-112,-219,-181
-42,-116,-52,79,-18,-94,53,-160,-204,-112,-225,-181
-42,-122,-52,79,-18,-94,53,-166,-210,-118,-225,-181
-42,-122,-52,79,-18,-94,53,-172,-216,-124,-225,-181
-42,-122,-52,79,-18,-94,53,-172,-216,-124,-225,-181
-42,-122,-52,79,-18,-94,53,-172,-216,-124,-225,-181
-42,-122,-52,79,-18,-94,53,-172,-216,-124,-225,-181
-42,-122,-52,79,-18,-94,53,-166,-210,-124,-225,-181
-42,-122,-52,79,-18,-94,59,-154,-204,-124,-219,-181
-48,-122,-52,79,-18,-94,65,-142,-192,-118,-207,-181
-54,-116,-46,79,-24,-88,77,-130,-174,-94,-183,-169
-60,-110,-34,79,-30,-82,89,-118,-156,-70,-159,-157
-66,-104,-16,79,-36,-76,101,-106,-138,-52,-147,-151
-72,-98,-4,79,-48,-64,107,-94,-120,-40,-141,-145
-78,-92,13,79,-60,-52,119,-70,-102,-28,-129,-139
-84,-86,37,79,-72,-40,131,-46,-72,-4,-117,-133
-90,-74,55,79,-90,-22,143,-16,-42,25,-93,-121
-96,-56,79,79,-102,1,173,19,-1,61,-63,-109
-102,-38,97,79,-114,25,203,55,35,91,-33,-85
-108,-20,121,73,-126,55,215,85,71,127,8,-73
-108,3,139,67,-138,67,227,109,107,169,38,-55
-108,15,157,61,-150,79,251,139,143,211,74,-37
-108,27,181,55,-156,91,281,193,185,253,104,-25
-108,33,193,49,-162,103,323,289,257,301,122,-19
-108,39,199,43,-168,109,365,409,371,367,158,-13
-108,51,205,37,-168,121,449,571,515,481,212,-7
-108,93,217,25,-174,151,551,769,713,649,326,34
-102,171,247,-22,-180,199,623,955,923,853,494,130
-72,267,301,-94,-186,277,683,1111,1145,1087,728,280
-48,387,397,-166,-198,385,779,1327,1421,1381,998,448
-24,513,493,-238,-222,493,923,1669,1799,1747,1280,622
17,603,541,-310,-234,559,1067,2029,2188,2100,1574,814
71,693,589,-376,-240,631,1139,2190,2463,2429,1862,988
107,795,661,-448,-252,721,1157,2190,2601,2687,2137,1198
143,885,721,-514,-264,793,1157,2070,2619,2861,2395,1384
197,951,739,-568,-264,835,1109,1795,2607,2957,2580,1546
257,1053,775,-658,-264,907,923,1447,2463,3023,2772,1732
299,1173,823,-730,-264,997,737,1069,2296,3053,2922,1894
311,1191,853,-748,-264,1015,593,775,2140,3053,2958,1936
305,1155,847,-730,-264,1003,497,613,2021,3017,2898,1906
257,969,769,-622,-264,865,419,439,1847,2777,2568,1660
173,735,625,-460,-258,673,329,241,1571,2447,2155,1330
89,519,511,-310,-246,499,257,37,1247,2047,1718,1000
-1,351,451,-178,-246,391,203,-160,881,1603,1310,694
-108,243,427,-70,-258,337,137,-376,467,1117,884,406
-186,171,415,1,-288,295,23,-574,35,583,446,130
-234,129,409,61,-306,265,-90,-724,-336,109,98,-67
-258,93,385,91,-312,235,-150,-796,-582,-226,-123,-145
-264,51,337,115,-306,187,-180,-814,-672,-400,-261,-187
-264,3,265,127,-282,133,-198,-814,-684,-442,-327,-217
-252,-26,211,133,-252,91,-204,-796,-684,-448,-351,-235
-240,-38,187,133,-228,73,-216,-766,-672,-448,-357,-241
-216,-38,181,127,-216,67,-222,-742,-636,-436,-357,-241
-198,-38,169,121,-204,61,-228,-718,-600,-418,-357,-241
-180,-38,151,121,-180,55,-234,-688,-576,-412,-357,-241
-168,-44,121,121,-156,43,-240,-646,-558,-406,-357,-241
-156,-56,91,121,-138,25,-240,-586,-528,-400,-357,-241
-144,-68,55,121,-108,-4,-222,-520,-486,-388,-357,-241
-132,-80,25,121,-84,-34,-180,-454,-444,-364,-351,-241
-120,-92,1,121,-72,-52,-132,-406,-408,-352,-345,-235
-108,-104,-10,121,-60,-70,-102,-370,-378,-328,-339,-235
-96,-116,-28,121,-48,-82,-84,-340,-360,-316,-333,-235
-84,-128,-40,121,-36,-94,-72,-316,-342,-298,-327,-235
-78,-134,-46,121,-30,-106,-66,-304,-330,-280,-327,-235
-72,-134,-52,115,-24,-106,-60,-292,-318,-274,-327,-235
-66,-134,-58,115,-18,-106,-54,-280,-312,-274,-327,-235
-66,-134,-64,115,-12,-106,-42,-262,-306,-274,-327,-235
-60,-134,-70,109,-6,-106,-36,-250,-300,-274,-327,-235
-54,-134,-76,109,0,-106,-30,-238,-294,-274,-327,-235
-54,-134,-76,109,0,-106,-30,-232,-288,-268,-327,-235
-54,-134,-76,103,0,-106,-30,-226,-282,-268,-327,-235
-48,-134,-76,97,0,-106,-24,-220,-282,-262,-321,-235
-42,-134,-82,91,5,-112,-24,-214,-276,-262,-315,-235
-36,-134,-82,91,5,-112,-24,-208,-276,-256,-309,-235
-30,-134,-82,91,5,-112,-24,-208,-270,-250,-303,-235
-30,-134,-88,91,11,-112,-24,-202,-264,-244,-303,-229
-30,-134,-94,91,17,-118,-24,-190,-258,-238,-297,-229
-24,-134,-100,85,23,-118,-24,-184,-252,-232,-291,-229
-18,-134,-106,85,29,-124,-24,-178,-246,-226,-285,-223
-12,-134,-106,85,35,-124,-24,-172,-240,-220,-273,-217
-12,-134,-106,85,35,-124,-24,-172,-234,-214,-273,-217
-6,-134,-106,79,35,-124,-24,-172,-234,-214,-273,-217
-1,-134,-112,79,41,-124,-24,-172,-228,-214,-273,-211
5,-134,-112,79,41,-124,-24,-172,-228,-208,-267,-205
11,-134,-112,79,41,-124,-24,-166,-222,-208,-261,-205
11,-134,-112,73,41,-124,-24,-160,-222,-208,-261,-199
11,-134,-112,73,47,-124,-24,-160,-222,-208,-255,-193
11,-134,-118,73,53,-124,-24,-154,-216,-208,-249,-193
11,-134,-124,73,59,-124,-24,-148,-210,-202,-249,-193
17,-134,-130,73,59,-124,-24,-148,-204,-196,-249,-193
23,-128,-130,67,65,-130,-24,-148,-204,-190,-243,-187
29,-122,-130,55,65,-130,-24,-148,-204,-184,-237,-181
35,-122,-136,49,71,-130,-24,-148,-204,-184,-237,-181
35,-122,-136,43,71,-130,-24,-148,-204,-184,-237,-181
41,-122,-136,43,71,-130,-24,-148,-204,-184,-237,-181
41,-116,-136,37,71,-130,-24,-142,-204,-178,-237,-175
41,-116,-136,31,71,-130,-30,-142,-204,-172,-237,-175
47,-116,-136,25,77,-130,-30,-136,-198,-166,-237,-169
47,-110,-136,19,77,-130,-30,-136,-192,-160,-237,-163
47,-110,-136,19,83,-130,-30,-130,-186,-154,-237,-157
47,-110,-136,19,83,-130,-30,-124,-180,-148,-237,-151
47,-110,-136,19,83,-130,-36,-124,-174,-142,-231,-145
47,-110,-136,19,83,-130,-42,-118,-174,-136,-219,-139
47,-110,-136,19,83,-130,-42,-118,-168,-130,-213,-133
53,-104,-136,13,89,-130,-42,-118,-162,-124,-207,-133
59,-98,-136,13,89,-130,-48,-112,-156,-124,-201,-127
65,-98,-136,13,89,-130,-54,-112,-150,-124,-195,-127
65,-98,-136,7,89,-130,-60,-112,-150,-118,-195,-127
71,-92,-136,1,89,-130,-66,-112,-150,-118,-195,-127
71,-86,-136,-4,89,-130,-72,-112,-144,-118,-189,-127
77,-80,-136,-10,95,-130,-72,-112,-138,-112,-189,-121
83,-74,-136,-16,101,-130,-72,-112,-132,-106,-189,-115
89,-74,-142,-16,107,-130,-84,-112,-126,-100,-183,-109
95,-74,-142,-16,107,-130,-90,-106,-120,-94,-183,-103
101,-74,-142,-16,113,-124,-96,-100,-114,-94,-177,-97
107,-74,-142,-16,119,-124,-102,-100,-108,-88,-171,-91
107,-68,-142,-22,119,-124,-102,-100,-102,-88,-171,-85
113,-68,-148,-22,125,-124,-102,-100,-102,-88,-165,-85
113,-62,-148,-28,125,-124,-108,-94,-96,-82,-165,-85
119,-56,-148,-34,131,-124,-114,-94,-90,-82,-165,-85
125,-50,-148,-46,137,-124,-120,-94,-84,-76,-165,-79
131,-44,-148,-52,143,-124,-126,-88,-78,-70,-159,-73
143,-38,-148,-58,143,-118,-132,-88,-72,-64,-153,-67
149,-32,-148,-64,143,-112,-138,-82,-60,-58,-147,-61
155,-26,-148,-70,143,-106,-138,-76,-54,-46,-141,-55
161,-14,-148,-76,149,-100,-144,-70,-42,-40,-129,-43
167,-3,-148,-82,155,-94,-150,-64,-36,-34,-123,-37
173,3,-148,-88,161,-88,-156,-58,-24,-28,-117,-31
179,15,-148,-100,161,-82,-162,-46,-12,-22,-105,-19
185,27,-148,-106,167,-82,-168,-40,-1,-10,-93,-13
197,33,-148,-118,173,-82,-168,-28,11,2,-81,-7
203,33,-148,-124,173,-82,-168,-22,23,7,-75,-2
209,39,-148,-130,173,-82,-168,-16,29,19,-69,4
215,45,-148,-136,179,-82,-168,-4,41,31,-57,16
221,45,-148,-136,179,-82,-168,7,53,43,-51,28
221,45,-148,-136,179,-76,-168,19,65,55,-45,40
221,45,-148,-136,179,-70,-168,31,71,61,-39,52
221,51,-148,-142,179,-64,-168,43,83,67,-33,64
221,57,-148,-142,179,-58,-162,55,95,73,-21,70
221,63,-148,-142,179,-52,-162,61,107,79,-9,76
221,69,-148,-148,179,-46,-156,67,113,85,-3,82
221,75,-148,-148,179,-46,-144,73,119,91,2,82
221,75,-148,-148,179,-40,-138,79,125,91,8,82
221,81,-142,-148,179,-34,-132,91,131,97,8,82
221,87,-130,-154,179,-28,-126,103,137,103,8,88
221,87,-124,-154,179,-22,-120,115,143,109,8,88
221,93,-118,-154,179,-16,-114,127,149,115,14,88
221,93,-112,-154,173,-16,-108,133,155,115,20,88
221,93,-106,-154,167,-16,-96,145,161,121,26,88
221,99,-100,-154,161,-10,-90,151,167,127,32,88
221,99,-94,-154,155,-4,-78,157,173,133,32,88
215,99,-88,-154,149,1,-66,169,179,133,38,88
209,99,-82,-154,143,7,-54,175,185,139,44,88
203,99,-76,-154,137,7,-42,187,191,145,50,88
197,99,-70,-154,131,7,-30,199,197,151,50,88
191,99,-70,-148,125,7,-18,211,203,157,56,88
185,99,-70,-142,125,7,-6,217,209,163,56,88
179,99,-70,-136,119,7,0,229,215,163,56,88
167,99,-70,-130,113,7,11,235,215,163,56,88
155,99,-64,-130,107,7,23,235,215,163,56,82
143,93,-58,-130,101,7,35,241,215,163,56,76
137,87,-52,-124,95,7,41,241,215,163,56,70
131,81,-46,-118,89,7,47,241,215,163,56,64
125,69,-46,-106,83,7,53,241,215,163,56,58
119,63,-46,-100,77,7,59,241,215,163,56,52
113,57,-40,-88,71,7,65,241,215,163,56,46
101,57,-34,-82,65,7,71,241,215,163,56,40
95,51,-28,-76,59,7,77,241,215,163,56,34
83,45,-22,-70,53,7,83,235,215,163,56,28
71,39,-22,-64,47,7,89,229,209,163,50,22
65,33,-22,-58,47,7,95,223,197,157,44,16
59,27,-22,-52,41,7,95,211,185,157,44,10
53,21,-22,-46,41,1,95,199,173,151,44,4
47,15,-22,-40,35,1,95,187,161,139,32,-2
41,9,-22,-34,29,1,95,175,149,133,20,-13
41,3,-22,-28,29,-4,95,163,137,121,-3,-19
41,-3,-22,-22,29,-4,95,151,125,109,-15,-31
35,-14,-22,-10,29,-10,95,139,113,103,-21,-37
29,-20,-22,-4,29,-16,95,127,101,97,-27,-43
23,-26,-22,-4,29,-16,95,109,89,91,-27,-49
17,-26,-22,1,29,-22,95,97,77,79,-27,-49
11,-26,-22,1,29,-22,95,85,65,73,-27,-55
11,-26,-22,1,29,-22,95,73,59,67,-33,-55
11,-26,-22,1,29,-22,95,67,47,61,-39,-55
11,-26,-22,1,23,-22,95,61,41,55,-45,-61
5,-26,-22,7,17,-22,95,55,29,49,-51,-67
5,-26,-22,13,17,-22,95,49,23,43,-57,-67
5,-26,-22,13,17,-22,95,43,17,31,-63,-67
-1,-32,-22,13,11,-22,89,37,11,25,-63,-73
-6,-32,-22,13,11,-22,89,31,5,19,-69,-79
-6,-38,-22,19,11,-22,83,25,-1,13,-75,-79
-6,-38,-22,19,11,-22,83,25,-6,7,-81,-85
-6,-38,-22,19,11,-22,83,19,-12,2,-81,-91
-6,-44,-22,19,11,-22,83,19,-18,2,-81,-91
-6,-44,-22,25,11,-28,83,19,-24,-4,-81,-91
-6,-44,-22,25,11,-28,83,13,-30,-4,-81,-97
-6,-44,-22,25,5,-28,83,13,-30,-4,-81,-97
-6,-44,-22,25,5,-28,83,7,-30,-10,-81,-97
-6,-44,-22,31,5,-28,83,1,-30,-10,-81,-97
-6,-44,-22,31,5,-28,83,1,-30,-10,-81,-103
-6,-44,-22,31,5,-28,83,1,-36,-16,-81,-109
-12,-44,-22,31,5,-28,83,1,-36,-22,-81,-109
-12,-44,-22,31,5,-28,83,1,-36,-22,-81,-109
-12,-44,-22,31,5,-28,83,-4,-36,-22,-81,-109
-12,-44,-22,31,5,-28,83,-4,-36,-22,-81,-109
-12,-44,-22,31,5,-28,83,-4,-36,-22,-87,-109
-12,-44,-22,31,5,-28,83,-4,-36,-22,-87,-109
-12,-44,-22,31,5,-28,83,-4,-36,-22,-87,-109
-12,-44,-22,31,5,-28,83,-4,-36,-22,-87,-109
-12,-44,-22,31,5,-28,83,-4,-36,-22,-87,-109
-12,-44,-22,31,5,-28,83,-4,-36,-22,-87,-109
-12,-44,-22,31,5,-28,83,-4,-36,-22,-87,-109
-12,-44,-22,31,5,-28,83,-4,-36,-22,-87,-109
-12,-44,-22,31,5,-28,83,-4,-36,-22,-87,-109
-12,-44,-22,31,5,-28,83,-4,-36,-22,-87,-109
-12,-44,-22,31,5,-28,83,-4,-36,-22,-87,-109
-12,-44,-22,31,5,-28,83,-4,-36,-22,-87,-109
-12,-44,-22,31,5,-28,83,-4,-36,-22,-87,-109
-12,-44,-22,31,0,-28,83,-4,-36,-22,-87,-109
-18,-44,-22,31,-6,-28,83,-4,-36,-22,-87,-109
-18,-44,-22,31,-12,-28,83,-4,-42,-22,-87,-109
-18,-44,-22,31,-12,-28,83,-4,-42,-22,-87,-109
-18,-44,-16,37,-18,-28,77,-4,-42,-22,-87,-109
-18,-44,-16,37,-18,-28,77,-4,-42,-22,-87,-109
-24,-44,-16,37,-18,-28,77,-4,-48,-22,-87,-109
-24,-44,-16,37,-18,-28,77,-4,-48,-22,-87,-109
-24,-44,-16,37,-18,-28,77,-10,-48,-28,-87,-109
-24,-44,-16,37,-18,-28,77,-10,-48,-28,-87,-109
-24,-44,-16,37,-18,-28,77,-10,-48,-28,-87,-109
-24,-44,-16,37,-18,-28,77,-10,-48,-34,-87,-109
-24,-44,-16,37,-18,-28,77,-10,-54,-34,-87,-109
-24,-44,-16,37,-18,-28,77,-10,-54,-34,-87,-109
-24,-44,-16,37,-18,-28,77,-10,-54,-40,-87,-109
-24,-44,-16,37,-18,-28,77,-10,-54,-40,-87,-109
-24,-44,-16,37,-18,-34,77,-10,-54,-40,-87,-109
-24,-44,-16,37,-18,-34,77,-10,-54,-40,-87,-109
-24,-44,-16,37,-18,-34,71,-10,-54,-40,-87,-109
-24,-44,-16,37,-18,-34,71,-10,-54,-40,-87,-109
-24,-44,-16,37,-18,-34,71,-10,-54,-46,-87,-109
-24,-44,-16,37,-18,-34,71,-10,-54,-46,-87,-109
-24,-44,-16,37,-18,-34,71,-16,-54,-46,-87,-109
-24,-44,-16,37,-18,-34,71,-16,-54,-52,-87,-109
-24,-44,-16,37,-18,-34,71,-16,-60,-58,-87,-109
-24,-44,-16,37,-18,-34,71,-16,-60,-58,-87,-109
-24,-44,-16,37,-18,-34,71,-16,-60,-58,-87,-109
-24,-44,-16,37,-18,-34,71,-22,-66,-58,-87,-109
-24,-44,-16,43,-18,-34,71,-22,-72,-64,-87,-109
-24,-44,-16,43,-18,-34,71,-22,-72,-64,-87,-109
-24,-44,-16,43,-18,-34,71,-28,-72,-64,-87,-109
-24,-50,-16,43,-18,-34,71,-28,-72,-64,-93,-109
-24,-50,-16,43,-18,-34,71,-34,-72,-64,-93,-109
-30,-50,-16,43,-18,-34,71,-34,-78,-70,-93,-109
-30,-50,-16,43,-18,-34,71,-34,-78,-76,-93,-109
-30,-56,-22,43,-18,-40,71,-34,-78,-76,-99,-109
-30,-56,-28,43,-18,-46,71,-40,-84,-82,-105,-109
-30,-62,-34,43,-18,-52,71,-46,-84,-88,-111,-109
-30,-62,-34,43,-18,-58,71,-46,-84,-88,-111,-109
-30,-62,-40,43,-18,-64,71,-52,-84,-94,-111,-109
-30,-62,-40,49,-18,-64,71,-58,-84,-94,-111,-109
-30,-62,-40,49,-18,-64,71,-58,-90,-94,-111,-109
-30,-62,-40,49,-18,-64,71,-58,-96,-100,-117,-109
-30,-68,-40,49,-18,-64,71,-58,-96,-106,-117,-109
-30,-74,-40,49,-12,-64,71,-58,-96,-112,-117,-109
-30,-74,-40,49,-12,-64,71,-58,-102,-118,-123,-109
-30,-74,-40,49,-12,-64,71,-64,-102,-118,-123,-109
-30,-80,-40,49,-12,-64,71,-64,-102,-118,-129,-109
-30,-80,-40,49,-12,-64,71,-64,-108,-118,-135,-109
-36,-80,-46,49,-12,-64,71,-64,-114,-118,-135,-109
-36,-86,-46,55,-12,-64,71,-70,-114,-124,-135,-115
-36,-86,-46,55,-12,-64,65,-70,-114,-130,-135,-115
-36,-86,-46,55,-12,-64,65,-70,-114,-130,-135,-115
-36,-86,-46,55,-12,-64,65,-70,-120,-136,-135,-115
-36,-86,-46,55,-12,-64,65,-76,-120,-136,-135,-115
-36,-86,-46,55,-12,-64,65,-76,-126,-136,-135,-115
-36,-86,-46,55,-12,-70,65,-76,-126,-136,-135,-115
-36,-86,-46,55,-12,-70,65,-76,-126,-142,-135,-115
-36,-86,-46,55,-12,-70,65,-76,-126,-148,-135,-115
-36,-86,-46,55,-12,-70,65,-76,-132,-148,-135,-115
-36,-92,-46,55,-12,-76,65,-76,-132,-148,-135,-115
-36,-92,-46,61,-6,-76,65,-82,-132,-148,-135,-115
-36,-92,-46,61,0,-76,65,-82,-132,-154,-141,-115
-36,-98,-46,61,0,-76,65,-82,-132,-154,-141,-115
-36,-98,-46,61,0,-76,65,-82,-132,-154,-141,-115
-36,-98,-46,61,0,-76,65,-82,-132,-154,-141,-115
-36,-98,-46,61,0,-76,65,-82,-132,-154,-141,-115
-36,-98,-46,61,0,-76,65,-88,-132,-160,-141,-115
-36,-98,-46,61,0,-76,65,-88,-132,-160,-141,-115
-36,-98,-46,61,0,-76,65,-88,-132,-160,-141,-115
-36,-98,-46,61,0,-76,65,-88,-132,-160,-141,-115
-36,-98,-46,61,0,-76,65,-88,-132,-160,-141,-115
-36,-98,-46,61,0,-76,65,-88,-132,-166,-141,-115
-36,-92,-40,61,0,-70,65,-88,-132,-166,-141,-115
-36,-80,-34,61,0,-64,65,-88,-132,-166,-141,-115
-36,-68,-22,55,0,-52,65,-88,-132,-166,-141,-115
-36,-56,-16,49,0,-46,71,-82,-132,-166,-141,-115
-36,-44,-10,37,-6,-34,77,-82,-126,-160,-135,-109
-36,-32,-4,31,-12,-22,83,-76,-120,-154,-129,-103
-36,-26,1,25,-12,-16,89,-70,-114,-148,-129,-97
-36,-14,7,13,-12,-4,95,-64,-108,-136,-123,-91
-30,-3,13,7,-12,1,95,-58,-102,-130,-111,-91
-24,3,13,1,-12,1,95,-52,-90,-124,-105,-85
-18,3,13,1,-12,1,95,-40,-84,-118,-99,-85
-18,3,13,1,-12,1,101,-28,-78,-112,-93,-85
-18,3,19,-4,-12,1,107,-22,-72,-106,-93,-85
-18,9,19,-4,-12,1,107,-16,-66,-106,-87,-85
-18,15,19,-10,-12,7,107,-16,-66,-100,-81,-79
-12,21,25,-22,-12,13,107,-16,-66,-94,-75,-73
-6,33,25,-28,-12,19,101,-16,-66,-94,-69,-61
-1,45,31,-34,-12,25,95,-22,-66,-94,-69,-55
5,57,37,-40,-12,37,83,-28,-66,-82,-69,-49
5,69,43,-46,-12,49,71,-40,-66,-64,-69,-43
11,81,49,-52,-12,61,65,-46,-66,-46,-63,-37
17,87,55,-52,-12,67,59,-52,-66,-34,-63,-31
17,93,55,-58,-12,73,59,-58,-66,-28,-63,-31
17,93,61,-64,-12,73,59,-58,-66,-22,-63,-31
17,93,67,-64,-12,73,59,-58,-66,-16,-63,-31
17,93,67,-64,-12,73,59,-58,-66,-4,-51,-25
17,93,67,-64,-12,73,59,-58,-66,2,-45,-19
17,93,67,-64,-12,73,59,-58,-66,7,-39,-19
17,93,67,-64,-12,73,59,-58,-66,7,-39,-19
17,93,67,-64,-12,73,59,-58,-66,7,-39,-13
23,93,67,-64,-12,73,59,-58,-66,7,-33,-13
23,93,61,-64,-12,73,59,-58,-66,7,-33,-13
23,93,55,-64,-12,73,53,-58,-72,7,-33,-13
23,87,49,-64,-12,67,47,-64,-78,2,-33,-13
23,81,43,-64,-6,61,41,-70,-84,-10,-39,-19
23,69,31,-58,0,49,35,-82,-90,-16,-45,-25
23,39,13,-52,5,19,35,-94,-102,-22,-57,-31
23,15,-4,-40,5,1,35,-100,-114,-34,-69,-43
23,-3,-16,-28,5,-16,29,-106,-126,-40,-81,-49
17,-14,-22,-16,5,-28,29,-112,-132,-52,-87,-55
11,-26,-28,1,5,-34,29,-118,-144,-64,-99,-67
-1,-50,-34,25,5,-46,29,-124,-156,-76,-117,-79
-12,-62,-40,37,5,-52,29,-130,-168,-94,-129,-91
-24,-74,-46,49,5,-58,29,-136,-174,-100,-135,-103
-30,-80,-52,55,5,-64,29,-136,-180,-112,-141,-109
-30,-92,-58,61,5,-76,29,-142,-186,-118,-153,-121
-30,-104,-64,67,5,-88,29,-148,-192,-130,-165,-127
-30,-116,-70,73,5,-100,29,-154,-198,-142,-171,-133
-30,-128,-76,79,5,-106,29,-160,-204,-148,-183,-139
-30,-134,-76,85,5,-112,29,-166,-210,-160,-195,-145
-30,-134,-76,85,5,-118,29,-172,-222,-166,-201,-151
-36,-134,-76,85,5,-118,23,-178,-228,-172,-207,-151
-36,-134,-76,85,5,-118,23,-178,-228,-178,-207,-157
-36,-134,-76,85,5,-118,23,-178,-228,-178,-207,-157
-36,-134,-76,85,5,-118,23,-178,-228,-178,-207,-157
-42,-134,-76,85,5,-118,23,-178,-222,-178,-207,-157
-42,-134,-76,85,5,-118,29,-172,-216,-172,-201,-157
-42,-134,-70,85,5,-112,35,-166,-204,-166,-189,-151
-42,-134,-58,85,5,-106,47,-154,-192,-154,-171,-145
-48,-128,-46,85,0,-94,53,-130,-180,-124,-147,-139
-54,-116,-34,85,-6,-82,59,-118,-162,-106,-129,-127
-54,-110,-28,85,-12,-70,71,-100,-150,-88,-117,-121
-60,-104,-22,85,-24,-64,83,-76,-120,-76,-105,-115
-72,-98,-10,85,-36,-58,95,-46,-90,-46,-93,-109
-84,-86,13,85,-48,-46,119,-22,-60,-16,-81,-103
-96,-74,43,85,-60,-28,143,7,-30,2,-63,-91
-102,-50,67,85,-78,-4,167,37,11,37,-33,-79
-108,-32,97,79,-90,19,191,67,41,79,8,-67
-114,-8,133,73,-108,49,209,97,71,109,38,-43
-120,15,157,67,-120,79,227,133,101,139,74,-25
-126,27,175,61,-132,97,257,175,143,175,104,-7
-126,33,181,61,-144,109,299,253,209,229,134,4
-126,39,181,55,-144,115,341,367,305,307,164,10
-126,45,181,49,-144,115,413,517,443,391,200,16
-126,57,193,37,-150,127,515,691,617,535,296,40
-120,111,217,-4,-156,157,593,901,827,721,434,112
-96,207,259,-52,-156,217,659,1069,1037,943,638,238
-60,315,343,-130,-162,307,743,1261,1295,1213,890,388
-30,441,421,-196,-180,421,881,1597,1649,1555,1166,562
-1,543,487,-268,-192,511,1031,1975,2045,1909,1466,736
47,633,535,-340,-204,577,1121,2208,2356,2244,1748,928
89,741,595,-406,-216,667,1163,2226,2547,2531,2030,1114
125,837,661,-478,-234,751,1169,2154,2589,2753,2299,1306
179,915,691,-550,-234,805,1145,1903,2589,2879,2514,1474
251,1011,721,-640,-234,865,983,1555,2529,2951,2688,1636
299,1131,775,-724,-234,937,779,1141,2356,2993,2850,1804
329,1185,817,-760,-234,991,587,787,2182,2999,2940,1888
335,1179,817,-760,-234,991,467,571,2074,2993,2928,1888
317,1053,781,-688,-234,895,371,415,1907,2831,2676,1726
233,831,643,-532,-228,739,281,235,1673,2519,2281,1426
137,585,505,-364,-216,541,209,43,1367,2112,1826,1096
23,387,409,-208,-210,397,167,-154,1007,1669,1400,778
-78,249,367,-82,-210,313,119,-364,593,1207,998,508
-168,159,355,-4,-222,271,23,-568,167,697,590,250
-228,105,349,55,-246,235,-78,-742,-228,199,212,16
-258,57,337,97,-258,193,-132,-826,-534,-190,-69,-103
-264,-3,295,121,-258,139,-168,-856,-678,-430,-243,-157
-264,-32,229,133,-246,91,-192,-856,-696,-490,-315,-187
-252,-56,187,133,-216,49,-204,-832,-696,-496,-333,-205
-240,-62,145,133,-186,31,-216,-796,-678,-496,-333,-211
-228,-62,133,133,-174,25,-222,-772,-648,-484,-333,-211
-210,-62,127,133,-168,25,-228,-736,-618,-472,-327,-211
-192,-62,121,127,-156,25,-234,-700,-594,-454,-327,-211
-180,-62,109,127,-138,19,-234,-658,-570,-448,-327,-211
-168,-68,85,121,-120,7,-228,-616,-540,-436,-327,-211
-156,-80,55,121,-90,-10,-210,-544,-510,-418,-321,-211
-126,-86,25,115,-66,-34,-168,-478,-456,-388,-309,-211
-114,-92,1,115,-54,-46,-138,-424,-408,-358,-297,-205
-102,-98,-16,109,-36,-64,-114,-382,-384,-346,-285,-199
-90,-110,-34,109,-24,-76,-96,-340,-360,-334,-279,-199
-84,-116,-46,109,-12,-88,-78,-310,-348,-322,-273,-199
-78,-122,-58,109,-6,-94,-66,-286,-336,-310,-267,-193
-72,-128,-64,109,0,-100,-54,-274,-324,-304,-267,-193
-66,-128,-70,109,5,-106,-48,-268,-318,-298,-261,-193
-66,-128,-76,109,11,-112,-42,-262,-312,-298,-261,-193
-60,-128,-82,109,17,-112,-36,-256,-306,-298,-261,-193
-54,-128,-88,109,23,-118,-36,-250,-300,-298,-261,-193
-48,-128,-94,103,23,-118,-36,-244,-294,-298,-261,-193
-42,-128,-100,97,29,-118,-36,-238,-288,-292,-261,-187
-36,-128,-100,91,35,-118,-36,-232,-288,-286,-255,-181
-30,-128,-106,91,41,-118,-36,-226,-288,-280,-249,-181
-30,-128,-112,85,41,-118,-36,-220,-282,-274,-249,-181
-24,-128,-112,79,47,-118,-36,-214,-276,-268,-249,-175
-18,-128,-112,79,53,-124,-36,-208,-270,-268,-249,-175
-18,-128,-112,79,59,-124,-36,-202,-270,-262,-243,-169
-18,-128,-118,73,59,-124,-36,-196,-270,-262,-237,-169
-12,-128,-118,73,59,-124,-36,-196,-270,-262,-237,-169
-12,-128,-118,73,59,-124,-36,-196,-264,-256,-237,-169
-12,-128,-124,73,59,-124,-36,-190,-258,-256,-231,-169
-12,-128,-130,73,65,-124,-36,-184,-252,-250,-231,-169
-6,-128,-130,73,65,-124,-36,-184,-246,-250,-231,-169
-6,-128,-130,67,65,-124,-36,-184,-240,-244,-231,-163
-1,-128,-130,61,71,-130,-36,-184,-234,-238,-225,-157
5,-128,-136,61,71,-130,-36,-184,-228,-232,-219,-151
5,-128,-136,61,71,-130,-36,-184,-228,-226,-213,-145
11,-128,-142,61,71,-130,-36,-184,-228,-226,-213,-145
11,-128,-142,55,77,-130,-36,-178,-228,-226,-213,-139
11,-128,-142,55,77,-130,-36,-172,-222,-226,-213,-139
17,-128,-142,55,77,-130,-36,-166,-222,-220,-213,-133
17,-128,-142,55,83,-130,-36,-160,-216,-214,-213,-133
17,-128,-142,55,83,-130,-36,-160,-216,-214,-213,-133
17,-128,-142,55,83,-130,-36,-160,-216,-214,-207,-133
17,-128,-142,49,83,-130,-36,-160,-210,-208,-201,-127
23,-128,-142,49,83,-130,-36,-160,-204,-208,-195,-121
29,-122,-142,43,83,-130,-36,-154,-204,-208,-189,-121
29,-122,-142,43,83,-130,-36,-148,-204,-208,-189,-121
35,-122,-142,37,83,-130,-36,-148,-204,-208,-189,-121
35,-122,-142,37,89,-130,-42,-148,-204,-202,-189,-115
41,-122,-148,31,95,-130,-48,-142,-198,-202,-183,-109
47,-116,-154,31,101,-130,-48,-142,-198,-202,-177,-103
53,-116,-154,25,107,-130,-54,-142,-198,-196,-177,-103
59,-110,-154,19,113,-130,-60,-136,-192,-190,-177,-103
65,-104,-154,13,113,-130,-60,-136,-186,-190,-177,-97
71,-104,-160,13,119,-130,-60,-130,-186,-190,-177,-91
77,-104,-166,13,119,-130,-66,-130,-180,-184,-177,-91
77,-104,-166,13,119,-130,-72,-124,-174,-178,-171,-91
83,-104,-166,13,125,-130,-78,-124,-168,-172,-165,-85
89,-104,-166,13,125,-130,-84,-124,-162,-172,-165,-79
89,-98,-166,7,125,-130,-90,-118,-156,-166,-165,-73
89,-92,-166,1,125,-130,-96,-112,-150,-160,-159,-67
89,-86,-166,-4,125,-130,-102,-112,-150,-160,-153,-61
95,-86,-166,-10,131,-130,-108,-112,-144,-160,-147,-55
101,-80,-166,-16,137,-130,-114,-112,-138,-154,-141,-49
107,-74,-166,-22,143,-130,-120,-112,-132,-154,-141,-49
113,-68,-166,-28,143,-130,-126,-112,-132,-154,-141,-49
119,-62,-166,-34,149,-124,-132,-106,-126,-148,-135,-49
125,-56,-166,-40,149,-124,-132,-100,-120,-142,-135,-43
131,-56,-166,-46,149,-124,-138,-94,-108,-136,-135,-37
137,-50,-166,-52,155,-118,-144,-88,-96,-130,-135,-25
143,-50,-166,-58,161,-118,-144,-82,-90,-124,-129,-13
149,-44,-172,-58,167,-118,-150,-82,-84,-118,-117,-2
149,-38,-172,-64,173,-118,-156,-76,-78,-112,-111,4
155,-32,-172,-70,173,-118,-162,-70,-66,-100,-99,10
161,-20,-172,-76,173,-118,-168,-64,-54,-94,-93,16
167,-14,-172,-82,173,-118,-168,-58,-48,-88,-87,22
179,-8,-172,-88,179,-118,-168,-52,-36,-82,-81,28
191,-3,-172,-100,185,-118,-174,-46,-24,-70,-75,34
203,3,-172,-106,191,-112,-180,-34,-12,-58,-69,40
209,9,-178,-112,197,-106,-180,-22,5,-40,-63,52
215,15,-178,-118,203,-100,-180,-16,17,-28,-57,64
215,21,-178,-124,203,-94,-180,-10,29,-22,-51,70
221,27,-178,-130,203,-88,-180,-4,35,-16,-39,76
221,39,-178,-136,203,-82,-180,7,41,-10,-27,82
227,51,-178,-142,203,-76,-180,19,47,2,-15,88
233,57,-178,-148,203,-70,-180,25,59,7,-3,94
233,63,-178,-154,203,-70,-180,37,65,13,2,94
239,69,-178,-154,203,-70,-180,49,77,25,8,100
239,75,-178,-160,203,-64,-180,61,89,31,14,106
239,75,-172,-160,203,-58,-180,73,95,37,20,112
239,75,-166,-160,203,-52,-180,85,101,43,26,118
239,81,-160,-160,203,-46,-180,91,107,49,32,124
239,81,-154,-160,203,-40,-174,97,113,55,38,124
239,81,-148,-160,203,-34,-168,109,119,55,38,124
239,87,-142,-160,203,-28,-162,121,125,61,38,130
239,93,-136,-160,203,-22,-156,127,131,67,44,130
239,99,-130,-160,203,-22,-150,133,137,73,50,130
239,99,-130,-160,197,-22,-144,145,143,85,56,130
239,99,-130,-166,197,-22,-132,157,155,97,62,136
239,99,-124,-166,197,-16,-120,175,167,109,74,142
233,99,-124,-166,191,-16,-108,187,179,121,86,148
227,99,-124,-166,191,-16,-96,199,191,127,92,148
221,99,-124,-166,185,-16,-84,211,197,133,98,148
215,99,-118,-160,179,-16,-72,223,203,139,98,148
209,99,-112,-154,173,-16,-54,229,209,139,98,148
197,99,-100,-148,161,-10,-42,241,215,139,98,148
185,99,-94,-142,149,-10,-30,247,221,139,98,148
173,99,-88,-136,137,-10,-24,253,221,139,98,148
161,93,-82,-130,131,-10,-12,259,227,139,98,142
155,87,-76,-124,125,-10,0,259,227,139,98,136
149,81,-70,-118,119,-10,5,265,227,139,98,130
137,75,-64,-112,113,-10,11,265,227,139,98,124
125,69,-58,-106,107,-10,23,265,227,139,98,118
119,63,-58,-100,101,-10,35,265,227,139,98,112
113,57,-52,-94,95,-10,41,265,227,139,98,106
101,51,-52,-88,89,-10,47,265,227,139,98,100
95,45,-46,-82,83,-10,47,265,221,139,98,94
83,39,-46,-76,77,-10,47,259,215,139,92,88
77,33,-46,-70,77,-10,47,253,203,139,86,82
71,33,-40,-64,71,-10,53,247,197,139,80,76
65,33,-40,-58,65,-10,53,235,191,139,74,70
59,27,-34,-46,59,-10,53,217,179,133,68,58
47,21,-34,-34,53,-10,53,205,167,121,62,46
35,15,-34,-28,47,-10,53,187,155,109,50,40
29,9,-28,-22,41,-10,53,175,143,97,44,28
29,3,-28,-16,35,-10,53,163,131,85,32,22
23,-3,-28,-10,35,-10,53,151,107,73,20,16
17,-8,-28,-4,35,-10,53,139,95,55,8,10
11,-14,-28,1,35,-10,53,121,71,43,-3,4
11,-14,-28,1,35,-10,53,109,59,37,-9,-2
11,-14,-28,1,35,-10,53,97,53,31,-15,-7
5,-14,-28,7,35,-10,47,85,41,19,-21,-13
5,-20,-28,7,35,-10,41,73,35,7,-27,-19
5,-26,-28,13,35,-16,35,61,29,2,-33,-25
5,-32,-28,13,35,-16,29,55,23,2,-33,-25
5,-38,-28,13,29,-16,29,55,17,-4,-39,-31
5,-44,-28,19,29,-22,29,49,11,-10,-45,-31
5,-50,-28,25,29,-28,29,49,5,-10,-45,-31
-1,-56,-28,31,29,-34,29,49,-1,-16,-45,-31
-6,-56,-28,31,29,-40,29,43,-6,-16,-45,-31
-6,-56,-28,31,29,-40,29,37,-12,-22,-45,-31
-6,-56,-28,31,29,-40,29,37,-12,-28,-45,-31
-12,-56,-28,31,29,-40,23,31,-18,-28,-45,-31
-12,-56,-28,31,29,-40,23,25,-18,-28,-45,-37
-12,-56,-28,31,29,-40,23,25,-18,-34,-51,-37
-12,-56,-28,31,29,-40,23,19,-24,-34,-51,-37
-12,-56,-28,31,23,-40,23,13,-30,-34,-57,-37
-12,-56,-28,31,23,-40,23,7,-30,-34,-57,-37
-12,-56,-28,31,23,-40,23,7,-30,-34,-57,-37
-18,-56,-28,31,17,-40,23,1,-30,-34,-57,-37
-18,-56,-28,31,17,-40,23,1,-30,-34,-57,-37
-18,-56,-28,37,17,-40,23,1,-30,-34,-57,-37
-18,-56,-28,37,17,-40,17,1,-30,-34,-57,-37
-18,-56,-28,37,11,-40,17,-4,-30,-34,-57,-37
-18,-56,-28,37,11,-40,17,-4,-30,-40,-57,-37
-18,-56,-28,37,11,-40,11,-4,-30,-40,-57,-37
-18,-56,-28,37,11,-40,11,-4,-30,-40,-57,-37
-18,-56,-28,37,11,-40,11,-4,-30,-40,-57,-37
-18,-56,-28,37,11,-40,11,-4,-30,-40,-57,-37
-18,-56,-28,37,11,-40,11,-4,-30,-40,-57,-37
-18,-56,-28,37,11,-40,11,-4,-30,-40,-57,-37
-18,-56,-28,37,11,-40,11,-4,-30,-40,-57,-37
-18,-56,-28,37,11,-40,5,-4,-30,-40,-57,-37
-18,-56,-22,37,11,-40,5,-4,-30,-40,-57,-37
-24,-56,-22,37,11,-40,5,-4,-36,-40,-57,-37
-30,-56,-22,37,5,-40,5,-4,-36,-40,-57,-43
-30,-56,-22,37,5,-40,5,-4,-36,-40,-57,-43
-30,-56,-22,37,5,-40,5,-4,-36,-40,-57,-43
-30,-56,-16,37,0,-40,0,-4,-36,-40,-57,-43
-36,-56,-10,37,-6,-40,0,-4,-36,-40,-57,-43
-36,-56,-10,37,-6,-40,0,-4,-36,-40,-57,-43
-36,-56,-10,37,-6,-40,0,-4,-36,-46,-57,-43
-36,-56,-10,37,-6,-40,0,-10,-36,-46,-57,-43
-36,-56,-10,37,-6,-40,0,-10,-36,-46,-57,-43
-36,-56,-10,37,-6,-40,-6,-10,-36,-46,-57,-43
-36,-56,-10,37,-6,-40,-6,-16,-36,-46,-57,-43
-36,-56,-10,37,-6,-40,-6,-16,-36,-46,-57,-43
-36,-50,-10,37,-6,-40,-6,-16,-36,-46,-57,-43
-36,-50,-10,37,-6,-40,-6,-16,-36,-46,-57,-43
-36,-50,-10,37,-6,-34,-6,-16,-36,-46,-57,-43
-36,-50,-10,37,-6,-34,-6,-16,-36,-46,-57,-43
-36,-50,-10,37,-6,-28,-6,-16,-36,-46,-57,-43
-36,-50,-10,37,-6,-28,-6,-16,-36,-46,-57,-43
-36,-50,-10,37,-6,-28,-6,-16,-36,-46,-57,-43
-36,-50,-10,37,-6,-28,-6,-22,-36,-52,-57,-43
-36,-50,-10,37,-6,-28,-6,-28,-42,-52,-57,-43
-36,-50,-10,37,-6,-28,-6,-34,-42,-52,-57,-43
-36,-50,-10,37,-6,-28,-6,-34,-42,-52,-57,-43
-36,-50,-10,37,-6,-28,-6,-34,-42,-52,-57,-43
-36,-50,-10,43,-6,-28,-6,-34,-48,-58,-57,-43
-36,-50,-10,43,-6,-28,-6,-40,-48,-64,-57,-43
-36,-50,-10,43,-6,-28,-6,-46,-48,-64,-57,-43
-36,-50,-10,43,-6,-28,-6,-46,-54,-70,-63,-43
-36,-50,-10,43,-6,-28,-12,-52,-60,-76,-63,-43
-36,-50,-10,43,-6,-28,-12,-52,-66,-82,-63,-43
-36,-44,-10,43,-6,-28,-12,-52,-72,-82,-63,-43
-36,-44,-10,43,-12,-28,-18,-52,-72,-82,-63,-43
-36,-44,-4,43,-12,-28,-18,-58,-72,-82,-63,-43
-36,-44,-4,43,-12,-28,-18,-58,-72,-82,-63,-43
-42,-44,-4,43,-12,-28,-18,-64,-78,-82,-63,-43
-42,-44,-4,43,-12,-28,-18,-70,-78,-82,-63,-43
-42,-44,-4,49,-12,-28,-18,-70,-78,-82,-63,-43
-42,-44,-4,49,-12,-28,-18,-70,-78,-82,-63,-43
-42,-44,-4,49,-12,-28,-18,-70,-84,-88,-63,-43
-48,-44,-4,49,-12,-28,-18,-76,-84,-88,-69,-43
-48,-50,-4,49,-12,-28,-18,-76,-84,-88,-75,-43
-48,-50,-4,49,-12,-28,-18,-76,-84,-88,-75,-43
-48,-50,-4,49,-12,-28,-18,-76,-84,-94,-75,-43
-48,-50,-4,49,-12,-28,-18,-76,-90,-94,-75,-43
-48,-50,-4,49,-12,-28,-18,-76,-96,-100,-81,-43
-48,-50,-4,55,-12,-28,-18,-76,-102,-100,-81,-43
-48,-50,-4,55,-12,-28,-18,-76,-102,-106,-81,-43
-48,-50,-4,55,-12,-28,-24,-76,-102,-106,-81,-43
-48,-50,-4,61,-12,-34,-24,-76,-102,-106,-87,-49
-48,-50,-4,61,-12,-34,-24,-76,-102,-106,-93,-49
-48,-56,-4,61,-12,-34,-24,-76,-102,-106,-93,-49
-48,-56,-4,61,-12,-34,-24,-82,-102,-106,-93,-49
-54,-62,-4,67,-12,-34,-24,-82,-102,-106,-93,-49
-54,-68,-4,67,-12,-40,-24,-82,-102,-106,-93,-49
-54,-68,-4,67,-12,-40,-24,-82,-102,-106,-93,-49
-54,-68,-4,67,-12,-40,-24,-82,-102,-106,-93,-49
-60,-68,-4,67,-12,-40,-24,-82,-102,-106,-93,-49
-60,-68,-4,67,-12,-40,-24,-82,-102,-106,-93,-49
-60,-68,-4,67,-12,-40,-24,-82,-102,-106,-93,-49
-60,-74,-4,67,-12,-40,-24,-82,-102,-106,-93,-49
-60,-74,-4,67,-12,-40,-24,-82,-102,-112,-93,-49
-60,-74,-4,67,-12,-40,-24,-88,-102,-118,-93,-49
-60,-74,-4,67,-12,-40,-24,-94,-102,-118,-93,-49
-60,-74,-4,67,-12,-40,-24,-94,-102,-118,-93,-49
-60,-74,-10,67,-12,-46,-24,-94,-108,-118,-93,-55
-60,-74,-10,67,-12,-46,-24,-94,-114,-124,-99,-55
-60,-74,-10,67,-12,-46,-24,-100,-114,-130,-105,-55
-60,-74,-10,67,-12,-46,-24,-100,-114,-130,-105,-55
-60,-74,-10,67,-12,-46,-24,-100,-114,-136,-105,-55
-60,-74,-10,67,-18,-46,-24,-100,-114,-136,-105,-55
-60,-74,-10,67,-18,-46,-24,-100,-114,-136,-105,-55
-60,-74,-10,67,-18,-46,-24,-106,-114,-136,-105,-55
-60,-74,-10,67,-18,-46,-24,-106,-114,-136,-105,-55
-60,-74,-10,67,-18,-46,-24,-106,-114,-136,-105,-55
-60,-74,-10,67,-18,-46,-24,-106,-120,-136,-105,-55
-60,-74,-10,67,-18,-46,-24,-106,-120,-136,-105,-55
-60,-80,-10,67,-18,-46,-24,-106,-120,-136,-105,-55
-60,-80,-10,67,-18,-46,-24,-106,-120,-136,-105,-55
-60,-80,-10,67,-18,-46,-24,-106,-126,-136,-105,-55
-60,-80,-10,67,-18,-46,-24,-106,-126,-136,-105,-55
-60,-80,-10,67,-18,-46,-24,-106,-126,-136,-105,-55
-60,-80,-10,67,-18,-46,-24,-106,-126,-136,-105,-55
-60,-80,-10,67,-18,-46,-24,-106,-126,-136,-105,-55
-60,-80,-10,67,-18,-46,-24,-106,-126,-136,-105,-55
-60,-80,-10,67,-18,-46,-24,-106,-126,-136,-105,-55
-60,-80,-10,67,-18,-46,-24,-106,-126,-136,-105,-55
-60,-80,-10,67,-18,-46,-24,-106,-126,-136,-105,-55
-60,-80,-10,67,-18,-46,-24,-106,-126,-136,-105,-55
-60,-80,-10,67,-18,-46,-24,-106,-126,-136,-105,-55
-60,-80,-10,67,-18,-46,-24,-106,-126,-136,-105,-55
-60,-80,-10,67,-18,-46,-24,-106,-132,-136,-105,-55
-60,-80,-10,67,-18,-46,-24,-106,-132,-136,-105,-55
-60,-80,-10,67,-18,-46,-24,-106,-132,-136,-105,-55
-60,-80,-10,67,-18,-46,-24,-106,-132,-136,-105,-55
-60,-80,-10,67,-18,-46,-24,-106,-132,-136,-105,-55
-60,-80,-10,67,-18,-46,-24,-106,-132,-136,-105,-55
-60,-80,-10,67,-18,-46,-24,-106,-132,-136,-105,-55
-60,-74,-4,67,-24,-40,-24,-106,-132,-130,-105,-55
-60,-62,1,61,-30,-34,-24,-106,-132,-124,-105,-55
-60,-50,7,61,-36,-22,-24,-106,-132,-118,-99,-49
-60,-38,19,55,-36,-10,-24,-106,-126,-112,-93,-43
-60,-26,25,49,-36,-4,-18,-106,-114,-106,-81,-37
-54,-14,31,43,-36,1,-12,-100,-102,-100,-69,-31
-54,-8,31,31,-36,7,-6,-94,-90,-88,-57,-19
-48,-3,31,25,-36,13,0,-82,-84,-76,-57,-13
-42,3,31,19,-36,13,5,-70,-78,-76,-51,-7
-42,3,31,19,-36,13,11,-58,-72,-70,-45,-2
-36,3,31,19,-36,13,17,-46,-66,-64,-39,4
-36,9,31,13,-36,13,23,-40,-60,-58,-33,4
-30,21,37,7,-36,19,23,-40,-60,-52,-33,4
-24,33,43,-4,-36,25,23,-40,-60,-52,-27,10
-18,45,49,-16,-36,37,17,-40,-60,-52,-15,16
-12,57,55,-22,-36,43,5,-46,-60,-46,-9,22
-6,69,61,-28,-36,55,-6,-52,-60,-46,-9,28
-6,75,67,-34,-36,67,-18,-58,-60,-46,-3,34
-6,81,73,-40,-36,73,-24,-64,-60,-46,-3,40
-6,87,79,-40,-36,79,-24,-70,-60,-46,-3,40
-6,87,79,-46,-36,79,-24,-70,-60,-46,-3,46
-6,87,79,-46,-36,79,-24,-76,-60,-46,-3,46
-6,87,79,-46,-36,79,-24,-76,-60,-46,-3,46
-1,87,79,-46,-36,79,-24,-76,-60,-40,2,52
5,87,73,-46,-36,79,-24,-70,-54,-34,8,52
11,87,73,-46,-36,79,-24,-70,-48,-28,14,58
11,87,67,-46,-30,79,-24,-70,-42,-22,20,58
17,87,61,-46,-24,79,-24,-70,-42,-22,26,58
17,87,61,-46,-24,79,-24,-70,-42,-22,26,58
17,87,55,-46,-24,73,-24,-70,-42,-22,26,58
17,87,55,-46,-24,67,-24,-70,-48,-22,26,58
17,81,49,-46,-18,61,-30,-82,-60,-28,20,58
17,69,43,-46,-18,55,-42,-88,-72,-40,8,58
17,57,37,-46,-12,49,-48,-100,-84,-52,-3,52
17,45,25,-40,-12,37,-54,-106,-90,-64,-9,46
17,27,13,-34,-12,25,-54,-112,-96,-70,-21,40
17,3,1,-22,-12,7,-54,-124,-102,-76,-27,28
11,-8,-4,-10,-12,-4,-54,-130,-108,-76,-33,22
5,-20,-10,1,-12,-10,-54,-136,-108,-82,-39,10
-6,-32,-10,13,-12,-22,-54,-136,-114,-88,-45,-2
-18,-44,-10,25,-12,-28,-54,-142,-126,-100,-57,-13
-30,-56,-10,37,-12,-34,-54,-142,-138,-112,-69,-25
-36,-68,-16,49,-12,-40,-54,-142,-144,-124,-81,-31
-42,-80,-16,55,-12,-46,-54,-142,-150,-136,-93,-37
-48,-86,-22,61,-12,-52,-54,-148,-156,-148,-99,-43
-54,-98,-28,67,-12,-58,-54,-154,-162,-154,-111,-55
-60,-110,-34,73,-12,-64,-54,-160,-168,-160,-117,-61
-66,-116,-40,79,-12,-70,-54,-166,-180,-160,-123,-61
-66,-122,-40,85,-12,-76,-54,-172,-186,-166,-129,-61
-66,-128,-40,91,-12,-82,-54,-178,-186,-166,-129,-61
-72,-128,-40,97,-12,-82,-54,-184,-192,-166,-129,-61
-72,-134,-40,97,-12,-82,-54,-184,-198,-166,-129,-61
-72,-134,-40,103,-12,-82,-54,-184,-198,-166,-129,-61
-72,-134,-40,103,-12,-88,-54,-178,-198,-166,-129,-61
-72,-134,-40,103,-12,-88,-54,-172,-198,-166,-123,-61
-78,-134,-40,103,-18,-88,-48,-166,-192,-160,-117,-55
-84,-134,-40,103,-24,-88,-42,-154,-180,-148,-111,-55
-90,-134,-34,103,-30,-82,-30,-142,-150,-136,-99,-55
-90,-128,-28,103,-36,-76,-18,-130,-132,-112,-87,-49
-90,-122,-16,103,-48,-70,-6,-118,-114,-100,-75,-43
-102,-116,-4,103,-60,-58,5,-100,-102,-82,-63,-37
-108,-110,13,103,-72,-46,17,-70,-84,-58,-33,-25
-114,-104,25,103,-84,-34,35,-40,-60,-34,-15,-19
-120,-92,55,103,-96,-16,47,-4,-30,-10,2,-7
-126,-80,85,103,-108,13,71,25,5,25,32,4
-132,-50,115,97,-120,37,101,55,47,67,56,28
-138,-20,139,91,-132,61,119,85,89,103,86,40
-144,-3,163,85,-144,79,143,115,131,133,122,58
-144,9,175,79,-156,91,173,157,173,175,152,70
-144,21,187,73,-168,103,203,223,227,223,188,82
-144,33,193,67,-174,115,245,319,317,289,230,94
-144,45,199,55,-174,127,311,469,425,367,272,100
-144,69,211,43,-180,145,401,649,575,487,326,112
-132,117,241,13,-186,181,491,847,773,661,458,166
-108,201,283,-46,-186,241,551,1021,995,883,650,286
-72,309,349,-118,-192,331,635,1195,1235,1129,872,430
-42,429,433,-184,-204,433,767,1477,1565,1447,1136,592
-12,525,505,-256,-222,517,923,1867,1955,1801,1418,754
35,621,547,-328,-228,571,1037,2172,2314,2136,1700,928
89,711,589,-394,-234,649,1091,2268,2547,2441,1982,1114
131,801,637,-460,-240,721,1109,2256,2643,2675,2239,1300
173,873,667,-526,-240,769,1103,2035,2643,2813,2442,1486
251,963,679,-604,-240,817,989,1729,2601,2879,2604,1648
317,1077,715,-706,-234,895,785,1339,2433,2921,2772,1816
353,1149,757,-748,-228,961,587,961,2248,2939,2874,1930
359,1149,763,-754,-222,961,455,697,2110,2933,2874,1936
347,1065,745,-712,-222,907,365,529,1985,2801,2694,1822
275,843,643,-562,-216,733,281,349,1775,2519,2317,1522
173,609,487,-394,-198,553,209,145,1475,2148,1880,1186
71,399,391,-232,-192,397,161,-64,1133,1753,1478,886
-48,249,355,-100,-192,301,119,-274,743,1297,1094,616
-144,153,343,1,-210,253,41,-484,305,841,716,376
-222,99,337,61,-252,223,-72,-670,-90,361,368,166
-264,57,337,103,-282,211,-168,-796,-408,-28,104,46
-276,15,319,127,-282,175,-222,-826,-594,-292,-75,-25
-276,-26,271,139,-276,127,-252,-832,-642,-418,-189,-67
-276,-62,199,145,-252,73,-264,-820,-642,-436,-237,-97
-264,-80,157,145,-222,37,-270,-790,-636,-442,-255,-115
-246,-86,145,145,-210,31,-282,-772,-624,-442,-261,-121
-228,-86,139,145,-204,31,-288,-754,-594,-436,-261,-121
-216,-86,139,145,-192,31,-294,-724,-570,-424,-261,-121
-204,-86,133,139,-180,31,-300,-688,-552,-412,-255,-121
-192,-86,121,139,-162,25,-300,-634,-534,-406,-255,-121
-180,-86,91,139,-144,13,-288,-580,-504,-394,-255,-121
-168,-92,61,139,-120,-10,-258,-502,-456,-376,-255,-121
-150,-98,31,139,-102,-22,-222,-442,-402,-346,-249,-121
-138,-104,19,133,-90,-34,-192,-394,-372,-328,-243,-121
-126,-110,7,127,-78,-46,-162,-364,-348,-316,-237,-121
-114,-116,-10,121,-66,-58,-144,-340,-330,-304,-231,-121
-102,-116,-22,115,-54,-70,-132,-316,-318,-298,-225,-121
-90,-122,-34,115,-42,-76,-120,-304,-306,-292,-225,-121
-84,-128,-46,115,-30,-82,-114,-292,-300,-286,-219,-121
-78,-128,-52,115,-24,-88,-108,-280,-294,-280,-219,-121
-72,-128,-58,115,-18,-100,-102,-268,-288,-274,-219,-121
-66,-128,-64,109,-12,-106,-96,-256,-282,-268,-219,-121
-66,-128,-70,109,-6,-112,-96,-244,-276,-262,-219,-121
-60,-128,-76,109,-6,-112,-96,-238,-270,-256,-213,-121
-60,-128,-82,109,0,-112,-90,-232,-264,-250,-207,-121
-54,-128,-88,109,5,-112,-84,-226,-258,-250,-207,-115
-48,-128,-88,109,11,-112,-84,-226,-252,-250,-207,-115
-48,-128,-88,109,17,-112,-84,-220,-252,-250,-207,-115
-48,-128,-94,109,17,-112,-84,-220,-252,-250,-201,-115
-42,-128,-94,103,17,-112,-84,-214,-246,-244,-201,-109
-42,-128,-94,103,17,-118,-84,-208,-240,-244,-201,-109
-36,-128,-100,97,23,-118,-84,-202,-234,-238,-195,-103
-36,-128,-100,97,23,-118,-84,-196,-228,-232,-195,-97
-36,-128,-106,97,29,-118,-84,-190,-222,-232,-189,-97
-30,-128,-106,97,35,-124,-84,-184,-222,-232,-189,-97
-30,-128,-112,97,35,-124,-84,-166,-216,-226,-189,-91
-24,-128,-112,91,41,-124,-84,-142,-210,-226,-183,-85
-24,-128,-112,91,41,-124,-84,-130,-204,-220,-177,-79
-24,-128,-118,91,41,-124,-84,-124,-204,-214,-171,-73
-18,-128,-118,85,47,-124,-84,-118,-198,-208,-171,-67
-18,-128,-118,85,47,-124,-84,-112,-192,-208,-165,-67
-18,-128,-118,85,47,-124,-84,-100,-192,-208,-165,-67
-18,-128,-118,85,47,-124,-84,-94,-192,-208,-165,-67
-18,-128,-118,85,47,-124,-84,-88,-192,-202,-159,-61
-18,-128,-118,79,47,-124,-84,-88,-186,-196,-153,-61
-12,-128,-118,79,47,-124,-84,-88,-180,-190,-153,-61
-12,-128,-118,73,47,-124,-90,-88,-180,-190,-153,-61
-6,-128,-118,67,47,-124,-96,-88,-180,-190,-153,-61
-1,-128,-118,61,47,-124,-102,-82,-180,-184,-147,-55
5,-122,-118,55,47,-124,-102,-82,-180,-184,-147,-49
5,-116,-118,49,47,-118,-102,-82,-180,-184,-147,-49
11,-110,-118,43,47,-118,-102,-76,-180,-184,-147,-49
17,-104,-118,43,47,-112,-102,-76,-180,-178,-147,-49
17,-98,-118,43,47,-112,-108,-70,-174,-178,-147,-43
23,-92,-118,37,47,-106,-114,-64,-168,-178,-147,-37
23,-92,-118,31,47,-100,-120,-64,-168,-178,-147,-37
29,-86,-118,31,47,-100,-126,-64,-168,-178,-147,-31
35,-86,-118,25,53,-100,-126,-64,-168,-172,-147,-31
41,-86,-118,19,65,-100,-126,-64,-162,-166,-147,-25
47,-86,-118,13,71,-100,-132,-58,-156,-160,-141,-25
47,-86,-118,13,71,-100,-138,-58,-150,-160,-135,-19
53,-86,-118,13,71,-100,-144,-58,-144,-160,-129,-13
53,-86,-124,7,77,-100,-144,-58,-144,-160,-129,-7
53,-86,-124,7,77,-100,-144,-52,-138,-154,-129,-2
59,-80,-124,7,77,-100,-150,-46,-132,-148,-123,4
59,-80,-124,7,77,-100,-156,-46,-132,-142,-117,10
65,-80,-130,7,83,-100,-156,-46,-126,-142,-117,16
71,-74,-130,1,89,-100,-156,-46,-120,-136,-117,16
77,-68,-130,-4,95,-100,-156,-46,-114,-136,-117,16
83,-62,-130,-10,101,-100,-156,-46,-114,-136,-117,22
89,-62,-136,-16,107,-100,-162,-40,-114,-130,-111,22
95,-56,-142,-22,113,-100,-168,-40,-114,-124,-105,28
101,-50,-142,-28,119,-100,-168,-40,-108,-124,-99,34
107,-44,-142,-34,119,-100,-174,-40,-102,-118,-93,40
113,-38,-148,-40,119,-100,-174,-40,-90,-118,-93,46
119,-38,-148,-40,125,-100,-180,-34,-84,-118,-87,52
119,-38,-148,-40,125,-100,-186,-28,-72,-112,-87,58
125,-32,-148,-46,131,-100,-186,-22,-60,-106,-81,64
131,-26,-148,-52,137,-100,-192,-16,-54,-100,-75,70
137,-20,-148,-58,137,-100,-198,-10,-48,-94,-69,76
143,-14,-148,-64,143,-100,-204,-4,-42,-94,-63,82
155,-8,-148,-70,149,-94,-210,1,-36,-88,-57,88
161,-3,-148,-76,149,-88,-210,7,-30,-82,-51,94
167,3,-148,-82,155,-88,-210,13,-18,-76,-45,100
173,9,-148,-88,155,-88,-216,19,-6,-64,-39,106
179,15,-148,-94,155,-82,-216,25,5,-58,-33,112
185,21,-148,-106,155,-76,-216,31,17,-52,-27,118
191,27,-148,-112,155,-70,-216,43,29,-40,-21,124
197,33,-148,-118,161,-64,-216,55,35,-28,-15,130
203,39,-148,-118,161,-58,-216,61,47,-16,-3,136
203,45,-148,-124,167,-58,-216,73,53,-10,2,142
203,51,-148,-130,167,-52,-216,85,59,-4,8,148
203,51,-148,-136,167,-52,-216,91,65,2,14,154
203,57,-148,-142,167,-52,-216,97,71,7,20,154
209,63,-148,-142,167,-52,-216,109,77,13,20,160
209,69,-148,-142,167,-46,-216,121,89,13,26,160
209,75,-142,-142,167,-40,-216,133,95,19,26,160
209,75,-142,-142,167,-34,-210,139,107,25,26,160
209,75,-136,-142,167,-28,-204,145,113,31,26,160
209,81,-130,-142,167,-22,-198,157,119,37,26,160
209,87,-124,-142,167,-16,-192,163,119,43,26,160
209,87,-112,-142,161,-10,-186,169,125,49,26,160
209,87,-106,-142,155,-4,-180,181,131,55,26,160
209,87,-100,-142,149,1,-168,193,143,61,32,166
209,93,-94,-142,143,1,-156,205,155,67,32,166
203,99,-88,-142,137,1,-144,217,167,73,32,172
197,99,-88,-142,137,1,-132,229,173,85,32,172
191,99,-82,-142,137,1,-120,241,179,97,38,172
185,99,-82,-136,131,1,-108,253,185,103,44,172
179,93,-82,-136,131,1,-96,265,197,109,44,172
173,93,-82,-130,125,1,-84,271,203,115,44,172
167,93,-76,-124,119,1,-72,283,209,121,50,172
161,93,-70,-124,113,1,-60,289,215,127,50,172
149,93,-64,-118,107,1,-48,295,221,133,50,172
143,87,-58,-112,101,1,-42,301,221,139,50,166
137,87,-52,-106,95,7,-36,307,221,139,50,160
125,87,-46,-100,89,7,-30,307,221,139,50,154
119,87,-34,-100,77,13,-24,307,221,139,50,148
113,87,-28,-100,71,13,-18,307,221,139,50,142
107,87,-22,-94,65,13,-6,307,221,139,50,142
101,81,-16,-88,59,13,0,307,221,139,50,136
95,81,-16,-82,53,13,5,307,221,139,50,130
89,81,-16,-76,53,19,11,307,221,139,50,130
89,75,-16,-70,47,19,17,301,221,139,50,124
83,69,-16,-64,47,19,17,289,215,139,50,124
77,63,-16,-58,47,19,23,283,209,139,50,124
71,63,-16,-58,41,19,29,277,209,139,50,118
65,57,-16,-52,35,19,35,271,203,139,50,112
59,51,-16,-46,35,19,35,259,197,139,50,112
53,45,-10,-40,29,19,35,247,185,133,44,106
47,39,-4,-34,23,19,35,235,173,127,38,106
41,39,-4,-28,23,19,35,223,161,121,32,100
35,33,-4,-28,17,19,35,211,149,115,20,88
29,27,-4,-28,17,19,35,193,137,109,14,76
23,27,-4,-28,17,19,35,181,125,97,8,70
17,21,1,-22,11,19,35,169,113,85,-3,58
17,21,1,-16,5,19,35,157,101,73,-9,52
11,15,1,-10,0,19,35,145,89,67,-15,46
5,9,1,-4,0,19,35,139,77,55,-21,40
5,9,1,-4,0,19,35,127,65,43,-21,40
-1,9,7,1,-6,19,35,115,53,37,-21,40
-6,3,7,7,-12,19,35,103,47,31,-27,40
-12,-3,7,13,-18,19,35,91,41,31,-33,40
-18,-8,7,19,-18,13,35,85,35,25,-39,40
-18,-14,7,25,-18,13,35,79,29,19,-39,34
-24,-20,7,25,-18,7,35,73,23,19,-45,28
-24,-26,7,31,-18,1,35,67,17,13,-51,28
-30,-26,7,31,-18,-4,35,61,11,7,-51,28
-30,-26,7,31,-18,-4,35,55,11,7,-51,28
-30,-32,7,31,-18,-4,35,49,11,7,-51,22
-30,-38,7,31,-18,-4,35,43,5,2,-57,16
-30,-38,7,31,-18,-4,35,37,5,-4,-57,10
-30,-38,7,31,-18,-4,35,37,5,-4,-63,10
-30,-38,7,31,-18,-4,35,37,-1,-4,-63,10
-30,-38,7,31,-18,-4,29,31,-1,-4,-63,10
-30,-38,7,31,-18,-4,29,31,-1,-4,-63,10
-30,-38,7,31,-18,-4,29,25,-1,-4,-69,10
-30,-38,7,31,-18,-4,29,25,-6,-4,-69,10
-30,-38,7,31,-18,-4,29,25,-12,-4,-69,10
-30,-38,7,31,-18,-4,29,25,-12,-4,-69,10
-30,-38,7,31,-18,-4,29,25,-12,-4,-69,10
-30,-38,7,31,-18,-4,29,25,-12,-4,-69,10
-30,-38,7,31,-18,-4,29,25,-12,-4,-69,10
-30,-38,7,31,-18,-10,29,25,-12,-4,-69,10
-30,-38,7,31,-18,-10,29,25,-12,-4,-69,10
-30,-38,7,37,-18,-10,29,25,-12,-4,-69,10
-30,-38,7,37,-18,-10,29,25,-12,-4,-69,10
-30,-38,7,37,-18,-10,29,25,-12,-4,-69,10
-36,-38,7,37,-18,-10,29,25,-12,-4,-69,10
-36,-38,7,37,-18,-10,29,25,-12,-4,-69,10
-36,-38,7,37,-18,-10,29,25,-12,-4,-69,10
-36,-38,7,37,-18,-10,29,25,-12,-4,-69,10
-36,-38,7,37,-18,-10,29,25,-12,-4,-69,10
-36,-38,7,37,-18,-10,29,25,-12,-4,-69,10
-36,-38,7,37,-18,-10,29,25,-12,-4,-69,10
-36,-38,7,37,-18,-10,29,19,-12,-4,-69,10
-36,-38,7,37,-18,-10,29,19,-18,-10,-69,10
-36,-38,7,37,-18,-10,29,19,-18,-10,-69,10
-36,-38,7,37,-18,-10,29,19,-18,-10,-69,10
-36,-38,7,37,-18,-10,29,19,-18,-10,-69,10
-36,-38,7,37,-18,-10,29,19,-18,-10,-69,10
-36,-38,7,37,-18,-10,29,19,-18,-10,-69,10
-36,-38,7,37,-18,-10,29,19,-18,-10,-69,10
-36,-38,7,37,-24,-10,29,13,-18,-10,-69,10
-36,-38,7,37,-24,-10,29,13,-24,-10,-69,10
-36,-38,7,37,-24,-10,29,13,-24,-10,-69,10
-36,-38,7,37,-24,-10,29,13,-24,-10,-69,10
-36,-38,7,37,-24,-10,29,7,-24,-16,-69,10
-36,-38,7,37,-24,-10,29,7,-24,-22,-69,10
-36,-38,7,37,-24,-10,29,7,-30,-22,-69,10
-36,-38,7,37,-24,-10,29,7,-30,-22,-69,10
-36,-38,7,37,-24,-10,29,7,-30,-22,-69,10
-36,-38,7,37,-24,-10,29,7,-30,-22,-69,10
-36,-38,7,37,-24,-10,29,7,-30,-22,-69,10
-36,-38,7,37,-24,-10,29,7,-30,-22,-69,10
-36,-38,7,37,-24,-10,29,1,-30,-22,-69,10
-36,-38,7,37,-24,-10,29,1,-30,-22,-69,10
-36,-38,7,37,-24,-10,29,-4,-36,-22,-69,10
-36,-38,7,37,-24,-10,29,-10,-36,-28,-69,10
-36,-38,7,37,-24,-10,29,-10,-36,-34,-69,10
-36,-38,7,37,-24,-10,29,-10,-36,-40,-69,10
-36,-38,7,37,-24,-10,29,-10,-42,-40,-69,10
-36,-38,7,37,-24,-10,23,-10,-42,-40,-69,10
-36,-38,7,37,-24,-10,23,-16,-48,-40,-69,10
-36,-38,7,37,-24,-10,23,-22,-54,-40,-75,10
-36,-38,7,37,-24,-10,23,-22,-60,-40,-75,10
-36,-38,7,37,-24,-10,23,-22,-60,-46,-75,10
-36,-38,7,37,-24,-10,23,-28,-60,-52,-75,4
-36,-38,7,37,-24,-10,23,-28,-60,-52,-75,4
-36,-38,7,37,-24,-10,23,-28,-60,-58,-75,4
-36,-38,7,37,-24,-10,23,-28,-66,-64,-75,4
-36,-38,7,37,-24,-10,23,-28,-66,-70,-75,4
-36,-38,7,37,-24,-10,23,-34,-66,-70,-75,4
-36,-38,7,37,-24,-10,23,-40,-72,-70,-75,4
-36,-38,7,37,-24,-10,23,-40,-78,-76,-75,4
-36,-38,7,37,-24,-10,23,-46,-78,-76,-81,-2
-36,-38,7,37,-24,-10,23,-46,-78,-76,-81,-2
-36,-38,7,37,-24,-10,23,-46,-78,-76,-81,-2
-36,-38,7,37,-24,-10,23,-46,-78,-76,-81,-2
-36,-38,7,37,-24,-10,23,-46,-78,-76,-81,-2
-36,-38,7,37,-24,-10,23,-46,-78,-76,-81,-2
-36,-38,7,37,-24,-10,23,-46,-84,-76,-81,-7
-36,-38,7,37,-24,-10,23,-52,-90,-82,-87,-7
-36,-38,7,37,-24,-10,23,-58,-90,-88,-87,-7
-36,-38,7,37,-24,-10,23,-58,-90,-88,-87,-7
-36,-38,7,37,-24,-10,23,-64,-90,-94,-93,-7
-36,-38,7,37,-24,-10,23,-64,-96,-94,-93,-7
-36,-38,7,37,-24,-10,23,-64,-102,-94,-93,-7
-36,-38,7,37,-24,-10,23,-64,-108,-100,-99,-13
-36,-38,7,37,-24,-10,23,-64,-108,-100,-105,-19
-36,-38,7,37,-24,-10,23,-64,-108,-100,-105,-19
-36,-38,7,37,-24,-10,23,-70,-114,-100,-105,-19
-36,-44,7,37,-24,-10,23,-70,-114,-100,-111,-19
-36,-44,7,37,-24,-10,23,-70,-114,-100,-111,-19
-36,-44,7,43,-24,-10,23,-70,-114,-100,-111,-19
-36,-44,7,43,-24,-10,23,-76,-120,-106,-111,-19
-36,-50,7,43,-24,-16,23,-76,-120,-106,-111,-19
-36,-50,7,49,-24,-16,23,-82,-120,-112,-111,-19
-36,-50,7,49,-24,-16,23,-82,-120,-112,-111,-19
-42,-50,7,49,-24,-16,23,-82,-120,-112,-111,-19
-42,-50,7,49,-24,-16,23,-82,-120,-112,-111,-19
-42,-50,7,49,-24,-16,23,-82,-120,-112,-111,-19
-42,-50,7,49,-24,-16,23,-88,-126,-112,-111,-19
-42,-50,7,49,-24,-16,23,-88,-126,-112,-111,-19
-42,-50,7,49,-24,-16,23,-88,-126,-112,-111,-19
-42,-50,7,49,-24,-16,23,-88,-126,-112,-111,-19
-42,-50,7,49,-24,-16,23,-88,-126,-112,-111,-19
-42,-50,7,49,-24,-16,23,-88,-126,-112,-111,-25
-42,-50,7,49,-24,-16,23,-88,-126,-112,-117,-31
-42,-50,7,49,-24,-16,23,-88,-126,-112,-123,-31
-42,-50,7,49,-24,-16,23,-88,-132,-118,-129,-31
-42,-50,7,49,-24,-16,23,-88,-132,-118,-129,-31
-42,-50,7,49,-24,-16,23,-88,-132,-118,-129,-31
-42,-50,7,49,-24,-16,23,-88,-132,-118,-129,-31
-42,-50,7,49,-24,-16,23,-88,-132,-118,-129,-31
-42,-50,7,49,-24,-16,23,-88,-132,-118,-129,-31
-42,-50,7,49,-24,-16,23,-88,-132,-118,-129,-31
-42,-50,7,49,-24,-16,23,-94,-132,-118,-129,-37
-42,-50,7,49,-24,-16,23,-94,-132,-118,-129,-37
-42,-50,7,49,-24,-16,23,-94,-132,-118,-129,-37
-42,-50,7,49,-24,-16,23,-94,-132,-118,-129,-37
-42,-50,7,49,-24,-16,23,-94,-138,-118,-129,-37
-42,-50,7,49,-24,-16,23,-100,-138,-124,-129,-37
-42,-50,7,49,-24,-16,23,-100,-138,-130,-129,-43
-42,-50,7,49,-24,-16,23,-100,-138,-130,-129,-43
-42,-50,7,49,-24,-16,23,-100,-144,-130,-129,-43
-42,-50,7,49,-24,-16,23,-100,-144,-130,-129,-43
-42,-50,7,49,-24,-16,23,-100,-144,-130,-129,-43
-42,-50,7,49,-24,-16,23,-100,-144,-130,-129,-43
-42,-50,7,49,-24,-16,23,-100,-144,-130,-129,-43
-42,-50,7,49,-24,-16,23,-100,-144,-130,-129,-43
-42,-50,7,49,-24,-16,23,-100,-144,-130,-129,-43
-42,-50,1,49,-24,-22,23,-100,-144,-130,-129,-43
-42,-50,-4,49,-24,-22,23,-100,-144,-130,-129,-43
-42,-50,-4,49,-24,-28,23,-100,-144,-130,-129,-43
-42,-50,-4,49,-24,-28,23,-100,-144,-130,-129,-43
-42,-50,-10,49,-24,-28,23,-100,-144,-130,-129,-43
-42,-50,-16,49,-24,-34,23,-100,-144,-130,-129,-43
-42,-50,-16,49,-24,-40,23,-100,-144,-130,-129,-43
-42,-50,-16,49,-24,-40,23,-100,-144,-130,-129,-43
-42,-50,-16,49,-24,-40,23,-100,-144,-130,-129,-43
-42,-56,-16,49,-24,-46,23,-100,-144,-130,-129,-43
-42,-56,-16,49,-24,-46,23,-100,-144,-130,-129,-43
-42,-56,-16,49,-24,-46,23,-100,-144,-130,-129,-43
-42,-56,-16,49,-24,-46,23,-100,-144,-130,-129,-43
-42,-56,-16,49,-24,-46,23,-100,-144,-130,-129,-43
-42,-56,-16,49,-24,-46,23,-100,-144,-130,-129,-43
-42,-56,-16,49,-24,-46,23,-100,-144,-130,-129,-43
-42,-56,-16,49,-24,-46,23,-100,-144,-130,-129,-43
-42,-56,-16,49,-24,-46,23,-100,-144,-130,-129,-43
-42,-56,-16,49,-24,-46,23,-100,-144,-130,-129,-43
-42,-56,-16,49,-24,-46,23,-100,-144,-130,-129,-43
-42,-56,-16,49,-24,-46,23,-100,-144,-130,-129,-43
-42,-56,-16,49,-24,-46,23,-100,-144,-130,-129,-43
-42,-56,-16,49,-24,-46,23,-100,-144,-130,-129,-43
-42,-56,-16,49,-24,-46,23,-100,-144,-130,-129,-43
-42,-56,-16,49,-24,-46,23,-100,-144,-130,-129,-43
-42,-56,-16,49,-24,-46,23,-100,-144,-130,-129,-43
-42,-56,-16,49,-24,-46,23,-100,-144,-130,-129,-43
-42,-50,-16,49,-30,-40,23,-100,-144,-130,-129,-43
-42,-38,-10,43,-30,-28,23,-100,-144,-124,-129,-43
-42,-26,1,37,-30,-16,23,-100,-144,-124,-129,-37
-42,-14,13,31,-30,-4,23,-100,-144,-118,-123,-31
-42,-3,25,19,-30,7,23,-94,-138,-112,-117,-25
-36,9,31,13,-30,13,29,-88,-132,-106,-105,-13
-30,15,31,7,-30,19,35,-76,-120,-94,-99,-7
-24,21,37,1,-30,25,41,-70,-114,-82,-93,-2
-18,21,37,-4,-30,25,47,-64,-102,-76,-87,4
-18,21,37,-10,-30,25,47,-52,-90,-70,-81,10
-18,27,37,-10,-30,25,53,-46,-84,-64,-75,16
-18,33,37,-16,-30,31,59,-40,-78,-58,-69,16
-18,39,37,-22,-30,37,65,-34,-72,-52,-63,16
-18,45,43,-22,-30,43,65,-34,-72,-46,-63,16
-18,57,49,-28,-30,49,65,-34,-72,-46,-57,16
-6,69,55,-40,-30,55,59,-34,-72,-46,-51,22
-1,81,61,-52,-30,67,47,-34,-72,-46,-45,34
5,93,67,-58,-30,73,35,-40,-72,-40,-39,40
5,99,67,-58,-30,79,29,-46,-72,-40,-39,46
11,105,67,-64,-30,85,23,-52,-72,-40,-33,46
17,111,67,-70,-30,85,17,-58,-72,-40,-33,46
23,117,67,-70,-30,85,17,-64,-72,-40,-33,52
23,117,67,-70,-30,85,17,-64,-72,-40,-33,52
23,117,67,-70,-30,85,17,-64,-72,-40,-33,52
29,117,67,-70,-30,85,17,-64,-72,-40,-33,52
35,117,67,-70,-24,85,17,-58,-66,-34,-27,52
41,117,67,-76,-18,85,17,-58,-66,-34,-27,52
47,117,67,-82,-18,85,17,-58,-66,-34,-21,52
53,117,67,-82,-18,85,17,-58,-60,-28,-15,58
53,117,61,-88,-18,85,17,-58,-60,-28,-9,58
53,117,55,-88,-12,85,17,-58,-60,-28,-9,58
53,117,49,-88,-12,85,17,-64,-60,-28,-9,58
53,111,43,-88,-12,79,11,-76,-66,-28,-15,58
53,105,37,-82,-6,73,5,-82,-78,-34,-21,58
53,93,31,-76,-6,61,5,-88,-96,-46,-33,58
53,81,19,-70,0,49,0,-94,-108,-58,-51,52
53,69,7,-64,0,37,-6,-106,-120,-82,-63,40
47,51,1,-52,0,25,-12,-118,-132,-94,-75,22
35,33,-4,-40,0,13,-18,-124,-138,-100,-87,10
23,21,-4,-28,0,7,-18,-130,-144,-106,-93,4
11,9,-4,-16,0,1,-18,-130,-150,-118,-105,-2
-1,-3,-10,-4,0,-4,-18,-136,-162,-130,-117,-13
-12,-14,-10,7,0,-10,-18,-136,-168,-136,-129,-19
-18,-20,-10,19,0,-16,-18,-136,-174,-136,-135,-25
-24,-32,-10,31,0,-22,-18,-136,-180,-142,-135,-25
-30,-44,-16,37,-6,-34,-18,-142,-180,-148,-135,-31
-30,-56,-22,43,-6,-46,-18,-148,-186,-154,-141,-37
-36,-68,-28,49,-6,-58,-18,-154,-192,-166,-147,-43
-42,-80,-34,55,-6,-64,-18,-160,-198,-172,-147,-49
-48,-86,-34,61,-6,-70,-18,-166,-204,-178,-147,-49
-48,-86,-34,61,-6,-70,-18,-172,-216,-184,-153,-49
-48,-86,-34,61,-6,-70,-18,-172,-222,-184,-159,-49
-48,-86,-34,61,-6,-70,-18,-172,-222,-184,-159,-55
-48,-86,-34,61,-6,-70,-18,-172,-222,-184,-159,-55
-48,-86,-34,61,-6,-70,-18,-172,-222,-184,-159,-55
-48,-86,-34,61,-6,-70,-18,-166,-216,-184,-159,-55
-48,-86,-34,61,-6,-70,-12,-160,-210,-178,-159,-55
-48,-86,-34,61,-6,-70,0,-148,-198,-166,-153,-55
-48,-80,-28,61,-12,-64,11,-136,-180,-142,-135,-49
-54,-74,-16,61,-24,-52,23,-124,-156,-130,-123,-43
-60,-68,-4,61,-36,-40,35,-112,-144,-106,-111,-37
-66,-62,7,61,-48,-28,47,-88,-132,-82,-93,-31
-72,-56,19,61,-60,-16,59,-64,-108,-58,-81,-19
-78,-50,25,61,-72,-4,71,-34,-78,-34,-63,-7
-84,-44,37,61,-84,7,89,-10,-48,-16,-51,4
-90,-32,55,61,-96,19,107,19,-18,13,-21,16
-96,-20,79,61,-108,37,125,49,23,43,8,34
-102,-3,109,55,-120,61,149,85,59,85,44,46
-102,27,139,49,-132,85,173,115,95,121,86,70
-102,51,163,43,-138,103,203,157,137,163,122,82
-102,63,175,37,-150,115,245,229,203,223,158,94
-102,75,181,25,-156,121,287,349,287,289,200,106
-102,87,187,13,-156,127,353,487,401,379,236,118
-102,99,193,-4,-156,145,431,649,557,499,314,148
-96,147,211,-34,-156,187,515,841,761,679,452,214
-72,243,253,-94,-156,253,575,1015,971,877,632,316
-30,345,325,-166,-162,337,641,1183,1193,1117,842,460
5,459,409,-226,-174,433,767,1459,1487,1399,1082,616
35,561,481,-292,-198,517,935,1843,1865,1723,1352,766
77,645,523,-358,-204,577,1055,2148,2224,2070,1616,940
125,723,553,-424,-210,625,1109,2250,2451,2370,1892,1114
167,813,595,-496,-210,703,1127,2238,2547,2597,2149,1300
209,897,625,-568,-210,745,1121,2017,2547,2705,2329,1474
287,975,637,-652,-198,799,977,1687,2481,2759,2496,1636
341,1095,679,-730,-192,889,785,1297,2314,2801,2664,1798
371,1173,721,-784,-192,955,599,919,2134,2813,2760,1906
377,1173,733,-784,-192,955,479,673,2003,2801,2760,1906
365,1077,715,-730,-192,901,395,511,1883,2663,2556,1774
287,849,619,-562,-192,727,329,349,1673,2400,2191,1474
191,621,475,-394,-186,535,269,157,1391,2053,1784,1174
77,435,409,-250,-186,415,221,-40,1061,1687,1424,886
-48,303,385,-124,-198,343,185,-244,689,1273,1058,628
-156,201,379,-28,-240,301,119,-448,287,823,674,376
-240,141,373,43,-282,259,5,-634,-96,361,338,166
-276,105,373,79,-300,241,-102,-748,-408,-16,80,40
-288,63,361,97,-306,211,-168,-814,-600,-280,-99,-25
-288,21,313,109,-300,169,-204,-820,-666,-418,-219,-67
-276,-8,241,115,-270,127,-228,-814,-672,-448,-261,-91
-252,-26,199,115,-240,91,-240,-784,-666,-448,-279,-103
-240,-32,181,115,-228,79,-246,-760,-654,-448,-285,-109
-228,-32,175,115,-216,73,-252,-736,-624,-436,-285,-109
-216,-32,163,115,-204,67,-252,-706,-600,-424,-285,-109
-204,-32,151,115,-192,61,-252,-670,-582,-418,-285,-109
-192,-38,127,115,-162,49,-252,-640,-558,-418,-285,-109
-180,-44,97,115,-138,37,-252,-586,-528,-412,-285,-109
-168,-50,73,109,-126,19,-240,-520,-486,-400,-285,-109
-150,-56,55,103,-108,7,-204,-442,-444,-388,-285,-109
-138,-62,43,103,-96,-4,-168,-394,-402,-370,-279,-109
-126,-68,31,103,-84,-16,-144,-352,-372,-340,-279,-109
-108,-74,13,103,-66,-28,-120,-322,-348,-322,-273,-109
-96,-80,1,103,-54,-40,-102,-292,-330,-310,-267,-109
-90,-86,-10,103,-48,-46,-90,-274,-324,-304,-261,-109
-84,-92,-22,97,-42,-52,-78,-262,-318,-298,-255,-109
-84,-92,-28,91,-36,-58,-72,-250,-312,-292,-249,-109
-78,-92,-40,91,-30,-64,-66,-238,-306,-286,-243,-109
-72,-92,-46,91,-24,-64,-66,-232,-300,-280,-243,-109
-72,-92,-52,91,-18,-70,-60,-226,-294,-280,-243,-109
-66,-92,-52,91,-12,-76,-54,-214,-288,-274,-243,-103
-60,-92,-52,85,-6,-76,-54,-208,-282,-274,-243,-97
-54,-92,-58,79,0,-76,-54,-202,-276,-274,-243,-97
-48,-92,-64,79,0,-76,-54,-196,-270,-268,-237,-97
-48,-92,-64,79,5,-82,-54,-190,-270,-268,-237,-97
-42,-92,-70,73,11,-88,-54,-184,-270,-268,-237,-97
-42,-92,-76,73,11,-88,-54,-184,-264,-262,-237,-91
-42,-92,-76,73,11,-88,-54,-178,-258,-256,-237,-91
-36,-92,-82,73,17,-88,-54,-172,-252,-250,-237,-91
-36,-92,-82,73,17,-88,-54,-166,-246,-244,-237,-91
-30,-92,-88,67,23,-94,-54,-166,-240,-244,-237,-91
-30,-92,-88,61,23,-94,-54,-160,-234,-244,-237,-91
-30,-92,-88,61,23,-94,-54,-154,-228,-238,-231,-91
-30,-92,-88,61,23,-94,-54,-154,-228,-238,-225,-85
-24,-92,-88,61,29,-94,-54,-154,-228,-238,-219,-85
-18,-92,-88,55,35,-94,-54,-148,-228,-238,-219,-79
