,,,,,,,,,,,
2019-09-04 23:15:42,,,,,,,,,,,
,,,,,,,,,,,
I,II,III,aVR,aVL,aVF,V1,V2,V3,V4,V5,V6
-98,-70,22,84,-61,-18,288,154,113,-6,-101,-155
-98,-70,22,84,-61,-18,288,154,113,-6,-101,-155
-98,-70,22,84,-61,-18,288,154,113,-6,-101,-155
-98,-70,22,84,-61,-18,288,154,113,-6,-101,-155
-104,-64,34,84,-73,-12,294,160,125,-1,-101,-149
-104,-64,34,84,-73,-12,300,166,131,-1,-101,-149
-110,-58,46,84,-79,0,306,172,143,-1,-101,-143
-110,-58,46,84,-79,0,312,178,149,-1,-101,-143
-104,-64,34,84,-73,-12,318,190,155,-1,-101,-143
-104,-64,34,84,-73,-12,324,196,161,5,-101,-143
-98,-70,22,84,-61,-18,330,208,167,11,-101,-143
-98,-70,22,84,-61,-18,336,214,173,17,-101,-143
-104,-64,34,84,-73,-12,342,220,191,23,-95,-137
-104,-58,40,78,-73,-6,342,226,203,29,-89,-137
-110,-52,52,78,-85,6,348,238,221,35,-83,-131
-110,-46,58,78,-85,11,348,244,227,41,-77,-131
-110,-40,64,72,-91,11,354,250,239,47,-71,-137
-110,-40,64,72,-91,11,360,256,245,53,-65,-137
-110,-34,70,72,-91,11,366,262,257,59,-59,-143
-110,-34,70,72,-91,11,372,268,263,65,-53,-143
-104,-34,64,66,-85,11,384,286,275,71,-47,-137
-104,-34,64,66,-85,11,390,298,287,77,-47,-131
-98,-34,58,66,-79,11,402,316,299,83,-41,-125
-98,-34,58,66,-79,11,408,328,311,89,-41,-119
-98,-22,70,60,-85,17,414,340,329,95,-41,-125
-98,-16,76,54,-91,23,420,346,341,101,-41,-125
-98,-4,88,48,-97,35,426,358,359,107,-41,-131
-98,2,94,48,-97,41,432,364,371,113,-41,-131
-92,14,100,36,-97,47,438,376,383,125,-35,-125
-92,19,106,36,-103,53,444,388,389,137,-29,-119
-86,19,112,24,-97,65,450,400,401,149,-23,-113
-86,25,118,24,-103,71,456,412,407,161,-17,-107
-86,31,124,18,-103,77,462,424,419,167,-17,-101
-86,37,130,18,-109,83,462,436,431,167,-17,-101
-86,43,136,12,-109,89,462,448,443,173,-17,-95
-86,49,142,12,-115,95,462,460,455,173,-17,-95
-80,55,142,6,-109,95,468,472,473,191,1,-83
-80,61,148,0,-115,101,474,484,479,203,12,-77
-74,67,148,-6,-109,107,480,502,497,221,18,-65
-74,73,154,-6,-115,113,486,514,509,233,30,-59
-68,79,154,-12,-109,113,486,526,521,239,42,-47
-68,79,154,-12,-109,113,486,532,533,245,48,-41
-62,85,154,-18,-109,119,486,544,545,257,60,-29
-62,85,154,-18,-109,119,486,550,557,263,66,-23
-56,97,160,-18,-109,125,480,556,557,269,72,-17
-50,109,166,-23,-109,137,480,556,557,269,72,-17
-44,121,172,-29,-109,143,474,562,557,275,78,-11
-38,133,178,-41,-109,155,474,562,557,275,78,-11
-32,127,166,-41,-97,143,468,562,563,287,84,-5
-26,127,160,-41,-91,143,468,562,569,293,90,1
-20,121,148,-41,-85,131,462,562,575,305,96,7
-14,121,142,-47,-79,131,462,562,581,311,102,13
-8,121,136,-47,-73,125,450,556,569,311,114,25
-2,121,130,-53,-67,125,438,550,563,311,120,30
4,121,124,-53,-61,119,420,544,551,311,132,30
10,121,118,-59,-55,119,408,538,545,311,138,36
15,127,118,-65,-49,119,390,526,533,305,138,30
15,127,118,-65,-49,119,378,514,527,305,138,30
15,133,118,-71,-49,125,360,502,515,299,138,30
15,133,118,-71,-49,125,348,490,509,299,138,30
15,139,118,-77,-43,131,330,472,485,299,144,30
21,139,112,-77,-37,125,312,460,473,299,150,36
27,145,112,-83,-37,131,294,442,449,299,156,42
33,145,106,-89,-31,125,276,424,431,299,162,48
27,133,100,-77,-31,119,264,400,413,287,168,54
27,127,94,-77,-25,113,252,382,395,281,168,54
21,115,88,-65,-25,101,240,358,377,269,174,60
21,109,82,-65,-25,95,228,340,359,263,174,60
21,103,76,-59,-19,89,216,322,329,245,162,48
21,103,76,-59,-19,89,210,304,305,239,150,36
21,97,70,-59,-19,83,198,286,275,221,138,30
21,97,70,-59,-19,83,186,268,251,209,126,25
15,79,58,-47,-13,71,180,256,233,197,114,19
15,67,46,-41,-7,59,174,244,221,185,102,19
15,49,34,-29,-7,41,168,232,203,173,90,13
15,37,22,-23,-1,29,162,220,185,161,78,13
10,25,22,-18,-7,23,156,208,167,143,60,1
4,19,22,-18,-7,17,150,190,155,125,48,-11
-8,19,22,-6,-19,11,144,172,137,107,30,-23
-14,14,22,0,-19,11,138,154,125,89,18,-35
-20,2,16,6,-19,11,138,148,113,77,12,-47
-26,-10,10,18,-19,6,138,142,101,65,12,-53
-32,-22,4,24,-19,-6,138,136,89,53,1,-65
-38,-34,4,36,-19,-12,138,130,77,41,-5,-71
-38,-34,4,36,-19,-12,132,124,65,35,-17,-77
-38,-34,4,36,-19,-12,132,118,59,29,-23,-83
-38,-34,4,36,-19,-12,126,112,47,23,-35,-89
-38,-34,4,36,-19,-12,126,106,41,17,-41,-95
-44,-46,4,42,-19,-24,132,100,35,11,-47,-95
-44,-52,-1,48,-19,-30,132,100,35,5,-47,-95
-50,-64,-7,54,-19,-36,138,94,29,-1,-53,-95
-50,-70,-13,60,-13,-42,138,94,29,-1,-53,-95
-56,-76,-13,66,-19,-48,132,94,23,-1,-53,-101
-56,-76,-13,66,-19,-48,132,94,23,-6,-53,-101
-62,-82,-13,72,-19,-48,126,94,17,-12,-53,-107
-62,-82,-13,72,-19,-48,126,94,17,-18,-53,-107
-56,-88,-25,72,-13,-60,120,88,11,-24,-59,-113
-56,-88,-25,72,-13,-60,120,88,11,-24,-65,-113
-50,-94,-37,72,-1,-66,114,82,5,-30,-71,-119
-50,-94,-37,72,-1,-66,114,82,5,-30,-77,-119
-56,-100,-37,78,-7,-72,120,82,-1,-36,-83,-125
-62,-100,-31,78,-13,-66,120,82,-1,-42,-83,-125
-68,-106,-31,84,-13,-72,126,82,-7,-48,-89,-131
-74,-106,-25,90,-19,-66,126,82,-7,-54,-89,-131
-74,-100,-19,84,-25,-60,120,82,-7,-48,-83,-131
-74,-100,-19,84,-25,-60,120,82,-7,-48,-83,-131
-74,-94,-13,84,-25,-54,114,82,-7,-42,-77,-131
-74,-94,-13,84,-25,-54,114,82,-7,-42,-77,-131
-74,-100,-19,84,-25,-60,114,88,-7,-42,-77,-131
-74,-106,-25,90,-19,-66,114,88,-7,-42,-77,-131
-74,-112,-31,90,-19,-72,114,94,-7,-42,-77,-131
-74,-118,-37,96,-13,-78,114,94,-7,-42,-77,-131
-74,-112,-31,90,-19,-72,114,88,-7,-48,-83,-131
-74,-106,-25,90,-19,-66,114,88,-7,-48,-83,-131
-74,-100,-19,84,-25,-60,114,82,-7,-54,-89,-131
-74,-94,-13,84,-25,-54,114,82,-7,-54,-89,-131
-80,-100,-13,90,-31,-60,114,88,-1,-48,-83,-125
-80,-100,-13,90,-31,-60,114,88,-1,-48,-77,-125
-86,-106,-13,96,-31,-60,114,94,5,-42,-71,-119
-86,-106,-13,96,-31,-60,114,94,5,-42,-65,-119
-86,-112,-19,96,-31,-66,114,88,5,-36,-71,-125
-86,-112,-19,96,-31,-66,114,88,5,-36,-71,-125
-86,-118,-25,102,-25,-72,114,82,5,-30,-77,-131
-86,-118,-25,102,-25,-72,114,82,5,-30,-77,-131
-80,-106,-19,90,-25,-66,114,76,5,-36,-77,-131
-80,-100,-13,90,-31,-60,114,76,5,-36,-77,-131
-74,-88,-7,78,-31,-48,114,70,5,-42,-77,-131
-74,-82,-1,78,-31,-42,114,70,5,-42,-77,-131
-80,-88,-1,84,-37,-48,120,70,11,-48,-77,-125
-80,-94,-7,84,-31,-54,120,70,11,-48,-77,-125
-86,-100,-7,90,-37,-54,126,70,17,-54,-77,-119
-86,-106,-13,96,-31,-60,126,70,17,-54,-77,-119
-86,-100,-7,90,-37,-54,120,64,17,-54,-83,-125
-86,-94,-1,90,-37,-48,120,64,17,-54,-83,-131
-86,-88,4,84,-43,-42,114,58,17,-54,-89,-137
-86,-82,4,84,-43,-36,114,58,17,-54,-89,-143
-86,-88,4,84,-43,-42,114,64,23,-48,-83,-137
-86,-88,4,84,-43,-42,114,64,23,-48,-83,-137
-86,-94,-1,90,-37,-48,114,70,29,-42,-77,-131
-86,-94,-1,90,-37,-48,114,70,29,-42,-77,-131
-86,-94,-1,90,-37,-48,114,70,35,-36,-71,-125
-86,-94,-1,90,-37,-48,114,70,35,-36,-71,-125
-86,-94,-1,90,-37,-48,114,70,41,-30,-65,-119
-86,-94,-1,90,-37,-48,114,70,41,-30,-65,-119
-86,-88,4,84,-43,-42,114,70,41,-30,-71,-125
-86,-88,4,84,-43,-42,114,70,41,-30,-71,-125
-86,-82,4,84,-43,-36,114,70,41,-30,-77,-131
-86,-82,4,84,-43,-36,114,70,41,-30,-77,-131
-92,-82,4,84,-49,-36,114,70,41,-36,-77,-131
-92,-82,4,84,-49,-36,114,70,41,-36,-77,-131
-98,-82,10,90,-55,-30,114,70,41,-42,-77,-131
-98,-82,10,90,-55,-30,114,70,41,-42,-77,-131
-92,-88,4,90,-49,-42,120,70,47,-36,-71,-125
-92,-88,4,90,-49,-42,120,70,47,-36,-71,-125
-86,-94,-1,90,-37,-48,126,70,53,-30,-65,-119
-86,-94,-1,90,-37,-48,126,70,53,-30,-65,-119
-80,-88,-1,84,-37,-48,120,64,47,-30,-65,-125
-80,-88,-1,84,-37,-48,114,64,47,-30,-65,-125
-74,-82,-1,78,-31,-42,108,58,41,-30,-65,-131
-74,-82,-1,78,-31,-42,102,58,41,-30,-65,-131
-80,-82,4,78,-37,-42,108,58,41,-30,-65,-125
-80,-82,4,78,-37,-42,108,58,41,-30,-65,-125
-86,-82,4,84,-43,-36,114,58,41,-30,-65,-119
-86,-82,4,84,-43,-36,114,58,41,-30,-65,-119
-86,-88,4,84,-43,-42,114,58,35,-36,-71,-125
-86,-88,4,84,-43,-42,114,58,35,-36,-71,-125
-86,-94,-1,90,-37,-48,114,58,29,-42,-77,-131
-86,-94,-1,90,-37,-48,114,58,29,-42,-77,-131
-86,-88,4,84,-43,-42,108,58,23,-42,-77,-125
-86,-88,4,84,-43,-42,108,58,23,-42,-77,-125
-86,-82,4,84,-43,-36,102,58,17,-42,-77,-119
-86,-82,4,84,-43,-36,102,58,17,-42,-77,-119
-80,-88,-1,84,-37,-48,102,58,23,-42,-77,-119
-80,-88,-1,84,-37,-48,102,58,23,-42,-77,-119
-74,-94,-13,84,-25,-54,102,58,29,-42,-77,-119
-74,-94,-13,84,-25,-54,102,46,23,-48,-83,-119
-74,-94,-13,84,-25,-54,102,52,23,-42,-83,-119
-74,-94,-13,84,-25,-54,102,52,23,-42,-83,-125
-80,-100,-13,90,-31,-60,102,58,23,-36,-83,-125
-86,-100,-7,90,-37,-54,102,58,23,-36,-83,-125
-86,-112,-19,96,-31,-66,96,64,23,-42,-83,-125
-80,-94,-7,84,-31,-54,90,64,17,-42,-83,-125
-80,-94,-7,84,-31,-54,84,64,17,-54,-89,-143
-80,-100,-13,90,-31,-60,84,64,17,-54,-89,-131
-80,-106,-19,90,-25,-66,84,58,23,-48,-89,-131
-80,-106,-19,90,-25,-66,84,58,23,-48,-83,-131
-80,-106,-19,90,-25,-66,84,52,29,-42,-83,-137
-80,-100,-13,90,-31,-60,84,52,29,-42,-83,-137
-80,-94,-7,84,-31,-54,78,40,17,-54,-89,-143
-86,-100,-7,90,-37,-54,78,40,17,-54,-89,-137
-86,-94,-1,90,-37,-48,72,34,17,-60,-89,-143
-74,-94,-13,84,-25,-54,72,34,17,-60,-89,-149
-80,-94,-7,84,-31,-54,72,28,17,-66,-83,-143
-80,-94,-7,84,-31,-54,72,28,17,-66,-89,-143
-68,-88,-13,78,-25,-54,72,22,23,-72,-83,-137
-68,-82,-7,72,-25,-48,72,22,23,-72,-83,-131
-74,-88,-7,78,-31,-48,72,22,23,-72,-83,-137
-74,-88,-7,78,-31,-48,72,22,29,-72,-83,-137
-80,-100,-13,90,-31,-60,72,16,29,-66,-83,-143
-80,-100,-13,90,-31,-60,72,10,29,-66,-83,-137
-80,-100,-13,90,-31,-60,72,10,23,-72,-89,-137
-80,-100,-13,90,-31,-60,72,10,23,-72,-89,-137
-68,-94,-19,78,-19,-60,78,10,17,-72,-95,-143
-68,-88,-13,78,-25,-54,78,22,17,-60,-89,-137
-62,-76,-7,66,-25,-42,84,34,35,-60,-83,-137
-56,-58,4,54,-25,-30,90,40,35,-54,-77,-131
-56,-52,4,54,-31,-24,84,58,53,-42,-65,-131
-50,-40,4,42,-31,-12,84,64,53,-36,-59,-125
-32,-22,4,24,-19,-6,96,82,77,-24,-47,-107
-26,-16,4,18,-19,0,108,100,95,-1,-35,-95
-2,-4,4,0,-1,0,126,112,113,11,-11,-83
10,8,4,-12,4,6,126,124,125,17,-11,-71
10,2,-1,-6,4,0,132,136,137,29,-5,-65
15,-4,-19,-12,10,-12,138,142,143,35,1,-65
15,-16,-37,-6,22,-24,132,148,149,35,7,-53
15,-16,-37,-6,22,-24,126,154,149,41,12,-53
15,-10,-31,-12,22,-18,120,154,155,47,12,-53
21,-10,-37,-12,28,-24,114,154,155,47,12,-53
21,-22,-49,-6,34,-36,102,142,149,47,18,-53
21,-28,-55,-6,34,-42,96,142,143,47,24,-53
21,-34,-61,0,40,-48,96,136,143,47,18,-53
27,-34,-67,-6,46,-48,84,130,143,47,18,-47
27,-40,-73,0,46,-54,90,118,137,35,12,-47
15,-58,-79,12,46,-66,90,112,125,23,12,-59
15,-64,-79,18,40,-72,78,100,101,5,-5,-77
15,-76,-85,30,40,-84,72,88,95,-1,-17,-83
10,-70,-73,30,34,-72,66,70,77,-1,-35,-95
4,-70,-67,30,28,-72,60,64,65,-12,-41,-113
10,-64,-67,24,28,-66,60,64,59,-24,-47,-107
15,-100,-115,36,58,-108,78,76,71,-24,-47,-107
10,-100,-103,42,46,-102,90,88,83,-24,-47,-95
10,-58,-61,24,28,-60,90,88,89,-24,-41,-89
4,-34,-31,12,10,-36,78,76,83,-24,-53,-89
4,-46,-43,18,16,-48,102,88,101,-18,-53,-89
-26,-46,-13,36,-1,-30,132,106,113,-12,-41,-89
-56,-46,4,48,-31,-18,162,130,131,-1,-35,-89
-80,-52,22,66,-55,-12,204,136,149,11,-35,-119
-86,-46,34,66,-61,0,240,148,179,17,-35,-131
-86,-46,34,66,-61,0,282,178,209,29,-35,-119
-98,-46,46,72,-73,6,288,214,233,35,-29,-119
-98,-58,34,78,-67,-6,270,226,251,47,-23,-113
-74,-58,10,66,-43,-18,258,238,275,53,-17,-89
-50,-58,-1,54,-19,-30,252,280,293,71,-5,-83
-26,-34,-1,30,-7,-18,234,310,305,83,1,-77
-2,-22,-13,12,4,-18,210,328,311,107,12,-65
15,-34,-49,6,28,-42,180,346,317,119,18,-53
15,-58,-73,18,40,-66,144,376,335,131,30,-47
27,-46,-79,0,52,-60,144,430,377,161,48,-53
45,-28,-79,-18,58,-54,156,478,419,173,60,-41
51,-34,-91,-18,70,-60,168,538,473,197,72,-41
57,-34,-97,-18,76,-66,150,574,491,209,66,-41
63,-28,-97,-18,76,-60,90,574,461,197,66,-41
75,-28,-109,-18,88,-66,18,550,395,173,66,-41
93,-28,-127,-23,106,-78,-41,514,329,155,66,-35
111,-28,-145,-35,124,-84,-89,490,269,149,78,-17
129,-22,-157,-47,142,-90,-137,484,221,149,78,-5
147,-46,-199,-41,172,-120,-167,484,167,137,78,-5
153,-70,-229,-35,190,-150,-227,454,59,95,66,-17
177,-76,-253,-41,214,-168,-275,358,-48,59,66,-17
183,-82,-265,-41,226,-174,-347,268,-144,29,78,-5
195,-94,-289,-41,244,-192,-395,184,-240,-1,78,-5
201,-118,-319,-35,256,-222,-431,118,-312,-18,78,1
225,-130,-355,-41,286,-240,-455,52,-342,-6,84,1
231,-112,-343,-53,280,-228,-485,-20,-360,-1,108,13
267,-124,-397,-65,328,-258,-521,-97,-414,5,138,30
321,-100,-427,-107,370,-258,-605,-205,-522,-1,174,66
399,-52,-457,-167,424,-252,-737,-325,-660,-12,234,120
483,-4,-487,-233,484,-246,-881,-481,-792,-12,318,198
573,31,-535,-299,556,-246,-1049,-667,-966,-12,420,318
657,133,-517,-395,586,-192,-1265,-901,-1176,-42,534,456
753,247,-505,-503,634,-126,-1487,-1135,-1398,-84,654,594
867,289,-571,-575,724,-138,-1649,-1285,-1548,-96,774,726
981,367,-607,-671,790,-114,-1745,-1375,-1638,-60,936,870
1089,487,-601,-785,844,-54,-1835,-1435,-1662,-12,1104,1026
1203,553,-643,-875,922,-36,-1877,-1435,-1632,35,1266,1194
1299,601,-697,-953,994,-42,-1853,-1357,-1530,119,1404,1314
1371,625,-739,-995,1054,-54,-1817,-1261,-1398,233,1542,1422
1377,625,-745,-995,1060,-54,-1745,-1165,-1236,377,1698,1512
1389,661,-727,-1019,1054,-24,-1685,-1081,-1110,491,1806,1596
1353,691,-661,-1019,1006,11,-1613,-1015,-984,581,1884,1626
1275,673,-601,-977,940,29,-1493,-937,-870,599,1836,1590
1107,541,-559,-821,832,0,-1277,-811,-750,479,1560,1386
861,325,-529,-593,700,-96,-1013,-691,-642,239,1062,1020
621,109,-505,-365,562,-198,-773,-583,-576,-18,576,666
459,19,-433,-239,448,-204,-611,-517,-516,-174,270,432
309,19,-289,-161,298,-132,-455,-451,-426,-216,108,264
165,-40,-211,-53,184,-126,-287,-349,-330,-216,12,120
33,-130,-169,42,100,-150,-161,-259,-240,-216,-77,-17
-38,-154,-109,96,28,-132,-83,-193,-162,-180,-107,-101
-44,-142,-91,90,16,-120,-41,-133,-102,-138,-77,-101
-38,-136,-91,84,16,-114,-24,-115,-66,-120,-65,-89
-50,-124,-67,84,4,-96,0,-91,-48,-108,-77,-101
-62,-70,-1,66,-25,-36,24,-67,-13,-96,-83,-113
-80,-82,4,78,-37,-42,60,-25,11,-78,-71,-119
-116,-112,4,114,-61,-54,84,-20,23,-72,-95,-125
-122,-118,4,120,-61,-54,96,-25,23,-84,-113,-149
-104,-130,-19,114,-37,-78,114,-25,29,-78,-107,-161
-128,-130,4,126,-61,-66,132,-20,41,-78,-113,-161
-146,-118,22,132,-85,-42,126,-20,47,-84,-119,-179
-146,-124,16,132,-85,-48,126,-20,41,-84,-125,-173
-146,-136,4,138,-79,-60,138,-20,53,-90,-125,-185
-152,-130,16,138,-85,-54,144,-14,59,-90,-131,-179
-158,-124,28,138,-97,-42,156,-2,65,-90,-137,-179
-152,-118,28,132,-91,-42,168,-2,65,-90,-143,-185
-152,-124,22,138,-91,-48,168,4,71,-84,-143,-179
-152,-136,10,144,-85,-60,174,10,77,-78,-143,-173
-158,-142,10,150,-85,-60,174,16,83,-72,-137,-167
-164,-142,16,150,-91,-60,180,16,89,-66,-131,-167
-158,-142,10,150,-85,-60,186,22,89,-66,-131,-167
-164,-148,10,156,-91,-66,192,22,95,-60,-125,-167
-170,-154,10,162,-91,-66,198,16,95,-60,-131,-179
-164,-148,10,156,-91,-66,198,16,95,-66,-137,-179
-158,-136,16,144,-91,-54,198,28,107,-66,-131,-173
-152,-130,16,138,-85,-54,204,34,113,-60,-131,-173
-146,-124,16,132,-85,-48,204,40,113,-60,-131,-167
-152,-124,22,138,-91,-48,210,52,119,-60,-131,-173
-158,-124,28,138,-97,-42,216,52,119,-60,-131,-173
-164,-118,40,138,-103,-36,216,58,125,-60,-125,-179
-170,-118,46,144,-109,-30,216,58,131,-60,-125,-185
-164,-118,40,138,-103,-36,216,70,131,-54,-125,-185
-164,-112,46,138,-109,-30,216,70,143,-54,-125,-173
-152,-112,34,132,-97,-36,222,88,149,-48,-113,-173
-152,-118,28,132,-91,-42,228,88,155,-48,-113,-173
-158,-124,28,138,-97,-42,222,94,155,-48,-119,-173
-158,-118,34,138,-97,-36,222,100,155,-48,-119,-167
-158,-112,40,132,-103,-30,222,106,155,-42,-125,-167
-158,-112,40,132,-103,-30,222,106,167,-42,-125,-179
-158,-112,40,132,-103,-30,228,112,173,-42,-119,-185
-158,-112,40,132,-103,-30,234,124,173,-36,-113,-179
-146,-106,34,126,-91,-30,246,142,179,-36,-113,-179
-146,-100,40,120,-97,-24,258,148,185,-36,-113,-179
-152,-106,40,126,-97,-30,264,148,191,-30,-107,-167
-152,-112,34,132,-97,-36,264,148,191,-24,-107,-167
-158,-112,40,132,-103,-30,276,148,191,-18,-107,-155
-152,-118,28,132,-91,-42,276,148,197,-18,-107,-149
-152,-106,40,126,-97,-30,276,154,203,-12,-107,-155
-152,-100,46,126,-103,-24,282,160,203,-12,-107,-161
-152,-82,64,114,-109,-6,282,166,203,-12,-107,-167
-152,-70,76,108,-115,6,288,178,215,-12,-107,-167
-152,-76,70,114,-115,0,282,184,221,-6,-101,-161
-152,-76,70,114,-115,0,288,184,227,-1,-95,-167
-146,-82,58,114,-103,-6,288,196,227,-1,-95,-161
-146,-76,64,108,-109,0,288,196,233,-1,-89,-161
-146,-82,58,114,-103,-6,300,202,239,-1,-95,-161
-146,-76,64,108,-109,0,300,208,245,-1,-95,-161
-146,-82,58,114,-103,-6,306,208,257,-1,-101,-167
-146,-82,58,114,-103,-6,306,214,263,-1,-101,-167
-146,-76,64,108,-109,0,318,220,269,-1,-95,-167
-146,-76,64,108,-109,0,324,220,275,5,-89,-155
-146,-76,64,108,-109,0,330,244,287,5,-83,-173
-146,-76,64,108,-109,0,330,250,293,11,-77,-173
-146,-70,70,108,-109,6,336,256,299,17,-77,-161
-146,-64,76,102,-115,11,342,262,305,23,-71,-155
-146,-52,88,96,-121,11,348,262,317,29,-71,-149
-146,-40,100,90,-127,23,354,274,323,35,-65,-137
-146,-40,100,90,-127,23,360,286,335,41,-59,-137
-146,-40,100,90,-127,23,366,298,341,47,-59,-137
-146,-28,112,84,-133,35,372,298,347,47,-59,-137
-140,-28,106,84,-127,29,372,310,365,53,-59,-131
-146,-34,106,90,-127,29,384,328,377,65,-47,-125
-146,-34,106,90,-127,29,390,334,383,71,-47,-125
-152,-22,124,84,-139,41,402,346,401,83,-47,-125
-152,-16,130,84,-145,47,414,358,413,89,-41,-125
-146,-10,130,78,-139,53,414,364,425,95,-47,-119
-146,-4,136,72,-145,59,414,382,437,101,-35,-119
-140,2,136,66,-139,59,414,388,449,101,-35,-119
-134,14,142,60,-139,71,414,400,461,107,-29,-119
-128,19,148,48,-139,77,432,400,467,113,-23,-119
-128,19,148,48,-139,77,438,406,479,125,-17,-107
-122,19,148,42,-133,83,444,406,485,137,-5,-107
-116,31,154,36,-133,89,444,400,497,143,-5,-101
-122,37,166,36,-145,101,462,406,515,155,1,-95
-122,43,172,30,-145,107,462,412,527,161,7,-89
-122,55,184,24,-151,119,468,406,545,179,7,-89
-122,61,190,24,-157,125,468,406,557,185,12,-77
-116,73,196,12,-157,131,468,418,563,191,18,-71
-104,79,190,6,-145,131,468,430,569,203,24,-71
-104,91,202,0,-151,143,474,436,581,209,36,-53
-98,91,196,-6,-145,143,474,448,587,215,48,-47
-92,91,190,-6,-139,137,480,466,593,221,48,-41
-86,97,190,-12,-139,143,480,478,599,227,48,-35
-80,97,184,-18,-133,137,486,508,611,239,60,-29
-80,97,184,-18,-133,137,480,526,623,251,72,-23
-74,103,184,-18,-127,143,474,538,629,251,84,-17
-68,103,178,-18,-121,137,474,544,629,257,90,-11
-68,121,196,-18,-133,155,474,550,635,263,102,1
-62,127,196,-23,-127,161,468,556,641,275,114,13
-56,139,202,-35,-127,167,462,556,635,275,120,13
-44,145,196,-41,-121,167,462,556,629,275,126,19
-32,151,190,-53,-109,167,444,550,623,287,132,13
-32,151,190,-53,-109,167,444,544,617,287,138,19
-26,163,196,-59,-109,179,420,526,611,287,144,25
-14,163,184,-65,-97,173,414,514,611,293,144,30
-8,169,184,-71,-97,173,396,490,605,299,150,30
-2,181,190,-83,-97,185,384,478,581,299,156,30
4,175,178,-83,-85,173,372,466,575,299,168,42
10,175,172,-83,-79,173,360,454,575,299,174,48
15,169,160,-83,-73,161,348,442,569,305,180,60
15,175,154,-95,-61,167,324,430,563,299,186,60
21,175,148,-95,-55,161,300,424,533,293,192,66
21,175,148,-95,-55,161,288,412,527,287,192,72
27,175,142,-101,-49,161,270,406,497,281,198,72
27,169,136,-95,-49,155,252,394,479,281,204,72
27,169,136,-95,-49,155,246,382,461,281,198,66
27,163,130,-95,-43,149,234,364,443,275,198,72
27,163,130,-95,-43,149,216,322,419,269,186,66
27,163,130,-95,-43,149,216,304,407,263,186,66
27,157,124,-89,-43,143,204,274,371,239,180,54
15,151,130,-83,-49,143,192,250,353,227,162,48
15,127,106,-71,-37,119,192,226,329,209,162,42
15,103,88,-53,-31,95,180,208,299,191,150,30
15,97,88,-47,-37,89,180,202,281,167,132,30
10,91,88,-41,-37,89,180,184,263,155,120,19
-2,85,94,-35,-49,89,174,166,245,131,90,13
-8,79,94,-29,-49,83,168,154,233,113,72,1
-2,61,70,-23,-37,65,162,130,221,107,66,-5
-20,49,76,-18,-49,59,156,118,209,95,54,-17
-14,31,52,-18,-31,41,150,100,191,83,36,-35
-20,19,46,-6,-31,29,150,76,173,71,30,-41
-26,25,58,-6,-43,41,144,70,167,59,24,-41
-32,19,58,0,-43,35,138,58,149,41,12,-59
-44,14,52,12,-49,23,132,52,137,29,12,-65
-44,2,40,18,-43,11,138,52,131,23,12,-65
-50,-4,40,24,-49,11,144,40,125,17,12,-71
-50,-4,40,24,-49,11,144,16,113,5,7,-77
-50,-16,28,30,-43,11,150,-2,101,-1,-5,-77
-62,-22,34,42,-49,11,150,-8,101,-1,-5,-89
-62,-28,28,42,-49,6,138,-20,95,-6,-17,-83
-62,-28,28,42,-49,6,138,-25,89,-18,-23,-95
-62,-28,28,42,-49,6,132,-37,83,-24,-35,-89
-62,-28,28,42,-49,6,138,-49,83,-24,-41,-89
-62,-34,22,48,-43,0,138,-55,77,-30,-41,-95
-62,-34,22,48,-43,0,138,-61,77,-30,-47,-107
-62,-40,16,48,-43,-6,132,-67,77,-30,-53,-113
-62,-40,16,48,-43,-6,132,-67,71,-36,-53,-119
-68,-52,10,60,-43,-18,132,-73,71,-42,-47,-113
-74,-58,10,66,-43,-18,132,-91,71,-42,-53,-119
-74,-58,10,66,-43,-18,138,-85,71,-42,-47,-113
-74,-58,10,66,-43,-18,144,-91,71,-42,-41,-113
-68,-52,10,60,-43,-18,138,-97,65,-54,-53,-125
-74,-46,22,60,-49,-6,132,-103,65,-54,-59,-125
-68,-40,22,54,-49,-6,126,-109,59,-54,-65,-131
-68,-46,16,54,-43,-12,126,-103,59,-54,-71,-131
-80,-52,22,66,-55,-12,132,-109,59,-60,-65,-125
-80,-58,16,66,-49,-18,132,-115,59,-60,-65,-125
-80,-64,10,72,-49,-24,132,-127,59,-60,-59,-119
-80,-70,4,72,-43,-30,126,-127,59,-60,-59,-119
-80,-70,4,72,-43,-30,126,-133,59,-54,-53,-113
-74,-70,4,72,-37,-30,126,-133,59,-54,-47,-107
-74,-70,4,72,-37,-30,126,-127,59,-48,-41,-101
-80,-76,4,78,-43,-36,126,-127,53,-48,-47,-95
-74,-70,4,72,-37,-30,120,-127,53,-54,-53,-101
-74,-70,4,72,-37,-30,126,-121,53,-60,-53,-107
-68,-70,4,66,-31,-36,120,-127,53,-66,-59,-113
-74,-64,4,66,-43,-24,120,-127,59,-72,-65,-119
-74,-58,10,66,-43,-18,120,-133,59,-66,-71,-119
-68,-58,4,60,-37,-24,126,-133,65,-66,-65,-119
-68,-64,4,66,-37,-30,126,-121,65,-60,-71,-119
-74,-58,10,66,-43,-18,120,-121,65,-60,-71,-119
-74,-52,16,60,-49,-12,126,-127,65,-60,-65,-113
-74,-52,16,60,-49,-12,132,-127,65,-60,-65,-113
-74,-46,22,60,-49,-6,138,-127,71,-60,-59,-107
-74,-52,16,60,-49,-12,138,-127,71,-60,-59,-107
-74,-58,10,66,-43,-18,138,-127,65,-60,-53,-107
-68,-46,16,54,-43,-12,138,-127,59,-60,-53,-107
-68,-40,22,54,-49,-6,138,-127,53,-54,-47,-107
-80,-58,16,66,-49,-18,138,-127,59,-54,-47,-107
-86,-52,28,66,-61,-6,138,-127,65,-54,-53,-113
-86,-52,28,66,-61,-6,138,-127,65,-54,-53,-119
-92,-40,46,66,-73,6,132,-127,71,-54,-59,-125
-92,-40,46,66,-73,6,132,-133,71,-54,-59,-119
-92,-46,40,66,-67,0,132,-133,71,-60,-53,-119
-86,-46,34,66,-61,0,126,-121,71,-54,-53,-119
-86,-46,34,66,-61,0,126,-121,71,-60,-59,-131
-86,-40,40,60,-67,6,126,-133,65,-66,-59,-137
-86,-40,40,60,-67,6,132,-133,65,-66,-59,-131
-86,-40,40,60,-67,6,132,-133,65,-66,-59,-125
-86,-46,34,66,-61,0,138,-127,71,-60,-59,-113
-86,-46,34,66,-61,0,138,-127,71,-60,-59,-107
-92,-46,40,66,-67,0,132,-133,71,-60,-53,-107
-92,-46,40,66,-67,0,132,-133,71,-60,-53,-107
-86,-46,34,66,-61,0,132,-139,71,-60,-47,-107
-86,-46,34,66,-61,0,132,-139,71,-60,-47,-95
-86,-46,34,66,-61,0,132,-133,71,-60,-41,-107
-86,-46,34,66,-61,0,132,-133,71,-60,-41,-107
-86,-40,40,60,-67,6,126,-145,71,-66,-35,-107
-86,-40,40,60,-67,6,126,-145,71,-66,-35,-107
-86,-40,40,60,-67,6,126,-139,71,-66,-41,-107
-92,-40,46,66,-73,6,126,-139,71,-66,-47,-107
-92,-46,40,66,-67,0,126,-139,71,-66,-53,-107
-92,-46,40,66,-67,0,126,-139,65,-66,-65,-107
-86,-46,34,66,-61,0,126,-145,65,-66,-59,-107
-92,-46,40,66,-67,0,126,-145,65,-66,-53,-101
-86,-46,34,66,-61,0,126,-151,71,-60,-47,-101
-80,-46,28,60,-55,-6,120,-157,71,-60,-41,-107
-86,-40,40,60,-67,6,120,-163,59,-66,-47,-107
-86,-34,46,60,-67,11,120,-163,53,-78,-53,-113
-92,-28,58,60,-79,11,120,-175,47,-84,-59,-113
-92,-16,70,54,-85,17,114,-175,47,-90,-65,-113
-92,-22,64,54,-79,11,114,-175,47,-84,-59,-101
-92,-52,34,72,-67,-6,114,-175,47,-84,-59,-101
-86,-40,40,60,-67,6,114,-181,47,-78,-53,-89
-86,-46,34,66,-61,0,120,-181,47,-78,-53,-89
-86,-40,40,60,-67,6,114,-175,47,-72,-53,-95
-86,-40,40,60,-67,6,114,-175,47,-72,-53,-101
-92,-46,40,66,-67,0,108,-181,47,-66,-53,-107
-92,-46,40,66,-67,0,108,-181,47,-66,-53,-107
-86,-40,40,60,-67,6,108,-181,41,-72,-53,-107
-86,-46,34,66,-61,0,108,-181,35,-72,-53,-107
-80,-40,34,60,-61,0,108,-187,29,-84,-53,-107
-80,-34,40,54,-61,6,108,-187,29,-84,-59,-107
-80,-34,40,54,-61,6,108,-187,29,-84,-59,-95
-80,-34,40,54,-61,6,114,-181,29,-84,-47,-95
-86,-34,46,60,-67,11,114,-181,29,-90,-53,-95
-86,-34,46,60,-67,11,108,-187,23,-96,-59,-101
-86,-34,46,60,-67,11,108,-187,23,-96,-59,-101
-86,-34,46,60,-67,11,102,-193,17,-102,-65,-107
-86,-34,46,60,-67,11,102,-193,17,-102,-65,-107
-86,-34,46,60,-67,11,102,-193,17,-102,-65,-113
-86,-34,46,60,-67,11,102,-205,11,-108,-71,-113
-80,-34,40,54,-61,6,102,-205,11,-108,-71,-119
-80,-34,40,54,-61,6,102,-205,11,-108,-71,-125
-80,-46,28,60,-55,-6,96,-205,11,-102,-65,-119
-86,-46,34,66,-61,0,96,-205,11,-102,-65,-119
-86,-64,16,72,-55,-18,90,-205,11,-96,-59,-107
-80,-46,28,60,-55,-6,84,-205,5,-96,-59,-107
-80,-46,28,60,-55,-6,90,-211,-1,-102,-65,-119
-80,-52,22,66,-55,-12,90,-211,-1,-102,-65,-107
-80,-58,16,66,-49,-18,96,-211,-7,-102,-65,-107
-80,-58,16,66,-49,-18,96,-211,-7,-102,-59,-107
-86,-52,28,66,-61,-6,96,-211,-7,-102,-59,-113
-86,-46,34,66,-61,0,96,-211,-7,-102,-59,-113
-92,-40,46,66,-73,6,96,-217,-13,-108,-65,-113
-98,-46,46,72,-73,6,96,-217,-13,-108,-65,-107
-98,-52,40,72,-73,0,96,-211,-7,-108,-65,-107
-86,-52,28,66,-61,-6,96,-211,-7,-108,-65,-113
-98,-58,34,78,-67,-6,96,-205,-13,-108,-65,-113
-98,-58,34,78,-67,-6,96,-205,-13,-108,-71,-119
-92,-52,34,72,-67,-6,102,-205,-13,-108,-77,-125
-92,-46,40,66,-67,0,102,-205,-13,-108,-77,-125
-92,-46,40,66,-67,0,108,-199,-13,-108,-77,-131
-86,-46,34,66,-61,0,108,-193,-7,-108,-77,-131
-80,-46,28,60,-55,-6,102,-193,-13,-102,-71,-125
-74,-46,22,60,-49,-6,102,-193,-13,-102,-71,-119
-68,-40,22,54,-49,-6,96,-193,-13,-102,-71,-107
-68,-40,22,54,-49,-6,96,-193,-13,-102,-71,-107
-56,-40,10,48,-37,-12,102,-187,-13,-102,-65,-101
-56,-34,16,42,-37,-6,102,-175,-7,-90,-59,-95
-44,-22,16,30,-31,0,114,-163,11,-90,-47,-83
-38,-4,28,18,-37,11,120,-157,11,-84,-41,-77
-26,8,28,6,-31,11,120,-145,23,-66,-29,-77
-20,19,34,0,-31,17,120,-139,23,-60,-23,-71
-2,19,28,-18,-13,23,126,-127,35,-60,-17,-65
-2,25,34,-18,-19,29,138,-115,47,-42,-5,-59
10,37,34,-18,-13,35,150,-103,65,-30,12,-53
15,49,40,-23,-13,41,150,-91,77,-30,12,-47
10,55,52,-23,-19,53,150,-79,89,-18,12,-47
15,49,34,-29,-7,41,150,-73,101,-12,12,-47
21,37,10,-29,4,23,150,-67,107,-6,12,-41
27,37,4,-29,4,23,144,-61,107,-1,18,-41
33,31,4,-29,16,11,150,-55,113,-1,24,-41
45,31,-7,-35,28,11,150,-49,113,5,24,-41
39,19,-13,-29,28,11,132,-61,101,-1,18,-41
39,19,-13,-29,28,11,126,-61,95,-1,18,-41
33,25,-1,-29,16,11,114,-67,89,-1,12,-41
39,37,4,-35,16,17,102,-73,89,-1,12,-35
33,31,4,-29,16,11,96,-91,71,-12,12,-41
21,19,4,-18,10,11,90,-97,59,-24,12,-53
15,14,-7,-18,10,6,84,-103,41,-36,7,-65
15,2,-19,-18,16,-6,78,-109,41,-36,1,-65
21,-4,-31,-18,22,-18,84,-121,29,-48,-11,-59
21,-10,-37,-12,28,-24,84,-121,23,-60,-11,-71
33,-22,-61,-12,46,-42,84,-127,11,-78,-23,-71
33,-40,-79,-6,52,-60,90,-127,11,-84,-35,-83
21,-4,-31,-18,22,-18,90,-115,23,-84,-35,-59
15,2,-13,-12,10,-6,102,-115,29,-72,-29,-65
15,19,4,-18,4,11,114,-103,47,-60,-29,-65
4,19,16,-18,-7,11,138,-91,65,-54,-17,-65
-2,14,10,-6,-7,11,168,-85,77,-36,-5,-65
-20,19,40,-6,-31,23,198,-73,107,-36,1,-77
-56,55,118,-6,-85,83,234,-67,113,-36,-11,-83
-86,37,130,18,-109,83,276,-43,143,-30,1,-71
-74,-10,58,42,-67,17,306,-14,185,-1,12,-47
-62,-22,34,42,-49,11,312,22,203,11,18,-35
-62,2,58,30,-61,23,294,40,221,11,12,-41
-38,-10,22,24,-31,11,294,88,239,29,18,-41
-14,-10,4,12,-7,0,264,130,269,47,18,-47
10,19,10,-18,-1,11,222,148,269,35,12,-53
21,25,4,-23,4,11,174,166,275,47,18,-41
45,19,-25,-29,34,0,132,196,281,71,54,-29
45,25,-13,-35,28,11,96,220,311,95,66,-11
63,37,-19,-47,40,11,108,262,341,113,84,-5
81,43,-31,-59,58,11,120,328,395,149,108,7
75,25,-43,-47,58,0,120,376,413,161,120,19
81,19,-61,-47,70,-18,90,400,401,173,126,19
123,19,-109,-65,112,-42,30,388,341,161,114,19
147,19,-121,-83,136,-42,-29,340,275,137,114,19
153,19,-127,-83,142,-48,-89,304,227,119,114,13
159,19,-133,-89,148,-48,-137,280,167,113,126,7
165,19,-145,-89,154,-60,-197,262,89,89,114,7
171,2,-175,-77,172,-84,-263,220,-13,29,90,7
165,-22,-193,-65,178,-108,-305,136,-132,-1,90,19
165,-40,-211,-53,184,-126,-347,28,-228,-24,90,19
183,-46,-235,-59,208,-138,-395,-61,-318,-54,78,19
207,-34,-241,-77,226,-138,-443,-187,-414,-90,66,19
201,-58,-259,-65,232,-162,-467,-253,-444,-90,66,13
213,-94,-307,-53,256,-204,-479,-289,-450,-78,84,25
261,-64,-331,-95,292,-198,-509,-361,-492,-96,96,30
303,-28,-337,-131,316,-186,-593,-463,-588,-114,126,66
357,-4,-367,-173,358,-186,-725,-589,-726,-132,186,138
459,-4,-469,-221,460,-234,-899,-769,-906,-156,252,216
561,31,-523,-293,544,-240,-1091,-973,-1110,-204,306,288
645,103,-535,-371,592,-216,-1283,-1195,-1326,-258,384,378
741,181,-553,-461,646,-186,-1487,-1429,-1524,-276,492,492
849,259,-589,-551,724,-162,-1643,-1591,-1668,-282,594,594
963,349,-607,-653,784,-126,-1763,-1711,-1782,-306,684,702
1047,427,-619,-737,832,-90,-1853,-1807,-1848,-318,792,822
1137,505,-625,-821,880,-54,-1919,-1855,-1872,-282,942,972
1233,601,-631,-917,934,-6,-1937,-1831,-1830,-228,1092,1122
1335,649,-685,-989,1006,-12,-1925,-1741,-1728,-144,1230,1254
1383,649,-727,-1013,1054,-36,-1889,-1639,-1596,-30,1356,1362
1437,661,-769,-1043,1102,-48,-1829,-1525,-1464,95,1476,1446
1461,697,-757,-1073,1108,-24,-1751,-1423,-1308,227,1608,1512
1461,715,-739,-1085,1102,-6,-1649,-1309,-1164,359,1710,1566
1395,709,-685,-1049,1036,11,-1529,-1207,-1020,425,1728,1554
1245,637,-607,-941,928,11,-1349,-1093,-906,371,1548,1434
1023,445,-577,-737,802,-60,-1085,-937,-756,197,1158,1140
771,205,-565,-491,670,-180,-821,-781,-660,-54,684,780
573,67,-499,-317,538,-216,-635,-697,-612,-234,330,504
381,61,-313,-221,346,-120,-503,-613,-528,-294,156,354
213,19,-187,-113,202,-78,-347,-511,-438,-282,48,216
81,-58,-145,-18,112,-102,-233,-427,-354,-270,-17,78
-14,-118,-97,66,34,-108,-119,-343,-276,-240,-59,-17
-68,-106,-31,84,-13,-72,-41,-283,-210,-198,-65,-65
-62,-76,-7,66,-25,-42,-24,-259,-186,-192,-65,-65
-50,-64,-7,54,-19,-36,12,-223,-156,-192,-77,-77
-62,-82,-13,72,-19,-48,72,-163,-90,-168,-71,-77
-80,-94,-7,84,-31,-54,120,-97,-24,-138,-59,-83
-68,-76,-1,72,-31,-42,120,-85,-13,-144,-71,-89
-98,-70,22,84,-61,-18,120,-85,-24,-156,-77,-101
-128,-82,40,102,-85,-18,114,-97,-30,-150,-83,-113
-140,-82,52,108,-97,-12,120,-91,-30,-138,-77,-113
-146,-82,58,114,-103,-6,126,-103,-36,-132,-83,-119
-146,-100,40,120,-97,-24,132,-103,-36,-132,-95,-125
-146,-112,28,126,-91,-36,144,-97,-24,-138,-95,-137
-152,-118,28,132,-91,-42,156,-85,-13,-138,-107,-143
-158,-112,40,132,-103,-30,168,-73,-13,-138,-113,-143
-152,-106,40,126,-97,-30,180,-61,-13,-144,-125,-155
-152,-106,40,126,-97,-30,180,-55,-7,-138,-125,-155
-152,-118,28,132,-91,-42,186,-37,5,-138,-131,-155
-158,-118,34,138,-97,-36,186,-31,11,-132,-125,-155
-164,-106,52,132,-109,-24,180,-31,11,-126,-119,-149
-158,-106,46,132,-103,-24,186,-25,11,-126,-119,-149
-164,-100,58,132,-115,-18,180,-25,11,-120,-113,-143
-170,-106,58,138,-115,-18,186,-31,11,-120,-119,-155
-164,-112,46,138,-109,-30,192,-37,11,-126,-125,-161
-164,-106,52,132,-109,-24,192,-25,23,-126,-119,-155
-158,-112,40,132,-103,-30,204,-25,29,-120,-119,-161
-158,-112,40,132,-103,-30,204,-20,29,-120,-119,-155
-158,-112,40,132,-103,-30,210,-20,29,-120,-113,-155
-158,-112,40,132,-103,-30,216,-20,29,-120,-113,-155
-158,-106,46,132,-103,-24,216,-14,29,-120,-101,-155
-158,-106,46,132,-103,-24,216,-14,35,-120,-101,-161
-164,-100,58,132,-115,-18,210,-8,35,-114,-107,-155
-164,-94,64,126,-115,-12,216,-8,47,-114,-107,-143
-164,-88,70,126,-121,-6,216,4,53,-108,-101,-137
-164,-94,64,126,-115,-12,216,4,59,-108,-101,-137
-164,-94,64,126,-115,-12,216,4,53,-108,-107,-137
-164,-88,70,126,-121,-6,216,10,53,-108,-107,-131
-158,-76,76,114,-121,6,222,10,47,-102,-113,-131
-158,-76,76,114,-121,6,222,10,59,-102,-113,-143
-164,-82,76,120,-121,0,222,10,71,-96,-101,-137
-164,-82,76,120,-121,0,222,22,71,-90,-95,-131
-158,-82,70,120,-115,0,228,34,83,-84,-89,-119
-158,-76,76,114,-121,6,234,40,89,-84,-89,-119
-158,-76,76,114,-121,6,234,46,95,-90,-89,-119
-158,-76,76,114,-121,6,234,52,95,-84,-89,-125
-158,-70,82,114,-121,11,240,58,95,-90,-95,-125
-152,-70,76,108,-115,6,240,64,101,-90,-95,-125
-152,-64,82,108,-121,11,240,64,101,-84,-95,-125
-152,-64,82,108,-121,11,246,70,101,-84,-95,-131
-152,-52,94,102,-127,11,246,70,95,-84,-95,-131
-152,-46,100,96,-127,17,252,82,107,-84,-95,-131
-146,-52,88,96,-121,11,252,88,119,-72,-83,-125
-146,-58,82,102,-115,11,258,88,125,-66,-77,-131
-134,-64,64,96,-103,6,264,100,137,-60,-71,-125
-134,-64,64,96,-103,6,264,100,143,-60,-65,-125
-140,-58,76,96,-109,11,270,112,155,-54,-59,-113
-140,-52,82,96,-115,11,270,118,161,-54,-59,-113
-146,-46,94,96,-121,17,270,124,179,-48,-53,-107
-146,-46,94,96,-121,17,270,130,185,-42,-53,-107
-146,-46,94,96,-121,17,282,130,185,-42,-59,-107
-146,-46,94,96,-121,17,288,136,191,-36,-53,-95
-146,-52,88,96,-121,11,294,154,197,-42,-59,-113
-146,-52,88,96,-121,11,294,160,203,-36,-53,-113
-146,-46,94,96,-121,17,300,172,215,-24,-47,-107
-146,-34,106,90,-127,29,306,178,221,-18,-41,-107
-146,-22,118,84,-133,41,312,184,233,-6,-35,-107
-146,-4,136,72,-145,59,318,196,239,-1,-29,-101
-146,-10,130,78,-139,53,324,202,251,-1,-17,-95
-146,-10,130,78,-139,53,330,214,257,-1,-17,-95
-146,-4,136,72,-145,59,336,208,263,-1,-11,-89
-140,-4,130,72,-139,53,336,220,281,-1,-11,-83
-140,-10,124,72,-133,47,342,232,287,5,-5,-83
-140,-10,124,72,-133,47,348,238,293,11,-5,-83
-140,2,136,66,-139,59,354,250,305,23,-11,-89
-140,8,142,66,-145,65,366,262,317,29,-5,-89
-140,14,148,60,-145,71,372,268,329,41,-5,-77
-140,19,154,60,-151,77,378,286,341,47,7,-77
-140,19,160,54,-151,83,384,292,353,53,12,-71
-134,25,166,48,-151,95,390,304,365,59,12,-71
-134,31,172,42,-151,101,402,322,377,65,12,-65
-134,31,172,42,-151,101,408,334,395,77,18,-53
-134,31,172,42,-151,101,408,352,407,89,30,-47
-128,43,178,36,-151,107,408,352,419,95,30,-41
-128,49,184,30,-157,113,426,370,425,101,36,-41
-128,55,190,30,-157,119,426,382,437,107,42,-35
-122,67,196,18,-157,131,438,388,443,119,42,-41
-122,73,202,18,-163,137,438,394,455,125,48,-29
-122,73,202,18,-163,137,444,418,473,131,60,-23
-110,79,196,6,-151,137,444,436,473,143,66,-23
-116,79,202,12,-157,137,456,454,497,149,72,-5
-110,79,196,6,-151,137,456,466,503,155,84,1
-104,91,202,0,-151,143,450,466,503,167,84,7
-98,109,214,-12,-157,161,450,466,509,173,84,13
-92,121,220,-18,-157,167,444,472,515,191,96,19
-92,133,232,-18,-163,179,438,478,527,209,108,25
-86,133,226,-18,-157,179,426,490,533,209,114,19
-80,133,220,-18,-151,173,426,490,533,215,120,25
-80,145,232,-23,-157,185,420,496,539,221,126,25
-74,151,232,-29,-151,191,414,496,545,233,138,30
-80,157,244,-29,-163,197,408,502,545,233,144,30
-68,163,238,-41,-151,197,402,502,539,233,150,30
-68,163,238,-41,-151,197,384,502,539,239,156,30
-68,163,238,-41,-151,197,384,496,533,239,162,30
-56,163,226,-47,-139,191,360,484,527,239,168,42
-44,163,214,-53,-127,185,354,478,527,245,168,60
-32,157,196,-53,-115,173,336,466,521,251,174,66
-26,169,202,-65,-115,185,324,460,497,251,180,78
-26,169,202,-65,-115,185,312,442,485,239,186,78
-20,169,196,-65,-109,179,300,430,479,239,192,84
-20,169,196,-65,-109,179,288,418,473,239,192,84
-8,175,190,-77,-97,179,264,406,461,233,198,84
4,181,184,-83,-91,179,246,382,431,227,198,90
4,181,184,-83,-91,179,234,364,425,221,198,96
15,187,178,-95,-79,179,222,340,395,215,198,96
15,181,172,-89,-79,173,210,322,377,215,204,96
15,175,166,-89,-73,167,198,298,347,209,204,96
15,169,160,-83,-73,161,180,274,329,203,204,102
15,163,154,-83,-67,155,156,220,299,191,198,102
15,163,154,-83,-67,155,144,202,287,185,198,102
15,157,142,-83,-61,149,132,184,257,161,192,90
10,157,154,-77,-73,155,120,166,245,149,174,84
15,133,124,-65,-55,125,120,154,227,131,174,78
10,115,112,-53,-49,113,108,136,209,119,162,66
4,109,112,-47,-55,107,102,118,185,95,150,60
-2,97,106,-41,-55,101,96,88,167,83,138,48
-14,91,112,-29,-61,101,84,58,143,59,114,42
-20,79,106,-23,-61,89,72,34,131,41,96,36
-20,67,94,-18,-55,77,66,16,107,29,90,30
-38,61,106,-18,-73,83,60,10,95,17,78,30
-38,49,94,-12,-67,71,54,-2,71,-1,60,13
-44,43,94,-6,-67,65,54,-20,53,-1,54,7
-50,37,94,0,-73,65,60,-20,53,-6,48,13
-56,25,88,6,-73,53,54,-20,41,-24,42,-5
-68,8,70,30,-73,29,60,-20,35,-30,36,-5
-68,-10,52,36,-61,11,66,-20,35,-36,36,-5
-74,-4,64,36,-73,23,60,-31,23,-42,24,-11
-74,-4,64,36,-73,23,60,-49,11,-54,18,-17
-74,-4,64,36,-73,23,54,-67,-7,-72,7,-17
-86,-10,70,48,-79,23,54,-67,-7,-72,7,-29
-80,-22,52,48,-67,11,48,-73,-13,-84,-5,-35
-80,-22,52,48,-67,11,48,-73,-13,-96,-5,-47
-74,-28,40,48,-61,11,48,-73,-13,-108,-17,-53
-74,-28,40,48,-61,11,54,-73,-13,-108,-17,-53
-80,-34,40,54,-61,6,48,-79,-24,-108,-11,-47
-80,-34,40,54,-61,6,48,-85,-24,-108,-17,-53
-86,-40,40,60,-67,6,36,-91,-30,-102,-17,-47
-86,-40,40,60,-67,6,36,-91,-36,-108,-17,-47
-86,-46,34,66,-61,0,30,-91,-36,-120,-17,-47
-92,-46,40,66,-67,0,30,-103,-36,-120,-29,-53
-86,-40,40,60,-67,6,30,-91,-36,-126,-29,-53
-86,-34,46,60,-67,11,36,-91,-36,-126,-29,-53
-80,-40,34,60,-61,0,36,-91,-42,-132,-35,-59
-86,-34,46,60,-67,11,30,-91,-42,-132,-35,-59
-80,-40,34,60,-61,0,30,-91,-48,-126,-35,-59
-80,-46,28,60,-55,-6,30,-79,-48,-126,-35,-59
-92,-46,40,66,-67,0,36,-79,-54,-138,-41,-65
-92,-46,40,66,-67,0,36,-85,-54,-138,-41,-65
-92,-46,40,66,-67,0,36,-91,-60,-144,-47,-71
-92,-46,40,66,-67,0,30,-91,-60,-144,-47,-71
-92,-52,34,72,-67,-6,36,-97,-54,-138,-47,-71
-86,-52,28,66,-61,-6,36,-97,-54,-138,-41,-71
-86,-58,22,72,-55,-12,42,-91,-48,-132,-41,-71
-92,-64,22,78,-61,-18,42,-91,-54,-132,-47,-71
-98,-64,28,78,-67,-12,36,-85,-48,-132,-41,-71
-98,-70,22,84,-61,-18,42,-79,-48,-132,-41,-71
-104,-76,22,90,-67,-24,36,-79,-42,-132,-35,-71
-110,-76,28,90,-73,-18,36,-79,-36,-132,-41,-71
-104,-64,34,84,-73,-12,36,-79,-42,-132,-47,-65
-98,-64,28,78,-67,-12,42,-79,-42,-132,-41,-65
-92,-64,22,78,-61,-18,42,-61,-48,-132,-47,-59
-98,-58,34,78,-67,-6,36,-61,-54,-132,-47,-59
-98,-58,34,78,-67,-6,36,-61,-54,-138,-47,-59
-98,-58,34,78,-67,-6,42,-55,-54,-138,-47,-59
-98,-58,34,78,-67,-6,42,-49,-48,-144,-47,-59
-98,-64,28,78,-67,-12,42,-43,-48,-144,-47,-59
-98,-58,34,78,-67,-6,42,-43,-48,-144,-47,-65
-92,-40,46,66,-73,6,42,-43,-54,-144,-47,-65
-92,-22,64,54,-79,11,42,-43,-54,-138,-47,-71
-104,-34,64,66,-85,11,42,-43,-48,-138,-47,-71
-104,-40,58,72,-85,11,48,-37,-48,-132,-47,-65
-104,-46,52,72,-79,6,48,-37,-48,-132,-47,-71
-104,-46,52,72,-79,6,48,-31,-48,-126,-47,-65
-104,-52,46,78,-79,0,48,-37,-48,-126,-47,-59
-110,-58,46,84,-79,0,48,-37,-42,-126,-41,-47
-104,-58,40,78,-73,-6,42,-25,-42,-120,-41,-47
-110,-58,46,84,-79,0,42,-25,-36,-120,-47,-47
-110,-52,52,78,-85,6,42,-37,-42,-126,-47,-53
-104,-40,58,72,-85,11,42,-37,-42,-126,-47,-59
-104,-40,58,72,-85,11,42,-37,-42,-126,-47,-59
-98,-34,58,66,-79,11,42,-31,-36,-120,-47,-59
-98,-34,58,66,-79,11,42,-31,-36,-120,-47,-59
-98,-34,58,66,-79,11,42,-31,-36,-120,-41,-59
-98,-34,58,66,-79,11,42,-31,-36,-120,-41,-59
-86,-34,46,60,-67,11,48,-31,-36,-120,-35,-59
-86,-34,46,60,-67,11,48,-31,-36,-120,-35,-47
-92,-40,46,66,-73,6,48,-25,-36,-114,-41,-59
-98,-40,52,66,-79,11,48,-25,-36,-114,-41,-59
-104,-40,58,72,-85,11,42,-37,-36,-114,-47,-59
-110,-40,64,72,-91,11,42,-37,-36,-114,-47,-59
-104,-34,64,66,-85,11,42,-37,-36,-120,-47,-65
-104,-34,64,66,-85,11,42,-49,-36,-120,-47,-65
-98,-34,58,66,-79,11,42,-55,-36,-126,-47,-71
-92,-34,52,60,-73,11,42,-67,-42,-126,-53,-71
-98,-34,58,66,-79,11,42,-73,-42,-126,-53,-65
-104,-34,64,66,-85,11,42,-73,-42,-126,-53,-59
-110,-34,70,72,-91,11,42,-79,-36,-120,-53,-53
-104,-34,64,66,-85,11,36,-85,-36,-120,-53,-59
-104,-40,58,72,-85,11,30,-79,-42,-120,-53,-53
-104,-40,58,72,-85,11,30,-79,-48,-126,-53,-59
-104,-46,52,72,-79,6,24,-79,-48,-126,-53,-53
-104,-40,58,72,-85,11,18,-79,-48,-126,-53,-53
-104,-40,58,72,-85,11,24,-79,-48,-126,-53,-53
-104,-64,34,84,-73,-12,24,-79,-48,-126,-53,-53
-98,-46,46,72,-73,6,30,-85,-48,-126,-53,-53
-98,-46,46,72,-73,6,36,-85,-48,-126,-53,-53
-98,-40,52,66,-79,11,30,-85,-54,-120,-59,-59
-98,-40,52,66,-79,11,30,-91,-54,-120,-65,-65
-104,-46,52,72,-79,6,24,-103,-60,-114,-71,-71
-104,-46,52,72,-79,6,24,-109,-60,-114,-77,-71
-98,-40,52,66,-79,11,24,-103,-60,-108,-77,-71
-98,-46,46,72,-73,6,24,-103,-66,-108,-77,-71
-92,-40,46,66,-73,6,24,-103,-66,-108,-77,-71
-92,-34,52,60,-73,11,24,-103,-66,-108,-83,-71
-92,-34,52,60,-73,11,12,-103,-66,-108,-83,-83
-104,-58,40,78,-73,-6,18,-97,-66,-108,-83,-83
-98,-58,34,78,-67,-6,30,-97,-66,-114,-77,-71
-98,-52,40,72,-73,0,24,-103,-66,-120,-77,-65
-98,-46,46,72,-73,6,24,-103,-66,-120,-77,-65
-98,-40,52,66,-79,11,18,-109,-66,-126,-77,-59
-98,-34,58,66,-79,11,18,-109,-66,-126,-77,-59
-98,-40,52,66,-79,11,18,-103,-72,-120,-77,-59
-98,-40,52,66,-79,11,18,-115,-78,-126,-83,-59
-92,-46,40,66,-67,0,18,-109,-84,-120,-83,-59
-92,-46,40,66,-67,0,18,-109,-84,-120,-83,-65
-98,-52,40,72,-73,0,18,-115,-84,-126,-83,-65
-104,-52,46,78,-79,0,18,-115,-84,-126,-83,-65
-110,-64,40,84,-79,-6,18,-121,-84,-132,-83,-59
-104,-46,52,72,-79,6,12,-121,-90,-132,-83,-59
-104,-46,52,72,-79,6,6,-127,-90,-138,-89,-77
-104,-52,46,78,-79,0,6,-127,-90,-138,-89,-65
-104,-58,40,78,-73,-6,0,-127,-90,-138,-89,-71
-104,-58,40,78,-73,-6,0,-127,-90,-138,-83,-71
-98,-52,40,72,-73,0,0,-127,-90,-138,-77,-71
-98,-46,46,72,-73,6,0,-127,-90,-138,-77,-71
-92,-40,46,66,-73,6,0,-133,-96,-144,-77,-65
-98,-46,46,72,-73,6,0,-133,-96,-144,-77,-59
-104,-52,46,78,-79,0,0,-127,-90,-138,-77,-53
-92,-52,34,72,-67,-6,0,-127,-90,-138,-77,-59
-110,-58,46,84,-79,0,0,-121,-96,-132,-77,-53
-110,-58,46,84,-79,0,0,-121,-96,-132,-83,-59
-98,-46,46,72,-73,6,0,-127,-96,-138,-89,-65
-98,-40,52,66,-79,11,0,-127,-96,-138,-95,-65
-92,-34,52,60,-73,11,0,-127,-96,-144,-95,-71
-86,-34,46,60,-67,11,0,-121,-90,-144,-101,-71
-86,-40,40,60,-67,6,0,-121,-96,-138,-95,-77
-80,-40,34,60,-61,0,0,-121,-102,-138,-95,-71
-80,-40,34,60,-61,0,0,-121,-108,-138,-95,-71
-80,-40,34,60,-61,0,0,-121,-108,-138,-95,-71
-68,-34,28,48,-49,0,6,-115,-102,-126,-89,-65
-68,-28,34,48,-55,6,6,-97,-90,-114,-83,-59
-56,-10,40,30,-49,11,18,-85,-66,-102,-71,-47
-50,8,52,18,-55,23,24,-73,-60,-96,-65,-41
-38,14,46,12,-43,23,30,-55,-42,-84,-53,-29
-26,19,46,0,-37,29,30,-49,-42,-78,-47,-23
-8,19,34,-12,-19,23,42,-31,-24,-84,-41,-5
-2,25,34,-18,-19,29,54,-20,-13,-66,-29,1
10,31,28,-18,-7,29,72,-20,-7,-48,-5,7
15,43,34,-23,-7,35,72,-14,-1,-48,-5,13
10,43,40,-18,-13,41,78,-2,11,-30,1,13
15,37,22,-23,-1,29,78,-2,17,-24,7,13
15,31,10,-23,4,23,72,10,23,-18,7,25
15,31,10,-23,4,23,60,16,23,-12,12,25
15,31,10,-23,4,23,60,28,29,-6,12,30
21,31,4,-23,4,17,54,34,29,-6,12,30
21,19,4,-18,10,11,36,22,17,-18,12,25
21,19,-1,-18,10,11,30,22,11,-18,12,25
21,19,4,-18,10,11,18,16,5,-24,12,19
27,25,4,-23,10,11,6,10,5,-24,12,25
27,19,-1,-23,16,11,0,-8,-13,-42,7,19
15,19,-1,-18,4,11,-6,-20,-18,-54,-5,7
15,2,-19,-18,16,-6,-12,-20,-36,-72,-17,-5
15,-10,-31,-12,22,-18,-18,-25,-42,-72,-23,-5
15,-10,-25,-6,16,-18,-18,-37,-60,-84,-35,-11
15,-10,-25,-6,16,-18,-18,-43,-72,-96,-41,-23
15,-16,-31,-6,16,-24,-24,-49,-90,-114,-53,-35
15,-28,-43,0,22,-36,-18,-55,-96,-120,-71,-47
10,-16,-19,0,4,-18,18,-20,-36,-84,-47,-23
-2,-22,-13,12,4,-18,42,-8,-13,-72,-29,-17
-32,-22,4,24,-19,-6,54,4,-13,-72,-41,-29
-32,2,28,12,-31,11,78,16,5,-66,-41,-29
-50,19,70,12,-61,41,120,34,41,-36,-17,-5
-80,19,100,24,-91,53,162,46,59,-24,-11,-5
-80,8,82,36,-85,35,180,64,77,-24,-11,-11
-74,14,82,30,-79,41,186,100,83,-6,1,-11
-74,19,94,24,-85,53,180,130,101,-1,1,-11
-74,14,82,30,-79,41,162,154,119,11,7,-11
-50,14,58,18,-55,29,156,196,137,11,12,-5
-14,19,34,-6,-25,23,132,226,161,29,18,19
10,37,34,-18,-13,35,102,244,167,35,18,25
15,49,34,-29,-7,41,48,250,179,35,24,19
21,37,10,-29,4,23,-6,280,197,59,42,30
45,25,-13,-35,28,11,-35,334,227,83,66,42
57,49,-1,-53,28,17,-35,400,251,95,78,48
63,49,-7,-53,34,17,-47,454,269,113,84,42
93,31,-55,-59,76,-6,-47,502,299,137,96,54
123,25,-91,-71,106,-24,-71,514,281,149,108,54
129,25,-97,-77,112,-30,-137,478,227,125,90,54
123,31,-85,-77,106,-18,-197,424,167,101,90,66
147,55,-85,-101,118,-6,-245,376,113,89,90,78
177,55,-115,-113,148,-24,-287,364,59,83,90,72
171,31,-133,-101,154,-42,-323,340,-1,65,78,66
165,14,-157,-83,160,-72,-371,286,-90,29,78,78
195,2,-199,-89,196,-96,-437,172,-204,-1,66,78
201,-22,-229,-83,214,-126,-509,40,-318,-48,54,66
189,-16,-211,-77,196,-114,-581,-91,-438,-108,42,54
207,-10,-223,-89,214,-114,-617,-205,-540,-150,18,42
231,-34,-265,-89,244,-150,-629,-265,-564,-150,30,42
249,-82,-331,-77,286,-210,-629,-295,-558,-126,54,60
255,-58,-319,-95,286,-192,-653,-361,-576,-114,60,84
309,8,-307,-155,304,-150,-743,-469,-654,-132,72,108
387,19,-361,-203,376,-168,-875,-613,-774,-150,126,162
489,31,-451,-257,472,-204,-1073,-811,-960,-180,198,246
609,55,-547,-329,580,-240,-1283,-1051,-1188,-240,234,294
717,127,-583,-419,652,-228,-1511,-1309,-1404,-294,282,372
819,223,-595,-515,712,-186,-1709,-1543,-1584,-318,384,486
927,295,-625,-611,772,-162,-1853,-1711,-1734,-336,468,594
1023,349,-673,-689,850,-156,-1961,-1813,-1842,-366,522,690
1113,409,-703,-755,910,-144,-2033,-1909,-1914,-390,612,780
1203,499,-703,-845,952,-96,-2099,-1981,-1932,-354,744,918
1311,601,-709,-959,1006,-48,-2129,-1981,-1896,-282,894,1062
1437,673,-757,-1049,1096,-36,-2123,-1891,-1794,-204,1020,1182
1497,673,-823,-1085,1162,-72,-2087,-1765,-1674,-96,1134,1266
1557,673,-883,-1115,1222,-102,-2039,-1651,-1536,17,1236,1338
1611,697,-913,-1151,1258,-102,-1973,-1537,-1404,143,1332,1398
1635,733,-901,-1181,1264,-78,-1883,-1399,-1248,257,1446,1446
1599,757,-835,-1181,1222,-30,-1775,-1285,-1116,359,1494,1476
1497,697,-799,-1097,1150,-48,-1613,-1171,-984,353,1416,1404
1293,529,-757,-911,1024,-108,-1361,-997,-858,221,1128,1200
999,313,-685,-659,844,-180,-1061,-829,-738,-6,702,882
741,157,-577,-449,658,-210,-833,-727,-684,-234,318,582
513,103,-409,-305,466,-150,-683,-661,-636,-324,108,396
309,73,-235,-191,268,-72,-533,-553,-528,-306,36,282
141,19,-115,-77,130,-42,-395,-445,-438,-282,-11,156
21,-22,-49,-6,34,-36,-275,-355,-366,-258,-77,30
-38,-58,-13,48,-7,-36,-179,-271,-288,-216,-107,-29
-44,-58,-7,48,-13,-36,-113,-217,-246,-186,-89,-29
-50,-64,-7,54,-19,-36,-83,-199,-222,-192,-101,-29
-74,-88,-7,78,-31,-48,-35,-151,-192,-180,-101,-41
-86,-82,4,84,-43,-36,0,-103,-126,-156,-107,-29
-92,-58,28,72,-61,-12,24,-73,-108,-150,-107,-35
-116,-64,46,90,-85,-6,24,-61,-96,-156,-107,-53
-134,-70,58,102,-97,0,36,-49,-84,-156,-101,-65
-140,-70,64,102,-103,0,30,-49,-90,-138,-95,-53
-152,-70,76,108,-115,6,24,-67,-102,-138,-113,-65
-170,-82,82,126,-127,6,42,-67,-108,-144,-119,-83
-170,-94,70,132,-121,-6,54,-55,-108,-144,-131,-83
-170,-106,58,138,-115,-18,66,-49,-96,-150,-131,-95
-176,-106,64,138,-121,-18,84,-25,-84,-150,-143,-95
-182,-100,76,138,-133,-6,96,-20,-78,-150,-149,-95
-182,-88,88,132,-139,6,108,-20,-72,-150,-149,-101
-182,-88,88,132,-139,6,108,-14,-66,-144,-149,-101
-188,-94,88,138,-139,0,114,-2,-54,-138,-143,-95
-194,-94,94,144,-145,6,114,4,-48,-132,-137,-95
-194,-94,94,144,-145,6,114,-2,-48,-138,-137,-95
-188,-94,88,138,-139,0,120,-2,-48,-138,-137,-95
-188,-100,82,144,-139,-6,120,-8,-48,-144,-137,-95
-194,-106,82,150,-139,-6,126,-20,-48,-144,-143,-107
-188,-106,76,144,-133,-12,132,-14,-48,-138,-143,-107
-188,-100,82,144,-139,-6,132,-2,-36,-138,-137,-101
-182,-100,76,138,-133,-6,144,10,-30,-120,-131,-101
-182,-100,76,138,-133,-6,144,16,-30,-120,-131,-95
-188,-94,88,138,-139,0,138,22,-30,-120,-131,-95
-188,-88,94,138,-145,6,144,22,-30,-120,-131,-95
-194,-76,112,132,-157,11,138,22,-30,-120,-125,-95
-194,-70,118,132,-157,17,132,22,-24,-120,-125,-101
-194,-76,112,132,-157,11,138,34,-24,-114,-131,-101
-194,-70,118,132,-157,17,144,34,-13,-114,-131,-89
-188,-76,106,132,-151,11,156,52,-13,-108,-125,-89
-188,-82,100,132,-145,11,162,52,-13,-108,-125,-89
-188,-82,100,132,-145,11,162,58,-13,-108,-119,-95
-188,-76,106,132,-151,11,162,64,-13,-108,-119,-89
-182,-64,112,120,-151,17,168,70,-13,-102,-113,-95
-182,-64,112,120,-151,17,168,70,-1,-102,-113,-107
-188,-64,118,126,-157,17,162,70,-1,-102,-113,-101
-188,-64,118,126,-157,17,162,82,-1,-96,-107,-89
-182,-58,118,120,-151,23,162,94,-1,-96,-113,-77
-182,-52,124,114,-157,29,168,100,5,-96,-113,-71
-182,-52,124,114,-157,29,168,106,17,-90,-113,-71
-182,-52,124,114,-157,29,168,112,17,-84,-113,-77
-182,-46,130,114,-157,35,174,118,23,-78,-119,-77
-176,-46,124,108,-151,29,174,124,29,-78,-119,-77
-170,-46,118,108,-145,29,180,130,35,-72,-119,-77
-170,-46,118,108,-145,29,186,136,35,-72,-119,-83
-164,-40,118,102,-145,29,192,142,35,-72,-119,-83
-164,-34,124,96,-145,35,198,154,47,-72,-119,-83
-170,-40,124,102,-151,35,198,160,53,-60,-113,-77
-170,-40,124,102,-151,35,204,160,59,-54,-107,-83
-170,-46,118,108,-145,29,210,172,65,-48,-107,-77
-170,-40,124,102,-151,35,210,172,71,-48,-101,-77
-176,-40,130,108,-157,35,216,184,83,-48,-101,-71
-176,-34,136,102,-157,41,216,190,89,-48,-101,-71
-182,-34,142,108,-163,47,222,196,107,-48,-101,-71
-182,-34,142,108,-163,47,222,202,113,-42,-101,-71
-182,-22,154,102,-169,59,234,208,119,-30,-95,-59
-182,-22,154,102,-169,59,240,214,125,-24,-89,-47
-182,-16,160,96,-175,65,246,232,137,-18,-83,-53
-182,-16,160,96,-175,65,246,238,143,-12,-77,-53
-176,-16,154,96,-169,59,252,256,149,-6,-77,-53
-176,-10,160,90,-169,65,258,262,155,-1,-71,-53
-170,-4,160,84,-169,71,264,274,167,-1,-71,-59
-170,8,172,78,-175,83,270,286,173,-1,-65,-53
-170,8,172,78,-175,83,282,298,185,-1,-65,-53
-170,8,172,78,-175,83,288,310,191,5,-71,-53
-170,19,184,72,-181,95,300,310,197,-1,-77,-53
-164,19,178,72,-175,89,300,322,215,5,-83,-47
-170,14,178,78,-175,89,312,346,227,17,-65,-41
-170,14,178,78,-175,89,318,358,227,23,-65,-41
-176,19,196,72,-187,101,330,376,245,35,-59,-41
-176,19,202,72,-187,107,342,394,257,41,-53,-41
-170,25,202,66,-187,113,354,406,275,47,-53,-35
-170,31,208,60,-187,119,360,424,287,53,-41,-35
-164,37,208,54,-187,119,372,436,305,53,-35,-35
-158,49,214,48,-187,131,378,448,317,59,-29,-35
-158,55,220,42,-187,137,390,466,317,65,-29,-35
-158,55,220,42,-187,137,396,472,335,77,-23,-23
-158,55,220,42,-187,137,396,490,335,89,-17,-23
-152,67,226,36,-187,143,396,490,347,95,-17,-17
-158,67,232,36,-193,149,402,514,365,107,1,-5
-158,73,238,36,-199,155,402,532,383,113,7,1
-158,79,244,30,-199,161,402,544,401,131,12,7
-158,85,244,30,-205,167,402,556,419,137,12,19
-146,97,244,18,-199,173,408,580,425,149,18,13
-134,109,244,6,-193,179,414,592,431,161,24,13
-128,121,250,-6,-193,185,426,610,443,173,24,19
-122,127,250,-12,-187,191,432,622,449,179,36,25
-122,127,250,-12,-187,191,426,622,449,179,30,30
-116,139,256,-18,-187,197,420,616,455,185,30,30
-116,139,256,-18,-187,197,414,622,461,191,36,30
-116,145,262,-18,-193,203,402,622,473,209,48,36
-110,151,262,-18,-187,209,396,628,473,209,54,30
-104,151,256,-18,-181,203,396,628,473,215,60,36
-104,169,274,-23,-193,221,396,628,479,221,66,36
-98,175,274,-29,-187,227,390,628,485,233,78,48
-98,175,274,-29,-187,227,378,628,485,233,84,54
-86,181,268,-41,-181,227,372,628,479,233,90,60
-80,175,256,-41,-169,215,348,622,479,239,96,60
-80,175,256,-41,-169,215,348,616,473,239,102,66
-68,181,250,-47,-163,215,330,604,473,239,108,78
-56,181,244,-53,-151,209,324,598,473,245,108,90
-44,181,232,-59,-139,203,312,580,467,251,114,96
-38,193,238,-71,-139,215,300,574,443,251,120,102
-38,193,238,-71,-139,215,276,550,437,245,126,108
-32,193,232,-71,-133,209,264,532,431,245,132,114
-32,193,232,-71,-133,209,240,514,425,245,132,120
-20,199,226,-83,-121,209,216,496,413,239,138,120
-8,199,214,-89,-109,203,198,472,383,233,132,126
-2,199,208,-89,-103,203,186,454,371,221,132,132
10,199,196,-95,-91,197,168,430,341,209,126,132
15,193,184,-95,-85,185,150,406,317,203,132,132
15,187,178,-95,-79,179,138,382,287,203,132,126
15,181,172,-89,-79,173,126,352,269,197,132,132
15,175,166,-89,-73,167,102,298,239,191,126,126
15,175,166,-89,-73,167,96,268,227,185,126,126
15,169,160,-83,-73,161,78,238,197,167,114,120
4,169,172,-77,-85,167,66,220,185,155,96,114
4,145,148,-65,-73,143,60,196,161,143,90,114
-2,127,136,-53,-67,131,48,172,137,131,78,102
-2,115,124,-47,-61,119,42,154,113,107,66,90
-8,103,118,-41,-61,107,42,130,95,95,54,72
-14,91,112,-29,-61,101,30,100,71,71,30,60
-20,79,106,-23,-61,89,24,82,59,53,12,48
-20,73,100,-18,-61,83,18,58,41,47,18,54
-38,67,112,-18,-73,89,12,52,29,35,12,42
-38,61,106,-18,-73,83,6,34,11,23,12,36
-44,55,106,-12,-73,77,6,16,-7,11,7,30
-50,55,112,-12,-79,83,12,10,-7,5,1,30
-56,49,112,-6,-85,77,6,-2,-13,-1,-11,25
-68,25,100,12,-85,59,12,-8,-13,-6,-17,19
-68,19,88,18,-79,47,18,-8,-13,-12,-23,19
-74,19,88,24,-85,47,12,-20,-24,-12,-29,13
-74,19,88,24,-85,47,12,-25,-36,-24,-35,7
-74,8,76,30,-79,35,6,-43,-54,-36,-53,7
-86,2,82,42,-85,35,6,-43,-54,-36,-53,-5
-80,-4,70,42,-79,23,-6,-49,-60,-48,-65,-5
-80,2,76,36,-79,29,-6,-49,-66,-60,-65,-17
-74,2,70,36,-73,29,-12,-49,-72,-72,-77,-17
-74,8,76,30,-79,35,-6,-49,-72,-72,-77,-17
-80,8,82,36,-85,35,0,-49,-72,-72,-71,-17
-86,8,88,36,-91,41,0,-55,-72,-72,-77,-23
-92,8,94,42,-97,41,0,-55,-66,-66,-77,-23
-98,8,100,42,-103,47,0,-55,-72,-72,-77,-23
-104,-4,94,54,-103,35,0,-55,-78,-78,-77,-23
-110,-10,94,60,-103,35,0,-67,-78,-78,-89,-29
-110,-10,94,60,-103,35,6,-55,-84,-78,-89,-29
-110,-10,94,60,-103,35,12,-55,-84,-78,-89,-29
-104,-16,82,60,-97,23,6,-61,-84,-90,-95,-35
-110,-10,94,60,-103,35,0,-61,-84,-90,-95,-35
-104,-16,82,60,-97,23,-6,-67,-84,-90,-95,-35
-104,-22,76,60,-91,17,-6,-55,-84,-90,-95,-35
-104,-28,70,66,-91,11,-6,-55,-78,-96,-95,-35
-104,-28,70,66,-91,11,-6,-61,-78,-96,-95,-35
-92,-34,52,60,-73,11,-12,-67,-72,-96,-95,-35
-92,-34,52,60,-73,11,-18,-67,-72,-96,-95,-35
-92,-34,52,60,-73,11,-12,-73,-72,-96,-101,-35
-86,-34,46,60,-67,11,-12,-73,-72,-96,-95,-35
-86,-34,46,60,-67,11,-6,-67,-72,-96,-101,-35
-92,-40,46,66,-73,6,-6,-67,-78,-96,-107,-35
-92,-34,52,60,-73,11,-12,-67,-78,-96,-101,-41
-92,-34,52,60,-73,11,-6,-61,-78,-96,-101,-41
-92,-34,52,60,-73,11,-12,-67,-78,-96,-95,-47
-98,-28,64,60,-85,11,-12,-67,-72,-96,-101,-47
-98,-22,70,60,-85,17,-12,-73,-72,-102,-101,-41
-92,-28,58,60,-79,11,-6,-73,-66,-102,-95,-41
-92,-34,52,60,-73,11,-6,-61,-66,-108,-95,-35
-98,-34,58,66,-79,11,-12,-61,-66,-108,-95,-35
-104,-22,76,60,-91,17,-18,-73,-72,-108,-95,-41
-104,-16,82,60,-97,23,-12,-73,-72,-108,-95,-41
-110,-4,100,54,-109,41,-18,-79,-72,-108,-95,-47
-110,-4,100,54,-109,41,-18,-79,-72,-108,-95,-47
-110,-16,88,60,-103,29,-12,-79,-66,-102,-89,-47
-104,-10,88,54,-97,29,-12,-79,-72,-102,-89,-47
-104,-10,88,54,-97,29,-6,-79,-66,-90,-83,-47
-116,-34,76,72,-97,11,-6,-79,-60,-90,-83,-47
-110,-28,76,66,-97,17,-6,-79,-60,-90,-89,-41
-110,-28,76,66,-97,17,-6,-79,-60,-90,-89,-47
-104,-16,82,60,-97,23,-12,-79,-60,-90,-95,-41
-104,-16,82,60,-97,23,-12,-85,-60,-90,-95,-35
-110,-28,76,66,-97,17,-6,-85,-60,-96,-83,-29
-104,-28,70,66,-91,11,-12,-73,-60,-90,-83,-29
-110,-34,70,72,-91,11,-6,-73,-60,-96,-83,-35
-110,-28,76,66,-97,17,-6,-85,-66,-102,-83,-41
-110,-22,82,66,-97,23,-6,-85,-72,-102,-89,-41
-110,-22,82,66,-97,23,-6,-85,-72,-102,-89,-41
-110,-22,82,66,-97,23,-6,-79,-72,-96,-95,-35
-110,-22,82,66,-97,23,-6,-79,-72,-96,-95,-35
-116,-22,88,66,-103,23,-6,-79,-66,-96,-95,-35
-116,-22,88,66,-103,23,-6,-79,-66,-96,-95,-35
-110,-22,82,66,-97,23,0,-79,-60,-96,-95,-35
-110,-22,82,66,-97,23,0,-79,-60,-96,-95,-23
-116,-22,88,66,-103,23,0,-73,-60,-96,-95,-35
-116,-22,88,66,-103,23,-6,-73,-60,-96,-95,-35
-122,-16,100,66,-115,35,-12,-85,-60,-102,-95,-35
-122,-16,100,66,-115,35,-18,-85,-60,-102,-95,-35
-116,-16,94,66,-109,29,-18,-73,-60,-96,-95,-41
-122,-16,100,66,-115,35,-18,-73,-60,-96,-95,-41
-116,-22,88,66,-103,23,-18,-67,-60,-90,-95,-47
-116,-22,88,66,-103,23,-18,-67,-66,-90,-101,-47
-116,-22,88,66,-103,23,-18,-67,-66,-96,-101,-47
-122,-22,94,72,-109,29,-18,-67,-66,-96,-101,-41
-122,-22,94,72,-109,29,-18,-67,-60,-96,-101,-41
-116,-22,88,66,-103,23,-24,-73,-60,-96,-101,-47
-116,-16,94,66,-109,29,-24,-73,-60,-90,-95,-47
-116,-16,94,66,-109,29,-24,-73,-66,-96,-95,-53
-116,-10,100,60,-109,35,-24,-79,-60,-90,-89,-53
-116,-4,106,60,-115,41,-24,-79,-60,-90,-89,-53
-122,-4,112,60,-121,47,-24,-79,-60,-90,-89,-53
-122,-28,88,72,-109,23,-24,-79,-60,-90,-89,-53
-122,-10,106,66,-115,41,-24,-85,-60,-90,-89,-53
-122,-10,106,66,-115,41,-24,-85,-60,-90,-89,-53
-116,-10,100,60,-109,35,-24,-79,-60,-96,-89,-47
-116,-16,94,66,-109,29,-24,-79,-60,-96,-89,-53
-116,-28,82,72,-103,17,-24,-85,-60,-102,-89,-47
-116,-34,76,72,-97,11,-24,-85,-60,-102,-89,-47
-116,-28,82,72,-103,17,-24,-85,-60,-102,-95,-53
-116,-28,82,72,-103,17,-24,-85,-66,-102,-95,-53
-116,-22,88,66,-103,23,-24,-91,-66,-108,-101,-59
-116,-10,100,60,-109,35,-24,-91,-66,-108,-107,-59
-116,-10,100,60,-109,35,-24,-79,-54,-96,-95,-47
-116,-34,76,72,-97,11,-24,-73,-54,-96,-95,-35
-104,-52,46,78,-79,0,-18,-73,-60,-102,-95,-35
-98,-34,58,66,-79,11,-18,-73,-54,-102,-89,-35
-104,-34,64,66,-85,11,-24,-79,-60,-108,-95,-41
-104,-34,64,66,-85,11,-24,-85,-60,-108,-95,-41
-110,-34,70,72,-91,11,-24,-91,-66,-114,-101,-47
-110,-34,70,72,-91,11,-24,-97,-66,-114,-101,-47
-110,-34,70,72,-91,11,-24,-91,-72,-114,-101,-41
-110,-34,70,72,-91,11,-24,-103,-78,-120,-107,-41
-104,-34,64,66,-85,11,-24,-97,-84,-120,-107,-35
-104,-34,64,66,-85,11,-24,-97,-84,-120,-107,-41
-104,-40,58,72,-85,11,-24,-97,-84,-126,-107,-41
-110,-40,64,72,-91,11,-24,-97,-84,-126,-107,-41
-110,-52,52,78,-85,6,-24,-97,-84,-132,-107,-35
-104,-34,64,66,-85,11,-24,-97,-90,-132,-107,-35
-110,-28,76,66,-97,17,-24,-103,-90,-132,-119,-53
-110,-34,70,72,-91,11,-24,-103,-90,-132,-119,-41
-116,-34,76,72,-97,11,-24,-103,-90,-126,-125,-47
-116,-34,76,72,-97,11,-24,-103,-90,-126,-119,-47
-116,-40,70,78,-97,11,-24,-97,-84,-120,-113,-53
-116,-34,76,72,-97,11,-24,-97,-84,-120,-107,-53
-116,-40,70,78,-97,11,-24,-97,-84,-120,-107,-53
-122,-46,70,84,-97,11,-24,-97,-84,-120,-101,-47
-122,-46,70,84,-97,11,-24,-97,-84,-120,-107,-41
-110,-46,58,78,-85,11,-24,-97,-84,-120,-107,-47
-122,-46,70,84,-97,11,-24,-97,-96,-120,-113,-41
-122,-46,70,84,-97,11,-24,-97,-96,-120,-119,-47
-110,-34,70,72,-91,11,-24,-97,-96,-126,-119,-53
-110,-28,76,66,-97,17,-24,-97,-96,-126,-119,-53
-104,-22,76,60,-91,17,-24,-91,-96,-132,-113,-59
-98,-22,70,60,-85,17,-24,-85,-90,-132,-113,-59
-98,-34,58,66,-79,11,-24,-85,-90,-126,-101,-59
-92,-34,52,60,-73,11,-24,-85,-90,-126,-101,-53
-92,-40,46,66,-73,6,-24,-85,-90,-126,-95,-47
-92,-40,46,66,-73,6,-24,-85,-84,-126,-95,-47
-80,-34,40,54,-61,6,-24,-79,-78,-114,-95,-41
-80,-28,46,54,-67,11,-24,-67,-72,-96,-89,-35
-68,-10,52,36,-61,11,-6,-55,-48,-84,-83,-23
-62,8,64,24,-67,29,0,-49,-48,-72,-77,-17
-50,19,70,12,-61,41,6,-31,-24,-60,-65,-11
-38,31,76,-6,-55,53,6,-25,-24,-54,-59,-5
-20,49,76,-18,-49,59,18,-20,-13,-60,-53,7
-14,61,82,-18,-49,71,30,-8,-1,-42,-41,13
4,61,64,-23,-31,59,42,4,11,-30,-23,13
10,67,64,-29,-25,65,42,10,17,-30,-23,19
10,61,58,-29,-25,59,42,22,23,-18,-23,13
15,49,34,-29,-7,41,42,22,29,-12,-17,13
15,37,22,-23,-1,29,24,22,29,-12,-17,19
15,37,22,-23,-1,29,12,22,29,-6,-11,19
15,31,22,-18,-1,23,0,22,29,-6,-11,19
15,31,16,-18,4,23,-6,22,29,-6,-11,19
15,19,4,-18,4,11,-12,10,17,-12,-11,25
15,14,-1,-18,4,6,-18,10,11,-12,-11,25
15,8,-7,-18,4,0,-18,4,5,-12,-11,30
15,14,-7,-18,10,6,-24,-2,5,-12,-11,30
15,14,-7,-18,10,6,-24,-20,-13,-30,-17,30
15,2,-7,-12,4,-6,-24,-20,-18,-42,-29,13
15,-10,-19,-6,10,-18,-29,-20,-36,-60,-41,1
15,-22,-31,0,16,-30,-29,-25,-42,-60,-47,-5
10,-22,-25,6,10,-24,-24,-37,-54,-72,-59,-5
10,-22,-25,6,10,-24,-24,-37,-60,-78,-59,-17
10,-28,-31,6,10,-30,-24,-43,-72,-96,-71,-23
10,-40,-43,12,16,-42,-24,-43,-72,-96,-83,-35
-2,-16,-7,6,4,-12,-6,-31,-36,-72,-71,-23
-2,-22,-13,12,4,-18,18,-20,-18,-72,-77,-17
-20,-10,4,12,-13,0,30,-20,-24,-72,-77,-29
-56,2,52,24,-55,17,54,-20,-7,-54,-65,-17
-86,-10,70,48,-79,23,84,-2,17,-36,-53,-17
-104,-10,88,54,-97,29,138,22,35,-36,-47,-5
-104,-4,94,54,-103,35,192,40,65,-24,-59,-11
-110,2,106,54,-109,47,198,76,83,-6,-47,-11
-98,2,94,48,-97,41,192,106,101,-1,-23,-11
-98,2,94,48,-97,41,186,142,131,11,-29,1
-62,14,70,24,-67,35,168,172,149,23,-23,-5
-50,14,58,18,-55,29,132,208,161,29,-17,-5
-38,14,46,12,-43,23,102,220,167,47,-5,13
-14,19,34,-6,-25,23,48,238,179,59,12,30
21,19,-1,-18,10,11,-24,256,173,59,12,30
45,19,-25,-29,34,0,-59,298,191,71,18,30
45,19,-25,-29,34,0,-35,376,239,95,42,48
51,14,-43,-23,46,-12,-24,442,281,125,60,66
81,43,-31,-59,58,11,-35,478,299,137,72,54
99,37,-55,-65,76,0,-59,490,293,149,84,66
93,14,-85,-47,88,-36,-113,490,257,149,78,66
99,19,-73,-59,88,-18,-185,436,191,125,66,54
111,43,-61,-77,88,0,-245,400,113,101,66,66
129,19,-103,-71,118,-36,-275,388,71,107,66,72
159,-4,-169,-71,160,-84,-311,388,23,89,66,66
177,-10,-193,-77,184,-102,-359,346,-66,41,42,42
171,-22,-199,-65,184,-108,-401,262,-192,-1,30,42
165,-46,-217,-53,190,-132,-461,160,-282,-24,18,42
189,-64,-253,-53,220,-162,-503,64,-366,-60,18,42
195,-82,-277,-47,238,-180,-545,-37,-462,-90,12,42
207,-82,-289,-53,244,-186,-569,-115,-504,-102,18,30
225,-82,-307,-65,262,-198,-605,-193,-522,-90,30,48
249,-70,-319,-83,280,-198,-653,-265,-552,-90,36,72
297,-40,-343,-125,316,-192,-707,-361,-630,-108,72,108
375,-16,-397,-173,382,-210,-827,-487,-750,-126,114,150
489,-4,-493,-239,490,-246,-1013,-685,-936,-156,174,222
585,8,-583,-287,580,-288,-1229,-913,-1140,-204,234,282
693,91,-595,-389,646,-246,-1445,-1159,-1356,-246,282,360
795,211,-583,-503,694,-186,-1661,-1405,-1560,-270,396,474
903,259,-637,-581,766,-186,-1817,-1579,-1716,-288,498,618
1011,289,-721,-653,868,-210,-1925,-1687,-1818,-306,594,726
1101,361,-733,-731,922,-186,-2021,-1789,-1914,-330,684,828
1191,463,-727,-821,958,-126,-2111,-1879,-1962,-306,816,978
1311,541,-763,-929,1036,-108,-2153,-1879,-1932,-246,966,1134
1437,601,-829,-1013,1132,-108,-2159,-1795,-1854,-180,1080,1242
1545,637,-907,-1091,1222,-132,-2135,-1687,-1740,-84,1206,1326
1605,637,-967,-1121,1282,-162,-2075,-1579,-1620,41,1344,1410
1635,637,-991,-1133,1312,-174,-1991,-1471,-1464,191,1476,1494
1635,673,-961,-1151,1294,-138,-1907,-1351,-1332,293,1572,1536
1587,715,-871,-1151,1228,-72,-1799,-1261,-1212,359,1602,1566
1455,649,-799,-1049,1126,-72,-1613,-1123,-1068,329,1476,1476
1215,463,-745,-833,976,-138,-1325,-943,-906,173,1128,1212
897,247,-649,-569,772,-198,-1025,-769,-768,-54,666,858
645,109,-529,-377,586,-210,-821,-667,-708,-240,306,570
447,67,-373,-257,412,-150,-659,-589,-636,-312,108,396
261,19,-241,-137,250,-108,-491,-475,-540,-306,12,264
93,-40,-139,-18,112,-90,-347,-385,-450,-282,-59,120
-14,-94,-73,54,22,-84,-245,-307,-378,-270,-125,7
-50,-106,-49,78,4,-78,-167,-241,-312,-228,-143,-53
-56,-94,-31,72,-7,-66,-125,-193,-264,-186,-101,-29
-74,-88,-7,78,-31,-48,-83,-163,-234,-180,-101,-17
-110,-76,28,90,-73,-18,-24,-115,-192,-180,-101,-17
-122,-82,34,102,-79,-18,12,-43,-138,-156,-95,-17
-128,-118,4,120,-67,-54,24,-20,-120,-150,-107,-23
-152,-136,10,144,-85,-60,36,-14,-108,-156,-131,-41
-170,-118,46,144,-109,-30,36,-14,-108,-144,-125,-65
-164,-94,64,126,-115,-12,30,-14,-114,-126,-131,-77
-164,-94,64,126,-115,-12,36,-20,-114,-138,-125,-89
-170,-106,58,138,-115,-18,42,-20,-108,-132,-131,-71
-176,-118,52,144,-115,-30,54,-20,-108,-132,-137,-71
-176,-130,40,150,-109,-42,66,-20,-96,-138,-137,-83
-188,-130,52,156,-121,-36,84,-2,-84,-138,-143,-83
-194,-124,64,156,-133,-24,96,10,-78,-138,-149,-83
-194,-118,70,156,-133,-18,108,16,-72,-144,-161,-95
-194,-124,64,156,-133,-24,108,22,-66,-138,-161,-95
-200,-136,58,168,-133,-36,114,34,-54,-138,-167,-95
-206,-142,58,174,-133,-36,114,40,-48,-132,-161,-95
-206,-130,70,168,-139,-24,108,34,-54,-126,-161,-101
-200,-130,64,162,-133,-30,114,34,-54,-126,-161,-107
-200,-124,70,162,-139,-24,108,28,-60,-120,-161,-113
-206,-130,70,168,-139,-24,114,16,-60,-120,-167,-131
-206,-130,70,168,-139,-24,120,22,-54,-120,-167,-125
-206,-124,76,162,-145,-18,120,34,-42,-120,-161,-119
-206,-124,76,162,-145,-18,132,46,-30,-108,-155,-113
-206,-124,76,162,-145,-18,132,52,-30,-108,-155,-107
-206,-118,82,162,-145,-12,132,52,-36,-114,-161,-107
-206,-118,82,162,-145,-12,138,52,-36,-114,-161,-107
-206,-106,94,156,-151,0,138,46,-42,-120,-161,-107
-206,-106,94,156,-151,0,132,46,-36,-120,-161,-113
-206,-112,88,156,-151,-6,138,58,-30,-108,-167,-107
-206,-106,94,156,-151,0,144,58,-18,-102,-167,-95
-200,-112,82,156,-145,-12,156,76,-13,-90,-161,-89
-200,-118,76,156,-139,-18,162,76,-13,-84,-161,-89
-200,-112,82,156,-145,-12,156,70,-13,-90,-155,-95
-200,-106,88,150,-145,-6,156,76,-13,-90,-155,-89
-194,-88,100,138,-151,11,156,70,-13,-90,-149,-95
-194,-88,100,138,-151,11,156,70,-13,-90,-149,-107
-200,-88,106,144,-157,11,162,76,-1,-78,-143,-101
-200,-88,106,144,-157,11,162,88,5,-66,-137,-95
-194,-82,106,138,-151,11,174,106,17,-54,-137,-83
-194,-76,112,132,-157,11,180,112,29,-48,-137,-83
-188,-70,112,126,-151,11,180,106,29,-54,-137,-83
-188,-70,112,126,-151,11,180,106,29,-48,-143,-83
-182,-58,118,120,-151,23,186,100,23,-54,-149,-83
-176,-58,112,114,-145,17,186,100,29,-54,-155,-77
-182,-70,106,126,-145,11,186,112,41,-42,-149,-77
-188,-82,100,132,-145,11,192,118,41,-42,-149,-83
-194,-88,100,138,-151,11,192,130,47,-36,-143,-83
-200,-94,100,144,-151,6,198,142,59,-36,-143,-83
-200,-88,106,144,-157,11,192,142,65,-30,-143,-83
-200,-82,112,138,-157,11,198,142,71,-30,-143,-89
-194,-76,112,132,-157,11,198,148,77,-30,-149,-89
-194,-64,124,126,-163,23,198,148,83,-36,-149,-89
-194,-64,124,126,-163,23,210,154,89,-30,-143,-77
-194,-58,130,126,-163,29,210,160,95,-30,-137,-77
-194,-58,130,126,-163,29,216,160,107,-24,-131,-71
-194,-58,130,126,-163,29,216,166,113,-18,-125,-71
-194,-52,136,120,-169,35,222,172,125,-6,-125,-65
-194,-52,136,120,-169,35,228,178,131,-1,-119,-53
-194,-52,136,120,-169,35,234,202,149,-1,-119,-65
-194,-52,136,120,-169,35,234,208,155,-1,-113,-65
-194,-58,130,126,-163,29,246,220,161,5,-113,-65
-194,-52,136,120,-169,35,252,220,167,11,-107,-65
-194,-52,136,120,-169,35,264,226,179,17,-107,-71
-194,-40,148,114,-175,47,270,238,185,23,-101,-65
-188,-34,148,108,-169,47,270,250,197,29,-95,-71
-188,-34,148,108,-169,47,276,262,203,35,-95,-71
-182,-16,160,96,-175,65,276,262,209,35,-95,-77
-176,-16,154,96,-169,59,276,274,227,41,-95,-71
-182,-16,160,96,-175,65,288,298,233,53,-77,-59
-182,-16,160,96,-175,65,294,304,245,59,-77,-53
-188,2,184,90,-187,83,306,322,263,71,-71,-47
-188,8,190,90,-193,89,318,334,281,77,-65,-41
-188,2,184,90,-187,83,330,346,293,83,-71,-29
-188,2,184,90,-187,83,336,364,305,89,-65,-29
-188,-4,178,96,-187,77,348,376,317,89,-65,-23
-182,2,178,90,-181,83,354,388,329,95,-65,-23
-188,14,196,84,-193,95,366,400,341,107,-59,-29
-188,14,196,84,-193,95,372,412,359,119,-47,-23
-194,19,208,84,-205,107,372,424,371,137,-35,-29
-188,19,214,78,-199,113,372,424,383,143,-29,-29
-188,25,220,72,-205,119,384,448,401,155,-23,-23
-188,31,226,72,-205,125,384,466,413,161,-17,-17
-182,43,232,60,-205,137,390,472,431,179,-17,-17
-182,49,238,60,-211,143,390,484,443,185,-11,-5
-176,61,244,48,-211,149,390,502,455,185,1,1
-164,67,238,42,-199,149,390,514,461,197,7,7
-164,79,244,36,-205,161,396,526,473,197,12,25
-158,79,244,30,-199,161,396,538,479,203,12,30
-158,79,244,30,-199,161,402,544,485,215,18,30
-152,85,244,24,-199,161,402,544,491,221,18,30
-152,85,244,24,-199,161,408,556,503,239,36,30
-152,85,244,24,-199,161,402,562,515,251,48,30
-140,91,238,18,-187,161,390,562,521,245,48,30
-134,91,232,12,-181,161,390,562,521,251,54,30
-128,109,244,0,-187,173,384,556,527,251,54,30
-122,115,244,-6,-181,179,378,556,533,263,66,36
-122,127,250,-12,-187,191,366,550,533,263,66,36
-110,133,244,-18,-181,191,360,550,527,263,72,42
-104,139,244,-18,-175,191,336,538,527,275,72,36
-104,139,244,-18,-175,191,336,532,521,275,78,42
-92,139,238,-18,-163,185,318,526,515,281,90,54
-74,139,220,-23,-145,179,312,520,515,287,90,72
-62,133,202,-29,-133,167,300,508,509,299,102,78
-50,145,202,-41,-127,173,288,502,485,299,108,90
-44,151,202,-47,-121,173,276,484,473,293,108,90
-38,151,196,-47,-115,173,264,472,473,293,114,96
-32,157,196,-53,-115,173,252,466,461,293,108,96
-20,163,190,-65,-103,173,228,454,449,287,114,96
-8,157,172,-65,-91,161,216,430,425,281,120,108
-8,157,172,-65,-91,161,204,412,419,275,126,114
4,151,154,-71,-73,149,192,388,395,269,132,120
4,145,148,-65,-73,143,174,370,377,269,144,120
10,151,148,-71,-67,149,162,352,347,257,138,114
15,157,148,-77,-67,149,144,328,323,251,132,120
15,163,148,-83,-61,155,120,280,293,239,120,114
15,175,154,-95,-61,167,108,256,275,233,114,114
15,163,142,-89,-55,155,102,238,251,215,114,114
15,157,148,-77,-67,149,96,220,239,203,96,108
15,127,118,-65,-49,119,102,208,227,191,102,114
10,103,100,-47,-43,101,96,184,209,179,90,102
4,97,100,-41,-49,95,90,166,185,161,84,96
-2,85,94,-35,-49,89,84,142,161,149,72,78
-14,79,100,-23,-55,89,72,112,137,131,54,72
-20,67,94,-18,-55,77,60,94,119,113,36,60
-14,61,82,-18,-49,71,60,76,101,101,36,60
-32,55,94,-18,-61,71,54,70,89,89,24,48
-26,49,82,-18,-55,65,54,58,71,71,12,36
-32,43,82,-12,-55,59,54,40,53,59,12,30
-38,37,82,-6,-61,59,60,40,53,53,7,36
-44,31,82,0,-61,53,54,28,41,35,-5,30
-56,14,64,18,-61,29,60,28,35,29,-17,30
-56,2,52,24,-55,17,66,28,35,23,-23,30
-62,2,58,30,-61,23,60,22,23,17,-29,13
-62,2,58,30,-61,23,54,4,5,-1,-35,7
-62,-4,52,30,-61,17,48,-8,-13,-6,-53,-5
-74,-10,58,42,-67,17,42,-8,-13,-12,-53,-17
-68,-16,46,42,-61,11,36,-14,-13,-18,-65,-17
-68,-10,52,36,-61,11,36,-14,-13,-30,-65,-29
-62,-10,46,36,-55,11,36,-14,-13,-36,-77,-29
-62,-4,52,30,-61,17,42,-14,-13,-36,-77,-29
-68,-10,52,36,-61,11,42,-14,-18,-42,-77,-29
-68,-16,46,42,-61,11,42,-20,-18,-42,-83,-35
-74,-22,46,48,-61,11,36,-20,-18,-42,-89,-35
-74,-28,40,48,-61,11,36,-20,-24,-48,-89,-35
-80,-34,40,54,-61,6,30,-20,-30,-54,-83,-41
-86,-40,40,60,-67,6,30,-25,-30,-54,-95,-47
-86,-34,46,60,-67,11,30,-20,-36,-54,-89,-53
-86,-34,46,60,-67,11,36,-20,-36,-54,-89,-53
-80,-40,34,60,-61,0,42,-20,-36,-60,-101,-53
-80,-34,40,54,-61,6,42,-20,-36,-60,-101,-53
-74,-40,28,54,-55,0,48,-20,-36,-54,-107,-47
-68,-46,16,54,-43,-12,54,-20,-36,-54,-107,-47
-74,-46,22,60,-49,-6,54,-20,-36,-66,-107,-47
-74,-46,22,60,-49,-6,54,-20,-36,-66,-107,-47
-68,-46,16,54,-43,-12,48,-31,-36,-72,-107,-47
-68,-46,16,54,-43,-12,42,-31,-36,-72,-107,-47
-74,-40,28,54,-55,0,42,-37,-36,-72,-113,-53
-68,-34,28,48,-49,0,42,-37,-36,-72,-107,-53
-74,-28,40,48,-61,11,42,-31,-36,-72,-113,-59
-80,-28,46,54,-67,11,42,-31,-42,-72,-119,-59
-80,-28,46,54,-67,11,42,-25,-42,-72,-113,-53
-80,-34,40,54,-61,6,48,-20,-42,-72,-107,-53
-80,-40,34,60,-61,0,48,-20,-42,-72,-101,-47
-86,-40,40,60,-67,6,48,-20,-36,-72,-101,-47
-80,-34,40,54,-61,6,42,-25,-42,-72,-101,-41
-74,-34,34,54,-55,6,48,-25,-36,-72,-95,-41
-68,-40,22,54,-49,-6,42,-20,-42,-72,-95,-35
-74,-34,34,54,-55,6,36,-20,-42,-72,-95,-35
-80,-28,46,54,-67,11,36,-20,-42,-78,-101,-41
-80,-28,46,54,-67,11,42,-20,-42,-78,-101,-41
-86,-22,58,54,-73,11,42,-20,-36,-84,-107,-47
-86,-28,52,54,-73,11,42,-20,-36,-84,-107,-47
-86,-34,46,60,-67,11,42,-20,-30,-78,-101,-47
-80,-22,52,48,-67,11,42,-20,-30,-78,-101,-47
-80,-16,58,48,-73,11,42,-20,-24,-66,-95,-47
-92,-34,52,60,-73,11,42,-20,-13,-66,-95,-47
-86,-28,52,54,-73,11,42,-20,-18,-72,-101,-41
-80,-28,46,54,-67,11,42,-20,-18,-78,-101,-47
-74,-16,52,42,-67,11,36,-20,-24,-84,-107,-41
-68,-16,46,42,-61,11,36,-25,-24,-90,-107,-35
-74,-28,40,48,-61,11,42,-25,-18,-84,-107,-35
-74,-28,40,48,-61,11,42,-20,-18,-78,-107,-35
-80,-34,40,54,-61,6,48,-20,-13,-72,-119,-47
-86,-28,52,54,-73,11,54,-25,-18,-78,-119,-53
-86,-22,58,54,-73,11,48,-37,-18,-78,-113,-53
-86,-22,58,54,-73,11,48,-37,-18,-78,-113,-53
-86,-22,58,54,-73,11,42,-43,-13,-72,-107,-47
-86,-22,58,54,-73,11,42,-43,-13,-72,-107,-47
-92,-22,64,54,-79,11,42,-43,-18,-72,-101,-41
-92,-22,64,54,-79,11,42,-43,-18,-72,-101,-41
-86,-22,58,54,-73,11,48,-43,-24,-72,-95,-35
-86,-22,58,54,-73,11,48,-43,-24,-72,-95,-23
-86,-22,58,54,-73,11,54,-31,-24,-66,-95,-41
-86,-22,58,54,-73,11,54,-31,-24,-66,-95,-41
-86,-16,64,48,-79,17,54,-37,-24,-66,-95,-47
-86,-16,64,48,-79,17,54,-37,-24,-66,-95,-47
-80,-10,64,42,-73,17,48,-31,-24,-66,-95,-41
-86,-10,70,48,-79,23,48,-31,-24,-66,-95,-41
-80,-10,64,42,-73,17,42,-31,-24,-66,-95,-35
-80,-10,64,42,-73,17,42,-31,-30,-66,-101,-35
-80,-16,58,48,-73,11,42,-31,-30,-66,-107,-41
-86,-16,64,48,-79,17,42,-31,-30,-66,-107,-35
-86,-22,58,54,-73,11,42,-31,-24,-60,-113,-41
-80,-22,52,48,-67,11,36,-37,-24,-60,-113,-47
-80,-22,52,48,-67,11,42,-37,-24,-60,-107,-47
-80,-22,52,48,-67,11,42,-37,-30,-66,-107,-53
-80,-22,52,48,-67,11,48,-43,-24,-66,-101,-53
-80,-16,58,48,-73,11,42,-43,-24,-66,-101,-53
-86,-10,70,48,-79,23,42,-43,-30,-66,-101,-47
-86,-34,46,60,-67,11,42,-43,-30,-66,-101,-47
-86,-10,70,48,-79,23,42,-49,-36,-66,-101,-41
-86,-10,70,48,-79,23,48,-49,-36,-66,-101,-41
-86,-28,52,54,-73,11,48,-31,-36,-78,-89,-29
-74,-16,52,42,-67,11,36,-43,-36,-78,-101,-35
-68,-22,40,42,-55,11,36,-37,-36,-78,-101,-47
-92,-22,64,54,-79,11,48,-37,-24,-78,-89,-47
-98,-10,82,54,-91,29,42,-37,-18,-78,-89,-35
-92,-10,76,48,-85,23,36,-43,-24,-84,-95,-41
-92,-10,76,48,-85,23,36,-43,-30,-84,-101,-41
-86,-10,70,48,-79,23,30,-49,-36,-90,-107,-47
-86,-10,70,48,-79,23,30,-49,-42,-90,-113,-47
-86,-16,64,48,-79,17,36,-43,-42,-90,-107,-47
-86,-22,58,54,-73,11,36,-55,-48,-96,-113,-47
-80,-28,46,54,-67,11,42,-49,-48,-96,-107,-47
-80,-34,40,54,-61,6,42,-49,-48,-96,-107,-53
-80,-34,40,54,-61,6,42,-49,-48,-102,-107,-47
-86,-28,52,54,-73,11,42,-49,-48,-102,-107,-47
-86,-34,46,60,-67,11,42,-49,-48,-108,-107,-35
-80,-10,64,42,-73,17,36,-49,-54,-108,-107,-35
-74,-10,58,42,-67,17,36,-55,-54,-108,-107,-53
-74,-16,52,42,-67,11,36,-55,-54,-108,-107,-41
-68,-22,40,42,-55,11,36,-55,-54,-102,-101,-47
-68,-22,40,42,-55,11,36,-55,-54,-102,-95,-47
-68,-22,40,42,-55,11,36,-49,-54,-96,-95,-59
-68,-16,46,42,-61,11,36,-49,-54,-96,-95,-59
-68,-16,46,42,-61,11,36,-49,-60,-96,-101,-65
-74,-22,46,48,-61,11,36,-49,-60,-96,-101,-59
-80,-22,52,48,-67,11,36,-55,-54,-96,-107,-65
-68,-22,40,42,-55,11,36,-55,-54,-96,-113,-71
-86,-22,58,54,-73,11,36,-61,-60,-96,-119,-77
-86,-22,58,54,-73,11,36,-61,-60,-96,-131,-83
-74,-22,46,48,-61,11,42,-61,-60,-102,-131,-77
-74,-16,52,42,-67,11,42,-61,-60,-102,-131,-71
-68,-22,40,42,-55,11,48,-55,-60,-108,-125,-65
-62,-22,34,42,-49,11,48,-49,-54,-108,-125,-59
-62,-28,28,42,-49,6,42,-49,-54,-102,-113,-59
-56,-28,22,42,-43,0,42,-49,-54,-102,-113,-53
-56,-28,22,42,-43,0,36,-49,-54,-102,-107,-47
-56,-28,22,42,-43,0,36,-49,-48,-102,-107,-47
-50,-28,16,36,-37,0,42,-49,-42,-90,-107,-47
-56,-22,28,36,-43,6,42,-37,-36,-78,-101,-41
-50,-10,34,30,-43,11,54,-31,-13,-66,-95,-35
-50,8,52,18,-55,23,60,-25,-13,-60,-89,-29
-38,19,58,6,-49,35,54,-20,-13,-48,-83,-29
-26,25,58,-6,-43,41,54,-20,-13,-42,-77,-23
-8,43,58,-18,-31,47,54,-8,-1,-48,-77,-17
-2,49,58,-18,-31,53,66,4,11,-30,-65,-11
15,61,46,-35,-13,53,84,16,29,-12,-41,1
15,73,52,-41,-13,65,84,22,41,-6,-35,7
21,79,52,-47,-7,65,90,34,53,-1,-29,13
33,73,34,-53,4,53,90,34,65,11,-17,13
33,61,22,-47,4,41,90,40,71,17,-17,25
33,55,16,-41,4,35,84,46,71,23,-11,25
27,49,16,-35,4,35,90,52,77,29,-11,30
33,43,4,-35,10,23,90,58,77,29,-11,30
33,31,4,-29,16,11,72,46,65,17,-11,25
33,31,4,-29,16,11,66,46,59,17,-11,25
33,37,4,-35,10,17,54,40,53,11,-11,19
39,49,4,-41,10,29,42,34,53,11,-11,25
39,43,4,-41,16,23,36,16,35,-1,-17,19
27,31,4,-29,10,17,36,10,23,-1,-29,7
27,19,-7,-18,16,11,30,4,5,-12,-41,-5
27,14,-19,-18,22,0,30,-2,5,-12,-47,-5
21,19,-7,-18,10,6,30,-14,-7,-24,-53,-5
21,19,-7,-18,10,6,24,-20,-13,-30,-53,-17
21,19,-7,-18,10,6,18,-20,-13,-48,-59,-23
21,8,-19,-18,16,-6,18,-20,-13,-48,-71,-35
33,19,-19,-18,22,0,30,-20,-13,-60,-59,-35
33,14,-25,-18,28,-6,42,-20,-13,-60,-77,-29
15,14,4,-18,4,6,54,-20,-1,-48,-77,-29
-8,19,28,-12,-19,17,66,-20,5,-42,-77,-29
-2,19,22,-12,-13,17,96,-2,29,-36,-77,-29
-32,2,28,12,-31,11,138,34,59,-12,-59,-5
-68,-16,46,42,-61,11,180,40,89,-1,-47,1
-74,19,94,24,-85,53,210,40,107,-1,-47,-11
-74,37,118,12,-97,77,222,58,125,-1,-59,-23
-74,25,106,18,-91,65,228,94,143,11,-53,-23
-62,37,106,6,-85,71,222,112,161,23,-47,-17
-50,37,94,0,-73,65,222,136,173,41,-41,-17
-14,37,58,-18,-37,47,216,178,203,59,-29,-11
10,49,46,-23,-19,47,204,208,215,71,-11,7
15,49,34,-29,-7,41,162,220,227,71,-5,7
21,37,10,-29,4,23,132,250,245,95,7,7
45,25,-13,-35,28,11,84,268,251,95,12,13
63,25,-31,-41,46,6,60,310,281,113,24,19
81,55,-19,-65,52,11,72,364,335,149,36,30
87,85,4,-83,40,41,84,424,377,173,48,30
81,73,-1,-77,40,29,78,460,389,185,54,30
87,43,-37,-65,64,11,42,478,377,197,66,42
111,43,-61,-77,88,0,-18,460,311,173,54,42
129,67,-55,-95,94,11,-101,412,233,155,54,30
147,43,-97,-95,124,-18,-149,400,191,149,66,42
165,19,-145,-89,154,-60,-173,418,161,149,78,54
183,14,-175,-89,178,-78,-227,406,95,113,54,42
189,19,-169,-101,178,-72,-269,358,-13,59,42,30
189,-4,-199,-83,190,-102,-311,298,-108,35,42,42
207,-22,-235,-83,220,-126,-347,220,-192,17,54,66
231,-34,-265,-89,244,-150,-407,148,-282,-1,42,54
237,-46,-283,-89,256,-168,-431,82,-360,-1,54,36
249,-70,-319,-83,280,-198,-443,28,-378,-1,60,36
261,-64,-331,-95,292,-198,-473,-31,-396,11,84,48
291,-40,-337,-119,310,-192,-521,-133,-462,5,126,102
333,-40,-379,-143,352,-210,-593,-229,-546,-1,174,150
399,-28,-433,-179,412,-228,-737,-349,-672,-1,246,216
495,19,-469,-257,484,-222,-893,-511,-840,-24,306,276
597,115,-481,-353,538,-180,-1049,-703,-1008,-60,372,354
669,193,-475,-431,568,-138,-1253,-925,-1224,-90,480,492
789,265,-517,-527,658,-120,-1481,-1171,-1458,-108,594,630
915,337,-571,-623,742,-114,-1649,-1333,-1620,-120,720,762
1011,391,-619,-701,814,-108,-1757,-1423,-1710,-84,864,918
1125,487,-637,-803,880,-72,-1859,-1489,-1752,-24,1068,1086
1233,589,-643,-911,940,-18,-1925,-1513,-1734,23,1242,1260
1347,661,-685,-1001,1012,-6,-1925,-1465,-1662,95,1416,1410
1419,697,-721,-1055,1066,-6,-1913,-1369,-1548,173,1554,1512
1473,709,-757,-1085,1114,-18,-1865,-1291,-1428,281,1698,1608
1473,697,-769,-1079,1120,-30,-1775,-1201,-1260,425,1830,1704
1449,727,-721,-1085,1084,11,-1697,-1123,-1128,545,1932,1764
1407,745,-661,-1073,1030,35,-1601,-1063,-1032,587,1908,1740
1257,637,-619,-947,940,11,-1409,-967,-906,521,1704,1608
987,397,-589,-695,790,-90,-1121,-793,-756,347,1284,1302
741,193,-541,-467,640,-174,-857,-667,-660,89,774,912
549,115,-433,-329,490,-156,-683,-577,-612,-114,390,606
369,85,-277,-227,322,-90,-533,-505,-528,-180,204,414
201,19,-175,-107,190,-72,-383,-421,-426,-216,60,240
69,-34,-109,-18,88,-72,-257,-343,-342,-228,-53,78
10,-70,-73,30,34,-72,-155,-259,-264,-216,-119,-17
-20,-82,-55,48,10,-72,-101,-217,-210,-174,-113,-53
-14,-64,-43,36,4,-54,-83,-199,-186,-156,-125,-53
-14,-28,-7,18,-1,-18,-47,-175,-156,-156,-137,-53
-38,-46,-1,42,-13,-24,0,-103,-90,-108,-107,-29
-44,-82,-31,60,-1,-60,48,-25,-36,-66,-71,-23
-56,-76,-13,66,-19,-48,60,-20,-24,-60,-83,-29
-86,-46,34,66,-61,0,60,-20,-13,-72,-89,-53
-104,-58,40,78,-73,-6,66,-20,-13,-66,-95,-65
-104,-70,28,84,-67,-18,84,-20,-13,-66,-89,-65
-110,-70,34,90,-73,-12,90,-20,-13,-72,-107,-71
-116,-82,28,96,-73,-24,90,-20,-18,-78,-125,-77
-116,-94,16,102,-67,-36,96,-20,-13,-84,-131,-95
-128,-94,28,108,-79,-30,102,-20,-13,-90,-149,-101
-134,-88,40,108,-91,-18,108,-14,-7,-90,-161,-107
-140,-70,64,102,-103,0,126,-8,5,-84,-167,-119
-140,-70,64,102,-103,0,126,-2,11,-78,-167,-119
-152,-70,76,108,-115,6,138,10,29,-66,-167,-119
-158,-70,82,114,-121,11,138,16,35,-60,-161,-119
-152,-64,82,108,-121,11,138,16,35,-66,-155,-119
-140,-64,70,102,-109,6,144,22,35,-66,-155,-119
-134,-64,64,96,-103,6,144,22,35,-72,-149,-119
-134,-70,58,102,-97,0,150,16,35,-72,-155,-131
-134,-76,52,102,-97,-6,150,16,29,-66,-155,-131
-134,-70,58,102,-97,0,150,28,41,-66,-149,-125
-134,-76,52,102,-97,-6,156,34,41,-48,-143,-125
-134,-76,52,102,-97,-6,156,40,41,-48,-143,-119
-140,-70,64,102,-103,0,150,46,47,-48,-137,-113
-140,-64,70,102,-109,6,156,46,47,-48,-137,-113
-146,-52,88,96,-121,11,150,46,53,-48,-125,-107
-146,-46,94,96,-121,17,144,46,59,-48,-125,-113
-146,-52,88,96,-121,11,150,46,53,-42,-137,-113
-146,-52,88,96,-121,11,156,46,65,-42,-137,-101
-140,-58,76,96,-109,11,168,52,65,-36,-137,-101
-140,-70,64,102,-103,0,174,52,71,-36,-137,-101
-140,-70,64,102,-103,0,174,58,71,-36,-137,-107
-140,-64,70,102,-109,6,174,64,71,-36,-137,-101
-134,-52,76,90,-109,11,180,70,71,-30,-137,-107
-134,-52,76,90,-109,11,180,70,83,-30,-137,-119
-140,-64,70,102,-109,6,180,64,89,-24,-131,-113
-140,-64,70,102,-109,6,180,76,89,-18,-125,-107
-134,-70,58,102,-97,0,186,82,95,-12,-125,-95
-134,-64,64,96,-103,6,192,88,101,-12,-125,-95
-128,-58,64,90,-97,6,186,88,101,-12,-119,-95
-128,-52,70,90,-103,11,186,88,101,-6,-119,-95
-122,-40,76,78,-103,11,186,88,95,-6,-119,-95
-116,-34,76,72,-97,11,186,88,101,-6,-119,-89
-122,-40,76,78,-103,11,192,94,113,-1,-113,-83
-128,-40,82,84,-109,11,198,100,119,-1,-113,-89
-134,-40,88,84,-115,17,204,106,125,-1,-107,-83
-140,-34,100,84,-121,23,210,118,143,-1,-107,-83
-140,-34,100,84,-121,23,204,124,143,-1,-107,-89
-140,-34,100,84,-121,23,210,124,149,-1,-101,-95
-134,-34,94,84,-115,23,210,136,149,-1,-107,-101
-134,-28,100,78,-121,29,210,136,155,-1,-101,-101
-134,-28,100,78,-121,29,216,148,161,5,-107,-95
-134,-22,106,78,-121,35,216,154,167,5,-107,-95
-134,-22,106,78,-121,35,216,160,179,11,-113,-95
-134,-22,106,78,-121,35,216,166,185,17,-113,-95
-134,-10,118,72,-127,47,222,160,185,23,-107,-89
-134,-4,124,66,-133,53,228,166,191,29,-101,-77
-134,2,130,66,-133,59,234,178,197,29,-95,-89
-134,8,136,60,-139,65,234,184,203,35,-89,-89
-128,-4,118,66,-127,47,240,196,215,47,-83,-77
-128,-4,118,66,-127,47,246,202,221,53,-77,-77
-122,-10,106,66,-115,41,252,208,233,65,-71,-71
-122,-4,112,60,-121,47,258,220,239,71,-65,-65
-128,8,130,60,-133,59,258,226,251,71,-65,-71
-128,14,136,54,-133,65,264,238,257,77,-65,-71
-134,25,166,48,-151,95,264,238,263,71,-71,-77
-128,31,166,42,-145,95,264,250,281,77,-71,-71
-128,25,160,42,-145,89,276,262,287,83,-59,-71
-128,19,154,48,-139,83,288,268,293,89,-59,-71
-128,31,166,42,-145,95,300,274,305,95,-59,-77
-128,31,166,42,-145,95,318,286,317,101,-53,-77
-122,31,160,36,-139,95,318,292,329,119,-47,-65
-122,37,166,36,-145,101,324,310,341,125,-35,-65
-116,37,160,30,-139,95,324,316,353,137,-23,-59
-110,49,166,24,-139,107,330,328,365,143,-17,-59
-116,55,178,24,-145,113,342,340,371,149,-17,-53
-116,55,178,24,-145,113,348,352,389,161,-11,-41
-122,55,184,24,-151,119,348,364,395,173,-5,-35
-116,67,190,18,-151,125,348,364,407,179,-5,-29
-116,79,202,12,-157,137,360,376,419,179,1,-29
-116,91,214,6,-163,149,360,388,431,185,7,-23
-110,109,226,-6,-169,167,366,388,443,191,7,-29
-110,121,238,-12,-175,179,366,394,455,197,12,-17
-104,121,232,-18,-169,173,372,418,467,209,18,-17
-92,121,220,-18,-157,167,372,430,473,221,24,-17
-92,121,220,-18,-157,167,384,448,485,233,36,-5
-86,115,208,-18,-145,161,384,460,491,239,48,1
-86,127,220,-18,-151,173,384,466,497,245,54,7
-80,139,226,-23,-151,179,384,466,509,251,54,13
-80,151,238,-29,-157,191,384,484,521,269,72,19
-80,157,244,-29,-163,197,378,490,539,287,84,25
-68,157,232,-35,-151,191,366,496,539,281,84,30
-62,157,226,-41,-145,191,366,496,539,287,90,30
-56,169,232,-47,-145,197,360,496,539,287,90,36
-50,175,232,-53,-139,203,354,496,545,299,102,48
-50,181,238,-59,-145,209,348,496,545,305,108,48
-38,187,232,-65,-133,209,342,496,539,305,114,54
-32,187,226,-71,-127,203,324,490,539,323,120,48
-32,187,226,-71,-127,203,324,484,533,323,126,54
-26,193,226,-77,-127,209,306,484,533,323,138,66
-14,193,214,-83,-115,203,300,484,533,329,144,78
-8,193,208,-83,-109,197,288,478,533,335,156,84
-2,205,214,-95,-109,209,276,478,509,335,168,90
-2,211,220,-95,-109,215,264,466,497,329,168,90
4,211,214,-101,-103,209,252,454,491,329,168,96
4,217,220,-101,-109,215,240,442,479,329,162,96
15,223,214,-113,-97,215,216,430,473,323,162,96
15,211,196,-107,-85,203,204,412,449,323,168,102
15,205,190,-107,-85,197,192,394,443,317,168,108
15,193,172,-101,-73,185,180,376,419,317,174,108
15,181,160,-95,-67,173,162,358,401,317,180,108
15,181,160,-95,-67,173,150,346,371,311,186,114
15,181,160,-95,-67,173,138,328,353,305,186,120
15,181,160,-95,-67,173,114,286,323,293,186,126
15,187,166,-101,-67,179,108,268,311,287,186,126
21,187,160,-101,-61,173,96,238,275,263,174,120
15,187,172,-95,-73,179,84,220,263,245,156,114
15,169,148,-89,-61,161,84,196,239,233,150,114
15,151,136,-77,-55,143,72,172,221,215,138,102
10,133,130,-65,-61,131,72,172,203,197,120,90
4,115,118,-53,-55,113,72,154,185,185,108,72
-14,97,118,-35,-67,107,66,142,167,167,78,60
-20,79,106,-23,-61,89,60,130,155,149,60,48
-14,73,94,-23,-55,83,54,112,131,143,54,48
-32,67,106,-18,-67,83,48,106,119,131,42,36
-26,61,94,-18,-61,77,42,94,95,119,24,30
-32,55,94,-18,-61,71,42,76,77,107,18,30
-38,49,94,-12,-67,71,48,70,71,89,12,25
-44,43,94,-6,-67,65,42,58,59,71,12,7
-56,19,76,12,-67,41,48,52,47,53,7,-5
-56,14,64,18,-61,29,54,52,47,47,1,-5
-62,14,70,24,-67,35,48,52,41,53,-11,-23
-62,14,70,24,-67,35,48,34,29,41,-17,-29
-62,8,64,24,-67,29,42,28,17,35,-41,-41
-74,2,70,36,-73,29,42,28,17,35,-41,-53
-74,-10,58,42,-67,17,42,16,11,23,-53,-47
-74,-10,58,42,-67,17,42,16,5,11,-53,-59
-74,-16,52,42,-67,11,48,10,-1,-1,-65,-53
-74,-16,52,42,-67,11,54,10,-1,-1,-65,-53
-74,-16,52,42,-67,11,48,4,-13,-1,-59,-47
-74,-16,52,42,-67,11,48,-2,-13,-1,-65,-53
-74,-16,52,42,-67,11,36,-8,-13,-6,-65,-47
-74,-16,52,42,-67,11,36,-8,-13,-12,-65,-47
-74,-28,40,48,-61,11,36,-2,-13,-12,-59,-47
-80,-34,40,54,-61,6,36,-14,-13,-12,-65,-53
-74,-34,34,54,-55,6,42,4,-13,-6,-59,-53
-74,-34,34,54,-55,6,48,4,-13,-6,-53,-53
-80,-40,34,60,-61,0,42,-2,-13,-18,-65,-65
-86,-34,46,60,-67,11,36,-2,-13,-18,-71,-71
-92,-40,46,66,-73,6,30,-8,-13,-18,-77,-77
-92,-46,40,66,-67,0,30,4,-13,-18,-83,-83
-98,-40,52,66,-79,11,36,4,-13,-18,-83,-83
-98,-40,52,66,-79,11,36,-2,-13,-18,-83,-83
-92,-34,52,60,-73,11,36,-8,-13,-12,-83,-83
-92,-34,52,60,-73,11,30,-8,-13,-12,-83,-83
-86,-28,52,54,-73,11,30,-8,-13,-18,-83,-77
-80,-28,46,54,-67,11,30,-8,-13,-18,-77,-77
-74,-22,46,48,-61,11,30,4,-13,-24,-77,-71
-80,-28,46,54,-67,11,30,4,-18,-24,-83,-71
-86,-28,52,54,-73,11,24,10,-18,-24,-83,-65
-86,-34,46,60,-67,11,30,16,-18,-24,-83,-65
-92,-40,46,66,-73,6,24,16,-18,-24,-83,-59
-98,-40,52,66,-79,11,24,16,-13,-24,-89,-59
-98,-34,58,66,-79,11,24,10,-13,-30,-95,-65
-92,-34,52,60,-73,11,30,10,-13,-30,-95,-71
-92,-40,46,66,-73,6,30,22,-13,-36,-101,-77
-98,-34,58,66,-79,11,24,22,-13,-36,-107,-83
-92,-34,52,60,-73,11,24,10,-13,-30,-101,-83
-92,-34,52,60,-73,11,30,10,-13,-30,-101,-83
-86,-34,46,60,-67,11,30,4,-13,-24,-95,-83
-86,-40,40,60,-67,6,30,4,-13,-24,-95,-83
-92,-40,46,66,-73,6,30,4,-13,-24,-95,-83
-86,-28,52,54,-73,11,30,4,-13,-24,-95,-83
-92,-16,70,54,-85,17,30,4,-13,-18,-95,-83
-104,-34,64,66,-85,11,30,4,-13,-18,-95,-83
-98,-28,64,60,-85,11,36,-2,-13,-24,-95,-89
-98,-28,64,60,-85,11,36,-2,-13,-24,-95,-95
-92,-16,70,54,-85,17,36,-8,-13,-30,-95,-101
-92,-16,70,54,-85,17,36,-14,-13,-30,-95,-95
-98,-34,58,66,-79,11,42,-8,-13,-24,-83,-83
-92,-40,46,66,-73,6,36,4,-13,-18,-83,-83
-98,-52,40,72,-73,0,42,10,-13,-12,-83,-83
-98,-52,40,72,-73,0,42,-2,-13,-18,-83,-89
-104,-40,58,72,-85,11,36,-8,-13,-18,-89,-83
-104,-34,64,66,-85,11,36,-8,-13,-18,-89,-77
-110,-28,76,66,-97,17,30,-8,-13,-12,-95,-65
-110,-22,82,66,-97,23,30,-8,-13,-12,-95,-59
-110,-22,82,66,-97,23,30,-2,-13,-12,-89,-65
-110,-22,82,66,-97,23,30,-2,-13,-12,-89,-65
-98,-22,70,60,-85,17,36,4,-13,-12,-83,-71
-98,-22,70,60,-85,17,36,4,-13,-12,-83,-59
-98,-16,76,54,-91,23,36,10,-13,-12,-89,-65
-98,-16,76,54,-91,23,36,10,-13,-12,-89,-65
-98,-4,88,48,-97,35,30,-2,-13,-18,-95,-59
-98,-4,88,48,-97,35,30,-2,-13,-18,-95,-59
-98,-10,82,54,-91,29,30,16,-13,-18,-95,-65
-104,-10,88,54,-97,29,30,16,-13,-18,-95,-65
-104,-22,76,60,-91,17,30,28,-13,-18,-95,-71
-104,-22,76,60,-91,17,30,28,-18,-18,-101,-71
-98,-22,70,60,-85,17,36,28,-18,-18,-95,-71
-104,-22,76,60,-91,17,36,28,-18,-18,-95,-65
-98,-22,70,60,-85,17,42,28,-13,-12,-89,-65
-92,-22,64,54,-79,11,36,22,-13,-12,-89,-71
-98,-16,76,54,-91,23,36,22,-24,-18,-95,-77
-98,-16,76,54,-91,23,36,22,-30,-24,-101,-83
-104,-10,88,54,-97,29,36,16,-36,-30,-107,-89
-104,-4,94,54,-103,35,30,16,-36,-30,-113,-89
-104,-10,88,54,-97,29,36,22,-30,-30,-107,-83
-104,-34,64,66,-85,11,36,22,-30,-30,-107,-83
-98,-22,70,60,-85,17,42,22,-24,-30,-101,-77
-98,-22,70,60,-85,17,48,22,-24,-30,-101,-77
-98,-4,88,48,-97,35,36,4,-36,-30,-89,-65
-98,-16,76,54,-91,23,36,4,-24,-18,-89,-59
-98,-10,82,54,-91,29,30,-2,-30,-30,-101,-71
-98,-16,76,54,-91,23,30,-8,-30,-24,-95,-71
-98,-16,76,54,-91,23,30,-8,-30,-24,-95,-71
-98,-22,70,60,-85,17,30,-14,-30,-18,-89,-71
-98,-22,70,60,-85,17,30,-14,-30,-18,-89,-71
-98,-28,64,60,-85,11,36,-14,-30,-18,-95,-77
-98,-28,64,60,-85,11,36,-20,-36,-24,-101,-77
-92,-34,52,60,-73,11,42,-20,-36,-24,-107,-83
-92,-34,52,60,-73,11,42,-20,-36,-24,-107,-89
-92,-28,58,60,-79,11,36,-20,-42,-30,-107,-89
-98,-22,70,60,-85,17,36,-20,-42,-30,-107,-89
-98,-22,70,60,-85,17,30,-25,-48,-36,-107,-83
-92,2,88,42,-91,35,24,-25,-54,-36,-107,-83
-92,-4,82,48,-91,29,30,-25,-48,-42,-113,-89
-92,-16,70,54,-85,17,30,-25,-48,-42,-113,-77
-92,-28,58,60,-79,11,36,-20,-42,-42,-113,-71
-92,-34,52,60,-73,11,36,-20,-42,-42,-107,-71
-98,-40,52,66,-79,11,30,-20,-42,-48,-113,-83
-98,-40,52,66,-79,11,30,-20,-42,-48,-113,-83
-104,-46,52,72,-79,6,24,-25,-48,-60,-125,-89
-110,-58,46,84,-79,0,24,-25,-48,-60,-125,-83
-104,-52,46,78,-79,0,24,-31,-48,-60,-125,-83
-92,-52,34,72,-67,-6,24,-31,-48,-60,-125,-89
-98,-46,46,72,-73,6,24,-37,-60,-60,-125,-89
-98,-46,46,72,-73,6,24,-37,-60,-60,-131,-95
-98,-40,52,66,-79,11,24,-31,-54,-60,-125,-89
-98,-34,58,66,-79,11,24,-31,-54,-60,-125,-89
-104,-34,64,66,-85,11,24,-20,-48,-60,-113,-83
-98,-34,58,66,-79,11,24,-20,-42,-60,-113,-83
-98,-40,52,66,-79,11,24,-20,-48,-54,-107,-83
-92,-40,46,66,-73,6,24,-25,-48,-54,-107,-77
-92,-40,46,66,-73,6,24,-31,-54,-54,-107,-71
-92,-40,46,66,-73,6,24,-37,-48,-54,-107,-71
-80,-34,40,54,-61,6,30,-37,-42,-48,-113,-77
-80,-28,46,54,-67,11,30,-25,-36,-36,-107,-71
-68,-10,52,36,-61,11,42,-20,-13,-30,-107,-71
-62,8,64,24,-67,29,48,-20,-13,-24,-101,-65
-56,14,64,18,-61,29,48,-20,-7,-6,-89,-59
-50,19,64,12,-61,35,48,-14,-7,-1,-83,-53
-38,19,58,6,-49,35,54,-8,11,-1,-77,-41
-38,19,58,6,-49,35,66,4,23,5,-65,-35
-14,25,46,-12,-31,35,78,16,41,17,-47,-35
-8,37,52,-18,-31,41,78,22,47,17,-47,-29
-2,43,52,-18,-25,47,78,34,59,29,-47,-35
10,37,34,-18,-13,35,78,34,65,35,-41,-35
15,31,22,-18,-1,23,78,40,71,35,-41,-23
15,31,22,-18,-1,23,72,46,71,41,-35,-23
15,31,22,-18,-1,23,78,52,77,41,-35,-17
15,31,16,-18,4,23,78,58,77,41,-35,-17
15,19,10,-18,4,11,66,52,71,41,-35,-17
15,19,4,-18,4,11,60,52,65,41,-35,-17
10,19,16,-18,-1,17,54,52,65,47,-35,-17
15,25,16,-18,-1,17,42,46,65,47,-35,-11
15,19,10,-18,4,11,36,22,47,29,-35,-17
4,19,10,-12,-7,11,36,10,29,17,-47,-29
4,2,4,-6,4,0,30,-2,11,-1,-53,-41
4,-10,-7,0,4,-12,30,-14,5,-1,-59,-41
4,-16,-13,6,4,-18,30,-20,-1,-1,-65,-35
4,-16,-13,6,4,-18,24,-20,-7,-6,-65,-47
10,-28,-31,6,10,-30,18,-25,-13,-24,-71,-47
10,-40,-43,12,16,-42,18,-31,-13,-24,-83,-59
-2,-16,-7,6,4,-12,6,-31,-13,-24,-95,-59
-2,-10,-1,6,4,-6,30,-20,17,-1,-77,-41
-8,-10,4,6,-1,-6,54,-20,23,-1,-65,-41
-20,2,16,6,-19,11,66,-20,29,-1,-77,-41
-38,2,34,18,-37,11,96,-14,53,-1,-65,-29
-56,-10,40,30,-49,11,138,10,95,23,-47,-29
-80,8,82,36,-85,35,168,4,101,23,-71,-47
-86,25,118,24,-103,71,186,4,95,17,-95,-59
-86,19,106,30,-97,59,204,46,125,41,-83,-59
-110,19,130,42,-121,71,210,70,143,47,-65,-59
-98,19,118,36,-109,65,204,88,161,47,-71,-53
-74,19,94,24,-85,53,204,124,185,65,-65,-41
-62,19,82,18,-73,47,198,166,203,83,-53,-35
-50,14,58,18,-55,29,180,184,215,95,-35,-29
-26,14,34,6,-31,17,150,202,227,107,-29,-17
-2,19,22,-12,-13,17,96,220,245,107,-17,-17
15,19,4,-18,4,11,60,244,263,119,-17,-23
27,19,-7,-18,16,11,60,298,305,137,1,-5
45,19,-19,-29,34,6,72,364,359,173,12,19
39,37,4,-35,16,17,72,424,389,197,24,19
45,25,-13,-35,28,11,42,448,389,209,30,19
51,19,-25,-35,40,6,-6,448,353,197,30,30
75,19,-49,-47,64,-6,-41,436,311,197,54,30
81,8,-79,-35,76,-36,-113,400,245,191,66,48
99,19,-85,-53,88,-30,-173,364,179,161,54,42
153,25,-121,-89,136,-42,-221,346,125,149,42,30
171,2,-175,-77,172,-84,-263,334,47,113,42,30
177,-10,-193,-77,184,-102,-329,262,-84,59,18,30
189,-28,-223,-71,202,-126,-383,184,-192,23,12,19
183,-46,-235,-59,208,-138,-431,106,-270,5,12,19
171,-46,-223,-53,196,-132,-467,16,-366,-6,12,30
177,-58,-235,-53,208,-150,-491,-49,-408,-18,18,30
213,-58,-271,-71,244,-168,-509,-115,-414,-1,36,36
231,-52,-283,-83,250,-168,-539,-199,-456,-1,48,48
249,-40,-289,-95,262,-168,-605,-307,-528,-6,66,66
309,-16,-331,-143,316,-174,-713,-427,-654,-24,114,114
399,-28,-433,-179,412,-228,-851,-571,-798,-36,186,192
495,-16,-511,-233,496,-264,-1007,-739,-972,-60,258,270
573,55,-511,-311,544,-228,-1217,-949,-1188,-120,324,354
669,169,-493,-419,580,-162,-1421,-1183,-1398,-162,432,480
765,259,-505,-509,640,-120,-1607,-1381,-1584,-192,534,606
867,325,-535,-593,706,-102,-1739,-1507,-1722,-204,648,714
969,379,-583,-671,772,-96,-1841,-1609,-1800,-192,780,846
1065,475,-589,-767,826,-54,-1919,-1681,-1836,-156,930,996
1167,589,-571,-875,868,11,-1961,-1705,-1818,-96,1068,1146
1263,625,-637,-947,952,0,-1949,-1603,-1716,-1,1230,1278
1347,625,-721,-989,1030,-42,-1901,-1495,-1572,101,1368,1398
1401,637,-757,-1013,1078,-54,-1853,-1411,-1440,227,1482,1482
1413,661,-745,-1031,1078,-36,-1787,-1303,-1296,353,1620,1548
1401,691,-709,-1043,1054,0,-1697,-1195,-1140,467,1728,1626
1347,697,-649,-1019,994,17,-1589,-1111,-1020,539,1764,1638
1215,649,-559,-929,886,41,-1421,-1021,-918,485,1596,1512
969,469,-493,-719,736,-6,-1169,-877,-780,311,1194,1212
729,205,-517,-467,622,-156,-905,-739,-672,65,708,852
537,55,-481,-293,508,-210,-707,-649,-612,-126,330,558
369,49,-313,-209,340,-126,-557,-577,-540,-192,120,366
201,19,-187,-101,190,-84,-407,-493,-450,-216,1,216
69,-58,-133,-12,100,-96,-287,-415,-366,-228,-113,66
-14,-106,-85,60,28,-96,-191,-331,-288,-204,-167,-41
-56,-94,-31,72,-7,-66,-113,-259,-222,-162,-161,-89
-62,-76,-7,66,-25,-42,-83,-223,-186,-144,-149,-89
-62,-76,-7,66,-25,-42,-47,-187,-168,-132,-161,-77
-74,-70,4,72,-37,-30,-24,-139,-126,-120,-155,-89
-92,-70,16,78,-55,-24,12,-85,-72,-90,-143,-83
-116,-64,46,90,-85,-6,36,-73,-48,-72,-143,-77
-122,-70,46,96,-85,-6,36,-61,-48,-72,-173,-89
-128,-70,52,96,-91,-6,42,-73,-42,-66,-179,-89
-152,-70,76,108,-115,6,60,-67,-42,-66,-173,-89
-146,-58,82,102,-115,11,66,-67,-36,-72,-179,-95
-152,-76,70,114,-115,0,72,-67,-42,-78,-191,-101
-158,-88,64,120,-115,-6,84,-67,-30,-84,-191,-119
-170,-94,70,132,-121,-6,96,-55,-24,-90,-203,-125
-182,-88,88,132,-139,6,108,-49,-18,-90,-209,-131
-176,-82,88,126,-133,6,120,-43,-13,-90,-215,-149
-176,-82,88,126,-133,6,120,-37,-13,-84,-215,-149
-176,-94,76,132,-127,-6,126,-25,-7,-78,-215,-155
-182,-94,82,138,-133,0,126,-20,-1,-72,-209,-155
-176,-76,94,126,-139,11,126,-25,-7,-66,-209,-149
-164,-70,88,114,-127,11,132,-20,-7,-66,-209,-143
-158,-58,94,108,-127,11,132,-25,-13,-60,-209,-137
-158,-58,94,108,-127,11,138,-31,-13,-60,-215,-143
-158,-64,88,108,-127,11,138,-31,-7,-60,-209,-143
-158,-64,88,108,-127,11,138,-20,5,-60,-203,-137
-158,-70,82,114,-121,11,144,-20,17,-48,-191,-137
-158,-76,76,114,-121,6,144,-20,17,-48,-191,-131
-158,-70,82,114,-121,11,144,-8,17,-54,-197,-137
-158,-70,82,114,-121,11,150,-8,17,-54,-197,-137
-158,-58,94,108,-127,11,150,-2,17,-60,-197,-143
-158,-58,94,108,-127,11,144,-2,23,-60,-197,-149
-152,-52,94,102,-127,11,150,10,23,-54,-197,-155
-152,-46,100,96,-127,17,156,10,35,-54,-197,-143
-140,-40,94,90,-121,17,168,28,41,-48,-185,-149
-140,-46,88,90,-115,11,174,28,47,-48,-185,-149
-140,-52,82,96,-115,11,168,28,53,-48,-185,-143
-140,-46,88,90,-115,11,168,34,53,-48,-185,-137
-134,-40,88,84,-115,17,168,34,59,-42,-185,-131
-134,-40,88,84,-115,17,168,34,71,-42,-185,-143
-140,-40,94,90,-121,17,168,28,71,-36,-185,-137
-140,-34,100,84,-121,23,168,40,71,-30,-179,-131
-134,-28,100,78,-121,29,174,46,71,-24,-185,-119
-134,-16,112,72,-127,41,180,52,77,-24,-185,-119
-134,-22,106,78,-121,35,180,58,89,-18,-179,-119
-134,-22,106,78,-121,35,180,58,89,-12,-179,-125
-134,-22,106,78,-121,35,186,64,95,-6,-179,-125
-128,-22,100,72,-115,29,186,64,101,-6,-179,-125
-128,-16,106,72,-121,35,192,70,113,-6,-179,-119
-128,-16,106,72,-121,35,198,76,113,-6,-179,-125
-128,-4,118,66,-127,47,204,82,119,-12,-179,-119
-128,2,124,60,-127,53,210,94,131,-12,-179,-119
-128,2,124,60,-127,53,204,94,131,-1,-167,-113
-128,2,124,60,-127,53,210,94,137,-1,-161,-113
-122,2,118,60,-121,53,210,100,137,-1,-155,-107
-122,8,124,54,-127,59,210,100,143,-1,-149,-101
-122,8,124,54,-127,59,216,112,149,5,-143,-95
-122,14,130,54,-127,65,216,118,155,5,-143,-95
-122,14,130,54,-127,65,216,124,167,11,-137,-95
-122,14,130,54,-127,65,216,130,173,17,-137,-95
-122,19,142,48,-133,77,228,130,185,23,-143,-95
-122,19,142,48,-133,77,234,136,191,29,-137,-89
-122,19,148,42,-133,83,246,154,209,29,-143,-107
-122,19,148,42,-133,83,246,160,215,35,-137,-113
-116,19,136,42,-127,71,252,172,221,35,-137,-101
-116,19,142,42,-127,77,258,178,227,41,-131,-101
-110,19,136,36,-121,77,264,184,233,41,-131,-95
-110,31,148,30,-127,89,270,196,239,47,-125,-89
-110,31,148,30,-127,89,276,208,257,59,-119,-89
-110,31,148,30,-127,89,282,220,263,65,-119,-89
-110,43,160,24,-133,101,288,220,275,71,-119,-89
-104,43,154,24,-127,95,288,226,293,77,-119,-83
-110,49,166,24,-139,107,300,250,305,89,-107,-83
-110,55,172,18,-139,113,306,256,311,95,-107,-83
-116,79,202,12,-157,137,318,274,329,107,-107,-89
-116,91,214,6,-163,149,330,286,341,113,-101,-89
-110,85,202,6,-157,143,330,292,353,119,-101,-77
-110,85,202,6,-157,143,336,310,365,125,-89,-77
-104,79,190,6,-145,131,336,316,377,125,-83,-71
-98,85,190,0,-145,137,342,328,389,131,-77,-71
-104,91,202,0,-151,143,360,340,401,143,-71,-65
-104,91,202,0,-151,143,366,352,419,155,-65,-53
-110,91,208,0,-157,149,372,364,431,173,-53,-47
-104,103,214,-6,-157,155,372,364,443,179,-53,-41
-98,115,220,-18,-157,167,384,388,449,185,-41,-41
-98,121,226,-18,-163,173,384,400,461,191,-35,-35
-86,139,232,-18,-157,185,390,412,467,203,-29,-41
-86,145,238,-23,-163,191,390,418,473,209,-23,-29
-86,151,244,-23,-163,197,390,430,485,215,-17,-29
-74,157,238,-35,-157,197,390,442,491,227,-11,-29
-80,163,244,-35,-163,203,396,448,509,233,-11,-17
-74,163,244,-35,-157,203,396,460,515,239,1,-11
-68,175,244,-47,-157,209,396,466,521,239,7,1
-62,187,250,-53,-157,221,396,466,527,245,7,7
-56,199,256,-65,-157,227,396,472,539,257,12,19
-56,205,262,-65,-163,233,390,478,551,275,24,25
-44,199,244,-71,-145,221,384,490,563,281,30,25
-38,199,244,-71,-139,221,390,490,563,287,36,30
-32,205,244,-77,-139,221,390,496,575,299,42,30
-26,211,244,-83,-133,227,390,496,581,311,54,36
-32,223,256,-89,-145,239,378,490,575,311,54,36
-20,229,250,-95,-139,239,372,490,569,311,60,42
-20,235,256,-101,-139,245,348,478,563,323,60,36
-20,235,256,-101,-139,245,348,472,557,323,66,42
-14,247,262,-107,-139,251,330,466,551,317,72,54
-2,247,250,-113,-127,251,324,460,551,323,72,72
4,253,250,-119,-127,251,312,442,545,323,78,78
10,259,256,-131,-127,257,300,436,521,323,84,90
15,259,244,-131,-109,251,288,418,515,323,96,96
15,259,238,-137,-103,251,276,406,509,323,102,102
27,253,220,-137,-91,239,264,394,503,329,108,108
39,259,214,-149,-79,239,240,382,491,323,114,108
45,259,208,-149,-73,233,216,358,467,317,120,108
45,259,208,-149,-73,233,210,340,461,311,120,114
51,259,202,-155,-67,233,192,316,431,305,126,108
51,253,196,-149,-67,227,174,298,413,305,132,108
57,253,190,-155,-61,221,162,280,383,293,126,108
57,247,184,-149,-55,215,150,262,365,287,126,114
63,247,178,-155,-49,215,126,220,335,269,114,114
63,247,178,-155,-49,215,120,202,323,263,114,114
57,241,178,-149,-55,209,114,184,293,245,108,102
45,241,190,-143,-67,215,102,160,281,239,90,96
39,217,172,-125,-61,197,108,148,263,227,90,90
33,199,160,-113,-55,179,96,124,239,215,78,78
33,193,154,-113,-55,173,90,112,221,191,72,72
27,181,148,-101,-55,167,90,88,203,179,60,60
21,175,148,-95,-55,161,78,64,179,155,42,54
15,163,142,-89,-55,155,72,46,167,137,24,48
15,145,124,-77,-49,137,78,34,149,125,18,42
10,133,130,-65,-61,131,72,28,137,113,12,30
10,115,112,-53,-49,113,78,22,119,95,1,25
4,103,106,-47,-49,101,78,4,101,83,-5,19
-2,103,112,-41,-55,107,72,-2,95,71,-17,19
-8,97,112,-35,-61,101,66,-14,83,53,-29,1
-20,73,100,-18,-61,83,60,-20,71,41,-41,-5
-20,61,88,-18,-55,71,66,-20,71,35,-47,-5
-26,61,94,-18,-61,77,60,-20,59,29,-59,-17
-26,61,94,-18,-61,77,60,-31,41,17,-65,-23
-26,55,88,-18,-55,71,54,-43,23,-1,-89,-29
-38,49,94,-12,-67,71,54,-43,17,-1,-89,-41
-38,43,88,-12,-61,65,48,-55,11,-1,-101,-47
-38,43,88,-12,-61,65,48,-55,5,-12,-101,-59
-38,43,88,-12,-61,65,48,-61,-1,-24,-113,-65
-38,43,88,-12,-61,65,54,-61,-1,-24,-113,-65
-44,43,94,-6,-67,65,54,-61,-1,-24,-107,-59
-44,43,94,-6,-67,65,54,-67,-1,-24,-113,-65
-50,43,100,-6,-73,71,48,-67,5,-18,-113,-59
-50,43,100,-6,-73,71,48,-67,-1,-24,-113,-59
-50,31,88,0,-67,59,42,-61,-7,-30,-107,-53
-56,25,88,6,-73,53,42,-73,-7,-30,-119,-59
-50,25,82,6,-67,53,42,-55,-13,-30,-113,-53
-50,25,82,6,-67,53,48,-55,-13,-30,-113,-53
-44,19,70,6,-55,41,54,-61,-13,-42,-113,-59
-50,19,76,6,-61,47,48,-61,-13,-42,-113,-59
-44,19,64,6,-55,35,54,-67,-13,-42,-107,-59
-44,14,52,12,-49,23,54,-55,-13,-42,-107,-59
-50,19,64,12,-61,35,54,-55,-13,-48,-113,-59
-50,19,64,12,-61,35,54,-61,-13,-48,-113,-59
-44,19,64,6,-55,35,48,-67,-13,-48,-119,-59
-44,19,64,6,-55,35,42,-67,-13,-48,-119,-59
-44,19,64,6,-55,35,42,-79,-18,-54,-125,-65
-38,19,58,6,-49,35,42,-79,-18,-54,-125,-71
-38,19,58,6,-49,35,42,-79,-24,-60,-131,-77
-44,19,58,12,-55,29,42,-79,-30,-60,-143,-83
-44,19,58,12,-55,29,48,-79,-24,-60,-137,-77
-44,14,52,12,-49,23,54,-73,-24,-60,-137,-77
-44,8,46,18,-49,17,60,-79,-18,-60,-131,-71
-50,8,52,18,-55,23,60,-79,-13,-60,-137,-71
-50,14,58,18,-55,29,54,-79,-18,-54,-137,-65
-44,14,52,12,-49,23,60,-79,-13,-54,-131,-65
-44,8,46,18,-49,17,54,-61,-18,-48,-131,-59
-50,14,58,18,-55,29,48,-61,-18,-48,-131,-59
-50,19,64,12,-61,35,48,-67,-18,-54,-131,-65
-50,19,64,12,-61,35,54,-67,-18,-54,-131,-65
-50,19,70,12,-61,41,54,-67,-13,-60,-131,-71
-50,19,64,12,-61,35,54,-67,-13,-60,-131,-71
-50,19,64,12,-61,35,54,-73,-13,-60,-131,-71
-44,19,70,6,-55,41,54,-73,-13,-60,-131,-71
-44,31,82,0,-61,53,54,-79,-13,-54,-131,-71
-56,19,76,12,-67,41,54,-79,-13,-54,-131,-71
-56,19,76,12,-67,41,60,-73,-13,-54,-131,-65
-56,19,76,12,-67,41,60,-67,-13,-54,-131,-71
-56,19,82,12,-67,47,60,-61,-13,-54,-131,-65
-56,19,82,12,-67,47,60,-61,-13,-54,-131,-59
-56,19,82,12,-67,47,60,-67,-13,-54,-125,-53
-50,19,76,6,-61,47,54,-55,-13,-48,-125,-53
-50,25,82,6,-67,53,54,-61,-13,-48,-131,-59
-50,31,88,0,-67,59,54,-73,-13,-54,-131,-65
-56,31,94,6,-73,59,60,-73,-13,-54,-131,-65
-56,31,94,6,-73,59,60,-67,-13,-54,-131,-65
-62,25,94,12,-79,59,66,-61,-13,-48,-131,-59
-62,25,94,12,-79,59,66,-55,-13,-48,-131,-59
-68,25,100,12,-85,59,60,-61,-7,-42,-125,-59
-68,25,100,12,-85,59,60,-61,-7,-42,-125,-59
-62,25,94,12,-79,59,60,-67,-1,-36,-119,-59
-62,25,94,12,-79,59,60,-67,-1,-36,-119,-47
-56,25,88,6,-73,53,66,-61,-7,-36,-125,-65
-56,25,88,6,-73,53,66,-61,-7,-36,-125,-65
-50,31,88,0,-67,59,66,-73,-13,-42,-131,-71
-50,31,88,0,-67,59,66,-73,-13,-42,-131,-71
-50,37,94,0,-73,65,66,-67,-13,-42,-125,-71
-56,37,100,0,-79,65,66,-67,-13,-42,-125,-71
-56,37,100,0,-79,65,66,-67,-13,-42,-119,-71
-56,37,100,0,-79,65,66,-67,-13,-42,-125,-71
-56,31,94,6,-73,59,72,-61,-13,-42,-125,-65
-62,31,100,6,-79,65,72,-61,-13,-42,-125,-59
-62,25,94,12,-79,59,78,-55,-1,-36,-125,-53
-56,25,88,6,-73,53,72,-61,-1,-36,-125,-59
-62,25,94,12,-79,59,66,-61,-7,-42,-131,-59
-62,25,94,12,-79,59,66,-61,-13,-48,-131,-65
-68,25,100,12,-85,59,60,-67,-13,-54,-137,-65
-68,31,106,12,-85,65,54,-67,-13,-54,-137,-65
-68,31,106,12,-85,65,54,-67,-13,-54,-131,-65
-68,19,82,24,-79,41,54,-67,-13,-54,-131,-65
-62,25,94,12,-79,59,54,-73,-18,-54,-125,-65
-62,25,94,12,-79,59,60,-73,-24,-54,-125,-65
-62,31,100,6,-79,65,66,-61,-18,-48,-125,-59
-62,31,100,6,-79,65,66,-61,-13,-48,-125,-65
-68,25,100,12,-85,59,72,-61,-13,-42,-125,-59
-68,25,100,12,-85,59,72,-61,-13,-42,-125,-59
-62,25,94,12,-79,59,72,-55,-13,-42,-119,-53
-62,19,88,12,-73,53,72,-55,-13,-42,-119,-53
-56,19,82,12,-67,47,72,-55,-13,-48,-113,-47
-56,25,88,6,-73,53,72,-55,-13,-48,-119,-47
-56,14,64,18,-61,29,96,-43,-7,-36,-119,-47
-56,14,64,18,-61,29,90,-49,-7,-48,-131,-47
-68,19,82,24,-79,41,66,-61,-13,-42,-143,-59
-62,19,82,18,-73,47,54,-61,-18,-54,-137,-71
-56,19,76,12,-67,41,54,-61,-18,-54,-131,-65
-56,19,76,12,-67,41,54,-61,-18,-54,-131,-59
-50,19,70,12,-61,41,54,-61,-18,-54,-125,-53
-50,19,70,12,-61,41,54,-61,-18,-54,-125,-47
-50,19,70,12,-61,41,54,-61,-18,-60,-131,-53
-50,19,70,12,-61,41,54,-73,-24,-66,-137,-53
-44,19,64,6,-55,35,54,-73,-24,-72,-143,-59
-44,19,64,6,-55,35,54,-73,-24,-72,-143,-65
-50,19,64,12,-61,35,54,-73,-30,-72,-143,-71
-56,19,70,18,-67,35,54,-73,-30,-72,-143,-71
-62,8,64,24,-67,29,54,-73,-36,-72,-143,-71
-56,19,76,12,-67,41,48,-73,-42,-72,-143,-71
-50,19,76,6,-61,47,42,-79,-42,-78,-149,-83
-50,19,70,12,-61,41,42,-79,-42,-78,-149,-71
-44,19,64,6,-55,35,36,-79,-42,-78,-149,-71
-44,19,64,6,-55,35,36,-79,-42,-78,-143,-71
-50,19,76,6,-61,47,42,-79,-36,-78,-143,-71
-50,25,82,6,-67,53,42,-79,-36,-78,-143,-71
-56,31,94,6,-73,59,48,-85,-36,-84,-149,-65
-62,25,94,12,-79,59,48,-85,-36,-84,-149,-59
-56,19,76,12,-67,41,54,-85,-30,-78,-143,-53
-44,19,58,12,-55,29,54,-85,-30,-78,-143,-53
-50,8,52,18,-55,23,60,-85,-36,-72,-137,-47
-50,2,46,24,-49,17,60,-85,-36,-72,-143,-47
-44,14,52,12,-49,23,54,-79,-30,-72,-143,-53
-44,19,58,12,-55,29,54,-73,-30,-72,-143,-53
-44,19,64,6,-55,35,48,-61,-24,-72,-137,-59
-38,19,58,6,-49,35,48,-49,-18,-72,-137,-59
-44,19,58,12,-55,29,54,-55,-24,-72,-137,-65
-38,19,52,6,-49,29,54,-55,-24,-72,-137,-59
-44,19,58,12,-55,29,60,-61,-30,-78,-143,-59
-44,19,58,12,-55,29,60,-61,-24,-78,-143,-59
-26,25,58,-6,-43,41,60,-61,-24,-78,-143,-65
-20,37,64,-18,-43,47,60,-49,-18,-66,-137,-59
-2,67,76,-23,-37,71,66,-43,-13,-66,-131,-59
10,91,88,-41,-37,89,72,-37,-13,-60,-125,-53
15,109,100,-53,-43,101,72,-25,11,-36,-107,-35
15,121,106,-65,-43,113,72,-20,17,-24,-95,-23
21,139,112,-77,-37,125,78,-20,41,-18,-83,1
21,145,118,-83,-43,131,90,-8,59,-1,-65,13
33,145,106,-89,-31,125,96,-2,65,-1,-53,13
39,151,106,-95,-25,131,96,4,71,-1,-59,19
33,145,106,-89,-31,125,90,10,71,-1,-65,13
45,133,82,-89,-13,107,90,10,77,-1,-65,13
57,115,52,-83,4,83,72,4,71,-1,-59,19
57,109,46,-83,4,77,60,4,65,5,-53,19
63,97,28,-77,10,65,48,-2,59,5,-47,19
69,91,16,-77,22,53,42,-2,53,5,-47,19
69,73,4,-71,28,35,36,-8,41,-1,-47,13
69,67,4,-65,34,29,30,-8,35,-1,-47,13
69,67,4,-65,34,29,30,-8,29,-1,-47,7
75,73,4,-71,34,35,18,-14,29,-1,-47,13
69,73,4,-71,28,35,24,-20,17,-18,-47,13
57,61,4,-59,22,29,24,-20,5,-30,-59,1
51,49,4,-47,22,23,30,-20,-7,-48,-65,-5
51,37,-7,-41,28,11,30,-25,-7,-48,-71,-5
51,37,-7,-41,28,11,36,-37,-7,-54,-77,-11
51,37,-7,-41,28,11,36,-37,-13,-60,-77,-23
57,31,-19,-41,40,11,36,-43,-13,-72,-83,-35
57,19,-31,-35,46,0,42,-43,-13,-72,-95,-47
33,31,4,-29,16,11,54,-43,-1,-60,-83,-35
33,37,4,-35,10,17,66,-31,5,-60,-77,-29
39,73,28,-53,4,53,78,-31,23,-60,-89,-17
27,97,64,-59,-13,83,90,-31,29,-66,-89,-29
10,61,58,-29,-25,59,120,-20,53,-48,-77,-29
-20,25,52,-12,-37,35,174,10,83,-24,-59,-17
-44,55,106,-12,-73,77,222,28,113,-1,-47,-23
-50,73,130,-18,-91,101,252,40,143,-6,-59,-35
-50,61,118,-12,-85,89,246,58,149,-1,-59,-35
-26,61,94,-18,-61,77,240,94,167,-1,-53,-23
-14,73,94,-23,-55,83,222,136,185,23,-35,-17
-2,85,94,-35,-49,89,204,160,197,29,-29,-17
15,73,58,-41,-19,65,174,202,215,35,-17,-11
33,73,34,-53,4,53,156,226,233,59,1,7
45,85,34,-65,4,59,90,232,227,59,-5,7
69,73,4,-71,28,35,36,250,233,47,7,7
117,73,-37,-95,76,11,24,304,275,83,18,25
135,97,-31,-113,82,29,36,382,329,137,48,30
129,103,-19,-113,76,35,36,436,371,161,60,30
123,97,-19,-107,70,35,24,466,377,161,72,30
129,85,-37,-107,82,17,-6,466,341,161,66,30
159,91,-61,-125,112,11,-65,436,281,137,54,42
171,91,-73,-131,124,11,-137,388,221,125,54,42
165,91,-67,-125,118,11,-197,352,155,107,54,48
183,91,-85,-137,136,11,-245,340,95,89,54,42
213,73,-133,-143,172,-24,-287,322,29,77,54,42
231,37,-187,-131,208,-66,-317,274,-48,41,54,54
225,37,-181,-131,202,-66,-377,172,-156,-1,42,54
225,31,-187,-125,208,-72,-419,64,-252,-24,30,54
243,19,-223,-125,232,-96,-467,-37,-342,-54,18,54
243,14,-235,-119,238,-108,-491,-139,-426,-90,18,54
249,-10,-259,-113,250,-138,-509,-205,-456,-102,30,60
267,-34,-307,-113,286,-174,-533,-265,-474,-90,36,60
297,8,-295,-149,292,-144,-575,-349,-522,-108,36,60
339,31,-301,-185,322,-132,-665,-439,-612,-126,66,78
405,43,-355,-227,382,-150,-791,-553,-744,-132,114,138
513,55,-457,-281,490,-198,-959,-727,-894,-156,186,192
621,103,-511,-359,568,-204,-1115,-901,-1062,-180,258,288
729,211,-511,-467,622,-150,-1307,-1135,-1254,-204,372,438
819,283,-529,-551,676,-120,-1523,-1381,-1470,-240,480,582
933,337,-589,-635,760,-120,-1691,-1567,-1644,-270,582,702
1053,433,-619,-743,838,-90,-1811,-1687,-1758,-282,696,816
1167,541,-619,-851,892,-30,-1913,-1771,-1824,-240,840,966
1287,625,-661,-959,976,-12,-1967,-1795,-1824,-192,996,1110
1401,685,-715,-1037,1054,-6,-1979,-1723,-1758,-132,1128,1230
1497,709,-787,-1103,1144,-36,-1973,-1615,-1650,-48,1248,1338
1557,721,-835,-1139,1198,-54,-1937,-1519,-1500,65,1392,1434
1587,751,-829,-1169,1210,-30,-1865,-1411,-1344,215,1542,1524
1575,763,-805,-1169,1192,-12,-1775,-1303,-1182,353,1680,1608
1527,757,-763,-1145,1150,6,-1673,-1207,-1044,443,1728,1638
1419,733,-685,-1073,1048,17,-1505,-1111,-954,425,1614,1530
1203,577,-619,-887,910,-12,-1253,-955,-822,251,1254,1278
921,325,-589,-623,754,-126,-947,-793,-714,5,768,918
681,157,-517,-419,598,-180,-743,-703,-660,-210,354,594
495,139,-349,-311,424,-102,-599,-637,-624,-312,120,384
309,121,-187,-215,244,-24,-455,-529,-516,-318,12,240
165,19,-139,-89,154,-54,-287,-409,-402,-306,-71,120
33,-58,-97,6,64,-78,-173,-319,-306,-270,-125,19
-2,-94,-85,48,34,-90,-83,-253,-234,-228,-119,-29
-8,-58,-43,30,10,-54,-53,-217,-198,-210,-101,-17
-26,-28,4,24,-13,-12,-35,-211,-186,-204,-113,-29
-50,-28,16,36,-37,0,0,-187,-156,-192,-125,-41
-38,-22,10,30,-25,0,48,-139,-102,-168,-119,-41
-56,-10,40,30,-49,11,60,-97,-84,-162,-119,-59
-80,-28,46,54,-67,11,72,-73,-60,-156,-143,-77
-86,-46,34,66,-61,0,84,-73,-48,-144,-137,-89
-92,-58,28,72,-61,-12,90,-61,-42,-150,-143,-89
-92,-46,40,66,-67,0,96,-67,-42,-150,-149,-89
-98,-58,34,78,-67,-6,90,-67,-36,-144,-143,-83
-98,-64,28,78,-67,-12,102,-67,-42,-144,-143,-83
-98,-70,22,84,-61,-18,114,-67,-30,-150,-143,-95
-104,-64,34,84,-73,-12,132,-55,-24,-150,-143,-95
-110,-52,52,78,-85,6,144,-49,-18,-150,-149,-95
-116,-46,64,78,-91,11,156,-43,-13,-150,-155,-107
-116,-46,64,78,-91,11,156,-37,-13,-144,-155,-107
-128,-58,64,90,-97,6,162,-25,-7,-138,-155,-107
-134,-58,70,96,-103,11,162,-20,-1,-132,-149,-107
-134,-52,76,90,-109,11,162,-20,-7,-132,-149,-113
-128,-52,70,90,-103,11,168,-20,-7,-132,-149,-113
-128,-52,70,90,-103,11,168,-20,-13,-132,-149,-119
-134,-58,70,96,-103,11,174,-20,-13,-132,-155,-131
-134,-52,76,90,-109,11,168,-20,-13,-138,-161,-137
-134,-46,82,90,-109,11,168,-20,-1,-144,-161,-131
-134,-40,88,84,-115,17,168,-14,5,-138,-161,-137
-134,-40,88,84,-115,17,168,-8,5,-144,-167,-131
-128,-40,82,84,-109,11,168,-8,11,-138,-161,-125
-128,-40,82,84,-109,11,174,-8,17,-132,-161,-125
-122,-34,82,78,-103,17,174,-14,23,-126,-149,-119
-122,-34,82,78,-103,17,168,-14,35,-120,-149,-125
-122,-40,76,78,-103,11,168,-2,29,-120,-149,-119
-122,-40,76,78,-103,11,174,-2,41,-120,-143,-101
-116,-46,64,78,-91,11,180,16,41,-120,-131,-95
-116,-58,52,84,-85,0,186,16,47,-120,-125,-89
-116,-52,58,84,-91,6,186,16,41,-120,-131,-95
-116,-46,64,78,-91,11,186,22,41,-120,-131,-95
-110,-28,76,66,-97,17,192,22,35,-114,-137,-101
-110,-28,76,66,-97,17,192,22,47,-114,-137,-119
-116,-34,76,72,-97,11,192,22,53,-102,-137,-113
-116,-34,76,72,-97,11,192,34,53,-96,-131,-107
-110,-34,70,72,-91,11,198,46,59,-84,-137,-95
-110,-28,76,66,-97,17,204,52,65,-84,-137,-95
-110,-22,82,66,-97,23,204,52,71,-84,-125,-95
-110,-22,82,66,-97,23,204,52,71,-78,-125,-95
-110,-10,94,60,-103,35,210,52,71,-78,-119,-95
-104,-10,88,54,-97,29,210,52,77,-78,-119,-89
-104,-10,88,54,-97,29,204,64,83,-78,-125,-89
-104,-10,88,54,-97,29,210,70,83,-78,-125,-95
-104,-4,94,54,-103,35,204,82,83,-84,-131,-95
-104,2,100,48,-103,41,210,94,95,-84,-131,-95
-104,-4,94,54,-103,35,210,100,95,-72,-125,-89
-104,-4,94,54,-103,35,216,100,101,-66,-119,-95
-98,-10,82,54,-91,29,216,112,101,-60,-119,-89
-98,-4,88,48,-97,35,216,112,107,-60,-113,-89
-98,2,94,48,-97,41,222,124,119,-60,-107,-83
-98,8,100,42,-103,47,222,130,125,-60,-107,-83
-98,14,106,42,-103,53,222,136,143,-60,-101,-83
-98,14,106,42,-103,53,222,142,149,-54,-101,-83
-98,14,106,42,-103,53,234,148,155,-42,-101,-83
-98,14,106,42,-103,53,240,154,161,-36,-95,-71
-98,8,100,42,-103,47,246,178,173,-30,-95,-89
-98,8,100,42,-103,47,246,184,179,-24,-89,-89
-98,14,106,42,-103,53,252,196,179,-24,-95,-83
-98,19,112,36,-109,59,258,202,185,-18,-89,-83
-98,19,124,30,-109,71,264,208,191,-18,-95,-83
-98,31,136,24,-115,83,270,220,197,-12,-89,-77
-98,25,130,30,-115,77,282,220,215,-6,-77,-77
-98,25,130,30,-115,77,288,232,221,-1,-77,-77
-98,31,136,24,-115,83,300,226,227,-1,-71,-77
-92,31,130,24,-109,77,300,238,245,-1,-71,-71
-92,37,136,18,-115,83,306,262,251,-1,-59,-65
-92,37,136,18,-115,83,312,268,257,5,-59,-65
-92,61,160,6,-127,107,318,286,269,11,-59,-65
-92,67,166,6,-127,113,330,298,281,17,-53,-65
-92,61,160,6,-127,107,342,310,293,35,-47,-47
-92,67,166,6,-127,113,348,328,305,41,-35,-47
-92,61,160,6,-127,107,360,340,317,53,-23,-35
-86,73,166,0,-127,119,366,352,329,59,-17,-35
-86,73,166,0,-127,119,372,364,335,71,-17,-35
-86,73,166,0,-127,119,378,376,353,83,-11,-23
-86,67,160,0,-121,113,372,388,359,101,-5,-23
-80,79,166,-6,-121,119,372,388,371,107,-5,-17
-80,91,178,-12,-127,131,384,406,377,107,1,-11
-80,103,190,-18,-133,143,384,418,389,113,7,-5
-74,121,202,-18,-139,161,390,424,395,119,7,-5
-74,133,214,-23,-145,173,390,430,407,125,12,7
-68,139,214,-29,-139,173,390,442,425,137,12,1
-56,145,208,-35,-133,173,390,454,431,149,18,1
-56,151,214,-41,-133,179,396,460,455,161,24,7
-50,151,208,-41,-127,179,396,466,461,167,36,13
-38,151,196,-47,-115,173,396,472,461,173,36,19
-32,163,202,-59,-115,179,396,472,467,179,36,25
-20,163,190,-65,-103,173,396,484,473,191,48,30
-20,169,196,-65,-109,179,390,490,479,209,60,30
-14,169,190,-71,-103,179,384,496,479,203,66,30
-14,169,190,-71,-103,179,384,496,473,209,72,36
-14,181,202,-77,-109,191,384,496,473,209,78,48
-14,187,208,-77,-109,197,378,496,473,221,90,60
-14,187,208,-77,-109,197,366,490,473,227,102,60
-2,193,202,-89,-103,197,354,490,473,227,108,66
4,187,190,-89,-91,185,330,478,473,239,120,60
4,187,190,-89,-91,185,324,472,467,239,126,66
15,199,190,-101,-85,191,306,466,461,239,132,72
15,199,178,-107,-73,191,300,466,461,245,132,84
27,205,172,-113,-67,191,288,454,455,251,138,84
33,217,178,-125,-67,197,276,448,431,251,144,90
39,223,178,-131,-61,203,264,424,419,245,144,96
45,223,172,-131,-55,197,252,412,413,245,150,102
51,229,172,-137,-55,203,240,394,401,245,144,108
63,235,166,-149,-43,203,216,382,389,239,150,108
69,229,154,-149,-37,191,198,358,359,239,144,108
69,229,154,-149,-37,191,180,334,353,233,144,114
75,223,142,-149,-25,185,162,310,323,227,138,108
75,217,136,-143,-25,179,138,286,305,227,144,108
75,211,130,-143,-19,173,138,268,287,221,144,108
75,205,124,-137,-19,167,126,250,269,215,144,114
75,199,118,-137,-13,161,114,208,251,203,138,114
75,199,118,-137,-13,161,108,190,239,197,138,114
75,199,118,-137,-13,161,96,166,209,179,132,114
63,199,130,-131,-25,167,84,142,197,167,114,108
63,181,112,-119,-19,149,84,124,173,155,114,114
57,163,100,-107,-13,131,72,100,149,143,102,102
51,145,88,-95,-13,119,72,88,137,131,96,96
45,133,82,-89,-13,107,72,64,119,119,84,78
33,115,76,-71,-13,95,66,40,107,107,66,72
27,103,70,-65,-13,89,60,22,95,89,48,60
27,97,64,-59,-13,83,60,10,77,77,42,54
15,91,76,-47,-25,83,54,4,65,65,30,42
15,85,70,-47,-25,77,54,-2,47,47,12,30
15,79,70,-41,-25,71,54,-20,29,35,12,30
10,73,70,-35,-31,71,48,-20,23,17,12,30
4,67,70,-29,-31,65,42,-20,11,-1,1,13
-8,37,52,-18,-31,41,36,-20,-1,-6,-5,7
-8,25,40,-18,-25,29,42,-20,-1,-12,-11,7
-14,31,52,-18,-31,41,42,-25,-7,-12,-23,-5
-14,31,52,-18,-31,41,42,-43,-13,-24,-29,-11
-14,31,52,-18,-31,41,42,-55,-18,-36,-53,-17
-26,25,58,-6,-43,41,42,-55,-18,-36,-53,-29
-32,19,52,0,-43,29,36,-61,-24,-42,-59,-23
-32,19,52,0,-43,29,36,-61,-30,-54,-59,-35
-38,19,52,6,-49,29,36,-61,-36,-60,-65,-29
-38,19,52,6,-49,29,42,-61,-36,-60,-65,-29
-38,14,46,12,-43,23,42,-55,-42,-66,-71,-35
-38,14,46,12,-43,23,42,-61,-42,-66,-77,-41
-38,8,40,12,-43,17,36,-55,-42,-66,-89,-47
-38,8,40,12,-43,17,36,-55,-48,-72,-89,-47
-38,-4,28,18,-37,11,36,-55,-54,-78,-83,-53
-44,-10,28,24,-37,11,36,-67,-54,-78,-95,-59
-38,-10,22,24,-31,11,42,-55,-60,-78,-89,-65
-38,-10,22,24,-31,11,48,-55,-60,-78,-89,-65
-44,-10,28,24,-37,11,42,-55,-60,-90,-89,-65
-50,-4,40,24,-49,11,36,-55,-60,-90,-89,-59
-56,-4,46,30,-55,11,30,-55,-60,-90,-83,-53
-56,-10,40,30,-49,11,30,-43,-60,-90,-83,-47
-56,-16,34,36,-49,11,30,-43,-66,-96,-83,-53
-56,-22,28,36,-43,6,30,-49,-66,-96,-83,-59
-44,-28,10,36,-31,-6,24,-55,-72,-96,-83,-65
-44,-34,4,36,-25,-12,18,-55,-72,-96,-83,-71
-50,-28,16,36,-37,0,24,-55,-66,-96,-83,-71
-44,-28,10,36,-31,-6,24,-55,-66,-96,-77,-71
-50,-22,22,36,-37,6,30,-43,-60,-96,-77,-71
-56,-28,22,42,-43,0,30,-43,-66,-96,-83,-71
-50,-16,28,30,-43,11,24,-43,-66,-96,-83,-71
-50,-16,28,30,-43,11,30,-43,-66,-96,-83,-71
-44,-10,28,24,-37,11,24,-49,-66,-96,-83,-71
-50,-4,40,24,-49,11,24,-55,-60,-96,-89,-71
-50,2,46,24,-49,17,18,-61,-66,-102,-95,-65
-44,-4,34,24,-43,11,24,-61,-60,-102,-89,-65
-44,-10,28,24,-37,11,18,-49,-66,-108,-95,-59
-50,-10,34,30,-43,11,12,-49,-66,-108,-95,-59
-56,-16,34,36,-49,11,18,-55,-66,-102,-89,-59
-56,-16,34,36,-49,11,24,-55,-66,-102,-89,-59
-62,-22,34,42,-49,11,30,-55,-60,-96,-83,-59
-62,-28,28,42,-49,6,30,-55,-60,-96,-83,-59
-62,-22,34,42,-49,11,30,-49,-60,-102,-89,-65
-56,-10,40,30,-49,11,30,-49,-66,-102,-89,-65
-56,8,58,24,-61,23,30,-43,-66,-102,-95,-71
-68,-10,52,36,-61,11,30,-43,-60,-102,-95,-71
-62,-10,46,36,-55,11,36,-49,-60,-102,-89,-65
-62,-10,46,36,-55,11,36,-49,-60,-102,-89,-71
-56,-4,46,30,-55,11,36,-55,-60,-102,-83,-65
-56,-4,46,30,-55,11,36,-61,-60,-102,-83,-59
-62,-16,40,36,-55,11,36,-67,-54,-96,-77,-59
-56,-16,34,36,-49,11,30,-55,-54,-90,-77,-59
-62,-22,34,42,-49,11,30,-61,-48,-84,-83,-71
-62,-16,40,36,-55,11,30,-73,-54,-90,-83,-77
-56,-10,40,30,-49,11,30,-73,-54,-90,-89,-77
-56,-10,40,30,-49,11,30,-73,-54,-90,-89,-77
-50,-10,34,30,-43,11,30,-67,-48,-84,-95,-71
-50,-10,34,30,-43,11,30,-67,-48,-84,-95,-71
-62,-16,40,36,-55,11,30,-61,-48,-90,-89,-65
-68,-16,46,42,-61,11,30,-61,-48,-90,-89,-65
-68,-22,40,42,-55,11,36,-55,-48,-96,-83,-59
-74,-22,46,48,-61,11,36,-55,-48,-96,-83,-47
-68,-16,46,42,-61,11,36,-43,-54,-96,-89,-65
-68,-16,46,42,-61,11,36,-43,-54,-96,-89,-65
-62,-4,52,30,-61,17,30,-49,-60,-102,-95,-71
-62,-4,52,30,-61,17,30,-49,-60,-102,-95,-71
-62,-10,46,36,-55,11,36,-31,-54,-96,-89,-65
-68,-10,52,36,-61,11,36,-25,-48,-96,-89,-65
-68,-22,40,42,-55,11,42,-20,-42,-90,-83,-59
-68,-22,40,42,-55,11,42,-20,-42,-90,-89,-59
-68,-16,46,42,-61,11,36,-20,-48,-96,-89,-65
-74,-10,58,42,-67,17,36,-20,-48,-96,-89,-59
-74,-4,64,36,-73,23,30,-20,-48,-96,-89,-65
-68,2,64,30,-67,23,24,-20,-48,-96,-89,-71
-68,-4,58,36,-67,17,30,-20,-54,-96,-95,-71
-68,-4,58,36,-67,17,30,-14,-60,-102,-95,-77
