,,,,,,,,,,,
2019-09-04 23:18:04,,,,,,,,,,,
,,,,,,,,,,,
I,II,III,aVR,aVL,aVF,V1,V2,V3,V4,V5,V6
312,70,-171,-167,237,-44,-110,-162,-41,231,14,508
43,28,-51,-18,46,-32,-98,-150,-41,-26,2,40
-17,-7,-10,30,-2,-20,-86,-144,-41,-92,-4,-49
-35,-19,2,48,-20,-14,-74,-138,-41,-110,-10,-73
-41,-25,14,48,-26,-8,-68,-138,-41,-122,-16,-85
-47,-31,20,54,-32,-8,-62,-138,-41,-134,-16,-91
-53,-43,26,66,-44,-8,-62,-138,-47,-146,-22,-97
-65,-49,32,78,-50,-8,-62,-138,-53,-152,-22,-103
-77,-55,32,90,-56,-8,-62,-138,-59,-158,-28,-109
-89,-61,32,102,-62,-8,-62,-138,-65,-158,-28,-109
-95,-67,38,108,-68,-8,-62,-138,-65,-158,-28,-115
-101,-67,44,114,-74,-8,-62,-144,-65,-158,-28,-115
-101,-73,44,114,-74,-8,-62,-144,-71,-158,-28,-115
-101,-79,44,114,-74,-8,-68,-144,-71,-158,-28,-115
-101,-79,44,114,-74,-8,-68,-144,-71,-158,-28,-115
-107,-79,44,114,-74,-8,-68,-144,-71,-158,-28,-115
-107,-79,44,114,-74,-8,-68,-144,-71,-158,-28,-115
-107,-79,44,114,-74,-8,-68,-144,-71,-158,-28,-115
-107,-79,44,114,-74,-2,-68,-144,-71,-158,-28,-115
-107,-73,50,114,-74,4,-74,-144,-71,-158,-28,-115
-107,-67,56,114,-74,10,-74,-144,-71,-158,-28,-115
-107,-61,56,108,-74,16,-74,-144,-71,-158,-28,-115
-107,-55,56,102,-74,22,-74,-144,-71,-158,-28,-115
-107,-55,56,102,-80,22,-74,-144,-71,-158,-28,-115
-107,-55,62,102,-80,22,-74,-144,-71,-158,-28,-115
-107,-55,68,102,-80,22,-74,-144,-71,-158,-28,-115
-107,-55,68,102,-80,22,-74,-144,-71,-158,-28,-115
-107,-55,68,102,-80,22,-80,-144,-71,-158,-28,-115
-107,-55,74,102,-86,28,-80,-144,-71,-158,-28,-115
-107,-55,74,102,-86,28,-80,-144,-71,-158,-28,-115
-107,-55,74,102,-86,28,-80,-144,-71,-158,-28,-115
-107,-55,80,102,-92,28,-80,-144,-71,-158,-28,-115
-107,-49,86,102,-92,34,-80,-144,-71,-158,-28,-115
-107,-43,86,102,-92,34,-80,-144,-71,-158,-28,-115
-101,-37,86,96,-92,40,-80,-144,-71,-158,-28,-115
-101,-31,86,90,-92,46,-80,-144,-71,-158,-28,-115
-101,-31,86,90,-92,46,-80,-144,-71,-152,-28,-115
-101,-31,86,90,-92,46,-80,-138,-65,-152,-28,-109
-95,-25,86,84,-92,46,-80,-132,-65,-146,-28,-109
-89,-19,86,78,-92,46,-80,-126,-65,-146,-28,-103
-83,-19,86,72,-92,46,-80,-126,-59,-140,-28,-103
-83,-19,86,72,-92,46,-80,-120,-59,-140,-28,-103
-83,-19,86,72,-92,46,-80,-120,-59,-140,-28,-103
-83,-19,86,72,-92,46,-80,-120,-59,-140,-28,-103
-83,-19,86,72,-92,46,-80,-120,-59,-140,-28,-103
-83,-19,86,72,-92,46,-80,-120,-59,-140,-28,-103
-83,-19,86,72,-92,46,-80,-120,-59,-140,-28,-103
-83,-19,86,72,-92,46,-80,-120,-59,-140,-28,-97
-83,-19,86,72,-92,46,-86,-120,-59,-134,-28,-97
-83,-19,86,72,-92,46,-92,-120,-59,-128,-28,-97
-83,-19,86,72,-92,46,-92,-120,-59,-128,-28,-97
-89,-19,86,72,-92,46,-92,-120,-59,-128,-28,-97
-89,-19,86,72,-92,46,-92,-120,-59,-128,-28,-97
-83,-19,86,72,-92,46,-92,-120,-59,-128,-28,-97
-77,-19,86,72,-86,46,-92,-120,-59,-128,-28,-97
-77,-19,86,72,-86,46,-92,-120,-59,-128,-28,-97
-77,-19,86,72,-86,46,-92,-120,-59,-128,-28,-97
-77,-19,86,72,-86,46,-92,-120,-59,-128,-28,-97
-77,-19,86,72,-86,46,-92,-120,-59,-128,-28,-97
-77,-19,80,72,-86,40,-92,-120,-59,-128,-28,-97
-77,-25,74,72,-86,40,-92,-120,-59,-128,-28,-97
-77,-25,74,72,-86,40,-98,-120,-59,-128,-28,-97
-77,-31,74,72,-86,40,-98,-120,-59,-128,-28,-97
-83,-43,74,78,-86,34,-98,-120,-59,-134,-34,-97
-83,-49,68,84,-86,28,-98,-120,-65,-134,-34,-97
-89,-55,62,90,-86,22,-98,-120,-65,-134,-34,-103
-89,-55,62,96,-86,22,-98,-120,-65,-134,-34,-103
-89,-55,62,96,-86,22,-98,-120,-65,-134,-34,-103
-83,-49,62,90,-80,22,-98,-120,-65,-134,-34,-103
-71,-37,62,78,-74,22,-98,-120,-65,-134,-34,-103
-65,-37,62,72,-68,22,-98,-120,-65,-134,-34,-103
-65,-37,62,72,-68,22,-98,-120,-65,-134,-34,-103
-71,-37,62,72,-68,22,-98,-120,-65,-134,-34,-103
-71,-37,62,72,-68,22,-98,-120,-65,-134,-34,-103
-71,-37,62,72,-68,22,-98,-126,-65,-134,-34,-103
-71,-37,62,72,-68,22,-98,-132,-65,-134,-34,-103
-77,-37,62,78,-74,22,-98,-132,-65,-134,-34,-103
-83,-37,62,78,-80,22,-92,-132,-65,-134,-34,-103
-83,-37,62,78,-80,22,-92,-132,-65,-134,-34,-103
-83,-37,62,78,-80,22,-92,-132,-65,-134,-34,-103
-89,-37,62,78,-80,22,-92,-132,-65,-134,-34,-103
-95,-43,62,84,-80,22,-92,-132,-65,-134,-34,-103
-101,-49,62,90,-80,22,-92,-132,-65,-134,-34,-103
-101,-49,62,90,-80,22,-92,-132,-65,-134,-34,-103
-101,-49,62,90,-80,22,-92,-132,-65,-134,-34,-103
-107,-49,68,90,-80,22,-92,-132,-65,-134,-34,-103
-107,-49,68,90,-80,22,-92,-132,-65,-134,-34,-103
-107,-49,68,90,-80,22,-92,-132,-65,-134,-34,-103
-101,-43,68,84,-80,28,-92,-132,-65,-134,-34,-103
-89,-31,68,78,-80,34,-92,-132,-65,-134,-28,-103
-83,-25,68,72,-80,40,-92,-132,-65,-134,-28,-103
-83,-19,68,72,-80,40,-92,-132,-65,-134,-28,-103
-83,-19,68,72,-80,40,-92,-132,-65,-134,-28,-103
-83,-19,68,72,-80,40,-92,-132,-65,-134,-28,-103
-83,-19,68,72,-80,40,-92,-138,-65,-134,-28,-103
-83,-19,68,72,-80,40,-92,-144,-65,-134,-28,-103
-83,-19,74,72,-80,40,-92,-144,-65,-134,-28,-103
-83,-19,74,72,-80,40,-92,-144,-65,-134,-28,-103
-89,-19,74,72,-80,40,-92,-144,-65,-134,-28,-103
-89,-19,74,72,-80,40,-92,-144,-65,-134,-28,-103
-89,-19,74,72,-80,40,-92,-144,-65,-134,-28,-103
-89,-19,74,72,-80,40,-92,-144,-65,-134,-28,-103
-89,-19,74,72,-86,40,-92,-144,-65,-134,-28,-103
-95,-25,80,78,-92,40,-92,-144,-65,-134,-28,-103
-95,-25,80,78,-92,40,-92,-144,-65,-134,-28,-103
-95,-25,80,78,-92,40,-92,-144,-65,-134,-28,-103
-95,-25,80,78,-92,40,-92,-144,-65,-134,-28,-103
-95,-25,80,78,-92,40,-92,-144,-65,-134,-28,-97
-95,-25,80,78,-92,40,-92,-144,-65,-134,-28,-97
-95,-25,80,78,-92,40,-92,-144,-65,-134,-28,-97
-95,-25,80,78,-92,46,-92,-138,-65,-134,-28,-91
-95,-25,86,78,-92,46,-92,-138,-65,-134,-28,-91
-95,-25,86,78,-92,46,-92,-138,-65,-134,-28,-91
-95,-25,86,78,-92,46,-92,-138,-65,-134,-28,-91
-101,-25,86,84,-98,46,-92,-138,-65,-134,-28,-91
-113,-31,86,90,-104,46,-92,-138,-65,-134,-28,-91
-119,-37,86,96,-110,46,-92,-138,-65,-134,-28,-91
-119,-37,86,96,-110,46,-86,-138,-65,-134,-28,-91
-119,-37,86,96,-110,46,-86,-138,-65,-134,-28,-91
-113,-31,92,90,-110,46,-86,-138,-65,-134,-28,-91
-107,-25,92,90,-110,46,-86,-138,-65,-134,-28,-91
-107,-25,92,90,-110,46,-86,-138,-71,-134,-28,-91
-101,-25,92,90,-104,46,-86,-138,-71,-134,-28,-91
-95,-25,92,84,-98,46,-86,-138,-71,-134,-28,-91
-95,-25,92,78,-98,46,-86,-138,-71,-134,-28,-91
-95,-25,92,78,-98,46,-86,-138,-77,-134,-28,-91
-95,-25,92,78,-98,46,-86,-138,-83,-134,-28,-91
-95,-25,86,78,-98,46,-86,-138,-89,-134,-28,-91
-95,-25,80,78,-98,40,-86,-138,-89,-134,-28,-91
-95,-31,80,78,-98,40,-86,-138,-95,-134,-28,-91
-95,-31,80,78,-98,40,-86,-138,-95,-134,-28,-91
-95,-31,80,78,-98,40,-86,-138,-95,-134,-28,-91
-95,-31,80,78,-98,40,-86,-138,-95,-140,-28,-91
-95,-31,80,78,-98,40,-86,-144,-101,-140,-28,-91
-95,-31,80,78,-98,40,-86,-150,-101,-140,-28,-91
-95,-31,80,78,-98,40,-86,-150,-101,-140,-28,-91
-95,-31,80,78,-98,40,-86,-156,-101,-140,-28,-91
-95,-31,74,78,-92,40,-86,-162,-101,-140,-22,-91
-95,-31,74,78,-92,40,-86,-162,-101,-140,-22,-91
-95,-31,74,78,-92,40,-86,-168,-101,-140,-22,-91
-95,-31,74,78,-92,40,-86,-168,-107,-146,-22,-91
-95,-31,74,78,-92,40,-86,-168,-107,-146,-16,-91
-95,-31,74,84,-92,40,-86,-168,-107,-146,-16,-91
-95,-31,74,84,-92,40,-86,-168,-107,-146,-10,-91
-95,-31,74,84,-92,40,-86,-168,-107,-146,-4,-91
-95,-31,74,84,-92,40,-86,-168,-107,-146,2,-91
-95,-31,74,84,-92,40,-86,-168,-107,-146,2,-91
-95,-31,74,84,-92,40,-86,-168,-107,-146,2,-91
-95,-31,74,84,-92,40,-86,-168,-107,-146,8,-91
-95,-31,80,84,-92,40,-86,-168,-107,-146,14,-91
-95,-31,86,84,-92,46,-86,-168,-107,-146,20,-85
-95,-31,86,84,-92,46,-86,-168,-107,-146,26,-85
-95,-31,86,84,-92,46,-86,-168,-107,-146,26,-85
-95,-31,86,84,-92,46,-86,-168,-107,-146,26,-85
-95,-31,86,84,-92,46,-86,-168,-107,-146,26,-85
-95,-25,86,84,-92,46,-86,-168,-107,-146,32,-85
-95,-25,86,84,-92,46,-86,-168,-107,-146,32,-85
-95,-25,86,84,-92,46,-86,-168,-107,-146,32,-85
-95,-25,86,84,-92,46,-92,-168,-107,-146,32,-85
-95,-25,86,84,-92,46,-98,-168,-107,-146,32,-85
-95,-25,86,84,-92,46,-104,-168,-107,-146,32,-85
-95,-25,86,84,-92,46,-110,-168,-107,-146,32,-85
-95,-25,86,84,-92,46,-110,-168,-107,-146,32,-85
-95,-25,86,84,-92,46,-110,-168,-107,-146,32,-85
-95,-25,86,84,-92,46,-110,-168,-107,-146,38,-85
-95,-25,86,84,-92,46,-110,-168,-107,-146,38,-85
-89,-19,86,78,-92,46,-110,-168,-107,-140,38,-85
-77,-7,86,72,-86,52,-110,-168,-107,-140,43,-85
-71,-1,86,66,-80,52,-110,-168,-107,-140,43,-85
-71,-1,86,66,-80,52,-110,-168,-107,-140,43,-85
-71,-1,86,66,-80,52,-110,-168,-107,-140,43,-85
-77,-7,86,66,-80,52,-110,-168,-107,-140,43,-85
-83,-19,86,72,-80,52,-110,-168,-107,-140,43,-85
-89,-25,86,78,-80,52,-110,-168,-107,-140,43,-85
-89,-31,86,78,-80,52,-110,-168,-107,-140,43,-85
-89,-31,86,78,-80,52,-110,-168,-107,-140,43,-85
-89,-31,80,78,-80,52,-110,-168,-107,-140,43,-85
-83,-31,74,78,-74,52,-110,-168,-107,-140,43,-85
-83,-31,74,78,-74,52,-110,-168,-107,-140,43,-85
-83,-31,74,78,-74,52,-110,-168,-107,-140,43,-85
-83,-31,74,78,-74,52,-110,-168,-107,-140,43,-85
-83,-31,74,78,-74,52,-116,-168,-107,-140,43,-85
-83,-31,74,78,-74,46,-116,-168,-107,-140,43,-85
-83,-31,74,78,-74,46,-116,-168,-107,-140,38,-85
-89,-31,74,84,-74,46,-116,-168,-107,-140,38,-85
-95,-31,74,84,-74,46,-122,-168,-107,-140,38,-85
-95,-31,74,84,-74,46,-122,-168,-107,-140,38,-85
-89,-25,74,78,-68,46,-122,-168,-107,-140,38,-85
-71,-19,74,66,-62,46,-122,-168,-107,-140,38,-79
-59,-13,74,60,-56,46,-122,-168,-107,-140,38,-79
-59,-13,74,60,-56,46,-128,-168,-107,-140,38,-79
-59,-13,74,60,-56,46,-128,-168,-107,-140,38,-79
-65,-13,74,60,-56,46,-128,-168,-107,-140,38,-79
-77,-19,74,66,-62,46,-128,-168,-107,-140,38,-79
-83,-19,74,72,-68,46,-128,-168,-107,-140,38,-79
-83,-19,74,72,-68,46,-128,-168,-107,-140,38,-79
-83,-19,74,72,-68,46,-128,-168,-107,-140,38,-79
-83,-19,74,72,-68,46,-128,-168,-107,-140,38,-79
-83,-19,74,72,-68,46,-128,-168,-107,-140,38,-79
-83,-19,74,72,-68,46,-128,-168,-107,-140,38,-79
-83,-19,74,72,-68,46,-122,-168,-107,-140,38,-79
-83,-13,74,66,-68,46,-110,-168,-107,-140,43,-79
-83,-13,74,66,-68,46,-104,-168,-107,-140,43,-79
-83,-13,74,66,-68,46,-98,-168,-107,-140,43,-79
-83,-13,74,66,-68,46,-92,-168,-107,-140,43,-79
-77,-7,74,66,-68,46,-86,-168,-101,-140,43,-73
-77,-1,74,60,-68,52,-86,-168,-101,-134,49,-67
-77,-1,80,60,-68,52,-86,-168,-101,-134,55,-67
-77,4,86,60,-74,58,-86,-168,-101,-134,55,-67
-77,4,86,60,-80,58,-86,-168,-101,-134,55,-67
-77,4,86,60,-80,58,-86,-168,-101,-134,55,-67
-77,4,86,60,-80,58,-80,-168,-101,-134,55,-67
-83,4,86,60,-80,58,-74,-168,-101,-134,55,-67
-89,4,92,66,-86,58,-68,-168,-101,-134,55,-67
-113,4,122,72,-116,70,-32,-180,-113,-176,32,-85
-113,4,128,72,-122,70,-26,-186,-113,-182,26,-85
-101,4,104,66,-110,70,-38,-168,-89,-146,61,-67
-83,4,92,60,-92,64,-50,-156,-77,-122,85,-55
-77,4,86,54,-86,64,-56,-150,-77,-116,91,-49
-71,4,80,48,-80,64,-56,-144,-77,-110,91,-43
-59,10,74,42,-68,64,-62,-144,-77,-110,97,-43
-53,10,68,36,-62,64,-68,-144,-77,-110,97,-43
-47,10,68,36,-56,64,-74,-144,-77,-110,97,-43
-41,10,68,36,-56,64,-86,-144,-77,-110,103,-37
-35,10,62,36,-50,58,-98,-144,-77,-104,109,-31
-29,10,56,36,-44,52,-110,-144,-77,-98,127,-19
-29,10,44,36,-38,46,-140,-144,-77,-86,145,-7
-29,10,38,36,-32,40,-170,-144,-77,-80,157,5
-17,10,26,30,-26,34,-200,-144,-71,-68,181,17
-5,10,14,18,-14,34,-230,-144,-59,-44,199,29
25,10,2,6,10,28,-266,-144,-47,-26,223,40
54,16,-16,-6,34,22,-290,-144,-35,-2,253,64
72,22,-28,-30,57,22,-320,-150,-29,27,283,94
102,34,-40,-54,75,16,-356,-168,-23,51,313,124
138,46,-57,-77,105,16,-410,-210,-23,69,343,154
168,58,-81,-101,135,10,-476,-252,-29,87,367,184
204,64,-111,-113,153,4,-524,-288,-41,99,379,208
234,64,-141,-119,183,-2,-584,-318,-53,117,397,226
258,64,-171,-131,213,-14,-650,-342,-59,135,409,250
288,64,-201,-143,243,-32,-710,-372,-65,147,427,274
312,70,-219,-161,273,-38,-746,-390,-71,165,445,292
342,82,-231,-191,291,-38,-764,-402,-77,177,457,316
360,94,-237,-203,303,-44,-770,-414,-77,189,481,334
372,100,-243,-215,315,-44,-776,-420,-77,219,511,358
384,106,-249,-221,321,-44,-794,-426,-65,267,547,388
396,112,-255,-233,333,-44,-824,-432,-29,339,595,418
432,136,-267,-263,345,-44,-866,-456,-23,399,649,466
462,178,-267,-299,363,-38,-920,-552,-29,447,709,532
492,220,-267,-335,375,-20,-986,-696,-71,507,793,604
522,262,-267,-377,387,-2,-1064,-870,-179,549,859,682
564,304,-267,-425,399,28,-1136,-1074,-359,567,931,760
606,358,-261,-467,411,58,-1190,-1242,-587,567,979,826
636,406,-249,-503,423,88,-1226,-1374,-803,567,1021,892
666,448,-237,-533,429,118,-1256,-1470,-941,573,1075,940
678,466,-231,-545,435,136,-1280,-1572,-1067,573,1099,982
684,466,-231,-551,447,136,-1292,-1680,-1223,531,1099,994
696,460,-255,-551,477,124,-1292,-1788,-1403,387,1069,994
708,448,-291,-551,513,94,-1292,-1920,-1583,243,1003,994
726,436,-315,-551,531,82,-1286,-2058,-1775,117,949,994
738,412,-345,-551,543,58,-1274,-2172,-1961,-14,907,994
744,370,-387,-545,567,16,-1244,-2214,-2099,-128,859,982
750,322,-453,-533,591,-44,-1202,-2232,-2213,-224,811,970
762,256,-531,-515,633,-115,-1160,-2232,-2267,-326,769,940
774,196,-621,-491,693,-187,-1124,-2220,-2315,-410,715,910
792,112,-723,-473,759,-277,-1088,-2208,-2363,-506,661,868
804,10,-825,-437,813,-391,-1070,-2202,-2416,-596,607,832
810,-103,-933,-377,861,-505,-1040,-2196,-2464,-656,565,790
816,-205,-1029,-329,915,-601,-1010,-2190,-2506,-710,541,748
828,-283,-1137,-287,975,-691,-998,-2190,-2548,-740,529,712
834,-325,-1185,-263,1011,-733,-992,-2196,-2560,-746,529,700
840,-343,-1209,-251,1023,-757,-986,-2214,-2560,-722,553,700
846,-361,-1227,-239,1035,-775,-980,-2220,-2500,-620,637,700
846,-391,-1245,-227,1047,-787,-968,-2208,-2357,-500,697,700
846,-415,-1269,-215,1053,-817,-950,-2118,-2171,-374,745,700
852,-445,-1305,-209,1077,-853,-908,-1974,-1955,-248,775,694
858,-487,-1347,-197,1107,-895,-848,-1758,-1697,-152,775,628
858,-547,-1419,-167,1131,-967,-782,-1512,-1475,-134,673,448
858,-631,-1491,-119,1161,-1039,-722,-1302,-1331,-206,367,190
852,-697,-1521,-71,1173,-1087,-680,-1134,-1235,-422,61,-55
804,-727,-1521,-24,1167,-1093,-638,-1008,-1181,-566,-130,-205
726,-727,-1467,12,1095,-1081,-602,-918,-1103,-632,-226,-283
678,-715,-1353,18,1011,-1033,-566,-852,-1019,-650,-250,-313
630,-673,-1233,18,939,-937,-518,-798,-929,-650,-250,-319
576,-607,-1113,18,843,-835,-458,-720,-821,-638,-244,-319
516,-523,-981,18,753,-745,-404,-636,-743,-608,-232,-319
468,-463,-873,18,675,-649,-350,-570,-677,-578,-202,-319
414,-409,-759,18,591,-571,-308,-498,-617,-548,-184,-319
336,-379,-651,24,495,-493,-272,-450,-551,-530,-172,-319
276,-337,-549,30,411,-427,-242,-396,-479,-500,-142,-319
216,-283,-435,36,321,-349,-206,-336,-395,-452,-112,-313
126,-241,-315,42,219,-271,-164,-282,-317,-386,-70,-301
48,-211,-207,54,129,-205,-122,-216,-233,-314,-10,-265
1,-175,-129,66,69,-151,-74,-168,-161,-266,26,-235
-29,-145,-75,78,28,-103,-32,-126,-119,-224,55,-211
-41,-115,-28,78,-2,-55,-3,-84,-77,-194,79,-193
-47,-85,-4,78,-20,-26,9,-54,-53,-176,91,-187
-53,-73,8,78,-32,-14,21,-42,-41,-164,97,-181
-65,-67,20,78,-44,-2,27,-36,-29,-158,103,-175
-77,-61,50,78,-56,10,33,-36,-17,-158,103,-175
-89,-55,62,78,-68,16,33,-36,-5,-158,103,-175
-101,-55,74,84,-80,22,33,-30,7,-158,103,-175
-113,-55,92,90,-92,28,33,-24,12,-158,103,-175
-119,-49,104,96,-104,40,39,-18,18,-158,103,-175
-125,-49,110,96,-110,46,39,-6,24,-152,103,-175
-131,-49,116,102,-116,52,39,0,30,-146,103,-175
-143,-49,122,108,-122,52,39,5,30,-146,103,-175
-155,-49,134,108,-134,58,39,17,36,-140,103,-175
-161,-43,140,108,-140,64,39,23,48,-134,109,-175
-161,-37,146,108,-146,70,39,29,54,-128,115,-175
-167,-37,152,108,-152,76,39,41,60,-128,115,-175
-173,-37,152,108,-158,76,39,59,60,-128,115,-175
-173,-31,158,108,-164,82,39,77,60,-128,115,-175
-173,-25,158,108,-170,88,39,89,60,-128,115,-175
-173,-19,158,108,-170,88,39,95,66,-128,115,-175
-173,-19,158,108,-170,88,39,101,66,-128,115,-175
-173,-19,158,108,-170,88,39,107,66,-128,115,-175
-173,-19,158,108,-170,88,39,107,72,-128,115,-175
-173,-19,158,108,-170,88,39,107,72,-128,115,-175
-173,-19,158,108,-170,88,33,107,72,-128,115,-175
-173,-19,164,108,-170,88,27,107,72,-128,115,-175
-179,-19,164,114,-176,88,21,107,72,-128,115,-175
-185,-19,170,120,-182,88,15,107,72,-128,115,-175
-197,-19,176,126,-188,88,15,107,72,-128,109,-175
-203,-19,176,126,-188,88,15,107,72,-128,109,-175
-203,-19,176,126,-188,88,15,107,72,-128,109,-175
-203,-19,176,126,-188,88,15,107,78,-128,109,-175
-203,-19,176,126,-188,88,21,107,84,-122,109,-175
-197,-7,182,120,-188,94,27,113,90,-116,115,-175
-191,4,188,114,-188,106,27,125,102,-110,121,-175
-191,10,188,114,-188,112,27,131,108,-104,121,-175
-191,10,188,114,-188,112,27,137,108,-104,121,-175
-191,10,188,114,-188,112,27,143,108,-104,121,-175
-191,10,194,114,-188,118,33,149,114,-104,121,-175
-191,10,200,114,-194,118,39,155,120,-104,121,-175
-191,10,206,114,-194,118,45,161,120,-104,121,-175
-191,10,206,114,-194,118,51,167,120,-104,121,-175
-191,4,206,114,-194,118,57,173,126,-104,121,-175
-191,4,206,114,-194,118,63,173,132,-104,121,-175
-191,4,206,114,-194,118,63,179,132,-104,121,-181
-197,4,206,114,-194,118,69,185,138,-104,121,-181
-209,4,212,120,-206,118,75,191,138,-104,121,-181
-221,-1,212,126,-218,118,81,197,138,-104,121,-187
-233,-7,218,138,-224,118,93,203,138,-104,121,-193
-239,-13,224,144,-230,118,99,209,144,-104,121,-199
-245,-25,224,156,-230,118,111,215,150,-104,121,-205
-251,-31,224,162,-230,118,123,221,150,-104,121,-211
-257,-31,224,162,-230,118,129,233,156,-104,121,-211
-257,-31,224,162,-230,118,135,245,162,-104,121,-211
-257,-31,224,162,-236,118,147,251,168,-104,121,-211
-257,-31,224,162,-242,118,153,257,174,-104,121,-211
-257,-31,230,162,-242,118,159,269,180,-104,121,-211
-257,-31,230,162,-242,118,165,281,186,-104,127,-211
-257,-31,230,162,-242,118,171,287,192,-104,127,-217
-263,-31,236,162,-248,124,177,293,198,-104,127,-217
-269,-31,248,162,-254,130,183,299,204,-104,133,-217
-275,-31,254,162,-260,130,189,299,210,-104,133,-217
-275,-31,260,162,-260,130,189,299,210,-104,133,-217
-275,-31,260,162,-260,130,189,299,210,-104,133,-217
-281,-31,266,162,-272,136,195,299,210,-104,133,-217
-281,-31,272,162,-278,136,195,299,210,-104,133,-223
-287,-31,278,162,-284,142,195,299,210,-104,133,-229
-293,-31,284,162,-290,148,195,299,210,-104,133,-235
-299,-31,290,168,-296,148,195,299,210,-104,133,-241
-305,-31,296,174,-302,148,195,299,216,-104,133,-247
-311,-25,302,174,-308,154,201,305,222,-104,133,-247
-311,-19,308,174,-308,154,207,311,228,-104,133,-247
-311,-19,308,180,-314,154,207,317,228,-110,133,-253
-317,-19,308,186,-320,154,207,323,234,-110,133,-259
-323,-19,314,192,-326,154,207,329,240,-110,133,-259
-329,-19,320,192,-326,160,207,341,246,-110,133,-265
-335,-19,332,192,-332,166,213,353,258,-110,133,-271
-341,-13,344,192,-344,172,225,365,270,-110,133,-271
-347,-13,350,192,-350,178,231,377,282,-110,133,-271
-347,-7,356,192,-350,184,237,389,294,-110,133,-271
-353,-7,368,192,-356,196,249,401,306,-110,133,-277
-359,-1,374,192,-362,202,255,413,318,-110,133,-277
-359,4,380,192,-362,208,261,425,342,-110,133,-277
-365,10,386,192,-368,214,267,443,354,-110,133,-283
-377,10,398,198,-380,220,267,467,372,-104,133,-283
-383,10,410,204,-392,226,267,485,390,-98,133,-289
-389,10,416,204,-404,226,273,503,402,-98,133,-289
-401,10,422,210,-416,232,279,515,414,-98,133,-289
-407,10,434,210,-422,238,291,539,432,-92,133,-289
-407,16,440,210,-422,244,303,557,456,-86,133,-289
-407,22,446,210,-428,250,315,581,474,-80,133,-289
-413,22,452,210,-434,256,327,593,492,-68,133,-289
-425,22,464,210,-446,262,333,611,516,-56,133,-289
-431,28,470,210,-452,268,333,635,546,-44,133,-289
-431,34,476,210,-458,274,333,653,558,-32,139,-289
-431,40,482,210,-458,280,333,665,582,-26,151,-289
-431,46,494,210,-458,286,339,695,594,-14,157,-289
-431,52,506,210,-464,292,351,719,612,-8,163,-289
-437,58,512,210,-470,298,357,737,636,4,169,-289
-437,64,512,210,-476,304,369,761,660,10,175,-289
-437,64,512,210,-476,304,381,791,690,27,181,-289
-437,70,512,210,-476,304,387,809,720,51,193,-289
-431,76,512,204,-476,304,393,839,750,75,205,-283
-425,88,512,192,-476,310,399,869,774,99,223,-277
-425,94,512,186,-476,316,399,887,792,111,235,-271
-425,94,512,186,-476,316,399,899,804,117,241,-271
-425,94,512,186,-476,316,399,911,816,129,253,-265
-419,94,512,186,-476,316,399,923,828,141,259,-265
-419,94,512,186,-470,316,399,929,840,153,265,-259
-413,94,512,186,-470,316,399,941,870,171,277,-253
-401,106,512,174,-464,316,399,953,888,201,307,-241
-389,112,506,162,-452,316,399,959,900,225,331,-229
-383,112,500,156,-440,316,399,959,912,237,343,-217
-377,112,494,156,-434,316,399,959,918,249,355,-205
-371,112,488,144,-428,316,393,959,924,267,367,-193
-341,124,482,126,-416,316,387,965,936,285,379,-181
-305,136,476,102,-404,316,381,971,942,309,391,-169
-293,142,464,96,-386,316,369,971,948,321,403,-157
-287,142,452,90,-374,316,357,965,948,327,415,-145
-287,142,446,90,-368,316,345,959,948,339,433,-133
-281,142,440,90,-362,310,333,947,948,345,451,-121
-281,142,428,90,-350,304,321,935,948,357,463,-109
-269,142,410,90,-338,292,309,917,942,363,469,-97
-257,142,398,84,-326,286,291,887,930,369,475,-91
-245,136,386,84,-314,274,279,857,906,369,481,-85
-239,130,374,84,-296,262,261,839,876,369,487,-85
-227,124,350,78,-278,250,231,809,852,369,493,-79
-215,118,320,72,-260,238,213,773,822,369,493,-73
-191,118,290,66,-242,226,201,743,792,369,499,-67
-179,118,278,60,-230,220,189,707,768,369,511,-61
-167,118,266,54,-218,214,177,671,738,369,517,-55
-137,118,236,48,-194,202,165,629,696,363,523,-49
-125,112,224,42,-170,190,153,599,666,351,529,-37
-113,112,212,36,-158,184,141,563,624,345,529,-31
-101,106,200,36,-146,172,123,533,588,333,529,-25
-95,100,188,36,-134,160,111,497,546,309,529,-25
-89,94,176,36,-128,148,99,461,504,291,529,-25
-89,88,164,36,-122,136,87,425,468,267,529,-25
-89,82,152,36,-122,124,75,377,426,249,529,-25
-83,76,140,36,-116,118,63,335,384,237,529,-25
-77,70,134,36,-110,112,51,293,348,213,529,-25
-65,64,122,30,-98,106,33,263,306,201,529,-25
-59,58,110,30,-86,100,9,233,264,177,529,-25
-59,52,104,30,-80,94,-14,185,228,147,523,-25
-59,46,98,36,-80,82,-38,143,192,117,511,-25
-59,40,92,36,-80,76,-50,107,156,105,505,-25
-53,40,86,36,-74,76,-62,77,132,87,499,-25
-47,40,80,30,-68,70,-68,65,102,75,493,-25
-47,40,80,30,-62,70,-74,41,78,63,487,-25
-47,34,80,30,-62,64,-80,17,54,51,481,-25
-47,28,74,30,-62,64,-80,11,42,45,475,-25
-47,28,74,30,-62,58,-86,5,30,39,475,-25
-47,28,74,30,-62,58,-92,-6,18,27,475,-25
-47,28,68,30,-62,58,-98,-18,-5,16,469,-25
-47,22,62,30,-62,52,-104,-30,-17,4,463,-25
-47,22,62,30,-62,52,-104,-42,-29,-2,457,-25
-47,22,62,30,-62,52,-104,-54,-41,-8,457,-25
-47,16,62,36,-62,52,-104,-66,-53,-20,451,-25
-53,10,62,42,-62,52,-104,-72,-65,-32,451,-25
-53,4,62,42,-62,52,-104,-78,-71,-38,451,-25
-53,4,62,42,-62,52,-104,-84,-77,-44,451,-31
-53,4,62,42,-62,52,-104,-84,-89,-50,451,-31
-53,4,62,48,-62,46,-104,-84,-95,-56,451,-31
-53,4,62,48,-62,46,-104,-84,-101,-56,451,-31
-53,4,62,48,-62,46,-104,-84,-107,-56,451,-31
-53,4,62,48,-62,46,-104,-84,-107,-62,451,-31
-53,4,62,48,-62,46,-104,-84,-107,-62,451,-31
-53,4,62,48,-62,46,-98,-84,-107,-62,451,-31
-53,4,62,48,-62,46,-92,-84,-107,-62,451,-31
-53,4,62,54,-62,46,-86,-84,-107,-62,451,-37
-59,4,62,54,-62,46,-80,-78,-107,-62,451,-37
-65,-1,62,60,-62,46,-80,-72,-107,-62,451,-37
-71,-7,62,60,-62,46,-80,-66,-107,-62,451,-37
-71,-13,62,60,-62,46,-80,-60,-107,-62,451,-37
-71,-13,62,60,-62,46,-80,-60,-107,-62,451,-37
-71,-13,62,60,-62,46,-74,-54,-107,-62,451,-37
-71,-7,62,60,-62,46,-74,-48,-107,-62,457,-37
-71,-7,62,60,-62,46,-68,-42,-107,-62,457,-37
-65,-1,62,54,-62,46,-62,-36,-107,-62,463,-37
-65,4,62,54,-62,46,-56,-24,-101,-62,469,-37
-65,4,68,54,-68,46,-50,-18,-101,-62,475,-37
-71,4,74,54,-74,46,-44,-12,-101,-62,481,-37
-77,4,74,54,-80,46,-44,-6,-101,-62,487,-37
-83,4,80,60,-86,46,-44,-6,-95,-62,493,-37
-95,-1,86,66,-92,46,-44,-6,-95,-56,499,-37
-107,-1,92,72,-98,46,-38,-6,-95,-56,499,-37
-107,4,92,72,-98,52,-32,0,-89,-50,505,-37
-107,16,98,66,-98,64,-26,5,-83,-44,511,-37
-101,16,104,66,-98,70,-26,11,-77,-44,517,-37
-101,16,104,66,-98,70,-26,11,-71,-44,523,-37
-95,16,104,66,-98,70,-26,17,-65,-38,523,-37
-95,16,104,60,-98,70,-26,17,-59,-32,523,-37
-95,16,104,60,-98,70,-26,17,-59,-32,523,-37
-95,16,104,60,-98,70,-26,17,-59,-32,523,-37
-95,16,104,60,-98,70,-26,17,-59,-32,523,-37
-95,16,104,60,-98,70,-26,17,-59,-26,523,-37
-95,16,104,60,-98,70,-26,17,-53,-20,523,-37
-95,16,104,60,-98,70,-26,17,-53,-20,523,-37
-95,16,104,60,-98,70,-26,17,-53,-20,523,-37
-95,16,110,60,-98,70,-26,17,-53,-20,523,-37
-95,22,116,60,-98,76,-26,17,-53,-20,523,-37
-95,28,116,60,-98,76,-26,17,-53,-20,523,-31
-95,28,116,60,-98,76,-26,17,-53,-20,523,-31
-95,28,116,60,-98,76,-26,17,-53,-20,523,-31
-101,22,116,60,-98,76,-26,17,-53,-20,523,-31
-101,22,116,60,-104,76,-26,17,-53,-20,529,-31
-101,22,116,60,-104,76,-32,11,-53,-20,529,-31
-101,22,116,60,-104,76,-38,11,-53,-20,529,-25
-101,22,116,60,-104,76,-44,11,-53,-20,529,-19
-101,22,116,60,-104,76,-50,11,-53,-20,529,-19
-101,22,116,60,-104,76,-56,5,-53,-20,535,-19
-101,22,116,60,-104,76,-62,0,-53,-14,541,-13
-101,22,116,60,-104,76,-74,-6,-53,-14,547,-13
-101,22,116,60,-104,76,-86,-12,-53,-14,553,-13
-101,22,116,60,-104,76,-92,-18,-53,-8,553,-13
-101,22,116,60,-104,82,-98,-24,-53,-2,553,-7
-101,22,116,60,-104,82,-104,-30,-53,-2,553,-1
-101,28,116,60,-104,82,-104,-30,-53,-2,553,-1
-101,28,116,54,-104,82,-110,-30,-53,4,553,5
-101,34,116,54,-104,88,-110,-30,-53,10,553,5
-101,34,122,54,-104,94,-110,-30,-53,16,553,11
-101,34,122,54,-104,94,-110,-30,-53,16,553,11
-101,34,128,54,-104,94,-116,-30,-53,16,553,11
-101,34,128,54,-104,94,-116,-30,-53,16,553,11
-101,34,128,54,-104,94,-116,-30,-53,16,553,11
-95,40,128,48,-104,94,-116,-30,-53,16,553,11
-95,40,128,48,-104,94,-116,-30,-53,16,559,11
-95,46,128,48,-104,100,-116,-30,-53,16,559,11
-95,46,128,42,-104,100,-116,-30,-53,16,559,11
-89,46,128,36,-104,100,-116,-30,-53,16,565,11
-83,46,128,30,-104,100,-116,-30,-53,16,565,11
-77,46,128,30,-104,100,-116,-30,-53,16,565,11
-77,46,128,30,-104,100,-116,-36,-53,16,565,11
-83,46,128,36,-110,100,-116,-36,-53,16,565,11
-89,46,128,42,-116,100,-116,-36,-53,16,565,11
-89,46,128,42,-116,100,-116,-36,-53,16,565,11
-89,46,128,42,-116,100,-116,-36,-53,16,565,11
-89,46,128,42,-116,100,-116,-36,-53,16,565,11
-89,46,128,42,-116,100,-116,-36,-53,16,565,11
-89,46,128,42,-116,100,-116,-36,-53,16,565,11
-89,46,128,42,-116,100,-116,-36,-53,16,565,11
-89,46,128,42,-116,100,-116,-36,-53,16,565,11
-89,46,128,42,-116,100,-116,-36,-53,16,565,11
-89,46,122,42,-110,100,-116,-36,-59,16,565,11
-83,46,122,42,-104,100,-116,-36,-65,16,559,11
-83,46,122,42,-104,100,-110,-36,-65,16,559,11
-83,46,122,42,-104,100,-110,-36,-71,16,553,11
-83,40,122,42,-104,100,-104,-36,-77,16,553,11
-89,34,122,42,-104,100,-104,-36,-77,16,553,11
-89,34,122,42,-104,100,-104,-36,-77,16,553,11
-89,40,122,42,-104,100,-104,-36,-77,16,553,11
-89,40,122,42,-104,100,-98,-36,-77,16,553,11
-89,40,122,42,-104,100,-92,-36,-77,16,553,11
-89,40,122,42,-104,100,-92,-36,-77,16,553,11
-89,40,122,42,-104,100,-92,-36,-77,16,553,11
-89,40,122,42,-104,100,-86,-36,-77,16,553,17
-89,46,122,36,-104,106,-80,-36,-77,16,553,23
-89,46,122,36,-104,106,-80,-36,-77,16,553,23
-89,46,122,36,-104,106,-80,-36,-77,16,553,23
-89,46,122,36,-104,106,-74,-36,-77,16,553,23
-89,46,122,36,-104,106,-68,-36,-77,16,553,23
-89,46,122,36,-104,106,-62,-36,-77,16,553,23
-89,46,122,42,-104,106,-62,-36,-77,16,553,23
-89,40,122,42,-104,106,-62,-36,-77,16,553,23
-89,40,122,42,-104,106,-62,-36,-77,16,553,23
-89,40,116,42,-104,106,-62,-36,-77,16,553,23
-89,34,110,48,-104,100,-62,-36,-77,16,553,23
-95,28,110,48,-104,94,-56,-36,-77,16,547,23
-95,28,110,54,-104,94,-50,-36,-77,16,541,23
-101,28,110,54,-104,94,-44,-36,-77,10,541,23
-107,22,110,60,-104,94,-38,-42,-77,10,535,23
-107,16,110,60,-104,94,-32,-48,-83,10,529,23
-101,16,104,60,-98,94,-32,-54,-89,10,523,23
-101,16,104,60,-98,88,-32,-60,-95,10,523,23
-101,16,104,60,-98,88,-32,-60,-95,10,523,23
-101,22,104,54,-98,88,-32,-60,-95,10,523,23
-101,22,104,54,-98,88,-32,-60,-95,10,523,23
-101,22,104,54,-98,88,-32,-60,-95,10,523,23
-101,22,104,54,-98,88,-32,-60,-95,4,523,17
-101,22,104,54,-98,88,-32,-66,-101,-2,517,17
-101,16,104,54,-98,88,-32,-78,-107,-8,517,17
-101,10,104,60,-98,88,-32,-90,-113,-14,517,11
-101,4,104,60,-98,82,-38,-102,-119,-14,511,11
-107,-1,104,60,-98,76,-44,-108,-125,-20,505,11
-107,-7,104,66,-98,70,-50,-114,-131,-26,499,5
-107,-7,98,72,-98,64,-56,-120,-131,-32,493,5
-107,-7,92,72,-98,64,-56,-120,-137,-32,493,5
-107,-7,92,72,-98,64,-56,-120,-137,-32,493,5
-107,-7,92,72,-98,64,-56,-120,-137,-32,493,5
-107,-7,92,72,-98,64,-56,-120,-137,-32,493,5
-107,-7,92,72,-98,64,-56,-120,-137,-32,493,5
-107,-7,92,72,-98,64,-56,-120,-137,-32,493,5
-107,-7,92,72,-98,64,-56,-120,-137,-32,493,5
-107,-7,92,72,-98,64,-56,-120,-137,-26,493,5
-101,-1,92,66,-98,70,-56,-120,-137,-20,493,5
-95,4,92,60,-98,70,-56,-120,-137,-20,493,5
-89,10,92,54,-98,70,-56,-114,-131,-20,499,5
-89,10,92,54,-98,70,-56,-108,-125,-14,499,5
-89,10,92,54,-92,64,-56,-96,-119,-8,499,5
-83,4,80,54,-80,52,-56,-78,-101,4,499,5
-77,-1,56,54,-68,40,-56,-48,-71,27,511,5
-77,-13,38,60,-56,28,-56,-12,-41,57,523,5
-77,-31,20,66,-50,16,-50,41,12,93,547,11
-77,-37,8,66,-44,10,-38,113,102,141,577,17
-65,-31,8,60,-38,10,-26,203,210,243,625,23
-53,-13,8,48,-38,16,-9,281,342,375,727,64
-47,28,32,18,-38,46,3,341,474,555,877,148
-35,100,92,-18,-44,112,9,383,630,789,1081,292
-17,178,140,-59,-50,178,3,395,774,1059,1327,478
13,238,170,-107,-50,220,-20,395,876,1317,1579,670
60,304,188,-161,-50,274,-68,359,948,1587,1837,856
138,418,212,-251,-44,334,-122,245,990,1875,2100,1054
234,550,248,-371,-38,418,-200,41,990,2126,2406,1294
312,694,314,-479,-32,514,-314,-264,888,2348,2681,1540
360,820,392,-575,-26,616,-422,-612,660,2473,2903,1744
390,916,470,-641,-26,706,-500,-912,408,2491,2987,1870
408,958,500,-665,-26,748,-548,-1158,108,2384,2975,1882
414,958,506,-671,-26,766,-590,-1380,-257,1989,2681,1840
414,958,518,-671,-38,772,-662,-1656,-671,1533,2328,1678
390,952,548,-647,-74,778,-752,-1950,-1073,1077,1987,1504
324,910,554,-587,-110,772,-806,-2190,-1535,513,1537,1234
252,790,548,-497,-128,700,-842,-2400,-2057,-200,973,880
174,610,482,-383,-134,562,-872,-2543,-2506,-830,451,514
126,442,368,-275,-134,418,-896,-2591,-2752,-1238,103,250
120,352,260,-233,-110,322,-908,-2597,-2836,-1406,-52,118
120,304,188,-203,-68,268,-908,-2597,-2842,-1466,-118,52
114,262,158,-173,-56,238,-896,-2537,-2806,-1472,-154,11
102,232,146,-149,-50,220,-866,-2334,-2596,-1460,-160,-13
96,220,134,-137,-44,202,-824,-2112,-2351,-1322,-148,-19
96,208,116,-131,-32,172,-782,-1866,-2081,-1172,-88,-19
90,172,92,-119,-20,142,-740,-1644,-1847,-1052,-46,-19
78,130,80,-95,-14,118,-698,-1446,-1649,-944,14,-25
66,112,74,-83,-14,112,-656,-1284,-1481,-842,55,-31
54,100,68,-65,-14,106,-596,-1116,-1319,-752,97,-37
48,76,56,-48,-14,88,-542,-954,-1169,-680,127,-43
43,58,38,-36,-8,70,-488,-840,-1031,-614,145,-55
31,34,26,-18,-8,58,-440,-750,-923,-560,163,-61
19,22,20,-6,-8,46,-386,-654,-809,-494,187,-67
7,16,20,0,-8,40,-332,-576,-719,-446,223,-67
-5,4,20,12,-14,40,-284,-492,-617,-398,259,-73
-29,-7,20,24,-20,34,-242,-408,-533,-344,289,-73
-47,-19,26,42,-32,34,-206,-336,-449,-296,313,-73
-59,-25,26,54,-38,34,-176,-270,-383,-248,331,-73
-59,-31,26,54,-38,34,-158,-216,-341,-206,349,-73
-59,-31,26,54,-38,34,-140,-168,-293,-176,373,-73
-59,-31,26,60,-44,34,-128,-138,-251,-158,385,-73
-59,-31,26,60,-44,34,-116,-108,-221,-128,403,-73
-59,-31,26,60,-44,34,-104,-84,-191,-110,415,-67
-59,-31,26,60,-44,34,-92,-72,-155,-86,433,-61
-59,-31,26,60,-44,34,-80,-60,-131,-62,451,-49
-53,-25,26,54,-44,34,-62,-48,-113,-44,463,-37
-47,-25,26,48,-44,34,-56,-42,-101,-32,475,-31
-47,-25,26,48,-44,34,-56,-36,-95,-26,481,-31
-47,-25,26,48,-44,34,-56,-36,-89,-20,487,-31
-47,-25,26,48,-44,34,-56,-36,-89,-14,487,-31
-47,-25,26,48,-44,34,-56,-36,-89,-8,487,-31
-47,-31,26,48,-44,28,-56,-30,-83,-8,487,-31
-53,-31,26,54,-44,22,-56,-30,-83,-8,487,-31
-53,-31,26,54,-44,22,-56,-30,-77,-2,487,-31
-53,-31,26,54,-44,22,-56,-24,-71,4,493,-31
-53,-31,26,54,-44,22,-56,-24,-65,10,499,-31
-53,-31,26,54,-44,16,-56,-24,-59,10,499,-31
-53,-31,26,54,-44,16,-56,-18,-53,16,499,-31
-53,-31,20,54,-44,16,-56,-18,-53,16,505,-31
-53,-31,20,54,-38,16,-56,-18,-53,16,505,-31
-53,-37,20,54,-38,16,-56,-12,-53,16,505,-31
-53,-37,20,60,-38,16,-56,-12,-53,16,505,-31
-59,-37,20,66,-38,16,-56,-6,-47,16,505,-31
-65,-37,20,72,-38,16,-56,0,-41,16,511,-31
-65,-37,20,72,-38,16,-56,5,-41,21,511,-31
-65,-37,20,72,-38,16,-56,11,-35,27,511,-31
-65,-37,20,72,-38,16,-56,17,-35,33,511,-31
-59,-37,20,72,-38,16,-56,23,-35,39,511,-31
-53,-37,20,72,-38,16,-56,29,-29,45,511,-31
-53,-37,20,72,-38,16,-56,29,-29,45,511,-31
-53,-37,20,72,-38,16,-50,35,-29,45,511,-31
-53,-37,14,72,-38,16,-44,41,-23,45,517,-31
-53,-37,14,72,-38,10,-38,47,-17,51,517,-31
-53,-37,14,72,-38,4,-38,53,-11,51,517,-31
-59,-43,14,72,-38,4,-38,59,-11,51,517,-31
-65,-49,14,78,-38,4,-32,65,-5,57,517,-31
-65,-55,14,78,-38,4,-32,71,1,63,517,-31
-65,-55,14,78,-38,4,-32,77,7,69,517,-31
-65,-55,8,78,-38,-2,-32,83,12,75,517,-25
-59,-55,2,72,-32,-2,-26,89,18,81,517,-19
-53,-49,2,66,-26,-2,-20,95,24,87,517,-19
-47,-43,2,60,-26,-2,-20,101,30,87,523,-19
-47,-43,2,60,-26,-2,-14,107,36,87,529,-19
-47,-43,2,60,-26,-2,-9,113,42,87,529,-19
-47,-43,2,60,-26,-2,-3,113,48,93,535,-19
-47,-43,2,60,-26,-2,3,113,54,99,541,-19
-47,-43,2,60,-26,-2,3,119,66,105,547,-19
-47,-43,2,60,-26,-2,3,119,78,111,553,-19
-47,-43,2,60,-26,-2,3,119,84,117,559,-19
-47,-43,2,60,-20,-2,3,125,90,123,559,-19
-41,-43,-4,60,-20,-2,3,131,102,123,565,-19
-41,-43,-10,60,-14,-2,3,137,114,123,571,-19
-41,-43,-10,60,-14,-2,3,149,120,129,571,-19
-41,-43,-16,60,-14,-2,3,155,126,135,577,-19
-41,-49,-16,60,-14,-8,3,161,132,135,577,-19
-41,-55,-22,60,-14,-14,9,167,138,135,577,-19
-41,-61,-28,66,-14,-26,15,173,144,135,577,-19
-47,-73,-34,78,-14,-38,15,179,144,141,577,-19
-47,-79,-40,78,-8,-44,15,185,150,141,577,-19
-41,-79,-51,78,4,-49,21,191,156,147,583,-19
-41,-85,-57,78,10,-55,21,197,162,153,583,-19
-35,-85,-63,78,16,-55,21,203,168,153,583,-19
-29,-85,-69,78,22,-55,21,209,174,159,589,-19
-23,-85,-69,78,22,-55,27,215,180,165,595,-19
-17,-85,-75,72,28,-55,33,215,186,171,601,-19
-11,-85,-81,72,28,-61,33,215,192,177,607,-19
-11,-85,-87,72,28,-67,33,215,198,177,613,-19
-11,-91,-93,72,34,-73,33,215,204,177,613,-19
-11,-97,-105,72,40,-79,33,221,210,183,613,-19
-5,-97,-117,72,51,-79,33,227,222,195,619,-19
1,-103,-123,72,57,-85,33,233,228,201,625,-19
1,-109,-129,72,63,-91,27,239,234,207,625,-19
7,-109,-135,72,69,-97,27,245,246,213,631,-19
13,-109,-141,72,75,-103,27,257,258,225,637,-19
19,-109,-141,72,81,-103,27,269,270,231,643,-19
19,-109,-147,72,81,-103,27,281,282,237,655,-19
25,-109,-153,72,87,-109,27,293,294,249,661,-19
31,-109,-165,72,99,-109,27,317,312,261,673,-13
43,-109,-177,66,111,-115,27,329,330,273,679,-7
48,-109,-189,66,123,-121,27,341,342,285,685,-1
60,-109,-201,66,135,-133,27,353,354,291,697,5
72,-109,-213,54,147,-139,27,365,366,303,703,5
84,-109,-225,48,159,-145,27,395,378,315,709,5
90,-109,-231,42,165,-151,27,413,402,327,715,5
96,-115,-237,42,171,-157,27,437,414,339,721,5
102,-121,-243,42,177,-163,27,449,432,351,727,5
102,-127,-255,42,183,-169,27,461,444,357,733,5
108,-139,-279,42,195,-181,21,467,450,363,733,5
114,-145,-291,42,207,-193,21,473,456,369,739,11
126,-151,-303,42,219,-205,21,485,462,375,745,11
132,-157,-315,42,225,-217,21,497,474,387,745,11
138,-163,-327,42,231,-229,21,509,486,399,751,11
150,-163,-339,42,243,-235,21,539,498,411,757,11
162,-163,-351,36,261,-241,21,563,516,423,763,11
180,-163,-381,30,291,-253,21,581,528,435,769,11
210,-163,-411,18,321,-259,21,593,540,447,775,17
240,-163,-429,6,345,-271,21,605,552,459,787,17
252,-169,-447,0,363,-283,21,617,558,465,793,17
258,-175,-459,0,369,-301,15,623,564,471,799,17
264,-187,-483,0,375,-313,9,629,570,477,805,17
270,-193,-501,0,381,-325,3,641,576,483,805,17
282,-205,-531,0,393,-343,-3,647,582,489,805,17
294,-217,-543,0,417,-355,-9,659,588,489,811,17
300,-223,-555,0,429,-361,-9,671,594,501,817,17
312,-223,-561,-6,435,-367,-9,683,600,507,823,17
324,-223,-573,-12,447,-373,-9,695,606,513,829,17
354,-223,-591,-24,477,-385,-9,701,618,519,835,23
378,-223,-603,-36,495,-391,-9,713,630,525,841,29
390,-223,-621,-48,507,-397,-9,725,636,531,847,34
390,-223,-633,-48,513,-409,-9,731,642,531,847,34
390,-235,-639,-48,519,-415,-14,731,642,531,847,34
390,-241,-645,-48,525,-421,-20,737,642,531,847,34
390,-247,-651,-48,525,-427,-20,743,642,537,847,34
390,-259,-657,-42,525,-439,-26,749,642,537,847,34
390,-271,-663,-36,531,-451,-26,749,642,537,847,34
390,-277,-669,-36,537,-457,-26,749,642,537,847,34
390,-277,-681,-36,537,-463,-26,755,642,537,847,34
396,-277,-693,-36,543,-463,-26,755,642,537,847,34
402,-277,-693,-36,543,-463,-26,755,648,537,853,34
402,-277,-693,-36,543,-463,-26,755,648,537,859,34
402,-277,-687,-36,543,-457,-20,761,648,537,865,34
402,-271,-681,-36,543,-451,-20,761,648,537,865,34
402,-265,-675,-36,543,-445,-20,761,648,537,865,34
390,-265,-663,-36,531,-445,-20,755,648,531,865,34
372,-265,-651,-30,513,-439,-20,743,642,525,865,34
360,-265,-627,-24,483,-427,-20,719,636,519,865,34
336,-259,-591,-24,453,-415,-20,689,624,513,865,34
318,-253,-561,-18,435,-391,-20,659,612,507,865,29
300,-247,-543,-12,423,-379,-20,635,588,495,865,29
282,-241,-531,-6,411,-367,-20,605,570,483,859,29
270,-235,-501,-6,393,-355,-20,575,540,471,853,29
252,-229,-471,-6,369,-343,-20,545,516,459,841,29
228,-223,-441,0,339,-325,-20,509,492,447,835,29
198,-217,-411,12,297,-301,-20,479,474,435,829,29
174,-211,-381,18,267,-271,-20,443,456,417,823,29
162,-199,-351,24,249,-253,-20,407,432,405,817,29
150,-187,-327,24,237,-229,-20,377,408,393,817,29
150,-157,-315,24,231,-205,-20,353,390,375,811,29
150,-127,-285,18,219,-187,-26,329,372,363,793,29
144,-109,-255,12,207,-169,-26,305,348,351,775,29
138,-97,-231,12,195,-151,-26,275,324,339,763,29
126,-91,-201,12,165,-133,-32,257,306,327,757,29
102,-85,-183,12,141,-121,-38,227,276,315,745,29
90,-79,-159,12,123,-103,-44,197,246,291,733,29
78,-73,-141,12,105,-85,-44,167,222,273,721,29
66,-67,-129,12,93,-73,-50,143,210,255,709,29
54,-61,-117,12,87,-67,-50,125,192,243,697,29
48,-55,-105,12,75,-61,-50,107,180,231,691,29
37,-49,-81,12,63,-49,-56,95,168,219,685,29
31,-37,-69,12,51,-38,-62,65,150,207,679,29
31,-25,-57,12,46,-26,-62,47,132,201,673,29
31,-13,-46,12,40,-2,-62,35,120,195,673,29
25,-1,-34,12,28,10,-62,23,108,189,667,29
19,4,-16,12,16,22,-62,17,96,177,667,29
13,16,-4,12,10,28,-62,11,84,171,661,29
7,22,2,12,4,34,-62,5,78,165,655,29
1,22,8,12,-2,34,-62,0,72,159,649,29
-5,22,14,12,-8,34,-62,-6,66,153,643,23
-11,22,20,12,-20,34,-62,-12,54,147,637,23
-23,22,26,18,-26,34,-62,-18,42,135,625,17
-35,16,32,24,-32,34,-68,-24,30,123,613,11
-47,10,32,30,-38,34,-74,-30,18,117,601,11
-53,4,32,36,-44,34,-74,-36,12,111,595,5
-53,4,32,36,-44,34,-74,-42,12,105,589,5
-53,4,38,36,-44,34,-74,-42,7,99,583,5
-59,4,44,42,-50,40,-74,-42,7,99,577,5
-59,4,50,42,-50,40,-74,-42,7,99,577,5
-59,10,50,42,-50,40,-74,-42,7,99,571,5
-53,16,50,36,-50,40,-68,-42,7,99,571,5
-53,22,50,36,-50,46,-62,-42,7,99,571,5
-53,28,50,36,-50,52,-62,-42,7,99,571,5
-53,28,50,36,-50,52,-62,-42,7,99,565,5
-53,28,50,36,-50,52,-62,-42,7,93,565,5
-53,28,56,36,-50,52,-62,-42,7,93,565,5
-53,28,56,36,-50,52,-62,-42,12,93,565,5
-53,28,56,36,-50,52,-62,-42,30,93,565,5
-53,28,56,36,-50,52,-62,-42,42,93,559,5
-53,28,56,36,-50,58,-62,-42,54,93,559,5
-53,28,56,36,-50,58,-62,-42,60,93,559,5
-53,28,56,36,-50,58,-62,-42,66,93,559,5
-53,28,56,36,-50,58,-62,-42,72,93,559,5
-53,28,56,36,-50,58,-56,-36,78,93,559,5
-53,28,56,36,-50,58,-56,-30,84,93,559,5
-53,28,56,36,-50,58,-50,-24,96,93,559,5
-53,28,56,36,-50,58,-44,-18,102,93,559,5
-53,28,56,36,-50,58,-44,-12,108,93,559,5
-53,28,56,36,-50,58,-38,-12,114,93,559,5
-47,28,56,36,-50,58,-38,-12,114,93,559,5
-47,28,56,36,-50,58,-32,-12,114,93,559,5
-47,22,56,36,-50,58,-26,-12,114,93,559,5
-47,16,56,36,-50,58,-26,-12,114,93,559,5
-53,10,56,36,-50,52,-20,-6,114,93,559,-1
-53,4,56,36,-50,52,-20,-6,114,93,553,-1
-53,-1,56,42,-50,52,-20,-6,114,93,547,-7
-53,-1,56,48,-50,52,-20,-6,114,93,547,-7
-59,-1,56,48,-56,52,-20,-6,114,93,547,-7
-65,-1,56,48,-56,52,-20,-12,114,93,547,-7
-65,-1,56,48,-56,52,-20,-12,114,93,547,-7
-71,-1,56,48,-56,52,-20,-18,114,93,547,-7
-71,-1,56,48,-56,52,-20,-24,114,93,547,-7
-71,-1,56,54,-56,52,-20,-30,114,93,547,-7
-71,-1,56,54,-56,52,-20,-36,114,93,547,-7
-71,-1,56,54,-56,52,-20,-42,114,93,541,-7
-71,-1,56,54,-56,52,-20,-42,114,93,541,-7
-71,-1,56,54,-56,52,-14,-48,114,93,535,-7
-71,-1,56,54,-56,52,-14,-54,114,93,529,-7
-71,4,56,54,-56,52,-14,-54,114,93,529,-7
-71,10,56,54,-56,52,-14,-54,114,93,529,-7
-65,10,56,48,-56,52,-14,-54,114,93,529,-7
-65,10,56,42,-56,52,-14,-54,114,93,529,-7
-65,10,56,42,-56,52,-14,-54,114,93,529,-7
-65,10,56,42,-56,52,-14,-54,114,93,529,-7
-65,10,56,42,-56,52,-14,-54,114,93,529,-7
-65,10,56,42,-56,52,-14,-60,114,93,529,-7
-65,10,62,42,-56,52,-14,-60,114,93,529,-7
-71,10,62,42,-62,52,-14,-60,114,93,529,-7
-71,10,62,42,-62,52,-14,-60,114,93,529,-7
-71,10,62,42,-62,52,-20,-66,114,93,523,-7
-71,10,62,42,-62,52,-20,-66,114,93,517,-7
-71,10,62,42,-62,52,-20,-66,114,93,511,-7
-71,16,68,42,-62,58,-20,-66,114,93,511,-7
-71,22,68,42,-62,64,-20,-66,114,93,511,-7
-71,22,68,42,-62,64,-20,-66,114,93,511,-7
-71,22,68,42,-62,64,-20,-66,114,99,505,-7
-71,22,68,42,-62,64,-20,-66,114,99,499,-7
-71,22,74,42,-62,64,-20,-66,114,99,499,-7
-71,22,80,42,-62,64,-20,-66,114,105,499,-7
-71,22,80,42,-62,64,-26,-66,114,105,499,-7
-71,22,86,42,-68,64,-32,-66,114,105,493,-7
-71,22,86,42,-68,64,-38,-66,114,105,487,-7
-71,28,86,42,-68,70,-38,-66,114,105,475,-7
-71,34,86,36,-68,76,-38,-66,114,111,469,-7
-71,40,86,36,-68,82,-38,-66,114,117,463,-7
-71,46,86,30,-68,82,-38,-66,114,117,457,-7
-71,46,86,30,-68,82,-38,-66,114,117,451,-7
-71,46,86,30,-68,82,-38,-66,114,117,445,-7
-71,46,86,30,-68,82,-38,-66,114,117,439,-7
-71,46,86,30,-68,82,-38,-66,114,117,439,-7
-71,46,86,30,-68,82,-38,-66,114,117,433,-7
-71,46,86,30,-68,82,-38,-66,114,117,433,-7
-71,46,86,30,-68,82,-38,-66,114,117,427,-7
-71,46,86,30,-74,82,-38,-66,108,117,421,-7
-71,40,86,30,-74,82,-38,-66,108,117,415,-7
-71,40,86,30,-74,82,-38,-66,108,117,409,-7
-71,40,86,30,-74,82,-38,-66,108,117,397,-7
-71,40,86,30,-74,82,-38,-66,108,117,391,-7
-71,40,86,30,-74,82,-38,-66,108,117,385,-7
-71,40,86,30,-74,82,-38,-66,108,117,379,-7
-71,34,86,36,-74,76,-38,-66,102,117,367,-7
-71,34,80,36,-74,70,-38,-66,96,117,355,-7
-71,34,80,36,-74,70,-38,-66,96,117,349,-7
-71,34,80,36,-74,70,-38,-60,96,117,343,-7
-71,34,80,36,-74,70,-38,-54,96,117,343,-7
-71,34,80,36,-74,70,-38,-54,96,111,337,-7
-71,28,80,36,-74,70,-38,-54,96,105,331,-7
-71,28,80,36,-74,70,-38,-48,96,99,325,-7
-71,28,80,36,-74,70,-38,-42,96,99,325,-7
-65,28,80,36,-74,70,-38,-42,96,99,325,-7
-65,28,80,36,-74,70,-38,-36,102,99,319,-7
-65,28,74,36,-68,70,-38,-36,108,99,313,-7
-65,28,68,36,-68,70,-38,-36,114,99,307,-7
-65,28,68,36,-68,70,-38,-36,120,99,307,-7
-65,28,74,36,-68,70,-38,-36,120,99,301,-7
-71,28,80,36,-74,70,-38,-36,126,99,295,-7
-77,28,86,36,-74,70,-38,-42,126,99,289,-7
-83,28,86,36,-74,70,-38,-42,126,99,289,-7
-83,28,86,36,-74,70,-38,-42,126,99,283,-7
-83,28,86,36,-74,70,-38,-42,126,99,283,-7
-83,28,86,36,-74,70,-38,-42,126,99,277,-7
-83,28,86,36,-74,70,-38,-48,126,93,271,-7
-83,28,86,36,-74,70,-38,-54,126,93,271,-7
-83,28,86,36,-74,70,-38,-54,126,93,265,-13
-83,28,86,36,-74,70,-38,-54,126,93,259,-19
-83,28,86,36,-74,70,-38,-60,126,87,259,-25
-83,28,86,36,-74,70,-38,-66,126,87,253,-31
-83,28,86,36,-74,70,-38,-72,126,87,253,-37
-83,28,86,36,-74,70,-38,-78,126,87,247,-43
-83,28,86,36,-74,70,-44,-84,126,87,241,-49
-83,28,86,36,-74,70,-44,-84,126,87,241,-49
-83,28,86,36,-74,70,-50,-90,126,87,241,-49
-83,28,86,36,-74,70,-56,-90,126,87,235,-49
-83,28,86,42,-74,70,-62,-90,126,81,229,-55
-95,16,86,54,-80,70,-68,-96,126,75,229,-55
-107,10,86,60,-92,70,-74,-96,126,75,223,-55
-113,10,86,66,-98,70,-80,-96,126,75,217,-55
-113,10,86,66,-98,70,-80,-96,126,75,211,-55
-113,10,86,66,-98,70,-80,-96,126,75,211,-55
-107,10,86,60,-98,70,-80,-96,132,75,211,-55
-101,16,86,54,-98,70,-80,-96,132,75,211,-55
-89,22,86,48,-92,70,-80,-96,132,75,211,-55
-83,34,86,36,-86,70,-80,-96,132,75,211,-55
-77,40,86,30,-86,70,-80,-96,132,75,211,-55
-77,40,86,30,-80,70,-80,-96,132,75,205,-55
-77,40,86,30,-80,70,-80,-96,132,75,205,-55
-83,40,92,36,-86,70,-80,-96,138,75,199,-55
-89,40,98,42,-92,70,-80,-96,144,75,199,-55
-89,40,98,42,-92,70,-80,-96,144,75,199,-55
-89,40,98,42,-92,70,-80,-96,144,75,205,-55
-89,40,98,42,-92,76,-80,-96,150,75,211,-55
-89,40,98,42,-92,82,-80,-96,150,75,211,-55
-83,46,98,36,-92,88,-80,-96,150,81,217,-55
-77,58,98,30,-92,94,-80,-90,156,87,223,-55
-71,58,104,24,-92,94,-80,-84,156,87,223,-55
-71,58,104,24,-92,94,-80,-72,156,87,223,-55
-71,58,104,24,-92,94,-74,-66,156,87,223,-55
-71,58,104,24,-92,94,-74,-54,156,87,223,-55
-71,58,104,24,-92,94,-74,-42,156,87,223,-55
-71,52,104,24,-92,94,-74,-36,156,87,223,-55
-71,52,104,24,-92,94,-74,-30,156,87,223,-55
-71,52,104,24,-92,94,-74,-30,156,93,223,-55
-71,52,104,24,-92,94,-68,-24,156,93,223,-55
-71,52,104,24,-92,94,-62,-18,162,93,223,-55
-71,52,104,24,-92,94,-56,-12,168,93,223,-55
-71,52,104,24,-92,94,-50,-6,174,93,223,-55
-65,52,104,24,-86,94,-50,0,174,93,223,-55
-59,52,104,18,-80,94,-44,0,174,93,217,-55
-59,52,98,18,-74,94,-38,5,174,93,217,-55
-59,52,98,18,-74,94,-38,11,174,93,211,-55
-59,52,98,18,-74,94,-38,11,174,93,211,-55
-59,52,98,18,-74,94,-32,11,174,93,211,-55
-59,46,98,24,-74,88,-32,11,174,93,211,-55
-65,40,98,30,-74,82,-32,11,174,93,211,-55
-71,34,98,36,-74,82,-32,11,174,93,211,-55
-71,28,92,36,-74,76,-32,11,174,93,211,-55
-71,28,86,36,-74,76,-32,11,174,93,211,-55
-71,28,80,36,-74,76,-38,11,174,93,211,-55
-65,34,80,30,-68,76,-44,11,174,93,211,-55
-59,34,80,24,-62,76,-50,11,174,93,211,-55
-53,34,74,24,-56,76,-56,5,174,93,211,-55
-53,34,68,24,-56,70,-62,5,174,93,211,-55
-53,34,68,24,-56,70,-62,5,174,93,211,-55
-53,34,68,24,-56,70,-62,0,174,93,211,-55
-53,34,68,24,-56,70,-62,0,174,93,211,-55
-53,34,68,24,-56,70,-62,0,174,93,211,-55
-59,34,68,24,-62,70,-62,-6,174,93,211,-55
-65,34,68,24,-62,70,-62,-6,174,93,211,-55
-65,34,68,24,-62,70,-62,-12,174,93,211,-55
-65,34,68,24,-62,70,-62,-12,174,93,211,-49
-59,34,68,24,-62,70,-62,-12,174,93,211,-43
-59,34,68,24,-62,70,-62,-18,168,93,211,-43
-59,34,68,24,-62,70,-62,-24,162,93,205,-43
-59,34,68,24,-62,70,-62,-30,156,93,199,-43
-59,34,68,24,-56,70,-62,-36,150,87,193,-43
-59,34,62,24,-56,64,-62,-42,144,81,187,-43
-59,22,56,24,-56,58,-62,-48,138,81,181,-43
-65,16,56,30,-56,52,-62,-54,132,81,181,-43
-65,10,56,36,-56,52,-62,-60,126,75,175,-43
-65,10,56,36,-56,52,-68,-66,120,75,169,-43
-65,10,56,36,-56,52,-74,-72,120,75,169,-43
-65,4,56,36,-56,52,-80,-78,114,69,169,-43
-71,4,56,42,-56,52,-86,-84,108,63,169,-43
-77,4,56,42,-62,52,-86,-84,108,63,169,-43
-77,4,56,42,-62,52,-86,-84,108,63,169,-43
-77,4,56,42,-62,52,-86,-84,108,63,169,-43
-77,4,56,42,-62,52,-86,-84,108,63,169,-43
-77,4,56,42,-62,52,-86,-84,108,63,169,-37
-71,16,56,36,-62,52,-86,-84,114,63,169,-37
-65,22,56,30,-62,52,-86,-78,114,63,169,-31
-65,28,56,24,-62,52,-86,-78,114,63,169,-31
-65,28,56,24,-62,52,-86,-78,114,63,169,-31
-65,28,56,24,-62,52,-86,-78,114,63,163,-31
-65,28,56,24,-62,52,-86,-78,114,63,157,-31
-71,22,56,30,-62,52,-86,-78,114,57,151,-31
-77,22,62,36,-62,52,-86,-78,114,57,151,-31
-77,22,74,36,-62,58,-86,-78,114,57,151,-31
-77,28,80,36,-62,64,-80,-72,114,57,151,-25
-77,34,80,30,-62,70,-80,-66,120,63,151,-19
-77,34,80,30,-62,70,-80,-60,126,69,151,-13
-77,40,86,30,-68,76,-80,-54,132,75,151,-13
-77,40,86,30,-68,76,-80,-48,138,75,151,-13
-71,40,86,24,-68,76,-74,-42,144,75,151,-7
-65,46,86,18,-68,76,-74,-36,150,81,157,-1
-65,46,86,18,-68,76,-74,-30,156,81,157,-1
-65,46,86,18,-68,76,-74,-30,156,81,157,-1
-65,46,86,18,-68,76,-68,-24,156,81,157,-1
-65,46,86,18,-68,76,-62,-18,156,81,157,-1
-59,46,86,12,-68,76,-56,-12,156,81,157,-1
-59,46,86,12,-68,76,-56,-12,156,81,157,-1
-59,46,86,12,-68,76,-56,-12,156,81,157,-1
-59,46,86,12,-68,76,-56,-12,156,81,157,-1
-59,46,86,12,-68,76,-56,-12,156,81,157,-1
-59,46,86,12,-68,76,-56,-12,156,81,157,-1
-59,46,86,12,-68,76,-50,-12,156,81,157,-1
-59,46,86,12,-68,76,-50,-12,156,81,157,-1
-59,46,86,12,-68,76,-50,-12,156,81,157,-1
-59,46,86,12,-68,76,-50,-12,156,81,157,-1
-59,46,86,12,-68,76,-50,-12,156,81,151,-1
-59,46,86,12,-68,76,-50,-12,156,81,151,-1
-59,46,86,12,-68,76,-50,-12,156,81,151,-1
-59,46,86,12,-68,76,-50,-12,156,81,145,-1
-59,46,86,12,-68,76,-50,-12,156,81,139,-1
-59,46,86,12,-68,76,-50,-12,156,81,139,-1
-65,46,92,12,-74,76,-50,-12,156,81,139,-1
-65,46,92,12,-74,76,-50,-12,156,81,139,-1
-65,46,92,12,-74,76,-50,-12,156,81,139,-1
-65,46,92,12,-74,76,-50,-12,156,81,139,-1
-65,40,86,12,-74,76,-50,-12,156,81,133,-1
-65,40,86,12,-74,70,-50,-18,156,75,133,-1
-65,34,86,18,-74,70,-56,-24,156,75,127,-1
-65,28,74,18,-68,64,-68,-30,150,69,127,-1
-65,22,68,18,-62,58,-80,-36,144,63,121,-1
-65,22,62,18,-62,58,-86,-42,138,63,115,-1
-65,22,62,18,-62,58,-86,-48,138,63,115,-1
-65,22,62,24,-62,58,-86,-48,138,63,115,-1
-65,22,62,24,-62,58,-86,-48,138,63,109,-1
-65,22,68,24,-62,58,-92,-48,138,63,109,-1
-65,22,68,24,-62,58,-92,-54,138,63,109,-1
-65,22,68,24,-62,58,-98,-60,138,63,109,-1
-65,22,74,24,-62,58,-98,-60,138,63,109,-1
-65,28,74,24,-62,58,-104,-60,138,63,109,-1
-65,28,74,24,-62,58,-110,-66,138,63,103,-1
-65,28,74,24,-68,58,-110,-66,138,57,97,-1
-71,28,74,24,-68,58,-110,-72,132,51,91,-1
-71,28,74,24,-68,58,-110,-72,132,51,85,-1
-71,22,74,24,-68,58,-110,-72,126,51,79,-1
-71,22,74,24,-68,58,-110,-72,126,51,79,-1
-71,22,74,24,-68,58,-110,-72,126,51,79,-1
-71,22,74,24,-68,58,-110,-72,126,51,79,-1
-71,22,74,24,-68,58,-110,-72,120,51,79,-1
-71,22,74,24,-68,58,-110,-72,114,45,73,-1
-71,22,74,24,-68,58,-110,-72,114,45,73,-1
-71,22,74,24,-68,58,-110,-72,114,39,73,-1
-71,22,74,24,-68,58,-110,-72,114,39,73,-1
-71,22,74,24,-68,58,-110,-72,108,33,67,-1
-71,22,74,30,-68,58,-110,-72,108,27,61,-1
-77,22,74,30,-68,58,-110,-72,108,27,61,-1
-83,22,74,36,-74,58,-110,-72,108,27,61,-1
-83,22,74,36,-74,58,-116,-72,102,27,61,-1
-83,22,74,36,-74,58,-116,-72,102,27,61,-1
-77,28,74,30,-74,58,-116,-72,102,27,61,-1
-71,34,80,24,-74,64,-116,-72,102,27,61,-1
-65,34,80,18,-74,64,-116,-72,102,27,61,-1
-65,34,80,18,-74,64,-116,-72,102,27,61,-1
-71,34,80,18,-74,64,-116,-72,102,27,61,-1
-77,34,80,18,-74,64,-116,-72,102,27,61,-1
-77,34,80,18,-74,64,-110,-72,102,27,61,-1
-77,34,80,18,-74,64,-110,-72,102,27,61,-1
-77,34,80,18,-74,64,-110,-66,108,27,61,-1
-77,34,80,18,-74,64,-110,-60,114,27,61,5
-77,34,86,18,-74,64,-104,-54,120,27,61,5
-77,34,92,18,-74,70,-98,-48,120,27,61,5
-71,46,92,12,-74,76,-92,-42,126,27,61,11
-71,46,92,12,-74,82,-86,-36,132,27,61,11
-71,46,92,12,-74,82,-80,-30,132,27,61,11
-71,46,92,12,-74,82,-74,-24,132,27,61,11
-71,46,92,12,-74,82,-68,-18,132,33,61,11
-71,46,92,12,-74,82,-68,-12,132,33,61,11
-71,46,98,12,-74,82,-68,-12,132,33,61,11
-71,46,98,12,-74,82,-68,-6,132,33,61,11
-71,46,98,12,-74,82,-68,-6,132,39,61,11
-71,46,98,12,-74,82,-68,-6,132,45,61,17
-71,46,98,12,-74,82,-62,0,138,51,61,23
-71,46,104,12,-74,82,-62,0,144,51,61,23
-71,46,104,12,-74,82,-62,0,144,51,61,23
-71,46,104,12,-74,82,-62,0,144,51,61,23
-65,46,104,12,-74,82,-62,0,144,51,61,23
-65,46,104,12,-74,82,-62,0,144,51,61,23
-65,46,104,12,-74,82,-62,0,144,51,61,23
-59,46,104,12,-74,82,-62,0,144,51,61,23
-59,46,98,12,-74,82,-62,5,144,51,61,23
-59,46,98,12,-74,82,-62,5,144,51,61,23
-59,46,98,12,-74,82,-62,5,144,51,61,23
-59,46,98,12,-74,82,-62,5,144,51,61,23
-59,46,98,12,-74,82,-62,5,144,51,61,23
-59,46,98,12,-74,82,-62,5,144,51,61,23
-59,46,92,12,-74,82,-62,5,144,51,55,23
-59,46,92,12,-74,82,-62,5,144,51,55,23
-59,46,92,12,-74,82,-62,5,144,51,55,23
-59,46,92,12,-74,82,-68,5,144,51,49,23
-59,46,92,12,-74,82,-68,5,144,51,49,23
-59,46,86,12,-68,82,-68,5,144,51,49,23
-59,40,80,12,-62,76,-68,5,144,51,49,23
-59,34,80,12,-62,70,-68,5,144,51,49,23
-59,34,80,12,-62,70,-68,5,144,51,43,23
-59,34,80,12,-62,70,-68,5,144,51,43,23
-53,34,80,12,-62,70,-68,5,144,51,38,23
-53,34,80,12,-62,70,-68,5,144,51,38,23
-53,34,80,12,-62,70,-68,5,144,51,32,23
-53,34,80,12,-62,70,-68,5,144,51,26,23
-53,34,80,12,-62,70,-68,5,144,51,26,23
-53,34,80,12,-62,70,-68,5,144,51,26,23
-53,34,80,12,-62,70,-74,5,144,51,26,23
-53,40,80,12,-62,70,-80,5,144,51,26,23
-59,40,80,12,-68,70,-80,0,144,51,26,23
-65,40,86,12,-68,70,-80,-6,138,45,20,23
-71,40,86,12,-74,70,-80,-12,132,39,20,23
-71,40,92,18,-74,70,-86,-18,132,33,20,23
-71,40,92,18,-74,70,-86,-18,132,33,20,23
-71,40,98,18,-74,70,-86,-18,132,33,20,23
-89,40,122,24,-92,82,-62,-18,132,21,2,11
-95,40,128,24,-98,82,-62,-18,126,10,-10,5
-77,40,116,18,-86,82,-98,-18,126,16,-4,17
-53,46,104,6,-74,82,-134,-18,126,27,8,29
-41,52,98,-6,-62,82,-134,-18,126,33,14,29
-35,58,92,-6,-56,82,-134,-18,126,39,20,29
-35,58,92,-6,-56,82,-134,-24,126,39,20,29
-35,52,86,0,-56,76,-134,-30,126,39,20,29
-35,52,86,0,-50,76,-134,-36,120,39,20,34
-29,52,86,-6,-50,76,-140,-36,120,45,26,40
-23,58,86,-12,-50,76,-146,-36,120,45,26,52
-17,58,80,-18,-44,76,-158,-42,114,45,26,58
-11,58,68,-24,-38,70,-188,-42,114,51,32,64
1,58,50,-30,-20,64,-200,-42,114,63,43,70
19,58,38,-36,10,58,-218,-42,120,81,55,76
48,64,26,-48,34,52,-236,-42,126,105,79,88
66,70,14,-59,46,52,-254,-42,126,117,91,112
78,70,2,-65,57,52,-284,-42,126,129,97,130
84,70,-10,-71,63,46,-320,-42,126,141,103,154
96,70,-28,-77,69,34,-356,-60,114,147,115,178
108,70,-57,-89,87,22,-404,-114,102,153,127,202
138,70,-87,-95,111,10,-440,-174,90,159,139,214
168,70,-123,-101,153,-14,-482,-210,66,171,157,226
234,70,-183,-119,225,-38,-524,-216,60,195,181,244
318,70,-231,-167,285,-55,-548,-216,60,231,211,274
360,70,-279,-197,333,-67,-572,-216,60,273,241,310
390,70,-321,-209,363,-97,-596,-210,72,315,265,340
396,70,-345,-215,375,-115,-608,-180,114,357,289,364
408,70,-357,-221,381,-121,-614,-108,216,447,343,388
426,76,-357,-239,393,-121,-614,-18,348,573,445,442
462,124,-357,-281,405,-115,-614,65,522,771,601,556
504,190,-345,-335,417,-73,-620,131,714,1005,799,700
558,274,-327,-401,429,-14,-656,149,840,1257,1051,892
618,370,-297,-485,441,40,-746,113,870,1515,1315,1120
684,448,-279,-563,459,88,-854,-48,876,1767,1573,1348
768,520,-273,-647,489,130,-938,-204,876,2007,1843,1570
840,610,-267,-731,525,166,-1016,-384,858,2258,2118,1792
924,718,-261,-821,555,226,-1118,-612,786,2479,2412,2038
1008,850,-231,-917,585,310,-1190,-816,708,2695,2687,2277
1056,964,-159,-995,591,400,-1226,-966,642,2869,2921,2486
1086,1012,-105,-1031,591,448,-1244,-1080,546,2899,2987,2576
1092,1018,-99,-1037,591,454,-1244,-1134,378,2779,2909,2570
1092,994,-111,-1031,597,442,-1238,-1170,156,2360,2507,2361
1080,898,-171,-989,609,376,-1202,-1194,-113,1833,2023,2068
1020,760,-231,-887,609,274,-1118,-1206,-359,1317,1537,1738
900,580,-297,-737,609,160,-1004,-1206,-617,759,997,1336
780,352,-375,-563,603,-8,-860,-1206,-881,147,421,856
672,124,-489,-395,603,-175,-734,-1194,-1079,-368,-88,412
582,-43,-573,-269,603,-301,-620,-1146,-1163,-686,-406,106
516,-169,-627,-167,597,-397,-512,-1044,-1169,-812,-562,-73
438,-277,-669,-83,585,-457,-404,-906,-1145,-830,-616,-181
342,-319,-669,-24,531,-475,-308,-738,-995,-818,-622,-223
276,-325,-627,6,459,-469,-236,-600,-821,-722,-610,-229
246,-307,-537,12,399,-427,-206,-492,-659,-602,-538,-217
222,-247,-447,12,357,-349,-182,-408,-533,-500,-460,-175
204,-199,-375,12,309,-289,-170,-336,-413,-416,-388,-145
180,-169,-321,12,273,-247,-158,-270,-323,-356,-346,-133
156,-151,-291,12,243,-223,-146,-204,-251,-320,-328,-133
126,-145,-261,12,213,-211,-134,-138,-203,-296,-322,-133
96,-139,-225,12,171,-193,-122,-96,-173,-284,-316,-133
66,-133,-183,18,129,-163,-116,-78,-143,-272,-310,-133
37,-121,-141,18,99,-133,-110,-66,-113,-260,-304,-133
19,-91,-99,18,69,-91,-104,-54,-71,-236,-292,-133
-11,-79,-51,24,34,-55,-86,-36,-23,-206,-280,-133
-41,-73,-22,36,4,-38,-74,-24,12,-176,-268,-133
-59,-67,2,48,-20,-32,-62,-12,30,-158,-256,-133
-71,-67,14,54,-32,-26,-56,0,42,-146,-244,-133
-77,-55,20,54,-38,-14,-50,11,54,-134,-232,-127
-77,-43,26,54,-44,-2,-44,23,66,-122,-220,-121
-77,-37,32,54,-50,10,-38,35,78,-116,-214,-109
-77,-31,38,54,-50,16,-32,47,90,-110,-202,-103
-77,-25,44,54,-50,22,-32,53,96,-104,-202,-103
-83,-25,56,54,-56,28,-32,53,102,-98,-202,-103
-89,-25,62,54,-62,28,-32,53,108,-92,-202,-103
-89,-25,68,54,-62,28,-32,53,108,-86,-202,-103
-89,-25,68,54,-68,28,-32,53,108,-86,-196,-103
-89,-25,74,54,-74,28,-32,53,108,-86,-196,-103
-101,-25,80,54,-86,34,-32,47,108,-86,-196,-103
-113,-25,80,60,-92,34,-32,47,108,-86,-196,-103
-119,-25,80,60,-98,34,-32,41,108,-92,-202,-103
-125,-25,80,66,-104,34,-32,41,108,-92,-202,-103
-131,-25,80,72,-104,34,-32,41,108,-92,-202,-103
-131,-25,80,72,-104,34,-32,41,108,-92,-202,-103
-125,-25,80,72,-104,34,-32,41,108,-92,-202,-103
-119,-19,80,72,-104,34,-32,41,108,-92,-202,-103
-119,-19,80,72,-104,34,-26,41,108,-92,-208,-103
-119,-19,86,72,-104,40,-20,41,108,-92,-208,-103
-119,-13,86,66,-104,46,-20,47,114,-92,-208,-103
-119,-7,92,66,-104,46,-14,47,114,-92,-208,-103
-119,-7,92,66,-104,46,-9,47,114,-92,-208,-103
-119,-7,92,66,-104,46,-3,47,114,-92,-208,-103
-119,-7,92,66,-104,46,9,47,114,-92,-208,-103
-119,-7,98,66,-104,46,15,47,114,-92,-208,-103
-125,-7,104,66,-104,46,21,47,114,-92,-208,-103
-125,-7,104,66,-104,46,27,47,114,-92,-214,-109
-125,-7,104,66,-104,46,33,53,120,-92,-214,-109
-125,-7,104,66,-104,46,45,59,126,-92,-214,-109
-125,-7,104,66,-104,46,51,71,132,-92,-214,-109
-125,-13,104,66,-104,46,57,77,138,-92,-214,-109
-125,-13,104,66,-104,46,57,83,138,-92,-214,-109
-125,-13,104,72,-104,46,57,83,138,-92,-214,-109
-125,-13,104,78,-104,46,57,89,144,-92,-214,-115
-125,-13,104,78,-104,46,57,95,150,-92,-214,-115
-125,-13,104,78,-104,46,57,107,150,-86,-214,-115
-125,-19,104,78,-104,46,57,113,150,-86,-220,-115
-125,-25,98,78,-104,40,57,119,150,-86,-220,-115
-125,-25,98,78,-104,40,69,125,156,-80,-220,-115
-125,-25,98,78,-104,40,81,137,162,-74,-220,-115
-125,-25,98,78,-104,40,87,143,168,-74,-220,-115
-125,-31,92,78,-104,40,93,149,174,-74,-220,-115
-125,-31,86,78,-104,40,93,149,174,-74,-220,-115
-125,-31,80,78,-104,34,93,149,174,-74,-226,-115
-125,-31,80,78,-98,34,93,155,174,-74,-226,-115
-125,-31,80,78,-98,34,93,155,174,-74,-226,-121
-125,-31,80,78,-92,28,93,155,174,-74,-232,-127
-125,-37,80,84,-92,22,93,161,174,-74,-232,-127
-125,-37,80,84,-92,22,93,167,180,-74,-232,-127
-125,-37,80,84,-92,22,93,179,180,-74,-232,-127
-125,-37,74,84,-92,22,93,191,186,-74,-232,-127
-125,-37,74,84,-92,22,99,197,192,-74,-232,-127
-125,-37,74,84,-92,22,99,203,192,-74,-232,-127
-125,-43,74,90,-92,22,99,209,192,-74,-232,-133
-125,-43,74,90,-92,22,99,215,192,-74,-232,-133
-125,-49,74,90,-92,16,105,221,198,-74,-232,-139
-125,-49,74,90,-92,16,111,227,204,-74,-238,-139
-119,-43,74,90,-92,16,123,233,210,-74,-238,-139
-119,-37,74,84,-92,22,129,233,216,-74,-238,-139
-119,-31,74,78,-92,22,135,233,222,-74,-238,-139
-119,-31,74,78,-92,22,135,233,228,-74,-238,-139
-119,-31,74,78,-92,22,135,233,234,-74,-238,-139
-119,-31,74,78,-92,22,129,227,234,-74,-244,-139
-113,-31,74,78,-92,22,129,221,234,-74,-250,-139
-113,-31,74,78,-92,22,123,215,234,-74,-250,-139
-113,-31,74,78,-92,22,123,215,234,-74,-250,-139
-113,-31,74,78,-92,22,123,215,234,-74,-250,-139
-113,-31,74,78,-92,22,123,215,234,-74,-256,-139
-113,-31,74,78,-92,22,123,215,234,-74,-256,-139
-113,-31,74,78,-92,22,117,215,234,-74,-256,-139
-113,-31,74,78,-92,22,111,215,234,-74,-256,-139
-113,-31,74,78,-92,22,99,209,234,-74,-256,-139
-113,-31,74,78,-92,22,93,203,228,-80,-262,-139
-113,-31,74,78,-92,22,87,197,222,-86,-268,-139
-113,-37,74,78,-92,22,81,191,216,-92,-274,-139
-113,-37,74,78,-92,22,75,185,210,-98,-280,-145
-113,-43,74,78,-92,22,75,185,204,-104,-286,-157
-119,-43,74,84,-92,22,75,185,204,-110,-292,-163
-119,-43,74,84,-92,22,75,185,204,-110,-298,-169
-119,-43,74,84,-92,22,75,185,204,-110,-298,-175
-119,-43,68,84,-92,22,75,185,204,-110,-304,-175
-119,-43,62,84,-92,16,75,185,204,-110,-304,-175
-119,-43,62,90,-92,16,75,191,204,-110,-304,-175
-119,-43,62,90,-92,16,81,197,204,-110,-304,-175
-119,-43,62,90,-92,16,87,203,204,-110,-304,-181
-119,-49,62,90,-92,10,87,209,204,-110,-310,-187
-125,-61,62,96,-92,4,93,215,204,-110,-316,-193
-125,-67,62,102,-92,-2,99,215,204,-116,-322,-199
-125,-73,56,108,-92,-8,99,215,204,-116,-328,-205
-125,-79,50,114,-92,-14,99,221,204,-122,-334,-205
-125,-79,44,114,-92,-20,105,233,204,-122,-340,-205
-125,-79,32,114,-86,-26,105,245,210,-122,-340,-205
-119,-79,20,114,-74,-32,105,257,216,-122,-346,-205
-107,-79,8,108,-62,-38,111,269,222,-122,-346,-205
-95,-79,2,102,-50,-38,123,287,228,-122,-346,-205
-77,-79,-10,90,-32,-44,135,299,228,-122,-346,-205
-59,-79,-22,78,-20,-49,141,305,228,-122,-352,-205
-47,-79,-28,72,-14,-49,141,317,228,-122,-358,-211
-47,-79,-34,72,-14,-55,147,329,228,-122,-358,-211
-47,-85,-40,72,-14,-61,153,341,228,-122,-358,-217
-53,-91,-46,78,-14,-67,153,347,228,-128,-364,-229
-53,-97,-51,84,-14,-79,153,353,228,-140,-370,-241
-53,-103,-57,84,-8,-85,153,359,228,-146,-376,-247
-53,-103,-63,84,-2,-91,153,365,228,-152,-382,-253
-47,-103,-75,84,10,-97,153,371,228,-158,-388,-259
-35,-103,-87,84,22,-97,153,371,228,-158,-394,-265
-23,-103,-99,84,34,-103,153,371,228,-158,-400,-265
-17,-109,-117,84,46,-115,159,371,228,-164,-406,-271
-5,-115,-135,84,57,-127,165,377,228,-164,-412,-271
1,-115,-147,84,69,-139,171,383,228,-170,-418,-271
7,-121,-159,84,81,-145,171,389,228,-176,-424,-271
13,-127,-171,84,87,-157,171,395,228,-182,-424,-271
19,-133,-177,84,93,-163,171,401,228,-188,-430,-271
19,-145,-177,84,93,-169,165,407,228,-194,-436,-271
19,-151,-183,84,99,-175,159,413,228,-194,-442,-277
25,-151,-195,84,105,-181,153,413,222,-194,-448,-283
25,-151,-201,84,111,-181,153,419,222,-200,-448,-283
25,-157,-207,84,111,-187,153,419,222,-200,-454,-283
25,-169,-219,84,117,-193,147,419,216,-200,-454,-283
31,-181,-231,84,123,-199,147,419,216,-200,-454,-283
37,-181,-237,84,129,-205,147,419,216,-200,-454,-283
43,-181,-237,84,135,-205,141,419,216,-200,-454,-283
48,-181,-237,84,141,-205,135,419,216,-200,-454,-283
54,-181,-237,78,147,-205,129,413,216,-200,-454,-283
66,-169,-237,66,153,-205,123,413,216,-200,-454,-277
78,-157,-237,54,153,-199,123,413,216,-200,-448,-271
84,-145,-237,48,153,-193,117,407,216,-194,-442,-265
84,-133,-231,42,153,-181,111,395,216,-188,-436,-259
84,-121,-225,36,153,-175,99,371,216,-176,-424,-247
84,-121,-213,36,147,-169,87,359,216,-170,-418,-241
78,-121,-207,36,141,-169,75,341,216,-158,-412,-235
72,-121,-201,36,141,-169,69,329,216,-146,-406,-229
72,-115,-195,36,135,-157,63,323,222,-134,-400,-217
72,-97,-183,30,129,-145,57,311,222,-122,-388,-211
72,-85,-165,24,117,-127,51,299,222,-110,-376,-199
72,-73,-147,24,105,-115,45,287,222,-98,-364,-181
72,-67,-135,18,99,-103,39,275,222,-86,-352,-163
72,-61,-123,12,99,-91,33,263,222,-74,-340,-151
66,-55,-111,12,93,-85,27,239,222,-68,-328,-139
66,-49,-105,12,87,-79,21,215,222,-62,-322,-127
66,-43,-99,12,81,-67,9,191,222,-56,-316,-115
60,-37,-93,12,75,-61,3,173,222,-50,-304,-109
60,-31,-81,6,69,-55,-9,143,216,-50,-298,-103
48,-25,-69,6,63,-49,-14,125,210,-50,-298,-97
37,-25,-57,6,51,-44,-20,113,198,-50,-298,-97
25,-19,-46,6,40,-32,-26,101,192,-50,-298,-91
19,-19,-34,6,28,-26,-32,95,192,-50,-298,-85
13,-19,-28,6,22,-20,-38,89,186,-50,-298,-79
7,-19,-22,6,16,-20,-44,77,180,-50,-298,-73
1,-19,-16,12,10,-20,-50,71,180,-50,-292,-67
-5,-19,-10,12,4,-20,-50,65,174,-50,-292,-67
-11,-19,-4,12,-2,-14,-50,59,162,-50,-292,-67
-11,-13,8,12,-8,-2,-50,47,156,-50,-292,-67
-11,-1,14,12,-8,10,-56,41,150,-50,-292,-67
-11,4,20,12,-8,16,-62,35,150,-50,-292,-67
-17,4,26,12,-14,22,-68,35,144,-50,-292,-67
-29,4,32,12,-20,22,-68,29,144,-50,-292,-67
-29,10,32,12,-26,22,-68,29,144,-50,-292,-67
-29,10,38,12,-26,28,-68,29,144,-50,-292,-67
-29,10,44,12,-32,28,-74,29,144,-50,-292,-67
-29,16,44,12,-32,28,-74,29,144,-50,-292,-67
-29,22,44,12,-32,28,-74,29,144,-50,-292,-67
-23,28,44,6,-32,34,-74,29,144,-50,-292,-67
-23,28,44,6,-32,34,-74,29,144,-50,-292,-67
-23,28,44,6,-32,34,-74,29,138,-50,-292,-67
-29,22,44,12,-32,34,-74,29,132,-56,-292,-67
-35,16,44,18,-32,34,-74,29,132,-62,-298,-67
-35,10,44,24,-32,34,-74,29,126,-62,-304,-67
-41,4,44,30,-32,28,-74,29,126,-62,-304,-67
-47,-1,44,36,-32,22,-74,29,120,-68,-304,-67
-47,-7,44,42,-38,16,-74,29,120,-68,-304,-67
-47,-7,44,42,-38,16,-74,35,120,-74,-304,-67
-47,-7,44,42,-38,16,-74,47,120,-74,-304,-67
-47,-7,44,42,-38,16,-68,59,120,-74,-304,-67
-47,-1,44,36,-38,22,-62,71,120,-74,-304,-67
-47,4,44,30,-38,22,-50,83,120,-74,-304,-67
-47,4,44,30,-38,22,-38,89,120,-74,-304,-67
-47,4,44,30,-38,22,-26,95,126,-74,-304,-67
-47,4,44,30,-38,22,-20,101,126,-74,-304,-67
-47,4,44,30,-38,22,-20,101,126,-74,-304,-67
-47,4,44,30,-38,22,-20,101,126,-74,-304,-73
-47,4,44,30,-44,22,-20,101,126,-80,-310,-79
-47,4,44,30,-44,28,-20,101,126,-86,-316,-79
-47,10,44,24,-44,34,-20,101,126,-86,-316,-79
-41,16,44,18,-44,40,-20,101,132,-86,-316,-79
-41,28,50,18,-44,46,-14,107,144,-86,-316,-73
-41,28,56,18,-44,46,-3,113,156,-86,-316,-73
-41,34,62,18,-44,46,3,119,162,-86,-316,-73
-41,40,62,12,-44,52,9,119,168,-86,-316,-67
-41,40,68,12,-50,58,15,125,174,-80,-316,-61
-47,40,74,12,-56,58,15,131,180,-80,-316,-61
-53,40,74,12,-62,58,15,137,180,-80,-316,-61
-53,40,74,12,-62,58,15,137,180,-80,-316,-61
-53,40,80,12,-68,58,15,137,180,-80,-316,-61
-53,40,92,12,-74,64,15,137,180,-80,-316,-61
-59,40,104,12,-80,70,15,137,180,-80,-316,-61
-59,40,110,12,-80,70,15,137,180,-80,-316,-61
-59,46,110,12,-80,70,15,137,186,-80,-316,-55
-59,46,110,12,-80,76,9,137,186,-80,-316,-49
-59,52,110,12,-80,82,9,137,186,-80,-316,-49
-53,64,110,0,-80,88,9,137,186,-80,-316,-49
-47,76,110,-6,-80,94,9,137,186,-80,-316,-49
-47,82,110,-12,-80,100,9,137,186,-80,-316,-49
-47,94,110,-18,-80,106,9,137,192,-74,-316,-49
-41,100,110,-18,-80,112,9,137,192,-68,-316,-49
-41,100,116,-18,-80,112,9,137,192,-68,-316,-49
-47,100,122,-18,-86,112,9,137,192,-68,-316,-49
-53,94,122,-18,-92,112,9,137,192,-68,-316,-49
-53,94,122,-12,-92,112,3,131,192,-68,-316,-49
-53,88,122,-12,-92,112,-3,125,192,-68,-316,-49
-53,88,122,-12,-92,112,-9,119,192,-68,-316,-49
-53,82,122,-12,-92,112,-14,119,192,-68,-316,-49
-59,82,122,-6,-92,112,-14,119,192,-68,-316,-49
-71,76,122,6,-92,106,-20,113,192,-68,-316,-49
-83,64,122,18,-98,100,-26,107,192,-68,-316,-49
-83,58,122,18,-98,100,-26,107,192,-68,-316,-49
-83,58,122,18,-98,100,-26,107,192,-68,-316,-49
-83,52,122,18,-104,100,-26,101,192,-68,-316,-49
-83,52,122,18,-110,100,-26,101,192,-68,-316,-49
-83,52,122,18,-110,100,-26,101,192,-68,-316,-49
-71,64,122,6,-110,100,-26,101,192,-68,-316,-49
-65,76,122,0,-110,100,-26,101,192,-68,-316,-49
-59,82,122,-6,-110,100,-26,95,192,-68,-316,-49
-47,88,122,-12,-104,100,-32,95,192,-62,-316,-43
-41,94,122,-18,-104,106,-32,95,192,-56,-310,-37
-41,94,128,-18,-104,112,-32,95,192,-44,-304,-25
-41,94,128,-18,-104,112,-32,95,192,-38,-298,-19
-41,94,128,-18,-104,112,-32,95,192,-38,-298,-13
-41,94,128,-18,-104,112,-32,95,192,-38,-298,-13
-41,94,128,-18,-104,112,-32,95,192,-38,-298,-13
-41,94,122,-18,-98,112,-32,95,192,-38,-304,-13
-35,94,116,-18,-92,112,-32,95,192,-38,-310,-13
-35,94,116,-18,-86,112,-32,95,192,-44,-316,-13
-35,88,116,-18,-86,106,-32,95,186,-50,-328,-13
-35,82,116,-12,-86,106,-32,95,180,-56,-334,-19
-35,76,110,-12,-86,100,-32,95,174,-62,-340,-25
-41,76,110,-6,-86,100,-32,95,174,-62,-340,-31
-47,70,110,0,-86,94,-32,95,174,-62,-340,-37
-53,64,110,6,-86,88,-32,95,174,-62,-340,-37
-53,64,110,6,-86,88,-38,95,174,-62,-340,-37
-53,64,110,6,-86,88,-44,89,168,-68,-346,-37
-53,64,110,6,-86,88,-44,83,162,-68,-352,-43
-53,64,104,6,-86,82,-50,83,162,-68,-358,-49
-53,64,104,6,-86,82,-50,77,162,-68,-358,-49
-47,64,104,6,-86,82,-50,77,162,-68,-358,-49
-41,64,98,6,-86,82,-50,77,162,-68,-358,-49
-41,64,98,6,-86,82,-56,71,162,-68,-358,-49
-41,64,98,6,-86,82,-62,71,162,-68,-358,-49
-41,64,92,6,-86,82,-62,65,162,-68,-358,-49
-41,64,92,0,-86,82,-62,65,162,-68,-358,-49
-41,64,92,0,-86,82,-62,65,162,-68,-358,-49
-41,64,92,0,-86,82,-62,65,162,-68,-358,-49
-41,64,92,0,-86,82,-62,59,162,-80,-364,-49
-41,64,92,0,-80,82,-62,59,162,-86,-364,-49
-41,64,92,0,-80,82,-62,59,156,-92,-364,-49
-41,64,92,0,-80,82,-62,59,156,-92,-364,-49
-41,64,92,0,-80,82,-62,59,156,-92,-364,-49
-41,64,92,0,-80,82,-62,59,156,-92,-364,-49
-41,64,92,0,-80,82,-62,59,156,-92,-364,-49
-41,64,92,0,-80,82,-62,59,156,-92,-364,-49
-41,64,92,0,-80,82,-62,59,156,-98,-370,-49
-41,64,92,0,-80,82,-56,59,156,-98,-376,-55
-41,64,92,0,-80,82,-56,59,150,-98,-382,-55
-41,58,92,0,-80,82,-56,59,150,-104,-388,-61
-47,52,92,6,-80,82,-56,59,144,-110,-394,-61
-53,46,92,12,-80,82,-50,59,144,-110,-394,-61
-59,46,92,12,-86,82,-50,53,144,-110,-394,-61
-59,46,92,12,-86,82,-50,53,144,-110,-394,-61
-65,46,92,12,-86,82,-50,53,144,-110,-394,-61
-65,46,92,12,-86,82,-44,53,144,-110,-394,-61
-65,46,92,12,-86,82,-38,53,144,-110,-394,-55
-59,46,92,12,-86,82,-38,53,144,-110,-394,-55
-53,52,92,6,-86,82,-38,53,144,-110,-394,-55
-41,64,92,-6,-80,82,-32,53,144,-110,-394,-55
-41,70,92,-12,-80,82,-32,53,144,-110,-394,-55
-41,70,98,-12,-80,82,-32,53,144,-110,-394,-55
-47,70,98,-6,-86,82,-32,53,144,-110,-400,-61
-53,70,98,-6,-86,82,-32,53,144,-110,-406,-67
-53,70,104,-6,-86,88,-26,53,144,-110,-406,-67
-53,76,110,-6,-86,94,-26,53,144,-110,-406,-67
-53,76,110,-6,-86,94,-26,53,144,-110,-412,-67
-53,76,110,-6,-86,94,-26,47,144,-116,-418,-73
-53,70,110,-6,-86,94,-26,47,144,-116,-418,-73
-53,64,110,-6,-86,94,-20,41,144,-116,-418,-73
-53,58,110,-6,-86,94,-20,35,138,-116,-418,-73
-59,58,110,0,-86,94,-20,35,138,-116,-418,-73
-59,58,110,0,-86,88,-20,35,132,-116,-418,-73
-59,52,110,6,-86,88,-14,29,126,-116,-418,-73
-59,52,104,6,-86,88,-9,29,126,-116,-418,-67
-59,52,104,6,-86,82,-9,29,126,-116,-418,-61
-59,52,104,6,-86,82,-9,29,126,-116,-418,-61
-59,52,104,6,-86,82,-9,29,126,-116,-418,-61
-53,52,104,6,-86,82,-9,29,126,-116,-418,-61
-53,52,98,6,-80,82,-9,29,126,-116,-418,-61
-47,52,98,6,-80,82,-9,29,126,-116,-418,-61
-47,52,98,6,-80,82,-9,29,126,-116,-418,-61
-47,52,98,6,-80,82,-3,29,126,-116,-418,-61
-47,52,98,6,-80,82,-3,29,126,-116,-418,-61
-47,52,98,6,-80,82,-3,29,126,-116,-418,-61
-47,52,98,6,-80,82,-3,35,126,-116,-418,-61
-41,52,92,6,-74,82,-3,35,126,-116,-418,-61
-41,52,86,6,-74,76,-3,35,126,-122,-424,-61
-41,52,86,6,-74,70,-9,35,126,-122,-430,-67
-41,52,86,6,-74,70,-14,35,126,-122,-436,-73
-41,52,86,6,-68,70,-14,35,126,-122,-442,-79
-41,52,86,6,-68,70,-20,35,126,-122,-448,-79
-41,52,86,6,-68,70,-20,35,126,-122,-448,-79
-41,52,86,0,-68,70,-20,35,126,-122,-448,-79
-41,52,86,-6,-68,70,-20,35,126,-122,-448,-79
-41,52,86,-6,-68,70,-20,35,126,-122,-448,-79
-35,52,86,-6,-68,70,-20,35,126,-122,-442,-73
-29,52,86,-6,-68,70,-20,35,126,-122,-436,-67
-29,52,86,-6,-62,70,-20,35,126,-122,-436,-67
-29,46,86,-6,-62,70,-20,35,126,-122,-436,-67
-35,40,86,6,-62,70,-20,35,126,-122,-436,-67
-47,34,86,12,-68,70,-20,35,126,-122,-436,-67
-59,28,86,18,-74,70,-20,35,126,-122,-436,-67
-65,28,86,24,-74,70,-20,35,126,-122,-436,-67
-65,28,86,24,-74,70,-20,35,126,-122,-436,-67
-65,28,86,24,-80,70,-20,35,126,-122,-436,-73
-65,28,86,24,-80,70,-20,35,126,-122,-442,-79
-65,28,86,24,-80,70,-20,35,126,-128,-448,-85
-59,28,86,24,-80,70,-20,35,126,-128,-454,-85
-53,34,86,18,-80,70,-20,35,126,-128,-454,-85
-53,34,86,12,-80,70,-20,35,126,-128,-454,-85
-53,34,80,12,-80,70,-20,35,126,-128,-454,-85
-53,34,80,12,-80,70,-14,35,126,-128,-454,-85
-41,40,80,6,-74,70,-14,35,126,-128,-454,-85
-23,58,80,-6,-68,70,-14,35,132,-128,-454,-85
-5,70,80,-18,-62,76,-14,35,138,-128,-454,-85
1,70,80,-24,-56,76,-14,35,138,-128,-454,-85
1,64,80,-24,-56,70,-9,35,138,-128,-454,-85
-5,52,74,-18,-56,64,-9,35,138,-128,-454,-85
-11,46,68,-12,-56,58,-9,35,138,-128,-460,-85
-17,40,62,-6,-56,52,-9,35,132,-128,-466,-85
-23,34,62,0,-56,52,-9,35,132,-128,-466,-85
-29,28,62,6,-56,46,-9,35,126,-128,-466,-85
-29,28,62,6,-56,46,-9,35,126,-128,-466,-85
-29,28,62,6,-56,46,-14,35,126,-128,-466,-85
-29,28,62,6,-56,46,-20,35,126,-128,-466,-85
-29,28,62,6,-56,46,-20,35,126,-128,-466,-85
-29,34,62,0,-56,46,-26,35,126,-128,-466,-85
-23,40,62,-6,-56,46,-26,35,126,-128,-472,-85
-23,40,62,-6,-56,46,-32,35,126,-128,-478,-91
-23,40,62,-6,-56,46,-32,35,126,-128,-478,-97
-23,40,62,-6,-56,46,-32,29,126,-128,-478,-97
-23,40,62,-6,-56,46,-38,17,126,-134,-478,-103
-23,40,62,-6,-56,46,-38,5,126,-134,-478,-109
-23,40,62,-6,-56,46,-38,0,120,-134,-484,-109
-23,40,62,-6,-56,46,-38,-6,114,-134,-484,-109
-23,40,62,-6,-56,46,-38,-6,114,-134,-484,-109
-17,40,62,-6,-50,46,-38,-6,114,-134,-484,-109
-11,40,56,-6,-44,46,-38,-6,114,-134,-484,-109
-5,40,50,-6,-38,46,-38,-6,114,-134,-484,-109
-5,40,50,-6,-38,46,-38,-6,114,-134,-484,-109
-5,40,50,-6,-38,46,-38,-6,114,-134,-484,-109
-5,40,50,-6,-38,46,-38,-6,114,-134,-484,-109
-5,40,50,-6,-38,46,-38,-6,108,-134,-490,-109
-5,40,50,-6,-38,46,-38,-6,108,-134,-496,-109
-5,40,50,-6,-38,46,-38,-6,108,-134,-496,-115
-5,40,50,-6,-38,46,-38,-6,108,-134,-496,-121
1,40,50,-12,-32,46,-38,-6,108,-134,-496,-121
7,46,50,-18,-26,46,-38,-6,108,-134,-496,-121
13,52,50,-24,-26,46,-38,-6,108,-134,-496,-121
19,52,50,-24,-26,46,-38,0,108,-134,-496,-121
19,52,50,-30,-26,46,-38,5,108,-128,-496,-121
19,52,50,-30,-26,46,-38,11,108,-128,-496,-121
19,52,50,-30,-26,46,-38,11,108,-128,-490,-115
19,52,50,-30,-26,46,-38,17,108,-122,-484,-109
19,52,50,-30,-26,46,-38,17,108,-122,-484,-103
13,46,50,-24,-26,46,-38,17,108,-122,-484,-103
1,40,50,-18,-26,46,-38,17,108,-122,-484,-103
-5,40,50,-12,-32,46,-38,17,108,-122,-484,-103
-5,40,50,-12,-32,46,-38,17,108,-122,-484,-109
-5,46,50,-18,-32,46,-38,17,108,-122,-484,-115
-5,52,50,-24,-32,46,-38,17,108,-122,-484,-115
-5,52,50,-24,-32,46,-38,17,108,-122,-490,-115
-5,52,50,-24,-32,46,-38,23,108,-122,-490,-115
-5,52,50,-24,-32,46,-32,23,108,-122,-490,-115
1,52,50,-24,-32,46,-26,29,114,-122,-490,-115
1,52,50,-24,-32,46,-20,35,114,-122,-490,-115
1,52,50,-24,-32,46,-14,35,114,-122,-490,-115
1,52,50,-24,-32,46,-14,41,120,-122,-490,-115
1,52,50,-24,-32,46,-14,41,126,-122,-490,-115
1,52,50,-24,-32,46,-14,41,126,-122,-490,-115
1,52,50,-24,-32,46,-14,41,126,-122,-490,-115
1,52,50,-24,-32,46,-14,47,126,-122,-496,-115
1,52,50,-24,-32,46,-14,47,126,-122,-496,-115
1,52,50,-24,-32,46,-14,47,126,-122,-496,-115
1,52,50,-24,-32,46,-14,47,126,-122,-502,-115
1,52,50,-24,-32,46,-14,47,126,-122,-508,-115
1,52,50,-24,-32,46,-14,47,126,-122,-514,-115
1,52,50,-24,-32,46,-14,47,126,-122,-514,-115
1,52,50,-24,-32,46,-14,47,126,-122,-514,-115
1,52,50,-24,-32,46,-14,47,126,-122,-514,-115
1,52,50,-24,-32,46,-14,47,126,-122,-514,-115
1,52,44,-24,-32,46,-14,47,126,-122,-514,-115
1,46,38,-18,-32,40,-14,47,126,-122,-514,-121
1,34,32,-18,-32,34,-14,47,126,-122,-514,-127
1,34,32,-18,-32,34,-14,47,126,-122,-514,-133
1,34,32,-18,-32,34,-14,47,126,-122,-514,-139
1,34,32,-18,-32,34,-14,47,126,-122,-514,-139
7,34,32,-18,-26,34,-14,41,120,-128,-520,-145
7,34,32,-18,-26,34,-14,35,120,-134,-520,-145
7,34,32,-18,-26,34,-14,35,120,-134,-520,-145
7,34,32,-18,-26,34,-14,35,120,-134,-520,-139
7,34,32,-18,-26,34,-14,35,120,-134,-520,-139
7,34,32,-18,-26,28,-14,35,120,-134,-520,-133
7,28,26,-18,-26,28,-9,35,120,-134,-520,-127
7,22,20,-12,-26,22,-3,35,120,-134,-520,-127
7,16,14,-12,-26,22,-3,35,120,-134,-520,-127
7,16,14,-12,-26,22,3,35,120,-134,-520,-127
7,16,14,-12,-26,22,3,35,120,-134,-520,-127
7,16,14,-12,-26,22,3,35,120,-134,-526,-127
7,16,14,-12,-26,22,3,35,114,-134,-526,-133
7,16,14,-12,-26,22,3,35,114,-134,-532,-139
7,22,14,-12,-26,22,3,35,114,-134,-532,-145
7,22,14,-12,-26,22,3,35,108,-134,-532,-145
7,22,14,-12,-26,22,3,29,108,-134,-532,-145
1,22,20,-12,-26,22,3,29,108,-134,-532,-145
1,22,26,-12,-26,22,3,23,102,-134,-538,-145
1,22,26,-12,-26,22,3,23,102,-134,-544,-145
7,28,26,-12,-20,22,3,23,102,-134,-544,-145
7,28,26,-12,-20,22,3,23,102,-134,-544,-145
7,28,26,-12,-20,22,3,23,102,-134,-544,-145
1,28,26,-12,-20,22,3,23,102,-134,-544,-145
-5,28,26,-12,-20,22,3,23,102,-134,-544,-145
-5,28,26,-12,-20,22,3,23,102,-134,-544,-145
1,28,26,-12,-20,22,3,23,102,-134,-544,-145
7,34,26,-18,-20,22,3,23,102,-134,-544,-145
19,40,26,-24,-14,22,3,23,102,-134,-544,-145
19,46,26,-24,-14,34,3,23,102,-134,-544,-145
7,52,68,-24,-38,64,33,17,84,-152,-568,-169
-5,58,86,-24,-44,70,39,17,78,-158,-580,-175
7,58,74,-30,-32,70,27,29,90,-134,-568,-163
25,64,56,-42,-14,64,15,35,102,-104,-544,-145
31,64,50,-42,-14,58,15,41,102,-98,-544,-139
31,64,44,-42,-14,52,15,41,108,-98,-544,-139
31,64,38,-42,-14,46,15,41,108,-98,-544,-139
37,64,32,-42,-8,46,9,41,108,-98,-544,-139
43,64,20,-42,-2,40,3,41,108,-92,-544,-133
43,64,14,-42,4,40,-3,41,108,-92,-538,-127
48,64,8,-48,10,40,-9,41,108,-86,-532,-121
54,64,2,-54,22,40,-20,41,108,-86,-520,-109
66,64,-4,-59,28,40,-38,41,108,-86,-514,-97
72,64,-4,-59,34,40,-56,41,108,-80,-508,-85
78,64,-10,-65,34,34,-68,41,108,-68,-502,-79
84,64,-10,-65,34,34,-74,41,108,-38,-484,-67
90,64,-16,-71,40,34,-80,41,114,-8,-460,-55
102,70,-28,-83,63,34,-92,35,114,21,-442,-43
132,76,-51,-95,93,28,-122,23,114,33,-424,-13
162,82,-69,-113,111,22,-158,-6,114,45,-406,17
198,88,-81,-131,135,16,-200,-36,102,51,-376,58
240,94,-111,-155,165,10,-242,-78,66,57,-358,88
270,100,-141,-173,195,-2,-272,-114,24,63,-346,100
288,100,-171,-185,219,-14,-302,-138,1,69,-340,112
300,100,-207,-191,243,-44,-332,-168,-17,75,-334,124
312,100,-237,-197,273,-55,-356,-198,-35,81,-322,136
324,100,-261,-203,285,-67,-392,-228,-53,81,-316,148
336,100,-273,-203,297,-79,-422,-246,-71,81,-316,160
348,100,-279,-209,309,-85,-440,-258,-83,81,-310,172
378,100,-285,-215,321,-85,-458,-264,-89,87,-298,190
396,100,-291,-227,333,-85,-476,-270,-89,111,-268,220
420,112,-297,-257,345,-85,-488,-276,-83,159,-226,256
444,130,-297,-287,357,-85,-500,-276,-59,243,-172,298
474,172,-297,-323,369,-73,-512,-294,-47,315,-106,364
498,202,-297,-353,381,-61,-542,-384,-53,357,-46,442
528,232,-297,-365,393,-38,-590,-528,-119,399,32,526
558,262,-297,-389,405,-26,-668,-678,-209,447,115,622
588,292,-297,-413,417,-8,-740,-816,-347,483,199,694
624,322,-297,-455,435,4,-800,-966,-557,489,259,772
666,364,-297,-509,459,22,-854,-1116,-803,489,307,844
696,412,-297,-557,471,46,-920,-1278,-1049,477,355,910
726,448,-297,-593,483,64,-956,-1410,-1241,435,391,964
756,478,-297,-623,507,76,-974,-1488,-1355,393,421,1018
798,484,-309,-635,549,76,-980,-1554,-1469,297,421,1042
816,478,-369,-635,585,58,-980,-1620,-1613,123,397,1042
822,424,-429,-623,615,4,-980,-1698,-1745,-56,307,1042
822,346,-477,-593,633,-61,-974,-1776,-1901,-230,229,1030
816,286,-507,-557,645,-103,-962,-1860,-2045,-380,157,1006
810,244,-525,-533,651,-139,-926,-1902,-2153,-512,91,982
804,190,-585,-515,675,-193,-878,-1902,-2201,-620,32,952
804,118,-687,-485,717,-283,-800,-1878,-2225,-740,-34,916
804,22,-783,-443,759,-373,-740,-1806,-2249,-854,-106,880
804,-73,-885,-383,801,-463,-704,-1758,-2261,-932,-148,850
804,-157,-975,-347,861,-553,-686,-1716,-2273,-992,-166,820
816,-223,-1053,-323,915,-631,-680,-1680,-2297,-1028,-178,814
828,-259,-1101,-311,957,-673,-674,-1674,-2327,-1040,-178,814
840,-289,-1149,-305,993,-721,-668,-1674,-2333,-1034,-166,814
852,-319,-1191,-299,1029,-763,-662,-1668,-2327,-956,-106,820
864,-343,-1233,-287,1047,-793,-650,-1662,-2261,-824,-22,832
870,-373,-1275,-269,1059,-823,-620,-1632,-2141,-698,26,838
876,-415,-1323,-239,1083,-865,-590,-1578,-2003,-602,55,826
882,-463,-1377,-215,1107,-913,-536,-1452,-1811,-524,49,724
882,-547,-1419,-173,1125,-979,-458,-1272,-1619,-518,-112,496
870,-649,-1467,-101,1137,-1045,-392,-1098,-1475,-602,-454,184
822,-721,-1497,-48,1137,-1099,-326,-948,-1373,-770,-790,-91
768,-751,-1497,-12,1131,-1117,-284,-852,-1283,-872,-1012,-289
708,-751,-1485,12,1101,-1117,-266,-792,-1193,-902,-1108,-385
666,-745,-1401,18,1035,-1081,-254,-732,-1091,-908,-1126,-415
648,-697,-1299,18,975,-997,-242,-648,-971,-896,-1126,-421
630,-625,-1209,18,915,-907,-230,-552,-845,-848,-1120,-421
612,-559,-1107,12,849,-823,-218,-468,-725,-764,-1078,-421
576,-481,-999,0,783,-733,-194,-414,-629,-698,-1036,-415
516,-427,-885,-12,687,-655,-152,-348,-539,-632,-1000,-409
450,-385,-765,-12,609,-583,-110,-264,-437,-578,-964,-403
396,-331,-669,-18,537,-505,-50,-180,-341,-506,-922,-385
342,-271,-567,-18,459,-421,3,-114,-257,-440,-880,-355
276,-229,-465,-18,369,-349,45,-66,-185,-398,-838,-337
210,-199,-369,-12,285,-283,75,-18,-119,-356,-808,-325
168,-169,-285,-6,219,-223,105,29,-77,-314,-778,-313
132,-139,-219,-6,177,-181,129,65,-23,-284,-748,-301
90,-115,-153,0,117,-139,159,107,18,-254,-718,-289
48,-97,-99,6,75,-109,189,143,60,-212,-700,-277
19,-85,-63,12,46,-79,219,173,96,-188,-688,-271
1,-61,-34,12,22,-55,249,197,120,-176,-682,-265
-11,-49,-10,18,4,-38,261,209,138,-164,-676,-259
-23,-37,2,18,-20,-8,273,209,150,-158,-670,-259
-29,-25,20,18,-32,4,279,209,162,-152,-664,-259
-35,-19,32,18,-44,16,285,209,174,-146,-658,-253
-41,-7,44,18,-50,22,291,209,186,-140,-652,-253
-47,-1,56,18,-56,28,297,209,186,-140,-652,-253
-53,-1,62,24,-62,28,303,209,186,-140,-652,-253
-65,-1,68,30,-68,28,309,209,186,-140,-652,-253
-77,-1,68,36,-74,28,315,209,186,-140,-652,-253
-83,-1,68,42,-80,28,321,209,186,-140,-658,-259
-89,-1,68,48,-80,28,321,215,186,-140,-658,-259
-89,-1,74,54,-86,28,321,215,192,-140,-658,-259
-89,-1,74,54,-86,28,321,221,198,-140,-658,-259
-89,-1,74,54,-86,28,321,221,198,-134,-658,-259
-89,-1,74,54,-86,28,321,221,198,-134,-658,-259
-89,-1,74,54,-86,28,321,221,198,-128,-658,-259
-89,-1,74,54,-86,28,321,221,198,-122,-658,-259
-89,-1,74,54,-86,28,321,221,198,-122,-658,-259
-89,-1,74,54,-86,28,321,221,198,-122,-658,-259
-89,-1,80,54,-92,34,327,221,198,-122,-658,-259
-89,-1,86,54,-92,34,333,221,198,-122,-658,-265
-95,-1,86,54,-92,34,339,221,198,-122,-658,-271
-101,-1,86,54,-98,34,339,215,198,-122,-658,-277
-107,-1,86,54,-98,34,339,215,198,-122,-658,-277
-107,-1,92,54,-98,40,345,215,198,-122,-658,-277
-107,-1,92,54,-98,46,345,215,198,-122,-658,-277
-107,-1,92,54,-98,46,345,215,198,-122,-658,-277
-107,-1,92,54,-98,46,345,215,198,-122,-658,-277
-107,-1,92,54,-98,46,345,215,198,-122,-658,-277
-107,-1,92,54,-98,46,345,215,198,-122,-658,-277
-107,-1,98,54,-104,46,345,215,198,-122,-658,-277
-107,-1,98,54,-104,46,345,215,198,-122,-658,-277
-107,-1,98,54,-104,46,345,215,198,-122,-658,-277
-107,-1,98,60,-104,46,345,215,198,-122,-658,-277
-107,-1,104,60,-104,52,345,215,198,-122,-658,-277
-107,-1,110,60,-104,58,345,215,198,-122,-658,-277
-113,-1,116,60,-110,58,345,215,204,-122,-658,-277
-119,-1,116,60,-116,58,345,215,204,-122,-658,-277
-125,-1,122,60,-122,58,345,215,204,-116,-658,-277
-131,-1,122,60,-128,58,351,215,210,-116,-658,-277
-137,-1,122,66,-134,58,351,215,210,-116,-658,-283
-143,-1,122,72,-140,58,351,215,210,-116,-658,-289
-149,-1,122,78,-146,58,357,221,210,-116,-658,-289
-149,-1,122,78,-146,64,363,227,216,-116,-658,-289
-149,4,128,78,-146,70,375,227,222,-110,-652,-289
-149,4,134,78,-146,70,381,227,228,-110,-652,-295
-149,4,140,78,-146,70,387,227,228,-110,-652,-301
-149,10,146,78,-146,76,387,233,234,-110,-652,-301
-143,16,152,72,-146,82,393,239,240,-104,-652,-301
-143,22,152,66,-146,82,393,245,246,-104,-652,-301
-143,22,158,66,-146,82,393,251,252,-104,-652,-301
-149,22,158,66,-152,88,399,263,258,-104,-646,-301
-149,22,158,66,-152,88,405,269,264,-104,-646,-301
-155,22,158,66,-158,88,405,275,270,-104,-646,-301
-155,22,158,66,-158,88,405,281,270,-104,-646,-301
-155,22,158,66,-158,88,405,287,276,-104,-646,-301
-155,28,164,66,-164,94,411,293,282,-98,-640,-301
-155,28,170,66,-170,100,411,305,288,-98,-634,-301
-161,28,182,72,-182,100,411,317,294,-92,-628,-301
-167,28,188,72,-188,106,411,329,300,-86,-628,-301
-167,28,194,72,-188,112,417,341,306,-86,-628,-301
-173,34,200,72,-194,118,423,347,318,-80,-628,-301
-179,34,206,72,-200,124,429,353,330,-80,-622,-301
-185,34,212,72,-206,124,435,359,342,-80,-622,-301
-185,34,218,72,-206,124,435,365,354,-74,-622,-307
-185,34,224,72,-206,124,441,371,360,-74,-622,-313
-185,34,230,78,-206,124,447,377,366,-74,-622,-313
-191,34,230,78,-206,124,453,389,378,-74,-622,-313
-197,34,236,78,-206,130,465,401,390,-68,-616,-313
-209,34,242,84,-218,136,471,413,396,-62,-610,-313
-221,34,248,90,-230,142,471,419,402,-56,-610,-319
-227,34,254,90,-236,142,477,425,408,-50,-610,-319
-227,34,254,90,-242,148,483,437,414,-44,-604,-319
-227,34,266,90,-248,154,489,449,426,-44,-598,-319
-227,34,278,90,-254,160,501,467,438,-38,-592,-319
-227,40,284,90,-260,166,507,491,450,-32,-586,-319
-227,52,290,90,-260,178,519,509,462,-32,-586,-325
-227,64,296,90,-266,184,525,521,474,-26,-586,-331
-233,70,302,90,-272,190,537,539,492,-20,-586,-331
-245,70,314,90,-284,196,549,551,504,-20,-586,-337
-257,70,332,90,-296,202,567,563,516,-20,-586,-343
-263,70,344,90,-308,208,579,575,528,-20,-586,-349
-269,70,356,90,-314,214,585,587,540,-14,-586,-355
-275,70,368,90,-320,220,591,599,552,-14,-586,-355
-281,76,380,90,-326,226,597,611,564,-8,-586,-355
-287,82,386,90,-332,232,603,623,582,4,-586,-355
-293,82,392,90,-338,238,609,641,606,16,-580,-355
-299,88,392,96,-344,238,615,653,618,21,-580,-355
-299,94,398,96,-350,244,621,665,630,27,-580,-355
-305,94,404,96,-362,250,627,683,648,33,-574,-355
-311,100,410,96,-368,256,633,701,666,39,-568,-355
-311,100,416,96,-368,262,639,719,678,45,-568,-355
-311,100,422,96,-368,268,645,731,702,57,-562,-355
-311,106,428,96,-374,268,645,743,714,69,-556,-355
-311,106,434,96,-380,274,651,755,726,81,-550,-355
-317,106,440,96,-386,280,651,767,738,93,-544,-355
-323,106,446,96,-392,280,651,773,744,99,-538,-355
-329,106,452,102,-398,280,651,779,756,105,-538,-355
-335,106,452,108,-404,280,651,779,768,111,-538,-355
-341,106,452,108,-410,280,651,779,780,117,-532,-355
-341,106,458,114,-410,280,651,785,792,129,-526,-355
-341,106,458,114,-410,280,645,791,804,141,-514,-355
-341,106,458,114,-410,280,639,803,816,159,-502,-349
-341,112,458,114,-410,286,639,815,846,183,-490,-337
-341,118,458,114,-410,292,639,821,858,207,-472,-325
-329,130,458,108,-410,298,639,827,870,219,-454,-313
-317,148,458,90,-398,304,633,839,888,231,-442,-301
-305,160,458,78,-392,310,627,851,900,249,-430,-289
-305,160,458,78,-392,310,621,857,912,267,-412,-277
-305,160,458,78,-392,310,609,857,924,279,-400,-271
-299,160,458,78,-386,310,597,857,936,297,-388,-259
-293,160,452,72,-380,310,585,857,948,309,-376,-247
-287,160,446,72,-374,310,579,857,954,327,-364,-235
-281,160,434,72,-362,304,573,857,960,339,-352,-223
-263,160,422,66,-350,298,567,857,966,357,-340,-211
-245,160,404,54,-332,292,555,863,966,369,-322,-199
-227,160,392,42,-314,286,537,863,966,381,-304,-181
-215,160,380,36,-302,280,507,863,966,393,-292,-169
-203,160,368,30,-290,274,495,863,960,399,-280,-157
-191,160,356,24,-272,262,483,863,954,405,-268,-151
-173,160,338,18,-254,256,471,863,942,405,-256,-145
-155,160,320,12,-242,250,465,863,930,411,-244,-133
-137,160,308,6,-224,244,459,857,918,411,-238,-121
-119,160,290,-6,-206,238,453,845,888,411,-232,-115
-107,160,266,-12,-188,226,441,815,864,411,-226,-109
-95,160,254,-18,-176,214,429,779,834,411,-226,-103
-83,160,236,-24,-164,202,417,749,804,405,-220,-97
-65,160,206,-30,-140,190,411,725,774,399,-220,-91
-47,160,188,-36,-122,178,405,701,732,393,-220,-85
-41,154,170,-36,-110,166,399,677,684,381,-220,-79
-35,142,152,-36,-98,154,387,659,654,369,-220,-73
-29,130,140,-36,-92,142,375,641,624,357,-220,-67
-23,118,122,-36,-80,124,363,611,594,339,-220,-61
-11,112,104,-36,-62,112,345,575,558,321,-220,-61
1,112,92,-36,-50,100,333,545,522,303,-220,-61
13,112,80,-36,-38,94,321,527,492,291,-220,-55
19,100,68,-36,-32,88,309,509,462,279,-220,-55
25,94,56,-36,-26,82,297,497,426,255,-220,-55
25,88,44,-36,-20,76,285,473,396,225,-226,-55
25,82,38,-36,-20,70,279,449,366,201,-232,-55
25,76,32,-36,-20,58,279,425,336,177,-238,-55
25,64,26,-30,-20,46,279,413,306,153,-244,-55
25,52,14,-30,-8,34,279,401,288,141,-250,-55
31,46,2,-30,4,28,279,395,270,129,-250,-55
37,46,-4,-30,10,22,279,389,252,117,-256,-55
37,40,-4,-30,10,16,279,383,228,105,-262,-55
37,34,-10,-30,16,10,273,371,204,93,-268,-55
37,34,-16,-30,22,10,273,359,186,81,-268,-55
37,34,-22,-30,22,10,273,347,174,69,-274,-55
37,34,-22,-30,22,10,273,341,162,57,-274,-55
37,34,-22,-30,22,10,273,335,150,51,-274,-55
43,34,-22,-36,28,10,273,329,144,45,-274,-55
48,34,-22,-36,34,10,273,323,132,39,-280,-55
48,34,-22,-36,34,10,273,311,120,27,-286,-61
43,28,-22,-30,34,10,273,299,102,16,-292,-61
37,22,-22,-24,34,10,273,287,84,-8,-298,-67
37,22,-22,-18,34,10,273,275,72,-20,-304,-73
37,22,-22,-18,34,10,273,263,60,-32,-310,-79
37,16,-22,-18,34,4,273,251,42,-38,-316,-85
31,10,-22,-12,28,4,273,239,30,-44,-322,-85
25,4,-22,-12,22,4,273,227,18,-50,-328,-91
25,4,-22,-12,22,4,273,215,7,-56,-328,-97
25,4,-22,-12,22,-2,273,203,1,-62,-328,-97
25,4,-22,-12,22,-2,273,197,-5,-68,-328,-97
25,4,-22,-12,22,-2,273,191,-11,-68,-328,-97
25,4,-22,-12,22,-2,273,185,-17,-68,-328,-97
25,4,-22,-12,22,-2,267,173,-23,-74,-328,-97
19,4,-22,-6,16,-2,261,161,-29,-80,-328,-103
7,-1,-22,6,10,-2,255,149,-35,-86,-328,-109
1,-7,-22,12,10,-2,249,143,-41,-92,-328,-115
1,-7,-22,18,4,-2,249,137,-47,-92,-328,-115
-5,-7,-22,18,4,-8,243,131,-53,-98,-328,-115
-5,-13,-22,18,4,-8,237,131,-59,-104,-328,-121
-5,-13,-22,18,4,-8,231,131,-59,-104,-328,-121
-5,-13,-22,18,4,-8,231,131,-59,-104,-328,-121
-5,-13,-22,18,4,-8,225,131,-59,-104,-328,-121
-5,-13,-22,18,4,-8,225,131,-59,-104,-328,-121
-5,-13,-22,18,4,-8,225,131,-59,-104,-328,-121
-5,-13,-16,18,-2,-8,219,131,-59,-104,-328,-121
-5,-13,-10,18,-2,-8,219,131,-59,-104,-322,-121
-5,-13,-10,18,-2,-8,219,131,-59,-104,-322,-121
-5,-13,-10,18,-2,-8,219,131,-59,-104,-322,-121
-5,-13,-10,18,-2,-8,219,131,-53,-104,-322,-121
-5,-13,-10,18,-2,-8,219,137,-53,-98,-316,-115
-5,-13,-10,18,-2,-8,219,137,-47,-98,-310,-115
-5,-13,-10,18,-2,-8,219,137,-47,-98,-310,-115
-5,-13,-10,18,-2,-8,219,143,-47,-92,-304,-109
-5,-7,-4,18,-2,-8,219,149,-41,-86,-298,-103
-5,-7,2,18,-8,-2,219,155,-35,-80,-292,-97
-5,-7,8,18,-8,-2,219,155,-29,-74,-286,-97
-5,-7,8,18,-8,-2,219,155,-29,-74,-286,-97
-5,-1,8,18,-14,4,219,161,-23,-74,-286,-97
-5,-1,8,18,-14,10,219,167,-23,-68,-280,-97
-5,4,14,18,-14,10,225,173,-17,-62,-274,-91
-5,4,14,12,-14,10,225,179,-11,-62,-262,-85
-5,10,14,12,-14,16,225,185,-5,-62,-256,-85
-5,10,20,12,-20,16,225,191,1,-62,-250,-85
-5,16,26,12,-20,22,225,191,1,-62,-244,-85
-5,16,26,12,-20,28,231,197,7,-56,-238,-79
-11,16,32,12,-26,28,237,197,7,-50,-238,-79
-17,16,38,12,-32,28,243,203,12,-44,-232,-79
-17,16,38,12,-32,28,249,209,18,-44,-232,-79
-17,16,38,12,-32,28,255,215,24,-44,-232,-73
-17,16,38,12,-32,28,255,221,24,-38,-232,-73
-17,22,38,12,-32,34,255,227,24,-32,-226,-67
-17,22,38,12,-32,40,261,233,30,-32,-220,-67
-17,22,44,12,-32,40,267,239,36,-32,-214,-61
-17,28,44,12,-32,40,273,239,36,-26,-208,-55
-17,34,44,6,-32,40,285,245,42,-20,-208,-49
-17,34,44,0,-32,40,297,245,42,-20,-202,-49
-17,34,44,0,-32,40,303,245,42,-20,-196,-49
-17,34,44,0,-32,40,303,245,42,-20,-196,-49
-17,34,44,0,-32,40,303,245,42,-20,-196,-49
-17,34,44,0,-32,40,303,245,42,-20,-196,-49
-17,34,44,0,-32,40,297,239,36,-20,-196,-49
-17,34,44,0,-32,40,297,233,30,-20,-196,-49
-17,34,44,0,-32,40,297,227,24,-20,-196,-49
-17,34,44,0,-32,40,291,221,24,-20,-196,-49
-17,34,44,0,-32,40,285,215,18,-20,-196,-49
-17,34,44,0,-32,40,285,209,18,-20,-196,-49
-17,34,44,0,-32,40,285,209,18,-20,-196,-49
-17,34,44,0,-32,40,285,209,18,-20,-196,-49
-17,34,44,0,-32,40,285,209,18,-20,-196,-49
-17,34,44,0,-32,40,285,209,18,-20,-196,-49
-17,34,44,0,-32,40,285,209,18,-20,-196,-49
-17,34,44,0,-32,40,279,209,12,-20,-196,-49
-17,34,38,0,-32,40,273,209,7,-20,-196,-49
-17,34,32,0,-32,40,267,203,1,-20,-196,-49
-17,28,32,0,-32,40,267,197,-5,-20,-196,-49
-17,28,32,0,-32,40,267,197,-11,-26,-196,-49
-17,22,32,0,-32,34,261,197,-17,-32,-196,-49
-17,22,26,0,-32,28,255,191,-23,-32,-196,-49
-17,22,26,0,-32,28,249,185,-29,-32,-196,-49
-17,22,26,0,-32,28,243,185,-29,-32,-196,-49
-17,22,26,0,-32,28,237,179,-35,-32,-196,-49
-17,22,20,0,-26,28,231,173,-41,-32,-196,-49
-17,22,20,0,-26,28,225,167,-41,-38,-196,-49
-17,22,20,0,-26,28,219,155,-41,-44,-196,-49
-17,22,20,0,-26,28,213,143,-47,-50,-196,-49
-17,22,20,0,-26,28,207,131,-53,-50,-196,-49
-17,22,20,0,-26,28,207,125,-59,-56,-196,-49
-17,22,20,0,-26,28,207,119,-65,-62,-196,-49
-17,22,20,0,-26,28,207,113,-71,-62,-196,-49
-17,22,14,0,-26,28,207,107,-77,-62,-196,-49
-17,22,14,0,-26,28,207,107,-83,-62,-196,-49
-11,22,14,0,-20,28,201,107,-83,-68,-196,-49
-5,22,14,0,-20,28,201,107,-89,-74,-196,-49
-5,22,14,0,-20,22,201,107,-95,-74,-196,-55
-5,16,14,0,-20,22,201,107,-95,-74,-196,-55
-5,16,14,0,-20,22,201,107,-95,-74,-196,-55
-5,16,14,0,-20,22,201,107,-95,-74,-196,-55
-5,10,8,0,-20,16,201,107,-95,-74,-196,-55
-5,4,2,6,-20,10,201,107,-95,-74,-196,-55
-5,-1,2,6,-20,4,201,107,-95,-74,-196,-55
-5,-1,2,6,-20,4,201,107,-95,-74,-196,-55
-5,-7,2,12,-20,-2,201,107,-101,-74,-196,-55
-5,-13,2,12,-20,-2,201,107,-101,-74,-196,-55
-5,-13,2,12,-20,-2,201,107,-101,-74,-196,-55
-5,-13,-4,12,-14,-2,201,113,-101,-74,-196,-55
-5,-13,-4,12,-14,-2,201,119,-101,-74,-196,-55
-5,-13,-4,12,-8,-2,201,119,-101,-74,-196,-55
-5,-13,-4,12,-2,-2,201,125,-101,-74,-196,-55
-5,-7,-4,12,-2,-2,207,125,-95,-74,-196,-55
1,-1,-4,6,-2,-2,213,131,-89,-74,-196,-55
7,-1,-4,0,-2,-2,225,137,-83,-68,-196,-55
7,-1,-4,0,-2,-2,231,143,-83,-68,-196,-55
7,-1,-4,0,-2,-2,237,149,-83,-68,-196,-55
7,-1,-4,0,-2,-2,243,155,-83,-68,-196,-55
7,-1,-4,0,-2,-2,249,161,-83,-68,-196,-55
7,-1,-4,0,-2,-2,255,161,-83,-68,-196,-55
7,-1,-4,0,-2,-2,255,161,-83,-68,-196,-55
7,-1,-4,0,-2,-2,261,161,-83,-68,-196,-55
7,-1,-4,0,-2,-2,261,161,-83,-68,-196,-55
7,-1,-4,0,-2,-2,267,161,-83,-68,-196,-55
7,-1,-4,0,-2,-2,267,161,-83,-68,-190,-55
7,-1,-4,0,-2,-2,267,161,-83,-68,-190,-55
7,-1,-4,0,-2,-2,267,161,-83,-68,-190,-55
7,-1,-4,0,-2,-2,267,161,-83,-68,-190,-55
7,-1,-4,0,-2,-2,267,161,-83,-68,-190,-55
1,-1,-4,6,-2,-2,267,161,-83,-68,-190,-55
1,-1,-4,6,-2,-2,267,161,-83,-68,-190,-55
1,-1,-4,6,-2,-2,267,161,-83,-68,-190,-55
1,-1,-4,6,-2,-2,267,161,-83,-68,-190,-55
1,4,-4,6,-2,-2,267,161,-83,-68,-184,-55
7,16,-4,0,-2,-2,267,161,-83,-68,-178,-55
13,22,-4,-6,-2,-2,267,161,-83,-68,-178,-55
13,22,-4,-6,-2,-2,267,161,-83,-68,-172,-55
13,22,-4,-6,-2,-2,267,161,-83,-68,-172,-55
13,22,-4,-6,-2,-2,267,161,-83,-68,-172,-55
7,16,-4,-6,-2,-2,267,161,-83,-68,-172,-55
7,16,-4,-6,-2,-2,267,161,-83,-68,-172,-55
7,16,-4,-6,-2,-2,267,161,-83,-68,-172,-55
7,16,-4,-6,-2,-2,267,161,-83,-68,-172,-55
7,16,-4,-6,-2,-2,267,161,-83,-68,-172,-55
7,16,-4,-6,-2,-2,267,161,-83,-68,-166,-55
7,16,-4,-6,-2,-2,267,161,-83,-68,-166,-55
13,22,-4,-12,-2,4,267,161,-83,-68,-166,-55
13,22,-4,-12,-2,4,273,161,-83,-68,-166,-55
13,22,-4,-12,-2,4,273,161,-83,-68,-166,-55
13,16,-4,-6,-2,4,273,155,-83,-68,-166,-55
7,10,-4,0,-2,-2,273,149,-89,-74,-166,-55
1,-1,-4,6,-2,-2,273,143,-95,-74,-166,-55
-5,-7,-4,18,-2,-2,273,137,-95,-74,-166,-55
-5,-13,-4,18,-2,-8,273,137,-101,-74,-166,-55
-5,-19,-4,18,-2,-8,273,137,-101,-80,-166,-55
-5,-19,-4,18,-2,-8,267,131,-107,-86,-166,-55
-5,-19,-4,18,-2,-8,255,125,-107,-86,-166,-55
-5,-19,-4,18,-2,-8,243,119,-107,-86,-166,-55
-11,-19,-4,24,-2,-8,237,113,-113,-86,-166,-55
-11,-19,-4,24,-2,-8,231,113,-113,-86,-166,-55
-11,-19,-10,24,-2,-8,225,113,-113,-86,-166,-55
-5,-19,-10,24,-2,-8,219,113,-113,-86,-166,-55
1,-13,-10,18,-2,-8,213,113,-113,-86,-160,-55
7,-13,-16,12,-2,-8,207,113,-113,-86,-160,-55
13,-13,-16,12,4,-8,195,113,-113,-86,-160,-55
13,-13,-16,12,4,-8,189,107,-119,-86,-160,-55
13,-13,-16,12,4,-8,189,101,-125,-86,-160,-55
13,-13,-16,12,4,-8,189,95,-131,-86,-160,-55
13,-13,-16,12,4,-8,189,89,-131,-86,-160,-55
13,-13,-16,12,4,-8,189,83,-137,-86,-160,-55
13,-13,-16,12,4,-8,189,77,-137,-86,-160,-55
7,-13,-16,12,-2,-8,183,71,-137,-86,-160,-55
7,-13,-16,12,-2,-8,177,71,-137,-86,-160,-55
7,-7,-16,12,-2,-8,171,71,-143,-86,-160,-55
7,-1,-16,6,-2,-8,171,71,-143,-86,-160,-55
7,4,-16,0,-2,-2,165,71,-143,-86,-160,-55
7,10,-10,-6,-2,4,165,71,-143,-86,-160,-55
7,16,-10,-12,-2,10,165,71,-143,-86,-160,-55
7,16,-10,-12,-2,10,165,65,-143,-86,-160,-55
7,16,-4,-12,-2,10,165,65,-143,-86,-160,-55
7,16,-4,-12,-2,10,165,65,-143,-86,-160,-55
7,16,-4,-12,-2,10,165,65,-143,-86,-160,-55
7,16,-4,-12,-2,10,165,65,-143,-86,-160,-55
7,16,-4,-12,-2,10,165,65,-143,-86,-160,-55
7,10,-4,-6,-2,10,165,65,-143,-86,-160,-55
7,4,-4,0,-2,10,165,65,-143,-86,-160,-55
7,4,-4,0,-2,4,165,65,-143,-86,-160,-55
7,4,-4,0,-2,4,165,65,-143,-86,-160,-55
7,4,-10,0,-2,4,165,65,-143,-86,-160,-55
7,4,-10,0,-2,4,165,65,-143,-86,-160,-55
7,4,-10,0,-2,4,165,65,-143,-86,-160,-55
7,-1,-10,0,-2,-2,165,65,-143,-86,-160,-55
7,-1,-10,0,-2,-2,165,65,-143,-86,-160,-55
7,-1,-10,0,-2,-2,171,65,-143,-86,-160,-55
7,-1,-10,0,-2,-2,177,71,-143,-86,-160,-55
7,-1,-10,0,-2,-2,183,71,-143,-86,-160,-55
7,-1,-10,0,-2,-2,183,77,-143,-86,-160,-55
7,-1,-10,0,-2,-2,189,77,-143,-86,-160,-55
7,-1,-16,0,-2,-8,195,83,-143,-86,-160,-55
7,-7,-16,0,-2,-8,201,89,-143,-86,-160,-55
7,-7,-16,0,-2,-8,207,89,-143,-86,-160,-61
7,-7,-16,0,-2,-8,213,89,-143,-86,-160,-61
7,-7,-16,0,-2,-8,219,89,-143,-86,-160,-61
7,-7,-16,0,-2,-8,219,89,-143,-86,-160,-61
7,-7,-22,0,4,-8,219,89,-143,-86,-160,-61
13,-7,-22,0,10,-8,219,89,-143,-86,-160,-61
13,-7,-22,0,10,-8,219,89,-143,-86,-160,-61
13,-7,-22,0,10,-8,219,89,-143,-86,-160,-61
13,-7,-22,6,10,-8,219,89,-143,-86,-160,-61
13,-7,-22,6,10,-8,219,89,-143,-86,-160,-61
13,-7,-22,6,10,-8,219,89,-143,-86,-160,-61
7,-7,-22,6,10,-8,219,89,-143,-86,-160,-61
7,-7,-22,6,10,-8,219,89,-143,-86,-160,-61
7,-7,-22,6,10,-8,225,89,-143,-80,-160,-61
7,-1,-22,6,10,-8,231,89,-143,-80,-160,-61
13,4,-22,0,10,-8,237,89,-143,-80,-160,-61
13,4,-22,0,10,-8,243,89,-137,-80,-160,-61
13,4,-22,0,10,-8,249,89,-137,-80,-160,-61
13,4,-22,0,10,-8,255,89,-137,-80,-160,-61
7,4,-16,0,4,-8,261,89,-137,-80,-160,-61
7,4,-16,0,4,-8,261,89,-137,-80,-160,-61
7,4,-16,6,4,-8,261,89,-137,-80,-160,-61
1,-1,-16,6,4,-8,261,89,-137,-80,-160,-61
1,-1,-16,6,4,-8,261,89,-137,-80,-154,-61
1,-1,-16,6,4,-8,261,89,-137,-80,-154,-61
1,-1,-16,6,4,-8,261,89,-137,-80,-154,-61
1,-1,-16,6,4,-8,261,89,-137,-80,-154,-61
1,-1,-16,6,4,-8,261,89,-137,-80,-148,-61
1,4,-16,0,4,-8,261,89,-137,-80,-148,-61
1,4,-10,0,4,-8,267,89,-137,-74,-142,-61
1,4,-10,0,4,-8,273,89,-137,-68,-142,-61
1,4,-10,0,4,-8,273,89,-137,-68,-142,-61
1,4,-10,0,4,-8,279,95,-137,-68,-142,-61
1,4,-4,0,4,-2,279,101,-137,-68,-136,-61
1,4,-4,0,-2,-2,279,101,-131,-68,-130,-61
-5,4,-4,6,-2,-2,279,101,-131,-62,-130,-61
-5,4,-4,6,-2,-2,279,101,-131,-62,-130,-61
-5,4,-4,6,-2,-2,279,101,-131,-62,-130,-61
-5,4,-4,6,-2,4,279,101,-131,-62,-130,-61
-5,4,2,6,-8,10,279,101,-131,-62,-124,-61
-5,4,8,6,-14,16,279,101,-131,-62,-124,-61
-5,10,14,6,-14,16,279,101,-131,-62,-124,-61
-5,10,14,6,-14,16,273,101,-131,-62,-124,-61
-5,10,14,6,-14,16,261,101,-131,-62,-124,-61
-5,10,14,6,-14,16,249,95,-131,-62,-124,-61
-5,10,14,6,-14,16,237,89,-131,-62,-124,-61
-5,10,14,6,-14,16,225,83,-137,-62,-124,-61
-5,10,14,6,-14,16,213,77,-143,-62,-124,-61
-5,16,14,6,-14,16,207,71,-143,-62,-124,-61
-5,16,14,6,-14,16,201,65,-149,-62,-124,-61
-5,16,14,6,-14,16,189,59,-155,-62,-124,-61
-5,16,14,6,-14,16,177,47,-161,-62,-124,-61
-5,16,14,6,-14,16,165,41,-167,-62,-124,-61
-5,16,14,6,-14,16,159,35,-167,-62,-124,-61
-5,16,14,6,-14,16,153,35,-167,-62,-124,-61
-5,16,14,6,-14,16,147,35,-167,-62,-124,-61
-5,16,14,6,-14,16,141,35,-173,-62,-124,-61
-5,16,14,6,-14,16,135,35,-173,-62,-124,-61
-5,16,14,6,-14,16,135,29,-173,-62,-124,-61
-5,16,14,6,-14,16,135,29,-173,-62,-124,-61
-5,16,14,6,-14,16,135,29,-173,-68,-124,-61
-5,16,14,6,-14,16,135,29,-173,-68,-124,-61
-5,16,14,6,-14,16,135,29,-173,-68,-124,-61
-5,16,14,6,-14,16,135,29,-173,-68,-124,-61
-5,16,14,6,-14,16,135,29,-173,-68,-118,-61
-5,16,14,6,-14,16,135,29,-173,-68,-118,-67
-29,16,38,12,-26,22,177,29,-179,-80,-130,-91
-35,16,38,12,-32,22,177,29,-185,-86,-130,-97
-17,16,14,12,-20,16,141,29,-185,-80,-112,-91
-5,16,2,12,-8,10,105,29,-185,-74,-100,-79
-5,10,-4,12,-8,4,99,29,-185,-74,-94,-79
-5,-1,-4,18,-8,-2,99,23,-185,-74,-94,-79
-5,-7,-10,18,-8,-8,99,17,-191,-74,-94,-79
-5,-13,-22,18,-2,-14,99,17,-191,-74,-94,-79
1,-13,-34,18,4,-20,93,17,-191,-68,-88,-79
13,-13,-40,12,16,-20,87,17,-191,-62,-76,-73
25,-13,-46,0,34,-20,81,17,-191,-56,-70,-61
37,-7,-46,-12,40,-20,69,17,-191,-44,-58,-49
54,4,-51,-24,51,-20,63,17,-185,-32,-46,-31
84,10,-63,-36,63,-20,57,23,-173,-8,-34,-19
102,16,-75,-48,75,-20,51,29,-167,10,-10,-7
114,22,-87,-54,87,-26,39,35,-155,39,14,5
120,22,-99,-59,99,-32,21,41,-143,69,38,23
120,22,-105,-59,105,-38,-9,41,-131,87,55,46
132,22,-123,-65,123,-44,-50,41,-125,99,67,70
186,28,-147,-89,165,-49,-92,29,-125,111,85,100
228,40,-165,-125,195,-49,-140,-6,-125,135,115,130
258,52,-177,-149,219,-49,-176,-42,-131,153,145,160
276,52,-201,-161,231,-55,-206,-72,-143,171,169,172
288,52,-231,-167,249,-67,-236,-102,-149,195,187,196
300,52,-255,-173,273,-79,-266,-114,-149,225,211,220
330,52,-285,-185,303,-91,-302,-132,-155,243,241,250
360,58,-309,-197,333,-103,-344,-156,-161,255,253,274
378,58,-315,-209,345,-109,-374,-174,-161,261,265,292
390,58,-321,-215,357,-115,-386,-186,-161,267,277,304
408,64,-333,-227,369,-121,-404,-192,-161,279,289,334
420,70,-339,-239,375,-121,-416,-192,-149,333,325,364
432,82,-339,-251,381,-121,-428,-192,-107,393,367,406
462,100,-339,-275,393,-121,-446,-204,-95,465,421,448
492,148,-339,-311,405,-103,-494,-276,-101,525,493,514
534,214,-333,-353,417,-73,-560,-396,-137,579,571,598
582,274,-327,-419,435,-44,-626,-534,-215,639,643,682
624,334,-321,-467,447,-14,-686,-714,-377,669,721,760
654,376,-315,-509,459,22,-752,-894,-593,675,775,826
678,406,-309,-545,471,52,-794,-1050,-803,675,817,886
720,448,-303,-581,483,82,-824,-1170,-977,675,877,946
750,478,-297,-605,501,100,-848,-1266,-1121,675,913,988
774,484,-297,-617,519,100,-860,-1380,-1259,627,919,1006
786,484,-315,-623,549,94,-860,-1476,-1427,489,895,1006
798,472,-345,-623,567,70,-860,-1578,-1601,339,847,1006
798,460,-375,-623,579,40,-860,-1704,-1775,207,781,1006
798,430,-399,-617,591,10,-854,-1830,-1955,75,739,1000
798,382,-441,-605,615,-32,-836,-1896,-2099,-38,691,988
798,316,-495,-575,639,-85,-800,-1932,-2207,-146,631,964
798,250,-555,-533,663,-145,-770,-1944,-2297,-260,577,928
798,172,-633,-491,687,-217,-740,-1950,-2369,-392,511,898
798,100,-717,-461,729,-301,-722,-1950,-2470,-524,445,856
798,-1,-825,-425,789,-409,-710,-1950,-2536,-656,361,796
804,-103,-939,-383,855,-517,-698,-1938,-2590,-746,313,736
816,-181,-1041,-353,915,-613,-686,-1926,-2638,-800,271,688
828,-253,-1125,-323,975,-691,-674,-1926,-2692,-842,241,658
846,-289,-1179,-311,1005,-727,-668,-1938,-2728,-854,241,646
876,-307,-1221,-305,1035,-757,-668,-1974,-2734,-848,253,646
906,-325,-1263,-305,1077,-787,-668,-2004,-2722,-764,319,646
918,-349,-1299,-299,1107,-817,-668,-2004,-2596,-626,397,652
924,-373,-1329,-293,1131,-847,-668,-1980,-2440,-494,457,652
930,-409,-1359,-281,1143,-877,-662,-1884,-2231,-374,487,640
930,-469,-1413,-245,1155,-931,-644,-1716,-2003,-296,487,544
924,-583,-1485,-185,1173,-1027,-602,-1530,-1817,-296,319,334
900,-691,-1545,-107,1191,-1105,-548,-1338,-1673,-392,14,70
870,-763,-1575,-59,1197,-1153,-506,-1182,-1583,-578,-268,-151
828,-781,-1581,-24,1197,-1171,-476,-1062,-1511,-692,-460,-295
786,-781,-1569,-6,1173,-1165,-446,-960,-1409,-734,-538,-361
768,-751,-1485,-6,1131,-1111,-410,-870,-1301,-740,-568,-385
738,-679,-1383,-12,1065,-1027,-386,-804,-1211,-740,-574,-397
684,-631,-1281,-12,981,-955,-356,-732,-1103,-728,-574,-397
630,-577,-1161,-12,891,-865,-314,-648,-989,-680,-556,-397
582,-511,-1053,-18,807,-775,-254,-540,-869,-608,-514,-391
540,-463,-945,-24,741,-697,-200,-450,-785,-560,-484,-385
492,-421,-855,-24,669,-631,-158,-390,-719,-518,-460,-379
432,-373,-759,-24,597,-559,-110,-306,-647,-476,-430,-367
384,-319,-663,-24,519,-487,-68,-240,-569,-416,-400,-349
318,-277,-555,-24,441,-415,-26,-168,-485,-374,-364,-325
240,-241,-447,-18,351,-343,15,-96,-413,-332,-334,-295
174,-205,-333,-6,249,-265,63,-42,-335,-284,-292,-271
132,-169,-249,0,183,-211,105,5,-287,-242,-256,-247
90,-145,-189,6,135,-157,147,35,-245,-206,-226,-235
48,-133,-135,18,81,-121,183,65,-209,-176,-202,-223
19,-115,-93,24,51,-91,213,89,-185,-158,-190,-217
-11,-103,-63,36,22,-79,225,107,-155,-146,-178,-211
-41,-97,-40,48,-2,-67,237,125,-137,-134,-166,-205
-53,-91,-28,54,-8,-55,249,149,-119,-128,-154,-199
-65,-85,-10,60,-20,-44,255,167,-101,-122,-148,-193
-77,-79,14,66,-50,-32,261,179,-89,-116,-142,-193
-83,-67,26,66,-62,-14,273,191,-77,-110,-136,-193
-83,-55,38,66,-74,-2,285,203,-65,-104,-136,-193
-89,-49,50,66,-80,10,297,209,-59,-104,-136,-193
-95,-43,62,66,-86,16,309,221,-53,-104,-136,-193
-107,-43,74,72,-98,22,315,227,-47,-98,-136,-193
-131,-43,86,78,-110,28,321,233,-41,-98,-136,-193
-143,-43,92,84,-116,28,327,233,-35,-98,-142,-193
-149,-43,92,90,-122,28,333,239,-35,-98,-142,-193
-149,-43,92,90,-128,28,345,245,-29,-98,-142,-193
-149,-43,92,90,-128,28,351,251,-23,-98,-142,-193
-155,-43,92,96,-134,28,351,251,-23,-92,-142,-193
-161,-43,104,102,-140,28,357,257,-23,-92,-148,-193
-167,-43,116,102,-146,34,363,269,-17,-92,-154,-193
-167,-37,128,102,-152,46,375,281,-11,-86,-154,-193
-167,-25,140,96,-152,58,393,293,1,-80,-154,-193
-167,-13,146,90,-152,64,405,305,7,-74,-154,-193
-167,-7,152,90,-152,70,411,311,12,-68,-154,-193
-167,-7,158,90,-158,76,417,317,18,-68,-154,-193
-167,-7,164,90,-164,82,417,323,24,-62,-154,-187
-167,-7,164,90,-164,82,423,323,30,-62,-154,-181
-167,-7,164,90,-164,82,423,323,36,-62,-154,-181
-167,-7,164,90,-164,82,423,329,36,-62,-154,-181
-167,-1,164,90,-164,88,423,335,42,-62,-154,-181
-167,4,164,90,-164,88,423,341,48,-56,-154,-181
-167,4,164,90,-170,88,429,347,54,-56,-154,-181
-167,4,164,90,-170,88,429,347,54,-56,-154,-181
-167,4,164,90,-170,88,435,353,60,-56,-154,-181
-167,4,164,90,-170,88,441,365,66,-50,-154,-181
-167,4,164,90,-170,88,441,371,72,-50,-154,-181
-167,4,164,90,-170,88,441,377,78,-50,-154,-181
-167,4,164,90,-170,88,441,377,78,-50,-154,-181
-167,4,164,90,-170,88,441,377,78,-50,-154,-181
-167,4,170,90,-170,88,441,377,78,-50,-160,-181
-167,4,170,90,-170,88,441,371,78,-50,-160,-181
-173,4,170,90,-176,88,441,371,78,-50,-160,-181
-179,4,176,96,-182,88,435,365,78,-50,-160,-187
-191,-1,176,102,-188,88,429,359,78,-50,-160,-187
-197,-7,176,102,-194,88,423,353,78,-50,-166,-187
-203,-7,176,108,-194,88,417,347,78,-50,-172,-193
-203,-7,176,108,-194,88,411,341,78,-50,-178,-193
-203,-7,176,108,-194,88,405,335,78,-50,-178,-193
-203,-7,176,108,-194,88,399,335,78,-50,-178,-193
-203,-7,176,108,-194,88,399,335,78,-50,-178,-193
-203,-7,176,108,-194,88,399,335,78,-50,-178,-199
-203,-7,176,108,-194,88,399,335,78,-50,-178,-199
-203,-7,182,108,-200,88,399,335,78,-50,-178,-205
-209,-7,188,108,-206,88,399,341,78,-50,-178,-211
-215,-7,200,114,-212,88,399,341,78,-50,-178,-211
-221,-7,206,114,-218,88,399,341,78,-50,-178,-217
-221,-7,212,114,-218,94,399,341,78,-50,-178,-223
-221,-7,212,114,-218,100,399,341,78,-50,-178,-223
-227,-7,218,114,-230,100,399,341,78,-50,-178,-223
-233,-7,230,114,-236,106,399,341,78,-50,-178,-223
-233,-7,236,114,-236,112,399,341,84,-50,-184,-223
-233,-1,236,114,-236,118,399,347,90,-50,-184,-223
-233,4,236,114,-236,124,399,353,96,-50,-184,-223
-239,4,242,114,-242,130,399,359,102,-50,-184,-223
-245,4,248,114,-248,136,405,371,108,-50,-184,-223
-245,10,254,114,-254,142,411,389,120,-50,-184,-223
-245,10,254,114,-254,142,423,401,132,-50,-184,-223
-245,10,254,114,-254,142,435,413,138,-50,-184,-223
-245,10,260,114,-254,142,447,425,144,-50,-184,-229
-245,10,260,114,-254,148,453,431,150,-50,-184,-235
-251,10,266,120,-260,148,459,443,150,-50,-184,-241
-263,10,278,126,-272,148,465,449,156,-50,-190,-247
-281,10,290,132,-284,148,471,461,162,-50,-190,-253
-305,10,302,138,-296,148,477,473,168,-50,-190,-259
-311,10,308,144,-308,154,489,485,180,-50,-190,-259
-317,10,314,150,-314,154,501,503,192,-50,-190,-259
-317,10,320,150,-320,160,513,521,204,-50,-190,-259
-317,10,320,150,-320,166,525,539,216,-44,-190,-259
-317,16,326,150,-320,178,531,569,234,-38,-190,-259
-317,22,338,150,-326,184,537,587,246,-32,-190,-259
-323,28,350,150,-332,196,549,599,258,-32,-190,-259
-329,34,362,150,-344,202,561,623,270,-26,-190,-259
-335,40,374,150,-356,214,579,647,294,-20,-190,-265
-341,40,386,150,-368,220,603,677,324,-20,-190,-265
-353,40,398,150,-380,226,627,707,348,-14,-190,-265
-359,40,410,150,-386,232,639,731,378,-8,-190,-265
-359,46,416,150,-392,238,651,761,408,4,-190,-265
-365,46,422,150,-398,244,663,791,426,16,-190,-265
-371,46,428,150,-404,244,675,803,450,27,-190,-265
-377,52,434,150,-410,250,687,827,474,39,-184,-265
-383,58,440,150,-416,256,699,845,492,45,-178,-265
-389,58,446,150,-422,262,717,875,522,51,-172,-265
-395,64,458,150,-428,268,729,905,552,63,-166,-265
-401,64,470,156,-440,274,741,923,582,75,-160,-265
-407,64,476,162,-446,280,747,947,606,87,-154,-265
-413,64,488,162,-452,286,759,977,624,111,-148,-265
-413,70,494,162,-458,292,765,1001,654,123,-136,-265
-413,82,500,162,-464,298,777,1031,684,141,-130,-265
-413,88,506,162,-464,304,783,1043,714,153,-124,-265
-413,94,512,162,-464,310,789,1055,738,165,-118,-265
-413,106,518,156,-464,316,801,1079,756,177,-106,-259
-413,136,530,144,-464,334,813,1109,786,207,-88,-253
-401,166,542,132,-464,352,819,1139,816,237,-70,-241
-395,178,548,120,-464,364,819,1151,846,261,-58,-229
-395,184,554,114,-464,370,819,1157,858,279,-46,-223
-395,190,554,114,-470,376,813,1163,870,291,-34,-211
-395,196,554,114,-470,382,801,1163,882,303,-22,-199
-395,196,554,114,-470,382,789,1151,894,315,-10,-193
-389,202,554,108,-470,382,771,1145,906,327,2,-181
-389,202,554,102,-470,382,747,1139,918,339,14,-175
-383,202,554,96,-470,382,729,1133,930,357,26,-169
-377,202,554,96,-470,382,717,1127,942,381,38,-157
-365,202,548,90,-464,382,711,1121,948,399,49,-145
-353,202,542,84,-452,382,699,1115,954,411,61,-133
-341,202,530,78,-440,382,675,1109,954,423,73,-121
-335,196,518,78,-434,370,651,1097,954,435,79,-115
-329,190,506,78,-422,364,627,1085,954,441,91,-103
-317,190,494,66,-410,358,615,1079,954,453,103,-91
-287,196,482,54,-386,352,603,1067,954,465,115,-79
-263,196,470,42,-362,346,591,1043,954,477,127,-73
-251,196,458,36,-350,346,579,1013,948,483,139,-67
-239,202,440,30,-338,346,567,989,936,489,151,-55
-233,202,428,24,-326,340,543,965,924,489,157,-43
-221,202,416,18,-314,328,525,953,912,489,169,-31
-215,202,392,12,-302,316,501,923,900,489,175,-19
-203,202,374,6,-290,304,477,893,870,489,181,-13
-179,202,356,0,-272,292,453,851,840,489,187,-7
-167,202,344,-6,-260,280,423,803,798,489,187,-1
-149,196,320,-12,-242,268,405,761,756,489,187,5
-131,196,296,-18,-218,256,393,719,708,483,187,5
-119,190,278,-18,-206,244,381,689,660,477,187,11
-107,178,266,-18,-188,232,369,659,624,465,187,17
-101,166,254,-18,-176,214,351,629,594,441,187,17
-95,154,230,-18,-164,196,333,599,558,423,187,23
-89,142,206,-18,-152,184,321,569,522,411,187,23
-77,136,176,-24,-134,166,309,533,480,399,187,29
-65,124,146,-24,-110,154,291,497,432,387,187,29
-53,118,122,-24,-92,142,279,455,378,369,181,29
-41,112,110,-30,-80,136,255,419,336,351,175,29
-29,112,104,-36,-68,136,243,395,306,339,169,29
-17,112,104,-36,-62,130,237,371,276,315,169,29
-17,106,98,-36,-56,118,231,341,246,291,163,29
-17,88,86,-36,-50,88,219,311,204,261,157,29
-17,70,74,-30,-50,76,213,281,162,243,145,29
-17,58,62,-24,-44,64,207,251,132,231,133,29
-17,46,50,-18,-38,58,201,227,96,207,121,29
-17,34,38,-18,-32,52,201,209,66,195,97,23
-5,34,26,-18,-20,46,201,197,36,165,85,17
7,34,14,-18,-8,40,201,185,24,147,73,11
13,34,8,-18,4,40,201,179,12,135,67,5
19,34,8,-18,10,40,201,179,1,117,61,-1
19,34,8,-18,10,34,201,173,-11,105,55,-7
19,34,8,-18,10,34,201,167,-23,93,49,-7
19,34,8,-18,10,34,201,161,-35,87,43,-7
19,34,8,-18,10,34,201,161,-47,81,43,-7
19,34,8,-18,10,34,201,161,-53,81,43,-7
13,34,8,-18,10,34,201,161,-59,75,38,-13
7,22,8,-12,10,28,201,155,-71,63,32,-19
-5,16,8,-6,4,22,201,149,-83,51,26,-19
-11,10,8,0,4,22,207,143,-89,45,20,-25
-11,10,8,0,4,22,213,137,-95,39,14,-31
-11,10,8,0,4,22,225,137,-101,39,14,-31
-11,10,8,0,4,22,231,131,-101,33,8,-31
-11,10,8,0,4,22,237,131,-107,27,8,-37
-11,10,8,0,-2,22,243,131,-107,27,8,-37
-11,10,8,0,-2,22,243,131,-107,27,8,-37
-11,16,8,0,-2,22,243,131,-107,27,8,-37
-11,16,8,0,-2,22,249,131,-107,21,8,-37
-11,16,8,0,-2,22,255,131,-107,21,8,-37
-11,16,8,0,-2,22,255,131,-107,16,8,-37
-11,16,8,0,-2,22,255,131,-107,10,8,-37
-11,16,8,0,-2,22,255,131,-113,10,8,-37
-17,16,8,0,-2,22,255,131,-119,4,2,-37
-17,16,8,0,-2,22,255,131,-125,4,2,-43
-17,16,8,0,-2,22,255,131,-125,4,2,-43
-17,16,8,0,-2,22,255,131,-125,4,2,-43
-17,16,14,0,-8,22,255,131,-125,4,2,-43
-17,16,20,0,-14,22,255,131,-125,4,2,-43
-17,16,20,0,-20,22,255,125,-125,4,2,-43
-23,16,20,6,-26,22,255,119,-125,4,2,-43
-29,16,26,12,-26,22,255,113,-125,4,2,-43
-35,16,26,18,-32,22,255,113,-125,4,2,-43
-41,16,26,18,-38,22,255,107,-125,4,2,-43
-47,16,26,18,-38,22,255,107,-125,4,2,-43
-53,16,32,24,-44,22,255,101,-125,4,2,-43
-59,16,38,24,-50,22,249,95,-125,4,2,-43
-59,16,38,24,-50,22,243,89,-125,4,2,-43
-53,16,38,18,-50,28,237,89,-125,4,2,-43
-53,22,44,12,-50,34,237,89,-125,4,2,-43
-47,28,44,12,-50,40,231,89,-125,4,2,-43
-47,28,44,12,-50,46,225,89,-125,4,2,-43
-47,28,44,12,-50,46,225,89,-125,4,2,-43
-47,28,44,12,-50,46,219,89,-125,4,2,-43
-47,28,44,12,-50,46,207,89,-125,4,2,-43
-47,28,44,12,-50,46,201,89,-125,4,2,-43
-47,28,44,12,-50,46,195,89,-125,4,2,-43
-47,28,44,12,-50,46,189,89,-125,4,8,-43
-47,28,50,12,-50,46,189,89,-125,4,14,-43
-47,28,50,12,-50,46,189,89,-125,4,14,-43
-47,28,50,12,-50,46,189,89,-119,4,14,-43
-47,28,50,12,-50,46,183,89,-119,4,14,-43
-47,28,50,12,-50,46,183,89,-119,10,14,-43
-47,28,50,12,-50,46,183,89,-119,10,14,-43
-47,28,56,12,-50,46,183,89,-119,10,14,-43
-47,28,56,12,-50,46,183,89,-119,10,14,-43
-47,28,56,12,-50,46,183,89,-119,10,14,-43
-47,28,56,12,-50,46,183,89,-119,16,14,-43
-47,28,62,12,-50,46,183,89,-119,21,14,-43
-47,28,62,12,-50,46,183,89,-119,21,14,-43
-47,28,68,12,-56,46,183,89,-119,21,14,-43
-47,28,68,12,-56,46,183,89,-119,21,14,-43
-47,28,68,12,-62,46,183,89,-119,21,14,-43
-47,28,68,12,-62,46,189,89,-119,21,14,-43
-47,28,68,12,-62,46,189,89,-119,21,14,-43
-47,28,68,12,-62,46,189,89,-119,21,14,-43
-47,28,68,12,-62,46,189,89,-119,27,14,-43
-47,28,68,12,-62,46,201,95,-119,33,14,-37
-47,28,68,12,-62,46,207,95,-119,39,14,-31
-47,28,68,12,-62,46,207,95,-119,39,14,-31
-47,28,68,12,-62,46,207,95,-119,39,14,-31
-47,28,68,12,-62,46,207,95,-119,39,14,-31
-47,28,68,12,-62,46,213,95,-119,39,14,-31
-47,28,68,12,-62,46,213,95,-119,39,14,-31
-47,28,68,12,-62,46,213,95,-119,39,14,-31
-59,22,68,18,-62,46,213,95,-119,39,14,-31
-71,10,68,24,-68,46,213,95,-119,39,14,-31
-77,4,68,30,-74,46,213,95,-119,39,14,-31
-77,4,68,30,-74,46,213,95,-119,39,20,-31
-71,4,68,30,-74,46,213,95,-119,39,26,-31
-65,10,68,24,-74,46,213,95,-119,39,26,-31
-59,16,68,18,-74,46,219,95,-119,39,32,-25
-53,22,68,18,-74,46,225,95,-119,39,38,-19
-47,28,68,12,-74,46,231,95,-119,39,38,-19
-41,34,68,6,-68,46,237,95,-119,39,38,-19
-41,34,68,0,-68,52,237,95,-119,39,38,-19
-41,34,68,0,-68,52,237,95,-119,39,38,-19
-41,34,68,0,-68,52,237,95,-119,39,38,-19
-41,34,68,0,-68,52,237,95,-119,39,38,-19
-41,34,68,0,-68,52,237,95,-119,39,38,-19
-41,34,68,0,-68,52,237,95,-119,39,38,-19
-41,34,68,0,-68,52,237,95,-119,39,38,-19
-41,34,68,0,-68,58,237,95,-119,39,38,-19
-41,34,68,0,-68,58,237,95,-119,39,38,-19
-41,34,74,0,-68,58,237,95,-119,39,38,-19
-41,34,80,0,-68,64,237,95,-119,39,38,-19
-41,40,86,-6,-68,64,237,89,-119,39,43,-13
-41,46,86,-12,-68,70,237,89,-119,39,43,-7
-35,52,86,-18,-68,70,237,89,-119,39,43,-1
-35,52,86,-18,-68,70,237,83,-119,39,43,-1
-35,52,86,-18,-68,70,231,77,-119,39,43,-1
-35,52,86,-18,-68,70,225,71,-119,39,43,-1
-35,52,86,-18,-62,70,225,71,-119,39,43,-1
-35,52,86,-18,-62,70,225,65,-119,39,43,-1
-35,52,86,-18,-62,70,225,65,-119,39,43,-1
-35,46,86,-18,-62,70,219,65,-119,39,43,-1
-35,40,80,-18,-62,70,213,65,-119,39,43,-1
-35,40,80,-18,-62,70,207,59,-119,39,43,-1
-29,40,80,-18,-62,70,201,59,-125,39,43,-1
-29,40,80,-18,-62,70,195,53,-125,39,43,-1
-29,40,80,-18,-56,70,189,47,-131,39,43,-1
-29,40,80,-18,-56,70,183,41,-137,33,43,-1
-29,40,80,-18,-56,70,183,35,-137,27,43,-1
-29,40,80,-18,-56,70,183,29,-137,27,43,-1
-29,40,80,-18,-56,70,183,29,-137,27,43,-1
-29,40,80,-18,-56,64,177,23,-137,21,43,-1
-29,34,80,-6,-56,58,171,17,-137,21,43,-7
-29,28,74,0,-56,52,165,11,-137,21,43,-7
-29,22,68,6,-56,52,165,11,-137,21,43,-7
-29,22,68,6,-56,52,165,11,-137,16,43,-7
-29,16,68,6,-56,46,159,5,-137,16,43,-7
-35,10,62,12,-56,46,153,0,-137,10,38,-7
-41,10,62,12,-56,46,147,0,-137,4,38,-7
-41,10,62,12,-56,46,147,0,-137,4,38,-7
-35,10,56,12,-50,46,147,0,-137,4,38,-7
-29,10,56,6,-44,46,147,0,-137,4,38,-7
-23,10,56,6,-38,46,147,0,-137,4,38,-7
-23,10,56,6,-38,46,147,0,-137,4,38,-7
-23,10,56,6,-38,46,147,0,-137,4,38,-7
-23,10,56,6,-38,46,147,0,-137,4,38,-7
-23,10,56,6,-38,46,147,0,-143,-2,38,-7
-23,10,56,6,-38,46,147,0,-143,-2,38,-7
-23,10,56,6,-38,46,147,0,-143,-2,38,-7
-23,10,56,6,-38,46,141,-6,-149,-8,38,-7
-23,10,56,6,-38,46,135,-12,-155,-14,38,-13
-23,10,56,6,-38,46,129,-18,-155,-20,38,-13
-23,10,56,6,-38,46,123,-18,-155,-20,38,-13
-23,10,56,6,-38,46,117,-18,-155,-20,38,-13
-23,10,56,6,-38,46,111,-18,-155,-20,38,-19
-23,10,50,6,-38,40,105,-18,-155,-20,32,-19
-23,10,50,6,-38,34,105,-18,-155,-20,32,-19
-23,10,50,6,-38,34,105,-24,-155,-20,32,-19
-23,10,50,6,-38,28,105,-30,-155,-20,32,-19
-29,4,50,6,-38,28,105,-30,-155,-20,32,-19
-35,-1,50,12,-38,22,105,-30,-155,-20,32,-19
-35,-7,50,18,-38,22,105,-30,-161,-20,32,-19
-35,-7,50,18,-38,22,105,-30,-161,-20,32,-19
-35,-7,50,18,-38,22,105,-30,-161,-20,32,-19
-35,-7,50,18,-38,22,105,-30,-161,-20,32,-19
-35,-7,50,18,-38,22,105,-30,-161,-20,32,-19
-35,-7,50,18,-38,22,105,-30,-161,-20,32,-19
-35,-1,50,12,-38,22,105,-30,-161,-20,32,-19
-35,-1,50,12,-38,22,111,-30,-161,-20,32,-19
-29,4,50,12,-38,22,117,-30,-161,-20,32,-19
-23,10,50,6,-32,22,117,-30,-161,-20,32,-19
-17,16,50,0,-32,28,117,-30,-161,-20,32,-19
-17,16,50,0,-32,28,117,-30,-161,-14,32,-19
-17,16,50,0,-32,28,117,-30,-161,-14,32,-19
-17,16,50,0,-32,28,117,-30,-161,-14,32,-19
-17,16,50,0,-32,28,117,-30,-161,-14,32,-19
-17,16,50,0,-32,28,117,-30,-161,-14,32,-19
-17,16,50,0,-32,28,117,-30,-161,-14,32,-19
-17,16,50,0,-32,28,117,-30,-161,-14,32,-19
-17,16,50,0,-32,28,117,-30,-161,-8,32,-19
-17,16,50,0,-32,28,117,-30,-161,-8,32,-19
-11,16,50,-6,-32,28,117,-30,-155,-8,38,-19
-11,22,50,-12,-26,28,117,-30,-155,-8,38,-19
-5,28,50,-12,-26,28,117,-30,-155,-8,38,-19
-5,28,50,-12,-26,28,117,-24,-149,-8,38,-19
-5,28,50,-12,-26,28,117,-24,-149,-2,43,-19
-5,28,50,-12,-26,34,117,-24,-143,4,49,-19
-5,28,50,-12,-26,40,117,-24,-137,4,55,-19
-5,28,50,-12,-26,40,117,-18,-131,10,61,-19
-5,28,50,-12,-26,40,117,-12,-131,10,61,-19
-5,28,50,-12,-26,40,117,-12,-125,10,61,-19
-5,34,50,-12,-26,46,123,-12,-125,10,61,-19
-5,40,50,-12,-26,46,129,-12,-119,16,67,-19
-5,40,50,-12,-26,46,135,-12,-113,21,73,-13
-5,40,50,-12,-26,46,135,-12,-113,21,73,-13
-5,40,50,-12,-26,46,135,-12,-113,21,73,-13
-5,40,50,-12,-26,46,135,-6,-113,21,73,-13
