,,,,,,,,,,,
2019-09-04 23:17:55,,,,,,,,,,,
,,,,,,,,,,,
I,II,III,aVR,aVL,aVF,V1,V2,V3,V4,V5,V6
-463,290,769,73,-556,535,-602,-1371,611,1071,232,-727
-13,308,325,-112,-106,373,447,452,-6,-386,-271,-67
76,320,241,-160,-22,331,609,728,-144,-644,-373,52
100,326,211,-178,7,307,627,758,-180,-692,-391,82
112,332,199,-184,19,295,633,758,-210,-722,-403,94
124,332,193,-190,25,289,633,758,-240,-746,-409,106
130,332,187,-196,31,283,633,752,-264,-764,-415,112
136,332,181,-202,37,277,627,734,-288,-776,-421,118
142,332,175,-202,43,271,615,698,-306,-782,-427,124
148,332,163,-202,49,265,591,662,-324,-794,-433,130
154,332,157,-202,55,265,561,632,-342,-800,-439,136
154,332,151,-202,61,265,543,590,-354,-806,-439,142
160,332,145,-202,67,259,531,560,-372,-812,-439,148
166,332,139,-208,73,253,513,536,-384,-818,-439,148
172,332,133,-208,79,247,501,512,-402,-824,-439,148
178,332,127,-208,85,241,477,482,-414,-824,-439,154
178,332,121,-214,91,235,459,452,-426,-824,-433,160
184,332,115,-214,97,235,435,422,-438,-824,-427,166
190,332,103,-214,103,229,411,392,-444,-824,-421,172
190,332,97,-214,109,223,393,362,-450,-824,-415,178
190,326,91,-214,115,217,381,338,-456,-824,-403,184
196,326,85,-214,121,211,375,326,-462,-824,-391,190
196,320,79,-214,121,211,369,314,-468,-818,-379,196
196,320,79,-214,121,205,357,296,-480,-812,-373,196
196,320,73,-214,127,199,345,278,-486,-800,-367,196
196,314,67,-214,127,193,333,254,-492,-794,-361,202
202,308,61,-214,133,193,327,236,-498,-782,-355,202
208,308,55,-214,133,187,321,212,-498,-776,-349,202
208,308,49,-214,133,187,315,200,-498,-770,-343,202
208,302,43,-214,133,181,309,188,-504,-764,-337,202
208,296,43,-214,133,175,303,176,-510,-758,-331,202
208,290,43,-214,133,169,297,164,-510,-752,-325,202
208,284,43,-214,133,163,297,152,-516,-746,-319,202
208,284,37,-214,133,163,297,140,-516,-740,-313,202
208,284,37,-214,133,163,291,128,-516,-734,-313,202
208,278,37,-214,133,163,285,116,-516,-728,-313,202
208,278,37,-214,133,163,285,110,-516,-722,-313,202
208,278,37,-214,133,163,285,104,-522,-722,-307,202
208,278,37,-208,133,163,285,98,-522,-716,-307,202
208,278,37,-202,133,163,285,92,-522,-710,-307,202
208,272,37,-202,133,163,285,86,-522,-710,-307,202
208,266,37,-202,133,163,285,86,-528,-710,-307,202
208,266,37,-196,133,163,285,80,-534,-710,-307,202
208,266,37,-196,133,163,285,74,-534,-710,-307,202
208,266,37,-196,133,163,285,68,-534,-704,-307,202
208,266,37,-190,133,157,285,68,-534,-704,-307,202
208,266,37,-184,133,157,285,68,-534,-704,-307,202
208,260,31,-184,133,157,285,68,-534,-704,-307,202
208,260,31,-184,133,157,285,62,-534,-704,-307,202
208,260,31,-184,133,157,285,62,-534,-704,-307,202
202,254,31,-184,133,157,285,62,-534,-704,-307,196
196,248,31,-184,133,157,285,62,-534,-704,-307,190
190,242,31,-184,133,157,285,62,-534,-704,-307,184
190,242,31,-184,133,151,285,62,-534,-704,-307,184
184,242,31,-184,133,151,285,62,-534,-704,-307,184
184,242,31,-184,133,151,285,62,-534,-704,-307,184
184,242,31,-178,133,151,285,62,-534,-704,-307,178
184,242,31,-178,133,151,285,62,-534,-704,-307,178
184,242,31,-178,133,151,285,62,-534,-704,-307,178
184,242,31,-178,133,151,285,62,-534,-704,-307,178
184,242,31,-178,133,151,285,62,-534,-704,-307,172
184,242,31,-178,133,151,285,62,-534,-704,-307,172
184,242,31,-172,133,151,285,62,-534,-704,-307,172
184,242,31,-172,133,151,285,62,-534,-704,-307,172
178,242,31,-172,133,151,285,62,-534,-704,-307,172
178,242,31,-172,133,151,285,62,-534,-704,-307,166
178,242,31,-172,133,151,285,62,-534,-704,-307,160
178,242,31,-172,133,151,285,62,-534,-704,-307,160
178,242,31,-172,133,151,285,62,-534,-704,-307,154
172,242,31,-172,133,151,285,62,-534,-704,-307,154
172,242,31,-172,133,151,285,62,-534,-704,-307,154
172,242,31,-172,133,151,285,62,-534,-704,-307,154
172,242,31,-172,133,151,285,62,-534,-704,-307,154
172,242,31,-172,133,151,285,62,-528,-704,-307,154
172,242,31,-172,133,151,285,62,-528,-704,-307,154
172,242,31,-172,133,151,285,62,-528,-704,-307,154
172,242,31,-172,133,151,285,62,-528,-704,-307,154
172,242,31,-172,133,151,285,62,-528,-698,-307,154
172,242,31,-172,133,151,285,62,-528,-698,-307,154
172,242,31,-172,133,151,285,62,-528,-698,-307,148
172,236,31,-166,133,151,285,62,-528,-698,-307,148
172,236,31,-166,133,151,279,62,-528,-698,-307,148
172,236,31,-166,133,151,279,62,-528,-698,-313,148
172,236,31,-166,133,151,279,62,-528,-698,-313,148
172,236,31,-166,133,151,279,62,-528,-698,-313,148
172,236,31,-166,133,151,273,62,-528,-698,-313,148
172,236,31,-166,133,151,273,62,-528,-698,-313,148
172,230,31,-166,133,151,273,62,-528,-698,-313,148
172,224,31,-166,133,151,273,62,-528,-698,-313,148
172,224,31,-166,133,151,273,62,-528,-698,-313,148
172,224,31,-166,133,151,273,62,-528,-698,-313,148
172,224,31,-166,133,151,273,62,-528,-698,-313,142
172,224,31,-160,133,151,273,62,-528,-698,-313,142
172,224,31,-160,133,151,273,62,-528,-698,-313,142
172,224,31,-160,133,151,273,62,-528,-698,-313,142
166,224,31,-160,133,151,273,62,-528,-698,-313,142
166,224,31,-160,133,151,267,62,-528,-698,-313,142
166,224,31,-160,133,151,267,62,-528,-698,-313,142
166,224,31,-160,133,151,261,62,-528,-698,-313,142
166,224,31,-160,133,151,261,62,-528,-698,-313,142
166,224,31,-160,133,151,261,62,-528,-698,-313,142
166,224,31,-160,133,151,261,62,-528,-698,-313,142
166,224,31,-160,133,151,261,62,-528,-698,-313,142
166,224,31,-160,133,151,261,62,-528,-698,-313,142
166,224,31,-160,133,151,255,62,-528,-698,-313,136
166,224,31,-160,133,151,255,62,-528,-698,-319,136
166,224,31,-160,133,151,255,62,-528,-698,-319,136
166,224,31,-160,133,151,255,56,-528,-704,-319,136
160,218,31,-160,133,145,255,50,-528,-710,-319,136
154,212,31,-154,127,145,255,44,-528,-710,-325,136
148,206,31,-154,127,145,249,38,-528,-710,-325,130
148,200,31,-148,127,145,249,38,-528,-710,-325,130
148,200,31,-148,127,145,243,32,-528,-710,-325,130
148,200,31,-142,127,139,243,32,-534,-716,-325,130
148,200,31,-142,127,139,237,32,-540,-716,-325,130
148,200,31,-142,127,139,237,32,-540,-716,-325,130
148,194,31,-142,127,139,237,26,-540,-722,-325,130
148,194,31,-142,127,139,237,20,-540,-722,-325,130
148,194,31,-142,127,139,237,14,-540,-722,-325,130
148,194,31,-142,127,139,237,8,-540,-728,-325,130
148,194,31,-142,127,139,237,8,-540,-728,-325,130
148,194,31,-142,127,139,237,2,-546,-728,-325,130
148,194,31,-142,127,139,231,2,-546,-728,-331,130
148,194,31,-142,127,139,231,2,-546,-728,-331,124
148,194,25,-142,127,139,225,-4,-552,-734,-331,118
148,194,25,-142,127,139,225,-4,-552,-734,-337,118
148,194,25,-142,127,133,225,-9,-558,-734,-337,118
148,194,25,-142,127,133,225,-9,-558,-740,-337,118
148,194,25,-142,127,133,225,-9,-558,-740,-337,118
148,194,25,-142,127,133,219,-9,-558,-740,-337,118
148,194,25,-142,127,133,219,-9,-558,-740,-337,118
148,194,25,-142,127,133,213,-9,-558,-740,-337,118
148,194,25,-142,127,133,213,-15,-558,-740,-343,118
148,194,25,-142,127,133,213,-21,-558,-740,-343,118
148,194,25,-142,127,133,213,-21,-558,-740,-343,118
148,194,25,-142,127,133,213,-27,-558,-740,-343,112
148,194,25,-142,127,133,213,-27,-558,-740,-343,106
148,194,25,-142,127,133,213,-27,-558,-746,-343,100
148,194,25,-142,127,133,213,-27,-558,-746,-343,100
148,194,25,-142,127,127,207,-27,-558,-746,-349,100
148,188,25,-142,127,127,207,-27,-558,-746,-349,100
148,188,25,-142,127,127,207,-27,-558,-746,-349,100
148,188,25,-142,127,127,207,-27,-558,-746,-349,100
148,188,25,-142,127,127,207,-33,-558,-752,-349,100
148,188,25,-142,127,127,207,-33,-558,-752,-349,100
148,188,25,-142,127,127,201,-33,-558,-752,-349,100
148,188,25,-142,127,127,201,-33,-558,-752,-349,100
148,188,25,-142,127,127,201,-39,-558,-752,-349,100
148,188,25,-142,127,127,195,-45,-558,-752,-349,100
148,188,25,-142,127,127,195,-45,-558,-752,-349,100
148,188,25,-142,127,127,195,-45,-558,-752,-349,100
148,188,25,-142,127,127,195,-45,-558,-752,-349,100
148,188,25,-142,121,127,195,-45,-558,-752,-349,100
148,188,25,-142,121,127,195,-45,-558,-752,-349,100
148,188,25,-142,121,127,195,-45,-558,-752,-349,100
148,188,25,-142,121,127,195,-45,-558,-752,-349,100
148,188,25,-142,121,127,195,-45,-558,-752,-349,100
148,188,25,-142,121,127,195,-45,-558,-752,-349,100
148,182,25,-142,121,127,195,-45,-558,-752,-349,100
148,182,25,-142,121,127,189,-45,-558,-752,-349,100
148,182,25,-142,121,127,189,-45,-558,-752,-349,100
148,182,25,-142,121,127,189,-45,-558,-752,-349,100
148,182,25,-142,121,127,189,-45,-558,-752,-349,100
148,182,25,-142,121,127,189,-45,-558,-752,-349,100
148,182,25,-142,121,127,189,-45,-558,-752,-349,100
148,182,25,-142,121,127,189,-51,-558,-752,-349,100
148,182,25,-142,121,127,189,-51,-558,-752,-349,100
148,176,25,-142,121,127,189,-51,-558,-752,-349,100
148,176,25,-142,121,127,183,-51,-558,-752,-349,100
148,176,25,-142,121,127,183,-51,-558,-752,-349,100
148,176,25,-142,121,127,183,-51,-558,-752,-349,100
148,170,25,-142,121,127,183,-51,-558,-752,-349,100
148,170,25,-142,115,127,183,-51,-558,-752,-349,100
148,170,25,-142,115,127,183,-51,-558,-752,-349,100
148,170,25,-142,115,127,183,-51,-558,-752,-349,100
148,170,25,-142,115,127,183,-51,-558,-752,-349,100
148,170,25,-142,115,127,177,-51,-558,-752,-349,100
148,170,25,-142,115,127,177,-51,-558,-752,-349,100
148,170,25,-142,115,121,177,-51,-558,-752,-349,100
148,170,25,-142,115,121,177,-51,-558,-752,-349,100
148,170,25,-142,115,121,177,-57,-558,-752,-349,100
148,170,25,-142,115,121,177,-57,-558,-752,-349,100
148,170,25,-142,115,121,177,-57,-558,-752,-349,100
148,170,25,-142,115,121,177,-57,-558,-752,-349,100
148,170,25,-142,115,121,177,-57,-558,-752,-349,100
148,170,25,-142,115,121,177,-57,-558,-752,-349,100
148,170,25,-142,115,121,177,-57,-558,-752,-349,100
148,170,25,-142,115,121,177,-57,-558,-752,-349,100
148,170,25,-142,115,121,177,-57,-558,-752,-349,100
148,170,25,-142,115,115,177,-57,-558,-752,-349,100
148,170,25,-142,115,115,177,-57,-558,-752,-349,100
148,170,25,-142,115,115,177,-57,-558,-752,-349,100
148,170,25,-142,115,115,177,-57,-558,-752,-349,100
148,170,25,-142,115,115,171,-57,-558,-752,-349,100
148,170,25,-142,115,115,171,-57,-558,-752,-349,100
148,164,25,-136,115,115,171,-57,-558,-752,-349,100
148,164,25,-136,115,115,171,-57,-558,-752,-349,100
148,164,25,-136,115,115,171,-57,-558,-752,-349,100
148,164,25,-136,115,115,171,-57,-552,-752,-349,100
148,164,25,-136,115,115,171,-57,-552,-752,-349,100
148,164,25,-136,115,115,165,-57,-552,-752,-349,100
148,164,25,-136,115,115,165,-57,-552,-752,-349,100
148,164,25,-136,115,115,165,-57,-552,-752,-349,100
148,164,25,-136,115,115,165,-57,-552,-752,-349,100
148,164,25,-136,115,115,165,-57,-552,-752,-349,100
148,164,25,-136,115,115,165,-57,-546,-752,-349,100
148,164,25,-136,115,115,165,-57,-546,-752,-349,100
148,164,25,-136,115,115,165,-57,-546,-752,-349,100
148,164,25,-136,115,115,165,-57,-540,-752,-349,100
148,164,25,-136,115,115,165,-57,-540,-752,-349,100
148,164,25,-136,115,115,165,-57,-540,-752,-349,100
148,164,25,-136,115,115,165,-57,-534,-752,-349,100
148,164,25,-136,109,115,165,-57,-534,-752,-349,100
148,164,25,-136,103,115,165,-57,-534,-752,-349,100
148,164,25,-136,103,115,159,-57,-534,-752,-349,100
148,164,25,-136,103,115,159,-57,-534,-752,-349,100
148,164,25,-136,103,115,159,-57,-534,-752,-349,100
148,164,25,-136,103,115,159,-57,-528,-752,-349,100
148,164,25,-136,103,115,159,-57,-528,-752,-349,100
148,164,25,-136,97,115,159,-57,-528,-752,-349,100
148,164,25,-136,97,115,159,-57,-528,-752,-343,94
148,164,25,-136,97,115,153,-57,-528,-752,-343,94
148,164,25,-136,97,115,153,-57,-528,-752,-343,94
148,164,25,-136,97,115,153,-57,-528,-752,-343,94
142,164,25,-136,97,115,153,-57,-522,-752,-343,94
142,164,25,-136,97,115,153,-63,-522,-752,-343,94
136,164,25,-136,97,115,153,-63,-522,-752,-343,94
136,164,25,-136,97,115,147,-63,-522,-752,-343,94
136,164,25,-136,97,115,147,-63,-522,-752,-343,88
136,164,25,-136,97,115,147,-63,-522,-752,-343,88
136,164,25,-136,91,115,147,-69,-516,-752,-343,88
136,164,25,-136,91,115,147,-69,-516,-752,-343,88
136,164,25,-136,91,115,147,-69,-516,-752,-343,88
136,164,25,-136,91,115,147,-69,-510,-752,-343,88
136,164,25,-136,91,115,147,-69,-510,-752,-337,88
136,164,25,-136,91,115,141,-69,-510,-746,-337,88
136,164,25,-136,91,115,141,-69,-510,-746,-337,88
136,164,25,-136,91,115,141,-69,-510,-746,-337,88
136,164,25,-136,91,115,141,-69,-510,-740,-337,88
136,164,25,-136,91,115,141,-69,-510,-740,-337,88
136,164,25,-136,91,115,141,-69,-510,-740,-337,88
136,164,25,-136,85,115,141,-69,-510,-740,-337,88
136,164,25,-136,85,115,141,-69,-510,-740,-337,88
136,164,25,-136,85,115,141,-69,-504,-740,-337,88
130,164,25,-136,85,115,141,-69,-504,-740,-337,88
124,164,31,-136,85,115,141,-69,-504,-740,-337,88
124,164,31,-136,85,115,141,-69,-504,-740,-331,88
124,164,31,-136,85,115,135,-69,-498,-734,-331,88
124,164,31,-130,85,115,135,-69,-498,-728,-331,88
124,164,31,-130,85,115,135,-69,-498,-728,-331,88
124,164,31,-130,85,115,135,-69,-498,-728,-331,88
124,164,31,-130,85,115,135,-69,-498,-728,-325,82
124,164,31,-130,85,115,135,-69,-498,-728,-325,82
124,164,31,-130,85,115,135,-69,-498,-728,-325,82
124,164,31,-130,85,115,135,-69,-498,-728,-325,82
124,164,31,-130,85,115,135,-69,-498,-728,-325,82
124,164,31,-130,79,115,135,-69,-492,-728,-325,82
124,164,31,-130,79,115,135,-69,-492,-728,-325,82
124,164,31,-130,79,115,135,-69,-492,-728,-325,82
124,164,31,-130,79,115,135,-69,-492,-728,-325,82
124,164,31,-130,79,115,135,-69,-486,-728,-325,76
124,164,31,-130,79,115,135,-69,-486,-728,-325,76
124,164,31,-130,79,115,135,-69,-486,-728,-325,76
124,164,37,-130,73,115,135,-69,-486,-728,-325,76
124,164,37,-130,73,115,135,-69,-486,-728,-325,76
124,164,37,-130,73,115,135,-69,-480,-722,-319,76
124,164,43,-130,73,115,135,-69,-480,-722,-319,76
124,164,43,-130,73,115,135,-69,-480,-722,-319,76
124,164,43,-130,73,115,135,-69,-480,-722,-319,70
124,164,43,-130,73,115,135,-69,-480,-722,-319,70
124,164,43,-130,73,115,135,-69,-480,-722,-319,70
118,164,43,-130,67,115,135,-69,-474,-722,-319,70
118,164,43,-130,67,115,135,-69,-474,-722,-319,70
112,164,43,-124,67,115,135,-69,-474,-722,-319,70
112,164,43,-124,67,115,135,-69,-468,-722,-319,70
112,164,43,-124,61,115,135,-75,-468,-716,-319,70
112,164,43,-124,61,115,135,-81,-468,-716,-319,70
112,164,43,-124,61,115,129,-81,-468,-716,-319,70
112,164,43,-124,61,115,129,-81,-468,-716,-313,70
112,164,43,-124,61,115,129,-81,-462,-716,-313,70
112,164,43,-124,61,115,123,-81,-462,-716,-313,70
112,164,43,-124,61,115,123,-81,-456,-716,-313,70
112,164,43,-124,61,115,123,-81,-456,-716,-313,70
112,164,49,-124,61,115,123,-81,-456,-710,-313,70
112,164,49,-124,61,115,123,-87,-456,-710,-313,70
112,164,55,-124,61,115,123,-87,-456,-710,-313,70
112,164,55,-124,61,115,123,-87,-456,-710,-313,70
112,164,55,-124,61,115,123,-87,-456,-710,-313,70
112,164,55,-124,61,115,123,-87,-456,-710,-313,70
112,164,55,-124,61,115,123,-87,-456,-710,-307,70
112,164,55,-124,55,115,123,-87,-456,-710,-307,70
112,164,55,-124,55,115,117,-87,-456,-710,-307,70
112,164,55,-124,55,115,117,-87,-450,-710,-307,70
112,164,61,-124,55,121,117,-87,-444,-704,-301,70
112,164,61,-124,55,121,117,-87,-438,-698,-295,70
112,164,67,-124,55,127,117,-87,-432,-692,-289,70
112,170,67,-124,55,127,117,-87,-426,-686,-283,70
112,176,67,-124,55,133,117,-87,-420,-686,-277,70
112,182,73,-124,49,139,123,-87,-414,-680,-277,70
112,188,79,-124,49,145,129,-81,-408,-674,-271,70
112,194,91,-130,49,157,135,-75,-402,-668,-271,70
112,206,103,-130,43,169,147,-69,-396,-656,-265,70
112,218,115,-136,37,181,153,-63,-390,-650,-259,70
112,230,127,-142,31,187,159,-57,-384,-644,-253,70
112,236,139,-148,25,193,165,-51,-372,-638,-241,70
112,242,145,-154,19,199,165,-45,-366,-632,-235,76
112,254,151,-160,19,211,165,-39,-360,-626,-229,82
112,260,151,-166,19,217,165,-33,-354,-620,-223,82
112,266,151,-166,13,223,165,-27,-348,-614,-223,82
112,272,151,-166,7,229,165,-27,-348,-614,-223,82
112,278,157,-172,7,235,165,-27,-348,-608,-223,82
112,284,163,-178,7,241,165,-27,-342,-602,-217,88
112,290,169,-184,7,247,165,-27,-336,-596,-211,94
112,296,175,-190,7,253,165,-27,-330,-590,-205,94
112,302,181,-190,7,259,153,-27,-330,-590,-199,94
118,308,181,-190,7,259,135,-27,-330,-590,-199,100
124,314,181,-196,7,259,105,-27,-330,-590,-193,106
130,320,181,-202,7,259,87,-33,-330,-584,-187,112
136,326,181,-208,7,259,75,-33,-330,-578,-187,112
142,326,181,-214,7,259,69,-33,-330,-578,-187,118
142,326,181,-214,7,259,63,-33,-330,-578,-187,118
142,326,181,-214,7,265,57,-33,-330,-578,-181,118
142,332,181,-214,7,271,57,-33,-330,-578,-175,124
142,332,181,-214,7,271,51,-33,-330,-578,-175,124
142,338,187,-214,7,271,45,-39,-330,-578,-175,124
142,338,187,-214,7,271,45,-45,-330,-578,-175,124
142,338,187,-214,7,271,45,-45,-330,-572,-175,124
142,338,187,-214,7,271,45,-45,-330,-566,-169,124
142,338,187,-214,7,271,45,-45,-324,-560,-163,124
142,338,187,-214,7,271,45,-45,-318,-560,-163,124
142,338,181,-214,7,271,45,-39,-312,-560,-163,124
142,326,169,-214,13,265,45,-33,-306,-560,-163,124
142,314,157,-208,19,253,45,-27,-300,-560,-163,124
142,284,145,-196,25,223,57,-21,-300,-560,-163,124
142,254,133,-184,31,211,69,-15,-300,-560,-163,124
142,236,121,-172,31,193,81,-9,-300,-560,-169,118
142,224,109,-160,37,181,93,-4,-300,-560,-175,106
142,206,91,-154,37,169,105,8,-300,-560,-181,100
142,194,73,-148,43,157,117,26,-300,-560,-187,88
142,182,61,-148,49,145,129,50,-294,-560,-187,82
142,176,55,-142,55,133,141,80,-282,-560,-187,76
142,164,49,-136,61,121,153,110,-270,-560,-187,76
142,158,37,-136,67,109,165,134,-258,-560,-187,76
142,152,25,-136,73,103,171,164,-234,-554,-187,76
142,152,19,-136,79,97,183,206,-210,-548,-187,76
142,152,13,-136,85,97,183,236,-198,-542,-187,76
148,152,7,-136,91,97,183,266,-180,-536,-187,76
154,152,2,-136,97,97,177,302,-156,-524,-187,76
160,152,-4,-142,103,91,165,344,-144,-518,-187,76
166,152,-10,-142,109,91,135,374,-132,-512,-187,76
172,152,-16,-148,121,91,81,386,-120,-506,-187,76
184,158,-22,-154,127,91,3,392,-108,-494,-187,76
196,158,-28,-160,139,91,-92,398,-96,-482,-181,76
208,158,-34,-166,151,91,-176,410,-84,-470,-169,76
220,164,-34,-172,151,91,-224,422,-66,-458,-163,82
226,182,-34,-184,151,97,-242,446,-48,-446,-151,88
232,224,-10,-208,145,121,-248,482,-6,-404,-139,94
238,272,19,-226,139,157,-254,524,41,-362,-109,112
244,314,49,-256,133,193,-278,542,83,-320,-85,136
256,362,85,-280,127,235,-326,542,113,-272,-49,166
268,404,115,-310,121,271,-416,542,161,-206,5,196
292,458,145,-352,121,313,-500,542,215,-134,64,238
310,500,163,-388,115,343,-590,524,233,-92,118,280
340,524,169,-418,115,355,-716,428,239,-56,160,322
388,536,157,-448,133,355,-824,380,251,-14,208,358
448,536,115,-466,187,343,-926,356,275,51,256,400
502,536,43,-484,259,313,-1004,356,317,141,322,448
574,542,-16,-514,325,301,-1058,356,395,261,424,520
646,554,-58,-556,379,289,-1142,356,449,381,544,610
718,596,-82,-628,427,289,-1274,224,467,513,706,754
814,686,-94,-736,469,295,-1448,-9,467,669,928,940
934,812,-94,-862,517,343,-1640,-219,473,897,1222,1192
1084,980,-94,-1018,577,427,-1868,-405,521,1233,1612,1504
1216,1190,-70,-1192,619,559,-2072,-579,653,1629,2056,1876
1342,1412,19,-1354,649,715,-2252,-759,767,2043,2540,2247
1462,1640,133,-1528,661,889,-2455,-939,911,2485,3032,2648
1552,1862,259,-1684,667,1081,-2641,-1089,1085,2929,3506,3008
1606,2059,409,-1810,661,1249,-2767,-1197,1235,3325,3920,3326
1624,2209,553,-1894,613,1393,-2809,-1305,1343,3619,4220,3548
1624,2281,673,-1924,517,1501,-2809,-1377,1373,3793,4400,3680
1588,2299,745,-1924,439,1531,-2755,-1431,1373,3877,4472,3710
1480,2281,775,-1870,373,1531,-2563,-1431,1385,3937,4484,3710
1318,2143,787,-1708,301,1501,-2288,-1347,1427,3961,4460,3584
1144,1892,775,-1498,259,1357,-1952,-1095,1457,3925,4232,3326
1012,1592,631,-1276,253,1123,-1610,-837,1457,3583,3824,2966
886,1286,451,-1072,253,877,-1298,-615,1337,3013,3224,2504
760,1010,313,-862,253,679,-1022,-453,1079,2300,2522,2008
628,782,217,-682,247,511,-782,-333,785,1551,1774,1498
484,602,169,-532,229,397,-572,-279,425,753,1036,1024
388,500,151,-424,187,337,-416,-261,89,111,496,682
334,434,139,-370,157,307,-314,-237,-54,-152,268,526
304,404,127,-328,145,277,-242,-183,-66,-170,226,454
280,374,115,-304,133,265,-176,-111,-60,-170,208,412
250,356,109,-280,121,253,-110,-57,-48,-164,196,376
232,332,109,-256,109,247,-56,-4,-36,-158,184,346
220,314,109,-244,97,235,-9,38,-24,-158,160,316
208,284,103,-232,91,217,39,86,-12,-158,124,280
196,260,97,-220,91,187,81,128,-6,-170,88,250
190,248,85,-208,91,175,105,158,-6,-200,52,232
184,236,73,-196,91,163,135,188,-6,-230,11,208
178,224,67,-184,91,151,159,206,-12,-266,-19,178
172,218,61,-172,85,145,177,218,-24,-296,-55,154
160,206,61,-160,79,145,207,230,-30,-320,-85,124
154,194,61,-154,79,139,225,260,-36,-344,-109,112
148,188,61,-148,79,133,243,284,-42,-356,-133,100
148,176,61,-142,79,127,255,302,-48,-380,-151,82
142,170,55,-136,79,121,267,314,-54,-404,-175,70
142,164,49,-130,79,115,279,320,-60,-416,-193,58
136,158,43,-130,79,115,291,326,-66,-428,-205,46
130,158,43,-124,79,115,303,332,-72,-434,-217,40
130,152,43,-124,79,115,309,338,-72,-440,-229,28
124,152,43,-118,79,115,321,344,-78,-446,-235,16
124,146,43,-112,79,109,333,350,-78,-446,-241,10
124,146,43,-112,79,103,339,356,-78,-446,-247,4
124,146,43,-112,79,103,345,362,-78,-446,-253,-2
124,146,37,-112,79,103,351,368,-78,-446,-259,-8
118,140,37,-106,79,103,351,368,-78,-446,-265,-8
118,140,37,-106,79,103,357,368,-78,-446,-265,-14
118,140,37,-106,79,103,363,374,-78,-446,-271,-14
118,140,37,-106,79,103,363,386,-78,-446,-271,-19
118,134,37,-106,79,103,369,398,-78,-446,-271,-19
118,134,37,-106,79,103,369,404,-78,-446,-271,-25
118,134,37,-106,73,103,375,410,-78,-446,-271,-31
118,134,37,-106,73,103,381,416,-78,-446,-271,-31
118,134,37,-106,73,103,381,422,-72,-446,-271,-31
118,134,37,-106,73,103,387,428,-72,-446,-271,-31
118,134,37,-106,73,103,393,434,-66,-446,-271,-31
118,134,37,-106,73,103,393,440,-66,-446,-271,-37
118,134,37,-106,73,103,399,452,-66,-446,-271,-37
118,134,37,-106,73,103,405,464,-60,-440,-271,-37
118,134,37,-106,73,103,405,470,-60,-440,-271,-37
118,134,37,-106,73,103,411,476,-60,-434,-271,-37
118,134,37,-106,73,103,411,482,-54,-428,-271,-37
118,134,37,-106,73,103,417,488,-48,-422,-271,-37
118,134,37,-106,73,103,423,500,-36,-416,-271,-37
118,134,37,-106,73,103,429,512,-30,-410,-265,-37
118,134,37,-106,73,103,429,524,-24,-404,-259,-37
118,134,37,-106,73,103,435,536,-18,-404,-259,-37
118,134,37,-106,73,103,441,548,-12,-398,-259,-37
118,140,37,-106,73,103,441,560,-6,-392,-259,-37
118,140,37,-106,73,103,447,572,6,-386,-259,-37
118,146,37,-106,67,103,447,578,17,-380,-253,-37
118,152,37,-106,67,103,453,590,29,-374,-253,-37
118,152,37,-106,61,103,459,602,41,-368,-253,-37
118,158,37,-106,61,109,459,614,53,-368,-247,-37
118,158,37,-106,61,115,465,638,65,-362,-241,-37
118,158,37,-106,61,115,471,650,77,-356,-241,-37
118,158,37,-112,61,115,477,662,83,-350,-241,-37
118,158,37,-112,61,115,483,674,95,-344,-235,-37
118,158,43,-112,61,115,489,686,107,-338,-235,-37
118,158,43,-118,61,115,489,698,119,-332,-229,-37
118,158,43,-118,61,115,495,710,131,-326,-223,-37
118,158,49,-118,61,115,495,722,137,-320,-223,-37
118,164,49,-118,61,121,501,734,149,-314,-217,-31
118,170,55,-118,55,121,507,746,161,-308,-211,-31
118,170,55,-118,55,121,513,758,167,-302,-211,-31
118,170,55,-118,55,127,519,770,179,-296,-211,-31
118,176,61,-118,55,133,525,782,191,-290,-211,-31
118,176,67,-124,55,139,525,794,197,-284,-211,-31
118,176,67,-124,55,139,531,806,209,-278,-205,-31
118,182,73,-124,55,145,537,818,215,-272,-199,-31
118,182,79,-130,49,151,543,830,221,-266,-193,-25
118,188,79,-130,43,151,549,848,227,-260,-187,-25
118,188,79,-136,43,151,555,866,233,-254,-181,-25
118,188,79,-136,43,157,561,878,245,-242,-175,-19
118,194,85,-136,43,163,567,890,257,-230,-169,-19
118,194,91,-136,43,163,573,902,269,-224,-163,-19
118,194,97,-136,37,163,579,920,281,-218,-163,-14
118,200,97,-142,37,169,579,938,287,-212,-157,-14
118,206,97,-148,37,175,585,956,293,-206,-151,-8
118,212,97,-154,37,175,591,968,305,-200,-151,-8
118,218,103,-154,37,175,603,980,311,-194,-151,-8
118,224,109,-154,31,181,609,998,323,-188,-145,-8
118,224,115,-154,25,187,615,1016,329,-182,-145,-8
118,224,115,-154,19,193,621,1028,335,-176,-139,-8
118,230,121,-154,19,193,621,1040,347,-170,-139,-8
118,236,121,-160,19,199,627,1052,353,-164,-139,-8
118,236,127,-160,13,205,633,1064,365,-158,-139,-2
118,242,133,-160,13,205,639,1082,377,-152,-139,-2
118,242,139,-160,13,205,645,1094,383,-152,-139,-2
118,242,145,-160,13,211,651,1106,389,-146,-139,4
118,248,151,-160,7,217,657,1118,401,-140,-139,4
118,254,151,-160,7,223,663,1136,407,-134,-133,4
118,254,157,-160,7,229,669,1148,413,-134,-133,4
118,260,157,-166,7,229,675,1160,419,-134,-133,4
118,260,157,-172,1,235,681,1172,425,-134,-133,4
118,266,163,-172,-5,235,687,1184,431,-128,-133,10
118,272,169,-172,-10,235,687,1190,437,-128,-133,10
118,278,175,-172,-10,241,693,1196,443,-122,-133,10
118,284,175,-172,-10,247,699,1202,449,-122,-133,10
118,290,181,-178,-16,253,705,1214,455,-122,-133,10
118,296,193,-178,-22,259,705,1220,461,-122,-133,10
118,296,199,-184,-22,265,705,1226,467,-122,-133,10
118,296,205,-184,-22,271,705,1232,467,-122,-133,10
118,302,211,-184,-22,277,711,1232,473,-122,-133,10
118,308,217,-184,-22,283,711,1238,473,-122,-133,10
118,314,223,-184,-28,283,717,1238,473,-122,-133,10
118,320,229,-184,-34,289,717,1244,473,-122,-133,10
118,326,235,-190,-34,295,717,1244,473,-122,-133,10
118,332,235,-196,-34,301,717,1244,473,-122,-133,10
118,332,241,-202,-40,307,717,1244,473,-128,-133,10
118,332,241,-202,-40,313,717,1244,473,-134,-133,10
118,338,247,-202,-46,313,711,1244,473,-140,-133,10
118,344,247,-202,-52,313,705,1244,467,-146,-139,10
118,350,253,-202,-52,319,699,1244,461,-152,-139,10
118,356,259,-202,-52,325,699,1238,455,-158,-139,10
118,362,259,-202,-52,325,693,1232,449,-164,-139,10
118,362,259,-202,-52,325,681,1220,437,-170,-139,10
118,362,259,-202,-52,325,669,1196,425,-182,-145,10
118,362,259,-208,-52,331,639,1184,407,-194,-151,10
118,368,265,-208,-52,331,621,1154,389,-206,-157,10
118,368,265,-208,-52,331,609,1124,371,-218,-163,10
118,368,265,-208,-52,331,597,1094,353,-230,-169,10
118,368,265,-208,-52,331,585,1064,335,-242,-169,10
118,368,265,-208,-52,331,567,1040,317,-248,-175,10
118,368,265,-208,-52,331,549,1010,299,-260,-175,10
118,368,265,-208,-52,331,519,980,275,-272,-181,10
118,368,265,-214,-52,331,489,944,251,-284,-187,10
124,374,265,-214,-52,331,471,914,233,-296,-187,16
124,374,265,-214,-52,331,453,884,215,-308,-187,22
130,374,265,-214,-52,331,435,848,197,-320,-187,28
136,374,265,-214,-52,331,423,812,173,-332,-187,28
136,374,265,-220,-52,331,399,776,149,-344,-187,34
136,374,265,-220,-52,331,387,746,131,-350,-187,40
136,374,265,-226,-52,331,357,710,119,-356,-187,40
142,374,265,-226,-52,331,327,674,107,-362,-187,46
148,374,265,-226,-52,331,315,644,95,-368,-187,52
154,374,259,-226,-46,331,285,614,77,-368,-187,64
160,374,253,-226,-40,325,267,584,65,-368,-187,76
166,374,247,-226,-34,325,255,554,53,-368,-181,82
166,374,235,-232,-28,325,237,524,41,-368,-175,88
172,374,223,-232,-22,319,213,506,29,-368,-169,94
178,374,217,-232,-16,313,201,476,23,-368,-163,100
178,374,211,-232,-16,307,183,452,12,-368,-151,106
178,374,205,-232,-10,301,171,434,6,-368,-139,112
184,374,199,-232,-10,295,159,404,0,-362,-127,124
184,374,193,-232,-5,289,147,386,-6,-350,-115,130
190,368,187,-232,1,289,135,356,-12,-338,-109,136
190,362,181,-232,7,283,123,326,-12,-326,-103,142
190,356,175,-232,13,277,111,314,-12,-314,-97,142
190,350,163,-232,19,271,99,302,-18,-308,-91,142
190,344,157,-232,19,265,93,278,-18,-302,-85,142
190,338,151,-232,19,259,87,260,-18,-296,-79,142
190,332,151,-232,19,253,81,248,-24,-284,-73,142
190,326,151,-232,19,247,75,224,-24,-272,-67,148
190,320,145,-232,19,241,69,212,-24,-260,-61,148
190,314,145,-226,19,235,69,200,-30,-254,-61,148
190,314,145,-226,25,235,63,182,-30,-248,-55,148
190,314,145,-226,25,235,63,170,-30,-242,-55,148
190,308,145,-220,25,235,63,158,-36,-236,-55,148
190,308,145,-220,25,235,63,152,-36,-230,-55,148
190,302,139,-214,25,229,63,146,-36,-224,-55,148
190,302,139,-208,25,223,63,140,-36,-218,-49,148
190,302,139,-208,25,223,63,134,-36,-212,-49,148
190,296,139,-202,25,217,63,128,-36,-206,-49,148
190,290,139,-196,25,217,63,122,-36,-200,-49,148
184,284,133,-196,25,217,63,122,-36,-200,-49,148
184,278,127,-196,25,211,63,116,-36,-200,-49,148
184,278,127,-196,25,211,63,116,-36,-200,-49,142
184,278,127,-190,25,205,63,116,-36,-200,-49,142
184,278,127,-190,25,205,63,116,-42,-200,-49,142
184,278,127,-190,25,205,63,116,-42,-200,-49,142
178,272,127,-184,25,205,63,116,-42,-194,-49,136
172,272,127,-178,25,205,63,110,-42,-188,-49,136
166,272,127,-178,25,205,63,110,-42,-188,-49,136
166,272,127,-178,25,205,63,110,-42,-188,-49,136
166,272,127,-178,25,205,63,110,-42,-188,-49,136
160,266,127,-178,25,199,63,110,-42,-188,-49,130
160,266,127,-172,25,199,63,110,-48,-182,-49,124
160,266,127,-172,25,199,63,110,-48,-182,-49,118
160,260,127,-172,25,199,63,110,-48,-182,-49,118
154,260,127,-172,25,199,63,110,-48,-176,-49,118
154,260,127,-172,25,199,63,110,-48,-176,-49,118
154,260,127,-172,25,199,63,110,-48,-170,-49,118
154,260,127,-172,25,199,63,110,-48,-170,-49,118
154,260,127,-172,25,199,63,110,-48,-170,-49,118
154,260,127,-172,25,199,63,110,-48,-170,-49,118
154,254,127,-172,25,199,63,110,-48,-170,-49,118
154,254,127,-172,25,199,63,110,-48,-170,-49,118
154,254,127,-172,25,199,63,110,-48,-170,-49,118
154,254,127,-166,25,199,63,110,-48,-170,-49,118
154,254,127,-166,25,199,63,110,-48,-170,-49,118
154,254,127,-166,25,199,63,110,-48,-170,-49,118
154,254,127,-160,25,199,63,116,-48,-170,-49,112
154,254,127,-160,25,199,63,116,-48,-170,-49,112
154,254,127,-160,25,199,63,116,-48,-170,-49,112
154,254,127,-160,25,199,63,116,-48,-170,-49,112
154,254,127,-160,25,199,63,116,-48,-164,-49,112
154,254,127,-160,25,193,63,116,-48,-164,-55,112
154,254,127,-160,25,193,63,116,-48,-164,-55,106
154,254,127,-160,25,193,63,116,-48,-164,-55,106
154,254,127,-160,25,193,63,122,-48,-158,-55,106
154,254,127,-160,25,193,63,122,-48,-152,-55,106
148,248,127,-154,25,193,63,122,-48,-152,-55,106
148,248,127,-154,25,193,63,122,-48,-152,-55,106
148,242,127,-154,25,193,63,122,-48,-152,-55,100
148,242,127,-154,25,193,69,122,-48,-152,-55,100
148,242,127,-154,25,193,69,122,-48,-152,-55,100
148,242,127,-154,25,193,69,122,-48,-152,-55,100
148,242,127,-154,25,187,69,122,-48,-152,-55,100
148,242,127,-154,25,187,69,122,-48,-152,-55,100
148,242,127,-154,25,187,69,122,-48,-152,-55,100
148,242,127,-154,19,187,69,122,-48,-152,-55,100
148,242,127,-154,19,187,69,122,-48,-152,-55,100
148,242,127,-154,19,187,69,122,-48,-152,-55,100
148,242,127,-154,19,187,69,122,-48,-152,-55,100
148,242,127,-154,19,187,69,122,-48,-152,-55,100
148,242,127,-154,19,187,69,122,-48,-152,-55,100
148,242,127,-154,19,187,69,122,-48,-152,-55,100
148,242,127,-154,19,187,69,122,-48,-152,-55,100
148,242,127,-154,19,187,69,122,-48,-152,-55,100
148,242,127,-154,19,187,69,122,-48,-152,-55,100
148,242,127,-154,19,187,69,122,-48,-152,-55,100
148,242,127,-154,19,187,69,122,-48,-152,-55,100
148,242,127,-154,19,187,69,122,-48,-152,-55,100
148,242,127,-154,19,181,69,122,-48,-152,-55,100
148,242,127,-154,19,181,69,122,-48,-152,-55,100
148,242,127,-154,19,181,69,122,-48,-152,-55,100
148,242,127,-154,19,181,69,122,-48,-152,-55,100
148,242,127,-154,19,181,69,122,-48,-152,-55,100
148,242,127,-154,19,181,69,122,-54,-152,-55,100
148,236,127,-154,19,181,69,122,-54,-152,-55,100
148,236,127,-154,19,181,69,122,-54,-152,-55,100
148,236,127,-154,19,181,69,122,-54,-152,-61,100
148,236,127,-154,19,181,69,116,-60,-152,-61,100
148,236,127,-154,19,181,69,110,-66,-152,-61,100
148,230,127,-154,19,181,69,104,-72,-152,-61,100
148,230,127,-154,19,181,69,104,-72,-152,-61,100
148,230,127,-154,19,181,69,98,-72,-152,-61,100
148,224,127,-154,19,181,69,98,-72,-152,-61,100
148,224,127,-154,19,181,69,98,-72,-152,-61,100
148,224,127,-154,19,175,69,98,-72,-152,-61,100
148,224,127,-154,19,175,69,98,-78,-152,-61,100
148,224,127,-154,19,175,69,92,-78,-152,-61,100
148,224,127,-154,19,175,69,92,-78,-152,-61,100
148,224,127,-154,19,175,69,92,-78,-152,-61,100
148,224,127,-154,19,175,69,86,-78,-152,-61,100
148,224,127,-154,19,175,69,86,-78,-152,-61,100
148,224,127,-154,19,175,69,86,-78,-152,-67,94
148,224,127,-154,19,175,63,86,-84,-152,-67,94
148,224,127,-154,19,175,63,86,-84,-152,-73,94
148,224,127,-154,19,175,63,86,-84,-152,-73,94
148,224,127,-154,19,175,63,80,-90,-152,-73,94
148,224,127,-154,19,175,63,74,-90,-152,-73,94
148,224,127,-154,19,175,63,74,-90,-152,-73,94
148,224,127,-154,19,175,63,74,-90,-152,-73,94
148,224,127,-154,19,175,63,74,-90,-152,-73,94
148,224,127,-154,19,169,63,74,-90,-152,-73,94
148,224,127,-154,19,169,63,74,-96,-152,-73,94
148,224,127,-154,19,169,63,74,-96,-152,-73,94
148,224,127,-154,19,169,63,74,-96,-152,-79,94
148,224,127,-154,19,169,63,74,-96,-152,-79,94
148,224,127,-154,19,169,63,74,-96,-152,-79,94
148,218,127,-154,19,169,63,74,-96,-152,-79,94
148,212,127,-154,19,169,63,74,-96,-152,-79,94
148,212,127,-154,13,169,63,74,-102,-152,-79,94
148,212,127,-154,13,169,63,74,-102,-152,-79,94
148,212,127,-154,13,169,57,74,-108,-152,-79,94
148,212,127,-154,13,169,57,74,-108,-152,-79,94
148,212,127,-154,13,169,57,74,-108,-152,-79,94
148,212,127,-154,13,169,57,68,-108,-152,-79,94
148,212,127,-154,13,169,57,68,-108,-152,-79,94
148,212,127,-148,13,169,57,68,-108,-152,-79,94
148,212,127,-148,13,169,57,68,-108,-152,-79,94
148,212,127,-148,13,169,57,62,-108,-152,-85,94
148,212,127,-148,13,169,57,62,-108,-152,-85,94
148,212,127,-148,13,169,57,62,-108,-152,-85,94
148,212,127,-148,13,169,57,62,-108,-152,-85,94
148,212,127,-148,13,169,57,62,-108,-152,-85,94
148,206,127,-148,13,169,57,62,-108,-152,-85,94
148,200,127,-148,13,169,57,62,-108,-152,-85,88
148,200,127,-148,13,169,57,62,-108,-152,-85,88
148,200,127,-148,13,169,57,62,-108,-152,-85,88
148,194,127,-148,13,163,57,62,-108,-152,-85,88
148,194,127,-148,13,163,57,62,-108,-152,-85,88
148,194,127,-148,13,163,57,62,-108,-152,-85,88
148,194,127,-148,13,163,57,62,-108,-152,-85,88
148,194,127,-148,13,163,57,56,-108,-152,-85,88
148,194,127,-148,13,163,57,56,-108,-152,-85,88
148,194,127,-148,13,163,51,56,-108,-152,-85,88
148,194,127,-142,13,163,51,56,-114,-152,-85,88
148,194,127,-142,13,163,51,56,-114,-152,-85,88
148,194,127,-142,13,163,51,50,-114,-152,-85,88
142,194,127,-142,13,163,51,50,-114,-152,-85,88
136,194,127,-142,7,163,51,50,-114,-152,-85,88
136,194,127,-142,7,163,51,50,-114,-152,-85,88
136,194,127,-142,7,163,51,44,-114,-152,-85,88
136,194,127,-142,7,163,51,38,-114,-152,-85,88
136,188,127,-142,7,163,51,38,-114,-152,-85,88
136,182,127,-142,7,157,51,38,-114,-152,-85,88
136,182,127,-142,7,157,45,38,-114,-152,-85,88
136,182,127,-142,7,157,45,38,-114,-152,-85,88
136,182,127,-142,7,157,45,38,-114,-152,-85,88
136,182,127,-142,7,157,45,38,-114,-152,-85,88
136,182,127,-142,7,157,45,38,-114,-152,-85,88
136,182,127,-142,7,157,45,38,-114,-152,-85,88
136,182,127,-142,7,157,45,38,-114,-152,-85,88
136,182,127,-142,7,157,45,38,-114,-152,-85,88
136,182,127,-142,7,157,45,32,-114,-152,-85,88
136,182,127,-142,7,157,45,32,-114,-152,-85,88
136,182,127,-142,7,157,45,32,-114,-152,-85,88
136,182,127,-142,7,157,45,32,-114,-152,-91,88
136,182,127,-142,7,157,45,32,-114,-152,-91,88
136,182,127,-142,7,157,45,32,-114,-152,-91,82
136,182,127,-142,7,157,45,32,-114,-152,-91,82
136,182,127,-142,7,157,45,32,-114,-152,-97,82
136,182,127,-142,7,157,45,32,-114,-152,-103,82
136,182,127,-142,7,157,45,26,-114,-152,-109,82
136,182,127,-142,1,157,45,26,-114,-152,-115,82
136,182,127,-142,1,157,45,20,-114,-152,-121,82
136,182,127,-142,1,157,45,20,-114,-152,-121,82
136,182,127,-142,1,157,45,20,-114,-152,-121,82
136,182,127,-142,1,157,45,20,-114,-152,-121,82
136,182,127,-142,1,157,45,20,-114,-152,-121,82
136,182,127,-142,1,157,45,20,-114,-152,-121,82
136,182,127,-142,1,157,45,20,-114,-152,-121,82
136,182,127,-136,1,157,45,20,-114,-152,-121,82
136,182,127,-136,1,157,45,20,-114,-152,-121,82
136,182,127,-136,1,157,45,20,-114,-152,-121,82
136,182,127,-136,1,157,45,20,-114,-152,-121,82
136,182,127,-136,1,157,45,20,-114,-152,-121,82
136,182,127,-136,1,157,45,20,-114,-152,-121,82
136,182,127,-136,1,157,45,20,-114,-152,-121,82
136,182,127,-136,1,157,45,20,-114,-152,-121,82
136,182,127,-136,-5,157,45,20,-114,-152,-121,82
136,182,127,-136,-5,157,45,20,-114,-152,-121,82
136,176,127,-136,-5,157,45,20,-114,-152,-121,82
136,176,127,-136,-5,157,45,20,-114,-152,-121,82
136,176,127,-136,-5,157,45,20,-114,-152,-121,82
136,176,127,-136,-5,157,45,20,-114,-152,-121,82
136,176,127,-136,-5,157,45,20,-114,-152,-121,82
136,176,127,-136,-5,157,45,20,-114,-152,-121,82
136,176,127,-136,-5,157,45,20,-114,-152,-121,82
136,176,127,-136,-5,157,45,20,-114,-152,-121,82
136,176,127,-136,-5,157,45,20,-114,-152,-121,82
136,176,127,-136,-5,157,45,20,-114,-152,-121,82
136,176,127,-136,-5,157,45,20,-114,-152,-121,82
136,170,127,-136,-5,157,45,20,-114,-152,-121,82
136,164,127,-136,-5,151,45,20,-114,-152,-121,82
136,164,127,-136,-5,151,45,20,-114,-152,-121,82
136,164,127,-136,-5,151,45,20,-114,-152,-121,82
136,164,127,-136,-5,151,45,20,-114,-152,-121,82
136,164,127,-136,-5,151,45,20,-114,-152,-121,82
136,164,127,-136,-5,151,45,20,-114,-152,-121,82
136,164,127,-136,-5,151,45,20,-114,-152,-121,82
136,164,127,-136,-5,151,45,20,-114,-152,-121,82
136,164,127,-136,-5,151,45,20,-114,-152,-121,82
136,164,127,-136,-5,151,45,20,-114,-152,-121,82
136,164,127,-136,-5,151,45,20,-114,-152,-121,82
136,164,127,-136,-5,151,45,20,-114,-152,-121,82
136,164,127,-136,-5,151,45,20,-114,-152,-121,82
136,164,127,-136,-5,151,45,20,-114,-152,-121,82
136,164,127,-136,-5,151,45,20,-114,-152,-121,82
136,164,127,-136,-5,151,45,20,-114,-152,-121,82
136,164,127,-136,-5,151,45,20,-114,-152,-121,82
136,158,127,-136,-5,151,45,20,-114,-152,-121,82
136,158,127,-136,-5,151,45,20,-114,-152,-121,82
136,158,127,-136,-5,151,45,20,-114,-152,-121,82
136,158,127,-136,-5,151,45,20,-114,-152,-121,82
136,158,127,-136,-5,151,45,20,-114,-152,-121,82
136,158,127,-136,-5,151,45,20,-114,-152,-121,82
136,158,127,-136,-5,151,45,20,-114,-152,-121,82
136,158,127,-136,-5,151,45,20,-114,-152,-121,82
136,158,127,-136,-5,151,45,20,-114,-152,-121,82
136,158,127,-136,-5,151,45,20,-114,-152,-121,82
136,158,127,-136,-5,151,45,20,-114,-152,-121,82
136,158,127,-136,-5,151,45,20,-114,-152,-121,82
136,158,127,-136,-5,151,45,20,-114,-152,-121,82
136,158,127,-136,-5,151,45,20,-114,-152,-121,82
136,158,127,-136,-5,151,45,20,-114,-152,-121,82
136,158,127,-136,-5,151,45,20,-114,-152,-121,82
136,158,127,-136,-5,151,45,20,-114,-152,-121,82
136,158,127,-136,-5,151,45,20,-114,-152,-121,82
136,158,127,-136,-5,151,45,20,-114,-152,-121,82
136,158,127,-136,-5,151,45,20,-114,-152,-121,82
136,158,127,-136,-5,151,45,20,-114,-152,-121,82
136,158,127,-136,-5,151,45,20,-114,-152,-121,82
136,158,127,-136,-5,151,45,20,-114,-152,-121,82
136,158,127,-136,-5,151,45,20,-114,-152,-121,82
136,158,127,-136,-5,151,45,20,-114,-152,-121,82
136,158,127,-136,-5,151,45,20,-114,-152,-121,82
136,158,127,-136,-5,151,45,20,-114,-152,-121,82
136,158,127,-136,-5,151,45,20,-114,-152,-121,82
136,158,127,-136,-5,151,45,20,-114,-152,-121,82
136,158,127,-136,-5,151,45,20,-114,-152,-121,82
136,158,127,-136,-5,151,45,14,-114,-152,-121,82
136,158,127,-136,-5,151,45,14,-114,-152,-121,82
136,158,127,-136,-5,151,45,14,-114,-152,-121,82
136,158,127,-136,-5,151,45,14,-114,-152,-121,82
136,158,127,-136,-5,151,45,14,-114,-152,-121,82
136,158,127,-136,-5,151,45,14,-114,-152,-121,82
136,158,127,-136,-5,151,45,14,-114,-152,-121,82
136,158,127,-136,-5,151,45,14,-114,-152,-121,82
136,158,127,-136,-5,151,45,14,-114,-152,-121,82
136,158,127,-136,-5,151,45,14,-114,-152,-121,82
136,158,127,-136,-5,151,45,14,-114,-152,-121,82
136,158,127,-136,-5,151,45,14,-114,-152,-121,82
136,158,127,-136,-5,151,45,14,-114,-152,-121,82
136,158,127,-136,-5,151,45,14,-114,-152,-121,82
136,158,127,-136,-5,151,45,14,-114,-152,-121,82
136,158,127,-136,-5,151,45,14,-114,-152,-121,82
136,158,127,-136,-5,151,45,14,-114,-152,-121,82
136,158,127,-136,-5,151,45,8,-114,-152,-121,82
136,158,127,-136,-5,151,45,8,-114,-152,-121,82
136,158,127,-136,-5,151,45,8,-114,-152,-121,82
136,158,127,-136,-5,151,45,8,-114,-152,-121,82
136,158,127,-136,-5,151,45,8,-114,-152,-121,82
136,158,127,-136,-5,151,45,8,-114,-152,-121,82
136,158,127,-136,-5,151,45,8,-114,-152,-121,82
136,158,127,-136,-5,151,45,8,-114,-152,-121,82
136,158,127,-136,-5,151,45,8,-114,-152,-121,82
136,158,127,-136,-5,151,45,8,-114,-152,-121,82
136,158,133,-136,-10,151,45,8,-114,-152,-121,82
136,158,139,-136,-10,151,45,8,-114,-152,-121,82
136,158,145,-136,-10,151,45,8,-114,-152,-121,82
136,158,145,-136,-10,151,45,8,-114,-152,-121,82
136,158,145,-136,-10,151,45,8,-114,-152,-121,82
136,158,145,-136,-10,151,45,8,-108,-146,-115,82
136,164,151,-136,-16,151,45,8,-108,-146,-115,82
136,170,157,-142,-22,157,51,8,-102,-140,-115,82
136,176,169,-142,-28,163,57,8,-96,-134,-109,82
136,182,175,-142,-28,175,63,8,-90,-128,-103,82
136,188,187,-142,-34,187,75,14,-84,-122,-97,82
136,194,199,-142,-40,199,81,20,-78,-116,-91,88
136,206,205,-148,-46,211,87,26,-72,-110,-85,88
136,212,211,-154,-46,217,93,32,-66,-104,-79,94
136,224,211,-166,-46,223,99,38,-60,-98,-79,100
142,236,211,-178,-46,229,99,44,-54,-92,-73,100
148,248,211,-184,-46,235,99,50,-48,-86,-73,106
148,254,217,-190,-46,241,99,50,-42,-86,-73,106
148,260,223,-196,-46,247,99,50,-42,-86,-67,106
148,260,229,-196,-46,253,99,50,-42,-86,-67,106
148,266,241,-196,-52,259,99,56,-42,-80,-67,112
154,278,247,-202,-52,265,99,56,-42,-74,-61,118
160,284,253,-208,-52,265,93,56,-42,-68,-61,124
160,284,253,-208,-52,265,81,56,-42,-68,-55,124
160,290,253,-208,-52,265,63,56,-42,-68,-55,130
160,290,253,-208,-52,265,39,50,-42,-68,-55,136
166,290,253,-208,-52,265,21,50,-42,-62,-49,136
166,290,253,-214,-52,265,9,50,-42,-62,-43,142
166,290,253,-214,-52,265,-3,50,-42,-62,-43,142
166,290,253,-214,-52,265,-15,50,-42,-62,-43,142
166,290,253,-214,-52,265,-21,50,-42,-62,-43,142
166,290,253,-214,-52,265,-21,50,-42,-62,-37,142
166,296,253,-214,-52,271,-26,50,-42,-62,-31,142
166,302,253,-214,-52,277,-26,44,-42,-62,-31,142
166,302,259,-214,-52,277,-26,38,-42,-62,-31,142
166,302,259,-214,-52,277,-26,38,-42,-62,-25,142
166,302,259,-214,-52,277,-26,38,-42,-56,-25,148
166,302,253,-214,-52,271,-26,38,-36,-50,-25,148
166,296,247,-214,-52,265,-26,44,-36,-50,-19,148
166,290,241,-214,-52,259,-26,44,-36,-50,-19,148
166,278,229,-214,-46,247,-26,50,-36,-50,-19,148
166,254,217,-202,-46,235,-21,50,-36,-50,-19,148
166,236,205,-190,-40,217,-9,50,-36,-50,-19,148
160,206,193,-166,-40,199,3,56,-36,-50,-19,142
160,188,181,-148,-40,181,15,62,-36,-50,-25,136
154,170,169,-136,-34,169,27,74,-36,-50,-31,124
148,158,157,-130,-34,157,33,86,-36,-50,-37,112
148,146,145,-124,-28,145,39,104,-36,-50,-43,106
148,134,133,-124,-22,133,51,134,-30,-50,-49,100
148,122,121,-118,-16,121,63,152,-18,-50,-49,94
148,116,109,-112,-10,109,75,176,-6,-50,-49,94
148,110,103,-112,-5,103,87,212,6,-50,-49,88
148,104,91,-112,1,97,93,248,17,-44,-49,88
148,98,85,-112,7,91,99,290,29,-44,-49,88
148,98,79,-112,13,85,99,320,47,-44,-49,88
148,98,73,-112,19,79,99,350,59,-38,-49,88
154,98,67,-112,25,73,93,380,83,-26,-49,88
160,98,61,-112,31,73,87,410,107,-20,-49,88
166,98,55,-112,37,73,51,434,119,-14,-49,88
172,98,55,-118,43,73,-9,446,131,-8,-49,88
184,104,49,-124,49,73,-104,452,137,-2,-43,88
196,104,37,-130,61,73,-212,458,143,4,-37,88
208,104,31,-136,67,73,-284,470,155,15,-31,88
220,110,31,-148,73,73,-326,482,167,27,-19,88
226,140,31,-160,73,85,-344,494,197,39,-13,94
232,182,55,-190,73,121,-344,536,239,81,5,106
238,224,85,-214,67,157,-344,584,293,123,34,130
250,266,121,-244,61,193,-362,602,323,153,64,154
262,326,157,-274,55,241,-428,602,353,201,106,190
274,374,187,-304,49,283,-512,602,401,267,172,226
298,422,211,-334,49,313,-608,602,443,339,232,268
328,464,223,-370,49,343,-710,560,461,393,280,310
358,482,223,-400,49,349,-818,470,467,429,322,340
400,488,211,-412,79,349,-944,410,479,471,370,382
454,488,151,-436,133,331,-1034,392,497,531,418,424
526,488,79,-466,211,301,-1106,392,539,609,490,472
598,488,13,-508,265,277,-1178,398,617,711,586,544
676,500,-22,-562,331,271,-1268,386,659,825,700,640
754,548,-40,-634,373,271,-1412,230,665,951,874,784
850,644,-46,-736,415,277,-1586,-9,665,1119,1090,964
976,782,-52,-856,493,319,-1784,-219,671,1365,1408,1216
1120,950,-52,-1012,541,415,-2006,-399,743,1689,1798,1552
1252,1142,-34,-1180,583,547,-2192,-573,863,2090,2235,1918
1384,1370,37,-1354,613,709,-2378,-765,989,2497,2726,2301
1510,1604,151,-1528,625,883,-2587,-939,1127,2923,3218,2702
1606,1814,283,-1696,625,1057,-2773,-1083,1283,3349,3686,3062
1654,2012,427,-1810,619,1225,-2887,-1197,1433,3727,4082,3374
1666,2149,583,-1876,559,1363,-2929,-1299,1517,4003,4370,3572
1660,2221,703,-1894,469,1459,-2929,-1389,1541,4177,4550,3686
1606,2227,781,-1894,397,1489,-2839,-1437,1547,4267,4622,3716
1474,2191,799,-1810,325,1489,-2629,-1437,1559,4327,4628,3710
1300,2018,805,-1636,247,1447,-2342,-1335,1613,4345,4592,3572
1138,1760,781,-1432,217,1279,-2000,-1077,1643,4279,4340,3296
994,1448,625,-1198,199,1045,-1670,-813,1637,3889,3902,2918
862,1154,469,-988,199,811,-1358,-597,1457,3271,3278,2438
736,896,343,-790,193,619,-1088,-429,1193,2551,2546,1930
604,686,265,-634,181,469,-848,-321,887,1797,1804,1414
472,524,229,-490,145,379,-638,-267,539,1023,1084,958
364,416,217,-370,103,325,-494,-249,227,441,592,652
310,356,205,-310,73,289,-398,-219,125,249,406,520
274,320,193,-274,55,259,-308,-165,119,243,376,466
244,290,181,-244,43,241,-248,-99,125,243,358,418
220,272,175,-226,25,229,-194,-39,137,243,340,376
202,248,175,-202,13,217,-140,14,149,243,322,334
178,230,169,-184,1,205,-92,62,155,243,292,292
166,200,163,-166,-5,181,-44,104,161,231,262,262
154,176,157,-148,-10,163,-3,134,161,213,226,232
142,158,145,-130,-10,151,27,164,161,183,190,202
130,146,139,-112,-10,139,57,182,161,153,154,178
118,128,133,-100,-16,133,75,194,155,117,118,166
106,116,133,-88,-22,127,99,206,149,87,82,142
94,104,133,-76,-22,121,117,224,137,57,52,112
88,92,133,-70,-28,115,135,242,131,27,22,88
82,80,127,-58,-28,103,153,260,119,4,-7,58
76,68,127,-52,-28,91,165,272,107,-14,-25,40
70,62,127,-46,-34,85,177,278,101,-32,-43,28
64,56,121,-40,-34,85,189,284,95,-44,-61,16
58,50,121,-34,-40,85,195,290,89,-56,-79,10
52,44,121,-28,-46,85,207,296,83,-68,-91,4
46,38,121,-22,-46,85,213,308,77,-80,-103,-2
40,32,121,-16,-46,85,219,320,77,-86,-109,-14
34,32,121,-10,-46,79,225,326,77,-92,-115,-25
34,32,121,-10,-46,79,237,338,77,-98,-127,-37
34,26,121,-10,-46,79,243,344,77,-98,-133,-43
34,26,121,-10,-46,73,249,350,77,-98,-139,-49
34,20,121,-10,-46,73,255,356,77,-98,-145,-49
34,20,121,-10,-46,73,261,362,77,-98,-145,-49
34,20,121,-10,-46,73,261,368,77,-98,-151,-55
34,20,121,-4,-46,73,267,374,77,-98,-157,-55
28,20,121,-4,-46,73,273,386,77,-98,-157,-61
28,20,121,-4,-46,73,279,398,77,-98,-157,-61
28,20,121,-4,-46,73,279,404,77,-98,-157,-67
28,14,121,1,-46,73,285,410,77,-98,-157,-73
28,14,121,1,-46,67,285,416,77,-98,-157,-73
28,14,121,1,-46,67,291,422,77,-98,-157,-73
28,14,121,1,-52,67,291,428,77,-98,-157,-73
28,14,121,1,-52,67,291,434,77,-98,-157,-73
28,14,121,1,-52,67,297,440,77,-98,-157,-73
28,14,121,1,-52,67,303,446,77,-98,-157,-73
28,14,121,1,-52,67,309,458,83,-98,-157,-73
28,14,121,1,-58,67,315,464,89,-92,-157,-73
22,14,121,1,-58,67,321,470,89,-86,-157,-79
22,14,121,1,-58,67,327,482,95,-80,-157,-79
22,14,121,1,-58,67,327,494,101,-74,-157,-79
22,14,121,1,-58,67,333,506,107,-68,-157,-79
22,14,121,1,-58,67,339,512,113,-68,-157,-79
22,14,121,1,-64,67,339,524,119,-68,-157,-79
22,14,121,1,-64,67,339,536,125,-62,-157,-79
22,14,121,1,-64,67,339,548,131,-62,-157,-79
22,14,121,1,-64,67,339,560,131,-62,-157,-79
22,14,127,1,-64,67,345,572,137,-56,-157,-79
22,14,133,1,-70,67,345,584,143,-56,-157,-79
22,14,133,1,-76,67,351,596,155,-50,-157,-79
22,14,133,1,-76,67,357,608,167,-50,-157,-79
22,14,133,1,-76,67,363,626,179,-44,-157,-79
22,14,133,1,-76,67,369,644,191,-38,-151,-79
22,14,133,1,-76,67,375,656,203,-32,-145,-79
22,14,133,1,-76,67,381,668,209,-26,-145,-79
22,20,133,1,-76,67,387,680,215,-20,-139,-79
22,26,139,1,-76,73,387,692,221,-14,-133,-79
22,26,139,1,-76,73,393,704,233,-8,-133,-79
22,32,145,1,-76,79,399,716,245,-8,-133,-79
22,32,145,1,-82,85,399,734,257,-2,-133,-79
22,32,145,1,-82,85,405,752,269,4,-133,-79
22,32,145,1,-82,91,411,764,281,10,-133,-79
22,38,151,1,-82,91,417,776,287,15,-133,-79
22,38,151,1,-82,91,423,788,293,21,-133,-79
22,38,151,1,-82,97,423,800,299,21,-133,-79
22,44,157,1,-82,97,423,812,305,27,-127,-79
22,50,157,1,-82,97,429,824,317,33,-121,-79
22,50,163,-4,-82,103,435,836,329,39,-115,-73
22,50,163,-4,-82,103,447,860,341,45,-109,-73
22,50,163,-4,-82,103,453,872,353,57,-109,-73
22,50,163,-4,-82,103,459,884,365,69,-103,-73
22,56,163,-4,-82,103,465,896,371,75,-103,-73
22,56,169,-10,-82,103,465,908,383,81,-103,-73
22,56,169,-10,-88,109,465,920,389,87,-103,-73
22,56,169,-10,-88,109,471,932,395,93,-103,-73
22,62,175,-16,-94,115,477,956,407,93,-103,-73
22,68,181,-22,-94,115,483,968,413,99,-97,-73
22,68,187,-22,-94,121,495,980,425,105,-97,-73
22,68,187,-22,-94,127,501,992,431,111,-91,-73
22,74,193,-22,-94,133,507,1004,437,117,-91,-73
22,74,193,-22,-100,139,513,1022,443,123,-85,-73
22,80,193,-22,-100,145,519,1034,455,129,-79,-67
22,86,193,-22,-106,145,525,1046,461,135,-73,-61
22,92,199,-28,-106,145,531,1070,467,141,-73,-55
22,98,205,-28,-106,145,537,1082,473,147,-73,-55
22,98,211,-28,-106,145,543,1100,485,147,-73,-55
22,98,211,-34,-106,151,549,1112,497,153,-73,-55
22,98,217,-34,-112,157,549,1124,509,159,-67,-49
22,104,223,-40,-112,157,555,1136,515,165,-67,-49
16,110,223,-40,-118,163,561,1148,521,165,-67,-49
10,116,229,-46,-124,169,567,1160,533,165,-67,-49
10,122,235,-46,-124,175,573,1172,539,171,-61,-49
10,128,235,-46,-130,181,579,1184,545,171,-61,-49
10,134,241,-46,-136,181,579,1196,545,171,-61,-49
10,134,247,-46,-136,187,585,1208,545,171,-61,-49
10,134,247,-46,-136,193,591,1220,551,171,-61,-49
10,140,247,-46,-136,193,591,1232,551,171,-61,-49
10,140,253,-46,-136,193,597,1244,551,171,-61,-49
10,146,259,-46,-136,199,603,1250,557,171,-61,-49
4,146,265,-46,-142,199,603,1256,557,171,-61,-49
-2,146,271,-46,-148,199,603,1262,557,171,-61,-49
-2,152,271,-46,-154,205,603,1268,557,171,-61,-43
-2,158,277,-52,-154,211,603,1274,563,171,-61,-43
-2,158,277,-58,-154,217,603,1274,563,171,-61,-43
-2,164,283,-58,-154,217,603,1274,563,165,-61,-43
-2,164,289,-58,-154,223,603,1274,563,165,-61,-43
-2,170,295,-58,-160,229,603,1274,563,165,-61,-43
-2,176,301,-58,-160,235,603,1274,563,159,-67,-43
-2,176,301,-58,-160,235,597,1274,563,153,-73,-43
-2,182,301,-58,-160,241,597,1274,557,147,-79,-43
-7,188,307,-58,-166,241,591,1274,551,141,-85,-43
-7,188,313,-64,-166,241,585,1268,545,135,-85,-43
-7,188,313,-70,-166,241,573,1256,533,123,-85,-43
-7,188,313,-70,-166,241,561,1244,521,111,-91,-43
-7,194,313,-70,-172,247,555,1220,503,105,-97,-43
-7,194,313,-70,-172,253,543,1208,485,93,-103,-43
-7,194,313,-70,-172,253,531,1196,473,81,-103,-43
-7,200,319,-70,-178,259,519,1172,455,75,-103,-43
-7,200,319,-76,-178,265,501,1142,437,63,-109,-43
-7,200,319,-76,-178,265,483,1106,413,51,-115,-43
-7,206,325,-76,-178,265,465,1076,395,39,-121,-43
-7,206,325,-82,-178,265,447,1034,365,15,-127,-43
-7,206,325,-82,-178,271,429,998,347,4,-133,-43
-7,212,325,-88,-178,271,405,962,317,-14,-139,-43
-7,212,325,-88,-178,271,375,932,293,-26,-145,-43
-7,212,325,-88,-178,271,357,896,269,-38,-151,-43
-7,212,325,-88,-178,271,339,860,239,-50,-157,-43
-7,212,325,-88,-178,271,327,818,221,-62,-163,-43
-7,212,325,-88,-178,271,309,776,209,-74,-163,-37
-7,212,325,-94,-178,271,285,740,179,-86,-163,-31
-7,212,325,-94,-178,271,267,704,167,-98,-163,-25
-2,212,325,-94,-178,271,243,674,143,-104,-163,-19
4,212,319,-94,-172,271,219,644,131,-110,-163,-14
10,212,313,-100,-166,271,189,620,113,-116,-163,-8
16,212,307,-106,-160,271,177,590,101,-116,-157,-2
22,212,301,-106,-154,271,153,554,89,-116,-151,4
22,212,295,-106,-148,265,141,512,77,-116,-145,10
22,212,289,-106,-142,253,129,482,71,-116,-139,16
22,212,283,-106,-142,247,117,452,59,-116,-133,22
22,212,277,-106,-142,241,105,422,53,-116,-121,28
28,212,271,-106,-136,235,87,392,47,-116,-115,34
34,206,259,-106,-130,229,75,374,35,-110,-103,40
40,200,253,-106,-124,223,63,350,29,-104,-91,46
40,194,247,-106,-118,217,51,332,23,-98,-85,52
46,194,241,-106,-112,217,39,314,17,-92,-79,52
46,194,235,-106,-112,211,33,290,17,-80,-73,58
46,188,229,-106,-112,205,27,266,12,-68,-67,58
46,182,223,-106,-106,199,21,254,6,-62,-61,64
46,176,217,-106,-100,193,15,242,6,-56,-49,64
46,170,211,-106,-100,187,9,230,6,-44,-37,64
46,164,211,-106,-94,187,3,218,0,-32,-31,64
46,158,205,-106,-94,181,3,188,0,-20,-25,64
46,158,205,-106,-94,175,-3,170,-6,-14,-19,64
46,152,199,-106,-94,169,-3,158,-6,-2,-13,64
46,146,193,-100,-94,169,-3,146,-6,4,-13,64
46,140,193,-100,-94,163,-3,134,-12,10,-13,64
46,134,187,-100,-94,163,-3,128,-12,10,-13,64
46,128,187,-94,-94,157,-9,116,-18,15,-13,64
46,128,187,-88,-94,151,-9,110,-24,21,-13,64
46,128,187,-88,-94,151,-9,98,-24,21,-13,64
46,122,187,-82,-94,151,-9,86,-24,27,-13,64
46,122,187,-82,-94,151,-9,74,-24,27,-13,64
46,122,187,-82,-94,151,-9,68,-24,27,-13,64
46,122,181,-82,-94,145,-9,62,-30,27,-13,64
46,116,181,-76,-94,145,-9,56,-30,27,-13,64
46,110,181,-70,-94,145,-9,56,-30,27,-13,64
46,110,181,-70,-94,145,-9,56,-30,33,-13,64
46,110,175,-70,-94,145,-9,50,-30,33,-13,64
46,110,175,-64,-94,145,-9,44,-30,39,-13,58
46,110,175,-64,-94,139,-9,44,-36,39,-13,58
46,110,175,-64,-94,139,-9,44,-36,39,-13,58
40,110,175,-64,-94,139,-9,44,-42,39,-13,58
34,110,175,-64,-94,139,-9,44,-42,39,-13,52
34,110,175,-64,-94,139,-9,44,-42,39,-13,46
34,110,175,-64,-94,139,-9,44,-42,39,-13,40
34,110,175,-64,-94,139,-9,44,-42,39,-13,40
34,104,175,-58,-94,139,-9,44,-42,39,-13,40
34,104,175,-58,-94,139,-9,44,-42,39,-13,34
34,104,175,-58,-94,139,-9,44,-42,39,-13,34
34,104,175,-58,-94,139,-9,44,-42,39,-13,34
34,104,175,-58,-94,139,-9,44,-42,39,-13,34
34,104,175,-58,-94,139,-9,44,-48,39,-13,34
34,104,175,-58,-94,139,-9,44,-48,39,-13,34
34,104,175,-58,-94,139,-9,44,-48,39,-13,34
34,98,175,-58,-94,139,-9,44,-48,39,-13,34
34,98,175,-58,-94,139,-9,44,-48,39,-13,34
34,98,175,-58,-94,139,-9,44,-48,39,-13,34
28,98,175,-58,-94,139,-3,44,-48,39,-19,34
22,98,175,-58,-94,139,3,44,-48,39,-19,34
22,98,175,-52,-94,139,3,44,-48,39,-19,34
22,98,175,-52,-94,139,3,44,-48,39,-19,34
22,98,175,-52,-94,139,3,44,-48,39,-19,34
22,92,175,-52,-94,139,3,44,-48,39,-19,28
22,92,175,-52,-94,139,3,44,-48,39,-19,28
22,92,175,-52,-94,139,3,44,-48,39,-19,28
22,92,175,-52,-94,139,3,44,-48,39,-19,28
22,92,175,-52,-94,139,3,44,-48,39,-19,28
22,92,175,-52,-94,139,3,44,-48,39,-19,28
22,92,175,-52,-94,139,3,44,-48,39,-19,28
22,92,175,-52,-94,139,9,44,-48,39,-25,28
22,92,175,-52,-94,139,9,44,-48,39,-25,28
22,92,175,-52,-94,139,9,44,-48,39,-25,28
22,92,175,-52,-94,139,9,44,-48,39,-25,28
22,92,175,-52,-94,139,9,44,-48,39,-25,28
16,92,175,-52,-94,139,9,44,-48,39,-25,28
16,92,175,-52,-94,139,9,44,-48,39,-25,28
16,92,175,-52,-94,139,9,44,-48,39,-25,28
16,92,175,-52,-94,139,9,44,-48,39,-25,28
16,92,175,-52,-94,139,9,44,-48,39,-25,28
16,92,175,-52,-94,139,9,44,-48,39,-25,28
16,92,175,-52,-94,139,9,44,-54,39,-25,28
16,92,175,-52,-94,139,9,44,-54,39,-25,28
16,92,175,-52,-94,139,9,44,-54,39,-25,28
16,92,175,-52,-94,139,9,44,-54,39,-25,28
16,92,175,-52,-94,139,9,38,-60,39,-25,22
16,92,175,-52,-94,139,9,38,-60,39,-25,22
16,92,175,-52,-94,139,9,32,-60,39,-25,22
16,92,175,-52,-94,139,9,32,-66,39,-25,22
16,92,175,-52,-94,139,9,32,-72,39,-25,22
16,92,175,-52,-94,139,9,32,-72,39,-25,22
16,92,175,-52,-94,139,9,32,-78,33,-31,22
16,92,175,-52,-94,139,9,26,-78,33,-31,22
16,92,175,-52,-94,139,9,20,-78,27,-31,22
16,92,175,-52,-94,139,9,14,-78,27,-31,22
16,86,175,-52,-94,139,9,8,-84,27,-37,22
16,86,175,-52,-94,139,9,2,-90,21,-37,22
16,86,175,-52,-94,139,9,2,-90,21,-43,22
16,86,175,-52,-94,139,9,-4,-90,21,-43,22
16,86,175,-52,-94,133,9,-4,-96,21,-43,22
16,86,175,-52,-94,133,9,-4,-96,21,-43,22
16,86,175,-52,-94,133,9,-4,-96,21,-43,22
16,86,175,-52,-94,133,9,-4,-102,21,-43,22
16,86,175,-52,-94,133,9,-9,-102,21,-43,22
16,86,175,-52,-94,133,9,-15,-108,21,-43,22
16,86,175,-52,-94,133,9,-21,-114,21,-43,22
16,86,175,-52,-94,133,9,-27,-120,15,-43,22
16,86,175,-52,-94,133,9,-27,-120,10,-43,22
16,86,175,-52,-94,133,9,-27,-120,10,-49,22
16,86,175,-52,-94,133,9,-27,-120,4,-49,22
16,80,175,-46,-94,133,9,-27,-120,-2,-49,22
16,80,175,-46,-94,133,9,-33,-126,-2,-49,22
16,80,175,-46,-94,133,9,-39,-132,-2,-49,22
16,80,175,-46,-94,133,9,-39,-132,-2,-55,22
16,80,169,-46,-94,133,9,-39,-132,-2,-55,22
16,80,169,-46,-94,133,9,-39,-138,-8,-55,22
16,80,169,-46,-94,133,9,-45,-138,-8,-61,22
16,80,169,-46,-94,133,9,-51,-138,-8,-61,22
16,80,169,-46,-94,133,9,-57,-138,-8,-61,22
16,80,169,-46,-94,133,9,-63,-138,-8,-61,22
16,80,169,-46,-94,133,9,-63,-144,-8,-61,22
16,80,169,-46,-94,133,9,-63,-150,-8,-61,22
16,80,169,-46,-94,133,9,-63,-156,-14,-61,22
16,74,169,-46,-94,133,9,-63,-162,-20,-67,16
16,74,169,-46,-94,133,9,-69,-162,-20,-67,16
16,74,169,-46,-94,127,9,-75,-168,-26,-67,16
16,74,169,-46,-94,127,9,-75,-168,-26,-67,16
16,68,169,-46,-94,127,9,-81,-168,-26,-67,16
16,68,163,-46,-94,127,9,-87,-174,-32,-73,10
16,68,163,-46,-94,127,9,-87,-174,-32,-73,10
16,68,163,-46,-94,127,9,-87,-174,-32,-73,10
16,68,163,-46,-94,127,9,-87,-174,-32,-73,10
16,68,163,-46,-94,121,9,-87,-174,-32,-73,10
16,68,163,-46,-94,121,9,-87,-174,-32,-73,10
16,68,157,-46,-94,121,9,-93,-174,-32,-73,4
16,68,157,-46,-94,121,9,-99,-174,-32,-73,4
16,68,157,-46,-94,121,9,-99,-180,-38,-73,4
16,68,157,-46,-94,121,9,-105,-180,-38,-73,-2
16,68,157,-46,-94,121,9,-105,-180,-38,-73,-2
16,68,157,-46,-94,121,9,-105,-180,-38,-73,-2
16,68,157,-46,-94,121,9,-105,-186,-38,-73,-2
16,68,157,-46,-94,121,9,-105,-192,-38,-73,-2
16,68,157,-46,-94,121,9,-105,-192,-38,-79,-2
16,68,157,-46,-94,121,9,-111,-192,-38,-79,-2
16,68,157,-46,-94,121,9,-111,-192,-38,-79,-8
16,68,157,-46,-94,121,9,-117,-192,-38,-79,-8
16,68,157,-46,-94,121,9,-123,-192,-38,-79,-8
16,68,157,-46,-94,115,9,-123,-192,-38,-79,-8
16,68,157,-46,-94,115,9,-123,-192,-38,-79,-8
16,68,157,-46,-94,115,9,-123,-192,-38,-79,-8
16,68,157,-46,-94,115,9,-123,-198,-38,-79,-8
16,68,157,-46,-94,115,9,-129,-198,-38,-79,-8
16,68,157,-46,-94,115,9,-135,-204,-38,-79,-8
16,68,157,-46,-94,115,9,-135,-204,-38,-79,-8
16,68,157,-46,-94,115,9,-135,-204,-38,-79,-8
16,68,157,-46,-94,115,9,-141,-204,-38,-79,-8
16,68,157,-46,-94,115,9,-141,-204,-38,-79,-8
16,68,157,-46,-94,115,9,-141,-204,-38,-79,-8
16,68,157,-46,-94,115,9,-141,-204,-38,-79,-8
16,62,157,-46,-94,115,9,-141,-204,-38,-79,-8
16,62,157,-46,-94,115,9,-141,-204,-38,-79,-8
16,62,157,-46,-94,115,9,-141,-204,-38,-79,-8
16,62,157,-46,-94,115,9,-141,-204,-38,-79,-8
16,62,157,-46,-94,115,9,-141,-204,-38,-79,-8
16,62,157,-46,-94,115,9,-141,-210,-38,-79,-8
16,62,151,-46,-94,115,9,-147,-210,-38,-79,-8
16,62,151,-46,-94,115,9,-153,-210,-38,-79,-8
16,62,151,-46,-94,115,9,-153,-210,-38,-79,-8
16,62,151,-46,-94,115,9,-153,-210,-38,-79,-8
16,62,151,-46,-94,115,9,-153,-210,-38,-79,-8
16,62,151,-46,-94,115,9,-153,-210,-38,-79,-8
16,62,151,-46,-88,115,9,-153,-216,-38,-79,-8
16,62,151,-46,-88,115,9,-153,-216,-38,-79,-8
16,62,151,-46,-88,115,9,-159,-216,-38,-79,-8
16,62,151,-46,-88,109,9,-159,-216,-38,-79,-8
16,62,151,-46,-88,109,9,-165,-216,-38,-79,-8
16,62,151,-46,-88,109,9,-165,-216,-38,-79,-8
16,56,151,-40,-88,109,9,-171,-216,-38,-79,-8
16,56,151,-40,-88,109,9,-171,-216,-38,-85,-8
16,56,151,-40,-88,109,9,-177,-216,-38,-85,-8
16,56,151,-40,-88,109,9,-177,-216,-38,-85,-8
16,56,151,-40,-88,109,9,-177,-216,-38,-85,-8
16,56,151,-40,-88,109,9,-177,-216,-38,-85,-8
16,56,151,-40,-88,109,9,-177,-216,-38,-85,-8
16,56,151,-40,-88,109,9,-177,-216,-38,-85,-8
16,56,151,-40,-88,109,9,-177,-216,-38,-85,-8
16,56,151,-40,-88,109,9,-177,-216,-38,-85,-8
16,56,151,-40,-88,109,9,-177,-216,-38,-85,-8
16,56,151,-40,-88,109,9,-177,-216,-38,-85,-8
16,56,151,-40,-88,109,9,-177,-216,-38,-85,-8
16,56,151,-40,-82,109,9,-177,-216,-38,-85,-8
16,50,151,-40,-82,109,9,-177,-216,-38,-85,-8
16,50,151,-40,-82,109,9,-177,-216,-38,-85,-8
16,50,151,-40,-82,109,9,-177,-216,-44,-85,-8
16,50,151,-40,-82,109,9,-183,-216,-44,-85,-8
16,50,145,-40,-82,109,9,-189,-216,-44,-85,-8
16,50,145,-40,-82,109,9,-189,-216,-44,-85,-8
16,50,145,-40,-82,109,9,-189,-216,-50,-85,-8
16,50,145,-40,-82,109,9,-189,-216,-50,-91,-8
16,50,145,-40,-82,109,9,-189,-216,-56,-97,-8
16,50,145,-40,-82,109,9,-189,-216,-56,-97,-14
16,50,145,-40,-82,109,9,-189,-216,-56,-97,-14
16,50,145,-40,-82,109,9,-195,-216,-56,-97,-14
16,50,145,-40,-82,109,9,-195,-222,-56,-97,-14
16,50,145,-40,-82,109,9,-195,-222,-56,-97,-14
16,50,145,-40,-82,103,9,-195,-222,-56,-97,-14
16,50,145,-40,-82,97,9,-195,-222,-56,-97,-14
16,50,145,-40,-82,97,9,-195,-222,-56,-97,-14
16,50,139,-40,-76,97,9,-195,-222,-56,-97,-14
16,50,139,-40,-76,97,9,-195,-222,-56,-97,-14
16,44,139,-40,-76,97,9,-201,-222,-56,-97,-14
16,44,139,-40,-76,97,9,-201,-222,-56,-97,-14
16,44,139,-40,-76,97,9,-201,-222,-56,-97,-14
16,44,139,-40,-76,97,9,-201,-222,-56,-97,-14
16,44,139,-40,-76,97,9,-201,-222,-56,-97,-14
16,44,139,-40,-76,97,9,-201,-222,-56,-97,-14
16,44,139,-40,-76,97,9,-207,-222,-56,-97,-14
16,44,139,-40,-76,97,9,-207,-228,-56,-97,-14
16,44,139,-40,-76,97,9,-207,-228,-56,-97,-14
16,44,139,-40,-76,97,9,-207,-228,-62,-97,-14
16,44,139,-40,-76,97,9,-207,-228,-62,-97,-14
16,44,139,-40,-76,97,9,-207,-228,-62,-97,-14
16,44,139,-40,-76,97,9,-207,-228,-62,-97,-14
16,44,139,-40,-76,97,9,-213,-228,-62,-97,-14
16,44,139,-40,-76,97,9,-213,-228,-62,-97,-14
16,44,133,-40,-76,97,9,-213,-228,-62,-97,-14
16,44,133,-40,-70,97,9,-213,-228,-62,-97,-14
16,44,133,-40,-70,97,9,-213,-228,-62,-97,-14
16,44,133,-40,-70,97,9,-213,-228,-62,-97,-14
16,44,133,-40,-70,97,9,-213,-228,-62,-97,-14
16,44,133,-40,-70,97,9,-213,-228,-62,-97,-14
16,44,133,-40,-70,97,9,-213,-228,-62,-97,-14
16,44,133,-40,-70,91,9,-213,-228,-62,-97,-14
16,44,133,-40,-64,91,9,-213,-228,-62,-97,-14
16,44,133,-40,-64,91,9,-213,-228,-62,-97,-14
16,38,133,-40,-64,91,9,-213,-228,-62,-97,-14
16,38,133,-40,-64,91,9,-213,-234,-62,-97,-14
16,38,133,-40,-64,91,9,-213,-234,-62,-97,-14
16,32,133,-40,-64,91,9,-213,-234,-62,-97,-14
16,32,133,-40,-64,91,9,-213,-234,-62,-97,-14
16,32,133,-40,-64,91,9,-213,-234,-62,-97,-14
16,32,133,-40,-64,91,9,-213,-234,-62,-97,-14
16,32,133,-40,-64,91,9,-213,-234,-62,-97,-14
16,32,133,-40,-64,91,9,-213,-234,-62,-97,-14
16,32,133,-40,-64,91,9,-213,-234,-62,-97,-14
16,32,133,-40,-64,91,9,-213,-234,-62,-97,-14
16,32,133,-40,-64,91,9,-213,-234,-62,-97,-19
16,32,133,-40,-64,91,9,-213,-234,-62,-97,-19
16,32,133,-40,-64,91,9,-213,-234,-62,-97,-19
16,32,133,-40,-64,91,9,-213,-234,-62,-97,-19
16,32,133,-40,-64,91,9,-213,-234,-62,-97,-19
16,32,133,-40,-64,91,9,-213,-234,-62,-97,-19
16,32,133,-40,-64,91,9,-213,-234,-62,-97,-19
16,32,133,-40,-64,91,9,-213,-234,-62,-97,-19
16,32,133,-40,-58,91,9,-213,-234,-62,-97,-19
16,32,133,-40,-58,91,9,-213,-234,-62,-97,-19
16,32,133,-40,-58,91,9,-213,-234,-62,-97,-19
16,32,133,-40,-58,91,9,-213,-234,-62,-97,-19
16,32,133,-40,-58,91,9,-213,-234,-62,-97,-19
16,32,133,-40,-58,91,9,-213,-234,-62,-97,-19
16,32,133,-40,-58,91,9,-213,-234,-62,-97,-19
16,32,133,-40,-58,91,9,-213,-234,-62,-97,-19
16,32,133,-40,-58,91,9,-213,-234,-62,-97,-19
16,32,133,-40,-58,91,9,-213,-234,-62,-97,-19
16,32,133,-40,-58,91,9,-213,-234,-62,-97,-19
16,32,133,-40,-58,91,9,-213,-234,-62,-97,-19
16,32,133,-40,-58,91,9,-213,-234,-62,-97,-19
16,32,133,-40,-58,91,9,-213,-234,-62,-97,-19
16,32,133,-40,-58,91,9,-213,-234,-62,-97,-19
16,32,133,-40,-58,91,9,-213,-234,-62,-97,-19
16,32,133,-40,-58,91,9,-213,-234,-62,-97,-19
16,32,133,-40,-58,91,9,-213,-234,-62,-97,-19
16,32,133,-40,-58,91,9,-213,-234,-62,-97,-19
16,32,133,-40,-58,85,9,-213,-234,-62,-97,-19
16,32,133,-40,-58,85,9,-213,-234,-62,-97,-19
16,32,133,-40,-58,85,9,-213,-234,-62,-97,-19
16,32,133,-40,-58,85,9,-213,-234,-62,-97,-19
16,32,127,-40,-58,85,9,-213,-234,-62,-97,-19
16,32,127,-40,-58,85,9,-213,-234,-62,-103,-19
16,32,127,-40,-58,85,9,-213,-234,-62,-103,-19
16,32,127,-40,-58,85,9,-213,-234,-62,-103,-19
16,32,127,-40,-58,85,9,-213,-234,-62,-103,-19
16,32,127,-40,-58,85,9,-213,-234,-62,-103,-19
16,32,127,-40,-58,85,9,-213,-234,-62,-103,-19
16,32,127,-40,-58,85,9,-213,-234,-62,-103,-19
16,32,127,-40,-58,85,9,-213,-234,-62,-103,-19
16,32,127,-40,-58,85,9,-213,-234,-62,-103,-19
16,32,127,-40,-58,85,9,-213,-234,-62,-103,-19
16,32,127,-40,-58,85,9,-213,-234,-62,-103,-19
16,32,127,-40,-58,85,9,-213,-234,-62,-103,-19
16,32,127,-40,-58,85,9,-213,-234,-62,-103,-19
16,32,127,-40,-58,85,9,-213,-234,-62,-103,-19
16,32,127,-40,-58,85,9,-213,-234,-62,-103,-19
16,38,133,-40,-58,85,9,-213,-228,-62,-103,-19
16,44,133,-46,-58,91,9,-207,-222,-62,-103,-19
16,50,139,-52,-58,97,15,-201,-216,-56,-103,-19
16,56,145,-58,-58,103,27,-195,-210,-50,-97,-14
16,62,151,-58,-64,109,39,-189,-204,-44,-97,-8
16,68,157,-64,-64,115,45,-183,-204,-44,-91,-2
16,74,169,-70,-64,127,51,-177,-198,-38,-85,4
22,80,175,-70,-64,133,57,-171,-192,-32,-79,4
22,92,181,-76,-64,139,57,-165,-186,-32,-73,10
22,104,187,-82,-64,145,63,-165,-180,-32,-73,16
28,110,187,-88,-64,151,63,-159,-174,-26,-73,16
28,116,187,-94,-64,157,63,-159,-174,-20,-67,16
28,122,187,-94,-64,163,63,-159,-168,-14,-67,16
34,128,193,-100,-64,169,63,-159,-168,-8,-67,16
40,134,199,-106,-64,175,63,-159,-162,-2,-61,22
46,140,205,-112,-64,181,63,-159,-156,4,-55,28
52,146,205,-118,-64,181,57,-159,-156,4,-49,34
52,152,205,-124,-64,181,45,-159,-156,4,-49,40
58,158,205,-130,-64,187,27,-165,-156,10,-49,46
58,164,205,-130,-64,187,3,-165,-156,10,-43,46
64,170,205,-136,-64,193,-9,-171,-156,15,-37,52
70,176,205,-142,-64,193,-26,-171,-156,15,-31,58
76,176,205,-142,-64,193,-38,-171,-156,15,-31,58
76,182,211,-148,-64,199,-44,-177,-156,15,-31,58
76,188,217,-148,-64,205,-44,-177,-156,15,-25,64
76,194,217,-148,-64,205,-44,-177,-156,15,-25,64
76,200,223,-154,-64,211,-44,-177,-156,15,-25,64
76,206,229,-154,-70,217,-44,-183,-156,15,-25,64
76,212,235,-154,-76,223,-44,-183,-156,15,-25,64
76,212,235,-154,-76,223,-44,-183,-156,15,-25,64
76,206,235,-154,-76,223,-44,-183,-156,15,-25,64
76,200,235,-154,-76,217,-44,-183,-156,15,-25,70
76,194,229,-154,-76,211,-44,-183,-156,15,-25,70
76,182,217,-154,-76,205,-44,-183,-156,15,-25,70
76,170,205,-148,-70,193,-44,-183,-156,15,-25,70
76,140,181,-136,-64,169,-38,-177,-156,15,-25,70
76,116,163,-124,-58,139,-32,-171,-156,15,-25,70
76,92,151,-106,-52,127,-21,-165,-156,15,-25,64
70,74,139,-94,-52,115,-9,-159,-156,10,-25,58
64,56,127,-82,-46,103,3,-153,-156,4,-31,46
64,44,115,-70,-40,85,15,-141,-156,4,-37,40
64,32,97,-64,-34,73,21,-129,-150,4,-43,34
64,14,85,-58,-28,55,27,-111,-144,4,-43,28
64,2,67,-52,-22,43,39,-87,-138,4,-43,28
64,-3,55,-52,-16,31,51,-57,-132,4,-43,28
64,-9,43,-52,-10,19,63,-27,-120,4,-43,28
64,-15,31,-52,1,13,69,8,-108,4,-49,22
64,-21,25,-52,7,7,81,44,-96,4,-49,16
64,-21,19,-52,13,7,81,74,-84,4,-49,16
70,-21,19,-52,19,7,75,104,-60,10,-49,16
82,-21,13,-52,25,7,63,134,-36,15,-49,16
88,-21,13,-58,31,7,51,170,-18,27,-49,16
94,-21,13,-58,31,7,15,206,-6,33,-49,16
100,-21,13,-58,37,7,-44,224,6,39,-49,16
106,-15,7,-64,43,7,-146,230,12,45,-49,16
118,-9,2,-70,49,7,-242,236,17,51,-43,16
130,-9,-4,-76,61,7,-302,248,29,63,-37,16
142,-3,-10,-88,67,7,-344,260,41,75,-37,22
148,14,-10,-100,67,13,-362,266,65,87,-25,28
154,56,7,-124,67,37,-368,284,107,129,-1,46
160,104,49,-142,61,79,-374,326,173,177,28,64
166,146,85,-160,49,121,-386,332,203,219,64,88
172,194,121,-190,43,163,-428,332,215,255,94,118
184,242,151,-226,37,205,-500,326,239,303,136,148
208,296,169,-268,37,235,-584,296,269,357,184,190
232,338,181,-298,37,265,-680,194,281,387,232,226
262,356,187,-322,37,277,-794,62,281,423,274,262
298,368,187,-346,43,277,-896,-4,281,471,322,304
352,368,151,-364,85,265,-980,-21,299,537,382,352
412,368,85,-388,151,241,-1046,-21,359,639,460,406
472,374,37,-418,211,223,-1100,-4,431,747,550,466
532,386,-4,-466,259,217,-1184,-4,473,855,670,562
604,440,-16,-538,301,217,-1310,-135,479,975,832,700
700,530,-22,-634,343,235,-1466,-363,479,1131,1066,898
826,662,-28,-754,397,283,-1670,-555,479,1383,1378,1168
970,824,-28,-916,463,373,-1886,-717,533,1731,1798,1498
1102,1022,-4,-1084,493,505,-2078,-891,659,2126,2265,1876
1216,1250,103,-1252,517,673,-2264,-1077,773,2545,2744,2259
1312,1478,235,-1414,523,859,-2438,-1275,875,2947,3224,2636
1384,1700,367,-1552,523,1045,-2611,-1419,1013,3355,3668,2984
1426,1880,511,-1660,499,1207,-2713,-1521,1133,3697,4034,3254
1432,1994,649,-1708,421,1333,-2755,-1629,1181,3931,4298,3440
1426,2036,751,-1726,343,1405,-2755,-1695,1199,4075,4436,3524
1378,2036,787,-1720,289,1405,-2659,-1701,1211,4147,4472,3530
1252,1946,793,-1612,229,1393,-2443,-1665,1241,4195,4472,3494
1102,1748,787,-1444,187,1285,-2168,-1467,1289,4201,4400,3314
952,1478,691,-1228,169,1081,-1826,-1197,1319,4081,4130,3026
826,1166,505,-1006,169,841,-1496,-939,1313,3679,3668,2648
712,878,331,-802,175,619,-1214,-735,1157,3091,3044,2187
598,656,211,-640,175,445,-956,-591,929,2402,2337,1702
478,464,151,-490,175,319,-734,-489,659,1683,1600,1222
364,332,127,-358,151,229,-560,-453,323,927,904,772
280,242,115,-274,115,181,-440,-435,59,411,466,490
238,200,109,-232,85,157,-362,-393,-12,267,328,388
202,158,103,-190,73,139,-302,-333,-12,261,310,346
172,134,103,-160,61,127,-230,-273,-6,261,298,322
148,122,97,-142,49,121,-164,-219,6,267,286,292
130,104,97,-124,37,115,-110,-165,17,267,274,262
118,80,91,-112,31,103,-62,-123,29,267,250,232
106,50,85,-94,25,79,-26,-81,35,261,220,202
94,26,79,-82,25,61,9,-45,41,249,190,172
88,8,67,-70,25,43,39,-15,41,219,154,142
82,-3,61,-58,25,31,57,2,41,189,118,112
70,-9,55,-46,19,25,75,14,41,153,82,88
64,-21,55,-34,13,19,99,26,35,123,40,70
52,-27,55,-22,13,13,129,50,29,93,11,52
46,-39,49,-16,13,7,147,74,23,75,-19,28
40,-51,43,-4,13,1,159,86,12,51,-43,10
34,-63,43,1,7,-5,171,98,6,27,-61,-14
28,-69,43,7,1,-10,183,110,-6,10,-79,-25
22,-75,43,13,-5,-10,189,122,-12,-2,-91,-31
22,-81,37,19,-5,-16,195,128,-18,-14,-103,-37
16,-87,37,19,-5,-16,207,140,-18,-26,-115,-43
10,-93,37,25,-5,-22,219,152,-18,-32,-121,-49
4,-99,31,31,-5,-28,231,158,-18,-38,-127,-55
-2,-105,31,37,-5,-28,243,170,-18,-44,-133,-67
-2,-111,25,37,-5,-34,249,182,-18,-50,-139,-73
-2,-111,25,37,-5,-34,255,188,-18,-50,-145,-79
-2,-111,25,43,-5,-34,261,188,-18,-56,-151,-85
-2,-111,25,43,-5,-34,267,188,-24,-62,-157,-85
-7,-111,25,43,-5,-34,273,194,-24,-62,-157,-91
-7,-111,25,43,-5,-34,273,200,-24,-62,-163,-91
-7,-111,25,43,-5,-34,279,206,-24,-62,-169,-97
-7,-111,25,43,-5,-34,285,212,-24,-62,-169,-103
-7,-111,25,49,-5,-34,291,218,-24,-62,-169,-109
-7,-111,25,49,-5,-34,297,218,-24,-62,-169,-109
-7,-111,25,49,-5,-34,297,224,-24,-62,-169,-109
-7,-111,25,49,-5,-34,297,230,-24,-62,-175,-109
-7,-111,25,49,-10,-34,303,236,-24,-62,-175,-115
-7,-111,25,49,-10,-34,309,242,-24,-62,-175,-115
-7,-111,25,49,-10,-34,309,248,-24,-62,-175,-115
-7,-111,25,49,-10,-34,315,260,-24,-62,-175,-115
-7,-111,25,49,-10,-34,321,272,-24,-62,-175,-121
-13,-117,25,49,-10,-34,321,278,-18,-62,-175,-127
-13,-117,25,49,-10,-34,327,284,-12,-62,-175,-127
-13,-117,25,49,-10,-34,327,290,0,-56,-175,-127
-13,-117,25,49,-10,-34,327,302,6,-56,-175,-127
-13,-117,25,49,-16,-34,327,308,12,-56,-175,-127
-13,-117,25,49,-16,-34,333,320,12,-56,-175,-127
-13,-117,25,49,-22,-34,339,332,17,-50,-175,-127
-13,-117,25,49,-22,-34,345,344,17,-50,-175,-127
-13,-117,25,49,-22,-34,351,356,23,-50,-175,-127
-19,-123,25,55,-22,-34,351,368,29,-44,-175,-127
-19,-123,25,55,-22,-34,351,374,35,-44,-175,-127
-19,-123,25,55,-22,-34,357,386,41,-44,-175,-127
-19,-123,25,55,-22,-34,363,398,53,-38,-175,-127
-25,-123,25,55,-22,-34,369,410,65,-32,-175,-127
-25,-123,25,55,-22,-34,375,422,71,-26,-175,-127
-25,-123,25,55,-22,-34,381,434,77,-26,-175,-127
-25,-123,25,55,-28,-34,387,446,83,-26,-169,-127
-25,-123,31,55,-34,-34,393,452,95,-20,-163,-127
-25,-123,31,55,-40,-34,393,458,107,-14,-157,-127
-25,-123,31,55,-40,-34,393,470,119,-8,-157,-127
-25,-123,31,55,-40,-34,399,482,131,-2,-157,-127
-25,-123,31,55,-40,-34,405,494,143,4,-151,-127
-25,-123,31,55,-40,-34,411,506,149,10,-151,-127
-25,-123,31,55,-40,-34,417,518,155,10,-145,-127
-25,-123,37,55,-40,-34,423,530,161,15,-139,-127
-25,-123,37,55,-40,-34,429,542,167,21,-139,-127
-25,-123,43,55,-40,-34,429,554,179,27,-133,-127
-25,-123,43,55,-40,-34,429,566,191,33,-133,-127
-25,-123,43,55,-40,-34,435,578,203,39,-133,-127
-25,-123,49,55,-40,-28,441,590,215,45,-127,-127
-31,-123,49,55,-40,-28,447,602,221,51,-127,-127
-37,-123,49,55,-40,-28,453,620,227,57,-127,-127
-37,-117,49,55,-40,-28,459,632,233,63,-127,-127
-37,-111,55,55,-40,-28,465,650,239,69,-121,-127
-37,-111,55,55,-40,-28,471,662,251,75,-121,-127
-37,-111,61,55,-40,-22,477,674,263,87,-115,-127
-37,-105,61,55,-40,-16,483,692,275,93,-109,-121
-37,-105,61,55,-40,-10,489,704,287,99,-103,-121
-37,-105,61,55,-40,-10,495,716,299,105,-97,-115
-37,-99,61,55,-40,-10,501,734,305,111,-91,-109
-37,-99,61,49,-40,-10,507,746,317,117,-85,-109
-37,-93,67,49,-46,-5,513,770,323,123,-85,-109
-37,-87,73,49,-46,-5,513,794,329,129,-85,-103
-37,-87,79,49,-52,1,513,806,335,135,-85,-103
-37,-87,85,49,-58,7,519,818,347,141,-79,-103
-37,-87,91,49,-58,13,525,830,359,147,-73,-97
-37,-81,91,43,-58,19,531,842,371,153,-73,-97
-37,-75,97,43,-58,19,537,854,383,159,-73,-97
-37,-69,97,43,-58,19,543,866,389,165,-73,-97
-37,-63,103,37,-58,25,549,878,395,165,-73,-97
-37,-57,109,31,-64,25,549,890,401,165,-73,-97
-37,-57,115,31,-70,25,555,902,407,171,-73,-97
-37,-57,121,31,-70,31,555,914,419,171,-73,-97
-37,-51,127,31,-76,37,561,926,431,177,-73,-97
-37,-45,133,31,-76,43,567,938,443,177,-73,-97
-37,-39,139,31,-82,49,573,950,449,177,-73,-97
-37,-33,145,31,-88,55,579,962,455,177,-73,-97
-37,-33,145,25,-88,61,585,974,461,177,-73,-97
-37,-27,151,19,-88,67,585,992,461,177,-73,-97
-37,-21,157,13,-94,73,585,1004,467,177,-73,-97
-43,-21,163,13,-100,79,585,1010,467,177,-73,-97
-43,-21,163,13,-100,79,585,1010,467,177,-73,-97
-43,-21,169,13,-100,79,591,1016,467,177,-73,-97
-43,-15,175,13,-100,85,591,1022,473,177,-73,-97
-49,-15,181,13,-106,85,591,1022,473,171,-73,-97
-55,-9,187,13,-112,91,591,1028,473,165,-73,-97
-55,-3,187,13,-118,97,591,1034,473,159,-73,-97
-55,-3,187,13,-118,97,591,1034,473,153,-73,-97
-55,-3,187,13,-118,97,591,1034,473,147,-79,-97
-55,-3,187,13,-118,97,591,1034,473,141,-79,-97
-55,-3,187,13,-118,97,591,1034,473,135,-79,-97
-61,2,193,13,-124,103,591,1034,473,129,-79,-97
-61,2,199,13,-130,109,591,1034,467,123,-85,-97
-61,8,205,13,-136,115,591,1034,461,117,-91,-97
-61,14,211,13,-136,121,585,1028,455,111,-91,-97
-61,20,217,13,-136,127,579,1022,449,99,-97,-97
-61,20,223,13,-142,133,573,1010,437,87,-103,-97
-61,20,229,7,-142,139,561,998,425,75,-109,-97
-61,20,229,7,-142,139,549,980,413,63,-115,-97
-61,20,229,7,-142,139,537,956,401,51,-121,-97
-61,20,229,7,-142,139,525,932,383,39,-127,-97
-61,26,229,7,-142,139,513,902,359,27,-133,-97
-61,26,229,1,-142,139,495,872,335,15,-133,-97
-67,26,229,1,-142,139,477,842,311,-8,-139,-97
-67,26,229,1,-142,139,465,818,287,-26,-139,-97
-67,26,229,1,-142,139,447,788,263,-38,-139,-97
-67,26,229,1,-142,139,435,752,245,-50,-139,-97
-67,32,229,1,-142,139,417,716,221,-62,-145,-97
-67,32,229,-4,-142,139,399,674,197,-74,-145,-97
-67,32,229,-4,-142,139,369,638,167,-92,-151,-97
-67,32,229,-4,-142,139,339,596,143,-104,-157,-97
-67,32,229,-4,-142,139,321,566,119,-122,-163,-97
-67,32,229,-4,-142,139,309,536,107,-134,-163,-97
-67,32,229,-4,-142,139,291,500,83,-146,-163,-97
-67,32,229,-4,-142,139,273,464,59,-158,-163,-97
-67,32,229,-4,-142,139,255,428,41,-164,-163,-91
-67,32,229,-4,-142,139,231,386,23,-170,-163,-85
-67,32,223,-4,-142,139,207,356,6,-176,-163,-79
-67,32,217,-4,-136,139,195,326,-6,-176,-163,-73
-61,32,205,-10,-130,139,177,296,-18,-182,-163,-67
-61,32,199,-10,-124,133,159,266,-30,-182,-157,-61
-61,32,193,-10,-124,133,147,236,-42,-182,-151,-55
-61,32,187,-10,-118,127,135,212,-54,-182,-145,-49
-61,26,181,-10,-112,121,123,182,-60,-182,-133,-43
-55,26,175,-10,-112,115,111,158,-72,-182,-121,-37
-55,20,169,-10,-106,109,99,140,-78,-182,-109,-31
-55,14,169,-10,-106,103,87,116,-84,-182,-103,-25
-55,8,163,-10,-106,97,75,92,-90,-182,-97,-19
-55,2,157,-10,-100,97,63,68,-96,-176,-91,-19
-55,-3,151,-10,-94,91,57,50,-102,-170,-85,-19
-55,-3,145,-10,-94,85,51,32,-114,-164,-79,-19
-55,-9,139,-10,-88,79,45,20,-120,-158,-67,-19
-55,-15,133,-10,-88,73,45,8,-126,-158,-61,-19
-55,-21,127,-4,-88,67,39,-9,-132,-152,-55,-19
-55,-27,127,-4,-88,61,39,-21,-138,-146,-55,-14
-55,-33,127,-4,-88,55,33,-33,-144,-140,-55,-14
-55,-39,127,-4,-88,55,33,-45,-150,-134,-49,-14
-55,-39,127,1,-88,49,33,-57,-156,-134,-43,-14
-55,-39,127,1,-88,49,33,-69,-156,-128,-43,-14
-55,-39,127,1,-88,49,33,-81,-156,-128,-43,-14
-55,-39,127,1,-88,49,33,-93,-162,-128,-43,-14
-55,-39,127,1,-88,49,33,-105,-168,-128,-43,-14
-55,-39,127,1,-88,49,33,-111,-168,-128,-43,-14
-61,-39,127,7,-88,49,33,-117,-168,-122,-43,-14
-61,-39,127,7,-88,49,33,-117,-168,-116,-43,-14
-61,-39,127,7,-88,49,33,-117,-168,-116,-37,-14
-67,-45,127,13,-88,49,33,-117,-168,-110,-31,-14
-67,-45,127,19,-88,49,33,-117,-168,-104,-31,-14
-67,-45,127,19,-88,49,33,-117,-168,-98,-25,-14
-67,-45,127,19,-88,49,33,-117,-168,-98,-25,-14
-67,-45,127,19,-88,49,33,-117,-168,-98,-25,-14
-67,-45,127,19,-88,49,33,-117,-168,-98,-19,-14
-67,-45,133,19,-94,55,39,-117,-168,-92,-19,-14
-67,-39,145,19,-100,67,45,-117,-168,-80,-13,-14
-67,-33,157,19,-106,73,51,-117,-162,-68,-1,-14
-67,-27,163,13,-112,85,63,-111,-150,-56,5,-14
-67,-21,169,7,-112,97,69,-105,-138,-44,11,-14
-67,-9,181,7,-112,109,75,-105,-132,-38,16,-14
-67,2,193,1,-118,121,81,-99,-120,-32,28,-8
-67,26,205,-4,-124,133,87,-93,-108,-20,40,4
-67,50,223,-16,-130,151,93,-87,-102,-2,52,16
-67,68,241,-22,-142,175,93,-75,-90,10,64,22
-67,86,253,-34,-148,187,99,-69,-84,21,76,34
-67,104,277,-40,-154,199,99,-63,-78,33,88,40
-67,116,289,-46,-160,211,99,-57,-66,45,94,46
-67,128,301,-52,-166,223,105,-57,-60,57,100,52
-67,140,313,-58,-172,235,111,-51,-48,63,106,52
-67,146,319,-64,-178,247,117,-45,-36,69,112,58
-67,152,325,-70,-178,253,123,-39,-30,75,118,58
-67,152,325,-70,-178,253,135,-33,-24,75,118,58
-67,152,325,-70,-178,253,147,-27,-24,75,118,58
-67,152,325,-70,-178,253,159,-21,-24,75,118,58
-73,146,325,-70,-178,253,171,-15,-18,75,118,58
-73,140,325,-70,-178,247,177,-15,-18,75,118,58
-79,134,325,-64,-178,241,183,-15,-18,75,112,52
-85,128,319,-58,-178,235,183,-21,-24,63,106,40
-91,116,319,-52,-178,229,183,-27,-36,51,94,28
-91,110,313,-46,-178,223,183,-33,-42,39,82,22
-91,110,313,-46,-178,217,183,-39,-48,27,70,16
-97,110,307,-46,-178,217,183,-39,-54,21,64,10
-97,104,307,-46,-178,211,183,-45,-60,10,58,4
-97,98,301,-40,-178,205,183,-51,-66,4,52,-8
-97,92,295,-40,-178,199,189,-51,-78,-8,46,-14
-97,86,295,-40,-178,199,195,-51,-84,-14,40,-19
-97,86,295,-40,-178,199,201,-57,-90,-20,34,-25
-103,86,295,-34,-178,199,207,-63,-96,-26,34,-31
-103,86,295,-34,-178,199,207,-69,-102,-32,28,-31
-103,86,295,-34,-178,199,207,-93,-114,-38,22,-31
-103,86,295,-34,-178,199,201,-105,-126,-44,16,-31
-103,80,289,-34,-178,199,195,-117,-138,-50,11,-37
-103,74,277,-28,-178,187,183,-129,-150,-56,5,-43
-103,62,265,-22,-172,175,165,-135,-156,-62,5,-49
-103,50,241,-16,-160,145,141,-141,-162,-68,5,-55
-103,26,217,-10,-154,127,129,-147,-168,-80,-1,-61
-103,8,199,-4,-142,109,123,-147,-174,-86,-1,-67
-103,-9,187,1,-136,97,123,-147,-174,-92,-7,-67
-103,-21,175,7,-130,85,123,-147,-174,-98,-7,-67
-103,-27,163,13,-124,73,123,-147,-180,-98,-7,-67
-103,-33,151,13,-118,67,123,-153,-180,-104,-7,-67
-103,-39,139,19,-112,61,123,-159,-186,-110,-13,-73
-103,-45,133,19,-106,49,117,-159,-192,-110,-13,-73
-103,-51,127,19,-100,43,111,-159,-192,-110,-13,-73
-103,-51,121,19,-94,37,105,-153,-192,-110,-13,-73
-97,-57,109,19,-88,31,99,-141,-186,-110,-13,-73
-91,-69,97,19,-82,25,99,-117,-174,-110,-13,-73
-85,-81,85,25,-70,13,93,-93,-162,-104,-13,-73
-79,-87,73,25,-58,7,93,-75,-150,-98,-13,-73
-73,-93,61,25,-52,1,93,-51,-132,-92,-7,-73
-67,-99,49,25,-46,-10,93,-15,-114,-80,-1,-73
-61,-105,37,25,-34,-28,93,26,-96,-74,-1,-73
-49,-111,13,25,-16,-40,93,74,-78,-68,-1,-73
-43,-123,-10,25,1,-58,93,128,-48,-62,-1,-73
-37,-129,-22,25,13,-64,87,170,-24,-56,-1,-73
-31,-135,-34,25,19,-70,75,206,0,-50,5,-73
-25,-135,-40,25,25,-76,63,236,17,-38,11,-73
-19,-135,-46,25,31,-76,51,266,29,-32,16,-73
-13,-135,-52,25,43,-76,39,302,53,-26,16,-73
-2,-135,-58,19,49,-82,3,332,65,-20,16,-73
10,-135,-64,13,61,-88,-80,344,77,-14,16,-73
28,-135,-76,7,73,-94,-176,344,83,-14,22,-67
40,-135,-88,7,85,-100,-272,344,89,-8,22,-67
52,-135,-100,1,91,-106,-338,338,89,-2,28,-61
58,-129,-100,-4,91,-106,-368,320,89,10,40,-55
64,-87,-88,-22,91,-76,-380,308,95,27,52,-43
70,-39,-46,-46,85,-34,-392,308,119,69,88,-25
82,2,-16,-76,85,7,-410,308,143,111,118,-2
94,38,7,-106,79,31,-482,266,149,141,148,28
112,68,19,-136,79,55,-572,188,155,171,190,58
142,104,25,-166,79,67,-662,146,167,219,238,100
172,134,25,-196,85,79,-728,104,179,261,286,142
208,152,25,-226,97,85,-782,62,209,321,328,178
250,158,2,-238,139,85,-836,56,257,381,382,208
298,158,-52,-256,193,73,-908,56,299,429,430,250
364,164,-88,-298,241,61,-986,44,323,495,514,328
442,200,-118,-364,289,61,-1100,2,335,609,664,460
544,284,-130,-454,349,73,-1250,-99,359,789,904,664
664,410,-136,-574,403,115,-1418,-279,401,1071,1252,946
796,596,-130,-736,451,223,-1616,-471,485,1443,1690,1282
946,830,-76,-928,481,397,-1850,-651,647,1899,2211,1690
1072,1112,73,-1132,487,613,-2090,-849,815,2390,2750,2115
1156,1394,253,-1312,481,835,-2276,-1059,977,2827,3230,2486
1204,1616,445,-1450,445,1039,-2426,-1239,1115,3241,3650,2810
1228,1814,637,-1552,361,1231,-2515,-1389,1205,3559,3986,3062
1228,1952,799,-1618,277,1381,-2575,-1527,1265,3799,4220,3242
1222,1982,865,-1624,217,1423,-2581,-1611,1319,3985,4364,3314
1162,1946,871,-1594,181,1417,-2515,-1611,1385,4117,4388,3314
1018,1760,865,-1432,139,1333,-2240,-1497,1463,4153,4370,3176
874,1496,781,-1222,109,1159,-1922,-1269,1493,4117,4142,2912
748,1178,571,-1000,109,889,-1598,-1017,1487,3769,3746,2558
640,860,349,-778,121,613,-1304,-813,1307,3169,3128,2109
526,578,193,-592,145,391,-1040,-669,1025,2437,2391,1618
400,362,97,-424,151,235,-812,-555,701,1635,1618,1096
280,206,55,-286,151,133,-608,-513,341,843,910,646
190,110,43,-196,139,85,-452,-495,23,279,502,382
148,68,37,-148,109,61,-356,-477,-114,51,358,268
118,26,31,-112,91,49,-284,-435,-120,33,328,226
88,8,25,-94,79,43,-218,-387,-114,33,322,202
76,-3,25,-82,67,37,-176,-345,-96,39,316,184
58,-15,25,-70,55,25,-128,-291,-78,45,304,166
46,-27,19,-58,49,13,-92,-249,-66,45,280,136
28,-57,13,-28,43,-10,-56,-207,-60,45,250,106
16,-87,7,-10,43,-22,-26,-171,-60,33,220,76
4,-111,2,1,43,-40,3,-141,-60,15,190,52
-7,-123,-4,13,43,-52,33,-129,-60,-20,160,28
-13,-135,-16,31,43,-64,57,-123,-66,-56,130,10
-25,-147,-22,43,43,-76,69,-117,-78,-86,100,-8
-31,-159,-28,49,43,-88,81,-111,-90,-116,70,-25
-37,-171,-34,55,43,-100,93,-105,-102,-134,40,-43
-43,-177,-40,61,43,-106,99,-99,-114,-152,22,-67
-49,-189,-40,67,43,-112,111,-87,-126,-164,5,-79
-55,-195,-40,73,43,-118,123,-75,-138,-182,-7,-91
-61,-201,-46,79,37,-118,135,-63,-144,-194,-19,-103
-61,-207,-52,85,31,-118,147,-51,-150,-206,-31,-115
-67,-207,-52,91,31,-118,153,-45,-150,-218,-43,-121
-67,-213,-52,91,31,-118,159,-39,-150,-230,-55,-127
-67,-219,-52,97,31,-118,165,-39,-156,-236,-61,-133
-67,-219,-52,103,31,-124,171,-33,-162,-242,-73,-139
-67,-225,-52,103,31,-124,177,-33,-162,-248,-85,-145
-73,-225,-52,103,31,-124,183,-27,-162,-248,-91,-151
-73,-225,-58,103,31,-130,189,-21,-162,-254,-97,-157
-73,-225,-58,103,31,-130,195,-15,-162,-254,-103,-163
-73,-225,-58,109,31,-130,201,-15,-168,-254,-103,-169
-73,-225,-58,109,31,-136,207,-9,-168,-254,-109,-169
-73,-225,-58,109,31,-136,213,-4,-168,-254,-109,-169
-79,-225,-58,109,31,-136,219,2,-168,-254,-109,-175
-79,-225,-58,109,31,-136,219,8,-168,-254,-109,-175
-79,-225,-58,109,31,-142,219,8,-168,-254,-109,-175
-79,-225,-64,109,31,-142,225,14,-168,-254,-109,-181
-85,-225,-64,109,25,-142,231,20,-168,-254,-109,-181
-85,-225,-64,109,25,-142,231,20,-162,-254,-109,-181
-85,-225,-64,109,25,-142,231,26,-162,-254,-109,-181
-85,-225,-64,109,25,-142,231,32,-162,-254,-109,-181
-85,-225,-64,109,25,-142,237,38,-156,-248,-109,-181
-85,-225,-70,109,25,-142,243,44,-150,-242,-109,-181
-85,-225,-70,109,25,-142,249,50,-144,-236,-109,-181
-85,-225,-70,109,25,-142,255,56,-138,-236,-109,-181
-85,-225,-70,109,25,-142,255,62,-132,-236,-109,-181
-85,-225,-70,109,25,-142,261,74,-126,-230,-109,-181
-85,-225,-70,109,25,-142,261,80,-120,-224,-103,-181
-85,-225,-70,109,25,-142,267,86,-114,-218,-103,-181
-85,-225,-70,109,25,-142,267,92,-108,-212,-103,-181
-85,-225,-70,109,25,-142,273,98,-102,-206,-97,-181
-85,-225,-70,109,25,-142,279,104,-96,-200,-91,-181
-85,-225,-70,109,25,-142,279,110,-84,-194,-91,-181
-85,-225,-70,109,25,-142,285,116,-78,-188,-85,-181
-85,-225,-70,109,25,-142,285,128,-72,-182,-85,-181
-85,-225,-70,109,25,-142,291,140,-66,-176,-79,-181
-85,-225,-70,109,25,-142,297,152,-60,-170,-73,-181
-85,-219,-70,109,25,-142,297,158,-54,-164,-73,-181
-85,-219,-70,109,25,-142,303,170,-42,-158,-73,-181
-85,-213,-70,109,25,-142,309,182,-30,-152,-67,-175
-85,-213,-70,109,25,-142,309,194,-18,-146,-61,-175
-85,-207,-70,109,25,-142,315,212,-6,-146,-55,-169
-85,-201,-70,109,25,-142,315,224,6,-140,-55,-169
-85,-201,-70,109,25,-142,321,242,17,-134,-55,-169
-85,-201,-70,109,25,-142,327,254,29,-128,-49,-169
-85,-201,-70,109,25,-142,327,266,41,-122,-43,-163
-85,-195,-70,109,25,-142,333,290,53,-116,-37,-157
-85,-195,-70,109,25,-142,339,302,65,-104,-31,-151
-85,-189,-70,109,25,-136,345,314,83,-98,-25,-145
-85,-183,-70,103,25,-130,351,326,95,-92,-19,-145
-85,-183,-70,103,25,-130,357,344,107,-86,-19,-145
-85,-177,-64,103,25,-124,363,362,119,-80,-13,-139
-85,-171,-58,97,25,-118,363,380,131,-68,-7,-139
-85,-165,-58,97,25,-118,369,392,143,-62,-1,-139
-79,-159,-58,91,25,-118,375,410,161,-50,5,-133
-79,-159,-52,91,25,-112,381,422,173,-38,11,-133
-79,-159,-52,85,25,-106,387,440,185,-26,16,-127
-73,-153,-52,79,25,-106,393,464,209,-14,22,-127
-73,-147,-46,79,25,-100,405,482,221,-2,28,-127
-73,-141,-40,73,25,-94,411,506,233,10,40,-121
-73,-135,-34,67,19,-88,417,530,245,15,46,-121
-73,-129,-34,67,19,-82,423,542,257,21,52,-115
-73,-129,-28,67,19,-76,429,554,269,27,58,-115
-73,-123,-22,61,19,-70,435,560,281,39,70,-115
-73,-117,-16,61,19,-64,441,572,293,51,76,-109
-67,-111,-16,55,19,-64,447,590,305,63,82,-103
-67,-105,-16,49,19,-64,453,608,317,69,88,-103
-67,-99,-10,49,19,-64,453,626,329,75,94,-97
-61,-93,-10,43,19,-58,459,644,341,81,100,-97
-55,-87,-4,43,19,-58,459,656,353,87,106,-97
-55,-87,2,43,19,-52,459,668,365,99,112,-91
-55,-81,7,43,13,-46,465,680,377,105,118,-91
-55,-75,13,37,7,-34,471,692,389,117,124,-91
-55,-69,19,31,7,-28,477,704,401,129,130,-85
-55,-63,25,25,7,-22,483,722,413,135,136,-79
-49,-57,25,19,7,-16,489,734,425,141,136,-79
-49,-51,31,13,1,-10,489,752,437,147,142,-79
-49,-45,37,13,1,-5,489,764,449,153,148,-73
-49,-39,37,13,1,1,489,776,455,159,148,-67
-49,-33,43,13,-5,1,495,782,461,159,148,-67
-49,-27,49,13,-5,7,495,794,467,165,154,-67
-43,-21,49,7,-10,13,495,806,473,171,160,-67
-37,-15,55,1,-10,19,501,818,485,177,160,-61
-37,-9,61,-4,-10,25,501,830,491,183,160,-55
-37,-3,67,-10,-16,31,501,842,497,189,166,-55
-37,2,73,-16,-16,31,501,848,503,189,166,-49
-31,8,79,-22,-16,37,501,854,503,189,172,-49
-31,14,85,-22,-16,43,501,860,503,189,178,-49
-25,20,85,-28,-16,49,501,866,503,189,178,-43
-25,26,91,-28,-16,55,501,866,503,189,178,-37
-25,32,91,-34,-16,61,501,866,503,189,178,-37
-25,38,97,-40,-16,67,501,866,503,189,178,-37
-25,44,103,-46,-16,73,501,866,503,189,178,-31
-25,44,103,-46,-16,73,495,866,503,189,178,-25
-19,50,109,-46,-22,73,489,860,503,189,178,-25
-19,56,109,-46,-22,79,483,854,497,183,178,-19
-13,62,109,-52,-22,85,471,842,485,177,178,-14
-13,68,109,-52,-22,85,459,824,473,171,178,-14
-13,68,109,-52,-22,85,435,800,461,165,178,-14
-13,74,115,-58,-22,85,417,782,449,159,178,-8
-7,80,115,-64,-22,91,399,758,437,153,178,-8
-2,80,115,-70,-22,91,381,728,425,147,178,-8
4,80,115,-76,-22,91,369,698,407,141,178,-2
10,80,115,-76,-22,91,357,668,395,135,178,4
10,86,115,-82,-22,97,339,626,377,129,178,10
16,92,115,-88,-22,103,321,596,365,123,184,16
16,98,115,-88,-22,103,297,566,353,117,184,22
16,98,115,-88,-22,103,273,536,329,111,184,28
22,98,115,-88,-22,103,255,506,311,105,184,28
28,98,115,-88,-16,103,243,476,293,93,184,28
28,98,115,-88,-16,103,231,440,275,87,184,28
34,98,109,-88,-10,103,207,398,257,81,184,28
34,98,103,-88,-10,97,195,362,233,69,184,28
34,98,103,-88,-10,97,183,332,203,57,184,28
40,92,97,-88,-5,91,159,302,185,51,184,28
40,86,91,-88,1,85,147,272,167,39,184,28
40,86,85,-88,1,79,135,242,143,27,184,28
40,80,79,-88,7,73,123,206,131,15,184,28
40,68,73,-88,7,61,117,176,107,4,184,28
40,56,61,-82,7,49,111,134,77,-8,184,28
40,44,55,-76,13,43,105,92,53,-20,178,28
40,32,49,-70,19,37,99,62,23,-32,172,28
40,26,43,-64,19,31,93,32,6,-38,166,22
40,20,37,-64,19,25,87,8,-6,-44,166,22
40,14,31,-58,19,19,81,-15,-24,-50,160,16
34,8,31,-52,19,13,75,-27,-36,-62,154,10
28,-3,31,-40,19,7,75,-51,-54,-74,148,4
22,-15,25,-34,19,1,69,-75,-84,-80,142,-2
22,-21,19,-28,19,-5,69,-99,-102,-86,136,-8
22,-27,19,-22,19,-10,69,-129,-120,-98,124,-14
16,-33,13,-16,19,-16,69,-141,-132,-104,118,-19
10,-39,13,-10,19,-22,69,-153,-144,-110,112,-25
10,-45,13,-4,19,-28,69,-165,-150,-116,106,-31
4,-51,13,1,19,-28,69,-177,-162,-128,100,-37
-2,-57,13,7,19,-34,69,-189,-168,-134,100,-43
-2,-63,7,7,19,-40,69,-201,-174,-140,100,-49
-2,-69,7,7,19,-46,69,-213,-186,-146,94,-55
-7,-75,7,13,19,-46,69,-225,-192,-152,88,-61
-7,-81,2,19,19,-46,69,-237,-204,-158,82,-67
-13,-87,2,19,19,-52,69,-243,-210,-158,76,-73
-19,-93,2,25,19,-58,69,-249,-216,-164,70,-79
-25,-99,2,31,19,-58,69,-255,-222,-164,64,-79
-25,-105,2,37,19,-58,69,-255,-222,-164,58,-85
-25,-105,-4,43,19,-64,69,-255,-222,-164,52,-85
-25,-111,-4,43,19,-64,69,-261,-228,-164,46,-91
-25,-111,-4,43,19,-70,69,-267,-234,-170,46,-91
-31,-111,-4,43,19,-70,69,-267,-234,-176,46,-91
-37,-111,-4,43,19,-70,69,-267,-234,-182,46,-97
-37,-117,-10,49,19,-76,69,-267,-234,-182,46,-97
-37,-123,-16,49,19,-76,69,-267,-234,-188,40,-97
-37,-123,-16,49,19,-76,69,-273,-234,-188,40,-97
-37,-123,-16,55,19,-76,69,-273,-234,-188,40,-97
-37,-129,-16,55,19,-76,69,-273,-234,-188,40,-97
-37,-129,-16,55,19,-76,69,-273,-234,-188,40,-97
-37,-129,-16,55,19,-76,69,-273,-234,-188,40,-97
-37,-129,-16,55,19,-76,69,-273,-234,-188,40,-97
-43,-129,-16,55,19,-76,69,-273,-234,-188,34,-97
-43,-129,-16,55,19,-76,69,-273,-234,-194,34,-97
-43,-129,-16,55,19,-76,69,-273,-234,-194,34,-103
-43,-129,-16,55,19,-82,69,-273,-234,-194,34,-103
-43,-129,-16,55,19,-82,69,-273,-234,-194,28,-103
-43,-129,-16,55,19,-82,69,-273,-234,-194,28,-103
-43,-129,-22,55,19,-82,69,-273,-234,-194,28,-103
-43,-129,-22,55,19,-82,69,-273,-234,-194,28,-103
-43,-129,-22,55,19,-82,69,-273,-234,-194,28,-103
-43,-129,-28,55,19,-82,69,-273,-234,-194,28,-103
-43,-129,-28,55,19,-82,69,-273,-234,-194,28,-103
-43,-129,-28,55,19,-82,69,-273,-234,-194,28,-103
-43,-129,-28,55,19,-82,69,-273,-234,-194,28,-103
-43,-129,-28,55,19,-82,69,-273,-234,-200,28,-103
-43,-129,-28,55,19,-82,69,-273,-234,-200,28,-103
-43,-129,-28,55,19,-82,69,-273,-234,-200,28,-103
-43,-129,-28,55,19,-82,69,-273,-234,-200,28,-103
-43,-129,-28,55,19,-82,69,-273,-234,-200,22,-103
-43,-129,-28,55,19,-82,69,-273,-234,-200,22,-103
-43,-129,-28,55,19,-82,75,-273,-234,-200,22,-103
-43,-129,-28,55,19,-82,75,-273,-234,-200,22,-103
-43,-129,-28,55,19,-82,75,-273,-234,-200,22,-103
-43,-129,-28,55,19,-82,75,-273,-234,-200,22,-103
-43,-129,-28,55,19,-82,75,-273,-234,-200,22,-103
-43,-129,-28,55,19,-82,75,-273,-234,-200,22,-103
-43,-129,-28,55,19,-82,75,-273,-234,-200,22,-103
-43,-129,-28,55,19,-82,75,-273,-234,-200,22,-103
-43,-129,-28,55,19,-82,75,-273,-234,-200,22,-103
-43,-129,-28,55,19,-82,75,-273,-234,-200,22,-103
-43,-129,-28,55,19,-82,75,-273,-234,-200,22,-103
-43,-129,-28,55,19,-82,75,-273,-234,-206,22,-103
-43,-129,-28,55,19,-82,75,-273,-234,-206,22,-109
-43,-129,-28,55,19,-82,75,-273,-234,-206,22,-109
-43,-129,-28,55,19,-82,75,-273,-234,-206,22,-109
-43,-129,-28,55,19,-82,75,-273,-234,-206,22,-109
-43,-129,-28,55,19,-82,75,-273,-234,-206,22,-109
-43,-129,-28,55,19,-82,75,-273,-234,-206,22,-109
-43,-129,-28,55,19,-82,75,-273,-234,-206,22,-109
-43,-129,-28,55,19,-82,75,-273,-234,-206,22,-109
-43,-129,-28,55,19,-82,75,-273,-234,-206,22,-109
-43,-129,-28,55,19,-82,75,-273,-234,-206,22,-109
-43,-129,-34,55,19,-82,75,-273,-234,-206,22,-109
-43,-129,-34,55,19,-82,75,-273,-234,-206,22,-109
-43,-129,-34,55,19,-82,75,-273,-234,-206,22,-109
-43,-129,-34,55,19,-82,75,-273,-234,-206,22,-109
-43,-129,-34,55,19,-82,75,-273,-234,-212,16,-109
-43,-129,-34,55,19,-82,75,-273,-240,-212,11,-109
-43,-129,-34,55,19,-82,75,-273,-240,-212,11,-109
-43,-129,-34,55,19,-82,75,-273,-246,-212,11,-109
-43,-129,-34,55,19,-82,75,-273,-246,-212,11,-109
-43,-129,-34,55,19,-82,75,-273,-246,-218,5,-109
-43,-129,-34,55,19,-82,75,-273,-252,-218,5,-109
-43,-129,-34,55,19,-82,75,-279,-252,-218,5,-109
-43,-129,-40,55,19,-82,75,-279,-252,-218,-1,-109
-43,-129,-46,55,19,-82,75,-279,-258,-224,-7,-109
-43,-129,-46,55,19,-88,75,-279,-258,-224,-7,-109
-43,-129,-46,55,19,-88,75,-279,-258,-224,-7,-109
-43,-129,-46,55,19,-88,75,-279,-258,-224,-7,-109
-43,-129,-46,55,19,-88,75,-285,-264,-230,-7,-109
-43,-129,-46,55,19,-88,75,-291,-264,-230,-7,-109
-43,-129,-46,55,19,-88,75,-297,-264,-230,-7,-109
-43,-129,-46,55,19,-88,75,-297,-264,-230,-7,-109
-43,-129,-46,55,19,-88,75,-297,-264,-230,-7,-109
-43,-129,-46,55,19,-88,75,-297,-270,-230,-7,-109
-43,-129,-46,55,19,-88,75,-297,-270,-236,-7,-115
-43,-129,-46,55,19,-88,75,-297,-270,-236,-7,-115
-43,-129,-46,55,19,-88,75,-303,-270,-236,-7,-115
-43,-129,-46,55,19,-88,75,-309,-276,-236,-13,-115
-43,-129,-46,55,19,-88,75,-315,-282,-236,-13,-115
-43,-129,-46,55,19,-88,75,-315,-282,-236,-13,-115
-43,-129,-46,55,19,-88,75,-315,-282,-236,-13,-115
-43,-129,-46,55,19,-88,75,-315,-282,-242,-13,-115
-43,-129,-46,55,19,-88,75,-321,-282,-242,-19,-115
-43,-129,-46,55,19,-88,75,-321,-282,-242,-19,-115
-43,-129,-46,55,19,-88,75,-321,-282,-242,-19,-115
-43,-129,-46,55,19,-88,75,-321,-282,-242,-19,-115
-43,-129,-46,55,19,-88,75,-321,-282,-248,-25,-115
-43,-129,-46,55,19,-88,75,-321,-282,-248,-25,-115
-43,-135,-46,55,19,-88,75,-327,-282,-248,-25,-115
-43,-135,-46,55,19,-88,75,-327,-282,-248,-25,-115
-43,-135,-46,55,19,-88,69,-333,-282,-248,-25,-115
-43,-135,-46,55,19,-88,63,-333,-282,-248,-31,-115
-43,-135,-46,55,19,-88,63,-333,-282,-248,-31,-115
-43,-135,-46,55,19,-88,63,-333,-288,-248,-31,-115
-43,-135,-46,55,19,-88,63,-333,-288,-248,-37,-115
-43,-141,-46,55,19,-88,63,-333,-288,-248,-43,-115
-43,-147,-46,55,19,-88,57,-339,-294,-254,-49,-115
-43,-147,-46,55,19,-88,57,-339,-294,-260,-49,-115
-43,-147,-46,55,19,-88,57,-339,-294,-260,-49,-115
-43,-147,-46,55,19,-88,57,-345,-294,-260,-49,-121
-43,-147,-52,55,19,-88,57,-345,-294,-260,-55,-121
-43,-147,-52,55,19,-94,57,-345,-294,-260,-55,-127
-43,-147,-52,55,19,-94,57,-345,-294,-260,-55,-127
-43,-147,-52,55,19,-94,57,-345,-294,-260,-55,-127
-43,-147,-52,61,19,-94,57,-345,-294,-260,-55,-127
-43,-147,-52,61,19,-94,57,-345,-294,-260,-55,-127
-43,-147,-52,61,19,-94,57,-345,-294,-260,-55,-127
-43,-147,-52,61,19,-94,57,-345,-294,-260,-55,-127
-43,-147,-52,61,19,-94,57,-345,-294,-260,-55,-127
-43,-147,-52,61,19,-94,57,-345,-294,-260,-55,-127
-43,-147,-58,61,19,-100,57,-345,-294,-260,-55,-127
-43,-147,-58,61,19,-100,57,-351,-294,-260,-55,-127
-43,-147,-58,61,19,-100,57,-351,-294,-260,-55,-127
-43,-147,-64,61,19,-100,57,-351,-294,-266,-55,-127
-43,-147,-64,61,19,-100,57,-351,-294,-266,-55,-127
-43,-147,-64,61,19,-100,51,-351,-294,-266,-55,-127
-43,-147,-64,61,19,-100,51,-351,-294,-266,-55,-127
-43,-147,-64,67,19,-100,51,-357,-294,-266,-55,-127
-43,-153,-64,67,19,-100,51,-363,-294,-266,-61,-127
-43,-153,-64,67,19,-100,51,-363,-294,-266,-61,-127
-43,-153,-64,67,19,-100,51,-363,-294,-266,-61,-127
-43,-153,-64,67,19,-100,51,-363,-294,-266,-61,-127
-43,-153,-64,67,19,-100,51,-363,-294,-266,-61,-127
-43,-153,-64,67,19,-100,51,-363,-294,-266,-61,-127
-43,-153,-64,67,19,-100,51,-363,-294,-266,-61,-127
-43,-153,-64,67,19,-100,51,-363,-294,-266,-61,-127
-43,-153,-64,67,19,-100,51,-363,-294,-266,-61,-127
-43,-153,-64,67,19,-100,51,-363,-294,-272,-61,-127
-43,-153,-70,67,19,-100,51,-363,-294,-272,-61,-127
-43,-153,-70,67,19,-100,51,-369,-294,-272,-61,-127
-43,-153,-70,67,19,-100,51,-369,-294,-272,-61,-127
-43,-153,-70,67,19,-100,51,-369,-294,-272,-61,-127
-43,-153,-70,67,19,-100,51,-369,-294,-272,-61,-127
-43,-153,-70,67,19,-100,51,-369,-294,-272,-61,-127
-43,-153,-70,67,19,-100,51,-375,-294,-272,-61,-127
-43,-153,-70,67,19,-100,51,-375,-294,-272,-61,-127
-43,-153,-70,67,19,-100,51,-375,-294,-278,-61,-127
-43,-153,-70,67,19,-100,51,-375,-294,-278,-61,-127
-43,-153,-70,67,19,-100,51,-375,-294,-278,-61,-127
-43,-153,-70,67,19,-100,45,-375,-294,-278,-61,-127
-43,-153,-70,67,19,-100,45,-375,-294,-278,-67,-127
-49,-153,-70,67,19,-106,45,-375,-294,-278,-67,-127
-49,-153,-70,67,19,-106,45,-375,-294,-278,-67,-127
-49,-153,-70,67,19,-106,45,-375,-294,-278,-67,-127
-49,-159,-70,67,19,-106,45,-375,-294,-278,-67,-127
-49,-159,-76,67,19,-106,45,-375,-294,-278,-67,-127
-49,-159,-76,67,19,-106,45,-375,-294,-278,-67,-127
-49,-159,-76,67,19,-106,45,-375,-294,-278,-67,-127
-49,-159,-76,73,19,-106,45,-375,-294,-278,-67,-127
-49,-159,-76,73,19,-112,45,-375,-294,-278,-67,-127
-49,-159,-76,73,19,-112,45,-375,-294,-278,-67,-127
-49,-159,-76,73,19,-112,45,-375,-294,-278,-73,-127
-55,-159,-76,73,19,-112,45,-375,-294,-278,-73,-127
-61,-159,-76,73,19,-112,45,-375,-294,-278,-73,-127
-61,-159,-76,73,19,-112,45,-375,-294,-278,-73,-127
-61,-165,-82,73,19,-118,45,-375,-294,-278,-73,-127
-61,-165,-82,73,19,-118,45,-375,-294,-278,-73,-127
-61,-165,-82,73,19,-118,45,-375,-294,-278,-73,-127
-61,-165,-82,73,19,-118,45,-375,-294,-278,-73,-127
-61,-165,-88,73,19,-118,45,-375,-294,-278,-73,-127
-61,-165,-88,73,19,-118,39,-375,-294,-278,-73,-127
-61,-165,-88,73,19,-118,39,-375,-294,-284,-73,-127
-61,-165,-88,73,19,-118,39,-375,-294,-284,-73,-127
-61,-165,-88,73,19,-118,39,-375,-294,-284,-73,-127
-61,-165,-88,73,19,-118,39,-375,-294,-284,-73,-127
-61,-165,-88,73,19,-118,39,-375,-294,-284,-73,-127
-61,-165,-88,73,19,-118,39,-375,-294,-284,-73,-127
-61,-165,-88,73,19,-118,39,-375,-294,-284,-73,-127
-61,-165,-88,73,19,-118,39,-375,-294,-284,-73,-127
-61,-165,-88,73,19,-118,39,-375,-294,-284,-73,-127
-61,-165,-88,79,19,-118,39,-375,-294,-284,-73,-127
-61,-165,-88,79,19,-118,39,-375,-294,-284,-73,-127
-61,-165,-88,79,19,-118,39,-375,-294,-284,-73,-127
-61,-165,-88,79,19,-118,39,-375,-294,-284,-73,-127
-61,-165,-94,79,19,-118,39,-375,-294,-284,-73,-127
-61,-165,-94,79,19,-118,39,-375,-294,-284,-73,-127
-61,-165,-94,79,25,-118,39,-375,-294,-284,-73,-127
-61,-165,-94,79,25,-118,39,-375,-294,-284,-73,-127
-61,-165,-94,79,25,-118,39,-375,-294,-284,-73,-127
-61,-165,-94,79,25,-118,33,-375,-294,-284,-73,-127
-61,-165,-94,79,25,-118,33,-375,-294,-284,-73,-127
-61,-165,-94,79,25,-118,33,-375,-294,-284,-73,-127
-61,-165,-94,79,25,-118,33,-375,-294,-284,-73,-127
-61,-165,-94,79,25,-118,33,-375,-294,-284,-73,-127
-61,-165,-94,79,25,-118,33,-375,-294,-284,-73,-127
-61,-165,-94,79,25,-118,33,-375,-294,-284,-73,-127
-61,-165,-94,79,25,-118,33,-375,-294,-284,-73,-127
-61,-165,-94,79,25,-118,27,-375,-294,-284,-73,-127
-61,-165,-94,79,25,-118,27,-375,-294,-284,-73,-127
-61,-165,-94,79,25,-118,27,-375,-294,-284,-73,-127
-61,-165,-94,79,25,-118,27,-375,-294,-284,-73,-127
-61,-165,-94,79,25,-118,27,-375,-294,-284,-73,-127
-61,-165,-94,79,25,-118,27,-375,-294,-284,-73,-127
-61,-165,-94,79,25,-118,27,-375,-294,-284,-73,-127
-61,-165,-94,79,25,-118,27,-375,-294,-284,-73,-127
-61,-165,-94,79,25,-118,27,-375,-294,-284,-73,-127
-61,-165,-94,79,25,-118,27,-375,-288,-284,-73,-127
-61,-165,-94,79,25,-118,27,-375,-288,-284,-73,-127
-61,-165,-94,79,25,-118,27,-375,-288,-284,-73,-127
-61,-165,-94,79,25,-118,27,-375,-288,-284,-73,-127
-61,-165,-100,79,25,-118,27,-375,-288,-284,-73,-127
-61,-165,-100,79,25,-118,27,-375,-282,-284,-73,-127
-61,-165,-100,79,25,-118,27,-375,-282,-284,-73,-127
-61,-165,-100,79,25,-118,27,-375,-282,-284,-73,-127
-61,-165,-100,79,25,-118,27,-375,-282,-284,-73,-127
-61,-159,-100,79,25,-118,27,-375,-282,-284,-73,-127
-61,-159,-100,79,25,-118,27,-375,-282,-284,-73,-127
-61,-159,-100,79,25,-118,27,-375,-282,-284,-73,-127
-61,-159,-100,79,25,-118,27,-375,-282,-284,-73,-127
-61,-159,-100,79,25,-118,27,-375,-282,-284,-73,-127
-61,-159,-100,79,25,-118,27,-375,-282,-284,-73,-127
-61,-159,-100,79,25,-118,27,-375,-282,-284,-73,-127
-61,-159,-100,79,25,-118,27,-375,-282,-284,-73,-127
-61,-159,-106,79,25,-118,27,-375,-282,-284,-73,-127
-61,-159,-106,79,25,-124,27,-375,-282,-284,-73,-127
-61,-159,-106,79,25,-124,27,-375,-282,-284,-73,-127
-61,-159,-106,79,25,-124,27,-375,-282,-284,-73,-127
-61,-159,-106,79,25,-124,27,-375,-276,-284,-73,-127
-61,-159,-106,79,25,-124,27,-375,-276,-284,-73,-127
-67,-159,-106,79,25,-124,27,-375,-276,-284,-73,-127
-67,-159,-106,79,25,-124,27,-375,-276,-284,-73,-127
-67,-159,-106,79,25,-124,27,-375,-276,-284,-73,-127
-67,-159,-106,79,25,-124,27,-375,-276,-284,-73,-127
-67,-159,-106,79,25,-124,27,-375,-276,-284,-73,-127
-67,-159,-106,79,25,-124,27,-375,-276,-284,-73,-127
-67,-159,-106,79,25,-124,27,-375,-276,-284,-73,-127
-67,-159,-112,79,25,-124,27,-375,-276,-284,-73,-127
-67,-159,-112,79,25,-124,27,-375,-276,-284,-73,-127
-67,-159,-112,79,25,-124,27,-375,-276,-284,-73,-127
-67,-159,-112,79,25,-124,27,-375,-276,-284,-73,-127
-67,-159,-112,79,25,-124,27,-375,-276,-284,-73,-127
-67,-159,-112,79,25,-124,27,-375,-276,-284,-73,-127
-67,-159,-112,79,25,-124,27,-375,-276,-284,-73,-127
-67,-159,-112,79,25,-124,27,-375,-276,-284,-73,-127
-67,-159,-112,79,25,-124,27,-375,-276,-284,-73,-127
-67,-159,-112,79,25,-124,27,-375,-276,-284,-73,-127
-67,-159,-112,79,25,-124,27,-375,-276,-284,-73,-127
-67,-159,-112,79,25,-124,27,-375,-276,-284,-73,-127
-67,-159,-112,79,25,-124,27,-375,-276,-284,-73,-133
-67,-159,-112,79,25,-124,27,-375,-276,-284,-73,-133
-67,-159,-112,79,25,-124,27,-375,-276,-284,-73,-133
-67,-159,-112,79,25,-124,27,-375,-276,-284,-73,-133
-67,-159,-112,79,25,-124,27,-375,-270,-284,-73,-133
-67,-159,-112,79,25,-124,27,-375,-270,-284,-73,-133
-67,-159,-112,79,25,-124,27,-375,-270,-284,-73,-133
-67,-159,-112,79,25,-124,27,-375,-270,-284,-73,-133
-67,-159,-112,79,25,-124,27,-375,-270,-284,-73,-133
-67,-159,-112,79,25,-124,27,-375,-270,-284,-73,-133
-67,-159,-112,79,25,-124,27,-375,-270,-284,-73,-133
-67,-159,-112,79,25,-124,27,-375,-270,-284,-73,-133
-67,-159,-118,79,25,-124,27,-375,-270,-284,-73,-133
-67,-159,-118,79,25,-124,27,-375,-270,-284,-73,-133
-67,-159,-118,79,25,-124,27,-375,-270,-284,-73,-133
-67,-159,-124,79,31,-130,27,-375,-270,-284,-73,-133
-67,-159,-124,79,31,-130,27,-375,-270,-284,-73,-133
-67,-159,-124,79,31,-130,27,-375,-270,-284,-73,-133
-67,-159,-124,79,31,-130,27,-369,-270,-284,-73,-133
-67,-159,-124,79,31,-130,27,-369,-270,-284,-73,-133
-67,-159,-124,79,31,-130,27,-369,-270,-284,-73,-133
-67,-159,-124,79,31,-130,27,-369,-270,-284,-73,-133
-67,-159,-124,79,31,-130,27,-369,-270,-284,-73,-139
-67,-159,-124,79,31,-130,27,-369,-270,-284,-73,-139
-67,-159,-130,79,31,-130,27,-369,-270,-284,-73,-145
-67,-159,-130,79,31,-130,27,-369,-264,-284,-73,-145
-67,-159,-130,79,31,-136,27,-369,-264,-284,-73,-145
-67,-159,-130,79,31,-136,27,-369,-264,-284,-73,-145
-67,-159,-130,79,31,-136,27,-369,-264,-284,-73,-145
-67,-159,-130,79,31,-136,27,-369,-264,-284,-73,-145
-67,-159,-130,79,37,-136,27,-363,-264,-284,-73,-145
-67,-159,-130,79,37,-136,21,-363,-264,-284,-73,-145
-67,-159,-130,79,37,-136,21,-357,-264,-284,-73,-145
-67,-159,-130,79,37,-136,21,-357,-264,-284,-73,-145
-67,-159,-130,79,37,-136,21,-357,-264,-284,-73,-145
-67,-159,-130,79,37,-136,21,-357,-264,-284,-73,-145
-67,-159,-130,79,37,-136,21,-357,-264,-284,-73,-145
-67,-159,-130,79,37,-136,21,-357,-264,-284,-73,-151
-67,-159,-130,79,37,-136,21,-357,-258,-284,-73,-157
-67,-159,-130,79,37,-136,21,-357,-258,-284,-73,-157
-67,-159,-130,79,37,-136,21,-357,-258,-284,-73,-157
-67,-159,-130,79,37,-136,21,-351,-258,-284,-73,-157
-67,-159,-130,79,37,-136,21,-351,-252,-284,-73,-157
-67,-159,-136,79,37,-136,21,-351,-252,-284,-73,-157
-67,-159,-136,79,37,-136,21,-351,-252,-284,-73,-157
-67,-159,-136,79,43,-136,21,-351,-252,-284,-73,-157
-67,-159,-136,79,43,-136,21,-345,-252,-284,-73,-157
-67,-159,-136,79,43,-136,21,-345,-252,-284,-73,-157
-67,-159,-136,79,43,-142,21,-345,-252,-284,-73,-163
-67,-159,-136,79,43,-142,21,-345,-252,-284,-73,-163
-67,-159,-136,79,43,-142,21,-345,-246,-284,-73,-163
-67,-159,-136,79,43,-142,21,-339,-246,-284,-73,-163
-67,-159,-136,79,43,-142,21,-339,-246,-284,-73,-163
-67,-159,-142,79,43,-148,21,-339,-246,-284,-73,-163
-67,-159,-142,79,43,-148,21,-339,-246,-284,-73,-163
-67,-159,-142,79,43,-148,21,-333,-246,-284,-73,-163
-67,-159,-142,79,43,-148,21,-333,-246,-284,-73,-163
-67,-159,-142,79,43,-154,21,-333,-246,-284,-73,-163
-67,-159,-142,79,43,-154,21,-333,-246,-284,-73,-163
-67,-159,-142,79,43,-154,21,-333,-246,-284,-73,-163
-67,-159,-142,79,43,-154,21,-333,-246,-284,-73,-163
-67,-159,-142,79,43,-154,21,-333,-246,-284,-73,-163
-67,-159,-142,79,43,-154,21,-333,-240,-284,-73,-163
-67,-159,-142,79,43,-154,21,-333,-240,-284,-73,-169
-67,-159,-142,79,43,-154,21,-333,-240,-284,-73,-169
-67,-159,-142,79,49,-154,21,-333,-240,-284,-73,-169
-67,-159,-142,79,49,-154,21,-327,-240,-284,-73,-169
-67,-159,-142,79,49,-154,21,-327,-240,-284,-73,-169
-67,-159,-142,79,49,-154,21,-327,-240,-284,-73,-169
-67,-159,-142,79,49,-154,21,-327,-240,-284,-73,-169
-67,-159,-142,79,49,-160,21,-327,-240,-284,-73,-169
-67,-159,-148,79,49,-160,21,-327,-240,-284,-73,-169
-67,-159,-148,79,49,-160,21,-327,-240,-284,-73,-169
-67,-159,-148,79,49,-160,21,-327,-234,-284,-73,-169
-67,-159,-148,79,49,-160,21,-327,-234,-284,-73,-169
-67,-159,-148,79,49,-160,21,-321,-234,-284,-73,-169
-67,-159,-154,79,55,-160,21,-321,-234,-284,-73,-169
-67,-159,-154,79,55,-160,21,-321,-234,-284,-73,-169
-67,-159,-154,85,55,-160,21,-315,-228,-284,-73,-169
-67,-159,-154,85,55,-160,21,-315,-228,-284,-73,-169
-67,-159,-154,85,55,-160,21,-315,-228,-284,-73,-169
-67,-159,-154,85,55,-160,21,-315,-228,-284,-73,-169
-67,-159,-154,85,55,-160,21,-315,-228,-284,-73,-169
-67,-159,-154,85,55,-160,21,-309,-228,-284,-73,-169
-67,-159,-154,85,55,-160,21,-309,-228,-284,-73,-169
-67,-159,-154,85,55,-160,21,-303,-228,-284,-73,-169
-67,-159,-154,91,55,-160,21,-303,-222,-284,-73,-169
-67,-159,-154,91,55,-160,21,-303,-222,-284,-73,-169
-67,-159,-154,91,55,-160,21,-297,-216,-284,-73,-169
-67,-159,-154,91,55,-160,21,-297,-216,-284,-73,-169
-67,-159,-154,91,55,-160,21,-297,-216,-284,-73,-169
-67,-159,-154,91,55,-160,21,-297,-216,-284,-73,-169
-67,-159,-154,91,55,-160,21,-297,-210,-284,-73,-169
-67,-159,-154,91,55,-160,21,-297,-210,-284,-73,-169
-67,-159,-154,91,55,-160,21,-297,-210,-284,-73,-169
-67,-159,-154,91,55,-160,21,-297,-210,-284,-73,-169
-67,-159,-154,91,55,-160,21,-297,-210,-284,-73,-169
-67,-153,-154,91,55,-160,21,-291,-210,-278,-73,-169
-67,-147,-154,91,55,-160,21,-291,-210,-278,-73,-169
-67,-147,-154,91,55,-160,21,-285,-204,-278,-67,-169
-67,-147,-154,91,55,-160,21,-279,-198,-272,-67,-169
-67,-141,-148,91,55,-160,21,-273,-192,-266,-61,-169
-67,-141,-142,91,55,-160,21,-267,-186,-260,-55,-169
-67,-135,-142,91,55,-154,27,-261,-180,-260,-49,-169
-67,-123,-136,91,55,-148,39,-255,-168,-254,-43,-163
-67,-111,-124,85,55,-136,51,-249,-162,-248,-37,-163
-67,-99,-118,79,49,-124,57,-243,-156,-242,-37,-157
-67,-93,-112,73,49,-118,63,-237,-150,-236,-37,-157
-67,-87,-106,73,49,-112,69,-231,-144,-230,-31,-157
-67,-81,-100,73,49,-106,69,-225,-138,-224,-25,-151
-67,-75,-100,73,43,-106,69,-219,-132,-218,-19,-145
-67,-69,-94,67,43,-100,69,-213,-126,-212,-13,-145
-67,-63,-88,61,43,-100,69,-207,-120,-206,-13,-145
-67,-57,-82,55,43,-94,69,-207,-114,-206,-13,-145
-67,-45,-82,49,43,-82,69,-201,-114,-200,-7,-139
-67,-39,-76,43,43,-76,69,-195,-108,-194,-7,-133
-67,-33,-70,37,43,-70,69,-195,-108,-188,-1,-133
-61,-27,-64,31,43,-64,69,-195,-108,-188,5,-133
-61,-21,-64,25,43,-58,57,-195,-108,-188,5,-127
-55,-15,-64,19,43,-58,33,-195,-108,-188,5,-127
-55,-9,-64,19,43,-58,15,-201,-108,-188,11,-121
-49,-3,-64,13,43,-52,-9,-201,-108,-182,16,-115
-43,-3,-64,7,43,-52,-21,-201,-108,-176,22,-109
-37,-3,-64,7,43,-52,-32,-207,-108,-170,22,-109
-37,-3,-64,1,43,-52,-38,-207,-108,-170,22,-109
-37,2,-64,1,43,-52,-44,-207,-108,-170,22,-109
-37,8,-64,1,43,-46,-44,-207,-108,-164,22,-109
-37,14,-64,-4,43,-40,-50,-207,-108,-158,22,-109
-37,20,-58,-10,43,-34,-50,-207,-108,-158,22,-103
-37,20,-52,-10,43,-34,-50,-207,-114,-152,22,-103
-37,20,-52,-10,43,-34,-50,-207,-114,-152,22,-103
-37,20,-52,-10,43,-34,-50,-207,-114,-146,22,-97
-37,14,-58,-10,43,-34,-50,-207,-114,-146,28,-97
-37,8,-64,-10,43,-40,-50,-207,-114,-146,28,-97
-37,2,-70,-10,43,-46,-50,-207,-114,-146,28,-97
-37,-9,-82,-4,49,-58,-50,-201,-114,-146,28,-97
-37,-21,-94,1,55,-70,-44,-195,-108,-146,28,-97
-37,-39,-118,13,61,-88,-32,-183,-102,-146,28,-97
-37,-63,-130,25,67,-112,-21,-177,-102,-146,28,-97
-37,-87,-142,37,67,-124,-9,-165,-102,-146,22,-103
-37,-111,-154,55,73,-142,3,-153,-102,-146,16,-115
-37,-129,-166,67,79,-160,15,-141,-96,-146,11,-127
-43,-141,-178,73,85,-172,27,-129,-90,-146,11,-133
-43,-153,-196,79,91,-184,39,-99,-78,-146,11,-139
-43,-159,-208,79,97,-196,51,-69,-72,-146,11,-139
-43,-165,-226,85,109,-208,63,-39,-66,-146,11,-139
-43,-171,-238,85,115,-220,69,-9,-54,-140,11,-145
-43,-177,-244,85,121,-226,81,26,-42,-134,11,-145
-43,-183,-250,85,127,-232,87,56,-30,-134,11,-145
-37,-183,-256,85,133,-232,87,86,-6,-128,11,-145
-31,-183,-262,85,139,-232,81,116,12,-122,11,-145
-25,-183,-268,85,145,-232,75,146,35,-110,11,-145
-19,-183,-274,85,151,-232,63,176,47,-104,11,-145
-13,-183,-274,79,151,-232,21,200,59,-98,11,-145
-2,-183,-280,79,157,-232,-44,206,65,-92,11,-145
10,-183,-286,73,169,-238,-140,218,71,-86,11,-145
22,-183,-298,67,181,-238,-236,224,83,-74,16,-145
34,-183,-304,55,187,-244,-302,236,101,-62,22,-145
46,-171,-304,43,193,-244,-332,254,119,-50,28,-139
52,-135,-298,25,193,-232,-338,284,155,-20,40,-133
58,-93,-274,7,193,-190,-338,338,197,21,70,-121
64,-45,-238,-16,187,-148,-344,368,239,63,100,-103
70,2,-202,-46,181,-106,-380,368,275,105,136,-73
82,44,-166,-76,175,-76,-452,368,311,147,172,-37
112,92,-136,-112,169,-34,-548,368,359,219,226,4
130,140,-118,-148,169,-5,-638,356,395,273,280,46
160,170,-112,-178,169,13,-740,290,407,315,322,88
202,182,-112,-208,175,19,-854,212,413,357,364,118
244,188,-148,-226,217,13,-950,182,431,417,418,154
310,188,-220,-244,277,-5,-1034,176,473,483,490,202
382,194,-274,-280,349,-22,-1106,182,551,591,580,256
454,206,-316,-322,397,-34,-1184,182,611,705,688,346
526,242,-334,-388,439,-34,-1316,104,629,813,820,466
610,314,-346,-472,493,-34,-1472,-129,629,957,1012,634
724,422,-352,-592,547,-10,-1670,-357,629,1167,1252,880
868,590,-352,-742,619,67,-1892,-549,665,1479,1570,1186
1006,788,-346,-916,661,199,-2096,-723,779,1875,1978,1534
1144,1010,-286,-1084,685,349,-2282,-903,899,2264,2427,1912
1258,1244,-172,-1252,697,529,-2467,-1089,1025,2695,2900,2295
1354,1472,-34,-1420,697,709,-2659,-1233,1193,3133,3362,2684
1426,1676,103,-1558,691,883,-2803,-1347,1361,3529,3764,3014
1444,1838,259,-1642,667,1045,-2875,-1449,1475,3853,4088,3254
1444,1922,391,-1678,583,1147,-2881,-1545,1517,4045,4286,3410
1420,1940,457,-1678,511,1189,-2851,-1599,1541,4153,4376,3452
1324,1934,487,-1642,445,1195,-2683,-1605,1553,4219,4394,3452
1180,1808,499,-1498,373,1177,-2426,-1533,1595,4249,4382,3350
1006,1580,493,-1306,319,1039,-2096,-1299,1643,4243,4196,3116
868,1280,367,-1084,301,817,-1754,-1035,1643,3973,3818,2774
736,974,199,-856,301,577,-1436,-807,1553,3439,3272,2343
610,704,61,-658,301,367,-1160,-639,1295,2755,2576,1864
478,476,-34,-490,295,211,-914,-519,1007,2025,1846,1360
352,296,-88,-340,271,97,-710,-453,677,1257,1120,886
244,176,-112,-220,235,31,-542,-435,317,573,532,508
178,110,-130,-154,205,-10,-440,-423,113,225,250,316
142,62,-142,-112,193,-46,-362,-387,83,189,184,244
112,32,-154,-76,181,-70,-290,-333,83,189,166,202
82,2,-160,-46,169,-82,-230,-267,89,189,154,160
70,-21,-160,-28,157,-94,-176,-219,101,189,136,130
46,-39,-160,-16,145,-106,-128,-165,113,189,106,100
28,-69,-166,1,139,-124,-86,-123,125,183,76,70
16,-93,-172,19,133,-148,-44,-81,131,171,34,34
4,-111,-184,43,127,-160,-15,-51,131,141,-7,4
-7,-129,-196,67,127,-172,27,-21,131,111,-49,-25
-13,-141,-202,79,127,-184,51,-9,125,69,-91,-55
-25,-153,-208,85,127,-190,75,8,113,27,-133,-85
-37,-165,-214,97,121,-202,99,20,101,-2,-163,-115
-49,-183,-214,109,115,-214,111,38,89,-38,-193,-139
-61,-201,-220,121,109,-226,129,62,77,-62,-223,-157
-67,-213,-220,127,109,-232,141,74,71,-80,-241,-169
-79,-225,-220,139,109,-238,153,86,65,-98,-265,-175
-85,-231,-220,145,103,-238,165,92,53,-110,-277,-181
-91,-237,-226,151,103,-244,177,98,41,-128,-289,-187
-91,-243,-226,157,103,-244,189,104,35,-140,-307,-193
-91,-243,-226,163,103,-244,195,110,29,-152,-319,-199
-97,-249,-226,163,103,-250,207,116,29,-158,-331,-205
-97,-249,-226,163,103,-250,213,122,29,-164,-343,-211
-103,-255,-232,169,103,-256,219,128,23,-170,-349,-217
-109,-261,-232,175,103,-256,225,134,23,-176,-355,-223
-109,-261,-232,175,97,-256,231,146,23,-182,-361,-229
-109,-267,-232,175,97,-256,237,152,23,-188,-367,-235
-115,-267,-232,181,97,-256,243,158,23,-194,-367,-241
-115,-267,-232,181,97,-262,249,164,23,-200,-367,-247
-115,-267,-232,181,97,-262,255,170,23,-200,-367,-253
-121,-267,-232,181,91,-262,261,176,23,-200,-367,-253
-121,-273,-232,181,91,-268,267,182,23,-200,-373,-259
-121,-273,-238,181,91,-268,273,188,23,-200,-373,-259
-121,-273,-238,187,91,-268,279,194,23,-200,-373,-259
-121,-273,-238,187,91,-268,285,200,23,-200,-373,-265
-121,-279,-238,187,91,-274,285,206,23,-200,-379,-265
-121,-285,-238,187,91,-274,285,212,23,-200,-379,-271
-121,-285,-238,187,91,-274,285,224,29,-194,-379,-271
-121,-285,-238,187,91,-274,291,230,35,-194,-379,-271
-121,-285,-238,187,91,-274,291,242,41,-188,-379,-271
-127,-285,-238,187,91,-274,291,248,47,-188,-379,-271
-127,-285,-238,193,91,-274,297,254,47,-188,-379,-271
-133,-285,-238,193,91,-274,303,260,53,-188,-379,-271
-133,-285,-238,193,91,-274,309,266,53,-182,-379,-271
-133,-285,-238,193,91,-274,315,278,59,-182,-379,-271
-133,-285,-238,193,91,-274,321,290,65,-176,-379,-271
-133,-285,-238,193,85,-274,327,302,71,-170,-379,-271
-133,-285,-238,193,85,-274,327,314,83,-164,-379,-271
-133,-285,-238,193,85,-274,333,326,89,-158,-379,-271
-133,-285,-238,193,85,-274,339,338,95,-152,-379,-271
-133,-285,-238,193,85,-274,345,350,107,-146,-379,-271
-133,-285,-238,193,85,-274,351,356,113,-140,-379,-271
-133,-285,-238,193,85,-274,357,362,119,-140,-379,-271
-133,-285,-238,193,85,-274,357,374,125,-134,-379,-271
-133,-285,-238,193,85,-274,363,386,137,-128,-379,-271
-133,-285,-238,193,85,-274,363,398,149,-122,-379,-271
-133,-285,-238,193,85,-274,369,410,161,-116,-373,-271
-133,-285,-238,193,85,-274,369,422,173,-110,-367,-271
-133,-285,-238,193,85,-274,375,434,185,-104,-361,-271
-133,-285,-238,193,85,-274,387,446,191,-104,-355,-271
-133,-285,-238,193,85,-274,393,458,197,-104,-355,-271
-133,-279,-238,193,85,-274,399,470,203,-98,-355,-271
-133,-279,-238,193,85,-274,399,476,215,-98,-355,-271
-133,-279,-232,193,85,-274,405,488,221,-92,-355,-271
-133,-279,-232,193,85,-274,405,500,233,-86,-349,-271
-133,-279,-232,193,85,-268,411,512,245,-80,-343,-271
-133,-273,-226,193,85,-262,417,524,251,-74,-337,-271
-133,-273,-226,193,85,-262,423,536,257,-68,-337,-265
-133,-273,-220,193,85,-256,435,548,263,-62,-337,-265
-133,-273,-220,193,79,-256,441,560,269,-56,-331,-265
-133,-267,-220,193,73,-256,447,566,275,-56,-331,-265
-133,-267,-220,193,73,-256,453,578,281,-50,-325,-265
-133,-267,-214,193,73,-250,459,590,293,-44,-319,-265
-133,-261,-214,193,73,-250,459,602,305,-38,-319,-265
-133,-255,-208,187,73,-244,465,614,311,-32,-319,-265
-133,-249,-202,181,73,-244,471,626,317,-32,-319,-265
-133,-249,-202,181,67,-244,477,644,323,-26,-313,-265
-133,-249,-196,181,67,-238,483,656,329,-20,-307,-259
-133,-243,-196,175,67,-232,489,668,335,-14,-301,-259
-133,-237,-196,175,67,-226,495,680,347,-8,-295,-259
-133,-237,-196,175,67,-226,501,698,353,-8,-295,-259
-133,-231,-196,169,67,-226,507,716,359,-2,-295,-259
-133,-231,-196,169,67,-226,513,728,365,-2,-295,-253
-133,-225,-190,169,67,-220,519,740,371,4,-295,-253
-133,-219,-184,169,67,-214,525,752,377,10,-295,-253
-133,-219,-178,169,67,-208,537,764,383,10,-295,-253
-133,-219,-172,169,61,-202,549,776,389,15,-295,-253
-133,-219,-172,163,61,-202,555,788,395,15,-295,-247
-133,-213,-166,163,61,-202,561,800,401,15,-295,-247
-133,-207,-166,163,61,-202,567,812,413,15,-295,-247
-133,-201,-166,163,61,-202,573,824,425,15,-295,-247
-133,-195,-160,163,55,-196,579,836,431,15,-295,-247
-133,-189,-154,157,49,-190,585,848,437,21,-295,-247
-133,-189,-148,151,49,-184,591,860,443,21,-295,-247
-133,-189,-142,151,43,-178,597,872,449,27,-295,-247
-133,-183,-136,151,43,-172,603,884,455,33,-295,-247
-133,-183,-136,151,37,-172,609,896,455,33,-295,-247
-133,-183,-130,151,31,-166,615,908,455,39,-295,-247
-133,-177,-130,151,31,-166,621,914,455,39,-295,-247
-133,-171,-124,151,31,-166,627,920,455,39,-295,-247
-133,-171,-124,151,31,-166,627,926,455,39,-295,-247
-133,-171,-118,151,25,-166,627,932,455,39,-295,-247
-133,-171,-112,151,25,-160,627,938,455,39,-295,-247
-133,-165,-106,151,25,-154,633,944,455,39,-295,-247
-133,-159,-106,145,25,-148,639,950,455,39,-295,-247
-133,-159,-106,145,19,-142,645,956,455,39,-295,-247
-133,-153,-100,145,19,-136,645,962,455,39,-295,-247
-133,-147,-94,145,13,-136,645,962,455,33,-295,-247
-133,-141,-88,145,13,-136,645,968,455,27,-295,-247
-133,-135,-82,145,13,-130,645,968,455,21,-301,-247
-133,-129,-82,139,13,-124,645,968,455,15,-301,-247
-133,-129,-82,133,13,-124,645,968,455,10,-301,-247
-133,-129,-82,133,13,-124,645,968,449,4,-301,-247
-133,-129,-82,127,13,-118,645,968,443,-2,-307,-247
-133,-129,-76,127,13,-118,645,968,437,-8,-313,-247
-133,-123,-76,127,7,-118,645,968,425,-20,-319,-247
-133,-117,-76,127,7,-112,639,962,419,-26,-319,-247
-133,-111,-70,121,7,-106,627,950,413,-38,-319,-241
-133,-105,-64,121,7,-100,615,938,401,-44,-319,-241
-133,-105,-64,115,7,-100,603,926,389,-56,-319,-241
-133,-99,-64,109,7,-94,591,914,377,-62,-319,-241
-133,-93,-64,103,7,-88,579,902,365,-68,-319,-235
-133,-93,-58,103,7,-82,567,878,353,-80,-319,-229
-133,-93,-58,103,7,-82,549,848,341,-92,-325,-223
-133,-87,-58,103,7,-82,531,818,311,-110,-325,-217
-133,-81,-58,103,7,-82,501,794,299,-122,-325,-217
-133,-75,-58,97,7,-82,483,764,281,-128,-325,-217
