,,,,,,,,,,,
2019-09-05 10:37:02,,,,,,,,,,,
,,,,,,,,,,,
I,II,III,aVR,aVL,aVF,V1,V2,V3,V4,V5,V6
-29,261,296,-113,-166,279,-49,-206,-20,-3,111,22
-29,261,296,-113,-166,279,-49,-206,-20,-3,111,22
-29,261,296,-113,-166,279,-49,-206,-20,-3,111,22
-29,261,296,-113,-166,279,-49,-206,-20,-3,111,22
-23,243,272,-107,-148,255,-43,-188,-14,-9,99,10
-17,237,254,-101,-136,243,-37,-170,-14,-15,93,-2
-12,219,236,-95,-124,225,-31,-152,-8,-21,81,-14
-12,207,218,-95,-112,213,-25,-134,-8,-27,75,-20
-12,189,200,-83,-100,195,-13,-116,-3,-27,69,-25
-12,171,182,-77,-94,177,-1,-104,-3,-27,63,-31
-12,153,164,-65,-82,159,11,-86,-3,-27,57,-43
-12,135,146,-59,-76,141,16,-74,3,-27,51,-49
-12,123,134,-53,-70,129,16,-62,3,-33,39,-61
-12,111,122,-47,-64,117,22,-50,3,-39,33,-67
-12,99,110,-41,-58,105,28,-38,3,-45,21,-79
-12,87,98,-35,-52,93,34,-26,3,-51,15,-85
-12,75,92,-23,-52,81,40,-20,-3,-57,9,-97
-12,63,80,-17,-46,69,40,-14,-3,-63,3,-103
-17,51,74,-11,-46,63,46,-8,-3,-69,-3,-115
-17,39,62,-5,-40,51,46,-2,-3,-75,-9,-121
-23,27,56,6,-40,39,52,-8,-3,-81,-15,-127
-29,15,50,6,-40,33,52,-8,-3,-87,-21,-133
-35,3,44,6,-40,21,58,-14,-8,-93,-27,-139
-41,-3,38,18,-40,15,58,-14,-8,-99,-33,-145
-47,-3,38,24,-46,9,52,-14,-14,-105,-39,-157
-53,-8,38,30,-46,9,52,-14,-14,-105,-45,-163
-59,-14,38,36,-52,3,46,-14,-20,-105,-51,-175
-65,-20,38,42,-52,3,46,-14,-20,-105,-57,-181
-47,-14,26,30,-40,3,46,-8,-26,-105,-63,-181
-35,-14,14,24,-28,3,46,-8,-26,-110,-69,-181
-17,-8,8,12,-11,3,46,-2,-32,-116,-75,-181
-12,-8,3,6,-11,-2,46,-2,-32,-122,-75,-181
-12,-14,3,12,-11,-8,40,-8,-32,-122,-75,-187
-17,-20,3,18,-11,-8,40,-8,-32,-122,-75,-187
-23,-26,3,24,-11,-14,34,-14,-32,-122,-75,-193
-29,-32,3,30,-11,-14,34,-14,-32,-122,-75,-193
-35,-38,3,36,-16,-20,28,-20,-38,-128,-75,-199
-35,-38,3,36,-16,-20,28,-20,-44,-134,-75,-199
-41,-44,3,42,-16,-20,22,-26,-50,-140,-80,-205
-41,-44,3,42,-16,-20,22,-26,-56,-146,-80,-205
-41,-50,-3,42,-16,-26,22,-20,-50,-146,-80,-199
-41,-50,-3,42,-16,-26,22,-20,-50,-146,-80,-199
-41,-56,-9,48,-11,-32,22,-14,-44,-146,-80,-193
-41,-56,-9,48,-11,-32,22,-14,-44,-146,-80,-193
-47,-56,-3,48,-16,-32,16,-20,-44,-146,-80,-199
-47,-56,-3,48,-16,-32,16,-26,-44,-146,-80,-199
-53,-56,3,54,-22,-26,16,-32,-44,-146,-80,-205
-53,-56,3,54,-22,-26,11,-38,-44,-146,-80,-205
-47,-44,8,42,-22,-20,16,-38,-38,-146,-80,-205
-47,-38,8,42,-28,-14,16,-38,-38,-146,-80,-205
-41,-26,8,30,-28,-2,16,-38,-32,-146,-80,-205
-41,-20,14,30,-28,3,16,-38,-32,-146,-80,-205
-47,-26,14,36,-34,-2,16,-32,-32,-146,-75,-205
-47,-26,14,36,-34,-2,16,-32,-32,-146,-75,-205
-53,-32,14,42,-34,-2,22,-26,-32,-146,-75,-205
-53,-32,14,42,-34,-2,22,-26,-32,-146,-75,-205
-53,-26,20,36,-40,3,16,-20,-26,-140,-75,-199
-53,-26,20,36,-40,3,16,-20,-26,-140,-75,-199
-53,-20,26,36,-40,3,16,-14,-20,-134,-69,-193
-53,-20,26,36,-40,3,16,-14,-20,-134,-69,-193
-59,-20,32,36,-46,3,16,-14,-14,-128,-69,-187
-65,-20,38,42,-52,3,22,-14,-14,-128,-69,-187
-71,-20,44,42,-58,3,28,-14,-8,-122,-69,-181
-77,-20,50,48,-64,9,34,-14,-8,-122,-69,-181
-71,-14,50,42,-64,9,40,-14,-8,-122,-69,-175
-71,-8,56,36,-64,15,40,-14,-8,-122,-69,-175
-65,-3,56,30,-64,21,46,-14,-8,-122,-69,-169
-65,-3,62,30,-64,27,46,-14,-8,-122,-69,-169
-71,-3,62,36,-70,21,52,-8,-3,-122,-69,-175
-71,-3,62,36,-70,21,52,-2,-3,-122,-69,-175
-77,-8,62,42,-70,21,58,4,-3,-122,-69,-181
-77,-8,62,42,-70,21,58,10,-3,-122,-69,-181
-83,-3,74,42,-82,27,58,10,-3,-122,-69,-175
-83,-3,74,42,-82,27,58,10,-3,-122,-69,-175
-89,-3,86,42,-88,39,58,10,-8,-122,-69,-169
-89,-3,86,42,-88,39,58,10,-8,-122,-69,-169
-83,-3,86,36,-82,39,58,10,-3,-116,-63,-163
-83,-3,86,36,-82,39,58,10,-3,-116,-63,-163
-77,3,86,30,-82,45,58,10,-3,-110,-57,-157
-77,3,86,30,-82,45,58,10,-3,-110,-57,-157
-83,-3,86,36,-82,39,58,10,-3,-110,-57,-151
-89,-3,92,36,-88,45,58,10,-3,-110,-57,-151
-95,-3,92,42,-94,39,58,10,-8,-110,-57,-145
-101,-3,98,48,-100,45,58,10,-8,-110,-57,-145
-95,-3,98,42,-94,45,52,4,-14,-110,-57,-151
-95,-3,98,42,-94,45,52,4,-14,-110,-57,-151
-89,3,98,36,-94,51,46,-2,-20,-110,-57,-157
-89,3,98,36,-94,51,46,-2,-20,-110,-57,-157
-95,-3,98,42,-94,45,52,-2,-14,-110,-51,-151
-95,-3,92,42,-94,39,52,-2,-14,-110,-51,-145
-101,-3,92,48,-100,39,58,-2,-8,-110,-45,-139
-101,-8,86,54,-94,33,58,-2,-8,-110,-45,-133
-95,-3,92,42,-94,39,58,-8,-14,-116,-51,-139
-89,-3,92,36,-88,45,58,-8,-14,-116,-51,-139
-83,9,98,30,-88,51,58,-14,-20,-122,-57,-145
-77,15,98,24,-88,57,58,-14,-20,-122,-57,-145
-77,9,92,24,-82,51,58,-14,-20,-116,-57,-145
-77,9,92,24,-82,51,58,-14,-20,-116,-57,-145
-77,3,86,30,-82,45,58,-14,-20,-110,-57,-145
-77,3,86,30,-82,45,58,-14,-20,-110,-57,-145
-89,-3,86,42,-88,39,58,-20,-26,-116,-63,-145
-95,-3,86,48,-94,33,58,-20,-26,-122,-63,-145
-107,-14,86,60,-100,27,58,-26,-32,-128,-69,-145
-113,-20,86,66,-100,27,58,-26,-32,-134,-69,-145
-101,-14,80,54,-94,27,52,-26,-38,-134,-69,-145
-95,-8,80,48,-88,27,46,-26,-38,-134,-69,-145
-83,-3,74,42,-82,27,40,-26,-44,-134,-69,-145
-77,-3,74,36,-76,33,34,-26,-44,-134,-69,-145
-77,-3,68,36,-76,27,40,-26,-44,-128,-69,-151
-77,-3,68,36,-76,27,40,-26,-44,-128,-69,-151
-77,-8,62,42,-70,21,46,-26,-44,-122,-69,-157
-77,-8,62,42,-70,21,46,-26,-44,-122,-69,-157
-77,-8,62,42,-70,21,40,-32,-50,-128,-69,-157
-77,-8,62,42,-70,21,34,-32,-50,-128,-69,-157
-77,-8,62,42,-70,21,28,-38,-56,-134,-69,-157
-77,-8,62,42,-70,21,22,-38,-56,-134,-69,-157
-83,-3,74,42,-82,27,28,-38,-56,-134,-75,-157
-83,-3,74,42,-82,27,28,-38,-56,-134,-75,-157
-89,-3,86,42,-88,39,34,-38,-56,-134,-75,-157
-89,-3,86,42,-88,39,34,-38,-56,-134,-75,-157
-83,-3,74,42,-82,27,34,-38,-56,-134,-75,-157
-83,-3,74,42,-82,27,34,-38,-56,-134,-75,-157
-77,-8,62,42,-70,21,34,-38,-56,-134,-75,-157
-77,-8,62,42,-70,21,34,-38,-56,-134,-75,-157
-71,-3,62,36,-70,21,34,-44,-62,-128,-75,-157
-71,-3,62,36,-70,21,34,-44,-62,-128,-75,-157
-65,-3,62,30,-64,27,34,-50,-68,-122,-69,-157
-65,-3,62,30,-64,27,34,-50,-68,-122,-69,-157
-71,-3,62,36,-70,21,34,-50,-68,-128,-75,-163
-71,-8,56,36,-64,15,34,-50,-68,-134,-75,-163
-77,-14,56,42,-70,15,34,-50,-68,-140,-75,-169
-77,-20,50,48,-64,9,34,-50,-68,-146,-80,-169
-77,-20,50,48,-64,9,34,-50,-68,-146,-80,-169
-77,-20,50,48,-64,9,34,-50,-68,-146,-80,-169
-77,-20,50,48,-64,9,34,-50,-68,-146,-80,-169
-77,-20,50,48,-64,9,34,-50,-68,-146,-80,-169
-83,-26,50,54,-70,3,28,-50,-68,-140,-75,-169
-83,-26,50,54,-70,3,28,-50,-68,-140,-75,-169
-89,-32,50,60,-70,3,22,-50,-68,-134,-75,-169
-89,-32,50,60,-70,3,22,-50,-68,-134,-75,-169
-83,-26,50,54,-70,3,22,-44,-68,-134,-75,-163
-83,-20,56,48,-70,9,22,-44,-68,-134,-75,-163
-77,-14,56,42,-70,15,22,-38,-68,-134,-75,-157
-77,-8,62,42,-70,21,22,-38,-68,-134,-75,-157
-83,-14,62,48,-76,15,28,-38,-74,-140,-75,-163
-83,-14,62,48,-76,15,28,-38,-74,-140,-80,-163
-89,-20,62,54,-76,15,34,-38,-80,-146,-86,-169
-89,-20,62,54,-76,15,34,-38,-80,-146,-92,-169
-89,-26,56,54,-76,9,34,-44,-86,-140,-92,-169
-89,-32,50,60,-70,3,34,-44,-86,-140,-92,-169
-89,-38,44,60,-70,3,34,-50,-92,-134,-92,-169
-89,-44,38,66,-64,3,34,-50,-92,-134,-92,-169
-83,-38,38,60,-64,3,40,-44,-86,-128,-86,-163
-83,-32,44,54,-64,3,46,-38,-80,-128,-86,-163
-77,-26,44,48,-64,3,52,-32,-74,-122,-80,-157
-77,-20,50,48,-64,9,58,-26,-68,-122,-80,-157
-83,-20,56,48,-70,9,52,-32,-68,-122,-80,-157
-83,-20,56,48,-70,9,52,-32,-68,-122,-80,-157
-89,-20,62,54,-76,15,46,-38,-68,-122,-80,-157
-89,-20,62,54,-76,15,46,-38,-68,-122,-80,-157
-89,-20,62,54,-76,15,40,-44,-74,-128,-86,-163
-89,-20,62,54,-76,15,40,-44,-80,-128,-86,-163
-89,-20,62,54,-76,15,34,-50,-86,-134,-92,-169
-89,-20,62,54,-76,15,34,-50,-92,-134,-92,-169
-89,-26,56,54,-76,9,28,-50,-86,-134,-86,-169
-89,-26,56,54,-76,9,28,-50,-80,-134,-86,-169
-89,-32,50,60,-70,3,22,-50,-74,-134,-80,-169
-89,-32,50,60,-70,3,22,-50,-68,-134,-80,-169
-95,-38,50,66,-76,3,28,-44,-74,-134,-80,-163
-95,-38,50,66,-76,3,28,-44,-74,-134,-80,-163
-101,-44,50,72,-76,3,34,-38,-80,-134,-80,-157
-101,-44,50,72,-76,3,34,-38,-80,-134,-80,-157
-89,-32,50,60,-70,3,34,-38,-80,-134,-80,-157
-83,-26,50,54,-70,3,34,-38,-80,-134,-80,-157
-71,-14,50,42,-64,9,34,-38,-80,-134,-80,-157
-65,-8,50,36,-58,15,34,-38,-80,-134,-80,-157
-71,-8,56,36,-64,15,34,-32,-74,-134,-80,-163
-71,-8,56,36,-64,15,34,-32,-74,-134,-80,-163
-77,-8,62,42,-70,21,34,-26,-68,-134,-80,-169
-77,-8,62,42,-70,21,34,-26,-68,-134,-80,-169
-77,-14,56,42,-70,15,40,-26,-68,-128,-80,-169
-77,-14,56,42,-70,15,40,-26,-68,-128,-80,-169
-77,-20,50,48,-64,9,46,-26,-68,-122,-80,-169
-77,-20,50,48,-64,9,46,-26,-68,-122,-80,-169
-77,-14,56,42,-70,15,46,-32,-74,-122,-80,-169
-77,-14,56,42,-70,15,46,-32,-74,-122,-80,-169
-77,-8,62,42,-70,21,46,-38,-80,-122,-80,-169
-77,-8,62,42,-70,21,46,-38,-80,-122,-80,-169
-83,-20,56,48,-70,9,40,-32,-86,-128,-80,-169
-89,-26,56,54,-76,9,40,-32,-86,-128,-80,-169
-95,-38,50,66,-76,3,34,-26,-92,-134,-80,-169
-101,-44,50,72,-76,3,34,-26,-92,-134,-80,-169
-89,-38,44,60,-70,3,40,-32,-92,-134,-80,-169
-83,-32,44,54,-64,3,40,-32,-92,-134,-80,-169
-71,-26,38,48,-58,3,46,-38,-92,-134,-80,-169
-65,-20,38,42,-52,3,46,-38,-92,-134,-80,-169
-71,-26,38,48,-58,3,46,-38,-86,-128,-80,-169
-77,-32,38,54,-58,3,46,-38,-80,-128,-80,-169
-83,-38,38,60,-64,3,46,-38,-74,-122,-80,-169
-89,-44,38,66,-64,3,46,-38,-68,-122,-80,-169
-89,-44,38,66,-64,3,40,-44,-74,-122,-86,-169
-89,-44,38,66,-64,3,40,-44,-80,-122,-86,-169
-89,-44,38,66,-64,3,34,-50,-86,-122,-92,-169
-89,-44,38,66,-64,3,34,-50,-92,-122,-92,-169
-89,-38,44,60,-70,3,28,-50,-92,-128,-92,-169
-89,-38,44,60,-70,3,28,-50,-92,-128,-92,-169
-89,-32,50,60,-70,3,22,-50,-92,-134,-92,-169
-89,-32,50,60,-70,3,22,-50,-92,-134,-92,-169
-89,-32,50,60,-70,3,28,-44,-86,-128,-92,-163
-89,-32,50,60,-70,3,28,-44,-80,-128,-92,-163
-89,-32,50,60,-70,3,34,-38,-74,-122,-92,-157
-89,-32,50,60,-70,3,34,-38,-68,-122,-92,-157
-83,-32,44,54,-64,3,40,-38,-68,-122,-98,-157
-83,-32,44,54,-64,3,40,-38,-68,-122,-98,-157
-77,-32,38,54,-58,3,46,-38,-68,-122,-104,-157
-77,-32,38,54,-58,3,46,-38,-68,-122,-104,-157
-83,-38,38,60,-64,3,40,-38,-74,-122,-104,-151
-83,-38,38,60,-64,3,40,-38,-74,-122,-104,-151
-89,-44,38,66,-64,3,34,-38,-80,-122,-104,-145
-89,-44,38,66,-64,3,34,-38,-80,-122,-104,-145
-89,-38,44,60,-70,3,40,-38,-74,-122,-104,-151
-89,-32,50,60,-70,3,40,-38,-74,-122,-104,-151
-89,-26,56,54,-76,9,46,-38,-68,-122,-104,-157
-89,-20,62,54,-76,15,46,-38,-68,-122,-104,-157
-89,-20,62,54,-76,15,40,-38,-74,-128,-104,-163
-89,-20,62,54,-76,15,40,-38,-80,-128,-104,-163
-89,-20,62,54,-76,15,34,-38,-86,-134,-104,-169
-89,-20,62,54,-76,15,34,-38,-92,-128,-104,-169
-95,-26,62,60,-82,9,34,-38,-86,-128,-104,-169
-95,-20,68,54,-82,15,46,-38,-80,-122,-104,-157
-101,-26,68,60,-88,15,40,-32,-62,-110,-104,-157
-95,-20,68,54,-82,15,40,-26,-56,-110,-110,-157
-95,-20,68,54,-82,15,40,-26,-62,-116,-116,-157
-89,-8,74,48,-82,27,40,-26,-62,-110,-116,-157
-89,-14,68,48,-82,21,46,-20,-56,-116,-116,-157
-89,-20,62,54,-76,15,52,-26,-56,-116,-104,-157
-83,-14,62,48,-76,15,46,-20,-56,-116,-104,-157
-83,-14,62,48,-76,15,46,-14,-50,-110,-104,-151
-77,-20,50,48,-64,9,46,-14,-56,-116,-110,-151
-77,-20,50,48,-64,9,52,-14,-56,-116,-110,-151
-65,-8,50,36,-58,15,64,-8,-44,-105,-104,-145
-53,-3,50,24,-52,21,70,-8,-38,-105,-98,-139
-35,21,62,6,-46,39,82,10,-26,-81,-80,-121
-12,45,62,-11,-34,51,88,16,-14,-63,-75,-109
-17,51,74,-11,-46,63,94,22,-8,-75,-75,-109
-23,39,68,1,-46,51,94,27,-8,-87,-75,-115
-35,27,68,6,-52,45,88,27,-8,-99,-92,-121
-35,15,56,6,-46,33,88,27,-20,-105,-98,-127
-29,15,50,6,-40,33,94,27,-14,-99,-86,-121
-17,21,44,6,-28,33,82,27,-14,-93,-80,-115
-12,27,44,1,-28,33,82,27,-14,-87,-75,-109
-12,33,44,-5,-22,39,82,27,-14,-87,-75,-109
-12,39,56,-5,-34,45,76,27,-14,-81,-75,-109
-12,33,50,-5,-28,39,70,27,-8,-81,-75,-109
-23,33,62,1,-40,45,58,22,-8,-81,-75,-115
-23,33,62,1,-40,45,52,16,-8,-81,-75,-115
-23,51,80,-5,-52,63,46,-2,-26,-87,-75,-121
-23,45,74,-5,-46,57,40,-14,-38,-99,-75,-121
-29,27,62,6,-46,45,22,-38,-50,-105,-80,-127
-29,15,50,6,-40,33,16,-56,-62,-105,-75,-127
-29,15,50,6,-40,33,22,-56,-74,-105,-80,-133
-29,9,44,6,-34,27,22,-56,-80,-105,-80,-139
-35,9,50,6,-40,27,16,-56,-86,-105,-92,-145
-35,3,44,6,-40,21,16,-62,-98,-110,-104,-151
-35,-3,32,12,-34,9,22,-56,-92,-116,-104,-157
-29,-3,20,12,-28,3,28,-50,-86,-116,-104,-157
-17,-3,20,6,-16,9,40,-32,-80,-110,-104,-157
-23,-3,14,12,-22,3,40,-26,-74,-105,-98,-151
-35,-3,26,18,-34,3,34,-26,-68,-105,-98,-151
-35,-8,20,18,-28,3,40,-32,-68,-105,-98,-157
-47,-14,26,30,-40,3,34,-32,-74,-105,-110,-157
-53,-20,26,36,-40,3,34,-32,-74,-110,-116,-157
-59,-32,20,42,-40,-2,40,-38,-74,-110,-116,-157
-65,-32,26,48,-46,3,40,-44,-74,-116,-110,-157
-65,-32,26,48,-46,3,46,-50,-74,-110,-110,-157
-65,-26,32,42,-52,3,34,-56,-68,-116,-110,-163
-71,-26,38,48,-58,3,40,-56,-68,-116,-110,-169
-71,-26,38,48,-58,3,46,-50,-68,-116,-110,-169
-77,-26,44,48,-64,3,52,-38,-74,-116,-104,-175
-77,-20,50,48,-64,9,58,-32,-74,-116,-104,-175
-71,-20,44,42,-58,3,64,-38,-74,-122,-110,-175
-77,-26,44,48,-64,3,64,-38,-68,-116,-104,-175
-83,-32,44,54,-64,3,70,-32,-56,-110,-104,-169
-89,-38,44,60,-70,3,70,-26,-50,-105,-104,-157
-89,-38,44,60,-70,3,58,-32,-68,-105,-92,-151
-89,-50,32,66,-64,-2,52,-26,-62,-105,-80,-157
-83,-38,38,60,-64,3,58,-14,-50,-105,-80,-151
-53,-3,44,24,-52,15,58,-2,-32,-99,-75,-121
-47,-3,44,18,-46,15,58,16,-14,-75,-63,-109
-47,-3,44,18,-46,15,70,27,-3,-57,-51,-91
-29,15,50,6,-40,33,76,27,-3,-57,-51,-85
-23,21,50,6,-34,33,94,39,-3,-45,-27,-73
-29,-3,20,12,-28,3,94,45,3,-27,-15,-67
-12,-14,-9,6,-5,-8,100,57,15,-21,-15,-73
36,9,-21,-23,31,3,106,87,39,-3,3,-55
60,-3,-57,-29,61,-20,112,129,69,21,33,-37
54,-20,-81,-11,67,-50,112,135,69,21,33,-37
72,-26,-105,-17,85,-62,100,135,81,15,39,-31
102,-26,-135,-29,115,-80,88,153,99,33,51,-31
102,-38,-147,-23,121,-92,88,171,111,51,69,-20
102,-8,-117,-41,109,-62,94,177,117,75,81,-20
156,21,-129,-89,145,-44,94,195,135,81,105,4
210,51,-153,-131,181,-44,94,231,165,111,141,40
222,69,-147,-143,187,-32,88,237,189,135,165,70
234,69,-165,-155,205,-38,70,255,189,141,177,88
270,93,-177,-185,229,-32,58,255,195,165,201,118
312,111,-201,-215,253,-38,70,273,213,195,243,160
354,159,-195,-251,271,-8,46,273,225,213,279,196
414,207,-207,-305,307,3,16,255,219,231,303,250
456,237,-213,-347,331,9,-7,207,189,219,321,286
504,237,-261,-371,385,-2,-79,159,147,201,333,292
552,243,-303,-401,433,-20,-139,105,117,201,345,298
612,237,-369,-425,487,-56,-199,81,105,213,381,328
690,213,-477,-449,583,-128,-217,93,105,231,411,358
780,201,-579,-485,685,-188,-223,117,117,249,441,400
864,213,-651,-533,757,-218,-253,123,117,273,489,436
918,219,-699,-563,805,-236,-283,105,123,303,531,478
966,195,-771,-581,871,-284,-307,93,135,303,567,502
1020,141,-879,-581,955,-362,-319,141,153,327,597,514
1098,75,-1017,-587,1057,-470,-307,213,213,381,645,526
1170,9,-1155,-587,1165,-566,-307,285,267,417,687,502
1206,-68,-1281,-563,1243,-674,-301,381,339,453,711,460
1242,-170,-1419,-533,1327,-788,-253,519,423,519,747,418
1314,-242,-1563,-527,1441,-902,-175,717,561,627,825,406
1362,-332,-1695,-509,1525,-1010,-85,909,723,729,891,388
1374,-428,-1803,-473,1585,-1112,11,1095,855,849,951,376
1386,-494,-1887,-443,1633,-1190,94,1299,1011,993,1077,394
1422,-530,-1953,-443,1687,-1238,166,1449,1161,1155,1221,454
1428,-530,-1959,-443,1693,-1244,178,1485,1233,1281,1353,496
1392,-560,-1953,-413,1675,-1256,166,1413,1233,1347,1389,454
1308,-650,-1959,-323,1633,-1304,160,1311,1167,1251,1239,268
1206,-794,-2001,-203,1603,-1400,214,1245,1041,1017,903,-31
1086,-920,-2007,-77,1543,-1460,256,1155,855,663,477,-337
960,-932,-1899,-11,1429,-1412,226,957,609,333,135,-505
816,-884,-1701,24,1255,-1292,178,723,381,81,-75,-571
648,-866,-1515,102,1081,-1190,166,537,195,-105,-242,-625
480,-848,-1335,180,907,-1088,166,375,15,-290,-374,-661
342,-824,-1173,240,751,-992,94,171,-176,-446,-518,-703
192,-812,-1005,306,595,-908,40,4,-326,-584,-620,-739
30,-788,-825,372,427,-806,40,-110,-410,-656,-674,-739
-71,-692,-615,378,265,-656,58,-176,-422,-644,-638,-709
-149,-596,-447,372,145,-518,46,-194,-386,-578,-578,-637
-203,-524,-321,360,55,-428,52,-188,-344,-500,-512,-577
-191,-458,-261,318,31,-362,40,-188,-308,-458,-452,-517
-143,-368,-225,252,31,-296,28,-176,-284,-398,-404,-451
-143,-308,-165,228,1,-236,28,-152,-248,-338,-350,-391
-167,-284,-117,228,-22,-206,40,-134,-224,-302,-314,-355
-155,-254,-99,204,-22,-182,64,-98,-176,-266,-284,-325
-149,-218,-63,180,-40,-140,64,-68,-146,-230,-260,-295
-161,-188,-21,174,-64,-104,64,-44,-122,-212,-236,-289
-179,-170,8,174,-94,-80,64,-38,-116,-200,-230,-277
-167,-128,32,144,-100,-44,64,-32,-110,-200,-230,-271
-161,-92,62,126,-112,-8,58,-32,-116,-200,-224,-265
-161,-68,86,114,-124,3,58,-38,-116,-188,-212,-253
-167,-62,98,114,-136,9,52,-50,-122,-194,-206,-241
-179,-62,110,120,-148,15,46,-74,-122,-194,-188,-223
-179,-56,116,114,-148,21,52,-80,-116,-182,-176,-211
-179,-56,116,114,-148,21,58,-74,-110,-176,-176,-211
-173,-50,116,108,-148,27,64,-62,-104,-164,-176,-205
-167,-44,116,102,-142,27,70,-50,-98,-152,-176,-211
-161,-44,110,102,-136,27,64,-50,-92,-158,-170,-211
-155,-32,116,90,-136,33,64,-50,-92,-158,-170,-211
-155,-20,128,84,-142,45,52,-50,-92,-170,-164,-211
-155,-8,140,78,-148,57,52,-50,-92,-170,-164,-211
-161,-8,146,84,-154,63,40,-62,-104,-164,-164,-205
-167,-8,152,84,-160,63,40,-74,-104,-164,-164,-199
-179,-20,152,96,-166,57,40,-80,-110,-146,-158,-205
-185,-20,158,102,-172,63,40,-86,-110,-146,-158,-199
-179,-14,158,96,-172,63,40,-86,-110,-152,-164,-199
-173,-14,152,90,-166,63,46,-80,-110,-158,-170,-205
-167,-8,152,84,-160,63,52,-74,-110,-164,-176,-205
-161,-3,152,78,-160,69,52,-68,-110,-170,-176,-205
-161,-3,158,78,-160,75,34,-74,-116,-164,-176,-205
-161,-3,158,78,-160,75,34,-80,-116,-164,-182,-205
-161,-3,164,72,-160,81,34,-92,-122,-158,-182,-205
-161,-3,164,72,-160,81,34,-92,-122,-158,-188,-193
-167,-3,164,78,-166,75,34,-86,-122,-164,-188,-193
-167,-3,164,78,-166,75,28,-98,-128,-170,-188,-193
-167,-3,164,78,-166,75,28,-92,-128,-176,-182,-187
-173,-3,170,84,-172,81,28,-92,-128,-170,-176,-187
-173,-3,176,78,-172,87,34,-86,-128,-164,-170,-187
-173,3,182,78,-178,93,28,-86,-128,-158,-170,-187
-173,21,200,66,-184,111,34,-86,-128,-152,-164,-175
-185,21,212,72,-196,117,40,-86,-134,-158,-170,-175
-185,21,212,72,-196,117,28,-98,-140,-158,-164,-175
-179,33,218,66,-196,123,16,-104,-140,-158,-164,-169
-167,33,206,60,-184,117,16,-110,-158,-164,-158,-169
-179,33,218,66,-196,123,16,-110,-158,-164,-158,-163
-179,33,218,66,-196,123,16,-104,-152,-164,-158,-163
-179,33,218,66,-196,123,16,-104,-146,-158,-158,-163
-173,33,212,60,-190,123,16,-98,-140,-158,-152,-163
-167,51,224,48,-196,135,16,-92,-140,-158,-152,-163
-173,51,230,54,-202,141,16,-92,-146,-158,-152,-163
-173,57,236,48,-202,147,16,-92,-146,-158,-146,-163
-179,57,242,54,-208,147,16,-104,-152,-158,-146,-163
-179,57,242,54,-208,147,11,-104,-152,-158,-140,-163
-185,63,248,54,-220,159,-1,-110,-152,-158,-140,-157
-191,63,254,54,-226,159,-7,-116,-152,-158,-134,-157
-197,69,266,54,-232,171,-7,-128,-146,-158,-134,-157
-197,69,266,54,-232,171,-1,-134,-158,-158,-134,-157
-197,75,272,54,-238,177,-13,-140,-152,-158,-140,-151
-203,81,284,54,-244,183,-19,-152,-152,-158,-140,-145
-203,87,290,48,-250,189,-31,-152,-152,-158,-140,-139
-197,93,290,42,-244,195,-37,-158,-152,-152,-140,-139
-197,105,302,36,-250,207,-55,-164,-158,-158,-146,-151
-203,117,320,36,-256,219,-61,-164,-158,-152,-140,-151
-203,111,314,36,-256,213,-73,-164,-164,-152,-140,-139
-209,123,332,36,-268,231,-79,-176,-164,-152,-140,-133
-203,129,332,30,-262,231,-79,-176,-164,-158,-140,-133
-215,129,344,36,-274,237,-79,-182,-164,-158,-140,-133
-215,129,344,36,-274,237,-79,-188,-164,-158,-134,-127
-215,135,350,30,-280,243,-79,-194,-164,-158,-134,-121
-227,141,368,36,-292,249,-79,-200,-164,-146,-134,-115
-233,147,380,36,-304,261,-85,-212,-170,-146,-134,-109
-239,171,410,24,-322,285,-85,-206,-170,-152,-134,-97
-245,177,422,24,-328,297,-85,-212,-170,-152,-128,-91
-245,171,416,30,-328,291,-91,-218,-176,-152,-128,-85
-251,183,434,24,-340,303,-97,-230,-182,-158,-122,-85
-245,201,446,12,-340,321,-91,-248,-188,-158,-116,-85
-239,219,458,6,-346,333,-91,-260,-188,-158,-116,-79
-239,225,464,6,-346,339,-85,-260,-182,-152,-122,-79
-239,225,464,6,-346,339,-85,-260,-176,-146,-110,-73
-245,225,470,6,-352,345,-79,-260,-170,-146,-110,-67
-251,219,470,6,-358,339,-79,-260,-170,-140,-104,-67
-245,231,476,6,-358,351,-91,-260,-170,-122,-98,-61
-251,243,500,6,-376,375,-91,-266,-164,-122,-98,-55
-239,261,500,-5,-370,381,-97,-260,-164,-122,-98,-49
-239,279,518,-17,-376,399,-97,-266,-170,-128,-92,-43
-233,291,524,-23,-376,411,-103,-266,-164,-122,-80,-31
-233,309,542,-35,-388,429,-103,-272,-164,-110,-80,-25
-227,309,536,-35,-382,423,-103,-266,-152,-105,-75,-20
-215,309,524,-41,-370,417,-103,-266,-152,-105,-75,-14
-209,309,518,-47,-364,417,-109,-266,-158,-105,-69,-14
-209,321,530,-53,-370,429,-109,-266,-158,-105,-63,-14
-203,315,518,-53,-358,417,-115,-266,-164,-105,-69,-8
-197,315,512,-53,-352,417,-115,-266,-164,-105,-63,-14
-197,321,518,-59,-358,423,-115,-272,-158,-105,-69,-14
-191,321,512,-59,-352,417,-115,-266,-152,-105,-63,-14
-197,327,524,-59,-358,429,-115,-266,-152,-105,-63,-20
-197,327,524,-59,-358,429,-115,-260,-152,-105,-57,-14
-197,333,530,-65,-364,435,-115,-254,-146,-105,-51,-8
-191,327,518,-65,-352,423,-109,-248,-146,-105,-51,-2
-185,333,518,-71,-352,429,-103,-242,-134,-99,-45,10
-173,333,506,-77,-340,423,-97,-242,-128,-93,-39,16
-173,321,494,-71,-334,411,-91,-242,-128,-93,-45,10
-167,327,494,-77,-328,411,-91,-230,-122,-87,-45,-2
-149,321,476,-83,-310,399,-85,-224,-128,-93,-45,-8
-137,309,452,-83,-292,381,-79,-218,-128,-93,-51,-8
-131,309,446,-83,-286,375,-85,-218,-134,-99,-57,-14
-119,297,422,-83,-268,357,-73,-212,-128,-93,-57,-20
-113,297,416,-89,-262,357,-79,-206,-122,-93,-63,-20
-101,291,398,-89,-250,345,-79,-206,-128,-93,-63,-25
-95,285,386,-89,-244,333,-79,-194,-134,-105,-63,-25
-95,279,380,-89,-238,327,-73,-182,-134,-105,-63,-25
-95,261,362,-77,-232,309,-67,-182,-134,-110,-69,-25
-89,255,350,-77,-220,303,-49,-164,-128,-110,-69,-25
-77,249,332,-83,-208,291,-43,-158,-122,-116,-63,-25
-71,225,296,-71,-184,255,-43,-152,-122,-116,-69,-43
-59,219,278,-71,-172,243,-49,-152,-122,-122,-69,-43
-53,207,260,-71,-160,237,-49,-146,-122,-122,-75,-49
-47,201,248,-71,-148,225,-43,-128,-122,-116,-75,-49
-47,183,236,-59,-142,207,-31,-110,-116,-122,-75,-49
-35,183,224,-65,-130,201,-31,-104,-116,-110,-75,-49
-17,183,206,-77,-112,195,-13,-92,-104,-105,-69,-49
-12,177,194,-77,-100,183,-13,-74,-98,-110,-69,-61
-17,153,176,-59,-94,165,-13,-74,-98,-105,-75,-67
-12,153,170,-65,-88,159,-13,-68,-98,-110,-75,-73
-12,141,158,-59,-82,147,-7,-56,-98,-116,-75,-79
-17,123,146,-47,-82,135,-1,-38,-86,-110,-75,-85
-17,105,128,-35,-70,117,5,-32,-86,-116,-75,-91
-12,87,104,-29,-58,93,11,-14,-74,-110,-75,-103
-12,81,98,-29,-52,87,16,-2,-74,-110,-75,-109
-12,69,86,-23,-46,75,16,4,-68,-110,-80,-115
-12,57,74,-17,-40,63,16,10,-74,-116,-86,-115
-12,57,68,-17,-34,63,16,16,-68,-110,-86,-115
-12,63,68,-23,-34,69,16,16,-68,-110,-92,-115
-12,51,56,-17,-28,57,16,22,-56,-110,-80,-115
-12,45,56,-11,-28,51,16,27,-56,-105,-80,-121
-12,39,56,-5,-34,45,22,27,-44,-105,-75,-121
-12,33,50,-5,-28,39,28,27,-38,-105,-75,-121
-23,9,38,6,-28,21,34,27,-44,-105,-86,-127
-29,3,38,6,-34,21,28,27,-44,-110,-86,-127
-35,-3,38,12,-34,15,34,27,-56,-122,-98,-145
-47,-3,50,18,-46,21,40,27,-56,-128,-104,-145
-47,-3,50,18,-46,21,40,27,-56,-122,-98,-139
-47,-3,44,18,-46,15,34,27,-62,-116,-92,-151
-41,-3,38,18,-40,15,34,27,-56,-110,-80,-145
-41,-3,38,18,-40,15,40,27,-50,-105,-75,-145
-41,-3,38,18,-40,15,52,33,-44,-110,-80,-145
-35,-3,32,12,-34,9,52,33,-44,-110,-86,-151
-35,-3,32,12,-34,9,64,39,-38,-105,-92,-151
-35,-3,26,18,-34,3,64,39,-38,-105,-92,-151
-35,-3,32,12,-34,9,52,45,-38,-105,-92,-157
-35,-3,38,12,-34,15,52,45,-38,-105,-92,-157
-35,3,44,6,-40,21,46,51,-38,-105,-92,-157
-35,-3,38,12,-34,15,58,51,-38,-105,-92,-157
-35,-3,32,12,-34,9,58,45,-44,-116,-104,-169
-41,-3,38,18,-40,15,58,45,-44,-116,-104,-169
-47,-14,26,30,-40,3,46,45,-44,-122,-116,-181
-47,-14,26,30,-40,3,46,45,-44,-116,-116,-181
-47,-14,26,30,-40,3,40,39,-38,-110,-110,-175
-47,-14,26,30,-40,3,46,33,-38,-116,-116,-175
-47,-14,26,30,-40,3,40,27,-32,-110,-110,-169
-47,-8,32,24,-40,3,46,33,-32,-105,-110,-163
-41,-3,32,18,-40,9,52,33,-32,-105,-104,-163
-41,-3,44,12,-40,21,52,39,-32,-105,-104,-163
-35,3,44,6,-40,21,58,39,-26,-105,-92,-163
-41,9,56,6,-46,33,58,39,-26,-105,-92,-163
-59,3,68,18,-64,33,64,45,-26,-105,-92,-163
-59,3,68,18,-64,33,64,45,-26,-110,-98,-163
-59,15,80,12,-70,45,64,51,-26,-110,-98,-163
-53,15,74,12,-64,45,64,57,-20,-105,-86,-163
-47,9,62,12,-52,33,70,57,-20,-105,-86,-157
-47,15,68,6,-58,39,64,63,-20,-105,-86,-157
-53,9,68,12,-58,39,70,63,-20,-99,-86,-157
-53,9,68,12,-58,39,70,63,-14,-99,-80,-157
-53,9,68,12,-58,39,76,57,-8,-99,-86,-163
-59,9,74,18,-64,39,76,57,-8,-99,-92,-157
-71,15,92,18,-82,51,88,57,-3,-93,-98,-157
-77,15,98,24,-88,57,88,57,-3,-81,-104,-157
-71,21,98,18,-82,57,88,63,-3,-81,-86,-145
-65,21,92,12,-76,57,94,63,-3,-81,-80,-139
-59,27,92,6,-76,57,100,69,-3,-81,-75,-127
-59,33,98,6,-76,63,100,69,-3,-81,-75,-115
-53,33,92,6,-70,63,106,75,-3,-87,-75,-121
-59,39,104,6,-82,69,106,75,-3,-87,-75,-115
-53,51,110,6,-82,81,112,87,-3,-87,-75,-121
-47,51,104,6,-76,75,112,87,-3,-87,-75,-115
-41,51,98,1,-70,75,112,93,-3,-81,-75,-115
-41,57,104,1,-70,81,112,93,-3,-81,-75,-115
-35,57,98,-5,-64,75,112,99,-3,-69,-69,-115
-35,57,98,-5,-64,75,112,105,-3,-63,-63,-109
-35,57,98,-5,-64,75,118,105,3,-63,-63,-109
-35,57,98,-5,-64,75,118,105,3,-57,-57,-97
-41,51,98,1,-70,75,118,105,15,-57,-51,-97
-41,51,98,1,-70,75,118,105,15,-57,-51,-85
-41,57,104,1,-70,81,118,99,9,-57,-51,-91
-35,69,110,-11,-70,87,118,99,9,-57,-45,-91
-41,75,122,-11,-82,99,112,93,9,-57,-51,-97
-41,75,122,-11,-82,99,112,87,9,-57,-45,-103
-47,69,122,-5,-82,93,112,87,9,-57,-45,-103
-47,69,122,-5,-82,93,112,87,15,-57,-45,-97
-53,69,128,1,-88,99,106,87,15,-57,-51,-97
-53,63,122,1,-88,93,106,93,15,-51,-57,-97
-41,69,116,-5,-76,93,112,87,9,-57,-57,-97
-35,69,110,-11,-70,87,112,87,9,-57,-57,-97
-29,69,104,-11,-64,87,118,81,3,-63,-57,-103
-29,69,104,-11,-64,87,118,75,-3,-63,-57,-103
-41,57,104,1,-70,81,118,75,-3,-57,-51,-97
-47,45,98,6,-70,69,118,69,-3,-57,-39,-91
-71,27,104,12,-88,63,118,69,-3,-45,-33,-79
-65,21,92,12,-76,57,118,69,-3,-39,-33,-79
-59,39,104,6,-82,69,124,69,-3,-45,-39,-85
-53,45,104,6,-76,75,124,69,-3,-63,-51,-91
-47,63,116,1,-82,87,130,75,-3,-69,-57,-97
-35,69,110,-11,-70,87,130,75,-3,-75,-63,-97
-29,69,104,-11,-64,87,130,63,-3,-69,-57,-91
-29,63,98,-11,-64,81,130,57,-3,-69,-57,-91
-17,63,86,-17,-52,75,130,51,-3,-69,-45,-85
-17,69,92,-17,-52,81,124,51,-8,-75,-45,-85
-29,63,98,-11,-64,81,124,51,-8,-81,-51,-97
-35,57,98,-5,-64,75,130,51,-8,-75,-57,-97
-47,51,104,6,-76,75,136,51,-8,-81,-63,-103
-53,21,80,6,-64,51,136,51,-20,-87,-69,-109
-53,27,86,6,-70,57,130,39,-20,-87,-75,-109
-53,27,86,6,-70,57,124,39,-20,-93,-75,-115
-47,39,92,6,-70,63,124,39,-20,-93,-75,-115
-47,39,92,6,-70,63,118,39,-20,-93,-75,-115
-41,39,86,6,-64,63,118,39,-20,-99,-75,-109
-41,39,86,6,-64,63,124,33,-26,-105,-80,-109
-35,33,74,6,-52,51,130,33,-26,-105,-80,-103
-35,27,68,6,-52,45,142,33,-26,-105,-80,-103
-41,21,68,6,-52,45,148,39,-26,-99,-75,-97
-41,21,68,6,-52,45,142,39,-32,-99,-75,-97
-41,21,68,6,-52,45,142,39,-32,-87,-75,-91
-47,33,86,6,-64,57,136,39,-32,-81,-75,-97
-17,57,80,-11,-46,69,136,27,-44,-105,-86,-97
-29,27,62,6,-46,45,130,27,-56,-105,-92,-109
-29,33,68,6,-46,51,130,27,-50,-105,-92,-109
-29,33,68,6,-46,51,130,27,-44,-105,-92,-109
-29,39,74,1,-52,57,130,33,-38,-99,-92,-109
-29,39,74,1,-52,57,130,33,-32,-99,-92,-109
-29,39,74,1,-52,57,130,33,-32,-99,-98,-115
-29,45,80,1,-52,63,136,33,-32,-99,-92,-109
-23,57,86,-11,-52,69,148,33,-32,-99,-92,-103
-23,63,92,-11,-58,75,148,39,-20,-87,-86,-97
-17,69,92,-17,-52,81,148,39,-20,-87,-86,-103
-17,69,92,-17,-52,81,154,45,-20,-87,-86,-97
-17,81,104,-23,-58,93,154,45,-20,-81,-86,-103
-17,75,98,-23,-58,87,166,57,-8,-81,-80,-97
-17,75,98,-23,-58,87,166,51,-14,-81,-75,-97
-17,81,104,-23,-58,93,166,57,-8,-75,-75,-97
-17,81,104,-23,-58,93,160,57,-8,-69,-75,-91
-17,75,98,-23,-58,87,166,57,-8,-69,-75,-91
-17,69,92,-17,-52,81,178,63,-8,-75,-75,-91
-17,69,92,-17,-52,81,178,69,-3,-69,-75,-91
-17,63,86,-17,-52,75,184,75,-3,-75,-75,-91
-12,81,98,-29,-52,87,184,93,-3,-63,-75,-79
-6,93,92,-41,-40,93,184,93,-3,-51,-75,-67
0,111,104,-53,-46,111,184,93,3,-51,-63,-61
6,111,98,-59,-40,105,178,87,3,-57,-69,-55
6,111,98,-59,-40,105,166,81,3,-57,-75,-55
18,117,92,-65,-28,105,160,75,-3,-51,-69,-49
18,111,86,-65,-28,99,154,69,-3,-51,-69,-49
30,117,80,-71,-16,99,136,57,-3,-45,-63,-43
30,117,80,-71,-16,99,124,51,-3,-45,-69,-43
24,111,80,-65,-22,99,112,33,-8,-57,-75,-55
18,111,86,-65,-28,99,112,27,-20,-63,-75,-61
12,99,80,-53,-28,93,100,27,-26,-69,-75,-67
0,93,86,-47,-34,93,94,22,-38,-81,-75,-79
0,87,80,-41,-34,87,82,10,-44,-87,-80,-79
0,105,98,-53,-40,105,82,10,-50,-87,-92,-79
0,99,92,-47,-40,99,76,4,-50,-99,-98,-79
-6,81,80,-35,-34,81,64,-2,-50,-99,-104,-79
-12,81,92,-29,-46,87,70,-2,-44,-93,-98,-79
-12,75,86,-29,-46,81,82,-2,-50,-87,-98,-79
-17,69,92,-17,-52,81,88,4,-50,-81,-98,-85
-23,63,92,-11,-58,75,88,4,-50,-81,-104,-85
-17,57,80,-11,-46,69,88,4,-56,-87,-116,-85
-23,39,68,1,-46,51,88,4,-56,-99,-122,-97
-17,33,56,1,-34,45,94,10,-50,-105,-128,-97
-12,39,56,-5,-34,45,100,22,-50,-105,-134,-103
-23,21,50,6,-34,33,94,16,-56,-99,-128,-97
-29,21,56,6,-40,39,94,16,-56,-99,-128,-103
-29,15,50,6,-40,33,94,4,-62,-99,-122,-103
-35,9,50,6,-40,27,94,4,-74,-105,-134,-109
-47,9,62,12,-52,33,100,10,-68,-105,-146,-115
-53,-3,50,24,-52,21,106,4,-74,-116,-152,-127
-65,-3,62,30,-64,27,112,4,-74,-128,-158,-133
-65,-3,56,30,-64,21,118,-2,-80,-134,-164,-145
-65,-8,50,36,-58,15,106,-8,-80,-134,-170,-151
-65,-14,44,36,-58,9,106,-14,-80,-134,-176,-151
-65,-20,38,42,-52,3,106,-14,-80,-128,-176,-151
-65,-26,32,42,-52,3,106,-8,-86,-128,-176,-151
-59,-14,38,36,-52,3,100,-14,-92,-128,-170,-145
-47,-8,32,24,-40,3,100,-14,-92,-128,-170,-145
-41,-3,32,18,-40,9,94,-20,-92,-122,-152,-139
-41,-3,32,18,-40,9,94,-8,-80,-110,-146,-133
-41,9,56,6,-46,33,106,-2,-50,-105,-140,-133
-29,21,56,6,-40,39,106,4,-44,-105,-140,-127
-12,21,32,1,-16,27,112,10,-50,-105,-128,-121
-12,45,50,-17,-22,51,118,22,-38,-87,-116,-103
6,57,44,-29,-11,51,130,22,-32,-75,-98,-97
0,39,32,-17,-11,39,130,27,-14,-63,-86,-85
-12,27,32,-5,-16,33,142,39,-3,-45,-75,-67
-6,27,26,-11,-11,27,148,39,-3,-33,-75,-73
12,45,26,-29,-11,39,154,39,3,-33,-75,-73
18,33,8,-23,1,21,154,57,27,-27,-75,-67
12,9,3,-11,7,3,172,81,39,-21,-63,-61
24,-3,-33,-5,25,-14,178,99,51,-3,-45,-43
48,-3,-57,-17,49,-26,184,105,57,9,-27,-25
90,15,-69,-53,79,-20,184,135,81,33,-15,-25
120,21,-93,-71,109,-26,184,159,93,51,3,-20
150,-3,-147,-71,151,-68,172,165,99,57,3,-8
162,-3,-159,-77,163,-74,172,171,111,75,21,-2
162,15,-141,-89,151,-56,190,189,141,87,21,16
168,21,-141,-95,157,-50,190,219,159,93,33,40
186,39,-141,-113,163,-44,178,231,177,111,69,64
210,57,-147,-131,181,-38,172,237,177,141,99,82
246,81,-165,-167,211,-32,154,243,189,153,135,112
294,81,-213,-191,253,-56,142,243,195,177,177,154
324,111,-213,-221,265,-44,118,243,189,195,207,196
366,159,-207,-257,283,-14,82,231,189,201,231,238
402,207,-195,-299,295,3,52,207,195,219,255,274
456,219,-231,-335,343,-2,16,195,177,219,273,310
492,231,-261,-359,379,-8,-19,159,135,201,261,340
552,237,-315,-395,439,-32,-79,117,117,213,285,358
612,231,-381,-419,493,-68,-127,105,117,225,333,400
690,189,-495,-437,595,-152,-145,105,117,243,369,430
756,177,-579,-467,673,-200,-169,117,117,261,417,460
816,189,-627,-497,721,-218,-187,111,117,297,477,502
858,195,-663,-521,757,-230,-217,93,111,303,519,538
912,159,-747,-533,829,-290,-247,93,111,315,555,574
960,117,-843,-539,907,-356,-247,129,153,363,621,610
1026,87,-939,-557,979,-422,-247,189,201,411,675,634
1098,9,-1083,-551,1093,-530,-247,267,279,477,723,622
1152,-56,-1209,-539,1183,-632,-223,369,363,561,771,610
1206,-110,-1323,-545,1261,-716,-175,501,471,633,831,592
1266,-176,-1449,-539,1357,-806,-115,657,597,741,903,580
1278,-296,-1581,-485,1429,-938,-37,849,741,867,1005,562
1302,-452,-1755,-425,1525,-1100,58,1095,915,1011,1107,550
1338,-530,-1875,-401,1603,-1202,178,1347,1095,1167,1263,580
1398,-566,-1965,-413,1681,-1262,250,1563,1251,1335,1443,640
1416,-590,-2007,-407,1705,-1298,304,1683,1353,1479,1599,676
1392,-644,-2037,-371,1711,-1340,352,1719,1377,1545,1617,616
1320,-734,-2055,-287,1687,-1394,370,1653,1317,1461,1425,376
1224,-854,-2085,-185,1657,-1466,388,1515,1161,1191,1011,28
1134,-956,-2091,-83,1609,-1520,400,1377,951,819,525,-301
996,-986,-1989,1,1489,-1484,388,1191,717,471,159,-487
840,-932,-1773,36,1303,-1352,352,957,507,231,-57,-547
672,-854,-1527,84,1099,-1190,340,759,333,51,-170,-565
504,-824,-1335,156,919,-1076,316,549,159,-146,-314,-601
342,-824,-1173,240,751,-992,256,321,-80,-386,-506,-679
216,-824,-1041,300,625,-932,196,123,-278,-602,-668,-751
138,-740,-885,294,505,-812,172,10,-386,-680,-734,-757
60,-656,-723,288,391,-686,154,-68,-422,-668,-734,-721
-29,-584,-549,306,253,-566,154,-98,-398,-608,-686,-661
-95,-524,-429,306,163,-482,160,-116,-368,-560,-638,-601
-119,-470,-345,288,109,-410,148,-128,-344,-506,-590,-541
-95,-404,-303,246,97,-356,124,-140,-320,-458,-536,-487
-107,-356,-243,234,61,-302,124,-140,-284,-392,-458,-415
-143,-320,-177,234,7,-248,124,-134,-242,-344,-392,-367
-131,-266,-135,198,-5,-206,124,-122,-212,-314,-362,-337
-113,-206,-87,156,-11,-146,136,-104,-194,-290,-350,-319
-101,-164,-57,132,-16,-110,148,-68,-158,-272,-338,-313
-83,-98,-9,90,-34,-56,160,-38,-128,-260,-344,-301
-47,-44,8,42,-22,-20,172,-8,-110,-224,-320,-283
-47,-20,20,30,-34,3,172,-8,-104,-218,-314,-265
-53,-8,38,30,-46,9,172,-8,-104,-200,-302,-253
-65,-14,44,36,-58,9,172,-20,-98,-200,-290,-229
-83,-26,50,54,-70,3,166,-38,-98,-194,-272,-211
-101,-32,62,66,-82,9,166,-56,-104,-194,-260,-205
-113,-32,74,72,-94,15,166,-56,-104,-194,-260,-205
-125,-38,80,78,-106,15,166,-56,-110,-194,-260,-205
-131,-32,92,78,-112,21,166,-50,-110,-188,-260,-211
-125,-26,92,72,-112,27,166,-50,-104,-182,-260,-211
-119,-14,98,66,-112,33,166,-50,-104,-182,-260,-211
-119,-3,116,54,-118,51,160,-50,-104,-182,-260,-211
-119,3,128,48,-124,63,160,-50,-104,-182,-260,-211
-113,21,140,36,-124,81,154,-62,-110,-182,-260,-199
-107,27,140,30,-124,81,154,-68,-110,-182,-260,-193
-107,33,146,30,-124,87,160,-74,-110,-170,-254,-193
-101,39,146,24,-124,93,160,-74,-110,-170,-254,-187
-107,33,146,30,-124,87,160,-74,-104,-176,-254,-181
-107,27,140,30,-124,81,160,-74,-104,-176,-254,-187
-113,21,140,36,-124,81,166,-68,-98,-182,-254,-181
-113,21,140,36,-124,81,160,-68,-98,-182,-248,-181
-113,27,146,36,-130,87,136,-68,-104,-182,-242,-181
-113,27,146,36,-130,87,136,-74,-104,-182,-248,-181
-113,33,152,30,-130,93,130,-80,-110,-182,-242,-181
-113,33,152,30,-130,93,130,-80,-110,-182,-248,-169
-119,33,158,36,-136,93,124,-86,-116,-182,-248,-175
-119,33,158,36,-136,93,112,-98,-122,-188,-248,-175
-119,39,164,30,-142,99,106,-104,-128,-188,-242,-175
-125,39,170,36,-148,105,100,-104,-128,-182,-236,-175
-125,33,164,36,-142,99,106,-104,-128,-182,-242,-181
-125,39,170,36,-148,105,94,-104,-128,-176,-242,-181
-125,45,176,30,-148,111,100,-110,-128,-176,-248,-175
-137,45,188,36,-160,117,100,-110,-134,-182,-254,-175
-137,51,194,36,-166,123,94,-122,-140,-188,-260,-181
-131,63,200,24,-166,129,88,-128,-140,-188,-260,-175
-119,69,194,18,-154,129,88,-134,-158,-200,-266,-181
-131,69,206,24,-166,135,88,-134,-158,-200,-266,-175
-137,69,212,24,-172,141,88,-134,-164,-194,-260,-169
-143,69,218,30,-178,141,88,-140,-164,-188,-260,-169
-143,69,218,30,-178,141,76,-140,-170,-182,-248,-163
-143,87,236,18,-190,159,76,-140,-176,-182,-248,-163
-149,87,242,24,-196,165,82,-140,-170,-188,-254,-157
-149,93,248,18,-196,171,82,-140,-164,-188,-248,-157
-155,93,248,24,-202,171,82,-152,-158,-194,-254,-151
-155,93,248,24,-202,171,82,-152,-152,-194,-248,-151
-155,99,254,18,-208,177,76,-146,-158,-194,-248,-145
-161,99,260,24,-214,183,70,-152,-158,-194,-242,-145
-161,105,266,18,-214,189,76,-152,-158,-194,-242,-145
-161,105,266,18,-214,189,82,-158,-170,-194,-242,-145
-167,117,284,18,-226,201,76,-164,-170,-200,-242,-145
-173,123,296,18,-238,213,70,-176,-170,-200,-242,-139
-179,135,314,12,-250,225,64,-176,-176,-206,-236,-139
-173,141,314,6,-244,231,58,-182,-176,-200,-236,-139
-167,165,332,6,-250,243,52,-182,-176,-200,-236,-139
-173,177,350,6,-256,261,52,-182,-176,-194,-230,-139
-167,183,350,1,-256,261,52,-176,-176,-188,-224,-115
-173,195,368,-5,-268,279,52,-188,-176,-188,-224,-109
-167,213,380,-17,-268,291,40,-194,-182,-188,-224,-109
-179,219,398,-11,-286,303,40,-200,-182,-188,-224,-109
-179,231,410,-17,-292,315,28,-212,-188,-182,-218,-103
-179,237,422,-23,-298,327,28,-212,-188,-182,-218,-97
-191,237,428,-17,-304,327,34,-230,-182,-170,-218,-103
-191,237,428,-17,-304,327,28,-248,-188,-176,-218,-103
-197,243,446,-17,-316,345,34,-254,-182,-182,-218,-103
-197,243,446,-17,-316,345,34,-266,-182,-188,-212,-103
-197,249,452,-23,-322,351,28,-266,-188,-182,-206,-91
-203,267,476,-29,-334,369,22,-272,-194,-182,-200,-85
-197,297,494,-47,-346,399,28,-278,-200,-176,-188,-79
-191,321,512,-59,-352,417,28,-284,-200,-170,-188,-67
-197,327,524,-59,-358,429,22,-284,-194,-164,-194,-67
-203,327,530,-59,-364,429,22,-290,-188,-158,-182,-55
-215,327,542,-53,-376,435,16,-290,-182,-158,-182,-49
-227,321,548,-41,-388,435,16,-296,-182,-152,-176,-43
-221,333,554,-53,-388,447,11,-308,-182,-134,-164,-37
-227,345,572,-53,-400,459,11,-314,-176,-134,-164,-31
-209,363,572,-71,-388,471,-1,-320,-176,-134,-158,-25
-203,375,578,-83,-388,477,-1,-326,-182,-140,-152,-20
-197,393,590,-95,-394,489,-1,-326,-182,-140,-146,-20
-197,411,608,-101,-400,507,-1,-332,-182,-128,-146,-20
-191,417,608,-107,-400,507,5,-326,-176,-128,-140,-8
-179,417,596,-113,-388,501,5,-326,-176,-122,-134,-2
-179,417,596,-113,-388,501,-1,-332,-176,-116,-122,4
-179,429,608,-119,-394,513,-1,-332,-170,-105,-110,10
-179,423,602,-119,-388,507,-7,-338,-170,-105,-110,22
-173,423,596,-119,-382,507,-7,-338,-164,-105,-98,22
-167,417,584,-119,-376,495,-13,-332,-158,-99,-104,28
-155,417,572,-125,-364,489,-13,-326,-152,-93,-98,28
-155,411,566,-125,-358,489,-19,-314,-152,-87,-98,28
-149,411,560,-125,-352,489,-19,-308,-152,-87,-92,34
-143,417,560,-131,-352,489,-19,-302,-152,-99,-92,34
-137,411,548,-131,-340,483,-19,-296,-152,-99,-92,34
-125,417,542,-143,-334,483,-13,-290,-146,-105,-92,40
-113,417,530,-149,-322,477,-13,-290,-140,-105,-86,40
-119,399,518,-137,-316,459,-7,-278,-134,-99,-86,40
-113,399,512,-137,-310,459,-1,-266,-128,-93,-80,34
-101,387,494,-137,-292,441,5,-248,-128,-93,-75,34
-89,369,464,-137,-274,417,16,-242,-128,-93,-75,40
-77,357,440,-137,-256,399,16,-236,-128,-99,-75,40
-65,345,416,-137,-244,381,16,-218,-116,-93,-75,34
-53,333,392,-137,-226,363,16,-212,-104,-93,-75,34
-41,327,374,-137,-208,351,16,-206,-104,-93,-75,22
-29,309,344,-137,-190,327,16,-194,-104,-99,-75,16
-23,297,326,-131,-178,309,22,-176,-98,-99,-75,16
-17,267,290,-119,-154,279,28,-176,-92,-93,-69,10
-12,255,266,-119,-136,261,46,-152,-80,-87,-69,10
-12,249,260,-119,-136,255,52,-140,-68,-87,-69,10
-12,225,236,-101,-118,231,58,-128,-62,-87,-75,-8
-12,219,230,-101,-118,225,52,-122,-56,-87,-75,-8
-12,207,218,-95,-112,213,58,-110,-50,-87,-75,-14
-12,195,200,-89,-100,201,76,-86,-44,-87,-80,-20
-6,177,176,-83,-82,177,94,-62,-38,-99,-86,-20
6,171,158,-89,-70,165,106,-50,-32,-93,-92,-25
30,171,134,-101,-46,153,130,-32,-20,-93,-92,-25
24,153,122,-89,-40,141,130,-14,-14,-93,-92,-37
12,129,110,-71,-40,123,136,-14,-14,-87,-98,-43
6,117,104,-59,-40,111,136,-8,-14,-87,-98,-49
0,105,98,-53,-40,105,148,4,-14,-93,-98,-55
-6,99,98,-47,-46,99,154,16,-3,-93,-116,-67
-6,87,86,-41,-40,87,160,22,-3,-99,-122,-73
0,81,74,-41,-28,81,166,27,-3,-99,-128,-91
0,81,74,-41,-28,81,178,33,-3,-99,-134,-97
0,63,56,-29,-22,63,184,33,-3,-105,-140,-103
-6,45,44,-17,-16,45,184,39,-3,-105,-146,-109
0,39,32,-17,-11,39,184,39,-3,-105,-146,-109
0,39,32,-17,-11,39,184,39,-3,-105,-152,-115
6,39,26,-23,-11,33,184,33,-3,-105,-152,-121
0,39,32,-17,-11,39,184,33,-8,-105,-158,-127
0,45,38,-23,-11,45,184,27,-14,-105,-164,-133
0,45,38,-23,-11,45,184,27,-14,-110,-164,-133
-12,21,26,-5,-11,27,178,27,-14,-110,-170,-133
-12,15,26,1,-16,21,172,27,-14,-116,-170,-133
-12,9,26,6,-16,15,166,22,-20,-122,-170,-145
-23,9,38,6,-28,21,172,22,-20,-128,-176,-145
-35,-3,38,12,-34,15,166,10,-26,-134,-188,-151
-35,-3,32,12,-34,9,160,10,-38,-134,-194,-163
-41,-8,26,24,-34,3,154,4,-38,-140,-200,-169
-41,-8,26,24,-34,3,160,4,-38,-140,-206,-169
-35,-3,26,18,-34,3,160,10,-38,-146,-200,-163
-23,-3,14,12,-22,3,154,10,-38,-146,-206,-169
-17,-3,14,6,-16,3,154,16,-38,-140,-200,-163
-12,-3,8,6,-11,3,148,16,-38,-140,-200,-163
-12,-3,8,6,-11,3,148,16,-38,-146,-200,-169
-12,-3,8,6,-11,3,148,16,-38,-146,-200,-169
-12,-3,8,6,-11,3,154,16,-38,-140,-200,-169
-12,-3,8,6,-11,3,166,16,-38,-140,-200,-169
-12,-3,8,6,-11,3,166,16,-44,-152,-206,-175
-17,-3,8,6,-16,3,160,16,-44,-152,-206,-175
-23,-14,8,18,-16,-2,148,22,-44,-146,-212,-181
-23,-14,8,18,-16,-2,142,22,-44,-140,-212,-181
-23,-8,8,12,-16,3,148,27,-44,-146,-206,-181
-23,-8,8,12,-16,3,154,22,-44,-152,-212,-181
-23,-3,14,12,-22,3,160,27,-44,-158,-206,-181
-23,-3,20,6,-22,3,166,27,-44,-152,-206,-175
-29,-3,20,12,-28,3,160,27,-38,-146,-212,-175
-29,-3,20,12,-28,3,160,27,-38,-146,-212,-175
-35,-8,20,18,-28,3,154,27,-26,-152,-212,-175
-41,-14,20,24,-34,3,154,27,-26,-152,-212,-175
-53,-26,20,36,-40,3,148,22,-32,-152,-212,-181
-53,-26,20,36,-40,3,148,22,-32,-158,-218,-181
-47,-20,20,30,-34,3,136,16,-38,-158,-218,-187
-41,-20,14,30,-28,3,136,22,-32,-152,-206,-187
-41,-14,20,24,-34,3,136,22,-32,-152,-206,-181
-41,-8,26,24,-34,3,130,27,-32,-146,-206,-181
-53,-3,44,24,-52,15,130,27,-32,-146,-206,-181
-53,-3,44,24,-52,15,130,27,-26,-146,-200,-181
-47,-3,38,24,-46,9,130,27,-20,-146,-200,-175
-47,-3,38,24,-46,9,130,27,-20,-146,-200,-169
-53,-3,50,24,-52,21,136,27,-14,-140,-200,-157
-53,-3,50,24,-52,21,136,27,-14,-128,-200,-157
-59,-3,50,30,-58,15,130,27,-20,-128,-194,-157
-59,-3,50,30,-58,15,130,27,-20,-128,-194,-157
-65,-8,50,36,-58,15,130,22,-26,-128,-194,-157
-71,-3,62,36,-70,21,124,22,-26,-128,-194,-151
-65,-3,62,30,-64,27,124,22,-20,-122,-194,-151
-71,-3,74,30,-70,33,124,22,-14,-122,-194,-145
-65,15,86,18,-76,51,124,27,-8,-110,-188,-145
-59,15,80,12,-70,45,124,27,-3,-110,-182,-139
-65,9,80,18,-70,45,130,27,-3,-116,-182,-133
-65,9,80,18,-70,45,130,27,-3,-116,-182,-133
-71,3,80,24,-76,39,136,27,-3,-116,-182,-127
-71,-3,74,30,-70,33,136,33,-3,-110,-182,-121
-71,3,80,24,-76,39,136,27,-3,-116,-176,-127
-71,3,80,24,-76,39,136,27,-3,-110,-170,-115
-77,3,86,30,-82,45,130,27,-3,-116,-158,-121
-77,3,86,30,-82,45,130,22,-3,-116,-158,-109
-65,9,80,18,-70,45,142,22,-3,-110,-152,-109
-59,21,86,12,-70,51,142,22,-3,-105,-146,-109
-53,27,86,6,-70,57,148,22,-3,-105,-146,-109
-53,27,86,6,-70,57,148,16,-3,-105,-140,-115
-47,33,86,6,-64,57,148,22,3,-99,-140,-115
-41,45,92,6,-64,69,148,22,9,-99,-140,-109
-35,57,98,-5,-64,75,142,27,15,-93,-146,-109
-29,63,98,-11,-64,81,142,27,15,-87,-152,-109
-23,51,80,-5,-52,63,130,27,3,-105,-152,-103
-41,27,74,6,-58,51,130,27,3,-105,-152,-115
-53,21,80,6,-64,51,130,22,3,-110,-152,-115
-41,21,68,6,-52,45,130,27,-3,-105,-152,-103
-41,39,86,6,-64,63,130,27,3,-99,-140,-97
-47,33,86,6,-64,57,124,27,-3,-105,-146,-103
-53,27,86,6,-70,57,124,27,-3,-105,-146,-103
-59,21,86,12,-70,51,118,22,-3,-105,-152,-109
-65,15,86,18,-76,51,118,22,-3,-105,-152,-109
-65,15,86,18,-76,51,118,22,-3,-105,-152,-115
-65,21,92,12,-76,57,124,22,-3,-105,-146,-109
-59,33,98,6,-76,63,136,22,3,-99,-140,-103
-59,39,104,6,-82,69,136,27,15,-87,-134,-97
-41,57,104,1,-70,81,136,27,15,-87,-128,-91
-35,63,104,-5,-70,81,142,27,15,-87,-122,-85
-23,87,116,-23,-70,99,142,33,15,-81,-116,-79
-17,87,110,-29,-64,99,154,45,27,-81,-104,-73
-12,87,104,-29,-58,93,166,45,27,-81,-98,-67
-12,93,110,-35,-58,99,166,51,33,-75,-92,-67
-12,93,104,-35,-52,99,172,57,39,-69,-98,-55
-12,87,98,-35,-52,93,178,57,39,-69,-98,-55
-12,87,104,-29,-58,93,178,57,39,-69,-104,-61
-12,87,104,-29,-58,93,178,57,45,-63,-104,-67
-17,87,110,-29,-64,99,172,57,45,-63,-110,-73
-12,105,122,-41,-64,111,172,69,51,-51,-98,-67
-12,111,122,-47,-64,117,166,69,51,-45,-98,-55
-12,129,140,-53,-70,135,166,69,57,-45,-86,-49
-12,123,140,-47,-76,129,154,63,51,-57,-92,-43
-17,123,146,-47,-82,135,142,57,51,-57,-98,-43
-12,129,146,-53,-76,135,130,45,45,-57,-92,-43
-12,123,140,-47,-76,129,124,39,45,-63,-92,-43
-12,129,140,-53,-70,135,100,27,45,-63,-86,-43
-12,129,140,-53,-70,135,88,27,39,-69,-92,-43
-12,123,140,-47,-76,129,76,16,27,-75,-98,-49
-12,117,134,-47,-70,123,76,10,21,-75,-98,-49
-17,105,128,-35,-70,117,64,4,15,-75,-104,-49
-23,93,122,-29,-70,105,58,-2,9,-81,-110,-55
-17,93,116,-29,-64,105,52,-2,9,-81,-104,-55
-17,117,140,-41,-76,129,52,-2,3,-81,-110,-55
-12,117,134,-47,-70,123,52,4,9,-87,-104,-55
-17,105,128,-35,-70,117,40,-2,9,-87,-104,-55
-12,105,122,-41,-64,111,34,-2,15,-87,-104,-49
-12,99,104,-41,-52,105,40,-2,9,-87,-104,-49
-6,93,92,-41,-40,93,34,4,9,-87,-110,-49
0,87,80,-41,-34,87,28,4,9,-93,-116,-49
-6,69,68,-29,-28,69,34,-2,-3,-93,-122,-55
-12,45,56,-11,-28,51,34,-2,-3,-105,-128,-67
-12,27,44,1,-28,33,46,-2,-3,-105,-128,-73
-12,27,44,1,-28,33,52,10,-3,-105,-134,-79
-35,3,44,6,-40,21,52,4,-8,-105,-140,-85
-47,-3,50,18,-46,21,52,4,-14,-110,-146,-97
-59,-3,50,30,-58,15,58,-8,-20,-128,-152,-109
-71,-14,50,42,-64,9,58,-8,-38,-140,-170,-121
-71,-20,44,42,-58,3,52,-8,-38,-146,-182,-127
-71,-38,26,54,-52,-2,52,-14,-44,-152,-188,-133
-71,-44,20,54,-46,-8,46,-20,-50,-158,-194,-139
-65,-50,8,54,-40,-14,46,-26,-56,-158,-200,-145
-59,-44,8,48,-34,-14,40,-26,-50,-158,-200,-151
-59,-44,8,48,-34,-14,40,-32,-50,-158,-206,-151
-53,-38,8,42,-34,-8,46,-26,-44,-152,-200,-151
-53,-38,8,42,-34,-8,46,-20,-50,-152,-200,-151
-59,-32,20,42,-40,-2,52,-14,-50,-146,-194,-145
-47,-26,14,36,-34,-2,52,-14,-50,-146,-194,-139
-53,-26,20,36,-40,3,58,-8,-44,-134,-176,-133
-53,-26,20,36,-40,3,58,4,-32,-122,-170,-121
-77,-38,32,54,-58,3,58,-14,-38,-140,-188,-121
-53,-26,20,36,-40,3,58,4,-32,-134,-176,-103
-29,-3,20,12,-28,3,64,10,-14,-116,-152,-97
-23,-3,14,12,-22,3,58,22,-14,-110,-152,-91
-17,-3,8,6,-16,3,58,22,-8,-105,-146,-85
-12,3,8,6,-11,9,70,39,9,-75,-122,-61
0,3,8,1,-5,3,94,63,33,-57,-98,-55
6,3,3,-5,1,3,100,63,27,-57,-98,-49
12,-3,-9,-5,13,3,106,75,39,-57,-86,-49
30,-3,-39,-5,31,-20,118,105,51,-51,-86,-43
24,-26,-57,6,37,-38,124,117,75,-45,-86,-37
36,-26,-69,1,49,-44,130,123,75,-39,-80,-43
60,-14,-81,-17,67,-44,136,141,93,-15,-63,-25
78,-20,-105,-23,91,-62,136,159,117,9,-39,-20
84,-38,-129,-17,103,-80,136,171,129,27,-21,-20
114,-38,-159,-29,133,-98,136,177,135,33,-21,-8
138,-38,-183,-41,157,-110,136,195,147,39,-3,10
150,-44,-201,-47,175,-122,142,225,177,63,9,28
156,-26,-189,-59,169,-104,154,255,207,81,33,52
174,-3,-177,-83,175,-86,142,267,225,111,69,88
186,-3,-183,-89,187,-86,136,267,237,123,99,118
228,33,-189,-131,211,-68,130,273,237,153,123,148
282,69,-213,-179,247,-62,106,273,237,165,147,178
324,99,-225,-215,271,-56,94,273,243,183,171,208
378,123,-249,-245,313,-56,70,285,243,201,207,238
426,171,-249,-293,337,-32,40,267,237,207,231,286
468,183,-279,-323,373,-44,16,231,213,207,249,310
492,171,-321,-329,409,-68,-43,183,183,189,237,328
540,177,-363,-359,457,-86,-103,153,153,189,261,358
612,171,-441,-389,523,-128,-151,141,153,201,309,400
690,141,-543,-413,619,-200,-181,153,165,231,357,442
744,117,-627,-431,691,-248,-205,153,177,261,411,466
816,117,-699,-467,757,-284,-229,135,165,273,453,502
858,111,-741,-479,799,-308,-271,117,159,291,483,526
924,75,-843,-497,883,-380,-295,141,183,327,531,550
984,45,-939,-515,961,-440,-295,189,225,381,597,598
1038,-3,-1041,-515,1039,-518,-295,267,279,435,657,610
1110,-62,-1179,-515,1141,-620,-283,345,351,501,723,622
1152,-116,-1269,-509,1207,-692,-253,441,447,585,795,622
1188,-158,-1347,-509,1261,-746,-199,591,573,681,879,616
1218,-200,-1425,-503,1321,-806,-127,741,729,825,975,628
1254,-284,-1545,-479,1399,-914,-25,921,873,951,1077,622
1290,-416,-1707,-437,1495,-1058,70,1167,1041,1071,1149,586
1326,-518,-1851,-401,1585,-1184,178,1443,1215,1215,1275,580
1362,-590,-1953,-383,1657,-1268,250,1659,1359,1377,1431,640
1380,-638,-2019,-365,1693,-1328,292,1797,1467,1539,1587,688
1344,-704,-2049,-317,1693,-1376,328,1881,1491,1593,1605,592
1248,-824,-2079,-209,1663,-1454,370,1875,1449,1485,1371,328
1158,-974,-2133,-89,1645,-1550,412,1797,1311,1203,939,-31
1074,-1046,-2127,-5,1597,-1586,400,1623,1113,843,477,-337
954,-1022,-1977,30,1459,-1496,352,1365,855,507,135,-499
780,-986,-1773,96,1273,-1382,328,1095,615,231,-80,-559
600,-962,-1563,174,1081,-1256,316,891,417,15,-242,-613
462,-920,-1383,228,919,-1148,280,669,219,-182,-386,-637
318,-896,-1215,282,763,-1052,202,429,-3,-386,-542,-667
204,-884,-1089,336,643,-980,148,231,-200,-572,-668,-715
126,-824,-957,342,535,-890,112,93,-302,-656,-734,-727
48,-734,-789,336,421,-758,82,16,-338,-644,-734,-697
-53,-668,-609,360,271,-638,94,-50,-338,-608,-698,-649
-119,-596,-477,354,175,-536,100,-80,-320,-560,-650,-577
-143,-512,-369,324,109,-446,76,-104,-296,-518,-602,-517
-131,-464,-327,294,91,-398,52,-116,-296,-494,-566,-475
-131,-416,-279,270,67,-350,40,-128,-272,-452,-530,-427
-119,-368,-243,246,55,-308,28,-122,-242,-392,-464,-367
-131,-326,-195,228,25,-260,16,-110,-200,-344,-434,-337
-137,-284,-147,210,-5,-218,16,-80,-170,-314,-410,-319
-125,-236,-105,180,-11,-170,16,-56,-146,-296,-386,-301
-95,-194,-93,144,-11,-146,16,-38,-116,-272,-356,-277
-95,-140,-39,114,-22,-92,28,-20,-98,-260,-344,-271
-95,-104,-3,96,-40,-56,28,-14,-92,-248,-332,-259
-95,-80,8,84,-52,-32,28,-14,-92,-230,-320,-235
-107,-74,26,90,-70,-20,28,-20,-86,-224,-314,-211
-119,-74,38,96,-82,-14,22,-38,-86,-218,-296,-187
-137,-80,50,108,-94,-8,22,-56,-86,-212,-284,-175
-143,-86,50,114,-100,-14,22,-56,-86,-206,-284,-175
-155,-92,56,120,-106,-14,22,-56,-86,-200,-284,-169
-155,-92,56,120,-106,-14,22,-50,-86,-188,-284,-175
-143,-80,56,108,-100,-8,28,-56,-80,-188,-284,-181
-137,-62,68,96,-106,3,28,-56,-80,-188,-284,-181
-131,-38,86,84,-112,15,28,-62,-80,-194,-284,-187
-131,-20,104,72,-118,33,28,-62,-80,-194,-284,-187
-131,-20,104,72,-118,33,22,-74,-86,-200,-278,-169
-131,-20,104,72,-118,33,22,-80,-86,-200,-278,-163
-137,-32,98,84,-118,27,28,-86,-86,-194,-266,-157
-137,-32,98,84,-118,27,28,-86,-86,-194,-266,-151
-137,-26,104,78,-124,33,16,-86,-80,-194,-266,-151
-137,-26,104,78,-124,33,16,-86,-80,-194,-266,-157
-137,-20,110,78,-124,39,16,-80,-74,-194,-266,-157
-137,-14,116,72,-130,45,16,-80,-74,-194,-260,-157
-143,-8,128,72,-136,51,-7,-86,-80,-194,-260,-157
-143,-8,128,72,-136,51,-7,-92,-80,-194,-266,-157
-149,-3,140,72,-148,63,-13,-104,-86,-194,-266,-157
-149,-3,140,72,-148,63,-13,-104,-86,-194,-272,-145
-155,-8,140,78,-148,57,-19,-110,-92,-194,-272,-145
-155,-8,140,78,-148,57,-25,-122,-98,-200,-272,-145
-155,-8,140,78,-148,57,-31,-128,-104,-200,-266,-139
-161,-8,146,84,-154,63,-31,-128,-104,-194,-260,-139
-155,-3,146,78,-154,63,-25,-128,-104,-194,-266,-145
-155,-3,158,72,-154,75,-37,-128,-104,-188,-266,-145
-149,15,170,60,-160,93,-31,-134,-104,-188,-272,-139
-161,21,188,60,-172,105,-31,-134,-110,-194,-278,-139
-161,15,182,66,-172,99,-31,-140,-110,-194,-278,-139
-155,27,188,54,-172,105,-37,-146,-110,-194,-278,-133
-143,21,170,54,-154,93,-31,-146,-122,-200,-278,-133
-155,21,182,60,-166,99,-31,-146,-122,-200,-278,-127
-167,21,194,66,-178,105,-31,-152,-116,-200,-272,-127
-173,21,200,66,-184,111,-37,-158,-116,-194,-272,-127
-179,21,206,72,-190,111,-49,-164,-110,-194,-260,-127
-179,39,224,60,-202,129,-55,-164,-116,-194,-260,-127
-185,39,230,66,-208,135,-55,-164,-122,-194,-266,-121
-185,45,236,60,-208,141,-55,-164,-122,-194,-260,-121
-191,45,242,66,-214,141,-61,-176,-128,-194,-266,-115
-191,45,242,66,-214,141,-61,-176,-128,-194,-260,-115
-197,51,248,66,-226,153,-73,-182,-134,-200,-266,-115
-203,51,254,66,-232,153,-79,-194,-134,-200,-260,-115
-209,57,266,66,-238,165,-79,-206,-134,-206,-266,-121
-209,57,266,66,-238,165,-73,-212,-146,-206,-266,-121
-203,75,278,54,-244,177,-73,-212,-146,-200,-260,-109
-209,81,290,54,-250,189,-73,-224,-146,-200,-260,-103
-203,99,302,42,-250,201,-73,-218,-152,-194,-248,-91
-197,105,302,36,-250,207,-73,-224,-152,-188,-248,-91
-197,123,320,30,-256,225,-73,-224,-146,-188,-248,-91
-203,135,338,24,-268,237,-67,-224,-146,-182,-242,-85
-203,135,338,24,-268,237,-61,-218,-140,-176,-236,-61
-209,147,356,24,-280,249,-55,-230,-140,-176,-236,-49
-215,159,374,18,-292,261,-67,-242,-146,-188,-236,-49
-233,159,392,30,-310,273,-73,-248,-152,-188,-236,-55
-245,165,410,30,-322,285,-85,-266,-158,-194,-230,-49
-251,171,422,30,-334,291,-91,-272,-164,-194,-230,-49
-251,183,434,24,-340,303,-97,-284,-158,-170,-224,-43
-245,201,446,12,-340,321,-103,-296,-158,-164,-218,-37
-239,231,470,6,-352,345,-109,-296,-152,-158,-212,-25
-233,243,482,1,-352,363,-109,-302,-146,-152,-200,-20
-233,249,488,-5,-358,369,-121,-308,-152,-158,-200,-20
-239,261,500,-5,-370,381,-127,-314,-158,-164,-194,-20
-233,291,524,-23,-376,411,-127,-326,-164,-170,-188,-20
-227,309,536,-35,-382,423,-127,-332,-164,-170,-188,-20
-227,315,542,-41,-382,429,-127,-338,-164,-158,-188,-8
-227,321,548,-41,-388,435,-127,-344,-158,-152,-176,4
-233,321,554,-41,-394,441,-127,-350,-158,-146,-170,22
-239,321,560,-35,-400,441,-127,-356,-158,-140,-164,28
-245,321,566,-35,-406,447,-133,-356,-158,-122,-152,34
-257,333,596,-29,-430,465,-133,-362,-152,-122,-152,40
-251,339,596,-35,-424,471,-133,-356,-152,-122,-146,46
-257,351,614,-41,-436,483,-133,-362,-158,-128,-140,52
-251,363,620,-47,-436,489,-139,-368,-158,-134,-134,58
-251,381,638,-59,-448,507,-139,-374,-158,-122,-134,64
-251,381,632,-59,-442,501,-139,-374,-152,-128,-128,76
-239,381,620,-65,-430,495,-139,-374,-152,-122,-122,82
-233,387,620,-71,-424,501,-145,-368,-146,-110,-104,88
-233,399,632,-77,-430,513,-145,-368,-140,-105,-92,94
-227,399,626,-83,-424,507,-151,-362,-134,-99,-86,106
-221,399,620,-83,-418,507,-151,-362,-128,-93,-75,106
-203,405,608,-95,-406,501,-157,-362,-122,-87,-75,118
-191,405,596,-101,-394,495,-157,-356,-116,-81,-75,118
-179,411,590,-113,-382,495,-163,-350,-116,-75,-63,124
-173,411,584,-113,-376,495,-163,-344,-116,-75,-57,130
-173,405,578,-113,-376,489,-163,-338,-110,-87,-63,130
-167,393,560,-107,-364,477,-163,-332,-110,-87,-69,130
-161,387,548,-107,-352,471,-157,-326,-98,-93,-75,136
-149,381,530,-113,-340,459,-157,-326,-92,-93,-75,136
-143,369,512,-107,-328,441,-163,-320,-86,-81,-69,142
-137,369,506,-113,-322,441,-163,-308,-80,-75,-57,136
-113,363,482,-119,-292,423,-169,-296,-80,-69,-45,142
-101,345,452,-119,-274,399,-163,-290,-80,-69,-39,148
-95,333,434,-113,-262,381,-163,-284,-80,-69,-39,142
-83,315,404,-113,-244,357,-151,-266,-68,-63,-39,136
-77,303,386,-107,-232,345,-151,-254,-56,-57,-39,130
-65,291,362,-107,-214,327,-151,-248,-56,-57,-39,118
-53,279,338,-107,-196,309,-145,-230,-56,-63,-39,118
-47,273,326,-107,-190,297,-139,-212,-50,-63,-39,118
-41,249,296,-101,-172,273,-127,-212,-44,-57,-45,118
-29,243,278,-101,-154,261,-109,-188,-32,-51,-45,118
-17,237,260,-107,-142,249,-97,-158,-20,-45,-39,112
-12,213,230,-95,-118,219,-91,-140,-14,-45,-45,94
-12,207,212,-95,-106,213,-91,-116,-8,-39,-45,88
-6,195,194,-95,-94,195,-85,-98,-3,-39,-51,82
-12,171,182,-77,-94,177,-73,-74,-8,-51,-63,64
-12,141,158,-59,-82,147,-61,-56,-3,-69,-69,58
-17,123,146,-47,-82,135,-55,-44,-8,-75,-75,40
-12,111,122,-47,-64,117,-37,-32,-3,-81,-75,34
-12,105,116,-41,-58,111,-31,-14,9,-75,-75,22
-12,81,98,-29,-52,87,-25,-8,9,-69,-75,16
-12,81,98,-29,-52,87,-19,-2,21,-63,-75,10
-12,69,86,-23,-46,75,-7,16,21,-69,-75,4
-17,63,86,-17,-52,75,-1,22,21,-75,-86,4
-17,57,80,-11,-46,69,5,27,21,-81,-92,-2
-12,51,68,-11,-40,57,11,27,21,-87,-92,-8
-12,57,74,-17,-40,63,16,33,21,-87,-98,-14
-17,39,62,-5,-40,51,16,33,21,-93,-110,-20
-23,21,50,6,-34,33,16,39,15,-99,-116,-31
-23,15,44,6,-34,27,16,39,15,-99,-122,-43
-23,15,44,6,-34,27,16,39,15,-99,-128,-55
-23,3,32,6,-28,15,16,33,9,-105,-134,-61
-29,-3,32,6,-28,15,16,33,3,-105,-140,-67
-35,-3,32,12,-34,9,16,27,-3,-105,-152,-73
-35,-3,26,18,-34,3,16,27,-3,-110,-152,-73
-41,-20,14,30,-28,3,22,27,-3,-110,-158,-67
-41,-26,8,30,-28,-2,16,27,-3,-110,-158,-67
-41,-26,8,30,-28,-2,22,22,-3,-116,-158,-73
-47,-26,14,36,-34,-2,28,22,-3,-116,-164,-73
-53,-32,14,42,-34,-2,22,16,-3,-128,-176,-73
-53,-38,8,42,-34,-8,16,16,-8,-134,-176,-85
-53,-44,8,48,-28,-14,16,16,-3,-146,-182,-85
-53,-44,8,48,-28,-14,16,16,-3,-152,-182,-85
-47,-38,8,42,-28,-14,16,22,-3,-158,-176,-85
-35,-38,3,36,-16,-20,16,16,-3,-152,-182,-91
-29,-32,3,30,-11,-14,16,22,-3,-146,-176,-91
-23,-38,-9,30,-11,-26,16,16,-3,-140,-176,-91
-17,-32,-9,24,-11,-20,11,16,-8,-140,-170,-91
-17,-26,-3,18,-11,-14,11,16,-8,-140,-164,-91
-12,-20,-3,12,-11,-14,11,16,-14,-128,-158,-85
-12,-26,-9,18,-11,-20,16,16,-14,-128,-152,-85
-17,-32,-9,24,-11,-20,16,22,-14,-146,-158,-97
-29,-32,3,30,-11,-14,16,22,-14,-146,-158,-97
-41,-50,-3,42,-16,-26,11,27,-8,-146,-164,-109
-47,-50,3,48,-22,-26,11,27,-8,-140,-164,-109
-41,-56,-9,48,-11,-32,5,27,-14,-146,-164,-115
-41,-56,-9,48,-11,-32,11,22,-14,-152,-170,-115
-35,-62,-21,48,-11,-44,5,16,-20,-158,-170,-121
-35,-56,-15,42,-11,-38,11,22,-20,-152,-170,-115
-41,-62,-15,48,-11,-38,5,22,-20,-146,-164,-109
-41,-56,-9,48,-11,-32,5,27,-20,-152,-164,-109
-47,-62,-9,54,-16,-38,-1,27,-14,-158,-152,-103
-53,-62,-3,54,-22,-32,-1,27,-14,-164,-152,-103
-71,-68,8,66,-34,-32,5,27,-14,-158,-152,-109
-71,-68,8,66,-34,-32,5,27,-14,-164,-158,-109
-71,-56,8,60,-40,-20,5,27,-14,-158,-158,-115
-65,-56,8,60,-34,-20,5,27,-8,-152,-146,-115
-59,-50,8,54,-34,-20,11,27,-8,-146,-140,-103
-59,-44,8,48,-34,-14,5,27,-8,-134,-140,-103
-65,-38,20,48,-46,-2,11,27,-8,-128,-134,-97
-65,-38,20,48,-46,-2,11,27,-3,-122,-128,-97
-59,-44,8,48,-34,-14,11,27,-3,-128,-134,-103
-59,-44,8,48,-34,-14,11,27,-3,-134,-134,-97
-65,-44,14,54,-40,-8,16,27,-3,-134,-140,-97
-65,-44,14,54,-40,-8,16,27,-3,-128,-140,-97
-71,-44,20,54,-46,-8,11,27,-3,-128,-134,-97
-77,-44,26,60,-52,-2,16,27,-3,-128,-134,-97
-83,-44,32,60,-58,-2,16,27,-3,-128,-134,-97
-95,-38,50,66,-76,3,16,27,-3,-128,-134,-91
-89,-38,44,60,-70,3,11,27,-3,-128,-128,-91
-95,-32,56,60,-76,3,11,27,3,-128,-128,-85
-89,-20,62,54,-76,15,5,27,3,-122,-116,-85
-83,-20,56,48,-70,9,5,27,9,-122,-110,-79
-77,-14,56,42,-70,15,11,33,9,-116,-110,-73
-71,-3,62,36,-70,21,11,33,9,-116,-110,-67
-65,-3,62,30,-64,27,16,39,9,-105,-110,-61
-59,-3,62,24,-58,27,16,45,9,-105,-110,-49
-65,-3,68,24,-64,33,16,39,15,-105,-110,-55
-65,-3,68,24,-64,33,16,39,15,-105,-104,-43
-77,-3,74,36,-76,33,16,33,27,-105,-98,-49
-77,-3,74,36,-76,33,16,33,27,-105,-98,-37
-71,-3,74,30,-70,33,16,33,33,-105,-98,-37
-65,9,80,18,-70,45,16,33,33,-105,-92,-37
-65,15,86,18,-76,51,16,33,45,-105,-98,-37
-65,15,86,18,-76,51,16,27,45,-105,-92,-43
-71,9,86,24,-76,45,16,27,39,-105,-86,-37
-71,9,86,24,-76,45,16,27,39,-105,-86,-31
-77,9,92,24,-82,51,16,27,33,-105,-86,-25
-77,3,86,30,-82,45,16,33,27,-105,-92,-25
-65,9,80,18,-70,45,16,33,27,-105,-92,-25
-59,9,74,18,-64,39,16,33,27,-105,-92,-25
-53,9,68,12,-58,39,11,33,27,-105,-92,-31
-53,9,68,12,-58,39,11,27,21,-105,-92,-31
-59,9,74,18,-64,39,5,27,21,-105,-92,-31
-59,3,68,18,-64,33,5,27,15,-105,-80,-25
-77,-3,80,30,-76,39,-1,27,15,-105,-80,-20
-65,-3,68,24,-64,33,-1,27,9,-105,-80,-20
-59,9,74,18,-64,39,-7,27,9,-105,-80,-20
-59,9,74,18,-64,39,-13,27,9,-110,-86,-20
-53,21,80,6,-64,51,-19,27,9,-110,-86,-20
-47,21,74,6,-58,45,-25,27,15,-110,-86,-20
-23,33,62,1,-40,45,-13,33,27,-99,-75,-20
-59,-3,56,24,-58,21,-13,27,21,-105,-75,-20
-77,-20,50,48,-64,9,-13,27,21,-105,-80,-20
-53,-3,44,24,-52,15,-7,27,15,-105,-80,-20
-41,15,62,6,-52,39,-13,27,15,-110,-92,-20
-47,9,62,12,-52,33,-13,27,9,-116,-92,-20
-47,9,62,12,-52,33,-13,22,3,-116,-92,-20
-53,3,62,18,-58,33,-13,16,-3,-122,-92,-20
-53,3,62,18,-58,33,-13,10,-3,-122,-92,-20
-59,-3,62,24,-58,27,-19,16,-3,-116,-92,-20
-59,3,68,18,-64,33,-13,16,-3,-116,-86,-20
-59,9,74,18,-64,39,-7,22,3,-110,-80,-8
-59,15,80,12,-70,45,-7,27,15,-105,-75,-2
-47,27,80,6,-64,51,-7,27,15,-105,-75,-8
-47,33,86,6,-64,57,-1,27,15,-105,-75,-2
-41,51,98,1,-70,75,-1,33,15,-105,-75,-8
-41,51,98,1,-70,75,11,45,27,-105,-69,-2
-41,51,98,1,-70,75,16,45,27,-105,-63,-2
-41,57,104,1,-70,81,16,51,33,-99,-63,-2
-41,57,104,1,-70,81,16,57,39,-93,-69,4
-41,51,98,1,-70,75,22,57,39,-93,-75,4
-47,51,104,6,-76,75,22,51,39,-99,-75,4
-47,51,104,6,-76,75,22,51,45,-93,-75,4
-53,51,110,6,-82,81,16,45,45,-99,-75,4
-47,69,122,-5,-82,93,16,57,51,-87,-75,16
-35,75,116,-11,-76,93,16,57,51,-81,-69,16
-29,93,128,-23,-76,111,16,51,57,-81,-57,22
-29,87,122,-23,-76,105,11,45,51,-93,-57,16
-29,87,122,-23,-76,105,-1,33,51,-93,-63,16
-29,87,122,-23,-76,105,-7,27,39,-87,-69,10
-29,81,116,-17,-70,99,-13,27,39,-93,-69,10
-29,81,116,-17,-70,99,-31,22,33,-87,-75,4
-29,81,116,-17,-70,99,-43,16,27,-93,-75,4
-35,75,116,-11,-76,93,-55,-2,15,-105,-75,-2
-35,69,110,-11,-70,87,-55,-8,9,-105,-75,-2
-41,57,104,1,-70,81,-67,-20,3,-105,-75,-2
-47,45,98,6,-70,69,-73,-26,-3,-105,-75,-8
-35,51,92,1,-64,69,-73,-26,-3,-105,-75,-2
-29,81,116,-17,-70,99,-73,-20,-3,-105,-75,-2
-17,87,110,-29,-64,99,-67,-14,-3,-105,-75,4
-17,81,104,-23,-58,93,-79,-14,-3,-105,-75,4
-12,81,98,-29,-52,87,-73,-14,3,-105,-75,4
-12,75,86,-29,-46,81,-67,-14,-3,-105,-75,4
-12,69,74,-29,-34,75,-61,-8,-3,-105,-75,-2
-12,63,68,-23,-34,69,-67,-8,-3,-105,-80,-2
-12,39,50,-11,-28,45,-67,-20,-8,-116,-92,-14
-23,9,38,6,-28,21,-67,-20,-8,-128,-98,-20
-29,-3,20,12,-28,3,-61,-26,-14,-140,-104,-25
-35,-8,20,18,-28,3,-55,-14,-14,-140,-110,-31
-47,-20,20,30,-34,3,-55,-8,-14,-140,-116,-37
-53,-20,26,36,-40,3,-55,-8,-14,-140,-116,-43
-53,-20,26,36,-40,3,-49,-8,-14,-146,-122,-55
-59,-26,26,42,-46,3,-49,-8,-26,-152,-134,-61
-71,-44,20,54,-46,-8,-55,-8,-26,-158,-140,-61
-77,-68,8,72,-40,-26,-55,-14,-32,-164,-146,-67
-89,-86,8,84,-46,-38,-61,-20,-38,-170,-146,-67
-89,-98,-3,90,-40,-50,-61,-26,-44,-170,-152,-73
-83,-86,3,84,-40,-44,-73,-32,-44,-170,-152,-79
-77,-80,3,78,-34,-38,-73,-38,-44,-164,-158,-79
-71,-68,8,66,-34,-32,-73,-38,-44,-158,-152,-79
-65,-62,8,60,-34,-26,-73,-32,-50,-152,-152,-79
-59,-50,8,54,-34,-20,-67,-26,-44,-140,-146,-73
-47,-44,8,42,-22,-20,-67,-26,-44,-134,-146,-67
-41,-38,8,36,-22,-14,-61,-20,-32,-116,-128,-61
-41,-38,8,36,-22,-14,-61,-8,-20,-105,-122,-49
-41,-38,8,36,-22,-14,-61,10,-14,-105,-116,-37
-41,-38,8,36,-22,-14,-49,4,-8,-105,-116,-31
-53,-50,8,48,-28,-20,-55,10,-3,-105,-116,-37
-35,-26,8,30,-22,-8,-61,22,-3,-99,-104,-31
-17,-14,8,12,-11,-2,-61,22,3,-87,-98,-20
-12,-20,-3,12,-11,-14,-49,27,21,-75,-86,-14
0,-8,-15,6,7,-8,-37,51,45,-45,-75,-8
6,-8,-21,6,13,-14,-19,63,63,-33,-51,-2
0,-26,-33,6,13,-26,-13,87,75,-21,-39,10
18,-38,-63,6,37,-50,-1,105,87,-15,-39,4
36,-50,-93,6,61,-68,16,117,99,3,-27,10
48,-62,-117,6,79,-86,16,135,111,-3,-21,16
48,-50,-105,6,73,-74,16,153,117,9,-15,22
78,-44,-129,-11,103,-86,16,183,129,33,-3,34
108,-62,-177,-17,139,-116,5,195,153,51,15,40
114,-62,-183,-17,145,-122,5,213,159,57,27,52
126,-50,-183,-29,151,-116,16,243,195,87,45,82
138,-44,-189,-41,163,-116,16,267,237,123,81,100
144,-26,-177,-53,157,-98,11,285,249,147,117,136
186,-8,-201,-83,193,-104,11,285,267,165,141,172
240,9,-231,-125,235,-104,-7,291,267,177,159,202
270,33,-231,-155,253,-92,-13,285,267,189,177,220
294,57,-231,-179,265,-80,-25,297,273,213,201,244
336,99,-231,-221,283,-62,-37,309,279,231,219,274
378,147,-231,-257,301,-32,-61,297,267,249,243,310
414,159,-249,-281,331,-38,-103,267,249,243,267,358
456,147,-303,-299,379,-74,-139,219,225,219,261,370
504,135,-369,-317,439,-110,-211,183,195,201,273,376
588,141,-447,-365,517,-146,-253,165,189,237,309,406
672,111,-555,-389,613,-218,-289,153,189,249,357,448
732,81,-651,-407,697,-278,-319,153,189,255,393,472
792,81,-711,-437,751,-308,-343,141,177,273,417,502
864,93,-765,-479,817,-332,-385,123,177,297,465,538
918,75,-837,-491,877,-374,-415,129,183,315,507,562
960,39,-915,-497,937,-434,-427,153,207,363,567,598
1020,-3,-1029,-503,1021,-512,-415,237,267,417,621,598
1086,-80,-1173,-497,1129,-626,-415,339,339,495,675,598
1146,-134,-1281,-497,1207,-710,-391,453,435,561,723,598
1200,-164,-1365,-509,1279,-758,-349,567,549,639,783,586
1230,-218,-1455,-503,1339,-830,-289,723,681,741,867,580
1278,-314,-1599,-479,1441,-956,-187,903,831,867,939,568
1326,-428,-1755,-449,1537,-1088,-73,1155,999,987,1029,550
1362,-518,-1887,-419,1621,-1202,46,1413,1173,1149,1161,550
1374,-578,-1953,-395,1663,-1262,130,1641,1341,1323,1323,592
1374,-590,-1965,-389,1669,-1274,178,1761,1455,1497,1479,664
1356,-626,-1983,-359,1669,-1304,202,1797,1491,1587,1539,640
1260,-758,-2025,-245,1645,-1394,202,1749,1449,1521,1413,454
1182,-908,-2091,-131,1633,-1496,196,1641,1305,1287,1077,130
1086,-1004,-2097,-35,1591,-1550,190,1503,1137,957,639,-175
966,-1022,-1995,18,1477,-1508,190,1317,927,621,255,-373
798,-986,-1791,90,1291,-1388,166,1071,693,333,-9,-475
642,-944,-1587,144,1111,-1262,154,861,477,93,-188,-523
480,-914,-1401,210,943,-1154,130,645,273,-105,-344,-565
342,-908,-1251,276,793,-1076,70,423,51,-302,-470,-601
234,-884,-1125,318,679,-998,22,231,-140,-470,-596,-655
144,-824,-969,336,553,-896,-7,87,-278,-584,-680,-667
42,-752,-801,348,421,-776,-43,-14,-326,-596,-686,-643
-59,-680,-615,366,271,-650,-37,-80,-338,-566,-650,-601
-149,-620,-471,384,157,-542,-37,-122,-314,-518,-614,-529
-191,-560,-369,372,85,-470,-55,-140,-308,-476,-566,-475
-179,-488,-309,330,61,-404,-67,-152,-284,-422,-512,-415
-143,-404,-255,270,49,-332,-79,-152,-248,-362,-452,-331
-119,-308,-189,216,25,-248,-79,-140,-218,-314,-398,-271
-107,-260,-153,186,13,-212,-79,-122,-188,-266,-344,-241
-107,-242,-135,174,7,-194,-79,-86,-152,-242,-314,-223
-113,-218,-99,162,-11,-158,-67,-56,-122,-218,-296,-217
-125,-164,-33,144,-40,-98,-67,-32,-86,-188,-284,-223
-107,-134,-21,120,-40,-80,-67,-14,-68,-176,-278,-211
-107,-128,-15,114,-40,-74,-67,-8,-74,-176,-278,-193
-113,-104,8,108,-58,-44,-73,-8,-80,-170,-272,-175
-119,-86,26,102,-76,-26,-73,-14,-80,-152,-260,-157
-137,-92,38,114,-88,-20,-79,-26,-86,-152,-254,-133
-155,-98,50,126,-106,-20,-85,-50,-86,-146,-236,-115
-161,-98,56,126,-112,-14,-85,-74,-86,-146,-224,-115
-167,-98,62,132,-118,-14,-85,-74,-86,-140,-224,-115
-167,-98,62,132,-118,-14,-85,-80,-86,-140,-224,-121
-167,-92,68,126,-118,-8,-85,-74,-86,-128,-224,-127
-155,-80,68,114,-112,-2,-79,-68,-80,-134,-224,-133
-149,-68,74,108,-112,3,-73,-68,-80,-134,-230,-133
-143,-44,92,90,-118,15,-73,-62,-80,-146,-230,-139
-143,-32,104,84,-124,27,-67,-62,-80,-146,-236,-139
-149,-32,110,90,-130,33,-79,-74,-86,-140,-230,-127
-155,-38,110,96,-136,27,-79,-80,-86,-140,-230,-121
-167,-50,110,108,-142,21,-79,-86,-86,-122,-218,-121
-173,-56,110,114,-142,21,-79,-86,-86,-122,-218,-115
-167,-50,110,108,-142,21,-91,-98,-86,-128,-224,-115
-161,-50,104,102,-136,21,-91,-98,-86,-128,-224,-121
-155,-44,104,96,-130,21,-97,-104,-86,-134,-230,-121
-149,-38,104,90,-130,27,-103,-104,-86,-134,-224,-121
-155,-32,116,90,-136,33,-121,-98,-86,-128,-224,-127
-155,-32,116,90,-136,33,-121,-104,-86,-128,-230,-127
-161,-26,128,90,-148,45,-121,-104,-86,-122,-230,-133
-161,-26,128,90,-148,45,-121,-104,-86,-122,-236,-121
-167,-26,134,96,-154,45,-121,-110,-86,-116,-236,-121
-167,-26,134,96,-154,45,-127,-122,-92,-116,-236,-121
-167,-20,140,90,-154,51,-127,-128,-92,-110,-230,-115
-173,-20,146,96,-160,57,-127,-128,-92,-105,-224,-115
-179,-26,146,102,-166,51,-127,-134,-98,-105,-230,-127
-185,-26,152,102,-172,57,-139,-134,-98,-105,-230,-127
-191,-20,164,102,-178,63,-139,-146,-104,-105,-236,-127
-209,-26,176,114,-196,69,-139,-146,-110,-110,-242,-127
-203,-20,176,108,-190,69,-145,-152,-110,-110,-242,-127
-197,-8,182,102,-190,81,-151,-158,-110,-110,-242,-121
-179,-3,170,90,-178,75,-151,-158,-122,-116,-242,-121
-191,-3,182,96,-190,81,-151,-158,-122,-116,-242,-115
-191,-3,188,90,-190,87,-145,-158,-116,-110,-242,-109
-197,-3,194,96,-196,93,-145,-164,-116,-105,-242,-109
-191,-3,194,90,-190,93,-151,-164,-110,-105,-236,-103
-191,15,212,78,-202,111,-151,-164,-116,-105,-236,-103
-185,27,218,72,-202,123,-145,-158,-122,-105,-236,-97
-185,39,230,66,-208,135,-145,-158,-122,-105,-230,-97
-179,51,236,54,-208,141,-145,-164,-128,-105,-230,-91
-179,57,242,54,-208,147,-145,-164,-128,-105,-224,-91
-191,51,248,60,-220,147,-157,-170,-134,-105,-224,-91
-197,45,248,66,-220,147,-163,-176,-134,-105,-218,-91
-209,39,248,78,-232,147,-163,-188,-134,-105,-218,-97
-209,33,248,78,-226,141,-157,-194,-146,-105,-218,-97
-209,51,260,72,-238,159,-163,-200,-140,-105,-218,-91
-215,63,278,66,-250,171,-163,-212,-140,-105,-218,-85
-215,81,296,60,-250,189,-169,-212,-140,-99,-212,-79
-209,93,302,48,-250,201,-169,-212,-140,-93,-212,-79
-203,117,320,36,-256,219,-169,-218,-134,-93,-206,-79
-209,129,338,30,-268,237,-163,-218,-128,-87,-200,-73
-203,135,338,24,-268,237,-157,-218,-122,-81,-188,-49
-209,147,356,24,-280,249,-151,-230,-116,-81,-188,-37
-221,147,368,30,-292,255,-169,-242,-128,-93,-188,-43
-239,141,380,42,-304,255,-175,-248,-140,-93,-194,-49
-251,135,392,54,-322,261,-193,-266,-152,-99,-188,-49
-257,135,398,54,-328,261,-199,-272,-164,-99,-194,-49
-251,147,404,48,-328,273,-193,-278,-158,-75,-188,-43
-251,165,416,36,-328,285,-193,-290,-158,-75,-188,-31
-239,195,434,12,-334,309,-187,-284,-152,-69,-182,-20
-233,213,446,6,-334,327,-181,-290,-146,-69,-176,-20
-233,219,452,6,-340,333,-187,-296,-140,-63,-170,-8
-239,231,470,6,-352,345,-193,-302,-146,-69,-164,-8
-233,255,494,-5,-358,375,-187,-314,-140,-63,-152,-2
-227,273,500,-17,-364,387,-187,-320,-140,-63,-152,4
-233,279,512,-17,-370,399,-193,-332,-146,-57,-158,4
-239,279,518,-17,-376,399,-193,-338,-140,-51,-146,16
-251,279,530,-11,-388,405,-199,-350,-146,-51,-146,22
-257,273,536,1,-400,405,-199,-356,-146,-45,-140,28
-257,273,536,1,-400,405,-211,-362,-146,-27,-128,34
-269,285,560,1,-418,423,-211,-368,-140,-27,-128,40
-257,291,554,-11,-406,423,-217,-368,-140,-27,-122,46
-257,303,566,-17,-412,435,-217,-374,-146,-33,-116,52
-257,309,572,-17,-418,441,-217,-380,-146,-27,-110,58
-257,327,590,-29,-424,459,-217,-386,-146,-15,-110,64
-257,321,584,-23,-424,453,-211,-386,-140,-9,-104,76
-251,321,572,-29,-412,447,-211,-386,-140,-3,-98,82
-245,327,572,-35,-406,453,-217,-380,-134,-3,-86,82
-245,339,584,-41,-412,465,-217,-380,-128,9,-75,88
-239,339,578,-47,-406,459,-223,-374,-122,9,-75,94
-233,339,572,-47,-400,459,-223,-374,-116,15,-75,94
-215,345,560,-59,-388,453,-223,-368,-110,21,-75,100
-203,345,548,-65,-376,447,-223,-362,-104,27,-75,100
-191,351,542,-77,-364,447,-223,-350,-104,33,-75,100
-185,351,536,-77,-358,447,-223,-344,-104,33,-69,106
-185,345,530,-77,-358,441,-229,-338,-104,27,-63,106
-179,327,506,-71,-340,417,-235,-332,-104,27,-63,106
-173,321,494,-71,-334,411,-241,-326,-98,27,-57,112
-161,309,476,-71,-316,393,-247,-326,-92,27,-51,112
-155,297,458,-65,-304,375,-241,-314,-86,33,-51,112
-143,303,452,-77,-292,375,-241,-302,-80,39,-45,106
-119,297,422,-83,-268,357,-235,-284,-80,39,-39,106
-101,285,392,-89,-250,339,-229,-278,-80,39,-39,112
-89,273,368,-89,-232,321,-223,-266,-74,39,-33,112
-77,255,338,-83,-208,297,-217,-242,-62,45,-33,106
-65,243,314,-83,-190,279,-211,-224,-44,51,-27,106
-53,237,290,-83,-172,261,-211,-212,-44,51,-27,94
-41,219,260,-83,-154,243,-205,-206,-50,45,-27,82
-35,213,248,-83,-142,231,-199,-194,-44,45,-33,82
-29,183,218,-71,-124,201,-187,-194,-44,51,-39,70
-17,177,200,-71,-106,189,-169,-176,-32,57,-45,70
-12,171,188,-71,-100,177,-163,-152,-20,51,-45,70
-12,141,158,-59,-82,147,-157,-134,-14,51,-51,52
-12,135,146,-59,-76,141,-163,-116,-8,45,-57,52
-12,123,134,-53,-70,129,-157,-98,-3,45,-63,46
-12,105,122,-41,-64,111,-145,-80,-3,45,-69,34
-12,87,104,-29,-58,93,-133,-62,-3,33,-75,28
-12,75,92,-23,-52,81,-127,-56,3,39,-75,16
-6,75,74,-35,-34,75,-109,-44,15,39,-75,10
0,75,68,-35,-28,75,-97,-20,21,45,-75,-2
-6,63,62,-29,-28,63,-91,-14,21,51,-75,-8
0,69,62,-35,-22,69,-79,-2,21,57,-75,-14
0,69,62,-35,-22,69,-67,16,21,51,-75,-20
-12,51,62,-17,-34,57,-61,27,27,45,-92,-20
-12,33,44,-5,-22,39,-55,27,27,39,-98,-20
-12,15,32,6,-22,21,-49,33,33,33,-104,-31
-12,9,26,6,-16,15,-37,45,33,33,-110,-37
-23,-3,26,6,-22,9,-31,39,33,21,-116,-49
-29,-8,14,18,-22,3,-31,45,27,15,-122,-55
-35,-8,20,18,-28,3,-31,39,27,9,-122,-61
-35,-8,20,18,-28,3,-31,39,27,9,-128,-67
-35,-20,8,24,-22,-2,-31,33,27,3,-128,-67
-41,-26,8,30,-28,-2,-31,33,21,3,-134,-73
-47,-32,8,36,-28,-8,-31,27,21,3,-140,-73
-47,-38,8,42,-28,-14,-31,27,21,-3,-140,-73
-47,-50,3,48,-22,-26,-31,27,21,-3,-152,-79
-47,-56,-3,48,-16,-32,-37,27,21,-9,-152,-79
-41,-50,-3,42,-16,-26,-37,27,15,-15,-158,-97
-47,-50,3,48,-22,-26,-31,27,15,-21,-164,-97
-59,-56,8,54,-28,-26,-37,27,3,-27,-176,-103
-65,-62,8,60,-34,-26,-43,27,-3,-33,-176,-115
-71,-68,8,66,-34,-32,-49,27,-3,-39,-182,-121
-77,-68,8,72,-40,-26,-43,27,-3,-45,-182,-121
-71,-68,8,66,-34,-32,-37,27,-3,-51,-182,-121
-65,-68,3,66,-28,-32,-43,22,-3,-51,-188,-127
-59,-68,-3,60,-22,-38,-37,22,-3,-45,-188,-127
-59,-74,-9,66,-22,-44,-43,16,-3,-45,-188,-127
-53,-80,-21,66,-11,-50,-43,22,-3,-39,-188,-127
-53,-74,-15,60,-16,-44,-43,22,-3,-39,-188,-127
-47,-80,-27,60,-11,-56,-37,27,-3,-21,-188,-121
-47,-86,-33,66,-11,-62,-25,27,-3,-21,-188,-121
-53,-80,-21,66,-11,-50,-25,22,-3,-45,-188,-127
-59,-80,-15,66,-16,-50,-31,22,-3,-45,-188,-127
-71,-86,-9,78,-28,-50,-43,22,-8,-51,-188,-133
-71,-86,-9,78,-28,-50,-49,22,-8,-45,-188,-133
-65,-86,-15,72,-22,-50,-43,22,-3,-45,-182,-133
-65,-86,-15,72,-22,-50,-37,16,-3,-51,-188,-133
-59,-86,-21,72,-16,-56,-31,16,-3,-51,-182,-133
-59,-80,-15,66,-16,-50,-25,22,-3,-45,-182,-127
-59,-80,-15,66,-16,-50,-25,22,-3,-39,-188,-133
-59,-74,-9,66,-22,-44,-25,27,-3,-39,-188,-133
-59,-74,-9,66,-22,-44,-25,27,-3,-45,-188,-139
-65,-74,-3,66,-28,-38,-25,27,-3,-45,-188,-139
-83,-86,3,84,-40,-44,-25,22,-3,-45,-194,-145
-89,-92,3,90,-40,-44,-25,22,-3,-51,-200,-145
-89,-86,8,84,-46,-38,-31,16,-3,-51,-206,-151
-89,-92,3,90,-40,-44,-31,22,3,-45,-194,-151
-89,-86,8,84,-46,-38,-25,22,3,-45,-194,-145
-89,-80,8,84,-46,-32,-25,27,3,-39,-194,-145
-101,-74,20,84,-64,-20,-19,27,3,-39,-194,-145
-101,-74,20,84,-64,-20,-13,27,9,-39,-188,-145
-89,-68,14,78,-52,-20,-7,27,15,-33,-182,-139
-89,-68,14,78,-52,-20,-7,27,15,-33,-182,-133
-89,-56,26,72,-58,-8,5,39,21,-21,-176,-121
-89,-56,26,72,-58,-8,5,45,21,-9,-176,-121
-77,-38,32,54,-58,3,5,51,27,-3,-164,-115
-71,-26,38,48,-58,3,11,51,33,-3,-164,-115
-59,-8,44,30,-52,9,16,57,39,3,-158,-109
-59,-3,62,24,-58,27,16,57,45,3,-158,-103
-65,-8,50,36,-58,15,11,51,39,3,-164,-109
-71,-14,50,42,-64,9,11,45,39,3,-170,-109
-77,-20,50,48,-64,9,5,45,33,9,-170,-115
-71,-32,32,48,-52,3,5,39,33,9,-170,-115
-77,-32,38,54,-58,3,5,39,33,3,-164,-109
-83,-26,50,54,-70,3,5,39,33,3,-164,-109
-89,-26,56,54,-76,9,5,39,33,3,-158,-103
-95,-26,62,60,-82,9,5,45,33,9,-158,-97
-95,-20,68,54,-82,15,16,69,33,-3,-158,-97
-83,-8,68,42,-76,21,16,57,21,3,-164,-97
-65,-8,50,36,-58,15,16,57,27,3,-158,-97
-89,-20,62,54,-76,15,16,57,27,9,-164,-97
-95,-26,62,60,-82,9,16,51,33,9,-158,-97
-95,-26,62,60,-82,9,16,51,33,9,-158,-97
-101,-32,62,66,-82,9,16,45,39,9,-152,-97
-101,-32,62,66,-82,9,16,45,39,9,-152,-97
-95,-26,62,60,-82,9,16,45,39,15,-146,-97
-89,-14,68,48,-82,21,22,45,39,15,-140,-91
-77,-3,74,36,-76,33,40,45,39,21,-128,-79
-71,3,80,24,-76,39,40,51,51,33,-122,-73
-53,21,80,6,-64,51,40,57,51,33,-122,-67
-53,27,86,6,-70,57,46,63,51,33,-122,-55
-41,51,98,1,-70,75,46,69,51,39,-122,-49
-41,51,98,1,-70,75,58,81,63,39,-116,-37
-47,45,98,6,-70,69,70,81,69,45,-98,-43
-47,51,104,6,-76,75,70,87,75,51,-92,-43
-53,45,104,6,-76,75,76,93,87,63,-86,-43
-53,39,98,6,-76,69,82,93,87,63,-86,-43
-59,39,104,6,-82,69,82,93,81,57,-92,-37
-59,39,104,6,-82,69,82,93,81,63,-92,-37
-65,39,110,6,-88,75,76,93,75,57,-98,-31
-59,57,122,6,-88,87,76,105,75,69,-86,-20
-47,69,122,-5,-82,93,82,105,87,75,-80,-20
-41,87,134,-17,-88,111,82,99,93,75,-75,-14
-41,87,134,-17,-88,111,82,93,99,63,-75,-8
-41,87,134,-17,-88,111,70,81,99,63,-75,-8
-35,81,122,-17,-76,99,58,69,81,57,-80,-14
-35,75,116,-11,-76,93,52,63,75,51,-80,-20
-29,69,104,-11,-64,87,28,45,63,45,-86,-20
-29,69,104,-11,-64,87,16,39,51,39,-92,-20
-29,75,110,-17,-70,93,16,27,45,39,-92,-20
-29,75,110,-17,-70,93,16,27,39,39,-92,-20
-29,75,110,-17,-70,93,16,27,39,45,-92,-20
-35,69,110,-11,-70,87,16,22,33,39,-98,-20
-29,63,98,-11,-64,81,16,22,33,45,-92,-20
-29,87,122,-23,-76,105,16,22,27,45,-98,-20
-23,81,110,-23,-64,93,16,27,33,45,-92,-20
-29,69,104,-11,-64,87,5,22,33,45,-92,-20
-29,63,98,-11,-64,81,-1,10,27,39,-92,-20
-23,57,86,-11,-52,69,5,10,21,33,-92,-20
-23,45,74,-5,-46,57,-1,4,9,27,-98,-20
-23,39,68,1,-46,51,-7,4,9,15,-104,-20
-29,21,56,6,-40,39,-1,-8,-3,9,-116,-20
-41,-3,44,12,-40,21,-1,-8,-3,-3,-122,-31
-47,-8,32,24,-40,3,11,-14,-3,-9,-128,-37
-47,-8,32,24,-40,3,16,-2,-3,-9,-134,-43
-65,-32,26,48,-46,3,11,4,-3,-9,-134,-43
-77,-38,32,54,-58,3,11,4,-3,-9,-134,-49
-83,-50,26,66,-58,-8,11,4,-3,-15,-134,-55
-95,-62,26,78,-64,-14,11,4,-14,-21,-146,-61
-95,-68,20,78,-58,-20,11,-2,-14,-33,-158,-67
-101,-86,8,90,-58,-32,11,-14,-20,-39,-164,-73
-101,-92,8,96,-52,-38,11,-26,-26,-51,-170,-79
-101,-98,8,96,-52,-44,11,-38,-32,-51,-176,-85
-95,-92,8,90,-46,-44,-1,-38,-38,-63,-188,-91
-89,-92,3,90,-40,-44,-1,-44,-38,-63,-194,-91
-83,-86,3,84,-40,-44,-1,-38,-44,-69,-200,-91
-77,-86,-3,78,-34,-44,-1,-32,-50,-69,-200,-91
-71,-74,3,72,-34,-38,5,-26,-44,-63,-194,-85
-59,-68,-3,60,-22,-38,5,-26,-44,-63,-194,-85
-53,-62,-3,54,-22,-32,11,-20,-32,-51,-176,-79
-53,-62,-3,54,-22,-32,11,-8,-20,-39,-170,-73
-53,-50,8,48,-28,-20,-1,-14,-26,-33,-176,-61
-41,-50,-3,42,-16,-26,-1,-8,-20,-39,-176,-67
-41,-38,8,36,-22,-14,5,-2,-14,-21,-164,-61
-47,-38,8,42,-28,-14,11,10,-3,-3,-140,-55
-29,-38,-3,30,-11,-20,11,22,15,9,-134,-37
-23,-32,-3,24,-11,-20,16,27,21,21,-122,-25
-12,-44,-27,24,1,-38,16,39,21,27,-110,-20
-6,-44,-45,18,19,-44,16,39,27,39,-110,-14
-12,-50,-45,24,13,-44,16,51,39,39,-98,-14
-6,-50,-51,18,19,-50,22,69,51,45,-98,-8
12,-50,-69,12,37,-56,28,81,63,63,-98,-14
24,-62,-93,12,55,-74,46,111,87,69,-80,-8
36,-86,-129,18,79,-104,52,129,105,93,-75,10
66,-80,-153,6,109,-116,64,159,129,117,-51,22
84,-74,-165,1,121,-116,64,195,141,135,-33,40
90,-86,-183,6,133,-134,76,213,159,135,-21,52
102,-110,-219,6,157,-164,76,231,171,153,-3,58
114,-104,-225,1,169,-164,94,237,177,153,9,76
132,-62,-201,-29,163,-128,106,255,195,183,21,88
162,-32,-201,-59,181,-116,106,273,237,225,69,124
198,-3,-207,-89,199,-104,100,303,255,261,99,166
234,21,-213,-131,229,-86,82,297,255,261,123,184
282,45,-231,-167,259,-86,58,297,261,261,135,202
300,51,-243,-179,271,-92,46,321,279,291,165,226
342,63,-273,-203,307,-98,46,333,291,309,195,262
390,99,-285,-239,337,-86,16,309,285,327,219,298
432,123,-303,-275,367,-86,-19,273,267,327,237,334
474,123,-345,-293,409,-104,-67,243,231,309,249,340
528,117,-411,-323,475,-140,-127,201,189,285,237,346
612,111,-495,-359,553,-188,-187,177,177,297,261,376
690,81,-603,-383,649,-254,-217,177,177,315,297,394
756,57,-699,-407,727,-314,-235,189,189,333,327,412
828,45,-777,-437,805,-362,-253,183,177,345,363,436
894,51,-837,-473,865,-386,-283,177,171,363,405,466
948,39,-903,-491,925,-428,-295,165,183,381,447,502
984,-3,-993,-485,985,-494,-307,189,201,405,477,526
1038,-68,-1113,-479,1075,-590,-295,261,255,459,525,526
1110,-122,-1233,-485,1171,-680,-295,345,327,513,573,514
1152,-176,-1329,-479,1237,-746,-277,441,399,561,633,502
1164,-218,-1383,-473,1267,-794,-241,555,489,633,663,484
1176,-254,-1437,-455,1303,-842,-187,705,621,741,729,484
1206,-296,-1509,-455,1357,-902,-109,861,765,867,831,478
1218,-380,-1605,-419,1411,-986,-1,1047,915,987,915,466
1254,-488,-1743,-383,1495,-1112,118,1311,1071,1119,1029,472
1302,-578,-1887,-359,1591,-1226,226,1575,1227,1275,1149,496
1344,-626,-1971,-353,1657,-1298,268,1737,1329,1371,1257,520
1332,-704,-2037,-311,1687,-1370,256,1785,1341,1413,1299,472
1272,-800,-2079,-233,1675,-1442,274,1803,1317,1359,1167,304
1194,-950,-2145,-119,1669,-1544,304,1797,1239,1167,861,16
1086,-1070,-2163,1,1621,-1616,304,1695,1065,843,417,-301
954,-1106,-2061,72,1501,-1580,256,1473,807,471,39,-529
804,-1082,-1893,132,1345,-1484,214,1167,543,183,-212,-631
636,-1052,-1695,204,1165,-1370,178,903,321,-33,-368,-685
492,-998,-1497,246,991,-1244,154,705,159,-170,-470,-685
366,-956,-1323,288,841,-1136,130,513,3,-296,-542,-679
228,-932,-1161,348,691,-1040,112,345,-128,-404,-620,-703
126,-896,-1023,378,571,-962,76,201,-242,-506,-686,-703
60,-830,-897,378,475,-860,34,63,-314,-530,-710,-673
6,-716,-723,348,367,-722,22,-2,-326,-506,-686,-625
-35,-608,-567,318,259,-590,16,-44,-320,-464,-638,-565
-107,-536,-429,318,157,-482,5,-104,-320,-434,-602,-505
-155,-506,-351,330,91,-434,-19,-128,-308,-398,-566,-463
-155,-464,-303,306,67,-386,-19,-128,-284,-344,-518,-415
-155,-416,-255,282,43,-338,-19,-122,-242,-302,-464,-355
-143,-362,-219,246,31,-290,-7,-110,-212,-242,-410,-301
-161,-308,-147,234,-11,-230,5,-92,-158,-194,-362,-259
-161,-278,-117,222,-16,-200,16,-92,-134,-164,-338,-247
-155,-242,-81,198,-34,-164,5,-86,-128,-152,-332,-247
-143,-188,-39,162,-46,-116,-7,-80,-110,-140,-320,-229
-131,-152,-15,138,-52,-86,-13,-68,-104,-134,-314,-217
-131,-128,8,126,-64,-62,-13,-68,-104,-116,-308,-199
-131,-122,8,126,-70,-56,-19,-68,-98,-116,-302,-181
-143,-122,14,132,-82,-50,-25,-86,-98,-110,-284,-163
-167,-128,32,144,-100,-44,-19,-104,-98,-105,-272,-151
-179,-128,44,150,-112,-38,-19,-104,-98,-105,-272,-151
-197,-134,56,162,-130,-32,-13,-104,-98,-105,-272,-145
-203,-128,68,162,-136,-26,-13,-98,-98,-93,-272,-151
-191,-116,68,150,-130,-20,-19,-98,-86,-87,-260,-145
-179,-98,74,138,-130,-8,-19,-98,-86,-87,-260,-145
-173,-74,92,120,-136,3,-31,-98,-80,-87,-248,-139
-167,-56,104,108,-136,15,-31,-98,-80,-87,-248,-139
-161,-56,98,108,-130,15,-37,-98,-86,-93,-254,-133
-161,-56,98,108,-130,15,-37,-104,-86,-93,-254,-127
-161,-68,86,114,-124,3,-31,-98,-86,-87,-254,-133
-161,-68,86,114,-124,3,-31,-98,-86,-87,-254,-127
-167,-68,92,114,-130,3,-31,-104,-86,-81,-248,-121
-173,-68,98,120,-136,9,-25,-104,-86,-81,-242,-127
-179,-68,104,120,-142,9,-19,-104,-86,-75,-236,-121
-185,-62,116,120,-154,21,-19,-104,-86,-75,-224,-121
-185,-50,128,114,-160,33,-37,-98,-92,-81,-230,-127
-185,-50,128,114,-160,33,-37,-104,-92,-81,-242,-127
-185,-38,140,108,-166,45,-37,-104,-98,-87,-248,-133
-185,-38,140,108,-166,45,-37,-104,-98,-87,-260,-121
-197,-44,146,120,-172,45,-37,-110,-92,-87,-254,-121
-197,-50,140,120,-172,39,-43,-122,-98,-93,-254,-121
-203,-50,146,126,-178,39,-43,-128,-92,-93,-242,-115
-209,-56,146,132,-178,39,-43,-128,-92,-87,-236,-115
-209,-50,152,126,-184,45,-37,-128,-92,-81,-242,-115
-209,-44,158,126,-184,51,-49,-128,-92,-75,-242,-115
-209,-26,176,114,-196,69,-43,-134,-92,-69,-248,-103
-221,-26,188,120,-208,75,-43,-134,-98,-75,-254,-103
-221,-20,194,120,-208,81,-49,-140,-98,-75,-254,-109
-215,-8,200,108,-208,87,-55,-146,-98,-75,-254,-103
-203,-3,194,102,-202,87,-55,-146,-110,-81,-254,-109
-215,-3,206,108,-214,93,-55,-146,-110,-81,-254,-103
-221,-8,206,114,-214,93,-43,-152,-110,-87,-254,-103
-227,-8,212,114,-220,93,-37,-158,-110,-81,-254,-103
-227,-14,206,120,-220,87,-37,-164,-110,-87,-248,-103
-227,-3,224,108,-226,105,-31,-164,-116,-87,-248,-103
-233,3,242,108,-238,123,-31,-158,-116,-81,-248,-97
-233,9,248,102,-238,129,-31,-158,-116,-81,-242,-97
-239,21,260,102,-250,141,-37,-164,-116,-75,-242,-91
-239,21,260,102,-250,141,-37,-164,-116,-75,-236,-91
-239,33,272,96,-250,153,-55,-170,-122,-75,-242,-79
-239,33,272,96,-250,153,-61,-176,-122,-75,-236,-79
-239,45,284,90,-256,165,-67,-188,-122,-75,-242,-73
-233,45,278,84,-250,165,-61,-194,-134,-75,-242,-73
-245,51,296,90,-268,177,-67,-200,-134,-81,-248,-73
-251,51,308,96,-280,183,-73,-212,-134,-81,-248,-73
-263,57,326,96,-292,195,-79,-212,-140,-87,-248,-73
-263,57,326,96,-292,195,-85,-212,-140,-81,-248,-79
-257,81,344,84,-298,213,-85,-218,-140,-81,-242,-73
-257,99,362,72,-310,231,-85,-218,-140,-75,-230,-67
-251,105,362,66,-304,237,-79,-218,-140,-69,-218,-37
-251,123,380,60,-316,249,-79,-230,-140,-69,-212,-25
-251,147,398,42,-322,267,-79,-236,-134,-63,-206,-25
-257,153,416,48,-334,279,-79,-242,-134,-57,-206,-25
-257,171,434,36,-346,297,-79,-254,-128,-45,-194,-20
-257,183,446,30,-352,309,-79,-260,-128,-39,-194,-20
-263,189,458,30,-358,321,-85,-272,-134,-27,-188,-20
-263,195,464,30,-364,327,-91,-284,-140,-27,-188,-20
-263,219,488,18,-376,351,-97,-284,-146,-33,-182,-14
-263,225,494,12,-376,357,-97,-290,-146,-33,-176,-8
-275,219,494,24,-388,357,-103,-296,-140,-27,-176,4
-281,231,512,18,-400,369,-103,-302,-146,-33,-170,4
-287,243,536,12,-412,393,-97,-314,-140,-27,-164,10
-281,261,548,6,-418,405,-91,-320,-140,-27,-164,16
-281,273,560,6,-424,417,-97,-326,-134,-21,-164,22
-281,279,566,6,-424,423,-97,-332,-128,-15,-152,34
-287,285,578,6,-436,435,-103,-338,-122,-15,-146,46
-293,285,584,6,-442,435,-103,-344,-122,-9,-140,52
-287,297,590,1,-442,447,-115,-356,-128,3,-128,52
-299,309,614,1,-460,465,-115,-362,-122,3,-128,58
-281,327,614,-17,-448,471,-121,-368,-128,-3,-122,58
-281,339,626,-23,-454,483,-121,-374,-134,-9,-116,64
-281,345,632,-23,-460,489,-133,-380,-134,-3,-110,70
-281,357,644,-29,-466,495,-133,-386,-134,9,-110,76
-281,351,638,-29,-460,489,-139,-386,-128,15,-104,88
-269,345,620,-29,-448,483,-139,-386,-128,21,-98,94
-263,351,620,-35,-442,489,-133,-392,-122,27,-86,106
-263,363,632,-41,-448,495,-133,-392,-116,39,-75,112
-257,363,626,-47,-442,489,-127,-398,-110,45,-75,130
-251,363,620,-47,-436,489,-127,-398,-104,51,-75,130
-245,369,614,-59,-430,489,-127,-392,-104,51,-75,130
-233,369,602,-65,-418,489,-127,-386,-98,57,-75,130
-227,375,602,-71,-412,489,-127,-374,-104,57,-75,124
-221,375,596,-71,-406,489,-127,-368,-104,57,-69,130
-209,375,584,-77,-394,483,-133,-356,-98,57,-63,136
-197,363,560,-77,-376,465,-133,-350,-92,63,-63,136
-179,363,542,-89,-358,453,-133,-338,-80,69,-57,148
-161,357,518,-95,-340,441,-133,-338,-68,75,-51,148
-167,333,500,-77,-334,417,-127,-338,-74,75,-51,142
-161,333,494,-83,-328,417,-127,-326,-74,75,-45,136
-149,315,470,-77,-304,393,-121,-320,-86,69,-39,130
-137,297,440,-77,-286,369,-115,-314,-92,63,-39,136
-119,291,416,-83,-262,351,-121,-308,-86,63,-39,136
-107,279,392,-83,-250,333,-109,-290,-74,69,-39,130
-89,273,368,-89,-232,321,-115,-278,-56,75,-39,130
-77,267,350,-89,-214,309,-115,-272,-56,75,-39,118
-65,243,314,-83,-190,279,-115,-248,-56,69,-39,106
-65,237,302,-77,-184,267,-109,-230,-50,69,-39,106
-59,201,260,-65,-160,231,-103,-218,-44,75,-45,94
-53,189,248,-59,-148,219,-85,-200,-32,81,-45,94
-53,171,230,-53,-142,201,-79,-188,-26,75,-51,82
-53,141,200,-35,-124,171,-79,-176,-20,69,-57,64
-53,123,182,-29,-118,153,-85,-170,-20,63,-69,52
-53,111,170,-23,-112,141,-85,-158,-14,57,-75,46
-47,105,158,-23,-100,129,-73,-128,-8,57,-75,46
-41,93,140,-17,-88,117,-61,-98,-3,45,-75,46
-29,93,128,-23,-76,111,-55,-80,-3,51,-80,46
-12,99,110,-41,-58,105,-37,-56,3,51,-80,46
-12,93,110,-35,-58,99,-25,-32,15,51,-80,28
-17,75,98,-23,-58,87,-13,-26,15,57,-86,16
-23,75,104,-17,-64,87,-1,-14,21,57,-86,4
-23,69,98,-17,-58,81,16,4,21,51,-86,-8
-29,57,92,-5,-58,75,16,16,27,51,-104,-14
-23,45,74,-5,-46,57,16,22,27,45,-110,-20
-17,33,56,1,-34,45,16,27,33,45,-116,-20
-12,33,50,-5,-28,39,22,33,33,45,-122,-25
-29,3,38,6,-34,21,28,39,27,33,-134,-37
-41,-8,26,24,-34,3,28,45,21,27,-140,-43
-53,-26,20,36,-40,3,28,51,15,21,-146,-49
-59,-32,20,42,-40,-2,28,51,15,21,-152,-55
-53,-32,14,42,-34,-2,34,45,21,15,-146,-55
-53,-32,14,42,-34,-2,34,45,15,15,-152,-61
-53,-26,20,36,-40,3,40,39,21,15,-152,-61
-47,-26,14,36,-34,-2,40,39,21,9,-152,-61
-59,-50,8,54,-34,-20,34,33,15,-3,-170,-67
-59,-56,8,54,-28,-26,28,33,9,-9,-170,-67
-65,-62,8,60,-34,-26,22,27,-3,-27,-182,-85
-71,-62,8,66,-40,-26,28,27,-3,-33,-188,-85
-77,-68,8,72,-40,-26,28,27,-3,-27,-188,-85
-77,-74,8,72,-40,-32,22,27,-8,-27,-188,-97
-77,-80,3,78,-34,-38,22,27,-3,-21,-182,-97
-77,-80,3,78,-34,-38,28,27,-3,-21,-182,-97
-71,-80,-3,72,-28,-44,22,27,-8,-33,-188,-97
-65,-80,-9,72,-22,-44,16,22,-8,-33,-194,-103
-59,-80,-15,66,-16,-50,16,22,-14,-33,-200,-103
-59,-86,-21,72,-16,-56,16,16,-14,-33,-200,-103
-65,-86,-15,72,-22,-50,16,22,-14,-39,-194,-103
-65,-80,-9,72,-22,-44,16,22,-14,-39,-194,-103
-71,-80,-3,72,-28,-44,16,27,-14,-33,-188,-97
-71,-86,-9,78,-28,-50,22,27,-14,-33,-188,-97
-65,-80,-9,72,-22,-44,22,27,-14,-45,-194,-103
-65,-80,-9,72,-22,-44,22,27,-14,-45,-194,-103
-65,-86,-15,72,-22,-50,16,27,-8,-39,-200,-109
-59,-86,-21,72,-16,-56,16,27,-8,-33,-200,-109
-65,-92,-21,78,-16,-56,16,27,-14,-39,-200,-115
-65,-92,-21,78,-16,-56,16,27,-14,-45,-206,-115
-71,-98,-21,84,-22,-62,16,27,-20,-51,-206,-121
-71,-92,-15,78,-22,-56,22,27,-20,-45,-206,-115
-77,-92,-9,84,-28,-50,22,27,-14,-33,-200,-115
-83,-86,3,84,-40,-44,22,27,-14,-33,-200,-115
-89,-86,8,84,-46,-38,22,27,-3,-33,-188,-115
-101,-86,8,90,-58,-32,22,27,-3,-33,-188,-115
-107,-86,14,96,-64,-32,22,27,-3,-33,-188,-109
-101,-86,8,90,-58,-32,22,27,-3,-39,-194,-109
-89,-68,14,78,-52,-20,16,27,-3,-39,-194,-103
-77,-68,8,72,-40,-26,16,33,-3,-33,-182,-103
-83,-74,8,78,-46,-32,22,33,-3,-33,-182,-103
-89,-68,14,78,-52,-20,22,39,-3,-27,-182,-103
-107,-74,26,90,-70,-20,28,39,-3,-27,-182,-109
-113,-74,32,90,-76,-14,34,39,-3,-27,-176,-109
-101,-68,26,84,-64,-14,40,39,3,-21,-176,-115
-101,-68,26,84,-64,-14,40,39,3,-21,-176,-109
-101,-56,38,78,-70,-2,52,45,9,-9,-176,-109
-101,-56,38,78,-70,-2,52,45,9,3,-176,-109
-107,-62,38,84,-76,-8,46,45,9,-3,-176,-115
-107,-68,32,84,-70,-14,52,45,9,-9,-176,-115
-113,-74,32,90,-76,-14,52,45,9,-15,-182,-121
-119,-74,38,96,-82,-14,52,45,9,-21,-182,-115
-113,-68,38,90,-76,-8,52,45,9,-15,-182,-109
-119,-62,50,90,-88,-2,52,45,15,-15,-182,-103
-113,-44,62,78,-88,3,52,51,15,-3,-176,-97
-107,-44,56,72,-82,3,52,51,21,-3,-170,-91
-101,-38,56,66,-82,3,52,51,21,-3,-170,-91
-101,-32,62,66,-82,9,52,51,21,-3,-170,-91
-95,-26,62,60,-82,9,52,51,21,3,-170,-91
-95,-26,62,60,-82,9,52,57,21,9,-170,-85
-101,-26,68,60,-88,15,58,57,21,9,-170,-85
-107,-32,68,66,-88,9,58,57,21,15,-164,-73
-119,-38,74,78,-100,9,58,57,27,15,-158,-73
-125,-44,74,84,-100,9,58,57,27,15,-158,-61
-125,-38,80,78,-106,15,64,51,21,9,-158,-67
-119,-26,86,72,-106,21,64,45,15,9,-158,-73
-125,-20,98,72,-112,33,64,39,15,3,-164,-79
-125,-20,98,72,-112,33,64,27,9,3,-164,-91
-119,-26,86,72,-106,21,76,33,9,3,-158,-85
-119,-20,92,66,-106,27,76,33,15,3,-158,-79
-113,-20,86,66,-100,27,82,39,15,3,-158,-73
-113,-20,86,66,-100,27,82,45,15,9,-164,-73
-113,-14,92,60,-106,33,82,39,15,3,-158,-67
-107,-14,86,60,-100,27,82,39,15,3,-158,-67
-113,-14,92,60,-106,33,82,33,15,-3,-152,-67
-113,-14,92,60,-106,33,82,27,9,-3,-152,-67
-107,-8,92,54,-100,33,82,27,9,-3,-158,-73
-107,-8,92,54,-100,33,82,27,3,-3,-146,-67
-113,-8,98,60,-106,39,82,27,3,3,-152,-67
-101,-3,92,48,-100,39,82,27,-3,9,-152,-67
-101,-3,92,48,-100,39,88,27,-3,3,-152,-61
-101,-8,86,54,-94,33,82,27,-3,-9,-158,-67
-101,-8,86,54,-94,33,88,27,-3,-15,-158,-61
-95,-14,74,54,-88,21,82,27,3,-15,-158,-61
-101,-20,74,60,-88,21,76,22,-3,-15,-164,-61
-101,-26,68,60,-88,15,76,16,-3,-15,-164,-67
-101,-32,62,66,-82,9,70,16,-3,-21,-164,-67
-101,-26,68,60,-88,15,64,16,-8,-27,-164,-73
-101,-38,56,66,-82,3,76,27,-8,-15,-164,-67
-101,-26,68,60,-88,15,70,27,-8,-9,-164,-67
-89,-26,56,54,-76,9,76,27,-8,-9,-164,-67
-89,-44,38,66,-64,3,94,27,-3,-3,-152,-61
-95,-44,44,66,-70,3,88,27,-3,-9,-158,-61
-95,-44,44,66,-70,3,88,27,-3,-9,-158,-61
-101,-44,50,72,-76,3,82,22,-8,-15,-164,-61
-101,-44,50,72,-76,3,82,22,-8,-15,-164,-61
-107,-50,50,78,-82,3,76,16,-14,-15,-164,-67
-107,-44,56,72,-82,3,82,16,-14,-21,-158,-61
-107,-38,62,72,-88,3,88,10,-20,-21,-152,-55
-107,-32,68,66,-88,9,88,16,-8,-15,-146,-49
-95,-14,74,54,-88,21,82,16,-8,-15,-152,-55
-95,-8,80,48,-88,27,88,16,-8,-15,-152,-55
-89,3,98,36,-94,51,82,16,-8,-9,-158,-61
-89,3,98,36,-94,51,94,22,-3,-9,-152,-61
-89,3,98,36,-94,51,100,27,-3,-15,-146,-61
-89,9,104,30,-94,57,100,27,-3,-9,-140,-61
-89,9,104,30,-94,57,100,33,3,-9,-146,-55
-89,3,98,36,-94,51,106,33,3,-9,-146,-55
-95,-3,98,42,-94,45,118,33,3,-9,-140,-55
-95,-3,98,42,-94,45,118,33,9,-3,-140,-55
-101,-3,98,48,-100,45,124,33,9,-3,-134,-55
-95,9,110,36,-100,57,124,45,15,9,-122,-43
-77,27,110,18,-94,69,130,51,27,27,-110,-31
-71,51,128,6,-100,87,130,51,33,27,-98,-20
-65,57,128,6,-94,93,130,51,39,27,-92,-20
-65,63,134,6,-100,99,118,45,39,27,-98,-20
-59,57,122,6,-88,87,112,39,27,27,-104,-20
-59,51,116,6,-88,81,106,33,27,21,-104,-20
-53,45,104,6,-76,75,88,27,21,21,-110,-20
-53,45,104,6,-76,75,76,27,15,15,-116,-20
-47,51,104,6,-76,75,64,22,9,9,-110,-20
-41,51,98,1,-70,75,64,16,3,9,-110,-20
-35,51,92,1,-64,69,52,16,3,9,-104,-20
-35,45,86,1,-58,63,46,10,-3,3,-110,-20
-29,51,86,-5,-58,69,34,10,-3,3,-104,-20
-23,81,110,-23,-64,93,34,10,-3,3,-110,-20
-17,87,110,-29,-64,99,28,16,-3,-3,-104,-20
-17,81,104,-23,-58,93,16,10,-3,-3,-104,-20
-29,63,98,-11,-64,81,22,-2,-3,-9,-98,-20
-29,45,80,1,-52,63,34,-2,-8,-9,-98,-20
-41,21,68,6,-52,45,40,-8,-20,-15,-98,-25
-47,3,56,12,-52,27,40,-8,-26,-21,-104,-25
-41,3,50,12,-46,27,40,-8,-32,-27,-116,-31
-53,-3,50,24,-52,21,40,-8,-26,-39,-122,-43
-47,-3,44,18,-46,15,46,-2,-20,-45,-128,-49
-47,3,56,12,-52,27,52,10,-14,-45,-134,-55
-53,-8,38,30,-46,9,52,10,-20,-45,-134,-55
-59,-8,44,30,-52,9,52,10,-20,-45,-134,-61
-53,-20,26,36,-40,3,58,4,-26,-51,-134,-67
-59,-26,26,42,-46,3,58,4,-38,-57,-146,-73
-71,-38,26,54,-52,-2,58,10,-38,-57,-146,-67
-83,-56,20,66,-52,-14,58,4,-44,-57,-152,-73
-95,-68,20,78,-58,-20,58,4,-50,-57,-146,-67
-101,-74,20,84,-64,-20,58,-2,-56,-51,-152,-73
-107,-80,20,90,-64,-26,46,-8,-56,-63,-164,-85
-107,-80,20,90,-64,-26,46,-14,-56,-63,-170,-85
-113,-86,20,96,-70,-26,46,-14,-56,-69,-176,-91
-113,-86,20,96,-70,-26,46,-8,-62,-69,-176,-91
-113,-86,20,96,-70,-26,46,-14,-68,-75,-176,-91
-101,-80,14,90,-58,-26,46,-20,-68,-75,-176,-91
-101,-86,8,90,-58,-32,46,-26,-68,-75,-164,-91
-101,-86,8,90,-58,-32,46,-20,-56,-63,-158,-85
-101,-74,20,84,-64,-20,46,-14,-50,-57,-140,-73
-101,-74,20,84,-64,-20,58,-8,-44,-63,-140,-67
-89,-62,20,72,-58,-14,64,-2,-38,-57,-140,-61
-83,-62,14,72,-52,-20,58,-2,-26,-63,-140,-55
-77,-74,8,72,-40,-32,58,10,-20,-51,-134,-49
-71,-68,8,66,-34,-32,58,16,-14,-39,-122,-49
-59,-56,8,54,-28,-26,82,27,-3,-33,-110,-43
-41,-56,-9,48,-11,-32,100,39,3,-21,-110,-25
-35,-62,-21,48,-11,-44,106,63,27,-9,-98,-20
-29,-62,-27,42,-11,-44,106,93,39,-3,-75,-8
-12,-74,-57,42,13,-68,112,105,39,3,-75,-14
-12,-74,-69,36,25,-68,118,123,39,9,-75,-20
0,-86,-93,36,43,-86,124,141,57,21,-75,-14
6,-104,-117,42,61,-110,124,159,81,33,-51,-2
12,-122,-141,48,73,-128,136,183,105,63,-45,16
42,-134,-183,36,109,-158,148,201,123,69,-33,16
54,-122,-183,24,115,-152,136,207,123,75,-27,22
78,-92,-177,6,127,-134,142,213,141,87,-3,28
120,-62,-189,-23,151,-122,154,255,171,117,21,40
150,-32,-189,-53,169,-110,154,285,201,153,45,76
186,-3,-183,-89,187,-86,160,315,237,189,87,130
228,9,-213,-119,223,-92,154,333,255,213,123,184
258,21,-231,-143,247,-98,118,321,249,225,135,202
276,39,-231,-161,253,-92,106,321,243,219,141,220
306,39,-261,-173,283,-104,118,333,255,225,165,238
354,63,-285,-209,319,-104,100,333,249,243,183,274
396,99,-291,-245,343,-92,64,297,237,243,201,310
426,99,-321,-257,373,-104,16,255,207,225,213,328
450,69,-375,-257,415,-146,-43,201,153,213,213,334
528,87,-441,-305,481,-170,-103,177,129,213,237,352
666,117,-543,-389,607,-212,-145,177,129,243,285,394
732,69,-663,-401,703,-290,-181,189,141,249,303,412
768,9,-753,-389,763,-368,-211,195,153,261,327,424
858,39,-813,-449,835,-380,-223,189,159,279,357,448
936,75,-855,-503,895,-386,-247,177,159,291,393,466
996,57,-939,-527,967,-434,-259,189,165,315,417,490
1074,3,-1065,-539,1069,-524,-259,237,201,357,465,490
1134,-62,-1203,-527,1165,-632,-259,297,243,393,501,478
1152,-152,-1305,-491,1225,-728,-241,369,303,441,537,478
1164,-218,-1383,-473,1267,-794,-211,489,375,495,585,472
1206,-242,-1455,-479,1333,-848,-151,645,501,591,651,472
1266,-284,-1557,-485,1411,-920,-49,825,663,693,723,466
1290,-392,-1689,-449,1483,-1034,22,1035,795,789,777,424
1302,-530,-1839,-383,1567,-1184,118,1275,945,885,843,382
1338,-650,-1989,-341,1663,-1316,226,1515,1089,1029,963,394
1380,-662,-2043,-353,1705,-1352,268,1647,1191,1149,1095,454
1380,-656,-2037,-359,1705,-1346,292,1683,1233,1227,1167,466
1308,-734,-2043,-281,1675,-1388,298,1665,1215,1203,1101,352
1206,-878,-2085,-161,1645,-1478,316,1587,1101,1041,849,100
1098,-1022,-2127,-29,1609,-1574,304,1449,939,747,465,-199
972,-1082,-2061,48,1513,-1568,256,1245,717,411,75,-439
816,-1082,-1905,126,1357,-1490,202,993,465,117,-200,-571
648,-1028,-1683,186,1165,-1352,178,771,261,-105,-368,-637
516,-986,-1509,234,1009,-1244,154,609,123,-242,-482,-661
390,-956,-1347,276,865,-1148,118,441,-8,-350,-560,-655
258,-908,-1173,318,715,-1034,88,255,-164,-476,-644,-667
162,-848,-1011,336,583,-932,64,105,-290,-566,-710,-679
72,-782,-861,348,469,-818,58,-8,-362,-596,-722,-649
-41,-728,-681,384,313,-704,46,-98,-374,-578,-710,-601
-143,-656,-507,396,181,-584,52,-140,-368,-548,-662,-529
-179,-560,-381,366,97,-476,40,-140,-344,-494,-602,-463
-179,-488,-303,330,55,-398,28,-140,-308,-434,-548,-403
-179,-440,-255,306,31,-350,16,-140,-272,-392,-494,-355
-167,-392,-225,276,19,-308,5,-134,-242,-338,-440,-319
-179,-338,-159,252,-11,-248,5,-122,-212,-290,-398,-265
-173,-296,-123,234,-22,-212,16,-92,-194,-254,-362,-241
-161,-254,-93,210,-28,-176,40,-68,-182,-236,-350,-223
-167,-230,-57,198,-52,-146,76,-26,-152,-212,-332,-199
-167,-200,-27,180,-64,-116,88,-8,-122,-188,-314,-181
-161,-164,3,162,-76,-80,82,4,-116,-182,-314,-175
-161,-140,14,150,-88,-56,82,4,-110,-164,-302,-157
-167,-134,26,150,-100,-50,76,4,-104,-164,-302,-145
-179,-134,38,156,-112,-44,70,-14,-98,-158,-284,-127
-185,-128,50,156,-118,-32,64,-38,-104,-158,-272,-115
-191,-128,56,156,-124,-32,58,-38,-104,-152,-272,-115
-191,-122,62,156,-130,-26,52,-44,-110,-152,-272,-109
-191,-116,68,150,-130,-20,46,-38,-110,-140,-272,-115
-191,-116,68,150,-130,-20,52,-38,-110,-140,-266,-109
-185,-104,74,144,-130,-8,58,-38,-110,-140,-266,-109
-191,-92,92,138,-142,3,58,-38,-116,-146,-260,-103
-191,-80,104,132,-148,3,64,-38,-116,-146,-260,-103
-185,-68,110,126,-148,15,52,-38,-116,-146,-260,-97
-179,-68,104,120,-142,9,52,-44,-116,-146,-260,-91
-179,-68,104,120,-142,9,52,-38,-110,-134,-254,-97
-173,-68,98,120,-136,9,52,-38,-110,-134,-254,-91
-185,-80,98,132,-142,3,40,-50,-116,-134,-248,-91
-197,-86,104,138,-154,3,40,-50,-116,-134,-242,-97
-209,-98,104,150,-160,3,34,-56,-122,-134,-236,-97
-221,-98,116,156,-172,3,28,-56,-122,-134,-224,-97
-215,-86,122,150,-172,9,16,-50,-116,-134,-230,-103
-209,-80,122,144,-166,15,16,-56,-116,-134,-242,-103
-203,-68,128,132,-166,21,22,-56,-110,-134,-248,-109
-197,-62,128,126,-166,27,22,-56,-110,-134,-260,-97
-203,-62,134,132,-172,27,16,-56,-116,-134,-254,-97
-203,-62,134,132,-172,27,16,-68,-122,-140,-254,-97
-203,-56,140,126,-172,33,11,-68,-128,-140,-242,-91
-209,-56,146,132,-178,39,5,-68,-128,-134,-236,-91
-203,-50,146,126,-178,39,16,-68,-128,-128,-242,-91
-197,-38,152,114,-178,51,11,-68,-128,-122,-242,-91
-191,-20,164,102,-178,63,16,-74,-128,-116,-248,-79
-197,-14,176,102,-190,75,16,-74,-134,-122,-254,-79
-209,-20,182,114,-196,75,16,-86,-134,-128,-260,-85
-209,-14,188,108,-202,81,16,-92,-134,-128,-260,-79
-209,-20,182,114,-196,75,16,-98,-146,-140,-266,-85
-227,-26,194,126,-214,75,16,-98,-146,-140,-266,-79
-221,-14,200,114,-214,87,16,-92,-152,-140,-260,-73
-215,-8,200,108,-208,87,16,-98,-152,-134,-254,-73
-203,-3,200,96,-202,93,16,-92,-158,-134,-242,-67
-191,15,212,78,-202,111,16,-92,-164,-134,-236,-67
-203,9,218,90,-208,111,16,-98,-164,-140,-242,-61
-209,9,224,90,-214,117,16,-98,-164,-140,-236,-61
-221,3,230,102,-226,117,16,-116,-164,-146,-242,-55
-227,-3,230,108,-226,111,16,-116,-164,-146,-236,-55
-233,9,248,102,-238,129,11,-110,-170,-140,-236,-49
-239,15,254,102,-250,135,5,-116,-170,-140,-230,-49
-245,27,272,102,-256,153,5,-116,-170,-134,-230,-49
-245,33,278,96,-256,159,11,-122,-182,-134,-230,-49
-239,39,278,90,-256,159,5,-128,-182,-134,-224,-49
-245,45,290,90,-262,171,5,-140,-182,-134,-224,-43
-239,51,290,84,-262,171,-1,-140,-188,-134,-212,-43
-233,57,290,78,-256,177,-1,-146,-188,-128,-212,-43
-239,69,308,78,-268,189,-7,-152,-188,-128,-206,-49
-251,81,332,78,-286,207,-7,-152,-188,-122,-200,-49
-251,75,332,84,-292,207,-7,-152,-188,-116,-188,-31
-263,87,356,84,-310,225,-7,-164,-188,-116,-188,-25
-257,111,374,66,-316,243,-7,-176,-194,-116,-176,-20
-269,117,392,72,-328,249,-7,-182,-194,-116,-176,-20
-269,135,410,60,-340,267,-7,-200,-200,-110,-158,-8
-269,147,422,54,-346,279,-7,-206,-200,-110,-158,-2
-275,147,428,60,-352,285,-1,-212,-194,-105,-164,-2
-275,153,434,54,-352,291,-7,-212,-194,-105,-164,4
-275,171,452,48,-364,309,-1,-212,-188,-105,-170,10
-275,177,458,42,-364,315,-1,-212,-182,-105,-164,16
-281,177,464,48,-370,315,-13,-218,-182,-105,-170,16
-287,189,482,42,-382,333,-19,-224,-188,-105,-164,10
-287,213,500,30,-394,357,-19,-242,-188,-105,-164,4
-281,231,512,18,-400,369,-19,-248,-188,-105,-164,4
-287,237,524,18,-406,381,-19,-254,-188,-99,-158,10
-287,237,524,18,-406,381,-19,-260,-182,-93,-140,22
-299,237,536,24,-418,387,-19,-266,-182,-87,-128,34
-305,231,536,30,-424,381,-19,-272,-182,-81,-116,40
-305,237,548,24,-430,393,-31,-278,-182,-69,-110,52
-317,249,572,24,-448,411,-31,-284,-176,-69,-110,64
-305,267,578,12,-442,423,-37,-284,-176,-75,-110,76
-305,279,590,6,-448,435,-37,-290,-182,-81,-104,88
-305,285,596,6,-454,441,-43,-296,-176,-75,-98,88
-305,303,614,6,-460,459,-43,-302,-176,-63,-98,94
-305,297,608,6,-460,453,-43,-302,-164,-57,-92,100
-293,297,596,6,-448,447,-43,-302,-164,-51,-86,106
-287,303,596,1,-442,453,-49,-302,-170,-51,-75,112
-287,315,608,-5,-448,465,-55,-302,-164,-39,-75,118
-281,315,602,-11,-442,459,-61,-302,-170,-39,-75,130
-275,315,596,-11,-436,459,-67,-302,-164,-33,-63,130
-257,321,584,-23,-424,453,-61,-308,-158,-33,-57,142
-251,327,578,-35,-412,453,-61,-302,-152,-27,-51,142
-239,333,572,-41,-406,453,-55,-302,-152,-27,-39,148
-233,339,572,-47,-400,459,-55,-296,-152,-27,-33,154
-233,333,566,-47,-400,453,-61,-296,-158,-33,-33,148
-227,321,548,-41,-388,435,-61,-290,-164,-33,-33,148
-221,315,536,-41,-376,429,-61,-290,-164,-33,-33,148
-209,309,518,-47,-364,417,-61,-290,-164,-33,-27,148
-215,291,506,-35,-358,399,-55,-284,-158,-33,-33,148
-209,291,500,-35,-352,399,-55,-272,-152,-27,-27,142
-197,279,482,-35,-334,381,-49,-260,-152,-33,-27,142
-185,261,452,-35,-316,357,-43,-254,-152,-33,-27,148
-167,267,440,-47,-298,351,-49,-248,-158,-33,-27,142
-149,261,416,-53,-280,339,-37,-230,-146,-27,-27,136
-131,267,404,-65,-262,333,-43,-218,-140,-21,-27,130
-113,267,386,-71,-250,327,-43,-212,-140,-21,-27,118
-89,261,356,-83,-226,309,-49,-200,-134,-21,-15,124
-83,255,344,-83,-214,297,-43,-182,-128,-15,-9,130
-65,237,308,-83,-190,273,-43,-176,-116,-3,-3,136
-53,237,290,-83,-172,261,-25,-152,-104,9,3,142
-41,225,266,-83,-154,243,-19,-140,-92,3,3,142
-35,195,236,-71,-136,213,-13,-128,-86,3,-3,124
-23,183,212,-71,-118,195,-19,-122,-80,-3,-9,124
-17,171,194,-71,-106,183,-13,-110,-74,-3,-15,118
-23,159,188,-59,-106,171,5,-86,-80,-3,-15,106
-23,141,170,-53,-94,153,16,-68,-74,-15,-21,100
-23,135,164,-47,-94,147,16,-56,-80,-9,-21,88
-12,135,146,-59,-76,141,34,-44,-68,-9,-21,82
-12,117,128,-47,-64,123,40,-14,-56,-15,-27,70
-12,93,110,-35,-58,99,46,-8,-56,-9,-39,64
-12,81,98,-29,-52,87,52,10,-50,-15,-45,58
-12,69,86,-23,-46,75,64,27,-50,-21,-51,52
-23,57,86,-11,-52,69,64,27,-38,-21,-69,40
-23,45,74,-5,-46,57,70,33,-38,-27,-75,28
-23,33,62,1,-40,45,70,45,-26,-27,-75,10
-23,33,62,1,-40,45,82,57,-26,-27,-75,-2
-29,21,56,6,-40,39,88,63,-26,-33,-86,-14
-35,3,44,6,-40,21,88,69,-32,-39,-92,-20
-35,3,44,6,-40,21,88,75,-32,-39,-98,-20
-35,3,44,6,-40,21,88,75,-32,-39,-104,-20
-41,-3,32,18,-40,9,94,81,-26,-45,-104,-20
-47,-14,26,30,-40,3,94,81,-32,-45,-110,-25
-59,-26,26,42,-46,3,100,87,-26,-45,-116,-25
-59,-38,14,48,-40,-8,100,87,-26,-51,-116,-25
-65,-56,8,60,-34,-20,94,87,-32,-57,-128,-31
-65,-62,8,60,-34,-26,88,87,-32,-63,-128,-31
-65,-62,8,60,-34,-26,82,81,-44,-75,-134,-49
-71,-62,8,66,-40,-26,88,81,-44,-81,-140,-49
-77,-62,8,66,-46,-20,94,75,-44,-81,-152,-43
-77,-62,8,66,-46,-20,88,75,-56,-81,-152,-55
-77,-62,8,66,-46,-20,94,75,-50,-81,-158,-49
-77,-56,14,66,-46,-14,100,75,-50,-81,-158,-49
-83,-62,14,72,-52,-20,106,81,-50,-93,-158,-55
-77,-68,8,72,-40,-26,100,75,-50,-93,-164,-61
-83,-74,8,78,-46,-32,106,81,-50,-93,-164,-67
-83,-86,3,84,-40,-44,100,75,-50,-93,-164,-67
-77,-86,-3,78,-34,-44,100,69,-56,-99,-170,-67
-77,-80,3,78,-34,-38,100,69,-56,-99,-170,-67
-71,-80,-3,72,-28,-44,106,63,-62,-93,-176,-61
-71,-86,-9,78,-28,-50,118,63,-62,-93,-176,-61
-71,-80,-3,72,-28,-44,118,63,-62,-105,-182,-67
-77,-80,3,78,-34,-38,118,63,-62,-105,-182,-67
-83,-86,3,84,-40,-44,106,69,-56,-105,-188,-73
-83,-86,3,84,-40,-44,106,69,-56,-105,-188,-73
-83,-86,3,84,-40,-44,112,75,-56,-99,-182,-73
-83,-86,3,84,-40,-44,124,69,-56,-105,-182,-73
-83,-86,3,84,-40,-44,130,75,-56,-99,-176,-73
-83,-80,8,78,-40,-38,142,81,-56,-93,-170,-67
-77,-74,8,72,-40,-32,136,81,-56,-87,-164,-61
-77,-62,8,66,-46,-20,136,87,-56,-87,-164,-55
-71,-56,8,60,-40,-20,130,87,-50,-93,-152,-49
-77,-50,20,60,-52,-8,130,87,-50,-93,-152,-43
-89,-62,20,72,-58,-14,124,81,-44,-93,-158,-49
-89,-62,20,72,-58,-14,124,81,-44,-99,-164,-55
-83,-56,20,66,-52,-14,112,75,-38,-99,-170,-61
-77,-56,14,66,-46,-14,112,81,-32,-93,-158,-67
-77,-50,20,60,-52,-8,124,81,-26,-93,-164,-61
-77,-44,26,60,-52,-2,124,87,-26,-87,-164,-61
-89,-38,44,60,-70,3,136,87,-20,-87,-170,-61
-89,-38,44,60,-70,3,142,87,-14,-87,-164,-61
-83,-44,32,60,-58,-2,136,87,-14,-81,-158,-61
-83,-44,32,60,-58,-2,136,87,-14,-81,-158,-55
-89,-44,38,66,-64,3,136,93,-14,-69,-152,-49
-89,-44,38,66,-64,3,136,93,-14,-57,-152,-49
-83,-44,32,60,-58,-2,136,99,-8,-57,-146,-55
-83,-44,32,60,-58,-2,142,99,-8,-57,-146,-55
-77,-44,26,60,-52,-2,148,105,-3,-57,-146,-61
-83,-38,38,60,-64,3,148,105,-3,-57,-146,-55
-71,-14,50,42,-64,9,160,105,-14,-45,-146,-55
-77,-8,62,42,-70,21,160,105,-8,-45,-146,-49
-89,-20,62,54,-76,15,160,99,-3,-39,-140,-37
-89,-32,50,60,-70,3,154,105,-8,-51,-128,-37
-89,-26,56,54,-76,9,148,105,-3,-45,-128,-37
-89,-26,56,54,-76,9,142,105,-3,-45,-128,-37
-89,-20,62,54,-76,15,136,105,-3,-39,-128,-37
-89,-20,62,54,-76,15,130,105,-3,-39,-128,-37
-89,-14,68,48,-82,21,130,105,-3,-39,-128,-37
-89,-8,74,48,-82,27,136,105,-3,-39,-122,-31
-83,-3,86,36,-82,39,148,105,-3,-39,-116,-20
-83,3,92,30,-88,45,148,111,3,-27,-110,-20
-65,21,92,12,-76,57,154,123,9,-21,-104,-20
-65,33,104,6,-82,69,166,129,9,-21,-98,-14
-53,57,116,6,-82,87,172,141,15,-9,-92,-8
-53,63,122,1,-88,93,190,153,27,-9,-80,-2
-59,57,122,6,-88,87,190,147,27,-9,-75,-2
-59,57,122,6,-88,87,190,153,33,-3,-75,-2
-65,51,122,6,-94,87,184,153,39,3,-75,4
-65,39,110,6,-88,75,190,153,39,3,-75,4
-59,51,116,6,-88,81,202,153,45,3,-75,10
-59,57,122,6,-88,87,208,153,51,9,-75,10
-53,69,128,1,-88,99,214,153,57,9,-75,16
-47,93,146,-17,-94,117,220,165,63,21,-63,28
-29,111,146,-35,-88,129,214,171,69,39,-51,34
-23,129,158,-47,-88,141,214,171,75,39,-33,40
-17,135,158,-53,-88,147,202,171,75,39,-27,40
-17,135,158,-53,-88,147,190,165,75,39,-27,40
-17,129,152,-47,-82,141,184,153,57,33,-39,34
-17,117,140,-41,-76,129,178,147,57,27,-45,34
-17,111,134,-41,-76,123,160,129,45,21,-57,28
-17,105,128,-35,-70,117,148,123,39,15,-69,28
-17,111,134,-41,-76,123,136,105,27,9,-63,22
-17,111,134,-41,-76,123,136,99,21,9,-63,22
-17,111,134,-41,-76,123,124,87,15,9,-57,22
-23,105,134,-35,-76,117,118,81,9,3,-63,16
-12,99,116,-35,-64,105,112,81,9,9,-57,22
-12,123,134,-53,-70,129,112,81,3,9,-57,22
-6,117,116,-53,-52,117,112,87,9,9,-51,28
-6,105,104,-47,-46,105,100,81,9,9,-45,28
-12,99,104,-41,-52,105,94,75,3,3,-45,28
-6,93,92,-41,-40,93,100,75,-3,3,-45,28
-12,81,86,-35,-40,87,94,75,-3,-3,-51,22
-12,75,80,-29,-40,81,88,75,-3,-9,-57,22
-12,57,68,-17,-34,63,82,63,-20,-21,-69,10
-17,33,56,1,-34,45,82,57,-20,-39,-75,-2
-23,15,44,6,-34,27,82,51,-26,-51,-75,-14
-23,15,44,6,-34,27,88,57,-26,-57,-75,-20
-29,3,38,6,-34,21,94,63,-26,-51,-75,-14
-35,3,44,6,-40,21,100,63,-26,-51,-75,-20
-29,3,38,6,-34,21,112,63,-26,-51,-75,-20
-35,-3,38,12,-34,15,118,63,-38,-57,-86,-20
-47,-3,38,24,-46,9,112,63,-38,-63,-98,-20
-53,-20,26,36,-40,3,112,57,-44,-69,-104,-25
-65,-32,26,48,-46,3,106,51,-50,-75,-110,-31
-65,-38,20,48,-46,-2,106,45,-56,-75,-116,-37
-59,-44,8,48,-34,-14,88,33,-68,-87,-122,-49
-53,-44,8,48,-28,-14,88,27,-74,-93,-128,-55
-47,-50,3,48,-22,-26,82,27,-86,-99,-128,-61
-41,-50,-3,42,-16,-26,82,27,-98,-105,-128,-67
-47,-38,8,42,-28,-14,88,27,-98,-105,-134,-61
-35,-26,8,30,-22,-8,94,27,-98,-105,-134,-61
-41,-20,14,30,-28,3,100,27,-92,-99,-128,-55
-41,-14,20,24,-34,3,106,39,-80,-87,-122,-49
-29,-14,8,18,-22,3,106,57,-62,-81,-92,-25
-17,-14,8,12,-11,-2,106,51,-68,-63,-80,-20
-12,-3,8,6,-11,3,100,57,-62,-57,-80,-25
-12,-3,8,6,-11,3,106,57,-50,-51,-75,-20
-6,-3,-3,6,-5,-2,106,57,-32,-39,-75,-20
-12,-8,-3,6,-5,-2,106,63,-26,-39,-75,-20
12,-8,-27,6,19,-14,118,87,-14,-9,-63,-8
18,-8,-33,1,25,-20,124,111,-3,-9,-51,10
12,-14,-33,6,19,-20,130,135,3,3,-39,22
18,-14,-39,6,25,-26,142,153,15,9,-27,28
48,-14,-69,-11,55,-38,148,165,27,27,-15,34
60,-38,-105,-5,79,-68,142,171,27,21,-9,28
72,-62,-141,1,103,-98,136,177,33,33,-3,22
90,-56,-153,-11,121,-104,148,195,57,45,-3,22
108,-50,-165,-23,133,-104,160,231,81,63,15,40
126,-50,-183,-29,151,-116,160,261,111,93,51,64
150,-38,-195,-47,169,-116,160,267,111,111,69,82
162,-32,-201,-59,181,-116,166,291,129,123,81,100
180,-26,-213,-71,193,-116,178,309,159,135,117,124
198,-3,-201,-95,199,-98,178,333,177,165,141,160
228,33,-195,-131,217,-74,160,339,189,177,165,190
270,57,-213,-167,241,-68,142,333,189,201,177,196
294,57,-231,-179,265,-80,130,333,183,213,201,220
336,63,-267,-203,301,-98,130,345,201,231,243,250
366,63,-297,-215,331,-110,118,357,201,249,279,274
402,87,-309,-239,355,-104,88,333,207,267,303,322
444,135,-303,-287,373,-80,52,309,201,267,321,370
528,195,-333,-359,433,-62,16,285,183,261,345,412
612,201,-411,-407,511,-98,-43,249,153,261,369,442
684,171,-507,-425,595,-164,-91,213,129,261,393,466
744,153,-591,-449,673,-218,-133,213,129,279,423,484
816,141,-675,-479,745,-260,-157,225,129,297,465,490
876,129,-741,-497,811,-302,-175,219,129,309,501,514
906,111,-789,-503,847,-332,-181,213,123,315,531,538
948,87,-855,-515,901,-380,-205,225,111,327,555,562
996,33,-963,-515,979,-458,-205,249,141,363,597,586
1074,-20,-1101,-521,1087,-560,-205,303,201,423,645,586
1122,-86,-1209,-509,1165,-650,-205,393,279,489,699,586
1164,-152,-1317,-497,1237,-728,-187,489,351,537,747,586
1188,-218,-1407,-479,1291,-806,-163,591,435,603,795,580
1218,-254,-1479,-479,1351,-866,-103,717,561,705,885,580
1242,-296,-1545,-473,1393,-920,-1,873,711,849,993,586
1254,-368,-1629,-443,1441,-992,94,1071,855,963,1083,574
1266,-452,-1719,-407,1489,-1082,202,1299,999,1089,1179,556
1314,-494,-1815,-407,1561,-1154,268,1503,1137,1227,1305,592
1344,-578,-1929,-377,1633,-1250,316,1659,1221,1329,1407,616
1296,-716,-2013,-287,1657,-1364,328,1731,1233,1347,1401,520
1248,-872,-2127,-185,1687,-1496,370,1791,1191,1239,1203,280
1212,-1004,-2223,-101,1717,-1616,424,1833,1089,1005,825,-43
1158,-1106,-2265,-17,1705,-1688,436,1761,903,639,375,-385
1008,-1154,-2169,66,1585,-1658,376,1515,645,285,3,-577
840,-1106,-1947,126,1393,-1526,304,1227,393,33,-200,-667
696,-1052,-1749,174,1219,-1400,280,975,195,-152,-356,-709
540,-1022,-1569,240,1051,-1292,250,741,-3,-338,-482,-745
402,-986,-1395,288,895,-1190,214,543,-164,-470,-572,-751
282,-944,-1227,324,751,-1082,208,405,-290,-572,-656,-751
210,-896,-1107,336,655,-998,184,279,-374,-632,-686,-739
132,-830,-963,342,547,-896,166,183,-410,-620,-674,-685
54,-734,-795,336,427,-764,142,117,-398,-590,-626,-625
-23,-656,-627,336,295,-644,124,51,-404,-560,-602,-577
-71,-584,-507,324,217,-548,112,4,-404,-542,-566,-517
-83,-530,-447,306,175,-488,88,-32,-404,-506,-524,-487
-83,-494,-411,288,157,-458,88,-44,-380,-464,-506,-451
-71,-416,-339,246,127,-380,88,-50,-362,-416,-464,-403
-47,-326,-273,186,109,-302,88,-50,-314,-356,-398,-349
-77,-272,-195,174,49,-236,88,-44,-272,-326,-350,-307
-113,-266,-153,192,13,-212,88,-20,-230,-272,-326,-265
-95,-248,-153,174,19,-206,88,-2,-200,-236,-302,-247
-71,-200,-123,132,19,-164,88,16,-182,-224,-278,-229
-71,-158,-81,114,-5,-122,82,22,-176,-218,-266,-211
-71,-134,-57,102,-11,-98,82,22,-176,-200,-248,-193
-83,-122,-33,102,-22,-80,76,16,-170,-200,-236,-169
-95,-122,-21,108,-34,-74,70,-2,-170,-194,-212,-151
-119,-116,8,114,-58,-56,70,-14,-164,-182,-200,-139
-131,-116,8,120,-70,-50,70,-14,-164,-170,-200,-139
-149,-110,32,126,-94,-32,70,-8,-158,-158,-200,-133
-155,-104,44,126,-100,-26,70,-2,-158,-140,-200,-139
-155,-98,50,126,-106,-20,76,-8,-146,-140,-188,-133
-149,-86,56,114,-106,-8,76,-8,-146,-140,-188,-127
-155,-68,80,108,-118,3,76,-14,-140,-146,-176,-121
-155,-56,92,102,-124,9,76,-14,-140,-146,-176,-115
-149,-44,98,96,-124,21,70,-26,-140,-152,-182,-109
-143,-44,92,90,-118,15,70,-32,-140,-152,-182,-109
-143,-44,92,90,-118,15,76,-38,-134,-146,-182,-115
-137,-44,86,90,-112,15,76,-38,-134,-146,-182,-115
-143,-50,86,96,-118,9,70,-44,-140,-140,-176,-115
-149,-50,92,96,-124,15,70,-44,-140,-140,-176,-121
-155,-56,92,102,-124,9,70,-44,-146,-134,-170,-121
-161,-50,104,102,-136,21,64,-44,-146,-134,-164,-121
-161,-44,110,102,-136,27,40,-50,-152,-140,-158,-115
-161,-44,110,102,-136,27,40,-56,-158,-146,-164,-115
-161,-38,116,96,-142,33,34,-68,-164,-152,-158,-109
-161,-38,116,96,-142,33,34,-68,-170,-158,-164,-97
-161,-26,128,90,-148,45,34,-62,-164,-152,-164,-97
-161,-14,140,84,-154,57,28,-74,-170,-158,-164,-97
-155,-3,152,72,-154,69,28,-68,-164,-152,-158,-91
-161,3,170,72,-166,87,28,-68,-164,-146,-152,-91
-167,-3,170,78,-166,81,34,-68,-164,-152,-152,-103
-167,-3,170,78,-166,81,22,-68,-164,-146,-152,-103
-173,3,182,78,-178,93,28,-74,-164,-152,-152,-103
-185,-3,188,84,-184,93,28,-74,-170,-158,-158,-103
-191,-3,188,90,-190,87,16,-92,-170,-152,-158,-103
-185,3,194,84,-190,99,16,-98,-170,-152,-158,-97
-179,-3,182,84,-178,87,11,-110,-182,-152,-158,-97
-191,-3,194,90,-190,93,5,-110,-182,-152,-158,-91
-203,-3,206,96,-202,99,5,-116,-188,-158,-164,-97
-209,-3,212,96,-208,105,5,-122,-188,-152,-164,-97
-215,-3,218,102,-214,105,-7,-128,-194,-158,-164,-103
-215,15,236,90,-226,123,-7,-128,-200,-158,-164,-103
-203,33,242,78,-220,135,5,-128,-200,-152,-158,-91
-191,45,242,66,-214,141,11,-128,-200,-146,-152,-85
-179,63,248,48,-214,153,16,-140,-200,-140,-146,-73
-167,69,242,42,-202,153,16,-140,-200,-134,-140,-67
-179,75,254,42,-220,165,16,-134,-200,-140,-140,-55
-185,75,260,48,-226,171,11,-140,-200,-140,-134,-55
-197,81,278,48,-238,183,16,-140,-194,-146,-134,-49
-197,81,278,48,-238,183,16,-146,-206,-146,-134,-49
-203,87,290,48,-250,189,16,-158,-206,-146,-134,-43
-215,93,308,54,-256,201,16,-170,-206,-146,-134,-37
-221,99,320,54,-268,213,16,-176,-212,-146,-128,-31
-221,105,326,48,-268,219,16,-182,-212,-140,-128,-31
-221,129,350,36,-280,243,16,-194,-218,-140,-128,-37
-227,141,368,36,-292,249,16,-194,-218,-134,-122,-37
-227,147,374,30,-298,255,16,-200,-224,-128,-116,-20
-233,159,392,30,-310,273,16,-212,-224,-128,-116,-20
-227,177,404,18,-310,285,11,-212,-224,-140,-116,-20
-239,183,422,18,-328,297,11,-212,-224,-140,-116,-20
-239,195,434,12,-334,309,5,-218,-224,-146,-110,-20
-239,207,446,6,-340,321,5,-224,-224,-146,-110,-14
-251,207,458,12,-352,327,5,-242,-224,-128,-104,-14
-251,213,470,12,-358,339,-1,-254,-230,-128,-104,-8
-257,231,494,6,-376,357,-1,-260,-230,-128,-98,-2
-263,237,500,6,-382,369,-1,-266,-230,-128,-92,4
-269,231,500,12,-388,363,-13,-266,-224,-122,-92,16
-275,237,518,12,-400,381,-19,-272,-230,-122,-86,16
-275,255,536,6,-406,399,-19,-278,-224,-116,-80,22
-269,273,548,6,-412,411,-19,-284,-224,-110,-80,28
-269,291,566,-5,-418,429,-13,-296,-230,-105,-80,34
-269,297,572,-5,-424,435,-13,-302,-224,-105,-75,46
-275,309,590,-11,-436,453,-7,-314,-230,-105,-75,58
-281,309,596,-5,-442,453,-7,-320,-230,-105,-69,64
-281,315,602,-11,-442,459,-19,-332,-230,-87,-63,64
-293,327,626,-11,-460,477,-19,-338,-224,-87,-63,70
-281,339,626,-23,-454,483,-25,-344,-224,-87,-63,70
-281,351,638,-29,-460,489,-25,-350,-230,-93,-57,76
-275,369,650,-41,-466,507,-31,-362,-224,-87,-45,88
-275,387,668,-47,-472,525,-31,-368,-224,-75,-45,94
-269,393,668,-53,-472,525,-31,-374,-212,-69,-33,112
-257,393,656,-59,-460,519,-31,-374,-212,-63,-27,118
-251,393,650,-65,-454,519,-37,-374,-212,-57,-15,124
-251,405,662,-71,-460,531,-37,-374,-206,-45,-3,130
-251,399,650,-71,-448,519,-43,-374,-206,-39,-3,142
-245,399,644,-71,-442,519,-43,-374,-200,-33,9,142
-233,399,632,-77,-430,513,-43,-374,-194,-33,9,148
-221,399,620,-83,-418,507,-43,-368,-188,-27,15,148
-215,399,614,-89,-412,501,-43,-362,-188,-27,21,148
-209,399,608,-89,-406,501,-43,-356,-188,-27,27,154
-203,393,596,-89,-400,489,-43,-344,-188,-27,33,154
-197,381,578,-89,-388,483,-37,-338,-188,-27,33,154
-185,375,560,-89,-370,471,-31,-326,-182,-21,39,160
-173,369,542,-95,-358,459,-25,-326,-176,-21,45,160
-167,345,512,-83,-340,429,-19,-320,-170,-15,45,160
-161,345,506,-89,-334,429,-19,-308,-164,-9,51,154
-137,327,470,-89,-298,399,-13,-296,-164,-9,57,154
-125,309,440,-89,-280,375,-7,-290,-164,-9,57,160
-113,291,410,-83,-256,351,-7,-278,-158,-9,51,154
-101,273,380,-83,-244,327,5,-260,-146,-3,51,148
-89,255,350,-77,-220,303,5,-242,-128,3,45,142
-77,243,326,-77,-202,285,5,-236,-128,3,45,130
-59,237,302,-83,-184,267,11,-212,-128,3,51,130
-53,237,296,-89,-178,267,16,-200,-122,3,51,130
-41,225,266,-83,-154,243,22,-188,-116,15,51,130
-29,225,254,-89,-142,243,46,-164,-104,21,51,130
-23,213,242,-89,-130,225,58,-146,-92,15,45,118
-23,183,212,-71,-118,195,64,-134,-86,9,39,100
-17,171,194,-71,-106,183,64,-122,-80,3,27,88
-17,159,182,-65,-100,171,70,-110,-74,-3,21,82
-23,141,170,-53,-94,153,88,-86,-68,-9,15,70
-23,123,152,-41,-88,135,100,-62,-62,-21,9,64
-23,111,140,-35,-82,123,112,-50,-56,-21,3,52
-12,111,122,-47,-64,117,130,-32,-44,-21,3,46
-12,93,110,-35,-58,99,130,-8,-38,-21,-3,28
-23,69,98,-17,-58,81,136,-2,-44,-15,-9,22
-29,57,92,-5,-58,75,136,10,-44,-15,-15,10
-35,45,86,1,-58,63,148,27,-50,-21,-15,4
-41,39,86,6,-64,63,154,27,-38,-21,-27,-8
-35,27,68,6,-52,45,160,33,-38,-27,-33,-14
-29,21,56,6,-40,39,166,45,-26,-27,-33,-20
-23,21,50,6,-34,33,178,57,-26,-27,-39,-25
-35,9,50,6,-40,27,184,57,-32,-39,-51,-37
-41,-3,38,18,-40,15,184,63,-38,-45,-57,-43
-47,-3,44,18,-46,15,184,63,-44,-51,-63,-49
-47,-3,44,18,-46,15,184,63,-44,-51,-69,-55
-47,-8,32,24,-40,3,184,57,-50,-63,-75,-67
-53,-20,26,36,-40,3,184,57,-56,-69,-75,-73
-59,-26,26,42,-46,3,184,51,-62,-75,-80,-85
-59,-38,14,48,-40,-8,184,51,-62,-87,-80,-85
-53,-44,8,48,-28,-14,178,57,-62,-87,-86,-79
-47,-44,8,42,-22,-20,172,57,-62,-87,-86,-79
-35,-32,8,30,-16,-14,166,57,-68,-93,-86,-85
-35,-26,8,30,-22,-8,172,57,-68,-93,-92,-85
-47,-32,8,36,-28,-8,172,51,-68,-93,-98,-85
-47,-38,8,42,-28,-14,166,51,-74,-93,-98,-97
-53,-44,8,48,-28,-14,166,51,-68,-93,-98,-97
-53,-44,8,48,-28,-14,172,51,-62,-93,-98,-97
-59,-50,8,54,-34,-20,166,51,-68,-105,-104,-103
-53,-56,3,54,-22,-26,160,45,-68,-105,-110,-115
-59,-62,3,60,-28,-32,154,45,-74,-105,-116,-121
-59,-74,-9,66,-22,-44,148,39,-74,-105,-116,-127
-65,-80,-9,72,-22,-44,148,33,-80,-110,-116,-127
