,,,,,,,,,,,
2019-09-01 15:32:18,,,,,,,,,,,
,,,,,,,,,,,
I,II,III,aVR,aVL,aVF,V1,V2,V3,V4,V5,V6
-235,49,318,42,-265,181,-967,426,-496,-149,131,1421
-223,-52,138,90,-181,43,40,264,-220,-191,-42,23
-223,-94,108,120,-163,7,250,252,-124,-197,-72,-192
-211,-100,96,126,-151,-4,292,252,-70,-197,-78,-222
-169,-94,84,120,-127,-4,322,300,1,-173,-72,-222
-121,-52,84,78,-109,1,340,420,109,-83,-1,-210
-67,55,96,0,-97,55,370,528,241,36,113,-132
-25,151,138,-59,-97,139,394,594,367,150,215,-42
16,217,156,-101,-91,193,406,624,451,258,311,35
76,283,162,-167,-73,229,406,624,529,372,413,125
160,385,174,-263,-31,277,346,624,625,528,551,257
286,499,180,-389,34,325,154,624,751,720,737,431
430,589,180,-521,124,355,-73,618,865,906,917,605
532,655,168,-593,196,379,-265,612,967,1062,1067,755
574,685,150,-629,226,385,-379,612,1069,1158,1145,815
592,685,108,-635,250,379,-451,624,1165,1206,1175,827
592,631,48,-623,262,337,-523,624,1177,1200,1163,821
532,505,6,-533,262,265,-565,564,1087,1002,995,695
454,373,-41,-407,262,163,-577,384,781,660,725,515
370,253,-83,-311,256,97,-571,186,469,324,461,347
280,199,-83,-227,214,73,-517,-5,217,90,275,203
172,157,-59,-161,136,67,-421,-131,55,-65,137,83
88,109,-35,-95,82,61,-325,-203,-40,-137,53,5
40,31,-35,-35,64,19,-241,-215,-76,-167,11,-72
10,-46,-47,6,58,-46,-169,-209,-94,-179,-18,-126
4,-100,-89,36,58,-94,-133,-197,-118,-185,-48,-168
4,-130,-131,48,64,-130,-103,-167,-124,-185,-60,-192
4,-136,-143,54,70,-136,-79,-125,-124,-185,-60,-198
4,-136,-143,54,70,-136,-43,-71,-124,-185,-60,-198
4,-136,-143,54,70,-136,-7,-23,-118,-179,-60,-198
-2,-136,-137,54,70,-130,22,12,-112,-173,-60,-198
-7,-130,-131,54,64,-118,34,30,-106,-167,-60,-198
-13,-124,-107,54,52,-112,46,42,-100,-167,-60,-198
-19,-118,-95,54,46,-106,58,48,-100,-167,-60,-198
-25,-118,-83,54,40,-100,70,54,-94,-167,-60,-198
-37,-118,-71,54,34,-94,76,54,-94,-167,-60,-198
-43,-118,-59,60,22,-94,82,54,-94,-167,-60,-198
-43,-118,-59,60,22,-94,88,54,-94,-167,-60,-198
-43,-118,-59,60,22,-94,94,54,-94,-167,-60,-198
-43,-112,-59,60,22,-94,100,54,-94,-167,-60,-198
-43,-112,-59,60,22,-94,100,54,-94,-167,-60,-198
-43,-112,-71,66,22,-94,106,54,-94,-167,-60,-198
-49,-118,-77,72,22,-94,112,60,-94,-167,-60,-198
-55,-118,-71,72,16,-94,112,60,-100,-167,-60,-198
-55,-112,-59,72,4,-82,112,60,-106,-167,-60,-198
-61,-112,-47,72,-7,-76,118,60,-106,-167,-60,-198
-67,-112,-35,78,-13,-70,124,60,-106,-167,-60,-198
-73,-112,-23,78,-25,-64,124,60,-106,-167,-60,-198
-73,-112,-23,78,-25,-64,124,60,-106,-167,-60,-198
-73,-112,-23,78,-25,-64,124,60,-106,-167,-60,-198
-73,-112,-23,78,-25,-64,124,60,-106,-167,-60,-198
-73,-112,-23,78,-25,-64,124,60,-106,-167,-60,-198
-73,-112,-23,78,-25,-64,124,60,-106,-167,-60,-198
-73,-106,-23,78,-25,-64,124,60,-106,-167,-60,-198
-73,-106,-23,78,-25,-64,124,60,-106,-167,-60,-198
-73,-106,-23,78,-25,-64,124,60,-106,-167,-60,-198
-73,-106,-23,78,-25,-64,124,60,-106,-167,-60,-192
-67,-106,-23,78,-25,-64,124,60,-106,-167,-60,-192
-67,-106,-23,78,-19,-64,124,60,-106,-167,-60,-192
-67,-106,-23,78,-19,-64,124,60,-106,-167,-60,-192
-67,-106,-23,78,-19,-64,124,60,-106,-167,-60,-192
-67,-106,-29,78,-13,-64,124,60,-106,-167,-60,-192
-67,-100,-29,78,-13,-64,124,60,-106,-167,-60,-192
-67,-100,-35,78,-7,-64,124,60,-106,-167,-60,-192
-67,-100,-41,78,-7,-64,124,60,-106,-161,-60,-186
-67,-100,-41,78,-7,-64,124,60,-106,-161,-60,-180
-67,-100,-41,78,-7,-64,124,60,-106,-155,-60,-180
-61,-94,-41,72,-7,-64,124,60,-106,-155,-60,-180
-61,-94,-35,72,-7,-64,124,60,-106,-155,-60,-180
-61,-94,-35,72,-7,-64,124,60,-106,-149,-54,-174
-61,-94,-35,72,-7,-64,124,60,-106,-149,-54,-174
-61,-94,-35,72,-1,-64,124,60,-106,-149,-54,-174
-61,-88,-35,72,-1,-64,124,60,-106,-149,-48,-174
-61,-76,-29,72,-7,-52,124,60,-106,-149,-48,-174
-61,-76,-23,72,-7,-46,124,60,-106,-149,-48,-174
-55,-76,-23,72,-7,-46,124,60,-106,-149,-48,-174
-49,-76,-23,72,-7,-46,124,60,-106,-143,-48,-174
-49,-76,-23,72,-7,-46,124,66,-106,-137,-48,-174
-49,-76,-23,72,-7,-46,124,66,-106,-137,-42,-174
-49,-76,-23,72,-7,-46,124,72,-106,-137,-42,-174
-49,-76,-23,72,-7,-46,124,72,-100,-131,-42,-168
-49,-76,-23,72,-7,-46,124,78,-94,-125,-36,-162
-49,-76,-23,72,-7,-46,124,84,-88,-125,-30,-156
-49,-76,-23,72,-7,-46,124,84,-88,-125,-30,-156
-43,-70,-23,66,-7,-46,118,84,-88,-125,-30,-150
-43,-64,-23,60,-7,-46,112,84,-88,-125,-24,-150
-43,-64,-23,54,-1,-46,112,84,-88,-125,-24,-150
-43,-64,-23,54,4,-46,112,84,-88,-125,-24,-150
-37,-64,-23,48,4,-46,106,84,-88,-125,-24,-150
-37,-64,-23,48,4,-46,106,84,-88,-119,-24,-144
-37,-64,-23,48,4,-46,106,90,-82,-113,-18,-138
-31,-58,-23,48,4,-46,106,96,-76,-113,-18,-132
-31,-52,-23,48,4,-46,100,96,-76,-113,-18,-132
-31,-52,-23,48,4,-46,100,102,-70,-107,-18,-126
-31,-52,-23,48,4,-46,100,108,-64,-95,-12,-120
-31,-52,-23,48,4,-46,100,114,-58,-83,-6,-114
-31,-52,-23,48,4,-46,94,114,-52,-77,-1,-108
-25,-46,-23,42,4,-40,94,120,-52,-71,-1,-108
-19,-46,-23,36,4,-40,88,120,-52,-65,-1,-102
-13,-46,-23,30,4,-40,88,120,-46,-65,5,-96
-13,-46,-23,30,4,-40,88,126,-40,-59,11,-96
-13,-40,-23,24,4,-34,82,126,-40,-59,11,-96
-13,-28,-23,18,4,-28,76,126,-40,-59,11,-96
-13,-28,-23,18,10,-28,76,126,-40,-53,11,-90
-7,-28,-29,12,16,-28,76,132,-40,-53,17,-84
-2,-22,-29,6,22,-28,70,132,-34,-47,23,-78
4,-16,-29,6,22,-28,70,132,-28,-41,23,-78
10,-10,-29,0,22,-28,70,138,-22,-35,29,-72
16,-4,-29,0,22,-28,70,138,-22,-35,29,-66
22,-4,-29,0,28,-28,64,138,-22,-35,29,-60
28,-4,-29,-5,34,-28,64,138,-16,-29,35,-54
28,-4,-29,-5,34,-28,58,144,-10,-23,47,-42
22,1,-17,-5,28,-16,58,150,-4,-11,59,-30
22,7,-11,-5,22,-4,58,150,1,-5,65,-24
22,7,-11,-11,22,-4,58,156,7,0,71,-18
22,7,-11,-11,22,-4,58,162,13,6,71,-12
22,13,-11,-17,22,1,52,162,19,12,71,-6
28,19,-11,-17,28,1,46,162,25,12,71,0
34,19,-17,-17,28,1,46,168,25,18,77,0
34,19,-17,-17,34,1,46,174,25,24,83,5
40,19,-23,-17,40,1,40,180,25,30,89,11
46,19,-23,-23,46,1,34,180,25,36,95,17
52,25,-23,-35,52,1,22,180,31,42,101,17
64,37,-23,-47,52,7,16,186,37,42,107,17
70,49,-23,-59,58,13,10,186,37,48,107,17
76,49,-29,-71,64,13,4,186,37,54,113,23
76,49,-35,-71,64,13,-2,192,43,66,119,35
76,49,-35,-71,64,13,-2,198,49,72,131,47
82,55,-35,-71,64,13,-7,198,55,78,137,59
94,61,-35,-77,70,13,-13,198,55,84,143,71
106,67,-35,-89,76,13,-19,198,55,90,149,77
118,73,-35,-95,82,13,-25,198,61,90,155,83
118,73,-35,-95,82,13,-31,198,61,96,161,89
118,73,-41,-101,82,13,-31,204,61,102,167,89
130,73,-53,-107,88,13,-37,210,61,108,173,95
136,73,-59,-107,94,13,-43,210,67,120,179,101
136,79,-59,-113,94,19,-49,210,67,126,185,107
136,91,-59,-119,94,25,-55,210,67,132,185,113
142,97,-59,-125,100,25,-61,210,67,138,191,119
142,103,-59,-125,100,25,-67,210,67,138,197,125
142,103,-53,-125,100,25,-67,210,67,138,197,125
148,109,-53,-131,100,25,-73,210,67,138,197,125
160,109,-53,-137,106,25,-73,210,67,138,197,125
166,109,-53,-137,112,25,-73,210,67,138,197,125
166,109,-53,-137,112,25,-73,210,67,138,203,125
166,109,-53,-137,112,31,-73,210,67,144,203,131
166,109,-53,-137,112,31,-73,210,67,150,203,131
178,115,-59,-143,124,31,-79,210,67,150,203,131
190,115,-65,-155,136,31,-85,204,67,150,203,131
190,115,-65,-155,136,31,-85,204,67,150,203,131
178,115,-53,-155,124,37,-85,204,67,156,209,131
148,115,-23,-149,94,49,-85,204,67,156,215,131
136,115,-17,-143,88,49,-85,204,67,156,221,131
136,115,-23,-143,88,49,-85,204,67,156,221,131
136,109,-35,-137,94,43,-85,204,67,156,221,131
136,109,-41,-131,94,37,-85,204,67,156,221,131
136,109,-41,-131,94,37,-85,198,67,150,215,131
136,109,-41,-131,94,37,-85,198,67,150,209,131
136,103,-41,-125,94,37,-79,198,67,150,209,131
136,91,-41,-119,94,31,-73,198,67,150,209,125
136,91,-41,-119,94,31,-73,192,61,144,203,113
136,91,-41,-119,94,25,-67,180,55,132,197,101
136,91,-41,-119,94,25,-67,174,49,120,185,89
130,91,-41,-119,94,25,-61,168,43,114,173,77
124,85,-41,-107,94,25,-55,168,43,108,167,71
118,85,-41,-101,88,25,-49,168,43,102,155,65
106,79,-41,-95,82,25,-43,168,43,96,149,59
100,73,-41,-89,76,25,-31,162,37,90,143,53
94,67,-41,-83,76,19,-25,162,31,84,131,47
88,55,-41,-71,70,13,-19,156,25,72,125,35
76,49,-29,-59,58,13,-19,150,19,60,113,23
52,43,-17,-47,40,13,-13,144,13,48,107,17
40,37,-17,-35,34,13,-7,138,7,42,101,11
34,25,-17,-29,34,7,-2,132,1,36,89,5
34,25,-17,-23,34,7,4,126,-4,24,77,0
28,25,-17,-23,34,7,10,114,-10,12,65,-12
28,19,-17,-17,34,1,16,108,-16,6,53,-18
28,13,-17,-17,34,1,22,102,-22,-5,47,-24
16,13,-11,-11,22,1,28,96,-28,-11,41,-30
-7,7,0,0,10,1,34,90,-28,-17,35,-36
-13,1,0,12,4,1,34,84,-28,-23,29,-42
-19,-4,0,18,-1,1,40,78,-34,-29,23,-48
-25,-10,0,24,-7,1,46,72,-34,-35,17,-54
-25,-10,0,24,-13,1,52,66,-40,-41,11,-54
-31,-10,0,24,-13,1,52,66,-40,-41,11,-60
-31,-10,0,30,-13,1,52,60,-40,-47,5,-60
-37,-10,6,30,-19,1,52,54,-46,-53,-1,-66
-43,-10,12,30,-25,1,52,48,-52,-59,-1,-66
-43,-16,12,30,-25,1,52,48,-52,-65,-1,-66
-43,-22,12,30,-19,-4,52,48,-58,-65,-6,-72
-43,-22,12,30,-19,-4,52,48,-64,-65,-12,-78
-43,-22,12,30,-19,-4,52,48,-64,-65,-12,-84
-43,-22,12,30,-19,-4,52,42,-70,-65,-12,-84
-43,-22,12,30,-19,-4,52,42,-70,-65,-12,-84
-43,-22,18,30,-25,-4,52,42,-70,-71,-12,-84
-49,-22,18,30,-31,-4,52,42,-70,-71,-12,-84
-61,-22,24,36,-37,-4,52,42,-70,-71,-12,-84
-67,-22,30,36,-37,-4,52,42,-70,-71,-12,-84
-67,-22,30,36,-37,-4,52,42,-70,-71,-12,-84
-67,-22,30,36,-37,-4,52,42,-70,-71,-12,-84
-67,-22,30,36,-37,-4,52,42,-70,-71,-12,-84
-67,-22,30,36,-37,-4,52,42,-70,-71,-12,-84
-67,-22,30,36,-37,-4,52,42,-70,-71,-12,-84
-67,-22,30,36,-37,-4,52,42,-70,-71,-12,-84
-67,-22,30,36,-37,-4,52,42,-70,-71,-12,-84
-67,-22,30,36,-37,-4,52,42,-70,-71,-12,-84
-61,-22,30,36,-37,-4,52,42,-70,-71,-12,-84
-55,-28,18,36,-31,-4,52,42,-70,-71,-12,-84
-49,-28,18,36,-31,-4,52,42,-70,-71,-12,-84
-49,-28,18,36,-31,-4,52,42,-70,-71,-12,-84
-49,-28,18,36,-31,-4,52,42,-70,-71,-12,-84
-49,-28,12,36,-25,-10,52,42,-64,-71,-12,-84
-49,-34,6,36,-25,-16,52,42,-64,-71,-12,-84
-49,-34,0,36,-25,-16,52,42,-64,-71,-12,-84
-49,-34,0,36,-25,-16,52,42,-64,-71,-12,-84
-49,-34,0,36,-25,-16,52,42,-64,-71,-12,-84
-49,-34,0,36,-25,-16,52,42,-64,-71,-12,-84
-49,-34,0,36,-25,-16,52,42,-64,-65,-12,-84
-49,-34,0,36,-25,-16,52,42,-58,-65,-12,-84
-49,-34,0,36,-25,-10,52,42,-58,-65,-12,-84
-49,-28,6,36,-25,-10,52,42,-58,-65,-12,-84
-49,-28,6,36,-25,-10,52,42,-58,-65,-12,-84
-49,-28,6,36,-25,-10,52,42,-58,-65,-12,-84
-49,-28,6,36,-25,-10,52,42,-58,-65,-12,-84
-49,-28,6,36,-25,-10,58,42,-58,-65,-12,-84
-49,-28,6,36,-25,-10,64,48,-58,-65,-12,-84
-49,-28,6,36,-25,-10,64,48,-58,-65,-12,-84
-49,-28,6,36,-25,-10,64,48,-58,-65,-12,-84
-49,-28,6,36,-25,-10,64,48,-58,-65,-12,-84
-49,-28,6,36,-25,-10,64,48,-58,-65,-12,-84
-49,-28,6,36,-25,-10,64,48,-58,-65,-12,-84
-49,-28,6,36,-25,-10,64,48,-58,-65,-12,-78
-49,-28,6,36,-25,-10,64,48,-58,-65,-12,-78
-49,-28,6,36,-25,-10,64,48,-58,-65,-12,-78
-49,-28,6,36,-25,-10,64,48,-58,-65,-12,-78
-55,-28,6,42,-25,-10,64,48,-58,-59,-12,-78
-67,-28,18,48,-37,-10,64,48,-58,-59,-12,-78
-73,-28,24,48,-43,-10,64,48,-58,-53,-12,-72
-73,-28,24,48,-43,-10,64,48,-58,-53,-12,-72
-67,-28,24,48,-37,-10,64,48,-58,-53,-12,-72
-67,-28,24,48,-37,-10,64,48,-58,-53,-12,-72
-67,-28,24,48,-37,-10,64,48,-58,-53,-12,-72
-67,-28,24,48,-37,-4,64,42,-58,-53,-12,-72
-67,-28,24,48,-37,1,64,36,-58,-53,-12,-72
-61,-28,24,48,-37,1,64,36,-58,-53,-12,-72
-55,-34,18,48,-31,-4,64,36,-58,-53,-12,-72
-49,-34,12,48,-25,-10,64,36,-58,-53,-12,-72
-49,-34,12,48,-25,-10,58,30,-64,-59,-12,-72
-49,-28,12,42,-25,-10,52,24,-70,-65,-12,-72
-43,-28,12,42,-25,-10,46,18,-76,-65,-18,-72
-43,-28,12,42,-25,-10,46,18,-76,-65,-18,-72
-43,-34,6,42,-25,-10,46,18,-76,-65,-18,-72
-37,-34,0,42,-25,-10,46,12,-76,-65,-18,-72
-37,-34,0,42,-25,-10,46,6,-82,-65,-18,-72
-37,-34,0,42,-25,-10,46,6,-82,-65,-18,-72
-43,-34,6,42,-25,-10,46,6,-82,-65,-18,-72
-43,-34,12,42,-25,-10,46,6,-82,-65,-18,-72
-43,-34,12,42,-25,-10,46,6,-82,-65,-18,-72
-49,-40,12,42,-25,-10,46,6,-82,-65,-18,-72
-49,-40,12,42,-25,-10,46,6,-82,-65,-18,-72
-49,-40,12,42,-25,-10,46,6,-88,-65,-18,-72
-49,-40,12,42,-25,-10,46,0,-94,-65,-18,-72
-49,-40,12,42,-25,-10,46,-5,-94,-65,-18,-72
-49,-46,6,42,-25,-16,46,-11,-94,-71,-18,-72
-49,-46,6,42,-25,-16,46,-17,-100,-71,-18,-72
-49,-46,6,42,-25,-16,46,-23,-106,-71,-24,-72
-43,-46,-5,42,-19,-22,46,-23,-112,-71,-24,-72
-37,-52,-17,42,-7,-34,46,-23,-112,-71,-24,-72
-37,-52,-23,42,-1,-34,46,-23,-112,-71,-24,-72
-37,-52,-23,42,-1,-34,46,-23,-112,-77,-24,-72
-37,-52,-17,42,-1,-34,46,-23,-112,-77,-24,-72
-43,-52,-11,48,-13,-34,46,-23,-112,-77,-24,-72
-55,-52,-5,54,-19,-34,46,-23,-112,-77,-24,-72
-55,-52,-5,54,-19,-34,46,-23,-112,-77,-24,-72
-55,-52,-5,54,-19,-34,46,-29,-112,-77,-24,-72
-55,-52,-5,54,-19,-34,46,-29,-112,-77,-24,-72
-55,-52,-5,54,-19,-34,46,-29,-112,-77,-24,-72
-55,-52,0,54,-19,-34,46,-29,-112,-77,-24,-72
-55,-52,0,54,-19,-34,46,-29,-112,-77,-24,-72
-55,-52,0,54,-19,-34,46,-29,-112,-77,-24,-72
-55,-52,0,54,-19,-34,40,-35,-118,-83,-24,-72
-55,-52,0,54,-19,-34,40,-35,-118,-83,-30,-72
-55,-52,0,54,-19,-34,40,-35,-118,-83,-30,-72
-55,-52,0,54,-19,-34,40,-35,-118,-83,-30,-72
-55,-52,0,54,-19,-34,40,-41,-118,-83,-30,-72
-49,-52,-5,54,-19,-34,40,-47,-118,-83,-30,-72
-43,-52,-11,54,-19,-34,40,-47,-118,-83,-30,-72
-43,-52,-11,54,-19,-34,40,-47,-118,-83,-30,-66
-43,-58,-11,54,-19,-34,40,-47,-118,-83,-30,-60
-43,-58,-11,54,-19,-34,34,-47,-118,-83,-36,-60
-43,-58,-11,54,-19,-34,34,-47,-124,-83,-36,-60
-49,-64,-11,54,-19,-34,34,-47,-124,-83,-36,-60
-61,-70,-11,60,-19,-34,34,-47,-124,-83,-36,-60
-61,-70,-11,60,-19,-34,34,-47,-124,-83,-36,-60
-61,-64,-5,60,-19,-28,34,-53,-130,-83,-36,-60
-55,-58,-5,60,-19,-28,34,-59,-130,-83,-36,-60
-55,-58,-5,60,-19,-28,34,-59,-130,-83,-36,-60
-55,-58,-5,60,-19,-28,34,-59,-130,-83,-36,-60
-55,-58,-5,60,-19,-28,34,-59,-130,-83,-36,-60
-55,-52,-5,54,-19,-28,34,-59,-130,-83,-36,-60
-55,-46,-5,48,-19,-28,34,-59,-130,-83,-36,-60
-55,-46,-5,42,-19,-22,34,-59,-130,-83,-36,-60
-55,-46,-5,36,-19,-22,34,-59,-130,-83,-36,-60
-55,-40,0,36,-19,-22,34,-59,-130,-83,-36,-60
-55,-34,6,36,-25,-16,34,-59,-130,-83,-36,-54
-55,-28,12,36,-25,-10,40,-59,-124,-83,-36,-48
-55,-22,12,36,-25,-10,40,-59,-124,-83,-36,-48
-49,-16,12,30,-25,-10,40,-59,-118,-83,-36,-48
-43,-10,12,24,-25,-4,40,-59,-118,-83,-36,-48
-43,-4,18,24,-25,1,46,-53,-112,-83,-36,-48
-43,-4,18,24,-25,1,52,-47,-106,-77,-36,-42
-43,-4,18,24,-25,1,58,-41,-100,-71,-36,-42
-43,-4,18,24,-25,7,64,-35,-94,-65,-36,-42
-37,1,24,18,-25,13,64,-35,-94,-65,-36,-42
-37,7,30,12,-25,19,64,-35,-94,-65,-36,-42
-37,7,30,12,-25,19,64,-29,-88,-59,-30,-30
-31,7,30,6,-25,19,64,-29,-82,-53,-24,-24
-25,13,30,0,-25,19,64,-29,-82,-53,-24,-18
-19,19,30,-5,-25,19,58,-29,-82,-53,-24,-18
-13,19,30,-5,-25,19,52,-29,-82,-53,-18,-18
-7,19,30,-5,-25,19,46,-29,-82,-53,-18,-18
4,19,24,-5,-19,19,40,-29,-82,-53,-18,-18
16,19,18,-11,-7,19,28,-29,-82,-53,-18,-18
22,25,12,-23,-1,19,22,-29,-82,-53,-18,-18
22,25,12,-23,-1,19,16,-29,-82,-53,-18,-18
22,25,12,-23,4,19,16,-29,-82,-47,-12,-12
22,25,12,-23,4,19,16,-29,-82,-41,-12,-6
22,25,12,-29,4,19,16,-29,-76,-41,-12,-6
28,25,6,-29,10,19,16,-29,-76,-41,-12,-6
28,25,6,-29,10,19,16,-29,-76,-41,-12,-6
28,25,6,-29,10,19,10,-29,-76,-41,-12,0
28,25,0,-29,10,19,10,-29,-76,-41,-12,0
28,19,0,-23,10,13,4,-29,-76,-41,-12,0
22,13,0,-17,10,13,4,-29,-76,-41,-12,0
16,1,0,-11,10,7,4,-29,-76,-41,-12,0
10,-10,-5,-5,10,-4,4,-29,-76,-41,-12,0
4,-16,-5,0,10,-10,4,-35,-82,-47,-24,-6
-2,-16,-5,6,4,-10,4,-47,-94,-59,-36,-12
-7,-22,-5,12,-1,-10,4,-59,-106,-71,-42,-18
-19,-40,-11,24,-7,-22,4,-59,-118,-77,-48,-24
-49,-52,-11,48,-19,-28,4,-59,-124,-83,-48,-24
-55,-58,-11,54,-25,-28,4,-59,-124,-83,-48,-24
-55,-64,-11,54,-25,-28,4,-65,-124,-83,-54,-24
-55,-64,-11,54,-25,-28,4,-71,-124,-83,-54,-24
-55,-70,-11,60,-25,-34,4,-77,-124,-89,-54,-30
-55,-76,-17,66,-25,-40,4,-77,-130,-95,-60,-30
-55,-82,-17,66,-25,-46,4,-77,-130,-95,-60,-30
-61,-82,-17,66,-25,-46,4,-83,-130,-95,-60,-30
-61,-82,-17,66,-25,-46,4,-83,-136,-101,-66,-30
-61,-88,-17,72,-25,-52,4,-89,-136,-107,-72,-30
-61,-94,-23,78,-25,-58,4,-89,-142,-107,-72,-30
-61,-94,-29,78,-25,-64,4,-89,-142,-107,-72,-30
-61,-94,-29,78,-25,-64,-2,-95,-142,-107,-72,-30
-61,-94,-29,78,-25,-64,-2,-95,-142,-107,-72,-30
-61,-94,-29,78,-25,-64,-2,-95,-142,-107,-72,-30
-67,-94,-29,78,-25,-64,-2,-101,-142,-107,-72,-36
-67,-94,-29,78,-25,-64,-2,-107,-142,-113,-78,-42
-67,-100,-29,78,-25,-64,-2,-113,-142,-119,-78,-48
-67,-106,-41,78,-19,-70,-2,-113,-142,-119,-78,-48
-67,-106,-41,78,-19,-70,-2,-113,-148,-119,-78,-48
-67,-106,-41,78,-19,-70,-7,-113,-154,-119,-84,-48
-67,-106,-41,78,-19,-70,-7,-113,-154,-119,-84,-48
-67,-106,-41,78,-19,-70,-7,-113,-154,-119,-84,-48
-67,-106,-41,78,-19,-70,-7,-113,-160,-119,-90,-54
-67,-100,-41,78,-19,-70,-7,-113,-160,-119,-90,-54
-67,-94,-35,78,-19,-70,-7,-113,-160,-119,-90,-54
-67,-94,-23,78,-25,-64,-7,-113,-160,-119,-90,-54
-67,-94,-17,78,-31,-58,-7,-113,-160,-119,-90,-54
-73,-94,-11,78,-37,-52,-7,-113,-160,-119,-90,-54
-73,-94,-11,78,-37,-52,-7,-113,-160,-119,-90,-54
-73,-94,-11,78,-37,-52,-7,-107,-160,-119,-90,-54
-73,-94,-11,78,-37,-52,-7,-101,-154,-119,-90,-54
-73,-94,-11,78,-37,-52,-7,-95,-148,-119,-90,-54
-73,-94,-11,78,-37,-52,-7,-95,-148,-119,-90,-54
-73,-94,-11,78,-37,-52,-7,-95,-148,-119,-90,-54
-73,-94,-11,78,-37,-52,-7,-95,-148,-119,-90,-54
-73,-100,-23,84,-37,-58,-2,-95,-148,-119,-90,-54
-73,-106,-29,84,-37,-64,4,-89,-148,-125,-90,-54
-73,-106,-29,90,-37,-64,16,-77,-148,-131,-96,-60
-85,-106,-29,96,-37,-64,40,-53,-148,-131,-108,-72
-97,-106,-17,102,-43,-64,70,-29,-148,-137,-120,-84
-109,-100,12,102,-55,-52,112,0,-142,-143,-126,-90
-115,-100,24,102,-61,-46,142,60,-124,-143,-126,-90
-115,-94,30,102,-61,-40,166,132,-70,-131,-120,-90
-109,-64,42,90,-61,-22,196,234,31,-65,-66,-66
-67,25,54,30,-61,37,226,354,151,48,35,0
-25,133,102,-47,-61,127,250,462,289,174,155,101
10,199,132,-101,-61,169,262,504,403,300,257,203
46,253,156,-143,-61,211,268,522,481,414,365,287
106,343,186,-221,-55,253,262,522,571,546,485,407
226,439,192,-329,-7,295,160,522,685,720,641,545
346,535,192,-437,70,331,-43,522,811,912,827,713
460,637,192,-545,130,379,-271,510,907,1074,995,869
550,703,186,-623,184,403,-439,498,1015,1200,1109,977
592,709,156,-641,214,403,-517,504,1147,1290,1169,1019
592,703,120,-641,226,397,-589,516,1201,1308,1175,1019
574,601,72,-593,232,349,-667,498,1195,1248,1109,989
496,463,0,-473,232,235,-697,330,961,948,875,833
424,349,-41,-389,232,151,-703,114,619,588,593,647
340,271,-53,-311,220,121,-691,-101,319,294,359,485
232,229,-41,-227,148,115,-619,-257,109,96,203,371
136,187,6,-167,76,109,-499,-341,-10,-23,83,251
70,127,24,-101,40,97,-409,-383,-82,-71,11,155
46,31,12,-47,40,19,-325,-383,-112,-89,-30,89
40,-64,-77,0,46,-70,-253,-353,-118,-95,-48,47
28,-112,-119,30,52,-112,-211,-305,-118,-95,-54,29
22,-130,-137,48,52,-130,-181,-263,-118,-95,-54,17
22,-136,-143,54,52,-136,-169,-227,-118,-95,-54,11
22,-136,-143,54,58,-136,-139,-197,-118,-95,-54,11
22,-136,-143,54,58,-136,-115,-167,-118,-95,-54,11
16,-130,-131,54,58,-130,-97,-137,-118,-95,-54,11
10,-124,-119,54,58,-124,-73,-113,-112,-89,-54,11
4,-118,-107,54,58,-118,-61,-101,-106,-89,-54,11
-7,-106,-77,54,46,-100,-49,-95,-106,-89,-54,11
-19,-100,-53,54,34,-82,-37,-95,-106,-89,-54,11
-25,-100,-47,54,22,-76,-25,-95,-106,-89,-54,11
-31,-100,-47,54,16,-70,-13,-95,-106,-89,-54,11
-31,-94,-47,54,10,-64,-7,-95,-106,-89,-54,5
-37,-88,-41,54,4,-58,-7,-95,-106,-89,-54,0
-37,-88,-41,54,4,-58,-7,-95,-106,-89,-54,0
-37,-94,-47,60,4,-64,-2,-95,-106,-89,-54,0
-37,-94,-47,66,4,-70,4,-89,-106,-89,-54,0
-37,-94,-47,66,4,-70,4,-89,-106,-89,-60,-6
-37,-94,-47,66,4,-70,10,-89,-106,-95,-66,-12
-37,-94,-47,66,4,-70,10,-89,-106,-101,-72,-12
-43,-94,-47,66,-1,-70,10,-89,-106,-101,-72,-12
-43,-94,-47,66,-1,-70,16,-89,-106,-101,-72,-12
-43,-94,-41,66,-1,-64,16,-89,-106,-101,-72,-12
-49,-82,-29,66,-7,-52,16,-89,-106,-101,-72,-12
-49,-82,-23,66,-7,-52,16,-89,-106,-101,-72,-12
-49,-82,-23,66,-7,-52,16,-89,-106,-101,-72,-12
-49,-82,-29,66,-7,-52,16,-89,-106,-101,-72,-12
-49,-82,-35,66,-1,-52,16,-89,-106,-101,-72,-12
-49,-82,-35,66,-1,-52,16,-89,-106,-101,-72,-12
-49,-82,-41,66,-1,-52,16,-89,-106,-101,-72,-12
-49,-82,-41,66,-1,-52,16,-89,-106,-101,-72,-12
-49,-82,-41,66,-1,-52,16,-89,-106,-101,-72,-12
-49,-82,-41,66,-1,-52,16,-89,-106,-101,-72,-12
-49,-82,-41,66,-1,-52,16,-89,-106,-101,-72,-12
-49,-82,-41,66,-1,-52,16,-89,-106,-101,-72,-12
-49,-82,-41,66,-1,-52,16,-89,-106,-101,-72,-12
-49,-82,-41,66,-1,-52,16,-89,-106,-101,-72,-12
-49,-82,-41,66,-1,-52,16,-89,-106,-101,-72,-12
-55,-82,-35,66,-7,-52,16,-89,-106,-101,-72,-12
-55,-76,-29,66,-7,-46,16,-89,-106,-101,-72,-12
-49,-76,-29,60,-7,-46,16,-89,-106,-101,-72,-12
-43,-70,-29,54,-7,-46,16,-83,-106,-101,-72,-12
-43,-64,-23,48,-7,-46,16,-83,-106,-101,-72,-12
-43,-64,-23,48,-7,-46,16,-83,-106,-101,-72,-12
-43,-64,-23,48,-7,-46,16,-77,-106,-95,-72,-12
-43,-64,-23,48,-7,-46,16,-71,-100,-89,-72,-12
-43,-64,-23,48,-7,-46,16,-65,-94,-83,-72,-12
-43,-64,-29,48,-7,-46,16,-59,-88,-83,-72,-12
-31,-58,-35,42,-1,-46,16,-59,-88,-83,-72,-12
-25,-58,-35,42,-1,-46,16,-59,-88,-83,-72,-12
-25,-64,-41,42,-1,-52,16,-59,-82,-77,-66,-12
-25,-70,-41,42,-1,-58,16,-53,-82,-71,-60,-12
-25,-70,-41,42,-1,-58,16,-53,-82,-71,-54,-12
-25,-70,-41,42,-1,-58,16,-53,-82,-71,-54,-12
-25,-70,-41,42,-1,-58,16,-53,-82,-71,-54,-12
-25,-70,-41,42,4,-58,16,-53,-76,-71,-54,-12
-25,-70,-41,42,4,-58,16,-53,-70,-65,-54,-12
-31,-70,-41,42,4,-58,16,-53,-64,-65,-54,-12
-31,-70,-41,42,4,-58,16,-53,-58,-65,-54,-12
-31,-70,-41,42,4,-58,16,-53,-58,-65,-54,-12
-25,-70,-41,42,4,-58,16,-53,-52,-59,-54,-12
-25,-70,-41,42,4,-58,16,-47,-52,-59,-54,-12
-25,-64,-41,42,4,-52,16,-47,-52,-59,-54,-6
-25,-58,-41,42,4,-52,16,-47,-52,-59,-54,-6
-25,-58,-41,42,4,-52,16,-41,-46,-59,-48,0
-25,-58,-41,42,4,-52,16,-41,-46,-59,-48,5
-19,-52,-41,36,4,-52,10,-41,-46,-59,-48,11
-13,-46,-41,30,10,-52,4,-41,-46,-53,-48,11
-13,-46,-41,30,10,-46,4,-35,-40,-47,-42,17
-13,-46,-41,30,10,-46,4,-23,-28,-35,-36,23
-13,-46,-41,30,10,-46,4,-17,-22,-29,-30,29
-13,-46,-41,30,10,-46,-2,-17,-22,-29,-30,29
-7,-46,-47,24,16,-46,-2,-17,-22,-29,-30,29
-2,-46,-47,18,22,-46,-2,-17,-16,-29,-24,29
-2,-46,-47,18,22,-46,-2,-11,-10,-23,-18,35
-7,-46,-35,18,10,-46,-2,-11,-4,-17,-12,41
-7,-40,-29,18,4,-40,-2,-5,1,-5,-12,47
-2,-34,-29,18,4,-40,-2,0,7,0,-12,47
10,-28,-29,12,10,-40,-7,0,13,6,-12,47
16,-22,-29,6,10,-40,-7,0,19,6,-12,47
16,-16,-29,6,10,-34,-7,0,25,6,-12,47
16,-16,-29,6,10,-34,-7,6,31,12,-6,59
16,-16,-29,6,10,-34,-7,6,37,18,5,71
16,-16,-29,6,10,-28,-13,12,43,24,17,83
16,-10,-23,6,10,-22,-19,18,43,24,23,89
16,-4,-23,0,10,-16,-25,18,43,24,29,95
22,-4,-29,0,16,-16,-31,18,43,30,29,95
28,-4,-35,-5,22,-22,-31,18,43,36,29,101
28,-4,-35,-5,22,-22,-37,18,43,36,29,107
28,-4,-35,-5,28,-28,-37,24,43,42,35,113
28,-4,-41,-5,34,-34,-37,30,49,48,35,119
28,-4,-41,-11,34,-34,-43,36,55,54,35,125
34,7,-41,-17,34,-28,-49,42,55,60,35,125
40,13,-41,-23,40,-22,-55,42,55,66,35,125
46,19,-41,-29,46,-22,-61,48,61,66,35,125
58,19,-47,-35,52,-22,-67,54,73,72,47,131
70,25,-47,-41,58,-22,-73,60,85,84,59,137
76,31,-47,-47,58,-22,-79,66,91,96,65,143
76,31,-47,-47,58,-16,-79,72,97,102,71,149
76,31,-47,-53,58,-16,-85,72,97,108,77,155
88,37,-47,-65,64,-16,-91,72,103,114,77,155
100,43,-53,-71,70,-16,-97,78,109,120,83,161
100,43,-53,-77,70,-16,-103,84,109,126,83,167
100,43,-59,-77,70,-16,-103,90,109,132,89,173
100,49,-59,-83,70,-16,-109,96,115,138,101,179
106,55,-59,-83,70,-10,-109,102,121,144,113,185
106,61,-53,-83,70,-4,-115,108,127,150,119,191
112,67,-53,-89,70,1,-121,108,127,156,125,197
118,67,-53,-95,76,1,-121,108,133,162,131,203
124,73,-53,-95,82,7,-127,114,139,168,131,209
130,79,-53,-101,82,7,-127,120,145,174,131,215
130,79,-53,-101,82,7,-127,120,151,180,137,221
130,79,-53,-107,82,7,-127,120,157,186,143,221
130,79,-53,-107,82,7,-133,120,157,186,143,221
136,79,-53,-107,88,7,-133,120,157,186,143,221
142,85,-53,-107,88,7,-133,120,157,186,143,221
142,91,-53,-113,88,7,-139,120,157,186,143,221
148,91,-53,-113,94,7,-145,120,157,186,143,221
148,91,-53,-113,94,7,-151,120,157,192,143,221
148,97,-47,-113,94,13,-151,120,157,198,149,227
148,97,-47,-119,94,13,-157,120,157,198,149,227
154,97,-47,-125,100,13,-163,120,157,198,149,227
160,97,-53,-131,106,13,-163,120,157,198,149,227
160,97,-59,-131,112,13,-163,120,157,198,149,233
160,97,-59,-131,112,13,-163,120,157,198,155,233
160,97,-59,-131,112,13,-163,120,157,198,155,233
160,97,-65,-131,112,13,-163,120,157,198,155,233
160,97,-71,-131,112,7,-163,120,157,198,155,233
160,97,-71,-131,112,7,-163,120,157,198,155,233
154,97,-71,-131,112,7,-163,120,157,198,155,233
154,97,-71,-131,112,7,-163,114,151,198,149,233
154,97,-71,-131,112,7,-163,108,151,192,143,227
154,97,-71,-131,112,7,-163,102,151,186,137,221
154,97,-71,-131,112,7,-163,102,145,180,137,215
154,97,-65,-131,112,7,-157,96,145,174,137,209
154,97,-65,-131,112,7,-151,90,139,168,131,203
154,91,-65,-125,112,7,-145,84,133,156,119,197
154,85,-65,-113,112,7,-139,78,127,150,113,191
142,73,-65,-101,106,7,-133,78,127,144,107,191
118,67,-65,-89,94,7,-121,78,127,138,101,185
106,61,-59,-83,82,7,-109,72,121,132,95,179
100,61,-53,-77,76,7,-97,66,109,126,89,173
94,55,-53,-71,70,7,-91,54,97,114,77,161
88,43,-53,-65,64,7,-79,48,91,102,65,155
82,31,-53,-53,64,7,-73,42,85,90,53,149
64,25,-47,-41,52,7,-67,36,79,78,41,143
40,19,-41,-29,40,7,-55,30,79,72,35,137
28,13,-35,-17,28,7,-49,24,79,66,29,137
16,7,-29,-11,22,7,-43,12,79,60,23,131
10,1,-29,-5,16,7,-37,0,73,48,11,125
4,-4,-29,0,10,1,-31,-5,67,36,5,119
-2,-10,-29,6,10,-4,-31,-11,61,24,-1,113
-7,-10,-23,6,4,-4,-31,-17,55,12,-12,107
-7,-10,-17,6,-1,-4,-31,-23,49,0,-18,101
-7,-10,-17,6,-1,-4,-31,-29,43,-5,-30,95
-13,-16,-17,12,-7,-4,-31,-35,43,-11,-36,89
-13,-22,-17,12,-7,-4,-25,-41,43,-11,-42,83
-13,-22,-17,12,-7,-4,-19,-47,37,-17,-48,83
-13,-22,-17,12,-7,-4,-19,-59,31,-23,-54,77
-13,-22,-17,12,-7,-4,-19,-65,25,-29,-66,71
-19,-28,-17,18,-7,-4,-19,-71,19,-35,-72,65
-25,-34,-17,30,-7,-4,-13,-71,19,-35,-78,59
-31,-40,-17,36,-7,-10,-7,-77,19,-35,-78,53
-37,-52,-17,42,-7,-16,-2,-77,19,-35,-78,53
-43,-52,-17,48,-13,-16,-2,-77,13,-41,-78,53
-49,-52,-5,48,-25,-16,-2,-77,7,-47,-78,53
-49,-52,-5,48,-31,-16,-2,-83,7,-47,-78,53
-49,-52,-5,48,-31,-16,4,-83,7,-47,-78,53
-49,-46,-5,48,-31,-16,4,-83,7,-53,-84,53
-49,-46,0,48,-31,-16,4,-83,7,-53,-84,53
-55,-46,0,54,-37,-16,10,-83,7,-53,-84,53
-61,-46,6,54,-43,-16,10,-83,7,-53,-90,53
-61,-46,6,54,-43,-16,10,-83,7,-53,-90,53
-61,-46,0,54,-37,-16,10,-83,7,-53,-90,53
-61,-46,0,54,-37,-16,10,-83,7,-53,-90,53
-61,-52,0,54,-37,-16,10,-83,7,-53,-96,53
-61,-52,0,54,-37,-22,10,-83,7,-53,-96,53
-61,-52,0,54,-37,-22,10,-83,7,-53,-96,53
-61,-52,0,54,-37,-22,10,-83,7,-53,-96,53
-61,-52,0,54,-37,-22,10,-83,7,-53,-96,53
-61,-52,0,54,-37,-22,10,-83,7,-53,-96,53
-61,-52,0,54,-37,-22,10,-83,7,-53,-96,53
-61,-52,0,54,-37,-22,10,-83,7,-53,-96,53
-61,-52,0,54,-37,-22,10,-83,7,-53,-96,53
-61,-52,0,54,-37,-22,10,-77,7,-53,-96,53
-61,-52,0,54,-37,-22,10,-77,7,-53,-96,53
-61,-52,0,54,-37,-22,10,-77,7,-53,-96,53
-61,-52,0,54,-37,-22,10,-71,7,-53,-96,53
-61,-52,0,54,-37,-22,10,-71,7,-53,-96,53
-61,-52,0,54,-37,-22,10,-71,7,-53,-102,53
-61,-52,6,54,-37,-22,10,-71,7,-53,-108,53
-61,-52,6,54,-37,-22,10,-65,7,-53,-108,53
-61,-52,6,54,-37,-22,16,-65,13,-53,-108,53
-61,-52,6,54,-37,-22,22,-65,13,-53,-108,53
-61,-52,6,54,-37,-22,22,-65,13,-53,-108,53
-61,-52,6,54,-37,-22,22,-65,13,-53,-108,53
-61,-52,6,54,-37,-22,22,-65,13,-53,-108,53
-61,-52,6,54,-37,-22,28,-65,13,-53,-108,53
-61,-52,6,54,-37,-22,28,-65,13,-53,-108,53
-61,-52,6,54,-37,-22,28,-65,13,-53,-108,53
-61,-52,6,54,-37,-22,28,-65,13,-53,-108,53
-61,-52,0,54,-37,-22,28,-65,13,-53,-108,53
-61,-52,0,54,-37,-22,28,-65,13,-53,-108,53
-61,-52,0,54,-37,-22,28,-65,13,-53,-108,53
-55,-52,0,54,-37,-22,28,-65,13,-53,-108,53
-49,-52,-5,54,-31,-22,28,-65,13,-53,-108,53
-49,-52,-5,54,-31,-22,28,-65,13,-53,-108,53
-49,-52,0,54,-31,-22,28,-65,13,-53,-108,53
-55,-52,6,54,-37,-22,28,-65,13,-53,-108,53
-61,-52,6,54,-37,-22,28,-65,13,-53,-108,53
-61,-52,6,54,-37,-22,28,-65,13,-53,-108,53
-61,-52,6,54,-37,-22,28,-65,13,-53,-108,53
-61,-52,12,54,-43,-22,28,-65,13,-53,-108,53
-73,-52,24,54,-55,-10,28,-65,13,-53,-108,53
-73,-52,24,54,-55,-10,28,-65,13,-53,-108,53
-67,-52,18,54,-49,-10,28,-65,13,-53,-108,53
-61,-52,12,54,-43,-16,28,-65,13,-53,-108,53
-61,-52,12,54,-43,-16,28,-65,13,-53,-108,53
-61,-52,12,54,-43,-16,28,-65,13,-53,-108,53
-61,-52,12,54,-37,-16,28,-65,13,-53,-108,53
-61,-52,12,54,-37,-16,28,-65,13,-53,-108,53
-61,-52,12,54,-37,-16,28,-65,13,-53,-108,53
-61,-52,12,54,-37,-16,28,-65,13,-53,-108,59
-61,-52,12,54,-37,-16,28,-65,13,-53,-108,59
-61,-52,12,54,-37,-16,28,-65,13,-53,-108,59
-61,-52,6,54,-37,-16,28,-71,13,-59,-108,59
-61,-52,6,54,-37,-16,28,-71,7,-59,-108,59
-61,-58,6,60,-37,-22,28,-71,7,-59,-108,59
-61,-64,0,60,-37,-28,28,-71,7,-59,-108,59
-55,-64,-5,60,-31,-28,28,-71,7,-65,-114,59
-55,-58,-5,60,-31,-28,28,-77,1,-71,-120,59
-55,-58,-5,60,-31,-28,28,-83,1,-71,-120,59
-55,-58,-5,60,-31,-28,28,-83,1,-71,-120,59
-55,-58,-5,60,-31,-28,28,-83,1,-71,-120,59
-55,-58,-5,60,-31,-28,28,-89,1,-71,-126,59
-61,-58,0,60,-37,-28,28,-89,1,-71,-126,59
-61,-58,6,60,-43,-28,28,-89,1,-71,-126,59
-61,-58,6,60,-43,-28,28,-89,1,-71,-126,59
-61,-58,6,60,-43,-28,28,-89,1,-71,-126,59
-61,-58,6,60,-43,-34,28,-89,1,-71,-126,59
-61,-58,6,60,-43,-34,28,-89,-4,-71,-132,59
-61,-58,6,60,-43,-34,28,-95,-4,-77,-132,59
-61,-58,6,60,-43,-34,28,-95,-4,-77,-132,59
-55,-58,0,54,-43,-34,28,-95,-4,-77,-132,59
-55,-58,0,54,-43,-34,28,-101,-10,-83,-132,59
-55,-64,0,54,-43,-34,28,-101,-16,-83,-132,59
-55,-64,0,54,-43,-34,28,-101,-16,-83,-132,59
-55,-58,12,54,-49,-28,28,-107,-16,-83,-132,59
-55,-58,18,54,-49,-22,28,-107,-16,-83,-132,59
-55,-58,18,54,-43,-22,28,-107,-22,-89,-138,59
-55,-58,12,54,-37,-28,28,-113,-22,-89,-144,59
-55,-64,6,54,-37,-34,28,-113,-22,-89,-144,59
-61,-64,6,60,-37,-40,28,-113,-22,-89,-150,59
-61,-64,6,60,-37,-40,28,-113,-22,-89,-150,59
-61,-64,6,60,-37,-40,28,-113,-22,-89,-150,59
-61,-64,6,60,-37,-40,28,-113,-28,-89,-150,59
-61,-70,0,72,-37,-46,28,-113,-28,-89,-150,59
-67,-82,0,78,-37,-52,28,-113,-28,-89,-150,59
-67,-82,0,78,-37,-52,28,-113,-28,-89,-156,59
-67,-82,0,72,-37,-52,28,-113,-34,-95,-156,59
-67,-82,0,72,-37,-52,28,-113,-34,-95,-156,59
-67,-82,0,72,-37,-52,28,-113,-34,-95,-156,65
-67,-82,0,72,-37,-52,28,-113,-34,-95,-156,65
-67,-82,0,72,-37,-52,28,-113,-34,-95,-156,65
-67,-82,0,72,-37,-52,28,-113,-34,-95,-156,65
-67,-76,6,72,-37,-46,28,-113,-34,-95,-156,65
-61,-70,6,66,-37,-40,28,-113,-34,-95,-156,65
-55,-58,6,60,-37,-34,28,-113,-34,-95,-156,65
-55,-52,6,60,-37,-34,34,-107,-28,-95,-156,71
-55,-52,12,60,-37,-34,40,-101,-22,-95,-150,77
-55,-46,12,60,-37,-34,46,-95,-16,-95,-150,77
-55,-40,12,54,-37,-34,52,-89,-10,-95,-150,77
-55,-40,12,54,-37,-34,52,-89,-10,-95,-150,77
-55,-40,18,54,-37,-28,52,-89,-10,-95,-150,83
-55,-34,30,54,-43,-16,52,-89,-10,-95,-150,89
-55,-22,48,48,-49,-4,52,-89,-10,-95,-150,89
-55,-16,54,42,-49,1,52,-89,-10,-95,-150,89
-55,-16,54,36,-49,1,52,-89,-10,-95,-150,89
-55,-16,54,36,-49,1,52,-89,-10,-95,-150,89
-55,-10,54,30,-49,7,52,-89,-10,-89,-150,89
-49,1,54,24,-49,13,52,-89,-10,-89,-150,89
-37,7,48,18,-43,13,52,-89,-10,-83,-150,95
-31,7,42,12,-31,13,52,-89,-10,-83,-150,95
-25,7,42,6,-31,13,46,-89,-10,-83,-144,95
-25,13,42,6,-31,19,46,-83,-4,-77,-138,107
-25,19,42,6,-31,19,46,-77,1,-71,-132,119
-19,19,42,6,-31,19,46,-77,7,-71,-126,125
-13,19,36,6,-25,13,40,-77,7,-71,-126,125
-7,19,30,6,-19,7,34,-77,13,-71,-126,125
-2,19,30,6,-19,7,34,-77,13,-71,-126,131
-2,25,30,0,-19,7,34,-77,13,-71,-126,131
-2,25,30,0,-19,7,34,-77,13,-71,-126,137
-2,25,30,-5,-19,7,34,-71,19,-71,-126,137
-2,25,30,-11,-19,7,34,-71,19,-71,-126,137
-2,25,30,-11,-19,7,34,-71,19,-71,-126,137
-2,19,24,-11,-19,7,34,-71,19,-71,-126,137
-2,13,18,-11,-13,1,28,-71,19,-71,-126,137
-2,1,12,-5,-13,-4,28,-71,19,-71,-126,137
-7,-10,12,6,-13,-10,28,-77,13,-71,-132,137
-13,-16,12,18,-13,-16,28,-83,1,-83,-138,131
-25,-28,12,24,-13,-22,28,-89,-10,-89,-144,119
-37,-40,12,36,-13,-28,28,-89,-16,-95,-150,107
-43,-52,6,42,-13,-34,28,-95,-28,-107,-162,95
-49,-58,6,48,-19,-34,28,-101,-34,-113,-174,89
-49,-58,6,48,-19,-34,22,-107,-40,-119,-180,83
-49,-58,0,48,-19,-40,22,-113,-46,-125,-186,77
-49,-64,-5,48,-19,-46,16,-119,-52,-131,-192,71
-55,-70,-5,60,-19,-46,16,-125,-52,-131,-192,71
-67,-76,-5,66,-31,-46,16,-125,-52,-131,-192,71
-67,-82,-5,72,-31,-46,16,-125,-52,-137,-192,71
-67,-88,-11,78,-31,-52,16,-131,-52,-137,-192,71
-73,-94,-11,84,-31,-58,16,-131,-52,-137,-192,71
-79,-100,-11,90,-31,-64,16,-131,-52,-137,-198,71
-79,-106,-11,90,-31,-70,16,-137,-52,-143,-198,71
-79,-112,-17,90,-31,-70,16,-137,-52,-143,-198,71
-85,-118,-17,96,-31,-70,16,-137,-52,-143,-198,71
-91,-118,-17,96,-37,-70,16,-137,-52,-143,-198,71
-91,-118,-17,96,-37,-70,16,-137,-52,-143,-198,71
-91,-118,-17,96,-37,-70,16,-137,-52,-143,-198,71
-91,-118,-17,96,-37,-70,16,-137,-52,-143,-198,71
-91,-118,-17,96,-37,-70,16,-137,-52,-143,-198,71
-91,-118,-17,96,-37,-70,16,-137,-52,-143,-198,71
-91,-118,-17,96,-37,-70,16,-137,-52,-143,-198,71
-91,-118,-23,96,-37,-70,16,-137,-52,-143,-198,71
-85,-118,-23,96,-37,-70,16,-137,-52,-143,-204,71
-85,-124,-29,96,-37,-76,16,-137,-52,-143,-204,71
-85,-130,-29,102,-37,-82,16,-137,-52,-143,-204,71
-85,-130,-29,102,-31,-88,16,-137,-52,-143,-204,71
-85,-130,-29,102,-31,-88,16,-137,-52,-143,-204,71
-85,-130,-35,102,-31,-94,16,-137,-52,-143,-204,71
-85,-136,-53,102,-19,-106,16,-137,-52,-143,-204,71
-85,-142,-65,102,-13,-112,16,-137,-52,-143,-204,71
-85,-142,-65,102,-13,-112,16,-137,-52,-143,-204,71
-91,-142,-59,108,-19,-112,22,-137,-52,-143,-204,71
-91,-142,-59,108,-19,-112,22,-137,-52,-143,-204,71
-91,-142,-59,108,-19,-112,22,-137,-58,-143,-204,71
-91,-142,-53,108,-19,-106,22,-137,-58,-143,-204,71
-97,-142,-41,114,-31,-100,22,-131,-58,-143,-204,71
-103,-142,-29,114,-37,-94,22,-131,-58,-143,-204,71
-103,-136,-23,108,-37,-88,22,-131,-58,-149,-210,65
-103,-130,-23,108,-37,-82,22,-131,-58,-155,-216,59
-103,-130,-23,108,-37,-82,22,-125,-58,-161,-228,53
-103,-130,-23,108,-43,-82,40,-107,-58,-167,-234,41
-109,-136,-23,120,-49,-82,82,-77,-58,-173,-246,29
-115,-136,-17,126,-55,-82,124,-47,-58,-185,-258,17
-121,-124,18,126,-67,-70,154,-17,-58,-191,-264,5
-121,-112,24,126,-73,-58,166,24,-40,-191,-264,0
-115,-100,24,120,-73,-58,196,120,19,-167,-252,5
-103,-70,24,90,-67,-46,226,234,139,-77,-186,35
-73,13,48,30,-67,19,244,342,283,54,-78,125
-43,109,114,-35,-67,109,268,420,421,192,35,221
-13,169,156,-83,-73,157,286,456,523,312,155,317
22,247,186,-131,-73,211,286,462,613,438,281,413
100,361,222,-215,-73,289,262,462,715,594,419,533
202,481,246,-329,-55,349,94,456,847,762,575,689
346,583,246,-449,22,385,-151,444,973,954,767,857
460,673,240,-563,100,421,-385,426,1093,1110,929,1019
520,745,240,-623,130,457,-541,408,1207,1230,1031,1121
538,763,240,-641,142,469,-643,402,1333,1308,1085,1163
538,751,222,-641,154,463,-721,402,1381,1320,1085,1163
514,631,162,-587,160,397,-769,360,1351,1206,983,1091
442,451,66,-461,172,253,-781,204,1069,900,725,917
382,307,-17,-359,178,145,-775,0,703,528,449,737
304,253,-23,-275,172,121,-727,-227,349,228,227,569
214,205,-17,-197,124,109,-625,-389,115,24,65,425
130,133,-11,-113,82,79,-523,-485,-52,-101,-54,311
76,49,-11,-53,58,37,-427,-503,-100,-143,-132,215
40,-28,-23,-5,52,-34,-349,-491,-106,-161,-168,143
22,-100,-65,30,52,-94,-277,-407,-106,-161,-186,101
16,-142,-125,48,58,-136,-229,-353,-106,-161,-198,77
10,-160,-143,54,64,-154,-193,-299,-94,-161,-198,65
4,-160,-143,60,64,-154,-157,-251,-82,-149,-198,65
-2,-160,-137,60,64,-148,-121,-203,-70,-137,-198,65
-2,-148,-131,60,58,-136,-85,-155,-58,-131,-192,65
-7,-136,-113,60,52,-124,-55,-125,-46,-125,-186,65
-19,-130,-101,60,40,-112,-43,-101,-34,-119,-186,65
-25,-130,-89,66,28,-106,-31,-89,-28,-119,-186,65
-37,-130,-77,72,16,-100,-19,-83,-22,-119,-186,65
-43,-130,-71,72,10,-100,-7,-77,-22,-119,-180,65
-49,-130,-65,72,4,-100,4,-71,-22,-119,-180,65
-49,-124,-59,72,-1,-94,10,-71,-22,-119,-180,65
-55,-124,-53,72,-7,-94,16,-71,-22,-119,-180,65
-55,-124,-47,72,-13,-88,22,-71,-22,-119,-180,65
-55,-118,-41,72,-13,-82,28,-71,-22,-119,-180,59
-55,-112,-41,72,-13,-82,28,-71,-22,-119,-180,53
-55,-112,-41,72,-7,-82,28,-71,-22,-119,-180,47
-55,-112,-41,72,-7,-82,28,-71,-22,-119,-180,47
-55,-112,-35,72,-7,-82,34,-65,-22,-119,-180,47
-61,-112,-35,72,-13,-76,34,-65,-22,-119,-180,47
-61,-112,-35,72,-19,-70,34,-59,-22,-119,-180,47
-61,-106,-29,72,-25,-64,34,-59,-22,-119,-180,47
-61,-106,-29,72,-25,-64,34,-59,-22,-119,-180,47
-61,-100,-29,72,-25,-64,34,-59,-22,-119,-180,47
-61,-100,-29,72,-19,-64,34,-59,-22,-119,-180,47
-55,-100,-29,72,-13,-64,34,-59,-22,-119,-180,41
-55,-100,-29,72,-13,-64,34,-59,-22,-119,-180,41
-55,-94,-29,72,-13,-58,40,-59,-22,-119,-180,41
-55,-94,-29,72,-13,-58,46,-59,-22,-119,-180,41
-55,-94,-29,72,-13,-58,46,-59,-22,-119,-180,41
-55,-88,-29,72,-13,-52,46,-59,-22,-119,-180,41
-55,-88,-29,72,-13,-52,46,-59,-22,-119,-180,41
-55,-88,-29,72,-13,-52,46,-59,-22,-119,-180,41
-61,-88,-23,72,-19,-52,46,-53,-22,-119,-180,41
-61,-88,-23,72,-19,-52,46,-47,-22,-119,-180,41
-61,-88,-29,72,-19,-58,46,-47,-22,-119,-180,41
-61,-88,-35,72,-19,-64,46,-47,-16,-119,-180,41
-55,-88,-35,66,-19,-64,46,-47,-16,-119,-180,41
-49,-76,-35,60,-19,-52,46,-47,-16,-119,-180,35
-49,-64,-23,60,-19,-40,46,-41,-16,-119,-180,35
-55,-64,-11,60,-31,-34,46,-35,-10,-113,-174,35
-61,-64,-11,60,-31,-34,46,-29,-4,-113,-168,35
-61,-64,-11,60,-31,-34,46,-29,-4,-113,-168,35
-55,-64,-11,60,-25,-34,46,-29,-4,-113,-168,35
-49,-64,-11,54,-25,-34,46,-29,-4,-113,-168,35
-49,-64,-11,54,-25,-34,52,-29,-4,-113,-168,35
-55,-64,-11,54,-25,-34,52,-23,1,-107,-162,35
-61,-64,-11,54,-25,-34,58,-23,1,-107,-162,35
-61,-64,-17,54,-25,-40,58,-23,1,-107,-162,35
-55,-64,-23,54,-19,-40,58,-23,1,-107,-162,35
-55,-64,-23,54,-19,-40,58,-17,7,-101,-162,35
-55,-64,-23,54,-19,-40,58,-17,13,-101,-162,35
-55,-64,-23,54,-19,-40,58,-11,13,-101,-162,35
-55,-64,-17,54,-19,-40,58,-11,13,-101,-162,35
-55,-58,-11,54,-19,-40,58,-11,13,-101,-162,35
-55,-52,-5,54,-19,-34,58,-5,13,-101,-162,35
-55,-46,0,54,-19,-28,58,-5,13,-101,-162,35
-55,-40,0,54,-19,-22,58,0,19,-101,-156,35
-55,-40,0,54,-19,-22,58,0,25,-95,-150,35
-55,-40,-5,54,-19,-22,58,0,25,-95,-150,35
-43,-40,-11,48,-13,-22,58,0,25,-95,-150,35
-37,-40,-17,48,-7,-22,58,0,25,-95,-150,35
-31,-40,-17,48,-7,-22,58,6,31,-95,-150,35
-31,-40,-11,48,-7,-22,58,12,31,-95,-150,35
-31,-40,-5,48,-13,-16,58,18,31,-89,-144,35
-31,-40,-5,48,-13,-16,58,24,31,-83,-138,35
-31,-40,-5,48,-13,-22,58,30,37,-83,-138,35
-31,-40,-11,48,-13,-22,58,30,43,-83,-138,35
-31,-34,-11,42,-13,-22,58,30,43,-83,-138,29
-31,-28,-5,42,-13,-16,58,36,43,-77,-138,29
-31,-28,-5,42,-13,-16,58,42,49,-65,-132,29
-31,-28,-5,42,-13,-16,58,48,55,-59,-126,29
-25,-22,-5,36,-13,-16,58,54,61,-53,-120,29
-25,-16,0,30,-13,-10,58,60,67,-47,-114,29
-19,-10,0,18,-13,-10,52,66,73,-41,-114,29
-7,-10,-5,12,-1,-10,52,66,73,-41,-108,29
-7,-10,-5,6,-1,-10,52,66,73,-35,-102,29
-7,-10,0,6,-7,-10,52,72,79,-23,-96,35
-7,-10,0,6,-7,-10,52,78,79,-17,-90,35
-7,-10,0,6,-7,-10,46,78,79,-17,-84,35
-7,-4,0,6,-7,-10,40,78,79,-11,-84,35
-7,1,6,6,-13,-4,40,84,85,-5,-78,35
-13,1,12,6,-13,-4,40,90,91,0,-72,35
-13,1,12,6,-13,-4,40,90,91,0,-72,35
-7,1,12,0,-7,-4,40,90,91,6,-72,35
-2,1,12,0,-7,-4,40,96,97,12,-66,41
-2,7,12,-5,-7,7,34,96,103,12,-66,47
4,19,12,-11,-7,13,28,102,103,18,-60,47
10,19,12,-11,-1,13,22,114,109,24,-48,53
10,19,12,-11,-1,13,22,120,115,30,-42,59
16,25,12,-17,-1,13,16,126,121,36,-42,59
16,31,12,-23,-1,13,16,132,127,42,-36,65
16,37,12,-23,-1,13,10,132,133,48,-24,71
28,43,6,-35,10,13,4,138,133,54,-18,71
46,43,0,-41,22,13,-2,138,133,60,-12,77
52,43,-5,-47,28,13,-2,144,139,66,-6,83
58,55,-5,-53,28,19,-2,150,139,66,-1,83
64,67,-5,-59,28,25,-7,156,139,72,5,83
76,73,-5,-71,28,31,-13,162,139,78,11,89
88,79,-5,-83,34,37,-19,168,139,84,11,89
94,85,-5,-89,40,37,-25,174,145,90,17,95
94,91,-5,-95,40,37,-31,180,157,102,29,101
100,97,-5,-101,40,43,-37,186,163,108,35,101
106,97,-5,-101,46,43,-43,192,169,114,41,107
112,103,-5,-101,52,43,-49,198,175,120,47,107
118,103,-5,-107,58,43,-55,198,181,126,53,113
124,109,-5,-107,58,43,-61,204,187,132,59,119
124,115,-5,-107,58,49,-61,216,193,144,71,125
124,115,-5,-107,58,49,-61,222,199,156,83,137
124,115,-5,-107,58,49,-61,228,205,162,95,149
124,121,-5,-113,58,49,-67,228,205,168,101,149
124,121,-5,-119,58,49,-73,228,205,174,107,149
124,127,-5,-125,58,49,-79,228,205,180,107,149
130,127,-11,-125,64,49,-85,228,205,180,113,149
142,127,-23,-125,82,43,-85,228,205,180,113,149
148,127,-23,-125,88,43,-85,228,205,186,113,155
148,133,-17,-131,88,49,-91,228,205,186,113,155
148,139,-11,-137,82,55,-97,228,205,186,113,155
148,139,-11,-137,82,55,-97,228,205,186,119,155
148,139,-11,-137,82,55,-97,228,205,186,119,155
148,139,-11,-137,82,55,-97,228,205,192,119,155
148,145,-5,-143,76,61,-97,228,205,192,119,155
148,151,-5,-149,76,67,-97,228,205,192,119,155
148,151,-5,-149,76,67,-97,228,205,192,119,155
148,151,-5,-149,76,67,-97,228,205,192,119,155
148,151,-5,-149,76,67,-97,228,205,192,119,155
148,151,-5,-149,76,67,-97,228,205,192,119,155
148,145,-5,-149,76,67,-97,222,205,192,119,155
148,145,-5,-149,76,67,-97,216,205,192,119,155
148,145,-5,-149,76,67,-97,210,199,192,119,155
148,145,-5,-149,70,67,-97,198,193,186,119,143
142,145,-5,-143,70,67,-97,192,187,180,119,137
142,139,-5,-137,70,61,-97,186,187,180,119,131
142,139,-5,-137,70,61,-91,180,181,174,107,125
136,139,0,-137,64,61,-91,174,175,162,95,119
130,133,0,-131,64,61,-91,168,169,156,89,113
130,121,0,-125,64,49,-85,162,163,150,83,107
124,115,0,-119,64,49,-79,156,157,144,77,101
118,109,0,-113,58,49,-73,144,151,138,71,89
106,103,0,-107,52,49,-67,132,145,126,59,77
100,97,0,-101,52,49,-61,120,133,114,53,65
88,91,0,-95,46,49,-49,114,127,102,47,59
76,85,0,-83,40,49,-43,108,121,90,41,53
70,85,0,-77,34,49,-37,96,109,78,29,41
70,85,6,-77,28,49,-37,84,97,66,17,29
64,79,12,-71,22,49,-25,78,91,54,11,23
58,73,12,-59,16,43,-13,72,91,48,5,17
52,67,12,-53,10,43,-7,66,85,36,-1,5
40,61,18,-41,-1,43,-2,60,79,24,-12,-6
16,61,30,-35,-19,43,4,48,67,12,-24,-18
4,61,42,-29,-25,43,10,36,61,6,-30,-30
-2,55,42,-23,-25,43,16,30,55,0,-36,-36
-2,43,42,-17,-25,37,22,18,49,-5,-42,-42
-7,37,42,-11,-31,37,28,12,43,-11,-48,-48
-19,37,54,-5,-43,37,34,0,37,-17,-60,-54
-31,37,66,0,-55,43,40,-5,31,-29,-66,-60
-37,37,72,6,-61,43,46,-11,25,-35,-72,-66
-43,31,72,12,-61,43,46,-17,19,-41,-78,-72
-43,19,72,18,-61,37,52,-23,13,-47,-78,-78
-43,19,72,18,-61,37,52,-29,13,-47,-84,-84
-43,19,66,18,-61,37,58,-35,7,-53,-90,-90
-43,13,60,24,-61,31,58,-41,1,-59,-96,-96
-49,7,60,30,-61,31,58,-47,-4,-65,-96,-102
-55,7,60,30,-61,31,58,-47,-4,-65,-96,-102
-55,7,60,30,-61,31,58,-53,-4,-65,-102,-102
-55,1,54,30,-61,31,58,-53,-10,-71,-102,-108
-55,-4,54,30,-61,31,58,-53,-10,-71,-102,-108
-55,-4,54,30,-61,31,58,-53,-10,-71,-102,-114
-55,-4,54,30,-61,31,58,-53,-16,-71,-102,-120
-55,-4,54,36,-61,31,58,-53,-16,-71,-102,-120
-61,-4,60,42,-67,31,58,-53,-16,-71,-102,-120
-61,-4,60,42,-67,31,58,-59,-16,-77,-108,-120
-61,-4,60,42,-61,25,58,-59,-16,-77,-108,-120
-61,-4,54,42,-61,19,58,-59,-16,-77,-108,-126
-67,-4,54,42,-61,19,58,-59,-16,-77,-108,-126
-67,-4,54,42,-61,19,58,-59,-22,-77,-108,-132
-67,-4,54,42,-61,19,64,-59,-22,-77,-108,-132
-67,-4,54,42,-61,19,64,-59,-22,-77,-108,-132
-73,-4,60,42,-67,19,70,-59,-22,-77,-108,-132
-73,-4,66,42,-67,19,70,-59,-22,-77,-108,-132
-73,-4,66,42,-67,19,76,-59,-22,-77,-108,-132
-67,-4,60,42,-61,19,76,-59,-22,-77,-108,-132
-67,-4,60,42,-61,19,76,-59,-28,-83,-114,-138
-67,-4,60,42,-61,19,82,-59,-28,-83,-114,-138
-67,-16,60,42,-61,19,88,-59,-28,-83,-114,-138
-67,-22,60,42,-61,19,94,-59,-28,-83,-114,-138
-67,-22,60,42,-61,19,94,-59,-28,-83,-114,-138
-67,-16,60,42,-61,19,94,-59,-28,-83,-114,-144
-67,-10,60,42,-61,19,94,-59,-28,-83,-114,-144
-67,-10,60,42,-61,19,94,-53,-28,-83,-114,-144
-67,-10,60,42,-61,19,94,-47,-28,-83,-114,-144
-67,-10,60,42,-61,19,94,-47,-28,-83,-114,-144
-67,-10,60,42,-61,19,94,-47,-28,-83,-114,-144
-67,-10,60,42,-61,19,94,-47,-28,-83,-114,-144
-67,-10,60,42,-61,19,94,-47,-28,-83,-114,-144
-67,-10,60,42,-61,19,94,-47,-28,-83,-114,-144
-67,-10,60,42,-61,19,94,-47,-28,-83,-114,-144
-67,-10,60,42,-61,19,94,-47,-28,-83,-114,-144
-67,-10,54,42,-61,19,94,-47,-28,-83,-114,-144
-67,-10,54,42,-61,19,100,-47,-28,-83,-114,-144
-67,-10,54,42,-61,19,100,-47,-28,-83,-114,-144
-61,-10,54,42,-61,19,100,-47,-28,-83,-114,-150
-49,-10,48,36,-55,19,100,-47,-28,-83,-114,-150
-43,-10,42,36,-49,19,100,-47,-28,-83,-114,-150
-49,-10,42,36,-49,19,100,-47,-28,-83,-114,-150
-55,-10,48,42,-55,19,100,-41,-28,-77,-114,-150
-55,-10,48,42,-55,19,100,-41,-28,-77,-114,-150
-55,-4,48,42,-55,19,100,-41,-28,-77,-114,-150
-55,-4,48,42,-55,19,100,-41,-28,-77,-114,-150
-55,-10,48,42,-55,19,100,-41,-28,-77,-114,-150
-55,-10,48,42,-55,19,100,-41,-28,-77,-114,-150
-55,-10,48,42,-55,19,100,-41,-28,-77,-114,-150
-55,-10,54,42,-55,19,100,-41,-28,-77,-114,-150
-61,-10,54,42,-55,19,106,-41,-28,-77,-114,-150
-61,-10,54,42,-55,19,106,-41,-28,-77,-114,-150
-67,-10,54,42,-61,19,112,-41,-28,-77,-114,-150
-67,-10,54,42,-61,19,112,-41,-34,-77,-114,-150
-67,-10,54,42,-61,19,112,-47,-40,-77,-114,-150
-67,-16,54,42,-61,19,112,-47,-46,-77,-114,-150
-67,-22,54,42,-61,19,112,-47,-46,-77,-114,-150
-67,-22,54,42,-61,19,112,-47,-46,-77,-114,-150
-67,-22,54,42,-61,19,112,-47,-46,-77,-114,-150
-67,-22,54,42,-61,19,112,-47,-46,-77,-114,-150
-67,-22,54,42,-61,19,112,-47,-52,-77,-114,-150
-61,-22,48,42,-55,19,112,-47,-52,-77,-114,-156
-55,-22,36,42,-49,13,112,-47,-52,-77,-114,-156
-55,-22,36,42,-49,13,112,-53,-58,-77,-114,-156
-55,-22,36,42,-49,13,112,-53,-64,-77,-114,-156
-55,-22,36,42,-49,13,112,-59,-64,-77,-114,-156
-55,-22,36,42,-49,13,112,-65,-64,-77,-114,-156
-55,-22,36,42,-49,13,112,-71,-70,-77,-114,-156
-55,-22,36,42,-49,13,112,-77,-76,-77,-114,-156
-55,-22,36,42,-49,13,112,-83,-82,-77,-114,-162
-55,-22,36,42,-43,13,112,-83,-82,-77,-114,-162
-49,-22,36,42,-43,13,106,-83,-82,-77,-114,-162
-49,-22,36,42,-43,13,100,-83,-82,-77,-114,-168
-49,-22,36,42,-43,13,100,-83,-82,-77,-114,-174
-49,-22,30,42,-43,7,100,-83,-82,-77,-114,-174
-49,-22,30,42,-43,7,100,-83,-88,-77,-114,-174
-49,-22,30,42,-43,7,100,-89,-88,-77,-114,-174
-49,-22,30,42,-43,7,100,-89,-94,-77,-114,-174
-49,-22,30,42,-43,7,100,-89,-94,-77,-114,-174
-49,-22,24,42,-37,7,100,-89,-94,-77,-114,-174
-49,-22,18,42,-31,7,100,-95,-100,-77,-114,-180
-49,-22,18,42,-31,7,100,-95,-100,-77,-114,-186
-49,-22,18,42,-31,7,100,-95,-100,-77,-114,-192
-55,-22,24,42,-37,7,100,-95,-100,-77,-114,-192
-55,-22,30,42,-43,7,100,-95,-100,-77,-114,-192
-55,-22,30,42,-43,7,100,-95,-100,-77,-114,-192
-55,-22,30,42,-43,7,100,-95,-100,-77,-114,-192
-55,-22,30,42,-43,7,100,-95,-106,-77,-114,-192
-55,-22,30,42,-43,7,100,-95,-106,-77,-114,-192
-55,-22,30,42,-49,7,100,-95,-106,-77,-114,-192
-61,-22,30,42,-49,7,100,-95,-106,-77,-114,-192
-61,-28,30,42,-49,7,100,-95,-106,-77,-114,-192
-61,-28,30,42,-49,7,100,-95,-106,-77,-114,-192
-61,-28,30,42,-49,7,100,-95,-106,-77,-114,-198
-61,-28,24,42,-49,1,100,-95,-106,-77,-114,-198
-61,-28,24,42,-49,1,100,-95,-112,-77,-114,-204
-61,-28,24,42,-49,1,100,-95,-118,-77,-114,-204
-61,-28,24,42,-49,1,100,-95,-118,-77,-114,-204
-61,-28,24,42,-49,1,100,-95,-118,-77,-114,-204
-61,-28,24,42,-49,1,106,-95,-118,-83,-114,-204
-61,-28,24,42,-49,7,106,-95,-118,-83,-114,-204
-61,-28,24,42,-49,7,106,-95,-118,-83,-114,-204
-61,-28,24,42,-49,7,106,-95,-118,-83,-114,-204
-61,-22,24,42,-49,7,106,-95,-118,-83,-114,-204
-61,-16,36,42,-49,13,112,-89,-118,-83,-108,-204
-61,-10,54,42,-55,25,118,-89,-118,-83,-108,-204
-61,-4,60,42,-55,31,130,-89,-118,-83,-102,-204
-55,-4,60,42,-55,31,136,-89,-118,-83,-96,-204
-49,1,60,36,-55,37,136,-89,-118,-83,-96,-204
-49,7,60,30,-55,43,136,-89,-118,-83,-96,-204
-49,7,60,30,-55,43,142,-89,-118,-77,-96,-204
-49,7,54,24,-49,43,142,-89,-118,-77,-96,-204
-49,7,54,18,-49,43,142,-89,-118,-77,-96,-204
-43,13,48,12,-43,43,142,-89,-118,-77,-90,-204
-31,19,42,6,-31,43,142,-89,-118,-77,-90,-204
-25,25,42,0,-31,43,142,-89,-118,-77,-84,-204
-19,37,48,-5,-31,49,142,-89,-118,-77,-84,-204
-19,43,54,-5,-31,61,142,-89,-118,-71,-84,-204
-19,43,60,-5,-37,67,142,-89,-118,-71,-78,-204
-19,49,66,-11,-37,73,136,-89,-118,-71,-78,-204
-19,61,78,-17,-43,85,130,-83,-112,-65,-72,-204
-19,61,78,-23,-43,85,130,-77,-106,-59,-66,-198
-13,61,72,-29,-37,79,130,-71,-100,-59,-66,-192
-7,61,66,-35,-37,79,124,-71,-100,-59,-66,-192
-7,61,66,-35,-37,79,118,-71,-100,-59,-66,-192
-7,61,60,-35,-37,79,118,-71,-100,-53,-60,-192
4,61,54,-35,-25,73,118,-65,-100,-53,-60,-192
16,61,48,-41,-19,73,112,-65,-100,-53,-60,-192
28,61,42,-41,-13,67,112,-65,-100,-53,-60,-192
28,61,42,-41,-13,61,112,-65,-100,-53,-60,-192
28,61,36,-41,-7,61,112,-65,-100,-53,-60,-192
28,55,18,-41,-1,49,112,-65,-100,-53,-60,-192
28,43,6,-41,4,31,112,-65,-100,-53,-60,-192
22,31,6,-29,4,25,112,-65,-106,-59,-60,-192
4,25,12,-17,-7,25,112,-65,-106,-65,-60,-192
-7,13,18,0,-13,25,112,-71,-112,-71,-66,-192
-19,1,18,18,-19,25,112,-77,-118,-77,-72,-198
-25,-10,18,30,-25,25,112,-77,-124,-77,-78,-204
-31,-22,18,36,-25,19,112,-83,-130,-83,-84,-210
-43,-34,18,42,-25,13,112,-89,-136,-89,-90,-210
-49,-40,18,48,-25,13,112,-95,-142,-95,-96,-216
-55,-40,18,48,-31,13,112,-101,-148,-95,-102,-222
-61,-46,18,48,-37,7,112,-107,-148,-95,-108,-222
-61,-58,12,54,-37,-4,112,-107,-148,-95,-108,-222
-61,-64,6,60,-37,-10,112,-107,-148,-95,-108,-222
-61,-64,6,60,-37,-10,106,-113,-154,-101,-114,-222
-61,-64,6,60,-37,-10,106,-119,-154,-107,-114,-222
-61,-64,6,60,-37,-10,106,-119,-154,-107,-114,-222
-61,-64,6,60,-37,-10,100,-125,-154,-107,-120,-222
-61,-64,0,60,-31,-16,100,-125,-160,-107,-120,-228
-61,-64,-5,60,-31,-22,100,-125,-160,-107,-120,-228
-61,-70,-5,60,-31,-28,100,-131,-166,-107,-120,-228
-61,-70,-5,60,-31,-28,100,-131,-166,-113,-120,-228
-61,-70,-5,66,-31,-28,100,-131,-166,-113,-120,-228
-61,-76,-11,66,-25,-34,94,-131,-166,-119,-120,-234
-61,-82,-17,66,-25,-40,88,-131,-172,-119,-120,-234
-61,-82,-11,66,-25,-34,82,-131,-172,-119,-126,-234
-67,-76,0,66,-31,-28,76,-137,-172,-125,-126,-240
-67,-76,-5,66,-31,-34,76,-137,-172,-125,-126,-240
-67,-88,-17,66,-25,-46,76,-137,-172,-125,-126,-240
-67,-88,-23,66,-25,-52,76,-143,-172,-125,-126,-246
-67,-88,-23,66,-25,-52,76,-149,-172,-125,-132,-246
-67,-88,-17,66,-25,-52,76,-149,-172,-125,-132,-246
-67,-88,-17,66,-25,-52,76,-149,-172,-125,-132,-246
-67,-88,-17,66,-25,-52,76,-149,-172,-125,-132,-246
-67,-88,-17,72,-25,-52,76,-149,-172,-125,-132,-246
-73,-88,-11,72,-31,-46,76,-149,-172,-125,-132,-246
-79,-82,0,72,-37,-40,76,-149,-172,-125,-132,-246
-79,-82,6,72,-37,-40,76,-149,-172,-125,-132,-246
-79,-82,6,72,-37,-40,76,-149,-172,-125,-132,-246
-73,-82,0,72,-31,-40,76,-149,-172,-125,-132,-246
-73,-82,0,72,-31,-40,76,-149,-172,-125,-132,-246
-73,-82,6,72,-37,-40,76,-149,-172,-125,-132,-246
-79,-82,6,78,-43,-40,76,-143,-172,-125,-132,-246
-79,-82,6,78,-43,-40,76,-143,-172,-125,-132,-246
-79,-82,6,78,-43,-40,76,-143,-172,-125,-132,-246
-79,-82,0,78,-43,-40,76,-137,-172,-125,-132,-246
-85,-82,0,78,-49,-40,88,-119,-172,-125,-132,-246
-91,-88,0,84,-49,-40,118,-89,-172,-131,-138,-252
-103,-94,6,90,-55,-40,160,-59,-172,-137,-150,-258
-109,-94,30,96,-61,-28,190,-29,-172,-143,-156,-264
-115,-88,42,96,-67,-16,220,6,-160,-143,-156,-264
-115,-82,48,96,-67,-10,238,66,-118,-137,-150,-264
-103,-52,48,84,-67,1,268,156,-46,-89,-126,-252
-61,13,60,36,-67,31,298,270,79,12,-42,-210
-31,115,90,-29,-67,103,328,378,217,144,77,-114
-2,199,150,-95,-67,181,358,438,349,276,197,-18
28,271,186,-149,-67,229,364,456,433,390,305,71
100,343,198,-221,-61,271,364,462,523,510,413,173
202,439,210,-317,-37,319,274,462,625,678,575,311
310,547,222,-431,10,379,64,456,751,858,749,479
448,649,222,-545,106,409,-175,450,865,1038,923,647
568,715,198,-635,184,421,-361,438,973,1188,1061,785
598,757,192,-671,202,445,-481,438,1093,1296,1145,857
598,757,180,-671,208,445,-559,450,1201,1350,1175,875
592,691,120,-647,220,403,-619,450,1207,1350,1169,863
562,547,18,-563,226,289,-667,384,1093,1146,983,737
508,415,-47,-473,232,199,-673,186,781,786,719,551
430,313,-77,-371,232,139,-667,-23,439,444,455,371
322,247,-77,-281,220,109,-589,-215,163,192,263,227
220,193,-65,-203,160,97,-481,-353,1,36,131,107
136,127,-35,-119,106,85,-379,-419,-106,-59,29,0
88,43,-35,-59,82,37,-289,-425,-142,-89,-30,-90
64,-52,-71,-5,82,-58,-211,-413,-154,-101,-66,-150
58,-106,-137,18,88,-112,-163,-371,-166,-101,-84,-192
58,-112,-155,24,94,-130,-133,-323,-166,-101,-96,-210
58,-112,-155,24,94,-130,-103,-263,-166,-101,-96,-216
34,-112,-137,30,76,-124,-61,-191,-154,-89,-90,-216
10,-112,-119,36,64,-112,-19,-149,-142,-77,-84,-216
4,-106,-101,36,58,-100,4,-119,-130,-71,-78,-216
-2,-100,-77,36,46,-88,16,-107,-124,-65,-78,-216
-7,-94,-59,36,34,-82,28,-95,-118,-59,-78,-216
-13,-94,-53,42,28,-76,40,-89,-118,-59,-78,-216
-19,-94,-53,42,22,-76,52,-89,-118,-59,-78,-216
-25,-88,-41,42,10,-64,58,-89,-118,-65,-78,-216
-31,-82,-29,42,-1,-52,64,-89,-118,-65,-78,-216
-37,-82,-23,42,-7,-46,70,-89,-118,-65,-78,-216
-37,-76,-23,42,-7,-46,70,-89,-118,-65,-78,-216
-37,-76,-23,42,-7,-46,76,-89,-118,-65,-78,-216
-37,-76,-17,42,-13,-40,82,-89,-118,-65,-78,-216
-43,-76,-11,48,-19,-40,82,-89,-118,-71,-78,-216
-49,-76,-11,54,-19,-40,88,-89,-118,-71,-84,-222
-49,-76,-11,54,-19,-40,94,-89,-118,-71,-84,-222
-49,-70,-5,54,-25,-34,94,-89,-124,-77,-84,-222
-49,-64,-5,54,-25,-34,94,-89,-124,-83,-84,-228
-49,-64,-5,54,-25,-34,94,-89,-124,-83,-84,-228
-49,-64,-5,54,-25,-34,94,-89,-124,-83,-84,-228
-49,-64,-5,54,-25,-34,94,-89,-130,-83,-84,-228
-49,-64,-5,54,-25,-28,94,-83,-130,-83,-84,-228
-49,-64,-5,54,-25,-28,94,-83,-130,-83,-84,-228
-49,-64,-5,54,-25,-34,94,-83,-130,-83,-84,-228
-49,-64,-5,54,-25,-34,94,-83,-130,-83,-84,-228
-49,-64,-11,54,-19,-34,94,-83,-130,-83,-84,-234
-49,-64,-11,54,-19,-34,94,-77,-130,-83,-84,-234
-49,-64,-11,54,-19,-34,94,-77,-130,-83,-84,-234
-49,-64,-5,54,-25,-34,94,-77,-130,-83,-84,-234
-49,-64,-5,54,-25,-34,94,-77,-130,-83,-84,-234
-49,-58,-5,54,-25,-34,94,-77,-130,-83,-84,-234
-49,-58,-5,54,-25,-34,94,-71,-124,-83,-84,-234
-49,-58,-5,54,-25,-34,94,-65,-124,-83,-84,-234
-43,-58,-5,48,-25,-34,94,-65,-124,-83,-84,-234
-43,-52,-5,48,-25,-34,94,-65,-124,-83,-84,-234
-43,-52,-5,48,-25,-34,94,-59,-124,-83,-84,-234
-43,-52,-5,48,-25,-34,94,-59,-124,-83,-84,-234
-43,-52,-5,48,-25,-34,94,-59,-124,-83,-84,-234
-43,-52,-5,48,-25,-34,94,-59,-118,-83,-84,-234
-43,-46,-5,48,-25,-28,94,-59,-118,-83,-84,-234
-43,-40,0,48,-25,-22,94,-59,-118,-83,-84,-234
-43,-40,0,48,-25,-22,94,-59,-118,-83,-84,-234
-43,-40,0,42,-25,-22,94,-59,-118,-83,-84,-234
-37,-34,0,36,-25,-22,94,-59,-118,-83,-84,-234
-37,-34,0,36,-25,-22,94,-53,-112,-83,-84,-234
-37,-34,0,36,-25,-22,94,-41,-100,-77,-78,-228
-37,-34,0,36,-25,-22,94,-35,-94,-77,-78,-228
-31,-34,0,30,-25,-22,94,-35,-94,-77,-78,-228
-25,-34,0,30,-19,-22,94,-29,-94,-77,-78,-228
-25,-34,-5,30,-13,-22,94,-23,-94,-77,-78,-228
-25,-34,-11,30,-13,-22,94,-17,-88,-77,-78,-228
-25,-34,-11,30,-13,-22,94,-11,-82,-71,-72,-222
-37,-34,0,36,-25,-16,94,-5,-76,-65,-66,-216
-43,-34,18,36,-31,-4,94,-5,-76,-65,-66,-216
-43,-34,18,36,-31,-4,94,-5,-76,-65,-66,-210
-43,-34,18,36,-31,-4,94,-5,-70,-59,-66,-204
-43,-34,18,36,-31,-4,94,-5,-70,-59,-66,-204
-43,-34,12,36,-31,-10,94,0,-70,-53,-66,-204
-43,-34,12,36,-31,-10,94,0,-70,-53,-66,-204
-43,-28,12,36,-31,-10,94,0,-64,-53,-66,-204
-43,-28,12,36,-31,-10,94,6,-64,-53,-60,-204
-43,-28,12,36,-25,-10,94,12,-58,-47,-54,-198
-37,-28,12,30,-25,-10,94,12,-58,-47,-54,-192
-31,-28,12,24,-19,-10,94,12,-58,-47,-54,-186
-31,-28,12,24,-19,-10,88,12,-52,-47,-48,-186
-31,-28,12,24,-19,-10,88,18,-46,-41,-48,-180
-31,-28,12,24,-19,-10,88,24,-46,-35,-48,-174
-25,-22,12,18,-19,-10,82,24,-46,-35,-48,-168
-25,-16,12,12,-19,-4,82,24,-46,-35,-48,-168
-19,-10,12,12,-19,-4,82,24,-46,-29,-42,-168
-13,-10,12,12,-19,-4,82,30,-40,-23,-36,-162
-7,-10,12,12,-13,-4,82,36,-28,-17,-30,-150
-2,-10,6,6,-7,-4,82,42,-22,-11,-24,-144
4,-4,6,-5,-1,-4,76,42,-22,-11,-18,-138
10,1,6,-11,4,1,70,42,-22,-11,-18,-138
16,7,6,-11,4,1,64,42,-16,-5,-12,-132
16,7,6,-17,4,1,64,48,-10,0,-6,-126
16,13,6,-17,4,1,58,54,-4,6,-1,-126
16,13,6,-17,4,1,52,54,-4,12,-1,-126
22,13,0,-23,10,1,52,60,1,18,5,-120
22,13,0,-23,10,1,52,66,7,24,11,-108
22,19,0,-23,10,7,52,72,7,24,17,-108
22,25,6,-23,10,7,46,72,7,30,17,-102
28,25,6,-23,10,7,40,78,7,30,23,-96
34,25,0,-23,16,7,40,84,13,36,29,-90
40,25,0,-23,22,7,34,84,19,42,35,-84
40,31,6,-29,22,13,34,90,25,54,41,-78
34,37,12,-29,16,19,34,96,37,66,47,-66
34,37,12,-29,16,19,34,102,43,72,53,-60
34,37,12,-35,16,19,34,108,43,78,59,-60
40,37,12,-41,16,19,34,108,49,84,65,-54
46,43,12,-47,22,19,34,114,55,84,71,-48
52,49,12,-53,28,19,28,120,55,90,77,-42
58,49,12,-53,28,19,22,126,61,96,83,-36
64,55,6,-53,28,19,16,132,61,102,89,-30
64,55,6,-53,28,19,10,132,61,108,95,-24
64,61,6,-59,28,19,4,138,61,120,107,-12
76,67,0,-65,34,19,-2,144,61,126,113,-6
94,73,-5,-77,46,19,-13,144,61,132,113,0
106,85,-5,-89,52,25,-19,144,61,132,113,5
106,97,0,-95,52,37,-25,150,67,138,119,11
106,103,6,-101,52,43,-31,156,73,144,125,17
112,109,6,-107,58,49,-37,156,79,150,131,23
118,115,6,-113,64,49,-43,156,85,156,137,29
124,115,0,-119,64,49,-43,162,91,162,143,35
130,115,0,-125,64,49,-49,162,97,168,149,41
136,121,0,-131,64,55,-55,162,103,174,155,41
142,121,-5,-131,70,55,-61,162,109,180,161,41
148,121,-11,-131,82,55,-67,168,109,186,167,47
154,121,-11,-131,88,55,-67,174,109,192,173,59
154,133,-5,-137,88,61,-73,174,115,198,179,65
154,139,-5,-137,88,67,-79,174,115,198,185,65
154,139,-5,-137,88,67,-79,180,115,204,191,71
154,139,-5,-137,88,67,-79,186,121,210,197,83
160,139,-11,-143,88,67,-85,186,121,210,197,83
166,139,-17,-149,94,67,-85,186,121,216,203,83
166,139,-23,-149,100,61,-85,186,121,222,209,89
172,139,-29,-149,100,61,-85,186,121,222,209,95
178,139,-29,-155,106,61,-91,186,121,222,209,95
184,139,-35,-155,106,61,-91,186,127,222,209,95
184,139,-35,-155,106,55,-91,186,127,222,209,95
184,139,-35,-155,106,55,-91,186,127,228,209,95
184,139,-35,-155,106,55,-91,186,127,228,209,95
184,139,-35,-155,106,55,-91,186,127,228,209,95
184,139,-41,-155,112,49,-91,186,127,228,209,95
184,133,-47,-155,112,43,-91,186,127,228,209,95
184,133,-47,-155,112,43,-91,186,127,228,209,95
184,133,-47,-155,112,43,-91,186,127,228,209,95
178,133,-47,-155,112,43,-91,180,127,222,209,95
172,127,-47,-149,112,43,-91,174,127,216,203,95
166,121,-47,-137,106,43,-91,168,127,210,197,95
154,121,-35,-131,94,43,-85,168,127,204,191,95
142,121,-23,-125,88,43,-79,162,121,198,185,95
136,121,-23,-125,88,43,-79,156,115,186,179,89
130,115,-23,-125,88,43,-73,150,103,180,173,83
118,109,-17,-119,82,43,-67,144,97,174,167,77
106,109,-11,-107,70,43,-61,144,97,162,161,77
100,109,-5,-101,58,43,-55,138,91,150,149,71
94,103,0,-95,52,43,-49,132,85,144,137,65
88,91,0,-83,52,37,-43,126,79,132,125,53
88,79,-5,-77,52,31,-37,114,73,114,113,41
88,73,-11,-71,52,31,-31,108,61,102,101,35
82,67,-11,-65,52,31,-25,102,55,90,89,29
70,61,-11,-59,46,31,-19,96,49,78,77,17
58,55,-11,-53,40,31,-13,90,43,72,71,11
46,49,-5,-47,28,31,-2,84,37,66,65,5
16,43,6,-41,10,31,4,78,31,60,59,0
10,37,12,-35,-1,31,4,66,25,48,53,-6
10,37,12,-35,-1,31,4,54,13,36,41,-18
10,31,12,-29,-1,31,4,42,7,24,29,-24
4,25,12,-23,-1,25,10,36,1,18,23,-30
-2,19,12,-11,-7,25,16,30,1,12,17,-30
-7,19,12,-5,-7,25,22,24,1,6,11,-30
-7,13,12,0,-7,19,22,24,-4,0,5,-36
-7,13,12,0,-7,19,22,18,-10,-5,-1,-48
-13,13,12,6,-13,19,22,18,-16,-11,-6,-54
-25,7,18,12,-19,19,28,18,-16,-17,-6,-60
-31,1,24,12,-25,19,34,18,-16,-17,-6,-60
-31,-4,24,18,-25,13,34,12,-22,-23,-12,-66
-31,-10,24,18,-25,7,34,12,-22,-29,-18,-72
-31,-10,24,18,-25,7,34,6,-22,-29,-24,-78
-31,-10,24,18,-25,7,34,6,-22,-29,-24,-78
-31,-10,24,24,-25,7,34,6,-22,-29,-30,-78
-31,-10,24,24,-25,7,34,6,-22,-29,-36,-78
-31,-10,24,24,-25,7,34,0,-28,-35,-36,-78
-31,-10,24,24,-25,7,34,0,-34,-41,-36,-78
-31,-10,24,24,-25,7,34,0,-34,-41,-36,-78
-37,-10,30,24,-31,7,34,0,-34,-41,-36,-78
-43,-10,30,24,-31,7,34,0,-34,-41,-36,-78
-43,-16,30,24,-31,1,34,0,-34,-41,-36,-78
-43,-16,30,24,-31,1,34,0,-34,-41,-36,-78
-43,-16,30,24,-31,1,34,0,-34,-41,-36,-78
-43,-16,30,24,-31,1,40,0,-34,-41,-36,-78
-43,-22,24,36,-31,-4,40,0,-34,-41,-36,-78
-43,-28,18,42,-31,-10,46,0,-34,-41,-36,-78
-43,-28,18,48,-31,-10,46,0,-34,-41,-36,-78
-43,-34,18,48,-31,-10,46,0,-34,-41,-36,-78
-43,-34,18,48,-31,-10,46,0,-34,-41,-36,-78
-49,-34,18,48,-31,-10,46,0,-34,-41,-36,-78
-49,-34,18,48,-31,-10,46,0,-34,-41,-36,-78
-49,-34,18,48,-31,-10,46,0,-34,-41,-36,-78
-49,-34,18,48,-31,-10,46,0,-34,-41,-36,-78
-43,-34,12,48,-31,-16,46,0,-34,-41,-36,-78
-37,-34,12,48,-31,-16,46,0,-34,-41,-36,-78
-37,-34,12,48,-31,-10,46,0,-34,-41,-36,-78
-43,-34,18,48,-37,-10,46,0,-34,-41,-36,-78
-43,-34,18,48,-37,-10,46,0,-34,-41,-36,-78
-43,-34,18,48,-37,-10,46,6,-34,-41,-36,-78
-43,-34,18,48,-37,-10,46,12,-34,-41,-36,-78
-43,-34,18,48,-37,-10,46,12,-34,-41,-36,-78
-43,-34,18,48,-37,-10,46,12,-34,-41,-36,-78
-49,-34,18,48,-37,-10,46,18,-34,-41,-36,-78
-49,-34,18,48,-37,-10,46,18,-34,-41,-36,-78
-49,-34,18,48,-37,-10,46,18,-34,-41,-36,-78
-49,-34,18,48,-37,-10,46,18,-34,-41,-36,-78
-49,-34,18,48,-37,-4,46,18,-34,-41,-36,-78
-49,-34,18,48,-37,-4,52,24,-34,-41,-36,-78
-55,-34,18,48,-37,-4,52,24,-34,-41,-36,-78
-55,-34,18,48,-37,-4,52,24,-34,-41,-36,-78
-55,-34,18,48,-37,-4,52,24,-34,-41,-36,-78
-55,-34,18,48,-37,-4,52,24,-34,-41,-36,-78
-55,-34,18,48,-37,-4,52,24,-34,-41,-36,-78
-55,-34,18,48,-37,-4,52,24,-34,-41,-36,-78
-55,-34,18,48,-37,-4,52,24,-34,-41,-36,-78
-55,-34,18,48,-37,-4,52,24,-34,-41,-36,-78
-55,-34,18,48,-37,-4,52,24,-34,-41,-36,-78
-49,-34,18,48,-37,-4,52,24,-34,-41,-36,-78
-49,-28,18,48,-37,-4,52,24,-34,-41,-42,-84
-49,-28,18,48,-37,-4,52,24,-34,-41,-42,-84
-55,-34,18,48,-37,-4,52,24,-34,-41,-42,-84
-55,-34,18,48,-37,-4,52,24,-34,-41,-42,-84
-55,-34,18,48,-37,-4,52,24,-34,-41,-42,-84
-49,-34,18,42,-37,-4,52,24,-40,-41,-42,-84
-49,-34,18,42,-37,-4,52,24,-40,-41,-42,-84
-49,-34,18,42,-37,-4,52,24,-40,-41,-42,-84
-49,-34,18,42,-37,-4,52,24,-40,-41,-42,-84
-49,-34,18,42,-37,-4,52,24,-40,-41,-42,-84
-49,-34,18,42,-37,-4,52,24,-40,-41,-42,-84
-49,-28,18,42,-37,-4,52,18,-40,-47,-42,-90
-49,-28,18,42,-37,-4,52,18,-40,-47,-42,-90
-49,-28,18,42,-43,-4,52,18,-40,-47,-42,-90
-49,-28,18,42,-43,-4,52,18,-40,-47,-42,-90
-49,-28,18,36,-43,-4,46,18,-40,-47,-42,-90
-43,-28,18,36,-43,-4,46,18,-40,-47,-42,-90
-43,-28,18,36,-43,-4,46,18,-40,-47,-42,-90
-43,-28,24,36,-43,-4,40,18,-40,-47,-42,-90
-43,-28,24,36,-43,-4,40,18,-40,-47,-42,-90
-43,-28,24,36,-37,-4,40,12,-46,-47,-42,-90
-43,-28,24,36,-37,-4,40,6,-52,-47,-42,-90
-43,-28,30,36,-43,1,40,6,-58,-47,-42,-90
-49,-28,36,36,-49,7,34,6,-58,-47,-42,-90
-49,-28,36,36,-49,7,34,6,-58,-47,-42,-90
-49,-34,30,36,-49,1,34,6,-58,-47,-42,-90
-49,-34,24,36,-43,1,34,0,-58,-47,-42,-90
-49,-34,24,36,-43,1,34,-5,-58,-47,-42,-90
-49,-34,24,36,-43,1,34,-11,-58,-47,-42,-90
-49,-34,24,36,-43,-4,34,-11,-58,-47,-42,-90
-49,-34,24,36,-43,-4,34,-11,-58,-47,-42,-90
-49,-28,24,36,-43,-4,34,-17,-58,-53,-42,-90
-49,-28,24,36,-43,-4,34,-17,-64,-53,-42,-96
-49,-28,12,36,-43,-10,34,-17,-64,-53,-42,-96
-49,-28,6,36,-37,-16,34,-17,-64,-53,-42,-96
-49,-28,6,36,-37,-16,28,-23,-64,-53,-42,-96
-49,-28,12,36,-37,-10,28,-29,-70,-53,-42,-96
-55,-28,24,36,-43,-4,28,-29,-70,-53,-42,-96
-55,-28,24,36,-43,-4,28,-29,-76,-53,-42,-96
-55,-28,18,36,-37,-10,22,-29,-76,-53,-48,-96
-49,-28,12,36,-31,-16,22,-35,-76,-59,-48,-96
-43,-28,6,36,-25,-16,22,-35,-82,-65,-54,-96
-43,-28,6,36,-25,-16,22,-35,-82,-65,-54,-96
-43,-28,6,36,-25,-16,22,-35,-82,-65,-54,-96
-43,-28,6,36,-25,-16,22,-35,-82,-65,-54,-96
-37,-28,6,36,-25,-16,22,-41,-88,-71,-54,-96
-37,-28,6,36,-25,-16,22,-47,-88,-71,-54,-96
-37,-28,6,36,-25,-16,22,-47,-88,-71,-54,-96
-37,-28,6,42,-25,-16,22,-47,-88,-71,-54,-96
-37,-28,6,42,-25,-16,22,-47,-88,-71,-54,-96
-37,-28,6,42,-25,-16,16,-47,-88,-71,-54,-96
-43,-28,18,42,-31,-10,16,-47,-88,-71,-54,-96
-55,-28,30,42,-43,-4,16,-47,-88,-71,-54,-96
-61,-28,30,48,-49,-4,16,-47,-88,-71,-54,-96
-67,-34,30,48,-49,-4,16,-47,-88,-71,-54,-96
-67,-40,24,48,-49,-10,16,-47,-88,-71,-54,-96
-61,-40,18,48,-43,-10,16,-53,-94,-71,-54,-96
-55,-40,18,48,-37,-10,16,-53,-100,-71,-54,-96
-55,-40,18,48,-37,-10,16,-53,-100,-71,-54,-96
-55,-40,18,48,-37,-10,16,-53,-100,-71,-54,-96
-55,-40,12,48,-37,-16,16,-53,-100,-71,-54,-96
-49,-46,0,48,-31,-22,16,-53,-100,-71,-54,-96
-49,-46,0,48,-31,-22,16,-53,-100,-71,-54,-96
-49,-46,6,48,-31,-16,16,-53,-100,-71,-54,-96
-49,-40,18,42,-37,-4,16,-53,-100,-71,-54,-96
-49,-34,24,36,-37,1,16,-53,-100,-71,-54,-96
-49,-28,24,36,-37,1,22,-47,-100,-71,-54,-96
-49,-28,30,36,-43,7,28,-41,-94,-65,-48,-96
-49,-22,36,36,-43,13,34,-35,-88,-65,-42,-96
-49,-16,36,36,-43,13,34,-29,-82,-65,-42,-96
-49,-10,36,36,-43,13,34,-29,-76,-65,-42,-96
-49,-4,36,30,-43,13,34,-29,-76,-65,-42,-96
-49,1,42,24,-43,19,34,-29,-76,-65,-42,-96
-43,7,42,18,-43,25,34,-29,-76,-65,-42,-96
-37,7,42,12,-43,25,34,-29,-76,-65,-42,-96
-37,7,42,6,-43,31,34,-29,-76,-65,-42,-96
-37,13,42,6,-43,31,34,-29,-76,-65,-42,-96
-37,25,48,0,-43,37,34,-29,-76,-65,-42,-96
-31,37,48,-5,-43,43,34,-29,-76,-65,-36,-90
-19,49,48,-11,-37,43,34,-29,-76,-59,-30,-90
-7,49,48,-17,-31,43,34,-29,-76,-53,-30,-84
-2,49,48,-23,-31,43,34,-29,-76,-47,-24,-84
4,49,48,-23,-25,43,28,-29,-76,-47,-24,-84
10,49,48,-29,-25,43,22,-29,-70,-47,-24,-84
10,55,48,-29,-25,49,22,-23,-64,-41,-18,-84
16,55,48,-29,-25,49,22,-17,-58,-35,-12,-84
22,55,42,-29,-19,49,22,-17,-58,-35,-12,-84
22,55,36,-29,-13,49,22,-17,-58,-35,-12,-84
22,55,24,-29,-7,43,22,-17,-58,-35,-12,-84
28,55,24,-29,-7,43,22,-17,-58,-35,-12,-78
28,55,24,-29,-7,43,16,-17,-58,-35,-12,-78
28,55,24,-29,-7,43,16,-17,-58,-35,-12,-78
28,49,24,-29,-7,37,16,-17,-58,-35,-12,-78
28,43,24,-29,-7,31,16,-17,-58,-35,-12,-78
28,37,18,-29,-7,25,16,-17,-58,-35,-12,-78
28,31,18,-29,-7,25,16,-17,-58,-35,-12,-78
22,25,18,-23,-7,25,16,-17,-58,-35,-12,-78
16,19,18,-11,-7,19,16,-17,-58,-35,-12,-84
4,13,18,-5,-7,19,10,-23,-64,-41,-18,-90
-7,1,18,6,-13,19,10,-23,-64,-47,-24,-96
-19,-16,18,24,-19,7,10,-29,-64,-53,-30,-102
-25,-28,18,30,-19,1,10,-41,-70,-59,-42,-108
-25,-34,18,36,-19,-4,10,-53,-82,-71,-54,-120
-31,-40,18,36,-19,-10,10,-59,-94,-77,-60,-126
-37,-46,12,36,-19,-16,10,-59,-100,-83,-60,-132
-37,-52,0,36,-19,-28,10,-65,-106,-89,-66,-138
-37,-58,-17,36,-7,-40,10,-71,-112,-95,-72,-138
-37,-58,-23,36,-7,-40,10,-71,-112,-101,-72,-144
-43,-58,-23,42,-13,-40,10,-71,-112,-101,-72,-144
-55,-58,-11,48,-25,-40,10,-71,-112,-101,-72,-144
-67,-58,-5,54,-37,-40,10,-71,-112,-101,-72,-144
-67,-64,-5,60,-37,-40,10,-71,-112,-101,-72,-144
-67,-70,-5,60,-37,-46,10,-71,-112,-101,-72,-144
-67,-70,-5,60,-37,-46,10,-71,-112,-101,-72,-144
-67,-70,-5,60,-37,-46,10,-71,-112,-101,-72,-144
-73,-70,-5,60,-37,-46,10,-71,-112,-101,-72,-144
-73,-70,-5,66,-37,-46,10,-71,-112,-101,-72,-144
-73,-70,-5,66,-37,-46,10,-71,-118,-101,-72,-144
-73,-70,-11,66,-37,-46,10,-77,-118,-107,-72,-150
-73,-70,-11,66,-37,-46,4,-83,-118,-113,-78,-156
-73,-70,-11,66,-37,-46,4,-89,-124,-113,-84,-162
-73,-76,-17,66,-37,-46,4,-89,-124,-113,-84,-162
-73,-76,-17,66,-37,-46,4,-89,-124,-113,-84,-162
-79,-76,0,72,-43,-40,4,-89,-124,-113,-84,-162
-79,-76,0,72,-43,-40,4,-89,-130,-113,-84,-162
-79,-76,-5,72,-43,-46,4,-89,-130,-113,-84,-162
-79,-82,-11,72,-43,-46,4,-89,-130,-113,-84,-162
-79,-82,-11,72,-43,-46,4,-89,-130,-113,-84,-162
-79,-82,-11,72,-43,-46,4,-89,-130,-113,-84,-162
-79,-82,-11,72,-43,-46,4,-89,-130,-113,-84,-162
-79,-82,-5,72,-43,-40,4,-89,-130,-113,-84,-162
-79,-82,-5,72,-43,-40,4,-89,-130,-113,-84,-162
-79,-82,-11,72,-43,-40,4,-89,-130,-113,-84,-162
-79,-82,-11,72,-43,-40,4,-89,-130,-113,-84,-162
-79,-82,-11,72,-43,-40,4,-89,-130,-113,-84,-162
-79,-82,-11,72,-43,-40,4,-89,-130,-113,-84,-162
-79,-82,-11,72,-43,-40,4,-89,-130,-113,-84,-162
-79,-82,-5,72,-49,-40,4,-89,-130,-113,-84,-162
-79,-82,-5,72,-55,-40,4,-89,-130,-113,-90,-162
-79,-82,-11,72,-55,-40,10,-83,-130,-119,-96,-168
-79,-88,-17,78,-55,-46,28,-71,-130,-119,-96,-174
-85,-94,-17,84,-55,-46,58,-41,-130,-125,-102,-186
-103,-94,-5,96,-55,-46,88,-11,-130,-131,-108,-192
-115,-94,18,96,-61,-40,118,18,-124,-137,-114,-198
-115,-88,24,96,-67,-34,142,54,-106,-137,-114,-198
-115,-76,30,96,-67,-28,172,132,-58,-131,-108,-198
-103,-46,42,84,-67,-16,202,246,37,-65,-66,-168
-73,25,66,24,-67,37,232,372,181,60,47,-96
-19,133,102,-53,-67,115,262,462,307,186,161,-6
10,211,150,-101,-67,193,280,510,421,306,263,77
22,283,216,-143,-79,253,286,528,499,420,365,161
76,367,234,-227,-79,295,274,534,577,552,485,257
208,451,234,-341,-25,325,148,534,673,714,641,389
352,553,228,-455,58,361,-73,534,781,888,821,563
502,667,210,-581,148,391,-295,522,901,1068,995,743
586,721,180,-659,208,409,-469,516,1021,1206,1121,875
622,739,150,-677,232,415,-571,516,1141,1308,1187,929
634,733,96,-677,256,403,-637,534,1231,1338,1205,935
634,649,18,-653,274,331,-721,534,1231,1320,1181,911
574,499,-29,-539,280,235,-751,438,1057,1062,965,761
484,355,-83,-425,280,145,-757,234,733,702,695,575
406,277,-101,-335,274,97,-745,24,409,390,443,401
322,229,-101,-269,232,79,-655,-155,163,162,257,269
214,187,-71,-197,160,73,-553,-281,13,12,131,155
118,115,-41,-119,94,61,-451,-341,-70,-65,59,65
76,31,-41,-53,70,13,-355,-341,-100,-89,5,-6
46,-58,-65,0,64,-58,-277,-317,-106,-95,-24,-54
28,-100,-89,36,64,-100,-229,-263,-106,-95,-30,-84
16,-112,-101,54,64,-112,-193,-203,-106,-95,-30,-90
16,-118,-113,54,64,-118,-169,-161,-106,-89,-30,-90
16,-118,-119,54,64,-118,-145,-119,-100,-83,-30,-90
16,-118,-119,54,64,-118,-115,-77,-94,-71,-30,-90
10,-112,-107,54,58,-106,-91,-59,-88,-65,-30,-90
4,-100,-77,54,46,-88,-79,-47,-82,-65,-30,-90
-7,-94,-71,54,34,-82,-61,-35,-82,-65,-30,-90
-13,-94,-71,54,28,-82,-43,-29,-82,-65,-30,-90
-19,-88,-65,54,22,-82,-31,-23,-82,-65,-30,-90
-25,-82,-53,54,10,-70,-25,-17,-82,-65,-30,-90
-37,-82,-47,54,-1,-64,-19,-17,-82,-65,-30,-90
-43,-82,-47,54,-1,-64,-13,-17,-82,-65,-30,-90
-43,-82,-47,54,-1,-64,-7,-17,-82,-65,-30,-90
-43,-82,-47,54,-1,-64,-7,-17,-82,-65,-30,-90
-37,-82,-47,54,4,-64,-7,-17,-82,-65,-36,-90
-37,-82,-47,54,4,-64,-7,-17,-88,-65,-36,-90
-37,-82,-41,54,-1,-58,-2,-17,-88,-65,-36,-90
-43,-82,-29,54,-7,-52,4,-17,-88,-65,-36,-90
-43,-76,-29,54,-7,-52,4,-17,-88,-71,-36,-90
-43,-76,-29,54,-7,-52,4,-17,-88,-77,-36,-90
-43,-76,-29,54,-7,-52,4,-17,-88,-77,-36,-90
-49,-76,-23,54,-13,-52,4,-11,-88,-77,-36,-90
-55,-76,-17,54,-19,-52,4,-11,-88,-77,-36,-90
-55,-76,-17,54,-19,-52,4,-11,-88,-83,-36,-90
-55,-76,-17,54,-19,-52,4,-5,-88,-83,-42,-90
-49,-76,-17,54,-19,-52,4,-5,-88,-83,-42,-90
-43,-76,-23,54,-13,-52,4,-5,-88,-83,-48,-90
-37,-76,-29,54,-7,-52,4,-5,-88,-83,-48,-90
-37,-76,-29,54,-7,-52,4,-5,-88,-83,-48,-90
-43,-76,-23,54,-13,-52,4,-5,-88,-83,-48,-90
-49,-76,-17,54,-25,-46,4,-5,-88,-83,-48,-90
-49,-76,-17,54,-25,-46,4,-5,-88,-83,-48,-90
-49,-76,-17,54,-25,-46,4,-5,-88,-83,-48,-90
-49,-76,-17,54,-25,-46,10,0,-88,-83,-48,-90
-49,-76,-17,54,-25,-46,10,6,-88,-83,-48,-90
-49,-76,-17,54,-25,-46,10,6,-88,-83,-48,-90
-49,-76,-17,54,-25,-46,10,6,-88,-83,-48,-90
-49,-76,-17,54,-25,-46,10,6,-88,-83,-48,-90
-49,-76,-17,54,-25,-46,10,6,-88,-83,-48,-90
-49,-70,-17,54,-25,-40,10,6,-88,-83,-48,-90
-49,-64,-17,54,-25,-34,10,6,-88,-83,-48,-90
-49,-64,-17,54,-25,-34,10,12,-88,-83,-48,-90
-43,-64,-17,54,-19,-34,10,18,-88,-83,-48,-90
-37,-58,-17,48,-13,-34,10,18,-88,-83,-48,-90
-31,-58,-17,48,-7,-34,10,18,-88,-83,-48,-90
-31,-58,-17,48,-7,-34,10,18,-88,-83,-48,-90
-31,-52,-11,48,-7,-28,10,24,-88,-83,-48,-90
-31,-52,-11,48,-7,-28,10,30,-88,-83,-48,-84
-31,-52,-11,48,-7,-28,10,30,-88,-77,-48,-84
-31,-52,-11,48,-7,-28,10,36,-82,-71,-48,-78
-31,-52,-17,48,-7,-28,10,36,-82,-65,-48,-72
-31,-52,-23,48,-7,-28,10,36,-82,-65,-48,-72
-31,-52,-23,48,-7,-28,10,36,-82,-65,-48,-66
-43,-52,-11,48,-19,-28,16,42,-70,-59,-42,-60
-55,-52,0,48,-31,-22,22,48,-64,-53,-36,-60
-55,-52,0,48,-37,-22,22,48,-58,-53,-30,-54
-49,-52,0,48,-37,-22,22,48,-58,-53,-30,-54
-43,-52,-5,48,-31,-22,22,48,-58,-53,-30,-54
-37,-52,-5,48,-25,-22,22,48,-58,-53,-30,-54
-37,-52,-5,42,-25,-22,22,48,-58,-53,-30,-54
-37,-52,-5,42,-25,-22,22,54,-58,-47,-24,-48
-37,-52,-5,42,-25,-22,22,60,-52,-41,-18,-42
-37,-52,-5,36,-25,-22,22,60,-52,-41,-18,-42
-31,-52,-11,36,-25,-22,22,60,-52,-41,-18,-42
-25,-52,-17,36,-19,-22,22,60,-46,-35,-12,-42
-19,-46,-17,36,-13,-22,22,66,-40,-29,-6,-36
-19,-46,-17,36,-7,-22,22,72,-34,-29,-6,-36
-19,-46,-17,36,-7,-22,22,78,-34,-23,-1,-36
-13,-40,-17,30,-7,-22,22,78,-34,-23,-1,-36
-13,-40,-17,30,-1,-22,22,84,-34,-23,-1,-36
-13,-40,-23,30,-1,-22,22,84,-34,-17,5,-36
-13,-34,-23,24,-1,-22,22,84,-34,-17,5,-30
-13,-28,-23,18,-1,-22,22,84,-34,-17,5,-30
-13,-28,-23,18,-1,-22,22,84,-22,-11,5,-24
-13,-28,-23,18,-1,-22,22,84,-16,-5,11,-18
-7,-22,-23,12,-1,-22,16,84,-16,0,17,-18
-2,-22,-23,6,-1,-22,10,84,-10,0,17,-12
4,-22,-29,6,4,-22,10,90,-4,6,23,-6
10,-22,-35,6,10,-22,10,96,-4,6,23,-6
10,-10,-29,0,10,-16,4,96,-4,6,23,0
10,1,-17,-5,10,-10,-2,102,-4,12,23,0
10,7,-11,-11,10,-4,-2,102,-4,18,29,5
10,13,-11,-17,10,-4,-2,108,-4,24,35,11
22,13,-11,-23,16,-4,-7,108,-4,24,41,11
40,13,-23,-29,28,-4,-13,108,1,30,41,11
52,13,-29,-35,34,-4,-19,114,1,30,41,11
52,25,-23,-41,34,1,-25,114,7,30,41,11
52,25,-17,-41,28,7,-25,120,19,36,47,17
52,25,-17,-41,28,7,-25,132,31,48,59,29
52,25,-17,-41,28,7,-25,138,37,54,65,35
52,25,-17,-41,28,7,-25,144,43,60,71,41
52,25,-17,-41,28,7,-25,150,49,72,77,47
52,25,-17,-41,28,7,-25,156,55,78,89,53
52,31,-17,-41,28,7,-25,162,61,84,95,59
52,37,-17,-41,28,7,-31,168,61,96,101,65
52,43,-17,-47,28,13,-37,168,67,102,107,71
52,43,-11,-47,28,13,-43,168,67,108,113,77
58,49,-11,-53,28,13,-43,174,67,114,119,83
64,49,-11,-59,34,13,-49,174,67,120,119,89
70,49,-11,-65,40,13,-55,174,67,120,119,89
76,55,-17,-71,46,13,-61,180,67,120,119,89
88,61,-23,-77,52,13,-67,180,67,126,125,89
100,67,-29,-83,58,13,-73,186,73,132,131,95
106,73,-35,-95,64,13,-79,186,73,138,143,101
112,79,-35,-101,64,19,-85,186,79,144,149,101
112,85,-35,-107,64,25,-85,186,79,150,155,107
124,85,-35,-113,70,31,-91,186,85,156,161,113
136,97,-35,-119,76,31,-97,186,85,156,161,119
142,109,-35,-125,76,37,-103,186,85,162,167,125
142,115,-35,-131,76,37,-109,192,91,168,167,131
148,115,-35,-131,82,37,-115,192,97,174,173,137
154,121,-35,-131,82,37,-121,192,97,174,179,143
154,127,-35,-131,82,43,-127,192,97,180,185,143
154,133,-35,-137,82,43,-127,192,97,186,191,143
154,133,-35,-137,82,43,-127,192,97,192,197,149
154,133,-35,-137,88,43,-133,192,97,192,197,155
154,133,-35,-137,88,43,-133,192,97,192,197,155
160,133,-35,-137,88,43,-133,192,97,198,197,161
160,133,-35,-137,88,43,-133,192,97,204,203,167
160,139,-35,-143,88,49,-133,192,97,204,203,167
166,139,-35,-149,88,49,-133,192,97,204,203,167
172,139,-41,-155,94,49,-139,192,97,204,203,167
178,139,-47,-155,100,49,-139,192,97,204,203,167
184,139,-47,-161,106,49,-139,192,97,204,203,167
190,139,-47,-161,112,49,-139,192,97,204,203,167
190,139,-47,-161,112,49,-139,192,97,204,203,167
190,139,-47,-161,112,49,-139,192,97,204,203,167
196,139,-53,-161,118,49,-139,186,97,204,203,167
202,139,-59,-161,130,43,-145,174,91,198,197,161
196,139,-59,-155,130,43,-145,174,91,198,197,161
166,133,-53,-143,112,43,-139,174,91,198,197,161
154,133,-47,-137,100,43,-133,174,91,198,197,161
148,127,-47,-131,94,43,-133,174,91,198,197,161
142,127,-41,-131,88,43,-127,174,85,192,191,161
130,127,-35,-125,82,43,-127,174,79,186,191,155
124,115,-35,-119,76,43,-121,174,79,180,185,155
118,109,-35,-113,76,43,-115,168,73,174,179,149
118,103,-35,-107,70,43,-109,162,73,168,167,143
112,103,-29,-107,64,43,-103,156,67,156,155,131
112,103,-23,-107,64,43,-97,144,61,144,143,119
106,97,-23,-101,58,43,-97,138,55,132,131,107
94,85,-23,-89,58,37,-97,132,49,120,125,101
94,73,-23,-83,58,25,-91,126,43,114,119,95
88,73,-23,-83,52,25,-91,120,37,102,107,83
76,73,0,-77,40,31,-85,114,31,90,101,71
64,73,6,-71,28,31,-79,108,25,84,89,65
58,67,6,-65,22,31,-73,96,19,72,83,59
46,61,6,-59,16,31,-67,90,19,66,77,53
34,55,12,-53,4,31,-61,84,13,60,71,47
22,55,18,-47,-1,31,-49,78,7,48,59,35
16,55,18,-41,-7,31,-43,72,1,36,53,29
10,49,18,-35,-7,31,-37,66,1,30,47,23
10,43,18,-29,-7,31,-31,60,-4,18,41,17
4,37,18,-23,-7,25,-31,60,-4,12,35,11
-2,31,18,-17,-7,25,-25,60,-4,6,29,5
-7,25,18,-5,-13,25,-19,54,-4,6,23,5
-7,19,18,0,-13,19,-13,54,-10,0,17,0
-7,13,12,0,-13,13,-7,54,-10,-5,11,0
-7,1,0,6,-7,1,-7,48,-10,-5,5,0
-13,-4,0,12,-7,1,-2,42,-10,-5,5,-6
-19,-4,6,18,-13,1,-2,36,-10,-5,5,-6
-25,-4,6,18,-19,1,-2,36,-10,-11,5,-6
-31,-10,6,18,-19,-4,-2,36,-10,-11,5,-12
-31,-16,6,18,-19,-4,-2,36,-10,-11,-1,-18
-31,-16,6,24,-19,-4,-2,30,-10,-17,-6,-24
-37,-16,6,24,-19,-4,-2,30,-10,-17,-6,-24
-37,-16,6,24,-19,-4,4,30,-10,-17,-6,-24
-37,-16,6,24,-19,-4,4,30,-10,-17,-6,-24
-37,-22,6,30,-19,-4,4,30,-16,-17,-6,-24
-37,-22,6,30,-19,-4,4,30,-16,-17,-6,-24
-37,-22,0,30,-19,-4,4,30,-22,-17,-6,-24
-37,-28,0,30,-19,-10,4,30,-22,-17,-6,-24
-43,-28,0,36,-25,-10,4,30,-22,-17,-6,-24
-43,-28,0,36,-25,-10,4,30,-22,-17,-6,-24
-43,-28,0,36,-25,-10,4,30,-22,-17,-12,-24
-43,-28,0,36,-25,-10,4,30,-22,-17,-12,-24
-43,-28,0,36,-25,-10,4,30,-22,-17,-12,-30
-43,-34,0,36,-25,-10,10,30,-22,-17,-12,-30
-49,-34,6,42,-31,-10,10,30,-22,-17,-12,-30
-49,-34,6,42,-31,-10,10,30,-22,-17,-12,-30
-49,-34,6,42,-31,-10,10,30,-22,-17,-12,-30
-49,-34,6,42,-31,-10,10,30,-22,-17,-12,-30
-49,-34,6,42,-37,-10,16,30,-22,-17,-12,-30
-49,-34,6,42,-37,-10,22,30,-22,-17,-12,-30
-49,-34,6,42,-37,-10,22,36,-22,-17,-12,-30
-49,-40,0,42,-37,-16,22,42,-22,-17,-12,-30
-49,-40,0,42,-37,-16,22,42,-22,-17,-12,-30
-49,-40,0,42,-37,-16,22,42,-22,-17,-12,-30
-49,-40,0,42,-37,-16,28,42,-22,-17,-12,-30
-49,-40,0,42,-37,-16,28,48,-22,-17,-12,-30
-49,-40,0,42,-37,-16,28,48,-22,-17,-12,-30
-49,-40,6,42,-43,-16,28,48,-22,-17,-12,-30
-49,-40,6,42,-43,-16,28,48,-22,-17,-12,-30
-43,-40,6,42,-37,-16,28,48,-22,-17,-12,-30
-37,-40,6,42,-31,-16,28,48,-22,-17,-12,-30
-37,-40,6,42,-31,-16,28,48,-22,-17,-12,-30
-49,-40,12,42,-37,-16,34,54,-22,-17,-12,-30
-49,-40,12,42,-37,-16,34,60,-22,-17,-12,-30
-49,-40,12,42,-37,-16,34,60,-22,-17,-12,-30
-49,-40,12,42,-37,-16,34,60,-22,-17,-12,-30
-49,-40,12,42,-37,-16,34,60,-22,-17,-12,-30
-49,-40,12,42,-37,-16,34,60,-22,-17,-12,-30
-49,-40,12,42,-37,-16,34,60,-22,-17,-12,-30
-49,-40,12,42,-37,-16,34,60,-22,-17,-12,-30
-49,-40,12,42,-37,-16,34,60,-22,-17,-12,-30
-49,-40,12,42,-37,-16,34,60,-22,-17,-12,-30
-49,-40,12,36,-37,-16,34,60,-22,-17,-18,-30
-49,-34,12,36,-37,-16,34,60,-22,-17,-18,-30
-49,-34,12,36,-37,-16,34,60,-22,-17,-18,-30
-49,-34,6,36,-37,-16,40,60,-22,-17,-18,-30
-49,-34,6,36,-37,-16,40,60,-22,-17,-18,-30
-49,-34,6,36,-37,-16,40,60,-22,-17,-18,-30
-49,-34,6,36,-37,-16,40,60,-22,-17,-18,-30
-49,-34,6,36,-37,-16,40,60,-22,-17,-18,-30
-49,-34,6,36,-37,-16,40,60,-22,-17,-18,-30
-49,-34,6,36,-37,-16,40,60,-22,-17,-18,-30
-49,-34,6,36,-37,-16,40,60,-22,-17,-18,-30
-49,-34,6,36,-37,-16,40,60,-22,-17,-18,-30
-49,-40,6,36,-37,-16,40,60,-22,-17,-18,-30
-49,-46,6,36,-37,-16,40,54,-28,-17,-18,-30
-49,-46,6,36,-37,-16,40,48,-34,-17,-24,-30
-49,-46,6,36,-37,-16,40,48,-34,-23,-24,-30
-49,-46,6,36,-37,-16,40,48,-34,-23,-24,-30
-49,-46,6,42,-37,-16,40,48,-34,-23,-24,-30
-55,-46,12,48,-37,-16,40,48,-34,-23,-24,-30
-55,-46,12,48,-37,-16,40,48,-34,-23,-24,-30
-55,-40,12,48,-37,-16,40,42,-40,-29,-24,-30
-55,-40,12,48,-37,-16,40,36,-46,-35,-24,-30
-55,-40,12,48,-37,-16,40,36,-46,-35,-24,-30
-55,-40,12,48,-37,-16,40,30,-52,-41,-30,-30
-55,-40,12,48,-37,-16,40,30,-52,-41,-36,-30
-49,-40,12,48,-37,-16,40,30,-52,-41,-36,-30
-43,-40,6,48,-31,-16,40,30,-52,-41,-36,-30
-43,-40,6,48,-31,-16,40,30,-52,-41,-42,-30
-43,-40,6,48,-31,-16,40,30,-52,-41,-42,-30
-43,-40,6,48,-31,-22,40,30,-52,-41,-42,-30
-43,-40,6,48,-31,-22,40,24,-58,-41,-42,-30
-43,-40,6,48,-31,-22,40,24,-58,-41,-42,-30
-49,-40,6,48,-31,-22,40,24,-58,-41,-42,-30
-49,-40,6,48,-31,-22,40,24,-58,-41,-42,-30
-49,-40,0,48,-31,-22,40,18,-58,-41,-42,-30
-49,-40,0,48,-31,-22,40,18,-58,-41,-42,-30
-49,-40,0,48,-31,-22,40,18,-58,-41,-42,-30
-49,-46,-5,48,-25,-28,40,18,-58,-41,-42,-30
-49,-46,-5,48,-25,-28,40,18,-58,-47,-42,-30
-49,-46,-5,48,-25,-28,40,12,-64,-47,-42,-30
-49,-46,-5,48,-25,-28,40,12,-70,-53,-42,-30
-49,-46,-5,48,-25,-28,40,12,-70,-53,-42,-30
-49,-46,-5,48,-25,-28,40,6,-76,-59,-42,-30
-49,-46,-5,48,-25,-28,40,0,-76,-59,-42,-30
-49,-46,-5,48,-25,-28,40,0,-76,-59,-42,-30
-49,-46,-5,48,-25,-28,40,0,-76,-65,-42,-30
-49,-46,-5,48,-25,-28,40,0,-76,-65,-48,-30
-49,-46,-5,48,-25,-28,40,0,-76,-65,-54,-30
-49,-46,-5,48,-25,-28,40,0,-76,-65,-54,-30
-49,-46,-5,48,-25,-28,40,-5,-82,-65,-54,-30
-49,-46,-5,48,-25,-34,40,-5,-82,-65,-60,-30
-49,-46,-5,48,-25,-34,40,-5,-88,-65,-60,-30
-49,-46,-5,48,-25,-34,40,-5,-88,-65,-60,-30
-55,-46,-5,48,-25,-34,40,-5,-88,-65,-60,-30
-55,-52,-5,48,-25,-34,40,-5,-88,-65,-60,-30
-55,-52,-11,48,-25,-34,40,-5,-88,-65,-60,-30
-49,-52,-11,48,-25,-34,40,-11,-88,-65,-60,-30
-49,-52,-5,48,-25,-34,40,-11,-94,-65,-66,-30
-55,-52,6,48,-31,-34,40,-11,-94,-65,-66,-30
-55,-52,12,48,-37,-34,40,-11,-94,-65,-66,-30
-55,-52,12,48,-37,-34,40,-17,-94,-71,-66,-30
-49,-52,12,48,-31,-34,40,-23,-94,-71,-66,-36
-49,-52,6,48,-25,-34,40,-23,-94,-71,-66,-36
-49,-52,6,48,-25,-34,40,-23,-94,-71,-66,-36
-55,-46,12,48,-31,-22,40,-23,-94,-71,-66,-36
-55,-40,18,48,-31,-10,40,-23,-94,-71,-66,-36
-55,-40,18,48,-31,-10,40,-23,-94,-71,-66,-36
-55,-34,18,48,-31,-4,46,-17,-94,-65,-66,-30
-55,-22,24,48,-37,7,46,-11,-94,-65,-66,-30
-55,-10,30,42,-37,13,52,-11,-94,-65,-66,-24
-55,-10,30,42,-37,13,58,-5,-88,-65,-60,-24
-55,-10,30,42,-37,13,64,0,-82,-59,-54,-24
-55,-10,30,42,-37,13,64,0,-82,-59,-54,-24
-49,-10,30,36,-37,13,64,0,-82,-59,-54,-24
-43,-10,30,30,-37,13,64,0,-82,-59,-54,-24
-37,-10,24,24,-37,13,64,0,-82,-59,-54,-24
-31,-10,24,18,-37,13,64,0,-82,-59,-54,-24
-25,-4,24,12,-37,13,64,0,-82,-59,-54,-24
-25,7,30,6,-37,19,64,0,-82,-59,-54,-24
-25,19,42,6,-37,31,64,0,-76,-53,-48,-18
-25,19,42,0,-37,31,64,0,-76,-53,-48,-12
-13,25,42,-5,-31,31,64,0,-70,-53,-48,-12
-7,31,42,-11,-31,31,58,0,-70,-53,-48,-12
-7,37,48,-17,-31,37,52,0,-70,-53,-48,-12
-7,43,48,-17,-31,43,52,6,-70,-53,-42,-6
-7,43,48,-23,-31,43,52,12,-64,-47,-36,0
-2,43,42,-23,-25,43,52,12,-64,-47,-36,0
4,43,30,-23,-13,43,52,12,-64,-47,-36,0
10,43,18,-23,-7,37,46,12,-64,-47,-36,0
16,43,12,-23,-1,37,40,12,-64,-47,-36,0
22,43,12,-29,4,37,40,12,-64,-47,-36,0
22,43,12,-29,4,37,40,12,-58,-41,-36,0
22,43,12,-29,4,37,40,12,-58,-41,-36,0
22,43,12,-29,4,37,40,12,-58,-41,-36,0
22,37,6,-29,4,31,40,12,-58,-41,-36,-6
22,31,-5,-29,10,19,40,12,-58,-41,-36,-12
22,31,-5,-23,10,13,34,12,-58,-41,-36,-18
16,31,-5,-17,4,13,34,12,-58,-41,-36,-18
4,25,-5,-5,-1,13,34,12,-58,-41,-36,-24
-7,1,-5,6,-7,7,34,12,-64,-41,-36,-30
-19,-16,-5,18,-13,1,34,6,-70,-47,-42,-36
-31,-22,0,24,-19,-4,34,-5,-76,-59,-54,-42
-37,-28,0,30,-19,-10,34,-17,-82,-71,-66,-54
-43,-34,0,36,-25,-10,34,-23,-88,-77,-72,-60
-49,-40,0,42,-31,-10,34,-29,-94,-83,-78,-66
-49,-46,0,42,-31,-16,34,-35,-100,-83,-84,-72
-49,-52,-5,42,-31,-22,34,-41,-100,-83,-84,-78
-49,-52,-5,42,-31,-22,34,-41,-106,-83,-84,-84
-49,-58,-5,42,-31,-28,34,-41,-106,-89,-84,-84
-49,-70,-17,42,-25,-40,34,-41,-106,-89,-84,-84
-49,-76,-23,42,-13,-46,34,-47,-112,-95,-90,-84
-49,-76,-23,42,-13,-46,34,-53,-118,-101,-96,-84
-49,-76,-23,42,-13,-52,34,-59,-124,-107,-96,-84
-49,-76,-23,48,-13,-52,34,-59,-124,-107,-96,-84
-55,-76,-23,60,-19,-52,34,-59,-124,-107,-96,-84
-61,-76,-23,66,-25,-52,34,-59,-124,-107,-96,-84
-61,-76,-23,66,-25,-52,34,-65,-124,-107,-102,-84
-61,-76,-23,66,-25,-52,34,-71,-130,-113,-108,-90
-61,-76,-23,66,-25,-52,34,-77,-130,-113,-108,-90
-67,-76,-17,66,-31,-52,34,-77,-130,-113,-108,-90
-73,-76,-5,66,-37,-46,34,-77,-130,-113,-108,-90
-73,-76,-5,72,-37,-46,34,-77,-130,-113,-108,-90
-73,-88,-17,78,-37,-64,34,-77,-130,-113,-108,-90
-73,-88,-17,78,-37,-64,34,-77,-130,-113,-108,-90
-73,-88,-17,78,-37,-64,34,-83,-130,-113,-108,-96
-73,-88,-17,78,-37,-64,34,-83,-130,-113,-108,-96
-73,-94,-23,84,-37,-64,34,-83,-130,-113,-108,-96
-73,-106,-29,84,-37,-64,34,-83,-130,-113,-108,-96
-73,-106,-29,84,-37,-64,34,-83,-130,-113,-108,-96
-73,-106,-23,84,-37,-64,34,-83,-130,-113,-108,-96
-73,-106,-23,84,-37,-64,34,-83,-130,-113,-108,-96
-73,-106,-23,84,-37,-64,34,-83,-130,-113,-108,-96
-73,-100,-29,84,-31,-64,34,-83,-130,-113,-108,-96
-67,-100,-35,84,-25,-64,34,-83,-130,-113,-108,-96
-67,-100,-35,84,-25,-64,34,-83,-130,-113,-108,-96
-67,-100,-35,84,-25,-64,34,-83,-130,-113,-108,-96
-73,-100,-29,84,-31,-58,34,-83,-130,-113,-108,-96
-79,-100,-17,84,-37,-52,34,-83,-130,-113,-108,-96
-79,-100,-11,84,-37,-52,34,-83,-130,-113,-108,-96
-79,-100,-11,84,-37,-52,34,-83,-130,-119,-108,-96
-79,-100,-11,84,-37,-52,34,-83,-130,-125,-114,-96
-85,-100,-11,84,-37,-52,46,-71,-130,-131,-120,-102
-103,-100,-5,90,-49,-52,76,-41,-130,-137,-126,-108
-115,-100,0,96,-61,-52,112,-11,-130,-143,-138,-114
-127,-100,18,102,-73,-46,148,18,-124,-143,-144,-120
-133,-94,36,102,-85,-34,184,60,-112,-143,-144,-126
-133,-82,48,102,-91,-22,214,126,-70,-131,-138,-126
-121,-58,54,90,-91,1,238,234,19,-77,-96,-114
-85,1,66,42,-91,43,262,348,151,36,-6,-54
-31,103,102,-41,-85,109,292,462,289,156,107,47
22,199,138,-119,-79,157,304,504,397,270,209,125
76,265,156,-173,-67,205,310,522,475,378,305,203
136,337,162,-239,-43,241,310,522,553,504,419,317
232,445,168,-341,-13,295,214,522,655,678,563,455
340,571,180,-449,28,355,16,522,769,852,749,629
466,649,180,-545,112,397,-205,516,889,1050,947,809
556,715,174,-629,178,421,-385,510,1003,1194,1085,947
586,733,162,-659,214,427,-487,510,1123,1290,1151,995
592,727,126,-659,232,421,-565,522,1219,1332,1169,1001
586,637,78,-623,244,361,-625,522,1219,1320,1157,989
526,493,30,-515,244,271,-655,426,1081,1068,947,863
454,367,-29,-407,244,157,-661,234,769,714,671,671
370,271,-59,-317,238,103,-655,12,421,378,413,509
268,229,-59,-245,190,85,-595,-167,175,144,233,359
166,187,-47,-173,106,79,-481,-287,7,0,101,245
100,121,-41,-107,70,67,-391,-347,-82,-71,5,149
76,43,-41,-59,64,19,-307,-353,-112,-101,-42,65
64,-40,-89,-23,70,-52,-241,-347,-124,-107,-72,11
52,-100,-119,18,70,-106,-181,-299,-124,-107,-78,-18
22,-130,-131,48,70,-124,-145,-239,-124,-107,-78,-30
10,-130,-131,54,64,-124,-115,-185,-118,-101,-78,-30
4,-130,-125,54,58,-124,-85,-143,-106,-89,-78,-30
4,-124,-125,54,58,-124,-49,-101,-94,-83,-78,-30
4,-112,-125,54,58,-118,-31,-71,-88,-77,-78,-30
4,-100,-113,48,52,-106,-13,-59,-82,-71,-78,-30
-2,-94,-107,48,46,-100,4,-47,-82,-71,-78,-30
-7,-94,-95,48,40,-94,16,-41,-82,-65,-78,-30
-19,-94,-83,48,28,-88,28,-35,-82,-65,-78,-30
-31,-88,-53,48,16,-76,34,-35,-82,-65,-78,-30
-37,-88,-41,54,10,-70,40,-35,-82,-65,-78,-30
-37,-88,-41,54,10,-70,46,-35,-82,-65,-78,-36
-37,-88,-41,54,10,-70,46,-35,-82,-65,-78,-42
-37,-88,-41,54,10,-70,46,-35,-82,-71,-78,-42
-37,-82,-41,54,10,-70,46,-35,-88,-77,-78,-42
-37,-82,-41,54,10,-70,46,-35,-88,-77,-78,-42
-37,-82,-47,54,10,-70,52,-35,-88,-77,-78,-42
-37,-82,-47,54,10,-70,58,-35,-88,-77,-78,-42
-37,-82,-47,54,10,-70,58,-35,-88,-77,-78,-42
-37,-82,-47,54,4,-70,64,-35,-88,-77,-78,-42
-43,-82,-35,54,-7,-58,64,-35,-88,-77,-78,-42
-55,-82,-23,60,-19,-52,70,-29,-88,-77,-78,-42
-55,-82,-23,60,-19,-52,76,-29,-88,-77,-78,-42
-55,-82,-23,60,-19,-52,76,-23,-88,-77,-78,-42
-55,-82,-23,60,-19,-52,76,-23,-88,-77,-78,-42
-55,-82,-23,60,-19,-52,76,-23,-88,-77,-78,-42
-55,-82,-29,60,-19,-52,76,-23,-88,-77,-78,-42
-55,-82,-29,60,-19,-52,76,-23,-88,-77,-78,-42
-55,-82,-29,60,-19,-52,76,-23,-88,-77,-78,-42
-55,-82,-29,60,-19,-52,76,-17,-88,-77,-78,-42
-55,-82,-29,60,-19,-52,76,-17,-88,-77,-78,-42
-55,-82,-35,60,-13,-58,76,-17,-88,-77,-78,-42
-55,-88,-41,60,-7,-64,76,-17,-88,-77,-78,-42
-55,-88,-41,60,-7,-64,76,-17,-88,-77,-78,-42
-55,-88,-41,60,-13,-64,76,-17,-88,-77,-78,-42
-55,-88,-35,60,-13,-58,82,-17,-88,-77,-78,-42
-55,-88,-35,60,-13,-58,82,-11,-88,-77,-78,-42
-55,-88,-35,60,-13,-58,82,-11,-88,-77,-78,-42
-55,-88,-35,60,-13,-58,82,-5,-88,-71,-78,-42
-55,-82,-35,60,-13,-58,82,-5,-88,-71,-78,-42
-55,-82,-35,60,-13,-58,82,-5,-88,-71,-78,-42
-55,-82,-35,60,-13,-58,82,-5,-88,-71,-78,-42
-55,-76,-35,60,-13,-58,82,0,-88,-71,-78,-42
-49,-76,-35,60,-13,-58,82,0,-88,-71,-78,-42
-43,-76,-35,60,-7,-58,82,0,-88,-71,-78,-42
-37,-76,-35,60,-7,-58,82,0,-88,-71,-78,-42
-37,-76,-35,60,-7,-58,82,0,-88,-71,-78,-42
-37,-76,-35,60,-1,-58,82,0,-88,-71,-78,-42
-37,-76,-35,60,-1,-58,82,0,-88,-71,-78,-42
-37,-76,-35,60,-1,-58,82,6,-82,-71,-78,-42
-37,-76,-35,60,-1,-58,82,12,-76,-71,-78,-42
-37,-76,-35,60,-1,-58,82,18,-76,-71,-78,-42
-37,-70,-35,60,-1,-58,82,18,-76,-71,-78,-42
-31,-64,-35,54,-1,-58,82,18,-76,-71,-78,-42
-31,-64,-35,48,-1,-58,82,18,-70,-71,-78,-42
-31,-64,-35,48,-1,-58,82,24,-64,-65,-78,-42
-31,-64,-35,48,-1,-58,82,30,-58,-59,-72,-42
-31,-64,-35,48,-1,-58,82,30,-52,-53,-66,-42
-31,-58,-35,48,-1,-52,82,30,-46,-47,-66,-42
-31,-46,-29,42,-1,-46,82,30,-46,-47,-66,-42
-31,-46,-29,42,-1,-46,82,30,-46,-47,-66,-42
-31,-46,-29,42,-1,-46,82,36,-40,-41,-66,-42
-31,-46,-29,42,-1,-46,82,42,-40,-41,-60,-42
-31,-46,-29,42,-1,-46,82,42,-40,-41,-60,-42
-25,-46,-29,36,-1,-46,82,42,-40,-41,-60,-42
-25,-46,-29,30,-1,-46,82,42,-40,-41,-60,-42
-25,-46,-29,30,-1,-46,82,48,-34,-35,-54,-42
-25,-46,-29,30,-1,-46,82,54,-28,-29,-48,-36
-25,-40,-29,30,-1,-40,82,60,-22,-23,-42,-30
-25,-34,-23,30,-1,-40,82,60,-16,-17,-42,-30
-25,-28,-23,30,-1,-34,76,60,-16,-17,-42,-30
-19,-28,-23,30,-1,-34,76,66,-16,-17,-36,-24
-19,-28,-23,30,-1,-34,76,72,-10,-11,-30,-18
-13,-28,-23,30,-1,-34,70,72,-4,-5,-30,-18
-7,-28,-23,24,4,-34,64,72,-4,-5,-30,-18
-2,-28,-29,18,10,-34,58,78,1,0,-24,-18
-2,-28,-29,18,10,-34,58,78,1,6,-18,-18
-2,-22,-29,18,10,-34,58,78,1,12,-18,-12
4,-16,-29,12,10,-34,52,78,1,18,-12,-12
10,-16,-29,6,10,-34,46,78,7,18,-6,-12
10,-10,-29,6,16,-34,46,84,13,24,-1,-6
16,-10,-29,6,16,-34,46,90,25,30,5,-6
16,-4,-29,0,16,-28,46,96,31,36,5,-6
16,1,-23,0,16,-22,46,102,37,42,11,-6
16,1,-23,0,16,-16,46,108,43,48,17,0
22,1,-23,-5,16,-16,40,114,43,54,23,5
28,1,-23,-11,16,-16,34,114,43,54,23,5
34,1,-29,-11,22,-16,28,114,43,60,23,11
46,1,-41,-17,34,-16,28,120,43,66,29,11
58,1,-53,-23,46,-16,22,120,43,72,29,11
70,7,-65,-29,58,-16,16,120,43,72,35,17
76,13,-65,-35,64,-16,10,120,43,72,35,17
76,19,-65,-41,64,-16,4,126,49,72,41,23
70,25,-47,-41,58,-16,4,132,61,78,53,29
64,31,-35,-41,52,-10,4,138,67,90,59,35
64,37,-35,-41,52,-10,4,144,73,102,65,41
64,37,-35,-47,52,-10,-2,150,79,108,65,47
64,43,-35,-47,52,-4,-2,156,85,114,71,53
64,43,-29,-47,52,1,-2,162,91,120,83,59
64,49,-23,-53,52,13,-7,162,91,126,89,65
70,55,-23,-59,52,13,-13,162,97,132,95,71
76,61,-23,-65,52,13,-19,168,103,138,107,71
88,67,-23,-77,58,13,-25,168,103,144,113,71
106,73,-23,-89,64,13,-31,168,103,150,119,71
118,79,-29,-95,76,13,-43,168,103,156,125,77
124,79,-41,-101,82,13,-49,168,109,162,131,83
130,79,-41,-107,88,13,-55,168,115,168,137,89
136,91,-41,-113,88,19,-61,168,115,174,137,95
142,103,-41,-119,88,19,-67,168,115,174,137,101
142,109,-41,-119,88,19,-73,168,115,180,143,107
142,109,-41,-119,94,19,-73,168,121,186,149,113
148,109,-47,-119,100,19,-79,168,121,192,155,119
154,109,-47,-125,106,19,-85,168,121,192,155,125
154,115,-47,-131,106,25,-91,168,121,192,161,125
154,115,-47,-137,106,25,-91,168,121,198,167,131
160,121,-47,-137,106,25,-97,168,127,204,173,131
166,121,-47,-137,106,25,-97,162,127,204,173,131
166,127,-47,-137,106,31,-97,162,127,204,173,131
166,127,-41,-137,106,43,-97,162,127,204,173,137
166,127,-41,-137,106,43,-97,162,127,210,179,137
166,127,-47,-137,106,43,-97,162,127,210,179,137
166,127,-53,-137,112,43,-103,156,127,210,179,137
172,127,-53,-143,112,43,-103,144,127,210,179,137
178,133,-53,-149,112,43,-109,138,127,210,179,137
178,133,-53,-149,112,43,-109,138,127,210,179,137
178,133,-53,-149,112,43,-109,138,127,210,179,137
178,127,-53,-149,112,43,-109,138,127,210,179,137
178,121,-59,-149,112,37,-109,132,127,210,179,137
178,121,-59,-149,112,37,-109,126,127,210,173,137
178,121,-59,-149,112,37,-109,120,121,204,173,131
172,121,-59,-149,112,37,-109,114,121,204,173,131
166,115,-59,-143,112,31,-109,108,121,204,173,131
160,109,-59,-137,112,31,-109,102,121,204,167,131
160,109,-53,-137,106,31,-109,96,121,198,161,131
154,109,-47,-131,100,31,-103,96,121,192,155,131
142,103,-47,-125,94,31,-97,96,121,186,155,131
136,97,-47,-119,94,31,-91,90,115,180,149,125
136,97,-47,-119,94,31,-85,84,109,168,137,113
136,91,-47,-119,94,31,-85,78,103,156,125,101
124,85,-47,-107,88,31,-79,72,97,144,113,89
112,85,-41,-95,76,31,-73,72,91,132,107,83
100,79,-41,-89,70,31,-67,66,85,126,101,71
94,73,-41,-83,70,31,-61,60,85,120,95,65
88,67,-41,-77,70,25,-55,54,79,114,89,59
82,61,-41,-71,64,25,-43,48,73,102,77,53
70,55,-35,-65,52,25,-31,42,73,90,71,47
64,49,-29,-59,40,25,-19,36,67,78,65,41
52,43,-23,-53,34,25,-13,30,61,66,53,35
46,37,-17,-41,28,25,-7,24,55,54,41,23
40,37,-11,-35,22,25,-2,18,49,42,29,11
28,31,-11,-23,16,25,4,12,43,36,23,5
16,19,-5,-11,10,19,10,6,43,30,23,0
4,13,-5,-5,4,19,16,0,43,24,11,-6
-2,7,-5,0,4,13,16,-5,37,12,-1,-18
-7,1,-5,6,-1,7,16,-11,31,6,-6,-24
-13,-4,-5,6,-7,7,22,-17,31,0,-12,-30
-13,-10,-5,6,-7,1,28,-23,25,-5,-18,-36
-13,-10,-5,6,-7,1,28,-29,19,-11,-24,-42
-19,-22,0,18,-13,1,34,-29,19,-11,-24,-42
-25,-28,0,30,-13,-4,40,-29,19,-17,-30,-48
-25,-34,0,30,-13,-10,40,-35,19,-23,-36,-54
-31,-34,0,30,-13,-10,40,-41,13,-29,-42,-60
-31,-34,0,30,-13,-10,40,-41,13,-29,-42,-60
-31,-34,0,30,-13,-16,40,-41,13,-29,-42,-60
-31,-34,0,30,-13,-16,40,-41,13,-29,-42,-66
-31,-34,0,30,-13,-16,40,-41,13,-29,-42,-66
-31,-34,-5,30,-13,-16,40,-41,13,-29,-42,-66
-31,-34,-5,30,-13,-16,40,-41,13,-29,-42,-66
-31,-34,-5,30,-19,-16,40,-41,7,-29,-42,-66
-37,-40,0,36,-25,-16,40,-41,7,-29,-42,-66
-43,-46,0,42,-31,-16,40,-41,7,-29,-42,-66
-49,-46,0,48,-31,-16,40,-41,7,-29,-42,-66
-49,-46,0,48,-31,-16,40,-41,7,-29,-42,-66
-49,-46,0,48,-31,-16,40,-41,7,-29,-42,-66
-49,-40,0,48,-31,-16,40,-41,7,-29,-42,-66
-49,-34,6,48,-31,-10,40,-41,7,-29,-42,-66
-55,-34,6,48,-31,-10,40,-41,7,-29,-42,-66
-61,-34,6,48,-31,-10,40,-41,7,-29,-42,-66
-61,-40,6,48,-31,-16,40,-41,7,-29,-42,-66
-55,-40,6,48,-31,-16,40,-41,7,-29,-42,-66
-55,-40,6,48,-31,-16,40,-41,7,-29,-42,-66
-55,-40,6,48,-31,-16,46,-41,7,-29,-42,-66
-55,-40,6,48,-31,-16,46,-41,7,-29,-42,-66
-55,-40,6,48,-31,-16,46,-41,7,-29,-42,-66
-61,-40,6,48,-31,-16,46,-41,7,-29,-42,-66
-61,-40,0,48,-31,-16,46,-41,7,-29,-42,-66
-55,-40,0,48,-31,-16,46,-41,7,-29,-42,-66
-55,-40,0,48,-31,-16,46,-41,7,-29,-48,-66
-55,-40,0,48,-31,-16,46,-35,7,-29,-48,-66
-55,-40,0,48,-31,-16,46,-35,7,-29,-48,-66
-55,-40,0,48,-31,-16,46,-35,7,-29,-48,-66
-49,-40,0,48,-31,-16,46,-35,7,-29,-48,-72
-49,-40,0,48,-31,-16,46,-35,7,-29,-48,-72
-49,-40,0,48,-31,-16,52,-35,7,-29,-48,-72
-49,-40,0,48,-31,-16,52,-35,7,-29,-48,-72
-49,-40,-5,48,-31,-16,52,-35,7,-29,-48,-72
-49,-40,-5,48,-31,-16,52,-35,7,-29,-48,-72
-49,-40,-5,48,-31,-16,52,-35,7,-29,-48,-72
-49,-40,-5,48,-31,-16,52,-35,7,-29,-48,-72
-49,-40,-5,48,-31,-16,52,-35,7,-29,-48,-72
-49,-40,0,48,-31,-16,52,-35,7,-29,-48,-72
-55,-40,6,48,-37,-10,52,-35,7,-29,-48,-72
-61,-40,6,48,-37,-10,52,-35,7,-29,-48,-72
-61,-40,6,48,-37,-10,52,-35,7,-29,-48,-72
-61,-40,6,48,-37,-10,52,-35,7,-29,-48,-78
-61,-40,6,48,-37,-10,52,-35,7,-29,-48,-84
-61,-40,6,48,-37,-10,52,-35,7,-29,-48,-84
-61,-40,12,48,-37,-10,52,-35,7,-29,-48,-84
-61,-40,12,48,-37,-10,52,-35,7,-35,-48,-84
-61,-40,12,48,-37,-10,52,-35,7,-35,-48,-84
-61,-40,12,48,-37,-10,52,-35,7,-35,-48,-84
-61,-40,6,48,-31,-16,52,-35,7,-35,-48,-84
-55,-46,-5,48,-25,-22,52,-35,7,-35,-48,-84
-55,-52,-11,48,-25,-28,52,-35,7,-35,-48,-84
-55,-52,-11,48,-25,-28,52,-41,7,-35,-48,-84
-55,-52,-11,48,-25,-28,52,-41,7,-35,-48,-84
-55,-52,-5,48,-25,-28,52,-41,1,-35,-48,-84
-55,-52,6,48,-31,-28,52,-41,1,-35,-48,-84
-61,-52,18,48,-37,-22,52,-41,1,-35,-48,-84
-61,-52,18,48,-37,-22,52,-41,1,-35,-48,-84
-61,-52,18,48,-37,-22,52,-47,-4,-35,-48,-90
-61,-46,18,48,-37,-16,46,-53,-10,-35,-48,-96
-61,-46,18,48,-37,-16,46,-53,-10,-35,-48,-96
-61,-46,18,48,-37,-10,46,-53,-10,-35,-48,-96
-61,-46,18,48,-37,-10,46,-53,-16,-35,-48,-96
-61,-46,18,48,-37,-10,46,-53,-16,-41,-48,-96
-61,-46,18,48,-37,-16,46,-53,-16,-41,-48,-96
-61,-46,18,48,-37,-16,46,-53,-16,-41,-48,-96
-61,-46,18,48,-37,-16,46,-53,-16,-41,-48,-96
-55,-46,12,48,-37,-16,46,-53,-16,-41,-48,-96
-49,-46,12,48,-31,-16,46,-59,-22,-41,-54,-96
-49,-46,12,48,-31,-16,46,-65,-28,-41,-54,-96
-55,-46,12,48,-31,-16,46,-65,-28,-41,-54,-96
-55,-46,12,48,-31,-16,46,-71,-34,-47,-54,-96
-55,-46,12,48,-31,-16,46,-77,-40,-53,-60,-102
-55,-46,12,48,-31,-16,46,-83,-46,-59,-66,-102
-55,-46,6,48,-31,-22,46,-83,-46,-59,-66,-102
-55,-52,0,48,-31,-28,46,-83,-46,-59,-66,-102
-55,-52,0,48,-31,-28,46,-83,-52,-59,-66,-102
-55,-52,0,48,-31,-28,46,-83,-52,-59,-66,-102
-55,-46,6,48,-31,-28,46,-83,-52,-65,-66,-102
-55,-46,6,48,-31,-28,46,-83,-52,-65,-66,-102
-55,-46,6,48,-31,-28,46,-89,-58,-65,-66,-102
-55,-46,6,48,-31,-28,46,-89,-58,-71,-66,-108
-55,-46,6,48,-31,-28,46,-89,-58,-71,-66,-108
-55,-46,6,48,-31,-22,46,-89,-58,-71,-66,-108
-55,-46,12,48,-37,-16,46,-89,-64,-71,-66,-108
-55,-46,12,48,-37,-16,46,-95,-64,-71,-66,-108
-55,-46,12,48,-37,-16,46,-95,-64,-71,-66,-114
-55,-46,12,48,-31,-16,46,-101,-64,-77,-66,-120
-55,-46,12,48,-31,-22,46,-101,-70,-77,-66,-120
-55,-46,6,48,-25,-22,46,-101,-70,-77,-66,-120
-55,-46,6,48,-25,-22,46,-101,-70,-77,-66,-120
-55,-46,6,48,-25,-22,46,-107,-70,-77,-66,-120
-55,-46,0,48,-25,-22,46,-107,-70,-77,-66,-120
-55,-46,0,48,-25,-22,46,-107,-70,-77,-66,-120
-49,-46,-5,48,-19,-28,46,-107,-76,-77,-66,-120
-43,-46,-11,48,-13,-34,46,-107,-82,-77,-66,-126
-43,-46,-11,48,-13,-34,46,-107,-82,-77,-66,-126
-49,-46,-11,48,-13,-34,46,-107,-82,-77,-66,-126
-49,-46,-5,48,-19,-34,46,-107,-82,-77,-66,-126
-49,-46,0,48,-25,-34,46,-113,-82,-77,-66,-126
-55,-46,0,48,-25,-28,46,-113,-82,-77,-66,-126
-55,-46,0,48,-25,-28,46,-113,-82,-77,-66,-126
-55,-46,0,48,-25,-28,46,-113,-82,-77,-66,-126
-55,-46,6,48,-25,-28,46,-113,-82,-77,-66,-126
-55,-46,12,48,-31,-22,46,-113,-82,-77,-66,-126
-55,-34,24,48,-31,-16,46,-113,-82,-77,-66,-126
-55,-28,30,42,-31,-10,46,-113,-82,-77,-66,-126
-55,-28,30,42,-31,-10,46,-113,-76,-77,-66,-126
-55,-28,30,42,-31,-10,52,-113,-70,-77,-60,-126
-55,-16,36,36,-31,-4,58,-107,-70,-77,-54,-126
-49,-4,36,30,-31,1,58,-107,-70,-77,-54,-126
-49,1,36,30,-31,7,58,-107,-70,-77,-54,-126
-49,1,36,30,-37,13,58,-107,-70,-71,-54,-120
-49,1,36,30,-37,13,64,-107,-64,-71,-48,-114
-43,1,36,24,-37,13,70,-107,-64,-71,-48,-114
-43,1,36,18,-37,13,70,-107,-64,-71,-48,-114
-43,7,36,18,-37,13,70,-107,-64,-71,-48,-114
-43,7,42,18,-37,19,70,-107,-58,-65,-48,-114
-37,13,42,12,-37,25,70,-107,-52,-65,-48,-108
-25,19,42,6,-31,25,70,-101,-52,-59,-42,-108
-19,25,42,0,-31,25,70,-101,-46,-59,-42,-102
-19,31,42,0,-31,31,70,-101,-46,-59,-42,-102
-13,37,42,-5,-31,31,70,-101,-46,-59,-42,-96
-7,37,42,-11,-31,31,64,-101,-46,-59,-36,-90
-7,37,42,-17,-31,31,64,-95,-46,-59,-30,-84
-7,37,42,-17,-31,31,58,-89,-46,-59,-24,-78
-2,37,36,-23,-25,31,52,-89,-46,-59,-24,-78
16,37,24,-23,-13,31,46,-89,-46,-59,-24,-78
22,37,12,-29,-1,25,40,-89,-46,-59,-24,-78
22,37,12,-29,4,25,40,-89,-40,-53,-24,-72
22,37,12,-29,4,25,40,-89,-40,-47,-24,-66
22,31,6,-29,10,25,40,-89,-40,-47,-18,-66
22,19,0,-29,16,13,40,-89,-40,-47,-18,-66
22,19,0,-29,16,13,40,-89,-40,-47,-18,-66
22,19,0,-29,16,13,34,-89,-40,-47,-18,-66
22,19,0,-29,16,13,34,-89,-40,-47,-24,-66
22,19,0,-23,10,13,34,-89,-46,-53,-30,-66
16,13,0,-17,10,7,34,-95,-46,-59,-36,-66
4,1,0,-11,4,1,34,-95,-46,-65,-42,-66
-13,-10,0,12,-1,-4,34,-95,-52,-65,-42,-72
-19,-22,0,24,-1,-10,34,-101,-58,-71,-48,-84
-19,-28,-5,30,-1,-16,34,-113,-70,-83,-60,-96
-19,-34,-11,30,-1,-22,34,-125,-82,-95,-72,-114
-25,-46,-11,36,-1,-28,34,-131,-88,-101,-78,-120
-31,-52,-11,42,-7,-28,34,-131,-94,-101,-78,-120
-37,-58,-17,48,-7,-34,34,-131,-100,-101,-78,-120
-43,-64,-17,54,-7,-40,34,-137,-106,-107,-84,-120
-55,-70,-17,60,-13,-40,34,-137,-106,-107,-84,-120
-67,-70,-5,66,-25,-40,34,-137,-106,-107,-84,-120
-73,-70,0,72,-31,-40,34,-137,-106,-107,-84,-120
-73,-70,0,72,-31,-40,34,-137,-106,-113,-84,-120
-73,-76,0,72,-31,-40,34,-137,-106,-113,-84,-120
-73,-76,0,78,-31,-40,34,-137,-106,-113,-90,-120
-79,-76,6,78,-43,-40,34,-137,-106,-113,-90,-120
-85,-76,6,78,-49,-40,34,-137,-106,-113,-90,-120
-85,-82,6,78,-49,-40,34,-143,-106,-113,-90,-120
-85,-88,0,78,-49,-40,34,-143,-106,-113,-90,-120
-85,-88,-5,78,-49,-40,34,-149,-106,-119,-90,-120
-85,-88,-5,78,-43,-40,34,-149,-112,-125,-90,-120
-85,-88,-5,78,-43,-40,34,-149,-112,-125,-90,-120
-85,-88,-11,78,-37,-46,34,-149,-118,-125,-90,-120
-85,-88,-17,78,-31,-52,34,-149,-124,-125,-90,-120
-85,-88,-17,78,-31,-52,34,-155,-124,-125,-96,-120
-85,-94,-17,78,-31,-52,34,-155,-124,-125,-96,-120
-85,-94,-17,78,-31,-52,34,-155,-124,-125,-96,-120
-85,-94,-17,78,-31,-52,34,-155,-124,-125,-96,-120
-85,-94,-17,78,-31,-52,34,-155,-124,-125,-96,-120
-85,-94,-17,78,-31,-52,34,-155,-124,-125,-96,-120
-85,-94,-17,78,-31,-52,34,-155,-124,-125,-96,-120
-85,-94,-17,78,-31,-52,34,-155,-124,-125,-96,-120
-85,-94,-17,78,-31,-52,34,-155,-124,-125,-96,-120
-85,-94,-17,78,-31,-52,34,-155,-124,-125,-96,-120
-85,-94,-17,78,-31,-52,34,-155,-124,-125,-96,-120
-85,-94,-17,78,-31,-52,34,-155,-124,-125,-96,-120
-85,-94,-17,78,-31,-52,34,-155,-124,-125,-96,-120
-85,-94,-17,78,-31,-52,34,-155,-124,-125,-96,-120
-85,-94,-17,78,-31,-58,34,-155,-124,-125,-96,-120
-91,-94,-17,84,-37,-58,34,-155,-124,-125,-96,-120
-91,-94,-11,84,-43,-58,34,-155,-124,-131,-96,-120
-91,-94,-11,84,-43,-52,34,-155,-124,-137,-96,-126
-91,-94,-11,84,-43,-52,46,-143,-124,-143,-102,-132
-91,-100,-11,90,-43,-58,82,-113,-124,-149,-108,-138
-97,-106,-11,96,-49,-58,124,-77,-124,-155,-120,-144
-109,-106,12,102,-61,-52,154,-53,-118,-161,-126,-150
-115,-100,36,102,-73,-40,178,-23,-106,-161,-132,-156
-115,-88,42,96,-79,-28,196,30,-70,-149,-132,-156
-109,-70,42,84,-79,-22,220,138,13,-101,-96,-144
-85,-10,54,42,-79,19,250,252,139,6,5,-90
-55,103,102,-29,-79,109,280,360,265,144,125,0
-19,199,156,-95,-79,175,298,432,379,258,233,101
22,271,186,-155,-73,223,310,450,463,360,329,191
118,331,186,-227,-49,247,304,450,541,486,437,287
226,427,186,-323,4,277,220,450,649,642,581,419
334,529,186,-437,52,337,16,450,757,822,761,593
472,637,186,-557,130,379,-217,444,889,1014,947,767
580,703,174,-641,196,409,-397,432,997,1164,1085,887
616,733,162,-671,226,415,-517,432,1105,1260,1163,947
628,733,120,-671,256,415,-595,444,1207,1302,1181,959
616,661,66,-641,268,361,-649,444,1213,1296,1169,947
520,511,24,-509,268,265,-679,378,1099,1092,995,839
442,373,-35,-407,268,163,-685,198,775,732,713,659
388,283,-65,-341,256,109,-679,-29,445,378,455,479
304,223,-71,-269,220,79,-607,-209,199,150,263,347
184,175,-59,-185,130,73,-499,-335,43,6,137,227
88,115,-29,-107,58,67,-403,-401,-52,-71,41,125
52,19,-29,-41,40,25,-307,-407,-82,-101,-6,47
40,-46,-71,0,40,-58,-253,-395,-94,-113,-36,-12
34,-100,-107,30,52,-100,-211,-353,-100,-119,-54,-54
28,-118,-125,36,64,-118,-181,-311,-100,-119,-60,-72
22,-118,-125,42,64,-124,-151,-263,-100,-119,-60,-78
16,-118,-119,42,64,-124,-121,-215,-100,-113,-60,-78
16,-106,-107,42,64,-112,-91,-173,-100,-107,-60,-78
16,-94,-107,42,64,-100,-61,-143,-94,-101,-60,-78
16,-94,-107,42,64,-100,-31,-113,-88,-95,-54,-78
10,-94,-101,42,58,-100,-19,-101,-82,-89,-54,-78
-2,-94,-89,42,40,-94,-7,-95,-82,-89,-54,-78
-13,-94,-77,48,28,-88,4,-95,-82,-89,-54,-78
-19,-94,-65,48,16,-82,10,-95,-82,-89,-54,-78
-25,-88,-53,48,10,-76,16,-95,-82,-89,-54,-84
-25,-88,-53,48,10,-76,22,-95,-82,-89,-54,-90
-25,-88,-53,48,10,-76,28,-95,-82,-89,-54,-90
-31,-88,-53,54,10,-76,28,-95,-88,-95,-54,-96
-37,-88,-47,54,4,-70,34,-95,-88,-95,-54,-102
-43,-88,-47,60,4,-70,40,-95,-88,-95,-54,-102
-43,-88,-47,60,4,-70,40,-95,-88,-95,-54,-102
-43,-88,-47,60,4,-70,40,-95,-88,-95,-54,-102
-37,-88,-47,60,4,-70,40,-95,-88,-95,-54,-102
-37,-88,-47,60,4,-70,40,-95,-88,-95,-54,-102
-49,-88,-41,66,-1,-70,46,-89,-88,-95,-54,-102
-55,-88,-35,66,-7,-70,52,-89,-88,-95,-54,-102
-61,-88,-29,66,-13,-70,52,-89,-88,-95,-54,-102
-67,-88,-29,66,-13,-70,52,-83,-88,-95,-54,-102
-67,-88,-29,66,-13,-70,52,-83,-88,-95,-54,-102
-67,-88,-29,66,-13,-70,52,-83,-88,-95,-54,-102
-67,-82,-29,66,-13,-64,52,-83,-88,-95,-54,-102
-67,-82,-29,66,-13,-64,52,-83,-88,-95,-54,-102
-67,-82,-29,66,-13,-64,52,-83,-88,-95,-54,-102
-61,-82,-29,66,-13,-64,52,-83,-94,-95,-60,-102
-61,-82,-29,66,-13,-64,52,-83,-94,-95,-60,-102
-61,-82,-29,66,-13,-64,52,-83,-94,-95,-60,-102
-61,-76,-23,66,-13,-64,52,-83,-94,-95,-60,-102
-61,-76,-23,66,-13,-64,52,-83,-94,-95,-60,-102
-55,-76,-23,66,-7,-64,52,-83,-94,-95,-60,-102
-49,-76,-23,60,-1,-64,52,-83,-94,-95,-60,-102
-49,-76,-23,60,-1,-64,52,-83,-94,-95,-60,-102
-49,-76,-23,60,-1,-64,52,-77,-94,-95,-60,-102
-49,-76,-29,60,-1,-64,52,-71,-94,-95,-60,-102
-49,-76,-35,60,-1,-64,52,-65,-94,-95,-60,-102
-49,-76,-35,60,-1,-64,52,-59,-94,-95,-60,-102
-49,-76,-35,60,-1,-64,52,-59,-88,-95,-60,-102
-49,-76,-35,60,-1,-64,52,-59,-88,-95,-60,-102
-49,-76,-35,60,-1,-64,52,-59,-88,-95,-60,-102
-49,-76,-35,60,-1,-64,52,-53,-88,-95,-60,-102
-49,-76,-35,60,-1,-58,52,-53,-82,-89,-60,-102
-49,-70,-29,60,-1,-58,52,-53,-82,-89,-60,-102
-49,-70,-29,60,-1,-58,52,-47,-82,-89,-60,-96
-49,-70,-29,60,-1,-58,52,-47,-82,-89,-60,-96
-49,-70,-29,60,-1,-58,52,-47,-82,-89,-60,-96
-49,-64,-29,60,-1,-52,52,-47,-82,-89,-60,-96
-49,-64,-29,54,-1,-52,58,-47,-82,-89,-60,-96
-49,-64,-29,54,-1,-52,58,-47,-76,-89,-60,-90
-49,-64,-29,54,-1,-52,58,-41,-70,-89,-60,-90
-43,-64,-35,54,4,-52,58,-41,-70,-89,-54,-84
-37,-64,-35,54,4,-52,58,-35,-70,-83,-54,-84
-37,-58,-29,54,4,-46,58,-35,-70,-83,-54,-84
-37,-52,-23,48,4,-40,58,-35,-70,-83,-48,-84
-37,-52,-23,48,4,-40,58,-35,-64,-77,-42,-78
-37,-52,-23,48,4,-40,58,-29,-58,-71,-36,-72
-37,-52,-23,48,4,-40,58,-23,-58,-65,-36,-66
-31,-52,-23,48,4,-40,58,-23,-58,-59,-30,-66
-25,-52,-29,48,4,-40,58,-23,-58,-59,-30,-66
-19,-52,-29,42,4,-40,58,-17,-58,-59,-30,-66
-19,-52,-29,42,4,-40,58,-11,-52,-59,-24,-60
-19,-52,-29,42,4,-40,58,-5,-40,-53,-18,-54
-19,-52,-29,42,4,-40,58,0,-34,-47,-18,-48
-19,-52,-29,36,10,-40,58,0,-34,-47,-18,-48
-19,-46,-29,36,10,-34,58,0,-28,-47,-12,-48
-19,-46,-29,36,10,-34,58,6,-28,-41,-6,-42
-19,-46,-29,36,10,-34,58,6,-28,-41,-6,-36
-13,-46,-29,36,10,-34,58,12,-22,-35,-6,-36
-7,-46,-29,36,10,-34,52,12,-16,-29,-6,-36
-7,-40,-29,30,10,-34,52,12,-16,-29,-6,-30
-7,-40,-29,30,10,-34,52,18,-10,-23,-1,-24
-7,-40,-29,30,10,-34,52,24,-4,-17,5,-18
-2,-28,-29,24,10,-34,46,24,1,-17,11,-12
4,-22,-29,18,16,-34,40,24,1,-17,11,-12
10,-16,-29,12,16,-34,40,24,7,-11,17,-6
16,-16,-29,6,22,-34,34,30,7,-5,23,0
22,-16,-29,0,22,-28,34,30,7,0,23,5
28,-16,-29,0,22,-28,34,30,7,6,23,11
34,-16,-29,-5,28,-28,28,30,7,6,23,11
40,-16,-35,-11,34,-28,22,30,7,6,23,11
46,-10,-35,-17,40,-28,22,36,7,12,29,11
46,-4,-41,-23,46,-28,22,42,7,12,29,17
46,-4,-41,-23,46,-28,22,48,13,18,35,23
46,-4,-41,-23,46,-28,22,54,19,24,47,29
46,7,-41,-23,46,-28,16,54,25,24,53,29
46,19,-35,-23,40,-16,16,60,31,30,59,35
46,19,-29,-23,40,-16,16,66,37,42,65,47
46,19,-29,-23,40,-16,16,72,43,54,71,59
46,25,-23,-29,34,-10,10,78,49,60,77,65
46,31,-23,-35,34,1,4,78,49,66,77,71
46,31,-23,-41,34,1,-2,84,55,72,83,77
52,31,-23,-47,40,1,-2,84,55,78,89,83
58,31,-23,-53,40,1,-7,90,61,84,95,89
64,31,-29,-59,46,1,-13,96,67,90,101,95
70,43,-29,-65,46,1,-19,96,67,96,107,101
76,49,-29,-65,46,7,-31,96,67,102,113,107
88,49,-29,-71,58,7,-37,102,67,108,119,113
100,55,-29,-77,64,7,-43,102,67,114,125,119
112,61,-35,-83,70,7,-49,108,67,120,131,125
118,61,-41,-83,76,7,-55,108,73,126,137,131
124,67,-41,-89,76,13,-61,108,79,132,143,137
124,73,-41,-95,76,19,-67,108,85,138,149,143
130,79,-41,-101,82,19,-73,108,85,138,155,149
130,85,-41,-107,88,19,-79,114,91,138,161,155
136,91,-41,-107,88,19,-85,114,91,150,167,161
136,91,-41,-107,88,19,-85,114,97,156,173,167
136,97,-41,-113,88,25,-91,120,97,162,179,173
142,103,-41,-119,88,31,-97,120,97,162,185,179
148,103,-47,-119,88,31,-97,120,97,168,191,185
148,103,-47,-119,88,31,-97,126,103,174,191,191
148,109,-47,-125,88,43,-103,126,103,180,191,197
148,121,-47,-137,88,49,-109,126,103,180,191,197
154,127,-47,-143,88,55,-115,126,103,180,191,197
166,127,-53,-149,100,55,-121,126,103,180,191,197
178,127,-59,-149,106,49,-121,126,103,180,197,203
178,127,-59,-149,106,49,-121,126,103,180,197,203
178,127,-59,-155,106,49,-121,126,103,180,197,203
178,127,-65,-155,112,49,-121,126,103,180,197,203
178,127,-65,-155,112,49,-121,126,103,180,197,203
178,133,-59,-155,112,49,-127,126,103,180,197,203
178,133,-59,-155,118,49,-127,126,103,180,197,203
178,133,-59,-155,118,49,-127,126,103,180,197,209
178,133,-59,-155,118,49,-127,126,103,180,197,209
178,133,-59,-155,118,49,-127,126,103,180,197,209
178,133,-59,-155,112,49,-127,126,103,180,197,209
172,133,-59,-149,106,49,-127,126,103,180,197,209
166,127,-59,-143,106,49,-127,126,103,180,197,209
160,121,-59,-143,106,43,-127,126,103,180,197,209
160,115,-59,-137,106,43,-121,126,103,180,197,209
160,109,-59,-131,106,37,-115,120,97,174,191,203
154,109,-59,-131,106,37,-109,108,91,162,179,197
142,109,-59,-125,100,37,-103,102,85,150,167,191
136,109,-53,-119,94,37,-97,96,79,138,155,185
130,103,-53,-119,94,31,-91,90,73,132,143,173
124,91,-53,-113,94,25,-85,84,73,126,137,167
118,79,-53,-107,94,19,-79,78,67,120,131,161
118,73,-53,-101,94,19,-73,78,61,108,125,155
106,67,-53,-89,82,19,-67,78,61,102,119,149
94,61,-47,-77,64,19,-55,78,61,96,113,143
82,55,-47,-71,58,19,-43,72,55,84,107,137
70,49,-47,-65,46,19,-31,66,49,72,95,131
58,43,-41,-53,34,19,-19,60,49,66,89,125
46,31,-35,-41,28,13,-13,54,49,60,83,119
40,25,-35,-35,28,13,-7,48,43,48,71,113
34,19,-35,-29,28,13,-2,42,37,36,65,107
22,13,-29,-23,22,13,4,36,31,30,59,101
10,7,-17,-11,10,13,10,30,25,24,53,101
10,7,-17,-5,4,13,10,24,19,12,47,95
10,1,-23,-5,4,1,10,18,13,0,29,83
10,-4,-35,-5,4,-10,10,12,7,-11,17,77
-2,-10,-35,6,4,-10,16,6,7,-11,11,77
-13,-10,-23,12,-7,-10,22,0,7,-11,5,77
-25,-10,-11,18,-13,-10,28,0,7,-11,-1,71
-31,-10,-5,18,-13,-10,28,-5,1,-17,-12,65
-31,-16,-5,24,-13,-10,28,-11,-4,-23,-18,65
-31,-28,-11,30,-13,-16,28,-11,-10,-23,-24,65
-31,-34,-11,30,-13,-22,34,-17,-10,-23,-30,65
-37,-34,-5,36,-19,-22,34,-17,-10,-23,-30,65
-49,-34,6,42,-31,-22,34,-17,-10,-29,-30,65
-61,-34,6,42,-37,-22,34,-17,-10,-29,-30,59
-61,-34,6,42,-37,-22,34,-23,-16,-29,-30,53
-61,-34,6,42,-37,-22,34,-23,-16,-35,-30,53
-61,-34,6,42,-37,-22,34,-23,-16,-35,-30,53
-61,-34,6,42,-37,-22,34,-23,-22,-35,-36,53
-61,-34,6,42,-37,-22,34,-23,-22,-35,-36,53
-61,-34,6,42,-37,-22,34,-23,-22,-35,-36,53
-61,-34,6,42,-37,-22,34,-23,-22,-35,-36,53
-61,-34,0,42,-37,-22,34,-23,-22,-35,-36,53
-55,-34,-5,42,-31,-22,34,-23,-22,-35,-36,53
-55,-34,-5,42,-31,-22,34,-23,-22,-35,-36,53
-55,-34,-5,42,-31,-22,34,-23,-22,-35,-36,53
-55,-34,0,48,-31,-22,34,-23,-22,-35,-36,53
-55,-34,6,48,-37,-22,34,-23,-22,-35,-36,53
-55,-34,6,48,-37,-22,34,-23,-22,-35,-36,53
-55,-34,0,48,-31,-22,34,-23,-22,-35,-36,53
-55,-34,0,48,-31,-22,34,-23,-22,-35,-36,53
-55,-34,0,48,-31,-22,34,-23,-22,-35,-36,53
-55,-34,0,48,-31,-22,40,-23,-22,-35,-36,53
-55,-34,0,48,-31,-22,40,-23,-22,-35,-36,53
-55,-34,0,48,-31,-22,40,-23,-22,-35,-36,53
-55,-34,0,48,-31,-22,40,-23,-22,-35,-36,53
-55,-34,0,48,-31,-22,40,-23,-22,-35,-36,53
-55,-34,0,48,-31,-22,40,-23,-22,-35,-36,53
-55,-34,0,48,-31,-22,40,-23,-22,-35,-36,53
-55,-34,0,48,-31,-22,46,-23,-22,-35,-36,53
-61,-34,6,48,-37,-22,46,-17,-22,-35,-36,53
-67,-34,18,48,-43,-16,52,-11,-22,-35,-36,53
-67,-34,18,48,-43,-16,52,-5,-16,-35,-36,53
-61,-34,18,48,-43,-16,52,-5,-16,-35,-36,53
-61,-34,18,48,-43,-16,52,-5,-16,-35,-36,53
-61,-34,18,48,-43,-16,52,-5,-16,-35,-36,53
-61,-34,18,48,-43,-16,58,-5,-16,-35,-36,53
-61,-34,18,48,-43,-16,58,-5,-16,-35,-36,53
-61,-34,18,48,-43,-16,58,-5,-16,-35,-36,53
-61,-34,18,48,-43,-16,58,-5,-16,-35,-36,53
-61,-40,18,48,-43,-16,58,-5,-16,-35,-36,53
-61,-46,18,48,-43,-16,58,0,-16,-35,-36,53
-61,-46,18,48,-43,-16,58,6,-16,-35,-36,53
-61,-46,18,48,-43,-16,58,6,-16,-35,-36,53
-61,-46,18,48,-43,-16,58,6,-16,-35,-36,53
-61,-46,18,48,-43,-16,58,6,-16,-35,-36,53
-61,-46,12,48,-43,-22,58,6,-16,-35,-36,53
-61,-46,12,48,-43,-22,58,6,-16,-35,-36,53
-61,-46,12,48,-43,-22,58,6,-16,-35,-36,53
-61,-46,12,48,-43,-22,58,6,-16,-35,-36,53
-61,-46,12,48,-43,-22,64,6,-16,-35,-36,53
-61,-46,24,48,-49,-22,64,6,-16,-35,-36,53
-61,-46,24,48,-49,-22,64,6,-16,-35,-36,53
-61,-46,18,48,-43,-22,64,6,-16,-35,-36,53
-55,-46,6,48,-37,-28,64,6,-16,-35,-36,53
-55,-52,-5,48,-31,-34,64,6,-16,-35,-36,53
-55,-52,-5,48,-31,-34,64,6,-16,-35,-36,53
-55,-52,-5,48,-31,-34,64,6,-16,-35,-36,53
-55,-52,6,48,-37,-28,64,6,-16,-35,-36,53
-55,-52,6,48,-37,-28,64,6,-16,-35,-36,53
-49,-52,0,48,-37,-28,64,6,-16,-35,-36,53
-49,-52,0,48,-37,-28,64,6,-22,-35,-36,53
-49,-52,6,48,-43,-28,64,6,-22,-35,-36,53
-49,-52,6,48,-43,-28,64,6,-22,-35,-36,53
-49,-52,6,48,-43,-28,64,0,-28,-35,-36,53
-49,-52,-5,48,-37,-28,64,-5,-34,-41,-36,53
-49,-52,-5,48,-31,-28,58,-11,-40,-47,-42,53
-49,-52,-5,48,-31,-28,58,-17,-40,-47,-48,53
-49,-52,-5,48,-31,-28,58,-23,-40,-47,-48,53
-49,-52,-11,48,-25,-34,58,-23,-40,-47,-48,53
-43,-52,-11,48,-25,-34,58,-29,-40,-53,-54,53
-37,-52,-11,48,-25,-34,58,-29,-40,-53,-54,53
-37,-52,-11,48,-25,-34,58,-29,-40,-53,-54,53
-37,-52,-11,48,-25,-34,58,-29,-46,-53,-54,47
-37,-52,-11,48,-25,-34,58,-29,-52,-53,-60,47
-49,-52,-5,48,-31,-34,58,-29,-52,-53,-60,47
-61,-52,0,48,-37,-34,58,-29,-52,-53,-60,47
-67,-52,0,48,-37,-34,58,-29,-52,-53,-60,47
-67,-52,6,48,-37,-28,58,-35,-52,-53,-60,47
-67,-52,6,48,-37,-28,52,-41,-52,-53,-60,47
-67,-52,6,48,-37,-28,52,-47,-52,-59,-60,47
-67,-52,6,48,-37,-28,52,-47,-58,-65,-60,47
-67,-52,6,48,-37,-28,52,-47,-58,-65,-60,47
-67,-52,6,48,-37,-28,52,-53,-64,-65,-60,47
-61,-52,6,48,-37,-28,46,-53,-70,-65,-60,47
-61,-52,6,42,-31,-28,40,-59,-76,-71,-66,41
-61,-52,6,42,-31,-28,34,-59,-82,-77,-72,35
-61,-52,6,42,-31,-28,34,-59,-82,-77,-72,35
-61,-52,6,42,-31,-28,34,-59,-82,-77,-72,35
-61,-52,6,42,-31,-28,34,-59,-82,-77,-72,35
-61,-52,6,42,-31,-28,34,-59,-82,-77,-72,35
-61,-52,6,42,-31,-28,34,-59,-82,-77,-72,35
-61,-52,6,42,-31,-28,34,-59,-82,-77,-72,35
-61,-52,6,42,-31,-28,34,-59,-82,-77,-72,35
-61,-52,6,42,-31,-28,34,-59,-82,-77,-72,35
-61,-52,6,42,-31,-28,34,-59,-82,-77,-72,35
-61,-52,6,42,-31,-28,34,-59,-82,-77,-72,35
-61,-52,6,42,-31,-28,34,-59,-82,-77,-72,35
-61,-52,6,42,-31,-28,34,-59,-82,-77,-72,35
-61,-52,6,42,-31,-28,34,-59,-82,-77,-72,35
-61,-52,6,42,-31,-28,34,-65,-82,-77,-72,35
-55,-52,0,42,-25,-28,34,-71,-82,-77,-72,35
-43,-52,-11,42,-19,-34,34,-71,-82,-77,-72,35
-37,-52,-11,42,-19,-34,34,-71,-82,-77,-72,35
-37,-46,-5,42,-19,-28,34,-71,-82,-77,-72,35
-43,-40,24,42,-31,-16,40,-71,-82,-77,-66,35
-55,-34,54,42,-49,7,46,-65,-76,-77,-66,41
-55,-22,60,42,-55,19,52,-59,-70,-77,-66,41
-49,-16,54,36,-49,19,52,-59,-70,-77,-66,41
-43,-16,42,30,-43,19,52,-59,-70,-77,-66,41
-43,-16,42,30,-43,19,58,-53,-64,-77,-60,47
-43,-16,42,30,-43,19,64,-47,-58,-71,-54,53
-43,-16,48,30,-49,19,70,-47,-52,-65,-54,53
-43,-16,48,30,-49,19,76,-47,-52,-65,-48,53
-43,-16,48,30,-49,19,76,-47,-52,-65,-48,53
-37,-10,48,30,-49,19,76,-47,-52,-65,-48,53
-31,1,48,24,-49,25,76,-47,-52,-65,-48,53
-25,7,48,18,-49,25,76,-47,-52,-65,-42,59
-25,13,48,12,-49,25,76,-47,-46,-59,-36,65
-19,19,48,6,-43,31,70,-47,-46,-59,-36,71
-13,25,48,0,-37,31,64,-47,-46,-59,-36,71
-7,25,42,-5,-37,31,58,-47,-46,-59,-36,71
-2,31,42,-11,-31,31,58,-47,-46,-59,-30,77
4,37,42,-23,-31,31,52,-47,-46,-53,-30,77
16,37,30,-23,-19,25,46,-47,-46,-53,-30,77
22,31,12,-23,-7,13,40,-47,-46,-53,-30,77
22,25,6,-23,-1,7,40,-47,-46,-53,-30,77
28,25,6,-23,4,7,34,-47,-46,-53,-30,77
34,25,0,-23,10,7,34,-47,-46,-53,-30,77
34,25,0,-23,10,7,28,-47,-46,-53,-30,77
34,25,-5,-23,10,7,28,-47,-46,-53,-30,77
34,19,-11,-23,16,1,28,-47,-46,-53,-30,77
34,19,-17,-23,22,-4,22,-47,-46,-53,-30,71
34,13,-23,-23,22,-10,16,-47,-46,-53,-30,65
34,7,-23,-17,22,-10,16,-47,-46,-53,-30,59
28,1,-23,-11,22,-16,16,-53,-46,-53,-30,53
22,-4,-23,-5,22,-22,16,-53,-46,-59,-30,53
16,-16,-23,6,22,-28,16,-53,-46,-65,-36,53
4,-28,-23,18,16,-34,16,-53,-52,-71,-42,47
-19,-34,-17,30,4,-34,16,-59,-58,-77,-54,41
-43,-40,-11,42,-19,-34,16,-65,-64,-83,-60,35
-61,-46,-5,54,-31,-34,16,-65,-70,-89,-60,29
-67,-58,-5,60,-31,-34,16,-71,-76,-89,-66,29
-67,-58,-5,60,-31,-34,16,-77,-82,-95,-72,23
-67,-64,-5,60,-31,-34,16,-83,-88,-95,-72,17
-67,-64,-5,60,-31,-34,16,-89,-88,-101,-78,17
-67,-64,-5,60,-31,-34,16,-95,-88,-107,-78,17
-67,-70,-11,60,-31,-34,16,-101,-94,-113,-84,17
-67,-76,-11,66,-31,-40,16,-107,-100,-119,-90,17
-73,-82,-11,72,-31,-46,16,-107,-106,-119,-90,17
-79,-88,-11,78,-31,-46,16,-107,-106,-119,-90,17
-85,-94,-11,84,-31,-46,16,-107,-106,-119,-90,11
-85,-94,-11,90,-31,-46,16,-107,-106,-119,-90,5
-85,-94,-11,90,-31,-46,16,-113,-106,-119,-90,0
-85,-94,-11,90,-31,-46,16,-119,-106,-125,-90,0
-85,-100,-17,90,-31,-52,16,-119,-112,-125,-90,0
-85,-100,-17,90,-31,-52,16,-119,-112,-125,-90,0
-85,-100,-17,90,-31,-58,16,-119,-112,-125,-90,0
-85,-100,-17,90,-31,-58,16,-119,-118,-125,-90,0
-85,-100,-23,90,-31,-58,16,-119,-124,-131,-96,0
-85,-100,-23,90,-31,-58,16,-125,-124,-131,-96,0
-85,-100,-23,90,-31,-58,16,-125,-124,-131,-96,0
-85,-100,-23,90,-31,-58,16,-125,-124,-131,-96,0
-85,-100,-23,90,-31,-58,16,-125,-124,-131,-96,0
-85,-100,-23,90,-31,-58,16,-125,-124,-131,-96,0
-85,-100,-23,90,-31,-58,16,-125,-124,-131,-96,0
-85,-100,-23,90,-31,-58,16,-125,-124,-131,-96,0
-85,-100,-23,90,-31,-58,16,-125,-124,-131,-96,0
-85,-100,-23,90,-31,-58,16,-125,-124,-131,-96,0
-85,-100,-23,90,-31,-58,16,-125,-124,-131,-96,0
-79,-100,-29,90,-25,-58,16,-125,-124,-137,-96,0
-73,-100,-35,90,-19,-64,16,-125,-124,-137,-96,0
-73,-100,-35,90,-19,-64,16,-125,-124,-137,-96,0
-79,-100,-17,90,-31,-64,16,-125,-124,-137,-96,0
-85,-106,-11,90,-37,-64,16,-125,-124,-137,-96,0
-85,-112,-11,90,-37,-64,16,-125,-124,-137,-96,0
-85,-112,-11,90,-37,-64,16,-125,-124,-137,-96,-6
-85,-106,-11,90,-43,-58,16,-125,-124,-137,-102,-12
-85,-106,-11,90,-43,-58,22,-119,-124,-137,-108,-18
-91,-106,-11,90,-43,-58,34,-107,-124,-143,-108,-30
-103,-106,-11,96,-43,-58,64,-77,-124,-149,-114,-42
-115,-106,0,102,-55,-52,100,-41,-124,-161,-126,-54
-127,-106,36,108,-73,-40,142,-11,-112,-161,-132,-54
-133,-100,54,108,-85,-28,172,30,-88,-161,-132,-54
-133,-94,54,108,-85,-28,184,102,-52,-143,-126,-54
-109,-70,54,84,-85,-16,196,192,37,-77,-84,-42
-67,13,60,24,-79,25,226,312,169,48,11,29
-37,127,102,-53,-79,115,256,426,307,174,125,125
-25,211,180,-101,-85,199,292,480,427,300,257,221
-13,277,222,-137,-97,253,298,498,505,408,365,311
100,361,228,-227,-85,289,286,498,577,534,473,407
244,457,222,-347,-1,319,142,498,667,684,617,545
382,565,210,-473,94,355,-67,486,781,870,797,731
514,661,198,-569,154,385,-295,474,895,1044,977,899
580,715,192,-641,184,409,-451,468,1009,1188,1103,1013
598,733,174,-659,208,415,-547,468,1117,1266,1145,1049
610,721,108,-659,232,403,-613,480,1189,1296,1151,1049
598,619,48,-617,238,331,-661,474,1183,1254,1109,1013
520,475,-11,-503,238,241,-691,342,985,966,875,857
448,337,-65,-395,238,145,-697,150,661,600,605,677
370,259,-89,-317,238,97,-685,-59,349,288,377,515
286,217,-89,-245,214,79,-607,-221,145,90,203,383
