,,,,,,,,,,,
2019-09-01 15:32:34,,,,,,,,,,,
,,,,,,,,,,,
I,II,III,aVR,aVL,aVF,V1,V2,V3,V4,V5,V6
-89,-88,-2,88,-45,-45,3,-123,-89,-131,-119,-119
-107,-100,-2,100,-57,-45,3,-129,-95,-143,-125,-137
-101,-76,16,88,-63,-27,9,-117,-77,-131,-113,-119
-95,-82,4,88,-51,-33,9,-99,-77,-125,-119,-113
-89,-106,-13,94,-33,-63,-3,-111,-101,-143,-143,-143
-83,-106,-19,94,-27,-63,-3,-123,-107,-143,-143,-155
-89,-88,-2,88,-45,-45,3,-117,-89,-125,-119,-137
-83,-94,-7,88,-33,-51,-3,-117,-95,-119,-125,-137
-83,-100,-13,88,-33,-57,-3,-123,-89,-125,-119,-131
-89,-100,-7,94,-39,-57,3,-111,-71,-125,-113,-125
-83,-82,-2,82,-39,-39,15,-99,-59,-113,-107,-107
-83,-88,-2,82,-39,-45,-3,-111,-77,-125,-119,-119
-101,-106,-2,100,-45,-57,-3,-123,-95,-137,-125,-131
-83,-94,-7,88,-33,-51,3,-123,-89,-131,-119,-119
-65,-88,-19,76,-21,-57,-3,-129,-119,-149,-131,-131
-95,-76,10,82,-57,-27,3,-117,-107,-125,-107,-113
-113,-76,28,94,-75,-21,3,-111,-83,-107,-83,-95
-107,-94,4,100,-57,-39,3,-111,-83,-113,-101,-107
-113,-106,-2,106,-57,-51,9,-111,-89,-125,-107,-113
-95,-106,-7,100,-39,-57,15,-105,-77,-113,-107,-101
-83,-106,-19,94,-27,-63,9,-117,-77,-119,-107,-107
-65,-100,-31,82,-15,-69,-3,-123,-95,-131,-119,-113
-71,-88,-13,76,-27,-51,-3,-111,-89,-125,-107,-107
-89,-88,-2,88,-45,-45,3,-105,-83,-119,-107,-101
-107,-82,16,94,-63,-27,3,-105,-101,-131,-113,-107
-113,-88,16,100,-69,-33,9,-105,-101,-119,-113,-113
-125,-94,22,106,-75,-33,21,-99,-77,-107,-113,-131
-113,-94,10,100,-63,-39,27,-93,-77,-107,-119,-137
-89,-88,-2,88,-45,-45,21,-93,-65,-119,-119,-137
-77,-94,-13,82,-27,-57,9,-117,-77,-119,-125,-143
-95,-94,-2,94,-45,-45,9,-117,-77,-119,-119,-131
-95,-88,-2,88,-51,-39,15,-105,-89,-131,-119,-131
-89,-88,-2,88,-45,-45,9,-105,-83,-137,-119,-137
-107,-94,4,100,-57,-39,9,-99,-77,-131,-131,-143
-107,-88,10,94,-63,-33,21,-93,-77,-131,-131,-143
-107,-82,16,94,-63,-27,15,-93,-89,-119,-131,-143
-119,-106,4,112,-63,-45,21,-99,-89,-125,-131,-137
-119,-118,-2,118,-57,-57,21,-99,-83,-119,-137,-131
-107,-106,-2,106,-51,-51,21,-99,-71,-113,-125,-131
-107,-118,-7,112,-45,-63,15,-105,-71,-119,-137,-143
-89,-118,-25,100,-27,-75,15,-105,-77,-131,-125,-137
-71,-94,-19,82,-21,-57,21,-105,-77,-125,-113,-119
-89,-88,-2,88,-45,-45,27,-99,-71,-113,-101,-107
-83,-88,-2,82,-39,-45,21,-117,-83,-119,-113,-113
-83,-94,-7,88,-33,-51,21,-111,-83,-119,-107,-101
-101,-94,-2,94,-51,-45,3,-105,-95,-113,-107,-107
-125,-100,16,112,-75,-39,-3,-105,-89,-119,-113,-113
-131,-94,28,112,-81,-27,15,-99,-65,-101,-107,-107
-113,-76,28,94,-75,-21,15,-99,-65,-101,-101,-101
-113,-94,10,100,-63,-39,15,-99,-65,-107,-107,-107
-119,-106,4,112,-63,-45,21,-105,-65,-119,-119,-113
-119,-106,4,112,-63,-45,27,-105,-71,-119,-119,-119
-113,-106,-2,106,-57,-51,27,-105,-83,-125,-119,-119
-113,-106,-2,106,-57,-51,33,-99,-83,-131,-125,-119
-125,-76,40,100,-87,-15,39,-93,-83,-119,-107,-113
-125,-82,34,100,-81,-21,21,-105,-89,-119,-107,-113
-137,-94,34,112,-87,-27,15,-111,-89,-119,-107,-113
-113,-94,10,100,-63,-39,21,-111,-83,-119,-113,-119
-101,-100,-2,100,-51,-51,15,-111,-83,-131,-125,-143
-113,-106,-2,106,-57,-51,21,-99,-77,-125,-125,-143
-83,-88,-2,82,-39,-45,27,-99,-77,-131,-131,-155
-83,-94,-7,88,-33,-51,33,-99,-65,-119,-125,-143
-89,-82,-2,82,-45,-39,27,-105,-83,-125,-119,-131
-95,-94,-2,94,-45,-45,21,-111,-83,-119,-119,-125
-113,-100,4,106,-63,-45,21,-111,-89,-119,-119,-131
-119,-112,-2,112,-63,-51,9,-111,-83,-119,-125,-131
-113,-106,-2,106,-57,-51,3,-117,-101,-131,-137,-137
-107,-106,-2,106,-51,-51,21,-111,-89,-131,-137,-131
-107,-118,-7,112,-45,-63,21,-117,-89,-131,-149,-137
-95,-112,-13,100,-39,-63,9,-123,-83,-125,-137,-125
-89,-106,-13,94,-33,-63,21,-117,-71,-125,-125,-125
-101,-100,-2,100,-51,-51,21,-111,-71,-131,-119,-131
-77,-106,-25,88,-21,-69,9,-117,-95,-131,-125,-137
-83,-106,-19,94,-27,-63,3,-141,-101,-137,-131,-143
-101,-106,-2,100,-45,-57,-3,-141,-101,-143,-137,-149
-95,-118,-19,106,-33,-69,-3,-135,-113,-143,-143,-149
-107,-118,-7,112,-45,-63,-3,-135,-113,-143,-143,-143
-107,-106,-2,106,-51,-51,9,-129,-89,-119,-113,-125
-125,-106,10,112,-69,-45,9,-129,-95,-125,-107,-125
-137,-124,4,130,-75,-57,-3,-129,-95,-131,-113,-125
-119,-124,-2,118,-57,-63,3,-123,-89,-125,-119,-125
-113,-130,-13,118,-45,-75,3,-135,-89,-137,-125,-131
-107,-130,-19,118,-39,-75,9,-129,-101,-137,-131,-119
-95,-100,-2,94,-45,-51,15,-123,-95,-125,-125,-113
-95,-94,-2,94,-45,-45,9,-117,-101,-131,-131,-125
-101,-94,-2,94,-51,-45,21,-111,-83,-125,-119,-119
-119,-76,34,94,-81,-15,45,-81,-59,-101,-101,-107
-131,-64,58,94,-99,-4,69,-57,-35,-71,-89,-83
-101,-34,58,64,-81,2,81,-51,-29,-65,-77,-83
-77,-5,64,40,-75,20,99,-39,-11,-53,-53,-53
-77,-5,70,34,-75,26,117,-39,-6,-35,-41,-47
-83,-5,76,40,-81,32,123,-33,0,-29,-35,-47
-83,-5,82,34,-81,38,129,-21,6,-35,-29,-53
-77,-10,58,40,-69,14,123,-21,-6,-53,-53,-71
-95,-28,58,58,-81,8,105,-39,-17,-65,-71,-83
-89,-10,70,46,-81,20,93,-39,-23,-59,-59,-77
-53,19,76,10,-63,44,105,-15,-6,-35,-35,-47
-41,37,82,4,-63,56,123,-15,6,-17,-17,-35
-65,13,82,16,-75,44,117,-15,6,-23,-23,-41
-65,1,70,22,-69,32,117,2,24,-17,-17,-35
-23,25,52,4,-39,38,117,2,36,-6,-6,-23
-23,49,76,-7,-51,62,99,-4,36,-6,-11,-17
-29,61,94,-7,-63,74,87,-9,30,-11,-11,-11
-29,49,82,-1,-57,62,69,-33,18,-17,-23,-17
-41,43,88,4,-63,62,39,-63,-6,-35,-41,-35
-47,43,94,4,-69,68,9,-81,-17,-41,-35,-35
-47,55,106,4,-75,80,-3,-81,-11,-29,-17,-29
-6,61,70,-19,-39,62,-14,-87,-23,-29,-17,-35
6,49,34,-25,-9,44,-14,-87,-29,-47,-35,-47
0,19,10,-7,-4,14,-14,-81,-17,-53,-47,-47
12,-5,-19,-1,14,-9,-20,-99,-41,-77,-71,-65
-6,-16,-19,4,2,-15,-14,-117,-65,-95,-83,-77
-6,-16,-13,4,-4,-15,-20,-129,-77,-101,-83,-77
0,-22,-31,4,14,-27,-20,-153,-89,-113,-95,-83
-6,-28,-25,10,2,-27,-20,-171,-107,-131,-113,-107
-23,-46,-19,34,-4,-33,-20,-183,-125,-143,-125,-107
-23,-64,-37,40,-4,-51,-20,-177,-125,-137,-125,-95
-29,-88,-55,58,2,-75,-20,-171,-113,-131,-125,-107
-89,-124,-31,106,-27,-81,-3,-147,-95,-113,-113,-113
-113,-130,-13,118,-45,-75,3,-135,-89,-125,-131,-131
-101,-124,-19,112,-39,-75,3,-135,-89,-131,-125,-131
-89,-130,-37,106,-21,-87,-3,-153,-107,-149,-137,-137
-83,-130,-43,106,-15,-87,-8,-159,-125,-167,-161,-149
-65,-118,-49,88,-4,-87,-8,-171,-143,-173,-167,-173
-71,-106,-31,88,-15,-69,-14,-183,-149,-173,-161,-161
-119,-136,-13,124,-51,-75,-14,-189,-155,-185,-179,-173
-149,-172,-19,160,-63,-99,-14,-183,-155,-197,-191,-179
-131,-166,-31,148,-45,-99,-8,-189,-155,-185,-185,-179
-125,-160,-31,142,-45,-99,-3,-183,-149,-179,-167,-167
-149,-166,-13,154,-63,-93,-3,-189,-155,-191,-161,-161
-125,-172,-43,148,-39,-111,-8,-207,-155,-185,-161,-167
-119,-166,-43,142,-33,-105,-3,-207,-155,-191,-161,-173
-161,-178,-13,166,-69,-99,-8,-213,-173,-203,-173,-173
-161,-184,-19,172,-69,-105,-20,-219,-179,-215,-185,-185
-143,-172,-25,154,-57,-99,-8,-207,-179,-203,-173,-179
-143,-172,-25,154,-57,-99,-8,-207,-179,-197,-185,-173
-149,-166,-13,154,-63,-93,-14,-207,-167,-191,-191,-173
-131,-166,-31,148,-45,-99,-14,-201,-167,-179,-179,-173
-155,-178,-19,166,-63,-99,-14,-195,-161,-179,-179,-173
-173,-184,-7,178,-81,-99,-8,-195,-149,-185,-173,-161
-149,-172,-19,160,-63,-99,-14,-195,-149,-179,-167,-161
-137,-160,-19,148,-57,-93,-14,-201,-155,-185,-173,-167
-161,-166,-2,160,-75,-87,-3,-189,-155,-179,-161,-149
-161,-166,-2,160,-75,-87,-3,-189,-149,-173,-167,-155
-161,-172,-7,166,-75,-93,-3,-195,-155,-179,-179,-191
-155,-166,-7,160,-69,-87,-3,-177,-149,-167,-179,-179
-155,-148,-2,148,-81,-69,-3,-165,-137,-149,-161,-155
-149,-160,-7,154,-69,-87,-3,-159,-131,-149,-161,-155
-119,-172,-49,142,-33,-111,-3,-153,-131,-155,-155,-161
-113,-178,-61,142,-21,-123,-8,-129,-113,-143,-155,-155
-107,-184,-73,142,-15,-129,3,-57,-65,-101,-125,-137
-83,-166,-79,124,-4,-123,51,68,6,-41,-89,-107
-71,-130,-55,100,-4,-93,105,236,126,48,-6,-47
-53,-52,-2,52,-27,-27,153,404,270,204,114,48
6,1,-2,-1,2,-4,183,488,384,330,222,132
48,49,-2,-49,20,20,207,554,516,492,342,240
120,121,-2,-121,56,56,183,554,606,666,504,402
252,223,-31,-235,146,92,129,434,612,756,636,522
414,367,-43,-391,230,158,75,242,606,846,768,684
600,523,-73,-559,338,224,-74,74,582,966,924,876
798,667,-133,-727,470,260,-350,-171,444,1002,1032,1032
972,787,-187,-883,578,296,-626,-495,216,948,1062,1122
1164,901,-259,-1027,716,314,-842,-735,24,900,1080,1188
1260,985,-271,-1123,764,356,-1028,-945,-149,774,1008,1152
1212,1039,-175,-1129,698,434,-1178,-1215,-377,528,834,1020
1134,1075,-55,-1105,596,506,-1358,-1569,-683,216,612,864
1002,1063,52,-1033,476,560,-1520,-1971,-1037,-143,348,666
804,991,184,-901,308,590,-1592,-2373,-1373,-551,36,402
648,871,220,-757,212,542,-1604,-2720,-1679,-917,-251,144
600,679,70,-637,260,374,-1592,-2852,-1859,-1151,-485,-53
564,457,-109,-505,338,170,-1466,-2648,-1829,-1229,-629,-221
528,247,-277,-391,404,-9,-1322,-2319,-1715,-1241,-755,-383
402,97,-301,-247,350,-99,-1136,-1953,-1523,-1157,-773,-455
234,43,-193,-139,218,-69,-926,-1599,-1283,-977,-659,-413
132,13,-115,-73,122,-45,-740,-1329,-1073,-809,-563,-359
90,13,-73,-49,80,-21,-614,-1107,-905,-677,-473,-317
48,13,-31,-31,38,-4,-506,-915,-767,-557,-377,-257
24,7,-13,-13,20,-4,-434,-783,-665,-491,-329,-239
18,1,-13,-7,14,-4,-356,-645,-557,-407,-269,-209
6,-5,-19,4,8,-9,-290,-525,-467,-359,-251,-185
-6,-22,-13,10,-4,-21,-236,-453,-401,-335,-245,-179
-29,-34,-2,28,-9,-21,-170,-369,-329,-281,-221,-179
-35,-64,-25,46,-4,-45,-110,-285,-275,-245,-197,-167
-41,-82,-37,58,-4,-63,-74,-237,-233,-215,-173,-155
-47,-76,-25,58,-9,-51,-50,-189,-209,-179,-155,-143
-77,-94,-13,82,-27,-57,-26,-153,-173,-155,-149,-137
-77,-118,-37,94,-15,-81,-32,-159,-173,-173,-155,-143
-65,-118,-49,88,-4,-87,-32,-147,-167,-161,-149,-137
-71,-118,-43,94,-9,-81,-8,-105,-137,-137,-131,-119
-89,-112,-19,100,-33,-69,-3,-93,-119,-137,-119,-107
-107,-124,-13,112,-45,-69,9,-81,-107,-143,-119,-107
-119,-118,-2,118,-57,-57,15,-63,-107,-143,-119,-113
-137,-118,10,124,-75,-51,33,-45,-83,-125,-107,-101
-131,-106,16,118,-75,-39,45,-33,-77,-119,-119,-119
-131,-112,10,118,-75,-45,51,-33,-77,-119,-137,-143
-149,-130,10,136,-81,-57,39,-33,-89,-113,-131,-137
-143,-130,4,136,-75,-57,33,-39,-89,-113,-131,-137
-131,-124,-2,124,-69,-57,45,-33,-83,-107,-113,-131
-131,-130,-2,130,-63,-63,57,-9,-71,-107,-119,-143
-149,-142,-2,142,-75,-69,51,-4,-53,-107,-119,-143
-137,-136,-2,136,-69,-69,69,2,-35,-113,-125,-131
-119,-124,-2,118,-57,-63,75,14,-35,-113,-125,-131
-125,-130,-2,124,-57,-69,75,14,-29,-101,-119,-119
-125,-136,-7,130,-57,-75,63,-4,-41,-95,-113,-119
-119,-136,-13,124,-51,-75,63,-4,-41,-95,-107,-113
-119,-136,-13,124,-51,-75,57,2,-47,-83,-89,-101
-101,-142,-37,118,-27,-93,63,8,-35,-77,-89,-95
-119,-130,-7,124,-51,-69,69,26,-23,-71,-89,-89
-125,-136,-7,130,-57,-75,75,38,-6,-71,-95,-95
-95,-136,-37,112,-27,-87,81,50,-6,-65,-77,-95
-89,-130,-37,106,-21,-87,87,56,-6,-77,-89,-89
-119,-124,-2,118,-57,-63,87,56,-6,-77,-83,-95
-95,-118,-19,106,-33,-69,93,56,0,-65,-77,-89
-83,-106,-19,94,-27,-63,69,56,-6,-65,-77,-89
-83,-106,-19,94,-27,-63,75,56,-6,-53,-77,-83
-119,-124,-2,118,-57,-63,81,74,-6,-47,-65,-71
-131,-118,4,124,-69,-51,87,92,6,-29,-53,-53
-101,-100,-2,100,-51,-51,87,98,18,-17,-41,-47
-83,-100,-13,88,-33,-57,87,110,18,-23,-47,-53
-77,-94,-13,82,-27,-57,87,110,24,-29,-47,-59
-77,-88,-7,82,-33,-51,99,122,36,-17,-47,-59
-83,-88,-2,82,-39,-45,105,134,48,-6,-47,-53
-89,-88,-2,88,-45,-45,111,152,60,-6,-47,-47
-83,-94,-7,88,-33,-51,93,152,54,-6,-41,-41
-77,-88,-7,82,-33,-51,93,164,60,0,-35,-47
-77,-82,-2,76,-33,-45,87,158,66,6,-23,-35
-65,-88,-19,76,-21,-57,75,158,48,6,-29,-35
-59,-88,-25,70,-15,-57,87,164,60,12,-11,-29
-53,-76,-19,64,-15,-51,87,182,72,18,-6,-23
-41,-64,-19,52,-9,-45,93,194,84,18,-6,-6
-47,-64,-13,52,-15,-39,111,212,96,12,-6,-11
-53,-64,-7,58,-21,-39,117,212,108,24,-6,-11
-29,-52,-19,40,-4,-39,105,212,108,36,0,-17
-6,-46,-43,22,14,-45,99,224,102,42,0,-11
-17,-40,-19,28,-4,-33,111,236,126,54,6,-11
-47,-46,-2,46,-21,-21,105,236,120,54,12,-11
-47,-64,-13,52,-15,-39,111,236,120,48,0,-6
-23,-58,-31,40,-4,-45,105,254,132,54,6,-6
-6,-40,-43,16,14,-39,117,278,150,66,12,-6
-6,-46,-49,16,20,-45,111,284,156,60,18,0
-11,-34,-19,22,-4,-27,117,296,162,72,24,6
-6,-16,-13,4,-4,-15,111,302,162,84,48,18
0,-5,-13,4,2,-9,117,314,162,96,66,30
-6,-5,-2,4,-4,-4,129,338,186,114,84,48
-6,-5,4,4,-4,-4,129,338,198,120,84,48
-6,-5,-2,4,-4,-4,117,350,204,138,90,60
0,-5,-13,4,2,-9,105,350,198,132,78,60
30,-5,-43,-7,32,-21,105,356,210,132,72,54
42,1,-37,-19,38,-9,129,392,234,156,102,78
54,31,-19,-43,38,2,135,416,252,174,114,96
72,19,-49,-43,62,-9,129,428,252,168,108,96
66,13,-49,-37,56,-9,123,434,264,180,114,96
48,25,-19,-37,32,-4,141,464,282,204,138,120
60,49,-7,-55,32,14,135,482,300,228,162,138
72,67,-2,-67,38,26,141,506,312,240,162,150
54,61,-2,-55,20,32,153,536,324,258,186,156
60,67,-2,-61,26,32,147,548,336,276,204,180
84,85,-2,-85,38,38,153,566,360,294,222,186
90,97,-2,-91,38,50,165,602,384,306,234,192
78,97,10,-85,26,56,159,632,402,306,234,186
84,103,10,-91,32,56,171,650,414,318,246,198
102,115,4,-109,44,62,171,662,432,336,258,210
102,121,10,-109,38,68,183,686,444,354,276,216
102,139,28,-121,32,86,177,704,450,366,276,216
108,151,34,-127,32,92,177,722,468,384,288,228
132,157,16,-145,50,86,165,728,468,396,306,234
156,163,-2,-157,74,80,165,746,480,414,312,252
150,175,16,-163,62,98,171,776,510,438,336,276
174,181,-2,-175,80,92,171,806,522,444,342,276
192,199,-2,-193,92,98,171,824,546,450,348,294
168,211,34,-187,62,122,201,860,576,480,372,318
168,217,40,-193,56,128,207,884,600,492,384,336
204,229,16,-217,86,122,213,902,612,510,402,348
234,241,-2,-235,116,122,195,896,612,522,408,354
234,247,4,-241,110,128,183,890,612,528,414,354
210,253,40,-235,80,152,195,914,624,558,444,378
234,259,22,-241,98,146,189,920,630,576,456,390
270,283,4,-277,128,146,183,932,648,576,462,390
258,283,16,-271,116,152,195,956,666,588,474,390
246,277,22,-259,110,152,195,968,684,594,474,384
246,301,46,-271,98,176,207,980,702,606,486,396
258,325,58,-289,98,194,213,992,726,624,504,420
246,331,76,-289,80,206,225,998,726,642,516,432
258,337,70,-295,92,206,201,974,720,642,516,444
246,337,82,-289,80,212,201,968,714,642,528,450
240,343,94,-289,68,224,201,956,702,648,540,456
252,355,94,-301,74,230,195,926,696,648,540,462
270,361,82,-313,92,224,183,890,690,636,522,456
288,367,70,-325,104,224,183,872,672,624,534,462
258,367,100,-313,74,236,177,848,666,612,528,462
258,367,100,-313,74,236,183,812,660,594,510,444
258,373,106,-313,74,236,177,770,636,576,492,438
234,355,118,-289,50,236,177,728,612,558,486,426
180,331,148,-253,8,236,171,674,582,534,474,408
168,313,142,-235,8,230,159,614,540,504,438,378
168,307,136,-235,8,224,135,548,492,474,408,354
144,283,136,-217,-4,212,135,512,468,450,402,348
132,259,124,-199,-4,194,123,476,438,414,372,330
132,241,106,-187,8,176,105,428,396,366,330,294
108,223,106,-163,-4,164,105,374,360,318,300,264
108,211,94,-157,2,152,99,320,324,276,264,228
138,211,64,-175,32,140,99,284,288,252,240,192
114,169,46,-139,26,110,81,242,252,204,198,150
66,121,46,-91,2,86,75,212,222,174,156,114
36,115,70,-73,-9,92,69,182,192,144,138,96
6,109,94,-55,-39,104,81,152,168,126,114,72
-6,79,76,-37,-33,80,69,122,132,102,84,66
-6,55,64,-19,-33,56,57,92,114,78,66,54
12,55,34,-31,-4,44,51,62,84,48,42,36
18,31,4,-25,2,20,39,32,60,24,18,24
-11,1,16,4,-15,8,39,14,48,0,0,-6
-29,-5,22,10,-27,2,33,2,36,-6,-11,-17
-6,-5,-2,4,-4,-4,27,-4,18,-29,-17,-29
-35,-16,10,22,-27,-4,39,-9,24,-23,-6,-11
-29,-16,4,22,-21,-4,21,-27,-6,-29,-17,-29
-35,-5,28,16,-33,8,27,-33,-6,-29,-23,-17
-65,-10,46,34,-57,8,33,-45,-6,-35,-23,-29
-83,-40,34,58,-63,-4,27,-57,-17,-53,-35,-41
-89,-52,28,70,-63,-9,21,-63,-35,-65,-53,-59
-83,-52,22,64,-57,-9,21,-69,-29,-71,-59,-59
-101,-64,28,82,-69,-15,21,-75,-29,-89,-65,-59
-107,-70,28,88,-69,-15,21,-75,-47,-95,-77,-77
-101,-52,40,76,-75,-4,21,-81,-53,-95,-83,-83
-101,-58,34,76,-69,-9,27,-81,-41,-89,-65,-71
-83,-58,16,70,-51,-15,33,-81,-47,-95,-77,-89
-89,-58,22,70,-57,-15,15,-111,-77,-107,-95,-101
-95,-76,10,82,-57,-27,3,-111,-83,-107,-95,-101
-89,-82,-2,82,-45,-39,15,-111,-77,-113,-95,-107
-83,-76,-2,76,-45,-33,15,-105,-71,-113,-101,-113
-89,-82,-2,82,-45,-39,9,-105,-83,-131,-107,-113
-83,-82,-2,82,-39,-39,3,-111,-89,-137,-119,-119
-77,-70,-2,70,-39,-33,9,-105,-83,-131,-113,-125
-89,-82,-2,82,-45,-39,9,-105,-77,-131,-107,-113
-101,-82,10,88,-57,-33,9,-111,-83,-125,-101,-107
-101,-76,16,88,-63,-27,15,-111,-83,-113,-101,-101
-95,-82,4,88,-51,-33,15,-105,-83,-107,-95,-95
-89,-88,-2,88,-45,-45,9,-111,-89,-107,-89,-95
-113,-100,4,106,-63,-45,9,-117,-95,-113,-89,-89
-107,-118,-7,112,-45,-63,-3,-117,-95,-119,-95,-101
-77,-94,-13,82,-27,-57,3,-111,-95,-125,-95,-101
-83,-70,4,76,-45,-27,15,-99,-77,-119,-101,-101
-101,-82,10,88,-57,-33,21,-81,-77,-119,-107,-107
-107,-100,-2,100,-57,-45,9,-93,-89,-137,-119,-125
-101,-82,10,88,-57,-33,9,-105,-95,-137,-113,-119
-95,-76,10,82,-57,-27,3,-117,-101,-125,-107,-119
-95,-64,22,76,-63,-15,9,-111,-101,-107,-101,-107
-83,-76,-2,76,-45,-33,9,-111,-89,-107,-95,-113
-95,-94,-2,94,-45,-45,3,-117,-95,-119,-107,-113
-89,-94,-2,88,-39,-51,3,-111,-101,-125,-107,-113
-71,-82,-7,76,-27,-45,3,-105,-95,-131,-101,-101
-47,-70,-19,58,-9,-45,21,-93,-83,-131,-101,-95
-71,-88,-13,76,-27,-51,21,-81,-89,-131,-107,-95
-89,-106,-13,94,-33,-63,9,-105,-89,-137,-119,-113
-71,-94,-19,82,-21,-57,9,-105,-89,-131,-113,-107
-47,-70,-19,58,-9,-45,9,-105,-95,-125,-107,-101
-77,-88,-7,82,-33,-51,15,-99,-89,-113,-95,-101
-107,-124,-13,112,-45,-69,15,-105,-89,-113,-95,-107
-89,-112,-19,100,-33,-69,9,-111,-95,-113,-107,-101
-65,-100,-31,82,-15,-69,3,-105,-89,-119,-107,-107
-95,-100,-2,94,-45,-51,9,-99,-77,-119,-101,-101
-107,-82,16,94,-63,-27,27,-87,-59,-113,-101,-89
-101,-64,28,82,-69,-15,45,-81,-59,-101,-83,-83
-95,-82,4,88,-51,-33,27,-93,-71,-113,-101,-95
-107,-82,16,94,-63,-27,15,-99,-77,-113,-101,-101
-107,-76,22,88,-69,-21,21,-99,-83,-107,-101,-101
-113,-82,22,94,-69,-27,21,-99,-83,-101,-89,-101
-119,-100,10,106,-69,-39,9,-105,-89,-119,-113,-119
-125,-106,10,112,-69,-45,21,-99,-83,-113,-107,-119
-101,-100,-2,100,-51,-51,9,-93,-89,-125,-113,-125
-95,-106,-7,100,-39,-57,21,-81,-83,-119,-107,-119
-113,-94,10,100,-63,-39,27,-75,-65,-113,-101,-101
-89,-76,4,82,-51,-33,27,-81,-65,-113,-95,-101
-71,-82,-7,76,-27,-45,21,-87,-71,-119,-95,-95
-89,-94,-2,88,-39,-51,21,-87,-71,-107,-89,-77
-101,-106,-2,100,-45,-57,9,-87,-77,-107,-89,-83
-95,-94,-2,94,-45,-45,15,-93,-89,-107,-89,-89
-83,-94,-7,88,-33,-51,15,-93,-89,-101,-101,-101
-83,-94,-7,88,-33,-51,21,-93,-89,-107,-107,-107
-89,-100,-7,94,-39,-57,21,-87,-83,-107,-101,-101
-95,-112,-13,100,-39,-63,33,-81,-71,-107,-95,-95
-107,-94,4,100,-57,-39,39,-75,-59,-113,-101,-101
-95,-82,4,88,-51,-33,45,-75,-71,-107,-101,-107
-83,-76,-2,76,-45,-33,39,-75,-65,-101,-95,-101
-83,-82,-2,82,-39,-39,39,-75,-65,-95,-95,-95
-107,-88,10,94,-63,-33,45,-63,-65,-83,-89,-89
-119,-94,16,106,-69,-33,39,-69,-77,-89,-95,-95
-107,-112,-2,106,-51,-57,21,-75,-83,-95,-107,-101
-119,-112,-2,112,-63,-51,27,-69,-71,-89,-101,-95
-107,-100,-2,100,-57,-45,27,-75,-71,-89,-95,-101
-95,-88,-2,88,-51,-39,33,-81,-71,-95,-89,-95
-101,-94,-2,94,-51,-45,33,-81,-65,-107,-95,-95
-107,-94,4,100,-57,-39,33,-69,-65,-107,-101,-101
-89,-76,4,82,-51,-33,27,-63,-65,-101,-107,-107
-95,-88,-2,88,-51,-39,27,-75,-65,-101,-101,-113
-107,-124,-13,112,-45,-69,21,-81,-71,-107,-113,-119
-119,-112,-2,112,-63,-51,15,-93,-89,-113,-119,-125
-119,-112,-2,112,-63,-51,15,-87,-83,-113,-119,-113
-101,-106,-2,100,-45,-57,9,-87,-89,-113,-119,-113
-101,-100,-2,100,-51,-51,27,-81,-71,-107,-107,-101
-71,-88,-13,76,-27,-51,39,-81,-71,-119,-107,-107
-65,-76,-7,70,-27,-45,39,-75,-65,-119,-113,-107
-83,-82,-2,82,-39,-39,39,-81,-65,-125,-119,-119
-95,-94,-2,94,-45,-45,39,-81,-65,-119,-119,-119
-119,-100,10,106,-69,-39,45,-87,-65,-113,-119,-107
-131,-100,22,112,-81,-33,39,-93,-83,-107,-119,-113
-119,-100,10,106,-69,-39,21,-99,-95,-107,-101,-113
-107,-88,10,94,-63,-33,15,-99,-89,-101,-89,-107
-89,-82,-2,82,-45,-39,21,-99,-83,-107,-95,-107
-95,-88,-2,88,-51,-39,21,-99,-83,-113,-101,-113
-95,-100,-2,94,-45,-51,21,-93,-77,-107,-95,-101
-101,-106,-2,100,-45,-57,21,-93,-71,-125,-119,-107
-95,-112,-13,100,-39,-63,27,-93,-77,-137,-131,-119
-83,-100,-13,88,-33,-57,21,-99,-77,-131,-131,-113
-71,-106,-31,88,-15,-69,15,-111,-83,-119,-119,-107
-83,-124,-37,100,-21,-81,9,-111,-95,-119,-125,-113
-107,-124,-13,112,-45,-69,9,-117,-107,-119,-113,-113
-95,-124,-25,106,-33,-75,-3,-123,-107,-125,-119,-113
-107,-130,-19,118,-39,-75,3,-117,-101,-119,-113,-107
-125,-130,-2,124,-57,-69,15,-111,-89,-119,-113,-107
-113,-124,-7,118,-51,-69,15,-99,-83,-119,-107,-95
-107,-106,-2,106,-51,-51,21,-93,-77,-119,-113,-95
-107,-100,-2,100,-57,-45,27,-99,-77,-125,-119,-119
-113,-100,4,106,-63,-45,39,-87,-77,-125,-119,-131
-119,-106,4,112,-63,-45,21,-111,-95,-137,-137,-155
-107,-112,-2,106,-51,-57,15,-117,-101,-137,-137,-161
-119,-112,-2,112,-63,-51,15,-117,-95,-125,-125,-143
-125,-112,4,118,-69,-51,9,-123,-113,-125,-125,-131
-107,-118,-7,112,-45,-63,9,-129,-107,-131,-125,-125
-77,-112,-31,94,-21,-75,3,-123,-107,-143,-125,-119
-71,-106,-31,88,-15,-69,15,-105,-95,-137,-125,-107
-95,-112,-13,100,-39,-63,27,-105,-89,-131,-131,-101
-113,-130,-13,118,-45,-75,27,-105,-83,-137,-131,-107
-119,-130,-7,124,-51,-69,33,-105,-95,-137,-125,-107
-125,-124,-2,124,-63,-63,39,-111,-83,-125,-119,-101
-119,-112,-2,112,-63,-51,45,-99,-89,-107,-101,-101
-101,-82,10,88,-57,-33,51,-87,-77,-89,-89,-101
-89,-70,10,76,-51,-27,63,-69,-59,-83,-77,-83
-83,-58,16,70,-51,-15,69,-69,-53,-77,-71,-77
-89,-34,46,58,-69,-4,93,-57,-35,-59,-53,-71
-89,-16,64,52,-81,14,111,-39,-17,-47,-47,-53
-77,-5,76,34,-75,32,117,-33,-11,-53,-47,-53
-83,-5,82,34,-81,38,111,-33,-11,-71,-59,-65
-53,-5,52,22,-51,20,105,-27,-6,-71,-71,-71
-59,-5,58,22,-57,26,117,-15,-6,-59,-59,-59
-77,-5,70,34,-75,26,111,-15,-11,-59,-59,-59
-65,-5,58,28,-63,20,105,-21,-17,-47,-59,-59
-77,-5,76,34,-75,32,117,-9,-6,-35,-35,-41
-95,-16,70,52,-87,20,117,-4,6,-29,-23,-35
-65,-5,52,34,-63,14,123,-4,6,-29,-29,-29
-53,7,64,16,-57,32,123,14,24,-17,-23,-17
-53,31,88,4,-69,56,111,20,30,-17,-17,-6
-29,55,88,-7,-57,68,81,-4,24,-23,-17,-11
-35,67,106,-7,-69,86,69,-21,12,-29,-17,-6
-41,67,112,-7,-75,86,39,-39,-6,-29,-23,-6
-41,61,106,-1,-75,80,9,-69,-23,-35,-11,-11
-35,55,94,-1,-63,74,-3,-81,-35,-35,-6,-17
-17,73,94,-19,-57,80,-3,-75,-35,-29,-11,-6
0,55,46,-25,-15,50,-8,-69,-29,-35,-23,-11
0,13,4,-7,-4,8,-14,-69,-35,-65,-47,-41
0,-5,-2,4,2,-4,-20,-75,-47,-89,-71,-59
12,-5,-13,-1,14,-4,-14,-81,-53,-95,-83,-59
12,-5,-19,-1,14,-9,-20,-105,-71,-107,-89,-65
-6,-22,-13,10,-4,-21,-14,-123,-89,-119,-101,-71
-35,-34,-2,34,-15,-15,-8,-129,-95,-119,-95,-77
-47,-58,-7,52,-15,-33,-14,-153,-119,-125,-101,-83
-53,-76,-19,64,-15,-51,-38,-171,-137,-143,-125,-101
-65,-100,-31,82,-15,-69,-26,-153,-131,-143,-119,-89
-47,-100,-49,70,-4,-75,-8,-141,-119,-125,-107,-83
-53,-106,-49,76,-4,-81,-3,-129,-107,-125,-113,-95
-107,-136,-25,118,-39,-81,3,-117,-95,-137,-125,-113
-119,-130,-7,124,-51,-69,21,-111,-89,-131,-119,-113
-113,-118,-2,112,-51,-63,15,-111,-107,-137,-125,-125
-155,-142,4,148,-81,-63,3,-135,-119,-155,-143,-137
-161,-148,4,154,-87,-69,-3,-153,-131,-167,-155,-143
-155,-148,-2,148,-81,-69,-3,-159,-143,-167,-149,-131
-137,-154,-13,142,-57,-87,-8,-177,-155,-179,-161,-149
-125,-160,-31,142,-45,-99,-8,-183,-167,-191,-167,-155
-161,-178,-13,166,-69,-99,-3,-177,-167,-191,-167,-155
-155,-178,-19,166,-63,-99,-8,-183,-167,-197,-173,-155
-137,-166,-25,148,-51,-99,-3,-177,-161,-197,-173,-155
-137,-172,-31,154,-51,-105,-3,-183,-155,-209,-179,-161
-155,-184,-25,166,-63,-105,-8,-183,-161,-215,-191,-185
-155,-190,-31,172,-57,-111,-3,-189,-173,-215,-191,-185
-155,-190,-31,172,-57,-111,-3,-195,-173,-209,-191,-185
-173,-190,-13,178,-75,-105,-14,-213,-185,-215,-197,-185
-185,-190,-2,184,-87,-99,-20,-201,-185,-203,-185,-185
-161,-178,-13,166,-69,-99,-20,-201,-179,-197,-185,-173
-125,-166,-37,142,-39,-105,-14,-201,-179,-197,-185,-179
-119,-160,-37,136,-39,-99,-8,-195,-179,-197,-185,-173
-131,-166,-31,148,-45,-99,-14,-183,-167,-197,-185,-179
-155,-184,-25,166,-63,-105,-14,-177,-155,-203,-185,-167
-155,-196,-37,172,-57,-117,-14,-177,-161,-203,-191,-173
-143,-184,-37,160,-51,-111,-8,-171,-155,-191,-185,-167
-137,-184,-43,160,-45,-117,-8,-171,-149,-191,-173,-155
-125,-184,-55,154,-33,-123,-14,-177,-161,-191,-173,-149
-137,-172,-31,154,-51,-105,-8,-165,-155,-167,-155,-137
-167,-166,-2,166,-81,-81,-3,-159,-143,-161,-143,-131
-161,-190,-25,172,-63,-111,-14,-159,-143,-173,-155,-143
-155,-202,-43,178,-51,-123,-8,-129,-131,-161,-143,-131
-143,-202,-55,172,-39,-129,-3,-63,-83,-131,-131,-119
-107,-166,-55,136,-21,-111,45,50,-6,-71,-95,-95
-95,-148,-49,118,-21,-99,93,218,90,0,-35,-71
-71,-112,-37,88,-15,-75,135,362,216,126,42,-6
-11,-46,-31,28,2,-39,171,476,342,264,150,90
30,13,-13,-19,20,-4,195,530,462,408,282,204
96,97,-2,-97,44,44,183,548,558,582,444,348
228,205,-19,-217,122,86,129,476,600,720,588,486
348,325,-19,-337,188,152,81,308,588,804,726,624
486,481,-2,-481,242,236,-20,170,600,954,900,828
720,649,-67,-685,392,284,-278,-39,504,1026,1026,1002
924,775,-145,-847,530,314,-572,-351,312,1002,1092,1122
1086,883,-205,-979,644,338,-800,-585,138,978,1134,1212
1224,973,-247,-1099,734,362,-998,-747,0,936,1134,1260
1236,1027,-211,-1135,728,410,-1178,-987,-191,744,1014,1176
1158,1057,-97,-1105,626,482,-1340,-1317,-491,444,798,1008
1068,1105,28,-1087,512,566,-1502,-1707,-827,96,564,846
930,1081,148,-1003,386,614,-1616,-2097,-1175,-281,276,612
750,967,214,-859,266,590,-1634,-2468,-1493,-695,-53,330
636,805,166,-721,236,482,-1610,-2732,-1751,-1019,-341,84
582,577,-2,-577,290,284,-1532,-2684,-1829,-1175,-521,-95
540,343,-199,-445,368,68,-1406,-2415,-1757,-1229,-671,-275
504,169,-337,-337,422,-81,-1256,-2067,-1613,-1205,-761,-431
378,91,-283,-235,332,-93,-1046,-1719,-1391,-1067,-719,-431
234,49,-181,-139,206,-57,-842,-1443,-1169,-899,-617,-395
144,1,-139,-73,140,-63,-692,-1191,-977,-761,-539,-353
84,7,-73,-43,80,-27,-566,-969,-827,-623,-443,-293
36,7,-25,-19,32,-4,-464,-801,-701,-515,-353,-233
6,-5,-13,4,8,-4,-392,-687,-605,-461,-317,-221
0,-5,-13,4,2,-9,-320,-549,-515,-383,-275,-185
-6,-5,-7,4,-4,-4,-254,-453,-437,-347,-257,-179
-6,-22,-13,10,-4,-21,-188,-369,-359,-305,-239,-167
-23,-34,-7,28,-4,-21,-128,-291,-287,-263,-215,-167
-47,-64,-13,52,-15,-39,-92,-237,-245,-233,-191,-167
-47,-94,-43,70,-4,-69,-68,-195,-221,-221,-191,-167
-101,-94,-2,94,-51,-45,-38,-147,-185,-173,-149,-137
-113,-94,10,100,-63,-39,-26,-135,-173,-161,-137,-125
-107,-100,-2,100,-57,-45,-20,-111,-173,-167,-137,-113
-107,-112,-2,106,-51,-57,-8,-93,-149,-161,-125,-101
-95,-124,-25,106,-33,-75,-8,-81,-149,-161,-137,-113
-95,-124,-25,106,-33,-75,-3,-63,-137,-173,-143,-125
-71,-112,-37,88,-15,-75,15,-45,-113,-161,-137,-119
-65,-88,-19,76,-21,-57,33,-27,-101,-143,-137,-113
-119,-106,4,112,-63,-45,33,-21,-77,-137,-131,-113
-161,-130,22,142,-93,-51,45,-27,-71,-131,-125,-101
-137,-124,4,130,-75,-57,45,-15,-65,-107,-113,-95
-143,-124,10,130,-81,-51,39,-9,-71,-101,-101,-101
-149,-136,4,142,-81,-63,45,-15,-65,-107,-101,-95
-137,-142,-2,136,-63,-75,51,-4,-65,-107,-101,-101
-131,-148,-13,136,-57,-81,51,-4,-59,-107,-113,-107
-113,-136,-19,124,-45,-81,51,8,-53,-119,-125,-125
-101,-112,-7,106,-45,-63,69,26,-35,-125,-125,-125
-89,-94,-2,88,-39,-51,69,32,-29,-107,-113,-125
-95,-100,-2,94,-45,-51,69,26,-29,-107,-119,-119
-107,-124,-13,112,-45,-69,57,20,-35,-119,-131,-131
-101,-130,-25,112,-33,-81,51,20,-29,-101,-119,-119
-131,-118,4,124,-69,-51,63,50,-11,-77,-83,-95
-131,-118,4,124,-69,-51,69,50,-11,-77,-77,-77
-119,-118,-2,118,-57,-57,63,44,-17,-83,-83,-83
-107,-112,-2,106,-51,-57,63,62,-11,-71,-77,-77
-83,-88,-2,82,-39,-45,81,86,-6,-71,-71,-65
-89,-82,-2,82,-45,-39,93,92,12,-77,-89,-71
-89,-100,-7,94,-39,-57,81,86,0,-77,-107,-107
-95,-94,-2,94,-45,-45,81,86,6,-71,-101,-113
-107,-88,10,94,-63,-33,87,92,12,-59,-89,-101
-101,-94,-2,94,-51,-45,87,92,6,-41,-71,-83
-89,-94,-2,88,-39,-51,75,92,12,-35,-53,-77
-101,-94,-2,94,-51,-45,75,104,18,-35,-53,-59
-95,-100,-2,94,-45,-51,81,110,18,-35,-53,-65
-83,-94,-7,88,-33,-51,81,128,30,-23,-47,-59
-53,-70,-13,58,-15,-45,87,134,36,-41,-53,-65
-65,-76,-7,70,-27,-45,87,146,42,-47,-65,-65
-59,-76,-13,64,-21,-45,87,152,48,-35,-59,-65
-65,-64,-2,64,-33,-33,99,158,60,-17,-41,-41
-95,-70,16,82,-57,-21,105,170,72,-6,-29,-41
-95,-88,-2,88,-51,-39,93,182,78,6,-11,-23
-83,-82,-2,82,-39,-39,81,182,72,6,-6,-23
-65,-64,-2,64,-33,-33,75,176,72,6,-6,-17
-47,-58,-7,52,-15,-33,81,188,78,18,-6,-17
-35,-52,-13,40,-9,-33,87,212,84,18,-6,-11
-35,-40,-2,34,-15,-21,93,224,96,6,-11,-11
-41,-40,-2,40,-21,-21,93,230,108,6,-11,-11
-47,-40,-2,40,-27,-15,111,236,126,30,-6,-6
-35,-34,-2,34,-15,-15,105,242,126,30,-6,-11
-53,-46,-2,46,-27,-21,87,236,126,30,0,-6
-65,-40,16,52,-45,-9,93,260,138,66,24,6
-47,-22,16,34,-33,-4,99,266,132,66,30,12
-35,-22,4,28,-21,-4,105,278,132,72,42,24
-47,-34,4,40,-27,-9,93,272,132,72,30,12
-35,-40,-2,34,-15,-21,93,290,144,72,36,12
-6,-5,-2,4,-4,-4,105,308,156,72,30,18
6,13,-2,-7,-4,8,105,326,174,78,36,24
12,7,-2,-7,8,-4,117,338,192,96,42,24
-6,-5,-2,4,-4,-4,111,344,192,96,48,24
-11,-5,-2,4,-9,-4,111,356,204,108,60,36
-6,7,10,4,-4,8,99,356,210,120,66,48
24,25,-2,-25,8,8,93,362,198,126,72,54
36,25,-7,-31,20,2,93,380,216,138,90,72
18,37,10,-25,-4,26,105,410,234,150,108,84
12,25,4,-19,-4,14,117,440,240,162,114,90
12,19,-2,-13,2,8,117,428,234,150,102,72
36,31,-2,-31,20,8,111,440,240,150,96,66
60,43,-13,-49,38,8,111,470,270,180,108,78
36,55,10,-43,8,32,123,494,294,204,138,102
24,67,34,-43,-4,50,135,512,318,216,150,114
24,61,28,-43,-4,44,135,536,336,240,180,144
30,73,34,-49,-4,56,129,548,330,252,186,156
42,85,34,-61,-4,62,123,554,330,258,198,168
72,103,22,-85,20,62,123,584,348,270,210,168
96,127,22,-109,32,74,141,620,372,294,222,186
108,127,10,-115,44,68,141,632,390,288,216,186
102,115,4,-109,44,62,135,650,402,294,216,180
114,115,-2,-115,56,56,147,674,426,312,222,174
102,139,28,-121,32,86,159,710,456,342,246,198
120,169,40,-145,32,104,159,722,474,366,270,216
156,181,16,-169,62,98,153,728,480,390,276,228
150,181,22,-163,56,104,165,746,486,408,300,234
150,175,16,-163,62,98,153,764,486,408,312,240
168,181,4,-175,74,92,159,782,504,426,330,258
180,199,10,-187,80,104,165,806,522,438,336,276
204,217,4,-211,92,110,171,824,546,450,348,282
192,235,34,-211,74,134,177,854,570,462,360,306
204,235,28,-223,80,134,189,872,594,468,360,306
216,247,28,-235,86,140,189,884,606,486,378,318
222,265,40,-241,86,158,195,902,624,516,408,342
228,277,46,-247,86,164,195,920,642,546,432,360
192,283,88,-235,44,188,201,932,654,564,444,372
198,271,70,-235,56,176,195,956,660,570,462,396
240,289,40,-265,98,170,189,956,660,576,462,390
246,295,40,-271,98,170,201,974,684,594,480,414
252,307,46,-277,98,182,201,986,708,588,474,402
282,313,22,-295,128,170,189,968,696,570,450,384
264,319,46,-289,104,188,189,968,708,588,462,396
234,331,88,-283,68,212,189,974,720,612,486,414
246,337,82,-289,80,212,195,968,726,618,504,432
252,337,76,-295,86,212,189,962,726,636,516,438
252,355,94,-301,74,230,195,938,714,642,522,444
210,367,154,-283,20,260,201,938,714,660,552,480
198,373,172,-283,8,272,183,926,708,648,540,480
234,385,142,-307,44,260,183,890,690,630,534,474
258,403,136,-331,56,266,177,854,678,612,522,462
246,391,136,-319,50,260,171,818,666,588,510,450
234,379,136,-307,44,254,171,776,648,564,486,432
216,361,142,-283,32,248,159,728,606,534,468,414
180,331,148,-253,8,236,141,656,570,504,444,390
168,319,148,-241,2,236,135,602,540,480,414,372
168,307,136,-235,8,224,117,548,486,450,396,348
174,301,124,-235,20,218,105,500,450,420,378,336
144,271,124,-211,2,200,105,458,426,384,348,318
138,247,106,-193,8,182,87,404,384,336,306,276
126,235,100,-181,8,170,93,368,360,288,264,252
102,205,94,-151,-4,152,93,332,330,252,234,228
90,193,94,-139,-4,146,75,290,294,234,210,192
66,145,70,-103,-4,110,63,236,258,192,180,174
30,121,82,-73,-21,104,63,194,234,162,162,150
30,115,76,-73,-15,98,51,152,186,138,132,120
-6,91,94,-37,-45,92,45,128,162,120,126,96
-11,55,70,-13,-39,62,21,98,126,78,84,78
-6,49,58,-13,-33,50,15,68,102,54,60,54
-11,37,52,-7,-33,44,15,44,78,30,42,42
-23,25,52,4,-39,38,27,38,66,12,30,30
-6,19,28,-1,-15,20,27,32,60,-6,12,6
-23,7,34,4,-27,20,21,8,42,-6,-6,-6
-47,-5,40,22,-45,14,9,-9,18,-23,-11,-11
-41,-5,34,16,-39,8,9,-33,6,-35,-17,-23
-29,-5,16,16,-27,-4,-3,-39,-6,-41,-23,-29
-47,-10,28,28,-39,2,-3,-51,-11,-41,-29,-41
-53,-22,22,34,-39,-4,-3,-69,-29,-59,-35,-53
-59,-46,4,52,-33,-15,-8,-75,-41,-77,-53,-65
-53,-52,-2,52,-27,-27,-14,-75,-47,-89,-65,-71
-53,-46,-2,46,-27,-21,-14,-81,-53,-107,-83,-83
-53,-52,-2,52,-27,-27,-8,-69,-47,-101,-83,-89
-59,-46,4,52,-33,-15,-3,-69,-47,-101,-89,-77
-71,-52,10,58,-45,-15,-3,-75,-47,-101,-83,-83
-89,-58,22,70,-57,-15,-3,-93,-59,-107,-83,-83
-83,-70,4,76,-45,-27,-14,-105,-71,-107,-83,-83
-83,-46,28,64,-57,-4,-8,-93,-71,-95,-71,-65
-71,-40,22,52,-51,-4,-3,-87,-77,-95,-65,-59
-77,-58,10,64,-45,-21,-14,-99,-89,-107,-89,-77
-77,-70,-2,70,-39,-33,-20,-99,-89,-119,-101,-89
-71,-76,-2,70,-33,-39,-20,-105,-95,-125,-107,-95
-89,-70,10,76,-51,-27,-14,-105,-83,-131,-107,-95
-101,-76,16,88,-63,-27,-3,-99,-77,-125,-107,-95
-101,-88,4,94,-57,-39,-8,-105,-83,-131,-113,-95
-83,-76,-2,76,-45,-33,-20,-117,-89,-131,-113,-101
-47,-64,-13,52,-15,-39,-14,-117,-95,-119,-107,-95
-95,-82,4,88,-51,-33,-8,-111,-95,-107,-89,-83
-113,-94,10,100,-63,-39,-20,-123,-101,-125,-101,-95
-83,-94,-7,88,-33,-51,-26,-123,-107,-125,-101,-95
-83,-82,-2,82,-39,-39,-20,-111,-107,-119,-95,-89
-89,-70,10,76,-51,-27,-8,-105,-95,-119,-101,-89
-77,-76,-2,76,-39,-39,-26,-99,-89,-137,-119,-107
-71,-76,-2,70,-33,-39,-20,-93,-89,-131,-119,-107
-83,-70,4,76,-45,-27,-20,-105,-89,-131,-113,-101
-95,-70,16,82,-57,-21,-14,-111,-89,-125,-101,-83
-83,-76,-2,76,-45,-33,-26,-111,-83,-107,-101,-83
-83,-70,4,76,-45,-27,-26,-123,-107,-113,-101,-101
-95,-76,10,82,-57,-27,-26,-135,-113,-125,-107,-107
-101,-82,10,88,-57,-33,-26,-129,-113,-119,-101,-95
-101,-88,4,94,-57,-39,-26,-111,-101,-113,-95,-89
-89,-88,-2,88,-45,-45,-14,-105,-95,-119,-95,-89
-65,-82,-13,70,-21,-51,-20,-111,-95,-131,-113,-101
-59,-70,-7,64,-21,-39,-14,-99,-83,-125,-107,-95
-77,-82,-2,76,-33,-45,-8,-99,-77,-119,-107,-101
-83,-64,10,70,-51,-21,-3,-117,-89,-119,-107,-107
-77,-58,10,64,-45,-21,-14,-117,-95,-113,-95,-95
-95,-76,10,82,-57,-27,-14,-129,-107,-113,-83,-89
-119,-88,22,100,-75,-27,-14,-123,-107,-107,-95,-89
-113,-82,22,94,-69,-27,-14,-111,-107,-107,-95,-89
-89,-82,-2,82,-45,-39,-14,-105,-101,-113,-95,-95
-77,-82,-2,76,-33,-45,-3,-105,-89,-107,-89,-83
-77,-70,-2,70,-39,-33,-3,-105,-83,-113,-101,-83
-89,-58,22,70,-57,-15,-3,-99,-83,-107,-101,-77
-101,-64,28,82,-69,-15,-3,-93,-77,-107,-89,-71
-101,-76,16,88,-63,-27,-3,-111,-83,-113,-89,-71
-77,-88,-7,82,-33,-51,-14,-123,-101,-113,-107,-83
-83,-94,-7,88,-33,-51,-14,-117,-101,-95,-89,-77
-95,-82,4,88,-51,-33,-3,-105,-95,-89,-77,-89
-95,-58,28,76,-63,-9,-3,-105,-95,-101,-95,-119
-89,-64,16,76,-57,-21,-3,-99,-95,-101,-101,-107
-89,-70,10,76,-51,-27,-3,-99,-89,-107,-107,-107
-65,-70,-2,64,-27,-39,-3,-99,-95,-131,-131,-131
-65,-70,-2,64,-27,-39,-3,-105,-95,-131,-131,-125
-77,-76,-2,76,-39,-39,-3,-93,-95,-119,-119,-107
-95,-82,4,88,-51,-33,-3,-99,-89,-113,-107,-101
-107,-70,28,88,-69,-15,-3,-105,-95,-107,-107,-101
-95,-76,10,82,-57,-27,-14,-117,-113,-107,-107,-107
-113,-100,4,106,-63,-45,-3,-105,-95,-89,-95,-95
-119,-94,16,106,-69,-33,-3,-99,-83,-89,-95,-89
-119,-94,16,106,-69,-33,-3,-93,-89,-95,-101,-89
-113,-82,22,94,-69,-27,-3,-99,-89,-107,-101,-89
-83,-70,4,76,-45,-27,-3,-99,-89,-113,-107,-89
-77,-58,10,64,-45,-21,-3,-105,-77,-107,-95,-83
-107,-82,16,94,-63,-27,-3,-99,-77,-107,-101,-95
-143,-100,34,118,-93,-27,-3,-105,-71,-101,-95,-101
-125,-112,4,118,-69,-51,-3,-111,-83,-101,-101,-107
-83,-70,4,76,-45,-27,-3,-117,-95,-101,-95,-101
-83,-58,16,70,-51,-15,-3,-93,-83,-77,-71,-77
-101,-76,16,88,-63,-27,-3,-105,-83,-65,-77,-83
-77,-94,-13,82,-27,-57,-8,-111,-107,-107,-101,-101
-83,-76,-2,76,-45,-33,-3,-93,-89,-119,-95,-83
-101,-82,10,88,-57,-33,9,-81,-71,-107,-95,-77
-101,-88,4,94,-57,-39,-3,-99,-83,-113,-101,-107
-95,-94,-2,94,-45,-45,-3,-93,-83,-125,-107,-107
-95,-82,4,88,-51,-33,3,-99,-77,-119,-107,-101
-101,-88,4,94,-57,-39,-3,-99,-95,-119,-107,-113
-113,-100,4,106,-63,-45,-3,-93,-101,-107,-107,-119
-107,-112,-2,106,-51,-57,-3,-99,-95,-107,-107,-113
-113,-106,-2,106,-57,-51,3,-111,-95,-113,-107,-107
-107,-106,-2,106,-51,-51,3,-99,-95,-113,-107,-107
-89,-82,-2,82,-45,-39,-3,-93,-95,-119,-107,-107
-89,-82,-2,82,-45,-39,9,-93,-77,-113,-107,-107
-107,-94,4,100,-57,-39,9,-99,-83,-113,-107,-113
-89,-106,-13,94,-33,-63,-3,-105,-101,-119,-113,-107
-83,-88,-2,82,-39,-45,-3,-123,-101,-125,-113,-107
-107,-88,10,94,-63,-33,-3,-105,-95,-107,-95,-101
-137,-94,34,112,-87,-27,-3,-105,-101,-101,-89,-95
-143,-100,34,118,-93,-27,-3,-105,-107,-101,-95,-89
-119,-88,22,100,-75,-27,-3,-111,-101,-101,-101,-95
-95,-82,4,88,-51,-33,-3,-99,-107,-107,-101,-107
-83,-76,-2,76,-45,-33,3,-93,-101,-113,-107,-101
-71,-76,-2,70,-33,-39,9,-93,-89,-119,-113,-119
-89,-76,4,82,-51,-33,15,-87,-83,-113,-107,-107
-95,-70,16,82,-57,-21,9,-93,-77,-113,-107,-101
-101,-70,22,82,-63,-21,3,-111,-89,-119,-107,-107
-125,-88,28,106,-81,-27,9,-117,-101,-107,-89,-95
-137,-94,34,112,-87,-27,9,-117,-101,-101,-89,-89
-119,-94,16,106,-69,-33,-3,-111,-107,-101,-89,-95
-107,-94,4,100,-57,-39,-3,-123,-113,-113,-107,-107
-107,-106,-2,106,-51,-51,-3,-111,-107,-113,-107,-101
-101,-100,-2,100,-51,-51,-3,-105,-101,-119,-113,-107
-101,-106,-2,100,-45,-57,-3,-117,-101,-125,-125,-125
-113,-100,4,106,-63,-45,-3,-117,-95,-125,-119,-125
-125,-112,4,118,-69,-51,3,-123,-95,-119,-113,-119
-89,-82,-2,82,-45,-39,-3,-129,-107,-119,-113,-119
-95,-82,4,88,-51,-33,-3,-117,-101,-95,-107,-113
-113,-106,-2,106,-57,-51,-3,-135,-107,-83,-107,-107
-107,-118,-7,112,-45,-63,-8,-141,-119,-101,-113,-107
-101,-100,-2,100,-51,-51,-3,-135,-119,-107,-113,-107
-83,-82,-2,82,-39,-39,9,-123,-101,-101,-107,-95
-95,-70,16,82,-57,-21,-3,-117,-95,-101,-107,-101
-95,-82,4,88,-51,-33,3,-123,-101,-113,-119,-113
-89,-94,-2,88,-39,-51,-3,-135,-107,-119,-125,-125
-107,-94,4,100,-57,-39,-3,-129,-101,-107,-107,-113
-107,-82,16,94,-63,-27,3,-135,-101,-101,-107,-107
-119,-112,-2,112,-63,-51,3,-135,-95,-83,-101,-101
-101,-94,-2,94,-51,-45,3,-129,-101,-77,-95,-95
-65,-58,-2,58,-33,-27,9,-129,-101,-83,-83,-89
-47,-28,10,34,-33,-4,21,-117,-95,-83,-77,-83
-77,-22,46,46,-63,2,39,-93,-65,-59,-65,-71
-83,-10,64,46,-75,20,51,-75,-53,-59,-71,-71
-89,-5,82,40,-87,32,81,-57,-41,-53,-59,-65
-89,7,100,34,-93,50,99,-51,-23,-41,-47,-77
-71,19,94,16,-81,56,87,-57,-29,-41,-47,-77
-83,13,100,28,-93,56,87,-63,-35,-41,-53,-77
-89,7,100,34,-93,50,87,-63,-35,-23,-47,-71
-71,7,82,22,-75,44,81,-63,-41,-17,-35,-59
-77,-5,76,34,-75,32,81,-57,-35,-17,-23,-53
-59,7,70,16,-63,38,81,-45,-29,-17,-29,-47
-23,25,52,4,-39,38,87,-21,-11,-6,-17,-41
-23,25,52,4,-39,38,99,-9,-6,-11,-23,-47
-35,7,46,4,-39,26,111,-4,0,-17,-35,-47
-17,19,40,4,-27,26,111,-4,6,-6,-29,-41
-6,43,52,-13,-27,44,93,-4,6,-6,-11,-29
-23,79,106,-19,-63,92,63,-9,6,18,-6,-6
-35,73,112,-13,-75,92,33,-33,-6,18,6,-6
-11,91,106,-31,-57,98,3,-69,-17,0,-6,-6
-6,97,100,-43,-51,98,-8,-87,-35,-6,-6,-6
-11,91,106,-31,-57,98,-20,-81,-41,-6,-6,-6
-6,85,88,-37,-45,86,-14,-75,-23,-6,-11,-11
12,73,52,-43,-15,62,-20,-75,-29,-17,-23,-17
6,49,34,-25,-9,44,-20,-75,-35,-35,-41,-23
0,25,16,-13,-4,20,-26,-87,-53,-53,-65,-47
6,1,-2,-1,2,-4,-26,-111,-71,-65,-71,-59
6,1,-2,-1,2,-4,-38,-159,-107,-71,-77,-71
-6,-5,-2,4,-4,-4,-38,-177,-125,-77,-83,-71
-23,-10,4,16,-15,-4,-38,-171,-125,-83,-83,-71
-41,-34,-2,34,-21,-15,-50,-183,-143,-101,-95,-89
-29,-52,-19,40,-4,-39,-50,-183,-155,-119,-113,-107
-6,-46,-37,22,8,-45,-44,-177,-149,-113,-113,-101
-11,-64,-49,34,8,-57,-26,-165,-137,-107,-113,-101
-47,-88,-37,64,-4,-63,-14,-153,-131,-107,-113,-107
-89,-124,-31,106,-27,-81,-3,-159,-125,-107,-113,-107
-119,-136,-13,124,-51,-75,-3,-165,-125,-107,-119,-113
-143,-124,10,130,-81,-51,-3,-159,-131,-101,-107,-107
-161,-130,22,142,-93,-51,3,-165,-125,-95,-101,-107
-155,-136,10,142,-87,-57,-3,-183,-143,-113,-119,-137
-137,-148,-7,142,-63,-81,-3,-189,-155,-137,-149,-149
-101,-154,-49,124,-21,-105,-3,-189,-173,-149,-161,-155
-113,-160,-43,136,-33,-105,-8,-195,-179,-161,-167,-161
-149,-190,-37,166,-51,-117,-3,-189,-155,-155,-173,-167
-137,-178,-37,154,-45,-111,-3,-201,-167,-167,-179,-173
-119,-166,-43,142,-33,-105,-8,-195,-173,-167,-179,-161
-131,-172,-37,148,-45,-105,-8,-201,-173,-161,-173,-161
-143,-160,-13,148,-63,-87,-3,-201,-173,-161,-161,-161
-155,-160,-2,154,-75,-81,-3,-195,-173,-149,-155,-161
-149,-160,-7,154,-69,-87,-3,-201,-179,-155,-161,-173
-161,-172,-7,166,-75,-93,-14,-201,-191,-161,-167,-179
-167,-184,-13,172,-75,-99,-14,-213,-197,-161,-167,-185
-161,-190,-25,172,-63,-111,-8,-207,-179,-155,-173,-173
-125,-166,-37,142,-39,-105,-8,-195,-173,-161,-173,-161
-119,-160,-37,136,-39,-99,-8,-189,-179,-173,-173,-167
-137,-160,-19,148,-57,-93,-3,-177,-161,-161,-155,-149
-125,-154,-25,136,-45,-93,-3,-189,-155,-155,-155,-143
-113,-154,-37,130,-33,-99,-8,-183,-167,-155,-155,-143
-155,-172,-13,160,-69,-93,-3,-183,-167,-149,-161,-155
-173,-184,-7,178,-81,-99,-8,-183,-161,-137,-155,-149
-161,-184,-19,172,-69,-105,-3,-171,-161,-137,-161,-149
-161,-184,-19,172,-69,-105,-3,-171,-155,-137,-161,-155
-155,-184,-25,166,-63,-105,-3,-165,-149,-131,-161,-155
-131,-184,-49,154,-39,-117,-14,-165,-167,-149,-173,-173
-143,-184,-37,160,-51,-111,-3,-135,-137,-131,-149,-161
-149,-172,-19,160,-63,-99,9,-75,-95,-101,-125,-143
-107,-160,-49,130,-27,-105,39,2,-41,-65,-107,-137
-95,-160,-61,124,-15,-111,81,158,30,-6,-59,-107
-77,-130,-49,100,-9,-93,129,302,156,126,30,-35
-23,-52,-25,34,-4,-39,165,446,282,270,150,60
30,1,-25,-13,26,-4,195,512,402,390,246,162
114,91,-19,-103,68,32,207,560,522,558,402,300
204,193,-7,-199,104,86,189,524,582,696,552,456
306,277,-25,-289,170,122,135,350,570,768,660,570
468,445,-19,-457,242,212,9,164,564,900,804,738
684,607,-73,-643,380,260,-230,-33,492,996,954,918
882,727,-151,-805,512,284,-530,-351,294,978,1026,1026
1062,841,-223,-955,644,308,-764,-621,108,954,1056,1122
1212,943,-271,-1075,740,332,-962,-771,-11,918,1080,1182
1248,997,-247,-1123,746,374,-1142,-981,-197,762,978,1122
1200,1015,-181,-1105,692,416,-1298,-1305,-479,468,774,966
1152,1069,-79,-1111,614,488,-1472,-1707,-809,120,534,798
1032,1087,46,-1057,488,566,-1586,-2085,-1133,-215,282,618
840,979,136,-913,350,560,-1604,-2438,-1433,-605,-23,342
678,817,136,-745,266,482,-1556,-2720,-1691,-947,-305,84
636,601,-31,-619,332,278,-1508,-2720,-1805,-1121,-515,-107
594,373,-223,-481,410,74,-1406,-2468,-1751,-1175,-659,-275
528,169,-361,-349,446,-93,-1256,-2145,-1631,-1175,-755,-431
372,55,-313,-217,344,-123,-1070,-1815,-1439,-1061,-737,-461
234,25,-205,-127,218,-81,-866,-1521,-1223,-905,-623,-407
150,-5,-151,-73,152,-69,-710,-1263,-1031,-755,-533,-359
84,-5,-85,-37,86,-39,-566,-1029,-851,-605,-431,-293
66,-5,-67,-31,68,-27,-476,-855,-725,-515,-371,-251
48,-5,-55,-19,50,-27,-380,-723,-623,-461,-335,-245
18,-5,-31,-1,20,-15,-278,-567,-503,-371,-281,-203
-6,-22,-25,4,8,-21,-212,-477,-431,-317,-245,-179
-23,-40,-13,28,-4,-27,-158,-393,-371,-281,-227,-173
-53,-52,-2,52,-27,-27,-98,-309,-299,-239,-203,-161
-83,-82,-2,82,-39,-39,-62,-243,-251,-197,-185,-149
-89,-100,-7,94,-39,-57,-38,-195,-233,-173,-167,-155
-65,-100,-31,82,-15,-69,-26,-177,-215,-155,-155,-149
-59,-94,-31,76,-9,-63,-8,-147,-191,-137,-137,-131
-71,-94,-19,82,-21,-57,-3,-111,-167,-131,-131,-113
-83,-94,-7,88,-33,-51,27,-93,-143,-125,-125,-119
-77,-106,-25,88,-21,-69,27,-75,-137,-119,-137,-137
-107,-112,-2,106,-51,-57,45,-57,-119,-125,-137,-143
-107,-112,-2,106,-51,-57,51,-45,-113,-125,-143,-149
-101,-124,-19,112,-39,-75,51,-51,-113,-125,-149,-167
-131,-130,-2,130,-63,-63,57,-45,-119,-125,-149,-161
-137,-124,4,130,-75,-57,51,-45,-113,-113,-143,-155
-131,-130,-2,130,-63,-63,57,-45,-107,-101,-137,-143
-125,-142,-13,130,-51,-81,63,-33,-95,-95,-125,-131
-107,-124,-13,112,-45,-69,69,-9,-77,-95,-113,-113
-95,-124,-25,106,-33,-75,81,-4,-65,-95,-113,-113
-89,-136,-43,112,-21,-93,75,-4,-71,-107,-131,-119
-125,-124,-2,124,-63,-63,93,26,-41,-89,-119,-107
-161,-130,22,142,-93,-51,105,38,-23,-77,-113,-101
-131,-136,-2,130,-63,-69,105,20,-35,-83,-107,-119
-125,-142,-13,130,-51,-81,105,20,-47,-77,-107,-113
-143,-142,-2,142,-69,-69,105,32,-29,-53,-89,-95
-119,-124,-2,118,-57,-63,93,26,-29,-41,-83,-95
-119,-124,-2,118,-57,-63,93,32,-41,-47,-71,-89
-101,-130,-25,112,-33,-81,93,32,-35,-53,-83,-89
-59,-118,-55,88,-4,-87,93,32,-29,-65,-89,-95
-41,-100,-55,70,-4,-81,99,50,-29,-65,-83,-101
-59,-94,-31,76,-9,-63,111,62,-17,-71,-95,-113
-83,-106,-19,94,-27,-63,123,68,-17,-65,-101,-113
-101,-124,-19,112,-39,-75,123,74,-11,-59,-101,-113
-107,-112,-2,106,-51,-57,123,86,-6,-35,-83,-95
-101,-100,-2,100,-51,-51,123,80,-6,-29,-71,-77
-113,-112,-2,112,-57,-57,117,86,-6,-17,-65,-71
-95,-106,-7,100,-39,-57,117,98,-6,-6,-53,-77
-59,-100,-37,76,-9,-69,111,98,0,-11,-53,-77
-47,-94,-43,70,-4,-69,105,98,6,-23,-59,-77
-65,-88,-19,76,-21,-57,111,116,6,-23,-59,-71
-77,-94,-13,82,-27,-57,123,134,18,-29,-65,-77
-83,-94,-7,88,-33,-51,135,152,48,-11,-53,-65
-83,-82,-2,82,-39,-39,135,152,54,-6,-53,-71
-65,-82,-13,70,-21,-51,135,152,42,-6,-59,-71
-47,-76,-25,58,-9,-51,123,140,42,0,-47,-65
-71,-82,-7,76,-27,-45,129,152,54,18,-23,-53
-89,-94,-2,88,-39,-51,129,170,54,24,-11,-47
-59,-94,-31,76,-9,-63,117,164,48,18,-17,-41
-47,-76,-25,58,-9,-51,135,182,78,18,-11,-29
-59,-82,-19,70,-15,-51,141,200,84,12,-23,-29
-59,-100,-37,76,-9,-69,147,206,78,12,-29,-41
-47,-76,-25,58,-9,-51,153,212,84,30,-6,-23
-47,-52,-2,46,-21,-27,153,224,102,48,-6,-17
-65,-52,4,58,-39,-21,153,236,102,60,6,-6
-71,-52,10,58,-45,-15,153,242,120,78,24,0
-53,-58,-2,52,-21,-33,147,248,120,84,24,6
-35,-58,-19,46,-4,-39,153,260,120,72,6,0
-35,-58,-19,46,-4,-39,159,278,138,84,18,6
-35,-52,-13,40,-9,-33,165,290,150,90,24,12
-6,-28,-25,10,2,-27,153,296,144,84,24,0
6,-10,-25,4,14,-15,165,314,162,96,24,12
0,-22,-31,4,14,-27,165,314,162,96,36,0
-6,-28,-25,10,2,-27,171,320,168,96,24,-6
-6,-22,-25,4,8,-21,159,326,168,102,30,-6
0,-16,-25,4,8,-21,147,332,174,114,30,-6
6,-10,-25,4,14,-15,147,350,186,120,42,12
6,-5,-19,4,8,-9,153,362,198,138,66,30
0,-5,-13,4,2,-9,153,374,210,156,84,48
18,-5,-25,-1,20,-9,165,404,228,156,84,54
30,7,-19,-19,26,-4,165,428,234,168,90,60
36,19,-13,-25,26,-4,177,440,240,174,102,72
36,13,-19,-25,26,-4,171,446,252,174,108,72
60,13,-43,-37,50,-9,171,464,270,186,102,66
60,31,-25,-43,44,-4,177,476,282,204,120,78
24,43,10,-31,2,26,183,500,294,228,144,96
30,31,-2,-31,14,14,189,518,306,246,162,114
54,43,-7,-49,32,14,189,530,324,258,186,120
90,67,-19,-79,56,20,189,548,336,258,186,126
102,67,-31,-85,68,14,189,572,342,258,180,126
114,79,-31,-97,74,20,189,590,354,258,174,126
120,103,-13,-109,68,38,207,632,384,294,198,156
102,109,-2,-103,44,56,219,656,408,318,210,168
102,115,4,-109,44,62,225,680,432,330,228,180
108,115,-2,-109,50,56,219,698,444,354,246,204
114,109,-2,-109,56,50,219,716,450,378,264,222
126,121,-2,-121,62,56,219,716,450,390,276,228
156,139,-13,-145,86,56,225,740,474,414,300,246
180,151,-25,-163,104,56,225,776,498,426,330,276
192,169,-19,-181,104,68,237,800,516,438,342,288
198,193,-2,-193,98,92,237,818,522,456,348,294
198,217,10,-205,86,116,237,836,540,462,354,294
186,211,16,-199,80,116,243,848,564,480,366,294
186,205,10,-193,80,110,243,878,582,480,366,294
198,211,4,-205,92,110,243,890,594,492,360,300
210,217,-2,-211,98,110,231,896,588,510,384,312
198,211,4,-205,92,110,231,914,600,540,402,330
186,217,22,-199,74,122,243,938,636,558,432,354
234,241,4,-235,110,128,249,956,654,576,444,366
246,253,-2,-247,122,128,249,968,660,576,450,372
264,265,-2,-265,134,134,249,974,666,576,456,372
282,289,-2,-283,140,146,267,992,690,606,468,384
288,319,22,-301,128,176,267,1004,708,612,474,384
282,319,28,-301,122,176,279,1010,720,618,468,384
264,307,34,-283,110,176,273,1004,708,624,474,378
252,307,46,-277,98,182,243,980,696,624,486,396
258,325,58,-289,98,194,249,968,702,648,504,420
264,349,76,-307,92,218,261,962,708,660,528,444
258,367,100,-313,74,236,273,962,726,672,540,462
270,367,88,-319,86,230,261,944,726,654,522,462
276,355,70,-313,98,218,249,914,708,630,504,450
276,361,76,-319,98,224,243,878,684,606,486,438
246,349,94,-295,74,224,237,836,666,588,480,426
198,319,118,-253,32,224,237,788,642,570,468,402
192,325,130,-253,26,230,231,746,606,558,456,390
210,337,124,-271,38,236,225,692,576,546,456,390
198,313,112,-253,38,218,213,644,552,522,444,390
186,301,112,-241,32,212,201,590,516,486,414,366
150,259,106,-205,14,188,183,524,474,432,378,336
138,241,100,-193,14,176,165,476,432,396,348,300
138,229,82,-181,20,158,159,434,402,354,312,282
120,211,82,-163,14,146,153,392,372,318,276,246
132,211,70,-169,26,140,147,338,324,270,234,204
114,181,58,-145,20,122,147,296,288,240,204,174
48,145,88,-97,-15,116,141,254,258,222,186,150
0,109,100,-55,-45,104,135,218,234,192,162,138
-6,85,94,-31,-51,86,135,194,216,186,156,138
-6,79,82,-31,-39,80,117,146,168,150,126,108
12,49,28,-31,-4,38,93,104,120,90,78,66
0,37,28,-19,-9,32,87,86,108,66,66,48
-6,37,40,-13,-21,38,93,62,102,48,54,36
-11,19,34,4,-21,26,87,44,84,18,24,12
-17,1,22,4,-21,8,99,32,66,0,-6,-6
-11,-5,10,4,-9,2,93,8,54,-6,-17,-23
-41,-16,16,28,-33,-4,81,-4,30,-17,-29,-47
-41,-28,4,34,-27,-9,75,-21,12,-29,-29,-47
-35,-40,-2,34,-15,-21,69,-27,-6,-35,-29,-47
-65,-64,-2,64,-33,-33,63,-45,-11,-35,-35,-59
-65,-70,-2,64,-27,-39,63,-57,-17,-47,-47,-71
-41,-52,-7,46,-15,-33,63,-57,-17,-59,-53,-71
-47,-52,-2,46,-21,-27,69,-63,-23,-77,-65,-83
-71,-52,10,58,-45,-15,69,-63,-17,-77,-65,-83
-53,-46,-2,46,-27,-21,63,-69,-29,-89,-83,-89
-65,-52,4,58,-39,-21,57,-81,-35,-89,-89,-89
-83,-64,10,70,-51,-21,57,-81,-47,-89,-89,-95
-77,-70,-2,70,-39,-33,51,-99,-47,-89,-89,-89
-65,-76,-7,70,-27,-45,51,-105,-65,-89,-83,-77
-59,-76,-13,64,-21,-45,21,-129,-83,-101,-89,-89
-47,-82,-31,64,-4,-57,21,-123,-89,-107,-101,-101
-71,-94,-19,82,-21,-57,39,-111,-77,-101,-89,-89
-89,-94,-2,88,-39,-51,63,-99,-53,-101,-89,-77
-65,-100,-31,82,-15,-69,57,-87,-53,-107,-101,-89
-77,-94,-13,82,-27,-57,63,-87,-47,-101,-95,-83
-101,-88,4,94,-57,-39,57,-105,-59,-101,-89,-77
-113,-88,16,100,-69,-33,51,-117,-77,-101,-89,-83
-125,-94,22,106,-75,-33,45,-117,-77,-89,-83,-83
-101,-94,-2,94,-51,-45,39,-117,-83,-89,-77,-83
-77,-76,-2,76,-39,-39,39,-123,-83,-95,-83,-95
-77,-76,-2,76,-39,-39,45,-111,-77,-101,-101,-113
-83,-88,-2,82,-39,-45,45,-117,-83,-119,-113,-131
-83,-88,-2,82,-39,-45,45,-111,-77,-125,-119,-131
-71,-82,-7,76,-27,-45,45,-111,-89,-137,-125,-137
-65,-88,-19,76,-21,-57,45,-111,-83,-131,-119,-125
-77,-94,-13,82,-27,-57,45,-117,-77,-125,-107,-113
-71,-100,-25,82,-21,-63,33,-117,-89,-131,-119,-119
-89,-112,-19,100,-33,-69,33,-123,-95,-125,-119,-119
-83,-94,-7,88,-33,-51,45,-117,-89,-113,-95,-101
-77,-76,-2,76,-39,-39,45,-117,-83,-101,-89,-101
-83,-88,-2,82,-39,-45,45,-111,-83,-95,-83,-95
-119,-100,10,106,-69,-39,63,-99,-59,-89,-71,-89
-125,-100,16,112,-75,-39,63,-99,-59,-107,-89,-95
-107,-94,4,100,-57,-39,57,-99,-59,-119,-107,-101
-101,-94,-2,94,-51,-45,57,-99,-59,-119,-107,-101
-101,-94,-2,94,-51,-45,57,-117,-71,-125,-113,-107
-113,-94,10,100,-63,-39,45,-123,-89,-125,-119,-113
-119,-94,16,106,-69,-33,51,-105,-77,-107,-95,-95
-95,-82,4,88,-51,-33,63,-105,-77,-101,-89,-77
-77,-88,-7,82,-33,-51,63,-93,-77,-101,-107,-89
-83,-112,-25,94,-27,-69,57,-93,-71,-113,-113,-101
-77,-118,-37,94,-15,-81,57,-99,-77,-119,-113,-113
-71,-106,-31,88,-15,-69,57,-93,-71,-113,-113,-113
-83,-106,-19,94,-27,-63,51,-99,-77,-113,-113,-131
-89,-106,-13,94,-33,-63,51,-111,-77,-113,-107,-125
-95,-118,-19,106,-33,-69,45,-117,-89,-119,-113,-125
-119,-124,-2,118,-57,-63,39,-111,-95,-113,-107,-119
-107,-112,-2,106,-51,-57,33,-117,-95,-113,-95,-119
-101,-118,-13,106,-39,-69,39,-111,-89,-107,-95,-107
-119,-124,-2,118,-57,-63,45,-105,-83,-101,-101,-101
-95,-112,-13,100,-39,-63,51,-99,-83,-107,-107,-101
-71,-100,-25,82,-21,-63,45,-111,-83,-113,-107,-101
-83,-94,-7,88,-33,-51,69,-93,-65,-107,-101,-83
-101,-100,-2,100,-51,-51,69,-87,-65,-113,-113,-95
-101,-106,-2,100,-45,-57,69,-87,-65,-119,-119,-107
-107,-112,-2,106,-51,-57,75,-93,-71,-107,-107,-107
-119,-106,4,112,-63,-45,75,-87,-65,-101,-101,-101
-107,-82,16,94,-63,-27,75,-87,-71,-89,-95,-101
-89,-88,-2,88,-45,-45,75,-93,-71,-95,-107,-95
-101,-106,-2,100,-45,-57,57,-105,-89,-113,-113,-107
-83,-118,-31,100,-21,-75,45,-111,-95,-119,-107,-107
-71,-100,-25,82,-21,-63,57,-105,-77,-101,-107,-107
-95,-88,-2,88,-51,-39,87,-69,-53,-83,-89,-89
-95,-94,-2,94,-45,-45,75,-75,-53,-101,-95,-101
-95,-106,-7,100,-39,-57,69,-87,-59,-113,-101,-107
-101,-100,-2,100,-51,-51,69,-99,-65,-101,-95,-107
-113,-100,4,106,-63,-45,69,-99,-65,-95,-89,-107
-125,-106,10,112,-69,-45,57,-111,-83,-95,-89,-113
-119,-106,4,112,-63,-45,45,-117,-95,-107,-101,-125
-119,-106,4,112,-63,-45,45,-111,-95,-107,-101,-131
-113,-100,4,106,-63,-45,45,-93,-77,-107,-95,-125
-89,-94,-2,88,-39,-51,39,-111,-89,-119,-113,-137
-71,-94,-19,82,-21,-57,51,-99,-83,-119,-119,-131
-71,-82,-7,76,-27,-45,51,-87,-71,-113,-113,-125
-83,-82,-2,82,-39,-39,51,-81,-65,-113,-107,-113
-113,-100,4,106,-63,-45,63,-87,-71,-119,-113,-125
-101,-100,-2,100,-51,-51,51,-93,-77,-119,-119,-131
-107,-100,-2,100,-57,-45,51,-87,-77,-101,-101,-113
-119,-100,10,106,-69,-39,69,-81,-65,-95,-95,-101
-125,-100,16,112,-75,-39,69,-87,-71,-101,-101,-113
-119,-112,-2,112,-63,-51,63,-87,-71,-107,-107,-119
-95,-112,-13,100,-39,-63,51,-99,-77,-107,-113,-119
-77,-100,-19,88,-27,-63,57,-87,-77,-107,-107,-113
-89,-100,-7,94,-39,-57,63,-81,-65,-107,-113,-119
-101,-118,-13,106,-39,-69,63,-93,-71,-125,-125,-125
-137,-112,16,124,-81,-45,75,-87,-65,-113,-113,-113
-131,-88,34,106,-87,-21,75,-81,-71,-101,-95,-101
-101,-82,10,88,-57,-33,63,-99,-77,-89,-83,-101
-113,-94,10,100,-63,-39,57,-93,-77,-83,-83,-101
-131,-106,16,118,-75,-39,57,-99,-83,-95,-95,-107
-101,-94,-2,94,-51,-45,63,-87,-71,-107,-101,-107
-89,-94,-2,88,-39,-51,63,-93,-71,-107,-113,-113
-95,-112,-13,100,-39,-63,57,-93,-77,-119,-125,-131
-101,-106,-2,100,-45,-57,57,-87,-77,-125,-119,-131
-101,-94,-2,94,-51,-45,69,-75,-65,-107,-107,-113
-119,-100,10,106,-69,-39,69,-81,-59,-101,-113,-113
-119,-106,4,112,-63,-45,63,-93,-65,-107,-113,-113
-119,-106,4,112,-63,-45,51,-99,-77,-113,-113,-119
-119,-118,-2,118,-57,-57,57,-93,-77,-113,-107,-113
-125,-118,-2,118,-63,-57,57,-99,-77,-107,-101,-119
-119,-112,-2,112,-63,-51,63,-93,-77,-113,-101,-119
-101,-118,-13,106,-39,-69,63,-93,-77,-119,-119,-131
-101,-130,-25,112,-33,-81,69,-81,-77,-125,-131,-137
-101,-118,-13,106,-39,-69,69,-81,-77,-125,-131,-143
-77,-118,-37,94,-15,-81,63,-93,-83,-137,-137,-149
-65,-118,-49,88,-4,-87,57,-105,-83,-137,-143,-149
-83,-124,-37,100,-21,-81,51,-111,-89,-137,-143,-149
-107,-124,-13,112,-45,-69,45,-123,-95,-125,-125,-137
-131,-118,4,124,-69,-51,51,-117,-89,-113,-107,-113
-131,-112,10,118,-75,-45,57,-111,-95,-113,-101,-107
-89,-112,-19,100,-33,-69,51,-105,-89,-113,-101,-101
-89,-118,-25,100,-27,-75,45,-105,-83,-113,-107,-101
-119,-124,-2,118,-57,-63,51,-99,-89,-125,-119,-107
-137,-136,-2,136,-69,-69,69,-99,-77,-119,-113,-107
-143,-124,10,130,-81,-51,63,-111,-77,-119,-113,-119
-131,-112,10,118,-75,-45,51,-117,-89,-119,-113,-125
-113,-112,-2,112,-57,-57,45,-111,-89,-131,-113,-119
-101,-106,-2,100,-45,-57,39,-111,-89,-125,-119,-125
-101,-76,16,88,-63,-27,57,-87,-71,-95,-89,-95
-101,-64,28,82,-69,-15,75,-69,-53,-83,-77,-89
-77,-58,10,64,-45,-21,87,-57,-47,-95,-83,-107
-83,-46,28,64,-57,-4,111,-45,-29,-83,-71,-107
-83,-34,40,58,-63,-4,129,-21,-11,-65,-59,-89
-71,-10,52,40,-63,14,147,-9,-6,-47,-59,-77
-77,-10,58,40,-69,14,153,-4,0,-53,-59,-77
-77,-10,58,40,-69,14,159,-15,-6,-53,-53,-77
-47,-5,34,22,-45,8,159,-27,-6,-41,-41,-71
-77,-22,46,46,-63,2,147,-27,-6,-47,-47,-71
-83,-34,40,58,-63,-4,135,-21,-6,-59,-65,-77
-59,-16,34,34,-51,2,135,-4,-6,-47,-47,-59
-53,-10,34,28,-45,2,147,2,12,-29,-29,-35
-41,-5,28,22,-39,2,147,14,18,-23,-29,-29
-35,7,46,4,-39,26,159,32,36,-6,-17,-23
-53,1,58,16,-57,26,159,38,54,0,-6,-6
-41,31,76,4,-57,50,135,26,48,-6,-6,-6
-17,67,88,-19,-51,74,117,8,36,0,0,-6
-23,61,88,-13,-57,74,93,-9,18,-6,0,-6
-41,31,76,4,-57,50,69,-27,0,-6,0,-11
-35,37,76,4,-57,56,39,-51,-6,-17,-6,-23
-23,49,76,-7,-51,62,39,-45,-6,-11,-6,-11
-6,61,70,-19,-39,62,39,-27,-6,-6,0,-6
-6,49,52,-19,-27,50,39,-33,-6,-11,-6,-11
-6,25,28,-7,-15,26,27,-45,-6,-41,-35,-35
-6,-5,-2,4,-4,-4,15,-57,-23,-59,-47,-53
-11,-10,-2,10,-4,-4,9,-75,-47,-77,-71,-65
-41,-34,-2,34,-21,-15,9,-105,-65,-95,-89,-89
-29,-40,-7,34,-9,-27,3,-135,-89,-113,-101,-95
-29,-46,-13,34,-4,-33,9,-135,-101,-113,-95,-89
-47,-76,-25,58,-9,-51,9,-147,-107,-113,-101,-95
-35,-100,-61,64,2,-81,3,-153,-119,-125,-113,-107
-23,-112,-85,64,20,-99,-3,-153,-119,-137,-119,-113
-65,-136,-67,100,-4,-105,3,-129,-113,-131,-113,-119
-101,-142,-37,118,-27,-93,15,-123,-107,-131,-119,-125
-119,-142,-19,130,-45,-81,39,-111,-89,-119,-107,-113
-95,-124,-25,106,-33,-75,33,-123,-101,-125,-119,-125
-101,-112,-7,106,-45,-63,33,-141,-101,-137,-137,-137
-137,-136,-2,136,-69,-69,27,-141,-107,-149,-143,-149
-143,-148,-2,142,-69,-75,27,-147,-125,-161,-155,-161
-131,-154,-19,142,-51,-87,27,-159,-131,-161,-161,-155
-137,-166,-25,148,-51,-99,21,-165,-143,-173,-161,-155
-143,-172,-25,154,-57,-99,15,-165,-143,-179,-161,-155
-137,-172,-31,154,-51,-105,15,-165,-143,-179,-155,-155
-143,-190,-43,166,-45,-117,3,-177,-155,-185,-167,-173
-131,-196,-61,160,-33,-129,3,-189,-161,-191,-179,-179
-137,-184,-43,160,-45,-117,9,-189,-161,-191,-179,-185
-161,-190,-25,172,-63,-111,9,-189,-155,-185,-179,-185
-125,-172,-43,148,-39,-111,9,-183,-161,-185,-185,-185
-143,-166,-19,154,-57,-93,15,-177,-161,-185,-179,-173
-167,-184,-13,172,-75,-99,9,-183,-167,-185,-179,-179
-167,-184,-13,172,-75,-99,9,-189,-167,-191,-185,-179
-167,-196,-25,178,-69,-111,3,-195,-173,-203,-185,-179
-173,-208,-31,190,-69,-123,3,-195,-179,-197,-173,-173
-173,-190,-13,178,-75,-105,3,-183,-167,-173,-155,-173
-149,-160,-7,154,-69,-87,9,-171,-155,-173,-149,-167
-149,-166,-13,154,-63,-93,21,-159,-149,-179,-173,-173
-149,-172,-19,160,-63,-99,21,-171,-149,-185,-185,-185
-155,-160,-2,154,-75,-81,9,-171,-149,-173,-167,-179
-149,-154,-2,148,-69,-81,9,-177,-143,-161,-137,-155
-155,-166,-7,160,-69,-87,-3,-177,-155,-161,-155,-161
-137,-172,-31,154,-51,-105,-3,-171,-161,-167,-167,-173
-113,-160,-43,136,-33,-105,-3,-141,-137,-167,-149,-155
-83,-166,-79,124,-4,-123,3,-135,-131,-167,-167,-161
-83,-172,-85,124,-4,-129,9,-123,-119,-167,-179,-173
-119,-172,-49,142,-33,-111,45,-63,-77,-137,-149,-155
-137,-166,-25,148,-51,-99,93,32,-11,-77,-101,-119
-101,-142,-37,118,-27,-93,135,188,78,12,-35,-77
-53,-88,-31,70,-9,-63,171,350,216,162,66,0
-6,-34,-25,16,2,-33,201,482,342,294,192,108
6,-5,-7,-1,8,-4,225,554,468,426,300,210
72,79,-2,-73,32,38,213,578,570,576,432,330
180,199,10,-187,80,104,183,542,630,726,588,480
312,307,-2,-307,158,152,141,386,624,804,714,618
486,469,-19,-481,254,224,51,212,612,912,858,780
702,619,-79,-661,392,266,-146,20,534,984,984,942
900,739,-157,-817,524,290,-452,-303,330,960,1032,1038
1062,841,-223,-955,644,308,-698,-579,126,918,1068,1134
1194,937,-253,-1063,728,338,-878,-771,-23,864,1074,1188
1212,997,-217,-1105,716,392,-1028,-1011,-233,672,948,1116
1170,1033,-133,-1099,650,452,-1202,-1359,-515,366,726,948
1074,1075,-2,-1075,536,536,-1376,-1743,-833,42,504,792
918,1045,124,-979,392,584,-1502,-2139,-1181,-335,222,564
720,949,226,-829,242,584,-1544,-2510,-1505,-737,-89,294
606,805,196,-709,206,500,-1544,-2780,-1775,-1049,-371,48
582,577,-2,-577,290,284,-1502,-2744,-1865,-1211,-551,-131
522,355,-169,-439,344,92,-1358,-2450,-1769,-1235,-695,-311
450,175,-271,-307,362,-45,-1208,-2109,-1631,-1217,-773,-461
318,73,-241,-199,278,-81,-1004,-1755,-1415,-1067,-725,-455
180,37,-139,-109,158,-45,-812,-1449,-1175,-881,-593,-389
96,13,-79,-55,86,-27,-668,-1191,-983,-731,-497,-341
60,19,-37,-37,50,-4,-542,-975,-827,-605,-419,-293
54,13,-37,-31,44,-4,-458,-825,-719,-521,-365,-263
30,1,-25,-13,26,-4,-374,-699,-617,-461,-317,-245
24,-5,-31,-7,26,-15,-290,-573,-509,-401,-281,-221
-6,-5,-7,4,-4,-4,-224,-483,-431,-365,-257,-203
-29,-22,-2,22,-15,-9,-158,-393,-365,-311,-233,-191
-47,-28,10,34,-33,-4,-110,-315,-305,-263,-209,-185
-65,-52,4,58,-39,-21,-68,-249,-251,-227,-179,-161
-83,-64,10,70,-51,-21,-32,-201,-203,-179,-155,-137
-77,-70,-2,70,-39,-33,-14,-159,-179,-149,-137,-119
-89,-94,-2,88,-39,-51,-14,-141,-173,-143,-131,-113
-113,-118,-2,112,-51,-63,-3,-111,-161,-149,-125,-107
-107,-118,-7,112,-45,-63,9,-99,-143,-155,-131,-125
-107,-112,-2,106,-51,-57,33,-63,-113,-131,-125,-113
-101,-112,-7,106,-45,-63,45,-45,-113,-143,-125,-113
-95,-124,-25,106,-33,-75,39,-57,-113,-149,-137,-137
-89,-112,-19,100,-33,-69,45,-51,-101,-137,-137,-143
-101,-106,-2,100,-45,-57,39,-45,-95,-125,-125,-137
-107,-106,-2,106,-51,-51,39,-45,-83,-119,-113,-125
-131,-112,10,118,-75,-45,39,-45,-95,-113,-119,-137
-131,-118,4,124,-69,-51,45,-27,-83,-107,-107,-137
-125,-118,-2,118,-63,-57,51,-15,-71,-107,-101,-119
-131,-130,-2,130,-63,-63,63,-9,-59,-119,-107,-119
-119,-130,-7,124,-51,-69,69,-4,-53,-113,-107,-119
-107,-118,-7,112,-45,-63,69,-4,-59,-125,-107,-113
-119,-118,-2,118,-57,-57,81,2,-41,-107,-101,-113
-119,-124,-2,118,-57,-63,81,20,-35,-101,-113,-125
-119,-118,-2,118,-57,-57,93,32,-17,-95,-107,-119
-155,-130,16,142,-87,-51,93,32,-6,-83,-95,-101
-149,-136,4,142,-81,-63,81,26,-17,-71,-83,-101
-119,-112,-2,112,-63,-51,81,32,-23,-65,-71,-89
-89,-106,-13,94,-33,-63,75,32,-17,-65,-71,-83
-71,-112,-37,88,-15,-75,75,38,-29,-71,-77,-89
-95,-124,-25,106,-33,-75,87,62,-11,-59,-83,-89
-113,-118,-2,112,-51,-63,105,86,-6,-77,-89,-89
-95,-100,-2,94,-45,-51,99,92,-6,-77,-89,-89
-77,-82,-2,76,-33,-45,81,92,-6,-65,-71,-89
-95,-100,-2,94,-45,-51,81,92,6,-41,-59,-89
-107,-106,-2,106,-51,-51,81,80,0,-59,-71,-95
-107,-100,-2,100,-57,-45,81,86,-6,-41,-59,-77
-77,-82,-2,76,-33,-45,75,86,-6,-17,-35,-53
-71,-88,-13,76,-27,-51,81,86,6,-29,-47,-71
-65,-82,-13,70,-21,-51,93,92,6,-41,-59,-71
-65,-88,-19,76,-21,-57,99,116,18,-35,-59,-71
-77,-88,-7,82,-33,-51,111,140,24,-29,-53,-65
-89,-94,-2,88,-39,-51,117,146,42,-23,-47,-47
-89,-88,-2,88,-45,-45,111,158,54,-11,-35,-47
-77,-76,-2,76,-39,-39,105,164,54,-6,-41,-59
-89,-88,-2,88,-45,-45,105,152,60,-6,-35,-53
-89,-88,-2,88,-45,-45,93,152,54,-6,-23,-47
-71,-58,4,64,-39,-21,81,152,54,6,-6,-35
-71,-64,-2,64,-39,-27,81,176,66,18,0,-11
-59,-52,-2,52,-33,-21,93,194,78,12,0,-11
-35,-46,-7,40,-9,-27,99,206,72,6,-6,-29
-23,-58,-31,40,-4,-45,93,200,78,-6,-17,-35
-23,-34,-7,28,-4,-21,111,218,102,6,-6,-29
-29,-16,4,22,-21,-4,111,230,114,12,-6,-35
-41,-40,-2,40,-21,-21,111,236,114,24,-6,-35
-47,-40,-2,40,-27,-15,117,242,120,48,0,-11
-53,-46,-2,46,-27,-21,105,242,120,54,18,-6
-53,-58,-2,52,-21,-33,93,242,120,48,18,-6
-35,-40,-2,34,-15,-21,93,248,120,60,30,12
-17,-34,-13,22,-4,-27,93,248,120,66,48,18
-23,-34,-7,28,-4,-21,93,266,126,66,42,18
-23,-10,4,16,-15,-4,99,284,144,66,42,24
-6,-5,-2,4,-4,-4,99,302,150,78,54,24
6,1,-2,-1,2,-4,105,320,168,90,60,24
12,13,-2,-13,2,2,99,320,174,102,66,18
18,13,-2,-13,8,2,93,320,180,108,72,18
0,13,4,-7,-4,8,99,344,192,114,72,24
6,13,-2,-7,-4,8,105,356,204,132,84,36
12,13,-2,-13,2,2,99,368,204,138,90,54
6,1,-2,-1,2,-4,111,386,222,138,102,66
30,7,-19,-19,26,-4,117,410,234,156,108,78
60,31,-25,-43,44,-4,123,422,240,156,108,102
66,37,-25,-49,44,2,123,446,258,174,120,108
66,49,-13,-55,38,14,135,470,282,192,138,114
54,67,4,-61,20,38,129,482,288,210,144,120
30,49,10,-37,2,32,135,488,294,222,156,120
24,55,22,-37,-4,38,123,512,306,240,174,132
54,85,22,-67,8,56,123,530,318,258,198,156
72,91,10,-79,26,50,123,554,336,264,210,174
84,91,-2,-85,38,44,123,560,348,258,210,168
102,97,-2,-97,50,44,129,590,366,270,204,162
120,115,-2,-115,62,50,141,608,378,276,210,168
120,127,-2,-121,56,62,141,632,396,300,228,174
120,145,16,-133,44,80,147,650,420,318,240,186
138,157,10,-145,56,86,147,668,438,342,258,204
144,157,4,-151,62,80,129,668,438,348,264,210
132,163,22,-145,50,92,129,698,450,378,288,228
126,175,40,-151,38,110,147,722,468,408,312,252
126,193,58,-157,26,128,153,740,480,426,324,264
144,199,46,-169,44,122,153,752,486,432,336,276
180,211,22,-193,74,116,153,776,510,444,348,288
186,235,40,-211,68,140,171,812,534,456,378,312
186,241,52,-217,62,152,177,842,564,480,396,330
216,253,34,-235,86,146,183,854,570,492,396,330
234,265,28,-247,98,152,171,866,576,504,402,330
228,271,40,-247,86,158,171,878,600,534,426,354
210,271,58,-235,68,170,171,902,612,558,450,378
198,259,58,-229,62,164,177,908,624,558,450,378
228,271,40,-247,86,158,177,926,636,564,450,378
252,295,34,-271,104,170,177,944,654,576,474,396
264,313,40,-289,110,182,171,956,654,582,480,414
282,319,28,-301,122,176,177,962,666,582,480,426
288,319,22,-301,128,176,177,968,684,606,492,426
276,301,16,-289,128,164,171,968,696,612,498,438
246,319,64,-283,86,194,183,968,702,630,516,450
246,343,88,-295,74,218,177,950,696,648,540,462
252,337,76,-295,86,212,171,932,690,660,546,474
258,337,70,-295,92,206,165,914,684,654,552,468
258,355,88,-307,80,224,165,896,678,648,546,474
276,361,76,-319,98,224,165,872,678,636,540,474
270,361,82,-313,92,224,177,860,678,630,534,474
264,373,100,-319,80,236,165,824,654,600,516,468
282,379,88,-331,92,236,153,788,648,594,504,462
252,367,106,-307,68,236,147,740,612,564,498,444
204,337,130,-265,32,236,147,698,588,558,486,426
204,325,118,-259,38,224,123,620,546,528,468,402
180,307,124,-241,20,218,117,584,528,504,462,384
162,289,124,-229,14,212,117,536,486,462,420,360
162,277,112,-223,20,200,105,482,450,420,378,324
144,253,106,-199,14,182,93,428,414,378,348,300
144,235,88,-193,20,164,87,386,372,330,318,270
120,223,94,-169,8,158,87,356,348,294,276,240
90,199,100,-145,-4,152,93,314,324,258,246,222
72,163,82,-115,-4,122,87,272,294,234,222,192
42,133,82,-85,-15,110,75,230,252,204,192,162
48,121,64,-85,-4,92,75,206,228,186,186,150
18,91,64,-55,-15,80,63,164,192,162,156,132
-6,61,64,-25,-33,62,57,116,150,126,132,108
12,49,28,-31,-4,38,51,92,126,96,114,90
-6,19,16,-7,-4,20,39,62,102,66,84,66
-11,-5,10,4,-9,2,39,44,78,42,66,48
-6,13,16,-1,-9,14,21,26,60,0,24,6
-6,13,16,-1,-9,14,33,8,54,-6,-6,-6
-17,-5,16,4,-15,2,27,-4,30,-17,-6,-23
-41,-16,16,28,-33,-4,9,-27,0,-35,-17,-29
-59,-40,10,46,-39,-9,3,-39,-6,-41,-23,-35
-53,-58,-2,52,-21,-33,3,-51,-11,-47,-41,-47
-23,-58,-31,40,-4,-45,-3,-69,-23,-59,-47,-41
-41,-58,-13,46,-9,-39,-3,-63,-23,-65,-47,-41
-59,-64,-2,58,-27,-33,9,-51,-23,-65,-59,-47
-71,-64,-2,64,-39,-27,9,-63,-35,-71,-59,-59
-59,-52,-2,52,-33,-21,15,-63,-29,-83,-65,-65
-47,-46,-2,46,-21,-21,15,-69,-35,-89,-71,-71
-53,-52,-2,52,-27,-27,9,-75,-41,-89,-65,-71
-71,-82,-7,76,-27,-45,-3,-105,-65,-107,-89,-95
-95,-106,-7,100,-39,-57,-14,-123,-83,-119,-95,-95
-107,-94,4,100,-57,-39,-3,-105,-77,-89,-77,-77
-101,-88,4,94,-57,-39,-8,-105,-77,-95,-65,-71
-107,-88,10,94,-63,-33,-3,-117,-77,-95,-71,-65
-107,-94,4,100,-57,-39,-8,-111,-83,-95,-65,-65
-83,-82,-2,82,-39,-39,-3,-111,-83,-107,-77,-83
-83,-88,-2,82,-39,-45,-3,-111,-89,-125,-89,-95
-89,-100,-7,94,-39,-57,-3,-123,-95,-137,-101,-113
-83,-106,-19,94,-27,-63,-3,-123,-95,-137,-101,-119
-83,-100,-13,88,-33,-57,-3,-129,-89,-131,-101,-107
-89,-94,-2,88,-39,-51,-3,-129,-77,-125,-89,-89
-95,-100,-2,94,-45,-51,-3,-123,-83,-107,-83,-83
-101,-106,-2,100,-45,-57,-3,-123,-95,-119,-89,-83
-77,-82,-2,76,-33,-45,-3,-123,-89,-113,-83,-77
-53,-88,-31,70,-9,-63,-3,-117,-95,-119,-83,-77
-83,-106,-19,94,-27,-63,-3,-117,-95,-125,-89,-89
-107,-106,-2,106,-51,-51,3,-105,-77,-125,-83,-89
-101,-94,-2,94,-51,-45,9,-105,-77,-119,-83,-101
-95,-88,-2,88,-51,-39,-3,-111,-83,-125,-89,-107
-95,-88,-2,88,-51,-39,-3,-123,-83,-125,-95,-107
-101,-100,-2,100,-51,-51,-3,-117,-83,-119,-107,-107
-95,-100,-2,94,-45,-51,-3,-111,-83,-113,-95,-89
-89,-100,-7,94,-39,-57,-8,-111,-95,-125,-95,-89
-95,-112,-13,100,-39,-63,-8,-123,-95,-131,-101,-95
-77,-118,-37,94,-15,-81,-14,-117,-101,-131,-107,-107
-59,-106,-43,82,-4,-75,-20,-123,-107,-143,-113,-113
-65,-82,-13,70,-21,-51,-14,-111,-95,-137,-107,-101
-65,-82,-13,70,-21,-51,-8,-111,-95,-131,-107,-101
-83,-106,-19,94,-27,-63,-14,-117,-101,-143,-113,-113
-95,-82,4,88,-51,-33,-3,-99,-83,-119,-89,-89
-131,-88,34,106,-87,-21,-3,-105,-83,-107,-83,-89
-137,-124,4,130,-75,-57,-3,-123,-107,-113,-89,-95
-101,-118,-13,106,-39,-69,-3,-123,-107,-119,-83,-95
-107,-106,-2,106,-51,-51,-3,-117,-89,-113,-95,-107
-119,-94,16,106,-69,-33,3,-93,-77,-119,-95,-113
-83,-76,-2,76,-45,-33,15,-87,-77,-113,-89,-101
-83,-76,-2,76,-45,-33,15,-81,-65,-119,-101,-95
-83,-82,-2,82,-39,-39,9,-93,-77,-125,-113,-101
-83,-94,-7,88,-33,-51,3,-93,-83,-125,-107,-101
-89,-100,-7,94,-39,-57,-3,-111,-83,-131,-119,-119
-77,-94,-13,82,-27,-57,-3,-117,-89,-125,-107,-113
-65,-94,-25,76,-15,-63,-3,-111,-101,-113,-95,-107
-71,-100,-25,82,-21,-63,-20,-123,-113,-137,-113,-125
-83,-106,-19,94,-27,-63,-14,-123,-107,-131,-107,-119
-95,-106,-7,100,-39,-57,-3,-99,-89,-125,-95,-95
-89,-106,-13,94,-33,-63,3,-99,-83,-125,-95,-95
-65,-88,-19,76,-21,-57,-3,-105,-77,-131,-101,-107
-77,-82,-2,76,-33,-45,15,-87,-71,-119,-95,-89
-119,-94,16,106,-69,-33,21,-75,-65,-107,-89,-83
-137,-112,16,124,-81,-45,9,-87,-77,-113,-95,-89
-113,-112,-2,112,-57,-57,-3,-111,-89,-119,-101,-101
-95,-94,-2,94,-45,-45,-3,-105,-95,-101,-95,-95
-71,-82,-7,76,-27,-45,-14,-105,-101,-107,-89,-95
-71,-100,-25,82,-21,-63,-8,-111,-95,-119,-101,-107
-101,-106,-2,100,-45,-57,-3,-93,-83,-119,-101,-107
-101,-94,-2,94,-51,-45,3,-81,-71,-107,-83,-89
-119,-88,22,100,-75,-27,9,-75,-65,-101,-77,-95
-131,-106,16,118,-75,-39,9,-75,-65,-107,-83,-89
-107,-100,-2,100,-57,-45,9,-87,-71,-119,-101,-101
-101,-106,-2,100,-45,-57,9,-93,-77,-119,-95,-107
-119,-118,-2,118,-57,-57,9,-93,-71,-113,-89,-101
-107,-112,-2,106,-51,-57,15,-93,-77,-101,-77,-95
-101,-94,-2,94,-51,-45,27,-81,-65,-95,-77,-89
-107,-94,4,100,-57,-39,9,-93,-71,-101,-89,-101
-95,-88,-2,88,-51,-39,3,-93,-83,-113,-95,-113
-89,-94,-2,88,-39,-51,15,-81,-77,-113,-95,-113
-83,-94,-7,88,-33,-51,15,-75,-59,-119,-95,-113
-59,-70,-7,64,-21,-39,9,-93,-77,-125,-101,-113
-77,-94,-13,82,-27,-57,-3,-111,-89,-143,-119,-125
-101,-112,-7,106,-45,-63,-3,-111,-95,-143,-119,-125
-113,-112,-2,112,-57,-57,-3,-99,-77,-119,-107,-113
-113,-106,-2,106,-57,-51,-3,-87,-77,-113,-89,-95
-113,-112,-2,112,-57,-57,-3,-93,-83,-119,-95,-101
-107,-118,-7,112,-45,-63,-3,-99,-83,-119,-89,-89
-95,-106,-7,100,-39,-57,3,-81,-77,-107,-89,-83
-95,-106,-7,100,-39,-57,9,-81,-71,-107,-83,-83
-107,-112,-2,106,-51,-57,15,-81,-65,-101,-83,-83
-95,-112,-13,100,-39,-63,3,-93,-71,-119,-107,-119
-95,-112,-13,100,-39,-63,3,-93,-77,-131,-125,-137
-95,-106,-7,100,-39,-57,9,-99,-77,-125,-113,-125
-113,-100,4,106,-63,-45,21,-93,-71,-107,-101,-119
-95,-88,-2,88,-51,-39,15,-93,-77,-101,-101,-119
-101,-88,4,94,-57,-39,9,-105,-83,-107,-101,-113
-113,-112,-2,112,-57,-57,3,-105,-83,-113,-95,-113
-119,-106,4,112,-63,-45,3,-105,-89,-119,-101,-119
-119,-106,4,112,-63,-45,9,-93,-77,-113,-95,-101
-119,-118,-2,118,-57,-57,9,-93,-71,-113,-101,-107
-95,-112,-13,100,-39,-63,-3,-99,-77,-131,-119,-125
-89,-100,-7,94,-39,-57,9,-99,-71,-125,-113,-125
-101,-100,-2,100,-51,-51,15,-93,-65,-113,-101,-107
-107,-106,-2,106,-51,-51,15,-93,-71,-107,-95,-101
-119,-124,-2,118,-57,-63,9,-99,-77,-101,-89,-101
-131,-112,10,118,-75,-45,3,-105,-89,-101,-95,-101
-119,-106,4,112,-63,-45,-3,-117,-83,-113,-101,-107
-107,-106,-2,106,-51,-51,9,-105,-83,-113,-101,-113
-89,-106,-13,94,-33,-63,3,-105,-89,-131,-107,-113
-83,-112,-25,94,-27,-69,9,-111,-83,-131,-113,-113
-101,-118,-13,106,-39,-69,3,-111,-83,-131,-119,-125
-119,-124,-2,118,-57,-63,3,-123,-95,-137,-125,-137
-119,-130,-7,124,-51,-69,9,-123,-101,-131,-113,-119
-119,-118,-2,118,-57,-57,9,-117,-89,-113,-107,-107
-95,-100,-2,94,-45,-51,9,-117,-89,-113,-95,-101
-107,-124,-13,112,-45,-69,3,-129,-101,-119,-101,-113
-125,-136,-7,130,-57,-75,-3,-135,-107,-125,-107,-125
-101,-124,-19,112,-39,-75,-3,-123,-101,-125,-107,-125
-71,-106,-31,88,-15,-69,-3,-129,-95,-143,-107,-119
-95,-106,-7,100,-39,-57,-3,-129,-95,-143,-113,-131
-107,-118,-7,112,-45,-63,-3,-123,-89,-143,-125,-131
-113,-124,-7,118,-51,-69,3,-129,-83,-137,-119,-125
-107,-106,-2,106,-51,-51,9,-117,-77,-131,-107,-113
-107,-88,10,94,-63,-33,15,-111,-71,-113,-101,-101
-107,-76,22,88,-69,-21,21,-111,-65,-101,-83,-83
-107,-76,22,88,-69,-21,39,-93,-59,-89,-77,-71
-71,-64,-2,64,-39,-27,33,-81,-59,-95,-77,-71
-59,-52,-2,52,-33,-21,45,-69,-41,-83,-71,-71
-65,-34,22,46,-45,-4,75,-57,-23,-77,-59,-65
-65,-10,46,34,-57,8,99,-27,-6,-59,-53,-59
-77,-5,64,40,-75,20,105,-33,-6,-59,-53,-47
-113,-16,88,64,-105,26,111,-27,0,-47,-41,-41
-119,-28,82,70,-105,20,117,-27,0,-53,-47,-53
-113,-40,64,76,-93,2,99,-39,-6,-59,-59,-77
-89,-22,58,52,-75,8,87,-39,-11,-59,-53,-65
-53,-5,40,28,-51,8,87,-33,-11,-47,-41,-53
-35,-5,28,16,-33,8,99,-15,0,-29,-23,-35
-41,-16,16,28,-33,-4,105,-4,12,-23,-23,-41
-41,-16,16,28,-33,-4,111,-4,18,-29,-29,-35
-23,-5,16,10,-21,2,111,-4,30,-17,-17,-29
-23,13,40,4,-33,26,87,-4,30,-23,-17,-23
-41,25,70,4,-57,44,75,-15,24,-17,-11,-17
-41,37,82,4,-63,56,57,-33,18,-11,-6,-11
-29,55,88,-7,-57,68,27,-51,-6,-6,-6,-6
-47,49,100,4,-75,74,3,-69,-11,-11,-6,-6
-35,43,82,4,-57,62,-3,-81,-17,-29,-6,-6
-6,49,52,-19,-27,50,-8,-69,-11,-17,-6,-6
18,49,22,-31,-4,38,-8,-69,-11,-23,-6,-6
24,37,4,-31,2,20,-14,-63,-23,-47,-23,-11
6,1,-2,-1,2,-4,-14,-81,-35,-71,-47,-35
-6,-16,-13,4,-4,-15,-14,-93,-47,-71,-59,-47
-17,-34,-13,22,-4,-27,-26,-117,-71,-101,-89,-71
-29,-46,-13,34,-4,-33,-32,-147,-95,-125,-107,-95
-29,-52,-19,40,-4,-39,-38,-171,-107,-119,-107,-101
-29,-64,-31,46,-4,-51,-32,-171,-119,-119,-107,-95
-23,-82,-55,52,8,-69,-38,-177,-137,-131,-113,-107
-29,-100,-67,64,8,-87,-44,-171,-125,-131,-113,-95
-41,-118,-73,76,8,-99,-26,-153,-113,-131,-119,-95
-71,-154,-79,112,-4,-117,-20,-141,-113,-149,-131,-119
-95,-160,-61,124,-15,-111,-3,-129,-107,-143,-119,-113
-119,-142,-19,130,-45,-81,-3,-123,-89,-107,-107,-95
-131,-142,-7,136,-57,-75,3,-123,-95,-95,-113,-101
-119,-142,-19,130,-45,-81,-3,-153,-119,-137,-125,-119
-101,-142,-37,118,-27,-93,-14,-177,-131,-155,-143,-149
-113,-154,-37,130,-33,-99,-8,-171,-137,-155,-143,-149
-137,-154,-13,142,-57,-87,-14,-177,-143,-161,-149,-149
-143,-166,-19,154,-57,-93,-14,-177,-149,-173,-149,-149
-155,-184,-25,166,-63,-105,-14,-177,-149,-185,-161,-149
-131,-190,-55,160,-33,-123,-26,-189,-155,-191,-167,-161
-101,-184,-79,142,-9,-135,-38,-207,-173,-209,-191,-185
-113,-184,-67,148,-21,-129,-32,-207,-173,-209,-191,-179
-149,-184,-31,166,-57,-111,-8,-195,-149,-185,-167,-155
-161,-172,-7,166,-75,-93,-14,-189,-155,-185,-161,-155
-143,-166,-19,154,-57,-93,-26,-195,-167,-185,-161,-161
-167,-178,-7,172,-75,-93,-20,-183,-161,-179,-155,-149
-155,-184,-25,166,-63,-105,-26,-195,-167,-179,-161,-155
-143,-172,-25,154,-57,-99,-32,-201,-173,-191,-167,-167
-137,-172,-31,154,-51,-105,-26,-195,-161,-191,-167,-167
-137,-166,-25,148,-51,-99,-20,-177,-155,-185,-167,-161
-137,-166,-25,148,-51,-99,-26,-171,-149,-185,-167,-161
-143,-172,-25,154,-57,-99,-32,-183,-161,-197,-173,-173
-149,-178,-25,160,-57,-105,-26,-183,-149,-185,-173,-173
-143,-178,-31,160,-51,-105,-26,-177,-149,-185,-167,-167
-149,-190,-37,166,-51,-117,-20,-183,-149,-173,-161,-161
-155,-208,-49,178,-51,-129,-26,-195,-161,-185,-167,-173
-155,-202,-43,178,-51,-123,-32,-195,-161,-173,-155,-167
-155,-190,-31,172,-57,-111,-32,-171,-155,-161,-143,-149
-155,-196,-37,172,-57,-117,-20,-147,-131,-143,-137,-143
-143,-190,-43,166,-45,-117,-8,-105,-119,-143,-137,-149
-125,-172,-43,148,-39,-111,-3,-51,-83,-119,-131,-143
-107,-166,-55,136,-21,-111,33,50,-11,-65,-95,-119
-101,-148,-43,124,-27,-99,93,218,90,24,-29,-65
-65,-106,-37,82,-9,-75,129,380,228,168,60,12
-6,-34,-25,16,2,-33,153,488,348,288,180,108
24,7,-13,-13,20,-4,165,524,456,432,294,204
84,85,-2,-85,38,38,165,548,570,606,462,348
210,181,-25,-193,116,74,135,482,618,726,600,492
342,289,-49,-313,200,116,69,296,588,798,714,630
504,475,-31,-487,266,218,-50,134,582,924,876,798
744,649,-97,-697,422,272,-296,-57,498,1014,1026,984
954,775,-175,-865,560,296,-596,-375,300,996,1074,1080
1098,871,-229,-979,662,320,-818,-633,126,972,1116,1170
1194,967,-229,-1075,710,368,-1004,-777,-6,942,1128,1224
1206,1021,-181,-1111,692,422,-1178,-999,-191,762,1014,1170
1176,1057,-115,-1117,644,470,-1346,-1329,-485,462,792,1002
1098,1111,4,-1105,542,560,-1502,-1707,-803,126,570,846
948,1087,136,-1015,404,614,-1610,-2091,-1139,-245,300,630
762,973,208,-871,272,590,-1622,-2456,-1457,-653,-17,348
642,823,178,-727,230,500,-1592,-2720,-1715,-983,-323,84
618,583,-31,-601,326,272,-1532,-2678,-1799,-1151,-509,-89
564,343,-223,-457,392,56,-1412,-2415,-1733,-1199,-665,-269
480,145,-337,-313,410,-93,-1256,-2091,-1601,-1187,-755,-437
330,55,-271,-193,302,-105,-1070,-1749,-1391,-1043,-713,-449
198,31,-163,-115,182,-57,-872,-1461,-1169,-875,-593,-383
138,-5,-139,-67,140,-63,-710,-1209,-989,-731,-509,-329
66,7,-55,-37,62,-15,-590,-993,-833,-593,-413,-269
30,-5,-31,-13,32,-9,-488,-825,-707,-503,-341,-221
12,-10,-31,4,20,-21,-392,-699,-599,-455,-305,-209
-6,-22,-13,10,-4,-21,-308,-561,-497,-377,-275,-197
-17,-16,-2,16,-9,-9,-242,-453,-419,-329,-239,-173
-6,-10,-2,4,-4,-9,-182,-363,-359,-281,-215,-161
-47,-22,16,34,-33,-4,-122,-285,-287,-221,-173,-149
-95,-58,28,76,-63,-9,-80,-225,-239,-191,-161,-137
-95,-94,-2,94,-45,-45,-62,-189,-209,-173,-149,-137
-83,-100,-13,88,-33,-57,-50,-159,-191,-149,-137,-137
-89,-118,-25,100,-27,-75,-50,-147,-179,-149,-137,-137
-101,-136,-31,118,-33,-87,-44,-129,-161,-143,-137,-131
-107,-124,-13,112,-45,-69,-14,-99,-143,-137,-125,-119
-101,-124,-19,112,-39,-75,-3,-69,-125,-137,-131,-131
-113,-118,-2,112,-51,-63,3,-45,-107,-131,-137,-131
-101,-106,-2,100,-45,-57,15,-39,-107,-137,-149,-143
-89,-106,-13,94,-33,-63,21,-33,-95,-131,-149,-143
-125,-130,-2,124,-57,-69,15,-33,-89,-119,-137,-131
-149,-148,-2,148,-75,-75,15,-33,-77,-113,-125,-125
-137,-142,-2,136,-63,-75,27,-27,-71,-101,-125,-125
-137,-142,-2,136,-63,-75,21,-21,-71,-107,-113,-119
-161,-160,-2,160,-81,-81,21,-21,-71,-101,-107,-107
-143,-148,-2,142,-69,-75,33,-15,-77,-107,-113,-113
-137,-148,-7,142,-63,-81,51,-4,-59,-95,-113,-107
-149,-154,-2,148,-69,-81,63,14,-29,-95,-107,-95
-137,-160,-19,148,-57,-93,57,14,-41,-101,-125,-113
-125,-154,-25,136,-45,-93,63,20,-35,-101,-119,-119
-131,-154,-19,142,-51,-87,63,26,-29,-83,-101,-101
-161,-172,-7,166,-75,-93,57,20,-29,-83,-95,-101
-155,-172,-13,160,-69,-93,57,14,-29,-71,-95,-107
-143,-154,-7,148,-63,-81,51,26,-29,-65,-83,-95
-119,-148,-25,130,-45,-87,57,44,-11,-59,-77,-83
-83,-112,-25,94,-27,-69,69,50,-6,-59,-71,-83
-71,-106,-31,88,-15,-69,87,68,-6,-53,-77,-83
-101,-118,-13,106,-39,-69,93,92,0,-59,-77,-83
-95,-118,-19,106,-33,-69,105,92,18,-53,-83,-89
-95,-124,-25,106,-33,-75,105,86,12,-59,-89,-101
-113,-136,-19,124,-45,-81,99,86,12,-47,-83,-95
-131,-136,-2,130,-63,-69,99,92,18,-47,-71,-83
-125,-142,-13,130,-51,-81,93,92,18,-23,-59,-65
-71,-124,-49,94,-9,-87,69,80,0,-35,-59,-71
-65,-130,-61,94,-4,-99,69,86,6,-35,-53,-59
-119,-136,-13,124,-51,-75,81,104,24,-23,-41,-53
-125,-130,-2,124,-57,-69,75,116,24,-17,-41,-53
-95,-112,-13,100,-39,-63,75,128,30,-29,-41,-53
-77,-100,-19,88,-27,-63,99,146,54,-11,-41,-53
-71,-82,-7,76,-27,-45,93,140,54,-17,-53,-65
-77,-88,-7,82,-33,-51,81,152,60,-6,-41,-53
-101,-100,-2,100,-51,-51,81,146,60,-6,-35,-59
-113,-118,-2,112,-51,-63,87,146,60,0,-35,-77
-107,-118,-7,112,-45,-63,81,158,60,6,-29,-59
-95,-118,-19,106,-33,-69,87,176,66,18,-11,-29
-89,-112,-19,100,-33,-69,87,188,78,18,-6,-29
-65,-94,-25,76,-15,-63,99,206,84,30,-6,-23
-77,-94,-13,82,-27,-57,99,212,90,12,-11,-23
-83,-88,-2,82,-39,-45,111,224,108,24,-11,-17
-35,-58,-19,46,-4,-39,111,230,114,36,-6,-17
-35,-58,-19,46,-4,-39,111,236,120,54,-6,-6
-53,-64,-7,58,-21,-39,117,236,126,60,0,-6
-29,-58,-25,40,-4,-45,111,248,132,72,12,-6
-29,-58,-25,40,-4,-45,105,254,132,78,24,0
-53,-76,-19,64,-15,-51,111,254,144,72,24,6
-53,-82,-25,64,-9,-57,111,266,144,72,18,0
-35,-70,-31,52,-4,-51,111,290,156,78,18,0
-41,-58,-13,46,-9,-39,111,314,168,72,30,6
-6,-46,-37,22,8,-45,123,320,174,78,24,6
-6,-46,-49,16,20,-45,117,320,174,84,18,6
-6,-46,-43,22,14,-45,123,332,180,96,30,12
-6,-34,-37,10,14,-33,105,338,192,102,36,18
-41,-52,-7,46,-15,-33,111,356,204,132,60,30
-71,-64,-2,64,-39,-27,117,374,216,144,90,60
-41,-46,-2,40,-15,-27,117,380,228,156,102,72
-6,-28,-25,10,2,-27,111,392,222,156,96,72
12,-10,-31,4,20,-21,123,410,234,162,102,78
6,-5,-13,4,8,-4,129,434,246,168,120,96
18,13,-2,-13,8,2,141,452,270,180,114,96
36,31,-2,-31,20,8,141,476,282,210,126,102
42,25,-13,-31,26,2,141,488,294,216,132,108
18,19,-2,-19,8,8,135,488,306,222,138,102
6,7,-2,-7,2,2,135,512,312,234,156,114
24,19,-2,-19,14,2,135,530,324,252,174,138
48,43,-2,-43,26,14,135,554,342,264,192,150
72,55,-13,-61,44,14,153,578,366,270,198,150
90,73,-13,-79,50,26,159,602,372,282,198,144
84,67,-13,-73,50,20,165,638,396,288,204,168
84,73,-7,-79,44,26,171,650,414,294,210,168
96,91,-2,-91,50,38,177,674,426,318,234,180
102,97,-2,-97,50,44,165,674,432,336,240,192
84,97,4,-91,32,50,171,692,456,366,270,216
84,115,22,-97,26,68,183,722,474,402,300,246
90,139,40,-115,20,92,177,728,486,408,318,258
114,145,22,-127,38,86,177,752,504,414,330,270
150,139,-7,-145,80,62,177,776,516,420,324,258
162,157,-2,-157,80,74,183,800,528,432,324,258
174,181,-2,-175,80,92,183,818,546,444,336,264
174,205,22,-187,68,116,201,848,576,468,348,282
174,205,22,-187,68,116,201,866,582,480,360,288
180,205,16,-193,74,110,207,884,606,498,378,306
186,223,28,-205,74,128,201,884,606,504,390,312
180,223,34,-199,68,128,201,896,612,528,408,324
168,223,46,-193,56,134,201,914,624,546,432,354
186,229,34,-205,68,134,201,926,642,564,438,372
216,241,22,-229,92,134,201,938,660,564,438,372
216,259,40,-235,80,152,213,962,672,582,456,384
234,271,34,-247,92,158,213,968,690,582,468,396
240,283,34,-259,98,164,213,968,690,582,456,390
252,295,34,-271,104,170,225,974,708,606,474,396
240,307,58,-271,86,188,219,974,714,618,480,414
228,295,64,-259,74,182,225,962,720,630,492,426
222,295,70,-253,68,188,213,956,714,636,498,438
228,295,64,-259,74,182,213,938,714,636,510,444
246,313,58,-277,92,188,201,920,708,630,516,462
270,325,46,-295,110,188,207,896,702,630,516,462
252,313,52,-283,98,188,207,878,684,624,504,450
252,313,52,-283,98,188,195,836,666,594,492,450
252,331,70,-289,86,206,195,800,648,570,480,432
216,343,124,-277,38,236,207,770,642,570,480,432
192,325,130,-253,26,230,195,722,612,552,474,414
162,295,130,-229,8,218,171,650,564,516,438,390
144,265,118,-205,8,194,153,590,522,486,414,366
156,259,100,-211,20,182,141,542,486,462,402,354
138,241,100,-193,14,176,135,506,462,426,378,336
90,217,118,-151,-9,170,129,464,426,384,336,306
78,205,118,-139,-15,164,129,422,390,336,306,282
84,193,100,-139,-4,146,123,368,348,294,258,234
66,163,88,-115,-4,128,111,320,318,252,222,204
42,145,94,-91,-21,122,117,284,294,228,198,180
36,127,82,-79,-15,104,99,242,252,192,162,150
30,103,64,-67,-9,86,87,206,222,162,144,132
6,61,46,-31,-15,56,75,164,192,144,114,102
-6,31,28,-13,-9,32,69,128,162,114,96,72
-6,31,34,-7,-15,32,63,110,138,96,78,72
6,25,10,-13,-4,20,51,80,102,54,48,54
-6,-5,4,4,-4,-4,39,50,78,18,24,24
-35,-16,10,22,-27,-4,57,44,72,6,12,12
-29,-5,22,10,-27,2,45,14,48,-6,-6,0
-35,-5,22,16,-33,2,39,-4,36,-6,-11,-17
-53,-28,16,40,-39,-4,21,-15,12,-29,-35,-41
-71,-52,10,58,-45,-15,21,-33,0,-41,-41,-41
-89,-64,16,76,-57,-21,9,-51,-17,-47,-41,-47
-89,-70,10,76,-51,-27,15,-57,-17,-47,-35,-41
-89,-52,28,70,-63,-9,21,-57,-11,-53,-41,-41
-77,-58,10,64,-45,-21,21,-69,-23,-65,-59,-53
-65,-70,-2,64,-27,-39,9,-75,-47,-89,-71,-65
-65,-82,-13,70,-21,-51,9,-81,-47,-107,-89,-77
-77,-88,-7,82,-33,-51,15,-81,-47,-107,-89,-83
-89,-76,4,82,-51,-33,21,-75,-47,-101,-95,-101
-101,-82,10,88,-57,-33,21,-87,-53,-95,-89,-89
-113,-106,-2,106,-57,-51,15,-99,-59,-107,-89,-89
-119,-106,4,112,-63,-45,3,-105,-71,-95,-83,-77
-113,-88,16,100,-69,-33,-3,-117,-77,-101,-83,-77
-125,-106,10,112,-69,-45,-3,-123,-77,-107,-89,-71
-125,-118,-2,118,-63,-57,-3,-117,-83,-119,-95,-77
-89,-94,-2,88,-39,-51,3,-105,-83,-119,-95,-77
-71,-82,-7,76,-27,-45,3,-111,-83,-131,-107,-89
-89,-106,-13,94,-33,-63,3,-123,-89,-137,-113,-101
-107,-118,-7,112,-45,-63,3,-129,-95,-137,-125,-119
-101,-112,-7,106,-45,-63,3,-129,-101,-131,-119,-119
-89,-106,-13,94,-33,-63,-3,-141,-101,-125,-113,-113
-83,-88,-2,82,-39,-45,-3,-135,-101,-113,-95,-95
-71,-64,-2,64,-39,-27,-3,-135,-101,-107,-83,-95
-83,-82,-2,82,-39,-39,-3,-135,-101,-113,-89,-95
-107,-94,4,100,-57,-39,-3,-129,-101,-125,-101,-89
-89,-100,-7,94,-39,-57,-3,-117,-101,-137,-113,-101
-83,-100,-13,88,-33,-57,3,-123,-95,-143,-119,-107
-89,-88,-2,88,-45,-45,9,-111,-89,-143,-119,-107
-95,-94,-2,94,-45,-45,3,-117,-95,-137,-119,-107
-101,-112,-7,106,-45,-63,3,-117,-101,-125,-113,-113
-137,-118,10,124,-75,-51,9,-123,-95,-119,-113,-107
-137,-112,16,124,-81,-45,9,-111,-95,-89,-101,-95
-119,-100,10,106,-69,-39,9,-117,-95,-71,-95,-95
-107,-106,-2,106,-51,-51,-3,-129,-101,-83,-107,-107
-89,-112,-19,100,-33,-69,-3,-123,-107,-95,-119,-107
-83,-106,-19,94,-27,-63,-3,-123,-107,-101,-119,-107
-53,-82,-25,64,-9,-57,3,-117,-101,-107,-125,-107
-29,-76,-43,52,-4,-63,-3,-117,-95,-113,-131,-113
-89,-100,-7,94,-39,-57,9,-117,-89,-107,-119,-113
-131,-118,4,124,-69,-51,9,-111,-89,-95,-107,-113
-125,-118,-2,118,-63,-57,3,-123,-95,-95,-119,-113
-125,-106,10,112,-69,-45,9,-117,-95,-71,-95,-89
-125,-106,10,112,-69,-45,9,-111,-89,-65,-89,-83
-137,-130,-2,130,-69,-63,9,-111,-89,-77,-101,-89
-113,-112,-2,112,-57,-57,3,-123,-95,-89,-113,-101
-83,-82,-2,82,-39,-39,3,-105,-89,-83,-101,-95
-95,-88,-2,88,-51,-39,15,-99,-83,-95,-101,-95
-101,-94,-2,94,-51,-45,21,-111,-83,-95,-107,-95
-83,-88,-2,82,-39,-45,3,-123,-95,-95,-119,-113
-77,-82,-2,76,-33,-45,-3,-111,-95,-89,-113,-113
-83,-82,-2,82,-39,-39,3,-111,-95,-83,-107,-107
-101,-88,4,94,-57,-39,-3,-117,-101,-77,-107,-101
-101,-94,-2,94,-51,-45,3,-117,-101,-71,-101,-89
-107,-94,4,100,-57,-39,15,-105,-89,-71,-95,-83
-95,-94,-2,94,-45,-45,3,-111,-89,-89,-113,-95
-95,-100,-2,94,-45,-51,3,-99,-89,-83,-107,-95
-113,-118,-2,112,-51,-63,9,-93,-89,-89,-107,-101
-131,-124,-2,124,-69,-57,15,-99,-83,-89,-119,-101
-119,-100,10,106,-69,-39,9,-105,-83,-83,-107,-101
-107,-100,-2,100,-57,-45,-3,-117,-107,-89,-119,-119
-119,-106,4,112,-63,-45,-3,-123,-107,-83,-119,-125
-113,-88,16,100,-69,-33,3,-117,-95,-53,-95,-101
-95,-82,4,88,-51,-33,3,-111,-95,-47,-77,-95
-101,-88,4,94,-57,-39,-3,-123,-107,-71,-95,-113
-95,-82,4,88,-51,-33,3,-117,-101,-65,-89,-107
-77,-70,-2,70,-39,-33,-3,-111,-95,-71,-101,-107
-95,-70,16,82,-57,-21,9,-111,-89,-89,-113,-113
-113,-82,22,94,-69,-27,9,-111,-89,-89,-113,-113
-113,-88,16,100,-69,-33,3,-123,-95,-95,-125,-125
-113,-94,10,100,-63,-39,-3,-117,-101,-89,-131,-131
-113,-88,16,100,-69,-33,3,-117,-95,-77,-119,-125
-95,-82,4,88,-51,-33,-3,-123,-101,-65,-113,-113
-107,-94,4,100,-57,-39,-3,-117,-101,-65,-107,-113
-107,-94,4,100,-57,-39,-3,-123,-107,-71,-113,-113
-83,-100,-13,88,-33,-57,-3,-129,-107,-77,-119,-131
-95,-100,-2,94,-45,-51,3,-111,-95,-77,-125,-137
-113,-94,10,100,-63,-39,15,-99,-89,-77,-119,-137
-101,-88,4,94,-57,-39,9,-105,-95,-83,-119,-125
-107,-88,10,94,-63,-33,9,-111,-95,-77,-113,-125
-113,-94,10,100,-63,-39,3,-117,-101,-83,-119,-125
-95,-88,-2,88,-51,-39,3,-123,-101,-71,-107,-119
-101,-82,10,88,-57,-33,9,-123,-95,-53,-95,-101
-119,-106,4,112,-63,-45,-3,-123,-101,-59,-101,-107
-107,-106,-2,106,-51,-51,9,-117,-101,-59,-95,-95
-71,-94,-19,82,-21,-57,3,-123,-101,-53,-89,-89
-77,-94,-13,82,-27,-57,3,-117,-89,-47,-83,-89
-101,-94,-2,94,-51,-45,15,-111,-83,-59,-83,-107
-113,-100,4,106,-63,-45,15,-117,-89,-71,-95,-119
-101,-94,-2,94,-51,-45,9,-123,-95,-71,-113,-137
-125,-100,16,112,-75,-39,15,-111,-95,-71,-113,-131
-131,-94,28,112,-81,-27,15,-117,-89,-71,-113,-131
-125,-106,10,112,-69,-45,9,-117,-95,-71,-125,-137
-107,-100,-2,100,-57,-45,-3,-129,-107,-89,-137,-143
-95,-100,-2,94,-45,-51,15,-117,-101,-83,-119,-143
-95,-112,-13,100,-39,-63,15,-129,-113,-95,-131,-155
-77,-106,-25,88,-21,-69,21,-123,-107,-89,-125,-149
-83,-112,-25,94,-27,-69,27,-117,-101,-89,-119,-131
-95,-118,-19,106,-33,-69,45,-111,-89,-83,-119,-125
-125,-112,4,118,-69,-51,39,-111,-77,-77,-113,-125
-143,-118,16,130,-81,-45,33,-111,-83,-77,-113,-125
-137,-118,10,124,-75,-51,39,-111,-89,-83,-113,-119
-131,-124,-2,124,-69,-57,39,-105,-95,-77,-107,-113
-113,-124,-7,118,-51,-69,33,-111,-101,-77,-113,-119
-113,-124,-7,118,-51,-69,33,-111,-101,-83,-113,-113
-89,-118,-25,100,-27,-75,27,-117,-101,-83,-119,-113
-83,-100,-13,88,-33,-57,21,-117,-95,-89,-131,-125
-119,-106,4,112,-63,-45,33,-117,-89,-95,-125,-131
-143,-124,10,130,-81,-51,33,-105,-83,-95,-137,-131
-125,-124,-2,124,-63,-63,15,-111,-95,-101,-143,-143
-113,-112,-2,112,-57,-57,21,-111,-107,-101,-137,-137
-113,-112,-2,112,-57,-57,21,-117,-107,-95,-125,-131
-119,-130,-7,124,-51,-69,9,-123,-113,-83,-119,-125
-113,-130,-13,118,-45,-75,3,-135,-119,-95,-119,-125
-107,-106,-2,106,-51,-51,27,-123,-113,-83,-113,-113
-107,-100,-2,100,-57,-45,27,-123,-107,-83,-113,-113
-113,-118,-2,112,-51,-63,21,-123,-113,-95,-119,-125
-101,-130,-25,112,-33,-81,15,-129,-113,-107,-125,-131
-95,-118,-19,106,-33,-69,33,-117,-95,-101,-125,-119
-119,-118,-2,118,-57,-57,21,-123,-107,-113,-131,-131
-143,-130,4,136,-75,-57,15,-123,-113,-113,-137,-143
-125,-136,-7,130,-57,-75,3,-135,-131,-119,-149,-155
-113,-130,-13,118,-45,-75,-3,-141,-131,-107,-143,-143
-107,-118,-7,112,-45,-63,-3,-141,-125,-107,-131,-137
-107,-100,-2,100,-57,-45,27,-117,-107,-89,-113,-107
-71,-64,-2,64,-39,-27,39,-99,-89,-83,-107,-101
-59,-64,-2,58,-27,-33,63,-69,-71,-65,-101,-89
-77,-58,10,64,-45,-21,75,-57,-53,-65,-95,-95
-89,-40,40,64,-69,-4,93,-39,-29,-47,-77,-89
-95,-22,64,58,-81,14,105,-39,-29,-41,-71,-83
-113,-16,88,64,-105,26,117,-39,-17,-23,-59,-71
-107,-5,94,52,-105,38,123,-39,-17,-17,-41,-53
-95,-5,88,46,-93,38,117,-33,-23,-11,-47,-53
-89,-5,76,46,-87,26,111,-39,-35,-23,-47,-59
-89,-10,70,46,-81,20,105,-45,-41,-29,-59,-65
-71,-16,46,40,-63,8,93,-39,-35,-29,-59,-71
-59,-5,46,28,-57,14,105,-15,-11,-23,-59,-71
-41,-5,28,22,-39,2,111,-4,-6,-23,-53,-65
-29,1,34,4,-33,14,123,-4,0,-17,-53,-59
-23,25,52,4,-39,38,123,2,0,-6,-47,-59
-35,31,70,4,-51,50,105,-4,-6,-6,-29,-47
-23,49,76,-7,-51,62,81,-21,-6,-6,-29,-41
-6,67,70,-25,-33,68,57,-45,-17,-6,-23,-35
-6,67,70,-25,-33,68,21,-63,-23,-6,-17,-35
12,55,34,-31,-4,44,-3,-81,-41,-17,-35,-35
-6,67,70,-25,-33,68,-3,-81,-29,-11,-23,-23
-23,73,100,-19,-63,86,-3,-69,-29,-11,-17,-17
-17,49,70,-7,-45,56,-3,-63,-29,-23,-29,-41
-17,37,58,-1,-39,44,-3,-63,-29,-17,-35,-53
-11,31,46,-1,-27,38,-3,-69,-29,-29,-53,-59
-6,7,16,4,-9,8,-8,-81,-59,-53,-71,-65
-11,-22,-7,16,-4,-15,-20,-117,-89,-83,-95,-95
-29,-58,-25,40,-4,-45,-38,-147,-113,-107,-107,-95
-23,-58,-31,40,-4,-45,-44,-165,-131,-119,-119,-101
-11,-64,-49,34,8,-57,-44,-171,-143,-131,-131,-113
-17,-64,-43,40,2,-57,-44,-177,-143,-137,-143,-113
-35,-76,-37,52,-4,-57,-20,-153,-125,-125,-125,-101
-29,-88,-55,58,2,-75,-26,-153,-131,-137,-125,-107
-47,-106,-55,76,-4,-81,-8,-141,-131,-137,-131,-119
-71,-106,-31,88,-15,-69,-3,-129,-113,-119,-113,-125
-101,-94,-2,94,-51,-45,9,-129,-113,-107,-113,-113
-137,-100,28,118,-87,-33,21,-135,-119,-107,-113,-107
-161,-118,34,136,-99,-39,9,-153,-137,-119,-131,-131
-149,-124,16,136,-87,-51,-3,-171,-149,-137,-143,-143
-137,-124,4,130,-75,-57,-3,-171,-149,-143,-149,-143
-137,-148,-7,142,-63,-81,-3,-177,-155,-161,-161,-161
-137,-160,-19,148,-57,-93,-8,-183,-167,-179,-179,-185
-131,-172,-37,148,-45,-105,-3,-171,-155,-179,-185,-179
-131,-166,-31,148,-45,-99,-8,-171,-167,-185,-197,-185
-113,-172,-55,142,-27,-117,-8,-189,-179,-191,-203,-197
-125,-178,-49,148,-33,-117,-14,-207,-185,-197,-203,-185
-155,-172,-13,160,-69,-93,-3,-201,-167,-167,-173,-161
-155,-190,-31,172,-57,-111,-20,-207,-179,-155,-173,-179
-155,-196,-37,172,-57,-117,-32,-219,-191,-167,-185,-185
-149,-178,-25,160,-57,-105,-20,-207,-185,-173,-173,-167
-143,-172,-25,154,-57,-99,-14,-201,-179,-185,-179,-179
-125,-160,-31,142,-45,-99,-8,-189,-167,-173,-179,-179
-119,-160,-37,136,-39,-99,-3,-177,-161,-185,-185,-185
-131,-178,-43,154,-39,-111,-8,-177,-161,-197,-203,-191
-131,-178,-43,154,-39,-111,-3,-183,-173,-191,-203,-191
-173,-172,-2,172,-87,-87,-3,-183,-167,-173,-185,-173
-167,-172,-2,166,-81,-87,-3,-177,-161,-155,-167,-155
-167,-154,4,160,-87,-69,-3,-189,-167,-161,-167,-155
-167,-166,-2,166,-81,-81,-20,-189,-185,-167,-179,-167
-167,-172,-2,166,-81,-87,-8,-177,-167,-149,-155,-149
-143,-160,-13,148,-63,-87,-3,-159,-155,-143,-149,-149
-125,-154,-25,136,-45,-93,-3,-153,-149,-155,-161,-155
-125,-160,-31,142,-45,-99,-3,-141,-137,-155,-161,-161
-131,-160,-25,142,-51,-93,3,-123,-125,-149,-155,-155
-113,-148,-31,130,-39,-93,15,-81,-107,-125,-143,-143
-107,-154,-43,130,-27,-99,33,-9,-59,-83,-119,-137
-89,-154,-61,118,-9,-111,81,122,18,-23,-77,-107
-41,-100,-55,70,-4,-81,123,284,144,84,-6,-53
-6,-40,-31,22,2,-39,153,440,270,228,102,24
18,-5,-19,-7,20,-4,195,530,402,360,228,132
102,73,-25,-85,62,20,219,578,522,516,366,264
210,157,-49,-181,128,50,189,578,606,672,516,408
300,235,-61,-265,182,86,123,428,594,738,630,534
426,397,-25,-409,230,182,39,236,576,840,756,702
648,583,-61,-613,356,254,-158,50,534,966,924,894
876,721,-157,-793,512,278,-458,-237,360,978,1002,1014
1062,823,-241,-943,650,290,-716,-537,162,930,1038,1092
1242,943,-301,-1093,770,314,-920,-729,6,906,1056,1158
1326,1003,-319,-1165,824,338,-1088,-915,-143,780,972,1122
1266,1015,-247,-1141,758,380,-1256,-1221,-407,480,768,966
1182,1057,-121,-1117,650,470,-1418,-1581,-719,162,552,810
1074,1063,-7,-1069,542,524,-1562,-1977,-1043,-173,318,636
864,985,118,-925,368,554,-1610,-2349,-1367,-545,30,390
696,877,178,-781,254,524,-1586,-2654,-1637,-893,-251,132
666,685,10,-673,320,350,-1538,-2732,-1793,-1103,-467,-65
630,439,-193,-529,410,122,-1430,-2528,-1769,-1187,-629,-251
564,211,-355,-385,464,-69,-1304,-2217,-1667,-1205,-767,-431
444,79,-361,-259,404,-135,-1142,-1881,-1487,-1127,-767,-479
276,61,-217,-169,242,-69,-920,-1557,-1247,-941,-653,-413
192,37,-151,-115,170,-51,-740,-1281,-1043,-773,-551,-353
150,13,-133,-79,140,-51,-608,-1059,-875,-647,-467,-305
108,7,-97,-55,104,-39,-494,-879,-737,-545,-389,-263
90,7,-79,-49,86,-27,-404,-735,-635,-479,-341,-233
90,7,-79,-49,86,-27,-332,-597,-539,-413,-305,-215
42,1,-37,-19,38,-9,-248,-489,-455,-341,-251,-185
-6,-5,-2,4,-4,-4,-188,-405,-377,-281,-221,-167
-41,-16,16,28,-33,-4,-122,-315,-311,-239,-197,-161
-65,-34,22,46,-45,-4,-80,-237,-245,-203,-173,-155
-71,-58,4,64,-39,-21,-44,-183,-203,-167,-155,-149
-71,-82,-7,76,-27,-45,-32,-159,-185,-161,-155,-143
-101,-88,4,94,-57,-39,-8,-117,-149,-137,-131,-125
-107,-94,4,100,-57,-39,-3,-87,-137,-125,-125,-113
-83,-94,-7,88,-33,-51,3,-81,-137,-137,-137,-125
-77,-100,-19,88,-27,-63,21,-69,-125,-143,-143,-131
-89,-94,-2,88,-39,-51,33,-39,-119,-131,-131,-125
-107,-124,-13,112,-45,-69,27,-45,-125,-131,-137,-131
-131,-142,-7,136,-57,-75,21,-45,-125,-125,-137,-137
-119,-118,-2,118,-57,-57,27,-33,-107,-113,-131,-131
-107,-112,-2,106,-51,-57,27,-33,-101,-113,-125,-131
-83,-100,-13,88,-33,-57,45,-27,-89,-107,-125,-119
-89,-94,-2,88,-39,-51,51,-9,-65,-89,-107,-107
-113,-112,-2,112,-57,-57,51,2,-41,-77,-89,-95
-101,-118,-13,106,-39,-69,51,8,-41,-83,-101,-101
-83,-112,-25,94,-27,-69,63,14,-41,-89,-119,-113
-89,-100,-7,94,-39,-57,69,20,-47,-107,-131,-119
-119,-118,-2,118,-57,-57,75,26,-41,-101,-113,-113
-131,-118,4,124,-69,-51,81,32,-35,-83,-95,-101
-137,-112,16,124,-81,-45,81,44,-23,-59,-77,-89
-125,-112,4,118,-69,-51,75,44,-11,-53,-77,-95
-95,-124,-25,106,-33,-75,75,44,-17,-65,-89,-113
-71,-112,-37,88,-15,-75,69,38,-29,-77,-101,-113
-77,-106,-25,88,-21,-69,75,56,-17,-59,-83,-101
-83,-94,-7,88,-33,-51,81,74,-6,-53,-83,-95
-77,-88,-7,82,-33,-51,93,80,-6,-59,-89,-101
-89,-70,10,76,-51,-27,105,86,-6,-47,-77,-95
-83,-76,-2,76,-45,-33,105,86,0,-47,-71,-89
-59,-70,-7,64,-21,-39,87,80,-6,-59,-95,-107
-53,-52,-2,52,-27,-27,105,110,-6,-35,-77,-89
-59,-52,-2,52,-33,-21,99,110,6,-29,-65,-77
-107,-94,4,100,-57,-39,105,104,12,-23,-59,-71
-95,-94,-2,94,-45,-45,93,92,6,-23,-65,-77
-65,-82,-13,70,-21,-51,99,110,-6,-23,-47,-59
-53,-76,-19,64,-15,-51,93,110,12,-11,-41,-53
-71,-76,-2,70,-33,-39,99,134,24,-6,-41,-47
-95,-70,16,82,-57,-21,105,152,42,-11,-41,-41
-83,-52,22,64,-57,-9,111,152,42,-17,-41,-47
-47,-52,-2,46,-21,-27,111,158,42,-6,-47,-47
-65,-58,-2,58,-33,-27,117,176,54,0,-41,-53
-89,-64,16,76,-57,-21,105,158,60,-6,-41,-65
-59,-64,-2,58,-27,-33,105,164,60,0,-29,-53
-35,-52,-13,40,-9,-33,87,164,60,12,-29,-47
-53,-64,-7,58,-21,-39,93,182,66,12,-23,-41
-17,-46,-25,28,-4,-39,105,188,72,6,-23,-41
12,-16,-37,4,20,-27,117,212,84,18,-17,-35
18,-22,-49,4,32,-33,105,206,84,12,-23,-41
-6,-52,-43,28,8,-51,117,218,90,6,-11,-35
-6,-46,-37,22,8,-45,111,230,90,30,-6,-17
-11,-34,-19,22,-4,-27,105,236,96,42,-6,-11
-29,-22,-2,22,-15,-9,123,254,126,72,18,-6
-17,-22,-2,16,-4,-15,129,266,138,78,24,0
-23,-28,-2,22,-9,-15,123,272,150,90,30,12
-35,-22,4,28,-21,-4,129,284,156,90,36,18
-11,-22,-7,16,-4,-15,123,290,156,84,36,12
0,-10,-19,4,8,-15,117,290,150,78,30,0
6,-5,-7,-1,8,-4,123,314,162,96,48,12
12,13,-2,-13,2,2,141,326,174,102,60,18
6,19,4,-13,-4,14,141,338,186,120,66,30
-6,13,16,-1,-9,14,135,338,180,120,60,24
18,19,-2,-19,8,8,123,344,192,126,66,24
24,25,-2,-25,8,8,123,356,198,132,72,36
12,13,-2,-13,2,2,129,380,222,144,66,48
42,25,-13,-31,26,2,123,386,228,132,78,54
54,43,-7,-49,32,14,135,410,240,150,96,72
66,49,-13,-55,38,14,135,428,246,162,96,78
54,55,-2,-55,26,26,135,440,252,168,108,84
48,49,-2,-49,20,20,135,464,258,174,120,84
48,37,-7,-43,26,8,135,464,270,186,114,84
54,55,-2,-55,26,26,141,482,276,192,114,84
60,61,-2,-61,26,26,135,494,288,210,132,78
72,67,-2,-67,38,26,141,506,312,228,150,102
78,91,4,-85,32,50,165,536,330,252,174,138
90,103,4,-97,38,56,153,554,354,264,192,144
114,109,-2,-109,56,50,153,584,372,282,210,156
126,115,-7,-121,68,50,153,602,378,282,204,156
120,127,-2,-121,56,62,159,602,384,282,204,162
120,139,10,-127,50,74,183,638,408,312,234,192
132,145,4,-139,56,74,177,662,420,330,246,198
126,151,16,-139,50,86,165,680,444,342,258,204
138,169,22,-151,50,98,171,698,462,360,270,216
156,181,16,-169,62,98,171,722,474,384,294,234
174,193,10,-181,74,104,171,740,486,414,312,252
192,199,-2,-193,92,98,177,752,504,414,312,264
198,211,4,-205,92,110,189,776,528,432,330,276
198,205,-2,-199,92,104,201,818,546,450,342,294
174,199,16,-187,74,110,189,830,552,450,336,294
186,211,16,-199,80,116,195,848,564,474,360,312
204,229,16,-217,86,122,201,866,576,492,378,324
210,247,34,-229,80,146,201,884,600,510,390,312
228,265,34,-241,92,152,201,896,618,522,402,318
234,265,22,-247,104,146,207,914,636,534,420,342
246,277,22,-259,110,152,201,932,648,546,420,354
264,307,34,-283,110,176,219,968,678,570,444,378
282,313,22,-295,128,170,225,968,690,576,456,384
276,313,28,-295,122,176,225,980,696,582,450,384
276,325,40,-301,116,188,231,992,702,594,462,396
282,319,28,-301,122,176,231,986,702,600,474,408
264,319,46,-289,104,188,225,980,702,612,480,420
228,337,106,-277,56,224,225,1004,726,642,516,444
258,349,82,-301,86,218,213,992,726,648,528,456
264,343,70,-301,92,212,207,968,726,642,528,456
264,355,82,-307,86,224,207,956,714,648,540,456
276,385,100,-331,86,242,201,932,708,660,564,468
282,391,100,-337,86,242,195,908,708,648,558,474
282,391,100,-337,86,242,195,878,696,630,528,456
288,391,94,-337,92,242,195,854,690,612,510,450
282,391,100,-337,86,242,189,818,672,600,504,444
264,385,112,-325,74,248,183,776,648,576,480,438
234,361,118,-295,56,236,177,728,618,552,468,414
204,355,148,-277,20,248,165,686,594,534,456,402
186,343,154,-259,8,248,165,632,564,516,438,384
174,325,148,-247,8,236,165,578,528,486,426,372
162,307,142,-235,2,230,141,524,498,456,402,348
162,283,118,-223,14,206,129,482,462,408,360,306
162,259,94,-211,26,182,123,446,420,348,318,270
144,247,100,-199,14,176,123,392,384,312,276,234
108,217,100,-163,-4,158,111,332,336,264,240,204
90,193,94,-139,-4,146,99,278,294,234,210,174
78,187,100,-133,-4,146,93,236,258,216,186,156
48,157,100,-103,-21,128,75,206,234,192,174,144
54,139,76,-97,-4,110,69,158,204,156,138,120
54,133,70,-91,-4,104,69,134,180,126,126,96
24,97,64,-61,-15,80,51,98,144,90,102,72
0,73,64,-37,-27,68,51,74,126,60,84,48
0,49,40,-25,-15,44,45,50,96,24,42,12
-6,49,46,-19,-21,50,45,32,72,0,18,0
-6,49,46,-19,-21,50,45,26,72,-6,0,-6
-23,31,58,4,-39,44,57,20,60,-6,-6,-6
-53,13,70,10,-63,38,51,2,36,-6,-6,-6
-47,1,52,16,-51,26,33,-15,24,-11,-6,-11
-53,-5,46,22,-51,14,27,-27,18,-17,-6,-29
-53,-10,34,28,-45,2,27,-45,0,-29,-23,-41
-41,-22,10,28,-27,-4,21,-57,-6,-47,-35,-41
-41,-34,-2,34,-21,-15,21,-63,-6,-71,-53,-59
-53,-40,4,46,-33,-15,27,-63,-6,-77,-65,-59
-47,-28,10,34,-33,-4,21,-81,-23,-83,-71,-77
-53,-28,16,40,-39,-4,21,-81,-29,-89,-65,-77
-65,-34,22,46,-45,-4,15,-93,-35,-83,-71,-83
-71,-40,22,52,-51,-4,-3,-105,-53,-101,-77,-101
-89,-52,28,70,-63,-9,-3,-111,-53,-101,-83,-101
-101,-76,16,88,-63,-27,-3,-111,-53,-107,-89,-107
-101,-82,10,88,-57,-33,-3,-111,-53,-119,-107,-125
-77,-52,16,64,-51,-15,-3,-117,-59,-113,-101,-113
-41,-34,-2,34,-21,-15,3,-117,-59,-113,-95,-101
-47,-52,-2,46,-21,-27,3,-117,-59,-131,-113,-101
-71,-58,4,64,-39,-21,9,-111,-59,-125,-101,-101
-101,-58,34,76,-69,-9,27,-111,-53,-107,-71,-77
-95,-64,22,76,-63,-15,21,-117,-59,-107,-71,-77
-83,-64,10,70,-51,-21,3,-117,-65,-113,-83,-89
-83,-70,4,76,-45,-27,-3,-117,-65,-119,-95,-107
-101,-76,16,88,-63,-27,3,-111,-59,-113,-101,-107
-101,-70,22,82,-63,-21,3,-105,-53,-113,-89,-95
-65,-46,10,52,-39,-15,-3,-111,-59,-119,-95,-101
-53,-46,-2,46,-27,-21,-3,-123,-65,-125,-107,-101
-77,-64,4,70,-45,-27,3,-111,-59,-119,-95,-89
-119,-76,34,94,-81,-15,9,-105,-59,-113,-89,-95
-119,-82,28,100,-75,-21,3,-117,-71,-119,-95,-101
-95,-64,22,76,-63,-15,3,-129,-77,-119,-101,-95
-77,-64,4,70,-45,-27,3,-129,-77,-119,-95,-95
-83,-70,4,76,-45,-27,3,-129,-77,-125,-101,-113
-83,-70,4,76,-45,-27,3,-129,-77,-125,-107,-107
-95,-76,10,82,-57,-27,-3,-123,-71,-119,-95,-101
-83,-70,4,76,-45,-27,-3,-117,-71,-113,-89,-101
-77,-64,4,70,-45,-27,-3,-135,-77,-125,-101,-119
-83,-76,-2,76,-45,-33,3,-129,-83,-143,-107,-119
-77,-70,-2,70,-39,-33,9,-123,-89,-143,-113,-125
-71,-46,16,58,-45,-9,-3,-129,-89,-143,-119,-125
-71,-34,28,52,-51,-4,9,-117,-71,-125,-107,-113
-89,-46,34,64,-63,-4,3,-111,-77,-125,-107,-107
-107,-58,40,82,-75,-4,-3,-117,-77,-113,-95,-101
-95,-58,28,76,-63,-9,-3,-123,-71,-107,-95,-101
-71,-58,4,64,-39,-21,-3,-105,-71,-107,-95,-95
-77,-70,-2,70,-39,-33,-3,-123,-83,-131,-101,-107
-77,-76,-2,76,-39,-39,-3,-123,-89,-137,-101,-113
-47,-58,-7,52,-15,-33,-3,-123,-89,-137,-101,-101
-47,-58,-7,52,-15,-33,3,-117,-83,-131,-101,-101
-95,-64,22,76,-63,-15,27,-93,-65,-113,-89,-89
-113,-76,28,94,-75,-21,21,-99,-77,-119,-101,-101
-113,-76,28,94,-75,-21,3,-111,-83,-125,-107,-113
-113,-70,34,88,-75,-15,-3,-117,-83,-113,-95,-101
-101,-70,22,82,-63,-21,9,-117,-71,-101,-89,-101
-95,-76,10,82,-57,-27,9,-111,-65,-107,-101,-101
-95,-88,-2,88,-51,-39,3,-105,-71,-119,-107,-113
-89,-88,-2,88,-45,-45,-3,-111,-71,-119,-113,-119
-89,-76,4,82,-51,-33,-3,-117,-77,-125,-113,-125
-83,-70,4,76,-45,-27,-3,-123,-83,-131,-113,-131
-59,-76,-13,64,-21,-45,-3,-129,-101,-149,-125,-131
-59,-82,-19,70,-15,-51,-3,-129,-89,-143,-125,-119
-89,-76,4,82,-51,-33,3,-123,-83,-125,-113,-113
-101,-76,16,88,-63,-27,9,-105,-71,-113,-95,-101
-107,-88,10,94,-63,-33,15,-105,-65,-107,-83,-89
-113,-106,-2,106,-57,-51,21,-117,-71,-113,-101,-95
-95,-94,-2,94,-45,-45,9,-117,-71,-119,-101,-107
-107,-88,10,94,-63,-33,21,-93,-59,-113,-95,-95
-125,-106,10,112,-69,-45,33,-93,-59,-125,-107,-107
-125,-106,10,112,-69,-45,21,-99,-77,-131,-119,-125
-119,-100,10,106,-69,-39,15,-105,-77,-131,-113,-119
-131,-106,16,118,-75,-39,21,-105,-71,-119,-101,-107
-113,-94,10,100,-63,-39,9,-111,-89,-119,-107,-119
-95,-76,10,82,-57,-27,9,-99,-77,-113,-95,-101
-83,-82,-2,82,-39,-39,15,-93,-71,-101,-89,-89
-101,-100,-2,100,-51,-51,15,-93,-71,-113,-101,-95
-119,-106,4,112,-63,-45,15,-93,-71,-113,-95,-95
-137,-118,10,124,-75,-51,21,-87,-53,-95,-71,-77
-131,-112,10,118,-75,-45,27,-81,-53,-101,-83,-71
-101,-94,-2,94,-51,-45,27,-87,-59,-107,-89,-83
-107,-112,-2,106,-51,-57,15,-105,-77,-119,-101,-101
-137,-118,10,124,-75,-51,21,-99,-71,-113,-95,-107
-119,-94,16,106,-69,-33,21,-99,-77,-107,-89,-113
-131,-100,22,112,-81,-33,15,-99,-71,-101,-77,-125
-137,-118,10,124,-75,-51,15,-105,-65,-101,-95,-131
-125,-112,4,118,-69,-51,9,-99,-65,-113,-113,-131
-119,-100,10,106,-69,-39,15,-93,-65,-125,-119,-119
-113,-94,10,100,-63,-39,21,-87,-53,-113,-113,-113
-125,-112,4,118,-69,-51,33,-87,-59,-113,-113,-113
-131,-106,16,118,-75,-39,39,-87,-59,-119,-101,-113
-131,-106,16,118,-75,-39,39,-87,-59,-113,-101,-113
-125,-106,10,112,-69,-45,33,-75,-59,-101,-95,-107
-143,-106,28,124,-87,-33,27,-75,-59,-95,-83,-101
-155,-112,34,130,-99,-33,21,-87,-65,-101,-89,-113
-149,-130,10,136,-81,-57,9,-99,-59,-113,-107,-119
-131,-130,-2,130,-63,-63,9,-99,-65,-119,-101,-113
-125,-118,-2,118,-63,-57,3,-111,-77,-125,-107,-119
-131,-130,-2,130,-63,-63,3,-123,-77,-131,-113,-119
-137,-130,-2,130,-69,-63,3,-111,-77,-125,-107,-113
-119,-106,4,112,-63,-45,3,-111,-83,-131,-113,-113
-107,-106,-2,106,-51,-51,15,-105,-83,-125,-119,-113
-131,-124,-2,124,-69,-57,21,-105,-77,-131,-125,-119
-155,-130,16,142,-87,-51,21,-99,-77,-131,-119,-113
-149,-124,16,136,-87,-51,9,-111,-83,-125,-107,-107
-131,-118,4,124,-69,-51,15,-111,-77,-107,-89,-101
-125,-112,4,118,-69,-51,21,-105,-71,-107,-83,-95
-125,-118,-2,118,-63,-57,9,-105,-77,-113,-95,-101
-113,-124,-7,118,-51,-69,3,-105,-71,-113,-95,-107
-113,-112,-2,112,-57,-57,9,-105,-71,-119,-113,-119
-119,-112,-2,112,-63,-51,15,-99,-77,-137,-119,-131
-131,-136,-2,130,-63,-69,15,-111,-89,-143,-131,-131
-131,-148,-13,136,-57,-81,3,-129,-95,-143,-131,-137
-149,-148,-2,148,-75,-75,-3,-135,-101,-143,-125,-137
-161,-148,4,154,-87,-69,3,-117,-89,-125,-113,-125
-119,-142,-19,130,-45,-81,3,-117,-83,-113,-113,-113
-119,-130,-7,124,-51,-69,15,-105,-77,-119,-113,-101
-137,-142,-2,136,-63,-75,9,-123,-83,-131,-125,-113
-107,-130,-19,118,-39,-75,3,-123,-77,-125,-113,-119
-89,-118,-25,100,-27,-75,-3,-117,-83,-137,-125,-125
-113,-118,-2,112,-51,-63,9,-111,-77,-137,-119,-113
-119,-130,-7,124,-51,-69,3,-123,-77,-137,-125,-119
-137,-142,-2,136,-63,-75,3,-123,-95,-137,-119,-119
-143,-136,-2,136,-75,-63,15,-117,-89,-125,-107,-107
-113,-112,-2,112,-57,-57,21,-117,-77,-113,-95,-101
-83,-94,-7,88,-33,-51,33,-93,-59,-101,-95,-101
-101,-64,28,82,-69,-15,57,-69,-35,-77,-71,-83
-95,-52,34,70,-69,-4,75,-63,-11,-59,-53,-59
-107,-40,58,70,-87,2,99,-39,-6,-53,-41,-47
-119,-28,82,70,-105,20,111,-33,-6,-53,-41,-53
-113,-22,82,64,-99,20,105,-39,-6,-53,-29,-53
-89,-16,64,52,-81,14,105,-33,-6,-47,-29,-41
-95,-10,76,52,-87,26,117,-21,-6,-53,-47,-53
-95,-22,64,58,-81,14,105,-33,-6,-53,-53,-65
-101,-34,58,64,-81,2,105,-39,-6,-47,-35,-47
-89,-28,52,58,-75,2,99,-33,-6,-29,-29,-53
-65,-22,34,40,-51,-4,105,-15,6,-35,-29,-47
-71,-34,28,52,-51,-4,117,-4,18,-35,-35,-47
-83,-16,58,46,-75,14,117,-4,30,-29,-23,-41
-53,-5,52,22,-51,20,105,2,30,-23,-17,-35
-35,13,52,4,-45,32,93,-4,24,-17,-6,-23
-23,49,76,-7,-51,62,69,-27,18,-17,-6,-17
-29,67,100,-13,-63,80,57,-33,12,-6,-6,-17
-35,43,82,4,-57,62,21,-51,-6,-17,-17,-35
-35,37,76,4,-57,56,-3,-69,-6,-29,-23,-29
-29,49,82,-1,-57,62,-8,-69,-6,-29,-17,-11
-35,37,76,4,-57,56,-3,-51,6,-6,-6,0
-53,25,82,4,-69,50,-3,-51,0,-6,0,0
-47,-5,46,16,-45,20,-8,-81,-11,-35,-17,-6
-29,-28,-2,28,-15,-15,-20,-87,-35,-65,-41,-35
-17,-52,-31,34,-4,-45,-26,-93,-53,-77,-53,-41
-11,-28,-13,16,-4,-21,-26,-123,-65,-89,-59,-53
-23,-40,-13,28,-4,-27,-20,-135,-77,-101,-71,-71
-53,-76,-19,64,-15,-51,-20,-153,-101,-119,-95,-89
-89,-106,-13,94,-33,-63,-32,-177,-125,-137,-113,-101
-77,-118,-37,94,-15,-81,-32,-177,-119,-137,-125,-101
-53,-112,-55,82,-4,-87,-32,-153,-125,-131,-119,-107
-65,-130,-61,94,-4,-99,-26,-153,-113,-143,-119,-107
-95,-142,-43,118,-21,-93,-3,-147,-101,-131,-107,-101
-101,-118,-13,106,-39,-69,15,-117,-77,-107,-89,-95
-113,-124,-7,118,-51,-69,15,-111,-83,-119,-107,-107
-125,-154,-25,136,-45,-93,3,-141,-113,-149,-137,-131
-119,-166,-43,142,-33,-105,-3,-147,-125,-155,-137,-143
-131,-160,-25,142,-51,-93,-3,-153,-137,-143,-143,-137
-137,-172,-31,154,-51,-105,-8,-171,-149,-161,-149,-137
-149,-184,-31,166,-57,-111,-14,-195,-161,-179,-167,-161
-173,-190,-13,178,-75,-105,-20,-195,-167,-179,-167,-167
-161,-196,-31,178,-63,-117,-26,-195,-167,-185,-173,-167
-173,-202,-25,184,-69,-117,-14,-183,-149,-185,-155,-155
-173,-184,-7,178,-81,-99,-3,-177,-137,-173,-149,-149
-167,-184,-13,172,-75,-99,-3,-189,-149,-185,-167,-149
-173,-202,-25,184,-69,-117,-8,-189,-161,-191,-173,-155
-179,-214,-31,196,-69,-123,-20,-195,-161,-185,-161,-155
-167,-214,-43,190,-57,-129,-20,-195,-173,-179,-161,-155
-167,-214,-43,190,-57,-129,-14,-195,-167,-185,-161,-149
-143,-208,-61,172,-39,-135,-14,-189,-167,-185,-167,-155
-137,-196,-55,166,-39,-129,-8,-183,-155,-197,-179,-161
-155,-196,-37,172,-57,-117,-8,-189,-155,-197,-179,-173
-149,-190,-37,166,-51,-117,-3,-177,-149,-179,-161,-161
-125,-190,-61,154,-27,-129,-8,-183,-155,-179,-167,-161
-119,-202,-79,160,-15,-141,-8,-183,-161,-179,-161,-155
-137,-196,-55,166,-39,-129,-14,-189,-161,-173,-149,-149
-155,-190,-31,172,-57,-111,-3,-159,-143,-155,-137,-131
-155,-172,-13,160,-69,-93,-3,-159,-143,-149,-137,-131
-173,-190,-13,178,-75,-105,-3,-165,-137,-155,-143,-137
-179,-190,-7,184,-81,-99,-3,-165,-137,-149,-137,-131
-173,-184,-7,178,-81,-99,-3,-147,-131,-137,-131,-113
-155,-196,-37,172,-57,-117,-3,-135,-119,-143,-143,-131
-161,-202,-37,178,-57,-123,9,-105,-95,-137,-131,-131
-137,-184,-43,160,-45,-117,15,-57,-71,-113,-125,-125
-119,-172,-49,142,-33,-111,57,50,-6,-59,-95,-101
-89,-142,-49,112,-15,-99,111,230,114,36,-11,-41
-53,-100,-43,76,-4,-75,141,380,240,168,78,30
-6,-52,-49,22,14,-51,165,482,360,306,204,120
48,7,-37,-25,44,-9,177,530,474,462,336,228
132,85,-43,-109,86,14,165,542,570,618,486,372
228,157,-67,-193,146,38,135,476,624,738,630,504
378,283,-91,-331,236,92,87,308,618,828,744,648
576,481,-97,-523,338,188,-20,146,588,936,900,834
768,649,-121,-709,446,260,-278,-51,498,1008,1032,1008
954,763,-187,-859,566,284,-548,-369,282,984,1086,1122
1122,871,-247,-991,686,308,-776,-639,78,930,1104,1206
1242,967,-277,-1105,758,338,-968,-837,-77,834,1074,1218
1236,1009,-229,-1123,728,392,-1118,-1095,-299,624,924,1110
1158,1057,-97,-1105,626,482,-1262,-1425,-569,342,726,966
1050,1099,40,-1075,500,572,-1436,-1797,-893,-6,492,792
870,1021,148,-949,356,584,-1550,-2199,-1235,-413,180,522
678,913,232,-793,224,572,-1580,-2582,-1583,-815,-161,222
600,733,130,-667,236,434,-1574,-2780,-1805,-1097,-407,0
564,499,-61,-529,314,218,-1490,-2654,-1829,-1217,-575,-161
504,283,-223,-397,362,26,-1340,-2331,-1709,-1217,-701,-329
426,127,-295,-271,362,-81,-1160,-1983,-1541,-1145,-737,-425
276,55,-223,-169,248,-75,-962,-1629,-1319,-989,-665,-395
162,31,-127,-97,146,-39,-776,-1335,-1097,-815,-545,-335
126,25,-97,-73,110,-27,-632,-1107,-911,-659,-449,-275
66,7,-55,-37,62,-15,-518,-921,-761,-539,-359,-227
36,-5,-37,-13,38,-15,-452,-789,-665,-485,-317,-203
24,-5,-25,-7,26,-9,-368,-657,-569,-419,-287,-191
24,-5,-31,-7,26,-15,-290,-537,-491,-377,-263,-185
18,-10,-37,4,26,-21,-242,-447,-413,-335,-245,-173
0,-22,-31,4,14,-27,-176,-357,-347,-287,-227,-167
-11,-34,-19,22,-4,-27,-116,-267,-275,-245,-203,-155
-59,-58,-2,58,-27,-27,-74,-213,-227,-203,-179,-149
-89,-94,-2,88,-39,-51,-38,-159,-185,-167,-149,-137
-113,-124,-7,118,-51,-69,-8,-129,-161,-137,-131,-119
-113,-130,-13,118,-45,-75,-14,-111,-161,-137,-125,-113
-89,-136,-43,112,-21,-93,-8,-105,-149,-137,-113,-101
-89,-136,-43,112,-21,-93,-3,-81,-131,-125,-95,-95
-71,-106,-31,88,-15,-69,15,-51,-101,-119,-89,-89
-53,-94,-37,70,-4,-69,27,-45,-101,-131,-107,-101
-95,-112,-13,100,-39,-63,21,-33,-95,-131,-119,-113
-101,-112,-7,106,-45,-63,33,-21,-89,-125,-119,-101
-107,-112,-2,106,-51,-57,27,-33,-89,-119,-113,-107
-125,-136,-7,130,-57,-75,33,-33,-89,-113,-107,-113
-113,-148,-31,130,-39,-93,21,-33,-89,-101,-107,-113
-101,-142,-37,118,-27,-93,27,-27,-83,-107,-113,-125
-83,-148,-61,112,-9,-105,33,-9,-71,-113,-107,-119
-101,-166,-61,130,-15,-117,51,2,-47,-101,-101,-113
-143,-154,-7,148,-63,-81,57,20,-35,-89,-95,-101
-137,-148,-7,142,-63,-81,69,38,-17,-89,-89,-89
-113,-148,-31,130,-39,-93,57,38,-29,-95,-107,-107
-107,-142,-31,124,-33,-87,63,32,-23,-89,-113,-107
-95,-118,-19,106,-33,-69,75,50,-17,-71,-89,-83
-101,-112,-7,106,-45,-63,75,50,-11,-59,-71,-71
-113,-148,-31,130,-39,-93,63,56,-11,-41,-71,-59
-143,-148,-2,142,-69,-75,81,68,-6,-29,-59,-41
-125,-136,-7,130,-57,-75,81,62,-6,-47,-53,-41
-107,-136,-25,118,-39,-81,69,68,-6,-47,-53,-47
-113,-142,-25,124,-39,-87,75,86,-6,-41,-53,-59
-107,-130,-19,118,-39,-75,87,92,0,-47,-59,-71
-101,-112,-7,106,-45,-63,99,110,6,-47,-65,-83
-95,-112,-13,100,-39,-63,93,104,12,-47,-71,-77
-101,-112,-7,106,-45,-63,87,110,6,-41,-65,-71
-101,-106,-2,100,-45,-57,87,110,6,-35,-47,-71
-89,-112,-19,100,-33,-69,87,116,6,-23,-41,-65
-89,-130,-37,106,-21,-87,75,122,0,-35,-53,-59
-77,-136,-55,106,-9,-99,75,116,12,-29,-41,-59
-71,-118,-43,94,-9,-81,81,122,12,-29,-47,-53
-77,-118,-37,94,-15,-81,93,134,18,-23,-41,-47
-89,-118,-25,100,-27,-75,87,134,18,-29,-47,-53
-71,-100,-25,82,-21,-63,81,146,30,-17,-35,-53
-35,-70,-31,52,-4,-51,87,158,36,-6,-35,-41
-65,-70,-2,64,-27,-39,93,170,48,-6,-29,-29
-71,-82,-7,76,-27,-45,87,176,48,-6,-17,-23
-59,-100,-37,76,-9,-69,87,182,60,18,-11,-23
-65,-94,-25,76,-15,-63,93,194,66,18,-6,-17
-95,-94,-2,94,-45,-45,87,194,72,18,-6,-11
-89,-94,-2,88,-39,-51,81,194,66,24,-6,-17
-47,-58,-7,52,-15,-33,93,212,78,36,6,-11
-35,-40,-2,34,-15,-21,111,236,96,48,18,-6
-41,-52,-7,46,-15,-33,105,236,96,36,6,-6
-35,-64,-25,46,-4,-45,99,236,90,30,-6,-11
-47,-58,-7,52,-15,-33,117,260,114,54,12,-6
-71,-76,-2,70,-33,-39,111,254,120,48,6,-6
-65,-82,-13,70,-21,-51,105,254,120,60,6,-6
-41,-70,-25,52,-4,-51,99,266,126,66,18,12
-17,-58,-37,34,2,-51,111,278,144,84,42,36
0,-52,-61,16,26,-57,105,296,150,84,42,36
6,-64,-79,22,38,-69,99,296,144,66,24,24
-6,-64,-67,28,26,-63,99,308,156,66,24,24
-6,-52,-55,22,20,-51,105,314,168,84,30,24
0,-34,-43,10,20,-39,117,332,186,102,42,36
-6,-10,-7,4,-4,-9,117,350,180,114,60,36
-6,-5,-2,4,-4,-4,111,356,192,132,78,48
-6,-5,-2,4,-4,-4,111,368,192,144,90,60
-6,-5,-2,4,-4,-4,105,386,210,162,108,78
12,7,-2,-7,8,-4,111,398,222,156,120,90
42,25,-13,-31,26,2,105,416,228,174,126,96
36,25,-7,-31,20,2,117,440,240,186,138,114
42,25,-13,-31,26,2,117,458,252,180,138,120
42,37,-2,-37,20,14,129,476,270,192,144,108
42,31,-7,-37,26,8,129,488,282,204,132,108
48,37,-7,-43,26,8,129,494,282,216,144,108
60,49,-7,-55,32,14,135,506,300,234,168,120
66,55,-7,-61,38,20,129,518,312,246,186,132
72,55,-13,-61,44,14,123,530,318,258,198,150
78,55,-19,-67,50,14,129,548,336,270,210,162
90,67,-19,-79,56,20,117,572,354,282,216,168
108,91,-13,-97,62,32,129,608,378,294,222,180
108,103,-2,-103,56,44,141,632,390,306,234,204
90,109,10,-97,32,62,153,656,414,330,258,216
108,127,10,-115,44,68,153,674,432,348,270,228
144,133,-7,-139,74,56,141,680,432,360,276,234
150,145,-2,-145,74,68,135,692,438,384,294,240
138,157,10,-145,56,86,147,722,462,408,318,264
168,157,-7,-163,86,68,147,740,480,426,342,276
174,169,-2,-169,86,80,153,758,492,444,354,294
168,193,16,-181,68,104,153,788,516,462,372,312
186,211,16,-199,80,116,165,824,546,480,384,324
192,217,16,-205,80,116,177,842,564,486,390,330
186,229,34,-205,68,134,189,854,576,492,396,324
198,229,22,-211,80,128,177,866,576,504,402,324
192,235,34,-211,74,134,171,884,588,528,420,348
186,241,52,-217,62,152,177,902,612,558,444,360
204,253,46,-229,74,152,183,926,630,582,456,384
234,253,16,-241,104,140,183,938,642,588,474,396
234,259,22,-241,98,146,177,932,648,588,480,396
246,283,28,-265,104,158,189,956,666,600,492,426
270,295,16,-283,122,158,195,968,678,612,498,444
270,283,4,-277,128,146,189,968,690,618,504,450
276,295,10,-283,128,158,189,968,690,630,510,438
276,313,28,-295,122,176,183,962,696,636,522,450
240,313,64,-277,86,194,183,962,708,660,534,462
234,307,64,-271,80,188,159,938,690,654,528,456
258,325,58,-289,98,194,159,926,684,654,540,474
234,343,100,-289,62,224,177,932,696,672,564,498
258,355,88,-307,80,224,165,902,690,660,558,480
300,355,46,-325,122,206,153,860,678,636,534,480
294,355,52,-325,116,206,159,836,666,624,528,480
264,337,64,-301,98,206,165,794,648,600,522,474
264,343,70,-301,92,212,159,746,618,582,504,456
264,355,82,-307,86,224,159,716,600,570,492,450
228,325,94,-271,62,212,171,668,576,546,480,432
186,295,106,-235,32,206,147,614,534,504,450,408
162,277,112,-223,20,200,129,560,492,480,420,372
150,271,118,-211,8,200,123,506,468,450,390,342
114,253,136,-187,-4,200,123,470,444,414,360,318
90,235,142,-163,-21,194,129,440,408,384,342,306
78,235,148,-157,-27,194,123,392,372,342,318,270
78,205,118,-139,-15,164,105,344,330,288,258,228
54,157,94,-103,-15,128,105,308,300,246,228,198
30,139,100,-85,-27,122,99,266,270,216,204,168
18,121,94,-67,-33,110,81,212,222,180,174,138
18,103,76,-61,-21,92,69,170,180,156,156,114
0,61,52,-31,-21,56,69,146,162,138,126,96
-23,31,58,4,-39,44,51,104,126,96,90,66
-35,19,58,4,-45,38,39,86,102,66,72,54
-6,7,16,4,-9,8,33,68,90,48,60,42
-17,-5,16,4,-15,2,45,50,72,12,30,24
-53,-22,22,34,-39,-4,45,26,48,-6,-6,-6
-59,-28,22,40,-45,-4,45,8,30,-11,-6,-6
-53,-10,34,28,-45,2,39,2,24,-23,-6,-11
-71,-28,34,46,-57,-4,21,-9,-6,-35,-17,-23
-71,-34,28,52,-51,-4,33,-27,-6,-35,-11,-29
-53,-28,16,40,-39,-4,27,-39,-23,-35,-23,-41
-47,-52,-2,46,-21,-27,3,-57,-47,-65,-41,-47
-65,-70,-2,64,-27,-39,-3,-69,-47,-89,-65,-77
-65,-70,-2,64,-27,-39,3,-75,-47,-95,-71,-77
-83,-76,-2,76,-45,-33,21,-63,-41,-89,-53,-71
-119,-82,28,100,-75,-21,27,-63,-35,-95,-53,-65
-113,-88,16,100,-69,-33,21,-75,-53,-89,-65,-71
-89,-82,-2,82,-45,-39,9,-81,-71,-101,-83,-83
-95,-94,-2,94,-45,-45,15,-87,-77,-107,-89,-83
-113,-106,-2,106,-57,-51,15,-99,-77,-101,-77,-71
-107,-106,-2,106,-51,-51,9,-99,-95,-95,-77,-71
-119,-112,-2,112,-63,-51,3,-99,-89,-89,-77,-65
-119,-106,4,112,-63,-45,3,-99,-71,-95,-71,-65
-95,-94,-2,94,-45,-45,15,-93,-77,-101,-77,-59
-83,-118,-31,100,-21,-75,3,-99,-89,-131,-107,-101
-101,-136,-31,118,-33,-87,-3,-111,-95,-149,-125,-131
-113,-112,-2,112,-57,-57,-3,-117,-101,-137,-125,-119
-131,-106,16,118,-75,-39,9,-105,-95,-125,-107,-107
-113,-94,10,100,-63,-39,3,-111,-101,-119,-107,-101
-113,-100,4,106,-63,-45,9,-111,-95,-107,-95,-89
-119,-112,-2,112,-63,-51,15,-111,-89,-95,-83,-83
-89,-94,-2,88,-39,-51,3,-117,-83,-107,-89,-95
-83,-94,-7,88,-33,-51,9,-111,-83,-119,-89,-101
-83,-100,-13,88,-33,-57,-3,-117,-95,-137,-101,-95
-83,-112,-25,94,-27,-69,-3,-117,-95,-143,-113,-107
-101,-106,-2,100,-45,-57,-3,-105,-89,-137,-113,-107
-107,-94,4,100,-57,-39,9,-111,-89,-137,-113,-107
-113,-106,-2,106,-57,-51,9,-111,-95,-131,-107,-113
-101,-112,-7,106,-45,-63,9,-117,-95,-125,-113,-113
-95,-106,-7,100,-39,-57,-3,-117,-89,-125,-101,-107
-101,-94,-2,94,-51,-45,3,-111,-95,-113,-101,-107
-83,-100,-13,88,-33,-57,-3,-117,-107,-119,-113,-119
-77,-106,-25,88,-21,-69,-3,-123,-101,-125,-113,-113
-89,-106,-13,94,-33,-63,-3,-111,-95,-125,-101,-95
-89,-106,-13,94,-33,-63,3,-111,-95,-125,-101,-101
