,,,,,,,,,,,
2019-09-01 15:34:51,,,,,,,,,,,
,,,,,,,,,,,
I,II,III,aVR,aVL,aVF,V1,V2,V3,V4,V5,V6
-32,-70,-34,51,-6,-52,32,1,-67,-70,-147,-113
-32,-70,-34,51,-6,-52,32,1,-67,-70,-147,-113
-32,-70,-34,51,-6,-52,32,1,-67,-70,-147,-113
-32,-70,-34,51,-6,-52,32,1,-67,-70,-147,-113
-32,-64,-28,45,-6,-46,32,-5,-67,-76,-141,-119
-32,-64,-28,45,-6,-46,32,-5,-67,-76,-141,-119
-32,-58,-22,45,-6,-40,32,-11,-67,-82,-135,-125
-32,-58,-22,45,-6,-40,32,-11,-67,-82,-135,-125
-32,-58,-22,45,-6,-40,32,-11,-73,-82,-129,-125
-32,-58,-22,45,-6,-40,32,-11,-73,-82,-129,-125
-32,-58,-22,45,-6,-40,32,-11,-79,-82,-123,-125
-32,-58,-22,45,-6,-40,32,-11,-79,-82,-123,-125
-38,-64,-22,51,-6,-46,32,-11,-79,-88,-129,-131
-38,-64,-22,51,-6,-46,32,-11,-79,-88,-129,-131
-44,-70,-22,57,-6,-46,32,-11,-79,-94,-135,-137
-44,-70,-22,57,-6,-46,32,-11,-79,-94,-135,-137
-38,-64,-22,51,-6,-46,32,-17,-79,-88,-135,-131
-38,-58,-16,45,-6,-40,32,-17,-79,-88,-135,-131
-32,-52,-16,39,-6,-34,32,-23,-79,-82,-135,-125
-32,-46,-10,39,-6,-28,32,-23,-79,-82,-135,-125
-32,-52,-16,39,-6,-34,38,-17,-73,-76,-135,-131
-32,-52,-16,39,-6,-34,38,-17,-67,-76,-135,-131
-32,-58,-22,45,-6,-40,44,-11,-61,-70,-135,-137
-32,-58,-22,45,-6,-40,44,-11,-55,-70,-135,-137
-32,-58,-22,45,-6,-40,38,-11,-61,-76,-135,-131
-32,-58,-22,45,-6,-40,38,-11,-61,-76,-135,-131
-32,-58,-22,45,-6,-40,32,-11,-73,-82,-141,-125
-32,-58,-22,45,-6,-40,32,-11,-73,-82,-141,-125
-32,-64,-28,45,-6,-46,38,-17,-67,-82,-141,-131
-32,-64,-28,45,-6,-46,38,-17,-67,-82,-141,-131
-32,-64,-28,45,-6,-46,38,-23,-67,-82,-141,-131
-32,-58,-22,45,-6,-40,38,-23,-67,-82,-141,-131
-26,-52,-22,39,-6,-40,32,-23,-67,-82,-135,-137
-26,-52,-22,39,-6,-40,32,-23,-67,-82,-135,-137
-20,-46,-22,33,-6,-34,26,-23,-67,-88,-123,-143
-20,-46,-22,33,-6,-34,26,-23,-67,-88,-123,-143
-26,-58,-28,39,-6,-46,32,-23,-73,-82,-129,-149
-26,-58,-28,39,-6,-46,32,-23,-73,-82,-129,-143
-32,-64,-28,45,-6,-46,38,-23,-67,-76,-135,-149
-32,-64,-28,45,-6,-46,38,-23,-67,-76,-141,-155
-32,-64,-28,45,-6,-46,38,-23,-61,-82,-135,-149
-32,-64,-28,45,-6,-46,38,-23,-61,-82,-135,-149
-26,-70,-40,45,0,-58,38,-23,-55,-88,-129,-143
-26,-70,-40,45,0,-58,38,-23,-61,-88,-129,-143
-26,-64,-34,45,-6,-52,32,-23,-61,-94,-135,-143
-26,-58,-28,39,-6,-46,32,-29,-67,-94,-135,-143
-26,-52,-22,39,-6,-40,32,-29,-67,-94,-141,-143
-26,-52,-22,39,-6,-40,32,-29,-61,-94,-141,-143
-26,-58,-28,39,-6,-46,32,-29,-61,-88,-135,-149
-20,-58,-34,39,0,-46,32,-29,-61,-88,-135,-149
-20,-64,-40,39,0,-52,32,-29,-61,-88,-129,-149
-26,-64,-34,45,-6,-52,38,-29,-61,-88,-129,-149
-32,-58,-22,45,-6,-40,44,-23,-61,-82,-135,-155
-26,-64,-34,45,-6,-52,38,-23,-61,-82,-141,-149
-32,-58,-22,45,-6,-40,44,-29,-61,-76,-141,-155
-32,-52,-16,39,-6,-34,44,-29,-61,-76,-147,-155
-20,-52,-28,33,-6,-40,38,-35,-67,-82,-141,-155
-20,-52,-28,33,-6,-40,32,-35,-67,-88,-135,-155
-8,-52,-40,27,6,-46,26,-41,-67,-94,-129,-155
-8,-52,-40,27,6,-46,26,-35,-67,-100,-123,-149
-8,-46,-34,27,6,-40,26,-29,-55,-88,-129,-149
-2,-34,-28,15,6,-34,38,-23,-55,-82,-123,-143
-8,-34,-22,21,0,-28,38,-17,-55,-76,-129,-143
-8,-34,-22,21,0,-28,38,-17,-55,-76,-129,-143
-2,-28,-22,15,0,-28,38,-11,-55,-76,-129,-143
-2,-22,-16,9,0,-22,38,-11,-55,-76,-129,-137
9,-10,-16,-3,6,-16,44,-11,-55,-70,-135,-137
9,-10,-16,-3,6,-16,38,-11,-55,-70,-135,-137
9,-16,-28,-3,12,-22,26,-17,-55,-70,-129,-143
15,-16,-40,-9,24,-28,26,-23,-55,-70,-129,-143
21,-22,-52,-9,36,-34,20,-29,-55,-70,-111,-143
21,-22,-52,-9,36,-34,20,-29,-55,-70,-111,-143
21,-10,-40,-15,30,-22,14,-23,-49,-70,-117,-143
33,-4,-46,-21,36,-22,8,-17,-31,-58,-111,-137
39,14,-34,-21,36,-10,8,-5,-25,-58,-111,-131
45,26,-28,-26,36,2,8,-5,-25,-52,-105,-119
51,31,-22,-38,36,8,20,6,-13,-40,-99,-113
51,37,-10,-44,30,20,20,6,-7,-34,-99,-113
51,37,-10,-44,30,20,26,6,-2,-28,-93,-107
45,31,-10,-38,30,20,26,6,-2,-28,-93,-101
39,31,-4,-32,24,20,20,6,-7,-28,-93,-101
39,31,-10,-32,24,14,20,6,-19,-40,-93,-107
21,31,8,-21,6,25,20,6,-25,-40,-105,-107
21,20,-10,-21,12,8,20,6,-25,-40,-105,-107
21,8,-22,-21,18,-4,26,1,-19,-40,-111,-113
21,8,-22,-21,18,-4,32,1,-25,-52,-117,-119
21,-10,-40,-15,30,-22,38,-5,-19,-52,-129,-137
15,-16,-40,-9,24,-28,38,-11,-19,-52,-141,-143
9,-16,-34,-3,18,-22,38,-17,-37,-58,-135,-149
9,-16,-34,-3,18,-22,38,-23,-37,-58,-129,-149
9,-16,-28,-3,12,-22,32,-23,-49,-64,-123,-155
-2,-28,-22,15,0,-28,32,-23,-55,-70,-123,-155
4,-28,-28,9,6,-28,32,-23,-55,-76,-129,-149
-2,-34,-28,15,6,-34,32,-29,-55,-76,-141,-161
4,-40,-40,15,12,-40,38,-35,-55,-88,-147,-161
-8,-46,-34,27,6,-40,38,-35,-55,-88,-153,-161
-8,-52,-40,27,6,-46,38,-41,-61,-94,-141,-173
-14,-52,-34,33,0,-46,38,-41,-61,-94,-129,-173
-14,-52,-34,33,0,-46,32,-47,-67,-100,-123,-179
-14,-52,-34,33,0,-46,38,-47,-67,-100,-111,-179
-20,-52,-28,33,-6,-40,44,-47,-61,-100,-117,-179
-26,-52,-22,39,-6,-40,44,-47,-61,-100,-117,-179
-26,-52,-22,39,-6,-40,50,-47,-55,-94,-123,-185
-26,-58,-28,39,-6,-46,56,-53,-55,-94,-129,-185
-32,-58,-22,45,-6,-40,56,-47,-49,-94,-141,-179
-38,-58,-16,45,-6,-40,56,-47,-49,-94,-147,-179
-56,-58,2,57,-23,-28,56,-41,-43,-94,-159,-173
-62,-58,8,57,-29,-28,56,-35,-43,-94,-171,-173
-56,-64,-4,57,-23,-34,50,-41,-49,-94,-159,-179
-50,-64,-10,57,-17,-40,44,-41,-49,-94,-153,-179
-44,-64,-16,51,-11,-40,38,-53,-55,-94,-129,-173
-44,-64,-16,51,-11,-40,38,-53,-55,-94,-123,-167
-68,-52,19,57,-41,-16,38,-59,-67,-118,-135,-203
-152,-64,79,105,-119,14,80,-23,-49,-82,-249,-203
-128,-64,55,93,-95,2,92,6,-2,-58,-237,-179
-80,-64,19,69,-47,-22,92,6,-2,-76,-135,-173
-86,-76,14,81,-47,-34,116,48,4,-58,-141,-197
-110,-76,25,93,-71,-22,158,132,58,-46,-195,-215
-98,-88,14,93,-53,-40,212,258,148,-16,-195,-227
-74,-88,-10,81,-29,-52,254,372,232,1,-177,-239
-56,-82,-22,69,-11,-52,308,486,304,37,-153,-239
-56,-46,14,51,-29,-16,362,558,376,85,-111,-221
-50,14,55,15,-53,25,392,642,460,151,-33,-185
-14,85,103,-26,-59,91,404,774,574,259,62,-101
69,217,139,-140,-29,181,392,918,730,403,176,6
171,343,169,-260,-6,259,350,1008,868,529,314,132
249,475,217,-362,12,343,284,1074,1012,691,488,282
375,649,265,-506,48,463,212,1092,1180,877,698,474
495,823,319,-662,84,571,86,1014,1288,1051,908,696
633,979,337,-800,144,661,-75,906,1336,1207,1112,918
753,1117,355,-938,198,739,-267,744,1324,1303,1304,1128
837,1237,391,-1034,222,811,-429,552,1228,1351,1448,1290
813,1297,481,-1052,168,889,-495,336,1072,1297,1466,1350
711,1243,523,-974,90,883,-483,150,880,1159,1334,1260
507,1051,535,-776,-6,793,-393,-59,622,919,1028,1032
327,853,517,-590,-89,691,-315,-329,274,601,668,732
189,703,505,-446,-155,607,-315,-623,-97,283,362,498
93,601,505,-344,-203,553,-363,-815,-379,73,164,318
51,517,457,-278,-197,487,-417,-845,-469,-10,38,204
51,415,355,-236,-149,385,-471,-761,-469,-58,-21,120
63,277,211,-170,-65,247,-471,-671,-445,-88,-57,60
69,145,67,-104,-6,109,-417,-563,-391,-106,-69,-18
69,37,-28,-50,48,14,-369,-479,-367,-124,-81,-95
45,-16,-70,-21,54,-40,-309,-449,-373,-148,-93,-149
4,-46,-46,21,18,-46,-243,-395,-343,-136,-153,-179
-38,-76,-34,57,-6,-58,-183,-347,-301,-118,-213,-203
-32,-100,-64,63,6,-82,-141,-323,-283,-142,-213,-215
-20,-100,-76,57,18,-88,-105,-293,-283,-166,-189,-221
-26,-88,-58,57,6,-76,-57,-227,-253,-178,-195,-221
-62,-88,-22,75,-17,-58,-9,-173,-217,-166,-225,-197
-50,-76,-22,63,-11,-52,2,-125,-157,-124,-189,-173
9,-76,-82,33,36,-82,20,-89,-121,-130,-81,-173
4,-76,-76,33,30,-76,14,-77,-109,-142,-45,-185
-56,-76,-16,63,-17,-46,38,-47,-97,-112,-141,-185
-62,-64,2,63,-29,-34,38,-35,-49,-88,-165,-173
-32,-58,-22,45,-6,-40,26,-35,-37,-76,-141,-161
-20,-58,-34,39,0,-46,14,-47,-49,-76,-129,-167
-32,-64,-28,45,-6,-46,20,-47,-55,-76,-147,-167
-44,-70,-22,57,-6,-46,32,-47,-61,-88,-171,-167
-68,-76,-4,69,-29,-40,44,-35,-61,-94,-189,-173
-80,-76,8,75,-41,-34,62,-35,-61,-94,-207,-179
-86,-100,-10,93,-35,-58,74,-23,-61,-100,-189,-185
-92,-100,-4,93,-41,-52,74,-17,-55,-100,-177,-185
-74,-106,-28,87,-17,-70,74,-17,-43,-106,-159,-191
-44,-106,-58,75,0,-82,74,-23,-37,-106,-135,-191
-38,-100,-58,69,0,-82,62,-23,-37,-94,-129,-185
-44,-100,-52,69,-6,-76,62,-23,-37,-94,-141,-185
-38,-94,-52,63,0,-76,62,-23,-37,-88,-153,-179
-38,-88,-46,63,-6,-70,62,-23,-37,-88,-153,-179
-38,-82,-40,57,-6,-64,62,-17,-37,-94,-147,-179
-44,-82,-34,63,-6,-58,68,-11,-37,-94,-147,-179
-44,-76,-28,57,-6,-52,62,-11,-37,-94,-141,-179
-44,-76,-28,57,-6,-52,62,-11,-37,-88,-141,-179
-50,-82,-28,63,-6,-58,68,1,-25,-82,-147,-179
-44,-82,-34,63,-6,-58,68,1,-25,-82,-141,-173
-44,-88,-40,63,-6,-64,74,-5,-13,-76,-153,-173
-50,-88,-34,69,-6,-64,74,-5,-13,-76,-165,-173
-44,-76,-28,57,-6,-52,74,-5,-19,-82,-159,-167
-38,-70,-28,51,-6,-52,74,-5,-19,-76,-159,-167
-32,-64,-28,45,-6,-46,74,-11,-25,-82,-153,-155
-32,-70,-34,51,-6,-52,74,-11,-25,-82,-153,-155
-32,-76,-40,51,-6,-58,74,-5,-25,-82,-147,-161
-32,-76,-40,51,-6,-58,74,-5,-25,-82,-141,-167
-32,-82,-46,57,0,-64,74,1,-25,-82,-135,-173
-26,-82,-52,51,6,-70,74,1,-19,-82,-123,-173
-14,-76,-58,45,12,-70,68,1,-13,-76,-123,-167
-14,-70,-52,39,12,-64,68,1,-7,-76,-123,-167
-8,-64,-52,33,12,-58,56,1,-2,-70,-129,-161
-8,-58,-46,33,12,-52,56,1,-2,-70,-117,-155
-20,-64,-40,39,0,-52,62,6,-7,-76,-129,-161
-20,-64,-40,39,0,-52,62,6,-2,-70,-129,-161
-26,-70,-40,45,0,-58,68,6,-7,-76,-129,-167
-20,-70,-46,45,6,-58,68,6,-7,-76,-123,-167
-20,-64,-40,39,0,-52,62,6,-7,-82,-129,-167
-20,-64,-40,39,0,-52,62,6,-2,-82,-135,-161
-14,-58,-40,33,6,-52,56,1,-2,-88,-129,-161
-14,-58,-40,33,6,-52,56,1,-2,-88,-135,-155
-14,-58,-40,33,6,-52,62,6,-2,-76,-117,-149
-14,-58,-40,33,6,-52,56,6,-2,-76,-129,-143
-2,-58,-52,27,18,-58,62,6,4,-70,-129,-131
-2,-52,-46,27,12,-52,62,6,4,-70,-129,-125
-2,-58,-52,27,18,-58,62,6,10,-64,-123,-119
-2,-58,-52,27,18,-58,62,6,10,-58,-123,-119
-2,-64,-58,33,18,-64,68,12,22,-52,-117,-119
-2,-64,-58,33,18,-64,68,12,28,-46,-111,-113
9,-64,-70,27,30,-70,56,12,22,-52,-99,-119
9,-58,-64,21,30,-64,56,18,22,-46,-99,-119
9,-58,-64,21,30,-64,50,24,22,-46,-93,-125
9,-52,-58,21,24,-58,50,30,22,-40,-93,-125
9,-46,-52,15,24,-52,50,30,28,-40,-111,-119
9,-46,-58,15,30,-52,50,30,40,-34,-117,-113
15,-34,-58,3,36,-46,50,36,40,-34,-117,-107
15,-28,-52,-3,30,-40,50,42,34,-34,-117,-107
15,-28,-52,-3,30,-40,50,48,40,-28,-105,-101
27,-28,-64,-9,42,-46,50,48,46,-22,-93,-95
33,-34,-76,-9,54,-52,56,54,52,-22,-87,-89
33,-28,-70,-9,48,-46,50,60,52,-22,-81,-83
33,-28,-70,-9,48,-46,50,66,58,-22,-87,-83
45,-22,-76,-21,60,-46,44,66,70,-10,-87,-77
45,-16,-70,-21,54,-40,44,60,70,-5,-87,-77
45,-16,-70,-21,54,-40,44,72,70,-5,-93,-71
45,-10,-64,-21,54,-34,38,78,70,-5,-87,-65
57,-10,-76,-21,66,-40,38,72,76,-5,-69,-65
63,-10,-82,-21,72,-46,26,66,70,-5,-57,-59
75,-10,-94,-26,84,-52,26,60,76,-5,-45,-59
81,2,-88,-32,84,-40,20,66,76,-5,-39,-41
81,2,-88,-32,84,-40,14,84,82,1,-39,-35
81,20,-70,-44,72,-22,14,96,94,1,-45,-29
93,26,-76,-50,84,-22,8,102,100,7,-39,-24
99,31,-76,-56,84,-22,8,108,106,13,-27,-18
111,31,-82,-68,96,-22,2,114,112,19,-15,-12
111,31,-76,-68,96,-16,2,114,118,25,-3,-12
111,37,-70,-74,90,-10,2,126,124,49,-3,0
117,43,-70,-80,96,-4,2,126,124,49,2,-6
135,55,-76,-92,108,-4,2,126,124,49,2,0
135,61,-70,-98,102,2,2,120,118,43,2,6
135,67,-64,-98,102,8,-3,132,130,43,2,6
153,73,-76,-110,114,8,-15,138,136,49,8,24
159,85,-70,-122,114,14,-21,144,148,55,26,30
183,91,-88,-134,138,8,-33,162,154,67,50,42
195,103,-88,-146,144,14,-39,168,160,73,50,60
195,109,-82,-152,138,20,-39,174,166,79,68,78
201,115,-82,-158,144,25,-51,174,178,91,80,78
207,121,-82,-164,144,25,-51,180,184,97,92,96
231,133,-94,-182,162,25,-57,180,190,97,104,108
231,139,-88,-182,162,25,-63,180,190,97,116,114
231,145,-82,-188,156,25,-69,180,196,109,116,120
225,157,-64,-188,144,43,-75,186,196,115,110,132
243,163,-76,-200,162,37,-81,192,202,121,122,144
249,163,-82,-206,168,37,-87,198,208,133,122,150
249,169,-82,-212,168,37,-93,198,202,133,134,162
255,169,-88,-212,174,37,-105,204,208,139,134,174
261,175,-88,-218,180,37,-111,204,208,145,140,186
273,181,-94,-230,186,37,-117,186,202,139,152,186
279,181,-100,-230,192,37,-123,186,196,133,164,198
291,199,-94,-248,198,49,-129,174,190,133,176,198
291,205,-88,-248,192,55,-135,174,184,127,182,204
291,199,-94,-248,198,49,-135,180,190,133,170,210
291,211,-82,-254,192,61,-141,180,184,139,170,216
285,205,-82,-248,186,55,-141,186,184,145,164,216
279,205,-76,-242,180,61,-141,174,178,145,158,216
285,205,-82,-248,186,55,-147,174,178,145,170,216
285,205,-82,-248,186,55,-147,174,178,145,182,216
291,205,-88,-248,192,55,-147,180,178,145,194,216
297,205,-94,-254,198,49,-147,168,178,145,206,216
297,205,-94,-254,198,49,-147,156,166,145,200,216
297,205,-94,-254,198,49,-147,150,154,139,182,216
291,193,-100,-242,198,43,-135,144,142,139,170,216
285,187,-100,-236,198,37,-129,132,136,133,164,210
279,193,-88,-236,186,49,-123,138,136,133,152,204
267,187,-82,-230,180,49,-111,132,130,127,140,192
249,193,-58,-224,156,61,-105,120,124,121,122,180
243,187,-52,-212,150,61,-99,108,118,109,116,162
225,181,-40,-200,132,67,-87,96,106,97,98,138
201,169,-28,-182,114,67,-75,84,100,85,86,120
189,163,-22,-176,108,67,-63,72,88,79,74,96
171,151,-16,-158,96,61,-45,60,76,67,50,84
153,127,-22,-140,90,49,-39,48,64,55,44,72
141,121,-16,-128,78,49,-27,36,64,43,26,54
129,109,-16,-116,72,43,-15,18,46,31,2,48
123,97,-22,-110,72,31,-9,6,40,25,2,30
105,97,-4,-98,54,43,2,6,40,13,-9,18
87,85,2,-86,42,37,8,6,28,1,-15,0
81,67,-10,-74,48,25,20,-5,28,-5,-15,-6
69,61,-4,-62,36,25,26,-11,22,-5,-21,-12
51,43,-4,-44,30,25,38,-29,10,-5,-45,-24
39,37,2,-38,18,25,44,-41,4,-10,-63,-41
21,31,2,-21,6,20,50,-47,-2,-16,-81,-71
21,26,-4,-21,12,14,56,-53,-2,-28,-99,-89
9,20,2,-21,0,14,62,-47,-2,-28,-111,-83
9,14,8,-15,-6,8,68,-53,-2,-34,-129,-83
-8,-4,8,3,-6,2,80,-47,-2,-40,-135,-89
-14,-10,8,9,-6,-4,80,-47,-2,-46,-147,-101
-8,-16,-4,9,-6,-10,80,-65,-7,-52,-141,-101
-14,-28,-10,21,-6,-22,80,-71,-13,-52,-141,-113
-8,-28,-16,15,-6,-22,86,-77,-13,-58,-135,-119
-14,-28,-10,21,-6,-22,86,-77,-13,-64,-153,-125
-14,-46,-28,27,0,-40,86,-77,-19,-64,-159,-131
-14,-46,-28,27,0,-40,92,-77,-25,-70,-159,-131
-14,-58,-40,33,6,-52,92,-77,-31,-70,-171,-137
-20,-58,-34,39,0,-46,92,-83,-31,-70,-171,-137
-20,-52,-28,33,-6,-40,92,-83,-25,-76,-171,-143
-20,-46,-22,33,-6,-34,92,-83,-25,-76,-171,-143
-20,-46,-22,33,-6,-34,92,-83,-19,-76,-171,-137
-20,-40,-16,27,-6,-28,92,-95,-19,-76,-171,-149
-14,-40,-22,27,-6,-34,92,-83,-19,-82,-171,-155
-20,-46,-22,33,-6,-34,92,-83,-19,-76,-177,-149
-20,-58,-34,39,0,-46,92,-83,-19,-82,-177,-155
-20,-70,-46,45,6,-58,92,-83,-19,-82,-177,-155
-20,-64,-40,39,0,-52,92,-83,-25,-88,-183,-161
-20,-64,-40,39,0,-52,92,-83,-25,-88,-183,-167
-20,-58,-34,39,0,-46,92,-83,-31,-88,-195,-173
-20,-64,-40,39,0,-52,92,-83,-31,-88,-195,-179
-26,-64,-34,45,-6,-52,98,-83,-25,-88,-189,-173
-26,-64,-34,45,-6,-52,98,-83,-25,-88,-189,-173
-32,-64,-28,45,-6,-46,104,-77,-19,-82,-189,-167
-32,-64,-28,45,-6,-46,98,-77,-19,-82,-189,-173
-32,-70,-34,51,-6,-52,98,-71,-25,-82,-195,-167
-32,-70,-34,51,-6,-52,104,-71,-25,-82,-195,-167
-32,-76,-40,51,-6,-58,104,-71,-31,-82,-195,-161
-32,-76,-40,51,-6,-58,104,-71,-31,-82,-195,-161
-26,-76,-46,51,0,-64,98,-77,-31,-82,-189,-167
-32,-76,-40,51,-6,-58,98,-77,-31,-82,-177,-161
-14,-76,-58,45,12,-70,92,-77,-31,-88,-159,-167
-8,-76,-64,39,18,-70,92,-77,-31,-94,-135,-167
-20,-70,-46,45,6,-58,98,-71,-31,-88,-153,-161
-20,-70,-46,45,6,-58,98,-71,-31,-88,-159,-167
-26,-64,-34,45,-6,-52,104,-65,-31,-82,-165,-167
-26,-64,-34,45,-6,-52,104,-59,-31,-82,-171,-167
-26,-64,-34,45,-6,-52,104,-59,-25,-82,-177,-161
-26,-64,-34,45,-6,-52,104,-59,-19,-82,-177,-161
-26,-64,-34,45,-6,-52,104,-59,-7,-76,-183,-149
-26,-64,-34,45,-6,-52,104,-53,-2,-76,-177,-149
-20,-64,-40,39,0,-52,104,-47,-2,-70,-171,-149
-8,-64,-52,33,12,-58,104,-41,-2,-76,-165,-149
-14,-64,-46,39,6,-58,104,-35,-2,-70,-159,-149
-14,-64,-46,39,6,-58,110,-35,-2,-70,-159,-149
-8,-70,-58,39,18,-64,104,-35,-2,-76,-153,-149
-8,-64,-52,33,12,-58,104,-35,-2,-76,-141,-155
-8,-70,-58,39,18,-64,98,-41,-2,-82,-135,-155
-8,-70,-58,39,18,-64,98,-41,-2,-76,-135,-155
-32,-64,-28,45,-6,-46,104,-35,-2,-70,-153,-155
-44,-64,-16,51,-11,-40,104,-29,-2,-70,-171,-155
-56,-58,2,57,-23,-28,116,-23,4,-64,-183,-155
-50,-58,-4,51,-17,-34,116,-23,4,-64,-195,-149
-38,-58,-16,45,-6,-40,110,-23,-2,-64,-177,-149
-26,-58,-28,39,-6,-46,104,-23,-2,-70,-165,-149
-14,-58,-40,33,6,-52,98,-29,-2,-82,-147,-149
-8,-58,-46,33,12,-52,92,-23,-2,-88,-135,-155
-14,-58,-40,33,6,-52,98,-23,-2,-82,-141,-155
-14,-58,-40,33,6,-52,98,-23,-2,-82,-153,-155
-20,-58,-34,39,0,-46,104,-23,-2,-76,-159,-155
-20,-58,-34,39,0,-46,104,-23,-2,-76,-165,-149
-20,-58,-34,39,0,-46,110,-17,-2,-76,-177,-149
-26,-58,-28,39,-6,-46,110,-17,-2,-76,-177,-149
-32,-58,-22,45,-6,-40,104,-11,4,-70,-177,-155
-38,-58,-16,45,-6,-40,104,-11,4,-70,-177,-155
-32,-52,-16,39,-6,-34,104,-11,4,-64,-171,-155
-32,-52,-16,39,-6,-34,104,-11,4,-64,-171,-155
-26,-40,-10,33,-6,-28,104,-11,4,-58,-159,-155
-26,-40,-10,33,-6,-28,104,-11,4,-58,-159,-155
-26,-46,-16,33,-6,-34,104,-11,4,-58,-165,-149
-26,-46,-16,33,-6,-34,104,-17,4,-58,-165,-143
-32,-52,-16,39,-6,-34,104,-17,4,-58,-165,-137
-32,-52,-16,39,-6,-34,104,-17,-2,-64,-159,-137
-26,-46,-16,33,-6,-34,98,-11,-2,-70,-153,-137
-20,-46,-22,33,-6,-34,98,-11,-2,-70,-153,-137
-14,-40,-22,27,-6,-34,92,-17,-2,-70,-147,-137
-8,-40,-28,21,0,-34,92,-17,-2,-70,-147,-137
-14,-40,-22,27,-6,-34,98,-17,-2,-70,-159,-143
-20,-40,-16,27,-6,-28,92,-17,-2,-70,-165,-143
-32,-40,-4,33,-11,-22,98,-17,-2,-64,-183,-149
-38,-46,-4,39,-11,-28,98,-17,-2,-64,-189,-155
4,-46,-46,21,18,-46,86,-29,-2,-76,-141,-155
-32,-46,-10,39,-6,-28,92,-23,-7,-70,-171,-161
-38,-52,-10,45,-11,-34,98,-23,-13,-70,-171,-161
-38,-52,-10,45,-11,-34,98,-23,-13,-70,-171,-161
-44,-58,-10,51,-11,-34,104,-23,-19,-70,-171,-161
-44,-58,-10,51,-11,-34,104,-23,-19,-70,-171,-161
-38,-58,-16,45,-6,-40,98,-23,-19,-70,-171,-155
-32,-58,-22,45,-6,-40,98,-23,-13,-70,-171,-155
-26,-64,-34,45,-6,-52,92,-29,-7,-70,-165,-155
-20,-64,-40,39,0,-52,92,-29,-2,-70,-165,-155
-26,-64,-34,45,-6,-52,86,-35,-13,-70,-165,-155
-26,-58,-28,39,-6,-46,86,-35,-13,-70,-165,-155
-32,-58,-22,45,-6,-40,86,-35,-19,-70,-165,-155
-32,-58,-22,45,-6,-40,86,-35,-19,-70,-165,-155
-32,-52,-16,39,-6,-34,92,-29,-19,-76,-165,-155
-32,-52,-16,39,-6,-34,92,-29,-19,-76,-165,-155
-32,-52,-16,39,-6,-34,98,-23,-25,-76,-171,-155
-32,-52,-16,39,-6,-34,98,-23,-25,-76,-171,-149
-32,-58,-22,45,-6,-40,92,-29,-19,-82,-165,-149
-32,-58,-22,45,-6,-40,92,-29,-19,-82,-171,-155
-38,-64,-22,51,-6,-46,86,-35,-19,-88,-165,-155
-38,-64,-22,51,-6,-46,86,-35,-19,-88,-165,-155
-32,-64,-28,45,-6,-46,86,-35,-19,-88,-165,-155
-32,-64,-28,45,-6,-46,86,-35,-25,-88,-165,-155
-26,-58,-28,39,-6,-46,80,-35,-25,-94,-165,-155
-26,-52,-22,39,-6,-40,80,-41,-31,-94,-165,-155
-32,-58,-22,45,-6,-40,86,-41,-31,-94,-165,-155
-32,-58,-22,45,-6,-40,86,-41,-25,-94,-165,-155
-38,-64,-22,51,-6,-46,92,-41,-25,-88,-165,-161
-32,-64,-28,45,-6,-46,92,-41,-25,-88,-165,-161
-26,-64,-34,45,-6,-52,86,-41,-31,-88,-159,-161
-32,-64,-28,45,-6,-46,92,-41,-31,-88,-159,-161
-26,-64,-34,45,-6,-52,86,-35,-37,-88,-153,-161
-20,-70,-46,45,6,-58,80,-35,-37,-88,-153,-155
-20,-64,-40,39,0,-52,86,-35,-31,-88,-153,-155
-20,-52,-28,33,-6,-40,86,-35,-31,-88,-153,-155
-14,-46,-28,27,0,-40,92,-29,-25,-88,-159,-155
-14,-40,-22,27,-6,-34,86,-29,-25,-88,-159,-155
-2,-34,-28,15,6,-34,86,-23,-19,-82,-153,-149
-2,-28,-22,15,0,-28,86,-17,-19,-76,-147,-143
9,-10,-16,-3,6,-16,86,-11,-7,-64,-141,-137
9,8,-4,-15,0,2,98,-5,-7,-52,-129,-131
9,14,8,-15,-6,8,104,-5,-2,-46,-123,-125
9,14,8,-15,-6,8,110,-5,-2,-46,-123,-125
4,14,14,-9,-6,14,110,1,-2,-40,-111,-119
4,20,19,-15,-6,20,116,1,4,-40,-111,-113
4,20,19,-15,-6,20,110,-5,-2,-40,-117,-119
4,14,14,-9,-6,14,104,-5,-2,-40,-117,-119
4,8,8,-9,-6,8,92,-11,-2,-46,-123,-125
9,2,-10,-9,6,-4,92,-17,-2,-46,-123,-125
15,2,-22,-15,18,-10,86,-11,-2,-52,-111,-119
15,2,-22,-15,18,-10,80,-11,-2,-52,-111,-119
21,8,-22,-21,18,-4,62,-5,-2,-58,-111,-119
33,14,-28,-21,30,-4,50,1,10,-46,-105,-113
39,26,-22,-26,30,2,38,1,4,-46,-99,-107
45,31,-16,-32,30,14,38,-5,4,-40,-93,-95
51,37,-10,-44,30,20,38,1,4,-34,-93,-95
51,49,2,-50,24,25,38,-5,10,-28,-93,-95
51,43,-4,-44,30,25,38,-5,10,-34,-93,-101
45,37,-4,-38,24,25,38,-5,10,-34,-93,-95
45,31,-16,-32,30,14,38,-5,10,-40,-93,-101
45,31,-22,-32,30,8,38,-5,-2,-52,-93,-107
33,20,-22,-21,24,2,44,-5,-2,-46,-105,-107
33,2,-40,-21,36,-16,44,-5,-2,-46,-105,-107
33,-10,-52,-21,42,-28,44,-11,-2,-40,-105,-107
33,-10,-52,-21,42,-28,50,-11,-2,-52,-105,-113
33,-28,-70,-9,48,-46,50,-17,-2,-58,-117,-125
27,-34,-70,-3,48,-52,50,-23,-2,-64,-123,-131
27,-40,-76,-3,48,-58,50,-29,-19,-76,-129,-131
27,-40,-76,-3,48,-58,50,-35,-19,-82,-129,-131
21,-34,-64,-3,42,-46,50,-29,-19,-82,-129,-131
9,-46,-52,15,24,-52,50,-29,-25,-88,-135,-131
4,-40,-40,15,12,-40,56,-23,-25,-82,-135,-131
-8,-46,-34,27,6,-40,56,-29,-25,-82,-141,-143
-8,-52,-40,27,6,-46,68,-29,-31,-88,-141,-149
-20,-58,-34,39,0,-46,68,-29,-31,-88,-141,-149
-26,-64,-34,45,-6,-52,80,-23,-31,-88,-141,-155
-38,-64,-22,51,-6,-46,80,-23,-31,-88,-141,-155
-38,-70,-28,51,-6,-52,80,-29,-37,-88,-141,-155
-38,-70,-28,51,-6,-52,86,-29,-37,-88,-141,-155
-38,-76,-34,57,-6,-58,86,-35,-43,-94,-135,-155
-38,-76,-34,57,-6,-58,86,-35,-43,-94,-135,-155
-38,-82,-40,57,-6,-64,80,-35,-49,-100,-141,-161
-38,-88,-46,63,-6,-70,86,-41,-49,-100,-147,-161
-32,-94,-58,63,6,-76,80,-41,-55,-106,-153,-161
-32,-94,-58,63,6,-76,80,-41,-55,-106,-153,-161
-38,-88,-46,63,-6,-70,80,-41,-55,-106,-153,-161
-38,-82,-40,57,-6,-64,80,-35,-55,-106,-159,-161
-38,-82,-40,57,-6,-64,80,-35,-55,-106,-159,-167
-38,-76,-34,57,-6,-58,74,-35,-55,-106,-159,-167
-38,-76,-34,57,-6,-58,74,-29,-43,-94,-147,-161
-44,-76,-28,57,-6,-52,74,-29,-43,-94,-159,-155
-56,-76,-16,63,-17,-46,74,-23,-31,-82,-147,-143
-44,-76,-28,57,-6,-52,80,-23,-37,-82,-135,-155
-44,-76,-28,57,-6,-52,92,-17,-37,-82,-123,-155
-80,-100,-16,87,-29,-58,104,1,-19,-88,-159,-161
-110,-112,2,111,-53,-58,140,48,4,-70,-189,-185
-74,-100,-22,87,-23,-64,206,156,70,-34,-183,-191
-38,-112,-70,75,6,-94,254,270,148,-16,-147,-203
-50,-136,-82,93,6,-112,290,396,220,-5,-129,-203
-68,-130,-58,99,-6,-94,344,492,280,25,-141,-215
-56,-70,-10,63,-17,-40,386,570,352,73,-111,-209
-38,2,31,15,-35,20,404,642,436,139,-33,-161
9,85,79,-38,-35,79,404,750,550,235,50,-77
93,205,103,-146,-6,157,380,894,706,367,176,30
183,331,145,-260,12,241,350,996,844,505,302,156
273,487,205,-380,30,343,296,1086,1012,679,464,318
387,649,259,-512,60,457,236,1128,1192,877,674,510
507,811,295,-662,102,553,110,1074,1312,1063,908,714
645,943,289,-788,174,619,-51,954,1384,1225,1148,942
741,1081,331,-914,204,709,-255,816,1384,1351,1316,1152
813,1201,379,-1004,216,787,-417,612,1288,1399,1448,1290
801,1261,457,-1028,174,859,-507,372,1108,1333,1466,1362
723,1219,493,-968,114,853,-507,174,904,1183,1346,1284
555,1051,493,-800,30,769,-429,-59,646,931,1064,1044
351,841,487,-596,-59,667,-327,-341,286,601,692,756
213,703,487,-458,-131,595,-315,-611,-85,271,350,510
117,589,469,-350,-173,529,-363,-803,-379,49,152,342
75,493,409,-278,-161,451,-417,-821,-481,-34,50,216
63,379,307,-224,-119,343,-459,-737,-469,-70,2,132
75,271,187,-170,-47,229,-471,-647,-457,-88,-33,60
57,145,79,-98,-6,115,-417,-551,-415,-106,-81,-6
33,37,8,-32,12,25,-357,-479,-391,-124,-129,-71
21,-28,-58,-3,36,-40,-309,-449,-373,-148,-165,-137
15,-46,-70,9,42,-58,-267,-407,-343,-148,-177,-179
9,-64,-70,27,30,-70,-207,-359,-301,-154,-213,-191
-8,-76,-64,39,18,-70,-153,-323,-295,-178,-225,-191
-8,-88,-76,45,24,-82,-105,-269,-283,-190,-225,-185
-14,-88,-70,51,18,-82,-57,-203,-241,-190,-207,-185
-14,-88,-70,51,18,-82,-21,-137,-217,-178,-189,-173
-38,-76,-34,57,-6,-58,2,-101,-169,-148,-177,-161
-50,-76,-22,63,-11,-52,20,-65,-145,-118,-165,-161
-44,-88,-40,63,-6,-64,38,-41,-121,-118,-153,-149
-32,-88,-52,57,0,-70,38,-35,-85,-112,-141,-149
-14,-76,-58,45,12,-70,38,-35,-73,-112,-117,-137
-8,-70,-58,39,18,-64,26,-35,-61,-112,-129,-137
-8,-58,-46,33,12,-52,26,-35,-61,-112,-153,-143
-8,-64,-52,33,12,-58,26,-35,-67,-106,-147,-149
-14,-70,-52,39,12,-64,38,-35,-73,-118,-159,-149
-26,-76,-46,51,0,-64,44,-23,-73,-118,-153,-161
-32,-76,-40,51,-6,-58,62,-23,-73,-118,-159,-167
-50,-100,-46,75,-6,-76,74,-5,-67,-112,-159,-167
-62,-100,-34,81,-11,-70,74,1,-61,-112,-159,-167
-56,-106,-46,81,-6,-76,74,6,-43,-106,-159,-167
-32,-106,-70,69,12,-88,74,1,-37,-106,-147,-167
-26,-106,-76,63,18,-94,62,1,-37,-106,-141,-167
-32,-106,-70,69,12,-88,62,1,-37,-106,-153,-167
-26,-106,-76,63,18,-94,62,1,-37,-112,-165,-167
-26,-100,-70,63,12,-88,62,1,-37,-112,-165,-167
-26,-100,-70,63,12,-88,68,6,-37,-106,-159,-161
-32,-100,-64,63,6,-82,74,6,-37,-106,-153,-155
-32,-100,-64,63,6,-82,74,12,-37,-94,-147,-149
-32,-100,-64,63,6,-82,74,12,-37,-88,-141,-143
-32,-100,-64,63,6,-82,74,24,-31,-82,-135,-143
-20,-100,-76,57,18,-88,74,24,-31,-82,-123,-137
-14,-100,-82,57,24,-94,74,18,-25,-76,-123,-137
-14,-100,-82,57,24,-94,74,18,-25,-76,-129,-137
-14,-94,-76,51,24,-88,74,18,-31,-82,-123,-143
-14,-88,-70,51,18,-82,74,18,-31,-76,-123,-143
-14,-88,-70,51,18,-82,74,12,-37,-82,-117,-143
-20,-94,-70,57,18,-82,74,12,-37,-82,-117,-143
-14,-88,-70,51,18,-82,74,24,-31,-82,-123,-137
-14,-88,-70,51,18,-82,74,24,-31,-82,-117,-137
-8,-82,-70,45,24,-76,74,36,-25,-82,-123,-131
-2,-82,-76,39,30,-82,74,36,-19,-82,-111,-125
4,-76,-76,33,30,-76,74,30,-25,-82,-105,-125
4,-76,-76,33,30,-76,74,30,-19,-82,-105,-125
4,-70,-70,33,30,-70,68,24,-25,-82,-105,-125
4,-70,-70,33,30,-70,68,24,-25,-82,-93,-119
4,-76,-76,33,30,-76,68,36,-25,-82,-99,-119
4,-70,-70,33,30,-70,68,36,-19,-76,-99,-119
9,-76,-82,33,36,-82,68,48,-19,-76,-93,-119
9,-70,-82,27,42,-76,68,48,-19,-76,-87,-119
9,-64,-70,27,30,-70,68,54,-19,-76,-87,-119
9,-64,-70,27,30,-70,68,54,-13,-76,-87,-113
9,-58,-64,21,30,-64,68,60,-13,-76,-75,-113
9,-58,-64,21,30,-64,68,60,-13,-76,-75,-107
4,-64,-64,27,24,-64,68,60,-7,-70,-69,-107
4,-64,-64,27,24,-64,62,60,-2,-70,-81,-107
9,-70,-76,27,36,-76,62,54,-2,-70,-93,-101
9,-64,-70,27,30,-70,62,54,-2,-70,-93,-101
9,-58,-70,21,36,-64,62,66,-2,-64,-87,-95
9,-58,-70,21,36,-64,62,66,-2,-58,-87,-95
9,-52,-70,15,36,-58,68,72,10,-52,-81,-95
9,-52,-70,15,36,-58,68,72,16,-46,-75,-89
15,-58,-82,15,48,-70,62,72,22,-46,-69,-83
15,-52,-76,9,42,-64,62,78,22,-40,-69,-83
9,-58,-76,15,42,-64,62,84,34,-34,-69,-77
9,-52,-70,15,36,-58,62,90,34,-28,-69,-77
9,-52,-70,15,36,-58,62,90,34,-34,-69,-71
15,-52,-76,9,42,-64,62,90,46,-28,-69,-65
27,-46,-82,3,54,-64,62,96,40,-34,-51,-59
27,-40,-76,-3,48,-58,62,102,34,-34,-45,-59
27,-28,-64,-9,42,-46,56,102,34,-28,-45,-59
39,-28,-76,-15,54,-52,56,102,40,-22,-39,-53
45,-22,-76,-21,60,-46,56,102,40,-22,-45,-53
45,-16,-70,-21,54,-40,50,108,40,-22,-45,-47
51,-16,-76,-21,60,-46,50,120,46,-22,-39,-35
63,-10,-82,-21,72,-46,44,120,58,-10,-33,-29
69,-4,-82,-26,72,-40,44,120,58,-5,-21,-24
69,-4,-82,-26,72,-40,44,132,58,-5,-21,-24
63,8,-64,-26,60,-28,38,144,64,-5,-21,-12
75,8,-76,-32,72,-34,38,144,70,-5,-9,-12
75,14,-70,-38,72,-28,26,144,70,1,-3,0
87,14,-82,-44,84,-34,26,144,76,7,2,0
87,20,-76,-44,78,-28,26,150,76,7,2,6
87,20,-76,-44,78,-28,20,162,82,19,2,12
81,31,-58,-50,66,-10,26,174,94,25,2,6
93,31,-64,-56,78,-10,20,174,100,31,2,18
105,31,-70,-68,90,-10,14,174,106,25,8,30
123,37,-82,-80,102,-16,2,180,112,25,20,36
129,43,-82,-86,108,-10,2,174,118,19,32,36
135,49,-82,-92,108,-10,-9,186,124,37,32,48
141,49,-88,-92,114,-10,-9,198,130,43,38,48
159,61,-94,-110,126,-10,-15,198,130,49,56,60
159,61,-94,-110,126,-10,-21,204,130,49,56,72
159,67,-88,-110,126,-4,-27,216,142,55,56,78
171,79,-88,-122,132,2,-33,222,154,67,68,102
177,97,-76,-134,126,20,-39,228,166,73,86,108
195,109,-82,-152,138,20,-45,246,178,91,110,126
207,127,-76,-164,144,25,-51,246,184,97,110,144
207,127,-76,-164,144,25,-57,246,178,103,122,150
213,133,-76,-170,144,25,-69,246,184,115,134,150
219,133,-82,-176,150,25,-75,246,178,121,140,156
243,145,-94,-194,168,25,-81,246,178,121,152,168
249,145,-100,-194,174,25,-81,246,184,115,164,174
249,151,-94,-200,174,25,-87,246,190,127,158,180
249,157,-88,-200,168,31,-87,252,196,127,152,192
261,163,-100,-212,186,25,-93,258,202,133,158,204
267,175,-94,-224,186,37,-99,258,202,145,170,210
273,187,-88,-230,186,43,-105,258,196,145,188,216
279,199,-82,-242,186,55,-117,258,196,151,200,228
285,211,-76,-248,186,61,-123,258,196,157,212,240
291,211,-82,-254,192,61,-129,252,196,163,218,252
297,211,-88,-254,198,55,-135,258,196,163,224,264
303,223,-82,-260,198,67,-141,258,196,175,230,276
303,229,-76,-260,192,73,-147,264,196,175,230,282
315,229,-88,-266,204,67,-153,264,196,169,236,288
321,241,-82,-278,204,73,-159,264,190,175,242,294
327,241,-88,-278,210,73,-165,264,184,169,248,294
327,241,-88,-278,210,73,-165,252,178,169,248,294
321,241,-82,-278,204,73,-165,252,172,169,242,294
315,241,-76,-272,198,79,-165,252,172,169,242,294
309,241,-70,-272,192,79,-159,258,166,169,242,288
309,241,-70,-272,192,79,-159,246,166,169,242,282
303,235,-70,-266,192,79,-153,240,160,163,236,276
297,235,-64,-260,186,79,-153,234,148,157,218,270
285,217,-70,-254,180,67,-135,228,142,151,206,258
273,211,-64,-242,174,67,-129,216,136,145,200,252
261,211,-52,-236,162,73,-123,216,124,133,182,234
249,199,-52,-224,156,67,-105,210,118,127,170,222
231,199,-28,-212,132,79,-99,192,100,109,146,204
219,187,-28,-200,126,73,-87,180,94,97,140,186
201,169,-28,-182,114,67,-69,162,76,85,122,174
177,157,-16,-164,96,67,-57,150,70,73,110,156
165,139,-22,-152,96,55,-39,132,52,67,98,144
147,127,-16,-134,84,49,-21,120,40,55,74,132
123,109,-10,-116,66,43,-15,108,28,43,68,108
111,103,-4,-104,60,43,-3,102,28,31,50,90
93,97,8,-92,42,49,2,84,10,19,26,72
87,85,2,-86,42,37,2,78,4,13,14,54
63,73,14,-68,24,37,14,72,-2,-5,2,42
45,61,19,-50,12,37,26,60,-2,-5,-9,24
33,31,2,-32,18,25,32,42,-7,-16,-21,18
21,31,8,-21,6,25,38,36,-13,-28,-33,12
15,26,2,-21,6,14,50,24,-19,-22,-45,0
9,20,8,-21,-6,14,56,12,-25,-28,-57,-12
9,8,2,-9,-6,2,62,12,-31,-28,-63,-24
9,2,-4,-9,0,-4,68,6,-37,-40,-75,-29
9,2,-4,-9,0,-4,68,6,-37,-46,-75,-35
-2,-4,2,3,-6,-4,74,6,-37,-52,-87,-35
-8,-16,-4,9,-6,-10,80,1,-37,-64,-81,-53
-14,-22,-4,15,-6,-16,80,1,-37,-70,-87,-65
-14,-28,-10,21,-6,-22,80,-5,-43,-70,-93,-59
-20,-40,-16,27,-6,-28,80,-11,-49,-70,-99,-71
-20,-40,-16,27,-6,-28,86,-5,-49,-70,-105,-71
-26,-40,-10,33,-6,-28,86,-5,-49,-76,-129,-77
-32,-46,-10,39,-6,-28,80,-11,-55,-82,-129,-83
-32,-40,-4,33,-11,-22,86,-17,-61,-88,-129,-83
-38,-40,2,39,-17,-22,80,-23,-67,-94,-135,-89
-44,-34,14,39,-23,-10,80,-35,-67,-94,-135,-89
-38,-34,8,33,-17,-16,80,-29,-61,-94,-135,-95
-38,-34,8,33,-17,-16,80,-29,-61,-94,-135,-95
-32,-40,-4,33,-11,-22,80,-23,-55,-88,-135,-89
-32,-40,-4,33,-11,-22,80,-35,-55,-88,-135,-101
-32,-34,2,33,-11,-16,86,-17,-55,-88,-129,-95
-38,-34,8,33,-17,-16,86,-17,-55,-82,-129,-89
-44,-40,8,39,-23,-16,92,-11,-55,-82,-123,-83
-44,-46,2,45,-17,-22,92,-11,-55,-82,-117,-83
-44,-46,2,45,-17,-22,92,-11,-61,-88,-123,-89
-44,-46,2,45,-17,-22,92,-11,-61,-88,-123,-89
-44,-46,2,45,-17,-22,92,-11,-67,-88,-135,-95
-44,-52,-4,45,-17,-28,92,-11,-67,-88,-135,-95
-44,-52,-4,45,-17,-28,86,-17,-61,-88,-129,-95
-44,-52,-4,45,-17,-28,86,-17,-61,-88,-129,-95
-44,-52,-4,45,-17,-28,80,-17,-55,-82,-129,-95
-44,-52,-4,45,-17,-28,74,-17,-55,-82,-129,-101
-50,-52,2,51,-23,-28,80,-5,-55,-82,-141,-101
-56,-52,8,51,-29,-22,86,-5,-55,-82,-141,-101
-62,-52,14,57,-35,-22,92,1,-55,-82,-147,-101
-68,-52,19,57,-41,-16,92,1,-55,-82,-147,-101
-62,-52,14,57,-35,-22,86,1,-61,-76,-153,-101
-74,-52,19,63,-47,-16,86,1,-61,-76,-153,-95
-56,-52,8,51,-29,-22,80,6,-67,-76,-147,-95
-56,-52,8,51,-29,-22,80,6,-67,-82,-135,-95
-62,-52,14,57,-35,-22,80,6,-61,-76,-147,-95
-62,-52,14,57,-35,-22,80,6,-61,-76,-147,-101
-62,-52,14,57,-35,-22,80,6,-55,-70,-147,-107
-62,-52,14,57,-35,-22,80,6,-55,-70,-147,-107
-56,-58,2,57,-23,-28,80,6,-55,-76,-141,-101
-56,-58,2,57,-23,-28,80,6,-55,-76,-135,-101
-50,-64,-10,57,-17,-40,80,1,-49,-76,-129,-89
-50,-64,-10,57,-17,-40,80,6,-49,-76,-117,-89
-56,-58,2,57,-23,-28,80,6,-49,-76,-123,-89
-44,-58,-10,51,-11,-34,80,6,-43,-82,-129,-89
-62,-52,14,57,-35,-22,80,12,-43,-82,-135,-89
-62,-52,14,57,-35,-22,86,12,-43,-82,-147,-89
-56,-52,8,51,-29,-22,86,18,-43,-82,-141,-89
-56,-46,14,51,-29,-16,86,18,-43,-82,-129,-95
-56,-46,14,51,-29,-16,86,18,-49,-82,-123,-95
-56,-46,14,51,-29,-16,86,18,-49,-76,-123,-95
-62,-52,14,57,-35,-22,86,18,-43,-76,-129,-101
-68,-52,19,57,-41,-16,86,24,-43,-76,-135,-101
-62,-58,8,57,-29,-28,92,24,-31,-76,-135,-107
-50,-58,-4,51,-17,-34,92,24,-31,-76,-135,-101
-50,-52,2,51,-23,-28,86,30,-31,-64,-129,-95
-44,-46,2,45,-17,-22,86,30,-31,-64,-129,-95
-44,-40,8,39,-23,-16,80,30,-31,-64,-123,-89
-44,-34,14,39,-23,-10,80,36,-31,-64,-123,-95
-50,-34,19,39,-29,-10,80,36,-31,-70,-117,-95
-50,-34,19,39,-29,-10,80,36,-31,-70,-123,-95
-56,-34,19,45,-35,-4,80,36,-31,-76,-117,-95
-56,-34,19,45,-35,-4,80,36,-31,-76,-117,-89
-50,-34,19,39,-29,-10,86,36,-31,-76,-123,-83
-50,-34,19,39,-29,-10,86,36,-31,-76,-123,-83
-50,-34,19,39,-29,-10,80,36,-31,-70,-117,-83
-50,-34,19,39,-29,-10,80,36,-31,-70,-117,-83
-50,-40,14,45,-29,-16,80,36,-31,-70,-117,-83
-50,-40,14,45,-29,-16,80,36,-31,-70,-117,-83
-50,-40,14,45,-29,-16,80,36,-31,-70,-111,-83
-50,-40,14,45,-29,-16,80,36,-31,-70,-111,-83
-44,-34,14,39,-23,-10,80,42,-25,-64,-117,-83
-44,-34,14,39,-23,-10,80,36,-25,-64,-117,-77
-44,-28,19,33,-29,-4,80,42,-19,-58,-117,-77
-44,-28,19,33,-29,-4,80,42,-25,-64,-111,-77
-38,-34,8,33,-17,-16,74,42,-31,-70,-105,-77
-38,-34,8,33,-17,-16,74,42,-31,-70,-105,-77
-32,-40,-4,33,-11,-22,68,30,-37,-70,-99,-77
-32,-40,-4,33,-11,-22,68,30,-37,-70,-99,-77
-38,-34,8,33,-17,-16,68,30,-43,-76,-105,-77
-38,-34,8,33,-17,-16,62,30,-43,-76,-105,-77
-50,-28,19,39,-35,-4,62,30,-49,-76,-117,-77
-50,-34,19,39,-29,-10,62,30,-49,-76,-117,-83
-38,-28,14,33,-23,-10,62,36,-43,-70,-117,-83
-38,-22,19,27,-23,-4,62,30,-43,-70,-111,-89
-32,-16,19,21,-23,2,62,30,-37,-64,-111,-89
-32,-16,19,21,-23,2,56,30,-43,-64,-117,-83
-44,-22,19,33,-29,2,68,30,-43,-64,-117,-65
-44,-22,19,33,-29,2,68,30,-43,-64,-111,-71
-44,-22,19,33,-29,2,68,36,-31,-58,-99,-65
-38,-28,14,33,-23,-10,62,30,-37,-64,-93,-65
-32,-28,8,27,-17,-10,62,30,-37,-64,-87,-65
-26,-34,-4,27,-6,-22,56,24,-43,-70,-81,-65
-20,-34,-10,27,-6,-22,56,24,-43,-70,-75,-65
-26,-34,-4,27,-6,-22,50,24,-55,-70,-87,-71
-32,-34,2,33,-11,-16,50,24,-55,-70,-93,-71
-38,-40,2,39,-17,-22,44,18,-61,-70,-99,-83
-44,-40,8,39,-23,-16,44,18,-61,-70,-105,-83
-50,-40,14,45,-29,-16,44,12,-61,-70,-105,-77
-50,-34,19,39,-29,-10,44,12,-61,-70,-105,-77
-56,-34,19,45,-35,-4,50,12,-55,-70,-105,-71
-56,-34,19,45,-35,-4,50,12,-55,-70,-105,-71
-50,-34,19,39,-29,-10,50,12,-61,-82,-105,-77
-50,-34,19,39,-29,-10,50,12,-61,-82,-105,-77
-44,-40,8,39,-23,-16,50,12,-73,-88,-111,-83
-44,-40,8,39,-23,-16,50,12,-73,-88,-111,-77
-38,-40,2,39,-17,-22,50,12,-67,-88,-99,-77
-32,-40,-4,33,-11,-22,50,12,-67,-88,-99,-83
-32,-40,-4,33,-11,-22,50,12,-67,-88,-87,-83
-26,-40,-10,33,-6,-28,50,12,-67,-88,-81,-83
-32,-46,-10,39,-6,-28,50,12,-67,-88,-93,-89
-38,-46,-4,39,-11,-28,50,12,-73,-88,-99,-89
-44,-46,2,45,-17,-22,44,12,-73,-94,-111,-95
-50,-40,14,45,-29,-16,44,6,-79,-94,-117,-95
-50,-40,14,45,-29,-16,44,6,-79,-94,-111,-95
-50,-40,14,45,-29,-16,44,6,-73,-94,-111,-95
-50,-40,14,45,-29,-16,44,6,-73,-88,-105,-101
-44,-40,8,39,-23,-16,44,6,-73,-88,-105,-101
-44,-40,8,39,-23,-16,44,6,-73,-88,-111,-95
-50,-40,14,45,-29,-16,50,6,-73,-88,-111,-95
-50,-40,14,45,-29,-16,50,12,-73,-88,-117,-89
-44,-46,2,45,-17,-22,44,12,-73,-88,-117,-83
-44,-40,8,39,-23,-16,44,12,-67,-82,-105,-77
-44,-28,19,33,-29,-4,44,12,-67,-82,-105,-77
-38,-22,19,27,-23,-4,44,18,-61,-76,-99,-71
-38,-16,19,27,-29,2,38,18,-61,-76,-99,-71
-26,-22,8,21,-11,-10,38,18,-55,-76,-93,-77
-26,-22,8,21,-11,-10,38,24,-55,-76,-87,-71
-14,-16,2,15,-6,-10,38,24,-43,-70,-81,-77
-8,-4,8,3,-6,2,50,30,-43,-64,-69,-71
-14,8,19,3,-17,14,56,30,-43,-58,-69,-65
-14,8,19,3,-17,14,56,30,-43,-58,-69,-65
-20,14,25,3,-23,25,56,36,-43,-52,-63,-59
-20,20,31,-3,-29,25,56,36,-43,-52,-63,-53
-20,26,37,-3,-29,25,56,36,-43,-46,-63,-59
-20,26,37,-3,-29,25,50,36,-43,-46,-63,-59
-20,26,37,-3,-29,25,44,36,-43,-46,-63,-65
-8,26,25,-9,-17,25,44,30,-43,-46,-63,-65
4,26,19,-15,-6,25,38,24,-49,-52,-51,-59
4,26,19,-15,-6,25,32,24,-49,-52,-51,-59
9,31,19,-21,-6,25,14,18,-55,-58,-51,-59
9,31,19,-21,-6,25,2,24,-37,-46,-45,-53
15,31,19,-21,0,25,2,24,-37,-46,-39,-47
21,37,19,-26,0,25,2,24,-37,-40,-33,-35
27,43,19,-32,6,25,2,30,-31,-34,-33,-35
27,49,19,-38,0,31,2,30,-25,-28,-33,-35
27,55,19,-38,0,37,2,30,-25,-34,-33,-35
21,49,19,-32,-6,37,2,30,-25,-34,-33,-29
21,49,19,-32,-6,37,2,30,-25,-40,-33,-29
21,43,19,-32,0,31,2,30,-37,-52,-33,-35
9,43,25,-26,-6,37,2,30,-37,-46,-45,-35
9,31,19,-21,-6,25,2,30,-37,-46,-45,-35
9,31,19,-21,-6,25,8,24,-37,-40,-45,-35
9,31,19,-21,-6,25,14,24,-43,-52,-45,-41
9,20,2,-21,0,14,8,24,-43,-52,-45,-53
9,14,2,-15,0,8,8,18,-43,-52,-51,-59
9,8,-4,-15,0,2,2,18,-55,-58,-45,-59
9,8,-4,-15,0,2,2,12,-55,-58,-45,-59
9,8,-4,-15,0,2,2,12,-55,-70,-51,-59
-2,-4,2,3,-6,-4,2,12,-61,-76,-57,-59
-2,-4,2,3,-6,-4,8,12,-61,-82,-63,-59
-8,-10,2,9,-6,-4,8,6,-61,-82,-69,-71
-14,-22,-4,15,-6,-16,14,6,-73,-88,-69,-77
-26,-28,2,27,-11,-16,14,6,-73,-88,-69,-77
-38,-40,2,39,-17,-22,20,1,-79,-88,-69,-83
-50,-40,14,45,-29,-16,20,1,-79,-88,-69,-83
-50,-34,19,39,-29,-10,20,6,-79,-88,-75,-89
-50,-28,19,39,-35,-4,26,6,-79,-88,-75,-89
-50,-22,19,33,-35,2,26,6,-79,-94,-75,-95
-50,-16,25,33,-41,8,26,6,-79,-94,-75,-95
-50,-22,19,33,-35,2,20,6,-85,-94,-75,-101
-50,-28,19,39,-35,-4,26,1,-85,-94,-81,-101
-44,-34,14,39,-23,-10,20,-5,-91,-94,-81,-101
-44,-34,14,39,-23,-10,20,-5,-91,-94,-81,-101
-50,-34,19,39,-29,-10,14,-5,-91,-94,-81,-95
-50,-34,19,39,-29,-10,14,1,-91,-94,-87,-95
-50,-40,14,45,-29,-16,8,1,-91,-94,-87,-95
-50,-40,14,45,-29,-16,2,1,-91,-94,-87,-95
-38,-28,14,33,-23,-10,14,-5,-79,-94,-63,-101
-56,-40,19,45,-35,-10,14,-5,-79,-94,-63,-95
-68,-40,19,51,-47,-4,26,1,-79,-82,-87,-95
-56,-28,19,39,-41,2,32,6,-61,-82,-87,-83
-56,-28,19,39,-41,2,32,6,-61,-82,-63,-95
-68,-40,19,51,-47,-4,56,36,-55,-88,-63,-101
-74,-52,19,63,-47,-16,80,96,-31,-82,-69,-113
-86,-64,19,75,-53,-22,122,192,10,-58,-87,-119
-86,-76,14,81,-47,-34,188,318,88,-40,-87,-131
-62,-76,-10,69,-23,-46,242,468,196,-5,-69,-131
-56,-58,2,57,-23,-28,296,564,268,37,-45,-143
-56,-10,37,33,-47,20,350,618,340,85,-27,-125
-38,61,103,-21,-71,79,380,726,448,175,14,-65
21,169,139,-92,-53,157,368,858,586,295,122,18
129,283,151,-206,-6,223,320,978,730,427,278,138
243,415,169,-326,30,289,266,1044,856,553,434,270
333,577,241,-458,42,409,218,1122,1000,727,626,450
423,757,325,-584,42,541,140,1116,1168,937,824,642
543,919,367,-734,84,643,2,1038,1288,1123,1058,858
693,1057,361,-872,162,715,-171,942,1348,1273,1286,1080
801,1177,367,-992,216,769,-363,780,1336,1375,1460,1266
837,1255,415,-1046,210,835,-495,552,1210,1387,1538,1374
789,1297,505,-1040,144,901,-567,324,1036,1321,1490,1386
687,1231,535,-956,72,883,-543,126,844,1159,1322,1284
519,1027,505,-770,6,763,-453,-107,538,871,1016,1032
351,829,475,-590,-53,655,-411,-401,160,517,680,756
225,703,475,-464,-119,589,-447,-671,-229,205,398,534
117,601,481,-356,-179,541,-489,-815,-487,13,200,378
63,505,433,-278,-179,469,-531,-809,-535,-58,98,270
75,391,307,-236,-113,349,-549,-707,-511,-94,50,192
87,271,175,-176,-35,223,-513,-587,-481,-112,26,132
69,121,43,-92,6,85,-465,-503,-451,-130,-9,30
33,26,-16,-21,24,8,-393,-449,-415,-136,-93,-47
21,-28,-58,-3,36,-40,-345,-401,-385,-136,-129,-89
15,-58,-82,15,48,-70,-291,-359,-343,-136,-141,-119
9,-64,-82,21,42,-70,-249,-335,-337,-166,-129,-131
4,-52,-52,21,18,-52,-213,-299,-331,-178,-117,-119
-20,-52,-28,33,-6,-40,-153,-227,-307,-178,-129,-101
-38,-64,-22,51,-6,-46,-93,-143,-265,-166,-123,-89
-38,-52,-10,45,-11,-34,-57,-101,-241,-154,-93,-89
-26,-28,2,27,-11,-16,-21,-65,-193,-124,-69,-77
-26,-28,2,27,-11,-16,8,-17,-145,-106,-45,-77
-68,-64,8,63,-35,-28,14,6,-109,-94,-81,-89
-68,-76,-4,69,-29,-40,14,6,-85,-88,-105,-89
-26,-64,-34,45,-6,-52,2,6,-61,-76,-69,-77
-8,-46,-34,27,6,-40,-9,1,-73,-88,-57,-65
-8,-46,-34,27,6,-40,-21,-11,-97,-88,-57,-71
-8,-40,-28,21,0,-34,-15,-11,-103,-88,-63,-71
-14,-46,-28,27,0,-40,-3,-11,-109,-100,-75,-71
-26,-40,-10,33,-6,-28,2,1,-109,-106,-81,-77
-32,-40,-4,33,-11,-22,14,1,-109,-106,-87,-83
-44,-64,-16,51,-11,-40,26,6,-103,-100,-93,-89
-56,-64,-4,57,-23,-34,26,12,-97,-100,-93,-89
-44,-70,-22,57,-6,-46,26,18,-79,-94,-99,-95
-20,-70,-46,45,6,-58,26,12,-73,-94,-87,-95
-20,-64,-40,39,0,-52,8,6,-73,-88,-69,-89
-26,-64,-34,45,-6,-52,8,6,-73,-88,-81,-89
-26,-58,-28,39,-6,-46,2,6,-73,-88,-81,-83
-26,-52,-22,39,-6,-40,2,6,-73,-88,-81,-83
-32,-52,-16,39,-6,-34,14,6,-79,-94,-81,-89
-38,-52,-10,45,-11,-34,20,6,-79,-100,-81,-89
-44,-52,-4,45,-17,-28,26,6,-85,-100,-81,-95
-44,-52,-4,45,-17,-28,26,6,-85,-100,-81,-95
-44,-52,-4,45,-17,-28,26,18,-79,-94,-81,-101
-32,-52,-16,39,-6,-34,26,18,-79,-94,-69,-95
-26,-52,-22,39,-6,-40,26,18,-73,-88,-75,-101
-26,-52,-22,39,-6,-40,26,18,-73,-88,-81,-101
-26,-46,-16,33,-6,-34,20,18,-73,-94,-75,-95
-26,-40,-10,33,-6,-28,20,18,-73,-88,-75,-95
-26,-40,-10,33,-6,-28,14,12,-73,-94,-69,-83
-32,-46,-10,39,-6,-28,14,12,-73,-94,-69,-83
-26,-46,-16,33,-6,-34,14,18,-67,-88,-69,-89
-26,-46,-16,33,-6,-34,14,18,-67,-88,-63,-89
-20,-46,-22,33,-6,-34,14,24,-61,-82,-63,-95
-14,-46,-28,27,0,-40,14,24,-55,-82,-51,-89
-2,-46,-40,21,12,-46,8,30,-61,-88,-39,-89
-2,-46,-40,21,12,-46,8,30,-55,-88,-33,-89
4,-46,-46,21,18,-46,2,36,-61,-94,-27,-89
4,-46,-46,21,18,-46,2,36,-61,-94,-9,-83
-8,-46,-34,27,6,-40,2,42,-55,-88,-33,-83
-8,-40,-28,21,0,-34,2,42,-49,-82,-39,-83
-14,-40,-22,27,-6,-34,8,48,-43,-76,-51,-83
-8,-34,-22,21,0,-28,8,48,-43,-76,-51,-83
-8,-40,-28,21,0,-34,8,42,-43,-76,-51,-77
-8,-40,-28,21,0,-34,8,42,-37,-76,-51,-71
-2,-46,-40,21,12,-46,8,36,-37,-76,-39,-65
-2,-46,-40,21,12,-46,8,36,-37,-76,-39,-59
-8,-46,-34,27,6,-40,8,48,-31,-70,-21,-59
-8,-46,-34,27,6,-40,2,48,-25,-70,-33,-59
-2,-46,-40,21,12,-46,2,54,-19,-70,-33,-53
-2,-40,-34,21,6,-40,2,54,-19,-70,-33,-53
-2,-34,-28,15,6,-34,2,54,-25,-76,-39,-53
-2,-34,-28,15,6,-34,2,54,-25,-70,-39,-53
-2,-28,-22,15,0,-28,2,48,-25,-76,-45,-59
-2,-28,-22,15,0,-28,2,48,-19,-70,-39,-53
9,-22,-28,3,12,-28,2,54,-13,-64,-27,-47
9,-16,-22,3,6,-22,2,60,-13,-52,-27,-47
9,-10,-16,-3,6,-16,2,72,-2,-40,-21,-41
9,-4,-10,-3,0,-10,2,78,-2,-28,-21,-41
9,-10,-22,-3,12,-16,2,78,-2,-28,-21,-35
9,-10,-28,-9,18,-16,2,78,10,-22,-21,-29
27,-10,-46,-15,36,-28,2,84,16,-22,-3,-24
27,-4,-40,-21,30,-22,2,90,10,-22,2,-24
21,8,-22,-21,18,-4,-3,96,4,-22,2,-24
33,8,-34,-21,30,-10,-3,96,10,-16,2,-24
33,14,-28,-21,30,-4,-3,102,4,-22,-3,-24
33,20,-22,-21,24,2,-9,108,4,-22,-9,-24
27,20,-16,-21,18,2,-3,120,16,-16,-3,-18
39,26,-22,-26,30,2,-9,120,28,-5,2,-12
33,31,-10,-26,18,14,-3,120,34,-5,2,-6
33,31,-10,-26,18,14,-3,132,34,1,2,0
39,31,-10,-32,24,14,-9,138,34,1,2,6
51,31,-28,-32,36,2,-9,138,40,1,14,6
63,31,-40,-38,48,-4,-21,132,34,1,20,12
75,26,-58,-44,66,-16,-21,132,40,7,26,12
87,31,-64,-50,72,-16,-27,138,46,1,44,24
87,31,-64,-50,72,-16,-33,150,52,13,44,30
93,31,-58,-62,78,-4,-33,162,70,13,50,30
105,37,-64,-68,84,-4,-39,162,76,19,56,42
105,49,-52,-74,78,8,-39,168,82,25,62,54
117,55,-58,-86,90,8,-45,174,88,25,74,60
111,67,-40,-86,78,20,-51,174,94,31,80,60
111,73,-34,-92,72,25,-57,186,100,49,80,72
123,79,-40,-98,84,25,-57,192,106,49,86,66
141,91,-46,-116,96,25,-63,192,106,55,104,78
147,97,-46,-122,96,25,-69,192,106,49,104,84
147,103,-40,-122,96,25,-75,204,118,55,104,90
159,103,-52,-128,108,25,-87,216,130,67,110,108
165,115,-46,-140,108,31,-93,222,142,73,128,114
183,115,-64,-146,126,25,-105,246,154,91,146,126
195,127,-64,-158,132,25,-111,246,160,97,146,144
189,133,-52,-158,120,37,-111,246,160,103,158,162
195,139,-52,-164,126,37,-123,246,166,115,170,162
195,145,-46,-170,120,43,-123,240,166,121,176,180
219,157,-58,-188,138,43,-129,240,166,121,188,192
231,163,-64,-194,150,43,-135,240,160,115,206,198
231,169,-58,-200,144,49,-141,240,166,127,206,204
237,181,-52,-206,144,61,-147,246,160,127,206,216
249,187,-64,-218,162,55,-153,246,166,133,218,222
249,199,-52,-224,156,67,-159,258,172,145,230,228
255,211,-46,-236,156,79,-165,258,166,145,242,234
255,223,-34,-242,150,91,-177,270,172,151,248,246
261,235,-28,-248,150,97,-183,270,172,157,254,252
267,229,-40,-248,156,91,-195,252,166,151,254,252
273,229,-46,-254,162,85,-201,252,166,151,260,264
279,235,-46,-260,168,91,-213,246,160,151,260,264
279,241,-40,-260,162,97,-219,246,160,151,260,270
297,241,-58,-266,180,85,-213,246,166,157,266,282
303,253,-52,-272,180,97,-219,246,160,163,272,288
315,253,-64,-278,192,91,-213,246,160,169,284,294
315,253,-64,-278,192,91,-213,234,154,169,284,294
309,259,-52,-278,186,97,-219,228,148,163,278,294
303,265,-40,-278,174,109,-219,228,148,163,278,294
297,271,-28,-278,168,115,-219,228,142,157,272,288
297,271,-22,-284,162,121,-219,216,142,157,272,282
297,271,-28,-278,168,115,-213,204,130,151,278,282
291,271,-22,-278,162,121,-213,198,118,145,260,276
285,253,-34,-266,162,103,-195,192,106,139,260,270
273,247,-28,-260,156,103,-189,180,100,133,254,264
255,235,-22,-248,144,103,-177,180,100,133,242,252
249,223,-22,-236,138,97,-159,174,94,127,230,240
219,211,-4,-212,114,97,-147,156,88,121,206,222
207,199,-4,-200,108,91,-135,144,82,109,200,210
183,187,8,-182,90,91,-123,126,64,91,170,186
159,175,19,-164,72,91,-111,114,58,73,152,168
141,163,19,-152,60,91,-99,96,40,61,128,144
123,151,19,-134,48,85,-81,84,28,43,98,132
93,127,25,-110,30,79,-63,78,16,37,92,114
81,121,31,-98,18,79,-51,72,16,31,74,96
57,109,43,-80,0,79,-27,60,-2,25,50,84
51,97,37,-74,0,67,-21,54,-2,25,38,66
39,97,49,-68,-6,73,-15,48,-2,7,20,42
21,85,55,-50,-11,73,-3,30,-13,-5,8,24
21,67,37,-44,-6,55,-3,12,-19,-5,2,6
9,61,43,-32,-11,55,2,6,-25,-16,2,0
9,43,31,-21,-6,37,2,-5,-31,-22,-3,-6
4,37,37,-21,-17,37,8,-17,-37,-34,-9,-18
-2,31,25,-15,-17,25,14,-23,-43,-46,-9,-24
-2,26,19,-15,-11,25,20,-29,-49,-64,-15,-29
-8,26,25,-9,-17,25,20,-29,-55,-58,-21,-35
-20,20,31,-3,-29,25,26,-35,-55,-64,-39,-35
-32,8,31,9,-35,25,32,-35,-61,-64,-39,-53
-38,2,31,15,-35,20,32,-35,-61,-70,-51,-65
-32,2,25,15,-29,20,32,-47,-61,-64,-57,-59
-38,-10,19,21,-29,8,32,-53,-67,-64,-63,-71
-32,-4,19,15,-29,14,38,-53,-61,-58,-69,-71
-38,-4,25,21,-35,14,38,-53,-61,-64,-93,-77
-38,-10,19,21,-29,8,38,-53,-61,-64,-81,-77
-38,-10,19,21,-29,8,44,-53,-67,-70,-75,-77
-38,-10,19,21,-29,8,44,-53,-67,-70,-69,-77
-44,-10,25,27,-35,14,44,-59,-67,-70,-63,-77
-44,-16,19,27,-35,8,44,-59,-67,-82,-69,-83
-44,-16,19,27,-35,8,44,-59,-67,-82,-75,-83
-44,-28,19,33,-29,-4,44,-59,-67,-88,-81,-77
-44,-28,19,33,-29,-4,44,-71,-67,-88,-87,-89
-50,-28,19,39,-35,-4,44,-59,-67,-88,-87,-95
-56,-28,19,39,-41,2,44,-59,-67,-82,-93,-89
-68,-40,19,51,-47,-4,44,-59,-67,-82,-93,-95
-68,-46,19,57,-41,-10,44,-59,-67,-82,-93,-95
-68,-46,19,57,-41,-10,44,-59,-67,-82,-87,-95
-68,-46,19,57,-41,-10,44,-59,-67,-82,-87,-95
-68,-46,19,57,-41,-10,44,-59,-67,-76,-87,-95
-68,-52,19,57,-41,-16,44,-59,-67,-76,-87,-95
-68,-52,19,57,-41,-16,44,-59,-67,-82,-81,-95
-68,-52,19,57,-41,-16,44,-59,-67,-82,-81,-95
-68,-52,19,57,-41,-16,44,-53,-67,-82,-81,-95
-68,-52,19,57,-41,-16,38,-53,-67,-82,-81,-101
-68,-46,19,57,-41,-10,38,-53,-67,-82,-87,-107
-68,-46,19,57,-41,-10,44,-53,-67,-82,-87,-107
-68,-40,19,51,-47,-4,44,-59,-67,-82,-87,-113
-68,-40,19,51,-47,-4,44,-59,-67,-82,-87,-113
-62,-40,19,51,-41,-10,44,-59,-67,-76,-93,-113
-74,-40,25,57,-53,-4,44,-59,-67,-76,-93,-107
-56,-40,19,45,-35,-10,44,-53,-67,-76,-87,-107
-56,-40,19,45,-35,-10,44,-53,-67,-82,-75,-107
-62,-40,19,51,-41,-10,44,-53,-67,-82,-87,-101
-62,-40,19,51,-41,-10,44,-53,-67,-82,-87,-107
-62,-40,19,51,-41,-10,44,-53,-67,-82,-87,-107
-62,-40,19,51,-41,-10,44,-47,-67,-82,-87,-107
-68,-40,19,51,-47,-4,44,-47,-67,-82,-81,-107
-68,-40,19,51,-47,-4,44,-47,-67,-82,-81,-107
-74,-40,25,57,-53,-4,44,-47,-61,-76,-75,-101
-74,-40,25,57,-53,-4,44,-41,-61,-76,-69,-101
-74,-46,19,57,-47,-10,44,-41,-61,-76,-75,-101
-62,-46,19,51,-35,-16,44,-35,-55,-82,-81,-101
-74,-52,19,63,-47,-16,44,-35,-55,-82,-87,-101
-74,-52,19,63,-47,-16,50,-35,-55,-82,-99,-101
-68,-46,19,57,-41,-10,44,-29,-55,-82,-93,-101
-68,-40,19,51,-47,-4,44,-29,-55,-82,-81,-107
-68,-34,25,51,-47,2,38,-29,-61,-82,-75,-107
-68,-34,25,51,-47,2,38,-29,-61,-76,-75,-107
-80,-40,31,57,-59,2,44,-23,-55,-76,-81,-107
-86,-40,37,63,-65,2,50,-17,-55,-76,-87,-107
-86,-46,31,63,-59,-4,62,-11,-43,-76,-87,-107
-74,-46,19,57,-47,-10,68,-11,-43,-76,-87,-101
-74,-40,25,57,-53,-4,62,-5,-43,-70,-81,-101
-68,-40,19,51,-47,-4,62,-5,-43,-70,-81,-101
-68,-34,25,51,-47,2,56,-5,-43,-76,-75,-101
-68,-34,25,51,-47,2,56,1,-43,-76,-75,-107
-74,-40,25,57,-53,-4,56,-5,-43,-76,-69,-107
-74,-40,25,57,-53,-4,56,-5,-43,-76,-75,-107
-80,-46,25,63,-53,-4,56,-11,-43,-76,-69,-107
-80,-46,25,63,-53,-4,56,-11,-43,-76,-69,-101
-98,-46,43,69,-71,2,74,1,-43,-64,-111,-113
-86,-34,43,57,-65,8,62,1,-31,-64,-87,-113
-62,-22,31,39,-47,8,56,-11,-43,-70,-69,-107
-62,-34,19,45,-41,-4,56,-11,-43,-70,-69,-95
-80,-34,37,57,-59,8,68,-11,-55,-70,-75,-113
-74,-34,31,51,-53,2,62,-11,-49,-70,-69,-113
-74,-34,31,51,-53,2,62,-11,-49,-70,-63,-113
-68,-34,25,51,-47,2,56,-11,-43,-70,-57,-113
-68,-34,25,51,-47,2,56,-11,-43,-70,-51,-113
-68,-34,25,51,-47,2,62,-11,-49,-70,-63,-113
-68,-34,25,51,-47,2,62,-11,-49,-70,-69,-113
-68,-40,19,51,-47,-4,68,-17,-49,-70,-75,-119
-68,-40,19,51,-47,-4,68,-17,-49,-70,-81,-119
-74,-46,19,57,-47,-10,62,-23,-49,-70,-75,-113
-74,-40,25,57,-53,-4,62,-23,-49,-70,-75,-113
-80,-46,25,63,-53,-4,62,-23,-43,-70,-69,-107
-80,-46,25,63,-53,-4,62,-23,-43,-70,-69,-107
-86,-46,31,63,-59,-4,56,-23,-49,-76,-69,-107
-86,-46,31,63,-59,-4,56,-23,-49,-76,-69,-107
-92,-52,31,69,-65,-4,50,-23,-61,-76,-75,-107
-92,-52,31,69,-65,-4,50,-23,-61,-76,-75,-101
-80,-46,25,63,-53,-4,50,-29,-55,-76,-69,-101
-74,-40,25,57,-53,-4,50,-29,-55,-76,-69,-107
-68,-34,25,51,-47,2,50,-35,-55,-76,-63,-107
-62,-28,25,45,-47,2,50,-35,-55,-76,-57,-107
-68,-40,19,51,-47,-4,50,-35,-55,-76,-57,-107
-74,-40,25,57,-53,-4,50,-35,-61,-76,-57,-107
-80,-46,25,63,-53,-4,44,-35,-61,-82,-57,-107
-86,-40,37,63,-65,2,44,-41,-67,-82,-57,-107
-80,-40,31,57,-59,2,44,-41,-67,-82,-63,-107
-80,-40,31,57,-59,2,44,-41,-61,-82,-69,-107
-74,-40,25,57,-53,-4,44,-41,-61,-76,-75,-113
-68,-40,19,51,-47,-4,44,-41,-61,-76,-81,-113
-68,-40,19,51,-47,-4,44,-41,-61,-82,-75,-119
-74,-40,25,57,-53,-4,50,-41,-61,-82,-75,-119
-74,-40,25,57,-53,-4,50,-35,-61,-88,-69,-125
-68,-46,19,57,-41,-10,44,-35,-61,-88,-69,-119
-74,-46,19,57,-47,-10,50,-35,-61,-82,-57,-113
-74,-40,25,57,-53,-4,50,-35,-61,-76,-57,-113
-74,-40,25,57,-53,-4,56,-29,-61,-70,-51,-107
-74,-40,25,57,-53,-4,50,-29,-61,-64,-51,-107
-62,-34,19,45,-41,-4,50,-29,-55,-64,-45,-107
-56,-34,19,45,-35,-4,50,-23,-55,-64,-45,-101
-44,-16,19,27,-35,8,50,-23,-43,-58,-39,-101
-32,-4,19,15,-29,14,62,-17,-43,-52,-33,-95
-38,8,37,15,-41,25,74,-17,-37,-46,-33,-89
-38,8,37,15,-41,25,80,-17,-37,-46,-33,-89
-44,14,49,15,-47,25,86,-11,-31,-40,-27,-83
-44,20,55,9,-53,31,92,-11,-31,-40,-27,-77
-44,26,61,9,-53,37,86,-17,-37,-40,-27,-77
-44,26,61,9,-53,37,80,-17,-37,-40,-27,-77
-44,26,61,9,-53,37,68,-23,-43,-46,-27,-77
-32,26,49,3,-41,31,68,-29,-43,-46,-27,-77
-20,31,43,-9,-35,31,62,-23,-43,-46,-15,-71
-14,31,37,-9,-29,25,62,-23,-43,-46,-15,-71
-8,31,43,-21,-23,37,44,-17,-43,-46,-15,-71
9,37,31,-21,-11,31,38,-11,-25,-34,-9,-65
9,55,49,-26,-17,49,26,-11,-19,-28,2,-53
9,67,55,-32,-17,61,26,-11,-19,-16,2,-41
9,85,73,-44,-29,79,26,-5,-7,-5,2,-35
9,97,85,-50,-35,91,26,-5,-2,-5,2,-35
9,91,85,-44,-35,85,26,-11,-7,-5,2,-41
4,79,79,-32,-35,79,26,-11,-13,-5,2,-41
-2,67,73,-26,-35,67,26,-17,-19,-10,2,-47
-2,55,61,-21,-29,55,26,-17,-37,-28,2,-59
-14,43,61,-21,-35,49,26,-23,-43,-34,-15,-65
-14,31,37,-9,-29,25,26,-23,-43,-34,-15,-71
-14,20,25,-3,-23,25,20,-35,-49,-40,-21,-77
-14,14,19,-3,-17,20,26,-35,-55,-52,-21,-89
-14,2,19,3,-11,8,26,-41,-55,-52,-21,-95
-20,-4,19,9,-17,8,26,-47,-55,-52,-27,-95
-20,-4,19,9,-17,8,26,-53,-67,-58,-21,-89
-20,-4,19,9,-17,8,26,-59,-67,-58,-21,-83
-32,-10,19,21,-23,8,32,-53,-67,-64,-27,-89
-56,-22,25,39,-41,8,38,-53,-73,-70,-39,-89
-68,-28,31,45,-53,8,50,-47,-73,-70,-45,-95
-80,-34,37,57,-59,8,56,-53,-73,-70,-57,-107
-74,-40,25,57,-53,-4,56,-65,-79,-82,-51,-113
-86,-46,31,63,-59,-4,56,-65,-79,-82,-51,-113
-86,-52,25,69,-59,-10,56,-71,-79,-88,-45,-119
-98,-52,37,75,-71,-4,56,-71,-79,-88,-45,-119
-98,-52,37,75,-71,-4,50,-77,-85,-88,-57,-125
-98,-52,37,75,-71,-4,56,-77,-85,-88,-57,-125
-98,-52,37,75,-71,-4,50,-83,-91,-94,-63,-131
-98,-52,37,75,-71,-4,50,-83,-91,-94,-63,-131
-104,-58,37,81,-71,-4,50,-83,-91,-94,-69,-137
-104,-64,31,81,-71,-10,56,-89,-91,-94,-75,-137
-104,-70,25,87,-65,-16,56,-89,-91,-94,-81,-137
-104,-70,25,87,-65,-16,56,-89,-91,-94,-81,-137
-104,-70,25,87,-65,-16,56,-89,-91,-100,-75,-137
-104,-70,25,87,-65,-16,56,-83,-91,-100,-81,-137
-98,-76,19,87,-59,-28,56,-83,-91,-106,-75,-143
-98,-76,19,87,-59,-28,50,-83,-91,-106,-75,-143
-86,-64,19,75,-53,-22,50,-77,-91,-106,-51,-113
-104,-64,31,81,-71,-10,50,-77,-91,-94,-75,-119
-104,-76,19,87,-65,-22,62,-71,-91,-94,-87,-143
-104,-76,19,87,-65,-22,56,-71,-97,-94,-75,-143
-104,-76,19,87,-65,-22,68,-65,-85,-94,-63,-131
-104,-76,19,87,-65,-22,80,-59,-79,-88,-51,-137
-134,-88,37,111,-89,-22,104,-23,-67,-82,-81,-149
-146,-88,49,117,-101,-16,146,36,-25,-58,-99,-155
-134,-100,25,117,-83,-34,188,156,28,-52,-75,-167
-122,-112,14,117,-65,-52,242,276,100,-46,-45,-179
-104,-94,14,99,-53,-40,296,390,178,-10,-33,-191
-104,-58,37,81,-71,-4,350,492,256,25,-39,-197
-110,-10,91,57,-101,31,392,558,340,91,-21,-173
-62,49,115,-3,-89,79,392,672,448,193,62,-101
21,145,115,-80,-41,133,380,798,586,307,200,-18
123,253,121,-188,-6,187,338,918,718,439,326,120
195,391,193,-290,-6,289,296,1014,862,595,464,270
303,577,265,-440,12,427,236,1080,1036,781,650,456
441,763,319,-602,54,541,146,1062,1198,979,884,648
573,931,349,-752,108,643,-3,978,1300,1147,1100,870
735,1081,343,-908,192,715,-213,852,1336,1279,1316,1080
813,1201,379,-1004,216,787,-381,672,1276,1351,1460,1242
837,1273,433,-1052,204,853,-483,444,1144,1345,1514,1350
801,1285,481,-1040,162,883,-531,246,970,1261,1472,1344
675,1147,469,-908,102,805,-483,36,760,1057,1286,1188
459,925,463,-692,-6,697,-375,-227,442,751,950,900
255,751,487,-506,-107,619,-339,-515,46,427,572,642
153,637,481,-392,-161,559,-399,-779,-283,169,314,450
75,535,457,-302,-185,499,-465,-893,-469,1,182,306
39,415,367,-230,-161,391,-501,-845,-511,-70,98,204
39,289,247,-164,-95,265,-501,-737,-487,-112,38,96
33,169,127,-98,-41,151,-465,-647,-463,-130,-9,18
9,49,31,-26,-6,43,-405,-563,-427,-148,-69,-59
9,-28,-46,3,24,-34,-345,-503,-409,-148,-93,-113
4,-82,-82,39,36,-82,-279,-455,-379,-148,-105,-155
-26,-112,-82,69,18,-100,-237,-431,-361,-154,-117,-179
-68,-124,-52,93,-6,-88,-189,-407,-367,-166,-141,-179
-80,-112,-28,93,-23,-70,-129,-329,-343,-166,-153,-161
-50,-64,-10,57,-17,-40,-57,-233,-277,-154,-111,-137
-50,-40,14,45,-29,-16,-9,-161,-229,-142,-69,-125
-86,-52,25,69,-59,-10,2,-137,-205,-136,-69,-113
-110,-40,61,75,-89,14,44,-101,-169,-118,-93,-125
-92,-52,31,69,-65,-4,74,-77,-133,-94,-93,-125
-80,-76,8,75,-41,-34,74,-59,-109,-88,-57,-125
-74,-88,-10,81,-29,-52,50,-71,-121,-88,-45,-113
-56,-82,-22,69,-11,-52,38,-71,-109,-88,-57,-125
-68,-70,2,69,-29,-34,26,-71,-109,-76,-57,-131
-62,-70,-4,63,-23,-40,26,-77,-115,-82,-51,-125
-68,-76,-4,69,-29,-40,38,-77,-121,-94,-63,-125
-74,-76,2,75,-35,-40,44,-71,-121,-106,-57,-125
-80,-76,8,75,-41,-34,62,-71,-121,-106,-63,-131
-92,-88,8,87,-47,-40,74,-53,-115,-106,-69,-137
-104,-88,19,93,-59,-34,74,-47,-109,-106,-75,-137
-92,-82,14,87,-47,-34,74,-41,-91,-106,-81,-143
-68,-82,-10,75,-23,-46,74,-47,-85,-106,-75,-143
-68,-82,-10,75,-23,-46,62,-47,-91,-94,-63,-137
-74,-82,-4,75,-29,-46,62,-47,-91,-94,-75,-137
-74,-82,-4,75,-29,-46,62,-47,-97,-88,-81,-131
-74,-76,2,75,-35,-40,62,-47,-97,-88,-81,-131
-74,-76,2,75,-35,-40,68,-41,-97,-94,-75,-137
-80,-76,8,75,-41,-34,74,-35,-97,-94,-75,-137
-80,-76,8,75,-41,-34,74,-35,-97,-94,-69,-143
-80,-76,8,75,-41,-34,74,-35,-97,-88,-69,-143
-80,-76,8,75,-41,-34,68,-29,-91,-88,-69,-149
-68,-76,-4,69,-29,-40,68,-29,-91,-88,-57,-143
-62,-76,-10,69,-23,-46,62,-41,-85,-88,-63,-149
-62,-76,-10,69,-23,-46,62,-41,-85,-88,-69,-149
-68,-70,2,69,-29,-34,68,-35,-79,-88,-63,-137
-68,-64,8,63,-35,-28,68,-35,-79,-82,-63,-131
-74,-64,14,69,-41,-28,74,-35,-73,-82,-57,-113
-80,-70,14,75,-41,-28,74,-35,-73,-82,-57,-107
-74,-64,14,69,-41,-28,74,-23,-73,-76,-57,-113
-74,-64,14,69,-41,-28,74,-23,-73,-76,-51,-113
-68,-58,14,63,-35,-22,74,-11,-73,-70,-51,-119
-62,-58,8,57,-29,-28,74,-11,-67,-70,-39,-113
-56,-64,-4,57,-23,-34,80,-17,-67,-70,-39,-113
-56,-64,-4,57,-23,-34,80,-17,-61,-70,-39,-113
-56,-70,-10,63,-17,-40,80,-23,-61,-70,-45,-113
-56,-70,-10,63,-17,-40,80,-23,-61,-70,-33,-107
-56,-70,-10,63,-17,-40,74,-17,-61,-70,-39,-101
-56,-64,-4,57,-23,-34,74,-17,-55,-64,-39,-101
-50,-64,-10,57,-17,-40,68,-11,-55,-64,-33,-95
-44,-58,-10,51,-11,-34,68,-11,-55,-64,-27,-95
-50,-58,-4,51,-17,-34,74,-11,-55,-64,-33,-101
-50,-58,-4,51,-17,-34,74,-11,-49,-64,-33,-95
-50,-58,-4,51,-17,-34,80,-11,-49,-64,-27,-101
-50,-58,-4,51,-17,-34,80,-11,-49,-64,-27,-95
-50,-58,-4,51,-17,-34,80,-5,-43,-58,-9,-101
-44,-58,-10,51,-11,-34,74,-5,-37,-58,-21,-101
-32,-58,-22,45,-6,-40,74,-5,-31,-58,-21,-101
-26,-52,-22,39,-6,-40,74,-5,-31,-58,-21,-101
-26,-46,-16,33,-6,-34,68,6,-31,-52,-21,-95
-26,-46,-16,33,-6,-34,68,6,-31,-46,-21,-95
-26,-40,-10,33,-6,-28,68,6,-25,-40,-21,-95
-26,-40,-10,33,-6,-28,68,6,-19,-34,-15,-89
-20,-40,-16,27,-6,-28,68,6,-19,-40,-9,-89
-20,-34,-10,27,-6,-22,68,6,-19,-34,-9,-89
-26,-34,-4,27,-6,-22,74,12,-13,-34,-9,-89
-26,-28,2,27,-11,-16,74,18,-13,-28,-9,-89
-20,-22,2,21,-6,-10,68,18,-13,-28,-9,-83
-14,-22,-4,15,-6,-16,68,18,-2,-22,-9,-77
4,-10,-10,3,0,-10,62,24,-7,-22,2,-71
4,-4,-4,-3,-6,-4,62,30,-13,-22,2,-71
-2,-4,2,3,-6,-4,56,24,-7,-16,2,-77
9,-10,-16,-3,6,-16,56,24,-2,-10,2,-71
9,-16,-22,3,6,-22,56,18,-2,-10,2,-77
9,-16,-22,3,6,-22,50,24,-2,-10,2,-71
9,-10,-22,-3,12,-16,50,42,-2,-10,2,-59
15,-4,-28,-15,18,-16,44,42,10,-5,8,-47
21,8,-22,-21,18,-4,44,48,10,-5,20,-35
21,8,-22,-21,18,-4,44,60,10,1,26,-24
21,20,-10,-21,12,8,44,72,16,1,26,-24
33,20,-22,-21,24,2,44,72,22,1,38,-24
39,26,-22,-26,30,2,38,72,22,1,44,-24
51,26,-34,-32,42,-4,38,72,28,7,50,-24
63,31,-40,-38,48,-4,32,72,28,7,62,-12
63,31,-40,-38,48,-4,26,84,34,19,62,-6
69,31,-34,-50,54,8,26,90,46,25,62,-6
81,37,-40,-56,60,8,20,90,52,31,68,6
81,43,-34,-62,60,14,20,102,64,37,80,12
93,49,-40,-68,66,14,14,108,70,37,92,18
87,55,-28,-68,60,20,8,114,82,43,104,12
87,61,-22,-74,54,25,2,126,88,61,104,24
99,73,-22,-86,60,25,2,132,88,67,110,30
117,85,-28,-98,72,25,2,132,88,73,128,42
123,97,-22,-110,72,31,-9,132,82,73,128,60
123,103,-16,-110,72,37,-15,144,94,79,128,66
141,115,-22,-128,84,43,-21,144,100,85,140,84
153,127,-22,-140,90,49,-27,150,112,91,158,90
177,139,-34,-158,108,49,-33,162,118,103,182,102
195,151,-40,-170,120,49,-39,168,124,109,182,120
189,151,-34,-170,114,55,-45,174,130,115,194,138
195,157,-34,-176,114,55,-57,174,136,127,206,138
195,157,-34,-176,114,55,-63,180,142,133,212,156
219,169,-46,-194,132,55,-69,180,142,133,224,168
225,175,-46,-200,138,61,-75,180,136,133,236,174
225,181,-40,-200,132,67,-81,180,142,145,230,180
225,193,-28,-206,126,79,-87,186,136,151,224,192
243,199,-40,-218,144,73,-93,192,142,157,230,204
249,211,-40,-230,150,79,-99,192,148,163,242,204
255,223,-34,-242,150,91,-105,192,142,163,254,210
267,235,-34,-254,156,97,-117,192,148,163,266,216
273,247,-28,-260,156,103,-123,192,148,169,278,216
279,241,-40,-260,162,97,-129,186,142,169,278,222
285,241,-46,-260,168,91,-135,186,142,169,284,234
291,247,-46,-266,174,97,-141,186,136,175,284,240
291,253,-40,-266,168,103,-147,186,136,175,284,246
303,253,-52,-272,180,97,-147,180,136,181,290,252
309,265,-46,-284,180,103,-153,180,130,187,296,258
315,265,-52,-284,186,103,-153,174,124,193,308,258
315,265,-52,-284,186,103,-153,162,118,193,308,258
309,265,-46,-284,180,103,-159,162,118,187,302,264
303,265,-40,-278,174,109,-159,162,118,187,302,264
297,265,-34,-278,168,109,-159,168,118,181,296,264
297,265,-34,-278,168,109,-159,156,118,181,296,258
285,265,-22,-272,156,115,-153,144,106,169,290,252
279,265,-16,-266,150,121,-147,138,94,163,266,246
261,253,-10,-260,138,115,-129,132,82,151,254,234
249,247,-4,-248,132,115,-117,120,76,145,242,228
237,229,-4,-230,120,109,-99,114,70,133,242,216
225,211,-10,-218,120,97,-81,108,64,127,230,198
195,193,2,-194,96,91,-63,84,52,109,218,174
183,175,-4,-176,96,79,-51,72,46,97,212,150
159,163,8,-158,78,79,-39,60,28,91,182,132
129,151,19,-140,54,85,-27,48,22,79,164,114
111,139,19,-122,42,79,-15,36,4,79,140,96
87,127,31,-104,24,79,2,24,-2,67,110,84
63,109,37,-86,6,73,2,12,-2,55,104,66
51,103,43,-74,0,73,8,6,-2,43,86,48
33,97,55,-62,-6,79,20,1,-13,31,62,36
27,85,49,-56,-6,67,26,-5,-19,25,50,18
15,79,55,-44,-11,67,38,-5,-19,13,38,-6
9,67,61,-32,-23,61,50,-17,-31,1,26,-24
9,43,37,-21,-11,37,56,-29,-31,-5,26,-29
-2,37,43,-21,-23,37,62,-35,-37,-5,14,-35
-14,31,43,-15,-29,31,74,-47,-43,-5,2,-41
-26,31,49,-3,-41,31,80,-59,-49,-10,-9,-53
-38,20,49,9,-47,25,86,-59,-55,-16,-21,-65
-38,14,43,9,-41,25,92,-65,-61,-28,-39,-77
-38,14,43,9,-41,25,92,-65,-61,-28,-33,-77
-50,8,49,21,-53,25,98,-71,-61,-34,-45,-77
-56,-4,43,27,-53,25,104,-71,-61,-40,-33,-89
-62,-10,43,33,-53,20,104,-71,-61,-46,-39,-101
-62,-16,37,39,-53,14,110,-77,-61,-40,-39,-95
-68,-28,31,45,-53,8,110,-83,-67,-40,-39,-107
-68,-28,31,45,-53,8,122,-77,-61,-34,-39,-107
-74,-28,37,51,-59,8,122,-77,-61,-40,-57,-113
-74,-34,31,51,-53,2,116,-83,-61,-40,-63,-113
-74,-28,37,51,-59,8,122,-83,-67,-46,-63,-113
-74,-28,37,51,-59,8,116,-89,-67,-46,-75,-113
-80,-22,49,51,-65,20,116,-95,-67,-46,-75,-113
-80,-22,49,51,-65,20,110,-95,-67,-58,-69,-125
-80,-22,49,51,-65,20,110,-95,-67,-58,-69,-125
-80,-28,43,51,-65,14,104,-95,-67,-64,-63,-125
-80,-28,43,51,-65,14,104,-107,-67,-64,-63,-137
-80,-28,43,51,-65,14,104,-95,-67,-64,-69,-137
-86,-28,49,57,-71,14,104,-95,-67,-58,-75,-131
-92,-40,43,63,-71,8,104,-95,-67,-58,-81,-131
-92,-46,37,69,-65,2,104,-95,-67,-58,-81,-131
-92,-46,37,69,-65,2,104,-95,-73,-64,-75,-125
-92,-46,37,69,-65,2,104,-95,-73,-64,-69,-125
-92,-46,37,69,-65,2,104,-95,-79,-64,-69,-119
-92,-52,31,69,-65,-4,104,-95,-79,-64,-63,-119
-92,-52,31,69,-65,-4,98,-101,-79,-64,-57,-119
-92,-52,31,69,-65,-4,98,-101,-79,-64,-57,-119
-92,-52,31,69,-65,-4,92,-101,-79,-58,-57,-119
-92,-52,31,69,-65,-4,86,-101,-79,-58,-57,-125
-92,-46,37,69,-65,2,92,-95,-73,-58,-69,-125
-92,-46,37,69,-65,2,98,-95,-73,-58,-69,-125
-92,-40,43,63,-71,8,104,-95,-67,-58,-75,-125
-92,-40,43,63,-71,8,104,-95,-67,-58,-75,-125
-92,-46,37,69,-65,2,104,-95,-73,-52,-81,-131
-104,-46,49,75,-77,8,104,-95,-73,-52,-81,-131
-92,-52,31,69,-65,-4,104,-89,-79,-52,-75,-137
-92,-52,31,69,-65,-4,104,-89,-79,-58,-63,-143
-104,-52,43,75,-77,2,104,-95,-79,-58,-81,-137
-104,-52,43,75,-77,2,104,-95,-79,-58,-81,-143
-110,-52,49,81,-83,2,104,-101,-79,-58,-87,-143
-110,-52,49,81,-83,2,104,-95,-79,-58,-87,-143
-110,-46,55,75,-83,8,104,-95,-79,-58,-87,-149
-110,-46,55,75,-83,8,104,-95,-79,-58,-87,-149
-110,-40,61,75,-89,14,104,-95,-73,-52,-87,-149
-110,-40,61,75,-89,14,104,-89,-73,-52,-81,-149
-104,-46,49,75,-77,8,104,-89,-73,-58,-75,-143
-92,-46,37,69,-65,2,104,-83,-67,-64,-75,-137
-98,-52,37,75,-71,-4,104,-83,-67,-70,-69,-131
-98,-52,37,75,-71,-4,110,-83,-67,-70,-75,-125
-98,-46,43,69,-71,2,110,-71,-61,-64,-81,-125
-98,-40,49,69,-77,8,110,-71,-61,-64,-69,-131
-104,-34,61,69,-83,20,110,-65,-61,-58,-75,-131
-104,-34,61,69,-83,20,110,-65,-61,-52,-75,-131
-110,-40,61,75,-89,14,110,-71,-61,-52,-75,-137
-116,-40,67,75,-95,20,110,-65,-61,-52,-81,-137
-110,-46,55,75,-83,8,116,-71,-55,-52,-75,-143
-98,-46,43,69,-71,2,116,-71,-55,-52,-75,-137
-104,-46,49,75,-77,8,116,-65,-55,-46,-75,-137
-98,-46,43,69,-71,2,116,-65,-55,-46,-75,-137
-104,-46,49,75,-77,8,116,-65,-55,-52,-75,-137
-104,-46,49,75,-77,8,116,-59,-55,-52,-75,-143
-104,-46,49,75,-77,8,116,-59,-61,-52,-69,-143
-104,-46,49,75,-77,8,116,-59,-61,-52,-75,-143
-104,-46,49,75,-77,8,116,-59,-67,-52,-69,-143
-104,-46,49,75,-77,8,116,-59,-67,-52,-69,-137
-104,-52,43,75,-77,2,116,-65,-61,-52,-75,-137
-104,-52,43,75,-77,2,116,-65,-61,-52,-75,-137
-110,-58,43,81,-77,-4,104,-71,-55,-46,-69,-143
-110,-58,43,81,-77,-4,104,-71,-55,-46,-69,-143
-110,-52,49,81,-83,2,104,-65,-49,-52,-75,-137
-110,-52,49,81,-83,2,104,-65,-49,-52,-75,-137
-110,-40,61,75,-89,14,104,-59,-43,-58,-75,-131
-110,-40,61,75,-89,14,104,-59,-43,-58,-75,-131
-98,-40,49,69,-77,8,104,-53,-49,-58,-75,-131
-98,-40,49,69,-77,8,104,-59,-49,-58,-75,-125
-92,-40,43,63,-71,8,104,-53,-55,-58,-69,-125
-92,-40,43,63,-71,8,104,-53,-61,-64,-63,-125
-98,-46,43,69,-71,2,104,-53,-55,-58,-75,-125
-98,-46,43,69,-71,2,104,-53,-55,-58,-81,-125
-104,-52,43,75,-77,2,104,-65,-49,-46,-93,-125
-104,-52,43,75,-77,2,104,-65,-49,-46,-99,-125
-104,-46,49,75,-77,8,104,-71,-55,-58,-93,-125
-104,-46,49,75,-77,8,98,-71,-55,-58,-87,-125
-110,-40,61,75,-89,14,98,-77,-61,-64,-87,-125
-110,-46,55,75,-83,8,98,-77,-61,-64,-81,-131
-92,-46,37,69,-65,2,98,-77,-61,-64,-69,-131
-92,-52,31,69,-65,-4,98,-83,-61,-64,-63,-149
-92,-52,31,69,-65,-4,98,-89,-61,-64,-63,-137
-104,-40,55,69,-83,14,104,-77,-55,-52,-93,-143
-116,-34,73,75,-95,25,104,-83,-55,-46,-111,-149
-110,-40,61,75,-89,14,98,-89,-61,-52,-99,-143
-110,-40,61,75,-89,14,98,-89,-61,-52,-93,-143
-104,-46,49,75,-77,8,92,-95,-67,-58,-81,-137
-104,-46,49,75,-77,8,92,-95,-67,-58,-75,-137
-104,-52,43,75,-77,2,86,-95,-73,-58,-81,-137
-104,-52,43,75,-77,2,86,-95,-73,-58,-81,-137
-104,-64,31,81,-71,-10,80,-101,-73,-58,-81,-143
-104,-64,31,81,-71,-10,80,-101,-73,-58,-81,-143
-104,-58,37,81,-71,-4,80,-101,-79,-58,-81,-143
-104,-52,43,75,-77,2,80,-101,-79,-58,-81,-143
-104,-46,49,75,-77,8,86,-95,-79,-58,-81,-143
-104,-46,49,75,-77,8,86,-95,-79,-58,-81,-143
-98,-52,37,75,-71,-4,80,-101,-79,-64,-75,-137
-98,-52,37,75,-71,-4,80,-101,-79,-64,-75,-137
-92,-64,19,75,-59,-16,74,-107,-85,-64,-75,-131
-92,-64,19,75,-59,-16,74,-107,-85,-64,-75,-125
-98,-64,25,81,-65,-16,74,-107,-79,-64,-81,-131
-98,-64,25,81,-65,-16,74,-107,-79,-64,-87,-137
-110,-64,37,87,-77,-10,74,-107,-79,-64,-93,-143
-110,-64,37,87,-77,-10,74,-107,-79,-64,-93,-143
-104,-64,31,81,-71,-10,74,-107,-79,-64,-87,-143
-98,-64,25,81,-65,-16,74,-107,-85,-64,-87,-143
-92,-58,25,75,-59,-10,68,-107,-85,-70,-81,-143
-86,-52,25,69,-59,-10,68,-113,-91,-70,-81,-143
-86,-52,25,69,-59,-10,68,-113,-91,-70,-75,-143
-86,-52,25,69,-59,-10,68,-113,-85,-70,-75,-143
-86,-52,25,69,-59,-10,68,-113,-85,-64,-69,-149
-80,-52,19,63,-53,-10,68,-113,-85,-64,-69,-149
-86,-52,25,69,-59,-10,68,-113,-79,-58,-75,-149
-92,-52,31,69,-65,-4,74,-113,-79,-58,-81,-149
-98,-52,37,75,-71,-4,74,-107,-73,-52,-87,-149
-92,-58,25,75,-59,-10,68,-107,-73,-52,-93,-143
-92,-52,31,69,-65,-4,68,-107,-73,-58,-81,-137
-92,-46,37,69,-65,2,68,-107,-73,-58,-81,-137
-86,-40,37,63,-65,2,68,-101,-73,-64,-75,-131
-86,-40,37,63,-65,2,62,-101,-73,-64,-75,-131
-80,-34,37,57,-59,8,68,-101,-73,-58,-75,-131
-80,-34,37,57,-59,8,68,-95,-73,-58,-75,-125
-74,-16,49,45,-65,20,74,-95,-67,-46,-75,-125
-68,-4,55,33,-65,25,86,-89,-67,-40,-69,-119
-68,8,67,27,-71,31,92,-83,-61,-34,-63,-113
-68,8,67,27,-71,31,92,-83,-55,-34,-57,-113
-68,14,73,27,-71,37,92,-71,-49,-28,-45,-107
-68,20,79,21,-77,43,92,-71,-43,-28,-39,-101
-62,20,73,21,-71,37,92,-77,-49,-28,-45,-107
-62,20,73,21,-71,37,86,-77,-49,-28,-45,-107
-56,14,61,21,-59,31,80,-83,-55,-34,-51,-113
-44,14,49,15,-47,25,80,-89,-55,-34,-51,-113
-38,14,43,9,-41,25,74,-89,-55,-34,-45,-107
-38,14,43,9,-41,25,68,-89,-55,-34,-51,-107
-38,20,49,9,-47,25,50,-89,-55,-34,-57,-107
-26,26,43,-3,-35,25,38,-83,-37,-22,-57,-101
-20,31,49,-9,-35,37,26,-83,-37,-22,-45,-95
-14,37,55,-21,-35,43,26,-83,-37,-16,-33,-83
-8,49,61,-21,-35,55,26,-77,-31,-10,-27,-83
-8,61,73,-21,-41,67,26,-77,-25,-5,-21,-83
-14,55,73,-21,-41,61,26,-77,-31,-5,-27,-83
-20,49,73,-21,-47,61,26,-77,-31,-5,-33,-77
-26,37,67,-15,-47,49,26,-77,-37,-5,-39,-77
-26,31,61,-9,-41,43,26,-77,-49,-16,-45,-83
-32,31,55,-3,-47,37,32,-83,-49,-22,-51,-89
-32,14,37,9,-35,25,32,-83,-49,-22,-45,-95
-26,2,19,9,-23,14,32,-95,-49,-28,-39,-101
-26,2,19,9,-23,14,38,-95,-55,-40,-33,-113
-26,-10,19,15,-17,2,32,-101,-55,-40,-45,-119
-32,-16,19,21,-23,2,32,-107,-55,-40,-51,-125
-32,-16,19,21,-23,2,26,-113,-67,-46,-57,-119
-32,-16,19,21,-23,2,26,-119,-67,-46,-57,-119
-38,-16,19,27,-29,2,26,-113,-73,-52,-63,-125
-56,-28,19,39,-41,2,26,-113,-79,-58,-69,-125
-62,-28,25,45,-47,2,32,-107,-85,-58,-75,-131
-68,-34,25,51,-47,2,32,-113,-85,-58,-81,-143
-74,-40,25,57,-53,-4,44,-125,-91,-64,-81,-149
-86,-46,31,63,-59,-4,44,-125,-91,-64,-81,-149
-98,-52,37,75,-71,-4,56,-131,-91,-64,-81,-155
-110,-52,49,81,-83,2,56,-131,-91,-64,-81,-155
-116,-58,49,87,-83,2,56,-131,-91,-70,-93,-149
-122,-58,55,87,-89,2,62,-131,-91,-70,-93,-149
-128,-64,55,93,-95,2,62,-131,-91,-82,-99,-143
-134,-64,61,99,-101,2,62,-131,-91,-82,-99,-143
-128,-70,49,99,-89,-4,56,-137,-97,-88,-99,-155
-122,-76,37,99,-83,-16,56,-143,-97,-88,-105,-155
-110,-82,19,93,-65,-28,50,-149,-103,-94,-105,-161
-104,-82,19,93,-59,-28,44,-149,-103,-94,-105,-161
-104,-76,19,87,-65,-22,44,-149,-103,-94,-105,-167
-104,-70,25,87,-65,-16,44,-143,-103,-94,-111,-167
-98,-70,19,81,-59,-22,44,-143,-103,-94,-111,-179
-98,-64,25,81,-65,-16,38,-143,-103,-94,-111,-179
-122,-52,61,87,-95,8,38,-137,-91,-70,-111,-173
-116,-64,43,87,-83,-4,50,-137,-79,-58,-111,-155
-104,-64,31,81,-71,-10,38,-143,-91,-70,-75,-155
-104,-76,19,87,-65,-22,44,-143,-97,-70,-75,-167
-116,-76,31,93,-77,-16,44,-125,-97,-70,-87,-167
-140,-76,55,105,-101,-4,68,-107,-91,-64,-111,-173
-134,-76,49,105,-95,-10,104,-59,-67,-58,-105,-173
-134,-76,49,105,-95,-10,146,12,-13,-46,-99,-191
-134,-88,37,111,-89,-22,188,132,40,-28,-99,-203
-134,-100,25,117,-83,-34,242,252,124,-10,-93,-203
-140,-94,37,117,-89,-22,296,366,202,25,-105,-203
-140,-70,61,105,-101,2,338,444,280,61,-87,-197
-110,-10,91,57,-101,31,368,510,364,127,2,-161
-50,73,127,-21,-89,97,380,636,484,235,98,-77
21,181,151,-98,-59,169,356,774,622,367,212,18
111,319,205,-218,-41,265,314,894,748,505,314,144
231,475,241,-350,-6,355,272,978,910,655,488,294
351,637,277,-494,30,463,200,1008,1060,829,686,474
477,799,319,-638,72,559,98,960,1198,1003,896,684
621,955,325,-782,144,643,-63,858,1264,1147,1124,894
741,1093,343,-920,198,721,-267,726,1276,1267,1292,1104
801,1201,391,-998,204,793,-429,504,1210,1327,1424,1266
825,1285,457,-1052,186,871,-519,246,1048,1309,1490,1362
765,1261,493,-1010,138,877,-555,54,880,1213,1430,1320
591,1111,511,-848,36,811,-465,-107,670,1009,1184,1128
375,889,505,-632,-59,703,-363,-365,346,709,806,828
237,739,499,-488,-125,619,-363,-647,-25,391,488,594
141,637,493,-386,-173,565,-435,-887,-343,145,266,402
63,523,457,-290,-191,493,-495,-965,-487,1,122,246
39,367,319,-206,-137,343,-525,-893,-511,-70,38,144
27,247,211,-134,-83,229,-513,-797,-487,-100,-21,60
21,133,103,-74,-35,121,-465,-707,-451,-106,-69,-6
9,26,8,-21,0,20,-405,-623,-415,-124,-105,-71
9,-64,-70,27,30,-70,-345,-551,-397,-124,-117,-137
-8,-94,-82,51,30,-88,-279,-509,-379,-124,-129,-155
-38,-100,-58,69,0,-82,-237,-485,-361,-130,-153,-167
-56,-100,-40,75,-6,-70,-189,-443,-355,-142,-165,-179
-68,-88,-16,75,-23,-52,-129,-365,-319,-154,-141,-173
-74,-76,2,75,-35,-40,-81,-281,-265,-154,-135,-161
-74,-64,14,69,-41,-28,-45,-233,-229,-142,-141,-161
-98,-64,25,81,-65,-16,-9,-197,-205,-112,-153,-161
-110,-76,25,93,-71,-22,8,-173,-169,-94,-153,-149
-92,-76,19,81,-53,-28,26,-149,-145,-106,-105,-149
-92,-76,19,81,-53,-28,14,-155,-145,-100,-81,-161
-98,-76,19,87,-59,-28,14,-143,-133,-76,-93,-161
-92,-70,19,81,-53,-22,14,-143,-133,-64,-105,-149
-80,-70,14,75,-41,-28,2,-143,-121,-64,-105,-143
-74,-70,8,69,-35,-34,2,-143,-127,-70,-105,-149
-80,-76,8,75,-41,-34,8,-143,-133,-82,-117,-149
-86,-76,14,81,-47,-34,8,-131,-133,-94,-117,-161
-92,-76,19,81,-53,-28,26,-131,-133,-94,-123,-167
-104,-88,19,93,-59,-34,38,-125,-127,-94,-117,-161
-116,-88,19,99,-71,-28,38,-119,-121,-94,-117,-161
-104,-82,19,93,-59,-28,38,-125,-103,-94,-111,-155
-80,-82,2,81,-35,-40,38,-131,-97,-94,-99,-155
-80,-88,-4,81,-35,-46,32,-125,-103,-82,-93,-155
-86,-88,2,87,-41,-46,32,-125,-103,-82,-105,-155
-86,-94,-4,87,-35,-52,38,-119,-109,-76,-117,-155
-86,-88,2,87,-41,-46,38,-119,-109,-76,-117,-155
-92,-94,2,93,-41,-46,38,-113,-103,-82,-123,-161
-98,-94,8,93,-47,-46,44,-107,-103,-82,-123,-161
-104,-100,8,99,-53,-46,38,-107,-97,-82,-129,-167
-104,-100,8,99,-53,-46,38,-107,-97,-76,-129,-167
-98,-94,8,93,-47,-46,32,-95,-97,-76,-117,-167
-86,-88,2,87,-41,-46,32,-95,-97,-76,-99,-161
-74,-82,-4,75,-29,-46,26,-101,-97,-76,-93,-161
-74,-76,2,75,-35,-40,26,-101,-97,-76,-93,-161
-68,-70,2,69,-29,-34,26,-101,-91,-70,-93,-161
-68,-64,8,63,-35,-28,26,-101,-91,-64,-93,-161
-62,-64,2,63,-29,-34,26,-107,-85,-58,-93,-155
-68,-70,2,69,-29,-34,26,-107,-85,-58,-93,-155
-74,-64,14,69,-41,-28,26,-95,-85,-64,-99,-149
-74,-64,14,69,-41,-28,26,-95,-85,-64,-93,-149
-80,-58,19,69,-47,-16,26,-83,-85,-70,-99,-143
-74,-58,19,63,-41,-22,26,-83,-79,-70,-87,-137
-62,-58,8,57,-29,-28,26,-89,-79,-64,-81,-137
-62,-58,8,57,-29,-28,26,-89,-73,-64,-81,-137
-56,-58,2,57,-23,-28,20,-95,-73,-58,-81,-137
-56,-58,2,57,-23,-28,20,-95,-73,-58,-69,-131
-56,-58,2,57,-23,-28,26,-83,-67,-58,-81,-137
-56,-52,8,51,-29,-22,26,-83,-61,-52,-81,-137
-50,-52,2,51,-23,-28,32,-71,-55,-52,-81,-143
-44,-46,2,45,-17,-22,32,-71,-55,-52,-75,-143
-50,-52,2,51,-23,-28,26,-71,-61,-58,-75,-143
-50,-52,2,51,-23,-28,26,-71,-55,-58,-75,-137
-50,-58,-4,51,-17,-34,20,-71,-61,-64,-63,-137
-50,-58,-4,51,-17,-34,20,-71,-61,-64,-63,-131
-50,-52,2,51,-23,-28,26,-71,-55,-52,-51,-125
-50,-52,2,51,-23,-28,20,-71,-49,-52,-63,-125
-38,-46,-4,39,-11,-28,26,-77,-43,-46,-69,-113
-38,-40,2,39,-17,-22,26,-77,-43,-46,-69,-113
-44,-46,2,45,-17,-22,20,-65,-43,-40,-63,-113
-44,-46,2,45,-17,-22,20,-59,-43,-34,-63,-113
-50,-52,2,51,-23,-28,20,-53,-37,-28,-57,-119
-50,-52,2,51,-23,-28,20,-47,-31,-22,-51,-113
-32,-52,-16,39,-6,-34,14,-53,-31,-28,-51,-107
-32,-46,-10,39,-6,-28,14,-47,-31,-22,-51,-107
-26,-46,-16,33,-6,-34,14,-47,-25,-22,-57,-101
-26,-40,-10,33,-6,-28,14,-41,-25,-16,-57,-101
-26,-34,-4,27,-6,-22,14,-41,-19,-16,-57,-95
-20,-34,-10,27,-6,-22,14,-41,-7,-10,-51,-89
-8,-22,-10,15,-6,-16,14,-35,-7,-10,-33,-83
-8,-16,-4,9,-6,-10,14,-29,-13,-10,-21,-83
-8,-10,2,9,-6,-4,8,-23,-13,-5,-21,-77
4,-10,-10,3,0,-10,8,-23,-7,-5,-21,-71
9,-10,-16,-3,6,-16,8,-17,-7,-5,-27,-65
9,-4,-10,-3,0,-10,2,-11,-7,-5,-33,-59
9,-4,-16,-9,6,-10,2,-5,-2,-5,-21,-59
15,2,-22,-15,18,-10,2,-5,-2,1,-9,-53
21,8,-22,-21,18,-4,-3,-11,-2,7,2,-53
21,8,-22,-21,18,-4,-3,1,-2,13,2,-47
15,20,-4,-21,6,8,-3,6,4,13,2,-41
21,20,-10,-21,12,8,-3,6,10,13,2,-41
21,26,-4,-21,12,14,-9,6,10,13,2,-35
27,26,-10,-21,18,8,-9,6,16,19,2,-35
39,31,-16,-26,24,8,-15,6,16,19,14,-24
39,31,-16,-26,24,8,-21,12,22,31,14,-24
45,31,-10,-38,30,20,-21,18,34,37,14,-24
57,37,-16,-44,36,20,-27,18,40,43,20,-18
63,43,-16,-50,42,20,-27,30,46,43,26,-6
75,49,-22,-62,48,20,-33,36,52,43,38,0
75,55,-16,-62,48,25,-39,42,58,43,44,0
75,61,-10,-68,42,25,-45,54,64,61,44,12
87,67,-16,-74,54,25,-51,54,70,61,56,12
105,79,-22,-92,66,25,-57,54,70,67,74,24
111,85,-22,-98,66,25,-69,48,70,61,80,36
111,91,-16,-98,66,31,-75,60,82,67,80,42
129,97,-28,-110,78,31,-87,60,82,73,92,66
135,109,-22,-122,78,37,-93,66,94,79,110,72
159,115,-40,-134,102,31,-105,78,94,91,134,90
171,127,-40,-146,108,37,-111,84,100,97,134,108
165,133,-28,-146,96,49,-111,84,100,103,140,114
171,139,-28,-152,102,49,-123,84,106,115,152,114
171,145,-22,-158,96,55,-123,84,106,121,152,120
195,157,-34,-176,114,55,-129,84,106,121,164,132
207,169,-34,-188,120,61,-129,90,112,127,176,144
207,181,-22,-194,114,73,-135,90,118,139,176,150
213,199,-10,-206,114,91,-135,102,124,151,170,168
231,211,-16,-218,126,91,-141,108,130,157,182,180
237,211,-22,-224,132,91,-153,102,124,163,194,180
243,223,-16,-230,132,97,-165,96,118,163,206,186
249,223,-22,-236,138,97,-183,90,112,163,218,192
249,235,-16,-242,138,103,-195,84,112,169,224,198
255,235,-22,-248,144,103,-195,78,106,169,230,210
261,235,-28,-248,150,97,-201,84,106,169,236,216
267,247,-22,-260,150,109,-201,84,100,175,242,228
267,253,-16,-260,144,115,-207,90,100,175,242,234
273,247,-28,-260,156,103,-207,84,100,175,242,246
279,259,-22,-266,156,115,-213,84,94,181,242,252
279,253,-28,-260,156,109,-213,78,88,181,248,258
279,253,-28,-260,156,109,-213,66,82,181,248,258
285,253,-34,-266,162,103,-219,60,82,175,248,252
285,253,-34,-266,162,103,-219,60,82,175,248,252
291,253,-40,-266,168,103,-219,60,82,169,248,240
297,253,-46,-272,174,97,-219,48,82,169,248,234
285,253,-34,-266,162,103,-213,42,76,169,242,234
273,253,-22,-260,150,109,-213,42,64,163,230,228
255,241,-16,-248,138,109,-195,42,58,163,218,222
243,235,-4,-236,126,109,-189,36,52,157,212,216
225,223,2,-224,114,109,-177,36,52,151,194,210
213,211,2,-212,108,103,-159,30,46,145,182,198
183,199,19,-188,84,103,-147,12,40,133,158,180
171,187,19,-176,78,97,-135,6,34,121,152,162
153,169,19,-158,66,91,-117,1,22,109,134,144
129,157,19,-140,48,91,-105,-11,16,97,128,126
117,139,19,-128,48,79,-87,-23,4,91,116,108
99,127,19,-110,36,73,-69,-35,-2,79,98,96
75,109,25,-92,18,67,-63,-41,-7,67,86,78
63,109,37,-86,6,73,-51,-47,-7,55,68,60
45,103,49,-74,-6,79,-39,-59,-25,43,38,48
39,97,49,-68,-6,73,-33,-65,-31,37,26,30
21,91,61,-56,-11,79,-21,-71,-31,25,8,12
9,79,67,-38,-23,73,-9,-83,-43,13,2,-6
9,55,49,-26,-17,49,-3,-101,-43,7,2,-18
-2,49,55,-21,-29,49,2,-107,-49,-5,-9,-24
-20,31,55,-15,-35,43,2,-113,-49,1,-27,-24
-32,31,61,-3,-47,43,8,-119,-55,-5,-39,-29
-50,20,61,15,-59,31,14,-113,-55,-5,-51,-41
-50,14,55,15,-53,25,20,-113,-61,-5,-63,-53
-50,14,55,15,-53,25,20,-119,-61,-5,-63,-47
-62,8,61,27,-65,25,26,-125,-61,-5,-75,-47
-68,-4,55,33,-65,25,32,-131,-61,-5,-69,-53
-74,-10,55,39,-65,25,32,-131,-61,-10,-75,-65
-74,-10,55,39,-65,25,32,-143,-67,-16,-75,-71
-80,-22,49,51,-65,20,32,-149,-73,-16,-75,-83
-80,-16,55,45,-71,25,38,-149,-73,-22,-75,-95
-86,-16,61,51,-77,25,38,-149,-73,-28,-93,-101
-86,-34,43,57,-65,8,38,-149,-73,-28,-93,-107
-86,-34,43,57,-65,8,44,-149,-79,-34,-93,-107
-86,-46,31,63,-59,-4,44,-149,-79,-34,-99,-113
-92,-46,37,69,-65,2,44,-155,-79,-34,-99,-113
-86,-40,37,63,-65,2,44,-155,-73,-40,-99,-125
-86,-40,37,63,-65,2,44,-155,-73,-40,-99,-125
-80,-40,31,57,-59,2,44,-155,-67,-40,-99,-125
-80,-40,31,57,-59,2,44,-167,-67,-40,-99,-137
-86,-34,43,57,-65,8,44,-155,-73,-46,-105,-131
-98,-34,55,63,-77,14,44,-155,-73,-40,-111,-125
-110,-40,61,75,-89,14,44,-155,-79,-46,-117,-119
-116,-46,61,81,-89,14,44,-155,-79,-46,-117,-119
-110,-46,55,75,-83,8,44,-155,-73,-46,-111,-119
-110,-46,55,75,-83,8,44,-155,-73,-46,-105,-119
-104,-46,49,75,-77,8,44,-155,-67,-40,-105,-119
-104,-52,43,75,-77,2,44,-155,-67,-40,-99,-119
-104,-52,43,75,-77,2,44,-161,-73,-46,-99,-119
-104,-52,43,75,-77,2,44,-161,-73,-46,-105,-119
-104,-52,43,75,-77,2,44,-161,-79,-46,-111,-119
-104,-52,43,75,-77,2,38,-161,-79,-46,-117,-125
-104,-52,43,75,-77,2,32,-155,-79,-46,-111,-125
-104,-52,43,75,-77,2,38,-155,-79,-46,-105,-125
-104,-52,43,75,-77,2,32,-155,-79,-46,-93,-125
-104,-52,43,75,-77,2,32,-155,-79,-46,-87,-125
-104,-52,43,75,-77,2,38,-155,-79,-40,-99,-125
-116,-52,55,81,-89,8,38,-155,-79,-40,-105,-119
-104,-52,43,75,-77,2,44,-149,-79,-40,-105,-119
-104,-52,43,75,-77,2,44,-149,-79,-46,-99,-119
-104,-46,49,75,-77,8,44,-149,-79,-46,-111,-119
-104,-46,49,75,-77,8,44,-149,-79,-46,-111,-125
-98,-40,49,69,-77,8,44,-149,-79,-46,-111,-131
-98,-40,49,69,-77,8,44,-143,-79,-46,-111,-131
-104,-40,55,69,-83,14,44,-143,-79,-46,-111,-131
-104,-40,55,69,-83,14,44,-143,-79,-46,-111,-131
-110,-40,61,75,-89,14,44,-143,-73,-40,-111,-125
-110,-40,61,75,-89,14,44,-137,-73,-40,-105,-125
-110,-40,61,75,-89,14,44,-143,-73,-46,-105,-125
-98,-40,49,69,-77,8,44,-137,-67,-52,-105,-125
-110,-40,61,75,-89,14,44,-143,-67,-58,-105,-125
-110,-40,61,75,-89,14,50,-143,-67,-58,-111,-125
-104,-40,55,69,-83,14,50,-131,-67,-52,-111,-125
-104,-34,61,69,-83,20,50,-131,-67,-52,-99,-131
-104,-34,61,69,-83,20,50,-125,-73,-46,-99,-131
-104,-34,61,69,-83,20,50,-125,-73,-40,-99,-131
-110,-34,67,69,-89,20,50,-119,-67,-40,-105,-131
-116,-34,73,75,-95,25,50,-113,-67,-40,-111,-131
-110,-34,67,69,-89,20,56,-107,-55,-40,-111,-131
-98,-34,55,63,-77,14,56,-107,-55,-40,-111,-125
-104,-34,61,69,-83,20,56,-107,-61,-34,-111,-131
-98,-34,55,63,-77,14,56,-107,-61,-34,-111,-131
-104,-34,61,69,-83,20,56,-113,-67,-40,-111,-137
-104,-34,61,69,-83,20,56,-107,-67,-40,-111,-143
-110,-40,61,75,-89,14,56,-107,-61,-40,-117,-137
-110,-40,61,75,-89,14,56,-107,-61,-40,-123,-137
-116,-46,61,81,-89,14,56,-107,-55,-40,-129,-131
-116,-46,61,81,-89,14,56,-107,-55,-40,-129,-125
-110,-46,55,75,-83,8,62,-113,-61,-40,-129,-125
-110,-46,55,75,-83,8,62,-113,-61,-40,-129,-125
-110,-46,55,75,-83,8,56,-119,-67,-34,-117,-131
-110,-46,55,75,-83,8,56,-119,-67,-34,-117,-131
-110,-40,61,75,-89,14,56,-113,-67,-34,-117,-131
-110,-40,61,75,-89,14,56,-113,-67,-34,-117,-131
-110,-28,73,69,-95,25,56,-107,-67,-34,-111,-131
-110,-28,73,69,-95,25,56,-107,-67,-34,-111,-131
-104,-28,67,63,-89,25,56,-107,-61,-40,-123,-131
-104,-28,67,63,-89,25,56,-113,-61,-40,-123,-125
-104,-28,67,63,-89,25,56,-113,-55,-46,-129,-125
-104,-28,67,63,-89,25,56,-113,-61,-52,-123,-125
-104,-34,61,69,-83,20,56,-113,-61,-52,-123,-125
-104,-34,61,69,-83,20,56,-113,-61,-52,-123,-125
-104,-40,55,69,-83,14,56,-125,-61,-46,-123,-125
-104,-40,55,69,-83,14,56,-125,-61,-46,-123,-125
-104,-40,55,69,-83,14,56,-119,-61,-52,-117,-125
-104,-40,55,69,-83,14,50,-119,-61,-52,-117,-125
-110,-40,61,75,-89,14,50,-113,-61,-52,-117,-125
-110,-46,55,75,-83,8,50,-113,-61,-52,-117,-131
-104,-40,55,69,-83,14,44,-113,-67,-46,-123,-131
-104,-34,61,69,-83,20,44,-119,-67,-46,-117,-137
-104,-28,67,63,-89,25,38,-125,-73,-40,-123,-137
-104,-28,67,63,-89,25,32,-125,-79,-40,-129,-131
-98,-34,55,63,-77,14,38,-125,-73,-46,-123,-125
-98,-34,55,63,-77,14,38,-125,-73,-46,-117,-119
-98,-34,55,63,-77,14,44,-125,-67,-52,-99,-119
-98,-34,55,63,-77,14,38,-131,-73,-52,-111,-125
-104,-34,61,69,-83,20,38,-131,-73,-46,-111,-125
-104,-34,61,69,-83,20,38,-131,-73,-46,-111,-125
-98,-34,55,63,-77,14,38,-125,-73,-46,-111,-125
-98,-34,55,63,-77,14,38,-125,-85,-46,-111,-125
-104,-40,55,69,-83,14,32,-131,-85,-52,-111,-125
-104,-40,55,69,-83,14,32,-131,-79,-52,-117,-125
-92,-40,43,63,-71,8,26,-137,-79,-58,-117,-125
-92,-40,43,63,-71,8,26,-137,-79,-58,-111,-131
-98,-40,49,69,-77,8,32,-131,-79,-58,-111,-131
-104,-40,55,69,-83,14,26,-131,-79,-58,-111,-131
-110,-40,61,75,-89,14,32,-125,-79,-58,-111,-131
-104,-40,55,69,-83,14,32,-125,-79,-58,-111,-131
-104,-46,49,75,-77,8,32,-125,-85,-58,-117,-131
-104,-46,49,75,-77,8,32,-131,-85,-58,-117,-131
-104,-52,43,75,-77,2,32,-131,-91,-58,-123,-131
-98,-52,37,75,-71,-4,32,-131,-91,-58,-123,-131
-98,-40,49,69,-77,8,32,-143,-91,-58,-111,-119
-98,-40,49,69,-77,8,32,-143,-91,-58,-93,-113
-98,-40,49,69,-77,8,32,-143,-91,-52,-105,-113
-104,-46,49,75,-77,8,44,-131,-91,-58,-123,-125
-98,-46,43,69,-71,2,38,-137,-91,-58,-117,-125
-98,-46,43,69,-71,2,38,-137,-91,-58,-117,-125
-92,-46,37,69,-65,2,32,-143,-91,-58,-111,-125
-92,-46,37,69,-65,2,32,-143,-91,-58,-111,-125
-98,-52,37,75,-71,-4,38,-137,-91,-58,-117,-125
-98,-52,37,75,-71,-4,38,-137,-91,-58,-117,-125
-104,-64,31,81,-71,-10,44,-137,-85,-58,-117,-131
-104,-64,31,81,-71,-10,44,-137,-85,-58,-117,-131
-104,-58,37,81,-71,-4,38,-143,-97,-58,-123,-131
-104,-52,43,75,-77,2,38,-143,-97,-58,-123,-131
-104,-46,49,75,-77,8,38,-143,-103,-58,-129,-131
-104,-46,49,75,-77,8,38,-143,-103,-58,-129,-131
-104,-46,49,75,-77,8,32,-143,-103,-70,-117,-137
-104,-46,49,75,-77,8,32,-143,-103,-70,-117,-137
-104,-52,43,75,-77,2,26,-143,-109,-76,-111,-143
-104,-52,43,75,-77,2,26,-143,-109,-76,-111,-137
-110,-58,43,81,-77,-4,26,-149,-109,-70,-117,-131
-110,-58,43,81,-77,-4,26,-149,-109,-70,-123,-137
-122,-64,49,93,-89,-4,26,-155,-115,-64,-129,-131
-122,-64,49,93,-89,-4,26,-155,-115,-64,-129,-131
-116,-64,43,87,-83,-4,26,-155,-109,-64,-123,-137
-110,-64,37,87,-77,-10,26,-155,-115,-64,-123,-137
-104,-58,37,81,-71,-4,20,-155,-109,-70,-117,-143
-98,-52,37,75,-71,-4,20,-161,-115,-70,-117,-143
-98,-52,37,75,-71,-4,26,-155,-109,-70,-117,-137
-98,-52,37,75,-71,-4,26,-155,-103,-70,-117,-137
-98,-52,37,75,-71,-4,32,-149,-97,-64,-117,-137
-92,-52,31,69,-65,-4,32,-149,-97,-64,-117,-137
-98,-52,37,75,-71,-4,32,-143,-97,-64,-117,-137
-104,-52,43,75,-77,2,38,-143,-97,-64,-117,-137
-110,-52,49,81,-83,2,38,-131,-97,-64,-117,-137
-104,-58,37,81,-71,-4,32,-131,-97,-64,-117,-131
-104,-64,31,81,-71,-10,26,-143,-103,-70,-117,-137
-104,-58,37,81,-71,-4,26,-143,-103,-70,-117,-143
-98,-64,25,81,-65,-16,20,-149,-109,-76,-123,-149
-98,-64,25,81,-65,-16,14,-149,-109,-76,-123,-155
-98,-70,19,81,-59,-22,14,-149,-109,-76,-129,-149
-98,-70,19,81,-59,-22,14,-143,-109,-76,-129,-143
-98,-64,25,81,-65,-16,14,-143,-103,-70,-135,-137
-92,-52,31,69,-65,-4,26,-137,-103,-64,-129,-131
-86,-40,37,63,-65,2,32,-131,-97,-64,-123,-131
-80,-40,31,57,-59,2,32,-131,-97,-64,-117,-131
-74,-34,31,51,-53,2,32,-119,-91,-64,-105,-131
-68,-28,31,45,-53,8,32,-119,-91,-64,-99,-125
-62,-22,31,39,-47,8,26,-125,-91,-58,-105,-131
-62,-22,31,39,-47,8,20,-125,-91,-58,-105,-131
-56,-22,25,39,-41,8,8,-131,-91,-58,-111,-137
-44,-22,19,33,-29,2,8,-137,-91,-58,-111,-137
-44,-16,19,27,-35,8,14,-131,-91,-52,-105,-125
-44,-16,19,27,-35,8,14,-125,-91,-52,-105,-125
-50,-4,37,27,-47,20,8,-119,-91,-46,-111,-119
-38,2,31,15,-35,20,2,-107,-73,-34,-105,-113
-26,8,25,9,-29,20,2,-107,-79,-34,-93,-113
-20,20,31,-3,-29,25,2,-113,-85,-28,-87,-107
-8,26,25,-9,-17,25,2,-107,-85,-22,-81,-113
-8,31,37,-15,-23,31,2,-113,-85,-16,-81,-119
-8,31,43,-21,-23,37,2,-107,-79,-16,-81,-107
-14,31,43,-15,-29,31,2,-101,-73,-16,-81,-95
-14,31,43,-15,-29,31,8,-95,-67,-16,-81,-83
-14,31,37,-9,-29,25,14,-89,-73,-28,-81,-83
-26,20,37,3,-35,25,14,-95,-79,-28,-93,-89
-26,2,19,9,-23,14,14,-101,-79,-28,-93,-89
-26,-10,19,15,-17,2,8,-113,-85,-28,-93,-95
-26,-10,19,15,-17,2,14,-119,-91,-40,-93,-101
-26,-22,8,21,-11,-10,8,-119,-91,-46,-99,-113
-32,-28,8,27,-17,-10,8,-125,-91,-46,-105,-119
-32,-28,8,27,-17,-10,2,-125,-103,-58,-105,-119
-32,-28,8,27,-17,-10,2,-131,-103,-58,-105,-119
-32,-22,14,27,-17,-4,2,-131,-103,-58,-111,-119
-50,-34,19,39,-29,-10,2,-131,-109,-64,-123,-119
-50,-28,19,39,-35,-4,8,-131,-109,-58,-129,-119
-56,-34,19,45,-35,-4,8,-137,-109,-58,-141,-131
-56,-40,19,45,-35,-10,14,-143,-121,-70,-135,-143
-68,-46,19,57,-41,-10,14,-143,-121,-70,-135,-143
-74,-52,19,63,-47,-16,20,-143,-127,-76,-129,-155
-86,-52,25,69,-59,-10,20,-143,-127,-76,-129,-155
-92,-58,25,75,-59,-10,20,-137,-121,-76,-135,-149
-98,-58,31,75,-65,-10,26,-137,-121,-76,-135,-149
-104,-64,31,81,-71,-10,26,-131,-115,-82,-135,-143
-110,-64,37,87,-77,-10,26,-131,-115,-82,-135,-143
-116,-58,49,87,-83,2,26,-131,-115,-76,-129,-143
-116,-64,43,87,-83,-4,32,-137,-115,-76,-135,-143
-116,-58,49,87,-83,2,32,-137,-115,-70,-129,-137
-116,-58,49,87,-83,2,32,-137,-115,-70,-129,-137
-122,-58,55,87,-89,2,32,-143,-121,-70,-135,-143
-122,-58,55,87,-89,2,32,-137,-121,-70,-141,-143
-122,-64,49,93,-89,-4,32,-143,-127,-70,-147,-155
-122,-64,49,93,-89,-4,26,-143,-127,-70,-147,-155
-110,-52,49,81,-83,2,26,-137,-115,-82,-123,-137
-128,-52,67,87,-101,14,38,-125,-115,-70,-147,-143
-140,-64,67,99,-107,8,38,-119,-103,-70,-159,-155
-116,-64,43,87,-83,-4,32,-131,-97,-70,-123,-155
-116,-40,67,75,-95,20,44,-125,-109,-82,-123,-155
-128,-52,67,87,-101,14,56,-119,-103,-76,-135,-149
-146,-64,73,105,-113,8,80,-71,-79,-70,-141,-149
-134,-64,61,99,-101,2,110,-11,-49,-58,-135,-167
-134,-76,49,105,-95,-10,164,84,-2,-40,-123,-167
-122,-88,25,105,-77,-28,212,210,76,-22,-117,-179
-116,-94,19,105,-65,-34,260,318,142,-5,-105,-191
-128,-58,61,93,-95,8,302,420,226,49,-135,-185
-122,-10,103,63,-113,37,344,492,316,115,-93,-173
-50,61,115,-15,-83,85,356,600,424,193,26,-113
21,169,139,-92,-53,157,344,732,550,319,152,-29
111,295,181,-206,-29,241,326,858,706,463,254,72
207,427,217,-314,-6,319,284,972,838,595,392,216
315,577,259,-446,24,421,236,1008,988,757,578,408
429,763,331,-596,42,547,134,990,1138,937,800,624
549,931,373,-740,84,655,8,930,1240,1111,1004,834
699,1081,379,-890,156,733,-177,816,1276,1231,1202,1044
789,1225,427,-1004,180,823,-357,600,1210,1315,1340,1218
813,1309,493,-1058,162,901,-483,336,1084,1321,1412,1326
801,1321,511,-1058,144,919,-543,114,916,1237,1418,1344
687,1219,523,-950,78,871,-495,-47,718,1069,1250,1188
471,997,517,-734,-17,757,-387,-257,442,787,938,924
267,817,541,-542,-131,685,-351,-527,82,475,572,666
141,685,535,-410,-197,613,-411,-803,-259,205,302,462
63,547,481,-302,-203,511,-477,-953,-469,25,134,294
63,439,367,-254,-149,403,-525,-917,-523,-46,26,192
75,313,235,-194,-71,271,-525,-821,-523,-88,-9,120
33,193,151,-110,-53,175,-495,-749,-505,-118,-81,54
9,61,55,-26,-23,55,-429,-647,-451,-124,-141,-35
9,-16,-34,-3,18,-22,-357,-563,-409,-124,-141,-113
4,-58,-58,27,24,-58,-303,-509,-391,-136,-153,-167
-26,-76,-46,51,0,-64,-249,-467,-373,-130,-165,-191
-44,-76,-28,57,-6,-52,-213,-431,-367,-142,-189,-191
-56,-76,-16,63,-17,-46,-165,-365,-331,-142,-177,-173
-62,-76,-10,69,-23,-46,-105,-293,-301,-142,-171,-161
-62,-52,14,57,-35,-22,-57,-233,-259,-130,-165,-137
-74,-40,25,57,-53,-4,-21,-197,-241,-112,-141,-113
-110,-52,49,81,-83,2,8,-173,-205,-94,-153,-113
-128,-64,55,93,-95,2,26,-149,-181,-82,-165,-137
-104,-64,31,81,-71,-10,26,-143,-157,-88,-117,-149
-86,-64,19,75,-53,-22,14,-131,-133,-76,-105,-149
-80,-58,19,69,-47,-16,2,-119,-121,-64,-105,-149
-68,-46,19,57,-41,-10,2,-119,-133,-76,-117,-155
-62,-46,19,51,-35,-16,2,-119,-139,-76,-117,-149
-68,-52,19,57,-41,-16,8,-119,-145,-88,-129,-149
-74,-52,19,63,-47,-16,8,-107,-145,-94,-129,-149
-80,-52,19,63,-53,-10,26,-107,-145,-94,-135,-155
-98,-64,25,81,-65,-16,44,-95,-145,-88,-141,-155
-110,-64,37,87,-77,-10,44,-89,-139,-88,-147,-155
-104,-58,37,81,-71,-4,50,-89,-127,-82,-153,-155
-80,-58,19,69,-47,-16,50,-95,-121,-82,-147,-155
-86,-64,19,75,-53,-22,38,-95,-121,-76,-129,-155
-92,-64,19,75,-59,-16,38,-95,-121,-76,-141,-155
-98,-70,19,81,-59,-22,38,-95,-121,-76,-141,-155
-98,-64,25,81,-65,-16,38,-95,-121,-76,-141,-155
-98,-64,25,81,-65,-16,44,-89,-121,-82,-147,-149
-104,-64,31,81,-71,-10,50,-83,-121,-82,-153,-149
-104,-64,31,81,-71,-10,50,-83,-121,-82,-159,-143
-104,-64,31,81,-71,-10,50,-83,-121,-76,-165,-143
-104,-64,31,81,-71,-10,50,-77,-115,-82,-153,-149
-92,-64,19,75,-59,-16,50,-77,-115,-82,-135,-143
-86,-64,19,75,-53,-22,50,-89,-109,-88,-129,-149
-86,-64,19,75,-53,-22,50,-89,-109,-88,-129,-149
-80,-64,19,69,-47,-22,44,-77,-109,-82,-129,-149
-80,-58,19,69,-47,-16,44,-77,-109,-76,-129,-149
-74,-64,14,69,-41,-28,38,-71,-109,-70,-129,-143
-80,-70,14,75,-41,-28,38,-71,-109,-70,-129,-143
-80,-64,19,69,-47,-22,44,-65,-109,-64,-129,-143
-80,-64,19,69,-47,-22,44,-65,-109,-64,-123,-143
-80,-58,19,69,-47,-16,50,-59,-109,-58,-123,-143
-74,-58,19,63,-41,-22,50,-59,-103,-58,-111,-137
-68,-52,19,57,-41,-16,50,-59,-97,-64,-111,-137
-68,-52,19,57,-41,-16,50,-59,-91,-64,-111,-137
-68,-46,19,57,-41,-10,44,-59,-85,-70,-117,-137
-68,-46,19,57,-41,-10,44,-59,-85,-70,-105,-131
-80,-52,19,63,-53,-10,44,-53,-91,-64,-123,-131
-80,-46,25,63,-53,-4,44,-53,-85,-58,-129,-131
-86,-52,25,69,-59,-10,44,-47,-91,-52,-135,-131
-80,-46,25,63,-53,-4,44,-47,-91,-52,-135,-131
-74,-46,19,57,-47,-10,38,-47,-85,-58,-123,-125
-74,-46,19,57,-47,-10,38,-47,-79,-58,-117,-119
-62,-46,19,51,-35,-16,32,-47,-73,-64,-93,-113
-62,-46,19,51,-35,-16,32,-47,-73,-64,-87,-107
-62,-40,19,51,-41,-10,38,-41,-73,-58,-81,-113
-62,-40,19,51,-41,-10,32,-41,-67,-58,-93,-113
-50,-34,19,39,-29,-10,38,-41,-67,-58,-105,-113
-50,-28,19,39,-35,-4,38,-41,-67,-58,-105,-113
-50,-34,19,39,-29,-10,38,-29,-67,-58,-105,-101
-50,-34,19,39,-29,-10,38,-29,-67,-52,-105,-101
-50,-40,14,45,-29,-16,44,-23,-61,-52,-105,-95
-50,-40,14,45,-29,-16,44,-23,-55,-46,-99,-89
-38,-40,2,39,-17,-22,32,-23,-55,-46,-87,-89
-38,-34,8,33,-17,-16,32,-17,-55,-40,-87,-89
-38,-34,8,33,-17,-16,26,-11,-49,-34,-81,-89
-38,-28,14,33,-23,-10,26,-5,-49,-28,-81,-89
-44,-22,19,33,-29,2,26,-5,-49,-28,-93,-89
-38,-22,19,27,-23,-4,26,-5,-37,-22,-99,-83
-32,-10,19,21,-23,8,26,1,-43,-22,-93,-83
-32,-4,19,15,-29,14,26,6,-49,-22,-93,-83
-26,-4,19,15,-23,8,20,6,-43,-22,-75,-77
-14,-10,8,9,-6,-4,20,6,-37,-16,-63,-71
-2,-16,-10,9,-6,-16,20,6,-31,-22,-51,-65
-2,-16,-10,9,-6,-16,14,6,-31,-22,-45,-59
-2,-10,-4,3,-6,-10,14,12,-31,-16,-45,-59
9,-4,-10,-3,0,-10,8,12,-19,-5,-39,-53
9,8,2,-9,-6,2,8,12,-25,-5,-33,-53
9,8,2,-9,-6,2,8,24,-25,1,-33,-47
4,20,19,-15,-6,20,8,36,-13,7,-39,-35
9,20,8,-21,-6,14,8,36,-7,7,-27,-35
9,26,14,-21,-6,20,2,36,-2,13,-27,-24
15,26,2,-21,6,14,2,36,-2,19,-21,-24
27,31,-4,-21,12,14,2,42,-2,13,-3,-24
27,31,-4,-21,12,14,2,54,-2,25,-3,-18
33,31,2,-32,18,25,2,66,10,25,2,-18
45,37,-4,-38,24,25,-3,66,16,31,2,-6
45,43,2,-44,24,25,-3,66,16,31,2,0
57,49,-4,-50,30,25,-9,72,22,31,2,0
51,55,8,-50,24,25,-15,66,22,31,2,-6
51,61,14,-56,18,31,-21,78,28,49,-3,0
69,67,2,-68,36,31,-27,90,40,55,8,6
87,79,-4,-80,48,31,-33,90,40,61,32,24
99,85,-10,-92,54,31,-45,96,46,61,50,42
99,91,-4,-92,54,37,-51,108,58,67,56,54
111,91,-16,-98,66,31,-51,108,58,67,56,66
117,103,-10,-110,66,43,-57,108,64,73,74,72
135,103,-28,-116,84,31,-57,120,64,79,86,78
147,115,-28,-128,90,37,-63,120,64,85,86,96
147,127,-16,-134,84,49,-75,126,64,91,92,102
153,133,-16,-140,84,55,-87,126,70,103,104,102
159,145,-10,-152,84,61,-99,132,70,109,104,108
183,157,-22,-170,102,61,-105,132,70,109,116,120
195,169,-22,-182,108,67,-111,126,76,109,140,138
195,175,-16,-182,108,73,-117,126,82,121,140,144
201,193,-4,-194,102,91,-123,126,88,127,146,168
219,199,-16,-206,120,85,-129,132,94,133,158,180
219,199,-16,-206,120,85,-129,138,94,145,158,180
225,205,-16,-212,120,91,-135,138,88,145,164,186
225,205,-16,-212,120,91,-141,144,88,151,164,192
231,211,-16,-218,126,91,-147,144,88,157,164,198
243,217,-22,-230,132,91,-153,132,82,157,176,204
249,217,-28,-230,138,91,-159,132,82,157,188,216
255,235,-22,-248,144,103,-165,126,76,163,200,216
255,241,-16,-248,138,109,-171,126,76,163,206,222
261,241,-22,-254,144,103,-177,126,76,163,200,228
267,253,-16,-260,144,115,-183,126,70,169,206,234
267,253,-16,-260,144,115,-189,126,64,169,206,234
267,253,-16,-260,144,115,-189,114,58,169,206,234
267,253,-16,-260,144,115,-195,108,52,163,206,240
261,253,-10,-260,138,115,-195,108,52,163,206,240
261,253,-10,-260,138,115,-195,108,46,157,206,240
261,253,-10,-260,138,115,-195,96,46,157,206,234
261,253,-10,-260,138,115,-201,90,46,157,212,240
255,253,-4,-254,132,121,-201,84,34,151,194,234
249,241,-10,-248,132,109,-195,84,34,151,194,234
243,235,-4,-236,126,109,-189,72,28,145,188,228
231,235,8,-230,114,115,-177,78,22,145,176,216
219,223,8,-218,108,109,-159,72,16,139,164,204
195,223,19,-206,84,121,-147,60,4,133,146,180
183,211,19,-194,78,115,-135,48,-2,121,140,162
171,193,19,-182,72,103,-117,36,-2,109,122,150
147,181,25,-164,54,103,-105,24,-2,97,110,132
141,163,19,-152,60,91,-87,12,-7,91,98,120
123,151,19,-134,48,85,-69,6,-19,79,74,108
93,127,25,-110,30,79,-57,6,-25,67,74,84
81,121,31,-98,18,79,-45,6,-25,55,56,66
57,109,43,-80,0,79,-27,1,-37,43,38,48
51,97,37,-74,0,67,-21,-5,-43,37,26,30
33,97,55,-62,-6,79,-15,-5,-43,31,2,18
15,85,61,-50,-17,73,-3,-17,-55,19,2,6
9,67,49,-38,-11,61,-3,-29,-55,19,-9,0
9,61,55,-26,-23,55,2,-35,-61,7,-21,0
-2,49,55,-21,-29,49,8,-41,-67,1,-27,-12
-14,43,61,-21,-35,49,14,-53,-73,-5,-33,-24
-26,31,61,-9,-41,43,26,-47,-79,-5,-33,-29
-26,31,55,-9,-41,37,32,-53,-85,-16,-39,-41
-32,31,61,-3,-47,43,32,-53,-85,-16,-57,-47
-44,31,67,3,-59,43,38,-59,-85,-22,-81,-47
-56,20,67,15,-65,37,44,-59,-85,-28,-93,-65
-62,14,67,21,-65,31,44,-59,-85,-34,-111,-77
-68,2,61,33,-65,25,50,-77,-85,-34,-105,-77
-74,-10,55,39,-65,25,50,-83,-91,-34,-99,-89
-80,-16,55,45,-71,25,62,-89,-85,-34,-93,-95
-86,-16,61,51,-77,25,62,-89,-85,-40,-105,-101
-86,-28,49,57,-71,14,62,-83,-79,-40,-99,-101
-86,-28,49,57,-71,14,68,-83,-85,-46,-99,-101
-86,-34,43,57,-65,8,68,-77,-79,-46,-99,-101
-92,-34,49,63,-71,14,68,-83,-79,-46,-99,-101
-98,-34,55,63,-77,14,68,-77,-79,-52,-111,-113
-98,-34,55,63,-77,14,68,-77,-79,-52,-117,-113
-104,-40,55,69,-83,14,68,-71,-79,-52,-129,-113
-104,-40,55,69,-83,14,68,-83,-79,-52,-135,-125
-104,-40,55,69,-83,14,68,-71,-85,-52,-129,-125
-110,-40,61,75,-89,14,68,-71,-85,-46,-129,-119
-116,-52,55,81,-89,8,68,-71,-91,-46,-123,-119
-116,-58,49,87,-83,2,68,-71,-91,-46,-117,-119
-110,-52,49,81,-83,2,68,-77,-91,-52,-117,-119
-110,-52,49,81,-83,2,68,-77,-91,-52,-117,-119
-104,-46,49,75,-77,8,68,-83,-91,-52,-123,-119
-104,-52,43,75,-77,2,68,-83,-91,-52,-123,-119
-104,-52,43,75,-77,2,68,-83,-91,-52,-123,-119
-104,-52,43,75,-77,2,68,-83,-91,-52,-123,-119
-104,-52,43,75,-77,2,68,-77,-91,-46,-129,-119
-104,-52,43,75,-77,2,62,-77,-91,-46,-129,-125
-104,-52,43,75,-77,2,62,-71,-85,-46,-129,-119
-104,-52,43,75,-77,2,68,-71,-85,-46,-123,-119
-104,-52,43,75,-77,2,68,-71,-79,-46,-117,-113
-104,-52,43,75,-77,2,68,-71,-79,-46,-111,-113
-104,-52,43,75,-77,2,68,-71,-79,-40,-123,-113
-116,-52,55,81,-89,8,68,-71,-79,-40,-123,-107
-104,-52,43,75,-77,2,68,-65,-79,-40,-123,-107
-104,-52,43,75,-77,2,68,-65,-79,-46,-111,-107
-110,-52,49,81,-83,2,68,-65,-79,-52,-123,-113
-110,-52,49,81,-83,2,68,-65,-79,-52,-123,-125
-110,-52,49,81,-83,2,68,-65,-79,-58,-123,-137
-110,-52,49,81,-83,2,68,-59,-79,-58,-123,-143
-116,-52,55,81,-89,8,68,-59,-79,-58,-129,-143
-122,-52,61,87,-95,8,68,-59,-79,-58,-129,-143
-128,-52,67,87,-101,14,68,-59,-73,-52,-135,-137
-134,-52,73,93,-107,14,68,-53,-73,-52,-129,-137
-128,-46,73,87,-101,20,74,-47,-67,-52,-123,-131
-110,-46,55,75,-83,8,74,-41,-61,-58,-117,-131
-116,-40,67,75,-95,20,80,-35,-55,-58,-111,-125
-110,-40,61,75,-89,14,86,-35,-55,-58,-111,-125
-110,-46,55,75,-83,8,80,-29,-55,-58,-117,-119
-110,-40,61,75,-89,14,80,-29,-55,-58,-105,-125
-116,-46,61,81,-89,14,74,-29,-61,-58,-111,-119
-116,-46,61,81,-89,14,74,-29,-61,-52,-111,-119
-122,-46,67,81,-95,14,80,-29,-55,-52,-111,-119
-128,-46,73,87,-101,20,80,-23,-55,-52,-117,-119
-122,-46,67,81,-95,14,92,-23,-43,-52,-111,-119
-110,-46,55,75,-83,8,92,-23,-43,-52,-111,-113
-116,-52,55,81,-89,8,86,-17,-49,-46,-111,-119
-116,-52,55,81,-89,8,86,-17,-49,-46,-111,-119
-122,-58,55,87,-89,2,80,-17,-55,-52,-111,-125
-128,-58,61,93,-95,8,80,-11,-55,-52,-111,-131
-128,-52,67,87,-101,14,80,-11,-49,-46,-117,-125
-128,-52,67,87,-101,14,80,-11,-49,-46,-123,-125
-128,-46,73,87,-101,20,80,-11,-43,-40,-129,-119
-128,-46,73,87,-101,20,80,-11,-43,-40,-129,-113
-116,-46,61,81,-89,14,86,-11,-43,-46,-129,-119
-116,-46,61,81,-89,14,86,-11,-43,-46,-123,-119
-110,-46,55,75,-83,8,80,-11,-43,-46,-111,-131
-110,-46,55,75,-83,8,80,-11,-43,-46,-105,-131
-116,-46,61,81,-89,14,80,-5,-49,-46,-105,-125
-116,-46,61,81,-89,14,80,-5,-49,-46,-105,-125
-122,-40,73,81,-101,20,80,1,-55,-46,-99,-119
-122,-40,73,81,-101,20,80,1,-55,-46,-99,-119
-116,-46,61,81,-89,14,80,1,-49,-46,-111,-125
-116,-46,61,81,-89,14,80,-5,-49,-46,-111,-119
-116,-52,55,81,-89,8,80,-5,-43,-46,-117,-125
-116,-52,55,81,-89,8,80,-5,-49,-52,-111,-125
-110,-52,49,81,-83,2,80,-5,-49,-52,-105,-125
-110,-52,49,81,-83,2,80,-5,-49,-52,-105,-125
-104,-52,43,75,-77,2,80,-17,-49,-46,-99,-125
-104,-52,43,75,-77,2,80,-17,-49,-46,-99,-125
-110,-46,55,75,-83,8,80,-17,-49,-46,-105,-119
-110,-46,55,75,-83,8,74,-17,-49,-46,-105,-119
-122,-40,73,81,-101,20,74,-17,-49,-40,-117,-113
-122,-46,67,81,-95,14,74,-17,-49,-40,-117,-119
-110,-52,49,81,-83,2,74,-17,-49,-46,-111,-113
-110,-46,55,75,-83,8,74,-23,-49,-46,-99,-119
-104,-52,43,75,-77,2,74,-29,-49,-52,-93,-113
-104,-52,43,75,-77,2,68,-29,-55,-52,-93,-107
-110,-58,43,81,-77,-4,68,-29,-49,-46,-99,-107
-110,-58,43,81,-77,-4,68,-29,-49,-46,-93,-101
-122,-58,55,87,-89,2,68,-29,-43,-40,-87,-107
-122,-58,55,87,-89,2,62,-35,-49,-40,-99,-113
-122,-58,55,87,-89,2,68,-35,-49,-40,-105,-107
-122,-58,55,87,-89,2,68,-29,-49,-40,-105,-107
-110,-58,43,81,-77,-4,74,-23,-49,-46,-111,-101
-110,-58,43,81,-77,-4,74,-17,-61,-46,-111,-101
-116,-64,43,87,-83,-4,74,-17,-55,-46,-105,-101
-116,-64,43,87,-83,-4,74,-17,-49,-46,-105,-101
-104,-64,31,81,-71,-10,74,-17,-43,-46,-99,-101
-104,-64,31,81,-71,-10,74,-17,-43,-46,-87,-107
-110,-70,31,87,-71,-16,68,-23,-49,-52,-93,-113
-122,-70,43,93,-83,-10,62,-23,-55,-52,-93,-113
-128,-76,43,99,-89,-10,56,-29,-61,-58,-99,-119
-128,-76,43,99,-89,-10,56,-29,-67,-58,-99,-119
-122,-70,43,93,-83,-10,56,-23,-61,-52,-93,-113
-116,-64,43,87,-83,-4,56,-29,-61,-52,-93,-107
-110,-58,43,81,-77,-4,56,-23,-55,-46,-87,-101
-98,-52,37,75,-71,-4,56,-23,-55,-46,-87,-95
-104,-58,37,81,-71,-4,62,-23,-55,-46,-87,-101
-104,-58,37,81,-71,-4,62,-23,-55,-46,-81,-95
-110,-64,37,87,-77,-10,68,-23,-55,-52,-81,-101
-116,-64,43,87,-83,-4,68,-23,-55,-52,-87,-107
-116,-64,43,87,-83,-4,62,-23,-55,-58,-87,-107
-116,-64,43,87,-83,-4,62,-23,-55,-58,-87,-107
-116,-64,43,87,-83,-4,56,-23,-61,-64,-87,-107
-110,-64,37,87,-77,-10,56,-23,-61,-64,-81,-107
-122,-52,61,87,-95,8,56,-47,-61,-64,-81,-107
-128,-58,61,93,-95,8,56,-35,-55,-58,-87,-113
-122,-58,55,87,-89,2,56,-35,-61,-58,-87,-107
-122,-58,55,87,-89,2,56,-35,-61,-58,-87,-107
-116,-58,49,87,-83,2,56,-35,-67,-58,-87,-101
-116,-58,49,87,-83,2,56,-35,-67,-58,-87,-101
-116,-64,43,87,-83,-4,56,-29,-67,-58,-93,-101
-116,-64,43,87,-83,-4,56,-29,-67,-58,-93,-101
-116,-76,31,93,-77,-16,56,-29,-61,-58,-93,-107
-116,-76,31,93,-77,-16,56,-29,-61,-58,-93,-107
-116,-70,37,93,-77,-10,56,-35,-61,-58,-87,-107
-116,-64,43,87,-83,-4,56,-35,-61,-58,-87,-107
-116,-58,49,87,-83,2,62,-35,-55,-58,-81,-107
-116,-58,49,87,-83,2,62,-35,-55,-58,-81,-107
-122,-64,49,93,-89,-4,56,-35,-55,-58,-81,-107
-122,-64,49,93,-89,-4,56,-35,-55,-58,-87,-107
-128,-76,43,99,-89,-10,50,-35,-61,-52,-93,-107
-128,-76,43,99,-89,-10,50,-35,-61,-52,-99,-101
-122,-76,37,99,-83,-16,44,-35,-61,-52,-93,-95
-122,-76,37,99,-83,-16,44,-35,-61,-52,-93,-101
-122,-76,37,99,-83,-16,38,-35,-67,-52,-87,-95
-122,-76,37,99,-83,-16,38,-35,-67,-52,-81,-95
-122,-82,31,99,-77,-22,44,-35,-61,-58,-75,-101
-122,-82,31,99,-77,-22,44,-35,-67,-58,-75,-101
-122,-82,31,99,-77,-22,44,-35,-61,-70,-69,-107
-122,-76,37,99,-83,-16,44,-41,-67,-70,-69,-107
-116,-70,37,93,-77,-10,44,-41,-67,-70,-75,-107
-116,-70,37,93,-77,-10,44,-41,-61,-70,-81,-107
-110,-64,37,87,-77,-10,44,-41,-61,-64,-87,-113
-104,-64,31,81,-71,-10,44,-41,-61,-64,-93,-113
-110,-64,37,87,-77,-10,38,-41,-55,-64,-87,-107
-116,-64,43,87,-83,-4,44,-41,-55,-64,-81,-107
-122,-64,49,93,-89,-4,38,-35,-49,-64,-75,-101
-116,-70,37,93,-77,-10,32,-35,-49,-64,-69,-95
-116,-70,37,93,-77,-10,32,-35,-55,-64,-69,-101
-116,-64,43,87,-83,-4,32,-35,-55,-64,-75,-101
-110,-64,37,87,-77,-10,32,-29,-61,-64,-81,-107
-110,-64,37,87,-77,-10,26,-29,-61,-64,-87,-107
-104,-70,25,87,-65,-16,26,-29,-49,-64,-81,-107
-104,-70,25,87,-65,-16,26,-23,-49,-64,-75,-101
-98,-64,25,81,-65,-16,26,-23,-31,-58,-69,-101
-92,-52,31,69,-65,-4,38,-17,-31,-52,-57,-95
-98,-52,37,75,-71,-4,32,-17,-37,-52,-63,-89
-98,-52,37,75,-71,-4,32,-17,-37,-52,-63,-89
-104,-58,37,81,-71,-4,20,-11,-43,-52,-63,-83
-104,-52,43,75,-77,2,20,-11,-43,-52,-63,-77
-86,-40,37,63,-65,2,20,-17,-43,-46,-69,-83
-80,-40,31,57,-59,2,14,-17,-43,-46,-69,-83
-62,-34,19,45,-41,-4,8,-23,-43,-46,-75,-89
-44,-34,14,39,-23,-10,8,-29,-43,-46,-75,-89
-44,-34,14,39,-23,-10,14,-23,-37,-46,-57,-77
-50,-34,19,39,-29,-10,14,-17,-37,-46,-57,-77
-56,-28,19,39,-41,2,8,-11,-31,-46,-51,-71
-50,-22,19,33,-35,2,2,1,-13,-34,-45,-65
-38,-4,25,21,-35,14,2,6,-7,-28,-39,-53
-32,14,37,9,-35,25,2,6,-7,-22,-33,-41
-20,31,43,-9,-35,31,14,6,-2,-10,-33,-35
-20,37,61,-15,-41,49,14,6,-2,-5,-33,-35
-26,31,61,-9,-41,43,14,6,-2,-5,-27,-41
-32,31,55,-3,-47,37,14,6,-2,-5,-27,-35
-38,20,49,9,-47,25,14,6,-2,-5,-21,-41
-38,8,37,15,-41,25,14,6,-13,-16,-21,-47
-50,2,43,21,-47,25,14,6,-13,-22,-33,-53
-50,-16,25,33,-41,8,8,6,-13,-22,-33,-53
-50,-22,19,33,-35,2,2,1,-13,-28,-33,-59
-50,-22,19,33,-35,2,2,1,-19,-40,-33,-65
-50,-28,19,39,-35,-4,2,-5,-19,-40,-45,-71
-56,-34,19,45,-35,-4,2,-11,-19,-40,-51,-77
-56,-28,19,39,-41,2,2,-17,-31,-46,-57,-71
-56,-28,19,39,-41,2,2,-23,-31,-46,-57,-71
-62,-34,19,45,-41,-4,2,-17,-31,-46,-63,-71
-80,-46,25,63,-53,-4,2,-17,-37,-52,-75,-71
-86,-52,25,69,-59,-10,2,-11,-37,-46,-81,-71
-92,-58,25,75,-59,-10,2,-17,-37,-46,-93,-83
-86,-64,19,75,-53,-22,2,-23,-43,-52,-81,-83
-98,-70,19,81,-59,-22,2,-23,-43,-52,-75,-83
-98,-76,19,87,-59,-28,8,-23,-43,-52,-63,-83
-110,-76,25,93,-71,-22,8,-23,-43,-52,-57,-83
-116,-76,31,93,-77,-16,14,-23,-43,-52,-63,-89
-122,-76,37,99,-83,-16,20,-23,-43,-52,-63,-89
-128,-76,43,99,-89,-10,26,-23,-43,-58,-63,-95
-134,-76,49,105,-95,-10,26,-23,-43,-58,-63,-95
-134,-82,43,105,-89,-16,20,-23,-49,-64,-63,-101
-134,-88,37,111,-89,-22,26,-29,-49,-64,-69,-101
-128,-94,25,111,-77,-28,20,-29,-55,-70,-69,-101
-128,-94,25,111,-77,-28,20,-29,-55,-70,-69,-101
-140,-94,37,117,-89,-22,20,-29,-55,-64,-69,-95
-140,-94,37,117,-89,-22,20,-23,-55,-64,-75,-95
-146,-100,37,123,-95,-28,20,-23,-55,-58,-75,-95
-146,-100,37,123,-95,-28,14,-23,-55,-58,-75,-95
-146,-88,49,117,-101,-16,14,-17,-43,-58,-75,-89
-140,-76,55,105,-101,-4,14,-17,-43,-58,-87,-83
-140,-88,43,111,-95,-16,14,-11,-31,-58,-63,-83
-128,-88,31,105,-83,-22,20,-11,-37,-58,-39,-83
-140,-88,43,111,-95,-16,32,-5,-37,-58,-51,-95
-152,-76,67,111,-113,2,44,6,-19,-52,-63,-101
-170,-88,73,129,-125,-4,80,60,-2,-34,-93,-101
-170,-100,61,135,-119,-16,122,144,46,-22,-99,-107
-146,-136,14,141,-77,-64,176,246,112,-16,-63,-119
-134,-124,14,129,-71,-58,212,372,172,-5,-33,-131
-128,-94,25,111,-77,-28,260,474,244,37,-33,-131
-140,-58,73,99,-107,14,314,546,328,97,-39,-137
-122,2,115,57,-119,49,344,642,424,163,2,-101
-62,97,163,-21,-113,127,332,762,538,259,110,-29
21,205,175,-110,-71,193,308,894,682,391,224,66
123,295,169,-212,-17,235,278,1008,808,517,362,204
207,427,217,-314,-6,319,230,1086,958,667,506,354
339,637,289,-488,18,469,176,1092,1108,853,710,558
507,835,319,-674,90,577,74,1050,1252,1027,956,786
633,979,337,-800,144,661,-87,966,1324,1171,1184,984
741,1105,355,-926,192,733,-291,804,1300,1267,1352,1176
801,1249,439,-1022,180,841,-441,540,1210,1327,1448,1326
801,1321,511,-1058,144,919,-531,276,1048,1297,1478,1398
723,1285,559,-998,78,925,-555,102,880,1183,1406,1356
543,1099,547,-818,-6,823,-453,-59,670,967,1148,1152
363,889,517,-626,-71,709,-375,-293,358,673,818,888
225,739,505,-482,-137,625,-411,-575,-2,367,512,666
105,601,493,-350,-191,547,-483,-803,-295,157,278,468
51,469,409,-260,-173,439,-531,-857,-421,1,158,330
63,319,253,-194,-89,283,-561,-785,-457,-70,110,216
51,211,151,-128,-41,181,-549,-695,-433,-88,38,132
9,97,79,-50,-29,91,-495,-599,-391,-106,-33,30
-2,2,8,-3,-6,2,-441,-503,-343,-112,-105,-59
-14,-76,-58,45,12,-70,-369,-437,-313,-124,-117,-101
-32,-106,-70,69,12,-88,-303,-395,-307,-124,-129,-131
-50,-112,-58,81,-6,-88,-249,-359,-301,-130,-141,-131
-68,-112,-40,87,-11,-76,-201,-299,-271,-130,-141,-119
-92,-100,-4,93,-41,-52,-141,-215,-241,-118,-117,-89
-86,-88,2,87,-41,-46,-93,-143,-199,-118,-75,-77
-98,-76,19,87,-59,-28,-57,-101,-157,-94,-57,-77
-122,-64,49,93,-89,-4,-21,-77,-121,-76,-57,-65
-146,-76,61,111,-107,-4,2,-53,-97,-70,-69,-65
-140,-76,55,105,-101,-4,14,-29,-73,-58,-69,-77
-128,-76,43,99,-89,-10,2,-23,-61,-52,-69,-89
-110,-76,25,93,-71,-22,2,-23,-61,-40,-57,-77
-104,-70,25,87,-65,-16,2,-23,-61,-40,-45,-65
-104,-70,25,87,-65,-16,2,-11,-61,-52,-81,-59
-98,-76,19,87,-59,-28,-3,-17,-61,-52,-75,-65
-104,-82,19,93,-59,-28,2,-17,-67,-64,-81,-71
-110,-88,19,99,-65,-34,2,-11,-61,-70,-75,-83
-116,-88,19,99,-71,-28,14,-11,-61,-70,-75,-95
-128,-100,19,111,-77,-34,20,1,-61,-70,-75,-95
-140,-100,31,117,-89,-28,20,6,-55,-70,-75,-95
-128,-94,25,111,-77,-28,14,6,-43,-70,-75,-95
-104,-94,14,99,-53,-40,14,1,-37,-70,-63,-95
-98,-94,8,93,-47,-46,2,1,-37,-70,-57,-95
-104,-94,14,99,-53,-40,2,1,-37,-70,-69,-95
-98,-94,8,93,-47,-46,2,1,-37,-76,-81,-95
-98,-88,14,93,-53,-40,2,1,-37,-76,-81,-95
-92,-88,8,87,-47,-40,8,6,-37,-70,-75,-95
-98,-88,14,93,-53,-40,14,6,-37,-70,-75,-95
-92,-88,8,87,-47,-40,14,6,-37,-58,-69,-95
-92,-88,8,87,-47,-40,14,6,-37,-52,-69,-95
-92,-82,14,87,-47,-34,14,6,-37,-58,-69,-95
-80,-82,2,81,-35,-40,14,6,-37,-58,-57,-89
-74,-76,2,75,-35,-40,14,6,-37,-64,-63,-89
-74,-76,2,75,-35,-40,14,6,-37,-64,-69,-89
-74,-76,2,75,-35,-40,8,6,-31,-64,-69,-89
-74,-70,8,69,-35,-34,8,6,-31,-58,-69,-89
-74,-76,2,75,-35,-40,2,12,-25,-58,-69,-83
-80,-82,2,81,-35,-40,2,12,-25,-58,-69,-83
-86,-82,8,81,-41,-40,8,18,-19,-52,-75,-89
-92,-82,14,87,-47,-34,8,18,-19,-52,-75,-89
-98,-82,19,87,-53,-34,14,24,-13,-46,-81,-95
-98,-82,19,87,-53,-34,14,24,-7,-46,-75,-89
-80,-88,-4,81,-35,-46,14,18,-13,-52,-69,-89
-80,-88,-4,81,-35,-46,14,18,-7,-52,-69,-89
-68,-94,-22,81,-17,-58,8,12,-13,-58,-69,-89
-68,-94,-22,81,-17,-58,8,12,-13,-58,-57,-83
-68,-88,-16,75,-23,-52,8,24,-7,-58,-69,-83
-68,-76,-4,69,-29,-40,8,24,-2,-52,-69,-83
-62,-70,-4,63,-23,-40,8,36,-2,-52,-69,-83
-56,-58,2,57,-23,-28,8,36,-2,-52,-63,-83
-56,-58,2,57,-23,-28,8,36,-2,-52,-57,-83
-56,-58,2,57,-23,-28,8,36,-2,-52,-51,-77
-50,-58,-4,51,-17,-34,8,36,-2,-52,-33,-77
-50,-58,-4,51,-17,-34,8,36,-2,-52,-27,-71
-50,-58,-4,51,-17,-34,8,42,-2,-46,-21,-71
-50,-58,-4,51,-17,-34,2,42,4,-46,-33,-71
-38,-58,-16,45,-6,-40,2,42,4,-46,-45,-65
-38,-52,-10,45,-11,-34,2,42,4,-46,-45,-65
-44,-52,-4,45,-17,-28,2,48,10,-46,-39,-59
-44,-52,-4,45,-17,-28,2,48,10,-40,-39,-59
-50,-52,2,51,-23,-28,2,48,22,-40,-33,-59
-50,-52,2,51,-23,-28,2,48,28,-34,-27,-53
-32,-52,-16,39,-6,-34,2,48,22,-40,-27,-59
-32,-46,-10,39,-6,-28,2,54,22,-34,-27,-59
-26,-46,-16,33,-6,-34,2,60,22,-34,-33,-65
-26,-40,-10,33,-6,-28,2,66,22,-28,-33,-65
-26,-46,-16,33,-6,-34,2,66,28,-22,-33,-59
-20,-46,-22,33,-6,-34,2,66,40,-16,-33,-53
-8,-46,-34,27,6,-40,2,72,40,-10,-15,-47
-8,-40,-28,21,0,-34,2,78,34,-10,-9,-47
-8,-34,-22,21,0,-28,-3,72,40,-5,2,-41
4,-34,-34,15,12,-34,-3,72,46,-5,2,-29
9,-34,-40,9,18,-40,-3,66,52,-5,2,-24
9,-28,-34,9,12,-34,-9,72,52,-5,2,-24
9,-22,-34,3,18,-28,-9,90,52,-5,2,-24
15,-16,-40,-9,24,-28,-15,90,58,-5,2,-18
21,-4,-34,-15,24,-16,-15,96,52,-5,2,-18
21,-4,-34,-15,24,-16,-15,108,46,1,2,-12
21,8,-22,-21,18,-4,-21,120,58,7,2,-12
33,8,-34,-21,30,-10,-21,120,64,7,8,-12
39,14,-34,-21,36,-10,-33,120,70,13,8,-12
51,14,-46,-26,48,-16,-33,120,76,19,14,-12
57,14,-52,-26,54,-16,-39,120,76,19,32,6
57,14,-52,-26,54,-16,-45,132,82,31,32,12
57,20,-46,-32,48,-10,-45,138,94,37,38,18
69,26,-52,-38,60,-10,-51,138,100,43,44,30
81,31,-52,-50,66,-4,-51,144,100,43,50,42
99,31,-64,-62,84,-10,-57,150,106,43,62,48
105,43,-58,-74,84,2,-63,150,106,43,68,48
111,49,-58,-80,84,2,-69,162,112,61,68,60
117,55,-58,-86,90,8,-69,168,124,67,80,54
135,67,-64,-98,102,8,-75,168,124,73,98,66
135,73,-58,-104,96,14,-81,168,130,73,104,72
135,79,-52,-104,96,20,-87,180,142,79,104,78
147,85,-58,-116,102,20,-93,180,142,79,110,102
153,97,-52,-122,102,25,-99,180,148,85,128,108
171,103,-64,-134,120,25,-105,192,148,91,146,126
183,115,-64,-146,126,25,-111,192,148,97,146,144
183,121,-58,-152,120,25,-117,192,148,103,158,150
189,127,-58,-158,126,31,-129,192,154,115,170,150
195,133,-58,-164,126,31,-135,192,154,121,176,156
219,145,-70,-182,144,31,-141,192,154,121,188,168
231,157,-70,-194,150,37,-147,198,160,127,200,180
231,163,-64,-194,150,43,-153,198,166,139,194,186
237,181,-52,-206,144,61,-159,210,172,151,188,204
249,187,-64,-218,162,55,-165,216,178,157,194,216
255,193,-64,-224,162,61,-177,210,172,157,206,216
261,205,-58,-236,162,67,-189,204,166,157,218,216
267,211,-58,-242,168,73,-207,198,160,151,230,222
273,223,-52,-248,168,79,-219,192,160,157,236,228
273,217,-58,-248,168,73,-219,180,160,157,242,234
279,217,-64,-248,174,73,-225,180,160,157,242,246
279,223,-58,-254,174,79,-225,174,160,163,248,252
279,229,-52,-254,168,85,-231,174,160,163,248,258
297,229,-70,-260,186,73,-237,174,154,163,248,270
303,241,-64,-266,186,85,-237,174,148,169,254,276
315,241,-76,-272,198,79,-243,174,136,169,260,282
315,241,-76,-272,198,79,-243,162,130,169,260,282
315,241,-76,-272,198,79,-249,156,118,169,266,282
309,241,-70,-272,192,79,-249,156,118,169,266,282
309,241,-70,-272,192,79,-249,156,106,169,272,276
309,241,-70,-272,192,79,-249,144,106,169,272,270
303,241,-64,-266,186,85,-249,138,106,163,266,276
297,241,-58,-266,180,85,-249,138,100,157,242,270
285,229,-58,-260,174,79,-237,138,100,151,236,270
273,223,-52,-248,168,79,-237,132,100,145,224,264
267,223,-46,-248,162,85,-225,132,88,139,218,252
255,211,-46,-236,156,79,-207,126,82,133,212,240
243,211,-28,-224,138,85,-195,108,64,121,200,222
231,199,-28,-212,132,79,-183,96,58,109,200,210
213,181,-28,-194,120,73,-171,90,52,103,176,192
189,163,-22,-176,108,67,-159,84,52,91,164,174
177,145,-28,-158,102,55,-147,78,46,91,146,156
159,127,-28,-140,96,43,-129,72,40,79,122,144
129,109,-16,-116,72,43,-117,66,40,67,116,126
117,109,-4,-110,60,49,-105,60,40,55,98,108
93,103,14,-98,42,55,-87,48,34,43,74,96
87,97,14,-92,36,49,-81,42,28,37,62,78
63,85,19,-74,18,49,-69,42,16,31,44,60
45,67,19,-56,12,43,-57,30,4,19,32,42
33,37,8,-32,12,25,-51,18,-2,19,26,30
21,31,8,-21,6,25,-45,12,-2,7,14,24
9,26,8,-21,0,20,-27,6,-2,7,2,18
9,20,14,-15,-6,14,-21,6,-2,1,2,6
-2,8,14,-3,-6,8,-9,6,-2,-5,-3,-6
-2,2,8,-3,-6,2,-3,6,-2,-5,-15,-18
-8,8,19,-3,-11,14,-3,6,-7,-5,-21,-24
-20,2,19,9,-17,14,2,1,-7,-10,-39,-24
-32,-4,19,15,-29,14,2,1,-13,-16,-39,-29
-38,-10,19,21,-29,8,2,1,-13,-22,-51,-41
-38,-22,19,27,-23,-4,2,-11,-19,-28,-45,-41
-44,-34,14,39,-23,-10,2,-17,-25,-28,-45,-53
-44,-40,8,39,-23,-16,2,-17,-25,-34,-39,-59
-50,-40,14,45,-29,-16,2,-17,-25,-40,-57,-65
-50,-52,2,51,-23,-28,2,-23,-19,-40,-63,-65
-50,-52,2,51,-23,-28,8,-23,-25,-46,-63,-65
-50,-58,-4,51,-17,-34,8,-29,-19,-46,-75,-65
-56,-58,2,57,-23,-28,8,-35,-19,-46,-75,-65
-62,-58,8,57,-29,-28,8,-35,-19,-46,-81,-77
-68,-58,14,63,-35,-22,8,-35,-19,-46,-81,-77
-74,-64,14,69,-41,-28,8,-35,-19,-40,-87,-77
-80,-64,19,69,-47,-22,8,-47,-19,-40,-87,-89
-80,-64,19,69,-47,-22,8,-29,-19,-40,-87,-89
-86,-64,19,75,-53,-22,8,-29,-19,-34,-93,-83
-92,-76,19,81,-53,-28,8,-23,-19,-34,-93,-83
-92,-82,14,87,-47,-34,8,-23,-19,-34,-93,-83
-86,-82,8,81,-41,-40,2,-29,-19,-46,-93,-83
-86,-82,8,81,-41,-40,2,-29,-19,-46,-93,-83
-80,-82,2,81,-35,-40,2,-35,-19,-52,-99,-83
-80,-88,-4,81,-35,-46,2,-35,-19,-52,-99,-83
-80,-82,2,81,-35,-40,2,-35,-25,-52,-87,-83
-80,-82,2,81,-35,-40,2,-35,-25,-52,-87,-83
-80,-76,8,75,-41,-34,2,-29,-31,-46,-81,-83
-80,-76,8,75,-41,-34,2,-29,-31,-46,-81,-89
-80,-76,8,75,-41,-34,2,-29,-25,-46,-87,-89
-80,-76,8,75,-41,-34,2,-29,-25,-46,-87,-89
-80,-76,8,75,-41,-34,2,-35,-19,-46,-87,-89
-80,-76,8,75,-41,-34,2,-35,-19,-46,-87,-89
-80,-82,2,81,-35,-40,2,-29,-25,-46,-99,-95
-92,-82,14,87,-47,-34,2,-29,-25,-46,-99,-89
-80,-88,-4,81,-35,-46,2,-17,-31,-52,-99,-95
-80,-88,-4,81,-35,-46,2,-17,-31,-58,-87,-95
-86,-88,2,87,-41,-46,2,-17,-25,-52,-93,-89
-86,-88,2,87,-41,-46,2,-17,-25,-52,-93,-95
-86,-88,2,87,-41,-46,2,-17,-19,-46,-87,-95
-86,-88,2,87,-41,-46,2,-11,-19,-46,-87,-95
-86,-88,2,87,-41,-46,2,-11,-19,-46,-87,-101
-86,-88,2,87,-41,-46,2,-11,-19,-46,-87,-101
-86,-88,2,87,-41,-46,2,-11,-13,-40,-87,-101
-86,-88,2,87,-41,-46,2,-5,-13,-40,-81,-101
-86,-82,8,81,-41,-40,2,-5,-19,-46,-81,-95
-74,-82,-4,75,-29,-46,2,1,-13,-52,-81,-95
-86,-76,14,81,-47,-34,2,1,-19,-58,-81,-89
-86,-76,14,81,-47,-34,2,1,-19,-58,-87,-89
-86,-76,14,81,-47,-34,2,1,-13,-58,-93,-89
-86,-70,19,75,-47,-28,2,1,-13,-58,-81,-95
-92,-70,19,81,-53,-22,2,-5,-13,-58,-87,-95
-92,-70,19,81,-53,-22,2,-5,-13,-52,-87,-95
-98,-70,19,81,-59,-22,2,1,-13,-52,-87,-95
-98,-70,19,81,-59,-22,2,6,-13,-52,-93,-95
-92,-70,19,81,-53,-22,8,6,-7,-52,-87,-95
-74,-70,8,69,-35,-34,8,6,-7,-52,-87,-89
-80,-76,8,75,-41,-34,8,6,-7,-46,-87,-89
-80,-76,8,75,-41,-34,8,6,-7,-46,-87,-89
-86,-82,8,81,-41,-40,8,6,-7,-52,-87,-89
-92,-82,14,87,-47,-34,8,12,-7,-52,-87,-95
-92,-76,19,81,-53,-28,8,12,-7,-52,-87,-101
-92,-76,19,81,-53,-28,8,12,-7,-52,-93,-101
-92,-70,19,81,-53,-22,8,12,-7,-52,-93,-107
-92,-70,19,81,-53,-22,8,12,-7,-52,-93,-101
-86,-70,19,75,-47,-28,8,12,-13,-52,-99,-95
-86,-70,19,75,-47,-28,8,12,-13,-52,-99,-95
-86,-70,19,75,-47,-28,2,12,-19,-46,-93,-95
-86,-70,19,75,-47,-28,2,12,-19,-46,-93,-95
-86,-76,14,81,-47,-34,2,6,-13,-46,-93,-95
-86,-76,14,81,-47,-34,2,6,-13,-46,-93,-95
-86,-76,14,81,-47,-34,2,6,-7,-46,-87,-95
-86,-76,14,81,-47,-34,2,6,-7,-46,-87,-95
-80,-76,8,75,-41,-34,2,6,-13,-40,-99,-89
-80,-76,8,75,-41,-34,2,6,-13,-40,-99,-83
-80,-76,8,75,-41,-34,2,6,-19,-34,-105,-77
-80,-76,8,75,-41,-34,2,6,-25,-40,-99,-77
-86,-76,14,81,-47,-34,2,6,-25,-46,-93,-83
-86,-76,14,81,-47,-34,2,6,-25,-46,-93,-83
-92,-76,19,81,-53,-28,2,6,-25,-46,-87,-89
-92,-76,19,81,-53,-28,2,6,-25,-46,-87,-89
-86,-76,14,81,-47,-34,2,6,-25,-52,-93,-95
-86,-76,14,81,-47,-34,2,6,-25,-52,-93,-95
-86,-76,14,81,-47,-34,2,6,-25,-52,-105,-101
-86,-82,8,81,-41,-40,2,6,-25,-52,-105,-107
-80,-82,2,81,-35,-40,2,6,-31,-52,-99,-101
-80,-76,8,75,-41,-34,2,1,-31,-52,-93,-107
-80,-76,8,75,-41,-34,2,-5,-37,-52,-87,-101
-80,-76,8,75,-41,-34,-3,-5,-43,-52,-93,-95
-74,-82,-4,75,-29,-46,-3,-5,-37,-52,-93,-95
-74,-82,-4,75,-29,-46,-3,-5,-37,-52,-87,-89
-74,-82,-4,75,-29,-46,-3,-5,-31,-52,-75,-95
-74,-82,-4,75,-29,-46,-9,-11,-37,-52,-87,-101
-80,-82,2,81,-35,-40,-3,-11,-37,-52,-93,-101
-86,-82,8,81,-41,-40,-3,-11,-37,-52,-93,-101
-80,-82,2,81,-35,-40,2,-5,-37,-58,-99,-101
-86,-82,8,81,-41,-40,2,-5,-49,-58,-99,-101
-92,-88,8,87,-47,-40,-3,-5,-43,-58,-99,-95
-92,-88,8,87,-47,-40,-3,-5,-37,-58,-105,-95
-80,-88,-4,81,-35,-46,-9,-5,-31,-58,-105,-89
-80,-88,-4,81,-35,-46,-9,-5,-31,-58,-99,-95
-80,-88,-4,81,-35,-46,-9,-5,-37,-58,-99,-101
-86,-88,2,87,-41,-46,-15,-5,-37,-58,-99,-101
-86,-88,2,87,-41,-46,-15,-5,-43,-58,-99,-107
-80,-88,-4,81,-35,-46,-15,-5,-43,-58,-99,-107
-86,-88,2,87,-41,-46,-9,-5,-43,-58,-99,-107
-86,-88,2,87,-41,-46,-9,-11,-43,-58,-99,-107
-92,-88,8,87,-47,-40,-3,-11,-43,-58,-99,-107
-86,-88,2,87,-41,-46,-3,-11,-43,-58,-99,-107
-80,-88,-4,81,-35,-46,-9,-11,-43,-58,-99,-107
-80,-88,-4,81,-35,-46,-9,-11,-43,-58,-93,-101
-74,-88,-10,81,-29,-52,-15,-11,-43,-64,-93,-101
-80,-88,-4,81,-35,-46,-15,-11,-43,-64,-99,-107
-86,-82,8,81,-41,-40,-9,-11,-43,-64,-99,-101
-86,-82,8,81,-41,-40,-9,-11,-43,-64,-99,-101
-92,-76,19,81,-53,-28,-3,-11,-49,-64,-99,-95
-86,-76,14,81,-47,-34,-3,-11,-49,-64,-93,-95
-86,-82,8,81,-41,-40,-3,-11,-49,-64,-87,-101
-98,-82,19,87,-53,-34,-3,-11,-49,-64,-93,-107
-98,-88,14,93,-53,-40,-9,-11,-49,-64,-87,-113
-92,-88,8,87,-47,-40,-9,-11,-49,-64,-87,-107
-98,-88,14,93,-53,-40,-15,-17,-49,-70,-93,-101
-98,-88,14,93,-53,-40,-15,-11,-49,-70,-99,-101
-104,-94,14,99,-53,-40,-27,-17,-49,-76,-111,-113
-104,-94,14,99,-53,-40,-27,-17,-49,-76,-117,-113
-56,-58,2,57,-23,-28,-15,-11,-43,-64,-93,-107
-68,-82,-10,75,-23,-46,-15,-11,-43,-64,-81,-107
-92,-106,-10,99,-35,-58,-27,-23,-55,-76,-93,-107
-104,-94,14,99,-53,-40,-15,-11,-55,-70,-111,-113
-98,-94,8,93,-47,-46,-21,-17,-55,-70,-105,-113
-98,-94,8,93,-47,-46,-21,-17,-55,-70,-105,-113
-92,-94,2,93,-41,-46,-27,-23,-55,-70,-99,-113
-92,-94,2,93,-41,-46,-27,-23,-55,-70,-99,-113
-92,-88,8,87,-47,-40,-21,-23,-61,-70,-111,-107
-92,-88,8,87,-47,-40,-21,-23,-61,-70,-111,-107
-92,-88,8,87,-47,-40,-15,-29,-61,-70,-117,-107
