,,,,,,,,,,,
2019-09-01 15:33:47,,,,,,,,,,,
,,,,,,,,,,,
I,II,III,aVR,aVL,aVF,V1,V2,V3,V4,V5,V6
-17,-66,-30,47,5,-39,243,7,1108,524,6536,2647
-29,-84,-30,65,5,-45,63,13,154,38,1319,267
-47,-90,-30,77,0,-51,15,13,-7,-51,473,-116
-53,-90,-30,77,0,-51,-3,13,-31,-69,341,-170
-53,-96,-30,77,0,-51,-8,19,-43,-81,305,-194
-59,-102,-30,83,0,-57,-14,19,-55,-93,287,-206
-65,-114,-30,89,-6,-63,-20,19,-67,-99,275,-212
-77,-120,-30,95,-12,-69,-20,19,-73,-105,263,-218
-101,-126,-30,107,-24,-75,-20,19,-79,-111,257,-224
-107,-126,-30,119,-30,-75,-20,19,-79,-117,251,-230
-107,-126,-30,119,-30,-75,-20,19,-79,-117,245,-236
-107,-126,-30,119,-30,-75,-20,19,-85,-123,239,-236
-107,-126,-30,119,-30,-75,-20,19,-85,-123,233,-236
-107,-126,-30,119,-30,-75,-20,19,-85,-123,233,-236
-119,-132,-24,125,-42,-75,-20,19,-85,-123,227,-236
-125,-132,-24,125,-48,-75,-20,19,-85,-123,227,-236
-125,-132,-24,125,-54,-75,-20,19,-85,-123,221,-236
-131,-138,-24,125,-54,-75,-20,19,-85,-123,221,-236
-131,-138,-24,125,-54,-75,-20,19,-85,-123,221,-236
-131,-138,-24,125,-48,-75,-20,19,-85,-123,215,-236
-125,-138,-30,125,-42,-75,-20,19,-85,-123,209,-236
-125,-138,-30,125,-42,-75,-20,25,-85,-123,203,-236
-125,-138,-30,125,-42,-75,-20,25,-85,-123,203,-236
-125,-138,-30,125,-42,-75,-20,25,-85,-123,197,-236
-125,-138,-24,125,-48,-75,-20,31,-85,-123,197,-236
-131,-132,-12,125,-60,-69,-8,49,-79,-117,197,-236
-137,-126,11,125,-72,-63,33,103,-49,-105,197,-242
-149,-126,35,125,-90,-51,75,181,4,-81,197,-248
-161,-126,47,131,-102,-39,123,277,76,-51,197,-260
-167,-120,53,131,-108,-33,177,379,148,-9,197,-272
-167,-108,59,131,-108,-21,213,481,226,38,197,-284
-167,-90,89,131,-120,2,243,559,298,104,209,-284
-167,-60,113,125,-132,26,261,607,364,176,251,-272
-155,-30,119,101,-132,50,273,673,424,260,335,-224
-101,11,119,47,-114,56,279,733,484,350,431,-134
-29,53,107,-6,-72,62,279,775,544,458,563,-8
78,95,59,-84,23,62,237,781,580,566,743,171
228,149,-24,-198,131,62,147,775,604,680,941,381
348,221,-78,-294,203,62,33,655,610,788,1145,615
426,293,-96,-372,245,80,-92,439,604,872,1337,837
486,371,-102,-426,275,116,-242,151,526,908,1493,1035
546,419,-108,-474,317,134,-386,-166,340,902,1547,1161
588,431,-120,-492,353,140,-512,-466,124,806,1547,1197
582,431,-120,-492,353,140,-572,-682,-43,668,1475,1197
510,425,-102,-468,317,146,-590,-808,-157,530,1295,1095
420,413,-36,-426,233,158,-596,-916,-253,392,1121,939
324,395,29,-372,143,182,-608,-1036,-367,218,905,753
198,323,71,-264,71,188,-614,-1126,-511,-3,629,519
54,233,125,-150,-36,188,-614,-1174,-673,-273,311,237
-71,173,191,-48,-138,188,-590,-1198,-799,-537,0,-32
-137,125,209,5,-174,188,-548,-1198,-853,-687,-192,-212
-167,77,209,47,-180,164,-506,-1180,-853,-705,-234,-278
-173,5,185,77,-180,104,-476,-1096,-853,-705,-252,-308
-173,-60,119,107,-168,32,-434,-994,-847,-705,-264,-338
-179,-102,77,137,-156,-9,-386,-874,-829,-705,-270,-362
-179,-132,35,149,-132,-45,-332,-760,-781,-681,-270,-368
-173,-144,5,149,-96,-69,-284,-646,-709,-627,-258,-368
-161,-150,-18,149,-72,-75,-248,-532,-613,-555,-216,-362
-149,-150,-24,149,-66,-81,-218,-430,-517,-477,-168,-350
-143,-150,-24,149,-66,-81,-188,-322,-415,-393,-114,-326
-137,-144,-24,143,-66,-75,-152,-238,-337,-339,-72,-302
-137,-138,-18,143,-66,-69,-122,-172,-271,-285,-36,-278
-137,-138,-18,143,-66,-69,-98,-124,-229,-243,-18,-272
-131,-138,-18,137,-66,-69,-80,-88,-199,-213,-6,-266
-125,-132,-18,125,-60,-69,-62,-58,-187,-189,6,-260
-113,-120,-18,113,-54,-63,-38,-28,-169,-171,23,-248
-107,-108,-18,101,-54,-57,-26,-16,-157,-159,35,-242
-107,-108,-18,101,-54,-57,-14,-5,-151,-153,41,-236
-107,-114,-18,101,-54,-57,-8,1,-145,-153,47,-236
-107,-114,-18,101,-54,-63,-8,7,-139,-147,47,-236
-107,-114,-18,101,-54,-63,-8,13,-127,-141,47,-236
-107,-114,-18,101,-54,-63,-3,25,-115,-135,53,-230
-107,-114,-18,101,-54,-63,3,31,-103,-129,53,-224
-107,-114,-18,101,-54,-63,3,37,-97,-123,53,-224
-107,-114,-18,101,-54,-63,9,43,-91,-123,53,-218
-107,-114,-18,101,-54,-63,9,49,-91,-117,53,-218
-107,-114,-18,101,-54,-63,9,49,-91,-117,53,-218
-107,-114,-18,101,-54,-63,9,55,-91,-111,53,-212
-107,-114,-18,101,-54,-63,15,61,-85,-105,53,-212
-107,-114,-18,101,-54,-63,15,67,-79,-99,53,-212
-107,-114,-18,101,-54,-63,15,67,-79,-99,53,-212
-107,-114,-18,107,-54,-63,15,67,-79,-99,53,-212
-107,-114,-18,107,-54,-63,15,67,-79,-99,53,-212
-107,-114,-24,107,-48,-63,15,67,-79,-99,53,-212
-107,-114,-24,107,-48,-63,15,67,-73,-99,53,-206
-113,-114,-18,107,-48,-63,21,73,-67,-93,53,-200
-113,-114,-18,107,-48,-63,21,79,-61,-93,53,-194
-107,-114,-18,107,-48,-63,21,79,-61,-93,53,-194
-101,-114,-18,107,-48,-63,21,85,-61,-93,53,-194
-95,-102,-18,101,-48,-57,21,91,-55,-87,53,-188
-83,-90,-18,95,-42,-51,21,97,-49,-81,53,-188
-83,-84,-18,95,-42,-51,21,97,-49,-75,53,-182
-83,-84,-18,95,-42,-51,21,97,-49,-75,53,-182
-83,-84,-18,95,-42,-51,21,97,-49,-75,53,-182
-83,-84,-18,95,-42,-51,21,97,-49,-75,53,-182
-83,-84,-18,95,-42,-51,21,97,-49,-75,53,-182
-83,-84,-18,89,-42,-51,21,97,-49,-75,53,-182
-83,-84,-18,89,-42,-51,21,97,-49,-75,53,-182
-83,-90,-18,95,-42,-51,21,97,-49,-75,47,-182
-89,-96,-18,101,-42,-51,21,97,-49,-75,41,-182
-89,-96,-18,101,-42,-51,21,97,-49,-69,41,-182
-83,-84,-18,95,-42,-45,21,97,-49,-63,41,-176
-77,-78,-18,83,-42,-45,21,97,-49,-57,41,-176
-65,-72,-18,77,-36,-45,21,97,-49,-57,41,-176
-59,-66,-18,71,-30,-45,21,97,-43,-51,41,-170
-59,-66,-18,65,-30,-45,21,97,-37,-51,41,-164
-59,-66,-18,65,-30,-45,21,97,-31,-45,41,-158
-59,-66,-18,65,-30,-45,21,97,-31,-45,41,-158
-59,-66,-18,65,-30,-45,21,97,-31,-39,41,-152
-59,-66,-12,65,-30,-39,27,97,-25,-33,41,-146
-59,-60,-12,59,-30,-33,33,97,-25,-27,47,-140
-53,-54,-12,53,-30,-27,33,97,-19,-21,47,-134
-53,-54,-12,53,-30,-27,33,97,-19,-21,47,-134
-59,-60,-12,53,-30,-27,27,97,-19,-21,47,-134
-59,-60,-12,53,-24,-27,21,97,-19,-21,47,-134
-53,-60,-12,53,-24,-27,21,97,-13,-15,53,-122
-53,-54,-6,53,-24,-21,21,97,-7,-3,59,-110
-47,-48,-6,47,-24,-21,21,97,-2,2,59,-98
-35,-36,-6,35,-18,-21,21,97,-2,8,59,-92
-23,-30,-6,29,-12,-21,21,97,-2,14,65,-86
-23,-24,-6,29,-12,-21,21,97,-2,20,71,-86
-23,-24,-6,29,-12,-21,15,97,-2,20,71,-86
-17,-24,-12,29,-6,-21,3,97,-2,20,71,-80
-17,-24,-12,29,-6,-21,-3,97,-2,20,77,-74
-17,-24,-18,23,0,-21,-14,97,-2,20,83,-68
0,-12,-18,11,5,-21,-20,97,-2,26,95,-56
24,5,-18,-18,17,-15,-20,97,4,38,107,-44
36,11,-24,-30,29,-15,-26,97,10,44,119,-32
42,11,-24,-30,35,-15,-32,97,10,50,125,-20
48,11,-24,-30,35,-15,-38,97,10,56,131,-14
54,11,-24,-30,35,-15,-44,97,10,62,131,-2
54,17,-24,-30,35,-9,-50,97,10,68,137,9
60,29,-24,-42,41,-3,-56,97,10,80,149,27
72,53,-24,-66,47,2,-56,97,16,92,161,45
78,65,-24,-78,47,8,-56,97,22,104,173,63
78,65,-24,-78,47,8,-62,91,22,110,179,75
84,65,-24,-78,53,8,-68,85,22,116,185,81
102,65,-30,-84,65,8,-74,79,22,116,191,87
114,65,-42,-90,77,8,-80,73,22,116,191,93
126,65,-42,-90,83,8,-92,67,22,116,197,99
132,71,-48,-96,89,8,-98,67,22,122,203,111
138,77,-48,-96,89,8,-104,67,22,128,215,123
138,83,-48,-102,89,14,-110,67,22,134,221,135
138,89,-48,-108,95,14,-110,61,22,134,227,141
138,89,-48,-108,95,14,-116,55,22,134,233,147
138,89,-48,-108,95,14,-122,49,22,140,239,159
138,95,-42,-114,95,20,-122,49,22,152,245,171
144,101,-42,-120,95,26,-122,49,22,158,251,183
150,107,-42,-126,95,26,-122,49,22,164,257,189
156,113,-42,-132,95,26,-128,49,22,164,257,195
162,119,-42,-132,95,26,-134,43,22,164,257,195
162,119,-42,-132,101,26,-140,37,22,164,257,195
162,119,-42,-132,101,26,-146,37,22,164,257,201
168,119,-42,-138,107,26,-152,31,22,164,257,207
174,119,-48,-144,119,26,-152,25,22,164,257,207
186,119,-54,-150,125,26,-158,19,22,164,257,207
186,119,-60,-150,125,26,-164,7,22,164,257,213
186,125,-60,-150,125,26,-164,7,22,164,257,219
192,137,-60,-162,125,38,-164,7,22,164,257,225
198,149,-60,-174,125,44,-164,7,22,164,257,225
198,149,-60,-174,125,44,-164,7,16,164,251,225
198,149,-60,-174,125,44,-164,7,10,158,245,219
198,149,-54,-174,125,44,-164,7,10,158,239,213
198,149,-54,-174,125,44,-164,7,10,152,233,207
198,149,-54,-174,125,44,-158,7,10,146,227,207
198,149,-54,-174,125,50,-152,7,10,146,221,201
192,149,-48,-168,119,50,-140,7,10,140,209,195
180,143,-42,-156,107,50,-134,7,10,134,185,189
168,137,-36,-150,95,50,-128,7,10,122,167,177
162,137,-30,-144,95,50,-122,13,10,116,155,159
150,131,-30,-138,89,50,-116,13,10,110,131,141
144,125,-30,-138,89,50,-110,13,10,104,119,117
138,125,-24,-138,83,50,-98,19,10,98,107,105
126,125,-18,-132,77,50,-86,25,10,98,95,93
120,119,-18,-126,71,50,-80,31,10,92,83,81
114,107,-18,-114,65,50,-74,31,10,80,53,69
102,95,-18,-102,59,50,-68,31,10,68,29,51
90,83,-12,-90,53,50,-62,37,10,62,6,39
66,77,-1,-78,41,50,-56,43,10,56,-6,27
48,65,5,-66,23,50,-50,43,10,50,-18,9
30,59,11,-54,11,50,-38,43,10,50,-30,-8
12,53,17,-42,0,50,-32,49,10,44,-42,-20
-5,47,23,-30,-12,50,-26,49,10,38,-48,-26
-17,41,29,-18,-24,50,-14,49,10,32,-54,-32
-23,35,35,-12,-30,50,-8,55,10,32,-60,-38
-29,29,35,-6,-36,50,-3,55,10,32,-66,-44
-35,23,41,-1,-42,50,9,61,10,32,-72,-50
-35,17,41,5,-42,44,15,61,10,26,-78,-62
-29,17,35,5,-36,38,21,61,10,14,-90,-74
-23,17,29,5,-30,32,21,61,10,8,-102,-86
-23,17,23,5,-24,26,27,61,10,2,-114,-98
-23,17,23,5,-24,26,33,61,10,-3,-126,-104
-35,11,23,5,-24,26,33,61,10,-9,-138,-110
-41,5,23,11,-30,26,33,61,10,-9,-150,-110
-53,-6,23,23,-36,26,33,61,10,-15,-162,-116
-59,-12,23,29,-36,20,33,61,10,-21,-174,-122
-59,-18,23,29,-36,14,33,61,10,-27,-180,-128
-59,-18,23,29,-36,14,39,61,10,-27,-186,-134
-59,-18,23,29,-36,14,39,61,10,-27,-192,-140
-59,-24,23,29,-36,8,45,61,10,-33,-198,-146
-53,-30,11,29,-30,2,45,55,-2,-39,-204,-152
-41,-30,-1,29,-18,-9,45,55,-7,-45,-210,-158
-41,-30,-1,29,-18,-9,45,55,-7,-45,-210,-158
-41,-30,-1,29,-18,-9,45,55,-7,-45,-210,-158
-29,-30,-6,29,-12,-9,45,55,-13,-45,-216,-158
-29,-30,-6,29,-12,-9,45,55,-13,-45,-216,-158
-35,-30,-6,29,-12,-9,45,55,-13,-45,-216,-158
-35,-30,-6,29,-12,-9,45,55,-13,-45,-216,-158
-35,-36,-6,29,-12,-15,45,49,-13,-45,-222,-164
-41,-42,-6,35,-18,-15,45,49,-13,-45,-222,-164
-47,-42,-1,41,-24,-15,45,49,-13,-45,-222,-164
-53,-42,-1,41,-24,-15,45,49,-13,-45,-222,-164
-53,-42,-1,41,-24,-15,45,49,-13,-45,-222,-164
-53,-42,-1,41,-24,-15,45,49,-19,-45,-222,-164
-53,-42,-1,41,-24,-15,45,43,-19,-51,-228,-164
-53,-42,-1,41,-24,-15,45,43,-19,-51,-228,-164
-53,-42,-1,41,-24,-15,45,43,-19,-51,-228,-164
-53,-42,-1,41,-24,-15,45,43,-19,-51,-228,-164
-53,-42,-1,41,-24,-15,45,43,-19,-51,-228,-164
-53,-42,-6,41,-24,-15,45,43,-19,-51,-228,-164
-53,-42,-6,41,-24,-15,45,43,-19,-51,-228,-164
-59,-42,-1,47,-30,-15,45,43,-19,-51,-228,-164
-59,-42,5,47,-36,-15,45,43,-19,-51,-228,-164
-59,-42,5,47,-36,-15,45,43,-19,-51,-228,-164
-53,-42,5,47,-30,-15,45,43,-19,-51,-228,-164
-47,-42,-1,47,-30,-15,45,43,-19,-51,-228,-164
-47,-42,-1,47,-30,-15,45,43,-19,-51,-228,-164
-47,-42,-1,47,-30,-15,45,43,-19,-51,-228,-164
-47,-42,-1,47,-30,-15,45,43,-19,-51,-228,-164
-47,-42,-1,47,-30,-15,45,43,-19,-51,-228,-164
-47,-42,-1,47,-30,-15,45,43,-19,-51,-228,-164
-41,-42,-6,47,-24,-15,45,43,-19,-51,-228,-164
-41,-42,-12,47,-18,-21,45,43,-25,-51,-228,-170
-41,-48,-12,47,-18,-21,45,43,-25,-51,-228,-170
-41,-48,-12,47,-18,-21,45,43,-25,-51,-228,-170
-41,-48,-12,47,-18,-21,45,43,-25,-51,-228,-170
-41,-48,-12,47,-18,-21,45,43,-25,-51,-228,-170
-41,-48,-12,47,-18,-21,45,43,-25,-51,-228,-170
-41,-48,-12,47,-18,-21,45,43,-25,-51,-228,-170
-41,-48,-12,47,-18,-21,45,43,-25,-51,-228,-170
-41,-48,-12,47,-18,-21,45,43,-25,-51,-228,-170
-41,-48,-12,47,-18,-21,45,43,-25,-51,-228,-170
-41,-48,-12,47,-18,-21,45,43,-25,-51,-228,-170
-41,-48,-12,47,-18,-21,45,43,-25,-51,-228,-170
-41,-48,-12,47,-18,-21,45,43,-25,-51,-228,-170
-47,-48,-12,47,-24,-21,45,43,-25,-51,-228,-170
-47,-48,-12,47,-24,-21,45,43,-25,-51,-228,-170
-47,-48,-12,47,-24,-21,45,43,-25,-51,-228,-170
-47,-48,-12,41,-18,-21,45,43,-25,-51,-228,-170
-47,-48,-12,41,-18,-21,45,43,-19,-51,-228,-170
-47,-48,-12,41,-18,-21,45,43,-13,-51,-222,-164
-41,-42,-12,35,-18,-21,45,43,-7,-45,-222,-164
-35,-42,-12,29,-18,-21,45,43,-7,-45,-222,-164
-29,-42,-12,29,-12,-21,45,43,-7,-45,-222,-164
-29,-42,-12,29,-12,-21,45,43,-7,-45,-222,-158
-29,-42,-12,29,-12,-21,45,43,-2,-39,-216,-158
-35,-42,-6,35,-18,-21,45,43,-2,-39,-216,-158
-47,-42,-1,35,-24,-21,45,43,-2,-39,-216,-158
-47,-42,-1,35,-24,-21,45,43,-2,-39,-216,-158
-47,-42,-1,35,-24,-21,45,43,-2,-39,-216,-158
-47,-42,-1,35,-24,-21,45,43,-2,-39,-216,-158
-47,-42,-1,35,-24,-21,45,43,-2,-39,-216,-158
-47,-42,-1,35,-24,-21,45,43,-2,-39,-216,-158
-35,-36,-1,35,-18,-21,45,43,-2,-39,-216,-158
-23,-30,-1,29,-12,-21,45,43,-2,-39,-216,-158
-17,-24,-1,23,-6,-21,45,43,-2,-39,-216,-158
-11,-24,-1,17,-6,-21,45,43,-2,-39,-216,-152
-11,-24,-6,17,-6,-21,45,43,-2,-39,-216,-152
-11,-24,-6,17,-6,-21,45,43,-2,-39,-216,-152
-23,-30,-6,23,-6,-21,45,43,-2,-39,-216,-152
-23,-30,-6,23,-6,-21,45,43,-2,-39,-216,-152
-17,-30,-12,23,-6,-21,45,43,-2,-39,-216,-152
-5,-30,-12,17,0,-21,45,43,-2,-39,-216,-152
-5,-30,-12,17,0,-21,45,43,-2,-39,-216,-146
-11,-30,-6,17,-6,-21,45,43,-2,-39,-216,-140
-17,-30,-6,23,-6,-21,45,43,-2,-39,-216,-140
-17,-36,-6,23,-6,-27,45,37,-2,-39,-222,-140
-17,-36,-6,23,-6,-27,45,37,-2,-39,-228,-140
-17,-36,-6,23,-6,-27,45,37,-2,-39,-228,-140
-11,-30,-6,23,-6,-27,45,37,-2,-39,-228,-140
-5,-24,-6,23,-6,-27,45,37,-2,-39,-228,-140
-5,-24,-6,23,-6,-27,45,37,-2,-39,-228,-140
-11,-24,-6,23,-6,-27,45,37,-2,-39,-228,-140
-17,-24,-6,23,-6,-27,45,37,-2,-39,-228,-140
-23,-24,-6,23,-12,-27,45,37,-2,-39,-228,-140
-29,-24,-6,23,-12,-27,45,37,-2,-39,-228,-140
-29,-24,-6,23,-12,-27,45,37,-2,-39,-228,-140
-23,-24,-6,23,-6,-27,45,37,-2,-39,-228,-140
-11,-18,-6,17,0,-27,45,37,-2,-39,-228,-140
-11,-12,-6,17,0,-21,45,37,-2,-39,-228,-140
-5,-12,-6,17,0,-15,45,37,-2,-39,-228,-140
0,-12,-6,11,0,-15,45,37,-2,-39,-222,-140
0,-12,-12,11,5,-15,45,37,-2,-39,-222,-140
0,-12,-18,11,5,-15,45,37,-7,-39,-222,-140
-5,-18,-18,17,5,-15,45,31,-13,-45,-222,-140
-11,-18,-18,17,5,-15,45,31,-13,-45,-222,-140
-11,-18,-18,17,5,-15,45,31,-13,-45,-216,-140
-11,-18,-18,17,0,-15,45,31,-13,-45,-210,-134
-11,-18,-18,17,0,-15,45,31,-13,-45,-210,-134
-11,-18,-18,23,0,-15,45,25,-13,-45,-210,-134
-23,-24,-18,29,0,-15,45,19,-13,-45,-210,-134
-29,-30,-18,35,-6,-15,45,19,-13,-45,-210,-134
-29,-30,-18,35,-6,-15,45,19,-13,-45,-210,-134
-29,-24,-18,29,-6,-15,45,19,-13,-45,-204,-134
-23,-12,-18,17,-6,-15,45,19,-13,-45,-204,-128
-17,-6,-18,11,-6,-15,45,19,-13,-45,-204,-128
-17,-6,-18,11,-6,-15,45,19,-13,-45,-204,-128
-17,-12,-18,17,-6,-15,45,19,-13,-45,-204,-128
-17,-18,-18,23,-6,-15,45,19,-13,-45,-204,-128
-17,-18,-18,23,-6,-15,45,19,-13,-45,-204,-128
-17,-18,-18,23,-6,-15,45,19,-13,-45,-204,-128
-17,-18,-18,23,-6,-15,45,19,-13,-45,-204,-128
-23,-24,-18,29,-6,-15,45,13,-19,-51,-204,-128
-23,-24,-18,29,-6,-15,45,13,-19,-51,-204,-128
-17,-24,-18,23,0,-15,45,13,-19,-51,-204,-128
-5,-18,-18,11,5,-15,45,13,-19,-51,-198,-128
0,-18,-18,11,11,-15,45,13,-19,-51,-186,-128
0,-18,-18,11,11,-15,45,13,-19,-51,-174,-128
0,-18,-18,11,5,-15,45,13,-19,-51,-162,-128
0,-18,-18,11,5,-15,45,13,-19,-51,-156,-128
0,-18,-18,11,5,-15,45,13,-19,-51,-150,-128
0,-18,-18,11,5,-15,45,13,-19,-51,-144,-128
-5,-18,-18,11,0,-15,45,13,-19,-51,-144,-128
-11,-18,-18,11,0,-15,45,13,-19,-51,-144,-128
-11,-18,-18,11,0,-15,45,13,-19,-57,-144,-128
-11,-18,-18,11,-6,-15,45,13,-19,-63,-144,-128
-23,-18,-12,23,-12,-15,45,13,-19,-63,-144,-128
-35,-18,-6,29,-18,-15,45,13,-19,-63,-138,-128
-35,-18,-6,29,-18,-15,45,13,-19,-63,-138,-128
-29,-18,-6,23,-12,-15,45,13,-19,-63,-138,-128
-23,-12,-6,17,-12,-15,45,13,-19,-63,-132,-128
-23,-12,-6,17,-18,-15,45,13,-19,-63,-126,-128
-23,-12,-6,17,-18,-15,45,13,-19,-63,-126,-128
-23,-12,-6,17,-18,-15,45,7,-19,-63,-126,-128
-23,-12,-6,17,-18,-15,45,7,-19,-63,-126,-128
-23,-12,-1,17,-18,-9,45,7,-19,-63,-126,-128
-23,-12,-1,17,-18,-9,45,7,-19,-63,-126,-128
-17,-12,-6,17,-12,-9,45,1,-25,-63,-126,-128
-11,-12,-12,17,-6,-15,45,1,-31,-63,-126,-128
-11,-12,-12,17,-6,-15,45,1,-31,-63,-126,-128
-23,-12,-6,17,-18,-15,45,1,-31,-63,-126,-128
-23,-12,-1,17,-18,-15,45,1,-31,-63,-126,-128
-23,-12,-1,17,-18,-15,45,1,-31,-63,-126,-128
-23,-12,-1,17,-18,-15,51,1,-31,-63,-120,-128
-23,-12,-1,17,-18,-9,51,1,-31,-63,-120,-122
-23,-12,-1,17,-18,-3,51,1,-31,-63,-120,-122
-23,-12,-1,17,-18,-3,57,1,-31,-63,-114,-122
-23,-6,5,17,-18,2,57,1,-25,-57,-108,-122
-23,-1,5,17,-18,2,57,1,-25,-57,-108,-122
-23,-1,5,17,-18,2,63,1,-25,-51,-108,-122
-23,5,11,17,-18,8,69,1,-25,-45,-102,-116
-23,17,23,11,-24,20,81,7,-13,-39,-90,-110
-17,29,35,-1,-24,32,87,13,-7,-33,-84,-104
-17,29,35,-6,-24,32,87,13,-7,-33,-84,-98
-17,29,35,-6,-24,32,87,13,-7,-33,-84,-98
-17,29,41,-6,-24,38,93,19,-2,-33,-84,-98
-17,41,47,-12,-30,44,99,31,4,-33,-84,-98
-17,47,53,-12,-36,50,99,37,10,-33,-84,-92
-17,47,53,-12,-36,50,99,37,10,-33,-84,-92
-17,47,53,-12,-36,50,99,37,10,-33,-84,-92
-11,47,53,-18,-36,50,99,37,16,-21,-78,-86
0,53,53,-24,-30,56,99,37,22,-15,-72,-74
12,59,53,-30,-24,56,87,37,22,-15,-72,-68
18,59,53,-36,-24,56,75,37,22,-9,-66,-68
24,59,53,-42,-24,56,63,37,22,-3,-60,-62
36,65,53,-54,-12,56,51,37,28,-3,-54,-62
48,71,53,-66,-6,56,45,37,28,-3,-48,-56
48,71,53,-66,-6,56,39,37,28,-3,-48,-56
48,71,53,-66,-6,56,33,37,28,-3,-48,-56
48,71,47,-60,-6,56,21,31,28,-3,-48,-56
48,71,35,-60,5,50,15,25,28,-3,-48,-56
54,71,23,-60,11,50,9,19,28,-3,-48,-56
54,71,23,-60,11,50,9,19,28,-3,-48,-56
48,71,23,-60,11,50,3,13,28,-3,-48,-56
48,65,23,-60,11,44,3,1,22,-9,-48,-56
42,59,23,-54,11,44,-3,-5,10,-15,-54,-56
42,53,23,-48,11,38,-3,-10,4,-21,-54,-56
36,53,23,-42,11,38,-3,-16,-2,-21,-60,-56
36,47,17,-42,11,32,-3,-22,-7,-27,-66,-56
36,41,5,-36,11,20,-8,-34,-13,-33,-72,-62
36,35,-1,-30,11,14,-8,-40,-19,-33,-78,-62
36,29,-6,-30,11,14,-8,-40,-25,-39,-78,-62
30,17,-6,-24,11,8,-8,-46,-31,-45,-84,-68
18,5,-6,-12,5,2,-8,-52,-31,-45,-90,-74
12,-1,-6,-6,5,2,-8,-52,-31,-51,-90,-74
12,-1,-6,-6,5,2,-8,-52,-31,-51,-96,-74
12,-1,-6,-6,5,2,-8,-52,-37,-51,-102,-74
12,-1,-6,-6,5,2,-8,-52,-43,-57,-102,-80
12,-1,-6,-1,5,2,-8,-52,-43,-57,-108,-80
0,-1,-1,11,0,2,-8,-52,-43,-57,-108,-80
-5,-6,-1,17,-6,2,-8,-52,-43,-57,-108,-80
-5,-6,-1,17,-6,2,-8,-52,-43,-57,-114,-80
-11,-12,-1,17,-6,2,-8,-52,-49,-63,-120,-86
-23,-18,-1,23,-12,-3,-8,-58,-55,-69,-126,-92
-35,-30,-1,35,-18,-3,-8,-64,-55,-75,-132,-98
-47,-36,5,41,-24,-3,-8,-64,-55,-75,-132,-98
-47,-36,5,41,-24,-3,-8,-70,-55,-75,-132,-98
-47,-36,5,41,-24,-3,-8,-76,-61,-81,-132,-98
-47,-36,5,41,-24,-3,-8,-82,-67,-87,-132,-98
-47,-36,5,41,-24,-3,-8,-82,-67,-87,-132,-104
-47,-36,5,41,-24,-3,-8,-82,-67,-93,-138,-110
-47,-36,5,41,-24,-3,-3,-82,-67,-93,-138,-110
-47,-36,5,47,-24,-9,-3,-82,-67,-93,-138,-116
-47,-36,5,47,-24,-15,-3,-82,-73,-93,-144,-116
-47,-36,5,47,-24,-21,-3,-82,-79,-93,-150,-122
-47,-36,-1,47,-18,-21,-3,-82,-85,-93,-150,-122
-47,-36,-1,47,-18,-21,-3,-82,-85,-93,-150,-122
-47,-36,-1,47,-18,-21,3,-82,-85,-93,-150,-122
-47,-36,-1,47,-18,-21,9,-82,-85,-93,-150,-122
-47,-42,-1,53,-18,-21,15,-82,-85,-93,-150,-122
-53,-48,-1,59,-24,-27,15,-82,-85,-93,-150,-122
-59,-54,-1,65,-30,-27,15,-82,-85,-93,-150,-122
-59,-54,-1,65,-30,-27,15,-82,-79,-93,-150,-122
-59,-54,-1,65,-24,-27,21,-82,-79,-93,-150,-122
-59,-60,-1,65,-24,-27,21,-82,-79,-93,-150,-122
-71,-66,-1,71,-30,-27,21,-82,-79,-93,-150,-122
-83,-78,-1,83,-36,-33,21,-82,-79,-93,-150,-122
-89,-84,5,83,-42,-33,27,-82,-79,-93,-150,-122
-101,-84,11,83,-60,-33,45,-58,-61,-87,-150,-128
-113,-78,41,83,-84,-21,99,19,4,-63,-144,-128
-119,-66,65,83,-102,-3,165,133,76,-21,-132,-128
-119,-60,71,83,-102,2,207,229,148,8,-120,-134
-119,-54,71,83,-102,8,249,313,226,50,-114,-146
-119,-42,83,83,-108,20,285,391,292,98,-102,-152
-119,-6,113,77,-108,44,315,457,358,170,-60,-146
-113,29,125,47,-108,68,333,505,418,242,23,-116
-71,59,125,5,-96,80,339,583,490,326,119,-50
12,89,113,-48,-54,80,339,631,532,422,233,63
108,119,59,-120,17,80,315,649,568,524,377,219
216,173,-6,-204,113,80,231,649,604,632,581,411
354,239,-66,-294,209,80,129,601,610,740,779,633
450,311,-96,-384,269,92,-3,421,610,824,965,849
522,395,-108,-456,311,122,-140,169,592,878,1121,1059
594,449,-120,-516,353,140,-290,-142,448,878,1199,1203
642,473,-144,-552,395,146,-428,-466,238,830,1211,1257
642,473,-150,-552,401,146,-500,-712,58,698,1181,1257
606,461,-144,-534,377,146,-530,-862,-61,566,1031,1197
450,437,-54,-456,251,158,-530,-952,-145,452,875,1059
312,413,65,-372,125,194,-530,-1030,-229,320,695,897
222,371,89,-300,59,212,-530,-1132,-361,116,449,681
126,305,119,-216,5,212,-530,-1204,-517,-141,167,423
6,245,167,-126,-78,212,-512,-1240,-655,-411,-144,159
-71,197,209,-60,-144,212,-464,-1252,-727,-585,-354,-26
-101,167,221,-30,-162,206,-422,-1246,-733,-615,-426,-110
-113,125,221,-6,-162,176,-380,-1192,-733,-621,-444,-140
-119,41,179,29,-156,104,-350,-1114,-733,-621,-450,-182
-131,-42,119,71,-144,38,-326,-1030,-733,-621,-462,-218
-143,-108,65,113,-138,-21,-290,-922,-721,-621,-462,-242
-149,-144,23,131,-120,-63,-260,-814,-691,-609,-462,-248
-143,-150,-18,131,-84,-81,-218,-706,-619,-561,-450,-248
-131,-150,-36,131,-54,-87,-194,-598,-517,-489,-408,-242
-125,-150,-36,131,-48,-87,-164,-484,-433,-417,-366,-230
-125,-144,-30,131,-48,-81,-122,-394,-343,-345,-318,-200
-125,-138,-24,131,-48,-75,-80,-328,-271,-285,-276,-176
-119,-132,-18,125,-48,-75,-50,-256,-211,-243,-240,-164
-119,-120,-12,125,-48,-69,-20,-208,-163,-201,-210,-146
-119,-108,-1,119,-54,-57,9,-166,-133,-171,-180,-134
-119,-102,5,113,-54,-51,21,-136,-121,-153,-168,-122
-113,-96,5,107,-54,-51,33,-124,-115,-147,-162,-116
-107,-96,5,101,-54,-51,39,-112,-109,-141,-156,-110
-107,-96,5,101,-54,-51,45,-100,-103,-135,-156,-110
-107,-96,5,101,-54,-51,51,-88,-97,-129,-150,-104
-101,-96,5,95,-54,-51,57,-82,-91,-123,-150,-104
-101,-96,5,95,-54,-51,57,-76,-85,-123,-150,-104
-101,-96,5,95,-54,-51,63,-70,-79,-123,-144,-104
-95,-96,5,95,-54,-51,63,-64,-73,-123,-138,-104
-95,-96,5,95,-48,-51,63,-64,-73,-117,-138,-104
-95,-96,5,95,-48,-51,63,-58,-73,-111,-138,-104
-95,-90,5,95,-48,-45,63,-52,-67,-105,-132,-104
-95,-90,5,95,-48,-39,69,-46,-61,-99,-126,-98
-95,-90,5,95,-48,-39,75,-40,-61,-93,-126,-98
-95,-90,5,95,-48,-39,75,-34,-61,-93,-126,-92
-95,-90,5,95,-48,-39,75,-28,-55,-93,-126,-92
-95,-90,5,95,-48,-39,75,-28,-49,-93,-126,-86
-95,-90,5,95,-48,-39,75,-28,-49,-93,-126,-86
-95,-90,5,95,-48,-39,75,-22,-43,-93,-120,-86
-95,-90,5,95,-48,-39,75,-16,-43,-87,-120,-86
-95,-90,5,95,-48,-39,81,-16,-43,-81,-114,-80
-95,-90,5,95,-48,-39,81,-16,-43,-81,-114,-80
-89,-84,5,89,-42,-39,81,-16,-43,-81,-108,-80
-83,-78,5,83,-42,-33,81,-5,-37,-75,-108,-74
-83,-78,5,83,-42,-33,87,1,-31,-69,-108,-68
-83,-78,5,83,-42,-33,87,7,-31,-69,-108,-68
-83,-78,5,83,-42,-33,87,7,-31,-69,-108,-68
-83,-78,5,83,-42,-33,87,13,-31,-63,-108,-62
-83,-78,5,83,-42,-33,87,13,-31,-63,-108,-62
-83,-78,5,83,-42,-33,87,13,-31,-63,-108,-62
-83,-78,-1,83,-42,-33,87,13,-31,-63,-108,-62
-83,-78,-1,83,-42,-33,87,13,-31,-63,-108,-62
-83,-78,-1,83,-42,-33,87,19,-31,-63,-102,-56
-83,-72,-1,77,-42,-33,93,19,-25,-57,-96,-50
-83,-72,-1,77,-42,-33,93,19,-25,-57,-96,-50
-83,-72,-1,77,-42,-33,93,19,-25,-57,-96,-50
-83,-72,-1,77,-42,-33,93,19,-25,-51,-90,-44
-77,-72,-6,77,-42,-33,93,19,-25,-51,-90,-44
-77,-72,-6,77,-42,-33,93,19,-25,-51,-90,-38
-71,-72,-6,77,-42,-33,93,19,-25,-51,-90,-32
-65,-72,-12,77,-36,-39,93,19,-25,-51,-90,-32
-59,-72,-18,71,-30,-45,93,19,-25,-51,-84,-32
-53,-72,-18,65,-30,-45,93,19,-25,-45,-78,-26
-53,-66,-18,65,-30,-39,93,25,-13,-33,-66,-14
-53,-66,-18,65,-30,-39,93,25,-7,-27,-60,-8
-53,-66,-18,65,-30,-39,93,25,-7,-27,-54,-8
-53,-66,-18,65,-30,-39,93,25,-7,-21,-54,-2
-53,-66,-18,65,-30,-39,93,25,-7,-21,-48,3
-53,-60,-12,65,-30,-39,93,25,-7,-15,-42,9
-47,-48,-12,53,-24,-33,93,25,-2,-9,-36,21
-35,-42,-12,41,-18,-33,93,25,-2,-3,-30,27
-29,-42,-12,41,-12,-33,93,25,-2,-3,-30,33
-29,-42,-18,41,-12,-33,93,25,-2,-3,-24,33
-29,-42,-24,41,-6,-33,87,25,-2,-3,-18,39
-29,-42,-24,41,-6,-33,81,25,-2,-3,-12,45
-29,-42,-24,41,-6,-33,75,25,4,-3,-6,51
-29,-42,-24,41,-6,-33,69,25,4,-3,0,57
-23,-42,-24,35,-6,-33,63,25,4,2,6,69
-11,-36,-24,29,0,-33,57,25,10,8,11,81
0,-30,-24,17,5,-33,51,25,10,14,17,87
12,-18,-24,5,11,-33,51,25,10,20,23,93
18,-12,-24,-1,17,-27,51,25,16,26,35,105
18,-12,-24,-6,17,-27,51,25,22,32,47,117
24,-12,-30,-6,23,-27,45,25,22,32,59,123
42,-12,-42,-18,47,-27,33,25,22,32,65,129
72,-6,-54,-30,65,-27,27,25,22,32,71,135
84,-1,-60,-42,77,-27,21,25,22,38,77,147
90,-1,-60,-42,77,-27,9,25,22,44,83,159
90,-1,-60,-42,77,-27,3,25,22,50,89,177
78,5,-54,-42,65,-21,-3,25,22,56,101,189
78,17,-48,-42,65,-15,-3,25,28,62,113,201
84,29,-48,-54,71,-15,-8,25,28,68,125,213
96,35,-60,-66,77,-15,-14,25,28,74,131,219
102,41,-66,-72,83,-15,-20,25,28,74,143,225
108,47,-72,-78,89,-15,-26,25,28,80,155,237
126,53,-78,-90,101,-15,-38,19,28,80,161,243
156,59,-84,-102,113,-15,-50,13,28,80,167,255
174,65,-90,-114,125,-15,-62,13,28,86,173,261
174,65,-96,-120,131,-15,-68,13,28,92,179,273
174,65,-96,-120,131,-15,-74,7,28,98,185,279
168,65,-96,-120,131,-15,-80,1,28,98,185,285
168,65,-96,-120,131,-15,-80,-5,28,98,185,291
168,65,-96,-120,131,-15,-80,-5,28,104,191,297
168,71,-96,-120,131,-9,-80,-5,28,104,203,303
168,77,-96,-120,131,-3,-80,-5,28,104,209,309
174,83,-96,-126,131,-3,-86,-10,28,104,215,315
186,89,-96,-132,131,-3,-92,-10,28,104,215,321
192,95,-96,-138,131,-3,-92,-10,28,104,215,327
192,101,-96,-144,131,2,-92,-10,28,104,215,333
192,101,-96,-144,131,2,-92,-16,28,104,215,339
192,101,-96,-144,131,2,-92,-16,28,104,215,345
192,107,-96,-150,137,2,-92,-16,28,104,221,351
204,113,-96,-156,143,2,-92,-16,28,110,221,357
210,119,-96,-156,149,2,-92,-16,28,110,221,357
210,119,-96,-156,149,2,-92,-16,28,110,221,357
210,119,-96,-156,149,2,-92,-16,28,110,221,357
210,119,-96,-156,149,2,-92,-16,28,110,221,357
216,119,-102,-162,155,2,-92,-22,22,110,215,351
216,119,-102,-162,155,2,-92,-22,16,104,209,345
198,119,-96,-156,143,8,-92,-22,16,104,203,339
186,119,-90,-150,137,8,-92,-22,16,98,191,327
180,119,-84,-150,131,14,-92,-22,16,92,185,321
174,119,-72,-150,119,20,-86,-22,16,92,179,315
168,119,-72,-144,113,20,-80,-22,16,92,167,309
162,113,-72,-138,113,20,-74,-22,16,86,155,297
150,101,-66,-126,101,20,-62,-16,16,86,143,285
120,95,-54,-108,77,26,-50,-5,16,86,131,273
108,95,-42,-102,65,26,-38,1,16,86,125,261
108,95,-36,-102,65,26,-26,7,16,80,113,249
108,89,-36,-96,65,26,-20,13,16,74,101,237
102,83,-36,-90,65,26,-14,19,22,68,89,219
96,77,-36,-90,59,26,-3,25,22,62,77,207
90,77,-36,-84,59,26,3,31,22,56,65,195
84,71,-36,-78,59,26,9,37,22,50,53,177
78,59,-36,-66,59,20,15,37,22,44,41,159
72,53,-36,-60,59,14,21,37,22,38,23,141
60,47,-30,-54,47,14,33,43,22,32,11,129
48,41,-18,-48,35,14,45,49,28,26,6,123
42,41,-12,-42,29,14,57,55,28,26,0,117
36,41,-12,-36,29,14,63,55,28,20,-12,105
30,41,-12,-30,23,14,69,61,28,14,-24,93
12,35,-12,-18,17,14,75,67,28,8,-30,81
-5,23,-12,-6,5,8,75,67,28,2,-42,69
-29,-6,-12,11,-6,2,75,67,28,2,-54,57
-41,-18,-6,29,-12,2,81,67,28,2,-60,45
-47,-30,-1,41,-18,2,87,67,28,2,-66,39
-53,-36,-1,41,-24,-3,93,67,28,-3,-72,27
-53,-36,-1,41,-24,-3,99,67,28,-9,-78,15
-53,-36,-1,41,-24,-3,105,67,28,-9,-84,9
-53,-36,-1,41,-24,-3,111,67,28,-9,-84,3
-53,-36,-1,41,-24,-3,111,67,28,-9,-84,-2
-53,-36,-1,41,-24,-3,111,67,28,-15,-84,-8
-53,-36,-1,41,-24,-9,111,67,28,-21,-90,-14
-47,-36,-1,35,-24,-9,111,67,28,-21,-90,-14
-35,-36,-6,29,-18,-15,111,67,28,-27,-96,-20
-29,-36,-12,23,-12,-15,111,67,28,-33,-102,-26
-23,-36,-12,17,-6,-15,111,67,28,-33,-102,-26
-23,-36,-12,17,-6,-15,111,67,28,-33,-102,-32
-35,-42,-12,29,-12,-21,111,67,28,-39,-102,-32
-41,-42,-12,35,-12,-21,111,67,28,-45,-102,-32
-41,-42,-12,35,-12,-21,111,67,22,-51,-108,-38
-41,-48,-12,35,-12,-27,111,61,16,-57,-114,-38
-41,-54,-18,41,-12,-27,111,61,16,-63,-114,-44
-41,-54,-18,41,-12,-27,111,61,16,-63,-114,-50
-41,-54,-18,41,-12,-27,111,61,16,-63,-114,-50
-41,-54,-18,41,-12,-27,111,61,16,-63,-114,-50
-41,-54,-18,41,-12,-27,111,61,10,-63,-114,-56
-41,-54,-18,41,-12,-27,111,61,10,-63,-120,-62
-41,-54,-18,41,-12,-27,111,61,10,-63,-120,-62
-41,-54,-18,41,-12,-27,111,61,10,-63,-120,-62
-41,-54,-18,41,-12,-27,111,61,10,-63,-120,-62
-41,-54,-18,41,-12,-27,111,61,10,-63,-120,-62
-41,-54,-18,41,-12,-27,111,61,10,-63,-120,-62
-41,-54,-12,47,-18,-27,111,61,10,-63,-120,-62
-41,-54,-12,47,-24,-27,111,61,10,-63,-120,-62
-41,-54,-12,47,-24,-27,111,61,10,-63,-120,-62
-41,-54,-12,47,-24,-27,111,55,4,-63,-120,-62
-47,-60,-12,53,-24,-27,111,55,4,-63,-120,-62
-53,-60,-12,59,-24,-27,111,55,4,-63,-120,-62
-59,-60,-12,59,-24,-27,111,55,4,-63,-120,-62
-59,-60,-12,59,-24,-27,111,55,4,-63,-120,-62
-59,-60,-18,59,-24,-33,111,55,4,-63,-120,-68
-53,-60,-18,59,-24,-33,111,55,4,-63,-120,-68
-53,-60,-18,59,-24,-33,111,55,4,-63,-120,-68
-53,-60,-18,59,-24,-33,111,55,4,-63,-120,-68
-53,-60,-18,59,-24,-33,111,55,4,-63,-120,-68
-53,-60,-18,59,-24,-33,111,55,4,-63,-120,-68
-53,-60,-18,59,-24,-33,111,55,4,-63,-120,-68
-53,-60,-24,59,-24,-33,111,55,4,-63,-120,-68
-53,-60,-24,59,-24,-33,111,55,4,-63,-120,-68
-53,-60,-24,59,-24,-33,111,55,4,-63,-120,-68
-53,-60,-24,59,-24,-39,111,55,4,-63,-120,-68
-47,-60,-36,59,-12,-45,111,55,4,-63,-120,-74
-41,-60,-36,59,-12,-45,111,55,4,-57,-120,-74
-41,-60,-36,59,-18,-45,111,55,10,-57,-120,-74
-47,-60,-30,59,-18,-45,111,55,10,-57,-120,-74
-47,-60,-30,59,-18,-45,111,55,10,-57,-120,-74
-47,-60,-30,59,-18,-45,111,55,10,-57,-120,-74
-47,-60,-30,59,-18,-45,111,55,10,-57,-120,-74
-47,-60,-30,59,-18,-45,111,55,10,-57,-120,-74
-47,-60,-30,59,-18,-45,111,55,10,-57,-120,-74
-47,-60,-30,59,-18,-45,111,55,10,-57,-120,-74
-41,-60,-30,53,-18,-45,111,55,10,-51,-120,-74
-35,-60,-30,53,-18,-45,111,55,10,-51,-120,-74
-35,-60,-30,53,-18,-45,111,55,10,-51,-120,-74
-35,-60,-30,53,-18,-45,111,55,10,-51,-120,-74
-35,-60,-30,53,-18,-45,111,55,10,-51,-120,-74
-23,-54,-30,47,-12,-45,111,55,16,-45,-120,-74
-23,-54,-30,47,-12,-45,111,55,22,-33,-114,-68
-29,-54,-30,47,-12,-45,111,55,28,-33,-114,-68
-29,-54,-30,47,-12,-45,111,55,28,-33,-114,-68
-35,-54,-30,47,-18,-45,111,55,28,-33,-114,-68
-47,-60,-24,59,-30,-45,111,55,28,-33,-108,-68
-59,-60,-18,65,-36,-39,111,55,28,-33,-108,-68
-59,-60,-18,65,-36,-39,111,55,28,-33,-108,-68
-59,-54,-18,59,-36,-39,111,55,28,-33,-108,-68
-59,-54,-18,53,-36,-39,111,55,28,-33,-108,-68
-53,-54,-18,53,-36,-39,105,55,28,-33,-108,-68
-53,-54,-18,53,-36,-39,105,55,28,-33,-108,-68
-53,-60,-18,53,-36,-39,99,55,28,-33,-108,-68
-53,-60,-24,53,-30,-39,99,55,28,-33,-108,-68
-53,-60,-30,53,-24,-39,99,55,28,-33,-108,-68
-59,-66,-30,59,-24,-39,93,55,28,-33,-108,-68
-71,-72,-30,71,-30,-39,93,55,28,-33,-108,-68
-77,-72,-24,77,-36,-39,93,55,28,-33,-108,-68
-77,-72,-18,77,-36,-39,93,55,28,-33,-108,-68
-71,-66,-18,65,-30,-39,93,55,28,-33,-108,-68
-47,-54,-18,53,-24,-33,93,55,28,-33,-108,-68
-35,-48,-18,47,-18,-27,93,55,28,-33,-108,-68
-35,-48,-12,47,-18,-21,93,55,28,-33,-108,-68
-41,-48,-6,47,-24,-15,93,55,28,-33,-108,-68
-41,-48,-6,47,-24,-15,93,55,28,-33,-108,-68
-41,-48,-6,47,-24,-15,93,55,28,-33,-108,-68
-41,-48,-6,47,-24,-15,93,55,28,-33,-108,-68
-41,-48,-6,47,-24,-15,93,55,28,-33,-108,-68
-47,-48,-6,47,-24,-15,93,55,28,-33,-108,-68
-53,-54,-6,53,-24,-21,93,55,28,-33,-108,-68
-53,-60,-6,53,-24,-27,87,55,28,-33,-114,-68
-53,-60,-6,53,-24,-33,87,55,28,-33,-114,-68
-41,-60,-18,53,-12,-39,87,55,28,-33,-114,-68
-35,-60,-24,53,-12,-39,87,49,28,-33,-114,-68
-35,-60,-24,53,-12,-39,87,49,28,-33,-120,-68
-35,-60,-24,53,-12,-39,87,49,28,-33,-120,-68
-35,-54,-24,53,-12,-39,87,49,28,-33,-120,-68
-35,-54,-24,53,-12,-39,81,49,28,-33,-120,-68
-41,-54,-24,53,-12,-39,81,49,28,-33,-120,-68
-47,-54,-24,53,-12,-39,81,49,28,-33,-120,-68
-47,-54,-24,53,-12,-39,81,49,28,-33,-126,-68
-53,-54,-12,53,-24,-33,81,49,28,-33,-126,-68
-59,-54,-1,59,-36,-33,81,49,28,-33,-126,-68
-65,-60,-1,59,-36,-33,81,49,28,-33,-126,-68
-65,-66,-6,59,-36,-33,81,43,28,-39,-132,-68
-65,-66,-6,59,-36,-33,81,43,28,-39,-132,-68
-71,-66,-6,59,-36,-33,81,43,28,-39,-132,-68
-77,-66,-6,65,-36,-33,81,43,28,-39,-132,-68
-77,-66,-6,65,-36,-33,81,43,28,-39,-138,-68
-71,-66,-6,65,-36,-33,81,43,28,-39,-144,-68
-65,-66,-6,65,-36,-33,81,43,28,-39,-150,-68
-65,-66,-6,65,-36,-33,81,43,28,-39,-156,-68
-65,-66,-6,65,-36,-33,75,43,28,-39,-162,-68
-65,-66,-6,65,-36,-33,75,43,28,-39,-168,-68
-65,-66,-6,65,-36,-33,75,43,28,-39,-168,-68
-77,-66,-6,65,-42,-33,75,43,28,-39,-168,-68
-83,-66,-1,65,-48,-33,75,43,28,-39,-168,-68
-83,-66,-1,65,-48,-33,75,43,28,-39,-174,-68
-83,-66,-1,65,-48,-33,75,43,28,-39,-174,-68
-83,-66,-1,65,-48,-33,75,43,28,-39,-180,-68
-83,-66,-1,65,-48,-33,75,43,28,-39,-180,-68
-77,-66,-1,65,-42,-33,75,43,28,-39,-186,-68
-71,-66,-6,65,-36,-33,75,43,28,-39,-192,-68
-71,-72,-6,65,-36,-33,75,43,28,-39,-198,-68
-65,-72,-6,65,-36,-33,75,43,28,-39,-198,-68
-59,-72,-12,65,-30,-33,75,43,28,-39,-198,-68
-53,-66,-12,59,-30,-33,75,43,28,-39,-198,-68
-53,-66,-12,59,-30,-33,75,43,28,-39,-198,-68
-59,-66,-12,59,-30,-33,75,43,28,-39,-198,-68
-65,-72,-12,65,-30,-33,75,43,28,-39,-198,-68
-71,-72,-12,65,-30,-33,75,43,28,-39,-198,-68
-71,-72,-12,65,-30,-33,75,43,28,-39,-204,-68
-71,-72,-12,65,-30,-33,75,43,28,-39,-204,-68
-71,-72,-12,65,-30,-33,75,43,28,-39,-204,-74
-71,-72,-12,65,-30,-33,75,43,28,-39,-204,-74
-71,-72,-12,71,-30,-33,75,43,28,-39,-210,-74
-71,-72,-12,71,-30,-33,75,43,28,-39,-210,-74
-71,-72,-12,71,-30,-33,75,43,28,-39,-210,-74
-71,-72,-12,71,-30,-33,75,43,28,-39,-210,-74
-71,-72,-12,71,-30,-33,75,43,28,-39,-210,-74
-71,-72,-12,71,-30,-33,75,43,28,-39,-210,-74
-71,-72,-12,71,-30,-33,75,43,28,-39,-210,-80
-77,-72,-12,71,-30,-33,75,43,28,-39,-210,-80
-77,-72,-12,71,-30,-33,75,43,28,-39,-210,-80
-71,-72,-12,71,-30,-33,75,43,28,-39,-210,-80
-65,-72,-12,71,-24,-33,75,43,28,-39,-210,-80
-59,-72,-12,65,-24,-33,75,43,28,-39,-210,-80
-65,-72,-12,65,-30,-33,75,43,28,-39,-204,-80
-71,-72,-6,71,-42,-33,75,49,34,-33,-204,-80
-71,-72,-6,71,-42,-33,75,49,34,-27,-204,-80
-59,-54,-6,53,-36,-33,75,49,34,-27,-204,-80
-47,-24,-1,41,-36,-21,75,49,40,-21,-204,-80
-47,-18,5,35,-36,-15,75,49,46,-15,-204,-80
-47,-18,11,35,-36,-9,75,55,46,-15,-204,-80
-47,-18,11,35,-36,-9,75,55,46,-15,-204,-80
-47,-18,11,35,-36,-9,81,55,46,-15,-204,-80
-47,-18,11,35,-36,-9,87,61,46,-15,-204,-80
-41,-18,11,29,-36,-9,93,67,46,-9,-204,-80
-41,-12,17,29,-36,-3,99,79,52,-3,-198,-74
-41,-12,23,29,-36,-3,105,85,58,2,-198,-74
-41,-12,23,29,-36,-3,105,85,58,2,-198,-74
-41,-12,29,29,-36,2,111,85,64,8,-192,-68
-41,-1,29,29,-36,8,117,91,76,20,-186,-62
-41,5,29,23,-36,14,117,97,82,26,-186,-62
-41,5,29,23,-36,14,111,97,88,26,-186,-62
-35,17,29,11,-36,20,105,97,94,32,-180,-56
-5,35,29,-1,-30,26,99,97,100,38,-168,-50
6,41,29,-6,-24,26,87,97,100,44,-162,-44
12,41,29,-12,-18,26,75,97,100,44,-162,-38
18,41,17,-18,-12,26,63,97,100,44,-162,-32
18,41,11,-18,-6,26,57,97,100,44,-162,-32
18,41,11,-18,-6,26,51,97,100,44,-162,-32
18,41,11,-18,-6,26,51,97,100,44,-162,-32
18,41,11,-18,-6,26,51,97,100,50,-156,-26
18,41,11,-18,-6,26,51,97,106,56,-150,-20
6,41,17,-12,-12,26,51,97,106,56,-150,-20
0,35,17,-6,-12,26,45,91,100,56,-150,-20
0,29,17,-6,-12,26,39,79,88,50,-156,-20
0,23,11,-6,-12,20,27,67,76,38,-162,-26
0,17,5,-6,-12,14,27,61,64,32,-168,-32
0,11,5,-1,-12,8,27,55,58,26,-174,-38
0,5,-6,-1,0,-3,27,49,52,20,-180,-38
6,-1,-24,-1,11,-9,27,49,46,14,-186,-38
12,-1,-36,-1,17,-15,27,43,40,8,-192,-38
18,-1,-42,-1,23,-21,27,43,40,2,-198,-38
18,-6,-42,-1,23,-27,27,37,34,-3,-204,-38
12,-18,-42,5,23,-27,27,37,28,-3,-210,-44
6,-24,-42,11,17,-27,27,37,28,-3,-216,-50
-5,-30,-36,17,11,-27,27,37,28,-3,-216,-56
-11,-30,-30,23,5,-27,27,37,28,-9,-222,-56
-17,-36,-30,23,5,-27,27,31,22,-15,-228,-62
-23,-36,-30,29,0,-27,27,31,22,-21,-234,-68
-29,-42,-30,35,-6,-27,27,31,22,-21,-240,-68
-35,-48,-30,41,-6,-27,27,31,22,-21,-246,-74
-41,-54,-30,47,-6,-33,27,31,16,-27,-252,-80
-53,-60,-30,53,-12,-33,27,31,10,-33,-258,-86
-59,-66,-30,59,-18,-33,27,25,4,-39,-264,-92
-65,-72,-30,65,-24,-33,27,25,4,-45,-264,-98
-71,-78,-24,71,-30,-33,27,25,4,-45,-264,-98
-71,-78,-24,71,-30,-33,27,25,4,-45,-264,-98
-65,-78,-24,71,-30,-33,27,25,4,-45,-264,-98
-59,-78,-24,71,-30,-39,27,25,4,-45,-270,-98
-59,-78,-24,71,-30,-39,27,25,4,-45,-270,-98
-65,-84,-24,71,-30,-39,27,25,-2,-51,-276,-104
-71,-84,-24,71,-30,-39,27,25,-7,-51,-282,-110
-71,-84,-24,71,-30,-39,27,25,-7,-51,-282,-110
-71,-84,-24,71,-30,-39,27,25,-7,-51,-282,-110
-71,-84,-24,71,-30,-39,27,25,-7,-51,-282,-110
-71,-84,-24,71,-30,-39,27,25,-7,-51,-288,-116
-71,-84,-18,71,-30,-39,27,25,-7,-51,-288,-116
-77,-84,-12,77,-36,-39,27,25,-7,-51,-288,-116
-77,-84,-12,77,-36,-39,27,25,-7,-51,-288,-116
-77,-84,-12,77,-36,-39,27,25,-7,-51,-288,-116
-77,-84,-12,77,-30,-39,27,25,-7,-51,-288,-116
-71,-84,-12,71,-24,-39,27,25,-7,-51,-288,-116
-71,-84,-12,71,-24,-39,27,25,-7,-51,-288,-116
-77,-90,-12,83,-24,-45,27,25,-7,-51,-288,-116
-77,-96,-12,83,-24,-51,27,25,-7,-51,-288,-116
-77,-96,-12,83,-24,-51,27,25,-7,-51,-288,-116
-77,-96,-12,83,-24,-51,27,25,-7,-51,-288,-116
-77,-96,-12,83,-24,-51,39,31,-2,-51,-288,-116
-71,-84,-6,71,-24,-45,63,61,22,-39,-288,-122
-71,-72,-1,65,-24,-33,105,133,82,-9,-288,-128
-77,-72,5,65,-36,-27,147,223,142,14,-288,-158
-89,-72,17,77,-54,-27,201,319,208,50,-288,-188
-101,-72,23,83,-60,-27,243,415,268,80,-288,-206
-107,-72,29,83,-66,-27,279,481,334,116,-288,-218
-113,-66,53,83,-78,-15,303,535,412,188,-264,-218
-113,-42,83,77,-90,14,315,601,478,278,-192,-176
-95,-12,83,53,-84,26,321,655,556,362,-96,-92
0,17,53,5,-36,26,321,715,604,464,35,21
114,59,-1,-78,47,26,309,733,646,566,209,189
234,131,-60,-180,143,26,243,733,676,692,407,411
342,215,-84,-276,215,38,135,721,694,800,641,651
414,305,-90,-372,251,74,21,595,700,926,857,897
504,401,-90,-456,287,122,-110,367,694,980,1043,1131
558,443,-96,-498,317,140,-248,79,568,980,1121,1275
570,449,-102,-516,329,146,-368,-214,364,932,1121,1323
570,449,-102,-516,329,146,-416,-442,190,800,1085,1323
546,449,-96,-498,317,158,-428,-562,82,680,941,1245
456,443,-42,-456,239,176,-428,-664,-13,542,755,1071
330,407,35,-384,149,188,-428,-790,-133,374,533,879
198,365,119,-288,35,212,-428,-886,-271,158,281,639
42,323,221,-186,-90,230,-422,-946,-403,-87,-24,369
-89,251,281,-84,-186,236,-410,-994,-547,-369,-354,75
-161,191,299,-12,-234,236,-374,-1024,-643,-561,-588,-134
-191,161,305,17,-252,236,-344,-1024,-649,-585,-642,-212
-203,125,305,47,-258,224,-326,-1012,-649,-585,-648,-230
-203,65,281,71,-258,182,-308,-970,-649,-585,-660,-254
-203,5,209,83,-234,116,-290,-910,-649,-585,-666,-278
-197,-36,125,95,-180,44,-254,-820,-649,-585,-672,-290
-185,-78,77,107,-138,-3,-212,-724,-637,-585,-672,-296
-179,-114,41,119,-120,-33,-188,-634,-601,-573,-666,-296
-173,-132,5,125,-90,-57,-176,-544,-541,-531,-636,-296
-149,-144,-24,125,-60,-81,-170,-442,-463,-459,-606,-290
-131,-144,-42,125,-48,-93,-140,-340,-361,-369,-546,-278
-113,-144,-48,119,-36,-93,-98,-226,-265,-291,-486,-236
-89,-132,-48,107,-30,-87,-50,-142,-175,-207,-432,-194
-77,-120,-48,95,-24,-81,-20,-88,-133,-165,-390,-176
-71,-114,-48,89,-24,-81,-3,-58,-103,-135,-372,-164
-71,-114,-48,89,-24,-81,9,-40,-79,-123,-360,-158
-71,-114,-48,89,-24,-81,15,-28,-73,-117,-354,-152
-71,-114,-48,89,-24,-81,21,-16,-67,-111,-348,-152
-71,-108,-48,89,-24,-81,27,-5,-55,-99,-342,-146
-71,-102,-48,89,-24,-75,39,13,-43,-87,-336,-146
-65,-96,-48,83,-24,-75,39,25,-37,-81,-330,-140
-65,-90,-48,77,-24,-69,39,37,-25,-75,-330,-140
-65,-90,-48,77,-24,-69,39,43,-19,-69,-324,-140
-65,-90,-48,77,-24,-69,45,49,-13,-69,-324,-140
-65,-90,-48,77,-18,-69,51,55,-7,-63,-324,-134
-53,-90,-48,71,-12,-69,57,55,-2,-57,-318,-128
-41,-90,-48,65,0,-69,57,61,-2,-51,-318,-128
-35,-90,-48,59,5,-69,57,67,-2,-51,-318,-128
-35,-90,-48,59,5,-69,57,73,4,-45,-312,-122
-35,-90,-48,59,5,-69,57,79,10,-39,-306,-122
-41,-90,-48,59,0,-69,57,79,16,-39,-300,-122
-53,-90,-42,65,-6,-69,57,85,22,-33,-294,-116
-59,-90,-36,71,-12,-69,57,91,22,-27,-288,-116
-59,-90,-36,71,-12,-69,57,91,28,-27,-288,-110
-59,-90,-36,71,-12,-63,57,91,28,-27,-288,-110
-59,-84,-36,71,-12,-63,57,91,28,-21,-282,-110
-59,-84,-30,71,-12,-57,57,97,28,-21,-282,-110
-59,-84,-30,71,-12,-57,57,97,28,-21,-282,-110
-59,-84,-30,71,-12,-57,57,97,28,-21,-282,-110
-59,-84,-30,71,-12,-57,57,97,28,-21,-282,-110
-53,-84,-30,71,-12,-57,57,103,28,-21,-282,-104
-47,-84,-36,65,-6,-57,57,103,28,-21,-282,-104
-41,-84,-42,59,0,-57,57,103,28,-21,-282,-104
-35,-84,-48,59,5,-63,57,103,28,-21,-282,-104
-35,-84,-54,59,5,-63,57,103,28,-21,-282,-104
-35,-84,-54,59,5,-63,57,103,28,-15,-276,-98
-35,-78,-48,59,5,-57,57,103,28,-9,-270,-92
-35,-72,-48,53,5,-51,57,109,34,-3,-270,-86
-29,-66,-48,47,5,-51,57,109,34,-3,-270,-80
-29,-66,-48,47,5,-51,57,109,34,-3,-270,-80
-29,-66,-42,47,5,-51,57,109,40,2,-264,-80
-29,-66,-42,47,5,-51,57,109,40,2,-264,-80
-29,-60,-42,41,5,-51,57,109,40,2,-264,-80
-29,-60,-42,41,5,-51,57,109,40,2,-264,-80
-29,-60,-42,41,5,-51,57,109,40,2,-258,-74
-29,-60,-42,41,5,-51,57,109,40,2,-252,-68
-29,-60,-42,41,5,-51,57,109,40,8,-246,-62
-29,-60,-42,41,5,-51,57,109,40,8,-246,-56
-23,-54,-42,41,5,-51,57,109,40,8,-240,-50
-11,-48,-42,35,11,-51,57,109,40,14,-234,-50
-11,-48,-42,35,11,-51,57,109,40,14,-234,-50
-11,-48,-42,35,11,-51,51,109,40,14,-228,-44
0,-42,-42,23,23,-51,51,109,40,20,-216,-38
18,-24,-42,-1,35,-45,51,109,40,32,-210,-32
24,-12,-42,-12,41,-45,45,109,40,38,-204,-26
24,-12,-42,-18,41,-45,45,109,46,38,-198,-20
24,-12,-36,-18,35,-39,45,109,52,44,-186,-8
24,-12,-36,-18,29,-33,39,109,52,44,-180,-2
30,-12,-42,-18,35,-33,33,109,52,50,-174,3
42,-6,-48,-18,47,-33,27,109,52,50,-174,3
48,-6,-54,-18,53,-33,21,109,52,50,-168,9
48,-6,-54,-18,53,-33,15,109,52,50,-168,15
48,-6,-54,-18,53,-33,15,109,52,56,-162,21
48,-1,-54,-24,53,-33,15,109,58,62,-150,33
54,5,-54,-36,53,-33,9,109,58,68,-138,45
60,11,-54,-42,59,-33,3,109,58,68,-126,51
60,11,-60,-42,59,-33,-3,109,58,68,-120,57
60,11,-60,-42,65,-33,-8,109,58,74,-114,63
60,11,-60,-42,65,-33,-14,109,58,80,-102,75
60,11,-60,-42,65,-33,-20,109,58,92,-90,87
66,17,-60,-48,65,-33,-26,109,58,104,-72,99
90,29,-66,-60,77,-33,-32,109,58,110,-60,111
108,35,-72,-72,89,-33,-44,109,58,116,-54,117
108,35,-78,-72,95,-33,-56,109,58,116,-48,129
108,35,-78,-78,95,-33,-62,109,58,122,-36,141
120,41,-78,-90,101,-33,-68,109,58,128,-18,153
132,41,-84,-96,107,-33,-80,109,58,128,-6,165
132,41,-84,-96,107,-33,-86,109,58,134,0,171
138,41,-84,-96,113,-33,-92,109,58,140,11,183
144,47,-90,-102,119,-33,-98,109,58,140,17,189
156,53,-96,-108,125,-33,-104,109,58,146,29,201
162,59,-96,-114,125,-27,-104,109,58,152,35,213
162,65,-96,-120,125,-21,-110,109,58,158,41,219
168,71,-96,-126,125,-21,-116,109,58,158,41,225
174,77,-96,-132,131,-21,-122,109,58,158,47,231
180,89,-96,-144,137,-21,-122,109,58,164,59,243
192,101,-96,-156,143,-15,-122,109,58,170,71,255
198,113,-96,-162,149,-9,-122,109,58,170,77,261
204,119,-96,-162,149,-9,-122,109,58,170,77,267
210,125,-96,-168,155,-9,-122,109,58,170,77,273
216,131,-96,-174,155,-3,-122,109,58,170,77,273
216,131,-96,-174,155,-3,-122,109,58,176,83,279
216,131,-102,-174,155,-3,-128,109,52,176,83,279
216,125,-108,-174,161,-3,-134,103,46,176,83,279
216,119,-114,-174,161,-3,-134,103,40,176,83,279
216,119,-114,-174,161,-3,-134,103,40,176,83,279
222,119,-114,-174,167,-3,-134,97,40,176,83,279
222,119,-114,-174,167,-3,-134,97,40,176,83,279
216,119,-114,-174,167,-3,-134,97,40,176,83,279
210,119,-114,-168,161,-3,-134,97,40,176,83,279
204,119,-114,-162,161,-3,-134,97,40,176,83,279
204,119,-114,-162,161,-3,-134,97,34,170,77,273
204,119,-114,-162,161,-3,-134,97,34,170,71,273
210,125,-114,-168,161,-3,-134,97,34,170,65,273
210,125,-114,-168,161,-3,-134,97,34,170,65,267
204,125,-102,-168,155,2,-128,97,34,164,65,261
192,125,-96,-162,149,2,-122,97,34,158,59,249
180,113,-96,-150,143,2,-116,97,34,152,47,237
174,107,-90,-144,137,2,-110,97,34,146,35,225
174,107,-90,-144,137,2,-110,103,34,140,17,213
168,101,-90,-138,137,2,-104,103,34,128,0,195
156,95,-84,-126,125,2,-98,103,34,122,-24,177
156,95,-78,-126,119,2,-92,103,34,110,-36,159
156,95,-78,-126,119,2,-86,109,34,104,-48,147
150,95,-72,-126,113,2,-68,115,34,98,-60,123
138,95,-66,-120,101,8,-56,121,34,92,-72,111
126,95,-54,-114,95,8,-44,127,34,86,-84,93
102,95,-42,-108,83,14,-26,133,34,80,-96,81
90,89,-30,-96,71,14,-20,139,34,80,-108,63
78,77,-30,-84,65,14,-14,145,34,74,-126,51
72,71,-24,-78,59,14,-8,145,34,68,-138,39
60,59,-18,-60,53,14,-3,151,34,62,-150,27
36,47,-12,-42,41,14,3,151,34,62,-156,15
24,41,-12,-30,29,14,9,151,34,62,-162,9
12,35,-6,-24,23,14,15,157,34,56,-168,-2
0,23,-6,-18,17,14,21,157,34,50,-180,-14
0,17,-6,-18,17,8,27,157,34,44,-192,-26
6,17,-6,-18,17,8,33,157,34,38,-198,-38
6,17,-6,-18,17,8,39,157,34,38,-204,-44
12,17,-6,-18,17,8,45,157,34,38,-210,-50
12,17,-6,-18,17,8,51,157,34,38,-216,-56
0,17,-1,-12,11,8,51,157,34,38,-222,-56
-5,17,-1,-6,5,8,51,157,34,32,-222,-62
-5,17,-1,-6,5,2,51,157,34,26,-228,-68
-5,11,-6,-6,11,-3,51,157,34,20,-234,-74
-5,11,-6,-6,11,-3,51,157,34,14,-240,-80
-5,5,-6,-6,11,-3,51,157,34,14,-246,-86
-5,-1,-6,-6,11,-3,51,157,34,14,-252,-92
-11,-12,-12,-1,11,-9,51,157,34,14,-258,-98
-11,-18,-12,5,11,-9,51,157,34,14,-258,-104
-11,-18,-12,11,11,-9,51,157,34,8,-258,-104
-11,-18,-12,11,11,-9,51,157,34,8,-264,-110
-17,-24,-12,17,11,-15,51,157,34,2,-264,-110
-23,-30,-12,23,11,-21,51,157,34,2,-264,-116
-29,-36,-12,23,11,-21,51,157,34,-3,-270,-122
-29,-42,-12,23,11,-27,51,157,34,-9,-276,-128
-29,-42,-12,23,11,-27,51,157,34,-9,-276,-128
-23,-30,-12,17,11,-21,51,157,34,-9,-276,-128
-17,-18,-12,11,11,-21,57,157,34,-9,-276,-128
-17,-18,-12,11,11,-21,57,157,34,-9,-276,-128
-17,-18,-12,11,11,-21,57,157,34,-9,-276,-128
-17,-18,-12,11,11,-21,57,157,34,-9,-276,-128
-17,-18,-12,11,11,-21,57,157,34,-9,-276,-128
-17,-18,-12,11,11,-21,57,157,34,-9,-276,-128
-17,-18,-12,17,11,-21,57,157,34,-9,-276,-128
-23,-24,-12,23,11,-21,57,157,34,-9,-276,-128
-23,-30,-12,29,11,-21,57,157,34,-9,-276,-128
-29,-36,-12,35,5,-21,57,157,34,-9,-276,-128
-35,-36,-12,41,5,-21,57,157,34,-9,-276,-128
-35,-36,-12,41,5,-21,57,157,34,-9,-276,-128
-35,-36,-12,41,5,-21,57,157,34,-9,-276,-128
-35,-36,-12,41,5,-21,57,157,34,-9,-276,-128
-35,-36,-12,41,5,-21,57,157,34,-9,-276,-128
-35,-30,-12,35,5,-21,57,157,34,-9,-276,-128
-29,-24,-12,29,5,-21,57,157,34,-9,-276,-128
-29,-24,-12,23,5,-21,57,157,34,-9,-276,-128
-29,-24,-12,23,5,-21,57,157,34,-9,-276,-134
-23,-24,-12,23,5,-21,57,157,34,-9,-276,-140
-23,-24,-12,23,5,-21,57,157,34,-9,-276,-140
-23,-24,-12,23,5,-21,57,157,34,-9,-276,-140
-23,-24,-12,23,5,-21,57,157,34,-9,-276,-140
-29,-24,-12,23,0,-21,57,157,34,-9,-276,-140
-29,-30,-12,23,0,-21,57,157,34,-9,-276,-140
-29,-30,-12,23,0,-21,57,157,34,-9,-276,-140
-23,-30,-12,23,0,-21,57,157,34,-9,-276,-140
-23,-30,-12,23,0,-21,57,157,34,-9,-276,-140
-23,-30,-12,23,0,-21,57,157,34,-9,-276,-140
-17,-30,-12,23,5,-21,57,157,40,-9,-270,-140
-17,-24,-12,17,5,-21,57,157,40,-3,-264,-134
-17,-24,-12,17,5,-21,57,157,40,2,-264,-134
-17,-24,-12,17,5,-21,57,157,40,2,-264,-134
-17,-24,-12,17,5,-21,57,151,40,2,-264,-134
-17,-24,-12,17,5,-21,57,151,40,2,-264,-134
-17,-24,-12,17,5,-21,57,151,40,2,-264,-134
-17,-18,-12,17,5,-21,57,151,40,2,-264,-134
-17,-18,-12,17,5,-21,57,151,40,2,-264,-134
-17,-18,-12,17,5,-21,51,151,40,2,-264,-134
-17,-18,-12,17,5,-21,45,145,40,2,-264,-134
-17,-18,-12,17,5,-21,45,145,40,2,-264,-134
-17,-12,-12,17,5,-15,45,145,40,8,-264,-134
-17,-6,-12,17,5,-15,45,145,40,8,-258,-134
-17,-6,-12,17,5,-15,45,145,40,8,-258,-134
-17,-6,-12,17,5,-15,45,145,40,8,-258,-134
-17,-6,-12,17,5,-15,45,145,40,8,-258,-134
-17,-6,-12,17,5,-15,45,145,40,8,-258,-134
-17,-6,-12,17,5,-15,45,145,40,8,-258,-134
-17,-6,-12,17,5,-15,45,145,40,8,-258,-134
-17,-6,-12,17,5,-15,45,139,40,8,-258,-134
-17,-6,-12,17,5,-15,45,139,40,8,-258,-134
-23,-6,-12,17,5,-15,45,139,40,8,-258,-134
-23,-6,-12,17,5,-15,45,139,40,8,-258,-134
-23,-6,-12,17,5,-15,45,139,40,8,-258,-134
-23,-6,-12,17,5,-15,45,139,40,8,-258,-134
-23,-6,-12,17,5,-15,45,139,40,8,-258,-134
-17,-6,-12,17,5,-15,45,139,40,8,-258,-134
-11,-6,-12,17,5,-15,45,139,40,14,-252,-134
-11,-6,-12,17,5,-15,45,139,40,20,-246,-134
-11,-6,-12,17,5,-15,45,139,40,20,-246,-134
-11,-6,-12,17,5,-15,45,139,40,20,-246,-134
-11,-6,-12,17,5,-15,45,139,40,20,-246,-134
-11,-6,-12,17,5,-15,45,139,40,20,-246,-134
-5,-6,-12,17,5,-15,45,139,40,20,-246,-134
-5,-6,-18,17,5,-15,45,139,40,20,-246,-134
-5,-6,-18,17,5,-15,45,139,40,20,-246,-134
-5,-6,-18,17,5,-15,45,139,40,20,-246,-134
-5,-6,-18,17,5,-15,45,139,40,20,-246,-134
-5,-6,-18,17,5,-15,45,139,40,20,-246,-134
-5,-6,-18,17,5,-15,45,139,40,20,-246,-134
-5,-6,-18,17,5,-15,45,139,40,20,-246,-134
-5,-6,-18,17,5,-15,45,139,40,20,-246,-134
-11,-6,-12,17,5,-15,45,139,40,20,-246,-134
-17,-6,-6,17,0,-15,45,139,40,20,-246,-134
-17,-6,-6,17,0,-15,45,139,40,20,-246,-134
-17,-6,-6,17,0,-15,45,139,40,20,-246,-134
-23,-12,-6,23,0,-15,45,139,40,20,-246,-134
-23,-12,-6,23,0,-15,45,139,40,20,-246,-134
-23,-12,-6,23,0,-15,45,139,40,20,-246,-134
-11,-12,-6,17,5,-15,45,139,40,20,-246,-134
0,-12,-6,11,11,-15,45,139,40,20,-246,-134
0,-12,-6,11,11,-15,45,139,40,20,-246,-140
-11,-12,-6,17,5,-15,45,139,40,20,-246,-146
-11,-12,-6,17,5,-15,45,133,40,20,-246,-146
-11,-12,-6,17,5,-15,45,133,40,20,-246,-146
-11,-12,-6,17,5,-15,45,133,40,20,-246,-146
-17,-18,-6,17,0,-15,45,133,40,20,-246,-152
-29,-24,-6,23,-6,-15,39,127,40,20,-246,-158
-35,-30,-6,29,-6,-15,33,127,40,20,-246,-158
-35,-30,-6,29,-6,-15,33,121,40,20,-246,-164
-35,-30,-6,29,-6,-15,33,121,40,20,-246,-164
-29,-30,-6,29,-6,-15,33,121,40,20,-246,-164
-29,-30,-6,29,-6,-15,33,121,40,20,-246,-164
-35,-36,-6,35,-6,-15,33,121,40,20,-246,-164
-35,-36,-6,35,-6,-15,33,121,40,20,-246,-164
-29,-30,-6,29,-6,-15,33,121,40,20,-246,-164
-23,-24,-6,23,0,-15,33,121,40,20,-246,-164
-11,-18,-12,11,5,-15,33,121,34,20,-246,-164
-11,-18,-12,11,5,-15,33,121,34,20,-246,-164
-17,-18,-12,17,0,-15,33,121,34,20,-246,-164
-23,-24,-12,29,-6,-15,33,121,34,20,-246,-170
-29,-30,-12,35,-6,-15,33,115,34,20,-246,-176
-35,-36,-12,41,-6,-15,33,115,34,20,-246,-182
-35,-36,-12,41,-6,-15,33,115,34,20,-246,-182
-23,-30,-12,29,-6,-15,33,115,34,20,-246,-182
-11,-24,-12,17,0,-15,33,115,34,20,-246,-182
-5,-24,-12,11,5,-15,33,115,34,20,-246,-182
-5,-24,-12,11,5,-15,33,115,34,20,-246,-182
-11,-24,-12,17,0,-15,33,115,34,20,-246,-182
-17,-30,-12,23,0,-15,33,115,34,20,-246,-182
-17,-30,-12,29,0,-15,33,115,34,20,-246,-182
-17,-30,-12,29,0,-15,33,109,34,20,-246,-182
-17,-30,-12,29,0,-15,33,109,34,20,-246,-182
-17,-30,-12,29,0,-15,33,109,34,20,-246,-182
-17,-30,-12,29,0,-15,33,109,34,20,-246,-182
-23,-30,-12,29,0,-15,33,109,34,20,-246,-182
-29,-30,-12,29,-6,-15,33,109,34,20,-246,-182
-35,-30,-12,29,-12,-15,33,109,34,20,-246,-182
-35,-30,-12,29,-12,-15,33,109,34,20,-246,-182
-35,-30,-12,29,-12,-15,33,109,34,20,-246,-182
-35,-30,-12,29,-12,-15,33,109,34,20,-246,-182
-29,-30,-12,23,-6,-15,33,109,34,20,-246,-182
-29,-30,-12,23,-6,-15,33,109,34,20,-246,-182
-29,-24,-6,23,-6,-15,33,109,34,20,-246,-182
-29,-24,5,23,-12,-9,33,109,34,20,-240,-182
-35,-24,11,23,-24,-9,33,109,34,20,-240,-182
-35,-24,11,23,-24,-9,33,109,34,20,-240,-182
-29,-18,11,17,-18,-3,33,109,34,20,-240,-182
-29,-12,17,11,-18,2,33,109,34,20,-234,-182
-29,-6,29,11,-24,8,33,109,40,26,-228,-182
-29,-1,35,5,-24,14,33,109,46,26,-222,-182
-29,5,35,5,-24,20,39,109,46,26,-222,-182
-29,5,47,5,-30,26,39,109,46,26,-222,-182
-29,11,53,5,-42,26,39,109,46,26,-222,-182
-29,17,53,5,-42,32,39,109,46,26,-222,-182
-23,23,53,-1,-42,32,39,115,52,26,-222,-182
-23,29,53,-6,-42,38,45,115,52,32,-222,-182
-23,35,53,-12,-42,38,51,115,58,32,-222,-182
-17,41,53,-18,-42,44,57,115,64,32,-216,-176
-11,47,53,-24,-42,44,57,115,70,38,-216,-170
-5,53,53,-30,-36,50,57,115,70,44,-210,-164
0,59,53,-36,-30,50,45,115,70,50,-210,-158
6,65,53,-36,-30,50,33,115,76,56,-204,-152
6,71,53,-36,-30,50,27,115,76,62,-198,-152
6,77,53,-42,-30,50,21,115,82,68,-186,-146
6,83,53,-42,-30,50,15,115,88,74,-174,-140
6,83,53,-42,-30,50,9,115,88,74,-168,-140
6,77,47,-42,-30,50,3,115,88,74,-168,-140
6,71,41,-42,-24,50,-3,115,88,74,-168,-140
6,65,41,-42,-24,50,-8,115,88,74,-168,-140
6,59,41,-36,-24,50,-14,115,88,74,-168,-140
6,59,41,-36,-18,50,-14,115,88,74,-168,-140
6,59,35,-36,-12,50,-14,109,82,74,-168,-140
12,59,29,-36,-6,44,-20,103,76,68,-168,-140
12,53,23,-36,-6,32,-26,91,64,56,-168,-140
12,47,17,-36,-6,26,-26,85,58,50,-174,-140
18,47,11,-36,-6,26,-26,79,52,50,-174,-140
24,47,11,-36,-6,26,-26,79,52,50,-174,-140
24,41,11,-30,-6,26,-26,73,52,44,-174,-140
24,41,11,-30,-6,26,-26,67,46,44,-180,-140
24,35,5,-30,0,20,-26,67,40,38,-186,-140
24,29,-1,-30,5,14,-26,67,34,38,-192,-140
24,23,-1,-24,5,8,-26,67,34,38,-192,-140
18,11,-1,-12,5,2,-26,67,34,38,-192,-140
12,5,-1,-6,5,2,-26,67,28,38,-198,-146
12,5,-6,-6,5,2,-26,61,22,26,-198,-158
12,-1,-12,-6,5,2,-26,55,16,20,-210,-164
6,-12,-12,5,0,-3,-26,49,10,8,-216,-170
-23,-18,-6,17,-12,-3,-26,43,4,2,-222,-176
-23,-18,-6,17,-12,-3,-26,43,4,2,-222,-176
-23,-18,-6,17,-12,-3,-26,43,4,2,-222,-176
-23,-18,-6,17,-12,-3,-26,43,4,2,-222,-176
-29,-18,-1,23,-18,-3,-26,43,4,2,-222,-176
-29,-18,-1,23,-24,-3,-26,43,4,2,-222,-176
-29,-18,-1,23,-24,-3,-26,43,4,-3,-222,-182
-29,-24,-1,23,-24,-9,-26,37,-2,-9,-222,-188
-29,-30,-1,23,-24,-15,-26,31,-7,-9,-222,-200
-29,-30,-1,23,-24,-15,-26,31,-7,-9,-222,-200
-29,-30,-1,23,-24,-15,-26,31,-7,-9,-222,-200
-29,-30,-1,23,-24,-15,-26,31,-7,-15,-222,-200
-35,-30,-1,29,-24,-15,-26,31,-7,-15,-222,-200
-35,-30,-1,29,-24,-15,-26,31,-13,-15,-222,-200
-35,-30,-1,29,-24,-15,-26,31,-13,-15,-222,-200
-35,-36,-1,29,-24,-21,-26,31,-13,-15,-222,-206
-35,-36,-1,35,-24,-21,-26,31,-13,-15,-222,-212
-41,-36,-1,41,-24,-21,-26,31,-19,-15,-222,-212
-41,-36,-1,41,-24,-21,-26,25,-19,-15,-222,-212
-41,-36,-1,41,-24,-21,-26,25,-19,-15,-222,-212
-41,-36,-1,41,-24,-21,-26,25,-19,-21,-222,-212
-35,-36,-6,41,-24,-27,-26,25,-19,-27,-228,-212
-35,-36,-6,41,-24,-27,-26,25,-19,-33,-234,-212
-35,-36,-6,41,-24,-27,-26,25,-19,-33,-234,-212
-41,-36,-1,41,-30,-27,-26,25,-19,-33,-234,-212
-47,-42,-1,47,-30,-27,-26,25,-19,-33,-234,-212
-53,-48,-1,53,-30,-27,-26,25,-19,-33,-234,-212
-59,-48,-1,59,-30,-27,-26,25,-19,-33,-234,-212
-59,-48,-1,59,-30,-27,-14,25,-13,-27,-234,-212
-59,-42,11,59,-36,-15,15,49,10,-15,-234,-218
-65,-30,29,59,-48,-3,57,127,58,2,-234,-224
-77,-30,47,59,-60,2,105,223,130,32,-234,-236
-83,-30,53,59,-66,2,147,325,202,68,-234,-260
-83,-24,59,53,-72,8,189,421,286,110,-234,-272
-83,-6,71,47,-72,20,225,505,364,170,-228,-284
-83,23,83,35,-78,50,255,553,430,248,-192,-284
-83,53,107,23,-84,80,267,607,502,338,-102,-254
-65,77,113,5,-84,92,273,673,580,428,6,-170
12,101,107,-42,-60,92,273,715,634,542,137,-44
108,137,65,-114,17,92,249,745,682,656,305,129
210,179,17,-198,89,92,189,745,712,770,521,351
330,257,-24,-306,167,98,93,721,736,890,761,591
414,347,-30,-390,209,122,-32,553,736,1004,983,837
480,431,-30,-462,239,170,-176,301,706,1058,1169,1059
564,503,-36,-546,287,200,-326,1,526,1058,1271,1215
624,539,-48,-582,335,212,-446,-310,316,1022,1289,1287
624,539,-54,-582,341,218,-506,-544,130,896,1277,1299
588,527,-54,-558,329,218,-536,-700,-2,758,1145,1263
462,491,-18,-474,245,218,-548,-814,-115,626,953,1095
336,449,59,-390,137,230,-554,-928,-235,446,737,909
228,407,125,-318,47,236,-566,-1042,-373,230,473,675
150,359,173,-258,-18,242,-566,-1096,-511,-27,161,405
60,317,209,-186,-78,242,-560,-1132,-673,-345,-204,111
-35,263,245,-114,-144,242,-542,-1156,-775,-585,-492,-140
-95,215,275,-60,-180,242,-512,-1156,-787,-627,-588,-260
-125,179,275,-24,-192,236,-470,-1120,-787,-627,-594,-290
-137,125,263,5,-192,188,-434,-1030,-781,-627,-594,-308
-143,47,185,47,-186,104,-404,-958,-775,-627,-600,-344
-143,-30,113,89,-156,26,-368,-868,-763,-627,-606,-368
-143,-90,59,113,-132,-21,-332,-760,-721,-615,-606,-374
-143,-120,17,119,-102,-57,-302,-664,-661,-573,-594,-374
-131,-126,-12,119,-72,-69,-272,-556,-565,-501,-564,-374
-107,-120,-12,107,-60,-69,-236,-436,-463,-411,-498,-350
-95,-114,-12,95,-54,-69,-200,-340,-367,-327,-444,-326
-83,-96,-12,77,-48,-63,-170,-256,-277,-255,-390,-302
-71,-66,-12,59,-42,-51,-134,-184,-205,-189,-348,-278
-65,-60,-12,53,-42,-39,-104,-136,-163,-147,-318,-266
-65,-54,-12,53,-42,-33,-86,-106,-127,-117,-294,-254
-65,-48,-6,47,-42,-27,-62,-76,-97,-93,-276,-242
-59,-42,-1,41,-36,-21,-50,-58,-85,-81,-270,-230
-53,-36,-1,35,-30,-21,-44,-46,-79,-75,-264,-224
-47,-30,-1,35,-30,-21,-38,-34,-73,-69,-258,-218
-47,-30,5,35,-30,-15,-32,-22,-67,-63,-252,-212
-47,-30,5,35,-30,-15,-32,-10,-61,-63,-252,-212
-47,-30,5,35,-30,-15,-32,-5,-49,-63,-252,-212
-47,-30,5,35,-30,-15,-32,1,-37,-57,-252,-212
-47,-30,5,35,-30,-15,-26,7,-31,-45,-246,-212
-47,-30,5,35,-30,-15,-20,13,-25,-39,-240,-206
-47,-30,5,35,-30,-15,-14,19,-19,-33,-234,-200
-47,-30,5,35,-30,-15,-14,25,-13,-33,-228,-200
-47,-30,5,35,-30,-15,-14,31,-13,-33,-228,-194
-47,-30,5,35,-30,-15,-14,31,-13,-33,-228,-194
-53,-30,11,41,-36,-15,-14,37,-13,-33,-228,-194
-53,-30,17,41,-36,-15,-8,43,-7,-27,-222,-188
-47,-30,17,41,-30,-15,-8,49,-2,-21,-216,-182
-35,-30,11,35,-18,-15,-8,49,-2,-21,-216,-182
-29,-30,5,35,-18,-15,-8,49,-2,-21,-216,-182
-29,-30,5,35,-18,-15,-8,49,-2,-21,-216,-182
-29,-30,5,35,-18,-15,-8,49,-2,-15,-210,-176
-29,-30,5,35,-18,-15,-8,55,-2,-15,-210,-176
-29,-30,5,35,-18,-15,-8,55,-2,-15,-210,-176
-29,-30,5,35,-18,-15,-8,55,-2,-15,-210,-176
-29,-30,5,35,-18,-15,-8,61,-2,-15,-210,-170
-29,-24,11,35,-24,-9,-3,67,4,-9,-204,-164
-29,-24,23,35,-24,2,-3,73,10,-3,-198,-158
-29,-24,23,29,-24,2,-3,73,10,-3,-198,-152
-17,-24,11,17,-12,2,-3,73,10,-3,-198,-152
-17,-24,11,17,-12,2,-3,73,10,-3,-198,-152
-23,-24,17,17,-18,2,-3,73,16,2,-192,-146
-29,-18,17,17,-24,2,-3,73,16,2,-192,-146
-29,-12,17,17,-24,2,-3,73,16,2,-192,-146
-23,-6,17,17,-18,2,-3,73,16,2,-192,-146
-17,-6,17,17,-12,2,-3,73,16,2,-186,-146
-11,-6,17,17,-6,2,-3,73,16,2,-186,-146
-11,-6,17,17,-6,2,-3,73,16,2,-180,-140
-11,-6,17,17,-6,2,-3,73,16,8,-180,-134
-11,-6,17,17,-6,2,-3,73,16,14,-180,-128
-11,-6,17,17,-6,2,-3,73,16,14,-174,-122
-11,-6,17,17,-6,2,-3,73,16,20,-168,-116
-11,-6,17,11,-6,2,-3,73,16,20,-162,-110
-11,-6,17,11,-6,2,-3,73,16,26,-162,-104
-11,-6,17,11,-6,2,-3,73,16,32,-156,-98
-17,-6,17,11,-6,2,-3,73,16,32,-150,-92
-17,-6,17,11,-6,2,-3,73,16,32,-144,-86
-11,-1,11,5,0,2,-3,73,22,38,-132,-80
0,11,11,-6,5,8,-3,73,34,44,-120,-68
6,17,17,-12,5,14,-3,73,40,56,-108,-56
18,23,17,-18,11,14,-3,73,40,56,-108,-50
30,23,5,-24,17,14,-8,73,40,56,-108,-50
36,23,-1,-24,17,14,-14,73,40,56,-102,-50
36,23,-1,-30,17,14,-14,73,40,62,-96,-44
36,23,-1,-30,17,14,-14,73,40,62,-96,-38
30,23,-1,-24,11,14,-14,73,40,68,-90,-32
30,23,-1,-24,5,14,-14,73,46,74,-78,-26
30,29,-1,-24,5,14,-20,73,46,80,-66,-14
42,35,-1,-30,17,14,-20,73,46,80,-60,-2
48,35,-1,-36,23,14,-26,73,52,86,-48,9
48,35,-1,-36,23,14,-32,73,52,92,-36,21
48,35,-1,-36,23,14,-38,73,52,98,-30,33
48,35,-1,-42,23,14,-44,73,52,104,-18,45
54,41,-6,-48,29,14,-44,73,52,110,-12,57
54,47,-6,-54,29,20,-50,73,58,116,0,69
60,53,-6,-60,29,20,-56,73,58,122,6,75
72,53,-6,-60,35,20,-68,73,58,122,11,81
78,59,-6,-60,41,20,-80,73,58,122,23,87
84,65,-6,-66,47,20,-86,73,58,128,35,99
96,65,-12,-72,59,20,-92,73,58,140,47,111
102,65,-24,-78,65,20,-98,67,58,146,59,123
108,71,-30,-90,71,20,-98,67,58,152,71,135
120,77,-36,-102,77,20,-104,67,58,152,83,153
126,83,-42,-108,83,20,-110,67,58,158,89,165
126,89,-42,-108,83,20,-116,67,64,164,95,177
138,89,-48,-114,89,20,-122,67,64,164,101,189
156,95,-54,-126,101,20,-134,61,64,164,107,195
162,95,-54,-126,107,20,-140,55,64,170,119,201
162,95,-54,-126,107,20,-146,55,64,176,131,213
162,101,-54,-126,107,20,-146,55,64,182,143,225
162,113,-54,-132,107,26,-146,55,64,188,155,237
162,113,-54,-132,107,26,-152,55,64,188,161,243
162,113,-54,-138,107,26,-158,55,64,194,167,255
174,125,-54,-150,107,38,-158,55,64,200,179,267
192,149,-54,-174,113,50,-158,55,70,212,191,279
204,155,-54,-180,119,56,-158,55,70,218,197,285
210,155,-54,-180,119,56,-164,49,70,218,203,291
210,155,-54,-180,119,56,-170,43,70,218,203,291
216,155,-54,-180,125,56,-170,37,70,218,203,291
222,161,-54,-186,131,56,-176,31,70,218,209,297
222,167,-54,-192,131,56,-176,31,70,218,215,303
222,167,-54,-192,131,56,-182,25,70,218,215,309
222,167,-54,-192,131,56,-188,19,64,212,215,309
222,167,-54,-192,131,56,-188,13,64,212,215,309
222,167,-54,-192,131,56,-188,13,64,212,215,309
222,167,-54,-198,137,56,-188,13,64,212,215,309
234,173,-60,-204,143,56,-188,13,64,212,215,309
234,173,-60,-204,143,56,-188,13,64,212,215,309
228,173,-54,-198,137,56,-188,13,64,206,215,309
222,173,-48,-192,137,56,-188,13,58,200,209,309
216,173,-48,-186,137,56,-188,13,58,200,203,303
210,173,-42,-186,131,56,-176,13,58,194,191,297
204,173,-36,-186,125,62,-170,13,52,188,179,291
198,173,-30,-180,113,62,-164,13,52,176,161,279
186,167,-30,-174,107,62,-158,13,52,164,149,255
174,161,-24,-174,101,62,-146,13,52,158,131,243
162,155,-18,-162,89,62,-140,13,52,146,113,225
150,143,-18,-150,83,62,-134,19,46,140,95,207
144,137,-18,-144,83,62,-128,19,46,128,77,189
138,131,-18,-138,83,62,-116,25,46,122,65,177
138,131,-18,-132,83,62,-104,31,46,122,53,165
138,131,-18,-132,83,62,-98,37,46,116,41,153
138,125,-18,-132,83,62,-92,37,46,110,29,141
126,119,-12,-126,71,62,-80,43,46,104,23,135
114,113,-12,-114,59,62,-74,43,46,92,11,123
108,107,-12,-108,53,62,-68,43,46,80,-6,99
90,101,-6,-96,41,62,-62,43,46,74,-18,81
78,95,-1,-84,35,62,-56,43,46,68,-30,69
66,89,5,-72,23,62,-44,43,46,62,-48,57
54,83,11,-60,17,62,-32,43,46,56,-60,45
48,77,11,-54,11,62,-26,49,46,56,-66,33
42,71,11,-48,11,56,-20,49,46,56,-78,21
30,65,17,-42,5,56,-14,49,46,56,-84,15
24,59,23,-36,0,56,-8,49,46,50,-90,9
24,59,23,-36,0,56,-3,55,46,44,-96,3
30,59,23,-36,0,56,-3,55,46,38,-102,-2
30,59,23,-36,0,56,-3,55,46,32,-108,-14
30,59,23,-36,0,50,-3,55,40,26,-120,-26
30,53,23,-36,0,44,-3,55,34,20,-132,-32
24,47,23,-30,0,44,-3,55,34,20,-138,-38
18,35,23,-24,0,38,-3,55,34,14,-144,-44
12,29,23,-18,0,38,-3,55,28,8,-150,-50
0,23,23,-12,-6,38,-3,55,28,2,-156,-56
-11,11,23,-6,-12,38,-3,55,28,2,-162,-62
-11,11,23,-6,-12,38,-3,55,28,-3,-162,-62
-11,11,23,-6,-12,38,-3,55,28,-3,-162,-62
-11,11,23,-6,-12,38,3,55,28,-3,-162,-62
-17,11,23,-6,-18,38,3,55,28,-3,-162,-62
-17,11,23,-6,-18,32,3,55,28,-3,-162,-62
-11,11,23,-6,-12,32,3,49,22,-3,-162,-62
-5,11,23,-6,-12,32,3,49,22,-3,-162,-62
-5,11,23,-6,-12,32,9,49,22,-3,-162,-62
-5,11,23,-6,-12,32,15,49,22,-3,-162,-62
-11,5,23,-1,-12,26,15,43,22,-9,-162,-62
-11,-1,17,5,-12,14,15,37,16,-15,-162,-68
-11,-6,11,5,-12,8,15,37,16,-15,-168,-74
-11,-6,5,5,-6,8,15,37,10,-15,-174,-74
-11,-6,-1,5,-6,2,15,37,10,-15,-174,-74
-11,-6,-1,5,-6,2,15,37,10,-15,-174,-74
-11,-6,-1,5,-6,2,15,31,10,-15,-174,-74
-11,-6,-1,5,-6,2,15,31,4,-21,-174,-74
-11,-6,-1,5,-6,2,15,31,4,-21,-174,-74
-5,-6,-1,5,-6,2,15,31,4,-21,-174,-74
-5,-6,-1,5,-6,2,15,31,4,-21,-174,-74
-5,-6,-1,5,-6,2,15,31,4,-21,-174,-74
-5,-6,-1,5,-6,2,15,31,4,-21,-174,-74
-11,-6,-1,5,-6,2,15,31,4,-21,-174,-74
-11,-6,-1,5,-6,2,15,25,-2,-27,-174,-80
-11,-6,-1,5,-6,2,15,25,-2,-27,-174,-80
-11,-6,-1,5,-6,2,15,25,-2,-27,-174,-80
-11,-6,5,5,-12,2,15,25,-2,-27,-174,-80
-11,-6,5,5,-12,2,15,25,-2,-27,-174,-80
-11,-12,-1,5,-6,-3,15,19,-7,-33,-180,-80
-11,-18,-1,11,-6,-3,15,13,-13,-39,-186,-80
-11,-18,-1,11,-6,-3,15,13,-13,-39,-186,-80
6,-18,-6,5,5,-3,15,13,-13,-45,-186,-80
6,-12,-6,-1,5,-3,15,13,-13,-45,-186,-80
6,-6,-1,-1,5,-3,15,13,-13,-45,-186,-80
6,-1,-1,-1,5,-3,15,13,-13,-45,-186,-80
6,-1,-6,-1,5,-3,15,13,-13,-45,-186,-80
6,-1,-6,-1,5,-3,15,13,-13,-45,-186,-80
6,-1,-6,-1,5,-3,15,13,-13,-45,-186,-80
6,-1,-6,-1,5,-3,15,13,-13,-45,-186,-80
6,-1,-6,-1,5,-3,15,13,-13,-45,-186,-80
0,-1,-1,-1,0,-3,15,13,-7,-39,-186,-80
-5,-1,5,5,-6,-3,15,13,-7,-39,-186,-80
-11,-12,5,11,-6,-3,15,13,-7,-39,-186,-86
-11,-18,5,11,-6,-3,15,13,-7,-39,-186,-92
-11,-18,5,11,-6,-3,15,13,-7,-39,-186,-92
-11,-18,5,11,-6,-3,15,13,-7,-39,-186,-92
-11,-18,5,11,-6,-3,15,13,-7,-39,-186,-92
-11,-18,5,11,-6,-3,15,13,-7,-39,-186,-92
-11,-18,5,11,-6,-3,15,13,-7,-39,-186,-92
-5,-12,5,5,0,-3,15,13,-7,-33,-186,-92
6,-6,5,-6,0,-3,15,13,-2,-27,-186,-86
12,-1,5,-6,0,-3,15,19,4,-27,-180,-86
12,-1,5,-6,0,-3,15,19,4,-27,-180,-86
12,-1,-1,-6,0,-3,15,19,4,-27,-180,-86
12,-1,-6,-6,0,-3,15,19,4,-27,-180,-86
12,-1,-6,-6,0,-3,15,19,4,-27,-174,-86
12,-1,-6,-6,0,-3,15,19,4,-21,-174,-86
6,-1,-6,-6,0,-3,15,19,4,-21,-168,-86
6,-1,-6,-6,0,-3,15,19,4,-15,-168,-86
6,-1,-6,-6,0,-3,15,19,4,-15,-168,-86
0,-1,-1,-1,-6,-3,15,19,4,-15,-168,-86
0,-1,-1,-1,-6,-3,15,19,4,-15,-168,-86
0,-1,-1,-1,-6,-3,15,19,4,-15,-168,-86
0,-1,-1,-1,0,-3,15,19,4,-15,-168,-86
0,-1,-1,-1,0,-3,15,19,4,-15,-168,-86
0,-1,-1,-1,0,-3,15,19,4,-15,-168,-86
0,-1,-6,-1,5,-3,15,19,4,-15,-168,-86
6,-1,-12,-1,5,-3,15,19,4,-15,-168,-86
6,-1,-18,-1,5,-3,15,19,4,-15,-168,-86
6,-1,-18,-1,5,-3,15,19,4,-15,-168,-86
12,-1,-18,-1,5,-3,15,19,10,-9,-162,-80
12,-1,-18,-1,5,-3,15,19,10,-9,-162,-80
12,-1,-18,-1,5,-3,15,19,10,-9,-162,-80
12,-6,-18,-1,5,-3,15,19,10,-9,-162,-80
6,-12,-18,5,5,-3,15,19,10,-9,-162,-80
6,-12,-12,5,5,-3,15,19,10,-9,-162,-80
6,-12,-12,5,5,-3,15,19,10,-9,-162,-80
12,-12,-12,5,11,-3,15,19,10,-9,-162,-80
12,-12,-12,5,11,-3,15,13,10,-9,-162,-80
12,-12,-12,5,11,-3,15,13,10,-9,-162,-80
18,-12,-24,5,17,-3,15,13,10,-9,-162,-80
24,-12,-30,5,23,-3,15,13,10,-9,-162,-80
24,-12,-30,5,23,-3,15,13,10,-9,-162,-80
24,-12,-30,5,23,-3,15,13,10,-9,-156,-80
24,-12,-30,5,23,-3,15,13,10,-9,-156,-80
24,-12,-24,5,23,-3,15,13,10,-9,-156,-80
12,-12,-18,5,17,-3,15,13,10,-9,-156,-80
6,-18,-18,11,11,-3,15,13,10,-9,-156,-80
0,-18,-18,17,11,-3,15,13,10,-9,-156,-80
0,-18,-18,17,11,-3,15,13,10,-9,-156,-80
0,-18,-18,17,11,-3,15,13,10,-9,-156,-80
0,-18,-18,17,11,-3,15,13,10,-9,-156,-80
0,-18,-18,17,11,-3,15,7,10,-9,-156,-80
0,-18,-18,17,11,-3,15,7,10,-9,-156,-80
0,-18,-18,17,11,-3,15,1,10,-9,-156,-80
6,-18,-18,17,11,-3,15,1,10,-9,-156,-80
6,-18,-18,17,11,-3,15,1,10,-9,-156,-80
6,-18,-18,11,11,-3,15,1,10,-15,-156,-80
6,-18,-18,11,11,-3,15,-5,10,-21,-156,-80
6,-18,-18,11,11,-3,15,-5,10,-21,-156,-80
6,-18,-18,11,11,-3,15,-5,10,-21,-156,-80
6,-18,-18,11,11,-3,15,-5,10,-21,-156,-80
6,-18,-18,11,11,-3,15,-10,4,-21,-156,-80
0,-24,-18,17,11,-3,15,-16,-2,-21,-156,-80
-5,-30,-18,23,5,-3,15,-22,-2,-21,-156,-80
-11,-30,-18,23,5,-3,15,-22,-2,-21,-156,-80
-11,-30,-18,23,5,-3,15,-22,-2,-21,-156,-80
-11,-30,-18,23,5,-3,15,-22,-2,-21,-156,-80
-11,-30,-18,23,5,-3,15,-22,-2,-27,-156,-80
-11,-30,-18,23,5,-3,15,-22,-2,-27,-156,-80
-11,-30,-18,23,5,-3,15,-22,-2,-27,-156,-80
-11,-30,-18,23,5,-3,15,-22,-2,-27,-156,-80
-5,-30,-24,17,11,-9,15,-28,-2,-33,-156,-80
0,-30,-30,17,11,-9,15,-28,-2,-39,-156,-80
0,-30,-30,17,11,-9,15,-28,-2,-39,-156,-80
0,-30,-30,17,11,-9,15,-28,-2,-39,-156,-80
0,-30,-30,17,11,-15,15,-28,-2,-39,-156,-80
0,-30,-30,17,11,-15,15,-28,-2,-39,-156,-80
6,-30,-30,17,17,-15,15,-28,-2,-39,-156,-80
6,-30,-30,17,17,-15,15,-28,-2,-39,-156,-80
6,-30,-24,17,17,-15,15,-28,-2,-39,-156,-80
6,-30,-18,17,11,-15,15,-28,-2,-39,-156,-80
0,-30,-12,17,5,-15,15,-28,-2,-39,-156,-80
-5,-30,-12,17,5,-15,15,-34,-2,-39,-156,-80
-5,-30,-6,17,5,-15,15,-34,-2,-39,-156,-80
-5,-30,-6,17,5,-15,15,-34,-2,-39,-156,-80
-5,-30,-18,17,11,-15,15,-34,-2,-39,-156,-80
-5,-36,-24,17,11,-21,15,-34,-2,-39,-156,-80
-11,-42,-24,29,5,-21,15,-34,-2,-39,-156,-80
-17,-42,-24,35,0,-21,15,-34,-2,-39,-156,-80
-17,-42,-24,35,0,-21,15,-34,-2,-39,-156,-80
-17,-42,-24,35,0,-21,15,-34,-2,-39,-156,-80
-17,-42,-24,35,0,-21,15,-34,-2,-39,-156,-80
-11,-42,-24,35,5,-21,15,-34,-2,-39,-156,-80
-5,-42,-24,29,5,-21,15,-34,-2,-39,-150,-80
-5,-42,-24,29,5,-21,15,-34,-2,-39,-150,-80
-5,-42,-24,29,5,-21,15,-34,-2,-39,-144,-80
-5,-42,-24,29,5,-21,15,-34,-2,-39,-144,-80
-5,-42,-24,29,5,-21,21,-34,-2,-39,-138,-80
-5,-42,-24,29,5,-21,27,-34,-2,-39,-138,-80
-5,-36,-24,29,5,-21,33,-34,-2,-39,-132,-74
-5,-30,-24,23,5,-21,39,-34,-2,-39,-126,-74
0,-24,-24,17,11,-15,39,-34,-2,-39,-126,-68
6,-18,-24,11,11,-15,39,-34,-2,-39,-120,-68
6,-12,-24,5,11,-9,39,-28,-2,-39,-120,-68
6,-6,-24,5,11,-9,39,-28,-2,-39,-120,-68
6,-1,-24,5,11,-3,39,-28,4,-39,-120,-68
12,5,-24,-1,11,2,45,-28,4,-39,-120,-68
18,11,-24,-6,11,2,51,-28,10,-39,-120,-68
18,11,-18,-6,11,8,63,-22,16,-33,-120,-68
12,17,5,-6,5,14,69,-16,22,-27,-114,-68
6,17,11,-6,0,20,75,-10,22,-21,-114,-68
0,17,17,-6,-6,20,75,-10,22,-21,-108,-68
-11,17,23,-6,-12,26,75,-10,22,-21,-108,-68
-17,17,29,-6,-18,32,81,-5,28,-15,-102,-62
-17,17,29,-6,-18,38,81,-5,28,-15,-102,-62
-17,17,29,-6,-18,38,81,-5,34,-15,-102,-56
-11,23,29,-6,-18,38,75,-5,40,-9,-96,-50
0,35,29,-12,-12,38,69,-5,46,-3,-90,-38
18,41,23,-24,0,38,63,-5,46,2,-84,-32
30,41,23,-30,5,38,51,-5,46,2,-84,-32
36,41,17,-36,11,38,39,-5,46,8,-78,-32
66,47,11,-48,29,38,33,-5,52,14,-72,-26
78,53,-1,-66,41,38,27,-5,52,20,-66,-20
78,53,-6,-66,47,38,21,-5,52,20,-66,-20
78,53,-12,-66,47,38,15,-5,52,20,-66,-20
72,53,-12,-66,47,38,9,-5,52,20,-60,-20
60,53,-12,-54,35,38,9,-5,52,20,-60,-20
54,47,-12,-48,35,32,3,-10,46,20,-60,-20
54,47,-12,-42,35,26,3,-16,40,14,-60,-20
48,47,-12,-36,35,26,3,-22,34,8,-60,-20
36,35,-12,-30,29,26,3,-34,28,2,-66,-20
24,23,-12,-18,23,20,3,-40,22,-3,-66,-20
24,11,-18,-12,23,8,-3,-46,16,-9,-66,-20
30,11,-30,-12,35,2,-3,-52,4,-15,-72,-26
42,11,-36,-12,41,-3,-3,-52,4,-15,-72,-26
48,11,-36,-18,47,-3,-3,-52,4,-15,-72,-26
54,11,-42,-18,53,-9,-3,-52,-2,-15,-78,-26
54,5,-48,-18,53,-15,-8,-58,-7,-21,-84,-32
54,-1,-54,-18,53,-21,-8,-64,-13,-27,-90,-38
54,-6,-54,-18,53,-27,-8,-64,-13,-33,-96,-44
42,-12,-54,-6,53,-27,-8,-64,-13,-33,-96,-44
18,-24,-54,11,41,-27,-8,-64,-19,-39,-102,-50
6,-30,-48,23,29,-27,-8,-64,-25,-39,-102,-50
0,-36,-48,29,29,-27,-8,-70,-31,-45,-108,-56
0,-48,-48,35,29,-27,-8,-76,-31,-51,-114,-62
-5,-60,-48,41,29,-33,-8,-82,-37,-57,-114,-68
-11,-66,-48,41,23,-33,-8,-82,-37,-57,-114,-74
-11,-66,-48,41,23,-33,-8,-82,-37,-57,-114,-74
-11,-66,-48,41,23,-33,-8,-82,-43,-57,-120,-80
-11,-66,-48,41,23,-39,-8,-88,-49,-63,-132,-86
-11,-66,-48,41,23,-45,-8,-94,-55,-69,-132,-86
-11,-60,-42,41,23,-45,-8,-94,-55,-69,-132,-86
-11,-60,-36,41,17,-45,-8,-94,-55,-69,-132,-86
-11,-60,-36,41,17,-45,-8,-94,-55,-69,-132,-86
-11,-60,-36,41,17,-45,-8,-94,-55,-75,-132,-92
-11,-60,-36,41,17,-45,-8,-94,-55,-75,-132,-92
-17,-60,-36,41,11,-45,-8,-94,-55,-75,-132,-98
-23,-60,-36,41,11,-45,-8,-94,-55,-75,-138,-98
-23,-60,-36,41,11,-45,-8,-94,-55,-75,-138,-98
-23,-60,-36,41,11,-45,-8,-94,-55,-75,-138,-98
-23,-60,-36,47,5,-45,-8,-94,-55,-75,-138,-98
-23,-60,-36,47,5,-45,-8,-94,-55,-75,-138,-98
-17,-60,-36,47,11,-45,-8,-94,-55,-81,-144,-98
-17,-60,-42,47,17,-51,-8,-100,-61,-87,-150,-104
-23,-66,-42,53,17,-51,-8,-100,-67,-87,-150,-104
-35,-66,-36,59,11,-51,-3,-100,-67,-87,-150,-104
-41,-66,-36,59,5,-51,3,-100,-67,-87,-150,-104
-41,-66,-36,59,5,-51,3,-100,-67,-87,-150,-104
-41,-66,-36,59,5,-51,3,-100,-67,-87,-150,-104
-41,-66,-36,59,5,-51,3,-100,-67,-87,-150,-104
-41,-72,-36,59,5,-51,3,-100,-67,-87,-150,-104
-41,-72,-36,59,5,-51,9,-100,-67,-87,-150,-104
-41,-72,-30,59,5,-45,21,-88,-55,-81,-150,-104
-47,-66,-6,59,-6,-33,63,-28,-19,-69,-150,-104
-83,-66,29,65,-48,-21,105,61,46,-39,-150,-110
-131,-66,65,77,-84,-9,165,157,124,-3,-150,-116
-137,-66,77,83,-90,-3,213,253,202,44,-144,-128
-137,-60,77,83,-90,2,255,343,280,86,-138,-152
-137,-42,83,77,-90,14,285,415,340,140,-120,-152
-125,-1,95,65,-96,50,303,475,406,218,-66,-146
-89,47,107,23,-96,86,315,553,484,320,23,-104
-47,77,107,-12,-90,98,321,613,544,416,137,-2
24,95,95,-60,-48,104,321,643,598,500,275,135
144,131,29,-144,59,104,279,649,634,620,449,315
288,203,-48,-252,179,104,189,643,664,746,653,531
420,299,-84,-354,263,104,81,535,676,866,887,783
498,395,-96,-438,299,116,-44,313,670,956,1091,999
546,461,-96,-504,323,152,-194,25,580,980,1253,1197
588,491,-96,-540,335,176,-350,-298,376,974,1301,1323
618,509,-108,-558,353,182,-464,-592,166,878,1301,1365
618,509,-114,-558,359,182,-524,-808,-7,734,1247,1365
588,497,-108,-546,347,188,-554,-952,-121,596,1073,1263
480,479,-30,-492,257,206,-560,-1066,-229,452,875,1095
378,461,47,-432,173,236,-572,-1180,-355,278,665,915
258,419,113,-336,77,242,-578,-1252,-475,62,401,693
126,347,155,-234,-6,242,-578,-1300,-631,-219,71,405
12,269,197,-138,-78,242,-566,-1330,-781,-501,-264,123
-53,209,209,-60,-120,230,-524,-1330,-829,-663,-462,-74
-83,143,209,-24,-126,194,-482,-1312,-835,-681,-498,-152
-101,83,197,11,-126,152,-434,-1210,-835,-681,-510,-182
-113,5,155,53,-126,86,-392,-1096,-829,-681,-516,-206
-119,-60,95,77,-120,26,-350,-994,-805,-681,-522,-224
-119,-90,47,89,-96,-15,-290,-886,-757,-663,-522,-236
-113,-108,11,95,-66,-45,-254,-778,-679,-603,-510,-242
-107,-114,-18,95,-42,-57,-224,-670,-589,-531,-474,-242
-95,-114,-30,95,-30,-63,-194,-550,-487,-453,-420,-230
-71,-108,-42,89,-6,-63,-164,-460,-403,-381,-372,-212
-59,-96,-42,77,5,-63,-134,-382,-325,-315,-330,-188
-53,-90,-42,71,5,-63,-110,-310,-259,-261,-282,-176
-53,-84,-42,71,0,-63,-86,-256,-217,-219,-252,-170
-53,-84,-36,71,-6,-57,-56,-208,-187,-183,-234,-158
-53,-78,-30,71,-12,-45,-32,-172,-157,-159,-222,-146
-53,-78,-18,71,-18,-39,-14,-154,-139,-147,-204,-140
-53,-78,-18,71,-18,-39,-3,-142,-127,-135,-198,-134
-53,-78,-18,71,-18,-39,3,-136,-121,-129,-192,-128
-59,-78,-18,71,-18,-39,9,-124,-115,-123,-186,-128
-65,-78,-18,77,-18,-45,15,-118,-109,-123,-186,-128
-71,-84,-18,83,-18,-51,15,-106,-103,-123,-186,-128
-71,-84,-18,83,-18,-51,15,-94,-97,-123,-180,-128
-65,-84,-18,77,-18,-51,21,-82,-85,-117,-174,-128
-53,-78,-18,71,-12,-51,27,-76,-79,-111,-168,-122
-47,-72,-24,65,-6,-51,27,-70,-73,-105,-162,-122
-41,-72,-30,59,-6,-51,27,-64,-73,-99,-156,-122
-41,-72,-30,59,-6,-51,27,-64,-73,-99,-156,-122
-41,-72,-30,59,-6,-51,27,-64,-67,-99,-150,-122
-41,-72,-30,59,-6,-51,27,-58,-67,-93,-150,-122
-41,-72,-30,59,-6,-51,33,-52,-61,-87,-144,-116
-41,-72,-24,59,-6,-51,39,-40,-55,-81,-138,-116
-47,-72,-24,59,-6,-51,39,-34,-55,-75,-138,-110
-53,-72,-24,65,-6,-51,39,-34,-55,-75,-138,-110
-59,-72,-24,71,-12,-51,39,-34,-55,-75,-138,-110
-59,-72,-24,71,-12,-51,39,-34,-55,-75,-132,-110
-59,-72,-24,71,-12,-51,39,-34,-49,-75,-126,-104
-59,-72,-24,71,-12,-51,45,-28,-49,-69,-120,-98
-59,-72,-24,71,-12,-51,45,-22,-49,-69,-120,-98
-65,-72,-24,71,-12,-51,45,-22,-49,-69,-120,-98
-65,-72,-24,71,-12,-51,45,-16,-49,-69,-120,-98
-65,-72,-24,71,-12,-51,45,-16,-49,-63,-114,-98
-65,-72,-24,71,-12,-51,45,-16,-49,-63,-114,-98
-65,-72,-24,71,-12,-51,45,-16,-49,-63,-114,-98
-65,-78,-24,71,-12,-51,45,-16,-49,-63,-114,-98
-65,-84,-30,71,-12,-51,45,-16,-49,-63,-114,-98
-65,-84,-30,77,-12,-51,45,-16,-49,-63,-114,-98
-65,-84,-30,77,-12,-51,45,-16,-49,-63,-114,-98
-65,-84,-30,77,-12,-51,45,-16,-43,-63,-114,-98
-65,-84,-30,77,-12,-51,45,-16,-43,-57,-114,-98
-65,-84,-30,77,-12,-51,45,-16,-43,-51,-114,-92
-65,-90,-30,77,-12,-57,45,-16,-43,-45,-108,-92
-65,-90,-30,77,-12,-57,45,-16,-43,-45,-108,-92
-65,-90,-30,77,-12,-57,45,-16,-43,-45,-102,-86
-71,-90,-30,77,-18,-57,45,-10,-37,-45,-96,-74
-71,-90,-30,77,-24,-57,45,-10,-31,-45,-90,-68
-65,-84,-30,77,-24,-57,45,-10,-25,-39,-84,-62
-47,-78,-30,65,-18,-57,45,-10,-25,-33,-78,-56
-35,-78,-30,59,-12,-57,45,-10,-25,-33,-78,-50
-35,-78,-30,59,-12,-57,45,-10,-25,-33,-78,-50
-35,-78,-30,59,-12,-57,45,-10,-25,-27,-78,-50
-35,-78,-30,59,-12,-57,45,-10,-25,-27,-72,-44
-35,-78,-30,59,-12,-57,45,-10,-25,-27,-72,-38
-35,-78,-30,59,-12,-57,45,-10,-25,-21,-66,-32
-35,-78,-30,59,-12,-51,39,-10,-19,-21,-60,-26
-41,-78,-30,59,-12,-51,39,-10,-19,-15,-54,-20
-53,-78,-24,59,-18,-51,39,-10,-19,-15,-42,-20
-53,-78,-18,59,-24,-51,39,-10,-13,-9,-30,-14
-53,-72,-12,59,-24,-45,33,-5,-7,-3,-18,-2
-53,-66,-12,59,-24,-39,27,-5,-7,2,-12,3
-47,-60,-12,53,-24,-39,21,-5,-7,8,-6,9
-41,-48,-12,41,-24,-33,21,-5,-2,14,0,21
-41,-36,-12,35,-24,-27,21,-5,4,20,6,27
-35,-36,-12,29,-18,-27,15,-5,4,26,11,33
-23,-36,-18,29,-12,-27,9,-5,4,26,17,39
-5,-30,-24,23,-6,-27,3,-5,10,32,29,51
6,-24,-24,17,0,-27,-3,-5,10,38,41,57
12,-24,-24,17,0,-27,-8,-5,10,44,47,63
18,-18,-24,11,0,-21,-14,-5,10,50,59,69
24,-12,-24,-1,11,-21,-20,-5,10,56,65,81
30,-6,-30,-6,23,-21,-26,-5,10,56,71,87
36,-6,-36,-12,29,-21,-32,-5,10,56,77,99
36,-1,-36,-18,29,-21,-38,-5,10,62,89,111
36,5,-36,-24,29,-15,-44,-5,10,68,101,129
36,5,-36,-24,29,-9,-44,-5,10,74,113,141
48,17,-36,-36,35,-9,-50,-5,10,86,125,153
78,29,-36,-48,47,-3,-56,-5,10,92,137,165
102,35,-42,-60,59,-3,-62,-5,16,98,149,171
102,35,-48,-60,71,-3,-74,-5,16,98,155,177
102,35,-48,-60,71,-3,-86,-5,16,104,161,183
102,35,-48,-60,71,-3,-92,-5,16,110,173,195
108,41,-48,-66,71,-3,-98,-5,16,116,185,213
114,53,-48,-78,77,-3,-104,-5,16,122,197,231
120,59,-48,-84,77,2,-110,-5,16,128,209,249
126,65,-48,-90,83,2,-116,-10,16,128,215,255
138,65,-60,-96,95,2,-122,-16,16,128,221,261
156,71,-78,-102,107,2,-128,-22,16,128,221,267
156,71,-84,-108,113,2,-134,-28,16,128,227,273
156,71,-84,-108,113,8,-134,-28,16,134,239,279
156,71,-84,-108,113,14,-134,-28,16,134,251,285
156,71,-84,-108,113,14,-140,-34,16,134,257,291
156,71,-84,-108,113,14,-146,-40,16,134,263,297
156,71,-78,-108,113,14,-146,-40,16,140,269,303
156,71,-72,-108,113,14,-146,-46,16,140,275,315
156,71,-72,-108,113,14,-152,-46,16,140,275,321
156,77,-72,-114,113,14,-152,-46,16,140,275,321
156,89,-72,-114,113,14,-152,-46,16,140,275,327
156,95,-72,-120,113,14,-152,-46,16,140,275,333
156,95,-72,-120,113,14,-158,-46,16,146,275,333
156,95,-72,-120,113,20,-158,-52,16,146,275,333
156,107,-72,-126,113,26,-158,-52,16,146,275,333
162,113,-72,-132,113,26,-158,-52,10,146,275,333
168,113,-72,-138,119,26,-158,-58,4,140,269,327
168,113,-72,-138,119,26,-158,-64,-7,134,263,315
168,113,-72,-138,119,26,-158,-64,-13,128,263,309
168,113,-66,-138,119,26,-158,-64,-13,128,257,309
168,113,-60,-138,119,26,-158,-64,-13,122,251,303
156,113,-60,-132,113,26,-158,-64,-13,116,239,291
138,107,-54,-120,101,26,-152,-64,-13,110,227,273
126,101,-48,-108,89,26,-146,-64,-13,104,209,261
120,95,-48,-102,83,26,-140,-64,-13,98,191,249
114,95,-48,-96,77,26,-134,-58,-13,92,179,237
108,95,-42,-90,71,32,-122,-52,-13,86,167,225
102,95,-30,-84,65,38,-110,-46,-13,80,161,213
96,89,-24,-78,59,38,-98,-40,-13,74,155,201
84,83,-24,-78,59,38,-92,-34,-13,68,137,183
72,71,-18,-72,53,38,-86,-34,-13,62,125,165
54,65,-6,-60,41,38,-74,-28,-13,56,113,153
42,59,-1,-54,35,38,-62,-28,-13,56,101,135
30,53,-1,-48,29,38,-50,-22,-13,50,89,123
24,47,-1,-42,23,38,-44,-16,-13,38,71,105
12,35,-1,-30,11,38,-38,-16,-13,26,47,93
0,23,-1,-12,0,38,-26,-16,-13,20,35,81
-5,17,-1,-6,0,38,-20,-10,-13,14,29,69
-11,17,-1,-1,0,38,-14,-5,-13,8,17,57
-17,11,5,5,-6,38,-8,-5,-13,2,11,45
-29,-1,5,11,-6,26,-3,-5,-13,-9,0,33
-29,-12,5,11,-6,14,-3,-5,-13,-15,-18,9
-29,-18,5,11,-6,8,3,-5,-13,-21,-30,-2
-29,-18,5,11,-6,8,9,-5,-13,-21,-36,-8
-29,-18,5,17,-6,8,9,-5,-13,-21,-42,-14
-41,-30,5,29,-12,2,15,-5,-13,-27,-48,-20
-53,-36,5,53,-24,2,15,-5,-13,-33,-54,-26
-65,-42,5,65,-36,2,15,-5,-13,-33,-60,-32
-65,-42,5,65,-36,2,15,-5,-13,-39,-60,-38
-59,-42,5,65,-36,2,21,-5,-13,-39,-66,-38
-59,-42,5,65,-36,2,21,-5,-13,-39,-66,-44
-65,-48,5,65,-36,2,21,-5,-19,-45,-72,-50
-71,-54,5,65,-36,2,21,-5,-25,-51,-78,-56
-71,-54,5,65,-36,2,21,-5,-25,-57,-84,-62
-65,-48,5,59,-36,2,21,-5,-25,-57,-84,-62
-59,-48,5,59,-30,-3,21,-5,-25,-63,-84,-68
-59,-48,-1,59,-30,-9,21,-5,-31,-69,-90,-74
-59,-54,-12,65,-30,-21,21,-5,-37,-75,-96,-74
-59,-60,-18,65,-30,-27,21,-5,-37,-81,-96,-80
-59,-60,-18,59,-30,-27,27,-5,-37,-81,-96,-80
-59,-54,-12,53,-30,-21,33,-5,-37,-81,-96,-80
-65,-54,-1,53,-30,-21,39,-5,-37,-81,-96,-80
-71,-54,5,53,-36,-21,39,-5,-37,-81,-96,-80
-71,-54,5,53,-36,-21,39,-5,-37,-81,-96,-80
-71,-54,5,53,-36,-21,39,-5,-37,-81,-96,-80
-71,-54,5,53,-36,-21,39,-5,-37,-87,-96,-80
-71,-54,5,53,-36,-21,39,-5,-43,-87,-96,-80
-71,-54,5,53,-36,-21,39,-10,-43,-87,-96,-80
-71,-54,5,53,-36,-21,39,-10,-43,-93,-96,-80
-65,-54,-1,53,-36,-21,39,-16,-43,-99,-96,-80
-65,-54,-6,53,-30,-27,39,-22,-49,-99,-96,-80
-65,-60,-12,53,-30,-33,39,-28,-55,-105,-96,-80
-71,-72,-12,59,-30,-39,39,-28,-61,-105,-96,-80
-71,-72,-12,65,-30,-39,39,-28,-61,-105,-96,-80
-71,-72,-12,65,-30,-39,39,-28,-61,-105,-96,-80
-71,-66,-12,65,-30,-39,39,-28,-61,-105,-96,-80
-71,-66,-6,65,-36,-33,39,-22,-61,-105,-90,-80
-71,-66,-6,65,-36,-33,39,-22,-61,-105,-90,-80
-71,-66,-6,65,-36,-33,39,-22,-61,-105,-90,-80
-71,-66,-6,65,-36,-33,39,-22,-61,-105,-90,-80
-71,-66,-6,65,-36,-33,39,-22,-61,-105,-90,-80
-71,-66,-6,65,-36,-33,39,-22,-61,-105,-90,-80
-71,-66,-6,65,-36,-33,39,-22,-61,-105,-90,-80
-59,-66,-18,65,-24,-39,39,-22,-61,-105,-90,-80
-53,-66,-30,65,-12,-45,39,-22,-61,-105,-90,-80
-53,-66,-30,65,-12,-45,39,-22,-61,-105,-90,-80
-53,-66,-30,65,-12,-45,39,-22,-61,-105,-90,-80
-53,-66,-30,65,-12,-45,39,-22,-61,-105,-90,-80
-53,-66,-30,65,-12,-45,39,-22,-61,-105,-90,-80
-53,-66,-30,65,-12,-45,39,-22,-61,-105,-90,-80
-53,-66,-30,65,-12,-45,39,-22,-61,-105,-90,-80
-53,-66,-30,65,-12,-45,39,-22,-61,-105,-90,-80
-53,-66,-30,65,-18,-45,39,-22,-61,-105,-90,-80
-59,-66,-30,65,-18,-45,39,-22,-61,-105,-90,-80
-59,-66,-30,65,-18,-45,39,-22,-61,-105,-90,-80
-59,-66,-30,65,-18,-45,39,-22,-61,-105,-90,-80
-59,-66,-30,65,-18,-45,39,-22,-61,-105,-90,-80
-59,-66,-30,65,-18,-45,39,-22,-55,-105,-90,-80
-59,-66,-30,65,-18,-45,39,-22,-55,-105,-90,-80
-59,-66,-30,59,-18,-45,39,-22,-49,-105,-90,-80
-59,-66,-30,59,-18,-45,39,-22,-49,-105,-90,-80
-59,-66,-30,59,-18,-45,39,-22,-43,-105,-90,-80
-59,-66,-30,59,-18,-45,39,-22,-37,-99,-84,-80
-59,-60,-30,59,-18,-45,39,-16,-37,-99,-84,-80
-53,-60,-30,59,-18,-45,39,-16,-37,-99,-84,-80
-53,-60,-30,59,-18,-45,39,-16,-37,-99,-84,-80
-53,-60,-30,59,-18,-45,39,-16,-37,-99,-78,-80
-53,-60,-30,59,-18,-45,39,-16,-37,-93,-78,-80
-53,-60,-30,59,-18,-45,39,-16,-37,-87,-78,-80
-53,-60,-30,53,-18,-45,39,-16,-37,-87,-78,-80
-53,-60,-30,53,-18,-45,39,-16,-37,-87,-78,-80
-53,-54,-30,53,-18,-39,39,-10,-31,-81,-72,-80
-53,-54,-24,53,-18,-39,39,-10,-25,-75,-72,-80
-53,-54,-18,53,-18,-39,39,-10,-25,-75,-66,-80
-53,-54,-18,53,-18,-39,39,-10,-25,-75,-66,-80
-53,-54,-18,53,-18,-39,39,-10,-25,-75,-66,-80
-53,-54,-18,53,-18,-39,39,-10,-19,-75,-66,-80
-53,-54,-18,53,-24,-39,39,-10,-19,-75,-66,-80
-53,-54,-18,53,-24,-39,39,-10,-19,-75,-66,-80
-53,-54,-18,53,-24,-39,39,-10,-19,-75,-66,-80
-53,-54,-18,53,-24,-39,39,-5,-19,-75,-66,-80
-53,-54,-18,47,-24,-39,39,1,-19,-69,-60,-74
-53,-54,-18,47,-24,-39,39,1,-19,-69,-60,-74
-53,-54,-18,47,-24,-39,39,1,-19,-69,-60,-74
-47,-54,-18,47,-24,-39,39,1,-19,-69,-60,-74
-47,-54,-18,47,-24,-39,39,1,-13,-69,-54,-74
-47,-54,-18,47,-24,-39,39,1,-7,-69,-54,-74
-41,-54,-18,41,-24,-39,39,1,-7,-69,-54,-74
-41,-54,-18,41,-24,-39,39,1,-7,-69,-54,-74
-41,-54,-18,41,-24,-39,39,1,-7,-69,-54,-74
-41,-54,-18,41,-24,-39,39,1,-7,-69,-54,-74
-41,-54,-18,41,-24,-39,39,1,-7,-69,-54,-74
-41,-54,-18,41,-24,-39,39,1,-7,-69,-54,-74
-41,-54,-18,41,-24,-39,39,1,-7,-69,-54,-74
-41,-54,-18,41,-24,-39,39,1,-7,-69,-48,-74
-41,-54,-18,41,-24,-39,39,1,-7,-69,-48,-74
-47,-54,-12,41,-30,-39,39,1,-7,-69,-48,-74
-53,-54,-12,47,-36,-39,39,1,-7,-69,-48,-74
-53,-54,-12,47,-36,-39,39,1,-7,-69,-48,-74
-53,-54,-12,47,-36,-39,39,1,-7,-69,-48,-74
-53,-54,-12,47,-36,-39,39,1,-7,-69,-48,-74
-47,-54,-12,47,-30,-39,39,1,-7,-69,-48,-74
-47,-54,-12,47,-30,-39,39,1,-7,-69,-48,-74
-47,-54,-12,47,-30,-39,39,1,-7,-69,-48,-74
-47,-54,-12,47,-30,-39,39,1,-7,-69,-48,-74
-47,-54,-12,47,-30,-39,39,1,-7,-69,-48,-74
-47,-54,-12,47,-30,-39,39,1,-7,-69,-48,-74
-47,-54,-12,47,-30,-39,39,1,-7,-69,-48,-74
-41,-54,-12,47,-30,-39,39,1,-7,-69,-48,-74
-41,-54,-12,47,-30,-39,39,1,-13,-75,-48,-74
-41,-54,-12,47,-30,-39,39,1,-13,-75,-48,-74
-41,-54,-12,47,-30,-39,39,1,-13,-75,-48,-74
-41,-54,-12,47,-30,-39,39,1,-13,-75,-48,-74
-41,-54,-12,47,-30,-39,39,1,-19,-75,-48,-74
-41,-54,-12,47,-30,-39,39,1,-19,-81,-48,-74
-41,-54,-12,47,-30,-39,39,1,-19,-81,-48,-74
-41,-54,-12,47,-30,-39,39,1,-19,-81,-48,-74
-41,-54,-12,47,-30,-39,39,1,-19,-81,-48,-74
-41,-54,-12,47,-30,-39,39,1,-19,-81,-48,-74
-41,-48,-12,41,-30,-33,39,1,-19,-81,-48,-68
-41,-42,-12,35,-30,-33,39,1,-19,-81,-48,-68
-41,-42,-12,35,-30,-33,39,1,-19,-81,-48,-68
-41,-42,-12,35,-30,-33,39,1,-19,-81,-48,-68
-41,-42,-12,35,-30,-33,39,1,-19,-81,-48,-68
-41,-42,-12,35,-30,-33,39,1,-19,-81,-48,-68
-41,-42,-12,35,-30,-33,39,1,-19,-81,-48,-68
-41,-42,-12,35,-30,-33,39,1,-19,-81,-48,-68
-41,-42,-12,35,-30,-33,39,1,-19,-81,-48,-68
-41,-42,-12,35,-30,-33,39,1,-19,-81,-48,-68
-41,-42,-12,35,-30,-33,39,1,-19,-81,-48,-68
-41,-42,-18,35,-30,-33,39,1,-19,-81,-48,-68
-41,-42,-18,35,-30,-33,39,1,-19,-81,-48,-68
-41,-42,-18,35,-30,-33,39,1,-19,-81,-48,-68
-41,-42,-18,35,-30,-33,39,1,-19,-81,-48,-68
-41,-42,-18,35,-30,-33,39,1,-25,-81,-48,-68
-41,-48,-18,35,-30,-33,39,1,-25,-81,-48,-68
-35,-48,-24,35,-24,-39,39,-5,-25,-87,-48,-68
-35,-48,-30,35,-18,-45,39,-5,-25,-87,-48,-68
-35,-48,-30,41,-18,-45,39,-5,-25,-87,-48,-68
-35,-48,-30,41,-18,-45,39,-5,-25,-87,-48,-68
-47,-48,-24,41,-24,-39,39,-5,-25,-87,-48,-68
-59,-48,-18,41,-36,-39,39,-5,-25,-87,-48,-68
-59,-48,-12,41,-36,-39,39,-5,-25,-87,-48,-68
-59,-48,-12,41,-36,-39,39,-5,-25,-87,-48,-68
-59,-48,-12,41,-36,-33,39,-5,-25,-87,-42,-62
-59,-48,-12,41,-36,-33,39,-5,-25,-87,-42,-62
-59,-48,-12,41,-36,-33,39,-5,-25,-87,-42,-62
-59,-48,-12,41,-36,-33,39,-5,-25,-87,-42,-62
-53,-48,-12,41,-36,-33,39,-5,-25,-87,-42,-62
-47,-48,-12,41,-36,-33,39,-5,-25,-87,-42,-62
-41,-48,-12,41,-36,-33,39,-5,-25,-87,-42,-62
-41,-48,-12,41,-36,-33,39,-5,-25,-87,-42,-62
-41,-48,-12,41,-36,-33,39,-5,-25,-87,-42,-62
-41,-48,-12,41,-36,-33,39,-5,-25,-87,-42,-62
-41,-48,-12,41,-36,-33,39,-5,-25,-87,-42,-62
-47,-48,-12,41,-36,-33,39,-5,-25,-87,-42,-62
-47,-48,-12,41,-36,-33,39,-5,-25,-87,-42,-62
-47,-48,-6,41,-36,-33,39,-5,-25,-87,-42,-62
-47,-48,-6,41,-36,-33,39,-5,-25,-87,-42,-62
-47,-48,-6,41,-36,-33,39,-5,-25,-87,-42,-62
-47,-48,-6,41,-36,-33,39,-5,-25,-87,-42,-62
-47,-42,-6,35,-36,-33,39,-5,-25,-87,-42,-62
-47,-42,-6,35,-36,-33,39,-5,-25,-87,-42,-62
-47,-36,-6,35,-36,-33,39,-5,-25,-87,-42,-62
-41,-30,-6,29,-36,-27,39,-5,-25,-87,-42,-62
-41,-18,5,23,-36,-15,45,1,-25,-87,-36,-56
-41,-6,17,17,-36,-9,51,1,-19,-81,-30,-50
-41,-1,29,17,-42,-3,57,7,-13,-75,-24,-44
-41,-1,35,17,-42,2,57,7,-7,-75,-24,-44
-41,-1,35,17,-42,2,57,7,-7,-75,-24,-44
-41,-1,35,17,-42,2,57,7,-7,-75,-24,-44
-41,-1,35,17,-48,8,63,13,-7,-75,-18,-44
-41,-1,41,17,-54,14,69,19,-7,-75,-18,-44
-41,-1,47,17,-54,14,75,25,-7,-75,-18,-44
-41,-1,47,11,-54,14,81,31,-2,-75,-12,-44
-35,-1,41,5,-48,14,81,31,-2,-75,-12,-44
-29,-1,29,5,-42,14,81,31,-2,-75,-12,-44
-23,5,29,-1,-36,14,81,31,-2,-75,-12,-44
-23,17,29,-6,-36,20,81,37,4,-63,-6,-38
-23,23,35,-6,-42,26,81,43,10,-51,6,-26
-23,29,35,-12,-42,26,75,43,16,-39,17,-20
-17,35,35,-18,-42,26,63,43,22,-33,23,-14
-5,41,35,-24,-36,26,51,43,22,-27,29,-8
0,41,35,-30,-36,26,39,43,22,-27,35,-2
0,41,35,-30,-36,26,33,43,22,-21,35,-2
0,41,35,-30,-36,26,27,43,22,-21,41,-2
0,41,35,-30,-36,26,27,43,28,-21,47,3
0,41,35,-30,-36,26,21,43,28,-21,47,3
0,41,35,-30,-36,26,15,37,28,-21,47,3
0,41,35,-30,-36,26,9,37,28,-21,47,3
-11,35,35,-18,-36,26,9,31,28,-21,41,3
-11,29,35,-12,-36,26,9,25,28,-27,35,-2
-11,23,29,-12,-36,20,3,13,22,-33,29,-2
-11,23,17,-12,-30,14,-3,1,10,-39,23,-8
-5,23,5,-12,-24,14,-3,-5,-2,-45,23,-14
0,23,-1,-12,-18,14,-3,-10,-7,-45,17,-14
6,23,-6,-12,-12,8,-3,-16,-13,-45,17,-14
6,17,-6,-12,-12,8,-3,-16,-13,-45,17,-14
12,17,-6,-12,-12,8,-3,-16,-13,-51,17,-14
24,17,-12,-18,0,8,-3,-16,-13,-51,11,-14
30,17,-12,-18,5,8,-3,-16,-13,-57,11,-14
24,11,-12,-12,5,8,-3,-16,-13,-57,11,-14
-5,-1,-12,-1,0,2,-3,-16,-19,-57,11,-20
-17,-12,-12,11,-12,-3,-3,-16,-19,-57,11,-20
-23,-12,-12,11,-12,-3,-3,-16,-19,-57,11,-20
-23,-12,-12,11,-12,-3,-3,-16,-19,-63,11,-26
-29,-24,-12,17,-12,-15,-8,-22,-31,-69,0,-32
-35,-54,-18,35,-12,-39,-14,-34,-43,-81,-12,-44
-47,-72,-18,59,-18,-51,-14,-40,-55,-87,-24,-56
-53,-72,-18,59,-30,-51,-14,-40,-55,-87,-24,-62
-53,-66,-18,59,-30,-45,-8,-40,-55,-87,-24,-62
-53,-66,-18,53,-30,-45,-3,-40,-55,-87,-24,-62
-53,-66,-18,53,-30,-45,-3,-46,-55,-87,-30,-68
-53,-66,-24,53,-30,-45,-3,-52,-61,-93,-30,-74
-53,-66,-24,53,-30,-45,-3,-52,-61,-99,-30,-74
-53,-66,-24,53,-30,-45,-3,-52,-61,-99,-30,-74
-53,-66,-18,53,-36,-45,-3,-52,-61,-99,-30,-74
-59,-66,-12,59,-42,-45,-3,-52,-61,-99,-30,-74
-65,-72,-12,65,-42,-45,-3,-52,-61,-105,-30,-74
-65,-72,-12,65,-42,-45,-3,-52,-61,-111,-30,-74
-59,-72,-18,65,-36,-45,-3,-52,-61,-111,-36,-80
-59,-78,-18,65,-36,-45,-3,-52,-61,-111,-36,-86
-71,-90,-18,71,-36,-51,-3,-52,-61,-111,-42,-86
-77,-90,-18,71,-36,-51,-3,-52,-61,-111,-42,-86
-77,-84,-18,71,-36,-51,3,-52,-61,-111,-42,-86
-77,-78,-18,71,-36,-51,3,-52,-61,-111,-42,-86
-77,-78,-12,71,-36,-51,3,-52,-61,-111,-42,-86
-77,-78,-12,71,-36,-51,3,-52,-61,-111,-42,-86
-77,-78,-12,71,-36,-51,9,-52,-61,-111,-42,-86
-77,-78,-12,71,-36,-51,9,-52,-61,-111,-42,-86
-77,-78,-12,71,-36,-51,9,-52,-61,-111,-42,-86
-77,-78,-12,71,-36,-51,9,-52,-61,-111,-42,-86
-77,-84,-12,77,-36,-51,9,-52,-61,-111,-42,-86
-77,-84,-12,77,-36,-51,9,-52,-61,-111,-42,-86
-77,-84,-12,77,-36,-51,9,-52,-61,-111,-42,-86
-83,-84,-12,77,-42,-51,15,-46,-55,-111,-42,-86
-95,-84,5,77,-54,-45,45,-10,-31,-105,-42,-92
-101,-78,23,77,-66,-33,93,67,22,-75,-42,-98
-101,-72,35,77,-72,-27,147,169,100,-39,-42,-110
-101,-66,47,77,-78,-21,207,289,178,8,-36,-116
-113,-60,65,77,-90,-9,255,391,262,62,-30,-128
-125,-54,95,77,-120,14,291,457,328,122,0,-128
-125,-18,113,71,-132,44,309,523,400,188,47,-122
-119,23,125,41,-132,74,321,583,454,266,137,-74
-65,65,125,-12,-120,86,327,643,514,362,233,15
24,89,89,-60,-60,86,321,673,562,446,353,135
132,119,35,-126,35,86,285,679,592,560,521,297
240,167,-24,-210,119,86,201,673,622,674,719,507
348,239,-66,-300,191,86,87,589,634,782,923,729
426,323,-72,-372,227,98,-32,403,634,884,1127,951
492,413,-72,-450,257,134,-176,133,592,926,1289,1155
558,449,-78,-516,299,158,-314,-184,418,926,1343,1281
594,467,-102,-540,335,158,-452,-490,202,842,1349,1323
594,467,-114,-540,341,158,-530,-718,40,692,1295,1323
576,461,-114,-534,329,158,-542,-856,-79,548,1127,1221
474,449,-60,-480,251,170,-548,-970,-175,416,941,1065
348,437,35,-402,155,194,-554,-1078,-283,260,749,897
228,395,101,-312,53,206,-554,-1156,-415,62,509,669
108,317,155,-216,-42,212,-554,-1204,-559,-201,203,411
-17,251,209,-120,-120,212,-536,-1234,-703,-465,-108,141
-113,179,239,-48,-180,212,-488,-1240,-757,-621,-300,-50
-161,107,245,11,-204,200,-446,-1228,-763,-639,-342,-116
-179,65,233,47,-204,158,-416,-1156,-763,-639,-354,-146
-179,5,179,65,-198,98,-380,-1060,-763,-639,-360,-176
-179,-54,107,95,-168,20,-344,-976,-757,-639,-366,-200
-179,-108,53,107,-138,-33,-302,-880,-727,-633,-366,-212
-161,-132,-6,113,-102,-69,-266,-772,-679,-615,-366,-218
-131,-138,-36,113,-60,-93,-248,-664,-595,-567,-348,-218
-113,-138,-48,113,-42,-99,-218,-556,-505,-489,-306,-212
-101,-132,-48,107,-36,-99,-176,-436,-403,-399,-234,-194
-89,-114,-48,95,-36,-87,-134,-346,-307,-315,-186,-170
-83,-96,-36,89,-36,-75,-98,-256,-241,-255,-138,-146
-83,-90,-24,89,-36,-63,-68,-202,-193,-213,-108,-134
-89,-84,-12,89,-42,-51,-38,-160,-163,-177,-84,-116
-89,-78,-6,83,-48,-45,-26,-130,-133,-159,-66,-104
-89,-72,-1,77,-48,-45,-14,-118,-121,-147,-60,-98
-89,-72,-1,77,-48,-45,-3,-112,-115,-141,-54,-98
-89,-72,-1,77,-48,-45,3,-106,-115,-141,-54,-98
-89,-72,-1,77,-48,-45,9,-100,-109,-135,-54,-98
-89,-78,-1,77,-48,-45,9,-88,-109,-135,-54,-98
-89,-78,-6,77,-48,-45,15,-76,-97,-129,-48,-98
-89,-78,-6,77,-48,-45,21,-64,-91,-123,-48,-98
-89,-78,-6,77,-48,-45,21,-58,-85,-117,-48,-98
-89,-78,-6,77,-48,-45,21,-52,-79,-111,-42,-98
-95,-78,-6,77,-48,-45,21,-46,-73,-111,-42,-98
-101,-78,-6,83,-54,-45,21,-40,-67,-105,-42,-92
-101,-78,-1,83,-60,-45,21,-40,-67,-105,-42,-92
-101,-78,-1,83,-60,-45,21,-34,-67,-105,-36,-92
-101,-78,-1,83,-60,-45,27,-28,-61,-99,-30,-86
-101,-78,-1,83,-60,-45,27,-28,-61,-93,-30,-80
-101,-78,-1,83,-60,-45,27,-28,-61,-93,-30,-80
-101,-78,-1,83,-60,-45,27,-22,-61,-93,-24,-80
-101,-78,-1,83,-60,-45,27,-16,-55,-87,-24,-80
-89,-72,-1,71,-54,-45,33,-10,-49,-87,-18,-80
-77,-66,-1,59,-48,-39,39,-5,-43,-81,-18,-80
-71,-60,-1,53,-42,-39,39,-5,-43,-81,-18,-74
-71,-60,-1,53,-42,-39,39,-5,-43,-81,-18,-74
-77,-60,-1,59,-42,-39,39,-5,-43,-81,-18,-74
-83,-60,5,59,-48,-33,39,-5,-43,-75,-12,-68
-83,-60,5,65,-54,-33,39,1,-43,-75,-6,-62
-83,-60,5,65,-54,-33,39,1,-43,-75,-6,-62
-83,-60,5,71,-54,-33,39,1,-43,-75,-6,-62
-83,-60,5,71,-54,-33,39,1,-43,-75,-6,-62
-83,-60,5,71,-54,-33,39,1,-43,-75,-6,-62
-83,-60,5,71,-54,-33,39,1,-43,-75,-6,-62
-83,-60,5,71,-54,-33,39,1,-43,-75,-6,-62
-83,-60,5,71,-54,-33,39,1,-43,-75,-6,-62
-83,-60,5,71,-54,-33,39,1,-43,-69,0,-62
-83,-54,11,65,-54,-27,39,7,-37,-63,6,-56
-83,-48,11,65,-54,-27,39,13,-31,-57,11,-50
-77,-42,11,59,-48,-27,39,13,-31,-51,11,-50
-65,-42,11,53,-42,-27,39,13,-31,-51,11,-44
-65,-42,11,53,-42,-27,39,13,-25,-51,17,-38
-71,-42,11,53,-48,-27,39,13,-19,-51,23,-32
-71,-42,11,53,-48,-27,39,13,-19,-51,23,-26
-71,-42,11,53,-48,-27,39,13,-19,-45,23,-26
-77,-42,17,53,-48,-27,39,13,-19,-39,29,-20
-77,-42,17,53,-48,-27,39,13,-19,-33,35,-14
-71,-42,17,53,-48,-27,39,13,-19,-33,35,-14
-71,-42,17,53,-48,-27,39,13,-19,-33,41,-8
-71,-42,23,53,-48,-27,39,13,-19,-33,47,-8
-71,-42,23,53,-48,-27,39,13,-19,-33,47,-2
-71,-42,23,53,-48,-27,39,13,-19,-27,53,3
-71,-42,23,53,-48,-27,39,13,-19,-27,53,3
-71,-42,17,53,-48,-27,33,13,-19,-27,59,3
-71,-42,17,53,-48,-27,33,13,-13,-15,65,9
-71,-42,17,53,-48,-27,33,13,-13,-9,71,15
-71,-42,11,53,-42,-27,21,13,-13,-9,77,15
-71,-42,5,53,-36,-33,15,13,-13,-9,77,21
-65,-42,5,53,-30,-33,9,13,-13,-9,83,27
-59,-42,5,47,-30,-33,9,13,-13,-3,95,39
-41,-36,5,35,-24,-33,9,13,-7,2,107,51
-35,-30,5,29,-24,-27,9,13,-2,8,113,63
-35,-30,5,29,-24,-27,3,13,-2,8,119,69
-35,-30,5,29,-24,-27,-3,13,-2,14,125,75
-29,-30,5,23,-18,-27,-8,13,-2,20,131,81
-17,-24,5,11,-12,-21,-14,13,4,32,143,87
0,-12,5,-1,0,-15,-14,13,10,38,155,99
12,-6,5,-12,5,-15,-20,13,10,44,167,105
18,-6,-1,-12,11,-15,-32,7,10,44,173,111
18,-6,-1,-12,11,-15,-38,1,10,50,179,123
24,-1,-1,-24,11,-15,-44,1,10,56,191,135
30,11,-1,-30,11,-9,-50,1,16,68,203,147
36,17,-1,-36,17,-9,-56,1,16,74,215,159
42,17,-6,-42,23,-9,-62,1,16,80,221,171
48,23,-6,-48,23,-9,-68,1,16,86,233,183
60,23,-12,-54,35,-9,-74,-5,16,86,239,189
66,23,-18,-54,41,-9,-86,-10,16,86,239,195
66,23,-18,-54,41,-9,-92,-16,16,86,245,201
66,23,-18,-54,41,-9,-98,-22,16,86,251,207
72,29,-24,-60,47,-9,-104,-28,16,92,257,213
78,35,-30,-66,53,-9,-110,-28,16,98,269,231
84,35,-30,-66,59,-9,-116,-34,16,104,275,243
84,41,-36,-72,59,-3,-122,-40,16,110,287,249
96,53,-36,-84,59,8,-122,-40,16,116,299,261
102,59,-36,-90,59,14,-122,-40,16,122,311,273
102,59,-36,-90,59,14,-128,-46,16,122,317,285
108,65,-36,-96,65,14,-134,-46,16,122,323,291
114,77,-36,-102,71,14,-134,-52,16,122,329,297
114,83,-36,-102,71,20,-140,-52,16,122,335,303
114,83,-36,-102,71,20,-146,-52,16,122,341,309
114,83,-36,-102,71,20,-146,-58,16,122,341,315
126,83,-42,-108,77,20,-152,-64,16,122,341,315
138,83,-54,-114,89,20,-158,-70,16,122,341,315
138,83,-54,-120,89,20,-164,-76,16,122,347,321
138,83,-54,-120,89,20,-164,-76,16,122,347,327
144,89,-54,-120,95,20,-164,-82,10,122,347,327
144,95,-54,-120,95,20,-164,-82,10,122,347,327
144,95,-54,-120,95,20,-164,-82,10,122,347,327
144,95,-54,-120,95,20,-164,-82,10,122,347,327
150,101,-54,-120,95,20,-164,-88,4,122,347,327
150,101,-54,-120,95,20,-164,-88,-2,122,347,327
150,101,-54,-120,95,20,-164,-88,-7,122,347,327
144,101,-54,-120,95,20,-164,-88,-7,116,347,327
138,95,-54,-120,89,20,-164,-88,-7,116,341,327
132,95,-54,-120,89,20,-164,-88,-7,110,335,321
132,89,-54,-120,89,20,-164,-88,-13,98,323,303
132,89,-54,-114,89,20,-164,-88,-19,86,311,291
126,89,-42,-114,83,20,-158,-88,-19,80,305,279
126,89,-36,-114,77,20,-146,-88,-19,74,299,267
126,89,-30,-114,77,20,-134,-82,-19,74,293,261
120,89,-18,-114,71,26,-116,-76,-19,74,287,255
96,89,-6,-108,59,32,-104,-70,-19,74,281,249
72,83,-1,-96,41,32,-98,-64,-19,68,269,237
60,77,-1,-84,29,32,-92,-64,-19,62,251,225
48,71,-1,-72,23,32,-86,-64,-19,56,221,201
42,65,-1,-66,23,32,-80,-58,-19,50,209,177
36,59,-1,-60,23,32,-74,-58,-19,44,197,153
30,53,-1,-54,17,32,-68,-52,-19,32,185,135
24,53,5,-48,11,32,-56,-46,-19,26,173,123
6,47,17,-30,-6,32,-50,-40,-19,20,161,111
-29,23,29,-1,-30,32,-44,-40,-19,14,155,99
-41,17,29,17,-36,32,-38,-34,-19,8,143,93
-41,17,29,17,-36,32,-32,-28,-13,2,137,87
-47,17,35,17,-42,32,-26,-22,-13,-3,131,81
-53,11,35,23,-42,32,-20,-22,-13,-9,119,69
-53,5,35,23,-42,26,-14,-22,-13,-15,107,57
-53,5,35,23,-42,26,-3,-16,-13,-15,101,51
-53,5,35,23,-42,26,9,-16,-13,-15,95,45
-53,-1,35,23,-42,20,9,-16,-13,-15,83,33
-47,-6,35,23,-42,14,9,-16,-13,-21,77,21
-47,-12,35,29,-42,8,15,-16,-13,-27,71,15
-53,-18,35,41,-48,8,21,-16,-13,-27,71,9
-59,-18,35,47,-48,8,21,-16,-13,-27,65,3
-59,-24,35,47,-48,2,21,-16,-13,-33,59,-2
-65,-30,35,47,-48,2,21,-16,-19,-33,53,-8
-71,-36,35,47,-48,2,21,-16,-25,-39,47,-14
-71,-36,35,47,-48,2,21,-16,-25,-45,41,-20
-77,-36,35,47,-54,2,21,-16,-25,-45,41,-26
-77,-36,35,53,-60,2,21,-16,-31,-45,41,-26
-77,-42,35,59,-60,2,21,-16,-37,-51,41,-26
-77,-48,35,65,-60,-3,21,-22,-43,-51,35,-32
-77,-48,29,65,-60,-9,21,-22,-43,-57,29,-32
-77,-48,29,65,-60,-9,21,-22,-43,-57,29,-32
-77,-48,29,59,-60,-9,27,-22,-43,-57,29,-32
-77,-48,29,59,-54,-9,27,-22,-43,-57,29,-32
-77,-48,29,59,-54,-9,27,-22,-43,-57,29,-32
-77,-48,29,59,-54,-9,27,-22,-43,-57,29,-32
-77,-48,29,59,-54,-9,27,-28,-49,-57,29,-32
-77,-48,29,59,-54,-9,27,-34,-49,-63,29,-32
-77,-48,29,59,-54,-9,27,-34,-49,-63,29,-32
-77,-48,23,59,-54,-9,27,-34,-49,-63,29,-32
-77,-48,23,59,-54,-9,27,-40,-49,-63,29,-32
-77,-48,23,59,-54,-9,27,-46,-49,-63,29,-32
-83,-48,23,59,-54,-9,27,-46,-49,-63,29,-32
-89,-48,23,59,-54,-9,27,-46,-49,-63,29,-32
-89,-48,23,59,-54,-9,27,-46,-49,-63,29,-32
-83,-48,23,59,-54,-9,27,-46,-49,-69,29,-32
-71,-48,17,53,-48,-15,27,-46,-55,-75,29,-38
-59,-48,11,53,-42,-15,27,-46,-61,-81,29,-38
-53,-48,5,53,-36,-15,27,-46,-61,-81,29,-44
-53,-48,5,53,-36,-15,27,-46,-61,-81,29,-44
-59,-48,11,53,-36,-15,33,-46,-61,-81,29,-44
-71,-54,11,59,-42,-15,33,-46,-61,-81,29,-44
-77,-60,11,65,-42,-15,33,-46,-61,-81,29,-44
-77,-60,11,65,-42,-15,33,-46,-61,-81,29,-50
-71,-54,11,59,-42,-15,33,-46,-61,-81,23,-50
-65,-48,11,53,-42,-15,33,-46,-61,-81,23,-50
-65,-48,11,53,-42,-15,33,-46,-61,-81,23,-50
-65,-48,11,53,-42,-15,33,-46,-61,-81,23,-50
-65,-48,11,53,-42,-15,33,-46,-61,-81,23,-50
-65,-48,11,53,-36,-15,33,-46,-61,-81,23,-50
-65,-48,11,53,-36,-15,33,-46,-61,-81,23,-50
-65,-48,11,53,-36,-15,33,-46,-61,-81,23,-50
-65,-48,11,47,-30,-15,33,-46,-61,-81,23,-50
-65,-48,11,47,-30,-15,33,-46,-61,-81,23,-50
-65,-42,11,47,-30,-15,33,-46,-61,-81,23,-50
-65,-36,11,47,-30,-15,33,-46,-61,-75,23,-50
-65,-36,11,47,-36,-15,33,-46,-61,-69,23,-50
-65,-42,11,53,-36,-15,33,-46,-61,-69,23,-50
-65,-48,11,53,-36,-15,33,-46,-61,-69,23,-50
-65,-48,11,53,-36,-15,33,-46,-55,-69,23,-50
-65,-48,11,53,-36,-15,33,-46,-55,-69,23,-50
-65,-48,11,59,-36,-15,33,-46,-55,-69,23,-50
-65,-48,11,59,-36,-21,33,-46,-55,-69,23,-50
-71,-54,11,59,-36,-27,33,-46,-55,-69,23,-50
-77,-54,11,59,-36,-27,33,-46,-55,-69,23,-50
-77,-54,11,59,-36,-27,33,-46,-55,-69,23,-50
-65,-54,-1,59,-24,-27,33,-46,-55,-69,23,-50
-53,-54,-1,53,-18,-27,33,-46,-55,-69,23,-50
-53,-54,-1,53,-18,-27,33,-40,-49,-63,23,-50
-53,-54,-1,53,-18,-27,33,-40,-43,-63,23,-50
-47,-54,-1,53,-18,-27,33,-40,-43,-63,23,-50
-47,-54,-1,53,-24,-27,39,-40,-43,-63,23,-50
-53,-54,5,53,-30,-27,39,-40,-43,-57,29,-50
-59,-54,5,53,-36,-27,39,-40,-37,-51,35,-50
-59,-54,5,53,-36,-27,39,-40,-37,-51,41,-44
-59,-54,5,53,-36,-27,39,-40,-37,-51,41,-44
-59,-54,5,53,-36,-27,39,-40,-37,-51,41,-44
-53,-54,5,53,-30,-27,39,-40,-37,-51,41,-44
-53,-54,5,53,-30,-27,39,-40,-37,-51,41,-44
-53,-54,5,53,-30,-27,39,-40,-37,-51,41,-44
-59,-54,5,53,-30,-27,39,-40,-37,-51,41,-44
-59,-54,5,53,-30,-27,39,-40,-37,-51,41,-44
-53,-54,-1,47,-24,-27,39,-40,-37,-51,41,-44
-53,-54,-1,47,-24,-27,39,-40,-37,-51,41,-44
-53,-54,-1,47,-24,-27,39,-40,-37,-51,41,-44
-53,-54,-1,47,-24,-27,39,-40,-37,-51,41,-44
-53,-54,-1,47,-24,-27,39,-40,-37,-51,41,-44
-53,-54,-1,47,-24,-27,39,-40,-37,-51,41,-44
-53,-54,5,47,-24,-27,39,-40,-37,-51,41,-44
-53,-48,5,47,-24,-27,39,-40,-31,-51,41,-38
-47,-42,5,41,-24,-27,39,-40,-31,-51,41,-38
-47,-42,5,41,-24,-27,39,-40,-31,-51,41,-38
-47,-42,5,41,-24,-27,39,-40,-31,-51,41,-38
-53,-42,5,47,-24,-27,39,-40,-31,-51,41,-38
-53,-42,5,47,-24,-27,39,-40,-31,-51,41,-38
-53,-42,5,47,-24,-27,39,-40,-31,-51,41,-38
-53,-42,5,47,-24,-27,39,-40,-31,-51,41,-38
-53,-42,5,53,-30,-27,39,-40,-31,-51,41,-38
-53,-48,5,53,-30,-27,39,-40,-31,-51,41,-38
-53,-48,5,53,-30,-27,39,-40,-31,-51,41,-38
-53,-48,5,53,-30,-27,39,-40,-31,-51,41,-38
-47,-48,5,47,-30,-27,39,-40,-31,-51,41,-38
-41,-42,5,41,-24,-21,39,-40,-31,-51,41,-38
-41,-36,5,35,-24,-21,39,-40,-31,-51,41,-38
-41,-36,5,35,-24,-21,39,-40,-31,-51,41,-38
-41,-36,5,35,-24,-21,39,-40,-31,-51,41,-38
-41,-36,5,35,-24,-21,39,-40,-31,-51,41,-38
-41,-36,5,35,-24,-21,39,-40,-31,-51,41,-38
-53,-42,11,41,-36,-21,39,-40,-31,-51,41,-38
-59,-42,17,41,-42,-21,39,-40,-31,-51,41,-38
-59,-36,17,41,-42,-21,39,-40,-31,-51,41,-38
-59,-36,17,41,-36,-21,39,-40,-37,-51,41,-38
-59,-36,17,41,-36,-21,39,-40,-37,-51,41,-38
-59,-36,17,47,-36,-21,39,-40,-37,-51,41,-38
-71,-48,17,59,-42,-21,39,-40,-37,-51,41,-38
-77,-54,17,65,-42,-21,39,-40,-37,-57,41,-38
-77,-54,17,65,-42,-21,39,-40,-37,-57,41,-38
-65,-54,17,59,-36,-21,39,-40,-37,-57,41,-38
-53,-54,11,59,-30,-21,39,-40,-37,-57,35,-38
-53,-54,11,59,-30,-27,39,-40,-37,-57,29,-38
-59,-54,11,59,-30,-27,39,-40,-43,-57,29,-38
-65,-54,11,65,-30,-27,39,-40,-43,-57,29,-38
-65,-54,11,65,-30,-27,39,-40,-43,-57,29,-38
-65,-54,11,59,-30,-27,39,-40,-43,-57,29,-38
-53,-48,11,47,-30,-27,39,-40,-43,-57,29,-38
-41,-48,5,41,-24,-27,39,-40,-43,-57,29,-38
-41,-48,5,41,-24,-33,39,-40,-43,-57,23,-38
-53,-48,11,41,-30,-33,39,-40,-43,-57,23,-38
-65,-48,17,47,-36,-33,39,-40,-43,-57,23,-38
-65,-48,17,47,-36,-33,39,-40,-43,-57,17,-38
-65,-48,17,47,-36,-33,39,-40,-43,-57,17,-38
-65,-48,17,47,-36,-33,39,-40,-43,-57,17,-38
-65,-48,17,47,-36,-33,39,-40,-43,-57,11,-38
-65,-48,17,47,-36,-33,39,-40,-43,-57,11,-38
-65,-48,17,47,-36,-33,39,-40,-43,-57,11,-38
-59,-48,17,47,-36,-33,39,-40,-43,-57,11,-38
-47,-42,17,41,-36,-27,39,-40,-43,-57,11,-38
-47,-42,17,41,-36,-27,39,-40,-43,-57,11,-38
-47,-42,17,41,-36,-27,39,-40,-43,-57,11,-38
-47,-42,17,41,-36,-27,39,-40,-43,-57,11,-38
-47,-42,17,41,-36,-27,39,-40,-43,-57,11,-38
-47,-42,17,47,-36,-27,39,-40,-43,-57,11,-38
-59,-42,17,53,-36,-27,39,-40,-43,-57,11,-38
-65,-48,17,59,-36,-27,39,-40,-43,-57,11,-38
-65,-48,17,59,-36,-27,39,-40,-43,-57,6,-38
-65,-48,17,59,-36,-27,39,-40,-43,-57,0,-38
-65,-48,17,59,-36,-27,39,-40,-43,-57,0,-38
-65,-48,17,59,-36,-27,39,-40,-43,-57,0,-38
-65,-48,17,59,-36,-27,39,-40,-43,-57,0,-38
-65,-48,23,59,-36,-27,39,-40,-43,-57,0,-38
-65,-48,23,59,-36,-27,39,-40,-43,-57,0,-38
-59,-48,23,59,-36,-27,39,-40,-43,-63,0,-38
-59,-48,23,59,-36,-27,39,-46,-43,-63,-6,-38
-59,-48,23,59,-36,-27,39,-46,-43,-63,-12,-38
-59,-48,23,59,-36,-27,39,-46,-43,-63,-12,-38
-59,-48,23,59,-36,-27,39,-46,-43,-63,-12,-38
-59,-48,23,59,-36,-27,39,-46,-43,-63,-12,-38
-65,-48,35,59,-42,-21,45,-46,-43,-63,-12,-38
-65,-48,35,59,-42,-21,45,-46,-43,-63,-12,-38
-65,-48,35,59,-36,-21,45,-46,-43,-63,-12,-38
-65,-48,35,59,-36,-21,45,-46,-43,-63,-12,-38
-65,-48,35,59,-36,-21,45,-46,-43,-63,-12,-38
-65,-42,35,59,-36,-21,45,-46,-43,-63,-12,-38
-65,-42,35,59,-36,-21,45,-46,-43,-63,-12,-38
-65,-36,35,59,-36,-21,45,-46,-43,-63,-12,-38
-65,-36,35,59,-36,-21,45,-46,-43,-63,-12,-38
-65,-36,35,59,-36,-21,45,-46,-43,-63,-18,-38
-65,-42,35,59,-42,-21,45,-46,-43,-63,-24,-38
-65,-42,41,59,-48,-21,45,-46,-43,-63,-24,-38
-65,-36,47,59,-48,-9,45,-46,-43,-63,-24,-38
-59,-24,53,47,-48,-3,51,-46,-37,-63,-24,-38
-53,-12,53,35,-48,2,57,-40,-31,-63,-24,-38
-47,-6,53,29,-48,8,63,-34,-31,-57,-24,-38
-47,-6,59,29,-48,8,63,-34,-25,-57,-24,-38
-53,-6,65,29,-54,14,63,-28,-25,-51,-24,-38
-53,-1,71,29,-60,20,69,-22,-19,-45,-18,-32
-53,5,77,29,-60,26,75,-16,-13,-39,-12,-26
-53,5,77,29,-60,26,81,-10,-13,-39,-12,-26
-53,5,77,29,-60,26,87,-5,-13,-39,-12,-26
-53,5,77,29,-60,26,87,1,-13,-39,-12,-26
-53,5,77,29,-60,26,87,1,-13,-39,-12,-26
-59,5,83,29,-66,26,87,1,-13,-39,-12,-26
-59,5,89,29,-66,26,93,1,-7,-39,-12,-26
-59,17,89,29,-66,32,99,7,-2,-33,-6,-26
-35,35,89,5,-60,38,99,13,10,-27,6,-20
0,41,83,-12,-42,38,93,13,10,-21,11,-14
6,47,77,-18,-30,38,81,13,10,-21,11,-8
6,47,77,-18,-30,44,69,13,16,-21,17,-2
6,47,77,-18,-30,44,63,13,22,-15,23,3
12,53,77,-24,-24,44,57,13,28,-9,23,9
18,59,77,-30,-18,50,51,13,28,-3,29,15
18,65,77,-30,-18,50,45,13,34,2,35,21
18,65,77,-30,-18,50,39,13,34,2,35,21
18,65,77,-30,-18,50,27,13,34,2,35,21
12,59,77,-24,-18,50,21,13,34,2,35,21
12,59,77,-24,-18,50,21,13,34,2,35,21
12,59,77,-24,-18,50,21,13,34,2,41,21
18,59,71,-24,-12,50,21,7,28,2,41,21
18,53,65,-24,-12,50,15,1,22,-3,41,21
12,47,65,-24,-12,50,15,-5,22,-9,41,21
6,41,65,-18,-12,50,15,-10,16,-15,35,21
0,35,59,-12,-12,38,15,-16,10,-21,23,21
0,29,53,-6,-12,32,15,-22,4,-27,17,15
0,23,47,-6,-12,26,15,-22,4,-33,11,9
0,17,41,-6,-12,20,15,-28,-2,-39,6,-2
0,5,29,-1,-12,14,15,-34,-13,-45,0,-8
0,-1,23,5,-12,8,15,-40,-19,-45,-6,-14
0,-1,23,5,-12,8,15,-40,-19,-45,-6,-14
-5,-1,23,5,-12,8,15,-40,-19,-45,-6,-14
-11,-1,23,5,-12,8,15,-40,-19,-45,-6,-14
-11,-6,23,11,-12,-3,15,-40,-19,-51,-12,-14
-23,-12,23,17,-12,-9,15,-40,-25,-57,-12,-14
-41,-24,23,29,-24,-9,15,-40,-25,-63,-18,-14
-53,-36,23,41,-30,-9,15,-40,-31,-63,-18,-20
-53,-36,23,47,-30,-9,15,-40,-31,-69,-24,-20
-53,-36,23,47,-30,-9,15,-46,-37,-75,-30,-26
-59,-48,23,53,-30,-15,15,-52,-43,-75,-36,-32
-71,-60,23,65,-36,-21,15,-58,-49,-81,-42,-38
-77,-72,23,71,-36,-33,15,-58,-61,-87,-54,-44
-83,-72,23,71,-36,-33,15,-64,-67,-87,-60,-50
-83,-66,23,71,-36,-33,15,-64,-67,-87,-60,-50
-77,-54,23,65,-36,-33,15,-64,-67,-87,-60,-50
-65,-54,17,53,-30,-33,15,-64,-67,-87,-60,-50
-53,-54,11,47,-24,-33,15,-64,-67,-93,-60,-50
-47,-54,11,41,-24,-33,15,-64,-67,-93,-60,-50
-47,-54,17,41,-24,-33,15,-64,-67,-93,-60,-50
-47,-54,23,41,-24,-33,15,-64,-67,-93,-60,-50
-53,-54,23,47,-24,-33,15,-64,-67,-93,-60,-50
-59,-60,23,59,-30,-33,15,-64,-67,-93,-60,-56
-71,-60,23,71,-36,-33,15,-64,-67,-93,-66,-56
-83,-60,23,77,-42,-33,15,-64,-67,-93,-66,-62
-83,-66,23,77,-48,-33,15,-64,-67,-93,-66,-62
-83,-66,23,77,-48,-33,15,-64,-67,-93,-66,-62
-83,-66,23,77,-48,-33,15,-64,-67,-93,-66,-62
-83,-66,23,77,-48,-33,21,-64,-67,-93,-66,-62
-83,-66,23,77,-48,-33,21,-64,-67,-93,-66,-62
-83,-66,23,77,-48,-33,21,-64,-67,-93,-66,-62
-83,-66,23,77,-48,-33,21,-64,-67,-93,-66,-62
-83,-66,23,77,-48,-33,27,-64,-67,-93,-66,-62
-83,-66,23,77,-48,-33,27,-64,-67,-93,-66,-62
-83,-66,23,77,-48,-33,33,-64,-67,-93,-66,-62
-83,-66,23,77,-48,-33,39,-52,-55,-93,-66,-62
-89,-66,29,77,-54,-33,57,-10,-25,-81,-66,-68
-101,-66,41,77,-66,-27,93,67,16,-69,-66,-80
-113,-66,65,83,-90,-21,153,169,88,-27,-66,-92
-119,-66,83,83,-102,-15,213,277,172,14,-66,-104
-119,-60,95,83,-108,-3,267,367,244,56,-60,-116
-119,-48,107,83,-108,8,303,427,310,116,-48,-122
-119,-24,119,83,-114,32,321,475,364,188,-6,-116
-119,5,137,77,-120,50,333,523,430,266,65,-80
-101,41,137,41,-114,62,345,589,502,350,173,3
-17,77,125,-24,-72,68,345,643,556,440,293,123
96,113,71,-102,17,68,309,661,586,530,449,285
228,161,5,-192,113,68,225,661,604,632,629,483
330,233,-30,-282,185,74,129,637,616,740,839,717
450,323,-54,-390,245,98,3,487,616,848,1031,933
534,419,-66,-480,287,128,-134,253,598,896,1199,1155
570,461,-72,-510,317,152,-272,-34,460,896,1277,1281
576,467,-78,-516,329,158,-386,-334,268,848,1283,1335
570,467,-78,-510,329,158,-428,-550,112,716,1247,1335
510,455,-66,-486,299,164,-440,-688,4,572,1085,1257
426,449,-6,-444,215,176,-440,-778,-79,446,899,1089
354,443,71,-408,149,212,-440,-880,-187,290,707,915
234,425,149,-330,53,230,-440,-970,-313,92,467,699
96,371,233,-240,-60,242,-428,-1030,-445,-129,185,441
-41,293,287,-132,-156,248,-404,-1078,-583,-393,-132,171
-143,215,323,-36,-228,248,-368,-1108,-661,-555,-342,-44
-191,155,335,17,-258,242,-338,-1108,-679,-579,-390,-128
-215,107,335,53,-264,224,-314,-1096,-679,-585,-396,-146
-221,59,311,77,-264,176,-296,-1054,-679,-591,-402,-176
-221,5,239,95,-252,110,-278,-982,-679,-597,-414,-206
-221,-54,173,119,-222,44,-248,-898,-679,-597,-420,-218
-221,-96,119,137,-186,-3,-224,-814,-667,-597,-420,-230
-209,-114,77,143,-144,-33,-212,-712,-631,-573,-420,-230
-179,-120,47,143,-108,-51,-200,-610,-571,-525,-396,-230
-149,-120,29,131,-84,-57,-170,-508,-469,-453,-348,-218
-125,-120,23,119,-72,-57,-134,-394,-373,-363,-288,-194
-113,-114,23,113,-66,-57,-92,-304,-289,-297,-246,-164
-101,-102,23,101,-54,-51,-50,-232,-223,-243,-192,-146
-89,-84,23,89,-48,-51,-14,-184,-169,-201,-156,-128
-89,-84,23,89,-48,-45,9,-154,-133,-171,-138,-116
-113,-84,29,95,-60,-45,15,-130,-115,-153,-126,-104
-113,-84,29,95,-60,-45,21,-118,-109,-141,-114,-98
-101,-78,29,83,-54,-45,27,-94,-103,-129,-102,-86
-89,-72,29,77,-54,-45,33,-76,-97,-117,-96,-80
-89,-72,29,77,-54,-45,39,-64,-91,-111,-96,-80
-89,-72,29,77,-54,-45,39,-58,-85,-111,-96,-80
-89,-72,29,77,-54,-45,45,-52,-79,-111,-90,-80
-89,-78,23,77,-54,-45,45,-46,-73,-105,-84,-74
-83,-78,17,77,-54,-45,45,-40,-67,-105,-84,-74
-77,-72,17,77,-48,-45,51,-34,-55,-99,-78,-68
-77,-66,17,77,-48,-45,57,-28,-49,-93,-72,-62
-77,-66,17,77,-48,-45,57,-22,-43,-81,-66,-56
-77,-66,17,77,-48,-45,57,-16,-37,-75,-60,-50
-83,-66,29,77,-54,-45,63,-10,-37,-75,-54,-50
-89,-66,35,77,-54,-45,63,-5,-31,-69,-54,-50
-89,-66,35,77,-54,-39,69,1,-25,-69,-48,-44
-89,-66,35,71,-54,-33,69,7,-19,-63,-48,-38
-89,-66,35,71,-54,-33,69,13,-13,-63,-48,-38
-89,-66,35,71,-54,-33,69,13,-13,-63,-48,-38
-89,-66,35,71,-54,-33,69,13,-13,-57,-48,-38
-83,-60,35,71,-54,-33,69,13,-13,-57,-48,-38
-71,-60,35,71,-54,-33,69,19,-13,-51,-48,-38
-71,-60,29,71,-48,-33,69,19,-13,-51,-48,-38
-71,-60,29,71,-48,-33,69,19,-13,-51,-48,-38
-71,-60,29,71,-48,-33,69,19,-13,-51,-48,-38
-71,-60,29,71,-48,-33,69,25,-13,-51,-48,-38
-71,-54,29,65,-48,-33,69,25,-7,-51,-42,-38
-71,-48,29,59,-48,-33,69,25,-2,-51,-36,-32
-65,-48,29,59,-48,-33,69,31,-2,-51,-36,-32
-65,-48,29,59,-48,-33,69,31,-2,-51,-36,-32
-65,-48,29,59,-48,-33,69,31,-2,-51,-36,-32
-65,-48,29,59,-48,-33,69,31,-2,-45,-36,-26
-65,-48,29,59,-42,-33,69,31,-2,-45,-36,-26
-65,-48,29,53,-42,-33,69,31,-2,-39,-36,-20
-65,-48,29,53,-42,-33,69,37,-2,-33,-30,-20
-65,-48,29,53,-42,-33,69,37,-2,-33,-30,-20
-65,-48,29,53,-42,-33,63,37,-2,-33,-30,-20
-59,-48,23,53,-36,-33,63,37,-2,-33,-30,-20
-53,-42,23,47,-36,-33,63,37,-2,-33,-24,-8
-47,-36,23,35,-36,-27,63,37,-2,-33,-18,3
-41,-24,23,29,-36,-27,63,37,-2,-27,-12,9
-41,-24,23,29,-36,-21,63,37,4,-27,-6,15
-41,-24,23,29,-36,-21,63,37,4,-21,-6,21
-41,-24,23,29,-36,-21,63,37,4,-21,-6,27
-41,-24,23,29,-36,-21,63,37,4,-15,0,27
-23,-18,17,23,-24,-21,63,37,4,-9,11,33
0,-12,5,11,-12,-21,63,37,4,-9,17,39
0,-12,5,11,-12,-21,63,37,4,-3,23,45
-5,-12,11,11,-18,-21,57,37,4,-3,29,51
-11,-12,17,11,-18,-21,57,37,4,-3,29,51
-11,-12,17,11,-18,-21,57,37,4,2,35,57
-11,-6,17,11,-18,-15,57,37,10,8,41,63
-11,-1,17,11,-18,-9,57,37,16,14,47,69
-11,-1,17,11,-18,-9,57,37,16,20,53,75
-5,-1,11,11,-12,-9,51,37,16,26,59,75
6,-1,11,5,-6,-9,51,43,16,32,71,81
24,11,11,-6,0,-3,51,49,22,38,83,99
30,17,11,-18,5,-3,45,49,28,44,95,111
30,17,11,-18,11,-3,33,49,28,44,101,117
30,17,5,-18,11,-3,27,49,28,44,107,123
36,17,-1,-24,17,-3,15,49,28,50,113,129
48,29,-6,-36,29,-3,9,49,28,56,119,135
48,29,-12,-36,35,-3,3,49,28,56,125,141
48,17,-12,-36,35,-3,-8,43,28,56,125,141
42,11,-12,-30,35,-3,-20,43,28,56,125,147
42,11,-12,-30,35,-3,-32,37,28,56,131,153
48,17,-12,-36,35,-3,-38,37,28,62,143,165
54,29,-12,-42,35,-3,-38,37,28,68,155,177
60,29,-18,-48,41,-3,-44,37,28,68,161,183
66,35,-18,-54,47,-3,-50,31,28,74,173,195
72,47,-18,-60,47,2,-56,31,28,86,185,207
78,53,-18,-66,53,2,-62,31,28,92,197,213
108,59,-30,-78,71,2,-68,25,28,98,203,219
138,71,-42,-96,89,2,-74,25,28,104,215,231
144,77,-42,-102,95,2,-74,25,28,110,227,255
144,77,-42,-108,95,2,-74,25,28,116,239,267
144,77,-48,-114,95,2,-80,25,28,122,245,279
144,77,-54,-114,101,2,-92,25,28,122,251,285
144,77,-54,-114,101,2,-104,25,28,122,257,291
138,71,-54,-108,101,2,-116,19,28,122,263,297
132,71,-54,-102,95,2,-122,19,28,128,263,303
126,71,-54,-102,95,2,-128,19,28,128,263,303
120,71,-54,-102,95,2,-134,13,28,128,263,303
120,71,-54,-102,95,2,-134,7,28,128,269,309
120,71,-54,-102,95,2,-134,7,28,134,275,321
126,71,-54,-102,95,2,-140,1,28,134,281,333
132,71,-54,-102,101,2,-146,1,28,134,281,339
138,71,-54,-108,107,2,-146,1,28,134,281,345
144,71,-54,-108,107,2,-146,1,28,134,281,345
150,71,-54,-114,107,2,-146,1,28,134,281,345
156,77,-54,-120,113,2,-146,-5,28,134,281,345
168,83,-60,-132,113,2,-146,-5,28,134,281,345
174,89,-66,-144,119,2,-146,-5,22,134,281,345
180,95,-66,-150,125,2,-146,-5,22,134,281,345
180,95,-66,-150,125,8,-146,-5,22,134,281,345
180,95,-66,-150,125,8,-146,-10,16,134,281,345
180,95,-66,-144,125,8,-152,-10,10,134,281,345
174,95,-66,-138,125,8,-152,-10,10,134,275,345
162,95,-60,-132,119,8,-152,-10,10,134,269,345
150,95,-54,-126,107,8,-152,-10,10,134,269,339
144,95,-48,-120,101,8,-152,-10,10,128,269,333
144,95,-42,-120,101,14,-140,-10,10,128,263,327
144,95,-42,-120,101,14,-134,-10,10,122,257,315
144,95,-42,-120,101,14,-128,-10,10,116,251,303
132,95,-42,-114,95,14,-122,-10,10,110,245,291
120,95,-36,-108,89,14,-116,-5,10,104,233,279
114,95,-30,-108,77,14,-104,7,10,104,221,267
108,83,-30,-102,71,14,-98,13,10,98,203,255
102,77,-30,-96,65,14,-92,19,10,92,191,243
96,71,-24,-96,59,14,-86,25,10,92,179,231
84,71,-12,-90,53,14,-74,31,10,86,167,207
78,65,-12,-84,47,14,-68,37,10,74,149,183
66,59,-6,-72,41,14,-62,43,10,68,137,165
30,53,5,-54,11,14,-50,49,10,62,131,153
0,47,17,-36,-6,20,-38,55,16,56,125,141
-5,47,29,-30,-12,26,-26,61,22,56,119,135
-5,47,29,-30,-12,26,-14,67,22,56,107,129
0,47,29,-30,-12,26,-3,67,22,50,95,123
0,47,29,-30,-12,26,3,67,28,50,83,111
6,41,29,-30,-12,26,9,67,28,44,71,99
6,35,29,-30,-12,26,9,67,28,44,65,87
0,29,29,-24,-12,26,15,73,34,38,59,81
-11,17,29,-12,-18,20,21,73,34,32,47,69
-23,11,29,-1,-24,14,21,73,34,26,35,57
-29,5,29,5,-24,14,27,73,34,20,29,45
-35,-1,29,11,-24,14,33,73,34,14,23,39
-47,-6,29,23,-30,14,39,73,34,8,11,33
-59,-18,29,47,-36,8,39,73,34,2,0,27
-65,-30,29,53,-42,2,39,73,34,2,-6,21
-65,-30,29,53,-42,2,39,73,34,2,-6,21
-65,-30,29,53,-42,2,39,73,34,2,-6,21
-65,-30,29,53,-42,2,39,73,34,2,-12,15
-65,-30,29,53,-42,2,39,73,34,2,-12,9
-65,-30,29,53,-42,-3,39,73,34,2,-12,3
-65,-30,23,53,-42,-3,39,73,34,2,-12,3
-59,-30,23,53,-36,-3,39,73,34,-3,-18,-2
-59,-30,23,53,-36,-3,39,73,34,-3,-18,-8
-59,-30,23,53,-36,-3,45,73,34,-3,-18,-8
-53,-30,23,47,-36,-3,45,73,34,-3,-24,-14
-47,-30,17,41,-30,-9,45,73,34,-9,-30,-20
-41,-30,17,35,-30,-9,45,73,34,-9,-30,-20
-41,-30,11,35,-24,-9,45,73,34,-15,-36,-20
-41,-30,11,35,-24,-9,45,73,28,-15,-36,-20
-41,-30,11,35,-24,-9,45,73,28,-15,-36,-20
-41,-36,11,35,-24,-9,45,73,28,-15,-36,-26
-41,-42,11,35,-24,-9,45,73,28,-15,-36,-26
-41,-42,11,35,-24,-15,45,73,22,-15,-36,-26
-41,-42,11,35,-24,-15,45,73,22,-21,-36,-26
-47,-42,11,41,-24,-15,45,73,22,-21,-36,-26
-59,-48,11,53,-30,-15,45,73,22,-21,-36,-26
-71,-54,11,59,-36,-15,45,73,22,-21,-36,-26
-77,-60,11,65,-36,-15,45,73,22,-21,-36,-26
-77,-60,11,65,-36,-15,45,73,22,-21,-36,-32
-65,-60,5,59,-30,-15,45,73,22,-21,-36,-32
-53,-60,-1,53,-18,-15,45,73,22,-27,-36,-38
-53,-60,-1,53,-18,-15,45,73,22,-27,-36,-44
-53,-60,-1,53,-18,-15,45,73,22,-27,-36,-44
-53,-54,-1,53,-18,-15,45,73,22,-27,-36,-44
-53,-54,-1,53,-18,-15,45,73,22,-27,-36,-44
-47,-54,-1,53,-18,-15,45,73,22,-27,-42,-44
-47,-54,-1,53,-18,-15,45,73,22,-27,-42,-44
-47,-54,-1,53,-18,-15,45,73,22,-27,-42,-44
-53,-54,5,53,-24,-15,45,73,22,-27,-42,-44
-53,-54,5,53,-24,-15,45,73,22,-27,-42,-44
-53,-54,5,53,-24,-21,45,73,22,-27,-42,-44
-47,-54,5,53,-24,-21,45,73,22,-27,-42,-44
-47,-54,5,53,-24,-21,45,73,22,-27,-42,-44
-47,-54,5,53,-24,-21,45,73,22,-27,-42,-44
-47,-54,5,53,-24,-21,45,73,22,-27,-42,-44
-47,-54,5,53,-24,-21,45,73,22,-27,-42,-44
-47,-54,5,53,-24,-21,45,73,22,-27,-42,-44
-47,-48,5,53,-24,-21,45,73,22,-21,-42,-44
-47,-42,5,47,-24,-21,45,73,22,-15,-42,-44
-41,-42,5,41,-24,-21,45,73,22,-15,-42,-44
-41,-42,5,41,-24,-21,45,73,22,-15,-42,-44
-41,-42,5,41,-24,-21,45,73,22,-15,-42,-44
-41,-42,5,41,-24,-21,45,73,22,-15,-42,-44
-41,-42,5,41,-24,-21,45,73,22,-15,-42,-44
-35,-42,5,41,-24,-21,45,73,22,-15,-42,-44
-35,-42,5,41,-24,-21,45,73,22,-15,-42,-44
-35,-42,5,41,-24,-21,45,73,28,-9,-42,-44
-35,-42,5,41,-24,-21,45,73,28,-9,-42,-44
-35,-42,5,41,-24,-21,45,73,28,-9,-42,-44
-35,-42,5,41,-24,-21,45,73,28,-9,-42,-44
-35,-42,5,41,-24,-21,45,73,28,-9,-42,-44
-35,-42,5,41,-24,-21,45,73,28,-3,-36,-44
-29,-30,5,35,-24,-21,45,73,28,-3,-36,-44
-17,-24,5,23,-12,-21,45,73,28,-3,-36,-44
-11,-18,5,17,-6,-21,45,73,28,-3,-36,-44
-11,-18,5,17,-6,-21,45,73,28,-3,-36,-44
-11,-18,5,17,-6,-21,45,73,28,2,-36,-44
-11,-18,5,17,-6,-21,45,73,28,2,-36,-44
-11,-18,5,17,-6,-21,45,73,28,2,-36,-44
-11,-18,5,17,-6,-21,45,73,28,2,-36,-44
-11,-18,5,17,-6,-21,45,73,28,2,-36,-44
-17,-18,11,17,-12,-21,45,73,28,2,-36,-44
-23,-18,11,23,-12,-21,45,73,28,2,-36,-44
-23,-18,11,23,-12,-21,45,73,28,2,-36,-44
-23,-24,11,23,-12,-21,45,73,28,2,-36,-44
-29,-24,11,23,-12,-21,45,73,34,2,-36,-44
-29,-24,11,23,-12,-21,45,73,34,8,-36,-44
-29,-24,11,23,-12,-21,45,73,34,8,-36,-44
-29,-24,5,23,-12,-21,45,73,34,8,-36,-44
-29,-24,5,23,-12,-21,45,73,34,8,-36,-44
-29,-24,5,23,-12,-21,45,73,34,8,-36,-44
-29,-24,5,23,-12,-21,45,73,34,8,-36,-44
-29,-24,5,23,-12,-21,39,73,34,8,-36,-44
-35,-30,5,29,-18,-21,39,73,34,8,-36,-44
-41,-36,5,35,-18,-21,39,73,34,8,-36,-44
-41,-36,5,35,-18,-21,39,73,34,8,-36,-44
-41,-36,11,35,-18,-15,39,73,34,8,-36,-44
-41,-30,11,29,-18,-15,39,73,34,8,-36,-44
-35,-24,11,23,-18,-15,39,73,34,8,-36,-44
-29,-24,5,23,-12,-15,39,73,34,8,-36,-44
-29,-24,5,23,-12,-15,39,73,34,8,-36,-44
-29,-24,5,23,-12,-15,39,73,34,8,-36,-44
-23,-24,5,23,-12,-15,39,73,34,8,-36,-44
-17,-18,5,17,-12,-9,39,73,34,8,-36,-44
-11,-18,5,17,-12,-9,39,73,34,8,-36,-44
-11,-18,5,17,-6,-9,39,73,34,8,-36,-44
-5,-18,-1,11,0,-9,39,73,34,8,-36,-44
-5,-18,-1,11,0,-9,39,73,34,8,-36,-44
-5,-18,-1,11,0,-9,39,73,34,8,-36,-44
-5,-18,-1,11,0,-9,39,73,34,8,-36,-44
-5,-18,-1,11,0,-9,39,73,34,8,-36,-44
-5,-18,-1,11,0,-9,39,73,34,8,-36,-44
-5,-24,-1,11,0,-9,39,73,34,8,-36,-50
-5,-24,-1,11,0,-9,39,73,34,8,-36,-50
-5,-24,-1,11,0,-9,39,73,34,8,-36,-50
-5,-24,-1,11,0,-9,39,73,34,8,-36,-50
-5,-24,-1,11,0,-9,39,73,34,8,-36,-50
-5,-24,-1,11,0,-9,39,73,34,8,-36,-50
-5,-24,-1,11,0,-9,39,73,34,8,-36,-50
-5,-24,-1,11,0,-9,39,73,34,8,-36,-50
-11,-24,-1,17,0,-9,39,73,34,8,-36,-50
-17,-24,5,17,-6,-9,39,73,34,8,-36,-50
-17,-24,5,17,-6,-9,39,73,34,8,-36,-50
-17,-24,5,17,-6,-9,39,73,34,8,-36,-50
-23,-30,5,23,-6,-15,39,73,34,8,-36,-50
-35,-36,5,29,-6,-15,39,73,34,2,-36,-50
-41,-42,5,41,-12,-15,39,73,34,2,-36,-50
-41,-42,5,41,-12,-15,39,73,34,-3,-36,-50
-41,-42,5,41,-12,-15,39,73,34,-3,-36,-50
-41,-42,5,41,-12,-15,39,73,34,-3,-36,-56
-35,-42,-1,41,-12,-21,39,73,34,-3,-36,-56
-29,-42,-6,41,-12,-27,39,67,34,-9,-42,-62
-29,-42,-6,41,-12,-27,39,67,34,-15,-48,-68
-29,-42,-6,41,-12,-27,39,67,34,-15,-48,-68
-29,-42,-6,41,-12,-27,39,67,34,-15,-48,-68
-23,-42,-12,41,-6,-27,39,67,34,-15,-48,-68
-23,-42,-12,41,-6,-27,39,67,34,-15,-48,-68
-29,-42,-12,41,-12,-27,39,67,34,-15,-48,-68
-35,-42,-6,47,-18,-27,39,67,34,-15,-48,-68
-35,-42,-6,47,-18,-27,39,67,34,-15,-48,-68
-29,-36,-6,41,-18,-27,39,67,34,-15,-48,-68
