,,,,,,,,,,,
2019-09-01 15:33:38,,,,,,,,,,,
,,,,,,,,,,,
I,II,III,aVR,aVL,aVF,V1,V2,V3,V4,V5,V6
-111,-109,6,106,-52,-54,-44,-93,-205,-72,-34,-48
-111,-121,-5,112,-46,-66,-44,-93,-205,-78,-34,-54
-111,-133,-17,118,-40,-78,-44,-99,-211,-84,-46,-54
-111,-133,-17,118,-40,-78,-44,-99,-211,-84,-46,-54
-111,-133,-17,118,-40,-78,-38,-99,-211,-78,-46,-60
-111,-133,-17,118,-40,-78,-38,-93,-211,-78,-46,-60
-111,-133,-17,118,-40,-78,-26,-93,-211,-72,-46,-66
-123,-145,-17,130,-46,-84,-26,-93,-205,-72,-46,-66
-129,-145,-11,136,-52,-78,-20,-99,-205,-84,-52,-72
-147,-151,1,148,-70,-78,-14,-99,-205,-84,-52,-78
-147,-151,1,148,-70,-78,-20,-105,-205,-90,-64,-90
-165,-151,6,154,-88,-66,-20,-99,-205,-90,-64,-90
-177,-163,6,166,-94,-72,-8,-93,-205,-84,-58,-96
-189,-175,6,178,-100,-78,-8,-93,-211,-96,-70,-102
-195,-175,12,184,-106,-78,3,-87,-211,-90,-70,-102
-195,-187,6,190,-100,-90,3,-93,-211,-96,-70,-108
-201,-193,6,196,-106,-96,-2,-105,-229,-102,-82,-114
-213,-205,6,208,-112,-102,-14,-117,-229,-114,-88,-126
-219,-211,6,214,-112,-102,-20,-123,-235,-120,-100,-126
-225,-223,6,220,-112,-114,-20,-135,-241,-120,-106,-126
-219,-223,1,220,-106,-114,-20,-129,-235,-120,-106,-126
-219,-223,1,220,-106,-114,-20,-123,-241,-120,-106,-126
-213,-217,1,214,-106,-114,-20,-117,-235,-120,-106,-126
-213,-217,1,214,-106,-114,-20,-117,-235,-120,-106,-132
-213,-223,-5,214,-100,-120,-20,-117,-235,-120,-100,-126
-213,-223,-5,214,-100,-120,-20,-117,-235,-120,-100,-126
-213,-229,-11,220,-100,-126,-20,-117,-235,-120,-94,-120
-219,-229,-5,220,-106,-120,-20,-117,-229,-120,-94,-120
-225,-223,6,220,-112,-114,-20,-123,-235,-120,-94,-120
-225,-229,1,226,-112,-120,-20,-123,-235,-120,-94,-120
-225,-223,6,220,-112,-114,-20,-129,-241,-120,-94,-120
-225,-223,6,220,-112,-114,-20,-129,-241,-120,-94,-126
-225,-223,6,220,-112,-114,3,-123,-241,-120,-94,-114
-231,-223,6,226,-118,-108,3,-105,-241,-120,-94,-114
-249,-211,30,226,-142,-90,27,-99,-235,-120,-94,-120
-279,-193,78,232,-184,-54,69,-81,-223,-108,-94,-120
-297,-151,144,220,-220,0,135,-27,-187,-78,-70,-102
-315,-103,210,202,-262,47,213,32,-133,-48,-40,-72
-339,-43,288,190,-316,119,279,122,-61,-6,2,-36
-321,52,372,130,-346,209,351,248,34,65,73,-1
-273,154,432,52,-352,287,441,380,160,191,199,95
-255,268,522,-14,-388,395,459,482,292,341,337,203
-201,364,570,-73,-388,467,435,536,454,509,481,305
-87,424,510,-163,-298,467,363,596,622,659,601,383
39,442,408,-235,-184,425,237,572,760,785,703,431
152,472,312,-307,-76,395,39,428,814,905,799,491
266,550,282,-409,-4,419,-164,236,844,1019,925,569
344,628,276,-487,31,455,-398,9,844,1127,1021,659
386,694,300,-535,37,503,-638,-255,766,1175,1093,731
428,724,288,-571,67,509,-860,-543,622,1163,1123,779
464,676,210,-565,127,443,-1082,-801,442,1097,1069,779
488,520,24,-505,229,269,-1292,-951,280,959,943,701
458,286,-173,-367,313,53,-1370,-1011,88,707,715,545
380,52,-329,-217,355,-138,-1382,-1149,-235,341,391,347
302,-103,-413,-97,355,-252,-1394,-1341,-625,12,121,203
242,-205,-455,-26,343,-330,-1370,-1461,-919,-216,-64,89
206,-295,-503,40,355,-402,-1292,-1473,-1123,-390,-214,-7
140,-367,-509,106,325,-438,-1190,-1449,-1279,-534,-334,-84
50,-409,-467,172,259,-438,-1022,-1317,-1291,-570,-400,-132
-27,-397,-365,208,163,-384,-836,-1065,-1111,-492,-364,-138
-99,-367,-263,226,79,-318,-632,-813,-883,-402,-310,-138
-159,-373,-215,262,19,-294,-482,-627,-745,-348,-286,-150
-183,-373,-191,274,8,-282,-380,-489,-643,-318,-268,-162
-183,-343,-161,256,-4,-252,-284,-387,-553,-264,-238,-156
-171,-307,-137,232,-10,-222,-218,-309,-499,-228,-202,-150
-171,-295,-125,226,-16,-210,-164,-237,-451,-204,-190,-150
-159,-295,-137,220,-4,-216,-116,-177,-409,-192,-190,-156
-159,-301,-143,226,-4,-222,-104,-147,-391,-204,-196,-168
-183,-313,-131,244,-22,-222,-104,-135,-385,-204,-190,-162
-213,-325,-107,268,-52,-216,-92,-123,-367,-198,-184,-162
-219,-307,-83,262,-64,-198,-62,-99,-319,-168,-166,-138
-219,-289,-65,250,-76,-180,-32,-99,-289,-156,-142,-108
-225,-265,-35,244,-94,-156,-26,-105,-295,-150,-130,-114
-225,-253,-23,238,-100,-144,-8,-99,-289,-138,-130,-114
-225,-247,-17,232,-100,-138,3,-99,-295,-138,-130,-120
-225,-247,-17,232,-100,-138,3,-93,-289,-138,-136,-126
-225,-247,-17,232,-100,-138,3,-93,-295,-144,-136,-132
-225,-253,-23,238,-100,-144,3,-81,-283,-144,-136,-138
-225,-253,-23,238,-100,-144,3,-75,-277,-138,-136,-138
-231,-253,-17,238,-106,-138,3,-69,-271,-138,-130,-138
-231,-253,-17,238,-106,-138,3,-63,-259,-138,-136,-138
-231,-253,-17,238,-106,-138,3,-63,-253,-132,-130,-132
-231,-253,-17,238,-106,-138,3,-57,-247,-132,-130,-126
-231,-247,-11,238,-106,-132,3,-57,-241,-126,-130,-126
-231,-247,-11,238,-106,-132,3,-51,-235,-126,-130,-114
-231,-247,-11,238,-106,-132,9,-51,-235,-120,-124,-114
-231,-241,-5,232,-112,-126,3,-51,-235,-120,-124,-114
-231,-241,-5,232,-112,-126,3,-51,-235,-120,-124,-120
-231,-241,-5,232,-112,-126,3,-51,-235,-120,-124,-120
-231,-241,-5,232,-112,-126,9,-45,-229,-120,-112,-114
-231,-241,-5,232,-112,-126,9,-45,-223,-114,-112,-120
-231,-241,-5,232,-112,-126,3,-45,-223,-114,-112,-114
-225,-247,-17,232,-100,-138,3,-45,-223,-108,-112,-120
-219,-253,-29,232,-94,-144,3,-45,-223,-108,-106,-120
-219,-247,-23,232,-94,-138,3,-51,-217,-102,-100,-120
-219,-247,-23,232,-94,-138,3,-45,-205,-102,-100,-120
-219,-241,-17,226,-100,-132,3,-45,-199,-102,-88,-126
-219,-235,-11,226,-100,-126,3,-45,-193,-102,-88,-126
-219,-235,-11,226,-100,-126,9,-39,-199,-96,-82,-120
-219,-235,-11,226,-100,-126,9,-39,-187,-96,-82,-120
-219,-235,-11,226,-100,-126,9,-27,-193,-96,-82,-114
-219,-235,-11,226,-100,-126,9,-27,-187,-96,-82,-114
-219,-229,-5,220,-106,-120,9,-27,-181,-96,-82,-114
-219,-223,1,220,-106,-114,9,-27,-181,-90,-82,-114
-219,-217,6,214,-112,-108,9,-21,-175,-90,-76,-114
-219,-217,6,214,-112,-108,9,-9,-175,-90,-76,-108
-219,-217,6,214,-112,-108,3,-9,-169,-78,-70,-102
-213,-217,1,214,-106,-114,3,-3,-163,-78,-64,-102
-207,-211,1,208,-100,-108,9,-3,-151,-60,-64,-90
-207,-211,1,208,-100,-108,9,-3,-139,-60,-64,-78
-207,-205,6,202,-106,-102,9,3,-139,-66,-70,-78
-207,-205,6,202,-106,-102,9,9,-139,-60,-58,-78
-201,-205,1,202,-100,-108,9,3,-139,-60,-64,-72
-201,-205,1,202,-100,-108,9,9,-139,-54,-58,-72
-207,-199,6,202,-106,-96,9,9,-133,-60,-58,-78
-207,-199,6,202,-106,-96,9,9,-133,-60,-58,-72
-213,-199,6,202,-112,-96,9,20,-139,-66,-58,-78
-207,-199,6,202,-106,-96,9,20,-139,-66,-46,-78
-195,-187,6,190,-106,-84,15,20,-127,-60,-46,-72
-195,-181,6,184,-100,-84,15,20,-115,-48,-40,-60
-183,-175,6,178,-94,-84,15,20,-97,-30,-28,-60
-171,-169,6,166,-82,-84,15,26,-85,-18,-28,-60
-177,-163,6,166,-94,-72,15,38,-73,-18,-22,-60
-183,-163,12,172,-100,-72,15,44,-67,-12,-22,-48
-189,-169,12,178,-100,-72,15,56,-61,-12,-16,-48
-195,-163,24,178,-112,-66,9,56,-55,-6,-16,-48
-189,-163,18,172,-106,-66,9,56,-49,0,-10,-30
-189,-157,24,172,-106,-60,9,68,-49,6,-4,-30
-177,-157,12,166,-94,-66,9,74,-43,12,2,-18
-177,-157,12,166,-94,-66,9,74,-37,18,14,-7
-183,-157,18,166,-100,-66,3,80,-31,24,20,-7
-183,-151,24,166,-106,-60,3,86,-19,35,26,-7
-183,-145,30,160,-106,-54,3,92,-13,35,32,-7
-171,-139,24,154,-100,-54,3,92,-7,35,32,-1
-171,-133,30,148,-100,-48,-2,98,11,35,44,5
-171,-127,36,148,-106,-42,-2,104,17,41,49,11
-159,-115,36,136,-100,-36,-2,116,29,47,49,23
-159,-109,42,130,-100,-30,-8,122,34,59,55,29
-147,-91,48,118,-100,-18,-14,122,34,65,61,41
-141,-85,48,112,-94,-12,-20,128,34,77,73,47
-129,-85,36,106,-82,-18,-26,122,40,89,79,53
-123,-73,42,94,-82,-12,-32,128,46,107,97,65
-117,-67,42,88,-82,-6,-32,140,64,113,103,65
-117,-61,48,88,-82,0,-38,140,64,125,115,71
-117,-43,66,76,-94,18,-38,146,70,119,127,71
-111,-31,72,70,-94,24,-44,140,76,125,127,83
-99,-31,60,64,-82,18,-62,146,88,137,133,95
-93,-19,66,52,-82,29,-62,146,100,149,151,107
-81,-19,54,46,-70,24,-74,158,118,161,151,119
-69,-7,54,34,-64,29,-80,158,124,173,151,125
-69,5,66,28,-70,29,-86,152,124,185,169,131
-63,5,60,28,-64,29,-92,146,124,185,169,137
-69,17,78,22,-76,41,-98,140,118,197,175,143
-63,23,78,16,-70,41,-104,134,118,209,181,143
-57,29,78,10,-70,47,-110,128,118,203,187,143
-51,29,72,10,-64,41,-116,122,118,209,193,143
-51,35,78,4,-64,47,-122,116,124,203,199,137
-57,41,90,4,-76,59,-128,110,118,203,199,137
-51,47,90,-2,-70,59,-128,110,112,209,199,149
-39,47,78,-8,-58,53,-128,104,118,209,205,149
-33,52,78,-14,-58,59,-128,104,118,221,205,155
-33,52,78,-14,-58,59,-140,98,112,221,199,155
-39,41,72,-2,-58,47,-152,74,100,209,193,149
-45,35,72,4,-58,47,-152,62,88,209,193,149
-45,23,60,10,-52,35,-158,50,82,203,187,143
-51,11,54,16,-52,29,-158,38,70,191,181,137
-51,17,60,16,-58,29,-158,32,70,191,187,131
-51,23,66,10,-58,35,-158,26,70,191,187,131
-45,29,66,4,-58,41,-158,32,70,197,181,125
-51,35,78,4,-64,47,-158,38,70,191,175,119
-57,23,72,16,-64,41,-152,32,64,185,175,119
-57,17,66,16,-64,35,-152,26,58,179,175,113
-57,-1,48,28,-52,29,-140,20,52,173,169,101
-57,-7,42,28,-52,24,-134,20,46,167,163,95
-69,-7,54,34,-64,29,-128,20,40,167,151,89
-75,-13,54,40,-64,24,-122,20,40,155,145,83
-75,-13,54,40,-64,24,-110,20,34,155,139,77
-81,-19,54,46,-70,24,-104,20,34,149,127,71
-81,-25,48,52,-64,18,-92,20,34,131,121,65
-93,-31,54,58,-76,18,-86,20,23,125,109,47
-105,-31,66,64,-88,24,-92,20,5,113,103,35
-111,-37,66,70,-88,18,-80,20,5,113,97,35
-117,-49,60,82,-88,12,-62,20,5,101,85,29
-129,-55,66,88,-100,12,-56,20,-1,89,73,11
-135,-67,60,100,-100,0,-44,20,5,77,61,11
-141,-73,60,106,-100,0,-32,20,-1,65,49,-1
-135,-85,42,106,-88,-18,-26,20,-7,65,49,-7
-147,-97,42,118,-94,-24,-14,26,-7,53,49,-7
-141,-103,30,118,-88,-30,-14,26,-25,47,44,-7
-147,-115,24,130,-88,-42,-2,26,-31,35,32,-12
-153,-127,18,136,-88,-48,3,20,-37,35,26,-30
-165,-133,24,148,-94,-48,3,20,-37,35,14,-36
-165,-127,30,142,-100,-42,3,20,-49,30,8,-48
-165,-133,24,148,-94,-48,9,20,-49,24,8,-54
-171,-145,18,154,-94,-60,9,20,-49,18,-4,-54
-183,-151,24,166,-106,-60,15,20,-55,12,-10,-60
-189,-163,18,172,-106,-66,9,20,-49,6,-16,-54
-195,-163,24,178,-112,-66,15,20,-55,0,-22,-60
-189,-175,6,178,-100,-78,21,15,-61,-12,-28,-66
-195,-175,12,184,-106,-78,21,15,-61,-12,-34,-66
-189,-181,6,184,-94,-84,27,15,-67,-24,-40,-72
-189,-187,6,184,-94,-90,33,9,-73,-30,-46,-72
-189,-181,6,184,-94,-84,33,3,-73,-30,-46,-72
-189,-175,6,178,-100,-78,33,-3,-73,-30,-46,-72
-189,-175,6,178,-100,-78,27,-9,-73,-30,-46,-72
-189,-175,6,178,-100,-78,27,-9,-79,-36,-46,-72
-195,-181,6,184,-100,-84,21,-3,-79,-36,-52,-78
-195,-181,12,190,-106,-78,21,-9,-85,-36,-58,-78
-201,-187,12,190,-112,-84,15,-3,-79,-42,-58,-78
-207,-187,18,190,-118,-78,15,-3,-79,-42,-58,-78
-201,-187,6,190,-106,-90,15,-3,-85,-42,-58,-78
-201,-187,6,190,-106,-90,15,-3,-85,-48,-58,-78
-195,-187,6,190,-100,-90,15,-3,-91,-48,-64,-72
-195,-187,6,190,-100,-90,15,-3,-91,-48,-64,-78
-195,-193,6,190,-100,-96,15,-9,-85,-48,-58,-78
-195,-199,1,196,-94,-102,15,-9,-91,-48,-58,-78
-195,-211,-11,202,-88,-114,21,-9,-85,-48,-52,-78
-195,-211,-11,202,-88,-114,21,-9,-79,-48,-52,-72
-195,-205,-5,196,-94,-108,21,-15,-79,-48,-58,-66
-195,-205,-5,196,-94,-108,21,-15,-79,-48,-58,-66
-195,-199,1,196,-94,-102,21,-21,-79,-42,-64,-60
-195,-199,1,196,-94,-102,21,-21,-79,-42,-64,-54
-195,-199,1,196,-94,-102,15,-21,-79,-42,-64,-54
-195,-199,1,196,-94,-102,15,-21,-79,-42,-64,-48
-195,-199,1,196,-94,-102,9,-21,-73,-42,-64,-42
-195,-199,1,196,-94,-102,9,-21,-73,-42,-64,-36
-195,-199,-5,190,-88,-108,9,-15,-73,-42,-64,-36
-195,-199,-5,190,-88,-108,9,-15,-73,-42,-58,-36
-189,-199,-11,190,-82,-108,9,-9,-73,-36,-58,-36
-189,-199,-11,190,-82,-108,15,-9,-73,-36,-58,-36
-201,-199,6,196,-100,-102,15,-3,-73,-42,-58,-36
-201,-199,6,196,-100,-102,15,-3,-73,-42,-58,-36
-207,-193,6,196,-112,-90,15,-3,-73,-48,-52,-42
-201,-187,6,190,-106,-90,15,-3,-67,-48,-52,-42
-201,-193,6,196,-106,-96,15,-9,-67,-48,-52,-48
-201,-193,6,196,-106,-96,15,-3,-67,-48,-52,-48
-201,-199,6,196,-100,-102,15,-9,-67,-48,-58,-54
-201,-199,6,196,-100,-102,15,-9,-67,-48,-58,-60
-195,-199,1,196,-94,-102,21,-3,-67,-42,-58,-66
-195,-199,1,196,-94,-102,21,-3,-67,-48,-58,-72
-189,-193,-5,190,-88,-102,27,3,-67,-42,-58,-78
-189,-193,-5,190,-88,-102,27,3,-61,-42,-58,-78
-189,-193,-5,190,-88,-102,27,-3,-61,-42,-58,-78
-195,-193,6,190,-100,-96,27,-3,-67,-42,-58,-78
-195,-193,6,190,-100,-96,27,-9,-67,-42,-58,-78
-195,-193,6,190,-100,-96,27,-9,-67,-42,-58,-78
-195,-187,6,190,-100,-90,27,-9,-61,-42,-64,-84
-195,-187,6,190,-100,-90,33,-9,-61,-42,-58,-84
-195,-187,6,190,-106,-84,33,-15,-61,-42,-64,-90
-195,-187,6,190,-106,-84,33,-15,-61,-42,-70,-90
-201,-187,6,190,-106,-90,27,-21,-61,-48,-70,-96
-201,-187,6,190,-106,-90,27,-21,-67,-48,-70,-96
-213,-193,12,202,-118,-90,21,-27,-67,-54,-70,-102
-213,-193,12,202,-118,-90,21,-27,-67,-54,-64,-96
-207,-193,6,196,-112,-90,27,-21,-67,-48,-64,-96
-207,-193,6,196,-112,-90,33,-21,-73,-48,-64,-96
-201,-193,6,196,-106,-96,39,-27,-73,-42,-64,-96
-195,-187,6,190,-100,-90,39,-27,-73,-42,-64,-96
-201,-187,12,190,-112,-84,33,-27,-67,-42,-70,-96
-201,-187,12,190,-112,-84,27,-27,-73,-42,-70,-96
-213,-187,24,196,-124,-78,27,-27,-67,-48,-70,-96
-213,-187,18,196,-118,-84,27,-27,-67,-48,-70,-96
-201,-193,6,196,-106,-96,27,-33,-67,-54,-64,-96
-201,-193,6,196,-106,-96,27,-39,-73,-54,-64,-96
-195,-187,6,190,-100,-90,27,-39,-73,-60,-58,-96
-201,-187,6,190,-106,-90,27,-39,-73,-54,-58,-96
-201,-193,6,196,-106,-96,27,-33,-73,-54,-64,-90
-201,-199,6,196,-100,-102,27,-39,-73,-60,-64,-90
-195,-205,-5,196,-94,-108,27,-33,-79,-60,-70,-84
-195,-205,-5,196,-94,-108,27,-45,-79,-60,-70,-84
-201,-199,6,196,-100,-102,27,-45,-79,-60,-70,-84
-201,-199,6,196,-100,-102,27,-45,-85,-66,-70,-84
-201,-193,6,196,-106,-96,27,-45,-85,-66,-70,-84
-201,-193,6,196,-106,-96,21,-45,-85,-66,-70,-84
-195,-193,6,190,-100,-96,21,-51,-91,-60,-70,-84
-195,-193,6,190,-100,-96,21,-51,-91,-60,-76,-84
-201,-205,1,202,-100,-108,21,-63,-103,-60,-76,-84
-207,-205,6,202,-106,-102,15,-63,-103,-60,-76,-84
-207,-199,6,202,-106,-96,15,-57,-103,-66,-82,-84
-201,-199,6,196,-100,-102,15,-57,-103,-66,-82,-84
-201,-193,6,196,-106,-96,15,-63,-103,-78,-88,-84
-201,-187,6,190,-106,-90,15,-69,-103,-78,-88,-84
-201,-193,6,196,-106,-96,9,-75,-103,-78,-88,-84
-201,-193,6,196,-106,-96,9,-75,-103,-78,-88,-84
-201,-199,6,196,-100,-102,3,-81,-103,-78,-88,-78
-201,-205,1,202,-100,-108,3,-81,-109,-78,-88,-78
-201,-205,1,202,-100,-108,9,-75,-109,-72,-82,-78
-201,-205,1,202,-100,-108,9,-75,-109,-72,-82,-78
-201,-205,1,202,-100,-108,15,-75,-109,-66,-88,-78
-201,-205,1,202,-100,-108,15,-75,-115,-66,-88,-78
-207,-205,6,202,-106,-102,15,-81,-115,-72,-88,-84
-207,-205,6,202,-106,-102,15,-87,-115,-72,-88,-84
-207,-205,6,202,-106,-102,9,-87,-115,-72,-88,-84
-207,-205,6,202,-106,-102,3,-81,-115,-72,-88,-84
-207,-205,6,202,-106,-102,3,-81,-115,-72,-88,-84
-207,-217,-5,208,-100,-114,3,-87,-115,-72,-88,-84
-207,-223,-11,214,-94,-120,9,-87,-109,-72,-82,-90
-207,-223,-11,214,-94,-120,9,-87,-109,-78,-82,-90
-201,-211,-5,202,-94,-114,9,-93,-109,-78,-88,-84
-201,-211,-5,202,-94,-114,9,-87,-109,-78,-88,-84
-195,-211,-11,202,-88,-114,9,-93,-109,-78,-94,-78
-207,-217,-5,208,-100,-114,3,-93,-115,-78,-100,-78
-213,-217,1,214,-106,-114,3,-93,-109,-78,-100,-84
-201,-211,-5,202,-94,-114,3,-93,-109,-78,-100,-84
-207,-211,1,208,-100,-108,3,-93,-109,-78,-100,-90
-207,-211,1,208,-100,-108,3,-93,-109,-78,-100,-90
-201,-205,1,202,-100,-108,3,-93,-109,-78,-94,-96
-201,-217,-11,208,-94,-120,3,-93,-109,-78,-88,-96
-195,-211,-11,202,-88,-114,3,-99,-109,-84,-88,-96
-195,-211,-11,202,-88,-114,3,-105,-109,-84,-94,-96
-201,-217,-11,208,-94,-120,3,-99,-109,-78,-94,-90
-201,-211,-5,202,-94,-114,9,-99,-109,-78,-94,-90
-207,-211,1,208,-100,-108,3,-93,-109,-78,-94,-84
-207,-205,6,202,-106,-102,3,-93,-109,-78,-88,-84
-213,-211,6,208,-106,-108,3,-99,-115,-78,-88,-90
-213,-217,1,214,-106,-114,3,-99,-115,-72,-94,-96
-219,-223,1,220,-106,-114,9,-105,-115,-72,-94,-108
-219,-217,6,214,-112,-108,9,-105,-115,-72,-94,-114
-213,-217,1,214,-106,-114,21,-105,-103,-72,-94,-114
-213,-217,1,214,-106,-114,15,-105,-109,-78,-94,-108
-201,-217,-11,208,-94,-120,15,-105,-103,-78,-94,-108
-201,-211,-5,202,-94,-114,15,-99,-103,-78,-100,-114
-207,-223,-11,214,-94,-120,9,-105,-103,-78,-100,-108
-201,-217,-11,208,-94,-120,3,-105,-109,-84,-100,-114
-201,-217,-11,208,-94,-120,3,-105,-109,-84,-100,-114
-195,-211,-11,202,-88,-114,3,-105,-115,-90,-100,-120
-195,-211,-11,202,-88,-114,3,-105,-115,-90,-100,-120
-201,-217,-11,208,-94,-120,3,-105,-115,-90,-100,-126
-201,-217,-11,208,-94,-120,3,-105,-115,-90,-100,-126
-201,-223,-17,208,-88,-126,9,-105,-115,-84,-100,-126
-201,-223,-17,208,-88,-126,9,-105,-115,-84,-100,-126
-207,-229,-17,214,-94,-126,9,-105,-115,-84,-100,-126
-207,-229,-17,214,-94,-126,9,-105,-115,-84,-100,-126
-207,-223,-11,214,-94,-120,9,-105,-115,-78,-100,-114
-207,-223,-11,214,-94,-120,9,-105,-115,-78,-100,-114
-207,-217,-5,208,-100,-114,15,-105,-109,-78,-100,-114
-201,-223,-17,208,-88,-126,15,-105,-115,-78,-100,-114
-201,-217,-11,208,-94,-120,21,-105,-109,-84,-100,-120
-195,-217,-17,202,-88,-120,21,-111,-109,-84,-100,-120
-195,-217,-17,202,-88,-120,15,-105,-109,-84,-106,-120
-195,-217,-17,202,-88,-120,15,-105,-109,-84,-106,-120
-195,-217,-23,202,-82,-126,9,-99,-109,-84,-106,-120
-195,-217,-23,202,-82,-126,9,-99,-109,-84,-106,-120
-195,-217,-17,202,-88,-120,15,-99,-103,-78,-100,-114
-195,-217,-17,202,-88,-120,15,-93,-103,-78,-100,-120
-201,-217,-11,208,-94,-120,15,-93,-97,-66,-94,-114
-201,-211,-5,202,-94,-114,15,-87,-91,-66,-88,-108
-195,-205,-5,196,-94,-108,21,-87,-91,-72,-88,-108
-195,-199,1,196,-94,-102,21,-87,-85,-66,-82,-102
-195,-193,6,190,-100,-96,33,-87,-73,-72,-82,-96
-195,-187,6,190,-100,-90,39,-75,-73,-60,-76,-90
-195,-181,6,184,-100,-84,51,-63,-67,-60,-76,-84
-195,-163,24,178,-112,-66,57,-57,-61,-54,-70,-78
-195,-157,30,172,-112,-60,63,-57,-61,-54,-70,-72
-189,-139,42,160,-118,-42,63,-51,-61,-54,-64,-72
-189,-139,42,160,-118,-42,69,-51,-61,-48,-64,-72
-189,-133,48,160,-118,-36,69,-51,-55,-48,-58,-66
-189,-133,48,160,-118,-36,69,-45,-49,-36,-58,-60
-189,-127,54,154,-124,-30,69,-45,-43,-36,-52,-60
-189,-127,54,154,-124,-30,69,-45,-43,-36,-52,-54
-189,-127,54,154,-124,-30,69,-45,-43,-36,-52,-48
-189,-133,48,160,-118,-36,69,-45,-43,-36,-52,-42
-189,-133,48,160,-118,-36,57,-45,-43,-36,-52,-36
-183,-133,42,154,-112,-42,51,-63,-49,-42,-52,-42
-183,-121,54,148,-118,-30,45,-63,-49,-42,-52,-36
-183,-109,66,142,-124,-18,39,-69,-55,-36,-40,-30
-177,-97,72,136,-124,-6,39,-81,-55,-36,-40,-24
-177,-97,72,136,-124,-6,33,-75,-49,-30,-34,-24
-177,-91,78,130,-130,0,27,-81,-49,-30,-34,-24
-165,-85,72,124,-118,0,21,-75,-43,-24,-28,-18
-159,-85,66,118,-112,-6,15,-75,-49,-24,-22,-12
-147,-73,66,106,-106,0,9,-75,-49,-18,-22,-12
-141,-67,66,100,-106,6,9,-75,-43,-18,-22,-7
-129,-61,60,94,-94,6,3,-69,-37,-6,-16,-7
-123,-73,42,94,-82,-12,3,-69,-37,-6,-16,-7
-117,-97,12,106,-64,-36,-2,-87,-61,-24,-34,-24
-111,-115,1,112,-52,-60,-8,-99,-67,-36,-46,-30
-111,-133,-17,118,-40,-78,-8,-105,-79,-48,-52,-42
-111,-145,-29,124,-34,-90,-8,-111,-85,-60,-70,-42
-111,-139,-23,124,-40,-84,-2,-105,-79,-54,-64,-42
-111,-139,-23,124,-40,-84,-2,-105,-79,-54,-64,-42
-111,-133,-17,118,-40,-78,3,-93,-73,-48,-58,-42
-111,-133,-17,118,-40,-78,3,-93,-73,-48,-58,-42
-123,-145,-17,130,-46,-84,3,-93,-67,-48,-58,-42
-129,-151,-17,136,-52,-84,3,-93,-67,-54,-58,-42
-147,-157,-5,148,-64,-84,3,-93,-67,-54,-58,-48
-147,-163,-11,154,-64,-90,3,-93,-67,-54,-64,-54
-171,-169,6,166,-82,-84,9,-93,-67,-54,-64,-54
-183,-181,6,178,-88,-90,15,-93,-67,-54,-64,-60
-195,-193,6,190,-100,-96,21,-99,-73,-66,-76,-66
-201,-193,6,196,-106,-96,27,-99,-73,-66,-82,-66
-201,-199,6,196,-100,-102,27,-99,-67,-72,-82,-72
-207,-205,6,202,-106,-102,27,-105,-85,-78,-88,-78
-213,-211,6,208,-106,-108,15,-111,-79,-90,-94,-90
-213,-211,6,208,-106,-108,15,-111,-85,-96,-100,-90
-207,-223,-11,214,-94,-120,15,-123,-91,-96,-100,-90
-207,-223,-11,214,-94,-120,15,-123,-91,-96,-100,-90
-201,-223,-17,208,-88,-126,15,-117,-97,-96,-94,-90
-201,-217,-11,208,-94,-120,15,-117,-97,-96,-94,-90
-201,-217,-11,208,-94,-120,15,-117,-91,-90,-94,-96
-201,-217,-11,208,-94,-120,15,-117,-91,-90,-94,-96
-201,-217,-11,208,-94,-120,15,-117,-85,-84,-94,-96
-201,-217,-11,208,-94,-120,15,-117,-85,-84,-94,-96
-201,-217,-11,208,-94,-120,15,-117,-85,-84,-94,-96
-207,-217,-5,208,-100,-114,15,-117,-85,-84,-94,-96
-201,-223,-17,208,-88,-126,15,-117,-91,-84,-94,-96
-201,-223,-17,208,-88,-126,15,-117,-91,-84,-94,-96
-213,-223,-5,214,-100,-120,27,-117,-79,-84,-94,-90
-225,-223,6,220,-112,-114,39,-99,-79,-84,-94,-90
-243,-223,12,232,-130,-102,57,-93,-79,-84,-94,-90
-249,-199,42,220,-148,-78,87,-75,-61,-84,-82,-84
-255,-163,90,202,-178,-30,141,-45,-37,-60,-58,-72
-285,-103,180,190,-232,29,195,20,5,-30,-34,-66
-303,-55,246,178,-274,89,267,80,46,12,-4,-48
-279,29,300,124,-292,161,339,194,130,65,49,-7
-261,106,372,70,-316,239,411,314,250,161,133,59
-237,214,456,4,-346,329,465,440,382,293,259,143
-189,322,510,-61,-346,419,489,548,538,461,409,257
-111,400,510,-139,-310,455,459,620,712,611,547,353
9,412,408,-205,-202,407,363,632,844,731,649,419
134,442,300,-289,-76,371,189,512,910,845,739,467
260,508,246,-379,14,377,3,344,946,953,847,551
380,598,216,-493,79,407,-200,164,964,1055,961,641
464,700,234,-577,115,467,-410,-63,952,1139,1045,707
494,766,264,-625,109,515,-626,-351,826,1163,1081,755
500,748,246,-619,127,497,-848,-651,646,1103,1063,779
524,640,114,-577,205,377,-1082,-873,466,1007,979,755
524,448,-71,-487,295,185,-1220,-981,292,815,799,641
458,202,-251,-325,355,-18,-1274,-1083,29,497,529,455
380,-13,-401,-181,391,-210,-1286,-1251,-331,143,217,275
302,-151,-461,-73,379,-300,-1286,-1413,-661,-132,14,155
254,-253,-509,-8,379,-384,-1250,-1473,-883,-312,-160,41
194,-319,-515,58,355,-420,-1166,-1473,-1063,-456,-286,-42
128,-355,-485,106,307,-420,-1034,-1419,-1153,-546,-382,-120
44,-361,-407,154,223,-384,-884,-1233,-1057,-534,-400,-168
-27,-337,-305,184,133,-324,-698,-957,-841,-438,-352,-162
-87,-343,-251,208,79,-300,-500,-717,-649,-354,-310,-150
-135,-349,-215,238,31,-282,-380,-567,-523,-312,-286,-150
-159,-337,-179,244,14,-258,-296,-459,-433,-270,-244,-138
-159,-319,-161,232,8,-240,-218,-363,-355,-228,-202,-120
-147,-295,-149,214,8,-222,-158,-285,-313,-204,-184,-126
-147,-283,-137,208,2,-210,-104,-225,-277,-186,-184,-126
-147,-295,-149,214,8,-222,-80,-189,-253,-180,-184,-132
-147,-289,-143,214,2,-216,-56,-171,-235,-168,-178,-144
-147,-277,-131,208,-4,-210,-44,-147,-217,-174,-172,-138
-159,-265,-107,208,-22,-192,-32,-123,-193,-162,-160,-138
-177,-259,-83,214,-40,-174,-14,-111,-169,-144,-154,-126
-189,-253,-65,214,-58,-162,3,-111,-151,-132,-142,-120
-183,-229,-47,202,-64,-144,9,-105,-133,-126,-118,-90
-171,-205,-35,190,-64,-126,27,-87,-115,-102,-106,-90
-177,-199,-23,190,-70,-114,39,-81,-121,-102,-106,-96
-177,-199,-23,190,-70,-114,45,-75,-115,-102,-112,-96
-183,-199,-17,190,-76,-114,51,-69,-121,-108,-112,-102
-183,-205,-23,190,-76,-120,51,-57,-109,-108,-112,-102
-183,-211,-29,190,-70,-126,45,-63,-115,-108,-112,-102
-189,-217,-29,196,-76,-126,39,-63,-109,-108,-106,-102
-189,-223,-35,202,-70,-132,33,-69,-109,-114,-112,-102
-189,-229,-41,202,-70,-138,27,-75,-103,-108,-106,-96
-189,-223,-35,202,-70,-132,33,-75,-97,-108,-100,-96
-189,-217,-29,196,-76,-126,39,-75,-91,-102,-100,-96
-189,-211,-23,196,-76,-120,45,-75,-85,-102,-94,-90
-189,-211,-23,196,-76,-120,57,-75,-85,-96,-88,-90
-183,-205,-23,190,-76,-120,57,-69,-85,-96,-88,-90
-183,-205,-23,190,-76,-120,57,-69,-85,-96,-88,-96
-177,-205,-29,190,-70,-120,63,-63,-85,-96,-88,-96
-177,-205,-29,190,-70,-120,69,-57,-79,-96,-76,-90
-177,-205,-29,190,-70,-120,63,-57,-61,-90,-82,-96
-177,-199,-23,190,-70,-114,57,-57,-61,-90,-82,-90
-171,-205,-35,190,-64,-126,51,-57,-49,-84,-88,-96
-165,-205,-41,184,-58,-126,51,-57,-49,-84,-82,-96
-171,-199,-29,184,-64,-120,57,-57,-49,-78,-76,-90
-171,-199,-29,184,-64,-120,63,-51,-37,-78,-76,-90
-177,-193,-17,184,-76,-108,69,-45,-37,-78,-64,-90
-177,-187,-11,184,-76,-102,75,-45,-37,-78,-64,-90
-171,-187,-17,178,-70,-108,75,-45,-43,-72,-58,-90
-171,-187,-17,178,-70,-108,75,-45,-31,-72,-58,-90
-165,-187,-23,178,-64,-108,69,-39,-37,-72,-58,-90
-165,-187,-23,178,-64,-108,69,-39,-31,-72,-58,-90
-159,-187,-23,172,-64,-108,63,-39,-25,-72,-58,-90
-159,-181,-17,166,-64,-102,63,-39,-25,-66,-58,-90
-153,-175,-17,160,-64,-96,57,-33,-19,-66,-52,-90
-153,-175,-17,160,-64,-96,57,-21,-19,-66,-52,-84
-159,-175,-11,166,-70,-96,57,-21,-13,-54,-46,-84
-153,-175,-17,160,-64,-96,63,-15,-7,-54,-40,-84
-153,-169,-11,160,-64,-90,75,-15,5,-36,-40,-78
-153,-169,-11,160,-64,-90,81,-15,17,-36,-40,-66
-153,-169,-11,160,-64,-90,81,3,23,-30,-34,-60
-153,-169,-11,160,-64,-90,81,9,29,-24,-22,-60
-147,-175,-23,160,-58,-102,81,15,34,-12,-16,-48
-147,-175,-23,160,-58,-102,81,20,34,-6,-10,-48
-147,-163,-11,154,-64,-90,75,15,34,-12,-16,-54
-147,-157,-5,148,-64,-84,75,15,34,-12,-16,-48
-147,-151,1,148,-70,-78,69,20,34,-18,-22,-54
-141,-145,1,142,-64,-72,69,20,34,-18,-10,-54
-141,-139,6,136,-70,-66,69,20,34,-18,-16,-54
-141,-139,6,136,-70,-66,69,20,40,-12,-10,-42
-141,-145,1,142,-64,-72,63,20,52,0,-4,-48
-135,-145,-5,136,-58,-78,63,26,58,6,-4,-48
-129,-127,6,124,-64,-60,63,32,70,12,8,-42
-129,-127,6,124,-64,-60,63,38,76,18,8,-30
-123,-121,6,118,-58,-60,63,44,82,24,20,-24
-123,-115,6,118,-64,-54,57,44,88,30,20,-24
-123,-109,6,112,-64,-48,63,38,88,30,20,-18
-123,-103,12,112,-70,-42,63,50,88,35,26,-18
-117,-97,12,106,-64,-36,69,50,88,35,26,-18
-117,-97,12,106,-64,-36,69,50,94,35,38,-7
-111,-97,6,100,-58,-42,57,56,106,41,49,-7
-111,-91,12,100,-64,-36,57,62,118,53,49,-7
-99,-85,6,88,-52,-36,45,68,130,65,55,5
-87,-79,6,82,-46,-36,39,68,136,71,55,11
-87,-73,6,76,-46,-30,33,74,142,65,67,17
-87,-67,12,76,-52,-24,33,80,148,71,73,23
-75,-55,12,64,-46,-18,33,92,148,71,85,35
-75,-49,18,58,-46,-12,27,98,154,83,91,41
-63,-31,24,46,-46,0,27,104,172,89,97,53
-57,-25,24,40,-40,6,21,110,172,101,109,59
-45,-25,12,34,-28,0,21,110,184,113,115,65
-39,-13,18,22,-28,6,15,116,190,131,133,77
-21,-1,12,10,-16,12,3,116,202,137,133,77
-21,5,18,4,-22,18,3,116,202,149,145,83
-9,29,30,-14,-22,29,-2,110,202,143,151,83
-3,41,36,-20,-22,29,-8,104,208,149,151,95
-3,41,36,-20,-22,29,-26,110,220,167,169,107
3,52,42,-32,-22,41,-26,110,232,179,193,119
3,52,42,-32,-22,41,-38,122,250,197,205,131
15,52,42,-44,-10,47,-44,122,256,209,211,137
21,58,42,-50,-10,47,-44,116,256,215,229,143
27,58,36,-50,-4,47,-50,110,256,215,229,149
27,64,42,-50,-4,53,-50,104,250,221,235,155
33,70,42,-50,-4,53,-56,98,250,233,241,155
39,76,42,-50,2,59,-62,92,238,227,241,161
44,76,36,-55,8,53,-68,86,238,233,247,161
44,82,42,-55,2,59,-74,80,232,227,247,161
39,88,54,-55,-4,71,-80,74,226,227,247,161
39,82,48,-55,-4,65,-92,68,220,227,241,167
44,82,36,-61,8,59,-92,62,220,227,247,167
44,76,30,-55,14,53,-104,56,220,233,241,167
44,76,30,-55,14,53,-116,50,208,233,235,167
44,82,42,-55,2,59,-116,32,202,227,241,167
44,82,42,-55,2,59,-116,26,196,227,241,167
44,88,48,-61,2,65,-110,20,196,227,247,167
44,82,42,-55,2,59,-110,20,190,215,241,161
39,76,42,-50,2,59,-110,20,178,203,241,155
39,76,42,-50,2,59,-110,9,172,203,241,155
39,70,36,-50,2,53,-110,15,160,197,229,149
33,70,42,-50,-4,53,-110,15,154,191,223,143
27,70,48,-50,-10,59,-110,9,142,191,223,143
27,64,42,-50,-4,53,-110,3,136,185,223,137
27,58,36,-50,-4,47,-104,-3,124,185,217,125
27,52,30,-50,2,41,-98,-3,118,179,211,119
21,52,36,-44,-4,41,-86,-9,118,173,193,107
15,52,36,-38,-10,41,-80,-9,118,161,187,101
21,52,30,-44,-4,35,-62,-15,118,155,175,89
15,52,30,-38,-10,35,-56,-15,118,149,163,83
9,41,24,-26,-10,29,-32,-9,112,131,157,83
-3,29,24,-14,-16,29,-26,-9,100,125,145,65
-21,23,36,-2,-28,29,-20,3,88,113,139,59
-27,11,30,4,-28,24,-8,9,88,113,133,59
-27,-1,18,10,-22,12,3,9,88,95,127,47
-39,-7,24,22,-34,12,3,9,82,83,115,29
-39,-19,12,28,-28,0,3,3,88,65,109,23
-45,-25,12,34,-28,0,15,3,82,53,97,11
-45,-25,12,34,-28,0,27,15,82,53,97,-1
-57,-37,12,46,-34,-6,39,20,82,41,85,-7
-57,-31,18,40,-40,0,45,20,70,35,79,-7
-63,-43,12,52,-40,-12,57,20,64,35,67,-12
-75,-67,6,70,-40,-30,57,20,64,35,61,-18
-87,-79,6,82,-46,-36,63,15,64,30,49,-24
-93,-85,6,88,-46,-36,63,15,58,30,49,-24
-93,-97,1,94,-40,-48,69,9,58,24,49,-30
-87,-97,-5,88,-34,-54,75,15,52,12,44,-30
-93,-97,1,94,-40,-48,81,15,46,6,38,-36
-87,-97,-5,88,-34,-54,81,20,46,-6,32,-30
-87,-91,1,88,-40,-48,87,20,40,-12,26,-36
-93,-103,-5,94,-40,-54,87,9,34,-24,20,-42
-99,-103,1,100,-46,-54,87,9,34,-24,14,-42
-105,-109,1,106,-46,-54,87,3,34,-36,8,-48
-105,-115,-5,106,-46,-60,93,-3,34,-42,2,-48
-105,-109,1,106,-46,-54,93,-3,34,-42,-4,-48
-105,-109,1,106,-46,-54,93,-9,34,-42,-4,-48
-105,-109,1,106,-46,-54,87,-9,34,-42,-10,-48
-105,-115,-5,106,-46,-60,87,-9,29,-48,-10,-48
-105,-121,-11,112,-40,-66,87,-3,23,-48,-16,-60
-105,-121,-11,112,-40,-66,87,-9,17,-48,-22,-60
-105,-127,-17,112,-40,-72,87,-3,17,-54,-22,-66
-105,-127,-17,112,-40,-72,87,-3,17,-54,-22,-66
-105,-127,-17,112,-40,-72,87,-3,17,-48,-16,-66
-105,-127,-17,112,-40,-72,87,-3,17,-54,-16,-60
-105,-121,-11,112,-40,-66,87,-3,17,-48,-16,-54
-105,-121,-11,112,-40,-66,87,-3,17,-48,-16,-54
-105,-121,-11,112,-40,-66,87,-9,23,-48,-16,-54
-105,-127,-17,112,-40,-72,87,-9,17,-48,-16,-54
-105,-133,-23,118,-34,-78,93,-9,23,-48,-16,-54
-105,-133,-23,118,-34,-78,93,-9,29,-48,-16,-48
-105,-133,-23,118,-34,-78,93,-9,23,-60,-22,-54
-105,-133,-23,118,-34,-78,93,-9,23,-60,-22,-60
-105,-133,-23,118,-34,-78,93,-9,17,-66,-28,-66
-105,-133,-23,118,-34,-78,93,-9,17,-66,-28,-66
-111,-139,-23,124,-40,-84,87,-9,17,-66,-22,-66
-111,-139,-23,124,-40,-84,87,-9,17,-66,-22,-66
-117,-145,-23,130,-40,-84,81,-9,23,-66,-16,-60
-117,-145,-23,130,-40,-84,81,-9,23,-66,-16,-60
-111,-139,-23,124,-40,-84,81,-9,17,-66,-22,-66
-111,-139,-23,124,-40,-84,81,-9,17,-66,-16,-66
-105,-133,-23,118,-34,-78,81,-9,11,-60,-22,-72
-105,-133,-23,118,-34,-78,87,-9,11,-60,-22,-72
-111,-139,-23,124,-40,-84,87,-3,17,-60,-22,-66
-111,-139,-23,124,-40,-84,87,-3,17,-60,-22,-66
-105,-139,-29,118,-34,-84,87,-3,23,-60,-16,-66
-99,-133,-29,112,-28,-84,87,-3,29,-60,-16,-66
-93,-127,-29,106,-28,-78,93,3,29,-54,-10,-66
-93,-127,-29,106,-28,-78,93,9,29,-54,-10,-66
-87,-121,-29,100,-22,-78,99,15,29,-48,-10,-66
-87,-121,-29,100,-22,-78,99,15,29,-48,-10,-72
-93,-127,-29,106,-28,-78,93,9,23,-54,-16,-78
-99,-127,-23,112,-34,-78,93,9,17,-66,-16,-84
-99,-127,-23,112,-34,-78,87,3,11,-72,-22,-90
-105,-127,-17,112,-40,-72,87,3,11,-78,-22,-90
-99,-127,-23,112,-34,-78,93,9,17,-72,-16,-84
-111,-127,-11,118,-46,-72,93,9,17,-72,-16,-84
-105,-127,-17,112,-40,-72,99,15,23,-66,-10,-78
-105,-127,-17,112,-40,-72,99,15,29,-66,-10,-78
-111,-127,-11,118,-46,-72,93,15,29,-72,-16,-78
-111,-127,-11,118,-46,-72,99,15,29,-72,-10,-78
-117,-127,-5,118,-52,-66,93,9,23,-78,-16,-78
-117,-127,-5,118,-52,-66,93,9,23,-78,-22,-78
-111,-121,-5,112,-46,-66,93,3,17,-78,-28,-84
-111,-121,-5,112,-46,-66,93,3,11,-78,-28,-84
-111,-115,1,112,-52,-60,93,-3,5,-78,-34,-90
-111,-115,1,112,-52,-60,93,-3,5,-78,-28,-84
-111,-115,1,112,-52,-60,87,3,11,-72,-28,-90
-111,-115,1,112,-52,-60,93,3,5,-72,-28,-90
-111,-115,1,112,-52,-60,87,-3,11,-66,-28,-96
-105,-109,1,106,-46,-54,87,-3,11,-66,-28,-96
-105,-109,1,106,-46,-54,87,-3,5,-72,-28,-96
-105,-109,1,106,-46,-54,81,-3,-1,-72,-28,-96
-111,-115,1,112,-52,-60,87,-3,-7,-84,-22,-96
-111,-121,-5,112,-46,-66,87,-3,-7,-84,-22,-96
-105,-121,-11,112,-40,-66,87,-9,-7,-84,-22,-90
-105,-121,-11,112,-40,-66,87,-15,-13,-84,-22,-90
-105,-109,1,106,-46,-54,87,-15,-13,-84,-22,-84
-111,-109,6,106,-52,-54,87,-15,-13,-78,-22,-84
-117,-109,6,112,-58,-48,81,-15,-13,-78,-28,-84
-117,-115,6,112,-58,-54,81,-21,-13,-84,-28,-84
-117,-115,6,112,-58,-54,75,-21,-19,-84,-34,-84
-117,-115,6,112,-58,-54,75,-33,-19,-84,-34,-84
-111,-109,6,106,-52,-54,81,-33,-19,-78,-34,-84
-105,-103,6,100,-52,-48,81,-33,-25,-84,-34,-84
-93,-97,1,94,-40,-48,87,-33,-25,-78,-34,-84
-87,-91,1,88,-40,-48,81,-33,-25,-78,-34,-84
-87,-97,-5,88,-34,-54,87,-39,-25,-84,-34,-84
-93,-103,-5,94,-40,-54,87,-39,-25,-90,-40,-84
-105,-121,-11,112,-40,-66,93,-51,-31,-102,-40,-84
-117,-127,-5,118,-52,-66,87,-51,-31,-108,-40,-84
-111,-127,-11,118,-46,-72,81,-45,-31,-102,-40,-78
-105,-127,-17,112,-40,-72,81,-45,-31,-102,-40,-78
-99,-127,-23,112,-34,-78,75,-51,-31,-102,-40,-72
-99,-121,-17,106,-34,-72,75,-57,-31,-102,-40,-72
-105,-121,-11,112,-40,-66,75,-57,-37,-102,-40,-78
-105,-121,-11,112,-40,-66,75,-57,-37,-102,-40,-78
-111,-121,-5,112,-46,-66,75,-57,-43,-102,-40,-78
-111,-127,-11,118,-46,-72,75,-57,-49,-102,-40,-78
-117,-121,1,118,-52,-60,75,-57,-43,-102,-40,-78
-117,-121,1,118,-52,-60,75,-57,-43,-102,-40,-78
-123,-115,6,118,-64,-54,75,-63,-37,-102,-52,-78
-123,-115,6,118,-64,-54,75,-63,-43,-102,-52,-78
-123,-121,6,118,-58,-60,75,-69,-49,-114,-52,-78
-123,-121,6,118,-58,-60,75,-75,-49,-114,-52,-78
-117,-127,-5,118,-52,-66,69,-75,-55,-120,-52,-72
-117,-127,-5,118,-52,-66,63,-69,-55,-120,-52,-72
-117,-115,6,112,-58,-54,63,-69,-49,-120,-46,-72
-129,-115,6,118,-70,-48,75,-75,-49,-120,-46,-72
-117,-121,1,118,-52,-60,69,-75,-49,-120,-46,-78
-93,-121,-23,106,-28,-72,69,-63,-49,-114,-46,-78
-93,-121,-23,106,-28,-72,69,-69,-55,-114,-52,-84
-99,-127,-23,112,-34,-78,69,-69,-55,-114,-52,-90
-99,-127,-23,112,-34,-78,69,-69,-55,-114,-52,-90
-105,-133,-23,118,-34,-78,69,-69,-55,-114,-52,-96
-105,-133,-23,118,-34,-78,69,-69,-55,-114,-52,-96
-117,-133,-11,124,-46,-72,69,-69,-61,-114,-52,-96
-117,-133,-11,124,-46,-72,69,-69,-61,-114,-52,-96
-123,-133,-5,124,-52,-72,69,-69,-67,-108,-52,-90
-123,-133,-5,124,-52,-72,69,-69,-67,-108,-52,-90
-117,-133,-11,124,-46,-72,63,-69,-67,-114,-52,-96
-117,-133,-11,124,-46,-72,63,-69,-67,-114,-52,-96
-105,-121,-11,112,-40,-66,57,-69,-67,-114,-52,-90
-105,-121,-11,112,-40,-66,57,-69,-67,-114,-52,-90
-105,-121,-11,112,-40,-66,63,-69,-61,-114,-52,-90
-105,-127,-17,112,-40,-72,63,-69,-61,-114,-52,-90
-105,-127,-17,112,-40,-72,69,-69,-55,-120,-52,-96
-105,-127,-17,112,-40,-72,69,-75,-49,-120,-52,-96
-111,-133,-17,118,-40,-78,75,-81,-55,-126,-64,-96
-111,-133,-17,118,-40,-78,75,-81,-55,-126,-64,-96
-111,-139,-23,124,-40,-84,81,-87,-61,-132,-70,-96
-111,-139,-23,124,-40,-84,81,-87,-61,-132,-70,-96
-117,-133,-11,124,-46,-72,81,-87,-61,-126,-70,-102
-117,-133,-11,124,-46,-72,81,-81,-61,-126,-70,-108
-123,-127,1,124,-58,-66,75,-81,-61,-114,-70,-114
-123,-121,6,118,-58,-60,75,-75,-55,-114,-64,-108
-111,-121,-5,112,-46,-66,81,-69,-55,-120,-64,-108
-111,-115,1,112,-52,-60,81,-69,-49,-114,-58,-102
-105,-115,-5,106,-46,-60,93,-63,-37,-120,-58,-96
-105,-109,1,106,-46,-54,99,-51,-37,-108,-52,-90
-99,-103,1,100,-46,-54,105,-45,-31,-108,-52,-90
-99,-91,6,94,-52,-42,111,-39,-25,-102,-46,-84
-99,-91,6,94,-52,-42,111,-45,-25,-102,-46,-84
-93,-79,6,82,-52,-30,111,-39,-25,-102,-40,-84
-93,-79,6,82,-52,-30,117,-39,-25,-90,-34,-84
-93,-73,12,82,-52,-24,117,-39,-19,-90,-28,-78
-93,-73,12,82,-52,-24,117,-33,-13,-72,-22,-72
-93,-67,18,76,-58,-18,117,-33,-7,-72,-16,-72
-87,-61,18,70,-52,-18,117,-33,-13,-78,-16,-66
-87,-55,24,70,-58,-12,117,-33,-13,-78,-16,-66
-81,-55,18,64,-52,-12,117,-33,-19,-84,-16,-60
-81,-49,24,64,-52,-6,105,-33,-19,-84,-16,-60
-81,-49,24,64,-52,-6,105,-39,-25,-84,-16,-66
-81,-43,30,58,-58,0,99,-39,-25,-84,-16,-60
-87,-31,48,58,-70,12,99,-33,-31,-72,-4,-54
-81,-25,48,52,-64,18,99,-45,-31,-72,-4,-48
-81,-19,54,46,-70,24,93,-45,-31,-66,-4,-48
-81,-13,60,46,-70,29,87,-51,-31,-66,-4,-48
-69,-1,60,34,-64,29,81,-51,-31,-60,-4,-42
-63,-1,54,28,-58,29,75,-51,-37,-60,2,-36
-57,5,54,22,-58,29,69,-51,-37,-60,2,-36
-51,11,54,16,-52,29,69,-51,-31,-60,2,-30
-45,11,48,16,-46,29,63,-45,-25,-54,8,-30
-39,-1,30,16,-34,18,57,-45,-25,-54,8,-30
-33,-13,12,22,-22,6,45,-57,-37,-72,-4,-36
-27,-31,1,28,-10,-18,39,-69,-43,-78,-10,-42
-27,-37,-5,28,-4,-24,39,-69,-43,-90,-10,-42
-27,-49,-17,34,2,-36,39,-75,-49,-96,-22,-42
-27,-55,-23,40,2,-42,33,-75,-55,-102,-28,-42
-27,-61,-29,40,8,-48,27,-75,-55,-102,-34,-42
-27,-67,-35,46,8,-54,21,-69,-61,-108,-40,-42
-27,-73,-41,46,14,-60,21,-69,-61,-108,-46,-42
-39,-79,-35,58,2,-60,27,-69,-49,-102,-40,-48
-45,-85,-35,64,2,-60,39,-69,-49,-108,-40,-48
-63,-85,-17,70,-16,-54,51,-69,-43,-102,-34,-60
-63,-91,-23,76,-16,-60,51,-69,-43,-102,-40,-66
-81,-91,-5,82,-34,-48,57,-63,-43,-102,-40,-60
-93,-103,-5,94,-40,-54,63,-63,-43,-102,-40,-60
-105,-115,-5,106,-46,-60,69,-63,-49,-114,-52,-60
-111,-115,1,112,-52,-60,75,-63,-49,-114,-58,-54
-111,-127,-11,118,-46,-72,75,-63,-49,-114,-52,-60
-117,-133,-11,124,-46,-72,75,-69,-67,-120,-58,-66
-123,-145,-17,130,-46,-84,63,-75,-67,-126,-58,-78
-123,-145,-17,130,-46,-84,63,-75,-73,-132,-64,-78
-129,-157,-23,142,-46,-90,57,-93,-79,-138,-70,-84
-135,-157,-17,142,-52,-90,57,-93,-79,-144,-70,-84
-141,-157,-11,148,-58,-84,51,-93,-85,-150,-70,-90
-147,-151,1,148,-70,-78,51,-93,-85,-156,-70,-90
-141,-151,-5,142,-64,-78,57,-99,-85,-150,-70,-90
-135,-151,-11,142,-58,-84,57,-99,-85,-144,-70,-90
-129,-151,-17,136,-52,-84,63,-105,-85,-138,-70,-84
-123,-151,-23,136,-46,-90,63,-105,-85,-132,-70,-84
-129,-151,-17,136,-52,-84,63,-99,-79,-138,-70,-84
-135,-151,-11,142,-58,-84,63,-93,-79,-138,-70,-84
-135,-157,-17,142,-52,-90,63,-87,-79,-144,-70,-84
-135,-157,-17,142,-52,-90,63,-81,-79,-144,-70,-84
-123,-157,-29,136,-40,-96,51,-81,-79,-156,-70,-90
-123,-157,-29,136,-40,-96,51,-99,-79,-156,-82,-90
-129,-157,-23,142,-46,-90,69,-93,-79,-156,-82,-90
-147,-145,6,142,-70,-72,99,-75,-85,-144,-82,-96
-153,-127,18,136,-88,-48,129,-57,-61,-144,-82,-96
-183,-91,84,136,-136,0,171,-15,-31,-126,-58,-78
-207,-31,174,118,-196,65,243,56,23,-96,-28,-60
-207,29,234,88,-220,125,303,146,82,-42,14,-36
-195,94,288,40,-238,191,363,248,178,30,73,11
-183,190,372,-14,-274,275,417,356,286,131,175,83
-141,292,432,-67,-280,359,471,494,424,275,301,179
-63,388,456,-157,-256,419,489,620,592,437,457,281
33,448,420,-235,-196,431,483,716,766,587,577,359
134,466,324,-295,-88,395,423,728,898,719,679,419
248,484,234,-361,14,359,285,626,946,809,781,479
344,532,180,-439,79,353,111,446,964,917,877,545
428,604,174,-517,127,389,-32,266,988,1007,991,635
482,682,198,-577,139,443,-206,20,958,1091,1057,701
500,748,246,-619,127,497,-416,-333,772,1079,1087,743
500,748,246,-619,127,497,-638,-687,532,1013,1057,767
476,646,168,-559,151,407,-800,-915,328,899,955,713
422,388,-29,-403,229,179,-926,-1059,76,635,703,545
368,106,-257,-241,313,-72,-1028,-1227,-235,251,355,323
302,-55,-365,-121,331,-210,-1112,-1389,-577,-84,73,167
242,-139,-383,-50,307,-258,-1124,-1473,-835,-300,-100,65
182,-199,-389,4,283,-294,-1106,-1533,-1039,-468,-238,-7
116,-271,-395,70,259,-330,-1034,-1521,-1183,-606,-346,-84
44,-325,-371,136,205,-348,-896,-1401,-1183,-654,-412,-144
-15,-337,-317,178,145,-330,-764,-1197,-1039,-588,-388,-174
-51,-319,-263,184,103,-294,-632,-963,-847,-504,-346,-186
-75,-301,-227,190,67,-264,-464,-729,-679,-432,-310,-186
-87,-301,-215,190,55,-258,-344,-561,-559,-378,-292,-186
-87,-295,-209,190,55,-252,-284,-465,-469,-348,-274,-168
-87,-271,-185,178,43,-228,-218,-381,-409,-312,-238,-162
-87,-247,-161,166,31,-210,-152,-321,-373,-300,-226,-174
-87,-235,-149,160,25,-198,-104,-255,-325,-282,-214,-168
-87,-229,-143,160,19,-192,-68,-207,-283,-270,-196,-168
-87,-241,-155,166,25,-204,-32,-159,-241,-252,-184,-174
-87,-229,-143,160,19,-192,-20,-135,-211,-240,-172,-162
-105,-223,-119,166,14,-174,-14,-123,-193,-222,-154,-150
-117,-217,-101,166,-4,-162,3,-111,-163,-204,-142,-144
-111,-205,-95,160,-4,-156,9,-105,-145,-186,-130,-126
-123,-193,-71,160,-22,-138,27,-99,-151,-174,-118,-114
-123,-187,-59,154,-28,-126,45,-87,-151,-174,-118,-114
-123,-181,-53,148,-28,-120,51,-81,-145,-180,-124,-114
-123,-175,-47,148,-34,-114,63,-69,-145,-186,-124,-114
-123,-175,-47,148,-34,-114,63,-57,-133,-192,-124,-114
-129,-175,-41,148,-40,-108,63,-57,-133,-186,-118,-114
-135,-175,-35,154,-46,-108,63,-51,-127,-186,-112,-114
-141,-175,-29,154,-52,-102,63,-51,-121,-186,-112,-114
-141,-175,-29,154,-52,-102,63,-51,-115,-180,-106,-108
-135,-169,-29,148,-46,-102,63,-57,-109,-174,-100,-108
-129,-157,-23,142,-46,-90,63,-57,-103,-168,-100,-108
-123,-151,-23,136,-46,-90,63,-63,-97,-162,-94,-102
-117,-145,-23,130,-40,-84,69,-63,-97,-156,-88,-102
-123,-145,-17,130,-46,-84,69,-57,-97,-156,-88,-102
-123,-145,-17,130,-46,-84,69,-57,-97,-156,-88,-108
-129,-151,-17,136,-52,-84,75,-51,-97,-156,-88,-108
-129,-151,-17,136,-52,-84,81,-45,-91,-156,-76,-102
-129,-151,-17,136,-52,-84,81,-51,-85,-156,-76,-108
-129,-145,-11,136,-52,-78,75,-51,-85,-156,-76,-102
-123,-151,-23,136,-46,-90,75,-57,-85,-156,-76,-108
-117,-151,-29,130,-40,-90,75,-57,-85,-156,-70,-108
-117,-151,-29,130,-40,-90,69,-57,-79,-150,-76,-96
-117,-151,-29,130,-40,-90,69,-51,-67,-150,-76,-96
-117,-151,-29,130,-40,-90,63,-45,-61,-150,-76,-90
-117,-145,-23,130,-40,-84,63,-45,-61,-150,-76,-90
-117,-139,-17,124,-46,-78,69,-45,-55,-138,-70,-90
-117,-139,-17,124,-46,-78,69,-45,-43,-138,-70,-90
-117,-133,-11,124,-46,-72,69,-39,-37,-132,-70,-90
-117,-133,-11,124,-46,-72,69,-39,-31,-132,-70,-90
-117,-133,-11,124,-46,-72,69,-39,-37,-132,-64,-90
-117,-127,-5,118,-52,-66,69,-39,-43,-126,-64,-90
-117,-127,-5,118,-52,-66,69,-33,-49,-126,-52,-90
-117,-127,-5,118,-52,-66,69,-21,-55,-126,-52,-84
-117,-127,-5,118,-52,-66,69,-21,-49,-126,-46,-84
-111,-127,-11,118,-46,-72,69,-15,-43,-126,-40,-84
-105,-121,-11,112,-40,-66,81,-15,-31,-120,-40,-78
-105,-121,-11,112,-40,-66,81,-15,-19,-120,-40,-66
-105,-109,1,106,-46,-54,75,-9,-19,-114,-46,-66
-105,-109,1,106,-46,-54,75,-3,-13,-108,-34,-66
-99,-103,1,100,-46,-54,69,-9,-13,-96,-40,-60
-99,-103,1,100,-46,-54,69,-3,-7,-90,-34,-60
-93,-103,-5,94,-40,-54,69,-3,5,-96,-28,-60
-93,-103,-5,94,-40,-54,69,-3,5,-90,-28,-54
-87,-109,-17,94,-28,-66,69,9,5,-96,-22,-54
-81,-109,-23,94,-22,-66,69,9,5,-90,-10,-54
-87,-103,-11,94,-34,-60,75,9,11,-90,-16,-54
-93,-97,1,94,-40,-48,75,15,17,-84,-10,-42
-99,-103,1,100,-46,-54,75,20,29,-72,-4,-48
-99,-97,6,94,-46,-48,75,20,34,-66,-4,-48
-93,-79,6,82,-52,-30,69,20,34,-66,8,-48
-93,-79,6,82,-52,-30,69,20,34,-60,8,-36
-87,-73,6,76,-46,-30,63,20,34,-60,20,-36
-87,-67,12,76,-52,-24,57,20,34,-54,20,-36
-81,-67,6,70,-46,-24,51,20,34,-48,26,-18
-81,-61,12,70,-46,-18,51,26,34,-42,32,-18
-69,-61,6,64,-34,-24,45,26,40,-36,38,-7
-69,-61,6,64,-34,-24,45,26,46,-30,49,-7
-63,-55,6,58,-34,-24,39,32,46,-24,49,-1
-63,-49,6,52,-34,-18,39,38,58,-12,49,5
-51,-37,6,40,-28,-12,33,44,58,-6,49,17
-39,-31,6,34,-22,-12,27,44,64,0,49,23
-39,-25,6,28,-22,-6,21,38,76,0,55,29
-39,-19,12,28,-28,0,21,44,82,6,61,35
-27,-7,12,16,-22,6,21,44,88,12,73,47
-27,-1,18,10,-22,12,15,50,94,24,79,53
-27,11,30,4,-28,24,9,50,106,35,91,65
-21,17,30,-2,-28,29,3,56,106,35,103,71
-21,11,24,4,-22,24,3,50,112,53,115,77
-15,23,30,-8,-22,29,3,56,118,71,133,89
-3,29,24,-14,-16,29,-8,62,136,77,133,89
-3,35,30,-20,-16,29,-14,62,136,83,145,89
3,52,42,-32,-22,41,-26,62,142,77,151,89
9,52,48,-38,-16,47,-32,56,148,77,151,95
21,52,36,-44,-4,41,-56,50,148,89,169,107
27,64,42,-50,-4,53,-56,50,160,101,187,119
39,64,30,-50,8,47,-74,50,166,113,199,131
44,76,30,-55,14,53,-80,50,172,125,199,137
44,88,42,-61,8,65,-86,38,172,137,217,137
44,88,36,-67,14,65,-92,32,166,137,217,143
44,100,54,-67,2,77,-98,20,160,149,223,143
44,106,54,-73,2,83,-104,20,154,161,229,143
50,112,54,-79,8,83,-110,20,148,155,235,155
56,112,48,-85,14,83,-116,15,148,161,241,155
56,118,54,-85,8,89,-122,9,148,155,247,161
50,124,66,-85,2,95,-128,3,142,155,247,161
44,118,66,-79,-4,95,-140,-9,124,149,241,161
56,118,54,-85,8,89,-140,-21,124,149,247,161
50,112,54,-79,8,83,-152,-33,112,149,241,155
50,112,54,-79,8,83,-164,-45,100,149,235,155
56,118,54,-85,8,89,-170,-57,94,149,235,149
56,118,54,-85,8,89,-170,-63,88,149,235,149
68,124,48,-97,19,89,-170,-63,88,155,235,143
68,118,42,-91,19,83,-170,-69,82,143,229,137
56,112,48,-85,14,83,-170,-51,70,131,229,143
50,112,54,-79,8,83,-170,-33,64,131,229,143
44,106,54,-73,2,83,-170,-3,52,125,217,149
44,106,66,-67,-10,83,-170,20,46,119,211,143
39,100,66,-61,-10,83,-164,50,40,119,217,143
39,94,60,-61,-10,77,-164,74,40,113,217,137
39,82,48,-55,-4,65,-152,110,34,113,217,125
39,76,42,-50,2,59,-146,140,34,107,211,119
33,70,42,-50,-4,53,-134,146,34,95,193,119
27,64,42,-50,-4,53,-128,146,34,83,187,113
33,58,30,-50,2,41,-110,152,34,71,175,113
27,52,30,-50,2,41,-104,152,34,65,163,107
21,52,30,-44,-4,35,-86,146,34,47,151,95
3,47,36,-26,-16,35,-80,140,34,41,139,77
-15,47,54,-20,-34,41,-80,140,29,35,127,59
-27,35,54,-8,-40,35,-68,140,29,35,121,59
-21,29,42,-8,-34,29,-44,146,29,30,109,47
-27,23,42,-2,-34,29,-38,152,23,18,97,29
-21,17,30,-2,-28,29,-20,152,29,6,85,23
-21,11,24,4,-22,24,-8,158,23,-6,73,11
-27,5,24,10,-28,18,-2,170,29,-6,73,11
-39,-7,24,22,-34,12,3,176,29,-18,61,5
-45,-7,30,22,-40,18,3,182,23,-24,55,5
-51,-19,24,34,-40,6,9,182,17,-36,49,-1
-63,-37,18,46,-40,-6,21,182,23,-48,49,-7
-75,-43,24,58,-52,-6,27,182,23,-54,38,-12
-81,-43,30,58,-58,0,39,188,23,-66,32,-24
-81,-49,24,64,-52,-6,45,188,23,-72,32,-30
-81,-55,18,64,-52,-12,45,188,17,-78,14,-30
-93,-61,24,76,-58,-12,51,188,11,-84,8,-36
-93,-67,18,76,-58,-18,45,188,11,-90,-4,-30
-99,-67,24,82,-64,-18,51,188,5,-96,-10,-36
-93,-79,6,82,-52,-30,57,188,11,-96,-10,-36
-99,-79,12,88,-58,-30,57,188,17,-96,-10,-36
-93,-85,6,88,-46,-36,63,194,23,-96,-10,-36
-93,-91,6,88,-46,-42,69,188,23,-102,-10,-36
-93,-91,6,88,-46,-42,75,188,17,-102,-16,-42
-93,-91,6,88,-46,-42,75,182,17,-102,-16,-42
-93,-97,1,94,-40,-48,75,182,11,-102,-22,-48
-93,-103,-5,94,-40,-54,75,182,5,-108,-22,-48
-99,-109,-5,100,-40,-60,75,176,-1,-114,-28,-48
-99,-109,-5,100,-40,-60,75,170,-7,-114,-34,-48
-105,-115,-5,106,-46,-60,75,164,-7,-126,-34,-42
-105,-115,-5,106,-46,-60,75,164,-7,-126,-34,-42
-99,-121,-17,106,-34,-72,69,164,-1,-126,-34,-54
-99,-121,-17,106,-34,-72,69,164,-1,-132,-34,-54
-93,-121,-23,106,-28,-72,63,164,5,-132,-40,-60
-93,-121,-23,106,-28,-72,63,164,5,-132,-40,-66
-93,-115,-17,100,-34,-66,63,164,5,-132,-34,-66
-93,-121,-23,106,-28,-72,63,164,-1,-132,-34,-66
-93,-121,-23,106,-28,-72,69,170,-1,-132,-28,-66
-93,-121,-23,106,-28,-72,69,170,5,-132,-28,-60
-93,-121,-23,106,-28,-72,69,170,11,-132,-34,-54
-93,-121,-23,106,-28,-72,69,170,11,-132,-34,-60
-93,-121,-23,106,-28,-72,69,170,17,-126,-40,-54
-93,-121,-23,106,-28,-72,69,170,17,-126,-40,-54
-99,-127,-23,112,-34,-78,69,170,17,-126,-40,-66
-99,-127,-23,112,-34,-78,69,170,17,-126,-40,-66
-105,-133,-23,118,-34,-78,69,170,23,-126,-40,-72
-105,-133,-23,118,-34,-78,69,170,23,-126,-40,-72
-99,-127,-23,112,-34,-78,69,164,17,-132,-46,-78
-99,-127,-23,112,-34,-78,69,164,17,-132,-40,-78
-93,-121,-23,106,-28,-72,69,158,11,-132,-46,-84
-93,-121,-23,106,-28,-72,75,158,11,-132,-46,-84
-105,-121,-11,112,-40,-66,75,164,17,-132,-52,-84
-105,-121,-11,112,-40,-66,75,164,17,-132,-52,-84
-105,-115,-5,106,-46,-60,75,164,23,-132,-52,-90
-99,-109,-5,100,-40,-60,75,164,29,-132,-52,-90
-105,-115,-5,106,-46,-60,81,164,29,-132,-46,-84
-105,-115,-5,106,-46,-60,81,170,29,-132,-46,-84
-111,-121,-5,112,-46,-66,87,170,29,-132,-46,-78
-111,-121,-5,112,-46,-66,87,170,29,-132,-46,-84
-105,-121,-11,112,-40,-66,87,170,29,-126,-46,-84
-105,-121,-11,112,-40,-66,87,170,29,-126,-46,-90
-93,-115,-17,100,-34,-66,87,170,29,-120,-46,-90
-93,-115,-17,100,-34,-66,87,170,34,-114,-46,-90
-93,-115,-17,100,-34,-66,87,170,34,-120,-46,-96
-105,-115,-5,106,-46,-60,87,170,29,-126,-46,-96
-105,-115,-5,106,-46,-60,87,170,29,-132,-46,-102
-105,-115,-5,106,-46,-60,87,170,29,-138,-46,-102
-105,-115,-5,106,-46,-60,81,170,29,-138,-52,-102
-105,-115,-5,106,-46,-60,81,164,29,-138,-46,-102
-105,-115,-5,106,-46,-60,75,158,23,-138,-52,-102
-105,-115,-5,106,-46,-60,69,152,23,-138,-58,-102
-99,-115,-11,106,-40,-66,69,152,23,-132,-52,-96
-99,-115,-11,106,-40,-66,69,152,17,-132,-46,-90
-99,-115,-11,106,-40,-66,69,152,17,-126,-40,-84
-99,-115,-11,106,-40,-66,69,152,17,-126,-28,-72
-105,-115,-5,106,-46,-60,69,158,17,-126,-34,-78
-105,-115,-5,106,-46,-60,75,158,11,-126,-34,-78
-111,-115,1,112,-52,-60,75,152,11,-126,-40,-84
-105,-109,1,106,-46,-54,75,152,11,-126,-40,-84
-99,-109,-5,100,-40,-60,69,146,5,-132,-52,-90
-99,-109,-5,100,-40,-60,63,146,-1,-132,-52,-90
-99,-115,-11,106,-40,-66,63,140,-7,-144,-58,-96
-99,-121,-17,106,-34,-72,63,140,-7,-144,-58,-96
-99,-115,-11,106,-40,-66,69,134,-7,-144,-52,-90
-99,-115,-11,106,-40,-66,69,128,-13,-144,-52,-90
-105,-97,6,100,-52,-42,75,128,-13,-144,-46,-84
-111,-97,6,100,-58,-42,75,128,-13,-138,-46,-84
-111,-103,6,106,-58,-48,69,128,-7,-138,-40,-84
-111,-109,6,106,-52,-54,69,122,-7,-144,-40,-84
-105,-115,-5,106,-46,-60,63,122,-7,-144,-34,-84
-105,-115,-5,106,-46,-60,63,110,-7,-144,-34,-84
-105,-115,-5,106,-46,-60,63,110,-13,-144,-40,-84
-105,-115,-5,106,-46,-60,63,110,-19,-150,-40,-84
-99,-115,-11,106,-40,-66,63,110,-25,-150,-46,-84
-99,-115,-11,106,-40,-66,57,110,-25,-150,-46,-84
-99,-121,-17,106,-34,-72,57,110,-25,-150,-46,-84
-99,-121,-17,106,-34,-72,57,110,-25,-150,-52,-84
-111,-139,-23,124,-40,-84,57,104,-31,-156,-52,-84
-117,-139,-17,124,-46,-78,51,104,-31,-156,-52,-84
-117,-133,-11,124,-46,-72,51,104,-31,-156,-58,-90
-111,-133,-17,118,-40,-78,51,104,-31,-156,-58,-90
-111,-127,-11,118,-46,-72,51,92,-31,-162,-64,-96
-111,-121,-5,112,-46,-66,51,86,-31,-162,-64,-96
-111,-121,-5,112,-46,-66,51,86,-43,-162,-64,-96
-117,-121,1,118,-52,-60,45,86,-43,-162,-52,-84
-117,-127,-5,118,-52,-66,45,86,-43,-162,-52,-84
-117,-127,-5,118,-52,-66,45,86,-43,-162,-52,-84
-117,-133,-11,124,-46,-72,45,86,-43,-162,-52,-84
-117,-133,-11,124,-46,-72,45,86,-43,-162,-52,-84
-117,-133,-11,124,-46,-72,45,86,-49,-162,-52,-90
-117,-133,-11,124,-46,-72,45,86,-55,-162,-52,-90
-111,-133,-17,118,-40,-78,45,86,-61,-156,-52,-90
-111,-133,-17,118,-40,-78,45,86,-67,-156,-52,-90
-111,-139,-23,124,-40,-84,51,80,-61,-162,-58,-102
-111,-139,-23,124,-40,-84,51,80,-61,-162,-58,-102
-105,-133,-23,118,-34,-78,57,74,-55,-162,-64,-102
-105,-133,-23,118,-34,-78,57,74,-55,-162,-64,-102
-105,-133,-23,118,-34,-78,57,80,-49,-156,-58,-96
-105,-139,-29,118,-34,-84,57,80,-55,-156,-58,-96
-105,-139,-29,118,-34,-84,57,86,-49,-156,-52,-96
-105,-139,-29,118,-34,-84,57,80,-49,-156,-52,-96
-111,-145,-29,124,-34,-90,51,74,-55,-162,-64,-102
-111,-145,-29,124,-34,-90,45,68,-61,-168,-70,-102
-111,-151,-35,130,-34,-96,39,62,-67,-174,-76,-108
-111,-151,-35,130,-34,-96,33,56,-73,-180,-82,-108
-117,-145,-23,130,-40,-84,33,50,-73,-174,-76,-114
-117,-139,-17,124,-46,-78,33,56,-73,-174,-76,-120
-123,-133,-5,124,-52,-72,27,50,-73,-162,-70,-126
-123,-121,6,118,-58,-60,27,56,-67,-162,-64,-120
-111,-121,-5,112,-46,-66,39,62,-67,-162,-64,-120
-111,-121,-5,112,-46,-66,39,62,-61,-156,-58,-114
-105,-121,-11,112,-40,-66,57,68,-49,-156,-58,-108
-105,-121,-11,112,-40,-66,63,80,-49,-144,-52,-102
-105,-109,1,106,-46,-54,69,86,-37,-150,-52,-96
-105,-97,6,100,-52,-42,75,92,-31,-144,-46,-90
-111,-91,12,100,-64,-36,75,86,-25,-150,-46,-84
-105,-79,18,88,-64,-24,75,92,-25,-150,-40,-84
-105,-79,18,88,-64,-24,87,92,-31,-144,-40,-84
-105,-73,24,88,-64,-18,87,92,-25,-144,-34,-78
-105,-73,24,88,-64,-18,93,98,-25,-132,-34,-72
-105,-67,30,82,-70,-12,93,98,-19,-132,-28,-72
-105,-67,30,82,-70,-12,93,98,-19,-132,-28,-72
-105,-67,30,82,-70,-12,93,98,-19,-132,-28,-72
-105,-73,24,88,-64,-18,93,98,-19,-132,-28,-72
-105,-73,24,88,-64,-18,81,98,-19,-132,-28,-72
-93,-73,12,82,-52,-24,81,86,-19,-132,-22,-78
-93,-61,24,76,-58,-12,75,86,-19,-132,-22,-72
-87,-49,30,64,-58,-6,75,86,-19,-120,-4,-66
-81,-37,36,58,-58,6,75,74,-19,-120,-4,-60
-87,-31,48,58,-70,12,63,74,-25,-114,-4,-60
-87,-19,60,52,-76,24,57,68,-25,-114,-4,-60
-81,-7,66,40,-76,29,45,68,-31,-108,-4,-54
-75,-1,66,34,-70,29,39,68,-37,-108,2,-48
-69,5,66,28,-70,29,27,68,-37,-114,-4,-42
-63,11,66,22,-64,29,27,68,-31,-114,-4,-36
-57,11,60,22,-58,29,15,74,-25,-114,-4,-30
-51,-1,42,22,-46,24,9,74,-25,-114,-4,-30
-45,-25,12,34,-28,0,3,62,-43,-126,-16,-48
-39,-43,1,40,-16,-24,3,50,-49,-132,-22,-54
-39,-61,-17,46,-4,-42,3,50,-55,-138,-22,-66
-39,-73,-29,52,2,-54,3,44,-61,-144,-34,-66
-39,-67,-23,52,-4,-48,-2,38,-67,-144,-34,-72
-39,-67,-23,52,-4,-48,-2,38,-67,-144,-34,-72
-39,-61,-17,46,-4,-42,-8,38,-73,-144,-34,-78
-39,-61,-17,46,-4,-42,-2,38,-73,-144,-34,-78
-51,-67,-11,58,-16,-42,3,44,-61,-138,-34,-72
-57,-73,-11,64,-16,-42,3,44,-61,-144,-34,-66
-75,-73,6,70,-34,-36,15,50,-55,-138,-34,-66
-75,-79,1,76,-34,-42,15,50,-55,-138,-40,-66
-99,-85,6,88,-52,-36,21,50,-61,-138,-34,-72
-111,-103,6,106,-58,-48,27,50,-67,-138,-34,-78
-129,-121,6,124,-64,-54,33,44,-79,-150,-40,-90
-135,-127,6,130,-70,-60,39,44,-85,-150,-46,-90
-129,-133,1,130,-58,-66,33,44,-73,-156,-46,-90
-129,-139,-5,130,-58,-72,33,38,-85,-162,-52,-96
-129,-145,-11,136,-52,-78,15,32,-73,-174,-58,-102
-123,-145,-17,130,-46,-84,15,32,-73,-180,-64,-102
-129,-163,-29,142,-46,-96,9,20,-85,-186,-70,-102
-135,-163,-23,148,-52,-96,9,20,-91,-186,-70,-102
-141,-169,-23,154,-52,-96,3,20,-103,-192,-70,-102
-147,-163,-11,154,-64,-90,3,15,-109,-192,-70,-102
-141,-157,-11,148,-58,-84,9,20,-109,-192,-76,-108
-141,-157,-11,148,-58,-84,9,20,-109,-192,-76,-108
-135,-151,-11,142,-58,-84,15,20,-109,-192,-82,-108
-135,-151,-11,142,-58,-84,15,20,-109,-192,-82,-108
-147,-157,-5,148,-64,-84,9,20,-109,-198,-88,-114
-153,-157,1,154,-70,-78,9,20,-109,-198,-88,-114
-159,-169,-5,160,-70,-90,3,20,-115,-204,-94,-120
-159,-169,-5,160,-70,-90,3,20,-115,-204,-94,-120
-147,-157,-5,148,-64,-84,15,20,-103,-204,-70,-102
-135,-157,-17,142,-52,-90,3,20,-115,-204,-70,-90
-141,-157,-11,148,-58,-84,9,20,-115,-204,-70,-90
-147,-145,6,142,-70,-72,39,20,-97,-192,-70,-96
-177,-139,30,154,-106,-48,81,50,-97,-192,-70,-96
-213,-115,96,166,-160,-6,135,80,-67,-162,-46,-90
-219,-67,150,142,-190,35,189,140,-25,-132,-28,-84
-219,-7,210,112,-220,95,243,218,34,-90,2,-72
-213,58,276,70,-244,167,303,314,106,-30,49,-24
-195,154,348,10,-268,251,369,428,208,59,139,11
-153,280,432,-55,-286,353,447,560,340,179,259,107
-87,376,468,-139,-274,419,471,680,514,341,409,215
-15,448,468,-211,-238,455,447,758,682,509,553,323
74,478,396,-277,-154,437,375,806,862,671,691,407
200,472,264,-331,-28,371,231,734,946,809,811,479
278,520,240,-397,19,377,51,548,964,929,937,557
356,580,222,-469,67,401,-92,350,976,1031,1033,635
398,670,264,-535,61,473,-284,86,934,1103,1105,701
428,736,300,-577,61,515,-542,-285,742,1091,1135,743
452,760,300,-601,73,527,-788,-651,478,1013,1105,755
452,682,228,-565,109,455,-968,-891,274,911,1003,713
434,472,30,-451,199,257,-1088,-1011,64,695,805,593
368,166,-203,-271,283,-12,-1172,-1149,-235,341,499,395
290,-31,-329,-127,307,-180,-1238,-1305,-589,-24,181,215
218,-115,-335,-50,271,-222,-1262,-1407,-871,-276,-16,101
182,-187,-377,-2,277,-282,-1232,-1449,-1087,-450,-160,17
128,-271,-407,64,265,-336,-1154,-1431,-1243,-606,-286,-60
62,-325,-395,124,229,-360,-1022,-1341,-1303,-696,-388,-144
21,-337,-353,160,181,-348,-896,-1149,-1171,-672,-412,-186
-27,-331,-299,178,133,-318,-728,-897,-937,-564,-358,-198
-63,-313,-245,190,85,-282,-542,-651,-757,-486,-322,-198
-87,-301,-215,190,55,-258,-416,-489,-619,-450,-292,-210
-87,-295,-209,190,55,-252,-344,-387,-529,-408,-262,-204
-99,-271,-173,184,31,-222,-284,-285,-463,-360,-226,-186
-99,-235,-137,166,19,-192,-212,-207,-421,-336,-202,-186
-99,-223,-125,160,19,-180,-164,-141,-373,-306,-184,-192
-99,-241,-143,172,19,-198,-116,-87,-331,-294,-178,-192
-111,-241,-131,178,14,-192,-80,-51,-301,-288,-184,-198
-111,-241,-131,178,14,-192,-68,-27,-283,-288,-172,-186
-117,-235,-119,178,8,-180,-62,-15,-259,-270,-154,-174
-117,-217,-101,166,-4,-162,-44,-3,-217,-246,-142,-168
-123,-205,-83,166,-16,-150,-38,3,-205,-228,-118,-150
-123,-193,-71,160,-22,-138,-20,9,-199,-228,-106,-138
-129,-187,-59,160,-28,-126,-8,15,-199,-222,-100,-138
-129,-187,-53,154,-34,-120,-2,20,-193,-222,-106,-138
-135,-187,-47,160,-40,-120,3,20,-193,-222,-100,-138
-135,-187,-47,160,-40,-120,3,26,-181,-222,-100,-138
-129,-181,-47,154,-34,-114,3,32,-181,-210,-94,-138
-135,-181,-41,154,-40,-114,3,44,-175,-210,-88,-138
-129,-175,-41,148,-40,-108,3,50,-169,-204,-88,-138
-129,-175,-41,148,-40,-108,3,56,-163,-204,-82,-132
-129,-175,-41,148,-40,-108,3,50,-157,-204,-82,-132
-129,-169,-35,148,-40,-102,3,50,-151,-198,-82,-132
-129,-169,-35,148,-40,-102,3,44,-145,-198,-82,-126
-129,-169,-35,148,-40,-102,9,44,-145,-192,-76,-126
-123,-157,-29,136,-40,-96,9,44,-145,-192,-70,-126
-123,-157,-29,136,-40,-96,9,44,-145,-192,-70,-132
-117,-151,-29,130,-40,-90,15,44,-145,-192,-64,-132
-117,-151,-29,130,-40,-90,21,50,-139,-192,-52,-126
-117,-145,-23,130,-40,-84,15,56,-127,-186,-52,-120
-117,-139,-17,124,-46,-78,9,56,-127,-186,-52,-114
-111,-139,-23,124,-40,-84,3,62,-121,-180,-52,-108
-105,-139,-29,118,-34,-84,3,62,-121,-180,-46,-108
-111,-145,-29,124,-34,-90,3,56,-127,-174,-46,-102
-111,-145,-29,124,-34,-90,3,56,-115,-174,-46,-102
-117,-151,-29,130,-40,-90,3,56,-121,-174,-40,-102
-117,-145,-23,130,-40,-84,3,50,-121,-174,-40,-102
-123,-145,-17,130,-46,-84,9,50,-127,-174,-40,-108
-123,-145,-17,130,-46,-84,9,50,-115,-174,-40,-108
-129,-145,-11,136,-52,-78,9,56,-121,-180,-46,-114
-129,-145,-11,136,-52,-78,9,56,-115,-180,-46,-114
-123,-133,-5,124,-52,-72,9,56,-115,-174,-46,-114
-123,-127,1,124,-58,-66,9,56,-115,-168,-46,-114
-117,-115,6,112,-58,-54,9,62,-115,-162,-40,-114
-117,-115,6,112,-58,-54,9,74,-115,-162,-40,-108
-111,-115,1,112,-52,-60,3,68,-109,-156,-28,-102
-105,-115,-5,106,-46,-60,3,74,-103,-156,-22,-102
-93,-109,-11,100,-34,-60,9,68,-91,-144,-16,-90
-93,-109,-11,100,-34,-60,9,68,-79,-144,-16,-78
-99,-97,6,94,-46,-48,3,80,-79,-150,-16,-84
-99,-97,6,94,-46,-48,3,86,-79,-144,-4,-84
-99,-91,6,94,-52,-42,3,86,-79,-144,-4,-84
-99,-91,6,94,-52,-42,3,92,-79,-138,2,-84
-99,-91,6,94,-52,-42,3,92,-67,-132,8,-84
-99,-91,6,94,-52,-42,3,92,-67,-126,8,-78
-99,-97,6,94,-46,-48,9,104,-67,-120,14,-78
-93,-97,1,94,-40,-48,9,104,-67,-114,26,-78
-93,-91,6,88,-46,-42,9,98,-67,-114,26,-72
-93,-85,6,88,-46,-36,9,104,-61,-108,32,-60
-93,-91,6,88,-46,-42,3,104,-55,-96,44,-60
-87,-85,6,82,-40,-42,3,110,-49,-90,44,-60
-87,-67,12,76,-52,-24,3,116,-43,-90,44,-54
-87,-67,12,76,-52,-24,3,122,-37,-84,44,-42
-87,-61,18,70,-52,-18,3,128,-37,-84,44,-36
-87,-55,24,70,-58,-12,-2,128,-31,-78,44,-36
-81,-49,24,64,-52,-6,3,128,-25,-72,49,-24
-81,-43,30,58,-58,0,3,140,-25,-66,49,-24
-69,-37,24,52,-46,0,3,146,-19,-60,49,-18
-69,-37,24,52,-46,0,3,146,-13,-54,61,-7
-69,-37,24,52,-46,0,3,152,-7,-48,67,-7
-69,-31,30,46,-52,6,3,158,5,-36,73,-7
-63,-25,30,40,-46,6,-2,164,11,-30,79,-7
-51,-19,24,34,-40,6,-8,164,17,-24,79,-1
-57,-13,36,34,-46,18,-20,164,23,-24,91,11
-57,-7,42,28,-52,24,-26,170,29,-18,97,17
-51,5,48,22,-52,29,-32,176,29,-12,109,35
-51,11,54,16,-52,29,-44,182,34,0,115,41
-39,29,60,4,-52,35,-50,182,34,6,121,47
-33,35,60,-2,-46,41,-56,182,34,18,133,53
-21,35,48,-8,-34,35,-62,176,40,30,139,53
-15,47,54,-20,-34,41,-68,176,46,35,157,65
-3,52,54,-32,-28,47,-80,182,58,47,169,77
-3,52,60,-32,-28,53,-86,182,58,59,181,89
3,76,78,-50,-34,77,-98,182,58,59,199,101
9,88,84,-50,-34,83,-104,176,64,65,199,119
21,94,78,-50,-28,83,-122,182,64,77,205,119
27,106,84,-61,-28,95,-122,182,76,89,223,125
39,112,78,-67,-16,95,-134,194,82,101,223,125
44,124,78,-79,-10,101,-140,194,88,113,223,125
44,124,78,-79,-10,101,-140,182,94,119,247,131
44,118,66,-79,-4,95,-140,176,94,119,247,137
44,118,72,-79,-10,95,-140,164,94,125,259,143
44,118,66,-79,-4,95,-140,158,94,137,265,143
50,124,66,-85,2,95,-152,152,82,137,271,149
56,124,60,-91,8,95,-158,146,82,143,277,149
56,130,66,-91,2,101,-170,140,76,143,283,149
50,136,78,-91,-4,107,-176,134,70,143,283,149
50,142,84,-97,-10,113,-182,128,52,143,277,149
62,148,78,-103,2,113,-182,122,52,143,283,149
62,154,84,-109,-4,119,-188,116,40,149,277,143
62,160,90,-109,-4,125,-200,110,34,149,271,143
62,160,90,-109,-4,125,-206,86,34,137,271,143
62,160,90,-109,-4,125,-206,80,29,137,271,143
68,160,84,-115,2,125,-206,68,29,131,271,143
68,154,78,-109,2,119,-206,62,23,119,265,137
62,148,78,-103,2,113,-206,56,11,119,265,137
62,142,72,-103,2,107,-206,50,5,119,265,137
62,136,66,-97,8,101,-206,56,-7,125,253,137
56,130,66,-91,2,101,-206,62,-13,119,247,131
50,130,72,-91,-4,101,-200,56,-25,107,247,137
50,124,66,-85,2,95,-200,44,-31,101,247,131
50,118,60,-85,2,89,-188,38,-43,89,241,125
50,112,54,-79,8,83,-182,32,-49,83,235,119
44,112,66,-73,-4,89,-182,32,-55,77,217,107
44,106,66,-67,-10,83,-176,32,-55,65,211,101
44,106,66,-67,-10,83,-170,32,-61,59,199,89
39,100,66,-61,-10,83,-164,32,-61,53,187,83
39,94,60,-61,-10,77,-140,38,-67,41,181,83
27,82,60,-50,-16,71,-134,38,-79,35,169,65
15,82,72,-50,-28,77,-128,50,-91,35,163,59
9,70,66,-50,-28,65,-116,56,-91,35,157,59
9,58,54,-44,-22,53,-92,62,-97,24,139,53
-3,52,60,-32,-28,53,-86,62,-103,6,127,35
-3,52,48,-26,-28,41,-68,62,-103,-12,109,35
-9,47,48,-20,-28,41,-56,62,-109,-30,97,23
-9,47,48,-20,-28,41,-50,68,-109,-24,97,11
-21,35,48,-8,-34,35,-38,74,-109,-36,85,5
-21,41,54,-14,-40,41,-38,74,-121,-36,79,-7
-27,29,48,-2,-40,29,-26,74,-127,-48,67,-7
-27,11,30,4,-28,24,-20,74,-121,-54,67,-7
-39,5,36,16,-40,24,-14,74,-121,-60,55,-12
-33,5,30,10,-34,24,-8,80,-121,-66,55,-12
-33,-1,24,16,-28,18,-2,80,-121,-72,55,-18
-33,-7,18,16,-28,12,3,80,-133,-84,49,-18
-45,-13,24,28,-34,12,3,80,-139,-90,49,-24
-45,-19,18,28,-34,6,3,80,-145,-102,44,-18
-51,-19,24,34,-40,6,3,80,-151,-108,38,-24
-45,-25,12,34,-28,0,3,74,-145,-108,32,-30
-51,-25,18,34,-34,0,3,74,-145,-102,26,-30
-45,-25,12,34,-28,0,3,74,-139,-102,20,-36
-45,-31,6,34,-28,-6,9,68,-145,-102,14,-36
-51,-25,18,34,-34,0,9,74,-145,-102,14,-36
-51,-25,18,34,-34,0,9,68,-145,-102,14,-36
-57,-25,24,40,-40,6,3,74,-145,-102,14,-36
-57,-31,18,40,-40,0,3,74,-151,-108,14,-36
-51,-31,12,40,-34,-6,9,74,-157,-114,14,-42
-51,-31,12,40,-34,-6,9,68,-163,-114,8,-42
-45,-31,6,34,-28,-6,15,68,-163,-126,14,-42
-45,-31,6,34,-28,-6,15,68,-163,-126,14,-42
-51,-37,6,40,-28,-12,9,62,-169,-126,8,-48
-51,-37,6,40,-28,-12,9,62,-169,-132,8,-48
-57,-37,12,46,-34,-6,3,56,-175,-132,-4,-48
-57,-37,12,46,-34,-6,3,56,-175,-132,-4,-54
-51,-37,6,40,-28,-12,3,56,-169,-126,2,-60
-51,-43,6,46,-28,-18,3,56,-175,-126,2,-60
-45,-49,1,46,-16,-24,9,62,-169,-120,8,-66
-45,-49,1,46,-16,-24,9,62,-163,-120,8,-60
-51,-43,6,46,-28,-18,9,62,-169,-126,2,-60
-51,-43,6,46,-28,-18,9,62,-169,-126,2,-66
-57,-37,12,46,-34,-6,9,62,-175,-126,-4,-66
-57,-37,12,46,-34,-6,9,62,-175,-126,-4,-66
-57,-43,6,46,-34,-12,9,68,-169,-126,-4,-72
-57,-43,6,46,-34,-12,9,68,-169,-126,-4,-72
-57,-49,6,52,-28,-18,9,74,-157,-126,-4,-72
-57,-49,6,52,-28,-18,9,74,-157,-126,-4,-72
-51,-43,6,46,-28,-18,9,80,-157,-120,2,-66
-51,-43,6,46,-28,-18,9,80,-157,-120,14,-66
-45,-37,6,40,-22,-12,9,86,-157,-108,20,-60
-45,-37,6,40,-22,-12,15,86,-157,-108,26,-60
-57,-49,6,52,-28,-18,15,92,-157,-108,14,-60
-57,-49,6,52,-28,-18,15,92,-157,-108,14,-60
-57,-55,6,52,-28,-24,15,92,-157,-108,8,-66
-51,-49,6,46,-22,-24,15,92,-151,-108,8,-66
-51,-43,6,46,-28,-18,15,92,-151,-114,14,-66
-51,-43,6,46,-28,-18,15,98,-151,-114,14,-66
-51,-37,6,40,-28,-12,15,98,-151,-120,14,-66
-51,-37,6,40,-28,-12,15,98,-151,-120,14,-72
-51,-43,6,46,-28,-18,21,104,-145,-114,14,-66
-51,-43,6,46,-28,-18,21,104,-145,-120,14,-72
-45,-43,6,40,-22,-18,27,110,-139,-114,14,-66
-45,-43,6,40,-22,-18,27,110,-133,-114,14,-66
-39,-37,6,34,-16,-18,27,104,-139,-114,14,-66
-51,-37,6,40,-28,-12,27,104,-145,-114,14,-66
-45,-31,6,34,-28,-6,27,98,-151,-114,14,-66
-45,-31,6,34,-28,-6,27,98,-151,-114,14,-66
-51,-31,12,40,-34,-6,21,104,-151,-114,8,-66
-51,-31,12,40,-34,-6,27,104,-151,-114,14,-66
-57,-31,18,40,-40,0,21,104,-157,-114,8,-66
-57,-31,18,40,-40,0,21,104,-157,-114,2,-66
-57,-25,24,40,-40,6,21,98,-157,-108,8,-66
-57,-25,24,40,-40,6,21,98,-163,-108,8,-66
-63,-19,36,40,-52,12,21,92,-163,-102,14,-66
-63,-19,36,40,-52,12,21,92,-163,-102,20,-60
-69,-25,36,46,-52,12,15,92,-157,-108,26,-54
-69,-25,36,46,-52,12,21,92,-163,-108,26,-54
-75,-31,36,52,-58,6,15,80,-157,-114,32,-48
-69,-25,36,46,-52,12,15,80,-157,-114,32,-48
-57,-19,30,34,-46,12,9,80,-163,-108,32,-48
-51,-13,30,28,-40,12,3,80,-169,-108,32,-48
-45,-13,24,28,-34,12,3,80,-175,-108,38,-48
-39,-13,18,22,-28,6,3,80,-175,-108,38,-48
-39,-13,18,22,-28,6,9,80,-169,-108,38,-48
-39,-13,18,22,-28,6,9,74,-175,-108,38,-48
-45,-1,36,22,-40,24,15,80,-169,-108,38,-48
-51,-1,42,22,-46,24,15,80,-169,-102,38,-48
-57,-7,42,28,-52,24,9,74,-175,-108,32,-48
-57,-19,30,34,-46,12,9,68,-175,-120,32,-48
-57,-25,24,40,-40,6,3,62,-187,-126,26,-48
-57,-31,18,40,-40,0,3,50,-187,-132,26,-48
-63,-25,30,40,-46,6,3,50,-193,-132,32,-42
-63,-25,30,40,-46,6,3,50,-199,-138,32,-42
-63,-19,36,40,-52,12,3,50,-205,-138,38,-36
-63,-19,36,40,-52,12,3,50,-205,-138,38,-36
-51,-19,24,34,-40,6,3,44,-205,-132,32,-36
-51,-19,24,34,-40,6,3,44,-199,-132,26,-36
-51,-31,12,40,-34,-6,9,32,-205,-132,20,-36
-57,-31,18,40,-40,0,3,32,-199,-132,20,-36
-57,-19,30,34,-46,12,3,44,-199,-132,14,-36
-51,-19,24,34,-40,6,3,44,-199,-132,14,-36
-51,-19,24,34,-40,6,3,44,-187,-126,20,-36
-57,-25,24,40,-40,6,3,38,-199,-126,20,-48
-57,-25,24,40,-40,6,3,38,-199,-126,26,-42
-57,-25,24,40,-40,6,3,38,-199,-126,26,-42
-57,-25,24,40,-40,6,3,38,-199,-126,32,-36
-57,-25,24,40,-40,6,3,38,-199,-126,32,-36
-63,-25,30,40,-46,6,3,32,-205,-132,26,-48
-63,-25,30,40,-46,6,3,32,-205,-132,26,-48
-63,-25,30,40,-46,6,3,26,-205,-132,20,-54
-63,-25,30,40,-46,6,3,26,-205,-132,20,-54
-63,-31,24,46,-46,0,3,20,-205,-138,20,-60
-63,-31,24,46,-46,0,3,20,-205,-138,20,-60
-57,-25,24,40,-40,6,3,20,-205,-138,20,-54
-57,-25,24,40,-40,6,3,20,-205,-138,20,-54
-63,-25,30,40,-46,6,3,20,-205,-132,20,-54
-63,-31,24,46,-46,0,3,20,-211,-132,20,-54
-69,-31,30,46,-52,6,3,26,-211,-132,20,-60
-69,-31,30,46,-52,6,3,20,-211,-132,20,-60
-63,-25,30,40,-46,6,3,20,-217,-138,8,-60
-63,-19,36,40,-52,12,3,20,-217,-138,8,-60
-51,-13,30,28,-40,12,3,20,-223,-144,2,-60
-51,-7,36,28,-46,18,3,20,-223,-144,2,-60
-57,-13,36,34,-46,18,9,20,-217,-138,8,-54
-57,-13,36,34,-46,18,9,20,-217,-138,14,-54
-63,-19,36,40,-52,12,15,26,-211,-126,20,-48
-63,-13,42,34,-52,18,15,32,-205,-126,32,-36
-63,-13,42,34,-52,18,15,32,-205,-132,26,-42
-63,-13,42,34,-52,18,15,32,-205,-126,26,-36
-69,-13,48,40,-58,24,21,32,-193,-132,20,-36
-69,-13,48,40,-58,24,27,44,-193,-120,20,-30
-57,-1,48,28,-52,29,33,50,-187,-114,26,-36
-57,17,66,16,-64,35,39,56,-181,-108,32,-30
-51,23,66,10,-58,35,39,50,-181,-102,38,-36
-45,41,78,-2,-64,53,39,56,-181,-102,44,-36
-45,41,78,-2,-64,53,45,56,-187,-102,38,-36
-45,41,78,-2,-64,53,45,56,-181,-102,44,-30
-45,41,78,-2,-64,53,45,62,-181,-96,38,-24
-45,41,78,-2,-64,53,45,62,-175,-96,44,-24
-45,47,84,-2,-64,59,51,62,-175,-90,44,-24
-45,47,84,-2,-64,59,51,62,-175,-90,44,-24
-45,47,84,-2,-64,59,57,62,-175,-84,44,-24
-45,47,84,-2,-64,59,45,62,-175,-84,44,-24
-39,52,90,-14,-64,65,39,44,-181,-84,44,-24
-39,58,102,-20,-70,77,33,44,-181,-84,44,-18
-39,82,126,-32,-82,101,27,38,-187,-72,49,-7
-33,94,132,-38,-82,113,27,26,-187,-72,49,-7
-33,100,138,-44,-82,119,15,32,-187,-78,49,-7
-33,106,144,-44,-88,125,9,26,-187,-78,49,-7
-21,118,144,-50,-82,131,3,32,-187,-84,49,-7
-15,118,138,-50,-76,125,3,32,-193,-84,49,-1
-9,118,132,-50,-70,125,-2,26,-193,-78,55,-7
-3,124,132,-55,-64,125,-2,26,-187,-78,55,-1
3,118,120,-55,-58,119,-8,26,-181,-66,67,-7
9,106,102,-50,-46,101,-14,26,-181,-66,67,-7
9,88,84,-50,-34,83,-20,20,-193,-78,55,-7
15,70,60,-50,-22,65,-26,20,-199,-84,49,-7
9,58,54,-44,-22,53,-20,20,-199,-90,49,-7
9,52,42,-38,-16,41,-20,20,-205,-96,49,-7
15,52,42,-44,-10,47,-20,20,-205,-90,49,-7
21,52,36,-44,-4,41,-20,20,-205,-90,49,-7
27,58,36,-50,-4,47,-20,26,-205,-84,49,-7
33,58,30,-50,2,41,-14,26,-205,-84,49,-7
15,52,30,-38,-10,35,-14,20,-205,-90,44,-12
3,47,36,-26,-16,35,-2,20,-205,-102,44,-12
-21,35,48,-8,-34,35,3,20,-205,-108,38,-24
-27,29,48,-2,-40,29,3,15,-205,-114,32,-30
-39,29,60,4,-52,35,3,20,-205,-108,32,-24
-51,17,60,16,-58,29,3,20,-205,-108,32,-30
-57,5,54,22,-58,29,3,20,-211,-114,20,-30
-63,5,60,28,-64,29,3,20,-211,-114,14,-30
-63,-7,48,34,-58,24,3,20,-211,-120,14,-36
-69,-13,48,40,-58,24,3,15,-229,-126,8,-42
-75,-25,42,46,-58,12,-8,-3,-229,-138,2,-54
-75,-25,42,46,-58,12,-8,-3,-235,-144,-4,-54
-69,-37,24,52,-46,0,-8,-15,-241,-144,-10,-54
-69,-37,24,52,-46,0,-8,-15,-241,-144,-10,-54
-63,-37,18,46,-40,-6,-8,-9,-247,-144,-10,-54
-63,-31,24,46,-46,0,-8,-9,-247,-144,-10,-54
-69,-37,24,52,-46,0,-8,-9,-247,-144,-4,-54
-75,-37,30,52,-52,0,-8,-9,-247,-144,-4,-54
-81,-43,30,58,-58,0,-8,-9,-247,-144,2,-48
-87,-43,36,64,-64,0,-8,-9,-247,-144,2,-48
-87,-43,36,64,-64,0,-8,-9,-247,-144,-4,-54
-93,-43,42,64,-70,6,-8,-9,-247,-144,-4,-54
-87,-49,30,64,-58,-6,-8,-9,-253,-144,-10,-60
-87,-49,30,64,-58,-6,-8,-9,-253,-144,-10,-60
-87,-61,18,70,-52,-18,-8,-9,-253,-144,-22,-66
-75,-37,30,52,-52,0,3,-3,-241,-132,-10,-54
-81,-37,36,58,-58,6,21,15,-241,-132,-10,-54
-111,-37,66,70,-88,18,39,20,-247,-144,-10,-60
-129,-7,114,64,-124,47,69,26,-223,-132,2,-60
-135,29,156,52,-148,83,123,68,-199,-114,26,-42
-153,76,234,28,-190,155,177,128,-157,-96,44,-24
-153,148,300,-8,-220,227,243,218,-85,-42,73,-1
-147,226,372,-50,-256,293,315,314,-1,30,133,47
-135,292,432,-73,-280,359,381,440,100,131,235,119
-105,406,510,-145,-304,461,447,560,250,281,361,203
-39,520,558,-235,-298,533,471,680,430,461,517,305
33,586,558,-301,-262,569,435,752,598,611,661,383
134,604,468,-367,-160,533,327,758,748,755,781,455
260,634,372,-445,-52,509,159,662,838,881,895,527
368,706,330,-535,19,515,-20,482,880,1007,1021,617
464,784,312,-619,73,545,-224,260,868,1103,1117,707
494,844,348,-667,67,599,-476,-33,778,1151,1177,767
500,874,372,-685,61,623,-740,-405,574,1139,1195,815
524,874,348,-697,85,611,-968,-729,322,1073,1165,827
524,778,246,-649,133,515,-1130,-927,142,971,1069,779
482,532,42,-505,217,287,-1250,-1035,-67,743,853,629
416,250,-167,-331,289,35,-1310,-1185,-391,353,523,419
374,88,-281,-235,331,-90,-1346,-1329,-739,-12,217,245
320,17,-311,-163,313,-150,-1346,-1443,-1009,-252,20,149
278,-85,-365,-91,319,-222,-1304,-1461,-1213,-438,-124,53
236,-145,-383,-50,307,-258,-1202,-1443,-1363,-582,-250,-24
158,-193,-359,10,259,-276,-1058,-1317,-1387,-642,-328,-84
80,-217,-305,64,193,-258,-908,-1101,-1237,-576,-328,-114
33,-199,-233,82,127,-216,-734,-849,-1021,-480,-274,-114
-3,-187,-179,94,79,-186,-542,-627,-853,-408,-238,-126
-27,-187,-155,106,55,-174,-416,-459,-721,-366,-208,-138
-27,-169,-137,94,49,-156,-344,-351,-637,-324,-184,-120
-39,-145,-101,88,25,-126,-248,-249,-547,-288,-148,-102
-39,-145,-101,88,25,-126,-188,-183,-499,-252,-124,-90
-39,-145,-101,88,25,-126,-152,-129,-451,-246,-112,-96
-39,-139,-95,88,19,-120,-128,-87,-427,-234,-106,-108
-15,-115,-95,64,31,-108,-104,-51,-397,-216,-100,-102
-15,-103,-83,58,25,-96,-80,-27,-367,-198,-88,-90
-45,-121,-71,82,19,-96,-74,-15,-355,-192,-82,-90
-69,-103,-29,82,-16,-66,-56,-3,-325,-180,-58,-84
-75,-91,-11,82,-28,-54,-38,3,-319,-162,-46,-78
-87,-79,6,82,-46,-36,-32,-3,-301,-162,-46,-78
-81,-67,6,70,-46,-24,-14,9,-301,-162,-40,-84
-81,-61,12,70,-46,-18,-8,15,-295,-162,-46,-84
-75,-55,12,64,-46,-18,3,20,-295,-168,-40,-90
-75,-55,12,64,-46,-18,3,26,-283,-168,-40,-90
-75,-55,12,64,-46,-18,3,26,-283,-162,-40,-84
-81,-55,18,64,-52,-12,3,32,-277,-162,-34,-78
-81,-55,18,64,-52,-12,3,32,-271,-162,-40,-72
-81,-55,18,64,-52,-12,3,32,-265,-156,-34,-60
-81,-55,18,64,-52,-12,3,32,-265,-156,-28,-60
-81,-49,24,64,-52,-6,3,32,-259,-150,-28,-60
-81,-49,24,64,-52,-6,3,32,-259,-150,-22,-54
-81,-49,24,64,-52,-6,3,32,-259,-144,-16,-54
-81,-43,30,58,-58,0,3,32,-253,-138,-16,-60
-81,-43,30,58,-58,0,3,32,-253,-138,-16,-66
-81,-43,30,58,-58,0,3,32,-247,-132,-16,-72
-81,-43,30,58,-58,0,9,38,-241,-132,-4,-66
-81,-43,30,58,-58,0,9,38,-229,-126,-4,-60
-81,-37,36,58,-58,6,3,38,-229,-126,-4,-54
-75,-43,24,58,-52,-6,3,38,-223,-120,-4,-48
-69,-43,18,52,-46,-6,3,38,-223,-120,2,-48
-69,-43,18,52,-46,-6,3,38,-223,-114,2,-42
-69,-43,18,52,-46,-6,3,44,-211,-114,2,-42
-69,-43,18,52,-46,-6,3,50,-211,-114,8,-42
-69,-37,24,52,-46,0,3,50,-211,-114,8,-42
-75,-31,36,52,-58,6,9,56,-205,-102,14,-36
-75,-31,36,52,-58,6,9,56,-199,-102,14,-36
-81,-25,48,52,-64,18,9,68,-193,-96,14,-30
-81,-25,48,52,-64,18,9,68,-187,-96,14,-30
-75,-25,42,46,-58,12,9,62,-187,-96,14,-36
-75,-19,48,46,-64,18,9,62,-187,-90,14,-36
-69,-19,42,40,-58,18,9,62,-187,-90,20,-42
-69,-19,42,40,-58,18,9,74,-187,-90,20,-36
-69,-19,42,40,-58,18,3,74,-187,-90,20,-36
-63,-19,36,40,-52,12,3,80,-181,-90,26,-36
-57,-13,36,34,-46,18,9,80,-175,-84,20,-30
-57,-13,36,34,-46,18,9,80,-163,-84,20,-18
-57,-1,48,28,-52,29,9,92,-157,-84,26,-24
-57,5,54,22,-58,29,9,98,-151,-78,38,-24
-51,11,54,16,-52,29,9,98,-145,-72,44,-24
-51,17,60,16,-58,29,9,104,-139,-66,49,-24
-57,17,66,16,-64,35,9,104,-121,-60,49,-18
-57,17,66,16,-64,35,9,104,-121,-48,49,-12
-63,11,66,22,-64,29,9,116,-115,-42,49,-7
-57,11,60,22,-58,29,9,116,-115,-30,61,-7
-51,17,60,16,-58,29,9,116,-115,-36,55,-7
-51,23,66,10,-58,35,9,122,-109,-30,61,5
-45,17,54,10,-52,29,3,128,-103,-24,67,11
-39,23,54,4,-46,29,3,134,-97,-18,67,11
-39,35,66,-2,-52,41,3,134,-91,-18,67,5
-39,35,66,-2,-52,41,3,140,-91,-12,67,17
-39,35,66,-2,-52,41,3,140,-91,-12,67,11
-39,41,72,-2,-58,47,3,140,-91,-6,67,11
-33,47,72,-8,-52,53,3,146,-79,0,73,23
-33,52,78,-14,-58,59,3,158,-73,6,79,23
-21,52,72,-20,-46,59,9,170,-61,12,85,29
-21,52,72,-20,-46,59,9,170,-49,18,97,41
-27,52,84,-20,-52,65,3,176,-43,18,103,41
-27,58,90,-26,-58,71,3,182,-31,30,109,47
-27,70,102,-32,-64,83,-2,188,-25,30,115,53
-15,76,96,-38,-52,83,-8,188,-19,35,115,59
-15,76,96,-38,-52,83,-8,194,-7,35,133,65
-15,76,96,-38,-52,83,-8,200,-1,35,139,71
-3,82,90,-50,-46,83,-2,212,5,47,157,83
-3,82,90,-50,-46,83,-8,218,11,59,163,89
-3,106,114,-50,-58,107,-20,218,29,65,169,101
3,112,114,-50,-52,113,-26,224,29,77,181,107
3,118,120,-55,-58,119,-38,218,34,89,187,113
9,130,126,-61,-58,125,-44,224,34,107,205,125
21,130,114,-67,-46,119,-50,230,52,125,217,137
21,136,120,-73,-46,125,-56,230,58,137,229,143
27,148,126,-79,-46,137,-62,230,64,143,247,155
33,160,132,-91,-46,143,-68,224,76,149,247,167
44,166,126,-97,-40,143,-92,230,76,155,253,167
44,178,132,-109,-40,155,-92,230,88,161,271,179
50,184,126,-115,-28,155,-110,242,94,167,271,179
62,196,126,-127,-22,161,-116,242,100,173,271,185
62,208,138,-133,-28,173,-116,236,106,185,289,191
68,208,132,-139,-22,173,-122,230,106,191,289,197
62,220,150,-139,-34,185,-122,224,106,203,289,203
68,226,150,-145,-34,191,-128,218,106,221,295,203
74,232,150,-151,-28,191,-140,212,100,221,301,209
80,232,144,-157,-22,191,-146,206,100,227,307,209
80,238,150,-157,-28,197,-158,200,100,227,313,209
74,244,162,-157,-34,203,-164,194,94,227,313,209
68,238,162,-151,-40,203,-164,188,82,221,319,221
80,238,150,-157,-28,197,-164,182,82,221,325,221
74,232,150,-151,-28,191,-164,176,76,221,331,227
74,232,150,-151,-28,191,-176,170,64,221,325,227
74,232,150,-151,-28,191,-182,152,58,215,319,221
74,232,150,-151,-28,191,-182,146,52,215,313,221
80,232,144,-157,-22,191,-182,140,52,215,307,215
80,226,138,-151,-22,185,-182,134,46,203,295,209
74,226,144,-151,-28,185,-188,116,34,197,295,197
74,226,144,-151,-28,185,-188,104,34,197,295,191
74,226,144,-151,-28,185,-194,98,29,197,289,179
68,226,150,-145,-34,191,-194,98,23,191,283,167
62,220,150,-139,-34,185,-188,98,11,179,277,167
62,214,144,-139,-34,179,-188,92,5,173,277,161
62,202,132,-133,-28,167,-176,92,-7,161,265,149
62,196,126,-127,-22,161,-170,92,-13,155,259,143
44,190,138,-115,-40,167,-164,92,-19,149,247,143
44,178,132,-109,-40,155,-158,92,-19,137,241,137
44,172,132,-103,-40,149,-146,92,-25,131,235,137
39,160,126,-91,-40,143,-140,92,-25,125,223,131
44,154,114,-91,-34,131,-122,86,-37,107,217,125
33,148,120,-85,-40,131,-116,80,-49,101,205,107
27,148,126,-79,-46,137,-116,80,-67,89,199,95
21,142,126,-73,-52,131,-104,80,-67,89,193,95
15,130,120,-67,-52,125,-86,86,-67,77,181,89
3,124,126,-55,-58,125,-80,86,-73,65,169,71
-3,112,120,-50,-58,113,-68,86,-67,53,157,71
-9,106,120,-50,-64,113,-56,86,-73,41,145,59
-9,100,114,-50,-58,107,-44,92,-67,47,145,59
-21,88,114,-44,-64,101,-32,98,-67,35,133,53
-21,88,114,-44,-64,101,-26,98,-73,35,127,53
-27,76,108,-32,-64,89,-14,98,-79,35,115,47
-27,64,96,-26,-58,77,-14,92,-85,24,103,35
-39,58,102,-20,-70,77,-8,92,-85,12,91,29
-33,64,102,-26,-64,83,-8,92,-97,0,79,23
-33,58,96,-20,-64,77,-2,92,-97,-12,79,17
-39,52,96,-14,-64,71,3,92,-103,-18,73,11
-51,52,102,-8,-76,71,3,92,-109,-24,67,5
-57,52,102,-2,-82,71,3,92,-109,-30,67,5
-63,52,108,4,-88,71,3,92,-115,-36,61,-1
-63,41,96,10,-82,59,3,86,-115,-36,55,-7
-69,41,102,10,-88,65,3,86,-115,-36,49,-7
-69,35,96,16,-82,59,3,86,-115,-36,49,-12
-69,29,90,16,-82,53,9,80,-121,-42,49,-12
-63,35,90,10,-76,53,15,86,-121,-48,49,-7
-57,41,90,4,-76,59,15,80,-121,-48,49,-7
-51,41,84,4,-70,53,15,86,-121,-54,49,-7
-45,41,78,-2,-64,53,15,86,-127,-60,49,-7
-57,29,78,10,-70,47,9,80,-139,-60,38,-7
-69,17,78,22,-76,41,3,68,-145,-60,32,-7
-81,5,78,34,-82,35,3,62,-151,-66,26,-7
-93,-7,78,46,-88,29,3,56,-151,-66,26,-7
-99,-19,72,58,-88,29,3,56,-151,-66,26,-18
-105,-19,78,58,-94,29,3,56,-151,-72,26,-18
-111,-25,78,64,-94,29,3,56,-151,-72,20,-24
-117,-25,84,70,-100,29,3,56,-151,-72,20,-30
-117,-31,78,70,-100,29,-2,50,-151,-72,26,-24
-117,-37,72,76,-94,24,-2,50,-157,-72,26,-24
-117,-49,60,82,-88,12,-2,50,-157,-72,32,-18
-117,-49,60,82,-88,12,-2,50,-151,-72,32,-12
-111,-43,60,76,-88,12,-2,44,-151,-78,26,-18
-111,-37,66,70,-88,18,-2,44,-151,-78,26,-24
-105,-31,66,64,-88,24,-2,38,-151,-78,20,-30
-105,-25,72,64,-88,29,-2,38,-151,-78,20,-30
-111,-31,72,70,-94,24,-2,44,-145,-78,26,-30
-111,-31,72,70,-94,24,-2,44,-145,-78,26,-30
-117,-37,72,76,-94,24,-2,50,-133,-78,32,-24
-117,-37,72,76,-94,24,-2,50,-133,-78,32,-24
-111,-43,60,76,-88,12,3,56,-133,-78,26,-30
-111,-43,60,76,-88,12,3,56,-133,-78,32,-30
-105,-49,48,76,-76,6,3,62,-133,-72,26,-36
-105,-49,48,76,-76,6,3,62,-133,-72,26,-36
-117,-49,60,82,-88,12,3,62,-133,-72,14,-42
-117,-49,60,82,-88,12,3,62,-133,-72,14,-42
-117,-43,66,76,-94,18,3,56,-133,-72,8,-54
-111,-37,66,70,-88,18,3,56,-127,-72,8,-54
-111,-31,72,70,-94,24,3,62,-127,-72,14,-48
-111,-31,72,70,-94,24,3,68,-127,-72,20,-48
-111,-25,78,64,-94,29,3,74,-127,-72,20,-42
-111,-25,78,64,-94,29,3,74,-127,-72,26,-48
-117,-31,78,70,-100,29,3,68,-121,-66,26,-42
-117,-31,78,70,-100,29,3,68,-121,-72,26,-48
-117,-31,78,70,-100,29,3,62,-115,-66,26,-42
-117,-31,78,70,-100,29,3,62,-109,-66,26,-42
-111,-31,72,70,-94,24,9,68,-109,-66,26,-42
-123,-31,84,76,-106,29,9,68,-115,-66,26,-42
-117,-31,78,70,-100,29,15,74,-115,-66,26,-42
-117,-31,78,70,-100,29,15,74,-115,-66,26,-42
-111,-25,78,64,-94,29,15,80,-109,-66,32,-48
-111,-25,78,64,-94,29,21,80,-109,-66,38,-48
-105,-19,78,58,-94,29,21,80,-109,-66,44,-54
-105,-19,78,58,-94,29,21,80,-109,-66,38,-54
-111,-25,78,64,-94,29,21,80,-103,-60,32,-48
-111,-25,78,64,-94,29,21,80,-109,-60,32,-48
-123,-31,84,76,-106,29,21,80,-103,-54,26,-42
-123,-31,84,76,-106,29,21,80,-103,-54,32,-36
-129,-31,90,76,-112,29,21,80,-109,-60,26,-36
-129,-31,90,76,-112,29,27,74,-115,-60,26,-36
-135,-31,96,82,-118,29,27,62,-121,-66,20,-36
-129,-25,96,76,-112,29,27,56,-121,-66,20,-36
-123,-19,96,70,-112,29,21,62,-121,-60,20,-42
-123,-19,96,70,-112,29,15,62,-127,-60,20,-42
-123,-19,96,70,-112,29,15,68,-127,-60,26,-48
-123,-25,90,70,-106,29,15,68,-127,-60,26,-48
-117,-25,84,70,-100,29,15,62,-121,-60,26,-42
-117,-25,84,70,-100,29,15,56,-127,-60,26,-42
-117,-13,96,64,-106,35,15,56,-121,-60,26,-36
-123,-13,102,64,-112,35,15,56,-121,-54,26,-36
-123,-19,96,70,-112,29,15,56,-121,-54,26,-36
-123,-25,90,70,-106,29,15,50,-121,-60,26,-36
-117,-31,78,70,-100,29,15,50,-127,-60,26,-36
-117,-31,78,70,-100,29,15,38,-127,-60,26,-36
-129,-25,96,76,-112,29,9,38,-127,-60,20,-36
-129,-25,96,76,-112,29,9,38,-133,-66,20,-36
-135,-19,108,76,-124,35,3,38,-133,-66,14,-36
-135,-19,108,76,-124,35,3,38,-133,-66,14,-36
-129,-19,102,70,-118,35,3,38,-139,-66,14,-42
-129,-19,102,70,-118,35,3,38,-139,-66,8,-42
-135,-31,96,82,-118,29,9,32,-151,-72,8,-48
-141,-31,102,82,-124,29,3,32,-151,-72,8,-48
-135,-31,96,82,-118,29,3,32,-145,-72,8,-42
-129,-31,90,76,-112,29,3,32,-145,-72,8,-42
-123,-31,84,76,-106,29,3,20,-139,-78,8,-36
-123,-25,90,70,-106,29,3,20,-139,-78,8,-36
-123,-31,84,76,-106,29,3,20,-139,-72,14,-36
-123,-31,84,76,-106,29,3,20,-139,-72,14,-36
-123,-37,78,76,-100,24,3,26,-139,-66,20,-30
-123,-43,72,82,-100,18,3,26,-145,-66,20,-30
-123,-43,72,82,-100,18,3,20,-139,-72,26,-30
-123,-43,72,82,-100,18,3,20,-139,-72,26,-30
-123,-43,72,82,-100,18,3,20,-133,-78,20,-30
-123,-43,72,82,-100,18,3,20,-139,-78,20,-30
-129,-43,78,82,-106,24,3,20,-145,-84,14,-36
-129,-43,78,82,-106,24,3,15,-145,-84,8,-36
-129,-43,78,82,-106,24,3,20,-151,-84,2,-36
-129,-43,78,82,-106,24,3,20,-151,-84,-4,-36
-129,-43,78,82,-106,24,3,20,-157,-84,-4,-36
-129,-55,66,88,-100,12,3,15,-157,-84,-4,-36
-129,-61,60,94,-94,6,3,9,-157,-84,2,-42
-129,-61,60,94,-94,6,3,9,-157,-90,2,-42
-135,-55,72,94,-106,12,3,9,-151,-84,2,-42
-135,-55,72,94,-106,12,3,15,-151,-84,2,-42
-141,-61,72,100,-106,12,3,15,-145,-78,2,-42
-153,-67,78,106,-118,12,3,15,-151,-78,-4,-42
-129,-43,78,82,-106,24,3,15,-151,-78,8,-42
-141,-49,84,94,-112,24,-2,15,-151,-78,8,-36
-141,-49,84,94,-112,24,-2,9,-151,-84,2,-42
-141,-49,84,94,-112,24,-2,9,-151,-84,2,-42
-141,-49,84,94,-112,24,-2,3,-151,-90,-4,-48
-141,-49,84,94,-112,24,-2,3,-151,-90,-4,-48
-141,-55,78,94,-112,18,-2,3,-151,-90,-4,-54
-141,-55,78,94,-112,18,-2,3,-151,-90,-4,-54
-135,-61,66,94,-100,6,-2,3,-151,-84,-4,-54
-135,-61,66,94,-100,6,-2,3,-151,-84,-4,-54
-135,-61,66,94,-100,6,-2,3,-151,-84,-4,-60
-135,-61,66,94,-100,6,-2,3,-151,-84,-4,-60
-129,-49,72,88,-100,18,-2,3,-151,-78,-4,-54
-129,-49,72,88,-100,18,-2,3,-151,-78,-4,-54
-135,-55,72,94,-106,12,-2,3,-145,-78,-4,-54
-135,-61,66,94,-100,6,-2,3,-151,-78,-4,-54
-141,-67,66,100,-106,6,-2,3,-145,-84,-4,-60
-141,-67,66,100,-106,6,-2,-3,-145,-84,-4,-60
-141,-67,66,100,-106,6,-2,-3,-145,-78,-4,-60
-141,-67,66,100,-106,6,-2,-3,-145,-78,-4,-60
-135,-67,60,100,-100,0,-2,-3,-145,-72,2,-60
-135,-67,60,100,-100,0,-2,-3,-145,-72,2,-60
-135,-61,66,94,-100,6,3,-3,-145,-72,-4,-60
-135,-61,66,94,-100,6,3,3,-145,-72,-4,-66
-135,-55,72,94,-106,12,3,3,-145,-66,-10,-66
-135,-49,78,88,-106,18,3,9,-139,-66,-4,-60
-129,-49,72,88,-100,18,3,9,-145,-72,-4,-60
-129,-43,78,82,-106,24,3,9,-139,-66,2,-54
-129,-43,78,82,-106,24,9,9,-133,-72,2,-48
-129,-37,84,82,-106,29,15,20,-133,-60,8,-42
-129,-31,90,76,-112,29,21,20,-121,-54,8,-42
-129,-19,102,70,-118,35,27,26,-115,-48,14,-36
-135,-19,108,76,-124,35,27,26,-109,-42,14,-36
-129,-7,114,64,-124,47,27,32,-109,-42,20,-36
-123,5,120,58,-124,53,45,38,-103,-36,26,-36
-123,11,126,52,-124,59,45,38,-97,-36,32,-30
-117,23,132,46,-124,71,57,50,-85,-24,38,-24
-117,29,138,40,-130,77,57,50,-79,-24,44,-24
-123,23,138,46,-130,71,51,50,-79,-24,38,-18
-123,23,138,46,-130,71,51,50,-79,-24,38,-18
-129,11,132,58,-130,65,45,50,-79,-24,32,-12
-129,11,132,58,-130,65,33,50,-79,-24,32,-12
-123,17,132,52,-130,65,27,32,-91,-30,32,-12
-123,29,144,46,-136,77,21,32,-91,-30,32,-7
-123,47,162,34,-142,95,15,26,-103,-24,44,-7
-117,52,168,28,-142,107,15,20,-103,-24,44,-1
-123,52,174,28,-148,107,9,20,-97,-24,38,-7
-123,52,180,28,-148,113,3,20,-97,-24,38,-7
-117,58,180,22,-148,119,3,20,-91,-24,32,-7
-111,58,174,16,-142,113,3,20,-97,-24,38,-1
-99,64,168,10,-130,113,-2,20,-97,-18,44,-1
-93,70,168,4,-130,119,-2,20,-91,-18,44,5
-81,70,156,-2,-118,113,-8,20,-85,-6,49,5
-75,58,138,-2,-106,95,-14,20,-85,-6,49,5
-69,52,114,4,-94,77,-20,15,-97,-18,44,-1
-63,35,90,10,-76,53,-26,3,-103,-24,38,-7
-63,23,78,16,-70,41,-20,3,-103,-30,38,-7
-63,11,66,22,-64,29,-20,-3,-109,-36,26,-7
-69,11,72,28,-70,35,-26,-3,-109,-30,26,-7
-69,11,72,28,-70,35,-26,-3,-109,-30,26,-7
-75,11,78,28,-76,35,-32,3,-109,-24,26,-7
-75,11,78,28,-76,35,-26,3,-109,-24,26,-7
-87,-7,72,46,-82,29,-26,3,-103,-24,20,-7
-93,-13,72,52,-82,29,-14,3,-103,-30,20,-7
-111,-25,78,64,-94,29,-8,3,-103,-30,14,-7
-111,-31,72,70,-94,24,-8,3,-103,-30,8,-7
-123,-25,90,70,-106,29,-2,9,-103,-30,14,-7
-135,-37,90,82,-112,29,3,9,-103,-30,14,-7
-141,-43,90,88,-118,29,3,9,-109,-42,8,-7
-147,-43,96,94,-124,29,15,9,-109,-42,2,-7
-147,-61,78,100,-112,12,9,3,-109,-48,-4,-18
-153,-67,78,106,-118,12,3,-3,-127,-54,-10,-24
-159,-85,66,118,-112,-6,-2,-15,-127,-66,-22,-42
-159,-85,66,118,-112,-6,-8,-15,-133,-72,-28,-42
-159,-97,54,124,-106,-18,-8,-27,-139,-78,-34,-48
-159,-97,54,124,-106,-18,-8,-27,-139,-78,-34,-48
-159,-97,54,124,-106,-18,-8,-21,-145,-84,-34,-54
-159,-91,60,124,-112,-12,-8,-21,-145,-84,-34,-54
-165,-91,66,124,-118,-6,-2,-21,-139,-84,-34,-54
-171,-91,72,130,-124,-6,-2,-21,-139,-84,-34,-54
-177,-91,78,130,-130,0,3,-21,-133,-84,-34,-48
-183,-91,84,136,-136,0,3,-21,-133,-84,-34,-48
-183,-91,84,136,-136,0,-2,-21,-133,-84,-34,-54
-189,-91,90,136,-142,6,-2,-21,-133,-84,-34,-54
-183,-97,78,136,-130,-6,-8,-21,-139,-84,-34,-60
-183,-97,78,136,-130,-6,-8,-21,-139,-84,-34,-60
-183,-85,90,130,-136,6,-8,-9,-127,-72,-22,-54
-183,-85,90,130,-136,6,3,-15,-127,-72,-22,-54
-189,-97,84,142,-136,0,9,-9,-127,-72,-22,-54
-195,-85,102,136,-148,12,27,9,-121,-72,-22,-48
-219,-67,150,142,-190,35,69,20,-109,-60,-10,-48
-249,-19,228,136,-238,95,135,56,-67,-42,2,-30
-267,29,288,118,-280,155,213,128,-13,-12,32,-12
-267,88,360,82,-310,227,279,230,46,41,61,11
-273,166,444,46,-358,299,351,338,142,125,145,59
-261,262,522,-8,-394,389,417,464,256,227,247,131
-219,382,606,-73,-412,497,471,572,400,365,373,227
-147,508,654,-175,-400,575,447,644,568,539,529,329
-39,574,618,-265,-328,593,375,692,730,695,649,407
86,580,492,-331,-196,533,243,668,862,833,763,467
200,598,396,-397,-94,503,63,542,946,953,871,539
296,658,354,-481,-22,509,-128,350,976,1079,1009,641
380,736,348,-553,19,539,-338,116,976,1199,1105,725
410,784,372,-595,19,581,-578,-165,898,1247,1165,791
416,826,408,-619,14,617,-824,-483,718,1223,1171,815
464,802,336,-631,61,569,-1058,-765,514,1145,1141,803
512,682,168,-595,169,425,-1256,-927,352,1013,1021,743
482,436,-41,-457,259,197,-1370,-999,148,773,793,581
404,178,-227,-289,313,-18,-1382,-1125,-169,401,487,383
326,29,-305,-175,313,-138,-1394,-1305,-541,47,181,233
266,-67,-335,-91,295,-204,-1370,-1419,-835,-186,-4,137
206,-169,-377,-26,289,-270,-1304,-1443,-1027,-366,-160,41
152,-247,-407,40,277,-324,-1190,-1395,-1183,-498,-286,-36
74,-289,-371,100,223,-330,-1046,-1293,-1219,-546,-340,-96
33,-277,-305,124,163,-294,-860,-1041,-1027,-456,-316,-114
-15,-211,-197,112,85,-210,-656,-753,-787,-342,-250,-114
-75,-217,-143,148,25,-186,-482,-543,-631,-288,-214,-138
-123,-229,-107,178,-4,-174,-392,-423,-535,-258,-196,-150
-135,-199,-65,166,-28,-138,-308,-315,-451,-228,-184,-132
-123,-169,-41,142,-34,-108,-230,-225,-373,-198,-160,-114
-135,-169,-29,148,-46,-102,-164,-159,-325,-174,-136,-102
-135,-169,-29,148,-46,-102,-128,-105,-289,-168,-136,-108
-135,-175,-35,154,-46,-108,-92,-63,-259,-156,-130,-108
-135,-187,-47,160,-40,-120,-80,-51,-241,-150,-124,-114
-147,-175,-23,160,-58,-102,-68,-39,-223,-150,-124,-114
-153,-157,1,154,-70,-78,-74,-27,-205,-132,-106,-102
-153,-151,6,148,-76,-72,-56,-15,-187,-108,-94,-96
-171,-151,12,160,-94,-66,-38,-9,-157,-90,-82,-90
-171,-139,24,154,-100,-54,-32,9,-151,-90,-58,-78
-171,-127,36,148,-106,-42,-14,15,-151,-90,-58,-78
-171,-121,42,142,-106,-36,-8,20,-145,-90,-64,-78
-171,-115,48,142,-112,-30,3,20,-145,-96,-64,-78
-171,-115,48,142,-112,-30,3,26,-133,-96,-64,-78
-171,-115,48,142,-112,-30,3,26,-127,-84,-58,-72
-177,-115,54,142,-118,-24,3,32,-121,-84,-52,-72
-177,-115,54,142,-118,-24,3,32,-109,-78,-52,-66
-177,-115,54,142,-118,-24,3,32,-103,-72,-46,-60
-177,-115,54,142,-118,-24,3,32,-103,-72,-46,-66
-177,-109,60,142,-118,-18,3,32,-97,-66,-46,-66
-177,-109,60,142,-118,-18,3,32,-97,-66,-46,-66
-177,-109,60,142,-118,-18,9,32,-97,-60,-40,-66
-177,-103,66,136,-124,-12,9,32,-97,-60,-40,-66
-177,-103,66,136,-124,-12,9,32,-97,-60,-40,-72
-177,-103,66,136,-124,-12,15,32,-97,-60,-40,-72
-177,-103,66,136,-124,-12,21,38,-91,-60,-28,-66
-177,-103,66,136,-124,-12,15,32,-79,-54,-34,-60
-177,-97,72,136,-124,-6,9,32,-79,-54,-34,-54
-171,-103,60,136,-118,-18,3,26,-73,-48,-40,-48
-165,-103,54,130,-112,-18,3,26,-73,-48,-34,-48
-165,-103,54,130,-112,-18,9,32,-73,-42,-34,-48
-165,-103,54,130,-112,-18,9,38,-61,-42,-34,-48
-165,-103,54,130,-112,-18,15,50,-61,-42,-28,-54
-165,-97,60,130,-112,-12,15,50,-61,-42,-28,-54
-165,-97,60,130,-112,-12,21,44,-55,-36,-22,-54
-165,-97,60,130,-112,-12,21,44,-43,-36,-22,-54
-165,-97,60,130,-112,-12,21,44,-37,-36,-22,-54
-165,-97,60,130,-112,-12,21,44,-31,-36,-22,-54
-159,-85,66,118,-112,-6,21,50,-25,-30,-22,-48
-159,-79,72,118,-118,0,21,50,-19,-24,-22,-48
-153,-67,78,106,-118,12,21,62,-13,-18,-16,-42
-153,-67,78,106,-118,12,21,74,-7,-18,-16,-36
-159,-67,84,112,-124,12,15,74,-13,-12,-10,-42
-153,-67,78,106,-118,12,15,80,-7,-12,-4,-42
-153,-61,84,106,-118,18,21,80,-7,0,-4,-42
-153,-61,84,106,-118,18,21,80,5,0,-4,-30
-159,-61,90,106,-124,18,21,86,11,-6,-10,-30
-159,-61,90,106,-124,18,21,92,17,0,2,-30
-159,-67,84,112,-124,12,21,86,23,0,-4,-24
-159,-67,84,112,-124,12,21,92,29,6,2,-24
-165,-61,96,112,-130,24,27,98,34,6,8,-24
-165,-61,96,112,-130,24,27,98,34,12,8,-18
-171,-61,102,112,-136,24,33,116,29,12,14,-18
-165,-61,96,112,-130,24,33,116,29,18,26,-18
-159,-49,102,100,-130,29,27,110,34,18,26,-12
-159,-43,108,100,-136,29,27,116,34,24,32,-7
-153,-43,102,94,-130,29,15,116,46,35,44,-7
-147,-37,102,88,-124,29,15,122,58,35,44,-7
-147,-25,114,82,-130,35,21,128,70,35,49,-7
-147,-25,114,82,-130,35,21,134,76,47,49,-1
-147,-25,114,82,-130,35,27,140,82,53,49,-1
-147,-19,120,82,-136,41,21,140,88,65,49,-1
-141,-13,120,76,-130,47,27,146,100,71,55,11
-141,-7,126,70,-136,53,27,164,100,77,61,11
-129,-1,120,64,-124,53,33,176,112,83,73,17
-129,-1,120,64,-124,53,33,182,118,89,85,29
-135,-1,126,64,-130,53,21,182,124,95,85,29
-135,5,132,64,-136,59,21,188,136,107,91,35
-135,11,138,58,-136,65,9,188,142,113,91,41
-123,17,132,52,-130,65,3,188,148,119,91,47
-117,29,138,40,-130,77,3,194,160,119,103,53
-117,35,144,40,-130,83,3,200,166,125,109,59
-99,52,144,22,-124,89,9,212,172,131,121,71
-99,52,150,16,-124,95,3,218,178,143,127,77
-93,58,156,10,-124,107,3,224,202,155,139,89
-87,58,150,4,-118,101,3,230,202,167,151,95
-81,52,138,4,-106,95,-2,230,220,185,163,101
-75,58,138,-2,-106,95,-8,236,226,203,181,113
-63,70,138,-14,-100,101,-8,242,238,209,181,125
-63,76,144,-14,-100,107,-14,242,238,215,193,131
-57,100,162,-32,-106,131,-14,242,238,209,199,143
-51,112,168,-38,-106,137,-20,236,244,209,199,155
-45,112,162,-44,-100,137,-38,242,256,227,211,167
-39,124,168,-50,-100,143,-38,242,268,239,229,179
-33,124,162,-50,-94,143,-50,254,280,257,235,191
-21,136,162,-50,-88,149,-56,254,286,269,235,197
-15,148,168,-61,-88,155,-68,248,286,275,253,197
-9,148,162,-61,-82,155,-74,242,286,275,253,197
-9,160,174,-67,-88,167,-86,236,280,275,259,197
-3,166,174,-73,-88,167,-92,230,280,287,265,191
-3,172,180,-79,-88,173,-98,224,274,287,265,197
3,172,174,-79,-82,173,-104,218,274,293,271,197
-3,178,186,-79,-94,179,-110,212,274,293,271,197
-9,184,198,-79,-100,191,-116,206,274,293,271,197
-9,184,198,-79,-100,191,-122,200,268,293,271,203
3,184,186,-85,-88,185,-122,194,274,293,277,203
3,184,186,-85,-88,185,-128,188,274,299,277,203
3,184,186,-85,-88,185,-140,182,268,299,271,203
3,184,186,-85,-88,185,-140,170,256,293,277,203
3,184,186,-85,-88,185,-140,164,250,293,277,203
9,184,180,-91,-82,179,-134,164,244,293,283,203
9,178,174,-85,-82,173,-134,158,238,281,277,197
9,178,174,-85,-82,173,-140,146,238,275,271,191
9,178,174,-85,-82,173,-140,134,232,275,271,191
15,178,168,-91,-76,173,-146,134,232,275,253,185
9,178,174,-85,-82,173,-146,134,226,275,247,179
-3,172,180,-79,-88,173,-140,128,214,275,247,179
-3,166,174,-73,-88,167,-140,122,208,269,247,173
-9,154,168,-67,-88,161,-128,116,196,269,241,161
-9,148,162,-61,-82,155,-122,116,190,263,235,155
-21,148,174,-55,-94,161,-110,110,178,251,217,143
-27,142,174,-50,-100,155,-104,110,178,239,211,137
-27,142,174,-50,-100,155,-86,104,166,227,199,125
-33,136,174,-50,-100,155,-80,104,166,221,187,119
-33,118,156,-50,-94,137,-68,104,160,209,181,119
-45,106,156,-38,-100,131,-68,104,148,203,169,107
-57,94,156,-26,-106,125,-74,110,136,197,163,101
-63,82,150,-20,-106,113,-68,116,136,197,157,107
-57,82,144,-20,-100,113,-50,116,136,185,151,95
-69,76,150,-14,-106,113,-44,116,130,173,139,77
-63,76,144,-14,-100,107,-32,110,136,161,133,71
-69,70,144,-8,-106,107,-20,110,130,149,121,59
-75,58,138,-2,-106,95,-8,110,124,143,115,47
-87,52,138,10,-112,89,3,110,118,131,103,41
-93,52,138,16,-118,89,3,104,100,119,91,29
-99,41,132,28,-118,77,9,98,88,107,79,23
-99,29,120,34,-112,65,9,98,94,107,73,17
-111,23,126,40,-118,65,15,98,100,101,61,17
-105,29,126,34,-118,71,15,104,100,101,55,17
-105,23,120,40,-112,65,21,104,106,95,55,17
-111,11,114,46,-112,53,27,98,94,83,49,5
-123,5,120,58,-124,53,33,98,88,77,49,-1
-129,-7,114,64,-124,47,33,92,82,65,44,-7
-135,-7,120,70,-130,47,39,92,76,59,38,-7
-135,-19,108,76,-124,35,39,86,76,53,32,-7
-141,-19,114,76,-130,41,39,86,76,53,26,-7
-141,-25,108,82,-124,35,39,86,76,47,20,-7
-141,-31,102,82,-124,29,45,80,70,41,14,-7
-141,-31,102,82,-124,29,51,80,70,47,20,-7
-141,-31,102,82,-124,29,51,74,70,47,20,-7
-141,-37,96,88,-118,29,51,74,70,53,26,-7
-141,-43,90,88,-118,29,51,74,64,47,26,-7
-141,-43,90,88,-118,29,45,74,58,41,14,-7
-141,-43,90,88,-118,29,45,68,52,41,8,-7
-141,-43,90,88,-118,29,39,68,52,35,2,-7
-141,-43,90,88,-118,29,39,68,52,35,2,-7
-135,-43,84,88,-112,24,39,62,52,35,2,-12
-135,-37,90,82,-112,29,39,62,52,35,2,-12
-129,-31,90,76,-112,29,39,56,52,35,-4,-12
-129,-25,96,76,-112,29,39,56,52,35,-4,-18
-135,-31,96,82,-118,29,33,50,46,35,-10,-18
-141,-37,96,88,-118,29,33,50,40,35,-10,-18
-147,-49,90,94,-118,24,33,50,34,35,-16,-18
-153,-49,96,100,-124,29,33,50,40,35,-16,-12
-153,-49,96,100,-124,29,33,50,46,35,-10,-12
-153,-49,96,100,-124,29,33,50,46,35,-10,-18
-153,-49,96,100,-124,29,33,50,52,35,-4,-18
-153,-49,96,100,-124,29,33,50,52,35,-4,-18
-147,-49,90,94,-118,24,33,50,52,35,-4,-24
-147,-49,90,94,-118,24,33,50,52,35,-4,-24
-141,-49,84,94,-112,24,33,50,58,35,-4,-24
-141,-49,84,94,-112,24,33,50,58,35,-4,-24
-141,-49,84,94,-112,24,33,56,58,35,-10,-30
-141,-49,84,94,-112,24,33,56,58,35,-4,-30
-141,-49,84,94,-112,24,33,62,58,35,-10,-36
-141,-49,84,94,-112,24,39,62,58,35,-10,-36
-153,-55,90,100,-124,24,39,62,58,35,-16,-36
-153,-55,90,100,-124,24,39,62,58,35,-16,-36
-153,-55,90,100,-124,24,39,56,58,35,-16,-42
-147,-49,90,94,-118,24,39,56,64,35,-16,-42
-147,-43,96,94,-124,29,39,56,64,35,-16,-42
-147,-43,96,94,-124,29,39,62,64,35,-16,-42
-147,-37,102,88,-124,29,39,62,64,35,-22,-42
-147,-37,102,88,-124,29,39,62,64,35,-22,-48
-147,-43,96,94,-124,29,39,68,70,35,-16,-48
-147,-43,96,94,-124,29,39,68,70,35,-16,-54
-141,-43,90,88,-118,29,39,74,76,35,-10,-54
-141,-43,90,88,-118,29,39,74,82,35,-10,-54
-141,-43,90,88,-118,29,39,68,76,35,-16,-54
-153,-43,102,94,-130,29,39,68,70,35,-16,-54
-153,-43,102,94,-130,29,39,62,64,35,-22,-54
-153,-43,102,94,-130,29,39,62,64,35,-22,-54
-153,-37,108,94,-130,29,39,68,70,35,-22,-54
-153,-37,108,94,-130,29,45,68,70,35,-16,-54
-153,-31,114,88,-136,35,45,68,70,35,-16,-54
-153,-31,114,88,-136,35,45,68,70,35,-22,-54
-153,-37,108,94,-130,29,45,68,70,35,-22,-60
-153,-37,108,94,-130,29,45,68,64,35,-22,-60
-159,-43,108,100,-136,29,45,68,64,41,-22,-66
-159,-43,108,100,-136,29,45,68,64,41,-16,-60
-153,-37,108,94,-130,29,39,74,70,41,-16,-66
-153,-37,108,94,-130,29,45,74,64,41,-16,-66
-147,-31,108,88,-130,29,39,68,70,41,-16,-72
-141,-25,108,82,-124,35,39,68,70,41,-16,-72
-147,-31,108,88,-130,29,39,62,76,41,-22,-66
-153,-31,114,88,-136,35,39,62,70,41,-22,-66
-165,-43,114,100,-142,29,45,56,76,35,-22,-60
-171,-49,114,106,-142,29,51,56,76,35,-22,-60
-165,-55,102,106,-136,29,51,56,76,35,-16,-60
-165,-55,102,106,-136,29,51,50,70,35,-16,-60
-165,-49,108,106,-136,29,51,56,70,35,-10,-60
-171,-49,114,106,-142,29,51,56,70,41,-10,-60
-165,-49,108,106,-136,29,51,56,70,41,-16,-60
-165,-55,102,106,-136,29,51,50,70,35,-16,-60
-153,-55,90,100,-124,24,51,50,64,35,-22,-60
-153,-55,90,100,-124,24,51,38,64,35,-22,-60
-159,-55,96,106,-130,24,51,38,64,35,-22,-54
-159,-55,96,106,-130,24,51,38,58,35,-22,-54
-159,-55,96,106,-130,24,51,38,58,35,-22,-48
-159,-55,96,106,-130,24,45,38,58,35,-22,-48
-153,-55,90,100,-124,24,45,38,58,35,-22,-48
-153,-55,90,100,-124,24,45,38,58,35,-28,-48
-159,-67,84,112,-124,12,45,32,52,35,-28,-48
-165,-67,90,112,-130,18,39,32,52,35,-28,-48
-165,-73,84,118,-124,12,39,32,52,35,-34,-48
-159,-73,78,112,-118,6,39,32,52,35,-34,-48
-159,-79,72,118,-118,0,39,20,52,35,-40,-48
-159,-73,78,112,-118,6,39,20,52,35,-40,-48
-159,-79,72,118,-118,0,39,20,46,35,-34,-48
-159,-79,72,118,-118,0,39,20,46,35,-34,-48
-159,-85,66,118,-112,-6,39,20,40,35,-28,-42
-159,-91,60,124,-112,-12,39,20,34,35,-28,-42
-159,-85,66,118,-112,-6,33,20,40,35,-28,-48
-159,-85,66,118,-112,-6,33,20,40,35,-28,-48
-159,-79,72,118,-118,0,27,20,46,35,-40,-54
-159,-79,72,118,-118,0,27,20,40,35,-40,-54
-165,-85,72,124,-118,0,33,20,40,35,-40,-54
-165,-85,72,124,-118,0,33,15,40,35,-40,-54
-165,-91,66,124,-118,-6,33,20,40,35,-40,-48
-165,-91,66,124,-118,-6,27,20,40,35,-40,-48
-165,-85,72,124,-118,0,27,20,34,35,-46,-48
-165,-97,60,130,-112,-12,27,15,34,35,-46,-48
-165,-97,60,130,-112,-12,33,9,34,35,-46,-54
-165,-97,60,130,-112,-12,33,9,34,35,-46,-54
-165,-85,72,124,-118,0,33,9,34,35,-40,-54
-165,-85,72,124,-118,0,33,15,34,35,-40,-54
-165,-85,72,124,-118,0,33,15,34,35,-34,-54
-177,-91,78,130,-130,0,27,15,34,35,-40,-54
-183,-97,78,136,-130,-6,27,9,34,35,-40,-54
-171,-91,72,130,-124,-6,27,9,34,35,-40,-54
-177,-97,72,136,-124,-6,27,3,34,35,-40,-54
-177,-97,72,136,-124,-6,27,3,34,35,-40,-54
-171,-97,66,130,-118,-12,27,9,34,35,-40,-66
-171,-109,54,136,-112,-24,27,9,34,35,-40,-66
-165,-109,48,136,-106,-24,27,9,34,24,-46,-72
-165,-109,48,136,-106,-24,27,3,34,24,-58,-72
-171,-115,48,142,-112,-30,27,3,34,30,-58,-72
-171,-109,54,136,-112,-24,33,3,34,30,-58,-72
-177,-109,60,142,-118,-18,27,3,34,30,-58,-72
-177,-103,66,136,-124,-12,27,3,34,30,-52,-72
-177,-103,66,136,-124,-12,27,3,34,35,-52,-72
-177,-109,60,142,-118,-18,27,3,34,35,-58,-72
-177,-109,60,142,-118,-18,33,3,40,35,-58,-78
-177,-103,66,136,-124,-12,33,3,40,35,-58,-78
-177,-109,60,142,-118,-18,27,3,34,35,-58,-78
-177,-109,60,142,-118,-18,33,3,40,35,-58,-84
-183,-115,60,148,-124,-24,27,3,40,35,-58,-84
-183,-109,66,142,-124,-18,27,9,40,35,-52,-78
-177,-115,54,142,-118,-24,33,3,34,35,-52,-84
-177,-115,54,142,-118,-24,27,3,34,35,-52,-84
-165,-115,42,136,-106,-30,27,-3,34,35,-52,-90
-165,-115,42,136,-106,-30,27,-3,34,35,-52,-90
-165,-109,48,136,-106,-24,27,-3,34,35,-64,-102
-165,-109,48,136,-106,-24,27,-3,40,35,-64,-90
-159,-103,48,130,-106,-24,27,9,46,35,-52,-78
-159,-115,36,136,-100,-36,27,-3,46,35,-52,-90
-165,-109,48,136,-106,-24,33,-9,40,30,-64,-84
-165,-109,48,136,-106,-24,33,-3,40,35,-64,-84
-165,-109,48,136,-106,-24,33,-3,40,35,-64,-84
-165,-109,48,136,-106,-24,33,3,40,35,-64,-84
-165,-109,48,136,-106,-24,33,3,40,35,-64,-84
-171,-115,48,142,-112,-30,27,3,40,35,-58,-90
-171,-115,48,142,-112,-30,27,3,40,35,-58,-90
-171,-121,42,142,-106,-36,21,3,40,35,-52,-90
-171,-121,42,142,-106,-36,21,3,40,35,-52,-90
-171,-121,42,142,-106,-36,21,-3,34,35,-58,-96
-171,-121,42,142,-106,-36,21,-3,34,35,-64,-96
-165,-109,48,136,-106,-24,21,-9,34,30,-70,-90
-165,-109,48,136,-106,-24,21,-9,34,30,-76,-90
-171,-109,54,136,-112,-24,27,-9,34,35,-70,-90
-171,-115,48,142,-112,-30,27,-9,34,35,-70,-90
-177,-115,54,142,-118,-24,33,-9,34,35,-64,-96
-177,-115,54,142,-118,-24,33,-15,34,35,-64,-96
-177,-115,54,142,-118,-24,33,-9,34,35,-70,-90
-177,-115,54,142,-118,-24,33,-9,34,35,-70,-90
-171,-115,48,142,-112,-30,33,-3,34,35,-70,-84
-171,-115,48,142,-112,-30,33,-3,34,35,-70,-84
-165,-109,48,136,-106,-24,39,-9,34,35,-70,-84
-165,-109,48,136,-106,-24,39,-3,34,35,-70,-90
-159,-103,48,130,-106,-24,39,-9,34,35,-70,-90
-159,-97,54,124,-106,-18,39,-3,40,35,-64,-84
-153,-91,54,118,-106,-12,39,3,40,35,-58,-84
-153,-85,60,118,-106,-6,39,3,46,35,-52,-78
-153,-79,66,112,-112,0,45,9,58,35,-46,-72
-153,-73,72,112,-112,6,51,20,58,47,-40,-66
-153,-73,72,112,-112,6,63,20,70,53,-34,-60
-153,-61,84,106,-118,18,69,26,76,59,-28,-54
-159,-67,84,112,-124,12,75,26,82,65,-22,-48
-153,-55,90,100,-124,24,75,32,82,65,-16,-48
-153,-49,96,100,-124,29,81,32,82,65,-22,-48
-153,-43,102,94,-130,29,81,32,88,65,-22,-42
-153,-37,108,94,-130,29,81,38,94,71,-28,-36
-153,-31,114,88,-136,35,81,38,100,71,-28,-36
-153,-25,120,88,-136,41,81,32,94,71,-28,-36
-153,-19,126,82,-142,47,81,32,88,71,-28,-36
-153,-19,126,82,-142,47,81,26,82,71,-28,-36
-153,-13,132,82,-142,53,69,26,76,71,-28,-36
-147,-13,126,76,-136,47,69,20,76,77,-28,-42
-147,-7,132,76,-142,53,63,20,82,77,-28,-36
-147,5,144,70,-148,65,63,20,82,95,-16,-30
-141,11,144,64,-142,71,63,15,88,95,-16,-24
-141,17,150,58,-148,77,51,20,88,95,-16,-18
-141,23,156,58,-148,83,45,15,88,95,-16,-18
-129,35,156,46,-142,89,33,20,88,95,-16,-7
-123,35,150,40,-136,83,27,20,82,95,-10,-7
-117,35,144,40,-130,83,27,20,82,101,-4,-7
-111,41,144,34,-130,83,27,20,88,101,-4,-7
-105,35,132,34,-118,77,27,20,94,113,8,-7
-99,23,114,34,-106,59,21,20,94,113,8,-7
-99,-1,90,46,-94,35,3,9,76,95,-10,-24
-93,-25,60,58,-76,24,3,-3,70,89,-22,-30
-99,-43,48,70,-76,6,3,-9,64,77,-28,-42
-99,-61,30,76,-64,-12,3,-15,58,71,-46,-42
-93,-55,30,70,-64,-6,3,-15,58,71,-46,-42
-93,-49,36,70,-64,0,3,-15,58,71,-46,-42
-87,-43,36,64,-64,0,3,-9,58,71,-46,-42
-87,-37,42,58,-64,6,3,-9,58,71,-46,-42
-99,-49,42,70,-70,0,3,-3,70,77,-40,-42
-105,-55,42,76,-76,0,15,3,70,71,-34,-42
-123,-61,54,88,-88,0,27,9,76,77,-28,-48
-123,-67,48,94,-88,-6,27,15,76,77,-28,-54
-141,-67,66,100,-106,6,27,15,70,77,-34,-48
-153,-79,66,112,-112,0,33,9,70,77,-34,-54
-165,-91,66,124,-118,-6,33,3,58,65,-52,-54
-171,-91,72,130,-124,-6,39,-3,58,65,-58,-54
-177,-103,66,136,-124,-12,39,-9,58,59,-58,-66
-189,-109,72,148,-130,-12,39,-15,40,53,-64,-72
-195,-121,72,160,-136,-18,27,-27,40,41,-70,-90
-201,-121,78,160,-142,-18,27,-27,34,35,-76,-90
-195,-139,54,166,-130,-36,27,-33,34,41,-76,-90
-195,-139,54,166,-130,-36,27,-33,34,41,-76,-90
-195,-145,42,166,-118,-48,27,-21,34,47,-70,-90
-195,-139,48,166,-124,-42,27,-21,34,47,-70,-90
-195,-133,54,160,-124,-36,27,-21,34,47,-76,-96
-195,-133,54,160,-124,-36,27,-21,34,47,-76,-96
-195,-127,60,160,-130,-30,27,-21,34,47,-82,-96
-195,-127,60,160,-130,-30,27,-21,34,47,-82,-96
-195,-127,66,160,-136,-24,33,-21,40,47,-76,-96
-201,-127,72,166,-142,-24,33,-21,40,47,-76,-96
-201,-133,66,166,-136,-30,39,-21,40,47,-70,-96
-201,-133,66,166,-136,-30,39,-21,40,47,-70,-96
-213,-157,54,184,-136,-48,39,-21,40,47,-82,-102
-201,-145,54,172,-130,-42,51,-15,52,47,-70,-90
-177,-97,72,136,-124,-6,81,3,64,59,-58,-78
-201,-85,114,142,-160,18,111,20,70,59,-70,-72
-279,-79,198,178,-238,53,141,26,70,59,-70,-84
-333,-43,282,190,-310,113,207,68,100,77,-46,-78
-315,41,348,136,-334,191,279,164,166,131,8,-36
-303,100,408,94,-352,257,351,260,262,209,61,-1
-285,166,456,52,-370,305,423,386,364,299,157,71
-261,274,534,-14,-400,401,489,506,490,425,271,143
-195,418,618,-103,-406,515,501,608,646,587,397,245
-111,496,606,-187,-358,545,471,668,814,743,535,353
-3,508,510,-247,-256,509,387,692,964,869,637,407
122,538,408,-325,-136,473,225,608,1048,977,739,467
248,610,360,-427,-52,491,27,452,1096,1103,859,551
332,694,354,-517,-4,521,-176,260,1114,1223,985,641
404,784,372,-589,19,575,-410,9,1102,1313,1081,725
446,832,384,-637,25,611,-638,-267,1006,1349,1129,791
476,838,360,-655,55,599,-872,-567,832,1325,1123,815
512,748,234,-625,139,491,-1106,-789,652,1229,1045,779
524,550,24,-535,247,287,-1256,-903,496,1049,883,677
482,286,-197,-379,337,41,-1298,-963,256,755,595,485
392,52,-341,-223,367,-144,-1310,-1137,-109,365,277,299
302,-67,-377,-115,337,-216,-1310,-1305,-481,59,49,167
254,-151,-407,-50,325,-276,-1274,-1395,-727,-138,-124,53
206,-223,-437,4,319,-330,-1190,-1395,-913,-294,-250,-18
128,-283,-419,70,271,-348,-1058,-1335,-1021,-396,-346,-84
50,-289,-347,112,199,-318,-896,-1167,-961,-384,-364,-120
-15,-277,-257,148,115,-270,-710,-891,-733,-282,-316,-126
-75,-283,-209,178,61,-246,-512,-651,-529,-192,-274,-114
-111,-289,-179,196,25,-234,-380,-483,-409,-150,-262,-138
-135,-265,-131,196,2,-204,-284,-363,-325,-120,-244,-138
-135,-235,-101,184,-10,-174,-206,-267,-247,-90,-214,-144
-135,-199,-65,166,-28,-138,-134,-195,-199,-66,-190,-138
-135,-187,-53,160,-34,-126,-92,-135,-163,-42,-184,-150
-147,-187,-41,166,-46,-120,-56,-81,-127,-36,-172,-144
-147,-193,-47,172,-46,-126,-32,-63,-109,-24,-166,-156
-135,-193,-59,166,-34,-132,-20,-27,-79,-6,-148,-138
-147,-187,-35,166,-52,-114,-8,-3,-37,18,-136,-126
-177,-187,-11,184,-76,-102,3,-3,-13,24,-118,-114
-195,-205,-5,196,-94,-108,3,-3,-7,24,-130,-108
-213,-193,12,202,-118,-90,21,-9,-1,30,-130,-102
-195,-163,24,178,-112,-66,39,-3,5,30,-118,-90
-195,-151,36,172,-118,-54,51,3,-1,30,-118,-96
-195,-145,42,166,-118,-48,57,9,5,30,-124,-102
-195,-139,48,166,-124,-42,63,15,-1,24,-124,-108
-195,-139,48,166,-124,-42,63,20,11,24,-124,-114
-195,-145,42,166,-118,-48,57,20,17,35,-118,-108
-195,-151,42,172,-124,-48,57,26,23,35,-112,-108
-195,-157,36,178,-118,-54,51,32,34,35,-112,-102
-195,-163,30,178,-118,-60,51,32,34,35,-106,-96
-195,-157,30,172,-112,-60,57,26,34,35,-106,-96
-195,-151,36,172,-118,-54,57,26,34,41,-106,-96
-189,-145,36,166,-112,-48,63,20,34,41,-106,-90
-189,-145,36,166,-112,-48,69,20,34,47,-100,-90
-189,-139,42,160,-118,-42,69,20,34,47,-94,-96
-189,-139,42,160,-118,-42,69,20,34,47,-94,-102
-189,-139,42,160,-118,-42,75,20,34,47,-88,-108
-189,-139,42,160,-118,-42,81,26,40,47,-76,-102
-195,-139,48,166,-124,-42,75,32,58,53,-82,-96
-195,-133,54,160,-124,-36,69,32,58,53,-82,-90
-195,-139,48,166,-124,-42,63,38,70,59,-88,-84
-189,-139,42,160,-118,-42,63,38,70,59,-82,-84
-183,-133,42,154,-112,-42,69,32,70,65,-76,-78
-183,-133,42,154,-112,-42,69,38,82,65,-76,-78
-177,-127,42,148,-112,-36,75,38,82,65,-64,-78
-177,-121,48,148,-112,-30,75,38,82,65,-64,-78
-183,-121,54,148,-118,-30,81,38,76,65,-64,-84
-183,-121,54,148,-118,-30,81,38,88,65,-64,-84
-189,-121,60,154,-124,-24,81,44,82,59,-70,-90
-189,-121,60,154,-124,-24,81,44,88,59,-70,-90
-183,-115,60,148,-124,-24,81,44,94,65,-70,-84
-183,-109,66,142,-124,-18,81,44,94,77,-70,-84
-177,-103,66,136,-124,-12,81,50,100,83,-64,-78
-177,-103,66,136,-124,-12,81,62,100,89,-64,-72
-177,-103,66,136,-124,-12,81,62,100,89,-58,-72
-171,-103,60,136,-118,-18,81,68,106,89,-52,-72
-165,-97,60,130,-112,-12,93,68,112,95,-52,-66
-165,-97,60,130,-112,-12,93,68,124,95,-52,-54
-165,-91,66,124,-118,-6,87,80,124,89,-52,-60
-165,-91,66,124,-118,-6,87,86,130,95,-40,-60
-159,-91,60,124,-112,-12,81,86,130,95,-40,-60
-159,-91,60,124,-112,-12,81,92,136,101,-34,-60
-165,-85,72,124,-118,0,81,92,148,101,-34,-54
-165,-85,72,124,-118,0,81,92,148,107,-34,-48
-171,-85,78,124,-124,0,81,104,148,107,-34,-42
-165,-85,72,124,-118,0,81,104,148,113,-22,-42
-159,-67,84,112,-124,12,87,110,154,119,-16,-36
-159,-61,90,106,-124,18,87,116,166,125,-10,-24
-153,-55,90,100,-124,24,87,128,178,143,8,-24
-147,-49,90,94,-118,24,87,134,190,149,8,-24
-147,-43,96,94,-124,29,81,134,196,149,8,-24
-147,-43,96,94,-124,29,81,140,196,155,8,-12
-147,-49,90,94,-118,24,75,140,196,155,8,-12
-147,-43,96,94,-124,29,69,140,196,161,8,-12
-135,-37,90,82,-112,29,75,140,208,173,20,-7
-135,-31,96,82,-118,29,75,152,208,179,26,-7
-117,-25,84,70,-100,29,81,158,220,191,38,-7
-117,-25,84,70,-100,29,81,158,226,197,49,5
-123,-31,84,76,-106,29,75,164,232,197,49,-1
-129,-25,96,76,-112,29,75,170,244,209,49,5
-129,-25,96,76,-112,29,69,176,250,209,49,5
-123,-19,96,70,-112,29,63,176,256,215,49,11
-117,-7,102,58,-112,41,57,182,268,215,61,23
-111,-1,102,52,-106,41,57,194,274,221,67,29
-93,17,102,34,-100,53,57,206,274,227,85,47
-87,23,102,28,-94,53,51,218,280,239,91,53
-87,41,120,22,-106,71,45,218,298,245,91,65
-81,47,120,16,-100,77,39,224,298,257,103,71
-81,47,120,16,-100,77,33,218,310,269,103,77
-75,52,126,4,-100,83,27,224,316,281,121,89
-57,52,108,-2,-82,77,27,230,334,287,121,89
-57,52,114,-8,-82,83,21,230,334,299,133,95
-45,64,114,-20,-76,89,21,230,340,293,139,95
-39,76,120,-26,-76,95,15,224,346,299,139,107
-33,82,120,-32,-76,101,3,230,358,311,157,119
-27,94,126,-44,-76,107,3,230,370,323,181,131
-21,100,126,-50,-70,113,3,242,388,335,193,143
-9,112,126,-50,-64,119,3,242,394,347,199,149
-9,124,138,-50,-70,131,-2,236,394,353,211,149
-3,124,132,-55,-64,125,-8,230,394,353,211,155
-9,136,150,-55,-76,143,-14,224,388,359,211,155
-3,142,150,-61,-76,143,-20,218,388,371,217,155
3,142,144,-67,-70,143,-32,212,382,377,223,167
9,142,138,-67,-64,137,-44,206,382,383,229,167
9,142,138,-67,-64,137,-56,200,382,389,235,173
3,148,150,-67,-70,149,-68,194,376,389,235,173
3,154,156,-73,-76,155,-68,188,370,389,241,179
15,154,144,-79,-64,149,-68,182,370,389,247,179
15,160,150,-79,-64,155,-68,176,370,395,253,179
15,160,150,-79,-64,155,-80,170,358,395,247,179
9,154,150,-73,-70,149,-86,158,346,383,241,179
9,148,144,-73,-64,143,-86,152,340,383,241,179
9,142,138,-67,-64,137,-86,152,334,377,235,179
9,130,126,-61,-58,125,-86,146,328,365,229,173
9,142,138,-67,-64,137,-86,134,328,365,229,173
15,148,138,-73,-58,143,-86,122,322,365,229,173
21,160,144,-85,-58,149,-86,122,322,371,217,173
21,166,150,-85,-64,155,-86,122,316,365,211,167
15,154,144,-79,-64,149,-80,122,304,359,211,161
15,148,138,-73,-58,143,-74,116,298,353,211,155
15,130,120,-67,-52,125,-62,116,286,347,205,137
15,124,114,-61,-46,119,-50,116,280,341,199,131
3,124,126,-55,-58,125,-50,110,280,335,193,131
-3,118,126,-50,-64,119,-44,110,280,323,187,125
-3,118,126,-50,-64,119,-38,104,280,317,187,125
-9,112,126,-50,-64,119,-32,104,280,311,175,119
-9,100,114,-50,-58,107,-14,104,274,299,157,107
-21,88,114,-44,-64,101,-8,104,262,293,145,89
-33,82,120,-32,-76,101,-8,110,244,287,127,71
-39,70,114,-26,-76,89,3,116,244,287,121,71
-45,58,108,-14,-76,83,3,110,238,275,115,59
-57,52,114,-8,-82,83,9,110,232,263,103,41
-63,52,108,4,-88,71,15,98,232,245,97,35
-69,47,108,10,-88,71,27,98,226,233,85,23
-63,47,102,4,-82,65,33,104,226,233,85,23
-75,35,102,16,-88,59,45,110,226,221,73,17
-69,41,102,10,-88,65,45,110,214,215,67,17
-75,29,96,22,-88,53,57,110,208,203,55,11
-87,5,84,40,-88,35,63,110,202,197,49,-7
-99,-1,90,46,-94,35,69,110,202,191,44,-7
-105,-7,90,52,-100,35,75,116,190,185,32,-12
-105,-13,84,58,-94,29,81,116,190,179,32,-18
-99,-19,72,58,-88,29,87,110,190,173,26,-18
-111,-25,78,64,-94,29,93,110,184,167,20,-18
-105,-31,66,64,-88,24,93,104,190,161,20,-12
-111,-31,72,70,-94,24,99,104,184,155,14,-12
-117,-43,66,76,-94,18,99,98,178,143,8,-24
-129,-43,78,82,-106,24,99,98,178,143,2,-24
-135,-49,78,88,-106,18,99,98,172,131,-4,-36
-141,-55,78,94,-112,18,105,92,166,125,-10,-36
-135,-55,72,94,-106,12,105,92,166,125,-16,-42
-135,-55,72,94,-106,12,105,86,166,125,-16,-42
-129,-61,60,94,-94,6,99,86,166,125,-22,-48
-129,-67,54,94,-94,0,99,86,160,119,-22,-48
-129,-67,54,94,-94,0,105,86,154,119,-22,-48
-129,-67,54,94,-94,0,105,80,148,119,-28,-48
-129,-67,54,94,-94,0,111,80,148,113,-22,-42
-129,-67,54,94,-94,0,111,80,148,113,-22,-42
-135,-73,54,100,-94,-6,105,74,142,107,-28,-48
-135,-73,54,100,-94,-6,105,74,142,101,-28,-48
-141,-73,60,106,-100,0,99,68,136,95,-40,-48
-141,-73,60,106,-100,0,99,68,136,95,-40,-54
-141,-73,60,106,-100,0,99,62,136,101,-34,-48
-141,-79,54,106,-100,-6,99,62,130,101,-34,-48
-141,-85,48,112,-94,-12,105,62,130,107,-28,-42
-141,-85,48,112,-94,-12,105,62,136,107,-28,-36
-147,-85,54,112,-100,-12,99,68,136,101,-28,-36
-147,-85,54,112,-100,-12,99,68,136,101,-28,-42
-153,-85,60,118,-106,-6,93,74,136,101,-28,-42
-153,-85,60,118,-106,-6,93,74,136,101,-28,-42
-153,-91,54,118,-106,-12,99,74,136,101,-28,-48
-153,-97,48,124,-100,-18,99,74,136,101,-28,-48
-153,-103,42,124,-100,-24,105,74,142,101,-28,-48
-153,-109,36,130,-94,-30,105,74,142,101,-28,-48
-147,-103,36,124,-94,-30,105,80,142,107,-28,-48
-141,-97,36,118,-88,-24,105,80,142,107,-22,-48
-135,-91,36,112,-88,-24,105,86,142,119,-22,-48
-129,-85,36,106,-82,-18,111,86,142,119,-22,-48
-147,-85,54,112,-100,-12,105,92,136,113,-34,-48
-147,-85,54,112,-100,-12,105,92,136,107,-34,-48
-153,-79,66,112,-112,0,99,92,130,101,-40,-54
-147,-73,66,106,-106,0,99,92,136,95,-40,-54
-147,-73,66,106,-106,0,99,86,136,101,-34,-54
-147,-73,66,106,-106,0,99,92,136,101,-34,-54
-147,-73,66,106,-106,0,99,86,136,107,-34,-54
-147,-73,66,106,-106,0,99,86,136,107,-34,-60
-147,-73,66,106,-106,0,105,92,136,107,-34,-54
-147,-73,66,106,-106,0,105,92,136,101,-34,-60
-141,-67,66,100,-106,6,111,98,136,101,-34,-54
-141,-67,66,100,-106,6,111,98,142,101,-34,-54
-147,-73,66,106,-106,0,111,98,142,101,-34,-60
-159,-79,72,118,-118,0,111,98,136,101,-34,-60
-165,-85,72,124,-118,0,111,98,136,101,-34,-66
-165,-91,66,124,-118,-6,111,98,136,101,-34,-66
-165,-85,72,124,-118,0,111,98,136,101,-34,-66
-165,-85,72,124,-118,0,117,98,136,101,-28,-66
-165,-79,78,118,-124,6,117,92,130,101,-28,-66
-165,-79,78,118,-124,6,117,92,130,101,-34,-66
-159,-79,72,118,-118,0,111,86,130,95,-40,-66
-159,-79,72,118,-118,0,111,86,124,95,-40,-66
-159,-79,72,118,-118,0,105,80,124,89,-46,-66
-159,-79,72,118,-118,0,105,80,124,89,-40,-60
-159,-73,78,112,-118,6,105,92,124,89,-40,-66
-159,-73,78,112,-118,6,111,92,118,89,-40,-66
-159,-67,84,112,-124,12,111,92,118,89,-40,-72
-153,-61,84,106,-118,18,111,92,118,89,-40,-72
-159,-61,90,106,-124,18,111,86,124,95,-40,-66
-159,-61,90,106,-124,18,105,86,118,95,-40,-66
-171,-67,96,118,-136,18,111,80,124,95,-34,-60
-171,-73,90,118,-130,12,111,80,124,95,-34,-60
-165,-79,78,118,-124,6,117,74,124,95,-34,-66
-165,-79,78,118,-124,6,117,68,118,95,-34,-66
-165,-73,84,118,-124,12,123,68,118,95,-34,-72
-171,-73,90,118,-130,12,123,68,118,101,-34,-72
-171,-79,84,124,-130,6,117,74,118,101,-34,-72
-171,-85,78,124,-124,0,117,68,118,95,-34,-72
-165,-91,66,124,-118,-6,111,74,112,95,-34,-72
-165,-91,66,124,-118,-6,111,62,112,95,-34,-72
-171,-85,78,124,-124,0,111,62,106,95,-40,-72
-171,-85,78,124,-124,0,111,62,100,89,-40,-72
-171,-79,84,124,-130,6,111,62,94,89,-46,-72
-171,-79,84,124,-130,6,105,62,94,89,-46,-72
-159,-79,72,118,-118,0,105,56,88,89,-46,-66
-159,-79,72,118,-118,0,105,56,88,89,-52,-66
-159,-91,60,124,-112,-12,105,44,76,83,-52,-60
-165,-91,66,124,-118,-6,99,44,76,83,-52,-60
-165,-85,72,124,-118,0,99,44,76,83,-52,-66
-159,-85,66,118,-112,-6,99,44,76,83,-52,-66
-159,-79,72,118,-118,0,99,32,76,77,-52,-72
-159,-73,78,112,-118,6,99,26,76,77,-52,-72
-165,-79,78,118,-124,6,99,32,76,77,-52,-72
-165,-79,78,118,-124,6,99,32,76,77,-52,-72
-171,-85,78,124,-124,0,99,38,76,77,-52,-66
-171,-91,72,130,-124,-6,99,38,70,77,-52,-66
-171,-91,72,130,-124,-6,99,32,70,77,-52,-66
-171,-91,72,130,-124,-6,99,32,70,77,-52,-66
-171,-91,72,130,-124,-6,99,20,70,77,-64,-66
-171,-91,72,130,-124,-6,99,20,64,77,-64,-66
-177,-91,78,130,-130,0,99,20,70,71,-58,-66
-177,-91,78,130,-130,0,99,20,70,71,-58,-66
-177,-91,78,130,-130,0,93,20,76,71,-52,-60
-177,-91,78,130,-130,0,87,26,76,71,-52,-60
-183,-91,84,136,-136,0,93,26,70,71,-58,-60
-183,-103,72,142,-130,-12,93,20,70,71,-58,-60
-189,-109,72,148,-130,-12,105,20,70,71,-58,-66
-189,-109,72,148,-130,-12,105,20,70,65,-58,-66
-183,-103,72,142,-130,-12,99,20,64,65,-58,-66
-183,-103,72,142,-130,-12,99,26,64,65,-58,-66
-177,-109,60,142,-118,-18,93,26,58,65,-58,-66
-189,-115,66,148,-130,-18,87,26,52,65,-64,-66
-195,-109,78,148,-136,-12,87,20,52,65,-64,-72
-183,-103,72,142,-130,-12,87,20,52,65,-64,-72
-189,-97,84,142,-136,0,87,20,46,65,-64,-78
-189,-97,84,142,-136,0,87,20,46,65,-64,-78
-189,-97,84,142,-136,0,87,20,46,65,-58,-78
-189,-109,72,148,-130,-12,87,20,46,65,-52,-78
-189,-109,72,148,-130,-12,87,20,46,59,-52,-72
-189,-109,72,148,-130,-12,87,15,46,59,-58,-72
-183,-109,66,142,-124,-18,93,20,46,65,-58,-78
-183,-103,72,142,-130,-12,99,20,46,65,-58,-78
-177,-97,72,136,-124,-6,99,20,46,65,-58,-84
-177,-91,78,130,-130,0,99,20,46,65,-52,-84
-183,-97,78,136,-130,-6,99,20,46,59,-52,-84
-183,-103,72,142,-130,-12,99,20,46,65,-58,-84
-189,-109,72,148,-130,-12,105,20,52,59,-58,-90
-189,-103,78,142,-136,-6,105,20,52,59,-58,-90
-183,-109,66,142,-124,-18,99,20,46,59,-58,-90
-183,-109,66,142,-124,-18,105,20,52,65,-58,-96
-183,-115,60,148,-124,-24,99,15,52,65,-58,-96
-183,-109,66,142,-124,-18,99,20,52,65,-52,-90
-183,-115,60,148,-124,-24,99,20,52,65,-58,-96
-183,-115,60,148,-124,-24,93,20,52,65,-58,-96
-177,-115,54,142,-118,-24,87,20,58,65,-64,-102
-177,-115,54,142,-118,-24,87,20,58,65,-64,-102
-183,-115,60,148,-124,-24,87,20,52,59,-64,-96
-183,-115,60,148,-124,-24,87,20,52,65,-64,-96
-183,-115,60,148,-124,-24,87,20,58,59,-64,-90
-183,-115,60,148,-124,-24,87,20,58,65,-64,-90
-183,-121,54,148,-118,-30,87,15,64,71,-58,-96
-183,-115,60,148,-124,-24,87,15,70,65,-58,-90
-183,-115,60,148,-124,-24,87,9,76,71,-58,-90
-183,-115,60,148,-124,-24,87,9,88,71,-58,-90
-201,-163,36,184,-124,-60,81,9,112,59,-58,-102
-189,-151,30,166,-112,-54,81,20,124,59,-58,-96
-177,-139,30,154,-106,-48,87,20,124,59,-46,-78
-153,-121,24,136,-88,-42,105,26,136,65,-40,-72
-159,-127,24,142,-94,-48,99,20,130,59,-46,-78
-165,-127,30,142,-100,-42,99,20,130,59,-52,-78
-171,-133,30,148,-100,-48,93,20,124,53,-58,-84
-177,-133,36,154,-106,-42,93,15,124,53,-64,-84
-183,-127,48,154,-118,-36,93,15,118,59,-64,-90
-183,-127,48,154,-118,-36,93,15,118,59,-64,-90
-183,-121,54,148,-118,-30,93,15,112,71,-64,-90
-183,-121,54,148,-118,-30,93,15,112,71,-64,-90
-183,-133,42,154,-112,-42,93,20,106,59,-64,-96
-183,-133,42,154,-112,-42,93,20,106,59,-64,-96
-177,-133,36,154,-106,-42,93,20,100,53,-64,-90
-177,-133,36,154,-106,-42,93,20,100,53,-64,-90
-183,-139,36,160,-112,-48,93,20,100,59,-58,-84
-183,-145,30,160,-106,-54,93,20,94,59,-58,-84
-189,-151,30,166,-112,-54,93,20,94,59,-52,-84
-189,-151,30,166,-112,-54,93,20,94,59,-52,-84
-183,-145,30,160,-106,-54,93,20,88,59,-58,-84
-183,-145,30,160,-106,-54,93,20,88,59,-58,-84
-171,-139,24,154,-100,-54,93,20,82,59,-58,-84
-171,-139,24,154,-100,-54,93,20,82,59,-58,-84
-177,-139,30,154,-106,-48,99,20,82,59,-58,-78
-177,-139,30,154,-106,-48,99,20,82,59,-58,-84
-183,-139,36,160,-112,-48,99,20,82,65,-58,-78
-183,-133,42,154,-112,-42,99,20,88,65,-52,-72
-177,-127,42,148,-112,-36,105,20,82,65,-52,-78
-177,-121,48,148,-112,-30,105,20,88,71,-46,-72
-177,-115,54,142,-118,-24,117,20,94,71,-46,-72
-177,-109,60,142,-118,-18,123,32,94,83,-40,-66
-171,-103,60,136,-118,-18,129,38,94,83,-34,-66
-171,-91,72,130,-124,-6,135,44,100,89,-28,-60
-171,-91,72,130,-124,-6,135,38,94,89,-22,-60
-165,-79,78,118,-124,6,135,44,94,89,-16,-60
-159,-67,84,112,-124,12,147,44,94,89,-16,-54
-159,-61,90,106,-124,18,147,44,100,89,-10,-48
-153,-49,96,100,-124,29,153,50,106,95,-10,-36
-153,-43,102,94,-130,29,153,50,112,95,-4,-36
-159,-49,102,100,-130,29,153,50,112,95,-10,-42
-159,-49,102,100,-130,29,153,50,112,95,-10,-42
-165,-61,96,112,-130,24,153,50,112,95,-16,-48
-165,-61,96,112,-130,24,141,50,112,95,-16,-48
-153,-49,96,100,-124,29,135,38,106,95,-16,-48
-153,-37,108,94,-130,29,129,38,106,95,-16,-42
-147,-13,126,76,-136,47,123,38,100,107,-4,-30
-141,-1,132,70,-136,59,123,26,100,107,-4,-24
-135,-1,126,64,-130,53,111,26,94,107,-4,-24
-135,5,132,64,-136,59,105,20,94,107,-4,-24
-117,11,120,52,-118,59,93,20,88,107,-4,-18
-111,11,114,46,-112,53,87,20,82,107,2,-12
-111,11,114,46,-112,53,87,20,82,107,2,-18
-105,11,108,46,-106,53,87,20,88,107,2,-12
-105,5,102,46,-106,47,87,26,94,113,8,-18
-99,-13,78,52,-88,29,81,26,94,113,8,-18
-93,-25,60,58,-76,24,63,20,76,101,-4,-30
-87,-43,36,64,-64,0,57,20,70,95,-10,-36
-87,-49,30,64,-58,-6,51,20,64,89,-10,-42
-87,-61,18,70,-52,-18,51,20,58,83,-22,-42
-81,-61,12,70,-46,-18,51,15,52,83,-22,-42
