,,,,,,,,,,,
2019-09-01 15:33:14,,,,,,,,,,,
,,,,,,,,,,,
I,II,III,aVR,aVL,aVF,V1,V2,V3,V4,V5,V6
-92,-164,-68,128,-6,-116,-11,-135,-204,-65,-39,-111
-92,-164,-68,128,-6,-116,-11,-135,-204,-65,-39,-111
-92,-164,-68,128,-6,-116,-11,-135,-204,-65,-39,-111
-92,-164,-68,128,-6,-116,-11,-135,-204,-65,-39,-111
-92,-158,-62,122,-12,-110,-5,-129,-198,-59,-33,-111
-92,-158,-62,122,-12,-110,-5,-129,-198,-59,-33,-111
-92,-152,-56,122,-12,-104,1,-123,-192,-53,-27,-111
-92,-152,-56,122,-12,-104,1,-123,-192,-53,-27,-111
-92,-146,-50,116,-18,-98,-5,-129,-192,-53,-27,-111
-92,-146,-50,116,-18,-98,-5,-129,-192,-53,-27,-111
-92,-140,-44,116,-18,-92,-11,-135,-192,-53,-27,-111
-92,-140,-44,116,-18,-92,-11,-135,-192,-53,-27,-111
-98,-146,-44,122,-24,-98,-5,-129,-192,-47,-21,-105
-68,-134,-62,98,0,-98,1,-123,-192,-41,-15,-105
-98,-140,-38,116,-24,-92,7,-123,-192,-35,-9,-99
-98,-152,-50,122,-18,-104,13,-117,-186,-23,-3,-99
-86,-128,-38,104,-18,-86,31,-105,-180,-17,3,-93
-80,-128,-44,104,-12,-86,31,-105,-180,-17,3,-87
-68,-122,-50,92,-6,-86,37,-105,-186,-17,3,-87
-50,-116,-62,80,12,-92,37,-105,-186,-11,3,-87
-62,-122,-56,92,0,-92,37,-105,-192,-17,3,-93
-74,-140,-62,104,0,-104,31,-111,-192,-23,3,-99
-86,-122,-32,104,-24,-80,19,-111,-192,-35,-3,-105
-86,-140,-50,110,-12,-98,13,-117,-192,-41,-3,-111
-74,-134,-56,104,-6,-98,13,-111,-192,-41,-9,-105
-68,-122,-50,92,-6,-86,13,-105,-192,-41,-9,-105
-44,-110,-62,74,12,-86,13,-99,-192,-35,-3,-99
-56,-104,-44,80,0,-74,25,-87,-180,-17,9,-93
-32,-92,-56,62,17,-74,31,-75,-174,-11,15,-81
-8,-74,-62,38,17,-68,37,-69,-168,1,21,-69
9,-62,-68,26,29,-68,42,-63,-156,7,21,-63
9,-56,-68,20,35,-62,42,-63,-156,1,21,-63
9,-62,-68,26,29,-68,42,-57,-156,1,21,-63
-2,-74,-68,38,23,-74,42,-51,-150,13,26,-63
-32,-86,-50,56,12,-68,42,-39,-150,13,26,-63
-20,-74,-50,44,17,-62,42,-39,-150,13,26,-63
-32,-68,-32,50,6,-50,37,-45,-156,13,21,-69
-62,-104,-38,80,-6,-74,25,-57,-168,1,15,-69
-62,-128,-62,92,6,-98,13,-69,-180,-5,9,-81
-56,-134,-74,92,12,-104,13,-75,-180,-5,9,-81
-38,-98,-56,68,12,-80,19,-75,-174,7,21,-69
-14,-56,-38,32,17,-50,7,-75,-174,7,26,-63
15,-15,-38,2,23,-26,7,-69,-168,13,26,-63
33,-15,-56,-3,41,-32,-11,-75,-168,13,26,-63
21,-32,-62,2,41,-44,-11,-75,-174,13,26,-69
21,-44,-74,2,47,-56,-17,-93,-192,1,21,-69
27,-38,-74,2,47,-56,-17,-87,-192,1,15,-69
21,-68,-98,14,59,-80,-23,-93,-192,-5,9,-63
9,-80,-86,32,41,-86,-29,-105,-198,-17,-3,-81
4,-86,-86,38,35,-86,-29,-123,-210,-23,-9,-93
-8,-110,-98,56,35,-104,-35,-129,-210,-29,-15,-99
-26,-122,-92,74,23,-110,-35,-135,-210,-29,-15,-111
4,-116,-116,56,53,-116,-29,-129,-204,-35,-27,-111
9,-116,-122,50,59,-122,-29,-135,-216,-41,-27,-117
9,-110,-122,44,59,-116,-23,-129,-210,-41,-27,-117
9,-110,-128,44,65,-116,-23,-129,-204,-35,-27,-117
9,-104,-116,44,59,-110,-29,-129,-210,-35,-15,-105
-8,-116,-104,62,41,-110,-23,-129,-210,-35,-15,-105
-14,-110,-92,62,29,-104,-29,-129,-216,-41,-15,-99
-8,-92,-80,50,29,-86,-29,-129,-216,-41,-15,-99
-20,-110,-86,62,23,-98,-29,-129,-222,-41,-21,-105
-44,-122,-74,80,17,-98,-23,-129,-222,-41,-21,-105
-26,-110,-80,68,17,-98,-17,-129,-228,-41,-27,-117
-2,-104,-98,50,41,-104,-11,-129,-228,-41,-27,-117
-26,-110,-80,68,17,-98,-11,-129,-222,-35,-27,-117
-38,-116,-74,74,17,-98,-11,-129,-222,-35,-27,-117
-44,-122,-74,80,17,-98,-11,-135,-216,-35,-27,-117
-62,-134,-68,98,6,-104,-5,-135,-216,-35,-33,-117
-68,-128,-56,98,0,-92,-5,-135,-216,-29,-27,-117
-68,-122,-50,92,-6,-86,-5,-135,-216,-41,-21,-123
-68,-134,-62,98,0,-98,-5,-135,-210,-35,-15,-123
-86,-134,-44,110,-18,-92,-5,-129,-222,-41,-21,-129
-86,-146,-56,116,-12,-104,-17,-135,-228,-53,-33,-135
-92,-146,-50,116,-18,-98,-23,-141,-234,-59,-39,-135
-116,-158,-38,134,-36,-98,-29,-147,-240,-59,-45,-141
-122,-164,-38,140,-36,-104,-35,-153,-240,-65,-51,-135
-104,-152,-44,128,-24,-98,-29,-147,-234,-53,-39,-129
-98,-152,-50,122,-18,-104,-23,-141,-234,-47,-33,-129
-80,-140,-56,110,-6,-98,-17,-135,-228,-35,-27,-123
-74,-140,-62,104,0,-104,-11,-129,-228,-29,-21,-123
-62,-134,-68,98,6,-104,-11,-135,-234,-35,-21,-123
-74,-128,-50,98,-6,-92,-11,-135,-234,-47,-21,-123
-50,-116,-62,80,12,-92,-23,-141,-246,-53,-21,-123
-44,-110,-62,74,12,-86,-23,-141,-246,-53,-21,-123
-74,-134,-56,104,-6,-98,-29,-141,-246,-53,-21,-129
-86,-140,-50,110,-12,-98,-29,-141,-246,-53,-21,-129
-86,-146,-56,116,-12,-104,-29,-141,-240,-47,-21,-135
-92,-146,-50,116,-18,-98,-17,-141,-234,-47,-21,-135
-98,-146,-44,122,-24,-98,-29,-141,-240,-53,-27,-135
-80,-146,-62,110,-6,-104,-29,-141,-246,-53,-27,-135
-110,-158,-44,134,-30,-104,-29,-141,-252,-59,-33,-135
-110,-176,-62,140,-18,-122,-29,-141,-252,-59,-27,-135
-104,-158,-50,128,-24,-104,-29,-135,-264,-53,-27,-135
-98,-158,-56,128,-18,-110,-29,-135,-252,-53,-27,-135
-92,-158,-62,122,-12,-110,-29,-129,-246,-47,-27,-135
-68,-158,-86,110,12,-122,-23,-129,-246,-41,-27,-129
-32,-86,-50,56,12,-68,-23,-129,-252,-53,-39,-141
-50,-98,-44,74,0,-74,-23,-117,-240,-35,-27,-135
-110,-134,-27,122,-42,-80,-11,-117,-240,-53,-39,-135
-104,-152,-44,128,-24,-98,-23,-129,-258,-59,-45,-153
-56,-140,-80,98,17,-110,-5,-117,-258,-65,-51,-153
-56,-182,-122,116,23,-152,7,-111,-258,-83,-69,-177
-56,-254,-200,158,65,-230,31,-81,-258,-113,-111,-213
-38,-296,-260,170,101,-278,60,-39,-252,-125,-141,-249
-74,-308,-236,194,71,-272,126,33,-210,-101,-135,-261
-68,-278,-212,176,65,-248,192,134,-126,-23,-75,-201
33,-188,-230,68,131,-206,228,260,6,90,26,-117
123,-86,-218,-9,167,-152,258,386,137,228,146,-9
159,-26,-194,-57,173,-110,312,548,287,366,272,80
249,51,-194,-147,221,-62,384,716,473,528,422,200
345,225,-116,-285,233,51,480,920,701,720,590,356
429,435,-3,-429,215,219,588,1208,989,972,824,560
537,573,27,-555,257,303,696,1484,1289,1254,1082,782
699,705,-3,-699,347,351,750,1676,1517,1488,1322,1016
753,843,81,-795,335,465,738,1754,1685,1650,1496,1196
783,981,195,-885,293,591,708,1772,1775,1770,1646,1328
843,1125,273,-981,281,705,618,1742,1841,1890,1760,1466
819,1209,387,-1011,215,801,498,1622,1835,1926,1826,1544
723,1251,525,-981,95,891,420,1412,1709,1842,1772,1520
627,1227,597,-927,17,915,330,1106,1427,1608,1574,1382
519,1125,597,-819,-30,861,150,704,1013,1254,1274,1154
363,957,591,-663,-108,777,-41,254,557,864,938,878
219,825,603,-519,-192,711,-239,-237,53,462,590,602
129,699,561,-411,-216,633,-437,-693,-396,90,266,332
15,543,519,-279,-246,531,-551,-969,-684,-155,32,116
-110,387,495,-135,-300,441,-581,-1041,-774,-275,-81,-9
-194,243,441,-21,-312,339,-605,-1041,-816,-323,-153,-93
-242,123,369,56,-306,243,-647,-1065,-852,-383,-213,-183
-254,-3,255,122,-252,129,-659,-1053,-894,-449,-285,-243
-218,-15,201,110,-210,87,-629,-993,-888,-467,-315,-279
-188,-9,183,92,-186,87,-545,-873,-810,-437,-297,-267
-200,-20,171,110,-186,69,-443,-735,-720,-389,-261,-255
-158,-15,135,86,-150,51,-383,-633,-630,-329,-225,-219
-98,21,123,32,-108,69,-335,-537,-558,-275,-183,-195
-116,9,129,44,-120,69,-287,-477,-498,-227,-159,-189
-128,-20,99,74,-114,33,-227,-411,-456,-203,-129,-189
-92,-44,39,68,-66,-9,-191,-333,-414,-155,-105,-177
-116,-74,33,92,-78,-21,-143,-285,-384,-149,-105,-171
-140,-98,33,116,-90,-26,-107,-237,-354,-125,-87,-171
-74,-74,-9,74,-36,-38,-53,-177,-294,-77,-57,-129
-38,-86,-44,62,6,-68,-11,-123,-246,-47,-21,-117
-38,-86,-44,62,6,-68,-5,-123,-240,-53,-21,-117
-32,-80,-44,56,12,-62,-11,-123,-240,-53,-27,-117
-32,-74,-38,50,6,-56,-23,-123,-246,-59,-39,-123
-50,-74,-27,62,-12,-50,-29,-123,-258,-71,-51,-135
-68,-86,-27,74,-24,-50,-35,-135,-264,-71,-63,-147
-74,-116,-38,92,-12,-80,-23,-141,-270,-71,-63,-153
-92,-152,-56,122,-12,-104,-23,-129,-264,-71,-63,-159
-98,-140,-38,116,-24,-92,-5,-117,-258,-65,-63,-159
-86,-146,-56,116,-12,-104,-5,-105,-246,-59,-63,-147
-98,-152,-50,122,-18,-104,-5,-105,-246,-53,-57,-147
-110,-164,-50,134,-24,-110,-11,-99,-240,-53,-51,-147
-86,-158,-68,122,-6,-116,-11,-99,-240,-53,-51,-141
-74,-146,-68,110,0,-110,-11,-111,-246,-59,-57,-147
-92,-164,-68,128,-6,-116,-17,-111,-246,-59,-57,-153
-62,-128,-62,92,6,-98,-11,-117,-252,-71,-69,-165
-50,-98,-44,74,0,-74,1,-117,-240,-71,-69,-165
-56,-116,-56,86,6,-86,13,-99,-240,-65,-63,-159
-44,-116,-68,80,17,-92,19,-93,-228,-53,-57,-159
-32,-104,-68,68,17,-86,19,-81,-228,-53,-51,-141
-32,-104,-68,68,17,-86,19,-81,-228,-47,-51,-141
-44,-110,-62,74,12,-86,19,-81,-222,-41,-27,-129
-44,-110,-62,74,12,-86,7,-81,-222,-47,-27,-129
-44,-104,-56,74,12,-80,13,-81,-216,-41,-33,-123
-56,-116,-56,86,6,-86,13,-81,-210,-41,-33,-123
-62,-134,-68,98,6,-104,7,-87,-222,-41,-45,-135
-44,-134,-86,86,17,-110,19,-87,-222,-41,-45,-135
-62,-128,-62,92,6,-98,13,-93,-216,-41,-51,-141
-62,-128,-62,92,6,-98,13,-87,-216,-35,-45,-141
-56,-128,-68,92,12,-98,13,-81,-216,-35,-45,-135
-56,-134,-74,92,12,-104,13,-81,-216,-35,-45,-135
-62,-128,-62,92,6,-98,13,-75,-216,-35,-39,-141
-62,-128,-62,92,6,-98,1,-75,-210,-35,-39,-141
-56,-122,-62,86,6,-92,1,-81,-210,-41,-45,-141
-74,-146,-68,110,0,-110,13,-81,-216,-41,-51,-141
-68,-140,-68,104,6,-104,13,-81,-216,-41,-51,-147
-44,-134,-86,86,17,-110,13,-81,-216,-41,-51,-147
-50,-128,-74,86,17,-104,19,-75,-210,-41,-45,-141
-32,-128,-92,80,23,-110,19,-75,-210,-41,-45,-135
-14,-110,-92,62,29,-104,25,-57,-192,-29,-39,-123
-8,-110,-98,56,35,-104,25,-57,-192,-29,-39,-117
-26,-128,-98,74,29,-116,25,-51,-192,-23,-27,-111
-8,-128,-116,68,47,-122,25,-51,-192,-23,-21,-111
-14,-128,-110,68,41,-122,31,-39,-186,-5,-15,-93
-20,-128,-104,74,35,-116,37,-39,-186,-5,-15,-93
-26,-128,-98,74,29,-116,31,-45,-192,-11,-27,-93
-14,-128,-110,68,41,-122,37,-45,-192,-11,-27,-99
-20,-122,-98,68,29,-110,37,-51,-192,-17,-21,-99
-20,-122,-98,68,29,-110,37,-39,-192,-11,-15,-93
-20,-128,-104,74,35,-116,31,-39,-192,-17,-15,-99
-20,-128,-104,74,35,-116,25,-45,-186,-17,-21,-99
-26,-134,-104,80,29,-122,13,-57,-192,-29,-33,-99
-26,-116,-86,68,23,-104,13,-63,-192,-29,-39,-99
-26,-116,-86,68,23,-104,19,-57,-186,-17,-33,-99
-26,-110,-80,68,17,-98,19,-51,-186,-5,-21,-99
-8,-110,-98,56,35,-104,25,-39,-180,1,-15,-99
-8,-116,-104,62,41,-110,25,-33,-174,13,-9,-93
-8,-98,-86,50,29,-92,31,-21,-180,7,-9,-87
9,-92,-98,38,47,-98,37,-15,-174,7,-3,-87
9,-74,-92,26,47,-80,37,-15,-174,7,-9,-75
9,-62,-80,20,41,-68,37,-15,-180,1,-9,-75
9,-50,-62,14,29,-56,37,-9,-174,-5,-9,-81
15,-68,-92,20,53,-80,37,-9,-174,-5,-9,-81
9,-92,-110,32,59,-98,25,-9,-168,1,-9,-81
9,-110,-122,44,59,-116,25,-9,-168,1,-9,-81
9,-110,-122,44,59,-116,19,-15,-168,-5,-15,-87
9,-98,-104,44,47,-104,19,-15,-168,-5,-15,-87
-2,-98,-92,50,35,-98,25,-3,-162,-5,-15,-93
-8,-116,-104,62,41,-110,19,3,-150,7,-3,-81
21,-80,-110,20,65,-92,19,9,-144,7,3,-75
33,-68,-110,8,71,-86,19,9,-144,7,3,-63
27,-50,-86,2,53,-68,25,21,-132,13,3,-57
57,-38,-104,-3,77,-68,19,21,-132,19,9,-51
51,-38,-98,2,71,-68,19,21,-126,19,15,-51
45,-56,-110,2,77,-80,25,27,-120,19,15,-51
45,-68,-122,2,83,-92,25,33,-114,31,21,-51
45,-68,-122,2,83,-92,31,39,-114,31,26,-45
33,-80,-122,14,77,-98,25,45,-114,25,26,-51
45,-56,-110,2,77,-80,25,45,-114,25,26,-39
63,-38,-110,-3,83,-74,25,51,-102,25,26,-39
45,-56,-110,2,77,-80,19,62,-102,31,26,-27
63,-68,-140,2,101,-104,19,62,-90,36,26,-21
99,-32,-140,-27,119,-86,19,62,-90,36,26,-15
105,-20,-134,-33,119,-74,1,62,-84,42,32,-9
105,-15,-122,-39,113,-62,1,62,-84,42,32,-9
123,-15,-140,-51,131,-74,7,80,-72,48,44,3
123,-15,-134,-51,131,-68,7,86,-60,66,68,15
123,-15,-134,-51,131,-68,13,98,-42,78,74,33
129,-15,-140,-57,137,-68,19,104,-42,90,86,33
147,-9,-152,-69,149,-74,7,98,-36,90,80,39
147,-9,-152,-69,149,-74,1,98,-36,90,80,39
147,-15,-158,-63,155,-80,-11,92,-30,90,74,39
165,9,-152,-87,161,-62,-17,86,-36,96,80,50
183,15,-164,-99,173,-68,-11,98,-24,114,92,50
159,-9,-164,-75,161,-80,-17,104,-24,114,92,56
159,3,-152,-81,155,-68,-23,110,-18,120,104,68
183,15,-164,-99,173,-68,-17,122,-18,132,110,74
165,-3,-164,-81,167,-74,-17,116,-12,132,116,74
183,21,-158,-99,173,-62,-23,116,-12,132,116,86
207,57,-146,-129,179,-38,-23,116,-12,132,122,86
213,63,-146,-135,179,-32,-23,116,0,132,134,86
207,45,-158,-123,185,-50,-23,110,-6,126,134,86
219,63,-152,-141,185,-38,-29,110,-6,138,128,92
213,63,-146,-135,179,-32,-41,110,-6,138,128,92
201,63,-134,-129,167,-26,-53,110,-6,144,122,86
201,81,-116,-141,161,-21,-47,110,0,150,128,98
225,105,-116,-165,173,-9,-47,116,0,150,140,110
225,111,-110,-165,167,-3,-41,122,6,162,158,128
225,105,-116,-165,173,-9,-41,122,6,162,158,134
225,99,-122,-159,173,-15,-53,116,0,156,152,122
219,99,-116,-159,167,-15,-53,110,0,150,146,116
201,105,-92,-153,149,3,-47,104,-6,144,140,116
219,105,-110,-159,167,-9,-41,98,6,150,134,116
225,117,-104,-171,167,3,-35,104,6,156,140,122
201,129,-68,-165,137,27,-35,104,-6,150,146,116
207,141,-62,-171,137,33,-29,98,-12,156,140,116
201,141,-56,-171,131,39,-29,104,-12,144,140,116
183,117,-62,-147,125,21,-17,104,-12,144,140,104
177,117,-56,-147,119,27,-17,92,-12,138,134,104
189,117,-68,-153,131,21,-5,86,-24,132,128,98
183,117,-62,-147,125,21,1,80,-24,126,122,86
159,81,-74,-117,119,-3,-5,74,-36,120,104,74
135,69,-62,-99,101,-3,-5,68,-54,114,98,56
99,39,-56,-69,77,-15,-5,62,-72,96,68,50
57,15,-38,-33,47,-15,-5,45,-84,84,44,39
63,15,-44,-39,53,-21,1,39,-96,72,38,33
57,21,-32,-39,47,-9,1,33,-96,60,38,27
33,-9,-38,-9,35,-21,1,21,-114,54,38,21
27,-3,-27,-9,29,-21,1,9,-132,42,26,-3
39,9,-27,-21,35,-15,13,3,-144,36,21,-9
27,9,-27,-15,23,-9,19,-3,-144,36,15,-9
33,9,-27,-21,29,-9,31,-3,-138,36,15,-15
33,15,-27,-21,23,-3,37,-9,-150,36,9,-15
21,-9,-27,-3,23,-21,31,-15,-162,36,-3,-27
9,-20,-32,2,17,-26,37,-21,-174,19,-9,-39
9,-38,-44,14,17,-44,31,-39,-180,1,-21,-51
4,-32,-32,14,17,-32,25,-45,-180,-17,-33,-51
-8,-44,-32,26,17,-38,31,-45,-186,-17,-45,-57
-14,-56,-38,32,17,-50,31,-51,-186,-23,-45,-57
4,-44,-44,20,17,-44,31,-57,-192,-23,-51,-63
9,-50,-56,20,23,-56,31,-57,-192,-23,-57,-75
4,-50,-50,20,17,-50,37,-63,-198,-41,-57,-75
4,-38,-38,14,17,-38,31,-63,-204,-41,-57,-75
9,-26,-32,8,17,-32,37,-57,-204,-41,-63,-75
-8,-15,-15,8,0,-21,42,-57,-204,-41,-63,-75
4,-26,-27,8,17,-26,37,-63,-204,-47,-69,-69
-14,-38,-27,26,6,-32,37,-75,-210,-59,-69,-81
-32,-50,-27,38,-6,-32,31,-81,-210,-65,-69,-81
-38,-62,-27,50,-6,-44,31,-75,-210,-65,-69,-81
-26,-62,-32,44,6,-50,25,-81,-216,-71,-75,-81
-56,-92,-32,74,-6,-62,25,-87,-222,-71,-81,-87
-68,-104,-32,86,-12,-68,13,-93,-234,-77,-93,-99
-56,-92,-32,74,-6,-62,13,-99,-240,-77,-99,-105
-50,-86,-32,68,-6,-62,13,-99,-234,-71,-93,-99
-68,-92,-27,80,-18,-56,13,-99,-234,-71,-87,-99
-50,-86,-32,68,-6,-62,13,-99,-228,-71,-81,-87
-38,-74,-32,56,0,-56,19,-99,-228,-71,-75,-87
-44,-80,-32,62,0,-56,19,-93,-222,-71,-75,-81
-50,-80,-27,62,-6,-56,19,-99,-222,-71,-75,-81
-44,-80,-32,62,0,-56,19,-99,-222,-65,-75,-81
-44,-80,-32,62,0,-56,19,-99,-222,-65,-75,-81
-38,-68,-27,50,0,-50,19,-93,-222,-65,-75,-81
-38,-50,-21,44,-12,-32,19,-93,-222,-65,-75,-81
-44,-38,-3,38,-24,-21,25,-87,-222,-65,-75,-81
-56,-38,9,44,-36,-21,25,-87,-222,-65,-75,-81
-44,-44,-9,44,-18,-21,25,-87,-222,-77,-81,-81
-38,-50,-21,44,-12,-32,25,-87,-222,-77,-81,-81
-44,-62,-27,50,-12,-38,25,-87,-228,-77,-81,-81
-38,-68,-27,50,0,-50,25,-75,-222,-71,-81,-75
-32,-62,-27,44,0,-44,25,-81,-216,-65,-81,-75
-38,-62,-27,50,-6,-44,25,-75,-216,-65,-81,-75
-20,-56,-32,38,12,-44,25,-81,-210,-59,-81,-75
-2,-44,-38,20,17,-44,25,-81,-210,-65,-81,-75
-14,-38,-27,26,6,-32,25,-75,-210,-65,-75,-75
-26,-38,-21,32,-6,-26,25,-81,-210,-65,-69,-75
-2,-26,-27,14,12,-26,25,-75,-210,-65,-63,-75
9,-26,-32,8,17,-32,25,-69,-204,-59,-63,-75
-20,-50,-27,32,6,-38,25,-63,-204,-59,-69,-75
-26,-56,-27,38,6,-44,25,-63,-204,-59,-75,-75
-26,-62,-32,44,6,-50,19,-69,-204,-59,-81,-75
-32,-62,-27,44,0,-44,19,-69,-204,-59,-81,-75
-32,-62,-27,44,0,-44,19,-69,-204,-65,-81,-75
-26,-62,-32,44,6,-50,19,-63,-204,-65,-81,-75
-20,-50,-27,32,6,-38,19,-63,-204,-71,-75,-69
-26,-74,-44,50,12,-62,19,-63,-204,-71,-75,-69
-20,-80,-56,50,17,-68,13,-63,-204,-71,-87,-69
-26,-80,-50,50,17,-68,7,-69,-204,-59,-87,-69
-44,-62,-27,50,-12,-38,7,-69,-198,-59,-81,-69
-32,-44,-21,38,-6,-26,13,-69,-198,-71,-93,-69
-32,-44,-21,38,-6,-26,7,-69,-198,-71,-93,-69
-38,-56,-27,44,-6,-38,7,-69,-198,-71,-93,-69
-38,-56,-27,44,-6,-38,1,-69,-204,-71,-93,-69
-14,-32,-27,20,6,-26,1,-57,-204,-65,-81,-69
-2,-32,-27,14,17,-32,7,-57,-198,-65,-81,-63
-20,-56,-32,38,12,-44,7,-57,-192,-65,-75,-63
-20,-56,-32,38,12,-44,7,-63,-192,-59,-75,-57
-14,-56,-38,32,17,-50,7,-63,-192,-59,-75,-57
-2,-62,-56,32,17,-62,7,-57,-192,-53,-69,-51
4,-62,-62,26,23,-62,7,-57,-192,-65,-81,-45
9,-32,-44,8,23,-38,13,-51,-192,-59,-75,-45
9,-32,-44,8,23,-38,13,-45,-192,-59,-75,-51
-8,-56,-44,32,17,-50,7,-51,-198,-59,-75,-57
4,-44,-44,20,17,-44,1,-51,-198,-59,-75,-57
-2,-50,-44,26,17,-50,-5,-57,-204,-65,-75,-63
-2,-62,-56,32,17,-62,-5,-57,-210,-65,-81,-63
-8,-68,-56,38,17,-62,-5,-63,-210,-71,-87,-63
-2,-74,-68,38,23,-74,-5,-63,-210,-71,-81,-63
-26,-92,-62,56,17,-80,-5,-57,-210,-71,-87,-69
-32,-104,-68,68,17,-86,-5,-51,-210,-71,-87,-69
-20,-92,-68,56,17,-80,1,-57,-204,-65,-87,-57
-20,-74,-50,44,17,-62,1,-57,-204,-65,-87,-57
-20,-62,-38,38,12,-50,1,-69,-198,-53,-87,-57
4,-56,-56,26,23,-56,-5,-69,-204,-53,-87,-57
4,-44,-44,20,17,-44,-11,-69,-210,-59,-87,-57
-2,-62,-56,32,17,-62,-11,-69,-210,-59,-87,-57
-14,-68,-50,38,17,-62,-11,-69,-216,-65,-87,-63
-20,-62,-38,38,12,-50,-17,-75,-216,-71,-87,-57
-14,-74,-56,44,17,-68,-17,-69,-216,-71,-93,-57
-8,-68,-56,38,17,-62,-17,-75,-216,-83,-93,-63
9,-56,-62,20,29,-62,-17,-69,-216,-83,-105,-69
4,-44,-44,20,17,-44,-17,-75,-222,-83,-111,-69
-2,-44,-38,20,17,-44,-17,-87,-222,-77,-105,-75
-2,-44,-38,20,17,-44,-17,-87,-222,-77,-111,-75
-8,-68,-56,38,17,-62,-17,-93,-222,-71,-105,-69
-14,-68,-50,38,17,-62,-17,-93,-228,-65,-99,-69
-14,-68,-50,38,17,-62,-17,-93,-228,-71,-105,-69
-14,-68,-50,38,17,-62,-23,-93,-234,-77,-105,-57
-32,-74,-38,50,6,-56,-17,-93,-234,-89,-111,-57
-32,-74,-38,50,6,-56,-17,-99,-234,-89,-117,-63
-14,-74,-56,44,17,-68,-11,-93,-228,-83,-111,-63
-20,-74,-50,44,17,-62,-5,-87,-228,-83,-105,-51
-14,-68,-50,38,17,-62,-5,-81,-222,-77,-93,-63
-8,-68,-56,38,17,-62,-17,-81,-228,-77,-87,-75
-14,-62,-44,38,17,-56,-17,-81,-234,-77,-93,-69
-20,-62,-38,38,12,-50,-17,-81,-234,-83,-99,-75
-8,-62,-50,32,17,-56,-17,-81,-234,-83,-99,-69
9,-62,-68,26,29,-68,-11,-81,-228,-77,-105,-57
-26,-68,-38,44,12,-56,-17,-87,-234,-83,-111,-63
-26,-74,-44,50,12,-62,-23,-87,-246,-83,-111,-69
-20,-74,-50,44,17,-62,-23,-99,-252,-95,-129,-75
-32,-74,-38,50,6,-56,-29,-99,-258,-95,-129,-81
-26,-68,-38,44,12,-56,-29,-99,-252,-83,-123,-75
-20,-62,-38,38,12,-50,-35,-99,-258,-83,-129,-81
-20,-50,-27,32,6,-38,-41,-93,-252,-89,-123,-75
-20,-56,-32,38,12,-44,-41,-93,-258,-89,-111,-75
-26,-44,-27,32,0,-32,-35,-93,-258,-89,-111,-75
-26,-44,-27,32,0,-32,-35,-93,-258,-89,-111,-75
-32,-56,-27,44,0,-38,-29,-93,-246,-83,-123,-75
-32,-56,-27,44,0,-38,-29,-93,-246,-89,-123,-75
-20,-68,-44,44,17,-56,-29,-93,-252,-95,-117,-75
-26,-74,-44,50,12,-62,-29,-93,-252,-89,-117,-75
-32,-80,-44,56,12,-62,-35,-99,-258,-95,-111,-87
-26,-86,-56,56,17,-74,-41,-99,-258,-95,-111,-75
-32,-74,-38,50,6,-56,-35,-87,-252,-89,-111,-69
-38,-62,-27,50,-6,-44,-29,-81,-246,-89,-111,-69
-8,-44,-32,26,17,-38,-23,-75,-240,-83,-105,-69
9,-32,-44,8,23,-38,-17,-69,-228,-77,-105,-69
4,-56,-56,26,23,-56,-23,-69,-234,-83,-105,-69
-8,-74,-62,38,17,-68,-29,-81,-246,-89,-111,-69
-20,-86,-62,50,17,-74,-35,-81,-252,-95,-111,-69
-50,-104,-50,74,6,-80,-35,-75,-246,-89,-105,-69
-50,-104,-50,74,6,-80,-41,-81,-252,-95,-111,-75
-44,-98,-50,68,6,-74,-35,-93,-252,-107,-123,-81
-44,-98,-50,68,6,-74,-41,-99,-258,-113,-129,-87
-56,-116,-56,86,6,-86,-47,-99,-258,-101,-135,-87
-44,-86,-38,62,0,-62,-35,-93,-252,-95,-123,-75
-20,-74,-50,44,17,-62,-29,-87,-246,-101,-117,-75
-8,-62,-50,32,17,-56,-23,-81,-240,-101,-105,-69
4,-50,-50,20,17,-50,-17,-81,-234,-101,-93,-63
9,-44,-62,8,35,-50,-23,-81,-228,-95,-93,-57
-2,-44,-38,20,17,-44,-23,-75,-228,-95,-93,-51
-2,-44,-38,20,17,-44,-23,-75,-228,-83,-99,-51
-2,-44,-38,20,17,-44,-17,-69,-228,-83,-99,-45
-8,-50,-38,26,17,-44,-23,-75,-228,-89,-105,-51
-32,-56,-27,44,0,-38,-23,-81,-240,-95,-111,-63
-26,-62,-32,44,6,-50,-35,-99,-240,-101,-117,-69
-26,-68,-38,44,12,-56,-35,-105,-240,-101,-117,-75
-32,-74,-38,50,6,-56,-41,-105,-240,-107,-123,-81
-38,-80,-38,56,6,-62,-41,-105,-246,-113,-123,-81
-32,-80,-44,56,12,-62,-53,-105,-252,-119,-135,-81
-38,-86,-44,62,6,-68,-53,-99,-246,-125,-135,-81
-86,-110,-27,98,-30,-68,-59,-111,-258,-119,-135,-81
-56,-86,-27,68,-12,-56,-47,-99,-246,-107,-123,-69
4,-62,-62,26,23,-62,-35,-87,-234,-89,-117,-51
-8,-56,-44,32,17,-50,-23,-87,-228,-89,-123,-51
-14,-62,-44,38,17,-56,-5,-87,-228,-95,-123,-51
-14,-62,-44,38,17,-56,7,-87,-228,-95,-123,-51
-20,-68,-44,44,17,-56,25,-87,-228,-101,-123,-51
-20,-68,-44,44,17,-56,37,-87,-228,-101,-123,-51
9,-50,-62,14,29,-56,42,-87,-234,-101,-123,-51
-8,-50,-38,26,17,-44,42,-93,-234,-101,-123,-51
-2,-56,-50,26,17,-56,54,-93,-228,-95,-123,-51
-2,-38,-32,20,17,-38,72,-81,-216,-89,-117,-45
-8,-44,-32,26,17,-38,78,-81,-222,-95,-123,-45
-14,-50,-32,32,12,-44,84,-81,-222,-95,-123,-45
-8,-50,-38,26,17,-44,90,-81,-228,-95,-129,-51
-14,-56,-38,32,17,-50,108,-75,-228,-89,-123,-51
-8,-62,-50,32,17,-56,102,-75,-222,-89,-123,-45
-8,-38,-27,20,12,-32,102,-69,-222,-89,-123,-45
9,-44,-50,14,23,-50,96,-69,-216,-89,-123,-39
9,-44,-50,14,23,-50,96,-69,-210,-95,-129,-39
9,-32,-44,8,23,-38,108,-57,-204,-89,-123,-33
15,-20,-44,2,29,-32,114,-57,-198,-83,-111,-33
9,-15,-27,2,17,-21,138,-39,-180,-59,-93,-21
15,-15,-32,2,23,-21,144,-33,-180,-53,-81,-15
27,-15,-38,-3,35,-21,150,-33,-180,-47,-81,-9
27,-15,-44,-3,35,-26,150,-33,-174,-47,-87,-15
21,-15,-44,2,29,-26,156,-39,-180,-59,-93,-21
21,-15,-44,2,29,-26,156,-39,-180,-59,-99,-27
27,-15,-44,-3,35,-26,156,-33,-180,-53,-93,-21
15,-15,-32,2,23,-21,150,-27,-180,-53,-93,-21
45,9,-32,-27,41,-15,144,-27,-186,-59,-93,-15
51,21,-27,-33,41,-9,126,-27,-186,-59,-93,-15
21,-15,-38,2,29,-21,120,-39,-192,-65,-93,-15
33,-32,-74,2,53,-50,120,-45,-192,-65,-93,-21
39,-44,-92,2,65,-68,126,-51,-192,-59,-87,-21
39,-32,-80,2,59,-56,132,-57,-192,-47,-81,-9
51,-3,-50,-21,53,-21,114,-51,-192,-53,-75,-3
75,27,-44,-51,59,-15,108,-51,-192,-53,-75,-3
81,27,-50,-51,65,-15,84,-51,-192,-59,-81,-3
63,9,-50,-33,59,-21,78,-57,-192,-65,-93,-15
51,-15,-68,-15,59,-38,72,-81,-216,-77,-105,-27
45,-20,-74,-3,59,-44,66,-87,-222,-83,-111,-33
27,-68,-104,14,65,-86,60,-99,-228,-89,-123,-39
9,-86,-104,32,53,-92,60,-111,-234,-95,-129,-51
15,-74,-98,20,53,-86,60,-123,-240,-101,-135,-51
21,-80,-110,20,65,-92,60,-123,-240,-101,-135,-51
15,-74,-98,20,53,-86,60,-123,-234,-101,-135,-51
39,-62,-110,2,71,-86,60,-123,-234,-107,-147,-51
45,-56,-110,2,77,-80,66,-123,-246,-113,-147,-57
39,-56,-104,2,71,-80,66,-123,-246,-113,-147,-57
45,-50,-104,2,71,-74,72,-117,-240,-107,-147,-57
45,-50,-104,2,71,-74,72,-117,-240,-107,-141,-51
21,-68,-98,14,59,-80,78,-123,-246,-107,-135,-51
15,-68,-92,20,53,-80,78,-123,-246,-113,-141,-51
21,-56,-86,8,53,-68,78,-129,-252,-113,-135,-51
9,-74,-80,32,35,-80,78,-129,-252,-113,-135,-51
-14,-80,-62,44,17,-74,84,-123,-246,-107,-135,-51
-2,-68,-62,32,23,-68,90,-123,-246,-107,-135,-57
9,-56,-74,14,41,-62,96,-117,-240,-101,-135,-57
4,-56,-56,26,23,-56,96,-111,-240,-95,-135,-57
-8,-56,-44,32,17,-50,90,-117,-246,-101,-141,-63
-8,-56,-44,32,17,-50,90,-123,-252,-107,-147,-63
-26,-62,-32,44,6,-50,90,-129,-258,-113,-159,-69
-38,-62,-27,50,-6,-44,90,-141,-270,-119,-165,-75
-32,-68,-32,50,6,-50,96,-135,-264,-125,-159,-75
-38,-86,-44,62,6,-68,102,-135,-258,-119,-153,-81
-50,-98,-44,74,0,-74,108,-123,-264,-119,-159,-81
-38,-98,-56,68,12,-80,108,-117,-258,-119,-159,-81
-44,-98,-50,68,6,-74,102,-123,-264,-125,-165,-87
-56,-98,-38,74,-6,-68,102,-123,-264,-119,-165,-87
-62,-104,-38,80,-6,-74,96,-129,-264,-125,-171,-87
-56,-98,-38,74,-6,-68,96,-129,-264,-125,-165,-87
-56,-92,-32,74,-6,-62,102,-123,-258,-119,-159,-81
-50,-80,-27,62,-6,-56,102,-123,-252,-119,-159,-75
-50,-74,-27,62,-12,-50,108,-117,-246,-113,-153,-69
-50,-74,-27,62,-12,-50,114,-117,-240,-113,-153,-63
-68,-80,-21,74,-24,-44,108,-123,-246,-125,-159,-69
-56,-86,-27,68,-12,-56,96,-129,-252,-125,-159,-69
-56,-92,-32,74,-6,-62,90,-135,-258,-125,-165,-75
-74,-110,-32,92,-18,-74,84,-141,-258,-125,-165,-75
-80,-110,-27,92,-24,-68,84,-135,-264,-125,-165,-75
-68,-104,-32,86,-12,-68,90,-135,-258,-119,-165,-75
-68,-98,-27,80,-18,-62,102,-129,-258,-119,-165,-75
-68,-92,-27,80,-18,-56,90,-129,-258,-119,-165,-75
-56,-92,-32,74,-6,-62,90,-129,-258,-113,-165,-75
-80,-98,-27,86,-30,-56,90,-129,-252,-113,-165,-75
-86,-116,-27,98,-24,-74,90,-129,-246,-107,-159,-75
-86,-98,-21,92,-36,-56,90,-123,-252,-107,-159,-75
-74,-92,-27,80,-24,-56,84,-123,-246,-113,-153,-69
-68,-86,-27,74,-24,-50,84,-117,-240,-113,-153,-69
-38,-80,-38,56,6,-62,84,-117,-246,-113,-147,-57
-32,-74,-38,50,6,-56,84,-117,-240,-113,-147,-57
-38,-86,-44,62,6,-68,84,-117,-252,-119,-147,-63
-110,-134,-27,122,-42,-80,96,-105,-252,-113,-159,-75
-116,-128,-21,122,-48,-68,96,-117,-258,-119,-165,-81
-56,-116,-56,86,6,-86,102,-117,-258,-137,-183,-93
-56,-194,-134,122,29,-164,126,-99,-258,-155,-213,-129
-56,-290,-236,176,83,-260,150,-69,-270,-173,-237,-159
9,-284,-290,140,143,-290,204,-3,-240,-173,-243,-171
33,-206,-248,80,137,-224,282,80,-180,-113,-207,-147
39,-128,-176,38,107,-152,330,170,-90,-35,-147,-99
129,-32,-170,-39,149,-98,342,284,18,42,-57,-21
231,33,-194,-129,215,-74,396,410,161,180,50,62
243,45,-194,-141,221,-68,456,566,311,306,170,164
267,111,-158,-189,215,-21,528,728,461,450,290,272
393,297,-92,-345,245,99,618,956,701,660,488,428
519,477,-38,-495,281,219,744,1256,1013,924,722,644
621,621,-9,-621,311,309,798,1496,1265,1152,944,842
789,795,-3,-789,395,399,804,1640,1451,1344,1136,1034
897,957,57,-927,419,507,792,1730,1613,1518,1334,1220
915,1077,159,-993,377,621,768,1766,1733,1644,1472,1364
975,1185,207,-1077,383,699,666,1694,1769,1728,1574,1478
981,1281,291,-1131,341,789,552,1550,1721,1728,1604,1520
837,1299,459,-1065,191,879,480,1328,1553,1608,1514,1466
699,1239,537,-969,77,891,354,1004,1253,1362,1304,1310
639,1161,513,-897,59,837,174,608,857,1038,1016,1106
501,1005,495,-753,12,753,-29,158,431,666,716,854
297,825,519,-561,-108,675,-263,-321,-42,276,380,578
177,663,477,-417,-150,573,-437,-753,-462,-65,80,320
63,483,417,-273,-174,453,-503,-969,-690,-269,-111,140
-86,327,417,-117,-246,369,-545,-1029,-774,-359,-213,39
-170,201,369,-9,-264,279,-557,-1029,-804,-419,-279,-45
-176,99,273,32,-222,189,-563,-1017,-840,-473,-345,-135
-176,45,219,56,-198,135,-551,-993,-870,-527,-405,-189
-158,39,201,50,-180,117,-497,-909,-828,-515,-399,-195
-104,39,147,26,-126,93,-395,-777,-726,-455,-357,-177
-104,39,147,26,-126,93,-305,-657,-642,-389,-309,-141
-122,33,159,38,-138,93,-263,-573,-570,-329,-273,-117
-86,21,111,26,-96,63,-215,-489,-498,-275,-237,-93
-68,-15,57,32,-60,21,-161,-399,-432,-239,-207,-81
-68,-15,51,38,-60,15,-101,-327,-402,-209,-201,-69
-32,3,39,8,-36,21,-59,-285,-378,-203,-201,-69
-32,-15,21,14,-24,3,-23,-237,-348,-185,-189,-63
-68,-38,21,50,-48,-15,25,-189,-306,-161,-159,-51
-50,-50,-9,50,-24,-26,42,-165,-282,-125,-141,-33
-26,-26,-9,26,-12,-21,48,-147,-270,-131,-141,-45
-32,-38,-15,32,-12,-21,48,-153,-258,-131,-141,-45
-32,-38,-15,32,-12,-21,42,-153,-258,-131,-141,-51
-38,-44,-15,38,-12,-26,37,-159,-258,-131,-153,-57
-62,-50,3,56,-36,-21,31,-159,-270,-143,-159,-75
-56,-56,-9,56,-24,-26,37,-159,-276,-137,-165,-75
-50,-86,-32,68,-6,-62,42,-159,-276,-137,-165,-75
-44,-116,-68,80,17,-92,54,-135,-270,-131,-159,-69
-38,-104,-62,68,17,-86,78,-117,-258,-125,-159,-63
-20,-86,-62,50,17,-74,78,-111,-246,-113,-147,-45
-32,-80,-44,56,12,-62,78,-111,-246,-107,-141,-45
-38,-68,-27,50,0,-50,72,-111,-240,-101,-123,-39
-14,-50,-32,32,12,-44,72,-111,-240,-101,-123,-33
-20,-56,-32,38,12,-44,66,-117,-240,-107,-135,-39
-44,-86,-38,62,0,-62,54,-117,-240,-107,-135,-45
-32,-68,-32,50,6,-50,54,-117,-240,-119,-153,-57
-26,-50,-27,38,0,-38,60,-117,-228,-119,-153,-57
-32,-74,-38,50,6,-56,72,-105,-234,-113,-147,-51
-20,-74,-50,44,17,-62,78,-99,-222,-101,-135,-51
-8,-68,-56,38,17,-62,78,-93,-228,-101,-129,-33
-8,-68,-56,38,17,-62,78,-93,-228,-95,-123,-33
-14,-68,-50,38,17,-62,66,-99,-222,-95,-111,-33
-14,-68,-50,38,17,-62,54,-99,-228,-101,-111,-33
-8,-56,-44,32,17,-50,48,-105,-222,-101,-129,-39
-20,-68,-44,44,17,-56,48,-105,-222,-101,-129,-39
-20,-86,-62,50,17,-74,48,-99,-228,-101,-129,-39
-2,-80,-74,38,29,-80,60,-99,-228,-101,-129,-39
-14,-74,-56,44,17,-68,60,-93,-216,-101,-123,-33
-14,-68,-50,38,17,-62,60,-87,-216,-95,-117,-33
-14,-56,-38,32,17,-50,60,-87,-222,-95,-117,-27
-20,-56,-32,38,12,-44,60,-87,-228,-95,-123,-27
-32,-38,-15,32,-12,-21,60,-87,-234,-95,-117,-33
-38,-32,-3,32,-18,-21,48,-87,-234,-95,-123,-33
-26,-38,-21,32,-6,-26,54,-87,-234,-95,-123,-33
-38,-62,-27,50,-6,-44,66,-87,-240,-95,-129,-33
-26,-68,-38,44,12,-56,72,-81,-240,-89,-123,-39
4,-62,-62,26,23,-62,72,-81,-240,-89,-123,-39
-14,-68,-50,38,17,-62,78,-81,-234,-89,-117,-33
-2,-68,-62,32,23,-68,84,-81,-234,-89,-117,-33
4,-62,-62,26,23,-62,90,-69,-216,-77,-111,-21
4,-62,-62,26,23,-62,96,-69,-216,-77,-111,-21
-2,-62,-56,32,17,-62,90,-75,-228,-83,-111,-27
9,-50,-62,14,29,-56,84,-75,-228,-83,-105,-27
9,-32,-50,2,29,-38,84,-75,-228,-77,-111,-21
9,-20,-32,2,17,-26,84,-75,-228,-77,-111,-21
9,-32,-44,8,23,-38,90,-69,-222,-77,-111,-15
15,-38,-62,2,35,-50,96,-69,-216,-77,-111,-21
15,-44,-68,8,41,-56,108,-63,-210,-77,-93,-15
15,-50,-74,8,41,-62,108,-51,-198,-71,-87,-9
15,-44,-68,8,41,-56,108,-45,-204,-65,-87,-9
9,-44,-62,8,35,-50,102,-45,-192,-59,-87,-9
9,-38,-50,8,23,-44,96,-51,-198,-59,-99,-3
9,-20,-27,2,17,-26,96,-51,-198,-53,-99,-3
9,-15,-32,2,17,-21,102,-45,-192,-47,-93,3
21,-15,-38,2,29,-21,102,-45,-192,-41,-87,3
51,-15,-62,-15,59,-32,108,-33,-192,-41,-81,9
63,-15,-80,-21,71,-44,108,-33,-186,-35,-81,15
39,-20,-68,-3,53,-44,108,-15,-186,-35,-75,15
45,-38,-92,2,65,-62,114,-9,-174,-29,-69,15
33,-50,-92,2,59,-68,108,-3,-168,-23,-69,21
21,-62,-92,14,53,-74,108,-3,-168,-23,-69,21
15,-32,-56,2,35,-44,108,-3,-174,-29,-75,15
33,-32,-74,2,53,-50,108,-9,-174,-29,-75,15
27,-38,-74,2,47,-56,96,-15,-180,-23,-81,15
27,-38,-74,2,47,-56,96,-21,-180,-23,-81,15
51,-26,-86,-3,65,-56,96,-15,-174,-23,-81,21
63,-15,-74,-21,71,-38,102,-15,-174,-23,-81,21
75,-3,-74,-33,77,-32,114,9,-162,-17,-75,27
87,-9,-92,-39,89,-44,114,15,-150,-5,-63,39
99,9,-86,-51,95,-32,108,15,-144,-5,-57,33
87,9,-74,-45,83,-26,108,15,-144,-5,-57,45
51,9,-38,-27,47,-21,108,21,-132,1,-57,39
57,9,-44,-33,53,-21,102,21,-132,7,-51,45
57,3,-50,-27,53,-21,96,15,-138,1,-57,39
57,-15,-74,-15,65,-38,96,15,-138,1,-57,39
63,-26,-98,-9,77,-62,90,15,-144,7,-63,33
69,-32,-110,-9,89,-68,90,15,-150,7,-51,39
75,-26,-110,-15,89,-68,90,27,-138,7,-45,45
93,-9,-98,-39,95,-44,96,33,-126,13,-33,50
129,27,-98,-75,113,-26,102,45,-102,19,-27,56
117,15,-98,-63,107,-32,102,62,-90,31,-21,68
123,3,-116,-63,119,-50,108,62,-90,36,-21,68
147,33,-110,-87,131,-32,108,62,-90,36,-21,74
141,45,-92,-93,119,-21,96,62,-96,36,-15,74
129,51,-74,-87,101,-15,96,62,-96,36,-15,74
159,57,-98,-105,131,-21,96,68,-90,36,-9,80
165,63,-98,-111,131,-21,96,74,-78,42,9,92
177,69,-104,-123,143,-21,96,74,-66,48,9,104
189,69,-116,-129,155,-21,102,80,-66,54,15,104
207,81,-122,-141,167,-21,102,92,-54,66,21,116
207,87,-116,-147,161,-21,102,98,-48,72,26,116
207,87,-116,-147,161,-21,102,110,-36,84,26,122
225,117,-104,-171,167,3,102,110,-36,96,32,134
243,123,-116,-183,179,-3,102,110,-30,102,32,134
219,99,-116,-159,167,-15,90,110,-30,96,32,140
219,111,-104,-165,161,-3,78,104,-30,90,32,140
243,123,-116,-183,179,-3,78,110,-30,96,38,146
213,93,-116,-153,167,-15,78,116,-18,96,50,152
225,105,-116,-165,173,-9,72,116,-18,96,50,164
237,129,-104,-183,173,9,72,128,-12,96,62,170
237,123,-110,-177,173,3,72,128,0,96,74,170
243,117,-122,-177,185,-9,78,128,0,96,74,176
255,141,-116,-201,191,9,78,128,0,108,74,188
261,153,-110,-207,191,15,72,134,6,114,74,194
255,159,-98,-207,179,27,66,134,6,120,74,194
249,159,-92,-207,173,27,60,128,6,114,74,200
273,177,-98,-225,191,33,60,134,6,114,86,206
267,165,-104,-219,191,27,54,134,6,114,98,218
267,153,-116,-213,197,15,54,134,6,114,98,218
273,165,-110,-219,197,21,54,134,6,114,98,212
267,183,-86,-225,179,45,54,134,6,114,98,212
255,207,-50,-231,155,75,72,134,6,114,98,218
273,225,-50,-243,167,81,78,134,18,126,98,224
267,213,-56,-237,167,75,78,128,12,120,92,218
243,213,-27,-225,137,87,72,122,0,114,92,212
237,201,-32,-219,137,81,72,104,-12,108,74,200
225,189,-32,-207,131,75,66,104,-12,96,68,200
207,171,-32,-189,119,63,78,110,-6,102,74,194
201,177,-27,-189,113,75,78,98,-6,96,74,194
213,183,-27,-195,119,75,90,98,-12,96,74,194
207,189,-27,-195,113,81,96,92,-12,90,74,182
201,171,-27,-183,113,69,96,98,-12,96,68,182
195,171,-27,-183,107,69,96,98,-24,90,68,170
177,159,-27,-165,95,69,102,98,-30,84,50,164
153,147,-15,-147,77,69,102,80,-36,72,32,158
147,135,-21,-141,77,57,108,74,-48,66,26,146
141,135,-15,-135,71,63,108,68,-48,54,26,140
105,93,-21,-99,59,39,108,62,-66,54,26,128
99,93,-15,-93,53,39,108,57,-84,42,3,104
93,93,-9,-93,47,45,108,45,-96,36,-9,98
75,81,-3,-75,35,39,108,39,-96,36,-15,92
63,69,-3,-63,29,33,108,33,-90,25,-21,86
57,63,-3,-57,23,33,108,27,-102,25,-27,80
63,51,-21,-57,35,15,114,27,-96,25,-27,74
51,39,-21,-45,29,9,120,27,-102,13,-33,68
63,33,-27,-45,47,-3,126,15,-90,7,-33,62
63,51,-21,-57,35,15,120,15,-84,-5,-45,68
39,33,-15,-33,23,9,114,9,-90,-11,-63,62
27,21,-15,-21,17,3,114,-3,-90,-17,-63,56
33,27,-15,-27,17,9,102,-15,-96,-23,-75,50
33,21,-21,-27,23,3,102,-21,-102,-23,-81,45
15,3,-21,-9,17,-9,96,-33,-108,-47,-87,39
15,3,-21,-9,17,-9,90,-33,-114,-47,-93,39
9,-3,-21,-3,17,-9,84,-33,-114,-53,-105,33
4,-3,-3,2,6,-3,90,-33,-114,-53,-111,33
15,-9,-27,-3,17,-21,90,-33,-114,-47,-105,39
9,-9,-21,2,17,-15,90,-45,-120,-59,-99,27
9,-15,-21,2,17,-21,90,-45,-120,-53,-87,27
9,-15,-21,2,17,-21,90,-39,-120,-53,-81,27
15,3,-21,-9,17,-9,96,-33,-126,-53,-87,33
4,-15,-15,2,12,-15,96,-33,-126,-53,-87,33
-2,-9,-3,2,0,-9,96,-27,-138,-53,-99,27
9,15,3,-9,6,9,96,-27,-138,-53,-99,27
9,9,-9,-9,17,3,90,-33,-132,-53,-105,27
4,-3,-3,2,6,-3,90,-39,-132,-53,-105,27
9,-9,-27,2,17,-15,84,-45,-126,-59,-111,33
21,-3,-27,-9,23,-15,90,-51,-126,-59,-111,33
15,3,-21,-9,17,-9,96,-45,-120,-59,-105,33
15,9,-15,-9,17,-3,96,-51,-120,-59,-99,33
21,21,-9,-21,17,9,102,-51,-120,-53,-93,27
27,27,-9,-27,17,9,102,-51,-120,-53,-87,27
21,15,-15,-15,17,3,96,-45,-120,-53,-93,27
21,15,-15,-15,17,3,96,-45,-120,-53,-93,27
9,3,-9,-3,12,-3,96,-39,-120,-53,-99,27
4,-15,-15,2,12,-15,96,-39,-120,-53,-99,27
9,-3,-15,2,17,-9,90,-39,-114,-53,-93,27
9,3,-15,-3,17,-3,90,-39,-114,-53,-93,27
9,9,-3,-3,12,3,84,-39,-114,-41,-81,27
9,15,-3,-9,12,9,84,-27,-108,-35,-81,33
9,15,-3,-9,12,9,90,-33,-108,-41,-81,39
9,9,3,-3,6,3,90,-27,-108,-41,-81,39
9,9,-9,-9,17,3,96,-33,-108,-47,-81,45
21,15,-15,-15,17,3,96,-33,-108,-53,-81,45
9,15,-3,-9,12,9,96,-33,-108,-53,-87,39
9,15,9,-3,0,9,96,-39,-108,-53,-81,33
21,21,-9,-21,17,9,96,-39,-108,-53,-87,27
33,21,-21,-27,23,3,96,-33,-102,-47,-87,21
9,3,-15,-3,17,-3,96,-33,-108,-53,-87,27
9,3,-15,-3,17,-3,90,-33,-108,-53,-93,27
15,3,-21,-9,17,-9,84,-45,-114,-59,-93,33
15,9,-15,-9,17,-3,78,-45,-114,-59,-93,33
15,9,-15,-9,17,-3,78,-39,-114,-53,-93,33
21,9,-21,-15,17,-3,78,-33,-114,-53,-93,33
27,21,-15,-21,17,3,78,-27,-114,-47,-87,39
21,-3,-27,-9,23,-15,78,-27,-114,-47,-87,39
21,-15,-38,2,29,-21,72,-33,-120,-53,-93,33
9,-15,-32,2,17,-21,66,-39,-120,-41,-93,33
-2,-15,-15,2,6,-21,66,-45,-120,-47,-81,27
4,-9,-9,2,6,-9,72,-45,-120,-59,-93,27
9,3,-3,2,6,-3,72,-51,-120,-59,-93,27
9,-3,-9,2,12,-9,72,-51,-120,-59,-93,27
9,9,-3,-3,12,3,72,-57,-126,-59,-93,27
33,39,-3,-33,17,21,72,-45,-126,-53,-81,27
51,33,-27,-39,35,3,84,-39,-120,-47,-81,33
39,9,-27,-21,35,-15,84,-33,-108,-47,-75,33
45,3,-38,-21,41,-21,90,-33,-102,-35,-75,39
57,3,-50,-27,53,-21,90,-27,-102,-35,-75,39
51,-3,-50,-21,53,-21,78,-33,-108,-41,-69,39
51,-3,-50,-21,53,-21,78,-33,-108,-53,-81,45
45,27,-27,-33,29,3,72,-39,-114,-59,-75,39
39,27,-21,-33,23,3,72,-33,-114,-59,-75,33
15,3,-21,-9,17,-9,66,-39,-120,-53,-81,27
21,15,-15,-15,17,3,60,-39,-120,-53,-81,27
15,9,-15,-9,17,-3,54,-45,-126,-53,-87,21
9,-3,-21,-3,17,-9,54,-45,-132,-53,-93,21
21,3,-27,-9,17,-9,60,-51,-126,-59,-93,27
39,9,-27,-21,35,-15,60,-45,-126,-59,-87,27
33,3,-27,-15,29,-15,66,-39,-120,-59,-87,27
39,3,-32,-21,35,-21,66,-27,-120,-59,-87,27
39,-3,-38,-15,41,-21,66,-33,-120,-59,-87,27
27,9,-27,-15,23,-9,66,-33,-120,-59,-87,27
15,3,-21,-9,17,-9,60,-45,-120,-53,-87,15
27,3,-27,-15,23,-15,54,-45,-126,-53,-87,15
39,15,-27,-27,29,-9,48,-51,-132,-59,-87,21
39,3,-32,-21,35,-21,48,-51,-132,-59,-87,21
39,-3,-38,-15,41,-21,48,-57,-138,-65,-87,21
39,9,-27,-21,35,-15,42,-63,-138,-71,-87,27
33,-9,-38,-9,35,-21,48,-57,-138,-65,-87,27
33,-9,-38,-9,35,-21,48,-63,-138,-77,-87,21
39,-3,-38,-15,41,-21,54,-57,-138,-71,-93,15
27,3,-27,-15,23,-15,54,-63,-144,-71,-99,15
15,-3,-27,-3,17,-15,48,-69,-150,-77,-99,3
9,-9,-27,2,17,-15,48,-69,-150,-77,-105,3
9,-26,-32,8,17,-32,42,-69,-156,-83,-105,3
-2,-32,-27,14,17,-32,42,-69,-162,-77,-99,3
9,-15,-27,2,17,-21,42,-69,-156,-77,-99,3
9,-15,-27,2,17,-21,42,-69,-162,-83,-99,15
9,-9,-15,2,12,-15,42,-69,-156,-89,-99,15
9,-3,-15,2,17,-9,42,-75,-156,-89,-105,9
21,-9,-27,-3,23,-21,48,-75,-156,-83,-99,15
15,-9,-27,-3,17,-21,54,-69,-156,-83,-99,27
21,-9,-27,-3,23,-21,54,-69,-156,-77,-87,21
27,-9,-32,-9,29,-21,42,-69,-162,-77,-87,9
21,3,-27,-9,17,-9,48,-69,-156,-77,-87,15
21,3,-27,-9,17,-9,48,-69,-156,-83,-87,9
33,9,-27,-21,29,-9,54,-69,-144,-83,-81,15
57,9,-44,-33,53,-21,60,-69,-138,-77,-81,27
21,-9,-27,-3,23,-21,54,-75,-144,-83,-87,21
15,-15,-32,2,23,-21,48,-75,-150,-83,-93,15
21,-20,-50,2,35,-32,48,-87,-156,-95,-111,9
9,-26,-38,2,17,-32,42,-87,-156,-95,-117,3
9,-15,-27,2,17,-21,42,-87,-156,-83,-111,9
9,-15,-27,2,17,-21,42,-87,-162,-83,-123,3
9,3,-3,2,6,-3,42,-81,-162,-89,-117,9
4,3,3,2,0,3,42,-81,-168,-89,-111,9
9,21,15,-9,0,15,42,-81,-168,-89,-105,9
9,21,9,-9,6,15,42,-81,-162,-89,-105,9
9,15,-3,-9,12,9,42,-81,-150,-83,-111,9
15,15,-9,-15,17,3,42,-81,-144,-89,-111,9
27,9,-27,-15,23,-9,42,-87,-150,-95,-111,9
21,3,-27,-9,17,-9,42,-87,-150,-89,-111,9
15,3,-21,-9,17,-9,42,-99,-156,-95,-111,-3
21,-3,-27,-9,23,-15,42,-99,-156,-95,-111,9
9,-3,-21,-3,17,-9,42,-87,-150,-89,-105,15
4,-3,-3,2,6,-3,42,-81,-150,-89,-105,15
15,3,-21,-9,17,-9,48,-75,-144,-83,-93,15
27,3,-27,-15,23,-15,54,-69,-138,-77,-93,15
21,-15,-32,-3,29,-21,48,-75,-138,-83,-99,9
15,-15,-32,2,23,-21,42,-87,-150,-89,-105,9
9,-15,-32,2,17,-21,42,-93,-150,-95,-111,3
-2,-20,-27,8,12,-21,37,-87,-144,-89,-105,3
-2,-26,-27,14,12,-26,37,-93,-138,-95,-99,3
4,-20,-27,8,17,-21,42,-99,-138,-107,-105,-3
4,-26,-27,8,17,-26,42,-105,-132,-113,-99,-3
-8,-44,-32,26,17,-38,37,-99,-132,-101,-99,-3
-8,-26,-27,14,6,-21,42,-93,-132,-95,-99,3
4,-20,-27,8,17,-21,42,-93,-132,-101,-99,3
4,-20,-27,8,17,-21,42,-87,-132,-101,-99,3
4,-15,-27,2,12,-21,42,-93,-132,-101,-93,9
21,-15,-32,-3,29,-21,42,-87,-126,-95,-87,9
9,-9,-21,2,17,-15,42,-81,-126,-95,-87,15
15,-3,-27,-3,17,-15,42,-75,-126,-83,-87,9
21,3,-27,-9,17,-9,42,-69,-126,-83,-87,15
15,3,-21,-9,17,-9,42,-75,-126,-89,-93,15
4,3,3,2,0,3,42,-81,-138,-95,-93,9
9,3,-3,2,6,-3,42,-99,-138,-101,-99,9
9,3,-3,2,6,-3,42,-105,-138,-101,-93,9
4,-9,-9,2,6,-9,42,-105,-138,-107,-99,3
4,-15,-21,2,12,-21,42,-105,-138,-107,-99,3
9,-15,-27,2,17,-21,31,-105,-144,-113,-111,3
9,-26,-32,8,17,-32,31,-99,-132,-113,-111,3
9,-15,-32,2,17,-21,48,-75,-120,-95,-87,3
4,-15,-21,2,12,-21,48,-75,-114,-89,-87,9
9,-15,-27,2,17,-21,48,-81,-120,-89,-87,9
9,-15,-27,2,17,-21,48,-81,-120,-89,-87,9
9,-15,-27,2,17,-21,48,-87,-126,-89,-87,9
9,-15,-27,2,17,-21,48,-87,-126,-89,-87,9
39,3,-32,-21,35,-21,42,-87,-132,-95,-87,9
15,9,-15,-9,17,-3,42,-93,-132,-95,-87,9
21,9,-21,-15,17,-3,42,-93,-126,-95,-87,9
21,33,3,-27,17,21,48,-81,-114,-89,-81,15
21,27,-3,-21,17,15,48,-75,-114,-83,-81,21
21,21,-9,-21,17,9,48,-75,-114,-83,-81,21
33,21,-21,-27,23,3,48,-69,-114,-71,-81,21
33,15,-27,-21,23,-3,60,-63,-114,-65,-75,21
27,3,-27,-15,23,-15,60,-63,-108,-71,-75,21
21,27,-3,-21,17,15,60,-57,-108,-71,-75,21
27,15,-21,-21,17,-3,60,-57,-102,-77,-75,21
21,15,-15,-15,17,3,60,-57,-96,-83,-81,21
21,21,-9,-21,17,9,54,-57,-102,-89,-87,15
33,27,-15,-27,17,9,48,-63,-102,-89,-81,15
15,27,3,-21,12,15,54,-57,-90,-77,-75,15
27,27,-9,-27,17,9,48,-57,-96,-77,-69,21
51,45,-15,-45,29,15,54,-45,-84,-59,-57,33
57,45,-21,-51,35,15,60,-39,-78,-53,-57,33
63,51,-21,-57,35,15,66,-33,-72,-53,-51,33
69,57,-21,-63,41,21,72,-27,-72,-47,-51,33
75,45,-27,-57,53,3,78,-15,-66,-41,-45,39
57,39,-27,-45,35,9,78,-9,-66,-41,-45,39
87,51,-32,-69,59,3,78,-3,-66,-47,-45,45
87,57,-27,-69,59,9,66,-3,-66,-47,-45,45
57,27,-27,-39,41,-3,48,-21,-78,-59,-57,45
69,9,-56,-39,65,-21,42,-33,-84,-65,-57,39
75,9,-62,-39,71,-21,42,-45,-84,-65,-63,39
75,27,-44,-51,59,-15,42,-57,-84,-59,-57,50
75,63,-21,-69,41,21,37,-57,-84,-59,-51,50
99,87,-21,-93,53,33,31,-57,-84,-59,-51,50
93,81,-21,-87,53,33,13,-63,-84,-59,-57,45
75,57,-27,-63,47,15,7,-69,-90,-65,-69,33
87,51,-32,-69,59,3,7,-87,-102,-77,-69,33
93,57,-32,-75,65,9,1,-87,-108,-83,-75,33
99,33,-62,-63,83,-21,1,-93,-102,-89,-75,39
93,33,-56,-63,77,-15,1,-99,-108,-95,-81,33
87,27,-56,-57,71,-21,-5,-111,-126,-101,-87,21
81,9,-68,-45,77,-21,-5,-111,-126,-101,-87,21
63,-3,-62,-27,65,-26,-11,-111,-132,-101,-87,9
75,-3,-74,-33,77,-32,-11,-111,-132,-107,-99,9
63,-15,-74,-21,71,-38,-11,-123,-144,-113,-105,-3
51,-15,-74,-9,59,-44,-11,-123,-144,-113,-105,-3
39,-26,-74,2,53,-50,-11,-129,-138,-107,-111,-9
33,-38,-80,2,53,-56,-11,-129,-138,-107,-105,-3
27,-32,-68,2,47,-50,-5,-129,-138,-107,-99,-3
33,-20,-62,2,47,-38,-5,-129,-138,-113,-105,-3
57,3,-50,-27,53,-21,-5,-129,-138,-113,-99,-3
45,-3,-44,-21,47,-21,-5,-129,-138,-113,-99,-3
21,-15,-32,-3,29,-21,1,-123,-132,-113,-99,-3
33,-3,-32,-15,35,-21,7,-123,-132,-113,-99,-9
57,3,-50,-27,53,-21,13,-117,-126,-113,-99,-9
39,3,-32,-21,35,-21,13,-111,-126,-107,-99,-9
15,-15,-27,2,23,-21,13,-111,-126,-107,-105,-3
9,-15,-27,2,17,-21,13,-111,-126,-107,-105,-3
-8,-32,-27,20,12,-26,19,-111,-126,-107,-117,3
-26,-38,-21,32,-6,-26,19,-117,-132,-107,-117,-3
-20,-32,-21,26,0,-21,19,-123,-138,-119,-117,-15
-26,-50,-27,38,0,-38,19,-129,-138,-119,-117,-21
-38,-50,-21,44,-12,-32,19,-129,-156,-125,-129,-33
-26,-50,-27,38,0,-38,13,-129,-156,-131,-135,-33
-20,-38,-27,26,0,-26,13,-129,-150,-131,-129,-27
-32,-38,-15,32,-12,-21,13,-129,-150,-125,-129,-27
-26,-32,-15,26,-6,-21,13,-129,-138,-125,-123,-15
-20,-26,-15,20,-6,-21,13,-129,-138,-125,-117,-15
-14,-26,-21,20,0,-21,19,-129,-132,-119,-111,-15
-8,-20,-21,14,6,-21,19,-129,-132,-119,-111,-15
-2,-20,-27,8,12,-21,25,-129,-126,-113,-105,-15
-2,-26,-27,14,12,-26,31,-129,-126,-113,-105,-15
-26,-32,-15,26,-6,-21,25,-129,-126,-125,-111,-21
-20,-32,-21,26,0,-21,19,-129,-132,-125,-111,-27
-26,-38,-21,32,-6,-26,13,-129,-132,-125,-117,-33
-50,-50,-9,50,-24,-26,13,-129,-132,-125,-117,-39
-50,-56,-15,50,-18,-32,13,-135,-138,-125,-117,-33
-38,-50,-21,44,-12,-32,19,-135,-132,-119,-117,-33
-32,-50,-27,38,-6,-32,31,-141,-132,-119,-117,-27
-32,-44,-21,38,-6,-26,19,-141,-132,-119,-117,-27
-20,-56,-32,38,12,-44,25,-135,-132,-119,-111,-27
-50,-68,-27,56,-12,-44,25,-129,-132,-119,-111,-27
-56,-98,-38,74,-6,-68,31,-123,-126,-119,-99,-27
-62,-86,-27,74,-18,-56,31,-111,-138,-119,-99,-27
-56,-80,-27,68,-12,-50,25,-117,-126,-119,-99,-27
-56,-74,-27,62,-18,-44,25,-111,-120,-119,-99,-27
-32,-68,-32,50,6,-50,25,-117,-120,-113,-99,-21
-32,-62,-27,44,0,-44,25,-117,-114,-113,-99,-21
-38,-26,3,32,-24,-21,25,-129,-126,-131,-123,-27
-38,-62,-27,50,-6,-44,25,-117,-126,-125,-111,-39
-20,-68,-44,44,17,-56,25,-129,-132,-131,-117,-33
-20,-68,-44,44,17,-56,31,-129,-132,-149,-135,-45
-32,-110,-74,68,17,-92,42,-99,-144,-155,-141,-69
-8,-152,-140,80,59,-146,54,-81,-144,-173,-159,-99
-14,-158,-140,86,53,-152,96,-51,-138,-185,-189,-123
-38,-146,-104,92,23,-128,162,21,-96,-161,-183,-123
15,-116,-140,44,77,-128,228,98,-6,-83,-135,-87
153,-56,-218,-39,185,-134,264,212,89,19,-45,3
207,-15,-230,-87,215,-122,288,338,221,108,38,74
231,33,-194,-129,215,-74,336,476,359,228,134,152
315,135,-182,-225,251,-21,420,644,521,366,266,260
429,285,-140,-357,281,69,516,872,737,564,464,416
543,477,-62,-507,305,207,624,1148,1013,816,686,620
741,693,-44,-717,395,321,708,1424,1289,1056,920,818
897,843,-50,-867,479,393,738,1580,1511,1260,1124,1016
933,957,21,-945,455,489,714,1658,1649,1404,1274,1172
975,1077,99,-1023,437,591,684,1706,1751,1524,1400,1304
1077,1197,111,-1137,485,657,630,1694,1829,1632,1514,1430
1053,1257,201,-1155,425,729,522,1562,1811,1644,1556,1478
921,1263,339,-1089,287,801,420,1364,1685,1572,1502,1454
801,1239,435,-1017,185,837,318,1106,1439,1374,1340,1334
687,1149,459,-915,113,801,174,752,1091,1086,1112,1154
537,1017,471,-777,29,747,-29,332,677,750,818,926
405,873,459,-639,-24,669,-251,-135,233,378,512,674
249,717,465,-483,-108,597,-443,-603,-204,36,212,428
99,531,429,-315,-162,477,-539,-903,-504,-209,-15,224
9,387,369,-201,-174,381,-581,-1005,-600,-323,-141,98
-62,255,321,-93,-192,285,-605,-1017,-642,-383,-213,27
-164,111,273,20,-222,195,-611,-1017,-678,-449,-285,-75
-164,45,213,50,-186,129,-611,-993,-714,-515,-357,-141
-62,75,141,2,-102,105,-581,-921,-678,-503,-351,-153
-68,63,135,2,-102,99,-473,-789,-600,-455,-309,-129
-128,27,159,44,-144,93,-389,-669,-510,-401,-273,-117
-98,81,183,2,-138,129,-323,-561,-438,-341,-225,-81
-50,129,183,-33,-114,153,-251,-465,-348,-275,-171,-45
-68,69,141,2,-102,105,-185,-387,-276,-227,-147,-21
-44,39,87,2,-66,63,-149,-327,-234,-203,-141,-21
9,39,27,-21,-6,33,-107,-285,-210,-191,-129,-21
-20,-15,9,8,-12,-3,-59,-237,-186,-173,-129,-27
-44,-15,21,26,-36,-3,-47,-201,-180,-173,-135,-51
-14,-15,3,8,-6,-9,-29,-165,-156,-161,-129,-45
-50,-38,3,44,-30,-21,1,-123,-132,-131,-105,-21
-50,-44,-3,44,-24,-21,7,-123,-120,-131,-93,-15
-44,-44,-9,44,-18,-21,7,-123,-120,-131,-93,-15
-44,-44,-9,44,-18,-21,-5,-123,-120,-131,-93,-15
-62,-50,3,56,-36,-21,-5,-123,-132,-143,-99,-27
-50,-44,-3,44,-24,-21,-5,-135,-132,-143,-111,-33
-32,-62,-27,44,0,-44,7,-135,-132,-143,-111,-39
-20,-80,-56,50,17,-68,13,-123,-120,-143,-111,-39
-2,-56,-50,26,17,-56,31,-105,-108,-137,-111,-39
4,-56,-56,26,23,-56,31,-93,-96,-131,-105,-27
-14,-62,-44,38,17,-56,31,-93,-96,-125,-99,-27
-32,-68,-32,50,6,-50,25,-87,-90,-125,-87,-27
-14,-62,-44,38,17,-56,25,-87,-90,-125,-87,-21
-20,-62,-38,38,12,-50,13,-99,-96,-131,-99,-27
-44,-92,-44,68,6,-68,1,-99,-96,-131,-99,-33
-32,-68,-32,50,6,-50,-5,-105,-102,-143,-117,-45
-26,-50,-27,38,0,-38,1,-105,-90,-143,-117,-45
-26,-68,-38,44,12,-56,13,-93,-96,-143,-111,-45
-14,-68,-50,38,17,-62,19,-87,-84,-131,-105,-45
4,-56,-56,26,23,-56,19,-81,-90,-137,-99,-33
4,-56,-56,26,23,-56,19,-81,-90,-131,-99,-33
-2,-44,-38,20,17,-44,19,-75,-84,-131,-81,-27
-2,-38,-32,20,17,-38,7,-75,-84,-137,-81,-27
4,-15,-27,2,12,-21,13,-69,-78,-137,-93,-27
-8,-20,-21,14,6,-21,13,-69,-72,-137,-93,-27
-2,-50,-44,26,17,-50,7,-75,-84,-131,-99,-27
9,-56,-68,20,35,-62,19,-75,-84,-131,-99,-27
9,-62,-68,26,29,-68,13,-81,-78,-125,-99,-21
9,-68,-74,26,35,-74,13,-75,-78,-119,-93,-21
9,-56,-68,20,35,-62,19,-69,-72,-119,-87,-15
9,-56,-68,20,35,-62,19,-69,-72,-119,-87,-15
9,-38,-44,14,17,-44,25,-63,-66,-119,-75,-21
9,-32,-38,8,17,-38,13,-63,-60,-119,-75,-21
4,-44,-44,20,17,-44,7,-69,-60,-125,-81,-21
-14,-74,-56,44,17,-68,19,-69,-66,-125,-87,-21
-20,-86,-62,50,17,-74,13,-69,-66,-125,-87,-27
4,-86,-86,38,35,-86,13,-69,-66,-125,-87,-27
-8,-86,-74,44,23,-80,13,-69,-72,-125,-93,-27
4,-86,-86,38,35,-86,13,-69,-72,-125,-93,-27
9,-74,-86,26,41,-80,13,-57,-66,-113,-99,-21
9,-74,-86,26,41,-80,13,-57,-66,-113,-99,-21
4,-74,-74,32,29,-74,7,-51,-66,-107,-87,-15
9,-62,-80,20,41,-68,1,-51,-60,-107,-81,-15
9,-44,-62,8,35,-50,1,-39,-48,-89,-75,3
9,-32,-44,8,23,-38,1,-39,-42,-89,-75,3
9,-44,-50,14,23,-50,1,-45,-48,-101,-87,-3
9,-50,-68,14,35,-56,7,-51,-48,-107,-87,-15
9,-56,-68,20,35,-62,13,-57,-54,-119,-81,-21
9,-62,-74,20,35,-68,13,-51,-48,-119,-75,-21
9,-68,-80,26,41,-74,19,-45,-54,-113,-75,-21
9,-74,-80,32,35,-80,13,-45,-42,-113,-75,-21
4,-80,-80,38,35,-80,13,-51,-48,-113,-87,-15
-2,-68,-62,32,23,-68,13,-51,-48,-113,-87,-15
4,-62,-62,26,23,-62,19,-45,-42,-107,-81,-15
9,-56,-62,20,29,-62,19,-45,-42,-101,-75,-15
21,-50,-80,8,47,-62,25,-33,-36,-101,-69,-15
27,-56,-92,8,59,-74,25,-33,-30,-95,-69,-9
21,-44,-74,2,47,-56,37,-21,-30,-95,-63,-3
39,-44,-92,2,65,-68,42,-15,-18,-89,-57,-3
45,-32,-86,2,65,-56,42,-15,-12,-83,-57,9
45,-26,-80,-3,59,-50,42,-15,-12,-83,-57,9
39,-15,-50,-9,47,-26,42,-9,-12,-83,-57,3
57,-15,-74,-15,65,-38,42,-9,-12,-83,-57,3
51,-20,-80,-9,65,-50,37,-9,-12,-71,-57,3
51,-26,-86,-3,65,-56,37,-9,-12,-71,-57,3
63,-26,-98,-9,77,-62,31,-3,-6,-71,-51,3
63,-15,-86,-15,71,-50,37,-3,-6,-71,-51,3
63,-15,-86,-15,71,-50,42,21,6,-65,-39,3
63,-32,-104,-9,83,-68,42,27,18,-53,-27,15
81,-26,-116,-21,95,-68,37,27,24,-53,-27,9
75,-32,-116,-15,95,-74,37,27,24,-53,-33,21
45,-44,-98,2,71,-68,37,33,36,-47,-39,15
57,-50,-116,2,83,-80,31,33,36,-41,-39,21
69,-26,-104,-15,83,-62,19,27,30,-47,-33,21
75,-26,-110,-15,89,-68,19,27,36,-47,-33,21
93,-15,-116,-33,101,-62,7,27,30,-41,-27,21
105,-9,-110,-45,107,-50,7,27,30,-41,-15,27
93,-15,-110,-33,101,-56,13,39,42,-41,-15,27
105,3,-98,-51,101,-38,19,45,47,-35,-3,39
123,21,-98,-69,113,-32,31,57,59,-29,-3,45
105,3,-98,-51,101,-38,31,62,65,-17,3,50
105,-15,-122,-39,113,-62,31,62,65,-11,9,50
129,3,-122,-63,125,-50,31,62,65,-5,9,50
117,3,-110,-57,113,-44,13,62,59,-5,21,50
105,3,-98,-51,101,-38,13,62,59,-5,21,50
135,9,-122,-69,131,-50,19,68,65,-5,26,56
141,15,-122,-75,131,-44,19,74,77,7,32,68
153,21,-128,-87,143,-44,25,86,89,13,32,80
165,21,-140,-93,155,-50,31,92,89,19,38,80
183,33,-146,-105,167,-50,25,92,101,25,38,86
177,39,-134,-105,155,-38,25,98,107,31,44,86
177,39,-134,-105,155,-38,19,98,119,36,44,86
189,69,-116,-129,155,-21,19,98,119,36,56,98
219,87,-128,-153,173,-21,19,104,125,42,62,98
201,63,-134,-129,167,-26,7,104,125,42,62,104
213,87,-122,-147,167,-21,-5,104,125,36,68,104
243,99,-140,-171,191,-21,-5,110,125,48,74,110
213,69,-140,-141,179,-26,1,116,137,54,80,110
225,87,-134,-153,179,-21,-5,116,143,54,80,122
237,111,-122,-171,179,-9,1,128,149,60,86,122
237,111,-122,-171,179,-9,1,128,167,60,98,122
231,87,-140,-159,185,-21,1,116,161,60,104,128
243,99,-140,-171,191,-21,1,116,155,72,104,140
237,93,-140,-165,191,-21,-11,110,155,78,110,146
225,87,-134,-153,179,-21,-17,110,149,84,110,146
231,111,-116,-171,173,-9,-17,110,155,78,110,152
255,147,-110,-201,185,15,-17,116,155,78,122,158
261,159,-104,-213,185,21,-17,122,161,78,134,170
267,165,-104,-219,191,27,-17,122,161,78,134,170
267,159,-110,-213,191,21,-17,128,167,84,134,164
261,165,-98,-213,185,27,-11,128,173,84,134,164
249,171,-74,-207,161,45,7,134,179,90,134,170
261,177,-86,-219,179,39,19,134,197,102,134,176
267,165,-104,-219,191,27,19,134,191,96,134,170
249,165,-80,-207,167,39,13,128,173,90,134,164
249,153,-98,-201,179,21,13,116,161,84,122,152
249,141,-104,-195,179,15,7,116,155,72,116,152
213,123,-86,-165,149,15,13,122,161,78,116,140
195,123,-68,-159,131,21,13,110,161,72,110,140
189,129,-56,-159,125,33,19,110,155,72,104,134
171,129,-38,-147,107,39,25,104,155,66,98,122
165,117,-44,-141,107,33,25,98,149,66,92,116
159,123,-32,-141,95,39,25,98,137,60,92,104
141,117,-27,-129,83,45,31,86,125,48,74,92
117,111,-15,-111,59,51,31,68,119,36,56,86
117,99,-27,-105,65,39,42,62,107,31,38,74
111,93,-27,-99,65,33,42,62,107,19,38,62
81,51,-27,-63,53,9,42,57,89,7,26,50
75,45,-27,-57,53,3,42,45,71,-5,15,33
81,51,-27,-63,53,9,42,33,53,-17,9,27
63,39,-27,-51,41,3,42,27,53,-17,3,21
63,33,-27,-45,47,-3,42,21,53,-23,3,15
57,27,-27,-39,41,-3,42,15,47,-23,-3,9
45,15,-27,-27,35,-9,42,9,42,-29,-15,-3
27,-3,-27,-9,29,-21,42,3,30,-41,-21,-15
21,-9,-27,-3,23,-21,42,-15,24,-53,-33,-27
15,3,-21,-9,17,-9,37,-21,24,-65,-45,-27
4,-15,-27,2,12,-21,42,-21,12,-71,-51,-27
-14,-32,-27,20,6,-26,42,-27,12,-77,-51,-27
-8,-38,-27,20,12,-32,42,-33,0,-83,-51,-27
-14,-50,-32,32,12,-44,42,-33,-6,-83,-57,-39
-8,-44,-32,26,17,-38,42,-39,-6,-95,-51,-39
4,-32,-32,14,17,-32,42,-33,-12,-89,-51,-39
9,-15,-32,2,17,-21,42,-27,-6,-83,-51,-39
9,-15,-27,2,17,-21,42,-21,-6,-77,-51,-39
15,-15,-32,2,23,-21,42,-27,-12,-83,-63,-45
9,-15,-27,2,17,-21,42,-39,-18,-95,-63,-57
-8,-20,-21,14,6,-21,42,-45,-24,-101,-69,-69
-14,-26,-21,20,0,-21,42,-39,-24,-101,-69,-69
9,-15,-27,2,17,-21,42,-39,-18,-101,-63,-57
-14,-26,-21,20,0,-21,42,-39,-18,-101,-63,-57
-14,-20,-15,14,0,-21,42,-39,-18,-101,-63,-57
4,-9,-9,2,6,-9,42,-39,-18,-101,-63,-57
-2,-15,-9,2,6,-15,42,-45,-24,-101,-69,-63
-20,-20,-9,20,-6,-21,42,-45,-30,-107,-75,-63
-14,-26,-21,20,0,-21,37,-51,-36,-113,-81,-63
-2,-26,-27,14,12,-26,42,-51,-42,-119,-87,-63
-26,-32,-15,26,-6,-21,42,-51,-36,-119,-87,-69
-38,-32,-3,32,-18,-21,42,-57,-36,-119,-87,-75
-50,-32,9,38,-30,-21,42,-63,-36,-113,-87,-87
-56,-32,15,44,-36,-15,42,-63,-36,-113,-87,-93
-44,-44,-9,44,-18,-21,42,-57,-36,-107,-81,-87
-38,-38,-9,38,-18,-21,48,-51,-30,-107,-81,-81
-38,-50,-21,44,-12,-32,54,-45,-30,-101,-75,-75
-44,-62,-27,50,-12,-38,60,-39,-24,-101,-75,-69
-20,-50,-27,32,6,-38,60,-33,-18,-101,-75,-63
-14,-38,-27,26,6,-32,60,-33,-18,-101,-75,-63
-8,-32,-27,20,12,-26,60,-27,-18,-89,-69,-57
-2,-20,-27,8,12,-21,60,-15,-12,-83,-69,-51
-14,-26,-21,20,0,-21,54,-27,-18,-89,-75,-57
-32,-32,-9,32,-12,-21,48,-27,-24,-95,-75,-63
-32,-38,-15,32,-12,-21,42,-39,-30,-101,-81,-69
-26,-32,-15,26,-6,-21,42,-45,-36,-113,-81,-75
-32,-32,-9,32,-12,-21,42,-39,-36,-113,-81,-69
-38,-32,-3,32,-18,-21,48,-45,-36,-113,-75,-69
-8,-26,-27,14,6,-21,54,-39,-36,-113,-75,-63
9,-26,-32,8,17,-32,60,-33,-30,-107,-75,-63
-14,-38,-27,26,6,-32,60,-27,-24,-101,-69,-63
-14,-32,-27,20,6,-26,60,-27,-24,-101,-75,-63
-8,-26,-27,14,6,-21,54,-33,-18,-95,-69,-63
-8,-15,-15,8,0,-21,54,-33,-18,-95,-69,-63
-8,-20,-21,14,6,-21,54,-27,-18,-89,-69,-63
-8,-20,-21,14,6,-21,54,-21,-18,-89,-69,-63
-2,-15,-21,8,6,-21,54,-15,-18,-83,-63,-57
-14,-38,-27,26,6,-32,54,-15,-18,-83,-63,-57
-8,-62,-50,32,17,-56,54,-15,-18,-89,-69,-63
-14,-68,-50,38,17,-62,54,-21,-18,-83,-69,-69
-32,-68,-32,50,6,-50,60,-21,-12,-89,-57,-75
-20,-56,-32,38,12,-44,72,-21,-12,-107,-69,-81
-26,-50,-27,38,0,-38,66,-27,-12,-107,-75,-81
-32,-56,-27,44,0,-38,60,-27,-12,-107,-81,-81
-38,-50,-21,44,-12,-32,54,-33,-18,-107,-87,-81
-14,-20,-15,14,0,-21,48,-21,-18,-101,-81,-81
9,-15,-27,2,17,-21,54,-15,-18,-107,-81,-81
-2,-26,-27,14,12,-26,54,-15,-12,-107,-75,-81
9,-15,-27,2,17,-21,54,-15,-12,-107,-75,-81
9,-15,-27,2,17,-21,54,-15,-18,-107,-75,-81
9,-32,-38,8,17,-38,54,-15,-12,-101,-69,-75
4,-38,-38,14,17,-38,54,-15,-12,-107,-81,-69
-8,-26,-27,14,6,-21,60,-15,-6,-101,-75,-69
-20,-32,-21,26,0,-21,60,-9,-6,-95,-75,-75
-32,-56,-27,44,0,-38,54,-15,-12,-95,-81,-75
-20,-50,-27,32,6,-38,48,-15,-12,-101,-81,-75
-14,-56,-38,32,17,-50,42,-21,-18,-107,-87,-75
-14,-74,-56,44,17,-68,42,-21,-24,-113,-93,-75
-2,-62,-56,32,17,-62,42,-27,-18,-113,-87,-75
9,-56,-62,20,29,-62,42,-21,-18,-107,-81,-75
4,-56,-56,26,23,-56,42,-15,-12,-101,-75,-81
4,-56,-56,26,23,-56,42,-3,-12,-95,-75,-81
-2,-56,-50,26,17,-56,48,-9,-12,-101,-75,-75
-14,-44,-27,26,12,-38,48,-9,-12,-101,-75,-75
-32,-44,-21,38,-6,-26,48,-21,-12,-101,-75,-81
-20,-44,-27,32,6,-32,42,-21,-18,-101,-75,-81
-2,-32,-27,14,17,-32,42,-21,-12,-101,-81,-81
4,-50,-50,20,17,-50,42,-21,-12,-101,-81,-81
9,-56,-62,20,29,-62,42,-21,-6,-101,-87,-87
9,-50,-62,14,29,-56,42,-27,-6,-107,-87,-81
4,-62,-62,26,23,-62,42,-21,-6,-101,-81,-75
-2,-62,-56,32,17,-62,42,-27,-6,-113,-81,-81
-2,-50,-44,26,17,-50,42,-21,-6,-107,-81,-81
-20,-44,-27,32,6,-32,42,-27,-12,-107,-87,-81
-20,-50,-27,32,6,-38,42,-33,-18,-113,-93,-93
-20,-50,-27,32,6,-38,42,-33,-24,-113,-99,-93
-20,-80,-56,50,17,-68,37,-33,-30,-119,-105,-93
-26,-80,-50,50,17,-68,31,-33,-42,-113,-99,-93
-26,-80,-50,50,17,-68,25,-33,-42,-119,-99,-99
-26,-80,-50,50,17,-68,19,-33,-48,-125,-99,-87
-44,-86,-38,62,0,-62,19,-33,-48,-137,-99,-93
-44,-86,-38,62,0,-62,19,-39,-48,-137,-105,-99
-26,-92,-62,56,17,-80,31,-39,-42,-131,-105,-93
-38,-92,-50,62,12,-74,37,-33,-42,-131,-105,-81
-32,-92,-56,62,17,-74,42,-33,-36,-125,-99,-87
-32,-92,-56,62,17,-74,31,-33,-42,-125,-99,-99
-32,-80,-44,56,12,-62,31,-33,-36,-119,-99,-99
-32,-80,-44,56,12,-62,31,-33,-36,-125,-99,-105
-14,-74,-56,44,17,-68,31,-33,-24,-119,-93,-105
9,-74,-80,32,35,-80,37,-33,-18,-113,-93,-93
-14,-68,-50,38,17,-62,31,-27,-24,-113,-87,-93
-14,-62,-44,38,17,-56,31,-27,-30,-113,-87,-93
4,-50,-50,20,17,-50,31,-27,-36,-119,-93,-93
-8,-38,-27,20,12,-32,31,-27,-36,-119,-93,-93
-20,-50,-27,32,6,-38,37,-33,-36,-113,-93,-93
-20,-50,-27,32,6,-38,31,-33,-42,-113,-105,-99
-38,-56,-27,44,-6,-38,31,-33,-42,-125,-105,-99
-44,-68,-27,56,-6,-44,31,-33,-48,-125,-99,-99
-38,-62,-27,50,-6,-44,31,-33,-54,-131,-99,-105
-38,-62,-27,50,-6,-44,31,-33,-54,-131,-105,-105
-32,-80,-44,56,12,-62,31,-33,-48,-131,-117,-111
-32,-80,-44,56,12,-62,31,-33,-48,-137,-123,-111
-14,-80,-62,44,17,-74,37,-27,-54,-137,-117,-105
-14,-80,-62,44,17,-74,37,-27,-54,-131,-111,-105
-14,-74,-56,44,17,-68,37,-27,-60,-131,-105,-111
-2,-74,-68,38,23,-74,31,-27,-60,-131,-99,-99
-32,-74,-38,50,6,-56,25,-27,-66,-137,-105,-105
-56,-74,-27,62,-18,-44,25,-33,-66,-137,-105,-105
-50,-68,-27,56,-12,-44,19,-39,-72,-143,-105,-117
-44,-68,-27,56,-6,-44,19,-45,-66,-137,-105,-117
-44,-80,-32,62,0,-56,19,-45,-72,-143,-111,-123
-44,-80,-32,62,0,-56,13,-57,-90,-149,-117,-123
-44,-80,-32,62,0,-56,13,-57,-96,-155,-123,-129
-62,-80,-27,68,-18,-50,13,-51,-96,-149,-117,-129
-62,-92,-27,74,-12,-62,13,-51,-90,-143,-117,-123
-56,-98,-38,74,-6,-68,19,-57,-90,-155,-123,-129
-56,-110,-50,80,0,-80,19,-57,-84,-149,-123,-123
-68,-140,-68,104,6,-104,13,-51,-84,-137,-123,-123
-56,-104,-44,80,0,-74,13,-45,-84,-131,-123,-117
-32,-80,-44,56,12,-62,13,-45,-84,-137,-123,-123
-20,-62,-38,38,12,-50,7,-39,-84,-137,-123,-123
-8,-38,-27,20,12,-32,7,-45,-84,-137,-117,-123
9,-32,-38,8,17,-38,31,-33,-54,-125,-105,-105
-26,-68,-38,44,12,-56,31,-39,-66,-125,-93,-111
-44,-92,-44,68,6,-68,25,-39,-66,-125,-99,-111
-44,-86,-38,62,0,-62,19,-45,-72,-131,-105,-111
-44,-80,-32,62,0,-56,19,-45,-72,-131,-105,-111
-44,-74,-27,56,-6,-50,13,-51,-78,-137,-111,-111
-44,-68,-27,56,-6,-44,13,-51,-78,-137,-111,-111
-8,-56,-44,32,17,-50,13,-51,-84,-131,-105,-117
-32,-56,-27,44,0,-38,13,-57,-84,-131,-105,-117
-26,-68,-38,44,12,-56,13,-57,-78,-119,-99,-123
-26,-50,-27,38,0,-38,25,-45,-66,-113,-93,-117
-32,-56,-27,44,0,-38,25,-39,-60,-113,-93,-111
-32,-62,-27,44,0,-44,25,-33,-60,-113,-93,-111
-26,-62,-32,44,6,-50,25,-27,-54,-107,-93,-111
-26,-68,-38,44,12,-56,37,-15,-54,-101,-87,-111
-26,-74,-44,50,12,-62,37,-21,-60,-107,-93,-111
-26,-50,-27,38,0,-38,37,-15,-60,-107,-93,-111
-14,-56,-38,32,17,-50,37,-21,-66,-113,-99,-111
-14,-56,-38,32,17,-50,37,-21,-60,-119,-105,-111
-20,-56,-32,38,12,-44,37,-15,-60,-119,-105,-111
-8,-56,-44,32,17,-50,37,-15,-54,-119,-99,-111
-32,-62,-27,44,0,-44,42,-3,-36,-101,-87,-105
-20,-68,-44,44,17,-56,42,3,-36,-101,-81,-99
4,-50,-50,20,17,-50,42,9,-30,-83,-69,-81
9,-44,-50,14,23,-50,42,9,-24,-83,-69,-81
9,-38,-50,8,23,-44,42,9,-24,-83,-63,-75
9,-26,-44,2,23,-32,42,9,-24,-83,-63,-75
9,-32,-44,8,23,-38,42,15,-18,-77,-63,-81
-2,-32,-27,14,17,-32,42,21,-18,-77,-63,-81
9,-15,-27,2,17,-21,42,21,-18,-83,-69,-87
9,-15,-27,2,17,-21,42,21,-18,-83,-69,-87
-2,-26,-27,14,12,-26,25,3,-36,-89,-75,-87
9,-38,-44,14,17,-44,19,-3,-42,-95,-75,-93
15,-32,-56,2,35,-44,13,-15,-48,-89,-75,-93
15,-15,-32,2,23,-21,13,-21,-48,-83,-69,-81
21,3,-27,-9,17,-9,7,-15,-48,-77,-63,-75
45,21,-27,-33,35,-3,1,-15,-48,-77,-63,-75
45,3,-38,-21,41,-21,-11,-15,-48,-71,-69,-75
27,-15,-50,2,35,-32,-17,-21,-54,-77,-81,-87
27,-26,-62,2,41,-44,-17,-39,-72,-95,-87,-99
27,-26,-62,2,41,-44,-23,-39,-78,-107,-93,-105
21,-56,-86,8,53,-68,-23,-45,-78,-119,-99,-111
9,-62,-80,20,41,-68,-23,-51,-84,-131,-105,-123
15,-62,-86,14,47,-74,-29,-63,-102,-131,-111,-123
15,-80,-104,26,59,-92,-29,-63,-102,-131,-111,-123
9,-86,-104,32,53,-92,-35,-63,-108,-125,-111,-123
27,-86,-122,20,71,-104,-35,-63,-108,-131,-123,-123
21,-80,-110,20,65,-92,-35,-69,-114,-137,-117,-129
9,-74,-92,26,47,-80,-35,-69,-114,-137,-117,-129
9,-68,-80,26,41,-74,-35,-69,-102,-131,-111,-129
9,-62,-68,26,29,-68,-35,-69,-102,-131,-105,-123
-8,-74,-62,38,17,-68,-29,-69,-108,-131,-111,-129
-8,-74,-62,38,17,-68,-29,-69,-108,-137,-117,-129
4,-56,-56,26,23,-56,-29,-69,-114,-137,-123,-135
-14,-74,-56,44,17,-68,-29,-69,-114,-137,-123,-135
-44,-92,-44,68,6,-68,-17,-69,-114,-137,-117,-135
-32,-86,-50,56,12,-68,-11,-69,-114,-137,-117,-141
-14,-86,-68,50,17,-80,1,-69,-114,-137,-111,-141
-32,-92,-56,62,17,-74,1,-63,-114,-131,-111,-141
-50,-104,-50,74,6,-80,-5,-69,-114,-137,-117,-147
-50,-104,-50,74,6,-80,-5,-69,-114,-137,-117,-147
-74,-122,-44,98,-12,-86,-5,-75,-114,-143,-129,-153
-86,-122,-32,104,-24,-80,-5,-81,-120,-143,-129,-159
-92,-128,-32,110,-24,-80,-11,-87,-126,-155,-135,-165
-98,-146,-44,122,-24,-98,-11,-93,-126,-155,-135,-171
-122,-158,-32,140,-42,-98,-17,-93,-144,-161,-153,-177
-110,-158,-44,134,-30,-104,-23,-93,-144,-167,-159,-177
-104,-152,-44,128,-24,-98,-17,-87,-138,-161,-153,-171
-110,-152,-38,128,-30,-98,-17,-87,-138,-155,-147,-165
-104,-152,-44,128,-24,-98,-11,-81,-126,-149,-141,-153
-92,-146,-50,116,-18,-98,-11,-81,-126,-149,-129,-147
-86,-134,-44,110,-18,-92,-11,-81,-126,-143,-129,-153
-74,-122,-44,98,-12,-86,-11,-81,-126,-143,-129,-153
-68,-110,-38,86,-12,-74,-11,-81,-126,-137,-129,-159
-62,-110,-44,86,-6,-80,-5,-81,-126,-137,-129,-159
-80,-104,-27,92,-24,-62,-5,-81,-126,-143,-129,-153
-68,-98,-27,80,-18,-62,-11,-81,-132,-143,-129,-153
-68,-92,-27,80,-18,-56,-11,-81,-132,-137,-129,-147
-86,-98,-21,92,-36,-56,-11,-81,-132,-137,-129,-147
-92,-104,-21,98,-36,-56,-11,-81,-138,-143,-135,-153
-86,-104,-27,92,-30,-62,-5,-81,-132,-143,-141,-159
-86,-104,-27,92,-30,-62,7,-81,-132,-149,-147,-165
-92,-104,-21,98,-36,-56,-5,-81,-132,-155,-153,-171
-68,-104,-32,86,-12,-68,-11,-81,-132,-155,-153,-165
-86,-110,-27,98,-30,-68,-11,-81,-132,-155,-153,-165
-80,-128,-44,104,-12,-86,-17,-81,-126,-155,-147,-159
-74,-110,-32,92,-18,-74,-17,-75,-138,-155,-147,-159
-80,-116,-32,98,-18,-74,-17,-75,-126,-149,-141,-159
-86,-122,-32,104,-24,-80,-17,-69,-120,-143,-141,-159
-74,-128,-50,98,-6,-92,-11,-69,-120,-131,-135,-153
-80,-134,-50,104,-12,-92,-11,-69,-114,-125,-135,-153
-98,-110,-21,104,-42,-62,-11,-57,-114,-131,-135,-159
-98,-86,3,92,-54,-38,-11,-57,-126,-137,-135,-171
-80,-128,-44,104,-12,-86,-11,-69,-144,-167,-153,-177
-80,-188,-104,134,17,-146,-17,-81,-168,-197,-195,-207
-80,-218,-134,146,17,-176,7,-51,-168,-203,-213,-231
-44,-248,-200,146,71,-224,31,-9,-156,-203,-225,-249
-38,-272,-236,158,89,-260,72,57,-126,-197,-231,-261
-26,-254,-224,140,89,-242,138,128,-48,-137,-195,-237
27,-164,-200,62,113,-182,192,242,47,-47,-123,-183
105,-92,-206,2,155,-146,216,350,173,42,-21,-105
123,-62,-194,-21,155,-128,270,482,311,180,74,-21
183,-15,-194,-81,191,-98,336,638,467,318,194,68
291,123,-170,-207,233,-21,408,818,659,486,350,200
381,285,-92,-333,239,93,516,1082,923,720,566,404
453,435,-27,-441,239,207,624,1370,1223,996,812,632
609,609,-9,-609,305,303,696,1622,1505,1236,1058,842
741,795,45,-765,347,423,738,1766,1697,1440,1262,1046
777,927,141,-849,317,531,726,1844,1835,1590,1442,1220
819,1041,213,-933,299,633,684,1856,1931,1716,1574,1352
891,1173,273,-1029,305,723,582,1784,1961,1794,1670,1466
783,1209,423,-993,179,819,474,1610,1895,1770,1676,1490
603,1161,549,-879,23,855,396,1352,1685,1620,1550,1406
543,1113,561,-825,0,837,282,992,1331,1338,1316,1220
489,1041,549,-759,-24,795,114,572,917,996,1016,1004
315,927,603,-621,-138,765,-53,110,467,606,704,752
171,777,603,-477,-216,693,-275,-369,-18,216,356,488
105,663,549,-381,-222,609,-443,-729,-396,-89,80,242
-8,507,519,-243,-264,513,-515,-891,-564,-245,-87,68
-134,363,495,-111,-312,429,-533,-921,-624,-323,-177,-21
-194,255,453,-27,-318,351,-569,-957,-678,-395,-243,-129
-230,147,381,38,-306,261,-635,-993,-744,-485,-357,-237
-266,9,279,122,-270,147,-647,-993,-774,-551,-417,-315
-218,-9,213,104,-216,99,-569,-879,-708,-527,-399,-303
-164,15,183,68,-174,99,-461,-717,-612,-467,-345,-267
-164,27,195,62,-180,111,-401,-609,-546,-425,-321,-243
-146,21,171,56,-156,93,-347,-525,-486,-377,-273,-207
-86,45,135,14,-108,87,-287,-423,-396,-299,-213,-165
-68,33,105,8,-84,69,-215,-327,-312,-239,-171,-141
-56,-9,51,26,-54,21,-173,-267,-282,-209,-165,-141
-56,-20,27,38,-42,-3,-143,-225,-258,-203,-165,-153
-80,-15,69,38,-72,27,-107,-189,-240,-197,-177,-159
-92,-50,33,68,-66,-15,-71,-147,-210,-173,-171,-159
-86,-122,-32,104,-24,-80,-41,-105,-180,-161,-153,-141
-98,-134,-32,116,-30,-86,-35,-87,-168,-155,-141,-141
-104,-140,-32,122,-30,-86,-29,-81,-162,-155,-141,-141
-98,-134,-32,116,-30,-86,-29,-81,-162,-155,-141,-141
-104,-134,-27,116,-36,-80,-41,-75,-168,-155,-153,-147
-122,-134,-21,128,-54,-74,-41,-75,-180,-167,-159,-159
-110,-122,-21,116,-48,-68,-41,-81,-174,-161,-165,-171
-92,-134,-38,110,-24,-86,-29,-81,-174,-161,-165,-177
-80,-146,-62,110,-6,-104,-23,-63,-156,-155,-159,-183
-62,-116,-50,86,0,-86,-5,-45,-144,-149,-159,-183
-56,-104,-44,80,0,-74,1,-33,-138,-137,-147,-165
-68,-104,-32,86,-12,-68,1,-33,-138,-131,-141,-159
-86,-98,-21,92,-36,-56,1,-27,-138,-125,-123,-153
-62,-86,-27,74,-18,-56,1,-27,-138,-125,-123,-141
-68,-92,-27,80,-18,-56,-5,-39,-144,-131,-135,-147
-92,-128,-32,110,-24,-80,-17,-39,-150,-131,-141,-159
-80,-110,-27,92,-24,-68,-17,-45,-156,-143,-159,-171
-74,-98,-27,86,-24,-62,-11,-45,-150,-143,-165,-177
-68,-110,-38,86,-12,-74,7,-27,-144,-137,-159,-171
-56,-110,-50,80,0,-80,13,-15,-126,-125,-153,-171
-32,-92,-56,62,17,-74,19,-3,-120,-125,-147,-153
-32,-92,-56,62,17,-74,19,3,-114,-119,-147,-153
-50,-104,-50,74,6,-80,19,3,-114,-113,-129,-147
-50,-116,-62,80,12,-92,7,3,-120,-119,-129,-147
-56,-116,-56,86,6,-86,13,3,-120,-113,-141,-147
-68,-140,-68,104,6,-104,13,3,-120,-113,-141,-147
-68,-152,-80,110,12,-116,13,-3,-132,-119,-147,-159
-50,-146,-92,98,17,-122,25,-3,-132,-119,-147,-159
-62,-134,-68,98,6,-104,25,-9,-126,-125,-147,-165
-62,-128,-62,92,6,-98,25,-3,-126,-119,-141,-165
-44,-116,-68,80,17,-92,31,3,-120,-113,-129,-147
-44,-116,-68,80,17,-92,31,9,-120,-107,-129,-141
-38,-98,-56,68,12,-80,37,15,-114,-101,-111,-135
-38,-92,-50,62,12,-74,25,21,-108,-95,-111,-129
-38,-98,-56,68,12,-80,25,15,-114,-101,-123,-135
-56,-128,-68,92,12,-98,37,9,-120,-101,-129,-141
-56,-134,-74,92,12,-104,37,9,-126,-101,-135,-153
-32,-134,-98,80,23,-116,37,3,-126,-101,-135,-159
-50,-128,-74,86,17,-104,37,9,-126,-113,-135,-153
-38,-122,-80,80,17,-104,37,9,-126,-113,-135,-153
-32,-104,-68,68,17,-86,37,27,-114,-113,-135,-141
-32,-98,-62,62,17,-80,37,27,-114,-113,-135,-141
-56,-122,-62,86,6,-92,25,21,-120,-113,-135,-147
-44,-128,-80,86,17,-104,19,15,-120,-113,-129,-147
-56,-134,-74,92,12,-104,13,15,-114,-101,-135,-141
-68,-140,-68,104,6,-104,13,9,-114,-101,-135,-141
-56,-128,-68,92,12,-98,13,15,-120,-95,-141,-147
-38,-116,-74,74,17,-98,19,15,-120,-95,-141,-153
-26,-98,-68,62,17,-86,25,21,-126,-89,-129,-159
-20,-86,-62,50,17,-74,25,33,-120,-83,-123,-153
-14,-86,-68,50,17,-80,25,39,-114,-83,-117,-147
-14,-86,-68,50,17,-80,19,39,-102,-83,-117,-147
-14,-86,-68,50,17,-80,13,33,-96,-89,-123,-135
-14,-68,-50,38,17,-62,13,33,-96,-89,-123,-135
-20,-74,-50,44,17,-62,19,33,-102,-89,-129,-141
-20,-74,-50,44,17,-62,19,33,-102,-83,-129,-147
-8,-80,-68,44,23,-74,25,39,-108,-89,-135,-153
-8,-92,-80,50,29,-86,25,39,-102,-83,-141,-153
-26,-104,-74,62,17,-92,25,51,-102,-89,-135,-153
-14,-116,-98,62,35,-110,25,57,-90,-83,-129,-153
-20,-128,-104,74,35,-116,19,57,-84,-83,-129,-147
-26,-134,-104,80,29,-122,13,57,-84,-83,-129,-147
-20,-92,-68,56,17,-80,13,62,-78,-83,-123,-141
4,-80,-80,38,35,-80,13,62,-78,-83,-123,-141
9,-74,-80,32,35,-80,1,62,-72,-71,-117,-129
9,-62,-74,20,35,-68,1,62,-72,-71,-117,-129
15,-62,-86,14,47,-74,1,62,-66,-65,-111,-129
15,-50,-74,8,41,-62,7,62,-66,-65,-111,-129
15,-50,-74,8,41,-62,19,80,-54,-53,-99,-129
15,-68,-92,20,53,-80,19,86,-42,-41,-87,-117
39,-50,-98,2,65,-74,7,92,-42,-47,-87,-117
33,-50,-92,2,59,-68,7,92,-42,-47,-87,-105
9,-50,-68,14,35,-56,1,104,-36,-47,-93,-105
21,-50,-80,8,47,-62,-5,104,-36,-41,-87,-99
27,-38,-74,2,47,-56,-5,104,-30,-35,-87,-99
33,-50,-92,2,59,-68,-5,104,-24,-35,-87,-99
45,-50,-104,2,71,-74,-5,110,-18,-17,-87,-99
57,-44,-110,2,83,-74,-5,110,-18,-17,-75,-93
45,-50,-104,2,71,-74,-5,122,-12,-17,-63,-93
57,-26,-92,-9,71,-56,1,128,-6,-11,-51,-81
75,-15,-86,-27,83,-44,7,140,12,-5,-39,-75
57,-20,-86,-9,71,-50,7,158,18,7,-33,-63
57,-50,-116,2,83,-80,1,152,18,7,-39,-69
81,-32,-122,-15,101,-74,1,152,18,13,-39,-63
69,-38,-116,-9,89,-74,-23,146,12,7,-39,-69
57,-44,-110,2,83,-74,-23,146,12,7,-39,-69
87,-32,-128,-21,107,-80,-17,164,18,7,-39,-69
93,-15,-116,-33,101,-62,-17,170,30,19,-21,-57
105,-15,-116,-45,113,-56,-11,182,42,25,-27,-51
117,-3,-116,-57,119,-50,-5,188,42,31,-21,-51
147,9,-134,-75,143,-56,-5,194,47,36,-9,-33
147,15,-128,-81,137,-50,-5,200,47,36,3,-27
159,15,-140,-87,149,-56,-5,206,59,48,15,-15
177,45,-128,-111,155,-32,-5,206,59,60,26,3
189,57,-128,-123,161,-26,-11,206,59,66,26,3
165,33,-128,-99,149,-38,-23,206,59,66,26,9
159,51,-104,-105,131,-21,-41,200,53,60,26,9
183,63,-116,-123,149,-21,-41,206,53,72,26,15
153,27,-122,-87,137,-38,-35,200,59,72,32,15
165,39,-122,-99,143,-32,-41,200,59,72,32,27
177,57,-116,-117,149,-21,-35,200,59,72,38,27
177,51,-122,-111,149,-26,-35,200,71,72,50,27
183,51,-128,-117,155,-32,-35,194,71,66,50,27
201,81,-116,-141,161,-21,-35,194,71,78,50,39
207,99,-104,-153,155,-9,-47,194,77,78,50,39
201,111,-86,-153,143,9,-53,194,77,84,50,39
201,111,-86,-153,143,9,-47,188,77,90,56,50
225,129,-92,-177,161,15,-47,194,77,90,68,50
225,117,-104,-171,167,3,-41,194,77,102,86,62
225,105,-116,-165,173,-9,-41,194,77,102,86,62
219,99,-116,-159,167,-15,-47,188,71,96,80,56
213,105,-104,-159,161,-3,-47,188,71,96,80,56
189,111,-74,-147,131,15,-35,182,65,90,74,62
207,117,-86,-159,149,9,-29,182,77,102,74,68
201,123,-74,-159,137,21,-23,188,83,108,80,62
177,129,-44,-153,113,39,-23,182,71,102,80,56
171,135,-32,-153,101,45,-17,176,71,108,74,50
165,129,-32,-147,101,45,-17,176,71,96,68,50
141,99,-38,-117,89,27,-5,176,65,90,62,45
129,99,-27,-111,77,33,-5,164,65,84,56,45
135,93,-38,-111,89,21,7,158,47,72,44,39
123,93,-27,-105,77,27,13,152,47,66,38,27
117,81,-32,-99,77,21,19,146,47,60,32,15
111,87,-27,-99,65,27,19,146,42,54,32,3
93,81,-21,-87,53,33,31,134,30,36,26,-15
69,75,-3,-69,29,39,31,116,24,36,9,-21
63,69,-3,-63,29,33,37,104,12,25,-9,-33
57,69,3,-63,23,39,37,98,6,13,-15,-45
21,33,3,-27,17,21,37,80,-12,7,-27,-57
15,33,9,-21,12,21,37,68,-36,-5,-57,-87
9,21,3,-15,12,15,42,62,-48,-17,-63,-93
4,3,3,2,0,3,42,62,-48,-17,-63,-93
-8,-15,-9,8,0,-15,42,62,-42,-23,-63,-99
-14,-20,-15,14,0,-21,42,62,-54,-23,-63,-99
-8,-15,-15,8,0,-21,42,57,-60,-29,-75,-111
-14,-15,-9,14,-6,-21,42,51,-72,-41,-81,-123
-2,-15,-9,2,6,-15,42,33,-72,-53,-93,-135
4,15,15,-3,-6,15,37,27,-72,-65,-105,-135
-20,-15,9,8,-12,-3,42,27,-78,-65,-111,-135
-38,-26,3,32,-24,-21,42,21,-78,-71,-105,-135
-32,-32,-9,32,-12,-21,42,15,-84,-71,-105,-135
-38,-50,-21,44,-12,-32,42,15,-90,-71,-105,-147
-62,-68,-15,62,-24,-38,37,-3,-102,-95,-111,-153
-68,-74,-15,68,-30,-38,31,-3,-114,-95,-117,-159
-80,-80,-9,80,-36,-38,25,-9,-120,-101,-129,-165
-104,-86,9,92,-60,-32,31,-9,-126,-101,-135,-171
-74,-74,-9,74,-36,-38,31,-9,-126,-95,-135,-165
-80,-68,3,74,-42,-26,31,-21,-132,-107,-135,-177
-80,-56,15,68,-48,-21,31,-21,-132,-101,-129,-177
-74,-50,15,62,-48,-21,31,-15,-132,-101,-129,-177
-44,-32,3,38,-24,-21,37,-9,-126,-95,-129,-171
-68,-50,9,56,-42,-21,37,-9,-126,-95,-129,-171
-62,-44,9,50,-36,-21,37,-3,-126,-89,-135,-177
-44,-20,15,32,-30,-9,37,-3,-126,-89,-135,-177
-44,-26,9,32,-30,-15,42,-9,-126,-89,-135,-177
-62,-38,15,50,-42,-21,42,-9,-126,-89,-135,-177
-50,-44,-3,44,-24,-21,42,-15,-126,-95,-135,-171
-38,-38,-9,38,-18,-21,42,-15,-126,-95,-135,-171
-56,-44,3,50,-30,-21,42,-9,-114,-95,-129,-165
-62,-44,9,50,-36,-21,42,-15,-114,-95,-129,-165
-68,-44,15,56,-42,-21,42,-15,-108,-89,-123,-165
-68,-44,15,56,-42,-21,42,-15,-108,-89,-123,-165
-68,-44,15,56,-42,-21,42,-9,-114,-89,-123,-165
-68,-32,27,50,-48,-9,42,-9,-114,-89,-123,-165
-80,-32,39,56,-60,-3,42,-3,-120,-89,-123,-165
-92,-38,45,62,-72,-3,48,-3,-120,-89,-123,-165
-80,-44,27,62,-54,-15,42,-9,-120,-95,-129,-171
-74,-50,15,62,-48,-21,42,-9,-120,-95,-129,-177
-80,-62,9,68,-48,-21,42,-15,-126,-89,-129,-183
-74,-68,-3,68,-36,-32,42,-3,-120,-83,-129,-183
-80,-62,9,68,-48,-21,42,-3,-120,-83,-129,-177
-92,-68,15,80,-54,-21,42,3,-120,-83,-129,-177
-86,-62,15,74,-54,-21,37,3,-120,-83,-129,-171
-74,-56,9,62,-42,-21,37,3,-120,-89,-129,-171
-74,-44,21,56,-48,-21,42,9,-114,-83,-123,-165
-74,-38,27,56,-54,-15,42,3,-114,-83,-117,-165
-38,-20,9,26,-24,-15,42,9,-108,-77,-111,-159
-14,-15,-9,14,-6,-21,42,15,-102,-71,-111,-159
-44,-44,-9,44,-18,-21,42,21,-102,-77,-105,-159
-56,-50,-3,50,-30,-21,42,21,-102,-77,-111,-159
-56,-62,-15,56,-24,-32,42,15,-102,-83,-105,-159
-68,-62,-3,62,-36,-26,42,15,-102,-83,-105,-159
-68,-56,3,62,-36,-21,42,9,-102,-83,-111,-165
-68,-50,9,56,-42,-21,42,15,-102,-83,-111,-165
-62,-32,21,44,-42,-15,42,9,-102,-83,-111,-165
-74,-50,15,62,-48,-21,42,9,-102,-83,-111,-165
-56,-56,-9,56,-24,-26,42,15,-102,-83,-117,-159
-50,-56,-15,50,-18,-32,42,9,-102,-71,-117,-159
-56,-38,9,44,-36,-21,42,15,-96,-71,-105,-153
-32,-20,3,26,-18,-15,48,15,-96,-83,-117,-153
-32,-26,-3,26,-18,-21,48,21,-90,-77,-111,-147
-38,-44,-15,38,-12,-26,48,21,-90,-77,-111,-147
-38,-50,-21,44,-12,-32,48,27,-90,-71,-105,-141
-14,-32,-27,20,6,-26,48,39,-90,-65,-93,-141
-2,-20,-27,8,12,-21,48,39,-90,-65,-99,-141
-20,-38,-27,26,0,-26,48,39,-84,-65,-93,-141
-20,-26,-15,20,-6,-21,42,33,-84,-59,-99,-141
-14,-20,-15,14,0,-21,42,33,-90,-59,-99,-141
-20,-38,-27,26,0,-26,42,27,-96,-65,-99,-141
-26,-38,-21,32,-6,-26,42,27,-96,-77,-111,-141
-32,-20,3,26,-18,-15,42,21,-102,-83,-111,-147
-44,-20,15,32,-30,-9,42,27,-102,-83,-111,-159
-56,-38,9,44,-36,-21,42,27,-102,-77,-111,-153
-38,-26,3,32,-24,-21,42,27,-102,-77,-111,-153
-32,-26,-3,26,-18,-21,42,27,-102,-77,-111,-147
-26,-38,-21,32,-6,-26,42,27,-108,-77,-117,-147
-26,-38,-21,32,-6,-26,42,15,-108,-77,-111,-147
-20,-38,-27,26,0,-26,42,15,-108,-77,-105,-147
-38,-50,-21,44,-12,-32,42,15,-108,-71,-99,-153
-44,-56,-21,50,-12,-32,42,21,-108,-71,-99,-153
-38,-62,-27,50,-6,-44,42,27,-108,-77,-99,-147
-50,-50,-9,50,-24,-26,42,27,-108,-77,-99,-147
-56,-56,-9,56,-24,-26,42,27,-108,-77,-99,-153
-44,-56,-21,50,-12,-32,42,27,-114,-77,-99,-153
-38,-32,-3,32,-18,-21,42,27,-108,-77,-105,-147
-44,-44,-9,44,-18,-21,42,27,-108,-77,-105,-147
-50,-38,3,44,-30,-21,42,27,-102,-77,-111,-147
-56,-26,21,38,-42,-9,42,21,-102,-83,-111,-141
-50,-44,-3,44,-24,-21,37,15,-108,-83,-111,-147
-50,-44,-3,44,-24,-21,37,9,-108,-95,-111,-153
-32,-38,-15,32,-12,-21,31,3,-114,-95,-117,-165
-44,-32,3,38,-24,-21,31,-3,-120,-95,-123,-165
-44,-26,9,32,-30,-15,37,-3,-114,-89,-117,-171
-44,-26,9,32,-30,-15,37,3,-114,-89,-123,-165
-44,-44,-9,44,-18,-21,42,9,-108,-83,-117,-159
-50,-44,-3,44,-24,-21,42,15,-114,-77,-111,-153
-44,-38,-3,38,-24,-21,42,15,-108,-71,-105,-147
-38,-38,-9,38,-18,-21,42,15,-114,-77,-105,-135
-50,-38,3,44,-30,-21,42,15,-108,-77,-99,-129
-44,-38,-3,38,-24,-21,42,9,-108,-77,-105,-135
-26,-38,-21,32,-6,-26,42,9,-114,-83,-111,-141
-38,-38,-9,38,-18,-21,48,15,-120,-89,-111,-135
-32,-32,-9,32,-12,-21,42,15,-126,-95,-111,-153
-32,-32,-9,32,-12,-21,42,15,-138,-101,-111,-171
-38,-26,3,32,-24,-21,42,15,-138,-95,-111,-165
-44,-32,3,38,-24,-21,42,15,-138,-101,-111,-165
-32,-32,-9,32,-12,-21,42,15,-132,-95,-105,-159
-14,-38,-27,26,6,-32,42,15,-126,-89,-105,-141
-44,-44,-9,44,-18,-21,42,15,-126,-89,-111,-147
-44,-50,-15,44,-18,-26,42,15,-132,-89,-111,-147
-32,-50,-27,38,-6,-32,42,9,-132,-95,-129,-153
-44,-50,-15,44,-18,-26,42,9,-132,-95,-129,-153
-56,-62,-15,56,-24,-32,42,-3,-138,-95,-135,-159
-62,-68,-15,62,-24,-38,42,-3,-144,-101,-147,-171
-80,-74,-3,74,-42,-32,31,-9,-150,-119,-153,-177
-92,-92,-9,92,-42,-44,31,-9,-156,-125,-147,-183
-98,-80,9,86,-54,-32,31,-15,-162,-125,-141,-177
-98,-80,9,86,-54,-32,31,-15,-162,-125,-141,-177
-104,-92,3,98,-54,-38,31,-21,-156,-119,-147,-171
-104,-92,3,98,-54,-38,31,-21,-156,-125,-147,-171
-74,-80,-15,74,-30,-44,31,-15,-156,-125,-147,-171
-68,-74,-15,68,-30,-38,31,-15,-156,-119,-147,-171
-56,-56,-9,56,-24,-26,25,-15,-156,-119,-147,-183
-38,-50,-21,44,-12,-32,19,-15,-156,-119,-147,-171
-56,-56,-9,56,-24,-26,31,-9,-150,-113,-147,-165
-74,-56,9,62,-42,-21,37,-9,-150,-113,-147,-165
-56,-56,-9,56,-24,-26,42,-9,-144,-107,-141,-165
-44,-56,-21,50,-12,-32,42,-9,-138,-101,-141,-165
-44,-56,-21,50,-12,-32,42,-9,-138,-107,-147,-165
-44,-56,-21,50,-12,-32,37,-21,-150,-113,-153,-165
-44,-44,-9,44,-18,-21,31,-21,-150,-119,-159,-165
-62,-44,9,50,-36,-21,25,-15,-144,-113,-153,-165
-62,-50,3,56,-36,-21,25,-9,-144,-107,-147,-159
-56,-50,-3,50,-30,-21,31,-15,-144,-119,-153,-165
-56,-56,-9,56,-24,-26,31,-9,-144,-113,-147,-159
-68,-80,-21,74,-24,-44,25,-3,-144,-101,-147,-159
-62,-50,3,56,-36,-21,31,-3,-144,-101,-147,-153
-44,-38,-3,38,-24,-21,31,-3,-144,-107,-147,-159
-38,-26,3,32,-24,-21,31,-3,-144,-113,-147,-159
-32,-15,9,20,-24,-9,31,-9,-144,-113,-141,-159
-14,-15,-9,14,-6,-21,25,-15,-138,-119,-147,-159
-38,-20,9,26,-24,-15,19,-9,-138,-119,-147,-159
-38,-26,3,32,-24,-21,19,-15,-138,-119,-159,-165
-38,-32,-3,32,-18,-21,19,-9,-138,-119,-159,-165
-38,-20,9,26,-24,-15,19,-21,-150,-131,-159,-165
-80,-44,27,62,-54,-15,31,-9,-150,-125,-159,-159
-68,-68,-9,68,-30,-32,37,-3,-150,-113,-147,-147
-68,-68,-9,68,-30,-32,31,-3,-144,-113,-147,-147
-68,-68,-9,68,-30,-32,31,-3,-144,-113,-147,-147
-68,-68,-9,68,-30,-32,25,-3,-138,-113,-147,-147
-68,-68,-9,68,-30,-32,25,-3,-138,-113,-147,-147
-32,-44,-21,38,-6,-26,19,-3,-144,-113,-147,-153
-50,-38,3,44,-30,-21,19,-9,-144,-113,-147,-153
-44,-38,-3,38,-24,-21,13,-9,-138,-107,-147,-159
-38,-15,15,26,-30,-9,25,3,-126,-101,-141,-153
-50,-26,15,38,-36,-15,19,-3,-132,-101,-141,-147
-56,-38,9,44,-36,-21,19,-3,-132,-101,-141,-147
-56,-44,3,50,-30,-21,13,-9,-138,-95,-141,-147
-62,-56,-3,56,-30,-26,25,-3,-138,-89,-135,-147
-68,-68,-9,68,-30,-32,19,-3,-138,-95,-135,-147
-68,-44,15,56,-42,-21,13,3,-138,-95,-135,-147
-62,-56,-3,56,-30,-26,7,3,-138,-101,-135,-147
-62,-56,-3,56,-30,-26,1,3,-132,-107,-141,-147
-56,-50,-3,50,-30,-21,7,9,-132,-101,-135,-141
-44,-44,-9,44,-18,-21,7,9,-126,-101,-129,-141
-56,-44,3,50,-30,-21,25,21,-108,-77,-111,-129
-44,-44,-9,44,-18,-21,25,27,-108,-77,-105,-123
-20,-20,-9,20,-6,-21,25,27,-108,-65,-105,-111
-8,-15,-15,8,0,-21,25,27,-102,-65,-105,-111
-2,-15,-9,2,6,-15,25,21,-108,-71,-111,-111
9,-3,-9,2,12,-9,25,21,-108,-71,-111,-111
9,-9,-21,2,17,-15,31,33,-96,-53,-99,-105
-2,-9,-3,2,0,-9,31,45,-90,-53,-93,-105
15,9,-15,-9,17,-3,31,51,-84,-47,-87,-99
15,21,-3,-15,17,9,19,57,-78,-47,-81,-99
-2,-3,3,2,0,-3,1,45,-90,-59,-93,-105
9,-15,-21,2,17,-21,-5,39,-96,-65,-93,-111
9,-9,-21,2,17,-15,-11,33,-96,-65,-99,-117
9,15,3,-9,6,9,-11,27,-96,-59,-93,-105
9,33,21,-15,0,27,-29,27,-102,-59,-87,-99
21,45,15,-33,12,33,-35,27,-102,-59,-87,-99
15,21,-3,-15,17,9,-59,21,-108,-59,-93,-99
4,-15,-15,2,12,-15,-65,15,-114,-65,-105,-111
9,-15,-27,2,17,-21,-77,-3,-126,-71,-105,-111
9,-3,-21,-3,17,-9,-83,-3,-132,-77,-111,-111
15,-15,-32,2,23,-21,-95,-9,-126,-77,-111,-105
9,-15,-27,2,17,-21,-95,-15,-132,-83,-117,-111
9,-15,-27,2,17,-21,-101,-33,-144,-89,-129,-117
9,-38,-50,8,23,-44,-107,-33,-144,-89,-129,-117
-2,-56,-50,26,17,-56,-113,-39,-144,-89,-135,-123
9,-62,-74,20,35,-68,-119,-39,-144,-95,-147,-123
9,-50,-68,14,35,-56,-125,-39,-150,-101,-141,-129
9,-44,-62,8,35,-50,-125,-39,-150,-101,-135,-129
15,-32,-56,2,35,-44,-131,-33,-138,-95,-129,-129
21,-26,-56,2,35,-38,-131,-33,-138,-95,-117,-123
4,-50,-50,20,17,-50,-131,-39,-144,-101,-123,-129
-2,-56,-50,26,17,-56,-137,-39,-150,-113,-135,-129
-2,-50,-44,26,17,-50,-143,-45,-156,-119,-141,-135
-26,-74,-44,50,12,-62,-149,-45,-162,-125,-147,-135
-62,-86,-27,74,-18,-56,-149,-45,-156,-119,-141,-129
-50,-74,-27,62,-12,-50,-143,-45,-156,-119,-141,-135
-38,-68,-27,50,0,-50,-143,-45,-150,-113,-135,-129
-56,-68,-21,62,-18,-38,-143,-39,-150,-107,-135,-129
-62,-74,-21,68,-24,-44,-143,-39,-150,-107,-141,-129
-62,-74,-21,68,-24,-44,-143,-39,-150,-107,-141,-129
-74,-86,-21,80,-30,-50,-137,-39,-150,-107,-153,-129
-86,-86,-9,86,-42,-44,-137,-45,-156,-107,-153,-135
-80,-74,-3,74,-42,-32,-131,-45,-150,-113,-147,-135
-80,-86,-15,80,-36,-44,-131,-51,-150,-107,-147,-141
-92,-80,3,86,-48,-32,-125,-45,-156,-107,-153,-141
-74,-74,-9,74,-36,-38,-131,-45,-156,-107,-159,-141
-74,-74,-9,74,-36,-38,-131,-51,-156,-113,-159,-141
-86,-74,3,80,-48,-32,-131,-51,-156,-113,-159,-141
-86,-80,-3,80,-42,-38,-131,-57,-150,-119,-159,-135
-80,-74,-3,74,-42,-32,-131,-57,-150,-125,-153,-135
-80,-68,3,74,-42,-26,-125,-51,-150,-125,-153,-129
-74,-62,3,68,-42,-26,-125,-51,-150,-125,-153,-129
-74,-56,9,62,-42,-21,-119,-45,-150,-125,-153,-123
-74,-62,3,68,-42,-26,-113,-45,-150,-125,-153,-123
-86,-56,21,68,-54,-21,-113,-39,-144,-125,-147,-123
-68,-50,9,56,-42,-21,-119,-39,-150,-119,-147,-123
-62,-44,9,50,-36,-21,-119,-33,-144,-107,-141,-123
-74,-50,15,62,-48,-21,-119,-33,-144,-101,-141,-123
-80,-62,9,68,-48,-21,-119,-39,-150,-107,-147,-129
-74,-68,-3,68,-36,-32,-113,-39,-144,-107,-147,-129
-74,-74,-9,74,-36,-38,-101,-45,-144,-113,-153,-135
-80,-80,-9,80,-36,-38,-113,-45,-144,-119,-153,-135
-68,-80,-21,74,-24,-44,-119,-51,-156,-119,-153,-135
-92,-86,-3,86,-48,-38,-119,-51,-156,-119,-153,-135
-98,-104,-15,98,-42,-56,-125,-57,-162,-119,-147,-135
-98,-86,3,92,-54,-38,-125,-51,-174,-119,-147,-135
-98,-86,3,92,-54,-38,-119,-45,-156,-119,-147,-129
-98,-86,3,92,-54,-38,-119,-39,-150,-119,-147,-129
-80,-86,-15,80,-36,-44,-107,-33,-144,-113,-147,-117
-80,-86,-15,80,-36,-44,-107,-33,-138,-113,-147,-117
-98,-74,15,86,-60,-26,-107,-45,-138,-119,-147,-123
-98,-62,27,80,-66,-21,-107,-45,-150,-113,-147,-123
-68,-56,3,62,-36,-21,-107,-45,-156,-119,-153,-117
-104,-116,-21,110,-42,-62,-113,-57,-168,-125,-171,-141
-128,-206,-74,164,-24,-140,-89,-39,-168,-131,-177,-141
-68,-236,-164,152,41,-200,-65,-9,-168,-137,-195,-159
-50,-254,-200,152,65,-230,-35,33,-162,-161,-219,-201
-74,-254,-176,164,41,-218,7,68,-144,-173,-237,-237
-32,-188,-152,110,53,-170,48,158,-78,-119,-207,-213
9,-116,-134,44,71,-122,108,272,42,-29,-129,-141
51,-86,-146,8,95,-116,138,386,161,72,-21,-45
123,-15,-146,-45,131,-80,186,524,287,204,74,45
201,63,-134,-129,167,-26,234,668,437,330,188,128
285,171,-116,-231,203,21,312,848,617,498,344,266
417,351,-62,-381,245,141,426,1100,857,726,554,446
549,537,-21,-543,281,261,528,1376,1163,990,800,656
651,717,57,-681,293,387,594,1604,1415,1218,1004,860
741,843,93,-789,323,465,594,1742,1613,1404,1208,1028
831,981,147,-909,341,567,588,1820,1751,1572,1388,1202
891,1125,225,-1005,329,681,558,1856,1877,1716,1538,1370
903,1221,315,-1059,287,771,462,1796,1919,1794,1640,1490
885,1299,411,-1089,239,855,348,1622,1847,1770,1646,1520
753,1311,549,-1029,101,933,264,1376,1649,1620,1538,1442
567,1215,645,-891,-30,933,138,1010,1301,1344,1286,1262
447,1065,615,-753,-78,843,-53,578,875,984,986,1022
381,933,543,-657,-78,735,-263,116,419,600,650,758
237,801,561,-513,-162,687,-479,-357,-54,222,326,500
63,639,567,-351,-246,603,-635,-735,-426,-83,56,260
-2,471,471,-231,-234,465,-695,-909,-600,-251,-105,86
-98,351,453,-123,-270,399,-719,-933,-642,-323,-189,3
-200,237,441,-15,-318,339,-725,-921,-666,-383,-249,-75
-212,141,351,26,-276,243,-749,-933,-714,-449,-333,-165
-170,75,243,38,-210,159,-743,-921,-744,-503,-387,-207
-176,51,225,56,-204,141,-689,-837,-714,-491,-381,-219
-176,39,213,62,-198,129,-599,-711,-642,-455,-369,-207
-146,33,183,50,-162,105,-533,-621,-570,-413,-333,-195
-134,45,183,38,-156,111,-461,-501,-474,-335,-273,-165
-128,57,189,26,-156,123,-407,-411,-396,-275,-225,-129
-92,51,147,14,-120,99,-371,-351,-354,-257,-219,-129
-104,3,111,44,-108,57,-329,-285,-306,-221,-201,-129
-128,-26,93,74,-114,27,-269,-201,-264,-197,-177,-111
-92,-15,81,44,-84,33,-233,-159,-222,-161,-159,-87
-2,45,51,-15,-24,45,-185,-105,-192,-125,-129,-57
-14,21,39,2,-24,27,-143,-51,-144,-95,-105,-45
-38,-15,21,20,-30,-3,-143,-57,-138,-101,-111,-51
-50,-32,9,38,-30,-21,-149,-63,-144,-107,-117,-63
-74,-68,-3,68,-36,-32,-167,-69,-150,-113,-135,-75
-110,-98,3,104,-60,-44,-173,-75,-168,-131,-147,-99
-104,-86,9,92,-60,-32,-173,-81,-162,-125,-147,-99
-98,-104,-15,98,-42,-56,-161,-81,-162,-125,-147,-105
-92,-116,-27,104,-30,-68,-155,-63,-144,-119,-135,-99
-86,-92,-15,86,-36,-50,-137,-45,-132,-113,-135,-99
-62,-80,-27,68,-18,-50,-131,-33,-126,-107,-135,-87
-62,-74,-21,68,-24,-44,-131,-33,-126,-101,-129,-87
-62,-68,-15,62,-24,-38,-131,-27,-126,-101,-123,-87
-26,-50,-27,38,0,-38,-131,-27,-126,-101,-123,-81
-32,-44,-21,38,-6,-26,-137,-27,-120,-95,-123,-81
-62,-68,-15,62,-24,-38,-149,-27,-120,-95,-123,-87
-50,-38,3,44,-30,-21,-149,-21,-114,-95,-129,-93
-50,-15,27,32,-42,-3,-143,-21,-102,-95,-129,-93
-62,-50,3,56,-36,-21,-131,-15,-108,-95,-129,-87
-56,-68,-21,62,-18,-38,-131,-9,-102,-89,-123,-87
-50,-74,-27,62,-12,-50,-131,-9,-108,-95,-123,-69
-56,-92,-32,74,-6,-62,-137,-9,-114,-95,-123,-69
-62,-80,-27,68,-18,-50,-137,-9,-108,-89,-111,-69
-56,-74,-27,62,-18,-44,-149,-9,-114,-95,-111,-69
-50,-50,-9,50,-24,-26,-143,-9,-108,-89,-129,-75
-56,-56,-9,56,-24,-26,-143,-9,-108,-89,-129,-75
-62,-80,-27,68,-18,-50,-149,-9,-114,-89,-129,-81
-44,-80,-32,62,0,-56,-137,-9,-114,-89,-129,-81
-62,-80,-27,68,-18,-50,-143,-9,-102,-89,-123,-81
-62,-80,-27,68,-18,-50,-143,-3,-102,-83,-117,-81
-56,-86,-27,68,-12,-56,-143,-3,-102,-89,-117,-75
-56,-98,-38,74,-6,-68,-143,-3,-102,-89,-117,-75
-62,-98,-32,80,-12,-68,-143,-3,-102,-95,-111,-81
-62,-104,-38,80,-6,-74,-155,-3,-96,-95,-111,-81
-50,-86,-32,68,-6,-62,-161,-9,-96,-89,-111,-75
-62,-98,-32,80,-12,-68,-149,-9,-102,-89,-117,-69
-50,-80,-27,62,-6,-56,-155,-9,-102,-77,-111,-69
-20,-62,-38,38,12,-50,-155,-9,-102,-77,-111,-63
-44,-68,-27,56,-6,-44,-149,-3,-102,-77,-105,-57
-32,-74,-38,50,6,-56,-143,-3,-102,-77,-105,-57
-32,-68,-32,50,6,-50,-137,15,-90,-65,-99,-45
-32,-74,-38,50,6,-56,-131,15,-90,-65,-99,-45
-50,-80,-27,62,-6,-56,-137,9,-96,-71,-99,-51
-38,-80,-38,56,6,-62,-143,9,-96,-71,-93,-57
-44,-68,-27,56,-6,-44,-143,9,-90,-65,-99,-51
-56,-68,-21,62,-18,-38,-143,9,-90,-65,-99,-57
-50,-74,-27,62,-12,-50,-149,9,-90,-65,-105,-51
-38,-80,-38,56,6,-62,-143,9,-90,-65,-105,-57
-32,-80,-44,56,12,-62,-143,9,-90,-65,-93,-51
-32,-86,-50,56,12,-68,-143,21,-84,-59,-87,-45
-14,-74,-56,44,17,-68,-137,33,-84,-53,-75,-39
-2,-68,-62,32,23,-68,-137,33,-72,-53,-75,-39
9,-56,-62,20,29,-62,-137,33,-72,-53,-75,-27
9,-32,-50,2,29,-38,-131,33,-72,-53,-75,-27
9,-32,-44,8,23,-38,-137,27,-72,-53,-81,-33
9,-26,-32,8,17,-32,-143,27,-72,-47,-75,-39
9,-26,-44,2,23,-32,-149,27,-72,-53,-81,-45
9,-32,-44,8,23,-38,-155,27,-66,-47,-81,-45
-2,-44,-38,20,17,-44,-149,39,-72,-53,-69,-39
4,-56,-56,26,23,-56,-143,45,-60,-47,-63,-39
-2,-68,-62,32,23,-68,-143,45,-60,-47,-57,-27
-14,-74,-56,44,17,-68,-143,45,-60,-47,-57,-27
-2,-32,-27,14,17,-32,-143,51,-60,-47,-57,-27
9,-26,-44,2,23,-32,-143,51,-60,-47,-57,-27
21,-20,-50,2,35,-32,-155,51,-60,-35,-57,-21
27,-15,-50,2,35,-32,-155,51,-60,-35,-57,-21
21,-26,-56,2,35,-38,-161,45,-66,-41,-57,-21
15,-26,-50,2,29,-38,-155,45,-66,-41,-57,-21
9,-38,-44,14,17,-44,-149,57,-66,-41,-51,-21
4,-68,-68,32,29,-68,-149,62,-54,-29,-39,-9
21,-44,-74,2,47,-56,-149,62,-42,-23,-33,-3
21,-44,-74,2,47,-56,-149,62,-42,-23,-33,9
9,-38,-50,8,23,-44,-143,80,-24,-11,-33,15
21,-38,-68,2,41,-50,-149,80,-24,-5,-27,21
27,-15,-50,2,35,-32,-155,74,-30,-5,-21,21
33,-20,-62,2,47,-38,-155,74,-24,-5,-21,21
45,-15,-62,-9,53,-32,-161,74,-30,7,-15,21
57,-9,-62,-21,59,-26,-161,74,-30,7,-3,27
51,-15,-62,-15,59,-32,-155,86,-24,7,3,27
69,9,-56,-39,65,-21,-149,92,-18,13,15,39
93,33,-56,-63,77,-15,-137,104,0,19,21,45
81,15,-62,-45,71,-21,-137,122,6,31,26,50
75,-15,-86,-27,83,-44,-143,122,12,31,21,50
99,3,-92,-51,95,-38,-143,122,12,36,21,50
81,-3,-80,-39,83,-32,-167,122,12,31,21,50
69,-9,-74,-27,71,-32,-167,122,12,31,21,50
87,-3,-86,-39,89,-38,-173,122,12,25,21,50
93,3,-86,-45,89,-32,-173,122,18,36,26,56
93,9,-80,-51,89,-26,-179,116,24,36,26,62
105,9,-92,-57,101,-32,-173,116,18,36,26,56
135,27,-104,-81,119,-32,-167,128,42,42,38,74
141,33,-104,-87,125,-26,-167,140,47,48,50,80
153,39,-110,-93,131,-26,-161,152,65,60,62,92
177,69,-104,-123,143,-21,-161,158,71,72,80,110
195,81,-110,-135,155,-21,-161,170,77,84,86,116
171,57,-110,-111,143,-21,-173,170,77,84,86,122
171,75,-92,-123,131,-15,-185,176,77,84,92,128
195,87,-104,-141,149,-15,-185,182,77,96,98,134
177,69,-104,-123,143,-21,-185,176,77,90,98,128
195,93,-98,-141,149,-9,-191,176,77,90,98,134
219,129,-86,-171,155,15,-191,176,71,84,98,128
225,135,-86,-177,155,21,-191,176,83,84,110,122
213,111,-98,-159,155,3,-185,176,89,84,116,134
225,129,-92,-177,161,15,-185,176,89,96,116,152
213,123,-86,-165,149,15,-191,182,101,102,122,164
201,123,-74,-159,137,21,-197,182,101,108,122,170
207,135,-68,-171,137,27,-191,176,101,102,116,170
231,159,-68,-195,149,39,-191,182,101,102,128,176
237,159,-74,-195,155,39,-185,182,101,102,134,182
237,153,-80,-195,161,33,-185,182,101,102,134,182
243,147,-92,-195,167,21,-185,176,107,102,140,182
237,153,-80,-195,161,33,-185,176,107,102,140,182
225,159,-62,-189,143,45,-167,170,113,102,146,194
243,165,-74,-201,161,39,-161,170,125,114,146,200
249,165,-80,-207,167,39,-149,176,125,114,152,206
225,171,-50,-195,137,57,-149,176,113,108,152,200
231,171,-56,-201,143,51,-137,170,107,108,146,200
225,165,-56,-195,143,51,-137,176,107,96,140,200
195,147,-44,-171,119,45,-125,182,113,102,146,182
183,153,-27,-165,107,57,-125,170,113,96,140,182
183,159,-27,-171,101,63,-113,170,107,96,140,170
171,165,-15,-165,89,75,-107,164,107,90,134,158
159,141,-27,-147,89,57,-107,158,95,84,122,152
147,135,-21,-141,77,57,-107,152,83,72,116,140
123,117,-15,-117,65,51,-101,140,65,54,92,128
93,99,-3,-93,41,51,-101,116,59,36,68,122
99,93,-15,-93,53,39,-83,116,59,36,62,116
99,93,-15,-93,53,39,-83,116,59,36,68,110
75,57,-27,-63,47,15,-71,110,53,36,68,104
75,57,-27,-63,47,15,-71,104,47,31,50,80
69,57,-21,-63,41,21,-71,86,30,13,38,68
51,45,-15,-45,29,15,-71,80,24,13,32,62
39,33,-15,-33,23,9,-71,68,24,1,26,50
33,27,-15,-27,17,9,-71,62,6,1,26,50
33,21,-21,-27,23,3,-65,62,0,-5,21,50
15,9,-15,-9,17,-3,-59,62,-12,-17,15,45
21,9,-21,-15,17,-3,-53,57,-12,-29,3,39
15,27,3,-21,12,15,-59,51,-12,-41,-9,45
4,9,9,2,0,9,-59,45,-24,-41,-15,39
-14,-9,9,2,-12,-3,-59,39,-24,-47,-15,33
-8,-3,9,2,-6,3,-65,27,-36,-47,-15,27
-14,-15,3,8,-6,-9,-65,27,-42,-47,-21,9
-20,-15,-3,14,-12,-15,-59,15,-42,-65,-21,9
-20,-15,-3,14,-12,-15,-59,15,-48,-65,-21,9
-14,-15,-9,14,-6,-21,-53,15,-42,-65,-27,9
-32,-15,9,20,-24,-9,-41,15,-42,-65,-27,9
-14,-20,-15,14,0,-21,-47,15,-48,-65,-39,9
-26,-20,-3,20,-12,-21,-47,3,-54,-77,-39,-3
-38,-26,3,32,-24,-21,-53,3,-60,-77,-45,-9
-38,-26,3,32,-24,-21,-53,9,-60,-77,-45,-9
-14,-15,-3,8,-6,-15,-53,3,-60,-77,-45,-3
-38,-32,-3,32,-18,-21,-53,3,-60,-77,-45,-3
-38,-26,3,32,-24,-21,-59,-3,-66,-77,-51,-9
-20,-15,3,14,-12,-9,-59,-3,-66,-77,-51,-9
-26,-15,3,20,-18,-15,-53,-3,-66,-77,-51,-3
-50,-26,15,38,-36,-15,-53,-3,-66,-77,-51,-3
-44,-32,3,38,-24,-21,-47,-3,-66,-83,-51,9
-38,-26,3,32,-24,-21,-41,-3,-66,-83,-51,9
-44,-26,9,32,-30,-15,-41,-3,-66,-83,-45,9
-44,-26,9,32,-30,-15,-41,-9,-66,-83,-45,9
-38,-20,9,26,-24,-15,-41,-15,-72,-77,-39,3
-32,-20,3,26,-18,-15,-41,-15,-72,-77,-39,3
-38,-20,9,26,-24,-15,-41,-15,-78,-83,-45,-3
-38,-15,21,20,-30,-3,-41,-15,-78,-83,-45,-3
-56,-15,39,32,-48,9,-35,-15,-84,-89,-51,-9
-68,-15,45,38,-60,9,-35,-15,-84,-89,-51,-9
-44,-20,15,32,-30,-9,-29,-9,-78,-89,-45,-3
-38,-20,9,26,-24,-15,-29,-3,-78,-89,-45,-3
-32,-32,-9,32,-12,-21,-23,3,-78,-77,-33,3
-26,-32,-15,26,-6,-21,-23,21,-72,-71,-33,9
-32,-32,-9,32,-12,-21,-23,15,-72,-77,-39,9
-50,-38,3,44,-30,-21,-23,15,-72,-77,-39,9
-44,-38,-3,38,-24,-21,-23,9,-72,-83,-45,9
-38,-32,-3,32,-18,-21,-23,3,-72,-89,-45,9
-50,-26,15,38,-36,-15,-23,3,-72,-89,-45,3
-62,-26,27,44,-48,-9,-23,-3,-72,-89,-39,3
-38,-15,15,26,-30,-9,-23,-3,-72,-89,-39,-3
-26,-15,3,20,-18,-15,-23,3,-66,-83,-39,-3
-44,-26,9,32,-30,-15,-23,9,-66,-77,-39,3
-44,-26,9,32,-30,-15,-23,9,-66,-77,-45,3
-32,-20,3,26,-18,-15,-29,3,-66,-71,-45,9
-32,-15,9,20,-24,-9,-29,3,-66,-71,-45,9
-32,-15,15,20,-24,-3,-23,9,-60,-71,-39,9
-26,-15,9,14,-18,-9,-23,15,-60,-71,-39,9
-20,-3,21,2,-18,9,-17,21,-54,-71,-27,15
-26,-15,3,20,-18,-15,-17,21,-54,-71,-27,15
-20,-32,-21,26,0,-21,-23,15,-60,-77,-39,9
-20,-38,-27,26,0,-26,-29,9,-60,-71,-39,9
-38,-32,-3,32,-18,-21,-29,3,-60,-77,-33,3
-20,-20,-9,20,-6,-21,-23,3,-60,-95,-45,3
-14,-15,-9,14,-6,-21,-17,9,-48,-89,-39,9
-20,-26,-15,20,-6,-21,-17,9,-48,-83,-33,15
-14,-20,-15,14,0,-21,-11,15,-42,-77,-27,21
9,-9,-15,2,12,-15,-11,27,-42,-65,-9,27
9,-15,-27,2,17,-21,-5,27,-48,-71,-15,21
-8,-32,-27,20,12,-26,-5,27,-48,-77,-15,21
-14,-38,-27,26,6,-32,-5,21,-54,-77,-21,15
-14,-44,-27,26,12,-38,-5,21,-66,-83,-27,15
-20,-56,-32,38,12,-44,-17,15,-66,-83,-27,15
-20,-56,-32,38,12,-44,-17,15,-66,-95,-39,21
-26,-32,-15,26,-6,-21,-23,9,-66,-95,-39,15
-32,-32,-9,32,-12,-21,-23,15,-66,-95,-39,9
-38,-38,-9,38,-18,-21,-23,9,-66,-89,-39,3
-20,-20,-9,20,-6,-21,-29,9,-66,-89,-39,3
-8,-15,-9,8,0,-15,-29,3,-66,-89,-39,-3
-2,-15,-21,8,6,-21,-29,3,-72,-89,-45,-3
-2,-20,-27,8,12,-21,-23,-3,-78,-95,-51,-3
4,-20,-27,8,17,-21,-23,-3,-78,-95,-45,-3
-14,-38,-27,26,6,-32,-17,3,-84,-95,-51,-9
-20,-44,-27,32,6,-32,-17,9,-84,-95,-51,-9
-14,-50,-32,32,12,-44,-17,9,-78,-95,-45,3
-26,-44,-27,32,0,-32,-17,9,-78,-95,-45,3
-32,-50,-27,38,-6,-32,-23,3,-72,-89,-39,3
-20,-56,-32,38,12,-44,-29,3,-78,-89,-39,3
-2,-26,-27,14,12,-26,-29,-3,-78,-95,-39,3
-2,-32,-27,14,17,-32,-29,-3,-78,-95,-39,-3
4,-20,-27,8,17,-21,-23,-9,-78,-101,-39,-9
4,-15,-15,2,12,-15,-29,-15,-78,-107,-39,-9
9,-20,-27,2,17,-26,-23,-9,-72,-95,-33,-3
9,-20,-27,2,17,-26,-17,-9,-72,-101,-33,-3
15,-15,-38,2,23,-26,-11,-3,-66,-89,-33,-3
9,-15,-27,2,17,-21,-5,-3,-72,-83,-39,3
4,-15,-27,2,12,-21,-11,-15,-78,-89,-39,-9
-2,-15,-21,8,6,-21,-17,-15,-78,-89,-45,-9
-14,-44,-27,26,12,-38,-23,-21,-84,-95,-45,-9
-26,-44,-27,32,0,-32,-29,-21,-90,-89,-39,-9
-20,-32,-21,26,0,-21,-29,-21,-90,-89,-39,-15
-14,-32,-27,20,6,-26,-35,-21,-96,-95,-39,-3
-26,-26,-9,26,-12,-21,-29,-21,-96,-101,-39,-9
-20,-26,-15,20,-6,-21,-29,-27,-96,-101,-45,-15
-14,-38,-27,26,6,-32,-29,-33,-96,-101,-45,-9
-32,-38,-15,32,-12,-21,-23,-27,-96,-101,-45,3
-38,-44,-15,38,-12,-26,-29,-33,-96,-101,-39,-3
-44,-44,-9,44,-18,-21,-41,-33,-102,-101,-39,-15
-38,-26,3,32,-24,-21,-35,-33,-102,-101,-45,-15
-32,-20,3,26,-18,-15,-35,-33,-102,-107,-45,-21
-8,-15,-9,8,0,-15,-29,-33,-96,-107,-45,-21
9,-15,-27,2,17,-21,-23,-33,-90,-101,-45,-9
-14,-20,-15,14,0,-21,-29,-27,-90,-101,-45,-9
-14,-32,-27,20,6,-26,-29,-27,-96,-101,-45,-9
-8,-44,-32,26,17,-38,-29,-27,-96,-107,-57,-9
-20,-50,-27,32,6,-38,-29,-27,-96,-107,-57,-9
-26,-56,-27,38,6,-44,-23,-27,-96,-95,-51,-9
-26,-56,-27,38,6,-44,-29,-27,-102,-95,-63,-15
-38,-56,-27,44,-6,-38,-29,-21,-102,-101,-57,-15
-44,-68,-27,56,-6,-44,-29,-21,-108,-101,-51,-15
-38,-50,-21,44,-12,-32,-35,-27,-114,-113,-51,-21
-38,-50,-21,44,-12,-32,-35,-33,-114,-113,-57,-21
-32,-56,-27,44,0,-38,-41,-39,-108,-119,-69,-27
-32,-56,-27,44,0,-38,-41,-45,-108,-125,-75,-27
-26,-56,-27,38,6,-44,-35,-45,-108,-119,-69,-21
-32,-56,-27,44,0,-38,-35,-45,-108,-113,-69,-21
-44,-50,-15,44,-18,-26,-35,-51,-108,-107,-63,-27
-38,-50,-21,44,-12,-32,-41,-51,-108,-107,-63,-15
-56,-62,-15,56,-24,-32,-35,-51,-114,-113,-63,-21
-74,-68,-3,68,-36,-32,-35,-57,-114,-113,-63,-27
-56,-74,-27,62,-18,-44,-29,-63,-120,-119,-57,-39
-44,-80,-32,62,0,-56,-29,-69,-114,-113,-57,-45
-32,-74,-38,50,6,-56,-23,-57,-108,-107,-51,-33
-26,-68,-38,44,12,-56,-23,-57,-114,-107,-57,-27
-14,-50,-32,32,12,-44,-17,-45,-108,-101,-51,-15
-26,-44,-27,32,0,-32,-11,-27,-96,-89,-45,-9
-20,-38,-27,26,0,-26,-11,-27,-102,-89,-39,-9
-8,-26,-27,14,6,-21,-5,-33,-102,-101,-45,-15
-2,-20,-27,8,12,-21,-5,-33,-108,-101,-39,-15
-8,-32,-27,20,12,-26,-11,-27,-108,-89,-39,-15
-20,-32,-21,26,0,-21,-11,-33,-114,-95,-45,-15
-14,-38,-27,26,6,-32,-11,-39,-114,-101,-51,-21
-26,-56,-27,38,6,-44,-17,-45,-120,-113,-57,-27
-32,-62,-27,44,0,-44,-17,-57,-120,-113,-57,-27
-8,-56,-44,32,17,-50,-11,-51,-108,-107,-51,-21
-32,-56,-27,44,0,-38,-11,-39,-108,-101,-45,-15
-26,-56,-27,38,6,-44,1,-33,-102,-89,-45,-15
-26,-56,-27,38,6,-44,7,-21,-102,-83,-39,-9
-32,-62,-27,44,0,-44,1,-27,-96,-89,-45,-9
-50,-62,-21,56,-18,-38,1,-27,-108,-95,-45,-15
-44,-68,-27,56,-6,-44,-11,-45,-102,-101,-51,-15
-38,-68,-27,50,0,-50,-11,-45,-102,-101,-45,-15
-50,-68,-27,56,-12,-44,1,-45,-108,-89,-45,-3
-2,-32,-27,14,17,-32,-11,-45,-108,-101,-45,-3
9,-26,-32,8,17,-32,-17,-33,-96,-101,-39,-9
-50,-50,-9,50,-24,-26,-5,-27,-96,-89,-39,-9
-44,-56,-21,50,-12,-32,1,-27,-90,-89,-27,-3
-38,-62,-27,50,-6,-44,-5,-33,-96,-89,-33,-3
-38,-62,-27,50,-6,-44,-5,-33,-96,-89,-33,-3
-32,-68,-32,50,6,-50,-11,-39,-102,-89,-39,-3
-32,-68,-32,50,6,-50,-11,-39,-102,-89,-39,-3
-2,-50,-44,26,17,-50,-11,-33,-108,-89,-33,-3
-26,-50,-27,38,0,-38,-11,-39,-108,-89,-33,-3
-26,-56,-27,38,6,-44,-11,-33,-102,-83,-27,-3
-26,-38,-21,32,-6,-26,1,-21,-90,-77,-21,3
-20,-38,-27,26,0,-26,7,-15,-84,-71,-21,9
-20,-38,-27,26,0,-26,7,-15,-78,-71,-21,9
-2,-32,-27,14,17,-32,13,-9,-72,-59,-21,9
-2,-32,-27,14,17,-32,25,-3,-66,-53,-15,9
-8,-44,-32,26,17,-38,19,-9,-72,-59,-15,9
-8,-20,-21,14,6,-21,19,-3,-72,-59,-15,9
-2,-32,-27,14,17,-32,13,-9,-78,-65,-15,9
-2,-32,-27,14,17,-32,13,-9,-72,-71,-21,9
-2,-32,-27,14,17,-32,19,3,-72,-65,-21,15
9,-26,-32,8,17,-32,19,3,-66,-59,-15,15
-8,-32,-27,20,12,-26,37,21,-48,-35,-3,27
4,-32,-32,14,17,-32,37,27,-48,-29,3,33
15,-15,-32,2,23,-21,42,27,-36,-17,15,45
27,-15,-38,-3,35,-21,42,27,-30,-17,15,45
33,-3,-32,-15,35,-21,42,21,-24,-23,21,45
45,9,-32,-27,41,-15,42,21,-24,-23,21,45
39,3,-32,-21,35,-21,42,27,-24,-17,21,45
15,3,-21,-9,17,-9,42,33,-24,-17,21,45
33,21,-21,-27,23,3,42,33,-30,-23,15,45
27,33,-3,-27,17,15,31,33,-30,-23,15,45
9,-3,-15,2,17,-9,25,27,-36,-29,9,39
15,-15,-38,2,23,-26,19,21,-42,-35,9,33
27,-20,-56,2,41,-38,25,21,-36,-29,9,27
27,-15,-44,-3,35,-26,25,15,-36,-23,15,39
27,3,-27,-15,23,-15,19,15,-36,-23,26,50
51,27,-27,-39,35,-3,13,15,-36,-23,26,50
45,9,-32,-27,41,-15,1,9,-36,-23,26,50
27,-15,-38,-3,35,-21,-5,3,-42,-29,15,45
33,-15,-50,-3,41,-26,-17,-21,-60,-47,9,33
39,-15,-50,-9,47,-26,-23,-21,-66,-53,3,27
39,-26,-74,2,53,-50,-35,-33,-66,-65,-3,21
33,-26,-68,2,47,-44,-35,-39,-72,-71,-9,9
39,-20,-68,-3,53,-44,-29,-45,-78,-71,-9,9
45,-32,-86,2,65,-56,-29,-45,-78,-71,-9,15
39,-32,-80,2,59,-56,-23,-39,-72,-65,-3,15
63,-26,-98,-9,77,-62,-23,-39,-72,-71,-15,21
57,-32,-98,-3,77,-62,-23,-51,-90,-77,-21,9
45,-32,-86,2,65,-56,-23,-51,-90,-77,-21,9
39,-38,-86,2,59,-62,-23,-57,-90,-71,-27,3
33,-38,-80,2,53,-56,-23,-57,-90,-71,-21,9
21,-50,-80,8,47,-62,-17,-51,-90,-71,-21,9
21,-50,-80,8,47,-62,-17,-51,-90,-77,-27,9
39,-32,-80,2,59,-56,-17,-45,-90,-77,-27,9
21,-50,-80,8,47,-62,-17,-45,-90,-77,-27,9
-2,-74,-68,38,23,-74,-11,-45,-90,-77,-27,9
4,-68,-68,32,29,-68,-5,-45,-90,-77,-27,3
9,-74,-86,26,41,-80,1,-45,-90,-77,-27,3
-8,-80,-68,44,23,-74,1,-39,-90,-71,-27,3
-20,-80,-56,50,17,-68,1,-45,-96,-71,-33,-3
-20,-74,-50,44,17,-62,1,-45,-96,-71,-33,-3
-38,-80,-38,56,6,-62,7,-51,-102,-71,-45,-9
-50,-74,-27,62,-12,-50,7,-57,-108,-71,-45,-15
-44,-68,-27,56,-6,-44,7,-57,-108,-89,-45,-15
-50,-86,-32,68,-6,-62,7,-63,-108,-89,-45,-21
-62,-86,-27,74,-18,-56,7,-57,-120,-101,-57,-21
-50,-86,-32,68,-6,-62,1,-57,-120,-107,-63,-21
-50,-80,-27,62,-6,-56,7,-57,-114,-101,-57,-15
-62,-80,-27,68,-18,-50,13,-57,-108,-89,-51,-9
-62,-80,-27,68,-18,-50,19,-57,-96,-83,-45,3
-56,-74,-27,62,-18,-44,25,-57,-90,-77,-33,9
-62,-86,-27,74,-18,-56,19,-63,-96,-83,-39,3
-56,-92,-32,74,-6,-62,19,-63,-96,-83,-39,3
-62,-104,-38,80,-6,-74,13,-69,-102,-89,-45,-3
-62,-122,-56,92,0,-92,19,-69,-102,-89,-45,-3
-80,-116,-32,98,-18,-74,19,-69,-102,-101,-51,-9
-68,-110,-38,86,-12,-74,13,-69,-108,-101,-51,-9
-68,-104,-32,86,-12,-68,13,-69,-108,-101,-57,-15
-86,-110,-27,98,-30,-68,13,-69,-108,-101,-57,-15
-80,-110,-27,92,-24,-68,13,-63,-108,-95,-51,-9
-62,-104,-38,80,-6,-74,19,-57,-102,-89,-45,-3
-50,-98,-44,74,0,-74,31,-51,-96,-83,-39,3
-44,-92,-44,68,6,-68,19,-45,-96,-83,-33,9
-32,-86,-50,56,12,-68,19,-51,-102,-83,-39,3
-56,-92,-32,74,-6,-62,19,-51,-102,-83,-39,3
-62,-104,-38,80,-6,-74,19,-57,-102,-83,-39,-3
-62,-86,-27,74,-18,-56,19,-51,-114,-83,-39,-3
-56,-80,-27,68,-12,-50,19,-51,-102,-83,-39,-3
-50,-74,-27,62,-12,-50,19,-45,-96,-83,-39,-3
-26,-68,-38,44,12,-56,25,-45,-96,-77,-39,3
-20,-62,-38,38,12,-50,25,-45,-90,-77,-39,3
-50,-86,-32,68,-6,-62,37,-33,-78,-71,-27,9
-50,-74,-27,62,-12,-50,13,-57,-102,-89,-51,-15
-44,-80,-32,62,0,-56,25,-57,-108,-95,-57,-21
-80,-128,-44,104,-12,-86,31,-45,-96,-101,-51,-21
-92,-170,-74,128,-6,-122,42,-39,-108,-107,-57,-33
-44,-188,-140,116,41,-164,42,-21,-108,-125,-87,-51
-26,-230,-200,128,77,-218,84,21,-102,-137,-105,-87
-38,-260,-224,152,83,-248,138,68,-84,-125,-123,-111
-20,-236,-212,128,89,-224,192,122,-30,-95,-99,-99
9,-164,-182,68,95,-170,228,224,47,-17,-33,-57
63,-62,-134,2,95,-98,270,338,161,72,50,27
171,9,-158,-87,167,-68,324,476,299,192,158,104
255,63,-194,-159,227,-56,384,620,449,318,266,200
309,123,-188,-219,251,-26,468,800,629,486,416,332
417,279,-134,-345,275,69,564,1064,881,702,626,530
585,501,-80,-543,335,213,672,1352,1175,966,860,740
711,645,-62,-675,389,285,738,1580,1427,1194,1088,944
801,747,-50,-771,431,345,726,1706,1601,1368,1250,1112
915,939,15,-927,449,477,708,1754,1721,1500,1412,1262
993,1101,99,-1047,449,603,666,1784,1829,1644,1550,1394
993,1209,213,-1101,389,711,576,1730,1871,1716,1640,1502
969,1275,303,-1119,329,789,480,1574,1811,1692,1658,1532
861,1287,423,-1071,221,855,414,1352,1637,1572,1562,1466
675,1161,477,-915,95,819,300,1034,1325,1320,1346,1304
537,1005,459,-771,35,735,114,626,935,984,1064,1088
465,921,453,-693,12,687,-101,176,491,600,746,836
303,813,501,-555,-96,663,-329,-297,30,246,422,578
147,651,495,-399,-174,573,-467,-687,-342,-47,164,362
93,513,417,-303,-156,465,-533,-867,-528,-227,3,206
-2,387,393,-189,-198,387,-581,-933,-606,-311,-105,86
-188,219,405,-9,-294,309,-611,-957,-654,-383,-195,-15
-242,57,303,86,-270,183,-623,-969,-714,-467,-273,-117
-182,-15,165,92,-174,69,-605,-921,-720,-491,-303,-153
-164,-32,123,98,-144,39,-509,-801,-636,-455,-261,-117
-152,-20,123,86,-138,45,-413,-669,-558,-401,-237,-105
-110,-3,111,50,-108,51,-359,-573,-486,-365,-213,-93
-98,9,111,38,-102,57,-299,-465,-396,-287,-159,-45
-92,33,129,20,-108,81,-227,-363,-312,-215,-99,3
-44,63,111,-3,-78,87,-173,-291,-270,-179,-81,3
-32,27,63,2,-48,45,-131,-237,-234,-167,-81,3
-80,-15,69,38,-72,27,-83,-189,-204,-149,-69,-3
-56,-15,33,32,-48,3,-35,-159,-192,-137,-63,-3
-14,-15,-9,14,-6,-21,-5,-105,-156,-113,-45,15
-62,-38,15,50,-42,-21,13,-75,-132,-95,-33,15
-56,-50,-3,50,-30,-21,25,-69,-120,-95,-33,15
-50,-50,-9,50,-24,-26,25,-63,-120,-95,-33,15
-44,-56,-21,50,-12,-32,19,-57,-120,-95,-45,9
-62,-62,-9,62,-30,-32,19,-51,-132,-107,-51,-3
-68,-68,-9,68,-30,-32,13,-63,-138,-113,-57,-3
-68,-98,-27,80,-18,-62,25,-69,-144,-113,-57,-9
-74,-128,-50,98,-6,-92,25,-57,-138,-119,-51,-3
-74,-116,-38,92,-12,-80,42,-45,-132,-113,-51,-3
-56,-110,-50,80,0,-80,42,-45,-120,-107,-51,3
-62,-110,-44,86,-6,-80,42,-45,-114,-101,-45,3
-68,-110,-38,86,-12,-74,42,-51,-108,-101,-39,-3
-38,-98,-56,68,12,-80,48,-51,-102,-101,-39,3
-32,-92,-56,62,17,-74,42,-63,-108,-95,-39,9
-56,-122,-62,86,6,-92,37,-63,-108,-95,-39,3
-32,-92,-56,62,17,-74,31,-69,-114,-95,-45,3
-26,-74,-44,50,12,-62,37,-69,-102,-95,-45,3
-32,-86,-50,56,12,-68,48,-57,-108,-95,-39,3
-20,-86,-62,50,17,-74,54,-51,-96,-83,-33,3
-8,-68,-56,38,17,-62,66,-45,-102,-89,-27,15
-8,-68,-56,38,17,-62,66,-45,-102,-83,-27,15
-32,-80,-44,56,12,-62,54,-45,-102,-83,-15,15
-38,-92,-50,62,12,-74,42,-45,-108,-89,-21,9
-50,-92,-38,68,0,-68,42,-45,-108,-89,-39,3
-68,-116,-44,92,-6,-80,42,-45,-108,-89,-45,-3
-68,-134,-62,98,0,-98,42,-51,-120,-95,-51,-3
-50,-128,-74,86,17,-104,42,-57,-120,-95,-51,-3
-62,-122,-56,92,0,-92,42,-63,-114,-101,-51,3
-62,-116,-50,86,0,-86,42,-63,-114,-95,-45,3
-26,-92,-62,56,17,-80,48,-51,-102,-83,-33,21
-8,-74,-62,38,17,-68,54,-45,-90,-77,-33,21
9,-44,-56,14,29,-50,66,-33,-78,-65,-15,27
21,-20,-50,2,35,-32,60,-27,-60,-59,-15,27
9,-32,-50,2,29,-38,54,-27,-60,-65,-15,33
-2,-68,-62,32,23,-68,66,-27,-66,-65,-21,33
-14,-80,-62,44,17,-74,60,-21,-66,-65,-15,33
4,-86,-86,38,35,-86,60,-21,-66,-65,-15,33
-20,-98,-74,56,17,-86,54,-27,-72,-71,-15,27
-14,-104,-86,56,29,-98,54,-33,-78,-71,-15,27
-14,-104,-86,56,29,-98,48,-27,-72,-65,-15,27
-20,-110,-86,62,23,-98,48,-33,-78,-65,-15,27
-26,-110,-80,68,17,-98,48,-27,-78,-65,-15,27
-8,-98,-86,50,29,-92,42,-27,-78,-65,-9,27
-2,-80,-74,38,29,-80,48,-15,-66,-53,-15,39
-8,-68,-56,38,17,-62,48,-15,-66,-53,-15,39
-14,-74,-56,44,17,-68,42,-21,-72,-59,-21,33
-2,-80,-74,38,29,-80,48,-27,-78,-65,-21,27
-8,-80,-68,44,23,-74,48,-33,-84,-71,-9,21
-8,-86,-74,44,23,-80,48,-27,-84,-71,-3,27
4,-92,-92,44,41,-92,54,-21,-78,-65,3,27
4,-92,-92,44,41,-92,48,-21,-66,-59,3,27
9,-98,-104,44,47,-104,48,-27,-60,-59,-3,33
9,-80,-86,32,41,-86,48,-27,-60,-53,-3,33
9,-74,-80,32,35,-80,54,-21,-60,-53,-3,39
9,-62,-68,26,29,-68,54,-21,-60,-47,3,39
15,-56,-80,14,47,-68,60,-9,-60,-53,3,45
15,-56,-80,14,47,-68,60,-9,-54,-47,3,50
9,-50,-68,14,35,-56,60,-3,-60,-47,9,50
27,-50,-86,2,53,-68,66,3,-48,-41,15,50
33,-44,-86,2,59,-62,60,-3,-48,-35,15,50
33,-38,-80,2,53,-56,60,-3,-48,-35,15,50
21,-26,-56,2,35,-38,66,9,-48,-41,15,50
33,-38,-80,2,53,-56,66,9,-48,-41,15,50
21,-62,-92,14,53,-74,60,15,-48,-35,15,50
15,-74,-98,20,53,-86,60,15,-48,-35,15,50
27,-68,-104,14,65,-86,54,15,-48,-29,21,50
33,-50,-92,2,59,-68,60,15,-48,-29,21,50
33,-44,-86,2,59,-62,66,33,-42,-17,26,56
39,-56,-104,2,71,-80,66,39,-30,-5,32,74
63,-32,-104,-9,83,-68,60,39,-30,-5,32,68
63,-32,-104,-9,83,-68,60,39,-30,-5,32,80
39,-26,-74,2,53,-50,60,45,-24,1,26,74
57,-26,-92,-9,71,-56,54,45,-24,7,32,80
63,-20,-92,-15,77,-56,54,45,-18,7,38,86
63,-32,-104,-9,83,-68,60,51,-12,7,44,86
75,-38,-122,-9,95,-80,60,57,-6,19,50,92
81,-32,-122,-15,101,-74,66,62,-6,19,68,98
75,-26,-110,-15,89,-68,60,62,-6,19,68,92
93,-3,-92,-45,95,-38,60,62,0,25,74,98
117,33,-80,-75,101,-21,60,62,12,31,74,98
105,27,-74,-63,89,-21,54,74,18,36,74,104
99,-3,-98,-45,101,-44,60,80,30,36,74,110
123,21,-98,-69,113,-32,60,80,30,42,74,116
105,15,-86,-57,95,-26,48,86,36,42,80,122
93,15,-74,-51,83,-21,48,86,36,42,80,122
123,15,-104,-69,113,-38,42,98,42,42,92,128
135,21,-110,-75,125,-38,42,104,47,54,110,140
147,21,-122,-81,137,-44,42,110,53,60,116,152
165,21,-140,-93,155,-50,42,116,53,66,122,152
177,33,-140,-105,161,-44,42,116,59,72,122,164
171,39,-128,-105,149,-38,42,122,65,78,128,164
165,39,-122,-99,143,-32,42,122,71,84,128,170
177,69,-104,-123,143,-21,42,122,71,96,140,182
207,87,-116,-147,161,-21,42,134,83,108,152,188
195,63,-128,-129,161,-26,37,134,83,108,152,194
207,87,-116,-147,161,-21,31,140,89,108,164,200
243,99,-140,-171,191,-21,31,146,89,120,170,206
213,75,-134,-141,173,-21,25,140,95,120,176,200
225,93,-128,-159,179,-21,19,140,95,120,176,212
237,123,-110,-177,173,3,13,140,95,120,182,206
237,123,-110,-177,173,3,13,140,107,120,194,206
231,111,-116,-171,173,-9,25,134,101,126,194,218
249,129,-116,-189,185,3,25,134,101,138,194,230
243,135,-104,-189,173,9,25,134,101,150,194,242
237,135,-98,-183,167,15,19,134,101,156,194,242
243,153,-86,-195,167,27,25,140,113,156,200,248
267,177,-92,-225,185,39,25,146,113,156,212,254
273,183,-92,-231,185,39,31,158,125,162,230,266
279,177,-104,-231,197,33,31,158,125,162,230,266
273,171,-104,-225,191,27,19,152,119,156,224,254
261,177,-86,-219,179,39,19,152,119,156,224,254
243,183,-56,-213,149,57,25,146,113,150,218,254
249,189,-62,-219,161,57,31,146,125,162,218,260
255,183,-74,-219,167,51,42,152,131,168,224,266
243,189,-50,-213,149,63,42,152,125,162,224,266
249,183,-62,-213,155,57,42,146,125,168,218,266
249,177,-68,-213,161,51,42,152,131,156,212,272
213,153,-56,-183,137,45,42,152,125,150,206,254
201,153,-44,-177,125,51,42,140,119,144,200,248
195,153,-38,-171,119,51,42,134,101,132,188,236
183,153,-27,-165,107,57,42,128,95,126,182,218
189,141,-44,-165,119,45,48,140,101,138,188,224
189,141,-44,-165,119,45,60,146,95,138,194,224
183,135,-44,-159,113,39,78,152,95,138,188,224
165,123,-38,-141,101,39,90,140,95,132,176,230
153,111,-38,-129,95,33,90,128,83,120,164,218
141,105,-32,-123,89,33,84,122,83,108,164,206
99,63,-32,-81,65,9,78,104,65,102,158,194
87,57,-27,-69,59,9,72,92,47,90,134,164
93,63,-27,-75,59,15,72,86,42,72,122,152
75,51,-27,-63,47,9,72,80,36,72,116,146
75,45,-27,-57,53,3,72,80,36,60,110,134
69,39,-27,-51,47,3,72,74,18,60,104,128
69,39,-27,-51,47,3,72,62,12,60,92,122
51,27,-27,-39,35,-3,78,62,0,48,86,110
57,33,-27,-45,41,3,78,45,0,42,74,104
51,51,-9,-51,23,21,72,39,0,36,62,104
33,21,-21,-27,23,3,72,39,-6,36,56,98
21,3,-27,-9,17,-9,72,33,-6,36,56,98
33,-3,-32,-15,35,-21,66,27,-12,36,56,92
33,-15,-44,-9,41,-21,66,27,-18,36,50,80
9,-20,-38,2,23,-26,72,15,-30,13,44,80
9,-26,-38,2,17,-32,66,15,-36,13,44,80
4,-32,-32,14,17,-32,72,15,-42,7,32,80
-20,-38,-27,26,0,-26,78,15,-42,7,32,80
-2,-38,-32,20,17,-38,78,9,-42,7,26,80
-14,-38,-27,26,6,-32,78,-3,-48,-5,26,68
-26,-38,-21,32,-6,-26,78,-9,-48,-5,26,62
-26,-38,-21,32,-6,-26,78,-3,-48,-5,26,62
4,-26,-27,8,17,-26,78,-3,-42,-5,32,68
-20,-50,-27,32,6,-38,78,-3,-42,-5,32,68
-14,-50,-32,32,12,-44,72,-3,-42,-5,32,62
4,-32,-32,14,17,-32,72,-3,-42,-5,32,62
9,-20,-27,2,17,-26,72,-3,-42,-5,26,62
-8,-20,-21,14,6,-21,72,-3,-42,-5,26,62
9,-15,-27,2,17,-21,72,-3,-42,-11,26,68
9,-3,-21,-3,17,-9,78,-3,-42,-11,26,68
9,-9,-15,2,12,-15,78,-3,-42,-11,26,68
4,-15,-15,2,12,-15,72,-9,-42,-11,26,68
4,-15,-15,2,12,-15,72,-15,-48,-5,26,62
4,-15,-21,2,12,-21,66,-15,-48,-5,26,62
-8,-26,-27,14,6,-21,66,-9,-48,-11,26,62
-14,-26,-21,20,0,-21,66,-9,-48,-11,26,62
-38,-44,-15,38,-12,-26,72,-3,-48,-17,26,62
-56,-62,-15,56,-24,-32,72,-3,-48,-17,26,62
-26,-44,-27,32,0,-32,72,-9,-48,-17,26,62
-14,-32,-27,20,6,-26,72,-9,-48,-17,26,62
-2,-20,-27,8,12,-21,72,-15,-54,-5,26,62
9,-15,-27,2,17,-21,72,-3,-48,1,26,68
4,-15,-21,2,12,-21,78,-3,-42,7,26,74
-8,-15,-15,8,0,-21,84,3,-42,7,26,74
-2,-15,-21,8,6,-21,90,3,-36,13,32,80
9,-15,-27,2,17,-21,96,3,-36,7,38,80
-14,-20,-15,14,0,-21,90,-3,-42,1,32,74
-32,-32,-9,32,-12,-21,90,-9,-42,1,32,74
-20,-38,-27,26,0,-26,84,-15,-48,-5,26,68
-14,-50,-32,32,12,-44,84,-9,-42,1,26,68
-26,-62,-32,44,6,-50,84,-3,-48,1,26,68
-26,-56,-27,38,6,-44,84,-3,-48,1,26,68
-8,-50,-38,26,17,-44,78,-9,-54,1,26,68
-8,-38,-27,20,12,-32,78,-9,-54,1,26,68
-8,-32,-27,20,12,-26,84,-9,-48,7,26,68
-8,-26,-27,14,6,-21,84,-3,-48,7,26,68
-2,-15,-15,2,6,-21,90,-3,-42,13,32,74
-14,-26,-21,20,0,-21,90,-3,-42,13,32,74
-8,-44,-32,26,17,-38,84,-3,-48,7,26,68
-8,-50,-38,26,17,-44,78,-9,-48,13,26,62
-26,-44,-27,32,0,-32,78,-9,-48,7,26,56
-8,-32,-27,20,12,-26,84,-9,-48,-11,15,50
-2,-32,-27,14,17,-32,90,-9,-42,-5,21,56
-8,-44,-32,26,17,-38,90,-9,-42,1,26,62
-2,-44,-38,20,17,-44,96,-9,-42,7,26,68
9,-20,-38,2,23,-26,96,3,-42,19,38,74
21,-15,-44,2,29,-26,96,-3,-48,13,32,74
9,-32,-44,8,23,-38,96,-3,-42,13,38,74
9,-26,-38,2,17,-32,90,-15,-48,13,32,74
9,-20,-38,2,23,-26,90,-15,-54,13,32,74
9,-32,-44,8,23,-38,78,-21,-60,13,26,74
9,-32,-44,8,23,-38,72,-21,-60,1,26,74
9,-15,-27,2,17,-21,66,-27,-66,1,21,68
4,-15,-21,2,12,-21,60,-21,-66,1,21,56
-14,-26,-21,20,0,-21,66,-15,-60,13,26,62
-2,-15,-21,8,6,-21,66,-15,-54,13,26,62
-2,-15,-21,8,6,-21,72,-9,-48,19,26,68
-2,-26,-27,14,12,-26,78,-9,-48,19,26,68
9,-26,-32,8,17,-32,72,-15,-54,13,26,68
15,-26,-50,2,29,-38,72,-15,-54,13,26,68
9,-38,-56,8,29,-44,66,-9,-60,13,26,62
15,-44,-68,8,41,-56,66,-3,-60,13,26,62
9,-56,-68,20,35,-62,66,-15,-66,1,26,62
-8,-56,-44,32,17,-50,66,-21,-72,-5,26,56
-32,-68,-32,50,6,-50,60,-39,-78,-11,21,50
-32,-80,-44,56,12,-62,54,-45,-90,-17,21,50
-14,-56,-38,32,17,-50,54,-39,-84,-11,21,50
-8,-62,-50,32,17,-56,54,-33,-78,-11,21,50
-2,-56,-50,26,17,-56,60,-27,-72,-5,21,56
4,-38,-38,14,17,-38,54,-27,-66,-11,21,62
9,-56,-62,20,29,-62,60,-21,-66,-5,26,62
9,-56,-62,20,29,-62,60,-27,-66,-11,26,56
15,-50,-74,8,41,-62,66,-21,-66,-5,26,50
9,-44,-56,14,29,-50,66,-27,-72,1,21,50
9,-50,-56,20,23,-56,72,-27,-72,1,26,50
4,-56,-56,26,23,-56,72,-27,-72,1,21,50
-2,-86,-80,44,29,-86,78,-21,-72,1,26,50
-14,-92,-74,50,23,-86,78,-21,-78,7,26,50
-20,-86,-62,50,17,-74,66,-27,-84,1,26,50
-20,-86,-62,50,17,-74,54,-33,-90,-5,21,50
-44,-86,-38,62,0,-62,48,-39,-96,-17,15,50
-44,-86,-38,62,0,-62,42,-51,-96,-17,3,45
-20,-80,-56,50,17,-68,54,-51,-90,-17,9,50
-20,-74,-50,44,17,-62,60,-45,-90,-17,9,50
-8,-62,-50,32,17,-56,66,-45,-84,-17,21,50
4,-56,-56,26,23,-56,54,-45,-90,-17,21,45
-2,-38,-32,20,17,-38,54,-51,-96,-17,15,50
-2,-38,-32,20,17,-38,54,-51,-96,-23,15,45
9,-26,-32,8,17,-32,54,-57,-96,-23,15,50
21,-26,-56,2,35,-38,60,-57,-90,-17,15,50
-2,-44,-38,20,17,-44,54,-57,-90,-17,15,50
-8,-56,-44,32,17,-50,48,-57,-96,-17,15,50
-2,-68,-62,32,23,-68,48,-63,-96,-23,3,50
-20,-74,-50,44,17,-62,42,-63,-96,-23,3,50
-26,-86,-56,56,17,-74,48,-63,-96,-17,9,45
-26,-86,-56,56,17,-74,42,-63,-102,-23,-3,39
-38,-92,-50,62,12,-74,42,-57,-102,-35,3,33
-44,-104,-56,74,12,-80,42,-57,-108,-41,9,33
-44,-98,-50,68,6,-74,42,-57,-114,-41,9,33
-44,-98,-50,68,6,-74,42,-57,-114,-41,9,33
-44,-116,-68,80,17,-92,42,-57,-108,-35,-3,33
-44,-116,-68,80,17,-92,42,-57,-108,-41,-3,33
-14,-98,-80,56,23,-92,54,-51,-102,-35,3,39
-2,-86,-80,44,29,-86,54,-45,-96,-29,9,39
9,-62,-68,26,29,-68,60,-45,-90,-23,15,33
21,-50,-80,8,47,-62,54,-39,-84,-23,21,45
9,-44,-50,14,23,-50,54,-45,-84,-29,15,45
-14,-44,-27,26,12,-38,54,-51,-84,-29,9,45
-2,-32,-27,14,17,-32,54,-63,-84,-35,9,39
4,-32,-32,14,17,-32,54,-69,-78,-29,3,39
-8,-56,-44,32,17,-50,54,-63,-84,-35,3,33
-14,-74,-56,44,17,-68,48,-75,-96,-41,-3,33
-26,-86,-56,56,17,-74,48,-69,-102,-47,-3,27
-50,-104,-50,74,6,-80,48,-63,-96,-41,3,27
-44,-98,-50,68,6,-74,42,-63,-102,-41,3,27
-32,-86,-50,56,12,-68,48,-69,-102,-53,-3,21
-26,-80,-50,50,17,-68,42,-69,-108,-53,-3,21
-32,-92,-56,62,17,-74,42,-63,-108,-41,-3,21
-38,-86,-44,62,6,-68,42,-57,-102,-35,-3,27
-32,-92,-56,62,17,-74,42,-57,-102,-41,-3,21
-38,-104,-62,68,17,-86,42,-51,-96,-41,-3,21
-44,-110,-62,74,12,-86,42,-57,-96,-41,3,21
-20,-110,-86,62,23,-98,42,-63,-96,-41,3,21
-44,-110,-62,74,12,-86,42,-57,-96,-41,3,27
-38,-116,-74,74,17,-98,48,-63,-102,-35,-3,21
-38,-116,-74,74,17,-98,54,-57,-102,-35,-3,27
-38,-104,-62,68,17,-86,54,-57,-78,-23,9,27
-44,-104,-56,74,12,-80,42,-69,-90,-41,-3,21
4,-68,-68,32,29,-68,48,-57,-90,-41,-3,33
4,-80,-80,38,35,-80,60,-51,-90,-29,9,33
-2,-80,-74,38,29,-80,66,-51,-90,-29,9,33
-8,-80,-68,44,23,-74,66,-51,-90,-29,9,33
-14,-80,-62,44,17,-74,72,-51,-90,-29,9,33
-20,-80,-56,50,17,-68,72,-51,-90,-29,9,33
4,-68,-68,32,29,-68,66,-57,-96,-35,3,27
-20,-68,-44,44,17,-56,66,-63,-96,-35,3,27
-26,-80,-50,50,17,-68,60,-69,-90,-35,-3,21
-26,-62,-32,44,6,-50,72,-57,-78,-29,3,27
-32,-62,-27,44,0,-44,66,-57,-78,-29,3,27
-32,-62,-27,44,0,-44,66,-57,-78,-29,3,27
-26,-56,-27,38,6,-44,60,-57,-78,-23,3,21
-26,-56,-27,38,6,-44,72,-51,-78,-17,9,21
-20,-74,-50,44,17,-62,72,-45,-78,-23,9,21
-20,-56,-32,38,12,-44,72,-39,-78,-23,9,21
-2,-74,-68,38,23,-74,72,-33,-78,-29,9,21
-2,-80,-74,38,29,-80,72,-33,-72,-35,3,21
-2,-80,-74,38,29,-80,78,-33,-66,-29,3,27
9,-74,-80,32,35,-80,78,-33,-60,-23,9,27
-8,-80,-68,44,23,-74,96,-27,-36,1,21,39
4,-80,-80,38,35,-80,96,-21,-36,7,26,45
9,-62,-74,20,35,-68,102,-9,-30,13,26,50
9,-62,-74,20,35,-68,102,-3,-24,13,26,50
9,-56,-62,20,29,-62,108,3,-24,1,26,50
9,-50,-56,20,23,-56,108,9,-24,1,26,50
9,-44,-56,14,29,-50,108,9,-24,7,26,50
-2,-44,-38,20,17,-44,108,9,-24,7,26,45
15,-15,-38,2,23,-26,102,3,-30,1,26,39
15,-15,-27,2,23,-21,90,-3,-30,1,26,33
-2,-38,-32,20,17,-38,78,-9,-36,-5,21,39
9,-56,-62,20,29,-62,72,-15,-36,-11,21,33
9,-62,-74,20,35,-68,72,-15,-30,-5,21,39
9,-44,-56,14,29,-50,72,-21,-24,1,26,50
15,-15,-38,2,23,-26,66,-21,-30,1,26,50
45,-3,-44,-21,47,-21,60,-21,-30,1,26,50
51,-15,-62,-15,59,-32,48,-27,-36,1,26,50
39,-26,-74,2,53,-50,42,-33,-42,-5,26,45
39,-38,-86,2,59,-62,42,-57,-60,-11,15,33
39,-38,-86,2,59,-62,37,-57,-66,-17,9,27
33,-68,-110,8,71,-86,25,-69,-66,-17,-3,21
21,-74,-104,20,59,-86,25,-75,-72,-23,-9,9
15,-74,-98,20,53,-86,31,-81,-84,-35,-9,3
15,-92,-116,32,65,-104,31,-81,-84,-35,-9,3
9,-98,-104,44,47,-104,37,-75,-84,-41,-3,-3
15,-98,-122,32,65,-110,37,-75,-84,-47,-15,-3
15,-92,-116,32,65,-104,31,-81,-96,-53,-21,-9
9,-92,-110,32,59,-98,31,-81,-96,-53,-21,-9
9,-86,-104,32,53,-92,25,-81,-90,-47,-27,-9
9,-86,-104,32,53,-92,25,-81,-90,-47,-21,-3
-2,-110,-104,56,41,-110,37,-87,-90,-53,-27,-9
-2,-116,-110,56,47,-116,37,-87,-90,-59,-33,-9
4,-110,-110,50,47,-110,42,-93,-90,-65,-39,-15
-14,-134,-116,74,41,-128,42,-93,-90,-65,-39,-15
-38,-140,-98,86,23,-122,42,-93,-96,-65,-39,-15
-20,-122,-98,68,29,-110,42,-93,-96,-65,-39,-21
4,-110,-110,50,47,-110,42,-93,-102,-65,-39,-21
-8,-104,-92,56,35,-98,42,-87,-102,-59,-39,-21
-26,-104,-74,62,17,-92,42,-81,-96,-59,-39,-21
-26,-104,-74,62,17,-92,48,-81,-90,-59,-39,-21
-50,-110,-56,80,6,-86,60,-75,-84,-59,-45,-21
-62,-110,-44,86,-6,-80,66,-81,-84,-59,-45,-27
-74,-128,-50,98,-6,-92,60,-93,-90,-77,-51,-39
-86,-158,-68,122,-6,-116,60,-99,-96,-77,-51,-45
-116,-182,-62,146,-24,-122,54,-105,-114,-89,-69,-57
-110,-194,-80,152,-12,-140,48,-105,-120,-95,-75,-57
-104,-182,-74,140,-12,-128,48,-99,-120,-89,-69,-51
-110,-176,-62,140,-18,-122,48,-99,-120,-83,-69,-51
-104,-170,-62,134,-18,-116,48,-93,-114,-77,-63,-39
-92,-158,-62,122,-12,-110,48,-93,-114,-77,-57,-39
-86,-146,-56,116,-12,-104,48,-93,-108,-77,-57,-39
-74,-134,-56,104,-6,-98,48,-93,-108,-77,-57,-39
-68,-122,-50,92,-6,-86,48,-93,-102,-77,-57,-39
-62,-122,-56,92,0,-92,54,-93,-102,-77,-57,-39
-86,-134,-44,110,-18,-92,60,-87,-102,-77,-57,-33
-74,-140,-62,104,0,-104,54,-87,-108,-77,-57,-33
-80,-152,-68,116,0,-110,60,-81,-108,-65,-57,-27
-98,-170,-68,134,-12,-122,60,-81,-108,-65,-57,-27
-92,-164,-68,128,-6,-116,54,-87,-108,-71,-57,-33
-80,-158,-74,116,0,-116,60,-87,-102,-65,-57,-33
-68,-146,-74,104,6,-110,66,-93,-96,-71,-57,-39
-68,-140,-68,104,6,-104,54,-93,-96,-71,-57,-39
-56,-146,-86,98,17,-116,60,-93,-108,-71,-57,-39
-86,-152,-62,116,-6,-110,60,-93,-108,-71,-57,-39
-92,-176,-80,134,0,-128,66,-93,-114,-71,-51,-39
-98,-158,-56,128,-18,-110,66,-87,-126,-71,-51,-39
-98,-152,-50,122,-18,-104,66,-87,-114,-71,-51,-39
-98,-152,-50,122,-18,-104,66,-81,-108,-71,-51,-39
-80,-146,-62,110,-6,-104,72,-81,-108,-65,-51,-33
-80,-146,-62,110,-6,-104,72,-81,-102,-65,-51,-33
-62,-122,-56,92,0,-92,72,-81,-102,-59,-51,-39
-74,-146,-68,110,0,-110,60,-81,-114,-77,-63,-39
-128,-200,-68,164,-24,-134,60,-81,-120,-95,-81,-57
-92,-176,-80,134,0,-128,66,-93,-132,-101,-99,-69
-56,-170,-110,110,17,-140,78,-75,-132,-119,-105,-93
-56,-236,-176,146,53,-206,114,-45,-144,-137,-135,-123
-38,-272,-236,158,89,-260,156,-3,-138,-149,-165,-159
-26,-308,-278,170,119,-296,222,68,-84,-113,-147,-159
-44,-314,-266,182,107,-290,282,170,6,-47,-87,-111
9,-236,-242,110,119,-242,318,284,113,42,3,-45
123,-62,-194,-21,155,-128,336,398,245,156,86,39
195,-3,-194,-93,197,-92,372,524,383,276,182,116
213,15,-194,-111,203,-80,444,668,533,402,302,224
321,111,-212,-219,263,-44,528,884,737,600,488,392
