,,,,,,,,,,,
2019-09-01 15:33:22,,,,,,,,,,,
,,,,,,,,,,,
I,II,III,aVR,aVL,aVF,V1,V2,V3,V4,V5,V6
21,-50,-68,15,38,-59,65,-79,-222,-167,-54,-64
21,-50,-68,15,38,-59,65,-79,-222,-167,-54,-64
21,-50,-68,15,38,-59,65,-79,-222,-167,-54,-64
21,-50,-68,15,38,-59,65,-79,-222,-167,-54,-64
15,-44,-56,15,26,-53,65,-73,-216,-167,-48,-58
15,-44,-56,15,26,-53,65,-73,-216,-167,-48,-58
9,-38,-44,15,26,-41,60,-67,-210,-167,-42,-52
9,-38,-44,15,26,-41,60,-67,-210,-167,-42,-52
15,-38,-50,9,26,-47,60,-55,-204,-161,-36,-52
21,-38,-56,9,32,-47,60,-49,-198,-161,-36,-52
27,-38,-62,3,38,-53,60,-37,-192,-155,-30,-52
33,-38,-68,3,44,-53,60,-31,-186,-155,-30,-52
33,-38,-68,3,44,-53,60,-31,-180,-149,-30,-46
33,-38,-68,3,44,-53,60,-31,-180,-149,-30,-40
33,-38,-68,3,44,-53,60,-31,-174,-143,-30,-34
33,-38,-68,3,44,-53,60,-31,-174,-143,-30,-28
38,-32,-68,-3,44,-53,54,-25,-168,-137,-24,-22
38,-26,-62,-9,44,-47,54,-25,-162,-137,-18,-22
38,-20,-62,-15,44,-41,48,-19,-156,-131,-12,-16
38,-14,-56,-15,44,-35,48,-19,-150,-131,-6,-16
38,-14,-56,-15,44,-35,48,-7,-150,-125,-6,-16
38,-14,-56,-15,44,-35,48,-1,-150,-119,-6,-16
38,-14,-56,-15,44,-35,48,11,-144,-113,-6,-16
38,-14,-56,-15,44,-35,48,17,-144,-107,-6,-16
38,-8,-56,-21,44,-29,48,23,-132,-101,0,-4
38,-2,-50,-27,44,-23,48,29,-126,-101,6,2
44,4,-50,-33,44,-23,48,35,-114,-95,11,14
44,10,-44,-33,44,-17,48,41,-108,-95,11,20
50,10,-50,-33,50,-17,42,47,-102,-89,11,26
56,10,-56,-33,56,-23,36,53,-96,-83,17,26
62,10,-62,-33,62,-23,30,59,-90,-77,23,32
68,10,-68,-33,68,-29,24,65,-84,-71,29,32
74,16,-68,-38,68,-23,18,77,-78,-65,35,38
74,16,-68,-38,68,-23,18,83,-72,-59,35,44
80,22,-68,-44,74,-23,12,95,-66,-53,41,49
80,22,-68,-44,74,-23,12,101,-60,-47,41,49
86,27,-68,-50,74,-17,6,106,-48,-41,53,55
92,27,-68,-56,80,-17,0,106,-42,-41,59,61
98,27,-68,-62,86,-11,-6,106,-30,-35,71,73
104,33,-68,-68,86,-11,-12,106,-24,-35,77,79
110,39,-68,-74,92,-5,-18,106,-24,-29,83,85
110,39,-68,-74,92,-5,-24,112,-24,-23,83,85
116,45,-68,-80,92,-5,-30,118,-24,-17,89,91
116,45,-68,-80,92,-5,-36,124,-24,-11,89,91
110,45,-62,-74,86,1,-42,124,-18,-5,95,97
110,45,-62,-74,86,1,-42,124,-12,-5,101,103
104,45,-56,-74,80,1,-48,124,-6,1,107,109
104,45,-56,-74,80,1,-48,124,0,1,113,115
110,51,-56,-80,86,6,-54,118,-6,-5,113,115
116,51,-62,-80,92,1,-54,118,-12,-5,113,115
122,57,-62,-86,92,6,-60,112,-18,-11,113,115
128,57,-68,-92,98,1,-60,112,-24,-11,113,115
122,57,-62,-86,92,6,-66,106,-30,-5,119,121
122,57,-62,-86,92,6,-72,106,-30,-5,119,121
116,57,-56,-86,86,6,-78,106,-36,1,125,127
116,57,-56,-86,86,6,-84,106,-36,1,125,127
116,63,-50,-86,86,6,-84,106,-42,-5,125,127
116,63,-50,-86,86,6,-84,101,-42,-5,125,127
116,69,-44,-92,80,6,-84,95,-48,-11,125,127
116,69,-44,-92,80,6,-84,89,-48,-11,125,127
116,63,-50,-86,86,6,-90,83,-54,-11,119,121
116,63,-50,-86,86,6,-90,83,-54,-11,119,121
116,57,-56,-86,86,6,-96,77,-60,-11,113,115
116,57,-56,-86,86,6,-96,77,-60,-11,113,115
110,57,-50,-80,80,6,-96,71,-66,-17,113,115
104,57,-44,-80,74,6,-96,71,-66,-17,113,115
98,57,-38,-74,68,6,-96,65,-72,-23,113,115
92,57,-32,-74,62,6,-96,65,-72,-23,113,115
92,51,-38,-68,68,6,-90,59,-78,-23,107,115
92,51,-38,-68,68,6,-90,59,-84,-23,107,115
92,45,-44,-68,68,6,-84,53,-90,-23,101,115
92,45,-44,-68,68,6,-84,53,-96,-23,101,115
86,39,-44,-62,68,6,-72,47,-102,-29,95,109
80,39,-38,-56,62,6,-60,47,-102,-35,95,103
74,33,-38,-50,56,6,-48,41,-108,-41,89,97
68,33,-32,-50,50,6,-36,41,-108,-47,89,91
62,27,-32,-44,50,6,-30,35,-114,-53,83,85
56,27,-26,-38,44,6,-24,29,-120,-53,77,79
50,27,-26,-33,38,6,-18,23,-126,-59,71,73
44,27,-20,-33,32,6,-12,17,-132,-59,65,67
38,27,-20,-33,26,6,0,11,-138,-65,53,61
38,22,-26,-33,32,1,6,11,-144,-71,47,55
38,16,-26,-33,26,-5,18,5,-150,-77,35,49
38,10,-32,-27,32,-11,24,5,-150,-83,29,49
33,4,-26,-21,26,-11,36,-1,-156,-95,23,49
27,-2,-26,-15,26,-17,42,-7,-162,-101,17,44
15,-8,-20,-3,21,-17,54,-13,-168,-113,11,38
9,-14,-20,3,21,-17,60,-19,-174,-119,11,32
3,-20,-20,9,15,-23,65,-31,-180,-125,11,20
3,-20,-20,9,15,-23,65,-37,-186,-131,6,14
-3,-26,-20,15,15,-23,65,-49,-192,-137,0,2
-3,-26,-20,15,15,-23,71,-55,-198,-143,-6,-4
-9,-32,-20,21,9,-29,77,-61,-204,-143,-12,-10
-15,-32,-15,21,3,-23,83,-61,-204,-143,-12,-10
-21,-38,-15,27,3,-29,89,-67,-210,-143,-18,-16
-27,-38,-15,33,-3,-23,95,-67,-210,-143,-18,-16
-33,-38,-15,33,-9,-23,95,-73,-216,-149,-24,-22
-33,-38,-15,33,-9,-23,95,-73,-216,-149,-24,-22
-39,-38,-9,39,-15,-17,95,-79,-222,-155,-30,-28
-39,-38,-9,39,-15,-17,95,-79,-222,-155,-30,-28
-39,-44,-15,39,-15,-23,101,-79,-222,-155,-30,-22
-39,-44,-15,39,-15,-23,101,-79,-222,-155,-30,-22
-39,-50,-15,45,-9,-29,107,-79,-222,-155,-30,-16
-39,-50,-15,45,-9,-29,107,-79,-222,-155,-30,-16
-45,-50,-15,45,-15,-29,107,-79,-222,-155,-30,-16
-45,-50,-15,45,-15,-29,107,-79,-222,-155,-30,-16
-51,-50,-9,51,-21,-23,107,-79,-222,-155,-30,-16
-51,-50,-9,51,-21,-23,107,-79,-222,-155,-30,-16
-45,-50,-15,45,-15,-29,107,-85,-228,-161,-30,-22
-45,-50,-15,45,-15,-29,107,-85,-228,-161,-30,-22
-39,-50,-15,45,-9,-29,107,-91,-234,-167,-30,-28
-39,-50,-15,45,-9,-29,107,-91,-234,-167,-30,-28
-45,-56,-15,51,-15,-35,101,-91,-234,-167,-36,-28
-45,-56,-15,51,-15,-35,101,-91,-234,-167,-36,-28
-51,-62,-15,57,-15,-35,95,-91,-234,-167,-42,-28
-51,-62,-15,57,-15,-35,95,-91,-234,-167,-42,-28
-45,-56,-15,51,-15,-35,101,-85,-228,-161,-42,-28
-45,-50,-15,45,-15,-29,101,-85,-228,-161,-42,-28
-39,-44,-15,39,-15,-23,107,-79,-222,-155,-42,-28
-39,-38,-9,39,-15,-17,107,-79,-222,-155,-42,-28
-39,-44,-15,39,-15,-23,113,-79,-222,-161,-36,-22
-39,-44,-15,39,-15,-23,113,-79,-222,-161,-36,-22
-39,-50,-15,45,-9,-29,119,-79,-222,-167,-30,-16
-39,-50,-15,45,-9,-29,119,-79,-222,-167,-30,-16
-45,-50,-15,45,-15,-29,125,-79,-222,-161,-30,-22
-51,-50,-9,51,-21,-23,125,-79,-222,-161,-30,-22
-57,-50,-3,51,-27,-23,131,-79,-222,-155,-30,-28
-63,-50,3,57,-33,-17,131,-79,-222,-155,-30,-28
-57,-50,-3,51,-27,-23,125,-79,-222,-155,-30,-28
-57,-50,-3,51,-27,-23,125,-79,-222,-155,-30,-28
-51,-50,-9,51,-21,-23,119,-79,-222,-155,-30,-28
-51,-50,-9,51,-21,-23,119,-79,-222,-155,-30,-28
-57,-50,-3,51,-27,-23,119,-73,-222,-155,-36,-34
-57,-50,-3,51,-27,-23,119,-73,-222,-155,-36,-34
-63,-50,3,57,-33,-17,119,-67,-222,-155,-42,-40
-63,-50,3,57,-33,-17,119,-67,-222,-155,-42,-40
-63,-50,3,57,-33,-17,119,-67,-222,-155,-48,-46
-63,-50,3,57,-33,-17,119,-67,-222,-155,-48,-46
-63,-50,3,57,-33,-17,119,-67,-222,-155,-54,-52
-63,-50,3,57,-33,-17,119,-67,-222,-155,-54,-52
-63,-56,-3,57,-33,-23,125,-73,-228,-161,-48,-46
-63,-56,-3,57,-33,-23,125,-73,-228,-161,-48,-46
-63,-62,-9,63,-27,-29,131,-79,-234,-167,-42,-40
-63,-62,-9,63,-27,-29,131,-79,-234,-167,-42,-40
-63,-62,-9,63,-27,-29,131,-73,-228,-161,-42,-34
-63,-62,-9,63,-27,-29,131,-73,-222,-161,-42,-34
-63,-62,-9,63,-27,-29,131,-67,-216,-155,-42,-28
-63,-62,-9,63,-27,-29,131,-67,-210,-155,-42,-28
-57,-68,-15,63,-21,-41,125,-67,-216,-161,-48,-34
-57,-74,-15,63,-15,-47,125,-67,-222,-161,-48,-34
-51,-80,-26,63,-9,-53,119,-67,-228,-167,-54,-40
-51,-86,-32,69,-3,-59,119,-67,-234,-167,-54,-40
-51,-80,-26,63,-9,-53,125,-73,-234,-173,-54,-40
-51,-74,-20,63,-9,-47,125,-73,-234,-173,-54,-40
-51,-68,-15,57,-15,-41,131,-79,-234,-179,-54,-40
-51,-62,-15,57,-15,-35,131,-79,-234,-179,-54,-40
-51,-68,-15,57,-15,-41,131,-79,-234,-179,-54,-40
-51,-74,-20,63,-9,-47,131,-79,-234,-179,-54,-40
-51,-80,-26,63,-9,-53,131,-79,-234,-179,-54,-40
-51,-86,-32,69,-3,-59,131,-79,-234,-179,-54,-40
-57,-92,-32,75,-9,-65,131,-79,-234,-179,-54,-46
-63,-92,-26,75,-15,-59,131,-79,-234,-179,-54,-46
-69,-98,-26,81,-15,-65,131,-79,-234,-179,-54,-52
-75,-98,-20,87,-21,-59,131,-79,-234,-179,-54,-52
-75,-98,-20,87,-21,-59,131,-79,-234,-179,-54,-52
-75,-98,-20,87,-21,-59,131,-79,-234,-179,-54,-52
-75,-98,-20,87,-21,-59,131,-79,-234,-179,-54,-52
-75,-98,-20,87,-21,-59,131,-79,-234,-179,-54,-52
-69,-104,-32,87,-15,-71,137,-79,-234,-179,-60,-58
-69,-98,-26,81,-15,-65,131,-79,-234,-179,-60,-58
-63,-104,-38,81,-9,-71,137,-85,-240,-179,-66,-64
-63,-110,-44,87,-3,-77,137,-85,-240,-179,-66,-64
-63,-104,-38,81,-9,-71,131,-85,-240,-179,-66,-58
-75,-104,-26,87,-21,-65,131,-85,-240,-185,-66,-58
-75,-98,-20,87,-21,-59,125,-85,-240,-185,-66,-58
-69,-98,-26,81,-15,-65,125,-91,-240,-185,-72,-58
-69,-98,-26,81,-15,-65,125,-85,-234,-179,-66,-58
-69,-98,-26,81,-15,-65,125,-85,-234,-179,-66,-58
-69,-104,-32,87,-15,-71,125,-79,-228,-173,-60,-58
-69,-104,-32,87,-15,-71,125,-85,-228,-173,-60,-58
-69,-110,-38,87,-9,-77,131,-79,-228,-173,-60,-58
-63,-110,-44,87,-3,-77,131,-79,-228,-173,-60,-58
-63,-116,-50,87,-3,-83,137,-73,-228,-173,-60,-58
-75,-116,-38,93,-15,-77,137,-73,-228,-173,-60,-58
-75,-110,-32,93,-15,-71,137,-73,-228,-173,-60,-58
-69,-110,-38,87,-9,-77,137,-73,-228,-173,-60,-64
-69,-104,-32,87,-15,-71,137,-73,-228,-173,-60,-64
-69,-98,-26,81,-15,-65,137,-73,-228,-173,-60,-64
-57,-98,-38,75,-3,-71,131,-73,-228,-173,-60,-64
-57,-86,-26,69,-9,-59,137,-61,-222,-161,-60,-64
-51,-80,-26,63,-9,-53,143,-55,-210,-155,-48,-64
-51,-74,-20,63,-9,-47,149,-49,-204,-149,-42,-58
-51,-56,-15,51,-21,-29,155,-37,-198,-149,-42,-52
-57,-50,-3,51,-27,-23,161,-31,-192,-149,-36,-52
-57,-38,9,45,-33,-11,167,-25,-192,-155,-36,-52
-57,-38,9,45,-33,-11,167,-25,-192,-155,-36,-52
-51,-38,3,45,-27,-11,167,-31,-192,-149,-30,-46
-51,-38,3,45,-27,-11,173,-31,-192,-143,-30,-46
-51,-38,3,45,-27,-11,173,-31,-192,-137,-24,-40
-45,-38,-3,39,-21,-17,173,-31,-192,-125,-24,-40
-51,-38,3,45,-27,-11,179,-31,-186,-131,-30,-40
-51,-38,3,45,-27,-11,179,-31,-186,-131,-30,-34
-57,-44,3,51,-33,-17,185,-25,-180,-137,-36,-34
-57,-50,-3,51,-27,-23,179,-25,-186,-137,-36,-34
-51,-44,-3,45,-27,-17,179,-25,-186,-137,-36,-34
-51,-32,9,39,-33,-5,167,-25,-180,-137,-30,-28
-45,-8,27,27,-39,6,167,-19,-174,-125,-24,-22
-45,4,39,21,-45,12,167,-19,-174,-113,-12,-10
-39,10,39,15,-39,18,155,-19,-174,-107,-12,-16
-39,10,39,15,-39,18,149,-31,-180,-113,-12,-16
-33,4,27,15,-33,6,143,-37,-192,-113,-18,-28
-33,4,27,15,-33,6,137,-37,-192,-119,-18,-28
-27,16,33,3,-33,18,137,-31,-186,-113,-12,-28
-27,22,39,3,-33,24,131,-31,-186,-107,-12,-28
-27,27,45,-3,-39,30,131,-25,-180,-101,-6,-28
-9,27,27,-9,-21,18,125,-19,-180,-101,0,-22
3,22,9,-15,-3,6,119,-25,-180,-101,0,-16
9,10,-9,-9,9,6,113,-25,-180,-113,0,-16
15,-8,-20,-3,21,-17,113,-31,-180,-101,-6,-10
15,-14,-26,-3,26,-23,119,-25,-174,-101,-6,-10
9,-20,-26,3,21,-23,119,-13,-168,-107,-12,-16
9,-20,-26,3,21,-23,119,-13,-168,-107,-12,-28
9,-14,-20,3,21,-17,113,-7,-168,-113,-18,-40
3,-32,-32,15,21,-35,113,-7,-168,-125,-30,-52
-21,-44,-20,33,3,-35,125,-13,-174,-125,-30,-58
-39,-56,-15,45,-9,-35,131,-19,-174,-131,-36,-64
-51,-68,-15,57,-15,-41,137,-25,-180,-131,-36,-70
-63,-74,-15,69,-21,-41,137,-31,-180,-137,-42,-82
-63,-92,-26,75,-15,-59,131,-37,-192,-143,-54,-82
-63,-92,-26,75,-15,-59,125,-43,-198,-149,-54,-88
-63,-104,-38,81,-9,-71,119,-49,-198,-155,-60,-88
-63,-116,-50,87,-3,-83,113,-49,-204,-161,-66,-88
-69,-116,-44,93,-9,-83,119,-49,-198,-161,-72,-94
-81,-122,-38,99,-15,-83,125,-55,-204,-167,-72,-100
-87,-128,-38,105,-21,-83,131,-49,-204,-173,-72,-100
-93,-128,-32,111,-27,-83,131,-55,-210,-173,-78,-100
-87,-128,-38,105,-21,-83,131,-61,-216,-173,-78,-106
-81,-128,-44,105,-15,-89,131,-61,-216,-173,-78,-106
-75,-122,-44,99,-9,-83,125,-67,-222,-173,-78,-112
-69,-122,-50,93,-3,-89,125,-67,-222,-173,-84,-112
-75,-134,-56,105,-3,-95,125,-67,-216,-179,-84,-118
-75,-134,-56,105,-3,-95,125,-67,-216,-179,-84,-118
-81,-134,-50,105,-9,-95,125,-61,-210,-173,-84,-118
-81,-134,-50,105,-9,-95,125,-61,-210,-173,-84,-118
-87,-140,-50,111,-15,-95,125,-55,-210,-173,-78,-118
-87,-140,-50,111,-15,-95,125,-55,-210,-173,-78,-118
-87,-140,-50,111,-15,-95,125,-55,-210,-173,-72,-118
-87,-140,-50,111,-15,-95,125,-55,-210,-173,-72,-118
-87,-140,-50,111,-15,-95,125,-49,-204,-173,-72,-112
-87,-140,-50,111,-15,-95,131,-49,-204,-173,-72,-112
-87,-140,-50,111,-15,-95,131,-49,-204,-167,-72,-106
-87,-146,-56,117,-9,-101,137,-49,-204,-167,-72,-106
-75,-140,-62,105,-3,-101,143,-37,-192,-155,-72,-106
-105,-170,-62,135,-15,-119,161,-19,-168,-167,-90,-112
-111,-164,-50,135,-27,-107,197,17,-150,-161,-90,-130
-87,-164,-74,123,-3,-119,245,65,-132,-167,-96,-148
-111,-212,-98,159,-3,-155,329,130,-72,-179,-132,-184
-135,-230,-98,183,-15,-167,413,226,6,-161,-144,-202
-99,-188,-86,141,-3,-137,467,328,101,-107,-108,-178
-75,-134,-56,105,-3,-95,503,436,233,-17,-48,-130
-57,-104,-44,81,-3,-77,515,556,347,42,11,-70
9,-8,-15,-3,15,-11,479,658,467,168,101,20
68,117,39,-92,21,78,431,754,575,306,227,127
98,237,129,-164,-9,186,359,790,659,450,365,265
164,381,213,-272,-15,294,251,754,689,588,515,403
254,555,297,-404,-15,432,119,724,701,726,683,559
320,711,381,-518,-21,546,18,712,725,864,845,733
386,849,459,-614,-27,654,-114,658,719,1002,1025,901
524,999,471,-764,26,738,-246,610,725,1140,1193,1081
620,1119,489,-866,62,804,-378,652,779,1272,1325,1219
662,1191,519,-926,68,858,-480,766,893,1404,1445,1333
686,1281,591,-986,44,942,-630,838,995,1524,1541,1435
656,1389,723,-1016,-27,1056,-762,832,1025,1602,1619,1513
590,1413,813,-1004,-105,1116,-852,802,1007,1620,1619,1513
542,1305,753,-926,-99,1032,-852,790,953,1542,1511,1405
470,1107,633,-782,-75,870,-798,628,767,1302,1289,1201
302,861,549,-578,-117,708,-750,226,281,852,959,901
152,639,477,-392,-159,558,-708,-277,-330,318,575,595
74,507,423,-284,-171,468,-690,-625,-738,-59,281,337
-21,393,417,-182,-213,402,-636,-829,-942,-275,95,151
-129,273,405,-68,-261,336,-564,-865,-984,-371,-12,32
-153,177,327,-21,-237,246,-510,-775,-912,-389,-84,-40
-153,87,237,27,-195,162,-444,-673,-816,-395,-132,-106
-207,10,213,99,-213,102,-372,-583,-726,-407,-168,-160
-207,-26,177,117,-195,66,-318,-511,-672,-395,-186,-190
-165,-38,117,99,-141,30,-282,-469,-630,-383,-174,-190
-159,-68,81,111,-123,6,-228,-409,-576,-383,-174,-190
-165,-92,63,129,-117,-11,-174,-343,-504,-371,-168,-190
-117,-92,15,105,-69,-35,-126,-265,-438,-347,-156,-184
-93,-110,-15,99,-33,-65,-60,-175,-360,-317,-156,-172
-105,-146,-38,123,-27,-95,-18,-115,-282,-293,-156,-172
-93,-146,-50,117,-15,-101,0,-61,-228,-263,-144,-160
-75,-146,-68,111,3,-107,36,-25,-192,-239,-126,-154
-93,-158,-62,123,-9,-113,60,5,-162,-215,-108,-142
-75,-134,-56,105,-3,-95,65,17,-156,-161,-84,-130
-51,-116,-62,81,9,-89,65,11,-150,-125,-78,-124
-57,-128,-68,93,9,-101,71,23,-144,-149,-78,-130
-69,-134,-62,99,3,-101,83,35,-144,-155,-66,-118
-63,-128,-62,93,3,-95,95,47,-126,-149,-66,-124
-63,-128,-62,93,3,-95,101,47,-120,-149,-72,-124
-63,-134,-68,99,9,-101,101,53,-114,-143,-72,-130
-69,-152,-80,111,9,-119,101,53,-108,-143,-84,-136
-69,-152,-80,111,9,-119,101,47,-108,-149,-84,-136
-69,-152,-80,111,9,-119,101,35,-120,-149,-78,-136
-63,-152,-86,105,15,-119,101,35,-120,-155,-72,-130
-57,-140,-80,99,15,-113,101,35,-120,-143,-60,-118
-51,-128,-74,87,15,-101,95,35,-126,-149,-60,-118
-51,-128,-74,87,15,-101,95,41,-120,-149,-60,-118
-51,-128,-74,87,15,-101,89,35,-126,-155,-60,-118
-51,-128,-74,87,15,-101,89,41,-120,-149,-54,-118
-63,-146,-80,105,15,-113,95,41,-114,-149,-60,-118
-63,-146,-80,105,15,-113,95,41,-114,-149,-60,-118
-69,-158,-86,111,15,-125,95,41,-108,-149,-72,-124
-69,-158,-86,111,15,-125,89,41,-108,-149,-72,-124
-57,-146,-86,99,21,-119,89,35,-114,-137,-60,-118
-51,-134,-80,93,21,-107,89,35,-114,-137,-48,-106
-39,-122,-80,81,26,-101,89,35,-120,-125,-42,-106
-39,-122,-80,81,26,-101,89,35,-120,-125,-42,-106
-39,-116,-74,75,21,-95,89,41,-120,-125,-48,-106
-39,-116,-74,75,21,-95,95,41,-114,-125,-48,-106
-39,-128,-86,81,26,-107,95,41,-114,-131,-54,-112
-45,-134,-86,87,26,-113,95,41,-114,-131,-54,-112
-45,-134,-86,87,26,-113,101,41,-108,-131,-54,-118
-45,-128,-80,87,21,-107,101,41,-108,-131,-54,-118
-45,-128,-80,87,21,-107,107,41,-102,-125,-54,-118
-39,-122,-80,81,26,-101,107,41,-102,-125,-54,-118
-39,-122,-80,81,26,-101,101,41,-108,-131,-54,-106
-33,-122,-86,75,26,-107,89,47,-108,-125,-48,-100
-33,-116,-80,75,26,-101,83,47,-108,-131,-42,-94
-33,-116,-80,75,26,-101,83,47,-102,-125,-42,-100
-45,-122,-74,81,21,-101,89,53,-96,-119,-42,-100
-45,-122,-74,81,21,-101,89,53,-96,-119,-42,-100
-39,-128,-86,81,26,-107,95,59,-90,-113,-36,-100
-39,-134,-92,87,26,-113,89,59,-84,-113,-36,-100
-39,-128,-86,81,26,-107,89,65,-78,-113,-36,-106
-33,-122,-86,75,26,-107,83,65,-78,-107,-30,-100
-39,-110,-68,75,21,-89,77,77,-66,-107,-30,-94
-39,-110,-68,75,21,-89,77,77,-66,-101,-24,-94
-27,-104,-74,63,26,-89,77,77,-66,-101,-30,-100
-21,-98,-74,57,26,-89,77,83,-60,-101,-24,-100
-15,-92,-74,51,26,-83,77,83,-60,-95,-24,-94
-9,-92,-80,51,26,-89,77,83,-60,-95,-24,-94
-15,-98,-80,57,26,-89,71,83,-54,-89,-24,-94
-15,-98,-80,57,26,-89,65,89,-48,-83,-24,-88
-21,-104,-80,63,26,-95,65,95,-36,-77,-24,-88
-15,-104,-86,57,26,-95,65,95,-36,-71,-24,-82
-15,-98,-80,57,26,-89,65,106,-24,-71,-12,-76
-15,-92,-74,51,26,-83,65,106,-18,-65,-6,-76
-9,-92,-80,51,26,-89,65,106,-18,-71,-6,-76
-3,-92,-86,45,32,-89,65,106,-12,-71,-6,-70
-3,-92,-86,45,32,-89,65,118,-6,-53,0,-64
-3,-92,-86,45,32,-89,65,130,0,-47,11,-58
3,-92,-92,45,38,-95,60,136,6,-41,11,-52
3,-92,-92,45,38,-95,60,136,12,-35,11,-40
15,-92,-104,39,50,-101,54,142,18,-35,17,-40
15,-80,-92,33,44,-89,48,142,18,-35,17,-34
27,-80,-104,27,56,-95,54,154,30,-23,23,-34
15,-80,-92,33,44,-89,48,160,36,-17,35,-28
21,-86,-104,33,56,-95,48,166,48,-17,35,-22
27,-80,-104,27,56,-95,42,172,54,-11,41,-22
33,-86,-116,27,68,-101,42,166,66,-11,41,-16
38,-80,-116,21,68,-101,36,172,72,-5,47,-10
38,-74,-116,15,74,-95,24,184,72,-5,47,-10
38,-62,-104,9,68,-83,18,190,84,1,47,-4
38,-44,-92,-3,62,-65,12,202,84,1,47,-10
44,-38,-92,-9,68,-65,6,208,89,7,53,-4
44,-26,-80,-15,62,-53,0,208,89,18,65,2
50,-26,-86,-21,68,-53,-6,214,95,18,71,14
50,-14,-74,-27,62,-41,-12,214,101,18,83,20
56,-14,-80,-27,68,-47,-18,226,107,18,89,20
56,-20,-86,-27,68,-53,-24,226,113,24,95,32
62,-20,-92,-27,74,-53,-30,232,119,30,95,32
74,-20,-104,-33,86,-59,-36,232,125,36,101,44
74,-26,-110,-33,92,-65,-42,232,125,36,107,49
68,-14,-92,-33,80,-53,-42,238,125,30,107,44
68,-14,-92,-33,80,-53,-48,244,125,36,113,44
68,4,-74,-33,68,-35,-42,250,131,36,119,49
62,4,-68,-33,62,-29,-48,256,131,36,125,49
74,10,-74,-33,74,-29,-54,250,125,42,119,49
80,10,-80,-38,80,-35,-66,244,125,36,119,49
92,10,-92,-44,92,-41,-78,238,119,42,113,49
98,10,-98,-44,98,-41,-90,232,119,48,113,49
92,4,-98,-38,92,-47,-84,226,125,48,119,49
86,4,-92,-38,86,-41,-90,220,113,42,119,49
80,4,-86,-33,80,-41,-90,226,107,42,119,49
80,4,-86,-33,80,-41,-90,220,101,42,119,49
86,10,-86,-38,86,-35,-96,214,101,42,113,49
86,10,-86,-38,86,-35,-102,208,95,42,113,49
92,10,-92,-44,92,-41,-108,202,89,30,113,49
86,16,-80,-44,80,-29,-108,196,89,24,113,49
80,10,-80,-38,80,-35,-102,202,95,30,119,49
86,10,-86,-38,86,-35,-108,196,89,36,125,49
80,4,-86,-33,80,-41,-102,202,89,42,125,49
80,4,-86,-33,80,-41,-102,202,89,48,125,49
74,10,-74,-33,74,-29,-90,202,95,48,125,49
68,10,-68,-33,68,-29,-90,202,95,48,125,49
62,16,-56,-33,56,-17,-84,202,95,48,125,49
56,16,-50,-33,50,-17,-84,202,101,48,119,49
62,10,-62,-33,62,-23,-96,190,89,36,113,49
68,10,-68,-33,68,-29,-96,190,89,36,107,49
80,4,-86,-33,80,-41,-90,178,84,24,107,44
86,4,-92,-38,86,-41,-84,178,72,24,107,44
80,4,-86,-33,80,-41,-78,184,78,30,107,49
68,-8,-86,-33,74,-47,-72,184,78,24,107,38
62,-8,-80,-33,68,-41,-66,178,84,30,113,38
50,-8,-68,-27,56,-35,-60,172,84,18,113,32
38,-14,-62,-21,50,-35,-54,166,78,18,95,26
38,-14,-56,-15,44,-35,-48,160,78,18,89,26
33,-14,-44,-9,32,-29,-42,160,72,13,77,14
27,-14,-38,-9,26,-29,-36,154,66,13,71,14
27,-26,-50,-3,32,-41,-24,148,60,7,65,8
33,-32,-62,-3,38,-47,-18,142,54,-5,65,-4
27,-38,-62,3,38,-53,-6,130,42,-11,59,-10
33,-44,-74,3,44,-59,6,124,36,-17,53,-16
21,-50,-68,15,38,-59,18,118,30,-23,35,-28
15,-50,-62,15,32,-59,24,112,24,-23,29,-40
15,-50,-62,15,32,-59,36,106,12,-29,11,-46
9,-62,-68,27,32,-65,48,106,0,-35,11,-46
9,-62,-68,27,32,-65,48,106,0,-41,11,-58
-3,-62,-56,33,26,-59,54,101,0,-47,11,-58
-9,-68,-56,39,26,-65,65,95,6,-53,11,-70
-9,-68,-56,39,26,-65,65,89,6,-59,6,-76
-15,-68,-50,39,21,-59,71,83,0,-59,6,-76
-21,-80,-56,51,21,-71,77,83,-6,-59,6,-82
-27,-80,-50,51,15,-65,83,77,-12,-59,6,-82
-39,-80,-38,57,3,-59,95,71,-18,-65,0,-82
-39,-80,-38,57,3,-59,89,65,-18,-71,-12,-88
-39,-80,-38,57,3,-59,89,59,-24,-77,-18,-94
-39,-74,-32,57,3,-53,83,59,-30,-83,-24,-100
-51,-80,-26,63,-9,-53,83,59,-30,-89,-24,-106
-57,-86,-26,69,-9,-59,95,59,-24,-83,-18,-100
-57,-86,-26,69,-9,-59,101,59,-30,-83,-18,-100
-51,-92,-38,69,-3,-65,113,53,-24,-77,-12,-100
-51,-92,-38,69,-3,-65,113,53,-24,-83,-12,-100
-51,-92,-38,69,-3,-65,107,59,-24,-83,-12,-100
-51,-92,-38,69,-3,-65,107,59,-24,-89,-12,-106
-51,-92,-38,69,-3,-65,101,59,-24,-89,-18,-112
-57,-92,-32,75,-9,-65,101,59,-24,-89,-24,-112
-51,-86,-32,69,-3,-59,101,53,-30,-89,-30,-118
-51,-86,-32,69,-3,-59,101,59,-30,-89,-30,-118
-45,-86,-38,63,3,-65,101,53,-36,-89,-36,-124
-45,-86,-38,63,3,-65,101,47,-36,-89,-36,-124
-45,-80,-32,63,-3,-59,101,47,-36,-83,-30,-112
-45,-80,-32,63,-3,-59,107,53,-30,-77,-24,-112
-45,-80,-32,63,-3,-59,107,53,-30,-71,-12,-106
-45,-80,-32,63,-3,-59,101,53,-36,-71,-12,-106
-51,-86,-32,69,-3,-59,101,53,-30,-71,-12,-106
-57,-86,-26,69,-9,-59,101,53,-30,-71,-12,-100
-63,-86,-20,75,-15,-53,101,53,-24,-71,-12,-100
-63,-86,-20,75,-15,-53,101,53,-18,-71,-12,-100
-63,-98,-32,81,-9,-65,113,59,-24,-71,-18,-100
-63,-86,-20,75,-15,-53,119,59,-18,-71,-18,-100
-63,-86,-20,75,-15,-53,125,65,-24,-65,-12,-106
-57,-92,-32,75,-9,-65,125,65,-24,-65,-12,-106
-57,-86,-26,69,-9,-59,113,65,-24,-71,-12,-106
-57,-86,-26,69,-9,-59,113,65,-24,-71,-12,-106
-57,-80,-20,69,-15,-53,107,59,-24,-71,-12,-112
-63,-80,-15,69,-21,-47,107,59,-30,-71,-12,-112
-63,-86,-20,75,-15,-53,107,59,-36,-71,-12,-106
-57,-86,-26,69,-9,-59,107,59,-36,-71,-12,-112
-57,-92,-32,75,-9,-65,107,59,-30,-71,-18,-106
-57,-92,-32,75,-9,-65,107,59,-30,-71,-24,-100
-57,-92,-32,75,-9,-65,107,59,-30,-71,-24,-106
-57,-92,-32,75,-9,-65,107,59,-30,-71,-24,-106
-57,-92,-32,75,-9,-65,107,59,-36,-71,-24,-112
-63,-92,-26,75,-15,-59,107,59,-48,-71,-18,-112
-63,-92,-26,75,-15,-59,107,59,-42,-65,-18,-118
-63,-92,-26,75,-15,-59,107,59,-36,-65,-18,-118
-57,-92,-32,75,-9,-65,107,53,-30,-65,-18,-124
-57,-92,-32,75,-9,-65,107,53,-24,-65,-30,-124
-57,-80,-20,69,-15,-53,107,53,-30,-65,-30,-124
-63,-80,-15,69,-21,-47,107,53,-30,-59,-30,-124
-63,-80,-15,69,-21,-47,101,53,-42,-59,-30,-118
-57,-80,-20,69,-15,-53,101,53,-48,-65,-30,-118
-51,-80,-26,63,-9,-53,101,53,-42,-65,-30,-112
-51,-74,-20,63,-9,-47,101,53,-42,-65,-30,-112
-45,-74,-26,57,-3,-53,101,47,-36,-65,-30,-112
-51,-80,-26,63,-9,-53,101,47,-42,-65,-36,-112
-57,-86,-26,69,-9,-59,107,53,-42,-65,-36,-118
-63,-86,-20,75,-15,-53,107,53,-42,-65,-36,-118
-63,-92,-26,75,-15,-59,113,53,-42,-65,-36,-124
-69,-92,-20,81,-21,-59,113,53,-36,-65,-36,-124
-63,-86,-20,75,-15,-53,107,47,-42,-71,-42,-124
-63,-86,-20,75,-15,-53,107,41,-48,-77,-42,-124
-57,-86,-26,69,-9,-59,101,29,-54,-83,-42,-124
-51,-86,-32,69,-3,-59,101,29,-54,-89,-48,-124
-51,-98,-44,75,3,-71,89,17,-66,-77,-54,-142
-75,-110,-32,93,-15,-71,101,29,-54,-77,-60,-130
-51,-86,-32,69,-3,-59,113,29,-48,-65,-54,-118
-51,-98,-44,75,3,-71,113,29,-48,-77,-48,-118
-75,-98,-20,87,-21,-59,107,29,-48,-83,-54,-124
-69,-98,-26,81,-15,-65,101,23,-54,-89,-54,-130
-69,-98,-26,81,-15,-65,95,23,-60,-89,-54,-130
-63,-98,-32,81,-9,-65,89,17,-66,-95,-54,-136
-63,-98,-32,81,-9,-65,83,17,-72,-95,-54,-136
-57,-92,-32,75,-9,-65,83,17,-72,-95,-60,-136
-57,-92,-32,75,-9,-65,83,11,-78,-95,-60,-136
-51,-98,-44,75,3,-71,89,11,-78,-95,-66,-136
-51,-98,-44,75,3,-71,89,11,-78,-95,-66,-136
-63,-104,-38,81,-9,-71,89,11,-72,-95,-66,-136
-63,-104,-38,81,-9,-71,89,11,-72,-95,-66,-142
-57,-110,-50,81,3,-83,89,5,-66,-89,-72,-142
-57,-110,-50,81,3,-83,89,5,-66,-89,-72,-142
-63,-104,-38,81,-9,-71,89,5,-72,-89,-72,-142
-63,-110,-44,87,-3,-77,89,5,-72,-89,-72,-142
-69,-104,-32,87,-15,-71,89,-1,-78,-89,-72,-142
-69,-104,-32,87,-15,-71,89,-1,-78,-89,-72,-142
-63,-110,-44,87,-3,-77,95,5,-72,-89,-72,-142
-63,-116,-50,87,-3,-83,95,5,-72,-89,-72,-142
-75,-122,-44,99,-9,-83,101,11,-66,-89,-72,-142
-75,-128,-50,99,-9,-89,101,11,-66,-89,-72,-142
-69,-122,-50,93,-3,-89,95,5,-72,-89,-78,-148
-69,-122,-50,93,-3,-89,89,5,-72,-89,-78,-148
-69,-110,-38,87,-9,-77,83,-1,-78,-89,-84,-148
-63,-110,-44,87,-3,-77,77,-1,-78,-89,-84,-142
-63,-92,-26,75,-15,-59,89,11,-72,-77,-78,-142
-63,-86,-20,75,-15,-53,101,17,-60,-71,-66,-136
-63,-74,-15,69,-21,-41,113,23,-54,-65,-54,-130
-63,-62,-9,63,-27,-29,119,29,-48,-59,-54,-124
-63,-62,-9,63,-27,-29,125,35,-48,-59,-54,-124
-63,-56,-3,57,-33,-23,131,35,-48,-59,-54,-124
-57,-62,-15,57,-21,-35,131,35,-54,-59,-60,-124
-51,-62,-15,57,-15,-35,131,35,-54,-59,-60,-124
-57,-62,-15,57,-21,-35,137,35,-48,-59,-54,-124
-57,-62,-15,57,-21,-35,137,41,-48,-59,-54,-124
-57,-62,-15,57,-21,-35,137,41,-42,-53,-48,-124
-57,-56,-9,57,-27,-29,137,35,-42,-53,-48,-124
-51,-44,-3,45,-27,-17,131,35,-48,-53,-54,-118
-51,-44,-3,45,-27,-17,131,35,-48,-53,-54,-118
-45,-38,-3,39,-21,-17,119,35,-60,-53,-60,-118
-45,-38,-3,39,-21,-17,119,35,-60,-53,-60,-118
-51,-26,15,39,-33,1,113,35,-54,-47,-54,-112
-51,-8,33,27,-45,6,119,41,-48,-35,-48,-106
-57,4,51,27,-57,18,125,41,-48,-17,-36,-94
-51,10,51,21,-51,24,119,41,-48,-17,-36,-94
-45,10,45,15,-45,18,107,23,-54,-29,-36,-94
-33,4,27,15,-33,6,101,17,-66,-35,-42,-100
-27,4,21,9,-27,6,89,11,-66,-47,-42,-100
-9,10,9,-3,-9,6,83,11,-66,-47,-42,-100
-15,22,27,-3,-21,18,77,11,-66,-41,-42,-100
-9,22,21,-9,-15,12,71,11,-66,-41,-42,-100
3,27,15,-15,-9,12,65,17,-66,-41,-36,-94
9,27,9,-21,-3,12,65,17,-66,-41,-36,-94
9,10,-9,-9,9,6,65,17,-66,-53,-42,-94
9,-2,-15,-3,15,-5,65,17,-66,-41,-48,-94
3,-14,-15,3,15,-17,65,23,-60,-41,-54,-94
-3,-26,-20,15,15,-23,65,29,-54,-41,-54,-94
-3,-26,-20,15,15,-23,65,29,-48,-41,-54,-100
-3,-26,-20,15,15,-23,65,29,-48,-41,-54,-106
-9,-44,-32,27,15,-41,65,29,-42,-53,-66,-112
-27,-56,-26,39,3,-41,71,23,-54,-59,-72,-118
-39,-62,-20,51,-3,-41,77,17,-60,-59,-72,-118
-45,-74,-26,57,-3,-53,77,11,-72,-65,-78,-124
-51,-74,-20,63,-9,-47,77,5,-78,-65,-78,-130
-57,-86,-26,69,-9,-59,77,-1,-90,-71,-90,-136
-57,-92,-32,75,-9,-65,77,-7,-96,-77,-96,-148
-63,-98,-32,81,-9,-65,77,-13,-96,-83,-102,-154
-63,-116,-50,87,-3,-83,77,-13,-102,-89,-114,-160
-63,-116,-50,87,-3,-83,77,-19,-102,-89,-120,-166
-69,-122,-50,93,-3,-89,71,-25,-108,-101,-120,-172
-69,-128,-56,99,-3,-95,71,-25,-114,-107,-120,-172
-69,-128,-56,99,-3,-95,65,-31,-120,-113,-126,-172
-69,-134,-62,99,3,-101,65,-31,-120,-113,-126,-172
-69,-134,-62,99,3,-101,65,-37,-120,-107,-126,-166
-69,-134,-62,99,3,-101,65,-37,-120,-107,-126,-166
-69,-134,-62,99,3,-101,65,-43,-120,-101,-132,-160
-69,-140,-68,105,3,-107,65,-49,-120,-107,-132,-166
-75,-140,-62,105,-3,-101,65,-43,-120,-107,-132,-166
-75,-134,-56,105,-3,-95,65,-43,-120,-101,-132,-166
-81,-134,-50,105,-9,-95,65,-37,-120,-101,-132,-166
-87,-140,-50,111,-15,-95,65,-31,-120,-101,-132,-166
-81,-140,-56,111,-9,-101,65,-37,-120,-107,-132,-172
-75,-140,-62,105,-3,-101,65,-37,-120,-107,-132,-172
-69,-140,-68,105,3,-107,65,-43,-120,-113,-132,-178
-63,-140,-74,99,9,-107,65,-37,-114,-113,-132,-178
-51,-116,-62,81,9,-89,65,-37,-114,-89,-120,-166
-63,-128,-62,93,3,-95,71,-25,-114,-95,-132,-166
-99,-146,-44,123,-21,-95,65,-25,-102,-95,-144,-178
-87,-152,-62,117,-9,-107,71,-13,-102,-95,-144,-178
-93,-158,-62,123,-9,-113,101,29,-78,-95,-138,-172
-111,-176,-62,141,-21,-119,149,53,-48,-101,-162,-196
-87,-188,-98,135,9,-143,197,101,-24,-107,-180,-226
-87,-212,-122,147,21,-167,299,178,48,-107,-204,-238
-111,-218,-110,165,3,-167,377,286,137,-77,-192,-250
-87,-176,-86,129,3,-131,419,394,245,-11,-156,-220
-39,-122,-80,81,26,-101,443,508,359,54,-96,-166
-21,-80,-56,51,21,-71,455,634,491,162,-18,-94
21,27,-3,-27,9,6,419,754,629,294,77,-4
80,165,75,-122,9,120,347,814,731,438,215,115
134,291,153,-212,-3,228,245,814,791,576,365,253
176,429,243,-296,-27,336,119,766,809,720,515,391
278,615,333,-446,-21,480,0,724,797,876,683,571
356,777,417,-566,-21,600,-114,700,809,1026,857,745
410,921,501,-662,-39,714,-228,658,821,1182,1037,913
500,1035,531,-764,-9,786,-366,658,851,1338,1205,1081
608,1143,525,-872,38,834,-480,724,929,1464,1325,1207
626,1215,579,-920,26,900,-600,826,1049,1590,1433,1309
614,1293,675,-956,-21,984,-744,862,1133,1704,1517,1399
608,1389,771,-998,-75,1080,-894,820,1103,1752,1571,1453
578,1377,789,-980,-99,1086,-966,766,1055,1746,1535,1429
512,1227,711,-866,-93,972,-930,742,989,1626,1397,1273
422,1011,585,-716,-75,798,-894,526,695,1302,1127,1045
278,789,501,-530,-105,648,-846,35,101,780,767,751
128,591,459,-356,-159,522,-804,-427,-468,240,413,469
27,459,435,-236,-207,444,-774,-721,-810,-107,143,235
-57,381,441,-158,-243,408,-726,-871,-954,-287,-12,67
-153,267,417,-50,-279,336,-648,-889,-960,-371,-120,-40
-177,141,315,9,-243,228,-582,-775,-870,-389,-192,-124
-153,63,219,39,-183,138,-528,-661,-768,-383,-234,-178
-177,10,177,81,-177,84,-450,-571,-678,-371,-258,-214
-177,-38,129,105,-153,36,-402,-523,-618,-359,-264,-232
-141,-26,105,81,-123,30,-354,-469,-570,-335,-264,-232
-135,-44,81,87,-111,12,-288,-397,-516,-323,-240,-220
-153,-80,63,117,-111,-5,-234,-331,-432,-299,-246,-232
-117,-80,27,99,-75,-23,-192,-241,-348,-275,-234,-214
-81,-86,-15,81,-33,-47,-144,-163,-264,-233,-228,-202
-105,-134,-26,117,-33,-83,-90,-91,-198,-203,-216,-202
-105,-170,-62,135,-15,-119,-60,-61,-156,-197,-228,-214
-63,-170,-104,117,26,-137,-36,-49,-150,-185,-210,-196
-57,-158,-98,105,26,-131,-12,-19,-120,-155,-192,-190
-75,-158,-80,117,9,-119,0,-7,-90,-137,-168,-178
-39,-128,-86,81,26,-107,0,-1,-96,-125,-162,-172
-21,-116,-92,69,26,-107,12,-1,-84,-125,-162,-166
-45,-134,-86,87,26,-113,12,-1,-84,-119,-162,-166
-45,-128,-80,87,21,-107,30,11,-66,-113,-162,-166
-45,-128,-80,87,21,-107,36,11,-60,-113,-168,-166
-51,-134,-80,93,21,-107,42,17,-54,-107,-168,-166
-57,-152,-92,105,21,-125,42,17,-48,-107,-180,-172
-51,-152,-98,99,26,-125,42,11,-54,-107,-180,-172
-51,-152,-98,99,26,-125,42,-1,-66,-107,-174,-172
-39,-152,-110,93,26,-131,42,-1,-72,-107,-168,-166
-33,-140,-104,87,26,-125,42,-1,-72,-95,-156,-154
-21,-122,-98,69,32,-113,36,-1,-72,-95,-156,-154
-21,-116,-92,69,26,-107,36,5,-66,-95,-156,-154
-15,-110,-92,63,32,-101,30,-1,-66,-95,-156,-154
-15,-104,-86,57,26,-95,30,5,-60,-89,-150,-154
-27,-122,-92,75,26,-107,42,5,-60,-89,-150,-154
-27,-122,-92,75,26,-107,42,5,-60,-89,-150,-154
-33,-134,-98,81,26,-119,48,5,-60,-89,-156,-160
-33,-134,-98,81,26,-119,42,5,-60,-89,-156,-160
-27,-128,-98,75,26,-113,36,-1,-66,-83,-150,-154
-21,-116,-92,69,26,-107,36,-1,-66,-83,-138,-142
-15,-110,-92,63,32,-101,30,-1,-72,-77,-138,-142
-15,-110,-92,63,32,-101,30,-1,-72,-77,-138,-142
-21,-104,-80,63,26,-95,30,5,-66,-71,-144,-136
-21,-104,-80,63,26,-95,36,5,-60,-71,-144,-136
-27,-116,-86,69,26,-101,36,5,-54,-71,-150,-136
-33,-122,-86,75,26,-107,36,5,-54,-71,-150,-136
-27,-128,-98,75,26,-113,36,-1,-54,-65,-150,-136
-27,-122,-92,75,26,-107,36,-1,-54,-65,-150,-136
-21,-128,-104,75,32,-119,36,-7,-54,-53,-150,-130
-15,-122,-104,69,38,-113,36,-7,-54,-53,-150,-130
-15,-116,-98,63,32,-107,36,-7,-54,-53,-144,-124
-9,-116,-104,63,38,-113,30,-1,-54,-47,-138,-118
-9,-104,-92,57,32,-101,30,-1,-48,-47,-126,-118
-9,-104,-92,57,32,-101,36,-1,-42,-41,-126,-124
-21,-104,-80,63,26,-95,30,5,-48,-47,-138,-124
-21,-104,-80,63,26,-95,30,5,-48,-47,-138,-124
-15,-104,-86,57,26,-95,24,11,-54,-53,-144,-124
-15,-110,-92,63,32,-101,18,11,-48,-53,-144,-124
-9,-110,-98,57,38,-107,24,11,-48,-47,-138,-124
-3,-104,-98,51,38,-101,18,11,-48,-41,-132,-118
-3,-98,-92,51,38,-95,18,17,-42,-35,-126,-106
-3,-98,-92,51,38,-95,18,17,-42,-29,-120,-106
3,-98,-98,45,44,-101,18,29,-36,-29,-120,-112
3,-92,-92,45,38,-95,18,35,-30,-29,-114,-112
3,-92,-92,45,38,-95,18,47,-24,-23,-108,-106
3,-92,-92,45,38,-95,18,47,-24,-23,-108,-106
3,-92,-92,45,38,-95,18,41,-24,-23,-114,-106
3,-92,-92,45,38,-95,12,47,-18,-17,-114,-100
3,-92,-92,45,38,-95,12,47,-12,-17,-120,-100
9,-92,-98,39,44,-95,12,47,-12,-11,-120,-94
15,-80,-92,33,44,-89,18,59,0,1,-102,-82
15,-74,-86,27,44,-83,18,59,6,7,-96,-82
27,-68,-92,21,50,-83,18,65,6,13,-90,-76
33,-68,-98,15,56,-83,18,71,12,13,-90,-70
27,-68,-92,21,50,-83,12,77,18,18,-96,-76
27,-68,-92,21,50,-83,12,89,24,18,-78,-70
27,-68,-92,21,50,-83,0,89,30,18,-84,-76
27,-68,-92,21,50,-83,0,89,36,18,-84,-64
38,-62,-104,9,68,-83,-6,89,42,18,-72,-52
38,-50,-92,3,62,-71,-12,89,42,18,-72,-46
50,-44,-104,-9,74,-71,-6,95,54,24,-60,-34
38,-44,-92,-3,62,-65,-12,101,60,30,-48,-28
38,-44,-92,-3,62,-65,-12,106,66,36,-48,-28
44,-38,-92,-9,68,-65,-18,112,72,42,-42,-28
44,-38,-92,-9,68,-65,-18,118,78,48,-42,-28
50,-32,-92,-15,68,-59,-24,124,84,54,-36,-22
50,-38,-98,-15,74,-65,-30,124,84,60,-36,-16
50,-32,-92,-15,68,-59,-36,130,89,66,-36,-10
50,-26,-86,-21,68,-53,-36,130,89,72,-36,-10
56,-26,-92,-21,74,-59,-42,136,89,78,-30,-4
62,-26,-98,-27,80,-59,-54,142,95,78,-24,2
68,-26,-104,-27,86,-65,-60,148,107,84,-18,14
74,-26,-110,-33,92,-65,-72,154,113,78,-12,20
80,-26,-116,-33,98,-71,-78,166,119,78,-6,20
74,-20,-104,-33,86,-59,-84,166,119,84,0,26
80,-14,-104,-33,92,-59,-90,172,125,90,0,26
86,-2,-98,-33,92,-47,-96,172,125,96,6,32
86,-2,-98,-33,92,-47,-102,172,125,96,11,38
86,4,-92,-38,86,-41,-102,172,125,96,11,38
92,4,-98,-38,92,-47,-108,172,125,102,11,38
98,16,-92,-50,92,-35,-102,172,131,108,11,49
98,16,-92,-50,92,-35,-108,172,131,108,17,49
98,16,-92,-50,92,-35,-102,178,125,108,17,49
98,16,-92,-50,92,-35,-108,178,125,102,17,49
98,10,-98,-44,98,-41,-108,184,119,102,17,55
98,10,-98,-44,98,-41,-114,184,119,108,17,55
98,16,-92,-50,92,-35,-114,166,119,114,17,49
98,16,-92,-50,92,-35,-120,160,107,108,17,49
98,27,-80,-56,86,-23,-126,154,95,114,11,49
104,27,-86,-56,92,-29,-126,148,89,114,11,49
104,27,-86,-56,92,-29,-126,148,89,114,11,55
104,22,-92,-56,98,-35,-132,142,89,114,11,55
104,16,-98,-50,98,-41,-132,142,89,102,17,61
98,16,-92,-50,92,-35,-132,136,89,96,17,61
92,22,-80,-50,86,-29,-132,136,89,102,17,61
98,22,-86,-50,92,-29,-138,130,84,102,23,61
92,27,-74,-50,80,-23,-138,130,78,108,17,61
92,27,-74,-50,80,-23,-138,130,78,108,17,61
98,27,-80,-56,86,-23,-138,118,72,102,17,55
98,27,-80,-56,86,-23,-138,118,66,96,17,49
104,27,-86,-56,92,-29,-144,106,54,90,17,49
104,27,-86,-56,92,-29,-144,106,54,84,11,49
92,27,-74,-50,80,-23,-144,106,54,84,11,49
92,27,-74,-50,80,-23,-144,106,48,84,11,49
86,27,-68,-50,74,-17,-126,106,54,84,11,49
86,27,-68,-50,74,-17,-120,106,48,84,11,49
86,27,-68,-50,74,-17,-114,106,48,84,11,49
80,16,-74,-38,74,-29,-108,106,42,78,11,44
80,16,-74,-38,74,-29,-102,95,42,78,11,38
74,16,-68,-38,68,-23,-96,89,36,66,11,32
74,4,-80,-33,74,-35,-90,83,24,60,6,32
68,4,-74,-33,68,-35,-84,77,24,60,0,32
68,-2,-80,-33,74,-41,-78,77,12,48,-6,26
62,-2,-74,-33,68,-35,-72,71,6,48,-12,26
50,-8,-68,-27,56,-35,-54,71,0,48,-24,20
50,-14,-74,-27,62,-41,-48,65,-6,36,-24,8
38,-14,-56,-15,44,-35,-30,59,-18,36,-36,2
38,-20,-62,-15,44,-41,-18,53,-24,30,-42,-4
38,-26,-62,-9,44,-47,-6,47,-24,18,-48,-10
33,-26,-56,-3,38,-41,0,41,-30,18,-54,-22
38,-26,-62,-9,44,-47,12,35,-36,18,-60,-22
33,-38,-68,3,44,-53,24,29,-48,13,-66,-22
33,-32,-62,-3,38,-47,24,23,-54,13,-66,-28
21,-32,-50,3,26,-41,30,17,-54,7,-72,-28
15,-32,-44,9,26,-41,42,11,-54,7,-72,-34
15,-32,-44,9,26,-41,48,5,-54,1,-78,-40
15,-38,-50,9,26,-47,48,-1,-66,-5,-84,-46
9,-50,-56,21,26,-53,54,-1,-72,-5,-84,-52
9,-56,-62,21,26,-59,48,-7,-84,-11,-90,-58
-3,-56,-50,27,26,-53,60,-13,-90,-17,-96,-58
3,-56,-56,27,26,-59,65,-19,-90,-23,-96,-64
3,-56,-56,27,26,-59,65,-25,-96,-23,-102,-64
9,-50,-56,21,26,-53,65,-25,-102,-29,-96,-70
-3,-56,-50,27,26,-53,65,-25,-102,-29,-96,-70
-15,-56,-38,33,15,-47,65,-19,-96,-29,-96,-70
-15,-56,-38,33,15,-47,71,-19,-102,-29,-96,-70
-15,-56,-38,33,15,-47,77,-19,-96,-29,-96,-76
-15,-56,-38,33,15,-47,77,-19,-96,-35,-96,-76
-15,-62,-44,39,21,-53,77,-25,-102,-35,-102,-70
-15,-62,-44,39,21,-53,77,-25,-102,-41,-102,-76
-15,-68,-50,39,21,-59,77,-37,-108,-41,-114,-76
-21,-68,-44,45,15,-59,77,-37,-108,-41,-120,-76
-21,-68,-44,45,15,-59,77,-37,-108,-35,-114,-76
-21,-68,-44,45,15,-59,77,-31,-108,-35,-114,-76
-21,-74,-50,45,21,-65,77,-31,-108,-29,-108,-76
-21,-74,-50,45,21,-65,77,-37,-108,-29,-108,-76
-15,-62,-44,39,21,-53,77,-37,-108,-29,-114,-64
-15,-62,-44,39,21,-53,83,-31,-102,-23,-108,-64
-9,-56,-44,33,21,-53,83,-31,-102,-23,-108,-58
-9,-56,-44,33,21,-53,77,-31,-108,-23,-108,-58
-9,-56,-44,33,21,-53,77,-31,-108,-29,-108,-64
-15,-56,-38,33,15,-47,77,-31,-108,-29,-108,-58
-15,-50,-32,33,15,-41,77,-31,-108,-35,-108,-64
-15,-50,-32,33,15,-41,77,-31,-102,-35,-108,-64
-15,-62,-44,39,21,-53,83,-25,-108,-29,-114,-64
-15,-50,-32,33,15,-41,89,-25,-102,-29,-114,-64
-15,-50,-32,33,15,-41,89,-19,-108,-17,-108,-70
-9,-56,-44,33,21,-53,89,-19,-108,-17,-108,-70
-3,-50,-44,27,26,-47,89,-19,-108,-23,-102,-64
-3,-50,-44,27,26,-47,89,-19,-108,-23,-102,-64
3,-44,-44,21,26,-47,95,-25,-108,-23,-96,-64
-3,-44,-38,21,21,-41,95,-25,-114,-23,-96,-64
-9,-44,-32,27,15,-41,95,-25,-120,-29,-96,-64
-3,-44,-38,21,21,-41,95,-25,-120,-29,-96,-70
-9,-44,-32,27,15,-41,95,-25,-114,-35,-102,-70
-9,-44,-32,27,15,-41,95,-25,-114,-35,-108,-64
-9,-38,-26,21,15,-35,89,-19,-108,-35,-108,-64
-9,-38,-26,21,15,-35,89,-19,-108,-35,-108,-64
-9,-32,-20,21,9,-29,83,-13,-108,-35,-108,-64
-15,-32,-15,21,3,-23,83,-13,-120,-35,-102,-64
-9,-32,-20,21,9,-29,83,-19,-120,-35,-102,-64
-9,-32,-20,21,9,-29,83,-19,-120,-35,-102,-64
3,-32,-32,15,21,-35,83,-31,-120,-41,-102,-64
3,-32,-32,15,21,-35,83,-31,-120,-41,-114,-64
-3,-32,-26,15,15,-29,89,-25,-120,-41,-114,-70
-15,-38,-20,27,9,-29,89,-25,-120,-35,-114,-70
-21,-50,-26,33,9,-41,89,-19,-126,-35,-114,-70
-21,-56,-32,39,9,-47,89,-19,-132,-41,-114,-70
-15,-56,-38,33,15,-47,89,-19,-126,-41,-114,-64
-9,-50,-38,27,21,-47,89,-19,-126,-41,-114,-64
-3,-50,-44,27,26,-47,89,-25,-120,-41,-114,-64
-3,-56,-50,27,26,-53,89,-25,-126,-41,-120,-64
-9,-56,-44,33,21,-53,89,-25,-132,-41,-114,-64
-9,-56,-44,33,21,-53,89,-25,-132,-41,-114,-64
-9,-56,-44,33,21,-53,89,-31,-138,-41,-108,-64
-9,-56,-44,33,21,-53,89,-31,-132,-41,-108,-64
-9,-50,-38,27,21,-47,89,-31,-138,-47,-114,-70
-15,-50,-32,33,15,-41,89,-37,-144,-53,-114,-70
-15,-50,-32,33,15,-41,89,-43,-150,-59,-114,-76
-15,-50,-32,33,15,-41,89,-43,-150,-65,-120,-76
3,-50,-50,21,26,-53,83,-43,-150,-59,-120,-82
-9,-50,-38,27,21,-47,83,-43,-150,-59,-126,-82
-3,-50,-44,27,26,-47,77,-43,-150,-53,-126,-82
-3,-50,-44,27,26,-47,77,-43,-150,-53,-132,-82
-15,-62,-44,39,21,-53,89,-43,-150,-53,-120,-76
-27,-56,-26,39,3,-41,89,-43,-156,-59,-132,-76
-3,-44,-38,21,21,-41,89,-49,-156,-53,-132,-64
-3,-44,-38,21,21,-41,89,-55,-156,-53,-132,-76
-15,-50,-32,33,15,-41,95,-55,-162,-59,-138,-76
-9,-50,-38,27,21,-47,89,-55,-162,-65,-138,-82
-9,-50,-38,27,21,-47,89,-55,-162,-65,-138,-82
-3,-50,-44,27,26,-47,83,-55,-162,-71,-138,-88
-3,-50,-44,27,26,-47,83,-55,-162,-71,-138,-88
3,-44,-44,21,26,-47,77,-61,-162,-71,-138,-88
3,-44,-44,21,26,-47,77,-67,-168,-71,-138,-88
9,-50,-56,21,26,-53,77,-73,-168,-71,-138,-88
9,-50,-56,21,26,-53,77,-73,-168,-71,-138,-88
-3,-50,-44,27,26,-47,83,-73,-174,-83,-138,-88
-3,-50,-44,27,26,-47,83,-73,-174,-83,-138,-94
3,-50,-50,21,26,-53,89,-79,-180,-89,-144,-94
3,-50,-50,21,26,-53,89,-79,-180,-89,-144,-94
9,-56,-62,21,26,-59,89,-79,-180,-89,-144,-94
9,-62,-68,27,32,-65,89,-79,-180,-89,-144,-94
15,-68,-80,27,38,-77,89,-85,-180,-89,-144,-94
15,-68,-80,27,38,-77,89,-85,-180,-89,-144,-94
15,-62,-74,21,38,-71,89,-85,-186,-89,-150,-100
15,-62,-74,21,38,-71,89,-85,-186,-89,-150,-100
-3,-56,-50,27,26,-53,89,-85,-192,-89,-156,-106
-3,-56,-50,27,26,-53,89,-85,-192,-89,-156,-106
9,-50,-56,21,26,-53,89,-85,-192,-89,-156,-106
9,-50,-56,21,26,-53,89,-85,-192,-89,-156,-106
15,-38,-50,9,26,-47,89,-85,-192,-89,-156,-100
21,-38,-56,9,32,-47,89,-85,-192,-89,-156,-94
15,-32,-44,9,26,-41,89,-73,-186,-77,-150,-94
15,-26,-38,3,26,-35,101,-67,-174,-71,-138,-88
9,-26,-32,9,26,-29,101,-61,-168,-65,-126,-82
9,-14,-20,3,21,-17,107,-55,-162,-59,-126,-76
3,-2,-15,-3,9,-5,119,-49,-156,-59,-126,-76
3,4,-9,-3,3,1,125,-49,-156,-59,-126,-76
3,10,-3,-9,3,6,131,-49,-156,-59,-132,-76
9,10,-9,-9,9,6,131,-49,-156,-59,-132,-76
15,4,-15,-9,15,-5,131,-49,-156,-59,-126,-70
15,4,-15,-9,15,-5,131,-43,-156,-59,-126,-70
27,-2,-26,-15,26,-17,125,-43,-156,-53,-120,-64
27,4,-20,-15,26,-11,125,-49,-156,-53,-120,-64
21,10,-15,-15,21,1,125,-43,-156,-53,-120,-64
21,10,-15,-15,21,1,125,-43,-156,-53,-120,-64
15,10,-15,-15,15,1,119,-37,-162,-53,-120,-70
15,10,-15,-15,15,1,119,-37,-162,-53,-120,-70
21,22,-9,-21,15,6,113,-43,-162,-59,-114,-64
21,27,9,-33,9,18,113,-37,-156,-47,-108,-58
27,39,15,-33,9,24,119,-43,-162,-41,-96,-46
33,45,15,-33,9,30,107,-43,-162,-41,-96,-46
33,45,15,-33,9,30,101,-55,-168,-41,-96,-40
38,39,3,-33,21,18,95,-61,-180,-47,-102,-46
38,39,3,-33,21,18,89,-61,-180,-47,-102,-40
38,45,-3,-38,26,24,83,-61,-180,-47,-102,-40
38,57,15,-44,15,36,77,-67,-180,-47,-102,-46
38,57,9,-44,21,36,71,-67,-180,-47,-102,-46
50,63,3,-56,26,36,65,-67,-180,-53,-96,-46
56,63,-3,-56,26,30,65,-67,-180,-53,-96,-46
68,51,-15,-56,44,12,60,-61,-180,-65,-96,-46
68,39,-26,-50,50,6,60,-61,-180,-53,-102,-46
74,33,-38,-50,56,6,60,-49,-174,-53,-102,-46
68,27,-44,-44,56,-5,65,-43,-168,-53,-102,-46
68,27,-44,-44,56,-5,65,-37,-162,-47,-102,-46
68,27,-44,-44,56,-5,65,-37,-162,-47,-102,-52
62,16,-56,-33,56,-17,65,-31,-156,-53,-114,-52
44,4,-50,-33,44,-23,71,-37,-168,-59,-120,-58
38,-8,-50,-21,38,-29,71,-49,-174,-71,-120,-70
38,-20,-56,-9,38,-41,71,-55,-186,-77,-126,-76
33,-26,-56,-3,38,-41,65,-67,-192,-89,-126,-94
27,-38,-62,3,38,-53,65,-73,-204,-95,-138,-100
21,-38,-56,9,32,-47,65,-73,-204,-95,-138,-100
15,-44,-56,15,26,-53,65,-79,-204,-101,-144,-100
9,-56,-62,21,26,-59,65,-73,-204,-101,-150,-94
9,-56,-62,21,26,-59,65,-79,-204,-101,-156,-94
3,-62,-62,27,26,-65,65,-91,-216,-113,-162,-106
3,-68,-68,33,26,-71,65,-91,-222,-119,-162,-112
3,-68,-68,33,26,-71,60,-103,-234,-125,-174,-118
3,-74,-74,33,32,-77,60,-103,-234,-125,-174,-124
-3,-80,-74,39,26,-77,65,-103,-234,-125,-168,-118
-3,-80,-74,39,26,-77,60,-103,-234,-125,-168,-118
-9,-86,-74,45,26,-83,65,-103,-234,-125,-168,-112
-9,-92,-80,51,26,-89,65,-109,-234,-131,-168,-118
-9,-86,-74,45,26,-83,65,-109,-234,-131,-174,-118
-9,-80,-68,45,26,-77,65,-109,-234,-125,-174,-118
-9,-74,-62,39,26,-71,65,-109,-234,-125,-180,-118
-15,-80,-62,45,26,-71,65,-103,-234,-125,-180,-118
-9,-80,-68,45,26,-77,65,-109,-240,-131,-180,-124
-9,-80,-68,45,26,-77,65,-109,-240,-131,-180,-124
-3,-80,-74,39,26,-77,65,-115,-246,-137,-180,-130
-3,-80,-74,39,26,-77,65,-109,-240,-137,-180,-130
-3,-92,-86,45,32,-89,65,-97,-240,-113,-156,-106
-15,-104,-86,57,26,-95,65,-97,-228,-119,-168,-106
-15,-86,-68,51,26,-77,65,-97,-228,-119,-180,-118
9,-68,-74,27,32,-71,65,-97,-228,-119,-180,-118
-9,-86,-74,45,26,-83,65,-79,-204,-119,-174,-124
-27,-104,-74,63,26,-89,77,-67,-198,-125,-198,-142
-3,-116,-110,57,44,-113,101,-55,-186,-131,-204,-148
-15,-140,-122,75,44,-131,167,-1,-150,-131,-204,-172
-51,-188,-134,117,32,-161,275,71,-102,-137,-228,-190
-39,-176,-134,105,38,-155,359,148,-18,-119,-228,-190
-27,-146,-116,87,38,-131,431,274,89,-53,-192,-166
-33,-116,-80,75,26,-101,467,400,209,18,-150,-130
21,-68,-86,21,44,-77,455,508,317,84,-90,-88
80,45,-32,-62,56,6,419,610,437,204,11,8
122,165,33,-140,38,102,359,682,545,330,119,109
152,285,129,-218,21,210,275,670,593,462,251,229
242,441,195,-338,26,318,143,592,581,606,389,373
308,591,273,-452,26,438,54,574,593,750,551,535
350,735,375,-536,-3,552,-42,568,623,900,725,691
428,897,465,-662,-9,684,-168,496,605,1032,899,859
524,1035,501,-776,21,768,-318,454,623,1194,1079,1039
578,1155,567,-866,15,864,-480,508,695,1332,1229,1195
638,1245,603,-944,26,930,-642,604,809,1470,1343,1303
704,1353,645,-1022,26,996,-822,688,917,1602,1445,1405
674,1461,777,-1064,-45,1122,-978,670,947,1692,1535,1477
638,1515,873,-1076,-111,1200,-1074,610,893,1728,1547,1513
620,1473,843,-1040,-105,1158,-1104,586,845,1680,1475,1435
548,1257,705,-902,-69,978,-1068,472,677,1476,1271,1255
374,999,621,-686,-117,810,-1026,106,215,1044,965,985
230,795,561,-512,-165,684,-972,-391,-390,498,611,691
134,627,483,-380,-171,558,-906,-733,-840,30,281,433
27,465,441,-242,-207,450,-834,-925,-1056,-251,47,223
-69,327,399,-122,-231,360,-756,-985,-1104,-389,-84,67
-69,243,309,-80,-189,270,-690,-895,-1026,-419,-168,-22
-81,141,225,-33,-153,180,-606,-781,-900,-419,-228,-88
-105,69,177,9,-141,120,-504,-685,-816,-407,-264,-154
-93,45,141,15,-117,90,-432,-613,-744,-395,-276,-178
-75,27,105,15,-87,66,-372,-541,-678,-359,-264,-178
-93,16,99,39,-99,48,-306,-457,-600,-347,-246,-166
-57,4,51,27,-57,18,-240,-373,-510,-323,-234,-160
-33,-26,-3,27,-15,-11,-186,-283,-438,-293,-228,-148
-33,-50,-15,39,-3,-35,-138,-217,-366,-269,-228,-148
-33,-62,-26,45,3,-47,-108,-175,-312,-239,-228,-160
-3,-74,-68,39,26,-71,-72,-139,-276,-221,-222,-154
-9,-98,-86,51,32,-95,-36,-91,-222,-191,-204,-142
-15,-98,-80,57,26,-89,-24,-67,-192,-173,-204,-130
21,-68,-86,21,44,-77,-12,-61,-186,-149,-186,-124
38,-56,-92,9,56,-77,12,-49,-186,-137,-174,-130
15,-74,-86,27,44,-83,36,-37,-186,-143,-162,-118
21,-68,-86,21,44,-77,42,-37,-174,-143,-162,-118
21,-68,-86,21,44,-77,42,-37,-174,-143,-168,-118
21,-74,-92,27,50,-83,36,-43,-174,-143,-168,-118
15,-92,-104,39,50,-101,30,-43,-174,-143,-180,-124
9,-92,-98,39,44,-95,30,-43,-168,-149,-186,-124
9,-92,-98,39,44,-95,30,-55,-180,-149,-180,-124
9,-92,-98,39,44,-95,30,-49,-174,-155,-180,-118
15,-80,-92,33,44,-89,30,-49,-174,-143,-168,-106
27,-68,-92,21,50,-83,36,-49,-174,-137,-162,-106
27,-68,-92,21,50,-83,36,-43,-168,-137,-162,-106
33,-68,-98,15,56,-83,42,-49,-168,-131,-156,-106
33,-68,-98,15,56,-83,42,-43,-162,-125,-150,-106
27,-74,-98,21,56,-89,48,-43,-162,-125,-150,-106
27,-74,-98,21,56,-89,48,-43,-162,-125,-150,-106
27,-74,-98,21,56,-89,48,-43,-162,-125,-156,-112
27,-74,-98,21,56,-89,42,-43,-162,-125,-156,-112
27,-74,-98,21,56,-89,42,-49,-162,-119,-150,-106
33,-62,-92,15,56,-77,42,-49,-162,-119,-138,-94
33,-62,-92,15,56,-77,42,-49,-162,-113,-138,-94
33,-62,-92,15,56,-77,42,-49,-162,-113,-138,-94
33,-50,-80,9,50,-65,42,-43,-162,-101,-132,-88
33,-50,-80,9,50,-65,48,-43,-156,-101,-132,-88
33,-56,-86,9,50,-71,48,-43,-156,-95,-126,-88
27,-62,-86,15,50,-77,48,-43,-156,-95,-126,-88
33,-68,-98,15,56,-83,42,-43,-156,-101,-132,-88
33,-62,-92,15,56,-77,42,-43,-156,-101,-132,-88
38,-68,-104,15,62,-89,36,-43,-156,-101,-138,-82
38,-62,-104,9,68,-83,36,-43,-156,-101,-138,-82
38,-62,-98,9,62,-83,42,-43,-162,-101,-132,-76
38,-62,-104,9,68,-83,36,-37,-162,-95,-126,-70
38,-56,-92,9,56,-77,42,-37,-162,-95,-114,-70
38,-56,-92,9,56,-77,48,-37,-156,-89,-114,-76
33,-56,-86,9,50,-71,42,-31,-150,-89,-120,-76
33,-56,-86,9,50,-71,42,-31,-150,-89,-120,-76
38,-56,-98,3,62,-77,36,-25,-150,-89,-120,-76
38,-62,-104,9,68,-83,30,-25,-144,-89,-120,-76
38,-62,-104,9,68,-83,36,-25,-144,-89,-120,-76
38,-56,-104,3,68,-77,30,-25,-144,-83,-114,-70
38,-50,-92,3,62,-71,30,-19,-138,-83,-114,-58
38,-50,-92,3,62,-71,30,-19,-138,-77,-108,-58
38,-50,-92,3,62,-71,36,-7,-132,-77,-114,-70
38,-44,-86,-3,56,-65,36,-1,-126,-77,-108,-70
38,-44,-80,3,50,-65,42,11,-120,-71,-108,-70
38,-44,-80,3,50,-65,42,11,-120,-71,-108,-70
38,-38,-80,-3,56,-59,42,11,-114,-65,-102,-70
38,-38,-86,-9,62,-59,36,17,-108,-59,-102,-64
44,-32,-86,-15,62,-59,36,23,-96,-53,-96,-64
56,-32,-98,-21,74,-65,36,23,-96,-47,-96,-58
50,-26,-86,-21,68,-53,30,29,-90,-47,-84,-46
50,-20,-80,-21,62,-47,30,29,-84,-41,-78,-46
50,-20,-80,-21,62,-47,18,29,-90,-47,-78,-40
56,-20,-86,-27,68,-53,18,35,-84,-47,-78,-34
56,-20,-86,-27,68,-53,24,47,-72,-35,-72,-40
56,-20,-86,-27,68,-53,24,59,-66,-29,-54,-34
62,-20,-92,-27,74,-53,24,65,-54,-29,-48,-40
62,-20,-92,-27,74,-53,24,65,-48,-23,-48,-28
68,-20,-98,-33,80,-59,18,71,-48,-23,-48,-22
68,-8,-86,-33,74,-47,12,71,-48,-23,-48,-16
74,-8,-92,-33,80,-47,18,83,-42,-11,-48,-10
62,-8,-80,-33,68,-41,12,89,-36,-5,-36,-4
68,-2,-80,-33,74,-41,12,106,-24,1,-30,2
74,4,-80,-33,74,-35,6,106,-18,7,-24,2
80,10,-80,-38,80,-35,6,106,-6,13,-18,8
86,16,-80,-44,80,-29,0,112,0,18,-12,14
92,16,-86,-44,86,-35,-6,118,6,18,-6,20
92,22,-80,-50,86,-29,-12,124,18,18,-6,26
98,27,-74,-56,86,-17,-12,130,24,24,0,26
104,27,-80,-62,92,-23,-18,136,30,30,6,32
104,27,-74,-62,92,-17,-24,142,36,42,11,44
110,27,-80,-68,98,-17,-30,148,48,48,11,49
110,33,-74,-68,92,-11,-36,154,54,54,23,55
116,33,-80,-74,98,-17,-42,166,60,54,29,55
110,27,-80,-68,98,-17,-42,172,66,60,35,61
116,33,-80,-74,98,-17,-48,178,78,66,35,61
122,33,-86,-74,104,-17,-48,184,84,72,41,67
122,33,-86,-74,104,-17,-54,184,89,72,47,73
128,39,-86,-80,110,-17,-66,190,89,72,53,73
140,39,-98,-86,122,-23,-72,190,89,78,59,73
152,51,-98,-98,128,-17,-78,196,89,84,71,85
158,51,-104,-104,134,-17,-84,196,89,84,77,85
152,63,-86,-104,122,-5,-78,202,89,90,83,91
152,63,-86,-104,122,-5,-84,202,89,84,83,97
146,69,-74,-104,110,6,-84,208,89,90,89,103
146,69,-74,-104,110,6,-90,208,89,96,89,103
152,69,-80,-110,116,1,-90,190,89,96,89,97
152,69,-80,-110,116,1,-96,184,89,90,89,97
158,75,-80,-116,122,6,-102,178,84,90,83,97
164,75,-86,-116,128,1,-102,172,78,90,83,97
158,75,-80,-116,122,6,-102,166,84,96,83,103
158,75,-80,-116,122,6,-108,160,78,96,89,109
152,69,-80,-110,116,1,-108,154,78,90,95,115
146,75,-68,-110,110,6,-108,148,78,84,101,121
146,75,-68,-110,110,6,-108,148,78,84,101,115
152,75,-74,-110,116,6,-114,142,72,84,101,115
152,75,-74,-110,116,6,-114,142,66,84,95,109
152,75,-74,-110,116,6,-114,142,66,84,89,109
158,75,-80,-116,122,6,-108,136,66,84,95,115
152,75,-74,-110,116,6,-108,136,60,84,95,115
158,75,-80,-116,122,6,-108,130,54,84,101,121
152,75,-74,-110,116,6,-108,130,54,84,95,121
140,75,-62,-104,104,6,-114,124,54,78,95,121
140,75,-62,-104,104,6,-114,124,48,78,89,121
134,75,-56,-104,98,6,-102,118,54,72,95,115
134,75,-56,-104,98,6,-96,118,48,72,95,115
140,75,-62,-104,104,6,-90,112,42,78,83,121
134,63,-68,-98,104,6,-84,112,36,72,83,109
140,63,-74,-98,110,1,-78,106,30,78,77,109
134,63,-68,-98,104,6,-72,101,24,66,77,103
128,51,-74,-86,104,-5,-66,95,24,66,71,103
122,51,-68,-86,98,1,-60,89,24,66,65,103
116,45,-68,-80,92,-5,-54,89,24,60,65,97
110,45,-62,-74,86,1,-48,83,18,60,59,97
104,39,-62,-68,86,-5,-30,77,12,54,47,85
104,33,-68,-68,86,-11,-24,71,0,42,47,73
92,33,-56,-62,74,-5,-6,59,-12,36,35,61
92,27,-62,-56,80,-11,6,53,-24,30,29,55
80,27,-62,-44,68,-17,12,41,-30,18,23,49
74,27,-56,-44,62,-11,18,35,-36,18,17,49
74,22,-62,-38,68,-17,24,23,-48,18,11,49
68,10,-68,-33,68,-29,36,17,-60,13,11,49
62,10,-62,-33,62,-23,36,11,-60,13,11,44
50,10,-50,-33,50,-17,42,5,-60,7,11,44
38,4,-44,-27,38,-17,54,-1,-54,7,11,38
38,4,-44,-27,38,-17,60,-7,-54,1,6,32
44,4,-50,-33,44,-23,65,-19,-66,-5,0,20
38,-8,-56,-21,44,-29,65,-19,-72,-5,0,14
44,-8,-62,-27,50,-35,65,-31,-84,-11,-6,2
38,-8,-50,-21,38,-29,71,-37,-90,-17,-12,2
38,-14,-56,-15,44,-35,77,-37,-84,-17,-12,8
38,-14,-56,-15,44,-35,77,-43,-90,-17,-18,8
38,-14,-56,-15,44,-35,83,-37,-90,-17,-12,14
33,-20,-50,-9,32,-35,83,-37,-90,-17,-12,14
21,-20,-38,-3,26,-29,83,-43,-90,-23,-18,8
21,-20,-38,-3,26,-29,89,-43,-96,-23,-18,8
21,-20,-38,-3,26,-29,89,-55,-96,-29,-24,-4
21,-20,-38,-3,26,-29,89,-55,-96,-35,-24,-4
27,-26,-50,-3,32,-41,89,-55,-96,-35,-18,2
27,-26,-50,-3,32,-41,89,-55,-96,-41,-18,-4
33,-32,-62,-3,38,-47,89,-61,-96,-41,-18,-4
27,-32,-56,3,32,-47,89,-61,-96,-41,-24,-4
21,-26,-44,3,26,-35,89,-61,-96,-41,-24,-4
15,-26,-38,3,26,-35,89,-55,-96,-41,-24,-4
9,-26,-32,9,26,-29,89,-55,-96,-41,-24,-4
3,-26,-26,9,21,-29,89,-61,-96,-41,-24,-4
9,-26,-32,9,26,-29,89,-67,-96,-41,-24,-4
15,-26,-38,3,26,-35,95,-61,-90,-35,-18,-4
21,-32,-50,3,26,-41,95,-67,-90,-35,-12,-10
27,-32,-56,3,32,-47,89,-67,-96,-35,-12,-10
27,-32,-56,3,32,-47,95,-61,-96,-29,-12,-4
21,-32,-50,3,26,-41,95,-61,-96,-29,-12,2
21,-26,-44,3,26,-35,101,-55,-96,-23,-12,8
21,-26,-44,3,26,-35,101,-55,-90,-23,-12,8
21,-32,-50,3,26,-41,107,-61,-90,-29,-18,8
21,-20,-38,-3,26,-29,113,-61,-84,-29,-18,8
21,-14,-32,-3,26,-23,113,-67,-84,-29,-12,2
27,-20,-44,-3,26,-35,113,-67,-84,-29,-12,2
27,-26,-50,-3,32,-41,107,-61,-84,-35,-12,2
27,-26,-50,-3,32,-41,107,-61,-84,-35,-12,2
27,-32,-56,3,32,-47,107,-61,-84,-35,-12,-4
21,-32,-50,3,26,-41,107,-61,-90,-35,-12,-4
15,-32,-44,9,26,-41,113,-55,-90,-35,-12,-4
15,-32,-44,9,26,-41,113,-55,-90,-35,-12,-10
9,-32,-38,9,26,-35,119,-49,-78,-35,-18,-10
3,-32,-32,15,21,-35,119,-49,-78,-35,-24,-4
9,-32,-38,9,26,-35,113,-55,-78,-35,-18,-4
15,-32,-44,9,26,-41,113,-55,-78,-35,-18,-4
21,-32,-50,3,26,-41,107,-61,-84,-35,-12,-4
21,-32,-50,3,26,-41,107,-61,-96,-35,-6,-4
15,-38,-50,9,26,-47,113,-61,-90,-35,-12,-4
15,-38,-50,9,26,-47,113,-61,-90,-35,-12,-4
15,-44,-56,15,26,-53,119,-67,-84,-41,-18,-4
15,-44,-56,15,26,-53,119,-67,-84,-41,-30,-4
9,-38,-44,15,26,-41,119,-61,-84,-41,-24,-4
3,-38,-38,15,26,-41,119,-61,-84,-35,-24,-4
-3,-44,-38,21,21,-41,113,-55,-90,-35,-18,2
3,-44,-44,21,26,-47,113,-55,-96,-41,-18,2
9,-50,-56,21,26,-53,113,-55,-96,-41,-18,2
9,-44,-50,15,26,-47,113,-55,-96,-41,-18,2
15,-50,-62,15,32,-59,113,-61,-96,-41,-18,-4
9,-56,-62,21,26,-59,113,-61,-102,-41,-24,-4
3,-56,-56,27,26,-59,113,-61,-102,-41,-30,-10
-3,-56,-50,27,26,-53,113,-61,-102,-41,-30,-10
-3,-56,-50,27,26,-53,113,-67,-102,-41,-36,-16
-9,-56,-44,33,21,-53,113,-67,-96,-41,-36,-16
-3,-50,-44,27,26,-47,113,-73,-102,-47,-36,-10
-3,-50,-44,27,26,-47,113,-79,-108,-53,-30,-10
3,-50,-50,21,26,-53,113,-91,-114,-59,-24,-4
9,-50,-56,21,26,-53,113,-91,-114,-65,-24,-4
15,-50,-62,15,32,-59,113,-91,-108,-65,-30,-10
3,-50,-50,21,26,-53,113,-91,-108,-65,-36,-10
-3,-50,-44,27,26,-47,113,-91,-108,-65,-42,-10
-3,-50,-44,27,26,-47,113,-91,-108,-65,-48,-10
-3,-56,-50,27,26,-53,119,-85,-114,-65,-48,-16
-3,-62,-56,33,26,-59,119,-85,-114,-71,-48,-16
-3,-68,-62,33,26,-65,125,-85,-114,-77,-48,-16
-3,-68,-62,33,26,-65,125,-91,-114,-77,-48,-16
-3,-62,-56,33,26,-59,125,-91,-114,-71,-42,-16
-3,-62,-56,33,26,-59,125,-91,-114,-71,-42,-16
-3,-62,-56,33,26,-59,125,-91,-108,-71,-36,-22
-3,-62,-56,33,26,-59,125,-91,-108,-71,-36,-22
-9,-62,-50,33,26,-59,119,-91,-120,-71,-36,-22
-3,-50,-44,27,26,-47,119,-103,-120,-71,-42,-28
-3,-56,-50,27,26,-53,125,-103,-120,-77,-42,-22
-3,-62,-56,33,26,-59,125,-103,-120,-77,-42,-22
-3,-68,-62,33,26,-65,131,-103,-120,-83,-42,-16
-3,-74,-68,39,26,-71,131,-103,-120,-83,-42,-16
-3,-74,-68,39,26,-71,119,-103,-120,-77,-42,-16
-3,-74,-68,39,26,-71,119,-109,-126,-77,-42,-16
-3,-86,-80,45,32,-83,113,-109,-126,-71,-42,-16
-3,-86,-80,45,32,-83,113,-109,-126,-71,-42,-16
-9,-80,-68,45,26,-77,119,-103,-120,-77,-42,-16
-9,-80,-68,45,26,-77,119,-103,-120,-77,-42,-22
3,-74,-74,33,32,-77,125,-103,-114,-77,-48,-22
3,-74,-74,33,32,-77,125,-103,-114,-77,-48,-22
9,-68,-74,27,32,-71,119,-109,-120,-71,-42,-16
9,-74,-80,33,38,-77,119,-109,-120,-71,-42,-16
15,-68,-80,27,38,-77,113,-121,-126,-65,-36,-10
15,-68,-80,27,38,-77,113,-121,-126,-65,-36,-10
15,-74,-86,27,44,-83,113,-115,-126,-71,-42,-16
9,-74,-80,33,38,-77,113,-115,-126,-71,-42,-16
-9,-80,-68,45,26,-77,113,-109,-126,-77,-48,-22
-15,-80,-62,45,26,-71,113,-109,-126,-77,-48,-22
-3,-80,-74,39,26,-77,119,-109,-120,-77,-42,-22
-3,-80,-74,39,26,-77,119,-109,-120,-77,-42,-22
3,-74,-74,33,32,-77,125,-109,-114,-77,-36,-16
9,-74,-80,33,38,-77,125,-109,-114,-77,-36,-10
15,-56,-68,21,32,-65,125,-97,-108,-65,-36,-10
15,-44,-56,15,26,-53,137,-91,-96,-59,-24,-4
21,-32,-50,3,26,-41,137,-85,-90,-53,-18,2
21,-14,-32,-3,26,-23,143,-79,-84,-47,-18,8
9,-8,-15,-3,15,-11,155,-67,-72,-47,-12,8
3,-2,-15,-3,9,-5,167,-67,-72,-47,-12,8
-3,-2,-9,3,3,1,173,-61,-66,-47,-12,8
-3,-2,-9,3,3,1,179,-61,-66,-47,-12,8
3,-8,-15,3,9,-11,179,-67,-72,-47,-12,8
9,-8,-15,-3,15,-11,179,-61,-78,-47,-12,8
21,-14,-32,-3,26,-23,173,-67,-84,-41,-12,8
27,-8,-32,-9,26,-23,173,-73,-90,-41,-12,8
21,-2,-20,-9,26,-11,173,-73,-84,-41,-18,8
15,-2,-15,-9,21,-11,173,-73,-84,-41,-18,8
9,-2,-15,-3,15,-5,167,-73,-84,-41,-24,2
3,-2,-15,-3,9,-5,167,-73,-84,-41,-24,2
9,16,-3,-15,3,6,155,-73,-78,-41,-12,14
9,27,15,-21,-3,18,155,-67,-72,-29,-6,20
15,39,27,-33,-3,30,155,-67,-72,-17,11,38
21,45,27,-33,-3,36,143,-67,-72,-17,11,38
21,39,21,-33,3,30,137,-85,-84,-29,6,32
27,33,9,-33,9,18,131,-91,-96,-35,0,26
27,27,3,-33,15,12,125,-97,-102,-47,-6,20
38,33,-3,-33,21,12,119,-97,-102,-47,-6,20
33,39,9,-33,15,24,119,-97,-102,-35,0,20
38,39,3,-33,21,18,113,-97,-102,-35,0,20
38,39,-9,-38,26,18,113,-91,-102,-29,11,26
44,39,-15,-38,26,12,107,-91,-102,-29,11,26
56,27,-26,-38,44,6,95,-85,-96,-47,6,26
56,27,-38,-33,44,-5,95,-85,-96,-35,0,26
62,22,-50,-33,56,-11,95,-73,-84,-41,-6,26
56,10,-56,-33,56,-23,101,-67,-78,-41,-6,26
50,10,-50,-33,50,-17,107,-67,-78,-41,0,26
50,10,-50,-33,50,-17,107,-67,-78,-41,0,20
38,-8,-56,-21,44,-29,113,-67,-78,-53,-6,20
33,-20,-50,-9,32,-35,119,-73,-90,-59,-12,14
21,-32,-50,3,26,-41,119,-79,-96,-65,-24,2
15,-44,-56,15,26,-53,119,-85,-108,-71,-30,-4
9,-50,-56,21,26,-53,113,-91,-114,-77,-42,-22
3,-62,-62,27,26,-65,113,-97,-126,-83,-54,-28
3,-62,-62,27,26,-65,113,-103,-132,-89,-48,-28
-3,-68,-62,33,26,-65,113,-109,-132,-95,-54,-34
-3,-80,-74,39,26,-77,113,-109,-138,-101,-54,-28
-3,-80,-74,39,26,-77,113,-115,-138,-101,-60,-34
-15,-86,-68,51,26,-77,113,-121,-144,-107,-60,-46
-21,-92,-68,57,26,-83,113,-121,-150,-113,-60,-46
-27,-92,-62,57,21,-77,107,-127,-150,-113,-66,-52
-33,-98,-62,63,21,-83,107,-127,-150,-113,-66,-52
-27,-98,-68,63,26,-83,101,-133,-156,-107,-66,-46
-21,-98,-74,57,26,-89,95,-133,-156,-107,-66,-46
-15,-98,-80,57,26,-89,89,-133,-162,-101,-72,-40
-9,-104,-92,57,32,-101,89,-139,-162,-107,-72,-46
-9,-104,-92,57,32,-101,101,-133,-156,-113,-72,-46
-9,-98,-86,51,32,-95,107,-133,-156,-107,-72,-46
-9,-98,-86,51,32,-95,119,-133,-150,-113,-72,-46
-15,-104,-86,57,26,-95,125,-127,-150,-113,-72,-46
-21,-98,-74,57,26,-89,125,-127,-150,-107,-66,-40
-21,-98,-74,57,26,-89,125,-127,-150,-107,-66,-40
-27,-92,-62,57,21,-77,125,-127,-150,-101,-60,-34
-27,-92,-62,57,21,-77,125,-121,-150,-101,-60,-34
-15,-92,-74,51,26,-83,131,-121,-150,-113,-72,-46
9,-68,-74,27,32,-71,119,-121,-150,-107,-60,-46
-3,-86,-80,45,32,-83,125,-121,-138,-107,-72,-46
-39,-104,-62,69,15,-83,143,-97,-138,-119,-72,-46
-9,-98,-86,51,32,-95,161,-79,-114,-107,-66,-52
-27,-116,-86,69,26,-101,185,-55,-96,-113,-78,-82
-87,-188,-98,135,9,-143,245,-7,-72,-131,-120,-112
-99,-212,-110,153,9,-161,329,71,-24,-131,-144,-148
-63,-200,-134,129,26,-167,413,154,66,-113,-144,-136
-63,-176,-110,117,26,-143,479,268,173,-59,-108,-118
-39,-146,-104,93,26,-125,515,376,281,7,-60,-70
38,-56,-92,9,56,-77,503,484,383,90,6,-10
68,27,-38,-44,56,1,479,592,515,204,113,67
80,141,51,-110,21,96,431,646,623,330,239,175
158,291,129,-224,21,216,323,646,671,474,365,307
236,453,213,-338,21,330,215,622,689,624,515,463
278,591,309,-434,-9,456,119,628,737,768,683,619
344,747,393,-542,-15,570,18,616,761,912,845,787
470,897,423,-680,26,660,-114,568,755,1062,1013,961
542,1023,471,-782,32,750,-258,532,773,1200,1181,1129
620,1131,501,-872,56,816,-414,586,833,1332,1313,1273
710,1239,519,-974,92,882,-576,694,953,1452,1433,1381
710,1329,615,-1016,44,978,-732,784,1061,1584,1541,1483
656,1425,759,-1034,-45,1092,-870,748,1061,1650,1619,1543
638,1473,825,-1052,-87,1152,-930,694,1019,1656,1619,1543
602,1377,765,-992,-75,1074,-942,658,965,1578,1499,1441
470,1143,669,-800,-93,906,-912,478,731,1326,1265,1249
326,921,585,-620,-123,750,-882,23,185,864,947,973
200,723,513,-458,-153,618,-840,-487,-408,354,587,679
62,525,459,-290,-195,492,-786,-805,-798,-35,293,421
-21,369,393,-170,-207,378,-726,-967,-978,-263,95,235
-45,273,321,-110,-183,294,-666,-973,-996,-347,-12,103
-81,165,243,-33,-165,204,-582,-859,-888,-377,-84,32
-117,75,195,15,-153,132,-480,-745,-804,-395,-132,-46
-117,45,165,27,-141,102,-396,-673,-714,-371,-168,-100
-117,27,141,39,-129,78,-318,-583,-630,-359,-174,-106
-141,-14,117,75,-129,42,-246,-505,-558,-335,-162,-106
-111,-20,81,63,-99,24,-204,-433,-492,-323,-150,-94
-57,-20,27,39,-45,6,-168,-355,-408,-287,-144,-94
-57,-56,-9,57,-27,-29,-114,-277,-336,-263,-144,-88
-69,-86,-15,75,-21,-53,-72,-223,-276,-245,-144,-100
-21,-86,-62,51,26,-77,-30,-181,-234,-221,-132,-100
-21,-98,-74,57,26,-89,12,-139,-192,-197,-132,-88
-51,-122,-68,87,15,-95,48,-109,-156,-185,-114,-94
-33,-110,-74,69,26,-95,60,-91,-144,-167,-108,-82
-15,-86,-68,51,26,-77,65,-79,-138,-161,-84,-70
-27,-104,-74,63,26,-89,71,-61,-120,-149,-78,-64
-9,-92,-80,51,26,-89,83,-49,-108,-149,-78,-58
27,-74,-98,21,56,-89,83,-49,-96,-143,-78,-34
21,-80,-98,27,50,-89,89,-49,-90,-149,-84,-40
15,-86,-98,33,50,-95,95,-49,-90,-149,-90,-46
3,-104,-104,51,44,-107,89,-55,-96,-155,-96,-52
-9,-128,-116,69,44,-125,89,-55,-96,-155,-108,-64
-15,-122,-104,69,38,-113,89,-61,-96,-155,-102,-64
-15,-122,-104,69,38,-113,89,-73,-108,-155,-96,-64
-15,-116,-98,63,32,-107,89,-73,-108,-155,-84,-58
-9,-104,-92,57,32,-101,89,-73,-108,-143,-72,-46
-3,-98,-92,51,38,-95,89,-67,-102,-137,-66,-46
-3,-104,-98,51,38,-101,89,-61,-96,-137,-66,-46
-3,-110,-104,57,44,-107,89,-61,-90,-131,-60,-46
-3,-116,-110,57,44,-113,89,-55,-84,-125,-54,-46
-3,-122,-116,63,50,-119,101,-61,-90,-131,-60,-52
-3,-122,-116,63,50,-119,101,-67,-96,-131,-66,-52
3,-122,-122,57,56,-125,107,-73,-102,-137,-78,-64
3,-122,-122,57,56,-125,101,-79,-108,-137,-84,-64
3,-116,-116,57,50,-119,107,-79,-102,-125,-72,-52
3,-104,-104,51,44,-107,107,-79,-102,-125,-60,-40
3,-98,-98,45,44,-101,113,-73,-96,-113,-54,-34
-3,-98,-92,51,38,-95,113,-73,-96,-113,-54,-34
3,-92,-92,45,38,-95,107,-67,-96,-113,-54,-28
3,-92,-92,45,38,-95,113,-67,-90,-113,-54,-28
9,-104,-110,45,50,-107,107,-67,-90,-119,-54,-28
3,-110,-110,51,50,-113,107,-67,-90,-119,-54,-28
-3,-110,-104,57,44,-107,107,-73,-90,-119,-54,-40
-3,-104,-98,51,38,-101,107,-73,-90,-119,-54,-40
-9,-104,-92,57,32,-101,107,-79,-90,-113,-54,-46
-3,-98,-92,51,38,-95,107,-79,-90,-113,-54,-46
-3,-104,-98,51,38,-101,107,-79,-90,-113,-54,-34
3,-104,-104,51,44,-107,101,-73,-90,-107,-48,-28
3,-104,-104,51,44,-107,101,-73,-84,-107,-42,-22
3,-104,-104,51,44,-107,107,-73,-78,-101,-42,-28
-3,-104,-98,51,38,-101,101,-67,-84,-107,-54,-28
3,-104,-104,51,44,-107,101,-67,-84,-107,-54,-28
15,-104,-116,45,56,-113,95,-61,-90,-113,-60,-28
21,-110,-128,45,68,-119,89,-61,-84,-113,-60,-28
21,-104,-122,39,62,-113,95,-55,-78,-113,-60,-28
21,-98,-116,39,62,-107,89,-55,-72,-107,-54,-22
15,-86,-98,33,50,-95,89,-43,-60,-107,-54,-10
9,-86,-92,39,44,-89,89,-43,-54,-101,-48,-10
15,-92,-104,39,50,-101,95,-43,-54,-101,-48,-10
15,-86,-98,33,50,-95,95,-37,-48,-101,-42,-10
15,-92,-104,39,50,-101,101,-37,-48,-95,-36,2
15,-92,-104,39,50,-101,101,-37,-48,-95,-36,2
15,-92,-104,39,50,-101,95,-37,-48,-95,-36,-4
15,-92,-104,39,50,-101,89,-31,-42,-89,-36,-4
15,-92,-104,39,50,-101,83,-25,-36,-89,-36,-10
21,-92,-110,33,56,-101,83,-25,-36,-83,-36,-10
27,-86,-110,27,62,-101,89,-19,-24,-77,-30,-4
27,-80,-104,27,56,-95,89,-19,-18,-71,-24,-4
38,-80,-116,21,68,-101,89,-19,-18,-71,-30,-4
38,-80,-122,15,74,-101,89,-13,-12,-71,-30,2
38,-74,-116,15,74,-95,89,-7,-6,-59,-24,8
38,-74,-116,15,74,-95,89,5,0,-53,-6,14
38,-68,-116,9,74,-89,83,5,6,-53,0,20
38,-68,-116,9,74,-89,83,5,12,-47,0,32
44,-62,-116,3,80,-89,77,11,24,-41,6,38
44,-50,-104,-3,74,-77,71,11,24,-41,6,44
50,-44,-104,-9,74,-71,77,23,42,-23,11,49
38,-44,-92,-3,62,-65,71,29,48,-17,11,49
44,-50,-104,-3,74,-77,71,41,54,-17,11,49
50,-50,-110,-9,80,-77,65,47,60,-11,17,49
56,-56,-122,-9,86,-89,65,47,66,-11,17,49
62,-56,-128,-9,92,-89,65,53,72,-5,23,49
62,-50,-122,-15,92,-83,60,59,78,1,29,61
62,-44,-116,-15,86,-77,54,65,89,7,29,67
62,-26,-98,-27,80,-59,48,71,89,13,35,73
68,-26,-104,-27,86,-65,42,77,89,18,41,79
74,-20,-104,-33,86,-59,36,77,95,18,47,79
80,-20,-110,-33,92,-65,30,83,107,18,53,91
86,-14,-110,-33,98,-59,24,83,113,18,59,91
92,-14,-116,-33,104,-65,18,95,119,18,65,91
86,-14,-110,-33,98,-59,18,89,119,24,77,97
92,-8,-110,-33,98,-59,12,95,125,30,77,97
98,-2,-110,-38,104,-53,12,89,125,36,89,103
98,-2,-110,-38,104,-53,6,89,125,36,95,109
104,10,-104,-50,104,-47,0,89,125,36,95,115
110,10,-110,-50,110,-47,-6,89,125,42,101,115
122,27,-104,-68,110,-35,-6,89,131,48,107,133
122,27,-104,-68,110,-35,-12,89,131,48,113,133
122,27,-104,-68,110,-35,-12,89,131,48,113,133
122,27,-104,-68,110,-35,-18,89,131,42,113,139
122,22,-110,-62,116,-41,-24,89,131,42,113,139
122,22,-110,-62,116,-41,-30,89,131,48,113,139
116,27,-98,-62,104,-35,-30,71,131,42,119,139
116,27,-98,-62,104,-35,-36,65,119,36,119,139
110,27,-80,-68,98,-17,-42,59,107,30,119,145
116,27,-86,-68,104,-23,-42,53,101,30,119,145
122,33,-86,-74,104,-17,-42,47,101,36,113,145
122,33,-86,-74,104,-17,-48,41,95,36,113,145
128,33,-92,-80,110,-23,-48,35,89,30,113,145
122,39,-80,-80,104,-11,-48,29,89,24,113,145
122,39,-80,-80,104,-11,-48,29,89,24,119,145
128,39,-86,-80,110,-17,-54,23,89,24,125,145
128,39,-86,-80,110,-17,-54,23,89,24,125,145
128,39,-86,-80,110,-17,-54,23,89,24,125,145
122,39,-80,-80,104,-11,-54,17,89,24,119,145
116,39,-74,-74,98,-11,-54,17,84,24,119,145
110,39,-68,-74,92,-5,-60,11,78,24,113,145
104,39,-62,-68,86,-5,-60,11,78,24,107,145
104,33,-68,-68,86,-11,-60,5,72,24,107,145
104,33,-68,-68,86,-11,-60,5,66,24,101,145
110,27,-80,-68,98,-17,-42,-1,66,24,107,139
110,27,-80,-68,98,-17,-36,-1,60,24,107,139
104,33,-68,-68,86,-11,-30,-7,60,18,95,133
92,27,-68,-56,80,-17,-24,-7,54,18,95,121
86,27,-56,-56,74,-5,-18,-25,54,13,89,109
74,27,-44,-50,62,1,-12,-31,48,-5,89,103
74,27,-56,-44,62,-11,0,-31,42,1,77,109
74,27,-56,-44,62,-11,6,-37,42,1,71,109
74,22,-62,-38,68,-17,18,-31,36,1,65,109
74,22,-62,-38,68,-17,24,-37,30,1,59,109
62,4,-68,-33,62,-29,36,-43,30,1,59,103
62,-2,-74,-33,68,-35,42,-49,24,-11,59,91
44,-14,-68,-21,56,-41,54,-61,18,-11,59,85
44,-20,-74,-21,56,-47,65,-67,12,-17,53,79
38,-20,-68,-15,50,-41,65,-79,0,-29,35,61
38,-20,-62,-15,44,-41,65,-85,-6,-29,29,49
38,-14,-62,-21,50,-35,71,-97,-24,-41,11,49
38,-26,-68,-9,50,-47,83,-103,-36,-47,11,49
38,-32,-68,-3,44,-53,89,-103,-36,-47,11,49
27,-32,-56,3,32,-47,95,-109,-36,-53,11,49
15,-44,-56,15,26,-53,113,-109,-30,-53,11,49
15,-44,-56,15,26,-53,119,-115,-30,-59,6,44
15,-44,-56,15,26,-53,119,-127,-36,-65,0,38
9,-56,-62,21,26,-59,125,-127,-42,-65,0,32
9,-56,-62,21,26,-59,119,-133,-48,-71,-6,26
-3,-56,-50,27,26,-53,131,-139,-54,-77,-12,26
3,-56,-56,27,26,-59,137,-139,-54,-77,-12,26
3,-56,-56,27,26,-59,137,-145,-60,-77,-18,26
9,-50,-56,21,26,-53,143,-139,-66,-77,-12,26
-3,-56,-50,27,26,-53,143,-139,-66,-77,-12,26
-9,-56,-44,33,21,-53,143,-139,-60,-83,-12,20
-9,-56,-44,33,21,-53,149,-139,-66,-83,-12,20
-3,-56,-50,27,26,-53,149,-145,-60,-89,-12,8
-3,-56,-50,27,26,-53,149,-145,-60,-95,-12,8
-3,-50,-44,27,26,-47,143,-151,-66,-101,-18,8
-3,-50,-44,27,26,-47,143,-151,-66,-107,-18,2
-3,-44,-38,21,21,-41,137,-163,-72,-113,-30,-4
-9,-44,-32,27,15,-41,137,-163,-72,-113,-36,-4
-9,-50,-38,27,21,-47,143,-157,-72,-107,-30,2
-9,-56,-44,33,21,-53,143,-151,-72,-101,-24,2
-9,-68,-56,39,26,-65,149,-145,-72,-95,-18,8
-9,-74,-62,39,26,-71,149,-151,-72,-89,-12,8
-9,-62,-50,33,26,-59,149,-151,-66,-95,-18,8
-9,-62,-50,33,26,-59,155,-145,-60,-89,-12,8
-9,-56,-44,33,21,-53,155,-145,-54,-95,-12,2
-9,-56,-44,33,21,-53,149,-145,-60,-95,-12,2
-3,-62,-56,33,26,-59,149,-145,-60,-89,-12,8
-9,-62,-50,33,26,-59,149,-145,-60,-89,-12,14
-3,-62,-56,33,26,-59,149,-145,-60,-83,-12,20
-3,-62,-56,33,26,-59,149,-145,-54,-83,-12,20
-3,-74,-68,39,26,-71,155,-151,-60,-83,-18,14
-3,-62,-56,33,26,-59,161,-151,-54,-83,-18,14
-3,-62,-56,33,26,-59,161,-157,-60,-77,-12,2
3,-68,-68,33,26,-71,161,-157,-60,-77,-12,2
3,-62,-62,27,26,-65,155,-151,-66,-89,-18,2
3,-62,-62,27,26,-65,155,-151,-66,-89,-18,2
3,-56,-56,27,26,-59,155,-151,-72,-95,-24,-4
-3,-56,-50,27,26,-53,155,-151,-78,-95,-24,-4
-9,-62,-50,33,26,-59,161,-145,-78,-95,-24,-4
-3,-62,-56,33,26,-59,161,-145,-78,-95,-24,-10
-9,-68,-56,39,26,-65,167,-139,-66,-95,-30,-10
-9,-68,-56,39,26,-65,167,-139,-66,-95,-36,-4
-9,-62,-50,33,26,-59,167,-139,-60,-95,-30,-4
-9,-62,-50,33,26,-59,167,-139,-60,-95,-30,-4
-9,-56,-44,33,21,-53,167,-139,-60,-95,-24,-4
-15,-56,-38,33,15,-47,167,-139,-72,-95,-18,-4
-9,-56,-44,33,21,-53,167,-139,-66,-95,-24,2
-9,-56,-44,33,21,-53,167,-139,-66,-95,-24,2
3,-56,-56,27,26,-59,167,-145,-60,-101,-30,8
3,-56,-56,27,26,-59,167,-145,-60,-101,-42,8
-3,-56,-50,27,26,-53,167,-145,-66,-95,-36,2
-9,-56,-44,33,21,-53,167,-145,-66,-89,-36,2
-15,-68,-50,39,21,-59,161,-145,-78,-83,-30,2
-9,-68,-56,39,26,-65,161,-145,-84,-89,-30,2
-3,-68,-62,33,26,-65,161,-151,-78,-95,-36,-4
-3,-62,-56,33,26,-59,161,-151,-78,-95,-36,-4
3,-62,-62,27,26,-65,161,-163,-72,-101,-42,-16
-3,-68,-62,33,26,-65,161,-163,-78,-101,-48,-16
-3,-68,-62,33,26,-65,155,-157,-78,-101,-48,-16
-3,-68,-62,33,26,-65,155,-157,-78,-101,-48,-16
3,-68,-68,33,26,-71,149,-157,-78,-101,-48,-16
3,-68,-68,33,26,-71,149,-157,-72,-101,-48,-16
-3,-68,-62,33,26,-65,155,-151,-72,-107,-54,-22
-9,-68,-56,39,26,-65,155,-157,-78,-113,-48,-22
-15,-74,-56,45,26,-65,161,-157,-78,-119,-48,-28
-15,-74,-56,45,26,-65,161,-157,-78,-125,-48,-28
-3,-74,-68,39,26,-71,161,-163,-78,-119,-48,-28
-15,-74,-56,45,26,-65,161,-163,-78,-119,-54,-22
-15,-74,-56,45,26,-65,161,-169,-84,-113,-54,-16
-15,-74,-56,45,26,-65,161,-169,-84,-113,-60,-10
-9,-74,-62,39,26,-71,161,-163,-90,-113,-60,-22
-9,-80,-68,45,26,-77,161,-163,-90,-119,-60,-22
-3,-80,-74,39,26,-77,161,-163,-90,-125,-60,-28
-3,-80,-74,39,26,-77,161,-169,-90,-125,-60,-28
9,-80,-86,33,38,-83,161,-169,-96,-125,-60,-28
-15,-92,-74,51,26,-83,161,-181,-96,-137,-72,-28
-15,-86,-68,51,26,-77,155,-181,-96,-131,-66,-40
-21,-86,-62,51,26,-77,155,-181,-96,-125,-60,-34
-21,-86,-62,51,26,-77,155,-181,-96,-125,-60,-34
-27,-86,-56,57,21,-71,155,-181,-96,-119,-54,-28
-27,-86,-56,57,21,-71,155,-181,-96,-119,-54,-28
-27,-80,-50,51,15,-65,149,-181,-96,-119,-54,-34
-27,-80,-50,51,15,-65,149,-187,-102,-119,-54,-34
-27,-86,-56,57,21,-71,149,-187,-102,-119,-54,-40
-27,-86,-56,57,21,-71,149,-187,-102,-119,-54,-40
-33,-92,-56,63,15,-77,155,-187,-102,-125,-60,-34
-27,-92,-62,57,21,-77,155,-187,-102,-125,-60,-40
-15,-98,-80,57,26,-89,161,-193,-102,-125,-72,-34
-9,-98,-86,51,32,-95,161,-193,-102,-125,-72,-34
-15,-104,-86,57,26,-95,155,-187,-102,-125,-72,-40
-21,-110,-86,63,26,-101,155,-187,-102,-125,-72,-40
-27,-116,-86,69,26,-101,149,-187,-102,-125,-72,-46
-33,-116,-80,75,26,-101,149,-187,-102,-125,-72,-46
-21,-110,-86,63,26,-101,149,-187,-102,-119,-66,-40
-15,-110,-92,63,32,-101,149,-187,-102,-119,-66,-40
-21,-104,-80,63,26,-95,149,-187,-102,-113,-60,-34
-15,-104,-86,57,26,-95,149,-187,-102,-113,-60,-34
-9,-98,-86,51,32,-95,149,-181,-102,-113,-66,-40
-9,-98,-86,51,32,-95,149,-181,-102,-113,-66,-40
-9,-86,-74,45,26,-83,149,-175,-102,-113,-72,-40
-3,-86,-80,45,32,-83,149,-175,-102,-113,-72,-34
-9,-74,-62,39,26,-71,161,-169,-102,-107,-72,-40
-9,-68,-56,39,26,-65,173,-163,-90,-101,-60,-34
-15,-62,-44,39,21,-53,185,-163,-90,-101,-54,-34
-15,-50,-32,33,15,-41,191,-157,-84,-95,-54,-28
-15,-50,-32,33,15,-41,197,-145,-78,-89,-48,-22
-15,-44,-26,27,9,-35,203,-145,-78,-89,-48,-22
-9,-50,-38,27,21,-47,203,-139,-78,-83,-48,-16
-3,-50,-44,27,26,-47,203,-139,-78,-83,-48,-16
-9,-44,-32,27,15,-41,209,-139,-72,-83,-42,-16
-15,-44,-26,27,9,-35,209,-133,-66,-83,-42,-16
-15,-38,-20,27,9,-29,209,-133,-60,-77,-36,-16
-21,-32,-15,27,-3,-23,209,-139,-54,-77,-36,-16
-15,-32,-15,21,3,-23,203,-139,-60,-77,-36,-16
-9,-32,-20,21,9,-29,203,-139,-60,-77,-36,-16
-3,-38,-32,21,21,-35,191,-139,-72,-77,-36,-22
3,-38,-38,15,26,-41,191,-139,-72,-77,-36,-22
9,-26,-32,9,26,-29,179,-133,-60,-77,-30,-16
9,-8,-15,-3,15,-11,179,-133,-54,-65,-24,-10
15,4,-15,-9,15,-5,179,-127,-48,-53,-12,2
21,10,-15,-15,21,1,167,-127,-48,-53,-12,2
15,10,-15,-15,15,1,161,-139,-60,-65,-12,2
15,4,-15,-9,15,-5,155,-145,-78,-71,-18,-4
9,4,-15,-9,9,1,149,-151,-84,-83,-18,-4
15,10,-15,-15,15,1,143,-151,-90,-83,-18,-4
21,16,-15,-21,15,6,137,-145,-84,-71,-18,-4
27,16,-15,-21,21,1,131,-145,-84,-71,-18,-4
38,16,-32,-33,32,-5,125,-133,-78,-65,-12,2
44,16,-38,-33,38,-11,119,-133,-78,-65,-12,2
44,4,-50,-33,44,-23,119,-133,-72,-77,-12,2
38,-8,-56,-21,44,-29,119,-133,-72,-65,-18,2
38,-14,-56,-15,44,-35,131,-121,-60,-65,-18,2
33,-26,-56,-3,38,-41,137,-115,-54,-65,-18,2
38,-26,-62,-9,44,-47,131,-121,-54,-65,-18,-4
38,-26,-68,-9,50,-47,131,-121,-54,-65,-18,-10
38,-44,-86,-3,56,-65,125,-127,-54,-77,-30,-16
33,-56,-86,9,50,-71,131,-133,-66,-83,-36,-22
21,-62,-80,21,44,-71,143,-133,-66,-89,-42,-28
15,-74,-86,27,44,-83,143,-133,-78,-95,-48,-34
9,-74,-80,33,38,-77,149,-133,-78,-101,-54,-46
3,-86,-86,39,38,-89,149,-139,-90,-107,-66,-52
-3,-86,-80,45,32,-83,149,-139,-90,-107,-60,-52
-9,-92,-80,51,26,-89,149,-145,-90,-113,-66,-58
-15,-104,-86,57,26,-95,149,-139,-90,-113,-66,-52
-15,-104,-86,57,26,-95,149,-145,-90,-113,-72,-58
-21,-110,-86,63,26,-101,143,-157,-102,-125,-78,-64
-21,-116,-92,69,26,-107,143,-163,-108,-131,-78,-64
-21,-116,-92,69,26,-107,131,-175,-120,-137,-90,-64
-21,-122,-98,69,32,-113,131,-181,-120,-137,-90,-64
-27,-122,-92,75,26,-107,137,-175,-114,-137,-90,-70
-27,-122,-92,75,26,-107,131,-175,-114,-137,-90,-70
-33,-122,-86,75,26,-107,137,-169,-108,-137,-96,-76
-33,-128,-92,81,26,-113,137,-175,-108,-143,-96,-82
-27,-122,-92,75,26,-107,137,-175,-108,-143,-96,-82
-27,-116,-86,69,26,-101,137,-175,-108,-137,-96,-82
-21,-110,-86,63,26,-101,137,-175,-108,-137,-96,-82
-27,-116,-86,69,26,-101,137,-169,-108,-137,-96,-82
-27,-122,-92,75,26,-107,137,-169,-114,-137,-96,-82
-27,-122,-92,75,26,-107,137,-169,-114,-137,-96,-82
-27,-128,-98,75,26,-113,137,-169,-120,-137,-96,-82
-27,-128,-98,75,26,-113,137,-163,-114,-137,-96,-82
-39,-140,-98,87,26,-119,143,-163,-102,-137,-84,-82
-63,-140,-74,99,9,-107,143,-151,-102,-131,-84,-82
-39,-122,-80,81,26,-101,137,-151,-90,-119,-72,-70
-27,-128,-98,75,26,-113,143,-139,-78,-119,-72,-70
-45,-158,-110,99,26,-137,161,-127,-66,-119,-90,-88
-27,-176,-146,99,50,-161,197,-91,-48,-137,-114,-106
-27,-188,-158,105,56,-173,257,-43,-12,-131,-132,-124
-75,-218,-146,147,26,-185,353,59,72,-131,-156,-160
-87,-218,-134,153,26,-179,449,142,137,-113,-156,-172
-63,-176,-110,117,26,-143,503,256,245,-47,-120,-142
-39,-146,-104,93,26,-125,539,352,347,18,-60,-94
-9,-92,-80,51,26,-89,527,460,455,102,11,-22
68,27,-50,-38,56,-11,479,568,581,228,125,67
140,153,3,-146,62,78,431,658,719,366,257,187
170,279,105,-224,26,198,335,670,791,504,389,319
260,429,165,-338,44,294,203,634,809,648,527,463
332,591,249,-464,38,426,83,616,821,792,695,631
392,747,345,-566,26,546,-18,592,827,936,857,799
494,897,399,-692,44,648,-138,544,833,1074,1037,973
614,1059,441,-836,86,750,-270,520,839,1212,1205,1141
680,1155,471,-914,104,810,-390,586,917,1332,1349,1273
710,1227,507,-968,98,870,-504,694,1037,1464,1457,1381
734,1317,579,-1022,74,954,-666,760,1121,1572,1553,1483
716,1413,693,-1058,21,1050,-798,748,1127,1650,1631,1555
674,1413,729,-1040,-21,1074,-864,718,1109,1644,1607,1519
626,1281,651,-956,-3,972,-852,682,1061,1530,1457,1393
536,1083,537,-806,9,810,-810,466,779,1236,1199,1165
362,825,459,-590,-39,642,-762,-1,221,756,839,853
200,627,423,-410,-105,522,-708,-499,-354,258,485,559
98,507,399,-296,-147,456,-678,-829,-714,-83,227,325
3,393,393,-194,-195,390,-624,-979,-882,-251,59,163
-105,273,381,-80,-237,324,-552,-985,-900,-323,-24,49
-117,177,291,-33,-207,234,-510,-889,-810,-353,-84,-16
-105,75,183,9,-141,126,-444,-793,-720,-359,-132,-70
-141,22,153,57,-147,78,-372,-697,-636,-359,-168,-124
-129,-14,105,69,-117,36,-330,-637,-582,-347,-186,-154
-105,-26,69,63,-87,12,-294,-589,-534,-347,-186,-154
-111,-44,57,75,-87,6,-228,-517,-468,-335,-198,-166
-105,-56,39,81,-75,-5,-174,-433,-396,-323,-192,-154
-45,-68,-20,57,-9,-47,-114,-373,-324,-299,-180,-148
-45,-98,-50,69,9,-77,-48,-295,-252,-281,-168,-148
-69,-122,-50,93,-3,-89,6,-229,-186,-245,-156,-136
-45,-134,-86,87,26,-113,24,-187,-150,-221,-144,-124
-15,-146,-128,81,50,-137,36,-151,-114,-197,-126,-118
-33,-158,-122,93,38,-143,60,-133,-84,-179,-120,-118
-15,-122,-104,69,38,-113,60,-133,-78,-173,-108,-106
21,-104,-122,39,62,-113,60,-133,-84,-161,-102,-100
-9,-104,-92,57,32,-101,71,-121,-60,-149,-102,-106
-21,-98,-74,57,26,-89,83,-97,-48,-143,-90,-94
-15,-104,-86,57,26,-95,101,-97,-36,-149,-90,-94
-15,-104,-86,57,26,-95,107,-97,-36,-149,-96,-94
-15,-122,-104,69,38,-113,113,-103,-36,-155,-96,-94
-21,-140,-116,81,38,-131,113,-103,-36,-155,-108,-100
-21,-140,-116,81,38,-131,107,-103,-36,-155,-108,-106
-21,-140,-116,81,38,-131,107,-115,-48,-155,-102,-106
-15,-140,-122,75,44,-131,101,-109,-48,-155,-96,-106
-9,-128,-116,69,44,-125,101,-109,-48,-143,-84,-94
-3,-110,-104,57,44,-107,101,-109,-54,-149,-90,-100
-3,-110,-104,57,44,-107,101,-103,-48,-149,-90,-100
-3,-104,-98,51,38,-101,101,-109,-54,-155,-96,-106
-3,-104,-98,51,38,-101,101,-103,-48,-149,-90,-106
-9,-122,-110,63,44,-119,113,-97,-42,-149,-84,-100
-9,-122,-110,63,44,-119,113,-97,-42,-149,-84,-94
-9,-134,-122,69,50,-131,119,-91,-36,-149,-84,-94
-9,-134,-122,69,50,-131,113,-91,-36,-149,-84,-88
-3,-128,-122,63,50,-125,107,-103,-42,-137,-84,-88
3,-116,-116,57,50,-119,101,-103,-42,-137,-72,-82
9,-110,-116,51,56,-113,95,-109,-48,-125,-78,-88
9,-110,-116,51,56,-113,89,-109,-48,-125,-78,-94
9,-98,-104,45,50,-101,101,-97,-42,-125,-84,-88
9,-98,-104,45,50,-101,113,-97,-36,-125,-84,-88
9,-104,-110,45,50,-107,125,-91,-30,-131,-90,-88
3,-110,-110,51,50,-113,131,-91,-30,-131,-90,-88
3,-110,-110,51,50,-113,125,-91,-30,-131,-84,-94
3,-104,-104,51,44,-107,125,-91,-30,-131,-84,-94
3,-104,-104,51,44,-107,119,-91,-30,-125,-78,-94
9,-98,-104,45,50,-101,119,-91,-30,-125,-78,-94
9,-98,-104,45,50,-101,119,-97,-30,-125,-72,-88
15,-98,-110,39,56,-107,113,-91,-30,-119,-66,-82
15,-92,-104,39,50,-101,113,-97,-24,-119,-54,-82
15,-92,-104,39,50,-101,119,-97,-18,-113,-54,-88
-3,-98,-92,51,38,-95,119,-85,-18,-113,-54,-82
-3,-104,-98,51,38,-101,119,-85,-18,-113,-54,-82
-3,-110,-104,57,44,-107,119,-73,-18,-113,-48,-76
-3,-122,-116,63,50,-119,113,-73,-12,-113,-48,-76
3,-122,-122,57,56,-125,107,-79,-12,-107,-54,-82
9,-116,-122,51,56,-119,101,-79,-12,-101,-54,-76
9,-110,-116,51,56,-113,89,-79,-6,-95,-60,-70
9,-110,-116,51,56,-113,89,-79,-6,-89,-60,-70
21,-104,-122,39,62,-113,95,-73,0,-89,-54,-76
21,-92,-110,33,56,-101,95,-67,6,-89,-48,-76
27,-86,-110,27,62,-101,101,-61,12,-83,-36,-70
27,-80,-104,27,56,-95,101,-61,12,-83,-36,-70
33,-80,-110,21,62,-95,101,-55,18,-83,-36,-64
33,-80,-110,21,62,-95,95,-49,24,-77,-36,-58
38,-80,-116,21,68,-101,95,-37,36,-77,-36,-52
38,-80,-122,15,74,-101,95,-37,36,-71,-36,-46
38,-74,-116,15,74,-95,95,-25,42,-65,-24,-46
38,-68,-110,9,68,-89,95,-25,48,-59,-18,-46
38,-68,-116,9,74,-89,89,-19,42,-59,-18,-52
44,-68,-122,3,80,-95,89,-13,48,-59,-18,-46
38,-62,-110,3,74,-83,95,-7,60,-47,-18,-46
38,-62,-110,3,74,-83,95,5,66,-41,0,-40
38,-56,-104,3,68,-77,95,5,78,-41,0,-40
38,-56,-104,3,68,-77,95,5,84,-35,0,-28
56,-50,-116,-9,86,-83,77,11,84,-41,0,-28
56,-38,-104,-15,80,-71,71,11,84,-41,0,-22
74,-32,-116,-27,92,-71,65,23,89,-35,0,-22
62,-32,-104,-21,80,-65,65,29,89,-29,11,-16
68,-32,-110,-27,86,-71,65,41,95,-23,11,-4
74,-26,-110,-33,92,-65,65,47,101,-17,17,-4
80,-26,-116,-33,98,-71,65,47,113,-11,29,8
86,-20,-116,-33,98,-65,60,53,119,-5,35,14
86,-20,-116,-33,98,-65,60,65,119,1,41,20
86,-14,-110,-33,98,-59,54,71,131,7,41,26
86,-2,-98,-33,92,-47,60,83,131,13,47,26
92,-2,-104,-38,98,-53,54,89,137,18,53,32
98,4,-104,-44,98,-47,42,89,137,18,59,32
104,4,-110,-44,104,-53,36,95,149,18,65,44
110,10,-110,-50,110,-47,24,95,149,18,71,44
116,10,-116,-56,116,-53,18,106,155,18,77,44
110,10,-110,-50,110,-47,12,106,161,30,83,49
116,16,-110,-56,110,-47,6,106,173,36,83,49
122,22,-110,-62,116,-41,0,112,179,48,89,55
122,22,-110,-62,116,-41,-6,112,185,48,95,61
116,22,-104,-62,110,-41,-12,112,179,48,95,61
122,22,-110,-62,116,-41,-18,112,179,54,101,61
122,27,-104,-68,110,-35,-18,112,179,60,107,73
122,27,-104,-68,110,-35,-24,112,179,60,113,73
128,27,-98,-74,116,-29,-24,106,173,60,113,67
134,27,-104,-80,122,-29,-30,106,173,54,113,73
140,33,-104,-86,122,-29,-36,106,167,54,113,67
146,33,-110,-86,128,-29,-42,106,167,60,113,67
146,39,-104,-92,128,-23,-36,106,173,60,119,67
146,39,-104,-92,128,-23,-36,101,161,54,119,67
146,51,-92,-98,122,-11,-36,106,155,54,119,73
152,51,-98,-98,128,-17,-30,101,149,54,119,73
146,51,-92,-98,122,-11,-36,101,149,60,113,73
146,51,-92,-98,122,-11,-42,95,143,60,113,73
140,45,-92,-92,116,-17,-48,95,137,54,113,73
134,51,-80,-92,110,-5,-48,89,137,48,113,73
134,51,-80,-92,110,-5,-48,95,143,54,119,73
140,51,-86,-92,116,-11,-54,89,137,54,125,73
140,51,-86,-92,116,-11,-54,95,137,60,125,73
140,51,-86,-92,116,-11,-54,95,137,60,125,73
140,51,-86,-92,116,-11,-48,95,137,60,119,67
134,51,-80,-92,110,-5,-48,95,131,60,119,67
134,51,-80,-92,110,-5,-48,95,125,60,113,61
128,51,-74,-86,104,-5,-48,95,125,60,107,61
122,51,-68,-86,98,1,-54,83,119,48,101,61
122,51,-68,-86,98,1,-54,77,113,48,95,61
122,51,-68,-86,98,1,-42,65,113,36,95,55
122,51,-68,-86,98,1,-36,59,107,36,95,55
128,57,-68,-92,98,1,-24,65,113,42,95,61
122,45,-74,-80,98,-5,-18,71,107,36,95,49
128,51,-74,-86,104,-5,-6,65,113,42,101,49
122,51,-68,-86,98,1,0,65,107,30,101,49
110,33,-74,-68,92,-11,12,59,101,30,83,49
98,27,-68,-62,86,-11,18,53,101,30,77,49
86,27,-68,-50,74,-17,30,53,95,24,65,38
74,22,-62,-38,68,-17,36,47,89,24,59,38
74,16,-68,-38,68,-23,42,41,89,18,59,32
74,16,-68,-38,68,-23,48,35,89,18,59,20
68,16,-62,-33,62,-23,54,23,78,13,59,14
68,16,-62,-33,62,-23,65,17,72,7,53,8
56,10,-56,-33,56,-23,65,11,66,1,41,2
50,10,-50,-33,50,-17,71,5,60,1,35,-10
50,10,-50,-33,50,-17,83,-1,48,-5,23,-10
44,-2,-56,-27,50,-29,95,-7,36,-11,17,-10
50,-2,-62,-33,56,-29,95,-13,30,-17,11,-22
38,-2,-50,-27,44,-23,101,-19,30,-23,11,-28
38,-8,-56,-21,44,-29,113,-25,30,-29,0,-40
38,-8,-56,-21,44,-29,119,-31,30,-35,-6,-52
38,-8,-50,-21,38,-29,125,-31,24,-41,0,-52
38,-20,-56,-9,38,-41,131,-31,18,-41,0,-58
33,-20,-50,-9,32,-35,131,-31,12,-47,6,-58
21,-20,-38,-3,26,-29,143,-37,6,-53,0,-58
21,-26,-44,3,26,-35,149,-49,12,-47,-6,-58
21,-26,-44,3,26,-35,149,-55,6,-47,-12,-58
21,-26,-44,3,26,-35,155,-61,6,-41,-12,-58
9,-32,-38,9,26,-35,155,-61,6,-41,-12,-58
9,-38,-44,15,26,-41,155,-67,0,-47,-12,-64
9,-38,-44,15,26,-41,161,-67,-6,-53,-12,-64
21,-44,-62,9,32,-53,161,-79,-12,-59,-12,-76
21,-44,-62,9,32,-53,161,-79,-12,-71,-12,-76
15,-50,-62,15,32,-59,167,-73,-6,-65,-12,-70
9,-50,-56,21,26,-53,167,-73,-6,-65,-12,-76
3,-56,-56,27,26,-59,173,-73,0,-59,-18,-76
-9,-56,-44,33,21,-53,173,-73,0,-53,-24,-76
-3,-50,-44,27,26,-47,173,-73,0,-59,-24,-76
-3,-44,-38,21,21,-41,173,-67,0,-59,-24,-76
3,-44,-44,21,26,-47,173,-67,0,-65,-24,-76
3,-38,-38,15,26,-41,173,-73,0,-65,-24,-76
3,-32,-32,15,21,-35,173,-73,0,-59,-18,-70
3,-32,-32,15,21,-35,179,-67,6,-53,-12,-70
3,-32,-32,15,21,-35,179,-67,6,-47,0,-70
3,-32,-32,15,21,-35,173,-67,0,-47,0,-70
-3,-38,-32,21,21,-35,179,-67,0,-53,-6,-76
-9,-38,-26,21,15,-35,179,-67,0,-53,-12,-70
-15,-38,-20,27,9,-29,185,-67,0,-59,-18,-76
-15,-38,-20,27,9,-29,185,-67,6,-59,-24,-76
-9,-50,-38,27,21,-47,185,-61,0,-59,-24,-76
-9,-38,-26,21,15,-35,191,-61,6,-59,-24,-76
-3,-38,-32,21,21,-35,185,-55,0,-53,-12,-82
3,-44,-44,21,26,-47,185,-55,0,-53,-12,-82
-3,-44,-38,21,21,-41,179,-55,0,-53,-12,-76
-3,-44,-38,21,21,-41,179,-55,0,-53,-12,-76
-9,-44,-32,27,15,-41,179,-61,0,-47,-12,-76
-15,-44,-26,27,9,-35,179,-61,-6,-47,-12,-76
-9,-38,-26,21,15,-35,185,-55,-6,-41,-12,-76
-3,-38,-32,21,21,-35,185,-55,-6,-41,-12,-82
3,-32,-32,15,21,-35,191,-49,6,-35,-18,-82
3,-32,-32,15,21,-35,191,-49,6,-35,-24,-76
9,-32,-38,9,26,-35,185,-49,6,-41,-18,-76
9,-32,-38,9,26,-35,185,-49,6,-41,-18,-76
15,-32,-44,9,26,-41,179,-49,0,-47,-12,-76
9,-32,-38,9,26,-35,179,-49,-12,-47,-6,-76
3,-32,-32,15,21,-35,185,-49,-12,-41,-12,-82
-3,-32,-26,15,15,-29,185,-49,-12,-41,-12,-82
-3,-32,-26,15,15,-29,191,-55,-12,-41,-18,-88
-9,-32,-20,21,9,-29,191,-55,-12,-41,-30,-88
-3,-32,-26,15,15,-29,185,-55,-12,-47,-24,-88
-9,-32,-20,21,9,-29,185,-55,-12,-41,-24,-88
-3,-44,-38,21,21,-41,173,-55,-18,-47,-18,-82
3,-44,-44,21,26,-47,173,-55,-24,-53,-18,-82
-3,-50,-44,27,26,-47,173,-61,-30,-53,-24,-88
-9,-50,-38,27,21,-47,173,-61,-30,-53,-24,-88
-15,-56,-38,33,15,-47,173,-73,-36,-53,-30,-100
-27,-68,-38,45,9,-53,173,-73,-42,-53,-36,-100
-21,-62,-38,39,15,-53,173,-73,-36,-53,-36,-100
-15,-56,-38,33,15,-47,173,-73,-36,-53,-36,-100
-3,-50,-44,27,26,-47,173,-79,-30,-53,-36,-100
3,-44,-44,21,26,-47,173,-79,-24,-53,-36,-100
-3,-50,-44,27,26,-47,179,-73,-24,-53,-36,-94
-9,-56,-44,33,21,-53,179,-73,-30,-59,-30,-94
-15,-68,-50,39,21,-59,185,-73,-30,-59,-24,-88
-15,-74,-56,45,26,-65,185,-67,-30,-65,-24,-88
-3,-62,-56,33,26,-59,197,-67,-18,-53,-30,-94
-15,-62,-44,39,21,-53,179,-67,-24,-59,-42,-100
-9,-62,-50,33,26,-59,173,-73,-30,-65,-48,-106
-9,-62,-50,33,26,-59,173,-79,-36,-65,-48,-106
-3,-62,-56,33,26,-59,167,-85,-42,-71,-54,-112
-3,-62,-56,33,26,-59,167,-91,-48,-71,-54,-112
-9,-56,-44,33,21,-53,167,-85,-48,-71,-54,-112
-9,-56,-44,33,21,-53,167,-91,-54,-71,-54,-112
-15,-62,-44,39,21,-53,173,-85,-54,-71,-54,-112
-15,-62,-44,39,21,-53,173,-85,-54,-71,-54,-112
-21,-62,-38,39,15,-53,173,-91,-54,-71,-54,-112
-21,-62,-38,39,15,-53,173,-91,-54,-71,-54,-118
-9,-62,-50,33,26,-59,173,-103,-54,-65,-60,-118
-9,-62,-50,33,26,-59,173,-103,-54,-65,-60,-118
-9,-62,-50,33,26,-59,173,-97,-54,-65,-60,-118
-9,-68,-56,39,26,-65,173,-97,-54,-65,-60,-118
-9,-68,-56,39,26,-65,173,-97,-54,-65,-60,-118
-9,-68,-56,39,26,-65,173,-97,-54,-65,-60,-118
-3,-62,-56,33,26,-59,167,-97,-54,-71,-66,-124
-3,-62,-56,33,26,-59,167,-97,-54,-71,-66,-124
-15,-56,-38,33,15,-47,161,-97,-54,-77,-72,-130
-15,-56,-38,33,15,-47,161,-97,-54,-77,-72,-130
-3,-62,-56,33,26,-59,167,-103,-54,-71,-66,-130
-3,-62,-56,33,26,-59,167,-103,-54,-71,-66,-130
3,-62,-62,27,26,-65,173,-109,-54,-65,-60,-124
9,-62,-68,27,32,-65,173,-109,-54,-65,-60,-118
3,-50,-50,21,26,-53,173,-97,-54,-59,-66,-118
3,-44,-44,21,26,-47,185,-91,-42,-53,-54,-112
-3,-38,-32,21,21,-35,185,-85,-42,-53,-54,-106
-3,-26,-20,15,15,-23,191,-79,-36,-47,-54,-100
-15,-20,-15,15,-3,-11,197,-67,-24,-41,-48,-100
-15,-14,-9,15,-3,-5,203,-67,-24,-41,-48,-100
-21,-14,-3,15,-9,-5,203,-61,-18,-35,-48,-100
-15,-14,-9,15,-3,-5,203,-61,-18,-35,-48,-100
-9,-14,-15,9,3,-11,209,-61,-24,-35,-48,-100
-9,-14,-15,9,3,-11,209,-55,-24,-35,-48,-100
3,-14,-15,3,15,-17,209,-55,-30,-29,-48,-100
3,-8,-15,3,9,-11,209,-61,-30,-29,-48,-100
-3,-2,-9,3,3,1,209,-61,-24,-35,-48,-100
-3,-2,-9,3,3,1,209,-61,-24,-35,-48,-100
-9,-2,-3,3,-3,1,203,-61,-24,-41,-48,-106
-9,-2,-3,3,-3,1,203,-61,-24,-41,-48,-106
-3,16,9,-9,-9,6,185,-55,-18,-35,-42,-100
-3,27,27,-15,-15,24,185,-49,-12,-23,-36,-94
3,39,39,-27,-15,36,179,-43,-12,-5,-24,-82
9,45,39,-33,-15,42,167,-43,-12,-5,-24,-82
9,45,39,-33,-15,42,167,-55,-18,-5,-24,-76
15,39,27,-33,-3,30,161,-61,-30,-11,-30,-82
15,39,27,-33,-3,30,161,-61,-30,-11,-30,-76
27,45,21,-33,3,30,155,-61,-30,-11,-30,-76
27,51,27,-33,3,36,155,-61,-30,-11,-36,-82
33,51,21,-33,9,36,149,-61,-30,-11,-36,-82
38,51,3,-44,26,30,149,-55,-30,-17,-36,-82
44,51,-3,-44,26,24,143,-55,-30,-17,-36,-82
50,39,-15,-44,32,12,131,-61,-36,-29,-36,-82
50,27,-20,-38,38,6,131,-61,-36,-17,-42,-82
50,27,-26,-33,38,6,131,-61,-36,-17,-42,-82
44,22,-32,-33,38,-5,137,-55,-30,-17,-42,-82
38,22,-26,-33,32,1,131,-49,-24,-11,-36,-82
38,22,-26,-33,32,1,131,-43,-24,-11,-30,-88
38,4,-32,-21,26,-17,125,-37,-18,-17,-36,-88
21,-8,-26,-9,26,-17,131,-37,-30,-23,-36,-94
15,-20,-32,3,26,-29,137,-49,-30,-35,-48,-106
15,-32,-44,9,26,-41,137,-55,-42,-41,-60,-112
15,-38,-50,9,26,-47,137,-67,-42,-53,-72,-130
15,-50,-62,15,32,-59,137,-73,-54,-59,-90,-136
9,-56,-62,21,26,-59,137,-73,-54,-59,-90,-136
-3,-62,-56,33,26,-59,137,-79,-54,-65,-96,-142
-9,-80,-68,45,26,-77,137,-73,-54,-65,-102,-136
-15,-80,-62,45,26,-71,137,-79,-54,-65,-108,-142
-27,-86,-56,57,21,-71,137,-85,-60,-71,-108,-148
-27,-92,-62,57,21,-77,137,-85,-66,-77,-108,-148
-33,-92,-56,63,15,-77,131,-91,-72,-77,-114,-148
-33,-98,-62,63,21,-83,131,-91,-72,-77,-114,-148
-27,-92,-62,57,21,-77,131,-97,-78,-77,-114,-154
-27,-92,-62,57,21,-77,125,-97,-78,-77,-114,-154
-21,-86,-62,51,26,-77,125,-103,-84,-77,-120,-160
-21,-92,-68,57,26,-83,125,-109,-84,-83,-120,-166
-27,-98,-68,63,26,-83,125,-103,-78,-83,-120,-166
-27,-92,-62,57,21,-77,125,-103,-78,-77,-120,-166
-33,-98,-62,63,21,-83,125,-97,-72,-77,-120,-166
-39,-104,-62,69,15,-83,125,-91,-72,-77,-120,-166
-33,-98,-62,63,21,-83,125,-91,-72,-71,-114,-160
-27,-98,-68,63,26,-83,125,-91,-72,-71,-114,-160
-21,-92,-68,57,26,-83,125,-91,-72,-65,-108,-154
-15,-92,-74,51,26,-83,125,-85,-66,-65,-108,-154
-15,-104,-86,57,26,-95,143,-97,-78,-65,-108,-154
-51,-116,-62,81,9,-89,155,-85,-66,-71,-108,-154
-39,-110,-68,75,21,-89,149,-85,-66,-71,-120,-154
-27,-116,-86,69,26,-101,155,-73,-54,-59,-120,-154
-45,-134,-86,87,26,-113,173,-43,-30,-71,-126,-160
-51,-140,-86,93,21,-113,185,-31,-12,-77,-138,-178
-27,-152,-122,87,38,-137,233,17,12,-83,-156,-190
-51,-200,-146,123,38,-173,329,106,72,-71,-168,-226
-75,-212,-134,141,26,-173,425,202,149,-53,-180,-238
-39,-164,-122,99,32,-143,491,316,257,1,-156,-220
-15,-122,-104,69,38,-113,527,436,383,66,-96,-178
3,-80,-80,39,32,-83,539,556,503,150,-42,-118
44,27,-26,-33,32,1,515,670,629,270,53,-28
92,153,51,-122,26,102,455,778,767,414,191,79
134,267,129,-200,9,204,371,802,857,564,329,217
200,417,213,-302,3,312,239,766,875,720,473,355
308,591,273,-452,26,438,95,712,875,864,647,529
380,747,357,-560,21,552,-18,676,887,1014,821,697
458,897,435,-674,21,666,-138,646,893,1170,983,865
554,1035,471,-794,38,756,-246,622,899,1314,1157,1033
620,1143,513,-878,50,828,-366,664,965,1464,1301,1183
662,1215,543,-938,56,882,-480,766,1067,1578,1409,1285
686,1305,615,-998,32,966,-618,832,1169,1704,1505,1375
656,1413,747,-1028,-39,1080,-750,820,1187,1788,1583,1453
590,1437,837,-1010,-117,1140,-864,754,1145,1794,1583,1453
566,1341,765,-956,-93,1056,-888,718,1091,1722,1475,1357
518,1155,633,-830,-51,894,-846,604,905,1488,1253,1165
374,909,525,-638,-69,720,-786,190,395,1038,923,877
224,711,477,-464,-123,594,-744,-337,-234,462,539,571
146,573,423,-356,-135,498,-714,-685,-654,24,251,313
38,465,429,-248,-195,444,-660,-871,-876,-197,47,139
-93,345,441,-122,-261,390,-588,-937,-936,-311,-72,8
-129,249,375,-50,-249,306,-534,-877,-882,-353,-144,-88
-129,147,273,-15,-201,210,-480,-757,-768,-335,-204,-154
-165,57,225,45,-195,138,-408,-661,-666,-335,-228,-202
-141,27,165,51,-153,90,-354,-607,-606,-311,-240,-220
-93,27,117,27,-105,66,-306,-541,-546,-287,-228,-220
-99,-8,81,51,-93,30,-252,-469,-480,-275,-228,-208
-93,-32,51,63,-75,6,-186,-397,-420,-263,-234,-208
-45,-32,3,39,-27,-11,-150,-313,-348,-239,-228,-214
-45,-50,-15,45,-15,-29,-84,-223,-264,-215,-216,-202
-57,-74,-15,63,-15,-47,-42,-145,-186,-203,-216,-214
-57,-98,-38,75,-3,-71,-12,-121,-150,-185,-216,-214
-51,-110,-56,81,9,-83,12,-85,-126,-173,-210,-208
-69,-122,-50,93,-3,-89,24,-67,-96,-143,-192,-208
-39,-98,-56,69,15,-77,24,-55,-78,-125,-180,-190
9,-68,-74,27,32,-71,36,-37,-60,-101,-162,-172
3,-68,-68,33,26,-71,65,-13,-36,-77,-150,-154
3,-74,-74,33,32,-77,71,-1,-24,-71,-150,-154
3,-74,-74,33,32,-77,83,5,-12,-71,-144,-154
3,-74,-74,33,32,-77,89,5,-12,-71,-150,-154
-3,-86,-80,45,32,-83,89,5,-12,-71,-144,-154
-9,-104,-92,57,32,-101,89,5,-12,-71,-156,-160
-15,-104,-86,57,26,-95,83,-1,-12,-77,-162,-166
-15,-104,-86,57,26,-95,83,-13,-24,-77,-156,-166
-15,-104,-86,57,26,-95,77,-13,-24,-83,-156,-166
-9,-92,-80,51,26,-89,77,-13,-24,-71,-144,-154
3,-86,-86,39,38,-89,77,-7,-30,-65,-144,-154
9,-86,-92,39,44,-89,77,-1,-24,-65,-144,-154
15,-92,-104,39,50,-101,77,-1,-30,-59,-144,-154
21,-92,-110,33,56,-101,77,5,-24,-53,-138,-154
9,-98,-104,45,50,-101,89,11,-18,-53,-144,-160
3,-98,-98,45,44,-101,89,11,-18,-53,-144,-160
-3,-98,-92,51,38,-95,95,17,-12,-53,-156,-172
-9,-98,-86,51,32,-95,89,17,-12,-53,-156,-172
3,-92,-92,45,38,-95,83,5,-18,-47,-150,-160
9,-80,-86,33,38,-83,83,5,-18,-47,-138,-148
21,-74,-92,27,50,-83,77,-1,-24,-41,-138,-142
21,-74,-92,27,50,-83,77,-1,-24,-41,-138,-142
21,-68,-86,21,44,-77,83,11,-18,-29,-138,-142
21,-68,-86,21,44,-77,89,11,-12,-29,-138,-142
21,-80,-98,27,50,-89,95,17,-6,-23,-138,-148
15,-86,-98,33,50,-95,95,17,-6,-23,-138,-148
9,-86,-92,39,44,-89,89,17,-6,-29,-138,-154
9,-80,-86,33,38,-83,89,17,-6,-29,-138,-154
3,-80,-80,39,32,-83,83,17,-6,-29,-138,-154
9,-74,-80,33,38,-77,83,17,-6,-29,-138,-154
15,-74,-86,27,44,-83,83,11,-12,-29,-138,-142
21,-74,-92,27,50,-83,77,17,-12,-23,-132,-136
27,-68,-92,21,50,-83,77,11,-12,-23,-126,-130
27,-68,-92,21,50,-83,83,11,-6,-17,-126,-136
9,-74,-80,33,38,-77,83,23,0,-11,-132,-136
9,-74,-80,33,38,-77,83,23,6,-11,-132,-136
9,-80,-86,33,38,-83,83,35,12,-5,-132,-136
9,-86,-92,39,44,-89,77,35,24,-5,-132,-136
21,-80,-98,27,50,-89,77,29,18,-11,-132,-136
27,-74,-98,21,56,-89,71,29,18,-5,-126,-130
33,-62,-92,15,56,-77,65,29,18,-11,-126,-118
33,-62,-92,15,56,-77,65,29,18,-5,-120,-118
38,-68,-104,15,62,-89,65,41,24,1,-126,-118
38,-62,-98,9,62,-83,65,47,30,1,-120,-118
38,-68,-104,15,62,-89,65,59,36,13,-120,-106
38,-68,-104,15,62,-89,65,59,36,13,-120,-106
38,-62,-98,9,62,-83,65,59,36,7,-114,-112
38,-56,-92,9,56,-77,65,65,42,13,-114,-106
38,-50,-86,3,56,-71,65,71,48,7,-108,-112
38,-44,-86,-3,56,-65,65,71,48,13,-108,-106
38,-44,-92,-3,62,-65,65,77,54,18,-102,-94
38,-38,-86,-9,62,-59,60,77,60,18,-96,-94
50,-44,-104,-9,74,-71,48,77,54,18,-102,-88
56,-44,-110,-15,80,-77,42,83,60,18,-102,-82
50,-38,-98,-15,74,-65,48,95,72,30,-102,-82
44,-38,-92,-9,68,-65,54,106,78,36,-84,-76
44,-32,-86,-15,62,-59,54,106,89,42,-84,-76
38,-32,-80,-9,56,-53,60,106,89,48,-84,-64
56,-32,-98,-21,74,-65,42,106,89,42,-78,-64
62,-20,-92,-27,74,-53,36,106,89,42,-78,-58
80,-20,-110,-33,92,-65,30,106,101,48,-72,-58
74,-20,-104,-33,86,-59,24,112,107,54,-60,-52
74,-20,-104,-33,86,-59,24,124,113,60,-54,-40
80,-14,-104,-33,92,-59,18,130,119,66,-48,-40
80,-14,-104,-33,92,-59,18,130,125,72,-42,-28
86,-8,-104,-33,92,-53,12,136,131,78,-36,-22
86,-8,-104,-33,92,-53,12,142,137,84,-30,-22
86,-2,-98,-33,92,-47,6,148,149,90,-30,-16
86,10,-86,-38,86,-35,12,154,155,96,-24,-22
92,10,-92,-44,92,-41,6,160,161,102,-18,-16
98,10,-98,-44,98,-41,-6,166,167,114,-18,-10
104,10,-104,-50,104,-47,-12,172,179,120,-12,2
110,10,-110,-50,110,-47,-24,178,185,126,-12,8
116,10,-116,-56,116,-53,-30,190,191,126,-6,8
110,10,-110,-50,110,-47,-36,190,197,132,0,14
110,16,-104,-56,104,-41,-42,196,203,138,0,14
116,22,-104,-62,110,-41,-48,196,209,144,6,20
110,22,-98,-56,104,-35,-54,196,209,144,11,26
116,27,-98,-62,104,-35,-54,190,203,138,6,26
122,27,-104,-68,110,-35,-60,190,203,144,11,26
134,27,-104,-80,122,-29,-54,184,203,144,11,38
134,27,-104,-80,122,-29,-60,184,203,144,11,38
134,39,-92,-86,116,-17,-66,184,203,144,11,38
134,39,-92,-86,116,-17,-72,184,203,138,11,44
134,45,-86,-86,110,-11,-84,184,203,138,11,44
134,45,-86,-86,110,-11,-90,184,203,144,11,44
128,45,-80,-86,104,-11,-90,178,203,144,11,44
128,45,-80,-86,104,-11,-96,172,191,138,11,44
122,51,-68,-86,98,1,-102,178,179,138,11,49
128,51,-74,-86,104,-5,-102,172,173,138,11,49
134,51,-80,-92,110,-5,-102,160,173,144,11,44
140,51,-86,-92,116,-11,-108,154,167,144,11,44
146,45,-98,-92,122,-17,-108,142,161,138,6,38
146,51,-92,-98,122,-11,-108,136,161,132,6,38
140,57,-80,-98,110,-5,-108,136,161,126,11,44
140,57,-80,-98,110,-5,-114,130,155,126,11,44
134,63,-68,-98,104,6,-114,130,149,120,11,49
128,63,-62,-92,98,6,-114,130,149,120,11,49
134,57,-74,-92,104,1,-114,124,143,126,11,49
128,57,-68,-92,98,1,-114,124,137,126,11,49
134,51,-80,-92,110,-5,-120,118,125,132,6,49
128,51,-74,-86,104,-5,-120,118,125,132,0,49
122,57,-62,-86,92,6,-120,112,125,120,0,44
122,57,-62,-86,92,6,-120,112,119,120,-6,44
122,63,-56,-92,92,6,-102,106,125,108,0,32
122,63,-56,-92,92,6,-96,106,119,108,0,32
116,63,-50,-86,86,6,-96,106,119,108,-12,38
110,51,-56,-80,86,6,-90,106,113,102,-12,26
104,51,-50,-74,80,6,-90,106,113,102,-18,26
98,51,-44,-74,74,6,-84,101,107,90,-18,20
98,39,-56,-68,80,1,-72,95,101,90,-24,20
92,39,-50,-62,74,1,-66,89,101,90,-30,20
92,33,-56,-62,74,-5,-54,89,95,84,-30,14
86,33,-50,-56,68,1,-48,83,89,84,-36,14
74,27,-50,-44,62,-5,-42,77,89,72,-48,2
68,27,-50,-38,56,-11,-36,71,89,60,-48,-10
50,22,-38,-33,44,-5,-30,59,78,48,-60,-22
44,16,-38,-33,38,-11,-18,53,72,42,-66,-28
44,16,-38,-33,38,-11,-6,53,72,42,-72,-34
44,16,-38,-33,38,-11,0,47,66,48,-72,-40
56,22,-44,-33,50,-11,12,47,60,48,-78,-40
56,10,-56,-33,56,-23,24,41,48,48,-78,-34
50,10,-50,-33,50,-17,30,29,42,36,-84,-40
38,10,-38,-33,38,-11,36,23,42,30,-90,-40
38,4,-32,-21,26,-17,54,11,42,18,-96,-46
38,4,-32,-21,26,-17,60,5,42,18,-102,-52
33,4,-26,-21,26,-11,60,-1,30,18,-108,-58
27,-8,-32,-9,26,-23,65,-1,24,18,-108,-64
21,-8,-26,-9,26,-17,60,-7,12,13,-114,-70
9,-8,-15,-3,15,-11,65,-13,6,7,-120,-70
15,-14,-26,-3,26,-23,65,-19,6,7,-120,-70
15,-14,-26,-3,26,-23,65,-25,0,7,-126,-70
21,-14,-32,-3,26,-23,65,-25,-6,7,-120,-70
9,-20,-26,3,21,-23,65,-25,-6,7,-120,-70
-3,-20,-15,9,9,-17,65,-25,-6,1,-126,-76
-3,-20,-15,9,9,-17,71,-25,-12,1,-132,-76
-3,-20,-15,9,9,-17,77,-31,-12,-5,-138,-88
-3,-20,-15,9,9,-17,77,-31,-12,-11,-144,-88
3,-20,-20,9,15,-23,77,-31,-12,-5,-138,-82
3,-20,-20,9,15,-23,77,-31,-12,-11,-138,-88
9,-20,-26,3,21,-23,77,-37,-12,-5,-138,-88
3,-20,-20,9,15,-23,77,-37,-12,-5,-144,-88
3,-20,-20,9,15,-23,83,-31,-12,-5,-144,-88
3,-20,-20,9,15,-23,83,-25,-12,-5,-144,-88
3,-26,-26,9,21,-29,89,-19,-12,-5,-144,-88
3,-26,-26,9,21,-29,89,-25,-12,-5,-144,-88
3,-14,-15,3,15,-17,89,-25,-12,1,-144,-76
3,-14,-15,3,15,-17,95,-19,-6,7,-138,-76
3,-8,-15,3,9,-11,95,-19,-6,13,-132,-70
3,-8,-15,3,9,-11,89,-19,-12,13,-132,-70
3,-14,-15,3,15,-17,83,-19,-12,7,-132,-76
-3,-14,-15,9,9,-11,83,-19,-12,7,-132,-76
-3,-14,-15,9,9,-11,77,-19,-12,1,-132,-82
-3,-14,-15,9,9,-11,77,-19,-6,1,-132,-88
-3,-26,-20,15,15,-23,77,-19,-6,7,-132,-82
-3,-14,-15,9,9,-11,83,-19,0,7,-132,-76
-3,-14,-15,9,9,-11,77,-19,0,18,-120,-76
3,-20,-20,9,15,-23,77,-19,0,18,-120,-70
3,-20,-20,9,15,-23,77,-13,0,13,-126,-64
3,-20,-20,9,15,-23,83,-13,0,13,-126,-64
3,-20,-20,9,15,-23,89,-13,0,13,-132,-64
-3,-20,-15,9,9,-17,95,-13,-6,13,-132,-64
-3,-20,-15,9,9,-17,89,-13,-12,13,-132,-70
3,-20,-20,9,15,-23,89,-13,-12,13,-132,-76
3,-20,-20,9,15,-23,83,-13,-6,13,-138,-82
3,-20,-20,9,15,-23,83,-13,-6,13,-144,-76
9,-14,-20,3,21,-17,83,-7,0,18,-138,-70
9,-14,-20,3,21,-17,83,-7,0,18,-132,-70
15,-8,-20,-3,21,-17,83,-1,0,18,-126,-64
9,-8,-15,-3,15,-11,83,-1,-12,18,-114,-64
9,-14,-20,3,21,-17,83,-7,-6,18,-120,-64
9,-14,-20,3,21,-17,83,-7,-6,18,-120,-64
15,-20,-32,3,26,-29,83,-19,0,7,-126,-64
15,-20,-32,3,26,-29,83,-19,0,7,-138,-64
15,-14,-26,-3,26,-23,83,-13,6,13,-132,-64
9,-14,-20,3,21,-17,83,-13,6,18,-132,-64
9,-20,-26,3,21,-23,77,-7,6,18,-126,-58
15,-20,-32,3,26,-29,77,-7,0,18,-126,-58
9,-26,-32,9,26,-29,77,-13,0,13,-132,-58
9,-20,-26,3,21,-23,77,-13,0,13,-132,-58
3,-26,-26,9,21,-29,77,-25,0,7,-138,-64
-3,-32,-26,15,15,-29,77,-25,-6,7,-144,-64
-3,-32,-26,15,15,-29,83,-25,-6,7,-144,-64
-3,-32,-26,15,15,-29,83,-25,-6,7,-144,-64
3,-32,-32,15,21,-35,89,-31,-6,7,-144,-64
3,-32,-32,15,21,-35,89,-31,0,7,-144,-64
15,-32,-44,9,26,-41,77,-31,0,18,-132,-64
9,-32,-38,9,26,-35,77,-25,-6,18,-138,-64
21,-14,-32,-3,26,-23,77,-31,-6,13,-132,-64
38,-14,-56,-15,44,-35,65,-31,-6,7,-132,-52
9,-26,-32,9,26,-29,71,-31,0,1,-138,-64
3,-32,-32,15,21,-35,71,-37,0,-5,-144,-70
3,-32,-32,15,21,-35,71,-37,0,-5,-144,-70
-3,-38,-32,21,21,-35,71,-43,0,-11,-150,-76
-3,-38,-32,21,21,-35,71,-43,0,-11,-150,-76
-3,-38,-32,21,21,-35,71,-49,-6,-5,-150,-76
-3,-38,-32,21,21,-35,71,-55,-12,-5,-150,-76
-3,-50,-44,27,26,-47,77,-61,-18,1,-150,-76
-3,-50,-44,27,26,-47,77,-61,-18,1,-150,-76
-9,-50,-38,27,21,-47,77,-61,-12,-5,-150,-70
-9,-50,-38,27,21,-47,77,-61,-12,-5,-150,-76
3,-50,-50,21,26,-53,77,-67,-6,-5,-156,-70
3,-50,-50,21,26,-53,77,-67,-6,-5,-156,-70
-3,-50,-44,27,26,-47,77,-73,0,-5,-156,-70
-3,-56,-50,27,26,-53,77,-73,0,-5,-156,-70
-9,-56,-44,33,21,-53,77,-85,6,-5,-156,-70
-9,-56,-44,33,21,-53,77,-85,6,-5,-156,-70
3,-56,-56,27,26,-59,77,-85,0,-11,-156,-70
3,-56,-56,27,26,-59,77,-85,0,-11,-156,-70
-3,-56,-50,27,26,-53,77,-85,-6,-17,-156,-70
-3,-56,-50,27,26,-53,77,-85,-6,-17,-156,-70
3,-62,-62,27,26,-65,77,-85,0,-11,-156,-76
3,-62,-62,27,26,-65,77,-85,0,-11,-156,-76
3,-62,-62,27,26,-65,77,-85,6,-5,-156,-76
9,-62,-68,27,32,-65,77,-85,6,-5,-156,-70
9,-50,-56,21,26,-53,77,-79,12,7,-156,-76
9,-44,-50,15,26,-47,89,-79,24,13,-144,-70
9,-38,-44,15,26,-41,89,-79,30,18,-138,-70
9,-26,-32,9,26,-29,95,-79,36,18,-138,-64
-3,-20,-15,9,9,-17,101,-67,42,18,-138,-58
-3,-14,-15,9,9,-11,107,-67,42,18,-138,-58
-9,-14,-15,9,3,-11,107,-61,42,18,-144,-52
-3,-14,-15,9,9,-11,107,-61,42,18,-144,-52
3,-8,-15,3,9,-11,113,-55,42,18,-138,-52
3,-8,-15,3,9,-11,113,-49,42,18,-138,-52
15,-2,-15,-9,21,-11,113,-43,42,18,-132,-52
15,4,-15,-9,15,-5,113,-49,42,18,-132,-52
15,10,-15,-15,15,1,107,-55,42,18,-132,-46
15,10,-15,-15,15,1,107,-55,42,18,-132,-46
15,10,-15,-15,15,1,95,-61,36,18,-132,-46
15,10,-15,-15,15,1,95,-61,36,18,-132,-46
9,16,-3,-15,3,6,89,-55,42,18,-126,-34
9,27,15,-21,-3,18,89,-49,48,30,-120,-28
3,27,27,-21,-9,24,95,-43,48,42,-108,-10
9,33,27,-27,-9,30,83,-43,48,42,-108,-10
15,39,27,-33,-3,30,77,-55,42,36,-108,-10
21,33,15,-33,3,24,71,-61,30,30,-114,-16
27,39,15,-33,9,24,65,-61,30,24,-114,-16
38,45,9,-33,15,24,65,-61,30,24,-114,-16
38,45,9,-33,15,24,65,-67,24,30,-114,-16
38,45,3,-38,21,24,60,-67,24,30,-114,-16
50,39,-15,-44,32,12,54,-67,18,30,-108,-10
56,39,-15,-44,38,6,48,-67,18,30,-108,-10
56,27,-26,-38,44,6,36,-67,18,18,-108,-4
56,27,-38,-33,44,-5,36,-67,18,30,-114,-4
50,22,-38,-33,44,-5,36,-61,24,30,-114,2
44,10,-44,-33,44,-17,42,-55,30,30,-114,2
50,16,-44,-33,44,-11,42,-55,30,30,-114,-10
50,16,-44,-33,44,-11,42,-55,30,30,-114,-16
50,4,-56,-33,50,-23,42,-55,30,18,-126,-28
38,-8,-50,-21,38,-29,48,-61,18,18,-132,-34
21,-26,-44,3,26,-35,54,-67,18,18,-138,-40
15,-38,-50,9,26,-47,54,-73,6,13,-144,-46
-3,-50,-44,27,26,-47,54,-79,6,7,-150,-58
-9,-62,-50,33,26,-59,54,-85,-6,1,-162,-64
-3,-62,-56,33,26,-59,54,-85,-12,-5,-162,-70
-9,-68,-56,39,26,-65,54,-91,-12,-11,-168,-76
-3,-80,-74,39,26,-77,54,-85,-18,-17,-174,-76
-3,-80,-74,39,26,-77,54,-91,-18,-17,-180,-82
-9,-86,-74,45,26,-83,54,-97,-24,-23,-180,-88
-9,-92,-80,51,26,-89,54,-97,-30,-29,-180,-88
-9,-92,-80,51,26,-89,48,-103,-36,-29,-186,-88
-9,-98,-86,51,32,-95,48,-103,-36,-29,-186,-88
-9,-98,-86,51,32,-95,48,-109,-36,-29,-186,-88
-9,-98,-86,51,32,-95,42,-109,-36,-29,-186,-88
-9,-98,-86,51,32,-95,42,-115,-36,-29,-192,-88
-9,-104,-92,57,32,-101,42,-121,-36,-35,-192,-94
-9,-104,-92,57,32,-101,36,-115,-36,-35,-186,-94
-9,-98,-86,51,32,-95,36,-115,-36,-29,-186,-94
-9,-98,-86,51,32,-95,30,-109,-36,-29,-180,-94
-15,-104,-86,57,26,-95,30,-103,-36,-29,-180,-94
-21,-110,-86,63,26,-101,36,-103,-30,-29,-186,-88
-21,-110,-86,63,26,-101,42,-103,-30,-29,-186,-88
-27,-116,-86,69,26,-101,48,-103,-24,-29,-192,-82
-27,-116,-86,69,26,-101,54,-97,-18,-29,-192,-82
-3,-104,-98,51,38,-101,36,-97,-18,-29,-192,-82
9,-104,-110,45,50,-107,24,-109,-18,-23,-192,-82
-15,-122,-104,69,38,-113,42,-109,-6,-23,-192,-94
-15,-116,-98,63,32,-107,48,-109,-6,-23,-192,-94
3,-110,-110,51,50,-113,54,-91,6,-23,-186,-88
-27,-152,-122,87,38,-137,77,-55,36,-29,-210,-106
-51,-176,-122,111,26,-149,137,-7,72,-35,-228,-124
-39,-188,-146,111,44,-167,215,59,107,-35,-234,-148
-51,-200,-146,123,38,-173,317,142,185,-29,-246,-172
-75,-188,-110,129,21,-149,383,256,293,18,-228,-154
-27,-134,-104,81,32,-119,419,352,395,78,-180,-118
27,-80,-104,27,56,-95,419,484,503,162,-114,-58
38,-20,-62,-15,44,-41,419,598,629,258,-30,20
92,93,-9,-92,44,42,359,682,755,390,83,115
158,249,81,-200,32,168,269,694,821,540,227,241
200,369,165,-278,26,264,155,646,839,684,365,379
254,519,261,-386,3,396,48,604,851,828,515,529
344,711,357,-524,3,534,-78,586,863,984,695,709
410,861,447,-632,-9,654,-180,544,857,1122,863,877
488,993,495,-740,3,744,-330,484,851,1278,1025,1033
584,1131,537,-854,26,834,-504,502,893,1416,1175,1195
662,1227,555,-944,50,894,-660,592,1001,1554,1313,1321
674,1281,603,-980,32,948,-792,700,1121,1680,1415,1411
668,1389,717,-1022,-15,1050,-960,700,1163,1788,1499,1489
650,1473,813,-1058,-75,1146,-1098,634,1109,1830,1535,1519
578,1401,813,-992,-111,1110,-1122,598,1061,1788,1475,1477
506,1239,723,-866,-105,978,-1104,538,953,1620,1289,1303
422,1023,597,-722,-81,810,-1068,214,551,1236,989,1051
260,789,525,-518,-129,660,-1014,-265,-48,696,647,775
122,597,471,-356,-171,534,-948,-649,-552,192,305,493
50,477,417,-266,-177,450,-882,-895,-828,-125,59,283
-9,369,381,-176,-195,372,-810,-997,-924,-287,-84,127
-69,237,303,-74,-189,264,-732,-925,-870,-341,-168,32
-69,135,207,-33,-135,168,-648,-817,-756,-335,-234,-46
-81,57,141,3,-111,96,-558,-709,-642,-323,-270,-100
-129,-2,117,63,-123,48,-468,-619,-558,-311,-300,-142
-129,-26,93,75,-111,24,-414,-541,-486,-287,-300,-142
-87,-20,57,51,-75,12,-372,-481,-432,-263,-288,-142
-81,-44,27,63,-57,-5,-306,-397,-354,-239,-282,-130
-81,-56,15,69,-51,-17,-252,-301,-264,-209,-270,-124
-45,-62,-15,51,-9,-41,-198,-235,-192,-179,-246,-124
-21,-74,-50,45,21,-65,-162,-169,-132,-155,-234,-136
-45,-122,-74,81,21,-101,-120,-133,-78,-137,-234,-136
-27,-134,-104,81,32,-119,-96,-97,-42,-113,-228,-130
-9,-122,-110,63,44,-119,-72,-67,-12,-95,-216,-118
-15,-122,-104,69,38,-113,-48,-43,-6,-77,-204,-106
-27,-128,-98,75,26,-113,-36,-37,12,-65,-210,-100
3,-116,-116,57,50,-119,-24,-25,24,-65,-198,-82
3,-110,-110,51,50,-113,-12,-13,36,-59,-186,-70
3,-104,-104,51,44,-107,-6,-13,42,-59,-186,-76
3,-104,-104,51,44,-107,0,-13,36,-59,-192,-76
-3,-110,-104,57,44,-107,-6,-19,30,-59,-192,-82
-9,-128,-116,69,44,-125,-6,-19,24,-59,-204,-88
-9,-134,-122,69,50,-131,-6,-25,30,-59,-210,-94
-9,-134,-122,69,50,-131,-6,-37,18,-59,-204,-94
-3,-140,-134,69,56,-137,-6,-37,24,-59,-204,-94
3,-128,-128,63,56,-131,-6,-37,24,-47,-192,-82
9,-110,-116,51,56,-113,-12,-25,30,-41,-186,-76
9,-110,-116,51,56,-113,-12,-19,36,-41,-186,-76
9,-104,-110,45,50,-107,-18,-13,42,-35,-180,-70
9,-104,-110,45,50,-107,-18,-7,48,-29,-174,-70
9,-110,-116,51,56,-113,-6,-13,42,-35,-180,-76
9,-110,-116,51,56,-113,-6,-13,36,-35,-180,-76
15,-110,-122,45,62,-119,0,-19,30,-41,-192,-88
15,-110,-122,45,62,-119,-6,-19,24,-41,-192,-88
15,-110,-122,45,62,-119,0,-19,30,-29,-186,-82
15,-104,-116,45,56,-113,0,-19,30,-29,-174,-70
15,-104,-116,45,56,-113,6,-13,36,-17,-174,-70
9,-110,-116,51,56,-113,6,-13,36,-17,-174,-70
15,-104,-116,45,56,-113,0,-7,36,-17,-174,-64
15,-104,-116,45,56,-113,0,-7,42,-17,-174,-64
21,-116,-134,45,68,-125,-6,-7,42,-23,-174,-64
15,-122,-134,51,68,-131,-12,-7,42,-23,-174,-64
15,-122,-134,51,68,-131,-6,-13,36,-17,-168,-70
15,-116,-128,51,62,-125,-6,-13,36,-17,-168,-70
15,-116,-128,51,62,-125,0,-19,30,-5,-162,-70
21,-110,-128,45,68,-119,0,-19,30,-5,-162,-70
21,-104,-122,39,62,-113,0,-13,36,-5,-162,-58
27,-104,-128,39,68,-119,-6,-7,36,1,-156,-52
27,-92,-116,33,62,-107,-6,-1,48,1,-150,-46
27,-92,-116,33,62,-107,0,-1,54,7,-150,-52
21,-98,-116,39,62,-107,-6,5,54,1,-156,-52
21,-98,-116,39,62,-107,-6,5,54,1,-156,-52
33,-104,-134,33,74,-119,-12,11,54,-5,-156,-52
33,-110,-140,39,80,-125,-18,11,60,-5,-156,-52
33,-110,-140,39,80,-125,-12,17,60,1,-150,-52
33,-104,-134,33,74,-119,-18,17,60,7,-144,-46
27,-98,-122,33,68,-113,-18,29,66,13,-138,-34
21,-98,-116,39,62,-107,-18,29,66,18,-132,-34
33,-92,-122,27,68,-107,-18,35,72,13,-138,-46
33,-86,-116,27,68,-101,-18,41,78,13,-132,-46
38,-80,-116,21,68,-101,-18,47,84,13,-132,-46
38,-80,-116,21,68,-101,-18,47,84,13,-132,-46
38,-86,-122,21,74,-107,-18,47,84,18,-126,-46
38,-92,-128,27,74,-113,-24,53,89,18,-126,-40
38,-98,-134,27,80,-119,-24,59,89,18,-120,-40
38,-104,-146,27,86,-125,-24,59,89,24,-120,-34
38,-92,-128,27,74,-113,-24,65,95,24,-114,-22
38,-80,-116,21,68,-101,-24,65,101,30,-108,-22
38,-74,-110,15,68,-95,-30,65,101,24,-114,-16
38,-68,-110,9,68,-89,-30,71,107,24,-114,-10
38,-68,-116,9,74,-89,-30,77,113,36,-114,-16
44,-68,-122,3,80,-95,-30,89,119,42,-96,-10
56,-68,-134,-3,92,-101,-36,89,125,42,-96,-16
62,-68,-140,-3,98,-101,-36,89,131,48,-96,-4
62,-74,-146,-3,104,-107,-42,101,143,54,-84,8
56,-62,-128,-3,92,-95,-48,101,143,60,-84,14
56,-68,-134,-3,92,-101,-42,106,161,78,-72,26
38,-68,-116,9,74,-89,-48,112,167,90,-60,32
44,-62,-116,3,80,-89,-54,118,173,90,-60,32
56,-56,-122,-9,86,-89,-60,124,179,90,-54,32
62,-50,-122,-15,92,-83,-66,118,185,90,-54,32
74,-44,-128,-21,98,-83,-72,124,191,90,-48,38
80,-50,-140,-21,110,-95,-72,136,197,102,-36,44
80,-44,-134,-27,104,-89,-78,148,209,108,-36,49
86,-38,-134,-33,110,-83,-72,160,215,120,-24,49
92,-38,-140,-33,116,-89,-78,172,221,126,-18,49
86,-26,-122,-33,104,-71,-90,172,227,132,-12,49
86,-26,-122,-33,104,-71,-96,178,239,138,-6,61
80,-14,-104,-33,92,-59,-108,178,245,138,0,67
80,-14,-104,-33,92,-59,-114,190,251,138,6,67
86,-14,-110,-33,98,-59,-126,190,257,138,6,73
98,-8,-116,-38,104,-59,-132,196,263,144,6,73
116,-2,-128,-50,122,-65,-144,196,269,144,6,79
122,-2,-134,-50,128,-65,-150,196,269,144,11,85
116,4,-122,-50,116,-59,-144,202,269,150,11,91
116,4,-122,-50,116,-59,-144,202,269,156,11,91
116,16,-110,-56,110,-47,-132,208,275,168,23,109
110,16,-104,-56,104,-41,-132,208,275,168,29,109
116,22,-104,-62,110,-41,-138,208,275,168,29,103
116,22,-104,-62,110,-41,-150,208,275,162,29,109
122,22,-110,-62,116,-41,-162,208,275,162,29,103
122,22,-110,-62,116,-41,-174,208,275,168,29,103
122,22,-110,-62,116,-41,-174,196,275,168,35,109
122,22,-110,-62,116,-41,-174,190,263,162,35,109
122,27,-104,-68,110,-35,-180,190,251,162,35,121
128,27,-110,-68,116,-41,-180,184,245,162,35,121
128,27,-98,-74,116,-29,-180,184,251,168,35,127
128,33,-92,-80,110,-23,-186,178,245,168,35,127
128,39,-86,-80,110,-17,-186,178,245,162,41,133
122,51,-68,-86,98,1,-186,172,245,156,41,133
128,45,-80,-86,104,-11,-186,166,239,150,41,127
134,45,-86,-86,110,-11,-192,160,233,150,47,127
140,39,-98,-86,122,-23,-192,154,221,144,41,121
140,39,-98,-86,122,-23,-192,154,221,144,41,121
134,33,-98,-80,116,-23,-186,154,227,144,41,121
122,33,-86,-74,104,-17,-186,154,221,144,41,121
116,27,-86,-68,104,-23,-186,154,221,144,41,121
104,27,-74,-62,92,-17,-186,154,221,144,35,121
104,33,-68,-68,86,-11,-192,142,215,138,35,121
104,33,-68,-68,86,-11,-192,142,209,138,29,121
110,39,-68,-74,92,-5,-180,130,209,132,35,115
110,39,-68,-74,92,-5,-174,130,203,132,35,115
110,33,-74,-68,92,-11,-168,124,197,132,23,115
104,27,-80,-62,92,-23,-162,124,191,126,23,103
104,27,-86,-56,92,-29,-150,106,185,126,17,97
98,27,-80,-56,86,-23,-144,106,179,114,17,91
92,27,-74,-50,80,-23,-144,106,173,108,11,91
86,27,-68,-50,74,-17,-138,106,173,108,11,91
80,27,-56,-50,68,-11,-138,106,167,96,6,85
74,27,-50,-44,62,-5,-132,106,161,96,0,85
74,22,-62,-38,68,-17,-120,95,155,90,-6,73
74,16,-68,-38,68,-23,-114,89,149,78,-6,61
68,10,-68,-33,68,-29,-102,71,137,72,-12,49
68,4,-74,-33,68,-35,-90,65,131,66,-18,49
50,-8,-68,-27,56,-35,-78,59,131,60,-24,49
38,-8,-56,-21,44,-29,-72,53,125,60,-30,38
38,-14,-56,-15,44,-35,-60,47,119,54,-36,38
33,-26,-56,-3,38,-41,-48,41,107,48,-42,38
38,-26,-62,-9,44,-47,-42,29,95,42,-48,32
27,-26,-50,-3,32,-41,-36,23,95,36,-54,32
27,-32,-56,3,32,-47,-18,11,89,30,-60,26
27,-32,-56,3,32,-47,-12,5,89,24,-66,20
27,-32,-56,3,32,-47,-12,-1,89,18,-66,14
21,-44,-62,9,32,-53,-6,-1,89,18,-66,8
21,-44,-62,9,32,-53,-12,-7,84,18,-66,2
9,-44,-50,15,26,-47,0,-13,78,18,-72,2
9,-50,-56,21,26,-53,6,-25,84,18,-72,2
9,-50,-56,21,26,-53,6,-31,78,18,-78,2
9,-50,-56,21,26,-53,12,-37,78,18,-72,2
-3,-56,-50,27,26,-53,12,-37,78,18,-72,2
-3,-56,-50,27,26,-53,12,-43,84,18,-72,2
3,-56,-56,27,26,-59,12,-43,84,18,-72,2
15,-56,-68,21,32,-65,12,-55,89,18,-72,-4
21,-56,-74,15,38,-65,6,-55,89,13,-72,-4
9,-56,-62,21,26,-59,12,-61,89,13,-72,-4
3,-56,-56,27,26,-59,12,-61,89,7,-72,-10
-9,-56,-44,33,21,-53,18,-73,84,7,-78,-16
-21,-56,-32,39,9,-47,18,-73,84,7,-84,-16
-15,-56,-38,33,15,-47,12,-79,89,7,-78,-10
-9,-56,-44,33,21,-53,12,-73,89,7,-78,-10
-3,-62,-56,33,26,-59,6,-79,89,7,-72,-4
3,-62,-62,27,26,-65,6,-85,89,7,-72,-4
-3,-56,-50,27,26,-53,6,-85,89,7,-72,-4
-3,-56,-50,27,26,-53,12,-79,95,13,-66,-4
-9,-56,-44,33,21,-53,12,-79,101,13,-60,-10
-9,-56,-44,33,21,-53,6,-79,95,13,-60,-10
-9,-50,-38,27,21,-47,12,-79,89,13,-66,-4
-15,-50,-32,33,15,-41,12,-79,89,13,-66,2
-15,-38,-20,27,9,-29,18,-79,89,13,-72,8
-15,-38,-20,27,9,-29,18,-79,89,13,-72,8
-9,-50,-38,27,21,-47,18,-79,89,13,-72,2
-3,-38,-32,21,21,-35,24,-79,89,13,-72,2
3,-38,-38,15,26,-41,18,-79,89,18,-60,-10
15,-44,-56,15,26,-53,18,-79,89,18,-60,-10
9,-44,-50,15,26,-47,18,-73,89,13,-66,-4
3,-44,-44,21,26,-47,24,-73,89,13,-66,-4
-3,-44,-38,21,21,-41,30,-73,95,13,-72,-4
-15,-44,-26,27,9,-35,36,-73,89,13,-72,-4
-9,-44,-32,27,15,-41,30,-79,89,7,-72,-4
-3,-44,-38,21,21,-41,24,-79,89,7,-72,-10
3,-44,-44,21,26,-47,18,-85,89,1,-78,-10
3,-44,-44,21,26,-47,12,-85,89,1,-84,-4
-3,-44,-38,21,21,-41,18,-85,89,1,-78,-10
-3,-44,-38,21,21,-41,18,-85,89,1,-78,-10
-9,-44,-32,27,15,-41,24,-85,84,1,-72,-16
-15,-44,-26,27,9,-35,24,-85,72,1,-66,-16
-15,-44,-26,27,9,-35,24,-85,78,1,-66,-16
-15,-44,-26,27,9,-35,24,-85,78,1,-66,-16
-9,-44,-32,27,15,-41,24,-91,84,-5,-66,-16
-9,-44,-32,27,15,-41,24,-91,84,-5,-78,-16
-3,-38,-32,21,21,-35,24,-91,78,-5,-72,-16
-3,-38,-32,21,21,-35,24,-91,78,1,-72,-16
3,-44,-44,21,26,-47,18,-91,66,1,-66,-10
15,-44,-56,15,26,-53,18,-91,60,-5,-66,-10
9,-44,-50,15,26,-47,24,-91,66,-5,-72,-16
3,-38,-38,15,26,-41,24,-91,66,-5,-72,-16
-3,-38,-32,21,21,-35,30,-97,72,-5,-78,-28
-15,-44,-26,27,9,-35,30,-97,66,-5,-84,-28
-15,-44,-26,27,9,-35,24,-103,60,-11,-84,-28
-15,-44,-26,27,9,-35,24,-103,60,-11,-84,-28
-9,-44,-32,27,15,-41,18,-115,54,-17,-84,-28
-9,-44,-32,27,15,-41,18,-115,60,-17,-84,-28
15,-32,-44,9,26,-41,18,-103,60,-5,-72,-16
9,-44,-50,15,26,-47,18,-109,66,-11,-78,-16
-27,-62,-32,45,9,-47,30,-103,66,-11,-84,-16
-39,-62,-20,51,-3,-41,36,-103,60,-11,-90,-28
-33,-56,-20,45,-3,-41,36,-109,54,-17,-90,-28
-27,-50,-20,39,3,-35,36,-109,54,-17,-90,-28
-21,-44,-20,33,3,-35,36,-115,48,-23,-90,-28
-15,-38,-20,27,9,-29,36,-115,48,-23,-90,-28
-9,-38,-26,21,15,-35,24,-121,42,-23,-90,-28
-9,-44,-32,27,15,-41,24,-127,36,-23,-90,-28
-3,-56,-50,27,26,-53,18,-133,30,-23,-90,-28
-3,-62,-56,33,26,-59,18,-133,30,-23,-90,-28
-21,-56,-32,39,9,-47,24,-133,36,-35,-90,-28
-21,-56,-32,39,9,-47,30,-133,36,-35,-90,-34
-21,-50,-26,33,9,-41,36,-133,42,-41,-96,-34
-21,-50,-26,33,9,-41,42,-133,42,-41,-96,-34
-21,-50,-26,33,9,-41,36,-133,36,-47,-102,-40
-21,-56,-32,39,9,-47,30,-133,36,-47,-102,-40
-21,-56,-32,39,9,-47,24,-139,30,-53,-108,-46
-21,-56,-32,39,9,-47,18,-139,30,-53,-108,-46
-9,-62,-50,33,26,-59,24,-139,30,-47,-102,-40
-9,-62,-50,33,26,-59,24,-139,30,-47,-102,-40
-15,-68,-50,39,21,-59,30,-139,30,-41,-96,-34
-15,-68,-50,39,21,-59,30,-139,30,-41,-96,-34
-15,-68,-50,39,21,-59,36,-139,24,-41,-96,-46
-15,-68,-50,39,21,-59,36,-139,24,-41,-96,-46
-21,-62,-38,39,15,-53,42,-139,18,-41,-96,-52
-15,-62,-44,39,21,-53,42,-139,18,-41,-96,-46
-9,-50,-38,27,21,-47,42,-133,24,-35,-96,-40
-9,-44,-32,27,15,-41,54,-133,36,-29,-84,-34
-3,-38,-32,21,21,-35,54,-133,42,-29,-78,-22
-3,-26,-20,15,15,-23,60,-127,48,-23,-78,-16
-15,-14,-9,15,-3,-5,65,-115,54,-17,-66,-16
-15,-8,-3,9,-9,1,65,-115,54,-17,-66,-16
-21,-2,9,9,-15,6,71,-109,54,-11,-60,-16
-15,-2,3,9,-9,6,71,-109,54,-11,-60,-16
-15,-2,3,9,-9,6,77,-115,54,-11,-66,-22
-15,-2,3,9,-9,6,77,-109,54,-11,-66,-22
-9,-2,-3,3,-3,1,77,-115,54,-5,-72,-28
-9,4,3,3,-9,6,77,-121,54,-5,-72,-28
-15,4,9,3,-15,6,77,-115,54,-11,-72,-22
-15,4,9,3,-15,6,77,-115,54,-17,-72,-22
-21,-2,9,9,-15,6,71,-109,48,-23,-72,-22
-21,-2,9,9,-15,6,71,-109,48,-29,-72,-22
-15,16,21,-3,-21,12,65,-115,54,-35,-66,-16
-15,27,39,-9,-27,30,65,-109,60,-23,-60,-10
-9,39,51,-21,-27,42,65,-115,60,-17,-48,2
-3,45,51,-27,-27,48,60,-115,60,-17,-48,2
-9,39,51,-21,-27,42,54,-127,54,-17,-48,8
-3,27,33,-21,-15,30,48,-133,42,-23,-54,2
-9,27,33,-15,-21,24,42,-133,42,-23,-54,8
3,27,21,-21,-9,18,36,-133,42,-23,-54,8
3,33,33,-27,-15,30,30,-133,36,-17,-48,2
9,33,27,-27,-9,30,24,-133,36,-17,-48,2
27,39,15,-33,9,24,18,-127,30,-17,-36,2
33,39,9,-33,15,24,12,-127,30,-17,-36,2
38,27,-15,-33,26,6,12,-133,30,-35,-42,-4
38,22,-15,-33,26,1,12,-133,30,-23,-54,-4
38,10,-26,-27,26,-11,24,-133,36,-29,-60,-10
33,-2,-32,-15,26,-17,30,-127,42,-29,-66,-10
33,-2,-32,-15,26,-17,30,-127,48,-29,-60,-10
33,-2,-32,-15,26,-17,30,-127,48,-29,-54,-10
27,-20,-44,-3,26,-35,30,-127,54,-41,-60,-10
9,-32,-38,9,26,-35,36,-133,42,-47,-60,-10
-3,-38,-32,21,21,-35,42,-133,36,-53,-72,-22
-9,-50,-38,27,21,-47,42,-139,24,-59,-78,-28
-15,-50,-32,33,15,-41,42,-145,18,-65,-90,-46
-21,-62,-38,39,15,-53,42,-151,6,-71,-102,-52
-21,-68,-44,45,15,-59,48,-163,0,-83,-102,-58
-27,-74,-44,51,15,-59,48,-169,0,-89,-108,-64
-27,-92,-62,57,21,-77,54,-175,-6,-101,-114,-64
-27,-92,-62,57,21,-77,54,-181,-6,-101,-120,-70
-39,-104,-62,69,15,-83,54,-187,-12,-101,-120,-70
-39,-110,-68,75,21,-89,54,-187,-18,-107,-120,-70
-45,-116,-68,81,15,-95,48,-193,-24,-101,-126,-64
-45,-122,-74,81,21,-101,48,-193,-24,-101,-126,-64
-45,-116,-68,81,15,-95,48,-193,-30,-107,-132,-70
-45,-116,-68,81,15,-95,42,-193,-30,-113,-132,-70
-45,-110,-62,75,15,-89,42,-193,-36,-119,-144,-76
-45,-116,-68,81,15,-95,42,-199,-36,-131,-144,-82
-45,-122,-74,81,21,-101,42,-199,-30,-125,-138,-82
-45,-116,-68,81,15,-95,42,-199,-30,-119,-138,-82
-45,-122,-74,81,21,-101,42,-199,-24,-113,-132,-82
-51,-128,-74,87,15,-101,42,-193,-24,-113,-132,-82
-45,-128,-80,87,21,-107,42,-193,-30,-113,-126,-82
-45,-128,-80,87,21,-107,42,-193,-30,-113,-126,-82
-39,-128,-86,81,26,-107,42,-193,-36,-113,-120,-82
-39,-128,-86,81,26,-107,42,-187,-30,-113,-120,-82
-27,-116,-86,69,26,-101,60,-199,-30,-125,-120,-82
-51,-128,-74,87,15,-101,60,-187,-18,-119,-132,-82
-39,-122,-80,81,26,-101,54,-187,-18,-119,-132,-82
-27,-116,-86,69,26,-101,60,-175,-18,-119,-132,-82
-57,-134,-74,93,15,-107,65,-169,-6,-119,-138,-88
-75,-152,-74,111,3,-113,77,-157,0,-125,-138,-94
-51,-152,-98,99,26,-125,113,-127,24,-119,-144,-100
-75,-200,-122,135,26,-161,191,-73,60,-131,-168,-124
-111,-230,-122,171,9,-179,287,11,89,-149,-204,-160
-87,-212,-122,147,21,-167,359,106,173,-119,-204,-166
-75,-182,-104,129,21,-143,407,214,293,-53,-156,-142
-57,-140,-80,99,15,-113,443,334,419,18,-102,-106
-3,-68,-62,33,26,-65,419,424,527,96,-30,-40
38,27,-15,-33,26,6,395,532,647,216,71,55
62,129,57,-92,9,96,335,598,767,342,191,169
116,273,153,-194,-9,216,251,592,809,486,329,295
218,453,225,-332,3,342,131,538,809,618,473,457
278,603,321,-440,-15,468,30,514,821,768,647,613
338,759,411,-542,-27,582,-78,496,833,912,803,775
452,921,465,-686,3,696,-210,436,827,1068,983,955
536,1059,513,-794,21,786,-366,418,845,1218,1151,1123
578,1143,555,-860,21,852,-516,472,917,1344,1289,1243
638,1227,579,-932,26,906,-672,586,1055,1482,1403,1363
656,1329,669,-992,3,996,-834,652,1139,1602,1511,1465
602,1413,801,-1004,-93,1110,-966,622,1145,1668,1571,1531
566,1449,873,-1004,-147,1164,-1026,568,1091,1662,1571,1519
548,1341,783,-944,-111,1062,-1032,526,1025,1572,1457,1423
446,1131,681,-782,-111,906,-984,334,773,1308,1217,1207
290,885,585,-584,-141,738,-942,-127,227,834,869,925
182,705,513,-440,-165,612,-906,-619,-366,318,515,631
74,531,453,-302,-183,492,-846,-907,-732,-65,227,385
-57,381,441,-158,-243,408,-774,-1069,-882,-275,35,199
-117,267,387,-68,-249,324,-708,-1069,-888,-365,-72,79
-105,159,261,-33,-183,210,-648,-955,-792,-383,-144,2
-153,57,213,39,-183,132,-558,-853,-678,-395,-192,-76
-177,10,177,81,-177,84,-468,-757,-606,-395,-222,-130
-153,-2,141,75,-147,60,-402,-691,-546,-371,-228,-142
-147,-32,105,87,-129,30,-336,-625,-468,-359,-222,-142
-129,-44,75,87,-105,6,-282,-541,-396,-335,-216,-130
