,,,,,,,,,,,
2019-09-01 15:32:42,,,,,,,,,,,
,,,,,,,,,,,
I,II,III,aVR,aVL,aVF,V1,V2,V3,V4,V5,V6
-51,-59,-9,50,-24,-35,30,-47,-55,-42,-79,24
-63,-59,3,56,-36,-29,36,-53,-55,-36,-79,30
-69,-59,9,62,-42,-23,36,-53,-60,-36,-85,30
-63,-59,3,56,-36,-29,36,-59,-60,-42,-85,30
-63,-59,3,56,-36,-29,36,-65,-60,-42,-85,30
-69,-65,3,68,-36,-29,30,-71,-60,-48,-85,24
-81,-83,-3,80,-42,-41,30,-71,-65,-54,-91,18
-81,-89,-9,86,-36,-47,24,-77,-71,-60,-91,12
-69,-83,-15,74,-30,-47,24,-77,-77,-60,-91,12
-57,-83,-27,68,-18,-53,18,-77,-83,-66,-97,12
-57,-83,-27,68,-18,-53,18,-77,-83,-66,-97,18
-69,-77,-9,74,-30,-41,24,-71,-83,-66,-97,24
-75,-83,-9,74,-36,-47,24,-77,-83,-66,-91,30
-81,-83,-3,80,-42,-41,24,-77,-77,-66,-91,30
-87,-77,9,80,-48,-35,24,-83,-77,-66,-91,30
-75,-65,9,68,-42,-29,24,-83,-71,-66,-91,30
-51,-59,-9,50,-24,-35,30,-77,-71,-60,-91,30
-33,-59,-27,44,-6,-41,30,-71,-65,-60,-91,30
-33,-65,-32,50,0,-47,30,-71,-71,-60,-85,30
-39,-71,-32,50,-6,-53,30,-71,-71,-66,-85,30
-33,-71,-37,50,0,-53,30,-77,-71,-72,-79,30
-27,-65,-37,44,6,-53,24,-77,-65,-72,-79,36
-39,-65,-27,50,-6,-47,24,-77,-65,-72,-79,36
-39,-65,-27,50,-6,-47,24,-77,-71,-72,-79,30
-39,-59,-21,44,-12,-41,24,-77,-77,-72,-85,30
-39,-47,-9,38,-18,-29,30,-65,-71,-66,-85,36
-39,-47,-9,38,-18,-29,30,-59,-71,-66,-85,36
-51,-53,-3,50,-24,-29,24,-59,-71,-66,-85,36
-39,-59,-21,44,-12,-41,18,-65,-77,-72,-91,30
-45,-59,-15,50,-18,-35,18,-65,-71,-66,-79,24
-51,-65,-15,56,-18,-41,24,-65,-65,-66,-79,24
-45,-53,-9,50,-18,-29,30,-65,-65,-72,-73,24
-45,-53,-9,50,-18,-29,30,-59,-60,-72,-73,24
-45,-53,-9,50,-18,-29,30,-59,-60,-72,-73,24
-63,-53,9,56,-36,-23,36,-47,-60,-72,-67,24
-57,-53,3,56,-30,-23,36,-53,-60,-72,-73,18
-57,-53,3,56,-30,-23,36,-47,-65,-72,-73,12
-69,-65,3,68,-36,-29,36,-47,-65,-72,-73,12
-81,-59,21,68,-54,-17,36,-53,-60,-66,-67,12
-69,-59,9,62,-42,-23,36,-53,-60,-66,-67,18
-51,-53,-3,50,-24,-29,36,-59,-65,-66,-67,12
-45,-47,-3,44,-24,-23,36,-59,-60,-66,-67,18
-51,-47,3,44,-30,-23,36,-59,-60,-66,-67,12
-57,-59,-3,56,-30,-29,36,-65,-65,-72,-67,7
-45,-59,-15,50,-18,-35,30,-65,-65,-72,-67,7
-51,-59,-9,50,-24,-35,30,-65,-65,-72,-67,12
-57,-53,3,56,-30,-23,30,-65,-65,-66,-67,12
-69,-59,9,62,-42,-23,24,-65,-65,-66,-61,7
-81,-71,9,74,-48,-29,12,-71,-77,-72,-73,7
-75,-65,9,68,-42,-29,12,-71,-77,-72,-73,7
-75,-65,9,68,-42,-29,18,-71,-77,-66,-73,7
-81,-65,15,74,-48,-23,18,-71,-71,-66,-67,12
-87,-65,21,74,-54,-23,24,-71,-71,-66,-67,12
-75,-71,3,68,-42,-35,18,-71,-65,-66,-67,12
-57,-65,-9,62,-24,-35,18,-65,-65,-66,-61,12
-57,-65,-9,62,-24,-35,18,-71,-71,-66,-61,7
-51,-65,-15,56,-18,-41,18,-71,-77,-72,-61,2
-45,-59,-15,50,-18,-35,18,-77,-77,-72,-61,2
-45,-53,-9,50,-18,-29,12,-77,-77,-72,-61,2
-57,-53,3,56,-30,-23,18,-77,-77,-66,-61,2
-75,-59,15,62,-48,-23,6,-77,-77,-72,-61,2
-63,-53,9,56,-36,-23,6,-89,-77,-78,-67,-4
-57,-53,3,56,-30,-23,6,-89,-77,-78,-67,2
-51,-53,-3,50,-24,-29,6,-89,-77,-78,-61,2
-51,-59,-9,50,-24,-35,6,-95,-77,-84,-61,-4
-51,-65,-15,56,-18,-41,6,-95,-77,-84,-61,-4
-63,-83,-21,68,-24,-53,6,-95,-83,-90,-61,-4
-63,-89,-27,74,-18,-59,6,-95,-89,-96,-67,-10
-63,-83,-21,68,-24,-53,12,-95,-89,-90,-61,-4
-57,-65,-9,62,-24,-35,18,-95,-89,-90,-67,2
-51,-59,-9,50,-24,-35,18,-95,-89,-90,-67,2
-39,-59,-21,44,-12,-41,12,-101,-89,-90,-73,-4
-45,-53,-9,50,-18,-29,12,-101,-89,-84,-67,2
-39,-53,-15,44,-12,-35,12,-101,-89,-84,-67,2
-39,-59,-21,44,-12,-41,12,-107,-95,-84,-67,-4
-39,-71,-32,50,-6,-53,6,-113,-101,-90,-67,-4
-63,-83,-21,68,-24,-53,6,-113,-101,-90,-61,2
-75,-89,-15,80,-30,-53,6,-107,-101,-90,-61,2
-75,-77,-3,74,-36,-41,12,-107,-95,-90,-55,2
-81,-77,3,80,-42,-35,6,-107,-95,-96,-61,2
-75,-77,-3,74,-36,-41,6,-107,-101,-96,-67,-4
-69,-71,-3,68,-36,-35,0,-107,-107,-102,-73,-10
-69,-71,-3,68,-36,-35,0,-107,-107,-102,-79,-10
-63,-65,-3,62,-30,-35,6,-101,-95,-102,-73,-10
-69,-71,-3,68,-36,-35,12,-101,-95,-102,-67,-4
-69,-71,-3,68,-36,-35,6,-107,-95,-102,-67,-4
-63,-83,-21,68,-24,-53,6,-107,-95,-114,-67,-4
-63,-77,-15,68,-24,-47,6,-101,-89,-108,-61,2
-63,-77,-15,68,-24,-47,12,-101,-89,-108,-67,-4
-63,-77,-15,68,-24,-47,6,-101,-95,-114,-73,-10
-57,-89,-32,74,-12,-59,0,-113,-101,-108,-85,-22
-63,-77,-15,68,-24,-47,0,-101,-95,-102,-85,-16
-75,-65,9,68,-42,-29,18,-101,-95,-90,-73,-4
-81,-71,9,74,-48,-29,18,-101,-95,-90,-67,-4
-75,-71,3,68,-42,-35,12,-113,-101,-90,-67,-4
-75,-71,3,68,-42,-35,12,-113,-107,-96,-61,-4
-69,-71,-3,68,-36,-35,12,-113,-107,-96,-61,-4
-69,-71,-3,68,-36,-35,12,-113,-101,-96,-61,-10
-75,-71,3,68,-42,-35,12,-113,-101,-96,-61,-4
-81,-71,9,74,-48,-29,12,-113,-101,-96,-61,2
-93,-77,15,86,-54,-29,6,-107,-101,-96,-61,2
-93,-77,15,86,-54,-29,6,-107,-101,-96,-55,2
-93,-77,15,86,-54,-29,6,-107,-101,-96,-55,2
-93,-83,9,86,-54,-35,6,-107,-101,-96,-49,7
-81,-83,-3,80,-42,-41,6,-107,-101,-96,-55,7
-75,-77,-3,74,-36,-41,0,-113,-107,-102,-55,7
-69,-83,-15,74,-30,-47,6,-113,-113,-102,-55,7
-69,-83,-15,74,-30,-47,6,-107,-107,-102,-55,7
-75,-77,-3,74,-36,-41,12,-107,-107,-102,-55,7
-63,-77,-15,68,-24,-47,6,-107,-101,-102,-55,2
-63,-77,-15,68,-24,-47,0,-113,-107,-108,-55,2
-69,-83,-15,74,-30,-47,0,-113,-101,-114,-55,2
-81,-89,-9,86,-36,-47,6,-113,-101,-114,-55,2
-75,-89,-15,80,-30,-53,6,-113,-95,-108,-61,2
-75,-83,-9,74,-36,-47,6,-107,-95,-108,-61,2
-63,-77,-15,68,-24,-47,0,-107,-101,-108,-61,7
-63,-83,-21,68,-24,-53,0,-107,-101,-108,-61,7
-57,-89,-32,74,-12,-59,0,-107,-107,-108,-67,7
-63,-95,-32,74,-18,-65,-6,-113,-113,-108,-73,7
-63,-95,-32,74,-18,-65,-6,-113,-113,-114,-73,2
-75,-107,-32,86,-24,-71,-6,-119,-119,-120,-73,2
-69,-113,-43,92,-12,-77,-12,-125,-125,-120,-79,-10
-69,-113,-43,92,-12,-77,-6,-125,-125,-126,-79,-10
-81,-113,-32,98,-24,-71,-6,-119,-125,-120,-79,-10
-75,-107,-32,86,-24,-71,-6,-119,-125,-120,-79,-10
-57,-89,-32,74,-12,-59,-6,-119,-125,-120,-79,-10
-39,-83,-43,56,0,-65,-6,-113,-125,-120,-79,-16
-45,-77,-32,62,-6,-53,0,-107,-113,-114,-67,-4
-51,-77,-27,62,-12,-53,0,-107,-107,-114,-67,2
-69,-89,-21,80,-24,-53,0,-107,-107,-114,-67,2
-81,-101,-21,92,-30,-59,6,-107,-101,-114,-61,7
-81,-101,-21,92,-30,-59,12,-107,-101,-108,-61,7
-75,-95,-21,80,-30,-59,12,-107,-101,-108,-67,7
-81,-95,-15,86,-36,-53,18,-101,-101,-108,-67,2
-93,-101,-9,98,-42,-53,18,-101,-101,-108,-61,7
-105,-101,3,104,-54,-47,24,-101,-107,-108,-55,2
-111,-107,3,104,-60,-53,18,-101,-101,-108,-61,2
-93,-101,-9,98,-42,-53,24,-101,-101,-108,-55,-4
-69,-89,-21,80,-24,-53,24,-101,-101,-108,-55,-4
-69,-95,-27,80,-24,-59,12,-107,-107,-114,-55,-10
-57,-107,-49,80,-6,-77,6,-113,-113,-120,-61,-16
-51,-113,-61,80,6,-89,6,-113,-113,-120,-61,-22
-27,-101,-73,62,24,-89,0,-119,-119,-120,-73,-34
3,-95,-97,44,48,-95,-6,-125,-125,-126,-79,-34
-21,-83,-61,50,18,-71,0,-113,-113,-114,-67,-22
-51,-71,-21,56,-18,-47,12,-101,-107,-108,-61,-4
-75,-77,-3,74,-36,-41,18,-101,-101,-108,-61,-4
-87,-89,-3,86,-42,-47,12,-107,-107,-114,-67,-4
-99,-101,-3,98,-48,-53,6,-113,-113,-120,-73,-10
-117,-113,3,116,-60,-53,6,-119,-119,-120,-79,-10
-117,-107,9,110,-66,-47,12,-113,-113,-108,-67,-10
-117,-101,15,110,-66,-41,12,-113,-113,-108,-67,-10
-105,-95,9,98,-60,-41,12,-107,-113,-102,-67,-4
-87,-89,-3,86,-42,-47,12,-107,-113,-102,-67,-10
-69,-89,-21,80,-24,-53,12,-113,-113,-108,-73,-16
-63,-83,-21,68,-24,-53,12,-113,-107,-108,-79,-16
-63,-77,-15,68,-24,-47,18,-107,-101,-108,-79,-16
-63,-77,-15,68,-24,-47,18,-107,-101,-114,-79,-16
-69,-77,-9,74,-30,-41,18,-107,-107,-114,-79,-16
-69,-83,-15,74,-30,-47,12,-107,-113,-114,-79,-16
-69,-77,-9,74,-30,-41,12,-107,-113,-114,-79,-16
-87,-77,9,80,-48,-35,12,-107,-107,-114,-79,-16
-87,-89,-3,86,-42,-47,6,-107,-107,-114,-79,-16
-93,-95,-3,92,-48,-47,6,-107,-101,-120,-85,-16
-87,-101,-15,92,-36,-59,0,-113,-107,-120,-85,-22
-75,-101,-27,86,-24,-65,0,-113,-113,-120,-85,-22
-75,-95,-21,80,-30,-59,0,-119,-113,-114,-79,-22
-63,-95,-32,74,-18,-65,0,-119,-113,-114,-79,-22
-57,-95,-37,74,-12,-65,-12,-125,-125,-120,-91,-28
-63,-89,-27,74,-18,-59,-6,-131,-125,-126,-91,-28
-63,-83,-21,68,-24,-53,-6,-125,-119,-126,-91,-28
-69,-83,-15,74,-30,-47,-6,-119,-113,-126,-91,-28
-69,-83,-15,74,-30,-47,-6,-125,-113,-132,-91,-34
-69,-89,-21,80,-24,-53,0,-119,-113,-126,-85,-34
-69,-83,-15,74,-30,-47,0,-113,-113,-126,-79,-28
-57,-83,-27,68,-18,-53,0,-113,-107,-120,-79,-28
-57,-83,-27,68,-18,-53,0,-119,-113,-126,-79,-28
-69,-95,-27,80,-24,-59,-6,-125,-119,-126,-79,-34
-75,-101,-27,86,-24,-65,-6,-131,-119,-132,-85,-40
-81,-101,-21,92,-30,-59,0,-119,-119,-132,-79,-34
-87,-101,-15,92,-36,-59,0,-119,-119,-132,-85,-34
-87,-95,-9,86,-42,-53,0,-107,-113,-120,-85,-34
-75,-89,-15,80,-30,-53,12,-95,-107,-114,-79,-28
-75,-89,-15,80,-30,-53,12,-95,-107,-108,-79,-28
-87,-95,-9,86,-42,-53,12,-95,-101,-108,-79,-34
-87,-89,-3,86,-42,-47,18,-95,-101,-108,-73,-34
-75,-83,-9,74,-36,-47,6,-101,-107,-114,-73,-46
-57,-83,-27,68,-18,-53,0,-107,-119,-120,-73,-52
-63,-83,-21,68,-24,-53,0,-101,-113,-120,-61,-40
-69,-89,-21,80,-24,-53,-6,-101,-119,-120,-61,-40
-81,-95,-15,86,-36,-53,-6,-89,-113,-120,-61,-34
-75,-95,-21,80,-30,-59,-6,-89,-113,-120,-61,-34
-75,-107,-32,86,-24,-71,-6,-95,-113,-126,-73,-40
-75,-113,-37,92,-18,-77,-6,-101,-113,-126,-79,-40
-75,-107,-32,86,-24,-71,-6,-107,-119,-126,-85,-46
-63,-95,-32,74,-18,-65,-6,-107,-113,-126,-91,-46
-57,-95,-37,74,-12,-65,-6,-113,-119,-132,-91,-52
-57,-95,-37,74,-12,-65,-6,-107,-119,-132,-91,-52
-75,-89,-15,80,-30,-53,0,-101,-113,-126,-85,-52
-87,-89,-3,86,-42,-47,6,-95,-107,-120,-73,-46
-87,-95,-9,86,-42,-53,6,-95,-107,-114,-73,-40
-81,-89,-9,86,-36,-47,6,-95,-101,-108,-67,-34
-57,-77,-21,68,-18,-47,12,-95,-101,-108,-67,-28
-57,-71,-15,62,-24,-41,12,-89,-101,-108,-67,-22
-57,-65,-9,62,-24,-35,18,-89,-95,-108,-61,-16
-57,-65,-9,62,-24,-35,18,-89,-95,-102,-61,-16
-69,-83,-15,74,-30,-47,6,-95,-101,-108,-67,-22
-81,-95,-15,86,-36,-53,0,-107,-107,-114,-67,-28
-87,-95,-9,86,-42,-53,-6,-107,-113,-114,-67,-28
-93,-101,-9,98,-42,-53,-12,-113,-125,-120,-73,-34
-81,-107,-27,92,-30,-65,-12,-119,-131,-120,-73,-46
-69,-101,-32,86,-18,-65,-18,-119,-125,-120,-67,-46
-51,-89,-37,68,-6,-65,-12,-119,-113,-114,-55,-46
-51,-77,-27,62,-12,-53,-6,-113,-101,-102,-49,-40
-57,-83,-27,68,-18,-53,-6,-113,-95,-102,-49,-40
-63,-89,-27,74,-18,-59,0,-113,-101,-102,-49,-34
-69,-89,-21,80,-24,-53,0,-107,-95,-102,-49,-34
-75,-95,-21,80,-30,-59,6,-101,-95,-96,-49,-34
-81,-83,-3,80,-42,-41,12,-95,-95,-90,-43,-28
-81,-77,3,80,-42,-35,18,-95,-95,-84,-37,-22
-63,-65,-3,62,-30,-35,18,-101,-95,-90,-37,-28
-51,-59,-9,50,-24,-35,24,-101,-89,-90,-37,-28
-51,-53,-3,50,-24,-29,24,-95,-83,-90,-37,-28
-51,-47,3,44,-30,-23,24,-83,-77,-84,-31,-22
-51,-53,-3,50,-24,-29,30,-77,-71,-78,-37,-22
-39,-47,-9,38,-18,-29,30,-71,-77,-78,-43,-22
-33,-41,-9,38,-12,-23,36,-59,-71,-72,-37,-22
-27,-41,-15,32,-6,-29,42,-53,-65,-66,-37,-22
-15,-47,-32,26,6,-41,42,-53,-65,-66,-37,-22
3,-47,-49,20,24,-47,42,-47,-65,-60,-37,-22
9,-59,-67,20,36,-65,42,-41,-65,-60,-43,-28
9,-53,-61,20,36,-59,42,-35,-60,-60,-37,-28
9,-53,-61,20,36,-59,48,-29,-55,-60,-37,-28
9,-59,-67,20,36,-65,42,-29,-55,-60,-31,-28
9,-65,-73,26,42,-71,42,-29,-49,-54,-26,-28
3,-71,-73,32,36,-71,36,-29,-49,-48,-26,-22
9,-65,-73,26,42,-71,30,-23,-43,-36,-21,-22
15,-59,-73,20,42,-65,30,-17,-37,-31,-9,-16
33,-41,-73,2,54,-59,30,-12,-31,-26,-3,-10
45,-29,-73,-10,60,-53,24,-12,-25,-31,-3,-10
51,-23,-73,-16,60,-47,18,-17,-25,-31,-3,-10
45,-17,-61,-16,54,-41,12,-23,-25,-26,-3,-4
51,-11,-61,-22,54,-35,12,-23,-25,-20,9,7
57,-11,-67,-28,60,-41,12,-17,-25,-20,15,12
63,-11,-73,-28,66,-41,12,-17,-25,-20,15,7
69,-11,-79,-34,71,-47,12,-17,-25,-20,9,7
81,-23,-103,-34,88,-65,6,-23,-31,-26,3,2
87,-41,-127,-22,106,-83,-6,-35,-43,-36,-9,-16
75,-53,-127,-10,100,-89,-6,-41,-49,-42,-9,-22
63,-71,-133,2,94,-101,-12,-47,-55,-48,-15,-28
57,-77,-133,8,94,-107,-12,-59,-60,-54,-21,-40
51,-89,-139,20,94,-113,-18,-65,-65,-66,-26,-46
39,-95,-133,26,82,-113,-18,-77,-71,-66,-26,-52
21,-107,-127,38,71,-119,-18,-83,-77,-66,-26,-46
9,-95,-103,38,54,-101,-12,-83,-77,-66,-21,-40
27,-83,-109,26,66,-95,-12,-83,-77,-72,-21,-34
27,-83,-109,26,66,-95,-18,-89,-83,-78,-26,-34
15,-89,-103,38,60,-95,-24,-95,-89,-90,-31,-40
15,-95,-109,38,60,-101,-30,-107,-101,-96,-31,-40
9,-89,-97,38,54,-95,-24,-107,-107,-102,-31,-46
3,-89,-91,44,48,-89,-18,-107,-113,-96,-31,-46
-9,-95,-85,50,36,-89,-12,-113,-113,-96,-26,-46
-15,-89,-73,50,30,-83,-12,-113,-113,-90,-31,-52
-33,-89,-55,62,12,-71,-6,-107,-107,-84,-31,-46
-51,-95,-43,68,-6,-71,-6,-113,-113,-90,-37,-52
-57,-101,-43,80,-6,-71,-6,-113,-113,-96,-49,-58
-63,-101,-37,80,-12,-71,-6,-113,-119,-102,-49,-64
-75,-101,-27,86,-24,-65,-6,-113,-119,-108,-49,-64
-81,-113,-32,98,-24,-71,0,-113,-119,-114,-49,-64
-75,-113,-37,92,-18,-77,0,-119,-125,-120,-49,-64
-69,-113,-43,92,-12,-77,0,-119,-125,-120,-55,-70
-81,-113,-32,98,-24,-71,6,-113,-125,-114,-49,-64
-93,-119,-27,104,-36,-71,6,-113,-125,-114,-49,-64
-99,-125,-27,110,-36,-77,0,-119,-125,-114,-55,-64
-111,-131,-21,116,-48,-77,0,-119,-125,-114,-55,-70
-111,-131,-21,116,-48,-77,-6,-125,-131,-120,-49,-70
-117,-137,-21,128,-48,-77,-6,-125,-131,-120,-49,-70
-117,-137,-21,128,-48,-77,-6,-125,-131,-120,-49,-70
-105,-131,-27,116,-42,-77,0,-125,-131,-120,-49,-70
-93,-125,-32,110,-30,-77,0,-119,-131,-120,-49,-70
-87,-125,-37,104,-24,-83,0,-131,-131,-120,-55,-76
-99,-119,-21,104,-42,-71,0,-125,-131,-114,-55,-70
-99,-113,-15,104,-42,-65,6,-125,-131,-114,-55,-64
-99,-113,-15,104,-42,-65,0,-125,-125,-114,-55,-64
-93,-113,-21,104,-36,-65,-6,-125,-125,-114,-55,-64
-99,-113,-15,104,-42,-65,-12,-125,-131,-120,-61,-70
-99,-113,-15,104,-42,-65,-12,-125,-125,-120,-55,-70
-123,-119,3,116,-66,-59,-6,-119,-125,-114,-55,-64
-135,-119,15,122,-78,-53,0,-119,-125,-114,-55,-64
-117,-113,3,116,-60,-53,0,-119,-125,-114,-55,-64
-105,-113,-9,110,-48,-59,0,-119,-125,-114,-61,-70
-105,-113,-9,110,-48,-59,0,-119,-125,-120,-55,-70
-99,-101,-3,98,-48,-53,0,-113,-125,-114,-55,-64
-81,-89,-9,86,-36,-47,-6,-107,-113,-114,-49,-64
-69,-89,-21,80,-24,-53,6,-83,-101,-102,-43,-64
-51,-83,-32,62,-12,-59,18,-53,-77,-90,-31,-64
-21,-77,-55,50,18,-65,24,-17,-55,-66,-26,-58
3,-65,-67,32,36,-65,30,17,-7,-31,-3,-40
45,-53,-97,2,71,-77,30,53,47,22,45,-10
105,-47,-151,-34,124,-101,18,83,113,94,105,30
181,-17,-199,-82,190,-107,12,137,203,190,195,90
283,37,-247,-158,262,-101,12,221,335,328,309,180
403,107,-295,-248,352,-89,18,329,497,490,453,294
511,197,-313,-350,412,-53,18,413,659,658,603,414
619,305,-313,-458,466,1,24,479,809,826,759,540
715,431,-283,-566,502,77,30,539,953,994,915,678
811,569,-241,-686,526,167,24,575,1079,1150,1059,810
877,671,-205,-770,544,233,24,605,1169,1252,1149,900
901,701,-199,-800,550,251,24,587,1175,1252,1143,912
865,677,-187,-770,526,245,6,509,1085,1150,1053,864
793,623,-169,-704,484,227,-24,365,917,970,903,768
703,551,-151,-620,430,203,-76,167,701,754,741,654
583,485,-97,-530,340,197,-136,-23,485,556,591,546
445,413,-32,-428,238,191,-184,-209,275,364,447,444
313,335,21,-320,148,179,-244,-407,53,178,303,336
175,239,63,-200,60,155,-304,-611,-191,-31,141,216
27,155,129,-88,-48,143,-346,-773,-413,-216,-3,108
-111,95,207,8,-156,149,-364,-881,-581,-360,-115,12
-207,49,255,74,-234,149,-376,-947,-689,-462,-199,-58
-267,-5,261,134,-264,125,-382,-965,-743,-528,-259,-112
-303,-59,243,176,-276,89,-388,-959,-767,-564,-295,-166
-333,-119,213,224,-276,47,-376,-929,-773,-588,-319,-208
-321,-167,153,242,-240,-5,-364,-887,-767,-594,-337,-244
-297,-197,99,248,-198,-47,-328,-821,-731,-576,-325,-256
-291,-221,69,254,-180,-77,-286,-743,-683,-540,-313,-256
-273,-239,33,254,-156,-101,-256,-659,-629,-510,-307,-250
-243,-245,-3,242,-120,-125,-220,-575,-569,-468,-295,-244
-213,-227,-15,218,-102,-119,-178,-491,-491,-420,-271,-226
-177,-197,-21,188,-78,-107,-142,-401,-419,-366,-235,-202
-147,-173,-27,158,-60,-101,-112,-329,-347,-318,-199,-184
-123,-143,-21,128,-54,-83,-76,-263,-275,-264,-157,-160
-99,-107,-9,98,-48,-59,-35,-197,-209,-216,-115,-130
-81,-89,-9,86,-36,-47,-18,-149,-161,-168,-79,-106
-87,-83,3,80,-48,-41,0,-113,-131,-138,-55,-88
-69,-65,3,68,-36,-29,12,-89,-107,-114,-37,-70
-69,-53,15,62,-42,-17,24,-59,-89,-96,-37,-58
-69,-53,15,62,-42,-17,30,-41,-89,-90,-37,-58
-57,-53,3,56,-30,-23,30,-35,-83,-90,-49,-58
-57,-47,9,50,-36,-17,30,-17,-71,-84,-43,-52
-51,-41,9,44,-30,-17,30,-12,-60,-78,-31,-52
-51,-35,15,38,-36,-11,30,-7,-55,-66,-26,-46
-51,-23,27,32,-42,1,42,5,-43,-54,-15,-40
-51,-17,33,32,-42,7,54,11,-31,-42,-3,-40
-63,-23,39,38,-54,7,66,23,-25,-31,3,-34
-57,-23,33,38,-48,7,66,23,-19,-31,3,-34
-51,-29,21,38,-36,-5,60,23,-19,-36,-3,-40
-57,-35,21,44,-42,-5,60,23,-19,-36,3,-34
-57,-35,21,44,-42,-5,60,29,-13,-36,3,-34
-69,-23,45,44,-60,13,66,35,-1,-31,9,-22
-69,-23,45,44,-60,13,66,41,5,-26,15,-22
-57,-23,33,38,-48,7,66,47,11,-26,15,-22
-45,-29,15,38,-30,-5,60,47,11,-26,15,-28
-39,-23,15,26,-30,-5,60,53,17,-20,21,-22
-27,-5,21,14,-24,7,72,65,23,-8,27,-10
-21,7,27,8,-24,19,78,77,29,4,39,2
-21,7,27,8,-24,19,78,77,35,10,45,7
-27,7,33,8,-30,19,78,77,41,10,45,7
-21,7,27,8,-24,19,72,77,41,16,51,7
-9,7,15,2,-12,13,72,71,47,16,45,2
-3,7,9,-4,-6,7,72,77,53,22,51,7
-9,1,9,2,-12,7,78,89,65,28,57,7
-15,1,15,2,-18,7,78,101,77,40,63,12
-21,1,21,8,-24,13,78,107,77,46,69,12
-15,-5,9,8,-12,1,72,113,77,46,69,12
-9,-5,3,8,-6,1,72,113,71,40,69,7
-3,-5,-3,2,0,-5,66,119,71,40,75,12
-3,7,9,-4,-6,7,78,125,83,52,87,24
15,25,9,-22,0,19,78,131,89,52,87,30
27,31,3,-28,12,19,78,137,95,58,93,36
27,19,-9,-22,18,7,72,137,101,52,87,36
39,25,-15,-34,24,7,72,143,107,52,87,36
45,25,-21,-40,30,1,72,149,107,52,93,30
51,37,-15,-46,30,13,78,155,113,58,93,30
51,37,-15,-46,30,13,78,167,113,64,93,30
45,37,-9,-46,24,13,78,167,113,64,99,24
51,43,-9,-46,30,19,78,167,113,64,99,24
63,49,-15,-58,36,19,78,173,119,70,99,24
69,49,-21,-64,42,13,78,173,125,76,99,24
75,43,-32,-58,54,7,78,179,125,76,99,24
75,49,-27,-64,48,13,72,185,137,82,111,36
75,43,-32,-58,54,7,72,185,149,88,117,48
63,37,-27,-52,42,7,72,197,155,94,123,54
87,49,-37,-70,60,7,72,203,161,100,123,60
105,67,-37,-88,71,13,72,203,161,106,123,60
99,83,-15,-88,60,35,90,221,179,118,141,66
93,95,3,-93,48,47,96,233,191,130,153,78
93,83,-9,-88,54,35,90,239,197,142,159,78
93,78,-15,-88,54,29,84,245,203,148,159,84
93,78,-15,-88,54,29,84,251,215,160,159,90
105,78,-27,-93,66,24,84,263,221,166,165,96
110,89,-21,-98,66,35,84,269,227,172,171,108
121,101,-21,-110,71,41,84,281,239,178,177,114
121,113,-9,-116,66,53,84,287,251,190,189,120
115,119,3,-110,60,65,84,299,263,196,195,120
121,125,3,-122,60,65,84,305,269,202,195,120
133,125,-9,-128,71,59,84,317,275,202,195,120
145,113,-32,-128,88,41,84,323,287,208,201,126
151,119,-32,-128,94,47,84,329,293,214,201,132
175,125,-49,-146,112,41,84,335,305,232,213,144
187,137,-49,-158,118,47,84,341,317,244,219,150
181,143,-37,-158,112,53,84,353,329,256,225,162
187,155,-32,-164,112,65,84,365,341,268,231,168
193,167,-27,-176,112,71,84,377,353,280,243,174
199,179,-21,-182,112,83,90,383,365,292,255,180
217,179,-37,-194,130,71,90,389,377,298,261,186
235,191,-43,-206,142,77,90,401,383,310,279,192
259,203,-55,-224,160,77,90,407,395,316,291,204
271,203,-67,-230,172,71,90,413,407,322,297,210
277,209,-67,-242,172,71,90,425,419,334,309,216
277,215,-61,-242,172,77,84,437,431,340,315,228
277,221,-55,-248,166,83,84,449,443,358,321,228
289,239,-49,-260,172,95,96,461,461,376,333,246
289,245,-43,-266,166,101,108,473,479,394,345,258
289,251,-37,-266,166,107,102,479,485,406,357,264
307,251,-55,-272,184,101,90,479,491,418,363,270
319,257,-61,-284,190,101,84,485,503,424,369,276
325,263,-61,-290,196,101,84,491,515,436,387,288
343,275,-67,-302,208,107,84,503,527,448,399,306
355,287,-67,-314,214,113,84,515,545,460,417,318
355,293,-61,-320,208,119,84,521,551,478,429,330
355,293,-61,-320,208,119,84,527,563,490,441,336
367,305,-61,-332,214,125,78,533,569,496,447,342
379,317,-61,-344,220,131,72,533,575,508,447,342
385,323,-61,-350,226,131,66,533,581,514,459,348
397,323,-73,-356,238,125,60,533,587,520,459,342
403,335,-67,-362,238,137,60,533,593,526,465,348
397,335,-61,-362,232,137,66,539,599,538,471,354
415,341,-73,-374,244,137,66,545,605,550,477,366
433,353,-79,-392,256,137,60,539,605,550,483,372
439,347,-91,-386,268,131,48,533,599,544,483,372
451,353,-97,-398,274,131,48,533,599,544,483,378
463,365,-97,-410,280,137,42,527,599,544,483,378
463,377,-85,-416,274,149,36,521,593,544,489,384
457,383,-73,-416,268,155,36,509,587,544,495,384
451,389,-61,-416,256,167,30,503,587,550,495,390
457,395,-61,-422,262,167,30,497,575,544,495,390
445,389,-55,-416,250,167,24,491,569,538,495,390
427,377,-49,-398,238,167,24,479,563,532,489,384
409,365,-43,-386,226,161,12,467,551,520,483,378
385,347,-37,-362,214,155,12,461,539,508,471,378
361,341,-21,-350,190,161,12,449,527,496,459,372
349,335,-15,-338,184,161,18,431,515,484,447,366
337,323,-15,-326,178,155,24,413,497,466,429,348
325,311,-15,-314,172,149,24,395,473,448,411,336
319,305,-15,-308,166,149,36,383,455,430,399,324
307,293,-15,-296,160,143,42,371,437,412,375,306
289,275,-15,-278,154,131,42,353,413,394,357,288
271,257,-15,-260,142,125,42,335,389,370,339,270
247,239,-9,-236,130,119,42,317,365,346,321,252
235,221,-15,-224,124,107,42,299,341,322,297,234
211,203,-9,-200,112,101,42,281,317,304,273,216
187,191,3,-182,94,101,42,257,293,280,249,192
163,179,15,-164,76,101,54,239,275,256,225,180
139,161,21,-146,60,95,66,227,251,238,213,168
110,143,33,-122,42,89,66,209,227,214,189,144
110,125,15,-116,48,71,66,191,203,196,171,120
93,101,9,-98,42,53,66,173,173,172,159,102
75,78,3,-76,36,41,66,155,155,148,141,90
57,67,9,-64,24,35,72,143,137,130,123,84
45,49,3,-52,18,24,72,131,125,112,111,72
39,43,3,-40,18,24,72,125,113,100,93,66
33,37,3,-40,12,19,60,107,95,82,69,48
21,31,9,-28,6,19,60,89,77,64,51,36
15,25,9,-22,0,19,54,77,59,46,45,30
-3,13,15,-10,-12,13,48,65,47,40,33,24
-9,7,15,2,-12,13,48,53,29,34,27,18
-15,7,21,2,-18,13,54,41,17,22,15,12
-33,-17,15,26,-24,1,48,23,-1,4,3,2
-39,-29,9,32,-24,-11,42,11,-13,-8,-15,-10
-33,-41,-9,38,-12,-23,42,5,-19,-20,-26,-22
-27,-41,-15,32,-6,-29,42,5,-25,-20,-26,-28
-27,-47,-21,32,-6,-35,42,-1,-25,-20,-26,-34
-27,-47,-21,32,-6,-35,36,-7,-25,-26,-26,-34
-27,-47,-21,32,-6,-35,36,-7,-31,-31,-26,-34
-39,-53,-15,44,-12,-35,36,-12,-37,-31,-26,-40
-51,-53,-3,50,-24,-29,30,-17,-43,-36,-31,-46
-45,-53,-9,50,-18,-29,24,-23,-55,-48,-37,-46
-33,-53,-21,44,-6,-35,24,-35,-60,-54,-43,-46
-45,-59,-15,50,-18,-35,24,-35,-60,-60,-43,-40
-63,-65,-3,62,-30,-35,24,-35,-60,-60,-43,-40
-57,-65,-9,62,-24,-35,12,-35,-65,-66,-43,-40
-45,-53,-9,50,-18,-29,12,-35,-71,-66,-43,-40
-45,-53,-9,50,-18,-29,12,-35,-71,-66,-43,-40
-51,-59,-9,50,-24,-35,12,-35,-71,-72,-43,-40
-63,-59,3,56,-36,-29,24,-35,-71,-66,-43,-46
-75,-53,21,62,-48,-17,24,-35,-71,-66,-43,-46
-75,-53,21,62,-48,-17,30,-29,-65,-66,-37,-40
-75,-47,27,56,-54,-11,30,-29,-60,-60,-37,-40
-69,-47,21,56,-48,-11,30,-29,-60,-60,-31,-34
-69,-47,21,56,-48,-11,30,-29,-60,-60,-26,-28
-75,-47,27,56,-54,-11,30,-29,-60,-54,-21,-28
-69,-47,21,56,-48,-11,18,-35,-60,-60,-26,-34
-63,-47,15,50,-42,-17,12,-41,-65,-60,-26,-34
-63,-47,15,50,-42,-17,12,-41,-65,-66,-31,-40
-75,-53,21,62,-48,-17,18,-29,-65,-66,-31,-40
-81,-53,27,68,-54,-11,18,-29,-65,-72,-37,-40
-75,-59,15,62,-48,-23,12,-29,-71,-78,-43,-52
-69,-59,9,62,-42,-23,12,-29,-71,-78,-43,-52
-51,-41,9,44,-30,-17,12,-23,-71,-66,-37,-52
-39,-41,-3,38,-18,-23,24,-17,-65,-66,-37,-52
-39,-41,-3,38,-18,-23,24,-17,-65,-66,-37,-58
-33,-47,-15,38,-12,-29,24,-17,-60,-72,-37,-64
-39,-47,-9,38,-18,-29,24,-17,-60,-66,-37,-58
-51,-47,3,44,-30,-23,24,-12,-60,-66,-43,-58
-51,-41,9,44,-30,-17,30,-12,-60,-66,-43,-52
-45,-41,3,44,-24,-17,30,-12,-60,-66,-49,-52
-45,-41,3,44,-24,-17,30,-12,-65,-66,-49,-58
-51,-41,9,44,-30,-17,30,-12,-71,-66,-49,-52
-63,-41,21,50,-42,-11,24,-12,-71,-66,-43,-52
-81,-47,33,62,-60,-5,18,-17,-77,-66,-43,-52
-69,-53,15,62,-42,-17,18,-23,-71,-72,-37,-52
-57,-47,9,50,-36,-17,24,-23,-65,-72,-31,-58
-39,-47,-9,38,-18,-29,12,-29,-65,-72,-37,-58
-33,-53,-21,44,-6,-35,12,-35,-71,-78,-37,-64
-39,-47,-9,38,-18,-29,18,-29,-65,-72,-31,-58
-39,-41,-3,38,-18,-23,18,-23,-65,-60,-26,-52
-33,-35,-3,32,-18,-17,12,-23,-65,-60,-31,-52
-45,-47,-3,44,-24,-23,0,-29,-65,-66,-31,-52
-51,-53,-3,50,-24,-29,0,-29,-65,-66,-37,-52
-69,-47,21,56,-48,-11,6,-23,-60,-60,-31,-40
-51,-47,3,44,-30,-23,12,-23,-60,-60,-31,-40
-39,-47,-9,38,-18,-29,12,-23,-60,-60,-31,-40
-39,-41,-3,38,-18,-23,24,-17,-60,-54,-26,-34
-51,-47,3,44,-30,-23,24,-17,-60,-54,-26,-34
-57,-53,3,56,-30,-23,18,-23,-65,-54,-26,-34
-45,-59,-15,50,-18,-35,12,-35,-71,-60,-31,-46
-51,-59,-9,50,-24,-35,6,-41,-77,-66,-37,-52
-51,-59,-9,50,-24,-35,6,-47,-77,-72,-43,-52
-51,-47,3,44,-30,-23,12,-47,-71,-72,-43,-52
-51,-35,15,38,-36,-11,18,-41,-71,-66,-37,-46
-57,-35,21,44,-42,-5,18,-35,-65,-60,-31,-40
-45,-29,15,38,-30,-5,18,-35,-65,-60,-37,-46
-51,-29,21,38,-36,-5,18,-29,-65,-60,-37,-46
-45,-35,9,38,-30,-11,12,-29,-71,-66,-43,-52
-39,-29,9,32,-24,-11,6,-29,-77,-66,-43,-52
-39,-29,9,32,-24,-11,12,-29,-71,-60,-43,-52
-51,-29,21,38,-36,-5,18,-29,-71,-54,-43,-52
-63,-35,27,44,-48,-5,18,-29,-71,-60,-43,-52
-63,-41,21,50,-42,-11,18,-35,-77,-66,-43,-58
-51,-35,15,38,-36,-11,12,-35,-77,-66,-49,-58
-57,-41,15,50,-36,-11,12,-41,-83,-72,-49,-58
-57,-41,15,50,-36,-11,12,-41,-83,-66,-49,-58
-51,-41,9,44,-30,-17,12,-41,-83,-60,-49,-52
-45,-47,-3,44,-24,-23,12,-41,-83,-60,-49,-52
-45,-53,-9,50,-18,-29,12,-41,-83,-60,-49,-52
-45,-53,-9,50,-18,-29,6,-41,-83,-60,-55,-52
-33,-59,-27,44,-6,-41,0,-47,-89,-66,-61,-52
-39,-59,-21,44,-12,-41,6,-47,-89,-66,-55,-46
-57,-59,-3,56,-30,-29,6,-47,-89,-66,-49,-46
-69,-65,3,68,-36,-29,6,-47,-89,-66,-43,-40
-81,-59,21,68,-54,-17,12,-47,-83,-66,-37,-40
-63,-53,9,56,-36,-23,24,-47,-83,-66,-37,-40
-63,-59,3,56,-36,-29,12,-59,-95,-72,-49,-46
-75,-71,3,68,-42,-35,12,-65,-95,-78,-55,-52
-69,-65,3,68,-36,-29,6,-65,-101,-78,-55,-52
-51,-59,-9,50,-24,-35,6,-65,-101,-84,-61,-58
-45,-53,-9,50,-18,-29,6,-65,-101,-90,-67,-64
-39,-59,-21,44,-12,-41,6,-59,-95,-84,-67,-64
-51,-53,-3,50,-24,-29,12,-53,-89,-84,-61,-58
-51,-59,-9,50,-24,-35,12,-59,-95,-84,-67,-58
-63,-65,-3,62,-30,-35,12,-59,-95,-84,-73,-58
-63,-59,3,56,-36,-29,12,-59,-101,-78,-67,-58
-57,-53,3,56,-30,-23,12,-59,-101,-78,-73,-58
-63,-59,3,56,-36,-29,12,-65,-107,-90,-73,-64
-69,-65,3,68,-36,-29,12,-65,-107,-90,-67,-58
-63,-65,-3,62,-30,-35,6,-59,-101,-90,-55,-58
-63,-65,-3,62,-30,-35,0,-59,-101,-90,-55,-58
-63,-65,-3,62,-30,-35,0,-59,-101,-90,-55,-58
-63,-71,-9,62,-30,-41,0,-65,-101,-90,-61,-58
-75,-77,-3,74,-36,-41,-6,-71,-107,-90,-67,-58
-75,-71,3,68,-42,-35,-6,-77,-107,-90,-67,-64
-75,-77,-3,74,-36,-41,0,-77,-107,-90,-67,-64
-87,-89,-3,86,-42,-47,0,-77,-107,-90,-67,-58
-93,-89,3,92,-48,-41,6,-71,-107,-90,-67,-58
-93,-101,-9,98,-42,-53,6,-77,-119,-90,-73,-64
-87,-101,-15,92,-36,-59,6,-77,-119,-90,-73,-64
-87,-107,-21,92,-36,-65,0,-77,-119,-96,-73,-64
-87,-113,-27,98,-30,-71,-6,-83,-125,-102,-79,-70
-63,-101,-37,80,-12,-71,-12,-89,-125,-108,-85,-76
-45,-95,-49,68,0,-71,-12,-89,-125,-108,-85,-82
-45,-89,-43,68,0,-65,-6,-77,-119,-102,-79,-70
-69,-83,-15,74,-30,-47,0,-71,-113,-90,-73,-64
-81,-83,-3,80,-42,-41,0,-71,-113,-90,-67,-64
-69,-83,-15,74,-30,-47,0,-71,-113,-90,-67,-64
-63,-77,-15,68,-24,-47,6,-65,-107,-84,-67,-58
-57,-83,-27,68,-18,-53,6,-71,-107,-90,-73,-58
-63,-89,-27,74,-18,-59,0,-77,-107,-96,-73,-58
-63,-95,-32,74,-18,-65,0,-77,-113,-108,-73,-58
-87,-101,-15,92,-36,-59,6,-77,-113,-102,-73,-52
-105,-113,-9,110,-48,-59,6,-77,-119,-108,-73,-64
-99,-113,-15,104,-42,-65,0,-77,-125,-108,-79,-64
-75,-101,-27,86,-24,-65,0,-71,-119,-96,-73,-64
-75,-95,-21,80,-30,-59,6,-71,-113,-90,-73,-58
-87,-101,-15,92,-36,-59,6,-71,-107,-84,-73,-58
-87,-95,-9,86,-42,-53,12,-65,-107,-84,-73,-58
-81,-101,-21,92,-30,-59,12,-71,-107,-78,-79,-58
-75,-101,-27,86,-24,-65,12,-71,-107,-84,-79,-58
-63,-101,-37,80,-12,-71,12,-77,-107,-90,-79,-58
-63,-101,-37,80,-12,-71,12,-77,-101,-90,-79,-52
-69,-107,-37,86,-18,-71,12,-71,-101,-84,-73,-46
-69,-101,-32,86,-18,-65,24,-65,-95,-78,-67,-46
-63,-101,-37,80,-12,-71,30,-65,-95,-78,-73,-46
-57,-107,-49,80,-6,-77,18,-71,-107,-84,-79,-52
-63,-119,-55,86,-6,-89,12,-77,-107,-84,-85,-52
-57,-125,-67,92,6,-95,12,-77,-107,-84,-85,-46
-75,-137,-61,104,-6,-101,12,-77,-101,-78,-79,-40
-87,-143,-55,110,-18,-101,18,-71,-95,-78,-73,-34
-81,-143,-61,110,-12,-101,18,-65,-95,-78,-73,-34
-81,-149,-67,116,-6,-107,12,-65,-89,-78,-73,-34
-63,-149,-85,104,12,-119,6,-71,-89,-84,-73,-40
-57,-149,-91,104,18,-119,6,-77,-95,-84,-79,-40
-57,-149,-91,104,18,-119,12,-77,-95,-84,-85,-40
-63,-149,-85,104,12,-119,18,-77,-101,-78,-85,-46
-81,-149,-67,116,-6,-107,24,-71,-101,-78,-85,-46
-81,-155,-73,116,-6,-113,24,-71,-101,-78,-85,-46
-81,-155,-73,116,-6,-113,24,-71,-107,-84,-73,-46
-81,-149,-67,116,-6,-107,24,-65,-101,-84,-67,-40
-81,-149,-67,116,-6,-107,24,-65,-95,-78,-67,-34
-75,-143,-67,104,-6,-107,24,-59,-95,-78,-61,-34
-81,-143,-61,110,-12,-101,24,-59,-95,-78,-61,-40
-81,-155,-73,116,-6,-113,24,-59,-101,-78,-61,-40
-87,-149,-61,116,-12,-107,24,-53,-95,-72,-55,-40
-81,-143,-61,110,-12,-101,30,-53,-95,-66,-49,-40
-57,-143,-85,98,12,-113,24,-59,-101,-72,-55,-40
-57,-143,-85,98,12,-113,24,-65,-107,-72,-55,-40
-63,-149,-85,104,12,-119,18,-71,-107,-72,-61,-40
-63,-143,-79,98,6,-113,18,-71,-113,-72,-61,-34
-75,-143,-67,104,-6,-107,18,-71,-113,-72,-61,-34
-75,-143,-67,104,-6,-107,18,-77,-113,-78,-67,-34
-75,-143,-67,104,-6,-107,18,-71,-107,-78,-61,-40
-69,-137,-67,104,0,-101,18,-71,-107,-78,-61,-40
-69,-131,-61,98,-6,-95,18,-71,-101,-78,-55,-46
-75,-137,-61,104,-6,-101,18,-65,-101,-78,-55,-46
-69,-143,-73,104,0,-107,12,-71,-101,-78,-55,-52
-57,-137,-79,98,12,-107,12,-71,-107,-84,-61,-58
-57,-137,-79,98,12,-107,12,-71,-107,-90,-61,-58
-69,-143,-73,104,0,-107,12,-77,-113,-90,-67,-64
-87,-143,-55,110,-18,-101,12,-71,-113,-84,-67,-58
-105,-149,-43,128,-30,-95,12,-77,-113,-90,-67,-58
-105,-149,-43,128,-30,-95,6,-83,-113,-90,-73,-52
-99,-149,-49,122,-24,-101,6,-83,-119,-90,-73,-52
-87,-143,-55,110,-18,-101,6,-83,-119,-90,-79,-52
-75,-131,-55,98,-12,-95,6,-83,-113,-84,-79,-52
-69,-137,-67,104,0,-101,6,-89,-119,-84,-85,-58
-75,-137,-61,104,-6,-101,6,-89,-119,-84,-79,-58
-81,-131,-49,104,-18,-89,12,-83,-107,-72,-67,-52
-75,-119,-43,92,-18,-83,18,-77,-107,-72,-67,-40
-63,-119,-55,86,-6,-89,18,-77,-107,-72,-55,-40
-51,-113,-61,80,6,-89,12,-77,-107,-78,-61,-40
-45,-113,-67,80,12,-89,12,-71,-107,-84,-67,-40
-45,-107,-61,74,6,-83,18,-65,-101,-84,-67,-40
-57,-107,-49,80,-6,-77,24,-65,-101,-84,-67,-40
-69,-113,-43,92,-12,-77,18,-65,-107,-84,-73,-46
-69,-119,-49,92,-12,-83,12,-65,-113,-90,-73,-52
-69,-113,-43,92,-12,-77,6,-71,-113,-90,-73,-58
-69,-113,-43,92,-12,-77,6,-71,-113,-90,-73,-58
-63,-113,-49,86,-6,-83,0,-77,-113,-90,-73,-64
-69,-113,-43,92,-12,-77,0,-71,-107,-84,-79,-58
-69,-107,-37,86,-18,-71,-6,-71,-107,-78,-79,-58
-63,-107,-43,80,-12,-77,-6,-77,-119,-90,-85,-64
-81,-119,-37,98,-24,-77,-6,-77,-119,-90,-85,-64
-87,-113,-27,98,-30,-71,0,-77,-119,-96,-91,-64
-81,-107,-27,92,-30,-65,0,-77,-119,-90,-91,-64
-87,-107,-21,92,-36,-65,0,-77,-119,-90,-79,-58
-87,-107,-21,92,-36,-65,-6,-71,-113,-84,-79,-58
-81,-107,-27,92,-30,-65,-12,-71,-119,-90,-79,-58
-69,-113,-43,92,-12,-77,-18,-77,-119,-96,-79,-64
-51,-107,-55,74,0,-83,-18,-83,-119,-102,-85,-70
-51,-101,-49,74,0,-77,-18,-83,-119,-102,-85,-70
-51,-101,-49,74,0,-77,-18,-83,-119,-102,-85,-64
-63,-107,-43,80,-12,-77,-18,-83,-119,-102,-85,-64
-63,-107,-43,80,-12,-77,-18,-83,-113,-96,-85,-64
-63,-107,-43,80,-12,-77,-24,-83,-119,-102,-91,-58
-69,-113,-43,92,-12,-77,-18,-83,-119,-102,-91,-58
-63,-113,-49,86,-6,-83,-18,-83,-119,-102,-85,-58
-69,-113,-43,92,-12,-77,-18,-83,-119,-102,-85,-58
-75,-107,-32,86,-24,-71,-18,-83,-119,-96,-85,-58
-75,-101,-27,86,-24,-65,-18,-83,-119,-96,-85,-58
-69,-107,-37,86,-18,-71,-24,-95,-119,-102,-85,-64
-87,-113,-27,98,-30,-71,-18,-95,-119,-102,-85,-64
-87,-119,-32,98,-30,-77,-24,-101,-119,-108,-91,-70
-69,-113,-43,92,-12,-77,-18,-101,-125,-108,-97,-76
-51,-107,-55,74,0,-83,-18,-101,-125,-108,-97,-70
-63,-107,-43,80,-12,-77,-12,-95,-119,-102,-85,-64
-75,-101,-27,86,-24,-65,-12,-89,-119,-96,-79,-64
-75,-101,-27,86,-24,-65,-12,-95,-125,-96,-85,-64
-75,-107,-32,86,-24,-71,-12,-95,-125,-96,-85,-70
-69,-101,-32,86,-18,-65,-12,-89,-119,-90,-79,-70
-69,-83,-15,74,-30,-47,-12,-83,-113,-84,-73,-64
-75,-83,-9,74,-36,-47,-6,-77,-107,-78,-73,-64
-63,-77,-15,68,-24,-47,0,-77,-101,-78,-73,-64
-51,-71,-21,56,-18,-47,0,-77,-95,-78,-79,-58
-51,-71,-21,56,-18,-47,6,-71,-95,-72,-73,-58
-51,-77,-27,62,-12,-53,12,-71,-95,-78,-73,-52
-51,-77,-27,62,-12,-53,18,-65,-95,-78,-67,-58
-39,-71,-32,50,-6,-53,18,-59,-89,-72,-67,-58
-39,-71,-32,50,-6,-53,18,-47,-89,-66,-67,-58
-51,-71,-21,56,-18,-47,18,-41,-83,-66,-61,-52
-39,-71,-32,50,-6,-53,12,-41,-83,-66,-67,-58
-27,-65,-37,44,6,-53,12,-41,-77,-66,-67,-58
-27,-59,-32,38,0,-47,18,-35,-71,-60,-61,-52
-27,-53,-27,38,0,-41,30,-29,-65,-54,-55,-46
-27,-59,-32,38,0,-47,30,-29,-65,-54,-55,-46
-15,-65,-49,38,18,-59,36,-23,-65,-54,-55,-40
-3,-59,-55,26,24,-59,30,-17,-65,-54,-49,-40
-3,-65,-61,32,30,-65,18,-17,-60,-48,-49,-40
3,-59,-61,26,30,-59,18,-12,-55,-42,-43,-34
9,-53,-61,20,36,-59,18,-12,-43,-31,-43,-28
15,-53,-67,20,42,-59,12,-7,-37,-31,-37,-28
9,-47,-55,14,30,-53,18,-1,-31,-20,-26,-22
15,-47,-61,14,36,-53,12,-1,-31,-20,-26,-22
9,-41,-49,14,30,-47,6,-7,-37,-20,-26,-28
15,-29,-43,8,30,-35,6,-7,-37,-20,-26,-28
21,-23,-43,-4,30,-35,-6,-12,-43,-20,-26,-28
33,-23,-55,-10,42,-41,-12,-17,-49,-26,-31,-28
69,-17,-85,-28,76,-53,-12,-23,-55,-31,-31,-22
93,-17,-109,-40,100,-65,-12,-23,-55,-31,-31,-22
87,-29,-115,-28,100,-71,-12,-29,-60,-31,-37,-22
81,-41,-121,-22,100,-83,-18,-41,-60,-36,-43,-34
75,-53,-127,-10,100,-89,-30,-53,-71,-48,-49,-40
69,-71,-139,-4,100,-107,-35,-65,-89,-60,-61,-52
45,-83,-127,14,82,-107,-40,-77,-101,-66,-73,-58
27,-77,-103,26,66,-89,-40,-77,-107,-66,-73,-52
27,-77,-103,26,66,-89,-40,-83,-107,-66,-73,-46
15,-77,-91,32,54,-83,-40,-89,-113,-72,-67,-46
9,-77,-85,32,48,-83,-40,-95,-113,-72,-67,-46
27,-71,-97,20,60,-83,-52,-107,-125,-78,-79,-52
33,-71,-103,14,66,-89,-52,-119,-131,-90,-85,-58
15,-77,-91,32,54,-83,-46,-119,-131,-90,-91,-58
3,-77,-79,38,42,-77,-46,-119,-131,-96,-97,-64
-9,-71,-61,38,24,-65,-52,-119,-137,-102,-103,-70
-33,-71,-37,50,0,-53,-46,-113,-137,-102,-109,-76
-45,-77,-32,62,-6,-53,-46,-113,-137,-102,-109,-82
-39,-83,-43,56,0,-65,-52,-119,-143,-114,-115,-94
-33,-83,-49,56,6,-65,-52,-119,-149,-114,-115,-100
-21,-83,-61,50,18,-71,-46,-125,-149,-120,-115,-100
-33,-83,-49,56,6,-65,-35,-119,-149,-114,-115,-88
-45,-95,-49,68,0,-71,-35,-125,-149,-120,-115,-88
-51,-95,-43,68,-6,-71,-35,-125,-155,-120,-121,-88
-51,-89,-37,68,-6,-65,-40,-131,-161,-126,-121,-88
-69,-89,-21,80,-24,-53,-46,-131,-161,-114,-121,-88
-99,-95,3,92,-54,-47,-40,-131,-155,-114,-121,-88
-117,-101,15,110,-66,-41,-35,-125,-155,-114,-127,-94
-135,-101,33,116,-84,-35,-35,-125,-155,-114,-127,-94
-141,-101,39,122,-90,-29,-35,-119,-149,-114,-127,-94
-129,-83,45,104,-90,-17,-30,-119,-149,-108,-127,-88
-105,-71,33,86,-72,-17,-24,-119,-143,-114,-127,-88
-93,-65,27,80,-60,-17,-24,-119,-143,-120,-127,-82
-93,-71,21,80,-60,-23,-24,-119,-143,-114,-121,-82
-99,-77,21,86,-60,-29,-30,-119,-149,-114,-121,-82
-99,-83,15,86,-60,-35,-30,-119,-149,-114,-121,-82
-93,-77,15,86,-54,-29,-30,-119,-149,-114,-121,-82
-93,-77,15,86,-54,-29,-35,-125,-149,-114,-121,-88
-105,-83,21,92,-66,-29,-35,-131,-155,-120,-127,-94
-105,-77,27,92,-66,-23,-35,-131,-155,-120,-127,-94
-105,-71,33,86,-72,-17,-35,-131,-149,-132,-121,-100
-105,-71,33,86,-72,-17,-35,-131,-155,-138,-121,-106
-99,-77,21,86,-60,-29,-46,-137,-155,-144,-133,-106
-99,-83,15,86,-60,-35,-40,-137,-155,-138,-133,-106
-99,-83,15,86,-60,-35,-40,-137,-155,-132,-127,-100
-93,-71,21,80,-60,-23,-40,-137,-161,-126,-127,-94
-81,-65,15,74,-48,-23,-35,-137,-161,-126,-127,-94
-81,-77,3,80,-42,-35,-35,-131,-161,-120,-121,-100
-69,-71,-3,68,-36,-35,-18,-107,-143,-108,-115,-100
-63,-59,3,56,-36,-29,6,-65,-113,-90,-97,-88
-51,-53,-3,50,-24,-29,18,-23,-71,-66,-79,-76
-27,-53,-27,38,0,-41,24,17,-25,-31,-61,-64
9,-53,-61,20,36,-59,12,53,17,10,-31,-40
81,-41,-121,-22,100,-83,6,95,95,88,21,2
163,-5,-169,-76,166,-83,-6,143,185,190,111,60
277,43,-235,-158,256,-95,-18,203,299,316,225,150
379,107,-271,-236,328,-77,-12,299,461,490,375,258
481,191,-289,-332,388,-47,-6,407,641,682,555,402
589,311,-277,-446,436,19,-6,473,815,874,735,546
667,437,-229,-548,448,107,0,527,971,1054,903,690
727,569,-157,-644,442,209,-6,569,1103,1222,1059,822
763,689,-73,-722,418,311,6,599,1223,1360,1185,930
769,737,-32,-752,400,353,36,611,1271,1414,1227,972
751,731,-21,-734,388,359,42,557,1229,1354,1167,936
697,683,-15,-686,358,335,24,425,1079,1186,1023,840
613,599,-15,-602,316,293,-24,233,863,958,837,720
511,521,9,-512,250,269,-88,5,623,730,657,600
397,443,45,-416,178,245,-148,-197,395,520,495,486
295,377,81,-332,106,233,-220,-395,173,316,339,378
181,299,117,-236,36,209,-280,-581,-65,106,171,252
45,209,165,-128,-60,185,-328,-749,-299,-96,3,126
-99,143,243,-22,-168,191,-352,-869,-497,-270,-127,18
-219,101,321,56,-270,209,-364,-947,-647,-414,-223,-70
-285,67,351,110,-318,209,-382,-989,-749,-498,-295,-136
-327,25,351,146,-342,185,-376,-995,-791,-546,-337,-178
-339,-23,315,176,-330,143,-364,-983,-803,-576,-361,-208
-345,-77,267,212,-306,95,-358,-947,-809,-588,-379,-232
-345,-131,213,236,-282,41,-346,-899,-791,-588,-391,-244
-327,-167,159,242,-246,-5,-322,-833,-755,-576,-397,-256
-303,-197,105,248,-204,-47,-286,-749,-701,-546,-385,-262
-267,-209,57,236,-162,-77,-250,-653,-641,-510,-373,-262
-237,-209,27,224,-132,-89,-214,-551,-563,-468,-355,-256
-201,-191,9,194,-108,-89,-184,-455,-479,-414,-325,-244
-177,-161,15,170,-96,-71,-148,-371,-401,-354,-283,-214
-147,-137,9,140,-78,-65,-118,-299,-329,-288,-235,-184
-129,-113,15,122,-72,-47,-88,-251,-269,-234,-193,-160
-105,-83,21,92,-66,-29,-58,-209,-221,-180,-145,-130
-93,-65,27,80,-60,-17,-35,-167,-179,-132,-115,-94
-87,-53,33,68,-60,-11,-24,-137,-155,-108,-97,-76
-81,-41,39,62,-60,1,-12,-107,-131,-90,-85,-70
-75,-35,39,50,-60,1,-6,-83,-113,-84,-91,-70
-87,-35,51,56,-72,7,6,-53,-95,-78,-85,-64
-87,-29,57,56,-72,13,18,-35,-83,-72,-85,-64
-75,-29,45,50,-60,7,18,-23,-77,-72,-85,-64
-69,-35,33,50,-54,1,12,-17,-77,-66,-79,-64
-69,-41,27,56,-48,-5,18,-12,-71,-60,-67,-64
-69,-41,27,56,-48,-5,24,-12,-60,-48,-61,-58
-75,-41,33,56,-54,-5,36,-7,-55,-36,-55,-52
-75,-29,45,50,-60,7,42,-1,-43,-31,-43,-40
-63,-17,45,38,-54,13,48,5,-31,-26,-37,-40
-75,-17,57,44,-66,19,42,11,-25,-26,-37,-40
-87,-29,57,56,-72,13,42,17,-25,-26,-37,-40
-87,-17,69,50,-78,24,48,29,-13,-20,-31,-40
-69,-5,63,38,-66,29,48,41,-7,-14,-31,-34
-51,13,63,14,-60,35,48,53,11,-2,-26,-34
-39,13,51,8,-48,29,48,59,17,4,-21,-34
-33,13,45,8,-42,29,48,59,17,10,-21,-34
-33,13,45,8,-42,29,48,59,11,4,-26,-28
-45,-5,39,26,-42,19,42,53,5,-8,-26,-34
-45,-11,33,26,-42,13,42,53,5,-14,-31,-40
-33,-23,9,26,-24,-5,36,47,5,-14,-31,-40
-21,-17,3,20,-12,-5,36,53,11,-8,-31,-40
-21,-17,3,20,-12,-5,36,59,17,-2,-26,-40
-15,-11,3,8,-12,-5,42,65,23,10,-26,-34
3,7,3,-4,0,7,42,71,35,16,-15,-22
3,13,9,-10,-6,13,48,83,41,28,-3,-10
-9,13,21,-4,-18,19,60,95,53,34,3,-4
-9,7,15,2,-12,13,54,95,59,34,9,2
-9,1,9,2,-12,7,48,101,65,40,9,2
-3,7,9,-4,-6,7,48,107,77,46,9,7
-9,13,21,-4,-18,19,60,119,89,64,21,12
-3,25,27,-16,-18,24,66,131,95,70,33,18
-3,25,27,-16,-18,24,66,131,95,82,39,24
3,31,27,-16,-12,29,60,137,95,88,39,18
27,25,-3,-28,12,13,54,131,89,76,33,18
33,31,-3,-34,18,13,48,137,95,82,33,18
39,31,-9,-34,24,13,48,137,101,76,33,18
39,31,-9,-34,24,13,42,143,107,82,33,24
51,43,-9,-46,30,19,48,149,119,82,39,30
51,55,3,-52,24,29,54,161,131,94,45,36
33,55,21,-46,6,35,60,167,143,100,57,48
15,55,39,-34,-12,47,66,173,149,112,63,48
15,49,33,-34,-12,41,66,179,149,112,63,48
27,55,27,-40,0,41,72,185,155,118,69,48
45,61,15,-58,12,35,72,191,161,124,75,48
51,61,9,-58,18,35,72,203,167,136,81,54
69,73,3,-76,30,35,72,215,173,148,87,66
93,78,-15,-88,54,29,72,221,179,154,87,66
110,78,-32,-93,71,24,72,227,185,160,93,72
110,83,-27,-93,71,29,72,233,191,166,99,72
105,83,-21,-93,66,29,72,239,203,166,105,72
105,83,-21,-93,66,29,72,245,215,172,105,72
110,83,-27,-93,71,29,72,251,221,178,111,72
115,83,-32,-93,76,29,72,257,227,178,111,78
121,89,-32,-104,76,29,72,263,233,184,123,84
110,95,-15,-98,66,41,84,275,245,202,135,96
115,101,-15,-104,66,47,84,287,251,214,141,108
121,107,-15,-110,71,47,84,293,263,220,147,108
127,113,-15,-116,71,53,78,299,269,226,153,114
133,113,-21,-122,76,47,78,299,287,232,159,114
133,119,-15,-122,76,53,78,317,305,244,177,126
139,131,-9,-128,76,65,78,323,317,256,183,132
151,131,-21,-134,88,59,78,335,323,256,189,138
151,137,-15,-140,82,65,78,347,335,268,195,144
169,155,-15,-158,94,71,84,365,347,286,201,150
193,173,-21,-182,106,77,96,377,365,304,213,168
205,179,-27,-188,118,77,96,389,371,316,225,174
211,179,-32,-188,124,77,90,401,383,328,231,180
205,185,-21,-194,112,83,90,413,401,334,243,186
211,197,-15,-200,112,95,84,425,413,346,249,186
211,203,-9,-200,112,101,84,431,425,352,261,186
217,215,-3,-212,112,107,84,449,443,364,273,192
223,221,-3,-218,112,113,84,455,449,370,279,192
229,227,-3,-224,118,113,78,461,461,382,285,204
241,221,-21,-230,130,101,72,467,467,388,285,210
253,227,-27,-236,142,101,72,467,479,400,297,222
271,233,-37,-248,154,101,72,473,491,412,309,234
289,245,-43,-266,166,101,72,485,509,430,321,246
301,257,-43,-278,172,107,78,497,527,448,339,258
313,263,-49,-284,184,107,78,509,545,460,357,270
313,257,-55,-284,184,101,72,515,557,472,375,276
301,245,-55,-272,178,95,72,527,563,490,381,282
295,245,-49,-266,172,101,72,533,575,502,393,294
313,257,-55,-284,184,101,72,539,593,514,405,300
343,281,-61,-308,202,113,72,551,605,526,417,318
367,293,-73,-326,220,113,72,563,617,538,429,330
379,311,-67,-338,226,125,72,575,629,556,441,348
391,323,-67,-350,232,131,72,587,641,568,453,360
397,329,-67,-362,232,131,66,587,647,574,459,366
409,317,-91,-362,250,113,60,581,647,574,459,366
409,317,-91,-362,250,113,54,581,653,580,465,372
415,323,-91,-362,256,119,60,575,659,580,471,378
421,335,-85,-374,256,125,60,575,659,586,477,384
421,335,-85,-374,256,125,54,575,665,592,483,384
427,341,-85,-380,256,131,54,569,671,598,489,390
433,341,-91,-386,262,125,48,569,671,604,495,396
433,347,-85,-386,262,131,48,563,665,610,501,402
433,353,-79,-392,256,137,48,563,665,610,507,408
421,353,-67,-386,244,143,42,557,659,610,507,408
409,341,-67,-374,238,137,36,545,647,604,495,402
397,335,-61,-362,232,137,30,533,635,592,489,402
385,323,-61,-350,226,131,24,515,617,580,477,390
373,317,-55,-344,214,131,24,503,605,568,477,384
373,317,-55,-344,214,131,24,491,593,556,471,378
367,305,-61,-332,214,125,18,467,575,538,459,366
361,293,-67,-326,214,113,18,443,557,520,447,354
373,287,-85,-326,232,101,12,419,533,496,423,336
373,281,-91,-326,232,95,12,395,503,472,405,318
355,269,-85,-308,220,95,12,389,479,448,381,300
313,257,-55,-284,184,101,18,383,461,436,363,288
277,251,-27,-260,154,113,30,371,443,418,351,276
265,245,-21,-254,142,113,30,353,413,400,327,252
253,233,-21,-242,136,107,30,329,377,370,303,228
229,215,-15,-218,124,101,30,305,353,346,279,210
187,191,3,-182,94,101,36,281,329,322,261,198
163,173,9,-164,76,95,42,263,311,298,237,180
139,149,9,-140,66,83,42,245,287,268,213,162
133,131,-3,-128,71,65,42,221,263,238,183,138
110,119,9,-110,54,65,48,209,239,220,171,126
87,113,27,-98,30,71,54,197,215,202,153,114
81,95,15,-88,36,53,48,167,185,172,129,90
87,78,-9,-82,48,35,42,143,143,148,105,60
81,67,-15,-76,48,24,48,125,119,124,81,48
63,61,-3,-64,30,29,42,113,95,106,69,42
27,49,21,-40,0,35,42,101,89,94,63,36
9,31,21,-22,-6,24,42,89,83,82,57,36
3,19,15,-10,-6,19,42,77,77,64,45,30
-9,13,21,-4,-18,19,48,71,71,58,39,24
-21,1,21,8,-24,13,48,65,59,46,33,18
-33,-5,27,20,-30,13,54,59,47,40,27,12
-39,-11,27,20,-36,7,48,47,35,34,21,7
-39,-23,15,26,-30,-5,42,29,17,16,3,-4
-51,-35,15,38,-36,-11,36,23,5,10,-3,-10
-57,-35,21,44,-42,-5,36,17,-1,-2,-9,-16
-45,-35,9,38,-30,-11,24,5,-13,-20,-26,-28
-39,-47,-9,38,-18,-29,24,-7,-25,-31,-37,-40
-39,-53,-15,44,-12,-35,24,-12,-31,-36,-43,-40
-45,-59,-15,50,-18,-35,24,-12,-37,-36,-49,-46
-51,-71,-21,56,-18,-47,24,-17,-49,-42,-49,-46
-51,-83,-32,62,-12,-59,18,-29,-55,-48,-55,-58
-51,-95,-43,68,-6,-71,12,-41,-65,-60,-61,-70
-45,-83,-37,62,-6,-59,12,-47,-71,-72,-67,-76
-51,-77,-27,62,-12,-53,12,-47,-65,-72,-61,-70
-69,-71,-3,68,-36,-35,24,-41,-60,-72,-61,-64
-75,-71,3,68,-42,-35,18,-47,-65,-72,-61,-70
-75,-65,9,68,-42,-29,24,-41,-60,-66,-67,-64
-63,-65,-3,62,-30,-35,24,-41,-60,-66,-67,-64
-39,-59,-21,44,-12,-41,18,-47,-65,-66,-73,-70
-45,-65,-21,56,-12,-41,24,-41,-71,-72,-67,-70
-57,-65,-9,62,-24,-35,24,-41,-71,-72,-67,-70
-57,-59,-3,56,-30,-29,24,-41,-71,-78,-67,-70
-51,-53,-3,50,-24,-29,18,-41,-71,-84,-67,-76
-51,-59,-9,50,-24,-35,18,-47,-77,-84,-73,-76
-63,-65,-3,62,-30,-35,18,-53,-83,-84,-79,-82
-75,-77,-3,74,-36,-41,18,-53,-83,-84,-79,-82
-81,-77,3,80,-42,-35,24,-41,-71,-78,-73,-70
-81,-83,-3,80,-42,-41,30,-35,-65,-72,-67,-64
-69,-83,-15,74,-30,-47,30,-35,-65,-72,-67,-58
-51,-77,-27,62,-12,-53,30,-35,-65,-72,-67,-58
-51,-77,-27,62,-12,-53,24,-41,-65,-72,-67,-58
-45,-77,-32,62,-6,-53,24,-41,-65,-78,-73,-58
-45,-77,-32,62,-6,-53,18,-47,-65,-78,-79,-64
-45,-77,-32,62,-6,-53,18,-47,-65,-78,-85,-64
-45,-71,-27,56,-12,-47,18,-41,-65,-78,-85,-64
-51,-71,-21,56,-18,-47,24,-35,-60,-72,-73,-58
-63,-77,-15,68,-24,-47,36,-29,-60,-72,-73,-58
-45,-77,-32,62,-6,-53,36,-29,-60,-72,-73,-58
-39,-83,-43,56,0,-65,30,-35,-60,-72,-73,-64
-33,-89,-55,62,12,-71,30,-35,-60,-78,-73,-64
-39,-95,-55,62,6,-77,30,-35,-55,-72,-73,-64
-45,-89,-43,68,0,-65,30,-29,-49,-66,-61,-52
-63,-83,-21,68,-24,-53,36,-29,-49,-60,-55,-52
-57,-89,-32,74,-12,-59,30,-29,-55,-66,-49,-52
-51,-89,-37,68,-6,-65,18,-35,-55,-66,-55,-58
-69,-95,-27,80,-24,-59,24,-29,-55,-60,-49,-52
-93,-95,-3,92,-48,-47,36,-17,-49,-54,-49,-46
-87,-89,-3,86,-42,-47,42,-12,-43,-54,-49,-46
-75,-89,-15,80,-30,-53,42,-17,-49,-54,-55,-52
-69,-89,-21,80,-24,-53,42,-17,-43,-48,-55,-46
-57,-89,-32,74,-12,-59,42,-23,-49,-48,-55,-52
-69,-95,-27,80,-24,-59,42,-23,-49,-48,-55,-46
-75,-89,-15,80,-30,-53,42,-23,-43,-48,-49,-34
-63,-89,-27,74,-18,-59,36,-23,-49,-54,-49,-40
-63,-83,-21,68,-24,-53,30,-23,-49,-54,-49,-40
-63,-83,-21,68,-24,-53,30,-23,-55,-60,-49,-40
-63,-89,-27,74,-18,-59,24,-23,-55,-60,-61,-40
-69,-89,-21,80,-24,-53,24,-29,-55,-54,-61,-40
-69,-95,-27,80,-24,-59,30,-29,-55,-54,-61,-46
-69,-101,-32,86,-18,-65,30,-35,-55,-54,-61,-46
-69,-95,-27,80,-24,-59,36,-35,-49,-54,-55,-46
-63,-89,-27,74,-18,-59,36,-35,-55,-54,-55,-46
-63,-95,-32,74,-18,-65,36,-35,-60,-60,-55,-52
-63,-95,-32,74,-18,-65,36,-35,-60,-66,-61,-58
-63,-95,-32,74,-18,-65,42,-29,-60,-66,-61,-52
-75,-101,-27,86,-24,-65,42,-29,-60,-60,-61,-52
-75,-107,-32,86,-24,-71,36,-35,-65,-66,-67,-58
-69,-107,-37,86,-18,-71,36,-41,-65,-66,-67,-52
-63,-101,-37,80,-12,-71,36,-41,-65,-66,-67,-52
-57,-101,-43,80,-6,-71,36,-35,-60,-60,-67,-52
-57,-95,-37,74,-12,-65,42,-35,-60,-60,-61,-52
-51,-95,-43,68,-6,-71,36,-35,-60,-60,-61,-52
-63,-95,-32,74,-18,-65,36,-29,-60,-66,-55,-46
-63,-95,-32,74,-18,-65,42,-29,-65,-66,-55,-40
-51,-95,-43,68,-6,-71,48,-35,-65,-72,-61,-46
-45,-95,-49,68,0,-71,48,-35,-65,-72,-55,-40
-39,-89,-49,62,6,-71,54,-29,-65,-66,-55,-40
-39,-95,-55,62,6,-77,48,-35,-65,-66,-55,-40
-51,-107,-55,74,0,-83,42,-47,-71,-72,-61,-46
-57,-113,-55,86,0,-83,42,-47,-65,-72,-67,-52
-39,-101,-61,68,12,-83,42,-41,-65,-72,-67,-46
-39,-95,-55,62,6,-77,42,-41,-60,-72,-67,-46
-39,-95,-55,62,6,-77,36,-41,-65,-78,-67,-46
-45,-101,-55,74,6,-77,36,-41,-65,-78,-73,-46
-45,-107,-61,74,6,-83,30,-47,-71,-84,-79,-52
-33,-113,-79,74,24,-95,18,-59,-83,-96,-91,-64
-27,-113,-85,68,30,-101,18,-65,-77,-90,-91,-64
-33,-107,-73,68,18,-89,24,-59,-77,-84,-91,-64
-39,-107,-67,68,12,-89,24,-59,-77,-84,-91,-58
-33,-107,-73,68,18,-89,24,-65,-77,-90,-91,-64
-33,-113,-79,74,24,-95,24,-65,-83,-96,-97,-64
-51,-119,-67,80,6,-95,30,-59,-83,-96,-91,-64
-63,-131,-67,92,0,-101,24,-59,-89,-96,-97,-70
-63,-125,-61,92,0,-95,24,-59,-83,-102,-91,-70
-63,-119,-55,86,-6,-89,18,-59,-83,-102,-85,-70
-63,-119,-55,86,-6,-89,18,-65,-89,-102,-85,-58
-57,-113,-55,86,0,-83,18,-65,-89,-102,-91,-64
-51,-113,-61,80,6,-89,18,-65,-89,-102,-91,-64
-51,-113,-61,80,6,-89,18,-71,-89,-102,-97,-64
-45,-113,-67,80,12,-89,30,-65,-83,-90,-91,-64
-63,-113,-49,86,-6,-83,42,-53,-83,-90,-85,-58
-57,-119,-61,86,0,-89,48,-53,-83,-90,-85,-58
-57,-119,-61,86,0,-89,42,-53,-89,-96,-85,-58
-63,-125,-61,92,0,-95,42,-53,-89,-96,-79,-58
-69,-125,-55,98,-6,-89,36,-59,-89,-102,-85,-58
-63,-119,-55,86,-6,-89,36,-65,-89,-102,-85,-58
-39,-107,-67,68,12,-89,36,-65,-83,-96,-85,-58
-45,-113,-67,80,12,-89,24,-65,-89,-102,-91,-64
-45,-125,-79,86,18,-101,24,-71,-101,-102,-97,-70
-63,-143,-79,98,6,-113,24,-71,-101,-102,-97,-70
-81,-149,-67,116,-6,-107,24,-65,-101,-96,-97,-70
-69,-131,-61,98,-6,-95,30,-65,-95,-96,-91,-64
-69,-125,-55,98,-6,-89,30,-65,-95,-96,-91,-64
-81,-125,-43,104,-18,-83,36,-59,-95,-96,-91,-64
-93,-131,-37,110,-30,-83,36,-59,-101,-102,-97,-70
-93,-131,-37,110,-30,-83,36,-71,-101,-108,-103,-70
-105,-137,-32,122,-36,-83,36,-59,-95,-102,-97,-58
-99,-137,-37,116,-30,-89,42,-59,-89,-96,-97,-58
-93,-137,-43,116,-24,-89,36,-59,-95,-96,-97,-58
-81,-137,-55,110,-12,-95,36,-59,-95,-90,-97,-64
-69,-125,-55,98,-6,-89,36,-53,-95,-84,-91,-64
-63,-119,-55,86,-6,-89,30,-59,-95,-84,-91,-70
-69,-125,-55,98,-6,-89,30,-65,-101,-90,-97,-76
-75,-125,-49,98,-12,-89,30,-71,-101,-96,-103,-76
-81,-119,-37,98,-24,-77,36,-65,-101,-96,-103,-70
-75,-125,-49,98,-12,-89,30,-71,-101,-102,-109,-76
-69,-131,-61,98,-6,-95,18,-77,-107,-114,-115,-82
-75,-143,-67,104,-6,-107,18,-71,-101,-108,-115,-82
-93,-149,-55,122,-18,-101,24,-65,-95,-96,-103,-76
-93,-149,-55,122,-18,-101,24,-65,-95,-96,-97,-70
-81,-149,-67,116,-6,-107,18,-65,-101,-96,-103,-82
-51,-143,-91,92,18,-119,18,-71,-107,-102,-109,-88
-45,-143,-97,92,24,-119,12,-77,-113,-108,-115,-94
-45,-131,-85,86,18,-107,24,-71,-107,-108,-103,-82
-69,-119,-49,92,-12,-83,30,-65,-101,-102,-91,-70
-81,-119,-37,98,-24,-77,30,-65,-101,-108,-91,-64
-81,-125,-43,104,-18,-83,24,-71,-101,-108,-103,-70
-87,-119,-32,98,-30,-77,24,-65,-95,-102,-103,-58
-93,-119,-27,104,-36,-71,18,-65,-95,-96,-103,-46
-105,-137,-32,122,-36,-83,12,-65,-95,-90,-103,-46
-99,-143,-43,116,-30,-95,12,-71,-95,-90,-103,-52
-99,-143,-43,116,-30,-95,18,-71,-95,-90,-103,-58
-105,-143,-37,122,-36,-89,18,-71,-95,-96,-103,-64
-105,-149,-43,128,-30,-95,18,-71,-95,-102,-103,-64
-93,-137,-43,116,-24,-89,18,-71,-101,-108,-103,-70
-75,-137,-61,104,-6,-101,6,-83,-107,-114,-109,-76
-57,-137,-79,98,12,-107,6,-89,-119,-114,-109,-82
-45,-131,-85,86,18,-107,12,-89,-119,-114,-109,-82
-69,-131,-61,98,-6,-95,18,-83,-119,-108,-103,-82
-81,-143,-61,110,-12,-101,18,-83,-119,-108,-103,-82
-75,-137,-61,104,-6,-101,18,-83,-119,-108,-103,-82
-75,-143,-67,104,-6,-107,18,-83,-119,-114,-103,-88
-75,-143,-67,104,-6,-107,18,-77,-113,-108,-97,-88
-75,-137,-61,104,-6,-101,18,-77,-107,-108,-91,-82
-99,-131,-32,110,-36,-83,18,-71,-101,-96,-85,-70
-105,-125,-21,116,-42,-71,24,-71,-101,-96,-79,-70
-99,-131,-32,110,-36,-83,18,-77,-101,-102,-85,-76
-87,-131,-43,104,-24,-89,12,-83,-113,-108,-97,-82
-87,-131,-43,104,-24,-89,12,-77,-113,-108,-97,-76
-75,-125,-49,98,-12,-89,18,-77,-107,-102,-97,-76
-75,-125,-49,98,-12,-89,18,-77,-113,-108,-97,-70
-81,-119,-37,98,-24,-77,24,-71,-113,-114,-91,-70
-81,-125,-43,104,-18,-83,24,-71,-113,-114,-91,-70
-93,-131,-37,110,-30,-83,24,-71,-113,-114,-85,-70
-105,-131,-27,116,-42,-77,30,-71,-107,-108,-85,-70
-111,-137,-27,122,-42,-83,30,-71,-107,-108,-85,-64
-111,-143,-32,122,-42,-89,18,-77,-113,-102,-85,-70
-123,-149,-27,134,-48,-89,12,-83,-119,-108,-91,-76
-111,-137,-27,122,-42,-83,18,-77,-119,-108,-91,-70
-111,-131,-21,116,-48,-77,18,-77,-113,-108,-91,-70
-105,-131,-27,116,-42,-77,12,-83,-113,-114,-97,-76
-105,-125,-21,116,-42,-71,12,-83,-107,-114,-103,-76
-99,-119,-21,104,-42,-71,12,-83,-107,-114,-97,-70
-105,-119,-15,110,-48,-65,18,-77,-101,-114,-97,-76
-93,-125,-32,110,-30,-77,18,-83,-107,-114,-97,-76
-87,-131,-43,104,-24,-89,18,-83,-107,-114,-97,-76
-87,-137,-49,110,-18,-95,18,-83,-113,-114,-97,-82
-81,-125,-43,104,-18,-83,18,-77,-107,-114,-97,-76
-69,-113,-43,92,-12,-77,18,-71,-107,-108,-97,-76
-81,-107,-27,92,-30,-65,24,-71,-101,-108,-97,-76
-87,-107,-21,92,-36,-65,18,-71,-107,-108,-97,-76
-93,-113,-21,104,-36,-65,18,-77,-107,-114,-97,-82
-93,-113,-21,104,-36,-65,18,-83,-107,-114,-97,-76
-87,-125,-37,104,-24,-83,18,-83,-107,-114,-97,-76
-87,-131,-43,104,-24,-89,12,-83,-113,-114,-91,-76
-87,-149,-61,116,-12,-107,6,-89,-119,-114,-97,-82
-87,-149,-61,116,-12,-107,12,-89,-119,-114,-97,-88
-81,-143,-61,110,-12,-101,12,-83,-113,-114,-97,-82
-69,-137,-67,104,0,-101,12,-83,-113,-114,-97,-88
-69,-131,-61,98,-6,-95,6,-83,-113,-120,-103,-94
-69,-125,-55,98,-6,-89,6,-89,-119,-120,-109,-94
-57,-119,-61,86,0,-89,0,-89,-119,-120,-109,-94
-45,-113,-67,80,12,-89,0,-95,-119,-114,-103,-88
-63,-107,-43,80,-12,-77,6,-83,-113,-102,-91,-76
-75,-113,-37,92,-18,-77,18,-77,-113,-102,-85,-70
-81,-107,-27,92,-30,-65,18,-71,-113,-102,-85,-70
-75,-113,-37,92,-18,-77,18,-71,-113,-102,-85,-70
-81,-113,-32,98,-24,-71,12,-71,-113,-102,-91,-76
-69,-113,-43,92,-12,-77,0,-77,-119,-114,-91,-82
-57,-113,-55,86,0,-83,-6,-89,-125,-120,-103,-94
-63,-119,-55,86,-6,-89,-6,-89,-119,-114,-97,-100
-87,-119,-32,98,-30,-77,0,-83,-113,-108,-91,-94
-99,-125,-27,110,-36,-77,6,-83,-119,-108,-97,-94
-105,-119,-15,110,-48,-65,6,-71,-119,-108,-91,-82
-105,-113,-9,110,-48,-59,18,-71,-119,-108,-91,-82
-99,-125,-27,110,-36,-77,6,-71,-125,-108,-97,-82
-99,-125,-27,110,-36,-77,6,-71,-119,-108,-91,-70
-93,-125,-32,110,-30,-77,0,-71,-119,-108,-91,-70
-93,-119,-27,104,-36,-71,0,-77,-119,-108,-91,-70
-105,-113,-9,110,-48,-59,6,-71,-113,-102,-85,-70
-99,-107,-9,98,-48,-59,6,-71,-113,-102,-91,-70
-87,-107,-21,92,-36,-65,0,-77,-119,-108,-97,-76
-81,-107,-27,92,-30,-65,0,-83,-125,-108,-103,-88
-69,-107,-37,86,-18,-71,6,-83,-131,-108,-109,-88
-63,-107,-43,80,-12,-77,6,-77,-125,-114,-109,-94
-81,-119,-37,98,-24,-77,12,-71,-119,-114,-97,-88
-87,-119,-32,98,-30,-77,12,-71,-119,-114,-91,-88
-81,-107,-27,92,-30,-65,12,-71,-119,-120,-91,-88
-87,-107,-21,92,-36,-65,12,-71,-119,-120,-91,-82
-81,-107,-27,92,-30,-65,12,-71,-119,-120,-91,-82
-87,-101,-15,92,-36,-59,12,-77,-119,-114,-85,-82
-87,-89,-3,86,-42,-47,12,-83,-119,-114,-91,-82
-93,-95,-3,92,-48,-47,12,-77,-119,-108,-85,-82
-105,-95,9,98,-60,-41,18,-77,-119,-108,-85,-82
-99,-101,-3,98,-48,-53,12,-83,-125,-108,-97,-88
-93,-101,-9,98,-42,-53,6,-83,-125,-114,-103,-88
-87,-101,-15,92,-36,-59,6,-83,-125,-120,-103,-94
-81,-95,-15,86,-36,-53,6,-83,-119,-120,-103,-94
-69,-83,-15,74,-30,-47,6,-77,-119,-120,-103,-100
-57,-89,-32,74,-12,-59,6,-77,-119,-120,-103,-100
-57,-95,-37,74,-12,-65,6,-77,-125,-126,-109,-106
-57,-101,-43,80,-6,-71,12,-77,-131,-126,-109,-106
-51,-101,-49,74,0,-77,12,-71,-119,-120,-103,-100
-45,-95,-49,68,0,-71,24,-59,-113,-108,-85,-94
-51,-95,-43,68,-6,-71,24,-47,-107,-102,-79,-88
-57,-83,-27,68,-18,-53,30,-41,-95,-96,-79,-76
-39,-83,-43,56,0,-65,30,-41,-101,-96,-79,-76
-21,-83,-61,50,18,-71,24,-41,-95,-96,-85,-76
-21,-83,-61,50,18,-71,24,-41,-95,-96,-79,-76
-27,-83,-55,50,12,-71,24,-35,-83,-90,-73,-70
-45,-89,-43,68,0,-65,36,-23,-83,-84,-67,-70
-39,-89,-49,62,6,-71,30,-23,-83,-90,-67,-76
-21,-95,-73,56,24,-83,18,-29,-83,-90,-73,-82
3,-95,-97,44,48,-95,18,-23,-83,-84,-73,-82
3,-95,-97,44,48,-95,18,-17,-77,-78,-67,-82
-3,-101,-97,50,48,-101,18,-12,-71,-78,-67,-76
-3,-101,-97,50,48,-101,24,-12,-60,-72,-55,-70
9,-101,-109,44,60,-107,24,-1,-60,-66,-55,-64
21,-89,-109,32,66,-101,24,-1,-55,-66,-49,-58
27,-71,-97,20,60,-83,24,-1,-55,-60,-37,-52
15,-65,-79,26,48,-71,18,-1,-60,-60,-37,-52
3,-59,-61,26,30,-59,18,5,-60,-54,-37,-52
3,-53,-55,26,30,-53,12,-1,-60,-54,-37,-52
-3,-47,-43,20,18,-47,12,-1,-60,-48,-37,-52
3,-47,-49,20,24,-47,6,-7,-60,-48,-43,-52
15,-47,-61,14,36,-53,-6,-17,-65,-60,-49,-58
27,-47,-73,8,48,-59,-12,-29,-77,-66,-55,-52
33,-47,-79,2,54,-65,-12,-29,-77,-72,-55,-52
33,-53,-85,8,60,-71,-12,-35,-77,-84,-61,-58
33,-65,-97,14,66,-83,-18,-35,-83,-90,-61,-64
27,-71,-97,20,60,-83,-24,-41,-83,-90,-61,-64
15,-89,-103,38,60,-95,-30,-47,-89,-96,-67,-76
-3,-101,-97,50,48,-101,-30,-59,-101,-96,-73,-82
3,-101,-103,50,54,-101,-30,-65,-107,-102,-79,-82
3,-101,-103,50,54,-101,-35,-71,-119,-108,-85,-88
3,-107,-109,50,54,-107,-40,-83,-131,-120,-91,-94
3,-95,-97,44,48,-95,-40,-95,-137,-126,-91,-100
9,-77,-85,32,48,-83,-35,-95,-131,-126,-91,-94
9,-71,-79,26,42,-77,-35,-95,-131,-126,-91,-94
3,-71,-73,32,36,-71,-40,-101,-131,-126,-91,-94
3,-77,-79,38,42,-77,-40,-101,-143,-138,-97,-106
-9,-83,-73,44,30,-77,-35,-101,-137,-126,-97,-106
-27,-83,-55,50,12,-71,-24,-89,-131,-120,-85,-100
-39,-89,-49,62,6,-71,-12,-89,-131,-114,-79,-94
-57,-95,-37,74,-12,-65,-12,-95,-131,-114,-79,-100
-69,-101,-32,86,-18,-65,-12,-101,-131,-126,-85,-100
-81,-95,-15,86,-36,-53,-6,-101,-131,-126,-85,-100
-81,-95,-15,86,-36,-53,-6,-101,-131,-132,-91,-106
-75,-95,-21,80,-30,-59,-12,-101,-137,-138,-103,-106
-87,-95,-9,86,-42,-53,-12,-107,-137,-138,-103,-106
-111,-107,3,104,-60,-53,-18,-107,-143,-138,-109,-106
-111,-101,9,104,-60,-47,-18,-107,-143,-132,-97,-106
-99,-95,3,92,-54,-47,-24,-107,-149,-132,-97,-106
-75,-101,-27,86,-24,-65,-24,-119,-155,-144,-97,-118
-75,-113,-37,92,-18,-77,-30,-119,-161,-150,-103,-118
-75,-113,-37,92,-18,-77,-30,-119,-167,-156,-103,-124
-69,-107,-37,86,-18,-71,-35,-125,-167,-156,-103,-124
-75,-101,-27,86,-24,-65,-30,-119,-161,-150,-97,-118
-93,-89,3,92,-48,-41,-24,-107,-149,-138,-91,-106
-105,-83,21,92,-66,-29,-12,-107,-143,-132,-85,-100
-117,-83,33,98,-78,-23,-6,-107,-143,-138,-91,-100
-105,-83,21,92,-66,-29,-6,-107,-149,-138,-97,-106
-111,-89,21,98,-66,-35,-12,-113,-155,-144,-103,-112
-129,-89,39,110,-84,-23,-12,-107,-155,-144,-97,-106
-147,-101,45,122,-96,-29,-12,-107,-155,-144,-97,-106
-147,-95,51,116,-102,-23,-12,-107,-149,-144,-91,-106
-135,-89,45,110,-90,-23,-12,-101,-149,-144,-91,-106
-123,-77,45,98,-84,-17,-12,-101,-149,-144,-91,-106
-105,-77,27,92,-66,-23,-12,-101,-149,-144,-91,-112
-105,-83,21,92,-66,-29,-12,-107,-149,-144,-85,-112
-111,-89,21,98,-66,-35,-6,-101,-149,-144,-85,-112
-105,-83,21,92,-66,-29,0,-95,-143,-138,-85,-106
-99,-77,21,86,-60,-29,6,-71,-125,-126,-85,-100
-93,-71,21,80,-60,-23,18,-35,-107,-108,-73,-88
-87,-65,21,74,-54,-23,30,-1,-71,-72,-49,-76
-63,-53,9,56,-36,-23,48,41,-31,-31,-15,-58
-9,-35,-27,20,6,-29,48,77,17,16,27,-28
75,-11,-85,-34,76,-47,36,113,89,82,93,12
169,25,-145,-98,154,-59,30,161,179,172,177,66
253,73,-181,-164,214,-53,30,245,311,304,285,144
343,137,-205,-236,274,-29,42,353,473,466,417,246
445,227,-217,-332,334,7,48,431,629,634,561,366
547,341,-205,-440,376,71,48,497,779,808,717,498
643,461,-181,-548,412,143,42,557,911,976,873,636
733,599,-133,-662,436,233,30,593,1043,1138,1029,774
811,707,-103,-752,460,305,30,605,1145,1270,1155,882
841,749,-91,-794,466,329,42,599,1193,1312,1197,924
817,731,-85,-770,454,323,36,533,1151,1246,1143,894
769,677,-91,-722,430,293,0,389,1007,1078,999,810
697,593,-103,-644,400,245,-64,197,791,856,813,696
589,515,-73,-548,334,221,-136,-1,581,652,645,582
463,455,-9,-452,238,227,-202,-167,377,466,495,480
361,389,27,-374,166,209,-274,-353,155,262,339,372
241,305,63,-272,88,185,-346,-557,-101,46,171,246
110,209,99,-158,6,155,-406,-731,-347,-156,15,126
-45,119,165,-34,-102,143,-436,-869,-557,-342,-115,12
-171,55,225,56,-198,137,-454,-965,-719,-486,-223,-76
-249,1,249,122,-252,125,-448,-995,-803,-570,-295,-142
-297,-47,249,170,-276,101,-430,-983,-827,-612,-337,-190
-315,-101,213,206,-264,53,-418,-953,-833,-636,-367,-232
-303,-137,165,218,-234,13,-394,-899,-815,-636,-385,-256
-291,-155,135,218,-216,-11,-358,-821,-773,-606,-373,-268
-285,-173,111,230,-198,-29,-316,-737,-719,-570,-361,-274
-273,-185,87,230,-180,-47,-274,-653,-659,-534,-349,-262
-243,-191,51,212,-150,-71,-232,-551,-593,-492,-319,-250
-201,-179,21,188,-114,-77,-196,-461,-527,-450,-289,-238
-159,-161,-3,158,-78,-83,-160,-377,-449,-402,-259,-226
-123,-137,-15,128,-54,-77,-118,-293,-371,-342,-217,-202
-105,-107,-3,104,-54,-53,-82,-221,-299,-288,-175,-178
-93,-83,9,86,-54,-35,-58,-167,-233,-234,-139,-154
-87,-65,21,74,-54,-23,-35,-119,-185,-186,-109,-136
-93,-47,45,68,-72,1,-18,-89,-155,-144,-85,-118
-99,-47,51,68,-78,1,-6,-65,-131,-120,-73,-106
-99,-35,63,62,-84,13,6,-47,-119,-108,-55,-94
-99,-29,69,62,-84,19,24,-17,-107,-102,-49,-82
-111,-29,81,68,-96,24,30,-12,-101,-102,-43,-76
-105,-29,75,68,-90,24,24,-1,-89,-102,-43,-76
-99,-23,75,56,-90,24,30,5,-77,-90,-43,-70
-81,-23,57,50,-72,19,36,11,-71,-84,-43,-70
-81,-23,57,50,-72,19,42,17,-60,-72,-37,-70
-87,-17,69,50,-78,24,54,29,-55,-60,-31,-64
-87,-11,75,44,-84,29,54,41,-49,-54,-26,-64
-81,-5,75,44,-78,35,60,47,-49,-54,-21,-58
-69,-5,63,38,-66,29,60,59,-43,-48,-15,-52
-63,1,63,26,-66,29,60,65,-37,-42,-9,-46
-63,1,63,26,-66,29,60,71,-31,-42,-9,-46
-69,-5,63,38,-66,29,60,65,-31,-42,-3,-46
-69,-5,63,38,-66,29,60,71,-25,-42,3,-46
-69,-5,63,38,-66,29,60,77,-19,-36,3,-46
-51,7,57,20,-54,29,66,77,-7,-31,3,-46
-45,7,51,20,-48,29,66,83,-1,-31,9,-46
-51,7,57,20,-54,29,72,95,5,-20,15,-40
-57,13,69,20,-66,41,72,95,11,-14,21,-34
-63,13,75,20,-72,41,66,101,17,-8,21,-34
-69,13,81,26,-78,47,66,107,11,-8,21,-34
-63,13,75,20,-72,41,60,101,11,-8,15,-34
-57,13,69,20,-66,41,66,107,17,-8,21,-34
-57,13,69,20,-66,41,66,113,23,-2,27,-28
-51,19,69,14,-60,41,72,119,29,10,33,-16
-39,25,63,2,-54,41,78,131,41,16,39,-16
-27,31,57,-4,-42,41,78,131,41,16,33,-16
-15,25,39,-10,-30,29,72,131,41,16,33,-22
-9,25,33,-10,-24,29,72,137,47,16,39,-22
-21,19,39,2,-30,29,78,143,47,16,39,-22
-27,25,51,-4,-42,35,78,149,53,22,39,-22
-15,31,45,-10,-30,35,78,149,59,28,45,-22
-3,37,39,-22,-24,35,78,155,65,28,45,-22
9,49,39,-34,-18,41,84,161,65,34,51,-22
3,49,45,-28,-24,47,90,167,71,40,57,-10
3,43,39,-22,-18,41,84,173,83,46,63,-4
15,43,27,-28,-6,35,78,173,83,46,63,-4
21,49,27,-40,-6,35,78,173,89,52,69,2
15,49,33,-34,-12,41,84,185,95,58,69,7
9,61,51,-40,-24,53,90,197,107,64,87,18
15,73,57,-46,-24,65,96,209,119,76,93,30
27,83,57,-52,-12,71,102,221,131,88,105,42
39,78,39,-58,0,59,96,221,131,88,99,36
45,78,33,-64,6,53,96,227,137,94,105,30
33,73,39,-58,-6,53,90,233,143,100,105,30
33,78,45,-58,-6,59,96,239,149,112,111,36
45,83,39,-64,6,59,102,245,149,118,111,36
63,95,33,-76,18,65,102,251,155,118,117,36
69,95,27,-82,24,59,96,251,161,118,117,42
75,89,15,-82,30,53,96,257,167,124,123,42
75,101,27,-88,24,65,102,269,185,136,135,54
75,107,33,-88,24,71,108,275,197,148,147,66
93,113,21,-104,36,65,102,281,203,154,153,72
110,113,3,-110,54,59,96,287,203,154,153,72
110,107,-3,-104,60,53,90,293,209,160,159,72
93,101,9,-98,42,53,90,299,209,160,165,72
87,101,15,-93,36,59,90,305,221,166,171,78
87,113,27,-98,30,71,102,317,239,178,183,84
93,125,33,-110,30,77,108,329,251,196,195,96
110,137,27,-122,42,83,102,341,263,202,201,102
133,137,3,-134,66,71,96,341,269,208,201,102
151,137,-15,-140,82,65,96,353,275,208,207,102
151,149,-3,-146,76,77,96,365,281,214,213,102
145,149,3,-146,71,77,102,377,293,226,219,114
157,167,9,-158,76,89,108,389,305,244,231,120
187,191,3,-182,94,101,108,401,323,262,243,126
193,203,9,-194,94,107,114,419,341,280,255,144
187,209,21,-194,82,119,120,431,353,298,267,162
187,209,21,-194,82,119,114,437,365,304,273,168
193,209,15,-200,88,113,114,449,377,310,279,174
205,215,9,-206,100,113,114,461,395,322,297,180
211,221,9,-212,100,119,114,467,407,334,315,192
229,221,-9,-224,118,107,114,473,413,340,321,192
247,239,-9,-236,130,119,120,485,425,358,333,198
271,251,-21,-254,148,119,114,491,437,364,339,210
289,257,-32,-272,160,113,114,497,443,376,345,210
295,263,-32,-272,166,119,114,509,461,388,351,222
283,269,-15,-272,148,131,114,515,479,406,369,234
277,275,-3,-272,142,137,114,527,491,418,381,240
277,281,3,-278,136,143,114,533,503,424,393,252
295,293,-3,-290,148,149,114,545,515,430,405,258
307,299,-9,-296,160,149,114,545,527,442,417,264
313,305,-9,-308,160,149,120,557,539,454,429,270
325,305,-21,-314,172,143,120,563,551,466,441,282
349,311,-37,-326,196,137,114,569,557,478,447,288
373,329,-43,-350,208,143,114,575,563,484,459,300
385,335,-49,-356,220,143,114,581,569,496,471,306
397,347,-49,-368,226,149,114,587,581,502,477,318
397,353,-43,-374,220,155,102,593,587,508,483,324
397,353,-43,-374,220,155,102,593,587,514,483,330
403,365,-37,-380,220,167,102,593,593,520,483,336
403,371,-32,-380,220,173,102,599,593,520,489,336
403,371,-32,-380,220,173,102,599,605,526,495,342
409,377,-32,-392,220,173,102,599,611,532,507,342
403,383,-21,-386,214,185,102,599,617,544,519,348
385,365,-21,-374,202,173,96,593,623,550,525,354
385,365,-21,-374,202,173,90,587,623,550,525,354
391,383,-9,-380,202,191,90,587,617,550,525,354
403,395,-9,-392,208,197,90,581,611,544,525,354
397,395,-3,-392,202,197,78,569,599,538,519,354
403,395,-9,-392,208,197,72,551,581,526,507,354
409,389,-21,-398,214,185,66,533,563,514,501,348
421,377,-43,-398,232,167,60,515,551,502,489,348
403,365,-37,-380,220,167,60,503,545,496,489,342
385,353,-32,-368,208,161,60,491,533,490,477,336
367,341,-27,-350,196,161,60,473,515,472,459,324
355,335,-21,-338,190,161,60,455,491,454,447,312
349,335,-15,-338,184,161,66,437,473,436,435,300
325,317,-9,-320,166,155,66,419,455,418,417,288
301,299,-3,-296,154,149,66,401,431,394,405,276
283,293,9,-284,136,155,66,383,407,382,387,264
265,281,15,-272,124,149,66,365,389,364,369,246
241,269,27,-254,106,149,66,359,371,352,351,234
223,251,27,-230,100,143,66,347,353,334,333,222
217,239,21,-224,100,131,60,323,329,310,309,204
199,221,21,-206,88,125,60,299,299,280,285,186
187,203,15,-188,88,113,60,263,263,250,249,162
169,185,15,-176,76,101,60,239,233,220,225,144
157,173,15,-164,71,95,60,215,209,196,201,120
139,161,21,-146,60,95,60,197,185,178,177,108
127,149,21,-134,54,89,54,179,167,154,159,84
110,137,27,-122,42,83,54,167,155,136,147,78
99,119,21,-104,42,71,48,155,137,124,135,66
81,101,21,-93,30,59,42,137,119,100,111,48
69,83,15,-76,30,47,42,125,95,82,99,36
45,78,33,-64,6,53,42,113,77,64,87,24
15,67,51,-40,-18,59,54,101,65,58,75,18
3,55,51,-28,-24,53,42,83,47,40,63,2
-3,43,45,-22,-24,41,42,65,23,22,45,-10
-27,37,63,-10,-48,47,48,59,11,16,39,-16
-15,31,45,-10,-30,35,36,41,-1,-2,21,-16
-9,25,33,-10,-24,29,30,35,-13,-20,9,-28
-15,13,27,-4,-24,19,30,29,-19,-31,9,-34
-21,13,33,2,-30,24,36,29,-19,-36,15,-40
-27,13,39,2,-36,24,30,17,-19,-36,3,-46
-39,1,39,14,-42,19,30,11,-31,-42,-3,-46
-39,-5,33,20,-36,13,24,5,-37,-48,-9,-52
-39,-11,27,20,-36,7,18,-7,-43,-54,-15,-58
-45,-17,27,32,-36,7,18,-7,-49,-54,-15,-64
-63,-17,45,38,-54,13,30,-1,-49,-48,-15,-52
-63,-5,57,32,-60,24,30,-1,-49,-48,-9,-52
-57,-5,51,32,-54,24,24,-7,-55,-48,-15,-52
-45,-11,33,26,-42,13,24,-12,-55,-54,-21,-64
-33,-17,15,26,-24,1,24,-17,-60,-60,-26,-70
-39,-17,21,26,-30,1,24,-17,-60,-60,-26,-70
-39,-17,21,26,-30,1,24,-23,-60,-60,-26,-70
-45,-17,27,32,-36,7,18,-23,-65,-66,-26,-70
-57,-23,33,38,-48,7,18,-23,-65,-66,-26,-70
-63,-23,39,38,-54,7,18,-23,-71,-66,-21,-76
-57,-23,33,38,-48,7,24,-17,-71,-66,-21,-76
-57,-29,27,44,-42,1,24,-17,-71,-66,-21,-76
-75,-41,33,56,-54,-5,12,-29,-77,-72,-26,-82
-93,-53,39,74,-66,-5,6,-29,-77,-72,-26,-82
-87,-47,39,62,-66,-5,6,-23,-71,-72,-26,-82
-63,-35,27,44,-48,-5,6,-23,-71,-72,-31,-82
-45,-29,15,38,-30,-5,6,-23,-71,-78,-37,-82
-45,-23,21,32,-36,1,6,-17,-71,-72,-31,-82
-45,-23,21,32,-36,1,0,-17,-71,-78,-37,-82
-45,-29,15,38,-30,-5,0,-23,-77,-78,-37,-82
-45,-29,15,38,-30,-5,0,-29,-83,-78,-37,-82
-39,-23,15,26,-30,-5,6,-23,-83,-78,-37,-82
-45,-17,27,32,-36,7,18,-17,-77,-72,-31,-76
-45,-23,21,32,-36,1,30,-17,-77,-72,-31,-70
-51,-29,21,38,-36,-5,30,-17,-71,-72,-31,-70
-51,-41,9,44,-30,-17,24,-23,-71,-78,-31,-70
-51,-35,15,38,-36,-11,24,-23,-65,-78,-26,-64
-63,-29,33,44,-48,1,24,-17,-60,-78,-26,-64
-69,-29,39,50,-54,7,24,-17,-60,-72,-21,-58
-75,-29,45,50,-60,7,24,-17,-60,-66,-15,-58
-69,-29,39,50,-54,7,30,-12,-60,-66,-9,-58
-63,-29,33,44,-48,1,24,-12,-65,-66,-15,-58
-51,-29,21,38,-36,-5,24,-17,-71,-72,-21,-70
-27,-23,3,20,-18,-11,24,-23,-71,-72,-26,-70
-15,-17,-3,14,-6,-11,24,-23,-71,-66,-26,-76
-9,-11,-3,8,-6,-5,24,-29,-71,-66,-26,-76
-21,-11,9,14,-18,1,24,-29,-71,-72,-26,-70
-15,-11,3,8,-12,-5,18,-29,-77,-72,-26,-70
-15,-11,3,8,-12,-5,12,-35,-77,-72,-26,-76
-27,-23,3,20,-18,-11,12,-35,-77,-78,-26,-76
-57,-29,27,44,-42,1,12,-23,-71,-66,-21,-70
-87,-29,57,56,-72,13,24,-17,-65,-60,-9,-58
-81,-23,57,50,-72,19,24,-17,-65,-60,-3,-52
-69,-23,45,44,-60,13,24,-23,-65,-60,-15,-58
-51,-17,33,32,-42,7,24,-23,-60,-60,-15,-58
-51,-17,33,32,-42,7,24,-23,-60,-60,-15,-58
-63,-23,39,38,-54,7,24,-23,-60,-60,-21,-58
-69,-29,39,50,-54,7,24,-23,-60,-66,-21,-64
-69,-23,45,44,-60,13,24,-29,-65,-66,-21,-64
-69,-11,57,38,-66,24,30,-23,-60,-60,-15,-58
-75,-17,57,44,-66,19,30,-29,-65,-60,-15,-58
-69,-17,51,44,-60,19,24,-35,-71,-66,-21,-58
-63,-23,39,38,-54,7,24,-41,-71,-60,-21,-58
-51,-17,33,32,-42,7,18,-47,-71,-66,-26,-58
-39,-23,15,26,-30,-5,18,-47,-71,-66,-21,-64
-33,-23,9,26,-24,-5,12,-47,-71,-72,-26,-64
-39,-29,9,32,-24,-11,12,-41,-71,-78,-31,-64
-39,-23,15,26,-30,-5,18,-35,-65,-78,-26,-64
-57,-29,27,44,-42,1,30,-35,-65,-78,-26,-64
-69,-41,27,56,-48,-5,24,-35,-71,-78,-31,-70
-75,-47,27,56,-54,-11,18,-35,-77,-78,-37,-76
-87,-47,39,62,-66,-5,18,-41,-77,-72,-31,-76
-75,-35,39,50,-60,1,18,-41,-77,-72,-31,-76
-57,-23,33,38,-48,7,18,-35,-71,-66,-26,-64
-51,-11,39,26,-48,13,18,-35,-65,-66,-26,-58
-51,-11,39,26,-48,13,18,-35,-65,-66,-21,-52
-57,-11,45,32,-54,19,18,-35,-65,-66,-21,-52
-57,-17,39,38,-48,13,12,-41,-71,-66,-26,-52
-57,-17,39,38,-48,13,12,-47,-77,-66,-26,-58
-45,-5,39,26,-42,19,18,-47,-77,-66,-31,-58
-45,-11,33,26,-42,13,18,-53,-83,-72,-37,-64
-45,-23,21,32,-36,1,12,-65,-89,-78,-43,-70
-57,-35,21,44,-42,-5,0,-71,-101,-90,-49,-76
-63,-47,15,50,-42,-17,0,-77,-101,-96,-43,-76
-57,-53,3,56,-30,-23,-6,-77,-107,-102,-49,-88
-51,-41,9,44,-30,-17,-6,-77,-107,-102,-43,-82
-57,-41,15,50,-36,-11,0,-77,-107,-102,-43,-82
-57,-47,9,50,-36,-17,-6,-83,-107,-108,-49,-88
-63,-47,15,50,-42,-17,-6,-83,-113,-108,-49,-88
-75,-47,27,56,-54,-11,-6,-89,-113,-108,-49,-82
-81,-41,39,62,-60,1,0,-83,-107,-102,-43,-76
-63,-41,21,50,-42,-11,0,-89,-107,-108,-49,-76
-63,-41,21,50,-42,-11,0,-83,-107,-102,-49,-76
-51,-41,9,44,-30,-17,0,-83,-107,-102,-49,-76
-45,-41,3,44,-24,-17,0,-83,-107,-102,-49,-76
-57,-41,15,50,-36,-11,0,-83,-107,-102,-49,-76
-57,-47,9,50,-36,-17,-6,-89,-119,-108,-55,-82
-63,-47,15,50,-42,-17,-6,-95,-125,-114,-61,-88
-69,-41,27,56,-48,-5,-6,-89,-119,-114,-61,-82
-75,-41,33,56,-54,-5,0,-89,-113,-114,-61,-82
-81,-59,21,68,-54,-17,-6,-95,-113,-120,-61,-88
-87,-59,27,68,-60,-17,-6,-95,-107,-120,-55,-82
-87,-53,33,68,-60,-11,0,-95,-107,-114,-55,-76
-81,-53,27,68,-54,-11,0,-95,-107,-114,-55,-76
-81,-47,33,62,-60,-5,0,-95,-107,-108,-55,-76
-81,-35,45,56,-66,7,0,-95,-107,-108,-61,-82
-75,-35,39,50,-60,1,0,-95,-113,-108,-67,-82
-69,-29,39,50,-54,7,0,-95,-113,-108,-73,-82
-69,-23,45,44,-60,13,6,-95,-113,-102,-73,-82
-75,-23,51,44,-66,13,6,-101,-113,-102,-79,-88
-81,-35,45,56,-66,7,6,-101,-119,-108,-79,-94
-81,-35,45,56,-66,7,6,-101,-119,-108,-73,-94
-75,-35,39,50,-60,1,6,-101,-119,-108,-73,-94
-63,-35,27,44,-48,-5,0,-107,-119,-108,-67,-94
-63,-35,27,44,-48,-5,0,-107,-119,-108,-67,-94
-63,-41,21,50,-42,-11,-6,-101,-125,-114,-73,-94
-63,-47,15,50,-42,-17,-6,-107,-125,-114,-79,-88
-69,-47,21,56,-48,-11,-6,-107,-125,-114,-79,-88
-93,-53,39,74,-66,-5,0,-107,-125,-114,-79,-88
-105,-59,45,80,-78,-5,-6,-107,-125,-114,-79,-88
-105,-53,51,80,-78,1,-6,-107,-125,-114,-85,-94
-111,-53,57,80,-84,1,-6,-107,-125,-114,-79,-88
-105,-47,57,74,-84,7,-6,-107,-125,-114,-85,-88
-99,-47,51,68,-78,1,-12,-107,-131,-114,-85,-88
-81,-41,39,62,-60,1,-6,-107,-131,-114,-91,-88
-69,-41,27,56,-48,-5,-6,-107,-137,-120,-91,-88
-69,-41,27,56,-48,-5,0,-101,-131,-120,-85,-88
-69,-35,33,50,-54,1,6,-101,-125,-114,-79,-88
-69,-35,33,50,-54,1,12,-95,-125,-114,-79,-88
-57,-29,27,44,-42,1,6,-101,-125,-120,-73,-94
-69,-35,33,50,-54,1,0,-107,-131,-126,-79,-94
-93,-47,45,68,-72,1,0,-107,-131,-126,-79,-94
-87,-47,39,62,-66,-5,-6,-113,-131,-126,-79,-100
-87,-47,39,62,-66,-5,-6,-107,-125,-126,-85,-94
-99,-53,45,74,-72,-5,-6,-107,-125,-126,-85,-94
-87,-53,33,68,-60,-11,-12,-113,-131,-132,-97,-100
-87,-53,33,68,-60,-11,-18,-119,-143,-138,-103,-106
-87,-59,27,68,-60,-17,-24,-125,-149,-144,-109,-112
-87,-59,27,68,-60,-17,-24,-131,-149,-138,-97,-106
-99,-65,33,80,-66,-17,-18,-119,-143,-132,-97,-100
-93,-53,39,74,-66,-5,-18,-119,-143,-132,-91,-100
-87,-47,39,62,-66,-5,-18,-113,-143,-126,-85,-94
-87,-47,39,62,-66,-5,-12,-113,-137,-126,-85,-88
-87,-47,39,62,-66,-5,0,-107,-137,-126,-85,-82
-93,-47,45,68,-72,1,0,-107,-137,-126,-91,-82
-93,-47,45,68,-72,1,-6,-113,-131,-132,-91,-82
-93,-41,51,68,-72,7,-6,-107,-125,-126,-85,-76
-93,-35,57,62,-78,13,0,-107,-119,-120,-85,-76
-93,-41,51,68,-72,7,-6,-107,-125,-126,-85,-82
-81,-53,27,68,-54,-11,-6,-113,-131,-132,-91,-94
-75,-53,21,62,-48,-17,-6,-113,-131,-132,-91,-100
-81,-53,27,68,-54,-11,-6,-113,-131,-126,-91,-100
-81,-53,27,68,-54,-11,-12,-113,-131,-126,-91,-100
-87,-53,33,68,-60,-11,-12,-119,-131,-132,-97,-106
-87,-47,39,62,-66,-5,-18,-119,-131,-132,-103,-106
-87,-47,39,62,-66,-5,-18,-113,-125,-138,-103,-100
-93,-53,39,74,-66,-5,-18,-113,-125,-138,-103,-94
-81,-53,27,68,-54,-11,-24,-113,-125,-144,-103,-100
-81,-47,33,62,-60,-5,-18,-113,-125,-144,-103,-100
-81,-41,39,62,-60,1,-18,-107,-125,-138,-97,-106
-75,-41,33,56,-54,-5,-12,-107,-125,-132,-97,-106
-75,-41,33,56,-54,-5,-12,-107,-125,-132,-97,-106
-75,-41,33,56,-54,-5,-12,-107,-125,-132,-97,-100
-75,-35,39,50,-60,1,-12,-107,-119,-126,-91,-94
-81,-29,51,56,-66,13,-12,-101,-119,-126,-91,-88
-81,-35,45,56,-66,7,-18,-107,-119,-132,-97,-88
-75,-35,39,50,-60,1,-18,-107,-125,-138,-103,-88
-87,-47,39,62,-66,-5,-18,-107,-125,-138,-97,-88
-117,-53,63,86,-90,7,-18,-107,-125,-132,-91,-88
-117,-59,57,86,-90,1,-24,-107,-131,-132,-91,-94
-111,-53,57,80,-84,1,-18,-101,-119,-126,-85,-88
-93,-35,57,62,-78,13,-12,-101,-113,-120,-79,-88
-75,-29,45,50,-60,7,-12,-107,-113,-126,-85,-88
-69,-29,39,50,-54,7,-12,-107,-113,-132,-97,-94
-75,-29,45,50,-60,7,-12,-107,-119,-138,-103,-94
-69,-29,39,50,-54,7,-18,-107,-119,-138,-103,-88
-63,-29,33,44,-48,1,-18,-107,-125,-138,-97,-88
-75,-29,45,50,-60,7,-12,-101,-119,-132,-85,-88
-81,-29,51,56,-66,13,-18,-101,-119,-132,-85,-88
-81,-35,45,56,-66,7,-18,-107,-125,-138,-91,-94
-87,-47,39,62,-66,-5,-18,-107,-125,-138,-91,-100
-93,-53,39,74,-66,-5,-18,-107,-125,-144,-97,-100
-87,-53,33,68,-60,-11,-12,-113,-125,-144,-103,-100
-69,-41,27,56,-48,-5,-6,-113,-125,-150,-109,-106
-51,-29,21,38,-36,-5,-12,-113,-125,-150,-109,-100
-27,-23,3,20,-18,-11,-24,-113,-131,-156,-121,-106
-33,-29,3,32,-18,-11,-30,-113,-137,-150,-115,-100
-63,-35,27,44,-48,-5,-24,-113,-131,-144,-115,-94
-81,-47,33,62,-60,-5,-24,-107,-131,-144,-115,-88
-93,-41,51,68,-72,7,-18,-107,-125,-138,-103,-88
-87,-41,45,62,-66,1,-24,-107,-125,-138,-97,-88
-81,-53,27,68,-54,-11,-35,-119,-131,-150,-109,-100
-81,-53,27,68,-54,-11,-35,-119,-131,-156,-115,-100
-87,-53,33,68,-60,-11,-35,-119,-125,-156,-115,-88
-99,-47,51,68,-78,1,-30,-113,-119,-150,-109,-82
-81,-41,39,62,-60,1,-24,-113,-125,-150,-109,-82
-57,-41,15,50,-36,-11,-24,-113,-131,-156,-115,-88
-75,-41,33,56,-54,-5,-18,-107,-131,-144,-115,-88
-87,-41,45,62,-66,1,-18,-107,-131,-138,-109,-88
-105,-35,69,68,-90,19,-24,-107,-131,-132,-103,-82
-99,-29,69,62,-84,19,-24,-113,-131,-138,-103,-82
-81,-29,51,56,-66,13,-24,-113,-131,-138,-103,-88
-81,-41,39,62,-60,1,-30,-119,-131,-144,-115,-94
-75,-41,33,56,-54,-5,-30,-113,-125,-144,-109,-82
-69,-41,27,56,-48,-5,-24,-107,-125,-144,-103,-76
-69,-41,27,56,-48,-5,-18,-107,-119,-138,-109,-76
-75,-41,33,56,-54,-5,-18,-107,-125,-138,-109,-76
-93,-47,45,68,-72,1,-18,-107,-125,-138,-109,-82
-105,-53,51,80,-78,1,-24,-113,-125,-150,-109,-88
-111,-53,57,80,-84,1,-30,-119,-131,-150,-115,-94
-105,-53,51,80,-78,1,-30,-119,-125,-144,-115,-94
-105,-53,51,80,-78,1,-24,-119,-125,-144,-121,-94
-99,-59,39,74,-72,-11,-30,-125,-125,-150,-133,-94
-87,-59,27,68,-60,-17,-35,-125,-131,-156,-139,-94
-75,-53,21,62,-48,-17,-35,-125,-131,-156,-145,-94
-69,-47,21,56,-48,-11,-35,-125,-131,-156,-145,-88
-69,-35,33,50,-54,1,-30,-119,-125,-150,-133,-82
-63,-29,33,44,-48,1,-24,-119,-125,-144,-121,-76
-63,-23,39,38,-54,7,-24,-119,-125,-144,-121,-76
-75,-29,45,50,-60,7,-30,-119,-125,-144,-121,-82
-93,-41,51,68,-72,7,-30,-119,-131,-150,-121,-88
-105,-53,51,80,-78,1,-30,-119,-131,-150,-121,-88
-93,-41,51,68,-72,7,-30,-119,-131,-150,-121,-88
-75,-29,45,50,-60,7,-30,-113,-131,-144,-121,-82
-69,-29,39,50,-54,7,-30,-113,-131,-144,-121,-82
-69,-29,39,50,-54,7,-30,-113,-125,-144,-127,-82
-81,-29,51,56,-66,13,-30,-113,-125,-138,-127,-76
-75,-23,51,44,-66,13,-24,-113,-125,-138,-127,-76
-69,-17,51,44,-60,19,-24,-113,-125,-138,-127,-70
-69,-11,57,38,-66,24,-18,-113,-119,-132,-127,-70
-75,-17,57,44,-66,19,-18,-113,-125,-132,-133,-76
-81,-23,57,50,-72,19,-18,-107,-119,-126,-127,-76
-81,-23,57,50,-72,19,-18,-107,-119,-126,-127,-76
-93,-35,57,62,-78,13,-24,-113,-125,-132,-133,-82
-93,-35,57,62,-78,13,-18,-113,-125,-132,-139,-82
-63,-35,27,44,-48,-5,-24,-119,-131,-144,-145,-88
-45,-35,9,38,-30,-11,-30,-119,-131,-150,-157,-94
-21,-47,-27,32,0,-35,-30,-125,-131,-156,-163,-100
-9,-35,-27,20,6,-29,-18,-113,-119,-144,-157,-100
-9,-29,-21,20,6,-23,-12,-101,-107,-132,-145,-94
-15,-29,-15,20,0,-23,-12,-95,-101,-126,-139,-88
-9,-29,-21,20,6,-23,-12,-89,-101,-126,-133,-82
-27,-35,-9,26,-12,-23,-12,-89,-95,-126,-127,-76
-45,-35,9,38,-30,-11,-12,-77,-89,-120,-121,-64
-39,-29,9,32,-24,-11,-12,-77,-89,-126,-121,-64
-21,-29,-9,26,-6,-17,-18,-77,-95,-126,-133,-70
-9,-29,-21,20,6,-23,-24,-77,-83,-120,-127,-64
-9,-23,-15,14,0,-17,-24,-65,-71,-108,-115,-52
-3,-23,-21,8,6,-23,-18,-59,-60,-90,-115,-52
-3,-35,-32,14,12,-35,-18,-59,-55,-84,-109,-52
-9,-41,-32,26,12,-35,-12,-53,-49,-84,-109,-52
-3,-41,-37,20,18,-41,-6,-41,-43,-78,-103,-52
15,-29,-43,8,30,-35,0,-41,-43,-78,-103,-52
27,-23,-49,-4,36,-35,0,-41,-49,-84,-109,-52
33,-17,-49,-10,42,-35,0,-41,-60,-84,-115,-52
21,-11,-32,-10,24,-23,-12,-47,-60,-90,-127,-52
21,-11,-32,-10,24,-23,-18,-53,-65,-90,-127,-52
15,-17,-32,2,24,-23,-18,-59,-65,-96,-133,-52
21,-23,-43,-4,30,-35,-24,-59,-65,-96,-127,-52
33,-17,-49,-10,42,-35,-30,-65,-65,-96,-133,-52
45,-17,-61,-16,54,-41,-30,-71,-71,-96,-133,-52
39,-17,-55,-10,48,-35,-35,-77,-77,-102,-133,-58
39,-23,-61,-10,48,-41,-35,-89,-83,-108,-133,-64
39,-23,-61,-10,48,-41,-40,-95,-89,-114,-139,-64
33,-29,-61,-4,48,-47,-40,-95,-89,-114,-145,-64
33,-29,-61,-4,48,-47,-40,-95,-95,-120,-151,-64
33,-29,-61,-4,48,-47,-52,-107,-101,-126,-157,-70
27,-35,-61,2,42,-47,-52,-113,-107,-126,-157,-64
39,-23,-61,-10,48,-41,-52,-119,-113,-126,-157,-64
39,-23,-61,-10,48,-41,-58,-125,-113,-132,-157,-64
27,-29,-55,2,42,-41,-58,-137,-119,-132,-157,-64
15,-41,-55,14,36,-47,-58,-143,-131,-144,-163,-70
9,-41,-49,14,30,-47,-58,-149,-131,-144,-163,-76
27,-29,-55,2,42,-41,-52,-149,-137,-150,-169,-76
27,-23,-49,-4,36,-35,-46,-143,-137,-150,-169,-82
9,-23,-32,2,18,-29,-40,-137,-137,-150,-169,-82
-15,-35,-21,20,0,-29,-40,-137,-143,-156,-175,-88
-21,-35,-15,26,-6,-23,-46,-137,-143,-162,-169,-94
-27,-35,-9,26,-12,-23,-46,-137,-143,-162,-169,-94
-39,-35,3,32,-24,-17,-40,-137,-143,-162,-169,-94
-63,-35,27,44,-48,-5,-40,-143,-137,-162,-169,-94
-69,-35,33,50,-54,1,-40,-143,-137,-156,-169,-88
-69,-35,33,50,-54,1,-46,-149,-143,-156,-169,-94
-81,-35,45,56,-66,7,-40,-155,-143,-156,-169,-88
-87,-35,51,56,-72,7,-40,-149,-143,-156,-169,-88
-87,-29,57,56,-72,13,-40,-149,-143,-150,-169,-88
-75,-29,45,50,-60,7,-40,-149,-149,-156,-175,-88
-75,-29,45,50,-60,7,-40,-143,-143,-162,-175,-88
-99,-29,69,62,-84,19,-35,-137,-137,-156,-169,-76
-111,-29,81,68,-96,24,-30,-131,-131,-156,-169,-70
-111,-35,75,68,-96,19,-35,-137,-137,-156,-169,-76
-99,-41,57,68,-78,7,-35,-143,-149,-162,-181,-88
-87,-35,51,56,-72,7,-35,-149,-155,-168,-181,-88
-87,-29,57,56,-72,13,-30,-143,-155,-162,-175,-88
-99,-35,63,62,-84,13,-30,-143,-155,-162,-169,-88
-105,-35,69,68,-90,19,-35,-143,-155,-162,-169,-88
-105,-35,69,68,-90,19,-40,-149,-155,-162,-169,-82
-117,-29,87,74,-102,29,-40,-143,-149,-156,-163,-76
-129,-29,99,80,-114,35,-35,-137,-143,-150,-163,-70
-135,-29,105,80,-120,35,-35,-137,-143,-150,-169,-70
-123,-29,93,74,-108,29,-35,-143,-149,-156,-175,-70
-123,-41,81,80,-102,19,-35,-143,-155,-162,-175,-76
-117,-41,75,80,-96,19,-35,-143,-149,-156,-169,-76
-111,-41,69,74,-90,13,-24,-137,-143,-156,-163,-70
-117,-41,75,80,-96,19,-18,-131,-131,-150,-157,-70
-117,-35,81,74,-102,24,-18,-125,-125,-150,-157,-70
-117,-29,87,74,-102,29,-18,-119,-113,-138,-157,-76
-105,-29,75,68,-90,24,-6,-95,-107,-132,-157,-76
-111,-35,75,68,-96,19,0,-65,-89,-114,-151,-64
-93,-23,69,56,-84,24,6,-35,-60,-84,-133,-52
-39,-11,27,20,-36,7,6,-7,-25,-48,-103,-34
27,7,-21,-16,24,-5,0,23,23,4,-49,2
110,43,-67,-76,88,-11,-6,53,95,76,9,48
211,78,-133,-140,172,-23,-12,107,191,166,93,108
325,131,-193,-224,262,-29,-6,191,323,292,195,180
433,203,-229,-314,334,-11,12,281,479,436,315,276
529,293,-235,-410,382,29,12,359,617,592,453,396
637,407,-229,-518,436,89,18,431,761,760,603,528
733,533,-199,-632,466,167,12,491,893,922,753,660
817,659,-157,-734,490,251,0,533,1013,1072,897,786
877,743,-133,-806,508,305,0,551,1097,1174,993,870
901,761,-139,-830,520,311,0,533,1103,1180,993,882
871,731,-139,-794,508,299,-24,437,1019,1072,903,828
805,659,-145,-728,478,257,-70,275,851,880,753,732
697,581,-115,-638,406,233,-130,83,641,670,585,618
577,515,-61,-542,322,227,-190,-101,437,472,429,522
457,455,-3,-452,232,227,-262,-287,227,280,279,426
343,377,33,-356,154,209,-334,-497,-19,76,123,318
229,287,57,-254,88,173,-418,-707,-287,-132,-31,192
99,197,99,-146,0,149,-472,-869,-509,-318,-175,78
-51,125,177,-40,-114,149,-478,-959,-671,-456,-277,-10
-171,73,243,44,-210,155,-478,-1007,-773,-552,-355,-88
-249,13,261,116,-258,137,-472,-1013,-809,-606,-403,-142
-291,-41,249,164,-270,101,-448,-995,-815,-642,-439,-190
-315,-101,213,206,-264,53,-424,-959,-803,-654,-463,-226
-321,-149,171,236,-246,13,-394,-899,-767,-648,-475,-244
-315,-173,141,242,-228,-17,-358,-833,-731,-624,-475,-256
-285,-191,93,236,-192,-47,-322,-755,-689,-594,-463,-256
-255,-191,63,218,-162,-65,-280,-659,-629,-546,-445,-244
-219,-173,45,194,-132,-65,-238,-551,-557,-486,-409,-220
-189,-149,39,170,-114,-53,-190,-449,-473,-414,-361,-196
-159,-125,33,140,-96,-47,-148,-353,-383,-348,-313,-172
-135,-101,33,116,-84,-35,-112,-281,-305,-294,-265,-148
-135,-77,57,104,-96,-11,-76,-221,-233,-240,-217,-118
-123,-53,69,86,-96,7,-46,-179,-179,-198,-181,-94
-105,-35,69,68,-90,19,-30,-149,-143,-168,-157,-70
-99,-11,87,50,-96,35,-6,-119,-119,-144,-139,-52
-111,-5,105,56,-108,47,12,-95,-107,-120,-127,-40
-117,-5,111,62,-114,53,24,-71,-101,-114,-127,-40
-105,1,105,50,-108,53,18,-59,-95,-108,-133,-40
-105,-5,99,56,-102,47,18,-41,-83,-102,-127,-46
-99,-17,81,56,-90,29,12,-35,-77,-102,-127,-52
-87,-11,75,44,-84,29,12,-23,-65,-96,-121,-52
-69,1,69,32,-72,35,24,-17,-60,-90,-115,-46
-51,31,81,8,-66,53,30,-12,-49,-84,-103,-34
-45,43,87,2,-66,65,42,-7,-43,-84,-103,-28
-75,37,111,14,-96,71,42,-7,-37,-78,-103,-22
-81,25,105,26,-96,65,36,-1,-43,-78,-109,-22
-69,25,93,20,-84,59,42,-1,-37,-66,-109,-22
-63,25,87,14,-78,53,48,11,-31,-60,-97,-16
-57,25,81,14,-72,53,48,11,-25,-60,-97,-22
-57,25,81,14,-72,53,48,11,-19,-54,-91,-22
-57,43,99,8,-78,71,60,29,-7,-48,-79,-10
-45,55,99,-4,-72,77,54,35,5,-48,-79,-4
-45,55,99,-4,-72,77,54,41,5,-48,-73,-4
-51,55,105,-4,-78,77,54,41,11,-42,-79,-4
-45,49,93,-4,-72,71,60,41,11,-42,-79,-4
-33,49,81,-10,-60,65,66,47,11,-36,-73,2
-39,49,87,-10,-66,65,66,59,17,-31,-67,7
-27,49,75,-16,-54,59,66,65,23,-26,-67,2
-21,31,51,-4,-36,41,66,65,17,-26,-73,-4
-27,25,51,-4,-42,35,60,71,23,-26,-73,-4
-21,25,45,-4,-36,35,60,71,23,-26,-73,2
-27,25,51,-4,-42,35,66,83,35,-20,-67,7
-33,19,51,8,-42,35,66,89,41,-14,-67,7
-39,19,57,8,-48,35,66,89,47,-14,-61,12
-27,31,57,-4,-42,41,72,89,59,-8,-55,18
-9,31,39,-10,-24,35,72,89,59,-2,-49,18
-3,31,33,-16,-18,29,78,95,65,4,-43,24
3,31,27,-16,-12,29,78,101,65,10,-37,24
-3,19,21,-10,-12,19,84,107,71,16,-31,30
3,25,21,-16,-12,24,84,119,77,22,-26,36
-3,31,33,-16,-18,29,84,125,83,28,-26,42
15,37,21,-28,-6,29,84,137,89,34,-26,42
21,37,15,-34,0,24,84,137,95,40,-21,42
21,37,15,-34,0,24,78,137,107,46,-21,48
27,31,3,-28,12,19,78,137,113,46,-21,48
33,31,-3,-34,18,13,78,143,113,40,-21,54
39,31,-9,-34,24,13,72,143,113,40,-21,54
39,37,-3,-40,18,19,78,149,119,46,-21,54
33,37,3,-40,12,19,78,155,125,52,-9,60
21,43,21,-34,0,29,84,167,137,64,3,66
33,43,9,-40,12,24,84,167,143,70,-3,66
51,49,-3,-52,24,24,84,167,143,70,-3,66
57,55,-3,-58,30,24,90,179,155,82,3,72
63,61,-3,-64,30,29,90,179,167,94,9,78
57,67,9,-64,24,35,84,191,179,100,21,90
63,73,9,-70,24,41,90,197,185,112,33,102
45,73,27,-64,6,47,84,197,185,118,45,108
45,73,27,-64,6,47,84,203,191,118,51,108
63,78,15,-70,24,47,90,209,197,124,57,114
75,78,3,-76,36,41,84,215,203,124,57,114
99,89,-9,-93,54,41,78,221,209,130,57,114
115,101,-15,-104,66,47,72,227,209,136,57,120
115,95,-21,-98,71,41,66,233,221,148,57,120
121,101,-21,-110,71,41,72,245,227,154,63,126
133,107,-27,-116,82,41,72,251,233,160,69,126
127,113,-15,-116,71,53,78,257,245,166,75,132
127,119,-9,-116,71,59,90,263,251,172,87,138
139,131,-9,-128,76,65,96,275,257,184,99,144
127,125,-3,-122,66,65,96,287,269,190,111,150
133,125,-9,-128,71,59,90,287,275,196,117,150
157,137,-21,-146,88,59,84,293,287,202,117,150
181,155,-27,-164,106,65,84,311,299,214,129,156
187,167,-21,-170,106,77,84,323,317,226,135,168
199,179,-21,-182,112,83,90,341,329,238,147,180
223,191,-32,-200,130,83,90,347,341,244,153,186
241,191,-49,-212,148,71,90,353,353,250,159,186
247,191,-55,-212,154,71,90,359,365,256,165,192
229,197,-32,-212,130,83,102,383,383,280,183,210
223,203,-21,-206,124,95,114,401,407,298,207,228
229,215,-15,-218,124,101,114,413,419,316,219,240
253,215,-37,-230,148,89,102,413,419,322,225,240
277,221,-55,-248,166,83,96,413,425,328,225,246
295,227,-67,-254,184,83,96,419,437,340,237,246
313,239,-73,-272,196,83,96,425,455,352,243,258
325,251,-73,-284,202,89,96,437,467,364,255,264
325,257,-67,-290,196,95,102,449,485,376,267,276
325,263,-61,-290,196,101,102,455,491,376,273,282
331,269,-61,-296,196,107,108,467,503,388,279,294
337,281,-55,-308,196,113,108,479,509,400,291,300
343,293,-49,-314,196,125,114,491,521,418,297,312
343,299,-43,-314,196,131,108,497,533,424,309,324
349,299,-49,-320,202,125,102,497,539,436,315,330
367,311,-55,-332,214,131,102,497,551,448,327,342
385,317,-67,-350,226,125,102,497,557,454,339,348
391,323,-67,-350,232,131,96,509,563,466,351,354
391,323,-67,-350,232,131,90,509,563,472,357,360
391,329,-61,-356,226,137,90,515,575,484,369,366
391,341,-49,-362,220,149,78,515,581,490,375,366
391,341,-49,-362,220,149,78,515,581,490,369,366
397,347,-49,-368,226,149,72,515,587,502,375,372
409,359,-49,-380,232,155,72,515,593,502,375,372
409,377,-32,-392,220,173,66,509,605,508,387,384
421,389,-32,-404,226,179,66,503,599,508,393,390
415,389,-27,-398,220,185,60,497,599,508,399,396
409,377,-32,-392,220,173,54,491,587,502,399,396
403,359,-43,-374,226,161,54,485,581,502,399,396
403,365,-37,-380,220,167,60,485,581,502,399,396
409,377,-32,-392,220,173,66,479,575,502,405,396
403,383,-21,-386,214,185,66,467,569,496,405,396
397,383,-15,-386,208,185,54,455,557,490,393,384
379,377,-3,-374,190,191,48,437,545,478,381,378
373,365,-9,-368,190,179,42,419,533,466,369,372
361,347,-15,-350,190,167,42,407,515,454,363,366
349,335,-15,-338,184,161,36,395,497,442,351,354
319,317,-3,-314,160,161,42,377,473,430,333,342
307,299,-9,-296,160,149,42,359,449,406,315,324
289,287,-3,-284,148,143,42,347,425,382,303,306
295,269,-27,-278,160,125,42,323,401,352,273,282
289,257,-32,-272,160,113,42,299,377,322,255,264
277,251,-27,-260,154,113,42,281,353,298,225,240
247,239,-9,-236,130,119,36,263,329,274,201,222
205,221,15,-212,94,119,36,239,311,256,183,204
169,209,39,-188,66,125,36,227,287,244,165,198
139,203,63,-164,42,137,42,215,269,232,153,186
115,173,57,-140,30,119,42,191,239,202,135,168
121,155,33,-134,48,95,42,173,215,178,117,150
110,143,33,-122,42,89,36,155,191,148,99,132
105,131,27,-116,42,77,36,137,167,124,81,114
93,119,27,-104,36,71,30,119,149,106,57,96
75,107,33,-88,24,71,30,107,131,94,39,84
51,95,45,-70,6,71,30,89,119,76,21,66
33,95,63,-64,-12,77,36,77,95,70,9,60
21,83,63,-52,-18,71,42,65,77,58,-3,48
3,73,69,-40,-36,71,36,47,53,40,-15,36
-9,55,63,-22,-36,59,30,29,29,10,-26,24
-9,37,45,-16,-30,41,18,17,11,-8,-31,12
-15,25,39,-10,-30,29,18,11,5,-26,-43,7
-21,19,39,2,-30,29,18,11,5,-31,-55,2
-27,13,39,2,-36,24,18,5,5,-31,-61,-4
-33,13,45,8,-42,29,18,-1,-7,-31,-67,-4
-39,7,45,14,-42,24,24,-7,-19,-36,-79,-10
-45,7,51,20,-48,29,24,-12,-31,-42,-85,-10
-45,1,45,20,-48,24,18,-23,-43,-48,-91,-22
-45,1,45,20,-48,24,18,-35,-49,-54,-97,-22
-51,-5,45,26,-48,19,18,-35,-49,-54,-91,-28
-51,-5,45,26,-48,19,18,-41,-55,-60,-91,-28
-57,-11,45,32,-54,19,6,-47,-55,-72,-97,-34
-51,-11,39,26,-48,13,6,-53,-55,-78,-97,-40
-45,-11,33,26,-42,13,0,-53,-60,-78,-97,-46
-45,-23,21,32,-36,1,-6,-59,-60,-90,-103,-58
-39,-23,15,26,-30,-5,-12,-59,-71,-90,-109,-64
-27,-23,3,20,-18,-11,-12,-71,-83,-102,-115,-70
-21,-23,-3,20,-12,-11,-6,-71,-89,-102,-115,-70
-39,-17,21,26,-30,1,-6,-65,-83,-96,-109,-64
-51,-17,33,32,-42,7,0,-59,-71,-90,-109,-58
-57,-17,39,38,-48,13,6,-59,-71,-90,-109,-58
-69,-23,45,44,-60,13,6,-65,-77,-96,-115,-64
-57,-17,39,38,-48,13,0,-71,-83,-108,-115,-70
-57,-17,39,38,-48,13,0,-77,-83,-114,-121,-70
-75,-29,45,50,-60,7,0,-77,-83,-102,-115,-64
-93,-35,57,62,-78,13,-6,-77,-83,-96,-115,-64
-93,-41,51,68,-72,7,-6,-77,-83,-96,-115,-64
-93,-53,39,74,-66,-5,-6,-77,-83,-96,-115,-64
-87,-41,45,62,-66,1,-6,-71,-83,-96,-115,-64
-75,-41,33,56,-54,-5,-12,-71,-83,-102,-115,-64
-63,-41,21,50,-42,-11,-18,-71,-89,-102,-121,-64
-63,-41,21,50,-42,-11,-12,-71,-83,-108,-115,-64
-69,-35,33,50,-54,1,-12,-71,-77,-102,-121,-64
-69,-35,33,50,-54,1,-6,-71,-77,-102,-115,-64
-63,-29,33,44,-48,1,-6,-71,-77,-102,-121,-64
-57,-29,27,44,-42,1,-6,-71,-83,-102,-121,-64
-63,-29,33,44,-48,1,-6,-65,-83,-102,-121,-58
-69,-35,33,50,-54,1,0,-65,-83,-102,-115,-52
-63,-29,33,44,-48,1,0,-65,-83,-102,-109,-52
-57,-29,27,44,-42,1,-6,-65,-83,-102,-109,-58
-51,-29,21,38,-36,-5,0,-59,-83,-102,-103,-58
-51,-29,21,38,-36,-5,0,-59,-83,-102,-103,-64
-51,-35,15,38,-36,-11,-6,-65,-83,-108,-103,-64
-51,-41,9,44,-30,-17,-12,-71,-89,-108,-103,-64
-75,-41,33,56,-54,-5,-6,-65,-77,-102,-97,-58
-87,-35,51,56,-72,7,6,-65,-77,-102,-97,-52
-81,-35,45,56,-66,7,6,-65,-77,-102,-97,-52
-75,-41,33,56,-54,-5,0,-65,-77,-102,-103,-52
-63,-35,27,44,-48,-5,-12,-59,-77,-102,-103,-58
-63,-35,27,44,-48,-5,-12,-59,-77,-102,-103,-58
-69,-41,27,56,-48,-5,-12,-59,-83,-96,-109,-58
-57,-29,27,44,-42,1,-12,-59,-83,-96,-103,-58
-57,-29,27,44,-42,1,-6,-59,-83,-90,-97,-58
-69,-29,39,50,-54,7,-6,-59,-83,-90,-91,-58
-75,-35,39,50,-60,1,-6,-65,-83,-96,-91,-64
-69,-29,39,50,-54,7,-6,-65,-77,-96,-91,-64
-57,-17,39,38,-48,13,-6,-59,-71,-90,-85,-64
-57,-23,33,38,-48,7,0,-59,-71,-90,-79,-58
-57,-23,33,38,-48,7,0,-59,-77,-90,-79,-58
-39,-29,9,32,-24,-11,-6,-65,-83,-96,-85,-58
-45,-41,3,44,-24,-17,-6,-65,-83,-96,-85,-52
-69,-47,21,56,-48,-11,0,-59,-77,-84,-73,-46
-75,-53,21,62,-48,-17,0,-65,-77,-90,-73,-52
-57,-41,15,50,-36,-11,0,-65,-77,-90,-79,-52
-51,-35,15,38,-36,-11,6,-59,-77,-96,-79,-52
-51,-35,15,38,-36,-11,12,-59,-77,-96,-79,-52
-45,-41,3,44,-24,-17,12,-59,-83,-102,-85,-58
-45,-53,-9,50,-18,-29,12,-59,-77,-96,-79,-52
-75,-53,21,62,-48,-17,24,-53,-65,-84,-73,-46
-87,-59,27,68,-60,-17,24,-53,-60,-78,-73,-46
-81,-65,15,74,-48,-23,18,-53,-60,-78,-67,-46
-75,-65,9,68,-42,-29,18,-53,-60,-78,-67,-52
-81,-71,9,74,-48,-29,18,-53,-65,-84,-73,-46
-81,-83,-3,80,-42,-41,12,-53,-65,-78,-73,-40
-75,-89,-15,80,-30,-53,12,-59,-71,-84,-73,-46
-75,-95,-21,80,-30,-59,12,-53,-65,-84,-67,-40
-69,-101,-32,86,-18,-65,18,-59,-71,-84,-67,-34
-69,-107,-37,86,-18,-71,18,-59,-71,-90,-61,-40
-69,-107,-37,86,-18,-71,18,-59,-71,-84,-61,-34
-69,-113,-43,92,-12,-77,12,-59,-71,-84,-61,-40
-87,-125,-37,104,-24,-83,12,-65,-77,-84,-67,-40
-81,-113,-32,98,-24,-71,12,-65,-83,-90,-67,-40
-57,-107,-49,80,-6,-77,12,-65,-83,-90,-73,-46
-45,-95,-49,68,0,-71,12,-65,-83,-90,-79,-52
-39,-95,-55,62,6,-77,18,-65,-71,-84,-73,-52
-63,-95,-32,74,-18,-65,24,-53,-65,-72,-67,-46
-81,-101,-21,92,-30,-59,24,-53,-65,-72,-67,-46
-93,-113,-21,104,-36,-65,18,-65,-77,-78,-67,-52
-87,-113,-27,98,-30,-71,18,-65,-77,-78,-73,-58
-93,-119,-27,104,-36,-71,18,-65,-83,-78,-67,-52
-87,-107,-21,92,-36,-65,30,-65,-83,-72,-61,-52
-81,-107,-27,92,-30,-65,18,-71,-95,-72,-67,-52
-63,-107,-43,80,-12,-77,18,-71,-95,-78,-73,-52
-57,-113,-55,86,0,-83,6,-71,-95,-90,-79,-52
-45,-113,-67,80,12,-89,0,-77,-101,-102,-85,-58
-63,-101,-37,80,-12,-71,6,-71,-89,-96,-79,-58
-81,-95,-15,86,-36,-53,6,-65,-83,-90,-67,-52
-81,-95,-15,86,-36,-53,0,-65,-89,-90,-67,-58
-63,-95,-32,74,-18,-65,-6,-77,-101,-96,-73,-70
-63,-101,-37,80,-12,-71,0,-83,-107,-96,-73,-70
-69,-113,-43,92,-12,-77,0,-83,-107,-96,-79,-70
-75,-119,-43,92,-18,-83,0,-89,-113,-96,-85,-70
-81,-119,-37,98,-24,-77,6,-89,-113,-102,-85,-70
-81,-125,-43,104,-18,-83,6,-89,-113,-102,-91,-70
-75,-119,-43,92,-18,-83,-6,-89,-113,-102,-91,-70
-69,-119,-49,92,-12,-83,-6,-89,-113,-108,-91,-64
-75,-113,-37,92,-18,-77,0,-89,-107,-96,-85,-58
-81,-119,-37,98,-24,-77,0,-89,-107,-96,-79,-58
-87,-125,-37,104,-24,-83,0,-89,-113,-96,-85,-64
-69,-113,-43,92,-12,-77,6,-89,-113,-96,-79,-58
-69,-113,-43,92,-12,-77,12,-95,-107,-96,-73,-58
-69,-119,-49,92,-12,-83,18,-95,-113,-102,-79,-58
-81,-125,-43,104,-18,-83,12,-95,-113,-102,-79,-64
-99,-137,-37,116,-30,-89,18,-89,-113,-102,-85,-70
-93,-143,-49,116,-24,-95,18,-89,-113,-108,-91,-76
-75,-131,-55,98,-12,-95,12,-89,-113,-108,-85,-76
-51,-119,-67,80,6,-95,6,-89,-113,-108,-85,-70
-51,-113,-61,80,6,-89,0,-89,-113,-108,-85,-70
-57,-113,-55,86,0,-83,0,-83,-107,-102,-85,-70
-75,-113,-37,92,-18,-77,6,-77,-101,-96,-79,-64
-75,-119,-43,92,-18,-83,12,-77,-101,-96,-79,-64
-75,-125,-49,98,-12,-89,12,-83,-107,-96,-85,-70
-75,-113,-37,92,-18,-77,24,-77,-101,-90,-79,-70
-69,-101,-32,86,-18,-65,30,-77,-101,-84,-73,-64
-69,-101,-32,86,-18,-65,24,-71,-95,-84,-67,-58
-93,-107,-15,98,-42,-59,18,-77,-95,-84,-67,-58
-105,-119,-15,110,-48,-65,6,-83,-101,-90,-67,-52
-111,-125,-15,116,-48,-71,6,-83,-101,-90,-61,-46
-117,-125,-9,122,-54,-65,12,-83,-101,-90,-61,-46
-111,-131,-21,116,-48,-77,6,-89,-113,-96,-67,-52
-93,-131,-37,110,-30,-83,12,-95,-119,-102,-79,-64
-69,-131,-61,98,-6,-95,0,-101,-125,-120,-91,-76
-57,-131,-73,92,6,-101,0,-107,-131,-126,-97,-82
-63,-131,-67,92,0,-101,0,-101,-125,-120,-97,-76
-81,-125,-43,104,-18,-83,6,-95,-119,-114,-85,-64
-93,-125,-32,110,-30,-77,6,-89,-119,-102,-85,-58
-87,-125,-37,104,-24,-83,6,-89,-119,-108,-85,-64
-93,-137,-43,116,-24,-89,6,-95,-125,-108,-85,-64
-93,-125,-32,110,-30,-77,6,-83,-119,-102,-79,-64
-93,-125,-32,110,-30,-77,12,-83,-113,-96,-79,-64
-93,-125,-32,110,-30,-77,18,-83,-107,-102,-85,-64
-93,-113,-21,104,-36,-65,18,-77,-107,-96,-85,-64
-81,-107,-27,92,-30,-65,24,-71,-101,-90,-85,-64
-75,-107,-32,86,-24,-71,12,-71,-107,-96,-85,-64
-75,-113,-37,92,-18,-77,6,-77,-113,-96,-85,-64
-75,-125,-49,98,-12,-89,0,-83,-119,-102,-85,-70
-81,-131,-49,104,-18,-89,0,-89,-119,-102,-85,-70
-81,-143,-61,110,-12,-101,-6,-95,-125,-108,-91,-70
-81,-137,-55,110,-12,-95,-6,-95,-125,-102,-91,-70
-75,-131,-55,98,-12,-95,-6,-95,-119,-108,-91,-70
-69,-131,-61,98,-6,-95,-12,-101,-119,-108,-97,-70
-69,-125,-55,98,-6,-89,-12,-107,-119,-114,-97,-70
-81,-119,-37,98,-24,-77,-6,-101,-119,-114,-97,-70
-81,-119,-37,98,-24,-77,0,-95,-119,-108,-91,-64
-87,-113,-27,98,-30,-71,6,-95,-119,-108,-85,-64
-87,-113,-27,98,-30,-71,0,-95,-125,-102,-79,-64
-81,-107,-27,92,-30,-65,0,-89,-125,-96,-79,-64
-63,-101,-37,80,-12,-71,0,-83,-119,-90,-79,-64
-57,-101,-43,80,-6,-71,0,-83,-119,-90,-79,-70
-57,-107,-49,80,-6,-77,-6,-83,-119,-96,-85,-76
-57,-119,-61,86,0,-89,-6,-95,-125,-102,-91,-76
-87,-125,-37,104,-24,-83,-6,-95,-119,-102,-85,-70
-105,-125,-21,116,-42,-71,0,-95,-113,-96,-79,-64
-111,-125,-15,116,-48,-71,-6,-101,-113,-96,-79,-58
-105,-119,-15,110,-48,-65,-6,-95,-119,-96,-73,-58
-99,-113,-15,104,-42,-65,0,-95,-119,-96,-73,-58
-93,-113,-21,104,-36,-65,0,-95,-119,-96,-73,-64
-93,-113,-21,104,-36,-65,0,-89,-125,-90,-73,-64
-93,-107,-15,98,-42,-59,6,-89,-119,-90,-73,-70
-93,-107,-15,98,-42,-59,-6,-89,-119,-90,-79,-70
-93,-107,-15,98,-42,-59,-6,-89,-113,-90,-79,-70
-99,-107,-9,98,-48,-59,-6,-89,-107,-90,-73,-70
-87,-107,-21,92,-36,-65,-12,-95,-107,-90,-79,-70
-75,-107,-32,86,-24,-71,-12,-95,-113,-96,-79,-76
-75,-113,-37,92,-18,-77,-6,-95,-113,-96,-85,-76
-81,-113,-32,98,-24,-71,-6,-101,-113,-96,-85,-76
-81,-119,-37,98,-24,-77,-6,-107,-119,-102,-85,-76
-81,-125,-43,104,-18,-83,-6,-107,-125,-102,-91,-82
-69,-125,-55,98,-6,-89,-6,-107,-131,-114,-97,-88
-69,-131,-61,98,-6,-95,0,-101,-125,-108,-97,-88
-81,-131,-49,104,-18,-89,6,-89,-113,-102,-85,-82
-87,-125,-37,104,-24,-83,18,-83,-107,-90,-79,-82
-93,-131,-37,110,-30,-83,12,-83,-113,-90,-79,-82
-99,-137,-37,116,-30,-89,12,-83,-113,-90,-73,-76
-105,-137,-32,122,-36,-83,6,-83,-113,-90,-67,-64
-105,-137,-32,122,-36,-83,0,-83,-113,-84,-67,-58
-111,-137,-27,122,-42,-83,0,-89,-113,-90,-67,-58
-105,-131,-27,116,-42,-77,0,-89,-107,-90,-67,-58
-105,-125,-21,116,-42,-71,6,-89,-107,-90,-67,-64
-105,-125,-21,116,-42,-71,0,-95,-113,-96,-73,-70
-105,-131,-27,116,-42,-77,0,-101,-119,-102,-67,-70
-99,-125,-27,110,-36,-77,0,-95,-119,-102,-67,-70
-93,-125,-32,110,-30,-77,0,-101,-125,-102,-67,-70
-93,-131,-37,110,-30,-83,0,-95,-125,-102,-67,-70
-87,-125,-37,104,-24,-83,-6,-95,-125,-102,-67,-70
-87,-131,-43,104,-24,-89,-6,-95,-125,-108,-73,-76
-81,-131,-49,104,-18,-89,-6,-89,-119,-102,-73,-70
-81,-131,-49,104,-18,-89,-6,-89,-119,-102,-73,-76
-81,-125,-43,104,-18,-83,-6,-89,-119,-96,-73,-76
-75,-125,-49,98,-12,-89,-6,-89,-119,-96,-73,-82
-81,-131,-49,104,-18,-89,-12,-101,-125,-96,-73,-82
-87,-119,-32,98,-30,-77,-12,-101,-125,-96,-73,-76
-81,-113,-32,98,-24,-71,-12,-101,-125,-96,-73,-76
-81,-107,-27,92,-30,-65,-12,-101,-125,-96,-67,-76
-75,-101,-27,86,-24,-65,-6,-101,-125,-96,-67,-76
-63,-101,-37,80,-12,-71,-12,-101,-131,-102,-73,-76
-63,-107,-43,80,-12,-77,-12,-95,-125,-102,-79,-70
-63,-125,-61,92,0,-95,-12,-95,-131,-108,-85,-82
-63,-131,-67,92,0,-101,-18,-89,-131,-114,-97,-88
-63,-125,-61,92,0,-95,-12,-83,-125,-102,-91,-82
-69,-125,-55,98,-6,-89,-6,-77,-119,-96,-85,-82
-69,-119,-49,92,-12,-83,-6,-83,-125,-96,-79,-82
-63,-113,-49,86,-6,-83,-12,-89,-125,-102,-79,-82
-75,-119,-43,92,-18,-83,-12,-95,-125,-108,-73,-88
-75,-125,-49,98,-12,-89,-12,-95,-125,-108,-73,-88
-99,-125,-27,110,-36,-77,-12,-101,-125,-102,-73,-82
-111,-125,-15,116,-48,-71,-12,-95,-125,-96,-67,-76
-123,-125,-3,122,-60,-65,-6,-83,-119,-84,-61,-70
-117,-119,-3,116,-60,-59,-6,-83,-119,-84,-61,-70
-105,-125,-21,116,-42,-71,-6,-83,-125,-90,-67,-76
-99,-113,-15,104,-42,-65,-6,-77,-113,-90,-67,-70
-99,-107,-9,98,-48,-59,0,-77,-113,-90,-67,-70
-93,-101,-9,98,-42,-53,0,-77,-113,-96,-67,-70
-105,-107,-3,104,-54,-53,0,-77,-113,-96,-67,-70
-99,-113,-15,104,-42,-65,0,-83,-119,-96,-61,-70
-87,-113,-27,98,-30,-71,-6,-83,-119,-96,-61,-70
-75,-125,-49,98,-12,-89,-12,-83,-119,-96,-67,-76
-63,-131,-67,92,0,-101,-6,-77,-119,-90,-67,-76
-63,-137,-73,98,6,-107,-6,-77,-119,-90,-67,-82
-51,-137,-85,92,18,-113,-12,-71,-113,-90,-67,-82
-39,-143,-103,86,30,-125,-12,-71,-113,-90,-67,-82
-27,-137,-109,80,42,-125,-12,-71,-113,-84,-67,-82
-9,-125,-115,68,54,-119,-12,-59,-101,-78,-61,-76
-9,-119,-109,62,48,-113,0,-53,-89,-66,-55,-70
-9,-113,-103,62,48,-107,0,-53,-83,-60,-49,-64
-15,-113,-97,62,42,-107,6,-47,-83,-54,-43,-64
-21,-119,-97,68,36,-107,6,-41,-71,-48,-43,-58
-21,-119,-97,68,36,-107,6,-29,-65,-42,-37,-58
-21,-119,-97,68,36,-107,12,-23,-60,-36,-37,-52
-27,-119,-91,68,30,-107,12,-17,-60,-36,-31,-52
-15,-125,-109,68,48,-119,12,-12,-60,-36,-37,-52
-9,-125,-115,68,54,-119,12,-17,-60,-42,-37,-58
3,-113,-115,56,60,-113,12,-17,-55,-36,-26,-58
3,-107,-109,50,54,-107,12,-12,-49,-31,-21,-52
15,-107,-121,44,66,-113,12,-12,-49,-31,-21,-52
15,-101,-115,44,66,-107,6,-23,-49,-31,-21,-46
21,-101,-121,38,71,-113,6,-23,-55,-36,-26,-46
33,-95,-127,26,76,-113,12,-23,-55,-36,-26,-52
27,-95,-121,32,71,-107,12,-23,-55,-36,-26,-52
15,-101,-115,44,66,-107,6,-23,-60,-42,-31,-52
27,-107,-133,38,76,-119,0,-29,-65,-48,-37,-58
39,-107,-145,32,88,-125,-6,-29,-65,-54,-37,-58
39,-107,-145,32,88,-125,-12,-35,-65,-54,-37,-52
39,-107,-145,32,88,-125,-24,-41,-71,-60,-43,-52
39,-113,-151,38,94,-131,-30,-53,-77,-60,-43,-58
21,-113,-133,44,76,-125,-30,-59,-89,-66,-43,-58
9,-113,-121,50,66,-119,-35,-71,-95,-66,-43,-58
9,-113,-121,50,66,-119,-35,-83,-107,-72,-49,-64
9,-107,-115,44,60,-113,-35,-89,-119,-78,-49,-64
9,-107,-115,44,60,-113,-40,-101,-125,-84,-61,-70
-3,-113,-109,56,54,-113,-46,-101,-137,-96,-61,-70
-3,-107,-103,50,48,-107,-52,-107,-143,-102,-67,-70
-3,-101,-97,50,48,-101,-46,-107,-137,-102,-67,-70
-15,-107,-91,56,36,-101,-40,-107,-131,-102,-67,-70
-21,-113,-91,68,36,-101,-40,-107,-131,-102,-67,-76
-39,-119,-79,74,18,-101,-35,-101,-131,-102,-67,-76
-45,-125,-79,86,18,-101,-35,-107,-131,-108,-73,-82
-51,-119,-67,80,6,-95,-35,-101,-137,-108,-67,-88
-63,-113,-49,86,-6,-83,-30,-95,-131,-102,-61,-82
-87,-113,-27,98,-30,-71,-30,-89,-131,-102,-61,-82
-99,-119,-21,104,-42,-71,-35,-89,-131,-102,-67,-88
-99,-125,-27,110,-36,-77,-35,-95,-137,-114,-79,-94
-105,-119,-15,110,-48,-65,-35,-95,-137,-108,-73,-88
-117,-125,-9,122,-54,-65,-30,-95,-137,-102,-73,-88
-111,-131,-21,116,-48,-77,-30,-101,-143,-102,-79,-100
-105,-131,-27,116,-42,-77,-30,-101,-149,-108,-85,-100
-99,-125,-27,110,-36,-77,-24,-101,-149,-108,-79,-106
-99,-125,-27,110,-36,-77,-24,-101,-149,-108,-79,-100
-87,-125,-37,104,-24,-83,-35,-101,-155,-114,-85,-106
-87,-125,-37,104,-24,-83,-35,-107,-161,-120,-97,-112
-99,-125,-27,110,-36,-77,-35,-107,-155,-126,-91,-106
-117,-131,-15,122,-54,-71,-30,-101,-149,-126,-91,-106
-117,-125,-9,122,-54,-65,-30,-107,-149,-126,-85,-106
-117,-119,-3,116,-60,-59,-24,-107,-149,-126,-85,-100
-123,-113,9,116,-66,-53,-18,-101,-143,-120,-79,-94
-123,-119,3,116,-66,-59,-30,-101,-143,-120,-79,-100
-117,-125,-9,122,-54,-65,-30,-113,-149,-120,-91,-106
-123,-131,-9,122,-60,-71,-30,-107,-161,-120,-91,-106
-129,-131,-3,128,-66,-65,-30,-101,-155,-114,-91,-106
-123,-125,-3,122,-60,-65,-30,-95,-155,-114,-91,-100
-117,-119,-3,116,-60,-59,-24,-89,-149,-108,-85,-100
-123,-119,3,116,-66,-59,-18,-89,-143,-108,-85,-100
-129,-119,9,122,-72,-53,-24,-89,-143,-114,-85,-100
-129,-119,9,122,-72,-53,-24,-89,-143,-114,-79,-100
-117,-113,3,116,-60,-53,-24,-89,-137,-114,-79,-94
-93,-101,-9,98,-42,-53,-18,-71,-119,-102,-67,-82
-81,-101,-21,92,-30,-59,-6,-41,-95,-84,-61,-76
-75,-107,-32,86,-24,-71,0,-12,-71,-66,-49,-70
-57,-101,-43,80,-6,-71,6,23,-37,-31,-37,-58
-21,-89,-67,56,24,-77,0,59,11,10,-9,-46
51,-71,-121,8,82,-95,-6,101,77,76,45,-10
127,-47,-175,-40,148,-107,-12,149,155,160,117,30
223,-11,-235,-104,226,-119,-12,203,263,268,225,108
331,49,-283,-188,304,-113,-12,293,407,418,363,210
451,131,-319,-284,388,-89,-6,395,575,592,519,336
559,239,-319,-392,442,-35,-6,467,737,772,687,480
667,365,-301,-512,484,35,-12,521,887,946,849,618
751,497,-253,-620,502,125,-12,563,1025,1126,1011,762
787,617,-169,-698,478,227,-6,605,1157,1282,1155,888
793,683,-109,-734,454,287,18,629,1235,1366,1215,948
787,695,-91,-734,442,305,36,599,1229,1348,1185,930
745,659,-85,-698,418,287,30,503,1115,1216,1065,852
667,593,-73,-626,370,263,0,329,911,1000,879,732
571,527,-43,-542,310,245,-52,119,683,778,705,612
445,461,15,-452,214,239,-112,-77,461,568,543,510
325,389,63,-356,130,227,-172,-269,239,376,399,402
193,317,123,-254,36,221,-232,-455,11,172,249,294
39,233,195,-134,-78,215,-274,-623,-215,-20,105,174
-111,155,267,-22,-186,209,-310,-767,-425,-198,-31,54
-231,89,321,68,-276,203,-340,-875,-599,-348,-151,-40
-297,43,339,128,-318,191,-358,-935,-707,-444,-235,-118
-327,1,327,158,-330,161,-370,-953,-755,-504,-295,-172
-339,-47,291,188,-318,119,-376,-941,-785,-540,-331,-208
-345,-89,255,218,-300,83,-364,-905,-791,-558,-349,-232
-345,-131,213,236,-282,41,-346,-851,-773,-570,-361,-244
-339,-161,177,248,-258,7,-316,-785,-737,-552,-355,-256
-315,-185,129,248,-222,-29,-280,-701,-683,-528,-349,-262
-279,-209,69,242,-174,-71,-250,-617,-623,-492,-337,-268
-243,-221,21,230,-132,-101,-220,-533,-563,-456,-325,-268
-219,-221,-3,218,-108,-113,-184,-449,-491,-402,-301,-256
-189,-203,-15,194,-90,-107,-148,-365,-413,-336,-265,-226
-165,-185,-21,176,-72,-101,-118,-299,-341,-288,-223,-190
-135,-155,-21,140,-60,-89,-88,-233,-281,-234,-187,-160
-117,-125,-9,122,-54,-65,-64,-185,-227,-186,-139,-130
-111,-107,3,104,-60,-53,-46,-137,-185,-150,-103,-112
-99,-83,15,86,-60,-35,-35,-101,-149,-120,-79,-94
-93,-59,33,74,-66,-11,-24,-71,-119,-96,-61,-82
-87,-53,33,68,-60,-11,-12,-41,-101,-78,-55,-82
-87,-53,33,68,-60,-11,0,-29,-83,-66,-55,-76
-93,-59,33,74,-66,-11,6,-17,-77,-66,-61,-76
-93,-77,15,86,-54,-29,0,-12,-71,-60,-61,-76
-105,-89,15,98,-60,-35,0,-12,-60,-48,-55,-70
-105,-89,15,98,-60,-35,6,-1,-49,-36,-43,-58
-93,-65,27,80,-60,-17,18,17,-37,-26,-26,-52
-69,-41,27,56,-48,-5,30,29,-19,-14,-21,-40
-57,-23,33,38,-48,7,36,35,-19,-8,-15,-40
-39,-17,21,26,-30,1,36,35,-19,-8,-15,-46
-45,-17,27,32,-36,7,42,41,-13,-2,-9,-46
-45,-11,33,26,-42,13,36,47,-7,-2,-9,-46
-63,-23,39,38,-54,7,36,47,-7,4,-9,-46
-75,-29,45,50,-60,7,42,59,5,10,-3,-40
-69,-29,39,50,-54,7,42,65,11,16,3,-40
-63,-29,33,44,-48,1,36,71,17,22,3,-40
-57,-17,39,38,-48,13,42,71,17,22,3,-34
-33,-11,21,20,-30,7,42,77,23,22,3,-34
-15,-11,3,8,-12,-5,30,71,17,10,-3,-40
9,-5,-15,-4,12,-11,30,71,17,10,-9,-40
-3,1,3,-4,-6,1,30,71,17,16,-3,-34
-15,7,21,2,-18,13,42,77,29,22,9,-22
-27,13,39,2,-36,24,48,83,35,34,15,-16
-33,7,39,14,-36,24,48,95,47,46,27,-10
-21,13,33,2,-30,24,48,101,53,52,33,-10
-21,7,27,8,-24,19,48,107,59,58,33,-10
-27,7,33,8,-30,19,48,113,65,64,39,-4
-39,1,39,14,-42,19,48,119,77,76,51,7
-33,1,33,14,-36,19,48,125,83,76,51,7
-27,1,27,8,-30,13,48,125,83,82,51,7
-21,1,21,8,-24,13,48,125,83,82,51,7
-15,1,15,2,-18,7,48,125,83,82,45,2
-15,1,15,2,-18,7,48,125,89,88,45,2
-3,13,15,-10,-12,13,48,125,95,88,45,7
9,19,9,-16,0,13,48,137,101,100,51,7
15,19,3,-16,6,13,48,143,113,112,63,18
15,19,3,-16,6,13,48,149,113,118,69,24
15,13,-3,-16,6,7,48,155,119,118,69,30
3,7,3,-4,0,7,48,161,125,118,69,30
21,19,-3,-22,12,7,48,161,137,118,75,30
33,25,-9,-34,18,7,60,173,149,130,81,36
45,31,-15,-40,30,7,60,179,155,136,81,30
45,31,-15,-40,30,7,48,185,155,136,81,30
57,31,-27,-46,42,1,48,185,155,136,87,24
69,37,-32,-58,48,1,48,185,161,136,93,30
69,31,-37,-52,54,-5,42,185,161,142,93,30
63,31,-32,-46,48,1,48,197,173,154,105,42
69,37,-32,-58,48,1,54,203,185,160,111,48
69,43,-27,-58,48,7,54,215,191,172,117,54
57,43,-15,-52,36,13,60,221,197,184,123,66
57,55,-3,-58,30,24,60,233,209,196,129,78
75,67,-9,-70,42,29,60,239,221,202,135,84
93,73,-21,-88,54,24,60,245,227,208,147,84
105,73,-32,-93,66,19,66,257,239,220,153,90
110,73,-37,-93,71,19,66,269,245,226,159,96
110,78,-32,-93,71,24,66,275,257,238,165,96
99,78,-21,-88,60,29,78,287,269,250,183,102
105,83,-21,-93,66,29,78,299,281,262,189,108
115,83,-32,-93,76,29,72,299,287,262,195,114
133,95,-37,-110,88,29,66,305,293,274,201,120
151,101,-49,-122,100,29,66,317,305,280,207,126
151,101,-49,-122,100,29,66,329,311,292,207,132
157,101,-55,-128,106,24,60,341,317,292,213,138
157,107,-49,-128,106,29,60,353,335,304,219,144
157,125,-32,-140,94,47,72,365,347,316,231,156
169,143,-27,-152,100,59,78,377,365,328,249,168
175,149,-27,-158,100,65,78,383,371,340,255,180
187,155,-32,-164,112,65,72,395,389,352,267,180
199,155,-43,-170,124,59,72,407,395,364,273,180
205,155,-49,-176,130,53,66,413,407,376,279,186
217,149,-67,-182,142,41,60,425,419,388,279,186
229,155,-73,-188,154,41,60,431,431,394,285,192
247,167,-79,-200,166,47,66,443,443,400,291,204
271,185,-85,-224,178,53,66,455,461,412,297,216
283,191,-91,-230,190,53,72,467,473,424,309,222
289,197,-91,-242,190,53,66,473,485,430,327,228
283,209,-73,-242,178,71,72,491,497,454,345,240
283,221,-61,-248,172,83,66,503,509,466,357,252
301,227,-73,-260,190,77,60,509,521,478,369,258
319,239,-79,-272,202,83,60,515,533,496,387,276
319,233,-85,-272,202,77,54,527,551,508,399,288
331,239,-91,-278,214,77,54,533,569,520,411,300
349,257,-91,-302,220,83,54,539,581,526,417,306
367,269,-97,-314,232,89,54,545,593,538,429,312
385,275,-109,-326,250,83,42,539,593,544,435,312
373,281,-91,-326,232,95,42,545,599,556,441,324
355,281,-73,-314,214,107,48,551,605,568,453,330
367,293,-73,-326,220,113,48,557,611,586,465,342
397,305,-91,-350,244,107,48,563,623,592,471,348
415,311,-103,-356,262,107,42,563,629,598,477,354
409,323,-85,-362,250,119,48,569,647,604,495,366
397,323,-73,-356,238,125,54,581,659,616,501,372
391,323,-67,-350,232,131,48,587,671,622,513,384
391,323,-67,-350,232,131,42,581,671,622,513,390
415,329,-85,-368,250,125,36,575,665,622,519,390
421,341,-79,-380,250,131,36,569,659,622,519,396
415,347,-67,-374,244,143,30,563,659,622,519,396
409,347,-61,-374,238,143,30,563,659,628,525,396
415,347,-67,-374,244,143,30,551,653,628,513,390
427,347,-79,-380,256,137,36,545,647,622,513,390
439,347,-91,-386,268,131,30,533,635,610,501,384
439,347,-91,-386,268,131,30,515,617,592,495,384
427,341,-85,-380,256,131,18,503,605,580,495,378
415,329,-85,-368,250,125,6,485,593,562,483,366
391,323,-67,-350,232,131,6,467,581,556,483,360
373,317,-55,-344,214,131,12,455,569,544,477,360
355,299,-55,-320,208,125,6,437,551,532,459,342
331,287,-43,-302,190,125,12,419,527,514,447,330
307,275,-32,-284,172,125,18,407,503,496,429,318
277,251,-27,-260,154,113,18,383,479,466,399,294
265,233,-32,-248,148,101,18,365,449,442,375,270
253,215,-37,-230,148,89,24,347,431,418,351,258
235,209,-27,-218,130,95,30,335,407,394,333,240
217,191,-27,-200,124,83,36,317,383,370,315,228
193,179,-15,-182,106,83,36,299,359,352,297,210
175,167,-9,-164,94,83,36,275,323,316,273,192
151,149,-3,-146,76,77,36,251,299,292,249,168
127,131,3,-122,66,71,24,227,263,256,225,144
110,113,3,-110,54,59,24,203,233,226,195,120
99,107,9,-98,48,59,30,191,209,202,177,108
99,101,3,-98,48,53,36,179,197,184,159,96
81,89,9,-88,36,47,36,161,179,166,141,90
69,83,15,-76,30,47,36,149,161,154,129,78
69,78,9,-76,30,41,36,131,137,130,111,66
57,61,3,-64,24,29,30,113,119,112,99,54
45,49,3,-52,18,24,30,95,95,94,75,30
27,37,9,-34,6,24,30,77,71,76,57,12
3,25,21,-16,-12,24,30,71,65,64,45,2
-9,19,27,-4,-18,24,36,71,59,52,39,2
-15,13,27,-4,-24,19,30,59,47,40,27,-4
-15,1,15,2,-18,7,24,47,35,22,15,-16
-21,-5,15,14,-18,7,24,35,23,10,3,-22
-27,-11,15,14,-24,1,24,23,17,4,-3,-28
-33,-23,9,26,-24,-5,24,17,5,-2,-3,-34
-27,-23,3,20,-18,-11,30,11,-1,-8,-9,-40
-21,-23,-3,20,-12,-11,24,-1,-13,-20,-15,-40
-15,-29,-15,20,0,-23,18,-7,-25,-26,-26,-52
-15,-41,-27,26,6,-35,12,-12,-37,-31,-31,-64
-15,-41,-27,26,6,-35,12,-17,-37,-36,-43,-64
-9,-41,-32,26,12,-35,12,-17,-43,-36,-49,-64
-21,-47,-27,32,0,-35,12,-23,-43,-42,-49,-64
-51,-53,-3,50,-24,-29,12,-23,-43,-36,-43,-64
-69,-59,9,62,-42,-23,6,-29,-49,-42,-43,-64
-63,-53,9,56,-36,-23,6,-35,-49,-42,-37,-64
-63,-53,9,56,-36,-23,12,-35,-49,-42,-43,-64
-63,-53,9,56,-36,-23,12,-29,-49,-42,-37,-70
-75,-53,21,62,-48,-17,12,-35,-55,-42,-43,-70
-75,-59,15,62,-48,-23,12,-35,-60,-48,-43,-70
-63,-59,3,56,-36,-29,6,-35,-60,-48,-49,-70
-57,-65,-9,62,-24,-35,0,-41,-65,-54,-55,-76
-63,-65,-3,62,-30,-35,6,-41,-65,-54,-55,-76
-57,-59,-3,56,-30,-29,6,-41,-65,-54,-61,-76
-51,-65,-15,56,-18,-41,6,-47,-65,-54,-55,-76
-51,-65,-15,56,-18,-41,6,-47,-71,-60,-61,-82
-45,-65,-21,56,-12,-41,6,-47,-71,-66,-61,-88
-63,-65,-3,62,-30,-35,6,-41,-65,-60,-55,-82
-75,-65,9,68,-42,-29,12,-41,-65,-60,-55,-82
-63,-65,-3,62,-30,-35,12,-41,-65,-60,-55,-82
-57,-65,-9,62,-24,-35,6,-41,-65,-60,-55,-82
-57,-65,-9,62,-24,-35,6,-41,-65,-66,-55,-82
-75,-77,-3,74,-36,-41,6,-41,-65,-60,-55,-82
-93,-83,9,86,-54,-35,6,-41,-65,-54,-49,-76
-87,-71,15,74,-54,-29,0,-41,-65,-54,-49,-76
-75,-65,9,68,-42,-29,0,-35,-60,-48,-49,-76
-63,-53,9,56,-36,-23,0,-41,-65,-48,-55,-76
-57,-47,9,50,-36,-17,6,-29,-60,-48,-55,-76
-69,-53,15,62,-42,-17,12,-29,-65,-54,-55,-76
-93,-59,33,74,-66,-11,12,-29,-60,-48,-49,-70
-111,-53,57,80,-84,1,18,-23,-55,-48,-37,-64
-99,-53,45,74,-72,-5,12,-23,-55,-48,-37,-58
-75,-53,21,62,-48,-17,6,-29,-60,-54,-37,-64
-51,-47,3,44,-30,-23,6,-35,-65,-60,-43,-64
-39,-41,-3,38,-18,-23,6,-29,-65,-54,-43,-58
-33,-41,-9,38,-12,-23,12,-23,-60,-54,-43,-58
-33,-41,-9,38,-12,-23,12,-23,-60,-48,-43,-58
-39,-41,-3,38,-18,-23,6,-23,-60,-42,-43,-58
-51,-41,9,44,-30,-17,6,-23,-60,-42,-49,-64
-45,-41,3,44,-24,-17,6,-23,-60,-48,-49,-70
-45,-41,3,44,-24,-17,12,-23,-55,-48,-43,-70
-45,-53,-9,50,-18,-29,6,-29,-60,-54,-43,-70
-33,-59,-27,44,-6,-41,6,-29,-60,-60,-49,-70
-39,-59,-21,44,-12,-41,12,-23,-60,-54,-43,-64
-39,-59,-21,44,-12,-41,18,-23,-60,-54,-43,-64
-33,-59,-27,44,-6,-41,12,-29,-65,-54,-49,-70
-39,-59,-21,44,-12,-41,12,-23,-71,-54,-49,-70
-51,-65,-15,56,-18,-41,6,-29,-71,-54,-49,-70
-57,-65,-9,62,-24,-35,6,-29,-71,-54,-49,-70
-57,-65,-9,62,-24,-35,6,-29,-65,-48,-49,-70
-63,-59,3,56,-36,-29,6,-29,-60,-48,-49,-64
-63,-59,3,56,-36,-29,6,-29,-60,-48,-49,-64
-57,-71,-15,62,-24,-41,6,-41,-60,-54,-55,-64
-51,-71,-21,56,-18,-47,6,-41,-60,-54,-55,-64
-51,-71,-21,56,-18,-47,12,-41,-60,-54,-49,-64
-51,-77,-27,62,-12,-53,6,-35,-65,-60,-55,-64
-57,-77,-21,68,-18,-47,6,-35,-65,-54,-55,-64
-51,-77,-27,62,-12,-53,6,-35,-71,-54,-55,-70
-45,-77,-32,62,-6,-53,6,-29,-71,-54,-55,-70
-45,-77,-32,62,-6,-53,6,-29,-65,-54,-55,-70
-45,-83,-37,62,-6,-59,6,-29,-65,-54,-55,-70
-39,-77,-37,56,0,-59,12,-29,-65,-54,-55,-64
-45,-71,-27,56,-12,-47,18,-29,-60,-48,-49,-58
-39,-65,-27,50,-6,-47,18,-29,-60,-48,-49,-58
-39,-65,-27,50,-6,-47,6,-35,-60,-48,-43,-58
-39,-77,-37,56,0,-59,0,-47,-71,-60,-55,-64
-45,-89,-43,68,0,-65,0,-53,-77,-66,-67,-76
-69,-95,-27,80,-24,-59,0,-53,-77,-66,-61,-70
-75,-83,-9,74,-36,-47,6,-47,-71,-60,-61,-70
-75,-83,-9,74,-36,-47,12,-47,-77,-60,-55,-70
-87,-89,-3,86,-42,-47,18,-41,-83,-60,-55,-70
-75,-83,-9,74,-36,-47,18,-41,-83,-66,-55,-76
-69,-89,-21,80,-24,-53,6,-53,-89,-72,-61,-82
-63,-95,-32,74,-18,-65,6,-53,-89,-72,-61,-76
-63,-95,-32,74,-18,-65,0,-59,-89,-66,-61,-76
-69,-95,-27,80,-24,-59,0,-59,-89,-66,-61,-76
-81,-101,-21,92,-30,-59,6,-65,-83,-66,-61,-76
-81,-95,-15,86,-36,-53,6,-59,-83,-66,-61,-76
-87,-95,-9,86,-42,-53,12,-59,-83,-66,-55,-70
-81,-95,-15,86,-36,-53,12,-59,-83,-72,-67,-76
-81,-95,-15,86,-36,-53,12,-65,-83,-72,-67,-70
-81,-95,-15,86,-36,-53,12,-65,-89,-72,-67,-70
-75,-101,-27,86,-24,-65,18,-65,-89,-72,-67,-70
-75,-95,-21,80,-30,-59,12,-71,-89,-72,-67,-76
-75,-95,-21,80,-30,-59,12,-65,-89,-72,-67,-76
-69,-83,-15,74,-30,-47,18,-59,-89,-72,-61,-76
-69,-83,-15,74,-30,-47,12,-59,-89,-72,-61,-76
-69,-83,-15,74,-30,-47,6,-65,-89,-78,-67,-82
-63,-83,-21,68,-24,-53,6,-65,-89,-84,-73,-88
-57,-83,-27,68,-18,-53,0,-65,-95,-96,-85,-94
-51,-71,-21,56,-18,-47,6,-65,-95,-96,-85,-88
-51,-77,-27,62,-12,-53,0,-65,-95,-96,-85,-88
-57,-83,-27,68,-18,-53,-6,-71,-101,-102,-91,-94
-57,-89,-32,74,-12,-59,-6,-77,-101,-102,-85,-94
-57,-95,-37,74,-12,-65,-6,-77,-101,-96,-85,-94
-63,-95,-32,74,-18,-65,-6,-77,-107,-96,-85,-94
-69,-101,-32,86,-18,-65,0,-83,-107,-96,-85,-94
-87,-101,-15,92,-36,-59,6,-77,-107,-90,-79,-88
-93,-101,-9,98,-42,-53,12,-77,-101,-90,-73,-82
-99,-101,-3,98,-48,-53,12,-77,-107,-90,-79,-82
-93,-101,-9,98,-42,-53,12,-77,-107,-96,-85,-82
-93,-101,-9,98,-42,-53,6,-77,-107,-102,-85,-82
-75,-101,-27,86,-24,-65,6,-77,-113,-108,-91,-82
-63,-101,-37,80,-12,-71,0,-83,-113,-108,-97,-82
-63,-107,-43,80,-12,-77,0,-83,-119,-108,-97,-82
-63,-107,-43,80,-12,-77,0,-83,-119,-108,-91,-88
-63,-101,-37,80,-12,-71,0,-83,-119,-108,-91,-88
-69,-107,-37,86,-18,-71,0,-77,-119,-114,-91,-94
-81,-113,-32,98,-24,-71,0,-77,-119,-114,-91,-100
-87,-107,-21,92,-36,-65,0,-77,-113,-108,-85,-94
-87,-101,-15,92,-36,-59,0,-71,-107,-102,-79,-88
-93,-95,-3,92,-48,-47,0,-71,-101,-96,-73,-88
-93,-95,-3,92,-48,-47,6,-65,-101,-96,-73,-82
-93,-107,-15,98,-42,-59,0,-71,-101,-102,-79,-88
-87,-101,-15,92,-36,-59,0,-71,-107,-102,-85,-88
-75,-107,-32,86,-24,-71,0,-77,-113,-114,-91,-94
-75,-113,-37,92,-18,-77,-6,-77,-119,-114,-91,-94
-81,-113,-32,98,-24,-71,-6,-71,-113,-114,-91,-88
-69,-107,-37,86,-18,-71,-6,-65,-113,-108,-91,-88
-69,-101,-32,86,-18,-65,0,-65,-107,-108,-85,-82
-75,-101,-27,86,-24,-65,0,-65,-107,-108,-91,-82
-69,-101,-32,86,-18,-65,-6,-71,-113,-114,-97,-88
-69,-107,-37,86,-18,-71,-6,-77,-119,-114,-103,-94
-81,-101,-21,92,-30,-59,0,-71,-113,-108,-91,-88
-81,-89,-9,86,-36,-47,6,-71,-107,-108,-91,-88
-87,-95,-9,86,-42,-53,0,-71,-113,-114,-91,-88
-99,-101,-3,98,-48,-53,0,-71,-113,-114,-91,-94
-99,-113,-15,104,-42,-65,-6,-77,-119,-114,-91,-94
-87,-119,-32,98,-30,-77,-12,-83,-131,-126,-91,-100
-81,-113,-32,98,-24,-71,-12,-83,-131,-126,-91,-100
-81,-107,-27,92,-30,-65,-12,-77,-125,-120,-91,-94
-81,-107,-27,92,-30,-65,-12,-77,-131,-114,-91,-100
-87,-113,-27,98,-30,-71,-12,-77,-131,-114,-97,-94
-99,-113,-15,104,-42,-65,-6,-71,-125,-108,-97,-94
-93,-107,-15,98,-42,-59,-6,-77,-125,-108,-103,-100
-99,-101,-3,98,-48,-53,0,-77,-125,-102,-103,-94
-105,-95,9,98,-60,-41,0,-77,-125,-108,-97,-88
-105,-89,15,98,-60,-35,6,-77,-119,-108,-85,-82
-99,-83,15,86,-60,-35,6,-71,-119,-108,-79,-76
-93,-83,9,86,-54,-35,12,-71,-119,-108,-79,-76
-93,-83,9,86,-54,-35,6,-71,-119,-108,-85,-76
-81,-89,-9,86,-36,-47,-12,-77,-125,-120,-91,-82
-69,-89,-21,80,-24,-53,-18,-77,-125,-126,-97,-88
-75,-89,-15,80,-30,-53,-18,-83,-125,-120,-97,-88
-81,-89,-9,86,-36,-47,-18,-83,-125,-120,-103,-94
-81,-95,-15,86,-36,-53,-18,-89,-131,-120,-103,-94
-81,-89,-9,86,-36,-47,-18,-89,-131,-120,-103,-94
-75,-89,-15,80,-30,-53,-18,-89,-137,-120,-97,-100
-75,-95,-21,80,-30,-59,-18,-89,-137,-126,-97,-106
-87,-89,-3,86,-42,-47,-6,-83,-131,-120,-91,-100
-93,-89,3,92,-48,-41,-6,-77,-119,-120,-91,-100
-87,-89,-3,86,-42,-47,-6,-77,-119,-126,-97,-100
-75,-89,-15,80,-30,-53,-12,-83,-125,-120,-103,-100
-63,-83,-21,68,-24,-53,-18,-89,-131,-120,-103,-100
-63,-77,-15,68,-24,-47,-18,-89,-131,-114,-109,-94
-75,-77,-3,74,-36,-41,-18,-89,-131,-108,-103,-88
-99,-83,15,86,-60,-35,-18,-89,-131,-108,-97,-88
-117,-89,27,104,-72,-29,-12,-83,-131,-108,-97,-88
-123,-95,27,104,-78,-35,-12,-77,-131,-108,-91,-88
-99,-89,9,92,-54,-41,-6,-83,-131,-114,-97,-94
-81,-83,-3,80,-42,-41,-6,-83,-131,-114,-103,-94
-75,-89,-15,80,-30,-53,-12,-83,-137,-120,-103,-100
-75,-95,-21,80,-30,-59,-12,-83,-137,-120,-109,-94
-69,-83,-15,74,-30,-47,-6,-83,-131,-114,-103,-94
-69,-77,-9,74,-30,-41,-12,-89,-131,-120,-103,-94
-75,-77,-3,74,-36,-41,-12,-89,-131,-120,-103,-94
-87,-77,9,80,-48,-35,-18,-95,-131,-126,-97,-94
-87,-77,9,80,-48,-35,-24,-101,-137,-126,-97,-100
-93,-89,3,92,-48,-41,-18,-101,-137,-126,-103,-100
-87,-95,-9,86,-42,-53,-18,-101,-137,-126,-109,-100
-69,-89,-21,80,-24,-53,-18,-101,-137,-126,-103,-94
-63,-89,-27,74,-18,-59,-18,-95,-131,-114,-97,-88
-63,-83,-21,68,-24,-53,-12,-89,-125,-114,-91,-82
-81,-77,3,80,-42,-35,-6,-83,-119,-108,-85,-82
-87,-77,9,80,-48,-35,-12,-83,-119,-114,-85,-82
-99,-83,15,86,-60,-35,-12,-89,-131,-120,-91,-94
-111,-83,27,92,-72,-29,-6,-89,-131,-120,-91,-100
