,,,,,,,,,,,
2019-09-01 15:34:19,,,,,,,,,,,
,,,,,,,,,,,
I,II,III,aVR,aVL,aVF,V1,V2,V3,V4,V5,V6
0,2644,2614,-1298,-1284,2633,-1035,-520,-2103,-269,1134,336
-5,150,156,-86,-120,163,-57,-172,-309,-227,-95,-173
-5,-245,-251,105,95,-244,134,-94,8,-197,-305,-257
-5,-305,-311,129,131,-310,176,-64,62,-185,-335,-281
-5,-323,-329,141,143,-328,194,-40,80,-167,-347,-293
-5,-329,-335,147,149,-340,200,-28,86,-155,-353,-299
0,-329,-335,147,155,-340,206,-16,98,-149,-359,-299
6,-329,-341,147,161,-340,212,-5,110,-143,-359,-299
6,-329,-341,147,167,-340,212,7,122,-131,-359,-299
6,-335,-341,153,167,-340,212,19,134,-125,-359,-299
0,-341,-341,165,167,-340,212,25,146,-119,-359,-299
0,-341,-341,165,167,-340,212,31,158,-107,-359,-299
0,-341,-341,165,167,-340,212,43,170,-95,-353,-299
0,-341,-341,165,167,-340,218,55,176,-89,-341,-299
0,-335,-341,165,167,-340,224,61,182,-89,-341,-299
0,-335,-335,165,161,-340,224,67,188,-89,-335,-299
-5,-335,-335,165,161,-340,224,73,194,-83,-329,-299
-5,-335,-329,165,155,-340,230,79,200,-77,-323,-299
-5,-335,-329,165,155,-334,236,85,206,-71,-323,-299
-5,-335,-329,165,155,-334,242,97,212,-65,-317,-293
-5,-329,-323,165,155,-328,248,109,224,-53,-305,-281
0,-311,-323,153,155,-316,254,121,242,-29,-281,-269
12,-281,-317,141,155,-292,260,133,260,-11,-263,-251
24,-251,-305,117,155,-274,266,145,272,0,-245,-239
36,-239,-299,99,155,-262,272,157,284,12,-239,-227
42,-227,-293,87,155,-256,272,163,296,24,-227,-221
48,-221,-287,81,155,-250,272,169,308,36,-215,-215
54,-209,-275,75,155,-238,272,175,314,54,-203,-203
54,-197,-263,69,155,-226,278,181,326,78,-191,-191
54,-185,-257,63,155,-220,278,181,338,90,-173,-179
54,-173,-251,57,155,-208,278,187,344,102,-155,-167
54,-161,-245,51,155,-196,278,193,356,114,-137,-155
54,-155,-239,45,149,-190,278,193,362,126,-125,-149
54,-155,-233,45,143,-184,272,193,368,132,-113,-137
54,-155,-221,45,137,-178,266,193,374,144,-101,-125
54,-149,-215,39,137,-172,260,193,380,156,-95,-113
54,-149,-209,39,137,-172,254,193,386,162,-89,-107
54,-149,-209,39,137,-172,248,193,386,168,-83,-101
60,-131,-203,27,137,-160,242,193,386,180,-71,-89
72,-101,-197,3,137,-142,236,193,392,198,-53,-65
90,-71,-191,-8,137,-130,236,193,404,222,-29,-47
96,-59,-185,-20,137,-118,236,193,410,234,-17,-35
96,-53,-173,-20,131,-112,230,193,416,240,-5,-23
96,-47,-161,-20,125,-106,224,193,416,246,6,-17
96,-41,-149,-26,125,-100,218,187,416,252,12,-11
102,-29,-143,-38,125,-88,212,187,416,258,18,-5
102,-23,-137,-44,125,-82,206,187,416,264,24,0
102,-17,-131,-50,119,-76,200,181,416,264,30,6
102,-11,-131,-56,119,-70,194,175,416,264,36,12
102,-5,-131,-56,119,-64,182,169,416,264,42,18
102,-5,-125,-56,113,-58,170,169,416,264,48,24
102,-5,-119,-56,107,-52,164,163,416,264,54,30
102,-5,-113,-56,107,-46,158,157,416,270,60,36
102,-5,-107,-56,101,-46,152,157,416,270,66,42
102,-5,-107,-56,101,-46,146,151,416,270,66,48
102,0,-107,-56,101,-40,146,145,410,270,72,54
102,0,-107,-56,101,-40,146,139,404,270,72,54
102,0,-101,-56,101,-40,140,127,398,270,72,54
102,0,-95,-56,101,-40,134,121,392,270,72,54
102,6,-95,-56,101,-40,134,115,392,270,72,60
102,12,-95,-56,101,-40,134,109,392,270,78,60
102,18,-95,-62,101,-40,134,103,392,270,78,60
102,24,-95,-62,101,-40,134,97,392,270,78,60
102,24,-95,-62,101,-40,134,97,392,270,78,66
102,24,-95,-68,101,-40,134,91,386,270,78,66
102,24,-95,-68,101,-40,134,85,374,270,78,66
102,24,-95,-68,101,-40,134,73,362,264,72,66
102,18,-95,-68,101,-40,134,61,350,258,66,66
102,12,-95,-62,101,-40,134,49,338,246,60,66
102,12,-95,-62,101,-40,134,43,326,234,54,60
102,0,-95,-56,101,-46,134,37,314,222,48,60
96,-11,-101,-50,101,-52,134,31,308,210,36,54
90,-23,-107,-38,101,-58,128,19,296,192,30,48
84,-29,-107,-32,101,-64,122,13,290,180,18,36
78,-29,-107,-32,101,-70,116,1,278,168,6,24
78,-35,-113,-32,101,-70,110,-10,266,156,-5,12
78,-41,-119,-26,101,-76,110,-22,254,150,-11,0
78,-47,-119,-20,101,-76,104,-34,236,138,-23,-11
72,-53,-119,-14,101,-82,98,-46,224,126,-35,-23
66,-65,-125,-8,101,-94,92,-58,206,114,-47,-35
60,-77,-131,3,101,-100,92,-70,182,96,-59,-47
48,-89,-131,15,95,-112,86,-88,170,72,-71,-59
36,-101,-131,21,95,-118,86,-100,158,54,-89,-71
36,-113,-143,27,95,-130,86,-112,146,42,-107,-77
30,-131,-149,39,95,-142,86,-124,134,30,-119,-89
24,-143,-155,45,95,-148,86,-130,128,24,-131,-101
24,-149,-167,51,95,-154,86,-130,116,18,-137,-107
24,-155,-179,51,95,-160,86,-136,104,12,-143,-113
24,-161,-185,51,95,-166,86,-142,92,0,-149,-125
24,-161,-185,57,95,-172,86,-148,80,-11,-161,-137
24,-161,-191,57,101,-178,86,-154,68,-23,-173,-149
24,-161,-197,57,107,-178,86,-160,62,-29,-179,-155
24,-167,-197,57,107,-178,86,-166,62,-35,-185,-161
24,-173,-197,63,107,-178,86,-166,56,-41,-191,-161
24,-179,-197,69,107,-184,86,-172,50,-47,-197,-167
18,-179,-197,75,107,-190,86,-172,44,-53,-203,-167
18,-185,-197,81,107,-196,80,-172,38,-59,-209,-167
12,-191,-197,87,107,-196,80,-178,32,-59,-209,-173
12,-191,-197,87,107,-196,80,-178,26,-65,-209,-179
12,-191,-197,87,107,-196,80,-178,26,-71,-209,-179
6,-197,-197,93,101,-196,80,-184,20,-77,-215,-185
-11,-209,-197,105,95,-202,80,-190,14,-89,-227,-191
-23,-215,-197,117,89,-202,74,-190,8,-95,-233,-197
-23,-221,-197,117,89,-202,74,-190,8,-101,-233,-197
-23,-221,-197,117,89,-202,74,-190,8,-107,-233,-197
-23,-221,-197,117,89,-202,74,-190,8,-107,-239,-197
-23,-221,-197,117,89,-202,74,-190,8,-107,-239,-197
-23,-221,-197,117,89,-202,74,-190,8,-107,-239,-197
-17,-215,-197,111,89,-202,74,-190,8,-107,-239,-197
-11,-215,-203,105,89,-202,74,-190,8,-107,-239,-197
-11,-215,-203,105,89,-202,74,-190,8,-107,-239,-197
-11,-215,-203,105,89,-208,74,-190,8,-107,-239,-197
-11,-215,-203,105,89,-208,74,-190,2,-107,-239,-197
-11,-215,-209,105,89,-208,80,-184,2,-107,-239,-197
-11,-221,-209,111,89,-214,80,-184,2,-107,-239,-197
-11,-221,-209,111,89,-220,80,-178,2,-107,-239,-197
-17,-227,-209,111,89,-220,80,-178,2,-107,-239,-197
-23,-227,-209,117,89,-220,80,-178,2,-107,-239,-203
-23,-227,-209,123,89,-220,80,-178,2,-107,-239,-203
-23,-233,-209,123,89,-220,86,-172,2,-107,-239,-203
-23,-239,-209,123,89,-220,86,-172,2,-107,-239,-203
-23,-239,-209,123,89,-220,86,-166,2,-107,-239,-203
-17,-227,-209,117,89,-220,86,-166,2,-107,-239,-203
-11,-215,-209,117,89,-220,86,-160,2,-107,-239,-203
-11,-209,-209,111,89,-220,86,-160,2,-107,-239,-203
-11,-203,-209,105,89,-214,86,-160,2,-107,-239,-203
-11,-203,-209,105,89,-214,86,-160,2,-107,-239,-203
-11,-203,-209,105,89,-214,86,-160,2,-107,-239,-203
-11,-203,-209,105,89,-214,86,-154,2,-107,-239,-203
-11,-203,-209,105,89,-214,86,-148,2,-107,-239,-203
-11,-203,-209,105,89,-214,92,-148,2,-107,-239,-203
-11,-203,-209,105,89,-214,92,-148,2,-107,-239,-203
-11,-203,-209,105,89,-208,92,-148,2,-107,-239,-203
-11,-203,-209,105,89,-208,92,-148,2,-107,-239,-203
-11,-203,-209,105,89,-208,92,-142,2,-107,-239,-203
-11,-203,-209,105,89,-208,98,-142,2,-107,-239,-203
-11,-203,-209,105,89,-208,98,-142,2,-107,-239,-203
-11,-203,-209,105,89,-208,98,-142,2,-107,-239,-203
-11,-203,-209,105,83,-208,98,-142,2,-107,-239,-203
-17,-209,-203,111,83,-208,92,-142,2,-107,-239,-203
-23,-209,-203,117,77,-208,92,-142,2,-101,-239,-203
-29,-215,-203,117,71,-208,92,-142,2,-101,-233,-203
-35,-215,-203,123,71,-208,92,-142,2,-101,-233,-203
-35,-215,-203,123,71,-208,92,-142,2,-101,-233,-203
-35,-215,-203,123,71,-208,92,-142,2,-101,-227,-203
-35,-215,-203,123,71,-208,92,-142,2,-101,-227,-203
-35,-215,-203,123,71,-208,92,-142,2,-101,-227,-203
-35,-215,-203,123,71,-208,92,-142,2,-101,-227,-203
-35,-215,-203,123,71,-208,92,-142,2,-101,-221,-203
-35,-215,-203,117,71,-208,92,-142,2,-95,-215,-203
-35,-215,-203,117,71,-208,92,-142,2,-95,-209,-203
-35,-215,-203,117,71,-208,92,-142,2,-95,-209,-203
-29,-215,-203,117,77,-208,92,-142,2,-95,-203,-203
-23,-215,-203,117,77,-208,92,-142,2,-95,-197,-203
-23,-215,-203,117,77,-208,86,-142,2,-95,-197,-203
-23,-215,-197,117,77,-208,80,-142,-4,-95,-197,-203
-23,-215,-197,117,77,-208,74,-142,-4,-95,-197,-203
-17,-209,-197,111,77,-202,74,-142,-4,-95,-197,-197
-11,-203,-197,105,77,-196,74,-142,-4,-95,-191,-197
-11,-197,-197,99,77,-196,74,-142,-4,-95,-191,-191
-5,-185,-197,93,77,-196,74,-142,-4,-95,-191,-191
6,-173,-197,81,77,-190,74,-142,-4,-95,-191,-191
12,-167,-197,75,77,-184,74,-142,-4,-95,-191,-191
12,-167,-197,75,77,-184,74,-142,-9,-95,-191,-191
12,-167,-197,75,77,-184,74,-142,-15,-95,-191,-191
12,-167,-197,75,77,-184,74,-142,-15,-95,-191,-191
12,-173,-197,81,77,-184,74,-142,-15,-95,-191,-191
6,-179,-197,81,77,-184,74,-142,-15,-95,-191,-191
6,-179,-197,81,77,-184,74,-142,-15,-95,-191,-191
6,-185,-197,87,77,-190,68,-142,-21,-95,-191,-191
0,-191,-197,93,77,-196,62,-142,-27,-101,-197,-191
-5,-197,-197,99,77,-196,62,-142,-33,-101,-197,-191
-5,-197,-197,99,77,-196,56,-142,-39,-101,-197,-191
-5,-197,-197,99,77,-196,56,-148,-45,-101,-197,-191
-5,-203,-197,99,77,-202,56,-148,-45,-101,-197,-191
-5,-203,-203,99,83,-202,56,-148,-51,-101,-203,-191
-5,-203,-203,99,83,-202,56,-148,-51,-101,-203,-191
-11,-209,-203,99,83,-202,56,-148,-51,-107,-203,-191
-17,-215,-203,105,83,-202,50,-154,-57,-113,-209,-191
-23,-221,-203,111,83,-202,44,-154,-57,-119,-215,-191
-23,-221,-203,111,83,-202,44,-154,-63,-119,-215,-191
-23,-221,-203,111,83,-202,44,-154,-63,-119,-215,-191
-23,-221,-203,111,83,-202,44,-154,-63,-119,-215,-191
-29,-227,-203,117,83,-208,44,-154,-69,-119,-215,-191
-29,-233,-203,123,83,-214,44,-154,-69,-119,-221,-191
-29,-233,-203,123,83,-214,44,-154,-69,-119,-221,-191
-29,-233,-203,123,83,-214,44,-154,-69,-119,-221,-191
-29,-233,-203,123,83,-214,44,-154,-69,-119,-221,-191
-29,-233,-203,123,83,-214,44,-154,-69,-119,-221,-191
-29,-233,-203,123,83,-214,38,-154,-69,-119,-221,-191
-29,-233,-203,123,83,-214,38,-154,-75,-119,-221,-191
-29,-233,-203,123,83,-214,38,-154,-81,-119,-221,-191
-29,-233,-203,123,83,-214,38,-154,-81,-119,-221,-191
-23,-227,-203,123,83,-214,38,-154,-81,-119,-221,-191
-23,-227,-203,123,83,-214,38,-154,-81,-119,-221,-191
-23,-227,-203,123,83,-214,32,-154,-87,-119,-221,-191
-29,-227,-203,129,83,-214,32,-154,-93,-125,-221,-191
-29,-227,-203,129,83,-214,32,-154,-93,-125,-221,-191
-29,-227,-203,129,83,-214,32,-154,-93,-125,-221,-191
-29,-227,-203,123,83,-214,32,-154,-93,-125,-221,-191
-29,-221,-203,123,83,-214,32,-154,-93,-125,-221,-191
-29,-215,-197,123,77,-208,32,-154,-93,-125,-221,-191
-29,-209,-191,123,77,-202,38,-148,-87,-125,-221,-191
-29,-197,-179,117,77,-196,44,-148,-81,-125,-215,-185
-29,-179,-173,111,77,-184,50,-148,-69,-119,-209,-179
-29,-167,-167,105,77,-172,56,-142,-63,-113,-197,-173
-29,-155,-161,99,71,-160,62,-130,-57,-107,-191,-167
-29,-155,-155,99,65,-154,68,-118,-57,-101,-185,-161
-29,-155,-149,93,59,-148,68,-112,-51,-95,-179,-155
-23,-143,-149,81,59,-142,68,-106,-45,-89,-179,-149
-17,-137,-143,75,59,-142,68,-100,-45,-89,-179,-149
-17,-137,-137,75,53,-142,68,-94,-45,-89,-179,-149
-17,-137,-131,75,47,-136,68,-94,-45,-89,-173,-149
-17,-125,-125,75,47,-124,68,-94,-39,-83,-161,-143
-11,-107,-119,63,47,-118,68,-88,-33,-77,-149,-137
-5,-89,-113,51,47,-106,74,-88,-27,-71,-143,-131
-5,-77,-101,45,47,-94,74,-88,-21,-65,-137,-131
0,-59,-89,33,47,-70,74,-88,-21,-59,-131,-125
12,-29,-83,9,47,-58,68,-88,-15,-53,-125,-119
24,-17,-77,-3,47,-52,62,-88,-9,-47,-125,-113
30,-11,-71,-8,47,-46,50,-88,-9,-47,-125,-107
36,-5,-71,-14,47,-40,32,-100,-9,-47,-125,-101
36,-5,-71,-20,47,-40,14,-106,-9,-47,-125,-95
36,-5,-71,-20,47,-40,2,-112,-15,-47,-125,-95
36,-5,-71,-20,47,-40,-4,-118,-15,-47,-119,-95
30,-17,-71,-14,47,-46,-9,-124,-15,-47,-119,-95
24,-29,-71,-3,47,-52,-15,-130,-21,-47,-119,-95
24,-35,-71,3,47,-58,-21,-130,-27,-47,-119,-95
24,-41,-71,3,47,-58,-21,-130,-27,-47,-119,-89
24,-41,-77,3,53,-58,-21,-130,-27,-47,-119,-83
30,-41,-89,3,59,-64,-21,-130,-27,-47,-113,-83
36,-41,-101,3,65,-70,-21,-130,-27,-47,-113,-83
36,-41,-107,3,71,-76,-27,-136,-27,-47,-113,-83
42,-41,-113,3,71,-82,-27,-136,-33,-47,-113,-83
48,-41,-119,3,77,-82,-27,-136,-33,-47,-113,-83
54,-47,-119,3,77,-88,-27,-136,-39,-47,-113,-83
54,-53,-125,3,77,-94,-27,-136,-45,-53,-119,-83
54,-65,-131,9,77,-100,-33,-142,-57,-65,-125,-89
54,-77,-131,15,77,-106,-33,-142,-69,-71,-137,-95
54,-83,-137,15,77,-112,-33,-142,-75,-77,-143,-101
48,-95,-143,21,77,-118,-33,-142,-75,-83,-143,-107
30,-113,-143,39,77,-130,-33,-142,-75,-83,-143,-113
18,-125,-149,51,77,-142,-33,-142,-75,-89,-149,-119
6,-137,-155,63,77,-154,-33,-142,-81,-95,-155,-125
0,-149,-161,75,77,-166,-33,-142,-93,-107,-161,-137
-5,-161,-167,81,77,-178,-33,-142,-99,-113,-167,-143
-5,-173,-173,87,77,-184,-33,-142,-105,-119,-173,-149
-5,-185,-185,93,77,-190,-33,-148,-105,-125,-179,-155
-5,-203,-191,105,77,-196,-33,-154,-111,-137,-191,-161
-17,-215,-197,117,77,-208,-33,-160,-117,-143,-197,-167
-23,-227,-203,123,77,-214,-33,-166,-123,-149,-203,-173
-23,-233,-209,129,77,-220,-33,-166,-129,-149,-203,-173
-23,-233,-215,129,77,-226,-33,-172,-135,-155,-203,-173
-23,-233,-215,129,77,-232,-33,-172,-135,-155,-203,-173
-23,-233,-215,129,77,-232,-33,-172,-135,-155,-203,-173
-23,-233,-215,129,77,-232,-33,-172,-135,-155,-209,-173
-23,-233,-215,129,77,-232,-33,-172,-135,-155,-209,-173
-23,-233,-215,129,77,-232,-33,-172,-135,-155,-209,-173
-23,-239,-215,129,77,-232,-33,-172,-135,-161,-215,-179
-23,-239,-215,129,77,-232,-33,-172,-141,-167,-221,-185
-23,-239,-215,129,77,-232,-33,-172,-141,-173,-221,-185
-23,-239,-215,129,77,-232,-33,-172,-141,-173,-221,-185
-23,-245,-215,135,77,-232,-33,-172,-141,-179,-227,-191
-29,-257,-215,141,77,-238,-33,-172,-147,-185,-227,-191
-29,-257,-215,141,77,-244,-33,-172,-147,-185,-227,-191
-29,-257,-221,141,77,-244,-33,-172,-147,-191,-227,-191
-29,-257,-221,141,77,-244,-33,-172,-147,-191,-227,-197
-29,-257,-221,147,77,-244,-33,-172,-147,-191,-227,-197
-29,-257,-221,147,77,-244,-33,-172,-147,-191,-227,-197
-29,-257,-221,147,77,-244,-33,-172,-147,-191,-227,-197
-35,-257,-221,147,77,-244,-33,-172,-147,-191,-227,-197
-35,-257,-221,147,77,-244,-33,-172,-147,-191,-227,-197
-35,-257,-221,147,77,-244,-33,-172,-147,-191,-227,-197
-41,-257,-221,147,77,-244,-33,-172,-147,-191,-227,-197
-41,-257,-221,147,77,-244,-33,-172,-147,-191,-227,-197
-41,-251,-221,147,77,-244,-33,-172,-147,-191,-227,-197
-41,-251,-221,147,77,-244,-33,-172,-147,-191,-227,-197
-41,-263,-227,153,77,-256,-33,-172,-147,-197,-233,-203
-41,-281,-245,159,83,-274,-33,-160,-147,-203,-239,-215
-41,-323,-281,165,95,-304,-33,-130,-147,-209,-245,-227
-41,-335,-305,177,107,-322,-21,-88,-147,-215,-257,-239
-41,-335,-305,177,113,-322,20,-22,-129,-215,-257,-245
-35,-329,-305,177,113,-316,110,115,-39,-191,-257,-251
-35,-311,-299,171,113,-304,224,277,80,-137,-251,-251
-35,-281,-275,153,113,-274,344,445,212,-35,-221,-245
-29,-185,-209,111,107,-202,482,595,374,84,-119,-197
-11,-41,-89,21,71,-70,584,709,536,240,24,-71
24,114,30,-74,35,67,656,751,674,402,192,72
66,246,132,-152,5,181,674,769,764,558,366,222
108,390,246,-248,-24,313,674,763,866,750,594,420
162,582,360,-368,-60,469,632,739,980,990,864,636
270,792,462,-530,-72,637,506,673,1118,1266,1182,906
420,1014,534,-716,-72,781,326,595,1244,1566,1518,1188
558,1212,582,-890,-60,901,104,487,1358,1830,1824,1458
696,1368,612,-1034,-12,973,-159,325,1400,2034,2051,1674
804,1488,624,-1148,35,1039,-423,139,1406,2177,2255,1872
828,1632,750,-1232,35,1183,-711,-76,1406,2297,2440,2087
810,1800,1014,-1268,-108,1405,-963,-370,1322,2303,2512,2231
654,1836,1230,-1262,-294,1519,-1119,-688,1034,2141,2458,2237
486,1686,1230,-1082,-336,1471,-1167,-934,644,1662,2040,2010
324,1236,966,-776,-336,1117,-1179,-1186,104,966,1374,1512
192,822,672,-506,-300,763,-1179,-1420,-459,270,678,978
90,504,456,-302,-246,487,-1167,-1486,-807,-209,168,564
18,240,264,-128,-174,253,-1065,-1474,-903,-425,-113,258
-17,54,84,-26,-108,67,-909,-1300,-903,-485,-269,66
-35,-83,-35,45,-48,-64,-747,-1096,-867,-515,-353,-83
-47,-173,-101,105,-12,-142,-591,-892,-759,-521,-401,-197
-71,-239,-143,147,5,-190,-459,-712,-639,-521,-419,-245
-77,-263,-161,165,17,-220,-357,-556,-543,-491,-419,-263
-77,-269,-173,165,29,-226,-273,-448,-453,-443,-413,-263
-77,-269,-179,165,35,-226,-201,-358,-381,-389,-377,-263
-77,-269,-185,165,35,-226,-159,-286,-327,-347,-347,-257
-77,-269,-191,165,35,-226,-129,-238,-285,-311,-323,-251
-77,-269,-197,165,35,-226,-105,-202,-255,-287,-311,-245
-83,-275,-197,171,35,-226,-81,-178,-231,-275,-305,-245
-89,-281,-197,177,35,-232,-69,-166,-201,-263,-293,-239
-89,-281,-197,177,41,-232,-51,-154,-177,-251,-281,-233
-77,-269,-197,165,47,-232,-33,-136,-159,-239,-275,-227
-65,-263,-197,159,53,-232,-21,-112,-147,-227,-269,-221
-65,-263,-197,153,53,-232,-15,-100,-141,-221,-263,-221
-65,-263,-197,153,53,-232,-9,-94,-135,-221,-263,-221
-65,-263,-197,153,59,-232,-4,-88,-135,-215,-263,-221
-65,-263,-197,153,59,-232,2,-82,-135,-215,-263,-221
-65,-263,-197,153,59,-232,2,-76,-135,-215,-263,-221
-65,-263,-197,153,59,-232,8,-70,-135,-215,-263,-221
-65,-263,-197,153,59,-232,8,-64,-135,-215,-263,-221
-65,-263,-197,153,59,-232,8,-64,-135,-215,-263,-221
-65,-263,-197,153,59,-232,14,-64,-135,-215,-263,-221
-65,-263,-197,159,59,-232,14,-64,-135,-215,-263,-221
-71,-269,-203,165,59,-232,14,-64,-129,-215,-263,-221
-71,-269,-203,165,59,-232,14,-64,-129,-215,-263,-221
-71,-269,-203,165,59,-232,14,-58,-129,-215,-263,-221
-71,-269,-203,165,59,-232,20,-52,-123,-215,-263,-221
-71,-269,-203,171,53,-232,20,-46,-117,-215,-263,-221
-71,-269,-203,171,53,-232,20,-40,-117,-209,-263,-221
-71,-269,-203,165,53,-232,20,-34,-111,-203,-257,-221
-65,-263,-203,159,53,-232,26,-28,-105,-197,-251,-221
-59,-257,-203,153,59,-232,32,-28,-99,-191,-251,-221
-59,-257,-203,153,59,-232,32,-28,-99,-191,-245,-221
-59,-257,-203,153,59,-232,32,-28,-99,-191,-245,-221
-59,-257,-203,153,59,-232,38,-22,-99,-191,-245,-221
-53,-251,-203,147,59,-226,44,-10,-99,-191,-245,-221
-53,-251,-203,147,59,-226,44,-10,-99,-191,-245,-221
-53,-251,-203,147,59,-226,44,-10,-99,-191,-245,-221
-53,-251,-203,147,59,-226,44,-10,-99,-191,-245,-221
-47,-251,-203,141,65,-226,50,-5,-93,-185,-239,-221
-35,-245,-203,135,71,-226,50,1,-87,-179,-233,-221
-35,-245,-203,135,71,-226,50,7,-81,-179,-227,-221
-41,-245,-203,141,71,-226,50,13,-75,-179,-227,-221
-53,-245,-203,147,65,-226,50,13,-75,-179,-227,-221
-53,-245,-203,153,65,-226,50,19,-69,-173,-227,-221
-53,-245,-203,153,65,-226,50,19,-69,-173,-227,-215
-53,-245,-203,147,65,-226,56,25,-69,-173,-221,-215
-47,-245,-203,141,65,-226,62,25,-69,-173,-221,-215
-47,-245,-203,141,65,-226,68,25,-69,-173,-221,-215
-47,-245,-197,141,59,-226,68,25,-69,-173,-221,-215
-53,-245,-197,141,59,-226,68,25,-69,-173,-221,-215
-53,-245,-197,141,59,-226,68,25,-69,-173,-221,-215
-53,-245,-197,141,59,-226,74,31,-63,-167,-221,-215
-53,-245,-197,141,59,-226,80,37,-57,-161,-215,-215
-53,-245,-197,141,59,-226,80,43,-51,-155,-215,-215
-53,-245,-197,141,59,-226,80,49,-45,-155,-215,-215
-53,-245,-197,141,59,-226,80,49,-45,-155,-215,-215
-47,-239,-197,135,59,-226,80,55,-39,-155,-215,-215
-35,-221,-197,123,65,-220,86,61,-33,-149,-209,-209
-29,-215,-197,117,65,-214,92,67,-33,-149,-203,-203
-29,-215,-197,117,65,-214,92,73,-33,-149,-203,-203
-29,-215,-197,117,65,-214,92,79,-33,-149,-203,-197
-29,-215,-191,117,65,-214,98,85,-27,-143,-203,-197
-29,-215,-191,117,65,-208,98,85,-21,-137,-203,-197
-29,-215,-191,117,65,-208,104,91,-15,-131,-197,-197
-29,-215,-191,117,65,-208,110,97,-9,-131,-197,-197
-29,-215,-191,117,65,-208,110,103,-4,-131,-197,-191
-29,-215,-191,117,65,-208,110,109,-4,-131,-197,-191
-29,-215,-185,117,65,-208,116,115,2,-131,-197,-191
-29,-209,-179,117,65,-202,122,127,8,-125,-191,-191
-29,-203,-179,117,65,-196,128,133,14,-125,-191,-191
-29,-203,-179,117,65,-190,134,139,20,-119,-191,-191
-23,-197,-179,111,65,-190,140,145,32,-113,-185,-185
-17,-191,-173,105,65,-184,146,151,38,-101,-179,-179
-17,-191,-167,105,65,-184,146,157,44,-95,-173,-173
-23,-191,-161,105,59,-178,146,163,50,-89,-167,-173
-23,-191,-155,105,59,-172,146,175,56,-83,-161,-173
-23,-185,-155,105,59,-166,146,187,68,-77,-155,-167
-23,-179,-149,105,59,-166,152,193,74,-71,-149,-161
-23,-179,-149,105,59,-166,152,205,86,-65,-137,-155
-23,-179,-149,105,59,-160,152,211,92,-59,-131,-149
-23,-173,-143,105,59,-154,158,223,98,-53,-125,-143
-23,-161,-137,99,59,-148,164,235,110,-41,-113,-137
-11,-131,-137,87,59,-136,176,247,122,-23,-101,-125
-11,-125,-131,75,59,-130,176,253,128,-11,-89,-113
-11,-125,-125,75,53,-130,176,259,134,-5,-83,-107
-11,-125,-119,69,47,-124,176,265,140,0,-77,-101
-5,-113,-113,57,47,-118,176,271,152,12,-65,-89
0,-101,-107,45,47,-106,176,277,164,24,-53,-83
6,-89,-101,39,47,-94,176,283,176,36,-41,-77
12,-59,-89,27,47,-70,176,283,188,48,-29,-65
12,-47,-77,15,41,-58,176,289,200,60,-11,-53
18,-29,-65,3,41,-46,176,295,212,72,0,-35
24,-17,-65,-8,41,-40,176,301,218,84,18,-17
30,-5,-65,-20,41,-34,176,301,224,96,30,-5
30,-5,-59,-26,41,-28,170,301,230,108,36,0
30,0,-53,-26,41,-22,164,301,236,120,48,12
36,12,-41,-32,41,-10,164,307,248,138,72,24
48,24,-35,-38,41,-4,164,313,254,156,90,42
48,30,-29,-38,41,1,164,313,266,168,102,48
48,36,-23,-38,35,7,158,313,266,174,108,54
48,48,-11,-44,29,19,152,313,272,180,120,66
54,66,-5,-56,29,31,152,313,278,192,132,78
60,78,0,-74,29,43,152,313,284,204,144,90
72,90,6,-92,29,55,146,313,290,216,156,102
84,114,12,-104,29,67,140,313,290,228,162,108
90,126,18,-116,29,79,134,313,296,234,174,120
96,138,24,-122,29,91,128,313,296,240,186,126
96,144,30,-122,29,97,128,307,296,252,192,132
96,144,36,-122,29,97,128,301,296,258,204,138
96,150,36,-122,29,97,122,295,296,264,210,150
96,150,42,-122,29,97,110,283,296,264,216,150
90,150,42,-122,23,97,104,271,296,264,216,150
90,150,48,-122,17,97,98,265,296,264,216,150
84,150,54,-122,11,97,92,259,296,264,216,156
84,156,60,-122,5,103,86,253,296,270,222,162
84,162,66,-128,5,109,86,253,296,276,228,174
90,162,66,-134,5,115,86,247,296,282,234,186
90,162,66,-134,5,115,86,241,296,282,234,192
90,162,66,-134,5,115,80,235,296,282,234,192
90,162,66,-134,5,115,74,229,296,282,234,192
90,168,66,-134,5,121,74,223,296,282,234,198
90,174,72,-134,5,127,74,223,296,282,240,204
90,174,72,-134,5,127,74,223,296,282,240,204
84,168,72,-128,5,127,68,217,296,282,240,204
72,156,72,-116,-1,121,68,205,290,282,240,204
72,156,72,-116,-1,115,68,199,284,276,240,204
72,156,72,-116,-1,115,68,193,278,270,240,204
78,156,72,-122,-1,115,68,181,272,270,234,204
78,156,72,-122,-1,115,68,175,266,258,228,204
78,156,66,-122,-1,115,68,169,260,246,216,198
78,150,60,-122,-1,115,68,163,248,234,210,192
78,150,60,-122,-1,109,68,157,242,228,204,186
78,150,60,-122,-1,109,68,151,236,216,198,180
78,150,60,-122,-1,109,68,145,230,204,192,174
78,144,54,-122,-1,103,62,133,218,192,186,156
78,132,48,-110,-1,91,56,121,194,168,168,138
72,102,42,-98,-1,79,56,97,176,156,144,126
60,84,36,-80,-1,67,50,85,152,144,132,114
54,72,30,-68,-1,55,50,73,140,120,120,108
48,66,24,-62,-1,49,50,67,134,108,108,102
48,60,12,-56,-1,37,50,61,122,96,96,96
48,48,0,-50,-1,25,44,49,110,84,84,84
42,42,-5,-44,-1,19,44,37,98,72,72,72
42,30,-11,-38,-1,7,44,31,92,60,66,60
42,24,-17,-32,-1,1,38,19,80,48,54,48
36,12,-17,-26,-1,-4,32,7,62,36,36,36
24,0,-17,-14,-1,-10,26,-16,44,12,18,24
24,-5,-23,-14,-1,-16,20,-28,32,-5,6,12
24,-5,-29,-14,5,-16,20,-34,20,-17,-5,0
24,-11,-35,-14,11,-22,14,-40,8,-29,-23,-11
18,-17,-35,-8,11,-22,14,-46,-4,-47,-35,-23
12,-23,-41,-3,11,-28,14,-52,-9,-59,-47,-29
6,-29,-47,3,11,-34,14,-58,-15,-71,-53,-41
6,-35,-53,9,11,-40,14,-64,-21,-77,-59,-47
6,-41,-59,9,11,-46,8,-70,-33,-83,-65,-53
6,-53,-59,15,11,-52,8,-70,-39,-83,-71,-65
0,-59,-65,21,11,-58,8,-70,-45,-83,-71,-71
-5,-71,-65,33,11,-64,8,-70,-45,-83,-77,-77
-17,-77,-65,45,11,-70,8,-76,-51,-89,-83,-77
-23,-83,-65,51,11,-70,8,-82,-57,-95,-89,-83
-29,-95,-65,57,11,-76,2,-82,-63,-107,-95,-83
-35,-101,-65,63,11,-76,2,-82,-69,-119,-101,-83
-41,-107,-65,69,11,-76,2,-82,-75,-125,-101,-83
-41,-113,-65,69,11,-76,2,-88,-81,-125,-101,-83
-41,-113,-65,69,11,-76,2,-88,-81,-125,-107,-83
-41,-113,-65,69,11,-76,2,-88,-81,-125,-113,-83
-41,-113,-65,69,11,-76,2,-88,-81,-125,-113,-83
-35,-113,-65,69,11,-76,2,-88,-81,-125,-113,-83
-35,-113,-65,69,11,-76,2,-88,-81,-125,-113,-83
-29,-107,-65,63,17,-76,2,-88,-81,-125,-113,-83
-23,-95,-65,57,17,-76,2,-88,-81,-125,-113,-83
-23,-89,-65,51,17,-76,2,-88,-81,-125,-113,-83
-23,-83,-65,51,17,-76,2,-88,-81,-125,-113,-83
-23,-83,-65,51,17,-76,2,-88,-81,-125,-113,-83
-23,-83,-65,51,17,-76,2,-88,-81,-125,-113,-83
-23,-83,-65,51,17,-76,2,-88,-81,-131,-113,-89
-23,-83,-65,51,17,-76,2,-82,-81,-137,-113,-89
-23,-83,-65,51,17,-76,2,-76,-81,-137,-113,-95
-29,-89,-65,57,17,-76,2,-70,-81,-137,-113,-95
-35,-95,-65,63,17,-76,2,-64,-81,-137,-113,-95
-35,-101,-65,69,17,-76,2,-58,-81,-143,-113,-95
-35,-113,-65,75,17,-82,8,-52,-81,-143,-113,-95
-35,-119,-71,75,17,-88,8,-46,-81,-143,-113,-101
-35,-125,-77,75,17,-94,14,-40,-81,-143,-113,-101
-35,-125,-77,75,17,-94,14,-34,-81,-143,-113,-101
-41,-125,-77,75,17,-94,14,-34,-81,-143,-113,-101
-41,-125,-77,75,17,-94,14,-28,-81,-143,-113,-101
-41,-125,-77,75,17,-94,14,-22,-81,-143,-113,-101
-47,-125,-77,75,17,-94,14,-22,-81,-143,-113,-107
-53,-125,-77,81,17,-94,14,-22,-81,-143,-113,-113
-59,-125,-77,87,11,-94,14,-22,-81,-143,-113,-119
-65,-125,-77,87,11,-94,14,-16,-81,-143,-113,-125
-65,-125,-77,87,11,-94,20,-16,-81,-143,-113,-125
-65,-125,-77,87,11,-94,20,-10,-81,-143,-113,-125
-65,-125,-77,87,11,-94,20,-10,-81,-143,-113,-125
-65,-125,-77,87,11,-94,20,-5,-81,-143,-113,-125
-65,-125,-77,87,11,-94,26,-5,-81,-143,-113,-125
-59,-125,-77,81,11,-94,32,1,-81,-143,-113,-125
-47,-119,-77,75,17,-94,38,1,-81,-143,-113,-125
-35,-113,-77,69,17,-94,38,1,-81,-143,-113,-125
-29,-107,-77,63,17,-94,38,1,-81,-143,-113,-125
-29,-107,-77,63,17,-94,38,1,-75,-143,-113,-125
-29,-107,-77,63,17,-88,38,1,-69,-143,-113,-125
-29,-107,-77,63,17,-88,38,1,-69,-143,-113,-125
-29,-107,-77,63,17,-88,38,1,-69,-143,-113,-125
-29,-107,-77,63,17,-88,38,1,-69,-143,-113,-125
-29,-107,-77,63,17,-88,38,1,-69,-143,-113,-125
-29,-107,-77,63,17,-88,38,1,-69,-143,-113,-125
-29,-101,-77,63,17,-82,38,1,-69,-143,-113,-125
-29,-101,-77,63,17,-82,38,1,-69,-137,-113,-125
-29,-101,-77,63,17,-82,38,1,-69,-137,-113,-125
-29,-101,-77,63,17,-82,38,1,-69,-137,-113,-125
-29,-101,-77,63,17,-82,38,1,-69,-137,-113,-125
-29,-101,-77,63,17,-82,38,1,-69,-137,-113,-125
-29,-101,-77,63,17,-82,38,-5,-69,-137,-113,-125
-29,-101,-77,63,17,-82,38,-5,-69,-137,-113,-125
-29,-101,-77,63,17,-82,38,-10,-69,-137,-113,-125
-29,-101,-77,63,17,-82,38,-16,-69,-137,-113,-125
-29,-101,-77,63,17,-82,38,-22,-69,-143,-113,-125
-29,-101,-77,63,17,-82,38,-28,-69,-143,-113,-125
-29,-113,-77,69,17,-88,38,-40,-69,-143,-113,-125
-35,-119,-77,69,17,-88,38,-70,-69,-143,-113,-125
-35,-119,-77,69,17,-88,38,-82,-69,-143,-113,-125
-35,-119,-77,69,23,-88,38,-94,-69,-143,-113,-125
-35,-119,-77,69,23,-88,38,-106,-69,-143,-113,-125
-35,-119,-77,69,23,-88,38,-112,-69,-143,-113,-125
-35,-119,-77,69,23,-88,38,-118,-69,-143,-113,-125
-35,-119,-77,69,23,-88,38,-118,-69,-143,-113,-125
-35,-119,-77,69,23,-88,38,-118,-75,-143,-113,-125
-35,-119,-77,69,23,-88,38,-118,-75,-143,-113,-125
-35,-119,-77,69,23,-88,38,-118,-75,-143,-113,-125
-35,-119,-77,69,23,-88,38,-118,-81,-143,-113,-125
-35,-119,-77,69,23,-88,38,-124,-81,-149,-119,-125
-41,-119,-77,69,23,-88,32,-130,-87,-155,-125,-125
-41,-119,-77,69,23,-88,32,-130,-93,-155,-125,-131
-41,-119,-77,69,23,-88,26,-130,-93,-155,-125,-131
-41,-125,-77,75,23,-94,26,-130,-99,-161,-131,-131
-47,-131,-77,81,23,-100,20,-136,-99,-173,-137,-131
-53,-137,-77,87,23,-100,20,-142,-105,-179,-143,-131
-59,-143,-77,93,23,-106,20,-142,-105,-185,-149,-131
-65,-155,-77,105,23,-112,20,-142,-111,-185,-149,-131
-71,-161,-77,111,23,-112,20,-142,-117,-191,-155,-131
-71,-161,-77,111,23,-112,20,-142,-117,-191,-155,-131
-59,-149,-77,99,29,-112,20,-142,-117,-191,-155,-131
-23,-119,-77,57,35,-106,20,-142,-117,-185,-149,-125
-11,-113,-77,51,41,-106,20,-142,-117,-185,-143,-125
-11,-113,-77,51,41,-106,20,-142,-117,-185,-143,-125
-11,-113,-77,51,41,-106,20,-142,-117,-185,-143,-125
-11,-113,-77,51,41,-106,20,-142,-117,-185,-143,-125
-11,-113,-77,51,41,-106,20,-142,-117,-185,-143,-125
-11,-113,-77,51,41,-100,20,-142,-117,-185,-143,-125
-11,-113,-77,51,41,-100,20,-142,-117,-185,-143,-125
-11,-113,-83,51,41,-100,20,-142,-117,-185,-143,-125
-11,-113,-83,51,41,-100,20,-142,-117,-185,-143,-125
-17,-119,-83,57,41,-106,20,-142,-123,-185,-143,-125
-17,-119,-83,57,41,-106,20,-142,-123,-185,-143,-125
-17,-119,-83,57,41,-106,20,-142,-123,-185,-143,-125
-17,-119,-83,57,41,-106,20,-142,-123,-185,-143,-125
-17,-125,-83,63,41,-106,20,-142,-123,-185,-143,-125
-17,-125,-89,63,41,-106,20,-142,-123,-185,-143,-125
-17,-125,-95,63,41,-106,20,-142,-123,-185,-143,-125
-17,-131,-95,69,41,-112,20,-142,-123,-185,-143,-125
-17,-137,-95,69,41,-118,20,-142,-123,-185,-143,-125
-23,-137,-95,69,41,-118,20,-142,-123,-185,-143,-125
-23,-137,-95,69,41,-118,26,-142,-123,-185,-143,-125
-23,-137,-95,69,41,-118,26,-142,-123,-185,-143,-125
-23,-137,-95,69,41,-118,32,-142,-123,-185,-143,-125
-23,-131,-95,69,41,-112,38,-142,-123,-179,-143,-125
-23,-125,-83,69,35,-100,44,-136,-117,-173,-137,-125
-23,-107,-59,63,23,-76,50,-124,-111,-167,-131,-125
-23,-95,-47,63,17,-64,56,-118,-105,-161,-131,-125
-23,-89,-41,63,17,-58,62,-112,-99,-155,-125,-125
-23,-83,-41,57,17,-58,68,-106,-93,-149,-119,-119
-23,-71,-41,45,17,-52,74,-100,-87,-143,-113,-107
-23,-65,-41,39,17,-46,80,-94,-81,-137,-107,-95
-23,-59,-41,33,17,-46,86,-88,-75,-131,-101,-89
-23,-47,-35,27,17,-40,86,-82,-69,-125,-101,-83
-23,-41,-29,21,17,-34,86,-76,-69,-119,-95,-83
-23,-35,-23,21,11,-28,86,-76,-63,-119,-95,-83
-23,-35,-17,21,5,-28,86,-76,-63,-119,-95,-83
-17,-23,-11,15,5,-16,86,-76,-57,-113,-89,-77
-11,-17,-5,9,5,-4,86,-76,-57,-107,-83,-71
-11,-11,0,9,5,1,80,-76,-57,-101,-77,-71
-11,-5,6,9,5,1,74,-76,-57,-101,-77,-71
-11,6,18,3,-1,7,62,-76,-57,-101,-71,-65
-11,18,30,-3,-6,19,56,-76,-57,-95,-71,-59
-11,30,36,-14,-6,25,50,-76,-57,-95,-71,-53
-5,36,36,-20,-6,31,44,-82,-57,-95,-71,-47
0,36,36,-26,-6,31,38,-88,-57,-95,-71,-41
12,42,30,-38,-1,31,32,-88,-57,-95,-65,-41
54,54,18,-62,11,37,26,-88,-57,-95,-59,-35
72,66,12,-74,23,43,26,-88,-57,-95,-59,-29
78,72,12,-80,29,43,26,-88,-57,-95,-59,-23
78,72,6,-80,29,43,26,-88,-57,-95,-59,-23
72,66,0,-74,35,31,26,-88,-57,-95,-59,-23
72,54,-23,-68,47,13,26,-94,-57,-95,-59,-23
72,30,-41,-62,59,-4,20,-100,-57,-95,-59,-23
72,18,-53,-56,65,-16,8,-100,-63,-95,-59,-23
72,12,-59,-56,71,-22,2,-100,-63,-95,-59,-23
72,6,-65,-50,71,-28,-4,-100,-63,-95,-59,-23
66,0,-65,-44,71,-28,-9,-100,-69,-101,-59,-29
60,-5,-65,-38,71,-34,-15,-106,-75,-107,-65,-29
54,-11,-71,-32,71,-40,-21,-112,-81,-113,-71,-29
54,-17,-71,-26,71,-46,-21,-118,-87,-119,-77,-35
54,-23,-71,-20,71,-52,-21,-118,-93,-119,-77,-35
42,-35,-77,-8,71,-58,-21,-118,-93,-119,-83,-41
30,-65,-77,15,65,-70,-21,-118,-93,-119,-89,-47
18,-77,-77,27,59,-76,-21,-118,-99,-125,-95,-59
12,-83,-83,33,59,-82,-21,-118,-99,-131,-101,-71
12,-95,-89,39,59,-88,-21,-118,-99,-137,-107,-77
0,-107,-95,45,59,-100,-27,-118,-105,-143,-119,-89
-11,-119,-101,57,59,-106,-27,-124,-111,-155,-125,-101
-11,-125,-101,57,59,-106,-33,-124,-117,-161,-131,-107
-11,-125,-107,57,59,-106,-33,-124,-117,-167,-131,-107
-11,-131,-113,57,59,-118,-39,-124,-123,-173,-137,-113
-11,-149,-125,69,59,-136,-45,-124,-129,-179,-149,-119
-11,-155,-137,75,59,-142,-51,-124,-135,-185,-155,-125
-11,-161,-137,81,59,-148,-51,-124,-141,-191,-161,-125
-17,-173,-137,93,59,-154,-57,-130,-147,-197,-167,-131
-29,-185,-143,105,59,-160,-57,-136,-153,-197,-167,-137
-35,-191,-149,111,59,-166,-57,-136,-153,-197,-167,-137
-35,-191,-149,111,59,-166,-57,-136,-153,-197,-167,-137
-35,-197,-149,111,59,-166,-63,-136,-153,-197,-167,-137
-35,-197,-155,111,59,-172,-63,-136,-159,-197,-167,-143
-35,-197,-155,105,59,-172,-63,-136,-159,-197,-167,-143
-35,-191,-155,99,59,-172,-63,-136,-159,-197,-167,-143
-29,-185,-155,93,59,-172,-63,-136,-159,-197,-167,-143
-29,-185,-155,93,59,-172,-63,-136,-159,-197,-167,-143
-29,-185,-155,93,59,-172,-63,-136,-159,-197,-167,-143
-29,-185,-155,93,59,-172,-63,-136,-159,-197,-167,-143
-29,-185,-155,93,59,-172,-69,-136,-159,-197,-167,-143
-29,-185,-155,93,59,-172,-75,-136,-159,-197,-167,-143
-35,-185,-155,99,59,-172,-75,-136,-159,-197,-167,-143
-41,-191,-155,105,59,-172,-81,-136,-159,-197,-167,-143
-47,-191,-155,111,59,-172,-81,-136,-159,-197,-167,-143
-47,-191,-155,117,53,-172,-87,-136,-159,-197,-167,-143
-53,-191,-155,117,47,-172,-87,-136,-159,-197,-167,-143
-53,-191,-155,117,47,-172,-87,-136,-159,-197,-167,-143
-53,-191,-155,117,47,-172,-87,-136,-159,-197,-173,-143
-53,-191,-155,117,47,-172,-87,-136,-159,-197,-173,-143
-53,-191,-155,117,47,-172,-87,-136,-159,-197,-173,-143
-53,-197,-161,117,53,-178,-87,-136,-159,-197,-173,-143
-53,-209,-173,123,59,-190,-87,-130,-159,-197,-185,-149
-53,-233,-191,129,65,-202,-87,-118,-159,-197,-191,-161
-53,-245,-203,135,71,-220,-81,-94,-159,-197,-197,-173
-53,-257,-209,141,77,-226,-69,-52,-153,-197,-203,-191
-59,-269,-209,153,77,-232,-33,25,-123,-197,-209,-203
-71,-275,-209,159,77,-232,56,157,-51,-185,-209,-215
-71,-263,-203,159,71,-232,188,337,74,-149,-203,-215
-53,-185,-173,111,71,-190,320,517,224,-53,-161,-209
-23,-59,-95,27,59,-82,446,673,380,84,-35,-143
-5,60,12,-44,29,37,548,775,542,240,108,-5
24,192,120,-122,-1,145,632,847,692,408,270,126
90,324,204,-224,-18,277,662,865,818,588,462,306
156,480,282,-314,-36,397,662,865,938,792,708,498
240,666,378,-458,-42,535,632,859,1076,1032,972,732
384,882,456,-644,-42,673,500,823,1220,1296,1272,990
528,1110,516,-818,-24,823,302,745,1340,1566,1572,1242
672,1296,558,-992,17,919,44,607,1418,1782,1824,1482
804,1428,576,-1130,65,991,-225,439,1436,1926,2016,1662
888,1542,588,-1226,107,1051,-513,229,1436,2040,2195,1866
894,1686,750,-1292,89,1219,-813,-40,1394,2117,2351,2063
840,1818,1032,-1310,-102,1423,-1053,-364,1220,2117,2375,2177
654,1818,1146,-1274,-264,1471,-1185,-676,914,1860,2261,2171
504,1554,1110,-1040,-276,1339,-1215,-916,506,1356,1788,1842
348,1122,834,-740,-270,991,-1227,-1192,-33,696,1140,1332
180,720,588,-452,-240,661,-1227,-1408,-525,84,522,852
66,414,396,-254,-210,391,-1179,-1426,-777,-287,102,468
6,198,222,-104,-162,211,-1047,-1372,-831,-437,-113,228
-35,30,96,-8,-120,55,-903,-1174,-831,-497,-245,36
-59,-71,0,51,-78,-40,-741,-982,-807,-521,-329,-101
-71,-143,-47,93,-54,-106,-609,-790,-711,-527,-365,-185
-83,-185,-77,123,-42,-136,-483,-634,-603,-521,-371,-227
-89,-209,-101,135,-30,-148,-399,-502,-501,-479,-365,-233
-89,-215,-113,141,-18,-160,-321,-406,-423,-425,-341,-233
-89,-215,-113,141,-6,-160,-261,-310,-357,-377,-311,-227
-89,-215,-113,141,-1,-160,-207,-244,-315,-341,-281,-221
-89,-215,-119,141,5,-160,-165,-190,-267,-311,-269,-215
-89,-215,-125,141,11,-166,-135,-148,-231,-293,-251,-209
-89,-215,-131,141,11,-172,-123,-118,-207,-281,-245,-203
-89,-215,-131,141,11,-172,-111,-106,-195,-275,-245,-203
-89,-215,-131,141,11,-172,-105,-94,-183,-269,-239,-203
-89,-215,-131,141,11,-172,-93,-88,-177,-263,-233,-203
-89,-215,-131,141,11,-172,-87,-82,-171,-257,-233,-203
-89,-221,-131,141,11,-172,-87,-82,-171,-257,-233,-203
-89,-227,-131,147,11,-172,-81,-82,-165,-251,-233,-203
-89,-227,-131,147,11,-172,-75,-76,-159,-245,-227,-203
-89,-227,-131,147,11,-172,-63,-64,-153,-239,-227,-197
-89,-227,-131,147,11,-172,-57,-58,-153,-239,-227,-197
-89,-227,-131,147,11,-172,-57,-58,-153,-239,-227,-197
-89,-227,-131,147,17,-172,-51,-58,-147,-239,-227,-197
-77,-215,-131,135,23,-172,-51,-52,-141,-233,-227,-197
-71,-209,-131,129,29,-172,-45,-46,-141,-233,-227,-197
-65,-209,-131,129,29,-172,-45,-40,-141,-233,-227,-197
-65,-209,-131,129,29,-172,-45,-40,-141,-227,-221,-197
-65,-209,-131,129,29,-172,-45,-40,-135,-221,-221,-197
-65,-209,-131,129,29,-172,-45,-34,-135,-215,-221,-197
-65,-209,-131,129,29,-172,-45,-34,-135,-215,-221,-197
-65,-209,-131,129,29,-172,-39,-34,-135,-215,-221,-197
-65,-209,-131,129,29,-172,-39,-28,-129,-215,-221,-197
-65,-209,-131,129,29,-172,-39,-22,-129,-215,-221,-197
-59,-209,-137,123,35,-172,-33,-10,-123,-209,-215,-191
-59,-209,-137,123,35,-172,-27,-5,-123,-209,-215,-191
-65,-221,-137,135,35,-178,-27,1,-123,-209,-215,-191
-71,-227,-143,141,35,-184,-27,1,-123,-209,-215,-191
-77,-227,-143,141,35,-184,-21,1,-123,-209,-209,-191
-77,-227,-143,147,35,-184,-15,1,-123,-209,-209,-191
-77,-227,-143,147,35,-184,-9,7,-123,-203,-209,-191
-71,-215,-143,141,35,-178,-4,13,-117,-197,-203,-191
-65,-203,-143,129,35,-178,-4,19,-111,-197,-203,-191
-65,-203,-143,129,35,-178,-4,25,-111,-197,-203,-191
-65,-203,-143,129,35,-178,-4,25,-111,-197,-203,-191
-65,-203,-143,123,35,-172,-4,25,-111,-197,-197,-191
-65,-203,-137,123,35,-166,2,25,-111,-197,-197,-191
-65,-203,-137,123,35,-166,2,25,-111,-197,-197,-191
-65,-203,-137,123,35,-166,2,25,-105,-197,-197,-191
-65,-203,-137,123,35,-166,2,25,-99,-191,-197,-191
-65,-203,-137,123,35,-166,8,25,-99,-185,-197,-191
-65,-203,-137,123,35,-166,8,25,-99,-179,-191,-191
-65,-203,-137,123,35,-166,14,25,-99,-179,-191,-191
-65,-209,-137,123,35,-166,14,25,-99,-179,-191,-191
-65,-209,-137,123,35,-166,14,25,-99,-179,-191,-191
-65,-209,-137,123,35,-166,20,25,-93,-173,-185,-191
-65,-209,-137,123,35,-166,26,31,-87,-167,-179,-185
-59,-203,-137,123,35,-166,32,37,-87,-161,-179,-179
-53,-197,-137,117,35,-166,32,37,-81,-155,-179,-179
-53,-197,-137,117,35,-166,32,43,-81,-155,-179,-179
-53,-197,-137,117,35,-166,32,43,-81,-155,-179,-179
-53,-197,-137,117,35,-166,32,43,-75,-155,-179,-179
-53,-191,-137,111,35,-166,32,43,-69,-155,-179,-179
-53,-185,-137,105,35,-166,32,49,-69,-149,-179,-179
-53,-179,-137,105,35,-160,38,55,-63,-149,-179,-179
-47,-173,-137,99,35,-154,50,55,-63,-143,-173,-179
-47,-173,-137,93,35,-154,56,55,-63,-137,-173,-179
-47,-173,-137,93,35,-154,56,55,-63,-137,-167,-179
-47,-173,-137,99,35,-154,56,61,-57,-137,-167,-179
-47,-173,-137,99,35,-154,56,67,-51,-131,-161,-179
-47,-167,-131,93,35,-148,62,79,-45,-125,-161,-179
-47,-161,-131,93,35,-142,62,85,-39,-119,-155,-173
-47,-161,-131,93,35,-142,62,91,-33,-119,-155,-173
-53,-161,-131,93,35,-142,62,97,-33,-119,-155,-167
-53,-161,-131,93,35,-142,62,103,-33,-119,-155,-167
-47,-161,-131,93,35,-142,68,103,-27,-119,-149,-167
-41,-155,-131,87,35,-136,74,109,-21,-119,-149,-167
-41,-155,-125,87,35,-136,80,115,-21,-119,-149,-167
-41,-155,-119,87,35,-136,86,121,-15,-113,-143,-167
-41,-155,-113,87,35,-130,86,133,-9,-101,-137,-161
-41,-143,-107,81,35,-124,92,145,2,-83,-131,-155
-41,-137,-107,75,35,-118,98,157,14,-71,-119,-143
-41,-137,-107,75,35,-112,104,163,26,-65,-113,-131
-41,-137,-107,75,35,-106,104,175,32,-59,-107,-125
-41,-137,-107,75,35,-100,104,181,38,-53,-101,-119
-41,-131,-101,75,35,-100,104,187,44,-47,-95,-113
-41,-125,-95,69,35,-100,110,199,50,-41,-89,-107
-41,-119,-89,69,35,-100,110,199,56,-35,-83,-107
-41,-113,-83,69,35,-94,110,205,62,-29,-77,-107
-35,-95,-77,63,35,-82,110,211,68,-17,-65,-101
-23,-65,-65,39,35,-70,116,223,80,0,-47,-89
-11,-47,-59,27,35,-52,116,235,92,12,-35,-77
0,-35,-47,15,35,-40,116,241,104,24,-23,-65
6,-23,-41,3,35,-28,116,247,116,30,-11,-53
12,-17,-35,-3,35,-16,122,253,128,42,-5,-47
12,-11,-29,-8,35,-10,122,253,140,54,0,-41
18,6,-17,-20,35,1,122,259,146,66,12,-29
24,24,-11,-32,35,13,122,265,152,78,24,-17
30,30,-5,-38,35,13,122,271,158,90,36,-5
30,30,-5,-38,35,13,122,271,164,96,48,6
30,30,0,-38,29,13,116,271,170,108,60,18
30,30,0,-38,29,19,110,271,176,120,72,30
30,42,6,-38,29,25,110,271,182,132,84,42
30,54,12,-50,29,37,110,271,188,144,96,54
36,66,18,-62,29,49,110,271,194,156,108,66
42,78,30,-74,29,61,104,271,200,168,120,72
48,84,36,-86,29,67,98,271,200,174,132,78
54,96,36,-98,29,73,98,271,200,180,138,90
66,114,36,-110,29,79,92,271,206,192,150,102
78,126,42,-122,29,85,86,271,212,204,162,114
84,138,48,-128,23,91,86,271,218,216,174,120
84,144,54,-128,23,103,80,271,218,222,186,126
84,150,60,-128,17,109,74,271,218,228,192,132
84,150,60,-128,17,109,68,271,218,234,198,138
90,150,60,-134,17,115,62,265,218,240,204,144
96,156,66,-140,17,121,56,259,218,246,210,150
96,162,72,-140,11,127,50,253,218,246,216,156
90,162,78,-140,5,133,44,247,218,246,216,162
90,168,84,-140,5,133,38,241,218,246,222,168
90,180,90,-146,5,139,38,235,218,252,228,174
96,192,90,-152,5,151,38,229,218,258,234,180
96,204,90,-158,5,157,38,223,218,258,240,186
96,210,90,-158,5,157,38,217,218,258,240,186
96,210,90,-158,5,157,38,211,218,258,240,186
96,210,90,-158,5,157,38,211,218,258,240,192
96,210,90,-158,5,157,38,205,218,258,240,192
96,210,90,-158,5,157,38,199,218,258,240,192
96,210,90,-158,5,157,38,193,218,258,240,192
96,210,90,-158,5,157,38,193,218,258,240,192
96,210,90,-158,5,157,38,187,218,258,240,192
96,210,90,-158,5,157,38,181,212,258,240,192
96,210,90,-158,5,157,38,175,206,252,240,192
96,210,90,-158,5,157,38,169,200,252,240,192
96,210,90,-158,5,157,38,163,194,246,234,192
96,210,90,-158,5,157,38,157,188,240,228,186
96,210,90,-158,5,157,32,145,176,228,216,174
96,204,90,-158,5,157,26,127,164,216,198,162
96,198,90,-158,5,157,20,115,152,204,186,150
96,192,90,-152,5,151,20,109,140,192,174,144
90,180,90,-146,5,139,20,103,128,180,162,132
84,162,84,-134,5,127,20,91,116,174,156,126
78,138,78,-116,5,115,20,79,104,162,144,120
66,114,72,-104,5,103,14,67,92,150,132,108
54,102,66,-86,5,97,8,55,80,132,120,96
42,90,66,-74,5,85,2,43,68,120,108,84
36,90,66,-68,5,85,-4,31,56,102,90,72
36,84,60,-68,5,85,-4,19,32,78,78,66
36,72,54,-62,5,73,-9,13,20,60,60,60
30,48,36,-50,5,43,-9,7,8,48,42,54
18,24,30,-26,5,31,-9,1,-9,36,30,42
12,12,24,-20,5,19,-15,-5,-21,24,18,30
12,6,12,-20,5,13,-15,-10,-33,12,6,18
12,6,6,-20,5,7,-21,-16,-39,0,0,6
12,6,0,-20,5,7,-21,-16,-45,-5,-5,0
12,6,-5,-20,5,7,-21,-16,-51,-11,-11,-5
12,0,-11,-14,5,1,-21,-22,-57,-23,-23,-11
6,-17,-11,-3,5,-10,-21,-28,-69,-35,-35,-23
0,-29,-11,3,5,-16,-21,-34,-81,-47,-47,-29
-5,-29,-11,9,5,-16,-21,-40,-93,-59,-59,-41
-5,-29,-11,9,5,-22,-21,-40,-105,-65,-71,-47
-5,-35,-11,15,5,-22,-21,-40,-111,-71,-77,-53
-17,-47,-11,21,5,-28,-21,-40,-123,-77,-83,-59
-23,-53,-17,27,5,-34,-21,-40,-129,-83,-89,-65
-23,-53,-17,27,5,-34,-21,-40,-135,-83,-89,-71
-23,-53,-17,27,5,-34,-21,-40,-135,-83,-89,-71
-23,-53,-17,27,5,-34,-21,-40,-135,-83,-95,-71
-23,-53,-23,27,5,-34,-21,-40,-135,-89,-95,-77
-23,-53,-29,27,5,-34,-21,-40,-135,-89,-95,-77
-23,-53,-29,27,5,-34,-21,-40,-135,-95,-95,-77
-23,-53,-29,27,5,-34,-21,-46,-135,-101,-101,-77
-23,-53,-29,27,5,-34,-21,-46,-135,-101,-101,-83
-23,-53,-29,27,5,-34,-21,-46,-135,-101,-101,-83
-23,-53,-29,27,5,-34,-21,-46,-135,-101,-101,-83
-23,-53,-29,27,5,-34,-21,-52,-135,-101,-107,-89
-23,-53,-29,27,5,-34,-21,-58,-135,-107,-113,-95
-23,-53,-29,27,5,-34,-21,-64,-135,-107,-119,-95
-23,-53,-29,27,5,-34,-21,-64,-135,-107,-119,-95
-23,-53,-29,27,5,-34,-21,-64,-135,-107,-119,-95
-29,-59,-29,33,5,-40,-21,-64,-135,-107,-119,-95
-35,-65,-29,45,5,-46,-21,-64,-135,-107,-119,-101
-35,-71,-29,51,5,-46,-21,-64,-135,-107,-119,-101
-41,-77,-29,51,5,-46,-21,-70,-135,-107,-119,-101
-47,-77,-29,51,5,-46,-21,-70,-135,-107,-119,-101
-47,-77,-29,51,5,-46,-21,-70,-135,-107,-119,-101
-47,-77,-29,51,5,-46,-21,-70,-135,-107,-119,-101
-47,-77,-29,51,5,-46,-21,-70,-135,-113,-125,-101
-41,-77,-29,51,5,-46,-21,-70,-135,-113,-125,-107
-41,-77,-29,51,5,-46,-21,-70,-135,-119,-125,-107
-41,-77,-29,51,5,-46,-21,-70,-135,-119,-125,-107
-47,-83,-29,57,5,-46,-21,-70,-135,-119,-125,-107
-47,-83,-29,57,5,-46,-21,-70,-135,-119,-125,-107
-53,-83,-29,63,-1,-46,-21,-70,-135,-119,-125,-107
-65,-83,-29,75,-6,-46,-21,-70,-135,-119,-125,-113
-71,-83,-29,81,-6,-46,-21,-70,-135,-119,-131,-113
-71,-89,-29,81,-6,-46,-21,-70,-135,-119,-131,-119
-71,-89,-29,81,-6,-46,-21,-70,-135,-119,-131,-119
-71,-89,-29,81,-6,-46,-21,-70,-135,-119,-131,-119
-71,-95,-29,81,-6,-52,-21,-70,-135,-119,-131,-119
-71,-95,-29,81,-6,-52,-21,-70,-135,-119,-131,-119
-65,-89,-29,75,-6,-46,-15,-64,-135,-119,-131,-119
-59,-77,-29,63,-6,-40,-15,-64,-135,-119,-131,-119
-53,-77,-29,63,-6,-40,-15,-58,-135,-119,-131,-119
-53,-77,-29,57,-6,-40,-9,-58,-135,-119,-131,-119
-53,-77,-29,57,-6,-40,-9,-52,-135,-119,-131,-119
-53,-77,-29,57,-6,-40,-9,-52,-135,-119,-131,-119
-53,-77,-29,57,-6,-40,-9,-52,-135,-119,-131,-119
-53,-71,-29,57,-6,-40,-9,-46,-135,-119,-131,-119
-53,-71,-23,57,-6,-40,-9,-46,-135,-119,-131,-119
-53,-71,-23,57,-6,-40,-9,-46,-135,-125,-131,-119
-53,-71,-23,57,-6,-40,-9,-46,-135,-125,-131,-119
-53,-71,-23,57,-6,-40,-9,-40,-135,-125,-131,-119
-53,-71,-23,57,-6,-40,-9,-40,-135,-125,-131,-119
-53,-71,-23,57,-6,-40,-9,-34,-135,-125,-131,-119
-53,-71,-23,57,-6,-40,-9,-34,-135,-125,-131,-119
-53,-71,-17,57,-6,-40,-9,-34,-135,-125,-131,-119
-53,-71,-17,57,-6,-40,-9,-34,-135,-125,-131,-119
-47,-71,-23,57,-6,-40,-9,-28,-135,-125,-131,-119
-41,-71,-23,57,-1,-40,-9,-28,-135,-125,-131,-119
-35,-71,-23,57,-1,-40,-9,-22,-135,-125,-131,-119
-35,-71,-29,57,-1,-40,-9,-16,-135,-125,-131,-119
-35,-71,-29,57,5,-40,-9,-16,-141,-125,-131,-119
-35,-71,-29,51,5,-40,-9,-10,-141,-125,-131,-119
-35,-71,-29,51,5,-40,-9,-10,-141,-125,-131,-119
-35,-71,-29,51,5,-40,-9,-10,-141,-125,-131,-119
-35,-71,-29,51,5,-40,-9,-10,-141,-125,-131,-119
-41,-77,-29,57,5,-46,-15,-10,-147,-125,-131,-119
-41,-83,-29,63,5,-52,-15,-10,-147,-131,-137,-119
-41,-89,-29,69,5,-52,-21,-10,-153,-131,-137,-125
-41,-89,-29,69,5,-52,-21,-10,-153,-131,-137,-125
-41,-89,-29,69,5,-52,-21,-10,-153,-131,-137,-125
-41,-89,-29,69,5,-52,-21,-10,-153,-131,-143,-125
-47,-95,-29,69,5,-52,-27,-10,-153,-137,-143,-131
-47,-95,-35,69,5,-52,-33,-10,-159,-143,-143,-131
-47,-95,-35,69,5,-58,-33,-10,-159,-143,-149,-131
-47,-95,-35,69,5,-58,-33,-10,-159,-143,-149,-131
-47,-95,-35,69,5,-64,-33,-10,-159,-143,-149,-131
-47,-95,-41,69,5,-64,-33,-10,-159,-143,-149,-131
-47,-95,-41,69,5,-64,-33,-10,-159,-143,-149,-131
-47,-95,-41,69,5,-64,-33,-10,-159,-143,-149,-131
-47,-95,-41,69,5,-64,-33,-10,-159,-143,-149,-131
-47,-95,-41,69,5,-64,-33,-10,-159,-143,-149,-131
-47,-89,-41,69,5,-64,-33,-10,-159,-143,-149,-131
-47,-89,-41,69,5,-64,-33,-10,-159,-143,-149,-131
-47,-89,-41,69,5,-64,-33,-10,-159,-143,-149,-131
-41,-89,-41,63,11,-64,-33,-10,-159,-143,-149,-131
-35,-83,-41,51,11,-58,-33,-10,-159,-143,-149,-131
-35,-83,-41,51,11,-58,-33,-10,-159,-143,-149,-131
-35,-83,-41,51,11,-58,-33,-10,-159,-143,-149,-131
-35,-83,-47,51,17,-58,-33,-10,-165,-143,-149,-131
-35,-83,-53,51,17,-58,-33,-10,-165,-143,-149,-131
-35,-83,-53,51,17,-64,-33,-10,-165,-143,-149,-131
-35,-83,-53,51,17,-64,-33,-10,-171,-143,-149,-131
-35,-83,-53,51,17,-64,-33,-10,-171,-143,-149,-131
-35,-89,-53,51,17,-70,-33,-10,-171,-143,-149,-131
-35,-95,-59,51,17,-70,-33,-10,-177,-143,-149,-131
-35,-101,-59,57,17,-70,-33,-10,-177,-143,-149,-131
-35,-107,-59,63,17,-76,-39,-10,-177,-143,-149,-131
-35,-107,-59,69,17,-76,-45,-10,-177,-143,-155,-131
-35,-113,-65,69,17,-76,-45,-10,-177,-143,-155,-131
-35,-113,-65,69,17,-76,-45,-10,-177,-143,-155,-131
-35,-113,-65,69,17,-76,-45,-10,-177,-143,-155,-131
-41,-119,-65,75,17,-76,-45,-10,-183,-143,-155,-131
-47,-125,-65,81,17,-76,-45,-16,-183,-143,-155,-137
-47,-125,-65,81,17,-82,-51,-16,-183,-143,-155,-137
-47,-125,-65,81,17,-82,-51,-16,-183,-143,-155,-137
-41,-125,-65,81,23,-82,-51,-16,-183,-143,-155,-137
-41,-119,-65,81,23,-82,-51,-16,-183,-143,-155,-137
-41,-119,-65,81,23,-82,-51,-16,-183,-143,-155,-137
-41,-119,-65,81,23,-82,-51,-16,-183,-143,-155,-137
-35,-107,-65,69,23,-76,-51,-16,-183,-143,-155,-137
-29,-95,-65,57,23,-70,-51,-16,-183,-137,-155,-137
-29,-83,-65,51,23,-64,-45,-16,-177,-131,-149,-137
-29,-77,-59,45,23,-58,-39,-10,-171,-125,-143,-137
-29,-65,-47,39,23,-52,-39,-5,-165,-119,-143,-131
-29,-59,-35,39,17,-40,-33,-5,-165,-113,-143,-125
-35,-53,-23,39,11,-34,-27,1,-165,-107,-137,-125
-35,-53,-17,39,5,-28,-27,1,-159,-101,-137,-125
-35,-47,-11,39,5,-28,-21,7,-153,-95,-131,-125
-35,-41,-11,39,5,-28,-15,13,-147,-95,-131,-119
-35,-35,-5,39,-1,-22,-15,13,-147,-89,-131,-119
-35,-35,0,39,-6,-16,-9,13,-147,-89,-131,-113
-35,-35,6,39,-6,-10,-9,13,-147,-83,-125,-113
-41,-35,12,39,-6,-10,-9,19,-141,-77,-119,-107
-41,-35,12,39,-6,-4,-4,25,-135,-71,-113,-101
-35,-23,12,27,-6,1,2,31,-129,-59,-101,-89
-23,0,12,-3,-1,13,14,43,-117,-47,-89,-77
-11,24,18,-14,-1,25,14,49,-111,-35,-83,-65
-5,30,24,-20,-1,37,14,49,-105,-29,-77,-59
-5,30,36,-20,-6,43,14,49,-105,-29,-71,-53
-5,42,42,-26,-6,49,8,49,-105,-29,-65,-47
6,72,48,-44,-6,61,2,49,-105,-23,-59,-41
12,84,54,-56,-6,67,-4,43,-105,-17,-53,-35
18,90,54,-68,-6,73,-15,37,-105,-17,-53,-35
24,96,54,-74,-6,79,-27,25,-105,-17,-53,-35
24,96,54,-74,-6,85,-45,13,-105,-17,-53,-35
24,96,54,-74,-6,85,-69,1,-111,-17,-53,-35
24,96,54,-74,-6,85,-81,-5,-117,-17,-53,-35
24,96,54,-74,-6,85,-87,-10,-117,-17,-53,-35
24,96,54,-74,-6,85,-93,-10,-117,-17,-53,-35
24,96,54,-74,-6,85,-93,-10,-117,-17,-53,-35
24,90,54,-68,-1,79,-99,-16,-117,-17,-53,-35
24,78,48,-62,5,67,-105,-16,-123,-17,-53,-35
30,66,24,-56,17,55,-105,-16,-123,-17,-53,-35
42,60,12,-56,29,43,-105,-16,-123,-17,-53,-29
54,60,0,-56,35,37,-105,-16,-123,-17,-53,-23
60,60,-5,-56,41,37,-105,-16,-123,-17,-53,-17
60,60,-5,-56,41,31,-105,-16,-129,-17,-53,-17
60,48,-11,-50,41,19,-105,-16,-135,-17,-53,-17
60,36,-17,-44,41,7,-105,-16,-141,-23,-59,-17
60,24,-23,-44,41,1,-105,-16,-147,-29,-65,-17
60,18,-29,-44,41,-4,-105,-16,-147,-35,-71,-23
54,6,-35,-38,41,-4,-99,-16,-147,-35,-77,-29
42,-5,-35,-26,41,-4,-93,-16,-147,-41,-83,-35
24,-23,-35,-3,35,-10,-87,-16,-153,-47,-89,-41
-5,-47,-35,27,29,-22,-87,-22,-159,-59,-101,-53
-17,-59,-41,45,23,-34,-87,-28,-171,-71,-113,-65
-29,-71,-41,51,23,-40,-87,-34,-177,-77,-125,-71
-29,-77,-41,51,23,-46,-87,-40,-183,-83,-131,-77
-29,-77,-41,51,23,-52,-87,-40,-183,-83,-137,-77
-29,-77,-47,51,23,-52,-87,-46,-189,-83,-143,-77
-29,-89,-47,51,23,-52,-87,-46,-195,-89,-149,-83
-29,-95,-53,57,23,-58,-93,-52,-201,-95,-155,-89
-35,-107,-59,69,23,-70,-93,-58,-207,-101,-161,-95
-41,-119,-65,75,23,-82,-93,-58,-213,-107,-161,-101
-47,-131,-71,81,23,-88,-93,-58,-219,-113,-161,-107
-53,-137,-77,81,23,-94,-93,-58,-219,-113,-167,-107
-53,-143,-83,87,23,-106,-93,-64,-219,-113,-167,-107
-59,-155,-89,99,23,-118,-93,-70,-219,-119,-167,-107
-65,-167,-95,111,23,-130,-93,-76,-219,-125,-173,-107
-65,-173,-95,117,23,-136,-93,-82,-219,-125,-173,-107
-65,-173,-95,117,23,-136,-93,-82,-219,-125,-173,-107
-59,-173,-95,111,23,-130,-93,-82,-219,-125,-173,-107
-59,-167,-95,105,23,-124,-93,-82,-219,-125,-173,-107
-59,-161,-95,99,23,-124,-93,-82,-219,-125,-173,-107
-53,-161,-95,99,23,-124,-93,-82,-219,-125,-173,-107
-53,-161,-95,99,23,-124,-93,-82,-219,-125,-173,-107
-47,-155,-95,93,23,-124,-93,-82,-219,-125,-173,-107
-41,-143,-95,87,23,-124,-93,-82,-219,-125,-173,-107
-41,-143,-95,87,23,-124,-93,-82,-219,-125,-173,-107
-47,-143,-95,87,23,-124,-93,-88,-219,-125,-173,-107
-47,-143,-95,87,23,-124,-93,-94,-219,-125,-173,-107
-47,-143,-95,87,23,-124,-93,-94,-219,-125,-173,-107
-47,-143,-95,93,23,-124,-93,-94,-219,-125,-173,-107
-53,-149,-95,99,17,-124,-93,-94,-219,-125,-173,-113
-59,-149,-89,105,11,-124,-93,-94,-219,-125,-173,-113
-59,-149,-89,105,11,-124,-93,-94,-219,-125,-173,-113
-59,-155,-95,105,11,-124,-93,-94,-219,-125,-173,-113
-59,-167,-107,105,17,-136,-93,-94,-219,-125,-173,-119
-53,-167,-125,105,35,-142,-93,-94,-219,-125,-173,-125
-23,-167,-149,99,83,-148,-81,-76,-207,-125,-173,-125
0,-167,-173,87,113,-154,-63,-40,-201,-125,-173,-131
6,-167,-179,87,113,-160,-39,1,-189,-125,-173,-137
6,-167,-179,87,113,-160,-4,79,-147,-119,-173,-149
6,-173,-173,87,107,-160,86,211,-69,-107,-173,-155
6,-173,-167,87,95,-160,194,373,32,-65,-173,-161
6,-161,-137,81,77,-142,302,523,146,18,-149,-155
6,-77,-59,57,47,-64,404,661,308,150,-35,-95
6,66,42,-8,11,61,518,781,488,336,126,42
18,198,132,-110,-6,181,596,877,644,522,306,186
72,378,228,-224,-18,319,638,913,800,708,516,360
156,570,360,-368,-30,469,650,925,938,936,756,564
246,762,456,-506,-42,619,638,925,1082,1176,1038,816
372,948,534,-668,-48,751,530,919,1220,1440,1344,1080
516,1134,582,-830,-42,865,356,859,1328,1692,1626,1344
654,1302,630,-986,-30,973,134,703,1388,1902,1878,1578
768,1440,654,-1106,11,1045,-129,505,1394,2046,2081,1770
840,1566,696,-1202,35,1129,-393,283,1388,2147,2249,1956
846,1728,864,-1268,23,1309,-669,7,1328,2201,2393,2147
780,1854,1140,-1286,-162,1507,-921,-334,1106,2189,2405,2231
534,1836,1242,-1190,-324,1525,-1071,-652,776,1878,2219,2195
342,1488,1194,-920,-354,1357,-1119,-922,326,1326,1692,1794
210,1116,948,-668,-354,1039,-1149,-1198,-213,654,1044,1302
126,792,732,-458,-336,763,-1155,-1372,-651,96,462,858
42,510,534,-284,-294,523,-1119,-1378,-867,-239,90,498
-17,282,366,-140,-246,331,-999,-1336,-909,-371,-119,258
-47,114,222,-50,-186,169,-861,-1150,-909,-425,-233,84
-71,-23,108,39,-138,43,-711,-964,-879,-449,-311,-71
-83,-89,42,81,-96,-28,-561,-760,-765,-449,-341,-149
-83,-107,6,93,-66,-46,-453,-604,-657,-437,-341,-179
-89,-119,-17,105,-48,-58,-363,-478,-555,-395,-341,-185
-101,-137,-23,117,-42,-70,-309,-394,-495,-353,-335,-185
-101,-137,-29,117,-30,-76,-255,-310,-429,-305,-317,-185
-89,-137,-35,111,-12,-76,-201,-220,-369,-263,-275,-179
-77,-131,-41,99,-1,-76,-153,-154,-327,-227,-257,-167
-65,-125,-47,93,5,-76,-117,-118,-291,-209,-245,-161
-59,-125,-53,93,5,-82,-99,-94,-267,-191,-233,-161
-59,-125,-53,93,5,-82,-93,-82,-255,-179,-227,-161
-65,-125,-59,93,5,-82,-81,-76,-243,-173,-221,-161
-65,-131,-59,93,5,-82,-75,-70,-231,-161,-215,-161
-71,-131,-59,93,5,-82,-69,-64,-225,-161,-215,-161
-71,-131,-59,93,5,-82,-63,-58,-219,-161,-215,-161
-71,-131,-59,93,5,-82,-57,-46,-213,-155,-215,-161
-71,-131,-59,93,5,-82,-51,-40,-207,-155,-215,-161
-71,-131,-59,93,5,-88,-45,-34,-201,-155,-215,-161
-71,-131,-65,93,5,-94,-39,-22,-195,-155,-215,-161
-71,-137,-71,93,11,-100,-33,-16,-195,-149,-215,-161
-71,-137,-77,93,11,-106,-33,-10,-189,-143,-215,-161
-71,-137,-77,93,11,-106,-33,-10,-189,-143,-215,-161
-77,-143,-77,105,11,-106,-33,-10,-189,-143,-215,-161
-89,-167,-77,117,11,-112,-33,-10,-189,-143,-215,-161
-89,-173,-77,123,11,-118,-33,-5,-189,-137,-215,-161
-89,-173,-77,123,11,-118,-27,1,-183,-131,-209,-161
-89,-173,-77,123,11,-118,-21,7,-177,-131,-209,-161
-89,-173,-77,123,11,-118,-21,13,-177,-131,-209,-155
-89,-173,-77,123,11,-118,-21,19,-177,-131,-209,-155
-89,-173,-77,123,11,-118,-21,19,-177,-131,-203,-155
-95,-173,-77,123,11,-118,-21,25,-177,-131,-203,-155
-101,-173,-77,123,5,-118,-21,25,-177,-131,-203,-155
-101,-173,-77,123,5,-118,-21,25,-177,-131,-203,-155
-95,-167,-77,117,5,-118,-21,31,-171,-125,-191,-149
-83,-155,-77,111,11,-112,-21,37,-165,-119,-191,-149
-83,-155,-77,111,11,-106,-21,43,-165,-119,-191,-149
-83,-155,-77,111,11,-106,-21,43,-165,-119,-191,-149
-83,-155,-77,111,11,-106,-21,43,-165,-119,-191,-149
-71,-149,-77,105,17,-106,-21,49,-159,-113,-191,-149
-59,-137,-77,93,23,-106,-15,55,-153,-107,-185,-143
-47,-125,-77,87,23,-106,-9,67,-147,-101,-179,-143
-41,-119,-77,87,29,-106,-9,73,-141,-101,-179,-143
-41,-119,-77,87,29,-106,-9,73,-141,-101,-179,-143
-47,-125,-77,93,29,-106,-9,79,-135,-95,-179,-143
-53,-137,-77,99,29,-106,-9,79,-135,-95,-179,-143
-53,-143,-77,99,29,-106,-9,79,-135,-89,-173,-143
-53,-143,-77,99,29,-106,-9,85,-135,-89,-173,-143
-59,-149,-77,99,29,-106,-9,85,-135,-89,-173,-143
-65,-149,-77,105,23,-106,-9,85,-135,-89,-173,-143
-71,-149,-77,105,23,-106,-9,85,-135,-83,-173,-143
-71,-149,-77,105,23,-106,-4,85,-135,-83,-173,-143
-71,-149,-77,105,23,-106,-4,91,-135,-83,-173,-143
-59,-137,-77,93,29,-100,2,97,-129,-77,-167,-137
-47,-125,-77,81,35,-100,2,103,-123,-77,-161,-137
-47,-125,-77,81,35,-100,2,109,-117,-71,-161,-137
-47,-125,-77,81,35,-100,2,109,-117,-71,-161,-137
-47,-125,-77,81,35,-100,2,109,-117,-71,-161,-137
-47,-125,-77,81,35,-100,8,109,-117,-71,-161,-137
-47,-125,-77,81,35,-100,8,115,-117,-65,-161,-137
-47,-125,-77,87,35,-100,8,115,-117,-59,-161,-137
-59,-131,-77,93,23,-100,8,115,-117,-59,-161,-137
-71,-131,-77,99,17,-100,8,121,-117,-59,-161,-137
-71,-131,-77,99,17,-100,14,133,-105,-59,-161,-137
-71,-131,-77,99,17,-100,20,145,-99,-53,-155,-137
-59,-125,-77,93,17,-100,26,151,-87,-47,-155,-137
-41,-113,-77,75,23,-94,32,163,-81,-41,-149,-137
-29,-101,-77,63,29,-94,38,175,-75,-35,-143,-131
-29,-101,-71,63,29,-94,44,187,-69,-35,-143,-125
-29,-101,-71,63,29,-88,44,193,-63,-29,-137,-113
-23,-95,-71,57,29,-82,44,199,-57,-23,-131,-107
-23,-89,-71,57,29,-82,44,205,-51,-17,-125,-107
-23,-89,-71,57,29,-82,44,211,-45,-17,-125,-107
-29,-89,-71,63,29,-82,44,217,-45,-17,-125,-107
-35,-89,-65,69,23,-82,44,223,-45,-11,-125,-107
-35,-89,-65,69,23,-82,44,229,-39,-5,-125,-107
-35,-89,-65,69,23,-82,50,241,-27,6,-119,-101
-35,-89,-65,69,23,-82,56,253,-15,12,-107,-95
-23,-83,-65,57,23,-76,62,265,2,18,-95,-89
-11,-71,-59,45,23,-70,62,277,8,24,-89,-83
-11,-59,-53,39,23,-64,68,283,14,30,-83,-77
-11,-53,-47,33,23,-58,68,289,26,42,-77,-77
-11,-53,-47,33,23,-52,74,301,38,48,-65,-77
-11,-47,-41,33,23,-46,74,307,50,60,-59,-71
-11,-41,-29,33,23,-40,74,313,62,72,-53,-65
-11,-35,-23,27,23,-34,74,319,68,84,-47,-59
-11,-29,-11,27,23,-22,80,325,80,90,-41,-47
-11,-29,0,27,17,-16,80,331,92,96,-35,-41
-17,-29,6,27,11,-10,80,337,98,102,-29,-35
-17,-29,6,27,11,-10,80,343,104,108,-23,-29
-11,-17,6,15,11,-10,80,349,110,114,-11,-17
-5,6,6,3,11,-4,80,355,122,126,6,-5
0,18,12,-8,11,7,80,361,134,138,18,0
6,30,12,-14,11,13,80,373,146,156,30,12
12,42,18,-26,11,25,80,379,158,168,42,24
18,54,30,-32,11,37,80,385,170,180,54,36
18,60,36,-38,11,49,80,391,182,198,72,48
24,72,42,-44,11,61,80,397,194,216,84,54
36,102,48,-74,11,73,80,403,206,228,96,66
54,132,54,-98,11,85,80,403,212,246,114,84
60,144,66,-104,11,97,80,403,218,258,126,96
60,150,72,-104,11,103,80,403,218,258,138,108
60,156,78,-110,11,109,80,403,224,264,150,126
66,162,78,-116,11,115,74,403,236,282,168,144
72,168,78,-122,11,121,68,403,242,294,180,156
78,174,78,-128,11,127,62,403,242,306,192,162
78,180,78,-128,11,127,56,397,248,312,198,168
78,180,84,-128,11,133,50,391,248,318,204,174
78,186,96,-128,5,139,50,385,248,318,210,180
84,198,102,-140,5,151,44,385,254,324,216,186
90,210,108,-152,5,163,44,379,254,330,228,192
90,222,114,-158,5,169,38,373,260,330,234,198
90,228,120,-158,5,175,32,367,260,336,240,204
90,228,126,-158,5,175,26,367,260,342,246,210
90,228,132,-158,5,175,20,361,260,348,252,210
90,228,138,-158,5,175,14,355,260,354,258,216
90,228,144,-158,-1,175,8,355,260,354,258,216
90,228,144,-158,-6,175,8,349,260,354,264,216
90,228,144,-158,-6,175,8,349,260,354,270,222
90,228,144,-158,-6,181,8,343,260,360,270,228
90,228,150,-158,-12,187,8,337,260,360,270,234
90,234,150,-158,-18,193,8,331,260,366,270,234
90,234,156,-158,-18,193,2,325,260,366,276,240
90,234,156,-158,-18,193,-4,319,260,366,276,240
90,240,156,-158,-18,193,-9,313,260,366,276,240
90,240,156,-158,-18,193,-9,307,260,366,276,240
90,240,156,-158,-18,193,-9,301,254,366,276,240
90,240,156,-158,-18,193,-15,295,254,360,276,240
84,234,156,-158,-18,193,-15,295,248,354,276,234
78,228,156,-158,-18,193,-15,289,248,348,276,234
78,228,156,-158,-18,193,-15,283,248,342,270,234
72,228,156,-158,-18,193,-15,277,242,336,258,228
72,228,156,-158,-18,193,-15,271,230,324,246,228
72,222,150,-158,-18,193,-15,265,218,312,240,222
72,222,150,-158,-18,193,-15,259,212,306,234,222
72,222,150,-158,-18,193,-15,253,206,300,234,222
72,216,150,-158,-18,187,-15,241,194,288,222,216
66,204,150,-146,-18,181,-15,229,188,276,210,204
66,192,150,-140,-18,175,-15,217,176,264,198,192
66,186,144,-134,-18,169,-15,205,164,252,186,180
66,186,138,-128,-18,163,-15,193,152,240,180,174
60,180,126,-122,-18,151,-15,175,146,228,162,162
48,156,120,-110,-18,139,-15,163,134,204,138,150
36,126,108,-92,-18,121,-21,151,110,180,114,138
30,114,96,-80,-18,109,-27,139,98,168,102,126
24,108,90,-74,-18,103,-33,127,80,156,90,114
24,102,84,-68,-18,97,-39,115,62,138,78,102
18,96,84,-62,-18,91,-39,103,50,126,72,90
12,90,84,-56,-18,91,-39,97,44,114,66,72
6,84,84,-56,-18,91,-45,85,32,102,54,60
6,84,84,-50,-18,91,-45,73,20,90,42,48
6,84,84,-50,-18,85,-45,67,8,78,30,42
0,78,84,-50,-18,79,-45,61,2,72,18,36
-11,60,84,-38,-18,67,-45,55,-4,66,12,30
-17,48,78,-26,-18,55,-45,49,-9,60,6,24
-23,36,72,-20,-18,49,-45,43,-21,48,0,18
-29,30,66,-14,-18,43,-45,37,-33,36,-11,12
-29,24,60,-8,-18,37,-51,31,-39,24,-23,6
-35,18,54,-8,-18,31,-51,31,-45,12,-35,0
-35,18,48,-3,-18,25,-51,31,-51,6,-35,-5
-35,18,42,-3,-18,25,-51,25,-57,0,-41,-11
-35,18,42,-3,-18,25,-51,25,-57,0,-41,-11
-35,18,42,-3,-18,25,-51,25,-57,0,-41,-11
-35,12,42,3,-18,19,-51,25,-57,-5,-41,-17
-35,0,42,9,-18,13,-51,25,-57,-11,-47,-17
-41,-5,36,15,-18,7,-51,19,-57,-23,-53,-23
-41,-11,36,15,-18,7,-51,13,-63,-29,-59,-29
-47,-17,36,21,-24,7,-51,13,-63,-29,-59,-29
-53,-23,36,33,-30,7,-51,13,-63,-35,-65,-35
-65,-35,36,45,-36,1,-51,13,-69,-41,-71,-41
-71,-47,36,51,-36,-4,-51,7,-75,-47,-77,-41
-83,-53,36,63,-36,-10,-51,7,-75,-47,-77,-41
-89,-53,36,63,-36,-10,-57,7,-81,-53,-83,-41
-89,-53,36,63,-36,-10,-57,7,-81,-53,-83,-41
-83,-41,36,57,-36,-10,-57,7,-81,-53,-83,-41
-77,-35,36,51,-36,-10,-57,7,-81,-53,-83,-41
-71,-29,36,45,-36,-4,-51,7,-81,-53,-83,-41
-65,-23,36,39,-36,-4,-45,7,-81,-53,-83,-41
-59,-17,36,33,-36,-4,-39,7,-75,-53,-83,-41
-53,-11,36,33,-36,1,-39,7,-75,-53,-83,-41
-53,-11,36,33,-36,1,-39,7,-75,-53,-83,-41
-53,-17,36,33,-36,1,-39,7,-75,-53,-83,-41
-53,-17,36,33,-36,1,-39,7,-75,-53,-83,-41
-53,-17,36,33,-36,1,-39,7,-75,-53,-83,-41
-53,-17,36,33,-36,1,-39,7,-75,-53,-83,-41
-53,-17,36,33,-36,1,-39,7,-69,-53,-83,-41
-53,-17,36,33,-36,1,-39,13,-63,-53,-83,-41
-53,-17,36,33,-36,1,-39,19,-63,-53,-83,-41
-53,-17,36,33,-36,1,-39,19,-63,-53,-83,-41
-53,-17,36,33,-36,1,-39,19,-63,-53,-83,-41
-53,-17,36,33,-42,1,-39,19,-63,-47,-83,-41
-53,-17,42,33,-42,1,-33,19,-63,-41,-83,-41
-53,-17,42,33,-42,1,-33,19,-63,-41,-83,-41
-53,-17,42,33,-42,1,-33,19,-63,-41,-83,-41
-53,-17,42,33,-42,1,-33,19,-63,-41,-83,-41
-59,-17,42,39,-42,1,-33,19,-63,-41,-83,-41
-65,-23,42,45,-48,1,-33,19,-57,-41,-83,-41
-65,-29,42,45,-48,1,-33,19,-57,-41,-83,-41
-65,-29,42,45,-48,1,-27,19,-57,-41,-77,-41
-65,-29,42,45,-48,1,-27,19,-57,-41,-77,-41
-65,-29,42,45,-48,1,-27,19,-57,-41,-77,-41
-65,-29,42,45,-48,1,-27,19,-51,-41,-77,-41
-59,-23,42,39,-48,1,-27,25,-45,-35,-71,-35
-59,-17,42,33,-48,1,-21,25,-39,-29,-65,-35
-59,-17,42,33,-48,1,-21,25,-39,-29,-65,-35
-59,-17,42,33,-48,1,-21,25,-39,-29,-65,-35
-59,-17,42,33,-48,1,-21,25,-39,-29,-65,-35
-59,-17,42,33,-48,1,-21,25,-39,-29,-65,-35
-59,-17,42,33,-48,1,-21,25,-39,-29,-65,-35
-59,-17,42,33,-48,1,-21,25,-39,-29,-65,-35
-59,-17,42,33,-48,1,-21,25,-39,-29,-65,-35
-59,-23,42,39,-48,1,-21,25,-39,-29,-65,-35
-65,-29,42,45,-48,1,-21,25,-39,-29,-65,-35
-65,-29,42,45,-48,1,-21,25,-39,-29,-65,-35
-65,-29,42,45,-48,1,-21,25,-39,-29,-65,-35
-65,-29,42,45,-48,1,-21,25,-39,-29,-65,-35
-65,-29,42,45,-48,1,-21,25,-39,-29,-65,-35
-65,-29,42,45,-48,1,-21,25,-39,-29,-65,-35
-59,-29,42,39,-48,1,-21,25,-39,-29,-65,-35
-47,-23,42,27,-48,1,-21,25,-39,-29,-65,-29
-41,-17,42,21,-48,7,-21,25,-39,-29,-65,-29
-41,-17,42,21,-48,7,-27,25,-39,-29,-65,-29
-41,-17,42,21,-48,7,-27,25,-39,-29,-65,-29
-41,-17,42,21,-42,7,-27,25,-39,-29,-65,-29
-41,-17,42,21,-42,7,-27,25,-39,-23,-65,-29
-41,-17,42,21,-42,7,-27,25,-39,-23,-65,-29
-41,-17,42,21,-42,7,-27,19,-39,-23,-65,-29
-41,-17,42,21,-42,7,-27,19,-39,-23,-65,-29
-41,-17,42,21,-42,7,-27,19,-39,-23,-65,-29
-41,-17,36,21,-42,7,-27,13,-39,-23,-65,-29
-41,-23,36,27,-42,1,-33,1,-45,-23,-65,-29
-41,-29,30,27,-42,-4,-39,-5,-45,-23,-65,-29
-41,-41,24,33,-42,-10,-45,-10,-45,-23,-65,-29
-47,-47,24,39,-42,-16,-51,-10,-45,-23,-65,-29
-47,-47,24,39,-42,-16,-51,-10,-45,-29,-65,-29
-47,-47,24,39,-42,-16,-51,-10,-45,-29,-65,-29
-47,-41,24,39,-36,-16,-51,-10,-45,-29,-65,-29
-47,-41,24,39,-36,-16,-51,-10,-45,-29,-65,-29
-53,-41,18,45,-36,-16,-51,-16,-51,-29,-65,-29
-59,-41,18,51,-36,-16,-51,-16,-57,-35,-65,-29
-59,-41,18,51,-36,-16,-51,-16,-63,-41,-65,-29
-53,-41,18,45,-36,-16,-51,-16,-63,-41,-65,-29
-47,-41,18,45,-36,-16,-51,-16,-63,-41,-65,-29
-47,-41,18,45,-36,-16,-51,-22,-63,-47,-65,-29
-47,-41,18,45,-36,-16,-51,-28,-63,-53,-65,-29
-47,-47,18,51,-36,-22,-51,-34,-63,-53,-65,-29
-53,-53,18,57,-36,-28,-57,-40,-63,-53,-65,-35
-53,-53,18,57,-36,-28,-57,-40,-63,-53,-65,-35
-53,-53,18,57,-36,-28,-57,-40,-63,-53,-65,-35
-53,-53,18,51,-36,-28,-57,-40,-63,-53,-65,-35
-53,-53,18,51,-36,-28,-57,-40,-63,-59,-65,-35
-53,-53,18,51,-36,-28,-57,-40,-63,-59,-65,-35
-53,-53,18,51,-36,-28,-57,-40,-63,-59,-65,-35
-53,-53,18,51,-36,-28,-57,-40,-63,-59,-65,-35
-53,-53,18,51,-36,-28,-57,-40,-63,-59,-65,-35
-53,-53,12,51,-36,-28,-57,-40,-63,-59,-65,-35
-53,-53,12,51,-36,-28,-57,-40,-63,-59,-65,-35
-59,-59,12,51,-36,-34,-57,-46,-69,-65,-65,-35
-65,-65,12,57,-36,-40,-57,-52,-75,-71,-71,-35
-71,-65,12,57,-36,-40,-57,-52,-81,-71,-71,-35
-71,-65,12,57,-36,-40,-57,-52,-81,-71,-71,-35
-71,-65,12,57,-36,-40,-57,-52,-81,-71,-71,-35
-65,-65,12,57,-36,-40,-57,-52,-81,-71,-71,-35
-53,-59,12,51,-36,-40,-57,-52,-81,-71,-71,-35
-41,-53,12,45,-36,-34,-57,-52,-81,-71,-71,-35
-41,-47,12,45,-36,-28,-57,-52,-81,-71,-71,-35
-41,-41,12,39,-36,-22,-57,-52,-81,-71,-71,-35
-41,-29,12,27,-36,-16,-57,-52,-81,-71,-71,-35
-35,-17,12,21,-36,-10,-57,-52,-75,-71,-71,-29
-35,-17,12,21,-36,-10,-57,-52,-75,-71,-71,-23
-41,-17,18,21,-36,-10,-57,-52,-75,-71,-71,-23
-47,-23,24,27,-42,-10,-51,-52,-75,-71,-71,-23
-53,-23,30,33,-48,-10,-45,-46,-69,-65,-65,-23
-53,-23,42,33,-54,-4,-39,-40,-57,-59,-59,-23
-53,-17,48,33,-54,7,-27,-28,-45,-53,-53,-17
-53,-5,54,27,-54,19,-21,-22,-33,-47,-41,-17
-41,24,60,9,-54,31,-15,-16,-27,-41,-35,-11
-35,42,66,-14,-54,43,-9,-10,-21,-35,-29,-11
-29,48,72,-20,-54,49,-4,-10,-15,-29,-29,-11
-29,54,84,-26,-54,55,-4,-5,-9,-17,-23,-11
-29,60,96,-26,-54,61,-4,1,-4,-5,-17,-11
-29,72,108,-32,-54,73,-4,1,2,0,-11,-11
-29,78,114,-32,-54,85,-4,1,2,0,-5,-5
-29,78,120,-32,-60,85,-4,1,8,0,-5,0
-35,78,120,-26,-66,85,-4,1,14,0,-5,6
-41,78,120,-26,-72,85,-4,1,14,0,-5,6
-41,78,120,-26,-72,91,-4,1,14,0,-5,6
-41,78,120,-26,-72,91,-9,1,14,0,-5,12
-41,84,126,-32,-72,97,-15,1,14,6,6,24
-35,96,132,-38,-72,103,-21,1,14,12,18,36
-29,102,132,-50,-72,109,-33,1,14,12,24,48
-17,114,132,-62,-72,115,-45,-10,14,12,30,54
-5,126,132,-68,-66,121,-57,-16,14,12,30,60
0,132,132,-74,-66,121,-63,-16,14,12,36,66
6,132,132,-74,-66,121,-69,-22,14,12,36,66
6,132,132,-74,-66,121,-69,-22,14,12,36,72
6,132,132,-74,-60,121,-69,-22,14,12,36,72
6,132,132,-74,-60,121,-69,-22,14,12,36,72
6,132,132,-74,-60,121,-69,-22,14,12,36,72
12,132,126,-74,-54,121,-69,-22,14,12,36,72
24,132,108,-80,-42,115,-69,-22,14,18,36,72
30,126,96,-80,-30,109,-69,-22,14,18,36,72
36,120,84,-80,-24,103,-69,-22,14,18,36,72
42,120,78,-80,-18,97,-69,-22,14,18,42,72
48,120,72,-80,-12,91,-69,-16,14,18,42,72
48,114,66,-80,-12,85,-69,-16,8,18,42,72
48,102,66,-80,-12,79,-69,-22,-4,12,42,66
42,84,60,-68,-12,67,-75,-28,-15,6,30,60
36,60,48,-50,-12,49,-75,-28,-21,0,24,48
24,42,42,-38,-12,37,-75,-28,-27,-5,12,36
0,18,42,-8,-12,25,-75,-28,-33,-11,0,24
-17,-11,42,15,-18,13,-75,-28,-39,-23,-11,12
-29,-35,36,27,-24,-4,-75,-28,-45,-35,-23,0
-41,-47,30,39,-24,-16,-75,-28,-51,-47,-29,-5
-47,-53,24,45,-24,-22,-75,-34,-57,-59,-35,-11
-53,-59,24,51,-24,-28,-75,-40,-63,-59,-35,-17
-59,-65,18,51,-24,-28,-75,-40,-69,-59,-41,-23
-59,-65,12,51,-24,-34,-75,-40,-75,-65,-47,-29
-53,-71,0,51,-18,-40,-75,-40,-75,-65,-47,-29
-47,-71,-5,51,-12,-46,-75,-46,-75,-65,-47,-29
-47,-71,-11,51,-12,-52,-75,-52,-81,-71,-53,-35
-47,-71,-11,51,-12,-52,-75,-58,-87,-77,-53,-41
-47,-71,-11,51,-12,-52,-75,-58,-87,-77,-53,-41
-47,-71,-11,51,-12,-52,-75,-58,-87,-77,-53,-41
-47,-71,-11,51,-12,-52,-75,-58,-87,-77,-53,-41
-47,-71,-23,51,-12,-52,-75,-64,-87,-77,-59,-47
-47,-71,-29,51,-12,-58,-75,-64,-87,-77,-59,-53
-47,-77,-29,57,-12,-64,-75,-64,-87,-77,-59,-53
-53,-89,-29,63,-12,-70,-75,-64,-87,-77,-59,-53
-65,-113,-29,81,-12,-76,-75,-70,-93,-83,-65,-53
-77,-137,-35,93,-12,-88,-75,-76,-99,-89,-71,-53
-77,-143,-41,99,-12,-94,-75,-76,-105,-95,-71,-53
-77,-143,-47,99,-12,-94,-75,-76,-105,-95,-71,-53
-71,-137,-47,93,-6,-94,-69,-76,-105,-95,-71,-53
-65,-137,-47,93,-6,-94,-69,-76,-105,-95,-71,-53
-65,-137,-47,93,-6,-94,-69,-76,-105,-95,-71,-53
-65,-137,-47,93,-6,-94,-63,-76,-105,-95,-71,-53
-59,-131,-47,87,-1,-94,-63,-76,-105,-95,-71,-53
-53,-125,-47,81,5,-94,-63,-76,-105,-95,-71,-53
-53,-119,-47,75,5,-88,-63,-76,-105,-95,-71,-53
-53,-107,-47,75,5,-82,-63,-76,-105,-95,-71,-53
-53,-101,-47,75,5,-82,-63,-76,-105,-95,-71,-53
-53,-101,-47,75,5,-82,-63,-76,-105,-95,-71,-53
-53,-101,-47,81,5,-82,-63,-76,-105,-95,-71,-53
-53,-101,-47,81,5,-82,-63,-76,-105,-95,-71,-59
-53,-107,-47,81,5,-82,-63,-76,-105,-95,-71,-65
-53,-119,-53,87,5,-94,-57,-76,-105,-95,-71,-71
-53,-143,-65,93,11,-106,-57,-64,-105,-95,-77,-77
-53,-173,-95,99,17,-136,-51,-52,-105,-101,-89,-89
-53,-197,-119,111,23,-160,-39,-22,-105,-107,-101,-95
-53,-203,-137,111,35,-172,-4,31,-93,-107,-107,-101
-47,-203,-143,111,47,-172,80,145,-33,-101,-107,-107
-41,-197,-143,111,47,-172,182,295,80,-59,-107,-113
-41,-185,-131,105,47,-160,302,451,212,24,-83,-113
-29,-125,-95,81,41,-106,410,613,368,144,0,-101
-17,12,6,15,23,7,512,733,530,300,138,0
-5,156,126,-62,-24,139,584,805,680,468,300,144
24,306,240,-158,-66,265,632,835,794,642,486,312
72,468,336,-266,-96,397,644,835,902,822,690,498
120,636,462,-374,-126,535,638,829,1016,1056,960,720
192,822,576,-530,-144,703,566,799,1148,1338,1260,972
318,1056,684,-692,-150,859,446,757,1298,1644,1596,1266
468,1266,762,-878,-150,1003,266,685,1430,1932,1932,1548
600,1452,810,-1034,-138,1129,32,547,1490,2171,2201,1782
732,1596,840,-1160,-102,1219,-207,385,1508,2333,2422,1986
768,1728,924,-1244,-96,1327,-453,193,1508,2476,2632,2189
768,1884,1146,-1298,-174,1519,-717,-82,1484,2530,2746,2369
642,1998,1404,-1304,-378,1705,-939,-412,1238,2470,2746,2428
468,1962,1452,-1226,-492,1705,-1047,-706,884,2063,2452,2339
324,1578,1302,-956,-492,1435,-1077,-958,374,1422,1842,1896
204,1122,972,-662,-450,1039,-1095,-1246,-255,630,1110,1344
84,750,732,-434,-366,739,-1095,-1402,-723,24,492,864
18,474,516,-248,-300,493,-1059,-1402,-891,-281,114,510
-17,258,342,-134,-222,295,-927,-1282,-897,-377,-65,282
-41,96,198,-32,-168,151,-789,-1084,-885,-413,-179,102
-71,-41,96,57,-132,25,-639,-892,-807,-431,-251,-29
-89,-125,30,99,-102,-40,-507,-700,-687,-431,-275,-107
-101,-155,-11,129,-84,-82,-387,-544,-561,-407,-275,-125
-101,-167,-35,135,-66,-100,-297,-424,-465,-353,-269,-125
-101,-167,-47,135,-48,-106,-219,-334,-381,-281,-245,-125
-95,-161,-47,123,-36,-106,-159,-250,-303,-239,-215,-119
-89,-161,-47,117,-24,-106,-105,-184,-255,-203,-185,-113
-89,-161,-47,117,-24,-112,-69,-136,-213,-173,-167,-107
-89,-161,-53,123,-24,-118,-51,-94,-177,-155,-149,-101
-89,-161,-53,123,-24,-118,-33,-70,-147,-143,-137,-101
-89,-161,-53,123,-24,-118,-21,-58,-135,-131,-131,-101
-89,-149,-53,111,-24,-112,-15,-46,-123,-119,-125,-101
-77,-137,-53,99,-24,-100,-9,-40,-111,-113,-119,-101
-77,-131,-53,99,-24,-100,-4,-34,-105,-107,-113,-101
-83,-131,-53,99,-24,-100,2,-28,-99,-101,-113,-101
-89,-143,-53,111,-24,-106,8,-28,-93,-101,-113,-101
-95,-155,-59,117,-24,-112,14,-22,-93,-101,-113,-101
-95,-155,-59,117,-24,-112,26,-16,-87,-95,-113,-95
-89,-155,-65,117,-18,-112,38,-5,-81,-89,-113,-95
-83,-155,-71,117,-12,-112,38,1,-81,-89,-113,-95
-83,-167,-77,117,-12,-118,38,1,-81,-89,-113,-95
-83,-173,-77,117,-12,-118,38,7,-75,-89,-113,-95
-83,-173,-77,117,-12,-118,44,13,-69,-89,-107,-95
-71,-143,-77,105,-6,-112,56,19,-57,-89,-107,-89
-59,-119,-77,93,-1,-106,62,19,-51,-89,-101,-89
-53,-113,-77,87,-1,-106,62,25,-45,-89,-95,-83
-53,-113,-71,81,-1,-106,62,25,-39,-89,-89,-83
-53,-113,-65,75,-1,-100,62,25,-39,-83,-83,-77
-53,-113,-65,75,-1,-100,62,25,-39,-77,-83,-77
-53,-113,-65,75,-1,-100,62,25,-39,-77,-83,-77
-53,-113,-65,75,-1,-100,62,25,-39,-77,-83,-77
-53,-113,-65,75,-1,-100,62,25,-39,-77,-83,-77
-53,-113,-65,75,-1,-100,62,25,-39,-77,-83,-77
-53,-113,-65,75,-1,-100,62,31,-33,-71,-83,-71
-53,-113,-65,75,-1,-100,62,31,-27,-65,-77,-65
-53,-113,-65,75,-1,-100,68,31,-21,-65,-77,-65
-53,-113,-65,75,-1,-100,68,31,-21,-65,-77,-65
-47,-107,-65,75,-1,-94,68,37,-15,-65,-77,-65
-41,-107,-65,69,-1,-94,74,43,-15,-59,-77,-65
-41,-101,-65,69,-1,-94,74,49,-9,-53,-77,-65
-41,-101,-65,69,-1,-94,74,55,-9,-53,-77,-65
-41,-95,-65,63,-1,-94,80,55,-9,-47,-77,-65
-41,-95,-65,63,-1,-94,86,55,-4,-47,-77,-65
-41,-95,-65,63,-1,-94,86,55,-4,-47,-77,-65
-41,-101,-65,63,-1,-94,86,55,-4,-41,-77,-65
-41,-107,-65,69,-1,-94,86,55,-4,-41,-77,-65
-47,-119,-65,81,-1,-94,86,55,-4,-41,-77,-65
-53,-125,-65,87,-1,-94,86,55,-4,-41,-77,-65
-53,-131,-65,87,-1,-94,86,55,-4,-41,-77,-65
-53,-131,-65,87,-1,-94,86,55,-4,-41,-77,-65
-53,-131,-65,87,-1,-94,86,55,2,-41,-77,-65
-59,-131,-65,87,-1,-94,92,61,8,-41,-77,-65
-59,-131,-65,87,-1,-94,98,61,8,-41,-77,-65
-59,-131,-65,87,-1,-94,104,67,14,-35,-77,-65
-59,-131,-65,87,-1,-94,110,73,20,-29,-71,-65
-59,-131,-59,87,-1,-94,110,79,26,-29,-71,-65
-59,-125,-59,87,-1,-94,110,91,32,-23,-65,-65
-53,-113,-59,81,-1,-94,116,97,38,-17,-59,-59
-41,-101,-59,69,5,-88,122,103,44,-11,-53,-53
-41,-101,-59,69,5,-88,122,103,44,-11,-47,-53
-41,-101,-53,69,5,-88,122,109,44,-5,-47,-53
-41,-101,-53,69,5,-88,122,109,50,0,-47,-53
-41,-101,-53,69,5,-88,128,115,50,0,-41,-53
-41,-101,-53,69,5,-88,128,121,50,0,-41,-53
-41,-101,-53,69,-1,-88,134,127,56,6,-41,-53
-41,-101,-53,69,-1,-88,134,133,62,12,-41,-53
-41,-101,-53,69,-1,-82,140,139,68,12,-41,-53
-35,-89,-53,63,-1,-76,140,145,74,18,-35,-53
-35,-83,-47,57,-1,-70,146,151,80,18,-29,-47
-35,-77,-47,51,-1,-64,146,157,86,18,-29,-47
-35,-71,-41,51,-1,-64,146,163,92,18,-29,-47
-35,-65,-41,45,-1,-64,146,169,98,24,-29,-47
-35,-65,-41,45,-1,-64,152,175,104,30,-29,-47
-35,-65,-41,45,-1,-64,152,181,110,36,-23,-41
-35,-65,-35,39,-1,-58,152,187,116,42,-23,-41
-35,-59,-35,39,-1,-52,158,199,128,48,-23,-41
-35,-59,-29,39,-1,-46,164,211,134,54,-17,-41
-35,-59,-29,39,-6,-46,164,217,146,60,-11,-35
-35,-59,-23,45,-12,-46,164,223,152,66,-5,-35
-35,-59,-17,45,-18,-46,170,229,158,72,0,-35
-35,-53,-11,45,-18,-40,176,241,170,78,6,-35
-29,-41,-11,33,-18,-34,182,253,182,90,18,-29
-23,-29,-11,27,-18,-28,188,259,194,102,24,-23
-23,-23,-5,21,-18,-22,188,265,200,114,30,-17
-17,-11,0,9,-18,-16,188,277,212,126,42,-5
-11,0,6,-3,-18,-10,188,289,230,138,54,12
-5,6,12,-8,-18,-4,188,301,242,150,66,24
0,18,12,-14,-18,7,194,307,260,162,78,36
6,24,12,-20,-18,13,200,313,272,174,90,48
6,30,12,-26,-18,19,200,319,278,186,102,54
12,36,18,-32,-18,25,200,325,284,204,114,60
12,42,24,-32,-18,37,200,331,290,216,126,66
12,48,36,-32,-24,43,200,331,302,228,138,78
12,54,42,-32,-24,49,200,337,308,240,150,90
12,54,48,-32,-24,49,200,337,314,246,156,102
12,54,54,-32,-24,49,200,337,320,258,168,108
12,60,54,-38,-24,55,200,343,326,270,180,120
12,72,60,-44,-24,67,200,343,338,282,192,126
24,102,66,-62,-24,79,194,343,350,294,210,138
36,120,66,-80,-24,91,194,343,362,312,228,150
42,126,72,-92,-24,103,194,343,368,330,240,162
54,156,78,-110,-24,115,194,343,380,348,270,186
84,192,84,-140,-24,127,194,349,386,378,288,210
96,210,90,-152,-24,139,194,349,392,390,300,222
102,216,96,-158,-24,145,194,349,398,396,306,234
108,228,108,-164,-24,157,188,349,398,402,318,240
108,234,120,-170,-24,169,182,349,404,408,324,246
108,234,126,-170,-24,175,176,343,404,408,330,246
108,234,126,-170,-24,175,164,337,404,408,330,246
102,234,132,-170,-24,175,152,325,404,408,336,246
96,234,138,-170,-30,175,134,319,404,408,336,246
90,234,138,-170,-36,175,122,313,404,408,336,252
90,234,138,-170,-36,181,116,307,404,414,342,258
102,246,138,-182,-36,187,116,307,404,420,354,270
102,252,144,-188,-36,193,116,307,404,426,360,276
102,252,150,-188,-36,193,110,295,404,426,360,276
96,252,156,-188,-42,193,104,289,404,426,360,276
96,252,156,-188,-42,193,98,289,404,426,366,282
96,252,162,-188,-42,199,98,289,404,426,372,288
96,252,168,-188,-42,205,92,289,404,426,372,294
96,252,168,-188,-42,205,86,283,398,426,372,294
96,252,168,-188,-42,205,80,277,392,426,372,294
96,258,174,-188,-42,205,74,271,386,426,372,294
96,258,174,-188,-42,211,74,259,380,426,372,294
96,258,174,-188,-42,211,74,247,380,426,372,294
96,258,174,-182,-42,211,68,241,374,426,372,294
96,258,174,-182,-42,211,68,235,368,420,372,294
96,258,174,-182,-42,211,68,229,362,414,372,294
96,258,174,-182,-42,211,62,223,356,402,366,294
96,258,174,-182,-42,211,56,217,350,396,360,294
96,252,174,-176,-42,205,50,211,338,390,354,294
96,246,174,-170,-42,205,50,205,332,384,348,288
96,240,168,-170,-42,205,50,193,320,372,336,282
90,234,162,-164,-42,199,44,181,296,348,324,270
78,228,162,-152,-42,199,38,157,272,324,294,258
60,210,162,-140,-48,187,32,139,260,312,282,246
42,180,156,-110,-48,169,32,127,248,300,264,234
36,168,144,-104,-48,157,32,121,236,276,252,222
36,162,132,-104,-48,151,32,115,224,264,246,216
36,156,126,-104,-48,145,32,109,218,258,240,210
36,150,120,-98,-48,139,26,103,206,246,234,198
36,144,114,-98,-48,133,26,97,194,234,222,186
36,144,108,-98,-48,127,20,85,182,222,210,174
36,138,108,-98,-48,121,20,73,170,210,198,162
36,138,102,-92,-48,115,20,61,152,192,168,150
36,138,90,-92,-42,109,20,49,140,180,156,138
36,132,84,-92,-36,97,20,37,128,162,144,132
36,120,78,-80,-36,91,14,25,116,144,132,120
30,96,72,-68,-36,79,8,13,98,132,120,108
30,78,66,-62,-36,67,2,7,86,120,114,96
30,66,60,-56,-36,61,2,1,74,108,108,84
30,60,54,-50,-30,55,2,-5,62,96,96,72
30,54,48,-44,-30,55,2,-10,50,84,90,66
24,48,42,-38,-30,49,2,-16,44,78,78,54
18,36,36,-32,-30,43,2,-22,38,66,66,42
18,30,30,-26,-30,31,-4,-28,32,54,54,36
12,24,24,-20,-30,25,-4,-34,26,48,42,30
6,18,24,-14,-30,19,-9,-40,20,42,36,24
0,12,24,-8,-30,13,-9,-46,8,30,30,18
0,6,24,-3,-30,7,-9,-52,2,24,24,12
0,6,24,-3,-30,7,-9,-52,-4,18,18,6
0,0,24,-3,-24,7,-9,-52,-9,12,18,6
-5,-11,18,9,-24,1,-15,-52,-15,6,18,0
-11,-23,12,21,-24,-10,-21,-58,-21,0,12,-5
-17,-29,12,27,-24,-16,-21,-64,-27,-5,6,-11
-17,-29,12,27,-24,-16,-21,-64,-27,-11,0,-17
-17,-23,12,27,-24,-16,-21,-64,-27,-11,0,-17
-17,-23,12,27,-24,-16,-21,-64,-27,-11,-5,-17
-17,-29,6,27,-24,-16,-21,-64,-27,-17,-5,-17
-23,-35,6,27,-24,-16,-21,-64,-27,-17,-11,-23
-29,-41,6,33,-24,-16,-21,-64,-27,-23,-17,-29
-35,-47,6,33,-24,-16,-21,-64,-27,-23,-23,-29
-35,-47,6,33,-24,-16,-21,-64,-27,-23,-23,-29
-29,-41,6,33,-24,-16,-21,-64,-27,-23,-23,-29
-29,-35,6,33,-24,-16,-21,-64,-27,-23,-23,-29
-29,-29,6,33,-24,-16,-15,-64,-27,-23,-23,-29
-29,-29,6,33,-24,-16,-9,-64,-27,-23,-29,-35
-29,-29,6,33,-24,-16,-9,-64,-27,-29,-29,-35
-29,-29,0,33,-24,-16,-9,-64,-27,-29,-29,-35
-29,-29,0,33,-24,-16,-9,-64,-27,-29,-29,-35
-29,-29,0,33,-24,-16,-9,-64,-27,-29,-29,-35
-29,-29,0,33,-24,-16,-4,-64,-27,-29,-29,-35
-29,-29,0,33,-24,-16,-4,-58,-27,-35,-29,-35
-29,-29,0,33,-24,-16,-4,-58,-27,-35,-35,-41
-29,-29,0,33,-24,-16,-4,-58,-27,-41,-35,-41
-29,-29,0,33,-24,-16,-4,-58,-27,-41,-35,-47
-29,-29,0,33,-24,-16,-4,-58,-27,-41,-41,-47
-35,-35,0,33,-24,-22,-4,-58,-27,-41,-41,-47
-41,-41,0,39,-24,-22,-4,-58,-27,-41,-41,-47
-41,-47,0,45,-24,-22,-4,-58,-27,-47,-41,-47
-41,-47,0,45,-24,-22,-4,-58,-27,-47,-41,-47
-41,-47,0,45,-24,-22,-4,-58,-27,-47,-41,-47
-41,-47,0,45,-24,-22,-4,-58,-27,-47,-41,-47
-41,-47,0,45,-24,-22,-4,-58,-27,-47,-41,-47
-41,-47,0,45,-24,-22,-4,-58,-27,-47,-41,-47
-47,-47,0,51,-24,-22,-4,-58,-27,-47,-41,-47
-47,-47,0,51,-24,-22,-4,-58,-27,-47,-41,-47
-47,-47,0,51,-24,-22,-4,-58,-27,-47,-41,-47
-41,-41,0,45,-24,-22,-4,-52,-27,-47,-35,-47
-35,-35,0,33,-24,-22,2,-46,-27,-47,-35,-47
-29,-29,0,27,-24,-22,2,-46,-27,-47,-35,-47
-29,-29,0,27,-24,-22,2,-46,-27,-47,-35,-47
-29,-29,0,27,-24,-22,2,-46,-27,-47,-35,-47
-29,-29,0,27,-24,-22,2,-46,-27,-47,-35,-47
-29,-29,0,33,-24,-22,2,-46,-27,-47,-35,-47
-29,-29,0,33,-24,-22,2,-46,-27,-47,-35,-47
-29,-29,0,33,-24,-22,2,-46,-27,-47,-35,-47
-29,-29,0,33,-24,-22,2,-46,-27,-47,-35,-47
-29,-29,0,33,-24,-22,2,-46,-27,-47,-35,-47
-29,-29,0,33,-24,-22,2,-46,-27,-47,-35,-47
-29,-35,0,33,-24,-22,2,-46,-27,-47,-35,-47
-29,-35,0,33,-24,-22,2,-46,-27,-47,-35,-47
-23,-35,0,27,-18,-22,2,-46,-27,-47,-35,-47
-17,-29,0,21,-18,-22,2,-46,-27,-47,-35,-47
-17,-29,0,21,-18,-22,2,-46,-27,-47,-35,-47
-11,-23,0,15,-18,-22,2,-46,-27,-47,-35,-47
-5,-23,0,9,-12,-22,2,-46,-27,-47,-35,-47
-5,-23,0,9,-12,-22,2,-46,-27,-47,-35,-47
-5,-23,0,9,-12,-22,-4,-46,-27,-47,-35,-47
-5,-23,0,9,-12,-22,-9,-46,-27,-47,-35,-47
-5,-23,0,9,-12,-22,-9,-46,-27,-47,-35,-47
-5,-23,0,9,-12,-22,-9,-46,-27,-47,-35,-47
-5,-23,0,9,-12,-22,-15,-46,-27,-47,-35,-47
-5,-23,0,9,-12,-22,-21,-52,-27,-47,-35,-47
-5,-23,0,9,-12,-22,-27,-58,-33,-47,-35,-47
-11,-23,0,9,-12,-22,-33,-64,-39,-53,-35,-47
-17,-29,0,15,-12,-22,-39,-64,-45,-59,-41,-47
-17,-35,0,15,-12,-22,-39,-64,-51,-65,-41,-47
-23,-35,0,21,-12,-22,-39,-70,-51,-65,-41,-47
-23,-35,0,21,-12,-22,-39,-70,-51,-65,-47,-47
-23,-35,0,21,-12,-22,-39,-70,-51,-71,-47,-47
-23,-35,0,21,-12,-22,-39,-76,-57,-77,-47,-47
-29,-41,0,27,-18,-22,-45,-76,-63,-83,-53,-53
-29,-41,0,33,-18,-22,-51,-76,-69,-83,-53,-53
-29,-41,-5,33,-18,-28,-51,-82,-69,-83,-59,-53
-23,-41,-11,33,-18,-28,-51,-82,-69,-83,-59,-53
-23,-41,-11,33,-18,-28,-51,-82,-69,-83,-59,-53
-29,-47,-11,33,-18,-28,-51,-88,-69,-89,-59,-53
-35,-53,-11,39,-18,-34,-51,-94,-69,-95,-59,-53
-41,-59,-17,45,-18,-40,-51,-100,-69,-101,-59,-53
-41,-65,-17,51,-18,-40,-51,-100,-69,-101,-59,-53
-47,-71,-17,57,-18,-40,-51,-100,-75,-107,-59,-53
-53,-77,-17,63,-18,-46,-57,-106,-81,-113,-65,-59
-59,-77,-17,69,-18,-52,-63,-112,-87,-119,-65,-59
-59,-77,-17,69,-18,-52,-63,-112,-87,-119,-65,-59
-53,-77,-17,63,-18,-52,-63,-112,-87,-119,-65,-59
-47,-71,-17,57,-18,-52,-63,-112,-87,-119,-65,-59
-47,-71,-17,51,-18,-52,-63,-112,-87,-119,-65,-59
-47,-71,-17,51,-18,-52,-69,-112,-87,-125,-71,-59
-47,-71,-17,51,-18,-52,-69,-112,-87,-131,-71,-59
-41,-59,-17,45,-18,-46,-69,-112,-87,-131,-71,-59
-35,-53,-17,39,-18,-46,-69,-112,-87,-131,-71,-59
-35,-53,-17,39,-18,-46,-69,-118,-93,-131,-71,-59
-35,-53,-17,39,-18,-46,-69,-118,-93,-131,-77,-59
-35,-53,-17,39,-18,-46,-69,-118,-93,-131,-77,-59
-41,-59,-17,45,-18,-46,-69,-124,-99,-131,-83,-59
-47,-71,-17,57,-18,-46,-75,-130,-99,-137,-89,-65
-53,-77,-17,63,-18,-52,-81,-136,-105,-143,-89,-71
-53,-77,-17,63,-18,-52,-81,-142,-111,-149,-89,-71
-53,-77,-17,63,-18,-52,-81,-142,-111,-149,-89,-71
-47,-71,-17,57,-18,-52,-81,-142,-111,-149,-89,-71
-41,-65,-17,51,-18,-52,-81,-142,-111,-149,-89,-71
-41,-65,-17,51,-18,-52,-81,-142,-111,-149,-89,-71
-41,-65,-17,51,-18,-52,-81,-142,-117,-155,-89,-77
-41,-65,-17,51,-18,-52,-81,-142,-117,-155,-89,-83
-41,-65,-17,51,-18,-52,-81,-142,-117,-155,-89,-83
-41,-65,-17,51,-18,-52,-81,-142,-117,-155,-89,-83
-41,-65,-17,51,-18,-52,-81,-142,-117,-155,-89,-83
-41,-65,-17,51,-18,-52,-81,-142,-117,-155,-89,-83
-41,-65,-17,51,-18,-52,-81,-142,-117,-155,-89,-83
-41,-65,-17,51,-18,-52,-81,-136,-117,-155,-89,-83
-41,-53,-17,45,-18,-46,-81,-136,-111,-149,-83,-83
-41,-41,-11,39,-18,-34,-81,-136,-111,-149,-77,-83
-41,-35,0,39,-24,-22,-75,-136,-105,-149,-77,-83
-41,-29,6,39,-30,-10,-69,-130,-105,-143,-71,-83
-41,-23,12,33,-30,-4,-63,-118,-99,-137,-71,-77
-35,-11,18,21,-30,1,-57,-112,-93,-137,-71,-71
-35,-5,18,15,-30,7,-51,-106,-87,-131,-65,-65
-35,0,24,15,-30,13,-45,-100,-81,-131,-65,-65
-35,0,30,9,-30,13,-45,-94,-81,-131,-65,-65
-29,6,30,3,-30,19,-39,-88,-81,-125,-59,-59
-23,18,36,-3,-30,25,-33,-82,-75,-119,-53,-59
-23,30,42,-8,-30,37,-33,-82,-69,-113,-47,-59
-17,36,48,-14,-30,43,-27,-76,-63,-107,-41,-53
-17,42,48,-20,-30,49,-21,-76,-57,-101,-35,-47
-17,48,60,-20,-36,55,-21,-76,-57,-101,-29,-47
-23,54,72,-20,-48,61,-21,-76,-57,-101,-29,-41
-23,66,84,-26,-54,73,-21,-76,-51,-95,-23,-35
-23,78,90,-32,-54,85,-27,-76,-45,-83,-17,-29
-11,96,90,-44,-54,91,-33,-76,-45,-77,-11,-23
0,108,90,-62,-54,97,-45,-76,-45,-71,-5,-17
6,120,96,-74,-54,103,-57,-76,-45,-71,-5,-17
6,120,96,-74,-54,103,-69,-82,-45,-71,-5,-17
6,120,96,-74,-54,103,-87,-88,-45,-71,-5,-17
6,120,96,-74,-54,103,-99,-94,-45,-71,-5,-11
12,120,90,-74,-48,103,-105,-94,-45,-71,-5,-5
24,120,90,-74,-42,103,-111,-94,-45,-71,-5,-5
30,120,90,-74,-42,103,-111,-94,-45,-71,-5,0
30,126,90,-74,-42,103,-111,-94,-45,-71,-5,0
30,126,90,-74,-36,103,-111,-94,-45,-71,-5,0
30,126,84,-74,-30,103,-117,-94,-45,-71,-5,0
30,120,72,-74,-24,91,-123,-100,-45,-71,-5,6
30,96,54,-74,-18,73,-129,-106,-51,-77,-5,6
30,78,42,-68,-12,61,-129,-106,-57,-83,-5,6
36,72,30,-68,-6,55,-129,-106,-57,-83,-5,6
36,72,24,-68,-1,49,-129,-106,-57,-83,-5,6
42,66,18,-68,5,43,-129,-106,-63,-83,-5,6
42,66,12,-68,5,37,-129,-106,-75,-89,-5,6
42,60,0,-62,11,25,-129,-106,-87,-95,-11,0
36,36,0,-50,11,13,-129,-106,-93,-107,-23,-11
24,24,0,-38,11,7,-129,-106,-99,-113,-29,-23
18,12,-5,-26,11,1,-129,-106,-99,-119,-35,-35
12,6,-5,-14,11,-4,-129,-106,-99,-119,-41,-41
6,-5,-5,-3,11,-10,-129,-112,-105,-131,-47,-47
0,-17,-11,9,5,-16,-129,-118,-117,-143,-59,-59
-5,-29,-23,15,5,-22,-129,-130,-129,-155,-71,-71
-11,-41,-29,21,5,-34,-129,-136,-135,-167,-77,-77
-17,-53,-35,33,5,-46,-129,-136,-141,-173,-83,-83
-29,-77,-47,57,5,-58,-129,-136,-147,-179,-89,-89
-35,-101,-59,69,5,-76,-129,-136,-153,-185,-95,-95
-35,-107,-71,75,11,-88,-129,-136,-153,-191,-101,-101
-35,-113,-77,75,17,-94,-129,-136,-153,-191,-101,-101
-35,-113,-83,75,17,-94,-129,-136,-153,-197,-101,-101
-35,-113,-83,75,17,-100,-129,-136,-159,-203,-107,-107
-35,-113,-83,75,17,-100,-129,-136,-159,-203,-113,-107
-29,-113,-83,75,17,-100,-129,-136,-159,-203,-113,-107
-23,-113,-83,69,17,-100,-129,-136,-159,-209,-113,-113
-23,-113,-83,69,17,-100,-129,-136,-159,-209,-113,-113
-23,-113,-83,69,17,-100,-129,-136,-159,-209,-113,-113
-29,-113,-83,69,17,-100,-129,-142,-159,-209,-119,-119
-29,-113,-83,69,17,-100,-129,-148,-165,-209,-125,-119
-29,-113,-83,69,17,-100,-129,-148,-171,-209,-125,-119
-29,-113,-83,69,17,-100,-129,-148,-171,-209,-125,-119
-29,-107,-83,63,17,-100,-129,-148,-171,-209,-125,-119
-29,-107,-83,63,17,-100,-129,-148,-171,-209,-125,-125
-29,-107,-83,63,17,-100,-129,-154,-171,-209,-125,-131
-35,-119,-83,69,17,-100,-129,-154,-171,-209,-125,-137
-35,-119,-83,75,17,-100,-129,-154,-171,-209,-125,-143
-35,-119,-83,75,17,-100,-129,-154,-171,-209,-125,-143
-35,-119,-83,75,17,-100,-129,-154,-171,-209,-131,-143
-35,-119,-83,75,17,-100,-129,-154,-171,-209,-131,-143
-35,-119,-83,75,17,-100,-129,-154,-171,-209,-131,-143
-35,-119,-83,75,17,-100,-129,-154,-171,-215,-131,-143
-41,-119,-83,81,17,-100,-129,-154,-171,-215,-131,-143
-41,-119,-83,81,17,-100,-129,-154,-171,-215,-131,-143
-29,-113,-83,75,23,-100,-129,-154,-171,-215,-131,-143
-23,-113,-83,75,23,-100,-129,-154,-171,-215,-131,-143
-23,-113,-89,75,29,-106,-129,-154,-171,-215,-131,-149
-23,-125,-101,75,29,-118,-129,-154,-171,-215,-137,-155
-23,-143,-125,81,41,-142,-123,-142,-171,-221,-143,-161
-23,-155,-143,81,53,-154,-117,-106,-171,-227,-155,-167
-23,-167,-155,81,59,-166,-87,-46,-165,-227,-161,-179
-23,-167,-155,81,59,-166,-21,61,-105,-221,-161,-185
-23,-167,-155,81,59,-166,92,229,8,-191,-161,-191
-23,-161,-149,81,59,-154,218,403,134,-131,-149,-191
-23,-119,-107,69,47,-112,338,553,278,-23,-95,-185
-23,-17,12,33,5,-4,446,661,428,114,36,-107
-23,114,138,-20,-66,121,530,721,566,282,198,24
-11,258,234,-104,-90,241,572,739,674,438,366,180
48,414,312,-224,-102,355,578,739,770,630,576,366
120,600,414,-368,-114,499,572,727,896,858,828,594
204,798,516,-500,-126,655,482,685,1028,1128,1122,864
330,1002,612,-668,-126,811,326,625,1166,1410,1446,1128
492,1224,660,-860,-120,955,116,529,1298,1692,1758,1392
648,1416,702,-1040,-84,1057,-111,409,1370,1926,2022,1626
792,1560,720,-1172,-18,1135,-375,229,1388,2087,2243,1836
876,1692,774,-1280,5,1231,-663,37,1394,2237,2446,2051
876,1860,1002,-1322,-54,1435,-945,-232,1382,2291,2596,2231
732,1968,1296,-1322,-282,1633,-1167,-568,1160,2255,2596,2303
540,1938,1362,-1244,-420,1633,-1245,-850,812,1878,2351,2249
384,1554,1230,-968,-420,1399,-1263,-1084,338,1278,1776,1824
258,1110,906,-698,-372,1009,-1269,-1324,-243,540,1062,1272
144,744,642,-458,-294,685,-1263,-1468,-699,-59,450,804
72,444,414,-254,-234,433,-1167,-1468,-903,-383,66,438
18,210,234,-110,-168,229,-1017,-1354,-921,-503,-137,192
-23,42,114,-8,-120,79,-861,-1156,-915,-533,-227,24
-47,-47,48,45,-90,1,-705,-958,-837,-551,-293,-101
-59,-95,6,75,-60,-52,-549,-772,-717,-551,-323,-167
-65,-125,-29,93,-48,-82,-441,-622,-603,-533,-329,-191
-71,-143,-47,105,-36,-100,-363,-508,-513,-485,-323,-197
-71,-143,-53,111,-24,-100,-291,-400,-429,-431,-311,-197
-71,-143,-53,111,-18,-100,-237,-310,-363,-371,-281,-197
-71,-143,-53,111,-12,-100,-183,-232,-309,-335,-251,-191
-71,-143,-59,111,-12,-100,-147,-190,-267,-305,-233,-185
-71,-143,-59,111,-12,-100,-123,-172,-243,-293,-221,-179
-71,-143,-65,111,-12,-100,-111,-160,-219,-281,-215,-179
-71,-143,-65,111,-12,-100,-105,-148,-207,-275,-209,-179
-71,-143,-65,111,-12,-100,-99,-142,-201,-269,-203,-179
-71,-143,-65,111,-12,-100,-87,-136,-195,-263,-203,-179
-71,-143,-65,111,-12,-100,-75,-124,-189,-263,-197,-179
-65,-143,-71,111,-6,-100,-63,-100,-177,-257,-191,-179
-65,-143,-71,111,-1,-100,-57,-88,-171,-251,-191,-173
-65,-143,-71,111,-1,-100,-51,-82,-165,-251,-191,-173
-65,-143,-71,111,-1,-100,-51,-82,-165,-251,-191,-173
-71,-149,-71,117,-1,-106,-51,-82,-165,-251,-191,-173
-71,-155,-71,117,-1,-112,-51,-76,-165,-251,-191,-173
-71,-155,-77,117,-1,-112,-45,-76,-159,-251,-191,-173
-71,-155,-83,117,-1,-118,-45,-70,-159,-245,-191,-173
-71,-161,-83,117,-1,-124,-45,-70,-159,-245,-191,-173
-71,-161,-83,117,-1,-124,-45,-64,-159,-245,-191,-173
-71,-155,-83,117,-1,-124,-45,-58,-153,-239,-191,-173
-71,-155,-83,117,-1,-124,-45,-52,-147,-233,-185,-173
-71,-155,-83,117,-1,-124,-45,-52,-141,-233,-185,-173
-71,-155,-83,111,-1,-124,-45,-52,-141,-233,-185,-173
-65,-155,-83,111,-1,-124,-39,-52,-141,-233,-185,-173
-65,-155,-83,111,-1,-124,-39,-52,-141,-227,-185,-173
-65,-155,-83,111,-1,-124,-39,-52,-141,-227,-185,-173
-65,-155,-83,111,-1,-124,-39,-52,-141,-227,-185,-173
-65,-155,-83,111,-1,-124,-33,-46,-141,-221,-185,-173
-65,-155,-83,111,-1,-124,-33,-40,-135,-221,-185,-173
-65,-149,-83,111,-1,-124,-33,-34,-129,-215,-179,-173
-65,-149,-83,111,-1,-124,-27,-28,-123,-215,-173,-173
-65,-149,-83,111,-1,-124,-21,-22,-117,-209,-173,-167
-65,-149,-83,111,-1,-124,-21,-16,-117,-209,-173,-161
-65,-149,-83,111,-1,-124,-15,-10,-117,-209,-173,-161
-59,-149,-83,105,5,-124,-9,-10,-111,-203,-167,-161
-53,-149,-83,99,11,-124,-4,-10,-111,-203,-161,-161
-53,-149,-83,99,11,-124,-4,-10,-111,-203,-161,-161
-53,-149,-83,99,11,-124,-4,-10,-111,-197,-161,-161
-53,-149,-83,99,11,-124,-4,-5,-111,-191,-161,-161
-53,-149,-83,99,11,-124,-4,-5,-111,-191,-161,-161
-53,-149,-83,99,11,-124,-4,-5,-111,-191,-161,-161
-53,-149,-83,99,11,-124,2,1,-111,-191,-161,-161
-53,-149,-83,99,11,-124,8,7,-105,-185,-161,-155
-53,-149,-83,99,11,-124,8,13,-99,-185,-161,-155
-53,-149,-83,99,11,-124,14,19,-93,-185,-161,-155
-53,-149,-83,99,11,-124,14,19,-93,-185,-161,-155
-59,-155,-83,111,11,-124,14,25,-93,-185,-161,-155
-59,-155,-83,111,11,-124,14,31,-93,-185,-161,-155
-59,-149,-83,105,11,-124,14,37,-87,-179,-161,-155
-59,-149,-83,105,11,-124,14,37,-87,-179,-161,-155
-59,-149,-83,105,11,-124,14,37,-87,-179,-161,-155
-59,-149,-83,105,11,-124,14,43,-87,-179,-161,-155
-59,-149,-83,99,11,-124,20,49,-81,-173,-155,-155
-59,-149,-83,99,11,-124,26,55,-81,-167,-149,-149
-59,-149,-83,99,11,-124,26,55,-75,-167,-149,-149
-59,-149,-83,99,11,-124,26,55,-75,-167,-149,-149
-59,-149,-83,99,17,-124,32,61,-75,-161,-149,-149
-53,-143,-83,99,17,-124,38,67,-69,-155,-143,-143
-53,-143,-83,99,17,-124,44,73,-63,-155,-143,-143
-53,-143,-83,99,17,-124,50,79,-57,-155,-143,-143
-53,-143,-83,105,17,-124,56,85,-51,-155,-143,-143
-53,-143,-83,105,17,-124,56,91,-45,-149,-137,-137
-53,-143,-83,105,17,-124,56,97,-39,-143,-137,-137
-53,-143,-83,105,17,-124,62,103,-39,-137,-131,-137
-53,-143,-83,105,17,-124,68,115,-33,-137,-131,-131
-53,-143,-83,105,17,-124,74,121,-27,-137,-131,-131
-53,-143,-83,105,17,-124,80,133,-27,-137,-131,-131
-53,-143,-83,105,17,-124,86,145,-21,-131,-125,-125
-47,-131,-83,93,17,-118,86,157,-9,-125,-119,-119
-41,-125,-83,87,17,-112,86,163,-4,-119,-113,-119
-41,-125,-83,87,17,-112,86,169,8,-113,-107,-119
-41,-125,-83,87,17,-112,86,175,14,-107,-107,-119
-41,-119,-77,87,17,-106,86,181,20,-101,-101,-119
-35,-107,-71,75,17,-94,92,193,32,-89,-95,-113
-23,-77,-65,63,17,-82,98,205,44,-77,-83,-107
-17,-71,-59,57,17,-76,104,217,56,-65,-77,-107
-17,-65,-53,57,11,-70,110,223,62,-59,-71,-101
-17,-59,-47,57,11,-64,110,235,68,-53,-65,-95
-17,-53,-41,51,11,-58,116,247,74,-47,-59,-89
-17,-47,-35,45,11,-52,122,259,86,-41,-53,-83
-11,-35,-35,33,11,-40,128,265,98,-35,-41,-77
-5,-23,-29,27,11,-34,128,271,110,-29,-35,-71
-5,-17,-17,27,5,-28,128,277,116,-23,-29,-65
-5,-11,-11,21,-1,-22,128,283,128,-11,-17,-53
6,6,-5,3,-1,-10,134,295,146,6,-5,-35
12,24,6,-8,-1,1,134,301,158,24,6,-23
12,36,12,-14,-1,13,134,307,164,36,18,-11
18,48,18,-20,-1,19,134,313,170,60,36,0
24,54,24,-26,-1,25,134,319,176,72,54,12
24,60,30,-32,-1,31,134,325,188,84,66,24
24,60,36,-32,-6,37,134,325,194,90,78,30
24,66,42,-38,-6,43,134,325,200,102,90,42
30,72,48,-44,-6,55,134,331,212,108,102,54
36,84,54,-56,-6,67,134,337,218,120,114,66
36,90,54,-62,-6,73,134,337,230,132,126,78
36,102,60,-68,-6,79,128,337,236,144,138,90
42,114,66,-74,-6,85,128,337,242,156,150,102
42,126,72,-80,-6,91,128,337,248,168,162,114
48,138,78,-92,-6,103,128,337,248,180,174,120
54,150,78,-104,-6,109,122,337,254,186,186,126
54,156,84,-104,-6,115,116,337,260,192,192,132
54,156,90,-104,-12,115,104,337,260,198,204,138
54,156,96,-104,-18,121,98,331,260,204,216,150
60,162,102,-110,-18,127,92,331,266,216,228,162
66,174,108,-116,-18,139,86,331,272,222,240,174
66,186,120,-122,-18,145,80,325,272,228,246,180
72,198,126,-128,-18,151,80,325,272,234,252,192
78,204,132,-134,-18,157,74,319,278,240,258,198
72,204,138,-134,-24,157,68,313,278,240,264,204
66,204,144,-134,-30,163,62,307,278,240,270,210
66,210,150,-134,-30,169,62,307,278,246,276,216
66,210,150,-134,-30,175,62,301,278,252,282,222
66,210,156,-134,-36,175,56,295,278,252,288,222
66,210,156,-134,-36,181,56,289,278,252,288,228
78,222,156,-146,-36,187,56,289,278,258,288,234
90,246,156,-158,-36,193,56,283,278,264,294,240
96,252,156,-170,-36,199,56,283,278,270,294,246
102,258,156,-176,-36,199,56,283,278,270,294,246
108,264,156,-182,-36,199,56,277,278,270,300,246
108,264,156,-188,-36,199,56,277,278,270,300,246
108,264,156,-188,-36,199,56,271,278,270,300,246
108,264,156,-188,-36,199,56,265,278,270,300,246
108,264,156,-188,-36,199,56,259,272,270,300,246
108,264,156,-188,-36,199,56,247,266,258,300,246
108,258,156,-182,-36,199,56,241,260,252,294,246
102,252,156,-170,-36,199,56,229,254,246,288,240
90,246,156,-158,-42,193,56,217,242,234,282,234
84,234,156,-152,-48,193,56,205,236,228,270,228
84,228,156,-146,-48,193,56,199,230,216,258,222
84,228,156,-146,-48,187,50,193,224,210,252,216
84,216,150,-146,-48,181,44,181,212,198,240,204
78,204,138,-140,-48,175,38,169,200,180,228,192
72,198,138,-134,-48,169,32,157,188,168,216,180
72,192,138,-128,-48,163,32,145,176,150,204,168
66,180,132,-122,-48,157,32,133,158,138,192,156
66,168,126,-116,-48,145,32,121,146,126,180,150
66,156,120,-110,-48,133,32,97,134,108,168,138
54,138,114,-92,-48,121,26,79,116,90,138,120
24,108,108,-62,-48,103,20,67,92,60,114,102
18,90,102,-50,-48,91,14,55,80,48,102,90
18,84,90,-50,-48,85,14,49,68,36,90,78
18,78,78,-50,-42,79,14,43,62,24,78,72
18,66,66,-38,-42,67,14,31,50,6,66,60
6,30,54,-20,-42,43,8,13,26,-17,48,48
-11,0,42,9,-42,25,2,-10,2,-29,30,36
-17,-5,36,15,-42,13,2,-22,-9,-41,18,24
-17,-5,30,15,-42,7,2,-28,-15,-47,12,18
-17,-11,30,21,-42,1,2,-34,-21,-53,0,12
-23,-17,24,27,-42,-4,2,-40,-27,-65,-5,6
-23,-17,24,27,-42,-10,2,-46,-33,-77,-11,0
-23,-23,24,27,-42,-10,2,-46,-39,-83,-11,0
-29,-29,24,33,-42,-10,2,-52,-45,-95,-17,-5
-29,-29,18,33,-42,-10,2,-58,-51,-101,-23,-5
-29,-29,18,33,-42,-10,2,-64,-57,-107,-29,-11
-29,-29,18,39,-42,-16,-4,-70,-63,-113,-35,-17
-29,-35,12,39,-42,-16,-4,-70,-69,-119,-41,-23
-29,-35,6,39,-36,-16,-4,-70,-75,-125,-41,-23
-29,-35,6,39,-30,-16,-4,-70,-81,-125,-41,-23
-29,-41,6,45,-30,-22,-4,-76,-81,-125,-41,-29
-35,-47,6,45,-30,-22,-4,-76,-81,-125,-41,-35
-35,-47,6,45,-30,-22,-4,-76,-81,-131,-41,-35
-35,-41,6,39,-24,-22,-4,-76,-81,-131,-41,-35
-29,-35,6,33,-18,-22,-4,-76,-81,-131,-41,-35
-23,-29,6,27,-18,-22,-4,-76,-81,-131,-41,-35
-23,-29,6,27,-18,-22,-4,-76,-81,-131,-41,-35
-23,-29,6,27,-18,-22,-4,-76,-81,-131,-41,-41
-29,-29,6,33,-24,-22,-4,-76,-81,-131,-41,-47
-35,-35,6,39,-24,-22,-4,-76,-81,-131,-41,-53
-35,-35,6,39,-24,-22,-4,-76,-81,-131,-41,-53
-35,-35,6,39,-24,-22,-4,-76,-81,-131,-41,-53
-35,-35,0,39,-24,-22,-4,-76,-81,-131,-41,-53
-35,-41,0,45,-24,-28,-4,-76,-81,-131,-41,-53
-41,-41,0,45,-24,-28,-4,-76,-81,-137,-41,-53
-41,-41,0,45,-24,-28,-4,-76,-81,-137,-47,-59
-41,-41,0,45,-24,-34,-4,-76,-81,-143,-47,-65
-41,-47,0,45,-24,-34,-4,-76,-81,-149,-47,-65
-41,-53,0,45,-24,-34,-4,-76,-81,-149,-47,-65
-53,-65,0,57,-24,-40,-4,-76,-81,-149,-47,-65
-59,-77,0,69,-24,-40,-4,-76,-81,-149,-53,-71
-71,-83,0,81,-24,-40,-4,-76,-81,-149,-59,-71
-77,-89,0,93,-30,-40,-4,-76,-81,-155,-65,-77
-77,-89,0,93,-30,-40,-4,-76,-81,-155,-65,-77
-71,-83,0,87,-30,-40,-4,-76,-81,-155,-65,-77
-65,-77,0,81,-30,-40,-4,-76,-81,-155,-65,-77
-65,-71,0,75,-30,-40,2,-76,-81,-155,-65,-77
-59,-65,0,63,-30,-40,2,-70,-81,-155,-65,-77
-59,-59,0,57,-30,-40,2,-70,-81,-155,-65,-77
-59,-59,0,57,-30,-40,2,-70,-81,-155,-65,-77
-59,-59,0,57,-30,-40,8,-70,-81,-155,-65,-77
-59,-59,0,57,-30,-40,14,-70,-81,-155,-65,-77
-59,-59,0,57,-30,-40,14,-70,-81,-155,-65,-77
-59,-59,0,57,-30,-40,14,-70,-81,-155,-65,-77
-59,-59,0,57,-30,-40,14,-70,-81,-155,-65,-77
-59,-59,0,57,-30,-40,14,-64,-75,-155,-65,-77
-59,-65,0,57,-30,-40,14,-64,-75,-155,-65,-77
-65,-71,0,63,-30,-40,14,-64,-75,-155,-65,-77
-65,-71,0,63,-30,-40,14,-64,-75,-155,-65,-77
-65,-65,0,63,-30,-40,14,-58,-75,-155,-65,-77
-59,-65,0,63,-30,-40,20,-52,-69,-149,-65,-77
-53,-65,0,63,-30,-40,20,-52,-63,-149,-65,-77
-53,-65,0,63,-30,-40,20,-52,-63,-149,-65,-77
-53,-65,0,63,-30,-40,20,-52,-63,-149,-65,-77
-53,-65,0,63,-30,-40,20,-52,-63,-149,-65,-77
-53,-65,0,63,-30,-40,20,-52,-63,-149,-65,-77
-53,-65,0,63,-30,-40,20,-52,-63,-149,-65,-77
-53,-65,-5,63,-30,-46,20,-52,-63,-149,-65,-77
-53,-65,-5,63,-30,-46,20,-52,-63,-149,-65,-77
-53,-65,-5,63,-30,-46,20,-52,-63,-149,-65,-77
-53,-65,-5,63,-30,-46,20,-52,-63,-149,-65,-77
-53,-65,-5,63,-30,-46,20,-52,-63,-149,-65,-77
-53,-71,-5,63,-30,-46,20,-52,-63,-149,-65,-77
-53,-71,-5,63,-30,-46,20,-52,-63,-149,-65,-77
-53,-71,-11,63,-30,-46,20,-52,-63,-149,-65,-77
-53,-71,-17,63,-30,-52,20,-52,-63,-149,-65,-77
-53,-71,-17,63,-30,-52,20,-52,-63,-149,-65,-77
-53,-71,-17,63,-30,-52,14,-52,-63,-149,-65,-77
-53,-77,-17,63,-30,-58,8,-52,-63,-149,-65,-77
-53,-83,-17,63,-30,-58,2,-52,-63,-149,-65,-77
-53,-83,-17,63,-30,-58,2,-52,-63,-149,-65,-77
-53,-83,-17,63,-30,-58,-4,-52,-63,-149,-65,-77
-59,-89,-17,69,-30,-58,-4,-58,-63,-149,-65,-83
-71,-95,-17,87,-36,-64,-9,-64,-63,-155,-65,-89
-77,-101,-17,93,-36,-70,-9,-70,-63,-155,-65,-95
-77,-101,-17,93,-36,-70,-9,-76,-63,-155,-65,-95
-71,-101,-17,93,-36,-70,-9,-76,-69,-155,-65,-95
-71,-101,-17,87,-36,-70,-9,-76,-69,-161,-65,-95
-65,-101,-23,81,-30,-70,-9,-76,-69,-161,-65,-95
-53,-95,-29,69,-24,-70,-9,-76,-69,-161,-65,-95
-47,-89,-29,63,-18,-70,-9,-76,-69,-161,-65,-95
-41,-89,-29,63,-18,-70,-15,-76,-69,-161,-65,-95
-41,-83,-29,63,-18,-70,-15,-76,-69,-161,-65,-95
-35,-77,-29,63,-18,-70,-15,-76,-69,-161,-65,-95
-35,-77,-29,63,-18,-70,-15,-76,-75,-167,-65,-95
-35,-77,-29,63,-18,-70,-15,-82,-81,-167,-65,-95
-35,-77,-29,63,-18,-70,-15,-82,-81,-167,-65,-95
-35,-77,-29,63,-18,-70,-15,-88,-81,-167,-65,-101
-35,-83,-35,63,-18,-70,-15,-88,-81,-167,-65,-101
-35,-83,-41,63,-18,-70,-15,-88,-87,-173,-65,-107
-35,-83,-41,63,-18,-70,-15,-94,-87,-179,-71,-113
-35,-83,-47,63,-18,-70,-15,-100,-87,-179,-77,-113
-29,-83,-47,57,-12,-70,-15,-100,-93,-179,-77,-113
-23,-83,-53,51,-1,-70,-15,-100,-93,-179,-77,-113
-23,-83,-53,51,5,-70,-21,-100,-93,-179,-77,-113
-23,-83,-53,51,5,-70,-21,-100,-93,-179,-77,-113
-23,-83,-53,51,5,-70,-21,-100,-93,-179,-77,-113
-23,-83,-53,51,5,-70,-21,-100,-93,-179,-77,-113
-23,-83,-53,51,5,-70,-21,-100,-93,-179,-77,-113
-23,-83,-53,51,5,-70,-21,-106,-93,-179,-77,-113
-23,-89,-53,51,5,-70,-27,-112,-93,-185,-83,-119
-29,-95,-53,57,5,-76,-27,-118,-99,-191,-83,-119
-35,-101,-53,63,5,-82,-27,-118,-99,-191,-83,-125
-35,-107,-53,69,5,-82,-27,-118,-105,-191,-83,-125
-35,-113,-53,69,5,-82,-33,-118,-105,-191,-89,-125
-41,-113,-53,75,5,-82,-33,-124,-105,-191,-89,-125
-47,-113,-53,75,5,-82,-33,-124,-105,-197,-95,-125
-47,-113,-53,75,-1,-82,-33,-124,-105,-197,-101,-125
-47,-113,-53,75,-1,-82,-33,-130,-105,-197,-101,-125
-47,-119,-53,75,-1,-82,-33,-130,-105,-197,-101,-125
-47,-119,-53,75,-1,-88,-33,-130,-105,-197,-101,-125
-47,-119,-53,75,-1,-88,-33,-130,-105,-197,-101,-125
-47,-119,-53,75,-1,-88,-33,-130,-105,-197,-101,-125
-47,-119,-53,75,-1,-88,-39,-130,-105,-203,-101,-125
-47,-119,-53,75,-1,-88,-39,-130,-105,-203,-101,-125
-47,-119,-53,75,-1,-88,-39,-130,-105,-203,-101,-125
-47,-119,-53,75,-1,-94,-39,-130,-105,-203,-101,-131
-47,-119,-53,75,-1,-100,-45,-136,-111,-209,-101,-137
-47,-119,-53,75,-1,-100,-45,-136,-117,-209,-101,-137
-47,-119,-53,75,-1,-100,-45,-136,-117,-209,-101,-137
-47,-119,-53,75,-1,-100,-45,-136,-117,-209,-101,-137
-47,-119,-53,75,-1,-100,-45,-136,-117,-209,-101,-137
-47,-119,-53,75,-1,-100,-45,-136,-117,-209,-101,-137
-47,-113,-47,69,-1,-88,-39,-136,-117,-203,-101,-137
-47,-89,-41,57,-1,-76,-33,-130,-105,-197,-95,-131
-41,-59,-35,51,-1,-64,-21,-118,-99,-185,-89,-125
-35,-47,-29,45,-1,-46,-15,-112,-93,-179,-83,-119
-29,-35,-17,39,-1,-34,-9,-106,-87,-173,-77,-113
-29,-35,-11,33,-1,-28,-4,-106,-81,-173,-71,-113
-29,-35,-5,33,-1,-22,-4,-106,-81,-173,-71,-107
-29,-35,0,33,-6,-22,-4,-106,-81,-173,-71,-107
-29,-35,0,33,-6,-22,-4,-106,-75,-173,-71,-101
-23,-23,0,21,-6,-16,2,-100,-69,-167,-65,-95
-17,-17,0,15,-6,-10,2,-100,-63,-161,-59,-89
-17,-17,6,15,-12,-10,2,-100,-63,-161,-59,-89
-17,-11,12,15,-18,-4,2,-100,-63,-161,-53,-89
-17,0,18,9,-18,1,2,-100,-57,-155,-47,-83
-5,30,24,-8,-18,19,2,-100,-51,-149,-41,-77
6,60,36,-38,-18,43,2,-100,-45,-143,-35,-71
12,66,42,-44,-18,55,2,-100,-39,-137,-29,-65
12,66,48,-44,-18,55,-4,-100,-39,-137,-29,-65
12,72,48,-44,-18,55,-9,-106,-39,-137,-29,-65
12,72,48,-44,-18,55,-21,-112,-39,-137,-29,-59
12,72,48,-44,-18,55,-33,-124,-39,-137,-29,-59
12,72,48,-44,-18,55,-45,-130,-39,-137,-29,-59
18,72,48,-44,-18,55,-57,-136,-39,-137,-29,-59
24,72,48,-44,-18,55,-69,-148,-39,-137,-29,-59
24,72,48,-44,-18,55,-75,-154,-45,-137,-29,-59
24,72,48,-44,-18,55,-81,-154,-51,-137,-29,-59
30,72,42,-44,-12,55,-87,-154,-51,-137,-29,-53
42,72,36,-50,-1,49,-87,-154,-51,-137,-29,-53
54,72,24,-56,11,49,-87,-154,-51,-137,-29,-53
60,66,12,-56,17,43,-87,-154,-51,-137,-29,-53
60,54,0,-56,23,31,-93,-160,-57,-137,-29,-53
60,42,-11,-56,29,13,-99,-166,-63,-137,-29,-53
60,36,-17,-56,35,1,-99,-172,-63,-137,-29,-53
60,30,-23,-50,35,-4,-99,-172,-63,-137,-29,-53
60,18,-29,-44,35,-10,-99,-172,-69,-143,-35,-53
60,6,-35,-38,35,-16,-99,-178,-75,-149,-35,-53
60,0,-41,-32,35,-22,-99,-184,-81,-155,-41,-53
60,-5,-41,-26,35,-28,-99,-184,-87,-167,-47,-59
48,-17,-41,-14,35,-34,-99,-184,-93,-173,-53,-65
18,-29,-41,9,29,-34,-99,-184,-99,-179,-65,-77
6,-35,-41,15,23,-34,-93,-184,-99,-179,-71,-83
6,-35,-41,15,23,-40,-87,-184,-99,-179,-71,-83
6,-47,-41,21,23,-46,-87,-184,-105,-185,-77,-89
0,-59,-47,27,23,-52,-87,-184,-111,-197,-83,-101
-5,-77,-53,39,23,-64,-87,-190,-117,-209,-89,-107
-5,-89,-59,45,23,-70,-87,-190,-117,-209,-95,-113
-5,-89,-65,45,23,-76,-81,-190,-117,-209,-95,-119
-5,-95,-77,51,29,-88,-81,-190,-117,-215,-101,-125
-11,-113,-83,63,29,-100,-81,-196,-123,-221,-113,-137
-17,-125,-89,69,29,-112,-81,-202,-135,-227,-119,-143
-17,-131,-95,75,29,-118,-81,-202,-141,-233,-125,-149
-17,-137,-101,81,29,-124,-81,-202,-147,-233,-125,-149
-23,-149,-101,87,29,-130,-81,-208,-153,-239,-131,-149
-35,-161,-101,99,29,-136,-81,-208,-153,-245,-137,-155
-35,-167,-101,99,29,-136,-81,-208,-153,-245,-137,-155
-35,-167,-101,99,29,-136,-81,-208,-153,-245,-137,-161
-41,-167,-101,99,29,-136,-81,-214,-153,-245,-137,-167
-47,-173,-101,99,29,-136,-81,-220,-153,-245,-143,-167
-47,-173,-101,99,29,-136,-81,-220,-153,-245,-143,-167
-41,-167,-107,99,29,-136,-81,-220,-153,-245,-143,-167
-41,-167,-107,99,29,-136,-81,-220,-153,-245,-143,-167
-41,-167,-107,99,29,-136,-81,-220,-153,-251,-149,-167
-41,-167,-107,99,29,-136,-81,-220,-153,-251,-149,-167
-41,-167,-107,99,29,-136,-81,-220,-153,-251,-149,-167
-41,-167,-107,99,29,-136,-81,-220,-153,-257,-149,-173
-41,-167,-107,99,29,-136,-81,-220,-153,-257,-149,-173
-41,-167,-107,99,35,-136,-81,-220,-153,-257,-149,-173
-35,-161,-107,93,41,-136,-81,-220,-153,-257,-149,-173
-29,-155,-107,87,47,-136,-81,-220,-153,-257,-149,-173
-29,-155,-107,87,47,-136,-81,-220,-153,-257,-149,-173
-29,-155,-107,93,41,-136,-81,-220,-153,-257,-149,-173
-35,-167,-107,99,35,-136,-81,-220,-153,-257,-155,-179
-35,-173,-107,99,35,-136,-81,-220,-153,-257,-155,-179
-35,-173,-113,99,35,-136,-81,-220,-153,-257,-155,-179
-35,-173,-119,99,35,-142,-81,-220,-153,-257,-155,-179
-35,-173,-131,99,41,-148,-81,-214,-153,-257,-155,-179
-35,-185,-149,99,47,-160,-75,-208,-153,-257,-161,-179
-35,-203,-173,105,59,-184,-69,-196,-153,-257,-167,-191
-35,-215,-185,111,71,-202,-57,-172,-153,-257,-173,-203
-23,-215,-197,111,77,-208,-15,-118,-141,-257,-179,-215
-17,-215,-197,111,83,-208,56,-22,-99,-251,-179,-221
-17,-209,-191,111,83,-202,170,127,-4,-221,-179,-227
-11,-197,-179,105,83,-190,284,301,116,-161,-167,-227
-5,-137,-149,75,77,-148,416,469,254,-59,-119,-215
0,-47,-77,21,65,-58,530,625,416,84,12,-137
12,78,30,-44,23,67,626,709,578,252,174,-5
42,228,138,-134,-6,175,686,769,710,414,348,138
90,372,234,-230,-30,295,704,781,836,594,540,306
156,534,336,-350,-42,433,704,781,956,804,768,516
258,732,420,-494,-54,571,656,745,1088,1050,1026,744
420,942,486,-674,-54,721,488,661,1196,1290,1320,1008
582,1158,528,-860,-30,847,260,529,1286,1536,1602,1260
732,1308,546,-1016,29,925,2,385,1334,1746,1842,1488
852,1410,546,-1124,113,973,-291,187,1340,1872,2028,1680
930,1530,564,-1244,143,1051,-597,-22,1340,1998,2231,1890
930,1728,786,-1316,107,1267,-861,-268,1328,2093,2405,2105
828,1878,1104,-1328,-132,1489,-1053,-586,1166,2081,2417,2207
618,1866,1218,-1250,-300,1507,-1149,-874,854,1770,2225,2159
450,1512,1146,-986,-318,1333,-1167,-1126,404,1218,1698,1752
288,1086,864,-680,-318,979,-1179,-1396,-141,540,1014,1224
138,702,636,-410,-300,667,-1167,-1552,-585,-29,420,738
30,390,432,-212,-258,415,-1077,-1552,-795,-353,48,378
-29,162,252,-68,-198,217,-939,-1462,-825,-473,-149,138
-53,18,114,15,-138,61,-783,-1258,-825,-509,-251,-29
-59,-59,18,51,-84,-16,-633,-1054,-765,-521,-305,-143
-59,-101,-29,69,-48,-64,-483,-844,-657,-521,-323,-185
-59,-137,-59,87,-30,-100,-369,-688,-543,-503,-323,-209
-65,-173,-77,117,-24,-124,-285,-580,-465,-461,-317,-215
-71,-185,-83,123,-18,-130,-225,-484,-399,-407,-305,-215
-71,-185,-83,123,-12,-130,-177,-400,-321,-353,-275,-215
-65,-179,-89,117,-6,-130,-117,-328,-273,-311,-245,-215
-65,-179,-95,117,-1,-130,-75,-274,-237,-293,-227,-215
-65,-179,-101,117,5,-136,-51,-244,-213,-281,-221,-215
-65,-179,-101,117,5,-136,-33,-226,-201,-269,-215,-215
-65,-179,-101,117,5,-136,-21,-220,-189,-263,-215,-215
-65,-179,-101,117,5,-136,-15,-214,-189,-257,-215,-215
-65,-179,-101,117,5,-136,-9,-208,-183,-257,-215,-215
-65,-179,-107,117,11,-142,-4,-202,-177,-257,-209,-215
-65,-191,-113,123,11,-148,2,-196,-177,-257,-209,-215
-71,-203,-113,135,11,-160,8,-196,-177,-257,-209,-215
-77,-209,-113,141,11,-160,14,-190,-177,-257,-209,-215
-77,-209,-113,141,11,-160,20,-178,-171,-251,-203,-215
-53,-197,-113,129,17,-160,32,-166,-159,-245,-203,-215
-41,-179,-113,111,23,-154,38,-154,-153,-239,-203,-215
-35,-179,-119,111,29,-154,44,-148,-147,-239,-203,-215
-35,-179,-119,111,29,-154,44,-142,-147,-233,-203,-215
-35,-179,-119,111,29,-154,44,-142,-141,-233,-203,-215
-29,-179,-119,111,29,-154,50,-142,-135,-233,-197,-215
-29,-179,-119,111,29,-154,56,-142,-135,-233,-197,-215
-29,-179,-119,111,29,-154,56,-136,-135,-233,-197,-215
-29,-179,-119,111,29,-154,56,-136,-135,-233,-197,-215
-29,-179,-119,111,29,-154,56,-136,-135,-233,-197,-215
-29,-179,-119,111,29,-154,56,-136,-135,-233,-197,-215
-35,-179,-119,111,29,-154,56,-136,-135,-233,-197,-215
-41,-179,-119,117,29,-154,56,-136,-135,-233,-197,-215
-47,-185,-119,117,29,-154,56,-136,-135,-233,-197,-215
-47,-185,-119,117,29,-154,56,-136,-135,-227,-197,-215
-47,-185,-125,117,29,-154,56,-130,-129,-227,-197,-215
-47,-185,-125,117,29,-154,56,-130,-129,-227,-197,-215
-53,-191,-125,123,29,-160,56,-130,-129,-227,-197,-215
-53,-197,-125,123,29,-160,56,-124,-123,-221,-197,-215
-53,-197,-125,123,29,-160,56,-124,-117,-221,-197,-215
-53,-197,-125,123,29,-160,56,-118,-117,-221,-191,-215
-53,-197,-131,123,29,-160,56,-112,-111,-215,-191,-215
-53,-197,-131,123,29,-160,56,-106,-105,-209,-185,-215
-53,-197,-131,123,29,-160,56,-106,-105,-209,-185,-215
-53,-197,-131,123,29,-160,56,-106,-105,-203,-185,-215
-53,-191,-131,123,35,-160,56,-106,-105,-197,-179,-215
-47,-185,-131,117,41,-154,62,-100,-99,-191,-173,-215
-47,-179,-131,117,47,-154,68,-94,-93,-185,-173,-215
-47,-173,-131,117,47,-154,68,-94,-87,-185,-167,-215
-47,-173,-131,117,47,-148,68,-94,-87,-185,-167,-209
-47,-173,-131,117,47,-148,68,-94,-87,-185,-167,-209
-47,-173,-131,117,47,-148,74,-94,-87,-185,-167,-209
-47,-173,-131,117,47,-148,74,-94,-81,-185,-167,-209
-47,-173,-131,117,47,-148,74,-94,-81,-179,-167,-209
-47,-173,-131,117,47,-148,80,-88,-81,-173,-167,-203
-47,-173,-131,117,47,-148,80,-82,-81,-173,-167,-203
-47,-173,-131,117,41,-148,80,-82,-81,-173,-167,-203
-47,-173,-131,117,41,-148,80,-82,-81,-167,-167,-203
-47,-173,-131,117,41,-148,86,-76,-75,-161,-167,-197
-47,-173,-131,117,41,-148,86,-76,-75,-161,-167,-197
-47,-173,-131,117,41,-148,86,-76,-75,-161,-167,-197
-47,-173,-131,117,41,-148,92,-70,-69,-161,-167,-197
-47,-173,-131,117,41,-148,98,-64,-63,-155,-161,-191
-47,-173,-131,117,41,-148,98,-58,-57,-149,-155,-185
-47,-173,-131,117,41,-148,98,-52,-51,-149,-155,-185
-47,-173,-131,117,41,-148,98,-46,-45,-143,-155,-185
-47,-173,-131,117,41,-148,98,-40,-39,-143,-149,-179
-47,-173,-131,117,41,-148,98,-34,-33,-143,-143,-179
-47,-167,-131,111,41,-142,104,-28,-33,-137,-143,-179
-41,-155,-125,105,41,-136,110,-22,-33,-137,-143,-179
-35,-149,-125,99,41,-136,116,-16,-27,-131,-137,-173
-23,-143,-125,87,41,-136,122,-5,-21,-125,-131,-167
-17,-143,-125,87,41,-130,128,1,-15,-119,-131,-167
-17,-137,-125,81,41,-124,128,7,-4,-113,-125,-167
-11,-131,-125,75,41,-118,134,19,8,-107,-119,-161
-5,-125,-125,75,41,-118,140,31,14,-101,-119,-161
-5,-125,-125,75,41,-118,146,37,20,-95,-119,-155
-5,-119,-119,75,41,-118,146,43,26,-95,-119,-155
-5,-119,-119,75,41,-112,146,49,32,-89,-113,-155
-5,-113,-113,75,41,-112,146,55,32,-83,-107,-149
-5,-113,-113,75,41,-112,146,61,32,-83,-107,-143
-11,-113,-113,75,41,-112,146,67,32,-83,-101,-143
-17,-113,-107,75,41,-112,146,73,38,-77,-95,-143
-17,-113,-101,75,41,-106,146,79,50,-71,-89,-137
-17,-113,-95,75,41,-100,146,91,62,-59,-83,-131
-11,-101,-95,63,41,-94,152,103,74,-47,-71,-125
-11,-89,-89,57,41,-88,152,115,86,-35,-65,-113
-11,-83,-77,57,35,-82,152,121,92,-29,-59,-101
-11,-77,-71,51,35,-76,152,127,98,-23,-53,-95
-11,-65,-65,45,35,-70,152,133,110,-11,-41,-83
-11,-65,-65,45,29,-64,152,139,116,0,-29,-83
-11,-53,-59,39,29,-52,158,145,122,12,-17,-77
6,-23,-53,21,29,-40,164,157,134,30,0,-65
18,-11,-47,9,29,-28,170,163,152,42,12,-59
24,-5,-41,3,29,-22,170,169,164,48,24,-53
30,0,-35,-3,29,-16,170,175,170,60,36,-47
36,12,-35,-14,29,-10,170,181,182,72,48,-29
48,30,-29,-26,29,1,170,187,194,84,60,-11
60,60,-23,-50,29,13,170,187,206,96,78,6
72,78,-23,-68,35,25,170,193,212,108,90,18
78,90,-17,-80,35,37,170,193,218,120,102,30
84,102,-5,-92,35,49,170,199,224,138,114,42
84,108,6,-98,35,61,170,199,230,162,132,60
84,114,18,-98,35,67,170,199,242,174,144,72
84,114,30,-98,29,73,170,199,248,180,150,78
84,120,36,-98,23,79,158,199,248,186,156,84
84,132,42,-104,23,85,152,199,254,192,168,96
84,144,48,-110,23,91,146,199,254,198,180,108
84,144,48,-110,23,97,140,199,254,204,186,114
90,150,54,-116,23,97,134,199,260,210,198,126
90,156,60,-122,23,103,128,193,266,216,204,132
90,156,66,-122,17,115,128,187,266,222,210,138
90,162,72,-122,11,121,128,181,266,228,210,144
90,174,78,-128,11,127,122,181,266,234,216,150
96,186,78,-134,11,133,122,175,266,240,228,156
102,198,78,-146,11,139,122,175,266,246,234,162
108,210,78,-152,11,145,122,175,266,252,246,168
114,216,78,-164,11,151,122,175,266,258,252,174
114,222,84,-170,11,163,122,169,266,264,258,180
114,228,96,-170,11,169,122,169,266,264,258,180
114,234,102,-170,11,169,116,169,266,264,258,180
120,246,102,-182,11,175,116,169,266,270,264,186
120,252,108,-182,11,181,116,169,272,276,270,192
120,252,114,-182,5,181,110,163,272,276,270,192
120,252,120,-182,-1,181,104,157,272,276,270,192
120,252,120,-182,-6,181,98,157,272,276,270,192
120,252,120,-182,-6,181,92,157,272,276,270,192
126,252,120,-182,-6,181,92,157,272,282,270,192
126,252,120,-182,-6,181,92,157,272,282,270,192
120,252,120,-176,-6,181,92,151,266,282,270,192
108,246,120,-170,-12,181,92,139,254,276,264,192
108,246,120,-170,-12,181,92,127,248,270,258,192
114,246,120,-176,-12,181,92,127,248,264,258,192
120,252,120,-182,-12,187,92,127,248,264,258,192
120,252,120,-182,-12,187,92,127,242,258,258,192
120,252,120,-182,-12,187,92,121,230,252,252,192
120,246,120,-176,-12,181,92,115,218,240,240,186
120,240,120,-170,-12,175,92,109,206,228,228,174
120,234,120,-164,-12,175,92,103,194,222,222,168
108,216,114,-152,-12,163,86,91,182,210,210,156
96,186,108,-140,-12,151,80,79,158,192,192,138
90,180,102,-134,-12,145,74,67,146,180,180,126
84,168,96,-128,-12,133,74,61,134,168,168,114
78,144,84,-116,-12,121,68,49,122,156,156,102
72,126,78,-104,-12,115,62,37,104,144,144,90
60,114,72,-92,-12,109,56,25,86,132,132,66
54,108,72,-80,-12,103,56,13,74,126,120,54
54,102,66,-74,-12,91,56,7,56,114,108,42
54,96,60,-68,-12,85,56,1,44,102,90,36
54,90,54,-68,-12,79,50,-10,32,78,72,24
54,84,42,-62,-6,67,50,-16,20,60,60,18
42,60,30,-50,-6,49,50,-28,8,48,48,6
30,42,24,-38,-6,37,50,-40,-4,36,36,0
18,30,24,-26,-6,31,44,-46,-15,24,24,-5
18,24,18,-20,-6,25,44,-52,-33,12,12,-17
12,12,12,-14,-6,19,44,-64,-51,0,-5,-29
6,6,12,-3,-6,13,44,-70,-63,-11,-17,-41
6,0,12,-3,-6,13,44,-70,-69,-17,-23,-47
12,0,6,-3,-6,13,44,-70,-75,-17,-29,-47
24,0,0,-8,5,13,44,-70,-75,-23,-29,-47
24,0,-5,-14,11,13,44,-70,-81,-29,-29,-47
18,0,-5,-14,11,13,38,-76,-87,-35,-35,-53
12,0,-5,-8,11,7,38,-88,-99,-41,-41,-59
6,0,-5,-3,11,7,38,-94,-105,-47,-47,-65
6,0,-5,-3,11,7,38,-94,-111,-53,-47,-65
6,0,-5,-3,11,7,38,-100,-111,-53,-47,-65
6,0,-5,-3,11,7,38,-106,-117,-59,-47,-65
6,-11,-5,9,11,1,38,-106,-123,-59,-53,-71
0,-29,-5,21,11,-10,38,-106,-129,-59,-59,-77
-11,-41,-5,39,5,-16,32,-112,-135,-59,-59,-83
-23,-47,-5,39,5,-22,32,-112,-135,-59,-65,-83
-23,-47,-5,39,-1,-22,32,-112,-135,-59,-65,-83
-23,-41,-5,39,-1,-22,32,-112,-135,-59,-65,-83
-23,-41,-5,33,-1,-22,32,-112,-135,-59,-71,-83
-23,-35,-5,33,-1,-22,32,-112,-135,-65,-71,-83
-23,-35,-5,33,-6,-22,32,-112,-135,-65,-71,-83
-23,-35,-5,33,-6,-22,32,-112,-141,-71,-77,-89
-23,-35,-5,33,-6,-22,32,-112,-147,-71,-77,-89
-23,-29,-5,27,-6,-22,26,-112,-147,-71,-83,-89
-17,-17,0,15,-6,-10,26,-112,-147,-71,-83,-89
-17,-11,6,9,-6,-4,26,-112,-147,-71,-83,-89
-17,-11,6,9,-12,-4,26,-112,-147,-71,-83,-95
-23,-11,6,9,-12,-4,26,-112,-147,-71,-89,-101
-23,-11,6,9,-12,-4,26,-112,-147,-71,-89,-101
-23,-11,6,9,-12,-4,26,-112,-153,-71,-89,-101
-23,-11,6,9,-18,-4,26,-112,-153,-71,-89,-101
-23,-11,6,9,-18,-4,26,-112,-153,-71,-89,-101
-23,-11,6,9,-18,-4,26,-106,-153,-71,-89,-101
-23,-11,6,9,-18,-4,26,-100,-153,-71,-89,-101
-23,-11,6,9,-18,-4,26,-94,-153,-71,-89,-101
-29,-17,6,15,-18,-4,26,-88,-153,-65,-89,-101
-35,-23,6,21,-18,-4,26,-88,-153,-65,-89,-101
-41,-29,6,27,-18,-10,26,-82,-153,-59,-89,-101
-41,-29,6,33,-18,-10,26,-76,-153,-59,-89,-101
-41,-29,6,33,-18,-10,26,-70,-153,-53,-89,-101
-41,-29,6,33,-18,-10,26,-58,-153,-47,-89,-101
-41,-29,6,33,-18,-10,26,-46,-153,-47,-89,-101
-35,-29,6,33,-18,-10,32,-34,-153,-41,-89,-101
-35,-29,0,33,-18,-10,32,-22,-153,-35,-89,-101
-35,-29,0,33,-18,-10,38,-16,-153,-29,-89,-101
-35,-29,0,33,-18,-10,38,-10,-153,-29,-89,-101
-29,-29,-5,33,-18,-10,38,-5,-153,-29,-89,-101
-23,-29,-11,27,-18,-10,38,1,-153,-29,-89,-101
-23,-29,-11,27,-18,-10,44,1,-153,-29,-89,-101
-23,-29,-11,27,-18,-16,44,1,-153,-29,-89,-101
-23,-29,-11,27,-18,-16,44,1,-153,-29,-89,-101
-23,-29,-11,27,-18,-16,44,1,-153,-29,-95,-101
-23,-29,-11,33,-18,-16,44,1,-153,-29,-95,-101
-23,-35,-11,39,-18,-16,44,1,-153,-29,-95,-101
-23,-41,-11,39,-18,-22,44,1,-153,-29,-95,-101
-23,-41,-11,39,-18,-22,44,1,-153,-29,-95,-101
-23,-41,-11,39,-18,-28,44,1,-153,-29,-95,-101
-23,-47,-11,39,-18,-28,44,1,-153,-29,-95,-101
-29,-53,-11,45,-18,-34,44,1,-153,-29,-95,-101
-35,-59,-11,51,-18,-34,44,1,-153,-29,-95,-101
-35,-59,-11,51,-18,-34,44,1,-153,-29,-95,-101
-35,-59,-11,51,-18,-34,44,1,-153,-29,-95,-101
-35,-59,-11,51,-18,-40,44,1,-153,-29,-95,-101
-35,-59,-11,51,-18,-40,44,1,-153,-29,-95,-101
-35,-59,-11,51,-18,-40,44,1,-153,-29,-95,-101
-35,-59,-11,51,-18,-40,44,1,-153,-29,-95,-101
-35,-59,-11,51,-18,-40,44,1,-153,-29,-95,-101
-35,-59,-11,51,-18,-40,44,1,-153,-29,-95,-107
-35,-59,-11,51,-18,-40,44,1,-153,-29,-101,-107
-35,-59,-11,45,-18,-40,44,1,-153,-29,-107,-107
-35,-59,-17,45,-18,-40,44,1,-153,-29,-107,-113
-35,-59,-17,45,-12,-40,44,1,-159,-29,-113,-119
-35,-59,-17,51,-12,-40,44,1,-165,-29,-119,-125
-47,-65,-17,63,-12,-40,44,1,-171,-29,-119,-125
-59,-77,-23,75,-12,-46,38,1,-177,-29,-119,-131
-59,-83,-29,81,-12,-52,38,1,-183,-29,-119,-131
-59,-83,-29,81,-12,-52,38,1,-183,-29,-119,-131
-53,-83,-35,75,-6,-52,38,1,-183,-29,-119,-131
-47,-83,-41,63,-1,-52,38,1,-183,-29,-119,-131
-41,-77,-41,51,-1,-52,38,1,-183,-29,-119,-131
-35,-77,-47,51,-1,-52,38,1,-183,-29,-119,-131
-29,-77,-47,51,-1,-52,38,1,-183,-29,-125,-131
-29,-77,-47,51,-1,-52,38,1,-183,-29,-125,-131
-29,-77,-47,51,-1,-52,38,1,-183,-29,-125,-131
-29,-71,-47,51,-1,-52,38,1,-183,-29,-125,-131
-23,-71,-47,51,-1,-52,38,1,-189,-29,-125,-131
-23,-71,-47,51,5,-58,38,1,-189,-29,-125,-131
-23,-77,-53,51,5,-64,38,1,-195,-29,-131,-131
-23,-83,-53,51,5,-64,38,1,-195,-35,-137,-131
-23,-89,-59,51,5,-64,38,1,-195,-35,-137,-131
-23,-89,-59,51,11,-64,38,1,-195,-35,-137,-131
-23,-83,-59,51,17,-64,38,1,-195,-35,-137,-131
-23,-83,-59,51,17,-64,38,1,-195,-35,-137,-131
-23,-83,-59,51,17,-64,32,1,-201,-35,-143,-131
-29,-83,-59,51,17,-64,32,1,-207,-35,-149,-137
-29,-83,-59,51,17,-64,32,1,-213,-35,-155,-137
-29,-83,-59,51,17,-64,32,1,-213,-35,-155,-137
-35,-89,-59,57,11,-64,32,1,-213,-35,-155,-143
-47,-95,-59,63,5,-64,26,1,-219,-35,-161,-149
-53,-101,-59,69,-1,-64,26,1,-219,-35,-161,-155
-53,-101,-59,69,-1,-64,26,1,-225,-35,-161,-155
-53,-101,-59,69,-1,-64,26,1,-231,-35,-161,-155
-53,-101,-59,69,-1,-64,26,1,-231,-35,-161,-155
-41,-95,-59,63,5,-64,26,1,-231,-35,-161,-155
-29,-89,-59,57,11,-64,26,1,-231,-35,-161,-155
-23,-83,-59,51,11,-64,26,1,-231,-35,-161,-155
-17,-83,-59,51,11,-64,26,1,-231,-41,-167,-155
-17,-83,-59,51,11,-64,20,1,-231,-41,-167,-155
-17,-83,-59,51,11,-64,20,1,-231,-41,-167,-155
-17,-83,-59,51,11,-64,20,1,-231,-41,-167,-155
-17,-83,-59,51,11,-64,20,1,-231,-41,-167,-155
-29,-89,-59,63,11,-64,14,1,-237,-41,-167,-155
-41,-101,-59,87,5,-70,8,1,-243,-41,-173,-155
-59,-113,-59,99,-1,-76,8,1,-249,-41,-173,-155
-71,-125,-59,105,-1,-82,8,1,-249,-47,-173,-155
-71,-131,-65,105,-1,-88,2,-5,-249,-53,-179,-155
