,,,,,,,,,,,
2019-09-01 15:34:59,,,,,,,,,,,
,,,,,,,,,,,
I,II,III,aVR,aVL,aVF,V1,V2,V3,V4,V5,V6
0,169,159,-85,-73,165,-82,-77,-119,-130,-248,-125
-6,163,171,-73,-85,165,-100,-89,-125,-136,-254,-125
0,151,141,-73,-61,147,-112,-83,-119,-136,-260,-125
24,127,93,-73,-25,111,-94,-77,-113,-136,-248,-119
12,121,99,-67,-37,111,-82,-59,-113,-124,-248,-113
-6,121,117,-55,-55,123,-76,-53,-101,-124,-248,-119
-6,103,99,-49,-43,105,-76,-47,-101,-124,-266,-131
-11,85,99,-31,-55,93,-64,-29,-83,-112,-248,-119
-6,91,93,-37,-43,93,-58,-29,-83,-112,-254,-131
-6,61,57,-25,-25,63,-70,-47,-101,-136,-266,-137
0,25,15,-13,-2,21,-58,-29,-95,-136,-272,-137
-6,1,-3,4,-2,3,-46,-17,-95,-136,-278,-143
-17,-5,3,10,-13,-3,-22,0,-83,-136,-272,-137
-29,-16,3,22,-19,-3,-22,-17,-95,-160,-296,-155
-41,-34,-3,34,-19,-14,-16,-23,-95,-166,-320,-167
-35,-52,-14,40,-7,-32,-10,-29,-107,-172,-326,-173
-35,-58,-20,46,-2,-38,-16,-35,-125,-184,-332,-185
-59,-64,-3,58,-25,-32,-16,-35,-125,-202,-344,-185
-59,-64,-3,58,-25,-32,-10,-35,-137,-214,-368,-203
-65,-76,-8,70,-25,-44,-22,-41,-143,-232,-380,-221
-59,-100,-38,76,-7,-68,-22,-41,-149,-238,-392,-227
-47,-106,-56,76,-2,-80,-16,-41,-161,-244,-404,-227
-35,-100,-62,64,4,-80,-28,-53,-167,-244,-398,-227
-17,-100,-80,58,22,-92,-34,-65,-173,-250,-416,-233
-35,-94,-56,64,4,-74,-22,-47,-155,-238,-398,-227
-59,-100,-38,76,-7,-68,-16,-47,-155,-226,-386,-215
-41,-106,-62,70,4,-86,-22,-59,-167,-238,-404,-227
-35,-106,-68,70,10,-86,-28,-53,-167,-244,-398,-227
-59,-100,-38,76,-7,-68,-22,-41,-161,-232,-398,-221
-65,-106,-38,82,-7,-74,-16,-47,-161,-238,-404,-227
-71,-112,-38,88,-13,-74,-10,-41,-149,-244,-410,-227
-71,-112,-38,88,-13,-74,-16,-47,-161,-244,-404,-221
-59,-100,-38,76,-7,-68,-16,-47,-155,-232,-410,-221
-59,-106,-44,82,-2,-74,-16,-53,-161,-238,-410,-215
-41,-106,-62,70,4,-86,-28,-53,-167,-238,-422,-227
-53,-112,-56,82,-2,-86,-16,-53,-167,-232,-416,-221
-95,-124,-26,106,-31,-74,-4,-41,-155,-220,-404,-209
-83,-112,-26,94,-25,-68,-10,-41,-155,-214,-398,-209
-11,-106,-92,58,34,-98,-34,-65,-179,-244,-428,-233
-17,-112,-92,64,28,-104,-40,-71,-185,-244,-428,-239
-53,-112,-56,82,-2,-86,-22,-59,-167,-238,-416,-227
-59,-124,-62,88,-2,-92,-16,-59,-167,-232,-404,-221
-35,-118,-80,76,16,-98,-34,-71,-185,-238,-422,-227
-29,-112,-80,70,16,-98,-40,-77,-185,-244,-422,-227
-41,-118,-74,76,10,-98,-40,-71,-185,-238,-428,-233
-47,-118,-68,82,4,-92,-34,-71,-179,-232,-416,-227
-41,-106,-62,70,4,-86,-34,-77,-179,-232,-422,-233
-29,-106,-74,64,16,-92,-46,-77,-179,-226,-416,-227
-41,-100,-56,70,-2,-80,-46,-59,-167,-214,-404,-215
-35,-94,-56,64,4,-74,-46,-53,-143,-184,-380,-203
-17,-94,-74,52,22,-86,-40,-23,-83,-118,-332,-161
-11,-82,-68,46,22,-74,-46,12,0,-5,-242,-95
-6,-22,-20,10,4,-20,-64,30,72,97,-176,-29
-6,55,63,-19,-31,57,-76,12,96,181,-110,18
-6,145,147,-67,-73,147,-76,48,156,283,-20,90
36,229,183,-133,-67,207,-82,126,270,421,81,180
78,277,195,-181,-49,237,-100,186,408,601,255,324
132,331,195,-235,-25,261,-136,288,600,835,489,516
180,361,177,-265,-2,267,-166,396,762,1081,753,744
192,433,237,-307,-13,333,-190,300,678,1261,993,942
228,481,249,-355,-7,369,-172,240,564,1411,1179,1098
240,493,243,-367,-2,375,-88,192,432,1483,1329,1218
210,541,327,-373,-55,441,-40,0,174,1579,1539,1392
228,637,405,-433,-85,519,-154,-263,-107,1729,1821,1614
282,745,459,-511,-79,603,-400,-539,-377,1885,2072,1830
276,859,573,-565,-145,723,-658,-821,-695,1909,2198,1938
216,907,687,-559,-235,795,-832,-1121,-1091,1693,2066,1842
132,793,657,-463,-253,729,-880,-1295,-1421,1351,1671,1524
66,529,459,-295,-193,495,-856,-1271,-1481,1165,1263,1182
24,289,255,-157,-109,273,-832,-1121,-1397,955,819,810
-17,127,147,-49,-79,135,-760,-971,-1313,481,225,348
-77,-5,63,40,-73,21,-676,-887,-1289,-52,-344,-95
-125,-100,15,112,-73,-38,-604,-827,-1301,-616,-764,-425
-125,-136,-8,130,-55,-74,-508,-749,-1271,-1018,-1010,-617
-149,-172,-20,160,-61,-98,-442,-677,-1151,-1102,-1028,-641
-161,-178,-14,166,-67,-98,-418,-623,-977,-946,-932,-581
-131,-154,-20,142,-49,-86,-412,-575,-821,-766,-830,-515
-119,-124,-3,118,-55,-62,-364,-503,-713,-670,-764,-473
-113,-100,3,106,-61,-44,-292,-407,-605,-586,-698,-419
-95,-70,15,82,-55,-20,-262,-347,-515,-526,-662,-389
-83,-58,15,70,-49,-14,-238,-305,-467,-490,-638,-371
-89,-64,15,76,-55,-20,-232,-281,-437,-472,-626,-359
-83,-70,3,76,-43,-26,-214,-257,-389,-460,-614,-353
-71,-82,-8,76,-25,-44,-178,-221,-347,-424,-602,-347
-71,-100,-26,82,-19,-62,-154,-191,-311,-382,-578,-323
-71,-118,-44,94,-7,-80,-130,-161,-281,-346,-536,-305
-59,-118,-56,88,-2,-86,-112,-137,-245,-322,-518,-287
-59,-112,-50,82,-2,-80,-112,-131,-245,-310,-518,-287
-77,-118,-38,94,-13,-80,-88,-107,-221,-280,-488,-263
-77,-118,-38,94,-13,-80,-82,-101,-203,-280,-488,-257
-71,-118,-44,94,-7,-80,-94,-95,-197,-292,-488,-269
-47,-118,-68,82,4,-92,-88,-101,-191,-292,-500,-269
-23,-124,-98,70,28,-110,-94,-101,-197,-298,-500,-281
-41,-130,-86,82,16,-110,-94,-83,-191,-292,-506,-281
-47,-130,-80,88,10,-104,-94,-89,-185,-274,-494,-275
-53,-118,-62,82,-2,-92,-82,-95,-185,-262,-488,-269
-53,-124,-68,88,-2,-98,-76,-83,-179,-256,-488,-263
-65,-124,-56,94,-2,-92,-70,-83,-173,-250,-482,-263
-47,-124,-74,82,4,-98,-76,-83,-173,-250,-482,-263
-41,-112,-68,76,4,-92,-76,-83,-173,-256,-482,-263
-53,-112,-56,82,-2,-86,-82,-77,-167,-262,-482,-257
-71,-112,-38,88,-13,-74,-64,-71,-155,-256,-482,-251
-65,-112,-44,88,-7,-80,-64,-65,-143,-250,-482,-251
-35,-130,-92,82,22,-110,-70,-71,-143,-262,-482,-257
-17,-130,-110,70,40,-122,-76,-71,-149,-262,-482,-251
-29,-118,-86,70,22,-104,-70,-71,-149,-244,-482,-245
-41,-124,-80,82,10,-104,-70,-71,-155,-244,-476,-245
-41,-118,-74,76,10,-98,-70,-71,-149,-244,-464,-239
-41,-106,-62,70,4,-86,-76,-77,-155,-250,-470,-245
-29,-100,-68,64,10,-86,-70,-65,-149,-250,-464,-245
-29,-88,-56,58,4,-74,-76,-59,-143,-256,-464,-251
-29,-82,-50,52,4,-68,-76,-53,-143,-256,-464,-251
-41,-106,-62,70,4,-86,-76,-59,-143,-262,-464,-245
-59,-118,-56,88,-2,-86,-58,-47,-119,-256,-458,-239
-47,-118,-68,82,4,-92,-70,-47,-125,-250,-458,-239
-29,-118,-86,70,22,-104,-70,-53,-131,-250,-452,-239
-17,-106,-86,58,28,-98,-70,-53,-125,-244,-446,-227
-17,-94,-74,52,22,-86,-70,-47,-119,-238,-440,-227
-29,-88,-56,58,4,-74,-64,-41,-113,-238,-422,-221
-35,-100,-62,64,4,-80,-70,-47,-113,-244,-434,-227
-35,-100,-62,64,4,-80,-88,-47,-119,-244,-434,-227
-29,-94,-62,58,10,-80,-76,-41,-101,-244,-416,-221
-29,-94,-62,58,10,-80,-76,-35,-89,-238,-410,-215
-41,-88,-44,64,-2,-68,-76,-29,-89,-226,-410,-215
-65,-94,-26,76,-13,-62,-64,-5,-71,-196,-386,-191
-65,-88,-20,76,-19,-56,-64,-11,-65,-190,-380,-197
-29,-88,-56,58,4,-74,-76,-23,-83,-196,-380,-203
-6,-88,-80,46,28,-86,-82,-29,-77,-184,-374,-197
-29,-76,-44,52,-2,-62,-76,-23,-65,-172,-356,-185
-41,-70,-26,52,-2,-50,-70,-17,-59,-166,-356,-185
-29,-82,-50,52,4,-68,-88,-11,-53,-166,-350,-179
-17,-76,-56,46,10,-68,-88,-11,-41,-160,-344,-179
-17,-82,-62,46,16,-74,-88,-5,-29,-154,-338,-179
-23,-100,-74,58,16,-86,-82,0,-23,-136,-332,-173
-17,-88,-68,52,16,-80,-82,-5,-23,-118,-320,-161
-17,-70,-50,40,10,-62,-76,0,-11,-100,-296,-149
-17,-70,-50,40,10,-62,-82,0,-11,-88,-290,-143
-17,-70,-50,40,10,-62,-82,0,0,-70,-278,-137
-17,-64,-44,40,4,-56,-94,0,0,-58,-254,-125
-17,-46,-26,28,-2,-38,-88,6,6,-40,-242,-125
-17,-52,-32,34,-2,-44,-88,18,24,-28,-236,-113
-6,-40,-32,22,4,-38,-100,12,30,-28,-236,-113
-6,-34,-38,10,16,-32,-100,12,36,-16,-230,-107
0,-52,-62,16,28,-56,-94,30,48,-5,-224,-95
0,-76,-86,28,40,-80,-94,36,60,19,-200,-83
-6,-58,-56,28,22,-56,-88,42,72,49,-176,-71
-6,-46,-44,22,16,-44,-94,42,78,67,-164,-65
-6,-40,-32,22,4,-38,-94,54,96,91,-140,-47
-6,-34,-32,16,10,-32,-94,54,108,115,-116,-29
18,-16,-44,4,28,-26,-106,54,114,115,-122,-41
30,-16,-56,-1,40,-32,-124,54,120,121,-116,-35
24,-16,-50,4,34,-32,-118,66,144,139,-92,-17
24,-10,-44,-1,34,-26,-118,78,162,163,-74,1
48,-5,-62,-13,52,-32,-130,78,162,175,-74,-5
54,-10,-74,-13,64,-38,-130,84,180,211,-50,12
36,-5,-38,-13,40,-14,-130,90,192,235,-26,18
24,-5,-26,-7,28,-8,-118,102,216,259,3,36
36,-5,-44,-13,40,-20,-118,108,228,289,15,48
54,7,-44,-31,52,-8,-124,114,240,301,33,60
48,25,-20,-37,34,-3,-130,120,252,319,39,66
48,19,-26,-31,40,-3,-130,126,258,337,51,78
54,25,-26,-37,40,-3,-130,132,276,355,69,96
54,19,-32,-37,46,-3,-142,138,294,367,81,102
48,25,-20,-37,34,-3,-136,150,306,385,99,120
30,37,-3,-31,10,21,-124,162,330,427,129,138
42,43,-3,-43,22,21,-130,156,330,433,141,138
72,43,-26,-55,52,3,-142,150,330,439,147,144
66,55,-8,-61,40,21,-148,150,324,451,147,150
78,61,-14,-67,46,21,-160,150,324,457,159,156
96,61,-32,-79,64,9,-160,144,330,451,159,144
90,61,-26,-73,58,15,-160,150,336,457,165,150
78,67,-8,-73,46,27,-160,150,336,451,165,156
60,67,-3,-61,28,33,-154,156,348,457,177,162
90,79,-8,-85,52,33,-160,150,342,451,171,150
78,61,-14,-67,46,21,-160,150,336,463,171,156
60,55,-3,-55,34,21,-148,156,342,475,183,162
54,55,-3,-55,28,27,-142,156,336,475,183,162
72,61,-8,-67,40,21,-142,144,324,463,177,162
90,61,-26,-73,58,15,-154,132,318,445,183,162
90,79,-8,-85,52,33,-160,132,312,427,165,150
84,67,-14,-73,52,21,-148,132,306,421,159,150
66,61,-3,-61,34,27,-154,132,306,415,153,144
66,55,-8,-61,40,21,-160,126,294,391,147,126
72,61,-8,-67,40,21,-154,120,282,379,129,120
72,61,-8,-67,40,21,-142,120,276,385,135,126
84,61,-20,-73,52,15,-154,108,252,361,117,108
72,61,-8,-67,40,21,-154,102,246,355,111,108
60,55,-3,-55,34,21,-142,102,252,349,111,108
66,49,-14,-55,40,15,-124,108,240,349,117,102
48,49,-3,-49,22,21,-130,108,240,331,99,96
12,49,27,-31,-2,39,-124,108,234,307,93,90
36,73,27,-55,-2,51,-142,90,216,277,69,66
84,55,-26,-67,58,9,-148,72,198,247,39,42
78,43,-32,-61,58,3,-142,78,192,235,33,42
66,49,-14,-55,40,15,-130,78,186,235,33,42
60,55,-3,-55,34,21,-130,66,174,217,21,24
36,55,9,-43,10,33,-124,66,156,211,9,18
30,61,21,-43,-2,45,-118,60,150,193,3,12
36,61,15,-49,4,39,-118,48,132,175,-2,12
42,55,3,-49,16,33,-118,48,120,145,-20,1
18,43,15,-31,-2,33,-106,48,120,133,-26,1
-6,43,45,-13,-19,45,-100,48,108,121,-32,-5
-6,49,57,-13,-31,51,-100,42,102,103,-44,-17
18,55,27,-37,-2,45,-112,24,84,79,-74,-41
54,37,-14,-43,34,9,-112,6,54,61,-104,-65
30,25,-3,-25,16,9,-106,12,54,49,-98,-71
6,31,15,-19,-2,27,-100,6,42,43,-104,-65
6,37,21,-19,-2,33,-94,0,30,31,-116,-71
-6,37,39,-13,-19,39,-88,0,24,31,-110,-71
12,43,21,-25,-2,33,-100,0,0,1,-134,-95
6,43,27,-25,-2,39,-94,-5,0,-10,-158,-101
-6,43,45,-13,-19,45,-94,-11,-5,-28,-158,-119
-11,43,57,-7,-31,51,-88,-11,-5,-40,-170,-125
-11,43,57,-7,-31,51,-82,-17,-11,-52,-188,-137
-29,25,57,4,-43,39,-64,-11,-23,-46,-194,-143
-6,19,15,-7,-2,21,-82,-35,-47,-82,-212,-167
-6,7,3,-1,-2,9,-70,-41,-59,-76,-224,-173
0,25,15,-13,-2,21,-70,-47,-71,-94,-236,-185
-6,37,45,-7,-25,39,-70,-47,-77,-100,-236,-179
-29,25,57,4,-43,39,-64,-41,-83,-112,-236,-185
-17,19,39,4,-25,27,-64,-47,-89,-136,-260,-203
-29,13,45,4,-37,27,-58,-41,-89,-142,-260,-209
-35,7,45,4,-37,27,-58,-35,-89,-148,-266,-209
-29,19,51,4,-37,33,-64,-41,-95,-160,-278,-221
-35,7,45,4,-37,27,-46,-35,-95,-148,-266,-215
-41,1,45,10,-43,21,-52,-47,-95,-160,-284,-227
-35,-5,33,10,-31,15,-52,-53,-107,-178,-290,-227
-35,-5,27,16,-31,9,-34,-41,-101,-166,-290,-221
-41,-5,33,16,-37,9,-40,-41,-107,-166,-284,-221
-41,-5,39,16,-37,15,-40,-41,-107,-184,-296,-227
-35,-5,33,10,-31,15,-40,-41,-107,-196,-302,-233
-35,7,45,4,-37,27,-40,-35,-95,-196,-302,-233
-29,1,33,4,-31,15,-40,-35,-101,-196,-308,-233
-23,-5,15,10,-19,3,-40,-35,-101,-214,-314,-245
-35,-5,27,16,-31,9,-22,-23,-89,-190,-296,-227
-41,1,45,10,-43,21,-22,-17,-83,-190,-302,-233
-35,1,39,10,-37,21,-22,-11,-89,-184,-302,-227
-41,1,45,10,-43,21,-22,-17,-83,-190,-308,-227
-65,-5,57,28,-61,21,-16,-17,-77,-184,-296,-227
-53,-5,51,22,-49,21,-16,-11,-71,-190,-296,-227
-23,1,27,4,-25,15,-22,-11,-77,-184,-296,-227
-6,-5,-3,4,-2,-3,-28,-17,-65,-196,-302,-227
-17,-10,-3,10,-7,-3,-34,-5,-65,-190,-296,-227
-29,-5,15,16,-25,-3,-22,0,-53,-178,-290,-215
-35,-5,21,16,-31,3,-22,-5,-53,-172,-290,-221
-35,-5,27,16,-31,9,-16,0,-47,-166,-278,-209
-35,1,39,10,-37,21,-10,0,-41,-148,-266,-203
-35,-5,33,10,-31,15,-16,-5,-47,-154,-272,-203
-35,1,39,10,-37,21,-22,-5,-53,-154,-266,-203
-29,13,45,4,-37,27,-22,0,-47,-154,-272,-203
-35,7,45,4,-37,27,-16,0,-41,-148,-260,-191
-59,-5,51,28,-55,21,-10,0,-29,-136,-248,-185
-65,1,69,22,-67,33,-4,6,-23,-136,-242,-173
-47,13,63,10,-55,39,-16,0,-29,-142,-254,-185
-11,7,21,4,-13,15,-28,-5,-53,-148,-266,-197
-6,7,15,4,-7,9,-40,-11,-53,-154,-260,-197
-6,7,9,4,-2,9,-34,-11,-53,-148,-260,-191
-6,19,15,-7,-2,21,-22,-11,-47,-136,-254,-185
-23,13,39,4,-31,27,-16,-5,-53,-124,-236,-179
-41,1,45,10,-43,21,-22,-5,-53,-142,-242,-179
-35,13,51,4,-43,33,-28,-17,-59,-142,-248,-185
-17,13,33,4,-25,21,-34,-23,-65,-154,-254,-197
-35,1,39,10,-37,21,-22,0,-47,-142,-236,-173
-23,1,27,4,-25,15,-16,0,-41,-142,-236,-179
-29,-5,21,10,-25,3,-28,-11,-59,-154,-254,-185
-29,-5,27,10,-25,9,-28,-23,-59,-160,-254,-191
-23,-5,9,10,-19,-3,-16,-17,-59,-154,-242,-179
-47,-16,21,28,-37,-3,-10,-5,-53,-142,-236,-167
-35,-10,15,22,-25,-3,-16,-11,-59,-142,-236,-167
-17,-5,15,4,-13,3,-28,-23,-65,-160,-242,-185
-6,-5,-3,4,-2,-3,-40,-35,-71,-172,-254,-185
0,-5,-8,4,4,-3,-34,-35,-71,-172,-260,-185
-6,-5,-3,4,-2,-3,-34,-29,-77,-178,-254,-191
-6,-5,-3,4,-2,-3,-28,-29,-77,-178,-260,-203
-11,-10,-3,10,-2,-3,-10,-23,-77,-166,-248,-191
-6,-5,-3,4,-2,-3,-16,-29,-83,-172,-248,-191
-29,-10,9,16,-19,-3,-10,-17,-77,-160,-236,-179
-35,-10,15,22,-25,-3,-10,-23,-83,-166,-236,-185
-41,-5,33,16,-37,9,-4,-29,-83,-166,-236,-173
-29,-5,15,16,-25,-3,-4,-23,-77,-166,-236,-179
-11,-10,-3,10,-2,-3,-10,-35,-89,-184,-248,-191
-11,-16,-3,10,-2,-8,-22,-35,-95,-190,-248,-197
-23,-16,-3,16,-13,-3,-16,-23,-89,-184,-242,-191
-35,-16,9,22,-25,-3,-16,-29,-83,-190,-248,-197
-47,-10,27,28,-37,3,-22,-35,-95,-190,-254,-197
-35,-16,9,22,-25,-3,-10,-23,-89,-184,-248,-191
-35,-22,3,28,-19,-3,1,-23,-89,-190,-248,-191
-29,-16,3,22,-19,-3,-4,-41,-101,-190,-248,-197
-23,-16,-3,16,-13,-3,-10,-41,-113,-196,-248,-197
-17,-28,-8,22,-2,-20,-16,-41,-107,-196,-254,-197
-6,-28,-20,16,-2,-26,-16,-41,-107,-202,-260,-209
-6,-5,-3,4,-2,-3,-16,-47,-113,-214,-272,-215
-41,-10,21,22,-31,-3,1,-29,-95,-202,-254,-203
-41,-22,9,28,-25,-3,-4,-35,-95,-208,-260,-209
-41,-22,9,28,-25,-3,1,-41,-107,-202,-248,-197
-47,-22,15,34,-31,-3,1,-35,-101,-196,-248,-191
-35,-28,-3,28,-19,-8,1,-35,-107,-196,-248,-197
-23,-16,-3,16,-13,-3,1,-41,-107,-196,-248,-197
-29,-22,-3,22,-13,-8,1,-35,-107,-196,-236,-185
-35,-22,3,28,-19,-3,1,-35,-101,-208,-248,-197
-17,-5,3,10,-13,-3,1,-35,-113,-214,-254,-197
-6,-5,-8,4,-2,-3,-10,-53,-131,-226,-260,-215
-6,-10,-8,4,-2,-8,-4,-59,-119,-226,-260,-215
-29,-5,15,16,-25,-3,1,-41,-95,-196,-242,-197
-29,1,33,4,-31,15,19,-35,-95,-190,-230,-185
-35,13,51,4,-43,33,13,-41,-95,-190,-230,-179
-35,19,57,4,-43,39,13,-41,-95,-184,-224,-179
-6,25,33,-1,-19,27,1,-59,-107,-190,-236,-185
-29,19,51,4,-37,33,1,-65,-107,-190,-224,-185
-65,37,105,4,-85,69,19,-53,-101,-184,-224,-173
-71,43,117,4,-91,81,31,-41,-89,-172,-212,-167
-47,43,93,4,-67,69,31,-47,-89,-178,-218,-167
-17,55,75,-13,-43,63,31,-53,-95,-184,-224,-173
-47,73,123,-7,-85,99,25,-41,-89,-172,-218,-167
-41,73,117,-7,-79,93,13,-59,-101,-172,-212,-167
-11,67,81,-19,-43,75,1,-83,-107,-190,-218,-173
-17,79,99,-25,-55,87,1,-89,-119,-184,-206,-167
-29,115,147,-37,-85,129,1,-89,-113,-172,-200,-155
-35,139,177,-43,-103,159,1,-95,-113,-166,-194,-149
-17,151,171,-61,-91,159,-4,-107,-125,-172,-194,-155
-17,157,177,-61,-97,165,-22,-119,-137,-178,-188,-155
-23,163,189,-61,-103,177,-40,-125,-137,-178,-194,-149
-17,151,171,-61,-91,159,-46,-125,-137,-178,-194,-143
-6,157,165,-67,-85,159,-52,-119,-125,-172,-188,-131
-6,175,171,-85,-79,177,-40,-107,-113,-148,-164,-125
12,169,147,-91,-61,159,-46,-101,-113,-148,-164,-119
6,163,147,-85,-61,159,-46,-95,-107,-148,-158,-113
0,139,129,-67,-55,135,-64,-95,-107,-142,-158,-113
18,127,99,-73,-31,117,-64,-95,-113,-148,-152,-113
18,127,99,-73,-31,117,-64,-77,-101,-148,-152,-107
36,121,75,-79,-13,99,-58,-77,-95,-148,-158,-107
12,115,93,-61,-31,105,-40,-53,-77,-136,-140,-107
-6,103,99,-49,-43,105,-28,-35,-59,-124,-128,-95
6,79,63,-43,-19,75,-22,-35,-53,-124,-140,-95
6,67,51,-37,-13,63,-10,-35,-59,-124,-140,-107
6,49,33,-25,-7,45,-4,-29,-65,-130,-152,-113
0,25,15,-13,-2,21,1,-23,-59,-130,-152,-107
-6,13,15,-1,-7,15,7,-17,-53,-124,-158,-119
-23,-5,21,4,-19,9,31,0,-47,-118,-140,-113
-47,-22,15,34,-31,-3,37,0,-47,-136,-158,-119
-41,-28,3,34,-25,-8,43,0,-59,-154,-176,-143
-29,-40,-8,34,-7,-26,37,-5,-59,-166,-182,-149
-41,-52,-8,46,-13,-32,43,-17,-71,-178,-194,-155
-47,-70,-20,58,-7,-44,37,-23,-77,-196,-212,-173
-35,-88,-50,58,-2,-68,37,-29,-101,-226,-236,-197
-11,-94,-80,52,28,-86,25,-41,-119,-244,-248,-215
-17,-100,-80,58,22,-92,37,-35,-119,-244,-254,-209
-23,-100,-74,58,16,-86,43,-29,-107,-238,-248,-209
-29,-106,-74,64,16,-92,37,-41,-119,-244,-248,-215
-41,-106,-62,70,4,-86,43,-35,-113,-244,-248,-209
-35,-100,-62,64,4,-80,43,-29,-119,-244,-254,-215
-23,-94,-68,58,16,-80,37,-35,-125,-244,-254,-221
-35,-100,-62,64,4,-80,49,-35,-113,-244,-248,-215
-29,-94,-62,58,10,-80,49,-23,-107,-238,-242,-209
-41,-106,-62,70,4,-86,49,-23,-107,-232,-236,-203
-47,-112,-62,76,-2,-86,55,-23,-101,-226,-242,-203
-41,-94,-50,64,-2,-74,55,-29,-101,-232,-242,-209
-47,-106,-56,76,-2,-80,43,-35,-119,-232,-242,-209
-47,-112,-62,76,-2,-86,43,-35,-119,-238,-236,-209
-35,-94,-56,64,4,-74,55,-29,-107,-232,-236,-203
-53,-100,-44,76,-2,-74,55,-23,-107,-232,-236,-197
-59,-106,-44,82,-2,-74,55,-23,-101,-226,-236,-197
-83,-106,-20,94,-25,-62,61,-17,-95,-226,-224,-197
-53,-112,-56,82,-2,-86,61,-17,-101,-220,-224,-203
-11,-112,-98,58,34,-104,49,-29,-107,-232,-236,-203
-41,-112,-68,76,4,-92,55,-23,-101,-226,-236,-203
-47,-112,-62,76,-2,-86,67,-23,-101,-214,-224,-191
-35,-106,-68,70,10,-86,61,-29,-101,-214,-224,-191
-35,-106,-68,70,10,-86,61,-35,-107,-220,-224,-203
-17,-124,-104,70,34,-116,61,-35,-125,-226,-230,-203
-23,-112,-86,64,22,-98,49,-35,-119,-226,-224,-203
-23,-88,-62,52,10,-74,49,-41,-113,-220,-224,-209
-23,-100,-74,58,16,-86,43,-35,-119,-220,-230,-203
-29,-118,-86,70,22,-104,55,-23,-107,-214,-224,-197
-41,-118,-74,76,10,-98,67,-11,-83,-190,-200,-185
-29,-100,-68,64,10,-86,49,-11,-59,-160,-182,-167
-6,-82,-74,40,28,-80,49,12,0,-82,-122,-113
0,-64,-74,22,34,-68,43,60,102,25,-32,-53
-6,-10,-14,4,4,-8,37,78,174,115,27,12
18,79,51,-49,-7,69,19,72,192,193,81,60
30,181,141,-103,-49,165,31,120,258,295,183,126
48,229,171,-139,-55,201,43,222,414,475,327,246
96,289,189,-193,-37,237,1,282,564,673,507,408
168,361,189,-259,-2,273,-34,426,780,913,759,606
210,403,189,-301,4,297,-46,468,858,1159,1029,834
234,469,225,-349,4,345,-76,324,720,1327,1251,1014
240,493,243,-367,-2,375,-16,288,618,1477,1443,1164
234,505,267,-367,-13,393,67,210,462,1591,1641,1308
240,577,327,-409,-37,459,43,-35,180,1711,1881,1506
276,673,387,-475,-49,531,-112,-305,-59,1927,2192,1770
312,775,459,-541,-67,621,-376,-575,-317,2094,2467,2004
300,841,531,-571,-109,693,-628,-893,-659,2088,2569,2081
240,871,621,-553,-187,747,-790,-1217,-1085,1843,2384,1956
174,733,555,-457,-187,651,-826,-1379,-1397,1471,1953,1614
114,457,333,-283,-103,399,-808,-1307,-1415,1267,1533,1260
66,253,183,-163,-49,225,-760,-1145,-1319,955,1029,846
-6,79,81,-31,-37,81,-658,-1001,-1265,415,393,354
-71,-52,9,58,-43,-14,-550,-899,-1241,-148,-182,-83
-119,-136,-14,124,-49,-74,-460,-809,-1229,-688,-578,-401
-149,-166,-14,154,-61,-92,-382,-731,-1187,-1012,-758,-551
-137,-184,-44,160,-43,-116,-340,-665,-1061,-1042,-758,-563
-119,-178,-56,148,-25,-116,-328,-605,-881,-874,-662,-515
-119,-154,-32,136,-37,-92,-274,-509,-725,-700,-548,-449
-119,-130,-8,124,-49,-68,-202,-413,-593,-598,-482,-389
-113,-88,15,100,-67,-32,-136,-323,-491,-532,-440,-347
-107,-58,39,82,-73,-3,-100,-263,-413,-472,-392,-305
-107,-46,51,76,-79,-3,-100,-239,-371,-448,-380,-293
-107,-52,45,76,-79,-3,-76,-221,-335,-430,-362,-293
-71,-70,-3,70,-31,-32,-52,-197,-299,-412,-350,-287
-35,-88,-50,58,-2,-68,-22,-155,-257,-382,-332,-275
-47,-100,-50,70,-2,-74,1,-107,-215,-346,-302,-257
-65,-106,-38,82,-7,-74,13,-89,-191,-328,-296,-245
-53,-112,-56,82,-2,-86,25,-71,-167,-310,-284,-233
-59,-118,-56,88,-2,-86,49,-53,-149,-280,-260,-227
-59,-124,-62,88,-2,-92,49,-41,-143,-280,-248,-227
-47,-118,-68,82,4,-92,49,-35,-131,-274,-248,-227
-53,-130,-74,88,4,-104,49,-29,-119,-262,-242,-215
-53,-130,-74,88,4,-104,55,-17,-113,-262,-242,-215
-35,-130,-92,82,22,-110,49,-17,-107,-262,-242,-221
-23,-130,-104,76,34,-116,55,-17,-107,-268,-248,-227
-29,-124,-92,76,22,-110,55,-17,-101,-262,-248,-221
-35,-124,-86,76,16,-104,73,-17,-95,-256,-242,-221
-29,-124,-92,76,22,-110,67,-17,-95,-256,-236,-215
-41,-124,-80,82,10,-104,79,-17,-101,-244,-230,-203
-41,-118,-74,76,10,-98,79,-17,-95,-238,-224,-203
-47,-106,-56,76,-2,-80,73,-17,-95,-244,-230,-209
-35,-100,-62,64,4,-80,67,-17,-95,-244,-236,-209
-41,-112,-68,76,4,-92,67,-11,-83,-238,-230,-209
-53,-112,-56,82,-2,-86,73,0,-65,-238,-230,-203
-35,-100,-62,64,4,-80,67,-5,-59,-238,-236,-203
-35,-106,-68,70,10,-86,73,0,-53,-232,-224,-197
-83,-112,-26,94,-25,-68,109,12,-35,-214,-212,-185
-65,-112,-44,88,-7,-80,103,18,-35,-220,-200,-179
-11,-88,-74,46,22,-80,79,0,-53,-226,-224,-197
-35,-94,-56,64,4,-74,85,6,-53,-220,-212,-179
-35,-106,-68,70,10,-86,85,0,-59,-226,-212,-191
-17,-100,-80,58,22,-92,67,-5,-59,-232,-212,-191
-29,-94,-62,58,10,-80,79,0,-41,-220,-200,-185
-29,-94,-62,58,10,-80,85,6,-41,-226,-200,-191
-23,-94,-68,58,16,-80,79,0,-35,-226,-206,-191
-29,-88,-56,58,4,-74,79,12,-29,-220,-200,-179
-23,-88,-62,52,10,-74,91,18,-29,-220,-194,-179
-35,-94,-56,64,4,-74,97,18,-23,-214,-182,-167
-29,-94,-62,58,10,-80,91,12,-17,-208,-176,-161
-17,-88,-68,52,16,-80,91,18,-23,-202,-170,-167
-6,-76,-80,34,34,-74,85,18,-23,-202,-170,-167
0,-82,-92,34,46,-86,85,18,-23,-196,-152,-155
-23,-88,-62,52,10,-74,91,24,-5,-184,-152,-149
-35,-82,-44,58,-2,-62,79,30,0,-184,-152,-155
-11,-82,-68,46,22,-74,79,36,0,-190,-146,-161
6,-82,-98,28,52,-86,73,24,0,-190,-140,-161
6,-94,-110,34,58,-98,85,30,0,-178,-122,-149
-6,-94,-86,46,34,-92,91,48,12,-160,-110,-137
-29,-82,-50,52,4,-68,103,54,30,-136,-86,-113
-17,-58,-38,34,4,-50,91,48,30,-136,-92,-113
-6,-46,-44,22,16,-44,85,42,18,-142,-98,-131
-6,-58,-56,28,22,-56,85,54,30,-124,-80,-125
-6,-64,-56,34,16,-62,79,54,48,-106,-68,-107
-17,-70,-50,40,10,-62,73,66,54,-106,-56,-107
-6,-64,-62,28,22,-62,67,66,60,-100,-56,-107
0,-58,-68,22,34,-62,79,72,78,-88,-50,-95
-6,-64,-62,28,22,-62,79,78,84,-70,-32,-83
-35,-64,-26,46,-2,-44,97,90,102,-46,-8,-71
-23,-58,-32,40,-2,-44,85,84,102,-34,-2,-71
30,-40,-80,4,52,-56,55,72,84,-40,-8,-77
18,-28,-56,4,34,-38,73,84,96,-22,3,-59
-6,-40,-38,16,10,-38,79,96,126,-5,27,-41
-6,-34,-38,10,16,-32,67,96,132,1,21,-41
24,-34,-68,4,46,-50,49,90,138,-5,27,-53
6,-34,-50,4,28,-38,67,114,156,25,45,-23
12,-34,-56,4,34,-44,67,120,168,43,57,-11
42,-22,-74,-1,58,-44,61,114,168,55,63,-11
24,-22,-56,4,40,-38,67,120,180,79,81,7
12,-22,-44,4,28,-32,67,126,192,97,93,12
12,-16,-38,4,22,-26,67,138,204,127,123,24
48,-10,-68,-13,58,-38,55,138,216,139,129,24
54,-16,-80,-13,64,-44,49,138,210,151,141,42
36,-5,-50,-7,40,-26,49,156,228,181,153,48
48,7,-38,-25,46,-8,43,162,246,193,183,60
54,7,-44,-31,52,-8,43,174,258,205,183,66
48,-5,-50,-19,52,-20,43,180,276,235,195,90
54,7,-44,-31,52,-8,37,180,294,253,219,108
66,13,-50,-37,58,-8,37,186,300,271,237,108
66,-5,-68,-31,70,-26,37,192,312,289,249,126
60,7,-50,-31,58,-14,31,198,324,319,273,150
66,31,-32,-49,52,-3,25,204,342,337,297,162
78,31,-44,-55,64,-3,19,216,360,355,309,174
78,37,-38,-55,58,-3,19,228,372,385,321,186
84,37,-44,-61,64,-3,7,222,378,391,327,192
96,43,-50,-67,76,-3,7,234,402,409,345,204
78,55,-20,-67,52,15,25,240,426,433,369,222
72,37,-32,-55,52,-3,1,240,420,445,381,228
66,37,-26,-49,46,3,1,240,426,463,381,240
120,55,-62,-85,94,-3,1,234,414,463,375,234
138,73,-62,-103,100,3,-4,234,408,469,393,246
102,67,-32,-85,70,15,1,246,438,481,411,252
96,67,-26,-79,64,15,1,246,432,487,417,252
108,73,-32,-91,70,15,1,240,444,493,417,258
102,79,-20,-91,64,27,1,246,456,493,423,258
108,73,-32,-91,70,15,1,240,450,487,423,258
114,61,-50,-85,82,3,-4,240,444,487,411,252
114,61,-50,-85,82,3,-4,240,438,493,417,252
90,73,-14,-79,52,27,1,240,444,493,423,258
72,73,-3,-73,34,33,7,240,444,499,429,258
66,67,-3,-67,34,33,7,246,444,505,435,270
78,61,-14,-67,46,21,1,240,432,481,417,264
60,73,3,-67,22,39,7,240,438,481,417,258
78,79,-3,-79,40,39,1,234,426,475,399,252
120,97,-20,-109,70,33,1,228,408,451,387,240
126,79,-44,-103,88,15,1,228,414,439,375,228
102,61,-38,-79,70,9,1,222,402,427,369,222
90,73,-14,-79,52,27,1,222,396,427,375,216
84,79,-3,-79,46,33,1,216,384,409,363,210
72,61,-8,-67,40,21,13,210,378,409,357,210
90,67,-20,-79,58,21,7,204,360,391,339,204
96,67,-26,-79,64,15,7,216,348,379,339,198
72,55,-14,-61,46,15,13,198,336,355,315,186
66,49,-14,-55,40,15,13,192,342,349,315,180
96,73,-20,-85,58,21,13,192,330,331,297,168
60,67,-3,-61,28,33,13,186,318,319,285,162
42,49,-3,-43,16,27,19,186,312,313,279,150
48,49,-3,-49,22,21,25,186,306,295,273,144
36,61,15,-49,4,39,31,186,294,277,255,132
18,49,21,-31,-2,39,37,174,282,271,243,126
30,55,15,-43,4,39,43,174,270,253,237,126
54,61,-3,-55,22,33,31,162,252,235,225,114
66,55,-8,-61,40,21,25,144,240,211,207,96
6,55,39,-31,-7,51,49,162,252,223,219,114
-6,61,57,-25,-25,63,49,156,240,199,201,90
54,49,-3,-49,28,21,25,126,204,157,165,54
60,49,-8,-55,34,15,31,120,192,145,141,48
36,49,3,-43,10,27,31,114,180,127,129,42
30,49,9,-37,4,33,43,114,174,121,135,42
42,37,-3,-37,22,15,49,108,156,121,123,24
54,37,-14,-43,34,9,37,96,132,103,105,12
18,43,15,-31,-2,33,43,96,138,97,105,18
0,43,33,-19,-7,39,55,90,126,79,93,12
18,43,15,-31,-2,33,43,72,108,55,69,7
12,37,15,-25,-2,27,43,66,96,43,45,-17
0,25,15,-13,-2,21,61,66,96,31,39,-23
6,25,9,-13,-2,21,55,54,72,7,21,-41
-6,19,21,-1,-7,21,55,54,66,1,15,-53
-17,13,33,4,-25,21,61,48,54,-5,3,-59
-17,13,33,4,-25,21,67,42,42,-5,3,-71
-17,25,45,4,-31,33,73,42,30,-22,-2,-71
-23,13,39,4,-31,27,67,36,24,-34,-8,-71
-11,19,33,4,-19,27,61,24,6,-52,-32,-95
-6,37,45,-7,-25,39,67,24,0,-64,-38,-101
-6,19,27,-1,-13,21,73,36,0,-76,-44,-107
-29,7,39,4,-31,21,79,30,0,-76,-50,-119
-23,13,39,4,-31,27,79,24,0,-88,-62,-119
-17,7,27,4,-19,15,79,30,0,-100,-62,-125
-29,1,33,4,-31,15,91,36,0,-100,-68,-119
-41,-5,39,16,-37,15,97,30,0,-100,-68,-119
-41,-5,39,16,-37,15,97,36,0,-100,-68,-119
-35,1,39,10,-37,21,91,30,0,-112,-80,-125
-41,1,45,10,-43,21,91,30,0,-130,-92,-137
-41,1,45,10,-43,21,85,30,-5,-136,-98,-137
-29,1,33,4,-31,15,91,36,-5,-136,-92,-137
-29,-5,27,10,-25,9,91,42,0,-136,-104,-143
-35,-5,27,16,-31,9,103,48,0,-136,-104,-143
-35,-5,27,16,-31,9,103,42,0,-130,-104,-149
-41,-5,39,16,-37,15,103,42,6,-130,-104,-149
-47,-5,33,22,-43,9,97,30,0,-130,-110,-143
-29,7,39,4,-31,21,85,30,0,-136,-110,-155
-23,19,45,4,-31,33,85,36,0,-136,-98,-143
-29,-5,27,10,-25,9,97,42,12,-130,-98,-143
-41,-5,39,16,-37,15,91,48,18,-124,-104,-137
-59,1,63,22,-61,33,91,48,18,-124,-104,-137
-47,-5,45,16,-43,21,97,54,18,-118,-98,-137
-41,-5,33,16,-37,9,103,48,24,-118,-104,-137
-41,-5,33,16,-37,9,103,48,18,-112,-92,-125
-35,1,39,10,-37,21,103,48,18,-112,-98,-131
-47,-5,39,22,-43,15,109,54,24,-100,-92,-119
-29,7,39,4,-31,21,103,48,24,-94,-92,-119
-11,7,21,4,-13,15,91,42,18,-100,-92,-119
-17,-5,15,4,-13,3,79,42,12,-106,-98,-125
-17,1,21,4,-19,9,85,42,18,-100,-92,-119
-6,7,9,4,-2,9,73,42,12,-106,-98,-125
-6,-5,-3,4,-2,-3,79,42,18,-106,-98,-125
-23,-5,15,10,-19,3,85,48,30,-100,-86,-113
-11,-5,9,4,-7,3,79,48,24,-94,-86,-113
-17,1,21,4,-19,9,73,42,18,-94,-92,-113
-11,13,27,4,-19,21,73,36,18,-100,-98,-113
-11,7,21,4,-13,15,73,30,18,-94,-86,-107
-23,7,33,4,-25,21,79,36,12,-88,-74,-101
-17,7,27,4,-19,15,73,36,12,-106,-80,-113
-23,-5,21,4,-19,9,79,42,24,-106,-74,-101
-29,-5,21,10,-25,3,67,18,12,-118,-98,-113
-23,-5,21,4,-19,9,67,30,18,-112,-86,-113
-11,13,27,4,-19,21,73,36,24,-106,-86,-107
-23,1,27,4,-25,15,73,30,18,-106,-86,-107
-41,1,45,10,-43,21,73,30,12,-106,-86,-113
-59,-5,57,22,-55,27,85,42,24,-82,-68,-95
-53,1,57,16,-55,27,97,42,24,-82,-56,-77
-6,7,15,4,-7,9,73,24,0,-100,-80,-95
0,-5,-8,4,4,-3,67,0,-5,-124,-104,-125
-6,-5,-3,4,-2,-3,55,0,-5,-130,-104,-119
-23,-5,9,10,-19,-3,67,18,0,-124,-92,-113
-6,-5,-8,4,-2,-3,55,0,-11,-142,-104,-131
-6,-5,-3,4,-2,-3,61,0,-5,-136,-110,-131
-11,-5,-3,4,-7,-3,67,6,-5,-124,-92,-119
-6,-5,-3,4,-2,-3,55,0,-11,-130,-110,-125
-17,-16,-3,16,-7,-8,73,12,0,-118,-92,-113
-11,-5,-3,4,-7,-3,67,6,-11,-124,-92,-107
-6,-5,-3,4,-2,-3,67,0,-17,-130,-98,-113
-23,-5,9,10,-19,-3,73,0,-11,-136,-104,-113
-41,-22,9,28,-25,-3,79,6,-5,-130,-98,-113
-23,-16,-3,16,-13,-3,73,6,-11,-142,-104,-119
-23,-22,-3,22,-7,-8,67,0,-17,-148,-122,-125
-35,-16,9,22,-25,-3,79,6,-5,-142,-116,-125
-29,-22,-3,22,-13,-8,79,6,-11,-136,-104,-113
-17,-10,-3,10,-7,-3,67,0,-17,-148,-116,-119
-17,-22,-3,16,-2,-14,73,0,-17,-142,-104,-119
-41,-22,9,28,-25,-3,67,0,-23,-142,-104,-119
-23,-16,-3,16,-13,-3,67,0,-23,-148,-110,-119
-35,-16,9,22,-25,-3,79,0,-23,-148,-116,-119
-53,-22,21,34,-37,-3,73,0,-23,-148,-122,-125
-41,-5,27,22,-37,3,61,0,-35,-166,-134,-137
-35,-16,9,22,-25,-3,73,0,-23,-166,-122,-131
-23,-28,-3,22,-7,-14,73,0,-23,-172,-122,-137
-29,-28,-3,28,-13,-14,67,0,-35,-166,-122,-125
-11,-28,-14,16,-2,-20,61,0,-35,-172,-128,-137
0,-28,-38,4,16,-32,55,-11,-41,-178,-140,-143
-6,-22,-14,10,-2,-20,55,-11,-47,-166,-134,-131
-29,-28,-3,28,-13,-14,67,0,-29,-160,-116,-125
-29,-16,3,22,-19,-3,61,0,-35,-166,-122,-125
-11,-28,-14,16,-2,-20,67,0,-35,-166,-122,-131
-17,-28,-8,22,-2,-20,67,0,-41,-172,-128,-137
-17,-16,-3,16,-7,-8,73,0,-35,-172,-128,-131
-23,-16,-3,16,-13,-3,67,-5,-41,-178,-140,-137
-29,-28,-3,28,-13,-14,67,-5,-41,-178,-128,-131
-29,-22,-3,22,-13,-8,61,0,-35,-166,-116,-125
-17,-5,9,4,-13,-3,67,-5,-41,-160,-116,-125
-17,1,21,4,-19,9,73,-5,-35,-154,-110,-125
-29,7,39,4,-31,21,79,-5,-29,-148,-104,-113
-35,13,51,4,-43,33,79,0,-29,-142,-104,-119
-35,13,51,4,-43,33,91,-5,-29,-142,-92,-113
-35,31,69,4,-49,51,91,-5,-35,-154,-98,-101
-65,31,99,10,-79,63,109,0,-17,-142,-98,-101
-59,49,111,4,-85,81,97,-11,-23,-148,-110,-107
-11,43,57,-7,-31,51,97,-17,-35,-148,-110,-113
-11,49,63,-13,-37,57,103,-17,-35,-136,-104,-113
-29,55,87,-7,-55,69,103,-11,-29,-136,-92,-107
-29,61,93,-7,-61,75,85,-23,-35,-130,-92,-95
-17,67,87,-19,-49,75,73,-35,-47,-136,-98,-101
-11,91,105,-31,-55,99,67,-41,-53,-142,-104,-107
-17,115,135,-43,-73,123,67,-47,-53,-136,-92,-101
-11,139,153,-55,-79,147,61,-47,-53,-136,-86,-95
-29,157,189,-55,-109,171,37,-59,-53,-142,-86,-83
-23,169,195,-67,-109,183,25,-77,-59,-142,-92,-89
-17,163,183,-67,-97,171,13,-83,-65,-124,-80,-83
-6,157,165,-67,-85,159,1,-89,-71,-124,-92,-89
-6,163,159,-79,-73,165,1,-71,-59,-118,-68,-65
-6,169,165,-79,-79,171,1,-65,-41,-100,-50,-47
-6,157,159,-73,-79,159,1,-53,-35,-100,-50,-53
12,151,129,-79,-49,141,-4,-47,-41,-112,-56,-53
42,133,81,-85,-13,111,-16,-53,-41,-118,-62,-59
30,127,87,-79,-19,111,-16,-41,-41,-118,-62,-53
12,121,99,-67,-37,111,1,-29,-29,-112,-62,-53
18,109,81,-61,-25,99,1,-17,-17,-106,-56,-53
6,115,99,-61,-37,111,1,-17,-23,-106,-56,-53
0,109,99,-55,-43,105,19,-5,-11,-88,-50,-41
0,97,87,-49,-37,93,43,12,0,-64,-26,-23
-6,49,57,-13,-31,51,31,0,0,-76,-32,-47
6,7,-3,-7,4,3,7,-17,-17,-112,-68,-71
36,13,-20,-25,28,-3,1,-17,-35,-130,-92,-83
30,19,-8,-25,22,3,31,0,-23,-124,-86,-83
0,-5,-3,4,4,-3,49,6,-5,-124,-86,-83
-6,-28,-20,16,-2,-26,73,18,0,-124,-92,-89
-11,-46,-32,28,4,-38,67,12,-11,-142,-110,-107
-29,-40,-8,34,-7,-26,85,6,0,-136,-104,-95
-23,-46,-20,34,-2,-32,85,0,-17,-154,-122,-101
-6,-64,-62,28,22,-62,67,-5,-47,-172,-140,-131
-6,-76,-68,40,22,-74,67,-11,-65,-196,-158,-155
-41,-100,-56,70,-2,-80,91,0,-53,-190,-164,-155
-41,-100,-56,70,-2,-80,79,-5,-59,-208,-170,-155
-35,-94,-56,64,4,-74,85,-5,-59,-208,-170,-161
-35,-100,-62,64,4,-80,91,-5,-53,-208,-170,-155
-23,-112,-86,64,22,-98,79,-11,-59,-220,-182,-167
-23,-106,-80,64,22,-92,85,-5,-53,-214,-176,-161
-29,-100,-68,64,10,-86,91,-5,-59,-208,-170,-155
-29,-106,-74,64,16,-92,91,0,-53,-202,-170,-155
-47,-112,-62,76,-2,-86,97,0,-47,-196,-164,-155
-41,-106,-62,70,4,-86,91,0,-59,-208,-164,-161
-41,-94,-50,64,-2,-74,91,-5,-59,-202,-164,-155
-41,-100,-56,70,-2,-80,85,-5,-47,-208,-182,-167
-23,-112,-86,64,22,-98,73,-11,-59,-214,-188,-167
-6,-106,-104,52,46,-104,79,-5,-65,-214,-188,-167
-23,-106,-80,64,22,-92,85,0,-59,-208,-176,-167
-59,-112,-50,82,-2,-80,85,0,-53,-202,-170,-167
-41,-112,-68,76,4,-92,91,0,-59,-202,-170,-155
-29,-118,-86,70,22,-104,85,0,-53,-202,-176,-161
-47,-118,-68,82,4,-92,85,0,-47,-196,-164,-161
-35,-106,-68,70,10,-86,97,0,-47,-190,-158,-143
-23,-100,-74,58,16,-86,97,0,-53,-190,-158,-149
-35,-112,-74,70,10,-92,85,0,-47,-190,-164,-149
-47,-112,-62,76,-2,-86,91,0,-47,-184,-158,-149
-59,-106,-44,82,-2,-74,91,-5,-47,-190,-158,-149
-53,-106,-50,76,-2,-80,91,0,-53,-190,-164,-155
-53,-118,-62,82,-2,-92,91,0,-53,-196,-170,-155
-47,-124,-74,82,4,-98,85,-5,-59,-190,-164,-161
-47,-118,-68,82,4,-92,79,-5,-59,-196,-170,-161
-47,-112,-62,76,-2,-86,85,-11,-53,-184,-158,-149
-17,-112,-92,64,28,-104,79,-5,-47,-184,-158,-149
-35,-100,-62,64,4,-80,85,0,-17,-142,-128,-131
-23,-94,-68,58,16,-80,73,24,30,-88,-80,-89
30,-70,-110,10,70,-86,49,54,114,-5,-20,-35
30,-10,-50,-1,40,-26,49,90,204,97,45,24
12,61,39,-37,-7,51,37,96,246,187,117,78
18,133,105,-73,-37,123,55,150,306,289,213,156
42,205,153,-121,-49,183,73,246,450,451,339,270
90,271,177,-181,-37,231,37,306,582,643,525,432
138,307,165,-223,-7,237,1,426,786,889,771,636
210,349,135,-277,34,243,-10,492,912,1135,1053,864
246,427,171,-337,34,297,-34,366,780,1315,1305,1068
252,463,201,-355,22,333,-4,306,660,1465,1515,1230
240,469,219,-355,10,345,73,258,522,1585,1713,1386
246,511,255,-379,-2,387,97,42,264,1687,1965,1596
294,607,303,-451,-2,459,-34,-233,0,1861,2282,1854
342,709,357,-523,-2,531,-280,-503,-251,2023,2593,2111
360,769,405,-565,-13,591,-538,-809,-581,2058,2749,2249
306,799,483,-553,-85,645,-724,-1139,-995,1861,2629,2171
204,673,465,-439,-127,567,-760,-1331,-1343,1513,2210,1842
84,397,303,-235,-103,351,-730,-1295,-1397,1297,1761,1458
54,199,135,-127,-31,171,-706,-1151,-1307,1039,1239,1020
-6,37,45,-7,-25,39,-640,-1007,-1241,553,567,498
-65,-82,-14,70,-19,-50,-538,-935,-1235,-5,-74,1
-89,-154,-62,118,-7,-110,-472,-875,-1247,-574,-536,-365
-137,-178,-38,154,-43,-110,-376,-779,-1199,-952,-740,-539
-143,-202,-56,172,-37,-128,-316,-695,-1061,-1024,-740,-551
-131,-202,-68,166,-25,-134,-304,-623,-881,-886,-644,-497
-125,-166,-38,142,-37,-104,-268,-533,-707,-688,-530,-431
-119,-136,-14,124,-49,-74,-208,-431,-581,-580,-470,-377
-89,-106,-14,94,-31,-62,-142,-335,-467,-508,-410,-329
-59,-70,-8,64,-19,-38,-100,-263,-383,-460,-368,-287
-71,-52,9,58,-43,-14,-76,-227,-323,-424,-344,-269
-101,-58,33,76,-67,-8,-52,-191,-281,-394,-326,-251
-101,-64,27,82,-67,-14,-10,-137,-221,-364,-296,-233
-89,-82,-3,82,-43,-38,1,-95,-179,-340,-284,-227
-71,-124,-50,94,-7,-86,13,-83,-155,-322,-272,-227
-23,-130,-104,76,34,-116,19,-77,-149,-310,-278,-233
-29,-112,-80,70,16,-98,49,-53,-119,-286,-260,-215
-29,-124,-92,76,22,-110,43,-53,-119,-268,-254,-221
-17,-130,-110,70,40,-122,49,-41,-107,-262,-236,-203
-23,-118,-92,70,28,-104,61,-17,-83,-250,-230,-203
-53,-118,-62,82,-2,-92,67,0,-71,-244,-218,-191
-53,-118,-62,82,-2,-92,67,0,-59,-250,-224,-197
-29,-124,-92,76,22,-110,67,-5,-53,-256,-230,-197
-35,-130,-92,82,22,-110,67,0,-47,-256,-230,-203
-29,-124,-92,76,22,-110,73,0,-53,-244,-230,-203
-29,-124,-92,76,22,-110,79,0,-47,-244,-230,-191
-35,-130,-92,82,22,-110,79,0,-41,-238,-224,-185
-53,-124,-68,88,-2,-98,79,0,-41,-226,-212,-179
-35,-112,-74,70,10,-92,85,0,-41,-220,-200,-167
-41,-130,-86,82,16,-110,91,0,-23,-226,-200,-161
-41,-130,-86,82,16,-110,73,0,-23,-226,-206,-173
-41,-106,-62,70,4,-86,85,12,-17,-220,-206,-179
-65,-112,-44,88,-7,-80,91,18,0,-220,-194,-167
-71,-130,-56,100,-2,-92,97,30,12,-214,-200,-167
-47,-118,-68,82,4,-92,97,24,0,-208,-206,-167
-11,-112,-98,58,34,-104,85,6,-11,-226,-218,-185
-17,-130,-110,70,40,-122,79,0,-17,-220,-212,-179
-17,-118,-98,64,34,-110,85,6,-11,-214,-200,-179
-6,-106,-98,52,40,-104,79,0,-11,-208,-200,-167
-41,-112,-68,76,4,-92,91,6,0,-202,-188,-167
-29,-124,-92,76,22,-110,79,12,-5,-208,-188,-161
-35,-118,-80,76,16,-98,79,36,0,-208,-188,-161
-35,-100,-62,64,4,-80,97,36,12,-196,-176,-149
-23,-106,-80,64,22,-92,85,30,6,-208,-194,-173
-17,-118,-98,64,34,-110,79,36,6,-208,-188,-167
-23,-118,-92,70,28,-104,91,42,12,-202,-176,-149
-11,-112,-98,58,34,-104,91,24,12,-190,-170,-149
-17,-106,-86,58,28,-98,103,36,6,-172,-158,-131
-23,-100,-74,58,16,-86,91,36,12,-172,-140,-125
-23,-106,-80,64,22,-92,91,36,18,-178,-152,-125
-23,-100,-74,58,16,-86,85,54,30,-166,-134,-119
-35,-94,-56,64,4,-74,85,54,36,-172,-128,-119
-35,-100,-62,64,4,-80,85,60,48,-178,-128,-119
-17,-94,-74,52,22,-86,79,54,36,-178,-134,-131
-6,-100,-98,46,40,-98,67,48,36,-166,-134,-125
6,-94,-110,34,58,-98,73,48,42,-154,-128,-119
0,-94,-104,40,52,-98,79,42,48,-142,-116,-119
-6,-100,-92,52,34,-98,85,60,54,-124,-98,-95
-6,-70,-62,34,22,-68,73,54,60,-112,-92,-83
-6,-70,-74,28,34,-68,67,54,60,-118,-92,-95
-6,-82,-74,40,28,-80,79,84,84,-100,-68,-77
-6,-76,-68,40,22,-74,73,78,96,-94,-68,-77
-6,-64,-68,28,28,-62,73,84,102,-88,-62,-71
-6,-64,-68,28,28,-62,73,84,108,-88,-68,-89
-11,-76,-62,40,16,-68,85,96,120,-70,-44,-65
-11,-76,-62,40,16,-68,91,102,132,-52,-26,-53
-6,-76,-68,40,22,-74,85,96,132,-40,-20,-41
-6,-70,-68,34,28,-68,85,96,132,-16,-8,-35
30,-52,-92,4,58,-68,67,84,126,-16,-8,-29
48,-46,-104,4,76,-74,61,84,138,-10,-2,-41
18,-52,-80,10,46,-62,67,96,156,1,9,-23
0,-46,-56,16,28,-50,67,114,174,13,21,-11
12,-40,-62,4,34,-50,61,114,192,13,27,1
0,-52,-62,16,28,-56,67,126,204,31,33,1
0,-40,-50,10,22,-44,67,138,198,43,57,12
30,-40,-80,4,52,-56,49,120,198,49,57,12
24,-46,-80,4,52,-62,49,120,210,79,69,18
6,-46,-62,10,34,-50,55,138,222,115,93,42
6,-28,-44,4,22,-32,61,144,234,139,123,54
18,-10,-38,4,28,-20,49,150,240,145,129,54
42,-28,-80,-1,58,-50,37,162,246,163,141,66
60,-28,-98,-7,76,-62,31,162,258,175,147,72
66,-5,-80,-25,70,-38,25,162,282,181,159,72
54,-10,-74,-13,64,-38,31,180,294,199,165,84
54,-16,-80,-13,64,-44,37,186,306,223,189,102
42,-10,-62,-7,52,-32,37,192,324,253,219,120
54,-5,-68,-19,58,-32,43,198,336,277,237,144
66,-5,-74,-25,70,-32,37,210,348,307,249,156
72,-5,-74,-31,76,-32,19,198,354,325,261,168
78,-5,-80,-37,82,-32,13,204,366,337,273,174
78,13,-62,-43,70,-14,13,216,384,361,297,198
78,25,-50,-49,64,-3,13,228,402,367,303,198
84,7,-74,-43,82,-26,7,228,420,379,315,204
90,7,-80,-49,88,-26,7,240,426,397,321,210
102,13,-86,-55,94,-26,7,246,438,421,345,234
114,25,-86,-67,100,-20,1,234,438,427,345,222
90,31,-56,-61,76,-3,1,240,450,445,363,246
24,31,-3,-25,10,15,31,264,480,493,405,276
0,31,21,-13,-2,27,31,264,486,505,423,300
78,31,-44,-55,64,-3,7,252,468,481,405,270
150,37,-110,-91,130,-26,1,234,450,475,393,264
132,49,-80,-91,106,-8,-4,240,456,481,393,270
114,43,-68,-79,94,-3,-10,240,468,475,393,264
114,43,-68,-79,94,-3,-16,240,462,463,375,258
114,49,-62,-79,88,-3,1,240,468,469,387,264
120,49,-68,-85,94,-3,1,246,468,481,393,264
114,49,-62,-79,88,-3,1,240,456,481,393,264
90,37,-50,-61,70,-3,1,240,450,481,399,270
90,37,-50,-61,70,-3,1,234,444,481,405,270
102,49,-50,-73,76,-3,-10,228,444,463,387,270
96,49,-44,-73,70,-3,1,228,438,463,381,258
90,61,-26,-73,58,15,1,240,432,445,375,252
96,61,-32,-79,64,9,-10,222,420,415,351,240
90,43,-44,-67,70,-3,-4,228,420,409,339,228
96,43,-50,-67,76,-3,1,216,414,409,339,228
90,43,-44,-67,70,-3,1,210,408,397,333,222
96,37,-56,-67,76,-3,1,210,396,391,321,222
96,37,-56,-67,76,-3,7,210,384,391,315,216
84,31,-50,-55,70,-3,13,210,378,385,321,216
96,43,-50,-67,76,-3,1,192,360,355,297,192
90,49,-38,-67,64,3,1,198,354,343,285,192
90,49,-38,-67,64,3,1,204,348,325,273,174
96,49,-44,-73,70,-3,1,192,336,301,255,168
72,49,-20,-61,46,9,1,186,336,289,243,162
60,37,-20,-49,40,3,7,192,330,283,243,156
78,43,-32,-61,58,3,1,180,312,271,237,144
72,55,-14,-61,46,15,13,174,300,265,231,138
60,49,-8,-55,34,15,19,168,276,253,219,132
48,31,-14,-37,34,3,25,162,282,241,213,132
42,25,-14,-31,28,3,19,156,270,229,201,126
36,37,-3,-37,16,15,25,156,252,211,189,108
36,55,9,-43,10,33,19,150,240,193,171,96
18,61,33,-37,-2,51,19,144,240,175,159,84
6,49,33,-25,-7,45,25,150,240,163,141,84
24,37,3,-31,4,21,37,144,228,157,147,78
-17,25,45,4,-31,33,43,138,222,151,141,72
-6,31,27,-13,-7,33,37,120,198,133,123,60
60,37,-20,-49,40,3,25,96,162,103,93,24
66,31,-32,-49,52,-3,19,78,144,85,81,18
48,31,-14,-37,34,3,25,84,132,79,75,12
42,19,-20,-31,34,-3,37,84,126,61,51,12
36,25,-8,-31,22,3,25,78,114,43,39,1
12,25,3,-19,-2,15,31,78,108,31,33,1
24,7,-14,-13,22,-3,37,66,102,13,9,-23
24,7,-14,-13,22,-3,37,54,84,7,3,-35
24,13,-8,-19,16,-3,31,42,60,-5,-8,-53
-6,13,9,-1,-2,15,37,42,60,-5,-8,-53
-6,7,3,-1,-2,9,43,30,36,-10,-20,-65
-6,1,9,4,-7,3,55,36,42,-16,-20,-59
-6,1,9,4,-7,3,55,36,30,-28,-26,-65
-17,1,21,4,-19,9,61,36,24,-52,-44,-77
-17,7,27,4,-19,15,55,30,18,-70,-56,-89
-17,13,33,4,-25,21,61,30,18,-82,-62,-95
-35,19,57,4,-43,39,73,42,24,-82,-68,-101
-17,7,27,4,-19,15,73,30,6,-100,-86,-119
-6,-5,-3,4,-2,-3,61,12,0,-118,-98,-131
-11,-5,-3,4,-7,-3,67,18,0,-118,-104,-125
-17,-5,9,4,-13,-3,85,30,0,-100,-98,-113
-29,-5,27,10,-25,9,85,24,0,-112,-92,-119
-6,1,3,4,-2,3,73,24,0,-124,-110,-125
-6,-5,-3,4,-2,-3,61,24,0,-136,-128,-143
-23,-5,15,10,-19,3,73,36,0,-130,-122,-137
-23,-5,15,10,-19,3,79,42,0,-142,-122,-137
-23,-5,9,10,-19,-3,79,36,0,-148,-134,-143
-23,-5,9,10,-19,-3,79,30,0,-142,-134,-149
-41,-5,27,22,-37,3,97,48,12,-130,-116,-143
-41,-5,27,22,-37,3,91,48,12,-130,-116,-125
-17,-10,-3,10,-7,-3,85,42,6,-124,-134,-131
-6,-5,-3,4,-2,-3,79,36,6,-136,-134,-131
-6,-5,3,4,-2,-3,67,36,6,-136,-134,-137
-23,-5,9,10,-19,-3,79,42,18,-130,-128,-131
-11,1,15,4,-13,9,73,42,18,-130,-128,-137
-6,7,15,4,-7,9,67,48,24,-130,-122,-125
-17,-10,-3,10,-7,-3,67,42,18,-136,-140,-143
-17,-22,-3,16,-2,-14,79,42,30,-130,-128,-137
-6,-10,-3,4,-2,-8,85,54,36,-106,-110,-119
-11,-5,-3,4,-7,-3,85,54,42,-100,-104,-107
-11,-5,9,4,-7,3,79,48,24,-100,-110,-119
-35,-5,33,10,-31,15,79,48,30,-94,-98,-107
-53,-5,51,22,-49,21,85,60,42,-82,-86,-95
-17,1,21,4,-19,9,79,48,30,-100,-104,-107
0,-5,-3,4,4,-3,55,36,18,-112,-122,-119
-6,-5,3,4,-2,-3,55,42,24,-112,-116,-113
-6,1,3,4,-2,3,61,48,30,-100,-116,-119
-17,1,21,4,-19,9,73,48,36,-94,-104,-107
-6,-5,-3,4,-2,-3,61,42,30,-94,-98,-107
-6,-5,-3,4,-2,-3,55,24,18,-100,-104,-113
-11,-5,3,4,-7,-3,67,30,24,-82,-104,-107
-23,-5,15,10,-19,3,67,36,24,-76,-92,-95
-35,7,45,4,-37,27,73,48,30,-70,-74,-83
-23,-5,21,4,-19,9,67,54,36,-82,-74,-89
0,-5,-8,4,4,-3,67,36,18,-94,-98,-101
-6,-5,-3,4,-2,-3,55,36,12,-106,-110,-113
-6,-5,-3,4,-2,-3,49,36,24,-106,-122,-119
-11,-10,-3,10,-2,-3,49,30,18,-106,-110,-119
-17,-5,3,10,-13,-3,49,30,18,-100,-98,-113
-6,-5,-3,4,-2,-3,49,30,12,-94,-98,-119
-6,-5,-3,4,-2,-3,55,24,12,-88,-98,-119
-6,-5,-8,4,-2,-3,55,24,0,-94,-92,-119
6,-10,-26,4,16,-14,55,24,0,-100,-98,-113
0,-16,-26,4,10,-20,43,24,0,-112,-104,-131
-6,-16,-8,10,-2,-14,49,18,0,-112,-104,-125
-6,-16,-14,4,-2,-14,61,30,0,-112,-98,-119
-17,-5,3,10,-13,-3,67,30,0,-112,-104,-125
-35,-10,15,22,-25,-3,61,24,0,-112,-110,-131
-17,-22,-3,16,-2,-14,61,18,0,-112,-110,-125
-6,-28,-26,10,4,-26,43,12,0,-118,-116,-131
-6,-28,-26,10,4,-26,55,12,0,-112,-116,-119
-17,-16,-3,16,-7,-8,55,12,0,-118,-104,-119
-11,-10,-3,10,-2,-3,49,12,-5,-118,-110,-125
-23,-22,-3,22,-7,-8,55,12,0,-118,-110,-125
-23,-16,-3,16,-13,-3,55,6,0,-124,-104,-131
-11,-16,-3,10,-2,-8,43,6,-5,-148,-116,-143
-6,-16,-20,4,4,-14,37,0,-11,-154,-128,-149
0,-28,-38,4,16,-32,43,0,-11,-148,-128,-149
-17,-40,-20,28,-2,-32,55,6,-17,-136,-128,-143
-17,-28,-8,22,-2,-20,55,6,-29,-142,-128,-143
-6,-10,-14,4,4,-8,37,0,-35,-148,-140,-149
-11,-16,-3,10,-2,-8,43,0,-35,-142,-128,-143
-29,-22,-3,22,-13,-8,55,6,-29,-130,-116,-125
-35,-34,-3,34,-13,-14,55,12,-23,-136,-116,-131
-6,-22,-20,10,4,-20,37,0,-41,-160,-134,-149
6,-10,-26,4,16,-14,31,0,-47,-172,-146,-161
-6,-22,-20,10,4,-20,37,0,-35,-166,-146,-161
-6,-40,-32,22,4,-38,43,-5,-47,-178,-146,-167
-6,-34,-32,16,10,-32,49,0,-41,-166,-140,-155
-6,-34,-32,16,10,-32,49,0,-41,-160,-134,-155
-17,-34,-14,22,-2,-26,55,0,-41,-142,-122,-143
-23,-34,-8,28,-2,-20,55,0,-41,-148,-122,-143
-11,-22,-8,16,-2,-14,55,0,-41,-148,-122,-137
-17,-16,-3,16,-7,-8,49,0,-35,-142,-122,-137
-23,-5,9,10,-19,-3,43,0,-35,-148,-128,-137
-29,-10,9,16,-19,-3,49,0,-35,-148,-122,-131
-6,-5,3,4,-2,-3,49,0,-41,-160,-140,-143
-6,1,9,4,-7,3,61,0,-35,-148,-128,-143
-6,1,9,4,-7,3,67,-5,-35,-142,-116,-137
-6,25,33,-1,-19,27,67,-11,-35,-142,-122,-137
-11,37,51,-7,-31,45,73,-11,-41,-136,-122,-125
-35,37,75,4,-55,57,85,-5,-35,-118,-98,-113
-41,49,93,4,-67,69,73,-11,-41,-124,-104,-119
-47,49,99,4,-73,75,97,0,-35,-124,-104,-119
-35,55,93,-1,-61,75,97,0,-29,-124,-98,-107
-17,61,81,-13,-49,69,79,-11,-41,-136,-104,-119
-6,61,57,-25,-25,63,61,-29,-53,-148,-122,-125
-11,55,69,-13,-37,63,43,-41,-53,-154,-128,-131
-6,97,105,-37,-55,99,49,-41,-53,-136,-110,-113
-6,127,123,-61,-55,129,49,-41,-53,-124,-104,-101
-17,127,147,-49,-79,135,49,-35,-47,-100,-86,-83
-17,127,147,-49,-79,135,31,-59,-59,-106,-80,-83
-29,139,171,-49,-97,153,7,-77,-65,-106,-80,-71
-11,151,165,-61,-85,159,1,-83,-77,-118,-80,-77
-6,163,159,-79,-73,165,1,-71,-71,-112,-74,-71
18,163,135,-91,-49,153,-22,-77,-71,-118,-80,-77
6,151,135,-79,-55,147,-22,-65,-59,-112,-80,-65
0,145,135,-73,-61,141,1,-41,-47,-94,-62,-53
6,133,117,-67,-49,129,-16,-47,-53,-100,-62,-47
36,127,81,-79,-13,105,-40,-53,-53,-106,-68,-53
36,115,69,-73,-7,93,-34,-53,-53,-100,-68,-41
30,97,57,-61,-7,81,-34,-53,-59,-106,-68,-53
18,97,69,-55,-19,87,-16,-29,-41,-94,-62,-47
18,91,63,-55,-13,81,-16,-23,-35,-100,-62,-53
18,67,39,-43,-2,57,-4,-5,-23,-94,-56,-41
12,61,39,-37,-7,51,1,0,-17,-94,-56,-47
18,43,15,-31,-2,33,1,0,-29,-106,-74,-53
24,7,-14,-13,22,-3,1,-11,-35,-124,-86,-71
6,-5,-14,4,10,-3,1,0,-29,-118,-86,-65
0,-10,-20,4,10,-14,25,0,-23,-112,-80,-65
-6,-22,-20,10,4,-20,37,6,-17,-100,-80,-65
-6,-22,-26,4,10,-20,43,0,-35,-124,-104,-83
24,-40,-74,4,46,-56,37,0,-41,-148,-122,-95
-6,-58,-50,28,16,-56,49,0,-35,-142,-122,-95
-59,-58,-3,58,-25,-26,55,0,-29,-154,-122,-101
-53,-70,-14,58,-13,-44,61,0,-47,-184,-140,-119
-47,-88,-38,64,-2,-62,61,-5,-59,-196,-170,-143
-6,-94,-86,46,34,-92,55,-17,-77,-220,-188,-167
-17,-106,-86,58,28,-98,61,-5,-77,-208,-176,-149
-29,-124,-92,76,22,-110,55,-17,-83,-214,-182,-155
-11,-112,-98,58,34,-104,49,-11,-77,-208,-182,-149
-35,-106,-68,70,10,-86,55,-11,-77,-196,-176,-143
-65,-112,-44,88,-7,-80,67,-5,-77,-202,-170,-149
-53,-118,-62,82,-2,-92,55,-11,-77,-208,-176,-149
-35,-112,-74,70,10,-92,55,-11,-77,-208,-182,-155
-29,-136,-104,82,28,-122,61,-5,-77,-214,-188,-149
-29,-142,-110,82,34,-128,55,-5,-71,-220,-194,-155
-23,-124,-98,70,28,-110,55,-11,-77,-214,-194,-155
-41,-130,-86,82,16,-110,61,-5,-71,-208,-182,-149
-47,-136,-86,88,10,-110,73,0,-65,-202,-176,-143
-41,-130,-86,82,16,-110,61,-11,-77,-208,-182,-155
-23,-124,-98,70,28,-110,49,-23,-95,-208,-188,-149
-29,-130,-98,76,28,-116,61,-17,-83,-214,-182,-143
-35,-124,-86,76,16,-104,67,-11,-77,-202,-182,-143
-35,-112,-74,70,10,-92,67,-5,-71,-196,-182,-143
-23,-112,-86,64,22,-98,55,-11,-77,-202,-188,-155
-35,-130,-92,82,22,-110,55,-11,-77,-208,-188,-161
-23,-124,-98,70,28,-110,55,-11,-77,-196,-188,-155
-17,-112,-92,64,28,-104,55,-11,-71,-196,-182,-149
-17,-118,-98,64,34,-110,61,-17,-77,-208,-176,-155
-35,-106,-68,70,10,-86,55,-23,-83,-202,-176,-149
-71,-118,-44,94,-7,-80,55,-17,-89,-196,-170,-149
-89,-130,-38,106,-19,-86,61,-5,-77,-190,-158,-143
-53,-106,-50,76,-2,-80,67,-11,-71,-196,-164,-137
-29,-112,-80,70,16,-98,61,-17,-77,-202,-170,-149
-17,-130,-110,70,40,-122,49,-17,-83,-202,-182,-149
-29,-136,-104,82,28,-122,49,-5,-59,-190,-170,-143
-29,-112,-80,70,16,-98,49,0,-35,-160,-140,-119
-6,-100,-92,52,34,-98,43,24,18,-76,-80,-59
12,-76,-98,22,52,-86,37,60,108,13,-14,-11
18,-10,-38,4,28,-20,13,72,174,103,45,42
24,55,21,-37,-2,39,1,84,204,193,123,102
42,133,81,-85,-13,111,13,132,282,295,213,174
54,211,147,-133,-37,183,37,246,444,469,357,288
96,265,165,-181,-25,219,7,306,576,661,543,456
156,307,147,-235,-2,231,-16,426,780,895,807,660
222,343,117,-277,46,237,-52,474,876,1135,1077,894
240,403,153,-319,40,279,-70,348,732,1321,1323,1104
234,439,195,-337,16,315,-16,282,618,1465,1533,1266
240,445,195,-343,22,321,43,222,474,1579,1749,1446
258,499,237,-379,10,369,49,0,198,1699,2007,1656
288,583,285,-439,-2,441,-88,-287,-77,1855,2324,1914
336,685,339,-505,-2,513,-334,-569,-353,1987,2623,2159
330,769,435,-547,-43,603,-580,-869,-689,1981,2743,2267
264,793,519,-529,-121,663,-736,-1181,-1097,1759,2569,2147
174,631,453,-403,-133,543,-766,-1337,-1409,1411,2132,1782
102,355,243,-229,-67,303,-736,-1295,-1445,1213,1659,1380
66,163,87,-115,-2,129,-718,-1145,-1343,931,1107,936
-6,13,15,-1,-7,15,-628,-995,-1265,457,441,414
-65,-94,-26,76,-13,-62,-550,-935,-1277,-100,-182,-65
-125,-160,-32,142,-43,-98,-478,-869,-1289,-652,-602,-407
-155,-190,-32,172,-55,-110,-388,-779,-1229,-982,-770,-533
-155,-226,-68,190,-37,-146,-340,-701,-1091,-1024,-758,-545
-161,-220,-56,190,-49,-140,-322,-611,-887,-850,-638,-473
-167,-166,-3,166,-79,-80,-274,-509,-707,-670,-524,-401
-137,-136,-3,136,-67,-68,-220,-419,-575,-574,-458,-341
-89,-112,-20,100,-31,-68,-172,-335,-485,-514,-416,-317
-89,-82,-3,82,-43,-38,-136,-263,-407,-466,-380,-287
-107,-64,33,82,-73,-8,-100,-227,-347,-430,-356,-263
-107,-76,21,88,-67,-20,-76,-191,-305,-406,-326,-239
-41,-94,-50,64,-2,-74,-58,-167,-275,-394,-326,-251
-23,-118,-92,70,28,-104,-40,-137,-239,-364,-308,-239
-29,-142,-110,82,34,-128,-16,-113,-209,-340,-290,-227
-47,-136,-86,88,10,-110,1,-65,-167,-310,-266,-209
-59,-118,-56,88,-2,-86,7,-53,-143,-286,-254,-203
-65,-124,-56,94,-2,-92,19,-53,-131,-274,-242,-203
-53,-124,-68,88,-2,-98,25,-35,-113,-268,-236,-191
-35,-130,-92,82,22,-110,31,-35,-119,-274,-242,-209
-41,-136,-92,88,16,-116,43,-17,-95,-262,-236,-191
-35,-142,-104,88,28,-122,37,-17,-95,-256,-230,-191
-35,-136,-98,82,22,-116,43,-11,-89,-256,-236,-197
-41,-148,-104,94,22,-128,43,-5,-77,-250,-230,-191
-53,-154,-98,100,16,-128,49,0,-77,-244,-218,-185
-47,-136,-86,88,10,-110,55,0,-65,-244,-218,-191
-47,-136,-86,88,10,-110,61,0,-65,-244,-212,-185
-47,-142,-92,94,16,-116,55,0,-71,-232,-206,-185
-47,-142,-92,94,16,-116,55,0,-65,-226,-206,-179
-29,-130,-98,76,28,-116,49,0,-65,-238,-212,-185
-41,-130,-86,82,16,-110,55,0,-59,-238,-212,-185
-47,-142,-92,94,16,-116,55,0,-53,-226,-212,-179
-47,-136,-86,88,10,-110,61,6,-41,-226,-212,-179
-41,-130,-86,82,16,-110,55,0,-41,-226,-218,-185
-53,-142,-86,94,10,-116,61,6,-29,-214,-200,-173
-59,-142,-80,100,4,-110,67,12,-17,-214,-188,-167
-83,-130,-44,106,-13,-86,79,24,-11,-202,-176,-167
-53,-130,-74,88,4,-104,67,12,-29,-208,-188,-173
-17,-130,-110,70,40,-122,61,6,-35,-220,-200,-179
-23,-118,-92,70,28,-104,67,18,-23,-220,-194,-167
-11,-106,-92,58,34,-98,55,6,-35,-220,-200,-179
-17,-118,-98,64,34,-110,49,12,-29,-220,-200,-173
-53,-124,-68,88,-2,-98,55,30,-5,-208,-182,-155
-71,-112,-38,88,-13,-74,61,30,-5,-202,-176,-155
-47,-130,-80,88,10,-104,55,24,-11,-202,-176,-161
-11,-136,-122,70,46,-128,43,12,-23,-214,-182,-173
-35,-124,-86,76,16,-104,61,36,-11,-190,-164,-155
-71,-118,-44,94,-7,-80,67,42,0,-172,-146,-137
-47,-112,-62,76,-2,-86,61,36,0,-178,-146,-137
-6,-100,-104,46,46,-98,43,30,-11,-202,-158,-155
0,-106,-116,46,58,-110,37,24,-11,-202,-152,-161
-6,-94,-86,46,34,-92,37,30,-5,-196,-152,-143
-11,-100,-86,52,28,-92,43,36,0,-184,-134,-137
-23,-100,-74,58,16,-86,43,42,6,-178,-128,-137
-23,-94,-68,58,16,-80,43,42,12,-166,-122,-131
-17,-88,-68,52,16,-80,49,54,18,-154,-110,-125
-17,-94,-74,52,22,-86,49,54,30,-142,-98,-119
-6,-94,-92,46,40,-92,37,42,18,-142,-98,-119
-17,-94,-74,52,22,-86,43,54,30,-130,-86,-101
-6,-88,-86,40,34,-86,43,60,42,-130,-86,-101
0,-88,-98,34,46,-92,37,66,42,-112,-80,-101
6,-82,-98,28,52,-86,31,66,42,-106,-80,-101
-11,-88,-74,46,22,-80,37,72,66,-100,-62,-83
-23,-88,-62,52,10,-74,37,78,78,-88,-44,-77
-11,-82,-68,46,22,-74,43,84,78,-70,-38,-71
-6,-76,-74,34,28,-74,43,84,90,-64,-32,-65
6,-76,-92,28,46,-80,37,78,96,-52,-26,-65
0,-76,-86,28,40,-80,37,78,96,-34,-14,-53
0,-70,-80,28,40,-74,37,78,114,-22,3,-47
-6,-70,-74,28,34,-68,31,84,126,-10,3,-41
-11,-70,-56,40,16,-62,37,102,150,1,15,-29
-6,-58,-62,22,28,-56,43,108,150,13,27,-11
0,-52,-62,16,28,-56,31,102,156,19,39,-11
6,-52,-68,16,34,-56,25,108,168,31,51,1
18,-64,-92,16,52,-74,25,108,174,49,63,1
6,-58,-74,16,40,-62,31,120,198,79,87,12
6,-52,-68,16,34,-56,37,132,204,103,105,18
12,-46,-68,10,40,-56,25,126,210,109,117,18
24,-40,-74,4,46,-56,13,120,210,115,111,24
18,-40,-68,4,40,-50,7,132,216,127,117,36
24,-40,-74,4,46,-56,13,138,234,157,141,48
42,-28,-80,-1,58,-50,1,144,240,169,147,66
30,-40,-80,4,52,-56,1,156,258,187,165,72
36,-28,-74,4,52,-50,1,162,270,217,189,84
48,-16,-74,-7,58,-44,7,180,294,235,219,108
36,-10,-56,-7,46,-32,1,174,300,253,231,114
30,-22,-62,4,46,-38,1,186,318,277,243,132
36,-28,-74,4,52,-50,1,186,330,295,255,138
48,-10,-68,-13,58,-38,1,198,336,319,279,156
66,1,-62,-31,64,-20,-4,198,348,337,285,162
66,-5,-74,-25,70,-32,1,210,366,349,309,180
72,-5,-86,-25,76,-44,-10,216,378,367,321,192
78,1,-74,-37,76,-26,-10,228,402,385,339,204
78,7,-68,-43,76,-20,-16,222,402,403,345,210
66,-5,-68,-31,70,-26,-16,234,426,427,363,228
54,7,-44,-31,52,-8,-10,240,438,439,387,246
60,13,-44,-37,52,-8,-10,240,438,451,399,252
84,7,-74,-43,82,-26,-28,228,432,451,387,240
90,13,-74,-49,82,-20,-34,228,432,457,393,240
84,19,-62,-49,76,-14,-22,240,438,463,405,252
84,19,-62,-49,76,-14,-28,240,444,475,411,252
96,25,-68,-61,82,-14,-40,234,432,463,405,252
90,31,-56,-61,76,-3,-34,240,444,463,411,252
78,37,-38,-55,58,-3,-28,240,444,469,417,264
102,37,-62,-67,82,-3,-34,228,432,469,411,252
102,43,-56,-73,82,-3,-28,234,438,469,411,252
108,37,-68,-73,88,-8,-28,228,426,463,411,252
120,31,-86,-73,106,-20,-34,216,414,457,399,246
102,49,-50,-73,76,-3,-34,222,414,457,387,246
108,55,-50,-79,82,-3,-34,222,408,439,393,246
102,37,-62,-67,82,-3,-40,210,402,427,375,228
54,25,-26,-37,40,-3,-28,216,402,427,375,246
78,37,-38,-55,58,-3,-28,216,390,415,375,228
72,31,-38,-49,58,-3,-22,216,390,409,363,228
30,7,-20,-19,28,-3,-16,216,390,409,369,234
30,19,-8,-25,22,3,-10,216,384,391,351,228
78,37,-38,-55,58,-3,-16,210,372,379,333,198
102,37,-62,-67,82,-3,-34,174,336,349,303,174
72,31,-38,-49,58,-3,-16,186,336,355,309,180
66,25,-38,-43,52,-3,-10,198,336,343,315,180
84,19,-62,-49,76,-14,-16,186,318,319,297,168
84,25,-56,-55,70,-8,-16,174,306,301,273,156
72,31,-38,-49,58,-3,-16,180,306,289,261,150
66,31,-32,-49,52,-3,-10,186,300,283,261,144
36,19,-14,-25,28,-3,1,180,300,277,261,150
48,25,-20,-37,34,-3,-4,162,282,253,249,126
72,7,-62,-37,70,-20,-10,156,270,235,225,108
60,7,-50,-31,58,-14,-4,144,252,229,219,102
48,25,-20,-37,34,-3,1,150,252,217,219,108
24,19,-3,-19,16,3,1,156,246,205,213,102
12,13,-3,-13,4,3,1,150,240,193,207,96
36,25,-8,-31,22,3,1,138,222,175,183,72
36,37,-3,-37,16,15,1,126,204,151,159,60
-6,31,27,-13,-7,33,13,132,210,151,165,60
24,25,-3,-25,10,9,7,114,192,133,147,48
66,19,-44,-43,58,-3,1,90,150,97,117,18
54,13,-38,-31,46,-3,7,96,156,97,111,12
24,19,-3,-19,16,3,19,96,150,97,117,18
6,19,3,-13,-2,15,19,96,144,73,105,12
6,7,-3,-7,4,3,13,84,120,61,93,12
0,1,-3,-1,-2,-3,19,78,114,55,75,1
0,13,3,-7,-2,9,19,66,96,31,51,-17
-11,-5,9,4,-7,3,31,72,90,19,57,-17
-17,1,21,4,-19,9,37,66,84,7,39,-29
12,7,-3,-7,10,-3,37,48,66,-5,21,-47
-6,-5,-8,4,-2,-3,43,54,48,-5,9,-53
-17,-5,9,4,-13,-3,43,60,48,-10,3,-65
-47,-5,33,22,-43,9,55,54,42,-16,3,-71
-53,-5,51,22,-49,21,55,42,30,-34,-2,-83
-23,-5,15,10,-19,3,49,36,18,-46,-14,-95
-6,-16,-8,10,-2,-14,43,30,0,-70,-32,-107
-17,-10,-3,10,-7,-3,43,18,0,-82,-50,-125
-17,-5,9,4,-13,-3,55,24,0,-94,-50,-119
-11,-5,9,4,-7,3,61,24,0,-106,-62,-131
-23,-5,9,10,-19,-3,61,24,0,-106,-62,-125
-23,-22,-3,22,-7,-8,55,24,0,-118,-68,-131
-23,-16,-3,16,-13,-3,55,30,0,-118,-80,-143
-59,-16,33,34,-49,3,79,42,0,-100,-68,-131
-53,-16,27,34,-43,-3,85,42,6,-106,-62,-131
-53,-16,27,34,-43,-3,91,42,0,-112,-74,-137
-65,-28,27,46,-49,-3,85,48,0,-124,-86,-143
-41,-16,15,28,-31,-3,79,48,0,-136,-92,-149
-35,-5,21,16,-31,3,85,54,0,-136,-86,-149
-11,-10,-3,10,-2,-3,79,54,6,-130,-86,-143
-11,-10,-3,10,-2,-3,79,48,0,-136,-98,-155
-53,-22,21,34,-37,-3,85,48,0,-130,-98,-149
-41,-10,21,22,-31,-3,79,48,6,-130,-104,-161
-41,-10,21,22,-31,-3,91,54,18,-124,-98,-149
-53,-16,27,34,-43,-3,91,54,18,-118,-98,-149
-47,-16,21,28,-37,-3,79,54,18,-130,-104,-149
-47,-10,27,28,-37,3,79,60,24,-124,-98,-143
-35,-10,15,22,-25,-3,91,60,30,-118,-86,-137
-17,-10,-3,10,-7,-3,79,66,30,-124,-86,-137
-23,-34,-8,28,-2,-20,79,66,36,-112,-92,-137
-41,-46,-3,40,-13,-26,79,60,36,-112,-86,-131
-29,-28,-3,28,-13,-14,85,60,42,-106,-74,-125
-23,-22,-3,22,-7,-8,91,60,36,-94,-80,-113
-35,-28,-3,28,-19,-8,79,54,36,-94,-80,-125
-29,-22,-3,22,-13,-8,79,54,36,-88,-74,-113
-35,-16,9,22,-25,-3,91,66,48,-82,-62,-107
-17,-16,-3,16,-7,-8,85,66,48,-82,-62,-107
-17,-10,-3,10,-7,-3,67,48,24,-94,-80,-119
-83,-10,63,46,-73,21,85,72,60,-70,-44,-95
-89,-22,57,52,-73,9,91,84,60,-64,-38,-95
-41,-34,-3,34,-19,-14,79,60,42,-76,-62,-101
-65,-22,33,40,-49,-3,85,66,60,-64,-44,-83
-17,-16,-3,16,-7,-8,73,60,42,-76,-50,-101
12,-16,-38,4,22,-26,55,36,24,-88,-62,-113
0,-16,-26,4,10,-20,67,42,24,-88,-62,-113
-11,-28,-14,16,-2,-20,61,54,24,-88,-62,-101
-17,-34,-14,22,-2,-26,67,54,24,-82,-56,-101
-17,-28,-8,22,-2,-20,67,48,24,-88,-56,-101
-17,-28,-8,22,-2,-20,67,48,24,-88,-56,-101
-17,-28,-8,22,-2,-20,67,48,24,-94,-62,-107
-17,-5,3,10,-13,-3,73,48,24,-82,-50,-95
-41,-22,9,28,-25,-3,73,42,24,-82,-50,-95
-41,-34,-3,34,-19,-14,73,42,24,-88,-50,-95
-6,-22,-26,4,10,-20,73,36,18,-88,-56,-101
-6,-5,-3,4,-2,-3,67,24,0,-106,-68,-107
-11,-10,-3,10,-2,-3,61,24,0,-106,-68,-113
-6,-22,-20,10,4,-20,61,24,6,-100,-62,-113
-6,-34,-26,16,4,-32,73,30,6,-100,-62,-107
-17,-22,-3,16,-2,-14,61,30,0,-112,-68,-113
-23,-34,-8,28,-2,-20,67,30,0,-112,-62,-107
-29,-46,-14,34,-2,-32,67,30,6,-100,-62,-107
-17,-34,-14,22,-2,-26,73,24,0,-106,-68,-107
-23,-34,-8,28,-2,-20,67,24,0,-112,-68,-113
-29,-46,-14,34,-2,-32,73,18,0,-112,-68,-107
-29,-40,-8,34,-7,-26,79,30,0,-118,-74,-113
-35,-40,-3,34,-13,-20,73,24,0,-124,-74,-113
-29,-46,-14,34,-2,-32,61,24,-11,-130,-74,-119
-6,-28,-26,10,4,-26,61,12,-11,-136,-80,-131
-6,-16,-8,10,-2,-14,61,18,-17,-136,-80,-125
-29,-34,-3,28,-7,-20,61,12,-11,-136,-86,-131
-23,-58,-32,40,-2,-44,67,12,-11,-136,-86,-119
-29,-40,-8,34,-7,-26,79,24,-11,-124,-74,-107
-41,-22,9,28,-25,-3,73,18,-11,-136,-74,-125
-35,-40,-3,34,-13,-20,67,12,-17,-142,-80,-119
-47,-46,-3,46,-19,-20,79,18,-11,-136,-74,-113
-77,-28,39,52,-61,-3,85,30,-11,-124,-62,-107
-59,-22,27,40,-43,-3,67,18,-23,-148,-86,-131
-11,-34,-20,22,-2,-26,55,0,-35,-160,-104,-137
-6,-40,-32,22,4,-38,61,12,-29,-154,-86,-125
-47,-40,-3,40,-25,-14,79,30,-11,-136,-62,-107
-35,-46,-8,40,-7,-26,79,12,-23,-148,-74,-125
-29,-40,-8,34,-7,-26,73,6,-29,-154,-86,-131
-6,-40,-44,16,16,-38,49,0,-47,-172,-98,-143
-6,-46,-44,22,16,-44,55,-5,-47,-166,-98,-143
-35,-34,-3,34,-13,-14,73,6,-29,-154,-74,-119
-35,-22,3,28,-19,-3,73,0,-35,-160,-74,-125
-35,-16,9,22,-25,-3,73,12,-29,-154,-74,-119
-47,-5,39,22,-43,15,79,18,-23,-142,-74,-119
-29,-5,21,10,-25,3,79,6,-29,-148,-74,-125
-11,-5,9,4,-7,3,67,0,-29,-154,-86,-125
-17,19,39,4,-25,27,73,0,-29,-148,-80,-131
-35,19,57,4,-43,39,97,6,-17,-130,-56,-107
-35,13,51,4,-43,33,109,6,-17,-130,-56,-107
-23,19,45,4,-31,33,97,0,-29,-136,-62,-113
-29,25,57,4,-43,39,97,0,-35,-130,-68,-113
-23,25,51,4,-37,39,103,0,-35,-142,-74,-113
-47,25,75,4,-61,51,103,0,-23,-130,-62,-101
-47,37,87,4,-67,63,103,0,-23,-124,-50,-101
-29,49,81,-1,-55,63,91,0,-35,-130,-50,-95
-17,67,87,-19,-49,75,79,-11,-41,-130,-62,-101
-6,91,87,-43,-37,93,79,-23,-41,-130,-56,-101
-17,91,111,-31,-61,99,79,-23,-35,-118,-38,-89
-29,97,129,-25,-79,111,73,-29,-35,-118,-32,-83
-23,127,153,-43,-85,141,73,-41,-35,-112,-32,-77
-35,151,189,-49,-109,171,43,-53,-59,-118,-38,-77
-29,145,177,-49,-103,159,25,-65,-71,-118,-38,-77
-23,151,177,-55,-97,165,25,-53,-53,-112,-26,-65
-6,157,159,-73,-79,159,13,-53,-53,-106,-14,-53
0,175,165,-85,-73,171,1,-53,-53,-112,-20,-53
-6,151,147,-73,-67,153,7,-41,-41,-100,-8,-53
0,133,123,-67,-55,129,13,-23,-29,-94,-2,-41
12,133,111,-73,-43,123,1,-23,-35,-100,-8,-47
0,115,105,-55,-43,111,1,-23,-23,-100,-8,-41
0,103,93,-49,-37,99,1,-23,-23,-100,-14,-53
12,103,81,-55,-25,93,7,-5,-23,-94,-8,-47
30,103,63,-67,-7,87,7,-5,-23,-94,-14,-47
12,67,45,-37,-7,57,19,0,0,-88,-8,-47
-6,55,57,-19,-25,57,43,18,6,-64,3,-23
-11,43,57,-7,-31,51,43,18,0,-76,3,-29
0,1,-3,-1,-2,-3,37,6,0,-94,-20,-47
12,-5,-14,-1,16,-3,43,0,-5,-112,-26,-65
6,-5,-20,4,10,-8,49,6,-5,-112,-20,-65
0,-16,-26,4,10,-20,67,24,0,-112,-26,-65
-6,-28,-26,10,4,-26,85,30,0,-112,-38,-77
-11,-34,-20,22,-2,-26,97,30,-5,-124,-44,-89
-17,-46,-26,28,-2,-38,91,30,-5,-136,-56,-101
-17,-46,-26,28,-2,-38,85,18,-17,-154,-74,-113
-6,-58,-50,28,16,-56,79,6,-35,-172,-86,-125
-17,-100,-80,58,22,-92,91,6,-47,-190,-110,-143
-59,-112,-50,82,-2,-80,103,6,-47,-208,-122,-149
-65,-106,-38,82,-7,-74,109,12,-35,-202,-110,-143
-59,-100,-38,76,-7,-68,109,12,-41,-190,-110,-143
-47,-100,-50,70,-2,-74,97,12,-47,-202,-122,-149
-11,-106,-92,58,34,-98,91,0,-65,-208,-122,-161
-29,-112,-80,70,16,-98,109,12,-47,-196,-104,-143
-29,-106,-74,64,16,-92,109,6,-53,-196,-110,-149
-23,-112,-86,64,22,-98,97,0,-53,-202,-122,-149
-29,-118,-86,70,22,-104,97,0,-59,-208,-122,-161
-23,-124,-98,70,28,-110,109,6,-53,-208,-116,-155
-11,-118,-104,64,40,-110,103,0,-47,-202,-128,-149
-47,-112,-62,76,-2,-86,115,18,-35,-190,-110,-143
-83,-124,-38,100,-19,-80,133,30,-23,-178,-92,-125
-53,-136,-80,94,4,-110,109,12,-41,-196,-104,-137
-11,-148,-134,76,52,-140,97,0,-59,-208,-128,-161
-23,-130,-104,76,34,-116,97,0,-53,-208,-116,-155
-47,-124,-74,82,4,-98,115,6,-47,-196,-110,-149
-41,-136,-92,88,16,-116,109,6,-41,-196,-110,-143
-47,-142,-92,94,16,-116,97,6,-47,-196,-110,-155
-29,-118,-86,70,22,-104,109,18,-47,-196,-122,-155
-23,-112,-86,64,22,-98,121,18,-35,-184,-104,-143
-29,-112,-80,70,16,-98,121,12,-41,-184,-98,-143
-41,-124,-80,82,10,-104,121,12,-47,-184,-98,-137
-23,-118,-92,70,28,-104,109,12,-47,-184,-98,-143
-47,-124,-74,82,4,-98,109,0,-53,-184,-98,-155
-59,-124,-62,88,-2,-92,127,18,-35,-172,-92,-137
-35,-118,-80,76,16,-98,127,12,-41,-178,-98,-137
-47,-136,-86,88,10,-110,115,0,-41,-184,-104,-143
-47,-130,-80,88,10,-104,121,12,-41,-178,-98,-149
-35,-124,-86,76,16,-104,115,18,-35,-172,-98,-143
-41,-124,-80,82,10,-104,109,18,-11,-148,-80,-131
-29,-112,-80,70,16,-98,109,42,30,-94,-26,-89
-41,-88,-44,64,-2,-68,109,102,132,13,51,-5
-59,-34,15,46,-37,-3,115,138,234,121,147,54
-17,31,51,-1,-31,39,85,126,246,187,201,90
24,115,81,-67,-19,99,61,126,270,253,249,144
90,169,69,-127,4,123,85,240,414,415,381,246
102,235,129,-169,-7,189,85,300,546,595,561,402
126,277,147,-205,-2,219,43,402,732,823,801,600
210,319,105,-259,46,219,13,510,900,1075,1083,828
258,385,117,-319,70,249,1,420,822,1273,1335,1044
258,445,177,-349,40,309,13,330,690,1423,1551,1224
258,457,189,-355,34,321,91,312,582,1561,1767,1398
276,481,201,-379,34,345,127,126,330,1657,2001,1584
288,571,273,-433,4,429,43,-143,48,1801,2306,1830
306,649,333,-481,-7,489,-160,-419,-221,1957,2629,2099
348,721,363,-529,-2,543,-430,-713,-527,2011,2821,2249
300,769,465,-535,-73,621,-610,-1025,-917,1849,2761,2219
204,697,483,-451,-139,591,-676,-1235,-1277,1507,2372,1920
132,451,309,-289,-85,381,-646,-1265,-1403,1261,1887,1506
72,211,129,-139,-19,171,-634,-1139,-1325,1057,1383,1086
12,49,27,-31,-2,39,-574,-983,-1223,643,735,564
-47,-64,-14,52,-13,-38,-496,-899,-1217,103,81,60
-113,-148,-32,130,-37,-92,-430,-851,-1253,-472,-422,-323
-155,-184,-26,166,-61,-104,-340,-773,-1217,-892,-668,-521
-167,-220,-50,190,-55,-134,-280,-701,-1115,-1030,-698,-563
-149,-202,-50,172,-43,-128,-256,-611,-917,-910,-596,-509
-137,-166,-26,148,-49,-98,-232,-521,-725,-718,-482,-437
-137,-136,-3,136,-67,-68,-184,-425,-587,-592,-410,-383
-119,-112,-3,112,-61,-50,-106,-317,-467,-508,-344,-323
-95,-76,9,82,-55,-26,-58,-251,-383,-466,-308,-293
-95,-64,21,76,-61,-14,-22,-203,-311,-424,-278,-263
-89,-64,15,76,-55,-20,-22,-179,-287,-406,-266,-257
-65,-52,3,58,-37,-20,1,-149,-239,-388,-242,-245
-89,-70,9,76,-49,-26,37,-89,-179,-334,-218,-227
-89,-106,-14,94,-31,-62,61,-65,-149,-310,-200,-209
-53,-124,-68,88,-2,-98,67,-41,-125,-298,-194,-209
-47,-118,-68,82,4,-92,85,-23,-101,-280,-188,-203
-71,-130,-56,100,-2,-92,103,0,-77,-250,-158,-185
-65,-130,-62,94,-2,-98,103,-5,-77,-250,-152,-185
-47,-148,-98,94,16,-122,97,0,-71,-262,-170,-197
-6,-136,-134,64,58,-134,85,0,-65,-274,-182,-215
-6,-124,-128,58,58,-122,97,0,-59,-256,-164,-203
-17,-118,-98,64,34,-110,103,6,-47,-256,-158,-203
-35,-142,-104,88,28,-122,115,24,-35,-244,-146,-185
-23,-142,-116,82,40,-128,115,18,-35,-244,-146,-191
-35,-136,-98,82,22,-116,133,24,-23,-226,-128,-161
-41,-130,-86,82,16,-110,133,18,-23,-226,-128,-167
-41,-142,-98,88,22,-122,133,18,-11,-214,-116,-155
-23,-124,-98,70,28,-110,127,18,-23,-220,-122,-161
-23,-118,-92,70,28,-104,127,30,-17,-214,-122,-161
-29,-118,-86,70,22,-104,127,30,-5,-220,-128,-167
-41,-124,-80,82,10,-104,121,30,0,-220,-134,-167
-35,-118,-80,76,16,-98,115,24,-5,-232,-146,-173
-29,-112,-80,70,16,-98,133,36,0,-220,-134,-167
-41,-124,-80,82,10,-104,133,42,0,-208,-128,-167
-41,-136,-92,88,16,-116,139,48,12,-202,-110,-155
-29,-130,-98,76,28,-116,151,36,6,-202,-116,-155
-35,-124,-86,76,16,-104,145,36,12,-196,-110,-143
-23,-124,-98,70,28,-110,145,36,0,-202,-104,-143
-23,-124,-98,70,28,-110,145,36,0,-196,-110,-143
-35,-118,-80,76,16,-98,133,36,0,-202,-116,-155
-35,-112,-74,70,10,-92,133,48,12,-202,-98,-149
-35,-124,-86,76,16,-104,139,66,18,-202,-98,-137
-41,-124,-80,82,10,-104,133,66,18,-202,-98,-143
-53,-106,-50,76,-2,-80,139,72,18,-196,-86,-131
-23,-112,-86,64,22,-98,139,60,24,-190,-80,-131
-17,-124,-104,70,34,-116,145,66,24,-184,-74,-131
-35,-124,-86,76,16,-104,139,66,24,-178,-68,-119
-29,-118,-86,70,22,-104,139,66,18,-172,-56,-113
-29,-118,-86,70,22,-104,151,78,30,-160,-56,-107
-11,-118,-104,64,40,-110,139,72,30,-172,-62,-119
-23,-106,-80,64,22,-92,133,78,42,-166,-44,-119
-17,-106,-86,58,28,-98,139,78,42,-166,-44,-113
-6,-112,-104,58,40,-110,133,84,48,-166,-44,-119
-23,-112,-86,64,22,-98,133,90,54,-154,-32,-107
-35,-118,-80,76,16,-98,145,90,66,-136,-14,-95
-23,-106,-80,64,22,-92,145,84,60,-142,-14,-101
-17,-88,-68,52,16,-80,139,96,72,-124,-2,-83
-6,-70,-68,34,28,-68,145,96,72,-112,3,-71
-6,-82,-80,40,34,-80,133,96,72,-112,3,-83
-6,-70,-62,34,22,-68,127,96,78,-106,-2,-83
-6,-58,-62,22,28,-56,127,114,96,-94,9,-77
6,-52,-68,16,34,-56,139,108,90,-94,9,-65
0,-64,-74,22,34,-68,145,108,108,-88,15,-65
-6,-76,-68,40,22,-74,133,108,120,-76,21,-65
-11,-82,-68,46,22,-74,145,120,132,-46,51,-35
-6,-88,-80,46,28,-86,145,120,132,-40,63,-29
-6,-82,-80,40,34,-80,133,120,138,-22,75,-23
-6,-82,-74,40,28,-80,127,126,138,-5,87,-23
-6,-76,-68,40,22,-74,121,120,156,-5,87,-17
0,-70,-80,28,40,-74,127,138,168,-5,99,1
12,-58,-80,16,46,-68,115,144,180,13,117,1
12,-52,-74,10,40,-62,109,138,174,19,117,1
0,-52,-62,16,28,-56,121,156,204,37,129,12
18,-40,-68,4,40,-50,115,156,210,55,129,12
30,-52,-92,4,58,-68,115,150,210,61,147,12
12,-46,-68,10,40,-56,127,156,228,85,165,24
6,-34,-50,4,28,-38,127,174,240,127,195,54
-6,-40,-44,16,16,-38,127,180,246,151,213,66
-59,-34,15,46,-37,-3,145,216,282,187,243,96
-71,-34,27,52,-49,-3,145,222,306,205,261,114
36,-34,-80,4,58,-56,97,192,282,187,243,90
114,-34,-158,-31,136,-92,67,168,258,175,231,78
66,-28,-104,-13,82,-62,73,192,300,211,255,102
42,-16,-68,-7,52,-38,79,210,324,235,279,120
66,-22,-98,-13,82,-56,73,210,342,259,303,138
60,-16,-86,-13,70,-50,85,222,354,283,327,156
42,-5,-56,-13,46,-26,103,240,372,325,363,186
66,-5,-68,-31,70,-26,79,234,378,343,375,192
84,-5,-86,-37,88,-38,67,240,390,355,381,198
66,1,-62,-31,64,-20,67,240,408,367,393,198
54,1,-50,-25,52,-14,73,246,426,391,399,210
60,1,-56,-31,58,-20,67,252,432,397,411,228
72,1,-68,-37,70,-26,67,258,450,409,411,222
90,-5,-92,-43,94,-38,61,264,456,433,429,240
84,7,-74,-43,82,-26,61,264,462,451,453,252
66,25,-38,-43,52,-3,61,276,474,463,465,264
72,25,-44,-49,58,-3,73,282,486,487,489,282
102,13,-86,-55,94,-26,55,270,486,493,489,282
102,25,-74,-61,88,-14,49,276,492,499,495,288
90,25,-62,-55,76,-8,61,282,498,505,513,300
90,25,-62,-55,76,-8,49,276,498,499,501,294
108,43,-62,-73,88,-3,43,264,486,487,495,294
84,43,-38,-61,64,-3,43,270,492,493,489,282
54,43,-8,-49,34,15,37,270,492,499,489,288
84,55,-26,-67,58,9,37,252,486,487,489,282
102,67,-32,-85,70,15,49,270,486,499,495,294
96,73,-20,-85,58,21,49,270,486,505,507,294
66,43,-20,-55,46,9,43,258,480,487,501,294
72,31,-38,-49,58,-3,43,252,468,481,489,276
102,31,-68,-67,88,-8,37,246,456,469,483,270
102,25,-74,-61,88,-14,43,246,456,463,471,264
90,19,-68,-55,82,-14,49,252,456,457,465,270
60,31,-26,-43,46,-3,49,252,450,451,453,252
30,37,-3,-31,10,21,55,252,450,457,453,252
42,25,-14,-31,28,3,55,258,438,439,447,252
90,25,-62,-55,76,-8,43,246,420,415,429,240
84,31,-50,-55,70,-3,49,240,408,409,411,234
66,43,-20,-55,46,9,43,234,396,391,411,228
42,43,-3,-43,22,21,49,228,384,379,399,216
54,43,-8,-49,34,15,55,228,378,367,387,204
102,37,-62,-67,82,-3,37,210,360,343,363,180
96,43,-50,-67,76,-3,25,192,342,319,333,168
90,37,-50,-61,70,-3,37,198,336,307,333,162
96,31,-62,-61,82,-8,43,198,336,295,333,156
60,25,-32,-43,46,-3,49,204,324,295,321,168
48,19,-26,-31,40,-3,49,192,318,283,315,156
66,37,-26,-49,46,3,61,192,300,277,315,156
66,37,-26,-49,46,3,55,192,288,253,297,144
54,19,-32,-37,46,-3,49,174,270,235,273,120
36,19,-14,-25,28,-3,55,174,258,223,267,114
18,7,-8,-13,16,-3,67,180,258,211,267,114
24,7,-14,-13,22,-3,73,180,252,199,255,108
30,13,-14,-19,22,-3,85,180,240,181,243,96
42,19,-20,-31,34,-3,79,156,222,163,219,72
18,1,-14,-7,16,-3,79,144,216,151,219,66
6,-5,-8,-1,10,-3,79,132,204,139,201,48
30,7,-20,-19,28,-3,73,120,180,121,183,36
24,31,-3,-25,10,15,61,108,156,97,171,24
-6,25,33,-1,-19,27,79,108,156,97,165,18
-17,13,33,4,-25,21,85,108,144,79,147,12
-6,19,27,-1,-13,21,91,102,138,67,129,12
6,25,9,-13,-2,21,91,96,120,43,117,1
30,13,-14,-19,22,-3,85,84,96,7,87,-29
12,1,-8,-7,10,-3,79,72,72,-5,75,-47
-29,7,39,4,-31,21,103,84,78,13,87,-29
-23,7,33,4,-25,21,103,78,72,1,75,-29
-6,7,3,-1,-2,9,103,48,48,-5,45,-59
0,1,-3,-1,-2,-3,103,60,36,-10,45,-59
-11,1,15,4,-13,9,103,66,36,-22,27,-77
-23,13,39,4,-31,27,97,54,24,-46,9,-89
-23,13,39,4,-31,27,97,48,12,-58,3,-101
-29,1,33,4,-31,15,97,54,18,-64,-2,-107
-35,-5,33,10,-31,15,115,54,18,-70,-8,-113
-35,1,39,10,-37,21,121,54,12,-76,-14,-119
-23,19,45,4,-31,33,121,54,6,-82,-20,-113
-17,1,21,4,-19,9,115,54,6,-94,-38,-125
-47,-5,33,22,-43,9,121,54,12,-94,-38,-125
-41,-10,21,22,-31,-3,133,72,18,-88,-26,-113
-47,-5,39,22,-43,15,133,72,12,-100,-44,-131
-59,1,63,22,-61,33,121,66,12,-106,-56,-131
-53,-5,51,22,-49,21,121,60,12,-112,-56,-137
-35,-16,9,22,-25,-3,121,60,12,-118,-56,-137
-47,-22,15,34,-31,-3,133,72,18,-118,-74,-143
-47,-5,39,22,-43,15,127,60,0,-130,-80,-149
-23,-5,21,4,-19,9,127,66,12,-124,-74,-137
-6,-5,-3,4,-2,-3,109,54,12,-124,-86,-149
-23,-5,21,4,-19,9,121,60,18,-112,-86,-149
-35,-5,33,10,-31,15,115,66,18,-112,-80,-143
-29,1,33,4,-31,15,121,72,18,-112,-80,-143
-29,7,39,4,-31,21,109,66,24,-112,-86,-149
-41,7,51,10,-43,27,109,72,36,-106,-74,-131
-41,-5,33,16,-37,9,115,78,36,-106,-68,-119
-23,-5,9,10,-19,-3,115,78,30,-106,-86,-125
-35,-10,15,22,-25,-3,121,84,42,-94,-80,-119
-47,-10,27,28,-37,3,121,84,48,-88,-68,-113
-47,-22,15,34,-31,-3,109,72,48,-88,-74,-113
-41,-34,-3,34,-19,-14,115,72,36,-76,-68,-113
-47,-10,27,28,-37,3,115,84,54,-70,-44,-89
-59,1,63,22,-61,33,109,84,54,-70,-50,-89
-47,7,57,10,-49,33,97,72,36,-82,-62,-107
-17,-5,15,4,-13,3,91,66,36,-82,-68,-101
-6,-5,-3,4,-2,-3,91,66,36,-88,-68,-101
-29,-5,21,10,-25,3,103,78,42,-82,-80,-101
-47,-10,27,28,-37,3,115,90,54,-70,-56,-89
-35,-5,27,16,-31,9,103,72,48,-76,-68,-89
-17,-5,15,4,-13,3,91,60,30,-88,-68,-101
-11,-5,9,4,-7,3,91,60,30,-76,-68,-101
-23,-5,9,10,-19,-3,85,54,30,-82,-62,-101
-11,-5,-3,4,-7,-3,91,60,24,-82,-68,-95
-23,-5,15,10,-19,3,85,54,24,-82,-68,-95
-53,-5,45,22,-49,15,91,60,30,-76,-56,-83
-47,-5,39,22,-43,15,85,60,30,-82,-56,-83
-47,-5,39,22,-43,15,79,60,24,-82,-80,-95
-11,-5,-3,4,-7,-3,85,48,12,-94,-80,-95
-11,-5,-3,4,-7,-3,79,48,12,-94,-86,-101
-17,-5,3,10,-13,-3,73,48,0,-94,-86,-107
-6,-5,-3,4,-2,-3,73,36,0,-94,-86,-107
-6,1,9,4,-7,3,79,30,0,-100,-86,-107
-23,-5,21,4,-19,9,73,36,0,-100,-86,-107
-23,-10,3,16,-13,-3,73,36,0,-106,-80,-95
-35,-5,21,16,-31,3,79,36,0,-100,-80,-95
-23,-5,9,10,-19,-3,67,30,0,-106,-92,-113
-17,-5,15,4,-13,3,61,24,-17,-124,-110,-113
-11,-5,-3,4,-7,-3,73,24,-11,-118,-98,-107
-29,-16,3,22,-19,-3,79,36,-5,-112,-92,-107
-41,-16,15,28,-31,-3,85,36,0,-106,-92,-101
-23,-16,-3,16,-13,-3,67,18,-17,-130,-104,-125
-29,-16,3,22,-19,-3,67,18,-23,-130,-104,-119
-17,-10,-3,10,-7,-3,67,24,-23,-130,-110,-113
-6,-5,-3,4,-2,-3,55,12,-29,-136,-116,-119
-11,-22,-8,16,-2,-14,61,24,-29,-136,-104,-113
-17,-22,-3,16,-2,-14,61,24,-35,-142,-110,-119
-29,-22,-3,22,-13,-8,73,24,-29,-136,-116,-113
-35,-28,-3,28,-19,-8,67,12,-29,-142,-116,-113
-23,-22,-3,22,-7,-8,61,6,-47,-148,-122,-119
-29,-16,3,22,-19,-3,55,6,-41,-148,-122,-125
-53,-5,39,28,-49,9,67,18,-35,-136,-110,-107
-65,-5,57,28,-61,21,67,18,-29,-136,-116,-107
-17,-16,-3,16,-7,-8,55,0,-53,-154,-140,-125
-6,-28,-32,10,10,-26,43,0,-71,-166,-152,-137
-11,-34,-20,22,-2,-26,55,0,-65,-160,-152,-131
-29,-40,-8,34,-7,-26,61,0,-59,-154,-140,-131
-41,-34,-3,34,-19,-14,61,0,-59,-160,-146,-131
-65,-40,15,52,-43,-8,67,12,-59,-148,-134,-119
-65,-40,15,52,-43,-8,67,12,-53,-142,-128,-107
-23,-40,-14,28,-2,-26,49,0,-71,-160,-146,-131
-6,-40,-44,16,16,-38,49,-5,-77,-172,-158,-137
-6,-34,-26,16,4,-32,55,0,-83,-166,-158,-125
-23,-16,-3,16,-13,-3,43,0,-83,-172,-164,-137
-47,-5,39,22,-43,15,43,-5,-83,-178,-170,-143
-35,-5,33,10,-31,15,43,-5,-77,-172,-170,-137
-11,7,21,4,-13,15,37,-5,-83,-172,-182,-137
-23,25,51,4,-37,39,49,0,-71,-166,-164,-137
-29,25,57,4,-43,39,55,-5,-65,-160,-158,-125
-41,25,69,4,-55,45,73,0,-59,-142,-140,-113
-35,31,69,4,-49,51,67,-5,-65,-142,-146,-113
-35,37,75,4,-55,57,73,-5,-71,-136,-140,-101
-41,43,87,4,-61,63,61,-11,-77,-142,-146,-107
-47,37,87,4,-67,63,61,-17,-83,-148,-158,-119
-35,61,99,-7,-67,81,61,-11,-77,-148,-146,-101
-29,85,117,-19,-73,99,61,-11,-77,-136,-140,-101
-23,79,105,-19,-61,93,31,-29,-95,-154,-158,-119
-41,73,117,-7,-79,93,37,-29,-95,-160,-152,-113
-53,103,159,-19,-103,129,37,-29,-89,-142,-134,-101
-41,145,189,-43,-115,165,43,-35,-83,-136,-134,-95
-35,163,201,-55,-115,183,37,-41,-83,-136,-134,-83
-35,151,189,-49,-109,171,1,-77,-113,-148,-152,-101
-29,163,195,-61,-109,177,-10,-95,-131,-148,-146,-95
-11,163,177,-67,-91,171,-28,-101,-131,-142,-140,-83
-23,151,177,-55,-97,165,-22,-89,-113,-130,-128,-65
-17,157,177,-61,-97,165,-34,-89,-107,-124,-122,-59
-17,169,189,-67,-103,177,-34,-77,-107,-118,-116,-53
-47,157,207,-49,-127,183,-10,-35,-77,-100,-104,-41
-23,157,183,-61,-103,171,-34,-47,-89,-106,-104,-41
12,151,129,-79,-49,141,-58,-59,-95,-118,-116,-53
24,139,105,-79,-31,123,-64,-59,-107,-124,-128,-65
18,133,105,-73,-37,123,-52,-47,-95,-118,-128,-65
18,127,99,-73,-31,117,-46,-47,-89,-118,-128,-59
18,139,111,-79,-37,129,-40,-41,-83,-130,-140,-71
24,121,87,-73,-25,105,-40,-35,-77,-130,-134,-71
0,85,75,-43,-31,81,-22,-11,-53,-106,-122,-53
-6,73,69,-31,-31,75,-16,-11,-59,-106,-134,-59
12,37,15,-25,-2,27,-16,-17,-77,-130,-146,-71
6,13,-3,-7,-2,9,-10,-11,-71,-130,-146,-71
0,-5,-3,4,4,-3,1,-5,-71,-130,-140,-83
-29,-10,9,16,-19,-3,25,12,-53,-118,-140,-65
-23,-10,3,16,-13,-3,25,6,-65,-142,-164,-95
-23,-34,-8,28,-2,-20,19,0,-71,-154,-176,-107
-29,-40,-8,34,-7,-26,31,0,-77,-160,-182,-101
-35,-34,-3,34,-13,-14,31,0,-83,-166,-194,-113
-65,-52,3,58,-37,-20,25,0,-101,-184,-218,-131
-59,-94,-32,76,-7,-62,7,-23,-125,-220,-248,-167
-41,-88,-44,64,-2,-68,7,-23,-125,-226,-254,-161
-41,-82,-38,58,-2,-62,19,-23,-125,-220,-260,-167
-53,-106,-50,76,-2,-80,13,-29,-131,-220,-266,-179
-35,-112,-74,70,10,-92,1,-41,-149,-238,-272,-185
-35,-112,-74,70,10,-92,7,-35,-143,-238,-260,-185
-47,-112,-62,76,-2,-86,19,-29,-131,-220,-248,-161
-47,-100,-50,70,-2,-74,7,-29,-143,-226,-254,-161
-71,-112,-38,88,-13,-74,13,-11,-137,-220,-254,-161
-83,-112,-26,94,-25,-68,19,-11,-125,-220,-248,-161
-29,-100,-68,64,10,-86,1,-35,-143,-238,-272,-179
-11,-88,-74,46,22,-80,1,-35,-149,-244,-284,-191
-47,-94,-44,70,-2,-68,7,-23,-137,-232,-260,-173
-47,-88,-38,64,-2,-62,1,-29,-143,-238,-272,-173
-53,-88,-32,70,-7,-62,7,-23,-137,-232,-272,-173
-35,-100,-62,64,4,-80,1,-35,-149,-244,-278,-185
-17,-130,-110,70,40,-122,1,-41,-143,-238,-278,-185
-53,-124,-68,88,-2,-98,25,-17,-125,-220,-260,-161
-77,-112,-32,94,-19,-74,19,-5,-125,-208,-254,-149
-35,-112,-74,70,10,-92,13,-23,-137,-214,-248,-161
-6,-112,-110,52,46,-110,1,-41,-149,-220,-266,-173
-17,-118,-98,64,34,-110,1,-29,-143,-220,-260,-167
-47,-112,-62,76,-2,-86,7,-29,-137,-202,-242,-155
-41,-112,-68,76,4,-92,7,-35,-149,-214,-254,-155
-35,-106,-68,70,10,-86,7,-29,-149,-220,-254,-167
-29,-100,-68,64,10,-86,1,-29,-155,-226,-272,-179
-23,-94,-68,58,16,-80,1,-41,-155,-220,-272,-179
-47,-100,-50,70,-2,-74,1,-41,-149,-220,-272,-179
-53,-106,-50,76,-2,-80,1,-41,-155,-226,-272,-185
-41,-94,-50,64,-2,-74,-4,-47,-161,-226,-284,-179
-47,-88,-38,64,-2,-62,1,-41,-137,-208,-254,-167
-53,-88,-32,70,-7,-62,1,-17,-107,-166,-218,-131
-29,-82,-50,52,4,-68,1,0,-59,-100,-170,-83
-6,-70,-68,34,28,-68,-10,24,12,-5,-104,-29
0,-10,-20,4,10,-14,-28,36,90,91,-32,12
-6,61,63,-25,-31,63,-52,24,108,181,9,54
-6,145,141,-67,-67,147,-46,48,156,265,81,126
30,223,183,-127,-67,207,-22,156,294,421,225,234
90,271,177,-181,-37,231,-46,222,432,607,405,372
150,307,153,-229,-2,237,-94,300,606,829,633,564
168,343,171,-253,-2,255,-112,420,774,1075,909,798
204,403,195,-301,-2,297,-142,330,696,1255,1137,996
222,469,237,-343,-2,357,-118,252,570,1399,1341,1164
204,481,273,-343,-31,381,-46,228,456,1495,1515,1296
222,535,309,-379,-37,429,1,42,192,1579,1713,1470
252,619,357,-439,-43,489,-100,-227,-89,1717,1971,1674
270,715,435,-487,-73,573,-322,-491,-365,1849,2228,1896
264,835,561,-547,-145,705,-580,-773,-683,1879,2372,2004
222,901,675,-559,-223,789,-772,-1085,-1079,1681,2234,1902
162,805,639,-481,-235,729,-832,-1271,-1427,1333,1833,1590
114,553,435,-331,-157,495,-808,-1271,-1511,1135,1419,1230
60,301,237,-181,-79,267,-784,-1115,-1403,961,993,876
-29,115,147,-37,-85,129,-718,-959,-1307,511,417,432
-89,-34,45,58,-67,-3,-628,-869,-1277,-10,-170,-17
-125,-106,9,112,-67,-44,-550,-815,-1295,-568,-614,-365
-131,-136,-3,130,-61,-68,-472,-749,-1265,-988,-860,-557
-167,-178,-8,172,-73,-92,-406,-683,-1163,-1102,-890,-593
-173,-196,-20,184,-73,-110,-382,-617,-989,-964,-788,-545
-131,-148,-14,136,-55,-80,-376,-569,-833,-784,-698,-479
-101,-106,-3,100,-43,-56,-346,-485,-719,-670,-632,-431
-95,-94,-3,94,-43,-44,-280,-401,-611,-592,-572,-383
-59,-28,21,40,-43,-3,-226,-311,-497,-514,-518,-335
-41,-16,15,28,-31,-3,-208,-275,-455,-484,-494,-317
-83,-52,21,64,-55,-8,-196,-269,-431,-466,-482,-311
-77,-52,15,64,-49,-14,-184,-233,-389,-442,-476,-299
-65,-76,-8,70,-25,-44,-148,-191,-341,-406,-452,-287
-29,-100,-68,64,10,-86,-124,-173,-305,-376,-422,-275
-47,-118,-68,82,4,-92,-100,-149,-275,-340,-398,-257
-71,-118,-44,94,-7,-80,-76,-119,-239,-310,-380,-239
-47,-118,-68,82,4,-92,-70,-101,-227,-298,-374,-233
-53,-112,-56,82,-2,-86,-58,-95,-215,-280,-356,-227
-59,-118,-56,88,-2,-86,-52,-83,-191,-280,-350,-221
-53,-130,-74,88,4,-104,-46,-71,-185,-280,-356,-227
-29,-118,-86,70,22,-104,-64,-77,-179,-286,-362,-227
-17,-118,-98,64,34,-110,-64,-83,-185,-286,-368,-227
-23,-118,-92,70,28,-104,-46,-59,-155,-268,-356,-227
-23,-112,-86,64,22,-98,-52,-59,-161,-268,-356,-227
-35,-124,-86,76,16,-104,-40,-59,-155,-262,-344,-215
-41,-124,-80,82,10,-104,-40,-65,-155,-256,-344,-215
-41,-130,-86,82,16,-110,-34,-59,-149,-244,-338,-215
-29,-124,-92,76,22,-110,-46,-71,-161,-244,-338,-203
-23,-118,-92,70,28,-104,-46,-65,-149,-244,-344,-203
-23,-118,-92,70,28,-104,-46,-53,-149,-250,-344,-215
-29,-112,-80,70,16,-98,-46,-47,-143,-244,-338,-215
-29,-100,-68,64,10,-86,-52,-53,-137,-256,-344,-215
-35,-112,-74,70,10,-92,-46,-41,-125,-256,-350,-227
-47,-124,-74,82,4,-98,-46,-41,-131,-250,-350,-227
-59,-130,-68,94,-2,-98,-34,-35,-119,-244,-338,-215
-47,-106,-56,76,-2,-80,-22,-29,-119,-238,-332,-209
-35,-94,-56,64,4,-74,-28,-35,-119,-238,-332,-209
-59,-112,-50,82,-2,-80,-28,-35,-119,-238,-320,-197
-35,-130,-92,82,22,-110,-40,-35,-113,-232,-314,-197
-6,-118,-110,58,46,-116,-40,-29,-119,-244,-326,-203
-11,-112,-98,58,34,-104,-34,-29,-107,-238,-320,-203
-35,-106,-68,70,10,-86,-34,-29,-101,-244,-314,-191
-23,-106,-80,64,22,-92,-40,-23,-101,-244,-326,-209
-17,-94,-74,52,22,-86,-46,-29,-113,-244,-326,-209
-6,-94,-98,40,46,-92,-52,-29,-107,-244,-326,-209
-6,-100,-98,46,40,-98,-46,-29,-107,-244,-320,-203
-17,-82,-62,46,16,-74,-46,-29,-101,-238,-308,-203
-17,-64,-44,40,4,-56,-46,-29,-101,-232,-296,-191
-35,-88,-50,58,-2,-68,-40,-17,-83,-220,-278,-185
-23,-94,-68,58,16,-80,-46,-23,-83,-220,-266,-179
6,-94,-110,34,58,-98,-52,-23,-83,-214,-272,-185
-6,-88,-86,40,34,-86,-46,-5,-71,-214,-260,-173
-17,-94,-74,52,22,-86,-46,0,-53,-208,-254,-167
-6,-100,-92,52,34,-98,-46,0,-65,-202,-242,-161
-6,-94,-86,46,34,-92,-46,-5,-59,-190,-242,-161
-6,-106,-98,52,40,-104,-52,-11,-59,-190,-242,-155
-11,-100,-86,52,28,-92,-58,-5,-53,-178,-236,-155
-17,-88,-68,52,16,-80,-52,0,-47,-160,-224,-149
-6,-82,-74,40,28,-80,-46,0,-29,-154,-218,-143
-6,-88,-80,46,28,-86,-64,0,-35,-154,-218,-149
-6,-88,-80,46,28,-86,-58,0,-23,-136,-200,-137
-11,-94,-80,52,28,-86,-46,6,-11,-130,-188,-125
-11,-100,-86,52,28,-92,-52,0,0,-118,-188,-131
-6,-88,-80,46,28,-86,-58,6,0,-106,-176,-119
-6,-82,-86,34,40,-80,-52,12,0,-94,-164,-113
0,-76,-86,28,40,-80,-64,12,0,-88,-170,-113
-11,-70,-56,40,16,-62,-70,12,6,-76,-158,-107
-6,-52,-44,28,10,-50,-70,18,6,-58,-140,-95
-6,-40,-44,16,16,-38,-76,18,18,-46,-134,-89
-6,-34,-38,10,16,-32,-88,18,24,-40,-140,-95
-29,-40,-8,34,-7,-26,-70,42,54,-5,-110,-77
-29,-46,-14,34,-2,-32,-70,42,60,-5,-98,-59
-6,-46,-50,16,22,-44,-88,42,66,7,-104,-65
18,-46,-74,4,46,-56,-82,48,78,31,-74,-47
48,-28,-86,-1,64,-56,-94,42,72,37,-74,-47
42,-22,-74,-1,58,-44,-88,48,90,67,-44,-29
12,-28,-50,4,28,-38,-88,66,108,97,-26,-17
0,-34,-44,10,22,-38,-88,72,120,115,-8,1
24,-22,-56,4,40,-38,-94,72,132,121,-2,12
60,-16,-86,-13,70,-50,-112,66,132,127,3,1
42,-10,-62,-7,52,-32,-100,78,156,157,15,12
36,-10,-56,-7,46,-32,-106,84,162,169,27,12
42,-5,-56,-13,46,-26,-112,102,186,199,39,24
48,-5,-62,-13,52,-32,-112,108,204,229,63,48
36,-5,-50,-7,40,-26,-118,102,216,241,75,54
36,-10,-56,-7,46,-32,-130,102,216,265,93,66
54,1,-50,-25,52,-14,-130,114,234,295,105,84
60,13,-44,-37,52,-8,-130,126,240,313,123,96
60,13,-44,-37,52,-8,-136,138,252,325,135,96
60,25,-32,-43,46,-3,-142,132,264,343,153,114
60,43,-14,-49,40,9,-148,132,282,367,171,126
66,37,-26,-49,46,3,-148,138,288,379,183,126
60,19,-38,-37,52,-3,-154,150,306,403,195,138
78,25,-50,-49,64,-3,-160,150,312,415,219,156
78,37,-38,-55,58,-3,-142,156,330,451,237,168
84,37,-44,-61,64,-3,-148,150,330,463,243,168
84,49,-32,-67,58,3,-154,156,336,475,255,186
84,55,-26,-67,58,9,-160,150,330,475,261,192
78,55,-20,-67,52,15,-166,156,348,481,267,198
90,49,-38,-67,64,3,-172,162,348,481,267,204
84,61,-20,-73,52,15,-172,168,348,487,273,204
78,55,-20,-67,52,15,-172,162,342,481,273,198
84,49,-32,-67,58,3,-172,162,348,481,261,192
84,49,-32,-67,58,3,-166,168,342,493,273,210
78,61,-14,-67,46,21,-166,156,330,481,267,198
78,55,-20,-67,52,15,-166,150,324,475,267,192
84,73,-8,-79,46,27,-178,144,318,475,255,186
72,79,-3,-73,34,39,-166,150,324,475,267,204
48,67,9,-55,16,39,-160,150,330,463,261,192
48,61,3,-55,16,33,-172,144,318,451,249,180
78,67,-8,-73,46,27,-190,126,300,421,225,162
90,73,-14,-79,52,27,-184,120,288,403,219,150
60,73,3,-67,22,39,-172,120,288,403,213,150
60,61,-3,-61,28,27,-172,114,264,391,201,144
42,67,15,-55,10,45,-166,114,258,379,195,144
102,73,-26,-85,64,21,-190,96,240,355,177,120
120,67,-50,-91,88,3,-184,96,234,355,177,120
72,61,-8,-67,40,21,-178,90,228,343,183,126
72,61,-8,-67,40,21,-166,90,222,325,159,108
54,55,-3,-55,28,27,-166,90,222,313,153,102
30,67,27,-49,-2,51,-160,90,210,295,141,108
36,61,15,-49,4,39,-166,78,198,271,123,90
30,61,21,-43,-2,45,-160,78,198,259,105,78
42,55,3,-49,16,33,-160,78,186,247,99,66
72,49,-20,-61,46,9,-166,54,156,223,75,48
102,67,-32,-85,70,15,-172,42,138,193,57,24
78,67,-8,-73,46,27,-160,42,138,187,51,24
30,61,21,-43,-2,45,-142,48,138,193,63,36
30,49,9,-37,4,33,-154,36,126,163,33,12
36,43,-3,-37,16,21,-154,30,114,139,15,7
42,55,3,-49,16,33,-142,30,96,121,3,-5
24,55,21,-37,-2,39,-142,24,84,109,3,-5
36,49,3,-43,10,27,-148,18,72,85,-20,-29
12,43,21,-25,-2,33,-136,18,66,85,-14,-29
-6,31,39,-7,-19,33,-118,24,66,79,-14,-23
6,31,15,-19,-2,27,-130,6,36,55,-32,-41
18,31,3,-25,4,21,-124,0,24,43,-50,-59
-6,31,33,-7,-13,33,-118,0,18,37,-44,-65
-6,31,33,-7,-13,33,-124,0,6,13,-68,-71
6,31,15,-19,-2,27,-124,-11,0,-5,-86,-89
-6,31,27,-13,-7,33,-112,-11,-11,-5,-92,-95
-47,37,87,4,-67,63,-112,-5,-5,-10,-98,-89
-41,37,81,4,-61,57,-106,-11,-17,-22,-116,-107
-11,19,33,4,-19,27,-112,-35,-35,-46,-134,-125
-6,13,9,-1,-2,15,-112,-41,-53,-70,-152,-143
24,13,-8,-19,16,-3,-124,-59,-77,-88,-170,-167
18,13,-3,-13,10,3,-118,-59,-83,-94,-176,-161
-35,1,39,10,-37,21,-94,-47,-83,-76,-164,-155
-17,7,27,4,-19,15,-106,-59,-107,-100,-200,-179
-6,7,15,4,-7,9,-100,-53,-101,-124,-206,-173
-17,13,33,4,-25,21,-94,-53,-107,-136,-212,-179
-17,7,27,4,-19,15,-100,-59,-113,-142,-218,-197
-23,-5,15,10,-19,3,-100,-59,-119,-154,-230,-209
-29,-5,15,16,-25,-3,-94,-65,-119,-160,-236,-203
-29,1,33,4,-31,15,-76,-53,-113,-160,-236,-203
-23,7,33,4,-25,21,-76,-53,-119,-166,-236,-209
-29,7,39,4,-31,21,-76,-59,-119,-172,-242,-215
-29,-5,27,10,-25,9,-76,-53,-125,-178,-242,-221
-35,-5,33,10,-31,15,-82,-59,-119,-184,-260,-227
-35,-5,33,10,-31,15,-82,-53,-119,-184,-260,-221
-35,-5,33,10,-31,15,-70,-47,-113,-184,-254,-221
-47,-5,45,16,-43,21,-70,-35,-107,-190,-260,-221
-41,-5,33,16,-37,9,-76,-35,-107,-196,-272,-221
-35,-5,27,16,-31,9,-64,-23,-107,-190,-260,-227
-35,-5,21,16,-31,3,-64,-29,-101,-190,-266,-227
-35,-5,21,16,-31,3,-70,-29,-107,-196,-266,-227
-35,-5,33,10,-31,15,-58,-29,-95,-184,-266,-221
-47,-5,33,22,-43,9,-58,-23,-95,-172,-260,-215
-35,-5,33,10,-31,15,-70,-23,-89,-184,-272,-221
-11,1,15,4,-13,9,-70,-23,-89,-190,-278,-215
-29,1,33,4,-31,15,-64,-29,-83,-184,-284,-215
-47,-5,45,16,-43,21,-64,-23,-77,-184,-278,-209
-53,1,57,16,-55,27,-58,-11,-65,-172,-272,-197
-29,-5,27,10,-25,9,-70,-17,-71,-172,-272,-203
-17,-5,9,4,-13,-3,-64,-23,-71,-172,-278,-209
-11,-5,-3,4,-7,-3,-64,-23,-65,-166,-272,-203
-29,-5,27,10,-25,9,-64,-17,-65,-154,-266,-191
-53,-5,51,22,-49,21,-52,-11,-53,-142,-248,-179
-29,1,33,4,-31,15,-58,-11,-59,-154,-260,-185
-11,-5,9,4,-7,3,-76,-29,-71,-160,-266,-197
-17,-5,15,4,-13,3,-76,-29,-65,-160,-260,-191
-23,1,27,4,-25,15,-76,-29,-65,-166,-260,-191
-41,7,51,10,-43,27,-76,-23,-59,-154,-260,-185
-35,1,39,10,-37,21,-76,-11,-65,-142,-248,-173
-23,7,33,4,-25,21,-70,-17,-65,-142,-248,-173
-11,7,21,4,-13,15,-82,-29,-71,-148,-248,-179
-23,1,27,4,-25,15,-76,-23,-65,-136,-236,-173
-47,-5,45,16,-43,21,-70,-17,-65,-124,-230,-161
-11,1,15,4,-13,9,-94,-35,-77,-148,-254,-179
-6,1,-3,4,-2,3,-100,-41,-83,-154,-248,-173
-6,7,15,4,-7,9,-88,-35,-77,-142,-242,-173
-29,-5,27,10,-25,9,-88,-35,-77,-154,-242,-173
-35,-5,33,10,-31,15,-94,-41,-83,-160,-254,-167
-41,-5,33,16,-37,9,-82,-29,-71,-148,-236,-155
-53,-5,51,22,-49,21,-76,-29,-71,-142,-236,-161
-17,-5,9,4,-13,-3,-76,-35,-77,-148,-236,-167
-6,-5,-3,4,-2,-3,-82,-35,-77,-148,-236,-167
-29,-5,15,16,-25,-3,-76,-29,-77,-142,-230,-161
-17,-5,9,4,-13,-3,-88,-47,-77,-166,-248,-167
-6,-5,-3,4,-2,-3,-94,-53,-89,-172,-248,-173
-23,-5,15,10,-19,3,-82,-41,-89,-166,-236,-167
-29,-5,21,10,-25,3,-88,-53,-89,-178,-242,-173
-41,-5,27,22,-37,3,-88,-47,-95,-178,-254,-173
-41,-16,15,28,-31,-3,-82,-47,-95,-172,-242,-179
-11,-5,-3,4,-7,-3,-76,-47,-95,-172,-242,-179
-6,-10,-14,4,4,-8,-94,-59,-113,-184,-254,-185
-23,-28,-3,22,-7,-14,-88,-47,-101,-166,-242,-179
-29,-10,9,16,-19,-3,-76,-47,-101,-172,-242,-173
-17,-5,9,4,-13,-3,-82,-59,-107,-184,-254,-179
-17,-10,-3,10,-7,-3,-88,-65,-113,-196,-254,-179
-29,-10,9,16,-19,-3,-88,-59,-113,-190,-248,-179
-41,-16,15,28,-31,-3,-82,-59,-107,-196,-248,-179
-29,-28,-3,28,-13,-14,-88,-59,-107,-208,-260,-191
-17,-28,-8,22,-2,-20,-82,-59,-113,-202,-254,-191
-29,-16,3,22,-19,-3,-70,-53,-107,-190,-260,-179
-29,-10,9,16,-19,-3,-76,-59,-119,-196,-260,-179
-23,-10,3,16,-13,-3,-76,-59,-119,-190,-260,-179
-35,-28,-3,28,-19,-8,-82,-71,-125,-196,-260,-179
-23,-28,-3,22,-7,-14,-70,-71,-125,-196,-266,-179
-41,-22,9,28,-25,-3,-70,-71,-125,-208,-266,-179
-35,-28,-3,28,-19,-8,-70,-71,-119,-202,-266,-179
-47,-34,3,40,-25,-8,-64,-59,-113,-202,-260,-173
-65,-40,15,52,-43,-8,-40,-47,-107,-196,-248,-155
-35,-34,-3,34,-13,-14,-52,-59,-119,-202,-254,-167
-6,-34,-26,16,4,-32,-76,-71,-131,-214,-272,-191
-6,-40,-32,22,4,-38,-70,-71,-131,-208,-266,-185
-6,-28,-20,16,-2,-26,-58,-53,-113,-190,-254,-155
-29,-28,-3,28,-13,-14,-58,-59,-125,-196,-254,-161
-71,-28,33,46,-55,-3,-58,-47,-113,-190,-248,-161
-65,-10,45,34,-55,9,-46,-47,-113,-190,-242,-149
-47,-5,33,22,-43,9,-58,-59,-113,-202,-254,-161
-17,-5,3,10,-13,-3,-76,-77,-131,-220,-266,-173
-11,13,27,4,-19,21,-64,-71,-125,-214,-260,-167
-11,37,51,-7,-31,45,-52,-71,-125,-202,-254,-161
-17,31,51,-1,-31,39,-52,-83,-125,-196,-248,-167
-35,19,57,4,-43,39,-58,-77,-119,-190,-248,-155
-41,31,75,4,-55,51,-46,-77,-119,-178,-242,-143
-35,37,75,4,-55,57,-34,-77,-113,-178,-236,-143
-29,49,81,-1,-55,63,-34,-77,-119,-190,-236,-143
-29,55,87,-7,-55,69,-34,-83,-125,-190,-236,-143
-23,55,81,-7,-49,69,-40,-83,-119,-184,-242,-137
-23,55,81,-7,-49,69,-46,-95,-125,-196,-242,-143
-11,61,75,-19,-43,69,-52,-101,-125,-184,-236,-137
-17,79,99,-25,-55,87,-64,-113,-137,-184,-236,-131
-17,109,129,-37,-73,117,-64,-107,-143,-178,-236,-131
-35,115,153,-31,-91,135,-64,-113,-137,-172,-230,-119
-59,127,189,-25,-121,159,-64,-125,-131,-154,-212,-101
-65,139,207,-31,-133,171,-82,-125,-137,-154,-206,-95
-59,157,219,-43,-139,189,-100,-131,-149,-154,-200,-95
-23,169,195,-67,-109,183,-112,-143,-149,-160,-200,-95
-6,169,165,-79,-79,171,-124,-143,-149,-160,-206,-95
0,169,159,-85,-73,165,-136,-137,-143,-166,-200,-95
6,157,141,-79,-61,153,-130,-119,-131,-160,-194,-83
0,145,135,-73,-61,141,-130,-119,-131,-160,-188,-71
0,133,123,-67,-55,129,-148,-125,-131,-166,-194,-83
6,127,111,-67,-43,123,-142,-119,-125,-160,-188,-77
-11,115,129,-43,-67,123,-124,-89,-113,-136,-170,-59
0,115,105,-55,-43,111,-106,-83,-101,-130,-164,-59
12,109,87,-61,-31,99,-106,-83,-101,-142,-176,-59
0,85,75,-43,-31,81,-106,-71,-95,-142,-176,-65
12,79,57,-43,-13,69,-94,-59,-89,-136,-170,-65
12,61,39,-37,-7,51,-82,-59,-77,-142,-176,-71
6,37,21,-19,-2,33,-82,-59,-83,-142,-182,-71
6,13,-3,-7,-2,9,-76,-53,-83,-154,-182,-71
0,1,-3,-1,-2,-3,-58,-41,-77,-148,-188,-83
-6,-5,-3,4,-2,-3,-34,-29,-65,-142,-188,-83
-17,-22,-3,16,-2,-14,-28,-29,-65,-142,-200,-95
-17,-34,-14,22,-2,-26,-22,-35,-77,-166,-206,-101
-17,-40,-20,28,-2,-32,-28,-41,-89,-178,-224,-107
-41,-58,-14,46,-7,-38,-28,-47,-101,-196,-230,-113
-29,-70,-38,46,-2,-56,-28,-59,-119,-220,-254,-149
-35,-88,-50,58,-2,-68,-16,-59,-119,-232,-254,-155
-41,-100,-56,70,-2,-80,-16,-53,-125,-244,-272,-155
-35,-106,-68,70,10,-86,-16,-53,-125,-238,-272,-161
-41,-100,-56,70,-2,-80,-10,-53,-125,-238,-272,-161
-41,-106,-62,70,4,-86,-16,-53,-131,-244,-272,-161
-53,-112,-56,82,-2,-86,-16,-53,-119,-238,-260,-161
-77,-118,-38,94,-13,-80,-10,-53,-119,-232,-260,-143
-59,-112,-50,82,-2,-80,-10,-65,-131,-244,-266,-155
-29,-106,-74,64,16,-92,-22,-65,-131,-244,-266,-161
-6,-100,-92,52,34,-98,-16,-59,-131,-244,-266,-167
-35,-106,-68,70,10,-86,-4,-53,-125,-244,-260,-161
-53,-112,-56,82,-2,-86,-4,-59,-125,-244,-266,-161
-41,-112,-68,76,4,-92,-4,-53,-119,-244,-266,-155
-29,-106,-74,64,16,-92,-4,-47,-125,-244,-272,-161
-53,-112,-56,82,-2,-86,1,-47,-113,-238,-266,-155
-53,-124,-68,88,-2,-98,1,-53,-113,-244,-260,-155
-83,-118,-32,100,-19,-74,1,-47,-113,-232,-254,-149
-47,-106,-56,76,-2,-80,-10,-53,-119,-238,-260,-161
-17,-118,-98,64,34,-110,-4,-59,-125,-244,-260,-155
-59,-112,-50,82,-2,-80,-4,-47,-119,-232,-254,-155
-71,-106,-32,88,-13,-68,1,-47,-107,-226,-248,-155
-29,-106,-74,64,16,-92,-10,-59,-125,-238,-260,-167
-6,-100,-92,52,34,-98,-4,-59,-125,-226,-248,-155
-23,-100,-74,58,16,-86,1,-53,-119,-232,-248,-155
-59,-124,-62,88,-2,-92,7,-41,-107,-214,-242,-143
-41,-124,-80,82,10,-104,1,-47,-119,-214,-242,-143
-23,-118,-92,70,28,-104,1,-53,-119,-226,-248,-149
-23,-118,-92,70,28,-104,1,-47,-119,-226,-248,-143
-41,-112,-68,76,4,-92,13,-47,-107,-220,-236,-137
-11,-106,-92,58,34,-98,1,-53,-119,-220,-236,-149
-29,-118,-86,70,22,-104,1,-47,-101,-202,-230,-137
-41,-106,-62,70,4,-86,1,-23,-65,-148,-188,-107
-11,-88,-74,46,22,-80,1,0,0,-76,-122,-53
0,-52,-62,16,28,-56,1,36,102,25,-50,7
12,1,-8,-7,10,-3,-4,54,162,127,9,54
12,85,63,-49,-19,75,-22,54,186,217,81,120
18,169,141,-91,-55,159,-4,108,258,325,177,186
54,247,189,-151,-61,225,-10,192,402,487,321,306
102,301,195,-205,-37,249,-58,270,564,697,519,480
162,349,183,-253,-2,267,-88,414,786,955,771,684
204,415,207,-307,-2,309,-112,414,828,1171,1023,894
210,481,267,-343,-25,381,-118,300,702,1345,1245,1074
222,499,273,-361,-19,393,-40,276,618,1495,1443,1224
228,511,279,-367,-19,399,31,180,438,1597,1617,1368
240,589,339,-415,-43,471,1,-71,150,1729,1857,1566
282,703,411,-487,-55,555,-190,-365,-107,1939,2144,1800
324,811,483,-565,-73,651,-466,-635,-383,2070,2396,2004
294,883,579,-589,-139,729,-694,-947,-731,2035,2461,2069
216,901,681,-553,-229,789,-844,-1247,-1157,1753,2222,1908
156,727,567,-445,-205,651,-880,-1385,-1445,1393,1797,1560
126,457,321,-289,-91,393,-868,-1301,-1439,1189,1395,1212
48,253,201,-151,-67,231,-790,-1115,-1313,865,897,810
-35,91,129,-19,-79,111,-676,-965,-1247,331,279,348
-83,-46,27,64,-55,-3,-568,-875,-1241,-244,-254,-59
-101,-112,-8,106,-43,-62,-484,-779,-1223,-754,-626,-353
-125,-154,-26,136,-43,-92,-400,-695,-1157,-1036,-782,-497
-143,-184,-38,160,-49,-110,-358,-635,-1019,-1030,-758,-497
-131,-184,-50,154,-37,-116,-352,-587,-851,-850,-668,-449
-107,-142,-32,124,-31,-86,-310,-503,-701,-694,-566,-383
-107,-124,-14,112,-43,-68,-238,-413,-575,-604,-500,-329
-107,-88,9,94,-61,-32,-172,-317,-473,-526,-446,-281
-89,-64,15,76,-55,-20,-148,-269,-413,-490,-422,-263
-65,-58,-3,58,-31,-26,-136,-257,-377,-466,-410,-257
-53,-58,-3,52,-19,-32,-118,-227,-335,-436,-386,-227
-41,-70,-26,52,-2,-50,-82,-179,-281,-412,-362,-227
-59,-106,-44,82,-2,-74,-64,-149,-245,-376,-344,-227
-59,-112,-50,82,-2,-80,-28,-125,-215,-340,-320,-203
-53,-112,-56,82,-2,-86,1,-89,-179,-316,-308,-191
-47,-112,-62,76,-2,-86,1,-77,-167,-304,-296,-185
-29,-124,-92,76,22,-110,1,-77,-161,-292,-290,-185
-47,-118,-68,82,4,-92,19,-53,-143,-280,-278,-161
-41,-124,-80,82,10,-104,25,-41,-125,-268,-278,-167
-41,-130,-86,82,16,-110,25,-35,-119,-262,-272,-167
-41,-124,-80,82,10,-104,25,-29,-107,-262,-266,-155
-35,-118,-80,76,16,-98,25,-29,-107,-268,-272,-167
-41,-124,-80,82,10,-104,31,-29,-95,-256,-266,-167
-23,-118,-92,70,28,-104,37,-35,-107,-250,-248,-161
-29,-124,-92,76,22,-110,43,-29,-101,-250,-254,-161
-35,-124,-86,76,16,-104,49,-23,-95,-238,-248,-149
-29,-124,-92,76,22,-110,49,-29,-107,-238,-248,-155
-41,-112,-68,76,4,-92,49,-17,-101,-238,-242,-143
-53,-118,-62,82,-2,-92,55,-11,-83,-232,-236,-143
-35,-106,-68,70,10,-86,55,-5,-77,-226,-236,-137
-23,-106,-80,64,22,-92,43,-17,-83,-244,-248,-149
-23,-106,-80,64,22,-92,43,-5,-77,-244,-248,-149
-17,-118,-98,64,34,-110,49,-5,-65,-238,-248,-155
-23,-106,-80,64,22,-92,49,-5,-65,-238,-236,-155
-41,-106,-62,70,4,-86,61,0,-59,-232,-242,-143
-41,-112,-68,76,4,-92,67,0,-59,-220,-236,-131
-23,-112,-86,64,22,-98,61,-5,-65,-226,-230,-137
-6,-100,-98,46,40,-98,61,-11,-71,-232,-236,-143
-29,-106,-74,64,16,-92,67,0,-53,-220,-230,-125
-41,-94,-50,64,-2,-74,67,0,-47,-214,-224,-131
-29,-88,-56,58,4,-74,67,0,-47,-220,-224,-131
-35,-94,-56,64,4,-74,67,6,-35,-220,-212,-125
-35,-100,-62,64,4,-80,67,0,-35,-214,-212,-131
-41,-94,-50,64,-2,-74,67,12,-29,-208,-200,-119
-29,-100,-68,64,10,-86,73,12,-23,-202,-200,-119
-17,-88,-68,52,16,-80,73,12,-23,-190,-194,-113
-17,-88,-68,52,16,-80,73,12,-29,-190,-182,-107
-23,-94,-68,58,16,-80,73,12,-35,-196,-176,-95
-23,-100,-74,58,16,-86,85,30,-11,-190,-164,-89
-23,-88,-62,52,10,-74,73,24,-5,-190,-164,-101
-11,-88,-74,46,22,-80,67,18,-5,-196,-164,-101
-17,-82,-62,46,16,-74,73,30,0,-190,-158,-95
-11,-88,-74,46,22,-80,61,30,0,-184,-158,-101
-17,-94,-74,52,22,-86,73,42,12,-166,-134,-83
-35,-88,-50,58,-2,-68,85,54,24,-148,-122,-71
-41,-76,-32,58,-2,-56,85,54,24,-148,-122,-65
-53,-76,-20,64,-13,-50,91,54,42,-130,-98,-53
-35,-70,-32,52,-2,-50,91,54,36,-124,-86,-41
-6,-70,-74,28,34,-68,73,48,30,-136,-104,-65
-6,-70,-74,28,34,-68,67,54,42,-124,-98,-59
-6,-70,-74,28,34,-68,67,54,48,-124,-92,-53
-11,-52,-38,28,4,-44,73,66,60,-112,-80,-47
-23,-64,-38,40,-2,-50,73,78,84,-88,-68,-35
-6,-76,-68,40,22,-74,67,66,78,-88,-56,-41
-6,-70,-68,34,28,-68,67,60,84,-70,-50,-29
0,-46,-56,16,28,-50,73,72,90,-58,-38,-17
0,-58,-68,22,34,-62,73,78,102,-34,-14,1
-23,-52,-26,34,-2,-38,85,96,120,-10,3,12
-11,-40,-26,22,-2,-32,79,102,132,-5,3,12
12,-40,-62,4,34,-50,73,96,126,-5,3,7
18,-46,-74,4,46,-56,67,96,132,1,9,12
6,-40,-56,10,28,-44,61,108,150,1,15,18
12,-34,-56,4,34,-44,49,102,156,19,27,18
18,-28,-56,4,34,-38,55,102,156,43,45,30
24,-28,-62,4,40,-44,61,114,174,67,51,36
12,-22,-44,4,28,-32,61,120,186,91,75,54
18,-22,-50,4,34,-32,61,120,198,109,93,66
24,-10,-44,-1,34,-26,61,132,204,127,111,84
30,-10,-50,-1,40,-26,55,138,222,145,123,90
30,-5,-44,-7,34,-20,43,144,222,157,129,90
42,-5,-50,-13,46,-20,37,144,234,169,135,102
30,1,-26,-13,28,-3,43,162,252,193,159,120
36,-5,-44,-13,40,-20,43,168,270,223,183,138
36,-5,-50,-7,40,-26,49,180,282,241,207,156
42,1,-38,-19,40,-8,49,198,300,277,225,168
48,1,-44,-25,46,-14,43,192,306,295,237,174
60,7,-50,-31,58,-14,31,186,312,313,243,186
60,25,-32,-43,46,-3,31,192,330,337,273,216
66,31,-32,-49,52,-3,25,204,348,355,291,228
78,25,-50,-49,64,-3,19,204,354,373,291,228
72,25,-44,-49,58,-3,19,216,372,397,303,246
66,37,-26,-49,46,3,19,228,384,403,327,246
72,31,-38,-49,58,-3,13,228,402,427,339,258
72,49,-20,-61,46,9,13,228,408,439,357,270
78,55,-20,-67,52,15,19,240,420,463,369,282
90,55,-32,-73,64,9,13,240,426,469,381,294
78,49,-26,-61,52,9,13,240,438,487,399,294
84,61,-20,-73,52,15,13,240,438,487,411,306
102,67,-32,-85,70,15,7,240,444,487,405,318
96,67,-26,-79,64,15,1,246,444,499,405,312
96,61,-32,-79,64,9,1,240,450,499,405,318
96,67,-26,-79,64,15,1,246,456,499,417,318
96,73,-20,-85,58,21,1,246,462,505,417,318
102,79,-20,-91,64,27,1,240,450,505,417,318
102,79,-20,-91,64,27,1,240,438,499,411,312
72,85,3,-79,28,45,1,240,438,493,417,318
72,79,-3,-73,34,39,7,240,438,511,429,318
90,73,-14,-79,52,27,1,240,420,493,417,318
66,61,-3,-61,34,27,13,240,438,493,417,318
66,67,-3,-67,34,33,7,234,426,487,405,312
126,79,-44,-103,88,15,1,222,408,463,387,288
102,85,-14,-91,58,33,7,234,420,457,387,294
48,67,9,-55,16,39,13,240,420,463,393,306
36,61,15,-49,4,39,19,234,408,457,387,306
54,67,3,-61,22,39,19,228,396,433,369,294
54,73,9,-61,16,45,25,228,396,433,369,276
72,67,-3,-67,40,27,13,204,372,415,345,264
96,67,-26,-79,64,15,7,186,348,391,339,252
96,61,-32,-79,64,9,1,186,342,367,327,246
78,61,-14,-67,46,21,7,186,336,355,309,234
66,67,-3,-67,34,33,19,192,336,355,303,234
90,79,-8,-85,52,33,31,192,330,337,303,240
78,67,-8,-73,46,27,19,180,312,319,285,228
54,55,-3,-55,28,27,19,168,294,301,273,210
60,55,-3,-55,34,21,25,168,288,283,261,198
48,55,-3,-49,22,27,25,162,276,271,249,180
42,55,3,-49,16,33,31,156,264,265,243,186
42,55,3,-49,16,33,43,156,252,253,237,180
42,49,-3,-43,16,27,31,150,246,229,219,162
42,49,-3,-43,16,27,37,138,234,211,201,150
36,43,-3,-37,16,21,37,138,228,205,189,138
36,37,-3,-37,16,15,37,138,216,181,171,126
36,37,-3,-37,16,15,37,126,198,163,153,120
36,37,-3,-37,16,15,43,114,192,157,153,108
24,37,3,-31,4,21,49,108,186,145,147,102
18,31,3,-25,4,21,49,102,156,127,135,84
18,31,3,-25,4,21,49,90,144,115,117,84
24,37,3,-31,4,21,55,90,132,103,111,78
12,31,9,-19,-2,21,49,84,126,85,93,54
-6,37,33,-13,-13,39,55,78,114,67,81,42
-6,43,39,-19,-13,45,61,78,102,61,75,36
-6,25,21,-7,-7,27,55,78,96,43,51,36
-6,13,21,4,-13,15,55,66,78,19,39,18
-6,13,21,4,-13,15,67,54,66,13,21,12
-6,13,9,-1,-2,15,67,48,54,-5,15,12
-6,19,27,-1,-13,21,73,48,42,-5,3,-11
-23,13,39,4,-31,27,73,36,30,-10,3,-5
-29,13,45,4,-37,27,79,42,24,-22,3,-5
-17,7,27,4,-19,15,73,36,12,-40,-20,-35
-17,7,27,4,-19,15,73,24,0,-52,-20,-41
-29,7,39,4,-31,21,79,30,6,-52,-32,-41
-29,1,33,4,-31,15,79,42,12,-70,-44,-41
-29,-5,27,10,-25,9,79,36,0,-76,-50,-53
-35,-5,33,10,-31,15,85,36,0,-82,-56,-59
-35,1,39,10,-37,21,91,30,0,-94,-62,-65
-23,7,33,4,-25,21,91,30,-5,-100,-68,-65
-23,-5,21,4,-19,9,103,36,-5,-94,-68,-65
-29,-5,27,10,-25,9,109,42,0,-94,-68,-65
-29,1,33,4,-31,15,103,42,-5,-112,-80,-83
-35,1,39,10,-37,21,97,48,0,-124,-80,-83
-23,-5,21,4,-19,9,97,42,0,-118,-86,-89
-47,-5,45,16,-43,21,103,54,0,-130,-92,-83
-59,-5,51,28,-55,21,109,54,0,-130,-92,-83
-53,-5,45,22,-49,15,115,48,0,-124,-86,-89
-53,-5,51,22,-49,21,109,42,0,-130,-98,-95
-53,-5,51,22,-49,21,109,48,0,-130,-98,-95
-53,-5,45,22,-49,15,115,48,0,-112,-86,-77
-41,-5,33,16,-37,9,103,42,6,-118,-92,-89
-35,-5,33,10,-31,15,103,36,0,-136,-104,-101
-29,-5,27,10,-25,9,103,48,0,-136,-98,-89
-35,1,39,10,-37,21,103,48,6,-124,-98,-95
-29,-5,27,10,-25,9,103,54,12,-124,-98,-83
-23,-5,21,4,-19,9,97,48,12,-130,-110,-89
-29,-5,21,10,-25,3,97,54,18,-124,-98,-83
-35,-5,27,16,-31,9,103,66,24,-112,-92,-71
-29,1,33,4,-31,15,103,54,24,-112,-92,-71
-29,-5,21,10,-25,3,97,54,24,-106,-92,-77
-35,-5,33,10,-31,15,91,48,12,-106,-86,-77
-29,1,33,4,-31,15,109,54,24,-106,-86,-77
-23,7,33,4,-25,21,97,54,18,-100,-80,-77
-29,1,33,4,-31,15,91,54,24,-100,-74,-71
-41,-5,33,16,-37,9,97,66,36,-94,-68,-59
-41,-5,33,16,-37,9,97,54,30,-94,-74,-65
-23,-5,21,4,-19,9,97,48,24,-94,-74,-59
-17,-5,9,4,-13,-3,91,42,24,-88,-74,-59
-17,-5,9,4,-13,-3,91,48,24,-88,-68,-59
-17,-5,9,4,-13,-3,91,48,18,-82,-68,-53
-17,-5,15,4,-13,3,79,42,12,-88,-74,-53
-17,-5,15,4,-13,3,85,48,12,-94,-74,-53
-23,-5,21,4,-19,9,85,36,18,-88,-68,-59
-17,-5,15,4,-13,3,79,30,12,-94,-80,-65
-17,-5,9,4,-13,-3,85,36,18,-94,-68,-59
-17,-5,3,10,-13,-3,85,42,12,-100,-80,-59
-17,-10,-3,10,-7,-3,91,30,12,-100,-74,-59
-17,-10,-3,10,-7,-3,79,30,12,-100,-80,-65
-17,-10,-3,10,-7,-3,79,30,6,-100,-80,-59
-23,-10,3,16,-13,-3,91,30,6,-88,-74,-59
-29,-5,21,10,-25,3,79,24,6,-94,-74,-53
-41,-5,33,16,-37,9,79,30,12,-100,-74,-59
-35,-5,27,16,-31,9,85,24,12,-106,-74,-53
-17,-5,9,4,-13,-3,79,18,6,-112,-86,-65
-17,-10,-3,10,-7,-3,85,18,0,-118,-86,-71
-17,-16,-3,16,-7,-8,91,30,0,-118,-86,-65
-11,-16,-3,10,-2,-8,79,18,0,-118,-92,-71
-29,-16,3,22,-19,-3,85,12,0,-124,-92,-65
-41,-10,21,22,-31,-3,85,24,0,-118,-86,-65
-47,-16,21,28,-37,-3,85,18,0,-112,-86,-65
-35,-16,9,22,-25,-3,79,18,0,-130,-86,-65
-29,-16,3,22,-19,-3,73,12,-11,-136,-104,-77
-41,-22,9,28,-25,-3,85,18,-11,-130,-92,-59
-35,-22,3,28,-19,-3,79,18,-5,-130,-98,-65
-23,-22,-3,22,-7,-8,73,6,-11,-148,-104,-77
-17,-28,-8,22,-2,-20,73,6,-11,-148,-110,-83
-35,-28,-3,28,-19,-8,79,12,-11,-136,-98,-71
-41,-22,9,28,-25,-3,85,12,-17,-148,-104,-83
-23,-22,-3,22,-7,-8,79,0,-23,-154,-110,-95
-11,-28,-14,16,-2,-20,67,0,-29,-148,-110,-95
-23,-34,-8,28,-2,-20,73,6,-23,-148,-104,-83
-29,-28,-3,28,-13,-14,79,6,-23,-148,-110,-83
-29,-28,-3,28,-13,-14,79,6,-23,-154,-110,-83
-29,-34,-3,28,-7,-20,85,6,-23,-154,-116,-95
-35,-40,-3,34,-13,-20,79,6,-17,-166,-116,-95
-17,-34,-14,22,-2,-26,73,0,-29,-166,-122,-101
-23,-34,-8,28,-2,-20,73,0,-29,-154,-116,-89
-35,-40,-3,34,-13,-20,85,6,-23,-148,-116,-83
-47,-34,3,40,-25,-8,85,6,-29,-154,-110,-83
-47,-28,9,34,-31,-3,79,0,-35,-154,-110,-83
-47,-28,9,34,-31,-3,91,0,-23,-160,-104,-89
-29,-22,-3,22,-13,-8,85,0,-29,-160,-116,-83
-29,-16,3,22,-19,-3,73,0,-29,-166,-122,-83
-59,-16,33,34,-49,3,91,18,-17,-142,-104,-71
-59,-5,45,28,-55,15,91,12,-17,-148,-98,-71
-47,-16,21,28,-37,-3,79,0,-35,-160,-110,-83
-17,-10,-3,10,-7,-3,73,0,-41,-160,-110,-95
-17,-5,9,4,-13,-3,91,0,-17,-142,-98,-77
-35,7,45,4,-37,27,103,0,-23,-142,-92,-65
-29,19,51,4,-37,33,91,0,-41,-142,-104,-77
-29,25,57,4,-43,39,97,0,-35,-142,-92,-71
-53,31,87,4,-67,57,109,0,-23,-136,-98,-71
-71,31,105,10,-85,69,121,0,-23,-130,-92,-65
-59,31,93,4,-73,63,121,0,-23,-130,-92,-65
-47,49,99,4,-73,75,103,0,-23,-142,-92,-71
-29,43,75,-1,-49,57,103,0,-29,-136,-92,-71
-35,49,87,-1,-61,69,103,-11,-29,-136,-86,-65
-41,61,105,-1,-73,81,97,-23,-35,-136,-86,-65
-29,73,105,-13,-67,87,79,-35,-47,-148,-92,-59
-29,97,129,-25,-79,111,79,-35,-41,-130,-80,-53
-47,121,171,-31,-109,147,85,-29,-29,-124,-68,-41
-59,133,195,-31,-127,165,67,-41,-41,-124,-62,-47
-47,145,195,-43,-121,171,37,-77,-59,-124,-74,-53
-35,157,195,-55,-115,177,25,-77,-59,-124,-74,-47
-23,163,189,-61,-103,177,25,-77,-59,-130,-68,-41
-17,157,177,-61,-97,165,19,-71,-59,-112,-62,-35
-6,151,159,-67,-79,153,7,-71,-47,-106,-50,-29
-6,151,159,-67,-79,153,13,-53,-35,-94,-44,-23
-6,145,153,-61,-79,147,13,-35,-35,-94,-38,-11
-6,151,153,-67,-73,153,1,-47,-47,-106,-50,-17
-6,133,129,-61,-61,135,-10,-53,-47,-112,-56,-17
6,97,81,-49,-31,93,-4,-47,-47,-118,-56,-23
6,91,75,-49,-25,87,7,-17,-29,-100,-44,-17
0,91,81,-43,-31,87,13,-23,-23,-106,-56,-17
-6,73,69,-31,-31,75,25,-5,-5,-100,-44,-11
-6,55,63,-19,-31,57,49,0,0,-76,-32,-5
-17,49,69,-7,-43,57,49,0,0,-82,-38,-11
-11,25,39,-1,-25,33,43,0,0,-100,-44,-17
12,1,-8,-7,10,-3,31,-5,-17,-118,-74,-47
-6,-5,-8,4,-2,-3,49,0,-11,-106,-74,-35
-29,-10,9,16,-19,-3,67,18,0,-106,-56,-23
-35,-16,9,22,-25,-3,91,30,6,-112,-68,-35
-29,-34,-3,28,-7,-20,91,24,-5,-130,-92,-53
-29,-52,-20,40,-2,-38,91,12,-11,-142,-104,-71
-41,-64,-20,52,-7,-44,97,12,-5,-154,-110,-77
-35,-82,-44,58,-2,-62,85,0,-23,-178,-128,-95
-59,-94,-32,76,-7,-62,97,0,-35,-190,-140,-101
-71,-112,-38,88,-13,-74,109,0,-41,-202,-152,-107
-65,-118,-50,88,-2,-86,109,0,-53,-208,-164,-125
-53,-118,-62,82,-2,-92,97,0,-65,-208,-164,-131
-65,-118,-50,88,-2,-86,103,0,-59,-202,-158,-113
-53,-112,-56,82,-2,-86,85,0,-53,-214,-176,-131
-23,-118,-92,70,28,-104,85,-11,-59,-226,-182,-137
-23,-124,-98,70,28,-110,85,-5,-59,-226,-176,-137
-47,-124,-74,82,4,-98,91,0,-53,-226,-170,-131
-47,-124,-74,82,4,-98,85,-5,-59,-226,-182,-143
-35,-124,-86,76,16,-104,97,0,-53,-214,-170,-137
-59,-124,-62,88,-2,-92,103,0,-47,-202,-164,-125
-41,-118,-74,76,10,-98,103,0,-53,-214,-176,-131
-35,-118,-80,76,16,-98,97,-5,-65,-214,-188,-137
-47,-118,-68,82,4,-92,103,-5,-53,-214,-170,-125
-53,-118,-62,82,-2,-92,91,0,-59,-214,-182,-137
-47,-118,-68,82,4,-92,97,0,-59,-214,-182,-137
-41,-118,-74,76,10,-98,109,0,-47,-202,-176,-131
-47,-124,-74,82,4,-98,97,0,-47,-214,-176,-137
-53,-136,-80,94,4,-110,103,0,-47,-202,-170,-137
-53,-124,-68,88,-2,-98,97,0,-41,-196,-164,-125
-47,-124,-74,82,4,-98,97,0,-53,-202,-170,-137
-53,-124,-68,88,-2,-98,103,0,-53,-196,-158,-125
-53,-118,-62,82,-2,-92,97,-5,-65,-202,-164,-131
-47,-130,-80,88,10,-104,103,0,-53,-190,-152,-125
-41,-124,-80,82,10,-104,97,-5,-59,-202,-164,-131
-59,-118,-56,88,-2,-86,91,-5,-59,-196,-164,-131
-71,-124,-50,94,-7,-86,103,0,-53,-190,-158,-131
-59,-130,-68,94,-2,-98,103,0,-53,-202,-164,-137
-47,-130,-80,88,10,-104,103,-5,-53,-196,-164,-131
-41,-136,-92,88,16,-116,91,-5,-41,-184,-158,-125
-29,-136,-104,82,28,-122,97,0,-29,-166,-140,-119
-41,-118,-74,76,10,-98,91,24,18,-94,-86,-71
-11,-82,-68,46,22,-74,79,66,114,-5,-20,-5
18,-34,-62,4,40,-44,67,84,192,91,39,42
6,37,21,-19,-2,33,55,84,228,163,105,96
6,121,105,-61,-43,117,55,114,270,259,183,162
24,193,159,-109,-61,177,85,234,420,415,321,270
66,253,183,-163,-49,225,49,294,552,601,495,408
138,301,159,-223,-2,237,1,384,732,829,729,600
186,343,153,-259,10,249,-4,492,900,1081,1005,834
198,397,195,-295,-2,297,-16,396,804,1285,1263,1062
222,451,225,-331,-2,339,1,294,660,1441,1473,1224
234,463,225,-343,-2,345,67,264,546,1555,1677,1380
234,493,249,-367,-2,375,109,72,294,1651,1911,1566
270,571,291,-421,-2,435,1,-197,18,1813,2216,1824
312,673,351,-487,-13,513,-232,-461,-227,1993,2527,2081
324,751,423,-535,-43,591,-490,-749,-533,2052,2731,2261
276,793,507,-535,-109,657,-706,-1091,-941,1891,2665,2207
192,727,525,-457,-163,627,-766,-1325,-1307,1549,2282,1920
132,469,327,-295,-91,399,-742,-1325,-1427,1303,1827,1536
78,235,153,-157,-31,201,-730,-1193,-1331,1099,1347,1128
-6,55,63,-19,-31,57,-646,-1031,-1253,655,705,624
-95,-64,21,76,-61,-14,-544,-935,-1235,97,45,120
-119,-136,-14,124,-49,-74,-472,-863,-1241,-466,-452,-269
-155,-184,-26,166,-61,-104,-382,-779,-1205,-892,-716,-485
-143,-232,-86,184,-25,-158,-316,-701,-1103,-1048,-764,-545
-131,-226,-92,178,-13,-158,-298,-629,-923,-928,-662,-479
-131,-190,-56,160,-31,-122,-268,-533,-731,-730,-548,-413
-113,-166,-50,136,-25,-110,-214,-443,-593,-598,-482,-365
-125,-142,-14,130,-49,-80,-130,-329,-473,-520,-404,-299
-107,-100,-3,100,-55,-44,-94,-269,-389,-484,-374,-275
-77,-88,-8,82,-31,-50,-70,-239,-335,-442,-356,-251
-77,-82,-3,76,-31,-44,-46,-197,-293,-412,-332,-239
-77,-88,-8,82,-31,-50,-28,-167,-245,-388,-308,-227
-65,-100,-32,82,-13,-68,-10,-131,-215,-370,-302,-227
-71,-118,-44,94,-7,-80,13,-89,-161,-334,-284,-215
-71,-124,-50,94,-7,-86,31,-65,-131,-310,-266,-191
-83,-130,-44,106,-13,-86,55,-41,-107,-292,-248,-179
-89,-136,-44,112,-19,-92,67,-29,-95,-274,-236,-185
-53,-142,-86,94,10,-116,73,-29,-95,-256,-224,-173
-41,-142,-98,88,22,-122,73,-17,-89,-262,-236,-185
-35,-148,-110,88,28,-128,67,-11,-77,-262,-236,-185
-53,-148,-92,100,10,-122,79,-5,-59,-250,-224,-167
-47,-142,-92,94,16,-116,85,0,-59,-262,-224,-167
-41,-142,-98,88,22,-122,85,0,-53,-262,-230,-179
-59,-154,-92,106,10,-122,85,0,-41,-256,-218,-167
-77,-142,-62,106,-2,-104,91,6,-35,-244,-206,-161
-71,-148,-74,106,-2,-110,91,6,-29,-238,-206,-167
-35,-148,-110,88,28,-128,85,0,-35,-244,-224,-173
-41,-142,-98,88,22,-122,85,0,-35,-232,-212,-161
-41,-136,-92,88,16,-116,85,0,-29,-226,-206,-161
-59,-142,-80,100,4,-110,85,6,-23,-226,-206,-155
-65,-136,-68,100,-2,-104,91,0,-11,-232,-206,-149
-53,-142,-86,94,10,-116,91,6,-11,-238,-206,-155
-29,-142,-110,82,34,-128,85,0,-23,-244,-236,-179
-29,-142,-110,82,34,-128,91,0,-11,-244,-224,-173
-35,-124,-86,76,16,-104,97,0,-5,-238,-206,-161
-47,-130,-80,88,10,-104,97,18,0,-214,-194,-155
-47,-136,-86,88,10,-110,103,12,0,-214,-194,-149
-41,-136,-92,88,16,-116,103,12,0,-208,-188,-143
-35,-136,-98,82,22,-116,91,0,-11,-220,-200,-155
-41,-130,-86,82,16,-110,85,12,0,-220,-194,-155
-35,-124,-86,76,16,-104,91,12,0,-220,-188,-143
-41,-130,-86,82,16,-110,79,18,0,-226,-194,-143
-41,-118,-74,76,10,-98,91,30,6,-214,-188,-149
-35,-124,-86,76,16,-104,91,30,6,-214,-182,-143
-41,-124,-80,82,10,-104,97,30,12,-208,-176,-137
-41,-124,-80,82,10,-104,91,30,6,-202,-170,-131
-35,-124,-86,76,16,-104,91,24,6,-190,-164,-131
-41,-124,-80,82,10,-104,91,30,6,-190,-146,-113
-29,-112,-80,70,16,-98,85,30,6,-184,-146,-125
-29,-118,-86,70,22,-104,79,36,18,-184,-152,-131
-29,-118,-86,70,22,-104,85,42,30,-178,-140,-113
-23,-118,-92,70,28,-104,85,54,30,-178,-122,-113
-23,-112,-86,64,22,-98,79,48,36,-178,-146,-125
-23,-112,-86,64,22,-98,79,48,48,-172,-134,-119
-35,-106,-68,70,10,-86,85,54,54,-160,-116,-101
-47,-118,-68,82,4,-92,85,60,66,-142,-104,-89
-35,-118,-80,76,16,-98,91,54,66,-124,-104,-89
-11,-112,-98,58,34,-104,91,48,66,-124,-86,-77
-6,-100,-92,52,34,-98,73,48,72,-118,-86,-83
-6,-106,-98,52,40,-104,67,60,78,-118,-80,-77
-23,-100,-74,58,16,-86,79,66,90,-106,-74,-71
-29,-94,-62,58,10,-80,85,78,102,-106,-56,-59
-41,-88,-44,64,-2,-68,91,90,120,-82,-44,-53
-35,-94,-56,64,4,-74,91,96,126,-64,-38,-47
-29,-94,-62,58,10,-80,85,84,126,-70,-32,-47
-6,-100,-92,52,34,-98,73,78,132,-58,-32,-47
-6,-94,-92,46,40,-92,73,78,132,-40,-26,-47
0,-88,-98,34,46,-92,79,84,138,-28,-2,-23
0,-88,-98,34,46,-92,73,90,144,-10,3,-23
-6,-88,-92,40,40,-86,61,96,156,-5,3,-23
0,-82,-92,34,46,-86,67,102,168,1,15,-11
0,-82,-92,34,46,-86,61,114,180,7,27,7
0,-82,-92,34,46,-86,67,126,204,37,39,7
12,-64,-86,16,46,-74,61,120,210,49,51,12
0,-70,-80,28,40,-74,61,120,210,55,63,12
-6,-82,-86,34,40,-80,55,132,222,79,75,30
-6,-70,-74,28,34,-68,61,138,234,97,87,42
-6,-58,-56,28,22,-56,67,138,240,121,111,60
18,-52,-80,10,46,-62,55,138,240,133,123,66
18,-52,-80,10,46,-62,55,150,252,151,135,78
-6,-40,-44,16,16,-38,61,168,282,181,165,102
30,-40,-80,4,52,-56,43,156,276,169,165,90
54,-40,-104,-1,76,-68,31,156,282,187,159,96
42,-34,-86,4,64,-56,37,168,306,211,183,120
18,-28,-56,4,34,-38,43,180,324,235,213,144
36,-28,-74,4,52,-50,31,186,336,259,231,150
54,-22,-86,-7,70,-50,31,192,348,283,243,162
24,-16,-50,4,34,-32,37,210,366,325,279,198
36,-10,-56,-7,46,-32,25,204,378,337,279,204
84,-5,-98,-31,88,-50,1,198,372,337,279,198
66,-5,-80,-25,70,-38,7,210,396,361,297,216
42,-5,-44,-19,46,-14,13,228,414,373,327,234
48,1,-44,-25,46,-14,7,234,426,391,327,240
54,1,-50,-25,52,-14,7,240,438,415,345,252
84,7,-74,-43,82,-26,1,234,444,415,357,252
72,1,-68,-37,70,-26,1,240,456,439,369,270
72,1,-68,-37,70,-26,7,240,456,457,375,264
84,7,-74,-43,82,-26,1,234,450,457,393,282
96,19,-74,-55,88,-20,1,234,450,457,393,282
84,13,-68,-49,76,-20,1,240,468,481,405,288
90,19,-68,-55,82,-14,1,240,468,481,399,288
90,19,-68,-55,82,-14,1,240,468,475,405,300
84,19,-62,-49,76,-14,1,240,474,481,405,288
78,19,-56,-49,70,-8,1,246,474,481,405,294
60,19,-38,-37,52,-3,1,246,474,487,411,300
42,25,-14,-31,28,3,1,240,480,493,411,306
66,25,-38,-43,52,-3,1,240,462,487,399,294
120,25,-92,-73,106,-26,-10,222,438,469,387,288
138,43,-92,-91,118,-14,-10,216,426,451,381,276
90,37,-50,-61,70,-3,1,228,438,463,387,282
90,31,-56,-61,76,-3,1,210,420,439,369,264
90,43,-44,-67,70,-3,1,210,420,427,363,264
78,37,-38,-55,58,-3,1,222,426,421,351,258
78,25,-50,-49,64,-3,1,222,426,415,351,258
84,25,-56,-55,70,-8,1,210,414,397,339,252
84,25,-56,-55,70,-8,1,204,402,385,333,246
78,31,-44,-55,64,-3,7,204,396,391,327,246
66,25,-38,-43,52,-3,7,198,372,379,327,246
72,31,-38,-49,58,-3,1,186,366,355,303,222
72,25,-44,-49,58,-3,1,198,366,349,303,222
66,25,-38,-43,52,-3,1,186,354,325,291,216
54,25,-26,-37,40,-3,7,180,348,313,285,210
66,25,-38,-43,52,-3,1,168,336,289,255,186
60,13,-44,-37,52,-8,13,180,330,283,255,186
60,19,-38,-37,52,-3,19,168,318,265,243,174
54,25,-26,-37,40,-3,19,162,306,241,237,168
48,31,-14,-37,34,3,25,150,288,235,213,162
42,19,-20,-31,34,-3,25,144,276,235,219,162
36,13,-20,-25,28,-3,19,138,258,217,201,138
30,13,-14,-19,22,-3,13,138,252,193,189,126
24,19,-3,-19,16,3,19,138,240,187,189,132
6,25,9,-13,-2,21,25,132,240,169,177,126
6,19,3,-13,-2,15,31,132,240,157,165,102
18,7,-8,-13,16,-3,31,126,228,145,147,96
30,19,-8,-25,22,3,19,96,198,121,129,84
18,25,-3,-19,4,15,31,102,192,115,129,72
18,13,-3,-13,10,3,37,96,180,109,117,60
0,7,-3,-1,-2,3,43,90,168,103,117,60
-6,13,15,-1,-7,15,43,78,150,85,99,48
6,7,-3,-7,4,3,31,66,132,61,75,30
18,7,-8,-13,16,-3,37,60,120,49,57,18
18,7,-8,-13,16,-3,31,48,108,25,45,12
12,-5,-14,-1,16,-3,31,48,102,7,21,-5
0,1,-3,-1,-2,-3,37,42,84,-5,9,-17
-6,13,15,-1,-7,15,43,36,72,-5,9,-17
-6,7,15,4,-7,9,49,36,60,-10,3,-29
-17,1,21,4,-19,9,61,30,60,-10,3,-35
-17,1,21,4,-19,9,67,18,36,-16,-2,-41
-23,1,27,4,-25,15,61,18,30,-40,-14,-53
-17,1,21,4,-19,9,61,18,24,-52,-32,-65
-17,1,21,4,-19,9,67,18,12,-70,-44,-71
-29,-5,27,10,-25,9,67,24,12,-82,-50,-71
-29,1,33,4,-31,15,67,18,12,-94,-68,-89
-29,-5,27,10,-25,9,73,18,6,-106,-86,-95
-35,-5,27,16,-31,9,79,12,0,-112,-86,-95
-35,-5,21,16,-31,3,79,24,0,-112,-86,-95
-47,-5,33,22,-43,9,91,18,6,-112,-86,-95
-47,-5,39,22,-43,15,91,18,0,-118,-86,-107
-53,-5,51,22,-49,21,91,18,0,-130,-92,-95
-59,-5,45,28,-55,15,85,24,0,-130,-104,-107
-113,-5,105,52,-109,45,109,48,24,-118,-86,-95
-101,-5,99,46,-97,45,109,54,24,-124,-86,-89
-35,-5,27,16,-31,9,85,24,6,-148,-122,-125
-6,-16,-8,10,-2,-14,73,18,0,-160,-134,-131
-11,-5,-3,4,-7,-3,85,30,6,-148,-128,-119
-29,-5,21,10,-25,3,85,30,6,-148,-122,-119
-6,-5,-3,4,-2,-3,85,24,6,-148,-134,-131
-17,-5,9,4,-13,-3,91,30,6,-130,-110,-113
-29,-5,15,16,-25,-3,91,36,18,-130,-110,-107
-29,-16,3,22,-19,-3,79,30,18,-136,-128,-119
-29,-10,9,16,-19,-3,91,30,24,-136,-122,-113
-23,-5,15,10,-19,3,85,36,24,-130,-116,-101
-29,-5,21,10,-25,3,73,36,30,-136,-128,-107
-29,-5,15,16,-25,-3,91,48,42,-124,-110,-101
-29,-10,9,16,-19,-3,85,42,30,-124,-110,-95
-29,-16,3,22,-19,-3,79,36,30,-118,-110,-101
-29,-10,9,16,-19,-3,91,42,42,-112,-110,-95
-29,-5,21,10,-25,3,85,36,36,-106,-98,-83
-23,-5,15,10,-19,3,79,30,30,-106,-98,-77
-17,-5,9,4,-13,-3,91,36,36,-94,-92,-77
-23,-5,21,4,-19,9,91,36,36,-100,-92,-77
-23,-5,21,4,-19,9,79,36,30,-106,-92,-83
-23,-5,21,4,-19,9,79,42,42,-100,-98,-71
-23,-5,15,10,-19,3,79,36,42,-94,-98,-77
-17,-5,9,4,-13,-3,79,30,30,-94,-92,-77
-29,-5,21,10,-25,3,73,36,24,-100,-92,-77
-35,-5,21,16,-31,3,79,36,36,-88,-80,-71
-29,-5,21,10,-25,3,73,24,18,-82,-80,-65
-23,-5,21,4,-19,9,67,24,24,-88,-80,-59
-17,-5,9,4,-13,-3,67,30,24,-88,-80,-65
-23,-5,15,10,-19,3,73,24,24,-100,-86,-65
-29,-5,27,10,-25,9,67,24,24,-100,-86,-65
-29,-10,9,16,-19,-3,73,30,30,-100,-92,-65
-23,-10,3,16,-13,-3,73,30,24,-94,-86,-65
-35,-5,21,16,-31,3,73,24,24,-100,-86,-65
-29,-16,3,22,-19,-3,73,24,18,-94,-86,-65
-23,-10,3,16,-13,-3,73,24,12,-94,-92,-71
-17,-5,3,10,-13,-3,67,12,0,-100,-92,-71
0,-10,-20,4,10,-14,49,0,-5,-118,-104,-83
-23,-10,3,16,-13,-3,67,12,6,-106,-86,-71
-65,-5,51,34,-61,15,91,24,18,-94,-74,-59
-23,-5,9,10,-19,-3,61,6,0,-112,-92,-83
-6,-16,-8,10,-2,-14,55,6,0,-124,-98,-77
-23,-28,-3,22,-7,-14,67,12,0,-118,-98,-77
-17,-22,-3,16,-2,-14,61,6,0,-124,-98,-83
-29,-22,-3,22,-13,-8,79,12,0,-106,-86,-77
-29,-22,-3,22,-13,-8,73,12,0,-118,-92,-71
-29,-22,-3,22,-13,-8,79,12,-5,-112,-86,-65
-35,-22,3,28,-19,-3,67,6,-11,-112,-92,-71
-35,-34,-3,34,-13,-14,61,6,-5,-124,-98,-77
-23,-28,-3,22,-7,-14,61,0,-17,-136,-104,-83
-17,-22,-3,16,-2,-14,55,0,-17,-142,-110,-89
-23,-28,-3,22,-7,-14,67,6,-11,-136,-110,-89
-23,-34,-8,28,-2,-20,61,6,-11,-136,-110,-89
-29,-28,-3,28,-13,-14,67,6,-5,-148,-104,-83
-17,-34,-14,22,-2,-26,67,6,-11,-142,-104,-89
-29,-40,-8,34,-7,-26,67,6,-11,-142,-104,-89
-29,-34,-3,28,-7,-20,61,0,-23,-142,-104,-89
-23,-28,-3,22,-7,-14,67,0,-29,-142,-104,-83
-17,-40,-20,28,-2,-32,67,0,-23,-148,-104,-89
-23,-28,-3,22,-7,-14,61,0,-17,-154,-110,-89
-35,-34,-3,34,-13,-14,67,0,-17,-148,-104,-77
-47,-34,3,40,-25,-8,67,0,-17,-154,-110,-89
-29,-28,-3,28,-13,-14,67,0,-23,-154,-110,-95
-41,-22,9,28,-25,-3,61,0,-29,-154,-110,-89
-101,-34,57,64,-79,3,85,12,-11,-130,-86,-65
-95,-40,45,64,-73,-3,85,0,-17,-136,-92,-65
-11,-28,-14,16,-2,-20,55,-5,-41,-148,-104,-89
-11,-10,-3,10,-2,-3,55,-17,-47,-154,-104,-83
-17,-22,-3,16,-2,-14,61,-5,-41,-160,-104,-89
-6,-5,-8,4,-2,-3,49,-23,-47,-166,-116,-107
6,-5,-8,-1,10,-3,49,-23,-53,-166,-122,-101
0,7,-3,-1,-2,3,67,-11,-41,-166,-116,-89
0,13,3,-7,-2,9,67,-5,-35,-160,-104,-89
-6,19,27,-1,-13,21,73,-5,-35,-142,-92,-83
-35,19,57,4,-43,39,85,0,-29,-130,-80,-77
