,,,,,,,,,,,
2019-09-01 15:32:26,,,,,,,,,,,
,,,,,,,,,,,
I,II,III,aVR,aVL,aVF,V1,V2,V3,V4,V5,V6
-221,627,847,-199,-532,731,-1025,-1945,-873,-1545,-348,27
-449,423,871,4,-658,647,-1085,-2179,-1893,-2187,-1254,-650
-575,255,835,154,-706,545,-1067,-2191,-2271,-2403,-1638,-986
-647,153,799,244,-724,479,-1037,-2137,-2361,-2438,-1728,-1136
-683,33,721,316,-700,377,-983,-2035,-2343,-2391,-1734,-1184
-671,-38,625,352,-652,287,-929,-1879,-2199,-2229,-1644,-1166
-641,-92,541,364,-592,221,-857,-1705,-1977,-2007,-1494,-1100
-587,-170,415,376,-502,119,-761,-1477,-1725,-1755,-1326,-1010
-521,-218,301,370,-418,35,-695,-1297,-1527,-1551,-1176,-908
-437,-224,211,328,-322,-1,-653,-1177,-1353,-1365,-1038,-812
-365,-224,139,292,-250,-36,-611,-1081,-1185,-1215,-918,-728
-317,-218,97,262,-214,-54,-551,-979,-1023,-1071,-780,-632
-257,-182,73,220,-172,-48,-485,-859,-897,-927,-678,-542
-221,-152,61,184,-142,-42,-413,-757,-783,-795,-594,-494
-185,-152,25,166,-106,-60,-329,-649,-675,-669,-504,-434
-161,-128,25,142,-94,-48,-257,-553,-585,-555,-438,-380
-137,-104,25,118,-82,-36,-203,-481,-495,-459,-378,-344
-125,-92,25,106,-76,-30,-155,-415,-405,-375,-306,-290
-107,-98,1,100,-58,-42,-95,-337,-339,-297,-252,-248
-95,-92,1,94,-46,-42,-53,-277,-291,-231,-228,-218
-89,-104,-10,94,-34,-60,-17,-235,-249,-177,-192,-206
-71,-110,-34,88,-16,-72,0,-199,-219,-153,-168,-194
-77,-134,-52,106,-10,-96,30,-151,-195,-117,-156,-170
-77,-140,-58,106,-5,-102,42,-133,-183,-87,-156,-176
-65,-146,-76,106,-5,-114,66,-97,-141,-57,-126,-152
-53,-152,-94,100,13,-126,78,-85,-123,-57,-120,-140
-41,-152,-106,94,25,-132,84,-73,-105,-27,-108,-134
-35,-146,-106,88,25,-126,78,-67,-93,-15,-96,-122
-41,-146,-100,94,19,-126,90,-55,-81,-10,-84,-104
-35,-146,-106,88,25,-126,90,-43,-69,-10,-78,-104
-29,-140,-106,82,31,-126,90,-43,-57,-4,-72,-104
-47,-146,-94,94,13,-120,96,-25,-39,2,-60,-92
-53,-146,-88,100,7,-120,102,-13,-45,14,-60,-86
-47,-140,-88,94,13,-114,108,-8,-27,38,-54,-92
-35,-146,-106,88,25,-126,120,-8,-10,38,-42,-80
-23,-134,-106,76,31,-120,132,10,-10,50,-30,-68
-6,-116,-112,58,49,-114,138,28,2,74,-18,-56
12,-104,-124,40,67,-114,138,16,20,86,-7,-50
-6,-122,-118,58,49,-120,138,28,26,86,-7,-32
-35,-146,-106,88,25,-126,120,22,14,80,-7,-50
-47,-158,-106,100,19,-132,120,10,14,80,-7,-50
-17,-134,-112,76,37,-126,126,22,26,80,-7,-38
-11,-122,-106,64,37,-114,132,40,26,92,-7,-26
-11,-122,-106,64,37,-114,138,40,32,98,-7,-32
-6,-122,-118,58,49,-120,150,46,44,116,-7,-26
-6,-134,-130,64,55,-132,150,58,50,122,5,-14
-6,-134,-124,70,49,-132,156,70,62,140,17,-9
0,-134,-142,58,67,-138,150,58,74,146,29,-9
0,-122,-130,52,61,-126,144,64,74,146,35,3
12,-104,-124,40,67,-114,144,76,74,146,35,3
12,-110,-130,40,67,-120,156,82,92,164,47,15
0,-116,-124,52,61,-120,150,88,104,164,59,9
12,-98,-118,34,61,-108,156,94,98,158,59,15
18,-98,-124,34,67,-108,162,106,110,176,59,15
24,-104,-136,34,79,-120,174,112,134,188,77,27
24,-104,-136,34,79,-120,180,124,140,206,89,39
18,-116,-142,40,79,-126,186,130,134,224,89,39
24,-110,-142,34,79,-126,174,130,146,224,95,39
24,-110,-142,34,79,-126,174,142,158,224,107,63
30,-110,-148,34,85,-126,174,148,158,236,119,69
36,-98,-142,22,85,-120,186,154,176,254,131,81
42,-86,-136,16,85,-108,192,166,200,248,143,105
48,-80,-136,10,91,-108,186,172,194,248,149,105
48,-80,-136,10,91,-108,192,178,206,272,149,93
48,-86,-142,10,91,-114,198,190,230,284,173,105
60,-74,-142,4,97,-108,210,208,236,296,179,117
72,-74,-154,4,109,-114,216,214,248,320,185,123
72,-74,-154,4,109,-114,210,226,272,338,203,135
72,-86,-166,4,115,-126,222,232,290,350,221,159
90,-62,-160,-7,121,-108,210,238,290,362,221,153
96,-62,-166,-7,127,-114,216,244,314,374,239,165
84,-74,-166,4,121,-120,222,250,326,368,251,171
90,-68,-166,-1,127,-114,228,274,338,404,257,183
96,-56,-160,-13,127,-108,234,292,362,422,269,189
102,-56,-166,-13,133,-108,246,298,380,440,299,207
120,-44,-172,-31,145,-108,258,328,404,470,311,225
132,-44,-184,-37,157,-114,270,340,428,494,329,231
126,-44,-178,-31,151,-108,264,340,452,506,347,249
120,-56,-184,-25,151,-120,264,358,470,512,365,261
138,-44,-190,-37,163,-114,276,370,482,536,377,279
150,-20,-178,-55,163,-96,270,382,500,560,395,297
156,-14,-178,-61,163,-96,276,394,524,578,419,315
168,-3,-178,-73,169,-90,288,418,542,596,437,333
174,-3,-178,-79,175,-84,288,430,566,620,461,339
180,-3,-190,-79,181,-96,300,448,608,638,491,363
186,-3,-196,-85,187,-96,312,466,626,668,503,387
186,-3,-190,-85,187,-90,312,478,656,698,521,399
210,3,-202,-103,205,-90,318,490,692,716,545,411
228,27,-196,-127,211,-78,330,508,716,734,581,453
240,57,-184,-151,217,-54,336,520,734,758,599,465
258,69,-190,-163,229,-54,330,526,764,776,623,483
246,57,-190,-151,223,-60,342,538,776,788,641,507
234,33,-196,-133,217,-72,342,544,788,794,647,513
234,33,-196,-133,217,-72,336,556,806,818,665,519
246,51,-196,-151,223,-66,354,574,842,842,701,543
276,63,-214,-169,241,-66,360,592,860,860,719,567
270,69,-202,-169,235,-60,360,604,884,884,737,585
282,69,-214,-175,247,-66,354,598,908,890,755,597
294,81,-214,-187,253,-60,366,616,926,896,779,615
300,87,-214,-193,253,-54,360,628,938,914,797,627
306,105,-202,-205,253,-42,354,622,956,920,809,633
300,105,-196,-205,247,-36,360,622,962,920,821,651
306,105,-202,-205,253,-42,360,634,962,932,827,663
312,111,-202,-211,253,-36,360,628,968,938,833,657
312,117,-196,-217,253,-30,366,628,992,944,845,669
306,111,-196,-211,247,-36,360,640,986,938,845,669
306,117,-190,-211,247,-30,348,628,980,944,845,675
324,129,-196,-229,259,-24,348,616,992,938,851,687
324,135,-190,-229,253,-18,336,604,980,920,857,699
330,153,-178,-235,253,-6,318,592,968,902,833,687
318,147,-172,-235,241,-6,306,562,944,872,809,675
300,147,-154,-223,229,-1,306,544,920,836,797,669
282,147,-136,-217,211,-1,306,532,884,818,773,651
276,147,-130,-211,205,5,288,496,836,782,731,609
264,141,-124,-205,199,5,276,472,794,740,695,585
246,117,-130,-181,193,-1,276,454,758,710,659,561
234,111,-118,-169,175,-1,258,418,710,662,617,519
228,117,-106,-169,169,-1,246,388,668,620,575,489
210,99,-106,-151,157,-1,240,358,608,566,527,471
174,69,-100,-121,139,-6,222,316,548,524,479,423
156,81,-70,-115,115,-1,210,286,500,476,437,393
144,75,-64,-109,103,-1,186,250,458,422,401,363
120,45,-70,-79,97,-6,174,226,398,374,347,309
114,45,-64,-79,91,-1,168,202,356,344,299,273
84,33,-46,-55,67,-1,156,178,314,314,269,249
72,15,-52,-43,61,-12,150,154,266,266,233,213
66,3,-58,-31,61,-18,144,130,230,230,191,183
42,-3,-46,-13,43,-18,126,100,200,200,155,159
36,-3,-46,-7,37,-24,126,82,158,164,125,123
24,-8,-40,-1,31,-24,120,58,116,134,83,99
6,-14,-28,4,13,-18,102,34,92,104,47,75
-6,-20,-22,4,7,-18,90,22,62,68,23,39
-6,-26,-22,10,1,-24,84,-2,20,32,-7,9
-6,-32,-28,16,7,-30,78,-8,-4,20,-30,-9
-17,-44,-22,28,-5,-36,78,-8,-10,2,-42,-9
-41,-50,-4,46,-16,-30,84,-8,-21,-10,-60,-26
-41,-56,-10,46,-10,-36,72,-25,-45,-21,-84,-50
-29,-56,-22,40,-5,-42,60,-43,-57,-33,-90,-56
-29,-56,-22,40,-5,-42,66,-37,-69,-45,-96,-50
-17,-38,-16,28,-5,-30,60,-49,-87,-57,-108,-68
-29,-26,1,28,-16,-12,54,-55,-93,-75,-120,-86
-77,-62,7,70,-46,-24,42,-67,-111,-99,-138,-104
-83,-68,7,76,-46,-24,30,-73,-129,-111,-162,-122
-53,-44,1,46,-28,-18,36,-79,-129,-105,-162,-128
-53,-38,7,46,-34,-12,48,-79,-135,-117,-162,-128
-77,-62,7,70,-46,-24,54,-67,-135,-117,-162,-128
-83,-62,13,70,-52,-18,48,-79,-141,-117,-180,-146
-71,-50,13,58,-46,-12,36,-91,-141,-117,-174,-158
-77,-50,19,64,-52,-12,42,-91,-141,-123,-180,-140
-77,-44,25,58,-52,-6,30,-91,-165,-135,-192,-158
-83,-32,43,58,-64,-1,24,-103,-165,-141,-192,-170
-77,-20,49,46,-64,5,24,-109,-165,-147,-198,-176
-77,-20,49,46,-64,5,30,-97,-159,-147,-204,-170
-83,-20,55,52,-70,11,24,-91,-165,-141,-204,-176
-95,-32,55,64,-76,5,36,-97,-165,-147,-204,-176
-77,-32,37,52,-58,-1,36,-97,-165,-147,-204,-176
-77,-32,37,52,-58,-1,30,-91,-165,-141,-204,-182
-71,-26,37,46,-58,-1,30,-103,-171,-147,-198,-194
-89,-32,49,58,-70,-1,30,-103,-165,-147,-198,-182
-89,-32,49,58,-70,-1,24,-97,-171,-141,-210,-182
-83,-14,61,46,-76,17,30,-97,-177,-141,-210,-182
-89,-8,73,46,-82,23,24,-103,-183,-153,-210,-188
-71,-3,73,28,-70,35,30,-91,-177,-147,-210,-182
-53,9,67,16,-58,35,30,-79,-177,-135,-210,-188
-83,-3,73,40,-82,29,30,-91,-183,-147,-210,-182
-89,-14,67,52,-82,17,36,-85,-195,-147,-210,-188
-83,-8,67,46,-76,23,36,-85,-195,-141,-210,-188
-71,-3,61,34,-70,23,36,-85,-189,-135,-204,-188
-71,-3,61,34,-70,23,36,-79,-189,-141,-204,-188
-71,-3,67,34,-70,29,30,-79,-201,-141,-204,-194
-83,-3,85,34,-82,41,30,-85,-201,-147,-210,-188
-77,3,85,28,-82,41,18,-85,-201,-153,-210,-194
-77,3,85,28,-82,41,30,-79,-201,-147,-216,-188
-83,9,97,28,-88,53,24,-79,-213,-141,-228,-206
-83,9,97,28,-88,53,30,-79,-213,-141,-222,-206
-71,3,79,28,-76,41,42,-73,-213,-147,-228,-212
-77,3,85,28,-82,41,42,-67,-213,-141,-222,-212
-71,9,85,22,-76,47,42,-67,-201,-135,-210,-200
-71,9,85,22,-76,47,42,-67,-195,-141,-216,-194
-71,3,79,28,-76,41,36,-67,-207,-141,-234,-200
-83,15,103,28,-94,59,36,-73,-207,-141,-228,-200
-71,21,97,16,-82,59,36,-73,-201,-147,-222,-194
-77,21,103,22,-88,59,36,-67,-207,-141,-228,-188
-77,21,103,22,-88,59,30,-67,-207,-141,-234,-200
-71,15,91,22,-82,53,36,-73,-201,-147,-234,-200
-71,15,91,22,-82,53,36,-61,-201,-147,-228,-206
-71,15,91,22,-82,53,42,-61,-201,-135,-228,-200
-65,21,91,16,-76,53,42,-67,-189,-135,-216,-194
-65,15,85,16,-76,47,42,-67,-189,-135,-210,-200
-71,15,91,22,-82,53,36,-67,-195,-141,-222,-206
-83,21,109,22,-94,65,42,-67,-189,-135,-216,-200
-77,27,109,16,-94,65,36,-61,-183,-141,-216,-200
-59,45,109,4,-82,77,42,-49,-189,-135,-222,-194
-59,45,109,4,-82,77,42,-55,-189,-135,-222,-200
-77,15,97,22,-88,53,36,-61,-189,-147,-222,-206
-95,-3,91,46,-94,41,36,-55,-189,-141,-222,-212
-77,3,85,28,-82,41,42,-49,-183,-141,-228,-212
-59,15,79,16,-70,47,36,-55,-171,-141,-222,-212
-71,9,85,22,-76,47,42,-55,-165,-141,-216,-200
-71,15,91,22,-82,53,36,-61,-171,-135,-222,-206
-65,33,103,10,-82,65,36,-67,-171,-141,-222,-206
-71,27,103,16,-88,65,36,-67,-171,-141,-222,-206
-71,21,97,16,-82,59,36,-55,-177,-141,-222,-206
-71,15,91,22,-82,53,30,-67,-183,-147,-234,-218
-71,21,97,16,-82,59,36,-67,-171,-153,-228,-206
-71,9,85,22,-76,47,42,-61,-171,-147,-222,-200
-77,9,91,28,-82,47,42,-61,-171,-135,-228,-200
-65,15,85,16,-76,47,42,-61,-165,-135,-222,-194
-59,15,79,16,-70,47,36,-67,-159,-141,-216,-188
-59,15,79,16,-70,47,36,-73,-171,-147,-234,-194
-65,27,97,10,-82,59,30,-79,-183,-153,-234,-200
-65,27,97,10,-82,59,30,-73,-177,-159,-222,-200
-59,21,85,10,-70,53,36,-67,-177,-159,-234,-200
-65,15,85,16,-76,47,42,-61,-177,-153,-222,-200
-59,9,73,16,-64,41,42,-67,-177,-153,-216,-194
-59,3,67,22,-64,35,48,-61,-177,-159,-222,-194
-71,-3,67,34,-70,29,48,-67,-183,-153,-228,-200
-65,3,73,22,-70,35,48,-67,-177,-153,-222,-200
-53,21,79,10,-64,47,48,-61,-171,-153,-216,-194
-83,-3,79,40,-82,35,24,-73,-195,-165,-234,-218
-95,-8,79,52,-88,29,24,-79,-195,-165,-240,-212
-65,3,73,22,-70,35,30,-73,-189,-165,-234,-206
-65,15,85,16,-76,47,30,-61,-183,-165,-234,-200
-77,-3,73,34,-76,29,30,-67,-201,-165,-240,-212
-77,-3,67,40,-76,23,36,-67,-195,-165,-240,-200
-65,-3,61,28,-64,23,48,-55,-189,-159,-234,-200
-77,-3,73,34,-76,29,54,-49,-189,-153,-234,-200
-65,-3,67,28,-64,29,48,-49,-189,-153,-228,-200
-65,3,73,22,-70,35,54,-49,-183,-147,-222,-188
-65,21,91,16,-76,53,54,-43,-177,-141,-216,-188
-65,21,91,16,-76,53,54,-49,-171,-141,-210,-182
-59,33,97,4,-76,65,60,-43,-171,-141,-210,-182
-59,33,97,4,-76,65,60,-37,-177,-141,-216,-182
-53,45,103,4,-76,71,60,-43,-177,-135,-216,-194
-53,57,115,4,-82,83,72,-25,-159,-123,-204,-176
-41,57,103,-1,-70,77,78,-25,-165,-123,-204,-170
-41,69,115,-7,-76,89,78,-31,-165,-123,-210,-170
-35,57,97,-1,-64,77,72,-37,-165,-123,-204,-164
-41,51,97,4,-70,71,60,-43,-177,-129,-210,-164
-23,57,85,-7,-52,71,72,-31,-171,-123,-210,-164
-23,51,79,-7,-52,65,66,-37,-171,-135,-204,-158
-53,27,85,4,-70,53,60,-43,-177,-147,-210,-164
-71,15,91,22,-82,53,60,-43,-195,-153,-228,-176
-59,33,97,4,-76,65,78,-31,-171,-135,-204,-176
-53,45,103,4,-76,71,66,-43,-171,-141,-210,-170
-35,69,109,-7,-70,89,54,-37,-159,-141,-192,-158
-11,99,115,-37,-64,107,42,-37,-147,-123,-174,-140
-6,111,121,-43,-64,113,36,-49,-129,-111,-162,-128
-6,105,109,-43,-52,107,24,-55,-141,-123,-168,-128
-6,99,103,-43,-52,101,-6,-79,-153,-147,-180,-140
-6,99,103,-43,-52,101,-17,-103,-159,-159,-180,-146
-6,93,91,-43,-40,95,-23,-109,-171,-177,-186,-152
-6,81,79,-37,-34,83,-6,-97,-177,-183,-186,-152
12,87,67,-49,-22,77,-6,-97,-183,-177,-198,-164
12,81,61,-43,-16,71,-6,-103,-183,-183,-192,-164
12,81,61,-43,-16,71,-6,-97,-189,-189,-198,-158
12,75,55,-43,-16,65,-11,-97,-195,-183,-204,-164
0,63,55,-31,-22,59,-17,-109,-183,-189,-204,-164
-6,63,61,-25,-28,65,-17,-109,-195,-201,-204,-164
-11,57,73,-13,-40,65,-23,-115,-207,-207,-216,-170
-35,51,91,-1,-64,71,-6,-97,-189,-189,-204,-164
-35,51,91,-1,-64,71,0,-85,-177,-183,-198,-158
-29,51,85,-1,-58,65,12,-73,-177,-177,-192,-152
-41,45,91,4,-64,65,12,-79,-183,-177,-204,-164
-65,15,85,16,-76,47,18,-79,-189,-177,-204,-170
-65,-3,55,34,-64,17,30,-73,-183,-177,-210,-176
-53,-26,19,40,-40,-1,30,-61,-195,-177,-216,-182
-53,-32,13,40,-34,-6,42,-49,-177,-165,-210,-176
-65,-44,13,52,-40,-12,42,-55,-183,-171,-216,-182
-71,-62,1,64,-40,-24,36,-55,-195,-171,-228,-182
-65,-62,1,64,-34,-30,30,-55,-189,-177,-228,-188
-65,-68,1,64,-28,-36,36,-61,-189,-183,-228,-188
-89,-80,1,82,-46,-36,48,-55,-195,-183,-234,-194
-89,-80,1,82,-46,-36,42,-61,-201,-183,-240,-206
-77,-74,1,76,-40,-36,42,-61,-195,-183,-240,-200
-71,-80,-4,76,-28,-42,48,-49,-201,-177,-234,-200
-77,-86,-4,82,-34,-48,36,-43,-201,-171,-234,-200
-89,-92,1,88,-40,-48,36,-49,-195,-171,-246,-200
-95,-104,-4,100,-40,-54,42,-43,-195,-177,-240,-194
-95,-92,1,94,-46,-42,42,-49,-207,-177,-240,-200
-89,-98,-4,94,-40,-54,42,-49,-201,-171,-240,-194
-89,-98,-4,94,-40,-54,42,-55,-201,-177,-240,-194
-89,-104,-10,94,-34,-60,54,-37,-201,-171,-234,-194
-95,-110,-10,100,-40,-60,54,-37,-195,-171,-240,-194
-77,-104,-22,88,-22,-66,54,-31,-195,-165,-240,-188
-83,-104,-16,94,-28,-60,66,-25,-195,-159,-234,-188
-83,-110,-22,94,-28,-66,66,-19,-195,-147,-234,-188
-83,-110,-22,94,-28,-66,60,-25,-195,-153,-234,-188
-83,-122,-34,100,-22,-78,60,-25,-195,-159,-234,-182
-101,-122,-16,112,-40,-72,72,-19,-195,-159,-234,-182
-95,-128,-28,112,-28,-78,66,-19,-201,-159,-228,-182
-95,-122,-22,106,-34,-72,66,-19,-195,-159,-228,-182
-101,-134,-28,118,-34,-84,72,-13,-195,-159,-228,-194
-95,-140,-40,118,-22,-90,72,-8,-195,-153,-228,-188
-89,-128,-34,106,-22,-84,78,-8,-183,-147,-222,-182
-71,-110,-34,88,-16,-72,90,-8,-183,-141,-222,-182
-71,-128,-52,100,-5,-90,90,-8,-189,-135,-216,-188
-113,-170,-52,142,-28,-114,72,-8,-189,-141,-222,-194
-137,-188,-46,160,-40,-120,78,-8,-201,-147,-228,-200
-101,-152,-46,124,-22,-102,96,-8,-189,-135,-216,-194
-83,-158,-70,118,-5,-114,96,4,-183,-129,-228,-200
-89,-194,-100,142,-5,-150,120,28,-189,-117,-234,-200
-77,-230,-148,154,25,-192,144,82,-201,-87,-240,-206
-47,-266,-220,160,79,-240,192,166,-177,-27,-240,-206
-23,-284,-256,154,109,-270,240,256,-135,32,-228,-206
-6,-272,-262,142,121,-270,318,358,-81,128,-198,-188
-6,-254,-256,124,127,-252,384,460,-33,224,-174,-176
30,-218,-250,88,139,-234,444,550,50,326,-102,-122
78,-158,-238,34,157,-198,492,640,212,470,29,-20
150,-80,-238,-25,193,-156,516,724,410,626,215,111
246,3,-238,-127,241,-114,510,790,656,788,461,315
354,141,-214,-241,283,-30,492,832,944,962,767,591
486,273,-214,-379,349,29,492,922,1298,1196,1127,909
654,411,-238,-529,451,83,492,1024,1718,1478,1535,1257
792,537,-250,-667,523,143,438,1024,2095,1670,1931,1605
888,657,-232,-769,559,215,342,946,2383,1742,2254,1899
918,801,-112,-859,511,341,144,670,2496,1598,2439,2090
846,981,133,-913,355,557,-137,196,2436,1256,2487,2168
648,1149,493,-895,73,821,-431,-349,2179,794,2302,2042
372,1215,841,-793,-232,1031,-689,-943,1622,158,1859,1707
198,1143,943,-667,-370,1043,-833,-1291,1070,-297,1385,1359
72,927,847,-493,-382,887,-905,-1465,554,-651,893,981
-119,681,799,-271,-460,737,-989,-1735,-321,-1251,101,411
-371,471,841,-43,-604,653,-1085,-2071,-1527,-2049,-966,-362
-545,267,817,136,-682,539,-1085,-2149,-2181,-2427,-1566,-848
-623,153,775,232,-700,467,-1055,-2095,-2331,-2480,-1716,-1028
-665,63,733,292,-700,395,-1019,-2029,-2367,-2480,-1758,-1130
-671,-44,619,358,-646,281,-959,-1873,-2247,-2343,-1704,-1142
-635,-116,511,376,-574,197,-887,-1693,-2043,-2121,-1566,-1100
-605,-188,415,394,-508,107,-779,-1447,-1791,-1845,-1410,-1022
-539,-236,301,388,-424,29,-707,-1237,-1575,-1617,-1242,-926
-467,-260,199,364,-334,-30,-665,-1093,-1389,-1431,-1104,-824
-401,-260,133,328,-268,-60,-629,-997,-1233,-1281,-996,-752
-341,-260,73,298,-214,-90,-575,-889,-1071,-1119,-870,-674
-275,-236,37,250,-160,-96,-491,-751,-915,-957,-732,-560
-227,-194,25,208,-130,-78,-407,-637,-801,-813,-642,-494
-185,-170,7,178,-100,-78,-317,-517,-681,-675,-558,-440
-179,-164,7,172,-94,-72,-227,-403,-561,-531,-468,-374
-155,-140,7,148,-82,-60,-167,-331,-495,-447,-414,-326
-131,-128,1,130,-64,-60,-107,-259,-411,-345,-354,-290
-107,-122,-10,112,-46,-66,-53,-181,-327,-261,-288,-242
-89,-116,-22,100,-28,-72,-6,-109,-273,-195,-246,-206
-71,-104,-28,88,-16,-66,24,-67,-237,-141,-222,-176
-71,-122,-46,94,-10,-84,42,-31,-207,-111,-210,-176
-107,-176,-64,142,-16,-120,60,-8,-189,-93,-198,-176
-101,-194,-88,148,-5,-144,78,-2,-177,-69,-204,-182
-77,-188,-106,130,7,-150,102,40,-123,-27,-168,-152
-53,-182,-124,118,25,-156,126,76,-99,-10,-144,-134
-41,-176,-130,106,37,-156,138,76,-93,-4,-132,-128
-53,-182,-124,118,25,-156,138,82,-75,20,-126,-128
-47,-176,-124,112,31,-150,126,82,-57,20,-114,-122
-41,-170,-124,106,31,-150,138,100,-45,44,-102,-98
-41,-170,-124,106,31,-150,138,100,-39,50,-96,-92
-41,-164,-118,100,31,-144,126,106,-33,44,-96,-98
-41,-158,-112,100,25,-138,138,124,-21,50,-90,-80
-35,-164,-124,100,37,-144,150,130,-10,68,-90,-74
-35,-170,-130,100,37,-150,162,142,-4,86,-78,-80
-23,-170,-142,94,49,-156,168,148,8,86,-66,-68
-6,-164,-154,82,67,-162,168,154,8,98,-66,-62
-6,-170,-160,88,67,-168,174,160,26,122,-54,-50
-11,-164,-148,88,61,-156,168,160,32,122,-42,-44
-29,-158,-124,94,37,-144,162,172,38,116,-42,-32
-23,-146,-118,82,37,-132,168,166,38,128,-36,-26
-17,-146,-124,82,43,-138,168,166,50,128,-30,-26
-17,-146,-124,82,43,-138,168,184,44,134,-24,-26
-6,-152,-142,76,61,-150,174,178,50,140,-24,-26
0,-146,-154,64,73,-150,180,178,50,152,-18,-26
6,-146,-160,64,79,-150,180,196,68,164,-7,-20
0,-152,-160,70,79,-156,186,208,74,170,-7,-9
12,-146,-166,58,85,-156,186,208,80,182,-7,-9
6,-140,-154,58,79,-144,186,208,86,182,11,3
-6,-140,-142,64,67,-138,180,202,86,176,-1,-3
-6,-140,-142,64,67,-138,180,202,86,188,5,9
0,-122,-130,52,61,-126,180,214,98,194,23,21
0,-128,-136,58,67,-132,168,214,98,194,29,21
0,-140,-148,64,73,-144,186,226,110,206,23,27
24,-128,-160,46,91,-144,198,238,128,224,47,39
42,-116,-166,28,103,-138,198,250,140,230,59,45
54,-116,-178,22,115,-144,204,256,140,236,65,51
54,-116,-178,22,115,-144,198,256,158,254,65,51
48,-116,-172,28,109,-144,204,262,164,266,89,63
42,-116,-166,28,103,-138,192,262,164,260,89,69
48,-110,-166,22,103,-138,198,268,170,272,95,63
54,-104,-166,16,109,-132,192,268,182,278,101,75
54,-92,-154,10,103,-120,198,286,188,284,119,93
66,-92,-166,4,115,-126,210,298,200,308,125,93
72,-98,-178,4,121,-138,216,310,212,326,119,99
72,-98,-178,4,121,-138,216,322,230,326,125,105
60,-104,-172,16,115,-138,228,334,236,350,149,129
78,-98,-184,4,127,-138,216,334,248,362,149,135
90,-86,-184,4,133,-132,222,346,272,374,179,159
102,-68,-178,-7,139,-120,222,364,284,398,197,171
120,-56,-184,-25,151,-120,228,364,296,410,203,177
96,-68,-172,-7,133,-120,222,358,308,404,203,171
66,-98,-172,10,115,-132,234,376,314,422,215,177
90,-80,-178,4,133,-126,228,388,326,446,221,183
120,-62,-190,-19,151,-126,240,418,362,476,245,201
126,-56,-190,-25,157,-120,246,436,386,482,263,213
138,-50,-196,-37,163,-120,252,448,404,512,275,231
144,-44,-196,-43,169,-120,252,454,422,530,299,243
144,-44,-196,-43,169,-120,258,466,446,548,329,261
144,-38,-190,-43,163,-114,252,478,464,572,341,279
150,-26,-184,-55,163,-102,258,490,476,590,359,291
162,-14,-184,-67,169,-96,270,508,506,608,377,309
162,-8,-178,-67,169,-90,282,532,530,632,407,327
180,-8,-196,-79,187,-102,276,544,542,650,419,327
192,-3,-202,-85,193,-102,288,562,572,680,437,345
192,-3,-202,-85,193,-102,294,592,608,710,467,369
210,-3,-214,-97,211,-102,306,610,638,728,485,393
222,9,-208,-115,217,-90,306,616,656,746,509,417
234,21,-208,-127,223,-84,312,628,698,782,545,441
240,33,-208,-139,229,-78,318,646,716,806,563,459
252,39,-214,-145,235,-78,312,652,734,812,581,477
246,39,-208,-145,229,-78,312,652,746,818,599,489
252,57,-196,-157,229,-60,324,676,770,842,629,519
258,57,-202,-157,235,-66,318,694,788,860,635,525
276,63,-214,-169,241,-66,324,706,818,884,659,537
300,69,-232,-187,265,-72,324,718,836,908,689,561
300,75,-226,-187,259,-66,330,724,854,926,695,579
294,87,-208,-193,247,-54,342,736,878,944,725,597
306,93,-214,-199,259,-54,336,742,908,950,749,615
306,87,-220,-199,259,-60,324,742,914,956,755,633
312,105,-208,-211,259,-42,330,742,926,968,767,639
324,117,-208,-223,265,-36,324,742,932,968,779,651
330,123,-208,-229,265,-36,324,748,950,974,797,669
306,117,-190,-211,247,-30,324,754,950,986,803,669
330,129,-202,-229,265,-30,324,754,962,992,809,669
354,135,-220,-241,283,-36,330,754,962,992,827,681
342,129,-214,-235,277,-36,330,754,962,992,821,693
336,141,-196,-235,265,-18,318,736,962,986,809,687
348,153,-196,-247,271,-12,306,724,956,968,815,693
342,153,-190,-241,265,-12,294,718,926,944,803,693
330,153,-178,-235,253,-6,276,682,902,920,785,687
306,141,-166,-223,235,-6,264,664,878,896,767,669
288,153,-136,-223,217,5,252,640,842,860,743,657
282,147,-136,-217,211,-1,246,616,806,836,713,633
276,141,-136,-211,211,-1,240,586,764,800,677,603
258,135,-124,-199,193,-1,228,562,716,752,635,573
246,123,-124,-187,187,-1,216,532,668,722,599,543
234,117,-112,-175,175,-1,192,490,614,662,545,507
222,111,-106,-163,163,-1,180,460,566,608,503,477
204,111,-88,-157,145,5,168,424,500,566,473,459
180,99,-76,-139,127,5,150,382,452,512,413,417
168,99,-64,-133,115,11,132,346,398,464,365,369
174,99,-70,-133,121,11,132,328,356,428,335,339
156,75,-76,-115,115,-1,114,292,290,380,269,297
102,33,-64,-67,85,-6,96,262,236,338,233,255
60,-3,-58,-25,61,-24,78,232,194,284,185,219
72,3,-64,-37,67,-24,72,202,158,248,143,189
66,15,-46,-37,55,-6,66,178,116,230,113,159
42,3,-34,-19,37,-6,42,160,86,194,89,135
18,-3,-28,-1,19,-12,36,124,32,146,53,105
0,-14,-22,4,7,-18,18,100,-4,116,17,75
6,-8,-22,4,13,-12,0,76,-27,80,-7,45
-6,-14,-16,4,1,-12,6,70,-51,56,-30,27
-6,-26,-16,16,-5,-24,6,58,-75,38,-60,9
-11,-32,-16,22,-5,-24,0,46,-99,8,-78,-9
-29,-38,-4,34,-10,-24,12,52,-111,2,-84,-14
-35,-38,1,34,-16,-18,0,28,-129,-10,-102,-38
-23,-38,-10,28,-5,-24,-6,10,-147,-21,-132,-62
-35,-44,-4,40,-10,-24,-17,-8,-159,-39,-144,-74
-47,-50,1,46,-22,-24,-23,-8,-183,-57,-162,-80
-59,-44,7,52,-34,-12,-17,-8,-195,-63,-168,-86
-59,-38,13,46,-40,-6,-29,-25,-213,-81,-186,-104
-59,-50,1,52,-34,-18,-29,-25,-219,-93,-192,-122
-71,-50,13,58,-46,-12,-35,-31,-231,-99,-204,-134
-65,-50,7,58,-40,-18,-47,-49,-249,-111,-216,-146
-59,-50,1,52,-34,-18,-41,-43,-243,-117,-222,-140
-65,-44,13,52,-40,-12,-41,-37,-249,-111,-222,-134
-65,-26,31,46,-52,-1,-47,-49,-249,-105,-228,-140
-59,-26,25,40,-46,-1,-53,-43,-243,-117,-216,-140
-83,-38,37,58,-64,-1,-53,-55,-255,-135,-228,-140
-107,-50,49,76,-82,-1,-65,-73,-267,-147,-246,-152
-89,-32,49,58,-70,-1,-71,-73,-267,-147,-234,-158
-77,-20,49,46,-64,5,-65,-61,-267,-147,-228,-152
-77,-14,55,46,-70,11,-71,-67,-273,-141,-234,-164
-71,-14,49,40,-64,11,-71,-73,-273,-141,-240,-170
-71,-14,49,40,-64,11,-65,-67,-267,-141,-240,-176
-71,-8,55,40,-64,17,-59,-73,-273,-141,-246,-182
-77,-14,55,46,-70,11,-71,-79,-279,-141,-246,-182
-83,-20,55,52,-70,11,-71,-79,-273,-147,-246,-176
-83,-14,61,46,-76,17,-83,-85,-285,-159,-246,-176
-71,-8,55,40,-64,17,-95,-91,-309,-159,-258,-188
-77,-3,67,40,-76,23,-101,-85,-303,-165,-252,-194
-77,-3,73,34,-76,29,-89,-73,-297,-153,-246,-182
-83,-3,73,40,-82,29,-77,-67,-303,-141,-246,-182
-71,-3,61,34,-70,23,-77,-79,-309,-141,-246,-194
-59,-3,61,22,-58,29,-71,-61,-303,-141,-240,-188
-41,15,61,4,-52,35,-71,-55,-303,-129,-240,-182
-47,9,61,10,-52,35,-89,-73,-321,-141,-252,-200
-89,-14,67,52,-82,17,-95,-79,-327,-159,-258,-200
-101,-3,91,52,-100,35,-101,-79,-327,-159,-252,-194
-65,15,85,16,-76,47,-95,-85,-333,-153,-246,-194
-71,15,91,22,-82,53,-101,-91,-345,-171,-258,-206
-77,3,85,28,-82,41,-95,-73,-345,-165,-252,-194
-83,9,97,28,-88,53,-95,-67,-345,-153,-252,-194
-83,15,103,28,-94,59,-89,-67,-345,-153,-252,-200
-77,9,91,28,-82,47,-95,-61,-345,-153,-252,-200
-77,9,91,28,-82,47,-89,-55,-339,-141,-252,-194
-71,15,91,22,-82,53,-101,-67,-345,-135,-264,-212
-59,21,85,10,-70,53,-95,-67,-333,-141,-258,-200
-71,21,97,16,-82,59,-101,-67,-339,-141,-258,-200
-71,21,97,16,-82,59,-107,-67,-339,-141,-252,-206
-71,27,103,16,-88,65,-107,-67,-339,-147,-252,-206
-89,9,103,34,-94,53,-107,-61,-351,-153,-258,-212
-89,15,109,28,-100,59,-107,-55,-351,-147,-264,-218
-59,33,97,4,-76,65,-101,-43,-339,-141,-258,-212
-65,33,103,10,-82,65,-89,-43,-327,-135,-258,-212
-59,27,91,10,-76,59,-95,-43,-333,-135,-252,-206
-59,21,85,10,-70,53,-107,-49,-345,-141,-270,-218
-71,3,79,28,-76,41,-101,-55,-333,-141,-264,-212
-71,15,91,22,-82,53,-113,-61,-339,-147,-270,-212
-77,15,97,22,-88,53,-119,-55,-339,-153,-264,-212
-83,15,103,28,-94,59,-119,-55,-339,-153,-264,-218
-71,15,91,22,-82,53,-113,-55,-333,-159,-258,-212
-77,21,103,22,-88,59,-113,-55,-339,-153,-264,-218
-71,27,103,16,-88,65,-107,-55,-333,-147,-270,-218
-65,27,97,10,-82,59,-113,-61,-339,-153,-270,-218
-59,27,91,10,-76,59,-113,-49,-327,-141,-264,-212
-65,33,103,10,-82,65,-113,-49,-327,-135,-270,-224
-71,27,103,16,-88,65,-113,-55,-321,-147,-264,-212
-77,21,103,22,-88,59,-131,-67,-333,-153,-264,-218
-77,21,103,22,-88,59,-137,-79,-333,-159,-264,-218
-71,21,97,16,-82,59,-137,-73,-327,-153,-264,-218
-77,33,115,16,-94,71,-125,-67,-327,-159,-258,-212
-77,27,109,16,-94,65,-125,-67,-327,-153,-264,-212
-65,21,91,16,-76,53,-119,-67,-315,-153,-258,-212
-65,21,91,16,-76,53,-119,-61,-315,-147,-252,-206
-59,15,79,16,-70,47,-119,-61,-321,-153,-252,-200
-65,9,79,22,-70,41,-137,-67,-315,-153,-258,-206
-71,15,91,22,-82,53,-143,-61,-309,-159,-252,-200
-77,9,91,28,-82,47,-143,-61,-321,-153,-252,-206
-71,9,85,22,-76,47,-149,-73,-321,-159,-264,-206
-71,15,91,22,-82,53,-161,-79,-333,-171,-264,-218
-77,15,97,22,-88,53,-155,-73,-327,-171,-258,-212
-77,27,109,16,-94,65,-149,-67,-327,-165,-258,-212
-65,33,103,10,-82,65,-149,-67,-327,-165,-252,-212
-65,27,97,10,-82,59,-149,-67,-339,-171,-258,-218
-53,33,91,4,-70,59,-155,-67,-327,-165,-258,-206
-41,51,97,4,-70,71,-149,-67,-333,-165,-270,-212
-65,33,103,10,-82,65,-143,-67,-327,-165,-264,-206
-95,-3,97,40,-94,47,-167,-79,-351,-183,-276,-218
-101,-3,103,46,-100,47,-173,-85,-351,-183,-276,-218
-83,21,109,22,-94,65,-149,-73,-345,-171,-270,-206
-77,21,103,22,-88,59,-161,-79,-357,-189,-270,-206
-89,3,97,34,-94,47,-161,-73,-363,-177,-270,-212
-83,9,97,28,-88,53,-155,-73,-351,-177,-264,-212
-77,-3,79,34,-76,35,-143,-61,-345,-159,-258,-206
-95,-3,97,40,-94,47,-143,-55,-339,-153,-252,-200
-77,3,85,28,-82,41,-143,-61,-339,-153,-264,-206
-65,21,91,16,-76,53,-143,-55,-345,-159,-252,-206
-65,27,97,10,-82,59,-155,-61,-339,-159,-252,-200
-53,33,91,4,-70,59,-161,-73,-339,-159,-252,-200
-41,45,91,4,-64,65,-149,-67,-339,-153,-252,-194
-59,39,103,4,-82,71,-155,-67,-345,-153,-252,-194
-65,39,109,4,-88,71,-137,-49,-327,-135,-246,-182
-59,57,121,4,-88,89,-131,-49,-321,-123,-234,-176
-47,57,109,4,-76,83,-131,-49,-315,-129,-240,-182
-53,51,109,4,-82,77,-143,-49,-327,-135,-234,-176
-59,45,109,4,-82,77,-149,-55,-333,-135,-240,-182
-47,45,97,4,-70,71,-155,-61,-327,-141,-240,-182
-41,45,91,4,-64,65,-155,-55,-333,-141,-246,-182
-65,33,103,10,-82,65,-161,-67,-339,-147,-246,-182
-59,33,97,4,-76,65,-161,-67,-333,-147,-246,-182
-41,33,79,4,-58,53,-161,-67,-339,-153,-240,-182
-53,45,103,4,-76,71,-149,-61,-327,-147,-240,-182
-53,75,133,-1,-94,101,-155,-67,-315,-141,-228,-170
-23,99,127,-31,-76,113,-167,-67,-297,-129,-204,-146
-6,123,121,-55,-58,125,-173,-55,-279,-111,-186,-128
-6,117,115,-55,-52,119,-185,-73,-285,-117,-192,-140
0,111,103,-55,-46,107,-209,-97,-303,-141,-198,-146
6,105,91,-55,-34,101,-233,-109,-303,-147,-198,-146
6,105,91,-55,-34,101,-251,-133,-321,-165,-216,-152
-6,87,91,-37,-46,89,-251,-133,-333,-189,-234,-170
-6,87,91,-37,-46,89,-245,-127,-339,-189,-234,-170
-6,81,85,-31,-40,83,-245,-127,-345,-195,-240,-176
-6,81,79,-37,-34,83,-251,-133,-357,-207,-246,-182
6,81,67,-43,-22,77,-245,-127,-351,-201,-246,-182
6,87,73,-43,-28,83,-245,-133,-351,-195,-240,-170
-6,75,73,-31,-34,77,-245,-139,-351,-207,-240,-182
-6,69,79,-25,-40,71,-257,-145,-357,-219,-246,-188
-23,63,91,-13,-58,77,-245,-133,-345,-201,-240,-182
-23,69,97,-13,-58,83,-233,-127,-327,-189,-234,-176
-29,63,97,-7,-64,77,-221,-115,-321,-183,-222,-164
-47,45,97,4,-70,71,-221,-115,-333,-189,-228,-176
-59,27,91,10,-76,59,-209,-103,-333,-189,-240,-188
-71,9,85,22,-76,47,-197,-97,-327,-183,-240,-188
-71,-3,61,34,-70,23,-191,-85,-333,-177,-240,-188
-53,-20,25,34,-40,-1,-191,-79,-327,-177,-240,-194
-53,-38,7,46,-34,-12,-185,-85,-339,-177,-246,-188
-71,-44,19,58,-46,-6,-191,-85,-333,-177,-240,-188
-89,-56,25,70,-58,-12,-185,-79,-321,-177,-234,-188
-71,-50,13,58,-46,-12,-185,-85,-327,-177,-240,-194
-65,-32,25,46,-46,-1,-185,-85,-333,-183,-246,-194
-71,-50,13,58,-46,-12,-191,-91,-339,-189,-240,-188
-101,-86,7,94,-58,-36,-185,-97,-345,-195,-246,-206
-107,-92,7,100,-58,-36,-185,-97,-345,-195,-246,-212
-89,-92,1,88,-40,-48,-191,-91,-345,-195,-258,-200
-77,-98,-16,88,-28,-60,-179,-79,-333,-177,-246,-194
-83,-98,-10,88,-34,-54,-179,-85,-345,-177,-252,-206
-89,-92,1,88,-40,-48,-185,-85,-339,-177,-252,-200
-89,-92,1,88,-40,-48,-179,-79,-333,-165,-246,-194
-95,-92,1,94,-46,-42,-185,-85,-339,-177,-246,-206
-101,-98,1,100,-52,-48,-179,-79,-333,-171,-246,-200
-95,-92,1,94,-46,-42,-179,-85,-339,-177,-246,-200
-107,-104,1,106,-52,-48,-161,-73,-327,-165,-246,-188
-107,-110,1,106,-52,-54,-173,-73,-333,-165,-246,-194
-95,-116,-16,106,-34,-66,-161,-67,-327,-165,-246,-194
-101,-122,-16,112,-40,-72,-167,-73,-333,-171,-246,-200
-107,-128,-16,118,-40,-72,-167,-67,-327,-165,-246,-194
-107,-122,-10,112,-46,-66,-167,-61,-327,-159,-240,-188
-119,-134,-10,124,-52,-72,-155,-49,-321,-153,-234,-188
-113,-134,-16,124,-46,-78,-161,-61,-321,-153,-240,-188
-113,-134,-16,124,-46,-78,-155,-61,-321,-159,-240,-194
-107,-128,-16,118,-40,-72,-155,-61,-321,-159,-234,-188
-113,-128,-10,118,-46,-72,-155,-67,-321,-165,-246,-206
-113,-134,-16,124,-46,-78,-155,-61,-321,-159,-246,-200
-107,-140,-28,124,-34,-84,-149,-49,-321,-159,-246,-206
-101,-152,-46,124,-22,-102,-149,-49,-315,-159,-246,-200
-101,-146,-40,124,-28,-96,-149,-49,-309,-153,-246,-212
-119,-152,-28,136,-40,-90,-143,-31,-297,-141,-234,-200
-125,-164,-34,142,-40,-102,-131,-19,-291,-135,-228,-188
-107,-182,-70,142,-16,-126,-113,-8,-297,-117,-234,-200
-95,-212,-112,154,1,-162,-89,22,-309,-99,-246,-206
-71,-242,-172,160,43,-210,-53,88,-303,-57,-246,-206
-35,-260,-226,148,85,-240,-6,178,-273,-4,-240,-206
-6,-248,-238,130,109,-246,48,268,-243,80,-222,-212
-17,-248,-232,136,97,-240,120,370,-195,152,-198,-206
-6,-236,-226,118,103,-234,174,460,-117,242,-150,-176
36,-176,-220,64,127,-198,234,544,20,380,-42,-86
108,-98,-214,4,157,-156,258,640,218,536,125,33
210,-14,-232,-91,217,-120,270,718,458,710,353,231
306,81,-226,-193,265,-66,252,760,728,872,641,477
438,219,-220,-325,325,-1,234,820,1052,1058,989,783
612,351,-256,-481,439,41,240,940,1448,1340,1391,1137
750,465,-286,-607,517,83,222,1012,1856,1592,1805,1491
846,561,-280,-703,565,137,174,1000,2209,1760,2176,1815
924,711,-214,-811,565,245,54,856,2424,1742,2433,2060
900,891,-4,-895,457,443,-221,412,2401,1430,2511,2162
714,1053,337,-883,187,701,-515,-133,2197,986,2398,2102
408,1125,715,-763,-148,923,-779,-709,1736,410,2033,1827
198,1107,907,-649,-352,1007,-977,-1153,1184,-117,1559,1473
90,957,859,-517,-382,911,-1067,-1369,692,-477,1097,1119
-59,723,781,-325,-424,749,-1157,-1627,-69,-1005,407,603
-323,519,847,-91,-586,683,-1247,-1981,-1281,-1815,-654,-152
-521,345,871,82,-700,605,-1289,-2161,-2169,-2355,-1464,-770
-635,207,841,214,-736,521,-1235,-2101,-2391,-2444,-1680,-1004
-707,99,805,298,-754,455,-1187,-2023,-2438,-2444,-1740,-1118
-707,3,715,346,-712,359,-1139,-1915,-2391,-2373,-1722,-1160
-683,-44,631,364,-658,287,-1073,-1747,-2211,-2193,-1602,-1124
-665,-104,553,382,-610,221,-995,-1549,-1977,-1947,-1446,-1052
-611,-182,427,394,-520,119,-935,-1351,-1761,-1719,-1296,-980
-521,-230,289,376,-412,23,-881,-1183,-1587,-1527,-1176,-890
-461,-254,199,358,-328,-24,-815,-1033,-1395,-1329,-1026,-788
-377,-242,127,310,-250,-54,-773,-931,-1233,-1185,-900,-704
-311,-224,85,262,-202,-66,-725,-835,-1095,-1047,-774,-614
-257,-200,55,232,-160,-66,-659,-733,-981,-915,-684,-542
-221,-188,25,202,-124,-78,-575,-607,-855,-777,-600,-488
-191,-182,1,184,-100,-84,-491,-487,-741,-645,-516,-428
-173,-152,13,160,-94,-66,-407,-385,-639,-519,-450,-368
-167,-134,25,148,-100,-48,-353,-313,-543,-417,-366,-314
-143,-122,13,130,-82,-48,-299,-247,-477,-351,-318,-272
-107,-110,1,106,-52,-54,-257,-187,-411,-279,-270,-236
-101,-110,-4,106,-46,-60,-227,-133,-357,-213,-234,-206
-101,-128,-22,112,-34,-78,-197,-91,-321,-171,-210,-188
-107,-146,-34,124,-34,-90,-155,-49,-291,-141,-186,-176
-89,-152,-58,118,-10,-108,-131,-8,-267,-93,-168,-170
-71,-170,-94,118,1,-132,-107,16,-237,-63,-150,-158
-59,-176,-112,118,19,-144,-89,46,-207,-39,-138,-146
-53,-170,-112,112,19,-144,-77,52,-189,-21,-132,-146
-47,-170,-118,106,25,-144,-59,64,-171,-4,-108,-128
-47,-176,-124,112,31,-150,-71,70,-159,-4,-102,-128
-41,-176,-130,106,37,-156,-65,76,-153,8,-84,-110
-47,-164,-112,106,25,-138,-59,82,-123,26,-90,-98
-53,-164,-106,106,19,-138,-53,82,-111,20,-90,-104
-53,-164,-106,106,19,-138,-53,88,-105,32,-78,-92
-53,-170,-112,112,19,-144,-47,100,-99,38,-72,-86
-47,-176,-124,112,31,-150,-47,106,-75,50,-66,-86
-29,-170,-136,100,43,-156,-29,124,-57,68,-54,-62
-35,-182,-142,106,43,-162,-17,142,-45,86,-42,-56
-23,-182,-154,100,55,-168,-17,136,-39,92,-36,-62
0,-152,-160,70,79,-156,-11,148,-10,104,-12,-38
6,-134,-148,58,73,-138,-6,160,-10,110,-7,-20
-6,-146,-136,76,55,-144,-23,148,-10,104,-7,-20
-41,-176,-130,106,37,-156,-35,130,-10,86,-12,-32
-29,-164,-130,94,43,-150,-11,142,-10,110,-7,-20
-6,-140,-130,70,55,-138,-6,166,2,122,-7,-9
-6,-140,-136,70,61,-138,-6,166,14,128,5,-14
-6,-146,-142,70,61,-144,-6,178,20,134,17,-9
-6,-146,-148,70,67,-144,-6,184,26,152,17,-9
6,-146,-160,64,79,-150,-6,178,20,140,17,-9
12,-146,-166,58,85,-156,-6,172,32,146,23,-9
6,-134,-148,58,73,-138,-6,178,32,146,23,3
-6,-128,-130,58,61,-126,-6,178,38,152,35,9
-6,-122,-124,58,55,-120,-6,178,50,158,47,21
6,-110,-124,46,61,-114,-6,190,56,164,65,39
12,-116,-136,46,73,-126,-6,196,50,170,59,27
12,-128,-148,52,79,-138,0,214,68,194,77,33
24,-128,-160,46,91,-144,18,232,86,206,89,57
36,-128,-172,40,103,-150,24,232,86,218,95,51
48,-134,-190,34,115,-162,24,244,98,224,113,63
42,-128,-178,34,109,-150,30,250,128,236,137,81
42,-116,-166,28,103,-138,30,250,134,242,137,87
36,-116,-160,34,97,-138,12,244,128,242,137,87
36,-110,-154,28,91,-132,6,244,152,242,143,87
48,-92,-148,16,97,-120,24,256,188,260,155,99
48,-86,-142,10,91,-114,18,262,188,266,149,93
48,-98,-154,16,97,-126,36,280,212,284,161,93
54,-116,-178,22,115,-144,54,304,218,302,173,117
54,-104,-166,16,109,-132,48,304,218,308,179,123
84,-86,-178,4,127,-132,36,304,236,320,197,135
84,-92,-184,4,133,-138,48,310,266,338,221,147
78,-92,-178,4,127,-132,54,328,284,356,233,171
90,-80,-178,4,133,-126,42,322,302,356,239,177
90,-68,-166,-1,127,-114,48,340,320,374,257,189
96,-56,-160,-13,127,-108,66,364,350,386,281,207
102,-62,-172,-13,133,-114,72,376,362,410,287,207
102,-68,-178,-7,139,-120,72,382,380,428,299,207
114,-62,-184,-19,145,-120,102,412,416,452,323,231
126,-56,-190,-25,157,-120,108,418,434,476,335,237
138,-56,-202,-31,169,-126,108,430,464,488,359,243
132,-44,-184,-37,157,-114,120,442,500,518,395,267
144,-38,-190,-43,163,-114,114,448,512,524,401,285
156,-26,-190,-55,169,-108,114,454,536,542,419,297
162,-20,-190,-61,175,-102,114,472,572,566,449,321
162,-20,-190,-61,175,-102,138,484,596,590,473,339
168,-20,-196,-67,181,-108,144,508,620,620,479,351
186,-8,-202,-79,193,-102,150,520,656,638,503,375
204,-14,-226,-85,211,-120,174,544,698,668,533,399
228,-3,-238,-103,229,-120,186,568,728,698,563,417
252,9,-238,-133,247,-108,186,580,758,722,587,435
234,-3,-238,-115,235,-114,186,592,794,734,617,459
222,-8,-238,-97,229,-120,180,586,806,740,617,471
234,-3,-238,-115,235,-114,180,592,848,764,647,483
240,21,-220,-133,235,-90,186,616,878,782,677,507
234,21,-208,-127,223,-84,198,646,902,806,707,531
252,27,-226,-139,235,-90,198,640,908,812,713,543
252,21,-232,-139,241,-96,216,658,950,842,737,567
270,33,-238,-151,253,-96,222,670,974,860,761,579
282,33,-244,-157,265,-102,222,670,992,878,773,597
294,45,-244,-169,271,-96,216,676,1022,890,797,603
312,69,-238,-193,277,-78,228,688,1052,914,833,639
312,81,-232,-199,271,-66,234,700,1070,926,839,663
306,81,-226,-193,265,-66,216,688,1082,926,845,657
318,87,-232,-205,271,-66,210,682,1076,932,851,663
324,93,-232,-211,277,-60,222,700,1088,938,863,681
324,99,-226,-211,271,-54,222,700,1094,944,875,675
318,105,-214,-211,265,-48,228,706,1112,950,887,687
330,105,-226,-217,277,-54,234,706,1124,950,899,699
318,87,-232,-205,271,-66,222,694,1112,944,887,699
318,87,-232,-205,271,-66,222,682,1118,950,899,705
330,105,-226,-217,277,-54,222,676,1130,944,917,723
318,117,-202,-217,259,-36,216,670,1112,926,905,723
300,111,-190,-205,241,-30,198,634,1088,896,881,705
294,111,-184,-205,235,-30,186,616,1070,872,869,693
294,117,-178,-205,235,-24,174,598,1028,836,833,681
288,123,-166,-205,229,-12,156,562,980,800,797,651
270,111,-160,-193,217,-18,162,544,956,770,773,633
270,117,-154,-193,217,-12,168,526,908,734,743,609
258,117,-142,-187,205,-6,168,496,860,692,701,573
234,93,-136,-163,187,-12,132,448,800,644,647,525
204,81,-118,-139,163,-12,114,418,746,596,605,495
198,75,-118,-133,157,-12,96,394,698,548,551,465
186,69,-112,-127,151,-12,84,346,632,488,497,417
150,57,-88,-103,121,-6,84,316,584,446,467,399
126,45,-76,-85,103,-6,78,298,536,398,419,357
114,27,-82,-67,97,-18,66,268,476,356,359,315
108,9,-94,-55,103,-36,60,238,446,320,323,285
90,9,-76,-49,85,-24,48,220,392,272,281,255
78,-3,-82,-31,79,-36,36,190,338,230,239,225
72,-8,-88,-25,79,-48,24,154,302,206,209,195
66,-8,-82,-19,73,-42,24,154,272,170,179,177
48,-8,-64,-13,55,-36,6,124,236,122,149,147
24,-8,-40,-1,31,-24,-6,88,188,86,107,111
-6,-32,-22,16,1,-30,-11,64,152,44,71,69
-29,-56,-22,40,-5,-42,-6,40,122,14,35,33
-11,-38,-22,22,-5,-30,-17,28,92,-4,5,15
-11,-44,-28,28,1,-36,-17,22,80,-10,-1,-9
-29,-56,-22,40,-5,-42,-23,16,50,-21,-7,-14
-35,-68,-28,52,-5,-48,-23,10,38,-39,-30,-20
-29,-56,-22,40,-5,-42,-29,-8,26,-57,-48,-38
-29,-50,-16,40,-5,-36,-35,-8,8,-75,-60,-50
-47,-62,-10,52,-16,-36,-41,-19,-4,-93,-78,-68
-59,-62,1,58,-28,-30,-53,-43,-10,-105,-96,-80
-71,-56,7,64,-40,-18,-53,-49,-21,-123,-102,-86
-71,-50,13,58,-46,-12,-35,-49,-27,-141,-108,-86
-83,-62,13,70,-52,-18,-41,-55,-51,-147,-120,-104
-77,-68,1,70,-40,-30,-47,-67,-51,-153,-132,-110
-53,-56,1,52,-22,-30,-47,-67,-63,-153,-138,-122
-65,-62,1,64,-34,-30,-47,-55,-63,-165,-138,-116
-83,-68,7,76,-46,-24,-53,-73,-69,-177,-150,-134
-83,-74,1,76,-46,-30,-47,-79,-69,-183,-156,-140
-83,-56,19,70,-52,-12,-47,-85,-69,-183,-162,-152
-101,-44,49,70,-76,-1,-53,-91,-69,-189,-162,-152
-95,-44,43,70,-70,-1,-71,-97,-69,-195,-162,-152
-95,-38,49,64,-76,-1,-65,-97,-75,-207,-162,-152
-95,-38,49,64,-76,-1,-65,-85,-81,-207,-168,-170
-89,-38,43,64,-70,-1,-59,-91,-75,-207,-168,-170
-77,-32,37,52,-58,-1,-59,-85,-69,-207,-168,-164
-77,-32,37,52,-58,-1,-59,-91,-75,-201,-174,-176
-83,-38,37,58,-64,-1,-53,-97,-75,-195,-168,-176
-83,-26,49,52,-70,5,-47,-97,-87,-201,-168,-170
-89,-26,55,58,-76,5,-47,-97,-87,-201,-174,-176
-95,-20,67,58,-82,17,-59,-109,-93,-213,-180,-182
-89,-14,67,52,-82,17,-65,-109,-93,-219,-174,-182
-95,-14,73,52,-88,23,-47,-103,-99,-225,-180,-182
-101,-8,85,52,-94,29,-47,-97,-99,-213,-180,-188
-101,-20,73,58,-88,17,-47,-97,-99,-213,-180,-182
-95,-20,67,58,-82,17,-53,-103,-111,-213,-180,-194
-83,-14,61,46,-76,17,-41,-91,-117,-207,-180,-194
-89,-14,67,52,-82,17,-35,-91,-105,-195,-180,-194
-83,-3,73,40,-82,29,-41,-97,-117,-213,-186,-194
-77,-3,67,40,-76,23,-47,-97,-123,-207,-186,-200
-83,-3,85,34,-82,41,-41,-97,-123,-207,-192,-200
-77,3,85,28,-82,41,-47,-97,-117,-207,-186,-200
-71,9,85,22,-76,47,-47,-97,-129,-213,-192,-200
-101,-3,103,46,-100,47,-47,-103,-135,-213,-192,-206
-95,-3,91,46,-94,41,-35,-97,-129,-213,-192,-200
-65,-3,67,28,-64,29,-35,-85,-117,-207,-186,-200
-89,-3,79,46,-88,29,-35,-85,-123,-201,-192,-212
-95,-3,85,46,-94,35,-35,-91,-123,-201,-192,-212
-65,21,91,16,-76,53,-23,-79,-105,-195,-174,-194
-53,21,79,10,-64,47,-29,-85,-105,-201,-186,-194
-83,9,97,28,-88,53,-41,-103,-117,-213,-186,-206
-95,-3,97,40,-94,47,-47,-109,-111,-213,-180,-206
-77,15,97,22,-88,53,-47,-97,-117,-213,-192,-200
-65,33,103,10,-82,65,-47,-109,-117,-213,-192,-206
-65,27,97,10,-82,59,-35,-115,-123,-213,-192,-206
-65,27,97,10,-82,59,-29,-109,-111,-213,-186,-200
-53,33,91,4,-70,59,-29,-91,-117,-213,-192,-200
-77,21,103,22,-88,59,-35,-109,-117,-207,-186,-200
-83,27,115,22,-100,71,-35,-115,-123,-219,-186,-206
-65,33,103,10,-82,65,-47,-103,-117,-213,-186,-200
-59,39,103,4,-82,71,-47,-115,-117,-219,-198,-206
-71,45,121,4,-94,83,-41,-115,-111,-213,-192,-200
-71,45,121,4,-94,83,-47,-121,-117,-225,-192,-200
-77,27,109,16,-94,65,-35,-109,-105,-213,-192,-200
-71,33,109,10,-88,71,-29,-109,-105,-219,-186,-194
-65,27,97,10,-82,59,-29,-103,-105,-213,-174,-182
-59,27,91,10,-76,59,-29,-109,-111,-207,-174,-188
-65,27,97,10,-82,59,-29,-115,-99,-207,-174,-188
-59,33,97,4,-76,65,-23,-109,-99,-201,-162,-182
-59,21,85,10,-70,53,-35,-121,-99,-213,-168,-194
-59,27,91,10,-76,59,-35,-127,-93,-219,-174,-188
-77,27,109,16,-94,65,-41,-127,-99,-219,-174,-194
-83,27,115,22,-100,71,-41,-139,-111,-231,-186,-194
-83,33,121,16,-100,77,-35,-133,-111,-225,-186,-200
-65,45,115,4,-88,77,-29,-127,-117,-231,-192,-206
-59,39,103,4,-82,71,-35,-121,-117,-225,-192,-212
-65,27,97,10,-82,59,-29,-121,-123,-231,-192,-212
-77,21,103,22,-88,59,-29,-133,-105,-225,-192,-200
-71,27,103,16,-88,65,-29,-133,-105,-237,-192,-194
-77,27,109,16,-94,65,-29,-127,-117,-231,-198,-206
-83,33,121,16,-100,77,-29,-127,-117,-237,-204,-212
-65,39,109,4,-88,71,-41,-139,-111,-249,-198,-200
-71,45,121,4,-94,83,-29,-115,-105,-243,-186,-188
-77,39,121,10,-100,77,-17,-115,-99,-231,-186,-194
-59,33,97,4,-76,65,-17,-115,-105,-231,-186,-194
-59,33,97,4,-76,65,-11,-109,-105,-225,-180,-194
-35,51,91,-1,-64,71,-6,-109,-105,-219,-186,-188
-41,45,91,4,-64,65,-6,-103,-93,-219,-174,-188
-95,-3,91,46,-94,41,-29,-133,-117,-249,-198,-200
-113,-14,91,64,-106,29,-29,-139,-123,-255,-204,-206
-71,15,91,22,-82,53,-29,-145,-123,-249,-198,-206
-83,21,109,22,-94,65,-17,-139,-117,-249,-192,-200
-83,15,103,28,-94,59,-29,-145,-129,-261,-204,-212
-71,15,91,22,-82,53,-29,-145,-135,-255,-216,-224
-83,9,97,28,-88,53,-17,-139,-129,-249,-204,-212
-83,9,97,28,-88,53,-6,-133,-135,-243,-198,-212
-71,3,79,28,-76,41,-6,-139,-135,-243,-204,-212
-77,9,91,28,-82,47,-6,-139,-123,-237,-198,-212
-65,33,103,10,-82,65,-6,-139,-123,-243,-186,-200
-59,39,103,4,-82,71,-6,-133,-123,-237,-186,-200
-65,33,103,10,-82,65,-6,-127,-117,-237,-192,-200
-71,39,115,10,-94,77,-6,-121,-111,-225,-180,-200
-71,39,115,10,-94,77,-6,-121,-111,-231,-180,-188
-71,39,115,10,-94,77,-6,-127,-105,-219,-180,-194
-59,51,115,4,-88,83,0,-127,-93,-219,-180,-194
-53,63,121,4,-88,89,6,-121,-93,-219,-168,-176
-41,63,109,-1,-76,83,6,-127,-99,-219,-174,-176
-41,63,109,-1,-76,83,6,-133,-99,-219,-174,-182
-47,63,115,-1,-82,89,12,-133,-105,-225,-168,-182
-59,51,115,4,-88,83,6,-139,-117,-231,-180,-194
-59,33,97,4,-76,65,-6,-145,-111,-243,-192,-200
-59,33,97,4,-76,65,0,-139,-105,-243,-180,-194
-59,45,109,4,-82,77,6,-133,-105,-237,-174,-182
-59,57,121,4,-88,89,6,-139,-99,-231,-180,-194
-47,69,121,-1,-82,95,12,-133,-81,-225,-162,-176
-35,93,133,-19,-82,113,6,-133,-63,-213,-138,-158
-11,111,127,-43,-70,119,-6,-145,-57,-207,-132,-152
-6,111,121,-43,-64,113,-6,-151,-57,-207,-138,-152
-6,105,115,-43,-58,107,-17,-169,-69,-231,-144,-152
-6,111,115,-49,-58,113,-35,-187,-69,-243,-150,-152
-6,105,103,-49,-46,107,-47,-199,-75,-249,-150,-152
-6,99,97,-43,-46,101,-59,-211,-87,-267,-156,-158
-6,99,97,-43,-46,101,-59,-211,-99,-273,-162,-164
-6,81,85,-31,-40,83,-59,-211,-105,-279,-180,-176
-6,81,91,-31,-46,83,-47,-211,-99,-279,-168,-176
-6,87,85,-37,-40,89,-41,-205,-99,-273,-162,-170
-6,69,79,-25,-40,71,-47,-211,-99,-273,-168,-170
-17,57,79,-13,-46,65,-41,-211,-93,-273,-174,-176
-6,63,67,-25,-34,65,-41,-217,-105,-285,-180,-188
-29,69,103,-13,-64,83,-23,-205,-99,-273,-174,-176
-41,51,97,4,-70,71,-23,-205,-87,-267,-174,-170
-41,45,91,4,-64,65,-17,-205,-93,-267,-180,-170
-53,45,103,4,-76,71,-11,-205,-105,-279,-180,-176
-71,15,91,22,-82,53,-6,-199,-105,-267,-180,-170
-71,9,85,22,-76,47,-6,-193,-93,-261,-180,-176
-71,-3,73,28,-70,35,0,-187,-99,-267,-186,-200
-65,-20,37,40,-52,-1,18,-175,-93,-267,-186,-200
-71,-38,25,52,-52,-1,18,-175,-93,-255,-186,-200
-77,-50,19,64,-52,-12,30,-169,-93,-255,-186,-200
-77,-56,13,64,-46,-18,30,-175,-93,-261,-192,-206
-65,-50,7,58,-40,-18,30,-181,-87,-261,-192,-206
-53,-32,13,40,-34,-6,36,-169,-81,-255,-186,-200
-77,-38,31,58,-58,-1,30,-175,-93,-267,-192,-200
-113,-92,13,100,-64,-36,12,-193,-117,-279,-216,-218
-119,-104,7,112,-64,-42,12,-193,-111,-279,-210,-218
-95,-74,13,82,-58,-24,30,-187,-105,-267,-204,-212
-101,-86,7,94,-58,-36,30,-181,-105,-267,-198,-206
-101,-104,1,100,-46,-54,24,-193,-105,-273,-204,-212
-95,-104,-4,100,-40,-54,36,-187,-93,-261,-192,-206
-95,-104,-4,100,-40,-54,36,-181,-87,-255,-192,-194
-101,-104,1,100,-46,-54,36,-181,-93,-261,-198,-200
-107,-104,1,106,-52,-48,42,-175,-93,-255,-192,-194
-107,-104,1,106,-52,-48,48,-169,-93,-255,-186,-194
-101,-110,-4,106,-46,-60,54,-169,-87,-255,-192,-194
-89,-110,-16,100,-34,-66,54,-163,-81,-249,-192,-194
-95,-116,-16,106,-34,-66,72,-157,-81,-249,-186,-200
-113,-134,-16,124,-46,-78,78,-157,-81,-249,-186,-200
-107,-140,-28,124,-34,-84,72,-163,-75,-249,-186,-200
-107,-134,-22,118,-40,-78,78,-169,-87,-249,-186,-212
-101,-140,-34,118,-28,-90,72,-169,-93,-249,-198,-206
-113,-140,-22,124,-40,-84,72,-169,-81,-249,-186,-194
-113,-128,-10,118,-46,-72,78,-169,-87,-249,-186,-200
-119,-134,-10,124,-52,-72,96,-151,-75,-237,-174,-188
-119,-134,-10,124,-52,-72,96,-151,-75,-231,-174,-188
-113,-140,-22,124,-40,-84,90,-157,-75,-237,-180,-194
-113,-146,-28,130,-40,-90,108,-157,-81,-231,-180,-200
-101,-146,-40,124,-28,-96,114,-151,-75,-225,-174,-194
-113,-158,-40,136,-34,-102,108,-145,-69,-225,-174,-200
-119,-164,-40,142,-34,-102,120,-139,-69,-219,-168,-194
-113,-170,-52,142,-28,-114,126,-133,-75,-219,-174,-200
-101,-188,-82,142,-5,-138,132,-115,-75,-207,-174,-200
-83,-212,-124,148,13,-168,150,-79,-81,-195,-180,-212
-71,-242,-172,160,43,-210,204,-8,-57,-135,-168,-200
-47,-278,-232,166,85,-252,246,52,-33,-75,-180,-218
-23,-296,-268,160,115,-282,300,142,-4,-4,-162,-212
-6,-266,-262,136,127,-264,372,232,44,80,-138,-200
0,-248,-256,118,127,-252,438,310,110,176,-96,-170
42,-212,-256,76,151,-234,480,406,242,302,-1,-92
108,-128,-238,4,175,-186,522,490,434,452,179,27
168,-56,-232,-49,199,-144,516,550,656,608,395,225
234,27,-208,-133,223,-84,480,568,896,728,653,453
366,159,-208,-259,283,-18,468,622,1196,908,983,735
528,315,-214,-421,373,47,480,730,1604,1178,1391,1089
678,441,-238,-553,457,101,480,808,2012,1430,1793,1443
762,531,-232,-649,493,149,444,820,2347,1592,2152,1737
798,651,-148,-727,475,245,336,706,2550,1598,2410,1959
756,819,55,-787,349,443,84,298,2508,1304,2463,2048
606,1023,415,-811,91,725,-197,-223,2287,860,2320,1953
348,1137,781,-739,-214,965,-449,-763,1820,284,1943,1671
162,1107,943,-631,-388,1025,-641,-1177,1274,-219,1469,1323
60,945,877,-499,-406,911,-731,-1375,806,-549,1025,981
-77,729,805,-319,-442,761,-785,-1597,86,-1023,365,507
-311,525,841,-103,-574,683,-893,-1933,-1059,-1773,-648,-212
-503,339,847,76,-676,593,-929,-2095,-1911,-2283,-1410,-806
-605,201,805,202,-706,497,-881,-2053,-2145,-2391,-1644,-1040
-671,93,763,280,-718,431,-815,-1975,-2205,-2409,-1704,-1148
-677,9,691,328,-682,347,-761,-1873,-2139,-2337,-1674,-1184
-659,-32,619,346,-640,287,-707,-1717,-1965,-2163,-1566,-1148
-647,-86,553,364,-604,233,-647,-1573,-1755,-1965,-1428,-1076
-581,-146,433,364,-508,137,-581,-1375,-1539,-1737,-1260,-980
-509,-206,301,358,-412,41,-521,-1195,-1347,-1533,-1116,-884
-461,-242,211,352,-334,-12,-455,-1051,-1173,-1353,-978,-788
-389,-254,127,322,-256,-60,-413,-949,-999,-1197,-846,-704
-311,-236,73,268,-196,-78,-389,-883,-873,-1077,-738,-620
-245,-194,43,220,-148,-72,-359,-811,-777,-981,-666,-554
-221,-188,25,202,-124,-78,-269,-703,-657,-843,-570,-494
-203,-194,1,196,-106,-90,-191,-589,-549,-723,-492,-446
-179,-170,1,172,-94,-78,-119,-499,-447,-603,-414,-386
-155,-140,7,148,-82,-60,-71,-433,-357,-495,-348,-344
-143,-122,13,130,-82,-48,-17,-373,-267,-417,-276,-284
-119,-122,1,118,-58,-60,6,-313,-219,-351,-240,-248
-107,-116,-4,112,-46,-60,48,-259,-171,-291,-210,-224
-101,-116,-10,106,-40,-66,84,-223,-123,-249,-174,-194
-95,-128,-28,112,-28,-78,120,-181,-93,-225,-156,-182
-107,-164,-52,136,-22,-108,156,-127,-57,-171,-138,-164
-89,-164,-70,124,-5,-120,174,-103,-33,-135,-114,-158
-71,-176,-100,124,7,-138,210,-61,-4,-99,-84,-134
-29,-146,-112,88,31,-132,222,-43,20,-69,-72,-110
-23,-140,-112,82,37,-126,222,-43,38,-51,-60,-116
-59,-182,-118,118,19,-150,204,-49,50,-57,-60,-116
-95,-206,-106,148,-5,-156,198,-55,44,-57,-60,-110
-65,-176,-106,118,13,-144,198,-37,50,-45,-54,-110
-59,-164,-100,112,13,-132,216,-25,80,-33,-36,-86
-65,-170,-100,118,7,-138,228,-19,80,-27,-30,-80
-53,-170,-112,112,19,-144,228,-8,86,-15,-36,-92
-47,-170,-118,106,25,-144,234,-8,98,-10,-24,-92
-35,-176,-136,106,43,-156,240,-2,116,-4,-18,-68
-29,-176,-142,100,49,-162,246,4,122,8,-12,-62
-17,-182,-160,100,61,-174,246,16,128,26,-7,-50
-11,-170,-154,88,61,-162,246,10,140,26,5,-38
-17,-170,-148,94,55,-162,252,16,152,32,11,-32
-23,-158,-130,88,43,-144,246,16,152,38,17,-32
-17,-152,-130,82,49,-144,240,4,158,32,23,-26
-17,-158,-136,88,49,-150,258,16,164,44,35,-14
-11,-152,-136,82,55,-144,258,28,164,44,23,-26
-11,-152,-136,82,55,-144,264,34,170,56,35,-20
-11,-158,-142,82,55,-150,270,46,188,68,41,-9
-6,-152,-148,76,67,-150,270,52,188,80,53,-9
-6,-146,-148,70,67,-144,264,58,194,86,53,-9
-6,-140,-136,70,61,-138,270,58,212,98,71,9
-6,-140,-136,70,61,-138,276,64,212,104,83,21
-6,-134,-136,64,61,-132,270,58,206,104,83,15
0,-128,-136,58,67,-132,270,58,218,92,89,21
-6,-134,-130,64,55,-132,270,58,212,92,83,27
-6,-140,-130,70,55,-138,276,70,212,110,83,39
0,-122,-130,52,61,-126,282,88,218,122,101,45
0,-134,-142,58,67,-138,288,100,230,128,119,51
0,-146,-154,64,73,-150,288,100,230,146,113,51
18,-134,-160,52,85,-144,294,112,242,164,119,63
30,-122,-160,40,91,-138,294,106,260,170,143,81
48,-110,-166,22,103,-138,294,112,272,176,149,87
66,-80,-154,4,109,-114,294,124,272,188,155,87
72,-62,-142,4,103,-102,288,124,278,188,167,99
42,-86,-136,16,85,-108,300,136,284,200,179,105
0,-128,-136,58,67,-132,294,136,278,200,155,93
18,-122,-148,46,79,-132,300,154,290,218,173,99
48,-110,-166,22,103,-138,324,178,314,242,203,129
54,-98,-160,16,103,-126,330,190,332,254,221,141
60,-98,-166,10,109,-132,318,184,344,272,233,141
72,-92,-172,4,121,-132,324,190,362,284,251,159
60,-86,-154,4,103,-120,330,208,380,296,263,177
66,-80,-154,4,109,-114,336,208,392,302,263,183
72,-74,-154,4,109,-114,330,208,398,308,275,189
72,-68,-148,4,109,-108,336,232,428,332,299,207
84,-68,-160,-1,121,-114,342,244,440,350,299,219
102,-62,-172,-13,133,-114,354,262,458,368,323,225
90,-62,-160,-7,121,-108,366,280,476,392,347,237
108,-62,-178,-13,139,-120,372,286,482,410,353,243
132,-62,-202,-25,163,-132,366,292,500,422,365,243
138,-50,-196,-37,163,-120,372,304,536,446,395,279
126,-44,-178,-31,151,-108,378,316,554,470,419,291
126,-38,-172,-37,145,-102,372,322,572,476,425,297
132,-38,-178,-37,151,-108,384,328,602,500,449,321
138,-32,-178,-43,157,-102,396,346,614,518,473,327
144,-14,-166,-55,151,-90,396,370,632,542,479,351
162,-3,-172,-73,163,-84,408,382,662,560,509,369
186,-3,-190,-85,187,-90,426,412,692,596,533,393
192,-3,-196,-91,193,-96,438,430,716,620,557,417
180,-8,-196,-79,187,-102,426,430,728,632,575,429
186,-3,-190,-85,187,-90,426,424,758,644,593,441
210,15,-190,-109,199,-78,438,448,794,674,623,477
222,33,-184,-127,205,-66,432,460,818,686,641,489
222,45,-172,-133,199,-54,426,466,842,692,665,507
234,45,-184,-139,211,-60,438,478,860,716,689,525
234,45,-184,-139,211,-60,438,490,872,728,701,537
240,57,-184,-151,217,-54,450,496,896,746,725,549
246,57,-190,-151,223,-60,468,526,926,776,755,579
252,51,-202,-151,229,-66,468,538,950,788,767,597
276,57,-220,-169,247,-72,462,532,962,800,779,597
276,63,-214,-169,241,-66,468,532,986,818,797,627
276,75,-202,-175,235,-54,462,532,998,818,809,627
276,93,-184,-187,235,-36,456,544,1010,824,821,639
276,99,-178,-187,229,-30,456,544,1022,830,839,651
282,105,-178,-193,235,-30,462,550,1028,836,851,663
306,129,-178,-217,241,-18,468,568,1040,860,863,687
324,141,-184,-235,253,-12,480,568,1046,854,875,699
306,105,-202,-205,253,-42,468,556,1040,842,869,693
282,81,-202,-181,241,-54,450,544,1028,830,869,687
288,99,-190,-193,235,-36,438,538,1028,836,869,687
294,117,-178,-205,235,-24,444,532,1034,836,869,699
294,117,-178,-205,235,-24,438,514,1022,818,857,699
294,141,-154,-217,229,-1,426,496,1010,800,845,693
288,159,-130,-223,211,11,414,478,980,764,821,681
288,165,-124,-229,211,17,414,466,956,740,791,663
258,153,-106,-205,187,17,408,448,914,716,761,639
234,135,-94,-181,163,17,402,418,878,686,737,615
234,135,-94,-181,163,17,396,400,836,644,701,585
228,123,-100,-175,163,5,396,376,794,614,659,555
198,99,-94,-145,145,-1,378,346,746,572,611,513
192,105,-82,-145,139,5,354,304,698,518,569,483
180,93,-82,-133,133,-1,348,274,644,482,527,459
162,81,-76,-121,121,-1,336,238,578,434,479,417
138,87,-46,-109,91,17,318,214,530,380,437,375
120,81,-34,-97,79,17,312,190,476,332,389,333
108,57,-46,-79,79,-1,306,172,428,290,335,297
96,45,-46,-67,73,-1,288,142,380,248,287,261
72,27,-40,-49,55,-1,294,136,350,230,263,237
54,9,-40,-31,49,-6,288,106,302,194,227,207
42,3,-34,-19,37,-6,276,76,266,164,191,177
30,-3,-34,-7,31,-12,258,52,230,116,149,147
6,-8,-22,4,13,-12,240,22,182,74,113,111
0,-8,-16,4,7,-12,234,-2,146,50,83,81
-6,-8,-4,4,-5,-6,234,-8,122,26,65,69
-11,-14,1,10,-5,-6,222,-13,92,-10,35,39
-17,-20,1,16,-5,-12,228,-25,62,-15,-7,9
-23,-32,-4,28,-5,-18,216,-49,38,-39,-18,-9
-35,-56,-16,46,-5,-36,222,-43,14,-51,-30,-14
-41,-56,-10,46,-10,-36,222,-55,2,-63,-54,-38
-47,-56,-4,52,-16,-30,210,-67,-10,-75,-72,-50
-47,-56,-4,52,-16,-30,198,-85,-15,-99,-84,-62
-47,-50,1,46,-22,-24,198,-85,-21,-105,-84,-62
-47,-38,1,40,-28,-12,198,-85,-39,-117,-102,-74
-71,-44,19,58,-46,-6,192,-109,-57,-135,-120,-80
-77,-44,25,58,-52,-6,192,-109,-57,-147,-120,-80
-65,-38,19,52,-46,-6,186,-109,-75,-159,-138,-116
-53,-26,19,40,-40,-1,180,-109,-81,-159,-138,-116
-59,-26,25,40,-46,-1,186,-109,-87,-165,-132,-116
-77,-50,19,64,-52,-12,186,-121,-93,-171,-150,-134
-101,-80,13,88,-58,-30,168,-127,-99,-183,-168,-158
-83,-56,19,70,-52,-12,174,-127,-93,-177,-168,-146
-77,-44,25,58,-52,-6,174,-133,-99,-183,-168,-146
-89,-38,43,64,-70,-1,156,-139,-111,-201,-180,-170
-107,-38,61,70,-88,5,156,-145,-111,-207,-174,-170
-101,-26,67,64,-88,11,162,-145,-117,-207,-186,-164
-77,-14,55,46,-70,11,168,-133,-123,-207,-192,-176
-89,-32,49,58,-70,-1,168,-133,-123,-207,-186,-176
-107,-44,55,76,-82,-1,168,-133,-123,-213,-198,-182
-83,-26,49,52,-70,5,168,-133,-123,-201,-192,-176
-89,-26,55,58,-76,5,162,-127,-123,-195,-186,-182
-95,-26,61,58,-82,11,162,-133,-129,-201,-186,-182
-83,-20,55,52,-70,11,168,-133,-129,-201,-186,-176
-77,-8,61,40,-70,17,156,-133,-135,-207,-198,-182
-95,-8,79,52,-88,29,150,-139,-141,-219,-204,-188
-107,-14,85,58,-100,29,156,-139,-147,-219,-198,-188
-101,-14,79,58,-94,23,156,-139,-159,-219,-210,-200
-101,-8,85,52,-94,29,156,-127,-153,-213,-198,-200
-95,-8,79,52,-88,29,168,-121,-141,-207,-198,-200
-83,-3,73,40,-82,29,168,-127,-147,-201,-198,-200
-77,-3,67,40,-76,23,162,-115,-147,-195,-198,-200
-83,-3,73,40,-82,29,156,-121,-141,-195,-192,-194
-101,-26,67,64,-88,11,144,-121,-159,-207,-210,-206
-101,-8,85,52,-94,29,144,-121,-159,-207,-198,-200
-95,3,103,40,-100,53,144,-121,-153,-207,-204,-212
-89,9,103,34,-94,53,156,-115,-159,-207,-204,-200
-83,9,97,28,-88,53,156,-115,-189,-207,-204,-206
-83,9,97,28,-88,53,150,-109,-213,-195,-210,-212
-83,15,103,28,-94,59,162,-103,-219,-189,-204,-206
-83,15,103,28,-94,59,162,-97,-231,-189,-198,-200
-77,15,97,22,-88,53,150,-97,-237,-183,-192,-200
-65,21,91,16,-76,53,144,-103,-243,-183,-192,-194
-71,27,103,16,-88,65,144,-103,-249,-189,-204,-194
-77,33,115,16,-94,71,138,-103,-249,-195,-204,-194
-77,27,109,16,-94,65,138,-103,-261,-201,-198,-194
-77,39,121,10,-100,77,132,-115,-273,-201,-198,-200
-77,39,121,10,-100,77,132,-103,-273,-201,-198,-200
-71,39,115,10,-94,77,132,-103,-267,-189,-198,-200
-59,57,121,4,-88,89,144,-85,-267,-183,-192,-200
-47,63,115,-1,-82,89,150,-79,-267,-177,-192,-188
-71,33,109,10,-88,71,138,-85,-279,-183,-198,-206
-89,15,109,28,-100,59,120,-109,-291,-195,-216,-212
-71,33,109,10,-88,71,120,-97,-297,-189,-216,-200
-65,45,115,4,-88,77,120,-103,-297,-189,-210,-188
-71,51,127,4,-100,89,120,-103,-291,-195,-210,-182
-71,51,127,4,-100,89,126,-97,-291,-195,-204,-176
-65,51,121,4,-94,83,138,-85,-291,-195,-198,-170
-65,39,109,4,-88,71,120,-91,-297,-195,-198,-182
-89,21,115,28,-100,65,120,-97,-309,-201,-216,-188
-89,27,121,22,-106,71,126,-97,-309,-195,-210,-188
-77,39,121,10,-100,77,126,-85,-303,-183,-198,-188
-59,57,121,4,-88,89,132,-85,-285,-177,-186,-170
-65,57,127,4,-94,89,120,-97,-303,-189,-204,-188
-59,63,127,4,-94,95,108,-97,-303,-189,-210,-182
-59,57,121,4,-88,89,96,-103,-315,-201,-222,-200
-71,57,133,4,-100,95,102,-103,-321,-207,-228,-194
-83,63,151,4,-118,107,108,-103,-333,-207,-222,-194
-65,57,127,4,-94,89,96,-115,-339,-213,-234,-206
-77,51,133,4,-106,89,108,-91,-327,-207,-228,-194
-71,51,127,4,-100,89,108,-97,-327,-207,-222,-194
-65,45,115,4,-88,77,102,-97,-327,-195,-210,-200
-65,45,115,4,-88,77,102,-97,-321,-207,-222,-200
-65,57,127,4,-94,89,90,-103,-339,-213,-228,-206
-65,51,121,4,-94,83,90,-103,-339,-213,-222,-206
-83,57,145,4,-112,101,90,-103,-333,-213,-222,-206
-77,57,139,4,-106,95,84,-109,-339,-225,-234,-212
-77,51,133,4,-106,89,90,-97,-345,-213,-228,-212
-77,39,121,10,-100,77,90,-109,-351,-219,-240,-212
-71,45,121,4,-94,83,102,-97,-345,-213,-240,-212
-59,57,121,4,-88,89,90,-97,-351,-219,-234,-212
-59,45,109,4,-82,77,84,-97,-351,-213,-228,-212
-59,39,103,4,-82,71,78,-103,-351,-225,-240,-212
-59,39,103,4,-82,71,72,-109,-357,-225,-246,-218
-65,45,115,4,-88,77,72,-109,-357,-231,-246,-218
-71,45,121,4,-94,83,78,-97,-357,-219,-234,-212
-77,39,121,10,-100,77,72,-97,-369,-231,-246,-212
-77,45,127,10,-100,83,78,-91,-369,-219,-240,-218
-53,63,121,4,-88,89,72,-85,-369,-219,-246,-218
-59,57,121,4,-88,89,90,-73,-363,-219,-240,-212
-71,27,103,16,-88,65,90,-73,-363,-219,-240,-212
-89,3,97,34,-94,47,84,-85,-363,-207,-234,-224
-59,33,97,4,-76,65,78,-79,-357,-213,-234,-212
-59,51,115,4,-88,83,78,-79,-363,-213,-234,-212
-65,45,115,4,-88,77,84,-73,-357,-201,-234,-206
-71,63,139,4,-106,101,78,-73,-357,-195,-234,-212
-59,75,139,-1,-100,107,84,-73,-363,-207,-234,-206
-59,81,145,-1,-100,113,84,-61,-363,-195,-222,-200
-71,69,145,4,-106,107,78,-61,-357,-201,-228,-206
-47,87,139,-13,-94,113,90,-49,-345,-189,-216,-188
-35,99,139,-25,-88,119,96,-49,-339,-183,-216,-182
-35,87,127,-19,-82,107,78,-55,-345,-183,-210,-176
-53,57,115,4,-82,83,66,-67,-351,-195,-222,-182
-59,69,133,4,-94,101,72,-61,-357,-195,-222,-182
-53,75,133,-1,-94,101,72,-61,-351,-195,-216,-182
-53,63,121,4,-88,89,60,-73,-369,-207,-222,-200
-47,63,115,-1,-82,89,66,-61,-369,-207,-228,-194
-53,69,127,-1,-88,95,72,-55,-357,-195,-222,-194
-47,81,133,-7,-88,107,72,-55,-345,-189,-204,-188
-35,99,139,-25,-88,119,66,-55,-333,-183,-198,-176
-6,123,133,-49,-70,125,48,-55,-327,-183,-186,-170
0,147,139,-73,-64,143,36,-55,-315,-171,-180,-164
6,147,133,-73,-58,143,30,-55,-309,-171,-168,-152
-6,135,133,-61,-64,137,12,-67,-321,-183,-180,-146
-6,129,127,-61,-58,131,-11,-91,-333,-207,-186,-152
-6,123,121,-55,-58,125,-29,-103,-345,-213,-192,-158
0,117,109,-55,-46,113,-29,-103,-351,-231,-204,-158
6,105,91,-55,-34,101,-29,-109,-357,-237,-210,-158
-6,93,97,-37,-46,95,-23,-103,-357,-237,-210,-164
0,105,97,-49,-40,101,-23,-103,-363,-243,-204,-164
18,105,79,-61,-22,95,-29,-97,-357,-237,-204,-170
18,105,79,-61,-22,95,-23,-103,-357,-225,-204,-170
24,117,85,-67,-22,101,-23,-103,-351,-231,-204,-164
18,117,91,-67,-28,107,-23,-109,-357,-237,-210,-164
-6,99,97,-43,-46,101,-29,-103,-363,-237,-216,-182
-35,63,103,-7,-70,83,-23,-103,-351,-237,-210,-176
-53,45,103,4,-76,71,-23,-97,-363,-243,-222,-182
-53,45,103,4,-76,71,-6,-79,-351,-225,-216,-182
-53,39,97,4,-76,65,0,-73,-357,-225,-222,-182
-59,9,73,16,-64,41,0,-73,-357,-225,-216,-182
-59,-3,55,28,-58,23,6,-55,-345,-213,-222,-188
-65,-14,43,40,-58,5,12,-55,-339,-207,-222,-188
-65,-26,31,46,-52,-1,12,-55,-345,-207,-222,-188
-65,-38,19,52,-46,-6,6,-55,-345,-207,-216,-188
-71,-44,19,58,-46,-6,0,-49,-345,-207,-216,-194
-77,-56,13,64,-46,-18,6,-55,-345,-201,-222,-194
-77,-50,19,64,-52,-12,0,-55,-351,-213,-222,-194
-71,-56,7,64,-40,-18,0,-43,-345,-207,-228,-200
-71,-56,7,64,-40,-18,12,-37,-345,-213,-234,-200
-71,-56,7,64,-40,-18,12,-31,-339,-207,-222,-194
-83,-74,1,76,-46,-30,6,-31,-339,-207,-234,-200
-83,-92,-4,88,-34,-48,-6,-43,-345,-207,-240,-206
-77,-86,-4,82,-34,-48,-6,-37,-345,-213,-234,-200
-77,-80,1,76,-34,-42,0,-37,-339,-213,-228,-200
-83,-80,1,82,-40,-36,-6,-37,-345,-207,-228,-200
-95,-86,1,88,-52,-36,-6,-43,-339,-207,-228,-194
-89,-86,1,88,-46,-42,-6,-37,-339,-213,-228,-200
-95,-98,1,94,-46,-48,-6,-31,-339,-207,-234,-206
-95,-98,1,94,-46,-48,-6,-25,-339,-201,-234,-206
-95,-104,-4,100,-40,-54,0,-13,-339,-195,-228,-206
-89,-110,-16,100,-34,-66,-6,-13,-333,-189,-234,-206
-89,-122,-28,106,-28,-78,-6,-13,-327,-189,-234,-206
-83,-116,-28,100,-22,-72,-6,-13,-327,-183,-228,-200
-89,-116,-22,100,-28,-72,-6,-13,-321,-183,-216,-194
-107,-122,-10,112,-46,-66,-6,-8,-327,-183,-216,-188
-101,-128,-22,112,-34,-78,-6,-8,-327,-183,-228,-188
-95,-128,-28,112,-28,-78,-6,-8,-333,-189,-222,-194
-89,-116,-22,100,-28,-72,0,-8,-327,-183,-216,-200
-95,-122,-22,106,-34,-72,-6,-8,-333,-183,-222,-200
-107,-152,-40,130,-28,-96,-6,-8,-327,-183,-222,-194
-95,-152,-52,124,-16,-102,0,10,-309,-165,-216,-194
-89,-140,-46,112,-16,-96,6,4,-309,-165,-216,-194
-101,-152,-46,124,-22,-102,0,-2,-315,-165,-216,-194
-95,-152,-52,124,-16,-102,0,4,-309,-159,-210,-194
-89,-152,-58,118,-10,-108,0,16,-309,-153,-216,-206
-89,-176,-82,130,-5,-132,18,40,-315,-147,-222,-194
-71,-200,-124,136,19,-162,30,82,-321,-129,-228,-200
-59,-242,-184,154,55,-216,90,172,-291,-63,-228,-200
-23,-260,-238,142,97,-246,144,250,-261,2,-216,-200
0,-254,-262,124,133,-258,198,346,-219,80,-198,-188
6,-242,-256,112,133,-246,270,454,-153,176,-168,-176
30,-206,-238,82,133,-222,330,544,-69,290,-102,-128
78,-146,-232,28,151,-186,372,640,62,416,11,-32
120,-104,-232,-1,175,-168,402,718,248,560,179,81
186,-32,-226,-67,205,-126,396,778,476,716,395,255
318,111,-208,-217,259,-42,372,820,758,872,689,513
456,261,-190,-355,319,35,366,892,1082,1070,1031,819
594,387,-208,-487,403,89,366,994,1484,1346,1439,1155
738,525,-214,-631,481,155,318,1030,1880,1568,1835,1503
864,651,-214,-751,535,221,252,994,2197,1694,2188,1821
894,759,-130,-823,511,311,96,784,2359,1604,2404,2025
822,915,85,-865,367,497,-197,322,2305,1280,2445,2108
684,1131,445,-907,115,785,-467,-169,2107,860,2332,2037
426,1239,811,-829,-190,1025,-737,-739,1604,254,1937,1743
204,1197,985,-697,-388,1091,-929,-1171,1022,-267,1439,1377
84,1005,919,-541,-412,965,-989,-1351,536,-597,977,1023
-53,771,829,-355,-442,797,-1073,-1585,-201,-1095,293,525
-317,537,859,-103,-586,701,-1175,-1921,-1371,-1863,-732,-218
-509,327,841,88,-676,581,-1211,-2065,-2169,-2349,-1470,-794
-605,195,799,202,-706,491,-1169,-2017,-2391,-2444,-1692,-1022
-659,99,757,274,-712,431,-1145,-1957,-2444,-2462,-1746,-1130
-665,-3,661,328,-664,323,-1079,-1825,-2373,-2367,-1722,-1166
-635,-62,565,346,-604,245,-1019,-1651,-2169,-2169,-1602,-1124
-605,-134,469,370,-538,161,-935,-1435,-1929,-1911,-1440,-1058
-557,-200,355,376,-460,71,-845,-1225,-1707,-1671,-1272,-956
-485,-236,241,358,-364,-1,-803,-1075,-1515,-1473,-1134,-860
-413,-242,163,328,-286,-36,-773,-967,-1347,-1317,-996,-776
-353,-242,103,298,-232,-66,-713,-859,-1185,-1155,-876,-692
-287,-224,61,250,-178,-78,-647,-739,-1023,-999,-750,-596
-227,-182,37,202,-136,-66,-581,-619,-903,-855,-660,-512
-191,-164,19,178,-106,-66,-491,-505,-783,-729,-570,-458
-173,-158,7,166,-94,-72,-413,-397,-675,-591,-492,-410
-137,-134,1,136,-70,-66,-347,-313,-579,-489,-426,-344
-119,-110,1,112,-64,-48,-299,-247,-495,-399,-366,-302
-119,-104,7,112,-64,-42,-251,-187,-423,-321,-306,-260
-95,-104,-4,100,-40,-54,-203,-115,-351,-249,-246,-218
-83,-104,-16,94,-28,-60,-161,-61,-303,-195,-222,-200
-95,-122,-22,106,-34,-72,-143,-19,-273,-153,-198,-200
-95,-152,-52,124,-16,-102,-119,-2,-243,-123,-192,-182
-77,-158,-76,118,-5,-120,-95,40,-225,-81,-174,-164
-83,-170,-82,124,-5,-126,-65,70,-195,-51,-150,-158
-59,-164,-100,112,13,-132,-53,88,-171,-33,-138,-152
-23,-152,-124,88,43,-138,-41,100,-147,-10,-132,-134
-6,-140,-136,70,61,-138,-41,112,-123,2,-114,-122
-6,-134,-124,70,49,-132,-41,118,-105,14,-90,-110
-53,-164,-106,106,19,-138,-53,112,-105,8,-96,-110
-101,-206,-100,154,-5,-156,-71,94,-111,2,-108,-122
-65,-170,-100,118,7,-138,-59,106,-93,14,-96,-116
-35,-140,-100,88,25,-120,-41,136,-75,32,-72,-86
-29,-140,-106,82,31,-126,-41,148,-69,50,-78,-92
-35,-158,-118,94,31,-138,-35,154,-51,62,-60,-80
-23,-158,-130,88,43,-144,-35,166,-39,68,-54,-68
-11,-158,-142,82,55,-150,-35,172,-21,86,-42,-56
-6,-158,-148,82,61,-156,-35,178,-15,92,-42,-56
-6,-158,-148,82,61,-156,-41,166,-10,92,-30,-50
-11,-152,-136,82,55,-144,-47,166,-10,92,-30,-38
-11,-146,-130,76,49,-138,-41,172,2,104,-12,-38
-6,-134,-130,64,55,-132,-41,166,-4,104,-18,-44
-6,-134,-130,64,55,-132,-41,178,2,110,-7,-32
-11,-140,-124,76,49,-132,-41,190,2,122,-12,-32
-11,-158,-142,82,55,-150,-35,190,8,128,-7,-26
-6,-158,-154,76,67,-156,-23,214,32,140,-1,-14
6,-152,-166,64,85,-156,-29,214,44,152,11,-9
18,-140,-166,52,91,-150,-29,208,50,164,11,-9
12,-134,-154,52,79,-144,-23,208,56,176,23,-3
12,-128,-148,52,79,-138,-35,214,56,170,23,-3
12,-122,-142,46,73,-132,-41,208,56,176,29,9
24,-110,-142,34,79,-126,-35,220,68,182,35,15
12,-122,-142,46,73,-132,-35,232,80,188,53,33
6,-122,-136,52,67,-126,-41,232,74,194,53,27
18,-122,-148,46,79,-132,-35,232,86,200,59,33
30,-122,-160,40,91,-138,-17,244,104,212,71,39
36,-122,-166,34,97,-144,-23,250,116,224,83,45
42,-110,-160,28,97,-132,-29,256,128,236,89,45
48,-110,-166,22,103,-138,-23,250,146,236,95,57
24,-122,-154,40,85,-138,-29,262,152,242,95,57
24,-110,-142,34,79,-126,-41,256,158,248,101,63
36,-98,-142,22,85,-120,-41,256,164,254,113,69
42,-98,-148,22,91,-120,-23,274,182,266,131,87
54,-86,-148,10,97,-114,-11,298,194,290,137,105
72,-86,-166,4,115,-126,-6,304,212,314,155,111
90,-80,-178,4,133,-126,-6,310,224,320,161,105
108,-74,-190,-7,145,-132,-6,334,242,338,179,129
96,-80,-184,-1,139,-132,-6,334,254,350,191,141
60,-116,-184,22,121,-150,-17,322,254,350,191,141
72,-104,-184,10,127,-144,-23,334,266,356,197,153
90,-68,-166,-1,127,-114,-11,346,296,386,221,177
96,-74,-178,-1,133,-126,-6,358,302,392,233,183
84,-74,-166,4,121,-120,-6,364,326,404,251,195
108,-56,-172,-19,139,-114,6,394,344,434,269,213
126,-50,-184,-31,151,-114,18,406,374,464,287,225
120,-68,-196,-19,157,-132,12,418,386,476,293,231
108,-74,-190,-7,145,-132,12,430,404,494,317,237
132,-56,-196,-31,163,-126,18,442,428,518,329,249
150,-44,-202,-43,175,-120,18,454,458,536,347,267
144,-32,-184,-49,163,-108,24,466,476,542,365,285
144,-26,-178,-49,157,-102,18,466,488,554,383,291
168,-20,-196,-67,181,-108,24,478,506,584,401,309
174,-14,-196,-73,181,-102,36,502,542,602,431,333
168,-20,-196,-67,181,-108,48,526,566,644,449,345
186,-14,-208,-79,193,-108,60,532,596,662,473,363
198,-3,-208,-91,199,-102,72,556,626,686,497,387
210,-3,-214,-97,211,-102,78,580,662,722,527,411
234,3,-226,-115,229,-102,72,574,680,728,545,423
234,3,-226,-115,229,-102,72,592,704,746,569,447
234,15,-214,-121,223,-90,72,598,722,758,587,471
240,27,-214,-133,229,-84,72,604,746,782,617,477
252,45,-208,-151,235,-72,66,610,758,794,629,489
246,45,-202,-145,229,-72,84,634,800,818,665,525
258,45,-214,-151,235,-78,90,652,812,848,677,537
264,45,-220,-157,241,-78,102,664,836,866,701,561
270,39,-232,-157,247,-90,96,670,860,878,719,573
276,45,-232,-163,253,-84,102,682,884,890,731,585
312,69,-238,-193,277,-78,96,688,902,908,755,609
324,81,-238,-205,283,-72,96,694,926,920,779,633
324,93,-232,-211,277,-60,96,694,938,926,791,645
330,117,-214,-223,271,-42,96,700,962,944,815,663
348,135,-214,-235,277,-30,90,706,962,956,827,669
324,111,-214,-217,265,-42,102,706,974,950,839,681
300,69,-232,-187,265,-72,84,688,956,944,821,663
300,87,-214,-193,253,-54,90,700,974,956,839,681
330,111,-220,-223,271,-48,96,712,992,962,857,699
336,111,-226,-223,277,-48,96,700,992,962,857,711
336,123,-214,-229,271,-36,78,688,986,956,857,711
330,129,-202,-229,265,-30,60,670,980,938,857,711
330,135,-196,-235,259,-24,54,658,962,920,845,711
312,141,-172,-229,241,-6,54,634,944,908,833,699
306,147,-160,-229,235,-1,36,610,920,878,803,675
288,135,-154,-211,223,-1,30,592,896,848,791,669
288,129,-160,-211,229,-6,24,574,854,824,749,645
282,129,-154,-205,223,-6,12,538,812,782,719,621
270,117,-154,-193,217,-12,-6,508,764,740,677,591
246,111,-136,-181,193,-6,-6,478,722,704,647,561
240,111,-130,-175,187,-1,-23,448,668,656,599,525
234,111,-124,-175,181,-1,-29,406,620,608,557,489
216,99,-112,-157,163,-1,-47,370,554,554,509,459
180,81,-94,-127,139,-1,-65,334,500,512,461,429
156,63,-88,-109,121,-6,-83,292,446,464,413,381
144,63,-76,-103,109,-1,-83,274,398,422,365,345
126,45,-76,-85,103,-6,-95,256,356,380,323,315
96,9,-82,-49,91,-30,-113,226,290,326,275,267
84,3,-76,-43,79,-30,-119,190,248,290,233,231
72,-3,-70,-31,73,-30,-131,172,218,248,197,207
54,-3,-64,-19,55,-30,-137,148,164,224,155,171
42,-14,-64,-7,49,-36,-149,112,128,182,119,147
30,-8,-46,-1,37,-24,-161,88,92,152,95,129
18,-8,-34,4,25,-18,-185,64,50,110,47,99
6,-26,-40,4,19,-30,-191,34,20,74,17,63
-6,-38,-28,22,1,-36,-197,22,-10,44,-7,39
-11,-44,-28,28,1,-36,-203,10,-33,20,-24,15
-17,-56,-34,34,1,-48,-209,-2,-51,14,-42,-3
-17,-50,-28,34,-5,-42,-215,-2,-75,-10,-60,-9
-11,-38,-22,22,-5,-30,-197,-8,-81,-10,-60,-14
-6,-50,-40,28,7,-48,-209,-19,-111,-27,-90,-32
-11,-50,-34,28,1,-42,-221,-43,-117,-45,-102,-50
-41,-56,-10,46,-10,-36,-239,-37,-129,-69,-120,-68
-53,-56,1,52,-22,-30,-245,-49,-147,-75,-132,-74
-35,-26,1,28,-22,-6,-239,-55,-159,-87,-138,-86
-29,-26,1,28,-16,-12,-233,-55,-165,-93,-150,-98
-59,-62,1,58,-28,-30,-245,-67,-189,-99,-174,-110
-89,-80,1,82,-46,-36,-245,-91,-213,-123,-180,-122
-59,-62,1,58,-28,-30,-245,-79,-201,-117,-180,-116
-53,-50,1,52,-28,-24,-239,-79,-201,-117,-180,-122
-59,-50,1,52,-34,-18,-245,-85,-207,-123,-192,-134
-65,-50,7,58,-40,-18,-251,-97,-207,-135,-186,-134
-59,-44,7,52,-34,-12,-257,-97,-201,-135,-186,-128
-71,-44,19,58,-46,-6,-263,-115,-225,-147,-204,-146
-71,-50,13,58,-46,-12,-269,-115,-225,-159,-204,-158
-77,-38,31,58,-58,-1,-269,-109,-231,-159,-192,-158
-59,-26,25,40,-46,-1,-263,-97,-237,-153,-204,-158
-59,-32,19,46,-40,-1,-263,-103,-237,-159,-216,-170
-71,-38,25,52,-52,-1,-263,-103,-231,-153,-216,-176
-71,-32,31,52,-52,-1,-251,-103,-225,-159,-210,-170
-59,-20,31,40,-46,-1,-263,-109,-231,-153,-216,-176
-65,-8,49,34,-58,11,-257,-109,-237,-153,-210,-164
-59,-20,31,40,-46,-1,-275,-121,-249,-165,-210,-164
-71,-8,55,40,-64,17,-281,-121,-255,-171,-222,-164
-65,-3,55,34,-64,17,-281,-121,-255,-171,-222,-164
-77,-3,67,40,-76,23,-281,-121,-261,-171,-222,-176
-83,-3,73,40,-82,29,-281,-121,-267,-171,-228,-176
-95,-14,73,52,-88,23,-281,-121,-279,-177,-234,-182
-83,-3,73,40,-82,29,-269,-97,-261,-165,-222,-182
-47,9,61,10,-52,35,-263,-103,-261,-159,-216,-176
-47,-3,49,16,-46,23,-269,-103,-273,-153,-222,-170
-77,-3,73,34,-76,29,-263,-103,-267,-147,-222,-170
-71,3,79,28,-76,41,-269,-103,-267,-147,-210,-170
-65,3,73,22,-70,35,-275,-115,-279,-153,-222,-176
-65,-3,67,28,-64,29,-287,-115,-285,-165,-234,-188
-65,15,85,16,-76,47,-275,-109,-279,-159,-222,-188
-71,15,91,22,-82,53,-269,-103,-279,-153,-222,-182
-53,33,91,4,-70,59,-263,-109,-279,-153,-234,-194
-35,51,91,-1,-64,71,-257,-97,-273,-141,-222,-188
-53,33,91,4,-70,59,-257,-103,-279,-147,-228,-182
-101,-3,91,52,-100,35,-275,-115,-291,-153,-240,-200
-95,3,103,40,-100,53,-269,-115,-279,-153,-234,-194
-77,21,103,22,-88,59,-269,-103,-279,-153,-228,-188
-71,27,103,16,-88,65,-269,-115,-273,-153,-234,-188
-71,33,109,10,-88,71,-275,-121,-279,-153,-240,-194
-71,39,115,10,-94,77,-263,-109,-267,-159,-234,-194
-53,51,109,4,-82,77,-275,-103,-273,-153,-228,-188
-59,39,103,4,-82,71,-281,-115,-279,-153,-246,-200
-77,21,103,22,-88,59,-275,-109,-279,-153,-246,-206
-71,27,103,16,-88,65,-263,-103,-273,-147,-240,-200
-53,33,91,4,-70,59,-269,-115,-267,-147,-240,-212
-71,27,103,16,-88,65,-257,-109,-249,-141,-228,-194
-59,39,103,4,-82,71,-269,-109,-261,-153,-228,-200
-59,51,115,4,-88,83,-275,-133,-267,-159,-246,-212
-71,45,121,4,-94,83,-263,-121,-255,-141,-234,-200
-71,57,133,4,-100,95,-263,-115,-261,-147,-240,-200
-53,51,109,4,-82,77,-275,-115,-267,-153,-246,-194
-53,51,109,4,-82,77,-275,-121,-261,-153,-246,-200
-71,27,103,16,-88,65,-269,-115,-255,-159,-240,-200
-89,9,103,34,-94,53,-263,-109,-255,-159,-234,-194
-59,33,97,4,-76,65,-269,-115,-249,-147,-234,-194
-35,63,103,-7,-70,83,-275,-133,-249,-153,-240,-200
-41,57,103,-1,-70,77,-275,-121,-249,-153,-234,-200
-65,51,121,4,-94,83,-269,-133,-249,-159,-246,-200
-65,39,109,4,-88,71,-269,-133,-249,-147,-240,-200
-53,51,109,4,-82,77,-275,-133,-249,-165,-246,-206
-47,45,97,4,-70,71,-275,-133,-249,-165,-240,-200
-47,45,97,4,-70,71,-269,-139,-249,-159,-246,-206
-53,45,103,4,-76,71,-269,-127,-249,-153,-240,-206
-53,45,103,4,-76,71,-263,-127,-243,-159,-234,-200
-59,39,103,4,-82,71,-269,-127,-237,-159,-234,-200
-65,33,103,10,-82,65,-263,-133,-237,-153,-234,-200
-59,33,97,4,-76,65,-269,-133,-237,-159,-228,-200
-65,39,109,4,-88,71,-275,-139,-249,-165,-234,-200
-65,33,103,10,-82,65,-287,-145,-249,-165,-246,-206
-53,51,109,4,-82,77,-269,-133,-249,-159,-240,-206
-29,57,91,-7,-58,71,-269,-133,-249,-165,-240,-194
-41,45,91,4,-64,65,-275,-145,-249,-171,-234,-188
-77,15,97,22,-88,53,-281,-151,-261,-177,-246,-194
-77,3,85,28,-82,41,-269,-151,-255,-183,-246,-206
-47,27,79,4,-64,53,-269,-139,-243,-159,-240,-194
-59,27,91,10,-76,59,-269,-145,-249,-165,-240,-188
-65,21,91,16,-76,53,-263,-145,-249,-171,-240,-182
-71,15,91,22,-82,53,-269,-151,-255,-177,-246,-188
-71,15,91,22,-82,53,-275,-151,-255,-183,-246,-200
-59,21,85,10,-70,53,-275,-151,-261,-177,-246,-206
-65,33,103,10,-82,65,-257,-139,-255,-165,-234,-194
-59,51,115,4,-88,83,-269,-139,-255,-165,-246,-200
-41,51,97,4,-70,71,-263,-127,-249,-159,-240,-200
-35,63,103,-7,-70,83,-251,-121,-249,-147,-228,-182
-35,75,115,-13,-76,95,-245,-115,-237,-135,-216,-170
-35,87,127,-19,-82,107,-245,-121,-237,-135,-216,-170
-47,93,145,-13,-94,119,-245,-121,-243,-135,-216,-170
-47,87,139,-13,-94,113,-245,-121,-231,-129,-210,-170
-35,93,133,-19,-82,113,-257,-133,-237,-135,-216,-176
-35,93,133,-19,-82,113,-251,-133,-243,-141,-222,-170
-35,75,115,-13,-76,95,-245,-121,-249,-141,-228,-176
-41,69,115,-7,-76,89,-245,-139,-255,-147,-234,-188
-41,75,121,-7,-82,95,-245,-133,-249,-141,-222,-176
-17,81,103,-25,-58,89,-239,-121,-249,-135,-216,-164
-17,81,103,-25,-58,89,-245,-127,-249,-135,-228,-170
-29,87,121,-19,-76,101,-251,-145,-255,-147,-228,-170
-29,105,139,-31,-82,119,-257,-139,-243,-135,-204,-146
-11,129,145,-49,-76,137,-269,-145,-231,-135,-198,-140
-6,147,145,-67,-70,149,-281,-151,-231,-135,-192,-134
-6,141,139,-67,-64,143,-287,-157,-225,-135,-186,-128
12,141,121,-73,-46,131,-299,-169,-231,-141,-192,-134
24,147,115,-85,-40,131,-311,-175,-237,-159,-204,-140
24,129,97,-73,-28,113,-323,-193,-249,-171,-204,-140
30,123,85,-73,-22,107,-311,-193,-249,-171,-204,-140
24,117,85,-67,-22,101,-317,-199,-249,-177,-216,-146
18,105,79,-61,-22,95,-329,-217,-273,-195,-228,-164
18,105,79,-61,-22,95,-335,-229,-273,-207,-228,-164
18,117,91,-67,-28,107,-329,-223,-261,-201,-228,-158
18,111,85,-61,-28,101,-329,-229,-261,-207,-228,-164
12,111,91,-61,-34,101,-329,-229,-267,-207,-228,-164
-6,117,115,-55,-52,119,-323,-223,-273,-213,-234,-170
-6,99,109,-37,-58,101,-311,-223,-285,-207,-246,-182
-11,81,97,-25,-52,89,-293,-199,-261,-189,-228,-170
-17,81,103,-25,-58,89,-275,-187,-249,-177,-216,-158
-17,81,103,-25,-58,89,-269,-181,-255,-177,-222,-158
-17,81,103,-25,-58,89,-257,-181,-249,-177,-228,-158
-41,51,97,4,-70,71,-263,-175,-255,-183,-222,-164
-77,-3,73,34,-76,29,-263,-187,-273,-189,-240,-182
-65,-14,43,40,-58,5,-269,-193,-267,-189,-246,-206
-41,-3,37,16,-40,11,-257,-181,-261,-183,-246,-200
-65,-8,49,34,-58,11,-245,-169,-255,-177,-246,-194
-65,-20,37,40,-52,-1,-233,-163,-249,-171,-246,-200
-59,-26,25,40,-46,-1,-233,-163,-255,-165,-246,-200
-65,-38,19,52,-46,-6,-239,-169,-261,-171,-252,-200
-77,-44,25,58,-52,-6,-233,-169,-261,-177,-258,-200
-77,-44,25,58,-52,-6,-227,-169,-255,-177,-246,-194
-71,-50,13,58,-46,-12,-233,-175,-267,-177,-246,-194
-89,-50,31,70,-64,-6,-227,-163,-261,-177,-246,-194
-77,-56,13,64,-46,-18,-233,-181,-267,-183,-258,-200
-95,-62,25,76,-64,-12,-221,-163,-261,-177,-252,-200
-89,-62,19,76,-58,-18,-227,-163,-267,-177,-252,-200
-77,-62,7,70,-46,-24,-221,-163,-261,-177,-252,-200
-89,-74,7,82,-52,-30,-215,-157,-249,-171,-246,-194
-83,-80,1,82,-40,-36,-209,-145,-249,-165,-252,-194
-71,-80,-4,76,-28,-42,-209,-151,-261,-171,-246,-194
-89,-80,1,82,-46,-36,-203,-151,-249,-159,-246,-182
-77,-80,1,76,-34,-42,-197,-145,-249,-159,-240,-182
-83,-86,1,82,-40,-42,-203,-151,-261,-171,-252,-194
-119,-110,1,112,-64,-48,-191,-145,-249,-159,-246,-188
-107,-104,1,106,-52,-48,-197,-145,-249,-159,-246,-182
-101,-110,-4,106,-46,-60,-185,-133,-249,-159,-246,-188
-113,-104,1,106,-58,-48,-179,-127,-249,-159,-246,-188
-107,-110,1,106,-52,-54,-173,-121,-243,-147,-234,-182
-83,-116,-28,100,-22,-72,-179,-115,-249,-153,-246,-182
-77,-116,-34,94,-16,-78,-167,-109,-243,-141,-246,-182
-95,-122,-22,106,-34,-72,-173,-121,-249,-153,-246,-182
-113,-140,-22,124,-40,-84,-173,-121,-249,-153,-240,-182
-101,-122,-16,112,-40,-72,-167,-121,-249,-153,-246,-182
-101,-116,-10,106,-40,-66,-155,-121,-243,-147,-246,-176
-119,-134,-10,124,-52,-72,-155,-115,-243,-147,-240,-176
-113,-146,-28,130,-40,-90,-149,-97,-249,-141,-246,-188
-101,-140,-34,118,-28,-90,-131,-91,-237,-129,-246,-188
-65,-140,-70,100,-5,-108,-119,-73,-249,-123,-246,-200
-59,-176,-112,118,19,-144,-101,-25,-243,-99,-246,-194
-65,-230,-160,148,37,-198,-53,28,-243,-51,-252,-200
-53,-272,-220,166,73,-246,-6,106,-219,-4,-246,-206
-6,-266,-256,136,121,-264,36,208,-177,74,-234,-194
0,-242,-244,112,121,-240,120,310,-111,170,-204,-176
6,-218,-232,100,115,-222,186,400,-51,266,-162,-164
36,-176,-220,64,127,-198,234,496,74,398,-54,-80
96,-110,-214,4,151,-162,288,598,260,554,101,39
192,-26,-226,-73,205,-126,300,688,488,722,317,213
306,81,-226,-193,265,-66,294,730,752,890,587,447
444,231,-214,-331,325,5,282,784,1064,1076,923,747
594,351,-238,-475,421,53,288,898,1466,1358,1319,1083
750,483,-262,-619,505,107,246,958,1904,1610,1751,1455
870,603,-262,-733,565,167,174,928,2239,1742,2122,1785
930,729,-196,-829,559,263,30,760,2460,1730,2392,2025
906,891,-10,-895,463,437,-215,352,2472,1460,2505,2174
774,1077,295,-925,235,689,-509,-157,2341,1070,2451,2162
522,1209,679,-865,-70,947,-779,-739,1934,500,2134,1929
276,1203,919,-733,-316,1061,-989,-1237,1340,-75,1649,1575
150,1041,889,-595,-364,971,-1073,-1471,848,-441,1193,1227
12,807,787,-409,-382,797,-1145,-1675,200,-879,581,777
-227,591,817,-181,-520,707,-1253,-2029,-957,-1665,-432,57
-461,387,847,28,-652,617,-1301,-2263,-1977,-2307,-1356,-644
-581,225,805,178,-694,509,-1283,-2257,-2337,-2486,-1686,-956
-653,141,793,250,-724,467,-1235,-2179,-2403,-2498,-1740,-1058
-713,9,727,346,-718,365,-1205,-2071,-2379,-2444,-1764,-1136
-701,-92,601,394,-652,245,-1139,-1903,-2211,-2265,-1674,-1136
-647,-152,487,400,-568,167,-1031,-1675,-1977,-2001,-1512,-1070
-599,-224,373,412,-490,71,-941,-1441,-1725,-1737,-1344,-980
-515,-254,253,388,-388,-1,-881,-1267,-1527,-1527,-1194,-878
-431,-248,175,340,-304,-36,-827,-1141,-1353,-1341,-1062,-782
-371,-242,121,304,-244,-60,-779,-1033,-1191,-1185,-942,-710
-305,-242,61,268,-190,-84,-719,-913,-1017,-1029,-798,-608
-245,-200,37,220,-142,-78,-641,-793,-885,-885,-696,-512
-203,-164,31,184,-118,-60,-557,-685,-765,-747,-612,-464
-185,-158,19,172,-106,-66,-467,-553,-651,-609,-516,-404
-179,-146,25,160,-106,-54,-389,-457,-561,-501,-456,-356
-155,-128,19,142,-88,-48,-317,-379,-483,-399,-396,-314
-131,-116,7,124,-70,-48,-257,-295,-393,-303,-336,-266
-83,-104,-16,94,-28,-60,-197,-223,-321,-219,-270,-218
-59,-98,-34,76,-10,-66,-149,-157,-261,-147,-234,-182
-83,-128,-40,106,-16,-84,-131,-127,-243,-111,-228,-182
-113,-170,-52,142,-28,-114,-113,-109,-225,-99,-216,-176
-101,-164,-58,130,-16,-114,-83,-73,-207,-69,-198,-164
-71,-146,-70,106,-5,-108,-65,-37,-177,-33,-180,-146
-47,-152,-100,100,19,-126,-47,-25,-153,-15,-162,-140
-53,-158,-100,106,13,-132,-35,-13,-135,-10,-156,-134
-53,-158,-100,106,13,-132,-23,-8,-123,14,-156,-128
-35,-158,-118,94,31,-138,-17,4,-99,26,-138,-116
-41,-158,-112,100,25,-138,-11,10,-93,26,-120,-104
-35,-158,-118,94,31,-138,-6,22,-75,44,-120,-98
-35,-152,-112,94,31,-132,-11,16,-69,50,-114,-92
-41,-140,-94,88,19,-120,-6,28,-39,62,-96,-80
-35,-140,-100,88,25,-120,-6,40,-45,68,-96,-74
-23,-140,-112,82,37,-126,-6,40,-33,80,-96,-80
-29,-140,-106,82,31,-126,0,58,-21,86,-84,-68
-29,-146,-112,88,31,-132,24,82,-10,104,-66,-50
-6,-146,-136,76,55,-144,18,82,-10,116,-72,-62
-6,-158,-154,76,67,-156,18,82,-4,128,-60,-56
-6,-158,-154,76,67,-156,36,94,14,134,-48,-38
-6,-146,-142,70,61,-144,30,100,26,146,-36,-26
-6,-146,-142,70,61,-144,30,82,26,146,-42,-26
-6,-140,-130,70,55,-138,30,88,26,146,-36,-26
-6,-128,-124,64,55,-126,36,112,26,158,-24,-14
-6,-122,-124,58,55,-120,42,106,32,164,-24,-20
-23,-152,-124,88,43,-138,48,112,32,164,-18,-9
-17,-158,-136,88,49,-150,48,124,32,170,-7,-9
6,-146,-160,64,79,-150,48,124,38,182,-12,-9
18,-128,-154,46,85,-138,54,130,56,194,-7,-9
6,-140,-154,58,79,-144,60,148,62,206,-1,15
6,-146,-160,64,79,-150,60,142,68,212,5,9
18,-128,-154,46,85,-138,48,136,74,212,5,21
18,-116,-142,40,79,-126,60,142,86,212,29,33
12,-122,-142,46,73,-132,66,148,86,218,17,27
18,-116,-142,40,79,-126,78,160,92,230,29,33
18,-116,-142,40,79,-126,78,172,104,236,53,51
18,-122,-148,46,79,-132,90,184,110,242,59,63
36,-116,-160,34,97,-138,84,196,122,260,53,63
48,-110,-166,22,103,-138,90,196,140,272,71,75
48,-116,-172,28,109,-144,90,208,146,278,89,93
54,-104,-166,16,109,-132,96,208,158,302,95,93
66,-98,-172,10,115,-132,90,208,176,308,107,99
72,-86,-166,4,115,-126,102,220,188,308,119,117
72,-80,-160,4,115,-120,108,232,194,320,119,117
72,-74,-154,4,109,-114,108,232,200,332,119,111
42,-98,-148,22,91,-120,102,238,206,332,131,111
36,-104,-148,28,91,-126,120,262,230,356,143,135
66,-92,-166,4,115,-126,132,274,236,392,155,147
78,-86,-172,4,121,-126,132,274,248,392,173,147
84,-80,-172,4,127,-126,150,298,266,404,191,171
90,-68,-166,-1,127,-114,150,304,284,422,209,183
96,-56,-160,-13,127,-108,150,298,302,440,221,195
84,-62,-154,-1,115,-108,156,304,314,452,233,207
90,-62,-160,-7,121,-108,150,322,320,464,239,213
114,-44,-166,-25,139,-102,168,334,350,488,263,225
120,-44,-172,-31,145,-108,174,358,374,512,287,231
114,-68,-190,-13,151,-126,180,376,380,524,287,243
126,-62,-196,-25,157,-126,192,388,398,560,299,249
150,-44,-202,-43,175,-120,204,412,434,578,329,273
162,-44,-214,-49,187,-126,210,430,452,596,359,297
168,-26,-202,-61,181,-114,222,448,482,626,377,315
174,-20,-202,-67,187,-108,216,442,500,638,383,321
174,-20,-202,-67,187,-108,216,454,518,656,413,339
174,-8,-190,-73,181,-96,234,478,548,686,443,369
198,-3,-196,-97,199,-90,234,484,566,698,449,369
204,3,-196,-103,199,-90,240,508,602,722,479,387
198,-3,-196,-97,199,-90,258,538,632,746,509,411
222,-3,-220,-109,223,-102,276,556,656,782,521,429
234,9,-220,-121,229,-96,270,556,680,800,539,441
246,15,-232,-133,235,-102,276,568,710,812,575,477
252,33,-220,-145,235,-84,276,580,728,842,593,495
258,39,-220,-151,235,-84,276,586,752,848,611,513
258,45,-214,-151,235,-78,288,604,782,872,647,537
252,51,-202,-151,229,-66,282,610,800,896,665,549
276,75,-202,-175,235,-54,282,616,824,914,683,555
294,75,-220,-187,253,-66,300,634,854,926,713,579
300,81,-220,-193,259,-60,318,658,872,956,725,603
312,87,-226,-199,265,-60,318,658,884,974,737,609
318,99,-220,-211,265,-54,324,670,920,992,767,627
336,105,-232,-223,283,-54,324,682,944,1004,791,663
336,105,-232,-223,283,-54,318,670,950,1004,791,663
306,81,-226,-193,265,-66,300,658,950,1004,785,669
306,99,-208,-205,253,-48,300,658,962,1010,821,705
336,123,-214,-229,271,-36,306,676,974,1022,833,717
342,129,-214,-235,277,-36,312,676,986,1028,845,717
324,123,-202,-223,259,-30,306,664,992,1022,857,723
330,123,-208,-229,265,-36,312,670,992,1016,857,723
348,123,-226,-235,283,-42,306,664,986,1016,851,723
354,123,-232,-235,289,-48,300,640,986,1004,845,717
324,117,-208,-223,265,-36,300,634,974,998,857,723
324,117,-208,-223,265,-36,282,598,950,968,833,711
318,135,-184,-229,247,-18,270,580,926,956,809,699
306,147,-160,-229,235,-1,258,550,902,914,791,687
294,147,-148,-223,223,-1,246,526,854,884,749,663
294,141,-154,-217,229,-1,240,496,806,842,719,627
264,135,-130,-199,199,-1,234,472,764,806,683,603
246,117,-130,-181,193,-1,228,448,722,752,635,573
222,93,-124,-157,175,-6,216,406,668,710,587,531
210,87,-118,-145,163,-6,210,364,620,668,545,495
216,93,-118,-151,169,-6,192,334,560,614,503,477
210,93,-112,-151,163,-1,168,292,500,560,449,435
186,87,-94,-133,139,-1,144,244,446,506,401,381
150,69,-76,-109,115,-1,138,220,392,452,359,345
114,45,-64,-79,91,-1,126,196,338,410,305,315
102,33,-64,-67,85,-6,114,148,278,362,251,267
90,21,-64,-55,79,-12,108,130,230,326,227,237
78,15,-58,-43,67,-12,114,118,200,296,191,225
66,-3,-70,-25,67,-30,108,94,152,254,149,189
54,-3,-64,-19,55,-30,90,58,116,224,107,147
24,-20,-52,4,37,-36,84,34,86,194,83,123
18,-32,-58,4,37,-42,60,10,44,146,41,87
12,-38,-58,4,31,-48,54,-8,14,110,11,69
-6,-50,-40,28,7,-48,48,-25,-10,86,-7,45
-29,-50,-16,40,-5,-36,36,-37,-39,56,-30,21
-29,-44,-10,34,-5,-30,36,-49,-57,38,-60,9
-11,-50,-34,28,1,-42,36,-61,-81,2,-72,-9
-29,-68,-34,46,-5,-54,42,-55,-99,2,-90,-20
-35,-74,-34,52,-5,-54,42,-61,-111,-4,-108,-44
-35,-68,-28,52,-5,-48,36,-73,-111,-10,-114,-56
-47,-74,-22,58,-10,-48,30,-91,-141,-27,-138,-62
-59,-86,-22,70,-16,-54,12,-103,-165,-45,-168,-80
-71,-74,1,70,-34,-36,6,-115,-177,-63,-174,-98
-77,-80,1,76,-34,-42,6,-115,-177,-75,-168,-98
-53,-56,1,52,-22,-30,-6,-133,-207,-81,-180,-92
-65,-44,13,52,-40,-12,0,-139,-201,-87,-186,-104
-83,-62,13,70,-52,-18,0,-133,-201,-87,-192,-116
-71,-68,1,70,-34,-30,6,-139,-213,-105,-198,-128
-71,-62,1,64,-40,-24,12,-139,-213,-99,-204,-134
-65,-38,19,52,-46,-6,12,-127,-195,-87,-186,-128
-59,-44,7,52,-34,-12,12,-139,-213,-105,-198,-134
-101,-74,19,88,-64,-24,-6,-157,-237,-123,-222,-152
-101,-74,19,88,-64,-24,-6,-157,-243,-129,-228,-158
-77,-44,25,58,-52,-6,-6,-151,-231,-135,-216,-158
-77,-38,31,58,-58,-1,-6,-163,-249,-141,-228,-170
-89,-32,49,58,-70,-1,-6,-151,-237,-129,-228,-170
-95,-32,55,64,-76,5,-6,-151,-237,-123,-228,-164
-89,-38,43,64,-70,-1,-6,-163,-237,-135,-234,-176
-83,-32,43,58,-64,-1,-6,-163,-243,-135,-240,-176
-65,-14,43,40,-58,5,-6,-157,-237,-135,-228,-164
-77,-14,55,46,-70,11,-6,-157,-243,-135,-228,-158
-107,-26,73,64,-94,17,-6,-163,-249,-141,-240,-176
-101,-20,73,58,-88,17,-11,-169,-249,-135,-228,-170
-89,-8,73,46,-82,23,-17,-175,-261,-159,-240,-182
-95,-14,73,52,-88,23,-6,-181,-273,-153,-246,-182
-83,-3,85,34,-82,41,-6,-169,-267,-147,-246,-194
-77,3,85,28,-82,41,-11,-169,-273,-147,-246,-194
-89,-3,85,40,-88,35,-6,-151,-273,-141,-246,-188
-95,-3,85,46,-94,35,-6,-157,-279,-141,-246,-200
-89,-3,85,40,-88,35,-6,-139,-273,-129,-240,-188
-83,-3,79,40,-82,35,-6,-145,-273,-135,-228,-182
-83,-3,85,34,-82,41,-6,-145,-267,-135,-234,-188
-77,9,91,28,-82,47,-6,-157,-279,-141,-246,-194
-83,9,97,28,-88,53,-6,-163,-285,-147,-246,-194
-95,9,109,34,-100,59,-6,-157,-285,-147,-246,-188
-95,9,109,34,-100,59,-6,-151,-297,-147,-246,-206
-89,9,103,34,-94,53,-6,-145,-291,-141,-246,-200
-95,9,109,34,-100,59,0,-139,-291,-147,-240,-194
-95,9,109,34,-100,59,-6,-139,-291,-141,-246,-200
-77,9,91,28,-82,47,-6,-145,-291,-135,-246,-206
-71,15,91,22,-82,53,-6,-145,-291,-141,-246,-200
-71,21,97,16,-82,59,-6,-139,-285,-141,-246,-188
-71,33,109,10,-88,71,-6,-145,-285,-135,-240,-194
-71,27,103,16,-88,65,-6,-139,-279,-141,-246,-194
-77,27,109,16,-94,65,-6,-145,-285,-153,-246,-200
-77,33,115,16,-94,71,-6,-139,-285,-147,-246,-206
-83,15,103,28,-94,59,-6,-139,-285,-141,-246,-206
-95,15,115,34,-106,65,0,-133,-273,-147,-246,-200
-83,21,109,22,-94,65,-6,-133,-279,-135,-246,-200
-83,21,109,22,-94,65,0,-121,-273,-135,-246,-206
-83,15,103,28,-94,59,0,-127,-273,-147,-246,-206
-89,21,115,28,-100,65,-6,-133,-279,-147,-252,-212
-77,33,115,16,-94,71,-6,-139,-285,-141,-252,-206
-77,33,115,16,-94,71,-6,-133,-267,-147,-240,-200
-77,39,121,10,-100,77,-11,-145,-279,-159,-246,-206
-77,45,127,10,-100,83,-17,-145,-285,-159,-258,-218
-95,39,139,22,-118,89,-6,-133,-279,-153,-252,-224
-95,33,133,22,-112,83,-6,-127,-267,-147,-240,-212
-71,51,127,4,-100,89,-6,-133,-273,-141,-246,-218
-65,51,121,4,-94,83,-6,-127,-267,-147,-246,-218
-71,39,115,10,-94,77,-6,-139,-267,-159,-252,-224
-77,33,115,16,-94,71,-6,-133,-255,-141,-246,-206
-77,39,121,10,-100,77,-6,-139,-267,-147,-246,-212
-83,45,133,10,-106,89,-17,-145,-267,-165,-246,-206
-65,57,127,4,-94,89,-11,-145,-267,-171,-252,-206
-59,63,127,4,-94,95,-6,-133,-261,-153,-246,-200
-77,51,133,4,-106,89,-6,-139,-255,-153,-246,-200
-107,9,121,40,-112,65,-6,-145,-261,-171,-246,-200
-89,15,109,28,-100,59,-6,-151,-267,-171,-252,-212
-71,33,109,10,-88,71,-6,-133,-261,-159,-246,-212
-71,21,97,16,-82,59,-6,-133,-255,-153,-246,-206
-95,3,103,40,-100,53,-17,-145,-267,-171,-246,-212
-95,21,121,28,-106,71,-17,-139,-273,-177,-252,-212
-83,27,115,22,-100,71,-17,-139,-267,-171,-246,-200
-83,21,109,22,-94,65,-11,-145,-273,-177,-246,-194
-83,15,103,28,-94,59,-6,-139,-279,-171,-252,-200
-83,9,97,28,-88,53,-6,-133,-279,-171,-252,-200
-89,15,109,28,-100,59,-6,-127,-267,-171,-246,-194
-71,21,97,16,-82,59,-6,-133,-267,-165,-246,-206
-71,15,91,22,-82,53,-11,-139,-279,-171,-258,-212
-83,21,109,22,-94,65,-6,-133,-279,-171,-252,-206
-71,27,103,16,-88,65,-6,-133,-279,-171,-246,-206
-71,39,115,10,-94,77,-17,-139,-285,-171,-252,-206
-77,39,121,10,-100,77,-17,-145,-291,-189,-246,-200
-83,33,121,16,-100,77,-17,-157,-297,-201,-252,-206
-83,27,115,22,-100,71,-17,-157,-297,-195,-264,-218
-89,33,127,22,-106,77,-11,-145,-291,-183,-252,-206
-95,21,121,28,-106,71,-6,-133,-285,-183,-246,-200
-83,21,109,22,-94,65,-6,-133,-285,-171,-246,-206
-71,21,97,16,-82,59,-6,-133,-285,-165,-246,-206
-65,21,91,16,-76,53,-6,-127,-279,-171,-246,-200
-65,21,91,16,-76,53,-6,-121,-285,-171,-246,-200
-59,39,103,4,-82,71,-11,-133,-285,-171,-246,-206
-59,39,103,4,-82,71,-6,-127,-267,-165,-234,-188
-65,45,115,4,-88,77,-6,-121,-267,-159,-234,-188
-65,63,133,4,-100,95,-6,-115,-261,-159,-234,-188
-53,75,133,-1,-94,101,-6,-109,-249,-153,-228,-182
-59,81,145,-1,-100,113,-6,-109,-255,-147,-228,-182
-71,69,145,4,-106,107,-6,-115,-261,-153,-234,-188
-59,69,133,4,-94,101,-6,-109,-261,-153,-234,-188
-47,69,121,-1,-82,95,-6,-115,-255,-153,-228,-176
-41,69,115,-7,-76,89,-6,-115,-255,-153,-228,-182
-41,81,127,-13,-82,101,0,-103,-249,-147,-222,-182
-41,69,115,-7,-76,89,-6,-115,-249,-159,-228,-182
-41,57,103,-1,-70,77,-6,-109,-249,-165,-234,-182
-95,33,133,22,-112,83,-6,-115,-249,-165,-240,-200
-95,51,151,16,-124,101,-6,-121,-237,-165,-228,-188
-35,105,145,-25,-88,125,-11,-115,-219,-159,-198,-164
-6,147,151,-67,-76,149,-17,-115,-207,-141,-186,-146
-6,147,145,-67,-70,149,-35,-127,-195,-135,-180,-140
-6,117,127,-49,-64,119,-47,-139,-201,-147,-180,-134
-6,117,127,-49,-64,119,-59,-151,-207,-159,-180,-140
-6,117,121,-49,-58,119,-89,-169,-213,-171,-192,-152
-6,111,121,-43,-64,113,-89,-175,-225,-195,-204,-158
-6,105,115,-43,-58,107,-89,-181,-243,-207,-210,-158
-6,99,97,-43,-46,101,-95,-187,-249,-219,-222,-170
-6,93,97,-37,-46,95,-89,-181,-243,-213,-216,-164
-6,87,91,-37,-46,89,-83,-181,-249,-219,-216,-164
-11,81,97,-25,-52,89,-71,-175,-249,-207,-210,-170
-6,75,85,-25,-46,77,-89,-187,-249,-219,-222,-176
-11,69,85,-19,-46,77,-77,-175,-249,-219,-216,-164
-17,75,97,-19,-58,83,-71,-181,-255,-219,-228,-164
-29,81,115,-19,-70,95,-71,-175,-249,-207,-216,-170
-29,63,97,-7,-64,77,-65,-163,-225,-195,-198,-158
-47,57,109,4,-76,83,-59,-163,-237,-195,-210,-170
-59,39,103,4,-82,71,-53,-157,-249,-201,-222,-188
-59,33,97,4,-76,65,-41,-151,-243,-201,-210,-188
-59,15,79,16,-70,47,-35,-151,-249,-195,-216,-182
-65,-3,61,28,-64,23,-35,-151,-255,-195,-234,-194
-65,-8,49,34,-58,11,-23,-139,-249,-195,-240,-200
-77,-32,37,52,-58,-1,-23,-133,-249,-189,-228,-188
-77,-44,25,58,-52,-6,-23,-145,-261,-195,-240,-194
-95,-56,31,76,-64,-6,-23,-133,-255,-201,-240,-200
-95,-50,37,70,-70,-1,-23,-127,-255,-201,-228,-194
-89,-56,25,70,-58,-12,-23,-139,-273,-201,-240,-200
-101,-62,31,82,-70,-12,-17,-133,-261,-195,-240,-206
-89,-50,31,70,-64,-6,-6,-127,-255,-195,-228,-200
-77,-62,7,70,-46,-24,-11,-115,-249,-189,-228,-182
-89,-80,1,82,-46,-36,-17,-121,-255,-189,-234,-194
-95,-86,1,88,-52,-36,-17,-133,-255,-195,-240,-200
-95,-80,7,88,-52,-30,-11,-121,-249,-189,-240,-182
-95,-80,7,88,-52,-30,-6,-115,-255,-189,-240,-182
-89,-86,1,88,-46,-42,-6,-115,-249,-189,-228,-188
-83,-92,-4,88,-34,-48,-6,-121,-249,-189,-228,-182
-77,-74,1,76,-40,-36,-6,-109,-249,-177,-228,-176
-65,-56,1,58,-34,-24,0,-97,-249,-177,-228,-182
-95,-92,1,94,-46,-42,-6,-115,-261,-195,-246,-194
-155,-158,1,154,-76,-78,-11,-121,-267,-201,-246,-206
-125,-134,-4,130,-58,-72,-6,-109,-255,-183,-240,-206
-101,-116,-10,106,-40,-66,-6,-103,-249,-177,-228,-194
-107,-122,-10,112,-46,-66,0,-97,-243,-177,-222,-182
-107,-140,-28,124,-34,-84,0,-97,-243,-171,-222,-188
-113,-140,-22,124,-40,-84,0,-97,-243,-177,-234,-194
-107,-128,-16,118,-40,-72,0,-97,-243,-177,-228,-188
-107,-134,-22,118,-40,-78,6,-91,-243,-171,-228,-188
-113,-140,-22,124,-40,-84,6,-85,-237,-171,-222,-188
-107,-134,-22,118,-40,-78,6,-97,-237,-177,-222,-188
-113,-140,-22,124,-40,-84,12,-85,-237,-165,-216,-188
-125,-158,-28,142,-46,-96,18,-79,-237,-159,-228,-194
-119,-158,-34,136,-40,-96,12,-91,-237,-171,-228,-200
-107,-152,-40,130,-28,-96,24,-79,-231,-171,-228,-188
-107,-164,-52,136,-22,-108,30,-61,-219,-153,-210,-182
-107,-170,-58,136,-22,-114,30,-55,-225,-153,-216,-194
-95,-188,-88,142,-5,-138,54,-13,-219,-135,-222,-188
-83,-224,-136,154,19,-180,78,22,-225,-105,-234,-194
-53,-248,-196,154,61,-228,126,88,-207,-51,-234,-200
-23,-266,-238,148,103,-252,180,178,-165,14,-222,-200
-17,-272,-250,148,109,-264,246,274,-123,104,-198,-194
-6,-248,-238,130,109,-246,312,364,-69,182,-168,-188
12,-218,-238,94,121,-228,378,466,26,296,-84,-128
54,-170,-232,52,139,-198,420,562,194,440,35,-20
132,-80,-220,-19,175,-150,432,634,392,602,233,123
246,3,-238,-127,241,-114,420,694,644,752,479,333
360,129,-232,-241,295,-42,396,724,926,908,785,609
486,249,-238,-367,361,5,390,808,1268,1130,1157,933
654,387,-262,-517,463,59,408,934,1706,1436,1583,1293
786,507,-274,-649,529,113,378,976,2089,1646,1967,1635
870,603,-262,-733,565,167,312,946,2401,1766,2302,1923
876,723,-154,-793,511,281,132,682,2502,1628,2475,2096
792,915,115,-853,337,515,-155,196,2418,1262,2487,2144
588,1101,505,-841,37,803,-431,-343,2131,776,2278,1989
324,1161,829,-739,-244,995,-683,-913,1574,176,1829,1647
162,1059,895,-607,-364,977,-833,-1249,1070,-255,1373,1305
36,849,805,-445,-382,827,-905,-1441,530,-633,857,927
-167,639,805,-235,-490,725,-995,-1741,-453,-1305,-7,303
-419,459,877,-13,-646,665,-1085,-2071,-1635,-2079,-1062,-464
-575,285,865,142,-724,575,-1073,-2125,-2211,-2391,-1578,-902
-665,177,841,244,-748,503,-1013,-2059,-2325,-2438,-1704,-1058
-701,81,781,304,-736,431,-965,-1969,-2337,-2415,-1734,-1136
-683,3,691,334,-688,347,-911,-1831,-2211,-2283,-1662,-1136
-653,-32,613,340,-634,281,-863,-1675,-2037,-2091,-1524,-1082
-635,-116,511,376,-574,197,-779,-1477,-1809,-1845,-1368,-998
-581,-194,385,388,-490,89,-713,-1273,-1593,-1623,-1224,-908
-491,-230,253,358,-376,5,-653,-1117,-1413,-1437,-1086,-818
-407,-236,169,316,-286,-30,-605,-985,-1245,-1263,-954,-734
-305,-206,97,250,-208,-48,-563,-883,-1071,-1113,-822,-638
-245,-170,73,208,-166,-42,-521,-805,-951,-999,-720,-554
-245,-176,67,214,-160,-48,-467,-721,-849,-885,-642,-512
-233,-194,31,214,-136,-78,-389,-601,-741,-753,-582,-470
-191,-170,13,178,-106,-72,-293,-475,-621,-621,-492,-392
-179,-152,19,166,-100,-60,-233,-391,-525,-507,-438,-332
-149,-128,13,136,-82,-54,-185,-331,-441,-417,-372,-290
-107,-110,1,106,-52,-54,-143,-265,-369,-339,-306,-248
-107,-116,-4,112,-46,-60,-77,-187,-297,-261,-258,-206
-101,-116,-10,106,-40,-66,-59,-151,-273,-225,-240,-206
-101,-128,-22,112,-34,-78,-17,-103,-231,-177,-210,-182
-89,-140,-46,112,-16,-96,6,-49,-201,-141,-186,-170
-71,-152,-76,112,-5,-114,18,-19,-177,-111,-180,-170
-71,-164,-88,118,1,-126,42,-8,-147,-75,-156,-158
-59,-182,-118,118,19,-150,60,22,-123,-45,-138,-140
-41,-182,-136,112,37,-162,66,34,-111,-33,-126,-128
-47,-182,-130,112,31,-156,66,28,-93,-10,-126,-128
-53,-182,-124,118,25,-156,72,34,-75,-10,-96,-110
-47,-164,-112,106,25,-138,72,40,-57,-4,-90,-98
-47,-152,-100,100,19,-126,66,40,-57,-4,-102,-104
-41,-152,-106,94,25,-132,72,52,-39,2,-96,-104
-41,-152,-106,94,25,-132,78,64,-27,14,-78,-86
-41,-158,-112,100,25,-138,90,82,-27,26,-84,-86
-41,-170,-124,106,31,-150,108,94,-10,44,-66,-80
-23,-170,-142,94,49,-156,108,112,-4,44,-54,-68
-11,-170,-154,88,61,-162,102,112,14,62,-42,-56
-6,-170,-160,88,67,-168,102,106,20,74,-36,-56
-11,-176,-160,94,67,-168,102,100,32,68,-24,-50
-23,-158,-130,88,43,-144,102,106,32,74,-24,-32
-23,-158,-130,88,43,-144,102,100,44,74,-18,-32
-29,-164,-130,94,43,-150,102,100,44,68,-18,-32
-17,-164,-142,88,55,-156,102,130,56,80,-7,-20
-6,-158,-148,82,61,-156,114,142,62,98,-7,-20
-6,-158,-154,76,67,-156,126,142,74,110,-1,-14
0,-146,-154,64,73,-150,126,154,80,110,11,-9
12,-146,-166,58,85,-156,132,172,98,134,29,3
12,-146,-166,58,85,-156,126,166,110,134,23,3
6,-140,-154,58,79,-144,132,166,128,140,53,27
30,-128,-166,40,97,-144,120,160,122,146,41,27
18,-140,-166,52,91,-150,108,160,116,140,41,21
6,-134,-148,58,73,-138,102,154,128,128,53,21
12,-116,-136,46,73,-126,126,172,140,140,71,33
12,-122,-142,46,73,-132,126,184,134,158,71,33
24,-122,-154,40,85,-138,138,196,152,176,83,45
48,-122,-178,28,109,-150,150,214,170,182,95,57
24,-146,-178,52,97,-162,144,214,164,194,101,63
18,-170,-196,70,103,-180,132,202,158,188,89,51
42,-140,-190,40,115,-162,144,208,188,200,119,81
42,-128,-178,34,109,-150,144,220,188,212,125,93
36,-134,-178,40,103,-156,132,226,194,224,131,99
42,-128,-178,34,109,-150,126,232,206,224,143,105
42,-122,-172,34,103,-144,132,232,212,230,155,111
42,-128,-178,34,109,-150,144,238,212,242,149,105
48,-122,-178,28,109,-150,156,256,230,266,167,129
66,-110,-184,16,121,-144,168,280,254,284,197,141
66,-122,-196,22,127,-156,168,292,266,302,197,147
78,-116,-202,10,139,-156,162,286,272,308,203,141
78,-98,-184,4,127,-138,162,280,296,314,227,159
66,-98,-172,10,115,-132,174,304,308,338,233,183
60,-104,-172,16,115,-138,168,316,320,344,245,189
78,-92,-178,4,127,-132,168,316,338,350,257,195
90,-92,-190,4,139,-138,180,328,350,368,281,219
90,-86,-184,4,133,-132,186,346,362,398,281,219
102,-80,-190,-1,145,-132,210,364,386,422,305,231
126,-80,-214,-13,169,-144,204,376,404,428,329,243
126,-74,-208,-19,163,-138,210,394,422,452,341,267
132,-74,-214,-19,169,-144,228,400,446,476,353,273
138,-68,-214,-25,175,-138,222,400,476,488,377,279
132,-56,-196,-31,163,-126,222,418,494,506,401,309
132,-50,-190,-31,157,-120,216,424,506,518,413,315
150,-50,-208,-43,175,-126,222,442,530,542,437,327
150,-44,-202,-43,175,-120,240,472,554,566,467,351
156,-32,-196,-55,175,-114,246,484,584,596,479,363
168,-32,-208,-61,187,-120,246,496,608,626,497,381
192,-26,-226,-73,205,-126,258,514,632,638,527,399
204,-20,-232,-85,217,-126,264,532,674,668,557,435
204,-14,-226,-85,211,-120,258,532,692,692,575,447
204,-3,-214,-91,205,-108,270,550,728,710,617,471
222,-3,-220,-109,223,-102,270,556,746,722,629,495
228,15,-208,-121,217,-90,264,568,770,734,647,507
234,15,-214,-121,223,-90,270,580,794,758,671,525
234,15,-214,-121,223,-90,276,586,812,764,683,537
216,3,-208,-109,211,-96,288,598,836,782,701,543
234,9,-220,-121,229,-96,282,616,866,812,725,567
258,21,-238,-139,247,-102,276,616,890,812,743,579
282,39,-238,-163,259,-96,300,646,926,854,773,609
312,81,-232,-199,271,-66,312,658,956,878,791,627
306,75,-232,-193,265,-72,306,646,968,878,809,645
276,51,-226,-163,247,-78,282,640,962,872,809,645
270,57,-214,-163,241,-72,282,646,974,884,827,657
294,87,-208,-193,247,-54,276,646,998,884,839,675
294,87,-208,-193,247,-54,282,652,998,884,851,687
294,93,-202,-193,247,-48,282,652,1004,890,845,681
294,87,-208,-193,247,-54,294,664,1028,920,875,705
318,93,-226,-205,271,-60,294,664,1034,914,887,711
318,87,-232,-205,271,-66,288,658,1040,920,881,711
312,93,-220,-205,265,-54,264,628,1034,896,869,699
312,105,-208,-211,259,-42,270,622,1034,884,881,717
294,99,-196,-199,241,-42,258,610,1022,872,875,711
270,99,-172,-187,223,-30,240,586,992,848,857,705
282,111,-172,-199,229,-24,234,568,968,830,839,699
264,117,-148,-193,211,-6,240,556,938,800,815,681
258,117,-142,-187,205,-6,228,520,884,752,755,633
246,111,-136,-181,193,-6,222,502,854,722,725,615
246,105,-142,-175,199,-12,222,478,806,692,689,591
234,93,-142,-163,193,-18,216,454,746,638,647,555
222,87,-130,-151,175,-12,180,406,692,584,593,507
204,81,-118,-139,163,-12,168,376,644,542,557,477
174,57,-112,-115,145,-18,156,340,584,488,503,447
144,39,-100,-91,121,-24,132,298,530,440,449,405
120,33,-82,-73,103,-18,126,286,476,404,407,369
96,9,-82,-49,91,-30,132,256,428,356,365,333
102,15,-82,-55,91,-24,132,244,380,326,323,303
114,33,-76,-73,97,-12,132,226,338,284,275,261
72,-3,-70,-31,73,-30,102,196,278,236,233,231
42,-26,-76,-1,55,-48,96,166,230,206,197,207
42,-26,-76,-1,55,-48,72,130,188,164,149,165
24,-32,-64,4,43,-48,60,112,164,122,125,141
18,-32,-58,4,37,-42,60,88,128,86,95,117
-6,-38,-40,16,13,-36,48,64,92,56,53,93
-6,-32,-28,16,7,-30,36,40,50,20,23,57
-6,-44,-40,22,13,-42,30,22,14,-10,-1,27
-11,-56,-40,34,7,-48,24,16,-4,-15,-18,3
-35,-68,-28,52,-5,-48,24,10,-21,-39,-42,-9
-53,-74,-16,64,-16,-48,18,4,-39,-51,-54,-14
-47,-74,-22,58,-10,-48,24,-8,-57,-63,-78,-32
-35,-74,-34,52,-5,-54,6,-25,-81,-87,-102,-50
-41,-86,-40,64,-5,-66,0,-31,-87,-99,-102,-44
-47,-74,-22,58,-10,-48,-6,-37,-111,-123,-114,-56
-59,-68,-4,64,-22,-36,-6,-49,-123,-135,-132,-68
-59,-56,1,58,-28,-24,-6,-55,-129,-135,-132,-86
-71,-68,1,70,-34,-30,0,-49,-123,-141,-132,-80
-89,-92,1,88,-40,-48,-17,-73,-159,-165,-168,-122
-83,-86,1,82,-40,-42,-17,-79,-165,-177,-174,-128
-65,-68,1,64,-28,-36,-6,-61,-159,-171,-162,-128
-77,-74,1,76,-40,-36,-11,-79,-177,-183,-180,-140
-77,-74,1,76,-40,-36,-17,-91,-177,-183,-180,-146
-77,-68,1,70,-40,-30,-17,-97,-177,-189,-174,-140
-77,-68,1,70,-40,-30,-23,-103,-183,-201,-186,-152
-89,-62,19,76,-58,-18,-17,-97,-189,-201,-186,-152
-83,-56,19,70,-52,-12,-17,-103,-183,-201,-198,-158
-89,-50,31,70,-64,-6,-17,-97,-201,-213,-198,-152
-89,-56,25,70,-58,-12,-23,-103,-207,-219,-204,-170
-95,-62,25,76,-64,-12,-23,-97,-201,-213,-204,-176
-89,-62,19,76,-58,-18,-23,-91,-201,-213,-210,-188
-83,-62,13,70,-52,-18,-6,-79,-201,-207,-192,-176
-77,-44,25,58,-52,-6,-11,-79,-201,-201,-192,-176
-77,-32,37,52,-58,-1,-17,-85,-201,-207,-198,-176
-89,-44,37,64,-64,-1,-23,-97,-219,-225,-210,-194
-89,-50,31,70,-64,-6,-23,-103,-219,-213,-210,-194
-95,-38,49,64,-76,-1,-23,-103,-213,-213,-216,-194
-113,-38,67,76,-94,5,-11,-85,-219,-213,-216,-200
-107,-38,61,70,-88,5,-17,-79,-231,-219,-222,-212
-95,-32,55,64,-76,5,-17,-85,-231,-213,-222,-206
-83,-26,49,52,-70,5,-17,-79,-231,-213,-222,-212
-95,-26,61,58,-82,11,-6,-79,-231,-213,-216,-206
-89,-20,61,52,-76,11,-23,-91,-237,-213,-228,-212
-71,-14,49,40,-64,11,-23,-85,-231,-207,-210,-194
-71,-3,61,34,-70,23,-29,-85,-237,-213,-210,-194
-89,-3,91,40,-88,41,-23,-97,-237,-207,-204,-188
-89,-3,85,40,-88,35,-29,-91,-231,-207,-210,-188
-95,-3,85,46,-94,35,-29,-91,-243,-219,-216,-194
-89,-3,85,40,-88,35,-11,-79,-237,-207,-210,-194
-95,-3,85,46,-94,35,-23,-79,-243,-207,-216,-200
-83,-14,61,46,-76,17,-35,-85,-243,-213,-228,-212
-71,-8,55,40,-64,17,-17,-79,-237,-207,-210,-188
-71,-3,73,28,-70,35,-23,-85,-231,-207,-210,-194
-83,-3,85,34,-82,41,-29,-97,-231,-201,-216,-194
-83,3,91,34,-88,47,-29,-91,-231,-207,-216,-194
-83,9,97,28,-88,53,-23,-85,-225,-207,-204,-188
-77,21,103,22,-88,59,-41,-97,-225,-213,-210,-200
-89,15,109,28,-100,59,-29,-97,-231,-225,-216,-194
-89,21,115,28,-100,65,-29,-91,-231,-219,-216,-206
-71,15,91,22,-82,53,-35,-79,-219,-207,-210,-200
-59,21,85,10,-70,53,-29,-85,-219,-213,-210,-200
-77,3,85,28,-82,41,-29,-85,-219,-219,-210,-194
-83,-3,79,40,-82,35,-41,-91,-225,-219,-216,-206
-77,3,85,28,-82,41,-41,-91,-219,-213,-198,-188
-65,15,85,16,-76,47,-41,-91,-213,-219,-198,-188
-53,33,91,4,-70,59,-35,-91,-207,-207,-192,-188
-41,51,97,4,-70,71,-35,-91,-213,-207,-198,-188
-47,45,97,4,-70,71,-35,-85,-207,-213,-198,-182
-77,27,109,16,-94,65,-41,-103,-231,-225,-216,-200
-95,9,109,34,-100,59,-41,-109,-237,-231,-222,-200
-59,39,103,4,-82,71,-41,-97,-225,-225,-210,-194
-47,45,97,4,-70,71,-41,-97,-219,-225,-216,-200
-35,51,91,-1,-64,71,-53,-115,-225,-237,-222,-206
-77,45,127,10,-100,83,-53,-109,-225,-231,-216,-200
-89,39,133,16,-112,83,-53,-115,-219,-237,-216,-200
-65,45,115,4,-88,77,-47,-121,-225,-231,-216,-200
-71,45,121,4,-94,83,-47,-109,-219,-225,-210,-194
-71,51,127,4,-100,89,-41,-103,-225,-225,-204,-194
-65,39,109,4,-88,71,-35,-103,-225,-231,-210,-194
-65,33,103,10,-82,65,-35,-115,-231,-231,-216,-200
-59,39,103,4,-82,71,-41,-103,-225,-231,-210,-200
-47,45,97,4,-70,71,-35,-103,-219,-237,-210,-188
-47,45,97,4,-70,71,-41,-97,-219,-231,-216,-194
-65,39,109,4,-88,71,-41,-97,-219,-225,-210,-194
-71,51,127,4,-100,89,-53,-109,-225,-249,-222,-206
-77,45,127,10,-100,83,-53,-115,-231,-249,-228,-200
-95,33,133,22,-112,83,-59,-121,-243,-249,-228,-212
-95,45,145,16,-118,95,-47,-109,-237,-255,-222,-212
-89,39,133,16,-112,83,-53,-115,-243,-249,-234,-212
-77,39,121,10,-100,77,-47,-109,-243,-249,-228,-218
-71,45,121,4,-94,83,-35,-85,-231,-237,-222,-212
-59,39,103,4,-82,71,-41,-97,-231,-243,-222,-212
-53,39,97,4,-76,65,-47,-115,-231,-249,-228,-212
-59,39,103,4,-82,71,-53,-115,-237,-249,-228,-212
-71,33,109,10,-88,71,-53,-115,-237,-249,-234,-212
-65,33,103,10,-82,65,-53,-127,-249,-255,-234,-212
-59,33,97,4,-76,65,-41,-121,-237,-249,-222,-206
-83,33,121,16,-100,77,-41,-109,-237,-261,-222,-200
-83,27,115,22,-100,71,-53,-121,-249,-267,-234,-218
-71,33,109,10,-88,71,-47,-127,-255,-261,-234,-224
-71,33,109,10,-88,71,-35,-109,-249,-255,-228,-218
-59,27,91,10,-76,59,-29,-97,-243,-249,-216,-206
-65,33,103,10,-82,65,-29,-103,-237,-237,-216,-206
-53,39,97,4,-76,65,-23,-97,-231,-231,-210,-194
-59,33,97,4,-76,65,-23,-97,-231,-231,-210,-194
-47,45,97,4,-70,71,-35,-115,-237,-243,-216,-200
-41,45,91,4,-64,65,-23,-97,-225,-237,-204,-194
-59,51,115,4,-88,83,-23,-85,-225,-237,-198,-200
-53,87,145,-7,-100,113,-11,-79,-213,-219,-186,-188
-41,93,139,-19,-88,113,-11,-85,-213,-219,-186,-188
-35,81,121,-13,-76,101,-23,-91,-219,-231,-192,-194
-17,87,109,-25,-64,95,-6,-79,-213,-219,-180,-182
-23,69,97,-13,-58,83,-6,-79,-207,-207,-186,-188
-71,33,109,10,-88,71,-17,-91,-225,-231,-204,-200
-77,15,97,22,-88,53,-29,-103,-237,-249,-222,-206
-35,45,85,4,-58,65,-23,-109,-243,-249,-216,-212
-47,63,115,-1,-82,89,-11,-97,-219,-243,-204,-194
-53,81,139,-7,-94,107,-23,-103,-225,-249,-204,-188
-35,111,151,-31,-94,131,-23,-103,-213,-243,-192,-182
-23,117,145,-37,-82,131,-41,-103,-207,-243,-180,-176
-6,129,139,-55,-70,131,-53,-109,-189,-225,-174,-164
-6,123,127,-55,-64,125,-59,-109,-195,-231,-162,-152
-6,123,133,-49,-70,125,-71,-133,-207,-243,-168,-158
-6,117,121,-49,-58,119,-89,-139,-201,-249,-168,-152
-6,117,115,-55,-52,119,-89,-145,-213,-249,-174,-158
0,117,109,-55,-46,113,-95,-157,-225,-273,-186,-164
-6,105,109,-43,-52,107,-83,-157,-219,-267,-186,-164
0,105,97,-49,-40,101,-95,-163,-237,-285,-198,-170
-6,99,103,-43,-52,101,-107,-169,-249,-297,-210,-188
-11,93,109,-31,-58,101,-95,-169,-243,-291,-198,-182
-11,75,91,-25,-52,83,-89,-157,-237,-291,-204,-182
-6,63,73,-19,-40,65,-89,-145,-243,-285,-204,-182
-11,75,91,-25,-52,83,-83,-151,-243,-279,-210,-188
-29,63,97,-7,-64,77,-71,-151,-231,-279,-198,-182
-41,57,103,-1,-70,77,-59,-139,-219,-273,-192,-170
-47,57,109,4,-76,83,-53,-127,-225,-273,-198,-176
-59,39,103,4,-82,71,-47,-133,-225,-273,-198,-188
-71,21,97,16,-82,59,-47,-133,-237,-279,-204,-188
-77,15,97,22,-88,53,-35,-127,-237,-279,-216,-206
-77,-3,73,34,-76,29,-29,-121,-237,-273,-210,-206
-65,-20,37,40,-52,-1,-11,-103,-225,-255,-210,-200
-59,-44,7,52,-34,-12,-6,-91,-231,-261,-210,-194
-71,-56,7,64,-40,-18,-6,-91,-231,-249,-216,-206
-65,-56,1,58,-34,-24,-11,-97,-225,-255,-210,-212
-71,-56,7,64,-40,-18,-6,-103,-231,-273,-210,-212
-77,-62,7,70,-46,-24,-11,-103,-243,-273,-222,-212
-95,-74,13,82,-58,-24,-11,-109,-237,-279,-228,-212
-89,-68,13,76,-52,-24,-6,-97,-237,-273,-222,-206
-77,-56,13,64,-46,-18,-6,-103,-243,-279,-234,-218
-77,-74,1,76,-40,-36,-17,-103,-243,-279,-234,-212
-83,-80,1,82,-40,-36,-11,-109,-237,-273,-234,-212
-83,-86,1,82,-40,-42,-6,-97,-249,-273,-228,-218
-83,-80,1,82,-40,-36,-6,-103,-237,-261,-222,-212
-71,-80,-4,76,-28,-42,-11,-109,-237,-267,-222,-206
-71,-74,1,70,-34,-36,-6,-103,-231,-273,-216,-206
-53,-74,-16,64,-16,-48,-6,-91,-225,-267,-210,-194
-77,-68,1,70,-40,-30,-6,-97,-219,-261,-210,-188
-89,-92,1,88,-40,-48,-6,-97,-225,-273,-210,-194
-119,-134,-10,124,-52,-72,-6,-97,-237,-279,-228,-218
-119,-128,-4,124,-52,-66,12,-85,-219,-255,-210,-206
-95,-116,-16,106,-34,-66,24,-79,-213,-249,-210,-206
-101,-128,-22,112,-34,-78,24,-73,-219,-249,-216,-206
-101,-134,-28,118,-34,-84,24,-73,-213,-249,-222,-206
-107,-140,-28,124,-34,-84,24,-73,-201,-249,-204,-206
-113,-134,-16,124,-46,-78,30,-73,-201,-249,-198,-200
-107,-140,-28,124,-34,-84,24,-73,-207,-249,-204,-200
-107,-134,-22,118,-40,-78,24,-79,-201,-255,-204,-206
-101,-116,-10,106,-40,-66,30,-73,-213,-261,-204,-206
-89,-122,-28,106,-28,-78,36,-73,-213,-249,-210,-206
-95,-134,-34,112,-28,-84,36,-67,-207,-243,-210,-206
-101,-140,-34,118,-28,-90,36,-67,-207,-249,-222,-218
-95,-140,-40,118,-22,-90,42,-67,-207,-249,-216,-212
-89,-146,-52,118,-16,-102,48,-61,-201,-231,-204,-200
-95,-158,-58,124,-16,-108,54,-49,-195,-237,-192,-194
-83,-170,-82,124,-5,-126,78,-31,-201,-219,-204,-206
-59,-194,-130,124,25,-162,96,4,-201,-195,-216,-206
-47,-242,-190,142,61,-216,138,76,-183,-141,-204,-200
-41,-272,-232,160,85,-252,174,154,-153,-87,-192,-200
-11,-272,-256,142,115,-264,234,232,-111,-10,-186,-194
0,-248,-256,118,127,-252,300,316,-57,74,-156,-188
0,-236,-238,112,121,-240,360,406,20,176,-90,-152
18,-188,-214,76,115,-198,426,502,176,308,23,-50
96,-104,-208,4,151,-156,438,586,362,458,191,63
180,-20,-208,-73,193,-114,444,634,590,608,437,261
264,93,-172,-181,223,-30,408,652,854,740,719,519
408,231,-178,-313,289,23,390,700,1166,926,1049,813
552,369,-184,-463,367,89,408,814,1580,1196,1457,1161
666,489,-172,-577,421,161,384,868,1952,1418,1847,1491
744,597,-148,-673,451,227,360,874,2269,1562,2188,1779
768,723,-46,-739,409,335,234,700,2412,1502,2392,1965
702,897,193,-793,247,545,-29,268,2329,1160,2404,2013
528,1089,553,-805,-5,821,-311,-247,2047,680,2194,1869
288,1173,877,-727,-286,1025,-563,-769,1502,104,1745,1527
120,1095,973,-607,-424,1031,-725,-1111,986,-345,1289,1191
6,897,883,-451,-436,893,-785,-1273,530,-663,839,843
-137,681,817,-265,-478,743,-863,-1513,-261,-1185,107,327
-359,483,847,-55,-604,665,-953,-1837,-1425,-1917,-918,-404
-515,315,835,94,-676,575,-965,-1939,-2109,-2313,-1542,-902
-599,189,787,202,-694,485,-911,-1873,-2265,-2385,-1710,-1094
-653,81,733,280,-694,407,-839,-1795,-2313,-2391,-1764,-1196
-659,-3,661,322,-658,329,-791,-1687,-2223,-2295,-1710,-1208
-629,-32,589,328,-610,269,-737,-1543,-2037,-2121,-1584,-1154
-581,-62,511,322,-550,221,-677,-1369,-1815,-1905,-1422,-1070
-521,-128,391,322,-460,125,-593,-1171,-1587,-1677,-1242,-968
-473,-188,277,328,-376,41,-533,-1003,-1401,-1473,-1110,-872
-443,-248,187,346,-316,-30,-497,-895,-1227,-1317,-984,-794
-371,-254,109,310,-244,-72,-461,-805,-1059,-1179,-852,-704
-293,-200,91,244,-196,-48,-443,-739,-945,-1071,-738,-608
-245,-170,67,208,-160,-48,-395,-673,-843,-969,-666,-554
-209,-170,31,190,-124,-66,-311,-571,-729,-831,-588,-512
-197,-182,7,190,-106,-84,-239,-451,-615,-711,-498,-446
-167,-146,13,154,-94,-60,-179,-373,-519,-597,-426,-392
-143,-122,13,130,-82,-48,-131,-301,-417,-495,-354,-338
-131,-116,7,124,-70,-48,-83,-247,-345,-411,-282,-272
-113,-116,1,112,-52,-60,-35,-193,-285,-345,-240,-242
-83,-98,-10,88,-34,-54,-29,-163,-249,-303,-222,-236
-95,-104,-4,100,-40,-54,0,-121,-201,-261,-186,-206
-95,-116,-16,106,-34,-66,48,-67,-171,-231,-162,-182
-71,-128,-52,100,-5,-90,60,-37,-153,-183,-156,-182
-53,-140,-82,94,7,-114,84,-8,-111,-147,-126,-164
-53,-158,-100,106,13,-132,114,22,-69,-117,-102,-140
-47,-164,-112,106,25,-138,126,28,-57,-93,-96,-140
-47,-170,-118,106,25,-144,120,34,-45,-81,-90,-128
-53,-176,-118,112,25,-150,132,46,-21,-63,-66,-110
-53,-164,-106,106,19,-138,138,52,-10,-63,-60,-104
-29,-146,-112,88,31,-132,132,52,-4,-45,-54,-98
-41,-140,-94,88,19,-120,126,46,2,-45,-48,-104
-35,-134,-94,82,19,-114,126,52,2,-57,-48,-104
-29,-128,-94,76,25,-114,138,82,8,-27,-42,-92
-41,-140,-94,88,19,-120,150,82,26,-10,-30,-86
-29,-152,-118,88,37,-138,156,82,38,-10,-18,-74
-11,-158,-142,82,55,-150,162,94,44,-10,-12,-62
-11,-158,-142,82,55,-150,162,106,68,14,-7,-50
-6,-158,-148,82,61,-156,162,100,80,14,5,-38
-17,-152,-130,82,49,-144,168,106,80,8,17,-32
-11,-134,-118,70,43,-126,150,94,80,20,5,-32
-17,-134,-112,76,37,-126,150,94,92,14,11,-26
-17,-134,-112,76,37,-126,156,106,86,8,17,-20
-6,-134,-124,70,49,-132,168,124,92,26,11,-26
-6,-128,-124,64,55,-126,174,118,104,32,23,-26
-6,-134,-136,64,61,-132,186,136,116,38,35,-9
6,-140,-154,58,79,-144,192,142,116,56,41,-9
6,-140,-154,58,79,-144,186,142,134,74,47,-3
6,-140,-154,58,79,-144,186,142,146,68,71,15
-6,-134,-136,64,61,-132,192,154,146,74,77,27
0,-122,-130,52,61,-126,180,148,140,86,77,27
6,-122,-136,52,67,-126,180,142,152,80,89,39
0,-116,-124,52,61,-120,180,148,158,80,95,45
12,-116,-136,46,73,-126,186,160,158,98,83,39
18,-110,-136,40,73,-120,186,160,170,104,107,39
12,-116,-136,46,73,-126,204,184,182,122,119,51
12,-122,-142,46,73,-132,210,202,188,140,119,63
36,-110,-154,28,91,-132,210,202,206,158,131,69
36,-110,-154,28,91,-132,216,202,218,158,161,93
30,-116,-154,34,91,-132,210,208,218,158,155,93
48,-104,-160,22,103,-132,192,196,218,164,155,87
48,-98,-154,16,97,-126,204,202,230,170,179,105
36,-98,-142,22,85,-120,210,220,242,188,197,117
42,-86,-136,16,85,-108,216,232,248,206,191,123
60,-68,-136,4,97,-102,222,238,272,212,209,123
84,-68,-160,-1,121,-114,240,256,296,230,233,141
84,-86,-178,4,127,-132,234,268,290,242,227,141
42,-128,-178,34,109,-150,228,262,308,248,233,141
72,-104,-184,10,127,-144,222,250,320,248,245,147
90,-68,-166,-1,127,-114,234,268,338,272,263,177
72,-62,-142,4,103,-102,234,268,356,290,269,183
66,-62,-136,4,97,-96,234,274,374,296,287,189
84,-56,-148,-7,115,-102,234,292,374,296,299,195
90,-56,-154,-7,121,-102,246,310,386,326,305,207
90,-56,-154,-7,121,-102,264,328,422,362,335,231
108,-50,-166,-19,133,-108,282,358,452,386,365,243
114,-62,-184,-19,145,-120,282,370,458,404,371,249
114,-62,-184,-19,145,-120,288,376,488,428,383,261
114,-44,-166,-25,139,-102,288,382,512,446,419,279
132,-32,-172,-43,151,-102,288,394,524,458,437,297
144,-32,-184,-49,163,-108,288,394,548,476,455,309
138,-26,-172,-49,151,-96,282,394,566,476,467,321
132,-20,-160,-49,145,-90,288,418,590,494,491,345
150,-3,-160,-67,151,-78,300,448,614,524,503,357
168,3,-160,-85,163,-72,318,460,650,560,527,375
168,-3,-166,-79,169,-78,336,478,686,584,563,405
180,-3,-178,-85,181,-84,336,496,704,614,587,423
204,3,-196,-103,199,-90,342,502,734,644,611,441
216,9,-202,-109,211,-90,348,514,770,662,647,471
228,21,-202,-121,217,-84,348,532,782,668,659,483
222,39,-178,-127,199,-60,342,532,812,692,677,501
210,33,-172,-121,193,-60,342,526,830,692,695,513
216,45,-166,-127,193,-54,348,544,848,704,725,537
234,63,-166,-145,199,-42,354,562,872,728,731,549
240,57,-184,-151,217,-54,354,568,896,740,749,567
246,57,-190,-151,223,-60,372,592,926,758,785,597
276,69,-208,-175,241,-60,378,610,956,788,809,621
294,93,-202,-193,247,-48,378,604,974,806,821,621
276,87,-190,-181,235,-42,378,616,998,812,851,645
252,63,-190,-157,223,-54,366,610,986,806,839,651
270,81,-190,-175,235,-48,354,598,1004,812,851,657
282,111,-172,-199,229,-24,360,610,1022,818,869,675
276,111,-166,-193,223,-18,360,616,1028,824,875,687
276,117,-160,-199,223,-12,366,622,1028,830,881,693
282,123,-160,-205,223,-12,366,616,1034,830,893,693
282,117,-166,-199,229,-18,384,628,1052,842,911,717
294,111,-184,-205,235,-30,372,628,1040,842,899,717
300,117,-184,-211,241,-24,372,622,1040,842,899,717
300,123,-178,-211,235,-18,360,604,1034,818,899,723
294,129,-166,-211,235,-12,354,592,1016,800,887,711
288,147,-142,-217,217,-1,336,568,992,794,875,705
282,153,-130,-217,211,5,330,544,968,758,857,693
270,159,-112,-217,193,17,324,532,938,722,821,669
252,159,-94,-205,175,29,318,514,890,704,785,639
246,153,-94,-199,175,23,300,478,842,662,749,603
234,135,-94,-181,163,17,300,478,800,632,713,585
228,129,-94,-175,163,11,288,448,752,590,665,549
210,117,-88,-163,151,11,270,424,710,548,617,513
186,105,-76,-145,133,11,264,382,656,500,587,483
168,99,-64,-133,115,11,246,352,596,464,539,447
144,99,-40,-121,91,23,234,316,542,416,485,411
132,93,-34,-109,85,23,222,280,482,368,443,363
114,87,-22,-97,67,29,216,268,446,332,401,333
108,81,-22,-91,67,23,216,250,392,290,347,297
78,51,-22,-61,49,11,204,214,338,248,293,255
48,21,-22,-31,37,-1,186,196,278,212,245,219
48,3,-40,-25,43,-12,180,172,236,182,215,189
36,-3,-34,-13,37,-12,168,154,206,152,185,177
30,-3,-28,-13,31,-6,168,130,176,122,167,159
24,-3,-34,-1,25,-18,150,112,128,86,125,123
0,-8,-16,4,7,-12,138,82,86,38,83,87
-6,-3,1,4,-5,-1,126,46,50,8,47,57
-6,-3,1,4,-5,-1,114,40,14,-10,23,39
