,,,,,,,,,,,
2019-09-01 15:33:30,,,,,,,,,,,
,,,,,,,,,,,
I,II,III,aVR,aVL,aVF,V1,V2,V3,V4,V5,V6
-106,-230,-126,171,5,-180,39,-21,-242,41,-125,-177
-106,-230,-126,171,5,-180,39,-21,-242,41,-125,-177
-106,-230,-126,171,5,-180,39,-21,-242,41,-125,-177
-106,-230,-126,171,5,-180,39,-21,-242,41,-125,-177
-112,-242,-132,177,5,-192,105,44,-182,53,-137,-201
-118,-248,-132,183,-1,-192,165,122,-128,59,-149,-219
-124,-260,-138,195,-1,-204,231,200,-68,71,-161,-237
-130,-266,-138,201,-1,-204,285,272,-8,77,-173,-255
-64,-230,-168,147,47,-204,231,260,10,155,-101,-195
-5,-200,-198,99,95,-198,177,254,22,227,-35,-135
55,-164,-222,45,143,-192,117,242,40,305,24,-69
121,-128,-252,-3,191,-192,63,230,52,383,90,-9
229,33,-204,-122,215,-84,-68,158,57,569,282,164
325,177,-150,-254,239,24,-212,92,57,755,474,344
433,333,-96,-380,263,119,-350,20,69,941,666,524
529,489,-42,-506,287,221,-488,-33,75,1133,852,710
583,567,-12,-572,299,275,-566,-75,69,1223,954,812
631,651,24,-638,305,335,-638,-111,63,1319,1044,914
685,735,41,-710,317,389,-716,-153,57,1409,1146,1016
727,813,77,-770,323,449,-782,-189,57,1505,1236,1118
697,615,-78,-656,389,269,-896,-429,-230,1145,954,908
667,417,-246,-536,461,83,-998,-663,-524,785,672,704
631,219,-414,-422,521,-90,-1112,-903,-818,419,384,494
601,28,-582,-308,593,-276,-1220,-1137,-1112,65,102,284
481,-50,-540,-212,509,-294,-1196,-1233,-1232,-132,-53,140
373,-122,-498,-122,437,-306,-1172,-1329,-1358,-336,-221,3
253,-200,-456,-20,359,-324,-1148,-1431,-1478,-546,-383,-147
145,-266,-420,57,281,-342,-1124,-1521,-1604,-750,-545,-291
97,-248,-354,69,221,-300,-950,-1299,-1406,-636,-491,-279
55,-230,-294,81,179,-258,-776,-1083,-1208,-528,-443,-267
7,-212,-228,99,119,-216,-602,-861,-1010,-414,-389,-255
-22,-200,-174,111,71,-186,-434,-645,-818,-306,-335,-243
-28,-176,-144,99,53,-162,-356,-537,-716,-228,-281,-219
-34,-152,-114,93,35,-132,-278,-441,-626,-156,-239,-189
-40,-128,-84,81,17,-108,-206,-333,-524,-78,-185,-159
-46,-104,-54,75,-1,-78,-128,-231,-428,-19,-137,-129
-46,-110,-60,75,-1,-84,-98,-195,-392,-1,-131,-123
-46,-116,-66,81,5,-90,-74,-159,-356,11,-125,-123
-46,-122,-72,81,5,-96,-44,-117,-314,29,-119,-117
-46,-128,-78,87,11,-102,-20,-81,-278,41,-113,-117
-58,-134,-72,93,-1,-102,-3,-45,-248,65,-101,-117
-64,-140,-72,99,-1,-108,27,-9,-218,83,-95,-117
-76,-146,-66,111,-13,-108,57,20,-188,107,-83,-117
-82,-152,-66,117,-13,-108,87,50,-164,125,-77,-117
-76,-146,-66,111,-13,-108,87,44,-158,119,-77,-123
-76,-146,-66,111,-13,-108,87,38,-158,119,-77,-123
-70,-140,-66,105,-7,-102,87,32,-152,113,-77,-129
-70,-140,-66,105,-7,-102,87,26,-152,113,-77,-129
-64,-146,-78,105,-1,-114,93,38,-140,119,-77,-129
-64,-152,-84,105,5,-120,93,44,-134,119,-77,-129
-58,-158,-96,105,11,-126,99,56,-122,125,-77,-129
-58,-164,-102,111,17,-132,99,62,-116,125,-77,-129
-70,-158,-84,111,-1,-120,111,74,-104,137,-71,-123
-82,-158,-72,117,-13,-114,117,86,-92,143,-71,-117
-94,-152,-54,123,-19,-102,129,98,-80,155,-65,-111
-106,-152,-42,129,-24,-96,135,110,-68,161,-65,-105
-94,-146,-48,117,-19,-96,129,104,-74,155,-65,-111
-88,-140,-48,111,-19,-96,123,104,-74,155,-65,-111
-76,-134,-54,105,-19,-96,117,98,-80,149,-65,-117
-70,-128,-54,99,-13,-90,111,98,-80,149,-65,-117
-70,-134,-60,99,-13,-96,117,110,-74,155,-59,-117
-70,-134,-60,99,-13,-96,123,116,-68,161,-59,-117
-70,-140,-66,105,-7,-102,129,128,-62,167,-53,-117
-70,-140,-66,105,-7,-102,135,134,-56,167,-53,-117
-76,-140,-60,105,-13,-102,147,140,-50,179,-47,-111
-82,-140,-54,111,-19,-96,153,146,-44,185,-47,-111
-88,-140,-48,111,-19,-96,165,152,-38,197,-41,-105
-94,-140,-42,117,-19,-90,171,158,-32,203,-41,-105
-82,-140,-54,111,-19,-96,165,158,-26,203,-41,-105
-70,-140,-66,105,-7,-102,165,158,-26,203,-41,-105
-58,-140,-78,99,5,-108,159,158,-20,203,-41,-105
-46,-140,-90,93,17,-114,159,158,-20,203,-41,-105
-52,-128,-72,87,5,-102,165,164,-8,209,-35,-99
-52,-116,-60,81,-1,-90,171,170,-2,215,-29,-93
-58,-104,-42,81,-13,-72,177,176,10,221,-23,-87
-58,-92,-30,75,-19,-60,183,182,16,227,-17,-81
-52,-98,-42,75,-13,-72,183,188,22,233,-17,-81
-52,-98,-42,75,-13,-72,183,194,28,233,-17,-81
-46,-104,-54,75,-1,-78,183,200,34,239,-17,-81
-46,-104,-54,75,-1,-78,183,206,40,239,-17,-81
-46,-104,-54,75,-1,-78,189,212,46,245,-11,-75
-46,-104,-54,75,-1,-78,189,218,52,245,-11,-75
-46,-104,-54,75,-1,-78,195,224,57,251,-5,-69
-46,-104,-54,75,-1,-78,195,230,57,251,-5,-69
-52,-98,-42,75,-13,-72,201,236,57,257,0,-63
-52,-98,-42,75,-13,-72,201,242,57,263,0,-57
-58,-92,-30,75,-19,-60,207,248,63,269,0,-51
-58,-92,-30,75,-19,-60,207,254,63,275,0,-45
-52,-86,-30,69,-19,-60,207,260,75,281,0,-39
-52,-80,-24,63,-19,-54,207,266,81,281,6,-39
-46,-74,-24,57,-19,-48,207,278,93,287,12,-33
-46,-68,-18,57,-19,-42,207,284,99,287,18,-33
-34,-62,-24,45,-13,-42,213,290,105,293,24,-27
-28,-56,-24,39,-7,-42,213,296,111,299,24,-21
-16,-50,-30,33,-1,-42,219,302,117,305,30,-15
-10,-44,-30,27,5,-36,219,308,123,311,30,-9
-10,-38,-24,21,-1,-30,225,320,135,317,36,-3
-10,-32,-18,21,-1,-24,231,326,141,317,36,-3
-10,-26,-12,15,-7,-18,237,338,153,323,42,3
-10,-20,-6,15,-7,-12,237,344,159,323,42,3
-10,-8,6,9,-13,0,243,362,171,335,54,9
-10,-2,12,3,-19,6,243,374,183,347,60,15
-10,10,24,-3,-19,18,249,392,195,359,72,20
-10,16,30,-3,-19,24,249,404,207,371,78,20
-5,28,35,-15,-19,30,255,416,219,383,90,26
-5,33,35,-15,-19,35,255,422,231,395,102,32
-5,39,35,-15,-19,41,261,434,243,407,114,44
1,51,41,-26,-19,47,261,440,255,413,126,50
7,57,41,-32,-19,53,267,452,267,425,138,62
13,63,41,-38,-19,53,267,464,273,431,144,68
19,69,41,-44,-13,59,273,476,285,443,156,80
25,75,41,-50,-13,59,273,488,291,449,162,86
31,87,47,-56,-13,71,279,506,303,467,174,98
37,93,47,-62,-7,71,285,512,315,485,186,104
43,105,53,-74,-7,83,291,530,333,503,198,116
49,111,53,-80,-7,83,297,542,345,521,210,122
61,129,59,-92,-1,95,291,548,351,533,222,134
67,147,71,-104,-7,113,285,554,357,539,234,146
79,165,77,-122,-1,125,279,560,363,551,240,158
85,183,89,-134,-7,137,273,566,369,557,252,170
91,195,95,-140,-7,149,273,578,381,575,270,182
91,207,107,-146,-13,161,273,584,387,587,282,194
97,219,113,-158,-13,167,273,596,399,605,300,206
97,231,125,-164,-19,179,273,602,405,617,312,218
109,243,125,-176,-13,185,267,596,411,623,318,224
115,255,131,-182,-13,197,261,596,411,623,324,230
127,267,131,-194,-7,203,255,590,417,629,330,236
133,273,137,-206,-7,209,249,590,417,629,336,242
139,279,137,-212,-1,215,243,584,411,635,342,248
139,279,137,-212,-1,215,243,584,411,635,342,248
145,285,137,-218,-1,215,237,578,405,641,348,254
145,285,137,-218,-1,215,237,578,405,641,348,254
151,291,137,-224,5,221,231,572,399,641,354,260
151,291,137,-224,5,221,225,566,399,641,360,260
157,297,137,-230,5,221,213,560,393,641,366,266
157,297,137,-230,5,221,207,554,393,641,372,272
157,303,143,-230,5,227,201,542,387,635,372,272
157,309,149,-236,-1,233,195,536,381,635,372,272
157,315,155,-236,-1,239,189,524,375,629,372,272
157,321,161,-242,-7,245,183,518,369,629,372,272
157,309,149,-236,-1,233,177,506,363,623,366,272
157,297,137,-230,5,221,177,506,357,617,366,272
157,285,125,-224,11,209,171,494,351,611,360,272
157,273,113,-218,17,197,171,488,345,605,360,272
145,273,119,-206,11,197,171,476,333,593,348,266
133,273,131,-200,-1,203,171,470,321,587,342,260
121,267,137,-194,-13,203,171,458,309,575,330,260
109,267,149,-188,-19,209,171,452,297,569,324,254
115,255,131,-182,-13,197,159,434,285,551,306,236
115,243,119,-176,-7,185,153,416,267,539,294,224
121,231,101,-176,5,167,141,398,249,521,276,206
121,219,89,-170,11,155,135,380,231,509,264,194
115,207,83,-158,11,149,123,356,213,491,246,182
115,195,71,-152,17,137,117,338,195,473,234,170
109,183,65,-146,17,125,105,314,177,455,216,158
109,171,53,-140,23,113,99,296,159,437,198,146
91,153,53,-122,17,107,105,284,141,419,186,134
79,135,47,-104,11,95,105,272,129,413,174,122
61,117,47,-86,5,83,111,260,111,395,162,110
49,99,41,-74,-1,71,111,254,99,383,150,98
37,87,41,-62,-7,65,105,230,81,365,138,86
31,81,41,-56,-7,65,99,212,69,347,126,74
19,69,41,-44,-13,59,93,188,57,329,114,62
13,63,41,-38,-19,53,87,170,52,311,102,50
7,45,35,-26,-13,41,81,152,34,293,84,32
1,33,35,-15,-13,35,81,140,22,275,72,20
-5,28,24,-15,-13,30,75,122,4,257,54,15
-5,16,18,-9,-13,18,75,110,-8,239,42,3
-5,10,18,-3,-19,12,69,98,-20,227,30,-9
-5,10,18,-3,-19,12,63,86,-32,215,18,-21
-10,4,18,3,-19,12,57,74,-44,203,6,-33
-10,4,18,3,-19,12,51,62,-56,191,0,-45
-16,-8,12,9,-19,0,51,56,-62,185,0,-51
-16,-14,6,15,-19,-6,51,50,-62,185,0,-51
-22,-26,0,21,-19,-12,51,44,-68,179,-5,-57
-22,-32,-6,27,-13,-18,51,38,-68,179,-5,-57
-22,-44,-18,33,-7,-30,45,32,-74,167,-11,-63
-22,-50,-24,33,-7,-36,39,26,-80,167,-17,-63
-22,-62,-36,39,-1,-48,33,20,-86,155,-23,-69
-22,-68,-42,45,5,-54,27,20,-92,149,-29,-69
-28,-74,-42,51,-1,-60,27,20,-98,143,-35,-75
-28,-74,-42,51,-1,-60,27,20,-98,137,-41,-81
-34,-80,-42,57,-1,-60,27,15,-104,131,-47,-87
-34,-80,-42,57,-1,-60,27,15,-104,125,-53,-93
-40,-80,-36,57,-7,-60,33,15,-98,131,-53,-93
-46,-80,-30,63,-13,-54,33,15,-98,131,-53,-93
-52,-80,-24,63,-19,-54,39,15,-92,137,-53,-93
-58,-80,-18,69,-19,-48,39,15,-92,137,-53,-93
-58,-80,-18,69,-19,-48,33,9,-92,131,-53,-99
-58,-80,-18,69,-19,-48,33,9,-92,131,-53,-99
-58,-80,-18,69,-19,-48,27,3,-92,125,-53,-105
-58,-80,-18,69,-19,-48,27,3,-92,125,-53,-105
-58,-80,-18,69,-19,-48,27,3,-92,125,-53,-105
-58,-80,-18,69,-19,-48,27,3,-92,125,-53,-105
-58,-80,-18,69,-19,-48,27,3,-92,125,-53,-105
-58,-80,-18,69,-19,-48,27,3,-92,125,-53,-105
-52,-74,-18,63,-19,-48,27,3,-92,125,-59,-111
-52,-74,-18,63,-19,-48,27,3,-92,125,-59,-111
-46,-68,-18,57,-19,-42,27,3,-92,125,-65,-117
-46,-68,-18,57,-19,-42,27,3,-92,125,-65,-117
-46,-74,-24,57,-19,-48,33,9,-86,125,-65,-111
-46,-74,-24,57,-19,-48,33,9,-80,125,-65,-111
-46,-80,-30,63,-13,-54,39,15,-74,125,-65,-105
-46,-80,-30,63,-13,-54,39,15,-68,125,-65,-105
-46,-74,-24,57,-19,-48,33,9,-68,119,-65,-105
-46,-68,-18,57,-19,-42,33,9,-68,119,-65,-105
-46,-62,-12,51,-19,-36,27,3,-68,113,-65,-105
-46,-56,-6,51,-19,-30,27,3,-68,113,-65,-105
-46,-68,-18,57,-19,-42,33,15,-62,119,-59,-99
-46,-74,-24,57,-19,-48,39,20,-56,125,-59,-99
-46,-86,-36,63,-13,-60,45,20,-50,131,-53,-93
-46,-92,-42,69,-7,-66,51,26,-44,137,-53,-93
-52,-86,-30,69,-19,-60,51,20,-44,131,-59,-99
-52,-80,-24,63,-19,-54,51,20,-44,125,-59,-99
-58,-74,-12,63,-19,-42,51,20,-44,119,-65,-105
-58,-68,-6,63,-19,-36,51,20,-44,113,-65,-105
-52,-62,-6,57,-19,-36,51,20,-44,113,-59,-105
-52,-62,-6,57,-19,-36,51,20,-44,113,-59,-105
-46,-56,-6,51,-19,-30,51,15,-44,113,-53,-105
-46,-56,-6,51,-19,-30,51,15,-44,113,-53,-105
-46,-62,-12,51,-19,-36,45,9,-44,113,-53,-99
-46,-62,-12,51,-19,-36,45,9,-44,113,-53,-99
-46,-68,-18,57,-19,-42,39,3,-44,113,-53,-93
-46,-68,-18,57,-19,-42,39,3,-44,113,-53,-93
-52,-74,-18,63,-19,-48,39,9,-38,113,-53,-93
-52,-74,-18,63,-19,-48,39,9,-38,113,-53,-93
-58,-80,-18,69,-19,-48,39,15,-32,113,-53,-93
-58,-80,-18,69,-19,-48,39,15,-32,113,-53,-93
-52,-80,-24,63,-19,-54,33,9,-38,107,-59,-99
-46,-80,-30,63,-13,-54,33,9,-38,107,-59,-99
-40,-80,-36,57,-7,-60,27,3,-44,101,-65,-105
-34,-80,-42,57,-1,-60,27,3,-44,101,-65,-105
-40,-80,-36,57,-7,-60,33,3,-38,107,-59,-99
-46,-80,-30,63,-13,-54,33,3,-38,107,-59,-93
-52,-80,-24,63,-19,-54,39,3,-32,113,-53,-87
-58,-80,-18,69,-19,-48,39,3,-32,113,-53,-81
-58,-74,-12,63,-19,-42,33,-3,-38,107,-59,-87
-58,-74,-12,63,-19,-42,33,-3,-38,107,-59,-87
-58,-68,-6,63,-19,-36,27,-9,-44,101,-65,-93
-58,-68,-6,63,-19,-36,27,-9,-44,101,-65,-93
-64,-74,-6,69,-24,-42,21,-15,-50,95,-71,-99
-64,-80,-12,69,-19,-48,21,-21,-56,89,-71,-105
-70,-86,-12,75,-24,-48,15,-27,-62,83,-77,-111
-70,-92,-18,81,-19,-54,15,-33,-68,77,-77,-117
-64,-98,-30,81,-19,-66,15,-33,-68,77,-83,-117
-64,-98,-30,81,-19,-66,15,-33,-68,77,-83,-117
-58,-104,-42,81,-13,-72,15,-33,-68,77,-89,-117
-58,-104,-42,81,-13,-72,15,-33,-68,77,-89,-117
-52,-98,-42,75,-13,-72,15,-39,-68,71,-89,-117
-52,-98,-42,75,-13,-72,15,-45,-68,71,-89,-117
-46,-92,-42,69,-7,-66,15,-51,-68,65,-89,-117
-46,-92,-42,69,-7,-66,15,-57,-68,65,-89,-117
-52,-92,-36,69,-13,-66,9,-57,-68,59,-89,-117
-58,-92,-30,75,-19,-60,9,-57,-68,59,-89,-117
-64,-92,-24,75,-19,-60,3,-57,-68,53,-89,-117
-70,-92,-18,81,-19,-54,3,-57,-68,53,-89,-117
-64,-98,-30,81,-19,-66,3,-63,-74,53,-95,-123
-64,-98,-30,81,-19,-66,3,-63,-74,53,-101,-123
-58,-104,-42,81,-13,-72,3,-69,-80,53,-107,-129
-58,-104,-42,81,-13,-72,3,-69,-80,53,-113,-129
-58,-110,-48,81,-13,-78,3,-69,-80,47,-107,-129
-58,-110,-48,81,-13,-78,3,-69,-80,47,-107,-129
-58,-116,-54,87,-7,-84,3,-69,-80,41,-101,-129
-58,-116,-54,87,-7,-84,3,-69,-80,41,-101,-129
-64,-116,-48,87,-13,-84,3,-69,-80,41,-101,-129
-64,-116,-48,87,-13,-84,3,-69,-80,41,-101,-129
-70,-116,-42,93,-19,-78,3,-69,-80,41,-101,-129
-70,-116,-42,93,-19,-78,3,-69,-80,41,-101,-129
-70,-122,-48,93,-19,-84,-3,-75,-86,35,-107,-129
-70,-122,-48,93,-19,-84,-3,-75,-86,35,-107,-129
-70,-128,-54,99,-13,-90,-3,-81,-92,29,-113,-129
-70,-128,-54,99,-13,-90,-3,-81,-92,29,-113,-129
-64,-128,-60,93,-7,-96,-3,-87,-92,23,-119,-135
-64,-128,-60,93,-7,-96,-3,-87,-92,23,-119,-135
-58,-128,-66,93,-1,-96,-8,-93,-92,17,-125,-141
-58,-128,-66,93,-1,-96,-8,-93,-92,17,-125,-141
-64,-122,-54,93,-13,-90,-8,-93,-92,23,-125,-141
-70,-122,-48,93,-19,-84,-8,-93,-92,23,-125,-141
-76,-116,-36,93,-19,-78,-8,-93,-92,29,-125,-141
-82,-116,-30,99,-19,-72,-8,-93,-92,29,-125,-141
-76,-122,-42,99,-19,-84,-8,-99,-98,23,-119,-141
-76,-122,-42,99,-19,-84,-8,-99,-98,23,-119,-141
-70,-128,-54,99,-13,-90,-8,-105,-104,17,-113,-141
-70,-128,-54,99,-13,-90,-8,-105,-104,17,-113,-141
-64,-122,-54,93,-13,-90,-14,-105,-104,11,-119,-141
-58,-122,-60,87,-7,-90,-14,-105,-104,5,-125,-141
-52,-116,-60,81,-1,-90,-20,-105,-104,-1,-131,-141
-46,-116,-66,81,5,-90,-20,-105,-104,-7,-137,-141
-52,-122,-66,87,-1,-96,-20,-111,-104,-1,-137,-147
-52,-122,-66,87,-1,-96,-20,-111,-104,-1,-137,-147
-58,-128,-66,93,-1,-96,-20,-117,-104,5,-137,-153
-58,-128,-66,93,-1,-96,-20,-117,-104,5,-137,-153
-52,-128,-72,87,5,-102,-20,-117,-104,5,-131,-147
-52,-128,-72,87,5,-102,-20,-117,-104,5,-131,-147
-46,-128,-78,87,11,-102,-20,-117,-104,5,-125,-141
-46,-128,-78,87,11,-102,-20,-117,-104,5,-125,-141
-52,-122,-66,87,-1,-96,-20,-117,-104,-1,-131,-141
-58,-122,-60,87,-7,-90,-20,-117,-104,-1,-131,-141
-64,-116,-48,87,-13,-84,-20,-117,-104,-7,-137,-141
-70,-116,-42,93,-19,-78,-20,-117,-104,-7,-137,-141
-76,-116,-36,93,-19,-78,-20,-117,-98,-7,-131,-141
-76,-116,-36,93,-19,-78,-20,-117,-98,-7,-131,-141
-82,-116,-30,99,-19,-72,-20,-117,-92,-7,-125,-141
-82,-116,-30,99,-19,-72,-20,-117,-92,-7,-125,-141
-76,-122,-42,99,-19,-84,-20,-117,-98,-7,-131,-141
-70,-128,-54,99,-13,-90,-20,-117,-98,-7,-131,-141
-64,-134,-66,99,-7,-102,-20,-117,-104,-7,-137,-141
-58,-140,-78,99,5,-108,-20,-117,-104,-7,-137,-141
-58,-140,-78,99,5,-108,-20,-117,-98,-7,-137,-141
-58,-140,-78,99,5,-108,-20,-117,-98,-7,-137,-141
-58,-140,-78,99,5,-108,-20,-117,-92,-7,-137,-141
-58,-140,-78,99,5,-108,-20,-117,-92,-7,-137,-141
-64,-140,-72,99,-1,-108,-20,-117,-92,-7,-137,-141
-64,-140,-72,99,-1,-108,-20,-117,-92,-7,-137,-141
-70,-140,-66,105,-7,-102,-20,-117,-92,-7,-137,-141
-70,-140,-66,105,-7,-102,-20,-117,-92,-7,-137,-141
-64,-128,-60,93,-7,-96,-14,-111,-80,-1,-137,-135
-58,-122,-60,87,-7,-90,-8,-111,-68,-1,-137,-135
-52,-110,-54,81,-7,-84,-3,-105,-56,5,-137,-129
-46,-104,-54,75,-1,-78,-3,-105,-44,5,-137,-129
-46,-92,-42,69,-7,-66,-3,-99,-38,11,-131,-123
-40,-74,-30,57,-13,-54,-3,-93,-26,29,-119,-117
-34,-56,-18,45,-13,-36,15,-75,-14,41,-113,-105
-34,-32,6,33,-19,-12,21,-69,-8,53,-101,-99
-28,-20,12,21,-19,-6,27,-63,4,59,-89,-93
-28,-26,6,27,-19,-12,33,-63,10,65,-83,-87
-22,-26,0,21,-19,-12,39,-51,22,77,-71,-75
-22,-32,-6,27,-13,-18,45,-51,40,77,-71,-69
-22,-8,18,15,-19,6,39,-51,34,71,-71,-69
-5,-2,6,3,-13,0,39,-57,34,71,-71,-69
-16,4,24,3,-19,12,33,-57,22,65,-71,-63
-22,10,35,3,-24,24,21,-57,16,65,-71,-63
-16,16,35,-3,-19,24,15,-63,16,65,-65,-57
-5,28,35,-15,-19,30,15,-63,22,65,-65,-57
-5,33,30,-15,-19,35,9,-69,22,65,-53,-51
13,33,12,-15,-1,24,-3,-69,22,65,-53,-51
13,33,12,-15,-1,24,-3,-63,28,71,-59,-45
19,33,6,-20,5,24,-8,-69,28,71,-53,-45
25,33,0,-20,11,18,-3,-63,34,71,-53,-33
37,33,-12,-26,23,12,-8,-63,34,83,-53,-33
37,33,-6,-32,23,18,-8,-63,28,83,-47,-33
49,33,-18,-38,35,12,-20,-75,22,77,-47,-33
49,33,-24,-32,35,6,-26,-75,16,77,-41,-33
43,16,-36,-20,41,-6,-26,-81,10,71,-47,-33
19,4,-24,-15,23,-6,-38,-93,4,59,-53,-33
19,-14,-42,-9,29,-24,-56,-111,-14,41,-59,-45
13,-14,-36,-9,23,-24,-68,-141,-32,35,-65,-57
13,-14,-36,-9,23,-24,-80,-153,-44,23,-77,-57
19,-2,-30,-15,23,-12,-86,-165,-56,17,-89,-75
7,4,-12,-15,11,0,-86,-165,-56,-1,-95,-75
7,-2,-18,-9,11,-6,-92,-171,-56,-7,-101,-81
1,-2,-12,-9,5,-6,-86,-171,-56,-13,-101,-81
7,-14,-30,-3,17,-18,-86,-165,-50,-7,-107,-75
7,-38,-54,9,29,-42,-80,-159,-50,-7,-107,-81
-5,-56,-54,27,23,-54,-74,-147,-38,-1,-107,-75
-5,-74,-78,33,35,-72,-62,-141,-38,-7,-107,-87
-5,-98,-90,51,35,-96,-44,-135,-38,-13,-119,-87
-28,-110,-78,69,17,-96,-44,-129,-32,-13,-125,-93
-52,-128,-72,87,5,-102,-38,-123,-32,-19,-131,-105
-58,-152,-90,105,11,-120,-44,-135,-44,-25,-143,-111
-64,-164,-96,111,11,-132,-44,-141,-50,-43,-149,-129
-64,-170,-102,117,11,-138,-44,-153,-56,-43,-161,-135
-64,-164,-96,111,11,-132,-50,-159,-62,-55,-161,-141
-64,-158,-90,111,5,-126,-50,-165,-62,-61,-161,-147
-70,-164,-90,117,5,-126,-50,-165,-62,-55,-161,-147
-70,-170,-96,117,5,-132,-44,-159,-62,-55,-161,-147
-70,-182,-108,123,11,-144,-44,-159,-62,-49,-161,-153
-76,-188,-108,129,11,-150,-44,-159,-62,-49,-167,-153
-76,-194,-114,135,11,-156,-32,-165,-62,-61,-167,-147
-82,-194,-108,135,5,-150,-32,-165,-62,-61,-167,-147
-76,-200,-120,135,17,-162,-26,-165,-56,-67,-173,-141
-70,-200,-126,135,23,-162,-38,-177,-68,-73,-179,-153
-70,-194,-120,129,17,-156,-44,-177,-68,-73,-185,-159
-76,-200,-120,135,17,-162,-50,-171,-68,-73,-179,-159
-76,-194,-114,135,11,-156,-56,-171,-68,-73,-185,-165
-64,-188,-120,123,23,-156,-62,-171,-68,-73,-191,-165
-82,-188,-102,135,5,-144,-62,-177,-68,-73,-191,-159
-82,-188,-102,135,5,-144,-56,-177,-68,-73,-191,-159
-88,-188,-96,135,-1,-144,-56,-177,-68,-73,-191,-153
-94,-194,-96,141,-7,-144,-56,-177,-68,-73,-191,-153
-94,-200,-102,147,-1,-150,-50,-177,-62,-73,-191,-159
-94,-200,-102,147,-1,-150,-50,-177,-62,-73,-191,-159
-94,-206,-108,147,-1,-156,-44,-177,-56,-73,-191,-171
-94,-206,-114,153,5,-162,-44,-177,-56,-73,-191,-171
-82,-212,-132,147,17,-174,-50,-183,-62,-78,-203,-171
-82,-212,-132,147,17,-174,-56,-183,-68,-78,-203,-171
-82,-218,-138,153,23,-180,-62,-189,-74,-84,-197,-171
-88,-218,-132,153,17,-180,-62,-195,-74,-84,-197,-171
-94,-218,-126,159,11,-174,-56,-189,-68,-84,-197,-171
-88,-218,-132,153,17,-180,-56,-189,-62,-84,-197,-171
-94,-218,-126,159,11,-174,-50,-183,-56,-84,-197,-171
-94,-218,-126,159,11,-174,-50,-183,-56,-84,-197,-171
-94,-212,-120,153,5,-168,-56,-183,-62,-84,-197,-177
-88,-206,-120,147,11,-168,-56,-189,-62,-84,-197,-177
-70,-206,-138,141,29,-174,-62,-195,-68,-90,-203,-183
-64,-206,-138,135,29,-174,-68,-201,-68,-96,-203,-183
-76,-206,-132,141,23,-174,-62,-201,-68,-90,-197,-177
-76,-206,-126,141,17,-168,-62,-201,-68,-90,-197,-171
-82,-200,-114,141,11,-156,-68,-201,-62,-84,-191,-171
-82,-200,-114,141,11,-156,-68,-201,-62,-84,-191,-165
-64,-194,-126,129,23,-162,-80,-213,-80,-96,-203,-183
-64,-188,-120,123,23,-156,-74,-213,-80,-96,-215,-183
-88,-200,-108,141,5,-156,-62,-201,-68,-96,-215,-183
-106,-242,-138,177,11,-192,-32,-177,-38,-96,-227,-195
-118,-290,-174,207,23,-228,3,-117,10,-90,-233,-213
-130,-308,-180,219,17,-240,81,-45,57,-102,-251,-237
-136,-308,-174,225,11,-240,147,26,105,-114,-293,-279
-160,-320,-162,237,-7,-240,207,110,171,-96,-293,-303
-154,-344,-192,243,11,-264,249,200,255,-67,-275,-291
-118,-332,-210,225,41,-270,291,260,327,-13,-239,-267
-64,-296,-228,183,77,-264,279,290,375,77,-155,-213
-16,-260,-240,141,107,-252,195,236,369,167,-59,-123
55,-200,-258,63,161,-222,33,128,333,293,42,-3
199,-80,-282,-50,239,-180,-146,20,303,455,222,152
331,75,-252,-206,293,-84,-314,-51,297,665,432,368
409,273,-132,-338,269,71,-452,-117,303,899,660,578
487,489,0,-488,245,245,-530,-183,327,1115,876,776
553,687,125,-620,215,407,-638,-243,315,1307,1074,968
625,813,185,-722,221,503,-734,-279,321,1475,1242,1124
643,861,215,-746,215,539,-758,-291,339,1583,1374,1238
631,837,203,-734,215,521,-788,-381,249,1529,1356,1256
613,639,30,-626,293,329,-890,-525,52,1247,1110,1112
589,339,-246,-464,425,41,-986,-681,-212,809,702,806
553,111,-444,-332,497,-162,-1064,-933,-554,293,270,494
469,-38,-510,-212,485,-270,-1220,-1365,-1034,-246,-107,218
331,-176,-510,-74,425,-342,-1412,-1833,-1520,-744,-419,-21
163,-242,-414,33,287,-324,-1412,-2019,-1736,-1038,-635,-219
43,-296,-348,123,197,-318,-1262,-1845,-1598,-1044,-689,-303
-5,-344,-342,171,167,-342,-1106,-1575,-1352,-918,-665,-339
-5,-332,-324,171,155,-330,-956,-1365,-1160,-810,-635,-363
-34,-302,-264,171,113,-282,-788,-1179,-968,-726,-599,-363
-88,-290,-204,189,53,-246,-596,-945,-752,-582,-515,-327
-124,-278,-156,201,11,-216,-446,-729,-554,-444,-443,-279
-82,-248,-168,165,35,-204,-344,-597,-428,-354,-395,-249
-52,-200,-144,123,41,-174,-278,-501,-332,-282,-341,-231
-64,-164,-96,111,11,-132,-224,-405,-242,-204,-275,-201
-76,-164,-84,117,-1,-126,-176,-345,-176,-144,-233,-165
-70,-164,-90,117,5,-126,-146,-315,-146,-126,-203,-147
-82,-158,-72,117,-13,-114,-134,-297,-128,-120,-203,-141
-82,-170,-84,123,-7,-126,-104,-255,-92,-108,-203,-141
-88,-182,-90,135,-7,-138,-62,-201,-38,-84,-191,-147
-118,-206,-84,159,-19,-144,-32,-165,-2,-73,-191,-135
-112,-224,-114,171,-7,-174,-14,-123,34,-73,-197,-147
-82,-212,-132,147,17,-174,-3,-105,57,-61,-203,-159
-82,-194,-108,135,5,-150,27,-87,63,-43,-191,-159
-88,-194,-102,141,-1,-150,39,-81,69,-25,-179,-153
-88,-194,-102,141,-1,-150,39,-93,69,-19,-179,-153
-100,-206,-102,153,-7,-156,33,-93,69,-13,-179,-147
-124,-206,-78,165,-19,-144,33,-93,69,-7,-179,-153
-124,-212,-90,171,-19,-156,27,-93,63,-13,-179,-153
-118,-218,-102,171,-13,-162,27,-81,87,-19,-179,-147
-118,-218,-102,171,-13,-162,27,-81,81,-25,-185,-147
-118,-224,-108,171,-13,-168,45,-51,93,-31,-185,-153
-118,-218,-102,171,-13,-162,51,-45,105,-19,-179,-159
-112,-206,-96,159,-13,-156,57,-27,117,-19,-167,-153
-100,-194,-90,147,-13,-144,51,-45,123,-19,-173,-153
-94,-194,-96,141,-7,-144,45,-57,123,-7,-173,-153
-100,-194,-90,147,-13,-144,45,-51,129,5,-161,-165
-106,-194,-84,147,-19,-138,51,-45,135,17,-161,-153
-112,-200,-84,153,-19,-144,57,-39,135,29,-161,-153
-112,-200,-84,153,-19,-144,63,-27,129,35,-167,-153
-106,-194,-84,147,-19,-138,57,-21,129,35,-167,-147
-106,-194,-84,147,-19,-138,57,-9,135,35,-161,-147
-100,-200,-96,147,-7,-150,63,-9,141,35,-143,-141
-100,-200,-96,147,-7,-150,75,-3,147,35,-143,-141
-100,-182,-78,141,-19,-132,75,-3,141,35,-149,-135
-94,-176,-78,135,-13,-126,75,-3,141,35,-137,-135
-94,-164,-66,129,-19,-114,75,-9,141,41,-143,-141
-100,-158,-54,129,-19,-108,75,-9,159,41,-149,-135
-94,-164,-66,129,-19,-114,75,3,165,59,-149,-129
-94,-164,-66,129,-19,-114,75,3,165,59,-143,-129
-88,-164,-72,123,-13,-120,75,9,171,65,-137,-117
-88,-164,-72,123,-13,-120,87,20,177,71,-137,-105
-106,-164,-54,135,-19,-108,93,20,183,77,-131,-99
-88,-170,-78,129,-13,-126,99,20,183,77,-131,-105
-94,-176,-78,135,-13,-126,105,32,189,77,-113,-99
-94,-176,-78,135,-13,-126,105,44,195,89,-107,-93
-94,-158,-60,123,-19,-108,99,50,201,83,-107,-93
-94,-158,-60,123,-19,-108,99,44,201,89,-107,-93
-76,-152,-72,111,-7,-114,93,38,201,83,-113,-99
-88,-152,-60,117,-19,-108,105,32,213,95,-107,-87
-106,-146,-36,123,-30,-90,105,50,225,95,-107,-93
-94,-140,-42,117,-19,-90,105,50,225,95,-107,-93
-64,-134,-66,99,-7,-102,105,50,225,89,-119,-99
-64,-116,-48,87,-13,-84,105,68,231,95,-119,-93
-64,-116,-48,87,-13,-84,111,68,243,101,-107,-75
-70,-116,-42,93,-19,-78,117,74,249,113,-95,-69
-70,-122,-48,93,-19,-84,117,80,261,119,-89,-57
-70,-110,-36,87,-19,-72,117,86,273,119,-83,-57
-64,-110,-42,87,-19,-78,129,98,273,125,-77,-51
-70,-116,-42,93,-19,-78,135,104,285,131,-65,-39
-82,-116,-30,99,-19,-72,141,128,291,149,-59,-33
-88,-116,-24,99,-24,-72,141,134,291,149,-53,-33
-64,-110,-42,87,-19,-78,135,140,297,155,-53,-39
-58,-98,-36,75,-19,-66,135,146,303,167,-47,-33
-46,-86,-36,63,-13,-60,135,152,315,167,-41,-33
-22,-86,-60,51,11,-72,147,164,333,173,-35,-21
-28,-80,-48,51,5,-66,147,164,339,179,-23,-21
-40,-74,-30,57,-13,-54,147,176,345,185,-11,-21
-46,-62,-12,51,-19,-36,147,188,339,191,-11,-3
-28,-38,-6,33,-19,-24,153,206,357,203,-11,3
-28,-32,0,27,-19,-18,153,218,369,203,-5,9
-28,-26,6,27,-19,-12,153,230,369,215,0,9
-28,-14,18,21,-19,0,159,236,387,215,0,15
-28,-8,24,15,-19,6,171,254,399,233,12,20
-28,-2,30,15,-24,12,171,260,411,239,12,20
-16,4,24,3,-19,12,165,260,411,251,18,20
-5,16,24,-9,-19,18,165,272,429,245,24,26
-5,33,35,-15,-19,35,177,284,447,263,42,38
-5,33,41,-15,-19,35,177,296,459,269,48,44
-5,45,47,-15,-19,47,177,308,477,275,48,50
-5,51,47,-20,-19,53,177,314,477,293,66,62
1,57,47,-26,-19,53,177,326,501,311,84,74
7,63,47,-32,-19,59,183,350,525,335,114,98
7,81,65,-44,-19,77,189,362,531,341,126,104
25,87,53,-56,-19,71,183,374,543,353,144,110
37,105,59,-68,-13,83,183,380,549,365,156,128
31,117,77,-74,-19,101,183,380,555,383,162,140
37,141,95,-86,-19,119,183,398,573,407,174,140
37,153,107,-92,-24,131,177,398,585,413,174,158
49,165,107,-104,-19,137,177,410,597,413,186,164
49,177,119,-110,-24,149,183,410,603,419,192,176
49,195,137,-122,-36,167,183,422,615,449,210,188
61,207,137,-134,-30,173,189,422,615,461,228,194
73,219,137,-146,-24,179,177,428,621,467,240,200
85,231,137,-158,-19,185,171,434,627,485,240,218
85,243,149,-164,-24,197,183,434,627,497,258,230
103,237,125,-170,-13,185,189,434,645,509,276,248
109,249,131,-176,-13,191,183,440,651,509,282,248
103,249,137,-176,-19,197,177,440,645,515,282,248
115,249,125,-182,-7,191,165,446,645,521,282,254
109,255,137,-182,-19,197,153,452,645,533,288,254
109,261,143,-182,-19,203,147,458,651,539,294,260
109,273,155,-188,-19,215,129,452,645,533,300,266
127,273,137,-200,-7,209,123,434,633,533,300,266
109,273,161,-194,-19,221,117,422,627,539,306,284
109,273,161,-194,-19,221,117,410,627,551,312,296
115,273,155,-194,-19,221,111,404,615,551,312,296
121,285,161,-206,-19,227,105,404,615,545,306,290
133,285,149,-212,-13,221,105,392,609,533,306,290
139,285,143,-212,-7,221,99,374,591,515,294,284
139,285,143,-212,-7,221,81,362,579,509,288,278
139,285,143,-212,-7,221,69,356,573,509,288,278
133,267,125,-200,-1,197,63,344,549,503,282,272
133,261,119,-194,5,191,63,332,543,485,270,272
127,261,125,-194,-1,197,51,326,537,479,270,266
109,249,131,-176,-13,191,51,320,531,467,270,266
103,237,125,-170,-13,185,45,296,513,455,252,260
103,243,131,-170,-19,191,33,272,489,437,240,248
103,237,125,-170,-13,185,27,266,483,431,240,236
97,237,131,-164,-19,185,27,254,471,419,228,236
97,237,131,-164,-19,185,21,230,459,401,216,224
91,219,119,-152,-19,173,9,212,429,395,210,212
73,189,107,-128,-19,149,9,206,417,365,180,200
67,165,89,-116,-13,131,9,188,405,347,168,194
67,123,47,-92,5,89,21,170,393,335,150,188
55,105,41,-80,5,77,21,152,369,311,138,170
55,111,47,-80,-1,83,9,134,357,293,126,146
49,111,53,-80,-7,83,3,122,339,275,114,128
37,105,59,-68,-13,83,3,104,321,257,96,110
19,81,53,-50,-19,71,3,92,303,251,72,92
19,81,53,-50,-19,71,-3,68,291,227,60,74
7,63,47,-32,-19,59,-3,56,273,209,48,68
7,51,35,-26,-19,47,-8,44,261,185,48,50
-5,33,35,-15,-19,35,-8,38,243,173,42,44
-5,33,35,-15,-19,35,-14,20,231,155,24,32
-5,33,35,-15,-19,35,-14,15,213,143,6,20
-16,16,35,-3,-19,24,-20,-3,207,125,0,20
-28,-2,30,15,-24,12,-14,-9,195,113,-5,20
-28,-20,12,21,-19,-6,-20,-9,177,101,-11,3
-28,-20,12,21,-19,-6,-26,-21,177,95,-23,-9
-28,-26,6,27,-19,-12,-32,-33,171,89,-29,-15
-34,-32,6,33,-19,-12,-32,-39,159,83,-41,-21
-46,-44,6,45,-19,-18,-32,-51,147,65,-53,-27
-58,-50,12,51,-30,-18,-38,-63,147,59,-65,-39
-52,-50,6,51,-24,-24,-44,-69,129,53,-71,-51
-52,-56,0,51,-19,-30,-44,-75,123,47,-83,-63
-52,-56,0,51,-19,-30,-50,-75,117,35,-83,-63
-58,-56,6,57,-24,-24,-50,-81,117,29,-89,-63
-58,-56,6,57,-24,-24,-50,-87,123,23,-89,-63
-58,-68,-6,63,-19,-36,-50,-87,117,17,-89,-63
-52,-62,-6,57,-19,-36,-56,-87,111,11,-89,-69
-52,-62,-6,57,-19,-36,-56,-93,105,11,-95,-69
-82,-56,30,69,-48,-12,-50,-87,105,17,-89,-69
-82,-50,35,63,-54,-6,-50,-87,99,11,-89,-69
-76,-62,18,69,-42,-24,-50,-93,99,5,-95,-75
-76,-80,0,75,-30,-42,-50,-99,99,11,-101,-75
-76,-92,-12,81,-24,-54,-44,-93,99,5,-101,-81
-70,-98,-24,81,-19,-60,-50,-93,93,-7,-101,-87
-64,-98,-30,81,-19,-66,-50,-93,93,-1,-101,-81
-64,-98,-30,81,-19,-66,-50,-105,93,-1,-113,-75
-82,-110,-24,93,-24,-66,-44,-105,99,5,-107,-69
-82,-110,-24,93,-24,-66,-44,-99,105,5,-95,-69
-76,-98,-18,87,-24,-60,-50,-99,105,-1,-101,-75
-76,-92,-12,81,-24,-54,-50,-105,99,-7,-107,-75
-76,-86,-6,81,-30,-48,-56,-105,99,-13,-113,-81
-76,-86,-6,81,-30,-48,-56,-99,99,-19,-107,-81
-76,-86,-6,81,-30,-48,-56,-99,99,-13,-101,-75
-76,-80,0,75,-30,-42,-50,-99,99,-13,-95,-75
-88,-80,12,81,-42,-36,-50,-105,93,-7,-95,-75
-88,-80,12,81,-42,-36,-50,-105,93,-7,-101,-81
-76,-80,0,75,-30,-42,-56,-99,99,-1,-101,-81
-70,-92,-18,81,-19,-54,-56,-99,99,-1,-101,-81
-70,-80,-6,75,-24,-42,-62,-87,105,5,-95,-81
-64,-74,-6,69,-24,-42,-62,-87,105,5,-95,-81
-64,-68,0,63,-24,-36,-50,-87,105,5,-95,-75
-64,-68,0,63,-24,-36,-50,-81,105,5,-95,-69
-64,-68,0,63,-24,-36,-50,-81,123,5,-95,-63
-64,-68,0,63,-24,-36,-50,-81,111,5,-95,-63
-64,-68,0,63,-24,-36,-50,-75,111,5,-89,-63
-64,-68,0,63,-24,-36,-50,-75,111,11,-89,-63
-64,-68,0,63,-24,-36,-50,-69,117,11,-83,-63
-52,-68,-12,57,-19,-42,-38,-69,117,11,-89,-63
-58,-62,0,57,-24,-30,-38,-69,111,11,-89,-63
-58,-62,0,57,-24,-30,-38,-63,117,11,-83,-63
-64,-56,12,57,-30,-24,-44,-63,117,11,-83,-63
-64,-56,12,57,-30,-24,-44,-63,117,11,-83,-63
-76,-50,30,63,-48,-12,-50,-63,117,17,-77,-63
-76,-44,35,57,-48,-6,-44,-57,117,17,-77,-57
-70,-38,35,51,-48,0,-50,-63,117,11,-77,-57
-58,-26,35,39,-42,6,-50,-69,117,11,-83,-57
-52,-20,35,33,-36,6,-56,-75,111,11,-89,-57
-64,-14,41,39,-54,18,-56,-69,117,5,-83,-57
-58,-14,35,33,-48,18,-56,-75,111,5,-83,-63
-58,-26,35,39,-42,6,-56,-75,111,5,-83,-63
-64,-26,35,45,-48,6,-56,-75,111,5,-83,-63
-64,-26,35,45,-48,6,-56,-75,111,5,-83,-63
-70,-20,41,45,-54,18,-62,-75,111,5,-77,-57
-76,-20,47,45,-60,18,-68,-75,111,11,-77,-57
-70,-26,35,45,-54,12,-56,-69,117,17,-71,-45
-70,-26,35,45,-54,12,-50,-69,117,17,-71,-45
-58,-32,30,45,-36,0,-56,-63,123,29,-65,-39
-58,-38,24,45,-36,-6,-50,-69,123,29,-65,-39
-52,-44,12,45,-24,-18,-50,-69,123,29,-71,-45
-52,-50,6,51,-24,-24,-50,-69,123,29,-71,-51
-46,-50,0,45,-19,-24,-50,-69,123,23,-77,-57
-58,-56,6,57,-24,-24,-50,-69,123,23,-77,-57
-64,-56,12,57,-30,-24,-44,-69,117,17,-77,-57
-58,-56,6,57,-24,-24,-50,-81,111,11,-89,-63
-64,-50,18,57,-36,-18,-44,-81,105,5,-89,-63
-64,-56,12,57,-30,-24,-44,-75,105,5,-83,-57
-70,-68,6,69,-30,-30,-50,-81,105,5,-83,-57
-70,-56,18,63,-36,-18,-50,-81,99,5,-89,-57
-82,-44,35,63,-54,0,-56,-99,99,-1,-89,-57
-82,-44,35,63,-54,0,-62,-99,99,-1,-95,-57
-70,-50,24,57,-42,-12,-56,-99,93,-13,-95,-57
-64,-50,18,57,-36,-18,-56,-99,93,-13,-95,-57
-58,-62,0,57,-24,-30,-56,-93,93,-13,-89,-51
-52,-62,-6,57,-19,-36,-62,-99,87,-13,-89,-57
-58,-62,0,57,-24,-30,-62,-99,81,-13,-95,-63
-64,-62,6,63,-30,-30,-56,-99,81,-13,-95,-63
-76,-68,12,69,-36,-30,-56,-105,75,-13,-101,-63
-76,-68,12,69,-36,-30,-56,-111,75,-19,-101,-63
-70,-74,0,69,-30,-36,-56,-111,81,-19,-95,-57
-64,-74,-6,69,-24,-42,-62,-111,81,-19,-95,-57
-58,-80,-18,69,-19,-48,-62,-111,75,-25,-89,-63
-58,-86,-24,69,-19,-54,-62,-111,75,-25,-95,-63
-58,-80,-18,69,-19,-48,-68,-117,75,-31,-101,-69
-64,-68,0,63,-24,-36,-68,-117,75,-31,-101,-69
-64,-50,18,57,-36,-18,-68,-123,75,-37,-107,-75
-64,-38,30,51,-42,-6,-68,-129,69,-43,-113,-75
-70,-44,30,57,-42,-6,-68,-123,75,-37,-107,-69
-70,-56,18,63,-36,-18,-68,-123,75,-37,-101,-69
-64,-62,6,63,-30,-30,-68,-129,75,-31,-95,-63
-64,-62,6,63,-30,-30,-68,-129,75,-37,-101,-69
-76,-68,12,69,-36,-30,-68,-129,81,-43,-101,-69
-64,-74,-6,69,-24,-42,-74,-129,69,-43,-101,-75
-64,-80,-12,69,-19,-48,-74,-129,75,-43,-101,-75
-76,-80,0,75,-30,-42,-74,-129,81,-43,-101,-75
-70,-86,-12,75,-24,-48,-74,-129,81,-43,-107,-75
-70,-92,-18,81,-19,-54,-74,-129,75,-37,-107,-75
-64,-98,-30,81,-19,-66,-74,-129,75,-37,-107,-69
-64,-98,-30,81,-19,-66,-74,-129,75,-37,-107,-69
-58,-86,-24,69,-19,-54,-80,-141,63,-55,-125,-75
-58,-80,-18,69,-19,-48,-80,-147,63,-55,-125,-81
-76,-68,12,69,-36,-30,-80,-147,57,-61,-131,-87
-76,-74,6,75,-36,-36,-80,-147,57,-61,-131,-87
-70,-80,-6,75,-24,-42,-80,-141,63,-55,-119,-81
-70,-80,-6,75,-24,-42,-80,-141,63,-55,-119,-81
-70,-86,-12,75,-24,-48,-80,-129,69,-49,-107,-75
-82,-92,-6,87,-30,-48,-80,-129,69,-49,-107,-75
-76,-92,-12,81,-24,-54,-74,-129,69,-49,-107,-75
-70,-92,-18,81,-19,-54,-80,-135,63,-55,-113,-81
-64,-92,-24,75,-19,-60,-74,-135,63,-55,-113,-81
-64,-92,-24,75,-19,-60,-74,-135,63,-49,-113,-81
-70,-86,-12,75,-24,-48,-80,-141,63,-55,-119,-81
-76,-92,-12,81,-24,-54,-80,-141,63,-55,-119,-75
-76,-86,-6,81,-30,-48,-68,-147,63,-61,-125,-75
-64,-74,-6,69,-24,-42,-86,-147,57,-61,-137,-87
-64,-74,-6,69,-24,-42,-92,-153,57,-61,-131,-81
-64,-74,-6,69,-24,-42,-92,-153,57,-61,-125,-75
-64,-74,-6,69,-24,-42,-92,-141,69,-55,-119,-69
-58,-74,-12,63,-19,-42,-98,-141,69,-55,-113,-69
-64,-80,-12,69,-19,-48,-92,-135,69,-55,-107,-69
-70,-92,-18,81,-19,-54,-86,-135,69,-55,-101,-69
-82,-98,-12,87,-30,-54,-80,-129,69,-55,-101,-69
-88,-98,-6,93,-36,-54,-74,-129,69,-55,-107,-69
-82,-92,-6,87,-30,-48,-80,-135,63,-61,-119,-69
-82,-86,0,81,-36,-42,-80,-147,63,-67,-131,-75
-76,-74,6,75,-36,-36,-86,-153,63,-73,-137,-75
-88,-68,24,75,-48,-24,-86,-159,69,-67,-137,-69
-82,-68,18,75,-42,-24,-86,-153,63,-73,-131,-75
-76,-68,12,69,-36,-30,-86,-153,63,-73,-131,-75
-64,-68,0,63,-24,-36,-92,-153,57,-73,-131,-81
-64,-62,6,63,-30,-30,-86,-153,63,-73,-131,-75
-70,-62,12,63,-36,-24,-86,-153,63,-73,-131,-75
-70,-56,18,63,-36,-18,-86,-153,63,-73,-125,-75
-76,-62,18,69,-42,-24,-86,-159,63,-73,-125,-75
-82,-56,30,69,-48,-12,-80,-159,69,-67,-125,-69
-64,-68,0,63,-24,-36,-92,-165,69,-73,-131,-81
-76,-92,-12,81,-24,-54,-62,-153,75,-61,-119,-75
-82,-86,0,81,-36,-42,-62,-141,87,-61,-113,-63
-70,-56,18,63,-36,-18,-68,-153,75,-67,-125,-81
-64,-44,24,51,-36,-12,-68,-147,81,-61,-119,-75
-58,-38,24,45,-36,-6,-68,-141,81,-61,-119,-69
-52,-26,30,39,-36,0,-68,-135,87,-55,-113,-63
-46,-20,30,33,-30,6,-68,-129,87,-55,-113,-57
-40,-2,35,21,-36,18,-56,-117,105,-31,-95,-39
-34,10,35,9,-36,30,-38,-99,117,-19,-83,-27
-34,33,59,-3,-48,41,-20,-87,129,-1,-65,-9
-28,45,77,-15,-48,59,-14,-81,141,5,-47,-3
-34,45,83,-15,-54,65,-14,-87,141,5,-47,-3
-28,51,83,-15,-54,65,-14,-81,147,11,-41,3
-34,51,89,-15,-60,71,-14,-87,159,5,-47,3
-34,63,101,-15,-66,83,-14,-87,159,5,-47,3
-5,57,65,-20,-30,59,-14,-93,153,5,-47,3
-10,51,65,-15,-36,59,-14,-93,147,5,-47,9
-5,45,53,-15,-24,47,-26,-93,135,5,-47,9
-5,45,47,-15,-19,47,-26,-93,135,5,-47,9
-5,63,65,-26,-30,65,-26,-87,147,11,-41,9
-5,63,65,-26,-30,65,-26,-87,147,11,-35,9
-5,69,65,-32,-24,71,-38,-81,153,17,-29,9
-5,69,65,-32,-24,71,-44,-81,153,23,-29,15
1,69,59,-32,-19,65,-62,-87,153,17,-29,15
13,69,47,-38,-19,59,-62,-87,153,17,-23,20
25,69,35,-44,-7,53,-68,-87,153,23,-29,20
25,81,47,-50,-13,65,-68,-87,147,23,-29,20
43,87,35,-62,-1,65,-86,-105,147,17,-35,20
49,87,35,-68,5,59,-92,-105,141,17,-35,20
49,75,30,-62,11,47,-98,-117,141,11,-47,15
37,63,30,-50,5,41,-104,-123,135,-1,-53,15
25,45,24,-32,5,35,-122,-141,117,-19,-59,9
19,45,30,-32,-1,35,-128,-165,99,-25,-65,-3
7,45,35,-26,-13,41,-140,-177,87,-37,-77,3
1,51,41,-26,-19,47,-140,-183,75,-37,-83,-9
1,45,35,-20,-19,41,-134,-177,81,-49,-83,-9
1,33,30,-15,-13,35,-134,-177,81,-49,-83,-9
7,28,12,-15,-1,24,-122,-171,87,-49,-77,-9
7,16,0,-15,5,12,-122,-171,87,-49,-83,-9
1,4,-6,-9,5,0,-122,-171,87,-43,-83,-15
-16,-2,18,9,-19,6,-116,-165,93,-43,-83,-15
-16,-8,12,9,-19,0,-110,-165,93,-43,-83,-27
-16,-20,0,15,-13,-12,-98,-165,93,-49,-95,-27
-40,-32,12,33,-19,-12,-92,-153,99,-49,-95,-27
-58,-44,18,51,-30,-12,-92,-153,99,-55,-101,-39
-64,-68,0,63,-24,-36,-92,-159,87,-61,-107,-39
-70,-86,-12,75,-24,-48,-92,-159,81,-73,-119,-57
-64,-98,-30,81,-19,-66,-86,-165,81,-73,-125,-57
-58,-98,-36,75,-19,-66,-92,-165,75,-78,-131,-63
-52,-98,-42,75,-13,-72,-86,-165,81,-84,-125,-63
-58,-98,-36,75,-19,-66,-86,-165,81,-84,-125,-63
-58,-104,-42,81,-13,-72,-86,-165,81,-84,-131,-63
-58,-110,-48,81,-13,-78,-86,-165,81,-84,-131,-69
-64,-116,-48,87,-13,-84,-92,-171,81,-84,-143,-69
-70,-116,-42,93,-19,-78,-86,-177,75,-90,-143,-69
-76,-116,-36,93,-19,-78,-80,-177,75,-96,-143,-69
-76,-116,-36,93,-19,-78,-80,-177,75,-96,-149,-69
-70,-116,-42,93,-19,-78,-86,-189,63,-114,-155,-81
-70,-116,-42,93,-19,-78,-86,-189,63,-114,-155,-81
-82,-122,-36,99,-19,-78,-86,-183,69,-108,-149,-87
-82,-122,-36,99,-19,-78,-86,-183,69,-108,-149,-87
-76,-116,-36,93,-19,-78,-86,-183,75,-114,-155,-93
-88,-116,-24,99,-24,-72,-86,-189,75,-114,-155,-93
-82,-116,-30,99,-19,-72,-86,-189,69,-120,-155,-99
-82,-116,-30,99,-19,-72,-92,-189,63,-120,-155,-99
-82,-122,-36,99,-19,-78,-98,-189,57,-126,-155,-105
-82,-122,-36,99,-19,-78,-104,-189,57,-126,-155,-105
-82,-128,-42,105,-19,-84,-104,-183,57,-126,-155,-99
-82,-128,-42,105,-19,-84,-104,-183,57,-126,-155,-105
-82,-140,-54,111,-19,-96,-104,-177,63,-132,-155,-99
-76,-140,-60,105,-13,-102,-104,-177,63,-132,-167,-99
-82,-140,-54,111,-19,-96,-104,-177,63,-132,-167,-99
-88,-140,-48,111,-19,-96,-104,-177,63,-132,-161,-99
-100,-140,-36,117,-24,-90,-98,-183,69,-132,-161,-99
-100,-140,-36,117,-24,-90,-98,-183,69,-132,-161,-99
-94,-140,-42,117,-19,-90,-98,-183,69,-132,-161,-99
-94,-140,-42,117,-19,-90,-98,-183,69,-132,-161,-99
-94,-140,-42,117,-19,-90,-98,-183,63,-132,-161,-99
-100,-140,-36,117,-24,-90,-98,-177,63,-126,-155,-99
-94,-134,-36,111,-24,-84,-92,-177,63,-126,-155,-93
-82,-140,-54,111,-19,-96,-92,-177,63,-126,-155,-93
-76,-134,-54,105,-19,-96,-92,-177,63,-132,-155,-87
-82,-134,-48,105,-19,-90,-92,-177,63,-132,-155,-87
-82,-134,-48,105,-19,-90,-92,-177,63,-132,-149,-87
-82,-122,-36,99,-19,-78,-104,-177,69,-132,-149,-93
-82,-128,-42,105,-19,-84,-104,-177,69,-132,-143,-93
-76,-134,-54,105,-19,-96,-104,-177,63,-132,-143,-87
-100,-164,-60,129,-19,-114,-86,-177,75,-132,-143,-75
-52,-176,-120,111,29,-150,-98,-189,63,-144,-167,-99
-58,-176,-114,117,23,-144,-68,-165,69,-144,-167,-111
-118,-164,-42,141,-30,-102,-8,-93,129,-126,-161,-117
-154,-194,-36,171,-54,-114,57,-9,183,-126,-173,-147
-148,-224,-78,189,-30,-156,147,74,261,-126,-203,-189
-160,-236,-78,201,-36,-162,219,158,309,-120,-215,-201
-130,-212,-84,171,-19,-150,249,224,381,-90,-209,-201
-94,-194,-96,141,-7,-144,279,260,435,-73,-191,-189
-28,-170,-138,99,47,-156,243,260,459,-7,-131,-141
31,-134,-174,45,101,-150,123,188,441,89,-35,-39
127,-68,-204,-20,167,-132,-26,104,417,209,78,56
235,28,-210,-122,221,-90,-218,20,375,377,240,224
367,195,-174,-278,269,18,-410,-51,363,587,468,428
481,405,-72,-440,275,167,-542,-105,399,827,708,638
535,591,47,-560,239,323,-638,-159,435,1067,948,848
601,759,149,-680,221,455,-740,-201,459,1271,1146,1034
673,897,221,-782,221,557,-800,-201,513,1439,1302,1196
691,969,275,-824,209,623,-818,-213,531,1571,1422,1316
691,933,239,-806,221,587,-908,-321,423,1505,1404,1328
709,765,53,-740,323,413,-1052,-477,195,1235,1158,1184
727,471,-258,-596,497,101,-1142,-609,-50,797,780,890
685,195,-486,-440,587,-144,-1220,-837,-380,317,378,584
595,33,-570,-308,581,-264,-1394,-1269,-872,-210,0,320
439,-104,-546,-164,491,-324,-1562,-1761,-1370,-720,-299,86
265,-200,-468,-26,371,-330,-1526,-1959,-1598,-1038,-515,-87
199,-236,-444,15,317,-336,-1382,-1821,-1478,-1080,-605,-201
157,-224,-390,27,269,-306,-1214,-1539,-1220,-966,-593,-243
67,-212,-288,69,179,-246,-986,-1293,-968,-822,-527,-231
-5,-218,-216,111,107,-216,-776,-1059,-758,-714,-461,-213
-40,-188,-144,111,47,-168,-584,-825,-566,-582,-413,-189
-64,-140,-72,99,-1,-108,-434,-639,-392,-492,-359,-177
-22,-110,-84,63,23,-96,-344,-501,-284,-414,-311,-159
-5,-92,-84,45,35,-90,-278,-399,-182,-324,-245,-117
-5,-68,-60,33,23,-66,-224,-321,-92,-252,-185,-81
-16,-56,-36,33,5,-48,-200,-285,-44,-204,-149,-69
-22,-44,-18,33,-7,-30,-170,-255,-2,-174,-119,-51
-34,-50,-12,39,-19,-30,-146,-225,40,-156,-107,-45
-34,-50,-12,39,-19,-30,-128,-201,57,-156,-131,-57
-40,-74,-30,57,-13,-54,-98,-165,81,-156,-143,-75
-34,-86,-48,57,-1,-66,-56,-117,117,-150,-143,-75
-40,-86,-42,63,-7,-66,-3,-63,153,-132,-137,-75
-70,-86,-12,75,-24,-48,21,-21,177,-108,-131,-63
-82,-86,0,81,-36,-42,39,9,207,-90,-107,-51
-76,-80,0,75,-30,-42,39,3,201,-78,-95,-57
-70,-80,-6,75,-24,-42,39,-15,201,-78,-95,-57
-70,-86,-12,75,-24,-48,21,-27,189,-78,-95,-63
-88,-86,6,87,-42,-42,21,-33,189,-78,-95,-69
-82,-86,0,81,-36,-42,15,-33,189,-84,-101,-69
-70,-86,-12,75,-24,-48,15,-21,213,-84,-101,-63
-64,-74,-6,69,-24,-42,15,-21,213,-90,-113,-63
-58,-74,-12,63,-19,-42,33,9,225,-90,-113,-69
-70,-86,-12,75,-24,-48,51,20,237,-73,-101,-63
-76,-86,-6,81,-30,-48,69,44,249,-73,-89,-57
-76,-86,-6,81,-30,-48,75,38,255,-67,-89,-45
-82,-98,-12,87,-30,-54,81,38,255,-55,-89,-45
-82,-92,-6,87,-30,-48,75,32,261,-55,-83,-57
-82,-92,-6,87,-30,-48,75,32,267,-49,-83,-45
-82,-92,-6,87,-30,-48,75,26,267,-49,-89,-45
-76,-92,-12,81,-24,-54,75,32,261,-49,-95,-45
-76,-80,0,75,-30,-42,75,38,261,-43,-89,-45
-76,-80,0,75,-30,-42,75,50,267,-43,-83,-45
-76,-80,0,75,-30,-42,87,50,273,-37,-59,-45
-76,-80,0,75,-30,-42,99,56,279,-37,-59,-45
-70,-68,6,69,-30,-30,93,68,279,-37,-65,-39
-64,-68,0,63,-24,-36,93,68,279,-37,-53,-39
-58,-62,0,57,-24,-30,87,74,285,-31,-59,-45
-64,-62,6,63,-30,-30,87,74,297,-31,-65,-39
-58,-68,-6,63,-19,-36,93,80,297,-19,-59,-33
-58,-68,-6,63,-19,-36,93,80,297,-19,-53,-33
-52,-68,-12,57,-19,-42,99,80,297,-19,-41,-21
-52,-68,-12,57,-19,-42,111,92,303,-13,-41,-9
-64,-56,12,57,-30,-24,111,98,303,-7,-41,-9
-46,-50,0,45,-19,-24,117,98,303,-7,-41,-15
-46,-44,6,45,-19,-18,117,116,303,-7,-29,-15
-46,-32,18,39,-24,-6,117,128,309,5,-23,-9
-52,-26,30,39,-36,0,123,140,321,5,-17,3
-58,-32,30,45,-36,0,123,140,327,11,-17,3
-46,-38,12,39,-24,-12,129,140,333,11,-17,9
-64,-44,24,51,-36,-12,141,140,351,23,-11,20
-82,-38,35,57,-60,6,141,152,363,23,-5,20
-70,-38,35,51,-48,0,141,152,357,23,-5,20
-40,-32,12,33,-19,-12,141,146,357,17,-11,20
-40,-20,24,27,-24,0,141,164,357,23,-11,20
-46,-14,35,27,-36,12,147,170,363,35,-5,20
-58,-14,35,33,-48,18,153,176,369,47,0,26
-64,-14,41,39,-54,18,153,188,375,59,0,26
-70,-2,59,33,-66,35,153,194,387,59,0,26
-46,10,47,15,-48,35,153,194,381,53,0,26
-40,10,41,15,-42,30,159,200,393,59,6,38
-34,22,47,3,-42,35,153,212,393,65,6,38
-28,28,47,-3,-36,35,153,218,393,65,6,38
-22,28,41,-3,-30,35,159,230,405,77,12,38
-22,33,47,-9,-36,35,159,236,411,89,18,44
-28,33,59,-9,-42,41,171,248,423,101,30,50
-10,33,35,-15,-24,35,183,260,441,107,36,62
-16,33,47,-15,-30,35,183,260,447,107,48,62
-28,33,65,-9,-42,47,189,272,453,113,60,62
-34,45,83,-15,-54,65,189,290,447,113,60,80
-16,69,89,-20,-48,77,201,308,465,125,60,86
-16,63,83,-15,-48,71,201,320,489,131,72,98
-16,69,89,-20,-48,77,201,332,489,143,84,104
-16,69,89,-20,-48,77,207,338,519,149,96,116
-16,75,95,-20,-54,83,219,356,531,167,108,134
-10,87,101,-32,-54,95,219,356,531,173,108,134
-5,93,95,-38,-42,95,213,362,531,185,114,134
7,111,95,-56,-36,107,213,368,537,185,120,134
7,135,119,-68,-48,131,225,380,549,203,138,146
1,141,131,-68,-54,137,231,398,561,209,150,158
7,153,137,-80,-54,149,237,416,579,215,150,164
7,159,143,-80,-60,155,237,428,579,233,174,182
13,165,143,-86,-54,155,243,446,603,251,192,194
19,183,155,-98,-60,173,249,464,627,281,216,212
19,207,179,-110,-72,197,255,476,633,287,228,218
37,225,179,-128,-60,203,249,482,645,305,240,218
49,249,191,-146,-60,221,249,488,657,317,246,236
55,255,191,-152,-60,227,255,494,657,323,252,242
67,273,197,-170,-54,239,255,506,675,341,264,242
79,273,191,-176,-48,239,255,512,681,341,264,254
97,279,179,-188,-30,233,255,524,693,335,276,260
91,291,197,-194,-42,251,255,530,705,353,288,278
85,309,221,-200,-60,269,255,542,717,383,306,290
91,321,227,-206,-60,275,255,548,723,407,330,308
97,333,233,-218,-60,281,243,554,729,413,342,314
109,351,239,-230,-54,293,237,560,735,425,348,326
109,363,251,-236,-60,305,243,560,735,437,366,338
127,363,233,-248,-42,299,243,560,753,449,384,350
133,375,239,-254,-42,305,237,566,759,449,390,350
133,387,251,-254,-48,317,237,560,753,443,390,350
145,387,239,-260,-36,311,231,566,753,449,390,356
145,405,257,-272,-48,329,225,566,753,449,396,356
145,411,263,-272,-48,335,219,572,759,455,402,362
145,417,269,-278,-54,341,213,566,759,461,408,368
157,417,257,-284,-42,335,207,554,747,461,408,368
139,417,275,-272,-60,347,213,542,747,479,414,380
133,417,275,-272,-66,347,213,536,747,491,420,392
139,417,275,-272,-60,347,195,530,735,485,420,386
151,429,275,-284,-54,353,183,530,735,479,414,380
163,429,263,-290,-42,347,171,518,729,461,414,374
175,429,251,-296,-30,341,159,506,711,443,402,368
169,429,257,-296,-36,341,153,500,705,449,402,374
169,429,257,-296,-36,341,147,494,699,449,402,374
157,405,245,-278,-36,323,153,488,681,455,402,380
157,399,239,-272,-30,317,159,476,669,437,390,380
163,399,233,-278,-24,317,147,470,663,431,390,368
145,381,233,-260,-36,305,141,464,657,419,390,368
151,369,215,-254,-24,293,135,440,639,413,372,356
151,369,215,-254,-24,293,117,416,615,395,360,338
145,351,203,-248,-19,275,111,410,597,383,348,326
133,351,215,-242,-30,281,111,392,585,371,336,326
127,339,209,-236,-30,275,105,368,561,341,318,314
115,321,203,-218,-36,269,93,350,537,335,312,302
103,309,203,-206,-42,263,87,344,525,317,294,290
97,291,191,-194,-36,245,87,326,513,299,282,284
103,273,161,-188,-19,221,93,308,501,299,276,278
91,261,161,-176,-24,215,93,290,477,275,264,260
91,249,149,-170,-19,203,81,266,459,245,240,242
85,237,143,-158,-19,191,75,254,435,221,234,224
73,213,131,-140,-19,173,75,230,411,191,204,206
55,177,113,-116,-19,149,75,212,387,179,180,188
49,177,119,-110,-24,149,63,194,363,167,168,176
37,159,113,-98,-30,137,57,182,345,149,156,170
31,147,107,-86,-30,131,51,176,327,131,156,158
19,129,101,-74,-30,119,51,170,309,119,150,152
19,129,101,-74,-30,119,39,146,297,101,132,134
19,129,101,-74,-30,119,33,122,279,89,114,122
7,117,101,-62,-36,113,21,98,267,77,102,104
-5,105,101,-50,-42,107,21,86,255,65,90,104
-5,87,83,-38,-36,89,15,74,231,41,78,86
-5,87,83,-38,-36,89,9,62,231,29,66,74
-5,81,77,-38,-30,83,3,38,219,11,54,68
-5,75,77,-32,-36,77,3,32,207,-1,42,62
-10,51,65,-15,-36,59,3,26,201,-7,42,62
-22,45,71,-15,-42,59,-3,20,201,-13,36,50
-16,33,53,-15,-30,41,-3,20,189,-7,42,44
-16,33,47,-15,-30,35,-3,20,183,-13,36,32
-16,33,47,-15,-30,35,-3,20,165,-25,24,26
-22,33,59,-15,-36,47,-3,20,165,-31,18,20
-22,33,59,-15,-36,47,-3,9,159,-37,6,20
-22,33,53,-9,-36,41,-3,9,153,-43,6,20
-16,33,41,-9,-30,35,-8,3,153,-49,6,20
-16,22,35,-3,-24,30,-8,-3,147,-49,0,20
-46,16,53,15,-48,35,-3,-3,153,-43,6,20
-46,10,47,15,-48,35,-3,-3,147,-49,6,20
-46,4,41,21,-42,30,-3,-9,141,-49,6,20
-46,-8,35,27,-36,18,-3,-9,141,-43,0,20
-52,-14,35,33,-42,12,-3,-3,135,-43,6,20
-46,-14,35,27,-36,12,-3,3,129,-55,6,20
-28,-8,24,15,-19,6,-8,-3,123,-61,0,15
-28,-8,24,15,-19,6,-8,-15,123,-67,0,20
-34,-14,24,21,-24,6,-8,-21,123,-73,0,15
-34,-14,24,21,-24,6,-8,-15,129,-73,0,15
-40,-2,35,21,-36,18,-8,-9,135,-73,0,15
-40,-2,35,21,-36,18,-8,-15,129,-73,0,15
-52,4,47,21,-48,30,-8,-9,135,-67,0,15
-52,-2,41,27,-48,24,-8,-3,135,-67,0,15
-40,-2,35,21,-36,18,-8,-3,135,-67,0,20
-34,4,35,15,-30,24,-3,-3,135,-67,6,20
-34,4,35,15,-30,24,-3,-9,129,-67,0,20
-28,4,35,9,-24,18,-3,-9,129,-67,0,15
-28,4,35,9,-24,18,-3,-3,135,-67,0,20
-34,-8,30,21,-24,12,-3,-3,135,-67,0,20
-46,4,41,21,-42,30,-3,9,141,-67,0,20
-52,10,53,21,-54,35,-3,9,141,-67,0,20
-46,16,53,15,-48,35,3,3,135,-73,0,20
-46,16,53,15,-48,35,3,9,135,-73,0,20
-40,16,47,9,-42,35,-3,3,147,-73,0,20
-40,16,47,9,-42,35,-3,3,135,-73,0,20
-40,22,53,9,-48,35,-3,9,135,-73,0,20
-40,28,59,3,-48,35,-3,9,135,-73,0,20
-40,33,65,3,-54,41,-3,15,141,-73,0,20
-28,33,59,-9,-42,41,9,15,141,-73,0,20
-34,33,59,-3,-48,41,9,20,141,-67,0,20
-34,33,59,-3,-48,41,9,20,147,-67,0,20
-40,28,59,3,-48,35,3,20,153,-61,0,20
-40,28,59,3,-48,35,3,20,153,-61,0,20
-46,28,65,9,-54,41,3,20,147,-55,6,20
-46,28,65,9,-54,41,9,26,147,-61,6,20
-34,28,53,3,-42,35,9,20,141,-67,6,20
-22,33,47,-9,-36,35,9,20,141,-73,0,20
-16,33,47,-15,-30,35,-3,20,135,-73,0,20
-22,33,59,-15,-36,47,-3,20,141,-73,0,20
-16,33,53,-15,-30,41,-3,20,135,-73,0,9
-10,33,35,-15,-24,35,-3,20,135,-73,0,9
-16,28,35,-9,-24,35,3,20,141,-73,6,15
-22,22,35,-3,-30,35,9,20,141,-73,6,20
-28,22,41,3,-36,35,15,20,147,-67,18,20
-40,16,47,9,-42,35,15,20,147,-61,18,26
-40,22,53,9,-48,35,15,20,141,-67,12,26
-40,28,59,3,-48,35,15,20,141,-67,12,26
-34,33,59,-3,-48,41,-3,20,135,-67,6,20
-34,33,59,-3,-48,41,-3,15,135,-67,6,20
-28,33,59,-9,-42,41,-3,15,135,-67,0,20
-28,33,59,-9,-42,41,-3,15,135,-67,0,20
-22,39,65,-15,-42,53,-3,15,135,-73,0,15
-34,39,77,-9,-54,59,-3,15,135,-73,0,15
-34,33,71,-9,-48,53,-3,20,135,-73,0,20
-28,33,65,-9,-42,47,-3,9,129,-73,0,15
-28,33,65,-9,-42,47,-3,15,129,-73,0,20
-28,33,59,-9,-42,41,-3,20,129,-73,0,20
-34,22,47,3,-42,35,-3,15,123,-73,6,20
-34,33,59,-3,-48,41,-3,15,117,-73,0,20
-46,33,77,3,-60,53,-8,-3,111,-73,6,20
-46,33,77,3,-60,53,-14,-3,111,-73,0,20
-34,33,59,-3,-48,41,-8,-3,99,-78,0,20
-28,33,53,-3,-42,35,-8,-3,99,-78,0,20
-22,22,35,-3,-30,35,-8,3,93,-73,-5,20
-16,22,35,-3,-24,30,-14,-3,87,-73,-5,15
-22,22,35,-3,-30,35,-14,-3,87,-73,0,15
-34,22,47,3,-42,35,-8,-3,87,-73,0,15
-46,16,53,15,-48,35,-8,-9,87,-73,0,20
-52,16,59,15,-54,35,-8,-15,87,-78,0,20
-46,16,53,15,-48,35,-14,-21,81,-84,0,20
-40,16,47,9,-42,35,-20,-21,81,-84,0,20
-34,16,41,9,-36,35,-26,-27,63,-96,-5,9
-34,10,35,9,-36,30,-26,-27,63,-96,-11,9
-34,4,35,15,-30,24,-26,-27,63,-96,-11,9
-40,4,35,15,-36,24,-26,-27,63,-96,-11,9
-40,10,41,15,-42,30,-20,-27,63,-96,-11,9
-40,10,41,15,-42,30,-20,-33,57,-102,-17,9
-40,16,47,9,-42,35,-26,-33,57,-108,-17,9
-40,10,41,15,-42,30,-26,-33,57,-108,-11,9
-28,16,35,3,-30,30,-32,-45,57,-114,-11,9
-28,22,41,3,-36,35,-32,-45,57,-120,-17,3
-40,22,53,9,-48,35,-26,-45,57,-126,-17,3
-28,16,35,3,-30,30,-32,-45,52,-126,-17,-3
-28,16,35,3,-30,30,-26,-45,52,-126,-17,-3
-40,16,47,9,-42,35,-26,-45,57,-126,-17,-3
-46,10,47,15,-48,35,-20,-39,57,-120,-17,3
-46,-2,35,21,-42,24,-20,-39,52,-114,-17,3
-52,-8,35,27,-42,18,-14,-33,52,-108,-11,15
-52,-14,35,33,-42,12,-14,-33,52,-108,-11,15
-34,-8,30,21,-24,12,-20,-45,46,-120,-17,15
-34,-8,30,21,-24,12,-20,-51,46,-120,-17,9
-40,-2,35,21,-36,18,-20,-51,46,-120,-11,9
-40,-14,30,27,-30,6,-20,-51,46,-120,-11,9
-34,-8,30,21,-24,12,-26,-57,40,-126,-11,3
-34,4,35,15,-30,24,-32,-57,40,-126,-17,-3
-34,10,35,9,-36,30,-38,-57,34,-132,-17,-9
-46,16,53,15,-48,35,-44,-57,34,-132,-23,-15
-46,10,47,15,-48,35,-44,-57,34,-126,-23,-15
-40,10,41,15,-42,30,-50,-63,28,-132,-29,-21
-40,4,35,15,-36,24,-50,-63,28,-126,-29,-21
-40,4,35,15,-36,24,-50,-63,28,-120,-29,-21
-46,4,41,21,-42,30,-50,-63,28,-120,-29,-21
-52,-8,35,27,-42,18,-44,-63,28,-120,-29,-15
-52,-8,35,27,-42,18,-26,-63,28,-120,-29,-15
-40,-2,35,21,-36,18,-38,-63,22,-120,-41,-27
-46,-2,35,21,-42,24,-38,-75,16,-126,-35,-27
-52,-2,41,27,-48,24,-38,-75,16,-126,-29,-21
-58,-2,47,27,-54,30,-32,-69,22,-126,-23,-21
-58,-2,47,27,-54,30,-38,-69,22,-126,-17,-21
-52,-8,35,27,-42,18,-38,-69,22,-120,-17,-15
-52,-20,35,33,-36,6,-38,-69,22,-120,-11,-15
-52,-26,30,39,-36,0,-38,-69,22,-114,-17,-9
-52,-26,30,39,-36,0,-38,-69,22,-114,-23,-9
-52,-20,35,33,-36,6,-38,-63,16,-120,-23,-9
-52,-20,35,33,-36,6,-38,-69,16,-126,-35,-15
-52,-8,35,27,-42,18,-38,-63,16,-132,-29,-15
-64,-8,47,33,-54,24,-38,-63,22,-126,-29,-9
-58,-8,41,33,-48,24,-38,-63,16,-126,-23,-15
-52,-8,35,27,-42,18,-38,-63,10,-126,-23,-15
-40,-8,35,21,-30,12,-44,-69,4,-126,-23,-21
-40,-2,35,21,-36,18,-38,-69,4,-120,-23,-15
-46,-2,35,21,-42,24,-38,-63,4,-126,-29,-9
-46,4,41,21,-42,30,-38,-63,4,-126,-23,-9
-52,-2,41,27,-48,24,-38,-63,4,-132,-29,-3
-58,4,53,27,-54,35,-32,-63,10,-126,-29,3
-58,-2,47,27,-54,30,-38,-63,4,-132,-29,-3
-52,-2,41,27,-48,24,-38,-69,4,-126,-35,3
-40,-2,35,21,-36,18,-44,-75,-2,-132,-35,-3
-34,4,35,15,-30,24,-44,-75,-8,-132,-41,-3
-40,4,35,15,-36,24,-44,-75,-14,-126,-41,-9
-28,16,35,3,-30,30,-44,-75,-14,-126,-41,-9
-34,16,41,9,-36,35,-68,-81,-20,-132,-41,-15
-34,16,41,9,-36,35,-68,-81,-20,-132,-41,-21
-40,-20,24,27,-24,0,-38,-69,-14,-120,-29,-9
-76,-20,47,45,-60,18,-26,-57,-2,-108,-11,3
-40,-2,35,21,-36,18,-44,-69,-2,-120,-23,-9
-46,4,41,21,-42,30,-32,-57,-8,-114,-17,3
-40,16,47,9,-42,35,-26,-51,-2,-108,-11,3
-40,22,53,9,-48,35,-20,-51,-2,-108,-11,3
-34,33,59,-3,-48,41,-14,-45,4,-102,-5,3
-34,33,65,-3,-48,47,-8,-45,4,-102,-5,3
-22,51,77,-15,-48,65,-3,-39,16,-84,0,15
-16,63,83,-15,-48,71,-3,-21,28,-73,0,20
-10,93,107,-32,-54,101,9,-15,34,-73,12,26
-5,117,125,-50,-60,119,9,-9,46,-67,24,32
-5,117,125,-50,-60,119,15,-3,46,-61,36,38
-5,123,125,-56,-60,125,15,3,52,-55,42,44
-5,123,125,-56,-60,125,21,9,57,-55,48,50
-5,135,137,-62,-66,137,21,9,57,-55,48,50
7,135,119,-68,-48,131,15,-3,57,-61,42,44
-5,129,125,-62,-54,131,15,-9,52,-61,42,50
-5,129,131,-56,-60,131,-3,-15,40,-67,36,44
-5,129,131,-56,-60,131,-3,-21,40,-67,36,44
1,141,131,-68,-54,137,-3,-15,40,-67,36,44
7,141,125,-74,-48,137,-3,-15,40,-67,42,44
25,141,107,-80,-30,125,-3,-9,34,-67,42,44
31,141,101,-86,-24,125,-8,-9,34,-61,42,50
37,135,89,-86,-19,113,-20,-9,34,-55,48,50
49,135,77,-92,-19,107,-20,-9,34,-55,54,62
61,129,59,-92,-1,95,-20,-3,34,-37,54,62
61,141,71,-98,-7,107,-20,-3,28,-37,54,62
67,135,59,-98,-1,101,-32,-15,28,-43,60,62
67,135,59,-98,-1,101,-38,-15,22,-43,60,62
55,111,47,-80,-1,83,-38,-21,22,-49,60,62
37,99,53,-68,-13,77,-44,-27,16,-61,54,62
37,87,41,-62,-7,65,-68,-51,-8,-73,42,44
37,87,41,-62,-7,65,-74,-75,-32,-84,36,32
37,93,47,-62,-7,71,-92,-93,-50,-102,18,26
37,99,53,-68,-13,77,-92,-99,-68,-108,12,20
31,99,59,-62,-19,83,-92,-99,-62,-114,6,20
25,87,53,-56,-19,71,-92,-99,-62,-114,6,20
25,81,47,-50,-13,65,-86,-99,-56,-108,6,20
19,75,47,-44,-19,65,-86,-99,-56,-108,0,20
13,57,35,-32,-13,47,-86,-87,-62,-108,0,20
-5,45,53,-15,-24,47,-80,-81,-56,-108,0,20
-5,33,41,-15,-19,35,-74,-69,-62,-114,0,9
-5,28,35,-15,-19,30,-62,-69,-62,-120,0,9
-28,10,35,9,-30,24,-56,-63,-50,-114,0,9
-40,-2,35,21,-36,18,-50,-63,-50,-120,-5,-3
-46,-32,18,39,-24,-6,-50,-75,-56,-120,-11,-3
-46,-50,0,45,-19,-24,-44,-75,-62,-138,-23,-21
-52,-50,6,51,-24,-24,-50,-93,-74,-144,-41,-33
-52,-44,12,45,-24,-18,-62,-93,-86,-162,-47,-39
-58,-32,30,45,-36,0,-68,-105,-92,-174,-53,-51
-70,-26,35,45,-54,12,-74,-105,-98,-180,-53,-51
-64,-44,24,51,-36,-12,-62,-93,-92,-174,-47,-45
-58,-56,6,57,-24,-24,-62,-93,-86,-174,-47,-51
-58,-74,-12,63,-19,-42,-56,-87,-80,-168,-47,-45
-58,-80,-18,69,-19,-48,-50,-93,-80,-174,-47,-45
-64,-74,-6,69,-24,-42,-50,-93,-86,-174,-47,-51
-64,-74,-6,69,-24,-42,-50,-93,-86,-174,-53,-51
-58,-68,-6,63,-19,-36,-62,-105,-104,-186,-59,-69
-58,-68,-6,63,-19,-36,-62,-105,-104,-186,-59,-69
-64,-74,-6,69,-24,-42,-62,-99,-104,-180,-59,-63
-64,-68,0,63,-24,-36,-62,-99,-104,-180,-59,-63
-52,-62,-6,57,-19,-36,-62,-99,-104,-186,-71,-57
-64,-56,12,57,-30,-24,-62,-105,-104,-186,-71,-57
-70,-62,12,63,-36,-24,-50,-99,-104,-180,-65,-57
-70,-68,6,69,-30,-30,-50,-99,-104,-180,-65,-57
-82,-80,6,81,-36,-36,-44,-93,-104,-174,-59,-57
-82,-86,0,81,-36,-42,-44,-93,-104,-174,-59,-57
-76,-86,-6,81,-30,-48,-44,-93,-110,-174,-65,-57
-76,-86,-6,81,-30,-48,-44,-93,-110,-174,-65,-63
-70,-92,-18,81,-19,-54,-44,-93,-116,-180,-71,-63
-64,-92,-24,75,-19,-60,-44,-93,-116,-180,-83,-63
-64,-86,-18,75,-19,-54,-50,-99,-122,-186,-83,-63
-70,-86,-12,75,-24,-48,-50,-99,-122,-186,-77,-63
-76,-80,0,75,-30,-42,-50,-111,-122,-192,-77,-63
-76,-80,0,75,-30,-42,-50,-111,-122,-192,-77,-63
-76,-86,-6,81,-30,-48,-50,-111,-116,-192,-77,-63
-76,-86,-6,81,-30,-48,-50,-111,-116,-192,-77,-63
-82,-92,-6,87,-30,-48,-50,-111,-116,-192,-77,-63
-88,-92,0,87,-36,-48,-50,-105,-116,-186,-71,-63
-94,-86,12,87,-48,-36,-50,-105,-116,-180,-71,-69
-82,-86,0,81,-36,-42,-56,-105,-116,-180,-71,-69
-88,-80,12,81,-42,-36,-62,-105,-116,-180,-71,-75
-94,-74,24,81,-54,-24,-68,-105,-116,-180,-71,-75
-88,-74,18,81,-48,-30,-62,-105,-122,-180,-71,-69
-88,-62,30,75,-54,-18,-74,-105,-116,-180,-71,-75
-82,-68,18,75,-42,-24,-68,-105,-122,-180,-71,-69
-76,-74,6,75,-36,-36,-68,-105,-128,-180,-71,-63
-52,-104,-48,75,-7,-78,-50,-93,-116,-156,-59,-63
-52,-152,-96,99,17,-126,-50,-69,-104,-156,-59,-63
-106,-140,-30,123,-30,-84,-32,-57,-98,-156,-59,-63
-118,-128,-6,123,-48,-66,-3,-33,-74,-162,-65,-69
-106,-146,-36,123,-30,-90,45,15,-44,-174,-89,-99
-124,-158,-30,141,-42,-96,135,86,10,-174,-107,-129
-148,-182,-30,165,-54,-108,219,182,63,-168,-119,-153
-166,-182,-12,171,-72,-96,261,260,123,-150,-113,-153
-142,-158,-12,147,-60,-84,279,308,177,-120,-107,-153
-52,-122,-66,87,-1,-96,255,302,189,-90,-83,-141
7,-98,-114,39,59,-102,159,248,183,-31,-11,-75
67,-68,-144,-9,107,-102,45,188,171,95,102,32
175,33,-144,-98,161,-48,-98,116,165,233,240,164
307,183,-126,-248,221,35,-278,20,141,419,432,344
445,345,-96,-392,269,125,-452,-45,141,629,648,542
547,531,-12,-536,281,263,-578,-99,165,845,840,734
625,747,113,-686,251,431,-686,-141,201,1049,1050,920
673,885,209,-776,227,545,-752,-117,267,1265,1242,1100
715,969,251,-836,227,611,-782,-93,315,1415,1398,1226
745,993,239,-866,251,617,-872,-159,273,1445,1440,1292
751,885,125,-818,311,509,-1004,-291,111,1295,1320,1220
739,621,-120,-680,437,251,-1118,-411,-74,983,1026,1004
739,333,-408,-536,575,-30,-1172,-555,-332,575,660,716
703,117,-582,-410,647,-222,-1310,-909,-740,77,294,440
589,-44,-642,-266,617,-342,-1502,-1413,-1274,-438,-41,206
421,-152,-576,-128,497,-360,-1550,-1809,-1688,-870,-317,20
313,-194,-510,-56,413,-348,-1454,-1833,-1760,-1068,-479,-129
259,-206,-468,-20,365,-336,-1268,-1575,-1550,-1014,-485,-189
163,-194,-360,9,257,-270,-1046,-1269,-1262,-846,-425,-189
49,-140,-198,39,125,-168,-824,-1035,-1040,-726,-353,-165
7,-104,-120,39,65,-108,-632,-813,-848,-630,-317,-165
-5,-116,-120,51,59,-114,-470,-603,-662,-528,-275,-153
-10,-86,-72,45,23,-78,-320,-423,-506,-426,-209,-123
-5,-20,-12,9,-1,-18,-236,-315,-404,-336,-155,-81
7,4,-12,-15,11,0,-188,-261,-338,-300,-113,-57
-5,4,0,-9,-1,6,-152,-219,-290,-252,-65,-33
-22,33,53,-9,-36,41,-122,-189,-248,-210,-35,-3
-34,33,59,-3,-48,41,-110,-171,-218,-192,-23,-9
-22,-2,24,9,-19,12,-104,-129,-194,-192,-35,-33
-5,-38,-30,21,5,-36,-74,-81,-170,-192,-47,-39
-34,-38,0,33,-19,-18,-44,-33,-122,-174,-47,-39
-52,-50,6,51,-24,-24,-3,20,-86,-168,-29,-39
-58,-38,24,45,-36,-6,33,38,-62,-156,-35,-39
-58,-26,35,39,-42,6,63,56,-44,-138,-23,-27
-58,-20,35,39,-42,12,75,56,-38,-120,-5,-27
-52,-20,35,33,-36,6,75,44,-38,-120,-5,-27
-58,-26,35,39,-42,6,69,38,-38,-114,0,-27
-76,-26,41,51,-60,12,69,38,-38,-114,0,-33
-76,-32,35,51,-54,6,63,38,-44,-114,0,-33
-70,-38,35,51,-48,0,63,50,-20,-114,0,-27
-70,-32,35,51,-48,6,63,50,-26,-114,0,-27
-70,-38,35,51,-48,0,81,80,-14,-114,0,-33
-76,-38,35,57,-54,0,99,98,-8,-96,0,-33
-76,-26,41,51,-60,12,111,122,4,-96,12,-27
-70,-14,47,39,-60,24,117,116,4,-90,6,-21
-70,-14,47,39,-60,24,117,110,4,-78,6,-21
-64,-8,47,33,-54,24,111,110,4,-78,6,-33
-64,-8,47,33,-54,24,111,110,10,-73,6,-21
-58,-8,41,33,-48,24,111,110,4,-73,0,-21
-52,-8,35,27,-42,18,111,116,-2,-73,0,-21
-58,4,53,27,-54,35,105,128,4,-73,0,-15
-58,4,53,27,-54,35,105,140,10,-73,0,-15
-64,4,59,27,-60,35,111,146,22,-73,24,-9
-64,4,59,27,-60,35,123,152,28,-73,24,-9
-58,16,65,21,-60,35,123,152,28,-73,18,-3
-52,16,59,15,-54,35,123,152,28,-73,30,-3
-46,22,59,9,-54,35,123,146,34,-73,24,-9
-52,22,65,15,-60,35,123,146,52,-73,18,-3
-52,28,71,9,-60,41,123,152,46,-67,18,-9
-52,28,71,9,-60,41,123,152,46,-67,24,-9
-52,33,83,3,-66,53,123,152,40,-67,30,-9
-52,33,83,3,-66,53,135,164,46,-61,30,3
-64,33,95,9,-78,59,141,170,52,-55,36,9
-46,33,77,3,-60,53,147,170,52,-55,36,3
-46,33,71,3,-60,47,153,188,57,-55,54,9
-46,33,77,3,-60,53,153,200,57,-43,60,15
-46,33,83,-3,-60,59,159,212,57,-37,66,20
-46,33,83,-3,-60,59,165,212,57,-31,66,20
-28,33,59,-9,-42,41,171,212,57,-25,66,20
-40,33,71,-3,-54,47,189,212,69,-13,72,32
-70,33,101,15,-84,65,189,236,93,-7,78,32
-58,33,89,9,-72,59,189,236,93,-7,78,32
-40,33,71,-3,-54,47,189,242,105,-7,72,32
-40,39,83,-9,-60,59,189,260,111,-1,72,38
-40,45,89,-9,-60,65,195,260,111,5,78,44
-46,45,95,-9,-66,71,201,260,117,17,90,50
-46,45,95,-9,-66,71,201,266,117,23,90,50
-46,57,107,-15,-72,83,201,272,129,23,96,50
-40,69,113,-15,-72,89,207,272,123,23,96,50
-40,69,113,-15,-72,89,213,278,135,29,102,62
-52,81,137,-15,-90,107,213,290,135,41,102,62
-52,87,143,-15,-96,113,213,296,135,41,102,62
-34,87,125,-20,-78,107,213,308,147,47,108,68
-28,99,131,-26,-78,113,213,320,153,59,114,74
-22,105,131,-32,-72,119,219,332,165,65,126,86
-5,105,107,-44,-48,107,231,350,183,71,132,98
-5,105,113,-44,-54,107,231,350,189,71,144,92
-16,105,125,-38,-66,113,237,362,195,77,156,92
-22,111,137,-38,-78,125,237,374,189,77,156,104
-5,129,137,-56,-66,131,243,392,207,89,156,110
-5,129,131,-56,-60,131,237,398,225,95,162,116
-5,135,131,-62,-60,137,237,410,225,107,174,116
1,141,131,-68,-54,137,237,410,249,113,180,122
7,147,131,-74,-54,143,249,428,261,131,192,134
-5,159,155,-74,-72,161,255,440,267,149,198,146
1,171,161,-86,-72,167,249,446,267,161,210,146
1,189,179,-92,-78,185,255,464,279,167,222,158
-5,219,215,-104,-102,221,267,476,297,179,240,170
1,219,209,-110,-96,215,267,488,303,179,240,176
13,225,203,-116,-84,215,273,500,315,185,240,182
25,225,191,-122,-72,209,273,506,315,197,246,194
37,225,179,-128,-60,203,279,512,333,215,258,206
31,243,203,-134,-78,227,291,536,357,239,282,224
31,261,221,-146,-84,245,297,548,369,245,294,230
37,273,233,-158,-90,257,297,560,381,257,306,230
49,291,239,-170,-84,269,297,566,399,269,318,248
55,303,245,-182,-84,275,291,566,399,281,330,260
61,327,263,-194,-90,293,291,584,411,305,342,260
73,339,263,-206,-84,299,279,584,417,311,348,272
85,351,263,-218,-78,305,279,596,423,311,360,278
79,357,275,-218,-90,317,285,608,441,329,372,302
79,369,281,-224,-96,329,291,626,453,359,390,314
85,375,281,-230,-90,329,297,638,465,383,414,332
97,381,275,-242,-84,329,291,650,471,389,426,338
109,405,287,-254,-84,347,279,656,477,407,432,350
109,417,299,-260,-90,359,291,650,477,413,450,362
127,423,287,-272,-72,359,291,650,495,425,468,374
133,435,293,-278,-72,365,285,650,501,425,474,374
133,441,299,-284,-78,371,285,650,495,419,468,374
145,441,287,-290,-66,365,273,656,495,425,468,380
145,453,299,-296,-72,377,267,662,495,425,468,380
145,459,305,-296,-72,383,261,668,501,431,474,386
151,465,305,-302,-72,389,255,674,501,437,486,398
169,465,287,-314,-54,377,249,662,489,437,486,398
157,465,299,-308,-66,383,255,662,489,455,504,416
157,465,299,-308,-66,383,255,656,489,467,510,428
151,459,299,-302,-66,383,243,650,483,467,510,428
157,471,305,-308,-66,389,237,650,483,467,504,422
157,465,299,-308,-66,383,237,638,483,455,504,422
163,465,293,-308,-60,383,231,620,465,443,492,416
169,471,293,-314,-54,383,219,614,465,443,492,416
169,471,293,-314,-54,383,207,608,459,443,492,416
169,453,275,-308,-48,365,207,602,447,443,492,416
169,447,275,-302,-42,359,207,590,435,425,486,416
169,453,275,-308,-48,365,201,590,429,425,486,416
151,441,281,-290,-60,365,201,584,423,419,486,416
151,435,275,-290,-54,359,201,566,405,413,468,416
151,441,281,-290,-60,365,189,542,381,407,456,398
157,423,263,-284,-42,341,177,530,369,395,444,374
151,423,269,-284,-48,347,177,512,357,383,432,374
157,411,251,-278,-36,329,165,488,339,353,414,350
151,393,239,-266,-36,317,153,470,309,347,408,338
133,375,239,-254,-42,305,147,464,297,329,390,326
127,357,227,-242,-42,293,147,446,285,311,378,320
127,327,197,-230,-24,269,153,428,267,311,372,314
115,315,197,-218,-30,263,153,410,243,287,360,296
115,309,191,-212,-30,257,141,392,231,269,348,278
109,303,191,-206,-30,251,135,380,213,245,336,266
97,285,185,-194,-36,239,135,362,195,227,318,260
79,261,173,-170,-36,221,135,350,177,215,294,248
79,261,173,-170,-36,221,123,320,147,191,270,224
67,243,167,-152,-42,209,117,302,129,167,252,212
67,231,155,-146,-36,197,111,284,105,149,240,188
55,213,149,-134,-36,185,111,272,87,131,234,176
49,207,149,-128,-42,179,105,260,69,113,222,170
49,201,143,-122,-36,173,99,242,57,107,204,158
31,183,143,-104,-48,167,93,224,52,95,198,152
19,165,137,-92,-48,155,93,218,40,89,186,152
13,147,125,-80,-48,137,87,212,22,71,180,134
13,141,119,-74,-42,131,81,200,22,59,168,122
7,135,119,-68,-48,131,75,182,16,47,162,116
1,123,113,-62,-48,119,75,176,4,35,150,110
-5,111,119,-44,-60,113,75,158,-14,23,144,104
-16,111,131,-38,-72,119,69,146,-20,17,138,92
-16,111,131,-38,-72,119,63,134,-44,17,138,80
-16,111,131,-38,-72,119,63,128,-56,11,132,68
-10,99,113,-38,-60,107,57,128,-68,-1,126,68
-16,99,119,-32,-66,107,57,122,-68,-7,120,62
-10,87,101,-32,-54,95,57,116,-68,-13,114,62
-10,75,89,-26,-48,83,57,116,-74,-19,114,56
-5,69,71,-26,-30,71,45,110,-86,-37,102,50
-5,63,65,-26,-30,65,45,104,-92,-37,96,50
-22,57,83,-15,-48,71,45,104,-98,-43,90,50
-22,57,83,-15,-48,71,45,104,-104,-49,90,50
-10,63,77,-20,-42,71,39,92,-104,-49,84,44
-10,57,71,-15,-36,65,39,86,-104,-43,78,44
-5,63,71,-20,-36,65,39,86,-104,-43,78,38
-5,69,71,-26,-30,71,33,86,-110,-55,78,32
-5,75,71,-32,-30,77,27,86,-116,-55,78,32
-5,75,77,-32,-36,77,27,74,-116,-55,66,38
-16,69,89,-20,-48,77,27,74,-116,-55,72,38
-22,69,95,-15,-54,83,27,80,-110,-55,84,38
-22,69,95,-15,-54,83,33,86,-110,-55,84,38
-22,69,95,-15,-54,83,33,80,-116,-55,78,38
-28,63,95,-15,-60,77,39,86,-116,-55,78,38
-28,57,89,-15,-54,71,39,92,-116,-55,84,38
-22,51,77,-15,-48,65,39,98,-116,-55,84,38
-22,57,83,-15,-48,71,45,98,-116,-55,90,38
-28,51,83,-15,-54,65,45,98,-122,-55,84,32
-28,51,83,-15,-54,65,45,98,-122,-55,78,26
-22,57,83,-15,-48,71,45,98,-122,-61,78,32
-22,45,71,-15,-42,59,45,98,-122,-61,78,32
-28,63,95,-15,-60,77,45,104,-122,-67,84,38
-28,69,101,-15,-60,83,45,104,-122,-67,84,38
-28,75,107,-15,-66,89,57,104,-116,-67,84,32
-28,75,107,-15,-66,89,57,110,-116,-67,84,38
-28,75,107,-15,-66,89,57,110,-92,-67,84,32
-28,75,107,-15,-66,89,57,110,-104,-67,84,32
-22,75,101,-20,-60,89,57,110,-116,-67,84,32
-22,75,101,-20,-60,89,57,110,-116,-61,84,32
-16,75,95,-20,-54,83,57,110,-122,-61,84,32
-5,75,83,-26,-42,77,69,110,-122,-61,78,32
-10,69,83,-20,-42,77,69,110,-122,-55,84,38
-10,63,77,-20,-42,71,69,116,-116,-55,90,38
-16,57,77,-15,-42,65,63,116,-110,-49,96,44
-16,51,71,-15,-42,59,63,116,-110,-49,96,44
-34,57,95,-15,-60,77,69,122,-104,-43,102,38
-34,57,95,-15,-60,77,75,128,-104,-43,102,44
-34,63,101,-15,-66,83,81,128,-98,-49,102,38
-22,69,95,-15,-54,83,81,122,-98,-49,96,38
-16,75,95,-20,-54,83,75,122,-98,-43,96,44
-22,81,107,-20,-60,95,75,128,-92,-49,102,44
-16,81,101,-26,-54,89,75,128,-92,-43,108,44
-10,69,83,-20,-42,77,75,128,-92,-43,108,44
-16,69,89,-20,-48,77,75,122,-98,-49,102,38
-16,69,89,-20,-48,77,75,122,-98,-49,102,38
-22,75,101,-20,-60,89,69,116,-104,-55,102,38
-28,75,107,-15,-66,89,63,116,-104,-49,102,38
-28,75,107,-15,-66,89,69,116,-110,-55,102,38
-28,75,107,-15,-66,89,69,116,-110,-55,102,38
-22,75,101,-20,-60,89,57,116,-116,-55,102,32
-22,69,95,-15,-54,83,57,110,-116,-55,102,32
-28,63,95,-15,-60,77,63,116,-110,-49,96,38
-28,57,89,-15,-54,71,63,116,-110,-49,96,32
-34,57,95,-15,-60,77,69,122,-104,-49,90,38
-46,51,101,-9,-72,77,69,122,-104,-49,90,38
-40,45,89,-9,-60,65,69,116,-104,-55,96,38
-34,45,83,-15,-54,65,63,104,-110,-61,84,32
-28,45,77,-15,-48,59,63,98,-110,-67,90,32
-28,39,71,-15,-48,53,63,104,-110,-67,96,38
-28,33,59,-9,-42,41,63,104,-110,-61,90,32
-28,45,77,-15,-48,59,63,104,-116,-61,84,32
-34,57,95,-15,-60,77,63,92,-116,-61,78,26
-34,63,101,-15,-66,83,57,92,-116,-61,72,26
-34,69,107,-15,-66,89,57,86,-128,-67,72,20
-34,69,107,-15,-66,89,57,86,-128,-67,72,20
-40,69,113,-15,-72,89,51,86,-134,-61,78,20
-40,69,113,-15,-72,89,45,80,-140,-61,78,20
-40,63,107,-15,-72,83,45,86,-140,-67,78,20
-46,63,113,-15,-78,89,51,92,-140,-67,78,20
-52,51,107,-9,-78,77,51,92,-140,-73,78,20
-52,51,107,-9,-78,77,51,92,-140,-73,78,20
-40,45,89,-9,-60,65,51,86,-140,-73,72,26
-34,45,83,-15,-54,65,45,86,-140,-73,72,26
-22,39,65,-15,-42,53,45,80,-152,-73,66,20
-22,33,59,-15,-36,47,45,80,-152,-73,60,20
-22,33,59,-15,-36,47,45,80,-158,-78,66,20
-28,33,65,-9,-42,47,45,80,-158,-78,66,20
-28,45,77,-15,-48,59,51,80,-164,-84,72,20
-28,45,77,-15,-48,59,51,74,-170,-90,66,20
-34,45,83,-15,-54,65,45,74,-170,-90,60,20
-34,39,77,-9,-54,59,45,74,-170,-90,66,20
-28,39,71,-15,-48,53,39,62,-176,-90,60,20
-28,45,77,-15,-48,59,39,62,-176,-96,54,15
-40,39,83,-9,-60,59,39,62,-170,-96,54,15
-28,33,65,-9,-42,47,33,62,-182,-96,54,9
-28,33,59,-9,-42,41,33,62,-176,-90,54,9
-40,33,71,-3,-54,47,33,62,-170,-90,54,9
-46,33,71,3,-60,47,39,68,-164,-90,54,15
-46,22,59,9,-54,35,39,68,-170,-84,60,15
-52,16,59,15,-54,35,45,74,-164,-84,66,20
-52,10,53,21,-54,35,45,74,-164,-84,72,20
-34,22,47,3,-42,35,33,62,-176,-96,54,20
-34,28,53,3,-42,35,33,56,-176,-96,54,15
-40,33,71,-3,-54,47,27,56,-182,-96,48,9
-40,33,65,3,-54,41,27,56,-182,-96,48,9
-34,28,53,3,-42,35,33,50,-182,-90,48,9
-34,33,59,-3,-48,41,33,50,-182,-90,48,9
-34,28,53,3,-42,35,39,50,-188,-84,48,9
-46,28,65,9,-54,41,39,50,-188,-84,48,9
-40,33,65,3,-54,41,33,50,-182,-90,48,3
-34,33,59,-3,-48,41,27,44,-188,-96,42,-3
-28,33,59,-9,-42,41,21,44,-182,-102,42,-9
-28,33,59,-9,-42,41,21,44,-182,-96,42,-9
-34,33,59,-3,-48,41,21,50,-182,-90,48,-3
-40,22,53,9,-48,35,27,50,-182,-90,48,3
-40,16,47,9,-42,35,45,56,-176,-84,54,9
-28,22,41,3,-36,35,33,56,-182,-84,42,-3
-34,22,47,3,-42,35,27,44,-188,-90,36,-3
-40,22,53,9,-48,35,27,44,-188,-90,42,3
-46,22,59,9,-54,35,27,50,-188,-90,36,3
-46,22,59,9,-54,35,21,50,-188,-90,42,3
-46,22,59,9,-54,35,27,44,-188,-96,42,3
-46,16,53,15,-48,35,27,44,-188,-96,48,3
-52,16,59,15,-54,35,33,38,-188,-102,42,3
-52,22,65,15,-60,35,33,38,-188,-102,36,3
-52,22,65,15,-60,35,33,38,-194,-102,36,3
-52,22,65,15,-60,35,33,32,-194,-108,24,-3
-52,28,71,9,-60,41,33,32,-194,-108,30,-3
-64,28,83,15,-72,47,33,32,-188,-102,30,3
-64,22,77,21,-72,41,33,38,-194,-102,36,-3
-58,22,71,15,-66,41,33,38,-194,-102,36,-3
-52,16,59,15,-54,35,27,38,-200,-102,36,-9
-52,22,65,15,-60,35,33,38,-194,-96,36,-3
-58,22,71,15,-66,41,33,44,-194,-96,36,-9
-58,22,71,15,-66,41,33,44,-194,-96,42,-9
-64,16,71,21,-66,35,33,44,-194,-96,42,-15
-70,16,77,27,-72,41,39,44,-188,-90,42,-9
-70,22,83,21,-78,47,33,44,-194,-96,42,-9
-64,22,77,21,-72,41,39,44,-188,-90,42,-3
-52,33,77,9,-66,47,33,38,-194,-96,42,-3
-46,33,77,3,-60,53,39,44,-194,-96,42,-3
-52,33,77,9,-66,47,45,44,-200,-90,42,-9
-40,33,65,3,-54,41,45,44,-200,-90,42,-3
-46,28,65,9,-54,41,27,38,-206,-96,42,-9
-46,16,53,15,-48,35,27,38,-206,-96,42,-9
-40,10,41,15,-42,30,33,44,-206,-90,42,-3
-40,10,41,15,-42,30,33,38,-200,-108,54,-9
-40,10,41,15,-42,30,39,44,-206,-114,42,-15
-34,16,41,9,-36,35,39,38,-212,-120,30,-15
-40,16,47,9,-42,35,39,38,-218,-108,30,-15
-46,16,53,15,-48,35,39,38,-212,-108,30,-9
-40,4,35,15,-36,24,33,38,-218,-114,36,-9
-46,10,47,15,-48,35,33,38,-218,-114,36,-9
-52,22,65,15,-60,35,39,38,-218,-114,42,-9
-58,22,71,15,-66,41,39,38,-212,-114,42,-3
-58,10,59,21,-60,35,33,32,-212,-126,30,-9
-64,22,77,21,-72,41,27,26,-224,-126,30,-9
-5,4,12,-3,-13,6,27,26,-236,-138,12,-21
-28,4,35,9,-24,18,33,32,-224,-126,36,-9
-46,28,65,9,-54,41,57,44,-200,-108,36,-9
-46,33,77,3,-60,53,69,56,-200,-108,42,-9
-46,33,77,3,-60,53,63,62,-206,-102,42,-9
-40,33,77,-3,-54,53,69,68,-200,-96,48,-3
-40,39,83,-9,-60,59,69,68,-200,-96,54,3
-34,45,83,-15,-54,65,75,74,-194,-90,60,9
-34,51,89,-15,-60,71,75,74,-194,-90,66,15
-28,75,107,-15,-66,89,69,74,-182,-73,78,20
-22,93,119,-26,-66,107,81,86,-182,-73,84,20
-22,123,149,-44,-84,137,81,86,-176,-61,96,32
-16,153,173,-62,-90,161,81,86,-170,-55,108,32
-10,141,155,-56,-78,149,87,86,-170,-49,108,32
-5,135,143,-56,-72,137,93,92,-164,-43,114,38
-5,123,125,-56,-60,125,99,92,-152,-43,108,38
-5,123,125,-56,-60,125,105,92,-152,-43,108,38
7,123,107,-62,-42,119,105,86,-158,-49,108,38
-5,117,113,-56,-48,119,105,86,-164,-49,108,44
-5,117,119,-50,-54,119,93,86,-176,-55,108,44
-5,117,119,-50,-54,119,93,86,-176,-55,108,44
-5,135,137,-62,-66,137,87,80,-170,-55,108,50
-5,141,137,-68,-60,143,87,80,-170,-55,114,50
1,147,137,-74,-60,143,69,74,-170,-55,114,56
7,153,137,-80,-54,149,63,74,-170,-49,114,62
19,153,125,-86,-42,143,39,68,-176,-49,114,56
37,153,107,-92,-24,131,39,68,-176,-49,120,68
55,153,89,-104,-19,125,27,68,-182,-37,114,62
61,165,95,-110,-19,131,27,68,-182,-37,114,62
67,159,83,-110,-13,125,21,62,-182,-43,114,62
61,153,83,-104,-13,119,15,62,-182,-43,114,62
49,129,71,-86,-13,101,21,62,-182,-49,108,62
25,111,77,-68,-19,95,15,56,-182,-61,102,62
25,99,65,-62,-19,83,-3,32,-206,-73,102,50
25,105,71,-62,-19,89,-3,15,-230,-73,96,38
25,111,77,-68,-19,95,-8,-3,-248,-84,90,38
25,123,89,-74,-24,107,-8,-15,-266,-84,84,26
7,117,101,-62,-36,113,-3,-9,-260,-96,78,32
1,105,95,-50,-36,101,-3,-9,-260,-96,78,32
-5,93,95,-38,-42,95,-3,-3,-254,-96,78,38
-5,87,95,-32,-48,89,-3,-3,-254,-96,72,38
-10,63,77,-20,-42,71,3,3,-260,-96,66,26
-40,51,95,-15,-66,71,9,9,-254,-96,66,26
-40,33,77,-3,-54,53,21,15,-260,-102,60,20
-40,28,59,3,-48,35,33,15,-260,-108,48,20
-58,10,59,21,-60,35,33,20,-248,-108,42,20
-70,-2,59,33,-66,35,33,20,-248,-114,36,9
-70,-32,35,51,-48,6,27,9,-254,-120,24,9
-70,-50,24,57,-42,-12,27,9,-260,-138,12,-9
-64,-56,12,57,-30,-24,15,-9,-272,-138,0,-21
-52,-56,0,51,-19,-30,3,-9,-278,-150,0,-27
-46,-50,0,45,-19,-24,-3,-21,-284,-156,0,-39
-46,-50,0,45,-19,-24,-3,-21,-284,-156,0,-39
-58,-50,12,51,-30,-18,-3,-15,-284,-156,0,-39
-64,-56,12,57,-30,-24,-3,-15,-284,-156,0,-45
-82,-56,30,69,-48,-12,3,-15,-284,-156,0,-45
-94,-56,35,75,-60,-6,9,-21,-290,-162,0,-45
-88,-62,30,75,-54,-18,9,-21,-296,-162,0,-45
-76,-62,18,69,-42,-24,9,-21,-296,-162,-5,-45
-58,-68,-6,63,-19,-36,-3,-33,-314,-174,-17,-57
-46,-68,-18,57,-19,-42,-3,-33,-314,-174,-23,-57
-58,-80,-18,69,-19,-48,-3,-27,-308,-168,-17,-63
-58,-80,-18,69,-19,-48,-3,-27,-308,-168,-17,-63
-52,-80,-24,63,-19,-54,-3,-27,-302,-174,-23,-69
-64,-80,-12,69,-19,-48,-3,-33,-302,-174,-23,-69
-70,-74,0,69,-30,-36,-3,-33,-308,-174,-23,-69
-70,-68,6,69,-30,-30,-3,-33,-308,-174,-23,-69
-82,-68,18,75,-42,-24,-8,-33,-314,-174,-23,-69
-82,-62,24,69,-48,-18,-8,-33,-314,-174,-23,-69
-88,-68,24,75,-48,-24,-3,-27,-308,-174,-17,-63
-94,-74,24,81,-54,-24,-3,-27,-302,-174,-17,-69
-100,-86,18,93,-54,-36,-3,-21,-296,-180,-11,-63
-100,-92,12,93,-48,-42,3,-21,-290,-180,-23,-63
-94,-86,12,87,-48,-36,-3,-27,-302,-186,-29,-69
-94,-86,12,87,-48,-36,-3,-27,-302,-192,-29,-69
-94,-80,18,87,-48,-30,-3,-39,-308,-198,-35,-75
-88,-80,12,81,-42,-36,-3,-39,-308,-204,-41,-75
-82,-86,0,81,-36,-42,-3,-39,-308,-198,-41,-75
-82,-86,0,81,-36,-42,-3,-39,-308,-198,-41,-75
-82,-92,-6,87,-30,-48,-3,-39,-314,-192,-41,-75
-88,-92,0,87,-36,-48,-3,-33,-314,-186,-35,-75
-88,-86,6,87,-42,-42,-3,-33,-308,-186,-29,-69
-76,-92,-12,81,-24,-54,-3,-33,-308,-186,-29,-69
-76,-86,-6,81,-30,-48,-3,-33,-302,-192,-23,-63
-82,-86,0,81,-36,-42,-3,-33,-302,-192,-23,-63
-82,-92,-6,87,-30,-48,-3,-27,-302,-192,-23,-57
-82,-86,0,81,-36,-42,-3,-27,-296,-192,-23,-63
-82,-98,-12,87,-30,-54,-3,-21,-296,-192,-23,-57
-76,-110,-30,93,-19,-72,-3,-21,-302,-192,-23,-51
-76,-104,-24,87,-19,-66,9,-9,-290,-192,-23,-51
-88,-104,-12,93,-30,-60,9,-9,-290,-192,-35,-63
-106,-116,-6,111,-42,-60,27,3,-284,-192,-35,-75
-118,-140,-18,129,-42,-78,63,26,-272,-210,-65,-117
-118,-170,-48,141,-30,-108,129,98,-218,-222,-101,-159
-136,-194,-54,165,-36,-126,219,194,-158,-222,-119,-189
-136,-194,-54,165,-36,-126,273,284,-80,-204,-119,-189
-118,-170,-48,141,-30,-108,333,386,4,-162,-89,-177
-106,-146,-36,123,-30,-90,387,464,81,-96,-47,-141
-64,-122,-54,93,-13,-90,363,458,117,-43,12,-93
7,-98,-114,39,59,-102,237,362,87,41,96,-15
139,-32,-180,-44,161,-102,81,260,52,143,198,80
301,87,-210,-194,257,-54,-98,164,22,305,372,248
427,267,-162,-344,293,47,-278,80,10,515,582,452
523,453,-72,-488,299,191,-404,26,46,743,798,650
583,639,47,-608,263,347,-494,-3,69,959,1014,860
637,813,173,-728,227,497,-578,-21,105,1151,1218,1058
685,969,275,-824,203,623,-638,-21,147,1313,1374,1220
703,1047,341,-872,179,701,-668,-45,129,1385,1458,1304
715,969,251,-836,227,611,-734,-147,22,1283,1404,1292
727,723,-6,-728,371,353,-842,-303,-182,1001,1146,1112
727,411,-318,-566,527,41,-932,-477,-458,575,744,806
685,183,-498,-434,593,-156,-1040,-777,-848,83,354,506
571,33,-534,-302,557,-240,-1220,-1269,-1364,-432,0,242
427,-80,-510,-170,467,-294,-1376,-1725,-1838,-894,-275,20
277,-152,-438,-56,359,-288,-1364,-1869,-2006,-1164,-485,-147
187,-194,-384,-3,281,-282,-1220,-1659,-1844,-1140,-533,-231
133,-206,-342,27,233,-270,-1034,-1365,-1562,-990,-467,-231
43,-182,-228,63,137,-204,-836,-1119,-1346,-882,-413,-213
-58,-140,-78,99,5,-108,-638,-897,-1148,-786,-365,-201
-88,-116,-24,99,-24,-72,-458,-687,-938,-654,-293,-177
-52,-104,-48,75,-7,-78,-338,-507,-788,-540,-239,-153
-22,-98,-72,57,17,-84,-242,-387,-674,-450,-185,-123
-28,-68,-36,45,-1,-54,-176,-291,-578,-372,-131,-93
-16,-20,0,15,-13,-12,-152,-237,-524,-318,-89,-69
-5,28,35,-15,-19,30,-140,-207,-488,-300,-65,-57
-34,33,65,-3,-48,47,-110,-177,-446,-270,-47,-51
-70,-2,59,33,-66,35,-74,-135,-410,-264,-35,-45
-70,-38,35,51,-48,0,-32,-81,-362,-252,-47,-45
-64,-38,30,51,-42,-6,-3,-9,-308,-228,-35,-27
-70,-50,24,57,-42,-12,39,38,-260,-198,-23,-27
-76,-74,6,75,-36,-36,69,80,-224,-180,-17,-27
-82,-74,12,75,-42,-30,93,98,-212,-156,-11,-27
-70,-50,24,57,-42,-12,99,92,-206,-150,0,-39
-64,-44,24,51,-36,-12,99,86,-212,-144,0,-45
-58,-38,24,45,-36,-6,99,74,-218,-144,0,-45
-58,-44,18,51,-30,-12,81,62,-230,-150,0,-51
-76,-38,35,57,-54,0,81,62,-236,-150,0,-57
-82,-50,35,63,-54,-6,87,74,-230,-150,-5,-51
-76,-56,24,63,-42,-18,87,86,-206,-150,-5,-45
-82,-56,30,69,-48,-12,99,98,-200,-150,-17,-39
-82,-62,24,69,-48,-18,117,128,-188,-150,-17,-45
-82,-68,18,75,-42,-24,123,134,-182,-132,-11,-45
-82,-56,30,69,-48,-12,135,152,-182,-132,0,-39
-70,-50,24,57,-42,-12,129,134,-182,-126,-5,-33
-70,-50,24,57,-42,-12,129,122,-182,-114,-5,-33
-70,-44,30,57,-42,-6,123,122,-182,-120,0,-45
-70,-44,30,57,-42,-6,123,122,-182,-120,0,-33
-70,-44,30,57,-42,-6,123,122,-182,-126,-5,-33
-64,-44,24,51,-36,-12,123,128,-188,-132,-11,-33
-64,-38,30,51,-42,-6,123,140,-182,-120,-5,-27
-64,-38,30,51,-42,-6,123,152,-170,-120,0,-27
-64,-44,24,51,-36,-12,135,158,-152,-108,12,-21
-64,-44,24,51,-36,-12,147,164,-140,-108,12,-21
-70,-32,35,51,-48,6,147,170,-140,-102,6,-15
-64,-32,35,45,-42,0,147,170,-140,-102,18,-15
-70,-26,35,45,-54,12,147,170,-134,-90,12,-21
-76,-26,41,51,-60,12,147,170,-116,-90,6,-15
-76,-32,35,51,-54,6,153,176,-122,-84,6,-15
-76,-32,35,51,-54,6,153,176,-122,-90,12,-15
-76,-32,35,51,-54,6,159,176,-128,-96,18,-9
-76,-32,35,51,-54,6,171,188,-122,-96,18,3
-82,-26,47,51,-66,18,165,188,-116,-90,12,3
-58,-26,35,39,-42,6,165,188,-116,-90,6,-3
-52,-26,30,39,-36,0,159,200,-110,-90,12,-3
-46,-20,30,33,-30,6,153,212,-104,-78,12,3
-52,-2,41,27,-48,24,159,218,-98,-78,24,3
-58,-2,47,27,-54,30,159,218,-98,-73,24,3
-46,4,41,21,-42,30,165,212,-98,-73,30,-3
-64,4,59,27,-60,35,177,212,-86,-73,36,9
-82,4,77,39,-78,35,171,230,-74,-67,36,15
-64,4,59,27,-60,35,171,230,-74,-67,36,15
-34,4,35,15,-30,24,165,230,-74,-67,24,20
-28,16,35,3,-30,30,165,248,-68,-61,24,20
-34,22,47,3,-42,35,177,260,-56,-55,30,26
-46,22,59,9,-54,35,183,260,-44,-43,42,32
-52,22,65,15,-60,35,189,278,-32,-37,42,38
-58,33,83,9,-72,53,189,284,-14,-37,48,38
-46,33,77,3,-60,53,189,284,-20,-37,54,38
-46,33,77,3,-60,53,195,290,-8,-31,60,50
-52,33,89,3,-66,59,189,302,-8,-19,66,50
-52,39,95,-3,-72,65,189,308,-8,-19,66,50
-40,39,83,-9,-60,59,189,314,4,-13,72,50
-40,45,89,-9,-60,65,189,320,10,-1,78,56
-40,51,95,-15,-66,71,195,326,22,5,90,62
-22,45,71,-15,-42,59,207,338,40,11,96,74
-16,51,71,-15,-42,59,213,344,52,17,108,74
-22,51,77,-15,-48,65,219,356,57,23,126,74
-16,63,83,-15,-48,71,225,374,57,29,126,92
-5,81,77,-38,-30,83,237,392,63,41,132,98
1,87,77,-44,-30,83,231,392,69,41,132,98
1,99,89,-50,-36,95,225,398,63,53,138,98
7,111,95,-56,-36,107,225,392,75,53,138,98
7,123,107,-62,-42,119,231,404,81,71,144,110
-5,117,113,-56,-48,119,237,416,93,83,150,122
1,117,107,-56,-42,113,231,428,99,95,156,122
1,117,107,-56,-42,113,237,446,117,95,168,134
-5,135,131,-62,-60,137,243,464,141,113,186,146
1,141,131,-68,-54,137,243,476,153,125,198,158
7,153,137,-80,-54,149,249,494,171,137,198,164
19,159,131,-86,-48,149,249,500,171,161,222,182
25,165,131,-92,-42,149,255,512,195,179,240,194
31,183,143,-104,-48,167,261,524,201,197,246,206
31,207,167,-116,-60,191,261,530,201,197,252,206
49,225,167,-134,-48,197,255,530,195,203,252,200
61,249,179,-152,-48,215,249,530,201,209,258,212
55,261,197,-158,-60,233,249,536,207,221,270,230
61,273,209,-170,-66,245,249,554,225,245,282,230
61,285,221,-176,-72,257,243,560,237,251,288,254
73,291,215,-182,-60,257,243,572,249,251,300,260
79,297,215,-188,-60,263,237,572,255,263,306,266
85,315,227,-200,-60,275,237,584,267,293,324,272
103,321,215,-212,-48,275,237,584,267,311,342,278
121,333,209,-230,-36,275,225,590,273,317,354,278
121,345,221,-236,-42,281,219,596,279,329,354,296
115,357,239,-236,-54,299,237,590,279,335,366,308
121,351,227,-236,-42,287,237,590,297,341,378,326
121,363,239,-242,-48,299,237,590,297,335,378,326
127,357,227,-242,-42,293,237,590,303,341,384,338
139,351,209,-248,-24,281,231,596,303,353,384,344
145,351,203,-248,-19,275,225,602,315,365,396,356
145,351,203,-248,-19,275,219,608,321,377,402,362
145,369,221,-254,-30,293,201,602,315,371,408,362
163,381,215,-266,-19,299,195,584,303,365,408,356
145,393,245,-266,-42,317,189,572,297,371,414,362
145,405,257,-272,-48,329,189,560,297,377,420,368
145,399,251,-266,-42,323,177,554,297,377,420,374
151,411,257,-278,-42,335,171,554,297,377,414,368
157,405,245,-278,-36,323,165,542,297,365,414,374
163,405,239,-278,-30,323,159,524,291,353,402,368
163,405,239,-278,-30,323,153,518,285,359,402,368
163,405,239,-278,-30,323,141,512,279,359,402,368
157,381,221,-266,-24,299,147,506,261,365,402,368
157,375,215,-260,-19,293,147,500,249,347,390,368
157,375,215,-260,-19,293,135,494,237,341,384,362
139,363,221,-254,-30,293,129,488,231,329,384,362
139,351,209,-248,-24,281,123,464,207,317,360,356
139,357,215,-248,-30,287,105,440,183,299,348,338
145,345,197,-248,-19,275,99,434,177,293,342,326
139,345,203,-242,-24,275,99,416,171,281,330,326
145,339,191,-242,-19,269,93,392,159,257,318,314
139,321,179,-230,-19,257,81,374,135,251,312,302
115,303,185,-212,-24,251,75,368,123,227,288,284
103,285,179,-194,-30,239,69,350,111,209,276,278
97,261,155,-176,-19,209,75,332,99,203,264,266
79,249,161,-164,-30,209,69,314,75,179,252,254
79,255,167,-164,-36,215,63,296,63,167,234,230
73,249,167,-158,-36,209,57,278,57,143,222,212
61,243,173,-152,-48,209,63,260,40,125,192,194
43,213,161,-128,-48,191,63,248,22,113,168,176
43,201,149,-122,-42,179,57,230,4,89,150,152
31,177,137,-104,-42,161,51,218,-14,71,138,146
31,153,113,-92,-30,137,51,212,-26,47,132,122
19,129,101,-74,-30,119,51,206,-44,35,126,116
13,123,101,-68,-36,113,45,182,-62,23,114,110
13,117,95,-62,-30,107,39,164,-80,17,96,104
-5,99,95,-44,-42,101,33,140,-92,11,90,98
-5,81,89,-32,-42,83,33,134,-104,5,78,104
-5,81,83,-32,-36,83,27,128,-122,-7,72,86
-5,87,89,-38,-42,89,21,116,-122,-19,66,74
-5,99,95,-44,-42,101,15,98,-128,-25,60,68
-5,99,101,-44,-48,101,15,92,-140,-37,54,62
-10,75,89,-26,-48,83,21,80,-158,-55,42,62
-22,69,95,-15,-54,83,15,68,-158,-67,36,50
-16,57,77,-15,-42,65,15,62,-182,-73,30,44
-16,51,71,-15,-42,59,15,56,-182,-73,24,32
-22,45,71,-15,-42,59,3,50,-194,-90,12,20
-28,45,77,-15,-48,59,-3,38,-194,-96,0,20
-34,39,77,-9,-54,59,-3,26,-194,-108,0,15
-34,33,65,-3,-48,47,-3,20,-200,-114,-5,9
-28,33,59,-9,-42,41,-8,20,-206,-120,-5,9
-34,33,59,-3,-48,41,-8,20,-212,-120,-11,9
-64,33,89,15,-78,53,-3,20,-212,-114,-5,15
-70,33,95,15,-84,59,-3,20,-218,-120,-5,15
-64,33,89,15,-78,53,-3,20,-212,-114,-5,20
-64,22,77,21,-72,41,-3,20,-212,-108,-11,20
-64,22,77,21,-72,41,-3,20,-206,-102,-5,20
-58,22,71,15,-66,41,-3,20,-212,-114,-5,20
-40,22,53,9,-48,35,-3,20,-218,-120,-11,15
-40,22,53,9,-48,35,-3,15,-218,-120,-23,20
-46,10,47,15,-48,35,-3,15,-218,-126,-23,15
-46,10,47,15,-48,35,-3,20,-212,-126,-11,15
-52,22,65,15,-60,35,-3,20,-212,-126,-17,9
-52,22,65,15,-60,35,-3,20,-218,-126,-23,9
-64,28,83,15,-72,47,-3,20,-218,-126,-29,3
-64,22,77,21,-72,41,-3,20,-218,-126,-23,3
-52,22,65,15,-60,35,-3,20,-212,-132,-23,3
-52,28,71,9,-60,41,-3,20,-212,-132,-23,3
-52,28,71,9,-60,41,-3,20,-212,-138,-29,-3
-52,28,71,9,-60,41,-3,20,-212,-138,-41,-9
-40,33,65,3,-54,41,-8,20,-218,-138,-41,-9
-40,22,53,9,-48,35,-8,20,-218,-138,-41,-9
-40,33,71,-3,-54,47,-14,20,-224,-138,-35,-9
-40,33,77,-3,-54,53,-14,20,-224,-138,-35,-9
-40,39,83,-9,-60,59,-8,20,-230,-138,-35,-3
-40,39,83,-9,-60,59,-8,20,-230,-138,-35,3
-40,39,83,-9,-60,59,-14,20,-218,-138,-35,9
-40,39,83,-9,-60,59,-14,20,-230,-138,-35,9
-46,33,83,-3,-60,59,-8,20,-230,-132,-29,15
-52,33,89,3,-66,59,-3,20,-224,-126,-29,15
-58,33,89,9,-72,59,-3,26,-218,-120,-23,20
-52,33,83,3,-66,53,9,26,-212,-120,-29,20
-46,33,77,3,-60,53,3,20,-218,-126,-29,15
-40,33,71,-3,-54,47,3,26,-212,-126,-23,15
-34,33,65,-3,-48,47,-3,20,-212,-132,-23,9
-28,33,59,-9,-42,41,-3,20,-212,-132,-23,9
-46,33,77,3,-60,53,-3,32,-206,-114,-17,15
-52,33,83,3,-66,53,-3,38,-206,-114,-17,20
-52,33,83,3,-66,53,-3,44,-200,-108,-17,20
-46,33,83,-3,-60,59,-3,38,-200,-108,-23,20
-40,39,83,-9,-60,59,-3,32,-206,-114,-29,20
-52,45,101,-3,-72,71,-3,32,-206,-126,-29,15
-46,45,95,-9,-66,71,-3,26,-212,-132,-29,3
-46,33,83,-3,-60,59,-3,20,-218,-138,-35,-3
-40,33,71,-3,-54,47,-3,20,-212,-132,-35,-3
-40,33,65,3,-54,41,3,20,-212,-132,-35,-3
-34,33,59,-3,-48,41,3,20,-206,-126,-29,3
-40,28,59,3,-48,35,3,20,-206,-120,-29,3
-40,33,71,-3,-54,47,3,20,-206,-126,-29,3
-40,33,77,-3,-54,53,3,20,-206,-126,-29,3
-34,45,83,-15,-54,65,-3,20,-206,-126,-29,-3
-34,45,83,-15,-54,65,-3,20,-206,-126,-29,-3
-34,39,77,-9,-54,59,-3,20,-212,-132,-35,-3
-34,39,77,-9,-54,59,-3,20,-212,-132,-35,-9
-34,39,77,-9,-54,59,-3,15,-218,-144,-41,-9
-46,39,89,-3,-66,65,-3,15,-218,-144,-41,-9
-40,33,71,-3,-54,47,-3,15,-218,-144,-41,-9
-34,33,59,-3,-48,41,-8,3,-224,-150,-53,-15
-28,28,47,-3,-36,35,-8,3,-224,-150,-53,-15
-28,16,35,3,-30,30,-8,9,-224,-150,-47,-9
-34,4,35,15,-30,24,-8,9,-218,-144,-41,-3
-40,16,47,9,-42,35,-8,9,-224,-138,-47,-3
-52,28,71,9,-60,41,-8,-3,-218,-138,-41,3
-58,28,77,15,-66,47,-14,-3,-218,-132,-47,3
-46,33,71,3,-60,47,-14,-9,-236,-150,-59,-9
-46,33,71,3,-60,47,-14,-9,-236,-150,-59,-9
-40,33,65,3,-54,41,-20,-9,-248,-156,-65,-15
-40,33,65,3,-54,41,-26,-15,-254,-156,-65,-21
-40,28,59,3,-48,35,-32,-15,-254,-162,-71,-27
-46,28,65,9,-54,41,-26,-15,-254,-168,-71,-27
-52,16,59,15,-54,35,-32,-21,-254,-174,-77,-27
-52,16,59,15,-54,35,-32,-27,-254,-186,-77,-27
-46,10,47,15,-48,35,-26,-27,-254,-180,-71,-21
-40,10,41,15,-42,30,-32,-27,-254,-180,-71,-21
-34,4,35,15,-30,24,-26,-27,-266,-180,-65,-27
-34,-2,35,15,-30,18,-26,-27,-266,-180,-71,-27
-46,-2,35,21,-42,24,-20,-27,-266,-180,-71,-27
-58,-2,47,27,-54,30,-20,-27,-266,-180,-71,-27
-70,10,71,27,-72,35,-8,-27,-266,-180,-71,-27
-76,10,77,33,-78,35,-8,-33,-272,-186,-77,-27
-70,4,65,33,-66,35,-20,-39,-272,-192,-83,-33
-64,-2,53,33,-60,30,-26,-39,-272,-192,-83,-33
-46,-8,35,27,-36,18,-38,-57,-278,-198,-89,-39
-40,-2,35,21,-36,18,-44,-57,-278,-204,-101,-45
-58,-2,47,27,-54,30,-38,-51,-272,-204,-101,-39
-52,-8,35,27,-42,18,-44,-51,-284,-198,-101,-45
-58,-8,41,33,-48,24,-38,-45,-278,-192,-101,-39
-76,-8,59,39,-66,30,-38,-45,-272,-186,-101,-39
-64,-2,53,33,-60,30,-44,-51,-278,-192,-107,-45
-58,-2,47,27,-54,30,-50,-51,-290,-192,-107,-45
-46,4,41,21,-42,30,-56,-57,-296,-198,-107,-45
-40,10,41,15,-42,30,-62,-57,-302,-204,-107,-45
-34,4,35,15,-30,24,-62,-63,-302,-210,-113,-39
-40,-2,35,21,-36,18,-62,-69,-302,-210,-113,-45
-58,-8,41,33,-48,24,-56,-63,-296,-204,-107,-39
-64,-26,35,45,-48,6,-56,-63,-296,-204,-107,-39
-52,-20,35,33,-36,6,-62,-69,-296,-210,-107,-45
-52,-14,35,33,-42,12,-62,-69,-296,-210,-113,-45
-46,-8,35,27,-36,18,-68,-69,-296,-216,-113,-51
-58,-8,41,33,-48,24,-68,-69,-296,-216,-119,-51
-64,-8,47,33,-54,24,-62,-63,-296,-210,-113,-45
-58,-8,41,33,-48,24,-68,-69,-302,-216,-119,-51
-64,-8,47,33,-54,24,-62,-63,-302,-210,-113,-45
-64,-8,47,33,-54,24,-62,-63,-302,-204,-113,-45
-64,-8,47,33,-54,24,-68,-69,-308,-204,-107,-51
-64,-20,35,39,-48,12,-62,-75,-308,-204,-107,-45
-58,-20,35,39,-42,12,-50,-81,-314,-204,-101,-51
-40,-14,30,27,-30,6,-62,-87,-320,-204,-113,-63
-46,-20,30,33,-30,6,-68,-93,-320,-216,-119,-69
-52,-20,35,33,-36,6,-68,-93,-320,-216,-119,-63
-58,-26,35,39,-42,6,-68,-81,-308,-222,-125,-69
-58,-26,35,39,-42,6,-74,-81,-308,-222,-125,-69
-58,-20,35,39,-42,12,-80,-87,-314,-228,-125,-69
-58,-26,35,39,-42,6,-80,-87,-314,-228,-119,-69
-64,-20,35,39,-48,12,-86,-93,-320,-234,-125,-69
-64,-14,41,39,-54,18,-86,-93,-320,-234,-131,-69
-70,-8,53,39,-60,30,-80,-93,-320,-228,-131,-63
-70,-8,53,39,-60,30,-80,-99,-320,-234,-137,-69
-76,4,71,33,-72,35,-74,-99,-314,-228,-131,-63
-88,4,83,39,-84,35,-74,-99,-308,-222,-125,-57
-82,-8,65,45,-72,35,-68,-93,-308,-228,-119,-63
-70,-14,47,39,-60,24,-68,-93,-308,-228,-119,-63
-58,-26,35,39,-42,6,-68,-93,-308,-234,-119,-69
-52,-26,30,39,-36,0,-62,-93,-302,-228,-119,-63
-58,-20,35,39,-42,12,-68,-93,-308,-234,-125,-63
-52,-14,35,33,-42,12,-74,-93,-314,-234,-125,-63
-58,-14,35,33,-48,18,-80,-99,-320,-240,-131,-63
-58,-8,41,33,-48,24,-80,-99,-320,-234,-137,-57
-70,-14,47,39,-60,24,-86,-99,-326,-234,-137,-63
-70,-20,41,45,-54,18,-80,-99,-320,-228,-137,-63
-70,-20,41,45,-54,18,-86,-105,-326,-228,-137,-69
-70,-20,41,45,-54,18,-80,-99,-326,-228,-137,-75
-76,-14,53,45,-66,24,-74,-105,-326,-228,-143,-75
-64,-2,53,33,-60,30,-74,-105,-326,-228,-143,-69
-70,4,65,33,-66,35,-92,-117,-326,-240,-149,-69
-70,4,65,33,-66,35,-92,-117,-326,-240,-149,-69
-64,16,71,21,-66,35,-86,-117,-332,-252,-137,-57
-52,28,71,9,-60,41,-86,-117,-332,-240,-143,-57
-52,22,65,15,-60,35,-68,-105,-308,-228,-131,-57
-34,28,53,3,-42,35,-56,-93,-302,-210,-113,-57
-46,33,71,3,-60,47,-50,-87,-296,-204,-107,-51
-52,33,77,9,-66,47,-44,-81,-290,-204,-107,-45
-64,33,95,9,-78,59,-38,-75,-284,-198,-101,-39
-70,33,101,15,-84,65,-32,-69,-278,-198,-101,-33
-58,45,107,-3,-78,77,-32,-69,-278,-186,-95,-27
-46,57,107,-15,-72,83,-20,-57,-272,-180,-95,-21
-40,81,125,-15,-78,101,-14,-57,-278,-174,-89,-15
-28,105,137,-32,-78,119,-14,-57,-272,-174,-83,-15
-28,111,143,-32,-84,125,-20,-63,-272,-168,-77,-15
-22,117,143,-38,-78,131,-20,-57,-266,-162,-71,-9
-22,123,149,-44,-84,137,-26,-63,-254,-162,-71,-9
-22,135,161,-50,-90,149,-26,-63,-254,-162,-71,-9
-10,129,143,-50,-72,137,-26,-69,-254,-168,-71,-9
-22,123,149,-44,-84,137,-26,-69,-260,-168,-71,-3
-34,117,155,-32,-90,137,-38,-69,-266,-174,-71,-3
-34,117,155,-32,-90,137,-38,-69,-266,-174,-71,-3
-22,123,149,-44,-84,137,-44,-69,-260,-168,-65,3
-16,123,143,-44,-78,131,-44,-69,-260,-168,-59,3
-5,117,119,-50,-54,119,-62,-69,-260,-162,-53,9
-5,117,113,-56,-48,119,-68,-69,-260,-156,-53,15
-5,111,107,-50,-48,113,-80,-75,-254,-156,-47,15
1,111,101,-56,-42,107,-80,-75,-254,-156,-41,20
7,105,89,-56,-30,101,-80,-75,-248,-144,-41,20
1,117,107,-56,-42,113,-80,-75,-254,-144,-41,20
19,123,95,-68,-30,113,-98,-87,-260,-156,-41,20
25,123,89,-74,-24,107,-104,-87,-266,-156,-41,20
25,111,77,-68,-19,95,-110,-93,-272,-168,-47,15
13,99,77,-56,-24,89,-116,-99,-278,-180,-53,15
19,87,59,-50,-19,77,-128,-111,-290,-192,-65,9
19,93,65,-56,-19,83,-128,-135,-308,-198,-71,-3
25,99,65,-62,-19,83,-134,-141,-314,-204,-89,3
25,111,77,-68,-19,95,-128,-147,-326,-204,-95,-9
7,105,89,-56,-30,101,-134,-153,-332,-222,-101,-15
1,93,83,-44,-30,89,-134,-153,-332,-222,-101,-15
-5,81,83,-32,-36,83,-134,-159,-338,-228,-101,-21
-5,75,83,-26,-42,77,-134,-159,-338,-228,-107,-21
-16,57,77,-15,-42,65,-128,-147,-332,-228,-107,-27
-52,45,101,-3,-72,71,-122,-141,-326,-228,-107,-27
-58,33,95,3,-72,65,-110,-129,-320,-234,-107,-39
-64,28,83,15,-72,47,-98,-129,-320,-240,-119,-39
-76,22,89,27,-84,47,-104,-135,-320,-246,-131,-45
-82,10,83,33,-84,41,-104,-141,-320,-252,-137,-57
-76,-8,59,39,-66,30,-116,-165,-338,-264,-155,-63
-70,-26,35,45,-54,12,-116,-171,-344,-282,-167,-81
-70,-38,35,51,-48,0,-122,-183,-350,-282,-179,-93
-64,-38,30,51,-42,-6,-128,-183,-356,-294,-185,-99
-64,-38,30,51,-42,-6,-134,-189,-356,-300,-185,-111
-70,-38,35,51,-48,0,-134,-189,-356,-300,-185,-111
-76,-50,30,63,-48,-12,-122,-177,-350,-294,-185,-105
-76,-62,18,69,-42,-24,-116,-177,-344,-294,-185,-111
-88,-74,18,81,-48,-30,-110,-171,-338,-288,-191,-105
-94,-80,18,87,-48,-30,-98,-177,-338,-294,-191,-105
-94,-74,24,81,-54,-24,-104,-177,-338,-294,-197,-105
-94,-74,24,81,-54,-24,-104,-177,-338,-294,-203,-105
-82,-68,18,75,-42,-24,-122,-189,-350,-306,-215,-117
-82,-68,18,75,-42,-24,-122,-189,-350,-306,-215,-117
-88,-86,6,87,-42,-42,-116,-183,-344,-300,-209,-123
-88,-86,6,87,-42,-42,-116,-183,-344,-300,-209,-123
-76,-92,-12,81,-24,-54,-110,-183,-338,-306,-215,-129
-88,-92,0,87,-36,-48,-110,-189,-338,-306,-215,-129
-88,-86,6,87,-42,-42,-110,-195,-344,-312,-215,-129
-88,-86,6,87,-42,-42,-116,-195,-344,-312,-215,-129
-94,-86,12,87,-48,-36,-122,-201,-350,-312,-215,-129
-94,-86,12,87,-48,-36,-128,-201,-350,-312,-215,-129
-88,-86,6,87,-42,-42,-134,-201,-350,-312,-215,-129
-88,-86,6,87,-42,-42,-134,-201,-350,-312,-215,-135
-82,-92,-6,87,-30,-48,-140,-201,-350,-318,-215,-135
-76,-92,-12,81,-24,-54,-140,-201,-350,-318,-227,-135
-82,-86,0,81,-36,-42,-140,-201,-350,-318,-233,-135
-94,-86,12,87,-48,-36,-140,-201,-350,-318,-227,-135
-106,-80,30,93,-60,-24,-134,-207,-344,-318,-233,-135
-112,-80,35,93,-66,-24,-134,-207,-344,-318,-233,-135
-106,-92,18,99,-54,-36,-128,-207,-332,-318,-233,-129
-106,-98,12,99,-54,-42,-128,-207,-332,-318,-233,-129
-106,-110,0,105,-48,-54,-122,-207,-326,-318,-233,-123
-112,-116,0,111,-48,-60,-122,-201,-326,-312,-227,-123
-100,-110,-6,105,-42,-60,-116,-207,-326,-312,-227,-129
-82,-116,-30,99,-19,-72,-116,-207,-326,-312,-227,-129
-70,-110,-36,87,-19,-72,-116,-213,-326,-318,-227,-135
-70,-110,-36,87,-19,-72,-116,-213,-326,-318,-227,-135
-76,-104,-24,87,-19,-66,-116,-219,-326,-318,-233,-135
-76,-92,-12,81,-24,-54,-128,-219,-320,-318,-233,-141
-82,-92,-6,87,-30,-48,-128,-219,-320,-318,-239,-141
-76,-98,-18,87,-24,-60,-128,-219,-326,-318,-239,-135
-88,-128,-36,105,-19,-84,-110,-201,-290,-300,-215,-123
-100,-92,12,93,-48,-42,-122,-219,-302,-312,-239,-135
-106,-104,6,105,-48,-48,-116,-219,-296,-330,-257,-171
-118,-164,-42,141,-30,-102,-80,-177,-260,-336,-263,-177
-130,-206,-72,165,-24,-138,-26,-105,-206,-348,-287,-219
-136,-206,-66,171,-30,-138,51,-21,-158,-360,-329,-255
-136,-194,-54,165,-36,-126,135,50,-92,-342,-341,-279
-130,-194,-60,159,-30,-126,195,140,-8,-306,-323,-267
-94,-182,-84,135,-13,-132,243,242,69,-252,-281,-255
-52,-158,-102,105,17,-132,267,278,153,-162,-215,-213
-16,-110,-90,63,29,-102,195,260,171,-73,-119,-123
31,-56,-96,3,65,-72,69,164,135,35,-17,-15
151,39,-108,-92,131,-24,-98,56,81,167,126,128
307,219,-90,-260,203,59,-302,-51,46,341,324,308
421,381,-36,-398,227,173,-464,-141,46,569,540,530
481,519,35,-500,221,281,-554,-195,69,809,780,752
529,711,173,-620,179,443,-650,-255,69,1025,1014,968
589,885,287,-740,149,587,-740,-315,63,1217,1212,1160
607,981,365,-788,119,677,-770,-327,93,1385,1374,1316
607,1005,389,-800,107,701,-800,-381,46,1397,1416,1376
637,933,287,-782,173,611,-902,-537,-152,1151,1224,1262
637,693,47,-662,293,371,-1022,-711,-416,713,828,974
589,381,-204,-488,401,83,-1064,-897,-704,197,378,632
487,129,-360,-308,431,-108,-1160,-1233,-1118,-336,-11,344
355,-32,-396,-158,377,-210,-1364,-1725,-1628,-870,-359,86
199,-140,-342,-20,269,-234,-1460,-2031,-1958,-1248,-623,-111
115,-212,-336,45,221,-270,-1358,-1959,-1910,-1338,-731,-243
121,-212,-342,39,227,-276,-1202,-1701,-1676,-1236,-725,-291
67,-194,-264,57,167,-222,-1022,-1467,-1448,-1092,-671,-303
-58,-176,-114,117,23,-144,-848,-1257,-1238,-984,-623,-291
-76,-140,-60,105,-13,-102,-692,-1035,-1046,-888,-575,-291
-64,-80,-12,69,-19,-48,-536,-837,-848,-774,-521,-267
-106,-74,35,87,-66,-18,-416,-669,-692,-660,-455,-237
-136,-68,59,99,-96,0,-326,-537,-566,-558,-389,-201
-88,-44,35,63,-60,0,-278,-453,-488,-498,-335,-165
-40,-20,24,27,-24,0,-242,-417,-440,-450,-311,-153
-34,-20,18,27,-19,0,-230,-387,-404,-420,-281,-147
-34,-14,24,21,-24,6,-194,-357,-362,-378,-257,-129
-46,-14,35,27,-36,12,-164,-315,-302,-354,-245,-117
-52,-38,18,45,-30,-12,-122,-255,-248,-342,-239,-123
-34,-50,-12,39,-19,-30,-92,-219,-212,-336,-239,-123
-40,-38,6,39,-19,-18,-86,-195,-188,-330,-233,-123
-82,-26,47,51,-66,18,-50,-141,-158,-300,-215,-111
-82,-2,71,39,-78,35,-32,-111,-140,-282,-203,-111
-76,-8,59,39,-66,30,-20,-117,-140,-276,-203,-117
-70,-14,47,39,-60,24,-20,-129,-140,-276,-209,-117
-70,-32,35,51,-48,6,-26,-141,-146,-282,-221,-123
-88,-38,41,63,-66,6,-26,-141,-146,-282,-227,-129
-88,-50,35,69,-60,-6,-26,-141,-146,-276,-221,-129
-82,-56,30,69,-48,-12,-26,-129,-122,-276,-221,-123
-82,-56,30,69,-48,-12,-20,-129,-122,-270,-221,-123
-82,-62,24,69,-48,-18,-3,-99,-110,-270,-221,-129
-88,-62,30,75,-54,-18,-3,-81,-92,-252,-215,-129
-88,-50,35,69,-60,-6,9,-57,-74,-252,-203,-123
-82,-38,35,57,-60,6,9,-63,-62,-246,-209,-117
-82,-38,35,57,-60,6,9,-69,-56,-234,-209,-117
-76,-38,35,57,-54,0,3,-75,-56,-240,-203,-129
-76,-38,35,57,-54,0,3,-75,-56,-234,-203,-117
-70,-44,30,57,-42,-6,3,-81,-62,-240,-209,-117
-64,-44,24,51,-36,-12,3,-75,-74,-240,-215,-117
-70,-32,35,51,-48,6,-3,-69,-68,-240,-221,-117
-70,-32,35,51,-48,6,-3,-57,-62,-240,-215,-117
-76,-32,35,51,-54,6,3,-57,-50,-240,-203,-117
-76,-32,35,51,-54,6,15,-51,-44,-240,-203,-117
-70,-26,35,45,-54,12,15,-45,-38,-234,-203,-99
-64,-26,35,45,-48,6,15,-45,-38,-228,-191,-99
-58,-26,35,39,-42,6,15,-45,-26,-216,-191,-93
-64,-26,35,45,-48,6,15,-45,-8,-210,-197,-87
-64,-32,35,45,-42,0,21,-45,-14,-204,-191,-93
-64,-32,35,45,-42,0,21,-45,-14,-204,-185,-93
-64,-32,35,45,-42,0,27,-51,-20,-210,-173,-93
-64,-32,35,45,-42,0,39,-39,-14,-204,-173,-81
-76,-20,47,45,-60,18,39,-33,-2,-198,-179,-81
-58,-14,35,33,-48,18,45,-33,-2,-198,-179,-87
-58,-8,41,33,-48,24,45,-15,10,-198,-173,-87
-58,4,53,27,-54,35,45,-3,16,-186,-167,-81
-64,10,65,27,-66,35,39,-3,22,-192,-167,-75
-70,10,71,27,-72,35,39,-9,22,-186,-167,-75
-58,4,53,27,-54,35,33,-21,22,-192,-173,-75
-76,4,71,33,-72,35,45,-27,34,-180,-167,-63
-94,4,89,45,-90,41,51,-3,52,-174,-161,-63
-76,4,71,33,-72,35,51,-3,52,-174,-161,-63
-46,4,41,21,-42,30,57,3,57,-174,-167,-63
-40,16,47,9,-42,35,57,20,57,-168,-167,-57
-46,10,47,15,-48,35,57,20,57,-162,-161,-45
-58,4,53,27,-54,35,63,20,63,-150,-149,-39
-64,-8,47,33,-54,24,57,32,69,-144,-149,-33
-70,-2,59,33,-66,35,57,38,81,-144,-143,-33
-52,10,53,21,-54,35,63,38,81,-144,-143,-39
-46,10,47,15,-48,35,69,44,93,-138,-137,-27
-46,22,59,9,-54,35,69,56,99,-126,-137,-33
-40,28,59,3,-48,35,69,62,99,-126,-137,-33
-22,33,53,-9,-36,41,69,68,111,-120,-137,-33
-22,39,65,-15,-42,53,69,74,117,-108,-131,-27
-16,57,77,-15,-42,65,75,80,129,-102,-125,-21
-5,57,59,-20,-24,59,87,92,147,-96,-119,-9
-5,57,65,-20,-30,59,87,98,165,-84,-101,-3
-22,57,83,-15,-48,71,87,110,171,-78,-83,3
-28,63,95,-15,-60,77,87,128,177,-73,-77,20
-16,81,101,-26,-54,89,93,146,195,-67,-71,26
-10,87,101,-32,-54,95,93,152,207,-67,-71,26
-10,93,107,-32,-54,101,93,164,207,-55,-59,26
-5,105,113,-44,-54,107,99,164,225,-55,-59,26
-5,111,119,-44,-60,113,111,182,237,-37,-47,38
-5,111,119,-44,-60,113,117,194,249,-25,-41,38
-5,111,107,-50,-48,113,111,200,249,-13,-35,38
7,117,101,-62,-36,113,117,218,267,-13,-23,38
7,135,119,-68,-48,131,129,230,285,5,-5,50
7,147,131,-74,-54,143,135,242,297,17,0,56
13,159,137,-86,-54,149,141,260,315,23,0,62
19,171,143,-92,-54,161,147,260,321,47,6,74
25,177,143,-98,-48,161,153,278,345,65,24,86
25,189,155,-104,-54,173,159,290,357,83,42,104
25,207,173,-116,-66,191,159,302,363,89,48,110
37,219,173,-128,-60,197,153,302,363,95,54,110
49,237,179,-140,-54,209,147,308,375,107,60,128
49,237,179,-140,-54,209,147,314,387,125,78,146
55,255,191,-152,-60,227,147,332,405,149,96,146
61,255,185,-158,-54,221,141,338,423,161,108,170
73,261,179,-164,-42,221,141,350,435,161,126,176
67,273,203,-170,-60,245,141,350,447,167,132,194
67,291,221,-182,-66,263,141,362,459,197,144,206
73,309,233,-194,-72,275,141,362,465,215,162,218
85,321,233,-206,-66,275,129,368,471,221,168,224
91,345,251,-218,-72,299,117,374,471,233,168,236
91,363,269,-230,-78,317,129,368,471,245,186,248
103,369,263,-236,-72,317,129,368,483,251,198,260
109,387,275,-248,-72,329,123,368,489,251,204,260
109,387,275,-248,-72,329,117,368,489,257,210,266
121,381,257,-254,-60,317,105,374,489,263,216,272
121,387,263,-254,-60,323,93,380,495,275,228,284
121,387,263,-254,-60,323,87,386,501,281,240,290
133,393,257,-260,-54,323,69,380,501,275,240,290
151,393,239,-266,-36,317,63,362,489,269,234,290
145,393,245,-266,-42,317,57,350,489,275,234,296
145,393,245,-266,-42,317,57,338,489,281,234,308
133,399,263,-260,-54,329,51,332,483,287,240,308
133,417,275,-272,-66,347,45,332,483,287,234,302
127,423,287,-272,-72,359,45,320,483,281,240,302
127,429,293,-272,-78,365,39,302,465,269,228,296
139,423,275,-278,-60,353,21,290,453,263,222,290
145,417,269,-278,-54,341,9,284,447,257,222,290
151,387,233,-266,-30,311,3,272,423,251,216,284
157,375,215,-260,-19,293,3,260,411,227,204,284
151,369,215,-254,-24,293,-3,260,411,227,204,278
133,351,215,-242,-30,281,-3,260,405,215,204,278
127,333,203,-230,-30,275,-3,242,393,209,186,272
127,333,203,-230,-30,275,-3,218,369,191,174,260
121,321,197,-224,-30,263,-3,212,363,191,168,248
109,321,209,-218,-42,269,-3,194,357,179,156,254
103,315,209,-212,-42,269,-3,170,345,167,144,242
91,297,203,-194,-48,257,-14,152,321,161,138,236
73,285,209,-182,-60,251,-20,146,309,137,120,218
67,273,197,-170,-54,239,-26,128,297,119,108,212
67,249,173,-158,-42,215,-20,110,291,113,102,200
55,237,173,-146,-48,209,-26,92,267,89,90,182
67,243,167,-152,-42,209,-44,68,249,59,66,152
67,243,167,-152,-42,209,-50,50,225,35,54,134
67,237,161,-152,-36,203,-56,26,201,5,24,110
55,213,149,-134,-36,185,-56,20,177,-7,0,92
43,201,149,-122,-42,179,-62,3,159,-19,0,80
25,183,149,-104,-54,167,-68,-9,141,-37,-11,80
13,159,137,-86,-54,149,-68,-15,129,-49,-11,68
-5,141,137,-68,-60,143,-68,-21,111,-61,-17,68
1,141,131,-68,-54,137,-80,-45,99,-78,-35,50
1,135,125,-68,-54,131,-86,-63,81,-90,-53,38
-5,123,119,-56,-54,125,-98,-87,75,-114,-65,20
-5,105,113,-44,-54,107,-98,-93,63,-126,-77,20
-10,87,101,-32,-54,95,-92,-93,52,-138,-89,9
-10,81,95,-26,-48,89,-86,-105,52,-144,-101,-3
-16,75,95,-20,-54,83,-80,-117,40,-150,-113,-15
-22,63,89,-15,-54,77,-68,-123,28,-156,-125,-21
-34,45,83,-15,-54,65,-74,-135,22,-174,-137,-21
-46,39,89,-3,-66,65,-80,-147,22,-180,-149,-33
-40,33,77,-3,-54,53,-92,-153,10,-186,-155,-39
-40,33,71,-3,-54,47,-92,-159,4,-192,-167,-51
-40,28,59,3,-48,35,-98,-159,-8,-198,-173,-51
-46,28,65,9,-54,41,-98,-165,-8,-204,-179,-57
-46,16,53,15,-48,35,-98,-171,-8,-204,-185,-57
-46,4,41,21,-42,30,-98,-171,-14,-210,-185,-63
-40,10,41,15,-42,30,-104,-177,-20,-228,-191,-69
-46,4,41,21,-42,30,-104,-183,-26,-228,-197,-69
-76,10,77,33,-78,35,-98,-183,-26,-234,-197,-69
-82,10,83,33,-84,41,-98,-183,-32,-240,-197,-69
-76,10,77,33,-78,35,-104,-195,-32,-246,-203,-75
-76,-2,65,39,-72,35,-104,-201,-32,-240,-209,-75
-76,-2,65,39,-72,35,-104,-201,-32,-246,-209,-81
-70,-2,59,33,-66,35,-110,-201,-38,-258,-209,-87
-52,4,47,21,-48,30,-110,-195,-38,-252,-215,-93
-52,4,47,21,-48,30,-110,-207,-38,-252,-227,-87
-58,-2,47,27,-54,30,-104,-201,-32,-246,-227,-93
-58,-2,47,27,-54,30,-104,-195,-26,-246,-215,-93
-52,10,53,21,-54,35,-110,-201,-32,-246,-209,-93
-52,10,53,21,-54,35,-110,-207,-38,-246,-215,-93
-52,16,59,15,-54,35,-116,-213,-44,-246,-209,-93
-52,10,53,21,-54,35,-116,-207,-44,-246,-203,-93
-52,10,53,21,-54,35,-116,-201,-44,-252,-203,-93
-52,16,59,15,-54,35,-110,-201,-44,-252,-197,-93
-64,16,71,21,-66,35,-110,-201,-50,-258,-203,-99
-64,16,71,21,-66,35,-110,-201,-50,-258,-209,-105
-52,16,59,15,-54,35,-110,-201,-44,-252,-215,-99
-46,4,41,21,-42,30,-110,-201,-44,-252,-215,-99
-46,16,53,15,-48,35,-110,-195,-38,-246,-215,-93
-40,22,53,9,-48,35,-110,-195,-38,-246,-215,-93
-46,16,53,15,-48,35,-98,-189,-38,-246,-209,-93
-52,10,53,21,-54,35,-98,-183,-38,-246,-209,-87
-58,-2,47,27,-54,30,-98,-177,-20,-246,-203,-87
-64,-8,47,33,-54,24,-98,-177,-32,-246,-203,-87
-64,-2,53,33,-60,30,-98,-171,-32,-246,-197,-81
-64,4,59,27,-60,35,-98,-171,-26,-240,-197,-81
-64,10,65,27,-66,35,-98,-165,-20,-240,-191,-75
-52,16,59,15,-54,35,-86,-165,-14,-240,-197,-75
-52,16,59,15,-54,35,-92,-171,-14,-234,-197,-75
-52,16,59,15,-54,35,-92,-165,-8,-234,-191,-75
-52,16,59,15,-54,35,-104,-171,-2,-228,-191,-75
-52,16,59,15,-54,35,-104,-171,-2,-228,-191,-75
-58,16,65,21,-60,35,-98,-165,-2,-216,-185,-81
-58,16,65,21,-60,35,-92,-159,-2,-216,-185,-75
-46,16,53,15,-48,35,-86,-159,-2,-216,-185,-81
-34,22,47,3,-42,35,-86,-165,-2,-216,-191,-81
-40,28,59,3,-48,35,-92,-165,-2,-210,-191,-81
-52,33,77,9,-66,47,-92,-159,4,-216,-185,-81
-58,33,83,9,-72,53,-92,-159,4,-210,-179,-87
-58,22,71,15,-66,41,-92,-159,4,-210,-179,-87
-58,16,65,21,-60,35,-86,-159,10,-210,-185,-81
-58,10,59,21,-60,35,-80,-159,10,-210,-185,-81
-58,10,59,21,-60,35,-80,-159,16,-210,-185,-69
-64,4,59,27,-60,35,-80,-159,16,-204,-185,-69
-58,4,53,27,-54,35,-80,-159,16,-210,-179,-69
-52,4,47,21,-48,30,-80,-159,16,-210,-179,-69
-40,4,35,15,-36,24,-98,-159,16,-210,-173,-75
-34,-2,35,15,-30,18,-98,-165,16,-210,-173,-75
-40,-2,35,21,-36,18,-92,-165,10,-204,-179,-69
-40,-2,35,21,-36,18,-92,-165,10,-204,-179,-75
-46,4,41,21,-42,30,-86,-165,4,-204,-185,-69
-58,4,53,27,-54,35,-86,-165,4,-204,-185,-69
-58,10,59,21,-60,35,-86,-165,-2,-210,-185,-69
-52,16,59,15,-54,35,-92,-177,-8,-216,-197,-75
-52,28,71,9,-60,41,-92,-177,-14,-222,-197,-75
-52,28,71,9,-60,41,-92,-171,-14,-222,-191,-69
-52,4,47,21,-48,30,-98,-171,-14,-222,-191,-75
-52,16,59,15,-54,35,-98,-171,-20,-222,-197,-75
-58,16,65,21,-60,35,-104,-183,-20,-228,-197,-81
-58,16,65,21,-60,35,-110,-183,-20,-228,-203,-81
-52,16,59,15,-54,35,-116,-189,-38,-240,-209,-87
-52,16,59,15,-54,35,-116,-189,-38,-240,-209,-87
-52,10,53,21,-54,35,-128,-189,-50,-240,-209,-87
-52,10,53,21,-54,35,-134,-195,-56,-240,-209,-93
-58,10,59,21,-60,35,-128,-195,-50,-246,-209,-93
-64,10,65,27,-66,35,-116,-195,-50,-246,-209,-93
-76,4,71,33,-72,35,-110,-201,-44,-252,-209,-87
-76,4,71,33,-72,35,-104,-207,-44,-258,-209,-87
-64,10,65,27,-66,35,-110,-207,-38,-252,-209,-87
-52,10,53,21,-54,35,-116,-207,-38,-246,-209,-93
-40,16,47,9,-42,35,-122,-207,-44,-246,-209,-105
-34,10,35,9,-36,30,-122,-207,-44,-240,-215,-111
-46,4,41,21,-42,30,-116,-207,-44,-246,-209,-105
-58,4,53,27,-54,35,-116,-207,-44,-246,-209,-105
-70,10,71,27,-72,35,-104,-207,-44,-252,-203,-99
-76,10,77,33,-78,35,-104,-213,-50,-258,-209,-99
-76,4,71,33,-72,35,-110,-219,-56,-252,-215,-99
-70,-2,59,33,-66,35,-110,-219,-56,-252,-209,-99
-58,-8,41,33,-48,24,-116,-231,-68,-246,-215,-99
-52,-2,41,27,-48,24,-116,-231,-68,-252,-221,-105
-64,-2,53,33,-60,30,-116,-225,-68,-264,-227,-105
-52,-8,35,27,-42,18,-122,-225,-80,-264,-227,-111
-52,-8,35,27,-42,18,-122,-219,-80,-270,-233,-111
-64,-8,47,33,-54,24,-122,-219,-74,-270,-233,-111
-64,-2,53,33,-60,30,-128,-225,-74,-270,-233,-111
-64,-8,47,33,-54,24,-128,-225,-80,-264,-233,-111
-64,-2,53,33,-60,30,-134,-231,-80,-264,-227,-105
-64,-2,53,33,-60,30,-134,-231,-80,-264,-227,-105
-52,-2,41,27,-48,24,-140,-237,-92,-276,-239,-111
-52,-2,41,27,-48,24,-140,-243,-92,-276,-239,-117
-64,-2,53,33,-60,30,-140,-237,-98,-276,-239,-123
-64,-14,41,39,-54,18,-140,-237,-98,-276,-239,-123
-64,-8,47,33,-54,24,-140,-237,-98,-276,-233,-123
-64,-2,53,33,-60,30,-140,-237,-98,-276,-233,-123
-70,4,65,33,-66,35,-140,-231,-98,-276,-227,-123
-82,4,77,39,-78,35,-140,-231,-98,-276,-227,-123
-76,-8,59,39,-66,30,-134,-231,-92,-270,-227,-117
-70,-14,47,39,-60,24,-140,-237,-98,-276,-233,-123
-64,-26,35,45,-48,6,-134,-237,-92,-270,-233,-117
-64,-32,35,45,-42,0,-134,-237,-92,-264,-233,-117
-64,-32,35,45,-42,0,-140,-237,-92,-264,-227,-117
-70,-44,30,57,-42,-6,-134,-237,-92,-264,-227,-111
-64,-44,24,51,-36,-12,-122,-237,-92,-264,-221,-111
-52,-38,18,45,-30,-12,-134,-237,-98,-264,-233,-123
-58,-32,30,45,-36,0,-134,-243,-104,-270,-239,-123
-58,-32,30,45,-36,0,-134,-243,-104,-270,-233,-117
-64,-26,35,45,-48,6,-128,-231,-98,-270,-239,-117
-58,-26,35,39,-42,6,-134,-231,-98,-270,-233,-117
-64,-32,35,45,-42,0,-134,-237,-104,-276,-233,-123
-64,-38,30,51,-42,-6,-134,-237,-104,-282,-227,-123
-76,-44,35,57,-48,-6,-134,-243,-110,-288,-233,-129
-76,-38,35,57,-54,0,-134,-243,-110,-294,-239,-129
-70,-38,35,51,-48,0,-140,-249,-122,-294,-239,-135
-70,-38,35,51,-48,0,-140,-255,-122,-300,-251,-141
-64,-32,35,45,-42,0,-146,-261,-128,-300,-251,-147
-76,-32,35,51,-54,6,-146,-261,-122,-294,-251,-141
-82,-32,41,57,-60,12,-140,-249,-122,-294,-245,-141
-76,-32,35,51,-54,6,-140,-249,-122,-294,-245,-141
-76,-32,35,51,-54,6,-140,-243,-122,-294,-245,-141
-76,-26,41,51,-60,12,-134,-243,-116,-288,-245,-135
-70,-32,35,51,-48,6,-128,-243,-116,-288,-239,-135
-64,-32,35,45,-42,0,-128,-243,-116,-288,-239,-135
-58,-44,18,51,-30,-12,-122,-249,-116,-288,-233,-135
-58,-44,18,51,-30,-12,-116,-249,-110,-282,-233,-129
-70,-44,30,57,-42,-6,-122,-249,-116,-288,-233,-135
-76,-44,35,57,-48,-6,-116,-249,-116,-282,-233,-129
-76,-38,35,57,-54,0,-122,-255,-122,-288,-233,-135
-82,-32,41,57,-60,12,-116,-249,-128,-288,-233,-135
-76,-32,35,51,-54,6,-116,-249,-134,-288,-239,-141
-64,-20,35,39,-48,12,-122,-249,-134,-294,-239,-135
-58,-20,35,39,-42,12,-146,-255,-140,-306,-245,-141
-58,-20,35,39,-42,12,-152,-255,-140,-312,-251,-141
-64,-26,35,45,-48,6,-140,-249,-134,-294,-245,-135
-76,-32,35,51,-54,6,-134,-249,-122,-306,-233,-135
-88,-32,47,57,-66,12,-122,-243,-122,-300,-239,-141
-94,-32,53,63,-72,18,-116,-243,-122,-300,-239,-135
1,-8,-18,-3,11,-12,-134,-267,-134,-312,-251,-147
-34,10,35,9,-36,30,-122,-243,-116,-288,-233,-129
-70,4,65,33,-66,35,-104,-231,-104,-270,-221,-117
-64,16,71,21,-66,35,-98,-225,-98,-264,-215,-111
-64,28,83,15,-72,47,-92,-219,-92,-258,-209,-111
-58,33,89,9,-72,59,-86,-219,-86,-252,-203,-105
-58,39,101,3,-78,71,-80,-213,-80,-246,-197,-105
-52,45,101,-3,-72,71,-80,-207,-68,-228,-185,-93
-46,51,101,-9,-72,77,-68,-195,-62,-222,-185,-87
-46,63,113,-15,-78,89,-62,-189,-56,-210,-173,-75
-40,81,125,-15,-78,101,-62,-189,-50,-210,-167,-75
-34,87,125,-20,-78,107,-68,-195,-56,-210,-167,-75
-28,93,125,-26,-72,107,-74,-195,-56,-210,-161,-69
-22,99,125,-32,-72,113,-80,-201,-50,-216,-167,-69
-22,111,137,-38,-78,125,-86,-207,-56,-222,-167,-69
-10,105,119,-38,-60,113,-80,-207,-50,-216,-167,-69
-22,99,125,-32,-72,113,-74,-201,-56,-216,-167,-63
-34,93,131,-20,-78,113,-80,-195,-56,-210,-167,-63
-34,93,131,-20,-78,113,-74,-189,-56,-210,-167,-63
-22,111,137,-38,-78,125,-86,-195,-56,-210,-167,-63
-16,117,137,-44,-72,125,-92,-201,-62,-210,-161,-63
-5,123,125,-56,-60,125,-116,-207,-68,-210,-161,-63
-5,129,125,-62,-54,131,-128,-213,-74,-204,-161,-57
-5,123,119,-56,-54,125,-140,-219,-74,-210,-155,-63
7,123,107,-62,-42,119,-140,-219,-74,-210,-149,-51
13,117,95,-62,-30,107,-140,-219,-74,-204,-149,-57
13,129,107,-68,-36,119,-140,-219,-80,-204,-149,-57
19,135,107,-74,-36,125,-152,-219,-80,-204,-149,-51
19,135,107,-74,-36,125,-158,-219,-80,-198,-149,-51
7,123,107,-62,-42,119,-158,-219,-80,-198,-155,-45
-5,111,113,-50,-54,113,-164,-225,-80,-204,-161,-45
-5,81,83,-32,-36,83,-170,-237,-98,-222,-167,-51
-5,75,77,-32,-36,77,-170,-255,-116,-228,-173,-63
-5,63,65,-26,-30,65,-170,-261,-128,-240,-185,-57
-5,63,65,-26,-30,65,-164,-261,-140,-240,-191,-69
-5,75,83,-26,-42,77,-164,-267,-140,-246,-191,-69
-5,75,83,-26,-42,77,-164,-267,-140,-246,-191,-69
-5,81,89,-32,-42,83,-158,-273,-140,-240,-185,-69
-5,87,95,-32,-48,89,-158,-273,-140,-240,-191,-69
-16,69,89,-20,-48,77,-146,-267,-140,-246,-191,-81
-46,57,107,-15,-72,83,-140,-261,-134,-246,-191,-81
-52,45,101,-3,-72,71,-122,-255,-134,-258,-191,-99
-52,33,83,3,-66,53,-110,-255,-134,-264,-203,-99
-64,22,77,21,-72,41,-116,-255,-140,-264,-215,-105
-76,10,77,33,-78,35,-116,-255,-146,-270,-221,-117
-70,-20,41,45,-54,18,-128,-273,-170,-276,-239,-123
-70,-38,35,51,-48,0,-128,-273,-182,-294,-245,-141
-76,-62,18,69,-42,-24,-122,-279,-182,-294,-263,-147
-76,-68,12,69,-36,-30,-128,-279,-188,-306,-269,-153
-82,-80,6,81,-36,-36,-122,-279,-188,-312,-275,-159
-94,-86,12,87,-48,-36,-122,-279,-188,-312,-275,-159
-88,-86,6,87,-42,-42,-122,-279,-188,-312,-269,-159
-82,-92,-6,87,-30,-48,-122,-279,-188,-312,-269,-165
-82,-92,-6,87,-30,-48,-128,-285,-188,-312,-269,-165
-82,-92,-6,87,-30,-48,-122,-291,-194,-312,-269,-165
-88,-86,6,87,-42,-42,-116,-285,-194,-312,-269,-165
-88,-80,12,81,-42,-36,-116,-285,-194,-312,-275,-165
-82,-74,12,75,-42,-30,-122,-291,-206,-324,-281,-177
-82,-68,18,75,-42,-24,-122,-291,-206,-324,-281,-177
-82,-86,0,81,-36,-42,-122,-285,-206,-318,-275,-171
-82,-86,0,81,-36,-42,-122,-285,-206,-318,-275,-171
-64,-92,-24,75,-19,-60,-122,-285,-206,-324,-281,-165
-76,-92,-12,81,-24,-54,-122,-291,-206,-324,-281,-165
-82,-98,-12,87,-30,-54,-116,-291,-206,-318,-275,-165
-88,-98,-6,93,-36,-54,-116,-291,-206,-318,-275,-165
-100,-110,-6,105,-42,-60,-116,-291,-206,-312,-269,-165
-106,-110,0,105,-48,-54,-116,-291,-206,-312,-269,-165
-106,-104,6,105,-48,-48,-116,-291,-212,-318,-275,-171
-106,-104,6,105,-48,-48,-116,-291,-212,-318,-275,-177
-106,-104,6,105,-48,-48,-116,-291,-218,-330,-281,-183
-100,-104,0,99,-42,-54,-116,-291,-218,-330,-293,-183
-94,-110,-12,99,-36,-60,-122,-291,-224,-330,-293,-183
-100,-110,-6,105,-42,-60,-122,-291,-224,-330,-287,-183
-100,-116,-12,105,-36,-66,-122,-297,-224,-330,-287,-183
-100,-116,-12,105,-36,-66,-122,-297,-224,-330,-287,-183
-100,-110,-6,105,-42,-60,-116,-291,-218,-324,-287,-177
-100,-110,-6,105,-42,-60,-116,-291,-218,-324,-287,-177
-106,-104,6,105,-48,-48,-110,-285,-218,-318,-287,-171
-112,-104,12,105,-54,-48,-110,-279,-218,-312,-281,-171
-112,-110,6,111,-54,-54,-110,-285,-218,-312,-281,-171
-100,-116,-12,105,-36,-66,-110,-285,-218,-312,-281,-171
-100,-122,-18,111,-36,-72,-116,-291,-218,-318,-281,-171
-106,-122,-12,111,-42,-66,-116,-291,-218,-318,-281,-171
-112,-122,-6,117,-48,-66,-110,-285,-212,-312,-275,-171
-112,-116,0,111,-48,-60,-116,-285,-206,-312,-275,-177
-118,-122,0,117,-54,-60,-110,-279,-200,-312,-269,-177
-112,-134,-18,123,-42,-78,-104,-279,-206,-312,-269,-171
-100,-140,-36,117,-24,-90,-98,-279,-206,-312,-281,-183
-76,-152,-72,111,-7,-114,-98,-279,-218,-330,-293,-195
-106,-164,-54,135,-19,-108,-68,-255,-188,-330,-305,-207
-142,-176,-30,159,-48,-102,-8,-201,-146,-312,-311,-213
-142,-194,-48,165,-42,-120,57,-117,-92,-324,-335,-249
-136,-224,-90,183,-19,-162,135,-9,-26,-336,-353,-291
-148,-236,-90,195,-24,-168,195,50,40,-330,-365,-315
-130,-212,-84,171,-19,-150,237,140,99,-294,-347,-303
-94,-194,-96,141,-7,-144,279,206,177,-216,-293,-279
-52,-182,-126,117,29,-156,237,188,201,-138,-227,-213
7,-134,-150,57,77,-138,123,116,183,-43,-131,-111
103,-44,-156,-20,131,-96,-26,20,147,95,0,20
223,87,-132,-152,179,-12,-230,-63,117,281,198,200
331,243,-90,-284,215,71,-422,-147,117,527,444,428
409,405,0,-404,209,203,-554,-201,129,779,696,650
481,615,131,-542,173,377,-674,-285,117,983,924,848
565,801,233,-686,167,521,-776,-351,117,1187,1134,1034
613,909,287,-758,161,599,-824,-351,159,1385,1302,1208
631,957,317,-788,155,641,-842,-387,141,1475,1422,1316
619,921,293,-764,161,611,-944,-519,10,1379,1356,1304
625,735,101,-680,257,419,-1064,-669,-194,1061,1086,1136
637,435,-204,-530,425,113,-1118,-783,-446,599,666,830
601,159,-444,-380,521,-138,-1220,-1047,-800,47,216,494
499,-14,-522,-242,509,-264,-1406,-1491,-1316,-516,-191,206
355,-140,-498,-104,431,-318,-1550,-1935,-1802,-1038,-509,-33
223,-200,-426,-15,323,-306,-1502,-2079,-1970,-1302,-707,-219
151,-212,-372,27,257,-288,-1358,-1905,-1808,-1302,-755,-315
97,-236,-342,63,221,-288,-1166,-1623,-1538,-1152,-713,-327
31,-236,-276,99,155,-252,-956,-1377,-1298,-1014,-647,-315
-10,-188,-174,99,77,-180,-752,-1167,-1100,-912,-599,-303
-40,-140,-96,87,23,-120,-584,-945,-884,-798,-539,-291
-64,-140,-72,99,-1,-108,-422,-729,-692,-654,-467,-255
-70,-122,-48,93,-19,-84,-332,-585,-554,-564,-419,-225
-52,-80,-24,63,-19,-54,-278,-489,-482,-492,-365,-201
-40,-44,0,39,-19,-24,-236,-441,-422,-426,-311,-177
-52,-32,24,39,-30,-6,-200,-405,-374,-378,-275,-141
-70,-32,35,51,-48,6,-182,-387,-344,-360,-257,-135
-70,-38,35,51,-48,0,-146,-357,-302,-342,-245,-129
-58,-74,-12,63,-19,-42,-116,-315,-266,-342,-257,-141
-76,-98,-18,87,-24,-60,-86,-255,-224,-342,-269,-159
-82,-98,-12,87,-30,-54,-44,-213,-182,-324,-269,-159
-76,-110,-30,93,-19,-72,-3,-159,-134,-300,-251,-159
-106,-122,-12,111,-42,-66,45,-117,-98,-264,-239,-135
-130,-122,12,123,-66,-54,63,-87,-80,-234,-215,-135
-112,-116,0,111,-48,-60,57,-99,-86,-228,-209,-141
-100,-110,-6,105,-42,-60,51,-117,-92,-234,-215,-141
-88,-116,-24,99,-24,-72,27,-135,-104,-240,-221,-147
-100,-110,-6,105,-42,-60,21,-141,-110,-246,-227,-153
-94,-116,-18,105,-30,-66,27,-141,-110,-246,-227,-147
-88,-122,-30,105,-24,-78,27,-129,-86,-246,-227,-141
-82,-116,-30,99,-19,-72,39,-129,-86,-246,-233,-135
-82,-122,-36,99,-19,-78,57,-99,-74,-246,-233,-141
-94,-116,-18,105,-30,-66,69,-81,-62,-222,-221,-141
-94,-104,-6,99,-36,-54,81,-57,-50,-222,-209,-135
-94,-86,12,87,-48,-36,81,-63,-44,-210,-209,-129
-94,-86,12,87,-48,-36,81,-69,-44,-198,-209,-129
-88,-86,6,87,-42,-42,69,-75,-44,-204,-203,-147
-88,-86,6,87,-42,-42,69,-75,-44,-204,-203,-135
-82,-92,-6,87,-30,-48,63,-81,-50,-210,-209,-141
-76,-92,-12,81,-24,-54,63,-75,-62,-216,-215,-141
-82,-80,6,81,-36,-36,69,-57,-56,-204,-209,-141
-88,-80,12,81,-42,-36,75,-45,-44,-204,-203,-141
-94,-80,18,87,-48,-30,93,-33,-32,-192,-179,-141
-100,-80,24,87,-54,-30,111,-27,-20,-192,-179,-141
-94,-80,18,87,-48,-30,105,-21,-20,-186,-185,-129
-82,-80,6,81,-36,-36,105,-21,-20,-186,-173,-129
-76,-86,-6,81,-30,-48,99,-21,-14,-174,-179,-129
-76,-86,-6,81,-30,-48,99,-21,4,-174,-185,-123
-76,-80,0,75,-30,-42,93,-21,-2,-168,-185,-123
-76,-80,0,75,-30,-42,93,-21,-8,-168,-179,-123
-76,-68,12,69,-36,-30,87,-27,-14,-174,-173,-117
-76,-68,12,69,-36,-30,99,-15,-14,-168,-173,-105
-94,-62,35,75,-60,-12,105,-9,-2,-162,-173,-105
-76,-62,18,69,-42,-24,111,-9,-2,-162,-173,-111
-82,-62,24,69,-48,-18,117,9,10,-162,-161,-111
-82,-56,30,69,-48,-12,117,20,16,-150,-155,-105
-76,-38,35,57,-54,0,123,20,22,-144,-149,-93
-76,-38,35,57,-54,0,129,20,22,-138,-149,-87
-52,-32,24,39,-30,-6,135,20,22,-132,-149,-81
-64,-32,35,45,-42,0,153,20,34,-120,-143,-63
-88,-38,41,63,-66,6,153,44,52,-114,-137,-69
-76,-38,35,57,-54,0,153,44,52,-114,-137,-69
-52,-44,12,45,-24,-18,153,50,57,-114,-143,-75
-52,-32,24,39,-30,-6,153,68,57,-108,-143,-69
-46,-26,24,33,-30,0,153,68,57,-102,-131,-57
-52,-26,30,39,-36,0,159,68,63,-90,-119,-51
-46,-26,24,33,-30,0,153,74,69,-84,-113,-45
-46,-14,35,27,-36,12,153,74,81,-84,-107,-45
-40,-8,35,21,-30,12,159,86,81,-78,-107,-45
-40,-8,35,21,-30,12,165,92,93,-73,-101,-33
-52,-2,41,27,-48,24,165,116,99,-67,-101,-33
-52,4,47,21,-48,30,165,122,99,-67,-101,-33
-46,4,41,21,-42,30,171,134,111,-67,-95,-33
-52,16,59,15,-54,35,177,140,117,-55,-89,-27
-58,22,71,15,-66,41,189,152,129,-55,-77,-21
-46,22,59,9,-54,35,207,164,147,-49,-71,-9
-40,28,59,3,-48,35,207,164,153,-43,-59,-15
-46,28,65,9,-54,41,207,170,159,-37,-47,-15
-40,33,71,-3,-54,47,207,182,153,-31,-47,-3
-16,45,65,-15,-36,53,213,194,171,-19,-47,3
