,,,,,,,,,,,
2019-09-01 15:35:07,,,,,,,,,,,
,,,,,,,,,,,
I,II,III,aVR,aVL,aVF,V1,V2,V3,V4,V5,V6
-3,0,-4,1,0,4,57,0,-8,-13,-117,-126
-3,0,-4,1,0,4,57,0,-8,-13,-117,-126
-3,0,-4,1,0,4,57,0,-8,-13,-117,-126
-3,0,-4,1,0,4,57,0,-8,-13,-117,-126
-3,0,-4,1,0,4,69,12,-3,-7,-111,-126
-3,0,-4,1,0,4,81,24,9,-1,-111,-126
-3,0,-4,1,0,4,93,36,27,5,-105,-126
-3,0,-4,1,0,4,105,48,39,11,-105,-126
-3,-6,-10,1,0,-1,105,54,45,11,-105,-132
-3,-12,-10,7,6,-7,105,60,45,11,-105,-132
-3,-18,-10,7,6,-13,105,66,51,11,-105,-138
-3,-24,-15,13,12,-19,105,72,51,11,-105,-138
-3,-18,-10,7,6,-13,111,72,57,17,-99,-132
-3,-12,-10,7,6,-7,111,72,57,17,-99,-132
-3,-6,-10,1,0,-1,117,72,63,23,-93,-126
-3,0,-4,1,0,4,117,72,63,23,-93,-126
-3,0,-4,1,0,4,111,78,69,23,-93,-126
-3,0,-4,1,0,4,111,78,69,23,-93,-126
-3,0,-4,1,0,4,105,84,75,23,-93,-126
-3,0,-4,1,0,4,105,84,75,23,-93,-126
-3,0,-4,1,0,4,111,90,81,29,-93,-120
-3,0,-4,1,0,4,111,90,81,29,-93,-120
-3,0,-4,1,0,4,117,96,87,35,-93,-114
-3,0,-4,1,0,4,117,96,87,35,-93,-114
3,-6,-10,1,6,-7,117,102,87,41,-87,-114
3,-6,-10,1,6,-7,117,102,87,47,-87,-114
9,-12,-15,1,17,-13,117,108,87,53,-81,-114
9,-12,-15,1,17,-13,117,108,87,59,-81,-114
9,-12,-15,1,17,-13,111,114,93,65,-75,-108
9,-12,-15,1,17,-13,111,114,99,65,-75,-108
9,-12,-15,1,17,-13,105,120,105,71,-69,-102
9,-12,-15,1,17,-13,105,120,111,71,-69,-102
15,-6,-15,-5,17,-13,105,126,111,71,-63,-96
15,0,-10,-11,17,-7,105,126,111,71,-63,-96
21,6,-10,-17,17,-1,105,132,111,71,-57,-90
21,12,-10,-17,17,4,105,132,111,71,-57,-90
21,12,-10,-17,17,4,105,138,117,77,-51,-90
21,12,-10,-17,17,4,105,138,123,77,-51,-90
21,12,-10,-17,17,4,105,144,129,83,-45,-90
21,12,-10,-17,17,4,105,144,135,83,-45,-90
15,12,-10,-17,12,4,111,150,141,89,-45,-84
15,12,-10,-17,12,4,111,150,141,89,-45,-78
9,12,-4,-11,6,4,117,156,147,95,-45,-72
9,12,-4,-11,6,4,117,156,147,95,-45,-66
15,12,-10,-17,12,4,117,162,153,95,-39,-66
21,12,-10,-17,17,4,117,162,153,95,-39,-66
26,12,-10,-23,17,-1,117,168,159,95,-33,-66
26,12,-15,-23,17,-1,117,168,159,95,-33,-66
26,17,-15,-23,17,4,111,174,165,100,-27,-60
26,17,-10,-23,17,4,111,180,171,100,-27,-54
32,17,-10,-23,23,4,105,186,177,100,-21,-48
32,23,-10,-28,17,4,105,192,183,100,-21,-42
38,23,-10,-28,23,4,105,198,195,106,-15,-36
38,23,-10,-28,23,4,105,198,201,112,-15,-30
44,23,-15,-34,29,4,105,204,213,124,-9,-24
44,23,-15,-34,29,4,105,210,219,130,-9,-18
50,29,-15,-40,35,4,105,222,231,142,3,-12
50,29,-15,-40,35,4,105,228,237,148,9,-6
56,35,-15,-46,35,4,105,240,243,160,21,0
56,35,-15,-46,35,4,105,246,249,166,27,6
62,41,-15,-52,41,10,99,258,261,172,32,18
68,41,-21,-52,47,4,99,270,267,178,32,24
74,47,-21,-58,47,10,93,282,279,184,44,36
80,47,-27,-64,53,4,93,294,285,190,50,42
86,53,-27,-70,59,10,87,306,297,202,62,60
92,59,-27,-76,59,10,87,318,309,214,68,72
98,65,-27,-82,65,16,81,330,321,226,80,90
104,71,-27,-88,65,16,81,342,333,238,86,95
116,83,-27,-100,71,22,75,354,345,250,104,101
122,89,-27,-106,77,28,69,366,357,262,116,113
134,101,-27,-118,83,34,63,378,369,274,134,125
140,107,-27,-124,83,34,57,390,381,286,146,137
152,119,-27,-136,89,40,51,402,393,298,164,161
158,125,-27,-142,95,46,51,414,399,310,182,179
170,137,-27,-154,101,52,45,426,411,322,200,203
176,143,-27,-160,101,52,45,438,417,334,218,221
182,149,-27,-166,107,58,39,444,423,340,224,233
188,155,-27,-172,107,58,33,444,423,340,230,239
194,161,-27,-178,113,64,27,444,429,346,236,251
200,167,-27,-184,113,64,21,444,429,352,242,257
212,173,-33,-190,125,64,15,450,435,358,260,275
218,173,-39,-196,131,64,15,456,441,364,272,287
230,179,-45,-202,137,64,9,462,447,370,284,305
236,179,-51,-208,143,58,9,468,453,376,296,317
242,191,-45,-214,143,70,-3,462,447,376,302,329
242,197,-39,-220,143,76,-9,462,441,376,302,335
248,209,-33,-226,143,82,-21,456,435,376,308,341
248,215,-27,-232,137,88,-27,456,429,376,308,347
254,221,-27,-238,143,94,-33,444,423,370,314,353
254,227,-21,-238,137,100,-33,444,423,370,314,353
260,233,-21,-244,143,100,-33,432,417,364,320,359
260,239,-15,-250,137,106,-33,426,417,364,320,359
254,233,-15,-244,137,106,-33,414,399,358,314,353
248,233,-10,-238,131,106,-33,402,381,352,314,353
242,227,-10,-232,125,106,-33,390,363,346,308,347
236,227,-10,-232,119,106,-33,378,345,340,308,347
224,221,-10,-220,113,106,-33,360,327,328,290,335
218,215,-10,-214,107,106,-27,342,315,310,272,317
206,209,-4,-208,101,106,-21,324,297,292,260,299
200,203,-4,-202,95,100,-15,306,285,274,242,281
188,197,2,-190,89,100,-9,288,273,256,218,257
176,191,8,-184,77,100,-3,276,261,244,194,233
164,185,14,-172,71,100,3,258,249,226,170,209
152,179,20,-166,59,100,9,246,237,214,146,185
140,173,26,-154,53,100,15,228,225,196,128,167
134,167,26,-148,47,100,21,210,207,184,110,149
122,161,32,-142,41,100,27,198,189,166,92,131
116,155,32,-136,35,94,33,180,171,154,74,113
104,143,32,-124,29,88,39,168,159,142,56,95
98,131,26,-112,29,82,45,156,153,136,38,95
86,119,26,-100,23,76,51,144,141,124,32,78
80,107,20,-94,23,64,57,132,135,118,15,66
68,95,20,-82,17,58,69,120,123,112,3,54
62,89,20,-76,17,58,75,114,111,106,-3,42
50,77,20,-64,17,52,87,102,99,100,-15,30
44,71,20,-58,17,46,93,96,87,100,-21,18
38,65,20,-52,17,46,87,84,81,95,-33,6
32,65,26,-46,12,46,87,78,75,89,-45,-6
26,59,26,-40,6,46,81,66,69,77,-57,-18
26,59,32,-40,0,46,81,60,63,71,-69,-30
26,53,32,-34,0,40,87,54,57,65,-75,-36
26,47,26,-28,0,34,87,48,57,65,-81,-36
21,41,26,-23,0,34,93,42,51,59,-87,-42
21,35,20,-23,0,28,93,36,51,59,-93,-42
21,29,14,-23,6,22,99,30,45,53,-93,-42
21,29,14,-23,6,22,99,30,39,53,-93,-42
21,23,8,-23,6,16,105,24,33,47,-93,-42
21,23,8,-23,6,16,105,24,27,47,-93,-42
15,17,8,-23,6,10,105,18,21,41,-93,-42
15,17,2,-23,6,4,105,18,21,41,-93,-42
9,17,2,-17,0,4,105,12,15,35,-93,-42
9,12,-4,-11,6,4,105,12,15,35,-93,-42
3,12,2,-11,0,4,105,6,15,35,-99,-36
3,12,2,-11,0,4,105,6,15,35,-105,-36
-3,12,8,-5,-6,4,105,0,15,35,-111,-30
-3,12,8,-5,-6,4,105,0,15,35,-117,-30
-3,6,2,-5,-6,4,99,0,9,35,-117,-36
-3,6,2,-5,-6,4,99,0,9,35,-117,-36
-3,0,-4,1,0,4,93,0,3,35,-117,-42
-3,0,-4,1,0,4,93,0,3,35,-117,-42
3,6,-4,-5,0,4,93,0,-3,29,-117,-42
3,6,-4,-5,0,4,93,0,-3,29,-117,-42
9,12,-4,-11,6,4,93,0,-3,23,-117,-42
9,12,-4,-11,6,4,93,0,-3,23,-117,-42
9,6,-10,-11,6,4,93,0,-3,29,-111,-42
9,6,-10,-11,6,4,93,0,-3,29,-111,-42
9,0,-10,-5,12,-1,93,0,3,35,-105,-42
9,0,-10,-5,12,-1,93,0,3,35,-105,-42
9,0,-10,-5,12,-1,87,0,9,29,-105,-42
9,0,-10,-5,12,-1,87,0,9,29,-105,-42
9,0,-10,-5,12,-1,81,0,15,23,-105,-42
9,0,-10,-5,12,-1,81,0,15,23,-105,-42
9,6,-10,-11,6,4,87,6,15,23,-105,-42
9,6,-10,-11,6,4,87,6,15,23,-105,-42
9,12,-4,-11,6,4,93,12,15,23,-105,-42
9,12,-4,-11,6,4,93,12,15,23,-105,-42
3,12,2,-11,0,4,93,18,21,23,-105,-42
3,12,2,-11,0,4,93,18,21,23,-105,-42
-3,12,8,-5,-6,4,93,24,27,23,-105,-42
-3,12,8,-5,-6,4,93,24,27,23,-105,-42
-3,17,14,-11,-12,10,99,24,27,29,-111,-36
-3,17,14,-11,-12,10,99,24,27,29,-111,-36
-3,17,20,-11,-12,16,105,24,27,35,-117,-30
-3,17,20,-11,-12,16,105,24,27,35,-117,-30
-3,17,20,-11,-12,16,105,24,33,41,-117,-36
-3,17,20,-11,-12,16,105,24,33,41,-117,-36
-3,17,20,-11,-12,16,105,24,39,47,-117,-42
-3,17,20,-11,-12,16,105,24,39,47,-117,-42
-3,17,20,-11,-12,16,105,30,45,53,-111,-36
-3,17,20,-11,-12,16,105,30,45,53,-111,-36
-3,17,20,-11,-12,16,105,36,51,59,-105,-30
-3,17,20,-11,-12,16,105,36,51,59,-105,-30
-3,17,26,-17,-12,22,105,36,51,59,-105,-36
-3,17,26,-17,-12,22,105,36,51,59,-105,-36
-3,23,32,-17,-18,28,105,36,51,59,-105,-42
-3,23,32,-17,-18,28,105,36,51,59,-105,-42
-3,17,26,-17,-12,22,105,36,51,59,-105,-36
-3,17,20,-11,-12,16,105,36,51,59,-105,-36
-3,17,14,-11,-12,10,105,36,51,59,-105,-30
-3,12,8,-5,-6,4,105,36,51,59,-105,-30
-3,17,14,-11,-12,10,99,30,51,59,-111,-36
-3,17,14,-11,-12,10,99,30,51,59,-111,-36
-3,17,20,-11,-12,16,93,24,51,59,-117,-42
-3,17,20,-11,-12,16,93,24,51,59,-117,-42
-3,17,20,-11,-12,16,93,30,45,53,-117,-48
-3,17,20,-11,-12,16,93,30,45,53,-117,-48
-3,17,20,-11,-12,16,93,36,39,47,-117,-54
-3,17,20,-11,-12,16,93,36,39,47,-117,-54
-3,17,20,-11,-12,16,99,30,39,47,-123,-54
-3,17,20,-11,-12,16,99,30,39,47,-123,-54
-3,17,20,-11,-12,16,105,24,39,47,-129,-54
-3,17,20,-11,-12,16,105,24,39,47,-129,-54
-3,17,20,-11,-12,16,99,24,39,47,-129,-54
-3,17,20,-11,-12,16,99,24,39,47,-129,-54
-3,17,20,-11,-12,16,93,24,39,47,-129,-54
-3,17,20,-11,-12,16,93,24,39,47,-129,-54
-3,17,14,-11,-12,10,93,18,33,41,-135,-48
-3,17,14,-11,-12,10,93,18,33,41,-135,-48
-3,12,8,-5,-6,4,93,12,27,35,-141,-42
-3,12,8,-5,-6,4,93,12,27,35,-141,-42
-3,12,8,-5,-6,4,93,6,21,29,-141,-48
-3,12,8,-5,-6,4,93,6,21,29,-141,-48
-3,12,8,-5,-6,4,93,0,15,23,-141,-54
-3,12,8,-5,-6,4,93,0,15,23,-141,-54
-3,12,8,-5,-6,4,93,0,15,23,-141,-60
-3,12,8,-5,-6,4,93,0,15,23,-141,-60
-3,12,8,-5,-6,4,93,0,15,23,-141,-66
-3,12,8,-5,-6,4,93,0,15,23,-141,-66
-9,6,8,1,-12,4,93,-6,9,23,-147,-66
-9,6,8,1,-12,4,93,-6,9,23,-147,-66
-15,0,8,7,-12,4,93,-12,3,23,-153,-66
-15,0,8,7,-12,4,93,-12,3,23,-153,-66
-15,0,8,7,-12,4,87,-12,3,17,-153,-66
-15,0,8,7,-12,4,87,-12,3,17,-153,-66
-15,0,8,7,-12,4,81,-12,3,11,-153,-66
-15,0,8,7,-12,4,81,-12,3,11,-153,-66
-15,0,8,7,-12,4,81,-18,-3,5,-159,-72
-15,0,8,7,-12,4,81,-18,-3,5,-159,-72
-15,0,8,7,-12,4,81,-24,-3,-1,-171,-78
-15,-6,2,7,-12,4,81,-24,-3,-1,-171,-78
-21,-12,2,13,-12,-1,75,-18,-8,5,-171,-72
-21,-12,2,13,-12,-1,75,-18,-8,-1,-171,-78
-27,-18,2,19,-18,-1,69,-12,-14,5,-177,-72
-27,-18,2,19,-18,-1,69,-12,-14,5,-177,-72
-27,-24,-4,25,-12,-7,75,-18,-14,5,-165,-72
-27,-24,-4,25,-12,-7,75,-18,-14,5,-165,-72
-21,-24,-10,19,-6,-13,81,-24,-14,-1,-165,-72
-21,-24,-10,19,-6,-13,81,-30,-14,-1,-165,-66
-21,-18,-4,19,-12,-7,81,-30,-20,-1,-171,-72
-21,-18,-4,19,-12,-7,75,-30,-20,-1,-171,-72
-21,-12,2,13,-12,-1,75,-30,-20,-1,-177,-78
-21,-12,2,13,-12,-1,75,-30,-20,-1,-177,-78
-21,-18,-4,19,-12,-7,75,-30,-26,-1,-177,-78
-21,-18,-4,19,-12,-7,75,-36,-26,-7,-183,-78
-21,-18,-4,19,-12,-7,75,-36,-26,-7,-183,-78
-21,-18,-4,19,-12,-7,75,-36,-26,-7,-183,-78
-21,-12,2,13,-12,-1,75,-30,-20,-7,-171,-72
-15,0,8,7,-12,4,75,-24,-8,-1,-165,-72
-9,12,14,-5,-12,4,81,-18,-3,5,-153,-60
-3,17,20,-11,-12,16,87,-12,-3,11,-147,-60
3,17,14,-17,-6,10,81,-6,-3,17,-147,-48
3,17,20,-17,-6,16,87,0,-3,17,-147,-48
15,29,20,-23,0,22,81,12,3,23,-135,-36
15,47,38,-23,-12,40,93,18,15,35,-129,-24
9,53,50,-23,-18,52,105,24,27,41,-123,-18
9,59,56,-28,-24,58,111,24,27,53,-117,-12
9,65,62,-28,-24,64,117,24,33,53,-123,-12
9,59,56,-28,-24,58,117,24,39,53,-123,-12
9,71,68,-34,-30,70,123,30,39,65,-117,-12
9,89,86,-40,-36,88,123,36,45,65,-111,-12
9,101,98,-46,-42,100,129,42,45,77,-105,-6
9,113,110,-52,-48,112,129,48,45,77,-99,6
9,107,104,-52,-48,106,117,42,45,89,-93,6
21,113,98,-58,-36,106,117,42,57,89,-93,6
26,107,86,-58,-30,94,117,36,57,89,-93,6
26,107,86,-58,-30,94,117,36,57,89,-93,6
26,113,86,-64,-24,100,105,36,63,83,-93,6
26,113,86,-64,-24,100,99,18,51,83,-93,6
26,119,86,-70,-24,106,87,12,45,71,-93,6
26,107,80,-64,-24,94,81,12,45,71,-99,6
26,101,74,-58,-18,88,81,18,39,65,-99,6
26,89,56,-58,-6,76,75,18,33,65,-105,6
26,83,50,-52,-6,70,69,6,27,59,-111,0
26,71,38,-46,0,58,63,6,21,65,-111,-6
26,59,26,-40,6,46,57,0,21,59,-105,0
32,47,8,-40,17,28,51,6,21,59,-111,0
32,23,-10,-28,17,4,45,0,9,47,-111,0
32,23,-10,-28,17,4,45,-12,3,41,-117,-6
32,17,-15,-23,23,4,45,-12,-3,35,-135,-12
26,12,-21,-23,23,-1,45,-12,-8,23,-141,-24
26,0,-27,-17,23,-13,45,-18,-26,17,-153,-30
26,0,-27,-17,23,-13,45,-24,-38,5,-159,-36
26,-6,-33,-17,23,-19,45,-30,-38,-13,-171,-42
26,-12,-33,-11,23,-25,45,-36,-44,-13,-177,-54
15,-18,-27,1,17,-25,51,-42,-44,-25,-189,-66
3,-30,-27,13,17,-31,51,-42,-50,-25,-189,-84
-3,-42,-33,19,17,-37,57,-42,-56,-31,-189,-84
-9,-42,-27,25,12,-37,57,-42,-56,-31,-189,-90
-21,-48,-21,31,6,-37,57,-42,-62,-31,-183,-90
-21,-48,-21,31,6,-37,63,-42,-62,-31,-183,-90
-21,-54,-27,37,6,-43,63,-42,-56,-31,-195,-90
-33,-54,-15,43,-6,-37,63,-42,-56,-31,-195,-90
-39,-60,-15,49,-6,-37,69,-42,-62,-31,-201,-84
-39,-60,-15,49,-6,-37,69,-42,-62,-31,-201,-84
-39,-60,-15,49,-6,-37,63,-42,-62,-37,-207,-84
-39,-60,-15,49,-6,-37,63,-42,-68,-43,-207,-84
-39,-66,-21,49,-6,-43,51,-47,-68,-49,-207,-84
-33,-66,-27,49,0,-49,51,-47,-68,-49,-207,-78
-39,-72,-27,55,0,-49,51,-47,-68,-49,-207,-78
-39,-72,-27,55,0,-49,51,-47,-68,-49,-207,-78
-45,-78,-27,61,-6,-55,45,-47,-68,-49,-207,-78
-45,-78,-27,61,-6,-55,45,-47,-68,-49,-207,-78
-51,-78,-21,61,-12,-49,51,-47,-74,-43,-207,-78
-51,-78,-21,61,-12,-49,51,-47,-74,-43,-207,-78
-57,-78,-15,67,-18,-49,57,-47,-80,-43,-207,-78
-57,-78,-15,67,-18,-49,57,-47,-80,-43,-207,-78
-63,-84,-15,73,-18,-49,51,-47,-74,-43,-207,-78
-69,-90,-15,79,-24,-55,57,-47,-74,-43,-207,-78
-75,-96,-15,85,-24,-55,51,-47,-74,-43,-207,-78
-87,-102,-10,91,-36,-55,45,-53,-74,-43,-207,-78
-81,-108,-21,91,-24,-67,45,-59,-86,-43,-207,-84
-87,-96,-10,91,-36,-49,45,-71,-98,-43,-207,-72
-99,-66,26,79,-66,-13,57,-71,-80,-37,-213,-84
-111,-30,74,67,-96,16,75,-42,-38,-7,-195,-84
-123,17,134,49,-132,70,117,36,87,71,-165,-60
-129,59,194,25,-162,124,195,204,279,196,-87,-12
-123,119,242,-5,-186,184,255,360,447,310,-27,24
-105,143,248,-23,-180,196,303,396,495,364,-3,30
-93,173,266,-34,-180,220,321,312,429,394,27,72
-63,197,260,-58,-162,232,291,174,285,394,86,131
21,215,200,-112,-90,208,207,-6,75,364,182,251
98,257,152,-178,-18,208,105,-215,-200,322,284,371
182,335,152,-262,17,244,-38,-521,-518,274,434,563
266,437,170,-346,41,304,-248,-809,-800,280,656,803
356,557,200,-460,77,382,-494,-1013,-1010,340,938,1103
440,689,242,-562,95,472,-704,-1199,-1178,418,1220,1403
494,671,176,-580,155,424,-890,-1319,-1298,454,1394,1583
512,503,-10,-508,263,244,-1004,-1307,-1310,442,1418,1595
512,275,-231,-394,371,22,-1046,-1217,-1244,370,1268,1481
500,101,-393,-298,449,-139,-1100,-1175,-1226,202,998,1265
440,29,-405,-238,425,-181,-1154,-1235,-1274,-7,710,1043
344,17,-333,-178,335,-157,-1160,-1319,-1370,-229,428,803
212,-6,-225,-94,215,-115,-1094,-1427,-1478,-511,68,503
80,-60,-147,-17,113,-103,-974,-1463,-1526,-799,-279,209
21,-114,-129,43,65,-121,-824,-1325,-1412,-895,-459,12
3,-192,-189,91,89,-193,-680,-1097,-1202,-823,-495,-102
-15,-258,-243,139,107,-247,-560,-899,-986,-697,-483,-156
-27,-276,-249,151,101,-259,-428,-701,-776,-571,-453,-192
-33,-276,-243,157,95,-259,-290,-509,-572,-433,-411,-180
-45,-240,-195,145,65,-223,-182,-359,-410,-307,-351,-150
-57,-216,-153,133,41,-187,-104,-233,-290,-217,-297,-144
-63,-192,-123,127,23,-157,-38,-149,-212,-151,-267,-120
-63,-174,-105,115,17,-139,-15,-89,-158,-121,-231,-96
-63,-180,-111,121,17,-145,3,-53,-122,-103,-225,-90
-69,-174,-99,121,17,-139,3,-42,-116,-97,-225,-90
-75,-150,-69,109,0,-109,9,-42,-116,-97,-225,-90
-87,-138,-45,109,-18,-91,15,-42,-104,-91,-225,-78
-87,-126,-33,103,-24,-79,21,-47,-104,-91,-213,-66
-93,-126,-27,109,-30,-79,27,-42,-86,-79,-225,-78
-93,-114,-15,103,-36,-67,51,-42,-74,-61,-219,-72
-93,-114,-15,103,-36,-67,63,-18,-44,-37,-207,-72
-93,-120,-21,103,-30,-73,81,18,-26,-25,-207,-72
-93,-126,-27,109,-30,-79,87,36,-14,-25,-213,-72
-93,-126,-27,109,-30,-79,87,36,-14,-25,-207,-78
-93,-120,-21,103,-30,-73,81,42,-14,-31,-213,-78
-87,-120,-27,103,-24,-73,81,36,-14,-31,-213,-78
-81,-114,-27,97,-24,-73,81,30,-20,-37,-213,-78
-87,-114,-21,97,-30,-67,81,30,-20,-37,-213,-78
-81,-120,-33,97,-18,-79,87,24,-20,-43,-219,-78
-81,-114,-27,97,-24,-73,93,24,-14,-37,-219,-78
-75,-114,-33,91,-18,-73,87,36,-8,-25,-213,-72
-75,-114,-33,91,-18,-73,93,42,-3,-25,-207,-66
-75,-114,-33,91,-18,-73,87,42,-3,-25,-207,-60
-75,-114,-33,91,-18,-73,87,42,-3,-25,-207,-60
-69,-108,-33,85,-12,-73,87,48,-3,-19,-201,-60
-69,-108,-33,85,-12,-73,87,48,-3,-19,-201,-60
-63,-102,-33,79,-12,-67,87,48,3,-13,-195,-60
-63,-102,-33,79,-12,-67,87,48,3,-13,-195,-60
-57,-102,-39,79,-6,-73,87,42,9,-13,-189,-60
-57,-96,-33,73,-6,-67,87,42,9,-13,-189,-60
-57,-96,-33,73,-6,-67,87,42,15,-7,-189,-60
-57,-96,-33,73,-6,-67,87,48,21,-1,-189,-60
-57,-90,-27,73,-12,-61,87,54,15,-1,-183,-66
-57,-90,-27,73,-12,-61,87,54,15,-1,-183,-66
-57,-84,-21,67,-12,-55,87,54,15,-1,-183,-72
-57,-84,-21,67,-12,-55,87,60,15,5,-177,-72
-57,-84,-21,67,-12,-55,81,60,21,11,-171,-66
-51,-84,-27,67,-6,-55,81,60,21,11,-171,-66
-51,-84,-27,67,-6,-55,81,60,27,11,-171,-66
-51,-84,-27,67,-6,-55,81,60,33,11,-171,-66
-51,-78,-21,61,-12,-49,81,66,33,17,-171,-54
-51,-78,-21,61,-12,-49,81,66,39,17,-171,-54
-45,-78,-27,61,-6,-55,81,78,39,17,-171,-48
-45,-78,-27,61,-6,-55,75,84,39,17,-171,-48
-45,-78,-27,61,-6,-55,75,84,45,23,-171,-54
-45,-78,-27,61,-6,-55,75,84,45,23,-171,-42
-45,-72,-21,55,-6,-49,75,90,51,23,-165,-48
-45,-72,-21,55,-6,-49,75,96,51,29,-159,-42
-33,-66,-27,49,0,-49,75,96,57,23,-159,-42
-33,-66,-27,49,0,-49,69,102,63,23,-153,-36
-27,-60,-27,43,6,-43,69,102,57,23,-153,-42
-21,-60,-33,37,12,-49,69,102,63,23,-153,-42
-21,-54,-27,37,6,-43,69,96,81,35,-153,-30
-15,-54,-33,31,12,-43,69,108,81,35,-147,-30
-15,-54,-33,31,12,-43,69,102,93,47,-147,-24
-9,-54,-39,31,17,-49,69,102,93,59,-141,-18
-3,-48,-39,25,17,-43,69,108,99,59,-135,-24
-3,-48,-39,25,17,-43,69,120,111,65,-129,-18
3,-48,-45,19,17,-49,63,126,111,65,-123,-18
3,-42,-39,19,17,-43,63,132,117,71,-117,-12
9,-42,-45,13,17,-43,63,132,129,71,-111,0
9,-42,-45,13,17,-43,57,138,135,83,-105,6
9,-36,-39,13,17,-37,57,138,141,89,-99,18
21,-36,-51,7,29,-43,51,144,147,95,-87,24
21,-30,-45,1,23,-37,51,168,165,95,-87,30
26,-30,-51,1,29,-43,51,168,171,100,-81,36
21,-24,-39,1,23,-31,51,186,189,100,-81,36
26,-18,-39,-5,23,-31,45,198,201,112,-69,54
26,-6,-39,-17,29,-19,45,198,201,106,-63,66
26,-6,-39,-17,29,-19,45,204,207,124,-45,72
38,-6,-51,-23,41,-25,33,210,213,130,-33,84
44,-6,-57,-23,47,-31,33,222,231,142,-21,95
56,12,-51,-28,53,-19,27,234,231,142,-9,95
62,17,-51,-34,53,-13,27,234,243,148,3,107
80,17,-57,-46,71,-13,21,252,243,166,15,119
86,23,-57,-52,71,-7,15,264,255,172,21,131
98,41,-51,-70,77,4,15,264,255,184,32,149
104,41,-57,-70,83,-1,9,282,267,190,38,167
110,47,-57,-76,83,4,3,288,267,208,50,185
122,59,-57,-88,89,4,-3,294,279,208,62,197
134,71,-57,-100,95,4,-15,300,279,220,80,215
146,83,-57,-112,101,10,-21,306,285,226,92,227
158,95,-57,-124,107,16,-27,312,285,232,98,245
164,101,-57,-130,113,16,-33,318,285,238,110,257
176,107,-63,-142,119,16,-33,318,291,238,110,269
182,113,-63,-148,125,22,-33,318,291,244,122,275
194,119,-69,-154,131,22,-38,324,297,244,128,287
200,125,-69,-160,137,22,-44,324,303,244,134,293
194,131,-57,-160,125,34,-44,324,297,244,146,305
194,137,-51,-166,125,40,-44,330,297,244,152,317
200,137,-57,-166,131,34,-44,330,285,238,158,329
200,137,-57,-166,131,34,-50,330,285,238,170,335
206,143,-57,-172,131,40,-62,318,285,238,182,335
212,155,-51,-184,131,46,-62,318,273,238,182,341
218,161,-51,-190,137,52,-74,312,273,238,188,341
218,161,-51,-190,137,52,-74,300,267,232,188,341
224,173,-45,-196,137,58,-80,294,261,226,188,341
230,173,-51,-202,143,58,-80,288,255,220,188,341
236,179,-51,-208,143,58,-86,270,243,214,188,335
236,185,-45,-208,143,64,-86,258,237,196,176,335
236,185,-45,-208,143,64,-86,246,225,196,164,323
236,185,-45,-208,143,64,-86,228,207,190,146,311
236,185,-45,-208,143,64,-80,222,189,178,140,305
230,185,-39,-208,137,70,-74,210,183,166,122,293
218,173,-39,-196,131,64,-74,198,171,160,104,263
206,167,-33,-184,119,64,-68,192,159,148,92,245
200,161,-33,-178,119,58,-68,180,147,136,74,221
194,155,-33,-172,113,58,-56,168,141,124,56,209
176,149,-21,-160,101,58,-44,156,141,106,38,191
164,143,-15,-154,89,58,-38,138,123,100,32,173
146,137,-10,-142,77,64,-33,126,123,100,21,155
134,125,-10,-130,71,58,-33,114,117,83,9,131
128,107,-15,-118,71,40,-15,102,105,83,-15,113
116,101,-10,-106,65,40,-9,96,99,77,-33,95
116,89,-21,-100,71,28,3,90,93,77,-51,84
110,83,-21,-94,65,28,15,78,81,71,-63,66
92,77,-10,-82,53,28,21,72,81,65,-81,48
74,71,-10,-70,35,34,27,66,69,53,-99,42
68,65,-10,-64,35,28,33,54,69,47,-105,36
56,53,-10,-52,29,22,33,48,57,35,-123,24
50,47,-10,-46,23,22,33,48,57,29,-129,12
44,41,-10,-40,23,16,39,30,51,17,-135,-6
38,35,-10,-34,17,16,39,30,39,5,-147,-6
32,29,-10,-28,17,10,45,24,33,-7,-147,-12
32,17,-10,-23,23,4,45,12,21,-7,-165,-24
26,17,-10,-23,17,4,45,6,15,-13,-171,-30
32,17,-21,-23,23,-1,51,-6,3,-13,-183,-42
32,12,-27,-23,29,-7,51,-6,3,-13,-189,-48
26,12,-21,-23,23,-1,57,-12,3,-13,-195,-54
26,12,-21,-23,23,-1,57,-12,-3,-13,-195,-54
26,6,-21,-23,17,-7,57,-12,3,-25,-201,-54
21,6,-10,-17,17,-1,57,-24,-3,-25,-207,-54
26,0,-21,-17,17,-13,57,-24,-3,-31,-201,-54
26,0,-21,-17,17,-13,57,-24,-3,-31,-207,-60
26,0,-27,-17,23,-13,57,-30,-3,-31,-207,-60
26,0,-27,-17,23,-13,57,-30,-3,-31,-207,-60
26,0,-27,-17,23,-13,57,-30,-8,-31,-213,-66
26,-6,-33,-17,23,-19,57,-30,-20,-37,-219,-66
26,-6,-33,-17,23,-19,51,-36,-20,-37,-219,-66
26,-6,-27,-11,17,-19,51,-36,-20,-37,-213,-66
26,-6,-27,-11,17,-19,45,-36,-26,-43,-219,-72
26,-6,-27,-11,17,-19,45,-36,-32,-43,-213,-72
26,0,-21,-17,17,-13,45,-36,-38,-49,-219,-72
26,0,-21,-17,17,-13,45,-42,-38,-49,-225,-72
26,-6,-27,-11,17,-19,51,-42,-38,-55,-219,-66
26,-6,-27,-11,17,-19,51,-42,-38,-55,-219,-72
26,-18,-39,-5,23,-31,57,-42,-38,-61,-213,-66
26,-18,-39,-5,23,-31,57,-42,-38,-61,-213,-66
26,-18,-39,-5,23,-31,51,-42,-38,-61,-213,-66
26,-12,-33,-11,23,-25,51,-42,-38,-61,-213,-66
26,-12,-33,-11,23,-25,45,-42,-38,-61,-207,-66
26,-18,-39,-5,23,-31,45,-42,-38,-67,-207,-66
26,-12,-39,-11,29,-25,45,-36,-38,-61,-213,-66
26,-12,-39,-11,29,-25,51,-36,-38,-61,-213,-66
26,-6,-33,-17,23,-19,51,-36,-38,-49,-213,-66
26,-6,-33,-17,23,-19,51,-36,-32,-49,-213,-66
26,-6,-27,-11,17,-19,51,-36,-26,-55,-213,-72
26,-6,-27,-11,17,-19,51,-30,-26,-55,-213,-72
21,-6,-21,-11,17,-13,51,-30,-26,-61,-213,-78
21,-6,-21,-11,17,-13,51,-30,-26,-61,-213,-78
21,6,-10,-17,17,-1,51,-30,-26,-61,-213,-78
21,6,-10,-17,17,-1,51,-24,-20,-55,-213,-78
21,17,-10,-23,12,4,51,-24,-26,-55,-207,-78
21,17,-10,-23,12,4,51,-24,-26,-55,-207,-78
21,12,-10,-17,17,4,51,-18,-20,-55,-213,-72
26,17,-10,-23,17,4,51,-18,-14,-55,-207,-72
26,17,-10,-23,17,4,51,-18,-8,-49,-213,-72
21,17,-10,-23,12,4,51,-18,-8,-49,-213,-72
26,17,-10,-23,17,4,51,-12,-3,-49,-207,-72
26,12,-10,-23,17,-1,51,-12,-3,-43,-207,-72
26,12,-15,-23,17,-1,51,-12,-3,-43,-207,-72
26,12,-15,-23,17,-1,57,-12,-3,-43,-207,-72
26,12,-10,-23,17,-1,57,-6,-3,-43,-207,-72
26,12,-10,-23,17,-1,57,0,-3,-37,-207,-72
21,12,-10,-17,17,4,51,6,-3,-37,-195,-72
26,17,-10,-23,17,4,51,6,3,-37,-195,-72
26,17,-10,-23,17,4,57,6,3,-31,-201,-72
21,17,-10,-23,12,4,63,6,3,-31,-201,-72
21,17,-10,-23,12,4,69,6,3,-25,-201,-72
21,17,-10,-23,12,4,75,6,3,-25,-201,-72
15,17,-4,-17,6,4,69,6,3,-19,-201,-66
15,17,-4,-17,6,4,69,6,3,-19,-201,-66
9,17,8,-17,0,10,63,6,3,-19,-201,-66
9,17,8,-17,0,10,63,12,3,-19,-201,-66
15,17,2,-23,6,4,63,6,3,-19,-201,-66
15,17,2,-23,6,4,63,6,3,-19,-201,-66
21,17,-4,-23,12,4,63,0,3,-19,-201,-66
21,17,-4,-23,12,4,63,0,3,-19,-201,-66
21,17,-4,-23,12,4,57,6,3,-25,-201,-60
21,17,-4,-23,12,4,57,6,3,-25,-201,-60
21,17,-4,-23,12,4,57,12,3,-37,-201,-66
21,17,-4,-23,12,4,57,6,3,-37,-201,-66
21,17,-4,-23,12,4,57,6,-3,-37,-207,-66
21,17,-4,-23,12,4,57,6,-3,-37,-207,-66
21,17,-4,-23,12,4,57,0,-3,-37,-213,-66
21,17,-4,-23,12,4,57,0,-3,-37,-213,-66
15,17,2,-23,6,4,57,-6,-3,-43,-207,-66
15,17,2,-23,6,4,57,-6,-3,-43,-207,-66
9,17,8,-17,0,10,57,-12,-3,-43,-207,-66
9,17,8,-17,0,10,57,-12,-3,-49,-207,-60
21,23,8,-23,6,16,57,-12,-3,-49,-207,-60
26,23,-4,-23,17,10,57,-12,-3,-49,-207,-60
15,17,2,-23,6,4,57,-6,-3,-49,-207,-60
15,17,2,-23,6,4,57,-18,-3,-49,-219,-60
21,17,-4,-23,12,4,45,-24,-3,-49,-219,-66
15,17,-4,-17,6,4,51,-24,-3,-49,-213,-66
15,17,-4,-17,6,4,51,-24,-3,-49,-213,-66
9,12,-4,-11,6,4,57,-24,-8,-49,-207,-66
9,12,-4,-11,6,4,57,-24,-8,-49,-207,-66
9,12,-4,-11,6,4,57,-24,-8,-55,-207,-66
9,12,-4,-11,6,4,57,-24,-14,-55,-213,-66
9,6,-10,-11,6,4,57,-24,-14,-61,-213,-66
9,6,-10,-11,6,4,57,-24,-20,-61,-213,-66
15,6,-10,-11,12,-1,57,-30,-26,-67,-213,-72
15,6,-10,-11,12,-1,57,-30,-32,-67,-219,-72
21,6,-10,-17,17,-1,57,-36,-38,-67,-219,-72
15,0,-10,-11,17,-7,57,-36,-38,-67,-213,-72
15,0,-10,-11,17,-7,57,-36,-38,-67,-213,-78
15,0,-10,-11,17,-7,57,-36,-38,-73,-219,-78
15,0,-10,-11,17,-7,57,-42,-38,-73,-219,-78
15,0,-10,-11,17,-7,57,-42,-44,-73,-219,-78
9,0,-10,-5,12,-1,51,-42,-44,-73,-219,-84
9,0,-10,-5,12,-1,51,-42,-44,-73,-219,-84
3,0,-10,-5,6,-1,51,-42,-44,-73,-219,-90
3,-6,-10,1,6,-7,51,-42,-50,-73,-219,-90
9,-6,-10,-5,12,-7,57,-42,-50,-79,-231,-96
9,-6,-10,-5,12,-7,57,-42,-50,-79,-231,-96
15,-6,-15,-5,17,-13,63,-42,-50,-79,-237,-102
15,-6,-15,-5,17,-13,63,-42,-50,-79,-231,-102
21,0,-15,-11,17,-7,63,-36,-32,-73,-219,-108
26,6,-15,-17,17,-7,69,-30,-26,-67,-213,-102
26,12,-15,-23,17,-1,75,-24,-20,-61,-207,-108
26,17,-15,-23,17,4,75,-18,-14,-55,-207,-102
26,17,-10,-23,17,4,87,-6,-8,-55,-207,-102
38,29,-10,-34,23,10,87,6,-3,-49,-195,-96
38,47,2,-40,17,28,105,18,3,-37,-189,-84
32,59,20,-46,12,40,111,24,9,-31,-177,-78
32,65,26,-46,12,46,123,24,9,-19,-177,-78
32,77,38,-52,6,58,123,24,9,-19,-177,-78
32,71,32,-52,6,52,129,24,15,-19,-183,-84
32,77,38,-52,6,58,129,24,15,-13,-177,-84
32,95,56,-64,-6,76,129,30,27,-7,-165,-78
32,101,62,-64,-6,82,129,30,27,-1,-159,-72
32,113,74,-70,-12,94,129,36,33,5,-147,-54
32,113,74,-70,-12,94,117,36,33,17,-141,-54
44,119,68,-82,-6,94,117,36,45,17,-141,-54
50,119,62,-82,0,94,117,36,45,17,-141,-54
50,119,62,-82,0,94,117,36,45,17,-141,-54
50,119,62,-82,0,94,111,30,45,17,-141,-54
50,119,62,-82,0,94,105,6,33,17,-141,-54
50,119,62,-82,0,94,99,-6,21,11,-141,-54
44,107,56,-76,0,82,93,-12,21,11,-147,-54
44,95,44,-70,6,70,87,-6,15,-1,-147,-54
50,89,32,-70,17,64,75,-12,3,-7,-153,-54
50,83,26,-64,17,58,63,-24,-3,-19,-159,-60
50,77,20,-64,17,52,51,-30,-3,-19,-159,-66
50,71,14,-58,17,46,51,-30,-3,-25,-159,-66
56,53,-10,-52,29,22,45,-18,-3,-19,-165,-66
56,29,-21,-40,41,4,45,-18,-8,-31,-171,-72
56,23,-27,-40,41,4,45,-24,-8,-31,-177,-78
56,17,-39,-34,47,-7,45,-30,-20,-43,-195,-90
56,6,-57,-23,53,-25,45,-36,-38,-55,-201,-102
50,-6,-63,-23,53,-31,45,-42,-56,-67,-207,-114
56,-12,-75,-23,65,-43,45,-47,-74,-79,-213,-120
50,-18,-75,-23,59,-43,45,-47,-74,-91,-219,-120
38,-24,-69,-17,53,-43,39,-53,-86,-97,-225,-126
26,-30,-51,1,29,-43,45,-59,-86,-103,-231,-132
9,-42,-45,13,17,-43,39,-59,-98,-109,-231,-144
3,-54,-51,25,17,-55,45,-59,-98,-115,-237,-144
-9,-54,-39,31,17,-49,45,-59,-98,-115,-237,-144
-15,-60,-39,37,17,-49,45,-59,-98,-115,-237,-144
-21,-60,-33,37,12,-49,51,-53,-98,-115,-237,-144
-21,-60,-33,37,12,-49,51,-53,-92,-115,-243,-150
-27,-60,-27,43,6,-43,51,-59,-92,-115,-243,-150
-33,-60,-21,43,0,-43,57,-59,-98,-115,-243,-150
-27,-60,-27,43,6,-43,57,-65,-98,-115,-243,-150
-27,-60,-27,43,6,-43,57,-65,-98,-115,-243,-150
-33,-60,-21,43,0,-43,57,-65,-110,-121,-249,-150
-33,-66,-27,49,0,-49,51,-65,-110,-121,-249,-150
-33,-66,-27,49,0,-49,51,-59,-116,-121,-255,-144
-33,-66,-27,49,0,-49,51,-59,-116,-121,-255,-144
-33,-66,-27,49,0,-49,51,-59,-110,-115,-249,-144
-33,-66,-27,49,0,-49,45,-59,-110,-115,-243,-144
-33,-66,-27,49,0,-49,45,-59,-104,-109,-237,-144
-33,-66,-27,49,0,-49,45,-59,-104,-103,-237,-144
-33,-60,-21,43,0,-43,45,-59,-104,-109,-237,-144
-33,-60,-21,43,0,-43,45,-59,-104,-109,-237,-144
-33,-54,-15,43,-6,-37,45,-59,-104,-115,-237,-144
-33,-54,-15,43,-6,-37,45,-59,-104,-115,-237,-144
-33,-54,-15,43,-6,-37,51,-59,-104,-115,-237,-144
-33,-66,-27,49,0,-49,51,-59,-98,-115,-237,-144
-39,-66,-21,49,-6,-43,57,-53,-98,-115,-243,-138
-33,-72,-33,49,6,-55,57,-59,-98,-115,-243,-144
-39,-60,-15,49,-6,-37,57,-71,-98,-115,-243,-144
-51,-54,-10,49,-24,-25,69,-71,-92,-97,-237,-144
-63,-18,38,37,-54,4,87,-53,-50,-67,-225,-132
-75,29,110,13,-90,70,117,0,27,-1,-201,-120
-81,95,182,-17,-132,136,171,138,177,100,-135,-84
-75,143,224,-28,-150,184,243,324,363,214,-75,-48
-57,191,248,-58,-156,220,315,432,465,286,-39,-18
-21,221,242,-94,-132,232,345,396,453,316,-9,12
9,245,236,-118,-114,244,327,252,357,328,32,72
68,257,188,-166,-54,226,267,90,183,310,110,143
170,287,116,-232,23,208,201,-107,-44,274,206,269
254,347,92,-298,77,226,69,-377,-320,226,326,419
320,437,110,-376,101,274,-116,-707,-614,232,518,647
416,557,140,-490,137,352,-362,-959,-848,280,782,929
512,701,188,-604,161,448,-584,-1151,-1022,358,1064,1229
572,731,152,-652,209,442,-770,-1271,-1148,406,1250,1445
608,581,-21,-592,317,274,-896,-1295,-1196,382,1286,1481
602,359,-243,-484,425,58,-968,-1229,-1178,280,1154,1361
578,185,-393,-382,491,-97,-998,-1175,-1160,106,902,1145
530,101,-429,-316,485,-157,-1046,-1211,-1208,-67,626,923
440,77,-357,-262,401,-133,-1088,-1295,-1286,-253,380,719
314,41,-267,-178,293,-109,-1046,-1427,-1412,-487,68,455
176,0,-183,-82,179,-91,-962,-1499,-1502,-775,-291,125
80,-54,-141,-23,107,-97,-824,-1409,-1448,-907,-495,-84
50,-108,-165,19,107,-133,-680,-1181,-1256,-859,-531,-180
32,-168,-207,61,119,-187,-560,-971,-1046,-745,-507,-240
21,-210,-225,91,113,-217,-440,-773,-848,-637,-477,-264
3,-210,-207,103,95,-211,-302,-563,-644,-529,-447,-252
3,-186,-183,91,83,-187,-194,-383,-482,-397,-375,-222
3,-156,-153,73,71,-157,-104,-269,-350,-301,-333,-198
9,-144,-147,67,71,-145,-38,-173,-254,-223,-291,-186
21,-126,-141,49,71,-133,-3,-101,-194,-163,-267,-162
21,-132,-147,55,77,-139,15,-53,-146,-139,-249,-156
15,-126,-135,55,65,-133,39,-42,-128,-121,-249,-144
-3,-114,-105,55,41,-109,33,-42,-116,-121,-249,-144
-27,-114,-81,67,17,-97,27,-42,-128,-127,-249,-144
-39,-90,-45,61,6,-67,33,-42,-128,-139,-249,-144
-33,-66,-27,49,0,-49,39,-42,-122,-127,-237,-144
-33,-54,-15,43,-6,-37,51,-42,-98,-121,-243,-144
-33,-54,-15,43,-6,-37,75,-18,-80,-121,-231,-132
-21,-60,-33,37,12,-49,81,6,-62,-109,-231,-144
-21,-78,-51,49,17,-67,87,24,-50,-103,-237,-144
-21,-78,-51,49,17,-67,87,24,-50,-103,-231,-144
-21,-84,-57,49,17,-73,81,30,-50,-103,-237,-144
-15,-84,-63,49,17,-73,81,24,-50,-103,-237,-144
-15,-72,-51,43,17,-61,75,24,-50,-97,-231,-144
-21,-72,-45,43,17,-61,75,24,-50,-97,-231,-144
-21,-72,-45,43,17,-61,75,24,-44,-91,-231,-144
-21,-66,-39,43,12,-55,81,24,-38,-85,-231,-144
-15,-66,-45,37,17,-55,81,36,-32,-79,-231,-144
-15,-66,-45,37,17,-55,87,42,-26,-79,-225,-144
-15,-66,-45,37,17,-55,87,42,-20,-85,-225,-144
-15,-66,-45,37,17,-55,87,42,-20,-85,-225,-144
-15,-66,-45,37,17,-55,87,48,-20,-85,-225,-144
-15,-66,-45,37,17,-55,87,48,-20,-85,-225,-144
-15,-66,-45,37,17,-55,87,48,-20,-85,-225,-144
-15,-66,-45,37,17,-55,87,48,-20,-85,-225,-144
-9,-66,-51,37,17,-61,81,42,-20,-85,-213,-144
-9,-60,-45,31,17,-55,81,42,-20,-85,-213,-144
-9,-60,-45,31,17,-55,75,42,-20,-79,-207,-144
-9,-60,-45,31,17,-55,75,48,-14,-73,-207,-144
-3,-54,-45,25,17,-49,75,54,-14,-73,-207,-144
-3,-54,-45,25,17,-49,75,54,-14,-73,-207,-144
3,-48,-45,19,17,-49,75,54,-8,-73,-213,-150
3,-48,-45,19,17,-49,75,60,-8,-67,-207,-150
3,-48,-45,19,17,-49,69,66,-3,-61,-207,-144
9,-48,-51,19,23,-49,69,66,-3,-61,-207,-144
9,-48,-51,19,23,-49,69,72,-3,-61,-207,-138
9,-48,-51,19,23,-49,69,72,-3,-61,-207,-138
9,-48,-51,19,23,-49,69,66,-3,-55,-201,-138
9,-48,-51,19,23,-49,69,66,-3,-55,-201,-138
15,-54,-63,19,29,-61,69,66,-3,-55,-195,-144
15,-54,-63,19,29,-61,63,72,-3,-55,-195,-144
15,-48,-57,13,29,-55,63,72,-3,-55,-201,-144
15,-48,-57,13,29,-55,63,72,-3,-55,-201,-132
15,-36,-45,7,23,-43,63,78,-3,-61,-201,-132
15,-36,-45,7,23,-43,63,84,-3,-55,-195,-126
21,-36,-51,7,29,-43,63,84,-3,-55,-195,-120
21,-36,-51,7,29,-43,57,90,3,-55,-189,-114
21,-36,-51,7,29,-43,57,90,-3,-49,-189,-114
26,-36,-57,1,35,-49,57,90,3,-49,-189,-114
26,-24,-51,-5,35,-37,57,90,9,-43,-183,-102
26,-24,-57,-11,41,-37,57,102,9,-43,-177,-102
32,-18,-57,-17,41,-37,57,102,9,-37,-171,-96
38,-18,-63,-17,47,-37,57,102,9,-25,-165,-90
38,-12,-57,-23,47,-31,51,102,21,-25,-165,-84
38,-12,-57,-23,47,-31,51,114,33,-19,-159,-78
38,-12,-57,-23,47,-31,39,114,39,-19,-159,-66
38,-6,-51,-23,41,-25,39,120,45,-13,-153,-60
44,-6,-57,-23,47,-31,45,126,51,-19,-147,-60
44,-6,-57,-23,47,-31,39,132,57,-7,-141,-54
44,0,-51,-23,47,-25,45,138,57,-7,-135,-54
56,0,-63,-23,59,-31,39,144,63,-1,-123,-48
56,6,-57,-23,53,-25,39,162,69,5,-117,-30
62,6,-63,-28,59,-25,39,162,75,17,-111,-24
56,12,-51,-28,53,-19,39,174,81,23,-105,-12
62,17,-51,-34,53,-13,33,186,93,41,-93,6
80,23,-51,-52,65,-7,27,186,99,35,-87,12
86,23,-57,-52,71,-7,27,198,105,47,-69,18
104,29,-69,-64,89,-13,9,198,117,53,-57,24
116,29,-81,-70,101,-19,9,210,135,59,-45,36
122,35,-81,-76,101,-13,3,216,129,53,-39,48
128,41,-81,-82,107,-13,3,216,141,59,-27,60
140,41,-93,-88,119,-19,-3,228,135,71,-21,72
146,47,-93,-94,119,-13,-9,240,141,77,-15,84
152,65,-81,-106,119,-1,-9,240,147,83,3,95
158,65,-87,-112,125,-1,-15,258,159,89,21,107
158,71,-81,-112,119,4,-21,264,165,100,32,125
170,83,-81,-124,125,4,-27,270,177,100,38,137
182,95,-81,-136,131,4,-33,270,177,100,50,149
194,107,-81,-148,137,10,-33,270,177,100,62,161
206,119,-81,-160,143,16,-38,270,177,100,62,173
212,125,-81,-166,149,16,-50,270,171,106,74,185
224,131,-87,-178,155,16,-50,270,165,106,74,197
230,137,-87,-184,161,22,-56,270,165,112,86,203
242,143,-93,-190,167,22,-62,276,159,112,92,215
248,149,-93,-196,173,22,-68,276,165,112,98,221
248,155,-87,-202,167,28,-68,276,165,118,116,233
248,161,-81,-202,167,34,-68,282,165,118,122,245
260,161,-93,-208,179,28,-68,282,159,118,134,257
260,161,-93,-208,179,28,-74,282,159,118,146,263
266,167,-93,-214,179,34,-86,270,153,112,146,263
266,179,-87,-226,179,40,-86,264,141,106,146,269
272,185,-87,-232,185,46,-98,258,135,100,140,263
272,185,-87,-232,185,46,-98,240,129,100,140,263
272,191,-81,-232,179,52,-104,240,129,100,140,269
272,191,-81,-232,179,52,-104,234,123,95,140,269
272,191,-81,-232,179,52,-110,222,117,95,140,269
266,197,-69,-232,173,58,-110,210,105,77,128,263
266,197,-63,-232,167,64,-110,198,105,77,122,257
260,197,-57,-226,161,64,-110,192,93,77,110,245
254,197,-51,-226,155,70,-104,186,87,65,110,245
242,197,-39,-220,143,76,-98,180,87,59,98,233
230,185,-39,-208,137,70,-92,162,75,47,80,203
218,179,-33,-196,125,70,-86,156,63,35,68,179
212,173,-33,-190,125,64,-80,144,51,17,50,155
206,167,-33,-184,119,64,-68,132,45,5,32,137
188,155,-27,-172,107,58,-56,126,45,-1,32,125
176,149,-21,-160,101,58,-50,114,27,-1,15,107
158,137,-15,-148,89,58,-38,108,27,-1,9,95
146,125,-15,-136,83,52,-33,102,21,-13,-3,84
134,113,-15,-124,77,46,-27,84,15,-19,-27,66
122,107,-10,-112,65,46,-21,78,15,-31,-45,48
116,101,-10,-106,65,40,-9,66,15,-37,-63,24
110,95,-10,-100,59,40,3,54,9,-49,-75,6
98,83,-10,-88,53,34,9,42,3,-49,-93,-18
86,77,-10,-82,47,34,15,36,-3,-61,-111,-24
86,65,-15,-76,53,22,21,18,-3,-61,-117,-36
80,53,-21,-64,53,10,21,12,-14,-73,-135,-48
68,47,-15,-58,41,10,21,18,-8,-73,-141,-60
62,41,-15,-52,41,10,27,0,-14,-79,-147,-78
50,35,-10,-40,29,10,27,6,-20,-85,-159,-78
44,29,-10,-34,29,4,33,0,-26,-91,-159,-84
38,23,-10,-28,23,4,33,-6,-32,-97,-171,-84
32,23,-10,-28,17,4,33,-12,-38,-103,-177,-84
32,17,-10,-23,23,4,39,-18,-44,-109,-183,-84
32,17,-15,-23,23,4,39,-18,-44,-109,-189,-84
32,17,-15,-23,23,4,45,-24,-50,-109,-189,-84
32,17,-15,-23,23,4,45,-24,-56,-109,-189,-84
32,17,-21,-23,23,-1,45,-24,-56,-121,-189,-78
26,17,-10,-23,17,4,45,-36,-62,-121,-195,-78
26,6,-15,-17,17,-7,45,-36,-68,-127,-201,-84
26,6,-15,-17,17,-7,45,-36,-68,-127,-207,-90
21,0,-15,-11,17,-7,45,-42,-74,-127,-213,-96
21,0,-15,-11,17,-7,45,-42,-74,-127,-219,-96
21,0,-15,-11,17,-7,45,-42,-74,-127,-219,-102
21,-6,-21,-11,17,-13,45,-42,-86,-133,-225,-102
21,-6,-21,-11,17,-13,39,-47,-80,-133,-219,-102
15,-6,-15,-5,17,-13,39,-47,-80,-133,-213,-102
21,-6,-21,-11,17,-13,39,-47,-80,-133,-213,-102
21,0,-15,-11,17,-7,39,-47,-86,-133,-207,-102
26,6,-15,-17,17,-7,45,-47,-86,-133,-207,-96
26,12,-10,-23,17,-1,45,-53,-86,-133,-213,-96
26,6,-15,-17,17,-7,45,-53,-86,-133,-219,-96
26,6,-15,-17,17,-7,45,-53,-86,-133,-219,-102
26,-6,-27,-11,17,-19,45,-53,-86,-133,-225,-102
26,-6,-27,-11,17,-19,45,-53,-86,-133,-225,-102
26,-12,-33,-11,23,-25,45,-53,-86,-133,-225,-102
26,-6,-27,-11,17,-19,45,-53,-86,-133,-225,-102
26,-12,-33,-11,23,-25,45,-53,-86,-133,-219,-102
26,-18,-39,-5,23,-31,45,-53,-86,-139,-219,-102
26,-18,-39,-5,23,-31,39,-47,-86,-139,-219,-102
26,-18,-39,-5,23,-31,45,-47,-86,-139,-219,-102
21,-18,-33,-5,17,-25,39,-47,-86,-133,-213,-102
21,-18,-33,-5,17,-25,39,-47,-80,-133,-213,-102
21,-18,-33,-5,17,-25,39,-53,-74,-133,-219,-108
21,-18,-33,-5,17,-25,39,-47,-74,-133,-219,-108
21,-18,-33,-5,17,-25,39,-53,-74,-133,-225,-114
21,-18,-33,-5,17,-25,39,-53,-74,-133,-225,-114
15,-12,-21,-5,17,-19,45,-47,-68,-133,-225,-114
15,-12,-21,-5,17,-19,45,-42,-62,-127,-225,-114
9,-6,-10,-5,12,-7,51,-42,-62,-127,-219,-114
9,-6,-10,-5,12,-7,51,-42,-62,-127,-219,-114
15,-12,-21,-5,17,-19,51,-42,-56,-127,-213,-102
21,-6,-21,-11,17,-13,51,-42,-50,-127,-207,-102
26,-6,-27,-11,17,-19,51,-42,-44,-121,-207,-96
21,-6,-21,-11,17,-13,51,-42,-44,-121,-207,-96
21,0,-15,-11,17,-7,51,-36,-38,-121,-207,-102
21,-6,-21,-11,17,-13,51,-36,-38,-115,-207,-102
21,0,-15,-11,17,-7,51,-36,-32,-115,-207,-108
21,0,-15,-11,17,-7,57,-36,-32,-115,-207,-108
15,0,-10,-11,17,-7,57,-30,-26,-115,-207,-108
15,0,-10,-11,17,-7,57,-24,-26,-109,-207,-108
9,0,-10,-5,12,-1,51,-18,-26,-109,-207,-108
15,6,-10,-11,12,-1,51,-18,-20,-109,-207,-108
15,6,-10,-11,12,-1,51,-24,-26,-109,-207,-102
9,6,-10,-11,6,4,51,-24,-26,-109,-207,-102
9,6,-10,-11,6,4,51,-30,-32,-109,-201,-96
9,6,-10,-11,6,4,51,-30,-32,-109,-201,-96
9,6,-10,-11,6,4,57,-24,-26,-103,-201,-90
9,6,-10,-11,6,4,57,-24,-20,-103,-201,-90
9,12,-4,-11,6,4,63,-18,-14,-103,-201,-90
9,12,-4,-11,6,4,63,-12,-8,-103,-201,-90
9,12,-4,-11,6,4,63,-18,-14,-103,-201,-90
9,12,-4,-11,6,4,63,-18,-14,-103,-201,-90
9,12,-4,-11,6,4,63,-24,-20,-103,-201,-90
9,12,-4,-11,6,4,63,-24,-20,-103,-201,-90
3,12,2,-11,0,4,51,-24,-20,-97,-207,-78
3,12,2,-11,0,4,51,-24,-20,-97,-207,-78
-3,12,8,-5,-6,4,45,-24,-20,-97,-207,-78
-3,12,8,-5,-6,4,45,-30,-20,-97,-207,-78
-3,6,2,-5,-6,4,51,-24,-20,-97,-207,-72
-3,6,2,-5,-6,4,51,-24,-20,-97,-207,-72
-3,0,-4,1,0,4,57,-24,-20,-97,-207,-66
-3,0,-4,1,0,4,57,-24,-20,-97,-207,-66
-3,6,2,-5,-6,4,51,-30,-20,-103,-207,-72
-3,6,2,-5,-6,4,51,-30,-20,-103,-207,-72
-3,12,8,-5,-6,4,45,-36,-26,-103,-207,-78
-3,12,8,-5,-6,4,45,-36,-26,-109,-207,-72
3,12,2,-11,0,4,39,-42,-38,-109,-207,-66
3,12,2,-11,0,4,39,-42,-38,-109,-207,-66
3,12,2,-11,0,4,33,-42,-44,-109,-219,-60
3,12,2,-11,0,4,33,-42,-44,-109,-219,-60
-3,12,8,-5,-6,4,27,-42,-44,-115,-213,-54
-3,6,2,-5,-6,4,27,-42,-44,-115,-213,-48
-9,0,2,1,-6,4,21,-42,-38,-115,-207,-42
-9,0,2,1,-6,4,21,-42,-38,-121,-207,-42
3,-12,-10,1,12,-13,33,-42,-38,-121,-207,-36
-9,-6,-4,7,-6,-1,33,-42,-38,-121,-207,-48
-3,0,-4,1,0,4,33,-42,-32,-121,-219,-42
-3,-6,-10,1,0,-1,33,-42,-38,-127,-219,-48
-3,-6,-10,1,0,-1,33,-42,-38,-127,-219,-48
-3,-12,-10,7,6,-7,33,-47,-44,-133,-219,-54
-3,-12,-10,7,6,-7,33,-47,-44,-133,-219,-54
-9,-12,-10,7,0,-7,33,-53,-44,-133,-219,-60
-9,-12,-10,7,0,-7,33,-53,-50,-133,-225,-66
-15,-18,-10,13,-6,-7,33,-59,-50,-133,-225,-72
-15,-18,-10,13,-6,-7,33,-59,-56,-133,-225,-78
-15,-18,-10,13,-6,-7,33,-59,-56,-139,-225,-78
-15,-18,-10,13,-6,-7,33,-59,-62,-139,-231,-78
-15,-18,-10,13,-6,-7,33,-59,-62,-139,-231,-72
-21,-24,-10,19,-6,-13,33,-59,-62,-139,-225,-72
-21,-18,-4,19,-12,-7,27,-59,-62,-133,-219,-78
-21,-18,-4,19,-12,-7,27,-59,-62,-139,-225,-78
-21,-12,2,13,-12,-1,21,-65,-62,-133,-219,-78
-21,-12,2,13,-12,-1,21,-65,-68,-133,-219,-78
-21,-6,8,13,-18,4,15,-65,-68,-133,-219,-84
-21,-6,8,13,-18,4,15,-65,-68,-133,-219,-84
-21,0,14,7,-18,4,15,-65,-68,-133,-219,-90
-21,-6,8,13,-18,4,15,-65,-74,-133,-219,-90
-21,-12,2,13,-12,-1,21,-65,-68,-139,-225,-84
-21,-12,2,13,-12,-1,21,-65,-68,-139,-225,-84
-21,-18,-4,19,-12,-7,27,-59,-62,-139,-225,-78
-21,-18,-4,19,-12,-7,27,-53,-62,-139,-219,-78
-15,-12,-4,13,-6,-1,27,-47,-44,-133,-207,-78
-9,-6,-4,7,-6,-1,33,-42,-38,-127,-207,-72
-3,0,-4,1,0,4,39,-42,-32,-121,-195,-72
3,6,-4,-5,0,4,39,-42,-26,-115,-195,-66
3,12,2,-11,0,4,45,-36,-20,-109,-195,-66
15,17,8,-23,6,10,45,-24,-8,-97,-183,-60
15,35,26,-23,-6,28,57,-18,-3,-79,-177,-48
9,47,44,-23,-18,46,63,-12,-3,-67,-165,-42
3,59,62,-23,-30,58,69,-12,-3,-55,-159,-36
3,71,74,-28,-36,70,69,-12,-3,-55,-159,-36
-3,71,80,-28,-42,76,69,-12,3,-55,-159,-36
-3,77,86,-28,-42,82,69,-12,3,-49,-153,-36
3,89,92,-40,-42,88,63,-18,9,-49,-147,-36
3,95,98,-40,-48,94,63,-18,9,-43,-141,-30
9,101,98,-46,-42,100,57,-24,9,-43,-135,-18
9,101,98,-46,-42,100,45,-24,9,-31,-129,-18
21,113,98,-58,-36,106,51,-18,21,-31,-129,-18
26,113,92,-64,-30,100,51,-12,21,-31,-129,-18
26,119,98,-64,-36,106,57,-6,21,-31,-129,-18
26,119,98,-64,-36,106,51,-6,21,-31,-129,-18
26,113,92,-64,-30,100,45,-30,9,-31,-135,-18
26,113,92,-64,-30,100,39,-42,-3,-37,-135,-18
21,95,80,-52,-30,88,33,-42,-3,-37,-147,-18
21,83,68,-46,-24,76,27,-42,-3,-49,-147,-18
26,71,50,-40,-12,58,15,-42,-8,-55,-153,-18
26,59,38,-34,-6,46,3,-47,-14,-67,-159,-24
26,47,26,-28,0,34,-9,-53,-26,-67,-159,-30
26,35,14,-23,6,22,-9,-53,-26,-73,-159,-30
26,29,2,-23,17,16,-21,-42,-20,-67,-165,-24
26,17,-10,-23,17,4,-27,-42,-32,-79,-171,-30
26,17,-10,-23,17,4,-33,-47,-32,-79,-177,-30
26,12,-15,-23,17,-1,-33,-53,-44,-91,-195,-42
26,0,-21,-17,17,-13,-33,-59,-50,-97,-195,-48
21,-12,-27,-5,17,-19,-33,-71,-68,-109,-201,-60
21,-12,-27,-5,17,-19,-33,-83,-74,-115,-201,-60
15,-18,-27,1,17,-25,-33,-83,-74,-127,-201,-60
3,-30,-27,13,17,-31,-33,-89,-86,-133,-213,-72
-15,-36,-15,25,6,-25,-33,-95,-86,-139,-225,-84
-33,-54,-15,43,-6,-37,-33,-95,-98,-139,-237,-102
-33,-66,-27,49,0,-49,-27,-95,-98,-145,-249,-108
-39,-60,-15,49,-6,-37,-33,-101,-98,-145,-249,-120
-45,-66,-15,55,-12,-43,-33,-101,-98,-145,-249,-120
-45,-60,-10,49,-12,-37,-33,-101,-98,-145,-249,-126
-45,-60,-10,49,-12,-37,-33,-101,-92,-145,-255,-132
-57,-54,-4,55,-30,-25,-33,-107,-92,-145,-249,-126
-63,-54,2,55,-36,-19,-27,-107,-98,-145,-249,-126
-63,-48,8,55,-36,-13,-27,-113,-98,-145,-243,-120
-63,-48,8,55,-36,-13,-27,-113,-98,-145,-243,-120
-63,-54,2,55,-36,-19,-21,-113,-104,-145,-243,-114
-63,-60,-4,61,-30,-25,-27,-113,-104,-145,-243,-114
-57,-66,-10,61,-24,-37,-21,-107,-104,-139,-243,-102
-57,-66,-10,61,-24,-37,-21,-107,-104,-139,-243,-102
-57,-72,-10,61,-18,-43,-21,-107,-98,-145,-243,-108
-57,-72,-10,61,-18,-43,-27,-107,-98,-145,-237,-108
-57,-78,-15,67,-18,-49,-27,-107,-92,-151,-237,-114
-57,-78,-15,67,-18,-49,-27,-107,-92,-145,-237,-114
-57,-72,-10,61,-18,-43,-27,-113,-98,-145,-237,-114
-57,-72,-10,61,-18,-43,-27,-113,-98,-145,-237,-114
-57,-66,-10,61,-24,-37,-27,-119,-104,-145,-237,-114
-57,-66,-10,61,-24,-37,-27,-119,-104,-145,-237,-114
-57,-66,-10,61,-24,-37,-9,-107,-104,-139,-237,-102
-57,-54,-4,55,-30,-25,-9,-107,-98,-139,-237,-114
-51,-54,-10,49,-24,-25,-15,-113,-110,-145,-243,-126
-57,-48,2,49,-30,-19,-15,-119,-110,-139,-243,-120
-75,-48,20,61,-48,-7,-3,-119,-98,-127,-243,-120
-87,-18,62,49,-78,16,9,-107,-56,-97,-225,-120
-87,29,122,19,-102,76,39,-42,33,-19,-207,-96
-87,89,182,-11,-132,136,81,96,207,95,-141,-60
-69,143,218,-28,-144,178,147,276,411,208,-63,-12
-51,155,212,-46,-132,184,207,384,525,298,-15,12
-21,179,206,-70,-114,190,231,372,507,334,21,42
15,221,212,-112,-96,214,225,264,417,358,74,107
80,245,158,-160,-30,202,189,126,261,358,170,203
176,257,80,-220,41,172,105,-30,39,322,272,341
254,323,68,-286,89,202,-27,-275,-224,298,428,539
332,419,80,-376,125,250,-194,-575,-518,310,656,797
428,563,134,-496,143,352,-434,-821,-776,346,938,1103
512,701,188,-604,161,448,-644,-1007,-944,418,1232,1421
578,713,128,-646,227,424,-782,-1091,-1034,466,1418,1613
608,551,-51,-580,329,244,-890,-1121,-1076,442,1454,1643
596,347,-249,-472,425,46,-956,-1085,-1100,328,1286,1517
554,173,-381,-364,473,-97,-980,-1097,-1130,112,980,1283
500,125,-369,-310,437,-115,-1040,-1163,-1208,-97,692,1043
404,137,-261,-268,335,-55,-1082,-1289,-1334,-289,428,821
254,113,-135,-184,197,-1,-1064,-1475,-1508,-583,62,521
104,53,-45,-76,77,4,-992,-1553,-1598,-883,-309,197
32,0,-39,-23,35,-19,-878,-1463,-1502,-997,-489,-18
9,-66,-69,25,29,-67,-746,-1247,-1292,-919,-531,-144
-9,-132,-117,67,47,-127,-632,-1049,-1094,-823,-531,-216
-27,-180,-147,103,53,-163,-524,-875,-908,-721,-519,-264
-27,-186,-153,103,53,-169,-404,-689,-710,-595,-465,-252
-9,-162,-147,85,59,-157,-272,-485,-500,-433,-387,-216
-9,-150,-135,79,53,-145,-170,-311,-338,-307,-327,-174
-21,-132,-105,73,35,-121,-104,-209,-242,-241,-285,-150
-3,-120,-111,61,47,-115,-62,-137,-176,-187,-267,-132
9,-114,-117,49,53,-115,-38,-101,-134,-139,-243,-120
9,-120,-123,55,59,-121,-44,-89,-122,-139,-249,-114
3,-114,-111,55,47,-115,-44,-101,-128,-139,-249,-114
-15,-90,-69,49,17,-79,-50,-101,-128,-151,-249,-114
-39,-66,-21,49,-6,-43,-44,-113,-128,-145,-249,-126
-39,-54,-10,43,-12,-31,-33,-107,-116,-145,-249,-126
-45,-54,-10,49,-18,-31,-21,-77,-98,-139,-237,-126
-45,-54,-10,49,-18,-31,-9,-53,-74,-121,-243,-120
-33,-66,-27,49,0,-49,15,-42,-56,-97,-231,-120
-33,-72,-33,49,6,-55,33,-18,-38,-85,-231,-132
-33,-90,-51,61,12,-73,33,-12,-32,-85,-237,-138
-33,-90,-51,61,12,-73,33,-12,-32,-85,-231,-144
-33,-96,-57,61,17,-79,21,-18,-38,-91,-237,-144
-27,-96,-63,61,17,-79,21,-24,-38,-91,-237,-144
-27,-78,-45,49,12,-61,9,-30,-38,-97,-231,-144
-33,-72,-33,49,6,-55,9,-36,-38,-97,-231,-144
-33,-66,-27,49,0,-49,3,-42,-32,-103,-231,-138
-33,-54,-15,43,-6,-37,9,-42,-26,-97,-231,-138
-27,-60,-27,43,6,-43,9,-36,-20,-79,-231,-138
-27,-60,-27,43,6,-43,15,-30,-14,-79,-225,-132
-27,-66,-33,43,6,-49,15,-30,-8,-73,-225,-132
-27,-66,-33,43,6,-49,15,-30,-8,-73,-225,-132
-27,-66,-33,43,6,-49,15,-24,-3,-67,-225,-132
-27,-66,-33,43,6,-49,15,-24,-3,-67,-225,-132
-27,-66,-33,43,6,-49,15,-24,-3,-61,-225,-132
-27,-66,-33,43,6,-49,15,-24,-3,-61,-225,-132
-27,-66,-33,43,6,-49,15,-24,-3,-61,-207,-126
-27,-60,-27,43,6,-43,15,-24,-3,-61,-207,-126
-33,-60,-21,43,0,-43,15,-18,-3,-55,-201,-120
-33,-60,-21,43,0,-43,15,-12,-3,-49,-201,-120
-33,-60,-21,43,0,-43,15,-12,-3,-55,-201,-120
-33,-60,-21,43,0,-43,15,-12,-3,-55,-207,-120
-33,-60,-21,43,0,-43,15,-18,3,-61,-207,-120
-33,-60,-21,43,0,-43,15,-12,3,-55,-207,-120
-33,-66,-27,49,0,-49,9,-6,9,-43,-207,-114
-27,-66,-33,43,6,-49,9,-6,9,-43,-207,-114
-27,-72,-39,49,12,-55,9,0,15,-37,-207,-114
-27,-72,-39,49,12,-55,9,0,21,-37,-207,-114
-21,-66,-39,43,12,-55,3,0,15,-31,-201,-108
-21,-66,-39,43,12,-55,3,0,21,-31,-201,-108
-9,-66,-51,37,17,-61,-3,6,15,-31,-195,-108
-9,-66,-51,37,17,-61,-9,12,15,-31,-195,-108
-9,-60,-45,31,17,-55,-15,12,21,-19,-201,-108
-9,-60,-45,31,17,-55,-15,12,21,-19,-201,-96
-9,-48,-33,25,17,-43,-21,18,27,-13,-201,-96
-9,-48,-33,25,17,-43,-21,24,27,-7,-195,-90
-3,-48,-39,25,17,-43,-15,18,33,-7,-195,-84
-3,-48,-39,25,17,-43,-21,24,39,-7,-189,-78
-3,-48,-39,25,17,-43,-15,18,33,-1,-189,-78
3,-48,-45,19,17,-49,-15,18,39,-1,-189,-78
3,-42,-39,19,17,-43,-21,18,51,-1,-189,-66
9,-42,-45,13,17,-43,-21,30,51,-1,-183,-66
9,-42,-45,13,17,-43,-27,30,57,-1,-183,-60
15,-42,-51,13,23,-49,-27,30,57,11,-177,-54
21,-42,-57,7,29,-49,-21,36,69,23,-165,-48
21,-48,-63,13,35,-55,-21,48,81,29,-153,-36
26,-54,-75,13,41,-67,-21,54,87,41,-141,-24
26,-54,-75,13,41,-67,-21,60,93,47,-129,-12
26,-48,-75,7,47,-61,-27,66,105,47,-123,-6
26,-48,-75,7,47,-61,-33,72,111,59,-117,0
26,-36,-63,1,41,-49,-33,78,117,65,-111,6
32,-36,-75,-5,53,-55,-33,84,123,71,-99,12
32,-30,-69,-11,47,-49,-33,96,135,71,-93,18
38,-30,-75,-11,53,-49,-33,96,141,83,-87,24
32,-24,-63,-11,47,-43,-33,102,153,83,-81,24
38,-18,-63,-17,47,-37,-33,114,165,100,-69,42
56,-6,-69,-23,59,-37,-33,120,165,100,-69,48
56,-6,-69,-23,59,-37,-33,132,171,106,-51,54
74,-6,-87,-28,77,-43,-50,144,177,118,-45,60
80,-6,-93,-28,83,-49,-50,156,195,130,-33,72
86,6,-87,-40,83,-37,-56,162,201,136,-21,84
92,12,-87,-46,89,-37,-56,162,219,142,-9,95
104,17,-93,-52,95,-37,-62,174,225,166,3,95
110,17,-93,-58,101,-31,-68,186,237,172,9,107
122,17,-99,-70,113,-31,-68,186,237,178,21,119
128,17,-111,-70,119,-43,-74,198,243,184,32,137
134,17,-123,-70,125,-49,-80,204,243,196,38,149
146,17,-129,-76,137,-49,-86,210,255,196,50,161
146,17,-123,-82,137,-43,-92,216,261,214,62,173
158,29,-123,-94,143,-37,-98,222,267,220,74,185
158,35,-117,-94,137,-31,-98,228,273,232,74,197
164,41,-117,-100,143,-31,-110,234,273,238,86,209
176,53,-117,-112,149,-25,-110,234,273,238,92,221
182,59,-117,-118,149,-19,-116,234,273,244,104,227
194,71,-117,-130,155,-13,-122,240,273,244,116,239
200,77,-117,-136,161,-13,-128,240,279,244,122,245
200,77,-117,-136,161,-13,-134,240,285,250,140,257
200,83,-111,-142,155,-7,-134,246,285,250,146,269
212,77,-129,-142,173,-19,-140,246,285,250,158,281
212,77,-129,-142,173,-19,-146,246,285,250,170,287
212,71,-135,-142,173,-25,-146,240,285,250,170,287
218,83,-129,-148,173,-13,-140,240,273,250,170,293
218,77,-135,-148,179,-19,-140,240,273,250,164,287
218,77,-135,-148,179,-19,-134,228,267,244,164,287
212,83,-123,-148,167,-13,-140,222,261,238,164,287
212,83,-123,-148,167,-13,-140,216,255,232,164,287
206,83,-117,-142,161,-7,-146,198,243,226,164,281
200,89,-105,-142,155,-1,-146,192,237,208,152,275
188,95,-87,-142,137,4,-152,168,219,202,140,257
182,95,-81,-136,131,4,-152,150,201,196,122,245
170,101,-63,-136,119,16,-152,132,177,178,116,233
158,101,-51,-130,107,22,-146,120,171,166,98,221
146,83,-57,-112,101,10,-134,108,165,160,80,203
134,77,-51,-106,95,10,-128,102,153,154,68,191
128,65,-57,-94,95,4,-116,96,147,142,50,179
122,59,-57,-88,89,4,-104,84,141,136,32,173
110,59,-45,-82,77,4,-98,72,135,124,27,155
98,53,-39,-76,71,4,-92,54,111,118,9,137
86,53,-27,-70,59,10,-86,42,105,112,-3,119
74,41,-27,-58,53,4,-80,30,93,100,-15,95
62,35,-21,-46,41,4,-68,12,69,95,-45,84
50,29,-15,-40,35,4,-62,6,63,83,-63,66
44,29,-10,-34,29,4,-56,-6,45,71,-87,36
38,23,-10,-28,23,4,-44,-18,33,59,-99,18
26,17,-10,-23,17,4,-38,-24,33,59,-111,6
26,17,-10,-23,17,4,-33,-30,27,47,-129,6
26,17,-10,-23,17,4,-33,-42,27,47,-129,6
21,6,-10,-17,17,-1,-33,-42,21,35,-147,0
15,0,-10,-11,17,-7,-33,-42,15,35,-159,-18
9,-6,-10,-5,12,-7,-33,-65,9,29,-165,-36
3,-12,-10,1,12,-13,-33,-71,-3,23,-183,-42
-3,-18,-10,7,6,-13,-27,-83,-3,17,-183,-48
-9,-30,-15,19,6,-25,-21,-83,-3,17,-189,-54
-15,-30,-10,19,0,-19,-21,-83,-8,11,-195,-60
-15,-42,-21,25,6,-31,-9,-83,-8,11,-195,-66
-15,-48,-27,31,12,-37,-9,-77,-8,11,-201,-72
-9,-42,-27,25,12,-37,-9,-89,-20,11,-201,-72
-9,-42,-27,25,12,-37,-9,-89,-26,11,-201,-72
-3,-42,-33,19,17,-37,-15,-95,-32,-1,-201,-66
-15,-42,-21,25,6,-31,-15,-107,-38,-1,-207,-66
-15,-48,-27,31,12,-37,-9,-107,-38,-7,-207,-72
-15,-48,-27,31,12,-37,-9,-107,-38,-7,-207,-78
-15,-48,-27,31,12,-37,-3,-113,-38,-7,-213,-84
-15,-48,-27,31,12,-37,-3,-113,-38,-7,-219,-84
-21,-54,-27,37,6,-43,3,-113,-38,-7,-225,-96
-21,-60,-33,37,12,-49,3,-113,-50,-13,-231,-96
-27,-66,-33,43,6,-49,3,-119,-44,-13,-231,-102
-33,-66,-27,49,0,-49,3,-119,-44,-13,-225,-102
-33,-72,-33,49,6,-55,3,-113,-50,-19,-231,-108
-33,-72,-33,49,6,-55,3,-113,-56,-19,-225,-108
-33,-72,-33,49,6,-55,9,-107,-62,-25,-231,-108
-33,-72,-33,49,6,-55,9,-113,-62,-25,-237,-108
-27,-72,-39,49,12,-55,3,-113,-56,-19,-237,-108
-27,-72,-39,49,12,-55,3,-113,-56,-19,-237,-114
-21,-78,-51,49,17,-67,-3,-113,-50,-13,-237,-114
-21,-78,-51,49,17,-67,-3,-113,-50,-13,-237,-114
-21,-72,-45,43,17,-61,-3,-119,-50,-13,-243,-114
-21,-66,-39,43,12,-55,-3,-119,-50,-13,-243,-114
-21,-60,-33,37,12,-49,-3,-125,-50,-13,-243,-114
-21,-66,-39,43,12,-55,-3,-125,-50,-19,-243,-114
-21,-72,-45,43,17,-61,3,-119,-50,-19,-243,-108
-21,-72,-45,43,17,-61,9,-119,-50,-19,-243,-108
-27,-78,-45,49,12,-61,15,-119,-50,-13,-237,-102
-27,-78,-45,49,12,-61,15,-119,-44,-13,-237,-102
-27,-78,-45,49,12,-61,15,-113,-32,-7,-231,-102
-27,-78,-45,49,12,-61,15,-107,-32,-7,-231,-102
-27,-78,-45,49,12,-61,15,-101,-26,-1,-225,-102
-27,-78,-45,49,12,-61,15,-101,-26,-1,-225,-102
-21,-66,-39,43,12,-55,15,-101,-26,-1,-225,-96
-21,-60,-33,37,12,-49,15,-95,-20,5,-225,-96
-15,-48,-27,31,12,-37,15,-95,-26,5,-219,-90
-15,-42,-21,25,6,-31,15,-95,-26,5,-219,-90
-21,-48,-21,31,6,-37,15,-89,-20,11,-219,-90
-21,-42,-15,31,0,-31,15,-89,-14,11,-213,-90
-27,-42,-10,31,-6,-25,15,-89,-8,23,-213,-96
-39,-42,-10,37,-18,-19,15,-89,-8,23,-213,-96
-33,-42,-10,37,-12,-25,15,-89,-8,23,-207,-96
-27,-48,-15,37,0,-31,15,-89,-8,29,-207,-96
-21,-48,-21,31,6,-37,15,-95,-8,29,-207,-96
-15,-48,-27,31,12,-37,21,-95,-8,29,-207,-96
-15,-42,-21,25,6,-31,15,-95,-3,23,-207,-102
-15,-42,-21,25,6,-31,15,-89,-3,29,-207,-102
-15,-36,-15,25,6,-25,3,-89,-3,23,-207,-108
-9,-30,-15,19,6,-25,3,-89,-3,23,-207,-108
-9,-24,-10,13,6,-19,3,-89,-3,29,-201,-102
-15,-24,-10,19,0,-13,3,-89,-3,29,-201,-102
-15,-18,-10,13,-6,-7,3,-89,-3,35,-189,-96
-15,-18,-10,13,-6,-7,3,-89,-3,35,-189,-96
-9,-18,-10,13,0,-13,3,-89,-3,41,-189,-90
-9,-18,-10,13,0,-13,3,-89,-3,41,-189,-90
-3,-12,-10,7,6,-7,3,-89,3,41,-189,-90
-3,-12,-10,7,6,-7,3,-83,3,41,-189,-90
-3,-24,-15,13,12,-19,3,-83,3,53,-177,-78
-3,-24,-15,13,12,-19,3,-83,3,53,-189,-90
9,-12,-15,1,17,-13,3,-83,3,41,-189,-90
9,-12,-15,1,17,-13,3,-71,15,41,-189,-78
-3,-12,-10,7,6,-7,9,-71,15,47,-177,-78
-3,-6,-10,1,0,-1,3,-77,9,47,-183,-84
-3,-6,-10,1,0,-1,3,-77,9,47,-183,-84
-3,0,-4,1,0,4,-3,-83,3,47,-189,-90
-3,0,-4,1,0,4,-3,-83,3,47,-189,-90
-3,0,-4,1,0,4,-3,-89,3,47,-189,-96
-3,0,-4,1,0,4,-3,-89,-3,47,-195,-96
-3,-6,-10,1,0,-1,-3,-95,-3,47,-195,-102
-3,-6,-10,1,0,-1,-3,-95,-3,47,-195,-102
-3,-6,-10,1,0,-1,-3,-95,-3,41,-195,-102
-3,-6,-10,1,0,-1,-3,-95,-3,41,-201,-102
-3,-6,-10,1,0,-1,-3,-95,-3,41,-201,-96
-9,-12,-10,7,0,-7,-3,-95,-3,41,-195,-96
-3,-12,-10,7,6,-7,-3,-95,-3,35,-201,-90
-3,-12,-10,7,6,-7,-3,-95,-3,29,-207,-90
3,-12,-10,1,12,-13,-3,-101,-3,23,-207,-78
3,-12,-10,1,12,-13,-3,-101,-3,23,-207,-78
3,-12,-10,1,12,-13,-9,-101,-3,29,-207,-78
3,-12,-10,1,12,-13,-9,-101,-3,29,-201,-78
3,-12,-10,1,12,-13,-9,-101,-3,35,-195,-78
3,-18,-15,7,12,-19,-9,-101,-3,35,-189,-78
3,-18,-15,7,12,-19,-3,-101,-3,35,-201,-78
3,-18,-15,7,12,-19,-3,-101,-3,35,-201,-78
3,-18,-15,7,12,-19,3,-95,-3,41,-207,-78
3,-18,-15,7,12,-19,3,-89,-3,41,-201,-78
9,-6,-10,-5,12,-7,3,-89,3,47,-189,-78
15,0,-10,-11,17,-7,9,-83,9,53,-183,-72
21,12,-10,-17,17,4,15,-83,3,59,-171,-72
26,17,-10,-23,17,4,15,-77,9,65,-171,-66
26,23,2,-23,12,10,15,-77,9,65,-177,-72
26,47,14,-34,12,34,15,-65,21,71,-165,-66
26,77,44,-52,0,64,21,-65,27,83,-165,-60
26,95,68,-58,-18,82,27,-59,33,89,-153,-54
26,101,74,-58,-18,88,27,-59,33,100,-147,-42
26,113,86,-64,-24,100,27,-59,33,100,-147,-42
26,107,80,-64,-24,94,21,-59,39,100,-147,-36
26,113,86,-64,-24,100,21,-59,39,106,-141,-36
26,119,92,-70,-30,106,21,-59,51,106,-135,-36
26,125,98,-70,-30,112,21,-59,51,112,-129,-30
26,125,98,-70,-30,112,21,-59,57,112,-123,-18
26,125,98,-70,-30,112,9,-59,57,124,-117,-18
32,137,98,-82,-24,118,15,-59,69,118,-117,-12
38,143,98,-88,-24,124,15,-59,69,118,-117,-12
38,149,104,-94,-24,130,21,-59,69,112,-117,-6
38,155,110,-94,-30,136,15,-65,69,112,-117,-6
38,149,104,-94,-24,130,9,-77,57,112,-123,-12
38,143,98,-88,-24,124,3,-89,45,106,-123,-12
32,125,86,-76,-18,106,-3,-83,45,106,-135,-18
32,107,68,-70,-12,88,-9,-77,39,100,-135,-18
44,89,38,-64,12,64,-21,-83,27,95,-141,-18
44,77,26,-58,17,52,-33,-95,21,83,-147,-24
50,59,2,-52,17,34,-33,-101,9,77,-147,-30
50,47,-10,-46,23,22,-33,-101,9,71,-147,-30
56,29,-21,-40,41,4,-33,-95,9,71,-153,-36
56,17,-45,-28,47,-13,-33,-95,-3,59,-159,-42
56,12,-51,-28,53,-19,-33,-107,-3,53,-165,-54
56,0,-63,-23,59,-31,-33,-113,-8,41,-183,-66
50,-6,-63,-23,53,-31,-33,-119,-14,35,-189,-78
44,-18,-69,-23,53,-43,-33,-131,-32,23,-201,-90
44,-12,-63,-23,53,-37,-27,-143,-38,17,-207,-96
38,-18,-63,-17,47,-37,-27,-143,-38,5,-207,-96
26,-24,-57,-11,41,-37,-27,-143,-44,-1,-219,-102
15,-30,-39,7,17,-37,-21,-149,-44,-7,-225,-108
-3,-42,-33,19,17,-37,-21,-143,-50,-13,-231,-120
-9,-54,-39,31,17,-49,-15,-143,-50,-19,-237,-120
-9,-48,-33,25,17,-43,-15,-137,-50,-13,-231,-120
-15,-54,-33,31,12,-43,-15,-137,-50,-7,-231,-120
-9,-48,-33,25,17,-43,-9,-125,-50,-1,-225,-114
-9,-48,-33,25,17,-43,-9,-125,-44,5,-231,-120
-15,-48,-27,31,12,-37,-15,-131,-44,-1,-231,-126
-21,-48,-21,31,6,-37,-9,-131,-50,-7,-231,-126
-15,-48,-27,31,12,-37,-15,-137,-50,-13,-231,-132
-15,-48,-27,31,12,-37,-15,-137,-50,-19,-231,-132
-15,-48,-27,31,12,-37,-21,-143,-62,-25,-237,-138
-15,-54,-33,31,12,-43,-27,-143,-62,-25,-237,-138
-9,-54,-39,31,17,-49,-33,-143,-68,-25,-243,-138
-9,-54,-39,31,17,-49,-33,-143,-68,-25,-243,-138
-9,-54,-39,31,17,-49,-33,-143,-68,-19,-237,-132
-9,-54,-39,31,17,-49,-33,-143,-68,-19,-231,-132
-9,-54,-39,31,17,-49,-38,-143,-68,-13,-225,-126
-9,-54,-39,31,17,-49,-38,-143,-68,-7,-225,-126
-9,-48,-33,25,17,-43,-38,-143,-62,-1,-225,-120
-9,-48,-33,25,17,-43,-38,-143,-62,-1,-225,-120
-9,-42,-27,25,12,-37,-38,-143,-56,5,-225,-114
-9,-42,-27,25,12,-37,-38,-143,-56,5,-225,-114
-21,-54,-27,37,6,-43,-33,-131,-56,-7,-225,-126
-9,-54,-39,31,17,-49,-33,-143,-62,-7,-225,-126
-15,-54,-33,31,12,-43,-38,-149,-62,-7,-231,-126
-33,-48,-10,37,-6,-31,-33,-155,-62,-7,-219,-132
-39,-24,8,31,-24,-1,-27,-143,-38,17,-219,-144
-39,29,74,-5,-54,52,-15,-107,27,83,-213,-144
-39,101,146,-23,-90,124,27,-6,177,172,-183,-120
-27,161,194,-58,-108,178,105,168,381,310,-129,-84
-21,191,218,-76,-120,202,171,288,525,394,-87,-72
-3,191,200,-88,-102,196,201,288,525,424,-51,-36
26,191,158,-106,-60,178,177,216,417,448,32,42
110,209,92,-160,17,154,135,126,249,454,146,155
200,221,14,-208,89,118,45,30,63,430,308,323
266,281,8,-274,125,148,-62,-149,-200,424,500,509
332,383,44,-358,143,220,-242,-437,-512,460,746,785
416,521,104,-472,155,316,-488,-695,-800,544,1064,1121
500,707,206,-598,143,460,-728,-893,-986,652,1418,1457
542,779,230,-664,155,508,-878,-1013,-1094,784,1676,1715
578,629,44,-604,263,340,-962,-1013,-1094,874,1778,1793
584,425,-159,-508,371,130,-1004,-971,-1052,850,1688,1703
536,287,-249,-412,395,16,-1046,-1013,-1100,616,1370,1481
476,221,-249,-346,365,-7,-1094,-1109,-1202,316,992,1211
404,197,-207,-298,305,4,-1136,-1235,-1310,11,644,947
272,173,-99,-226,191,34,-1118,-1409,-1496,-385,230,629
158,113,-39,-136,101,34,-1052,-1505,-1616,-793,-207,299
104,41,-57,-70,83,-1,-944,-1391,-1514,-979,-441,66
68,-36,-111,-23,89,-73,-806,-1181,-1292,-901,-489,-78
32,-114,-153,31,89,-133,-674,-977,-1070,-733,-483,-174
26,-156,-177,61,95,-169,-560,-815,-884,-613,-471,-228
21,-156,-171,67,89,-163,-458,-665,-698,-499,-441,-240
21,-162,-177,67,89,-169,-320,-491,-488,-349,-387,-204
15,-150,-159,67,77,-157,-212,-317,-302,-223,-315,-180
15,-126,-135,55,65,-133,-134,-221,-200,-139,-279,-150
26,-96,-117,31,65,-109,-80,-149,-128,-79,-249,-132
26,-108,-135,37,77,-121,-62,-101,-80,-37,-219,-132
21,-102,-117,37,59,-109,-50,-89,-62,-13,-207,-120
21,-84,-99,31,53,-91,-56,-89,-74,-19,-213,-114
15,-66,-75,25,35,-73,-68,-101,-68,-13,-213,-114
-3,-42,-33,19,17,-37,-62,-101,-68,-25,-225,-126
-3,-30,-21,13,12,-25,-56,-101,-68,-31,-225,-126
-15,-42,-21,25,6,-31,-38,-95,-44,-7,-225,-126
-9,-54,-39,31,17,-49,-33,-65,-14,5,-213,-114
-9,-54,-39,31,17,-49,-21,-42,-3,23,-207,-108
-9,-54,-39,31,17,-49,-9,-42,15,35,-207,-108
-9,-84,-69,43,23,-79,9,-30,21,35,-207,-120
-9,-90,-75,49,23,-85,9,-24,21,35,-213,-120
-9,-90,-75,49,23,-85,9,-24,21,35,-207,-126
-9,-84,-69,43,23,-79,-3,-30,9,29,-213,-126
-3,-84,-75,43,29,-79,-3,-36,9,29,-213,-126
-3,-66,-57,31,17,-61,-9,-36,9,35,-207,-126
-9,-66,-51,37,17,-61,-9,-36,9,35,-207,-126
-9,-60,-45,31,17,-55,-9,-36,15,41,-207,-126
-9,-54,-39,31,17,-49,-3,-36,21,47,-207,-126
-3,-54,-45,25,17,-49,-3,-24,27,59,-207,-132
-3,-54,-45,25,17,-49,3,-18,33,59,-207,-126
-3,-54,-45,25,17,-49,3,-18,39,59,-207,-132
-3,-54,-45,25,17,-49,3,-18,39,59,-207,-132
3,-48,-45,19,17,-49,-3,-18,39,65,-207,-132
3,-42,-39,19,17,-43,-3,-18,39,65,-207,-132
9,-36,-39,13,17,-37,-9,-24,39,71,-207,-132
9,-30,-33,7,17,-31,-9,-24,39,71,-207,-132
9,-36,-39,13,17,-37,-9,-24,39,71,-195,-132
9,-30,-33,7,17,-31,-9,-24,39,71,-195,-132
3,-36,-33,13,17,-37,-9,-18,39,77,-189,-132
3,-36,-33,13,17,-37,-9,-12,45,83,-189,-132
9,-30,-33,7,17,-31,-9,-12,45,83,-183,-132
9,-30,-33,7,17,-31,-9,-12,45,83,-183,-132
15,-24,-33,1,17,-31,-9,-18,51,83,-183,-132
15,-24,-33,1,17,-31,-9,-12,51,89,-177,-132
15,-30,-39,7,17,-37,-15,-6,57,95,-171,-120
21,-30,-45,1,23,-37,-15,-6,57,95,-171,-120
21,-36,-51,7,29,-43,-15,0,63,95,-171,-114
21,-36,-51,7,29,-43,-15,0,69,95,-171,-114
21,-30,-45,1,23,-37,-15,0,69,100,-171,-108
21,-30,-45,1,23,-37,-15,0,75,100,-171,-108
26,-30,-51,1,29,-43,-15,6,75,100,-171,-108
26,-30,-51,1,29,-43,-21,12,75,100,-171,-108
26,-24,-51,-5,35,-37,-21,6,75,100,-171,-108
26,-24,-51,-5,35,-37,-21,6,75,100,-171,-96
26,-12,-45,-17,35,-25,-21,6,75,100,-165,-96
26,-12,-45,-17,35,-25,-21,12,75,100,-159,-90
26,-12,-45,-17,35,-25,-21,18,87,106,-159,-96
26,-12,-45,-17,35,-25,-27,24,93,106,-153,-96
26,-12,-39,-11,29,-25,-27,30,93,118,-153,-108
26,-12,-45,-17,35,-25,-27,30,99,118,-153,-114
32,-12,-51,-17,41,-31,-33,30,117,130,-147,-120
38,-12,-57,-23,47,-31,-33,42,117,130,-141,-132
44,-18,-69,-23,53,-43,-33,42,129,142,-135,-144
50,-18,-75,-23,59,-43,-33,42,129,154,-129,-144
50,-12,-69,-23,59,-37,-33,48,141,154,-123,-150
50,-12,-69,-23,59,-37,-33,60,153,160,-117,-144
50,-12,-69,-23,59,-37,-33,66,159,160,-111,-144
50,-6,-63,-23,53,-31,-33,72,165,166,-105,-144
62,-6,-75,-23,65,-37,-33,84,177,172,-99,-144
62,-6,-75,-23,65,-37,-33,90,183,184,-93,-138
68,0,-75,-28,71,-37,-33,102,189,196,-87,-138
80,0,-87,-34,83,-43,-33,108,195,202,-75,-132
92,12,-87,-46,89,-37,-33,132,213,214,-63,-114
98,12,-93,-46,95,-37,-33,132,219,226,-57,-108
104,17,-87,-58,95,-31,-33,150,237,238,-45,-96
110,17,-87,-64,101,-25,-38,162,243,256,-33,-78
116,23,-87,-70,101,-25,-38,168,255,262,-21,-60
116,23,-87,-70,101,-25,-38,180,261,286,-3,-54
122,17,-99,-70,113,-31,-50,192,279,304,15,-36
128,17,-105,-70,119,-37,-50,198,297,322,27,-24
134,23,-105,-76,119,-31,-56,216,297,322,32,-12
140,29,-105,-82,125,-31,-56,216,315,328,32,0
152,29,-117,-88,137,-37,-62,240,315,340,38,12
158,35,-117,-94,137,-31,-68,252,327,346,44,24
170,41,-123,-106,149,-31,-68,252,339,364,62,36
176,41,-129,-106,155,-37,-74,270,351,370,86,54
182,35,-141,-106,161,-43,-80,276,363,394,104,66
194,47,-141,-118,167,-37,-86,282,375,394,122,78
200,59,-135,-130,167,-31,-86,288,387,412,134,95
212,71,-135,-142,173,-25,-92,294,393,418,146,95
218,83,-129,-148,173,-13,-86,300,405,430,146,113
224,89,-129,-154,179,-13,-98,306,405,436,158,125
224,89,-129,-154,179,-13,-98,312,405,436,158,131
230,95,-129,-160,179,-7,-104,312,405,442,170,131
230,95,-129,-160,179,-7,-110,324,405,442,176,137
236,101,-129,-166,185,-7,-116,324,411,442,182,137
236,113,-117,-172,179,4,-116,318,411,448,194,143
236,119,-111,-178,173,4,-116,324,411,448,200,155
248,125,-117,-184,185,4,-116,318,405,448,206,161
248,125,-117,-184,185,4,-122,318,405,448,218,167
248,119,-123,-184,185,4,-128,312,411,448,224,179
254,131,-117,-190,185,4,-128,312,399,448,224,191
254,125,-123,-190,191,4,-134,312,405,448,224,197
254,125,-123,-190,191,4,-134,300,399,442,224,203
248,125,-117,-184,185,4,-128,294,387,430,218,197
248,125,-117,-184,185,4,-128,288,381,424,218,191
242,119,-117,-178,179,4,-122,270,363,412,212,179
236,125,-105,-178,173,4,-122,258,351,394,200,167
224,119,-99,-172,161,4,-122,234,333,382,176,143
218,119,-93,-166,155,10,-122,216,309,370,152,119
206,113,-87,-160,149,10,-116,198,285,346,134,101
194,113,-75,-154,137,16,-110,192,273,334,110,90
176,107,-63,-142,119,16,-104,168,255,310,86,60
164,107,-51,-136,107,22,-98,162,237,292,74,42
152,107,-39,-130,95,28,-92,144,225,262,50,18
146,107,-33,-124,89,34,-80,132,213,244,32,6
140,101,-33,-118,89,28,-74,114,195,220,21,-12
128,95,-27,-112,77,28,-68,90,165,214,3,-30
122,89,-27,-106,77,28,-62,72,147,196,-15,-48
110,77,-27,-94,71,22,-56,54,129,178,-27,-72
98,65,-27,-82,65,16,-44,36,111,160,-57,-90
86,59,-21,-70,53,16,-38,30,105,148,-75,-108
80,53,-21,-64,53,10,-33,18,93,130,-99,-132
74,47,-21,-58,47,10,-33,6,81,118,-111,-144
62,47,-10,-52,35,16,-33,-6,69,112,-123,-156
50,41,-10,-46,29,16,-27,-12,57,100,-141,-162
50,41,-10,-46,29,16,-27,-30,45,100,-141,-162
44,29,-10,-34,29,4,-27,-36,33,95,-159,-174
44,29,-10,-34,29,4,-27,-42,27,89,-165,-180
44,29,-10,-34,29,4,-21,-47,21,83,-171,-192
44,29,-10,-34,29,4,-21,-53,3,71,-183,-186
44,29,-10,-34,29,4,-15,-59,-3,65,-183,-186
38,23,-10,-28,23,4,-15,-59,-3,59,-189,-192
32,23,-10,-28,17,4,-15,-65,-3,53,-195,-198
32,17,-10,-23,23,4,-9,-65,-8,47,-195,-204
32,17,-15,-23,23,4,-9,-65,-8,47,-201,-210
26,17,-15,-23,17,4,-3,-71,-14,47,-201,-216
26,17,-15,-23,17,4,-3,-71,-20,47,-201,-216
26,6,-21,-23,17,-7,-3,-71,-20,35,-201,-216
21,6,-10,-17,17,-1,-3,-83,-26,35,-207,-216
26,0,-21,-17,17,-13,-3,-83,-26,29,-201,-216
26,0,-21,-17,17,-13,-3,-83,-26,29,-207,-222
26,0,-27,-17,23,-13,-3,-89,-26,29,-207,-222
26,0,-27,-17,23,-13,-3,-89,-26,29,-207,-222
26,0,-21,-17,17,-13,-3,-83,-26,23,-207,-222
26,-6,-27,-11,17,-19,-3,-83,-38,17,-213,-222
21,-6,-21,-11,17,-13,-9,-83,-32,11,-207,-216
15,-6,-15,-5,17,-13,-9,-83,-32,11,-207,-216
21,-6,-21,-11,17,-13,-9,-77,-32,11,-207,-228
21,-6,-21,-11,17,-13,-9,-77,-38,11,-201,-228
26,0,-21,-17,17,-13,-3,-71,-38,11,-201,-234
26,0,-21,-17,17,-13,-3,-77,-38,11,-207,-234
26,0,-27,-17,23,-13,-3,-83,-38,5,-207,-234
26,0,-27,-17,23,-13,-3,-83,-38,5,-207,-240
26,-6,-39,-17,29,-19,-3,-89,-38,-1,-207,-240
26,-6,-39,-17,29,-19,-3,-89,-38,-1,-207,-240
26,-6,-33,-17,23,-19,3,-83,-38,-1,-207,-234
26,0,-27,-17,23,-13,3,-83,-38,-1,-207,-234
26,0,-21,-17,17,-13,9,-77,-38,-1,-201,-228
26,-6,-27,-11,17,-19,9,-77,-38,-7,-201,-228
21,-6,-21,-11,17,-13,15,-71,-38,-1,-201,-228
21,-6,-21,-11,17,-13,21,-71,-38,-1,-201,-228
9,-6,-10,-5,12,-7,27,-71,-38,11,-195,-228
9,-6,-10,-5,12,-7,27,-71,-32,11,-195,-228
9,0,-10,-5,12,-1,27,-71,-26,11,-189,-228
9,0,-10,-5,12,-1,27,-65,-26,11,-189,-228
9,6,-10,-11,6,4,27,-65,-26,11,-183,-228
9,6,-10,-11,6,4,27,-65,-26,11,-183,-228
9,12,-4,-11,6,4,21,-71,-20,17,-183,-222
9,12,-4,-11,6,4,21,-65,-14,23,-183,-222
9,17,2,-17,0,4,15,-71,-14,29,-177,-216
9,17,2,-17,0,4,15,-71,-14,29,-177,-216
3,12,2,-11,0,4,21,-65,-14,23,-171,-210
9,17,2,-17,0,4,21,-65,-8,23,-165,-210
3,17,8,-11,-6,4,27,-65,-8,23,-159,-210
-3,17,14,-11,-12,10,27,-65,-8,23,-159,-210
3,17,14,-17,-6,10,21,-65,-8,17,-159,-210
3,17,14,-17,-6,10,21,-65,-8,23,-159,-210
9,17,14,-23,0,16,15,-71,-8,17,-165,-210
9,23,20,-23,-6,22,21,-71,-8,17,-165,-210
9,23,20,-23,-6,22,21,-65,-3,23,-159,-210
9,23,20,-23,-6,22,21,-59,-3,29,-159,-210
9,23,20,-23,-6,22,15,-53,-3,35,-147,-210
15,29,20,-23,0,22,15,-53,-3,35,-147,-210
15,29,20,-23,0,22,15,-53,-3,35,-147,-204
9,29,26,-23,-6,28,15,-53,-3,35,-147,-204
9,29,26,-23,-6,28,15,-53,-3,35,-141,-198
9,29,26,-23,-6,28,15,-53,-3,35,-141,-198
9,29,26,-23,-6,28,27,-53,3,41,-129,-192
9,29,26,-23,-6,28,15,-53,3,29,-129,-192
21,23,8,-23,6,16,27,-53,3,41,-129,-204
21,23,8,-23,6,16,27,-47,15,41,-129,-204
9,23,20,-23,-6,22,21,-47,3,35,-129,-204
9,23,20,-23,-6,22,15,-53,3,35,-129,-204
9,23,20,-23,-6,22,15,-53,3,35,-129,-204
9,23,20,-23,-6,22,9,-59,3,35,-129,-204
9,23,20,-23,-6,22,9,-59,3,35,-129,-204
9,29,26,-23,-6,28,9,-59,3,29,-129,-198
9,29,26,-23,-6,28,9,-59,-3,29,-135,-198
9,29,26,-23,-6,28,9,-59,-3,23,-135,-192
9,29,26,-23,-6,28,9,-59,-3,23,-135,-192
9,35,32,-23,-12,34,9,-59,-3,23,-129,-198
9,35,32,-23,-12,34,9,-59,-3,23,-135,-198
9,41,38,-23,-12,40,9,-59,-3,29,-129,-198
3,35,38,-23,-18,34,9,-59,-3,29,-123,-198
9,29,26,-23,-6,28,15,-59,-3,29,-123,-192
9,29,26,-23,-6,28,15,-59,-3,23,-129,-192
15,23,14,-23,0,16,21,-65,-3,23,-129,-180
15,23,14,-23,0,16,21,-65,-3,23,-129,-180
15,23,14,-23,0,16,15,-71,-3,17,-129,-180
15,23,14,-23,0,16,15,-71,-3,17,-129,-180
15,23,14,-23,0,16,15,-77,-3,11,-129,-180
15,17,8,-23,6,10,15,-77,-3,11,-129,-180
15,23,14,-23,0,16,15,-77,-3,5,-135,-174
15,23,14,-23,0,16,15,-77,-3,5,-135,-174
15,29,20,-23,0,22,15,-71,-3,5,-135,-168
15,29,20,-23,0,22,15,-65,-3,5,-129,-168
21,35,20,-23,0,28,9,-59,-3,11,-123,-168
26,41,20,-28,6,28,15,-53,-3,17,-117,-162
26,47,20,-34,6,34,15,-47,-3,23,-111,-162
26,53,20,-40,12,40,15,-42,-3,29,-111,-156
26,59,32,-40,0,46,27,-42,3,29,-111,-156
32,77,38,-52,6,58,27,-36,15,35,-99,-150
26,95,62,-58,-12,82,45,-30,27,47,-93,-144
26,107,80,-64,-24,94,51,-24,33,53,-81,-138
26,125,98,-70,-30,112,51,-30,33,59,-75,-132
26,137,110,-76,-36,124,51,-30,33,59,-75,-132
26,143,116,-82,-42,130,45,-36,39,53,-75,-132
26,149,122,-82,-42,136,45,-36,39,59,-69,-132
26,155,128,-88,-48,142,45,-36,39,59,-63,-132
26,161,134,-88,-48,148,45,-36,39,65,-57,-126
26,161,134,-88,-48,148,45,-36,33,65,-51,-114
26,161,134,-88,-48,148,33,-36,33,77,-45,-114
32,167,128,-100,-42,148,39,-36,45,77,-45,-114
38,167,122,-100,-36,148,39,-36,45,77,-45,-114
38,167,122,-100,-36,148,45,-36,45,77,-45,-114
38,167,122,-100,-36,148,39,-42,45,77,-45,-114
32,173,134,-100,-42,154,27,-42,33,77,-39,-114
32,173,134,-100,-42,154,21,-53,21,71,-39,-114
26,167,140,-94,-54,154,9,-47,21,71,-39,-114
26,155,128,-88,-48,142,3,-42,15,59,-39,-114
32,137,98,-82,-24,118,-3,-47,9,53,-45,-114
38,125,80,-82,-12,106,-15,-59,3,41,-51,-120
44,107,56,-76,0,82,-21,-65,-3,41,-51,-126
50,95,38,-70,12,70,-21,-65,-3,35,-51,-126
56,83,20,-70,17,52,-33,-59,-3,35,-57,-132
56,59,-4,-58,23,28,-33,-59,-8,23,-63,-138
56,59,-4,-58,23,28,-33,-71,-20,17,-69,-144
56,47,-10,-52,29,16,-33,-77,-32,5,-87,-156
44,35,-10,-40,23,10,-33,-83,-38,-13,-87,-168
38,23,-10,-28,23,4,-33,-95,-56,-25,-99,-180
32,23,-10,-28,17,4,-27,-107,-62,-43,-99,-186
26,17,-10,-23,17,4,-27,-107,-62,-55,-105,-186
26,17,-10,-23,17,4,-27,-113,-74,-49,-117,-186
15,17,-4,-17,6,4,-21,-119,-74,-55,-123,-192
3,6,-4,-5,0,4,-21,-119,-86,-49,-129,-198
3,-6,-10,1,6,-7,-15,-119,-86,-55,-135,-198
-3,-6,-10,1,0,-1,-9,-113,-86,-55,-129,-204
-9,-12,-10,7,0,-7,-9,-113,-86,-55,-129,-204
-9,-12,-10,7,0,-7,3,-101,-86,-55,-123,-204
-9,-12,-10,7,0,-7,3,-101,-80,-55,-129,-210
-15,-6,2,7,-12,4,3,-101,-80,-61,-123,-204
-21,-6,8,13,-18,4,9,-101,-86,-61,-123,-204
-15,0,8,7,-12,4,9,-101,-86,-67,-117,-198
-15,0,8,7,-12,4,9,-101,-86,-67,-117,-198
-15,0,8,7,-12,4,9,-107,-92,-67,-117,-198
-15,-6,2,7,-12,4,3,-107,-92,-67,-117,-198
-9,-6,-4,7,-6,-1,3,-107,-92,-61,-117,-192
-9,-6,-4,7,-6,-1,3,-107,-92,-61,-117,-192
-9,-6,-4,7,-6,-1,3,-107,-92,-61,-117,-192
-9,-6,-4,7,-6,-1,-3,-107,-92,-61,-111,-192
-9,-6,-4,7,-6,-1,-3,-107,-92,-61,-111,-192
-9,-6,-4,7,-6,-1,-3,-107,-92,-55,-111,-192
-9,-12,-10,7,0,-7,-3,-107,-92,-61,-111,-192
-9,-12,-10,7,0,-7,-3,-107,-92,-61,-111,-192
-9,-18,-10,13,0,-13,-3,-107,-92,-67,-111,-192
-9,-18,-10,13,0,-13,-3,-107,-92,-67,-111,-192
-9,-6,-4,7,-6,-1,3,-119,-92,-67,-111,-192
-9,6,8,1,-12,4,3,-119,-98,-79,-111,-192
-15,6,14,1,-18,4,-3,-137,-110,-67,-117,-192
-21,12,26,1,-24,10,9,-143,-110,-67,-105,-198
-27,23,56,-5,-42,40,21,-143,-86,-31,-105,-198
-27,89,122,-23,-72,106,45,-83,-3,23,-75,-186
-27,161,194,-58,-108,178,99,30,153,100,-27,-174
-27,221,248,-88,-138,238,177,192,345,226,27,-144
-33,251,284,-100,-162,262,237,276,447,304,56,-132
-15,257,278,-118,-150,268,255,240,411,334,80,-108
15,281,272,-142,-132,274,231,126,273,340,140,-30
74,299,224,-190,-66,262,183,-6,87,346,254,84
164,311,146,-238,17,232,93,-125,-128,328,368,227
248,389,140,-316,47,262,-38,-323,-398,310,530,401
308,491,176,-400,65,334,-230,-587,-692,334,776,629
404,617,212,-508,95,418,-476,-821,-944,412,1064,935
488,773,284,-628,95,532,-716,-1013,-1130,538,1394,1259
554,851,290,-706,131,574,-890,-1133,-1244,664,1676,1505
602,737,128,-670,239,436,-1016,-1151,-1268,760,1814,1625
620,497,-123,-556,371,184,-1088,-1097,-1220,772,1754,1583
596,299,-291,-448,449,4,-1130,-1073,-1184,604,1508,1421
554,209,-345,-382,455,-61,-1178,-1133,-1232,328,1166,1199
476,173,-297,-322,389,-55,-1208,-1235,-1334,35,830,947
356,149,-207,-256,281,-19,-1178,-1385,-1496,-325,440,653
218,101,-111,-160,167,4,-1088,-1487,-1604,-721,15,311
140,41,-93,-88,119,-19,-956,-1403,-1550,-967,-261,54
116,-12,-135,-46,125,-73,-806,-1205,-1352,-937,-339,-114
92,-78,-177,-17,131,-127,-674,-989,-1142,-793,-333,-198
74,-120,-201,13,137,-157,-548,-803,-920,-643,-321,-264
56,-132,-195,31,125,-163,-410,-617,-710,-523,-273,-264
44,-138,-189,37,113,-163,-272,-443,-506,-385,-219,-240
38,-114,-159,31,95,-133,-164,-293,-350,-271,-177,-204
38,-78,-123,13,77,-97,-74,-197,-242,-187,-129,-174
38,-60,-105,1,71,-79,-33,-137,-188,-139,-99,-162
32,-48,-87,1,59,-67,-27,-89,-140,-97,-93,-150
26,-30,-57,-5,35,-43,-15,-77,-122,-73,-81,-150
26,-24,-51,-5,35,-37,-21,-77,-122,-79,-75,-156
26,-18,-39,-5,23,-31,-21,-77,-128,-85,-87,-156
9,-6,-10,-5,12,-7,-15,-77,-128,-85,-87,-156
9,-6,-10,-5,12,-7,-9,-77,-116,-79,-87,-156
9,6,-10,-11,6,4,9,-59,-92,-79,-87,-156
3,-6,-10,1,6,-7,27,-53,-74,-67,-75,-156
3,6,-4,-5,0,4,39,-42,-50,-61,-81,-150
15,-6,-15,-5,17,-13,63,-18,-20,-49,-69,-150
3,-12,-10,1,12,-13,57,-18,-14,-37,-81,-162
3,-18,-15,7,12,-19,63,-12,-14,-37,-81,-162
3,-18,-15,7,12,-19,63,-12,-20,-37,-75,-168
3,-12,-10,1,12,-13,57,-18,-32,-43,-75,-168
9,-12,-15,1,17,-13,57,-24,-38,-43,-75,-168
9,-6,-10,-5,12,-7,51,-18,-38,-49,-69,-162
3,-6,-10,1,6,-7,51,-18,-38,-49,-69,-162
3,-12,-10,1,12,-13,51,-12,-32,-55,-69,-156
3,-6,-10,1,6,-7,57,-12,-26,-49,-69,-156
3,-6,-10,1,6,-7,57,0,-14,-37,-69,-162
3,-6,-10,1,6,-7,63,6,-8,-37,-63,-156
-3,-6,-10,1,0,-1,63,6,-3,-37,-63,-162
-3,-6,-10,1,0,-1,63,6,-3,-37,-63,-162
3,0,-10,-5,6,-1,57,12,-3,-31,-57,-156
3,6,-4,-5,0,4,57,12,-3,-31,-57,-156
9,12,-4,-11,6,4,51,12,-8,-25,-51,-150
9,17,2,-17,0,4,51,12,-8,-25,-51,-150
9,12,-4,-11,6,4,51,12,-3,-25,-33,-144
3,17,8,-11,-6,4,51,12,-3,-25,-33,-144
-3,12,8,-5,-6,4,51,18,3,-19,-21,-144
-9,12,14,-5,-12,4,51,24,9,-13,-21,-144
-15,6,14,1,-18,4,57,36,15,-7,-15,-138
-21,6,20,7,-24,4,57,36,15,-1,-15,-138
-27,0,20,13,-24,4,63,42,27,5,-15,-132
-33,0,26,13,-30,4,63,48,27,17,-9,-132
-39,6,38,13,-42,16,57,54,27,23,-3,-126
-39,6,38,13,-42,16,57,54,27,23,-3,-126
-45,12,50,13,-48,22,57,60,27,23,-3,-126
-51,12,56,19,-54,28,57,60,33,23,-3,-126
-51,17,62,13,-60,34,57,60,39,29,3,-120
-51,17,62,13,-60,34,57,60,45,29,3,-120
-45,17,56,13,-54,28,57,66,51,29,9,-120
-45,17,56,13,-54,28,51,72,51,29,9,-120
-51,12,56,19,-54,28,57,72,57,35,9,-114
-51,12,56,19,-54,28,57,72,57,35,9,-102
-57,12,62,19,-60,28,63,78,63,35,15,-96
-57,12,62,19,-60,28,63,84,63,41,21,-90
-51,12,56,19,-54,28,57,84,75,41,21,-84
-51,12,56,19,-54,28,51,90,81,41,27,-78
-51,12,56,19,-54,28,45,90,81,47,27,-78
-45,12,50,13,-48,22,45,90,87,47,27,-78
-45,17,62,7,-54,34,45,96,99,53,27,-66
-39,17,56,7,-48,34,45,108,99,53,32,-66
-39,17,62,1,-48,40,45,114,105,59,32,-60
-33,17,56,1,-42,34,45,114,105,71,32,-54
-27,17,50,-5,-36,34,45,120,117,77,32,-54
-27,17,50,-5,-36,34,45,132,129,83,38,-48
-21,17,38,-5,-30,22,39,138,135,89,44,-42
-21,17,44,-5,-30,28,39,144,141,95,50,-36
-15,17,38,-11,-24,28,39,156,153,95,56,-30
-15,17,38,-11,-24,28,33,162,159,100,62,-24
-15,23,44,-11,-30,34,33,174,165,100,68,-18
-3,23,32,-17,-18,28,27,180,171,106,80,-12
3,29,32,-23,-12,28,27,198,189,118,92,0
9,29,26,-23,-6,28,27,198,195,136,104,6
9,35,32,-23,-12,34,27,216,213,148,116,12
15,41,32,-23,-6,34,21,228,225,172,134,30
26,53,26,-34,6,40,21,234,231,172,140,48
26,53,26,-34,6,40,21,246,237,190,158,60
38,53,8,-46,17,34,9,258,243,202,170,78
44,53,2,-46,17,28,9,270,261,214,182,95
56,71,8,-64,17,40,3,288,267,214,194,95
62,77,8,-70,23,46,3,288,285,220,206,107
80,89,2,-82,35,46,-3,312,291,238,218,119
86,95,2,-88,35,52,-9,324,303,244,224,131
92,113,14,-100,35,64,-9,324,309,262,236,149
98,113,8,-106,41,64,-15,342,321,268,254,167
98,119,14,-106,35,70,-21,348,327,292,266,185
110,131,14,-118,41,76,-27,354,339,292,272,197
116,137,14,-124,47,76,-33,366,351,304,290,215
128,149,14,-136,53,82,-33,378,357,310,302,227
134,155,14,-142,53,88,-33,390,369,316,308,245
140,161,14,-148,59,88,-38,402,369,322,320,257
146,161,8,-154,65,88,-38,402,369,322,320,269
152,167,8,-160,65,88,-44,402,369,328,332,275
158,167,2,-160,71,88,-50,408,369,328,338,287
164,173,2,-166,77,88,-56,408,375,328,344,293
164,185,14,-172,71,100,-62,402,369,334,356,299
164,191,20,-178,65,106,-62,408,363,334,362,311
176,197,14,-184,77,106,-68,402,351,334,368,317
176,197,14,-184,77,106,-74,402,345,334,380,323
176,197,14,-184,77,106,-86,390,345,328,386,329
182,209,20,-196,77,118,-86,390,333,328,386,335
182,209,20,-196,77,118,-98,384,333,322,386,335
182,209,20,-196,77,118,-98,372,327,316,386,335
176,215,32,-196,65,124,-92,366,315,310,380,329
176,215,32,-196,65,124,-92,360,309,304,380,329
170,215,38,-190,59,130,-86,342,291,298,374,317
164,221,50,-190,53,136,-86,330,279,280,362,311
158,215,50,-184,47,136,-80,306,261,268,338,287
152,215,56,-184,41,136,-80,282,237,256,320,269
146,209,56,-178,41,136,-68,264,219,232,302,251
134,209,68,-172,29,142,-62,246,207,214,284,233
110,191,74,-148,17,136,-56,228,195,202,266,209
98,179,74,-136,17,130,-50,222,183,190,248,191
80,167,80,-124,6,124,-44,210,171,172,224,173
74,155,74,-112,6,118,-33,198,165,160,200,161
62,155,86,-106,-6,124,-33,186,147,136,182,137
50,149,92,-100,-12,124,-33,168,117,130,164,119
38,149,104,-94,-24,130,-27,150,99,112,152,95
26,137,104,-82,-30,124,-21,138,81,100,140,84
26,125,98,-70,-30,112,-15,114,69,89,110,66
21,119,104,-64,-42,112,-9,108,63,77,86,48
21,113,98,-58,-36,106,-9,90,57,59,62,24
15,107,98,-52,-42,100,3,78,45,47,44,6
-3,95,104,-40,-54,100,9,72,39,47,32,-6
-15,83,104,-28,-60,94,15,66,27,35,27,-12
-21,71,98,-23,-60,82,21,54,21,35,27,-12
-27,53,86,-23,-54,70,21,48,9,23,9,-24
-27,53,86,-23,-54,70,21,42,3,17,9,-30
-33,47,86,-17,-60,64,27,24,-3,11,3,-48
-33,47,86,-17,-60,64,27,18,-14,-1,-3,-42
-39,41,86,-11,-60,64,33,12,-26,-7,-3,-48
-45,35,86,-5,-66,58,33,6,-26,-7,-21,-48
-51,35,92,1,-72,64,33,0,-26,-13,-27,-54
-51,29,86,1,-66,58,39,-6,-26,-13,-39,-54
-51,23,80,7,-66,52,39,-6,-20,-13,-45,-60
-51,23,80,7,-66,52,39,-6,-26,-13,-39,-66
-51,23,80,7,-66,52,39,-6,-32,-13,-39,-66
-51,17,74,7,-60,46,33,0,-32,-25,-33,-66
-63,17,86,13,-72,52,33,-12,-38,-25,-39,-66
-57,17,74,13,-66,40,39,-18,-38,-31,-45,-66
-57,17,74,13,-66,40,39,-18,-38,-31,-51,-72
-51,17,68,13,-60,40,45,-30,-38,-31,-63,-72
-51,17,68,13,-60,40,45,-30,-38,-31,-69,-72
-57,17,74,13,-66,40,51,-30,-44,-31,-69,-72
-57,17,68,19,-66,34,51,-30,-56,-37,-69,-72
-63,17,74,19,-72,40,51,-36,-56,-37,-63,-66
-69,17,80,25,-78,40,51,-36,-56,-37,-51,-66
-63,17,74,19,-72,40,45,-42,-62,-43,-57,-72
-63,17,74,19,-72,40,45,-42,-68,-43,-51,-72
-57,17,74,13,-66,40,45,-42,-74,-49,-57,-72
-57,17,74,13,-66,40,45,-42,-74,-49,-63,-72
-63,17,80,19,-72,46,45,-42,-74,-49,-63,-72
-63,17,80,19,-72,46,45,-42,-74,-49,-63,-78
-69,17,80,25,-78,40,45,-42,-74,-49,-63,-78
-69,17,80,25,-78,40,45,-42,-74,-49,-63,-78
-63,17,74,19,-72,40,45,-42,-74,-49,-63,-78
-63,17,80,19,-72,46,45,-42,-74,-49,-63,-78
-57,17,74,13,-66,40,45,-42,-74,-49,-57,-78
-57,17,68,19,-66,34,45,-42,-74,-55,-57,-78
-51,17,62,13,-60,34,45,-36,-74,-55,-57,-72
-51,17,62,13,-60,34,51,-36,-74,-55,-57,-72
-51,17,62,13,-60,34,51,-36,-74,-49,-51,-66
-51,17,62,13,-60,34,51,-36,-68,-49,-51,-66
-51,17,62,13,-60,34,51,-36,-62,-49,-51,-66
-51,17,62,13,-60,34,51,-30,-62,-49,-51,-66
-51,17,62,13,-60,34,51,-30,-62,-49,-51,-66
-51,17,62,13,-60,34,51,-30,-62,-49,-51,-66
-51,17,68,13,-60,40,51,-30,-50,-43,-51,-66
-51,17,68,13,-60,40,51,-24,-44,-37,-51,-66
-51,17,74,7,-60,46,51,-24,-38,-31,-45,-66
-51,17,74,7,-60,46,51,-24,-38,-31,-45,-66
-51,17,74,7,-60,46,51,-18,-38,-31,-45,-66
-45,23,74,1,-60,46,51,-18,-32,-31,-39,-66
-45,29,80,1,-60,52,51,-18,-32,-25,-39,-72
-51,29,86,1,-66,58,51,-18,-32,-25,-39,-72
-51,29,86,1,-66,58,51,-12,-20,-25,-33,-72
-51,23,80,7,-66,52,51,-12,-20,-19,-33,-72
-51,23,80,7,-66,52,51,-12,-8,-19,-33,-72
-51,23,80,7,-66,52,57,-12,-8,-19,-33,-72
-51,23,80,7,-66,52,57,-12,-8,-19,-33,-66
-51,23,80,7,-66,52,57,-6,-8,-13,-33,-66
-51,23,80,7,-66,52,51,-6,-14,-13,-27,-60
-45,29,80,1,-60,52,51,-6,-8,-13,-27,-60
-45,29,80,1,-60,52,51,-12,-8,-13,-33,-60
-51,29,86,1,-66,58,51,-12,-8,-13,-33,-60
-51,29,86,1,-66,58,51,-18,-8,-13,-33,-60
-51,29,86,1,-66,58,51,-18,-8,-13,-33,-60
-51,29,86,1,-66,58,45,-18,-8,-7,-33,-60
-51,29,86,1,-66,58,45,-18,-8,-7,-33,-60
-51,35,92,1,-72,64,39,-18,-8,-7,-33,-66
-51,35,92,1,-72,64,39,-12,-8,-7,-33,-66
-51,35,92,1,-72,64,39,-18,-8,-7,-33,-72
-51,35,92,1,-72,64,39,-18,-8,-7,-33,-72
-51,35,92,1,-72,64,39,-24,-8,-7,-33,-78
-51,35,92,1,-72,64,39,-24,-8,-7,-33,-78
-51,35,92,1,-72,64,33,-24,-8,-7,-33,-66
-51,35,92,1,-72,64,33,-24,-8,-7,-33,-66
-51,35,92,1,-72,64,33,-24,-8,-13,-33,-66
-51,35,92,1,-72,64,33,-30,-8,-13,-33,-66
-51,35,92,1,-72,64,33,-30,-8,-13,-33,-54
-51,23,80,7,-66,52,33,-36,-8,-25,-33,-54
-51,29,86,1,-66,58,33,-42,-14,-25,-33,-54
-51,29,86,1,-66,58,33,-42,-14,-25,-33,-54
-51,35,92,1,-72,64,33,-42,-20,-25,-33,-54
-51,35,92,1,-72,64,33,-42,-20,-25,-33,-54
-51,35,92,1,-72,64,33,-42,-20,-25,-39,-54
-51,35,92,1,-72,64,33,-42,-26,-25,-45,-54
-51,29,86,1,-66,58,33,-42,-26,-25,-51,-54
-51,29,86,1,-66,58,33,-42,-32,-25,-51,-54
-45,29,80,1,-60,52,33,-42,-32,-31,-51,-54
-45,29,80,1,-60,52,33,-42,-38,-31,-57,-54
-39,29,74,-5,-54,52,33,-47,-38,-31,-57,-48
-45,23,74,1,-60,46,33,-47,-38,-31,-51,-48
-45,17,68,7,-54,40,33,-53,-38,-31,-51,-54
-45,17,68,7,-54,40,33,-53,-38,-37,-57,-54
-45,17,62,7,-54,34,33,-65,-38,-37,-57,-54
-45,17,62,7,-54,34,33,-65,-44,-37,-57,-54
-45,17,62,7,-54,34,27,-65,-44,-37,-51,-54
-45,17,62,7,-54,34,27,-65,-44,-37,-51,-54
-45,17,62,7,-54,34,27,-65,-44,-37,-45,-54
-45,17,56,13,-54,28,27,-65,-50,-37,-45,-54
-45,17,56,13,-54,28,27,-71,-50,-43,-51,-54
-45,17,56,13,-54,28,27,-71,-50,-43,-51,-54
-45,17,56,13,-54,28,27,-71,-50,-43,-51,-54
-45,17,56,13,-54,28,27,-65,-50,-43,-45,-54
-45,23,74,1,-60,46,21,-59,-38,-37,-39,-60
-39,29,74,-5,-54,52,27,-53,-32,-31,-33,-54
-39,47,92,-11,-66,70,27,-47,-32,-25,-27,-60
-33,53,92,-17,-60,70,27,-42,-26,-19,-27,-54
-33,53,92,-17,-60,70,39,-42,-26,-13,-33,-48
-21,71,98,-23,-60,82,39,-42,-14,-7,-21,-42
-21,83,110,-23,-66,94,57,-42,-8,11,-21,-24
-27,95,128,-28,-78,112,63,-36,-3,17,-9,-18
-27,107,140,-34,-84,124,75,-30,-3,29,-3,-12
-27,119,152,-40,-90,136,75,-30,-3,29,-3,-12
-27,119,152,-40,-90,136,81,-24,9,29,-3,-12
-27,125,158,-40,-90,142,81,-24,15,35,3,-12
-21,137,164,-52,-90,148,75,-24,21,29,9,-18
-21,143,170,-52,-96,154,75,-24,21,35,15,-12
-15,149,170,-58,-90,160,69,-24,21,29,21,-6
-15,149,170,-58,-90,160,57,-24,21,41,27,-6
-3,161,170,-70,-84,166,57,-24,27,47,32,0
3,161,164,-76,-78,160,57,-24,27,47,32,6
3,167,170,-76,-84,166,57,-24,21,53,32,12
3,167,170,-76,-84,166,51,-30,21,53,32,18
3,167,170,-76,-84,166,39,-42,9,53,32,18
3,167,170,-76,-84,166,33,-53,-3,47,32,18
-3,155,164,-70,-84,160,21,-59,-3,47,21,18
-3,143,152,-64,-78,148,15,-53,-3,35,21,18
3,131,134,-58,-66,130,9,-47,-3,35,21,18
3,119,122,-52,-60,118,-3,-59,-3,23,15,12
3,107,110,-46,-54,106,-9,-53,-3,29,21,6
3,95,98,-40,-48,94,-9,-53,-3,23,21,6
15,89,80,-46,-30,82,-21,-53,-8,17,9,6
15,71,62,-34,-24,64,-21,-53,-20,5,3,0
21,77,62,-40,-18,70,-27,-71,-32,-7,-9,-6
21,71,56,-40,-18,64,-27,-77,-44,-19,-27,-18
15,53,44,-28,-12,46,-27,-83,-50,-25,-27,-30
9,35,32,-23,-12,34,-27,-95,-68,-37,-39,-42
9,29,26,-23,-6,28,-27,-107,-74,-43,-39,-48
3,17,20,-17,-6,16,-27,-107,-74,-55,-45,-48
-3,17,26,-17,-12,22,-27,-107,-86,-55,-51,-48
-21,17,38,-5,-30,22,-21,-113,-86,-61,-57,-54
-33,17,44,7,-42,22,-21,-107,-98,-61,-57,-60
-33,6,32,13,-36,10,-15,-107,-98,-67,-63,-60
-39,0,32,19,-36,10,-15,-107,-98,-67,-69,-72
-45,-6,32,25,-42,4,-15,-107,-98,-67,-75,-72
-45,-12,26,25,-36,4,-9,-101,-98,-67,-81,-78
-45,-12,26,25,-36,4,-9,-101,-92,-67,-93,-84
-57,-6,44,31,-54,10,-9,-107,-98,-67,-99,-90
-63,-6,50,31,-60,16,-3,-113,-104,-67,-99,-90
-63,0,56,31,-60,22,-3,-119,-110,-67,-105,-96
-63,0,56,31,-60,22,-3,-125,-110,-67,-105,-96
-57,-6,44,31,-54,10,-9,-125,-116,-79,-105,-96
-57,-12,38,31,-48,4,-15,-125,-116,-79,-105,-96
-45,-18,20,31,-36,4,-21,-119,-116,-85,-105,-90
-45,-18,20,31,-36,4,-21,-119,-116,-85,-105,-90
-45,-18,20,31,-36,4,-15,-119,-116,-79,-105,-90
-45,-18,20,31,-36,4,-21,-119,-116,-79,-99,-90
-45,-18,20,31,-36,4,-15,-119,-116,-73,-99,-90
-45,-18,20,31,-36,4,-15,-119,-116,-67,-99,-90
-51,-18,26,31,-42,4,-15,-119,-110,-67,-99,-84
-51,-18,26,31,-42,4,-15,-119,-110,-67,-99,-84
-57,-18,32,37,-48,4,-15,-119,-104,-67,-99,-78
-57,-18,32,37,-48,4,-15,-119,-104,-67,-99,-78
-69,-18,44,43,-60,4,-21,-119,-104,-67,-87,-66
-57,-18,32,37,-48,4,-21,-119,-110,-67,-99,-78
-39,-18,14,25,-30,4,-27,-125,-110,-67,-105,-78
-45,-12,26,25,-36,4,-27,-131,-122,-67,-105,-84
-51,0,44,25,-48,16,-15,-143,-110,-55,-105,-84
-63,17,74,19,-72,40,-3,-143,-92,-49,-99,-84
-87,53,146,7,-114,100,27,-101,-38,-7,-75,-84
-87,113,206,-23,-144,160,69,-12,99,83,-33,-60
-81,179,260,-40,-174,220,147,174,291,196,32,-12
-63,251,314,-88,-192,280,219,312,447,310,68,24
-57,269,332,-100,-198,298,255,324,465,364,92,54
-45,287,338,-118,-192,310,261,216,369,382,134,95
9,311,308,-154,-150,310,219,66,207,370,194,155
80,341,254,-214,-84,298,141,-101,-8,340,296,275
170,383,212,-274,-12,298,21,-329,-290,298,416,407
242,455,212,-346,17,334,-134,-623,-590,274,584,593
320,563,236,-442,35,406,-350,-893,-848,304,818,845
416,713,290,-562,59,502,-584,-1097,-1058,382,1112,1151
512,827,314,-670,95,574,-794,-1265,-1202,466,1394,1439
560,785,224,-676,167,502,-974,-1355,-1298,514,1544,1595
584,569,-10,-574,299,274,-1082,-1331,-1298,490,1544,1595
578,335,-243,-460,413,46,-1130,-1241,-1232,394,1364,1469
566,197,-369,-382,473,-79,-1172,-1235,-1226,202,1088,1265
530,149,-381,-340,461,-109,-1226,-1289,-1298,-19,800,1043
416,125,-285,-268,353,-73,-1220,-1391,-1406,-253,512,791
266,77,-189,-172,233,-49,-1142,-1505,-1526,-559,128,479
140,35,-99,-88,119,-25,-1016,-1529,-1550,-847,-201,173
80,-6,-93,-28,83,-49,-860,-1361,-1400,-895,-345,12
62,-60,-129,-11,95,-91,-716,-1133,-1178,-787,-357,-78
44,-120,-171,31,107,-145,-596,-935,-968,-649,-345,-144
26,-150,-177,55,95,-163,-464,-737,-764,-535,-315,-168
15,-150,-159,67,77,-157,-326,-539,-560,-409,-267,-144
15,-126,-135,55,65,-133,-230,-383,-422,-295,-219,-132
15,-96,-105,37,53,-103,-140,-281,-302,-193,-171,-108
21,-72,-87,25,47,-79,-86,-197,-224,-133,-129,-96
21,-66,-81,19,41,-73,-38,-137,-170,-97,-105,-84
9,-60,-63,25,29,-61,-33,-113,-134,-67,-99,-78
3,-42,-39,19,17,-43,-33,-101,-116,-61,-99,-78
-3,-30,-21,13,12,-25,-33,-101,-116,-61,-99,-78
-15,-30,-10,19,0,-19,-33,-101,-116,-67,-99,-66
-15,-18,-10,13,-6,-7,-27,-107,-116,-67,-99,-66
-21,-6,8,13,-18,4,-21,-101,-110,-67,-99,-54
-21,-6,8,13,-18,4,-9,-77,-86,-61,-93,-60
-21,-6,8,13,-18,4,15,-53,-68,-49,-93,-60
-21,-12,2,13,-12,-1,33,-42,-38,-25,-93,-60
-21,-24,-10,19,-6,-13,39,-24,-26,-19,-93,-66
-21,-24,-10,19,-6,-13,39,-24,-26,-19,-87,-72
-21,-24,-10,19,-6,-13,33,-18,-26,-19,-87,-78
-15,-24,-10,19,0,-13,33,-24,-26,-19,-87,-78
-15,-12,-4,13,-6,-1,27,-30,-32,-19,-87,-84
-21,-12,2,13,-12,-1,27,-30,-32,-19,-87,-84
-21,-12,2,13,-12,-1,27,-36,-32,-19,-93,-90
-21,-6,8,13,-18,4,33,-36,-26,-13,-93,-90
-9,-6,-4,7,-6,-1,39,-18,-20,5,-93,-84
-9,-6,-4,7,-6,-1,45,-12,-14,5,-87,-78
-3,-6,-10,1,0,-1,51,-6,-8,11,-87,-72
-3,-6,-10,1,0,-1,51,-6,-8,11,-87,-72
-3,-6,-10,1,0,-1,45,-6,-8,23,-87,-72
-3,-6,-10,1,0,-1,45,-6,-8,23,-87,-72
-3,-6,-10,1,0,-1,39,-12,-8,35,-87,-72
-3,-6,-10,1,0,-1,39,-12,-8,35,-87,-72
-3,-12,-10,7,6,-7,45,-12,-3,41,-75,-72
-3,-6,-10,1,0,-1,45,-12,-3,41,-75,-72
-9,-12,-10,7,0,-7,51,-6,3,53,-69,-72
-9,-12,-10,7,0,-7,51,0,9,59,-69,-72
-3,-6,-10,1,0,-1,51,12,9,59,-63,-72
-3,-6,-10,1,0,-1,51,12,9,59,-63,-72
3,0,-10,-5,6,-1,51,18,15,59,-63,-72
3,0,-10,-5,6,-1,51,24,15,65,-57,-72
3,0,-10,-5,6,-1,39,24,9,71,-51,-66
9,0,-10,-5,12,-1,39,24,9,71,-51,-66
9,0,-10,-5,12,-1,33,24,3,71,-51,-66
9,0,-10,-5,12,-1,33,24,9,71,-51,-66
9,6,-10,-11,6,4,33,24,9,77,-51,-60
9,6,-10,-11,6,4,33,24,15,77,-51,-60
15,6,-10,-11,12,-1,33,30,15,77,-51,-60
15,6,-10,-11,12,-1,27,36,15,77,-51,-60
15,6,-10,-11,12,-1,27,36,21,83,-51,-66
15,6,-10,-11,12,-1,27,36,21,83,-51,-54
15,12,-10,-17,12,4,27,42,27,83,-45,-60
15,12,-10,-17,12,4,27,48,27,89,-39,-54
21,12,-10,-17,17,4,27,48,39,89,-39,-48
21,12,-10,-17,17,4,21,54,45,89,-33,-42
21,12,-10,-17,17,4,21,54,45,95,-33,-42
26,12,-10,-23,17,-1,21,54,51,95,-33,-42
26,17,-10,-23,17,4,21,54,57,100,-27,-36
26,17,-10,-23,17,4,21,66,57,100,-21,-36
26,17,-10,-23,17,4,21,66,57,100,-15,-36
26,17,-15,-23,17,4,21,66,57,106,-9,-30
38,17,-21,-23,29,4,15,72,63,106,-9,-30
38,17,-21,-23,29,4,15,84,75,112,-9,-24
50,17,-33,-28,41,-1,3,90,75,112,-9,-18
50,17,-27,-34,41,4,3,96,81,118,-9,-12
50,17,-27,-34,41,4,3,102,93,118,3,0
50,17,-27,-34,41,4,-3,108,99,130,9,6
44,23,-15,-34,29,4,-3,114,105,136,21,18
56,23,-27,-40,41,4,-9,120,111,142,32,24
62,29,-27,-46,47,4,-9,138,123,148,32,30
68,29,-33,-46,53,4,-9,138,129,160,32,36
68,35,-27,-52,47,4,-9,150,141,166,32,36
74,41,-27,-58,53,4,-15,162,153,184,32,54
86,53,-27,-70,59,10,-9,168,159,178,38,72
86,53,-27,-70,59,10,-9,180,165,196,56,78
98,53,-39,-76,71,4,-15,192,177,202,74,95
104,53,-45,-76,77,4,-15,198,195,214,86,95
116,59,-51,-88,83,4,-21,210,189,214,98,107
122,65,-51,-94,89,4,-21,210,207,220,110,119
140,65,-69,-100,107,4,-27,228,201,238,122,131
146,71,-69,-106,107,4,-33,240,213,244,128,143
158,83,-69,-118,113,4,-33,240,219,250,140,155
164,83,-75,-124,119,4,-33,258,231,256,158,173
170,83,-81,-124,125,4,-44,264,237,268,170,185
182,95,-81,-136,131,4,-50,270,243,268,182,197
188,107,-75,-148,131,10,-56,276,243,280,200,215
200,119,-75,-160,137,16,-62,282,249,286,212,227
206,131,-69,-166,137,28,-62,288,249,292,218,245
212,137,-69,-172,143,28,-74,294,249,298,230,257
218,149,-63,-184,143,40,-74,288,243,298,224,263
224,155,-63,-190,143,40,-80,288,243,304,236,269
230,167,-57,-196,143,52,-86,288,237,304,236,275
236,173,-57,-202,149,52,-92,288,243,304,242,281
242,179,-57,-208,149,58,-98,288,243,310,260,293
242,185,-51,-214,149,64,-98,294,243,310,272,305
260,185,-69,-220,167,52,-104,294,237,310,278,317
260,185,-69,-220,167,52,-110,294,237,310,296,323
260,185,-69,-220,167,52,-116,288,237,310,296,335
266,197,-63,-232,167,64,-116,288,231,310,296,335
266,197,-63,-232,167,64,-122,288,231,310,290,341
266,197,-63,-232,167,64,-122,276,225,304,290,341
266,209,-51,-238,161,76,-122,270,219,298,290,341
266,209,-51,-238,161,76,-122,264,213,292,290,341
266,215,-45,-238,155,82,-122,246,201,286,290,335
260,221,-33,-238,149,88,-122,234,189,268,278,335
260,215,-39,-238,149,82,-122,216,183,268,272,323
254,215,-33,-232,143,88,-122,198,165,262,260,311
254,209,-39,-232,149,82,-116,192,153,250,254,305
242,209,-27,-226,137,88,-110,180,147,238,242,293
218,191,-21,-202,119,82,-104,168,135,220,218,269
206,185,-15,-196,113,82,-98,162,123,208,206,251
188,173,-10,-178,101,76,-92,156,111,184,182,233
182,167,-10,-172,95,76,-80,144,105,172,164,221
170,161,-10,-166,89,76,-74,132,99,160,152,197
158,155,-10,-154,77,76,-68,114,81,160,134,179
146,149,-4,-148,71,76,-62,102,75,154,128,155
134,137,-4,-136,65,70,-56,90,69,142,116,131
122,119,-10,-118,59,58,-38,72,51,136,86,113
110,113,-4,-112,53,58,-33,66,45,124,68,95
104,101,-10,-100,53,46,-33,54,33,118,44,84
98,95,-10,-94,47,46,-21,42,21,106,32,66
80,83,-4,-82,35,40,-15,36,21,100,27,48
68,77,2,-70,29,40,-9,36,9,100,9,42
62,65,-4,-64,29,34,-3,24,9,95,3,36
56,53,-10,-52,29,22,-3,24,-3,83,-15,24
56,53,-10,-52,29,22,-3,18,-3,89,-21,12
50,47,-10,-46,23,22,3,-6,-3,83,-27,-6
50,47,-10,-46,23,22,3,-12,-8,83,-39,-6
44,41,-10,-40,23,16,9,-24,-14,77,-39,-12
32,29,-10,-28,17,10,9,-24,-20,71,-57,-24
26,29,-4,-28,17,16,9,-30,-26,65,-63,-30
26,17,-10,-23,17,4,15,-30,-32,59,-75,-42
26,17,-10,-23,17,4,15,-30,-32,59,-81,-48
26,17,-10,-23,17,4,21,-42,-32,59,-81,-54
26,17,-10,-23,17,4,21,-42,-38,59,-81,-54
26,17,-10,-23,17,4,21,-42,-32,47,-81,-54
21,17,-10,-23,12,4,21,-47,-38,47,-87,-54
21,6,-10,-17,17,-1,21,-42,-38,41,-81,-54
21,6,-10,-17,17,-1,21,-42,-38,41,-87,-60
21,0,-15,-11,17,-7,21,-42,-38,41,-87,-60
21,0,-15,-11,17,-7,21,-42,-38,41,-93,-60
15,0,-10,-11,17,-7,27,-47,-38,35,-99,-66
15,-6,-15,-5,17,-13,27,-47,-50,29,-105,-66
9,-6,-10,-5,12,-7,27,-59,-44,23,-105,-66
3,-6,-10,1,6,-7,27,-59,-44,23,-99,-66
9,-12,-15,1,17,-13,21,-59,-38,23,-105,-72
9,-12,-15,1,17,-13,21,-59,-38,23,-99,-72
15,-12,-21,-5,17,-19,21,-59,-32,23,-105,-72
15,-12,-21,-5,17,-19,21,-65,-26,23,-111,-72
15,-6,-15,-5,17,-13,15,-59,-32,23,-111,-66
15,-6,-15,-5,17,-13,15,-59,-32,23,-111,-72
15,-6,-15,-5,17,-13,9,-53,-38,23,-111,-66
15,-6,-15,-5,17,-13,9,-53,-38,23,-111,-66
15,-6,-15,-5,17,-13,9,-59,-38,23,-111,-66
15,0,-10,-11,17,-7,9,-59,-38,23,-111,-66
15,0,-10,-11,17,-7,9,-65,-38,23,-105,-66
15,-6,-15,-5,17,-13,9,-65,-38,17,-105,-66
15,-12,-21,-5,17,-19,9,-59,-32,17,-105,-66
15,-12,-21,-5,17,-19,15,-59,-26,17,-105,-66
9,-18,-21,1,17,-19,15,-59,-20,23,-99,-66
9,-18,-21,1,17,-19,15,-59,-8,23,-99,-66
15,-12,-21,-5,17,-19,15,-53,-8,23,-99,-66
15,-12,-21,-5,17,-19,15,-47,-8,23,-99,-66
21,-6,-21,-11,17,-13,15,-42,-14,23,-99,-66
21,-6,-21,-11,17,-13,15,-42,-14,23,-99,-66
21,0,-15,-11,17,-7,15,-42,-3,17,-105,-66
21,0,-15,-11,17,-7,15,-42,-3,23,-105,-66
21,6,-10,-17,17,-1,15,-42,-3,17,-105,-66
21,6,-10,-17,17,-1,15,-42,-3,17,-105,-66
21,0,-15,-11,17,-7,21,-42,-3,23,-105,-60
26,6,-15,-17,17,-7,21,-42,3,23,-99,-60
26,6,-15,-17,17,-7,27,-42,3,35,-99,-60
21,6,-10,-17,17,-1,27,-42,3,35,-99,-60
21,6,-10,-17,17,-1,27,-30,9,35,-93,-66
21,0,-15,-11,17,-7,27,-30,9,41,-93,-66
21,0,-15,-11,17,-7,27,-24,15,41,-93,-72
21,0,-15,-11,17,-7,33,-24,15,41,-93,-72
15,0,-10,-11,17,-7,33,-24,21,41,-93,-72
15,0,-10,-11,17,-7,33,-18,21,47,-93,-72
9,0,-10,-5,12,-1,27,-18,21,47,-87,-72
15,6,-10,-11,12,-1,27,-18,27,47,-87,-72
15,6,-10,-11,12,-1,27,-18,33,47,-87,-72
9,6,-10,-11,6,4,27,-18,33,47,-87,-72
9,6,-10,-11,6,4,27,-18,39,47,-81,-72
9,6,-10,-11,6,4,27,-18,39,47,-81,-72
15,6,-10,-11,12,-1,27,-18,39,53,-87,-66
15,6,-10,-11,12,-1,27,-18,39,53,-87,-66
21,12,-10,-17,17,4,27,-18,39,53,-93,-66
21,12,-10,-17,17,4,27,-12,39,53,-93,-66
15,12,-10,-17,12,4,27,-18,39,53,-93,-60
15,12,-10,-17,12,4,27,-18,39,53,-93,-60
9,12,-4,-11,6,4,27,-24,39,53,-93,-54
9,12,-4,-11,6,4,27,-24,39,53,-93,-54
15,17,-4,-17,6,4,21,-24,39,53,-93,-54
15,17,-4,-17,6,4,21,-24,39,53,-93,-54
21,17,-4,-23,12,4,21,-24,39,47,-93,-66
21,17,-4,-23,12,4,21,-30,39,47,-93,-66
21,17,-10,-23,12,4,21,-24,33,47,-93,-60
21,17,-10,-23,12,4,21,-24,33,47,-93,-60
21,12,-10,-17,17,4,21,-24,27,47,-99,-54
21,12,-10,-17,17,4,21,-24,27,47,-99,-54
21,12,-10,-17,17,4,21,-24,27,41,-99,-54
21,12,-10,-17,17,4,21,-24,27,41,-99,-54
21,12,-10,-17,17,4,21,-24,21,41,-99,-54
21,12,-10,-17,17,4,21,-24,21,35,-99,-48
21,6,-10,-17,17,-1,21,-24,21,35,-93,-48
21,6,-10,-17,17,-1,21,-24,21,35,-93,-48
15,0,-10,-11,17,-7,21,-30,27,35,-93,-48
15,0,-10,-11,17,-7,21,-30,27,35,-93,-48
15,6,-10,-11,12,-1,21,-36,21,23,-99,-54
15,0,-10,-11,17,-7,21,-36,21,23,-99,-48
15,0,-10,-11,17,-7,21,-42,21,17,-105,-54
15,0,-10,-11,17,-7,21,-42,21,11,-105,-54
15,0,-10,-11,17,-7,21,-42,9,23,-105,-60
15,6,-10,-11,12,-1,21,-42,9,11,-105,-72
21,0,-15,-11,17,-7,21,-42,3,11,-105,-66
21,0,-15,-11,17,-7,21,-42,3,5,-105,-66
21,0,-15,-11,17,-7,21,-42,3,5,-105,-66
21,0,-15,-11,17,-7,21,-42,3,-1,-105,-66
21,0,-15,-11,17,-7,21,-42,3,-1,-105,-66
15,-6,-15,-5,17,-13,15,-42,9,-1,-105,-66
15,-6,-15,-5,17,-13,15,-42,3,-1,-111,-66
9,-18,-21,1,17,-19,9,-42,9,-1,-111,-66
9,-18,-21,1,17,-19,9,-42,3,-1,-111,-66
15,-18,-27,1,17,-25,3,-42,-3,-7,-111,-72
15,-18,-27,1,17,-25,3,-42,-3,-7,-117,-72
21,-18,-33,-5,17,-25,-3,-42,-3,-7,-117,-72
15,-24,-33,1,17,-31,-3,-42,-3,-7,-111,-72
9,-18,-21,1,17,-19,3,-42,-3,-1,-111,-78
9,-18,-21,1,17,-19,3,-42,-3,-7,-117,-78
3,-12,-10,1,12,-13,9,-42,-3,-1,-117,-78
3,-12,-10,1,12,-13,9,-42,-3,-1,-117,-78
3,-12,-10,1,12,-13,3,-42,-3,-7,-117,-84
3,-12,-10,1,12,-13,3,-42,-3,-7,-117,-84
3,-12,-10,1,12,-13,3,-42,-3,-13,-117,-90
3,-18,-15,7,12,-19,3,-42,-3,-13,-117,-90
3,-18,-15,7,12,-19,3,-42,-8,-19,-129,-90
3,-18,-15,7,12,-19,3,-42,-8,-19,-129,-90
3,-18,-15,7,12,-19,3,-42,-14,-19,-135,-90
3,-18,-15,7,12,-19,3,-42,-14,-19,-129,-90
15,-6,-15,-5,17,-13,-3,-36,-3,-19,-123,-90
21,0,-15,-11,17,-7,3,-30,-3,-13,-117,-84
26,12,-15,-23,17,-1,3,-24,3,-13,-111,-84
26,17,-15,-23,17,4,3,-18,9,-7,-111,-78
26,17,-10,-23,17,4,9,-12,15,-7,-111,-78
38,35,-10,-34,17,16,9,0,27,-1,-99,-72
38,59,14,-46,17,40,21,6,39,11,-93,-60
32,71,32,-52,6,52,27,12,45,17,-81,-54
38,83,38,-58,6,64,39,12,45,35,-75,-48
38,95,50,-64,0,76,39,12,45,35,-75,-48
44,95,44,-70,6,70,45,12,51,41,-75,-48
44,101,50,-70,6,76,45,12,51,47,-69,-48
44,113,62,-76,0,88,45,12,57,41,-57,-42
44,119,68,-82,-6,94,45,12,57,47,-51,-36
44,125,74,-82,-6,100,45,12,57,41,-39,-18
44,125,74,-82,-6,100,33,12,57,53,-33,-18
50,131,74,-88,-6,106,39,18,75,59,-27,-12
56,131,68,-94,0,100,39,18,75,59,-27,-6
50,131,74,-88,-6,106,45,24,81,65,-21,0
50,131,74,-88,-6,106,39,18,81,65,-21,6
56,131,68,-94,0,100,33,0,69,59,-27,0
56,131,68,-94,0,100,27,-12,57,53,-33,0
56,119,56,-88,6,88,21,-12,57,47,-45,-6
56,107,44,-82,12,76,15,-6,51,35,-51,-6
62,101,32,-82,17,70,3,-12,39,35,-57,-12
62,89,20,-76,17,58,-9,-24,33,23,-63,-18
62,83,14,-70,17,52,-21,-30,21,29,-63,-30
62,71,2,-64,23,40,-21,-30,21,23,-63,-30
68,65,-10,-64,35,28,-27,-24,27,23,-63,-24
68,41,-21,-52,47,4,-27,-24,21,11,-69,-30
68,47,-15,-58,41,10,-27,-36,21,5,-69,-30
68,35,-27,-52,47,4,-27,-42,15,-7,-87,-42
62,23,-33,-40,47,4,-33,-42,-3,-19,-99,-48
56,17,-39,-34,47,-7,-33,-47,-8,-31,-111,-60
56,17,-39,-34,47,-7,-33,-59,-26,-43,-123,-60
50,17,-39,-28,41,-7,-33,-59,-26,-55,-129,-60
44,12,-39,-23,41,-13,-33,-71,-32,-61,-135,-66
26,6,-27,-23,23,-7,-33,-77,-32,-67,-141,-72
26,-6,-27,-11,17,-19,-33,-83,-38,-73,-141,-84
26,-18,-39,-5,23,-31,-27,-83,-38,-79,-147,-84
15,-24,-33,1,17,-31,-27,-83,-38,-79,-153,-96
9,-30,-33,7,17,-31,-27,-83,-38,-79,-153,-96
3,-36,-33,13,17,-37,-21,-77,-38,-79,-159,-102
3,-36,-33,13,17,-37,-21,-77,-32,-79,-165,-108
-3,-42,-33,19,17,-37,-15,-77,-32,-79,-165,-102
-9,-42,-27,25,12,-37,-9,-77,-38,-79,-165,-102
-3,-48,-39,25,17,-43,-3,-77,-38,-79,-165,-96
-3,-48,-39,25,17,-43,-3,-77,-38,-79,-165,-96
-3,-48,-39,25,17,-43,-3,-83,-38,-85,-165,-96
-3,-54,-45,25,17,-49,-9,-83,-38,-85,-165,-96
3,-54,-51,25,17,-55,-9,-83,-32,-85,-165,-90
3,-54,-51,25,17,-55,-9,-83,-32,-85,-165,-90
3,-48,-45,19,17,-49,-15,-83,-38,-91,-165,-90
3,-48,-45,19,17,-49,-21,-83,-38,-91,-159,-90
3,-42,-39,19,17,-43,-27,-83,-44,-97,-159,-90
3,-42,-39,19,17,-43,-27,-83,-44,-91,-159,-90
3,-36,-33,13,17,-37,-27,-83,-44,-91,-159,-96
3,-36,-33,13,17,-37,-27,-83,-44,-91,-159,-96
3,-30,-27,13,17,-31,-27,-83,-44,-91,-159,-102
3,-30,-27,13,17,-31,-27,-83,-44,-91,-159,-102
-9,-30,-15,19,6,-25,-21,-83,-44,-91,-171,-102
-9,-30,-15,19,6,-25,-21,-83,-38,-91,-159,-102
-3,-30,-21,13,12,-25,-15,-77,-38,-91,-165,-102
-9,-24,-10,13,6,-19,-27,-83,-38,-91,-165,-96
-15,-24,-10,19,0,-13,-27,-95,-38,-79,-153,-96
-39,-18,14,25,-30,4,-15,-83,-20,-73,-159,-84
-51,17,62,13,-60,34,15,-53,9,-43,-135,-84
-51,65,122,-17,-84,94,45,12,111,35,-93,-60
-45,143,194,-40,-120,166,111,174,267,148,-27,-12
-39,203,242,-76,-144,226,189,336,459,262,32,24
-21,227,248,-94,-138,238,243,396,531,322,44,30
3,245,242,-118,-120,244,249,336,495,346,74,60
32,263,230,-148,-90,244,231,198,393,358,134,119
104,281,176,-196,-30,232,189,30,207,340,218,215
194,323,128,-262,29,232,81,-167,-20,286,296,335
272,395,116,-334,77,256,-50,-449,-308,250,434,503
356,497,134,-424,107,316,-236,-755,-590,256,632,731
452,629,176,-538,137,406,-482,-995,-812,304,902,1013
554,755,200,-658,179,484,-692,-1175,-986,382,1172,1313
620,749,128,-688,245,442,-878,-1295,-1100,418,1346,1505
644,593,-45,-616,347,268,-1010,-1307,-1148,394,1370,1529
650,383,-261,-514,461,58,-1070,-1241,-1118,304,1238,1409
626,209,-417,-418,521,-97,-1124,-1199,-1088,130,974,1205
590,137,-453,-364,521,-151,-1190,-1247,-1148,-55,698,983
500,113,-381,-304,443,-127,-1208,-1331,-1238,-241,452,779
338,65,-267,-202,305,-97,-1142,-1439,-1364,-499,128,503
200,17,-183,-106,191,-79,-1052,-1505,-1448,-775,-219,185
116,-18,-141,-40,125,-79,-908,-1397,-1364,-907,-417,-12
86,-60,-153,-23,119,-103,-764,-1181,-1178,-847,-453,-126
80,-108,-195,7,137,-151,-644,-971,-968,-733,-429,-168
56,-138,-201,31,125,-169,-518,-779,-764,-619,-411,-204
38,-150,-195,49,113,-169,-398,-587,-572,-505,-375,-192
38,-138,-183,43,107,-157,-272,-419,-398,-379,-315,-162
26,-108,-141,31,83,-121,-188,-287,-254,-277,-261,-144
32,-96,-135,25,83,-115,-122,-197,-176,-199,-219,-132
32,-90,-129,19,77,-109,-74,-137,-110,-163,-207,-120
32,-96,-135,25,83,-115,-56,-89,-74,-139,-195,-114
26,-102,-123,37,65,-115,-44,-65,-56,-121,-183,-114
26,-78,-105,19,59,-91,-38,-65,-56,-121,-183,-114
21,-54,-69,13,35,-61,-44,-77,-56,-127,-183,-114
9,-42,-45,13,17,-43,-38,-71,-44,-127,-183,-102
3,-42,-39,19,17,-43,-33,-77,-50,-115,-183,-102
3,-42,-39,19,17,-43,-33,-65,-26,-109,-177,-96
3,-42,-39,19,17,-43,-9,-42,-3,-85,-177,-96
-9,-60,-45,31,17,-55,9,-30,21,-73,-177,-84
-3,-66,-57,31,17,-61,21,-12,27,-73,-177,-90
-3,-66,-57,31,17,-61,21,-12,27,-73,-171,-96
3,-60,-57,25,23,-61,21,-6,21,-79,-171,-102
9,-60,-63,25,29,-61,21,-12,21,-79,-171,-102
9,-48,-51,19,23,-49,15,-18,21,-79,-165,-96
3,-48,-45,19,17,-49,15,-18,21,-79,-165,-96
3,-48,-45,19,17,-49,15,-24,27,-79,-165,-90
3,-42,-39,19,17,-43,21,-24,33,-73,-165,-90
9,-42,-45,13,17,-43,21,-6,39,-55,-159,-90
9,-42,-45,13,17,-43,27,0,45,-55,-153,-84
9,-42,-45,13,17,-43,27,6,51,-49,-147,-84
9,-42,-45,13,17,-43,27,6,51,-49,-147,-84
9,-48,-51,19,23,-49,27,12,57,-43,-147,-84
9,-48,-51,19,23,-49,27,12,57,-43,-147,-84
9,-54,-57,19,23,-55,27,12,63,-37,-147,-84
9,-54,-57,19,23,-55,27,12,63,-37,-147,-84
15,-48,-57,13,29,-55,21,6,63,-37,-141,-90
15,-42,-51,13,23,-49,21,6,63,-37,-141,-90
15,-36,-45,7,23,-43,15,6,63,-31,-141,-96
15,-36,-45,7,23,-43,15,12,69,-25,-141,-96
15,-36,-45,7,23,-43,15,24,69,-31,-135,-96
15,-36,-45,7,23,-43,15,24,69,-31,-135,-96
15,-36,-45,7,23,-43,15,30,75,-37,-135,-96
15,-36,-45,7,23,-43,15,36,75,-31,-129,-96
15,-36,-45,7,23,-43,15,30,81,-25,-129,-90
21,-36,-51,7,29,-43,15,30,81,-25,-129,-90
21,-36,-51,7,29,-43,21,24,87,-25,-135,-90
21,-36,-51,7,29,-43,21,24,93,-25,-135,-90
21,-30,-45,1,23,-37,21,24,87,-19,-135,-84
21,-30,-45,1,23,-37,21,24,93,-19,-135,-84
26,-30,-51,1,29,-43,21,30,87,-19,-135,-84
26,-30,-51,1,29,-43,15,36,87,-19,-135,-84
26,-30,-51,1,29,-43,9,36,93,-13,-141,-84
26,-30,-51,1,29,-43,9,36,93,-13,-141,-72
26,-24,-45,-5,29,-37,3,42,99,-13,-141,-72
26,-24,-45,-5,29,-37,3,48,99,-7,-135,-66
26,-24,-51,-5,35,-37,9,48,111,-1,-135,-54
26,-24,-51,-5,35,-37,3,54,117,-1,-129,-48
26,-24,-51,-5,35,-37,9,54,117,11,-129,-42
26,-24,-57,-11,41,-37,9,54,123,11,-129,-42
32,-18,-57,-17,41,-37,9,54,129,11,-123,-36
38,-18,-63,-17,47,-37,9,66,129,11,-117,-36
44,-18,-69,-23,53,-43,9,66,129,11,-111,-36
50,-18,-75,-23,59,-43,9,66,129,23,-105,-30
50,-12,-69,-23,59,-37,9,66,135,23,-105,-30
50,-12,-69,-23,59,-37,9,72,147,29,-99,-24
50,-12,-69,-23,59,-37,3,72,147,29,-99,-18
50,-6,-63,-23,53,-31,3,72,153,35,-93,-12
56,0,-63,-23,59,-31,3,84,165,41,-87,0
56,0,-63,-23,59,-31,-3,90,171,53,-81,6
56,12,-51,-28,53,-19,-3,102,177,65,-75,18
68,12,-63,-34,65,-25,-9,108,183,71,-63,24
74,12,-69,-34,71,-25,-3,126,195,77,-57,42
80,12,-75,-40,77,-31,-3,126,201,89,-51,48
80,12,-75,-40,77,-31,3,138,213,95,-45,60
86,17,-75,-46,77,-25,-3,150,225,100,-33,78
98,17,-75,-58,89,-19,-9,150,225,100,-33,84
98,17,-75,-58,89,-19,-9,156,225,118,-15,90
110,17,-87,-64,101,-25,-27,162,231,130,-9,95
116,17,-93,-64,107,-31,-27,168,237,142,3,95
116,29,-81,-70,101,-19,-27,180,237,148,15,107
122,35,-81,-76,101,-13,-27,180,255,160,27,119
128,41,-81,-82,107,-13,-27,198,255,184,32,131
134,47,-81,-88,107,-7,-33,204,267,196,32,143
152,59,-87,-106,119,-7,-33,210,273,208,44,155
158,59,-93,-106,125,-7,-33,228,285,214,62,173
170,59,-105,-112,137,-13,-33,240,291,232,74,185
182,71,-105,-124,143,-7,-38,246,303,232,86,197
188,83,-99,-136,143,-1,-50,246,303,238,98,203
200,95,-99,-148,149,4,-56,246,303,238,104,209
206,107,-93,-154,149,4,-62,246,303,238,104,215
212,113,-93,-160,155,4,-74,246,297,238,110,221
212,119,-87,-166,149,10,-74,252,303,238,116,239
218,125,-87,-172,155,16,-80,252,303,244,134,245
218,131,-81,-172,149,22,-86,264,309,244,146,263
224,137,-81,-178,155,22,-92,264,315,244,158,269
224,143,-75,-184,149,28,-98,258,315,250,170,275
224,149,-69,-184,149,34,-98,264,315,250,176,287
236,149,-81,-190,161,28,-104,258,309,250,182,293
236,149,-81,-190,161,28,-110,258,309,250,194,299
248,149,-93,-196,173,22,-116,252,309,250,194,299
254,161,-87,-208,173,34,-116,252,297,250,194,305
266,161,-99,-214,185,28,-122,252,297,250,188,299
266,161,-99,-214,185,28,-122,240,291,244,188,299
266,173,-87,-220,179,40,-128,234,291,244,194,299
266,173,-87,-220,179,40,-128,228,285,238,194,299
266,179,-81,-220,173,46,-134,210,279,238,200,293
260,185,-69,-220,167,52,-134,198,267,220,188,287
254,191,-57,-220,155,64,-134,192,261,220,176,281
248,191,-51,-220,149,64,-134,174,243,220,164,275
242,197,-39,-220,143,76,-128,168,237,208,158,275
230,197,-27,-214,131,82,-122,156,231,202,146,269
218,185,-27,-202,125,76,-116,144,225,196,134,257
212,179,-27,-196,119,70,-110,138,213,184,128,245
206,173,-27,-190,119,70,-104,132,207,172,116,239
206,167,-33,-184,119,64,-92,120,201,160,104,233
194,161,-27,-178,113,64,-80,108,195,142,86,209
182,155,-21,-166,101,64,-74,90,171,136,68,185
170,149,-15,-160,95,64,-62,78,165,124,56,161
158,137,-15,-148,89,58,-56,66,153,106,44,131
140,131,-10,-136,71,58,-44,48,141,100,32,119
128,125,-10,-124,65,58,-38,42,141,100,15,101
116,125,2,-118,53,64,-33,30,135,100,-3,95
110,119,2,-112,47,64,-33,18,129,95,-15,78
98,113,8,-106,41,64,-27,6,117,95,-33,66
86,107,14,-94,29,64,-21,0,105,83,-51,60
86,101,8,-94,35,58,-15,-18,93,83,-57,60
80,89,2,-82,35,46,-15,-24,81,71,-75,48
74,83,2,-76,29,46,-15,-24,87,71,-87,30
68,77,2,-70,29,40,-9,-42,81,65,-99,12
62,71,2,-64,23,40,-9,-42,75,59,-117,6
56,65,2,-58,23,34,-3,-42,69,53,-123,0
44,59,8,-52,17,34,-3,-42,63,47,-129,0
32,59,20,-46,12,40,-3,-47,57,41,-135,-6
26,53,20,-40,12,40,3,-53,51,35,-135,-6
26,47,20,-34,6,34,3,-53,51,35,-141,-12
26,47,14,-34,12,34,3,-59,45,35,-147,-24
32,47,8,-40,17,28,3,-59,39,35,-153,-30
38,41,-4,-40,17,22,-3,-59,39,23,-159,-36
32,41,2,-34,17,22,-3,-71,33,23,-171,-42
26,35,2,-28,17,22,3,-71,39,17,-165,-42
26,35,8,-28,12,22,3,-71,39,17,-171,-48
26,35,14,-23,6,22,9,-77,45,17,-171,-48
21,35,20,-23,0,28,9,-77,45,17,-177,-48
21,29,14,-23,6,22,21,-77,39,17,-177,-54
21,23,8,-23,6,16,21,-77,27,11,-183,-54
21,17,2,-23,12,10,27,-83,27,11,-177,-54
15,17,8,-23,6,10,27,-83,27,11,-171,-54
21,17,-4,-23,12,4,15,-83,21,11,-177,-66
21,17,-4,-23,12,4,15,-83,15,11,-177,-66
26,17,-10,-23,17,4,9,-83,9,11,-183,-72
26,17,-10,-23,17,4,9,-89,9,11,-195,-72
26,17,-10,-23,17,4,15,-89,15,5,-189,-66
26,17,-10,-23,17,4,15,-89,15,5,-189,-66
26,17,-10,-23,17,4,21,-89,21,-1,-183,-60
26,17,-10,-23,17,4,21,-89,21,-1,-183,-54
21,12,-10,-17,17,4,21,-83,15,-1,-183,-48
21,17,-10,-23,12,4,21,-83,15,-1,-183,-48
15,12,-10,-17,12,4,21,-77,9,-1,-177,-42
15,6,-10,-11,12,-1,21,-77,9,-7,-177,-42
21,6,-10,-17,17,-1,15,-71,15,-1,-177,-48
21,6,-10,-17,17,-1,21,-71,15,-1,-177,-48
21,6,-10,-17,17,-1,15,-71,21,11,-171,-54
21,6,-10,-17,17,-1,15,-71,27,11,-171,-54
21,12,-10,-17,17,4,15,-71,27,11,-177,-60
21,12,-10,-17,17,4,15,-65,27,11,-177,-60
21,17,-10,-23,12,4,15,-65,21,11,-183,-66
21,17,-10,-23,12,4,15,-65,21,11,-183,-66
21,17,-10,-23,12,4,15,-65,27,11,-183,-72
21,17,-10,-23,12,4,15,-59,33,17,-183,-72
21,17,-10,-23,12,4,15,-59,33,17,-177,-78
21,17,-10,-23,12,4,15,-59,33,17,-177,-78
21,12,-10,-17,17,4,15,-59,33,17,-177,-66
26,17,-10,-23,17,4,15,-59,39,17,-171,-66
26,17,-10,-23,17,4,15,-65,39,23,-171,-60
21,17,-10,-23,12,4,15,-65,39,23,-171,-60
21,17,-10,-23,12,4,15,-53,51,23,-165,-54
21,12,-10,-17,17,4,15,-53,51,29,-165,-54
21,12,-10,-17,17,4,15,-47,63,29,-165,-48
21,12,-10,-17,17,4,21,-47,63,29,-165,-48
15,12,-10,-17,12,4,27,-47,63,35,-165,-54
15,12,-10,-17,12,4,27,-42,63,41,-165,-54
9,12,-4,-11,6,4,27,-42,57,47,-159,-60
15,17,-4,-17,6,4,27,-42,63,47,-159,-60
15,17,2,-23,6,4,21,-47,63,47,-165,-60
9,17,8,-17,0,10,21,-47,63,47,-165,-60
9,17,14,-23,0,16,15,-53,63,47,-165,-60
9,17,14,-23,0,16,15,-53,63,47,-165,-60
9,17,8,-17,0,10,21,-47,63,53,-165,-48
9,17,8,-17,0,10,21,-47,63,53,-165,-48
9,17,8,-17,0,10,27,-42,63,53,-165,-42
9,17,8,-17,0,10,27,-42,63,53,-165,-42
9,17,2,-17,0,4,27,-42,69,53,-159,-36
9,17,2,-17,0,4,27,-42,69,53,-159,-36
9,12,-4,-11,6,4,27,-42,75,53,-153,-30
9,12,-4,-11,6,4,27,-42,75,53,-153,-30
9,17,8,-17,0,10,21,-42,87,53,-141,-24
21,23,8,-23,6,16,21,-42,87,53,-153,-36
21,17,-4,-23,12,4,9,-42,75,47,-153,-42
21,12,-10,-17,17,4,9,-42,75,47,-165,-66
21,17,-4,-23,12,4,9,-47,75,59,-165,-66
15,17,8,-23,6,10,9,-53,69,53,-165,-60
15,17,8,-23,6,10,9,-53,69,53,-165,-60
9,23,20,-23,-6,22,9,-59,63,47,-165,-54
9,23,20,-23,-6,22,9,-59,63,47,-165,-54
9,23,20,-23,-6,22,9,-65,63,47,-171,-54
9,23,20,-23,-6,22,9,-65,57,47,-177,-54
9,17,14,-23,0,16,9,-71,57,47,-183,-54
9,17,14,-23,0,16,9,-71,51,47,-183,-54
9,17,8,-17,0,10,9,-71,57,41,-177,-54
9,17,8,-17,0,10,9,-71,51,41,-183,-54
9,17,2,-17,0,4,9,-71,57,41,-177,-48
3,12,2,-11,0,4,9,-71,57,41,-171,-48
9,12,-4,-11,6,4,9,-71,57,47,-165,-48
9,12,-4,-11,6,4,9,-71,57,41,-171,-48
15,12,-10,-17,12,4,9,-77,57,47,-165,-42
15,12,-10,-17,12,4,9,-77,51,47,-165,-42
9,6,-10,-11,6,4,3,-83,51,41,-171,-42
9,6,-10,-11,6,4,3,-83,51,41,-171,-42
3,0,-10,-5,6,-1,3,-89,51,35,-177,-42
3,-6,-10,1,6,-7,3,-89,45,35,-177,-42
3,-6,-10,1,6,-7,-3,-89,39,29,-183,-48
3,-6,-10,1,6,-7,-3,-89,39,29,-183,-54
3,-6,-10,1,6,-7,-9,-83,33,29,-183,-60
3,-6,-10,1,6,-7,-9,-77,33,29,-177,-66
9,6,-10,-11,6,4,-9,-77,45,41,-177,-66
15,12,-10,-17,12,4,-3,-71,51,47,-171,-60
21,17,-4,-23,12,4,3,-71,51,59,-171,-60
26,17,-4,-23,17,4,3,-65,57,65,-171,-54
26,23,2,-23,12,10,3,-59,63,65,-171,-54
26,41,8,-34,17,28,3,-47,75,71,-159,-48
26,59,26,-40,6,46,9,-42,87,83,-153,-36
26,71,44,-46,-6,58,15,-42,93,89,-141,-30
26,77,56,-46,-12,64,21,-42,93,100,-135,-24
26,89,68,-52,-18,76,21,-42,93,100,-135,-24
21,83,68,-46,-24,76,21,-47,99,100,-135,-24
21,89,74,-46,-24,82,21,-47,99,100,-129,-24
21,95,80,-52,-30,88,15,-53,105,100,-129,-30
21,101,86,-52,-30,94,15,-53,105,100,-129,-24
21,101,86,-52,-30,94,9,-59,105,100,-129,-18
21,101,86,-52,-30,94,-3,-59,105,112,-129,-18
26,113,86,-64,-24,100,-3,-65,111,106,-135,-18
26,113,80,-70,-18,100,-3,-65,105,100,-135,-18
26,119,86,-70,-24,106,-3,-71,99,100,-141,-18
26,119,86,-70,-24,106,-9,-77,93,100,-141,-18
26,113,86,-64,-24,100,-15,-101,81,100,-141,-18
26,107,80,-64,-24,94,-21,-113,69,100,-141,-18
21,89,74,-46,-24,82,-27,-119,69,100,-147,-18
21,71,56,-40,-18,64,-33,-113,63,95,-147,-18
26,47,20,-34,6,34,-33,-107,63,89,-147,-12
26,29,2,-23,17,16,-38,-113,57,77,-153,-18
26,17,-15,-23,17,4,-44,-107,57,77,-147,-18
26,0,-33,-23,29,-13,-44,-101,57,71,-147,-18
26,-12,-45,-17,35,-25,-44,-101,51,65,-159,-24
26,-36,-69,-5,47,-49,-44,-107,33,53,-165,-30
26,-36,-63,1,41,-49,-38,-125,21,41,-177,-42
26,-48,-75,7,47,-61,-38,-137,3,29,-195,-54
21,-60,-75,19,41,-67,-38,-143,-3,17,-207,-72
15,-72,-81,25,41,-79,-38,-155,-8,5,-213,-84
9,-72,-75,31,35,-73,-38,-167,-14,-7,-225,-96
3,-78,-75,37,29,-79,-38,-167,-14,-19,-231,-96
-3,-78,-69,37,23,-73,-38,-167,-20,-13,-231,-96
-21,-84,-57,49,17,-73,-33,-173,-20,-19,-237,-102
-33,-90,-51,61,12,-73,-33,-167,-26,-13,-231,-108
-33,-102,-63,67,17,-85,-33,-167,-26,-19,-237,-108
-33,-96,-57,61,17,-79,-33,-167,-20,-19,-243,-120
-39,-102,-57,67,12,-79,-33,-167,-20,-19,-243,-120
-33,-96,-57,61,17,-79,-33,-161,-14,-19,-249,-126
-33,-96,-57,61,17,-79,-33,-161,-8,-19,-255,-132
-45,-96,-45,67,6,-73,-33,-167,-8,-19,-255,-132
-51,-96,-39,73,0,-67,-33,-167,-14,-19,-255,-132
-51,-96,-39,73,0,-67,-33,-173,-14,-19,-255,-132
-51,-96,-39,73,0,-67,-33,-173,-14,-19,-255,-132
-51,-96,-39,73,0,-67,-33,-173,-26,-25,-249,-126
-51,-102,-45,73,0,-73,-33,-173,-26,-25,-249,-126
-45,-102,-51,73,6,-79,-33,-167,-32,-25,-243,-114
-45,-102,-51,73,6,-79,-33,-167,-32,-25,-243,-114
-39,-108,-63,73,17,-85,-33,-161,-26,-19,-237,-108
-39,-108,-63,73,17,-85,-33,-161,-20,-13,-231,-108
-33,-114,-75,73,17,-97,-33,-155,-14,-7,-225,-102
-33,-114,-75,73,17,-97,-27,-155,-8,5,-225,-102
-39,-114,-69,73,17,-91,-27,-161,-14,-1,-231,-108
-39,-114,-69,73,17,-91,-27,-161,-14,-1,-231,-108
-45,-114,-63,79,12,-91,-27,-167,-20,-7,-237,-114
-45,-114,-63,79,12,-91,-27,-167,-20,-7,-237,-114
-33,-102,-63,67,17,-85,-33,-167,-20,-7,-237,-126
-45,-102,-51,73,6,-79,-33,-167,-26,-7,-249,-126
-51,-102,-45,73,0,-73,-27,-173,-26,-7,-243,-114
-57,-84,-21,67,-12,-55,-27,-191,-26,5,-243,-132
-63,-48,8,55,-36,-13,-15,-179,-14,17,-255,-144
-75,-18,50,43,-66,10,-3,-155,27,59,-249,-144
-75,17,98,19,-84,58,39,-65,153,136,-213,-120
-63,77,146,-17,-102,112,93,84,345,274,-153,-96
-57,107,170,-23,-114,136,171,252,525,382,-99,-72
-51,119,176,-28,-114,148,219,312,585,436,-63,-48
-21,131,158,-46,-90,142,219,240,507,460,9,18
26,161,140,-88,-54,148,171,114,357,466,86,107
104,185,74,-142,17,130,93,-6,171,454,206,239
188,239,44,-214,65,142,9,-137,-20,448,356,413
254,311,56,-280,95,190,-122,-365,-302,448,566,653
332,431,92,-382,119,262,-320,-647,-590,508,842,935
416,575,158,-496,125,370,-560,-869,-824,586,1172,1271
500,677,176,-586,161,430,-752,-1013,-974,676,1466,1571
554,605,44,-580,257,328,-854,-1055,-1010,772,1640,1721
560,401,-159,-484,359,118,-926,-1013,-1004,784,1628,1715
524,209,-315,-364,425,-49,-980,-1013,-1016,628,1418,1553
488,113,-369,-298,431,-121,-1034,-1097,-1094,346,1046,1295
428,101,-321,-262,377,-103,-1088,-1199,-1196,95,716,1055
308,113,-195,-214,257,-31,-1106,-1373,-1346,-205,368,785
158,77,-75,-118,119,4,-1076,-1541,-1532,-595,-45,449
56,29,-21,-40,41,4,-980,-1529,-1526,-865,-381,161
32,-36,-75,-5,53,-55,-842,-1355,-1352,-889,-501,-18
21,-126,-141,49,71,-133,-722,-1151,-1142,-769,-507,-144
15,-180,-189,79,95,-187,-608,-959,-932,-631,-507,-216
-3,-204,-195,103,89,-199,-494,-791,-740,-523,-471,-240
-27,-210,-177,115,65,-193,-380,-617,-542,-391,-423,-216
-21,-198,-171,109,65,-187,-248,-425,-338,-259,-375,-180
-9,-162,-147,85,59,-157,-146,-287,-212,-151,-315,-162
-21,-144,-117,79,41,-133,-92,-221,-128,-79,-285,-132
-27,-144,-111,85,35,-127,-50,-149,-56,-13,-255,-108
-27,-138,-105,79,29,-121,-33,-113,-14,23,-231,-96
-15,-132,-111,73,41,-121,-33,-113,-3,29,-237,-102
-33,-126,-87,79,17,-109,-33,-125,-8,23,-237,-114
-51,-126,-69,85,12,-97,-33,-125,-8,23,-237,-114
-63,-90,-21,73,-18,-55,-33,-137,-8,5,-237,-114
-51,-78,-21,61,-12,-49,-33,-131,-8,5,-237,-126
-57,-78,-15,67,-18,-49,-33,-101,-3,17,-249,-126
-57,-66,-10,61,-24,-37,-9,-89,21,23,-255,-132
-57,-78,-15,67,-18,-49,3,-77,39,23,-255,-132
-57,-84,-21,67,-12,-55,9,-65,45,35,-243,-132
-57,-102,-39,79,-6,-73,15,-59,57,47,-237,-126
-57,-102,-39,79,-6,-73,15,-59,57,47,-231,-132
-57,-108,-45,79,0,-79,9,-65,57,53,-225,-126
-51,-108,-51,79,6,-79,9,-71,57,53,-225,-126
-51,-96,-39,73,0,-67,3,-65,57,59,-213,-120
-57,-96,-33,73,-6,-67,3,-65,57,59,-213,-120
-57,-96,-33,73,-6,-67,3,-59,63,65,-207,-114
-57,-90,-27,73,-12,-61,9,-59,69,71,-207,-114
-45,-84,-33,61,0,-61,9,-53,75,83,-213,-120
-45,-84,-33,61,0,-61,15,-47,81,83,-207,-120
-39,-78,-33,55,0,-55,15,-53,87,83,-213,-126
-39,-78,-33,55,0,-55,15,-53,87,83,-213,-132
-39,-78,-33,55,0,-55,9,-47,81,89,-213,-132
-39,-78,-33,55,0,-55,9,-47,81,89,-213,-132
-39,-78,-33,55,0,-55,3,-47,75,95,-213,-132
-39,-78,-33,55,0,-55,3,-47,75,95,-213,-132
-33,-78,-39,55,6,-61,9,-47,87,100,-201,-126
-33,-72,-33,49,6,-55,9,-47,87,100,-201,-126
-33,-72,-33,49,6,-55,15,-42,99,100,-189,-120
-33,-72,-33,49,6,-55,15,-42,105,106,-189,-120
-33,-78,-39,55,6,-61,9,-42,111,100,-189,-126
-33,-84,-45,55,12,-67,9,-42,111,100,-189,-126
-33,-90,-51,61,12,-73,3,-42,123,100,-195,-132
-33,-96,-57,61,17,-79,3,-36,123,100,-189,-132
-33,-84,-45,55,12,-67,-9,-42,117,100,-183,-126
-27,-78,-45,49,12,-61,-9,-42,111,100,-183,-126
-27,-66,-33,43,6,-49,-15,-42,105,100,-183,-126
-27,-60,-27,43,6,-43,-15,-42,105,100,-183,-126
-27,-60,-27,43,6,-43,-9,-42,111,106,-177,-114
-27,-66,-33,43,6,-49,-9,-36,117,112,-177,-114
-21,-72,-45,43,17,-61,-3,-24,123,118,-171,-108
-21,-78,-51,49,17,-67,-9,-12,123,124,-171,-108
-21,-84,-57,49,17,-73,-3,-12,135,124,-165,-102
-21,-84,-57,49,17,-73,-3,-12,135,124,-165,-90
-21,-84,-57,49,17,-73,3,-6,147,118,-153,-84
-21,-84,-57,49,17,-73,3,0,147,124,-147,-78
-21,-78,-51,49,17,-67,3,0,153,130,-147,-72
-21,-78,-51,49,17,-67,-3,6,159,130,-141,-66
-27,-72,-39,49,12,-55,-3,6,153,142,-141,-66
-21,-72,-45,43,17,-61,-3,6,159,142,-141,-66
-21,-66,-39,43,12,-55,-3,6,177,148,-135,-54
-15,-66,-45,37,17,-55,-3,18,177,148,-129,-54
-15,-66,-45,37,17,-55,-3,18,189,154,-123,-48
-9,-66,-51,37,17,-61,-3,18,189,166,-117,-42
-3,-66,-57,31,17,-61,3,30,201,178,-111,-42
-3,-66,-57,31,17,-61,3,42,213,184,-105,-36
3,-72,-69,31,29,-73,3,54,219,196,-99,-30
3,-66,-63,31,23,-67,3,60,225,202,-93,-24
9,-66,-69,25,29,-67,3,66,231,202,-87,-12
9,-66,-69,25,29,-67,-3,72,237,214,-81,-6
9,-60,-63,25,29,-61,-3,78,237,220,-75,6
21,-60,-75,19,41,-67,-9,84,237,226,-63,12
26,-54,-75,13,41,-67,-15,102,255,238,-51,18
26,-54,-81,7,47,-67,-15,102,267,250,-45,24
26,-48,-75,7,47,-61,-21,114,285,262,-33,24
26,-42,-75,1,47,-55,-27,126,303,280,-21,42
38,-30,-75,-11,53,-49,-21,132,309,286,-15,60
38,-30,-75,-11,53,-49,-21,144,315,304,3,66
50,-30,-87,-17,65,-55,-27,156,327,322,15,84
56,-30,-93,-23,71,-61,-27,168,345,334,27,95
62,-24,-93,-23,77,-55,-33,180,345,340,32,101
68,-18,-93,-23,77,-55,-33,180,363,340,38,113
80,-18,-105,-23,89,-61,-33,198,363,364,50,131
86,-12,-105,-28,95,-55,-33,204,375,370,56,143
98,-6,-111,-40,101,-55,-33,210,387,388,74,155
104,-6,-117,-40,107,-61,-33,228,399,394,92,173
110,-12,-129,-40,119,-67,-33,240,411,418,110,185
122,0,-129,-52,125,-61,-38,246,423,418,122,197
128,0,-135,-58,131,-67,-44,252,435,436,146,215
140,12,-135,-70,137,-61,-50,258,441,442,158,233
146,12,-141,-70,143,-61,-50,264,453,454,170,251
152,17,-141,-76,143,-61,-62,270,453,460,182,269
158,17,-141,-82,149,-55,-62,270,453,460,176,275
164,17,-141,-88,155,-55,-68,270,453,466,188,275
170,23,-141,-94,155,-49,-74,276,453,466,188,281
176,29,-141,-100,161,-49,-80,276,459,466,194,281
170,35,-129,-100,149,-37,-86,270,459,478,206,281
170,41,-123,-106,149,-31,-86,276,459,478,212,293
176,41,-129,-106,155,-37,-92,270,453,484,218,293
176,41,-129,-106,155,-37,-98,270,453,484,230,299
176,47,-123,-112,149,-31,-104,270,453,484,236,299
182,59,-117,-118,149,-19,-104,270,441,484,236,305
182,65,-111,-124,149,-13,-110,276,441,484,236,299
182,65,-111,-124,149,-13,-110,264,435,478,236,299
176,65,-105,-118,143,-13,-110,264,429,472,236,305
176,65,-105,-118,143,-13,-110,258,423,466,236,305
170,59,-105,-112,137,-13,-110,246,411,460,236,305
164,65,-93,-112,131,-7,-110,234,399,442,224,299
158,65,-87,-112,125,-1,-110,210,387,430,200,275
152,65,-81,-106,119,-1,-110,198,369,424,182,251
146,65,-75,-106,113,4,-104,180,351,400,164,233
134,65,-63,-100,101,4,-98,168,345,388,146,209
116,59,-51,-88,83,4,-92,150,327,370,122,185
104,53,-45,-76,77,4,-86,144,309,358,110,167
92,53,-33,-70,65,4,-80,132,291,340,86,149
86,47,-33,-64,59,4,-68,120,279,328,68,137
80,41,-33,-58,59,4,-62,102,261,304,44,113
68,35,-27,-52,47,4,-56,84,237,298,32,95
62,29,-27,-46,47,4,-50,66,225,280,15,84
50,17,-27,-34,41,4,-44,54,213,262,-3,60
38,17,-27,-23,29,-1,-33,30,189,244,-27,48
26,12,-21,-23,23,-1,-33,24,183,232,-45,30
26,6,-21,-23,17,-7,-33,6,165,214,-63,12
26,0,-21,-17,17,-13,-21,-6,153,202,-75,-6
15,0,-10,-11,17,-7,-21,-18,141,190,-93,-24
3,0,-10,-5,6,-1,-15,-24,123,178,-111,-30
3,0,-10,-5,6,-1,-15,-42,111,166,-117,-36
-3,-6,-10,1,0,-1,-15,-42,93,154,-135,-48
-3,-12,-10,7,6,-7,-15,-42,99,154,-135,-54
-9,-18,-10,13,0,-13,-9,-47,93,148,-141,-72
-9,-24,-10,13,6,-19,-9,-42,87,142,-147,-66
-15,-30,-10,19,0,-19,-3,-47,81,136,-147,-72
-21,-30,-10,25,-6,-19,-3,-53,69,130,-165,-78
-27,-30,-10,25,-12,-13,-3,-59,63,124,-171,-84
-27,-30,-10,25,-12,-13,3,-65,51,118,-183,-90
-27,-36,-10,31,-6,-19,3,-65,51,118,-189,-96
