,,,,,,,,,,,
2019-09-01 15:35:31,,,,,,,,,,,
,,,,,,,,,,,
I,II,III,aVR,aVL,aVF,V1,V2,V3,V4,V5,V6
421,307,-65,-364,243,72,-3,-286,-521,-58,-120,-377
67,-22,-71,-28,117,-29,-3,-172,-263,-58,-120,-155
25,-82,-89,19,99,-77,-3,-142,-215,-52,-120,-89
13,-100,-95,37,87,-89,-3,-124,-185,-52,-120,-71
7,-106,-95,43,81,-89,-3,-118,-173,-52,-120,-65
1,-112,-95,49,69,-89,-3,-112,-161,-52,-120,-65
-10,-118,-95,61,57,-95,-3,-100,-149,-52,-120,-65
-10,-124,-95,67,51,-101,2,-88,-137,-46,-114,-65
-10,-124,-95,67,51,-101,2,-82,-125,-40,-108,-65
-10,-124,-95,67,45,-101,2,-82,-119,-34,-108,-65
-10,-124,-95,67,45,-101,2,-82,-119,-34,-108,-65
-10,-130,-95,73,45,-107,2,-76,-119,-28,-102,-59
-16,-130,-95,73,45,-107,2,-70,-113,-22,-96,-53
-16,-130,-95,73,45,-107,2,-70,-113,-16,-90,-41
-16,-124,-95,73,45,-107,2,-70,-107,-10,-84,-35
-16,-124,-95,73,45,-107,2,-64,-101,-4,-84,-29
-16,-124,-95,73,45,-107,8,-64,-95,1,-84,-29
-22,-124,-89,73,39,-101,14,-58,-89,1,-84,-29
-28,-124,-89,73,33,-101,14,-52,-83,1,-84,-29
-28,-124,-89,73,33,-101,14,-46,-77,1,-84,-29
-28,-124,-89,73,33,-101,14,-40,-71,1,-84,-29
-28,-124,-89,73,33,-101,20,-40,-71,1,-84,-29
-28,-124,-89,73,33,-101,20,-40,-65,1,-84,-29
-28,-124,-89,73,33,-101,20,-40,-65,1,-84,-29
-28,-124,-89,73,33,-101,20,-40,-59,1,-78,-29
-28,-118,-89,73,33,-101,20,-34,-53,7,-72,-29
-22,-112,-89,67,33,-95,20,-34,-47,7,-72,-29
-22,-106,-89,67,33,-89,20,-34,-47,7,-72,-29
-22,-100,-83,67,33,-89,20,-34,-41,7,-72,-29
-22,-100,-77,67,33,-89,20,-28,-35,7,-72,-29
-22,-100,-77,67,33,-89,26,-22,-29,7,-66,-29
-16,-100,-77,61,33,-89,32,-16,-29,7,-60,-29
-10,-94,-77,55,33,-89,32,-10,-29,7,-54,-29
-10,-94,-77,55,33,-83,32,-4,-29,13,-48,-23
-10,-94,-71,55,27,-77,32,1,-23,19,-48,-17
-10,-94,-71,55,27,-77,32,7,-17,25,-48,-17
-10,-94,-77,49,27,-77,38,13,-17,25,-48,-17
-10,-94,-77,49,27,-77,38,19,-17,25,-48,-17
-10,-88,-77,43,27,-77,38,25,-11,31,-42,-11
-10,-88,-77,43,27,-77,44,31,-5,37,-30,-5
-10,-88,-71,43,27,-77,50,37,-5,37,-30,-5
-10,-82,-71,43,27,-77,50,43,-5,37,-30,-5
-10,-82,-71,43,27,-77,50,49,0,37,-30,-5
-10,-76,-71,43,27,-77,56,55,6,37,-24,-5
-10,-70,-65,43,27,-71,56,61,12,37,-24,-5
-10,-64,-59,37,27,-59,56,67,12,37,-24,-5
-10,-64,-59,37,27,-59,56,79,18,37,-24,-5
-10,-64,-59,37,27,-59,62,85,24,43,-24,-5
-4,-64,-59,37,27,-59,62,91,30,43,-24,-5
1,-64,-59,31,33,-59,62,97,30,43,-24,-5
1,-58,-59,25,33,-59,62,103,36,49,-24,-5
1,-52,-47,25,33,-47,62,115,42,55,-18,0
1,-46,-47,25,33,-41,62,127,48,61,-12,6
1,-40,-47,25,33,-41,62,133,60,67,-6,6
1,-34,-47,25,33,-35,68,139,72,73,-6,6
1,-34,-47,25,33,-35,68,145,78,79,-6,6
1,-34,-47,19,33,-29,68,157,90,85,-1,12
1,-28,-47,13,33,-23,68,163,102,97,11,18
1,-22,-41,13,27,-17,68,169,108,103,17,18
1,-22,-41,13,27,-17,68,175,120,109,23,18
1,-22,-41,13,27,-17,68,187,132,115,23,24
1,-22,-41,7,27,-17,68,199,138,121,29,30
7,-22,-41,1,27,-17,68,205,144,127,35,36
13,-10,-35,-5,27,-11,68,211,156,133,41,42
13,1,-23,-10,27,0,68,217,168,139,53,48
19,13,-17,-16,21,6,68,223,180,145,59,54
25,19,-17,-22,21,12,68,229,186,151,65,60
31,25,-17,-28,21,18,68,235,198,151,65,60
31,31,-11,-34,21,18,68,247,210,151,71,60
31,37,-5,-40,21,24,68,259,222,157,77,60
31,49,6,-46,21,36,68,271,234,169,83,66
31,61,12,-52,21,42,68,283,240,175,89,72
37,73,18,-58,21,48,68,289,252,181,89,72
43,79,18,-64,21,54,68,295,264,187,89,72
49,85,18,-70,21,60,68,301,276,193,89,72
49,97,24,-76,21,72,68,307,288,199,95,78
49,103,30,-82,21,78,68,313,300,205,107,90
55,109,36,-88,21,84,68,325,318,211,119,96
67,115,42,-94,21,90,68,331,336,217,125,102
79,121,42,-100,21,90,68,343,348,229,131,108
85,127,42,-106,21,90,68,349,360,235,137,108
85,139,48,-118,21,102,68,355,366,241,143,108
85,151,60,-124,21,108,68,361,378,247,155,114
91,163,60,-130,21,108,68,367,390,259,167,126
97,163,60,-130,21,108,68,373,396,265,173,132
97,169,60,-130,21,108,68,373,402,271,173,138
97,175,60,-136,21,114,68,373,408,277,173,138
97,175,66,-136,21,114,68,373,408,283,179,144
97,175,66,-136,21,114,68,373,414,289,191,150
103,175,66,-136,21,114,62,373,414,289,191,156
103,175,66,-136,21,120,56,373,414,289,191,156
103,175,78,-136,15,126,56,373,420,295,191,156
103,175,84,-136,15,126,56,373,420,301,197,156
103,175,84,-136,15,126,56,373,426,301,203,156
103,187,84,-142,15,132,50,373,426,301,203,156
103,199,84,-154,15,144,44,373,426,301,203,162
103,199,84,-154,15,144,38,373,432,307,215,168
103,199,84,-154,15,144,38,373,432,307,221,174
103,205,84,-154,15,144,32,373,432,307,221,174
103,211,90,-154,15,150,26,373,432,307,221,174
103,211,96,-160,15,156,26,373,432,307,221,174
109,211,96,-160,15,156,20,367,432,307,221,174
109,211,96,-160,15,156,20,361,432,307,221,174
109,211,102,-160,15,156,20,355,432,307,221,174
109,211,108,-160,15,156,20,349,426,307,221,174
109,217,114,-160,9,162,14,337,420,307,215,174
109,223,126,-160,3,168,14,325,408,301,209,174
109,223,126,-160,-3,168,8,313,396,295,203,168
109,223,126,-160,-3,168,8,301,366,289,197,168
109,223,126,-160,-3,168,8,289,348,283,191,162
103,223,126,-160,-3,168,8,271,330,271,179,156
97,223,126,-154,-8,168,8,253,318,259,167,150
91,217,126,-148,-14,168,8,241,300,247,161,144
85,211,126,-148,-14,168,8,229,276,235,149,132
85,205,126,-148,-14,162,8,217,252,223,137,126
85,193,120,-142,-14,156,8,199,228,211,131,120
79,181,120,-130,-14,150,8,181,210,199,119,114
73,169,120,-118,-14,144,8,151,180,187,107,102
61,163,120,-106,-20,144,8,139,150,163,95,90
43,157,120,-94,-26,138,8,115,126,145,83,78
31,139,120,-82,-32,132,8,103,108,133,71,66
19,127,120,-76,-38,126,8,91,84,121,59,54
13,121,120,-70,-44,126,8,73,72,97,47,48
13,115,120,-70,-44,120,8,61,48,85,41,42
13,109,108,-70,-44,108,8,49,30,79,35,36
13,97,96,-64,-44,96,8,37,18,67,23,30
7,91,96,-52,-44,90,8,25,6,55,11,30
-4,79,96,-40,-50,84,8,13,-17,43,11,24
-16,61,90,-28,-50,72,8,-4,-41,31,5,18
-16,49,78,-22,-50,60,8,-28,-59,19,-6,6
-16,43,66,-22,-44,54,2,-40,-71,7,-24,-5
-16,37,60,-22,-44,48,2,-52,-77,-4,-36,-17
-22,31,60,-10,-44,48,2,-58,-83,-10,-42,-23
-34,19,60,1,-50,42,2,-58,-83,-16,-48,-23
-40,7,60,13,-50,36,2,-64,-89,-22,-48,-29
-46,1,60,13,-50,36,2,-70,-95,-34,-60,-41
-52,1,60,13,-56,36,2,-76,-101,-46,-72,-53
-52,1,60,13,-56,36,2,-76,-113,-52,-78,-59
-52,1,60,13,-50,36,2,-76,-113,-52,-78,-59
-46,1,54,13,-50,36,2,-76,-113,-52,-78,-59
-46,1,54,13,-50,36,2,-76,-113,-52,-78,-59
-46,1,54,13,-50,30,2,-76,-119,-52,-78,-59
-46,1,54,13,-50,30,2,-76,-119,-52,-78,-59
-46,1,54,13,-50,30,2,-76,-119,-52,-78,-59
-46,1,48,13,-50,30,2,-76,-119,-52,-78,-59
-46,-4,42,19,-50,24,2,-76,-119,-52,-78,-59
-46,-10,36,25,-50,18,2,-76,-119,-52,-78,-59
-46,-16,36,25,-50,18,2,-76,-119,-52,-78,-59
-46,-16,36,25,-50,18,2,-76,-119,-52,-78,-59
-46,-22,30,25,-50,12,2,-76,-119,-52,-78,-59
-46,-22,30,25,-50,6,2,-76,-119,-58,-78,-59
-46,-22,30,25,-50,6,2,-76,-119,-58,-84,-59
-46,-22,30,25,-50,6,8,-76,-119,-58,-84,-59
-46,-22,30,25,-50,6,14,-70,-119,-58,-84,-59
-46,-16,36,25,-50,12,14,-70,-119,-64,-84,-65
-46,-10,42,25,-50,18,14,-70,-119,-64,-84,-65
-46,-16,42,31,-50,18,14,-64,-119,-64,-84,-65
-46,-22,36,31,-44,12,20,-58,-119,-64,-84,-65
-46,-22,36,31,-44,12,20,-52,-119,-64,-84,-65
-46,-16,36,31,-44,12,20,-52,-119,-64,-84,-65
-46,-16,30,31,-38,6,20,-52,-113,-64,-84,-65
-46,-22,24,31,-38,0,20,-52,-113,-64,-84,-65
-46,-28,12,31,-32,-5,20,-52,-113,-64,-84,-65
-46,-34,6,31,-32,-11,26,-46,-113,-64,-84,-65
-46,-34,6,31,-32,-11,26,-46,-113,-64,-84,-65
-46,-34,6,31,-32,-11,26,-46,-113,-64,-84,-65
-46,-34,6,31,-32,-11,26,-46,-107,-64,-78,-65
-46,-34,6,31,-32,-11,26,-46,-107,-64,-78,-65
-40,-34,6,31,-26,-11,26,-46,-107,-64,-78,-65
-40,-34,6,31,-26,-11,26,-46,-107,-64,-78,-65
-40,-34,6,31,-26,-11,26,-46,-107,-64,-78,-65
-40,-34,6,31,-26,-11,26,-46,-107,-64,-78,-59
-34,-34,6,31,-20,-11,26,-46,-107,-64,-78,-59
-34,-34,0,31,-14,-11,32,-46,-107,-64,-78,-59
-34,-34,0,31,-14,-11,32,-46,-107,-64,-78,-59
-34,-34,0,31,-8,-11,32,-46,-107,-64,-78,-59
-34,-34,0,31,-8,-11,32,-46,-107,-64,-78,-59
-34,-34,0,31,-8,-11,32,-46,-107,-64,-78,-59
-34,-34,0,31,-14,-11,32,-46,-107,-64,-78,-59
-34,-34,0,31,-14,-17,32,-52,-107,-64,-78,-59
-40,-34,0,31,-14,-23,32,-58,-107,-64,-78,-59
-40,-34,0,31,-14,-23,32,-58,-107,-64,-78,-59
-40,-34,0,31,-14,-23,32,-58,-107,-64,-78,-59
-40,-34,0,31,-14,-23,32,-58,-107,-64,-78,-59
-46,-40,0,37,-14,-23,32,-58,-107,-64,-78,-59
-52,-52,0,49,-14,-23,26,-64,-107,-70,-78,-59
-52,-52,0,49,-14,-23,26,-70,-107,-70,-78,-59
-46,-52,0,43,-14,-23,26,-76,-107,-70,-78,-59
-34,-52,-5,37,-8,-23,26,-76,-107,-70,-78,-59
-34,-52,-11,37,-8,-23,26,-76,-107,-70,-78,-59
-34,-52,-11,37,-8,-23,26,-76,-107,-70,-78,-59
-34,-52,-11,37,-8,-23,26,-76,-107,-70,-78,-59
-34,-52,-11,37,-8,-23,26,-76,-107,-70,-78,-59
-34,-52,-11,37,-8,-23,26,-76,-107,-70,-78,-59
-34,-52,-11,37,-8,-23,26,-76,-107,-70,-78,-59
-34,-52,-11,37,-8,-23,26,-76,-107,-70,-78,-59
-34,-52,-11,37,-8,-23,20,-76,-107,-70,-78,-59
-34,-52,-11,37,-8,-23,20,-76,-107,-70,-78,-59
-34,-52,-11,37,-8,-23,20,-76,-107,-70,-78,-59
-34,-52,-5,37,-14,-23,20,-82,-107,-70,-78,-59
-34,-52,-5,37,-14,-23,20,-82,-107,-70,-78,-59
-34,-52,-5,37,-14,-29,20,-82,-107,-70,-78,-65
-34,-52,-5,37,-14,-29,20,-88,-113,-70,-78,-71
-34,-46,-5,37,-14,-29,20,-94,-119,-76,-84,-71
-34,-46,-5,37,-14,-29,20,-94,-119,-82,-90,-71
-34,-46,-5,37,-14,-29,20,-94,-119,-88,-90,-71
-34,-46,-5,37,-14,-29,20,-94,-119,-88,-90,-71
-34,-46,-5,37,-14,-29,20,-94,-119,-88,-90,-71
-34,-46,-5,37,-14,-29,20,-100,-125,-88,-90,-71
-34,-46,-5,37,-14,-29,14,-100,-131,-88,-90,-71
-28,-46,-11,37,-8,-29,14,-100,-131,-88,-90,-71
-28,-46,-11,37,-8,-29,14,-100,-131,-88,-90,-71
-28,-46,-11,37,-8,-29,14,-100,-131,-82,-90,-65
-34,-40,0,37,-20,-23,20,-100,-125,-76,-84,-59
-34,-34,6,37,-26,-17,26,-94,-125,-76,-78,-59
-34,-28,6,37,-26,-17,26,-94,-125,-76,-72,-59
-34,-22,6,31,-26,-11,32,-88,-119,-76,-66,-59
-34,-16,6,25,-26,-5,38,-82,-119,-76,-66,-59
-34,-16,12,25,-26,-5,44,-76,-119,-70,-66,-59
-34,-16,24,25,-32,0,44,-70,-113,-70,-66,-53
-34,-10,30,25,-38,6,50,-70,-113,-70,-66,-53
-34,-4,36,25,-38,12,56,-64,-113,-70,-66,-53
-34,1,42,25,-38,12,62,-58,-107,-64,-60,-47
-34,1,42,25,-38,12,68,-58,-101,-58,-54,-35
-34,7,48,25,-38,12,68,-58,-101,-52,-48,-29
-34,19,54,19,-38,24,68,-58,-101,-46,-48,-29
-34,31,60,7,-38,36,74,-52,-101,-40,-48,-23
-34,43,72,1,-44,48,80,-46,-95,-34,-42,-11
-34,49,84,-5,-56,60,86,-34,-83,-22,-30,-5
-34,55,90,-10,-56,66,92,-28,-77,-10,-18,6
-34,55,90,-16,-56,72,92,-28,-77,-4,-12,6
-34,61,102,-22,-62,84,92,-28,-77,-4,-12,6
-34,85,120,-28,-68,102,92,-28,-77,-4,-6,12
-34,103,132,-40,-68,114,92,-28,-77,1,-1,24
-34,109,138,-40,-74,120,92,-28,-77,1,5,24
-34,109,144,-40,-80,126,86,-34,-77,1,5,24
-34,115,150,-40,-80,126,80,-40,-77,1,5,24
-28,121,150,-46,-80,132,74,-46,-77,1,5,24
-22,127,150,-52,-80,138,68,-46,-77,1,5,24
-22,133,150,-52,-80,138,68,-46,-77,7,11,30
-22,133,150,-52,-80,138,68,-46,-77,7,11,30
-22,133,144,-52,-80,138,62,-52,-77,7,11,30
-22,127,132,-52,-74,126,56,-52,-77,1,5,30
-22,103,108,-46,-68,108,56,-52,-77,-4,-1,24
-22,73,96,-34,-62,90,56,-52,-83,-10,-6,12
-28,49,84,-5,-62,78,56,-58,-83,-16,-12,6
-34,31,78,7,-62,60,50,-64,-89,-28,-18,0
-40,19,72,13,-62,48,50,-70,-95,-34,-24,-5
-40,7,66,19,-62,36,50,-76,-101,-40,-30,-17
-40,-4,54,25,-56,24,44,-82,-113,-52,-42,-29
-40,-16,42,31,-50,6,38,-94,-125,-64,-54,-41
-46,-34,18,37,-44,-11,32,-100,-137,-70,-60,-47
-46,-46,6,43,-44,-23,26,-106,-143,-76,-60,-53
-46,-52,0,49,-38,-29,20,-106,-149,-76,-66,-59
-46,-58,-5,49,-26,-35,14,-106,-155,-82,-72,-59
-46,-70,-17,49,-20,-41,14,-112,-155,-88,-72,-65
-46,-82,-23,55,-14,-47,14,-112,-155,-94,-78,-65
-46,-82,-23,55,-14,-53,8,-112,-161,-100,-84,-71
-52,-82,-23,61,-14,-53,2,-118,-167,-100,-90,-83
-64,-82,-23,67,-20,-53,-3,-124,-173,-106,-108,-89
-64,-82,-23,67,-20,-53,-3,-124,-173,-112,-114,-95
-64,-82,-29,67,-20,-59,-3,-124,-173,-112,-114,-95
-64,-82,-29,67,-20,-59,-9,-124,-173,-112,-114,-95
-64,-82,-29,67,-20,-59,-9,-130,-179,-118,-114,-95
-64,-82,-23,67,-20,-59,-15,-136,-179,-118,-114,-95
-64,-82,-23,67,-20,-59,-15,-136,-179,-118,-114,-95
-64,-88,-29,67,-14,-59,-15,-136,-179,-118,-114,-95
-64,-94,-41,67,-8,-65,-15,-136,-179,-118,-114,-95
-64,-94,-47,67,-8,-65,-15,-142,-185,-118,-114,-101
-64,-94,-53,67,-8,-65,-15,-142,-185,-118,-114,-101
-58,-94,-59,67,-8,-65,-15,-142,-185,-118,-114,-101
-52,-100,-65,67,-3,-65,-15,-142,-185,-118,-114,-101
-52,-100,-65,67,-3,-71,-15,-142,-185,-118,-114,-101
-52,-100,-59,67,-3,-71,-15,-142,-185,-118,-114,-101
-52,-100,-59,67,-3,-71,-15,-142,-185,-118,-114,-101
-52,-100,-59,67,3,-77,-15,-142,-185,-118,-114,-101
-52,-106,-65,67,9,-89,-15,-142,-185,-118,-114,-101
-46,-112,-71,67,15,-95,-15,-142,-185,-118,-114,-101
-40,-112,-77,67,21,-95,-15,-142,-185,-118,-114,-101
-40,-118,-77,73,21,-95,-15,-142,-185,-118,-114,-101
-40,-124,-83,73,21,-95,-15,-142,-191,-118,-114,-101
-40,-124,-83,73,21,-95,-15,-142,-197,-118,-114,-101
-46,-124,-77,79,15,-95,-15,-148,-197,-118,-114,-101
-52,-124,-71,79,9,-95,-15,-148,-197,-118,-114,-101
-52,-124,-71,79,9,-95,-15,-148,-197,-118,-114,-101
-52,-124,-71,79,9,-95,-15,-148,-197,-118,-114,-95
-52,-124,-71,79,9,-95,-15,-148,-197,-118,-114,-95
-52,-124,-71,79,9,-95,-21,-148,-197,-118,-114,-95
-52,-118,-71,79,9,-95,-21,-148,-197,-118,-114,-95
-46,-118,-71,79,9,-95,-21,-148,-197,-118,-114,-95
-46,-118,-71,79,15,-95,-21,-148,-197,-118,-114,-95
-46,-118,-71,79,15,-95,-21,-148,-197,-118,-114,-95
-52,-118,-71,79,9,-89,-21,-148,-197,-118,-114,-95
-58,-118,-65,79,3,-89,-21,-148,-197,-118,-114,-95
-58,-118,-65,79,3,-89,-21,-142,-197,-118,-114,-95
-58,-118,-65,79,3,-89,-15,-136,-197,-124,-120,-101
-64,-112,-59,79,-3,-83,-3,-124,-197,-130,-132,-113
-76,-112,-53,91,-8,-83,26,-94,-197,-136,-138,-113
-76,-118,-53,97,-8,-83,68,-52,-197,-142,-138,-119
-76,-118,-53,97,-8,-83,86,-10,-197,-142,-144,-125
-70,-112,-47,91,-8,-77,116,31,-191,-142,-144,-125
-58,-106,-47,85,-8,-71,146,91,-161,-136,-138,-125
-28,-88,-47,61,-3,-65,188,157,-107,-112,-114,-113
1,-22,-41,19,3,-35,242,229,-11,-28,-30,-71
37,91,-5,-58,3,36,278,271,126,115,107,42
85,247,96,-166,3,156,278,271,252,283,269,180
127,439,246,-286,-20,336,236,97,318,445,425,330
157,619,414,-388,-74,510,68,-214,354,595,575,480
175,751,546,-454,-134,642,-123,-574,372,715,701,612
175,853,666,-490,-194,762,-357,-922,390,799,803,702
181,937,738,-538,-230,840,-645,-1210,426,889,911,798
199,979,756,-586,-236,870,-945,-1420,480,943,953,852
223,961,702,-586,-224,846,-1161,-1480,558,943,953,852
229,685,438,-502,-122,564,-1221,-1468,600,841,845,750
217,349,150,-304,-14,246,-1209,-1378,594,571,575,492
157,55,-77,-118,51,-5,-1119,-1360,342,247,257,246
73,-148,-179,25,75,-167,-1071,-1384,-83,-70,-18,48
-10,-256,-209,127,75,-233,-1029,-1426,-473,-286,-186,-83
-46,-322,-239,181,81,-281,-981,-1426,-683,-382,-264,-143
-58,-364,-269,205,93,-323,-909,-1336,-731,-406,-294,-185
-58,-376,-287,211,105,-335,-825,-1174,-731,-412,-306,-221
-52,-382,-317,211,123,-347,-729,-1018,-683,-412,-312,-245
-46,-382,-329,211,135,-353,-615,-844,-605,-406,-312,-251
-46,-382,-335,211,141,-359,-531,-700,-521,-394,-306,-251
-40,-382,-341,205,147,-359,-441,-586,-449,-364,-294,-245
-28,-370,-347,193,153,-359,-375,-496,-395,-334,-282,-239
-16,-328,-341,169,153,-341,-327,-424,-353,-304,-270,-233
-10,-292,-311,145,153,-305,-285,-370,-323,-280,-252,-233
-10,-262,-275,133,141,-269,-243,-322,-293,-262,-234,-227
-10,-244,-233,127,129,-239,-195,-286,-275,-250,-222,-215
-10,-232,-203,127,117,-215,-159,-244,-263,-238,-204,-203
-10,-202,-173,121,99,-185,-141,-220,-245,-226,-192,-191
-10,-172,-155,109,87,-161,-117,-190,-233,-220,-186,-179
-10,-160,-143,103,75,-149,-99,-154,-209,-208,-174,-167
-16,-148,-125,97,63,-131,-81,-124,-191,-196,-162,-149
-22,-136,-107,91,45,-119,-69,-106,-173,-184,-150,-137
-28,-124,-95,85,33,-107,-63,-94,-155,-178,-144,-125
-28,-118,-89,85,27,-101,-57,-88,-143,-172,-132,-119
-22,-106,-89,79,27,-101,-45,-76,-131,-160,-120,-113
-16,-94,-83,67,27,-89,-33,-64,-125,-148,-108,-107
-16,-82,-77,61,27,-83,-21,-52,-119,-142,-108,-107
-16,-82,-71,61,27,-77,-15,-52,-113,-142,-108,-107
-16,-82,-65,55,27,-71,-9,-46,-113,-142,-108,-107
-16,-82,-65,55,27,-71,-9,-46,-113,-142,-108,-107
-16,-82,-65,55,27,-71,-9,-46,-113,-142,-108,-107
-16,-82,-65,55,27,-71,-9,-46,-107,-142,-108,-107
-16,-76,-59,55,21,-65,-9,-40,-101,-136,-108,-101
-16,-70,-53,55,15,-59,-9,-34,-95,-136,-108,-95
-16,-70,-53,49,15,-59,-3,-28,-89,-130,-102,-95
-16,-64,-47,43,15,-53,2,-28,-83,-124,-96,-89
-16,-58,-41,37,15,-47,8,-22,-83,-124,-96,-89
-16,-52,-35,37,15,-47,8,-22,-77,-118,-96,-83
-16,-52,-35,37,15,-41,14,-22,-77,-118,-90,-83
-16,-46,-35,31,15,-41,14,-22,-71,-112,-84,-83
-16,-40,-29,31,15,-41,14,-16,-71,-106,-78,-77
-16,-34,-29,31,15,-35,14,-10,-71,-106,-78,-77
-16,-34,-29,31,15,-35,14,-10,-71,-106,-78,-77
-16,-34,-29,31,15,-35,14,-10,-71,-106,-78,-77
-16,-34,-29,25,15,-35,14,-10,-71,-106,-78,-77
-16,-34,-29,25,15,-35,14,-4,-65,-106,-78,-77
-16,-34,-23,25,15,-29,14,1,-59,-106,-78,-77
-16,-34,-23,25,15,-29,14,7,-59,-106,-78,-77
-16,-34,-23,25,15,-29,14,7,-59,-106,-78,-77
-16,-34,-23,25,15,-29,14,7,-53,-106,-72,-77
-16,-34,-23,25,15,-29,14,13,-53,-106,-66,-77
-10,-34,-23,25,15,-29,14,19,-47,-106,-60,-71
-10,-34,-23,25,15,-29,14,25,-41,-106,-60,-71
-10,-34,-23,25,15,-29,20,31,-35,-106,-60,-71
-10,-28,-23,25,15,-29,20,37,-29,-100,-54,-71
-10,-22,-17,19,15,-23,20,43,-23,-100,-54,-65
-10,-22,-17,19,15,-23,26,55,-17,-100,-54,-59
-10,-22,-17,19,15,-23,26,61,-17,-100,-48,-53
-10,-10,-5,13,9,-11,32,67,-17,-94,-42,-53
-4,1,6,1,9,0,32,73,-17,-94,-42,-53
-4,7,12,1,9,6,32,79,-11,-88,-36,-53
-4,7,12,1,3,6,32,91,-5,-82,-36,-53
-4,7,12,1,3,6,32,97,-5,-82,-36,-53
-4,7,12,1,3,6,32,103,-5,-82,-30,-53
-4,13,12,1,3,12,38,109,0,-82,-30,-53
-4,19,12,1,3,12,38,115,6,-82,-24,-53
-4,19,12,1,3,12,38,121,12,-76,-24,-53
1,25,12,-5,3,12,38,121,18,-76,-24,-53
1,31,12,-10,3,12,38,121,18,-76,-24,-53
1,31,12,-10,3,12,38,127,24,-76,-24,-53
7,31,12,-10,3,12,44,139,30,-70,-24,-53
13,31,12,-10,3,12,44,151,36,-64,-18,-47
19,31,12,-16,3,18,44,163,42,-58,-12,-41
19,31,12,-22,3,18,44,169,42,-52,-12,-41
19,31,12,-22,3,18,44,175,48,-52,-12,-41
19,31,18,-22,3,24,44,181,54,-46,-12,-41
19,37,18,-28,3,30,44,187,60,-46,-12,-41
19,43,18,-28,3,30,44,193,72,-40,-12,-35
19,43,18,-28,3,30,44,199,84,-40,-6,-35
19,43,18,-28,3,30,50,205,96,-40,-6,-29
19,43,24,-28,3,30,56,217,108,-28,-1,-23
19,55,36,-28,-3,42,62,241,120,-16,17,-11
19,61,48,-34,-3,54,62,247,132,-4,23,0
25,67,48,-40,-3,60,62,253,138,1,29,6
31,67,48,-46,-3,60,62,259,144,7,35,12
37,79,48,-52,-3,60,62,265,156,13,41,18
37,85,48,-58,-3,66,62,277,168,25,53,24
37,91,48,-58,-3,66,68,283,186,37,65,30
43,91,48,-58,-3,66,68,289,198,43,71,30
43,91,48,-64,-3,66,68,289,210,49,71,30
49,97,48,-70,-3,66,68,295,222,49,71,30
55,103,48,-76,3,66,68,301,234,55,77,36
61,109,48,-82,9,66,68,313,246,67,83,48
61,109,48,-88,9,66,68,325,258,79,89,54
67,109,42,-88,15,66,68,337,276,91,101,60
73,109,24,-88,27,60,74,349,294,103,113,66
73,103,18,-88,27,60,80,361,312,115,125,78
73,103,18,-88,27,60,80,373,324,127,131,84
73,103,24,-88,27,60,80,379,336,133,143,96
79,109,24,-94,27,60,80,385,348,145,155,102
79,109,24,-94,33,60,80,391,366,157,167,108
79,109,24,-94,33,60,80,397,378,169,173,114
79,115,30,-100,33,66,80,403,384,175,173,120
85,121,36,-106,33,78,80,409,390,181,173,120
91,127,36,-112,33,84,80,409,396,187,179,126
97,133,36,-118,33,84,80,415,402,193,185,132
103,139,36,-124,33,84,80,415,408,193,185,132
103,145,36,-130,33,84,80,415,420,199,185,138
109,151,36,-136,33,90,80,415,426,205,191,138
115,157,36,-142,33,96,74,415,432,211,197,144
115,163,36,-142,33,96,74,421,444,217,209,156
115,163,36,-142,33,96,74,427,450,223,221,162
115,163,36,-142,33,96,74,433,456,229,227,168
115,163,42,-142,33,102,68,433,456,229,233,174
115,169,48,-142,33,108,62,433,456,235,239,180
115,169,48,-142,33,108,62,433,462,241,245,180
121,169,48,-142,33,108,56,433,462,241,245,180
127,169,48,-148,39,108,50,433,462,241,245,180
127,169,48,-154,39,108,50,433,462,241,245,186
127,175,48,-160,39,114,50,433,462,247,245,192
127,181,54,-160,39,114,44,433,462,253,251,198
127,181,54,-160,39,114,44,433,468,259,257,204
133,181,48,-160,45,114,44,433,468,259,257,204
139,187,48,-166,45,114,38,427,468,259,257,204
139,193,48,-166,45,120,32,427,468,259,257,204
139,193,48,-166,45,120,32,427,468,259,257,204
139,193,48,-166,45,120,32,427,468,259,257,204
133,193,54,-166,45,126,32,427,468,259,257,204
127,193,60,-166,39,132,32,427,468,259,257,204
127,193,60,-166,39,132,32,421,456,259,257,204
127,193,60,-160,39,132,32,409,444,253,251,204
121,187,60,-154,39,126,32,397,438,247,251,198
121,187,60,-154,39,126,32,385,414,241,245,198
115,187,60,-154,39,126,32,367,384,229,233,192
109,187,60,-148,33,126,32,331,360,217,221,180
103,175,60,-136,33,120,32,313,348,199,209,168
91,139,54,-118,33,108,32,307,324,187,203,162
73,127,54,-106,27,96,32,295,294,175,191,156
61,127,54,-100,15,96,32,277,270,163,167,144
55,127,54,-94,9,96,32,259,252,151,155,138
49,115,54,-82,9,90,32,235,240,139,149,132
43,103,54,-76,9,84,32,223,216,127,143,126
37,97,54,-70,3,78,32,199,186,115,137,120
31,85,54,-58,3,72,32,187,156,103,125,108
31,73,48,-52,3,66,38,163,132,91,113,96
25,61,42,-46,3,54,38,145,120,73,101,78
19,55,42,-40,3,48,44,133,90,55,89,66
13,49,36,-34,3,48,44,115,72,43,77,54
13,37,30,-28,3,36,44,97,54,31,59,48
13,19,18,-16,3,24,44,85,30,19,47,42
7,7,12,-10,3,12,44,73,12,1,35,30
1,-4,6,-5,3,6,44,61,-5,-10,23,24
1,-16,0,1,3,-5,44,49,-17,-22,17,18
1,-16,0,1,3,-5,44,37,-29,-28,11,12
1,-16,0,1,3,-5,44,25,-41,-34,5,6
-4,-22,0,7,3,-5,44,13,-53,-40,-1,0
-10,-28,0,13,3,-11,44,7,-59,-46,-1,0
-10,-34,0,19,3,-17,44,1,-59,-46,-1,0
-16,-40,-5,25,3,-17,44,1,-65,-46,-1,-5
-16,-46,-11,31,3,-23,44,1,-71,-52,-6,-11
-16,-46,-17,31,3,-29,44,1,-77,-58,-6,-11
-16,-46,-23,31,3,-35,44,1,-83,-64,-12,-11
-16,-52,-29,31,3,-41,44,1,-83,-70,-18,-11
-16,-52,-35,31,3,-41,44,1,-83,-70,-18,-11
-16,-52,-35,31,3,-41,44,1,-83,-70,-18,-11
-16,-58,-35,37,3,-47,50,1,-83,-70,-18,-17
-16,-64,-35,43,3,-53,50,1,-83,-70,-24,-17
-16,-64,-35,43,3,-53,50,1,-83,-70,-24,-17
-16,-58,-35,43,3,-47,50,1,-83,-70,-24,-17
-22,-58,-35,43,3,-47,56,1,-83,-70,-24,-17
-34,-64,-35,49,3,-53,56,7,-83,-70,-24,-17
-40,-64,-29,49,3,-53,56,7,-83,-70,-24,-17
-46,-64,-23,49,-3,-47,56,7,-83,-70,-24,-17
-46,-64,-17,49,-3,-47,56,7,-83,-70,-24,-23
-46,-64,-17,49,-3,-47,56,7,-83,-70,-24,-23
-46,-64,-17,49,-3,-47,56,13,-83,-70,-24,-23
-40,-64,-17,49,-3,-47,56,13,-83,-70,-36,-23
-40,-64,-17,49,-3,-47,56,13,-83,-76,-42,-29
-40,-64,-17,49,-3,-47,56,13,-89,-82,-42,-29
-40,-64,-17,49,-3,-47,62,13,-89,-82,-42,-29
-40,-64,-17,49,-3,-41,62,19,-89,-82,-48,-35
-40,-58,-17,43,-3,-35,62,25,-89,-82,-48,-35
-28,-52,-17,37,-3,-35,62,25,-89,-82,-48,-35
-28,-52,-23,37,3,-35,62,25,-89,-88,-48,-35
-28,-52,-23,37,9,-35,62,25,-89,-88,-48,-35
-28,-52,-23,37,9,-35,62,25,-89,-88,-48,-35
-28,-52,-23,37,9,-35,62,25,-89,-88,-48,-35
-28,-52,-23,37,9,-35,62,25,-89,-88,-48,-35
-34,-58,-23,43,9,-35,62,25,-89,-88,-48,-35
-40,-64,-23,49,9,-41,62,25,-89,-88,-48,-35
-46,-76,-23,55,9,-47,62,25,-89,-88,-48,-35
-46,-76,-23,55,9,-47,62,25,-89,-88,-48,-35
-40,-76,-23,55,9,-47,62,25,-89,-88,-48,-35
-34,-76,-29,55,9,-47,62,25,-89,-88,-48,-35
-34,-76,-29,55,9,-47,62,25,-89,-88,-48,-35
-34,-76,-29,55,9,-47,62,25,-89,-88,-48,-41
-34,-76,-29,55,9,-47,62,25,-89,-94,-48,-41
-34,-76,-29,55,9,-47,62,25,-89,-94,-48,-41
-34,-76,-35,55,9,-47,62,25,-89,-94,-48,-41
-34,-76,-35,49,9,-47,62,25,-89,-94,-48,-41
-28,-76,-41,43,9,-47,62,25,-89,-94,-48,-41
-22,-76,-47,43,15,-47,62,25,-89,-94,-48,-41
-22,-76,-47,43,15,-47,62,19,-89,-94,-48,-41
-22,-76,-47,43,15,-47,62,19,-89,-94,-48,-41
-22,-76,-47,43,15,-53,62,13,-89,-94,-48,-41
-22,-76,-47,43,15,-53,62,13,-89,-94,-48,-41
-28,-76,-47,43,9,-53,62,13,-89,-94,-48,-41
-28,-76,-47,43,9,-53,62,7,-89,-94,-48,-41
-28,-76,-47,43,9,-53,62,7,-89,-94,-48,-41
-34,-76,-47,43,9,-53,62,7,-89,-94,-48,-41
-34,-70,-47,43,9,-53,62,1,-89,-94,-48,-41
-34,-70,-47,43,9,-53,62,1,-89,-94,-48,-41
-28,-70,-47,43,15,-53,62,-4,-89,-94,-48,-41
-28,-70,-47,43,15,-53,62,-10,-89,-94,-48,-41
-28,-70,-41,43,9,-53,62,-16,-89,-94,-48,-41
-28,-70,-35,43,3,-53,62,-16,-89,-94,-48,-41
-28,-70,-35,43,3,-53,62,-22,-89,-94,-48,-41
-28,-70,-35,43,3,-53,62,-28,-89,-94,-48,-41
-28,-70,-35,43,3,-53,62,-34,-89,-94,-48,-41
-28,-70,-35,43,3,-53,62,-34,-95,-94,-48,-41
-28,-70,-35,49,3,-53,62,-40,-101,-100,-48,-47
-28,-70,-35,49,3,-53,62,-40,-101,-100,-54,-47
-34,-70,-35,49,3,-53,62,-40,-101,-100,-54,-47
-34,-76,-35,49,3,-53,62,-40,-101,-100,-54,-47
-34,-76,-35,49,3,-59,56,-40,-101,-100,-54,-47
-28,-76,-41,49,9,-59,56,-40,-107,-106,-54,-47
-22,-76,-47,49,15,-59,56,-40,-113,-112,-54,-47
-22,-76,-59,49,21,-59,50,-46,-119,-118,-60,-53
-28,-76,-59,49,21,-59,50,-52,-119,-118,-60,-53
-34,-76,-53,49,15,-59,50,-52,-119,-118,-60,-53
-34,-76,-53,49,15,-59,50,-52,-119,-118,-60,-53
-34,-76,-53,49,15,-59,50,-58,-119,-118,-60,-53
-34,-76,-47,49,9,-59,44,-64,-125,-124,-66,-53
-40,-76,-35,49,3,-53,44,-70,-131,-124,-66,-53
-40,-76,-35,49,3,-53,44,-70,-131,-124,-66,-53
-40,-76,-35,49,3,-53,44,-70,-131,-124,-66,-53
-40,-76,-41,49,3,-53,44,-70,-131,-124,-66,-53
-34,-76,-41,49,3,-53,44,-70,-131,-124,-66,-53
-34,-76,-41,49,3,-53,44,-70,-131,-124,-66,-53
-34,-76,-47,49,3,-53,44,-70,-131,-124,-66,-53
-34,-76,-47,49,3,-53,44,-70,-131,-124,-66,-53
-34,-76,-47,49,3,-53,44,-70,-131,-124,-66,-53
-34,-70,-41,49,3,-53,44,-70,-131,-124,-66,-53
-34,-70,-41,49,3,-53,44,-70,-137,-124,-66,-53
-34,-76,-41,49,3,-59,44,-70,-137,-124,-66,-53
-34,-76,-41,49,3,-59,44,-70,-137,-124,-66,-53
-34,-76,-41,49,3,-59,38,-70,-137,-124,-66,-59
-34,-76,-41,49,3,-59,38,-70,-137,-124,-66,-59
-34,-76,-41,49,3,-59,38,-76,-137,-124,-66,-59
-40,-76,-41,49,3,-59,38,-76,-137,-124,-66,-59
-40,-76,-41,49,3,-59,38,-76,-137,-124,-66,-59
-40,-76,-41,49,3,-59,38,-76,-137,-124,-66,-59
-40,-76,-41,49,3,-59,38,-76,-137,-124,-66,-59
-40,-70,-35,49,3,-53,38,-70,-137,-124,-66,-59
-40,-58,-23,43,-3,-41,38,-64,-137,-124,-66,-59
-40,-46,-11,43,-8,-29,44,-58,-131,-118,-66,-59
-40,-40,-5,43,-8,-23,50,-52,-125,-118,-60,-59
-40,-40,-5,37,-8,-23,56,-46,-125,-118,-60,-53
-34,-34,-5,37,-8,-23,62,-46,-125,-118,-60,-53
-34,-28,0,37,-8,-17,62,-40,-125,-118,-60,-53
-34,-28,0,37,-8,-11,62,-40,-125,-118,-60,-53
-34,-28,0,37,-8,-11,62,-40,-125,-118,-60,-53
-34,-28,0,31,-8,-11,62,-40,-125,-118,-60,-53
-34,-22,6,25,-8,-5,68,-34,-125,-118,-60,-53
-34,-22,6,25,-8,0,74,-28,-119,-112,-54,-47
-34,-22,12,25,-14,6,80,-22,-107,-106,-42,-35
-34,-10,24,19,-20,18,86,-16,-101,-100,-36,-29
-34,19,48,7,-26,42,92,-10,-95,-94,-30,-23
-34,31,60,1,-32,54,98,-4,-83,-88,-24,-17
-34,43,66,-5,-32,60,98,-4,-77,-82,-18,-11
-28,55,66,-10,-32,66,98,-4,-77,-76,-18,-11
-28,61,72,-16,-38,72,98,-4,-77,-76,-18,-5
-28,67,90,-22,-50,84,98,1,-77,-76,-18,0
-28,73,102,-28,-56,90,98,1,-77,-76,-12,6
-28,73,102,-28,-56,90,98,1,-77,-70,-6,6
-22,79,102,-34,-56,90,92,-4,-77,-64,-1,12
-16,85,102,-40,-56,90,86,-16,-77,-64,5,18
-16,97,102,-46,-56,96,80,-22,-77,-58,11,24
-10,109,102,-52,-56,102,74,-22,-77,-52,17,36
-4,115,102,-58,-56,102,74,-22,-77,-46,23,42
-4,115,102,-58,-56,102,74,-22,-77,-40,29,48
-4,115,102,-58,-56,102,74,-22,-77,-40,29,48
-4,115,102,-58,-56,102,74,-22,-77,-40,29,48
-4,103,90,-58,-50,96,74,-22,-77,-46,23,42
-4,67,66,-46,-44,66,74,-22,-77,-52,17,36
-4,37,54,-28,-38,42,74,-22,-77,-58,11,24
-10,19,48,-10,-38,30,74,-22,-83,-70,-1,12
-16,1,36,7,-32,18,68,-34,-95,-82,-18,-5
-16,-28,0,19,-20,-11,62,-46,-107,-94,-36,-23
-22,-52,-23,31,-8,-41,56,-52,-119,-106,-48,-35
-28,-64,-29,43,-8,-47,44,-64,-131,-118,-60,-47
-40,-76,-35,55,-8,-53,32,-76,-137,-124,-72,-59
-46,-88,-47,61,-8,-65,26,-82,-143,-124,-78,-65
-46,-94,-47,67,-8,-65,26,-82,-143,-124,-84,-65
-46,-94,-47,67,-8,-65,20,-88,-143,-136,-84,-65
-46,-94,-47,67,-8,-65,20,-94,-149,-142,-84,-71
-46,-94,-53,67,-3,-71,14,-100,-149,-148,-84,-71
-40,-94,-59,67,9,-77,8,-106,-149,-154,-90,-71
-40,-94,-59,67,9,-77,8,-106,-149,-154,-90,-71
-40,-94,-59,67,9,-77,8,-106,-149,-154,-90,-71
-46,-100,-59,73,9,-77,8,-106,-149,-154,-90,-71
-46,-106,-59,73,9,-77,2,-106,-149,-154,-96,-71
-46,-106,-65,73,9,-83,2,-106,-149,-154,-96,-71
-46,-106,-71,73,9,-89,2,-112,-149,-154,-96,-71
-46,-106,-71,73,9,-89,2,-112,-155,-154,-96,-71
-46,-106,-71,79,9,-89,2,-112,-155,-154,-96,-71
-46,-106,-71,79,9,-89,2,-112,-155,-154,-96,-71
-46,-106,-71,85,9,-89,2,-112,-155,-154,-96,-71
-46,-112,-71,85,9,-89,2,-112,-155,-154,-96,-71
-46,-112,-71,85,9,-89,2,-112,-155,-154,-102,-77
-46,-112,-71,85,9,-89,2,-112,-155,-160,-102,-77
-46,-118,-71,85,9,-89,2,-112,-161,-160,-102,-77
-46,-118,-71,85,9,-89,2,-112,-161,-160,-102,-83
-46,-118,-71,85,9,-89,2,-112,-161,-160,-102,-83
-46,-118,-71,85,9,-89,2,-112,-161,-160,-102,-83
-46,-118,-71,85,9,-95,2,-112,-161,-160,-102,-83
-46,-124,-77,85,15,-101,2,-112,-161,-160,-102,-89
-46,-124,-77,85,15,-101,-3,-118,-161,-166,-108,-89
-46,-124,-77,85,15,-101,-3,-118,-161,-166,-114,-89
-46,-124,-77,85,15,-101,-3,-118,-161,-166,-114,-89
-46,-124,-83,85,21,-101,-3,-118,-161,-166,-114,-89
-40,-124,-89,85,27,-107,-3,-118,-161,-166,-114,-89
-40,-124,-95,85,27,-107,-3,-118,-161,-166,-114,-89
-40,-124,-89,85,27,-107,-3,-118,-161,-166,-114,-89
-46,-124,-77,85,21,-101,-3,-118,-161,-166,-114,-89
-46,-124,-77,85,21,-101,-3,-118,-161,-166,-114,-89
-46,-124,-77,85,21,-101,-3,-118,-161,-166,-114,-89
-46,-124,-77,85,21,-101,-3,-118,-161,-166,-114,-89
-46,-124,-77,85,21,-101,-3,-118,-161,-166,-114,-89
-46,-118,-77,85,21,-101,-3,-118,-161,-166,-114,-89
-46,-118,-77,85,21,-95,-3,-118,-161,-166,-114,-89
-46,-118,-77,85,21,-95,-3,-118,-161,-166,-114,-89
-46,-118,-71,85,21,-89,-3,-118,-161,-166,-114,-89
-46,-118,-59,85,15,-83,-3,-118,-161,-166,-114,-89
-52,-118,-59,85,15,-83,-3,-118,-161,-166,-114,-89
-52,-118,-59,85,15,-83,-3,-118,-161,-166,-114,-95
-52,-118,-59,85,15,-83,-3,-112,-161,-166,-114,-101
-52,-118,-59,85,15,-83,2,-106,-161,-166,-114,-101
-52,-118,-59,85,15,-83,14,-94,-161,-166,-120,-101
-52,-118,-65,85,15,-89,50,-58,-161,-166,-126,-107
-52,-118,-65,85,15,-89,92,7,-161,-166,-132,-107
-52,-118,-65,85,15,-89,122,49,-161,-166,-132,-107
-52,-118,-65,85,15,-89,134,79,-161,-166,-132,-107
-46,-112,-65,79,15,-83,146,115,-149,-166,-132,-107
-28,-64,-59,43,15,-65,188,175,-101,-142,-108,-107
13,7,-47,-10,21,-23,254,241,24,-46,-30,-65
55,115,-5,-100,21,54,284,283,168,103,113,42
97,271,120,-196,15,192,284,271,276,277,281,192
139,463,270,-310,-26,372,218,49,336,445,467,366
169,649,438,-412,-80,546,68,-256,378,601,629,528
181,781,576,-466,-152,678,-105,-586,408,715,761,666
187,871,660,-514,-194,774,-357,-904,444,817,857,768
199,967,738,-568,-224,852,-669,-1186,486,895,947,846
205,979,744,-586,-236,864,-951,-1366,552,925,989,888
211,889,654,-574,-224,774,-1149,-1396,624,925,977,882
211,601,360,-460,-92,486,-1179,-1372,654,763,791,702
199,277,96,-262,15,186,-1155,-1300,606,463,479,426
115,-28,-83,-58,57,-59,-1047,-1294,276,133,173,180
19,-202,-161,79,63,-185,-1005,-1318,-155,-166,-72,-5
-34,-298,-209,157,63,-257,-975,-1348,-515,-370,-240,-137
-52,-358,-251,193,75,-299,-927,-1342,-695,-442,-318,-197
-52,-376,-293,205,93,-323,-867,-1264,-725,-472,-342,-227
-52,-382,-323,211,123,-341,-777,-1108,-719,-472,-348,-239
-52,-394,-347,217,135,-359,-687,-934,-665,-466,-348,-251
-46,-394,-359,217,153,-371,-603,-796,-593,-454,-348,-257
-34,-394,-365,211,165,-371,-507,-670,-515,-436,-342,-257
-28,-388,-365,199,171,-371,-423,-574,-449,-400,-330,-257
-22,-370,-359,187,171,-365,-345,-478,-395,-364,-294,-251
-22,-328,-323,169,159,-329,-279,-382,-335,-322,-258,-239
-22,-298,-281,157,147,-287,-219,-304,-287,-292,-228,-215
-16,-280,-269,145,141,-269,-177,-256,-251,-262,-198,-191
-10,-268,-257,139,135,-257,-141,-214,-227,-232,-186,-167
-10,-244,-239,133,123,-233,-111,-190,-215,-214,-174,-155
-10,-214,-215,127,111,-209,-99,-172,-209,-202,-168,-149
-10,-202,-203,121,105,-203,-87,-154,-203,-196,-162,-143
-10,-190,-191,115,99,-191,-57,-130,-191,-190,-150,-137
-10,-172,-143,103,81,-161,-45,-106,-179,-184,-138,-131
-10,-136,-101,91,57,-125,-33,-88,-167,-178,-132,-125
-10,-124,-89,79,51,-113,-21,-58,-143,-166,-126,-119
-10,-124,-89,73,51,-107,-9,-40,-119,-154,-114,-113
-10,-118,-89,67,51,-101,2,-28,-113,-148,-108,-107
-10,-112,-89,61,45,-95,8,-22,-101,-142,-102,-107
-10,-106,-89,61,45,-95,14,-16,-95,-142,-102,-107
-10,-100,-89,55,45,-95,20,-16,-95,-142,-102,-101
-10,-94,-89,55,45,-95,26,-16,-89,-142,-96,-95
-10,-94,-89,55,45,-95,32,-10,-83,-142,-96,-89
-10,-94,-89,55,45,-95,32,-10,-83,-136,-96,-89
-10,-94,-89,55,45,-95,32,-10,-83,-136,-96,-89
-10,-94,-89,55,45,-95,32,-10,-77,-136,-96,-89
-10,-94,-83,55,45,-89,32,-4,-77,-136,-96,-83
-10,-94,-83,55,45,-83,32,-4,-77,-136,-96,-77
-10,-88,-77,55,45,-83,32,-4,-77,-136,-96,-77
-16,-88,-71,55,39,-83,32,-4,-71,-136,-96,-77
-16,-88,-65,55,33,-77,38,1,-71,-136,-96,-77
-16,-82,-65,55,33,-71,38,1,-65,-136,-96,-77
-16,-82,-65,55,33,-71,38,7,-59,-136,-96,-77
-16,-82,-65,49,33,-71,38,13,-53,-130,-90,-77
-16,-76,-59,49,33,-65,38,13,-53,-124,-84,-77
-16,-76,-59,49,33,-65,38,13,-53,-124,-84,-77
-16,-70,-59,49,33,-65,38,13,-53,-124,-84,-77
-16,-70,-59,43,33,-59,38,13,-53,-124,-84,-77
-16,-70,-59,43,33,-59,38,19,-47,-124,-84,-77
-16,-70,-59,43,33,-59,38,25,-41,-124,-84,-77
-16,-70,-59,43,33,-59,38,31,-41,-118,-78,-77
-10,-64,-59,43,33,-59,38,31,-41,-118,-78,-71
-4,-58,-59,37,33,-59,38,37,-41,-118,-78,-71
-4,-58,-59,37,33,-59,44,43,-35,-118,-78,-71
-4,-58,-59,37,33,-59,50,49,-29,-118,-72,-71
-4,-58,-59,37,33,-59,56,55,-23,-118,-66,-71
-4,-58,-59,31,33,-59,56,61,-23,-118,-66,-71
-4,-52,-53,25,33,-53,56,67,-23,-118,-60,-71
-4,-46,-47,19,33,-53,62,79,-17,-112,-54,-65
-4,-46,-47,19,33,-53,68,85,-11,-106,-48,-59
-4,-46,-47,19,33,-53,68,91,-5,-106,-48,-59
1,-40,-47,19,33,-47,68,97,-5,-106,-48,-59
1,-34,-47,19,27,-41,68,97,-5,-106,-48,-59
1,-34,-47,19,21,-41,68,103,-5,-106,-48,-59
1,-34,-47,19,21,-41,68,103,-5,-100,-48,-59
1,-34,-47,19,21,-41,68,109,-5,-94,-42,-53
1,-40,-47,19,21,-41,68,115,0,-88,-36,-53
1,-40,-47,19,21,-41,68,121,0,-88,-36,-53
1,-40,-47,19,21,-41,68,127,6,-88,-36,-53
1,-40,-35,19,21,-41,68,139,12,-82,-36,-47
1,-40,-35,19,21,-41,68,145,18,-82,-30,-47
1,-40,-35,19,21,-41,68,157,24,-76,-24,-41
1,-40,-35,19,21,-41,74,169,30,-70,-18,-35
1,-40,-35,19,21,-41,80,175,36,-64,-18,-29
1,-34,-35,19,21,-35,80,181,42,-64,-18,-29
1,-34,-35,19,21,-35,80,187,54,-64,-18,-23
1,-28,-35,13,21,-29,80,199,60,-58,-18,-23
1,-22,-29,7,21,-23,86,211,66,-52,-12,-23
7,-10,-23,1,21,-17,86,217,78,-46,-6,-17
7,-4,-17,-5,21,-17,86,223,84,-46,-6,-17
7,-4,-17,-5,21,-11,86,229,84,-40,-6,-17
7,-4,-17,-5,21,-11,86,235,90,-34,-1,-17
13,1,-17,-10,21,-5,86,241,96,-28,5,-17
19,13,-11,-22,21,0,86,247,102,-22,11,-17
25,19,-11,-28,21,6,86,253,114,-22,11,-11
31,25,-11,-28,21,12,86,259,126,-16,17,-11
31,25,-11,-28,21,12,86,265,138,-4,29,-5
31,25,-11,-28,21,12,86,271,156,7,35,0
31,25,-11,-28,21,12,86,277,168,13,41,0
37,25,-11,-34,21,12,86,283,180,19,47,6
43,31,-11,-40,21,12,86,289,186,25,53,12
49,31,-11,-46,27,12,86,301,198,31,59,18
55,37,-11,-52,39,12,92,307,210,37,65,24
61,49,-11,-58,45,18,92,313,216,43,71,30
61,55,-11,-64,45,24,92,319,228,49,71,36
67,61,-11,-64,51,24,92,325,240,55,77,42
73,67,-11,-70,51,24,92,331,258,61,83,48
85,85,-5,-82,51,36,92,337,270,67,83,48
91,97,6,-94,45,54,92,343,282,73,89,54
91,103,18,-100,39,66,92,355,294,79,95,54
91,109,24,-100,33,72,92,367,300,85,107,66
91,115,30,-100,33,78,92,379,312,97,119,78
91,121,36,-100,27,84,92,385,318,109,131,90
85,127,48,-100,21,90,92,391,330,115,137,96
85,133,54,-100,21,96,92,397,342,121,137,96
85,133,54,-106,21,96,92,409,354,133,137,96
85,133,54,-112,21,96,92,415,366,139,137,102
85,139,54,-118,21,102,92,415,378,139,143,108
91,145,54,-124,21,102,92,421,390,145,155,114
97,151,54,-124,21,102,92,421,402,157,167,120
97,151,54,-130,21,102,86,421,402,163,173,120
103,157,54,-136,27,108,80,421,408,169,179,120
109,157,54,-136,33,108,74,421,420,175,185,126
109,157,54,-136,33,108,74,427,426,181,191,132
109,163,54,-136,33,114,68,427,432,187,191,138
109,169,54,-136,33,114,62,427,438,187,197,144
109,169,54,-136,33,114,50,427,438,187,203,150
109,169,54,-136,33,114,44,427,438,187,203,150
109,169,60,-136,33,114,38,427,438,187,203,150
109,169,66,-136,33,120,38,427,444,187,203,150
109,169,66,-136,33,120,38,427,444,193,203,150
109,175,66,-136,33,120,38,427,444,199,203,156
109,181,66,-142,33,126,38,427,450,199,203,156
115,181,66,-148,33,126,32,421,450,199,203,156
121,181,60,-154,33,126,26,415,450,199,203,156
121,181,60,-154,33,126,26,415,456,205,203,156
121,181,60,-154,33,126,26,415,462,205,209,156
121,181,60,-154,33,126,26,415,468,205,215,162
121,181,60,-154,33,126,26,415,468,205,215,168
121,187,60,-160,33,126,20,409,468,205,215,168
121,187,60,-160,33,126,20,403,468,205,215,168
121,187,66,-160,33,132,20,397,468,205,215,168
121,187,66,-160,33,132,20,385,462,205,215,168
121,187,66,-160,33,132,20,373,450,205,215,162
115,187,72,-160,27,132,20,361,438,205,209,156
103,187,84,-160,15,144,20,349,426,205,209,156
97,187,90,-160,9,144,20,343,408,199,209,156
97,187,90,-160,9,144,20,331,390,193,203,150
97,187,90,-154,9,144,20,319,372,181,197,144
97,187,90,-154,9,138,20,307,360,169,191,138
85,175,90,-142,9,132,20,295,336,157,185,132
79,163,90,-130,9,126,20,277,306,151,179,126
73,151,90,-118,3,120,20,253,288,139,167,120
49,145,90,-106,-8,120,26,241,270,127,155,114
37,133,90,-94,-20,120,32,229,258,121,143,108
31,121,90,-82,-20,114,32,217,228,109,125,96
31,109,78,-76,-20,102,32,193,198,85,101,72
25,97,72,-64,-20,90,32,169,168,67,89,60
19,91,72,-58,-20,90,38,157,138,43,77,54
13,85,72,-52,-20,90,38,145,126,31,65,48
7,73,72,-46,-20,84,38,127,108,19,53,42
1,61,72,-40,-20,78,38,109,84,7,47,36
1,61,66,-40,-20,66,38,97,66,1,41,30
1,61,60,-40,-20,60,38,85,48,-4,29,24
1,55,48,-40,-14,48,38,73,36,-10,23,18
1,43,36,-34,-14,42,38,61,24,-16,17,12
-4,25,30,-22,-14,36,38,49,12,-22,11,6
-10,13,30,-10,-14,24,38,37,0,-34,5,0
-16,7,24,-5,-14,18,38,31,-11,-46,-1,-5
-16,-4,18,1,-14,12,38,31,-17,-46,-1,-11
-22,-10,18,7,-14,6,38,25,-23,-52,-1,-11
-28,-22,18,13,-14,0,44,19,-29,-52,-6,-17
-28,-34,12,19,-14,-11,50,19,-35,-52,-6,-23
-34,-40,6,25,-14,-17,50,19,-35,-52,-12,-29
-34,-46,0,31,-14,-29,50,19,-41,-58,-12,-35
-34,-52,-5,31,-14,-35,50,19,-47,-64,-18,-35
-34,-52,-11,31,-14,-35,50,19,-53,-70,-24,-35
-40,-58,-17,37,-14,-35,56,19,-53,-76,-24,-35
-40,-58,-17,37,-14,-35,62,19,-53,-76,-24,-35
-40,-58,-17,37,-14,-35,62,19,-59,-82,-30,-35
-40,-58,-17,37,-14,-35,62,19,-65,-82,-36,-41
-40,-64,-17,43,-14,-35,62,19,-65,-82,-36,-41
-40,-64,-17,43,-14,-35,62,19,-65,-82,-36,-41
-40,-64,-17,43,-14,-35,62,19,-65,-82,-36,-41
-40,-64,-17,43,-14,-35,62,19,-65,-82,-36,-41
-40,-64,-17,43,-14,-35,62,19,-65,-82,-36,-41
-40,-64,-17,43,-14,-35,62,19,-65,-82,-36,-41
-40,-64,-23,43,-14,-35,62,19,-65,-82,-42,-41
-40,-64,-23,43,-14,-35,62,19,-65,-82,-42,-41
-46,-64,-23,43,-14,-35,68,25,-65,-82,-42,-41
-46,-64,-23,43,-14,-35,68,31,-65,-82,-42,-41
-46,-64,-23,43,-14,-35,68,31,-65,-88,-42,-41
-46,-64,-23,43,-8,-41,68,31,-65,-88,-42,-41
-46,-70,-29,43,-3,-47,68,31,-65,-88,-42,-41
-46,-76,-29,43,-3,-47,68,31,-65,-88,-42,-47
-46,-76,-29,43,-3,-47,68,31,-65,-88,-42,-47
-46,-76,-29,43,-3,-47,68,31,-65,-88,-42,-47
-46,-76,-29,43,-3,-47,68,31,-65,-88,-42,-47
-46,-76,-35,43,-3,-47,68,31,-65,-88,-42,-47
-46,-76,-41,43,-3,-47,68,31,-65,-88,-42,-47
-46,-76,-41,43,-3,-53,68,31,-65,-88,-42,-47
-46,-76,-41,43,-3,-53,68,31,-65,-88,-42,-47
-46,-76,-41,43,-3,-53,68,37,-65,-88,-42,-47
-46,-76,-41,43,-3,-53,68,37,-65,-88,-42,-41
-46,-76,-41,43,-3,-53,68,37,-65,-88,-42,-41
-34,-76,-47,43,3,-59,68,37,-65,-88,-42,-41
-34,-76,-53,43,3,-59,68,37,-65,-82,-42,-41
-34,-76,-47,43,3,-59,68,37,-65,-82,-42,-41
-34,-76,-41,43,3,-59,68,37,-65,-82,-42,-41
-34,-76,-41,43,3,-59,68,37,-65,-82,-42,-41
-34,-76,-41,43,3,-59,68,37,-65,-82,-42,-41
-34,-76,-41,43,3,-59,68,37,-65,-82,-42,-41
-34,-76,-41,43,3,-59,68,37,-65,-82,-42,-41
-34,-76,-41,43,3,-59,68,37,-65,-82,-42,-41
-34,-76,-41,43,3,-59,68,37,-65,-82,-42,-41
-34,-76,-41,43,3,-59,68,37,-65,-82,-42,-41
-34,-76,-41,43,3,-59,68,31,-65,-82,-42,-41
-34,-76,-47,43,3,-59,68,25,-65,-82,-42,-41
-34,-76,-59,43,9,-65,68,25,-65,-82,-42,-41
-34,-76,-59,43,9,-65,68,25,-65,-82,-42,-41
-34,-76,-59,43,9,-65,68,25,-65,-82,-42,-41
-34,-76,-59,43,9,-65,68,19,-65,-82,-42,-41
-34,-76,-59,43,9,-65,68,13,-65,-82,-42,-41
-34,-76,-53,43,9,-59,68,13,-65,-82,-42,-41
-34,-76,-53,49,3,-59,68,13,-65,-82,-42,-41
-34,-76,-53,49,3,-59,68,13,-65,-82,-42,-41
-28,-76,-53,43,3,-59,68,7,-65,-82,-42,-41
-28,-76,-53,43,3,-59,68,1,-65,-82,-42,-41
-28,-76,-53,43,3,-59,68,1,-65,-82,-42,-41
-34,-76,-53,43,3,-59,68,1,-65,-82,-42,-41
-34,-82,-53,43,3,-59,68,-4,-65,-82,-42,-41
-34,-82,-53,43,3,-59,62,-10,-65,-82,-42,-41
-34,-82,-53,43,3,-59,62,-16,-65,-82,-42,-41
-34,-82,-53,43,3,-59,62,-22,-65,-82,-42,-41
-40,-82,-53,49,3,-59,62,-28,-71,-82,-42,-41
-46,-88,-53,55,3,-59,62,-34,-77,-82,-42,-41
-46,-88,-53,55,3,-59,62,-34,-83,-82,-42,-41
-46,-88,-53,55,3,-59,62,-34,-83,-82,-42,-41
-46,-88,-53,55,3,-59,62,-34,-83,-82,-42,-41
-46,-88,-53,55,3,-59,62,-40,-89,-82,-42,-41
-46,-88,-53,55,3,-59,62,-46,-95,-88,-48,-41
-46,-94,-53,55,3,-65,62,-46,-101,-88,-48,-41
-46,-100,-53,55,3,-71,62,-52,-101,-88,-48,-41
-46,-100,-53,55,3,-71,56,-58,-101,-88,-48,-41
-46,-100,-53,55,3,-71,50,-58,-101,-88,-48,-41
-46,-100,-53,55,3,-71,50,-58,-101,-88,-48,-41
-46,-100,-59,55,3,-77,50,-58,-101,-88,-48,-41
-46,-100,-65,61,3,-77,50,-64,-101,-94,-54,-41
-46,-100,-65,61,3,-77,50,-64,-101,-94,-54,-41
-46,-100,-65,61,3,-77,50,-64,-101,-94,-54,-41
-40,-100,-65,61,3,-77,50,-64,-101,-94,-54,-41
-40,-100,-65,61,3,-77,56,-58,-101,-94,-54,-41
-40,-94,-59,61,3,-71,56,-58,-101,-94,-54,-41
-40,-94,-53,61,3,-65,62,-52,-101,-94,-54,-41
-40,-94,-47,61,3,-65,68,-52,-101,-94,-54,-41
-40,-94,-41,61,3,-65,68,-46,-101,-88,-48,-35
-40,-82,-35,55,-3,-59,68,-46,-101,-88,-42,-35
-40,-76,-29,49,-3,-53,68,-46,-101,-88,-42,-35
-40,-76,-29,49,-3,-53,68,-40,-101,-88,-42,-35
-40,-70,-29,43,-3,-47,68,-40,-101,-82,-42,-35
-40,-64,-29,43,-3,-41,68,-40,-101,-82,-42,-35
-40,-64,-23,43,-14,-35,74,-34,-101,-82,-42,-35
-40,-58,-17,43,-20,-29,80,-28,-101,-76,-42,-35
-40,-58,-17,43,-20,-29,86,-22,-95,-70,-36,-29
-34,-46,-11,37,-20,-23,92,-22,-95,-64,-30,-23
-34,-16,6,25,-20,-5,92,-22,-89,-64,-30,-17
-34,-4,18,13,-26,6,98,-10,-83,-58,-24,-11
-34,1,30,13,-32,12,104,1,-77,-46,-18,0
-40,7,54,13,-56,30,110,13,-65,-40,-12,12
-40,19,66,13,-62,42,116,19,-65,-34,-6,18
-40,25,66,7,-62,48,116,19,-65,-28,-1,24
-40,31,66,1,-62,54,116,25,-65,-22,11,30
-40,43,78,-5,-62,66,116,25,-65,-16,17,36
-40,55,90,-16,-62,78,116,25,-65,-10,23,42
-28,61,90,-28,-62,84,116,25,-65,-4,29,48
-22,67,90,-34,-56,84,110,25,-65,1,35,54
-22,73,90,-34,-56,84,104,19,-65,1,35,60
-22,79,96,-34,-56,84,92,13,-65,1,35,60
-22,85,102,-34,-56,84,86,7,-65,1,35,60
-22,91,102,-34,-56,90,80,7,-65,7,35,60
-22,91,102,-34,-56,90,74,1,-65,7,35,60
-28,91,102,-34,-56,90,68,1,-65,7,35,60
-34,79,102,-34,-56,90,62,1,-71,7,35,60
-34,67,96,-28,-56,84,56,1,-77,1,29,48
-34,55,84,-22,-56,72,56,-4,-83,-10,17,30
-34,25,66,-10,-50,42,56,-4,-83,-22,11,24
-34,-16,30,1,-44,6,56,-10,-89,-28,5,18
-34,-34,0,13,-32,-17,50,-16,-95,-40,-1,12
-34,-46,-17,25,-20,-35,50,-22,-107,-46,-12,6
-34,-58,-29,37,-14,-47,50,-28,-119,-52,-24,0
-34,-76,-41,43,-8,-65,50,-34,-131,-58,-30,-5
-40,-94,-53,55,-3,-77,50,-40,-131,-64,-36,-11
-52,-124,-59,67,-3,-89,44,-46,-131,-70,-36,-17
-58,-136,-65,79,-3,-95,38,-52,-137,-70,-42,-29
-58,-136,-71,79,-3,-95,32,-64,-137,-76,-54,-41
-52,-136,-77,79,3,-101,26,-64,-137,-82,-60,-47
-52,-142,-83,79,9,-107,26,-64,-143,-82,-60,-47
-52,-148,-89,85,15,-113,26,-64,-143,-82,-60,-47
-52,-154,-89,91,15,-113,26,-64,-143,-82,-60,-47
-58,-154,-89,97,15,-113,26,-64,-149,-82,-60,-47
-58,-154,-95,97,15,-119,20,-70,-155,-88,-66,-47
-58,-154,-101,97,21,-125,20,-70,-161,-88,-72,-47
-58,-154,-101,97,21,-125,20,-70,-167,-88,-72,-47
-58,-154,-101,97,21,-125,20,-70,-167,-88,-72,-47
-58,-160,-101,103,21,-125,20,-70,-167,-88,-72,-47
-58,-166,-101,109,21,-125,20,-76,-167,-94,-78,-53
-58,-166,-101,109,21,-125,20,-88,-173,-100,-84,-53
-58,-166,-101,109,21,-125,20,-88,-173,-100,-84,-53
-58,-166,-101,109,21,-125,20,-88,-173,-100,-84,-53
-58,-172,-101,109,21,-131,20,-88,-173,-100,-84,-53
-58,-172,-101,109,21,-131,20,-88,-173,-100,-84,-53
-58,-172,-101,109,21,-131,20,-88,-173,-100,-84,-53
-64,-172,-101,109,21,-131,20,-88,-173,-100,-84,-53
-64,-172,-101,109,21,-131,20,-88,-173,-100,-84,-53
-64,-172,-107,109,21,-137,20,-88,-173,-100,-84,-53
-64,-172,-107,109,21,-137,20,-88,-173,-100,-84,-53
-64,-172,-107,109,21,-137,20,-94,-173,-100,-84,-53
-64,-172,-107,109,21,-137,20,-100,-173,-100,-84,-53
-58,-178,-119,109,27,-149,20,-100,-173,-100,-84,-53
-58,-184,-125,109,27,-155,20,-100,-173,-100,-84,-53
-58,-184,-125,109,27,-155,20,-106,-173,-100,-84,-53
-58,-178,-119,109,27,-149,20,-106,-173,-94,-84,-53
-58,-172,-119,103,27,-143,20,-106,-173,-88,-84,-53
-58,-172,-119,103,27,-143,20,-106,-173,-88,-84,-53
-58,-172,-119,103,27,-143,20,-106,-173,-88,-84,-53
-52,-172,-119,103,27,-143,20,-106,-173,-88,-84,-53
-52,-166,-119,103,27,-143,20,-106,-173,-88,-84,-53
-52,-166,-113,103,27,-143,20,-106,-173,-88,-90,-53
-58,-166,-113,109,27,-143,20,-106,-173,-88,-90,-53
-64,-166,-113,109,27,-143,14,-106,-173,-88,-90,-53
-64,-166,-113,109,27,-143,8,-106,-173,-82,-90,-53
-64,-166,-113,109,27,-143,8,-106,-173,-76,-90,-53
-64,-172,-119,109,27,-143,8,-106,-173,-76,-90,-53
-64,-178,-119,109,27,-143,2,-106,-173,-76,-90,-53
-64,-178,-119,115,27,-143,2,-106,-173,-76,-90,-59
-76,-184,-119,121,21,-143,2,-100,-173,-76,-90,-59
-76,-190,-119,127,21,-149,2,-100,-173,-76,-96,-59
-76,-190,-119,127,21,-149,2,-100,-173,-76,-102,-65
-76,-190,-119,127,21,-149,2,-100,-173,-76,-108,-71
-76,-190,-119,127,21,-149,2,-94,-173,-82,-108,-71
-76,-190,-119,127,15,-149,14,-82,-173,-82,-114,-71
-82,-190,-119,127,15,-149,44,-40,-173,-88,-120,-77
-82,-190,-113,127,15,-149,68,1,-173,-88,-126,-83
-82,-178,-107,121,15,-143,80,43,-173,-88,-126,-89
-76,-166,-107,115,15,-137,98,85,-167,-88,-126,-89
-58,-160,-107,103,27,-137,122,151,-143,-82,-120,-89
-10,-136,-113,73,39,-137,170,229,-77,-46,-96,-71
31,-70,-113,25,51,-107,218,295,36,61,-6,-11
73,73,-65,-64,51,0,248,325,174,217,131,108
115,229,60,-172,45,144,248,307,264,379,299,246
139,403,216,-280,3,312,182,55,306,529,461,390
157,571,354,-364,-62,456,20,-292,324,679,623,546
163,673,480,-424,-116,582,-147,-658,336,799,749,654
163,775,612,-460,-194,696,-381,-1024,342,871,839,744
163,883,708,-502,-248,804,-675,-1336,354,937,905,828
163,901,726,-520,-266,810,-951,-1510,414,985,947,876
169,823,636,-508,-248,738,-1125,-1528,510,985,941,870
169,547,360,-388,-128,450,-1143,-1498,558,841,767,714
157,223,90,-196,-20,156,-1107,-1378,546,565,491,474
79,-52,-77,-22,21,-71,-981,-1360,252,253,203,240
-4,-220,-173,97,39,-197,-921,-1378,-191,-40,-42,54
-52,-328,-233,175,51,-281,-903,-1396,-545,-232,-192,-53
-76,-370,-263,205,63,-323,-873,-1384,-701,-316,-258,-107
-76,-376,-281,211,75,-329,-837,-1276,-719,-334,-282,-149
-76,-382,-311,211,99,-341,-771,-1102,-707,-334,-288,-167
-64,-394,-347,217,129,-371,-657,-916,-623,-328,-288,-173
-58,-412,-371,223,141,-389,-555,-760,-545,-316,-288,-179
-58,-412,-371,223,147,-389,-477,-640,-485,-298,-288,-185
-58,-412,-371,223,147,-389,-399,-538,-425,-268,-276,-185
-52,-400,-365,211,147,-383,-333,-454,-383,-238,-264,-185
-40,-376,-365,193,153,-371,-279,-382,-341,-214,-258,-185
-22,-346,-359,169,159,-359,-237,-340,-311,-202,-252,-185
-16,-328,-347,157,159,-347,-201,-292,-281,-184,-234,-179
-16,-316,-317,151,153,-329,-159,-244,-245,-166,-210,-167
-16,-286,-281,145,141,-293,-141,-202,-227,-142,-186,-155
-16,-256,-239,139,123,-251,-123,-172,-215,-130,-162,-137
-16,-226,-197,133,105,-209,-105,-142,-209,-118,-144,-125
-22,-214,-173,127,87,-191,-75,-112,-197,-94,-132,-101
-28,-208,-167,127,75,-185,-57,-82,-173,-70,-114,-89
-40,-202,-155,127,63,-179,-45,-70,-155,-58,-102,-83
-46,-172,-131,115,51,-155,-33,-58,-143,-52,-96,-77
-46,-142,-119,97,45,-131,-21,-46,-131,-46,-90,-71
-40,-130,-113,85,45,-125,-9,-34,-119,-46,-90,-65
-34,-130,-113,85,45,-125,2,-22,-113,-46,-90,-65
-34,-130,-113,85,45,-125,8,-16,-107,-46,-90,-59
-34,-130,-101,85,39,-119,14,-10,-101,-40,-90,-59
-34,-130,-101,85,39,-119,14,-4,-101,-40,-84,-59
-34,-130,-101,85,39,-119,14,-4,-101,-34,-84,-53
-34,-130,-101,79,39,-119,14,-4,-95,-34,-84,-47
-34,-124,-101,79,39,-113,20,-4,-89,-28,-84,-47
-34,-124,-101,79,39,-113,26,-4,-83,-28,-84,-47
-28,-124,-107,79,45,-113,26,-4,-83,-22,-78,-47
-28,-130,-119,79,51,-125,32,1,-77,-16,-72,-41
-28,-130,-119,79,51,-125,32,7,-71,-10,-66,-35
-28,-124,-101,73,45,-119,32,7,-71,-4,-60,-35
-28,-118,-95,73,39,-113,32,7,-71,-4,-60,-35
-28,-118,-95,73,39,-113,32,7,-71,-4,-60,-35
-28,-112,-95,73,39,-113,32,13,-65,-4,-60,-35
-28,-106,-89,73,39,-107,32,19,-59,-4,-60,-29
-28,-106,-89,73,39,-101,32,19,-59,-4,-60,-29
-28,-106,-89,73,39,-101,32,19,-59,-4,-60,-29
-28,-106,-89,73,39,-101,32,25,-59,-4,-60,-29
-28,-106,-83,73,39,-101,32,31,-53,-4,-60,-29
-28,-106,-83,73,39,-101,32,31,-47,1,-60,-29
-28,-106,-83,73,33,-101,32,37,-41,7,-60,-29
-34,-106,-83,73,27,-101,32,37,-35,7,-60,-29
-34,-106,-83,73,27,-101,32,37,-35,13,-60,-29
-28,-106,-83,67,27,-95,32,37,-35,13,-60,-29
-28,-106,-83,67,27,-95,32,43,-35,13,-54,-23
-28,-106,-83,67,27,-95,32,49,-35,13,-48,-23
-28,-106,-83,61,27,-95,32,55,-29,13,-48,-23
-28,-106,-77,61,27,-95,32,61,-23,19,-42,-23
-28,-106,-77,61,27,-95,32,67,-17,19,-36,-17
-22,-106,-77,61,27,-95,32,67,-11,19,-30,-17
-22,-106,-77,61,27,-95,32,73,-5,19,-30,-11
-22,-100,-71,61,27,-89,32,79,-5,25,-30,-5
-22,-94,-65,55,27,-83,32,85,-5,25,-30,-5
-16,-82,-59,49,27,-77,32,91,-5,25,-30,-5
-16,-82,-59,43,27,-71,32,103,0,31,-30,-5
-16,-76,-59,43,27,-71,38,109,6,31,-24,-5
-16,-70,-59,37,27,-65,38,115,6,37,-24,-5
-16,-64,-59,31,27,-59,44,121,6,43,-18,0
-16,-64,-59,31,27,-59,50,127,12,49,-12,6
-10,-64,-59,31,27,-59,56,133,18,55,-6,12
-4,-58,-59,25,27,-59,62,133,24,55,-6,12
-4,-52,-53,25,27,-53,68,145,30,61,-6,12
-4,-46,-47,25,27,-47,80,157,36,67,-6,18
-4,-46,-47,25,27,-47,86,163,42,67,-6,24
-4,-46,-47,25,27,-47,86,175,48,73,-6,24
-4,-46,-47,25,27,-47,86,181,54,79,-6,24
-4,-46,-47,25,27,-47,86,181,54,85,-1,24
-4,-40,-47,25,27,-41,86,187,54,91,5,30
-4,-34,-47,25,27,-41,86,193,60,97,11,36
-4,-34,-47,25,27,-41,86,199,66,103,11,36
1,-28,-47,19,27,-41,86,205,78,109,11,36
1,-22,-41,13,27,-41,86,211,90,115,17,36
1,-16,-35,7,27,-35,86,217,102,121,23,36
7,-10,-35,1,27,-29,86,223,114,121,29,42
7,-10,-35,-5,27,-29,86,235,126,127,35,48
7,-4,-29,-5,27,-23,86,247,138,133,41,54
13,-4,-29,-10,27,-17,86,253,144,139,41,54
19,1,-29,-16,27,-17,86,259,150,145,41,54
25,7,-29,-22,27,-11,86,265,156,151,41,54
25,7,-29,-22,27,-11,86,271,162,151,41,54
25,7,-23,-22,27,-11,86,277,174,157,41,60
25,7,-23,-22,27,-11,86,283,186,163,47,66
31,7,-23,-22,27,-11,86,289,198,169,53,72
37,13,-23,-28,27,-5,86,301,210,181,59,78
37,25,-23,-34,27,0,86,313,234,187,71,84
43,37,-23,-40,27,6,86,325,252,193,77,84
43,49,-17,-46,27,18,86,337,264,199,83,90
43,55,-11,-52,27,24,86,343,276,211,95,96
49,55,-11,-52,33,24,86,349,288,223,107,102
61,55,-17,-58,45,24,86,355,294,229,113,108
73,61,-17,-64,51,24,80,361,300,235,119,114
79,73,-11,-76,51,36,80,367,312,241,125,120
73,79,12,-76,33,48,80,379,330,253,137,132
67,79,24,-76,21,48,80,391,348,265,143,144
67,79,24,-76,21,48,74,397,360,271,149,144
67,79,24,-76,21,48,74,403,366,277,155,144
73,85,24,-82,27,48,74,403,372,277,155,144
73,97,24,-88,27,54,74,409,384,289,161,150
73,103,24,-94,27,60,74,415,396,301,173,162
79,115,24,-100,27,60,74,415,408,313,185,174
85,121,30,-106,27,66,68,415,420,325,191,180
91,127,30,-112,27,72,68,415,426,337,197,186
97,133,30,-118,27,72,68,415,432,343,197,186
97,139,30,-124,27,78,68,415,438,343,197,186
97,145,30,-130,27,84,68,415,444,349,203,192
97,145,30,-130,33,84,62,415,444,355,209,192
97,145,30,-130,39,84,56,415,450,361,209,192
97,145,30,-130,39,90,50,415,450,361,209,198
97,151,36,-130,39,96,44,415,450,361,209,198
97,151,36,-130,39,96,44,415,450,361,209,198
97,151,36,-130,39,96,44,415,450,361,209,198
97,157,42,-130,39,96,38,409,450,361,209,198
97,157,42,-130,39,96,32,403,450,361,215,198
103,157,42,-130,39,96,26,403,450,361,221,198
109,157,42,-136,39,96,26,397,450,361,221,198
115,157,42,-136,39,96,20,391,450,361,221,198
115,157,42,-136,39,96,20,385,450,361,221,198
115,157,42,-136,39,96,20,379,450,367,221,204
115,163,42,-142,39,96,20,373,450,367,221,210
121,169,48,-148,39,102,20,367,450,367,221,210
121,175,48,-154,39,102,20,361,450,367,221,216
127,181,48,-154,39,102,20,361,450,367,221,216
127,187,54,-160,39,108,20,355,450,367,221,216
127,187,60,-160,39,114,20,349,444,367,221,216
121,187,60,-160,39,114,20,337,432,367,221,216
109,187,66,-154,33,114,20,325,420,361,215,210
97,187,72,-148,21,114,20,313,402,349,209,204
97,181,72,-142,21,114,20,301,378,337,203,198
97,181,72,-142,21,114,20,283,354,325,197,192
91,175,72,-136,15,114,20,271,330,319,191,186
85,163,72,-124,9,114,20,265,318,313,191,186
79,151,72,-112,3,114,20,253,294,307,185,180
73,139,72,-106,3,108,20,235,270,289,173,168
67,127,72,-100,3,102,20,205,240,259,143,156
55,115,72,-88,3,90,20,175,210,247,113,144
43,97,72,-70,-3,78,20,163,180,223,95,126
31,91,72,-64,-3,72,20,151,162,211,83,114
19,79,72,-52,-8,66,20,139,144,199,77,108
7,67,72,-40,-14,60,20,127,126,187,71,102
-4,55,66,-28,-14,54,20,109,102,175,65,96
-10,43,66,-22,-14,54,20,91,78,163,59,90
-16,37,66,-16,-20,48,20,79,60,151,53,84
-22,25,60,-5,-26,42,20,67,48,139,41,72
-28,13,54,1,-26,36,20,61,42,133,35,66
-28,7,42,7,-26,24,20,49,30,127,29,60
-28,1,36,7,-26,18,20,37,18,121,23,54
-28,1,30,7,-26,12,20,25,6,109,11,48
-28,-4,24,7,-26,6,20,13,-5,97,-1,42
-28,-10,24,13,-26,6,20,7,-17,91,-6,36
-28,-16,18,13,-26,0,20,-4,-29,85,-12,24
-28,-22,12,13,-26,-5,20,-10,-35,79,-18,18
-28,-28,12,19,-26,-11,20,-10,-41,73,-24,12
-28,-28,12,19,-26,-11,20,-10,-47,67,-24,12
-28,-28,6,19,-20,-17,20,-10,-47,61,-30,12
-28,-40,0,25,-14,-29,20,-10,-53,55,-36,12
-34,-46,-5,31,-14,-35,26,-10,-59,55,-36,12
-34,-46,-5,31,-14,-35,26,-16,-59,55,-36,12
-34,-52,-5,31,-14,-35,26,-16,-65,55,-36,12
-34,-52,-5,31,-14,-35,26,-16,-65,55,-36,6
-34,-52,-5,31,-14,-35,26,-16,-65,55,-42,0
-34,-52,-5,37,-14,-35,26,-16,-65,55,-42,0
-34,-52,-5,37,-14,-35,26,-16,-65,55,-42,0
-34,-52,-5,37,-14,-35,26,-16,-71,55,-42,-5
-34,-52,-5,37,-14,-35,26,-16,-71,55,-42,-11
-40,-52,-5,37,-14,-35,26,-16,-71,55,-42,-11
-40,-52,-5,37,-14,-35,26,-16,-71,55,-42,-11
-40,-52,-11,37,-14,-35,26,-16,-71,55,-42,-11
-40,-52,-11,37,-14,-35,32,-16,-71,55,-42,-11
-40,-52,-11,43,-14,-35,38,-10,-71,55,-42,-11
-40,-58,-11,43,-14,-41,44,-4,-65,55,-42,-11
-40,-58,-11,43,-14,-41,50,-4,-65,55,-42,-11
-40,-52,-11,37,-14,-35,50,-4,-65,55,-42,-11
-40,-52,-11,37,-14,-35,50,1,-65,55,-42,-11
-40,-52,-11,37,-14,-35,56,7,-65,55,-42,-11
-34,-52,-17,37,-14,-35,62,7,-65,55,-42,-11
-34,-52,-17,37,-14,-35,62,7,-65,55,-42,-11
-34,-46,-17,37,-14,-35,62,7,-65,55,-48,-11
-34,-46,-17,37,-14,-35,62,13,-65,55,-48,-11
-34,-46,-17,37,-14,-35,62,19,-65,55,-48,-11
-34,-46,-17,37,-14,-35,62,19,-65,55,-48,-11
-34,-46,-17,37,-14,-35,56,19,-65,49,-48,-11
-34,-46,-17,37,-14,-35,56,19,-65,49,-48,-17
-34,-52,-17,43,-14,-35,56,19,-65,43,-54,-23
-40,-58,-17,49,-14,-35,56,19,-65,43,-54,-23
-40,-58,-17,49,-14,-35,50,19,-65,43,-54,-23
-40,-58,-17,49,-14,-35,44,19,-65,37,-54,-23
-40,-58,-17,49,-14,-35,44,19,-65,37,-54,-23
-40,-58,-17,49,-14,-35,44,19,-65,37,-54,-23
-40,-52,-11,49,-20,-35,44,19,-65,37,-54,-23
-40,-52,-5,49,-26,-35,44,19,-65,37,-54,-23
-40,-52,-5,49,-26,-35,44,19,-65,37,-54,-23
-40,-52,-5,49,-26,-35,44,19,-65,37,-54,-17
-40,-52,-11,49,-20,-35,44,19,-65,37,-54,-11
-40,-52,-17,49,-14,-35,44,13,-65,37,-54,-5
-40,-52,-23,49,-8,-35,44,7,-65,37,-54,-5
-40,-52,-23,49,-8,-35,44,7,-65,37,-54,-5
-40,-52,-23,49,-8,-35,44,1,-65,37,-54,-11
-34,-52,-29,49,-3,-41,44,-4,-65,37,-54,-11
-34,-52,-35,49,-3,-41,44,-4,-65,37,-54,-11
-40,-52,-29,49,-8,-41,44,-4,-65,37,-54,-11
-46,-52,-17,49,-14,-35,44,-10,-65,37,-54,-11
-46,-52,-17,49,-14,-35,44,-10,-65,37,-54,-11
-46,-52,-17,49,-14,-35,44,-16,-65,37,-54,-17
-40,-52,-17,49,-14,-35,44,-16,-65,37,-54,-17
-40,-52,-17,49,-14,-35,44,-22,-65,37,-54,-17
-40,-52,-17,49,-14,-35,44,-22,-65,37,-54,-17
-40,-52,-17,49,-14,-35,44,-22,-65,37,-54,-17
-40,-52,-17,49,-14,-35,44,-22,-65,37,-54,-17
-40,-52,-17,49,-14,-35,44,-22,-65,37,-54,-17
-40,-52,-17,43,-14,-35,44,-28,-71,37,-54,-17
-34,-46,-17,43,-14,-35,44,-34,-77,37,-54,-17
-34,-46,-17,43,-14,-35,44,-40,-77,37,-54,-17
-34,-46,-17,43,-14,-35,44,-40,-83,37,-54,-17
-34,-46,-17,43,-14,-35,44,-40,-83,37,-54,-17
-34,-46,-17,43,-14,-35,44,-40,-83,37,-54,-17
-34,-46,-11,43,-14,-29,44,-46,-83,37,-54,-17
-34,-46,-11,43,-20,-23,44,-46,-83,31,-54,-17
-34,-46,-11,43,-20,-23,44,-46,-83,31,-54,-17
-34,-40,-5,43,-20,-23,44,-46,-83,31,-54,-17
-34,-28,-5,37,-20,-17,44,-46,-83,31,-54,-17
-34,-16,0,31,-20,-11,44,-46,-83,31,-54,-17
-34,-10,12,31,-26,-5,44,-40,-83,31,-54,-17
-34,-4,24,31,-32,0,50,-34,-83,31,-48,-17
-34,1,30,25,-32,6,50,-34,-77,31,-48,-17
-34,7,36,19,-32,12,50,-28,-71,31,-42,-17
-34,13,42,13,-38,18,50,-28,-71,31,-42,-11
-34,13,48,13,-44,18,56,-28,-71,37,-36,-5
-34,13,48,13,-44,18,62,-28,-71,43,-30,0
-34,13,48,13,-44,24,62,-28,-71,43,-30,0
-34,25,54,7,-44,30,62,-28,-71,43,-30,0
-34,31,66,7,-50,42,62,-28,-71,43,-30,0
-34,43,90,7,-62,54,68,-28,-65,43,-30,0
-34,55,96,1,-62,66,74,-22,-59,55,-24,6
-34,67,96,-10,-62,72,86,-16,-53,67,-12,18
-28,91,108,-22,-62,90,92,-10,-53,67,-12,24
-22,103,114,-34,-62,102,92,-10,-53,67,-12,30
-22,103,120,-40,-68,114,92,-10,-53,73,-6,30
-22,109,132,-40,-74,126,98,-10,-47,79,-1,36
-22,121,144,-46,-80,138,98,-4,-41,85,5,42
-22,133,156,-52,-86,150,98,-4,-41,91,11,48
-22,145,162,-58,-86,156,86,-4,-41,91,11,54
-22,151,162,-58,-86,156,80,-10,-41,91,11,54
-22,157,168,-58,-92,162,74,-16,-41,91,11,54
-22,157,180,-58,-98,168,68,-16,-41,91,17,60
-22,157,180,-58,-98,168,62,-16,-41,97,23,66
-16,163,180,-58,-98,168,56,-22,-41,97,23,66
-16,163,174,-58,-98,168,56,-28,-41,97,23,66
-16,157,168,-58,-98,162,56,-34,-41,97,17,66
-16,151,162,-58,-92,156,56,-34,-41,91,11,60
-16,139,156,-52,-92,144,50,-34,-47,85,-1,48
-16,115,144,-40,-92,126,50,-34,-53,79,-6,36
-16,91,126,-28,-86,96,50,-34,-59,73,-12,30
-22,61,102,-16,-80,66,50,-40,-71,61,-18,24
-22,25,66,-5,-68,30,44,-52,-83,43,-30,12
-28,-4,42,7,-56,12,38,-58,-95,31,-42,0
-34,-16,30,19,-50,0,32,-64,-101,19,-48,-5
-40,-28,24,31,-50,-5,26,-70,-107,13,-60,-11
-40,-40,18,37,-50,-11,26,-76,-113,7,-66,-17
-40,-46,12,43,-44,-17,26,-82,-113,7,-66,-23
-46,-52,6,49,-44,-23,20,-88,-113,1,-66,-29
-46,-58,0,55,-44,-35,14,-94,-113,1,-72,-29
-46,-70,-5,61,-44,-47,8,-94,-113,-4,-78,-35
-46,-70,-11,61,-44,-47,2,-100,-119,-10,-84,-41
-46,-70,-17,61,-38,-47,2,-106,-125,-16,-84,-41
-46,-70,-17,61,-38,-47,2,-106,-125,-16,-90,-47
-46,-70,-17,61,-38,-47,2,-106,-131,-22,-96,-53
-46,-70,-17,61,-38,-47,-3,-106,-131,-22,-102,-59
-46,-70,-17,61,-32,-47,-3,-106,-137,-22,-102,-59
-46,-70,-17,61,-26,-47,-3,-106,-137,-22,-102,-59
-46,-70,-17,61,-26,-47,-3,-106,-137,-22,-102,-59
-46,-70,-17,61,-26,-47,-3,-106,-137,-22,-102,-59
-46,-70,-17,61,-26,-47,-9,-106,-137,-22,-102,-59
-46,-70,-17,61,-26,-47,-9,-106,-137,-28,-102,-65
-52,-82,-17,67,-26,-53,-9,-106,-137,-28,-102,-65
-58,-88,-23,73,-26,-65,-9,-106,-137,-28,-102,-65
-58,-88,-23,73,-26,-65,-9,-106,-143,-34,-102,-65
-58,-88,-23,73,-26,-65,-9,-106,-149,-34,-108,-71
-58,-88,-23,73,-26,-65,-9,-106,-149,-34,-114,-71
-64,-88,-23,79,-26,-65,-9,-106,-149,-34,-114,-71
-64,-88,-29,79,-26,-65,-9,-112,-149,-34,-114,-71
-64,-88,-29,79,-26,-65,-9,-118,-149,-34,-114,-71
-58,-88,-29,73,-20,-65,-9,-124,-149,-40,-120,-77
-58,-88,-35,73,-14,-65,-9,-124,-149,-40,-120,-77
-58,-88,-35,73,-14,-65,-15,-124,-155,-40,-120,-77
-58,-88,-35,73,-14,-65,-15,-124,-155,-40,-120,-77
-58,-88,-35,73,-14,-65,-15,-124,-155,-40,-120,-77
-58,-88,-35,73,-14,-65,-15,-124,-155,-40,-120,-77
-58,-94,-35,73,-14,-65,-15,-124,-155,-40,-120,-71
-58,-94,-35,73,-14,-65,-15,-124,-155,-40,-120,-71
-58,-94,-35,73,-14,-65,-21,-124,-161,-46,-120,-71
-58,-94,-35,73,-14,-65,-21,-124,-161,-46,-120,-71
-58,-94,-35,73,-14,-65,-21,-124,-161,-46,-120,-71
-58,-94,-35,73,-14,-65,-21,-124,-161,-46,-120,-71
-58,-94,-35,73,-14,-65,-21,-124,-161,-46,-120,-71
-58,-88,-35,67,-14,-59,-21,-124,-161,-46,-120,-71
-58,-88,-35,67,-14,-59,-21,-124,-161,-46,-120,-71
-58,-88,-41,67,-14,-59,-21,-124,-161,-46,-120,-71
-58,-88,-41,67,-14,-59,-21,-124,-161,-46,-120,-71
-58,-88,-41,67,-14,-59,-21,-124,-161,-46,-120,-71
-58,-88,-41,67,-14,-59,-21,-124,-167,-52,-120,-77
-58,-88,-41,67,-14,-59,-21,-124,-173,-58,-126,-83
-58,-94,-41,67,-14,-59,-21,-124,-173,-58,-126,-83
-58,-100,-47,67,-14,-65,-15,-118,-173,-58,-126,-83
-58,-100,-47,67,-14,-65,-3,-106,-173,-58,-126,-83
-58,-100,-47,67,-14,-65,20,-76,-173,-58,-126,-83
-58,-100,-53,67,-8,-71,50,-40,-173,-58,-126,-83
-58,-106,-53,67,-8,-77,80,1,-173,-58,-126,-83
-64,-106,-41,67,-14,-71,98,37,-167,-58,-126,-83
-64,-94,-35,67,-14,-65,110,79,-155,-58,-126,-83
-52,-82,-35,61,-14,-65,146,151,-113,-46,-120,-83
-22,-46,-35,43,-8,-53,218,235,-11,25,-78,-59
13,55,6,-28,-8,30,260,295,120,151,41,18
67,223,108,-148,-14,162,266,295,246,307,191,138
133,421,240,-280,-26,324,236,175,318,481,383,306
163,589,378,-376,-68,480,86,-142,348,655,551,468
169,703,510,-418,-146,618,-99,-520,360,769,683,600
169,805,648,-460,-218,720,-321,-880,366,865,785,702
169,937,762,-526,-266,858,-597,-1204,390,949,875,810
169,1003,810,-574,-296,906,-891,-1444,426,1009,947,876
175,991,798,-574,-296,888,-1125,-1534,492,1015,947,876
175,751,570,-502,-218,648,-1227,-1528,552,955,863,798
175,439,264,-328,-80,348,-1221,-1438,552,703,605,564
145,145,42,-148,-8,96,-1107,-1390,390,397,311,312
61,-82,-83,13,15,-83,-1005,-1390,0,91,47,114
-4,-214,-149,109,27,-179,-963,-1408,-419,-154,-162,-41
-34,-274,-191,151,39,-227,-945,-1408,-677,-292,-276,-143
-52,-316,-221,181,45,-257,-903,-1348,-725,-322,-306,-173
-52,-328,-245,187,57,-281,-819,-1174,-725,-322,-306,-185
-52,-334,-269,187,87,-305,-711,-1012,-683,-322,-306,-191
-52,-346,-293,193,99,-317,-633,-868,-605,-316,-306,-203
-52,-358,-305,193,111,-329,-549,-718,-521,-304,-306,-209
-52,-358,-311,193,117,-329,-465,-598,-455,-292,-306,-209
-46,-352,-311,193,123,-329,-387,-496,-401,-262,-294,-209
-40,-340,-305,187,123,-323,-327,-418,-347,-226,-282,-209
-40,-316,-293,181,123,-305,-267,-352,-299,-196,-258,-203
-40,-286,-263,169,111,-275,-237,-304,-269,-172,-234,-197
-40,-268,-245,157,105,-245,-207,-268,-251,-154,-222,-185
-34,-244,-233,145,105,-233,-177,-238,-239,-142,-210,-173
-28,-214,-215,121,99,-221,-153,-214,-227,-130,-192,-155
-28,-184,-179,109,87,-191,-135,-184,-215,-118,-174,-143
-28,-148,-113,97,57,-137,-117,-154,-197,-106,-162,-131
-28,-124,-83,85,33,-95,-87,-130,-179,-94,-150,-119
-28,-124,-83,79,33,-95,-63,-100,-161,-82,-138,-107
-28,-124,-83,79,33,-95,-51,-76,-149,-64,-126,-95
-34,-124,-77,79,27,-89,-39,-64,-137,-58,-120,-89
-34,-112,-71,73,21,-77,-33,-58,-125,-52,-114,-83
-28,-100,-71,61,21,-77,-27,-52,-119,-52,-114,-83
-28,-88,-71,55,21,-71,-21,-46,-113,-52,-114,-77
-22,-82,-65,55,21,-71,-9,-40,-113,-52,-114,-71
-22,-76,-59,49,21,-65,-3,-34,-107,-52,-114,-71
-22,-76,-59,49,21,-65,2,-28,-101,-52,-114,-71
-22,-76,-59,49,21,-65,8,-22,-95,-52,-114,-71
-22,-76,-59,49,21,-59,8,-22,-89,-52,-114,-71
-16,-64,-53,37,21,-53,8,-22,-89,-52,-114,-71
-4,-58,-53,31,27,-53,8,-22,-83,-46,-108,-71
-4,-58,-53,31,27,-53,14,-16,-71,-40,-96,-65
-16,-52,-29,31,3,-41,20,-4,-59,-28,-84,-59
-28,-52,-11,37,-8,-35,26,1,-47,-16,-78,-53
-28,-52,-11,37,-14,-35,26,1,-47,-16,-78,-53
-28,-46,-5,37,-14,-29,26,1,-47,-16,-78,-47
-28,-46,-5,37,-14,-29,26,1,-41,-10,-78,-41
-28,-46,-5,37,-14,-29,26,1,-41,-4,-78,-41
-28,-46,-5,37,-14,-29,26,1,-41,-4,-78,-41
-28,-46,-5,37,-14,-29,26,1,-41,-4,-78,-41
-28,-46,-5,37,-14,-29,26,1,-41,-4,-78,-41
-28,-46,-5,37,-14,-29,26,1,-41,-4,-78,-41
-28,-46,-5,37,-14,-29,26,1,-41,-4,-78,-41
-28,-40,-5,37,-14,-29,26,1,-35,-4,-78,-41
-28,-40,-5,37,-14,-23,26,7,-29,-4,-78,-41
-28,-40,-5,37,-14,-23,26,13,-23,-4,-78,-41
-28,-34,-5,37,-14,-17,26,19,-17,-4,-78,-41
-28,-28,-5,37,-14,-17,26,25,-11,-4,-72,-41
-28,-28,0,37,-14,-11,26,25,-5,-4,-66,-41
-28,-28,0,31,-14,-11,26,31,0,-4,-66,-41
-28,-22,0,25,-14,-5,26,37,0,-4,-66,-41
-22,-16,6,19,-14,0,26,43,0,-4,-66,-41
-22,-16,6,19,-14,0,26,43,6,1,-60,-41
-22,-16,6,19,-14,0,26,49,12,7,-54,-41
-22,-10,6,13,-14,0,26,55,12,7,-54,-41
-22,-4,6,7,-14,6,26,61,12,7,-54,-41
-22,-4,6,7,-14,6,32,67,12,7,-48,-41
-22,-4,6,7,-14,6,38,73,12,13,-42,-41
-22,-4,6,7,-14,6,38,79,12,13,-42,-35
-22,-4,6,7,-14,6,38,85,12,13,-42,-35
-22,-4,12,7,-14,12,38,97,18,13,-42,-29
-22,1,12,1,-14,12,44,109,24,19,-36,-29
-16,1,12,1,-14,12,44,115,30,19,-30,-29
-16,7,12,1,-14,18,44,121,30,19,-30,-29
-10,13,12,-5,-14,24,44,127,36,25,-24,-29
-4,19,12,-10,-14,24,44,133,42,31,-18,-29
-4,25,18,-10,-14,24,44,139,48,37,-18,-29
-4,31,24,-10,-14,30,44,145,54,37,-18,-29
-4,31,24,-10,-14,30,44,151,54,37,-18,-29
1,31,24,-10,-14,30,44,151,60,37,-18,-29
7,37,24,-16,-14,30,44,157,66,37,-18,-29
13,43,24,-28,-14,36,44,163,72,43,-18,-29
13,49,36,-34,-14,42,44,169,78,49,-18,-29
13,49,36,-34,-14,48,44,181,84,55,-18,-23
13,49,36,-34,-14,48,50,193,96,55,-12,-23
13,61,42,-34,-20,54,50,199,102,55,-6,-17
13,73,48,-40,-20,60,50,205,108,61,-1,-11
13,79,54,-40,-20,66,56,217,126,73,11,-5
19,85,54,-46,-20,72,62,229,138,85,23,6
25,91,54,-58,-20,78,68,241,156,97,29,12
25,91,54,-58,-20,78,68,253,174,109,35,18
25,91,60,-58,-20,78,68,265,192,115,41,24
31,97,60,-58,-20,84,68,277,210,127,47,30
37,97,60,-58,-20,84,68,283,222,133,53,36
37,97,60,-64,-20,84,68,289,234,139,59,36
37,109,66,-70,-20,90,68,295,240,139,59,36
37,115,66,-70,-20,90,74,301,246,139,59,36
43,115,66,-76,-20,90,74,313,258,145,65,36
49,127,66,-88,-20,96,74,319,264,151,71,36
55,133,66,-94,-20,102,74,325,270,157,77,36
55,139,72,-94,-20,108,74,331,282,163,77,36
55,151,84,-94,-26,114,74,343,294,169,77,42
55,151,90,-94,-26,120,74,355,318,175,83,54
61,157,90,-100,-26,120,74,367,330,181,89,66
67,163,96,-106,-26,126,74,373,342,193,95,72
67,163,96,-112,-26,132,74,379,354,199,101,78
67,163,96,-118,-26,132,74,385,360,211,113,84
73,169,96,-124,-20,132,74,391,372,223,137,90
79,175,96,-130,-14,132,74,391,378,229,149,96
79,181,96,-136,-14,138,74,397,390,235,155,102
79,187,102,-136,-14,144,74,403,402,247,167,114
79,193,108,-142,-14,150,74,409,414,253,179,120
91,211,114,-154,-14,162,68,409,420,253,179,120
103,223,114,-160,-14,168,62,409,426,259,179,120
109,223,114,-160,-14,168,62,409,432,265,179,120
109,229,120,-166,-14,174,62,415,438,277,185,126
109,235,126,-166,-20,180,62,415,444,283,191,126
109,235,132,-172,-20,186,56,415,450,289,191,126
109,241,132,-172,-20,192,56,415,456,289,191,126
109,241,132,-172,-20,192,56,415,456,295,197,132
109,241,132,-172,-20,192,56,415,462,295,203,138
109,241,132,-172,-20,192,50,415,468,295,209,144
109,241,132,-172,-20,192,44,415,468,295,209,144
109,241,132,-178,-20,192,44,415,468,295,209,144
109,247,132,-178,-20,192,44,415,468,295,209,150
109,253,132,-178,-20,192,44,415,468,301,215,150
109,253,132,-178,-20,192,44,415,474,301,215,156
115,253,132,-178,-20,192,44,415,480,301,215,156
115,253,132,-184,-20,192,44,415,480,301,215,156
115,253,138,-184,-20,192,44,415,480,301,215,156
115,253,138,-184,-20,192,44,415,480,301,215,156
115,253,138,-184,-20,192,44,409,480,301,215,156
115,259,138,-184,-20,198,44,403,480,301,215,156
115,259,138,-184,-20,204,38,397,480,301,215,156
115,259,138,-184,-20,204,38,391,474,301,215,156
115,259,138,-184,-20,204,38,379,468,301,215,156
115,259,138,-184,-20,204,38,367,456,289,209,150
115,259,138,-184,-20,204,32,355,444,283,203,150
115,259,138,-184,-20,204,32,343,432,277,203,144
115,259,138,-184,-20,204,32,331,420,271,191,138
115,259,144,-184,-20,204,32,307,390,259,179,132
115,259,144,-184,-26,204,32,295,360,247,173,120
103,253,144,-178,-26,204,32,289,348,241,167,114
91,241,144,-166,-32,198,32,277,336,229,155,108
79,229,144,-154,-38,198,32,259,306,205,149,102
67,211,144,-142,-44,192,32,223,270,187,137,96
67,205,144,-136,-44,180,32,199,234,175,119,84
61,193,144,-130,-44,168,32,187,216,163,107,78
43,181,144,-106,-50,162,32,175,198,151,95,66
25,157,144,-88,-62,156,32,157,168,139,83,60
13,145,138,-76,-62,144,32,139,150,127,77,48
7,133,132,-70,-62,138,32,127,132,115,71,36
1,127,132,-64,-62,132,32,115,108,103,59,30
1,115,120,-58,-62,120,32,97,90,85,47,24
1,115,114,-58,-62,114,32,85,66,67,35,12
1,109,108,-58,-62,114,32,61,42,55,17,0
1,103,102,-58,-62,108,32,49,24,43,5,-5
1,103,102,-58,-62,108,32,37,6,37,-1,-5
-10,97,102,-46,-74,108,32,25,-5,25,-6,-11
-22,91,102,-34,-80,102,32,13,-17,13,-18,-23
-22,79,102,-28,-80,90,32,-4,-35,-4,-30,-35
-22,67,96,-22,-80,78,26,-16,-47,-16,-42,-41
-22,61,84,-22,-74,72,26,-22,-59,-22,-48,-47
-22,55,78,-22,-68,72,26,-28,-65,-28,-54,-53
-28,49,78,-10,-68,72,26,-28,-71,-34,-60,-59
-34,43,78,1,-68,72,26,-28,-71,-34,-60,-59
-34,37,78,1,-68,72,26,-34,-77,-34,-60,-65
-34,37,78,1,-68,72,26,-40,-83,-40,-60,-71
-34,37,78,1,-68,66,26,-40,-89,-46,-60,-71
-34,37,78,1,-68,66,26,-40,-89,-46,-60,-71
-40,37,78,1,-68,66,26,-40,-89,-46,-60,-71
-40,37,78,1,-68,60,26,-40,-89,-46,-60,-71
-40,31,72,1,-68,54,26,-40,-95,-46,-60,-71
-40,31,72,1,-68,54,26,-40,-95,-46,-60,-71
-46,31,72,1,-68,54,26,-40,-95,-46,-60,-71
-52,31,72,7,-68,54,26,-40,-95,-52,-60,-71
-52,25,72,7,-68,54,26,-40,-95,-52,-60,-71
-52,19,66,7,-68,48,26,-40,-95,-52,-60,-71
-52,13,60,13,-68,42,26,-40,-95,-52,-60,-71
-52,7,54,19,-68,36,26,-40,-95,-52,-66,-71
-52,7,54,19,-68,36,26,-40,-101,-58,-66,-71
-52,7,54,19,-68,36,26,-40,-107,-58,-66,-71
-52,7,54,19,-68,36,26,-40,-107,-58,-72,-71
-52,7,54,19,-68,36,26,-40,-107,-64,-78,-71
-52,7,54,19,-62,36,26,-34,-107,-64,-78,-77
-52,7,54,19,-62,36,26,-34,-113,-64,-78,-77
-52,7,54,19,-62,36,26,-34,-113,-64,-78,-77
-52,7,54,19,-62,36,26,-34,-113,-70,-84,-77
-46,7,54,19,-56,36,26,-34,-113,-76,-90,-83
-46,7,54,19,-56,36,26,-34,-113,-76,-90,-89
-46,7,54,19,-56,36,32,-28,-113,-76,-90,-89
-46,7,54,19,-56,36,38,-28,-113,-76,-90,-89
-46,7,54,13,-56,36,38,-28,-113,-76,-90,-89
-40,7,48,7,-50,36,44,-28,-113,-76,-90,-89
-34,7,42,7,-44,36,44,-22,-107,-76,-84,-83
-34,7,42,7,-44,36,44,-16,-107,-76,-84,-83
-28,7,36,7,-38,36,44,-16,-107,-76,-84,-83
-28,7,36,7,-38,36,44,-16,-107,-76,-84,-83
-28,13,42,7,-38,36,44,-16,-107,-76,-84,-83
-28,13,42,7,-38,36,44,-16,-107,-76,-84,-83
-28,7,36,7,-38,30,44,-16,-107,-76,-84,-83
-28,7,30,7,-38,24,44,-16,-107,-76,-84,-83
-28,7,30,7,-38,24,44,-16,-107,-76,-84,-83
-28,7,30,7,-38,24,44,-16,-107,-76,-84,-83
-34,7,30,13,-38,24,44,-16,-107,-76,-84,-83
-40,7,30,13,-38,24,44,-16,-107,-76,-84,-83
-40,7,36,13,-38,24,44,-16,-107,-76,-84,-83
-40,7,42,13,-44,30,44,-16,-107,-76,-84,-83
-40,13,48,13,-44,36,44,-16,-107,-76,-84,-83
-34,13,48,13,-44,36,44,-16,-107,-76,-84,-83
-34,13,48,13,-44,36,44,-22,-107,-76,-84,-83
-34,13,48,13,-44,36,44,-22,-107,-76,-84,-83
-34,13,48,13,-44,36,44,-22,-107,-76,-84,-83
-34,13,48,13,-44,36,44,-22,-107,-76,-84,-83
-34,13,48,13,-44,36,44,-22,-107,-76,-84,-83
-34,7,42,13,-44,30,44,-22,-107,-76,-84,-83
-34,1,36,13,-44,24,44,-22,-107,-76,-84,-83
-34,1,36,13,-44,24,44,-22,-107,-76,-84,-77
-34,1,36,13,-44,24,44,-22,-107,-76,-78,-71
-34,-10,36,19,-44,18,44,-22,-107,-76,-72,-71
-34,-22,24,25,-38,6,44,-22,-107,-76,-72,-71
-34,-28,18,25,-38,-5,44,-22,-107,-76,-72,-71
-34,-28,18,25,-38,-11,44,-22,-107,-76,-66,-65
-34,-34,12,25,-38,-11,44,-28,-107,-76,-66,-65
-34,-40,6,31,-32,-17,44,-34,-107,-76,-66,-65
-34,-46,0,37,-32,-23,44,-34,-107,-76,-66,-65
-34,-52,-5,43,-32,-29,44,-34,-107,-76,-66,-65
-34,-52,-11,43,-32,-29,44,-34,-107,-76,-66,-65
-34,-52,-17,43,-32,-29,44,-40,-107,-76,-66,-65
-34,-58,-23,43,-26,-35,44,-46,-107,-82,-72,-71
-34,-64,-23,43,-26,-41,44,-52,-113,-88,-78,-71
-34,-64,-23,43,-26,-41,44,-52,-113,-88,-78,-71
-34,-64,-23,43,-26,-41,44,-52,-113,-88,-78,-71
-34,-64,-23,49,-20,-41,44,-52,-113,-88,-78,-65
-34,-64,-23,49,-20,-41,44,-52,-113,-88,-78,-65
-34,-64,-23,49,-20,-41,44,-52,-113,-88,-78,-65
-34,-70,-23,49,-20,-41,44,-52,-113,-88,-78,-65
-34,-70,-23,49,-20,-41,44,-52,-113,-88,-78,-65
-34,-70,-23,49,-20,-41,44,-52,-113,-88,-78,-71
-34,-70,-23,49,-20,-41,44,-52,-113,-88,-78,-71
-34,-70,-23,49,-20,-41,44,-52,-113,-88,-78,-71
-34,-70,-23,49,-20,-41,44,-52,-113,-88,-78,-71
-34,-70,-23,49,-20,-41,44,-52,-119,-88,-78,-71
-34,-70,-29,49,-14,-47,44,-52,-125,-88,-78,-71
-34,-70,-29,49,-14,-47,44,-52,-131,-88,-78,-71
-34,-70,-29,49,-14,-47,44,-58,-137,-88,-78,-71
-34,-70,-29,49,-14,-47,44,-58,-137,-88,-78,-71
-34,-70,-29,49,-14,-47,44,-58,-137,-88,-78,-71
-34,-70,-29,49,-14,-47,44,-58,-137,-88,-78,-71
-34,-70,-29,49,-14,-47,44,-64,-137,-88,-84,-71
-40,-70,-29,49,-14,-47,44,-64,-137,-88,-84,-71
-46,-70,-29,55,-14,-47,44,-64,-137,-88,-84,-71
-46,-76,-29,55,-14,-53,44,-64,-137,-94,-84,-71
-46,-82,-35,61,-14,-59,44,-64,-137,-100,-84,-71
-46,-82,-41,61,-14,-59,44,-64,-137,-100,-84,-71
-46,-82,-41,61,-14,-59,44,-64,-137,-100,-84,-71
-46,-88,-53,61,-8,-71,44,-64,-137,-100,-84,-71
-46,-100,-59,61,-3,-77,44,-64,-137,-100,-84,-71
-46,-100,-59,61,-3,-77,44,-64,-137,-100,-84,-71
-46,-100,-59,61,-3,-77,44,-64,-137,-94,-78,-71
-46,-100,-53,61,-3,-77,44,-64,-137,-94,-72,-71
-46,-94,-41,61,-8,-71,44,-58,-137,-94,-72,-71
-46,-88,-35,61,-8,-65,50,-52,-131,-88,-66,-71
-46,-82,-35,61,-8,-59,56,-46,-125,-82,-66,-71
-46,-70,-29,61,-8,-53,62,-40,-119,-76,-66,-65
-46,-58,-29,55,-8,-53,62,-40,-113,-76,-66,-59
-40,-58,-29,55,-8,-53,62,-40,-107,-76,-66,-59
-40,-58,-23,55,-14,-47,62,-40,-107,-76,-66,-59
-40,-58,-11,55,-26,-41,68,-40,-107,-76,-60,-53
-40,-58,-5,55,-26,-35,74,-34,-101,-76,-54,-41
-40,-52,0,49,-26,-29,80,-28,-95,-70,-48,-35
-40,-46,12,43,-26,-17,86,-22,-95,-64,-42,-35
-40,-40,12,37,-26,-17,86,-22,-95,-64,-42,-29
-40,-34,12,31,-26,-17,92,-16,-89,-58,-36,-29
-40,-28,18,31,-26,-11,98,-10,-83,-52,-30,-23
-40,-22,30,31,-38,0,110,-4,-77,-46,-18,-17
-40,1,60,25,-50,24,116,1,-71,-40,-6,-11
-40,31,84,19,-62,48,116,1,-65,-34,-6,-5
-40,43,90,13,-68,60,116,1,-65,-34,-6,0
-40,43,90,7,-68,66,116,1,-65,-28,-6,6
-40,49,90,1,-68,66,116,1,-65,-28,-6,12
-40,49,90,1,-68,66,116,1,-65,-28,-6,18
-40,49,90,-5,-68,72,116,1,-65,-28,-1,24
-40,61,96,-10,-68,78,110,1,-65,-28,5,24
-34,79,108,-22,-68,90,104,1,-65,-22,17,30
-28,91,108,-28,-68,96,98,1,-65,-22,23,30
-28,91,108,-28,-68,96,92,1,-65,-22,29,36
-28,91,108,-28,-68,96,86,1,-65,-22,29,42
-28,91,108,-28,-68,96,80,-4,-65,-22,29,42
-28,91,108,-28,-68,96,74,-10,-65,-22,29,42
-28,91,108,-28,-68,96,74,-16,-65,-22,29,42
-28,79,96,-28,-68,90,74,-16,-65,-22,23,42
-28,67,78,-28,-62,66,74,-16,-65,-28,11,30
-28,49,66,-22,-56,48,68,-22,-71,-40,-1,12
-28,25,54,-10,-50,36,68,-28,-77,-52,-12,0
-28,1,42,1,-44,24,68,-28,-83,-64,-24,-11
-28,-22,30,19,-38,0,62,-34,-89,-82,-30,-17
-28,-52,0,37,-26,-29,56,-40,-101,-94,-42,-23
-28,-64,-23,49,-20,-47,50,-52,-113,-106,-54,-35
-34,-76,-29,55,-20,-53,44,-64,-119,-112,-66,-47
-40,-82,-29,61,-20,-53,44,-76,-125,-112,-72,-53
-46,-88,-29,61,-20,-53,44,-82,-125,-112,-72,-59
-46,-94,-41,67,-14,-65,44,-88,-125,-112,-72,-59
-46,-100,-47,67,-14,-77,38,-88,-131,-124,-78,-65
-52,-112,-53,73,-14,-83,32,-94,-137,-130,-84,-71
-58,-112,-53,79,-14,-83,26,-100,-143,-130,-84,-77
-58,-112,-53,79,-14,-83,20,-100,-143,-136,-90,-77
-58,-112,-53,79,-14,-83,20,-100,-149,-142,-96,-77
-58,-112,-53,79,-8,-83,20,-100,-149,-142,-96,-83
-58,-112,-59,79,-8,-83,20,-100,-149,-142,-96,-83
-52,-112,-65,79,-3,-83,20,-100,-149,-142,-96,-83
-52,-112,-65,79,-3,-89,20,-100,-149,-142,-96,-83
-52,-118,-65,79,-3,-95,20,-100,-149,-148,-96,-83
-52,-118,-71,79,-3,-101,20,-100,-155,-148,-96,-89
-52,-124,-71,79,-3,-101,20,-100,-155,-148,-96,-89
-64,-124,-71,85,-8,-101,20,-100,-155,-148,-96,-83
-64,-130,-71,91,-8,-101,20,-100,-155,-148,-96,-77
-64,-136,-71,91,-8,-101,20,-100,-155,-148,-96,-77
-64,-136,-71,91,-8,-101,20,-106,-155,-148,-96,-77
-64,-136,-71,91,-8,-101,20,-106,-155,-148,-96,-77
-64,-136,-71,91,-3,-107,20,-106,-155,-148,-96,-77
-64,-142,-71,91,-3,-107,20,-106,-155,-148,-96,-77
-64,-142,-71,91,-3,-107,20,-106,-155,-148,-96,-77
-64,-142,-71,91,-3,-107,20,-106,-155,-148,-96,-77
-64,-142,-71,91,-3,-107,20,-106,-155,-148,-96,-77
-64,-142,-77,91,-3,-113,20,-106,-155,-148,-96,-77
-64,-142,-77,91,-3,-113,20,-106,-155,-148,-96,-77
-64,-142,-77,91,-3,-113,20,-106,-155,-148,-96,-77
-64,-142,-83,91,-3,-113,20,-106,-155,-154,-102,-83
-64,-148,-83,97,-3,-119,20,-106,-155,-154,-102,-89
-64,-154,-83,103,-3,-119,20,-106,-155,-154,-102,-89
-64,-154,-83,103,-3,-119,20,-112,-155,-154,-102,-89
-64,-154,-83,103,-3,-119,20,-118,-161,-154,-108,-95
-64,-154,-83,103,-3,-119,20,-118,-161,-154,-108,-95
-64,-154,-83,103,3,-119,20,-118,-161,-154,-108,-95
-64,-154,-83,103,3,-119,20,-118,-161,-154,-102,-95
-64,-154,-83,103,3,-119,20,-118,-161,-154,-102,-95
-64,-154,-83,103,3,-119,20,-118,-161,-154,-102,-95
-64,-154,-83,97,3,-119,20,-118,-161,-154,-102,-95
-64,-154,-89,97,9,-119,20,-118,-161,-154,-102,-95
-58,-154,-101,97,15,-125,20,-118,-161,-154,-102,-95
-58,-154,-101,97,15,-125,20,-118,-161,-154,-102,-95
-58,-154,-101,103,9,-125,20,-118,-161,-154,-102,-95
-58,-154,-101,103,9,-125,20,-118,-161,-154,-102,-95
-64,-154,-95,103,9,-125,26,-112,-161,-154,-108,-95
-76,-160,-89,109,3,-125,38,-94,-161,-154,-114,-101
-76,-160,-89,109,3,-125,68,-64,-161,-160,-120,-107
-76,-160,-89,109,3,-125,104,-4,-161,-160,-126,-113
-76,-154,-89,103,3,-119,134,43,-161,-160,-126,-113
-70,-148,-89,103,3,-113,152,85,-155,-160,-126,-113
-64,-142,-89,97,3,-107,182,139,-131,-154,-120,-113
-52,-130,-89,85,9,-101,230,187,-83,-130,-108,-101
-16,-64,-77,25,9,-77,284,241,24,-34,-24,-59
43,97,0,-88,9,42,308,271,168,115,119,66
103,283,114,-202,9,192,308,265,282,283,281,204
157,457,246,-316,-8,354,230,55,348,451,461,366
187,637,396,-412,-56,516,62,-250,390,595,635,546
193,769,540,-484,-134,648,-129,-592,420,727,773,672
193,871,666,-520,-200,768,-369,-910,450,823,869,774
199,967,744,-568,-236,858,-681,-1192,498,901,959,864
217,991,750,-604,-236,876,-963,-1378,558,943,989,888
241,931,654,-598,-212,786,-1167,-1414,636,943,983,882
241,613,360,-460,-80,492,-1209,-1396,666,805,815,720
211,259,90,-250,15,168,-1185,-1318,642,523,521,462
103,-4,-59,-58,45,-35,-1077,-1312,342,187,233,222
25,-178,-155,73,63,-167,-1035,-1330,-89,-100,-12,36
-22,-298,-239,151,75,-275,-987,-1354,-449,-310,-174,-101
-52,-364,-287,193,93,-323,-921,-1348,-641,-406,-258,-167
-58,-394,-323,211,105,-353,-849,-1258,-677,-424,-288,-203
-58,-406,-347,217,123,-365,-753,-1096,-677,-430,-294,-215
-52,-418,-371,223,147,-395,-651,-928,-629,-430,-294,-221
-52,-442,-401,229,165,-425,-561,-784,-551,-424,-294,-233
-46,-442,-413,229,171,-431,-495,-658,-479,-400,-294,-233
-40,-436,-413,223,177,-431,-405,-556,-425,-370,-288,-233
-34,-400,-395,211,177,-401,-339,-466,-365,-340,-276,-233
-28,-358,-353,187,177,-359,-285,-388,-317,-304,-252,-221
-22,-328,-323,175,171,-329,-225,-322,-275,-268,-222,-209
-22,-310,-311,169,159,-311,-183,-274,-233,-238,-186,-191
-22,-298,-275,163,147,-293,-147,-226,-215,-226,-168,-179
-22,-286,-251,157,129,-263,-117,-196,-203,-214,-162,-173
-22,-274,-233,151,117,-245,-93,-166,-191,-208,-156,-161
-22,-232,-197,139,99,-215,-75,-148,-185,-202,-150,-149
-22,-202,-161,127,75,-185,-63,-124,-173,-196,-144,-143
-28,-178,-143,115,63,-161,-45,-100,-161,-190,-144,-137
-28,-160,-131,103,57,-149,-33,-82,-149,-184,-138,-131
-28,-154,-131,97,57,-143,-21,-64,-131,-172,-132,-131
-28,-148,-131,91,57,-137,-3,-40,-107,-160,-126,-125
-28,-142,-125,85,57,-131,8,-28,-95,-154,-114,-119
-28,-130,-113,73,51,-119,20,-16,-89,-148,-108,-113
-28,-118,-101,61,45,-107,26,-10,-83,-142,-102,-107
-28,-112,-89,61,45,-101,32,-10,-77,-136,-90,-95
-28,-112,-89,61,39,-101,32,-10,-77,-130,-84,-89
-28,-112,-83,61,33,-101,32,-10,-77,-130,-84,-89
-28,-106,-83,61,33,-101,32,-10,-77,-130,-84,-83
-28,-100,-83,61,33,-101,32,-10,-71,-124,-78,-83
-28,-100,-83,61,33,-101,38,-4,-65,-118,-78,-77
-28,-100,-83,61,33,-101,44,1,-65,-118,-72,-77
-28,-100,-83,61,33,-95,44,7,-65,-118,-72,-77
-28,-100,-83,61,33,-95,44,7,-59,-118,-72,-77
-28,-100,-83,61,33,-95,44,13,-59,-118,-72,-77
-28,-100,-83,61,33,-95,44,13,-59,-118,-72,-77
-28,-100,-83,61,33,-95,44,13,-59,-118,-72,-77
-28,-100,-83,61,33,-95,44,19,-53,-118,-72,-77
-22,-100,-83,55,33,-95,50,25,-47,-112,-72,-71
-22,-88,-83,49,33,-89,50,31,-41,-112,-72,-65
-22,-82,-83,43,33,-89,50,31,-41,-112,-72,-65
-22,-82,-83,43,33,-89,50,31,-41,-112,-72,-65
-22,-82,-83,43,33,-89,50,37,-35,-112,-66,-65
-22,-82,-83,43,33,-89,50,43,-29,-106,-60,-65
-22,-82,-83,43,33,-83,50,43,-29,-106,-60,-65
-16,-82,-83,43,33,-83,50,49,-23,-106,-60,-65
-10,-82,-83,37,33,-83,50,55,-23,-106,-60,-65
-10,-82,-83,37,33,-83,50,61,-17,-106,-54,-65
-10,-82,-77,37,33,-77,56,67,-11,-106,-54,-65
-10,-76,-65,37,27,-71,62,73,-5,-100,-48,-65
-10,-70,-65,37,27,-71,62,73,-5,-100,-48,-65
-10,-64,-65,37,27,-71,62,79,-5,-100,-48,-59
-10,-58,-59,37,27,-65,62,79,0,-100,-42,-59
-10,-52,-53,37,27,-59,68,85,0,-94,-36,-59
-10,-52,-53,37,27,-59,68,91,0,-88,-30,-53
-10,-52,-53,37,27,-59,68,97,6,-88,-30,-53
-10,-52,-53,37,27,-59,68,103,6,-88,-30,-53
-10,-46,-53,31,27,-53,68,103,6,-88,-30,-53
-10,-46,-53,31,27,-53,68,109,12,-82,-24,-53
-10,-46,-53,31,27,-53,68,115,18,-76,-18,-47
-10,-52,-53,31,27,-53,68,127,24,-70,-12,-41
-10,-52,-53,31,27,-53,68,133,30,-64,-12,-35
-10,-52,-47,31,21,-53,68,139,36,-58,-12,-35
-10,-52,-41,31,15,-47,74,145,36,-58,-12,-35
-10,-46,-35,31,15,-41,74,151,42,-58,-6,-35
-10,-40,-35,25,15,-35,80,157,48,-58,-6,-35
-4,-40,-35,19,15,-35,80,169,48,-58,-6,-35
-4,-34,-35,19,15,-35,80,175,48,-58,-6,-35
-4,-34,-35,13,15,-35,86,181,54,-58,-6,-35
-4,-28,-35,7,15,-29,86,187,60,-58,-6,-35
-4,-22,-35,7,15,-29,86,193,66,-58,-6,-35
-4,-22,-35,7,15,-29,86,193,66,-58,-6,-35
1,-16,-35,1,15,-29,86,193,72,-52,-6,-35
7,-16,-35,-5,15,-23,86,199,78,-46,-6,-35
7,-10,-29,-5,15,-23,86,211,84,-40,-6,-35
7,-10,-29,-5,15,-17,86,217,90,-34,-1,-29
19,-4,-29,-16,21,-17,86,223,96,-28,5,-23
25,1,-29,-22,27,-17,86,229,102,-22,11,-17
25,1,-29,-28,27,-11,86,235,108,-16,17,-11
25,1,-29,-28,27,-11,86,241,120,-10,23,-5
25,1,-29,-28,27,-5,86,247,132,1,23,0
25,7,-23,-28,27,0,86,253,144,7,35,6
25,19,-17,-34,27,6,86,265,156,13,41,12
31,25,-17,-40,27,6,86,271,168,19,41,12
37,25,-17,-40,27,6,86,283,180,31,47,18
37,31,-11,-40,27,12,92,295,192,43,59,24
37,37,0,-40,15,24,92,307,198,49,65,24
37,43,6,-46,15,30,92,307,210,55,71,24
43,43,6,-52,21,30,92,319,222,61,77,30
49,49,6,-58,21,30,92,331,234,67,83,36
49,61,12,-64,21,42,92,343,246,73,89,42
49,73,18,-70,21,48,92,349,258,79,95,42
55,79,18,-76,21,54,92,355,270,91,95,48
61,85,18,-82,27,54,92,361,276,97,101,54
67,85,12,-82,27,54,92,367,288,103,107,60
73,91,12,-82,27,54,92,373,300,109,113,72
73,97,18,-88,27,60,92,379,312,115,125,84
79,103,18,-94,27,66,92,385,324,121,131,90
85,109,18,-100,27,72,92,391,336,127,137,96
85,115,24,-100,27,78,92,397,348,133,149,102
85,121,30,-106,27,84,92,409,366,145,161,108
85,133,36,-118,27,90,92,421,378,163,173,114
91,145,42,-130,27,96,92,427,390,175,179,120
97,157,48,-136,27,102,92,433,396,181,185,126
97,169,54,-142,27,108,92,439,402,187,185,126
109,169,54,-148,27,108,86,439,408,193,185,126
121,175,54,-154,33,108,86,439,408,193,185,126
127,187,60,-160,33,114,86,439,414,193,191,126
127,187,60,-160,33,120,80,439,420,199,197,132
127,187,66,-160,33,126,80,439,426,205,203,132
127,187,66,-160,33,126,74,439,432,205,209,132
133,187,66,-166,33,126,68,439,432,205,209,132
133,193,66,-172,33,126,56,439,438,211,215,138
133,193,66,-172,33,126,50,439,444,223,221,150
133,187,66,-166,33,120,50,439,450,235,233,162
127,187,66,-166,33,120,50,439,450,241,239,174
127,193,78,-166,33,132,44,439,450,241,239,180
127,199,78,-166,33,138,44,439,450,241,239,180
127,199,78,-166,33,138,44,433,450,241,239,180
127,199,78,-166,33,138,38,433,456,241,239,180
127,199,78,-166,33,138,32,433,456,241,239,180
127,199,78,-166,33,138,26,427,456,241,239,180
127,199,78,-166,33,138,26,421,456,241,239,180
127,205,84,-166,27,144,26,421,456,241,239,180
127,211,90,-166,21,150,26,421,456,241,239,180
127,211,90,-166,21,150,26,421,456,241,239,180
127,211,90,-166,21,150,26,415,456,241,239,180
127,217,96,-172,15,156,26,403,450,241,239,180
127,217,96,-172,15,156,26,397,444,235,239,174
121,217,96,-172,15,156,26,385,432,235,233,168
121,217,96,-172,15,156,26,379,420,235,233,168
121,217,96,-172,15,156,26,367,408,229,233,168
109,211,96,-166,15,156,26,355,396,217,227,162
97,205,96,-160,9,156,26,343,384,205,215,156
91,199,96,-154,9,150,26,331,360,199,209,150
85,181,90,-142,9,138,32,319,342,193,197,144
79,175,90,-136,3,138,32,301,312,181,185,132
67,169,90,-124,-3,132,32,271,270,151,161,114
61,157,90,-118,-8,126,32,241,246,133,149,102
61,145,84,-112,-8,114,32,235,216,109,137,90
61,133,78,-112,-8,108,32,217,192,91,125,84
55,127,78,-106,-8,108,32,205,168,85,113,78
43,121,78,-94,-14,108,38,193,156,73,101,66
37,115,78,-82,-14,102,38,181,138,67,89,54
37,103,72,-76,-14,90,38,151,108,55,71,48
37,91,60,-70,-14,78,38,121,78,37,53,42
37,85,54,-64,-14,72,38,109,60,13,41,30
37,73,48,-58,-14,66,38,97,36,1,35,24
31,61,42,-46,-14,54,38,85,24,-4,23,18
25,49,42,-40,-14,48,38,73,6,-16,17,6
7,37,42,-28,-14,42,38,61,-5,-16,17,-5
-4,25,36,-22,-14,36,38,55,-11,-22,11,-11
-10,19,36,-22,-14,30,38,43,-23,-34,-1,-23
-10,19,36,-22,-14,30,38,31,-35,-46,-12,-35
-16,13,36,-10,-14,24,38,25,-41,-52,-18,-35
-22,-10,24,7,-14,6,38,19,-47,-58,-18,-35
-28,-16,18,19,-14,0,38,19,-53,-64,-18,-35
-28,-16,18,19,-14,0,38,13,-59,-70,-24,-35
-28,-16,18,19,-14,0,38,7,-65,-76,-30,-35
-28,-22,18,25,-14,0,38,1,-71,-76,-30,-35
-34,-34,12,31,-14,-5,38,1,-71,-76,-30,-35
-34,-40,6,31,-14,-11,38,1,-71,-76,-30,-35
-34,-46,0,37,-14,-17,38,1,-71,-76,-30,-41
-34,-46,-5,37,-14,-23,38,-4,-77,-82,-36,-47
-34,-46,-11,37,-14,-29,38,-4,-77,-88,-42,-53
-34,-46,-17,37,-14,-35,38,-4,-77,-88,-42,-53
-34,-52,-17,43,-14,-41,44,-4,-77,-88,-42,-53
-34,-52,-17,43,-14,-41,44,-4,-77,-88,-42,-53
-34,-52,-17,43,-14,-41,44,-4,-77,-88,-42,-53
-34,-58,-17,43,-14,-41,50,1,-77,-88,-42,-53
-34,-64,-17,43,-14,-41,56,7,-77,-88,-42,-53
-40,-64,-17,43,-14,-41,56,13,-77,-88,-42,-53
-40,-64,-17,43,-14,-41,56,13,-77,-88,-42,-53
-46,-64,-17,43,-14,-41,56,13,-77,-88,-42,-53
-46,-64,-17,43,-14,-41,56,19,-77,-88,-42,-53
-40,-64,-17,43,-14,-41,62,25,-71,-88,-42,-53
-28,-64,-23,43,-3,-41,68,31,-71,-88,-42,-53
-16,-64,-35,43,9,-47,68,31,-71,-88,-42,-53
-16,-64,-35,43,9,-47,68,31,-71,-88,-42,-53
-16,-64,-35,43,9,-47,68,31,-71,-88,-42,-53
-16,-64,-35,43,9,-47,68,31,-71,-88,-42,-53
-16,-70,-35,43,9,-47,68,31,-71,-88,-42,-53
-16,-70,-35,43,9,-47,68,31,-71,-88,-42,-53
-16,-70,-35,43,9,-47,68,37,-65,-88,-42,-53
-16,-70,-35,43,9,-47,68,37,-65,-88,-42,-53
-22,-70,-35,43,9,-47,68,37,-65,-88,-42,-53
-28,-70,-35,49,9,-47,68,37,-65,-88,-48,-53
-28,-70,-35,49,9,-47,68,37,-65,-88,-48,-53
-28,-70,-35,49,9,-47,68,37,-65,-88,-48,-53
-28,-70,-29,49,3,-47,68,37,-65,-88,-48,-53
-28,-70,-29,49,3,-47,68,37,-65,-88,-48,-53
-22,-70,-41,49,9,-53,68,37,-65,-88,-48,-53
-22,-70,-41,49,9,-53,68,37,-65,-88,-48,-53
-22,-70,-41,49,9,-53,68,37,-65,-88,-48,-53
-22,-70,-41,49,9,-53,68,37,-65,-88,-48,-53
-28,-76,-41,49,9,-53,68,37,-65,-88,-48,-53
-34,-76,-41,49,3,-53,68,37,-65,-88,-48,-59
-34,-76,-41,49,3,-59,68,37,-65,-88,-48,-59
-34,-76,-41,49,9,-59,68,37,-65,-88,-48,-59
-34,-76,-41,49,9,-59,68,37,-65,-88,-48,-59
-28,-70,-41,49,9,-59,68,37,-65,-88,-48,-59
-22,-70,-53,49,15,-59,68,31,-65,-88,-54,-59
-16,-70,-59,49,21,-59,68,25,-65,-88,-54,-59
-16,-70,-59,49,21,-59,68,19,-65,-88,-54,-59
-16,-70,-53,49,15,-59,68,19,-65,-88,-54,-59
-22,-70,-47,49,9,-59,68,19,-65,-88,-54,-65
-22,-70,-53,49,9,-59,68,19,-65,-88,-54,-71
-22,-70,-53,49,15,-65,62,13,-65,-88,-54,-71
-22,-70,-53,49,15,-65,56,13,-65,-88,-54,-71
-28,-70,-53,49,15,-65,56,13,-65,-94,-54,-71
-28,-70,-53,49,15,-65,56,7,-65,-94,-54,-71
-28,-70,-53,49,15,-65,56,7,-65,-94,-54,-71
-28,-70,-47,49,9,-59,56,7,-65,-94,-54,-71
-34,-70,-41,49,3,-53,56,7,-65,-94,-54,-71
-40,-70,-35,49,-3,-53,56,7,-65,-94,-54,-65
-40,-70,-35,49,-8,-53,56,7,-65,-94,-54,-65
-40,-70,-35,49,-8,-53,56,7,-65,-94,-54,-65
-40,-70,-35,49,-8,-53,56,7,-65,-94,-54,-65
-40,-70,-35,55,-8,-53,56,7,-65,-94,-54,-65
-40,-70,-35,55,-8,-53,56,1,-65,-94,-54,-59
-40,-70,-35,55,-8,-53,56,-4,-65,-94,-54,-59
-46,-76,-35,61,-8,-53,56,-10,-65,-94,-54,-59
-46,-76,-35,61,-8,-53,56,-16,-65,-100,-60,-59
-46,-76,-35,61,-8,-53,56,-16,-65,-106,-60,-59
-46,-82,-47,61,-3,-59,56,-16,-65,-106,-60,-59
-46,-88,-47,61,-3,-65,56,-16,-65,-106,-60,-59
-46,-88,-47,61,-3,-65,56,-22,-65,-106,-60,-59
-46,-88,-47,61,-3,-65,56,-22,-65,-106,-60,-59
-46,-88,-47,67,-3,-65,56,-22,-65,-106,-60,-59
-46,-88,-47,67,-3,-65,56,-28,-65,-106,-60,-59
-40,-88,-53,67,3,-65,56,-28,-71,-106,-60,-59
-40,-88,-59,67,3,-65,56,-28,-71,-106,-60,-59
-40,-88,-59,67,3,-71,56,-28,-71,-106,-60,-59
-40,-94,-59,67,3,-77,56,-34,-71,-106,-60,-59
-40,-100,-59,67,3,-77,56,-34,-77,-106,-60,-59
-40,-100,-65,67,3,-77,56,-34,-83,-112,-66,-65
-34,-100,-65,67,9,-77,56,-40,-89,-118,-72,-71
-34,-100,-65,67,9,-77,56,-40,-89,-118,-78,-71
-40,-100,-65,73,9,-77,56,-40,-89,-118,-78,-71
-40,-100,-65,73,9,-77,56,-40,-89,-118,-78,-71
-40,-100,-65,73,15,-77,56,-40,-89,-118,-78,-71
-40,-100,-65,73,15,-77,56,-40,-89,-118,-78,-71
-46,-100,-65,73,15,-77,56,-40,-89,-118,-72,-65
-46,-100,-65,73,15,-77,56,-40,-89,-118,-72,-65
-46,-100,-65,73,15,-77,56,-40,-89,-118,-72,-65
-46,-100,-65,73,15,-77,56,-40,-89,-118,-66,-65
-46,-100,-59,73,15,-77,56,-40,-89,-118,-60,-65
-46,-94,-53,67,15,-77,56,-40,-89,-118,-60,-65
-46,-82,-47,55,15,-65,56,-40,-89,-118,-60,-65
-46,-70,-41,49,9,-59,56,-40,-89,-118,-60,-65
-46,-64,-41,49,9,-59,56,-40,-89,-118,-60,-65
-40,-52,-35,43,9,-47,56,-40,-83,-118,-60,-65
-40,-46,-29,43,3,-41,56,-34,-83,-112,-60,-65
-40,-40,-17,43,-3,-29,62,-28,-77,-106,-60,-59
-40,-34,-5,43,-14,-17,68,-28,-71,-100,-60,-59
-40,-34,0,43,-14,-11,74,-28,-65,-100,-60,-59
-40,-34,0,43,-14,-11,80,-28,-59,-94,-54,-59
-40,-34,0,43,-14,-11,86,-28,-53,-94,-54,-59
-40,-34,0,43,-20,-11,92,-28,-53,-94,-54,-59
-40,-28,0,37,-20,-11,92,-28,-53,-94,-54,-53
-40,-22,0,31,-20,-11,92,-22,-53,-94,-48,-47
-40,-16,6,25,-20,-5,98,-16,-47,-88,-36,-41
-40,7,36,19,-32,24,104,-4,-35,-82,-24,-29
-40,19,54,13,-38,42,104,1,-29,-76,-12,-23
-40,25,60,7,-38,48,104,7,-23,-70,-6,-17
-40,31,72,1,-44,60,104,13,-17,-64,-1,-5
-40,43,84,-5,-50,66,104,13,-11,-58,5,0
-34,61,90,-16,-50,78,104,13,-11,-46,5,6
-22,73,96,-34,-50,84,104,13,-11,-46,5,12
-16,85,96,-40,-50,90,104,13,-11,-46,5,12
-16,91,102,-46,-56,96,98,7,-11,-46,5,12
-16,97,114,-46,-62,108,92,1,-11,-46,11,18
-16,103,120,-46,-68,114,92,1,-11,-46,11,18
-16,103,126,-46,-68,120,86,1,-11,-46,11,18
-16,103,132,-46,-68,126,86,-4,-17,-46,11,18
-22,103,132,-46,-74,126,80,-10,-23,-46,11,18
-22,103,126,-46,-74,120,74,-10,-29,-46,11,18
-16,91,90,-40,-62,90,68,-10,-29,-46,11,18
-16,61,54,-34,-44,54,68,-10,-29,-46,11,18
-16,43,42,-22,-38,36,68,-10,-29,-46,11,18
-22,25,36,-10,-38,24,68,-10,-29,-46,5,12
-28,1,30,1,-38,12,68,-10,-35,-52,-1,0
-34,-28,18,13,-32,-5,62,-16,-41,-64,-12,-23
-34,-46,-5,25,-20,-17,56,-28,-53,-82,-42,-53
-34,-58,-17,31,-14,-29,56,-40,-65,-100,-54,-65
-34,-64,-23,37,-8,-35,50,-46,-77,-112,-66,-71
-34,-70,-35,43,-3,-47,50,-52,-83,-118,-78,-71
-34,-76,-41,49,-3,-59,44,-58,-89,-118,-78,-71
-40,-82,-41,55,-3,-65,44,-58,-89,-118,-78,-71
-46,-88,-41,61,-3,-71,44,-64,-95,-118,-78,-71
-46,-94,-47,67,-3,-77,44,-70,-101,-124,-78,-77
-46,-106,-77,73,3,-89,38,-76,-101,-124,-78,-77
-46,-112,-89,73,15,-95,32,-82,-101,-124,-78,-77
-46,-118,-95,73,21,-101,32,-82,-101,-124,-78,-77
-46,-124,-95,79,21,-101,26,-82,-107,-130,-84,-83
-46,-124,-95,79,21,-101,26,-88,-113,-136,-90,-83
-46,-124,-95,79,21,-101,26,-94,-119,-142,-90,-83
-46,-124,-95,79,21,-107,26,-94,-125,-142,-90,-89
-46,-130,-95,79,21,-107,26,-94,-125,-142,-90,-89
-46,-130,-95,79,21,-107,26,-94,-125,-142,-90,-89
-46,-130,-95,79,21,-107,26,-94,-125,-142,-90,-89
-46,-136,-101,79,27,-113,20,-94,-125,-142,-90,-89
-46,-136,-101,79,27,-119,20,-94,-125,-142,-96,-89
-46,-136,-101,79,27,-119,20,-94,-125,-142,-96,-89
-46,-136,-101,79,27,-119,20,-94,-125,-142,-96,-89
-46,-136,-101,79,27,-119,20,-94,-125,-142,-96,-89
-46,-136,-101,79,27,-119,20,-94,-125,-142,-96,-89
-46,-142,-107,85,27,-125,20,-94,-125,-142,-96,-95
-46,-142,-107,85,27,-125,20,-94,-125,-142,-102,-107
-46,-142,-107,85,27,-125,20,-94,-125,-142,-102,-107
-46,-142,-107,85,27,-125,20,-94,-125,-142,-102,-107
-46,-142,-107,85,27,-125,20,-94,-125,-142,-102,-107
-46,-142,-107,85,27,-125,20,-94,-125,-142,-102,-107
-46,-142,-113,85,33,-125,20,-94,-125,-142,-102,-107
-46,-142,-113,85,33,-131,20,-94,-125,-142,-102,-107
-46,-142,-113,85,33,-131,20,-94,-125,-142,-102,-107
-58,-142,-113,91,27,-131,20,-94,-125,-142,-102,-107
-58,-148,-113,91,27,-131,20,-94,-125,-142,-102,-107
-58,-148,-119,91,27,-137,20,-94,-125,-142,-102,-107
-58,-154,-119,91,33,-137,20,-94,-125,-142,-102,-107
-58,-154,-119,91,33,-137,20,-94,-125,-142,-102,-107
-58,-154,-119,97,33,-137,20,-94,-125,-142,-102,-107
-58,-160,-119,103,33,-137,20,-94,-131,-142,-102,-107
-58,-160,-119,103,33,-137,20,-94,-131,-142,-102,-107
-58,-160,-119,103,33,-137,20,-94,-131,-142,-102,-107
-58,-166,-119,103,33,-137,20,-94,-137,-142,-102,-107
-64,-172,-119,109,33,-137,20,-94,-143,-142,-102,-107
-64,-172,-119,109,33,-137,20,-94,-143,-142,-102,-107
-64,-172,-119,109,33,-137,20,-94,-143,-142,-102,-107
-64,-172,-119,109,33,-137,20,-94,-143,-142,-102,-107
-64,-172,-119,109,33,-137,20,-94,-143,-148,-108,-107
-64,-172,-119,109,33,-137,20,-94,-143,-148,-114,-107
-64,-172,-119,109,33,-137,26,-94,-143,-154,-120,-107
-64,-166,-119,109,33,-137,38,-94,-143,-154,-120,-113
-58,-166,-119,109,33,-137,62,-76,-143,-154,-120,-113
-58,-166,-119,109,33,-137,92,-34,-143,-154,-120,-119
-52,-160,-119,103,33,-137,116,7,-143,-160,-126,-125
-46,-154,-119,97,33,-137,128,49,-143,-160,-126,-131
-40,-154,-119,97,33,-131,146,97,-131,-160,-126,-131
-40,-148,-119,91,33,-125,182,157,-101,-148,-120,-131
-34,-118,-113,79,33,-113,224,223,-35,-106,-90,-119
-4,-58,-95,25,33,-77,278,277,72,-10,-1,-47
67,79,-47,-82,33,18,314,307,222,139,155,84
121,253,78,-190,27,168,314,289,318,301,323,234
145,433,234,-286,-14,336,242,61,372,475,509,408
157,583,384,-358,-80,486,86,-244,414,619,671,552
169,697,486,-418,-122,600,-111,-568,432,733,779,648
175,817,606,-484,-170,708,-357,-892,468,823,863,744
181,913,690,-532,-218,816,-657,-1168,510,901,935,816
193,925,696,-550,-218,822,-963,-1348,564,931,965,846
199,829,588,-544,-194,714,-1137,-1372,636,925,953,840
199,535,306,-412,-74,420,-1155,-1342,666,757,761,666
193,199,18,-220,51,108,-1119,-1270,612,439,467,414
145,-64,-167,-34,93,-119,-1029,-1270,264,109,173,168
43,-244,-239,103,99,-251,-981,-1306,-161,-172,-60,-11
-16,-334,-281,175,99,-305,-939,-1330,-503,-358,-222,-131
-34,-376,-311,205,111,-335,-885,-1318,-653,-418,-276,-203
-40,-394,-329,211,123,-353,-807,-1210,-665,-424,-294,-233
-40,-406,-359,217,141,-371,-717,-1030,-653,-424,-294,-239
-40,-424,-401,223,171,-407,-633,-886,-593,-424,-300,-245
-34,-448,-443,223,201,-437,-567,-760,-539,-418,-306,-257
-22,-448,-449,223,213,-443,-483,-646,-467,-406,-306,-263
-16,-436,-443,217,213,-437,-387,-514,-389,-370,-294,-263
-10,-394,-401,205,201,-395,-315,-424,-329,-340,-276,-251
-10,-352,-359,181,189,-359,-261,-352,-281,-304,-240,-239
-4,-316,-335,169,177,-329,-213,-292,-245,-274,-216,-209
-4,-298,-323,163,165,-311,-171,-250,-221,-256,-198,-191
-4,-292,-317,157,159,-299,-141,-208,-203,-238,-186,-185
-4,-280,-299,151,153,-287,-123,-178,-191,-226,-180,-179
-4,-268,-263,151,141,-257,-99,-148,-179,-214,-168,-167
-10,-250,-227,145,111,-233,-75,-124,-161,-202,-156,-161
-16,-220,-185,139,87,-203,-57,-106,-137,-190,-144,-155
-22,-190,-155,127,69,-173,-39,-94,-125,-184,-138,-149
-22,-178,-149,115,63,-161,-21,-64,-113,-178,-132,-143
-22,-172,-149,109,63,-155,2,-34,-101,-166,-120,-131
-22,-160,-143,103,63,-149,14,-22,-89,-154,-108,-119
-22,-142,-131,91,57,-131,20,-16,-83,-148,-96,-113
-22,-130,-131,79,57,-125,26,-10,-71,-136,-90,-107
-22,-130,-131,73,57,-125,32,-4,-65,-130,-84,-107
-22,-130,-125,73,57,-125,38,1,-59,-124,-78,-101
-22,-130,-113,73,57,-119,38,1,-59,-124,-78,-101
-22,-130,-107,73,51,-119,38,1,-59,-124,-78,-101
-22,-124,-101,73,51,-119,44,1,-59,-124,-78,-95
-22,-124,-101,73,51,-119,50,7,-53,-118,-72,-83
-22,-124,-101,73,51,-119,56,13,-47,-112,-72,-77
-22,-124,-101,73,51,-119,56,13,-41,-112,-72,-77
-22,-124,-101,73,45,-119,56,13,-41,-112,-72,-77
-22,-118,-101,73,45,-113,56,13,-41,-112,-72,-77
-16,-112,-101,67,45,-113,56,13,-41,-106,-72,-77
-16,-112,-101,67,45,-113,56,13,-41,-100,-72,-77
-16,-112,-101,67,45,-113,56,13,-41,-100,-72,-77
-16,-106,-101,61,45,-107,56,13,-41,-100,-72,-77
-16,-106,-101,55,45,-107,56,19,-41,-100,-72,-77
-16,-106,-95,55,39,-107,56,25,-35,-100,-72,-77
-16,-106,-89,55,33,-107,56,25,-29,-94,-66,-77
-16,-106,-89,55,33,-101,62,31,-23,-94,-60,-77
-16,-106,-89,55,33,-101,62,31,-23,-94,-60,-71
-10,-106,-95,55,39,-101,62,31,-23,-94,-60,-71
-4,-100,-95,49,45,-101,62,31,-23,-94,-60,-71
-4,-100,-89,49,45,-95,62,37,-17,-94,-54,-71
-10,-100,-77,49,33,-89,62,43,-11,-88,-48,-71
-10,-100,-77,49,33,-89,62,49,-5,-88,-48,-71
-10,-100,-77,49,33,-89,62,55,-5,-88,-48,-71
-10,-100,-77,49,33,-89,62,61,0,-82,-42,-71
-10,-94,-77,43,33,-89,62,61,6,-82,-42,-71
-10,-82,-77,37,33,-77,62,67,6,-82,-42,-71
-4,-70,-71,31,33,-71,68,73,12,-82,-42,-71
-4,-70,-71,31,33,-71,74,79,12,-76,-36,-71
-4,-70,-71,31,33,-71,74,85,12,-76,-36,-65
-4,-70,-71,31,33,-65,80,91,12,-76,-30,-65
-4,-64,-65,25,33,-59,80,97,12,-76,-24,-59
-4,-52,-59,19,33,-53,80,103,12,-76,-24,-59
1,-46,-59,13,33,-53,80,109,12,-76,-24,-59
1,-46,-59,13,33,-53,80,115,12,-76,-24,-59
1,-46,-59,13,33,-53,80,115,18,-76,-24,-59
1,-46,-53,13,33,-53,80,121,24,-70,-18,-59
1,-46,-53,13,33,-53,80,127,30,-64,-18,-59
1,-46,-53,19,33,-53,80,139,36,-64,-18,-59
1,-46,-53,19,33,-53,80,145,42,-64,-18,-59
7,-46,-53,19,33,-53,80,151,42,-58,-18,-59
13,-46,-53,13,33,-53,80,151,48,-52,-18,-59
19,-46,-53,13,33,-53,80,157,54,-46,-18,-59
19,-46,-59,13,33,-59,80,169,60,-40,-12,-59
19,-46,-65,13,39,-59,86,181,72,-34,-6,-53
31,-34,-65,1,45,-53,86,187,84,-28,-1,-47
31,-34,-65,1,45,-53,92,193,96,-22,11,-35
31,-34,-65,1,45,-53,92,205,102,-16,17,-29
31,-34,-65,1,45,-53,92,211,108,-10,23,-29
31,-34,-65,1,45,-53,92,217,114,-4,23,-29
31,-28,-59,-5,45,-47,92,223,114,-4,23,-29
31,-22,-59,-10,45,-41,92,229,120,1,29,-23
31,-16,-53,-10,45,-41,92,241,132,13,41,-11
31,-16,-47,-10,39,-41,92,247,144,19,47,-5
31,-16,-41,-10,39,-35,92,253,150,25,47,0
31,-10,-41,-10,39,-29,92,259,162,31,47,0
31,-4,-41,-10,39,-23,92,265,174,31,47,0
31,-4,-41,-10,33,-17,92,271,180,37,47,0
31,7,-35,-16,33,-5,92,277,186,37,47,0
37,19,-35,-28,33,0,92,283,186,37,47,0
43,31,-35,-40,33,6,92,289,192,37,47,0
49,37,-35,-46,33,12,92,295,204,43,53,0
49,43,-35,-52,33,12,92,301,216,49,59,6
49,49,-29,-52,33,12,92,313,228,61,71,12
49,55,-23,-58,33,18,92,319,240,73,83,24
55,67,-17,-64,33,24,92,325,252,85,95,42
61,73,-11,-70,33,30,92,337,282,97,107,54
61,79,-11,-76,33,30,92,349,294,109,113,66
67,85,-11,-76,33,30,92,355,306,115,119,72
73,85,-11,-82,33,30,92,367,318,121,131,78
73,91,-11,-88,33,36,92,379,330,127,143,84
85,97,-5,-94,33,42,92,391,342,133,149,84
91,109,0,-100,39,48,92,397,354,139,155,84
97,121,0,-106,39,54,92,403,360,145,155,84
103,121,0,-112,45,54,92,403,366,145,155,84
109,121,0,-112,45,54,92,409,372,151,155,84
109,121,0,-112,45,60,92,415,384,163,161,84
109,133,12,-118,45,78,86,421,396,169,167,90
109,145,24,-124,45,90,80,421,402,175,167,90
109,145,24,-130,45,96,74,421,408,181,173,96
109,151,30,-130,45,96,68,421,414,187,179,102
109,157,36,-130,45,102,62,421,420,193,179,102
109,157,42,-136,45,108,62,421,426,199,185,102
109,157,42,-136,45,108,62,421,432,199,191,108
115,157,42,-142,45,108,62,421,438,205,197,120
121,163,42,-142,45,108,56,421,444,211,209,126
121,169,42,-142,45,108,56,421,450,217,209,126
121,169,42,-142,45,108,56,421,456,217,209,126
121,169,42,-142,45,108,56,421,456,223,215,132
121,169,48,-142,45,114,56,421,462,223,215,138
121,169,48,-148,45,114,50,421,462,223,215,138
121,175,48,-148,45,114,44,421,462,223,215,138
121,175,48,-148,45,114,32,421,462,223,215,138
121,175,48,-148,45,114,26,421,462,223,215,144
121,175,48,-148,45,114,26,421,462,229,215,144
121,181,54,-148,39,120,26,421,462,235,215,144
121,181,54,-154,39,120,20,415,462,235,215,144
127,181,54,-154,39,120,14,409,456,235,215,144
133,181,54,-160,39,120,14,403,456,235,215,144
145,181,54,-166,45,120,14,403,456,235,215,144
145,187,54,-166,45,120,14,397,450,235,215,144
139,193,66,-166,39,132,14,391,450,235,215,144
127,199,78,-166,33,138,14,385,444,235,215,144
121,199,78,-160,33,138,14,385,432,229,215,144
115,199,78,-154,27,138,14,373,420,223,215,144
115,199,78,-154,21,138,14,361,408,223,215,144
115,199,78,-154,21,138,14,349,384,217,215,144
115,199,78,-154,21,138,14,337,372,205,215,144
109,193,78,-148,21,138,14,325,354,193,209,144
103,187,78,-136,15,138,14,307,324,181,191,132
91,181,84,-130,3,138,14,283,294,151,155,102
79,169,84,-124,-3,138,14,265,270,127,131,90
73,157,84,-118,-3,132,14,253,240,115,119,78
73,151,78,-118,-3,120,14,235,210,103,113,66
67,145,78,-112,-3,120,14,217,186,91,107,60
61,139,78,-100,-3,114,14,199,168,79,101,54
55,127,72,-94,-3,108,14,181,138,67,95,54
49,121,72,-88,-3,108,14,163,120,55,83,42
43,121,72,-82,-8,108,20,151,102,43,71,36
37,109,72,-76,-8,102,26,139,90,37,65,30
37,85,66,-64,-8,78,32,127,78,31,59,24
25,73,60,-52,-8,66,32,115,54,19,53,12
19,67,60,-46,-8,60,32,103,24,7,41,6
13,67,60,-40,-8,60,32,91,6,-4,29,-5
13,61,54,-40,-8,54,32,67,-11,-16,23,-11
13,55,42,-40,-8,48,26,55,-23,-28,17,-17
13,49,42,-28,-8,42,26,43,-35,-40,11,-23
1,37,42,-16,-8,36,26,37,-47,-46,5,-29
-4,25,42,-5,-8,36,26,31,-53,-52,-1,-29
-10,19,42,1,-8,36,26,25,-59,-58,-6,-29
-16,13,42,13,-8,30,26,19,-65,-64,-12,-35
-16,7,36,13,-8,24,26,13,-71,-64,-12,-41
-16,7,30,13,-8,24,26,7,-77,-64,-12,-41
-22,1,30,19,-14,24,26,7,-83,-70,-18,-41
-28,-4,30,25,-20,24,26,1,-89,-76,-24,-47
-34,-10,30,31,-20,18,26,1,-95,-82,-30,-53
-40,-16,30,31,-26,18,26,-4,-101,-88,-36,-59
-40,-22,30,31,-26,12,26,-4,-107,-88,-36,-65
-40,-22,24,31,-26,6,26,-4,-107,-94,-36,-65
-40,-22,24,31,-26,6,26,-4,-113,-94,-42,-65
-40,-22,24,31,-26,6,26,-4,-113,-94,-48,-71
-40,-22,18,31,-26,0,26,-4,-113,-94,-54,-77
-40,-22,12,31,-26,0,26,-4,-113,-94,-60,-77
-40,-22,12,31,-26,0,26,-4,-113,-94,-60,-77
-40,-22,12,31,-26,0,26,-4,-113,-94,-60,-77
-40,-22,12,31,-26,0,26,-4,-113,-94,-60,-77
-40,-28,12,31,-26,0,26,-4,-113,-94,-60,-77
-40,-28,12,31,-26,0,32,-4,-113,-94,-60,-77
-34,-28,12,31,-26,0,32,-4,-113,-94,-66,-77
-34,-28,12,31,-26,0,32,-4,-113,-94,-66,-77
-40,-28,12,37,-26,0,38,1,-113,-94,-66,-77
-40,-28,12,37,-26,0,38,1,-113,-94,-66,-77
-40,-28,6,37,-26,0,38,1,-113,-94,-66,-77
-40,-28,6,37,-26,0,38,1,-107,-94,-66,-77
-40,-28,6,37,-26,0,38,1,-107,-94,-66,-77
-34,-28,0,37,-20,-5,38,1,-107,-94,-66,-77
-34,-28,0,37,-20,-5,38,1,-107,-94,-66,-77
-34,-28,0,37,-20,-5,38,7,-107,-94,-66,-77
-34,-28,0,37,-20,-5,38,7,-107,-94,-66,-77
-34,-28,0,37,-20,-5,38,7,-107,-94,-66,-77
-34,-28,0,37,-20,-5,44,13,-107,-94,-66,-77
-34,-28,0,37,-20,-5,44,13,-107,-94,-66,-77
-34,-34,0,37,-20,-11,44,13,-107,-94,-66,-77
-34,-34,0,37,-20,-11,44,13,-107,-94,-66,-77
-34,-34,0,37,-20,-11,44,13,-107,-94,-66,-77
-34,-34,0,37,-20,-11,44,13,-107,-100,-66,-77
-28,-34,0,37,-20,-11,44,13,-107,-100,-66,-77
-28,-34,0,37,-20,-11,44,13,-107,-100,-66,-77
-28,-34,0,37,-20,-11,44,13,-107,-100,-66,-77
-28,-34,0,37,-20,-11,44,13,-107,-100,-66,-77
-28,-34,0,37,-20,-11,44,13,-107,-100,-66,-77
-22,-34,0,31,-14,-11,44,13,-107,-100,-66,-77
-22,-28,0,25,-14,-11,44,13,-107,-100,-66,-77
-22,-28,0,25,-14,-11,44,13,-107,-100,-66,-77
-22,-28,-5,25,-8,-11,44,13,-107,-100,-66,-77
-22,-28,-5,25,-8,-11,44,7,-107,-100,-66,-77
-22,-28,0,25,-14,-11,44,7,-107,-100,-66,-77
-28,-28,0,31,-20,-11,44,7,-107,-100,-66,-77
-28,-28,0,31,-20,-11,44,7,-107,-100,-66,-77
-28,-34,0,37,-20,-11,44,1,-107,-100,-66,-77
-34,-34,0,43,-20,-11,44,1,-107,-100,-66,-77
-34,-34,0,43,-20,-11,44,-4,-107,-106,-66,-77
-34,-34,0,43,-20,-11,44,-10,-107,-106,-66,-77
-34,-34,0,43,-20,-11,44,-10,-107,-106,-66,-77
-34,-34,0,43,-20,-11,44,-10,-107,-106,-66,-77
-34,-34,-5,43,-20,-17,44,-16,-107,-106,-66,-77
-28,-34,-11,43,-20,-17,44,-22,-107,-106,-72,-77
-22,-34,-11,43,-20,-17,44,-28,-107,-106,-72,-77
-22,-34,-11,43,-20,-17,44,-34,-107,-106,-72,-77
-22,-34,-11,43,-20,-17,44,-34,-107,-106,-72,-77
-22,-34,-11,43,-20,-17,44,-34,-107,-106,-72,-77
-16,-34,-11,37,-14,-17,38,-40,-107,-112,-72,-83
-16,-34,-17,37,-8,-17,32,-46,-107,-118,-72,-83
-22,-34,-17,37,-8,-17,32,-46,-107,-118,-72,-83
-34,-40,-11,43,-14,-17,32,-46,-107,-118,-72,-83
-40,-40,-5,43,-20,-17,32,-46,-107,-118,-72,-83
-40,-40,-5,43,-20,-17,32,-46,-107,-118,-72,-83
-40,-40,-5,43,-20,-17,32,-46,-107,-118,-72,-83
-40,-40,-5,43,-20,-17,32,-46,-107,-118,-72,-83
-40,-40,-5,43,-20,-17,32,-46,-113,-118,-72,-83
-40,-40,-5,43,-20,-17,32,-46,-119,-118,-72,-83
-40,-40,-5,43,-20,-17,32,-46,-119,-118,-72,-83
-40,-40,-5,43,-20,-17,32,-46,-119,-118,-72,-83
-46,-40,-5,43,-26,-17,32,-52,-125,-118,-78,-83
-46,-40,-5,43,-26,-17,32,-58,-125,-124,-78,-83
-46,-40,-5,43,-26,-17,26,-64,-131,-124,-78,-83
-46,-40,-5,43,-26,-17,26,-64,-137,-130,-78,-89
-46,-40,-5,43,-26,-17,20,-70,-143,-136,-78,-89
-46,-40,-5,43,-26,-17,20,-70,-143,-136,-78,-89
-46,-40,-5,43,-26,-17,20,-70,-143,-136,-78,-89
-46,-40,-11,43,-26,-23,20,-70,-143,-136,-78,-89
-40,-40,-11,43,-20,-23,20,-70,-143,-136,-78,-89
-40,-40,-11,43,-20,-23,20,-70,-143,-136,-78,-89
-34,-40,-11,43,-20,-23,20,-70,-143,-136,-78,-89
-28,-40,-17,43,-14,-29,20,-70,-143,-136,-84,-89
-22,-40,-29,43,-8,-35,20,-76,-143,-136,-90,-89
-22,-40,-29,43,-8,-35,20,-76,-143,-136,-90,-89
-22,-40,-23,43,-8,-35,20,-76,-143,-136,-90,-95
-28,-40,-23,43,-8,-35,20,-76,-143,-136,-90,-95
-34,-40,-23,43,-8,-35,20,-76,-143,-136,-90,-95
-34,-46,-17,43,-8,-35,20,-76,-143,-136,-90,-95
-34,-46,-17,43,-8,-35,20,-76,-143,-136,-90,-95
-34,-46,-17,43,-8,-35,20,-76,-143,-136,-90,-95
-34,-46,-17,43,-8,-35,20,-76,-143,-136,-90,-95
-34,-52,-17,43,-14,-35,20,-76,-143,-136,-90,-89
-34,-52,-17,43,-14,-35,20,-76,-143,-136,-90,-83
-34,-52,-17,43,-14,-35,20,-82,-143,-136,-90,-83
-34,-52,-17,43,-14,-35,20,-82,-143,-136,-90,-83
-34,-52,-17,43,-14,-35,20,-82,-143,-136,-90,-83
-34,-52,-17,43,-14,-35,20,-88,-149,-142,-96,-89
-34,-52,-17,43,-14,-35,20,-94,-155,-142,-102,-95
-34,-58,-23,43,-14,-35,20,-94,-155,-142,-102,-101
-34,-58,-23,43,-14,-35,20,-94,-155,-142,-102,-101
-34,-58,-11,43,-20,-29,20,-94,-155,-142,-102,-101
-34,-52,0,43,-26,-17,20,-94,-155,-142,-102,-101
-34,-46,6,43,-26,-17,26,-88,-149,-136,-102,-95
-34,-46,6,43,-26,-17,32,-76,-143,-130,-96,-89
-34,-40,6,43,-26,-17,38,-70,-137,-124,-90,-83
-34,-34,6,37,-26,-11,44,-64,-137,-118,-84,-77
-34,-22,12,37,-26,-5,50,-58,-131,-112,-78,-71
-34,-10,18,37,-26,6,56,-52,-125,-112,-72,-71
-34,-4,24,31,-26,12,62,-52,-125,-112,-72,-71
-34,1,24,25,-26,18,62,-52,-125,-112,-66,-71
-34,7,24,19,-26,18,62,-52,-125,-112,-66,-71
-34,13,30,19,-32,18,62,-52,-125,-112,-66,-71
-28,19,36,13,-32,24,62,-46,-119,-106,-60,-71
-28,19,36,13,-32,24,62,-40,-113,-100,-54,-65
-28,25,42,13,-38,30,68,-34,-107,-100,-48,-53
-28,37,60,13,-50,42,74,-28,-101,-94,-48,-47
-28,49,72,7,-56,54,80,-22,-95,-88,-42,-41
-28,61,84,-5,-56,72,86,-16,-89,-88,-42,-41
-28,73,96,-16,-56,84,92,-10,-83,-82,-36,-29
-28,79,102,-16,-62,90,98,-4,-77,-76,-30,-17
-28,85,108,-22,-62,96,98,1,-71,-70,-18,-11
-28,91,114,-28,-62,102,98,1,-71,-70,-12,-11
-28,103,120,-34,-68,108,98,1,-71,-64,-12,-5
-28,115,126,-40,-68,114,92,1,-71,-64,-12,-5
-22,127,132,-52,-68,120,86,1,-71,-64,-12,-5
-16,133,138,-58,-68,132,80,-4,-71,-64,-12,0
-16,133,138,-58,-68,132,74,-4,-71,-58,-6,6
-16,133,138,-58,-68,132,74,-4,-71,-58,-6,12
-16,139,138,-64,-74,138,74,-4,-71,-58,-6,12
-16,139,138,-64,-74,138,74,-4,-71,-58,-6,12
-10,139,138,-64,-74,138,68,-4,-71,-58,-6,12
-10,139,138,-64,-74,138,62,-4,-71,-58,-6,12
-10,133,132,-64,-74,132,56,-4,-71,-58,-6,12
-10,115,120,-52,-74,120,50,-4,-71,-58,-6,12
-16,103,114,-46,-74,108,44,-10,-71,-64,-12,0
-16,79,102,-34,-74,96,38,-16,-77,-70,-18,-5
-22,49,90,-22,-68,72,32,-28,-83,-82,-24,-11
-22,19,60,-10,-62,42,32,-40,-95,-94,-36,-23
-28,-10,36,7,-56,12,26,-52,-107,-100,-48,-35
-28,-22,18,19,-50,0,20,-58,-119,-112,-60,-53
-28,-28,6,25,-44,-11,14,-64,-131,-124,-72,-65
-28,-34,0,31,-38,-17,14,-70,-137,-130,-84,-77
-28,-40,0,37,-38,-17,14,-76,-143,-136,-90,-83
-28,-46,-5,43,-38,-23,14,-82,-149,-142,-96,-89
-28,-52,-5,43,-38,-29,14,-88,-155,-142,-96,-95
-28,-58,-11,43,-38,-29,14,-94,-161,-142,-96,-95
-34,-58,-11,49,-38,-29,14,-94,-161,-142,-96,-95
-40,-58,-11,55,-38,-29,14,-94,-161,-148,-96,-95
-40,-58,-11,55,-38,-29,14,-94,-167,-148,-96,-95
-40,-58,-17,55,-32,-35,8,-94,-167,-148,-96,-95
-46,-64,-23,61,-32,-47,2,-100,-167,-148,-96,-95
-52,-76,-23,67,-32,-53,2,-106,-173,-148,-102,-95
-52,-76,-23,67,-32,-53,2,-112,-173,-148,-102,-95
-52,-76,-23,67,-32,-53,2,-112,-179,-148,-102,-95
-52,-76,-29,67,-26,-59,2,-112,-179,-148,-102,-95
-46,-76,-35,67,-20,-59,-3,-112,-179,-148,-102,-95
-46,-76,-41,67,-14,-59,-3,-112,-179,-148,-102,-95
-40,-76,-41,67,-8,-59,-3,-118,-185,-148,-102,-95
-40,-76,-41,67,-8,-59,-3,-124,-191,-148,-102,-95
-40,-76,-41,67,-8,-59,-3,-124,-191,-154,-102,-95
-40,-76,-41,67,-8,-59,-3,-124,-191,-154,-102,-95
-40,-76,-47,67,-8,-59,-3,-124,-191,-154,-102,-95
-40,-76,-47,67,-8,-59,-3,-124,-191,-154,-102,-95
-40,-76,-47,67,-8,-59,-3,-124,-191,-154,-108,-95
-40,-82,-47,67,-8,-59,-3,-124,-191,-154,-114,-101
-46,-88,-47,73,-8,-59,-3,-124,-191,-154,-114,-101
-46,-88,-47,73,-8,-59,-3,-124,-191,-154,-114,-101
-46,-88,-47,73,-8,-59,-3,-124,-191,-154,-114,-101
-46,-94,-47,73,-8,-65,-3,-124,-191,-154,-114,-101
-46,-94,-47,73,-8,-65,-3,-124,-191,-154,-114,-101
-46,-94,-47,73,-8,-65,-3,-124,-191,-154,-114,-101
-46,-94,-53,73,-3,-65,-3,-124,-191,-154,-114,-101
-46,-100,-59,73,-3,-71,-3,-124,-191,-154,-114,-101
-46,-100,-59,73,-3,-71,-3,-124,-191,-154,-114,-101
-46,-94,-59,73,-3,-71,-3,-124,-191,-154,-114,-101
-46,-94,-53,73,-3,-71,-3,-124,-191,-154,-114,-101
-46,-94,-53,73,-3,-71,-3,-124,-191,-154,-114,-95
-46,-94,-53,73,-3,-71,-3,-124,-191,-154,-114,-95
-46,-94,-53,73,-3,-71,-3,-124,-191,-154,-114,-95
-46,-94,-47,73,-3,-71,-3,-124,-191,-154,-114,-89
-46,-94,-47,73,-3,-71,-3,-118,-191,-154,-114,-89
-46,-94,-47,73,-3,-71,-3,-118,-191,-154,-114,-89
-46,-94,-47,73,-3,-71,-3,-118,-191,-154,-114,-89
-40,-88,-47,67,-3,-71,-3,-112,-191,-154,-114,-89
-40,-88,-47,67,-3,-71,-3,-112,-191,-154,-114,-89
-40,-88,-47,67,-8,-71,-3,-106,-191,-154,-114,-89
-40,-88,-47,67,-8,-71,8,-100,-191,-154,-114,-95
-40,-88,-47,67,-8,-71,20,-88,-191,-154,-120,-101
-40,-88,-47,67,-8,-71,50,-58,-191,-154,-126,-113
-46,-88,-47,67,-8,-71,80,-10,-185,-154,-126,-119
-46,-88,-47,67,-8,-71,98,31,-179,-154,-126,-119
-46,-88,-47,67,-8,-65,110,73,-173,-154,-126,-119
-40,-82,-47,61,-8,-59,122,121,-149,-154,-126,-119
-34,-70,-47,49,-8,-53,170,187,-95,-130,-108,-107
-16,-16,-41,13,-8,-29,224,253,12,-28,-36,-47
43,109,0,-76,-8,48,248,295,150,121,113,84
97,283,120,-184,-14,204,248,289,270,301,293,234
121,463,294,-292,-56,378,206,79,312,457,461,378
145,637,456,-394,-104,552,44,-250,342,595,617,510
157,769,570,-460,-146,678,-123,-604,354,709,743,630
163,859,672,-502,-200,768,-351,-928,384,799,833,738
169,967,780,-562,-254,882,-645,-1222,414,871,923,816
175,1009,798,-592,-272,906,-933,-1426,456,913,959,864
187,949,726,-586,-266,834,-1131,-1468,540,913,953,864
199,655,414,-460,-146,528,-1167,-1450,582,781,785,726
199,331,132,-286,-20,222,-1155,-1354,570,505,497,480
133,37,-47,-82,21,-17,-1029,-1336,294,193,221,234
13,-172,-131,73,33,-155,-981,-1354,-137,-94,-30,30
-46,-262,-173,151,39,-209,-957,-1384,-509,-310,-216,-113
-70,-304,-191,181,45,-239,-921,-1378,-683,-400,-288,-173
-76,-334,-221,193,57,-275,-867,-1282,-713,-418,-306,-191
-76,-358,-263,205,81,-305,-771,-1108,-707,-418,-306,-197
-70,-370,-305,205,111,-335,-681,-928,-641,-412,-306,-203
-58,-376,-329,205,129,-347,-591,-790,-569,-400,-306,-215
-52,-376,-335,205,135,-347,-513,-676,-503,-388,-306,-221
-46,-370,-335,199,135,-347,-435,-562,-437,-346,-294,-221
-34,-340,-323,187,135,-335,-357,-478,-389,-310,-270,-221
-28,-298,-293,169,135,-305,-303,-394,-341,-280,-258,-215
-16,-286,-287,157,135,-293,-261,-340,-305,-250,-246,-209
-4,-280,-281,145,135,-281,-225,-298,-275,-238,-234,-203
1,-262,-269,133,135,-257,-195,-262,-263,-226,-216,-191
7,-238,-239,121,135,-239,-159,-232,-251,-214,-192,-173
7,-208,-197,109,117,-203,-123,-190,-227,-184,-168,-143
1,-178,-149,103,75,-173,-93,-148,-203,-166,-150,-125
-4,-160,-125,97,57,-143,-69,-124,-185,-160,-138,-113
-4,-136,-119,85,51,-131,-57,-106,-173,-148,-126,-107
-4,-124,-113,73,45,-119,-45,-82,-155,-136,-114,-95
-4,-112,-101,67,39,-107,-27,-64,-137,-124,-102,-89
-4,-106,-95,61,39,-101,-15,-46,-125,-112,-96,-77
-4,-100,-89,55,33,-89,-3,-34,-113,-106,-90,-71
-4,-88,-77,49,27,-77,2,-22,-107,-106,-90,-71
-4,-82,-71,49,27,-77,8,-16,-101,-106,-90,-71
-4,-82,-71,49,27,-77,14,-16,-101,-106,-90,-71
-4,-82,-71,43,27,-77,20,-10,-101,-106,-90,-71
-4,-76,-71,43,27,-77,20,-10,-101,-106,-90,-71
-4,-70,-65,43,27,-77,20,-10,-95,-106,-90,-71
-4,-70,-65,43,27,-77,20,-10,-89,-106,-90,-71
-4,-70,-65,37,27,-71,26,-4,-83,-100,-84,-65
-4,-70,-65,37,27,-71,32,1,-77,-88,-78,-59
-4,-64,-59,37,27,-65,32,1,-71,-82,-78,-59
-4,-58,-53,31,27,-53,32,1,-71,-82,-78,-59
-4,-52,-47,25,27,-47,32,7,-71,-82,-78,-59
-4,-52,-41,25,21,-41,38,13,-59,-76,-72,-47
-16,-52,-29,25,9,-41,44,19,-47,-70,-60,-35
-22,-46,-17,25,3,-35,44,19,-47,-70,-60,-35
-28,-46,-17,25,-3,-35,44,19,-47,-70,-60,-35
-28,-46,-17,25,-3,-35,44,19,-41,-70,-60,-35
-28,-46,-17,25,-3,-35,44,19,-41,-70,-60,-35
-28,-46,-17,25,-3,-35,44,19,-41,-70,-60,-35
-28,-52,-17,25,-3,-41,44,25,-35,-70,-60,-35
-28,-52,-17,31,-3,-41,44,31,-35,-70,-60,-35
-28,-46,-17,31,-3,-35,44,31,-35,-70,-60,-35
-28,-46,-17,31,-3,-35,44,31,-29,-70,-60,-35
-28,-46,-17,31,-3,-35,44,37,-23,-64,-60,-35
-22,-46,-23,31,3,-35,44,43,-17,-58,-54,-35
-16,-46,-29,31,9,-35,44,49,-11,-58,-54,-35
-16,-46,-29,31,9,-35,44,55,-11,-58,-54,-35
-16,-40,-29,31,9,-35,44,55,-11,-58,-54,-35
-10,-34,-29,25,9,-35,44,55,-11,-58,-48,-35
-4,-34,-29,19,9,-35,44,61,-11,-58,-42,-35
-4,-34,-29,19,9,-29,44,61,-11,-58,-42,-35
-4,-28,-23,19,9,-23,44,67,-11,-58,-42,-35
-4,-22,-17,19,9,-17,44,73,-5,-58,-42,-35
-4,-22,-17,19,9,-17,44,79,0,-58,-42,-35
-4,-22,-17,19,9,-17,44,85,0,-58,-36,-35
-4,-22,-17,19,9,-17,44,91,6,-52,-30,-29
1,-16,-17,13,9,-11,44,97,12,-46,-30,-23
1,-10,-17,7,9,-11,44,103,12,-40,-30,-23
1,-10,-17,7,9,-5,44,109,12,-40,-30,-23
1,-10,-17,7,9,-5,44,115,18,-34,-30,-23
7,-10,-17,7,9,-5,50,127,24,-28,-30,-17
7,-10,-17,1,9,-5,50,139,30,-22,-30,-17
7,-4,-11,1,9,-5,56,145,36,-16,-24,-17
7,-4,-5,1,9,-5,62,151,42,-16,-24,-17
7,-4,-5,1,9,-5,62,157,48,-10,-18,-17
7,-4,-5,1,9,-5,62,163,48,-10,-18,-17
7,1,-5,-5,9,0,62,169,54,-10,-18,-17
7,1,-5,-5,9,0,62,175,60,-4,-12,-17
7,1,-5,-5,9,0,62,181,60,1,-6,-11
7,7,0,-5,9,6,62,187,72,7,5,0
7,13,6,-5,9,12,62,193,78,19,11,6
13,19,6,-10,9,12,62,199,84,25,17,12
25,25,6,-22,15,18,62,205,96,31,17,12
25,31,6,-28,15,24,62,217,108,37,23,18
25,37,12,-28,15,30,68,229,120,49,29,24
25,37,12,-28,15,30,74,235,132,55,35,30
25,37,12,-28,15,30,74,241,138,61,41,36
25,43,18,-34,15,36,74,247,144,67,47,36
31,55,24,-46,15,48,74,253,150,73,53,42
31,61,24,-52,15,48,74,259,162,79,59,42
31,61,24,-52,15,48,74,265,174,85,59,42
31,67,24,-52,15,48,74,271,180,91,59,48
37,73,24,-58,15,54,74,277,192,91,59,48
49,85,24,-70,15,60,74,289,198,91,65,48
55,91,24,-76,15,60,74,295,210,97,71,48
55,91,24,-76,15,60,74,307,222,109,83,54
55,91,24,-76,15,60,74,313,240,121,89,60
55,91,24,-76,15,60,74,319,252,127,95,66
55,91,24,-76,15,60,74,325,258,133,101,72
55,91,30,-76,15,66,74,331,270,139,107,78
55,91,36,-76,9,72,74,337,276,145,107,84
55,97,36,-76,9,72,74,343,288,151,113,90
61,97,36,-82,15,72,74,355,300,157,119,96
73,109,36,-94,15,72,74,361,306,163,119,96
73,121,42,-100,15,84,74,367,312,163,119,96
73,133,54,-100,9,96,74,373,324,169,125,102
73,145,66,-106,9,108,74,379,336,181,137,114
79,151,66,-112,9,108,74,385,348,193,149,120
91,157,66,-118,15,108,74,391,354,199,155,126
103,163,66,-130,21,108,68,391,366,211,161,132
109,169,66,-142,21,108,68,391,372,223,167,138
109,169,66,-142,21,108,62,397,378,229,173,138
109,169,66,-142,15,108,62,397,384,241,179,144
109,169,72,-142,15,114,56,397,390,241,185,150
109,181,78,-142,9,126,56,397,396,241,191,156
109,193,90,-148,3,138,50,397,402,247,197,162
115,193,90,-148,3,138,44,403,414,253,197,162
121,193,84,-154,9,138,44,403,420,259,203,168
121,199,84,-160,9,138,38,403,426,265,209,168
121,211,90,-166,9,150,32,403,426,265,215,168
121,217,96,-172,9,156,32,403,426,265,215,168
121,217,96,-172,9,156,26,403,426,265,215,174
115,211,96,-166,9,156,20,403,426,265,215,174
115,211,102,-166,9,156,20,403,426,271,215,180
115,217,108,-166,9,162,14,403,426,277,221,180
115,217,108,-166,9,162,8,397,426,277,221,180
115,223,108,-166,9,162,2,391,426,277,221,180
115,229,114,-172,9,168,2,385,426,277,221,180
115,229,120,-172,3,174,2,379,426,277,221,186
115,229,120,-172,3,174,2,379,426,277,221,186
115,229,120,-172,3,174,2,373,426,283,221,186
115,229,120,-172,3,174,2,367,426,283,221,186
115,229,120,-172,3,174,2,361,426,283,221,192
115,229,120,-172,3,174,2,355,426,283,221,192
121,229,114,-172,3,174,2,349,420,283,221,192
121,229,108,-172,3,168,-3,343,420,283,221,192
121,229,108,-172,3,168,-3,331,414,283,221,192
121,229,114,-172,-3,168,-3,319,396,277,221,192
121,229,114,-172,-3,168,-3,307,372,271,221,192
121,223,114,-172,-8,168,-3,295,360,265,215,192
115,223,126,-172,-20,168,-3,283,336,247,197,180
109,229,138,-172,-26,174,-3,271,312,235,185,168
97,223,138,-160,-26,174,-3,259,300,223,179,162
85,199,138,-142,-26,168,-3,253,288,211,167,162
73,193,138,-130,-32,168,-3,235,264,199,155,150
67,193,138,-124,-32,168,-3,217,246,187,143,138
61,181,132,-118,-32,162,-3,205,234,181,137,132
55,175,126,-112,-32,156,-3,193,204,175,131,126
49,169,126,-106,-32,150,-3,169,168,163,119,120
49,163,126,-100,-32,144,-3,145,138,145,107,108
49,151,120,-94,-32,138,-3,133,126,127,95,102
43,139,114,-88,-32,126,-3,121,108,115,89,96
31,109,102,-76,-32,114,-3,109,96,103,83,90
19,97,96,-64,-38,102,-3,97,72,97,77,84
13,85,90,-52,-38,96,-3,85,48,91,65,72
7,73,84,-46,-38,90,2,73,36,79,59,66
-4,67,84,-34,-38,84,2,61,24,67,53,60
-10,61,84,-28,-38,78,2,43,6,55,41,54
-16,55,84,-22,-38,72,2,25,-23,43,23,48
-16,49,84,-16,-38,66,2,13,-35,25,11,36
-16,43,84,-16,-44,60,2,7,-47,13,-1,30
-16,43,78,-16,-44,54,2,1,-53,1,-6,24
-16,37,72,-10,-44,48,2,-4,-59,-4,-12,24
-16,31,66,-10,-44,42,2,-4,-65,-10,-18,18
-22,31,66,-10,-44,42,2,-4,-71,-10,-24,12
-28,31,66,-10,-44,42,8,-4,-77,-10,-24,12
-28,25,66,-5,-44,42,8,-4,-77,-10,-24,12
-28,19,54,-5,-44,36,8,-4,-77,-10,-24,12
-28,13,42,1,-44,30,8,-10,-83,-16,-30,6
-34,13,42,7,-44,30,14,-10,-89,-16,-30,6
-40,13,54,13,-56,30,20,-10,-89,-16,-30,0
-40,13,54,13,-56,30,20,-10,-89,-16,-30,0
-40,1,48,19,-56,24,20,-10,-89,-16,-30,0
-40,1,48,19,-56,24,20,-10,-89,-16,-36,-5
