,,,,,,,,,,,
2019-09-01 15:34:11,,,,,,,,,,,
,,,,,,,,,,,
I,II,III,aVR,aVL,aVF,V1,V2,V3,V4,V5,V6
-59,-152,-89,106,11,-121,20,142,-59,-89,-85,-118
-59,-152,-89,106,11,-121,20,142,-59,-89,-85,-118
-59,-152,-89,106,11,-121,20,142,-59,-89,-85,-118
-59,-152,-89,106,11,-121,20,142,-59,-89,-85,-118
-65,-152,-83,106,5,-121,26,142,-53,-83,-79,-118
-65,-152,-83,106,5,-121,26,142,-53,-83,-79,-118
-71,-152,-77,112,-1,-115,32,142,-47,-77,-73,-118
-71,-152,-77,112,-1,-115,32,142,-47,-77,-73,-118
-65,-146,-77,106,-1,-115,32,148,-41,-71,-67,-118
-65,-146,-77,106,-1,-115,32,148,-41,-71,-67,-118
-59,-140,-77,100,5,-109,32,154,-35,-65,-61,-118
-59,-140,-77,100,5,-109,32,154,-35,-65,-61,-118
-59,-140,-77,100,5,-109,32,160,-29,-59,-55,-112
-59,-140,-77,100,5,-109,32,160,-29,-59,-49,-106
-59,-140,-77,100,5,-109,32,166,-23,-53,-43,-100
-59,-140,-77,100,5,-109,32,166,-23,-53,-37,-94
-53,-134,-77,94,5,-109,26,172,-17,-47,-31,-88
-53,-134,-77,94,5,-109,26,178,-17,-41,-31,-88
-47,-128,-77,88,11,-103,20,184,-11,-35,-25,-82
-47,-128,-77,88,11,-103,20,190,-11,-29,-25,-82
-47,-122,-71,82,5,-97,20,196,-5,-23,-19,-70
-47,-122,-71,82,5,-97,20,196,1,-17,-13,-64
-47,-116,-65,82,5,-91,20,202,7,-11,-7,-52
-47,-116,-65,82,5,-91,20,202,13,-5,-1,-46
-41,-110,-65,76,5,-91,20,208,19,1,-1,-40
-41,-104,-59,70,5,-85,20,214,19,1,-1,-40
-35,-98,-59,64,5,-79,20,220,25,7,-1,-34
-35,-92,-53,64,5,-73,20,226,25,7,-1,-34
-30,-86,-53,58,5,-73,20,232,37,19,5,-28
-30,-86,-53,58,5,-73,20,232,42,25,11,-28
-30,-80,-53,52,11,-67,20,238,42,37,17,-22
-30,-80,-53,52,11,-67,20,244,48,43,23,-22
-30,-74,-47,46,5,-61,20,256,60,55,28,-10
-30,-74,-47,46,5,-61,20,262,72,60,28,2
-30,-68,-41,46,5,-55,20,274,84,66,40,14
-30,-68,-41,46,5,-55,20,280,96,78,46,19
-30,-62,-41,40,5,-49,14,292,108,90,58,25
-30,-56,-35,34,5,-43,14,304,120,102,64,31
-24,-50,-35,28,5,-43,8,316,132,114,76,43
-24,-44,-29,28,5,-37,8,328,144,126,82,49
-18,-32,-23,22,5,-25,2,334,162,144,94,55
-12,-26,-23,22,5,-25,2,340,174,156,106,61
-6,-15,-17,17,5,-13,2,346,192,174,118,67
0,-15,-17,11,11,-13,-3,352,204,186,130,73
6,-9,-11,5,11,-2,-3,364,222,204,148,91
6,-3,-5,-1,11,-2,-3,376,234,216,160,103
12,9,1,-7,11,-2,-3,388,252,234,178,121
12,15,7,-13,5,4,-3,400,264,246,190,133
24,33,12,-25,11,16,-9,406,282,264,208,145
30,51,12,-37,5,34,-9,412,288,282,220,151
42,69,18,-55,11,46,-15,418,306,300,238,163
48,87,30,-67,5,58,-15,424,318,312,250,169
48,99,42,-73,-1,70,-21,424,330,324,262,181
48,105,48,-73,-1,76,-21,424,342,336,268,187
48,117,60,-79,-7,88,-27,424,354,348,274,199
48,123,66,-85,-13,94,-27,424,366,360,280,205
54,129,66,-91,-7,100,-27,430,378,372,292,217
54,129,66,-91,-7,100,-27,430,390,384,304,223
60,135,66,-97,-7,100,-27,436,402,396,316,235
60,135,66,-97,-7,100,-27,436,414,408,328,241
60,141,72,-97,-7,106,-27,442,420,414,334,253
60,147,78,-103,-13,112,-27,442,426,420,340,259
60,153,84,-103,-13,118,-27,448,432,426,346,265
60,159,90,-109,-19,124,-27,448,438,432,352,271
60,165,96,-109,-19,130,-21,448,444,438,364,277
60,171,102,-115,-19,136,-21,448,444,444,370,283
60,177,108,-115,-19,142,-15,448,450,450,382,289
60,183,114,-121,-19,148,-15,448,450,456,388,295
54,183,120,-115,-24,154,-9,436,444,456,382,289
54,183,120,-115,-24,154,-3,430,444,456,382,283
48,183,126,-115,-30,154,2,418,438,456,376,277
48,183,126,-115,-30,154,2,412,438,456,376,271
42,177,126,-109,-30,154,2,406,426,438,364,265
42,171,120,-103,-30,148,8,400,420,426,358,265
36,165,120,-97,-30,142,14,394,408,408,346,259
36,159,114,-97,-30,136,20,388,402,396,340,259
24,153,120,-85,-36,136,32,370,378,378,322,247
18,147,120,-79,-42,136,38,358,360,366,310,235
6,141,126,-73,-48,136,50,340,336,348,292,217
0,135,126,-67,-54,130,56,328,318,336,280,205
-6,123,120,-55,-54,124,62,310,294,312,268,193
-12,111,114,-49,-54,112,68,298,282,294,250,181
-18,99,108,-37,-54,106,74,280,258,270,232,169
-24,87,102,-31,-54,94,80,268,240,246,214,157
-30,69,90,-19,-48,82,86,250,216,222,196,139
-30,57,78,-13,-42,70,86,238,192,204,184,127
-30,39,66,-1,-42,52,92,226,168,180,166,109
-30,27,54,5,-36,40,92,214,144,162,154,97
-30,15,48,17,-36,28,98,196,126,144,136,85
-35,9,48,22,-36,28,98,184,108,126,124,79
-41,-3,42,22,-36,16,104,166,90,108,106,67
-47,-9,42,22,-42,16,104,154,72,90,94,61
-53,-15,36,28,-42,4,104,148,54,72,76,49
-53,-15,30,34,-42,-2,104,142,42,60,64,43
-59,-26,24,40,-42,-2,104,136,37,55,46,31
-59,-32,18,46,-36,-2,104,130,25,43,34,25
-65,-38,18,52,-42,-7,98,118,13,31,28,19
-65,-44,12,52,-36,-13,98,112,7,25,28,19
-71,-50,12,58,-42,-13,92,100,-5,13,28,19
-71,-56,12,64,-36,-19,92,94,-11,7,23,14
-71,-68,7,70,-30,-31,92,88,-17,1,17,8
-71,-74,1,70,-30,-37,92,88,-23,1,11,8
-71,-86,-11,76,-24,-49,92,82,-29,-5,5,2
-71,-92,-17,82,-19,-55,92,82,-35,-5,-1,2
-71,-86,-11,76,-24,-49,86,76,-41,-11,-7,-4
-71,-86,-11,76,-24,-49,86,70,-47,-17,-13,-10
-71,-80,-5,76,-24,-43,80,64,-53,-23,-19,-16
-71,-80,-5,76,-24,-43,80,58,-59,-29,-25,-22
-65,-80,-11,70,-19,-49,80,52,-65,-35,-31,-22
-65,-80,-11,70,-19,-49,80,52,-65,-35,-31,-22
-59,-80,-17,70,-19,-49,80,46,-71,-41,-37,-22
-59,-80,-17,70,-19,-49,80,46,-71,-41,-37,-22
-65,-86,-17,76,-19,-55,80,52,-65,-41,-37,-22
-65,-86,-17,76,-19,-55,80,52,-65,-41,-37,-22
-71,-92,-17,82,-19,-55,80,58,-59,-41,-37,-22
-71,-92,-17,82,-19,-55,80,58,-59,-41,-37,-22
-71,-98,-23,82,-19,-61,74,52,-65,-47,-43,-28
-71,-98,-23,82,-19,-61,74,52,-65,-47,-49,-28
-71,-104,-29,88,-19,-67,68,46,-71,-53,-55,-34
-71,-104,-29,88,-19,-67,68,46,-71,-53,-61,-34
-71,-104,-29,88,-19,-67,68,46,-65,-47,-55,-34
-71,-104,-29,88,-19,-67,68,46,-65,-47,-55,-34
-71,-104,-29,88,-19,-67,68,46,-59,-41,-49,-34
-71,-104,-29,88,-19,-67,68,46,-59,-41,-49,-34
-71,-104,-29,88,-19,-67,68,46,-59,-41,-49,-34
-71,-104,-29,88,-19,-67,68,46,-59,-41,-49,-34
-71,-104,-29,88,-19,-67,68,46,-59,-41,-49,-34
-71,-104,-29,88,-19,-67,68,46,-59,-41,-49,-34
-71,-98,-23,82,-19,-61,68,52,-59,-41,-55,-28
-71,-98,-23,82,-19,-61,68,52,-59,-41,-55,-28
-71,-92,-17,82,-19,-55,68,58,-59,-41,-61,-22
-71,-92,-17,82,-19,-55,68,58,-59,-41,-61,-22
-71,-98,-23,82,-19,-61,68,58,-59,-47,-61,-22
-71,-98,-23,82,-19,-61,68,58,-59,-47,-61,-22
-71,-104,-29,88,-19,-67,68,58,-59,-53,-61,-22
-71,-104,-29,88,-19,-67,68,58,-59,-53,-61,-22
-71,-104,-29,88,-19,-67,68,58,-59,-53,-67,-28
-71,-104,-29,88,-19,-67,68,58,-59,-53,-67,-28
-71,-104,-29,88,-19,-67,68,58,-59,-53,-73,-34
-71,-104,-29,88,-19,-67,68,58,-59,-53,-73,-34
-71,-104,-29,88,-19,-67,68,58,-65,-53,-73,-34
-71,-104,-29,88,-19,-67,68,58,-65,-53,-73,-34
-71,-104,-29,88,-19,-67,68,58,-71,-53,-73,-34
-71,-104,-29,88,-19,-67,68,58,-71,-53,-73,-34
-65,-104,-35,82,-19,-73,68,64,-65,-53,-79,-34
-65,-104,-35,82,-19,-73,68,64,-65,-53,-79,-34
-59,-104,-41,82,-13,-73,68,70,-59,-53,-85,-34
-59,-104,-41,82,-13,-73,68,70,-59,-53,-85,-34
-65,-104,-35,82,-19,-73,68,70,-59,-53,-79,-28
-65,-104,-35,82,-19,-73,68,70,-59,-53,-79,-28
-71,-104,-29,88,-19,-67,68,70,-59,-53,-73,-22
-71,-104,-29,88,-19,-67,68,70,-59,-53,-73,-22
-71,-104,-29,88,-19,-67,68,76,-53,-53,-73,-22
-71,-104,-29,88,-19,-67,68,76,-53,-53,-73,-22
-71,-104,-29,88,-19,-67,68,82,-47,-53,-73,-22
-71,-104,-29,88,-19,-67,68,82,-47,-53,-73,-22
-71,-104,-29,88,-19,-67,68,82,-47,-53,-73,-22
-71,-104,-29,88,-19,-67,68,82,-47,-53,-73,-22
-71,-104,-29,88,-19,-67,68,82,-47,-53,-73,-22
-71,-104,-29,88,-19,-67,68,82,-47,-53,-73,-22
-65,-98,-29,82,-19,-67,68,82,-53,-53,-79,-28
-65,-98,-29,82,-19,-67,68,82,-53,-53,-79,-28
-59,-92,-29,76,-19,-61,68,82,-59,-53,-85,-34
-59,-92,-29,76,-19,-61,68,82,-59,-53,-85,-34
-65,-92,-23,76,-19,-61,74,88,-53,-53,-79,-34
-65,-92,-23,76,-19,-61,74,88,-53,-53,-79,-34
-71,-92,-17,82,-19,-55,80,94,-47,-53,-73,-34
-71,-92,-17,82,-19,-55,80,94,-47,-53,-73,-34
-71,-92,-17,82,-19,-55,80,88,-47,-53,-67,-34
-71,-92,-17,82,-19,-55,80,88,-47,-53,-67,-34
-71,-92,-17,82,-19,-55,80,82,-47,-53,-61,-34
-71,-92,-17,82,-19,-55,80,82,-47,-53,-61,-34
-65,-92,-23,76,-19,-61,74,82,-47,-53,-61,-28
-65,-92,-23,76,-19,-61,74,82,-47,-53,-61,-28
-59,-92,-29,76,-19,-61,68,82,-47,-53,-61,-22
-59,-92,-29,76,-19,-61,68,82,-47,-53,-61,-22
-59,-92,-29,76,-19,-61,74,82,-53,-53,-67,-28
-59,-92,-29,76,-19,-61,74,82,-53,-53,-67,-28
-59,-92,-29,76,-19,-61,80,82,-59,-53,-73,-34
-59,-92,-29,76,-19,-61,80,82,-59,-53,-73,-34
-59,-92,-29,76,-19,-61,74,76,-59,-59,-79,-34
-59,-92,-29,76,-19,-61,74,76,-59,-59,-79,-34
-59,-92,-29,76,-19,-61,68,70,-59,-65,-85,-34
-59,-92,-29,76,-19,-61,68,70,-59,-65,-85,-34
-59,-92,-29,76,-19,-61,68,64,-59,-65,-85,-34
-59,-92,-29,76,-19,-61,68,64,-59,-65,-85,-34
-59,-92,-29,76,-19,-61,68,58,-59,-65,-85,-34
-59,-92,-29,76,-19,-61,68,58,-59,-65,-85,-34
-65,-92,-23,76,-19,-61,68,58,-59,-71,-85,-34
-65,-92,-23,76,-19,-61,68,58,-59,-71,-85,-34
-71,-92,-17,82,-19,-55,68,58,-59,-77,-85,-34
-71,-92,-17,82,-19,-55,68,58,-59,-77,-85,-34
-71,-92,-17,82,-19,-55,62,52,-65,-83,-85,-34
-71,-92,-17,82,-19,-55,62,52,-65,-83,-85,-34
-71,-92,-17,82,-19,-55,56,46,-71,-89,-85,-34
-71,-92,-17,82,-19,-55,56,46,-71,-89,-85,-34
-65,-92,-23,76,-19,-61,56,40,-77,-89,-91,-28
-65,-92,-23,76,-19,-61,56,40,-77,-89,-91,-28
-59,-92,-29,76,-19,-61,56,34,-83,-89,-97,-22
-59,-92,-29,76,-19,-61,56,34,-83,-89,-97,-22
-59,-92,-29,76,-19,-61,62,40,-83,-89,-91,-28
-59,-92,-29,76,-19,-61,62,40,-83,-89,-91,-28
-59,-92,-29,76,-19,-61,68,46,-83,-89,-85,-34
-59,-92,-29,76,-19,-61,68,46,-83,-89,-85,-34
-59,-98,-35,76,-19,-67,62,40,-83,-89,-91,-34
-59,-98,-35,76,-19,-67,62,40,-83,-89,-91,-34
-59,-104,-41,82,-13,-73,56,34,-83,-89,-97,-34
-59,-104,-41,82,-13,-73,56,34,-83,-89,-97,-34
-59,-98,-35,76,-19,-67,56,28,-89,-95,-103,-34
-59,-98,-35,76,-19,-67,56,28,-89,-95,-103,-34
-59,-92,-29,76,-19,-61,56,22,-95,-101,-109,-34
-59,-92,-29,76,-19,-61,56,22,-95,-101,-109,-34
-65,-98,-29,82,-19,-67,56,22,-95,-95,-109,-40
-65,-98,-29,82,-19,-67,56,22,-95,-95,-109,-40
-71,-104,-29,88,-19,-67,56,22,-95,-89,-109,-46
-71,-104,-29,88,-19,-67,56,22,-95,-89,-109,-46
-65,-110,-41,88,-19,-79,56,22,-95,-89,-115,-46
-65,-110,-41,88,-19,-79,56,22,-95,-89,-115,-46
-59,-116,-53,88,-7,-85,56,22,-95,-89,-121,-46
-59,-116,-53,88,-7,-85,56,22,-95,-89,-121,-46
-59,-116,-53,88,-7,-85,50,22,-95,-95,-115,-40
-59,-116,-53,88,-7,-85,50,22,-95,-95,-115,-40
-59,-116,-53,88,-7,-85,44,22,-95,-101,-109,-34
-59,-116,-53,88,-7,-85,44,22,-95,-101,-109,-34
-59,-116,-53,88,-7,-85,44,16,-95,-101,-115,-40
-59,-116,-53,88,-7,-85,44,16,-95,-101,-115,-40
-59,-116,-53,88,-7,-85,44,10,-95,-101,-121,-46
-59,-116,-53,88,-7,-85,44,10,-95,-101,-121,-46
-65,-116,-47,88,-13,-85,44,10,-95,-101,-121,-46
-65,-116,-47,88,-13,-85,44,10,-95,-101,-121,-46
-71,-116,-41,94,-19,-79,44,10,-95,-101,-121,-46
-71,-116,-41,94,-19,-79,44,10,-95,-101,-121,-46
-71,-116,-41,94,-19,-79,44,10,-95,-101,-121,-52
-71,-116,-41,94,-19,-79,44,10,-95,-101,-121,-52
-71,-116,-41,94,-19,-79,44,10,-95,-101,-121,-58
-71,-116,-41,94,-19,-79,44,10,-95,-101,-121,-58
-71,-116,-41,94,-19,-79,44,10,-101,-101,-127,-58
-71,-116,-41,94,-19,-79,44,10,-101,-101,-127,-58
-71,-116,-41,94,-19,-79,44,10,-107,-101,-133,-58
-71,-116,-41,94,-19,-79,44,10,-107,-101,-133,-58
-65,-116,-47,88,-13,-85,38,4,-107,-107,-133,-58
-65,-116,-47,88,-13,-85,38,4,-107,-107,-133,-58
-59,-116,-53,88,-7,-85,32,-2,-107,-113,-133,-58
-59,-116,-53,88,-7,-85,32,-2,-107,-113,-133,-58
-59,-122,-59,88,-7,-91,38,4,-107,-113,-133,-52
-59,-122,-59,88,-7,-91,38,4,-107,-113,-133,-52
-59,-128,-65,94,-1,-97,44,10,-107,-113,-133,-46
-59,-128,-65,94,-1,-97,44,10,-107,-113,-133,-46
-59,-122,-59,88,-7,-91,38,4,-113,-113,-139,-46
-59,-122,-59,88,-7,-91,38,4,-113,-113,-139,-46
-59,-116,-53,88,-7,-85,32,-2,-119,-113,-145,-46
-59,-116,-53,88,-7,-85,32,-2,-119,-113,-145,-46
-65,-116,-47,88,-13,-85,32,4,-119,-113,-139,-52
-65,-116,-47,88,-13,-85,32,4,-119,-113,-139,-52
-71,-116,-41,94,-19,-79,32,10,-119,-113,-133,-58
-71,-116,-41,94,-19,-79,32,10,-119,-113,-133,-58
-71,-116,-41,94,-19,-79,32,10,-113,-107,-133,-58
-71,-116,-41,94,-19,-79,32,10,-113,-107,-133,-58
-71,-116,-41,94,-19,-79,32,10,-107,-101,-133,-58
-71,-116,-41,94,-19,-79,32,10,-107,-101,-133,-58
-65,-116,-47,88,-13,-85,32,4,-113,-107,-139,-58
-65,-116,-47,88,-13,-85,32,4,-119,-107,-139,-58
-59,-116,-53,88,-7,-85,32,-2,-125,-113,-145,-58
-59,-116,-53,88,-7,-85,32,-2,-131,-113,-145,-58
-65,-116,-47,88,-13,-85,32,-2,-125,-113,-145,-58
-65,-116,-47,88,-13,-85,32,-2,-125,-113,-145,-58
-71,-116,-41,94,-19,-79,32,-2,-119,-113,-145,-58
-71,-116,-41,94,-19,-79,32,-2,-119,-113,-145,-58
-71,-122,-47,94,-19,-85,32,4,-119,-113,-145,-52
-71,-122,-47,94,-19,-85,32,4,-119,-113,-145,-52
-71,-128,-53,100,-13,-91,32,10,-119,-113,-145,-46
-71,-128,-53,100,-13,-91,32,10,-119,-113,-145,-46
-65,-122,-53,94,-13,-91,32,4,-119,-107,-145,-52
-65,-122,-53,94,-13,-91,32,4,-119,-107,-145,-52
-59,-116,-53,88,-7,-85,32,-2,-119,-101,-145,-58
-59,-116,-53,88,-7,-85,32,-2,-119,-101,-145,-58
-59,-116,-53,88,-7,-85,32,4,-119,-107,-139,-58
-59,-116,-53,88,-7,-85,32,4,-119,-107,-139,-58
-59,-116,-53,88,-7,-85,32,10,-119,-113,-133,-58
-59,-116,-53,88,-7,-85,32,10,-119,-113,-133,-58
-65,-122,-53,94,-13,-91,32,10,-119,-107,-133,-52
-65,-122,-53,94,-13,-91,32,10,-119,-107,-133,-52
-71,-128,-53,100,-13,-91,32,10,-119,-101,-133,-46
-71,-128,-53,100,-13,-91,32,10,-119,-101,-133,-46
-71,-128,-53,100,-13,-91,38,10,-119,-101,-133,-46
-71,-128,-53,100,-13,-91,38,10,-119,-101,-133,-46
-71,-128,-53,100,-13,-91,44,10,-119,-101,-133,-46
-71,-128,-53,100,-13,-91,44,10,-119,-101,-133,-46
-71,-128,-53,100,-13,-91,38,4,-119,-101,-139,-52
-71,-128,-53,100,-13,-91,38,4,-119,-101,-139,-52
-71,-128,-53,100,-13,-91,32,-2,-119,-101,-145,-58
-71,-128,-53,100,-13,-91,32,-2,-119,-101,-145,-58
-71,-122,-47,94,-19,-85,32,-2,-119,-107,-145,-58
-71,-122,-47,94,-19,-85,32,-2,-119,-107,-145,-58
-71,-116,-41,94,-19,-79,32,-2,-119,-113,-145,-58
-71,-116,-41,94,-19,-79,32,-2,-119,-113,-145,-58
-65,-116,-47,88,-13,-85,32,-2,-125,-113,-145,-58
-65,-116,-47,88,-13,-85,32,-2,-125,-113,-145,-58
-59,-116,-53,88,-7,-85,32,-2,-131,-113,-145,-58
-59,-116,-53,88,-7,-85,32,-2,-131,-113,-145,-58
-65,-122,-53,94,-13,-91,32,-2,-131,-107,-139,-52
-65,-122,-53,94,-13,-91,32,-2,-131,-107,-139,-52
-71,-128,-53,100,-13,-91,32,-2,-131,-101,-133,-46
-71,-128,-53,100,-13,-91,32,-2,-131,-101,-133,-46
-71,-128,-53,100,-13,-91,32,-2,-125,-101,-133,-46
-71,-128,-53,100,-13,-91,32,-2,-125,-101,-133,-46
-71,-128,-53,100,-13,-91,32,-2,-119,-101,-133,-46
-71,-128,-53,100,-13,-91,32,-2,-119,-101,-133,-46
-65,-122,-53,94,-13,-91,32,4,-125,-107,-139,-46
-65,-122,-53,94,-13,-91,32,4,-125,-107,-139,-46
-59,-116,-53,88,-7,-85,32,10,-131,-113,-145,-46
-59,-116,-53,88,-7,-85,32,10,-131,-113,-145,-46
-59,-122,-59,88,-7,-91,32,10,-131,-113,-145,-46
-59,-122,-59,88,-7,-91,32,10,-131,-113,-145,-46
-59,-128,-65,94,-1,-97,32,10,-131,-113,-145,-46
-59,-128,-65,94,-1,-97,32,10,-131,-113,-145,-46
-65,-128,-59,94,-7,-97,32,10,-131,-113,-145,-46
-65,-128,-59,94,-7,-97,32,10,-131,-113,-145,-46
-71,-128,-53,100,-13,-91,32,10,-131,-113,-145,-46
-71,-128,-53,100,-13,-91,32,10,-131,-113,-145,-46
-71,-128,-53,100,-13,-91,32,10,-125,-107,-145,-46
-71,-128,-53,100,-13,-91,32,10,-125,-107,-145,-46
-71,-128,-53,100,-13,-91,32,10,-119,-101,-145,-46
-71,-128,-53,100,-13,-91,32,10,-119,-101,-145,-46
-71,-128,-53,100,-13,-91,32,10,-125,-107,-145,-46
-71,-128,-53,100,-13,-91,32,10,-125,-107,-145,-46
-71,-134,-59,100,-13,-97,32,10,-131,-113,-145,-46
-71,-134,-59,100,-13,-97,32,10,-131,-113,-145,-52
-71,-134,-59,100,-13,-97,32,10,-131,-113,-145,-52
-71,-134,-59,100,-13,-97,32,10,-131,-113,-151,-52
-71,-134,-59,100,-13,-97,32,10,-131,-119,-157,-52
-71,-134,-59,100,-13,-97,32,16,-131,-119,-157,-52
-71,-140,-65,106,-7,-103,38,10,-131,-113,-151,-52
-71,-140,-65,106,-7,-103,38,10,-131,-113,-151,-46
-71,-146,-71,106,-7,-109,44,4,-131,-107,-145,-46
-65,-146,-77,106,-1,-115,44,4,-131,-107,-139,-46
-71,-140,-65,106,-7,-103,38,10,-131,-107,-139,-40
-71,-140,-65,106,-7,-103,38,4,-131,-107,-139,-46
-77,-134,-53,106,-19,-97,32,10,-131,-107,-139,-40
-83,-140,-53,112,-19,-97,32,10,-137,-113,-145,-40
-77,-140,-59,106,-13,-103,32,10,-137,-113,-151,-46
-77,-134,-53,106,-19,-97,26,10,-137,-113,-145,-46
-59,-134,-71,94,-1,-103,26,16,-137,-107,-151,-52
-59,-128,-65,94,-1,-97,26,16,-137,-107,-151,-52
-59,-128,-65,94,-1,-97,26,16,-131,-113,-151,-52
-59,-128,-65,94,-1,-97,32,22,-125,-113,-151,-52
-59,-122,-59,88,-7,-91,38,22,-125,-107,-151,-46
-47,-110,-59,76,-1,-85,44,28,-119,-95,-139,-34
-47,-98,-47,70,-7,-73,50,46,-113,-89,-121,-28
-47,-86,-35,64,-13,-61,56,52,-101,-83,-121,-22
-47,-62,-11,52,-19,-37,74,64,-95,-77,-115,-10
-47,-56,-5,52,-19,-31,80,64,-89,-77,-109,2
-53,-50,7,52,-24,-25,92,76,-83,-65,-103,8
-53,-50,7,52,-24,-25,104,82,-77,-59,-91,8
-59,-44,12,52,-30,-13,116,88,-71,-53,-97,14
-65,-38,18,52,-42,-7,116,94,-59,-47,-97,14
-59,-44,12,52,-30,-13,110,94,-53,-47,-97,8
-65,-44,12,52,-36,-13,110,94,-53,-41,-91,8
-59,-38,12,46,-36,-7,98,76,-59,-47,-85,8
-59,-20,30,40,-42,-2,92,76,-59,-47,-85,19
-53,-15,30,34,-42,-2,92,76,-59,-47,-79,19
-41,-15,18,28,-30,-2,86,76,-59,-47,-79,19
-35,-15,12,22,-24,-2,74,76,-59,-47,-73,19
-30,-15,12,22,-19,-2,62,70,-59,-47,-79,19
-30,-15,12,22,-19,-2,44,58,-65,-53,-91,19
-30,-15,12,22,-19,-2,32,52,-65,-53,-91,19
-24,-20,-5,22,-7,-13,26,40,-71,-53,-97,14
-18,-32,-23,22,5,-25,20,40,-71,-53,-97,14
-24,-44,-29,28,5,-37,14,46,-71,-47,-91,19
-24,-50,-35,28,5,-43,14,34,-83,-65,-97,14
-30,-68,-47,40,11,-55,14,22,-89,-71,-103,14
-30,-80,-53,52,11,-67,8,10,-107,-83,-109,8
-30,-80,-53,52,11,-67,8,10,-113,-83,-115,2
-30,-80,-53,52,11,-67,8,10,-113,-83,-115,2
-30,-86,-59,52,11,-73,14,10,-119,-83,-115,-4
-35,-92,-53,64,5,-73,14,10,-119,-83,-115,-4
-30,-92,-59,58,11,-79,14,10,-119,-83,-121,-10
-30,-92,-59,58,11,-79,20,10,-113,-83,-127,-16
-30,-92,-59,58,11,-79,20,4,-113,-89,-133,-22
-35,-104,-65,70,11,-85,32,10,-113,-89,-139,-22
-41,-110,-65,76,5,-91,32,16,-113,-89,-145,-28
-47,-116,-65,82,5,-91,32,16,-113,-95,-145,-28
-53,-122,-65,88,-1,-97,38,22,-113,-95,-145,-40
-59,-128,-65,94,-1,-97,38,22,-113,-95,-145,-46
-65,-128,-59,94,-7,-97,44,16,-125,-101,-151,-40
-65,-134,-65,100,-7,-103,44,4,-131,-107,-157,-46
-77,-140,-59,106,-13,-103,50,-2,-137,-107,-157,-46
-77,-140,-59,106,-13,-103,50,-8,-143,-113,-163,-46
-77,-140,-59,106,-13,-103,44,-8,-143,-113,-163,-52
-77,-140,-59,106,-13,-103,38,-8,-143,-113,-169,-52
-77,-152,-71,112,-7,-115,38,-8,-137,-113,-169,-52
-77,-152,-71,112,-7,-115,38,-8,-137,-113,-169,-52
-71,-146,-71,106,-7,-109,38,-8,-143,-113,-169,-52
-71,-140,-65,106,-7,-103,38,-8,-143,-113,-163,-52
-65,-140,-71,100,-1,-109,38,-8,-143,-113,-157,-52
-65,-146,-77,106,-1,-115,44,-8,-143,-113,-157,-52
-65,-146,-77,106,-1,-115,38,-8,-143,-113,-157,-46
-65,-146,-77,106,-1,-115,38,-8,-143,-107,-157,-46
-65,-146,-77,106,-1,-115,32,-8,-143,-107,-157,-46
-65,-146,-77,106,-1,-115,32,-8,-143,-107,-157,-46
-71,-146,-71,106,-7,-109,32,-8,-143,-107,-157,-46
-71,-146,-71,106,-7,-109,32,-8,-143,-107,-157,-46
-77,-146,-65,112,-13,-109,32,-8,-143,-113,-157,-46
-77,-146,-65,112,-13,-109,26,-8,-143,-113,-157,-46
-77,-146,-65,112,-13,-109,38,-8,-137,-95,-157,-46
-77,-146,-65,112,-13,-109,38,4,-125,-95,-157,-46
-65,-146,-77,106,-1,-115,56,22,-125,-107,-157,-52
-77,-164,-83,118,-1,-127,80,76,-119,-119,-175,-76
-77,-176,-95,124,5,-139,134,160,-83,-107,-181,-82
-77,-170,-89,124,-1,-133,182,280,-41,-95,-181,-82
-77,-146,-65,112,-13,-109,230,388,13,-65,-175,-82
-77,-116,-35,94,-19,-79,242,448,54,-29,-151,-58
-77,-62,12,70,-42,-25,242,478,90,19,-115,-34
-71,-26,36,46,-54,-2,236,502,150,60,-67,-10
-35,-15,24,22,-24,4,242,574,252,156,-1,19
-12,-9,7,11,-7,-2,272,748,402,276,76,61
18,39,12,-25,-1,28,308,928,564,420,184,133
72,129,48,-97,11,88,290,1000,714,606,358,253
132,219,78,-175,23,148,230,850,816,792,538,403
192,345,150,-265,17,244,146,502,870,960,730,553
264,525,252,-397,5,394,50,124,918,1164,946,727
342,705,354,-517,-7,526,-63,-259,984,1374,1174,925
408,843,432,-625,-13,640,-207,-691,1020,1590,1378,1099
450,957,504,-703,-19,730,-339,-1099,1026,1788,1582,1261
474,1077,594,-775,-48,838,-501,-1405,1110,1998,1774,1417
498,1215,714,-859,-96,970,-693,-1669,1182,2189,1954,1531
486,1365,870,-925,-186,1120,-813,-1849,1236,2345,2097,1639
456,1449,984,-949,-258,1216,-891,-1861,1356,2506,2223,1717
450,1395,942,-919,-240,1168,-975,-1819,1512,2644,2289,1723
396,1263,864,-829,-228,1066,-1011,-1819,1506,2584,2211,1633
306,1059,744,-685,-216,904,-933,-1795,1320,2243,1936,1453
222,765,534,-493,-150,652,-843,-1651,1014,1662,1528,1207
174,435,252,-301,-30,346,-735,-1489,600,966,994,877
66,141,66,-103,-1,106,-621,-1369,90,216,394,511
-41,-56,-11,46,-19,-37,-495,-1285,-389,-359,-103,193
-119,-182,-59,148,-24,-121,-417,-1195,-689,-659,-391,-22
-143,-248,-101,196,-19,-175,-387,-1075,-767,-713,-469,-130
-143,-254,-107,196,-19,-181,-369,-961,-695,-629,-457,-148
-137,-254,-113,196,-19,-187,-351,-841,-617,-521,-427,-160
-131,-254,-119,190,-13,-187,-333,-751,-569,-485,-415,-166
-107,-242,-131,172,5,-187,-315,-619,-485,-431,-379,-148
-101,-248,-143,172,17,-199,-267,-451,-383,-341,-331,-118
-101,-248,-143,172,17,-199,-195,-307,-287,-263,-283,-88
-107,-248,-137,178,11,-193,-129,-199,-209,-215,-247,-82
-101,-236,-131,166,11,-187,-87,-121,-161,-179,-229,-64
-71,-218,-143,142,29,-181,-63,-61,-131,-149,-205,-58
-71,-194,-119,130,17,-157,-57,-25,-113,-125,-193,-52
-65,-194,-125,130,23,-163,-57,-19,-125,-131,-199,-52
-53,-170,-113,112,23,-145,-45,-13,-131,-131,-199,-64
-53,-146,-89,100,11,-121,-45,-2,-131,-131,-193,-64
-53,-158,-101,106,17,-133,-33,10,-131,-143,-187,-64
-53,-152,-95,100,17,-127,-21,16,-137,-143,-187,-64
-53,-152,-95,100,17,-127,-9,40,-131,-137,-187,-64
-59,-146,-83,100,5,-115,-3,46,-125,-125,-187,-70
-59,-152,-89,106,11,-121,2,46,-125,-113,-181,-70
-59,-158,-95,106,11,-127,2,46,-119,-113,-187,-70
-53,-158,-101,106,17,-133,2,46,-119,-113,-181,-70
-53,-164,-107,106,23,-139,8,46,-113,-113,-187,-64
-53,-164,-107,106,23,-139,8,46,-113,-113,-187,-64
-53,-164,-107,106,23,-139,2,46,-119,-119,-187,-70
-47,-164,-113,106,29,-139,2,46,-119,-113,-187,-70
-47,-158,-107,100,23,-133,8,46,-125,-119,-187,-76
-47,-152,-101,100,23,-127,8,52,-131,-119,-181,-76
-41,-152,-107,94,29,-133,20,52,-125,-113,-181,-70
-41,-152,-107,94,29,-133,20,58,-125,-107,-181,-70
-35,-152,-113,94,35,-133,20,58,-113,-101,-181,-64
-35,-152,-113,94,35,-133,20,64,-113,-101,-181,-64
-35,-152,-113,94,35,-133,26,64,-113,-101,-175,-64
-35,-152,-113,94,35,-133,26,64,-113,-101,-175,-70
-35,-152,-113,94,35,-133,32,64,-113,-101,-175,-70
-35,-152,-113,94,35,-133,38,64,-113,-95,-169,-70
-35,-146,-107,88,29,-127,32,70,-113,-101,-169,-58
-35,-146,-107,88,29,-127,32,70,-113,-95,-169,-58
-30,-140,-107,82,35,-127,26,76,-113,-101,-169,-52
-30,-140,-107,82,35,-127,26,76,-113,-101,-163,-52
-35,-146,-107,88,29,-127,32,76,-107,-95,-163,-52
-35,-146,-107,88,29,-127,32,76,-107,-101,-157,-52
-41,-152,-107,94,29,-133,38,76,-101,-95,-157,-46
-41,-158,-113,100,29,-139,38,82,-95,-89,-157,-46
-35,-152,-113,94,35,-133,32,82,-101,-89,-157,-46
-35,-152,-113,94,35,-133,38,82,-101,-89,-157,-46
-35,-146,-107,88,29,-127,32,82,-107,-89,-157,-46
-35,-146,-107,88,29,-127,32,88,-107,-89,-157,-46
-30,-140,-107,82,35,-127,32,88,-95,-83,-163,-46
-30,-140,-107,82,35,-127,32,88,-95,-77,-163,-46
-30,-134,-107,76,35,-121,38,82,-83,-71,-169,-46
-30,-134,-107,76,35,-121,38,82,-83,-71,-169,-46
-30,-140,-113,82,41,-127,38,88,-83,-71,-157,-46
-30,-140,-119,76,47,-127,38,94,-77,-65,-157,-46
-30,-146,-125,82,47,-133,32,100,-77,-65,-151,-46
-30,-146,-119,82,41,-133,32,106,-77,-65,-151,-46
-30,-146,-119,82,41,-133,38,106,-71,-59,-151,-46
-30,-146,-125,82,47,-133,38,112,-71,-59,-151,-40
-30,-152,-131,82,53,-139,50,112,-65,-59,-151,-40
-30,-152,-131,82,53,-139,50,112,-65,-59,-145,-40
-30,-146,-125,82,47,-133,50,118,-65,-65,-145,-40
-30,-146,-125,82,47,-133,50,118,-65,-59,-145,-34
-24,-140,-125,76,53,-133,50,130,-71,-53,-151,-34
-18,-140,-131,70,59,-133,50,130,-71,-53,-151,-34
-24,-140,-125,76,53,-133,44,130,-59,-53,-145,-34
-30,-140,-119,76,47,-127,44,136,-59,-53,-145,-34
-30,-134,-107,76,35,-121,38,136,-47,-53,-133,-34
-30,-134,-113,76,41,-121,38,142,-47,-47,-133,-28
-24,-134,-119,70,47,-127,38,142,-41,-41,-127,-28
-24,-128,-113,70,47,-121,38,148,-41,-41,-121,-28
-18,-116,-107,58,47,-109,38,148,-41,-41,-121,-28
-18,-116,-107,58,47,-109,38,154,-35,-41,-115,-28
-18,-116,-107,58,47,-109,38,148,-35,-23,-109,-28
-12,-116,-113,58,53,-115,32,160,-23,-17,-109,-28
-12,-116,-113,58,53,-115,32,154,-17,-11,-103,-22
-12,-116,-113,58,53,-115,32,160,-11,-11,-103,-10
-12,-104,-101,52,47,-103,32,172,-11,-5,-97,-16
-6,-104,-107,46,53,-103,32,172,1,1,-91,-10
-6,-98,-101,46,47,-97,32,184,1,7,-97,-16
-6,-98,-101,46,47,-97,32,190,1,19,-97,-16
-6,-92,-95,40,47,-91,32,196,13,19,-79,2
0,-92,-101,40,53,-97,32,202,25,25,-73,2
-6,-80,-83,34,41,-79,38,208,37,25,-67,14
-6,-80,-83,34,41,-79,38,214,42,31,-61,19
-6,-74,-77,34,35,-73,38,214,42,37,-55,19
-6,-68,-71,28,35,-67,38,220,42,43,-55,19
6,-62,-77,22,41,-67,38,232,42,55,-49,19
6,-56,-71,22,41,-61,38,232,48,60,-43,31
6,-56,-71,22,41,-61,38,244,72,72,-43,43
6,-56,-71,22,41,-61,38,250,78,72,-37,49
6,-44,-59,22,35,-49,38,262,96,84,-31,49
18,-38,-65,17,41,-49,32,274,108,96,-19,55
18,-32,-59,17,41,-43,32,286,120,114,-1,61
24,-20,-53,5,41,-37,32,292,126,126,11,67
24,-26,-59,11,41,-43,26,298,144,144,28,73
24,-15,-47,5,35,-31,26,310,162,156,28,85
30,-15,-41,-7,41,-19,20,316,174,168,40,97
42,-3,-41,-19,47,-13,20,328,186,180,58,109
48,15,-29,-31,41,-2,14,334,204,198,70,121
60,27,-29,-43,47,-2,14,346,216,222,94,133
66,33,-29,-49,53,-2,14,352,234,228,100,139
66,39,-23,-49,47,4,8,358,240,246,106,145
72,51,-17,-61,47,10,14,364,258,264,118,151
72,57,-11,-61,47,16,8,370,270,282,136,163
72,69,1,-67,41,28,2,376,282,288,154,175
78,93,12,-85,35,52,2,382,294,306,166,187
72,93,12,-79,29,52,2,388,324,318,178,193
78,105,18,-91,29,64,2,394,336,336,190,211
90,123,24,-103,29,76,-3,394,342,342,196,217
90,123,24,-103,29,76,-3,394,354,354,214,235
96,129,24,-109,35,76,-9,394,366,360,208,241
108,141,24,-121,41,82,-9,400,372,378,220,253
102,147,36,-121,29,94,-3,406,396,390,238,259
96,153,48,-121,23,100,-3,406,396,402,250,265
90,165,66,-127,11,118,2,406,414,402,256,265
84,171,78,-127,-1,124,-3,406,414,408,262,265
90,177,78,-133,5,130,2,412,420,420,268,271
90,183,84,-133,-1,136,2,412,426,432,274,283
102,183,72,-139,11,130,2,412,432,450,286,289
102,189,78,-145,11,136,2,412,438,450,292,295
102,201,90,-151,5,148,2,406,444,450,292,295
102,201,90,-151,5,148,2,406,444,456,292,307
102,207,96,-151,-1,154,2,394,444,456,292,307
102,213,102,-157,-1,160,2,394,444,456,292,307
102,207,96,-151,-1,154,8,394,450,450,298,301
90,207,108,-145,-13,160,14,382,450,450,298,301
90,201,102,-145,-7,154,20,382,450,444,298,295
90,195,96,-139,-7,148,26,376,438,432,286,289
84,189,96,-133,-7,142,32,364,426,420,280,283
84,183,90,-133,-7,136,38,358,414,408,268,265
78,177,90,-127,-7,136,44,340,396,390,256,259
72,171,90,-121,-13,130,56,328,372,366,244,253
60,153,84,-103,-13,118,62,310,348,354,220,247
54,153,90,-103,-19,124,68,298,330,342,214,235
42,141,90,-91,-19,118,74,280,306,324,190,223
36,129,84,-79,-19,106,86,262,288,300,178,211
30,117,78,-73,-19,100,92,250,270,282,160,193
24,105,72,-61,-19,88,98,232,246,258,142,187
18,87,60,-49,-19,76,104,232,234,246,124,175
12,75,54,-43,-19,64,110,220,216,234,106,157
6,63,48,-31,-19,58,104,202,186,204,94,139
0,51,42,-25,-19,46,104,178,162,180,76,133
-6,39,36,-13,-19,40,110,154,138,156,52,115
-12,27,30,-7,-19,28,110,148,114,132,40,103
-18,9,18,5,-19,16,110,142,102,114,28,91
-24,3,18,11,-19,10,110,118,84,90,17,79
-24,-9,12,17,-19,-2,116,118,72,78,-1,67
-30,-15,12,22,-19,-2,116,106,60,66,-13,55
-30,-15,7,22,-19,-2,116,100,48,60,-19,55
-30,-26,1,22,-19,-13,116,88,42,60,-31,43
-30,-32,1,28,-19,-19,116,76,37,55,-43,37
-35,-38,1,34,-19,-19,116,70,25,43,-55,25
-30,-44,-11,34,-13,-31,110,64,13,25,-61,19
-35,-50,-11,40,-19,-31,110,46,1,19,-73,19
-30,-56,-23,40,-7,-43,110,40,1,7,-73,19
-30,-56,-23,40,-7,-43,110,34,-11,7,-79,14
-35,-56,-17,46,-13,-37,110,34,-11,1,-79,14
-35,-68,-29,52,-7,-49,104,34,-17,-5,-85,14
-47,-68,-17,58,-19,-43,104,34,-23,-11,-91,14
-47,-68,-17,58,-19,-43,104,34,-23,-11,-103,14
-47,-74,-23,58,-19,-49,104,28,-29,-17,-97,14
-47,-74,-23,58,-19,-49,104,22,-35,-23,-97,2
-47,-74,-23,58,-19,-49,98,10,-47,-29,-97,2
-47,-80,-29,64,-13,-55,98,10,-53,-29,-97,2
-47,-86,-35,64,-13,-61,92,10,-47,-29,-97,2
-47,-86,-35,64,-13,-61,92,10,-41,-35,-97,2
-47,-80,-29,64,-13,-55,80,10,-35,-35,-97,2
-47,-80,-29,64,-13,-55,80,10,-41,-35,-109,-4
-47,-80,-29,64,-13,-55,86,10,-47,-35,-109,-4
-47,-80,-29,64,-13,-55,86,10,-47,-35,-109,-4
-47,-74,-23,58,-19,-49,92,16,-53,-35,-109,-4
-47,-80,-29,64,-13,-55,92,16,-53,-35,-109,-4
-53,-80,-23,64,-19,-55,92,16,-53,-35,-115,-4
-53,-80,-23,64,-19,-55,86,16,-53,-35,-115,-4
-53,-80,-23,64,-19,-55,86,16,-53,-35,-115,-4
-53,-80,-23,64,-19,-55,86,16,-53,-35,-115,-4
-53,-80,-23,64,-19,-55,86,10,-53,-35,-115,-4
-53,-80,-23,64,-19,-55,86,10,-53,-35,-115,-4
-47,-80,-29,64,-13,-55,86,4,-53,-35,-109,-4
-47,-80,-29,64,-13,-55,86,4,-53,-35,-103,-4
-47,-80,-29,64,-13,-55,86,10,-53,-35,-103,-10
-47,-80,-29,64,-13,-55,86,10,-53,-35,-103,-10
-47,-80,-29,64,-13,-55,86,16,-53,-35,-103,-16
-53,-80,-23,64,-19,-55,86,16,-53,-35,-103,-16
-53,-80,-23,64,-19,-55,86,16,-53,-29,-103,-16
-47,-80,-29,64,-13,-55,86,16,-53,-29,-103,-16
-47,-74,-23,58,-19,-49,86,16,-53,-23,-103,-16
-47,-74,-23,58,-19,-49,86,22,-53,-23,-103,-16
-41,-74,-29,58,-13,-55,86,22,-47,-17,-103,-16
-41,-74,-29,58,-13,-55,80,22,-47,-17,-103,-16
-35,-86,-47,58,-1,-67,80,22,-47,-17,-103,-10
-35,-86,-47,58,-1,-67,80,22,-47,-17,-103,-10
-41,-80,-35,58,-7,-61,86,22,-53,-17,-103,-10
-41,-80,-35,58,-7,-61,86,22,-53,-17,-109,-10
-41,-86,-41,64,-7,-67,86,16,-59,-23,-109,-16
-41,-74,-29,58,-13,-55,86,16,-59,-23,-109,-16
-41,-74,-29,58,-13,-55,86,16,-65,-17,-103,-10
-41,-74,-29,58,-13,-55,86,22,-65,-17,-103,-10
-47,-74,-23,58,-19,-49,86,22,-71,-11,-97,-4
-53,-74,-17,64,-19,-49,86,22,-71,-11,-97,-4
-47,-74,-23,58,-19,-49,80,28,-71,-11,-97,-4
-41,-74,-29,58,-13,-55,80,28,-65,-11,-91,-4
-35,-74,-35,52,-7,-55,74,28,-65,-11,-91,-4
-41,-74,-29,58,-13,-55,74,28,-65,-11,-91,-4
-41,-68,-23,52,-13,-49,80,34,-65,-11,-97,-10
-41,-68,-23,52,-13,-49,80,34,-65,-11,-97,-10
-41,-74,-29,58,-13,-55,86,34,-65,-17,-103,-16
-41,-74,-29,58,-13,-55,86,34,-65,-17,-103,-16
-35,-74,-35,52,-7,-55,86,34,-65,-11,-103,-16
-35,-68,-29,52,-7,-49,86,34,-65,-11,-103,-16
-35,-68,-29,52,-7,-49,86,28,-65,-5,-103,-4
-35,-68,-29,52,-7,-49,86,28,-59,-5,-103,-4
-41,-68,-23,52,-13,-49,86,34,-59,-11,-97,-4
-41,-68,-23,52,-13,-49,86,34,-59,-11,-97,-4
-47,-68,-17,58,-19,-43,86,40,-53,-17,-91,-4
-47,-68,-17,58,-19,-43,86,46,-53,-11,-91,-4
-59,-74,-11,64,-19,-43,92,40,-59,-5,-91,-10
-59,-74,-11,64,-19,-43,92,40,-59,-5,-91,-10
-59,-80,-17,70,-19,-49,98,34,-53,-5,-97,-16
-59,-80,-17,70,-19,-49,98,34,-53,1,-97,-16
-53,-74,-17,64,-19,-49,98,40,-53,-5,-97,-16
-53,-74,-17,64,-19,-49,98,40,-59,-5,-97,-16
-53,-68,-11,58,-19,-43,98,40,-59,-11,-97,-22
-53,-62,-5,58,-19,-37,98,40,-59,-11,-97,-22
-47,-62,-11,52,-19,-37,92,40,-59,-11,-97,-16
-47,-68,-17,58,-19,-43,92,40,-59,-5,-97,-10
-47,-68,-17,58,-19,-43,86,28,-65,-11,-91,-4
-47,-68,-17,58,-19,-43,86,28,-65,-11,-91,-4
-47,-62,-11,52,-19,-37,92,28,-65,-5,-91,-10
-47,-62,-11,52,-19,-37,86,28,-65,-11,-91,-10
-47,-62,-11,52,-19,-37,92,28,-65,-11,-97,-16
-47,-62,-11,52,-19,-37,98,28,-65,-11,-97,-16
-41,-68,-23,52,-13,-49,92,28,-65,-17,-97,-22
-41,-62,-17,52,-19,-43,86,22,-65,-17,-97,-22
-35,-68,-29,52,-7,-49,80,22,-71,-23,-97,-22
-35,-74,-35,52,-7,-55,86,22,-71,-17,-97,-22
-41,-68,-23,52,-13,-49,86,22,-65,-11,-97,-10
-41,-68,-23,52,-13,-49,86,22,-65,-17,-97,-10
-41,-62,-17,52,-19,-43,86,10,-59,-11,-97,-10
-41,-62,-17,52,-19,-43,86,10,-59,-17,-97,-10
-41,-56,-11,46,-19,-37,86,10,-65,-11,-91,-4
-41,-56,-11,46,-19,-37,86,10,-65,-11,-97,-4
-41,-50,-5,46,-19,-31,86,10,-71,-5,-91,-4
-41,-50,-5,46,-19,-31,86,10,-71,-5,-91,-4
-47,-56,-5,52,-19,-31,80,-2,-71,-11,-91,-10
-47,-56,-5,52,-19,-31,80,-2,-71,-11,-91,-10
-47,-62,-11,52,-19,-37,80,-8,-77,-17,-91,-16
-41,-62,-17,52,-19,-43,80,-8,-77,-17,-91,-16
-41,-62,-17,52,-19,-43,80,-8,-77,-17,-91,-16
-41,-62,-17,52,-19,-43,80,-8,-83,-23,-91,-16
-41,-62,-17,52,-19,-43,80,-8,-83,-23,-97,-16
-47,-68,-17,58,-19,-43,80,-8,-83,-23,-97,-16
-47,-62,-11,52,-19,-37,80,-8,-77,-29,-97,-16
-47,-62,-11,52,-19,-37,74,-8,-89,-29,-97,-16
-47,-56,-5,52,-19,-31,74,-8,-83,-35,-97,-10
-41,-56,-11,46,-19,-37,74,-8,-83,-35,-109,-16
-35,-56,-17,46,-13,-37,68,-13,-83,-35,-103,-22
-35,-56,-17,46,-13,-37,68,-13,-83,-35,-109,-22
-30,-56,-23,40,-7,-43,68,-19,-95,-35,-103,-28
-35,-56,-17,46,-13,-37,68,-19,-95,-35,-103,-28
-41,-62,-17,52,-19,-43,68,-19,-89,-35,-103,-22
-41,-62,-17,52,-19,-43,68,-25,-95,-41,-103,-22
-47,-68,-17,58,-19,-43,68,-25,-95,-47,-103,-22
-47,-74,-23,58,-19,-49,68,-25,-95,-47,-103,-22
-47,-74,-23,58,-19,-49,68,-25,-95,-47,-103,-22
-47,-74,-23,58,-19,-49,68,-25,-95,-47,-109,-22
-47,-74,-23,58,-19,-49,62,-31,-95,-41,-109,-22
-47,-74,-23,58,-19,-49,62,-31,-95,-41,-109,-22
-47,-68,-17,58,-19,-43,56,-37,-101,-41,-109,-22
-47,-68,-17,58,-19,-43,50,-37,-101,-41,-109,-22
-47,-62,-11,52,-19,-37,44,-49,-107,-41,-109,-28
-47,-62,-11,52,-19,-37,50,-49,-107,-41,-109,-28
-47,-56,-5,52,-19,-31,50,-49,-107,-41,-109,-34
-47,-56,-5,52,-19,-31,50,-49,-113,-41,-109,-34
-47,-62,-11,52,-19,-37,44,-49,-113,-41,-109,-40
-47,-62,-11,52,-19,-37,44,-55,-119,-41,-109,-46
-41,-56,-11,46,-19,-37,44,-55,-119,-53,-115,-40
-41,-56,-11,46,-19,-37,44,-55,-119,-53,-115,-40
-35,-50,-11,40,-19,-31,44,-55,-119,-59,-121,-34
-35,-50,-11,40,-19,-31,38,-55,-119,-59,-121,-34
-35,-50,-11,40,-19,-31,38,-55,-119,-53,-121,-40
-35,-50,-11,40,-19,-31,38,-55,-119,-53,-127,-40
-35,-44,-5,40,-19,-25,38,-55,-119,-47,-121,-46
-35,-44,-5,40,-19,-25,38,-55,-119,-47,-121,-46
-30,-44,-11,34,-13,-31,32,-61,-119,-53,-121,-46
-30,-50,-17,40,-13,-37,32,-61,-119,-53,-121,-46
-30,-50,-23,34,-7,-37,26,-61,-119,-53,-121,-46
-30,-50,-23,34,-7,-37,26,-61,-119,-53,-121,-46
-30,-50,-17,40,-13,-37,26,-61,-125,-53,-121,-46
-35,-56,-17,46,-13,-37,26,-55,-125,-53,-121,-46
-41,-56,-11,46,-19,-37,26,-55,-125,-47,-115,-46
-35,-56,-17,46,-13,-37,26,-55,-125,-47,-115,-46
-41,-56,-11,46,-19,-37,32,-55,-131,-47,-115,-46
-41,-56,-11,46,-19,-37,26,-55,-131,-47,-121,-46
-47,-56,-5,52,-19,-31,32,-55,-137,-47,-127,-52
-47,-56,-5,52,-19,-31,32,-61,-137,-53,-127,-52
-47,-62,-11,52,-19,-37,32,-61,-131,-47,-121,-46
-47,-62,-11,52,-19,-37,32,-61,-137,-53,-121,-46
-47,-68,-17,58,-19,-43,32,-61,-131,-47,-115,-40
-53,-74,-17,64,-19,-49,32,-61,-131,-41,-121,-40
-47,-68,-17,58,-19,-43,26,-61,-131,-47,-127,-40
-41,-68,-23,52,-13,-49,26,-61,-131,-53,-127,-40
-35,-62,-23,46,-13,-43,20,-61,-131,-59,-127,-46
-30,-62,-29,46,-7,-49,20,-61,-131,-59,-127,-46
-35,-62,-23,46,-13,-43,14,-67,-131,-59,-127,-46
-35,-62,-23,46,-13,-43,14,-67,-131,-59,-127,-46
-41,-62,-17,52,-19,-43,2,-73,-131,-59,-127,-46
-41,-62,-17,52,-19,-43,2,-73,-131,-59,-127,-46
-41,-62,-17,52,-19,-43,14,-67,-131,-59,-127,-46
-41,-62,-17,52,-19,-43,14,-67,-131,-59,-127,-46
-41,-62,-17,52,-19,-43,20,-61,-131,-59,-133,-46
-41,-62,-17,52,-19,-43,14,-61,-131,-59,-133,-46
-41,-62,-17,52,-19,-43,14,-67,-131,-59,-133,-46
-41,-62,-17,52,-19,-43,14,-67,-131,-59,-133,-46
-41,-62,-17,52,-19,-43,14,-73,-131,-59,-133,-46
-41,-62,-17,52,-19,-43,14,-67,-131,-59,-133,-46
-41,-56,-11,46,-19,-37,8,-67,-125,-59,-133,-52
-41,-56,-11,46,-19,-37,8,-67,-125,-59,-139,-52
-41,-50,-5,46,-19,-31,2,-67,-119,-53,-139,-58
-35,-50,-11,40,-19,-31,8,-67,-119,-53,-139,-58
-30,-50,-17,40,-13,-37,2,-73,-125,-53,-139,-58
-30,-50,-17,40,-13,-37,2,-73,-125,-59,-139,-58
-30,-50,-23,34,-7,-37,2,-79,-131,-59,-139,-52
-30,-50,-23,34,-7,-37,2,-79,-131,-59,-139,-52
-30,-56,-29,40,-1,-43,2,-79,-131,-59,-139,-58
-30,-56,-29,40,-1,-43,2,-79,-131,-59,-139,-58
-30,-62,-29,46,-7,-49,8,-79,-131,-65,-139,-64
-30,-62,-29,46,-7,-49,2,-79,-131,-71,-139,-64
-35,-56,-17,46,-13,-37,2,-79,-131,-65,-139,-64
-35,-56,-17,46,-13,-37,2,-79,-131,-65,-139,-70
-35,-50,-11,40,-19,-31,2,-79,-131,-59,-139,-70
-35,-50,-11,40,-19,-31,2,-85,-131,-59,-139,-64
-35,-50,-11,40,-19,-31,2,-85,-125,-53,-139,-58
-35,-50,-11,40,-19,-31,2,-85,-125,-53,-139,-58
-35,-50,-11,40,-19,-31,2,-85,-119,-47,-139,-52
-35,-50,-11,40,-19,-31,2,-79,-113,-47,-139,-52
-35,-50,-11,40,-19,-31,2,-79,-119,-47,-139,-58
-35,-50,-11,40,-19,-31,2,-79,-131,-47,-139,-58
-35,-50,-11,40,-19,-31,2,-79,-137,-41,-139,-64
-35,-50,-11,40,-19,-31,8,-79,-143,-41,-139,-64
-35,-44,-5,40,-19,-25,2,-79,-155,-41,-145,-64
-35,-44,-5,40,-19,-25,2,-79,-155,-41,-145,-64
-35,-38,1,34,-19,-19,2,-85,-161,-41,-151,-70
-35,-38,1,34,-19,-19,2,-85,-161,-41,-151,-70
-35,-44,-5,40,-19,-25,2,-85,-161,-41,-151,-70
-35,-44,-5,40,-19,-25,2,-79,-161,-41,-151,-70
-35,-50,-11,40,-19,-31,2,-79,-161,-41,-151,-70
-35,-50,-11,40,-19,-31,2,-79,-161,-41,-151,-70
-35,-50,-11,40,-19,-31,2,-79,-161,-41,-151,-70
-35,-50,-11,40,-19,-31,2,-79,-161,-41,-151,-70
-35,-50,-11,40,-19,-31,2,-79,-155,-41,-139,-70
-30,-44,-11,34,-13,-31,2,-79,-149,-41,-151,-70
-30,-56,-29,40,-1,-43,2,-85,-155,-41,-157,-82
-30,-56,-23,40,-7,-43,2,-85,-155,-41,-151,-82
-30,-56,-23,40,-7,-43,2,-85,-155,-41,-151,-82
-35,-56,-17,46,-13,-37,2,-85,-155,-41,-145,-82
-35,-56,-17,46,-13,-37,2,-85,-155,-41,-145,-82
-35,-50,-11,40,-19,-31,2,-85,-161,-41,-145,-82
-35,-50,-11,40,-19,-31,2,-85,-161,-41,-145,-82
-35,-44,-5,40,-19,-25,-3,-85,-167,-41,-145,-82
-35,-44,-5,40,-19,-25,-3,-85,-167,-41,-145,-82
-35,-38,1,34,-19,-19,-3,-91,-167,-41,-151,-82
-35,-38,1,34,-19,-19,-3,-91,-167,-41,-151,-82
-35,-32,7,34,-19,-13,-3,-97,-167,-41,-157,-82
-35,-32,7,34,-19,-13,-3,-97,-167,-41,-157,-82
-35,-38,1,34,-19,-19,-3,-97,-161,-41,-151,-76
-35,-38,1,34,-19,-19,-3,-97,-161,-41,-151,-76
-35,-44,-5,40,-19,-25,-3,-97,-155,-41,-145,-70
-35,-44,-5,40,-19,-25,-3,-97,-155,-41,-145,-70
-30,-50,-17,40,-13,-37,-3,-97,-155,-41,-145,-70
-30,-50,-17,40,-13,-37,-3,-97,-155,-41,-145,-70
-30,-56,-29,40,-1,-43,-3,-97,-155,-41,-145,-70
-30,-56,-29,40,-1,-43,-3,-97,-155,-41,-145,-70
-30,-50,-17,40,-13,-37,-3,-97,-155,-47,-151,-76
-30,-50,-17,40,-13,-37,-3,-97,-155,-47,-151,-76
-35,-44,-5,40,-19,-25,-3,-97,-155,-53,-157,-82
-35,-44,-5,40,-19,-25,-3,-97,-155,-53,-157,-82
-35,-44,-5,40,-19,-25,-3,-97,-161,-53,-163,-88
-35,-44,-5,40,-19,-25,-3,-97,-161,-53,-163,-88
-35,-44,-5,40,-19,-25,-3,-97,-167,-53,-169,-94
-35,-44,-5,40,-19,-25,-3,-97,-167,-53,-169,-94
-35,-44,-5,40,-19,-25,-3,-97,-161,-53,-163,-94
-35,-44,-5,40,-19,-25,-3,-97,-161,-53,-163,-94
-35,-44,-5,40,-19,-25,-3,-97,-155,-53,-157,-94
-35,-44,-5,40,-19,-25,-3,-97,-155,-53,-157,-94
-35,-38,1,34,-19,-19,-9,-97,-155,-53,-163,-88
-35,-38,1,34,-19,-19,-9,-97,-155,-53,-163,-88
-35,-38,1,34,-19,-19,-15,-97,-155,-53,-169,-82
-35,-38,1,34,-19,-19,-15,-97,-155,-53,-169,-88
-35,-44,-5,40,-19,-25,-9,-97,-155,-47,-163,-88
-35,-44,-5,40,-19,-25,-9,-97,-155,-47,-163,-88
-35,-50,-11,40,-19,-31,-3,-97,-155,-47,-163,-88
-35,-50,-11,40,-19,-31,-3,-91,-155,-47,-157,-88
-35,-50,-11,40,-19,-31,-9,-91,-155,-47,-163,-88
-35,-50,-11,40,-19,-31,-9,-91,-155,-47,-163,-82
-35,-50,-11,40,-19,-31,-15,-91,-155,-47,-169,-82
-30,-50,-17,40,-13,-37,-15,-91,-155,-47,-163,-82
-30,-50,-17,40,-13,-37,-15,-97,-155,-53,-169,-88
-30,-50,-17,40,-13,-37,-15,-103,-155,-53,-169,-94
-30,-50,-17,40,-13,-37,-15,-109,-155,-59,-175,-100
-35,-56,-17,46,-13,-37,-15,-109,-161,-65,-181,-100
-35,-56,-17,46,-13,-37,-15,-109,-155,-65,-181,-94
-35,-50,-11,40,-19,-31,-21,-109,-155,-65,-175,-94
-30,-50,-23,34,-7,-37,-21,-103,-149,-59,-175,-88
-30,-44,-17,34,-7,-31,-21,-103,-149,-59,-175,-88
-30,-44,-17,34,-7,-31,-15,-97,-143,-53,-169,-82
-30,-44,-17,34,-7,-31,-9,-91,-137,-53,-169,-82
-30,-38,-11,28,-13,-25,2,-85,-137,-35,-163,-70
-24,-26,-11,22,-7,-19,2,-79,-131,-23,-151,-58
-24,-15,1,22,-13,-7,2,-61,-119,-23,-139,-58
-24,-15,12,22,-13,-2,2,-55,-107,-17,-139,-52
-24,9,24,11,-19,16,14,-43,-95,-17,-139,-46
-24,15,30,5,-19,22,20,-43,-89,-17,-133,-34
-24,21,36,5,-19,28,26,-31,-89,-5,-133,-40
-24,21,36,5,-19,28,38,-31,-89,-5,-121,-46
-24,27,42,-1,-24,34,44,-25,-89,1,-133,-52
-30,33,54,-1,-30,46,44,-25,-83,1,-133,-58
-30,27,48,5,-30,40,44,-19,-77,1,-127,-58
-30,27,54,5,-36,40,44,-19,-77,7,-121,-58
-30,33,60,5,-36,46,38,-31,-83,1,-109,-52
-30,51,78,-7,-48,64,32,-31,-83,1,-109,-40
-30,57,84,-7,-48,70,26,-31,-83,1,-115,-40
-24,57,72,-13,-36,64,20,-31,-83,1,-115,-40
-24,57,72,-13,-36,64,2,-31,-83,1,-121,-46
-18,57,66,-19,-30,64,2,-37,-83,1,-127,-46
-6,51,48,-19,-19,52,-9,-49,-95,-5,-127,-40
-6,51,48,-19,-19,52,-21,-55,-95,-5,-127,-34
0,27,18,-13,-13,22,-21,-67,-107,-5,-121,-40
6,15,12,-7,-1,10,-27,-67,-107,-5,-121,-34
0,9,12,-1,-1,4,-39,-67,-107,-5,-121,-34
0,3,7,-1,-1,-2,-39,-79,-119,-23,-127,-40
-6,-9,1,11,-1,-2,-45,-97,-125,-35,-139,-46
-12,-15,-5,17,-1,-7,-51,-109,-143,-47,-145,-52
-12,-15,-11,22,-1,-13,-51,-109,-137,-47,-151,-58
-12,-15,-11,22,-1,-13,-51,-109,-137,-47,-151,-58
-12,-26,-23,22,5,-25,-45,-109,-131,-47,-151,-64
-24,-32,-17,22,-1,-25,-45,-109,-131,-47,-151,-64
-24,-32,-17,22,-1,-25,-39,-103,-125,-41,-151,-64
-24,-32,-17,22,-1,-25,-33,-103,-119,-41,-151,-70
-30,-32,-11,22,-7,-19,-27,-103,-113,-41,-151,-70
-30,-44,-17,34,-7,-31,-15,-97,-113,-41,-151,-70
-35,-44,-5,40,-19,-25,-15,-97,-119,-47,-163,-76
-41,-50,-5,46,-19,-31,-15,-97,-119,-53,-163,-76
-53,-50,7,52,-24,-25,-9,-97,-125,-59,-169,-88
-59,-56,7,58,-24,-25,-9,-97,-125,-59,-169,-94
-53,-62,-5,58,-19,-37,-9,-97,-137,-65,-181,-100
-53,-68,-11,58,-19,-43,-9,-109,-143,-71,-187,-106
-53,-80,-23,64,-19,-55,-9,-109,-149,-71,-193,-118
-53,-80,-23,64,-19,-55,-9,-115,-155,-77,-199,-118
-59,-74,-11,64,-19,-43,-15,-121,-161,-77,-193,-124
-59,-74,-11,64,-19,-43,-21,-121,-161,-77,-199,-124
-65,-80,-11,70,-19,-49,-21,-121,-161,-77,-193,-124
-65,-80,-11,70,-19,-49,-21,-121,-161,-77,-193,-124
-59,-74,-11,64,-19,-43,-27,-121,-155,-77,-193,-118
-53,-68,-11,58,-19,-43,-27,-121,-155,-77,-187,-118
-47,-68,-17,58,-19,-43,-33,-121,-143,-77,-181,-112
-41,-74,-29,58,-13,-55,-27,-115,-143,-77,-181,-112
-47,-74,-23,58,-19,-49,-27,-115,-143,-77,-181,-106
-47,-74,-23,58,-19,-49,-27,-115,-143,-71,-181,-106
-53,-74,-17,64,-19,-49,-27,-115,-143,-71,-181,-106
-53,-74,-17,64,-19,-49,-27,-115,-143,-71,-181,-106
-59,-74,-11,64,-19,-43,-33,-115,-143,-77,-181,-106
-59,-74,-11,64,-19,-43,-33,-115,-143,-77,-181,-106
-65,-74,-5,70,-24,-43,-39,-115,-143,-89,-181,-106
-65,-74,-5,70,-24,-43,-45,-115,-143,-89,-181,-106
-65,-74,-5,70,-24,-43,-33,-103,-137,-71,-181,-106
-65,-86,-17,76,-19,-55,-21,-103,-137,-71,-181,-106
-65,-86,-17,76,-19,-55,-3,-73,-125,-71,-181,-112
-65,-92,-23,76,-19,-61,8,-19,-107,-71,-199,-124
-77,-104,-23,88,-19,-67,50,52,-95,-71,-205,-130
-77,-98,-17,88,-24,-61,110,166,-53,-71,-211,-142
-77,-74,7,76,-36,-37,158,256,1,-53,-211,-142
-77,-32,36,52,-54,-2,176,328,42,-17,-187,-142
-77,-3,78,34,-72,34,176,352,90,31,-139,-118
-71,21,96,22,-78,58,164,376,150,72,-91,-106
-35,33,72,11,-48,52,164,448,252,156,-37,-76
-24,39,54,-7,-30,46,182,610,402,276,28,-22
18,99,72,-55,-19,88,206,808,564,432,160,49
84,201,108,-139,-13,154,200,910,738,618,322,181
156,297,138,-223,5,220,146,814,840,822,514,331
222,441,210,-331,5,322,74,514,882,1008,706,499
276,597,312,-439,-19,460,-9,136,942,1200,934,691
342,747,402,-541,-19,574,-111,-241,1008,1422,1162,865
420,891,468,-655,-19,682,-231,-655,1044,1626,1390,1039
480,1017,528,-745,-19,772,-363,-1075,1050,1824,1594,1207
510,1149,630,-829,-48,892,-513,-1405,1098,2010,1774,1357
510,1275,756,-895,-114,1018,-717,-1693,1134,2189,1954,1483
486,1425,930,-949,-216,1180,-849,-1909,1176,2333,2085,1591
468,1515,1038,-991,-276,1276,-927,-1933,1284,2506,2211,1693
456,1485,1020,-967,-270,1252,-999,-1903,1434,2656,2277,1705
396,1335,936,-865,-258,1138,-1035,-1903,1428,2584,2199,1609
294,1119,816,-709,-258,970,-945,-1879,1242,2219,1924,1429
210,837,618,-523,-198,730,-831,-1765,930,1626,1492,1159
150,501,348,-325,-90,430,-735,-1597,528,906,946,805
42,201,150,-121,-42,178,-609,-1471,54,168,322,421
-65,-9,60,28,-60,22,-495,-1381,-389,-395,-163,97
-143,-122,12,130,-78,-49,-453,-1297,-689,-671,-439,-94
-167,-164,7,166,-78,-79,-435,-1183,-767,-725,-517,-190
-167,-182,-11,172,-72,-97,-429,-1051,-695,-629,-499,-208
-149,-194,-41,172,-48,-121,-411,-937,-617,-521,-469,-196
-143,-182,-35,160,-48,-109,-393,-847,-569,-473,-451,-202
-131,-182,-47,154,-36,-115,-387,-727,-497,-425,-415,-184
-125,-176,-47,148,-30,-115,-339,-565,-395,-329,-355,-154
-113,-176,-59,142,-19,-121,-261,-427,-275,-263,-307,-148
-107,-164,-53,136,-19,-109,-213,-313,-197,-215,-283,-142
-101,-164,-59,130,-19,-115,-171,-241,-161,-185,-253,-136
-95,-146,-47,118,-19,-97,-147,-193,-131,-161,-247,-130
-83,-122,-35,100,-19,-79,-141,-157,-125,-149,-247,-124
-65,-98,-29,82,-19,-67,-141,-139,-125,-143,-241,-112
-53,-86,-29,70,-19,-61,-129,-121,-131,-143,-241,-112
-53,-86,-29,70,-19,-61,-117,-97,-131,-143,-235,-112
-53,-86,-29,70,-19,-61,-105,-73,-131,-143,-241,-112
-53,-92,-35,70,-13,-67,-93,-67,-131,-143,-235,-112
-53,-92,-35,70,-13,-67,-81,-43,-125,-137,-235,-112
-59,-98,-35,76,-19,-67,-75,-37,-113,-125,-229,-118
-59,-104,-41,82,-13,-73,-69,-37,-113,-113,-223,-118
-59,-98,-35,76,-19,-67,-63,-37,-113,-113,-223,-118
-53,-98,-41,76,-13,-73,-63,-37,-113,-113,-217,-118
-53,-92,-35,70,-13,-67,-63,-37,-113,-113,-217,-112
-53,-92,-35,70,-13,-67,-63,-37,-113,-113,-217,-112
-53,-92,-35,70,-13,-67,-69,-37,-113,-113,-217,-112
-47,-92,-41,70,-7,-67,-69,-37,-113,-107,-217,-112
-47,-86,-35,64,-13,-61,-63,-37,-113,-107,-217,-112
-47,-80,-29,64,-13,-55,-63,-31,-119,-107,-211,-112
-47,-80,-29,64,-13,-55,-51,-31,-119,-113,-211,-112
-47,-80,-29,64,-13,-55,-51,-25,-119,-107,-211,-112
-47,-80,-29,64,-13,-55,-51,-25,-113,-113,-205,-112
-47,-80,-29,64,-13,-55,-51,-19,-113,-113,-205,-112
-47,-80,-29,64,-13,-55,-51,-19,-113,-107,-205,-112
-47,-80,-29,64,-13,-55,-51,-19,-113,-107,-205,-118
-47,-80,-29,64,-13,-55,-51,-19,-113,-101,-211,-118
-47,-80,-29,64,-13,-55,-45,-19,-113,-95,-205,-118
-47,-80,-29,64,-13,-55,-45,-19,-107,-95,-205,-112
-47,-80,-29,64,-13,-55,-45,-19,-107,-89,-205,-112
-41,-80,-35,58,-7,-61,-45,-19,-101,-89,-205,-112
-41,-80,-35,58,-7,-61,-45,-19,-101,-89,-199,-112
-41,-80,-35,58,-7,-61,-45,-19,-107,-89,-199,-112
-41,-74,-29,58,-13,-55,-45,-19,-107,-95,-193,-112
-41,-74,-29,58,-13,-55,-45,-19,-113,-95,-193,-106
-41,-74,-29,58,-13,-55,-45,-13,-107,-89,-193,-106
-35,-80,-41,58,-1,-61,-45,-13,-107,-89,-193,-112
-35,-80,-41,58,-1,-61,-39,-13,-107,-89,-193,-112
-35,-86,-47,58,-1,-67,-39,-13,-107,-89,-193,-118
-35,-86,-47,58,-1,-67,-39,-8,-107,-89,-193,-118
-35,-80,-41,58,-1,-61,-39,-8,-101,-95,-199,-124
-35,-80,-41,58,-1,-61,-39,-8,-101,-89,-199,-124
-35,-74,-35,52,-7,-55,-33,-8,-95,-95,-205,-130
-35,-74,-35,52,-7,-55,-33,-8,-95,-95,-205,-130
-35,-80,-41,58,-1,-61,-33,-8,-95,-89,-193,-124
-30,-80,-47,52,5,-67,-33,-8,-89,-83,-193,-124
-30,-86,-53,58,5,-73,-39,-8,-89,-77,-187,-118
-35,-86,-47,58,-1,-67,-39,-8,-89,-77,-187,-118
-35,-80,-41,58,-1,-61,-39,-8,-83,-77,-181,-112
-30,-80,-47,52,5,-67,-39,-8,-83,-77,-181,-106
-30,-80,-47,52,5,-67,-33,-8,-77,-83,-175,-100
-30,-80,-47,52,5,-67,-33,-8,-77,-83,-169,-100
-30,-74,-41,52,-1,-61,-33,-8,-77,-89,-169,-106
-30,-74,-41,52,-1,-61,-33,-8,-77,-83,-169,-100
-30,-68,-41,46,5,-55,-33,-2,-83,-77,-175,-106
-30,-68,-47,40,11,-55,-33,-2,-83,-77,-175,-106
-30,-68,-47,40,11,-55,-39,-2,-77,-71,-175,-106
-30,-68,-41,46,5,-55,-39,4,-77,-71,-175,-106
-30,-62,-35,40,-1,-49,-45,4,-71,-65,-169,-106
-30,-62,-41,40,5,-49,-45,10,-71,-59,-169,-100
-30,-68,-47,40,11,-55,-45,10,-65,-59,-163,-106
-30,-62,-41,40,5,-49,-45,16,-65,-59,-157,-106
-30,-56,-35,34,5,-43,-45,16,-65,-65,-157,-112
-30,-56,-35,34,5,-43,-45,22,-59,-65,-151,-112
-30,-56,-29,40,-1,-43,-45,16,-59,-53,-145,-112
-30,-56,-35,34,5,-43,-51,28,-47,-47,-145,-112
-30,-56,-29,40,-1,-43,-51,22,-41,-47,-139,-106
-30,-56,-29,40,-1,-43,-51,28,-35,-47,-139,-94
-30,-50,-23,34,-7,-37,-51,34,-29,-35,-127,-88
-30,-50,-29,34,-1,-37,-51,34,-17,-29,-121,-82
-30,-50,-29,34,-1,-37,-51,40,-11,-17,-121,-76
-30,-50,-29,34,-1,-37,-51,46,-11,-5,-121,-76
-24,-44,-29,28,5,-37,-51,52,-5,-5,-115,-70
-18,-44,-35,22,11,-37,-51,58,7,1,-109,-70
-18,-32,-23,22,5,-25,-45,64,13,1,-115,-70
-18,-32,-23,22,5,-25,-45,70,19,7,-109,-64
-18,-26,-17,22,-1,-19,-51,70,19,13,-97,-64
-18,-20,-11,22,-1,-13,-51,76,31,19,-97,-64
-6,-15,-17,17,5,-13,-57,88,31,31,-85,-52
-6,-15,-11,17,5,-7,-57,94,37,49,-79,-40
-6,-15,-5,11,5,-2,-57,106,48,60,-67,-22
-6,-15,-5,11,5,-2,-57,112,54,60,-61,-16
-6,3,12,5,-7,4,-57,124,72,72,-43,-10
6,9,7,-7,5,4,-63,136,84,84,-31,-4
6,21,12,-13,-1,16,-63,142,90,90,-25,8
12,33,12,-19,-1,22,-63,148,96,102,-13,14
12,33,12,-19,-1,22,-69,148,108,108,-1,19
12,45,24,-25,-7,34,-69,160,126,120,5,25
18,45,18,-31,-1,34,-75,166,138,132,17,31
24,51,18,-37,-1,34,-75,178,150,144,28,43
30,57,18,-43,5,40,-81,184,168,162,34,49
36,63,18,-49,5,40,-81,196,180,186,58,61
42,69,18,-55,11,46,-87,202,204,192,70,79
42,75,24,-55,5,52,-93,208,210,210,76,85
48,87,30,-67,5,58,-93,214,234,228,94,103
48,93,36,-67,5,64,-99,220,246,246,112,115
54,111,48,-79,-1,82,-105,220,252,252,124,121
60,135,66,-97,-7,100,-105,226,264,276,136,133
60,141,72,-97,-7,106,-111,226,282,288,142,133
66,153,78,-109,-7,118,-111,232,288,300,154,151
72,165,84,-115,-7,124,-111,232,300,312,172,157
72,165,84,-115,-7,124,-111,232,318,324,196,175
72,165,84,-115,-7,124,-105,238,336,336,202,181
84,177,84,-127,-1,130,-105,244,348,354,220,193
84,183,90,-133,-7,136,-111,250,360,360,232,205
84,189,96,-133,-7,142,-111,250,360,372,244,211
84,201,108,-139,-13,154,-117,250,366,366,244,211
84,207,114,-145,-19,160,-123,250,366,372,250,211
84,225,132,-151,-19,178,-129,250,372,378,256,217
84,225,138,-157,-19,184,-129,250,378,390,262,229
90,237,144,-163,-19,196,-129,244,384,402,268,235
90,243,150,-169,-19,202,-129,244,390,402,268,241
90,249,156,-169,-24,208,-129,244,402,408,274,241
90,249,156,-169,-24,208,-123,244,402,414,274,253
90,249,156,-169,-24,208,-123,238,408,420,280,253
90,255,162,-175,-24,214,-123,238,408,420,280,253
90,255,162,-175,-24,214,-111,238,408,414,280,247
78,255,174,-169,-36,220,-105,232,408,414,280,247
78,255,174,-169,-36,220,-99,232,402,408,274,241
78,249,168,-163,-36,214,-93,226,390,396,268,235
72,237,162,-157,-36,202,-81,226,390,384,268,223
72,231,156,-151,-30,196,-75,220,378,372,256,205
66,225,150,-145,-30,190,-63,214,372,354,244,193
60,219,150,-139,-36,184,-51,202,348,330,232,181
54,207,144,-127,-36,178,-51,196,324,318,202,175
48,207,150,-127,-42,178,-45,184,306,306,196,163
42,201,150,-121,-42,178,-45,178,282,294,166,151
36,189,144,-109,-42,166,-33,160,270,270,154,139
24,177,144,-97,-48,160,-27,148,246,246,136,115
18,165,138,-91,-48,154,-21,130,222,222,118,109
6,147,132,-73,-54,142,-15,124,210,210,100,91
0,135,126,-67,-54,130,-9,112,192,198,82,73
0,129,120,-61,-48,124,-9,100,162,168,70,55
-6,117,114,-55,-48,118,-9,76,138,144,52,49
-6,111,108,-49,-48,112,2,58,114,120,28,31
-12,99,102,-43,-48,100,2,52,90,96,28,19
-12,81,84,-31,-36,82,2,40,72,84,17,19
-18,75,84,-25,-42,82,2,16,54,60,-1,14
-12,63,66,-25,-30,64,8,10,42,60,-13,8
-18,57,66,-19,-30,64,8,-2,37,55,-25,-4
-24,39,54,-7,-30,46,2,-2,31,43,-37,-4
-30,27,48,5,-30,40,2,-8,25,31,-49,-16
-30,15,48,17,-36,28,2,-8,13,19,-67,-22
-35,9,48,22,-36,28,2,-13,1,7,-79,-34
-35,9,48,22,-36,28,2,-13,-23,-17,-91,-52
-41,3,48,22,-42,22,2,-31,-35,-29,-103,-58
-41,3,48,22,-42,22,2,-31,-47,-47,-109,-64
-41,3,48,22,-42,22,2,-37,-59,-53,-115,-70
-41,-3,42,22,-36,16,2,-37,-59,-59,-115,-70
-41,-15,30,22,-30,4,-3,-37,-65,-65,-121,-70
-47,-15,30,28,-36,4,-3,-37,-71,-71,-127,-70
-47,-15,30,28,-36,4,-3,-37,-71,-71,-139,-70
-41,-15,24,22,-30,-2,-9,-43,-65,-71,-133,-70
-41,-15,24,22,-30,-2,-9,-49,-71,-77,-133,-82
-35,-15,24,22,-24,4,-21,-61,-71,-77,-133,-82
-35,-15,18,22,-24,-2,-21,-61,-77,-77,-133,-82
-41,-20,12,28,-24,-2,-21,-61,-77,-77,-133,-88
-41,-20,12,28,-24,-2,-21,-61,-71,-83,-133,-88
-47,-20,18,34,-30,-2,-27,-61,-71,-83,-133,-94
-47,-20,18,34,-30,-2,-27,-61,-77,-83,-145,-100
-47,-20,18,34,-30,-2,-27,-67,-83,-83,-145,-100
-47,-20,18,34,-30,-2,-27,-67,-83,-83,-145,-100
-47,-15,24,28,-36,-2,-27,-67,-89,-83,-145,-100
-47,-20,18,34,-30,-2,-27,-67,-89,-83,-145,-100
-53,-26,18,40,-36,-2,-27,-67,-89,-89,-151,-100
-53,-26,18,40,-36,-2,-33,-67,-89,-89,-151,-100
-53,-32,12,40,-30,-7,-33,-67,-89,-95,-151,-100
-53,-32,12,40,-30,-7,-33,-67,-89,-95,-151,-100
-53,-26,18,40,-36,-2,-33,-67,-83,-95,-151,-100
-53,-26,18,40,-36,-2,-33,-67,-83,-95,-151,-100
-47,-20,18,34,-30,-2,-33,-67,-77,-95,-145,-100
-47,-20,18,34,-30,-2,-33,-67,-77,-95,-139,-100
-47,-26,12,34,-30,-2,-33,-67,-77,-89,-139,-94
-47,-26,12,34,-30,-2,-33,-67,-77,-89,-139,-88
-47,-32,12,40,-24,-7,-33,-67,-77,-83,-139,-82
-53,-32,12,40,-30,-7,-33,-67,-77,-83,-139,-76
-53,-38,12,46,-30,-13,-39,-61,-77,-83,-139,-70
-47,-38,12,40,-24,-13,-39,-61,-77,-83,-139,-70
-47,-38,12,40,-24,-13,-45,-55,-77,-83,-139,-64
-47,-38,12,40,-24,-13,-45,-49,-77,-83,-139,-64
-47,-32,12,40,-24,-7,-39,-49,-71,-83,-139,-70
-47,-32,12,40,-24,-7,-45,-49,-71,-83,-139,-70
-47,-38,12,40,-24,-13,-39,-49,-71,-89,-139,-70
-47,-38,12,40,-24,-13,-39,-49,-71,-89,-139,-70
-53,-32,12,40,-30,-7,-33,-49,-77,-89,-139,-70
-53,-32,12,40,-30,-7,-33,-49,-77,-89,-145,-76
-53,-38,12,46,-30,-13,-33,-55,-83,-95,-145,-82
-53,-26,18,40,-36,-2,-33,-55,-83,-95,-145,-88
-53,-32,12,40,-30,-7,-33,-49,-77,-95,-145,-82
-53,-32,12,40,-30,-7,-33,-43,-77,-95,-145,-82
-59,-38,12,46,-36,-7,-33,-37,-71,-95,-145,-76
-65,-38,18,52,-42,-7,-33,-37,-71,-95,-145,-76
-59,-38,12,46,-36,-7,-33,-31,-65,-89,-145,-70
-53,-38,12,46,-30,-13,-33,-31,-59,-89,-139,-70
-47,-38,12,40,-24,-13,-33,-31,-53,-83,-139,-64
-53,-38,12,46,-30,-13,-33,-31,-53,-83,-139,-64
-53,-32,12,40,-30,-7,-33,-25,-53,-77,-139,-58
-53,-32,12,40,-30,-7,-33,-25,-53,-77,-139,-58
-53,-38,12,46,-30,-13,-33,-25,-53,-77,-139,-52
-53,-38,12,46,-30,-13,-33,-25,-53,-77,-139,-52
-47,-38,12,40,-24,-13,-39,-19,-53,-77,-139,-64
-47,-32,12,40,-24,-7,-39,-19,-53,-77,-139,-64
-47,-32,12,40,-24,-7,-45,-19,-53,-77,-139,-64
-47,-32,12,40,-24,-7,-45,-19,-47,-77,-139,-64
-47,-32,12,40,-24,-7,-45,-19,-47,-83,-139,-70
-47,-32,12,40,-24,-7,-45,-19,-47,-83,-139,-70
-47,-32,12,40,-24,-7,-45,-19,-41,-89,-139,-76
-47,-32,12,40,-24,-7,-45,-13,-41,-83,-139,-76
-53,-32,12,40,-30,-7,-39,-19,-47,-83,-133,-70
-53,-32,12,40,-30,-7,-39,-19,-47,-89,-133,-70
-47,-32,12,40,-24,-7,-33,-25,-41,-95,-133,-64
-47,-32,12,40,-24,-7,-33,-25,-41,-95,-133,-64
-47,-32,12,40,-24,-7,-33,-19,-47,-95,-133,-70
-47,-32,12,40,-24,-7,-33,-19,-53,-95,-133,-70
-53,-32,12,40,-30,-7,-33,-19,-59,-95,-133,-82
-53,-26,18,40,-36,-2,-33,-19,-59,-95,-133,-82
-41,-20,12,28,-24,-2,-39,-13,-59,-89,-133,-88
-41,-26,12,34,-24,-7,-39,-13,-59,-83,-133,-82
-35,-20,12,28,-19,-2,-45,-19,-65,-83,-127,-88
-35,-20,12,28,-19,-2,-45,-19,-65,-83,-127,-88
-41,-20,12,28,-24,-2,-45,-25,-65,-83,-127,-82
-41,-20,12,28,-24,-2,-51,-25,-65,-89,-127,-82
-47,-26,12,34,-30,-2,-51,-31,-65,-95,-133,-76
-47,-26,12,34,-30,-2,-45,-31,-65,-95,-133,-76
-47,-26,12,34,-30,-2,-39,-25,-65,-89,-127,-76
-47,-20,18,34,-30,-2,-45,-31,-65,-89,-127,-76
-47,-20,18,34,-30,-2,-39,-25,-71,-83,-121,-70
-47,-26,12,34,-30,-2,-33,-25,-71,-77,-121,-70
-53,-26,18,40,-36,-2,-39,-25,-71,-83,-127,-70
-53,-26,18,40,-36,-2,-39,-25,-71,-89,-127,-76
-53,-26,18,40,-36,-2,-45,-37,-71,-95,-133,-88
-53,-26,18,40,-36,-2,-45,-37,-71,-101,-133,-94
-53,-26,18,40,-36,-2,-39,-43,-71,-101,-133,-82
-53,-26,18,40,-36,-2,-39,-43,-71,-101,-139,-82
-53,-26,18,40,-36,-2,-33,-49,-71,-101,-139,-76
-53,-26,18,40,-36,-2,-33,-49,-71,-101,-139,-76
-53,-26,18,40,-36,-2,-39,-49,-71,-101,-133,-70
-53,-26,18,40,-36,-2,-39,-49,-71,-101,-133,-70
-47,-26,12,34,-30,-2,-39,-43,-77,-101,-127,-64
-41,-26,12,34,-24,-7,-39,-43,-77,-101,-127,-64
-41,-32,12,34,-19,-13,-33,-43,-71,-95,-121,-64
-41,-32,12,34,-19,-13,-33,-49,-77,-101,-121,-64
-41,-38,7,40,-19,-19,-27,-49,-71,-95,-121,-64
-47,-44,7,46,-19,-19,-27,-55,-71,-95,-121,-64
-47,-38,12,40,-24,-13,-33,-55,-77,-101,-127,-70
-47,-38,12,40,-24,-13,-39,-61,-89,-101,-127,-70
-47,-32,12,40,-24,-7,-45,-61,-95,-107,-133,-70
-41,-32,12,34,-19,-13,-45,-61,-95,-107,-145,-76
-47,-32,12,40,-24,-7,-51,-67,-89,-113,-139,-76
-47,-32,12,40,-24,-7,-51,-67,-89,-113,-145,-76
-53,-32,12,40,-30,-7,-51,-67,-95,-119,-139,-76
-59,-32,18,46,-36,-2,-51,-67,-95,-119,-139,-76
-53,-32,12,40,-30,-7,-51,-61,-89,-113,-139,-76
-53,-32,12,40,-30,-7,-51,-67,-89,-119,-139,-76
-47,-32,12,40,-24,-7,-51,-61,-89,-119,-139,-82
-47,-38,12,40,-24,-13,-51,-61,-83,-119,-139,-82
-47,-38,12,40,-24,-13,-45,-61,-83,-119,-139,-76
-47,-38,12,40,-24,-13,-45,-61,-83,-119,-145,-76
-47,-38,12,40,-24,-13,-45,-67,-83,-113,-145,-70
-47,-38,12,40,-24,-13,-45,-67,-83,-113,-145,-70
-53,-38,12,46,-30,-13,-39,-73,-89,-119,-145,-70
-53,-38,12,46,-30,-13,-45,-73,-89,-119,-145,-70
-59,-38,12,46,-36,-7,-39,-85,-95,-125,-145,-76
-59,-38,12,46,-36,-7,-33,-85,-95,-125,-145,-76
-59,-32,18,46,-36,-2,-33,-79,-95,-125,-145,-76
-59,-32,18,46,-36,-2,-33,-79,-101,-125,-145,-76
-59,-38,12,46,-36,-7,-39,-73,-101,-125,-145,-76
-59,-38,12,46,-36,-7,-39,-79,-107,-125,-145,-82
-59,-38,12,46,-36,-7,-39,-79,-101,-125,-151,-82
-59,-38,12,46,-36,-7,-39,-79,-101,-125,-151,-82
-59,-38,12,46,-36,-7,-39,-79,-95,-119,-157,-82
-59,-38,12,46,-36,-7,-45,-79,-95,-119,-157,-82
-59,-38,12,46,-36,-7,-39,-85,-101,-125,-157,-82
-59,-38,12,46,-36,-7,-39,-85,-101,-131,-163,-82
-59,-32,18,46,-36,-2,-33,-91,-107,-137,-157,-82
-59,-32,18,46,-36,-2,-33,-91,-107,-143,-157,-82
-59,-32,18,46,-36,-2,-39,-91,-107,-143,-157,-88
-59,-38,12,46,-36,-7,-39,-91,-107,-143,-157,-88
-59,-38,12,46,-36,-7,-45,-85,-107,-137,-157,-94
-59,-38,12,46,-36,-7,-45,-85,-107,-137,-157,-94
-53,-38,12,46,-30,-13,-39,-85,-107,-137,-151,-88
-59,-44,12,52,-30,-13,-39,-79,-107,-137,-151,-88
-53,-44,12,46,-24,-19,-33,-79,-101,-131,-139,-82
-47,-44,7,46,-19,-19,-33,-79,-101,-131,-139,-82
-53,-50,7,52,-24,-25,-27,-79,-101,-131,-139,-82
-53,-50,7,52,-24,-25,-33,-79,-101,-131,-145,-82
-59,-56,7,58,-24,-25,-27,-79,-101,-131,-151,-88
-59,-56,7,58,-24,-25,-27,-85,-101,-137,-151,-88
-59,-50,12,52,-30,-19,-27,-79,-101,-137,-157,-94
-59,-50,12,52,-30,-19,-27,-79,-107,-143,-157,-94
-59,-44,12,52,-30,-13,-27,-73,-107,-143,-163,-100
-65,-50,12,58,-36,-19,-27,-73,-107,-137,-169,-100
-59,-50,12,52,-30,-19,-27,-79,-107,-137,-169,-106
-59,-50,12,52,-30,-19,-27,-79,-107,-143,-169,-106
-53,-50,7,52,-24,-25,-27,-85,-107,-143,-163,-118
-53,-50,7,52,-24,-25,-27,-85,-107,-143,-163,-118
-53,-50,7,52,-24,-25,-27,-79,-101,-143,-157,-112
-53,-50,7,52,-24,-25,-27,-79,-101,-143,-157,-106
-53,-50,7,52,-24,-25,-33,-73,-95,-143,-151,-100
-53,-50,7,52,-24,-25,-33,-73,-95,-143,-151,-94
-59,-50,12,52,-30,-19,-21,-73,-95,-143,-145,-88
-59,-50,12,52,-30,-19,-21,-73,-95,-143,-145,-88
-65,-50,12,58,-36,-19,-15,-73,-95,-143,-145,-82
-65,-50,12,58,-36,-19,-21,-73,-95,-143,-145,-82
-65,-56,12,58,-30,-25,-27,-73,-101,-143,-151,-88
-65,-56,12,58,-30,-25,-27,-73,-101,-143,-151,-94
-65,-62,7,64,-30,-31,-33,-73,-107,-143,-157,-100
-65,-62,7,64,-30,-31,-33,-67,-107,-143,-157,-106
-65,-56,12,58,-30,-25,-27,-73,-107,-155,-163,-112
-65,-56,12,58,-30,-25,-27,-73,-107,-155,-169,-112
-65,-50,12,58,-36,-19,-21,-79,-107,-161,-175,-118
-59,-50,12,52,-30,-19,-15,-79,-107,-161,-175,-118
-59,-50,12,52,-30,-19,-15,-73,-107,-155,-169,-124
-59,-50,12,52,-30,-19,-15,-73,-107,-161,-169,-124
-59,-50,12,52,-30,-19,-15,-67,-107,-155,-163,-124
-59,-50,12,52,-30,-19,-15,-67,-107,-155,-163,-124
-59,-56,7,58,-24,-25,-15,-67,-101,-149,-157,-118
-59,-56,7,58,-24,-25,-15,-67,-101,-149,-157,-118
-65,-62,7,64,-30,-31,-15,-67,-95,-149,-151,-112
-65,-62,7,64,-30,-31,-21,-67,-95,-155,-151,-112
-65,-62,7,64,-30,-31,-21,-67,-95,-149,-151,-106
-65,-62,7,64,-30,-31,-21,-67,-95,-149,-151,-112
-59,-62,1,58,-24,-31,-21,-67,-95,-143,-151,-106
-59,-62,1,58,-24,-31,-21,-73,-95,-143,-151,-100
-59,-56,7,58,-24,-25,-21,-79,-101,-149,-157,-106
-59,-56,7,58,-24,-25,-21,-79,-107,-155,-157,-112
-59,-50,12,52,-30,-19,-21,-85,-113,-161,-163,-118
-59,-50,12,52,-30,-19,-21,-79,-113,-167,-163,-124
-65,-50,12,58,-36,-19,-15,-73,-107,-167,-169,-124
-65,-50,12,58,-36,-19,-15,-73,-113,-167,-169,-124
-71,-50,12,58,-42,-13,-9,-67,-107,-161,-175,-124
-71,-50,12,58,-42,-13,-3,-67,-107,-161,-175,-124
-65,-56,12,58,-30,-25,-3,-67,-107,-161,-169,-118
-65,-56,12,58,-30,-25,-3,-67,-107,-161,-169,-118
-59,-62,1,58,-24,-31,-3,-73,-101,-161,-163,-118
-59,-62,1,58,-24,-31,-9,-73,-101,-161,-163,-118
-53,-62,-5,58,-19,-37,-9,-73,-101,-161,-169,-118
-53,-62,-5,58,-19,-37,-9,-67,-101,-161,-169,-118
-47,-62,-11,52,-19,-37,-9,-67,-101,-161,-175,-118
-47,-62,-11,52,-19,-37,-9,-67,-101,-161,-175,-118
-59,-50,12,52,-30,-19,-9,-67,-101,-161,-175,-118
-47,-50,1,46,-19,-25,-9,-67,-113,-173,-175,-118
-47,-50,1,46,-19,-25,-9,-67,-107,-161,-163,-118
-65,-44,12,52,-36,-13,-9,-55,-101,-161,-163,-118
-59,-44,12,52,-30,-13,-3,-61,-95,-149,-157,-118
-59,-44,12,52,-30,-13,-3,-61,-101,-149,-163,-112
-59,-44,12,52,-30,-13,-3,-61,-101,-149,-163,-112
-59,-44,12,52,-30,-13,-3,-61,-107,-149,-169,-106
-59,-44,12,52,-30,-13,-3,-61,-107,-149,-169,-106
-59,-44,12,52,-30,-13,-3,-61,-107,-149,-169,-106
-59,-44,12,52,-30,-13,-3,-61,-107,-149,-169,-106
-59,-44,12,52,-30,-13,-3,-61,-107,-149,-169,-106
-59,-44,12,52,-30,-13,-3,-61,-107,-149,-169,-106
-59,-50,12,52,-30,-19,2,-61,-107,-155,-175,-112
-59,-50,12,52,-30,-19,2,-61,-107,-155,-175,-118
-59,-56,7,58,-24,-25,2,-61,-107,-161,-181,-124
-59,-56,7,58,-24,-25,2,-61,-107,-161,-181,-130
-59,-50,12,52,-30,-19,2,-67,-107,-167,-181,-130
-59,-50,12,52,-30,-19,2,-67,-107,-167,-181,-130
-59,-44,12,52,-30,-13,2,-73,-107,-173,-181,-130
-59,-44,12,52,-30,-13,2,-73,-107,-173,-181,-130
-53,-44,12,46,-24,-19,2,-73,-107,-167,-181,-124
-53,-44,12,46,-24,-19,2,-73,-107,-167,-181,-130
-47,-38,12,40,-24,-13,-3,-73,-107,-161,-175,-124
-47,-38,12,40,-24,-13,-3,-73,-107,-161,-175,-124
-53,-44,12,46,-24,-19,-3,-73,-107,-161,-175,-118
-53,-44,12,46,-24,-19,-3,-67,-107,-161,-169,-118
-59,-50,12,52,-30,-19,-3,-67,-107,-155,-169,-112
-59,-50,12,52,-30,-19,-3,-67,-107,-155,-169,-106
-59,-50,12,52,-30,-19,2,-67,-107,-161,-175,-106
-53,-50,7,52,-24,-25,2,-67,-107,-161,-169,-106
-53,-50,7,52,-24,-25,2,-67,-107,-167,-175,-106
-53,-50,7,52,-24,-25,2,-73,-107,-167,-175,-112
-53,-50,7,52,-24,-25,2,-73,-107,-167,-175,-118
-59,-56,7,58,-24,-25,2,-73,-113,-173,-181,-118
-59,-56,7,58,-24,-25,-3,-73,-113,-173,-181,-124
-59,-50,12,52,-30,-19,-9,-73,-113,-173,-175,-124
-47,-50,1,46,-19,-25,-9,-67,-113,-167,-175,-124
-47,-44,7,46,-19,-19,-9,-67,-113,-167,-175,-124
-47,-44,7,46,-19,-19,-9,-61,-101,-167,-175,-124
-47,-44,7,46,-19,-19,-3,-55,-95,-167,-175,-124
-41,-44,1,40,-19,-25,2,-43,-83,-149,-169,-112
-30,-32,1,28,-19,-19,8,-31,-77,-137,-157,-100
-30,-26,1,22,-19,-13,20,-8,-65,-125,-133,-94
-30,-15,12,22,-19,-2,32,-8,-53,-119,-133,-88
-30,3,36,22,-30,16,50,-2,-53,-113,-133,-82
-30,9,42,17,-30,22,56,-2,-47,-113,-127,-70
-35,21,60,17,-42,40,62,-2,-53,-107,-133,-70
-35,21,60,17,-42,40,74,-2,-53,-107,-121,-70
-35,33,72,11,-48,52,74,-2,-53,-107,-133,-70
-41,39,84,11,-60,58,74,-2,-47,-107,-133,-70
-41,45,90,5,-60,64,68,4,-41,-101,-127,-70
-47,45,96,11,-66,70,68,4,-41,-95,-121,-70
-41,57,102,-1,-66,76,62,-8,-41,-89,-103,-64
-41,75,120,-7,-78,94,56,-8,-41,-89,-103,-52
-30,81,114,-19,-66,94,50,-8,-35,-83,-97,-46
-30,81,102,-25,-54,94,44,-8,-35,-83,-97,-46
-30,75,96,-19,-54,88,26,-8,-41,-89,-97,-46
-24,69,84,-19,-42,76,14,-13,-47,-89,-103,-46
-24,63,78,-19,-42,70,2,-19,-59,-101,-109,-46
-24,57,72,-13,-36,64,2,-25,-65,-101,-109,-46
-18,45,54,-13,-24,52,2,-31,-71,-101,-115,-64
-12,33,36,-7,-19,34,2,-31,-71,-101,-115,-64
-6,27,24,-7,-19,28,2,-31,-71,-101,-121,-70
-6,21,18,-7,-13,22,2,-43,-83,-119,-127,-76
-12,3,12,5,-13,4,2,-61,-89,-131,-139,-82
-18,-9,12,17,-13,-2,-3,-73,-107,-143,-145,-88
-24,-9,12,17,-19,-2,-3,-73,-107,-143,-151,-88
-24,-9,12,17,-19,-2,-3,-73,-107,-143,-151,-88
-24,-15,7,22,-13,-2,2,-67,-107,-137,-151,-88
-30,-15,12,22,-19,-2,2,-67,-107,-137,-151,-88
-30,-20,7,22,-19,-7,2,-55,-107,-125,-151,-88
-30,-20,7,22,-19,-7,2,-55,-101,-125,-151,-94
-30,-20,12,22,-19,-7,2,-49,-95,-131,-145,-88
-35,-32,7,34,-19,-13,8,-43,-95,-131,-145,-88
-41,-38,7,40,-19,-19,8,-37,-89,-137,-145,-88
-47,-44,7,46,-19,-19,8,-37,-89,-143,-145,-88
-53,-50,7,52,-24,-25,14,-43,-89,-137,-139,-94
-59,-56,7,58,-24,-25,14,-43,-89,-137,-139,-94
-59,-56,7,58,-24,-25,14,-49,-101,-143,-145,-88
-59,-62,1,58,-24,-31,14,-61,-107,-149,-151,-88
-65,-74,-5,70,-24,-43,14,-61,-113,-149,-157,-94
-65,-74,-5,70,-24,-43,14,-67,-119,-155,-163,-94
-65,-80,-11,70,-19,-49,8,-73,-125,-149,-163,-100
-65,-80,-11,70,-19,-49,2,-73,-125,-149,-169,-100
-65,-86,-17,76,-19,-55,2,-73,-125,-155,-175,-112
-65,-80,-11,70,-19,-49,2,-73,-125,-155,-181,-118
-65,-68,1,64,-24,-37,2,-73,-125,-161,-187,-130
-65,-56,12,58,-30,-25,2,-73,-125,-161,-187,-136
-65,-56,12,58,-30,-25,2,-73,-119,-161,-175,-130
-65,-62,7,64,-30,-31,8,-67,-119,-161,-175,-130
-65,-62,7,64,-30,-31,8,-67,-119,-161,-169,-118
-65,-62,7,64,-30,-31,8,-67,-119,-155,-169,-118
-65,-68,1,64,-24,-37,8,-67,-113,-155,-169,-112
-65,-74,-5,70,-24,-43,8,-67,-113,-155,-169,-112
-65,-80,-11,70,-19,-49,8,-67,-107,-155,-169,-106
-65,-86,-17,76,-19,-55,8,-67,-107,-155,-169,-106
-65,-62,7,64,-30,-31,20,-67,-107,-149,-169,-106
-53,-62,-5,58,-19,-37,14,-67,-119,-149,-169,-118
-53,-74,-17,64,-19,-49,14,-67,-113,-155,-181,-118
-65,-74,-5,70,-24,-43,26,-55,-113,-155,-181,-118
-77,-86,-5,82,-30,-49,44,-13,-101,-155,-181,-124
-77,-92,-11,82,-24,-55,80,40,-83,-155,-187,-136
-65,-80,-11,70,-19,-49,122,160,-35,-155,-205,-154
-77,-74,7,76,-36,-37,170,280,19,-143,-193,-154
-89,-62,18,76,-54,-19,194,352,60,-113,-187,-142
-89,-32,48,58,-66,-2,212,400,102,-77,-163,-130
-77,-3,78,34,-72,34,212,412,150,-17,-115,-106
-47,21,72,22,-54,46,200,436,222,60,-67,-82
-35,33,72,11,-48,52,212,526,342,156,11,-40
-24,87,102,-31,-54,94,248,706,498,300,124,19
30,171,132,-97,-42,154,248,844,672,492,274,145
120,243,120,-181,-1,184,224,886,816,690,466,283
192,345,150,-265,17,244,158,730,936,882,658,439
246,495,246,-373,-1,370,74,400,1002,1086,868,613
312,657,336,-481,-13,496,-9,64,1080,1314,1108,793
378,795,414,-583,-19,604,-123,-271,1170,1560,1348,985
420,939,510,-679,-36,730,-231,-667,1212,1800,1576,1159
456,1053,588,-751,-54,820,-339,-1015,1242,2010,1792,1297
474,1173,690,-823,-96,934,-501,-1333,1284,2219,1978,1429
456,1335,876,-895,-204,1108,-693,-1645,1272,2375,2139,1531
420,1479,1056,-949,-312,1270,-801,-1825,1302,2506,2259,1627
414,1503,1086,-955,-330,1294,-879,-1825,1440,2662,2361,1669
390,1383,984,-883,-288,1186,-957,-1819,1506,2692,2337,1633
300,1185,876,-739,-276,1030,-933,-1819,1380,2411,2127,1471
210,945,726,-577,-252,832,-813,-1735,1098,1866,1726,1237
156,627,468,-391,-150,544,-705,-1591,744,1170,1192,925
54,291,234,-175,-78,262,-573,-1447,294,402,580,547
-41,57,102,-1,-66,76,-435,-1321,-173,-257,17,187
-137,-80,48,106,-90,-13,-357,-1249,-539,-665,-349,-82
-179,-158,12,166,-96,-67,-345,-1171,-731,-797,-505,-202
-191,-176,12,184,-96,-79,-327,-1051,-707,-737,-505,-220
-179,-182,1,178,-84,-91,-333,-925,-593,-617,-457,-220
-161,-194,-29,178,-60,-115,-315,-817,-533,-557,-427,-208
-143,-206,-59,172,-36,-133,-309,-733,-485,-521,-415,-202
-143,-194,-47,166,-42,-121,-291,-595,-407,-443,-379,-184
-137,-188,-47,160,-36,-121,-243,-439,-299,-365,-331,-154
-137,-188,-47,160,-36,-121,-183,-319,-215,-311,-295,-148
-119,-188,-65,154,-19,-127,-141,-247,-179,-275,-283,-142
-101,-164,-59,130,-19,-115,-99,-205,-149,-257,-277,-148
-95,-146,-47,118,-19,-97,-75,-145,-119,-227,-259,-142
-83,-122,-35,100,-19,-79,-69,-109,-101,-215,-247,-136
-65,-110,-41,88,-19,-79,-57,-79,-101,-197,-229,-124
-65,-98,-29,82,-19,-67,-57,-61,-95,-197,-217,-112
-77,-110,-29,94,-19,-73,-45,-25,-95,-185,-205,-100
-77,-110,-29,94,-19,-73,-45,-8,-83,-185,-199,-100
-71,-104,-29,88,-19,-67,-27,-8,-83,-185,-205,-100
-71,-104,-29,88,-19,-67,-15,10,-77,-179,-205,-100
-71,-98,-23,82,-19,-61,-3,10,-65,-173,-211,-106
-71,-104,-29,88,-19,-67,2,10,-65,-161,-205,-106
-65,-104,-35,82,-19,-73,2,4,-65,-161,-205,-112
-59,-104,-41,82,-13,-73,2,4,-65,-161,-199,-112
-53,-104,-47,76,-7,-79,2,-2,-65,-161,-199,-112
-53,-104,-47,76,-7,-79,2,-2,-65,-161,-199,-112
-59,-104,-41,82,-13,-73,2,4,-65,-167,-199,-112
-53,-104,-47,76,-7,-79,2,4,-65,-161,-199,-112
-59,-98,-35,76,-19,-67,8,10,-65,-167,-199,-112
-59,-92,-29,76,-19,-61,8,16,-71,-167,-193,-112
-59,-98,-35,76,-19,-67,20,16,-71,-161,-187,-106
-59,-104,-41,82,-13,-73,20,22,-71,-155,-187,-100
-59,-110,-47,82,-13,-79,20,22,-65,-149,-181,-94
-59,-116,-53,88,-7,-85,20,28,-65,-149,-181,-88
-59,-110,-47,82,-13,-79,20,22,-65,-149,-175,-88
-59,-110,-47,82,-13,-79,20,22,-65,-149,-175,-94
-59,-104,-41,82,-13,-73,20,16,-65,-149,-175,-94
-59,-104,-41,82,-13,-73,26,16,-65,-143,-169,-94
-59,-98,-35,76,-19,-67,20,16,-65,-143,-175,-94
-59,-92,-29,76,-19,-61,20,16,-65,-137,-175,-100
-53,-86,-29,70,-19,-61,14,16,-65,-137,-181,-106
-53,-80,-23,64,-19,-55,14,16,-65,-137,-175,-112
-59,-86,-23,70,-19,-55,20,22,-65,-131,-175,-106
-59,-80,-17,70,-19,-49,20,22,-65,-137,-169,-106
-65,-86,-17,76,-19,-55,26,28,-65,-131,-169,-94
-65,-86,-17,76,-19,-55,26,34,-59,-125,-169,-94
-59,-92,-29,76,-19,-61,26,28,-65,-125,-163,-94
-59,-92,-29,76,-19,-61,32,28,-65,-125,-163,-94
-59,-98,-35,76,-19,-67,32,22,-71,-125,-157,-94
-59,-98,-35,76,-19,-67,32,28,-71,-125,-157,-94
-53,-98,-41,76,-13,-73,32,34,-59,-125,-157,-88
-53,-98,-41,76,-13,-73,32,34,-59,-119,-157,-88
-47,-98,-47,70,-7,-73,38,34,-47,-119,-157,-82
-47,-98,-47,70,-7,-73,38,34,-47,-119,-157,-82
-53,-92,-35,70,-13,-67,38,34,-47,-119,-151,-76
-47,-86,-35,64,-13,-61,38,34,-41,-113,-151,-70
-53,-80,-23,64,-19,-55,32,34,-41,-113,-151,-64
-59,-74,-11,64,-19,-43,32,34,-41,-113,-151,-58
-59,-74,-11,64,-19,-43,32,34,-35,-107,-151,-64
-53,-80,-23,64,-19,-55,32,40,-35,-107,-151,-58
-53,-86,-29,70,-19,-61,38,40,-29,-107,-151,-64
-53,-92,-35,70,-13,-67,38,40,-29,-107,-145,-64
-53,-92,-35,70,-13,-67,38,40,-29,-107,-139,-64
-53,-92,-35,70,-13,-67,38,40,-29,-101,-139,-58
-47,-92,-41,70,-7,-67,38,46,-35,-89,-139,-58
-41,-92,-47,64,-1,-73,38,46,-35,-89,-139,-58
-41,-92,-47,64,-1,-73,38,46,-29,-89,-139,-64
-47,-92,-41,70,-7,-67,38,52,-29,-89,-139,-64
-47,-86,-35,64,-13,-61,38,52,-23,-89,-133,-70
-41,-86,-41,64,-7,-67,38,58,-23,-83,-133,-64
-47,-86,-35,64,-13,-61,38,58,-17,-71,-127,-58
-47,-80,-29,64,-13,-55,38,64,-17,-71,-121,-58
-53,-68,-11,58,-19,-43,38,64,-17,-65,-121,-52
-53,-68,-11,58,-19,-43,38,70,-11,-65,-115,-52
-47,-68,-17,58,-19,-43,38,70,-17,-53,-103,-52
-41,-68,-23,52,-13,-49,32,82,-5,-47,-103,-52
-35,-68,-29,52,-7,-49,32,82,-5,-47,-91,-46
-35,-68,-29,52,-7,-49,32,88,1,-47,-91,-34
-35,-62,-23,46,-13,-43,32,88,1,-41,-85,-34
-30,-62,-29,46,-7,-49,32,88,13,-35,-79,-28
-30,-62,-29,46,-7,-49,32,88,13,-29,-85,-28
-30,-62,-29,46,-7,-49,32,94,13,-17,-85,-28
-30,-56,-23,40,-7,-43,26,106,19,-17,-73,-16
-30,-56,-29,40,-1,-43,26,112,31,-11,-67,-16
-30,-44,-11,34,-13,-31,26,124,37,-11,-67,-10
-30,-44,-11,34,-13,-31,26,130,42,-5,-61,-4
-30,-44,-11,34,-13,-31,26,130,42,7,-49,-4
-30,-38,-5,34,-19,-25,26,136,48,13,-49,-4
-30,-38,-17,28,-7,-25,26,148,54,31,-37,8
-30,-32,-11,22,-7,-19,26,154,60,49,-31,19
-30,-26,-5,22,-13,-13,20,160,84,60,-19,19
-30,-26,-5,22,-13,-13,20,166,90,60,-13,25
-30,-15,12,22,-19,-2,14,172,108,72,5,25
-18,-15,7,17,-7,-2,8,184,120,84,17,31
-18,-9,12,17,-13,-2,8,190,132,90,23,43
-12,-3,12,11,-7,-2,8,196,138,102,28,49
-12,-9,7,11,-7,-2,2,196,156,108,34,61
-12,-3,12,11,-7,-2,2,208,174,120,40,73
-6,9,12,-1,-7,10,2,214,186,138,52,85
0,15,12,-7,-7,10,2,226,198,150,70,97
6,33,18,-19,-7,28,2,232,216,174,82,109
12,39,18,-25,-7,28,2,238,228,198,106,121
18,51,24,-31,-7,40,-3,244,252,204,118,133
18,57,30,-37,-7,46,-9,250,258,222,124,139
24,75,42,-49,-13,58,-9,256,282,240,142,151
24,81,48,-49,-13,64,-15,262,288,258,160,163
30,87,48,-55,-13,70,-15,262,300,270,178,175
36,111,66,-73,-19,88,-15,268,312,294,190,187
36,105,60,-67,-13,82,-15,268,336,306,202,193
42,117,66,-79,-13,94,-15,274,348,324,214,211
48,129,72,-85,-13,100,-15,274,354,330,226,211
48,129,72,-85,-13,100,-15,274,366,342,244,229
48,129,72,-85,-13,100,-9,274,378,348,244,229
60,141,72,-97,-7,106,-9,280,384,366,256,241
54,153,90,-103,-19,124,-9,292,402,372,268,253
54,159,96,-103,-19,130,-9,292,402,384,274,259
48,177,120,-109,-24,148,-9,298,414,378,274,259
48,183,126,-115,-30,154,-15,298,414,384,280,259
48,195,138,-121,-36,166,-21,304,420,390,286,259
48,201,144,-121,-36,172,-21,304,426,402,292,271
54,207,144,-127,-36,178,-21,304,432,414,298,277
54,213,150,-133,-36,184,-21,304,438,414,304,283
60,213,144,-133,-30,178,-15,304,444,420,304,277
60,213,144,-133,-30,178,-9,304,444,426,304,289
66,207,132,-133,-24,172,-3,298,444,432,304,283
66,213,138,-139,-24,178,-3,298,444,432,304,283
60,213,144,-133,-30,178,2,304,444,426,310,277
48,213,156,-127,-42,184,2,292,444,426,310,277
42,213,162,-127,-48,190,8,298,438,420,310,271
42,207,156,-121,-48,184,14,292,426,408,298,265
36,201,156,-115,-48,178,26,280,414,396,298,265
36,195,150,-115,-48,172,32,274,402,384,286,253
30,189,150,-109,-48,172,44,256,384,366,274,253
24,183,150,-103,-54,166,56,244,360,342,268,241
18,165,138,-91,-48,154,62,238,336,324,238,235
12,165,144,-85,-54,154,68,232,318,306,226,223
6,153,138,-79,-54,148,74,226,294,288,196,211
0,141,132,-67,-54,136,86,208,282,258,178,199
-12,129,132,-55,-60,130,92,196,258,240,166,169
-18,117,126,-49,-60,124,98,178,234,216,148,163
-30,99,120,-31,-66,112,104,172,222,210,136,139
-30,87,114,-25,-66,100,110,160,204,198,118,121
-30,81,108,-19,-60,94,110,148,174,168,106,109
-30,75,108,-13,-66,88,110,124,150,144,88,103
-30,69,102,-13,-60,82,122,106,126,120,64,91
-35,63,102,-7,-66,82,122,100,102,96,52,79
-41,39,84,11,-60,58,122,94,90,78,34,67
-47,33,84,17,-60,58,122,70,72,60,28,55
-47,15,66,22,-54,40,128,70,60,55,11,43
-53,9,66,22,-54,34,128,58,48,43,-1,31
-47,-3,48,22,-42,22,128,52,42,37,-7,37
-53,-15,42,28,-42,10,128,40,42,25,-19,25
-53,-15,36,28,-42,4,128,28,25,19,-31,25
-59,-15,36,34,-48,4,128,22,13,7,-43,19
-59,-15,36,34,-48,4,122,22,-5,-11,-49,14
-65,-15,42,40,-54,4,122,4,-17,-17,-61,8
-65,-15,42,40,-54,4,122,4,-23,-29,-61,8
-65,-15,48,34,-54,10,122,-2,-35,-29,-67,2
-71,-15,48,40,-60,10,122,-2,-29,-35,-67,-4
-77,-26,42,52,-60,-2,116,-2,-35,-41,-73,-4
-89,-32,48,58,-66,-2,116,-2,-35,-47,-79,-10
-95,-32,54,64,-72,4,116,-2,-35,-47,-91,-10
-89,-44,36,64,-60,-2,116,-2,-35,-47,-91,-10
-89,-44,36,64,-60,-2,116,-8,-41,-47,-91,-22
-83,-50,24,64,-54,-7,110,-8,-47,-47,-97,-22
-83,-56,18,70,-48,-13,110,-8,-53,-41,-97,-22
-77,-56,12,64,-42,-19,110,-8,-59,-41,-91,-22
-77,-56,12,64,-42,-19,110,-8,-53,-47,-91,-22
-71,-44,18,58,-42,-7,104,-13,-59,-47,-85,-22
-71,-44,18,58,-42,-7,104,-13,-65,-47,-97,-28
-71,-50,12,58,-42,-13,104,-13,-65,-47,-97,-22
-71,-50,12,58,-42,-13,104,-13,-65,-47,-97,-22
-71,-50,12,58,-42,-13,104,-8,-65,-47,-97,-16
-71,-56,12,64,-36,-19,104,-8,-65,-47,-97,-16
-77,-56,12,64,-42,-19,104,-8,-71,-53,-103,-22
-77,-56,12,64,-42,-19,98,-8,-71,-53,-103,-22
-77,-56,12,64,-42,-19,98,-8,-77,-59,-103,-28
-77,-56,12,64,-42,-19,98,-8,-77,-59,-103,-28
-77,-62,12,70,-42,-25,98,-8,-77,-53,-103,-28
-77,-62,12,70,-42,-25,98,-8,-77,-53,-103,-28
-71,-68,7,70,-30,-31,98,-8,-77,-47,-97,-28
-71,-68,7,70,-30,-31,98,-8,-77,-47,-91,-28
-71,-68,7,70,-30,-31,98,-8,-77,-53,-97,-28
-71,-68,7,70,-30,-31,98,-8,-77,-53,-103,-28
-71,-68,7,70,-30,-31,98,-8,-77,-59,-109,-28
-77,-68,12,70,-36,-31,98,-8,-77,-59,-115,-28
-77,-74,7,76,-36,-37,104,-8,-77,-59,-109,-34
-71,-74,1,70,-30,-37,104,-8,-77,-59,-109,-34
-71,-74,1,70,-30,-37,110,-8,-77,-59,-103,-40
-71,-74,1,70,-30,-37,110,-8,-77,-59,-103,-40
-71,-68,7,70,-30,-31,110,-8,-71,-53,-103,-40
-71,-68,7,70,-30,-31,104,-8,-71,-53,-103,-40
-71,-74,1,70,-30,-37,104,-8,-71,-53,-103,-34
-71,-74,1,70,-30,-37,104,-8,-71,-53,-103,-34
-71,-74,1,70,-30,-37,110,-8,-71,-47,-97,-28
-71,-74,1,70,-30,-37,110,-8,-71,-47,-103,-28
-65,-86,-17,76,-19,-55,110,-8,-71,-47,-97,-28
-65,-74,-5,70,-24,-43,110,-8,-71,-47,-97,-28
-65,-74,-5,70,-24,-43,104,-2,-71,-53,-97,-34
-65,-74,-5,70,-24,-43,104,4,-71,-53,-97,-34
-71,-74,1,70,-30,-37,98,10,-71,-59,-97,-40
-77,-74,7,76,-36,-37,98,10,-71,-59,-97,-40
-83,-74,12,76,-42,-31,104,16,-71,-53,-103,-40
-77,-74,7,76,-36,-37,104,16,-65,-53,-97,-40
-83,-74,12,76,-42,-31,110,16,-65,-47,-103,-40
-89,-74,12,82,-48,-31,110,16,-65,-47,-103,-40
-83,-68,12,76,-42,-25,110,22,-59,-47,-103,-40
-83,-68,12,76,-42,-25,110,22,-59,-47,-103,-40
-77,-74,7,76,-36,-37,110,22,-53,-53,-103,-40
-77,-74,7,76,-36,-37,110,22,-53,-53,-103,-40
-71,-74,1,70,-30,-37,110,28,-53,-53,-97,-40
-71,-68,7,70,-30,-31,110,28,-53,-53,-97,-40
-71,-68,7,70,-30,-31,110,28,-53,-53,-91,-28
-71,-68,7,70,-30,-31,110,28,-47,-53,-91,-28
-71,-68,7,70,-30,-31,110,28,-53,-47,-91,-28
-71,-68,7,70,-30,-31,110,28,-53,-47,-91,-28
-71,-68,7,70,-30,-31,110,28,-53,-41,-91,-28
-71,-68,7,70,-30,-31,110,34,-53,-35,-91,-28
-71,-62,12,64,-36,-25,104,34,-59,-35,-91,-28
-71,-62,12,64,-36,-25,104,34,-59,-41,-91,-28
-59,-56,7,58,-24,-25,98,34,-53,-47,-97,-28
-59,-56,7,58,-24,-25,98,34,-53,-47,-97,-28
-65,-56,12,58,-30,-25,98,34,-53,-47,-91,-28
-65,-56,12,58,-30,-25,98,34,-59,-47,-91,-28
-77,-56,12,64,-42,-19,98,28,-59,-47,-85,-34
-77,-50,18,64,-48,-13,98,28,-59,-47,-85,-34
-65,-56,12,58,-30,-25,98,40,-53,-47,-79,-34
-65,-62,7,64,-30,-31,98,40,-53,-41,-79,-28
-59,-68,-5,64,-19,-37,98,40,-53,-47,-67,-28
-59,-68,-5,64,-19,-37,98,40,-53,-47,-67,-28
-59,-62,1,58,-24,-31,104,40,-53,-41,-73,-28
-59,-62,1,58,-24,-31,98,40,-53,-47,-73,-28
-59,-62,1,58,-24,-31,104,40,-53,-47,-85,-28
-59,-62,1,58,-24,-31,110,40,-53,-47,-85,-28
-59,-62,1,58,-24,-31,110,34,-53,-47,-85,-34
-59,-56,7,58,-24,-25,104,28,-53,-47,-85,-34
-59,-56,7,58,-24,-25,104,22,-59,-47,-85,-34
-59,-62,1,58,-24,-31,110,22,-59,-41,-85,-34
-59,-62,1,58,-24,-31,104,22,-65,-47,-85,-28
-59,-62,1,58,-24,-31,104,22,-65,-53,-85,-28
-53,-62,-5,58,-19,-37,98,10,-71,-59,-85,-34
-53,-62,-5,58,-19,-37,98,10,-71,-65,-85,-34
-53,-56,1,52,-19,-31,98,10,-77,-59,-79,-28
-53,-56,1,52,-19,-31,98,10,-77,-59,-85,-28
-53,-50,7,52,-24,-25,98,10,-83,-53,-79,-28
-53,-50,7,52,-24,-25,98,10,-83,-53,-79,-28
-59,-56,7,58,-24,-25,92,4,-83,-53,-79,-28
-59,-56,7,58,-24,-25,92,4,-83,-53,-79,-28
-59,-62,1,58,-24,-31,92,4,-89,-53,-79,-28
-53,-62,-5,58,-19,-37,92,4,-89,-53,-79,-28
-53,-68,-11,58,-19,-43,92,4,-89,-53,-79,-28
-53,-68,-11,58,-19,-43,92,-2,-95,-59,-79,-28
-53,-74,-17,64,-19,-49,92,-2,-95,-59,-85,-28
-59,-80,-17,70,-19,-49,92,-8,-95,-59,-85,-28
-53,-74,-17,64,-19,-49,92,-8,-89,-65,-85,-34
-53,-74,-17,64,-19,-49,86,-8,-101,-65,-85,-34
-47,-68,-17,58,-19,-43,86,-8,-95,-71,-85,-34
-41,-68,-23,52,-13,-49,86,-8,-95,-71,-97,-40
-47,-68,-17,58,-19,-43,80,-8,-95,-71,-97,-34
-47,-68,-17,58,-19,-43,80,-8,-95,-71,-103,-34
-53,-68,-11,58,-19,-43,80,-8,-107,-71,-103,-28
-59,-68,-5,64,-19,-37,80,-8,-107,-71,-103,-28
-59,-68,-5,64,-19,-37,86,-8,-101,-71,-103,-34
-59,-68,-5,64,-19,-37,86,-13,-107,-77,-103,-34
-59,-68,-5,64,-19,-37,92,-13,-107,-83,-103,-46
-59,-74,-11,64,-19,-43,92,-13,-107,-83,-103,-46
-53,-74,-17,64,-19,-49,92,-13,-107,-83,-103,-46
-53,-74,-17,64,-19,-49,92,-13,-107,-83,-109,-46
-47,-74,-23,58,-19,-49,86,-19,-107,-77,-109,-46
-47,-74,-23,58,-19,-49,86,-19,-107,-77,-109,-46
-47,-74,-23,58,-19,-49,86,-19,-113,-83,-109,-46
-47,-74,-23,58,-19,-49,80,-19,-113,-83,-109,-46
-47,-74,-23,58,-19,-49,80,-25,-119,-89,-109,-52
-47,-74,-23,58,-19,-49,86,-25,-119,-89,-109,-52
-47,-68,-17,58,-19,-43,80,-25,-119,-95,-109,-52
-47,-68,-17,58,-19,-43,80,-25,-125,-95,-109,-52
-47,-74,-23,58,-19,-49,68,-25,-125,-101,-109,-52
-47,-74,-23,58,-19,-49,68,-31,-131,-101,-109,-58
-47,-80,-29,64,-13,-55,68,-25,-125,-101,-109,-52
-47,-80,-29,64,-13,-55,68,-25,-125,-101,-109,-52
-47,-86,-35,64,-13,-61,68,-19,-119,-95,-109,-46
-47,-86,-35,64,-13,-61,62,-19,-119,-95,-109,-46
-53,-86,-29,70,-19,-61,68,-25,-119,-95,-109,-46
-53,-86,-29,70,-19,-61,68,-25,-119,-95,-115,-46
-59,-80,-17,70,-19,-49,74,-31,-119,-95,-109,-46
-59,-80,-17,70,-19,-49,74,-31,-119,-95,-109,-46
-53,-80,-23,64,-19,-55,68,-31,-119,-101,-109,-46
-53,-86,-29,70,-19,-61,68,-31,-119,-101,-109,-46
-47,-86,-35,64,-13,-61,62,-25,-119,-101,-109,-46
-47,-86,-35,64,-13,-61,62,-25,-119,-101,-109,-46
-47,-86,-35,64,-13,-61,62,-31,-125,-101,-109,-46
-53,-92,-35,70,-13,-67,62,-25,-125,-101,-109,-46
-53,-92,-35,70,-13,-67,62,-31,-125,-95,-103,-46
-47,-92,-41,70,-7,-67,62,-31,-125,-95,-103,-46
-47,-86,-35,64,-13,-61,62,-31,-125,-101,-103,-46
-47,-86,-35,64,-13,-61,56,-31,-125,-101,-109,-46
-47,-80,-29,64,-13,-55,56,-31,-125,-107,-115,-52
-47,-80,-29,64,-13,-55,56,-37,-125,-113,-115,-52
-41,-86,-41,64,-7,-67,62,-31,-119,-107,-109,-52
-41,-86,-41,64,-7,-67,62,-31,-125,-113,-109,-52
-35,-92,-53,64,5,-73,68,-25,-119,-107,-103,-52
-41,-98,-53,70,-1,-79,68,-25,-119,-101,-109,-52
-41,-98,-53,70,-1,-79,68,-25,-119,-95,-115,-52
-41,-98,-53,70,-1,-79,68,-25,-119,-101,-115,-52
-41,-98,-53,70,-1,-79,68,-25,-119,-95,-115,-58
-41,-98,-53,70,-1,-79,68,-25,-119,-95,-115,-58
-47,-98,-47,70,-7,-73,68,-25,-119,-95,-115,-58
-47,-98,-47,70,-7,-73,68,-25,-119,-95,-115,-58
-53,-98,-41,76,-13,-73,62,-25,-119,-95,-115,-58
-53,-98,-41,76,-13,-73,62,-25,-119,-95,-115,-58
-47,-92,-41,70,-7,-67,62,-25,-125,-101,-115,-64
-47,-92,-41,70,-7,-67,62,-25,-125,-101,-115,-64
-41,-86,-41,64,-7,-67,56,-25,-131,-107,-121,-70
-41,-86,-41,64,-7,-67,50,-25,-131,-107,-121,-70
-47,-92,-41,70,-7,-67,56,-25,-131,-113,-121,-64
-47,-92,-41,70,-7,-67,56,-25,-131,-113,-121,-64
-53,-98,-41,76,-13,-73,62,-25,-131,-119,-121,-58
-53,-98,-41,76,-13,-73,62,-19,-131,-119,-121,-58
-47,-92,-41,70,-7,-67,56,-25,-131,-119,-115,-58
-47,-92,-41,70,-7,-67,56,-25,-131,-119,-121,-58
-41,-86,-41,64,-7,-67,50,-31,-131,-113,-115,-58
-35,-86,-47,58,-1,-67,56,-31,-131,-113,-115,-58
-41,-86,-41,64,-7,-67,56,-31,-137,-113,-115,-70
-41,-86,-41,64,-7,-67,56,-31,-137,-119,-115,-70
-47,-86,-35,64,-13,-61,56,-31,-143,-119,-115,-76
-47,-86,-35,64,-13,-61,56,-31,-143,-119,-115,-76
-47,-92,-41,70,-7,-67,56,-25,-137,-113,-115,-76
-47,-92,-41,70,-7,-67,56,-25,-137,-113,-115,-76
-53,-98,-41,76,-13,-73,56,-19,-131,-113,-115,-76
-53,-98,-41,76,-13,-73,50,-19,-131,-119,-115,-76
-53,-98,-41,76,-13,-73,50,-19,-131,-119,-115,-70
-53,-98,-41,76,-13,-73,50,-19,-131,-119,-115,-76
-47,-98,-47,70,-7,-73,50,-19,-131,-119,-115,-70
-47,-98,-47,70,-7,-73,50,-25,-131,-119,-115,-64
-41,-98,-53,70,-1,-79,50,-25,-125,-113,-115,-58
-41,-98,-53,70,-1,-79,50,-25,-125,-113,-115,-58
-35,-98,-59,64,5,-79,50,-25,-119,-107,-115,-52
-35,-98,-59,64,5,-79,50,-19,-113,-107,-115,-52
-41,-98,-53,70,-1,-79,50,-19,-119,-113,-115,-58
-41,-98,-53,70,-1,-79,50,-19,-125,-113,-115,-58
-47,-98,-47,70,-7,-73,50,-19,-131,-113,-115,-64
-47,-98,-47,70,-7,-73,56,-19,-131,-113,-115,-64
-47,-98,-47,70,-7,-73,56,-19,-131,-113,-115,-64
-47,-98,-47,70,-7,-73,56,-19,-131,-113,-115,-64
-47,-98,-47,70,-7,-73,56,-25,-125,-113,-115,-70
-47,-98,-47,70,-7,-73,50,-25,-125,-113,-115,-70
-47,-98,-47,70,-7,-73,56,-25,-125,-113,-115,-64
-47,-98,-47,70,-7,-73,56,-19,-125,-113,-115,-64
-47,-98,-47,70,-7,-73,62,-19,-125,-113,-115,-58
-47,-98,-47,70,-7,-73,62,-19,-125,-113,-115,-58
-35,-86,-47,58,-1,-67,50,-19,-125,-113,-115,-58
-35,-86,-47,58,-1,-67,50,-19,-125,-113,-115,-70
-35,-86,-47,58,-1,-67,62,-19,-119,-113,-127,-70
-41,-92,-47,64,-1,-73,62,-19,-125,-113,-115,-58
-35,-92,-53,64,5,-73,56,-25,-119,-113,-121,-70
-35,-92,-53,64,5,-73,56,-25,-125,-119,-121,-76
-35,-92,-53,64,5,-73,56,-25,-125,-119,-121,-76
-35,-92,-53,64,5,-73,56,-25,-131,-125,-121,-82
-35,-92,-53,64,5,-73,56,-25,-131,-125,-121,-82
-35,-92,-53,64,5,-73,56,-25,-131,-119,-121,-76
-35,-92,-53,64,5,-73,56,-25,-131,-119,-121,-76
-35,-92,-53,64,5,-73,56,-25,-131,-113,-121,-70
-35,-92,-53,64,5,-73,56,-25,-131,-113,-121,-70
-35,-98,-59,64,5,-79,56,-25,-131,-113,-115,-64
-35,-98,-59,64,5,-79,56,-25,-131,-113,-115,-64
-35,-104,-65,70,11,-85,56,-25,-131,-113,-109,-58
-35,-104,-65,70,11,-85,56,-25,-131,-113,-109,-58
-41,-104,-59,70,5,-85,56,-19,-125,-113,-115,-58
-41,-104,-59,70,5,-85,56,-19,-125,-113,-115,-58
-47,-104,-53,76,-1,-79,56,-13,-119,-113,-121,-58
-47,-104,-53,76,-1,-79,56,-13,-119,-113,-121,-58
-41,-104,-59,70,5,-85,56,-19,-125,-119,-121,-64
-41,-104,-59,70,5,-85,56,-19,-125,-119,-121,-64
-35,-104,-65,70,11,-85,56,-25,-131,-125,-121,-70
-35,-104,-65,70,11,-85,56,-25,-131,-125,-121,-70
-35,-104,-65,70,11,-85,56,-25,-125,-119,-121,-70
-35,-104,-65,70,11,-85,56,-25,-125,-119,-121,-70
-35,-104,-65,70,11,-85,56,-25,-119,-113,-121,-70
-35,-104,-65,70,11,-85,56,-25,-119,-113,-121,-70
-35,-104,-65,70,11,-85,56,-25,-119,-113,-121,-64
-35,-104,-65,70,11,-85,56,-25,-119,-113,-121,-58
-35,-110,-71,70,11,-91,56,-25,-119,-113,-121,-52
-35,-110,-71,70,11,-91,56,-25,-119,-113,-121,-52
-35,-110,-71,70,11,-91,50,-25,-119,-113,-121,-58
-35,-110,-71,70,11,-91,50,-25,-119,-113,-121,-58
-35,-110,-71,70,11,-91,44,-25,-119,-119,-127,-64
-35,-110,-71,70,11,-91,44,-19,-119,-119,-121,-64
-35,-104,-65,70,11,-85,44,-19,-119,-119,-121,-58
-35,-104,-65,70,11,-85,44,-19,-119,-119,-121,-52
-35,-98,-59,64,5,-79,44,-19,-119,-119,-121,-46
-30,-98,-65,64,11,-85,44,-19,-119,-119,-115,-46
-30,-98,-65,64,11,-85,50,-19,-119,-113,-115,-46
-30,-98,-65,64,11,-85,56,-25,-119,-113,-115,-52
-30,-98,-65,64,11,-85,62,-25,-119,-107,-115,-52
-35,-104,-65,70,11,-85,68,-25,-125,-113,-121,-52
-30,-110,-77,70,17,-97,62,-31,-125,-113,-115,-52
-30,-104,-71,64,17,-91,56,-31,-125,-113,-109,-52
-24,-110,-95,58,35,-103,50,-31,-125,-107,-103,-52
-24,-104,-89,58,35,-97,50,-31,-125,-107,-103,-52
-30,-104,-83,58,29,-91,44,-25,-119,-113,-109,-58
-30,-104,-83,58,29,-91,50,-19,-113,-113,-109,-58
-30,-98,-71,58,17,-85,50,-13,-113,-107,-115,-58
-24,-86,-71,46,23,-79,56,-8,-107,-95,-103,-46
-24,-74,-59,40,17,-67,62,-8,-101,-89,-85,-46
-24,-62,-47,34,11,-55,68,-2,-89,-83,-85,-40
-24,-38,-23,22,-1,-31,86,4,-83,-77,-79,-34
-24,-32,-17,22,-1,-25,92,4,-77,-77,-73,-22
-18,-20,-11,22,-1,-13,98,16,-77,-71,-73,-22
-18,-20,-11,22,-1,-13,110,16,-77,-71,-61,-22
-12,-15,-5,17,-1,-7,116,22,-77,-71,-73,-22
-18,-15,7,17,-7,-2,116,22,-71,-71,-73,-22
-24,-15,7,22,-13,-2,122,28,-59,-65,-67,-16
-30,-15,12,22,-19,-2,122,28,-59,-59,-61,-16
-30,-15,18,22,-19,-2,122,16,-59,-59,-49,-4
-35,3,42,22,-36,22,116,16,-59,-59,-49,8
-30,15,42,11,-30,28,110,22,-59,-53,-49,8
-24,15,30,5,-19,22,104,22,-59,-53,-49,2
-12,21,24,-1,-19,22,86,28,-59,-47,-49,-4
-6,21,18,-7,-13,22,74,22,-59,-47,-55,-10
6,27,12,-13,-7,22,56,16,-71,-53,-55,-4
6,27,12,-13,-7,22,44,10,-71,-53,-55,-4
12,15,7,-13,5,4,38,4,-83,-53,-49,-10
18,3,-11,-7,17,-2,32,4,-83,-53,-49,-10
18,-9,-23,-1,23,-7,26,4,-83,-53,-49,-4
18,-15,-29,-1,29,-13,26,-8,-95,-71,-55,-10
18,-20,-47,11,35,-31,26,-13,-101,-83,-67,-10
12,-32,-53,17,35,-43,20,-25,-119,-95,-73,-16
6,-32,-47,22,29,-37,14,-31,-125,-101,-85,-22
6,-32,-47,22,29,-37,14,-31,-125,-101,-85,-22
0,-38,-47,22,23,-43,14,-37,-131,-107,-91,-28
-12,-44,-41,22,17,-43,14,-37,-131,-107,-91,-28
-6,-50,-53,22,23,-49,20,-31,-125,-95,-85,-28
-6,-56,-59,22,29,-55,26,-31,-113,-95,-85,-34
-6,-62,-65,28,29,-61,32,-31,-107,-89,-79,-34
-12,-80,-77,40,35,-79,44,-25,-101,-89,-79,-34
-24,-80,-65,46,23,-73,44,-25,-107,-89,-85,-34
-30,-86,-65,52,17,-73,44,-25,-107,-95,-85,-34
-30,-86,-53,58,5,-73,50,-25,-113,-95,-85,-40
-35,-92,-53,64,5,-73,50,-25,-113,-95,-85,-46
-35,-92,-53,64,5,-73,50,-25,-125,-107,-103,-52
-35,-98,-59,64,5,-79,50,-37,-131,-113,-109,-58
-41,-104,-59,70,5,-85,50,-37,-137,-119,-121,-70
-41,-104,-59,70,5,-85,50,-43,-143,-125,-127,-70
-41,-104,-59,70,5,-85,44,-49,-143,-125,-121,-70
-41,-104,-59,70,5,-85,38,-49,-143,-125,-127,-70
-41,-116,-71,76,11,-97,38,-49,-137,-125,-121,-64
-41,-116,-71,76,11,-97,38,-49,-137,-125,-121,-64
-41,-116,-71,76,11,-97,38,-49,-143,-125,-121,-70
-41,-110,-65,76,5,-91,38,-49,-143,-125,-115,-70
-41,-116,-71,76,11,-97,38,-49,-143,-125,-109,-76
-41,-122,-77,82,11,-103,44,-43,-143,-125,-109,-76
-41,-116,-71,76,11,-97,44,-43,-149,-125,-115,-76
-41,-116,-71,76,11,-97,44,-43,-149,-119,-115,-82
-41,-110,-65,76,5,-91,44,-43,-155,-119,-121,-88
-41,-110,-65,76,5,-91,44,-43,-155,-119,-121,-94
-35,-116,-77,76,17,-97,44,-43,-155,-119,-115,-88
-35,-116,-77,76,17,-97,44,-43,-155,-119,-115,-82
-30,-122,-89,76,23,-109,44,-43,-155,-125,-109,-76
-30,-122,-89,76,23,-109,38,-43,-155,-125,-109,-70
-41,-122,-77,82,11,-103,38,-31,-137,-107,-109,-70
-30,-122,-89,76,23,-109,38,-31,-149,-119,-121,-70
-41,-122,-77,82,11,-103,44,-25,-149,-131,-133,-88
-41,-128,-83,82,17,-109,68,4,-131,-131,-127,-100
-41,-128,-83,82,17,-109,110,100,-95,-119,-133,-106
-41,-134,-89,88,17,-115,170,214,-53,-119,-133,-118
-53,-122,-65,88,-1,-97,230,316,-11,-101,-127,-118
-53,-92,-35,70,-13,-67,242,388,42,-77,-115,-94
-41,-50,-5,46,-19,-31,242,424,78,-29,-79,-82
-47,-15,36,22,-36,10,236,436,126,37,-31,-58
-35,-3,36,22,-30,16,242,490,216,120,28,-16
-12,15,18,-1,-19,16,260,634,354,228,88,19
42,63,12,-49,11,40,284,820,528,372,208,85
84,141,48,-109,17,94,278,922,690,558,358,205
144,219,66,-181,35,142,242,838,816,756,550,343
210,345,126,-277,41,238,170,550,882,936,760,505
288,513,222,-403,35,370,74,184,942,1140,982,691
342,669,318,-499,11,490,-15,-169,1014,1362,1210,889
408,807,396,-607,5,604,-159,-559,1068,1590,1438,1051
468,951,474,-709,-1,712,-303,-979,1074,1788,1642,1219
510,1077,558,-793,-19,820,-471,-1309,1146,1998,1834,1357
534,1203,666,-871,-54,940,-669,-1597,1206,2201,1996,1477
510,1365,846,-937,-162,1108,-813,-1825,1248,2357,2145,1579
468,1467,990,-967,-258,1228,-891,-1885,1344,2518,2289,1669
456,1449,984,-949,-258,1216,-969,-1843,1506,2668,2361,1705
432,1323,888,-877,-222,1108,-1011,-1843,1542,2656,2313,1645
342,1143,792,-739,-222,970,-957,-1831,1380,2345,2085,1477
246,873,618,-559,-180,742,-843,-1717,1092,1800,1708,1231
186,525,336,-355,-66,436,-747,-1549,696,1104,1180,913
90,201,102,-145,-7,154,-633,-1417,198,342,580,535
-18,-9,12,17,-13,-2,-519,-1321,-281,-287,28,193
-71,-122,-47,94,-19,-85,-453,-1249,-629,-647,-307,-46
-119,-188,-65,154,-19,-127,-411,-1159,-779,-749,-427,-166
-131,-206,-71,166,-24,-139,-381,-1039,-731,-683,-421,-184
-125,-218,-89,172,-19,-157,-363,-913,-629,-581,-379,-184
-119,-230,-107,172,-13,-169,-333,-799,-569,-521,-355,-178
-107,-230,-119,166,-1,-175,-315,-679,-509,-467,-319,-160
-101,-224,-119,160,5,-175,-267,-505,-407,-377,-271,-130
-89,-212,-119,148,11,-169,-207,-355,-311,-287,-235,-112
-83,-212,-125,148,17,-169,-153,-253,-245,-239,-211,-118
-77,-212,-131,142,23,-175,-111,-181,-197,-209,-187,-100
-59,-194,-131,124,29,-163,-87,-121,-143,-179,-169,-106
-35,-170,-131,100,41,-151,-81,-85,-125,-161,-157,-100
-30,-146,-113,88,35,-133,-81,-67,-137,-167,-163,-100
-30,-122,-89,76,23,-109,-69,-61,-143,-179,-163,-112
-30,-110,-77,70,17,-97,-57,-37,-143,-167,-157,-100
-30,-122,-89,76,23,-109,-45,-13,-143,-167,-151,-100
-30,-122,-89,76,23,-109,-33,-8,-143,-167,-151,-94
-30,-122,-89,76,23,-109,-21,10,-137,-161,-151,-94
-35,-122,-83,76,17,-103,-15,22,-125,-149,-151,-94
-35,-128,-89,82,23,-109,-9,22,-125,-137,-145,-94
-35,-128,-89,82,23,-109,-3,22,-125,-137,-145,-94
-30,-128,-95,76,29,-115,-3,22,-125,-137,-139,-94
-30,-128,-95,76,29,-115,-3,22,-125,-137,-139,-88
-30,-128,-95,76,29,-115,-3,22,-125,-137,-139,-88
-35,-134,-95,82,23,-115,-3,22,-125,-137,-139,-88
-30,-134,-101,82,29,-121,2,22,-125,-131,-139,-88
-35,-134,-95,82,23,-115,2,22,-125,-131,-139,-88
-35,-128,-89,82,23,-109,8,28,-131,-131,-133,-88
-35,-128,-89,82,23,-109,20,34,-125,-131,-127,-88
-35,-128,-89,82,23,-109,20,40,-125,-125,-127,-88
-35,-128,-89,82,23,-109,20,46,-113,-125,-121,-88
-35,-128,-89,82,23,-109,20,52,-113,-125,-121,-88
-35,-128,-89,82,23,-109,14,46,-113,-125,-121,-88
-35,-128,-89,82,23,-109,14,46,-113,-125,-121,-94
-35,-128,-89,82,23,-109,8,40,-113,-125,-127,-94
-35,-128,-89,82,23,-109,14,40,-113,-119,-121,-94
-30,-122,-89,76,23,-109,14,40,-119,-125,-121,-88
-30,-122,-89,76,23,-109,14,40,-119,-119,-121,-88
-30,-116,-95,64,35,-103,14,40,-125,-125,-121,-88
-30,-116,-95,64,35,-103,14,40,-125,-125,-115,-88
-30,-116,-95,64,35,-103,14,46,-119,-119,-115,-88
-30,-110,-89,64,29,-97,14,46,-119,-125,-109,-88
-30,-110,-89,64,29,-97,14,52,-113,-119,-109,-82
-30,-110,-89,64,29,-97,14,58,-107,-113,-109,-82
-24,-116,-101,64,41,-109,20,58,-107,-107,-103,-82
-24,-116,-101,64,41,-109,26,58,-107,-107,-103,-82
-24,-122,-107,64,41,-115,32,58,-107,-101,-97,-82
-24,-122,-107,64,41,-115,32,64,-107,-101,-97,-82
-24,-122,-107,64,41,-115,26,64,-101,-101,-97,-82
-24,-122,-107,64,41,-115,26,64,-101,-95,-97,-82
-24,-122,-107,64,41,-115,26,58,-95,-95,-97,-82
-24,-122,-107,64,41,-115,26,58,-95,-95,-97,-82
-24,-116,-101,64,41,-109,26,58,-95,-95,-97,-82
-18,-116,-107,58,47,-109,26,58,-89,-89,-97,-82
-18,-110,-101,58,41,-103,20,58,-89,-89,-103,-82
-24,-110,-95,58,35,-103,20,58,-89,-89,-103,-82
-24,-104,-89,58,35,-97,14,58,-83,-83,-97,-82
-18,-104,-95,52,41,-97,14,64,-83,-83,-97,-76
-18,-104,-95,52,41,-97,14,64,-77,-83,-91,-76
-18,-104,-95,52,41,-97,14,64,-77,-83,-85,-76
-24,-104,-89,58,35,-97,20,64,-71,-83,-79,-76
-24,-104,-89,58,35,-97,20,64,-71,-77,-79,-70
-24,-104,-89,58,35,-97,26,70,-71,-65,-79,-70
-18,-104,-95,52,41,-97,26,70,-71,-65,-79,-70
-18,-104,-95,52,41,-97,32,70,-65,-65,-73,-76
-24,-104,-89,58,35,-97,32,76,-65,-65,-73,-76
-24,-98,-83,52,29,-91,38,76,-59,-65,-61,-82
-18,-98,-89,52,35,-91,38,82,-59,-59,-61,-76
-18,-104,-95,52,41,-97,32,88,-53,-53,-55,-76
-18,-98,-89,52,35,-91,32,94,-53,-53,-49,-76
-18,-92,-83,46,35,-85,26,100,-53,-53,-49,-76
-18,-92,-83,46,35,-85,26,106,-47,-53,-43,-76
-18,-86,-77,46,29,-79,26,106,-47,-41,-43,-70
-12,-86,-83,40,35,-85,20,118,-35,-35,-43,-70
-12,-80,-77,40,35,-79,20,118,-29,-35,-43,-58
-12,-80,-77,40,35,-79,20,124,-23,-35,-43,-46
-12,-74,-71,34,29,-73,20,124,-29,-29,-31,-46
-6,-74,-77,34,35,-73,20,124,-17,-23,-25,-40
-6,-74,-77,34,35,-73,20,124,-23,-17,-25,-40
-6,-74,-77,34,35,-73,20,130,-23,-5,-25,-40
6,-74,-89,28,47,-79,20,142,-11,1,-13,-28
12,-74,-95,22,53,-85,20,148,1,7,-7,-28
18,-68,-95,22,59,-79,26,160,13,13,-7,-22
18,-68,-95,22,59,-79,26,166,19,19,-1,-16
12,-62,-83,22,47,-73,20,166,25,25,5,-22
12,-56,-77,22,47,-67,20,172,37,31,5,-22
18,-50,-77,22,47,-61,14,184,42,43,11,-16
18,-44,-71,22,47,-55,14,190,42,60,17,-4
18,-38,-65,17,41,-49,14,196,48,60,23,8
18,-38,-65,17,41,-49,14,202,54,60,28,14
18,-20,-47,11,35,-31,14,208,60,60,28,14
30,-15,-53,-1,41,-31,8,220,72,72,40,19
30,-15,-47,-1,41,-25,8,232,90,84,52,19
36,-9,-41,-13,41,-19,8,238,96,96,64,19
36,-15,-47,-7,47,-25,2,250,120,108,82,25
36,-3,-35,-13,41,-13,2,262,138,120,88,37
42,3,-35,-19,41,-7,2,268,156,138,100,49
48,9,-35,-25,47,-7,2,280,168,150,118,61
54,21,-29,-37,47,-2,2,286,192,174,130,73
60,27,-29,-43,47,-2,2,298,204,198,154,85
66,39,-23,-49,47,4,-3,304,222,204,160,97
66,45,-17,-55,47,10,-9,310,228,222,166,103
72,63,-5,-67,41,22,-9,316,246,240,178,115
72,69,1,-67,41,28,-15,322,258,258,196,127
78,75,1,-73,41,34,-9,328,276,264,214,133
84,99,12,-91,35,52,-9,334,282,288,226,145
84,93,12,-85,41,46,-3,340,312,300,238,145
90,105,12,-97,41,58,-3,346,324,312,250,163
96,129,24,-109,35,76,-9,352,324,324,268,169
96,129,24,-109,35,76,-9,352,336,336,280,187
96,141,36,-115,29,88,-9,358,342,348,286,193
108,153,36,-127,35,94,-9,364,348,366,298,205
108,159,42,-133,29,100,-9,370,372,372,310,223
108,165,48,-133,29,106,-9,370,372,384,322,229
108,177,60,-139,23,118,-9,370,390,378,322,235
108,183,66,-145,17,124,-15,370,390,384,328,235
108,195,78,-151,11,136,-15,370,396,390,334,235
108,201,84,-151,11,142,-15,370,402,402,340,247
114,207,84,-157,11,148,-9,364,408,414,346,247
114,213,90,-163,11,154,-9,364,414,414,352,253
108,213,96,-157,5,154,-9,364,414,420,358,253
108,213,96,-157,5,154,-3,364,414,426,358,259
102,207,96,-151,-1,154,-3,358,408,432,364,259
102,213,102,-157,-1,160,-3,358,408,432,364,259
108,213,96,-157,5,154,2,364,420,438,370,265
96,213,108,-151,-7,160,2,352,420,438,370,265
102,213,102,-157,-1,160,2,358,426,444,370,271
102,207,96,-151,-1,154,2,352,414,432,358,265
96,207,102,-151,-7,154,14,340,408,420,358,259
96,201,96,-145,-1,148,20,328,396,408,346,241
90,201,102,-145,-7,154,32,310,384,390,334,229
84,195,102,-139,-13,148,44,292,360,366,322,217
78,177,90,-127,-7,136,50,280,336,348,298,205
72,177,96,-121,-13,136,56,268,318,336,292,193
66,165,90,-115,-13,130,62,256,294,312,268,175
60,153,84,-103,-13,118,74,238,282,294,262,163
54,147,84,-97,-19,118,80,232,258,276,244,145
48,135,78,-91,-19,106,86,214,234,252,226,139
42,123,72,-79,-19,100,92,208,222,246,208,127
36,111,66,-73,-19,88,98,196,204,234,190,109
24,93,60,-55,-19,76,98,184,174,204,172,97
18,81,54,-49,-19,70,98,160,150,180,154,91
6,63,48,-31,-19,58,110,142,126,156,124,79
0,51,42,-25,-19,46,110,136,102,132,112,67
0,39,30,-19,-19,34,110,118,84,108,88,49
-6,33,30,-13,-19,34,110,94,66,84,70,37
0,27,18,-13,-13,22,116,82,48,66,46,19
-6,21,18,-7,-13,22,116,70,42,60,34,19
-6,9,12,-1,-7,10,116,70,37,60,34,19
-12,-3,12,11,-7,-2,116,58,31,49,28,8
-18,-9,12,17,-13,-2,116,52,13,43,28,2
-24,-15,12,22,-13,-2,116,46,1,31,17,-10
-24,-15,1,22,-13,-7,104,46,-17,13,5,-16
-30,-20,1,22,-13,-7,104,28,-29,7,-7,-16
-30,-32,-11,22,-7,-19,98,28,-35,-5,-13,-10
-30,-32,-11,22,-7,-19,98,22,-47,-5,-19,-10
-30,-32,-11,22,-7,-19,98,16,-41,-11,-19,-22
-30,-44,-23,28,-1,-31,92,16,-47,-17,-25,-22
-30,-44,-17,34,-7,-31,92,10,-47,-23,-31,-34
-30,-44,-17,34,-7,-31,92,10,-47,-23,-43,-34
-30,-44,-23,28,-1,-31,92,10,-53,-29,-43,-34
-30,-44,-23,28,-1,-31,92,4,-59,-35,-43,-46
-24,-38,-23,22,-1,-31,86,-2,-71,-41,-49,-46
-24,-44,-29,28,5,-37,86,-2,-77,-41,-49,-46
-30,-50,-29,34,-1,-37,92,-2,-77,-41,-49,-52
-30,-50,-29,34,-1,-37,92,-2,-71,-47,-49,-52
-30,-44,-17,34,-7,-31,92,-2,-71,-47,-49,-58
-30,-44,-17,34,-7,-31,92,-2,-77,-47,-61,-64
-30,-56,-29,40,-1,-43,92,-8,-77,-53,-61,-58
-30,-56,-29,40,-1,-43,92,-8,-77,-53,-61,-58
-30,-62,-35,40,-1,-49,92,-8,-77,-59,-61,-52
-30,-68,-41,46,5,-55,92,-8,-77,-59,-61,-52
-30,-68,-35,46,-1,-55,92,-8,-77,-59,-67,-58
-30,-68,-35,46,-1,-55,86,-8,-77,-59,-67,-58
-30,-68,-35,46,-1,-55,86,-8,-77,-59,-67,-64
-30,-68,-35,46,-1,-55,86,-8,-77,-59,-67,-64
-30,-62,-35,40,-1,-49,86,-8,-77,-59,-67,-64
-30,-62,-35,40,-1,-49,86,-8,-77,-59,-67,-64
-24,-56,-41,34,11,-49,86,-8,-77,-59,-61,-64
-24,-56,-41,34,11,-49,86,-8,-77,-59,-55,-64
-30,-56,-35,34,5,-43,86,-8,-77,-53,-55,-58
-30,-56,-35,34,5,-43,86,-8,-77,-53,-55,-58
-30,-56,-29,40,-1,-43,86,-8,-77,-47,-55,-52
-30,-56,-23,40,-7,-43,86,-8,-77,-47,-55,-52
-30,-56,-23,40,-7,-43,80,-8,-77,-47,-61,-58
-30,-56,-29,40,-1,-43,80,-8,-77,-47,-61,-58
-30,-50,-23,34,-7,-37,74,-8,-77,-47,-67,-64
-30,-50,-23,34,-7,-37,74,-2,-77,-47,-67,-64
-30,-50,-29,34,-1,-37,74,-2,-71,-53,-67,-70
-30,-56,-35,34,5,-43,68,-2,-71,-53,-67,-70
-24,-68,-53,40,17,-61,68,-2,-71,-65,-67,-70
-24,-74,-59,40,17,-67,68,-2,-71,-65,-67,-70
-30,-74,-53,46,11,-61,74,4,-71,-59,-67,-64
-30,-74,-53,46,11,-61,74,4,-71,-59,-73,-64
-30,-86,-65,52,17,-73,74,4,-71,-59,-73,-64
-30,-74,-53,46,11,-61,74,4,-71,-59,-73,-64
-30,-74,-53,46,11,-61,80,4,-71,-59,-73,-64
-30,-74,-53,46,11,-61,80,10,-71,-59,-73,-64
-30,-74,-47,46,5,-61,86,10,-71,-59,-73,-64
-30,-74,-41,52,-1,-61,86,10,-71,-59,-73,-64
-30,-74,-41,52,-1,-61,86,16,-71,-53,-73,-64
-30,-74,-47,46,5,-61,86,16,-65,-53,-67,-64
-30,-74,-47,46,5,-61,86,16,-65,-47,-67,-64
-30,-74,-41,52,-1,-61,86,16,-65,-47,-67,-64
-30,-68,-41,46,5,-55,86,22,-65,-47,-67,-64
-30,-68,-41,46,5,-55,86,22,-65,-47,-67,-64
-30,-74,-53,46,11,-61,86,22,-65,-53,-67,-64
-30,-74,-53,46,11,-61,86,22,-65,-53,-67,-64
-24,-74,-59,40,17,-67,86,28,-59,-53,-67,-76
-24,-68,-53,40,17,-61,86,28,-59,-53,-67,-76
-24,-68,-53,40,17,-61,86,28,-53,-53,-67,-76
-24,-68,-53,40,17,-61,86,28,-47,-53,-67,-76
-24,-62,-47,34,11,-55,86,34,-53,-47,-67,-70
-24,-62,-47,34,11,-55,86,34,-53,-47,-67,-70
-24,-56,-41,34,11,-49,86,40,-53,-41,-67,-64
-24,-56,-41,34,11,-49,86,46,-53,-35,-67,-64
-30,-62,-41,40,5,-49,86,40,-59,-41,-67,-70
-30,-62,-41,40,5,-49,86,40,-59,-47,-67,-70
-24,-68,-53,40,17,-61,86,34,-53,-59,-73,-76
-24,-68,-53,40,17,-61,86,34,-53,-59,-73,-76
-30,-68,-47,40,11,-55,86,34,-53,-59,-73,-76
-30,-68,-47,40,11,-55,86,34,-59,-59,-73,-76
-30,-68,-35,46,-1,-55,86,28,-59,-59,-73,-82
-30,-62,-29,46,-7,-49,86,28,-59,-59,-73,-82
-30,-62,-41,40,5,-49,86,34,-59,-53,-67,-82
-30,-68,-47,40,11,-55,86,34,-59,-47,-67,-76
-24,-68,-53,40,17,-61,86,28,-65,-47,-55,-76
-24,-68,-53,40,17,-61,86,28,-65,-47,-55,-76
-24,-56,-41,34,11,-49,80,34,-59,-47,-61,-76
-24,-56,-41,34,11,-49,74,34,-59,-53,-61,-76
-24,-50,-35,28,5,-43,68,40,-53,-59,-73,-76
-24,-50,-35,28,5,-43,74,40,-53,-59,-73,-76
-18,-50,-41,28,11,-43,80,40,-53,-59,-73,-76
-18,-44,-35,22,11,-37,74,34,-53,-59,-73,-76
-12,-44,-41,22,17,-43,80,34,-59,-59,-73,-70
-12,-50,-47,22,17,-49,86,34,-59,-53,-73,-70
-18,-50,-41,28,11,-43,86,28,-65,-53,-67,-64
-18,-50,-41,28,11,-43,86,28,-65,-59,-67,-64
-18,-50,-41,28,11,-43,86,10,-71,-59,-61,-70
-18,-50,-41,28,11,-43,86,10,-71,-65,-61,-70
-18,-50,-41,28,11,-43,86,16,-71,-65,-61,-64
-18,-50,-41,28,11,-43,86,16,-71,-65,-67,-64
-18,-50,-41,28,11,-43,86,22,-71,-65,-67,-64
-18,-50,-41,28,11,-43,86,22,-71,-65,-67,-64
-24,-50,-35,28,5,-43,74,16,-71,-59,-61,-70
-24,-50,-35,28,5,-43,74,16,-71,-59,-61,-70
-24,-50,-35,28,5,-43,68,16,-77,-53,-55,-76
-18,-50,-41,28,11,-43,68,16,-77,-53,-55,-76
-18,-50,-41,28,11,-43,74,16,-77,-53,-61,-76
-18,-50,-41,28,11,-43,74,10,-83,-59,-61,-76
-18,-50,-41,28,11,-43,80,10,-83,-59,-73,-76
-24,-56,-41,34,11,-49,80,4,-83,-59,-73,-76
-30,-62,-41,40,5,-49,80,4,-77,-65,-73,-76
-30,-62,-41,40,5,-49,74,-2,-89,-65,-73,-76
-30,-68,-41,46,5,-55,74,-2,-83,-71,-73,-70
-30,-68,-47,40,11,-55,74,-2,-83,-71,-85,-76
-24,-68,-53,40,17,-61,68,-8,-83,-71,-85,-82
-24,-68,-53,40,17,-61,68,-8,-83,-71,-91,-82
-18,-68,-59,34,23,-61,68,-8,-95,-71,-91,-88
-24,-68,-53,40,17,-61,68,-8,-95,-71,-91,-88
-24,-68,-53,40,17,-61,68,-8,-101,-71,-91,-88
-24,-68,-53,40,17,-61,68,-8,-107,-77,-91,-88
-24,-68,-53,40,17,-61,68,-13,-119,-83,-91,-94
-24,-74,-59,40,17,-67,68,-13,-119,-83,-91,-94
-30,-74,-53,46,11,-61,68,-13,-113,-89,-91,-94
-30,-74,-53,46,11,-61,68,-13,-113,-89,-97,-94
-30,-74,-47,46,5,-61,62,-19,-107,-89,-97,-94
-30,-74,-47,46,5,-61,62,-19,-107,-89,-97,-94
-30,-74,-53,46,11,-61,62,-19,-107,-83,-97,-94
-30,-74,-53,46,11,-61,56,-19,-107,-83,-97,-94
-24,-74,-59,40,17,-67,56,-25,-107,-77,-97,-100
-24,-74,-59,40,17,-67,62,-25,-107,-77,-97,-100
-24,-68,-53,40,17,-61,62,-19,-107,-77,-97,-100
-24,-68,-53,40,17,-61,62,-19,-113,-77,-97,-100
-24,-74,-59,40,17,-67,56,-13,-113,-77,-97,-100
-24,-74,-59,40,17,-67,56,-19,-119,-77,-97,-106
-24,-80,-65,46,23,-73,62,-13,-113,-83,-97,-100
-24,-80,-65,46,23,-73,62,-13,-113,-83,-97,-94
-24,-86,-71,46,23,-79,68,-8,-107,-83,-97,-88
-24,-86,-71,46,23,-79,62,-8,-107,-83,-97,-82
-24,-80,-65,46,23,-73,62,-8,-107,-83,-103,-88
-24,-80,-65,46,23,-73,62,-8,-107,-83,-109,-88
-24,-68,-53,40,17,-61,62,-8,-107,-83,-109,-94
-24,-68,-53,40,17,-61,62,-8,-107,-83,-109,-94
-30,-68,-47,40,11,-55,56,-13,-113,-89,-109,-94
-30,-74,-53,46,11,-61,56,-13,-113,-89,-109,-94
-30,-74,-47,46,5,-61,50,-13,-119,-89,-109,-94
-30,-74,-47,46,5,-61,50,-13,-119,-89,-109,-94
-30,-74,-53,46,11,-61,50,-19,-119,-89,-103,-88
-30,-80,-53,52,11,-67,50,-13,-119,-89,-103,-88
-30,-80,-59,46,17,-67,50,-19,-113,-83,-91,-82
-24,-80,-65,46,23,-73,50,-19,-113,-83,-91,-82
-30,-80,-59,46,17,-67,50,-19,-113,-89,-97,-88
-30,-80,-59,46,17,-67,44,-19,-113,-89,-103,-88
-30,-80,-53,52,11,-67,44,-19,-113,-95,-115,-100
-30,-80,-53,52,11,-67,44,-25,-113,-101,-115,-100
-30,-80,-53,52,11,-67,44,-25,-113,-95,-115,-106
-30,-80,-53,52,11,-67,44,-25,-119,-101,-115,-106
-30,-80,-53,52,11,-67,44,-25,-119,-95,-115,-112
-30,-86,-53,58,5,-73,44,-25,-119,-89,-121,-112
-30,-80,-53,52,11,-67,44,-25,-125,-89,-127,-106
-30,-80,-53,52,11,-67,44,-25,-125,-95,-127,-106
-30,-74,-53,46,11,-61,44,-25,-131,-95,-127,-106
-30,-74,-53,46,11,-61,44,-25,-131,-95,-127,-106
-30,-74,-47,46,5,-61,44,-25,-125,-95,-121,-100
-30,-74,-47,46,5,-61,44,-25,-125,-95,-121,-100
-30,-74,-41,52,-1,-61,38,-25,-119,-95,-115,-94
-30,-74,-41,52,-1,-61,38,-25,-119,-95,-115,-94
-30,-80,-47,52,5,-67,44,-25,-119,-89,-115,-94
-30,-80,-47,52,5,-67,44,-25,-119,-89,-115,-94
-30,-86,-53,58,5,-73,44,-25,-119,-83,-121,-94
-30,-86,-53,58,5,-73,38,-25,-119,-83,-121,-94
-30,-86,-53,58,5,-73,38,-25,-119,-83,-121,-94
-30,-86,-53,58,5,-73,38,-25,-119,-83,-121,-94
-30,-86,-53,58,5,-73,38,-25,-119,-83,-121,-94
-30,-86,-53,58,5,-73,38,-19,-119,-83,-121,-94
-30,-86,-59,52,11,-73,32,-19,-125,-89,-121,-94
-30,-86,-59,52,11,-73,32,-19,-125,-89,-127,-94
-30,-86,-65,52,17,-73,26,-19,-131,-89,-127,-94
-24,-86,-71,46,23,-79,32,-19,-131,-89,-127,-94
-30,-86,-65,52,17,-73,38,-19,-125,-83,-127,-100
-30,-86,-59,52,11,-73,38,-19,-125,-89,-127,-100
-30,-86,-53,58,5,-73,44,-19,-119,-83,-127,-100
-35,-86,-47,58,-1,-67,44,-19,-119,-83,-127,-100
-30,-86,-53,58,5,-73,44,-19,-119,-83,-127,-100
-30,-86,-53,58,5,-73,44,-19,-119,-83,-127,-100
-30,-86,-53,58,5,-73,44,-19,-119,-89,-127,-100
-30,-86,-53,58,5,-73,38,-19,-119,-95,-127,-100
-30,-80,-47,52,5,-67,38,-19,-119,-89,-127,-94
-30,-80,-47,52,5,-67,38,-19,-119,-89,-127,-100
-30,-74,-47,46,5,-61,38,-19,-119,-83,-127,-94
-30,-74,-47,46,5,-61,38,-25,-119,-83,-127,-88
-30,-80,-53,52,11,-67,38,-25,-119,-83,-127,-94
-30,-80,-53,52,11,-67,38,-25,-119,-83,-127,-94
-30,-86,-59,52,11,-73,38,-25,-119,-83,-127,-100
-30,-86,-59,52,11,-73,38,-19,-113,-83,-127,-100
-30,-80,-53,52,11,-67,32,-19,-119,-89,-133,-100
-30,-80,-53,52,11,-67,32,-19,-125,-89,-133,-100
-30,-74,-47,46,5,-61,26,-19,-131,-89,-139,-100
-30,-74,-47,46,5,-61,32,-19,-131,-89,-139,-100
-30,-80,-53,52,11,-67,32,-13,-131,-89,-139,-94
-30,-80,-53,52,11,-67,32,-13,-131,-89,-139,-94
-30,-86,-59,52,11,-73,32,-13,-125,-89,-139,-94
-30,-86,-59,52,11,-73,26,-13,-125,-89,-139,-94
-30,-86,-59,52,11,-73,26,-13,-119,-83,-133,-94
-30,-86,-59,52,11,-73,26,-8,-119,-83,-133,-94
-30,-86,-59,52,11,-73,26,-8,-113,-77,-127,-94
-30,-86,-59,52,11,-73,26,-8,-113,-77,-127,-94
-30,-74,-47,46,5,-61,38,-19,-113,-77,-127,-94
-30,-86,-59,52,11,-73,38,-19,-125,-77,-127,-82
-30,-86,-59,52,11,-73,38,-8,-119,-77,-127,-94
-30,-92,-59,58,11,-79,38,-8,-113,-65,-127,-94
-30,-92,-65,58,17,-79,44,-13,-107,-65,-121,-82
-30,-92,-65,58,17,-79,38,-13,-113,-71,-127,-82
-30,-92,-65,58,17,-79,38,-13,-113,-71,-127,-82
-30,-92,-65,58,17,-79,32,-13,-119,-77,-133,-82
-30,-92,-65,58,17,-79,32,-13,-119,-77,-133,-82
-30,-92,-59,58,11,-79,26,-13,-119,-77,-133,-82
-30,-92,-59,58,11,-79,26,-13,-119,-77,-133,-82
-35,-92,-53,64,5,-73,20,-13,-119,-77,-133,-82
-35,-92,-53,64,5,-73,20,-13,-119,-77,-133,-82
-35,-86,-47,58,-1,-67,20,-13,-119,-77,-133,-82
-35,-86,-47,58,-1,-67,20,-13,-119,-77,-133,-82
-35,-80,-41,58,-1,-61,20,-13,-119,-77,-133,-82
-35,-80,-41,58,-1,-61,20,-13,-119,-77,-133,-82
-30,-86,-53,58,5,-73,20,-13,-119,-71,-133,-76
-30,-86,-53,58,5,-73,20,-13,-119,-71,-133,-76
-30,-92,-65,58,17,-79,20,-13,-119,-65,-133,-70
-30,-92,-65,58,17,-79,20,-13,-119,-65,-133,-70
-30,-86,-59,52,11,-73,20,-8,-113,-71,-139,-70
-30,-86,-59,52,11,-73,20,-8,-113,-71,-139,-70
-30,-80,-53,52,11,-67,20,-8,-107,-77,-145,-70
-30,-80,-53,52,11,-67,20,-8,-107,-77,-145,-70
-30,-80,-53,52,11,-67,20,-8,-107,-77,-145,-70
-30,-80,-53,52,11,-67,20,-8,-107,-77,-145,-70
-30,-80,-53,52,11,-67,20,-8,-107,-77,-145,-70
-30,-80,-53,52,11,-67,20,-8,-107,-77,-145,-70
-30,-74,-47,46,5,-61,14,-8,-113,-77,-145,-76
-30,-74,-47,46,5,-61,14,-8,-113,-77,-145,-76
-30,-68,-41,46,5,-55,8,-8,-119,-77,-145,-82
-30,-68,-41,46,5,-55,8,-8,-119,-77,-145,-82
-30,-74,-47,46,5,-61,8,-8,-119,-71,-145,-76
-30,-74,-47,46,5,-61,8,-8,-119,-71,-145,-76
-30,-80,-53,52,11,-67,8,-2,-119,-65,-145,-70
-30,-80,-53,52,11,-67,8,-2,-119,-65,-145,-70
-30,-80,-47,52,5,-67,8,-8,-119,-65,-145,-64
-30,-80,-47,52,5,-67,8,-8,-119,-65,-145,-64
-35,-80,-41,58,-1,-61,8,-8,-119,-65,-145,-58
-35,-80,-41,58,-1,-61,8,-8,-119,-65,-145,-58
-30,-74,-41,52,-1,-61,8,-8,-119,-65,-145,-58
-30,-74,-41,52,-1,-61,8,-8,-119,-65,-145,-58
-30,-68,-41,46,5,-55,8,-8,-119,-65,-145,-58
-30,-68,-41,46,5,-55,8,-8,-119,-65,-145,-58
-30,-74,-47,46,5,-61,8,-8,-119,-65,-145,-58
-30,-80,-53,52,11,-67,8,-8,-119,-65,-145,-58
-30,-86,-59,52,11,-73,8,-13,-119,-65,-145,-64
-30,-86,-59,52,11,-73,8,-13,-119,-65,-139,-64
-30,-80,-47,52,5,-67,14,-8,-119,-65,-145,-64
-30,-80,-47,52,5,-67,14,-8,-119,-71,-145,-64
-35,-74,-35,52,-7,-55,20,-8,-119,-71,-145,-64
-35,-74,-35,52,-7,-55,20,-8,-119,-71,-145,-64
-30,-74,-41,52,-1,-61,14,-8,-119,-65,-151,-64
-30,-74,-41,52,-1,-61,14,-8,-119,-65,-151,-64
-30,-74,-53,46,11,-61,8,-8,-119,-59,-151,-70
-30,-74,-53,46,11,-61,8,-8,-119,-59,-151,-70
-30,-74,-47,46,5,-61,8,-13,-119,-59,-151,-76
-30,-74,-47,46,5,-61,8,-13,-119,-59,-151,-76
-35,-80,-41,58,-1,-61,8,-13,-125,-65,-157,-76
-35,-80,-41,58,-1,-61,8,-13,-125,-65,-157,-76
-35,-74,-35,52,-7,-55,2,-19,-125,-65,-157,-76
-30,-74,-47,46,5,-61,2,-13,-125,-59,-157,-76
-30,-68,-41,46,5,-55,2,-19,-125,-59,-163,-76
-30,-68,-41,46,5,-55,2,-13,-113,-59,-163,-76
-30,-68,-47,40,11,-55,14,-8,-107,-59,-157,-82
-30,-62,-41,40,5,-49,20,-8,-101,-47,-157,-76
-12,-50,-47,22,17,-49,32,-8,-95,-35,-139,-70
-12,-38,-35,22,11,-37,38,10,-89,-29,-121,-70
-18,-26,-17,22,-1,-19,50,22,-77,-17,-121,-58
-18,-15,7,17,-7,-2,68,34,-71,-11,-115,-52
-24,-9,12,17,-19,-2,80,40,-65,-5,-109,-34
-24,-3,12,17,-19,4,86,46,-65,1,-109,-34
-24,3,18,11,-19,10,92,40,-65,1,-97,-34
-24,9,24,11,-19,16,98,40,-65,1,-109,-34
-30,21,42,5,-24,34,92,34,-59,1,-109,-34
-30,21,42,5,-24,34,92,40,-53,7,-103,-34
-30,21,42,5,-24,34,86,40,-53,7,-103,-40
-30,33,54,-1,-30,46,80,28,-59,7,-91,-34
-24,51,66,-13,-36,58,68,28,-59,1,-97,-28
-18,57,66,-19,-30,64,62,28,-59,1,-97,-22
-12,51,54,-19,-24,52,56,28,-59,1,-97,-22
-6,51,48,-19,-19,52,38,28,-59,1,-97,-22
-6,45,42,-19,-19,46,26,22,-59,1,-103,-22
0,45,36,-19,-19,40,14,16,-65,-5,-109,-22
0,45,36,-19,-19,40,2,10,-71,-5,-109,-22
0,27,18,-13,-13,22,2,4,-77,-5,-109,-34
6,15,12,-7,-1,10,2,4,-83,-5,-109,-34
6,3,1,-1,5,-2,2,4,-83,-5,-109,-34
6,3,1,-1,5,-2,2,-8,-95,-23,-115,-34
6,-15,-17,5,17,-7,2,-13,-101,-35,-127,-40
0,-15,-17,11,11,-13,-3,-25,-119,-47,-133,-40
0,-15,-17,11,11,-13,-3,-25,-119,-47,-139,-40
0,-15,-23,17,11,-19,-3,-25,-113,-41,-139,-40
0,-20,-29,17,17,-25,2,-25,-113,-41,-139,-40
-12,-32,-29,22,11,-31,2,-25,-107,-35,-139,-40
-12,-32,-29,22,11,-31,2,-19,-107,-29,-139,-40
-12,-32,-29,22,11,-31,2,-19,-101,-29,-139,-46
-18,-32,-23,22,5,-25,2,-19,-101,-29,-139,-46
-24,-44,-29,28,5,-37,8,-13,-101,-29,-139,-46
-30,-50,-29,34,-1,-37,8,-13,-101,-29,-145,-52
-30,-56,-29,40,-1,-43,14,-19,-107,-35,-145,-52
-30,-62,-29,46,-7,-49,20,-19,-107,-35,-145,-64
-35,-68,-29,52,-7,-49,26,-25,-113,-35,-145,-70
-35,-68,-29,52,-7,-49,26,-25,-125,-47,-157,-70
-35,-74,-35,52,-7,-55,20,-37,-131,-53,-169,-76
-41,-80,-35,58,-7,-61,20,-37,-137,-59,-181,-82
-41,-80,-35,58,-7,-61,14,-43,-143,-65,-193,-82
-41,-80,-35,58,-7,-61,8,-49,-149,-65,-199,-88
-41,-80,-35,58,-7,-61,2,-49,-143,-65,-199,-82
-41,-92,-47,64,-1,-73,2,-49,-143,-65,-193,-82
-41,-92,-47,64,-1,-73,2,-49,-137,-65,-187,-76
-41,-86,-41,64,-7,-67,2,-49,-137,-65,-181,-76
-41,-80,-35,58,-7,-61,2,-55,-143,-65,-175,-82
-41,-80,-35,58,-7,-61,2,-55,-137,-65,-169,-82
-41,-86,-41,64,-7,-67,8,-55,-143,-65,-169,-88
-41,-86,-41,64,-7,-67,8,-55,-143,-65,-169,-82
-41,-80,-35,58,-7,-61,2,-55,-143,-59,-175,-88
-41,-80,-35,58,-7,-61,2,-55,-143,-59,-181,-88
-41,-74,-29,58,-13,-55,2,-55,-143,-59,-187,-94
-41,-74,-29,58,-13,-55,2,-55,-143,-59,-193,-94
-41,-74,-29,58,-13,-55,2,-49,-143,-59,-193,-88
-41,-74,-29,58,-13,-55,2,-49,-143,-65,-193,-88
-41,-74,-29,58,-13,-55,2,-43,-143,-65,-193,-82
-41,-74,-29,58,-13,-55,2,-43,-137,-59,-193,-82
-41,-62,-17,52,-19,-43,2,-31,-125,-59,-181,-82
-41,-74,-29,58,-13,-55,20,-13,-125,-59,-193,-88
-41,-92,-47,64,-1,-73,56,28,-107,-59,-199,-100
-53,-92,-35,70,-13,-67,110,124,-83,-59,-205,-118
-53,-86,-29,70,-19,-61,158,232,-41,-47,-211,-130
-53,-74,-17,64,-19,-49,206,340,13,-17,-199,-118
-53,-32,12,40,-30,-7,224,412,42,7,-187,-106
-53,-15,42,28,-42,10,212,436,90,55,-151,-70
-47,9,60,22,-48,34,212,460,162,108,-103,-34
-24,21,36,5,-19,28,212,526,264,192,-37,8
0,39,30,-19,-19,34,242,706,414,306,40,25
42,99,48,-67,-7,76,272,892,576,456,160,109
84,201,108,-139,-13,154,254,946,714,630,322,229
156,297,138,-223,5,220,194,802,804,822,514,367
222,429,198,-325,11,310,110,460,858,1008,706,529
300,597,288,-451,5,448,14,76,906,1188,922,715
366,747,378,-553,-7,562,-75,-295,972,1422,1150,901
432,879,444,-655,-7,664,-207,-727,1014,1626,1354,1075
480,1005,516,-739,-19,760,-351,-1135,1014,1812,1558,1231
522,1125,594,-823,-24,862,-525,-1453,1086,2010,1750,1393
510,1251,738,-883,-102,994,-717,-1723,1146,2189,1918,1507
486,1425,930,-949,-216,1180,-825,-1909,1188,2345,2050,1603
468,1503,1026,-985,-270,1264,-915,-1921,1308,2518,2187,1681
438,1449,1008,-943,-276,1228,-999,-1867,1458,2656,2241,1705
372,1311,936,-841,-270,1126,-1011,-1867,1452,2584,2163,1609
306,1107,792,-709,-240,952,-933,-1819,1272,2219,1888,1429
246,825,570,-535,-156,700,-843,-1699,966,1638,1462,1159
186,471,276,-325,-36,376,-747,-1537,552,930,910,817
66,165,90,-115,-13,130,-621,-1417,66,204,310,457
-41,-20,12,28,-24,-2,-495,-1321,-389,-347,-163,145
-119,-134,-11,124,-48,-73,-441,-1237,-677,-635,-427,-58
-143,-188,-41,166,-42,-115,-411,-1123,-755,-689,-517,-166
-143,-194,-47,166,-42,-121,-393,-1003,-695,-593,-487,-184
-137,-206,-65,172,-30,-139,-363,-889,-605,-485,-457,-184
-131,-206,-71,166,-24,-139,-357,-775,-557,-437,-451,-190
-107,-194,-83,148,-19,-139,-339,-631,-473,-389,-415,-160
-101,-188,-83,142,-13,-139,-291,-475,-359,-293,-355,-118
-89,-200,-107,142,5,-157,-219,-331,-263,-215,-307,-112
-95,-188,-89,142,-7,-139,-153,-223,-197,-173,-283,-106
-77,-164,-83,118,-1,-127,-123,-169,-161,-143,-265,-88
-47,-158,-107,100,23,-133,-111,-109,-131,-113,-247,-94
-47,-134,-83,88,11,-109,-93,-73,-113,-101,-235,-88
-65,-122,-53,94,-13,-91,-93,-55,-125,-95,-229,-88
-65,-110,-41,88,-19,-79,-81,-49,-131,-95,-229,-88
-41,-110,-65,76,5,-91,-69,-25,-131,-95,-223,-88
-41,-98,-53,70,-1,-79,-57,-8,-119,-95,-217,-88
-41,-104,-59,70,5,-85,-45,-8,-125,-95,-223,-82
-41,-104,-59,70,5,-85,-33,16,-119,-89,-223,-82
-47,-110,-59,76,-1,-85,-27,22,-113,-77,-229,-82
-47,-116,-65,82,5,-91,-21,22,-113,-65,-223,-82
-53,-116,-59,82,-1,-91,-15,22,-113,-71,-229,-82
-47,-116,-65,82,5,-91,-15,22,-113,-71,-223,-82
-53,-116,-59,82,-1,-91,-15,22,-113,-77,-229,-76
-53,-116,-59,82,-1,-91,-15,22,-113,-77,-229,-76
-53,-116,-59,82,-1,-91,-21,22,-119,-77,-223,-76
-47,-116,-65,82,5,-91,-21,22,-119,-71,-223,-76
-47,-110,-59,76,-1,-85,-15,22,-125,-71,-217,-76
-47,-104,-53,76,-1,-79,-15,28,-131,-71,-211,-76
-41,-98,-53,70,-1,-79,-9,22,-125,-71,-211,-82
-41,-98,-53,70,-1,-79,-9,28,-125,-65,-211,-82
-35,-92,-53,64,5,-73,-15,22,-113,-65,-211,-88
-35,-92,-53,64,5,-73,-15,28,-113,-65,-211,-88
-35,-98,-59,64,5,-79,-9,34,-113,-65,-211,-82
-35,-98,-59,64,5,-79,-9,34,-113,-65,-211,-88
-35,-104,-65,70,11,-85,-3,40,-113,-65,-211,-82
-35,-104,-65,70,11,-85,2,40,-113,-59,-205,-82
-41,-104,-59,70,5,-85,2,40,-113,-59,-205,-76
-41,-104,-59,70,5,-85,2,40,-113,-53,-205,-76
-41,-104,-59,70,5,-85,2,40,-113,-53,-205,-76
-41,-104,-59,70,5,-85,2,40,-113,-53,-199,-76
-41,-104,-59,70,5,-85,-3,40,-113,-47,-205,-76
-41,-98,-53,70,-1,-79,-3,40,-113,-53,-199,-76
-41,-98,-53,70,-1,-79,-9,40,-113,-47,-205,-70
-41,-98,-53,70,-1,-79,-9,46,-107,-41,-205,-70
-30,-98,-65,64,11,-85,-9,46,-107,-41,-205,-70
-30,-98,-65,64,11,-85,-3,46,-107,-41,-205,-70
-30,-98,-71,58,17,-85,-3,46,-107,-41,-205,-70
-30,-98,-71,58,17,-85,-3,52,-107,-41,-205,-70
-30,-98,-65,64,11,-85,-3,58,-101,-41,-199,-70
-30,-98,-65,64,11,-85,-3,58,-101,-35,-199,-70
-35,-98,-59,64,5,-79,2,58,-95,-35,-193,-70
-35,-98,-59,64,5,-79,2,58,-95,-35,-193,-70
-30,-98,-65,64,11,-85,2,58,-95,-35,-187,-64
-30,-98,-71,58,17,-85,2,58,-89,-29,-187,-64
-30,-98,-77,58,23,-85,-3,58,-89,-29,-187,-58
-30,-98,-71,58,17,-85,-3,58,-89,-29,-187,-58
-30,-92,-65,58,17,-79,-3,58,-83,-29,-187,-64
-30,-92,-71,52,23,-79,-3,64,-83,-29,-187,-58
-30,-92,-71,52,23,-79,2,64,-77,-35,-187,-64
-30,-92,-71,52,23,-79,2,64,-77,-35,-181,-64
-30,-86,-59,52,11,-73,2,70,-65,-35,-175,-64
-30,-86,-59,52,11,-73,2,70,-65,-29,-175,-58
-30,-80,-53,52,11,-67,2,82,-59,-17,-175,-58
-30,-80,-59,46,17,-67,2,82,-59,-17,-175,-58
-30,-86,-65,52,17,-73,2,76,-59,-17,-169,-58
-30,-86,-59,52,11,-73,2,82,-59,-17,-169,-58
-30,-86,-59,52,11,-73,2,76,-59,-17,-157,-58
-30,-86,-65,52,17,-73,2,82,-59,-11,-157,-52
-30,-92,-71,52,23,-79,2,82,-53,-5,-151,-52
-30,-86,-65,52,17,-73,2,88,-53,-5,-145,-52
-30,-80,-59,46,17,-67,2,88,-53,-5,-145,-52
-30,-80,-59,46,17,-67,2,94,-47,-5,-139,-52
-30,-80,-59,46,17,-67,2,100,-47,7,-133,-52
-24,-80,-65,46,23,-73,2,112,-35,13,-133,-52
-24,-80,-65,46,23,-73,2,118,-29,13,-127,-46
-24,-80,-65,46,23,-73,2,124,-23,13,-127,-34
-24,-68,-53,40,17,-61,2,130,-29,19,-115,-28
-18,-68,-59,34,23,-61,2,130,-17,25,-109,-22
-18,-62,-53,34,17,-55,2,136,-23,31,-109,-16
-18,-62,-53,34,17,-55,2,142,-23,43,-109,-16
-18,-56,-47,28,17,-49,2,148,-11,49,-97,-4
-12,-56,-53,28,23,-55,2,154,1,55,-91,-4
-18,-44,-35,22,11,-37,2,160,13,60,-91,2
-18,-44,-35,22,11,-37,2,166,19,60,-85,8
-18,-44,-35,22,11,-37,2,166,31,60,-79,8
-18,-38,-29,22,5,-31,2,172,42,66,-79,8
-6,-38,-41,22,17,-37,2,184,42,78,-73,19
-6,-32,-35,22,17,-31,2,190,48,96,-67,19
0,-32,-41,22,23,-37,2,202,60,108,-61,31
0,-32,-41,22,23,-37,2,208,66,108,-55,37
6,-20,-35,17,23,-25,2,220,72,120,-43,37
18,-15,-41,5,29,-25,2,232,84,132,-31,43
18,-15,-35,5,29,-19,2,238,102,144,-19,55
24,-9,-29,-7,29,-13,2,244,108,156,-7,61
24,-15,-35,-1,35,-19,-9,250,132,168,11,73
24,-3,-23,-7,29,-7,-9,262,150,180,17,85
30,9,-17,-19,29,-2,-9,262,156,192,23,91
36,15,-17,-25,29,-2,-9,274,168,204,28,97
42,33,-5,-37,29,10,-9,274,180,222,34,103
48,39,-5,-43,29,10,-9,286,192,246,58,109
48,45,1,-43,29,16,-15,292,222,252,64,121
48,51,7,-49,23,22,-21,298,228,270,70,127
48,63,12,-55,17,34,-21,304,258,288,82,139
48,69,12,-55,17,40,-27,310,270,300,100,151
54,87,24,-67,11,58,-33,322,282,312,124,169
60,111,42,-85,5,76,-33,328,288,336,136,181
60,117,48,-85,5,82,-39,340,312,354,154,193
66,129,54,-97,5,94,-39,346,324,372,166,211
72,147,66,-109,-1,106,-39,346,330,378,172,211
72,147,66,-109,-1,106,-39,346,342,390,190,229
72,153,72,-109,-1,112,-33,346,354,396,184,229
84,165,72,-121,5,118,-33,352,360,414,196,241
84,171,78,-127,-1,124,-33,352,378,426,214,247
84,177,84,-127,-1,130,-33,352,378,438,226,253
84,189,96,-133,-7,142,-33,346,390,438,232,247
84,195,102,-139,-13,148,-39,346,390,444,238,247
84,201,108,-139,-13,154,-39,358,396,456,250,259
84,207,114,-145,-19,160,-39,358,402,468,256,271
90,207,108,-145,-13,160,-33,364,408,486,268,283
90,213,114,-151,-13,166,-33,364,414,486,268,295
90,225,126,-157,-19,178,-33,358,426,486,268,289
90,225,126,-157,-19,178,-27,358,426,492,268,301
90,225,132,-157,-19,184,-27,346,432,492,262,295
90,231,138,-163,-19,190,-27,346,432,492,262,295
90,231,138,-163,-19,190,-15,346,438,492,268,289
78,231,150,-157,-24,196,-9,334,438,492,268,289
