,,,,,,,,,,,
2019-09-01 15:33:06,,,,,,,,,,,
,,,,,,,,,,,
I,II,III,aVR,aVL,aVF,V1,V2,V3,V4,V5,V6
-129,-256,-129,195,5,-196,-48,36,54,-68,-28,6
-129,-256,-129,195,5,-196,-48,36,54,-68,-28,6
-129,-256,-129,195,5,-196,-48,36,54,-68,-28,6
-129,-256,-129,195,5,-196,-48,36,54,-68,-28,6
-117,-256,-135,183,11,-196,-48,36,54,-74,-28,6
-111,-256,-141,183,17,-202,-48,36,54,-74,-28,6
-99,-250,-147,171,28,-202,-48,36,54,-80,-28,6
-93,-250,-153,171,28,-202,-48,36,54,-80,-28,6
-93,-250,-153,171,28,-202,-48,42,48,-80,-34,-6
-93,-250,-153,171,28,-202,-48,42,48,-80,-34,-12
-93,-250,-153,171,28,-202,-48,48,42,-80,-40,-24
-93,-250,-153,171,28,-202,-48,48,42,-80,-40,-30
-93,-244,-147,165,28,-196,-54,48,42,-86,-46,-36
-93,-244,-147,165,28,-196,-54,48,42,-86,-46,-36
-93,-238,-141,165,28,-190,-60,48,42,-92,-52,-42
-93,-238,-141,165,28,-190,-60,48,42,-92,-52,-42
-99,-244,-141,171,23,-196,-66,42,36,-98,-58,-48
-105,-250,-141,177,23,-196,-66,42,36,-98,-58,-54
-111,-256,-141,183,17,-202,-72,36,30,-104,-64,-60
-117,-256,-141,189,17,-202,-72,36,30,-104,-64,-66
-123,-256,-135,189,11,-202,-72,42,36,-104,-64,-66
-123,-256,-135,189,11,-202,-72,42,36,-104,-64,-66
-129,-256,-129,195,5,-196,-72,48,42,-104,-64,-66
-129,-256,-129,195,5,-196,-72,48,42,-104,-64,-66
-123,-256,-135,189,11,-202,-66,54,48,-98,-58,-60
-117,-256,-141,189,17,-202,-66,54,54,-92,-58,-54
-111,-256,-147,183,23,-208,-60,60,60,-86,-52,-48
-105,-256,-153,183,28,-208,-60,60,66,-80,-52,-42
-99,-256,-153,177,28,-208,-60,60,66,-80,-52,-42
-99,-250,-147,171,28,-202,-60,60,66,-80,-52,-42
-93,-244,-147,165,28,-196,-60,60,66,-80,-52,-42
-93,-238,-141,165,28,-190,-60,60,66,-80,-52,-42
-99,-244,-141,171,23,-196,-60,60,72,-80,-52,-36
-105,-244,-135,171,17,-190,-60,60,72,-80,-52,-36
-111,-250,-135,177,17,-196,-60,60,78,-80,-52,-30
-117,-250,-129,183,11,-190,-60,60,78,-80,-52,-30
-111,-250,-135,177,17,-196,-60,66,78,-74,-46,-30
-111,-250,-135,177,17,-196,-60,66,78,-68,-46,-30
-105,-250,-141,177,23,-196,-60,72,78,-62,-40,-30
-105,-250,-141,177,23,-196,-60,72,78,-56,-40,-30
-105,-238,-129,171,17,-184,-60,66,78,-56,-46,-24
-105,-232,-123,165,11,-178,-60,66,78,-56,-46,-24
-105,-220,-111,159,5,-166,-60,60,78,-56,-52,-18
-105,-214,-105,159,5,-160,-60,60,78,-56,-52,-18
-111,-226,-111,165,5,-172,-60,60,78,-62,-46,-24
-117,-232,-111,171,-1,-172,-60,60,78,-62,-46,-24
-123,-244,-117,183,-1,-184,-60,60,78,-68,-40,-30
-129,-250,-117,189,-1,-184,-60,60,78,-68,-40,-30
-105,-226,-117,165,11,-172,-54,66,84,-62,-34,-24
-87,-208,-117,147,17,-166,-54,72,90,-56,-28,-18
-63,-184,-117,123,28,-154,-48,78,96,-50,-22,-12
-45,-166,-117,105,28,-142,-48,84,102,-44,-16,-6
-57,-178,-117,117,28,-148,-48,78,96,-50,-22,-12
-63,-184,-117,123,28,-154,-48,78,96,-50,-28,-12
-75,-196,-117,135,23,-160,-48,72,90,-56,-34,-18
-81,-202,-117,141,23,-160,-48,72,90,-56,-40,-18
-87,-208,-117,147,17,-166,-54,66,84,-62,-40,-24
-87,-214,-123,147,23,-172,-54,66,84,-62,-40,-24
-93,-220,-123,153,17,-172,-60,60,78,-68,-40,-30
-93,-226,-129,159,23,-178,-60,60,78,-68,-40,-30
-87,-220,-129,153,23,-178,-54,54,72,-68,-46,-30
-87,-220,-129,153,23,-178,-54,54,72,-68,-46,-30
-81,-214,-129,147,28,-172,-48,48,66,-68,-52,-30
-81,-214,-129,147,28,-172,-48,48,66,-68,-52,-30
-81,-208,-123,141,23,-166,-42,54,72,-68,-52,-30
-81,-208,-123,141,23,-166,-42,54,72,-68,-52,-30
-81,-202,-117,141,23,-160,-36,60,78,-68,-52,-30
-81,-202,-117,141,23,-160,-36,60,78,-68,-52,-30
-87,-214,-123,147,23,-172,-42,54,72,-74,-64,-36
-87,-220,-129,153,23,-178,-42,48,72,-74,-70,-36
-93,-232,-135,159,23,-184,-48,42,66,-80,-82,-42
-93,-238,-141,165,28,-190,-48,36,66,-80,-88,-42
-87,-232,-141,159,28,-190,-42,42,66,-80,-94,-36
-87,-226,-135,153,28,-184,-36,42,66,-80,-94,-36
-81,-220,-135,147,28,-178,-30,48,66,-80,-100,-30
-81,-214,-129,147,28,-172,-24,48,66,-80,-100,-30
-87,-226,-135,153,28,-184,-30,42,60,-86,-106,-30
-93,-232,-135,159,23,-184,-30,42,60,-86,-112,-30
-99,-244,-141,171,23,-196,-36,36,54,-92,-118,-30
-105,-250,-141,177,23,-196,-36,36,54,-92,-124,-30
-105,-244,-135,171,17,-190,-42,30,54,-98,-130,-30
-105,-244,-135,171,17,-190,-42,30,54,-98,-130,-30
-105,-238,-129,171,17,-184,-48,24,54,-104,-136,-30
-105,-238,-129,171,17,-184,-48,24,54,-104,-136,-30
-111,-244,-129,177,11,-190,-54,18,48,-110,-148,-36
-111,-244,-129,177,11,-190,-54,18,42,-116,-154,-36
-117,-250,-129,183,11,-190,-60,12,36,-122,-166,-42
-117,-250,-129,183,11,-190,-60,12,30,-128,-172,-42
-117,-250,-129,183,11,-190,-60,12,30,-122,-184,-36
-117,-250,-129,183,11,-190,-60,12,30,-122,-190,-36
-117,-250,-129,183,11,-190,-60,12,30,-116,-196,-30
-117,-250,-129,183,11,-190,-60,12,30,-116,-202,-30
-111,-244,-129,177,11,-190,-60,12,30,-122,-208,-24
-105,-238,-129,171,17,-184,-60,12,30,-122,-214,-24
-99,-232,-129,165,17,-184,-60,12,30,-128,-220,-18
-93,-226,-129,159,23,-178,-60,12,30,-128,-226,-18
-81,-220,-135,147,28,-178,-54,18,36,-122,-220,-12
-75,-214,-135,141,28,-178,-48,24,42,-116,-220,-6
-63,-208,-141,135,28,-178,-42,30,48,-110,-214,0
-57,-202,-141,129,34,-172,-36,36,54,-104,-214,6
-69,-214,-141,141,28,-178,-42,30,48,-110,-226,0
-81,-220,-135,147,28,-178,-42,24,42,-116,-232,-6
-93,-232,-135,159,23,-184,-48,18,36,-122,-244,-12
-105,-238,-129,171,17,-184,-48,12,30,-128,-250,-18
-99,-232,-129,165,17,-184,-54,6,24,-134,-256,-18
-99,-226,-123,159,17,-178,-54,6,24,-134,-262,-18
-93,-220,-123,153,17,-172,-60,6,24,-140,-268,-18
-93,-214,-117,153,17,-166,-60,6,24,-140,-274,-18
-93,-220,-123,153,17,-172,-54,6,24,-134,-268,-12
-93,-220,-123,153,17,-172,-54,6,30,-134,-268,-12
-93,-226,-129,159,23,-178,-48,12,36,-128,-262,-6
-93,-226,-129,159,23,-178,-48,12,42,-128,-262,-6
-93,-226,-129,159,23,-178,-48,6,36,-128,-268,-6
-93,-226,-129,159,23,-178,-48,6,36,-128,-268,-6
-93,-226,-129,159,23,-178,-48,6,30,-128,-274,-6
-93,-226,-129,159,23,-178,-48,6,30,-128,-274,-6
-93,-232,-135,159,23,-184,-48,6,30,-134,-274,0
-93,-232,-135,159,23,-184,-48,6,30,-134,-274,0
-93,-238,-141,165,28,-190,-48,12,30,-140,-274,6
-93,-238,-141,165,28,-190,-48,12,30,-140,-274,6
-105,-244,-135,171,17,-190,-54,6,24,-146,-280,0
-111,-250,-135,177,17,-196,-54,6,24,-146,-280,-6
-123,-256,-129,189,5,-196,-60,6,24,-152,-286,-12
-123,-256,-129,189,5,-196,-60,6,24,-152,-286,-18
-123,-250,-123,183,5,-190,-60,6,24,-152,-292,-18
-117,-244,-123,177,5,-184,-60,6,24,-152,-292,-24
-111,-232,-117,171,5,-178,-60,6,24,-152,-298,-24
-105,-232,-123,165,11,-178,-54,6,24,-152,-298,-18
-93,-226,-129,159,23,-178,-48,6,24,-140,-292,-12
-99,-232,-129,165,17,-184,-42,12,24,-140,-292,-12
-87,-226,-135,153,28,-184,-36,18,24,-140,-292,-12
-81,-226,-141,153,28,-184,-30,24,24,-140,-292,-12
-93,-244,-147,165,28,-196,-36,18,24,-146,-298,-24
-111,-250,-135,177,17,-196,-42,6,19,-158,-304,-30
-123,-256,-135,189,11,-202,-48,6,13,-164,-310,-42
-135,-274,-141,207,5,-214,-54,6,13,-170,-322,-48
-129,-256,-129,195,5,-196,-48,6,19,-164,-316,-42
-105,-244,-135,171,17,-190,-48,6,24,-158,-310,-36
-87,-226,-135,153,28,-184,-42,6,24,-152,-304,-24
-75,-214,-135,141,28,-178,-42,12,30,-146,-292,-12
-75,-208,-129,141,28,-172,-36,12,30,-140,-292,-12
-75,-208,-129,141,28,-172,-36,12,30,-140,-292,-12
-69,-208,-135,135,28,-172,-24,18,36,-134,-298,-6
-69,-196,-123,129,28,-160,-18,30,42,-128,-286,0
-69,-178,-105,123,23,-142,-12,36,48,-116,-286,-6
-75,-178,-99,123,17,-142,-12,36,48,-116,-286,-6
-81,-172,-87,123,5,-130,-12,42,48,-116,-286,-12
-87,-166,-75,123,-1,-124,-7,48,60,-116,-280,-6
-93,-172,-75,129,-7,-124,-1,54,54,-110,-280,0
-105,-172,-63,135,-19,-118,-1,54,54,-110,-280,0
-99,-178,-75,135,-7,-130,11,60,54,-110,-286,0
-93,-184,-87,135,-1,-136,23,60,54,-104,-286,0
-87,-172,-81,129,-1,-130,23,72,60,-104,-286,6
-81,-166,-81,123,5,-124,23,72,60,-104,-286,6
-69,-166,-93,117,17,-130,29,84,66,-104,-286,6
-63,-160,-93,111,17,-130,29,84,66,-104,-286,0
-63,-160,-93,111,17,-130,17,84,66,-98,-280,6
-63,-154,-87,105,17,-124,17,90,72,-98,-274,6
-63,-154,-87,105,17,-124,17,90,78,-92,-268,12
-69,-136,-63,99,-1,-100,11,96,84,-86,-256,24
-81,-136,-51,105,-13,-94,-7,84,78,-80,-256,24
-81,-136,-51,105,-13,-94,-18,72,78,-80,-262,30
-87,-136,-45,111,-19,-94,-36,66,72,-80,-256,30
-87,-136,-45,111,-19,-94,-54,60,72,-74,-262,36
-75,-124,-45,99,-13,-88,-60,54,66,-74,-256,36
-69,-112,-40,87,-13,-76,-66,48,66,-80,-256,42
-63,-100,-40,81,-13,-70,-72,42,54,-86,-250,36
-51,-94,-40,69,-1,-70,-72,42,54,-92,-250,36
-45,-88,-40,63,-1,-64,-72,36,54,-86,-238,48
-33,-82,-45,57,11,-64,-84,30,54,-86,-238,48
-33,-82,-45,57,11,-64,-96,12,48,-86,-238,54
-33,-88,-51,57,11,-70,-102,6,42,-86,-244,54
-39,-118,-75,75,23,-100,-96,6,36,-92,-244,54
-39,-136,-93,87,28,-118,-102,6,30,-98,-250,42
-51,-160,-105,105,28,-136,-96,6,30,-92,-250,42
-51,-172,-117,111,28,-148,-90,6,36,-86,-250,42
-51,-166,-111,105,28,-142,-90,18,36,-92,-256,36
-57,-166,-105,111,28,-136,-84,18,30,-92,-262,30
-51,-166,-111,105,28,-142,-90,18,30,-110,-262,24
-57,-184,-123,117,28,-154,-84,18,24,-110,-274,12
-81,-196,-111,135,17,-154,-78,12,24,-116,-286,6
-87,-208,-117,147,17,-166,-78,6,19,-128,-298,-6
-87,-208,-117,147,17,-166,-84,6,19,-128,-310,-6
-93,-220,-123,153,17,-172,-96,-5,7,-152,-322,-24
-117,-250,-129,183,11,-190,-90,-5,1,-158,-328,-30
-123,-256,-135,189,11,-202,-90,-11,1,-158,-328,-30
-141,-268,-129,207,-1,-202,-90,-11,-5,-170,-322,-30
-147,-274,-129,213,-7,-208,-96,-17,-11,-176,-328,-36
-123,-256,-129,189,5,-196,-96,-23,-17,-176,-334,-30
-117,-244,-123,177,5,-184,-96,-23,-17,-176,-334,-30
-105,-238,-129,171,17,-184,-96,-17,-17,-164,-334,-24
-93,-226,-129,159,23,-178,-96,-17,-17,-164,-328,-24
-75,-226,-147,147,28,-190,-96,-11,-17,-158,-322,-24
-93,-220,-123,153,17,-172,-90,-11,-17,-158,-322,-24
-87,-214,-123,147,23,-172,-90,-5,-11,-152,-316,-24
-81,-208,-123,141,23,-166,-96,-5,-11,-146,-316,-18
-87,-214,-123,147,23,-172,-96,-5,-11,-146,-310,-18
-87,-220,-129,153,23,-178,-96,1,-11,-146,-310,-18
-93,-238,-141,165,28,-190,-96,1,-11,-146,-310,-18
-105,-244,-135,171,17,-190,-96,-5,-11,-146,-310,-18
-99,-232,-129,165,17,-184,-102,-11,-11,-152,-316,-24
-99,-226,-123,159,17,-178,-102,-5,-11,-152,-316,-24
-93,-214,-117,153,17,-166,-102,-11,-11,-152,-316,-30
-93,-208,-111,147,11,-160,-96,-11,-11,-146,-316,-30
-69,-208,-135,135,28,-172,-84,1,1,-146,-292,-18
-69,-214,-141,141,28,-178,-78,1,1,-146,-304,-18
-81,-214,-129,147,28,-172,-78,6,1,-146,-304,-30
-117,-226,-105,171,-1,-166,-72,12,19,-140,-304,-18
-129,-238,-105,183,-7,-172,-42,84,42,-128,-304,-18
-129,-226,-93,177,-13,-160,-7,174,108,-92,-286,-6
-99,-172,-69,135,-13,-124,17,246,192,-8,-238,24
-51,-88,-40,69,-7,-64,47,348,306,81,-160,84
-3,-5,2,-3,-1,-5,107,468,450,231,-52,155
20,103,86,-56,-31,91,149,594,618,423,85,251
20,223,194,-122,-79,211,167,636,804,645,247,377
50,373,314,-212,-127,343,137,540,960,855,427,515
98,541,440,-320,-169,487,41,384,1104,1065,601,677
158,643,476,-398,-157,559,-132,204,1230,1269,751,797
206,685,470,-446,-133,577,-360,-47,1266,1431,865,899
260,757,494,-506,-115,631,-624,-389,1254,1557,973,1001
296,865,560,-578,-127,709,-870,-713,1230,1659,1057,1091
320,889,560,-602,-115,721,-1038,-965,1182,1659,1057,1091
308,757,446,-530,-61,601,-1170,-1187,1044,1455,901,971
260,505,236,-386,17,373,-1278,-1367,822,1113,661,773
218,277,56,-242,76,169,-1392,-1571,510,753,379,551
140,145,-4,-140,64,73,-1470,-1751,150,375,97,365
80,25,-51,-50,64,-17,-1536,-1859,-215,-14,-142,215
44,-100,-153,21,94,-124,-1560,-1871,-581,-368,-352,90
-9,-250,-237,129,106,-244,-1476,-1793,-917,-692,-520,-42
-51,-352,-297,201,118,-328,-1326,-1655,-1109,-890,-634,-120
-69,-370,-297,219,106,-334,-1158,-1445,-1061,-890,-646,-138
-93,-376,-279,237,88,-328,-996,-1205,-869,-770,-586,-150
-111,-388,-279,243,76,-334,-858,-971,-695,-656,-544,-162
-63,-376,-309,219,118,-346,-744,-797,-581,-584,-526,-174
-39,-352,-309,195,130,-334,-648,-695,-503,-530,-484,-162
-9,-316,-303,165,142,-310,-552,-563,-407,-452,-436,-144
20,-256,-279,117,148,-268,-444,-413,-305,-374,-388,-120
20,-250,-267,111,136,-262,-342,-281,-227,-314,-364,-108
-9,-256,-249,135,112,-256,-276,-197,-167,-290,-334,-96
-21,-262,-243,141,100,-256,-228,-125,-125,-266,-322,-84
-51,-274,-225,165,76,-256,-198,-89,-95,-248,-322,-84
-81,-280,-201,183,52,-244,-192,-71,-71,-236,-316,-84
-99,-280,-183,189,34,-238,-162,-47,-53,-218,-298,-78
-111,-256,-147,183,23,-208,-150,-17,-35,-200,-298,-78
-99,-214,-111,153,11,-166,-126,6,-5,-170,-274,-72
-81,-196,-111,135,17,-154,-84,54,24,-134,-232,-54
-93,-208,-111,147,11,-160,-72,66,24,-134,-226,-48
-93,-214,-117,153,17,-166,-60,84,24,-134,-220,-48
-99,-226,-123,159,17,-178,-60,90,24,-140,-226,-42
-93,-226,-129,159,23,-178,-54,90,24,-134,-226,-42
-81,-214,-129,147,28,-172,-54,90,24,-134,-220,-30
-75,-196,-117,135,23,-160,-54,84,24,-128,-208,-24
-63,-184,-117,123,28,-154,-48,84,24,-128,-202,-12
-57,-172,-111,111,28,-142,-48,90,30,-116,-196,-6
-63,-172,-105,117,23,-142,-48,102,30,-104,-190,0
-63,-166,-99,111,23,-136,-36,108,42,-98,-190,6
-57,-160,-99,105,23,-130,-30,126,42,-86,-166,6
-57,-160,-99,105,23,-130,-24,132,48,-86,-166,6
-69,-166,-93,117,17,-130,-30,126,48,-92,-172,6
-69,-166,-93,117,17,-130,-36,126,42,-92,-172,6
-75,-172,-93,123,11,-136,-42,108,42,-98,-166,0
-75,-166,-87,117,11,-130,-48,108,48,-98,-166,-6
-81,-172,-87,123,5,-130,-54,114,48,-98,-166,-12
-87,-178,-87,129,5,-136,-54,114,48,-86,-166,-18
-93,-184,-87,135,-1,-136,-60,114,48,-86,-166,-24
-93,-184,-87,135,-1,-136,-60,114,54,-86,-160,-24
-87,-178,-87,129,5,-136,-54,132,54,-74,-154,-24
-87,-178,-87,129,5,-136,-48,138,66,-68,-142,-24
-81,-172,-87,123,5,-130,-42,144,66,-62,-136,-18
-81,-172,-87,123,5,-130,-36,144,72,-62,-130,-18
-87,-178,-87,129,5,-136,-42,132,72,-62,-136,-24
-87,-178,-87,129,5,-136,-48,132,72,-62,-130,-12
-93,-184,-87,135,-1,-136,-48,126,72,-68,-136,-18
-99,-184,-81,141,-7,-136,-54,126,72,-74,-142,-18
-93,-172,-75,129,-7,-124,-60,132,72,-68,-136,-18
-81,-160,-75,117,-1,-118,-60,138,78,-62,-130,-18
-63,-148,-81,105,11,-118,-66,138,84,-62,-124,-12
-63,-148,-81,105,11,-118,-60,138,90,-50,-118,-12
-69,-136,-63,99,-1,-100,-54,144,96,-38,-106,-6
-63,-124,-57,93,-1,-94,-48,150,96,-32,-100,-6
-51,-106,-51,75,5,-82,-42,156,96,-26,-94,0
-45,-88,-40,63,-1,-64,-36,156,102,-14,-82,6
-39,-82,-40,57,5,-64,-42,162,114,-14,-70,12
-33,-82,-45,57,11,-64,-42,162,120,-8,-70,18
-9,-64,-51,33,23,-58,-48,174,126,-8,-58,36
-3,-58,-51,27,28,-58,-48,180,126,-2,-58,36
-21,-70,-45,45,17,-58,-48,174,120,4,-52,30
-27,-76,-45,51,11,-64,-48,186,126,10,-52,30
-39,-82,-40,57,5,-64,-42,180,126,16,-52,42
-45,-88,-40,63,-1,-64,-42,180,132,21,-46,48
-45,-106,-57,75,11,-82,-48,180,126,21,-46,48
-39,-94,-51,63,11,-76,-48,186,138,21,-46,48
-33,-88,-51,57,11,-70,-54,192,150,21,-34,54
-27,-76,-45,51,11,-64,-66,198,156,21,-22,60
-27,-64,-40,45,5,-52,-60,204,162,39,-16,66
-27,-52,-34,39,-1,-40,-60,204,162,45,-10,72
-21,-34,-22,27,-1,-29,-54,210,168,57,-4,78
-21,-34,-22,27,-1,-29,-42,222,174,69,8,96
-15,-22,-16,15,-1,-29,-48,222,186,81,20,102
-15,-17,-10,15,-7,-23,-60,228,204,87,26,102
-15,-17,-4,9,-7,-17,-72,228,216,93,44,108
-3,-17,-10,3,5,-17,-72,228,222,105,49,119
3,-11,-10,-3,5,-11,-78,234,234,117,49,119
3,1,2,-3,-1,1,-78,234,240,123,67,125
15,13,2,-8,5,7,-90,228,252,129,79,131
20,19,2,-14,11,7,-96,228,258,141,91,143
15,19,8,-8,5,13,-102,234,264,159,103,155
20,31,14,-20,5,19,-102,228,264,171,115,161
20,31,14,-20,5,19,-102,228,276,177,133,179
20,43,26,-26,-1,31,-96,228,288,189,145,191
20,55,32,-32,-1,43,-108,228,306,207,163,191
20,73,44,-44,-7,61,-120,222,312,225,175,203
44,97,44,-68,5,73,-132,216,324,243,199,215
50,121,62,-86,-1,91,-138,210,336,261,217,227
62,145,74,-104,-1,109,-138,204,354,285,235,257
68,145,68,-104,5,109,-156,210,372,303,253,263
74,163,80,-116,5,121,-162,204,390,327,283,287
98,187,80,-140,17,133,-162,198,402,339,289,299
98,193,86,-146,11,139,-162,192,414,345,295,305
98,193,86,-146,11,139,-168,198,426,357,307,317
92,187,86,-140,11,139,-168,198,426,369,313,323
110,217,98,-164,11,157,-168,198,432,375,325,323
110,217,98,-164,11,157,-186,186,438,393,337,329
104,223,116,-164,-1,175,-198,180,444,393,343,335
98,229,128,-164,-7,181,-210,174,444,411,349,341
92,235,140,-164,-19,193,-222,168,450,411,355,347
110,247,134,-182,-7,193,-228,174,462,429,373,359
116,265,146,-194,-7,211,-222,174,462,441,379,365
128,271,140,-200,-1,211,-216,180,468,447,391,377
134,271,134,-206,5,205,-216,174,468,459,403,389
128,265,134,-200,5,205,-222,168,462,453,409,383
122,265,140,-194,-1,205,-228,162,450,453,409,383
116,259,140,-188,-7,205,-234,150,444,447,415,383
116,253,134,-188,-1,199,-240,150,450,447,421,389
110,241,128,-176,-1,187,-246,144,444,441,415,383
104,235,128,-170,-7,187,-246,138,432,429,403,371
92,223,128,-158,-13,181,-246,132,420,423,397,365
86,223,128,-152,-13,175,-246,132,414,417,391,359
92,235,140,-164,-19,193,-246,126,414,411,397,359
104,241,134,-176,-7,193,-228,126,408,417,385,359
110,247,134,-182,-7,193,-216,132,408,405,385,359
104,241,134,-176,-7,193,-204,126,396,399,373,353
92,223,122,-158,-7,175,-204,120,390,387,367,341
80,211,122,-146,-13,169,-204,132,384,375,355,335
74,193,110,-134,-13,151,-210,126,378,357,343,317
56,169,104,-110,-19,139,-198,126,366,339,325,305
50,151,92,-98,-13,121,-186,126,354,333,313,287
50,151,92,-98,-13,121,-180,126,342,309,301,275
38,139,92,-86,-19,115,-162,126,324,297,289,263
20,127,98,-74,-31,115,-156,114,300,279,271,245
20,127,98,-74,-31,115,-144,120,288,261,253,233
20,115,86,-68,-25,103,-138,114,276,249,241,221
20,103,74,-62,-19,91,-132,114,264,225,223,191
20,97,80,-50,-31,85,-126,102,246,201,199,167
20,85,68,-44,-25,73,-114,102,234,195,187,161
20,85,68,-44,-25,73,-108,102,228,177,175,149
3,61,62,-26,-31,61,-102,102,216,159,163,143
-9,37,50,-8,-31,43,-102,102,198,141,151,131
-21,13,38,-3,-31,25,-96,96,180,117,139,119
-27,1,32,3,-31,13,-96,84,156,93,115,108
-33,-17,14,21,-25,-5,-96,54,126,69,91,90
-45,-22,14,33,-31,-11,-96,42,120,45,67,72
-33,-17,8,21,-25,-11,-84,48,108,39,67,66
-21,-17,8,9,-13,-5,-78,48,108,39,55,66
-15,-17,-4,9,-7,-17,-72,48,96,33,49,66
-9,-17,-16,9,-1,-23,-84,42,84,27,49,66
-15,-28,-22,21,-1,-29,-78,48,78,21,44,54
-27,-34,-16,27,-7,-29,-78,36,72,16,38,48
-27,-46,-28,33,-1,-34,-72,36,66,10,44,54
-27,-58,-40,39,5,-46,-72,30,66,-2,44,48
-51,-76,-34,63,-13,-52,-78,6,48,-14,20,36
-51,-76,-34,63,-13,-52,-78,6,30,-20,20,30
-51,-76,-34,63,-13,-52,-84,1,24,-38,2,24
-39,-70,-40,51,-1,-52,-84,-5,13,-44,2,24
-39,-76,-40,57,-1,-58,-84,-5,13,-44,-4,18
-39,-76,-40,57,-1,-58,-90,-5,13,-50,-4,12
-45,-88,-40,63,-1,-64,-96,-11,7,-50,-4,6
-45,-94,-45,69,5,-70,-108,-17,7,-56,-10,-6
-45,-94,-45,69,5,-70,-102,-17,7,-56,-10,-12
-45,-106,-57,75,11,-82,-102,-11,1,-62,-10,-12
-51,-100,-45,75,-1,-76,-96,-5,1,-62,-10,-6
-33,-88,-51,57,11,-70,-90,1,-5,-68,-4,0
-39,-100,-57,69,11,-82,-96,-11,-17,-68,-16,-12
-45,-106,-57,75,11,-82,-96,-17,-23,-74,-16,-24
-57,-130,-69,93,11,-100,-108,-23,-35,-80,-28,-36
-57,-136,-75,93,11,-106,-108,-23,-35,-86,-28,-36
-63,-130,-63,93,5,-100,-114,-17,-35,-86,-28,-36
-63,-136,-69,99,5,-106,-114,-23,-35,-80,-28,-36
-69,-130,-57,99,-1,-94,-120,-17,-41,-80,-28,-36
-57,-130,-69,93,11,-100,-120,-17,-41,-80,-34,-42
-63,-124,-57,93,-1,-94,-114,-17,-53,-92,-34,-42
-63,-130,-63,93,5,-100,-114,-11,-53,-92,-40,-48
-57,-124,-63,87,5,-94,-108,-11,-47,-92,-40,-48
-45,-124,-75,81,17,-100,-114,-11,-47,-92,-40,-48
-51,-118,-63,81,11,-94,-126,-5,-47,-86,-40,-54
-51,-118,-63,81,11,-94,-114,-5,-47,-86,-40,-54
-57,-124,-63,87,5,-94,-114,-5,-53,-92,-40,-60
-51,-124,-69,87,11,-100,-108,-5,-53,-92,-40,-60
-57,-124,-63,87,5,-94,-108,1,-53,-92,-34,-60
-57,-130,-69,93,11,-100,-108,1,-53,-86,-34,-54
-63,-130,-63,93,5,-100,-108,6,-47,-92,-34,-54
-75,-136,-57,105,-7,-100,-108,6,-47,-92,-34,-60
-75,-130,-51,99,-7,-94,-114,1,-47,-86,-34,-60
-75,-130,-51,99,-7,-94,-120,1,-47,-86,-34,-60
-69,-124,-51,93,-7,-88,-126,-5,-53,-80,-34,-60
-57,-124,-63,87,5,-94,-132,-5,-53,-80,-34,-60
-57,-124,-63,87,5,-94,-132,1,-35,-68,-28,-54
-57,-118,-57,87,5,-88,-126,6,-29,-68,-16,-54
-51,-118,-63,81,11,-94,-120,6,-23,-68,-10,-42
-51,-118,-63,81,11,-94,-114,18,-23,-68,-4,-42
-45,-112,-63,75,11,-88,-120,12,-29,-62,-10,-42
-45,-112,-63,75,11,-88,-120,12,-23,-62,-4,-42
-45,-100,-51,69,5,-76,-126,6,-29,-56,-10,-42
-45,-94,-45,69,5,-70,-126,6,-29,-56,-4,-36
-45,-94,-45,69,5,-70,-126,6,-29,-44,2,-30
-51,-94,-40,69,-1,-70,-126,6,-29,-44,2,-30
-51,-94,-40,69,-1,-70,-126,6,-29,-38,8,-30
-51,-94,-40,69,-1,-70,-126,6,-29,-32,14,-30
-45,-76,-40,57,-7,-52,-126,6,-17,-38,14,-24
-45,-76,-40,57,-7,-52,-126,6,-17,-38,14,-24
-57,-70,-22,63,-19,-40,-126,1,-23,-44,14,-24
-57,-70,-22,63,-19,-40,-126,1,-23,-50,20,-24
-51,-82,-40,63,-7,-58,-126,1,-23,-44,20,-18
-51,-82,-40,63,-7,-58,-126,1,-23,-44,20,-18
-33,-76,-40,51,5,-58,-126,1,-23,-38,20,-6
-33,-70,-40,51,5,-52,-120,6,-17,-32,26,-6
-27,-58,-40,39,5,-46,-120,6,-11,-26,32,-6
-33,-58,-34,45,-1,-40,-120,6,-11,-26,32,-6
-27,-46,-28,33,-1,-34,-126,6,-5,-20,38,-12
-27,-40,-22,33,-7,-29,-126,6,-5,-20,38,-12
-33,-52,-28,39,-7,-34,-126,6,-11,-26,32,-12
-33,-58,-34,45,-1,-40,-126,1,-17,-26,32,-18
-45,-70,-34,57,-7,-46,-126,-5,-35,-38,26,-24
-51,-70,-28,57,-13,-46,-126,-5,-41,-38,26,-30
-57,-76,-28,63,-19,-46,-126,-11,-41,-38,32,-24
-57,-82,-34,69,-13,-52,-126,-11,-41,-32,32,-24
-57,-88,-40,69,-13,-58,-132,-17,-47,-32,38,-18
-57,-94,-40,75,-7,-64,-132,-11,-47,-32,32,-18
-45,-82,-40,63,-1,-58,-126,-5,-41,-26,38,-18
-33,-64,-40,45,-1,-46,-126,-5,-41,-26,38,-24
-15,-46,-40,27,11,-40,-114,1,-35,-20,44,-30
-3,-28,-34,15,11,-29,-114,6,-35,-26,44,-30
-21,-40,-28,27,-1,-29,-114,6,-47,-38,38,-24
-21,-46,-34,33,5,-34,-114,6,-53,-38,32,-24
-27,-52,-34,39,-1,-40,-114,-5,-53,-44,26,-24
-27,-46,-28,33,-1,-34,-114,-5,-59,-44,26,-24
-39,-64,-34,51,-7,-46,-120,-11,-53,-44,26,-24
-39,-76,-40,57,-1,-58,-120,-11,-59,-44,20,-30
-39,-82,-40,57,5,-64,-126,-17,-59,-50,20,-36
-39,-76,-40,57,-1,-58,-126,-17,-59,-50,14,-42
-51,-82,-40,63,-7,-58,-126,-23,-65,-56,14,-48
-63,-94,-40,75,-13,-64,-126,-23,-65,-62,14,-60
-75,-100,-34,87,-25,-64,-126,-29,-77,-68,14,-66
-69,-94,-34,81,-19,-58,-126,-29,-89,-68,14,-72
-57,-88,-40,69,-13,-58,-120,-23,-83,-68,20,-66
-57,-88,-40,69,-13,-58,-120,-17,-83,-74,14,-60
-51,-94,-40,69,-1,-70,-126,-11,-83,-74,20,-54
-39,-88,-45,63,5,-70,-126,-11,-89,-74,20,-48
-39,-82,-40,57,5,-64,-126,-11,-83,-68,20,-60
-39,-76,-40,57,-1,-58,-126,-11,-77,-68,20,-60
-33,-64,-40,45,-1,-46,-126,-5,-71,-62,20,-66
-33,-64,-40,45,-1,-46,-126,-5,-77,-68,20,-66
-39,-82,-40,57,5,-64,-114,-17,-83,-68,14,-66
-39,-82,-40,57,5,-64,-114,-17,-95,-68,14,-66
-33,-88,-51,57,11,-70,-108,-23,-101,-74,14,-66
-39,-88,-45,63,5,-70,-120,-35,-95,-74,8,-72
-45,-88,-40,63,-1,-64,-126,-41,-101,-80,2,-78
-45,-88,-40,63,-1,-64,-132,-35,-107,-80,-4,-84
-51,-100,-45,75,-1,-76,-138,-41,-119,-92,-10,-90
-57,-100,-40,75,-7,-70,-138,-41,-125,-92,-16,-96
-57,-94,-40,75,-7,-64,-138,-41,-119,-92,-10,-90
-57,-94,-40,75,-7,-64,-138,-41,-119,-92,-10,-90
-57,-88,-40,69,-13,-58,-138,-41,-113,-92,-4,-90
-63,-88,-34,75,-19,-58,-138,-41,-113,-92,-10,-90
-57,-82,-34,69,-13,-52,-132,-35,-107,-86,-4,-84
-63,-88,-34,75,-19,-58,-132,-35,-107,-86,-4,-78
-57,-82,-34,69,-13,-52,-132,-35,-107,-86,2,-84
-57,-76,-28,63,-19,-46,-132,-35,-107,-86,2,-78
-21,-52,-40,33,5,-40,-126,-23,-113,-80,8,-78
-9,-58,-45,33,23,-52,-126,-11,-101,-68,20,-66
-21,-100,-75,57,28,-88,-126,-23,-113,-56,20,-66
-57,-130,-69,93,11,-100,-132,-23,-125,-68,8,-90
-63,-124,-57,93,-1,-94,-132,-29,-131,-80,2,-96
-63,-124,-57,93,-1,-94,-132,-35,-131,-86,2,-96
-69,-118,-45,93,-7,-82,-132,-41,-137,-98,-4,-102
-69,-118,-45,93,-7,-82,-132,-47,-137,-104,-4,-102
-57,-106,-45,81,-1,-76,-132,-47,-131,-98,-4,-96
-57,-100,-40,75,-7,-70,-132,-47,-131,-98,-4,-96
-45,-88,-40,63,-1,-64,-132,-47,-125,-92,-4,-96
-39,-76,-40,57,-1,-58,-132,-47,-125,-92,-4,-96
-33,-76,-40,51,5,-58,-132,-47,-125,-92,-4,-96
-33,-76,-40,51,5,-58,-132,-47,-125,-86,-4,-96
-45,-82,-40,63,-1,-58,-138,-47,-131,-86,-4,-102
-45,-82,-40,63,-1,-58,-138,-47,-131,-92,-10,-108
-51,-88,-40,69,-7,-64,-144,-47,-131,-98,-10,-114
-51,-100,-45,75,-1,-76,-144,-47,-131,-98,-10,-114
-63,-106,-40,81,-7,-76,-150,-53,-143,-110,-10,-120
-63,-112,-45,87,-7,-82,-150,-53,-143,-110,-10,-120
-57,-118,-57,87,5,-88,-144,-59,-143,-110,-16,-114
-69,-118,-45,93,-7,-82,-144,-59,-143,-110,-16,-120
-51,-106,-51,75,5,-82,-138,-65,-137,-110,-16,-114
-51,-106,-51,75,5,-82,-138,-65,-137,-110,-16,-114
-57,-112,-51,81,-1,-82,-144,-59,-137,-104,-10,-114
-57,-106,-45,81,-1,-76,-138,-59,-137,-98,-4,-114
-63,-112,-45,87,-7,-82,-144,-59,-137,-92,-4,-120
-57,-112,-51,81,-1,-82,-132,-53,-131,-86,-4,-114
-51,-88,-40,69,-7,-64,-120,-41,-125,-86,8,-108
-39,-70,-40,51,-1,-52,-114,-35,-119,-74,8,-108
-33,-58,-34,45,-1,-40,-108,-35,-119,-80,8,-108
-27,-52,-34,39,-1,-40,-108,-29,-119,-80,8,-108
-33,-46,-22,39,-7,-29,-84,-23,-107,-74,14,-108
-39,-40,-10,39,-19,-29,-78,-17,-107,-68,20,-102
-57,-28,20,39,-43,-11,-72,-17,-107,-62,20,-108
-51,-22,20,33,-37,-11,-60,-11,-101,-62,20,-108
-51,-22,20,33,-37,-11,-54,-5,-101,-62,26,-108
-51,-22,20,33,-37,-11,-60,1,-95,-62,26,-102
-57,-28,20,39,-43,-11,-66,6,-95,-68,32,-102
-51,-40,2,45,-31,-29,-66,6,-89,-68,32,-102
-39,-34,-4,33,-19,-29,-54,6,-89,-62,26,-114
-33,-28,-4,27,-19,-23,-60,6,-95,-62,26,-114
-21,-17,-4,15,-13,-17,-48,6,-95,-56,20,-120
-15,-17,-4,9,-7,-17,-42,6,-95,-56,20,-120
-27,-5,26,9,-25,7,-42,6,-95,-56,32,-108
-33,7,44,3,-37,25,-48,6,-95,-50,38,-102
-39,19,62,3,-49,37,-60,6,-95,-56,44,-96
-39,31,74,-3,-55,49,-66,6,-95,-56,49,-90
-45,31,80,-3,-61,55,-84,-5,-95,-50,49,-90
-39,31,74,-3,-55,49,-96,-11,-95,-44,49,-84
-45,31,80,-3,-61,55,-108,-23,-95,-44,49,-84
-45,31,80,-3,-61,55,-120,-29,-101,-44,55,-84
-33,37,74,-3,-55,55,-120,-23,-101,-38,55,-78
-21,43,68,-3,-43,55,-120,-23,-101,-32,67,-72
-3,49,56,-14,-31,49,-132,-17,-101,-26,67,-66
3,49,50,-20,-25,49,-144,-29,-107,-26,67,-66
9,49,44,-20,-19,43,-150,-29,-113,-32,55,-72
9,31,26,-14,-7,25,-150,-35,-119,-44,55,-72
15,25,14,-14,-1,19,-156,-47,-125,-56,49,-90
9,13,8,-3,-1,7,-156,-47,-125,-56,49,-90
-3,1,8,-3,-7,1,-150,-47,-125,-50,49,-90
-15,-11,8,3,-13,-5,-144,-29,-119,-50,49,-96
-33,-17,8,21,-25,-11,-138,-35,-125,-50,44,-102
-39,-34,-4,33,-19,-29,-138,-29,-119,-62,44,-108
-51,-64,-22,57,-19,-40,-138,-35,-119,-62,32,-120
-75,-88,-22,81,-31,-52,-126,-35,-131,-74,20,-132
-87,-106,-28,93,-31,-64,-126,-41,-143,-86,8,-150
-87,-118,-40,99,-25,-76,-126,-47,-149,-92,-4,-156
-81,-130,-45,105,-13,-88,-126,-53,-155,-116,-16,-168
-87,-142,-51,111,-13,-100,-126,-59,-161,-116,-28,-174
-75,-142,-63,105,-1,-106,-120,-65,-155,-116,-28,-168
-75,-136,-57,105,-7,-100,-126,-71,-161,-122,-28,-168
-81,-136,-51,105,-13,-94,-138,-77,-173,-134,-34,-180
-69,-124,-51,93,-7,-88,-138,-83,-185,-140,-40,-180
-75,-124,-45,99,-13,-88,-144,-83,-191,-146,-40,-186
-75,-130,-51,99,-7,-94,-144,-77,-197,-140,-40,-186
-63,-124,-57,93,-1,-94,-138,-71,-191,-134,-34,-186
-45,-130,-81,87,23,-106,-138,-71,-191,-134,-34,-186
-57,-124,-63,87,5,-94,-126,-65,-185,-128,-34,-186
-51,-124,-69,87,11,-100,-126,-65,-179,-128,-34,-186
-45,-118,-69,81,17,-94,-132,-65,-179,-116,-28,-174
-45,-112,-63,75,11,-88,-132,-65,-179,-116,-22,-174
-39,-106,-63,69,17,-88,-132,-59,-179,-110,-16,-168
-39,-112,-69,75,17,-94,-132,-59,-179,-110,-16,-168
-51,-124,-69,87,11,-100,-138,-71,-185,-116,-22,-180
-57,-130,-69,93,11,-100,-150,-71,-185,-128,-34,-186
-63,-142,-75,99,11,-112,-156,-71,-191,-134,-40,-198
-69,-148,-75,105,5,-112,-162,-71,-191,-140,-46,-204
-117,-208,-87,159,-13,-148,-180,-83,-203,-146,-58,-216
-129,-220,-87,171,-19,-154,-180,-95,-203,-146,-58,-216
-117,-190,-69,153,-19,-130,-174,-83,-203,-146,-46,-216
-105,-154,-45,129,-25,-100,-162,-77,-191,-134,-46,-204
-93,-130,-40,111,-25,-82,-132,-35,-161,-116,-34,-204
-81,-118,-40,99,-19,-76,-78,36,-113,-80,-22,-204
-45,-70,-34,57,-7,-46,-30,138,-35,-32,8,-192
-3,-5,2,-3,-1,-5,-7,216,48,27,49,-150
20,55,26,-38,5,43,11,300,156,141,127,-96
32,127,86,-80,-19,109,59,420,306,297,247,0
44,229,182,-140,-61,211,101,534,492,495,379,108
56,349,284,-206,-109,319,119,588,678,705,529,215
74,469,386,-266,-151,427,89,504,828,915,685,341
110,601,482,-356,-187,541,5,360,966,1125,835,455
170,703,524,-434,-175,613,-156,192,1074,1329,961,551
230,775,542,-500,-157,661,-384,-59,1092,1467,1063,629
266,829,554,-548,-139,697,-624,-377,1056,1593,1171,719
272,877,596,-572,-157,733,-846,-689,1014,1671,1225,773
260,853,584,-554,-157,715,-1026,-959,948,1623,1177,761
260,691,422,-476,-73,553,-1134,-1175,786,1407,1021,641
260,463,194,-362,28,325,-1224,-1343,600,1125,799,479
230,265,32,-242,94,151,-1308,-1511,324,777,535,293
128,133,-4,-128,58,67,-1428,-1739,-89,363,229,119
68,13,-51,-38,58,-23,-1536,-1883,-509,-38,-10,-36
32,-64,-105,9,64,-82,-1584,-1931,-899,-404,-196,-156
-21,-154,-129,87,46,-142,-1500,-1865,-1217,-734,-358,-276
-39,-214,-171,123,58,-196,-1350,-1691,-1343,-926,-424,-342
-33,-232,-195,129,70,-214,-1182,-1463,-1235,-902,-412,-366
-45,-238,-189,141,64,-214,-1032,-1235,-1043,-782,-364,-366
-15,-226,-207,117,88,-220,-894,-1019,-857,-644,-310,-354
20,-226,-255,93,136,-238,-768,-845,-719,-560,-268,-342
20,-238,-255,105,130,-250,-684,-737,-659,-506,-250,-330
15,-226,-237,105,118,-232,-612,-623,-593,-452,-214,-312
26,-166,-201,63,112,-184,-498,-473,-503,-374,-178,-300
20,-166,-183,69,94,-178,-402,-329,-419,-326,-154,-282
-21,-214,-189,117,76,-202,-336,-239,-365,-290,-136,-282
-33,-220,-183,123,64,-202,-282,-185,-299,-254,-112,-282
-39,-208,-165,123,52,-190,-246,-137,-245,-224,-100,-270
-57,-226,-165,141,46,-196,-228,-107,-215,-206,-82,-270
-51,-214,-159,129,46,-190,-198,-71,-197,-188,-76,-252
-27,-166,-135,93,46,-154,-174,-41,-179,-164,-52,-228
-39,-142,-99,87,28,-124,-150,-29,-161,-146,-52,-210
-69,-148,-75,105,5,-112,-132,-5,-167,-146,-46,-216
-75,-142,-63,105,-1,-106,-120,6,-155,-140,-40,-216
-75,-142,-63,105,-1,-106,-108,12,-149,-140,-34,-216
-75,-136,-57,105,-7,-100,-108,18,-149,-140,-40,-216
-69,-130,-57,99,-1,-94,-102,18,-149,-134,-40,-216
-63,-130,-63,93,5,-100,-102,24,-143,-134,-34,-216
-63,-124,-57,93,-1,-94,-102,18,-137,-128,-28,-216
-57,-124,-63,87,5,-94,-96,24,-137,-128,-22,-216
-57,-124,-63,87,5,-94,-96,30,-125,-116,-22,-216
-45,-112,-63,75,11,-88,-90,48,-119,-104,-10,-198
-39,-100,-57,69,11,-82,-78,54,-107,-92,-10,-186
-15,-82,-63,45,28,-76,-66,78,-101,-80,14,-174
-9,-76,-63,39,28,-70,-60,84,-95,-74,14,-168
-21,-82,-57,51,23,-70,-72,78,-101,-80,2,-174
-27,-82,-51,51,17,-70,-78,78,-107,-86,-4,-174
-33,-88,-51,57,11,-70,-90,60,-113,-92,-4,-186
-39,-82,-40,57,5,-64,-96,60,-107,-98,-10,-192
-33,-76,-40,51,5,-58,-90,66,-107,-92,-10,-186
-33,-76,-40,51,5,-58,-90,66,-107,-80,-10,-192
-27,-70,-40,45,11,-58,-84,66,-107,-74,-10,-186
-21,-64,-40,39,11,-52,-84,66,-101,-74,-4,-186
-27,-70,-40,45,11,-58,-84,78,-101,-74,2,-180
-27,-70,-40,45,11,-58,-84,84,-89,-68,14,-180
-33,-76,-40,51,5,-58,-84,84,-89,-74,20,-168
-33,-76,-40,51,5,-58,-84,84,-83,-74,26,-168
-39,-82,-40,57,5,-64,-84,72,-77,-68,20,-168
-33,-82,-45,57,11,-64,-84,72,-77,-62,32,-156
-39,-88,-45,63,5,-70,-78,66,-71,-62,26,-156
-39,-88,-45,63,5,-70,-78,66,-71,-62,26,-156
-45,-76,-40,57,-7,-52,-72,72,-65,-50,26,-162
-33,-64,-40,45,-1,-46,-72,78,-59,-44,32,-162
-27,-52,-34,39,-1,-40,-66,78,-47,-38,32,-162
-27,-52,-34,39,-1,-40,-60,78,-41,-26,38,-162
-33,-46,-22,39,-7,-29,-54,84,-35,-14,44,-156
-27,-46,-28,33,-1,-34,-54,90,-35,-14,44,-156
-15,-34,-28,21,5,-29,-48,96,-35,-8,44,-150
-9,-28,-28,15,5,-29,-48,96,-29,-2,49,-144
-21,-40,-28,27,-1,-29,-54,90,-29,-2,49,-150
-33,-46,-22,39,-7,-29,-60,90,-29,-2,44,-150
-27,-46,-28,33,-1,-34,-66,90,-35,-2,44,-144
-39,-46,-16,39,-13,-29,-72,96,-41,-2,38,-150
-33,-34,-10,33,-13,-29,-66,102,-35,10,49,-144
-21,-22,-10,21,-7,-23,-66,114,-23,16,49,-144
-9,-17,-4,3,-1,-11,-54,120,-11,21,55,-120
3,-5,-4,-3,5,-5,-54,120,1,21,61,-120
-9,-17,-16,9,-1,-23,-54,120,-5,27,61,-114
-9,-17,-10,9,-1,-17,-54,120,1,33,61,-114
-15,-17,-4,9,-7,-17,-54,126,13,39,73,-102
-15,-17,2,9,-7,-11,-66,126,13,45,85,-96
-9,-17,-4,3,-1,-11,-66,132,24,57,91,-96
-9,-5,8,-3,-7,1,-66,132,24,63,97,-90
3,1,2,-3,-1,1,-66,138,36,69,103,-90
3,1,2,-3,-1,1,-54,150,42,81,115,-72
15,19,8,-8,5,13,-54,162,54,99,121,-60
15,31,20,-14,-1,25,-66,168,66,105,127,-60
20,43,26,-26,-1,31,-72,180,78,117,139,-48
20,55,26,-38,5,43,-72,180,78,129,145,-24
32,79,38,-56,5,61,-66,186,102,153,157,-18
44,103,50,-74,5,79,-60,186,114,165,175,-12
62,133,62,-98,5,97,-60,180,138,183,187,0
80,151,62,-116,17,109,-60,180,150,201,199,12
74,145,62,-110,11,103,-78,186,150,213,199,12
74,151,68,-110,11,109,-84,186,156,219,211,12
74,145,62,-110,11,103,-96,186,162,219,217,18
68,151,74,-110,5,115,-96,192,174,225,229,24
56,145,80,-98,-7,115,-108,192,186,237,235,24
50,145,86,-98,-13,115,-114,186,192,255,247,36
56,151,86,-104,-7,121,-126,180,198,261,259,48
50,157,98,-104,-19,127,-126,174,210,285,277,60
62,187,116,-122,-19,151,-126,180,234,303,289,90
62,193,122,-128,-25,157,-144,186,252,321,301,96
68,217,140,-140,-31,181,-150,192,270,339,325,119
86,241,152,-164,-25,199,-150,186,282,351,337,119
110,259,146,-188,-13,205,-150,192,300,375,361,137
122,265,140,-194,-1,205,-156,198,318,393,379,155
140,271,128,-206,11,205,-156,210,324,423,403,173
170,307,134,-242,23,217,-156,210,336,435,421,179
170,307,134,-242,23,217,-156,204,342,447,427,185
170,319,146,-242,17,229,-162,204,348,441,427,191
164,325,158,-242,11,241,-156,204,348,453,427,197
164,331,164,-242,5,247,-162,204,354,447,427,203
146,313,164,-230,-1,235,-186,198,354,453,433,203
128,313,182,-224,-19,247,-192,192,354,453,433,203
104,289,182,-200,-31,235,-204,186,348,447,433,197
86,271,182,-182,-43,223,-216,174,348,447,439,203
98,283,182,-194,-37,229,-210,174,342,447,439,203
104,295,188,-200,-37,241,-204,168,330,447,439,203
116,307,188,-212,-31,247,-198,162,324,447,439,209
128,313,182,-224,-19,247,-192,162,330,447,445,215
140,325,182,-236,-13,253,-192,168,336,453,451,215
152,337,182,-242,-7,259,-192,162,330,447,445,209
158,349,188,-248,-7,265,-180,168,330,453,451,209
170,361,188,-260,-1,271,-180,168,330,453,451,209
164,355,188,-254,-7,271,-174,162,324,435,445,203
164,349,182,-254,-1,265,-162,162,318,435,427,197
158,331,170,-242,-1,247,-150,168,312,411,415,185
140,313,170,-230,-7,241,-144,162,300,399,397,173
128,295,164,-212,-13,229,-132,162,282,381,385,167
116,283,164,-200,-19,223,-132,174,276,369,373,161
110,271,158,-194,-19,211,-126,174,264,345,355,149
92,247,152,-170,-25,205,-114,174,252,327,337,137
86,223,134,-158,-19,181,-114,174,240,315,319,119
80,223,134,-152,-19,181,-108,174,228,291,307,114
68,205,128,-134,-25,169,-102,174,210,273,289,102
44,187,134,-116,-37,163,-96,162,186,261,271,78
44,181,128,-110,-37,157,-84,162,174,243,247,72
44,169,116,-104,-31,145,-78,156,162,225,235,66
44,151,98,-98,-19,127,-72,150,144,201,211,42
32,145,104,-86,-31,127,-66,138,126,177,187,24
20,121,92,-68,-31,109,-60,132,108,165,169,12
20,109,86,-62,-31,97,-54,126,96,141,157,-6
-3,73,80,-26,-43,73,-54,120,78,117,139,-18
-21,37,62,-3,-43,49,-54,114,54,93,127,-36
-9,43,56,-8,-31,49,-42,120,54,87,127,-36
9,55,50,-26,-19,49,-42,120,36,75,115,-42
20,61,38,-38,-7,49,-36,102,24,69,103,-42
26,73,38,-50,-1,55,-36,102,24,57,91,-48
26,73,38,-50,-1,55,-24,96,19,39,79,-66
26,73,38,-50,-1,55,-18,90,19,33,67,-72
20,61,32,-38,-1,49,-12,78,1,21,49,-84
20,43,20,-26,5,31,-24,66,-11,16,49,-90
15,25,14,-14,-1,19,-30,66,-23,10,44,-108
-3,13,20,-3,-13,13,-36,54,-35,-8,32,-114
-9,-5,8,-3,-7,1,-42,48,-47,-14,38,-114
-15,-17,-4,9,-7,-17,-48,42,-53,-26,32,-120
-39,-34,-4,33,-19,-29,-48,24,-71,-38,8,-126
-39,-40,-10,39,-19,-29,-48,24,-83,-44,8,-132
-39,-46,-16,39,-13,-29,-48,12,-101,-62,-10,-138
-27,-46,-28,33,-1,-34,-48,6,-107,-68,-10,-138
-27,-46,-28,33,-1,-34,-42,6,-107,-62,-16,-144
-33,-46,-22,39,-7,-29,-42,6,-107,-68,-16,-144
-39,-52,-22,45,-13,-34,-42,1,-113,-62,-16,-150
-45,-58,-22,51,-13,-34,-48,-5,-113,-68,-22,-156
-45,-58,-22,51,-13,-34,-48,-5,-113,-68,-22,-162
-45,-70,-34,57,-7,-46,-54,1,-119,-74,-28,-162
-51,-64,-22,57,-19,-40,-54,6,-119,-74,-28,-156
-33,-52,-28,39,-7,-34,-54,6,-125,-80,-28,-150
-27,-58,-40,39,5,-46,-48,6,-131,-80,-40,-156
-33,-58,-34,45,-1,-40,-48,1,-137,-86,-40,-168
-33,-76,-40,51,5,-58,-48,1,-143,-92,-52,-174
-33,-76,-40,51,5,-58,-48,1,-143,-98,-52,-174
-33,-76,-40,51,5,-58,-54,6,-143,-98,-52,-180
-33,-82,-45,57,11,-64,-54,1,-143,-92,-52,-180
-33,-82,-45,57,11,-64,-60,6,-149,-92,-52,-186
-21,-82,-57,51,23,-70,-60,6,-149,-92,-58,-192
-27,-76,-45,51,11,-64,-54,6,-155,-98,-64,-186
-33,-76,-40,51,5,-58,-54,6,-155,-98,-70,-192
-27,-70,-40,45,11,-58,-48,12,-143,-92,-76,-186
-21,-64,-40,39,11,-52,-54,12,-143,-92,-76,-186
-27,-64,-40,45,5,-52,-66,24,-143,-92,-76,-192
-27,-70,-40,45,11,-58,-54,24,-137,-92,-76,-192
-33,-82,-45,57,11,-64,-54,30,-143,-104,-76,-198
-27,-88,-57,57,17,-76,-48,30,-137,-104,-76,-198
-39,-94,-51,63,11,-76,-54,30,-143,-104,-70,-198
-39,-100,-57,69,11,-82,-54,24,-143,-98,-70,-192
-51,-106,-51,75,5,-82,-60,24,-143,-104,-70,-192
-63,-112,-45,87,-7,-82,-60,18,-143,-104,-70,-198
-63,-100,-40,81,-13,-70,-54,24,-137,-98,-64,-192
-63,-94,-40,75,-13,-64,-54,24,-137,-98,-64,-192
-57,-82,-34,69,-13,-52,-48,30,-137,-92,-58,-186
-45,-76,-40,57,-7,-52,-48,30,-137,-92,-58,-186
-39,-70,-40,51,-1,-52,-48,30,-131,-80,-64,-186
-33,-58,-34,45,-1,-40,-48,30,-125,-80,-58,-186
-21,-52,-40,33,5,-40,-42,36,-131,-80,-64,-180
-15,-46,-40,27,11,-40,-42,42,-131,-80,-64,-180
-15,-52,-40,33,11,-46,-42,36,-131,-74,-64,-180
-21,-58,-40,39,11,-46,-42,42,-125,-74,-58,-180
-27,-58,-40,39,5,-46,-42,36,-125,-68,-58,-180
-33,-58,-34,45,-1,-40,-42,36,-125,-68,-52,-174
-21,-46,-34,33,5,-34,-42,42,-119,-62,-52,-162
-21,-40,-28,27,-1,-29,-42,42,-119,-62,-52,-162
-9,-28,-28,15,5,-29,-42,48,-113,-62,-52,-156
-3,-22,-28,9,11,-29,-42,48,-113,-56,-46,-156
3,-17,-28,3,11,-29,-42,48,-101,-56,-46,-144
3,-22,-34,9,17,-29,-42,48,-101,-50,-46,-138
-9,-28,-28,15,5,-29,-42,48,-107,-50,-46,-132
-9,-34,-34,21,11,-29,-42,48,-107,-50,-40,-126
-15,-40,-34,27,5,-34,-48,42,-113,-56,-40,-126
-15,-40,-34,27,5,-34,-48,42,-113,-56,-40,-126
-9,-28,-28,15,5,-29,-54,36,-119,-62,-40,-120
-9,-22,-22,15,5,-29,-48,42,-113,-56,-34,-120
-15,-28,-22,21,-1,-29,-48,36,-113,-50,-34,-126
-21,-34,-22,27,-1,-29,-48,30,-113,-50,-34,-126
-27,-40,-22,33,-7,-29,-54,18,-113,-44,-34,-138
-27,-40,-22,33,-7,-29,-54,18,-113,-44,-34,-138
-21,-40,-28,27,-1,-29,-54,30,-107,-38,-28,-126
-15,-40,-34,27,5,-34,-54,30,-107,-38,-28,-120
-15,-40,-34,27,5,-34,-54,36,-113,-38,-22,-120
-15,-34,-28,21,5,-29,-54,42,-113,-38,-22,-114
-9,-22,-22,15,5,-29,-48,36,-107,-38,-22,-120
3,-17,-28,3,11,-29,-48,36,-107,-32,-22,-120
15,-17,-28,-3,23,-23,-48,30,-107,-32,-22,-120
20,-11,-34,-3,28,-23,-48,36,-107,-32,-28,-120
15,-17,-40,-3,23,-29,-48,36,-113,-38,-34,-120
9,-22,-40,3,23,-29,-48,30,-113,-38,-34,-126
3,-34,-40,15,23,-34,-42,30,-119,-44,-40,-132
-3,-40,-40,21,17,-40,-42,30,-119,-50,-40,-132
-21,-52,-40,33,5,-40,-48,24,-131,-62,-46,-132
-27,-52,-34,39,-1,-40,-54,24,-137,-62,-58,-132
-33,-58,-34,45,-1,-40,-60,6,-137,-68,-64,-138
-39,-46,-16,39,-13,-29,-66,6,-143,-68,-70,-138
-33,-52,-28,39,-7,-34,-60,12,-137,-62,-64,-126
-21,-64,-40,39,11,-52,-54,18,-137,-62,-64,-126
-3,-58,-51,27,28,-58,-48,24,-137,-62,-58,-120
9,-52,-57,21,28,-58,-42,30,-131,-62,-58,-120
9,-46,-51,15,28,-52,-42,30,-131,-56,-58,-120
3,-46,-45,21,28,-46,-42,30,-125,-62,-58,-120
3,-40,-40,15,23,-40,-42,30,-131,-56,-58,-120
15,-22,-40,3,28,-29,-42,30,-137,-56,-58,-120
3,-28,-40,9,17,-29,-42,24,-143,-62,-64,-120
-15,-40,-34,27,5,-34,-42,24,-143,-74,-76,-126
-33,-58,-34,45,-1,-40,-54,18,-155,-80,-82,-132
-39,-64,-34,51,-7,-46,-54,12,-161,-86,-88,-138
-27,-58,-40,39,5,-46,-48,18,-155,-80,-88,-138
-21,-52,-40,33,5,-40,-42,18,-143,-74,-88,-132
-3,-40,-40,21,17,-40,-36,30,-137,-68,-88,-126
3,-40,-40,15,23,-40,-30,30,-137,-68,-88,-120
-9,-58,-45,33,23,-52,-30,24,-143,-74,-94,-120
-9,-58,-45,33,23,-52,-30,24,-155,-74,-94,-120
-9,-64,-51,33,23,-58,-36,24,-161,-86,-94,-120
-15,-64,-45,39,17,-58,-48,12,-155,-86,-100,-126
-21,-64,-40,39,11,-52,-54,6,-155,-86,-106,-120
-21,-70,-45,45,17,-58,-54,12,-155,-86,-106,-120
-27,-82,-51,51,17,-70,-60,6,-161,-92,-112,-120
-33,-88,-51,57,11,-70,-54,6,-161,-92,-112,-120
-33,-88,-51,57,11,-70,-48,6,-161,-92,-112,-120
-33,-94,-57,63,17,-76,-48,6,-161,-92,-112,-120
-33,-94,-57,63,17,-76,-42,6,-161,-92,-112,-120
-39,-100,-57,69,11,-82,-42,6,-161,-92,-118,-120
-39,-100,-57,69,11,-82,-54,6,-161,-104,-106,-114
-9,-70,-57,39,28,-64,-54,6,-149,-92,-106,-102
-9,-46,-40,27,17,-40,-48,12,-155,-98,-106,-114
-9,-52,-40,27,17,-46,-48,12,-155,-98,-118,-114
15,-46,-57,15,28,-52,-48,12,-161,-92,-112,-114
-3,-64,-57,33,28,-64,-54,6,-167,-98,-118,-120
-15,-82,-63,45,28,-76,-54,6,-167,-98,-118,-120
-33,-100,-63,63,17,-82,-60,6,-173,-104,-124,-126
-45,-118,-69,81,17,-94,-60,6,-173,-104,-124,-132
-33,-100,-63,63,17,-82,-54,6,-167,-104,-118,-126
-27,-94,-63,57,23,-82,-54,12,-167,-104,-118,-120
-15,-76,-57,45,23,-70,-48,18,-161,-104,-112,-120
-3,-64,-57,33,28,-64,-48,24,-161,-104,-112,-120
-3,-70,-63,33,28,-70,-42,18,-161,-110,-118,-120
-9,-76,-63,39,28,-70,-42,18,-161,-104,-124,-120
-27,-88,-57,57,17,-76,-42,12,-167,-110,-130,-120
-33,-94,-57,63,17,-76,-42,12,-167,-116,-142,-126
-27,-88,-57,57,17,-76,-36,12,-167,-110,-136,-126
-27,-94,-63,57,23,-82,-36,12,-167,-110,-136,-126
-27,-88,-57,57,17,-76,-30,6,-179,-110,-130,-126
-27,-88,-57,57,17,-76,-30,6,-179,-110,-130,-126
-21,-94,-69,57,28,-82,-30,12,-173,-110,-136,-120
-27,-94,-63,57,23,-82,-30,12,-173,-110,-136,-126
-9,-82,-69,45,28,-76,-30,18,-161,-110,-136,-120
-3,-82,-75,39,28,-82,-30,18,-161,-110,-136,-120
-21,-94,-69,57,28,-82,-36,18,-167,-116,-136,-120
-33,-88,-51,57,11,-70,-36,12,-167,-110,-136,-120
-51,-100,-45,75,-1,-76,-42,6,-173,-116,-142,-126
-57,-100,-40,75,-7,-70,-36,6,-167,-110,-148,-120
-51,-88,-40,69,-7,-64,-24,18,-161,-104,-136,-120
-39,-76,-40,57,-1,-58,-18,24,-155,-92,-136,-120
-33,-76,-40,51,5,-58,-12,24,-155,-92,-136,-120
-27,-76,-45,51,11,-64,-12,30,-155,-92,-136,-120
-21,-70,-45,45,17,-58,-7,36,-143,-92,-130,-114
-21,-64,-40,39,11,-52,-7,42,-143,-86,-124,-108
-27,-52,-34,39,-1,-40,-7,42,-143,-86,-124,-108
-15,-46,-40,27,11,-40,-7,48,-137,-86,-124,-108
-3,-28,-34,15,11,-29,5,54,-137,-74,-124,-102
-3,-17,-22,9,5,-29,5,60,-131,-74,-124,-96
3,-17,-16,-3,11,-17,11,66,-131,-68,-124,-90
9,-17,-22,-3,17,-23,17,72,-125,-68,-124,-90
9,-17,-28,-3,17,-29,23,72,-125,-68,-124,-96
9,-17,-28,-3,17,-29,11,66,-131,-68,-124,-96
9,-17,-28,-3,17,-29,17,66,-131,-68,-124,-96
9,-17,-28,-3,17,-29,17,60,-131,-68,-124,-96
-3,-11,-4,-3,-1,-11,17,60,-125,-62,-118,-78
-15,1,20,-3,-19,7,11,54,-125,-56,-112,-72
-21,7,32,-3,-25,19,-1,42,-119,-56,-112,-60
-27,19,50,-3,-37,31,-7,42,-119,-56,-100,-54
-33,31,68,-3,-49,49,-12,30,-125,-56,-106,-54
-27,37,68,-3,-49,49,-24,24,-125,-50,-100,-48
-33,49,86,-3,-61,67,-36,12,-131,-56,-106,-48
-33,55,92,-3,-61,73,-48,6,-137,-56,-100,-48
-21,73,98,-20,-61,85,-42,6,-131,-50,-100,-42
-3,85,92,-32,-49,85,-36,6,-131,-44,-88,-36
15,103,92,-50,-37,97,-42,6,-125,-38,-88,-30
20,109,86,-62,-31,97,-48,6,-131,-38,-88,-30
20,97,80,-50,-31,85,-54,6,-137,-44,-94,-30
15,73,62,-38,-25,67,-54,1,-143,-56,-94,-30
9,55,50,-26,-19,49,-60,-11,-149,-68,-100,-42
-3,37,44,-8,-25,37,-60,-11,-149,-68,-100,-42
9,37,32,-14,-13,31,-60,-5,-149,-56,-100,-42
9,31,26,-14,-7,25,-54,6,-143,-56,-106,-48
15,25,14,-14,-1,19,-54,6,-149,-50,-112,-54
20,13,-4,-8,11,1,-54,6,-143,-62,-112,-60
9,-17,-28,-3,17,-29,-48,12,-137,-62,-130,-72
-21,-40,-28,27,-1,-29,-36,12,-149,-74,-142,-84
-33,-64,-40,45,-1,-46,-30,18,-155,-86,-160,-96
-39,-82,-40,57,5,-64,-30,12,-161,-92,-172,-102
-51,-112,-57,81,5,-88,-42,6,-173,-116,-178,-120
-63,-136,-69,99,5,-106,-42,6,-179,-116,-190,-120
-69,-154,-81,111,11,-118,-48,-5,-179,-116,-184,-120
-75,-160,-81,117,5,-124,-54,-11,-185,-122,-184,-120
-81,-166,-81,123,5,-124,-54,-17,-197,-134,-190,-132
-69,-154,-81,111,11,-118,-54,-23,-203,-146,-196,-132
-75,-160,-81,117,5,-124,-48,-23,-209,-152,-202,-138
-75,-166,-87,117,11,-130,-48,-17,-209,-152,-202,-138
-51,-148,-93,99,23,-124,-42,-11,-203,-140,-190,-132
-27,-142,-111,81,34,-130,-42,-11,-197,-134,-190,-126
-27,-124,-93,75,28,-112,-30,-5,-191,-122,-190,-120
-15,-112,-93,63,28,-106,-30,-5,-179,-116,-190,-120
-15,-118,-99,63,34,-112,-36,-11,-179,-116,-190,-120
-21,-118,-93,69,28,-106,-36,-11,-179,-122,-190,-120
-21,-124,-99,69,28,-112,-36,-11,-179,-128,-190,-120
-27,-136,-105,81,28,-124,-36,-11,-179,-134,-190,-120
-39,-142,-99,87,28,-124,-36,-11,-185,-134,-190,-120
-39,-148,-105,93,28,-130,-42,-11,-185,-140,-196,-120
-45,-154,-105,99,28,-130,-42,1,-191,-140,-196,-120
-45,-160,-111,99,28,-136,-42,1,-191,-140,-196,-120
-45,-148,-99,93,28,-124,-36,-11,-179,-134,-208,-120
-69,-172,-99,117,17,-136,-48,-23,-191,-146,-220,-132
-69,-178,-105,123,23,-142,-42,-23,-191,-134,-220,-132
-81,-178,-93,129,11,-136,-30,-17,-191,-146,-220,-132
-81,-178,-93,129,11,-136,-7,12,-161,-128,-208,-132
-45,-142,-93,93,28,-118,29,96,-113,-92,-196,-120
-33,-106,-69,69,23,-88,77,198,-35,-44,-172,-114
-27,-76,-45,51,11,-64,113,282,48,16,-124,-72
-3,-17,-22,9,5,-29,143,384,156,117,-52,-24
44,91,38,-68,11,67,203,522,318,261,49,72
80,211,122,-146,-13,169,251,618,504,483,205,191
80,325,236,-206,-73,283,233,588,678,681,361,311
74,457,374,-260,-145,415,173,438,792,879,523,443
122,601,470,-362,-175,535,29,246,930,1101,685,587
194,721,524,-458,-163,625,-180,36,1026,1293,829,689
272,811,530,-542,-127,673,-432,-227,1080,1467,961,797
362,925,554,-644,-91,739,-684,-551,1080,1617,1087,929
404,1027,620,-716,-103,823,-930,-875,1098,1725,1177,1019
416,1027,608,-722,-91,817,-1122,-1133,1038,1695,1141,1007
392,853,452,-620,-25,655,-1248,-1337,882,1455,973,863
344,565,212,-458,58,391,-1374,-1529,636,1089,697,665
254,313,56,-278,94,187,-1494,-1733,312,699,391,443
164,157,-16,-158,82,73,-1566,-1907,-65,303,97,251
140,49,-87,-92,112,-23,-1572,-1949,-455,-74,-142,108
152,-40,-201,-50,172,-118,-1524,-1907,-815,-428,-328,-18
110,-142,-261,9,184,-202,-1386,-1793,-1127,-704,-472,-120
32,-238,-279,93,154,-256,-1212,-1631,-1271,-866,-550,-198
-9,-286,-279,147,124,-280,-1050,-1397,-1193,-854,-550,-234
-33,-304,-273,171,112,-286,-894,-1145,-971,-722,-502,-234
-15,-304,-285,159,130,-298,-732,-929,-785,-620,-472,-234
20,-292,-321,129,172,-304,-618,-773,-689,-548,-442,-234
44,-292,-345,117,196,-316,-528,-659,-611,-494,-418,-222
26,-304,-339,135,184,-322,-426,-527,-521,-428,-394,-216
26,-256,-291,111,160,-274,-324,-401,-449,-374,-364,-204
20,-214,-243,87,130,-226,-240,-281,-383,-326,-340,-186
20,-214,-237,93,124,-226,-162,-197,-317,-266,-298,-174
3,-208,-207,99,94,-208,-120,-125,-263,-242,-274,-162
-15,-184,-165,99,64,-178,-102,-89,-233,-218,-262,-150
-9,-190,-177,99,76,-184,-72,-47,-215,-206,-256,-150
-3,-190,-183,93,82,-190,-30,-11,-173,-176,-238,-132
9,-178,-183,81,88,-184,-7,6,-143,-164,-214,-114
-3,-166,-159,81,70,-166,5,18,-137,-158,-214,-108
3,-148,-147,69,64,-148,35,30,-131,-146,-208,-102
-9,-148,-135,75,52,-142,47,48,-119,-134,-196,-96
-15,-148,-129,81,46,-142,59,66,-113,-134,-190,-96
-21,-148,-123,81,40,-136,59,78,-113,-128,-190,-90
-21,-142,-117,81,40,-130,65,78,-113,-122,-190,-90
-27,-148,-117,87,34,-136,53,72,-113,-128,-196,-96
-33,-142,-105,87,28,-124,47,66,-107,-122,-190,-102
-39,-148,-105,93,28,-130,41,60,-113,-128,-196,-108
-45,-148,-99,93,28,-124,35,66,-101,-116,-196,-114
-39,-148,-105,93,28,-130,41,78,-101,-110,-196,-102
-39,-142,-99,87,28,-124,53,84,-89,-104,-196,-96
-21,-136,-111,75,34,-124,65,102,-89,-98,-190,-90
-21,-136,-111,75,34,-124,71,108,-83,-98,-190,-90
-33,-136,-99,81,28,-118,65,114,-77,-98,-190,-90
-33,-136,-99,81,28,-118,65,114,-83,-98,-190,-84
-39,-136,-93,87,28,-118,59,108,-77,-98,-190,-90
-39,-130,-87,81,28,-112,59,108,-71,-98,-190,-90
-39,-136,-93,87,28,-118,59,114,-65,-98,-190,-84
-45,-136,-87,87,23,-112,59,114,-59,-86,-190,-90
-45,-142,-93,93,28,-118,59,114,-53,-86,-190,-84
-45,-136,-87,87,23,-112,59,114,-41,-86,-184,-84
-39,-130,-87,81,28,-112,65,126,-35,-74,-178,-78
-39,-130,-87,81,28,-112,65,132,-23,-68,-166,-78
-33,-124,-87,75,28,-106,71,132,-17,-62,-160,-66
-33,-124,-87,75,28,-106,71,132,-11,-62,-154,-66
-27,-118,-87,69,28,-106,65,132,-11,-56,-160,-72
-15,-112,-93,63,28,-106,65,132,-11,-50,-148,-60
-9,-106,-93,57,34,-100,65,138,-11,-50,-154,-66
-3,-100,-93,51,34,-100,65,138,-11,-50,-154,-66
-15,-100,-81,57,28,-94,71,138,-11,-44,-154,-66
-9,-94,-81,51,28,-88,71,144,-5,-38,-148,-66
-9,-94,-81,51,28,-88,77,138,1,-38,-148,-60
-15,-100,-81,57,28,-94,83,138,7,-26,-142,-60
-21,-94,-69,57,28,-82,77,144,13,-20,-136,-60
-15,-88,-69,51,28,-82,77,150,13,-20,-136,-60
-3,-76,-69,39,28,-76,71,156,13,-20,-136,-60
3,-64,-63,27,28,-64,71,156,19,-14,-130,-54
-9,-76,-63,39,28,-70,71,150,24,-14,-130,-60
-15,-82,-63,45,28,-76,71,150,24,-8,-136,-54
-9,-82,-69,45,28,-76,71,150,24,-8,-136,-48
-15,-82,-63,45,28,-76,71,156,24,-2,-142,-48
-15,-76,-57,45,23,-70,77,162,24,10,-124,-42
-15,-76,-57,45,23,-70,77,180,36,16,-118,-42
-9,-64,-51,33,23,-58,89,186,48,21,-106,-18
-9,-64,-51,33,23,-58,89,192,60,21,-94,-12
-3,-70,-63,33,28,-70,83,192,54,27,-100,-18
3,-52,-51,21,28,-52,83,192,60,33,-100,-18
15,-34,-45,9,28,-40,77,198,72,39,-94,-18
20,-17,-40,-3,28,-29,65,198,72,45,-82,-12
20,-17,-40,-3,28,-29,71,204,90,63,-70,0
20,-17,-34,-3,28,-29,71,210,96,69,-64,12
20,-11,-34,-3,28,-23,77,216,114,81,-52,24
20,-11,-34,-3,28,-23,89,234,126,93,-40,48
20,1,-22,-8,23,-11,83,234,126,99,-34,48
20,7,-10,-8,17,-5,71,240,138,105,-28,48
15,13,2,-8,5,7,59,240,138,105,-16,48
20,19,2,-14,11,7,59,240,138,117,-10,72
15,13,2,-8,5,7,53,246,150,129,-10,78
15,19,8,-8,5,13,53,246,162,135,2,84
15,19,8,-8,5,13,41,240,174,141,2,96
20,19,2,-14,11,7,35,240,186,153,8,108
20,43,14,-32,11,31,35,252,204,183,26,119
38,67,20,-50,17,43,35,258,216,207,49,125
56,91,26,-74,23,61,41,270,240,225,61,149
68,115,38,-92,23,79,47,282,258,249,85,167
68,121,44,-92,17,85,41,288,270,255,91,173
74,133,50,-104,17,91,35,288,276,267,103,185
92,151,50,-122,28,103,29,288,288,273,115,203
98,169,62,-134,23,115,29,288,300,297,133,215
92,175,74,-134,17,127,23,282,318,309,139,233
86,169,74,-128,11,121,-1,288,336,327,157,239
74,169,86,-122,-1,127,-7,282,354,339,175,251
86,187,92,-134,5,139,-7,276,366,351,187,263
98,211,104,-152,5,157,-12,282,378,369,205,281
104,217,104,-158,5,163,-18,288,390,387,223,293
110,223,110,-170,5,169,-24,300,390,411,241,311
134,259,122,-200,11,193,-24,300,396,423,259,311
146,259,110,-206,23,187,-24,294,408,441,265,329
152,271,116,-212,23,199,-30,294,414,441,271,335
158,277,116,-218,28,199,-24,294,420,459,271,353
164,283,116,-224,28,205,-30,294,426,459,277,359
158,277,116,-218,28,199,-48,282,432,465,289,359
146,283,134,-218,11,211,-54,276,432,471,289,365
134,271,134,-206,5,205,-60,264,432,465,295,365
122,259,134,-194,-1,199,-72,252,432,471,307,377
128,271,140,-200,-1,211,-78,252,432,471,301,371
128,283,152,-206,-7,217,-78,252,420,471,301,365
134,295,158,-218,-7,223,-84,246,420,471,295,365
140,301,158,-224,-1,229,-84,252,426,471,301,365
146,307,158,-230,-1,229,-84,252,426,471,301,371
146,307,158,-230,-1,229,-84,246,420,465,295,371
146,313,164,-230,-1,235,-72,246,414,465,295,377
146,313,164,-230,-1,235,-72,246,414,465,295,383
152,313,158,-236,5,235,-72,246,402,453,301,377
158,313,152,-236,11,229,-60,246,396,453,289,371
164,301,134,-236,23,217,-54,246,384,435,289,359
152,289,134,-224,17,211,-48,246,372,423,283,353
134,271,134,-206,5,205,-36,240,360,405,265,335
122,259,134,-194,-1,199,-36,246,354,393,247,329
110,247,134,-182,-7,193,-30,240,342,369,223,305
92,223,128,-158,-13,181,-18,234,330,351,199,293
80,199,110,-140,-7,157,-18,228,312,339,181,275
74,187,104,-128,-7,145,-12,228,294,309,169,263
56,163,98,-110,-13,133,-7,222,270,291,145,251
32,139,98,-86,-25,121,-7,210,246,267,127,233
38,139,92,-86,-19,115,-1,210,234,255,109,221
38,127,80,-80,-13,103,5,204,222,237,97,215
44,115,62,-80,-1,91,11,198,204,213,79,185
32,109,68,-68,-13,91,17,186,186,189,55,167
38,103,56,-68,-1,79,23,180,174,177,49,161
44,103,50,-74,5,79,29,174,168,159,38,149
32,85,44,-56,-1,67,29,168,156,135,20,143
26,61,26,-44,5,43,29,162,138,117,8,131
20,49,20,-32,5,37,35,156,126,99,2,119
20,43,14,-32,11,31,35,150,102,81,-16,119
20,31,2,-26,17,19,35,120,78,63,-34,108
20,25,2,-20,11,13,35,114,72,45,-52,96
20,13,-4,-8,11,1,35,108,54,27,-58,84
20,13,-4,-8,11,1,41,102,54,21,-70,78
9,-11,-16,-3,11,-17,35,90,36,16,-82,72
3,-17,-28,3,11,-29,23,78,24,4,-94,66
-15,-34,-28,21,5,-29,17,72,19,-2,-106,48
-33,-46,-22,39,-7,-29,17,60,7,-20,-118,42
-45,-64,-28,51,-13,-40,11,48,-11,-26,-118,42
-51,-82,-40,63,-7,-58,11,42,-17,-38,-124,36
-63,-88,-34,75,-19,-58,11,30,-23,-38,-136,30
-51,-76,-34,63,-13,-52,11,36,-29,-44,-136,24
-39,-64,-34,51,-7,-46,11,30,-35,-50,-142,24
-15,-46,-40,27,11,-40,11,30,-35,-56,-142,24
-3,-46,-40,21,23,-46,17,30,-41,-56,-148,24
-3,-46,-40,21,23,-46,17,30,-41,-62,-148,24
3,-52,-51,21,28,-52,17,24,-53,-62,-148,24
3,-58,-57,27,28,-58,11,18,-53,-68,-154,18
-15,-70,-51,39,23,-64,5,6,-59,-74,-154,12
-27,-94,-63,57,23,-82,-1,6,-65,-80,-160,6
-51,-100,-45,75,-1,-76,-7,6,-71,-86,-160,12
-45,-100,-51,69,5,-76,-7,6,-77,-92,-160,12
-39,-100,-57,69,11,-82,-7,1,-89,-92,-166,12
-45,-100,-51,69,5,-76,-7,-5,-95,-98,-166,0
-45,-112,-63,75,11,-88,-7,-11,-107,-104,-172,0
-45,-112,-63,75,11,-88,-7,-11,-107,-110,-172,0
-45,-106,-57,75,11,-82,-7,-5,-101,-104,-166,0
-45,-112,-63,75,11,-88,-7,-11,-101,-98,-166,0
-45,-106,-57,75,11,-82,-1,-5,-101,-92,-160,0
-33,-106,-69,69,23,-88,-1,-5,-101,-92,-166,-6
-45,-106,-57,75,11,-82,-7,-5,-113,-110,-172,-6
-51,-112,-57,81,5,-88,-7,1,-113,-110,-178,-12
-51,-112,-57,81,5,-88,-7,1,-107,-116,-184,-12
-45,-112,-63,75,11,-88,-7,1,-107,-116,-184,-12
-39,-106,-63,69,17,-88,-18,1,-107,-110,-184,-12
-39,-106,-63,69,17,-88,-7,1,-101,-110,-184,-12
-33,-112,-75,69,23,-94,-7,-5,-107,-116,-184,-12
-27,-112,-81,69,28,-100,-7,-5,-101,-116,-184,-12
-27,-106,-75,63,28,-94,-7,6,-95,-104,-172,-6
-21,-106,-81,63,28,-94,-7,6,-95,-98,-172,0
-21,-100,-75,57,28,-88,-1,6,-83,-92,-166,6
-27,-100,-69,63,23,-88,-1,6,-83,-92,-166,0
-27,-94,-63,57,23,-82,-7,6,-83,-98,-172,-6
-33,-94,-57,63,17,-76,-7,6,-83,-98,-172,-6
-27,-88,-57,57,17,-76,-7,6,-89,-104,-178,-12
-21,-88,-63,51,23,-76,-7,6,-89,-104,-178,-12
-27,-88,-57,57,17,-76,-7,6,-77,-92,-178,-12
-27,-82,-51,51,17,-70,-7,6,-71,-92,-172,-12
-27,-82,-51,51,17,-70,-7,12,-71,-92,-172,-6
-27,-82,-51,51,17,-70,-7,18,-71,-92,-172,-6
-33,-88,-51,57,11,-70,-7,12,-77,-86,-178,-12
-39,-88,-45,63,5,-70,-7,18,-71,-86,-172,-12
-51,-88,-40,69,-7,-64,-7,12,-77,-80,-178,-18
-57,-82,-34,69,-13,-52,-7,12,-77,-80,-172,-12
-51,-88,-40,69,-7,-64,-7,18,-71,-74,-166,0
-57,-88,-40,69,-13,-58,-7,18,-71,-74,-166,0
-51,-94,-40,69,-1,-70,-7,24,-65,-74,-160,6
-51,-94,-40,69,-1,-70,-7,24,-65,-68,-154,6
-33,-76,-40,51,5,-58,-7,30,-47,-62,-154,12
-33,-76,-40,51,5,-58,-7,36,-47,-56,-154,12
-33,-70,-40,51,5,-52,-7,42,-47,-50,-154,12
-33,-70,-40,51,5,-52,-7,48,-47,-50,-148,12
-27,-76,-45,51,11,-64,-7,42,-47,-50,-142,12
-21,-76,-51,45,17,-64,-7,42,-47,-50,-142,12
-3,-64,-57,33,28,-64,-7,36,-47,-50,-136,18
3,-58,-57,27,28,-58,-1,42,-41,-44,-130,18
-9,-64,-51,33,23,-58,-7,42,-41,-50,-136,12
-21,-70,-45,45,17,-58,-7,36,-41,-50,-142,12
-33,-76,-40,51,5,-58,-12,30,-41,-56,-148,0
-39,-76,-40,57,-1,-58,-18,30,-41,-56,-154,0
-45,-88,-40,63,-1,-64,-18,24,-41,-62,-154,6
-51,-94,-40,69,-1,-70,-18,18,-41,-62,-154,6
-63,-106,-40,81,-7,-76,-18,6,-53,-74,-154,6
-75,-106,-40,87,-19,-70,-18,6,-53,-74,-154,6
-63,-94,-40,75,-13,-64,-7,12,-41,-68,-148,12
-51,-88,-40,69,-7,-64,-7,18,-41,-56,-148,18
-33,-76,-40,51,5,-58,-7,24,-35,-50,-142,24
-21,-70,-45,45,17,-58,-7,36,-35,-44,-148,30
-15,-70,-51,39,23,-64,-7,36,-35,-44,-142,36
-15,-70,-51,39,23,-64,-7,30,-35,-44,-142,30
-3,-64,-57,33,28,-64,-7,30,-35,-44,-136,30
-3,-64,-57,33,28,-64,-7,30,-35,-50,-136,30
-21,-76,-51,45,17,-64,-7,24,-41,-56,-136,30
-21,-76,-51,45,17,-64,-7,24,-47,-56,-142,30
-27,-82,-51,51,17,-70,-7,6,-41,-56,-142,24
-27,-70,-40,45,11,-58,-7,6,-47,-56,-142,24
-39,-76,-40,57,-1,-58,-12,6,-47,-62,-142,24
-39,-88,-45,63,5,-70,-12,6,-53,-62,-148,24
-39,-82,-40,57,5,-64,-18,6,-59,-74,-148,18
-39,-76,-40,57,-1,-58,-18,6,-59,-74,-154,18
-33,-76,-40,51,5,-58,-12,6,-59,-68,-154,18
-39,-82,-40,57,5,-64,-12,6,-53,-74,-154,12
-33,-82,-45,57,11,-64,-7,6,-59,-68,-154,12
-21,-70,-45,45,17,-58,-7,6,-65,-68,-154,12
-15,-64,-45,39,17,-58,-7,6,-71,-68,-154,18
-27,-70,-40,45,11,-58,-7,6,-71,-74,-160,18
-27,-76,-45,51,11,-64,-18,6,-83,-74,-160,24
-27,-76,-45,51,11,-64,-18,6,-89,-74,-160,24
-21,-70,-45,45,17,-58,-12,6,-83,-74,-154,24
-21,-64,-40,39,11,-52,-12,6,-77,-74,-154,24
-9,-52,-40,27,17,-46,-7,18,-71,-74,-148,30
-9,-52,-40,27,17,-46,-7,18,-77,-80,-148,30
-21,-70,-45,45,17,-58,-7,12,-77,-86,-160,30
-21,-70,-45,45,17,-58,-7,12,-89,-86,-160,30
-21,-76,-51,45,17,-64,-7,12,-89,-98,-166,30
-27,-76,-45,51,11,-64,-12,6,-83,-98,-172,24
-33,-76,-40,51,5,-58,-18,6,-89,-98,-172,24
-33,-82,-45,57,11,-64,-18,6,-89,-98,-172,24
-39,-94,-51,63,11,-76,-24,6,-101,-104,-172,24
-45,-100,-51,69,5,-76,-18,6,-101,-104,-172,24
-45,-106,-57,75,11,-82,-18,6,-95,-104,-166,30
-45,-112,-63,75,11,-88,-18,6,-95,-104,-166,30
-45,-118,-69,81,17,-94,-18,6,-89,-104,-160,30
-51,-124,-69,87,11,-100,-18,6,-89,-104,-166,30
-51,-118,-63,81,11,-94,-18,6,-95,-104,-172,30
-57,-124,-63,87,5,-94,-18,6,-95,-104,-172,30
-57,-118,-57,87,5,-88,-24,1,-107,-110,-178,18
-57,-112,-51,81,-1,-82,-24,1,-107,-110,-178,18
-57,-112,-51,81,-1,-82,-36,1,-113,-110,-178,24
-57,-118,-57,87,5,-88,-36,1,-113,-110,-178,24
-57,-124,-63,87,5,-94,-42,1,-113,-104,-172,30
-51,-124,-69,87,11,-100,-42,1,-113,-98,-172,30
-45,-106,-57,75,11,-82,-36,-5,-113,-98,-172,24
-39,-106,-63,69,17,-88,-36,-5,-113,-104,-172,24
-33,-100,-63,63,17,-82,-30,-5,-113,-104,-172,18
-27,-100,-69,63,23,-88,-30,-5,-113,-98,-172,18
-45,-100,-51,69,5,-76,-36,6,-101,-110,-172,18
-9,-76,-63,39,28,-70,-36,1,-113,-104,-160,24
3,-76,-75,33,28,-76,-30,1,-101,-104,-160,36
3,-70,-69,33,28,-70,-24,1,-101,-92,-148,30
-3,-76,-69,39,28,-76,-30,-5,-107,-98,-154,24
-9,-82,-69,45,28,-76,-30,-5,-107,-98,-160,24
-15,-88,-69,51,28,-82,-36,-11,-113,-104,-166,18
-21,-94,-69,57,28,-82,-36,-11,-113,-104,-172,18
-33,-100,-63,63,17,-82,-36,-11,-107,-104,-172,18
-45,-112,-63,75,11,-88,-36,-11,-107,-104,-172,18
-57,-118,-57,87,5,-88,-36,-11,-101,-104,-172,12
-63,-124,-57,93,-1,-94,-36,-11,-101,-104,-172,12
-51,-118,-63,81,11,-94,-30,-17,-101,-110,-178,12
-51,-118,-63,81,11,-94,-30,-17,-101,-104,-178,12
-57,-118,-57,87,5,-88,-30,-23,-107,-110,-184,6
-57,-118,-57,87,5,-88,-30,-23,-107,-116,-190,0
-51,-112,-57,81,5,-88,-24,-17,-101,-116,-184,6
-45,-112,-63,75,11,-88,-24,-11,-101,-116,-184,6
-45,-106,-57,75,11,-82,-18,-11,-107,-122,-178,12
-39,-100,-57,69,11,-82,-18,-5,-107,-122,-178,12
-39,-106,-63,69,17,-88,-18,-5,-101,-116,-178,18
-51,-106,-51,75,5,-82,-18,-5,-101,-116,-178,12
-39,-94,-51,63,11,-76,-18,-5,-89,-110,-172,18
-39,-94,-51,63,11,-76,-18,-5,-89,-110,-172,18
-39,-106,-63,69,17,-88,-24,-5,-83,-116,-172,18
-39,-100,-57,69,11,-82,-18,-11,-77,-110,-166,12
-39,-112,-69,75,17,-94,-24,-17,-71,-116,-172,6
-33,-112,-75,69,23,-94,-12,-17,-59,-110,-172,6
-33,-94,-57,63,17,-76,-7,-5,-53,-104,-160,12
-27,-82,-51,51,17,-70,-7,1,-47,-92,-160,12
-27,-76,-45,51,11,-64,-1,1,-47,-92,-160,12
-27,-76,-45,51,11,-64,-1,6,-47,-92,-160,12
-33,-76,-40,51,5,-58,11,6,-35,-86,-148,24
-39,-76,-40,57,-1,-58,11,6,-35,-80,-142,30
-57,-70,-22,63,-19,-40,5,6,-35,-74,-136,36
-51,-70,-28,57,-13,-46,11,12,-29,-74,-136,36
-27,-52,-34,39,-1,-40,29,18,-23,-62,-130,42
-15,-34,-28,21,5,-29,35,30,-11,-62,-124,48
3,-22,-34,9,17,-29,41,36,-5,-56,-118,54
20,-17,-40,-3,28,-29,53,48,7,-56,-112,54
15,-17,-40,-3,23,-29,53,48,7,-56,-112,48
15,-17,-40,-3,23,-29,41,42,1,-56,-112,48
9,-17,-28,-3,17,-29,41,42,1,-56,-112,48
9,-17,-28,-3,17,-29,41,36,1,-56,-112,48
-3,-11,-4,-3,-1,-11,35,30,-5,-56,-112,54
-15,-5,14,3,-13,1,29,24,-5,-50,-106,60
-21,1,26,3,-25,13,11,6,-11,-56,-112,60
-27,7,38,3,-31,19,5,6,-11,-56,-100,66
-33,13,50,3,-43,31,-7,6,-17,-56,-100,66
-27,19,50,-3,-37,31,-7,1,-17,-50,-94,72
-33,25,62,-3,-49,43,-12,-11,-23,-56,-94,72
-33,31,68,-3,-49,49,-24,-17,-29,-56,-88,72
-33,37,74,-3,-55,55,-24,-17,-23,-50,-88,78
-21,43,68,-3,-43,55,-24,-17,-23,-44,-76,84
-15,49,68,-8,-43,55,-36,-17,-17,-38,-76,90
-9,49,62,-14,-37,55,-48,-29,-23,-38,-76,90
-9,43,56,-8,-31,49,-60,-29,-29,-38,-76,84
-9,25,38,-3,-25,31,-66,-35,-35,-50,-76,84
-9,13,26,-3,-19,19,-78,-47,-41,-56,-76,66
-15,1,20,-3,-19,7,-84,-47,-41,-56,-76,66
-9,1,14,-3,-13,7,-72,-41,-35,-50,-76,72
-15,-5,14,3,-13,1,-66,-23,-29,-50,-82,72
-15,-11,8,3,-13,-5,-54,-23,-29,-50,-88,72
-15,-17,-4,9,-7,-17,-54,-17,-23,-62,-88,72
-15,-46,-40,27,11,-40,-54,-11,-17,-56,-94,60
-39,-70,-40,51,-1,-52,-42,-11,-29,-68,-106,48
-39,-94,-51,63,11,-76,-42,-5,-35,-74,-112,36
-39,-106,-63,69,17,-88,-42,-11,-41,-80,-124,30
-63,-142,-75,99,11,-112,-54,-23,-59,-110,-142,0
-93,-172,-75,129,-7,-124,-54,-29,-71,-116,-160,-12
-111,-196,-81,153,-13,-142,-60,-41,-77,-122,-166,-24
-135,-208,-69,171,-31,-142,-66,-47,-89,-134,-172,-30
-111,-190,-75,147,-13,-136,-66,-47,-89,-134,-172,-30
-75,-160,-81,117,5,-124,-66,-53,-89,-134,-178,-24
-51,-142,-87,93,23,-118,-60,-47,-83,-128,-172,-18
-27,-130,-99,75,28,-118,-60,-41,-77,-116,-172,-12
-21,-118,-93,69,28,-106,-60,-35,-71,-110,-160,-6
-9,-118,-105,63,40,-112,-60,-35,-71,-110,-154,-6
-27,-106,-75,63,28,-94,-54,-29,-65,-104,-148,0
-27,-100,-69,63,23,-88,-54,-29,-59,-104,-142,0
-27,-112,-81,69,28,-100,-60,-35,-65,-104,-148,0
-33,-118,-81,75,28,-100,-60,-35,-65,-110,-148,0
-33,-130,-93,81,28,-112,-60,-35,-71,-116,-154,-6
-39,-148,-105,93,28,-130,-60,-35,-71,-122,-160,-6
-51,-154,-99,99,28,-130,-66,-47,-77,-122,-160,0
-51,-160,-105,105,28,-136,-72,-47,-77,-128,-166,0
-57,-166,-105,111,28,-136,-78,-47,-83,-128,-166,6
-57,-172,-111,111,28,-142,-78,-47,-83,-128,-166,6
-45,-148,-99,93,28,-124,-48,-23,-71,-110,-154,18
-57,-160,-99,105,23,-130,-60,-35,-71,-122,-166,18
-57,-178,-117,117,28,-148,-54,-35,-71,-122,-154,18
-33,-166,-129,99,40,-148,-30,-17,-59,-110,-154,30
-21,-130,-105,75,34,-118,-12,12,-29,-104,-154,18
-57,-142,-81,99,17,-112,-7,60,7,-92,-166,6
-93,-154,-57,123,-13,-106,29,138,48,-56,-148,-6
-51,-88,-40,69,-7,-64,77,228,120,16,-100,36
-3,-28,-34,15,11,-29,119,324,228,93,-16,96
-3,7,14,-3,-7,7,155,444,354,219,67,155
9,103,98,-50,-43,97,185,558,522,399,205,275
44,253,200,-152,-73,229,191,576,714,621,373,413
86,421,326,-248,-115,373,137,462,876,843,553,563
122,601,470,-362,-175,535,29,276,1020,1053,721,701
194,715,512,-452,-157,613,-168,60,1122,1257,877,833
254,775,518,-512,-133,649,-408,-233,1152,1419,1009,923
302,889,578,-596,-133,733,-672,-587,1128,1557,1135,1037
356,979,620,-668,-127,799,-930,-947,1098,1683,1237,1145
356,979,620,-668,-127,799,-1146,-1223,1038,1659,1225,1157
332,853,512,-590,-85,685,-1284,-1433,894,1455,1075,1055
320,625,296,-476,17,457,-1422,-1613,660,1101,811,851
284,385,92,-332,94,235,-1542,-1805,360,723,535,653
176,217,32,-194,64,127,-1614,-1949,7,327,241,449
92,85,-16,-86,46,37,-1632,-1997,-359,-38,-10,287
68,-28,-105,-14,82,-64,-1596,-1985,-707,-380,-208,137
38,-130,-177,39,106,-154,-1470,-1901,-1019,-680,-382,18
9,-226,-231,105,112,-232,-1278,-1721,-1193,-866,-490,-84
-21,-298,-279,159,118,-286,-1098,-1487,-1145,-866,-502,-120
-21,-316,-291,171,130,-304,-942,-1223,-941,-734,-454,-120
-15,-304,-285,159,130,-298,-798,-971,-737,-620,-418,-120
9,-316,-321,153,160,-322,-690,-809,-629,-548,-388,-108
32,-292,-333,123,184,-310,-600,-683,-539,-494,-358,-96
62,-256,-327,93,196,-292,-492,-527,-431,-416,-310,-78
50,-250,-303,93,178,-274,-372,-389,-329,-338,-280,-66
20,-238,-255,105,130,-250,-306,-293,-275,-314,-268,-60
3,-226,-225,111,106,-226,-246,-239,-245,-290,-250,-60
3,-220,-219,105,100,-220,-192,-173,-209,-254,-226,-60
-3,-220,-213,111,94,-220,-162,-125,-179,-224,-214,-36
-21,-214,-189,117,76,-202,-156,-107,-167,-218,-208,-36
-51,-214,-159,129,46,-190,-138,-83,-149,-200,-202,-42
-39,-190,-147,111,46,-172,-114,-41,-107,-176,-184,-30
-51,-166,-111,105,28,-142,-78,6,-65,-146,-172,0
-45,-160,-111,99,28,-136,-48,30,-47,-134,-154,18
-45,-154,-105,99,28,-130,-30,42,-41,-128,-142,24
-45,-148,-99,93,28,-124,-18,54,-35,-128,-136,24
-39,-142,-99,87,28,-124,-12,60,-41,-128,-136,30
-33,-130,-93,81,28,-112,-7,54,-41,-122,-136,30
-33,-136,-99,81,28,-118,-12,48,-41,-122,-136,24
-33,-136,-99,81,28,-118,-12,42,-41,-116,-130,24
-33,-142,-105,87,28,-124,-12,36,-47,-116,-130,18
-33,-148,-111,87,28,-130,-12,42,-41,-104,-130,18
-45,-154,-105,99,28,-130,-18,54,-35,-104,-130,24
-57,-154,-93,105,23,-124,-12,60,-23,-104,-136,30
-57,-154,-93,105,23,-124,-12,78,-17,-104,-124,30
-69,-160,-87,111,11,-124,-12,84,-11,-110,-130,30
-69,-160,-87,111,11,-124,-12,84,-11,-110,-130,30
-63,-160,-93,111,17,-130,-12,84,-17,-110,-130,36
-57,-160,-99,105,23,-130,-12,72,-17,-110,-118,30
-51,-154,-99,99,28,-130,-12,72,-11,-110,-118,30
-45,-148,-99,93,28,-124,-7,84,-5,-98,-112,36
-51,-142,-87,93,23,-118,-7,84,1,-80,-112,36
-45,-136,-87,87,23,-112,-7,90,7,-68,-106,42
-45,-124,-75,81,17,-100,-1,90,19,-62,-100,48
-45,-130,-81,87,23,-106,-7,96,13,-62,-106,48
-45,-130,-81,87,23,-106,-7,102,24,-62,-100,48
-45,-136,-87,87,23,-112,-7,96,19,-68,-106,54
-45,-136,-87,87,23,-112,-7,96,24,-74,-106,54
-57,-148,-87,99,17,-118,-7,90,24,-74,-106,48
-57,-148,-87,99,17,-118,-7,90,24,-68,-94,60
-69,-160,-87,111,11,-124,-7,90,24,-74,-94,54
-75,-160,-81,117,5,-124,-7,90,24,-74,-94,54
-63,-142,-75,99,11,-112,-7,102,24,-62,-94,60
-45,-124,-75,81,17,-100,-7,114,30,-50,-88,60
-21,-106,-81,63,28,-94,-7,120,42,-44,-88,72
-15,-100,-81,57,28,-94,-1,126,54,-26,-82,72
-27,-106,-75,63,28,-94,-1,126,54,-20,-70,72
-27,-106,-75,63,28,-94,-1,132,54,-20,-70,72
-21,-106,-81,63,28,-94,-1,132,48,-20,-64,72
-21,-100,-75,57,28,-88,-1,132,54,-14,-58,78
-27,-100,-69,63,23,-88,-7,126,60,-14,-52,72
-33,-100,-63,63,17,-82,-7,126,66,-8,-52,78
-21,-88,-63,51,23,-76,-7,126,66,-8,-46,84
-27,-82,-51,51,17,-70,-7,132,66,-2,-46,84
-39,-88,-45,63,5,-70,-7,126,66,-2,-40,78
-39,-94,-51,63,11,-76,-7,138,72,4,-46,78
-45,-94,-45,69,5,-70,5,132,78,4,-46,90
-45,-100,-51,69,5,-76,5,132,84,10,-46,96
-39,-100,-57,69,11,-82,11,138,84,21,-40,102
-33,-76,-40,51,5,-58,11,144,96,21,-40,102
-21,-52,-40,33,5,-40,17,156,114,27,-22,114
-15,-28,-22,21,-1,-29,5,162,120,33,-10,119
-3,-22,-28,9,11,-29,11,168,132,51,2,119
3,-17,-22,3,11,-23,11,174,132,57,8,125
20,-11,-28,-3,23,-23,17,180,144,69,20,137
20,-11,-34,-3,28,-23,29,198,150,81,32,155
26,7,-28,-14,28,-11,23,204,162,93,32,155
26,19,-16,-20,28,1,11,210,174,99,38,155
32,31,-10,-32,28,13,-1,216,186,105,44,155
44,43,-10,-44,28,19,-1,216,186,117,49,179
32,43,2,-38,23,25,-7,216,198,129,49,179
26,49,14,-38,11,31,-7,216,204,135,67,185
20,55,26,-38,5,43,-7,204,216,141,79,191
20,55,26,-38,5,43,-12,204,222,153,91,203
20,49,26,-32,-1,37,-18,216,228,171,91,215
20,55,26,-38,5,43,-24,216,234,183,103,221
20,49,20,-32,5,37,-24,222,246,189,109,239
20,55,26,-38,5,43,-24,228,258,201,121,251
26,61,26,-44,5,43,-30,234,270,213,139,257
32,73,32,-50,5,55,-36,234,276,231,151,269
56,91,26,-74,23,61,-42,234,288,243,175,287
62,109,38,-86,17,73,-42,234,300,261,193,299
74,139,56,-104,17,97,-42,240,324,285,211,329
74,145,62,-110,11,103,-60,246,342,309,235,335
80,169,80,-122,5,127,-66,246,366,333,265,359
98,199,92,-146,11,145,-66,246,378,351,283,365
98,205,98,-152,5,151,-78,240,384,357,283,371
98,199,92,-146,11,145,-84,246,390,363,289,383
92,193,92,-140,5,145,-96,246,384,375,289,389
110,217,98,-164,11,157,-96,246,384,375,289,389
128,229,98,-182,23,169,-96,246,402,399,313,407
134,253,116,-194,17,187,-102,246,408,405,325,419
146,277,128,-212,17,205,-96,246,420,429,343,437
152,295,140,-224,11,217,-102,246,426,435,355,449
164,295,128,-230,23,211,-108,246,432,447,367,455
164,313,146,-242,17,229,-102,246,432,453,373,461
170,307,134,-242,23,217,-96,240,432,453,379,461
170,307,134,-242,23,217,-96,234,432,459,391,473
158,295,134,-230,17,211,-102,222,426,453,385,467
146,295,146,-224,5,217,-108,216,414,453,379,467
134,283,146,-212,-1,211,-114,198,408,447,373,467
128,277,146,-206,-1,211,-120,198,414,447,373,473
122,277,152,-200,-7,211,-126,198,414,441,379,473
122,277,152,-200,-7,211,-126,192,408,435,373,467
110,277,164,-194,-19,217,-120,192,402,429,379,467
110,277,164,-194,-19,217,-120,192,402,429,379,467
128,295,164,-212,-13,229,-114,186,402,423,379,467
146,301,152,-224,5,223,-96,192,402,429,367,461
164,307,140,-236,17,223,-84,198,402,417,361,455
164,301,134,-236,23,217,-72,198,396,411,349,443
146,283,134,-218,11,211,-72,192,378,393,331,437
134,271,134,-206,5,205,-72,204,366,375,319,431
122,259,134,-194,-1,199,-78,198,348,351,295,419
104,235,128,-170,-7,187,-66,198,330,327,283,407
92,217,116,-152,-7,169,-54,192,324,321,271,389
86,211,116,-146,-7,163,-48,192,312,297,259,377
68,193,116,-128,-19,157,-30,186,300,285,241,365
44,175,122,-110,-31,151,-24,174,276,267,223,353
38,163,116,-98,-31,139,-18,168,264,249,199,341
38,151,104,-92,-25,127,-12,162,252,231,187,329
32,127,86,-80,-19,109,-12,150,228,201,163,299
20,121,92,-68,-31,109,-7,138,210,177,139,275
26,109,74,-68,-19,91,-7,138,192,165,127,269
32,109,68,-68,-13,91,-7,132,186,141,115,251
20,85,56,-50,-13,73,-7,132,168,117,103,245
20,61,38,-38,-7,49,-7,126,150,93,91,227
15,43,32,-20,-7,37,-7,120,144,81,79,209
15,37,26,-20,-7,31,-7,114,120,63,61,197
9,19,14,-8,-1,13,-7,84,102,51,49,179
3,13,14,-3,-7,13,-7,78,96,33,32,167
3,1,2,-3,-1,1,-7,78,78,21,26,161
3,1,2,-3,-1,1,-7,72,78,21,14,155
-3,-17,-16,3,5,-23,-7,66,60,16,2,155
-9,-28,-28,15,5,-29,-12,54,48,4,-10,149
-9,-28,-28,15,5,-29,-7,48,36,-8,-22,125
-21,-28,-16,21,-7,-29,-7,36,24,-26,-34,119
-15,-28,-22,21,-1,-29,-7,24,24,-38,-34,119
-15,-34,-28,21,5,-29,-7,18,19,-50,-40,119
-33,-46,-22,39,-7,-29,-7,6,19,-50,-52,114
-27,-46,-28,33,-1,-34,-7,12,13,-56,-52,108
-21,-40,-28,27,-1,-29,-7,6,13,-62,-58,108
-3,-34,-40,15,17,-34,-7,6,13,-68,-58,108
-9,-40,-40,21,11,-34,-7,6,1,-74,-70,102
-15,-46,-40,27,11,-40,-7,6,-5,-86,-70,96
-27,-58,-40,39,5,-46,-7,-5,-23,-92,-76,90
-33,-70,-40,51,5,-52,-12,-17,-29,-104,-82,78
-45,-82,-40,63,-1,-58,-18,-23,-35,-110,-88,66
-51,-106,-51,75,5,-82,-24,-23,-41,-116,-94,60
-69,-112,-40,87,-13,-76,-30,-23,-47,-122,-100,60
-57,-112,-51,81,-1,-82,-30,-23,-53,-128,-100,60
-45,-100,-51,69,5,-76,-24,-29,-53,-122,-100,60
-39,-88,-45,63,5,-70,-24,-35,-53,-122,-100,48
-33,-88,-51,57,11,-70,-24,-35,-53,-122,-100,48
-21,-76,-51,45,17,-64,-24,-35,-47,-122,-100,48
-21,-82,-57,51,23,-70,-24,-35,-53,-128,-106,48
-21,-88,-63,51,23,-76,-24,-41,-53,-122,-106,48
-21,-94,-69,57,28,-82,-24,-41,-65,-128,-112,48
-9,-94,-81,51,28,-88,-24,-41,-65,-128,-118,42
-27,-100,-69,63,23,-88,-30,-41,-77,-140,-124,36
-39,-106,-63,69,17,-88,-30,-35,-77,-140,-130,30
-45,-112,-63,75,11,-88,-36,-35,-71,-140,-136,24
-45,-112,-63,75,11,-88,-42,-35,-71,-140,-136,24
-39,-100,-57,69,11,-82,-48,-29,-65,-140,-130,24
-33,-94,-57,63,17,-76,-30,-29,-59,-140,-130,24
-27,-94,-63,57,23,-82,-24,-29,-59,-152,-124,24
-15,-88,-69,51,28,-82,-12,-29,-53,-152,-124,24
-21,-88,-63,51,23,-76,-18,-23,-53,-146,-124,24
-21,-88,-63,51,23,-76,-18,-23,-53,-140,-124,30
-27,-88,-57,57,17,-76,-24,-17,-47,-140,-130,30
-39,-88,-45,63,5,-70,-24,-17,-47,-140,-130,24
-57,-100,-40,75,-7,-70,-24,-23,-53,-146,-136,18
-69,-112,-40,87,-13,-76,-24,-23,-53,-146,-136,18
-81,-124,-40,99,-19,-82,-24,-29,-65,-152,-142,12
-81,-136,-51,105,-13,-94,-24,-29,-65,-152,-142,12
-69,-130,-57,99,-1,-94,-24,-23,-47,-134,-136,18
-63,-118,-51,87,-1,-88,-24,-17,-41,-134,-124,18
-45,-112,-63,75,11,-88,-18,-5,-35,-128,-118,30
-39,-106,-63,69,17,-88,-18,6,-35,-128,-112,30
-39,-106,-63,69,17,-88,-18,1,-35,-122,-118,36
-45,-106,-57,75,11,-82,-18,6,-29,-122,-112,36
-51,-100,-45,75,-1,-76,-18,1,-29,-116,-118,42
-57,-94,-40,75,-7,-64,-18,1,-29,-116,-112,48
-51,-100,-45,75,-1,-76,-18,1,-29,-116,-112,48
-57,-100,-40,75,-7,-70,-18,1,-29,-116,-112,42
-51,-106,-51,75,5,-82,-18,1,-29,-122,-112,36
-51,-106,-51,75,5,-82,-18,1,-29,-116,-106,30
-33,-82,-45,57,11,-64,-12,6,-17,-116,-106,36
-33,-76,-40,51,5,-58,-7,6,-17,-110,-106,36
-33,-64,-40,45,-1,-46,-7,6,-23,-110,-106,36
-33,-58,-34,45,-1,-40,-7,6,-23,-110,-100,36
-39,-76,-40,57,-1,-58,-1,6,-23,-110,-100,36
-45,-88,-40,63,-1,-64,-1,6,-23,-110,-100,36
-39,-88,-45,63,5,-70,5,1,-23,-110,-100,42
-45,-94,-45,69,5,-70,11,6,-17,-104,-94,42
-51,-88,-40,69,-7,-64,11,6,-23,-104,-94,42
-57,-94,-40,75,-7,-64,11,1,-23,-104,-94,42
-63,-88,-34,75,-19,-58,5,-5,-29,-104,-94,36
-63,-88,-34,75,-19,-58,5,-5,-29,-104,-94,36
-63,-94,-40,75,-13,-64,5,1,-23,-98,-94,42
-63,-100,-40,81,-13,-70,5,-5,-23,-98,-94,42
-69,-106,-40,87,-13,-70,5,-5,-29,-98,-94,42
-75,-106,-40,87,-19,-70,5,-5,-29,-98,-94,42
-63,-94,-40,75,-13,-64,17,-5,-17,-98,-88,48
-51,-88,-40,69,-7,-64,17,-5,-17,-92,-88,48
-33,-76,-40,51,5,-58,23,-5,-11,-92,-82,54
-21,-70,-45,45,17,-58,23,1,-11,-92,-88,54
-33,-82,-45,57,11,-64,17,-5,-17,-98,-94,48
-39,-82,-40,57,5,-64,17,-11,-23,-98,-94,36
-45,-88,-40,63,-1,-64,17,-17,-29,-104,-100,24
-51,-88,-40,69,-7,-64,17,-17,-35,-110,-100,18
-57,-100,-40,75,-7,-70,23,-11,-41,-116,-94,24
-57,-100,-40,75,-7,-70,23,-11,-41,-116,-100,24
-51,-106,-51,75,5,-82,29,-17,-35,-116,-94,24
-51,-94,-40,69,-1,-70,29,-17,-35,-116,-94,24
-63,-112,-45,87,-7,-82,23,-23,-41,-122,-94,24
-69,-124,-51,93,-7,-88,17,-23,-47,-122,-100,24
-69,-130,-57,99,-1,-94,11,-29,-59,-134,-100,18
-75,-124,-45,99,-13,-88,5,-29,-59,-134,-106,18
-63,-112,-45,87,-7,-82,11,-23,-47,-128,-100,24
-57,-106,-45,81,-1,-76,11,-23,-41,-128,-100,18
-45,-94,-45,69,5,-70,17,-17,-35,-122,-94,24
-21,-70,-45,45,17,-58,17,-17,-41,-116,-94,24
-27,-76,-45,51,11,-64,23,-17,-41,-116,-94,18
-39,-88,-45,63,5,-70,23,-17,-41,-122,-100,18
-51,-106,-51,75,5,-82,17,-17,-47,-122,-100,12
-51,-112,-57,81,5,-88,17,-23,-53,-122,-100,12
-51,-112,-57,81,5,-88,11,-29,-59,-128,-106,12
-57,-106,-45,81,-1,-76,11,-29,-53,-128,-106,12
-51,-100,-45,75,-1,-76,5,-29,-59,-134,-112,18
-57,-100,-40,75,-7,-70,5,-29,-65,-140,-112,18
-63,-112,-45,87,-7,-82,11,-35,-65,-140,-112,12
-63,-112,-45,87,-7,-82,11,-35,-77,-140,-112,12
-57,-112,-51,81,-1,-82,11,-35,-77,-146,-106,6
-63,-112,-45,87,-7,-82,-1,-47,-71,-146,-112,0
-51,-94,-40,69,-1,-70,5,-41,-71,-140,-106,6
-39,-88,-45,63,5,-70,5,-35,-71,-140,-106,6
-27,-82,-51,51,17,-70,11,-29,-77,-140,-100,12
-21,-76,-51,45,17,-64,17,-29,-77,-140,-100,12
-27,-82,-51,51,17,-70,11,-29,-77,-134,-100,6
-33,-94,-57,63,17,-76,11,-29,-77,-134,-100,0
-39,-100,-57,69,11,-82,5,-29,-77,-128,-100,-12
-51,-112,-57,81,5,-88,5,-29,-77,-128,-106,-18
-57,-118,-57,87,5,-88,5,-29,-77,-134,-106,-30
-63,-130,-63,93,5,-100,5,-29,-77,-134,-106,-36
-69,-136,-63,99,-1,-100,-1,-35,-83,-146,-106,-60
-69,-136,-63,99,-1,-100,-1,-35,-83,-146,-106,-66
-81,-142,-57,111,-7,-100,-7,-41,-89,-158,-118,-72
-87,-148,-57,117,-13,-106,-7,-47,-89,-158,-118,-72
-99,-160,-57,129,-19,-112,-7,-53,-89,-164,-124,-78
-99,-160,-57,129,-19,-112,-7,-59,-89,-158,-124,-78
-93,-136,-40,111,-25,-88,-7,-59,-95,-158,-124,-78
-87,-130,-40,105,-19,-88,-7,-59,-95,-164,-124,-78
-81,-118,-40,99,-19,-76,-7,-53,-101,-164,-124,-78
-75,-112,-40,93,-19,-76,-7,-53,-101,-158,-124,-78
-63,-112,-45,87,-7,-82,-7,-47,-95,-152,-118,-78
-63,-112,-45,87,-7,-82,-7,-53,-95,-158,-118,-84
-57,-112,-51,81,-1,-82,-7,-47,-89,-152,-112,-84
-63,-130,-63,93,5,-100,-7,-47,-89,-152,-112,-84
-69,-136,-63,99,-1,-100,-7,-53,-95,-158,-112,-84
-81,-124,-40,99,-19,-82,-7,-53,-101,-158,-118,-84
-87,-130,-40,105,-19,-88,-7,-59,-107,-164,-118,-84
-81,-130,-45,105,-13,-88,-7,-59,-107,-164,-118,-84
-69,-130,-57,99,-1,-94,-1,-35,-95,-164,-100,-84
-75,-142,-63,105,-1,-106,-7,-35,-107,-164,-112,-84
-81,-154,-69,117,-1,-112,-7,-47,-107,-164,-112,-90
-57,-142,-81,99,17,-112,-7,-47,-107,-152,-106,-90
-45,-118,-69,81,17,-94,-1,-35,-101,-152,-100,-78
-51,-124,-69,87,11,-100,-7,-41,-101,-152,-106,-84
-57,-130,-69,93,11,-100,-7,-47,-101,-152,-106,-84
-63,-136,-69,99,5,-106,-7,-53,-101,-152,-112,-90
-69,-142,-69,105,5,-106,-7,-59,-101,-152,-112,-90
-69,-142,-69,105,5,-106,-7,-65,-107,-158,-112,-96
-75,-142,-63,105,-1,-106,-7,-65,-107,-158,-112,-96
-75,-142,-63,105,-1,-106,-12,-71,-113,-164,-112,-108
-75,-136,-57,105,-7,-100,-12,-71,-113,-164,-112,-108
-57,-124,-63,87,5,-94,-7,-65,-101,-158,-112,-96
-51,-112,-57,81,5,-88,-7,-59,-101,-152,-112,-96
-51,-106,-51,75,5,-82,-1,-53,-95,-146,-112,-90
-45,-94,-45,69,5,-70,5,-47,-95,-152,-118,-96
-51,-100,-45,75,-1,-76,-1,-47,-95,-158,-112,-96
-51,-106,-51,75,5,-82,-1,-47,-95,-158,-112,-96
-63,-112,-45,87,-7,-82,-7,-53,-107,-170,-106,-96
-63,-112,-45,87,-7,-82,-7,-53,-107,-170,-106,-96
-63,-124,-57,93,-1,-94,-7,-59,-107,-164,-106,-96
-75,-124,-45,99,-13,-88,-7,-59,-107,-164,-106,-102
-63,-118,-51,87,-1,-88,-7,-65,-101,-158,-100,-102
-63,-118,-51,87,-1,-88,-7,-65,-101,-158,-100,-102
-69,-118,-45,93,-7,-82,-7,-59,-101,-164,-100,-102
-75,-106,-40,87,-19,-70,-1,-59,-101,-158,-94,-102
-81,-106,-34,93,-25,-64,-1,-59,-101,-164,-100,-108
-81,-100,-28,87,-31,-58,11,-53,-95,-158,-100,-102
-81,-94,-22,87,-31,-52,11,-47,-95,-158,-88,-96
-75,-88,-22,81,-31,-52,17,-41,-89,-146,-88,-96
-75,-94,-28,81,-25,-58,11,-47,-95,-152,-88,-96
-75,-100,-34,87,-25,-64,11,-41,-95,-152,-88,-96
-69,-88,-28,75,-25,-52,35,-29,-77,-146,-82,-90
-63,-76,-22,69,-25,-46,35,-23,-77,-140,-76,-84
-69,-58,2,63,-37,-29,41,-17,-71,-134,-76,-84
-51,-46,-4,45,-25,-29,47,-11,-65,-134,-76,-84
-51,-46,-4,45,-25,-29,53,-17,-65,-128,-70,-84
-57,-40,8,45,-37,-23,53,-11,-59,-128,-70,-78
-63,-46,8,51,-37,-29,47,-17,-59,-128,-64,-78
-63,-52,2,57,-37,-29,53,-11,-53,-128,-64,-78
-63,-52,2,57,-37,-29,59,-11,-53,-128,-58,-84
-63,-52,2,57,-37,-29,53,-17,-59,-128,-58,-84
-63,-46,8,51,-37,-29,59,-17,-59,-128,-52,-84
-63,-46,8,51,-37,-29,65,-23,-59,-128,-52,-84
-63,-22,32,39,-49,-5,59,-17,-59,-122,-46,-72
-63,-17,44,33,-55,7,53,-23,-59,-116,-40,-66
-57,-5,56,21,-55,25,35,-29,-59,-116,-40,-60
-51,7,62,15,-55,31,29,-29,-59,-116,-28,-54
-57,25,86,9,-73,55,17,-41,-59,-104,-22,-42
-51,31,86,3,-67,55,5,-47,-59,-98,-16,-36
-57,49,110,-3,-85,79,-1,-59,-59,-92,-10,-24
-57,55,116,-3,-85,85,-7,-65,-65,-92,-4,-24
-63,55,122,-3,-91,85,-7,-71,-65,-98,-4,-30
-57,55,116,-3,-85,85,-7,-71,-65,-92,8,-24
-57,55,116,-3,-85,85,-24,-77,-65,-98,8,-30
-57,49,110,-3,-85,79,-36,-89,-71,-98,8,-30
-45,49,98,-3,-73,73,-36,-83,-83,-104,-4,-30
-39,37,80,-3,-61,55,-36,-89,-89,-116,-4,-30
-27,31,62,-3,-43,43,-36,-95,-101,-128,-16,-42
-27,25,56,-3,-43,37,-36,-95,-101,-128,-16,-42
-21,31,56,-3,-37,43,-24,-83,-83,-110,-10,-36
-21,25,50,-3,-37,37,-12,-59,-71,-104,-10,-42
-21,25,50,-3,-37,37,-7,-53,-59,-92,-10,-42
-15,13,32,-3,-25,19,-7,-41,-47,-98,-4,-48
-27,-17,2,21,-19,-17,-7,-47,-53,-104,-22,-66
-57,-52,-4,51,-31,-29,-1,-47,-71,-122,-40,-84
-69,-82,-22,75,-25,-46,-1,-53,-89,-140,-58,-102
-75,-106,-40,87,-19,-70,-7,-59,-101,-152,-76,-114
-87,-124,-40,105,-25,-82,-7,-59,-107,-170,-82,-120
-99,-142,-40,117,-25,-94,-7,-65,-113,-170,-88,-126
-105,-148,-40,123,-31,-94,-1,-65,-107,-164,-82,-120
-111,-148,-40,129,-37,-94,-7,-71,-113,-170,-76,-120
-105,-154,-45,129,-25,-100,-7,-83,-119,-176,-82,-132
-93,-148,-51,117,-19,-100,-7,-89,-125,-182,-88,-132
-87,-154,-63,117,-7,-112,-7,-95,-125,-182,-88,-138
-87,-166,-75,123,-1,-124,-7,-89,-125,-176,-88,-138
-81,-160,-75,117,-1,-118,-7,-95,-137,-182,-88,-144
-69,-160,-87,111,11,-124,-7,-101,-143,-188,-94,-144
-87,-154,-63,117,-7,-112,-7,-107,-155,-194,-100,-150
-87,-148,-57,117,-13,-106,-7,-113,-155,-200,-106,-150
-93,-154,-57,123,-13,-106,-7,-113,-149,-188,-100,-144
-99,-154,-51,123,-19,-106,-7,-113,-149,-188,-94,-144
-105,-160,-51,129,-25,-106,-7,-107,-143,-182,-88,-144
-111,-172,-57,141,-25,-118,-7,-107,-143,-182,-88,-144
-105,-160,-51,129,-25,-106,-7,-107,-143,-176,-82,-138
-99,-154,-51,123,-19,-106,-7,-107,-143,-182,-88,-138
-87,-142,-51,111,-13,-100,-7,-95,-143,-176,-82,-132
-81,-136,-51,105,-13,-94,-7,-95,-143,-176,-82,-132
-45,-112,-63,75,11,-88,11,-83,-119,-158,-70,-120
-69,-136,-63,99,-1,-100,-1,-83,-119,-158,-70,-132
-117,-166,-45,141,-31,-106,-7,-95,-131,-170,-82,-144
-105,-166,-57,135,-19,-112,17,-77,-119,-170,-82,-144
-81,-166,-81,123,5,-124,47,-23,-77,-140,-70,-144
-69,-130,-57,99,-1,-94,89,36,-29,-116,-58,-132
-57,-70,-22,63,-19,-40,137,114,36,-56,-28,-120
-63,-64,-10,63,-31,-34,161,192,108,16,20,-84
-75,-28,38,51,-61,-5,167,264,204,93,67,-48
-39,55,98,-3,-67,73,203,384,342,243,187,36
20,211,194,-110,-85,199,263,510,534,447,355,155
44,349,296,-200,-121,325,293,540,738,681,529,299
74,499,422,-284,-169,457,251,438,888,903,709,443
122,625,494,-374,-187,559,149,264,1032,1125,883,587
158,703,536,-428,-187,619,-36,48,1122,1329,1009,689
206,775,566,-488,-181,673,-264,-233,1116,1455,1123,773
278,877,590,-578,-151,733,-504,-563,1080,1581,1231,869
308,949,632,-626,-157,787,-720,-875,1026,1659,1279,947
296,901,596,-596,-145,745,-888,-1145,924,1563,1213,899
284,721,434,-500,-67,577,-1014,-1385,732,1299,1009,737
272,493,212,-386,28,355,-1152,-1553,498,963,745,539
194,301,104,-242,40,205,-1248,-1745,186,591,463,341
80,133,44,-104,23,91,-1332,-1907,-185,201,181,155
44,13,-40,-26,34,-11,-1386,-1961,-545,-170,-46,24
20,-88,-105,33,52,-100,-1386,-1949,-887,-494,-232,-102
-69,-214,-141,141,28,-178,-1290,-1877,-1175,-806,-394,-216
-135,-304,-171,219,23,-244,-1140,-1709,-1283,-950,-454,-294
-141,-334,-195,237,28,-268,-978,-1487,-1181,-914,-442,-306
-117,-304,-189,213,28,-250,-822,-1247,-983,-794,-400,-306
-63,-268,-207,165,64,-244,-672,-1031,-809,-680,-346,-306
20,-238,-255,105,130,-250,-558,-845,-689,-596,-292,-282
56,-214,-279,69,166,-244,-474,-725,-587,-506,-250,-258
38,-202,-249,75,142,-226,-378,-599,-497,-440,-214,-240
20,-202,-225,87,118,-214,-276,-461,-413,-374,-178,-216
20,-202,-219,87,112,-214,-180,-329,-323,-326,-142,-198
-21,-226,-201,123,82,-214,-114,-263,-269,-302,-136,-198
-57,-256,-195,153,58,-226,-72,-221,-239,-290,-124,-198
-63,-232,-165,147,40,-202,-42,-185,-215,-260,-112,-186
-57,-214,-153,135,40,-184,-12,-143,-191,-236,-94,-186
-51,-178,-123,111,28,-154,5,-107,-161,-218,-76,-180
-39,-154,-111,93,28,-136,29,-65,-131,-188,-64,-156
-51,-154,-99,99,28,-130,53,-41,-113,-170,-52,-150
-69,-148,-75,105,5,-112,59,-29,-107,-158,-46,-156
-81,-154,-69,117,-1,-112,65,-17,-101,-158,-40,-150
-87,-160,-69,123,-7,-118,77,-5,-95,-158,-40,-150
-93,-166,-69,129,-7,-118,71,1,-101,-164,-46,-144
-93,-166,-69,129,-7,-118,77,-5,-101,-158,-52,-144
-87,-160,-69,123,-7,-118,77,-5,-101,-164,-46,-144
-81,-148,-63,111,-7,-106,77,-11,-95,-158,-40,-144
-75,-142,-63,105,-1,-106,83,-11,-101,-164,-34,-144
-69,-136,-63,99,-1,-100,83,-5,-89,-152,-34,-144
-69,-130,-57,99,-1,-94,89,6,-83,-140,-22,-132
-69,-124,-51,93,-7,-88,107,12,-71,-134,-16,-120
-57,-112,-51,81,-1,-82,119,36,-65,-122,8,-120
-57,-112,-51,81,-1,-82,131,48,-59,-122,14,-114
-57,-112,-51,81,-1,-82,131,42,-59,-116,8,-114
-57,-112,-51,81,-1,-82,131,42,-65,-116,8,-108
-51,-112,-57,81,5,-88,131,24,-65,-110,14,-114
-51,-106,-51,75,5,-82,131,24,-59,-110,14,-114
-57,-112,-51,81,-1,-82,125,24,-65,-116,8,-120
-69,-118,-45,93,-7,-82,119,24,-65,-110,8,-120
-75,-124,-45,99,-13,-88,113,18,-71,-116,2,-126
-81,-124,-40,99,-19,-82,107,18,-65,-122,8,-126
-69,-112,-40,87,-13,-76,113,36,-59,-110,14,-120
-57,-106,-45,81,-1,-76,113,42,-47,-98,20,-120
-45,-94,-45,69,5,-70,119,48,-41,-92,26,-108
-33,-88,-51,57,11,-70,119,48,-35,-86,26,-102
-51,-100,-45,75,-1,-76,113,36,-35,-86,20,-114
-57,-100,-40,75,-7,-70,113,30,-41,-86,26,-108
-75,-112,-40,93,-19,-76,113,24,-41,-92,20,-120
-87,-112,-34,99,-31,-70,113,18,-47,-98,14,-120
-81,-100,-28,87,-31,-58,119,30,-41,-86,20,-120
-63,-88,-34,75,-19,-58,119,36,-35,-80,26,-120
-45,-76,-40,57,-7,-52,125,42,-23,-74,32,-108
-39,-76,-40,57,-1,-58,131,42,-17,-62,38,-108
-39,-64,-34,51,-7,-46,131,42,-17,-50,44,-102
-33,-58,-34,45,-1,-40,131,48,-17,-50,44,-102
-15,-40,-34,27,5,-34,131,48,-23,-44,44,-96
-9,-28,-28,15,5,-29,131,48,-17,-38,49,-90
-15,-34,-28,21,5,-29,131,54,-11,-38,49,-90
-21,-40,-28,27,-1,-29,131,54,-5,-32,49,-84
-9,-34,-34,21,11,-29,131,66,-5,-32,61,-72
-15,-34,-28,21,5,-29,131,72,-5,-26,61,-72
-27,-40,-22,33,-7,-29,125,72,-5,-20,67,-78
-27,-46,-28,33,-1,-34,125,84,1,-14,67,-78
-33,-46,-22,39,-7,-29,125,84,7,-8,67,-66
-33,-52,-28,39,-7,-34,125,84,13,-2,73,-60
-33,-58,-34,45,-1,-40,131,90,13,10,73,-60
-27,-46,-28,33,-1,-34,131,96,24,16,73,-60
-21,-28,-16,21,-7,-29,137,108,30,21,85,-54
-15,-17,-10,15,-7,-23,125,114,36,21,97,-48
-15,-17,-10,15,-7,-23,119,108,42,27,103,-48
-15,-17,2,9,-7,-11,119,108,42,33,109,-42
-9,-11,2,3,-7,-5,113,102,48,33,115,-42
-9,-11,2,3,-7,-5,125,114,54,45,127,-24
-9,1,14,-3,-13,7,131,120,60,57,139,-12
-15,7,26,-3,-19,13,119,126,72,63,145,-12
-21,13,38,-3,-31,25,119,132,78,69,163,0
-15,19,38,-3,-25,25,119,132,78,81,169,24
-3,31,38,-8,-19,31,125,144,90,105,175,24
9,49,44,-20,-19,43,131,144,102,117,193,30
20,67,44,-38,-7,55,131,144,114,135,199,36
32,79,38,-56,5,61,131,144,126,153,211,48
26,85,50,-56,-7,67,119,150,132,165,217,54
32,97,56,-62,-7,79,113,150,138,177,229,60
32,103,62,-68,-7,85,107,150,150,177,241,72
32,115,74,-74,-13,97,107,156,162,189,253,84
38,127,80,-80,-13,103,101,156,180,207,271,96
44,139,86,-92,-13,115,95,156,186,231,283,108
68,163,86,-116,-1,127,89,150,198,249,301,119
74,181,98,-128,-7,139,89,150,210,273,319,131
80,199,110,-140,-7,157,83,150,228,285,331,149
80,199,110,-140,-7,157,65,156,246,303,349,155
80,211,122,-146,-13,169,53,156,264,315,373,167
98,229,128,-164,-7,181,53,150,270,327,385,179
104,241,134,-176,-7,193,47,150,276,339,397,197
104,241,134,-176,-7,193,41,156,288,351,409,209
104,241,134,-176,-7,193,35,162,282,369,421,227
122,271,146,-200,-7,211,35,162,288,375,433,227
116,259,140,-188,-7,205,23,150,294,387,445,245
110,259,146,-188,-13,205,17,144,300,387,451,251
98,253,152,-176,-19,205,11,138,300,399,457,269
92,247,152,-170,-25,205,5,132,306,399,463,275
110,271,158,-194,-19,211,-7,138,312,411,475,293
122,301,176,-212,-19,235,-7,138,312,417,481,299
134,319,182,-230,-19,247,-7,144,312,417,487,311
146,331,182,-242,-13,253,-7,138,312,423,499,323
140,325,182,-236,-13,253,-7,132,318,429,499,323
140,325,182,-236,-13,253,-7,126,306,429,499,323
134,319,182,-230,-19,247,-7,114,312,435,499,329
140,313,170,-230,-7,241,-7,114,318,435,505,335
146,319,170,-236,-7,241,-7,120,324,435,511,335
146,319,170,-236,-7,241,-7,120,318,429,505,329
146,325,176,-236,-7,247,5,126,318,429,511,329
146,325,176,-236,-7,247,11,132,318,429,511,329
134,319,182,-230,-19,247,5,120,306,411,505,317
134,313,176,-224,-13,241,17,120,294,411,493,311
122,295,170,-212,-19,229,17,120,282,387,481,293
104,277,170,-194,-25,223,23,114,264,375,469,281
92,265,170,-182,-31,217,29,114,264,369,463,269
80,253,170,-170,-37,211,29,126,258,357,451,263
74,247,170,-164,-43,211,29,126,252,345,439,245
56,223,164,-140,-49,199,41,126,240,327,421,233
62,217,146,-140,-37,181,53,126,228,315,403,221
62,217,146,-140,-37,181,65,126,216,291,391,209
62,211,140,-134,-31,175,83,126,198,273,367,203
44,199,146,-122,-43,175,95,114,174,261,349,185
44,193,140,-116,-43,169,107,126,168,249,343,185
44,181,128,-110,-37,157,113,126,156,237,337,179
44,163,110,-104,-25,139,119,132,144,219,331,161
32,157,116,-92,-37,139,125,126,126,201,313,143
38,151,104,-92,-25,127,137,126,108,189,289,125
38,151,104,-92,-25,127,149,120,102,165,277,119
26,133,98,-80,-31,115,155,120,84,141,253,102
20,109,86,-62,-31,97,161,114,66,117,235,84
20,97,80,-50,-31,85,167,108,60,105,229,78
20,91,74,-50,-25,79,167,102,42,87,211,66
20,79,62,-44,-19,67,167,72,24,75,193,60
15,73,62,-38,-25,67,167,66,24,57,175,48
9,67,62,-32,-25,61,167,66,19,39,169,30
3,67,68,-26,-31,67,173,60,13,33,157,18
-9,49,62,-14,-37,55,167,54,-5,21,145,6
-21,31,56,-3,-37,43,155,42,-23,16,133,-6
-27,13,44,-3,-37,25,161,42,-29,4,115,-24
-39,7,50,9,-43,25,161,30,-41,-14,97,-30
-39,-11,32,15,-37,7,167,24,-47,-26,91,-30
-39,-17,20,21,-31,-5,167,18,-53,-38,79,-36
-63,-34,20,45,-43,-17,155,6,-71,-50,67,-42
-63,-40,14,51,-43,-23,149,6,-83,-56,73,-48
-63,-46,8,51,-37,-29,137,-11,-101,-74,67,-48
-51,-46,-4,45,-25,-29,131,-17,-107,-80,73,-48
-33,-34,-10,33,-13,-29,143,-11,-101,-74,73,-42
-27,-22,-4,21,-13,-23,149,-5,-101,-80,73,-42
-15,-17,-10,15,-7,-23,155,-5,-101,-74,79,-36
-9,-17,-10,9,-1,-17,155,-5,-101,-80,73,-42
-21,-22,-10,21,-7,-23,155,-11,-107,-80,67,-54
-27,-46,-28,33,-1,-34,149,-11,-113,-80,61,-60
-45,-52,-16,45,-19,-29,149,-11,-119,-80,55,-60
-33,-52,-28,39,-7,-34,149,-11,-125,-80,55,-60
-33,-58,-34,45,-1,-40,149,-23,-137,-86,55,-66
-39,-58,-28,45,-7,-40,149,-29,-143,-92,55,-78
-45,-76,-40,57,-7,-52,143,-35,-155,-104,55,-84
-45,-76,-40,57,-7,-52,143,-35,-155,-110,55,-84
-51,-76,-34,63,-13,-52,149,-29,-149,-110,49,-84
-51,-82,-40,63,-7,-58,149,-29,-149,-104,49,-84
-57,-82,-34,69,-13,-52,155,-23,-149,-104,49,-84
-45,-82,-40,63,-1,-58,155,-17,-149,-104,49,-90
-51,-76,-34,63,-13,-52,161,-23,-155,-110,49,-90
-51,-76,-34,63,-13,-52,161,-17,-155,-110,49,-96
-45,-70,-34,57,-7,-46,167,-23,-143,-104,49,-96
-33,-64,-40,45,-1,-46,161,-23,-143,-104,55,-96
-39,-70,-40,51,-1,-52,143,-11,-143,-104,49,-102
-45,-76,-40,57,-7,-52,155,-11,-137,-104,49,-108
-51,-94,-40,69,-1,-70,149,-5,-143,-116,49,-114
-51,-100,-45,75,-1,-76,155,-5,-137,-116,49,-120
-51,-88,-40,69,-7,-64,149,1,-143,-110,49,-120
-45,-88,-40,63,-1,-64,149,1,-143,-104,49,-114
-45,-76,-40,57,-7,-52,143,6,-143,-104,49,-114
-51,-76,-34,63,-13,-52,143,6,-143,-104,49,-120
-51,-70,-28,57,-13,-46,149,1,-143,-110,49,-120
-51,-70,-28,57,-13,-46,149,1,-143,-110,49,-120
-45,-64,-28,51,-13,-40,155,-5,-149,-116,49,-120
-33,-64,-40,45,-1,-46,155,-5,-149,-116,49,-120
-39,-64,-34,51,-7,-46,149,1,-131,-98,49,-114
-39,-58,-28,45,-7,-40,149,1,-125,-98,55,-108
-39,-58,-28,45,-7,-40,149,6,-119,-92,55,-96
-39,-58,-28,45,-7,-40,149,6,-119,-92,55,-90
-39,-64,-34,51,-7,-46,143,6,-125,-86,61,-96
-39,-64,-34,51,-7,-46,143,6,-119,-86,67,-96
-45,-64,-28,51,-13,-40,137,6,-125,-80,73,-102
-45,-58,-22,51,-13,-34,137,1,-125,-80,79,-96
-51,-52,-10,51,-25,-29,137,-5,-125,-74,73,-96
-57,-52,-4,51,-31,-29,137,-5,-125,-74,73,-96
-63,-46,8,51,-37,-29,137,-11,-125,-74,67,-102
-63,-46,8,51,-37,-29,137,-11,-125,-68,73,-102
-57,-40,8,45,-37,-23,131,-17,-119,-74,73,-96
-57,-46,2,51,-31,-29,125,-17,-119,-68,73,-96
-69,-52,8,57,-43,-29,119,-23,-131,-74,73,-96
-69,-58,2,63,-37,-29,113,-23,-131,-74,79,-96
-63,-58,-4,57,-31,-29,119,-17,-125,-68,85,-90
-63,-58,-4,57,-31,-29,119,-17,-125,-62,85,-90
-45,-40,-4,39,-25,-29,125,-11,-119,-56,91,-78
-45,-34,2,39,-25,-23,131,-5,-113,-44,97,-78
-33,-22,2,27,-19,-17,131,1,-113,-38,103,-72
-33,-22,2,27,-19,-17,131,-5,-113,-38,103,-72
-21,-17,2,15,-13,-11,125,-5,-113,-32,109,-72
-15,-17,2,9,-7,-11,125,-5,-113,-32,109,-72
-21,-17,2,15,-13,-11,119,-11,-119,-32,109,-72
-27,-17,8,15,-19,-11,119,-17,-119,-32,109,-72
-39,-17,14,27,-31,-11,113,-29,-137,-38,109,-78
-51,-17,32,27,-43,1,113,-29,-137,-38,109,-78
-45,-17,26,27,-37,1,119,-29,-125,-44,103,-78
-33,-17,14,21,-25,-5,119,-29,-125,-38,103,-78
-21,-17,2,15,-13,-11,119,-29,-119,-44,97,-78
-9,-17,-10,9,-1,-17,119,-23,-119,-44,91,-78
-21,-22,-10,21,-7,-23,119,-23,-125,-44,91,-84
-27,-22,-4,21,-13,-23,119,-29,-125,-44,91,-90
-33,-28,-4,27,-19,-23,125,-29,-131,-44,91,-102
-39,-28,2,33,-25,-23,125,-29,-131,-50,91,-102
-51,-40,2,45,-31,-29,119,-29,-143,-62,91,-102
-51,-40,2,45,-31,-29,119,-29,-149,-62,85,-102
-51,-46,-4,45,-25,-29,113,-41,-149,-68,85,-108
-51,-34,8,39,-31,-23,113,-41,-155,-68,85,-108
-57,-40,8,45,-37,-23,113,-41,-155,-68,85,-108
-57,-52,-4,51,-31,-29,113,-41,-161,-68,79,-108
-51,-46,-4,45,-25,-29,113,-41,-167,-74,79,-114
-51,-40,2,45,-31,-29,113,-41,-167,-74,73,-114
-39,-28,2,33,-25,-23,119,-35,-161,-68,79,-108
-39,-28,2,33,-25,-23,119,-35,-155,-68,79,-108
-27,-17,2,21,-19,-17,125,-29,-155,-62,85,-102
-9,-11,2,3,-7,-5,125,-29,-161,-56,85,-96
-3,-11,-4,-3,-1,-11,131,-29,-161,-56,85,-102
-15,-17,2,9,-7,-11,131,-29,-161,-62,79,-102
-15,-17,-10,15,-7,-23,125,-29,-167,-62,79,-108
-15,-17,-10,15,-7,-23,125,-35,-173,-62,79,-108
-15,-22,-16,15,-1,-29,119,-41,-179,-68,73,-120
-21,-22,-10,21,-7,-23,119,-41,-173,-74,67,-120
-15,-22,-16,15,-1,-29,113,-41,-179,-80,61,-126
-21,-28,-16,21,-7,-29,113,-41,-185,-92,55,-132
-51,-58,-16,51,-19,-34,113,-53,-191,-98,49,-138
-69,-76,-16,69,-31,-40,107,-59,-203,-98,49,-138
-87,-94,-16,87,-37,-52,101,-65,-209,-110,49,-144
-111,-112,-10,111,-55,-58,83,-83,-203,-110,44,-150
-93,-94,-10,93,-43,-46,89,-77,-203,-104,49,-144
-75,-82,-16,75,-31,-46,95,-71,-203,-104,49,-144
-57,-76,-28,63,-19,-46,101,-65,-209,-104,49,-138
-45,-64,-28,51,-13,-40,113,-65,-209,-104,55,-138
-45,-58,-22,51,-13,-34,113,-65,-203,-104,55,-138
-45,-58,-22,51,-13,-34,113,-65,-197,-104,55,-138
-45,-52,-16,45,-19,-29,113,-65,-191,-104,55,-144
-51,-52,-10,51,-25,-29,113,-65,-185,-104,49,-144
-57,-64,-16,57,-25,-34,113,-71,-191,-110,49,-144
-63,-76,-22,69,-25,-46,113,-71,-197,-110,49,-144
-69,-88,-28,75,-25,-52,107,-83,-209,-122,49,-156
-69,-88,-28,75,-25,-52,107,-83,-215,-122,49,-156
-69,-82,-22,75,-25,-46,95,-77,-215,-128,49,-162
-69,-88,-28,75,-25,-52,95,-77,-215,-128,49,-168
-69,-88,-28,75,-25,-52,89,-71,-215,-128,49,-174
-63,-88,-34,75,-19,-58,89,-71,-215,-122,49,-180
-87,-100,-22,93,-37,-58,89,-71,-209,-122,49,-180
-63,-88,-34,75,-19,-58,101,-71,-209,-116,49,-168
-39,-52,-22,45,-13,-34,113,-65,-197,-104,49,-156
-27,-40,-22,33,-7,-29,101,-65,-215,-110,49,-156
-45,-58,-22,51,-13,-34,95,-71,-215,-116,44,-156
-51,-64,-22,57,-19,-40,89,-71,-221,-116,44,-162
-51,-70,-28,57,-13,-46,89,-71,-221,-116,44,-168
-57,-76,-28,63,-19,-46,83,-71,-227,-116,44,-174
-57,-82,-34,69,-13,-52,83,-71,-227,-116,44,-180
-51,-76,-34,63,-13,-52,89,-71,-221,-122,44,-180
-51,-76,-34,63,-13,-52,89,-71,-221,-122,44,-180
-45,-70,-34,57,-7,-46,95,-71,-215,-128,44,-186
-39,-64,-34,51,-7,-46,95,-71,-215,-128,44,-186
-39,-64,-34,51,-7,-46,107,-65,-215,-128,44,-180
-39,-64,-34,51,-7,-46,107,-65,-215,-122,44,-180
-57,-70,-22,63,-19,-40,113,-59,-221,-122,44,-180
-57,-70,-22,63,-19,-40,113,-59,-221,-128,38,-186
-57,-70,-22,63,-19,-40,107,-65,-221,-122,32,-192
-57,-76,-28,63,-19,-46,101,-65,-221,-122,32,-192
-63,-76,-22,69,-25,-46,95,-77,-233,-122,26,-198
-63,-76,-22,69,-25,-46,89,-77,-233,-122,26,-198
-69,-82,-22,75,-25,-46,95,-83,-239,-128,20,-198
-81,-82,-10,81,-37,-40,95,-83,-239,-128,20,-204
-75,-70,-4,69,-37,-34,101,-89,-239,-134,20,-204
-75,-70,-4,69,-37,-34,101,-89,-239,-134,20,-204
-69,-76,-16,69,-31,-40,101,-77,-233,-128,26,-198
-63,-64,-10,63,-31,-34,107,-71,-233,-122,32,-198
-57,-70,-22,63,-19,-40,107,-65,-227,-116,32,-198
-45,-64,-28,51,-13,-40,119,-53,-221,-110,32,-192
-51,-52,-10,51,-25,-29,125,-47,-215,-110,44,-180
-45,-40,-4,39,-25,-29,131,-41,-215,-98,44,-180
-51,-40,2,45,-31,-29,131,-47,-215,-104,44,-174
-51,-40,2,45,-31,-29,131,-41,-215,-104,44,-174
-51,-34,8,39,-31,-23,149,-35,-209,-104,49,-174
-51,-28,14,39,-37,-17,149,-29,-209,-98,49,-168
-63,-17,38,39,-55,1,149,-29,-215,-98,49,-174
-51,-17,32,27,-43,1,155,-23,-209,-98,49,-174
-51,-17,32,27,-43,1,167,-23,-209,-92,49,-174
-51,-17,38,27,-43,7,167,-17,-203,-92,49,-168
-57,-17,38,33,-49,7,167,-17,-203,-92,49,-168
-51,-17,26,33,-43,-5,173,-11,-197,-92,49,-168
-57,-17,32,33,-49,1,167,-5,-197,-92,49,-174
-57,-17,32,33,-49,1,155,-11,-203,-92,49,-174
-63,-17,44,33,-55,7,149,-5,-203,-92,49,-174
-63,-17,44,33,-55,7,149,-11,-203,-92,49,-174
-57,1,62,21,-61,31,149,-17,-209,-80,55,-162
-57,19,80,9,-67,49,143,-23,-209,-74,61,-156
-45,37,86,-3,-67,61,131,-41,-215,-68,67,-150
-39,55,98,-3,-67,73,125,-41,-215,-68,79,-144
-45,61,110,-3,-79,85,107,-53,-209,-68,73,-144
-45,61,110,-3,-79,85,95,-59,-209,-62,79,-138
-51,67,122,-3,-85,91,83,-71,-203,-68,73,-138
-57,67,128,-3,-91,97,71,-77,-209,-68,79,-138
-45,79,128,-8,-85,103,77,-71,-209,-62,79,-132
-27,91,122,-26,-73,103,83,-65,-209,-56,91,-126
-9,103,116,-38,-61,109,77,-59,-209,-50,91,-120
3,109,110,-50,-55,109,71,-65,-215,-50,91,-120
3,103,104,-44,-49,103,59,-71,-221,-56,85,-126
3,85,86,-38,-43,85,59,-83,-227,-74,85,-126
3,73,74,-32,-37,73,47,-101,-239,-86,79,-144
-3,61,68,-20,-37,61,47,-107,-239,-92,79,-144
-9,43,56,-8,-31,49,47,-95,-227,-80,79,-138
-21,25,50,-3,-37,37,53,-77,-221,-80,73,-138
-33,1,38,9,-37,19,53,-71,-215,-74,67,-138
-39,-17,20,21,-31,-5,53,-65,-215,-86,67,-138
-45,-40,-4,39,-25,-29,65,-59,-215,-86,55,-144
-69,-64,-4,63,-37,-29,77,-59,-221,-98,49,-150
-75,-82,-16,75,-31,-46,89,-53,-233,-110,44,-156
-75,-94,-28,81,-25,-58,89,-59,-239,-116,32,-156
-75,-106,-40,87,-19,-70,77,-71,-257,-140,20,-174
-87,-124,-40,105,-25,-82,77,-83,-263,-140,8,-180
-81,-124,-40,99,-19,-82,71,-95,-269,-140,8,-180
-87,-124,-40,105,-25,-82,65,-107,-275,-146,8,-180
-99,-136,-40,117,-31,-88,59,-107,-281,-158,-4,-186
-99,-136,-40,117,-31,-88,59,-113,-287,-164,-10,-186
-111,-148,-40,129,-37,-94,59,-107,-287,-170,-16,-186
-123,-166,-40,141,-37,-106,59,-101,-287,-164,-16,-186
-111,-160,-45,135,-31,-106,53,-107,-293,-164,-10,-186
-99,-160,-57,129,-19,-112,53,-107,-293,-164,-10,-186
-111,-154,-40,129,-31,-100,53,-113,-299,-164,-10,-186
-111,-148,-40,129,-37,-94,53,-113,-293,-164,-10,-186
-87,-142,-51,111,-13,-100,53,-107,-287,-152,-4,-174
-75,-130,-51,99,-7,-94,53,-101,-281,-152,2,-174
-51,-124,-69,87,11,-100,59,-89,-275,-146,8,-168
-39,-124,-81,81,23,-106,59,-83,-269,-146,8,-168
-63,-142,-75,99,11,-112,59,-95,-275,-152,2,-174
-75,-154,-75,111,5,-118,53,-95,-275,-158,-4,-180
-93,-172,-75,129,-7,-124,53,-95,-281,-164,-10,-186
-105,-184,-75,141,-13,-130,53,-95,-281,-164,-10,-192
-81,-148,-63,111,-7,-106,59,-83,-281,-146,2,-180
-57,-124,-63,87,5,-94,47,-83,-269,-146,2,-168
-57,-130,-69,93,11,-100,41,-95,-269,-146,2,-180
-57,-130,-69,93,11,-100,53,-89,-269,-146,2,-168
-81,-142,-57,111,-7,-100,59,-71,-263,-152,-10,-180
-81,-130,-45,105,-13,-88,101,-35,-239,-128,2,-180
-57,-94,-40,75,-7,-64,173,54,-179,-92,20,-156
-27,-64,-40,45,5,-52,209,144,-95,-20,49,-138
-15,-17,-10,15,-7,-23,227,234,-11,45,103,-108
9,55,50,-26,-19,49,245,324,96,159,175,-48
20,115,98,-62,-37,103,275,444,258,303,295,48
9,199,194,-98,-91,193,305,516,432,495,433,143
38,325,278,-182,-115,301,299,504,594,705,589,257
74,505,428,-290,-175,463,239,384,744,927,757,395
122,655,524,-386,-199,589,107,216,876,1143,913,527
170,727,554,-452,-193,643,-90,12,978,1347,1027,617
236,793,554,-512,-157,679,-318,-245,990,1497,1159,719
296,889,584,-590,-139,733,-552,-569,984,1647,1267,833
320,949,620,-632,-145,781,-756,-851,984,1725,1339,899
296,877,572,-584,-133,721,-936,-1091,894,1641,1255,851
272,673,392,-476,-55,529,-1068,-1307,708,1371,1045,689
254,433,176,-338,34,301,-1206,-1499,480,1011,781,479
176,217,32,-194,64,127,-1332,-1727,138,633,487,275
80,61,-28,-68,46,19,-1422,-1895,-263,213,193,96
44,-40,-93,-3,64,-64,-1470,-1961,-677,-182,-22,-54
20,-130,-153,51,82,-142,-1422,-1943,-1043,-536,-202,-168
-15,-190,-171,99,70,-184,-1278,-1829,-1331,-806,-340,-258
-69,-256,-183,159,46,-220,-1098,-1643,-1403,-914,-388,-306
-93,-304,-213,201,52,-262,-942,-1415,-1277,-866,-352,-318
-75,-304,-231,189,70,-268,-798,-1175,-1067,-722,-310,-318
-51,-304,-255,177,94,-280,-654,-953,-899,-620,-268,-306
-27,-316,-285,171,124,-304,-564,-821,-821,-578,-250,-318
-21,-316,-291,171,130,-304,-492,-725,-743,-542,-238,-312
-9,-292,-279,153,130,-286,-408,-599,-659,-464,-196,-312
-3,-256,-255,129,118,-262,-282,-449,-557,-398,-166,-294
-9,-238,-225,123,100,-232,-162,-323,-467,-326,-124,-258
-21,-232,-207,123,82,-220,-72,-233,-407,-266,-88,-246
-39,-220,-177,129,58,-202,-30,-161,-365,-236,-76,-234
-21,-190,-165,105,64,-178,-7,-119,-329,-218,-58,-222
-15,-166,-147,87,58,-160,17,-95,-299,-200,-52,-216
-39,-178,-135,105,40,-160,17,-77,-293,-200,-40,-204
-63,-178,-111,117,28,-148,17,-53,-287,-194,-40,-198
-57,-160,-99,105,23,-130,35,-41,-269,-182,-34,-192
-57,-148,-87,99,17,-118,53,-17,-251,-170,-22,-186
-57,-142,-81,99,17,-112,71,1,-245,-170,-16,-186
-51,-130,-75,87,17,-106,77,6,-239,-164,-16,-180
-45,-118,-69,81,17,-94,89,6,-239,-158,-16,-180
-51,-130,-75,87,17,-106,95,12,-233,-152,-16,-174
-57,-130,-69,93,11,-100,101,12,-227,-146,-10,-174
-63,-142,-75,99,11,-112,113,18,-227,-140,-10,-168
-69,-148,-75,105,5,-112,119,30,-215,-128,-10,-168
-63,-136,-69,99,5,-106,113,36,-215,-128,-4,-162
-57,-124,-63,87,5,-94,119,42,-209,-122,-4,-156
-39,-106,-63,69,17,-88,119,54,-209,-122,14,-156
-33,-100,-63,63,17,-82,119,60,-203,-122,14,-156
-45,-106,-57,75,11,-82,131,66,-203,-116,2,-156
-51,-112,-57,81,5,-88,143,66,-209,-116,2,-150
-57,-118,-57,87,5,-88,155,60,-209,-110,2,-156
-63,-118,-51,87,-1,-88,167,60,-203,-110,2,-156
-69,-124,-51,93,-7,-88,161,60,-203,-110,2,-156
-75,-130,-51,99,-7,-94,161,60,-203,-98,2,-162
-81,-136,-51,105,-13,-94,155,54,-203,-98,2,-162
-81,-136,-51,105,-13,-94,155,54,-197,-98,8,-162
-75,-130,-51,99,-7,-94,161,60,-197,-98,14,-156
-75,-130,-51,99,-7,-94,167,66,-185,-92,20,-156
-69,-124,-51,93,-7,-88,173,60,-185,-98,26,-144
-69,-124,-51,93,-7,-88,179,60,-179,-98,26,-144
-69,-130,-57,99,-1,-94,179,60,-173,-86,20,-138
-63,-124,-57,93,-1,-94,179,66,-173,-80,32,-126
-63,-130,-63,93,5,-100,185,72,-167,-74,26,-120
-63,-124,-57,93,-1,-94,185,78,-167,-74,26,-120
-69,-124,-51,93,-7,-88,179,72,-173,-74,20,-126
-63,-118,-51,87,-1,-88,179,72,-167,-74,20,-132
-57,-118,-57,87,5,-88,173,60,-167,-80,14,-132
-63,-124,-57,93,-1,-94,179,54,-161,-74,14,-138
-63,-118,-51,87,-1,-88,191,60,-149,-62,26,-132
-57,-112,-51,81,-1,-82,197,72,-149,-56,26,-126
-39,-100,-57,69,11,-82,209,78,-143,-50,32,-120
-33,-88,-51,57,11,-70,215,84,-137,-38,38,-114
-27,-76,-45,51,11,-64,221,90,-125,-32,49,-108
-21,-64,-40,39,11,-52,221,90,-119,-26,49,-102
3,-40,-40,15,23,-40,227,102,-113,-20,49,-84
9,-22,-40,3,23,-29,227,108,-113,-14,49,-84
-9,-34,-34,21,11,-29,221,102,-119,-14,55,-90
-15,-40,-34,27,5,-34,221,114,-113,-8,49,-90
-27,-46,-28,33,-1,-34,221,108,-113,-8,49,-78
-33,-52,-28,39,-7,-34,221,108,-107,-2,49,-72
-27,-58,-40,39,5,-46,227,120,-101,10,55,-72
-15,-40,-34,27,5,-34,233,126,-89,16,55,-72
-3,-22,-28,9,11,-29,233,144,-65,21,73,-66
9,-17,-22,-3,17,-23,233,150,-59,21,85,-60
15,-11,-22,-3,17,-17,233,150,-53,27,85,-54
15,1,-10,-3,11,-5,233,150,-53,33,91,-48
20,13,-10,-14,17,1,239,150,-47,33,91,-42
20,13,-10,-14,17,1,251,162,-41,45,103,-24
20,13,-4,-8,11,1,245,162,-41,51,103,-24
15,7,-4,-3,11,1,233,168,-29,57,103,-24
3,1,2,-3,-1,1,227,168,-29,57,109,-24
9,-5,-10,-3,11,-11,227,168,-29,69,109,0
3,-5,-4,-3,5,-5,227,174,-11,93,115,-6
-3,7,14,-3,-7,7,227,174,1,99,133,0
-3,13,20,-3,-13,13,221,168,19,117,139,0
-3,19,26,-3,-13,19,215,168,24,129,151,12
3,37,38,-14,-19,37,209,186,24,147,157,24
15,55,44,-26,-13,49,203,186,30,159,169,36
20,73,50,-44,-13,61,203,198,42,165,181,54
20,91,62,-56,-13,79,203,204,54,177,193,72
20,85,62,-50,-19,73,197,204,66,183,199,72
20,91,68,-50,-19,79,191,204,72,201,211,78
26,97,62,-62,-13,79,185,198,78,207,223,90
26,109,74,-68,-19,91,185,198,90,231,241,96
38,139,92,-86,-19,115,179,198,108,255,253,119
44,145,92,-92,-19,121,161,204,126,267,271,119
50,169,110,-110,-25,139,149,204,144,291,289,131
74,199,116,-134,-13,157,149,198,156,303,301,143
92,217,116,-152,-7,169,149,204,180,321,319,161
98,223,116,-158,-1,169,143,216,198,339,337,179
110,223,110,-170,5,169,143,228,210,363,355,197
134,259,122,-200,11,193,143,234,222,375,373,203
128,247,116,-188,11,187,131,228,228,387,379,209
116,253,134,-188,-1,199,125,228,228,381,379,215
104,247,140,-176,-13,199,119,228,228,393,379,221
92,247,152,-170,-25,205,113,228,228,387,379,227
92,241,146,-170,-19,199,95,222,240,405,391,239
86,253,164,-170,-31,211,89,216,240,411,397,245
80,241,158,-164,-31,205,83,210,246,417,403,251
74,235,158,-158,-37,199,71,198,246,423,415,263
86,247,158,-170,-31,205,77,198,252,423,421,263
92,265,170,-182,-31,217,77,198,240,423,421,263
104,277,170,-194,-25,223,83,192,246,423,427,269
116,289,170,-206,-19,229,83,198,252,423,433,275
116,289,170,-206,-19,229,77,198,258,423,433,269
116,289,170,-206,-19,229,77,192,252,417,427,257
110,289,176,-200,-25,229,83,192,252,417,427,251
110,289,176,-200,-25,229,83,192,252,417,427,245
116,295,176,-206,-25,235,83,186,252,411,433,245
122,295,170,-212,-19,229,95,192,246,417,421,245
128,289,158,-212,-7,223,101,198,246,405,421,239
116,277,158,-200,-13,217,107,198,234,399,409,233
98,253,152,-176,-19,205,113,192,216,381,391,215
80,241,158,-164,-31,205,113,198,210,369,379,209
68,223,152,-146,-37,193,113,192,192,345,355,185
44,205,152,-122,-49,181,125,186,180,327,337,173
44,187,134,-116,-37,163,131,186,174,321,325,161
44,187,134,-116,-37,163,137,186,162,297,313,149
38,175,128,-104,-37,151,149,186,150,285,295,143
20,163,134,-92,-49,151,155,174,126,267,283,125
26,157,122,-92,-43,139,173,180,108,255,259,119
26,145,110,-86,-37,127,179,174,96,237,247,119
32,127,86,-80,-19,109,191,174,72,213,223,102
20,121,92,-68,-31,109,197,162,54,189,199,84
20,109,80,-62,-25,97,203,162,42,177,181,72
20,109,80,-62,-25,97,209,156,36,159,169,54
15,85,74,-44,-31,79,209,156,24,135,151,42
3,61,62,-26,-31,61,209,150,19,117,139,24
-21,37,62,-3,-43,49,209,144,1,93,121,6
-33,25,62,-3,-49,43,203,132,-29,69,97,-12
-51,1,56,15,-55,25,197,102,-59,45,67,-30
-69,-11,62,33,-67,25,191,90,-71,21,49,-48
-51,-5,50,21,-49,19,203,96,-77,21,49,-54
-33,7,44,3,-37,25,215,90,-77,21,49,-54
-21,1,26,3,-25,13,221,90,-83,21,44,-54
-9,-5,8,-3,-7,1,215,78,-95,16,38,-54
-27,-17,2,21,-19,-17,209,78,-107,4,26,-66
-45,-34,2,39,-25,-23,209,66,-119,-14,14,-72
-57,-58,-10,57,-25,-29,203,60,-131,-26,14,-66
-63,-82,-28,69,-19,-52,203,54,-137,-38,8,-72
-87,-100,-22,93,-37,-58,203,36,-149,-50,-10,-84
-87,-100,-22,93,-37,-58,203,36,-161,-56,-10,-90
-87,-100,-22,93,-37,-58,203,24,-173,-74,-22,-96
-75,-94,-28,81,-25,-58,203,18,-179,-80,-22,-96
-69,-88,-28,75,-25,-52,203,18,-179,-80,-34,-102
-69,-88,-28,75,-25,-52,197,18,-179,-86,-34,-108
-69,-88,-28,75,-25,-52,191,12,-185,-86,-40,-114
-69,-94,-34,81,-19,-58,179,6,-185,-92,-46,-120
-69,-94,-34,81,-19,-58,185,6,-191,-92,-46,-126
-69,-112,-40,87,-13,-76,179,6,-197,-98,-52,-126
-75,-106,-40,87,-19,-70,185,6,-203,-98,-52,-120
-57,-100,-40,75,-7,-70,185,6,-209,-104,-52,-120
-69,-112,-40,87,-13,-76,179,1,-215,-110,-64,-120
-87,-118,-40,99,-25,-76,173,-5,-215,-116,-64,-132
-105,-142,-40,123,-31,-88,161,-11,-221,-128,-76,-138
-117,-148,-40,129,-43,-88,155,-11,-221,-134,-76,-138
-111,-142,-40,123,-37,-88,155,-5,-227,-140,-82,-138
-105,-148,-40,123,-31,-94,155,-11,-227,-134,-82,-138
-99,-142,-40,117,-25,-94,155,-5,-239,-140,-88,-138
-81,-142,-57,111,-7,-100,155,-5,-239,-140,-94,-144
-87,-136,-45,111,-19,-94,155,-11,-245,-146,-88,-144
-93,-142,-45,117,-19,-94,155,-5,-245,-146,-94,-150
-87,-136,-45,111,-19,-94,155,-11,-233,-140,-88,-150
-81,-136,-51,105,-13,-94,149,-11,-233,-140,-88,-150
-87,-124,-40,105,-25,-82,137,1,-227,-134,-94,-150
-87,-124,-40,105,-25,-82,149,1,-221,-134,-94,-150
-93,-124,-40,105,-31,-76,149,6,-221,-140,-100,-150
-87,-124,-40,105,-25,-82,155,6,-215,-140,-100,-150
-81,-118,-40,99,-19,-76,149,6,-221,-134,-94,-150
-75,-118,-40,93,-13,-82,149,6,-221,-128,-94,-144
-69,-112,-40,87,-13,-76,143,6,-221,-128,-94,-144
-75,-112,-40,93,-19,-76,143,6,-221,-128,-94,-150
-87,-118,-40,99,-25,-76,137,6,-221,-134,-94,-150
-93,-124,-40,105,-31,-76,137,6,-221,-134,-94,-150
-99,-130,-40,111,-31,-82,131,6,-227,-140,-94,-150
-93,-136,-40,111,-25,-88,131,6,-227,-140,-94,-150
-93,-130,-40,111,-25,-82,125,6,-221,-128,-100,-150
-93,-124,-40,105,-31,-76,125,6,-215,-128,-94,-150
-87,-118,-40,99,-25,-76,125,12,-221,-128,-100,-144
-87,-118,-40,99,-25,-76,125,18,-221,-128,-100,-144
-87,-130,-40,105,-19,-88,125,12,-221,-122,-100,-150
-93,-136,-40,111,-25,-88,125,18,-215,-122,-94,-150
-99,-142,-40,117,-25,-94,125,12,-215,-116,-94,-156
-105,-142,-40,123,-31,-88,125,12,-215,-116,-88,-150
-111,-142,-40,123,-37,-88,119,12,-215,-110,-88,-138
-117,-142,-34,129,-43,-82,119,12,-215,-110,-88,-138
-123,-142,-28,129,-49,-82,113,12,-209,-110,-88,-132
-123,-142,-28,129,-49,-82,113,12,-209,-104,-82,-132
-87,-112,-34,99,-31,-70,119,18,-191,-92,-76,-120
-69,-94,-34,81,-19,-58,125,24,-185,-80,-70,-120
-51,-76,-34,63,-13,-52,131,30,-185,-68,-64,-114
-33,-58,-34,45,-1,-40,137,36,-179,-62,-52,-108
-45,-76,-40,57,-7,-52,131,30,-185,-68,-52,-114
-57,-82,-34,69,-13,-52,125,30,-191,-68,-52,-114
-57,-82,-34,69,-13,-52,119,24,-197,-74,-52,-114
-69,-82,-22,75,-25,-46,119,30,-197,-68,-46,-114
-63,-76,-22,69,-25,-46,113,30,-197,-68,-52,-108
-63,-82,-28,69,-19,-52,113,24,-197,-68,-52,-108
-57,-76,-28,63,-19,-46,101,18,-197,-68,-58,-108
-51,-76,-34,63,-13,-52,101,18,-197,-68,-58,-108
-57,-76,-28,63,-19,-46,101,18,-191,-68,-58,-102
-57,-76,-28,63,-19,-46,101,12,-191,-68,-58,-102
-69,-76,-16,69,-31,-40,101,6,-197,-74,-58,-102
-75,-70,-4,69,-37,-34,101,6,-197,-74,-58,-102
-75,-76,-10,75,-37,-40,107,12,-191,-74,-58,-102
-69,-82,-22,75,-25,-46,107,12,-191,-68,-58,-102
-63,-88,-34,75,-19,-58,107,18,-191,-68,-58,-102
-57,-94,-40,75,-7,-64,107,24,-191,-68,-64,-102
-51,-94,-40,69,-1,-70,107,18,-197,-62,-64,-96
-51,-88,-40,69,-7,-64,107,12,-197,-62,-64,-102
-39,-82,-40,57,5,-64,113,6,-203,-56,-64,-102
-39,-76,-40,57,-1,-58,113,6,-203,-62,-64,-102
-45,-76,-40,57,-7,-52,113,12,-209,-68,-64,-96
-45,-70,-34,57,-7,-46,113,12,-209,-68,-70,-96
-39,-64,-34,51,-7,-46,113,6,-203,-68,-70,-96
-39,-46,-16,39,-13,-29,113,6,-203,-68,-70,-96
-51,-64,-22,57,-19,-40,107,6,-203,-68,-70,-96
-51,-82,-40,63,-7,-58,107,6,-209,-68,-76,-102
-51,-88,-40,69,-7,-64,101,6,-215,-74,-76,-108
-51,-88,-40,69,-7,-64,101,6,-215,-74,-82,-114
-63,-100,-40,81,-13,-70,95,6,-215,-74,-82,-108
-81,-118,-40,99,-19,-76,95,6,-215,-80,-82,-114
-93,-130,-40,111,-25,-82,89,6,-215,-80,-82,-108
-93,-130,-40,111,-25,-82,89,6,-227,-80,-82,-108
-99,-136,-40,117,-31,-88,89,6,-227,-86,-88,-114
-111,-142,-40,123,-37,-88,89,6,-227,-92,-94,-114
-123,-160,-40,141,-43,-100,77,6,-233,-98,-100,-120
-123,-160,-40,141,-43,-100,77,1,-239,-98,-100,-120
-99,-142,-40,117,-25,-94,83,6,-233,-92,-94,-114
-81,-124,-40,99,-19,-82,89,6,-221,-92,-94,-108
-51,-100,-45,75,-1,-76,95,12,-215,-86,-88,-96
-33,-88,-51,57,11,-70,101,18,-215,-92,-88,-90
-45,-94,-45,69,5,-70,113,18,-215,-86,-88,-84
-45,-94,-45,69,5,-70,113,18,-221,-80,-88,-84
-45,-88,-40,63,-1,-64,119,24,-215,-80,-82,-78
-51,-88,-40,69,-7,-64,107,12,-215,-74,-88,-84
-63,-94,-40,75,-13,-64,101,6,-215,-80,-94,-90
-63,-106,-40,81,-7,-76,95,6,-221,-86,-94,-96
-75,-124,-45,99,-13,-88,89,6,-233,-98,-100,-102
-81,-136,-51,105,-13,-94,89,6,-239,-104,-100,-108
-75,-130,-51,99,-7,-94,83,6,-239,-110,-100,-114
-75,-136,-57,105,-7,-100,83,6,-239,-110,-100,-114
-69,-130,-57,99,-1,-94,77,6,-239,-116,-100,-120
-75,-136,-57,105,-7,-100,77,6,-239,-116,-106,-120
-75,-130,-51,99,-7,-94,83,6,-233,-110,-106,-120
-81,-136,-51,105,-13,-94,83,6,-233,-110,-106,-120
-81,-130,-45,105,-13,-88,83,1,-233,-110,-106,-120
-81,-124,-40,99,-19,-82,83,1,-233,-110,-106,-120
-75,-118,-40,93,-13,-82,77,6,-233,-110,-112,-120
-75,-118,-40,93,-13,-82,77,6,-233,-110,-112,-120
-69,-118,-45,93,-7,-82,77,6,-227,-104,-112,-120
-63,-112,-45,87,-7,-82,77,6,-227,-98,-112,-120
-63,-112,-45,87,-7,-82,71,6,-227,-98,-106,-120
-63,-118,-51,87,-1,-88,71,6,-227,-104,-106,-120
-63,-130,-63,93,5,-100,65,6,-227,-104,-100,-120
-63,-136,-69,99,5,-106,65,6,-227,-98,-100,-120
-63,-130,-63,93,5,-100,65,6,-233,-104,-106,-120
-63,-130,-63,93,5,-100,65,6,-233,-110,-106,-126
-69,-124,-51,93,-7,-88,53,1,-239,-116,-112,-126
-75,-142,-63,105,-1,-106,53,1,-239,-116,-112,-126
-81,-148,-63,111,-7,-106,53,1,-239,-122,-118,-132
-93,-142,-45,117,-19,-94,53,1,-245,-122,-124,-132
-99,-148,-45,123,-25,-100,53,1,-245,-128,-130,-138
-93,-154,-57,123,-13,-106,53,1,-245,-128,-130,-138
-69,-130,-57,99,-1,-94,71,1,-245,-116,-112,-138
-87,-142,-51,111,-13,-100,59,-11,-245,-128,-124,-138
-93,-142,-45,117,-19,-94,53,1,-245,-128,-124,-132
-81,-142,-57,111,-7,-100,59,1,-239,-128,-124,-132
-81,-142,-57,111,-7,-100,65,6,-233,-122,-118,-132
-81,-142,-57,111,-7,-100,65,6,-233,-122,-118,-132
-81,-142,-57,111,-7,-100,71,6,-227,-116,-112,-132
-81,-142,-57,111,-7,-100,71,6,-227,-116,-112,-132
-63,-124,-57,93,-1,-94,77,6,-221,-110,-112,-126
-57,-118,-57,87,5,-88,77,6,-221,-110,-112,-126
-39,-100,-57,69,11,-82,83,12,-215,-104,-112,-126
-27,-88,-57,57,17,-76,83,12,-215,-104,-112,-126
-33,-94,-57,63,17,-76,83,6,-215,-110,-112,-120
-39,-100,-57,69,11,-82,77,6,-215,-104,-112,-120
-63,-112,-45,87,-7,-82,71,6,-221,-110,-112,-120
-69,-118,-45,93,-7,-82,65,6,-221,-116,-118,-126
-69,-124,-51,93,-7,-88,65,6,-221,-116,-118,-126
-69,-136,-63,99,-1,-100,65,6,-221,-116,-118,-126
-75,-142,-63,105,-1,-106,65,6,-233,-122,-118,-126
-75,-148,-69,111,-1,-112,65,6,-233,-122,-118,-126
-75,-154,-75,111,5,-118,59,6,-233,-122,-124,-126
-87,-154,-63,117,-7,-112,59,6,-233,-122,-124,-132
-75,-142,-63,105,-1,-106,53,6,-227,-122,-124,-132
-75,-142,-63,105,-1,-106,53,6,-227,-122,-124,-132
-69,-136,-63,99,-1,-100,53,6,-221,-122,-124,-126
-69,-118,-45,93,-7,-82,59,6,-221,-116,-118,-126
-63,-112,-45,87,-7,-82,59,6,-215,-116,-124,-126
-57,-100,-40,75,-7,-70,71,6,-215,-110,-124,-120
-51,-94,-40,69,-1,-70,83,24,-209,-104,-106,-114
-39,-82,-40,57,5,-64,89,30,-203,-92,-106,-114
-33,-88,-51,57,11,-70,95,36,-203,-92,-100,-108
-27,-88,-57,57,17,-76,95,42,-203,-92,-100,-108
-39,-88,-45,63,5,-70,107,42,-185,-92,-94,-108
-45,-88,-40,63,-1,-64,107,48,-185,-86,-88,-102
-69,-82,-22,75,-25,-46,101,42,-179,-86,-88,-108
-63,-82,-28,69,-19,-52,107,48,-173,-86,-88,-108
-63,-76,-22,69,-25,-46,119,48,-173,-80,-88,-108
-63,-70,-16,63,-25,-40,119,54,-167,-80,-88,-102
-69,-70,-10,69,-31,-34,119,54,-167,-80,-88,-102
-63,-76,-22,69,-25,-46,125,60,-161,-80,-88,-102
-57,-70,-22,63,-19,-40,125,66,-161,-74,-88,-102
-51,-64,-22,57,-19,-40,113,60,-167,-74,-88,-102
-45,-52,-16,45,-19,-29,113,66,-167,-68,-88,-96
-39,-46,-16,39,-13,-29,113,60,-167,-68,-88,-96
-45,-34,2,39,-25,-23,101,54,-173,-62,-82,-84
-51,-28,14,39,-37,-17,95,48,-173,-56,-76,-78
-51,-22,20,33,-37,-11,71,30,-179,-56,-76,-72
-51,-17,26,33,-43,-5,65,30,-179,-56,-64,-66
-57,-17,38,33,-49,7,53,24,-173,-56,-64,-66
-51,-17,38,27,-43,7,41,18,-173,-50,-58,-60
-57,-11,50,27,-55,19,35,12,-167,-56,-58,-60
-57,-5,56,21,-55,25,23,6,-173,-56,-52,-60
-51,7,62,15,-55,31,17,6,-167,-56,-58,-54
-39,19,62,3,-49,37,17,6,-167,-50,-46,-48
-27,31,62,-3,-43,43,-1,6,-161,-50,-52,-42
-21,37,62,-3,-43,49,-7,6,-167,-50,-52,-42
-15,31,50,-3,-31,37,-7,6,-173,-50,-52,-42
-15,13,32,-3,-25,19,-7,6,-179,-62,-52,-42
-9,1,14,-3,-13,7,-7,1,-185,-68,-52,-54
-15,-11,8,3,-13,-5,-7,1,-185,-68,-52,-54
-9,-11,2,3,-7,-5,-7,6,-173,-62,-52,-54
-15,-17,-4,9,-7,-17,-1,18,-167,-62,-58,-60
-15,-17,-10,15,-7,-23,5,24,-161,-62,-64,-66
-15,-34,-28,21,5,-29,5,30,-155,-74,-64,-72
-15,-58,-40,33,17,-52,11,30,-155,-68,-70,-78
-39,-82,-40,57,5,-64,23,30,-167,-74,-82,-90
-39,-94,-51,63,11,-76,29,30,-179,-80,-88,-96
-39,-106,-63,69,17,-88,29,24,-185,-80,-100,-102
-51,-136,-81,93,17,-112,23,12,-197,-110,-118,-120
-63,-160,-93,111,17,-130,23,6,-203,-110,-130,-126
-69,-178,-105,123,23,-142,23,6,-203,-116,-136,-132
-75,-184,-105,129,17,-148,17,1,-209,-122,-136,-132
-81,-190,-105,135,17,-148,5,-5,-215,-134,-142,-144
-69,-178,-105,123,23,-142,5,-11,-221,-140,-148,-144
-75,-184,-105,129,17,-148,-1,-11,-227,-146,-148,-150
-75,-190,-111,129,23,-154,-1,-5,-227,-140,-148,-150
-63,-178,-111,117,28,-148,5,1,-221,-134,-136,-144
-51,-178,-123,111,28,-154,5,1,-221,-134,-136,-138
-63,-166,-99,111,23,-136,17,6,-215,-128,-130,-132
-63,-160,-93,111,17,-130,17,6,-215,-128,-130,-126
-57,-166,-105,111,28,-136,11,1,-215,-128,-136,-126
-57,-166,-105,111,28,-136,11,1,-215,-128,-130,-132
-51,-172,-117,111,28,-148,11,1,-215,-134,-136,-138
-51,-184,-129,117,28,-160,11,1,-215,-134,-136,-144
-63,-184,-117,123,28,-154,5,-5,-215,-128,-136,-138
-63,-184,-117,123,28,-154,-1,-5,-215,-134,-142,-138
-69,-184,-111,123,23,-148,-7,1,-221,-128,-142,-132
-69,-184,-111,123,23,-148,-7,1,-221,-128,-142,-132
-69,-208,-135,135,28,-172,-7,-11,-221,-134,-142,-144
-69,-208,-135,135,28,-172,-1,-11,-215,-134,-142,-144
-81,-226,-141,153,28,-184,5,1,-215,-122,-142,-132
-69,-202,-129,135,28,-166,5,6,-203,-122,-142,-144
-57,-178,-117,117,28,-148,23,36,-173,-116,-130,-132
-57,-166,-105,111,28,-136,65,96,-137,-92,-118,-120
-81,-166,-81,123,5,-124,101,174,-83,-68,-112,-120
-75,-124,-45,99,-13,-88,125,246,-23,-8,-88,-108
-39,-64,-34,51,-7,-46,155,324,60,57,-28,-48
-15,7,26,-3,-19,13,203,432,192,183,49,0
20,115,86,-68,-25,103,263,570,360,363,193,108
56,241,182,-152,-55,211,293,612,546,573,361,227
74,373,290,-224,-103,331,263,540,726,795,535,371
98,517,416,-308,-157,463,173,372,870,1017,709,515
134,643,500,-386,-181,571,-12,180,996,1227,865,641
206,715,506,-464,-151,613,-264,-71,1044,1383,985,749
290,817,518,-554,-109,673,-540,-401,1056,1545,1111,857
344,937,584,-638,-115,757,-822,-755,1050,1683,1225,983
356,979,620,-668,-127,799,-1050,-1061,1014,1719,1261,1019
380,913,524,-644,-67,715,-1170,-1265,930,1581,1159,959
380,715,332,-548,28,523,-1278,-1439,732,1287,943,785
320,475,152,-398,82,313,-1392,-1631,456,921,661,575
212,259,44,-236,76,157,-1482,-1811,114,537,367,359
116,97,-28,-104,64,37,-1512,-1895,-251,141,85,179
68,-28,-105,-14,82,-64,-1512,-1895,-629,-236,-142,30
26,-178,-213,69,118,-196,-1434,-1829,-1007,-584,-322,-102
9,-280,-285,135,142,-286,-1278,-1697,-1247,-818,-454,-210
-9,-322,-309,165,142,-316,-1110,-1499,-1271,-878,-490,-258
-9,-316,-303,165,142,-310,-942,-1247,-1103,-770,-442,-258
-3,-304,-297,153,142,-304,-762,-983,-869,-620,-382,-246
20,-304,-333,135,178,-316,-642,-797,-731,-536,-352,-246
20,-316,-345,141,184,-328,-552,-683,-659,-482,-334,-246
20,-304,-327,141,172,-316,-462,-551,-569,-428,-298,-228
38,-280,-327,117,184,-304,-348,-413,-467,-362,-268,-216
44,-256,-309,99,178,-280,-246,-293,-407,-314,-244,-210
20,-250,-273,111,142,-262,-186,-209,-365,-290,-226,-210
15,-256,-267,117,130,-262,-144,-149,-323,-266,-214,-186
9,-256,-261,123,124,-262,-114,-101,-281,-236,-190,-174
15,-214,-225,99,112,-220,-72,-71,-257,-218,-178,-162
9,-190,-195,87,94,-196,-54,-35,-227,-188,-172,-156
-27,-202,-171,111,64,-190,-18,6,-203,-164,-148,-144
-27,-178,-147,99,52,-166,5,18,-161,-134,-124,-126
-21,-160,-135,87,46,-148,35,54,-143,-110,-118,-120
-33,-172,-135,99,40,-154,47,66,-137,-110,-112,-120
-39,-178,-135,105,40,-160,59,84,-131,-110,-106,-120
-45,-190,-141,117,40,-166,59,90,-137,-116,-112,-120
-45,-190,-141,117,40,-166,65,90,-137,-110,-112,-120
-51,-196,-141,123,34,-172,53,84,-137,-116,-118,-120
-51,-196,-141,123,34,-172,47,78,-137,-116,-118,-120
-57,-202,-141,129,34,-172,41,72,-143,-122,-124,-120
-57,-208,-147,129,34,-178,35,78,-137,-116,-130,-120
-57,-202,-141,129,34,-172,41,90,-131,-104,-118,-120
-57,-190,-129,123,28,-160,53,96,-113,-98,-118,-114
-45,-178,-129,111,34,-154,65,114,-107,-86,-94,-114
-45,-172,-123,105,28,-148,71,120,-95,-86,-94,-114
-45,-166,-117,105,28,-142,77,126,-89,-86,-94,-102
-45,-160,-111,99,28,-136,77,132,-95,-86,-94,-96
-39,-154,-111,93,28,-136,83,126,-89,-86,-82,-90
-39,-142,-99,87,28,-124,83,132,-83,-86,-82,-90
-39,-148,-105,93,28,-130,77,132,-83,-86,-82,-84
-45,-154,-105,99,28,-130,77,132,-83,-74,-82,-90
-45,-160,-111,99,28,-136,71,126,-83,-74,-82,-84
-45,-160,-111,99,28,-136,71,126,-77,-74,-76,-84
-51,-160,-105,105,28,-136,77,138,-71,-68,-82,-90
-51,-160,-105,105,28,-136,77,144,-59,-62,-76,-90
-57,-160,-99,105,23,-130,83,144,-53,-62,-82,-90
-57,-160,-99,105,23,-130,83,144,-47,-62,-82,-90
