,,,,,,,,,,,
2019-09-01 15:34:27,,,,,,,,,,,
,,,,,,,,,,,
I,II,III,aVR,aVL,aVF,V1,V2,V3,V4,V5,V6
36,37,-1,-37,14,16,68,254,167,108,77,65
30,43,5,-37,8,28,68,242,143,96,53,41
30,31,-1,-31,14,16,68,248,149,90,59,47
18,25,-1,-19,2,16,74,260,149,90,47,41
12,25,5,-19,-4,16,62,242,131,66,35,17
6,1,-1,-1,2,-2,62,230,125,66,29,17
0,-10,-18,4,8,-13,62,230,113,54,29,11
-6,-5,-1,4,-4,-2,62,230,101,42,17,5
-6,13,11,-1,-4,16,56,218,83,24,-7,-7
-6,13,11,-1,-4,16,50,224,65,18,-1,-7
6,7,-1,-7,2,4,50,200,53,6,-7,-7
-6,-5,-1,4,-4,-2,62,206,41,0,-7,-18
-17,-5,11,4,-15,-2,68,212,35,0,-7,-18
-41,-5,29,22,-39,4,62,218,35,0,-12,-18
-35,-16,11,22,-27,-2,68,218,41,-6,-12,-24
-41,-22,11,28,-27,-2,62,206,35,-6,-24,-36
-41,-16,17,28,-33,-2,62,200,23,-6,-18,-36
-29,-10,11,16,-21,-2,56,194,11,-11,-30,-36
-23,-22,-1,22,-9,-7,50,182,-1,-29,-42,-42
-41,-34,-1,34,-21,-13,50,188,-7,-29,-42,-42
-47,-22,17,34,-33,-2,62,188,-7,-29,-42,-36
-41,-16,17,28,-33,-2,56,188,-7,-41,-54,-54
-47,-22,17,34,-33,-2,56,182,-18,-47,-54,-60
-53,-16,29,34,-45,-2,44,182,-12,-53,-66,-66
-59,-16,35,34,-51,4,44,176,-12,-47,-60,-72
-41,-16,17,28,-33,-2,50,182,-12,-41,-60,-72
-29,-16,5,22,-21,-2,44,176,-18,-47,-54,-72
-53,-40,5,46,-33,-13,50,188,-18,-41,-54,-60
-71,-40,23,52,-51,-2,62,188,-7,-35,-54,-60
-59,-10,41,34,-51,10,56,182,-12,-35,-48,-48
-41,-5,29,22,-39,4,62,194,-18,-35,-48,-54
-59,-40,11,46,-39,-7,68,194,-12,-41,-54,-54
-65,-22,35,40,-51,-2,62,188,-12,-47,-60,-66
-59,-34,17,46,-39,-2,50,194,-18,-47,-60,-66
-53,-52,-1,52,-27,-25,56,188,-12,-47,-54,-72
-59,-40,11,46,-39,-7,44,170,-18,-47,-66,-78
-59,-10,41,34,-51,10,56,182,-7,-35,-48,-66
-35,-5,35,10,-33,16,62,188,-7,-29,-42,-54
-41,-10,23,22,-33,-2,62,194,-7,-23,-36,-48
-53,-22,23,34,-39,-2,56,194,-12,-23,-42,-54
-53,-22,23,34,-39,-2,62,188,-7,-23,-42,-42
-59,-34,17,46,-39,-2,68,206,-7,-23,-36,-42
-59,-28,23,40,-45,-2,62,206,-7,-23,-36,-48
-59,-5,47,28,-57,16,62,200,-7,-17,-42,-60
-47,-5,35,22,-45,10,68,200,-7,-23,-42,-54
-41,-5,29,22,-39,4,56,200,-7,-23,-36,-48
-65,-16,41,40,-57,4,56,206,-7,-6,-30,-42
-65,-10,47,34,-57,10,50,200,-7,-11,-30,-36
-29,-5,23,10,-27,4,44,194,-7,-23,-30,-42
-29,-5,23,10,-27,4,56,194,-7,-11,-12,-36
-17,1,23,4,-21,10,56,194,-7,-17,-24,-30
-23,1,29,4,-27,16,56,200,-7,-17,-30,-42
-35,-10,17,22,-27,-2,62,212,-1,-6,-24,-36
-35,-16,11,22,-27,-2,68,218,5,-6,-12,-30
-29,-5,23,10,-27,4,56,212,-1,-11,-18,-42
-29,-5,23,10,-27,4,50,224,5,-6,-12,-30
-17,-16,-1,16,-9,-7,56,230,17,0,-7,-18
-17,-5,5,10,-15,-2,50,218,5,-6,-7,-24
-17,-5,11,4,-15,-2,50,212,5,-6,-7,-24
-35,-5,23,16,-33,4,50,212,-1,-6,-7,-30
-35,-5,29,16,-33,10,56,224,5,-6,-7,-24
-6,-5,-1,4,-4,-2,56,218,5,-6,-7,-24
-6,-5,-1,4,-4,-2,50,206,-1,-6,-12,-24
-41,-10,23,22,-33,-2,56,224,11,6,-7,-18
-47,-10,29,28,-39,4,62,230,17,0,-7,-18
-17,-5,5,10,-15,-2,62,230,23,0,-7,-18
-17,-5,11,4,-15,-2,50,230,23,6,-1,-12
-17,-5,11,4,-15,-2,50,224,17,0,-1,-7
-17,1,23,4,-21,10,50,224,11,0,-1,-7
-29,1,35,4,-33,16,62,230,23,6,5,-7
-23,-5,23,4,-21,10,62,230,11,0,-1,-7
-23,-5,23,4,-21,10,56,230,5,0,-7,-12
-29,-5,23,10,-27,4,50,218,-1,-6,-7,-18
-11,-5,5,4,-9,-2,50,218,-1,-6,-7,-18
-6,-5,5,4,-4,-2,50,230,11,0,-7,-12
-11,-5,-1,4,-9,-2,50,230,17,6,-1,-7
-23,7,35,4,-27,22,38,218,-1,-6,-7,-12
-23,-5,23,4,-21,10,44,230,11,6,-1,-7
-17,-5,5,10,-15,-2,44,230,-1,0,-1,-7
-11,-5,5,4,-9,-2,44,224,-1,0,-7,-12
-29,-5,17,16,-27,-2,50,230,5,0,-1,-7
-35,-16,11,22,-27,-2,56,230,-1,-6,-7,-12
-29,-10,11,16,-21,-2,44,224,-7,-6,-7,-12
-23,-5,17,10,-21,4,50,230,-1,-6,-7,-18
-6,-5,5,4,-4,-2,44,224,-7,-11,-12,-30
-17,1,23,4,-21,10,38,218,-7,-6,-12,-30
-41,-5,35,16,-39,10,38,224,-7,-6,-7,-24
-29,-16,5,22,-21,-2,38,218,-7,-11,-7,-24
-35,-16,11,22,-27,-2,50,230,-7,-6,-7,-18
-47,-16,23,28,-39,-2,50,224,-7,-11,-12,-24
-29,-10,11,16,-21,-2,50,230,-12,-11,-12,-30
-47,-22,17,34,-33,-2,56,230,-7,-6,-7,-24
-41,-22,11,28,-27,-2,38,212,-18,-23,-24,-30
-35,-16,11,22,-27,-2,44,230,-12,-11,-18,-36
-41,-34,-1,34,-21,-13,32,224,-12,-29,-30,-48
-59,-22,29,40,-45,-2,32,218,-12,-29,-30,-42
-47,-5,41,22,-45,16,38,218,-12,-17,-18,-42
-17,-5,11,4,-15,-2,44,224,-12,-11,-12,-36
-23,-16,-1,16,-15,-2,44,224,-30,-23,-24,-48
-35,-22,5,28,-21,-2,38,218,-30,-35,-36,-54
-29,-10,11,16,-21,-2,44,218,-36,-35,-30,-54
-41,-10,23,22,-33,-2,44,224,-36,-35,-30,-54
-35,-34,-1,34,-15,-13,38,218,-30,-35,-36,-48
-47,-46,-1,46,-21,-19,50,224,-30,-35,-36,-54
-47,-40,-1,40,-27,-13,44,230,-30,-41,-42,-54
-41,-28,5,34,-27,-7,32,224,-36,-53,-48,-60
-47,-22,17,34,-33,-2,32,218,-36,-41,-48,-60
-47,-34,5,40,-27,-7,38,212,-42,-47,-42,-60
-41,-52,-6,46,-15,-31,32,206,-48,-53,-42,-54
-53,-34,11,40,-33,-7,32,212,-48,-53,-48,-54
-65,-40,17,52,-45,-7,50,218,-42,-47,-42,-48
-47,-34,5,40,-27,-7,50,218,-54,-53,-48,-60
-29,-22,-1,22,-15,-7,50,230,-48,-59,-54,-48
-41,-22,11,28,-27,-2,32,206,-48,-65,-60,-72
-59,-22,29,40,-45,-2,32,212,-48,-71,-60,-72
-53,-40,5,46,-33,-13,44,212,-42,-59,-54,-60
-47,-34,5,40,-27,-7,38,212,-48,-59,-60,-66
-53,-28,17,40,-39,-2,32,212,-54,-71,-66,-78
-59,-34,17,46,-39,-2,38,212,-60,-71,-66,-72
-59,-40,11,46,-39,-7,32,206,-60,-71,-66,-66
-53,-52,-1,52,-27,-25,44,218,-48,-65,-60,-60
-47,-46,-1,46,-21,-19,38,218,-54,-77,-66,-72
-47,-46,-1,46,-21,-19,44,218,-48,-71,-72,-72
-47,-46,-1,46,-21,-19,38,218,-54,-71,-72,-72
-47,-34,5,40,-27,-7,26,218,-66,-89,-90,-84
-53,-28,17,40,-39,-2,26,206,-72,-95,-96,-96
-59,-52,-1,52,-33,-19,26,212,-60,-89,-84,-90
-65,-58,-1,58,-33,-25,38,218,-54,-77,-78,-72
-59,-52,-1,52,-33,-19,50,218,-60,-89,-78,-72
-47,-40,-1,40,-27,-13,44,218,-60,-77,-72,-66
-41,-40,-1,40,-21,-19,32,218,-60,-77,-78,-72
-53,-34,11,40,-33,-7,38,212,-60,-89,-78,-84
-59,-40,11,46,-39,-7,38,212,-60,-95,-78,-90
-71,-64,-1,64,-39,-25,38,224,-48,-77,-66,-72
-65,-52,5,58,-39,-19,38,224,-48,-83,-78,-78
-41,-40,-1,40,-21,-19,32,218,-48,-83,-78,-84
-35,-40,-1,34,-15,-19,26,212,-48,-89,-78,-84
-47,-28,11,34,-33,-2,20,206,-66,-95,-84,-96
-71,-46,17,58,-45,-7,32,212,-54,-89,-84,-84
-71,-58,5,64,-39,-19,38,218,-48,-71,-72,-66
-65,-58,-1,58,-33,-25,44,224,-48,-77,-72,-66
-65,-64,-1,64,-33,-31,38,218,-54,-95,-78,-78
-59,-58,-1,58,-27,-25,38,212,-54,-95,-84,-84
-59,-52,-1,52,-33,-19,32,212,-60,-95,-84,-78
-53,-52,-1,52,-27,-25,26,212,-54,-101,-90,-84
-65,-46,11,52,-39,-13,38,218,-42,-95,-78,-84
-77,-46,23,58,-51,-7,38,218,-42,-83,-78,-78
-83,-58,17,70,-51,-13,32,218,-48,-89,-78,-78
-59,-58,-1,58,-27,-25,38,206,-48,-101,-84,-84
-47,-64,-12,52,-15,-37,32,200,-60,-95,-84,-84
-59,-58,-1,58,-27,-25,26,206,-60,-101,-84,-90
-71,-46,17,58,-45,-7,38,212,-54,-101,-90,-90
-71,-64,-1,64,-39,-25,38,206,-48,-95,-84,-84
-65,-82,-12,70,-21,-49,38,206,-48,-95,-78,-84
-65,-70,-1,64,-27,-37,32,200,-54,-107,-84,-90
-71,-52,11,58,-45,-13,32,194,-54,-101,-84,-78
-59,-52,-1,52,-33,-19,26,200,-54,-101,-84,-78
-53,-52,-1,52,-27,-25,26,194,-48,-101,-84,-84
-59,-64,-1,58,-27,-31,20,182,-66,-113,-102,-96
-65,-58,-1,58,-33,-25,26,176,-60,-113,-96,-90
-65,-40,17,52,-45,-7,38,182,-48,-101,-90,-84
-89,-64,17,76,-57,-19,32,182,-60,-113,-96,-84
-83,-76,-1,76,-45,-31,32,170,-60,-113,-102,-84
-83,-76,-1,76,-45,-31,26,164,-60,-113,-102,-96
-77,-76,-1,76,-39,-37,32,170,-54,-113,-102,-96
-47,-58,-6,52,-15,-31,32,170,-48,-107,-90,-84
-53,-64,-6,58,-21,-37,26,170,-54,-107,-90,-90
-65,-70,-1,64,-27,-37,32,170,-48,-101,-78,-84
-41,-64,-18,52,-9,-43,32,170,-48,-107,-84,-84
-59,-46,5,52,-33,-13,32,164,-54,-101,-78,-78
-65,-28,29,46,-51,-2,32,158,-60,-113,-90,-84
-47,-28,11,34,-33,-2,20,152,-66,-125,-96,-96
-53,-52,-1,52,-27,-25,26,164,-60,-113,-90,-84
-59,-58,-1,58,-27,-25,26,152,-54,-107,-90,-90
-65,-58,-1,58,-33,-25,32,158,-48,-107,-84,-84
-65,-64,-1,64,-33,-31,20,146,-54,-107,-90,-90
-59,-76,-12,64,-21,-43,20,146,-54,-101,-84,-84
-59,-64,-1,58,-27,-31,20,134,-54,-107,-78,-84
-71,-70,-1,70,-33,-31,20,146,-60,-107,-78,-78
-77,-76,-1,76,-39,-37,20,146,-54,-107,-78,-78
-71,-88,-12,76,-27,-49,26,140,-60,-113,-84,-84
-65,-82,-12,70,-21,-49,26,134,-66,-125,-90,-90
-53,-64,-6,58,-21,-37,14,128,-72,-131,-102,-96
-65,-64,-1,64,-33,-31,26,128,-54,-125,-96,-96
-41,-58,-12,46,-9,-37,32,134,-54,-119,-96,-90
-35,-52,-12,40,-9,-31,32,140,-48,-113,-90,-84
-65,-64,-1,64,-33,-31,26,134,-48,-113,-90,-84
-77,-64,5,70,-45,-25,32,146,-48,-107,-84,-78
-53,-70,-12,58,-15,-43,38,140,-48,-95,-72,-66
-59,-70,-6,64,-21,-37,32,122,-60,-107,-84,-78
-77,-58,11,64,-45,-19,20,116,-72,-125,-96,-90
-71,-46,17,58,-45,-7,20,116,-66,-125,-90,-90
-71,-46,17,58,-45,-7,20,110,-66,-125,-90,-90
-65,-58,-1,58,-33,-25,26,116,-60,-125,-90,-96
-71,-76,-1,70,-33,-37,26,116,-48,-119,-90,-96
-77,-82,-1,76,-33,-43,26,110,-48,-113,-90,-90
-59,-58,-1,58,-27,-25,8,98,-66,-119,-102,-102
-71,-58,5,64,-39,-19,20,98,-54,-113,-96,-90
-83,-70,5,76,-45,-25,26,98,-60,-113,-90,-84
-71,-76,-1,70,-33,-37,32,98,-60,-119,-84,-78
-65,-76,-6,70,-27,-43,26,104,-66,-125,-90,-84
-71,-64,-1,64,-39,-25,14,92,-72,-137,-96,-96
-65,-70,-1,64,-27,-37,14,92,-66,-131,-96,-90
-59,-58,-1,58,-27,-25,14,86,-66,-131,-96,-96
-77,-46,23,58,-51,-7,20,104,-60,-125,-90,-90
-59,-40,11,46,-39,-7,14,98,-54,-119,-90,-90
-47,-28,11,34,-33,-2,8,86,-54,-113,-90,-84
-71,-46,17,58,-45,-7,14,86,-54,-119,-90,-78
-53,-46,-1,46,-27,-19,14,86,-60,-113,-84,-78
-47,-22,17,34,-33,-2,32,98,-42,-95,-66,-66
-59,-5,47,28,-57,16,26,92,-48,-101,-72,-66
-77,-10,59,40,-69,16,32,98,-48,-101,-66,-66
-71,-16,47,40,-63,10,44,110,-36,-95,-60,-66
-59,-16,35,34,-51,4,44,110,-30,-101,-66,-66
-59,-5,47,28,-57,16,38,98,-36,-101,-72,-66
-53,-10,35,28,-45,4,26,86,-36,-89,-60,-60
-59,-10,41,34,-51,10,26,86,-30,-89,-54,-66
-47,-10,29,28,-39,4,32,92,-36,-95,-54,-66
-53,-28,17,40,-39,-2,32,92,-36,-95,-54,-54
-65,-10,47,34,-57,10,14,80,-36,-95,-54,-54
-59,-5,59,22,-57,28,20,80,-42,-95,-60,-60
-35,-5,35,10,-33,16,-4,56,-60,-107,-66,-72
-35,7,47,4,-39,28,-15,44,-60,-113,-72,-72
-47,31,83,4,-63,58,-27,44,-66,-101,-66,-66
-65,13,83,16,-75,46,-21,44,-48,-95,-54,-54
-53,13,71,10,-63,40,-27,32,-42,-89,-42,-48
-35,13,53,4,-45,34,-33,26,-48,-77,-42,-54
-35,25,65,4,-51,46,-45,8,-60,-89,-42,-60
-23,55,83,-7,-51,70,-57,8,-66,-89,-42,-48
0,85,77,-43,-33,82,-63,-4,-66,-83,-30,-30
-6,85,89,-37,-45,88,-63,2,-66,-83,-36,-36
-6,67,77,-25,-39,70,-63,8,-66,-89,-30,-30
0,67,59,-31,-21,64,-81,-4,-66,-95,-36,-30
-6,73,77,-31,-39,76,-87,-10,-78,-113,-54,-54
-35,79,119,-13,-75,100,-75,-10,-84,-119,-54,-54
-47,79,131,-7,-87,106,-75,-10,-84,-113,-54,-54
-29,85,119,-19,-75,100,-69,-10,-90,-113,-60,-60
-29,67,101,-13,-63,82,-57,-10,-90,-113,-54,-48
-35,67,107,-7,-69,88,-69,-15,-102,-125,-60,-60
-29,91,125,-25,-75,106,-81,-27,-114,-131,-72,-72
-29,73,107,-13,-69,88,-75,-21,-120,-131,-78,-72
-23,55,83,-7,-51,70,-63,-15,-120,-143,-90,-78
-23,43,71,-1,-45,58,-63,-15,-114,-143,-90,-78
-17,19,41,4,-27,28,-57,-10,-114,-143,-84,-72
-11,1,17,4,-15,10,-57,-10,-102,-137,-84,-66
-17,-10,-1,10,-9,-2,-51,-4,-96,-137,-84,-66
-29,-46,-12,34,-4,-31,-33,2,-90,-131,-78,-66
-41,-58,-12,46,-9,-37,-33,2,-96,-131,-90,-66
-47,-40,-1,40,-27,-13,-27,2,-102,-137,-90,-78
-65,-34,23,46,-45,-2,-21,-4,-108,-143,-90,-84
-89,-64,17,76,-57,-19,-4,2,-102,-143,-90,-84
-83,-70,5,76,-45,-25,-4,8,-102,-155,-102,-90
-77,-76,-1,76,-39,-37,-4,20,-102,-161,-102,-90
-89,-88,-1,88,-45,-43,-4,20,-96,-161,-102,-90
-89,-82,-1,82,-45,-37,-4,8,-102,-173,-120,-108
-101,-88,5,94,-57,-37,-9,2,-108,-173,-114,-108
-71,-88,-12,76,-27,-49,-4,8,-102,-161,-114,-96
-59,-94,-30,76,-9,-61,-4,14,-102,-161,-120,-96
-71,-112,-36,88,-15,-73,-4,14,-102,-161,-114,-102
-83,-112,-24,94,-27,-67,-4,8,-102,-161,-108,-102
-71,-112,-36,88,-15,-73,2,14,-102,-167,-114,-102
-59,-106,-42,82,-4,-73,-4,20,-108,-179,-114,-108
-107,-106,-1,106,-51,-49,2,32,-90,-167,-114,-102
-113,-106,-1,106,-57,-49,2,32,-102,-161,-114,-102
-83,-106,-18,94,-27,-61,-4,26,-108,-179,-120,-114
-83,-94,-6,88,-33,-49,-4,32,-108,-179,-126,-108
-101,-94,-1,94,-51,-43,-4,38,-102,-173,-132,-108
-107,-112,-1,106,-51,-55,-4,44,-96,-167,-120,-102
-101,-124,-18,112,-39,-73,-4,44,-102,-167,-114,-96
-83,-112,-24,94,-27,-67,-4,32,-114,-173,-126,-102
-83,-112,-24,94,-27,-67,-4,44,-114,-173,-120,-108
-89,-130,-36,106,-21,-85,2,44,-102,-161,-114,-90
-83,-112,-24,94,-27,-67,2,50,-96,-167,-120,-102
-71,-106,-30,88,-15,-67,2,50,-102,-167,-126,-102
-83,-112,-24,94,-27,-67,2,56,-102,-173,-132,-108
-77,-106,-24,88,-21,-67,-4,56,-96,-173,-126,-108
-83,-106,-18,94,-27,-61,-4,44,-102,-179,-132,-108
-71,-112,-36,88,-15,-73,-9,38,-108,-173,-132,-108
-77,-100,-18,88,-27,-61,-4,50,-96,-167,-120,-114
-89,-106,-12,94,-33,-61,-4,56,-90,-155,-108,-102
-89,-124,-30,106,-27,-79,2,56,-84,-155,-102,-90
-77,-130,-48,100,-9,-91,-4,50,-90,-161,-108,-102
-83,-106,-18,94,-27,-61,-4,50,-90,-161,-114,-108
-89,-112,-18,100,-33,-67,2,50,-84,-155,-102,-102
-83,-106,-18,94,-27,-61,2,62,-84,-155,-102,-102
-59,-94,-30,76,-9,-61,-4,44,-84,-161,-108,-108
-47,-112,-60,76,-4,-85,-4,50,-84,-155,-102,-96
-71,-112,-36,88,-15,-73,-4,56,-78,-143,-90,-90
-83,-106,-18,94,-27,-61,-4,56,-78,-149,-84,-90
-83,-100,-12,88,-33,-55,-4,50,-84,-155,-90,-90
-89,-106,-12,94,-33,-61,2,50,-84,-161,-90,-90
-89,-112,-18,100,-33,-67,-4,56,-84,-155,-96,-90
-89,-100,-6,94,-39,-55,2,56,-78,-155,-96,-96
-89,-106,-12,94,-33,-61,8,68,-66,-149,-96,-96
-83,-124,-36,100,-21,-79,14,80,-60,-143,-96,-102
-83,-130,-42,106,-15,-85,62,134,-18,-125,-90,-102
-53,-118,-60,82,-4,-91,116,212,41,-95,-84,-108
-53,-124,-66,88,-4,-97,164,284,119,-65,-66,-114
-89,-118,-24,100,-27,-73,218,356,173,-35,-66,-120
-77,-70,-1,70,-39,-31,272,446,257,18,-24,-96
-35,-46,-6,40,-9,-25,296,494,353,114,47,-36
6,-28,-42,4,20,-31,314,572,467,234,155,29
78,-5,-78,-37,80,-31,338,662,611,372,287,131
138,31,-102,-85,122,-25,338,680,713,510,431,245
228,103,-120,-163,176,-2,272,644,803,708,623,419
354,205,-150,-277,248,22,194,608,911,936,857,617
498,295,-204,-397,350,46,56,512,965,1152,1109,839
648,385,-258,-511,458,58,-135,320,953,1314,1343,1067
786,505,-276,-649,530,112,-369,62,851,1458,1541,1271
912,625,-282,-763,596,172,-561,-141,749,1566,1703,1445
960,721,-240,-835,596,238,-669,-297,653,1620,1817,1553
900,787,-108,-841,500,340,-789,-507,461,1590,1841,1589
798,829,23,-811,386,430,-903,-729,257,1542,1817,1565
726,781,53,-751,332,424,-957,-849,143,1458,1703,1469
648,661,5,-655,314,334,-999,-951,-42,1164,1415,1265
504,481,-24,-487,266,226,-987,-1017,-288,744,983,947
348,319,-24,-331,188,148,-915,-1029,-504,354,563,623
204,223,11,-211,92,118,-897,-1113,-822,-101,143,305
42,115,65,-79,-4,94,-843,-1143,-1110,-527,-228,17
-59,-5,59,22,-57,28,-747,-1089,-1260,-869,-546,-240
-191,-76,107,130,-153,10,-675,-1035,-1392,-1163,-822,-474
-275,-124,149,202,-219,4,-627,-987,-1422,-1277,-966,-624
-311,-142,167,226,-243,4,-567,-903,-1302,-1175,-912,-624
-311,-166,143,238,-231,-7,-525,-825,-1182,-1079,-846,-588
-305,-208,95,250,-207,-49,-501,-759,-1098,-1019,-804,-570
-287,-220,65,250,-183,-73,-477,-705,-1014,-959,-762,-552
-281,-208,71,244,-183,-61,-435,-639,-936,-875,-708,-522
-269,-220,47,244,-165,-79,-351,-549,-846,-797,-654,-492
-251,-214,35,232,-147,-85,-291,-465,-750,-719,-582,-450
-245,-196,41,220,-147,-73,-243,-399,-666,-653,-540,-420
-245,-196,47,220,-153,-67,-195,-327,-564,-569,-474,-372
-239,-166,65,202,-153,-43,-153,-255,-474,-491,-414,-336
-209,-130,71,166,-141,-25,-93,-177,-366,-407,-336,-288
-191,-118,65,154,-129,-19,-57,-135,-294,-347,-294,-246
-185,-94,83,136,-135,-2,-39,-111,-252,-299,-258,-210
-125,-40,77,82,-105,10,-21,-93,-228,-269,-228,-192
-101,-40,53,70,-81,-2,-9,-87,-198,-245,-204,-174
-113,-52,53,82,-87,-2,-4,-69,-180,-221,-180,-156
-113,-46,59,76,-87,-2,14,-39,-150,-197,-156,-138
-119,-58,53,88,-87,-2,26,-21,-120,-191,-144,-126
-101,-58,35,76,-69,-7,38,-10,-102,-185,-144,-132
-83,-46,29,64,-57,-2,44,-10,-84,-173,-138,-126
-95,-52,35,70,-69,-2,38,-4,-60,-155,-120,-120
-89,-52,29,70,-63,-7,50,2,-54,-143,-114,-114
-89,-64,17,76,-57,-19,56,-4,-36,-125,-102,-108
-77,-70,-1,70,-39,-31,62,-4,-30,-119,-90,-96
-65,-70,-1,64,-27,-37,62,-10,-36,-107,-84,-96
-77,-70,-1,70,-39,-31,80,-4,-30,-95,-72,-84
-77,-76,-1,76,-39,-37,80,2,-30,-107,-72,-84
-77,-58,11,64,-45,-19,74,2,-36,-113,-84,-90
-71,-40,23,52,-51,-2,80,8,-24,-107,-72,-90
-71,-58,5,64,-39,-19,86,8,-7,-101,-78,-90
-77,-88,-6,82,-33,-49,86,8,-7,-89,-72,-84
-71,-94,-18,82,-21,-55,86,2,-1,-83,-66,-84
-83,-64,11,70,-51,-19,74,-10,-1,-83,-60,-90
-71,-58,5,64,-39,-19,74,-10,-7,-89,-54,-72
-59,-58,-1,58,-27,-25,80,-15,-7,-77,-48,-66
-59,-58,-1,58,-27,-25,92,-21,-7,-77,-48,-72
-65,-52,5,58,-39,-19,98,-10,-7,-71,-48,-66
-41,-40,-1,40,-21,-19,92,-10,-7,-83,-54,-72
-29,-46,-12,34,-4,-31,86,-10,-7,-83,-66,-84
-65,-52,5,58,-39,-19,92,-10,5,-83,-66,-84
-89,-58,23,70,-57,-13,92,-10,17,-65,-42,-78
-53,-52,-1,52,-27,-25,104,-10,29,-59,-48,-72
-41,-34,-1,34,-21,-13,98,-10,35,-47,-36,-66
-59,-40,11,46,-39,-7,80,-15,17,-71,-54,-72
-59,-52,-1,52,-33,-19,86,-15,11,-71,-36,-60
-41,-52,-6,46,-15,-31,104,-10,11,-65,-36,-54
-71,-46,17,58,-45,-7,104,2,23,-59,-24,-48
-77,-46,23,58,-51,-7,110,8,23,-65,-30,-48
-65,-52,5,58,-39,-19,98,8,17,-65,-42,-66
-41,-40,-1,40,-21,-19,92,8,29,-65,-48,-66
-35,-22,5,28,-21,-2,92,8,35,-59,-42,-66
-35,-10,17,22,-27,-2,86,-4,41,-59,-48,-66
-29,-28,-1,28,-15,-13,92,2,59,-35,-24,-54
-35,-52,-12,40,-9,-31,92,2,59,-35,-18,-42
-47,-46,-1,46,-21,-19,86,-10,41,-29,-24,-36
-35,-16,11,22,-27,-2,92,-10,41,-29,-30,-36
-17,-16,-1,16,-9,-7,80,-10,35,-35,-24,-36
-23,-22,-1,22,-9,-7,86,-10,35,-41,-30,-42
-29,-22,-1,22,-15,-7,92,-10,59,-29,-18,-42
-11,-22,-6,16,-4,-13,92,-10,59,-29,-30,-54
-11,-28,-12,16,-4,-19,80,-15,65,-23,-30,-54
-23,-22,-1,22,-9,-7,80,-15,77,-17,-30,-48
-29,-10,11,16,-21,-2,80,-15,89,-6,-12,-42
-23,-16,-1,16,-15,-2,80,-15,83,-6,-7,-30
-17,-16,-1,16,-9,-7,86,-21,89,0,-7,-18
-11,-22,-6,16,-4,-13,86,-21,83,-6,-7,-24
-23,-34,-6,28,-4,-19,86,-10,77,-6,-7,-18
-17,-16,-1,16,-9,-7,92,-10,77,0,-7,-12
-17,-16,-1,16,-9,-7,92,-10,95,6,-7,-18
-17,-22,-1,16,-4,-13,86,-10,107,12,-7,-18
-11,-28,-12,16,-4,-19,80,-10,119,30,5,-12
-6,-16,-6,10,-4,-13,86,-10,125,30,-1,-12
-6,-10,-1,4,-4,-7,80,-10,137,48,17,-7
-6,-5,-6,4,-4,-2,68,-21,125,48,17,-7
-6,-5,-1,4,-4,-2,74,-27,125,60,29,-7
-6,1,-1,4,-4,4,74,-27,125,54,23,-7
6,1,-1,-1,2,-2,74,-15,131,66,41,5
12,7,-1,-7,8,-2,74,-15,137,60,29,-1
12,13,-1,-13,2,4,74,-21,149,66,29,5
18,19,-1,-19,8,10,74,-15,155,72,35,11
12,19,-1,-13,2,10,62,-10,167,90,53,17
18,13,-1,-13,8,4,56,-10,179,96,53,17
24,25,-1,-25,8,10,56,-10,185,108,65,29
36,37,-1,-37,14,16,56,-10,191,114,83,35
36,31,-1,-31,20,10,50,-10,197,126,89,41
54,37,-12,-43,32,10,50,-15,191,120,89,41
72,55,-12,-61,44,16,56,2,203,138,107,65
60,55,-1,-55,32,22,74,20,233,162,125,89
42,49,-1,-43,14,28,68,14,233,168,131,77
54,73,11,-61,14,46,56,14,239,162,131,77
72,85,5,-79,26,46,44,8,251,174,131,83
72,79,-1,-73,32,40,50,8,269,192,143,89
78,85,-1,-79,32,46,44,14,281,204,149,101
96,91,-1,-91,50,40,38,8,269,210,161,107
72,79,-1,-73,32,40,56,14,281,228,179,125
84,85,-1,-85,38,40,50,14,281,228,179,137
108,97,-6,-103,56,40,44,20,293,234,191,143
108,103,-1,-103,56,46,44,20,299,234,191,143
102,103,-1,-103,50,52,50,32,323,252,209,149
114,109,-1,-109,56,52,50,38,335,270,215,161
114,121,-1,-115,50,64,50,50,353,282,233,173
132,109,-18,-121,74,40,44,38,359,288,233,179
144,109,-30,-127,86,34,32,26,359,288,239,179
150,115,-30,-133,92,40,26,26,359,300,245,185
156,127,-24,-139,92,46,26,26,359,306,251,197
156,133,-18,-145,86,52,26,26,359,318,263,209
150,133,-12,-139,80,58,26,32,365,318,269,215
162,139,-18,-151,92,58,26,38,371,318,269,203
180,145,-30,-163,104,52,20,38,383,318,269,215
180,139,-36,-157,110,46,20,44,395,324,281,227
186,151,-30,-169,110,58,20,50,401,342,287,227
180,145,-30,-163,104,52,26,50,407,348,293,233
186,145,-36,-163,110,52,14,44,401,348,287,233
198,151,-42,-175,122,52,14,44,395,342,287,233
186,151,-30,-169,110,58,14,44,389,342,293,233
168,157,-6,-163,86,70,14,32,371,336,293,233
174,157,-12,-163,92,70,8,44,371,330,281,233
180,157,-18,-169,98,64,14,50,377,336,281,233
168,139,-24,-151,98,52,20,62,377,336,281,233
168,133,-30,-151,98,46,14,56,371,324,275,233
168,127,-36,-145,104,40,20,62,383,324,281,233
186,133,-48,-157,116,40,8,50,377,318,269,221
168,133,-30,-151,98,46,14,50,377,318,269,227
162,121,-36,-139,98,40,14,44,359,312,263,221
168,127,-36,-145,104,40,20,44,353,306,257,215
156,127,-24,-139,92,46,8,32,329,294,245,203
156,139,-12,-145,86,58,8,44,323,282,245,215
150,145,-1,-145,74,70,8,44,329,282,239,209
150,133,-12,-139,80,58,2,38,323,276,233,191
144,127,-12,-133,80,52,2,44,311,258,215,185
144,121,-18,-133,80,46,2,38,317,252,209,179
144,115,-24,-127,86,40,14,38,317,252,215,179
138,115,-18,-127,80,46,2,38,305,246,209,179
144,109,-30,-127,86,34,-4,32,287,234,191,173
138,109,-24,-121,80,40,-4,26,269,216,179,161
132,121,-6,-127,68,52,2,26,263,216,173,161
114,109,-1,-109,56,52,14,44,263,216,179,167
108,97,-6,-103,56,40,14,38,263,204,167,155
108,97,-6,-103,56,40,14,38,263,192,155,149
102,91,-6,-97,56,40,20,38,257,186,149,149
84,85,-1,-85,38,40,20,44,257,192,143,143
90,91,-1,-91,44,46,14,32,257,186,143,125
102,103,-1,-103,50,52,8,32,251,180,137,131
114,109,-1,-109,56,52,8,20,233,174,131,125
114,115,-1,-115,56,58,14,14,233,168,119,113
84,103,11,-91,32,58,26,14,227,162,125,119
66,79,5,-73,26,46,20,14,215,150,113,107
72,85,5,-79,26,46,20,14,209,144,101,101
72,97,17,-85,20,58,26,14,215,144,95,101
78,79,-1,-79,38,40,26,20,209,132,95,95
60,49,-6,-55,32,16,32,32,215,144,101,101
54,49,-1,-49,26,22,38,20,203,144,95,83
60,67,-1,-61,26,34,32,20,203,138,89,89
42,43,-1,-43,20,22,32,14,197,132,95,83
30,43,5,-37,8,28,32,8,173,114,77,71
18,67,41,-43,-4,58,38,2,155,108,65,59
42,91,41,-67,-4,70,44,8,149,108,65,59
54,79,17,-67,14,52,38,2,143,102,53,41
36,55,11,-43,8,34,32,-4,137,90,41,29
42,49,-1,-43,14,28,32,-10,125,72,29,11
24,37,5,-31,2,22,44,-10,131,84,35,23
-6,19,17,-7,-4,22,44,-10,125,78,35,23
-6,1,11,4,-9,4,50,-10,119,78,29,17
-11,1,17,4,-15,10,44,-21,95,60,23,5
-11,1,17,4,-15,10,38,-27,77,42,5,-7
-6,-5,-1,4,-4,-2,50,-21,71,42,5,-1
-17,1,23,4,-21,10,44,-21,53,30,-1,-7
-17,7,29,4,-21,16,38,-39,35,6,-18,-24
-11,13,29,4,-21,22,44,-27,41,6,-18,-18
-23,13,41,4,-33,28,32,-39,23,-6,-36,-36
-23,7,35,4,-27,22,20,-51,17,-6,-42,-42
-17,-5,11,4,-15,-2,26,-57,11,-6,-36,-36
-29,-5,23,10,-27,4,26,-63,11,-6,-36,-42
-47,-22,17,34,-33,-2,38,-51,11,-6,-36,-24
-47,-16,23,28,-39,-2,26,-63,-7,-23,-54,-48
-47,-16,23,28,-39,-2,20,-69,-18,-29,-60,-54
-47,-5,41,22,-45,16,26,-63,-18,-29,-60,-54
-29,-5,23,10,-27,4,32,-69,-24,-41,-78,-66
-41,-28,5,34,-27,-7,20,-75,-36,-59,-96,-84
-65,-22,35,40,-51,-2,20,-69,-30,-53,-84,-72
-47,-10,29,28,-39,4,20,-57,-24,-53,-84,-66
-59,-16,35,34,-51,4,26,-63,-24,-41,-84,-72
-65,-5,53,34,-63,16,20,-69,-24,-41,-84,-66
-29,-5,23,10,-27,4,8,-81,-42,-53,-90,-72
-47,-5,35,22,-45,10,32,-69,-30,-47,-78,-72
-59,-10,41,34,-51,10,32,-69,-42,-47,-84,-66
-59,-16,35,34,-51,4,14,-75,-48,-53,-96,-72
-59,-5,47,28,-57,16,20,-75,-54,-59,-96,-72
-65,-10,47,34,-57,10,26,-63,-42,-53,-90,-72
-65,-16,41,40,-57,4,14,-75,-48,-65,-102,-72
-65,-22,35,40,-51,-2,20,-75,-36,-71,-108,-72
-59,-16,35,34,-51,4,14,-75,-48,-71,-102,-78
-65,-16,41,40,-57,4,14,-81,-36,-65,-96,-78
-59,-5,47,28,-57,16,20,-75,-42,-47,-90,-72
-47,-5,41,22,-45,16,26,-75,-36,-47,-90,-78
-41,-5,35,16,-39,10,20,-81,-42,-53,-90,-78
-53,-5,47,22,-51,16,32,-63,-30,-35,-66,-60
-53,-5,53,22,-51,22,32,-57,-36,-35,-78,-66
-47,-5,41,22,-45,16,20,-51,-36,-47,-90,-66
-41,-5,29,22,-39,4,20,-57,-36,-47,-84,-66
-47,-5,35,22,-45,10,14,-45,-18,-35,-72,-60
-41,-10,23,22,-33,-2,20,-51,-12,-23,-66,-54
-47,-5,41,22,-45,16,20,-51,-12,-17,-72,-54
-29,-5,23,10,-27,4,20,-51,-18,-23,-66,-54
-29,-5,23,10,-27,4,14,-57,-18,-29,-66,-54
-23,-5,17,10,-21,4,14,-57,-30,-29,-72,-54
-29,1,35,4,-33,16,14,-51,-18,-29,-66,-48
-35,-5,29,16,-33,10,32,-33,-7,-23,-60,-42
-23,-10,5,16,-15,-2,26,-33,-7,-29,-66,-48
-11,-5,-1,4,-9,-2,32,-39,-7,-23,-66,-48
-23,-5,23,4,-21,10,26,-33,-7,-17,-60,-42
-41,-5,35,16,-39,10,26,-27,-1,-6,-42,-30
-29,1,35,4,-33,16,20,-27,5,-6,-36,-30
-6,-5,5,4,-4,-2,8,-45,-7,-23,-54,-42
-11,7,23,4,-15,16,20,-45,-1,-11,-42,-30
-23,19,47,4,-33,34,26,-39,-7,-11,-48,-36
-29,13,47,4,-39,28,26,-33,-7,-17,-48,-30
-17,7,29,4,-21,16,26,-27,-7,-11,-48,-36
-29,-5,29,10,-27,10,32,-27,5,-6,-36,-30
-35,-5,35,10,-33,16,26,-33,5,-6,-42,-36
-29,-5,29,10,-27,10,20,-33,17,-6,-36,-36
-17,1,23,4,-21,10,20,-27,11,-6,-36,-24
-6,13,23,4,-15,16,20,-33,11,-6,-36,-24
-17,1,23,4,-21,10,26,-33,11,-6,-30,-18
-17,-5,17,4,-15,4,14,-39,-1,-6,-36,-18
-11,-5,11,4,-9,4,26,-15,5,-6,-24,-12
-6,19,17,-7,-4,22,8,-27,-7,-11,-36,-24
-17,1,23,4,-21,10,26,-15,5,-6,-36,-24
-17,-5,11,4,-15,-2,32,-10,17,-6,-30,-24
-6,13,17,-1,-9,16,20,-10,5,-6,-30,-24
-6,13,23,4,-15,16,14,-15,5,-6,-48,-42
-11,-5,11,4,-9,4,26,-21,5,-6,-48,-36
-11,-5,11,4,-9,4,26,-21,5,-11,-48,-36
-17,1,23,4,-21,10,20,-21,-1,-6,-42,-36
-23,1,29,4,-27,16,20,-21,-7,-11,-48,-36
-41,1,47,10,-45,22,20,-21,-7,-11,-48,-36
-29,1,35,4,-33,16,32,-10,-1,-6,-36,-30
-6,7,5,-1,-4,10,20,-10,-7,-17,-48,-36
-6,1,11,4,-9,4,14,-21,-7,-29,-54,-42
-17,1,23,4,-21,10,20,-15,-7,-23,-48,-36
-6,7,17,4,-9,10,32,-10,5,-11,-42,-30
-6,1,11,4,-9,4,26,-21,-7,-17,-48,-36
-29,1,35,4,-33,16,32,-15,5,-11,-42,-30
-11,19,35,4,-21,28,14,-33,-12,-23,-54,-36
-6,13,17,-1,-9,16,20,-33,-12,-29,-54,-36
-11,-5,11,4,-9,4,32,-21,-7,-23,-48,-30
-29,-5,23,10,-27,4,32,-15,-7,-23,-42,-30
-17,-5,11,4,-15,-2,26,-15,-12,-29,-54,-36
-11,-10,-1,10,-4,-2,26,-21,-18,-35,-66,-42
-29,-22,-1,22,-15,-7,26,-15,-18,-35,-66,-42
-35,-34,-1,34,-15,-13,26,-21,-18,-41,-66,-48
-29,-34,-1,28,-9,-19,26,-27,-18,-41,-72,-48
-23,-16,-1,16,-15,-2,32,-33,-12,-47,-72,-48
-35,-5,29,16,-33,10,26,-27,-24,-47,-72,-60
-35,-10,17,22,-27,-2,26,-33,-36,-53,-84,-60
-35,-28,-1,28,-21,-7,32,-33,-36,-47,-78,-54
-23,-10,5,16,-15,-2,26,-27,-36,-47,-78,-54
-17,-10,-1,10,-9,-2,20,-27,-54,-59,-84,-60
-35,-16,11,22,-27,-2,26,-15,-42,-59,-84,-60
-35,-10,17,22,-27,-2,26,-27,-54,-59,-84,-66
-47,-10,29,28,-39,4,26,-27,-48,-59,-78,-60
-41,-10,23,22,-33,-2,32,-21,-36,-53,-78,-54
-29,-16,5,22,-21,-2,26,-33,-36,-65,-84,-60
-35,-5,23,16,-33,4,32,-27,-48,-65,-84,-66
-41,-10,23,22,-33,-2,20,-39,-60,-71,-96,-66
-41,-28,5,34,-27,-7,26,-33,-48,-71,-90,-66
-41,-40,-1,40,-21,-19,38,-27,-48,-65,-90,-66
-35,-40,-1,34,-15,-19,44,-15,-42,-59,-84,-60
-41,-28,5,34,-27,-7,38,-15,-42,-77,-102,-72
-47,-10,29,28,-39,4,20,-27,-60,-83,-114,-84
-35,-10,17,22,-27,-2,20,-27,-60,-83,-108,-78
-29,-5,17,16,-27,-2,26,-27,-48,-83,-102,-72
-41,-10,23,22,-33,-2,32,-21,-48,-83,-102,-66
-35,-22,5,28,-21,-2,20,-33,-66,-83,-108,-84
-35,-16,11,22,-27,-2,20,-33,-72,-83,-114,-78
-53,-16,29,34,-45,-2,38,-27,-72,-83,-114,-72
-41,-22,11,28,-27,-2,32,-27,-78,-89,-120,-78
-41,-40,-1,40,-21,-19,32,-21,-78,-89,-120,-78
-47,-52,-1,46,-21,-25,38,-21,-72,-95,-120,-84
-47,-46,-1,46,-21,-19,32,-21,-78,-95,-120,-78
-47,-34,5,40,-27,-7,20,-27,-78,-101,-126,-90
-59,-34,17,46,-39,-2,32,-27,-72,-101,-114,-84
-53,-34,11,40,-33,-7,44,-15,-54,-83,-108,-66
-53,-52,-1,52,-27,-25,44,-15,-60,-77,-108,-66
-41,-40,-1,40,-21,-19,26,-33,-84,-95,-120,-78
-35,-16,11,22,-27,-2,26,-27,-72,-95,-114,-78
-47,-40,-1,40,-27,-13,32,-27,-84,-101,-114,-78
-47,-46,-1,46,-21,-19,38,-21,-84,-89,-120,-78
-41,-34,-1,34,-21,-13,38,-15,-72,-89,-114,-72
-53,-28,17,40,-39,-2,26,-21,-72,-101,-120,-84
-53,-40,5,46,-33,-13,38,-21,-72,-107,-126,-90
-35,-52,-12,40,-9,-31,38,-21,-78,-107,-126,-90
-47,-46,-1,46,-21,-19,32,-27,-78,-107,-126,-90
-77,-46,23,58,-51,-7,44,-15,-78,-95,-120,-84
-71,-46,17,58,-45,-7,38,-27,-84,-101,-114,-78
-53,-40,5,46,-33,-13,50,-15,-84,-101,-114,-78
-65,-46,11,52,-39,-13,44,-15,-78,-101,-114,-84
-71,-46,17,58,-45,-7,38,-15,-90,-107,-126,-96
-59,-34,17,46,-39,-2,44,-21,-90,-107,-126,-96
-47,-28,11,34,-33,-2,44,-15,-84,-101,-120,-96
-59,-40,11,46,-39,-7,44,-15,-84,-107,-120,-96
-65,-52,5,58,-39,-19,38,-27,-84,-107,-132,-102
-53,-46,-1,46,-27,-19,38,-27,-84,-101,-126,-96
-53,-40,5,46,-33,-13,44,-27,-90,-95,-114,-90
-35,-22,5,28,-21,-2,50,-27,-90,-101,-114,-90
-29,-28,-1,28,-15,-13,44,-27,-96,-113,-120,-96
-59,-46,5,52,-33,-13,38,-27,-108,-119,-126,-96
-59,-40,11,46,-39,-7,38,-27,-108,-113,-132,-96
-71,-52,11,58,-45,-13,56,-10,-90,-101,-126,-84
-71,-52,11,58,-45,-13,62,-10,-90,-107,-126,-90
-59,-46,5,52,-33,-13,62,-10,-90,-113,-126,-90
-71,-46,17,58,-45,-7,44,-21,-102,-119,-132,-102
-59,-58,-1,58,-27,-25,44,-27,-96,-113,-126,-96
-53,-52,-1,52,-27,-25,56,-10,-90,-95,-114,-84
-35,-28,-1,28,-21,-7,44,-21,-102,-101,-120,-84
-53,-40,5,46,-33,-13,44,-21,-102,-107,-114,-84
-71,-58,5,64,-39,-19,50,-27,-114,-113,-114,-84
-59,-52,-1,52,-33,-19,50,-15,-108,-107,-114,-84
-53,-40,5,46,-33,-13,50,-10,-96,-113,-126,-84
-59,-34,17,46,-39,-2,44,-21,-102,-119,-132,-102
-53,-34,11,40,-33,-7,38,-27,-108,-113,-132,-96
-65,-58,-1,58,-33,-25,44,-21,-96,-107,-126,-96
-59,-58,-1,58,-27,-25,50,-21,-90,-107,-120,-90
-41,-46,-1,40,-15,-25,50,-21,-96,-101,-126,-84
-47,-52,-1,46,-21,-25,50,-21,-108,-107,-132,-90
-59,-46,5,52,-33,-13,56,-15,-102,-107,-120,-90
-59,-46,5,52,-33,-13,56,-21,-102,-107,-132,-90
-53,-34,11,40,-33,-7,56,-15,-108,-113,-132,-90
-47,-28,11,34,-33,-2,62,-10,-96,-113,-132,-84
-35,-22,5,28,-21,-2,56,-15,-90,-107,-132,-96
-29,-5,17,16,-27,-2,56,-27,-96,-113,-132,-96
-53,-5,53,22,-51,22,62,-21,-96,-101,-132,-90
-77,-5,71,34,-75,28,80,-15,-72,-95,-114,-84
-77,-5,71,34,-75,28,74,-10,-78,-89,-108,-84
-59,-5,59,22,-57,28,68,-15,-84,-95,-102,-78
-65,-5,53,34,-63,16,74,-10,-72,-83,-90,-72
-65,-5,59,28,-63,22,62,-10,-84,-95,-102,-78
-71,-10,53,40,-63,16,68,-10,-84,-95,-102,-78
-77,-22,47,46,-63,4,80,-10,-72,-89,-90,-72
-53,-10,35,28,-45,4,68,-10,-78,-89,-102,-78
-35,-5,23,16,-33,4,50,-21,-72,-89,-102,-72
-41,-5,41,16,-39,16,38,-27,-72,-83,-96,-66
-41,13,59,4,-51,34,20,-45,-84,-83,-90,-60
-47,1,53,16,-51,28,26,-45,-84,-83,-90,-66
-59,7,71,16,-63,40,8,-63,-96,-89,-96,-72
-35,31,71,4,-51,52,2,-57,-90,-77,-84,-60
-23,43,71,-1,-45,58,2,-57,-96,-77,-84,-54
-41,49,95,4,-69,70,-4,-69,-102,-83,-84,-60
-23,79,107,-19,-63,94,-9,-75,-108,-83,-78,-48
-23,103,131,-31,-75,118,-21,-87,-114,-89,-90,-60
-35,103,143,-25,-87,124,-15,-87,-102,-83,-78,-48
-11,109,125,-43,-69,118,-33,-105,-108,-83,-84,-54
-6,103,113,-43,-57,106,-39,-117,-120,-95,-90,-54
-6,97,101,-43,-51,100,-45,-123,-126,-101,-96,-54
-11,97,113,-37,-63,106,-27,-117,-126,-107,-108,-66
-35,97,137,-25,-87,118,-15,-117,-132,-113,-114,-66
-35,79,119,-13,-75,100,-9,-111,-132,-113,-108,-60
-41,67,113,-7,-75,88,-9,-105,-126,-113,-108,-66
-47,73,125,-7,-87,100,-15,-111,-144,-125,-120,-78
-23,79,107,-19,-63,94,-27,-117,-156,-125,-132,-84
-29,67,101,-13,-63,82,-15,-111,-150,-125,-126,-78
-47,43,95,4,-69,70,-9,-111,-144,-125,-126,-72
-29,31,65,4,-45,46,-4,-105,-138,-119,-120,-78
-23,13,41,4,-33,28,-9,-99,-138,-119,-120,-84
-17,-5,11,4,-15,-2,-4,-87,-138,-113,-114,-66
-6,-16,-12,4,-4,-13,-4,-87,-138,-119,-120,-66
-29,-22,-1,22,-15,-7,-4,-93,-138,-125,-126,-72
-53,-34,11,40,-33,-7,-4,-81,-138,-131,-132,-84
-47,-52,-1,46,-21,-25,8,-75,-144,-131,-138,-96
-53,-46,-1,46,-27,-19,26,-63,-132,-119,-126,-90
-53,-46,-1,46,-27,-19,20,-69,-132,-125,-132,-102
-71,-52,11,58,-45,-13,38,-63,-126,-131,-132,-96
-59,-52,-1,52,-33,-19,44,-51,-120,-125,-132,-102
-65,-70,-1,64,-27,-37,38,-63,-132,-143,-144,-108
-83,-94,-6,88,-33,-49,38,-69,-138,-143,-150,-108
-89,-70,11,76,-51,-25,44,-75,-156,-155,-162,-114
-83,-52,23,64,-57,-7,32,-75,-162,-167,-174,-120
-71,-64,-1,64,-39,-25,32,-75,-162,-167,-168,-126
-65,-82,-12,70,-21,-49,44,-69,-156,-161,-162,-120
-83,-100,-12,88,-33,-55,50,-51,-144,-149,-156,-108
-77,-118,-36,94,-15,-79,38,-57,-138,-155,-162,-120
-59,-106,-42,82,-4,-73,32,-63,-144,-161,-168,-126
-77,-94,-12,82,-27,-55,38,-63,-150,-155,-168,-126
-95,-106,-6,100,-39,-55,62,-57,-144,-149,-162,-114
-83,-118,-30,100,-21,-73,62,-57,-138,-149,-156,-114
-77,-106,-24,88,-21,-67,50,-57,-144,-149,-156,-114
-71,-106,-30,88,-15,-67,50,-63,-150,-155,-168,-114
-89,-118,-24,100,-27,-73,56,-57,-150,-161,-168,-114
-83,-112,-24,94,-27,-67,44,-57,-156,-167,-168,-120
-83,-118,-30,100,-21,-73,44,-57,-156,-155,-168,-120
-59,-112,-48,82,-4,-79,62,-57,-144,-143,-156,-114
-71,-88,-12,76,-27,-49,62,-57,-138,-161,-156,-114
-71,-82,-6,76,-27,-43,38,-69,-150,-167,-168,-132
-83,-106,-18,94,-27,-61,56,-57,-138,-155,-162,-120
-89,-106,-12,94,-33,-61,62,-51,-132,-149,-150,-108
-83,-94,-6,88,-33,-49,56,-63,-144,-155,-156,-114
-77,-88,-6,82,-33,-49,56,-57,-150,-155,-156,-114
-83,-100,-12,88,-33,-55,62,-51,-144,-155,-156,-108
-83,-112,-24,94,-27,-67,68,-51,-138,-149,-144,-102
-83,-112,-24,94,-27,-67,56,-51,-126,-149,-150,-108
-89,-106,-12,94,-33,-61,56,-51,-138,-155,-156,-114
-101,-118,-12,106,-39,-67,62,-57,-132,-143,-150,-102
-65,-94,-24,76,-15,-61,56,-57,-132,-137,-144,-108
-59,-76,-12,64,-21,-43,56,-57,-132,-149,-150,-108
-77,-112,-30,94,-21,-73,56,-57,-126,-149,-144,-102
-77,-130,-48,100,-9,-91,62,-57,-138,-143,-150,-102
-65,-100,-30,82,-15,-67,62,-63,-138,-143,-144,-102
-53,-88,-30,70,-9,-61,68,-57,-126,-149,-144,-96
-71,-94,-18,82,-21,-55,62,-51,-120,-131,-138,-90
-83,-94,-6,88,-33,-49,68,-51,-108,-131,-132,-90
-89,-94,-1,88,-39,-49,56,-57,-120,-143,-132,-102
-65,-76,-6,70,-27,-43,56,-63,-120,-143,-132,-102
-65,-76,-6,70,-27,-43,62,-57,-120,-131,-132,-96
-77,-82,-1,76,-33,-43,74,-51,-114,-125,-132,-96
-71,-82,-6,76,-27,-43,68,-51,-108,-131,-138,-96
-71,-88,-12,76,-27,-49,92,-15,-84,-119,-132,-96
-65,-100,-30,82,-15,-67,128,14,-54,-119,-138,-108
-77,-130,-48,100,-9,-91,176,86,-7,-107,-144,-120
-71,-124,-48,94,-9,-85,230,164,65,-59,-126,-120
-89,-118,-24,100,-27,-73,290,248,155,-11,-102,-120
-71,-76,-1,70,-33,-37,338,308,233,48,-54,-96
-6,-46,-36,22,8,-43,338,356,329,138,23,-30
18,-40,-66,4,38,-49,368,428,443,264,131,41
84,-10,-102,-31,92,-55,386,512,581,420,257,155
186,43,-138,-115,164,-37,362,524,683,564,425,275
264,121,-144,-193,206,-2,302,494,785,768,635,455
360,211,-150,-283,254,28,230,464,905,1020,899,671
516,319,-198,-421,356,58,92,374,965,1230,1145,899
696,421,-270,-553,482,70,-93,200,953,1404,1367,1115
816,523,-288,-673,554,118,-309,-15,887,1548,1589,1331
900,637,-258,-763,578,190,-483,-213,821,1686,1763,1511
930,733,-192,-829,560,268,-585,-363,725,1752,1871,1613
882,793,-84,-835,482,352,-717,-591,503,1698,1865,1625
786,811,17,-799,380,418,-813,-777,317,1638,1811,1571
726,763,35,-739,338,406,-849,-885,173,1488,1661,1457
642,661,11,-649,308,340,-891,-993,-48,1158,1313,1217
486,475,-12,-481,248,232,-873,-1065,-294,738,887,893
318,319,-1,-319,158,160,-819,-1101,-558,300,455,563
168,253,83,-211,38,172,-795,-1191,-912,-191,11,233
30,133,95,-79,-27,118,-735,-1203,-1170,-611,-360,-42
-95,-5,83,46,-93,34,-639,-1125,-1302,-941,-678,-300
-227,-88,131,154,-183,16,-549,-1053,-1410,-1217,-924,-516
-275,-112,161,196,-225,16,-501,-999,-1386,-1241,-996,-618
-287,-118,167,202,-231,16,-471,-927,-1266,-1133,-936,-612
-299,-148,149,226,-231,-2,-435,-861,-1182,-1061,-888,-594
-299,-184,113,244,-213,-31,-411,-795,-1110,-995,-846,-576
-287,-196,89,244,-195,-49,-363,-735,-1014,-923,-780,-552
-281,-190,89,238,-189,-43,-327,-657,-930,-839,-726,-504
-269,-208,59,238,-171,-67,-261,-579,-846,-779,-678,-480
-269,-226,41,244,-159,-85,-201,-495,-756,-713,-618,-444
-263,-214,47,238,-159,-79,-147,-423,-666,-629,-570,-408
-227,-172,47,196,-141,-55,-111,-357,-576,-563,-504,-366
-203,-148,47,172,-129,-43,-75,-285,-474,-467,-426,-312
-191,-124,59,154,-129,-25,-33,-225,-378,-377,-354,-258
-167,-100,59,130,-117,-13,-4,-177,-312,-317,-306,-222
-149,-88,53,118,-105,-13,2,-159,-282,-281,-276,-198
-137,-70,59,100,-99,-2,26,-141,-246,-245,-246,-174
-125,-52,65,88,-99,-2,50,-105,-216,-215,-216,-156
-113,-46,59,76,-87,-2,50,-81,-192,-191,-198,-138
-95,-34,53,64,-75,4,56,-69,-180,-191,-192,-138
-95,-40,47,64,-75,-2,68,-45,-150,-179,-186,-132
-107,-34,65,70,-87,10,92,-15,-120,-161,-162,-120
-89,-40,41,64,-69,-2,86,-27,-102,-143,-162,-126
-83,-64,11,70,-51,-19,92,-21,-84,-125,-150,-114
-95,-76,11,82,-57,-25,98,-10,-84,-113,-132,-102
-95,-82,5,88,-51,-31,104,-10,-72,-101,-126,-96
-83,-76,-1,76,-45,-31,116,-4,-66,-101,-114,-84
-59,-40,11,46,-39,-7,128,-10,-66,-95,-102,-72
-47,-22,17,34,-33,-2,122,-4,-66,-95,-108,-72
-59,-34,17,46,-39,-2,116,2,-72,-107,-120,-84
-59,-34,17,46,-39,-2,128,8,-66,-113,-126,-96
-65,-64,-1,64,-33,-31,128,20,-48,-89,-120,-84
-83,-70,5,76,-45,-25,140,32,-24,-71,-108,-78
-83,-70,5,76,-45,-25,134,26,-12,-77,-102,-72
-65,-64,-1,64,-33,-31,128,20,-30,-77,-102,-66
-65,-64,-1,64,-33,-31,134,20,-24,-53,-78,-54
-59,-52,-1,52,-33,-19,134,20,-30,-59,-78,-54
-59,-58,-1,58,-27,-25,140,20,-36,-59,-72,-42
-41,-64,-18,52,-9,-43,146,32,-36,-53,-78,-36
-41,-82,-36,58,-4,-61,152,44,-24,-65,-60,-36
-41,-64,-18,52,-9,-43,158,56,-7,-65,-66,-36
-53,-46,-1,46,-27,-19,140,50,-7,-59,-78,-36
-47,-52,-1,46,-21,-25,134,56,-7,-53,-66,-48
-59,-52,-1,52,-33,-19,140,62,5,-47,-60,-42
-47,-46,-1,46,-21,-19,134,44,-7,-53,-66,-54
-35,-52,-12,40,-9,-31,140,50,-1,-35,-54,-42
-23,-40,-12,28,-4,-25,140,50,-7,-35,-48,-42
-35,-28,-1,28,-21,-7,128,38,-7,-53,-60,-42
-41,-40,-1,40,-21,-19,134,50,-1,-47,-66,-42
-53,-46,-1,46,-27,-19,140,68,5,-47,-48,-36
-53,-52,-1,52,-27,-25,140,74,11,-53,-60,-36
-47,-52,-1,46,-21,-25,128,80,17,-47,-78,-42
-23,-40,-12,28,-4,-25,140,86,29,-35,-66,-42
-23,-40,-12,28,-4,-25,140,86,41,-23,-48,-36
-35,-58,-18,46,-4,-37,128,62,41,-23,-48,-30
-59,-70,-6,64,-21,-37,128,62,41,-11,-42,-24
-59,-64,-1,58,-27,-31,146,74,41,-6,-30,-12
-47,-58,-6,52,-15,-31,134,74,41,-11,-30,-7
-29,-46,-12,34,-4,-31,134,74,35,-17,-36,-12
-23,-40,-12,28,-4,-25,140,80,35,-11,-24,-12
-41,-46,-1,40,-15,-25,146,92,41,-6,-30,-12
-41,-46,-1,40,-15,-25,134,92,53,-11,-30,-18
-23,-34,-6,28,-4,-19,134,92,65,-6,-18,-18
-6,-22,-12,10,-4,-19,134,92,65,0,-12,-7
-6,-46,-36,22,8,-43,134,86,65,0,-18,-12
-11,-40,-24,22,-4,-31,128,80,53,12,-7,-7
-17,-34,-12,22,-4,-25,134,86,59,18,-7,5
-35,-22,5,28,-21,-2,128,86,59,12,-1,5
-23,-28,-1,22,-9,-13,128,92,47,18,-1,5
-17,-22,-1,16,-4,-13,128,104,53,24,-7,5
-23,-16,-1,16,-15,-2,134,110,65,24,-7,-1
-23,-34,-6,28,-4,-19,128,110,71,36,-1,-1
-6,-28,-18,16,-4,-25,134,110,77,42,5,-1
-17,-28,-6,22,-4,-19,134,116,89,48,11,5
-11,-22,-6,16,-4,-13,134,122,101,60,23,17
-6,-16,-18,4,2,-13,134,104,95,72,35,23
6,-16,-30,4,14,-19,128,98,83,72,29,23
12,-10,-30,4,20,-19,128,110,95,78,47,41
18,-5,-24,-1,20,-7,128,128,101,84,53,47
6,-5,-18,4,8,-7,140,134,113,96,59,53
-6,-10,-1,4,-4,-7,140,146,125,114,71,59
-6,-5,-1,4,-4,-2,134,140,131,114,77,59
6,-10,-24,4,14,-13,134,134,149,126,77,65
12,-22,-42,4,26,-31,128,134,155,132,77,65
24,-5,-30,-7,26,-13,116,140,161,144,89,77
36,1,-30,-19,32,-7,116,140,173,162,113,95
42,1,-36,-19,38,-7,128,140,179,180,125,113
42,13,-24,-25,32,-2,110,134,167,168,119,101
54,37,-12,-43,32,10,104,134,167,162,113,101
42,31,-6,-37,26,10,122,164,191,192,143,119
48,31,-12,-37,32,4,128,176,203,198,143,125
48,31,-12,-37,32,4,122,176,221,204,155,125
60,43,-12,-49,38,10,116,164,215,222,161,119
60,43,-12,-49,38,10,116,176,233,234,173,137
96,61,-30,-79,62,10,116,176,245,240,179,149
84,43,-36,-61,62,-2,116,176,257,246,197,161
84,43,-36,-61,62,-2,110,170,245,264,197,161
96,49,-42,-73,68,-2,116,176,257,270,209,173
102,49,-48,-73,74,-2,116,182,269,276,215,191
90,49,-36,-67,62,4,116,194,275,282,221,191
108,73,-30,-91,68,16,110,200,287,288,221,191
102,61,-36,-79,68,10,110,200,305,300,233,197
114,67,-42,-91,80,10,98,200,305,318,233,203
126,91,-30,-109,80,28,98,206,317,330,245,215
120,85,-30,-103,74,22,92,200,329,342,263,221
114,79,-30,-97,74,22,98,200,341,360,275,233
132,103,-24,-115,80,34,104,206,347,372,287,251
168,121,-42,-145,104,34,98,218,353,384,311,269
168,127,-36,-145,104,40,92,212,341,372,305,263
168,121,-42,-145,104,34,92,218,347,366,299,257
168,109,-54,-139,110,22,110,230,371,384,311,275
168,97,-66,-133,116,10,98,230,371,384,317,275
174,109,-60,-139,116,22,86,224,371,384,311,269
168,109,-54,-139,110,22,98,230,395,402,329,281
174,109,-60,-139,116,22,92,230,389,408,341,281
204,121,-78,-163,140,16,80,224,383,414,341,287
198,115,-78,-157,140,16,86,218,383,420,347,299
186,109,-72,-145,128,16,92,218,389,408,347,299
186,115,-66,-151,128,22,98,212,377,396,335,293
180,109,-66,-145,122,16,98,218,371,396,341,293
186,121,-60,-151,122,28,92,218,365,378,323,287
174,127,-42,-151,110,40,80,212,359,372,311,275
180,103,-72,-139,128,10,86,218,359,372,311,281
174,85,-84,-127,128,-2,92,218,371,378,311,287
168,91,-72,-127,122,4,86,200,353,366,299,275
174,103,-66,-139,122,16,74,194,335,354,299,269
174,103,-66,-139,122,16,86,188,329,348,299,269
168,91,-72,-127,122,4,86,194,317,342,287,263
168,97,-66,-133,116,10,80,182,305,330,263,251
168,109,-54,-139,110,22,92,188,305,330,269,257
162,85,-72,-121,116,4,86,182,287,300,245,233
126,55,-66,-91,98,-2,80,170,281,276,233,221
150,85,-60,-115,104,10,86,170,281,282,233,221
150,91,-54,-121,104,16,98,182,293,288,233,227
126,85,-36,-103,80,22,92,170,281,282,233,215
120,85,-30,-103,74,22,86,170,269,276,233,215
132,73,-54,-103,92,4,80,158,257,264,221,215
132,79,-48,-103,92,10,74,152,233,240,203,191
132,85,-42,-109,86,16,74,140,227,234,185,179
108,67,-36,-85,74,10,98,158,233,228,191,191
114,49,-60,-79,86,-2,104,164,233,222,179,185
108,43,-60,-73,86,-2,110,170,233,222,179,179
108,61,-42,-85,74,4,116,164,233,216,179,179
90,49,-36,-67,62,4,104,158,233,204,167,167
90,43,-42,-67,68,-2,98,152,227,198,161,167
96,31,-60,-61,80,-7,110,158,221,204,167,173
90,31,-54,-61,74,-2,110,140,203,186,155,167
78,37,-36,-55,56,-2,104,128,191,180,143,155
66,37,-24,-49,44,4,104,128,179,168,137,143
78,43,-30,-61,56,4,104,122,173,156,125,137
78,37,-36,-55,56,-2,110,128,173,156,119,131
72,37,-30,-55,50,-2,104,134,173,156,113,119
72,31,-36,-49,56,-2,98,128,161,144,101,107
54,25,-24,-37,38,-2,110,128,161,144,89,107
60,25,-30,-43,44,-2,110,116,149,132,83,89
54,13,-36,-31,44,-2,110,110,137,132,77,89
36,1,-30,-19,32,-7,134,104,131,126,77,101
42,7,-30,-25,38,-2,128,104,125,114,71,89
24,13,-6,-19,14,-2,128,92,101,102,59,77
18,-5,-24,-1,20,-7,134,86,83,90,41,77
12,-5,-12,-1,14,-2,134,86,83,78,35,59
12,-5,-12,-1,14,-2,122,86,71,72,29,47
12,7,-1,-7,8,-2,116,74,59,60,23,29
-6,7,5,-1,-4,10,134,86,71,66,29,35
0,7,-1,-1,-4,4,128,74,59,66,17,35
-6,-5,-1,4,-4,-2,122,62,41,60,11,29
-23,-28,-1,22,-9,-13,122,44,23,42,5,23
-11,-28,-12,16,-4,-19,122,44,5,30,-7,11
-6,-16,-12,4,-4,-13,122,44,-7,24,-7,11
-17,-40,-18,28,-4,-31,128,38,-7,6,-12,5
-35,-40,-1,34,-15,-19,128,32,-12,-6,-24,-7
-23,-40,-12,28,-4,-25,116,26,-30,-11,-42,-18
-41,-46,-1,40,-15,-25,122,20,-30,-11,-42,-18
-35,-40,-1,34,-15,-19,122,2,-30,-23,-48,-24
-11,-34,-18,22,-4,-25,110,-4,-36,-23,-60,-30
-47,-46,-1,46,-21,-19,116,-4,-36,-11,-48,-24
-71,-46,17,58,-45,-7,116,-4,-54,-23,-48,-30
-65,-52,5,58,-39,-19,122,2,-60,-17,-48,-18
-65,-40,17,52,-45,-7,128,-4,-72,-29,-54,-18
-53,-46,-1,46,-27,-19,122,-10,-84,-47,-72,-36
-53,-40,5,46,-33,-13,116,-10,-84,-59,-78,-48
-41,-34,-1,34,-21,-13,116,2,-72,-47,-78,-54
-35,-16,11,22,-27,-2,122,-10,-72,-47,-78,-48
-77,-46,23,58,-51,-7,116,-10,-72,-53,-78,-48
-71,-46,17,58,-45,-7,104,-10,-90,-59,-90,-66
-47,-40,-1,40,-27,-13,122,-10,-84,-41,-78,-48
-65,-52,5,58,-39,-19,122,-21,-96,-65,-90,-60
-77,-58,11,64,-45,-19,116,-15,-96,-65,-96,-60
-65,-46,11,52,-39,-13,122,-10,-96,-59,-90,-54
-53,-58,-1,52,-21,-31,122,-10,-102,-65,-96,-54
-47,-52,-1,46,-21,-25,116,-15,-102,-77,-108,-66
-71,-52,11,58,-45,-13,128,2,-78,-59,-96,-60
-77,-46,23,58,-51,-7,128,-4,-78,-59,-84,-48
-71,-46,17,58,-45,-7,122,-15,-84,-71,-96,-60
-59,-46,5,52,-33,-13,116,-10,-72,-65,-84,-54
-41,-52,-6,46,-15,-31,110,-10,-78,-59,-78,-48
-53,-28,17,40,-39,-2,122,-15,-78,-53,-72,-48
-65,-16,41,40,-57,4,128,-10,-84,-59,-84,-54
-65,-34,23,46,-45,-2,110,-15,-96,-65,-90,-66
-65,-28,29,46,-51,-2,110,-10,-90,-65,-84,-60
-65,-28,29,46,-51,-2,122,-10,-78,-65,-90,-72
-59,-40,11,46,-39,-7,128,-10,-72,-59,-90,-72
-47,-46,-1,46,-21,-19,122,-10,-72,-59,-84,-60
-53,-58,-1,52,-21,-31,50,-4,-48,-41,-72,-48
-65,-34,23,46,-45,-2,-39,-10,-54,-41,-66,-48
-53,-22,23,34,-39,-2,-63,-4,-54,-35,-60,-36
-41,-28,5,34,-27,-7,-57,-10,-48,-41,-60,-36
-41,-16,17,28,-33,-2,-81,-10,-54,-41,-66,-42
-41,-16,17,28,-33,-2,-87,-10,-60,-35,-60,-36
-41,-16,17,28,-33,-2,-87,-4,-54,-35,-48,-36
-47,-5,35,22,-45,10,-93,-4,-54,-35,-54,-54
-47,-10,29,28,-39,4,-87,-4,-48,-35,-60,-54
-23,-5,11,10,-21,-2,-93,-10,-42,-35,-66,-48
-23,-5,17,10,-21,4,-87,-4,-24,-17,-60,-36
-35,-5,23,16,-33,4,-93,-4,-24,-17,-42,-30
-35,-5,23,16,-33,4,-81,-4,-24,-11,-42,-24
-35,-16,11,22,-27,-2,-81,-4,-24,-6,-24,-12
-29,-34,-1,28,-9,-19,-81,2,-18,-6,-24,-12
-11,-22,-6,16,-4,-13,-87,2,-18,-6,-24,-12
-17,-5,11,4,-15,-2,-105,-10,-30,-11,-36,-18
-17,-5,11,4,-15,-2,-99,-4,-18,-6,-30,-12
-23,-5,11,10,-21,-2,-93,2,-7,-11,-36,-18
-23,-16,-1,16,-15,-2,-87,14,-7,-6,-24,-7
-6,-10,-1,4,-4,-7,-93,8,-1,-6,-24,-7
-6,-10,-1,4,-4,-7,-93,-4,-7,-6,-12,-12
-29,-22,-1,22,-15,-7,-81,2,-7,6,-12,-7
-17,-16,-1,16,-9,-7,-87,2,-7,6,-7,-7
-6,-5,-6,4,-4,-2,-99,-10,-12,-6,-18,-7
-6,-5,-1,4,-4,-2,-93,2,-18,0,-12,-7
-6,-5,-1,4,-4,-2,-99,-4,-18,-6,-12,-7
-17,-5,5,10,-15,-2,-99,2,-12,-6,-7,-7
-23,-16,-1,16,-15,-2,-87,8,-7,-6,-18,-7
-17,-10,-1,10,-9,-2,-99,-4,-12,-6,-24,-18
-6,-5,-1,4,-4,-2,-105,-10,-12,-11,-24,-18
-23,-22,-1,22,-9,-7,-93,-4,-12,-6,-18,-18
-29,-5,23,10,-27,4,-87,2,-12,-6,-24,-18
-11,7,23,4,-15,16,-99,-10,-24,-6,-24,-12
-23,-5,17,10,-21,4,-99,-10,-24,-6,-30,-18
-6,-5,-1,4,-4,-2,-105,-10,-36,-11,-36,-24
6,-5,-12,4,8,-2,-105,-10,-24,-11,-30,-18
-6,-10,-6,4,-4,-7,-105,-4,-24,-11,-24,-12
-29,-16,5,22,-21,-2,-93,2,-18,-11,-36,-12
-29,-10,11,16,-21,-2,-93,2,-18,-11,-42,-24
-23,-10,5,16,-15,-2,-81,8,-7,-6,-24,-18
-41,-22,11,28,-27,-2,-93,8,-12,-6,-30,-24
-17,-10,-1,10,-9,-2,-99,-4,-24,-6,-36,-24
-23,-10,5,16,-15,-2,-99,-10,-30,-11,-30,-24
-35,-22,5,28,-21,-2,-87,-4,-24,-11,-30,-12
-29,-28,-1,28,-15,-13,-81,8,-18,-6,-24,-12
-23,-40,-12,28,-4,-25,-87,-10,-30,-17,-42,-24
-41,-40,-1,40,-21,-19,-105,-10,-42,-35,-48,-36
-59,-52,-1,52,-33,-19,-93,-4,-36,-29,-48,-36
-47,-34,5,40,-27,-7,-93,-4,-36,-23,-48,-42
-23,-16,-1,16,-15,-2,-87,-4,-30,-23,-48,-30
-29,-16,5,22,-21,-2,-99,-10,-42,-29,-48,-42
-47,-28,11,34,-33,-2,-87,-4,-30,-17,-42,-36
-53,-34,11,40,-33,-7,-81,-10,-36,-23,-48,-36
-35,-34,-1,34,-15,-13,-81,-10,-48,-35,-54,-42
-23,-28,-1,22,-9,-13,-81,-4,-54,-29,-48,-42
-35,-40,-1,34,-15,-19,-75,8,-48,-29,-48,-36
-53,-28,17,40,-39,-2,-87,-10,-66,-47,-72,-48
-53,-40,5,46,-33,-13,-93,-10,-72,-59,-78,-54
-41,-46,-1,40,-15,-25,-87,-4,-60,-47,-72,-54
-23,-40,-12,28,-4,-25,-93,-10,-66,-53,-78,-60
-11,-34,-18,22,-4,-25,-99,-21,-72,-59,-78,-66
-23,-40,-12,28,-4,-25,-93,-15,-66,-47,-72,-54
-35,-34,-1,34,-15,-13,-75,-10,-54,-35,-48,-36
-29,-40,-6,34,-9,-25,-69,-10,-54,-35,-60,-42
-29,-34,-1,28,-9,-19,-81,-10,-72,-53,-72,-54
-47,-52,-1,46,-21,-25,-81,-10,-72,-53,-72,-48
-47,-52,-1,46,-21,-25,-81,-10,-72,-59,-72,-48
-41,-34,-1,34,-21,-13,-87,-10,-66,-71,-78,-54
-35,-34,-1,34,-15,-13,-87,-10,-72,-71,-84,-72
-35,-46,-6,40,-9,-25,-87,-10,-72,-71,-84,-72
-29,-40,-6,34,-9,-25,-81,-10,-60,-59,-72,-66
-41,-46,-1,40,-15,-25,-75,-10,-48,-53,-72,-60
-59,-58,-1,58,-27,-25,-75,-10,-66,-65,-78,-78
-65,-52,5,58,-39,-19,-75,-15,-84,-77,-96,-78
-47,-28,11,34,-33,-2,-81,-10,-84,-83,-102,-84
-41,-40,-1,40,-21,-19,-75,-10,-72,-83,-102,-90
-53,-52,-1,52,-27,-25,-69,-10,-72,-83,-90,-84
-65,-40,17,52,-45,-7,-69,-4,-72,-89,-102,-78
-59,-34,17,46,-39,-2,-81,-10,-72,-89,-102,-84
-53,-46,-1,46,-27,-19,-93,-15,-84,-95,-108,-96
-47,-64,-12,52,-15,-37,-75,-10,-66,-77,-96,-72
-41,-76,-30,58,-4,-55,-69,-10,-66,-71,-84,-66
-47,-52,-1,46,-21,-25,-75,-10,-84,-77,-96,-78
-47,-52,-1,46,-21,-25,-75,-10,-78,-77,-90,-66
-47,-70,-18,58,-9,-43,-69,-10,-78,-77,-84,-72
-47,-76,-24,58,-9,-49,-75,-10,-90,-83,-90,-78
-53,-64,-6,58,-21,-37,-69,-10,-90,-83,-96,-78
-53,-52,-1,52,-27,-25,-63,2,-66,-71,-84,-66
-65,-64,-1,64,-33,-31,-75,2,-60,-71,-90,-72
-53,-52,-1,52,-27,-25,-69,2,-72,-83,-96,-84
-35,-40,-1,34,-15,-19,-75,-10,-84,-89,-108,-90
-53,-34,11,40,-33,-7,-69,-10,-72,-83,-96,-78
-71,-58,5,64,-39,-19,-63,-4,-72,-77,-90,-72
-59,-58,-1,58,-27,-25,-69,-10,-90,-89,-102,-84
-53,-58,-1,52,-21,-31,-69,-10,-90,-89,-102,-84
-53,-46,-1,46,-27,-19,-69,-4,-90,-95,-102,-90
-53,-46,-1,46,-27,-19,-69,-4,-96,-101,-114,-102
-71,-64,-1,64,-39,-25,-69,2,-84,-101,-108,-96
-59,-70,-6,64,-21,-37,-69,-4,-84,-101,-114,-102
-41,-70,-24,52,-4,-49,-63,-10,-84,-107,-120,-108
-47,-70,-18,58,-9,-43,-75,-10,-84,-101,-120,-102
-59,-70,-6,64,-21,-37,-57,-10,-72,-95,-102,-90
-53,-46,-1,46,-27,-19,-69,-10,-90,-101,-114,-102
-53,-52,-1,52,-27,-25,-69,-10,-90,-101,-114,-102
-65,-64,-1,64,-33,-31,-63,-4,-84,-95,-114,-102
-77,-52,17,64,-51,-13,-57,2,-84,-95,-120,-102
-59,-52,-1,52,-33,-19,-57,-4,-84,-101,-120,-108
-41,-46,-1,40,-15,-25,-57,2,-78,-101,-108,-102
-59,-46,5,52,-33,-13,-51,8,-60,-83,-96,-102
-65,-22,35,40,-51,-2,-45,8,-54,-71,-84,-84
-47,-10,29,28,-39,4,-45,14,-54,-71,-84,-84
-59,-5,53,28,-57,22,-51,2,-54,-83,-90,-78
-65,-5,53,34,-63,16,-45,-4,-60,-83,-84,-78
-65,-10,47,34,-57,10,-45,2,-66,-83,-84,-78
-65,-5,53,34,-63,16,-45,8,-66,-89,-90,-78
-71,-5,59,34,-69,22,-39,2,-72,-89,-90,-84
-53,-5,53,22,-51,22,-57,2,-72,-89,-90,-84
-41,-10,23,22,-33,-2,-57,14,-66,-89,-84,-72
-29,-5,17,16,-27,-2,-69,8,-66,-89,-90,-84
-47,-5,47,16,-45,22,-69,-4,-66,-89,-90,-84
-59,-5,47,28,-57,16,-63,-4,-66,-83,-90,-84
-47,1,53,16,-51,28,-87,-10,-72,-89,-84,-84
-53,13,71,10,-63,40,-117,-39,-96,-101,-90,-96
-47,25,77,4,-63,52,-99,-33,-96,-95,-84,-78
-6,31,41,-7,-21,34,-99,-21,-84,-89,-78,-72
-23,19,47,4,-33,34,-93,-27,-84,-83,-66,-72
-23,19,47,4,-33,34,-111,-27,-84,-83,-66,-72
-17,43,65,-7,-39,52,-111,-27,-84,-71,-54,-60
-23,55,83,-7,-51,70,-111,-27,-78,-65,-60,-54
-17,79,101,-25,-57,88,-135,-51,-90,-77,-66,-60
-6,91,101,-37,-51,94,-135,-57,-90,-71,-60,-54
-11,73,89,-25,-51,82,-141,-51,-96,-65,-54,-48
0,91,83,-43,-33,88,-147,-63,-108,-77,-60,-66
-6,85,89,-37,-45,88,-147,-81,-126,-95,-78,-78
-11,91,107,-31,-57,100,-147,-81,-126,-101,-84,-78
-17,91,113,-31,-63,100,-129,-63,-120,-95,-72,-66
-53,79,137,-7,-93,106,-135,-57,-120,-101,-84,-78
-71,67,143,4,-105,106,-129,-57,-120,-101,-84,-78
-41,73,119,-7,-81,94,-135,-63,-138,-113,-96,-90
-35,67,107,-7,-69,88,-147,-75,-150,-125,-96,-96
-47,61,113,-1,-81,88,-141,-63,-150,-113,-96,-90
-41,61,107,-1,-75,82,-129,-57,-150,-119,-102,-96
-41,43,89,4,-63,64,-117,-45,-144,-119,-114,-102
-41,25,71,4,-57,46,-111,-39,-138,-119,-102,-90
-17,13,35,4,-27,22,-111,-33,-138,-119,-102,-90
-6,13,11,-1,-4,16,-117,-33,-144,-131,-102,-96
-11,-5,5,4,-9,-2,-111,-33,-144,-137,-114,-108
-35,-46,-6,40,-9,-25,-93,-15,-132,-137,-114,-102
-47,-46,-1,46,-21,-19,-81,-10,-114,-119,-108,-102
-41,-40,-1,40,-21,-19,-81,-10,-120,-131,-114,-108
-41,-46,-1,40,-15,-25,-75,-10,-120,-125,-114,-108
-53,-46,-1,46,-27,-19,-63,-10,-126,-125,-108,-108
-83,-70,5,76,-45,-25,-57,-10,-126,-125,-120,-120
-89,-82,-1,82,-45,-37,-63,-10,-138,-137,-126,-120
-95,-112,-12,100,-39,-61,-63,-10,-138,-143,-126,-126
-71,-100,-24,82,-21,-61,-51,-4,-138,-143,-120,-132
-47,-76,-24,58,-9,-49,-51,-10,-138,-149,-132,-132
-35,-82,-42,58,-4,-61,-57,-10,-132,-143,-132,-120
-35,-100,-60,64,2,-79,-63,-10,-120,-143,-132,-132
-71,-112,-36,88,-15,-73,-51,-4,-126,-149,-132,-132
-77,-106,-24,88,-21,-67,-51,-4,-132,-149,-138,-132
-77,-94,-12,82,-27,-55,-63,-10,-138,-155,-144,-138
-83,-106,-18,94,-27,-61,-57,-10,-144,-155,-138,-144
-59,-112,-48,82,-4,-79,-45,-10,-144,-149,-132,-132
-53,-106,-48,76,-4,-79,-39,2,-132,-137,-120,-120
-71,-100,-24,82,-21,-61,-51,2,-138,-161,-132,-138
-77,-100,-18,88,-27,-61,-45,2,-138,-155,-132,-144
-65,-100,-30,82,-15,-67,-51,-4,-138,-161,-138,-156
-53,-100,-42,76,-4,-73,-57,-4,-132,-161,-132,-150
-53,-100,-42,76,-4,-73,-57,-10,-132,-161,-138,-150
-59,-118,-54,88,-4,-85,-57,2,-126,-149,-138,-144
-59,-106,-42,82,-4,-73,-45,8,-126,-143,-132,-132
-59,-112,-48,82,-4,-79,-51,8,-132,-149,-132,-144
-65,-118,-48,88,-4,-85,-45,14,-132,-155,-132,-144
-77,-106,-24,88,-21,-67,-45,20,-132,-161,-138,-150
-83,-118,-30,100,-21,-73,-39,26,-126,-167,-144,-138
-77,-118,-36,94,-15,-79,-45,20,-126,-161,-144,-144
-65,-106,-36,82,-9,-73,-51,20,-126,-167,-144,-144
-65,-100,-30,82,-15,-67,-45,32,-114,-155,-132,-138
-77,-118,-36,94,-15,-79,-39,32,-114,-155,-126,-132
-71,-118,-42,94,-9,-79,-39,32,-108,-149,-126,-132
-53,-118,-60,82,-4,-91,-39,32,-108,-149,-120,-126
-47,-118,-66,82,2,-91,-45,32,-120,-149,-120,-132
-59,-112,-48,82,-4,-79,-45,26,-120,-143,-126,-132
-77,-100,-18,88,-27,-61,-33,50,-108,-131,-108,-120
-65,-106,-36,82,-9,-73,-39,50,-114,-143,-108,-120
-53,-106,-48,76,-4,-79,-33,56,-102,-143,-114,-126
-53,-112,-54,82,-4,-85,-39,44,-108,-149,-114,-126
-65,-106,-36,82,-9,-73,-45,50,-108,-143,-114,-120
-59,-94,-30,76,-9,-61,-45,44,-108,-137,-108,-120
-59,-94,-30,76,-9,-61,-33,44,-102,-137,-108,-126
-71,-112,-36,88,-15,-73,-39,50,-108,-137,-108,-120
-59,-94,-30,76,-9,-61,-39,44,-114,-131,-114,-126
-47,-94,-42,70,-4,-67,-33,44,-114,-131,-102,-114
-65,-100,-30,82,-15,-67,-27,56,-96,-125,-102,-114
-71,-118,-42,94,-9,-79,-15,74,-90,-131,-108,-126
-53,-130,-72,88,2,-103,-4,116,-60,-119,-114,-144
-47,-136,-84,88,8,-109,50,182,-7,-95,-102,-138
-59,-142,-78,100,2,-109,92,242,65,-65,-108,-150
-71,-142,-66,106,-4,-103,152,296,131,-41,-102,-162
-71,-94,-18,82,-21,-55,200,368,197,-6,-84,-162
-23,-58,-30,40,-4,-43,224,422,281,90,-1,-90
24,-58,-90,10,56,-73,242,488,401,228,119,-7
84,-40,-132,-13,104,-85,266,566,521,360,245,83
126,1,-120,-61,122,-49,266,614,647,516,401,215
222,79,-138,-151,182,-19,218,602,743,720,593,365
342,175,-168,-253,254,-2,134,578,863,954,839,563
468,295,-168,-379,314,64,26,530,977,1212,1121,797
600,397,-204,-493,404,94,-117,410,1001,1422,1373,1025
744,493,-246,-619,494,124,-339,194,953,1578,1601,1241
834,625,-210,-727,518,208,-531,-10,875,1716,1793,1433
882,739,-138,-811,506,298,-663,-159,773,1788,1913,1547
840,793,-42,-817,446,376,-759,-333,599,1776,1943,1595
750,841,83,-793,332,466,-879,-549,365,1680,1883,1535
702,829,125,-763,284,484,-933,-681,209,1572,1763,1445
630,727,95,-679,260,418,-975,-765,23,1314,1493,1259
510,583,65,-547,224,328,-987,-849,-228,894,1067,959
360,427,59,-391,146,244,-927,-891,-480,474,635,623
204,295,89,-247,50,196,-879,-951,-798,-17,185,299
60,193,125,-127,-27,160,-831,-987,-1098,-503,-234,-1
-47,43,95,4,-69,70,-741,-933,-1248,-869,-564,-258
-155,-52,95,100,-129,16,-657,-861,-1350,-1157,-846,-498
-233,-106,119,166,-177,-2,-591,-789,-1356,-1259,-978,-636
-263,-136,125,202,-201,-2,-543,-723,-1260,-1181,-954,-660
-269,-160,107,214,-195,-19,-513,-657,-1170,-1085,-882,-630
-263,-172,89,220,-183,-37,-489,-591,-1086,-1025,-840,-618
-263,-190,71,226,-171,-55,-441,-513,-984,-947,-792,-576
-239,-214,17,226,-129,-91,-405,-459,-906,-869,-732,-546
-233,-226,-1,226,-117,-109,-357,-399,-834,-797,-672,-516
-233,-214,11,220,-123,-97,-291,-321,-750,-731,-618,-492
-209,-202,-1,202,-105,-97,-243,-249,-654,-653,-552,-438
-203,-196,-1,196,-105,-91,-201,-177,-558,-563,-480,-396
-197,-172,17,184,-111,-73,-165,-117,-468,-479,-414,-354
-173,-130,35,148,-105,-43,-117,-51,-366,-401,-342,-294
-149,-124,17,136,-87,-49,-81,-10,-306,-329,-288,-258
-131,-88,35,106,-87,-19,-75,-4,-270,-293,-264,-240
-125,-46,71,82,-99,4,-63,14,-246,-269,-240,-216
-107,-46,53,76,-81,-2,-39,44,-210,-239,-210,-198
-89,-64,17,76,-57,-19,-33,56,-186,-215,-180,-180
-83,-46,29,64,-57,-2,-33,62,-174,-203,-180,-180
-89,-40,41,64,-69,-2,-21,80,-144,-185,-162,-168
-107,-58,41,82,-75,-2,-4,104,-114,-161,-150,-156
-89,-64,17,76,-57,-19,-4,110,-102,-155,-138,-150
-59,-64,-1,58,-27,-31,-4,116,-84,-149,-126,-144
-59,-64,-1,58,-27,-31,2,116,-78,-137,-126,-138
-59,-64,-1,58,-27,-31,8,116,-72,-119,-108,-138
-53,-58,-1,52,-21,-31,8,122,-60,-107,-90,-114
-35,-52,-12,40,-9,-31,8,128,-60,-95,-84,-114
-35,-58,-18,46,-4,-37,20,134,-54,-89,-78,-102
-23,-58,-30,40,-4,-43,20,128,-48,-89,-78,-102
-41,-64,-18,52,-9,-43,14,134,-48,-101,-84,-108
-59,-70,-6,64,-21,-37,20,140,-42,-95,-78,-114
-53,-58,-1,52,-21,-31,20,146,-30,-83,-78,-108
-41,-70,-24,52,-4,-49,20,140,-12,-83,-78,-102
-17,-76,-54,46,8,-67,38,146,-7,-71,-60,-96
-29,-70,-36,46,-4,-55,20,140,-12,-77,-54,-96
-41,-70,-24,52,-4,-49,26,140,-12,-71,-54,-90
-29,-70,-36,46,-4,-55,32,140,-12,-59,-48,-78
-29,-58,-24,40,-4,-43,44,152,-7,-59,-48,-78
-41,-40,-1,40,-21,-19,26,134,-12,-77,-54,-90
-41,-46,-1,40,-15,-25,32,146,-12,-77,-54,-90
-41,-52,-6,46,-15,-31,38,146,-7,-65,-48,-90
-29,-58,-24,40,-4,-43,26,146,-7,-59,-48,-84
-17,-64,-42,40,2,-55,20,140,-7,-65,-48,-78
-35,-58,-18,46,-4,-37,38,152,-1,-53,-36,-78
-35,-58,-18,46,-4,-37,38,140,-1,-53,-36,-84
-11,-64,-48,34,8,-55,32,146,-1,-53,-36,-72
-17,-46,-24,28,-4,-37,32,134,-7,-59,-42,-78
-41,-46,-1,40,-15,-25,44,146,-1,-47,-42,-78
-35,-58,-18,46,-4,-37,32,140,-7,-53,-48,-78
-29,-58,-24,40,-4,-43,38,146,-7,-53,-48,-72
-29,-58,-24,40,-4,-43,50,158,5,-47,-36,-66
-29,-70,-36,46,-4,-55,44,164,17,-47,-36,-66
-29,-46,-12,34,-4,-31,38,152,11,-47,-36,-66
-35,-46,-6,40,-9,-25,32,146,17,-41,-42,-72
-29,-70,-36,46,-4,-55,32,140,23,-35,-36,-72
-35,-64,-24,46,-4,-43,32,152,17,-29,-36,-60
-11,-40,-24,22,-4,-31,38,152,23,-23,-12,-48
-11,-46,-30,28,2,-37,38,152,23,-17,-12,-48
-11,-52,-36,28,2,-43,32,146,17,-29,-18,-48
-11,-40,-24,22,-4,-31,44,158,17,-23,-12,-48
-6,-34,-24,16,2,-31,38,152,23,-17,-7,-42
-6,-22,-12,10,-4,-19,38,158,29,-11,-12,-42
-6,-16,-6,10,-4,-13,32,152,35,-11,-12,-42
-6,-22,-12,10,-4,-19,38,146,41,-6,-7,-42
-6,-22,-18,10,2,-19,32,146,47,-6,-7,-42
-6,-22,-18,10,2,-19,32,152,53,0,-1,-24
-6,-28,-18,16,-4,-25,38,146,47,0,5,-24
-11,-34,-18,22,-4,-25,50,146,47,12,5,-24
-11,-34,-18,22,-4,-25,38,146,53,0,5,-30
-11,-40,-24,22,-4,-31,32,146,53,0,-1,-24
-6,-22,-18,10,2,-19,32,140,47,0,5,-30
-6,-22,-18,10,2,-19,38,152,71,18,17,-24
0,-16,-24,4,8,-19,26,146,65,18,17,-24
18,-10,-36,4,26,-19,32,152,71,36,17,-18
18,-5,-24,-1,20,-7,32,158,83,54,41,-7
30,-5,-36,-7,32,-13,20,152,77,54,47,-7
18,-5,-24,-1,20,-7,20,140,83,54,53,-7
18,-5,-24,-1,20,-7,26,152,89,72,59,-7
36,-5,-48,-7,38,-25,26,146,89,78,65,5
54,7,-42,-31,50,-7,20,152,89,78,65,5
24,1,-18,-13,20,-2,38,176,113,102,89,29
12,-5,-24,4,14,-13,38,182,125,114,101,41
42,-5,-48,-13,44,-19,26,158,125,108,101,35
66,-5,-72,-25,68,-31,20,164,125,120,101,35
66,7,-54,-37,62,-13,14,164,131,132,101,41
54,19,-30,-37,44,-2,20,170,137,132,107,53
42,19,-18,-31,32,-2,26,164,149,138,125,71
54,13,-36,-31,44,-2,20,170,167,162,131,71
60,25,-30,-43,44,-2,26,164,173,174,149,83
72,31,-36,-49,56,-2,20,164,173,162,137,89
90,37,-48,-61,68,-2,20,170,179,174,149,83
96,55,-36,-73,68,4,26,182,203,204,167,95
96,43,-48,-67,74,-2,20,182,209,216,173,101
90,31,-54,-61,74,-2,26,188,215,222,179,113
90,43,-42,-67,68,-2,20,182,227,234,197,125
96,49,-42,-73,68,-2,14,176,233,234,209,125
120,55,-60,-85,92,-2,14,170,233,246,221,137
126,55,-66,-91,98,-2,26,182,245,258,233,149
126,73,-48,-97,86,10,26,188,245,282,233,161
126,79,-42,-103,86,16,20,200,263,288,245,179
138,73,-60,-103,98,4,14,194,269,300,257,179
138,79,-54,-109,98,10,20,200,287,312,263,191
126,85,-36,-103,80,22,14,194,299,312,275,197
150,103,-42,-127,98,28,20,200,311,330,287,209
198,115,-78,-157,140,16,14,206,323,348,305,215
180,103,-72,-139,128,10,2,206,323,348,311,221
174,109,-60,-139,116,22,-4,188,317,354,317,227
192,133,-54,-163,122,34,2,200,329,354,323,227
198,133,-60,-163,128,34,8,212,341,378,335,233
204,139,-60,-169,134,34,2,212,341,372,329,239
186,139,-42,-163,116,46,8,218,347,384,341,251
168,121,-42,-145,104,34,2,218,353,384,335,245
180,121,-54,-151,116,28,2,212,359,384,341,251
192,127,-60,-157,128,28,14,224,365,396,347,263
186,127,-54,-157,122,34,8,224,365,396,359,269
216,133,-78,-175,146,22,-4,212,353,384,347,263
210,145,-60,-175,134,40,-4,194,341,378,341,257
186,133,-48,-157,116,40,-4,212,341,384,341,257
198,133,-60,-163,128,34,2,212,341,372,335,257
198,139,-54,-169,128,40,2,212,341,360,323,245
192,151,-36,-169,116,52,2,212,329,360,323,245
198,157,-36,-175,116,58,-4,218,329,354,311,239
198,133,-60,-163,128,34,2,212,335,354,311,245
192,109,-78,-151,134,10,2,212,335,354,311,245
210,109,-96,-157,152,4,2,212,323,354,317,245
198,121,-72,-157,134,22,-4,206,323,342,311,245
192,127,-60,-157,128,28,-4,194,311,324,299,239
198,121,-72,-157,134,22,-4,188,299,312,287,233
186,109,-72,-145,128,16,2,188,293,300,281,233
180,103,-72,-139,128,10,8,194,293,294,263,233
180,103,-72,-139,128,10,8,182,275,282,251,215
162,85,-72,-121,116,4,2,182,275,276,245,209
156,85,-66,-121,110,4,2,176,275,258,245,203
180,103,-72,-139,128,10,2,176,263,246,233,191
186,103,-78,-145,134,10,8,158,257,246,227,191
174,109,-60,-139,116,22,-4,146,245,234,227,185
162,115,-42,-139,104,34,2,134,245,234,227,185
150,109,-36,-127,92,34,2,146,239,228,221,185
162,97,-60,-127,110,16,14,146,233,222,215,179
144,97,-42,-121,92,22,26,158,239,222,209,191
132,97,-30,-115,80,28,26,146,233,210,203,173
126,91,-30,-109,80,28,20,146,233,204,185,155
132,79,-48,-103,92,10,20,146,227,186,173,155
144,79,-60,-109,104,4,20,146,227,186,173,155
156,85,-66,-121,110,4,26,140,221,186,167,149
150,85,-60,-115,104,10,14,140,209,168,155,143
132,91,-36,-109,86,22,32,134,203,162,155,137
102,73,-24,-85,62,22,32,134,203,156,155,131
114,61,-48,-85,80,4,38,134,203,150,143,125
120,49,-66,-85,92,-2,38,140,197,144,131,119
96,49,-42,-73,68,-2,38,134,185,138,125,107
90,67,-18,-79,56,22,38,128,179,126,113,89
96,61,-30,-79,62,10,44,122,173,120,113,95
90,49,-36,-67,62,4,32,110,167,120,101,89
84,37,-42,-61,62,-2,44,116,167,114,101,77
72,37,-30,-55,50,-2,56,128,155,114,107,83
66,43,-18,-55,44,10,56,116,143,102,89,71
72,37,-30,-55,50,-2,50,110,137,84,77,65
78,31,-42,-55,62,-2,56,104,119,78,71,59
72,13,-54,-43,62,-13,68,98,107,60,53,41
48,1,-42,-25,44,-13,62,86,101,60,47,35
36,7,-24,-19,32,-2,68,98,107,60,47,35
18,1,-12,-7,14,-2,74,92,101,48,41,23
18,-5,-18,-7,20,-2,74,80,89,36,29,11
36,-5,-36,-13,38,-13,62,62,65,24,17,-1
30,-5,-36,-7,32,-13,62,56,59,18,17,5
24,1,-18,-13,20,-2,62,44,41,0,-1,-7
6,-5,-12,4,8,-2,56,44,29,-6,-7,-7
-6,-16,-18,4,2,-13,62,44,17,-6,-12,-12
6,-5,-12,4,8,-2,56,32,5,-29,-30,-36
24,13,-6,-19,14,-2,62,20,5,-35,-42,-42
18,-5,-18,-7,20,-2,44,14,-7,-35,-54,-48
0,-16,-24,4,8,-19,50,20,-1,-41,-42,-36
0,-10,-18,4,8,-13,56,14,-7,-53,-54,-48
0,-10,-18,4,8,-13,56,8,-7,-47,-60,-54
-6,-16,-12,4,-4,-13,62,2,-7,-41,-48,-48
-6,-28,-18,16,-4,-25,62,2,-7,-47,-54,-48
-6,-28,-24,10,2,-25,50,-4,-18,-71,-66,-60
-6,-28,-30,10,8,-25,56,-10,-24,-77,-66,-66
-11,-28,-12,16,-4,-19,62,-10,-36,-83,-78,-66
-17,-40,-18,28,-4,-31,56,-10,-42,-89,-90,-72
-11,-46,-30,28,2,-37,62,-10,-30,-83,-84,-72
-17,-40,-18,28,-4,-31,50,-10,-36,-95,-84,-72
-17,-34,-12,22,-4,-25,50,-10,-30,-83,-84,-66
-6,-28,-30,10,8,-25,50,-15,-36,-83,-84,-72
0,-34,-42,10,20,-37,50,-10,-42,-89,-84,-72
-6,-28,-24,10,2,-25,50,-27,-48,-101,-90,-78
-29,-28,-1,28,-15,-13,50,-15,-42,-95,-78,-66
-11,-10,-1,10,-4,-2,44,-15,-42,-95,-78,-66
-17,-10,-1,10,-9,-2,56,-15,-42,-95,-84,-66
-23,-58,-30,40,-4,-43,56,-15,-36,-89,-84,-66
-17,-58,-36,34,2,-49,56,-15,-36,-89,-78,-60
-17,-28,-6,22,-4,-19,44,-27,-42,-95,-96,-78
-6,-16,-12,4,-4,-13,44,-21,-36,-89,-96,-78
-11,-16,-1,10,-4,-7,44,-27,-36,-83,-90,-72
-23,-16,-1,16,-15,-2,44,-33,-30,-77,-72,-66
-23,-22,-1,22,-9,-7,50,-33,-36,-83,-78,-72
-17,-34,-12,22,-4,-25,62,-21,-30,-77,-72,-60
-6,-22,-18,10,2,-19,44,-27,-30,-83,-78,-66
0,-16,-24,4,8,-19,44,-15,-30,-83,-78,-72
-6,-22,-18,10,2,-19,56,-15,-24,-83,-78,-66
-6,-22,-12,10,-4,-19,50,-21,-18,-77,-72,-60
-11,-28,-12,16,-4,-19,56,-15,-7,-65,-72,-60
-6,-22,-18,10,2,-19,50,-15,-12,-65,-66,-72
-6,-34,-24,16,2,-31,50,-15,-7,-53,-60,-54
-17,-34,-12,22,-4,-25,56,-10,-7,-53,-48,-36
-6,-16,-12,4,-4,-13,56,-10,-7,-53,-54,-54
-6,-5,-6,4,-4,-2,50,-21,-12,-59,-60,-54
6,-5,-18,4,8,-7,50,-21,-7,-53,-48,-42
18,-5,-18,-7,20,-2,38,-27,-7,-65,-54,-48
6,-5,-6,-1,8,-2,44,-21,-7,-59,-48,-54
-6,-5,-1,4,-4,-2,50,-10,-7,-53,-48,-48
-6,7,5,-1,-4,10,38,-21,-1,-47,-48,-42
18,19,-1,-19,8,10,44,-15,-1,-41,-36,-36
6,7,-1,-7,2,4,44,-15,5,-29,-48,-30
6,1,-1,-1,2,-2,44,-10,11,-17,-30,-18
12,-5,-24,4,14,-13,44,-15,5,-23,-30,-24
12,-10,-30,4,20,-19,44,-10,5,-23,-24,-24
18,-5,-18,-7,20,-2,44,-27,-7,-35,-36,-30
18,-5,-18,-7,20,-2,44,-21,-1,-35,-30,-24
18,-5,-18,-7,20,-2,50,-15,5,-29,-30,-24
0,-5,-1,4,2,-2,50,-15,5,-29,-30,-24
12,-5,-24,4,14,-13,44,-15,5,-23,-36,-24
24,1,-18,-13,20,-2,38,-27,5,-29,-36,-30
18,19,-1,-19,8,10,32,-27,5,-23,-36,-30
24,19,-1,-19,14,4,32,-15,11,-17,-18,-12
12,1,-6,-7,8,-2,38,-15,5,-17,-24,-18
24,-5,-30,-7,26,-13,32,-21,5,-23,-24,-18
48,1,-42,-25,44,-13,32,-21,5,-17,-18,-12
24,-5,-24,-7,26,-7,50,-10,17,-6,-7,-7
-6,-10,-6,4,-4,-7,50,-21,17,-6,-12,-7
18,-5,-18,-7,20,-2,26,-39,-1,-23,-24,-18
18,13,-1,-13,8,4,32,-33,5,-23,-24,-18
12,-5,-12,-1,14,-2,38,-33,11,-17,-18,-12
36,-5,-42,-13,38,-19,26,-33,11,-11,-18,-12
36,-5,-36,-13,38,-13,26,-39,5,-17,-18,-12
0,-5,-6,4,2,-2,44,-21,11,-6,-7,-7
6,-5,-6,-1,8,-2,32,-27,5,-11,-12,-7
12,-5,-12,-1,14,-2,32,-33,11,-17,-24,-7
18,1,-12,-7,14,-2,38,-27,5,-17,-18,-7
18,-5,-24,-1,20,-7,50,-21,11,-11,-12,-12
0,-5,-12,4,2,-7,32,-45,-1,-23,-24,-24
0,-10,-18,4,8,-13,32,-45,-1,-23,-36,-30
-6,-16,-18,4,2,-13,44,-39,5,-23,-24,-24
-6,-10,-12,4,2,-7,44,-39,11,-17,-18,-24
6,-5,-18,4,8,-7,38,-39,5,-11,-24,-24
-6,-16,-18,4,2,-13,32,-45,-7,-29,-42,-36
6,-5,-18,4,8,-7,32,-45,-7,-35,-48,-36
6,-10,-24,4,14,-13,26,-39,-7,-41,-54,-36
6,-10,-24,4,14,-13,26,-39,-7,-53,-60,-42
18,-5,-18,-7,20,-2,20,-51,-12,-59,-66,-48
12,7,-1,-7,8,-2,14,-51,-7,-47,-66,-48
-6,-5,-1,4,-4,-2,26,-51,-7,-47,-66,-60
-6,-16,-12,4,-4,-13,26,-51,-7,-53,-60,-54
0,-5,-6,4,2,-2,14,-57,-12,-53,-66,-60
-6,-5,-1,4,-4,-2,14,-51,-18,-53,-60,-48
0,-10,-18,4,8,-13,14,-51,-24,-59,-66,-54
-6,-22,-24,4,8,-19,20,-51,-18,-59,-54,-48
0,-16,-24,4,8,-19,20,-63,-24,-65,-72,-54
12,-10,-30,4,20,-19,20,-57,-30,-77,-72,-60
6,-16,-30,4,14,-19,26,-63,-24,-77,-78,-66
-6,-16,-12,4,-4,-13,26,-57,-18,-65,-72,-60
-6,-16,-18,4,2,-13,14,-57,-18,-59,-78,-66
-6,-16,-18,4,2,-13,20,-57,-18,-59,-66,-66
-6,-28,-24,10,2,-25,14,-69,-24,-59,-78,-66
-6,-34,-24,16,2,-31,20,-69,-36,-65,-78,-60
-6,-28,-30,10,8,-25,14,-81,-42,-77,-90,-72
6,-10,-24,4,14,-13,20,-69,-36,-77,-84,-72
-6,-16,-6,10,-4,-13,20,-69,-36,-77,-90,-66
-6,-28,-18,16,-4,-25,26,-69,-42,-77,-96,-72
-6,-40,-42,16,14,-37,20,-63,-42,-83,-90,-78
-6,-58,-54,28,20,-55,20,-63,-42,-77,-90,-72
-6,-52,-42,28,8,-49,26,-69,-42,-71,-102,-78
-6,-40,-36,16,8,-37,20,-63,-42,-77,-108,-84
-6,-34,-30,16,8,-31,20,-63,-42,-71,-96,-78
6,-22,-36,4,20,-25,20,-75,-54,-77,-96,-72
12,-34,-54,4,32,-43,14,-75,-54,-83,-102,-78
-11,-28,-12,16,-4,-19,14,-81,-48,-77,-90,-72
-17,-28,-6,22,-4,-19,20,-81,-54,-83,-96,-72
-6,-28,-24,10,2,-25,20,-75,-54,-89,-90,-78
-6,-34,-36,10,14,-31,20,-75,-54,-89,-102,-84
0,-40,-48,10,20,-43,14,-87,-66,-101,-120,-96
0,-46,-54,16,26,-49,20,-75,-54,-89,-114,-96
0,-28,-36,4,14,-31,14,-81,-48,-83,-102,-90
-17,-34,-12,22,-4,-25,26,-69,-42,-83,-102,-72
-29,-46,-12,34,-4,-31,20,-69,-54,-89,-108,-78
-11,-46,-30,28,2,-37,14,-81,-54,-95,-120,-90
-6,-28,-30,10,8,-25,8,-87,-60,-101,-114,-90
-17,-34,-12,22,-4,-25,14,-75,-48,-83,-102,-78
-17,-34,-12,22,-4,-25,32,-63,-48,-83,-102,-78
-6,-52,-54,22,20,-49,20,-69,-54,-89,-114,-90
-6,-64,-66,28,26,-61,26,-69,-48,-89,-108,-84
-6,-58,-54,28,20,-55,14,-75,-54,-89,-120,-90
-11,-52,-36,28,2,-43,14,-81,-54,-95,-120,-96
-17,-34,-12,22,-4,-25,8,-81,-54,-95,-120,-96
-35,-46,-6,40,-9,-25,14,-75,-66,-95,-120,-84
-41,-70,-24,52,-4,-49,20,-69,-60,-95,-120,-84
-11,-52,-36,28,2,-43,8,-75,-66,-101,-120,-90
-17,-40,-18,28,-4,-31,14,-75,-66,-107,-126,-90
-47,-46,-1,46,-21,-19,20,-75,-60,-107,-126,-90
-29,-40,-6,34,-9,-25,20,-69,-54,-107,-120,-90
-29,-34,-1,28,-9,-19,20,-69,-54,-101,-120,-90
-35,-34,-1,34,-15,-13,20,-69,-54,-95,-120,-90
-29,-46,-12,34,-4,-31,20,-69,-54,-89,-108,-84
-23,-34,-6,28,-4,-19,8,-75,-48,-89,-102,-84
-47,-34,5,40,-27,-7,20,-75,-60,-95,-114,-96
-53,-52,-1,52,-27,-25,20,-69,-60,-89,-114,-90
-41,-46,-1,40,-15,-25,20,-75,-54,-95,-114,-84
-17,-22,-1,16,-4,-13,20,-69,-54,-95,-108,-78
-29,-34,-1,28,-9,-19,14,-75,-72,-113,-120,-102
-47,-52,-1,46,-21,-25,14,-63,-60,-101,-120,-90
-47,-46,-1,46,-21,-19,32,-57,-48,-89,-108,-72
-47,-40,-1,40,-27,-13,26,-51,-48,-89,-114,-84
-41,-40,-1,40,-21,-19,14,-63,-60,-101,-114,-96
-53,-52,-1,52,-27,-25,8,-63,-60,-101,-114,-96
-47,-58,-6,52,-15,-31,20,-57,-60,-95,-114,-84
-59,-52,-1,52,-33,-19,14,-63,-66,-101,-120,-90
-59,-52,-1,52,-33,-19,20,-63,-66,-107,-114,-84
-47,-34,5,40,-27,-7,14,-69,-72,-107,-126,-84
-47,-34,5,40,-27,-7,20,-69,-72,-107,-114,-90
-53,-34,11,40,-33,-7,20,-57,-60,-95,-114,-84
-53,-28,17,40,-39,-2,20,-45,-60,-95,-114,-90
-47,-16,23,28,-39,-2,14,-51,-60,-95,-114,-90
-47,-10,29,28,-39,4,26,-45,-54,-89,-108,-84
-47,-5,47,16,-45,22,20,-51,-54,-83,-108,-78
-47,-5,35,22,-45,10,26,-39,-48,-77,-96,-66
-47,-10,29,28,-39,4,26,-51,-48,-83,-96,-66
-47,-10,29,28,-39,4,38,-45,-42,-71,-90,-66
-53,-5,47,22,-51,16,38,-33,-42,-71,-90,-60
-47,7,59,10,-51,34,26,-45,-48,-71,-90,-66
-41,1,47,10,-45,22,20,-45,-48,-77,-96,-66
-35,-5,23,16,-33,4,32,-39,-42,-71,-90,-54
-29,-5,29,10,-27,10,14,-51,-36,-77,-96,-72
-29,-5,23,10,-27,4,14,-51,-48,-77,-96,-72
-47,-5,35,22,-45,10,20,-45,-48,-71,-84,-66
-47,7,59,10,-51,34,-4,-63,-66,-83,-102,-72
-41,25,71,4,-57,46,-21,-81,-66,-89,-96,-72
-35,31,71,4,-51,52,-27,-87,-72,-89,-96,-72
-35,37,77,4,-57,58,-27,-87,-78,-89,-108,-72
-47,43,95,4,-69,70,-27,-93,-72,-83,-90,-66
-47,61,113,-1,-81,88,-27,-93,-66,-77,-90,-66
-47,55,107,4,-75,82,-27,-99,-60,-71,-84,-54
-29,61,95,-7,-63,76,-33,-93,-60,-59,-84,-48
-6,85,95,-31,-51,88,-51,-117,-72,-71,-84,-54
-17,91,113,-31,-63,100,-57,-117,-72,-65,-78,-42
-23,85,113,-25,-69,100,-57,-123,-84,-65,-84,-48
-23,85,113,-25,-69,100,-63,-123,-84,-71,-78,-42
-17,91,113,-31,-63,100,-63,-129,-84,-71,-84,-42
-11,115,131,-43,-69,124,-75,-147,-108,-89,-102,-54
-23,109,137,-37,-81,124,-69,-135,-114,-95,-102,-60
-23,103,131,-31,-75,118,-63,-123,-96,-95,-102,-60
-53,85,143,-7,-99,112,-51,-123,-90,-95,-102,-54
-59,73,137,-1,-99,106,-57,-129,-102,-101,-108,-66
-47,79,131,-7,-87,106,-57,-135,-108,-107,-114,-66
-29,85,119,-19,-75,100,-63,-135,-114,-113,-120,-66
-6,73,77,-31,-39,76,-63,-141,-120,-119,-126,-72
-6,43,53,-13,-27,46,-57,-123,-114,-119,-120,-84
-23,13,41,4,-33,28,-39,-111,-102,-113,-108,-66
-6,13,23,4,-15,16,-39,-111,-108,-113,-126,-66
0,-5,-1,4,2,-2,-57,-117,-120,-125,-138,-84
-11,-16,-1,10,-4,-7,-39,-105,-108,-113,-126,-78
-35,-28,-1,28,-21,-7,-21,-93,-90,-107,-114,-72
-47,-34,5,40,-27,-7,-15,-87,-90,-107,-126,-78
-41,-34,-1,34,-21,-13,-4,-87,-84,-107,-126,-84
-41,-28,5,34,-27,-7,-4,-75,-84,-107,-120,-78
-65,-34,23,46,-45,-2,2,-75,-84,-113,-126,-90
-83,-52,23,64,-57,-7,-4,-75,-96,-125,-138,-102
-77,-70,-1,70,-39,-31,2,-81,-102,-131,-144,-102
-83,-82,-1,82,-39,-37,-4,-75,-114,-131,-150,-108
-95,-88,-1,88,-51,-37,2,-69,-102,-119,-138,-102
-77,-94,-12,82,-27,-55,2,-69,-102,-131,-138,-102
-83,-100,-12,88,-33,-55,8,-75,-102,-131,-144,-102
-101,-100,-1,100,-51,-49,-4,-81,-108,-143,-156,-108
-83,-100,-12,88,-33,-55,-4,-81,-108,-143,-150,-114
-65,-82,-12,70,-21,-49,8,-75,-96,-131,-138,-102
-65,-88,-18,76,-21,-55,8,-69,-102,-131,-144,-108
-71,-94,-18,82,-21,-55,2,-75,-108,-137,-150,-102
-71,-82,-6,76,-27,-43,2,-81,-114,-137,-150,-102
-65,-82,-12,70,-21,-49,20,-69,-108,-131,-144,-102
-83,-106,-18,94,-27,-61,14,-63,-108,-131,-144,-108
-83,-106,-18,94,-27,-61,2,-75,-108,-131,-150,-114
-83,-94,-6,88,-33,-49,8,-69,-102,-131,-144,-108
-83,-112,-24,94,-27,-67,14,-63,-96,-125,-138,-108
-71,-112,-36,88,-15,-73,8,-63,-96,-125,-144,-108
-59,-88,-24,70,-15,-55,2,-75,-102,-137,-156,-108
-71,-94,-18,82,-21,-55,8,-63,-108,-125,-144,-102
-89,-106,-12,94,-33,-61,14,-63,-102,-125,-144,-102
-89,-106,-12,94,-33,-61,14,-69,-102,-125,-144,-102
-71,-94,-18,82,-21,-55,2,-75,-114,-137,-156,-108
-59,-82,-18,70,-15,-49,2,-75,-126,-137,-162,-120
-71,-82,-6,76,-27,-43,8,-69,-108,-137,-156,-114
-77,-88,-6,82,-33,-49,20,-57,-96,-125,-138,-102
-71,-88,-12,76,-27,-49,20,-63,-96,-125,-138,-114
-77,-88,-6,82,-33,-49,14,-69,-96,-125,-150,-108
-77,-88,-6,82,-33,-49,8,-69,-96,-125,-144,-114
-77,-88,-6,82,-33,-49,8,-57,-96,-113,-132,-108
-65,-88,-18,76,-21,-55,14,-63,-96,-119,-138,-102
-77,-100,-18,88,-27,-61,8,-63,-96,-119,-150,-108
-83,-106,-18,94,-27,-61,8,-75,-102,-131,-150,-108
-77,-94,-12,82,-27,-55,14,-69,-102,-125,-150,-114
-95,-94,-1,94,-45,-43,14,-69,-90,-125,-150,-114
-71,-88,-12,76,-27,-49,14,-69,-90,-125,-144,-108
-65,-82,-12,70,-21,-49,2,-75,-90,-125,-150,-120
-65,-76,-6,70,-27,-43,-4,-75,-90,-125,-156,-120
-71,-88,-12,76,-27,-49,2,-75,-90,-131,-150,-114
-89,-106,-12,94,-33,-61,14,-57,-78,-107,-132,-96
-83,-106,-18,94,-27,-61,14,-57,-72,-113,-132,-102
-59,-94,-30,76,-9,-61,20,-69,-84,-119,-144,-108
-47,-100,-48,70,-4,-73,14,-57,-78,-119,-144,-108
-65,-106,-36,82,-9,-73,44,-27,-54,-113,-150,-126
-77,-112,-30,94,-21,-73,92,20,-7,-107,-156,-138
-71,-118,-42,94,-9,-79,146,104,53,-65,-138,-132
-53,-106,-48,76,-4,-79,200,182,131,-23,-126,-132
-71,-82,-6,76,-27,-43,254,242,203,0,-114,-126
-71,-58,5,64,-39,-19,296,308,305,96,-30,-78
-11,-46,-30,28,2,-37,320,374,419,228,77,5
36,-16,-60,-1,44,-37,344,458,545,348,197,95
102,25,-72,-61,86,-13,344,494,647,486,329,203
186,109,-72,-145,128,16,296,488,743,672,515,347
294,187,-108,-235,206,34,230,464,869,912,749,539
420,271,-144,-343,278,64,128,416,971,1164,1019,761
558,385,-174,-475,368,106,-39,278,1001,1368,1277,1001
702,487,-210,-595,458,142,-261,68,947,1530,1493,1211
822,601,-222,-715,518,190,-465,-141,863,1674,1697,1415
900,709,-192,-799,542,256,-603,-309,791,1764,1841,1553
900,799,-96,-847,494,352,-729,-495,623,1758,1883,1613
834,871,29,-853,398,454,-855,-735,383,1680,1847,1601
750,871,113,-811,314,490,-951,-909,215,1614,1775,1529
684,775,89,-727,290,436,-993,-999,53,1410,1559,1373
576,607,23,-589,272,316,-1017,-1101,-186,1002,1157,1085
438,421,-12,-427,230,202,-963,-1137,-426,594,725,749
258,295,29,-277,110,166,-903,-1173,-702,162,299,443
84,187,95,-133,-4,142,-861,-1215,-1014,-323,-114,137
-6,55,53,-25,-21,58,-771,-1185,-1224,-725,-480,-132
-83,-34,41,58,-63,-2,-693,-1125,-1344,-1037,-786,-384
-197,-100,89,148,-147,-2,-621,-1065,-1416,-1235,-978,-570
-251,-136,113,196,-189,-7,-555,-981,-1320,-1187,-978,-630
-281,-166,113,226,-201,-19,-531,-927,-1224,-1091,-924,-606
-275,-184,89,232,-189,-43,-501,-855,-1140,-1019,-882,-594
-275,-196,77,238,-183,-55,-465,-789,-1044,-953,-828,-564
-257,-202,53,232,-159,-67,-423,-723,-960,-869,-768,-528
-239,-202,29,220,-135,-79,-363,-645,-882,-797,-726,-504
-251,-214,35,232,-147,-85,-291,-555,-780,-719,-666,-474
-257,-202,53,232,-159,-67,-243,-477,-696,-647,-594,-438
-239,-172,59,202,-153,-49,-201,-411,-600,-575,-540,-402
-203,-160,35,178,-123,-55,-147,-333,-498,-485,-474,-348
-179,-142,29,160,-105,-49,-87,-267,-402,-395,-402,-300
-173,-100,65,136,-123,-13,-51,-219,-318,-323,-342,-252
-155,-70,77,112,-117,-2,-27,-177,-270,-281,-300,-228
-125,-58,59,88,-93,-2,-4,-153,-228,-239,-258,-186
-113,-46,59,76,-87,-2,2,-129,-198,-203,-228,-162
-119,-46,65,82,-93,4,2,-111,-174,-185,-210,-150
-101,-22,71,58,-87,16,8,-105,-162,-185,-204,-144
-101,-34,59,64,-81,4,26,-93,-150,-161,-204,-138
-95,-46,41,70,-69,-2,38,-69,-114,-137,-192,-126
-89,-40,41,64,-69,-2,38,-63,-102,-137,-186,-126
-83,-40,35,58,-63,-2,44,-51,-78,-119,-174,-120
-77,-40,29,58,-57,-2,56,-45,-66,-101,-156,-114
-71,-52,11,58,-45,-13,62,-33,-54,-83,-150,-108
-71,-52,11,58,-45,-13,68,-33,-48,-77,-138,-96
-71,-46,17,58,-45,-7,68,-39,-48,-71,-132,-96
-71,-58,5,64,-39,-19,74,-27,-42,-65,-120,-96
-71,-52,11,58,-45,-13,86,-10,-36,-59,-120,-90
-71,-28,35,46,-57,-2,80,-21,-48,-71,-132,-96
-59,-46,5,52,-33,-13,86,-10,-42,-65,-132,-96
-59,-64,-1,58,-27,-31,86,-4,-24,-65,-126,-102
-59,-52,-1,52,-33,-19,86,-4,-12,-53,-126,-96
-65,-52,5,58,-39,-19,74,-10,-18,-59,-126,-96
-65,-64,-1,64,-33,-31,80,-10,-7,-47,-108,-84
-53,-58,-1,52,-21,-31,80,-10,-7,-47,-108,-78
-53,-46,-1,46,-27,-19,80,-10,-12,-47,-108,-78
-59,-40,11,46,-39,-7,80,-15,-24,-53,-108,-78
-53,-40,5,46,-33,-13,86,-10,-24,-47,-114,-84
-47,-40,-1,40,-27,-13,86,-10,-18,-53,-108,-84
-59,-40,11,46,-39,-7,86,-10,-18,-53,-108,-90
-47,-40,-1,40,-27,-13,86,2,-7,-47,-108,-84
-41,-40,-1,40,-21,-19,86,2,-1,-41,-102,-84
-59,-34,17,46,-39,-2,92,-4,11,-29,-90,-72
-59,-34,17,46,-39,-2,86,-10,5,-29,-96,-72
-53,-34,11,40,-33,-7,80,-10,-1,-29,-90,-72
-47,-22,17,34,-33,-2,80,-10,-1,-29,-84,-60
-59,-46,5,52,-33,-13,86,2,-1,-17,-78,-48
-59,-64,-1,58,-27,-31,98,14,-1,-17,-78,-48
-41,-64,-18,52,-9,-43,104,20,11,-23,-72,-42
-17,-46,-24,28,-4,-37,86,20,5,-23,-90,-60
-17,-34,-12,22,-4,-25,92,26,23,-17,-84,-54
-23,-22,-1,22,-9,-7,86,14,23,-17,-84,-60
-35,-28,-1,28,-21,-7,86,20,29,-6,-72,-48
-53,-34,11,40,-33,-7,98,32,47,-6,-60,-36
-35,-28,-1,28,-21,-7,92,26,47,-6,-54,-42
-29,-22,-1,22,-15,-7,92,26,41,0,-54,-30
-35,-34,-1,34,-15,-13,98,26,29,0,-54,-24
-29,-28,-1,28,-15,-13,92,26,35,-6,-60,-36
-35,-10,17,22,-27,-2,80,20,29,-6,-66,-48
-29,-22,-1,22,-15,-7,80,26,35,-6,-72,-42
-23,-28,-1,22,-9,-13,92,38,47,-6,-60,-36
-29,-22,-1,22,-15,-7,86,50,65,6,-54,-30
-35,-16,11,22,-27,-2,80,32,65,6,-48,-30
-23,-10,5,16,-15,-2,80,32,65,12,-48,-30
-6,-28,-18,16,-4,-25,86,38,65,24,-36,-24
-17,-10,-1,10,-9,-2,74,20,59,24,-36,-24
-23,1,29,4,-27,16,68,26,53,18,-36,-18
-6,-5,-1,4,-4,-2,74,32,65,24,-30,-18
-6,-10,-1,4,-4,-7,80,32,71,24,-24,-18
-11,-10,-1,10,-4,-2,80,38,77,30,-30,-12
-11,-10,-1,10,-4,-2,80,44,83,36,-24,-12
-6,-10,-1,4,-4,-7,74,38,101,54,-18,-12
-6,-5,-1,4,-4,-2,74,44,101,54,-12,-7
6,-16,-30,4,14,-19,68,38,107,60,-7,-12
-6,-5,-6,4,-4,-2,74,44,113,78,-7,-7
0,1,-1,-1,-4,-2,74,44,113,84,-1,-7
0,13,5,-7,-4,10,74,50,119,84,5,5
6,19,5,-13,-4,16,86,68,131,96,17,11
-6,1,-1,4,-4,4,80,74,137,102,17,17
-6,1,5,4,-4,4,80,74,149,108,17,29
24,13,-6,-19,14,-2,74,80,155,114,23,29
24,1,-18,-13,20,-2,62,74,167,126,29,29
12,7,-1,-7,8,-2,62,68,167,132,41,35
18,13,-1,-13,8,4,62,74,179,144,47,41
30,37,-1,-31,8,22,50,62,173,156,59,47
24,55,23,-37,-4,40,68,74,197,174,71,65
36,61,17,-49,2,40,68,86,197,180,77,83
60,55,-1,-55,32,22,68,92,203,186,83,77
48,31,-12,-37,32,4,74,104,215,192,101,89
36,31,-1,-31,20,10,62,98,227,198,89,89
36,25,-6,-31,20,4,62,110,233,210,107,95
48,43,-1,-43,26,16,56,110,245,222,113,95
78,73,-1,-73,38,34,62,110,263,234,125,107
72,79,-1,-73,32,40,50,104,263,240,131,113
66,67,-1,-67,32,34,44,104,269,252,143,125
78,73,-1,-73,38,34,62,110,281,276,167,143
84,85,-1,-85,38,40,62,122,287,282,173,149
102,97,-1,-97,50,46,50,116,287,282,173,155
132,97,-30,-115,80,28,38,116,287,282,179,161
120,97,-18,-109,68,34,38,128,311,294,185,167
108,109,-1,-109,50,52,50,140,323,318,197,173
114,115,-1,-115,56,58,50,146,335,336,215,191
120,109,-6,-115,62,46,38,140,335,336,215,191
126,109,-12,-115,68,46,38,134,353,348,227,197
132,109,-18,-121,74,40,44,140,371,360,245,227
144,127,-12,-133,80,52,32,152,365,366,257,227
156,121,-30,-139,92,40,38,158,377,384,269,233
144,109,-30,-127,86,34,50,164,383,384,269,239
144,133,-6,-139,74,58,38,164,377,378,269,239
156,133,-18,-145,86,52,32,170,389,378,263,239
168,133,-30,-151,98,46,38,164,389,384,269,245
180,145,-30,-163,104,52,38,164,395,390,275,245
186,145,-36,-163,110,52,32,158,395,384,275,245
186,139,-42,-163,116,46,26,158,401,396,281,251
174,157,-12,-163,92,70,32,158,395,402,287,251
186,151,-30,-169,110,58,20,146,383,396,269,251
192,133,-54,-163,122,34,32,158,389,390,275,257
162,115,-42,-139,104,34,38,158,389,396,281,257
180,139,-36,-157,110,46,20,140,377,372,269,245
180,157,-18,-169,98,64,32,146,377,366,257,233
156,151,-1,-151,80,70,38,158,377,378,263,233
162,151,-6,-157,86,70,32,146,377,372,257,233
180,145,-30,-163,104,52,20,140,371,360,251,233
192,139,-48,-163,122,40,20,134,371,360,245,227
180,121,-54,-151,116,28,20,122,353,348,245,221
162,121,-36,-139,98,40,14,116,353,342,233,227
138,127,-6,-133,74,58,26,134,341,336,233,227
156,127,-24,-139,92,46,32,122,329,324,233,221
168,109,-54,-139,110,22,32,128,329,318,233,233
174,109,-60,-139,116,22,26,128,323,306,215,215
168,121,-42,-145,104,34,26,122,305,288,203,197
150,109,-36,-127,92,34,32,128,311,294,197,191
144,103,-36,-121,92,28,32,122,317,288,209,203
138,121,-12,-127,74,52,32,122,317,288,203,203
144,115,-24,-127,86,40,32,116,299,282,203,197
150,103,-42,-127,98,28,20,110,287,264,185,197
132,85,-42,-109,86,16,38,116,287,264,185,197
114,103,-6,-109,62,46,38,116,275,252,173,179
120,121,-1,-121,56,58,32,104,251,234,155,167
120,109,-6,-115,62,46,26,104,251,234,137,161
120,91,-24,-103,74,28,44,104,251,228,143,155
102,91,-6,-97,56,40,32,98,251,216,125,143
84,79,-1,-79,44,34,38,98,257,216,125,143
96,85,-6,-91,50,34,44,92,251,204,119,137
90,85,-1,-85,44,40,44,92,245,204,119,143
108,103,-1,-103,56,46,38,86,239,198,113,137
96,115,11,-103,38,64,44,86,233,192,101,131
78,85,-1,-79,32,46,44,86,221,174,95,125
66,61,-1,-61,32,28,50,92,221,168,95,131
54,49,-1,-49,26,22,56,98,227,168,83,125
72,55,-12,-61,44,16,62,92,221,162,83,113
96,61,-30,-79,62,10,56,86,215,150,71,95
60,61,-1,-61,26,28,62,86,209,144,71,89
30,61,23,-43,-4,46,62,80,197,150,59,89
18,61,35,-37,-4,52,62,74,191,150,59,83
30,55,17,-43,2,40,56,68,173,120,41,71
48,49,-1,-49,20,22,68,68,161,114,35,59
30,19,-6,-25,20,4,80,68,161,114,35,59
6,1,-1,-1,2,-2,86,74,155,108,29,59
18,19,-1,-19,8,10,80,62,149,96,11,35
12,31,11,-19,-4,22,74,50,137,90,11,41
0,19,11,-7,-4,16,74,44,131,72,-7,23
-6,-5,-1,4,-4,-2,68,32,113,54,-7,17
0,7,-1,-1,-4,4,68,26,101,60,-7,11
6,1,-1,-1,2,-2,74,20,89,54,-12,5
-11,1,17,4,-15,10,62,8,71,30,-24,-7
-11,1,17,4,-15,10,62,2,53,24,-30,-7
-11,-5,-1,4,-9,-2,68,8,59,24,-24,-7
-23,-5,11,10,-21,-2,62,-4,29,-6,-48,-12
-29,-10,11,16,-21,-2,68,2,41,-6,-60,-12
-23,-34,-6,28,-4,-19,74,8,47,12,-48,-7
-35,-40,-1,34,-15,-19,74,2,41,0,-54,-7
-35,-22,5,28,-21,-2,56,-10,17,-6,-66,-18
-17,-10,-1,10,-9,-2,50,-15,5,-17,-78,-36
-23,-10,5,16,-15,-2,56,-15,-1,-17,-78,-36
-35,-34,-1,34,-15,-13,56,-21,-1,-23,-84,-36
-41,-28,5,34,-27,-7,50,-33,-7,-41,-96,-48
-47,-16,23,28,-39,-2,50,-27,-12,-47,-102,-48
-53,-5,41,28,-51,10,50,-27,-12,-53,-96,-54
-53,-5,47,22,-51,16,50,-27,-18,-53,-96,-60
-59,-10,41,34,-51,10,50,-27,-12,-47,-96,-54
-53,-40,5,46,-33,-13,56,-21,-7,-41,-96,-48
-59,-34,17,46,-39,-2,50,-33,-12,-47,-102,-54
-77,-28,41,52,-63,-2,56,-33,-12,-47,-102,-48
-59,-28,23,40,-45,-2,56,-45,-24,-53,-108,-54
-53,-22,23,34,-39,-2,44,-51,-30,-65,-114,-60
-59,-34,17,46,-39,-2,44,-45,-24,-59,-108,-54
-53,-34,11,40,-33,-7,50,-39,-24,-59,-102,-54
-47,-22,17,34,-33,-2,32,-45,-30,-65,-108,-60
-59,-22,29,40,-45,-2,26,-45,-30,-77,-120,-66
-71,-28,35,46,-57,-2,32,-45,-24,-65,-114,-66
-65,-40,17,52,-45,-7,32,-33,-12,-53,-102,-54
-47,-28,11,34,-33,-2,32,-33,-18,-59,-108,-60
-47,-16,23,28,-39,-2,38,-27,-18,-47,-102,-54
-59,-22,29,40,-45,-2,32,-33,-18,-41,-96,-54
-47,-28,11,34,-33,-2,32,-39,-24,-59,-84,-54
-53,-22,23,34,-39,-2,32,-39,-24,-53,-42,-54
-53,-28,17,40,-39,-2,32,-33,-24,-47,-7,-42
-47,-10,29,28,-39,4,32,-27,-12,-47,-1,-36
-59,-16,35,34,-51,4,32,-21,-12,-47,5,-42
-53,-34,11,40,-33,-7,20,-33,-12,-47,-1,-54
-41,-16,17,28,-33,-2,26,-33,-7,-41,11,-48
-47,-10,29,28,-39,4,32,-21,-7,-29,23,-36
-59,-22,29,40,-45,-2,32,-21,-1,-23,29,-36
-65,-5,53,34,-63,16,26,-27,-7,-23,29,-30
-53,-5,53,22,-51,22,14,-27,-7,-35,23,-36
-47,-5,41,22,-45,16,20,-27,-7,-35,29,-30
-41,-10,23,22,-33,-2,26,-21,-7,-29,35,-24
-29,-5,23,10,-27,4,32,-10,-1,-23,35,-12
-35,-5,23,16,-33,4,32,-10,-1,-17,35,-18
-47,-22,17,34,-33,-2,38,-10,-1,-17,35,-18
-41,-28,5,34,-27,-7,32,-10,11,-6,41,-7
-53,-16,29,34,-45,-2,32,-15,17,-6,47,-7
-29,-10,11,16,-21,-2,20,-10,11,-6,41,-7
-23,-10,5,16,-15,-2,20,-15,11,-6,53,-7
-41,-5,29,22,-39,4,14,-15,5,-11,41,-12
-17,1,23,4,-21,10,14,-10,-1,-17,41,-12
-11,-5,11,4,-9,4,20,-10,17,-6,47,-7
-17,13,35,4,-27,22,14,-10,17,-11,47,-7
-23,-5,23,4,-21,10,14,-10,17,-17,47,-12
-23,-5,11,10,-21,-2,8,-10,17,-11,41,-12
-11,-5,5,4,-9,-2,8,-10,23,-6,47,-7
-6,-5,5,4,-4,-2,8,-10,17,-6,41,-7
-17,-5,5,10,-15,-2,14,-10,23,-6,41,-7
-6,-5,-6,4,-4,-2,2,-10,11,-11,41,-7
0,-5,-6,4,2,-2,2,-10,23,-11,47,-7
-29,-5,29,10,-27,10,14,-10,23,-6,53,-1
-35,-5,29,16,-33,10,14,-4,23,-6,53,-1
-17,-5,17,4,-15,4,2,-4,11,-11,35,-7
-11,-5,11,4,-9,4,8,2,17,-6,47,-7
-29,-10,11,16,-21,-2,8,2,23,-6,47,-7
-29,-5,17,16,-27,-2,8,2,23,-6,41,-7
-29,-5,23,10,-27,4,8,-4,17,-6,41,-7
-23,-5,11,10,-21,-2,14,2,17,-6,41,-7
-41,-5,29,22,-39,4,14,-4,17,-6,41,-7
-29,-5,17,16,-27,-2,14,8,23,-6,47,5
-35,-5,35,10,-33,16,14,2,17,-6,47,5
-47,-16,23,28,-39,-2,2,-4,5,-11,35,-7
-29,-22,-1,22,-15,-7,-4,-4,-1,-23,23,-7
-11,-5,-1,4,-9,-2,8,14,17,-11,41,-1
-17,-5,11,4,-15,-2,26,8,23,-6,53,-1
-35,-28,-1,28,-21,-7,14,8,23,-11,35,-7
-41,-22,11,28,-27,-2,2,8,17,-17,35,-7
-29,-5,17,16,-27,-2,2,8,17,-11,35,-7
-29,-16,5,22,-21,-2,2,2,11,-11,35,-7
-23,-5,11,10,-21,-2,2,-4,-1,-23,17,-7
-17,-5,11,4,-15,-2,2,2,-7,-29,17,-12
-23,-16,-1,16,-15,-2,2,2,-7,-23,23,-7
-29,-34,-1,28,-9,-19,2,2,-7,-29,11,-12
-17,-28,-6,22,-4,-19,-4,-4,-7,-47,-7,-18
-23,-5,11,10,-21,-2,-9,-10,-7,-47,-1,-30
-47,-5,35,22,-45,10,-4,2,-7,-29,11,-18
-59,-16,35,34,-51,4,-4,2,-7,-35,5,-18
-53,-46,-1,46,-27,-19,2,-4,-7,-47,-1,-12
-41,-22,11,28,-27,-2,-4,-10,-7,-47,-7,-18
-35,-5,23,16,-33,4,-4,-10,-12,-47,-7,-18
-29,-5,17,16,-27,-2,-4,-10,-24,-53,-7,-24
-35,-22,5,28,-21,-2,-4,-4,-18,-47,-7,-24
-47,-28,11,34,-33,-2,2,-4,-18,-47,-7,-24
-29,-34,-1,28,-9,-19,-4,-10,-24,-59,-18,-30
-47,-34,5,40,-27,-7,-4,-4,-24,-59,-12,-36
-47,-28,11,34,-33,-2,-4,-4,-18,-59,-7,-36
-41,-34,-1,34,-21,-13,-4,-10,-24,-65,-12,-36
-47,-34,5,40,-27,-7,-4,-10,-36,-71,-18,-36
-41,-28,5,34,-27,-7,-4,-10,-30,-65,-12,-30
-47,-34,5,40,-27,-7,-4,-10,-36,-71,-18,-30
-41,-28,5,34,-27,-7,-4,-10,-36,-77,-18,-36
-41,-34,-1,34,-21,-13,-4,-10,-42,-77,-18,-42
-53,-40,5,46,-33,-13,-4,-4,-36,-77,-18,-36
-47,-46,-1,46,-21,-19,-4,2,-36,-77,-18,-36
-47,-46,-1,46,-21,-19,-4,2,-30,-77,-24,-36
-53,-46,-1,46,-27,-19,-4,-4,-36,-83,-24,-48
-59,-46,5,52,-33,-13,-4,-4,-42,-89,-30,-48
-47,-28,11,34,-33,-2,-4,2,-36,-83,-24,-42
-29,-16,5,22,-21,-2,-4,-4,-42,-89,-24,-48
-47,-46,-1,46,-21,-19,-4,-4,-48,-89,-30,-48
-35,-46,-6,40,-9,-25,-4,-4,-54,-95,-36,-54
-35,-40,-1,34,-15,-19,-4,-4,-54,-89,-30,-48
-53,-40,5,46,-33,-13,-4,2,-54,-95,-30,-48
-65,-52,5,58,-39,-19,-4,2,-42,-95,-24,-42
-71,-64,-1,64,-39,-25,-4,2,-42,-95,-30,-54
-59,-58,-1,58,-27,-25,-4,2,-42,-95,-36,-60
-53,-46,-1,46,-27,-19,-4,2,-48,-95,-42,-54
-65,-46,11,52,-39,-13,-4,2,-48,-95,-36,-48
-59,-46,5,52,-33,-13,-4,2,-42,-89,-30,-42
-53,-46,-1,46,-27,-19,-4,-4,-54,-95,-36,-48
-59,-52,-1,52,-33,-19,-4,-4,-72,-107,-48,-60
-71,-58,5,64,-39,-19,-4,2,-66,-107,-42,-54
-71,-46,17,58,-45,-7,-4,2,-60,-107,-42,-54
-59,-46,5,52,-33,-13,-4,8,-60,-107,-48,-60
-47,-46,-1,46,-21,-19,-4,2,-66,-113,-48,-60
-47,-34,5,40,-27,-7,-4,2,-60,-107,-48,-60
-53,-40,5,46,-33,-13,-4,2,-66,-113,-54,-66
-53,-34,11,40,-33,-7,-4,2,-66,-113,-48,-60
-47,-34,5,40,-27,-7,-4,-4,-66,-107,-48,-60
-65,-52,5,58,-39,-19,-4,8,-66,-107,-42,-54
-59,-64,-1,58,-27,-31,-4,14,-72,-107,-42,-54
-53,-58,-1,52,-21,-31,-4,14,-66,-107,-36,-54
-47,-46,-1,46,-21,-19,-4,14,-66,-107,-48,-60
-53,-40,5,46,-33,-13,-4,14,-72,-113,-54,-66
-53,-40,5,46,-33,-13,-4,8,-78,-119,-54,-72
-47,-46,-1,46,-21,-19,-4,8,-72,-119,-48,-66
-71,-64,-1,64,-39,-25,-4,20,-66,-113,-48,-66
-77,-70,-1,70,-39,-31,2,20,-60,-107,-42,-60
-47,-52,-1,46,-21,-25,-4,8,-72,-119,-54,-66
-65,-52,5,58,-39,-19,-4,20,-72,-113,-54,-66
-77,-88,-6,82,-33,-49,-4,20,-72,-113,-48,-66
-65,-82,-12,70,-21,-49,-4,26,-72,-113,-48,-60
-59,-52,-1,52,-33,-19,-4,32,-66,-113,-36,-54
-65,-58,-1,58,-33,-25,2,38,-66,-107,-48,-60
-83,-82,-1,82,-39,-37,-4,32,-78,-119,-54,-60
-71,-76,-1,70,-33,-37,-4,26,-72,-125,-54,-66
-59,-58,-1,58,-27,-25,-4,26,-66,-113,-54,-66
-59,-58,-1,58,-27,-25,-4,26,-72,-107,-48,-66
-59,-64,-1,58,-27,-31,-4,26,-78,-113,-54,-60
-53,-76,-18,64,-15,-49,-4,20,-78,-119,-48,-60
-65,-70,-1,64,-27,-37,-4,14,-84,-125,-54,-66
-77,-40,29,58,-57,-2,-4,14,-84,-125,-54,-66
-65,-52,5,58,-39,-19,-4,20,-78,-113,-54,-66
-59,-58,-1,58,-27,-25,-4,26,-72,-113,-54,-72
-77,-58,11,64,-45,-19,-4,20,-78,-131,-66,-84
-83,-76,-1,76,-45,-31,-4,26,-72,-119,-54,-72
-65,-70,-1,64,-27,-37,-4,20,-72,-125,-66,-78
-53,-64,-6,58,-21,-37,-4,26,-72,-119,-66,-78
-59,-70,-6,64,-21,-37,-4,32,-72,-119,-66,-66
-65,-70,-1,64,-27,-37,-9,26,-78,-131,-72,-66
-59,-64,-1,58,-27,-31,-4,32,-84,-137,-72,-72
-47,-58,-6,52,-15,-31,-4,32,-84,-131,-66,-72
-53,-64,-6,58,-21,-37,-4,38,-72,-119,-66,-66
-65,-70,-1,64,-27,-37,-4,32,-78,-125,-66,-72
-77,-70,-1,70,-39,-31,-4,32,-78,-131,-66,-78
-83,-70,5,76,-45,-25,-4,32,-84,-137,-66,-78
-65,-52,5,58,-39,-19,-9,26,-84,-137,-78,-84
-65,-52,5,58,-39,-19,-4,32,-78,-125,-72,-78
-59,-52,-1,52,-33,-19,-9,32,-78,-131,-72,-78
-47,-58,-6,52,-15,-31,-9,38,-78,-125,-66,-60
-41,-52,-6,46,-15,-31,-4,50,-78,-113,-54,-48
-71,-64,-1,64,-39,-25,-4,44,-84,-119,-60,-66
-95,-82,5,88,-51,-31,-4,44,-84,-119,-72,-72
-71,-64,-1,64,-39,-25,-4,38,-84,-125,-72,-84
-53,-52,-1,52,-27,-25,-4,44,-84,-131,-78,-78
-53,-52,-1,52,-27,-25,-4,38,-78,-125,-72,-72
-59,-58,-1,58,-27,-25,-9,32,-90,-125,-78,-90
-77,-64,5,70,-45,-25,-4,44,-78,-113,-72,-78
-83,-52,23,64,-57,-7,-4,38,-84,-125,-78,-78
-65,-52,5,58,-39,-19,-4,38,-90,-131,-78,-78
-59,-64,-1,58,-27,-31,-4,44,-90,-125,-72,-72
-71,-82,-6,76,-27,-43,-4,44,-90,-125,-66,-66
-83,-76,-1,76,-45,-31,-4,44,-84,-125,-66,-72
-77,-76,-1,76,-39,-37,-4,32,-96,-137,-84,-84
-65,-70,-1,64,-27,-37,-9,26,-102,-137,-84,-84
-47,-64,-12,52,-15,-37,-9,44,-96,-137,-78,-78
-59,-76,-12,64,-21,-43,-4,50,-90,-131,-78,-78
-77,-70,-1,70,-39,-31,-4,50,-84,-125,-72,-78
-83,-64,11,70,-51,-19,-4,50,-90,-119,-60,-66
-77,-70,-1,70,-39,-31,-4,50,-90,-125,-60,-66
-65,-70,-1,64,-27,-37,-4,44,-102,-131,-72,-78
-65,-58,-1,58,-33,-25,-4,56,-96,-125,-60,-66
-71,-52,11,58,-45,-13,-4,56,-90,-119,-60,-66
-71,-52,11,58,-45,-13,-4,62,-84,-113,-60,-66
-77,-58,11,64,-45,-19,-4,44,-102,-137,-72,-90
-89,-70,11,76,-51,-25,-4,50,-90,-131,-66,-78
-71,-64,-1,64,-39,-25,-4,50,-84,-125,-72,-72
-59,-52,-1,52,-33,-19,2,50,-84,-125,-60,-66
-65,-58,-1,58,-33,-25,8,50,-84,-119,-60,-72
-71,-58,5,64,-39,-19,8,56,-78,-107,-54,-60
-77,-28,41,52,-63,-2,14,62,-78,-101,-48,-54
-77,-16,53,46,-69,10,14,56,-84,-113,-54,-66
-65,-16,41,40,-57,4,14,56,-90,-119,-60,-72
-77,-28,41,52,-63,-2,20,56,-78,-113,-54,-66
-83,-22,53,52,-69,10,20,62,-72,-107,-54,-60
-65,-5,53,34,-63,16,14,62,-66,-95,-48,-54
-59,-5,47,28,-57,16,8,62,-60,-101,-54,-66
-65,-10,47,34,-57,10,14,68,-66,-101,-48,-66
-53,-10,35,28,-45,4,8,62,-72,-101,-54,-60
-53,-16,29,34,-45,-2,2,62,-66,-95,-48,-54
-47,-16,23,28,-39,-2,2,56,-84,-107,-60,-72
-47,-16,23,28,-39,-2,2,68,-84,-107,-54,-72
-59,-5,47,28,-57,16,-9,50,-84,-107,-54,-66
-59,13,77,16,-69,46,-27,38,-96,-113,-60,-66
-59,13,77,16,-69,46,-9,44,-84,-113,-48,-60
-47,7,59,10,-51,34,-27,38,-90,-107,-42,-60
-29,43,77,-1,-51,58,-39,38,-84,-101,-42,-54
-35,61,101,-7,-69,82,-39,32,-78,-89,-24,-42
-41,55,101,-1,-69,76,-51,26,-84,-89,-24,-30
-41,55,101,-1,-69,76,-57,20,-96,-89,-18,-24
-35,67,107,-7,-69,88,-57,20,-90,-89,-24,-24
-6,73,77,-31,-39,76,-69,14,-90,-83,-18,-18
-6,79,83,-31,-39,82,-87,2,-108,-95,-30,-30
-6,79,89,-31,-45,82,-87,2,-120,-107,-36,-42
-35,67,107,-7,-69,88,-87,2,-114,-113,-42,-48
-47,73,125,-7,-87,100,-87,-10,-132,-119,-54,-54
-47,85,137,-13,-93,112,-87,-10,-138,-131,-60,-60
-23,79,107,-19,-63,94,-87,-10,-138,-131,-66,-66
-17,79,101,-25,-57,88,-93,-10,-138,-131,-60,-60
-23,79,107,-19,-63,94,-81,-10,-138,-131,-66,-54
-23,67,95,-13,-57,82,-81,-10,-150,-143,-66,-60
-23,67,95,-13,-57,82,-75,-10,-156,-149,-72,-60
-11,55,71,-13,-39,64,-69,-4,-150,-143,-78,-66
-23,25,53,4,-39,40,-63,8,-150,-143,-78,-66
-11,7,23,4,-15,16,-69,2,-150,-149,-84,-72
-6,-5,-1,4,-4,-2,-69,32,-138,-137,-66,-60
-17,-28,-6,22,-4,-19,-51,38,-120,-125,-54,-54
-35,-34,-1,34,-15,-13,-45,32,-126,-143,-78,-60
-41,-34,-1,34,-21,-13,-45,32,-126,-137,-78,-60
-35,-28,-1,28,-21,-7,-21,56,-126,-131,-72,-66
-65,-46,11,52,-39,-13,-4,68,-120,-131,-72,-60
-83,-58,17,70,-51,-13,-4,68,-120,-137,-78,-66
-83,-64,11,70,-51,-19,-4,62,-126,-149,-96,-84
-77,-64,5,70,-45,-25,-4,68,-126,-149,-96,-84
-77,-70,-1,70,-39,-31,-4,62,-132,-161,-108,-96
-89,-82,-1,82,-45,-37,-4,68,-138,-161,-102,-96
-89,-100,-6,94,-39,-55,-4,62,-132,-161,-102,-96
-65,-94,-24,76,-15,-61,-9,56,-132,-161,-108,-96
-89,-100,-6,94,-39,-55,-4,62,-126,-149,-102,-96
-89,-106,-12,94,-33,-61,2,68,-120,-137,-96,-90
-89,-106,-12,94,-33,-61,-4,74,-126,-149,-96,-90
-77,-100,-18,88,-27,-61,2,74,-126,-149,-102,-96
-65,-100,-30,82,-15,-67,-4,62,-138,-161,-114,-102
-83,-100,-12,88,-33,-55,-4,56,-144,-167,-114,-114
-77,-106,-24,88,-21,-67,-4,68,-144,-167,-120,-114
-53,-100,-42,76,-4,-73,-4,62,-144,-173,-120,-114
-59,-94,-30,76,-9,-61,-9,50,-150,-173,-126,-114
-89,-94,-1,88,-39,-49,-4,68,-132,-149,-102,-102
-77,-100,-18,88,-27,-61,-4,62,-126,-155,-102,-108
-77,-106,-24,88,-21,-67,-4,56,-138,-161,-108,-120
-89,-112,-18,100,-33,-67,-4,74,-138,-161,-108,-108
-89,-124,-30,106,-27,-79,2,80,-132,-155,-108,-102
-95,-112,-12,100,-39,-61,2,68,-138,-167,-114,-108
-83,-112,-24,94,-27,-67,-4,80,-132,-161,-102,-108
-83,-106,-18,94,-27,-61,-4,74,-126,-161,-108,-102
-95,-112,-12,100,-39,-61,2,80,-126,-155,-108,-102
-89,-136,-42,112,-21,-91,2,80,-120,-155,-108,-102
-77,-130,-48,100,-9,-91,-4,92,-114,-149,-96,-102
-83,-100,-12,88,-33,-55,2,86,-114,-149,-90,-96
-83,-94,-6,88,-33,-49,-4,74,-120,-149,-96,-96
-59,-82,-18,70,-15,-49,-4,62,-126,-155,-108,-102
-77,-94,-12,82,-27,-55,-9,68,-138,-161,-108,-108
-77,-106,-24,88,-21,-67,-4,68,-126,-149,-102,-102
-65,-100,-30,82,-15,-67,-4,86,-114,-131,-90,-90
-71,-94,-18,82,-21,-55,2,80,-108,-131,-84,-90
-59,-94,-30,76,-9,-61,-4,80,-114,-143,-96,-96
-71,-88,-12,76,-27,-49,-4,74,-114,-143,-90,-96
-71,-88,-12,76,-27,-49,-4,68,-108,-143,-96,-96
-59,-88,-24,70,-15,-55,-4,62,-114,-149,-102,-108
-59,-88,-24,70,-15,-55,-4,62,-114,-143,-90,-102
-59,-82,-18,70,-15,-49,-4,68,-108,-143,-90,-96
-71,-94,-18,82,-21,-55,-4,74,-114,-137,-84,-90
-65,-94,-24,76,-15,-61,-4,68,-114,-137,-90,-96
-59,-88,-24,70,-15,-55,-4,62,-114,-143,-96,-102
-95,-82,5,88,-51,-31,8,98,-90,-131,-90,-96
-89,-88,-1,88,-45,-43,38,134,-54,-119,-90,-96
-65,-118,-48,88,-4,-85,80,212,-7,-107,-90,-114
-65,-124,-54,94,-4,-91,140,278,59,-65,-78,-114
-71,-112,-36,88,-15,-73,200,368,137,-23,-60,-108
-89,-94,-1,88,-39,-49,254,440,221,12,-30,-102
-53,-64,-6,58,-21,-37,272,482,293,78,17,-72
18,-28,-54,4,32,-37,284,548,389,198,119,-1
72,1,-66,-37,68,-25,332,656,545,348,251,113
114,31,-78,-73,98,-13,332,698,653,480,395,221
192,85,-102,-139,146,-2,284,668,737,642,563,371
318,175,-144,-241,236,10,212,638,857,882,803,563
462,277,-180,-367,320,46,86,566,941,1116,1061,791
618,373,-240,-493,434,64,-93,392,929,1296,1301,1019
750,469,-282,-607,518,88,-321,146,845,1446,1511,1235
876,589,-282,-727,578,154,-525,-75,761,1566,1709,1427
942,715,-228,-823,584,238,-651,-237,677,1650,1829,1553
930,811,-114,-871,518,346,-783,-453,479,1614,1847,1583
858,859,-1,-859,428,430,-921,-693,257,1560,1835,1583
774,841,59,-805,356,454,-981,-831,125,1506,1763,1517
690,733,41,-715,320,394,-1035,-939,-24,1272,1523,1343
570,547,-18,-559,296,262,-1041,-1023,-282,858,1109,1049
414,367,-42,-391,230,160,-975,-1029,-486,480,695,731
258,283,17,-271,116,154,-945,-1083,-768,42,275,407
138,193,47,-163,38,124,-897,-1131,-1068,-389,-114,113
-6,19,17,-7,-4,22,-807,-1083,-1254,-755,-456,-150
-137,-76,53,106,-99,-7,-729,-1023,-1386,-1073,-744,-390
-251,-112,137,184,-201,4,-663,-981,-1458,-1265,-936,-582
-281,-136,143,208,-219,-2,-621,-909,-1374,-1205,-936,-630
-269,-148,119,208,-201,-7,-579,-819,-1248,-1103,-870,-594
-299,-190,107,244,-207,-37,-555,-747,-1158,-1037,-828,-570
-287,-214,71,244,-183,-67,-513,-687,-1068,-959,-774,-546
-263,-208,53,238,-165,-73,-477,-621,-978,-875,-714,-510
-257,-226,29,244,-147,-91,-399,-519,-894,-791,-654,-480
-275,-238,35,250,-159,-97,-327,-441,-798,-725,-594,-444
-263,-226,35,244,-153,-91,-279,-369,-720,-665,-540,-414
-239,-202,29,220,-135,-79,-237,-291,-612,-581,-480,-366
-233,-178,47,202,-141,-61,-171,-213,-498,-485,-408,-312
-191,-142,41,166,-117,-43,-135,-141,-414,-413,-348,-270
-155,-94,53,124,-105,-13,-99,-87,-342,-341,-294,-240
-149,-76,65,112,-111,-2,-69,-51,-276,-293,-246,-204
-131,-52,71,88,-105,4,-45,-27,-246,-245,-210,-180
-107,-40,59,70,-87,4,-33,-10,-216,-233,-192,-168
-83,-34,41,58,-63,-2,-27,-4,-198,-209,-174,-156
-89,-46,35,64,-63,-2,-15,14,-174,-197,-162,-150
-89,-34,47,58,-69,-2,-4,26,-156,-179,-144,-150
-77,-46,23,58,-51,-7,-4,44,-132,-161,-144,-150
-77,-40,29,58,-57,-2,-4,50,-114,-155,-144,-144
-77,-46,23,58,-51,-7,8,68,-90,-143,-114,-138
-71,-64,-1,64,-39,-25,8,74,-72,-125,-114,-138
-71,-64,-1,64,-39,-25,14,80,-60,-113,-108,-132
-71,-58,5,64,-39,-19,20,80,-54,-107,-90,-114
-53,-64,-6,58,-21,-37,20,74,-60,-101,-78,-102
-59,-46,5,52,-33,-13,32,92,-54,-89,-72,-102
-59,-40,11,46,-39,-7,32,86,-60,-83,-72,-102
-47,-34,5,40,-27,-7,32,80,-60,-95,-78,-108
-47,-34,5,40,-27,-7,32,92,-54,-95,-90,-114
-59,-40,11,46,-39,-7,32,92,-36,-101,-90,-120
-53,-40,5,46,-33,-13,32,98,-24,-83,-78,-108
-47,-40,-1,40,-27,-13,32,98,-18,-83,-72,-102
-53,-46,-1,46,-27,-19,32,98,-12,-71,-66,-96
-59,-40,11,46,-39,-7,32,86,-7,-65,-60,-84
-53,-40,5,46,-33,-13,32,80,-7,-53,-48,-84
-41,-40,-1,40,-21,-19,38,80,-12,-59,-42,-90
-35,-40,-1,34,-15,-19,44,98,-7,-53,-42,-84
-41,-40,-1,40,-21,-19,44,98,-7,-59,-36,-78
-47,-58,-6,52,-15,-31,44,98,-7,-53,-48,-90
-65,-58,-1,58,-33,-25,38,104,-7,-59,-48,-84
-41,-46,-1,40,-15,-25,38,104,-1,-59,-48,-84
-41,-46,-1,40,-15,-25,38,104,11,-53,-48,-84
-41,-34,-1,34,-21,-13,32,98,17,-47,-42,-72
-47,-28,11,34,-33,-2,38,104,17,-35,-30,-60
-47,-46,-1,46,-21,-19,38,98,11,-35,-30,-60
-29,-40,-6,34,-9,-25,38,86,5,-47,-36,-66
-11,-28,-12,16,-4,-19,32,86,-1,-41,-30,-66
-29,-28,-1,28,-15,-13,38,98,5,-47,-30,-60
-53,-34,11,40,-33,-7,50,110,23,-35,-24,-60
-53,-16,29,34,-45,-2,50,104,29,-41,-30,-60
-41,-16,17,28,-33,-2,32,92,23,-47,-36,-66
-47,-28,11,34,-33,-2,38,98,35,-35,-42,-72
-29,-34,-1,28,-9,-19,32,92,41,-29,-30,-60
-29,-46,-12,34,-4,-31,32,92,47,-23,-18,-42
-41,-46,-1,40,-15,-25,44,80,47,-11,-18,-48
-29,-34,-1,28,-9,-19,38,86,35,-23,-18,-48
-11,-16,-1,10,-4,-7,38,86,41,-17,-7,-42
-29,-16,5,22,-21,-2,44,86,41,-17,-7,-42
-23,-28,-1,22,-9,-13,44,92,47,-23,-12,-48
-23,-10,5,16,-15,-2,38,98,59,-17,-12,-42
-29,-22,-1,22,-15,-7,38,98,77,-6,-7,-42
-11,-10,-1,10,-4,-2,20,86,71,-11,-12,-54
-6,-10,-1,4,-4,-7,26,86,77,-6,-7,-48
-17,-10,-1,10,-9,-2,14,74,71,-6,-7,-48
-11,-10,-1,10,-4,-2,8,68,65,-6,-7,-42
0,7,-1,-1,-4,4,14,68,65,-6,-1,-48
-6,13,11,-1,-4,16,26,68,65,-6,5,-36
-17,-5,11,4,-15,-2,26,74,71,-6,5,-30
-6,-22,-12,10,-4,-19,20,74,77,0,-1,-36
-6,-5,-1,4,-4,-2,26,86,83,12,5,-30
-6,7,5,-1,-4,10,20,80,95,18,11,-30
-6,1,-1,4,-4,4,20,86,113,30,17,-30
6,-5,-18,4,8,-7,20,80,119,42,29,-12
18,-5,-30,-1,20,-13,20,74,119,36,35,-12
18,-5,-18,-7,20,-2,8,56,113,42,41,-12
0,7,-1,-1,-4,4,8,74,125,60,59,-7
0,1,-1,-1,-4,-2,14,74,125,60,59,5
12,13,-1,-13,2,4,20,80,125,66,65,11
24,19,-1,-19,14,4,20,80,137,78,65,11
36,31,-1,-31,20,10,14,74,149,72,59,11
24,13,-6,-19,14,-2,8,74,161,78,77,11
12,13,-1,-13,2,4,8,86,179,96,83,23
30,25,-1,-25,14,10,2,74,185,102,89,29
36,25,-6,-31,20,4,-4,74,191,114,107,41
30,19,-6,-25,20,4,8,74,197,132,125,59
36,25,-6,-31,20,4,14,86,203,138,119,65
48,31,-12,-37,32,4,2,80,203,138,125,65
66,55,-6,-61,38,22,-4,68,203,132,125,59
66,49,-12,-55,38,16,2,80,227,144,131,65
60,55,-1,-55,32,22,2,98,233,156,137,77
66,61,-1,-61,32,28,-4,92,245,174,143,83
60,61,-1,-61,26,28,2,92,263,186,155,89
78,67,-6,-73,44,28,-4,98,281,204,173,107
96,79,-12,-85,56,28,-4,92,281,210,179,119
108,79,-24,-91,68,22,-4,86,287,222,191,131
108,79,-24,-91,68,22,-4,92,287,234,203,137
132,91,-36,-109,86,22,-9,86,293,234,203,143
126,97,-24,-109,74,34,-9,92,293,234,203,143
102,91,-6,-97,56,40,-4,104,317,252,221,161
114,97,-12,-103,62,40,-4,110,335,258,233,167
150,97,-48,-121,98,22,-4,98,341,258,233,167
144,103,-36,-121,92,28,-15,92,347,270,233,167
126,103,-18,-115,74,40,-21,104,359,294,245,185
144,109,-30,-127,86,34,-15,104,371,300,263,203
150,103,-42,-127,98,28,-9,98,371,306,281,215
144,121,-18,-133,80,46,-21,98,365,312,281,215
150,139,-6,-145,80,64,-21,98,371,318,287,221
156,133,-18,-145,86,52,-21,98,365,312,281,221
174,133,-36,-151,104,46,-21,98,377,312,281,221
174,127,-42,-151,110,40,-27,104,383,318,287,233
174,109,-60,-139,116,22,-15,110,395,330,299,233
198,121,-72,-157,134,22,-21,116,401,336,293,233
186,133,-48,-157,116,40,-27,104,401,342,299,233
174,127,-42,-151,110,40,-21,98,395,342,311,245
180,127,-48,-151,116,34,-15,98,395,342,311,239
192,133,-54,-163,122,34,-33,92,383,336,311,239
192,139,-48,-163,122,40,-27,104,389,342,311,245
192,139,-48,-163,122,40,-27,104,371,324,293,233
204,121,-78,-163,140,16,-27,98,377,318,281,233
180,115,-60,-145,122,22,-15,110,389,324,293,245
168,103,-60,-133,116,16,-15,104,395,318,293,239
192,121,-66,-157,128,22,-21,104,389,306,281,233
204,133,-66,-169,134,28,-33,74,365,294,257,215
168,115,-48,-139,110,28,-27,74,365,300,269,227
162,115,-42,-139,104,34,-21,74,365,294,275,233
174,127,-42,-151,110,40,-39,68,335,282,257,221
162,109,-48,-133,104,28,-27,68,329,276,257,227
156,103,-48,-127,104,22,-21,74,329,258,251,221
156,97,-54,-127,104,16,-33,56,317,246,233,197
144,97,-42,-121,92,22,-33,56,311,252,227,203
126,91,-30,-109,80,28,-27,56,317,246,227,197
150,103,-42,-127,98,28,-27,56,317,240,215,191
168,103,-60,-133,116,16,-21,56,323,240,221,197
144,103,-36,-121,92,28,-33,38,293,216,203,185
150,97,-48,-121,98,22,-33,26,287,204,191,173
162,103,-54,-133,110,22,-21,38,275,204,191,173
144,97,-42,-121,92,22,-15,38,281,198,185,179
132,79,-48,-103,92,10,-21,26,257,180,167,161
138,85,-48,-109,92,16,-15,38,263,186,161,161
126,85,-36,-103,80,22,-15,38,269,174,161,155
120,73,-42,-97,80,10,-21,32,257,162,137,137
120,85,-30,-103,74,22,-21,32,263,162,137,137
102,79,-18,-91,62,28,-9,38,281,174,149,149
102,79,-18,-91,62,28,-15,26,263,162,143,143
120,85,-30,-103,74,22,-15,14,239,150,131,131
132,97,-30,-115,80,28,-27,8,227,138,125,125
120,91,-24,-103,74,28,-15,2,233,132,119,125
78,85,-1,-79,32,46,-4,8,221,126,119,119
66,73,-1,-67,26,40,-4,8,233,126,107,113
84,67,-12,-73,50,22,-4,8,233,126,107,113
78,61,-12,-67,44,22,-4,2,227,120,95,107
72,61,-6,-67,38,22,-4,-4,221,114,101,101
66,49,-12,-55,38,16,-4,-4,221,114,101,101
66,67,-1,-67,32,34,-4,-10,209,120,101,101
54,61,-1,-55,20,34,2,-10,197,108,95,89
42,43,-1,-43,20,22,-4,-15,173,90,77,71
42,43,-1,-43,20,22,-4,-15,173,90,77,71
36,37,-1,-37,14,16,-4,-15,161,84,77,65
42,31,-6,-37,26,10,-4,-21,155,66,59,53
36,19,-12,-25,26,-2,2,-21,149,66,53,47
30,31,-1,-31,14,16,8,-21,155,66,47,47
42,37,-1,-37,20,16,2,-39,137,60,47,35
0,1,-1,-1,-4,-2,-4,-33,131,48,29,29
-6,19,23,-1,-9,22,-4,-51,113,42,29,23
6,37,23,-19,-4,34,-4,-57,101,30,17,17
12,19,-1,-13,2,10,-4,-63,83,24,5,11
6,-5,-6,-1,8,-2,-4,-75,65,6,-1,5
-6,-10,-1,4,-4,-7,2,-75,53,-6,-1,-1
-17,-16,-1,16,-9,-7,8,-63,59,0,-7,-7
-11,-16,-1,10,-4,-7,-4,-75,41,-6,-12,-12
-17,-16,-1,16,-9,-7,-4,-81,35,-23,-30,-24
-41,-10,23,22,-33,-2,-4,-87,41,-17,-30,-24
-41,-10,23,22,-33,-2,-4,-93,35,-23,-30,-24
-29,-5,17,16,-27,-2,-4,-105,17,-35,-42,-30
-29,-5,23,10,-27,4,-4,-111,-7,-47,-60,-42
-35,-16,11,22,-27,-2,-4,-117,-7,-47,-60,-42
-47,-28,11,34,-33,-2,-4,-117,-7,-53,-60,-36
-47,-22,17,34,-33,-2,-4,-117,-7,-59,-60,-48
-59,-28,23,40,-45,-2,-4,-129,-12,-71,-78,-60
-59,-28,23,40,-45,-2,-4,-123,-12,-71,-72,-60
-41,-40,-1,40,-21,-19,-4,-111,-7,-59,-66,-48
-47,-46,-1,46,-21,-19,-4,-117,-7,-65,-72,-54
-65,-22,35,40,-51,-2,-15,-129,-18,-77,-84,-60
-71,-10,53,40,-63,16,-15,-135,-24,-71,-78,-66
-65,-10,47,34,-57,10,-9,-129,-12,-71,-72,-54
-53,-16,29,34,-45,-2,-9,-135,-24,-71,-78,-42
-59,-22,29,40,-45,-2,-9,-147,-30,-77,-78,-42
-53,-22,23,34,-39,-2,-4,-141,-30,-77,-72,-54
-53,-28,17,40,-39,-2,-4,-135,-18,-71,-78,-60
-59,-22,29,40,-45,-2,-4,-129,-18,-65,-72,-54
-59,-22,29,40,-45,-2,-4,-129,-12,-65,-72,-54
-65,-40,17,52,-45,-7,-4,-123,-7,-53,-54,-48
-47,-46,-1,46,-21,-19,-9,-129,-12,-65,-72,-54
-53,-34,11,40,-33,-7,-4,-129,-12,-65,-66,-42
-47,-16,23,28,-39,-2,-15,-141,-18,-71,-72,-54
-41,-16,17,28,-33,-2,-9,-141,-18,-65,-60,-42
-53,-16,29,34,-45,-2,-4,-117,-7,-47,-54,-24
-59,-16,35,34,-51,4,-4,-123,-12,-53,-54,-30
-65,-22,35,40,-51,-2,-4,-117,-7,-53,-54,-36
-59,-22,29,40,-45,-2,-4,-117,-7,-53,-54,-36
-41,-22,11,28,-27,-2,-9,-123,-7,-59,-60,-42
-41,-34,-1,34,-21,-13,-9,-111,-7,-53,-54,-36
-53,-22,23,34,-39,-2,-4,-111,5,-35,-48,-24
-59,-16,35,34,-51,4,-4,-111,-1,-35,-42,-24
-47,-16,23,28,-39,-2,-9,-123,-7,-47,-54,-42
-35,-10,17,22,-27,-2,-9,-129,-7,-53,-60,-42
-35,-5,29,16,-33,10,-4,-105,-7,-41,-42,-24
-47,-16,23,28,-39,-2,-4,-111,-7,-47,-48,-36
-53,-10,35,28,-45,4,-9,-123,5,-59,-66,-54
-47,-16,23,28,-39,-2,-9,-117,5,-53,-60,-48
-53,-34,11,40,-33,-7,-4,-105,11,-47,-54,-42
-35,-10,17,22,-27,-2,-15,-117,5,-47,-60,-48
-23,1,29,4,-27,16,-15,-111,17,-29,-54,-36
-41,-22,11,28,-27,-2,-4,-99,17,-17,-30,-24
-47,-28,11,34,-33,-2,-9,-105,17,-23,-30,-24
-41,-5,29,22,-39,4,-9,-111,11,-29,-30,-30
-29,-5,17,16,-27,-2,-4,-99,17,-17,-30,-18
-11,-5,5,4,-9,-2,-4,-105,11,-17,-30,-24
-29,-5,17,16,-27,-2,-4,-99,17,-29,-30,-24
-23,-5,11,10,-21,-2,-4,-99,23,-23,-30,-30
-6,-10,-6,4,-4,-7,-9,-105,17,-23,-30,-24
-6,-5,-1,4,-4,-2,-15,-99,23,-17,-18,-18
-41,-5,41,16,-39,16,-4,-81,35,-6,-12,-7
-35,-5,29,16,-33,10,-4,-81,35,-6,-7,-7
-35,-22,5,28,-21,-2,-4,-87,29,-6,-12,-7
-35,-28,-1,28,-21,-7,-4,-87,17,-11,-18,-7
-29,-5,17,16,-27,-2,-4,-87,11,-17,-24,-7
-47,-5,41,22,-45,16,-4,-87,11,-23,-30,-12
-47,-10,29,28,-39,4,-4,-81,11,-23,-36,-12
-29,-10,11,16,-21,-2,-4,-81,17,-23,-30,-12
-29,-5,29,10,-27,10,-4,-87,17,-29,-36,-24
-35,-5,29,16,-33,10,-4,-75,23,-23,-30,-12
-35,-22,5,28,-21,-2,-4,-81,23,-11,-24,-12
-35,-22,5,28,-21,-2,-4,-87,17,-6,-24,-18
-23,-16,-1,16,-15,-2,-4,-81,17,-11,-24,-12
-11,-5,-1,4,-9,-2,-4,-81,17,-11,-18,-7
-29,-16,5,22,-21,-2,-4,-93,5,-23,-30,-18
-41,-40,-1,40,-21,-19,2,-87,-1,-29,-30,-12
-23,-34,-6,28,-4,-19,2,-75,5,-29,-36,-12
-35,-28,-1,28,-21,-7,-4,-75,5,-35,-42,-24
-47,-28,11,34,-33,-2,8,-75,17,-29,-36,-24
-35,-22,5,28,-21,-2,-4,-69,5,-35,-42,-24
-41,-10,23,22,-33,-2,-4,-81,-7,-41,-54,-30
-47,-22,17,34,-33,-2,-4,-87,-7,-41,-48,-30
-41,-28,5,34,-27,-7,-4,-99,-12,-47,-60,-36
-47,-28,11,34,-33,-2,-4,-99,-7,-41,-48,-30
-47,-16,23,28,-39,-2,2,-81,-7,-35,-48,-30
-47,-5,41,22,-45,16,2,-87,-7,-35,-48,-30
-47,-10,29,28,-39,4,-4,-87,-7,-41,-54,-30
-35,-28,-1,28,-21,-7,-4,-93,-18,-59,-66,-42
-47,-28,11,34,-33,-2,2,-81,-7,-53,-66,-36
-47,-28,11,34,-33,-2,2,-87,-7,-41,-54,-36
-47,-28,11,34,-33,-2,-4,-81,-7,-41,-54,-36
-53,-40,5,46,-33,-13,-4,-87,-7,-29,-42,-24
-47,-46,-1,46,-21,-19,2,-87,-7,-41,-48,-30
-41,-34,-1,34,-21,-13,-4,-93,-24,-53,-54,-42
-47,-28,11,34,-33,-2,2,-93,-30,-59,-66,-48
-47,-34,5,40,-27,-7,-4,-99,-36,-71,-78,-54
-47,-34,5,40,-27,-7,-4,-93,-30,-71,-78,-54
-47,-28,11,34,-33,-2,-4,-87,-30,-59,-72,-42
-59,-40,11,46,-39,-7,-4,-87,-24,-65,-78,-54
-47,-40,-1,40,-27,-13,-4,-87,-24,-65,-72,-54
-47,-58,-6,52,-15,-31,8,-69,-24,-59,-66,-48
-65,-58,-1,58,-33,-25,14,-63,-24,-53,-66,-36
-65,-46,11,52,-39,-13,14,-81,-30,-65,-78,-48
-47,-34,5,40,-27,-7,-4,-93,-48,-77,-84,-48
-59,-52,-1,52,-33,-19,2,-87,-48,-83,-90,-60
-59,-52,-1,52,-33,-19,2,-87,-54,-83,-96,-66
-47,-40,-1,40,-27,-13,14,-75,-54,-83,-96,-66
-41,-34,-1,34,-21,-13,2,-75,-54,-95,-108,-72
-29,-34,-1,28,-9,-19,-4,-87,-54,-107,-114,-84
-47,-28,11,34,-33,-2,8,-75,-48,-95,-102,-66
-71,-34,29,52,-51,-2,14,-69,-42,-89,-96,-66
-71,-52,11,58,-45,-13,8,-81,-60,-89,-102,-78
-71,-58,5,64,-39,-19,14,-75,-66,-95,-102,-66
-47,-34,5,40,-27,-7,14,-69,-66,-89,-96,-66
-65,-34,23,46,-45,-2,14,-69,-66,-89,-108,-72
-77,-52,17,64,-51,-13,8,-69,-72,-89,-108,-72
-77,-58,11,64,-45,-19,20,-63,-66,-95,-108,-78
-65,-64,-1,64,-33,-31,20,-57,-66,-89,-102,-72
-65,-70,-1,64,-27,-37,20,-57,-60,-83,-102,-72
-59,-64,-1,58,-27,-31,14,-63,-54,-89,-96,-66
-65,-64,-1,64,-33,-31,20,-57,-54,-83,-96,-66
-65,-58,-1,58,-33,-25,14,-63,-66,-83,-96,-60
-83,-70,5,76,-45,-25,20,-63,-60,-83,-96,-66
-71,-46,17,58,-45,-7,20,-57,-72,-83,-96,-66
-59,-52,-1,52,-33,-19,20,-57,-72,-89,-108,-66
-83,-76,-1,76,-45,-31,20,-63,-84,-95,-108,-72
-95,-76,11,82,-57,-25,20,-57,-78,-101,-120,-78
-65,-34,23,46,-45,-2,20,-63,-72,-95,-114,-84
-59,-34,17,46,-39,-2,32,-51,-66,-89,-108,-72
-71,-52,11,58,-45,-13,20,-57,-72,-101,-114,-84
-71,-52,11,58,-45,-13,20,-63,-72,-95,-120,-90
-59,-58,-1,58,-27,-25,20,-63,-78,-89,-114,-90
-53,-64,-6,58,-21,-37,20,-69,-78,-101,-120,-90
-47,-64,-12,52,-15,-37,14,-63,-78,-107,-114,-96
-89,-70,11,76,-51,-25,38,-39,-66,-83,-102,-84
-89,-58,23,70,-57,-13,38,-45,-78,-83,-108,-84
-89,-64,17,76,-57,-19,26,-51,-84,-107,-126,-90
-89,-76,5,82,-51,-31,26,-45,-78,-95,-120,-90
-65,-70,-1,64,-27,-37,32,-45,-72,-95,-120,-90
-65,-46,11,52,-39,-13,20,-51,-78,-101,-126,-90
-77,-46,23,58,-51,-7,32,-33,-72,-89,-120,-84
-77,-52,17,64,-51,-13,26,-39,-78,-89,-114,-78
-65,-64,-1,64,-33,-31,14,-45,-78,-89,-108,-78
-89,-70,11,76,-51,-25,26,-33,-84,-89,-108,-78
-89,-64,17,76,-57,-19,26,-33,-90,-101,-120,-90
-65,-52,5,58,-39,-19,20,-27,-96,-95,-120,-90
-59,-70,-6,64,-21,-37,26,-33,-90,-95,-114,-84
-77,-70,-1,70,-39,-31,32,-27,-78,-95,-114,-78
-83,-64,11,70,-51,-19,32,-21,-72,-101,-114,-84
-77,-76,-1,76,-39,-37,26,-27,-84,-95,-120,-84
-65,-88,-18,76,-21,-55,20,-21,-78,-95,-120,-84
-83,-82,-1,82,-39,-37,32,-15,-72,-89,-108,-72
-71,-76,-1,70,-33,-37,38,-21,-84,-89,-108,-84
-77,-70,-1,70,-39,-31,32,-15,-90,-89,-108,-78
-83,-70,5,76,-45,-25,26,-15,-90,-89,-108,-84
-77,-58,11,64,-45,-19,20,-33,-108,-107,-126,-90
-77,-76,-1,76,-39,-37,26,-21,-96,-95,-120,-90
-65,-70,-1,64,-27,-37,14,-15,-96,-101,-126,-90
-59,-58,-1,58,-27,-25,20,-21,-96,-101,-132,-96
-65,-64,-1,64,-33,-31,14,-27,-102,-107,-132,-102
-71,-64,-1,64,-39,-25,14,-21,-96,-107,-138,-96
-71,-70,-1,70,-33,-31,32,-10,-84,-101,-120,-78
-77,-70,-1,70,-39,-31,38,-15,-90,-101,-120,-90
-53,-58,-1,52,-21,-31,20,-21,-108,-101,-126,-96
-65,-70,-1,64,-27,-37,32,-10,-102,-95,-132,-90
-71,-64,-1,64,-39,-25,32,-15,-114,-101,-132,-96
-77,-58,11,64,-45,-19,20,-21,-120,-113,-144,-114
-95,-76,11,82,-57,-25,20,-10,-108,-113,-138,-102
-89,-82,-1,82,-45,-37,32,-10,-96,-101,-132,-90
-89,-64,17,76,-57,-19,26,-10,-96,-107,-132,-90
-77,-64,5,70,-45,-25,26,-10,-96,-119,-132,-96
-71,-70,-1,70,-33,-31,20,-10,-102,-113,-132,-96
-77,-70,-1,70,-39,-31,20,-15,-108,-101,-126,-84
-71,-52,11,58,-45,-13,20,-15,-102,-107,-126,-84
-65,-46,11,52,-39,-13,26,-15,-108,-107,-132,-90
-71,-70,-1,70,-33,-31,32,-10,-108,-95,-126,-84
-59,-76,-12,64,-21,-43,32,-10,-102,-95,-120,-78
-65,-70,-1,64,-27,-37,50,2,-90,-89,-108,-72
-65,-64,-1,64,-33,-31,56,8,-78,-77,-108,-66
-53,-34,11,40,-33,-7,56,14,-72,-71,-96,-60
-65,-34,23,46,-45,-2,50,14,-72,-71,-96,-60
-59,-40,11,46,-39,-7,44,8,-78,-65,-96,-60
-77,-28,41,52,-63,-2,50,2,-84,-71,-102,-60
-83,-10,65,46,-75,22,50,-4,-90,-77,-108,-66
-65,-5,53,34,-63,16,50,2,-84,-65,-102,-60
-41,-5,41,16,-39,16,50,8,-90,-71,-102,-66
-47,-5,41,22,-45,16,38,-4,-96,-77,-108,-72
-65,-22,35,40,-51,-2,44,8,-78,-71,-96,-66
-77,-34,35,52,-57,-2,44,14,-72,-65,-96,-66
-83,-46,29,64,-57,-2,44,8,-72,-65,-90,-60
-77,-34,35,52,-57,-2,20,-10,-84,-71,-102,-72
-65,-10,47,34,-57,10,2,-10,-96,-77,-108,-78
-71,-5,59,34,-69,22,2,-15,-96,-77,-102,-66
-71,-5,59,34,-69,22,-4,-21,-102,-77,-102,-60
-47,7,59,10,-51,34,-9,-33,-114,-89,-114,-78
-47,31,83,4,-63,58,-4,-21,-102,-77,-102,-66
-35,55,95,-1,-63,76,-4,-15,-90,-59,-84,-54
-29,49,83,-1,-57,64,-21,-33,-96,-71,-96,-54
-29,67,101,-13,-63,82,-33,-45,-102,-83,-102,-60
-23,67,95,-13,-57,82,-45,-57,-108,-83,-96,-54
-35,49,89,-1,-63,70,-39,-51,-102,-65,-84,-48
-41,61,107,-1,-75,82,-45,-63,-108,-65,-78,-42
-23,91,119,-25,-69,106,-69,-75,-126,-83,-96,-60
-17,67,89,-19,-51,76,-63,-69,-132,-77,-90,-54
-41,61,107,-1,-75,82,-51,-63,-132,-89,-96,-48
-41,85,131,-13,-87,106,-51,-81,-150,-101,-114,-60
-41,85,131,-13,-87,106,-51,-81,-150,-107,-108,-60
-41,67,113,-7,-75,88,-51,-75,-150,-107,-114,-66
-29,55,89,-7,-57,70,-51,-69,-144,-107,-114,-66
-23,43,71,-1,-45,58,-45,-69,-144,-107,-114,-60
-41,49,95,4,-69,70,-45,-63,-138,-107,-114,-66
-41,43,89,4,-63,64,-39,-57,-138,-107,-114,-60
-41,19,65,4,-51,40,-27,-57,-144,-113,-120,-66
-29,19,53,4,-39,34,-27,-57,-162,-131,-132,-78
-23,1,29,4,-27,16,-21,-39,-162,-125,-132,-78
-6,-22,-12,10,-4,-19,-15,-33,-150,-119,-126,-66
-6,-40,-30,22,2,-37,-15,-27,-144,-125,-126,-66
-29,-40,-6,34,-9,-25,-4,-15,-138,-113,-126,-72
-59,-58,-1,58,-27,-25,-4,-10,-120,-107,-132,-78
-53,-58,-1,52,-21,-31,2,-10,-120,-113,-126,-96
-59,-70,-6,64,-21,-37,2,-10,-120,-113,-132,-96
-71,-70,-1,70,-33,-31,14,-10,-120,-107,-132,-96
-65,-64,-1,64,-33,-31,26,-10,-120,-101,-126,-84
-71,-76,-1,70,-33,-37,26,-10,-138,-113,-132,-96
-83,-76,-1,76,-45,-31,20,-10,-144,-131,-144,-108
-77,-76,-1,76,-39,-37,20,-10,-144,-125,-144,-108
-77,-94,-12,82,-27,-55,26,-4,-132,-119,-138,-102
-77,-112,-30,94,-21,-73,32,2,-132,-119,-144,-108
-77,-118,-36,94,-15,-79,32,2,-126,-131,-150,-114
-77,-118,-36,94,-15,-79,32,2,-126,-125,-150,-102
-53,-106,-48,76,-4,-79,38,14,-126,-125,-150,-108
-71,-118,-42,94,-9,-79,26,-4,-132,-131,-156,-114
-95,-130,-30,112,-27,-79,26,-10,-150,-143,-162,-114
-89,-142,-48,112,-15,-97,32,-4,-144,-143,-150,-114
-83,-136,-48,106,-15,-91,50,8,-138,-137,-150,-108
-77,-124,-42,100,-15,-85,56,14,-132,-131,-150,-102
-65,-106,-36,82,-9,-73,38,2,-150,-155,-168,-126
-65,-112,-42,88,-9,-79,32,2,-150,-161,-174,-132
-71,-118,-42,94,-9,-79,32,2,-138,-155,-168,-126
-83,-112,-24,94,-27,-67,44,8,-126,-137,-156,-114
-83,-112,-24,94,-27,-67,38,8,-132,-143,-162,-126
-71,-112,-36,88,-15,-73,44,8,-132,-131,-150,-120
-83,-106,-18,94,-27,-61,44,14,-126,-125,-144,-108
-71,-112,-36,88,-15,-73,56,20,-126,-119,-138,-96
-71,-106,-30,88,-15,-67,56,26,-126,-119,-138,-96
-77,-100,-18,88,-27,-61,50,20,-132,-125,-138,-102
-53,-100,-42,76,-4,-73,38,14,-138,-131,-144,-102
-53,-112,-54,82,-4,-85,44,26,-132,-137,-138,-102
-65,-118,-48,88,-4,-85,44,26,-120,-125,-144,-108
-65,-106,-36,82,-9,-73,38,14,-120,-131,-150,-108
-47,-64,-12,52,-15,-37,44,20,-120,-125,-144,-108
-65,-82,-12,70,-21,-49,50,26,-120,-113,-132,-96
-77,-106,-24,88,-21,-67,50,26,-114,-119,-138,-96
-77,-100,-18,88,-27,-61,44,32,-114,-119,-132,-96
-77,-100,-18,88,-27,-61,44,32,-108,-113,-132,-96
-71,-118,-42,94,-9,-79,32,26,-120,-119,-138,-102
-71,-136,-60,100,-4,-97,32,26,-114,-119,-138,-102
-65,-118,-48,88,-4,-85,26,32,-108,-119,-138,-96
-65,-88,-18,76,-21,-55,20,26,-114,-125,-144,-108
-53,-94,-36,70,-4,-67,26,20,-108,-119,-144,-102
-47,-112,-60,76,-4,-85,32,26,-108,-119,-138,-102
-65,-118,-48,88,-4,-85,32,32,-108,-119,-138,-102
-77,-94,-12,82,-27,-55,38,32,-114,-107,-132,-96
-41,-94,-48,64,-4,-73,50,38,-108,-101,-126,-90
-65,-124,-54,94,-4,-91,74,74,-78,-95,-120,-96
-71,-148,-72,106,-4,-109,104,122,-42,-83,-126,-96
-65,-148,-78,106,-4,-115,146,182,-7,-65,-132,-114
-71,-142,-66,106,-4,-103,200,254,65,-41,-120,-126
-77,-106,-24,88,-21,-67,254,332,143,-6,-114,-132
-53,-82,-24,64,-9,-55,302,398,233,48,-72,-114
-29,-76,-42,52,-4,-61,326,458,323,150,5,-42
18,-64,-90,16,50,-73,350,524,443,276,125,35
78,-46,-132,-7,104,-85,374,614,587,420,251,137
144,1,-138,-73,140,-61,368,644,689,570,407,239
234,103,-132,-169,188,-7,314,620,779,762,617,407
366,193,-174,-277,266,4,236,602,905,996,863,623
486,283,-204,-385,344,40,116,530,983,1224,1103,851
642,373,-264,-505,458,52,-45,374,983,1416,1331,1073
780,487,-288,-637,536,100,-261,152,929,1560,1547,1289
894,619,-270,-751,584,172,-471,-45,839,1686,1727,1463
954,727,-228,-835,590,244,-603,-225,731,1758,1841,1583
906,793,-108,-847,506,340,-711,-423,551,1740,1871,1619
816,847,23,-829,392,442,-813,-633,347,1674,1835,1583
750,805,47,-775,350,430,-873,-753,203,1560,1709,1469
684,685,-1,-685,338,340,-945,-879,-7,1260,1409,1259
546,505,-36,-523,290,238,-921,-945,-246,858,995,965
372,367,-1,-367,188,184,-843,-963,-480,450,575,641
204,265,59,-235,68,166,-813,-1029,-804,-23,131,317
72,175,95,-121,-4,136,-777,-1065,-1110,-491,-276,11
-41,37,83,4,-63,58,-693,-1023,-1266,-857,-624,-252
-179,-58,113,118,-147,22,-591,-957,-1380,-1139,-882,-492
-245,-94,143,166,-195,16,-537,-897,-1392,-1223,-990,-618
-287,-112,173,202,-237,22,-489,-819,-1272,-1115,-942,-612
-281,-136,143,208,-219,-2,-447,-741,-1158,-1019,-870,-576
-275,-190,83,232,-183,-49,-441,-693,-1092,-977,-840,-564
-275,-214,59,244,-171,-73,-405,-627,-1002,-911,-792,-546
-257,-196,59,226,-165,-61,-339,-549,-906,-815,-726,-504
-257,-208,47,232,-159,-73,-285,-477,-822,-749,-678,-480
-239,-214,17,226,-129,-91,-237,-405,-756,-701,-642,-468
-221,-202,11,208,-117,-91,-177,-321,-660,-623,-576,-420
-209,-172,29,190,-123,-67,-135,-249,-546,-533,-504,-372
-191,-136,47,160,-123,-37,-93,-183,-456,-455,-444,-330
-173,-100,65,136,-123,-13,-51,-117,-366,-365,-372,-276
-149,-76,65,112,-111,-2,-15,-69,-294,-305,-324,-240
-137,-58,71,94,-105,-2,2,-39,-246,-257,-276,-204
-125,-52,65,88,-99,-2,8,-21,-228,-239,-252,-192
-89,-52,29,70,-63,-7,26,-10,-186,-203,-234,-168
-89,-34,47,58,-69,-2,56,26,-150,-167,-204,-144
-101,-40,53,70,-81,-2,80,56,-138,-149,-180,-126
-89,-46,35,64,-63,-2,74,62,-126,-149,-186,-132
-77,-52,17,64,-51,-13,80,86,-84,-125,-168,-120
-71,-58,5,64,-39,-19,92,92,-72,-119,-162,-120
-47,-58,-6,52,-15,-31,98,98,-60,-101,-156,-114
-47,-46,-1,46,-21,-19,116,104,-42,-89,-144,-114
-65,-52,5,58,-39,-19,116,104,-36,-71,-120,-102
-71,-58,5,64,-39,-19,122,110,-30,-71,-114,-96
-71,-64,-1,64,-39,-25,128,110,-36,-71,-120,-96
-53,-52,-1,52,-27,-25,140,122,-30,-59,-114,-90
-41,-46,-1,40,-15,-25,134,134,-24,-65,-120,-90
-65,-46,11,52,-39,-13,146,140,-24,-71,-120,-90
-23,-40,-12,28,-4,-25,152,140,-12,-59,-108,-90
-29,-58,-24,40,-4,-43,158,158,-1,-47,-102,-84
-59,-76,-12,64,-21,-43,146,152,-1,-47,-102,-84
-47,-64,-12,52,-15,-37,152,146,5,-47,-102,-84
-35,-58,-18,46,-4,-37,152,152,5,-29,-84,-72
-29,-40,-6,34,-9,-25,152,152,-1,-23,-78,-60
-23,-40,-12,28,-4,-25,146,140,-7,-29,-78,-60
-11,-46,-30,28,2,-37,152,146,-7,-29,-84,-66
-35,-28,-1,28,-21,-7,146,152,-7,-35,-90,-60
-41,-40,-1,40,-21,-19,140,158,-1,-35,-84,-66
-23,-52,-24,34,-4,-37,140,158,-1,-35,-84,-72
-23,-70,-42,46,2,-55,134,164,5,-29,-84,-72
-41,-70,-24,52,-4,-49,140,164,17,-23,-78,-66
-35,-52,-12,40,-9,-31,158,182,41,-6,-54,-48
-29,-34,-1,28,-9,-19,146,170,29,-6,-54,-48
-41,-34,-1,34,-21,-13,140,170,23,-11,-60,-42
-29,-28,-1,28,-15,-13,134,164,17,-11,-60,-48
-23,-28,-1,22,-9,-13,140,164,17,-11,-60,-48
-6,-22,-12,10,-4,-19,128,158,5,-17,-66,-48
-17,-34,-12,22,-4,-25,152,182,29,-6,-60,-42
-41,-64,-18,52,-9,-43,158,194,35,-6,-60,-42
-41,-52,-6,46,-15,-31,158,206,53,-6,-48,-42
-29,-34,-1,28,-9,-19,140,188,47,-6,-54,-54
-23,-40,-12,28,-4,-25,146,182,41,-6,-54,-54
-23,-22,-1,22,-9,-7,146,182,47,6,-48,-30
-29,-22,-1,22,-15,-7,146,188,59,6,-48,-18
-29,-22,-1,22,-15,-7,158,176,47,-6,-48,-24
-23,-16,-1,16,-15,-2,158,182,41,0,-42,-18
-11,-16,-1,10,-4,-7,152,182,35,-6,-48,-24
-29,-34,-1,28,-9,-19,152,188,47,-6,-54,-24
-23,-22,-1,22,-9,-7,140,182,47,0,-42,-24
-6,-10,-1,4,-4,-7,140,194,65,12,-30,-18
-6,-5,-1,4,-4,-2,134,188,77,30,-24,-18
-6,-22,-12,10,-4,-19,140,182,83,30,-18,-7
-6,-10,-1,4,-4,-7,140,188,83,42,-7,-7
-6,-10,-1,4,-4,-7,140,194,83,42,-7,-7
