,,,,,,,,,,,
2019-09-01 15:33:55,,,,,,,,,,,
,,,,,,,,,,,
I,II,III,aVR,aVL,aVF,V1,V2,V3,V4,V5,V6
40,74,38,-58,2,50,60,190,102,74,-4,-203
40,74,38,-58,2,50,60,190,102,74,-4,-203
40,74,38,-58,2,50,60,190,102,74,-4,-203
40,74,38,-58,2,50,60,190,102,74,-4,-203
46,80,38,-64,8,56,60,196,108,80,2,-191
46,86,43,-64,2,62,60,202,114,80,2,-185
52,92,43,-70,8,62,60,208,120,86,8,-173
52,98,43,-76,2,68,60,214,126,86,8,-167
58,98,43,-76,8,68,60,232,138,98,20,-161
58,98,43,-76,8,68,60,238,150,104,26,-155
64,98,38,-82,14,62,60,256,162,116,38,-149
64,98,38,-82,14,62,60,268,174,122,44,-143
70,98,32,-82,20,62,60,280,186,134,50,-137
70,98,32,-82,20,62,60,286,192,140,50,-137
76,98,26,-88,26,56,60,298,204,152,56,-131
76,98,26,-88,26,56,60,304,210,158,56,-131
82,104,26,-94,32,62,66,316,222,164,62,-125
82,110,32,-94,26,68,66,328,234,170,68,-119
88,116,32,-100,32,68,72,340,240,176,74,-113
88,122,38,-106,26,74,72,352,252,182,80,-107
94,122,32,-106,32,74,72,370,270,194,92,-95
100,122,26,-112,38,68,72,388,282,206,104,-89
106,122,20,-112,44,68,72,406,300,218,116,-77
112,122,14,-118,50,62,72,424,312,230,128,-71
118,134,20,-124,50,74,66,436,330,236,134,-65
118,146,32,-130,44,86,66,448,342,236,140,-59
124,158,38,-142,44,92,60,460,360,242,146,-53
124,170,43,-148,38,104,60,472,372,248,152,-47
130,176,43,-154,44,110,66,490,390,266,164,-35
136,176,43,-154,50,104,66,508,402,278,170,-29
142,182,43,-160,50,110,72,532,420,296,182,-17
148,182,38,-166,56,104,72,550,432,308,188,-11
154,188,38,-172,62,110,72,568,450,314,194,-5
160,188,32,-172,68,104,72,586,462,320,200,1
166,194,32,-178,68,110,72,604,480,326,206,7
172,194,26,-184,74,104,72,622,486,332,212,13
178,212,32,-196,80,116,66,640,498,344,224,19
184,224,43,-202,74,134,66,652,504,350,230,25
196,242,43,-220,80,146,60,670,516,362,236,30
202,260,49,-232,74,158,60,682,522,368,242,30
208,254,43,-232,86,152,66,706,540,380,254,36
208,248,43,-226,86,146,66,724,552,392,260,48
214,242,32,-226,98,134,72,742,570,404,272,60
214,236,26,-226,98,128,72,760,582,416,278,72
220,236,20,-226,104,128,78,772,588,428,290,84
220,236,20,-226,104,128,78,778,594,434,296,90
226,236,14,-232,110,122,84,790,600,446,308,102
226,236,14,-232,110,122,84,796,606,452,314,108
232,242,14,-238,116,128,78,802,612,446,314,114
232,248,20,-238,110,134,78,808,612,446,314,114
238,254,20,-244,116,134,72,814,618,440,314,120
238,260,26,-250,110,140,72,820,618,440,314,120
238,272,38,-256,104,152,60,808,606,434,308,114
238,284,43,-262,98,164,54,802,594,428,302,114
238,296,49,-268,92,176,42,790,582,422,296,108
238,308,61,-274,86,188,36,784,570,416,290,108
232,290,49,-262,92,176,42,784,570,422,296,114
232,278,43,-256,98,164,42,784,570,422,296,120
226,260,38,-244,98,146,48,784,570,428,302,126
226,248,26,-238,104,134,48,784,570,428,302,132
226,242,20,-232,110,128,42,772,558,416,296,132
226,242,20,-232,110,128,42,760,546,404,296,132
226,236,14,-232,110,122,36,748,534,392,290,132
226,236,14,-232,110,122,36,736,522,380,290,132
220,236,20,-226,104,128,30,724,510,374,284,126
220,236,20,-226,104,128,30,712,504,374,284,126
214,236,26,-226,98,128,24,694,492,368,278,120
214,236,26,-226,98,128,24,682,486,368,278,120
208,230,26,-220,98,128,30,658,474,356,266,114
202,230,32,-214,92,128,30,634,456,350,260,114
196,224,32,-208,86,128,36,610,438,338,248,108
190,224,38,-208,80,128,36,586,420,332,242,108
184,224,38,-202,80,128,36,556,402,320,236,102
178,218,38,-202,74,122,36,526,384,314,230,96
178,212,38,-196,74,122,36,496,366,302,230,90
172,206,38,-190,68,116,36,472,348,296,224,84
160,194,38,-178,62,110,30,442,324,278,206,66
154,182,32,-166,62,104,30,418,306,260,194,54
142,170,32,-154,56,98,24,388,282,242,176,36
136,158,26,-148,56,86,24,364,264,230,164,30
124,158,38,-142,44,92,24,328,240,212,152,25
118,158,43,-136,38,98,24,298,222,200,140,19
106,158,43,-130,26,104,24,262,198,182,128,7
100,158,49,-130,20,104,24,232,174,170,116,1
94,146,43,-118,20,98,30,214,156,158,110,-11
88,140,43,-112,20,92,30,190,144,152,104,-17
82,128,43,-106,20,86,36,166,126,140,98,-29
76,122,43,-100,14,80,36,142,114,134,92,-35
70,116,43,-94,14,80,36,118,96,116,74,-47
64,110,43,-88,8,74,36,94,78,104,56,-59
58,104,43,-82,8,74,36,70,60,86,38,-71
52,98,43,-76,2,68,36,46,42,74,20,-83
46,92,43,-70,2,68,42,34,30,68,14,-89
46,86,43,-64,2,62,42,22,18,62,14,-89
40,80,43,-58,2,56,48,10,6,56,8,-95
40,74,38,-58,2,50,48,-2,0,50,8,-95
34,68,38,-52,2,50,42,-8,0,44,2,-101
28,62,38,-46,-4,44,42,-8,-5,38,2,-107
22,56,38,-40,-4,44,36,-19,-11,32,-4,-113
16,50,38,-34,-10,38,36,-25,-17,26,-4,-119
10,38,32,-22,-10,32,36,-31,-23,20,-10,-125
4,32,32,-16,-10,26,36,-37,-29,20,-10,-125
-2,20,26,-10,-10,20,36,-43,-35,14,-10,-131
-8,14,26,-4,-16,14,36,-49,-41,14,-10,-131
-2,20,26,-10,-10,20,36,-55,-47,8,-10,-131
-2,26,32,-10,-16,26,36,-55,-47,8,-10,-131
4,32,32,-16,-10,26,36,-61,-53,2,-15,-131
4,38,38,-22,-16,32,36,-61,-53,2,-15,-131
4,32,32,-16,-10,26,30,-67,-53,2,-21,-131
4,32,32,-16,-10,26,30,-67,-53,2,-21,-131
4,26,26,-16,-10,20,24,-73,-53,2,-27,-131
4,26,26,-16,-10,20,24,-73,-53,2,-27,-131
-2,14,20,-4,-10,14,30,-67,-47,2,-21,-125
-2,2,8,2,-4,14,36,-61,-47,2,-15,-119
-8,-10,2,8,-4,3,42,-55,-41,2,-10,-113
-8,-16,-10,14,2,-9,48,-49,-41,2,-10,-107
-8,-16,-4,14,2,-3,42,-55,-41,2,-10,-113
-8,-16,-4,14,2,-3,42,-55,-41,2,-10,-113
-8,-10,2,8,-4,3,36,-61,-41,2,-15,-119
-8,-10,2,8,-4,3,36,-61,-41,2,-15,-119
-2,8,14,-4,-4,14,30,-61,-41,2,-15,-119
-2,20,26,-10,-10,20,30,-61,-41,2,-15,-119
4,38,38,-22,-16,32,24,-61,-41,2,-15,-119
4,50,43,-28,-22,44,24,-61,-41,2,-15,-119
4,44,43,-22,-16,38,24,-55,-35,8,-10,-113
4,38,38,-22,-16,32,24,-49,-29,8,-10,-107
4,32,32,-16,-10,26,24,-43,-23,14,-10,-101
4,26,26,-16,-10,20,24,-37,-17,14,-10,-95
10,26,20,-16,-4,20,24,-37,-17,14,-10,-95
10,26,20,-16,-4,20,24,-37,-17,14,-10,-95
16,26,14,-22,2,14,24,-37,-17,14,-10,-95
16,26,14,-22,2,14,24,-37,-17,14,-10,-95
16,26,14,-22,2,14,24,-31,-17,14,-10,-95
16,26,14,-22,2,14,24,-31,-17,14,-10,-95
16,26,14,-22,2,14,24,-25,-17,14,-15,-95
16,26,14,-22,2,14,24,-25,-17,14,-15,-95
10,32,26,-22,-4,26,30,-19,-17,14,-10,-95
10,38,32,-22,-10,32,30,-19,-17,14,-10,-95
4,44,43,-22,-16,38,36,-13,-17,14,-10,-95
4,50,43,-28,-22,44,36,-13,-17,14,-10,-95
10,50,43,-28,-16,44,30,-13,-17,14,-10,-95
10,50,43,-28,-16,44,30,-13,-17,14,-10,-95
16,50,38,-34,-10,38,24,-13,-17,14,-15,-95
16,50,38,-34,-10,38,24,-13,-17,14,-15,-95
16,44,32,-28,-4,32,24,-13,-17,14,-10,-89
16,44,32,-28,-4,32,24,-13,-17,14,-10,-89
16,38,26,-28,-4,26,24,-13,-17,14,-10,-83
16,38,26,-28,-4,26,24,-13,-17,14,-10,-83
10,38,32,-22,-10,32,24,-13,-23,8,-10,-83
10,38,32,-22,-10,32,24,-13,-23,8,-10,-83
4,38,38,-22,-16,32,24,-13,-29,2,-15,-83
4,38,38,-22,-16,32,24,-13,-29,2,-15,-83
4,38,38,-22,-16,32,24,-19,-29,2,-15,-83
4,38,38,-22,-16,32,24,-19,-29,2,-15,-83
4,38,38,-22,-16,32,24,-25,-29,2,-15,-83
4,38,38,-22,-16,32,24,-25,-29,2,-15,-83
4,38,38,-22,-16,32,24,-31,-35,2,-15,-83
4,38,38,-22,-16,32,24,-31,-35,2,-15,-83
4,38,38,-22,-16,32,24,-37,-41,2,-15,-83
4,38,38,-22,-16,32,24,-37,-41,2,-15,-83
4,38,38,-22,-16,32,24,-37,-47,-4,-15,-83
4,38,38,-22,-16,32,24,-37,-53,-4,-15,-83
4,38,38,-22,-16,32,24,-37,-59,-4,-15,-83
4,38,38,-22,-16,32,24,-37,-65,-4,-15,-83
4,26,26,-16,-10,20,30,-37,-59,-4,-15,-77
4,14,14,-10,-4,14,30,-37,-53,-4,-15,-77
4,2,2,-4,2,9,36,-37,-47,2,-15,-71
4,-10,-10,2,8,-3,36,-37,-41,2,-15,-71
4,-4,-4,2,8,3,30,-43,-53,-4,-21,-77
4,-4,-4,2,8,3,30,-49,-59,-4,-21,-77
4,2,2,-4,2,9,24,-55,-71,-4,-27,-83
4,2,2,-4,2,9,24,-61,-77,-9,-27,-83
4,14,14,-10,-4,14,18,-67,-83,-15,-27,-83
4,20,20,-10,-4,14,18,-67,-83,-15,-27,-83
4,32,32,-16,-10,26,12,-73,-89,-21,-27,-83
4,38,38,-22,-16,32,12,-73,-89,-21,-27,-83
4,32,32,-16,-10,26,12,-79,-89,-27,-33,-83
4,26,26,-16,-10,20,12,-79,-89,-27,-33,-83
4,20,20,-10,-4,14,12,-85,-89,-33,-39,-83
4,14,14,-10,-4,14,12,-85,-89,-33,-39,-83
-2,14,20,-4,-10,14,12,-91,-95,-39,-45,-83
-2,14,20,-4,-10,14,12,-91,-101,-39,-45,-83
-8,14,26,-4,-16,14,12,-97,-107,-45,-51,-83
-8,14,26,-4,-16,14,12,-97,-113,-45,-51,-83
-2,20,26,-10,-10,20,6,-103,-113,-39,-51,-83
-2,26,32,-10,-16,26,6,-103,-113,-39,-51,-83
4,32,32,-16,-10,26,0,-109,-113,-33,-51,-83
4,38,38,-22,-16,32,0,-109,-113,-33,-51,-83
-2,32,38,-16,-16,32,6,-109,-113,-39,-51,-83
-2,32,38,-16,-16,32,6,-109,-113,-39,-51,-83
-8,26,38,-10,-22,26,12,-109,-113,-45,-51,-83
-8,26,38,-10,-22,26,12,-109,-113,-45,-51,-83
-8,20,32,-4,-16,20,12,-109,-119,-45,-51,-83
-8,14,26,-4,-16,14,12,-109,-119,-45,-51,-83
-8,8,20,2,-10,14,12,-109,-125,-45,-51,-83
-8,2,14,2,-10,14,12,-109,-125,-45,-51,-83
-2,8,14,-4,-4,14,6,-115,-131,-51,-57,-83
-2,14,20,-4,-10,14,6,-115,-131,-51,-57,-83
4,20,20,-10,-4,14,0,-121,-137,-57,-63,-83
4,26,26,-16,-10,20,0,-121,-137,-57,-63,-83
-2,26,32,-10,-16,26,-6,-127,-137,-63,-63,-89
-2,26,32,-10,-16,26,-6,-127,-137,-63,-63,-89
-8,26,38,-10,-22,26,-12,-133,-137,-69,-63,-95
-8,26,38,-10,-22,26,-12,-133,-137,-69,-63,-95
-8,14,26,-4,-16,14,-6,-127,-137,-63,-63,-95
-8,2,14,2,-10,14,-6,-127,-137,-57,-63,-95
-8,-10,2,8,-4,3,0,-121,-137,-51,-63,-95
-8,-16,-10,14,2,-9,0,-121,-137,-45,-63,-95
-8,-10,2,8,-4,3,-6,-127,-143,-51,-69,-95
-8,2,14,2,-10,14,-6,-127,-143,-51,-69,-95
-8,14,26,-4,-16,14,-12,-133,-149,-57,-75,-95
-8,26,38,-10,-22,26,-12,-133,-149,-57,-75,-95
-8,32,43,-10,-22,32,-12,-139,-149,-63,-81,-101
-8,32,43,-10,-22,32,-12,-139,-149,-63,-81,-101
-8,38,43,-16,-28,38,-12,-145,-149,-69,-87,-107
-8,38,43,-16,-28,38,-12,-145,-149,-69,-87,-107
-8,32,43,-10,-22,32,-6,-139,-155,-69,-87,-101
-8,26,38,-10,-22,26,-6,-139,-155,-69,-87,-101
-8,20,32,-4,-16,20,0,-133,-161,-69,-87,-95
-8,14,26,-4,-16,14,0,-133,-161,-69,-87,-95
-2,20,26,-10,-10,20,-6,-139,-161,-75,-87,-95
-2,20,26,-10,-10,20,-6,-139,-161,-75,-87,-95
4,26,26,-16,-10,20,-12,-145,-161,-81,-87,-95
4,26,26,-16,-10,20,-12,-145,-161,-81,-87,-95
4,32,32,-16,-10,26,-18,-145,-161,-81,-87,-95
4,32,32,-16,-10,26,-18,-145,-161,-81,-87,-95
4,38,38,-22,-16,32,-18,-145,-161,-81,-87,-95
4,38,38,-22,-16,32,-18,-145,-161,-81,-87,-95
-2,32,38,-16,-16,32,-18,-145,-161,-81,-87,-95
-2,26,32,-10,-16,26,-18,-145,-161,-81,-87,-95
-8,20,32,-4,-16,20,-12,-145,-161,-81,-87,-95
-8,14,26,-4,-16,14,-12,-145,-161,-81,-87,-95
-8,20,32,-4,-16,20,-12,-151,-161,-81,-87,-95
-8,20,32,-4,-16,20,-12,-151,-161,-81,-87,-95
-8,26,38,-10,-22,26,-12,-157,-161,-81,-87,-95
-8,26,38,-10,-22,26,-12,-157,-161,-81,-87,-95
-8,32,43,-10,-22,32,-18,-163,-167,-87,-93,-95
-8,38,43,-16,-28,38,-18,-163,-167,-87,-93,-95
-8,44,43,-16,-28,44,-18,-169,-173,-93,-99,-95
-8,50,49,-22,-34,50,-18,-169,-173,-93,-99,-95
-8,44,43,-16,-28,44,-18,-163,-167,-87,-93,-89
-8,38,43,-16,-28,38,-18,-163,-167,-87,-93,-89
-8,32,43,-10,-22,32,-12,-157,-161,-81,-87,-83
-8,26,38,-10,-22,26,-12,-157,-161,-81,-87,-83
-2,20,26,-10,-10,20,-12,-151,-155,-75,-81,-77
-2,14,20,-4,-10,14,-12,-151,-155,-75,-81,-71
4,8,8,-4,2,14,-12,-145,-149,-69,-75,-65
4,2,2,-4,2,9,-12,-145,-149,-69,-75,-59
-2,8,14,-4,-4,14,-12,-151,-155,-75,-81,-65
-8,14,26,-4,-16,14,-12,-151,-155,-81,-87,-71
-14,20,38,-4,-22,26,-12,-157,-161,-87,-93,-77
-20,26,43,-4,-34,32,-12,-157,-161,-93,-99,-83
-20,26,43,-4,-34,32,-18,-163,-167,-93,-99,-77
-20,26,43,-4,-34,32,-18,-163,-167,-93,-99,-77
-20,26,43,-4,-34,32,-18,-169,-173,-93,-99,-71
-20,26,43,-4,-34,32,-18,-169,-173,-93,-99,-71
-14,26,43,-4,-28,32,-18,-163,-167,-93,-93,-65
-14,26,43,-4,-28,32,-18,-163,-167,-93,-93,-65
-8,26,38,-10,-22,26,-18,-157,-161,-93,-87,-59
-8,26,38,-10,-22,26,-18,-157,-161,-93,-87,-59
-14,26,43,-4,-28,32,-18,-163,-167,-99,-93,-59
-14,26,43,-4,-28,32,-18,-163,-167,-99,-93,-59
-20,26,43,-4,-34,32,-18,-169,-173,-105,-99,-59
-20,26,43,-4,-34,32,-18,-169,-173,-105,-99,-59
-14,32,43,-10,-28,38,-18,-163,-173,-105,-99,-59
-14,32,43,-10,-28,38,-18,-163,-173,-105,-99,-59
-8,38,43,-16,-28,38,-18,-157,-173,-105,-99,-59
-8,38,43,-16,-28,38,-18,-157,-173,-105,-99,-59
-2,32,38,-16,-16,32,-18,-157,-167,-99,-93,-53
-2,32,38,-16,-16,32,-18,-157,-167,-99,-93,-53
4,26,26,-16,-10,20,-18,-157,-161,-93,-87,-47
4,26,26,-16,-10,20,-18,-157,-161,-93,-87,-47
4,32,32,-16,-10,26,-18,-163,-167,-99,-93,-47
4,38,38,-22,-16,32,-18,-163,-167,-99,-93,-47
4,44,43,-22,-16,38,-23,-169,-173,-105,-99,-47
4,50,43,-28,-22,44,-23,-169,-173,-105,-99,-47
-2,44,43,-22,-22,44,-23,-169,-173,-105,-99,-47
-8,44,43,-16,-28,44,-23,-169,-173,-105,-99,-47
-14,38,43,-10,-34,44,-23,-169,-173,-105,-99,-47
-20,38,49,-10,-40,44,-23,-169,-173,-105,-99,-47
-14,38,43,-10,-34,44,-23,-169,-173,-105,-105,-47
-14,38,43,-10,-34,44,-23,-169,-173,-105,-105,-47
-8,38,43,-16,-28,38,-23,-169,-173,-105,-111,-47
-8,38,43,-16,-28,38,-23,-169,-173,-105,-111,-47
-8,44,43,-16,-28,44,-29,-169,-173,-111,-111,-47
-8,44,43,-16,-28,44,-29,-169,-173,-111,-111,-47
-8,50,49,-22,-34,50,-35,-169,-173,-117,-111,-47
-8,50,49,-22,-34,50,-35,-169,-173,-117,-111,-47
-8,56,55,-22,-34,56,-35,-175,-179,-117,-111,-47
-8,62,61,-28,-40,62,-35,-175,-185,-117,-111,-47
-8,68,67,-28,-40,68,-35,-181,-191,-117,-111,-47
-8,74,73,-34,-46,74,-35,-181,-197,-117,-111,-47
-14,62,67,-22,-46,68,-35,-175,-191,-111,-105,-41
-14,50,55,-16,-40,56,-35,-175,-191,-111,-105,-35
-20,38,49,-10,-40,44,-35,-169,-185,-105,-99,-29
-20,26,43,-4,-34,32,-35,-169,-185,-105,-99,-23
-20,20,43,2,-28,26,-29,-163,-179,-111,-99,-23
-20,20,43,2,-28,26,-29,-163,-179,-111,-99,-23
-20,14,38,2,-28,20,-23,-157,-173,-117,-99,-23
-20,14,38,2,-28,20,-23,-157,-173,-117,-99,-23
-14,32,43,-10,-28,38,-23,-163,-173,-117,-99,-23
-14,32,43,-10,-28,38,-23,-163,-173,-117,-105,-23
-8,26,38,-10,-22,26,-23,-157,-167,-117,-105,-17
-8,26,38,-10,-22,26,-23,-157,-167,-117,-99,-17
-8,38,43,-16,-28,38,-23,-157,-167,-111,-99,-11
-8,38,43,-16,-28,38,-29,-157,-167,-117,-105,-23
-8,50,49,-22,-34,50,-35,-163,-161,-111,-105,-17
-2,50,43,-22,-28,50,-35,-163,-167,-111,-105,-17
-2,26,32,-10,-16,26,-23,-163,-161,-111,-93,-17
-2,38,43,-16,-22,38,-23,-163,-161,-111,-93,-17
-2,44,43,-22,-22,44,-18,-163,-155,-111,-93,-17
-2,44,43,-22,-22,44,-18,-163,-155,-111,-93,-17
-2,32,38,-16,-16,32,-18,-163,-155,-105,-87,-17
-2,32,38,-16,-16,32,-18,-163,-155,-105,-87,-17
-8,38,43,-16,-28,38,-23,-163,-161,-105,-87,-17
-8,38,43,-16,-28,38,-23,-163,-161,-105,-87,-17
-8,38,43,-16,-28,38,-23,-157,-155,-99,-87,-11
-8,38,43,-16,-28,38,-18,-151,-155,-99,-81,-11
-2,50,43,-22,-28,50,-18,-145,-143,-99,-75,1
-2,56,49,-28,-28,56,-18,-139,-143,-93,-75,1
-2,74,67,-34,-40,74,-18,-139,-137,-99,-81,-5
4,86,73,-46,-40,80,-18,-139,-137,-99,-75,-5
10,98,79,-52,-40,92,-18,-139,-131,-105,-81,-11
10,98,79,-52,-40,92,-12,-139,-125,-93,-81,-11
10,98,79,-52,-40,92,-12,-139,-125,-87,-69,1
10,98,79,-52,-40,92,0,-133,-125,-87,-69,1
10,92,73,-52,-34,86,0,-133,-119,-81,-57,13
16,92,67,-52,-28,80,0,-133,-119,-81,-57,19
10,92,73,-52,-34,86,6,-139,-119,-87,-63,13
10,98,79,-52,-40,92,0,-145,-143,-99,-69,1
4,98,85,-52,-46,92,-6,-151,-143,-105,-93,-11
16,104,79,-58,-34,92,-12,-151,-137,-105,-93,-11
22,98,67,-58,-28,86,-18,-139,-125,-105,-81,-5
28,92,55,-58,-16,74,-18,-127,-107,-81,-69,13
40,92,43,-64,-4,68,-18,-115,-95,-69,-63,25
40,86,43,-64,-4,62,-18,-97,-77,-63,-57,25
40,92,43,-64,-4,68,-29,-91,-77,-57,-45,30
46,110,55,-76,-10,86,-23,-91,-65,-51,-39,30
52,134,73,-94,-16,104,-29,-85,-65,-51,-33,30
58,134,67,-94,-10,104,-35,-73,-65,-39,-33,30
58,110,43,-82,2,80,-41,-91,-77,-45,-39,30
58,110,43,-82,2,80,-41,-109,-83,-57,-45,30
52,104,43,-76,2,74,-35,-115,-101,-57,-51,30
40,98,49,-70,-10,74,-35,-127,-107,-63,-57,30
40,110,61,-76,-16,86,-35,-145,-125,-75,-69,25
40,122,73,-82,-22,98,-35,-151,-131,-75,-69,25
46,134,79,-88,-22,110,-53,-163,-143,-87,-75,19
46,134,79,-88,-22,110,-59,-169,-149,-93,-75,19
46,122,67,-82,-16,98,-71,-181,-161,-99,-75,19
52,110,49,-82,-4,80,-71,-181,-161,-99,-75,19
52,92,43,-70,8,62,-71,-169,-161,-87,-69,19
52,80,32,-64,14,50,-65,-169,-155,-87,-69,19
40,68,32,-52,8,44,-59,-163,-149,-93,-75,13
34,62,32,-46,2,44,-59,-163,-149,-99,-81,13
28,68,43,-46,-4,50,-59,-175,-155,-99,-87,13
10,56,43,-34,-16,50,-59,-193,-173,-123,-105,-5
10,38,32,-22,-10,32,-65,-205,-185,-135,-117,-11
-8,20,32,-4,-16,20,-65,-211,-191,-135,-117,-11
-14,26,43,-4,-28,32,-71,-223,-203,-141,-123,-23
-20,26,43,-4,-34,32,-77,-223,-203,-147,-129,-23
-26,20,43,2,-34,32,-71,-223,-203,-147,-129,-17
-26,20,43,2,-34,32,-71,-223,-203,-147,-123,-17
-32,20,43,8,-40,32,-71,-223,-209,-147,-123,-11
-32,20,43,8,-40,32,-71,-235,-209,-153,-135,-11
-26,14,43,8,-34,26,-77,-235,-209,-153,-135,-11
-32,14,43,8,-40,26,-77,-229,-209,-153,-129,-11
-32,8,43,14,-34,20,-83,-229,-209,-153,-129,-11
-32,8,43,14,-34,20,-77,-223,-209,-147,-129,-11
-32,14,43,8,-40,26,-71,-223,-203,-147,-123,-5
-26,14,43,8,-34,26,-71,-223,-203,-147,-123,-5
-32,14,43,8,-40,26,-65,-217,-203,-147,-111,-17
-32,20,43,8,-40,32,-65,-217,-203,-141,-111,-5
-26,26,43,2,-40,38,-71,-217,-209,-147,-117,-5
-32,32,55,2,-46,44,-71,-211,-203,-147,-117,-5
-26,26,43,2,-40,38,-77,-211,-203,-147,-123,-5
-26,32,49,-4,-40,44,-71,-211,-203,-147,-123,-5
-26,26,43,2,-40,38,-71,-211,-191,-135,-117,-5
-32,2,38,14,-34,14,-59,-205,-191,-147,-117,7
-44,2,43,20,-46,20,-47,-193,-179,-135,-111,7
-44,20,55,14,-52,38,-29,-175,-161,-135,-111,7
-44,14,49,14,-52,32,-18,-151,-161,-135,-123,-5
-62,20,73,20,-57,50,0,-133,-167,-147,-135,-35
-62,14,67,26,-57,44,48,-73,-149,-177,-165,-53
-50,2,43,26,-52,26,126,10,-119,-171,-171,-59
-50,8,49,20,-52,32,198,106,-89,-171,-171,-59
-56,44,91,8,-63,68,270,196,-47,-153,-165,-65
-32,92,115,-28,-63,104,330,334,18,-123,-135,-41
58,110,43,-82,2,80,378,544,174,-21,-63,13
136,110,-22,-124,80,38,414,796,366,98,38,96
220,224,2,-220,116,110,426,1036,576,254,164,192
310,416,97,-364,104,254,402,1204,774,446,320,324
406,566,157,-484,122,362,378,1300,978,692,524,498
520,746,223,-634,152,488,282,1288,1182,968,776,708
658,998,337,-826,158,674,90,1030,1272,1214,1016,936
748,1262,511,-1006,122,890,-149,544,1260,1454,1268,1158
802,1478,673,-1144,62,1076,-419,70,1242,1724,1550,1398
832,1646,805,-1234,8,1232,-701,-217,1368,2030,1832,1644
814,1682,859,-1246,-28,1268,-923,-349,1566,2299,2024,1770
712,1604,883,-1162,-75,1244,-959,-451,1752,2424,2053,1746
574,1412,829,-988,-123,1124,-857,-601,1770,2329,1910,1590
430,1154,715,-790,-135,938,-797,-793,1596,2036,1604,1344
292,872,571,-580,-135,728,-857,-979,1308,1646,1238,1056
154,686,529,-418,-183,608,-917,-1141,1026,1280,902,774
-8,536,535,-262,-267,536,-893,-1243,714,902,572,516
-109,410,523,-148,-309,464,-803,-1225,426,566,308,306
-187,302,493,-52,-333,398,-779,-1195,126,308,134,168
-229,224,451,8,-333,332,-809,-1243,-239,44,-15,48
-253,116,367,61,-303,242,-773,-1231,-551,-201,-159,-29
-235,50,283,85,-261,170,-683,-1111,-641,-303,-219,-53
-193,44,241,67,-213,140,-617,-937,-563,-279,-201,-41
-133,68,205,37,-165,134,-533,-727,-407,-207,-159,-29
-79,98,181,-4,-129,140,-425,-529,-251,-123,-111,13
-56,140,187,-40,-111,164,-359,-367,-143,-57,-63,36
-26,152,169,-64,-87,164,-281,-229,-29,-4,-21,66
4,116,103,-58,-52,110,-197,-85,54,26,-10,84
4,86,73,-46,-40,80,-113,-13,78,26,-10,84
-20,98,109,-40,-57,104,-71,-2,54,8,-10,72
-2,98,91,-46,-52,98,-59,10,36,-4,-15,60
-8,98,97,-46,-52,98,-59,10,18,-9,-27,42
-8,92,91,-40,-52,92,-71,-2,18,-15,-27,30
-8,92,91,-40,-52,92,-71,-8,0,-21,-33,30
-8,86,85,-40,-52,86,-71,-8,0,-27,-33,30
-14,74,79,-28,-52,80,-71,-8,-5,-39,-39,30
-14,56,61,-22,-40,62,-65,-8,-11,-45,-51,30
-20,50,61,-16,-46,56,-59,-2,-11,-51,-57,30
-20,44,55,-10,-40,50,-35,16,-5,-51,-57,30
-14,50,55,-16,-40,56,-29,28,-11,-69,-63,30
-14,56,61,-22,-40,62,-29,40,-11,-69,-63,30
-2,68,61,-34,-34,68,-35,40,-17,-69,-75,25
4,80,67,-40,-34,74,-41,40,-17,-69,-75,25
4,74,61,-40,-34,68,-35,52,0,-63,-63,25
-2,68,61,-34,-34,68,-41,52,0,-57,-63,30
-2,62,55,-28,-34,62,-35,58,6,-51,-51,30
4,50,43,-28,-22,44,-29,76,12,-39,-45,30
4,56,43,-28,-22,50,-23,82,12,-33,-45,30
4,56,43,-28,-22,50,-18,88,12,-33,-45,36
16,68,43,-40,-16,56,-18,100,24,-27,-45,42
22,74,43,-46,-16,62,-18,112,30,-15,-39,42
22,74,43,-46,-16,62,-18,112,36,-15,-39,36
22,74,43,-46,-16,62,-18,118,42,-15,-33,42
22,80,49,-52,-16,68,-18,118,36,-21,-27,36
28,80,43,-52,-10,62,-18,124,48,-15,-27,36
28,74,43,-52,-10,56,-18,130,54,-9,-27,42
28,74,43,-52,-10,56,-18,136,60,-4,-21,42
34,80,43,-58,-4,62,-18,142,72,2,-15,48
34,80,43,-58,-4,62,-18,160,72,8,-10,48
40,86,43,-64,-4,62,-18,172,84,8,-10,54
40,92,43,-64,-4,68,-18,178,90,14,-10,54
52,104,43,-76,2,74,-18,184,96,14,-10,48
58,116,49,-88,2,86,-18,190,108,20,-10,60
52,110,49,-82,-4,80,-18,202,126,26,-4,66
46,110,55,-76,-10,86,-18,214,126,32,2,66
46,104,49,-76,-4,80,-18,232,144,38,8,66
40,110,61,-76,-16,86,-18,232,150,44,8,66
52,110,49,-82,-4,80,-12,250,156,56,26,84
52,116,55,-82,-4,86,-12,250,168,56,26,90
64,110,43,-88,8,74,-6,268,180,68,32,96
64,98,38,-82,14,62,0,280,198,80,44,114
76,110,38,-94,20,68,-6,292,204,86,44,114
76,122,43,-100,14,80,-6,310,204,86,44,114
88,140,43,-112,20,92,-12,310,204,86,44,108
94,170,67,-130,8,122,-18,316,216,86,44,108
94,182,79,-136,2,134,-18,316,222,98,56,114
94,170,67,-130,8,122,-18,346,240,110,62,126
88,170,73,-130,2,122,-12,364,246,128,80,132
94,170,67,-130,8,122,-12,370,264,140,86,138
100,164,55,-130,20,110,-6,394,282,152,86,150
100,164,55,-130,20,110,-6,412,294,152,98,156
94,176,73,-136,8,128,0,430,312,164,98,168
112,176,55,-142,26,116,0,448,324,182,104,174
118,188,61,-154,26,128,0,466,348,194,116,180
118,188,61,-154,26,128,0,478,348,194,128,186
130,200,61,-166,32,134,6,496,366,206,140,192
142,200,49,-172,44,128,6,520,384,224,152,204
148,194,43,-172,50,116,0,538,396,230,152,204
148,212,55,-178,44,134,0,556,408,236,164,210
154,212,49,-184,50,134,-6,574,426,236,170,210
160,224,55,-190,50,140,-6,592,444,242,170,222
166,224,49,-196,56,140,0,616,456,254,188,234
172,224,43,-196,62,134,0,628,468,272,194,240
172,224,43,-196,62,134,6,646,480,284,206,258
178,224,43,-202,68,134,6,664,486,290,212,264
178,224,43,-202,62,140,0,670,492,296,212,258
184,236,43,-208,68,146,0,694,510,308,224,264
184,260,67,-220,56,170,-6,700,516,308,230,264
184,272,79,-226,50,182,-6,712,522,314,230,270
196,284,79,-238,56,188,-12,724,528,320,242,270
196,278,73,-238,62,182,-12,742,546,332,248,288
208,272,55,-238,74,170,-12,766,558,338,266,300
208,272,55,-238,74,170,-12,772,576,344,266,306
220,278,49,-250,86,170,-18,772,570,350,260,306
226,284,49,-256,86,170,-18,772,570,350,266,312
232,302,61,-268,86,188,-29,766,564,350,266,312
232,302,61,-268,86,188,-29,760,564,350,266,312
232,308,67,-268,80,194,-35,766,558,344,260,312
232,308,67,-268,80,194,-35,772,558,350,260,318
226,314,79,-268,74,200,-41,772,546,344,260,312
226,314,79,-268,74,200,-41,772,540,338,260,312
226,302,67,-262,80,188,-35,778,540,344,266,318
226,296,61,-262,80,182,-41,772,540,344,266,318
226,290,55,-256,86,176,-35,766,534,344,266,318
226,302,67,-262,80,188,-41,766,528,338,266,312
226,296,61,-262,80,182,-47,754,516,326,260,318
226,296,61,-262,80,182,-53,742,504,320,254,306
220,290,61,-256,80,182,-53,736,492,308,248,312
214,278,55,-244,80,170,-53,736,486,308,248,312
220,284,55,-250,80,176,-59,724,486,308,254,312
220,290,61,-256,80,182,-59,718,474,302,242,312
220,296,67,-256,74,188,-65,706,462,308,248,312
214,284,61,-250,74,176,-65,682,456,296,242,306
202,290,79,-244,62,188,-77,664,444,290,236,300
196,290,85,-244,56,194,-77,640,426,272,230,282
190,284,85,-238,50,188,-77,616,420,266,230,282
190,284,85,-238,50,188,-77,598,402,254,224,276
184,278,85,-232,50,188,-77,568,384,260,224,270
178,260,79,-214,44,176,-77,556,366,242,218,270
172,260,85,-214,38,176,-77,520,348,242,206,264
166,254,85,-208,38,176,-77,490,330,236,200,258
148,242,91,-196,26,170,-77,466,306,224,182,240
148,236,85,-196,26,164,-71,436,288,212,170,234
142,230,85,-190,26,164,-65,406,264,194,164,234
124,236,109,-184,2,176,-59,376,246,182,146,216
118,224,97,-172,8,164,-59,340,234,170,140,210
106,212,97,-160,2,158,-59,316,216,146,128,198
100,200,91,-148,2,146,-59,280,186,140,116,186
100,194,85,-148,2,140,-59,262,174,128,104,180
88,194,97,-142,-10,146,-65,232,150,122,98,174
76,188,103,-130,-16,146,-65,208,132,98,80,162
64,170,97,-118,-22,134,-71,190,126,98,80,168
46,158,103,-100,-34,134,-59,166,108,92,74,162
46,152,97,-100,-28,128,-53,142,96,80,62,150
46,146,91,-94,-28,122,-53,118,78,62,50,138
46,152,97,-100,-28,128,-47,100,60,44,38,132
34,146,103,-88,-40,128,-41,76,42,38,26,120
28,134,97,-82,-40,116,-47,58,24,20,20,120
22,128,97,-76,-40,116,-47,40,6,8,8,102
10,122,103,-64,-52,116,-53,16,0,-4,8,102
10,104,85,-58,-40,98,-53,10,-5,-4,2,96
10,98,79,-52,-40,92,-47,-8,-11,-4,2,96
4,98,85,-52,-46,92,-47,-8,-17,-4,-10,90
-2,98,91,-46,-52,98,-35,-13,-17,-4,-10,84
-14,98,103,-40,-52,104,-35,-25,-17,-9,-10,78
-8,98,97,-46,-52,98,-35,-37,-29,-9,-10,78
-8,80,79,-34,-46,80,-35,-37,-35,-15,-10,78
-2,86,79,-40,-46,86,-29,-43,-41,-15,-10,84
-2,86,79,-40,-46,86,-29,-49,-47,-21,-10,84
-2,92,85,-46,-46,92,-35,-55,-59,-27,-21,84
-8,98,97,-46,-52,98,-41,-67,-65,-39,-21,78
-8,128,127,-58,-57,128,-47,-67,-77,-51,-33,72
-8,134,133,-64,-63,134,-47,-79,-77,-57,-33,66
-8,104,103,-46,-52,104,-41,-73,-71,-51,-33,72
-14,86,91,-34,-52,92,-41,-79,-71,-51,-39,78
-14,62,67,-22,-46,68,-35,-73,-65,-45,-39,84
-14,50,55,-16,-40,56,-35,-67,-65,-45,-33,84
-20,50,61,-16,-46,56,-29,-67,-71,-45,-33,84
-20,56,67,-16,-46,62,-29,-67,-71,-45,-33,84
-26,56,73,-16,-52,68,-29,-67,-71,-45,-33,84
-26,62,79,-16,-52,74,-29,-67,-71,-45,-33,84
-26,56,73,-16,-52,68,-29,-67,-65,-45,-33,78
-26,56,73,-16,-52,68,-29,-67,-71,-45,-33,78
-32,68,91,-16,-52,80,-29,-79,-77,-51,-33,72
-32,68,91,-16,-52,80,-29,-79,-83,-51,-33,72
-26,68,85,-22,-52,80,-29,-73,-83,-45,-33,72
-26,56,73,-16,-52,68,-29,-67,-83,-45,-33,72
-20,56,67,-16,-46,62,-41,-61,-77,-39,-33,72
-20,62,73,-22,-52,68,-41,-55,-77,-39,-33,72
-20,62,73,-22,-52,68,-35,-61,-71,-33,-33,72
-20,62,73,-22,-52,68,-35,-55,-65,-33,-33,72
-20,62,73,-22,-52,68,-23,-61,-59,-33,-27,78
-20,62,73,-22,-52,68,-23,-61,-59,-33,-21,78
-20,68,79,-22,-52,74,-29,-55,-53,-33,-21,66
-14,68,73,-28,-46,74,-29,-55,-53,-33,-21,66
-14,68,73,-28,-46,74,-35,-49,-59,-33,-21,66
-14,74,79,-28,-52,80,-35,-43,-59,-33,-27,66
-20,74,85,-28,-52,80,-35,-43,-53,-33,-27,66
-20,62,73,-22,-52,68,-29,-43,-53,-27,-27,66
-26,62,79,-16,-52,74,-23,-37,-47,-27,-27,66
-26,68,85,-22,-52,80,-23,-37,-47,-27,-27,66
-26,62,79,-16,-52,74,-23,-31,-41,-27,-27,66
-26,62,79,-16,-52,74,-23,-31,-41,-27,-27,66
-26,56,73,-16,-52,68,-18,-31,-29,-27,-21,78
-26,56,73,-16,-52,68,-18,-31,-29,-27,-21,78
-26,68,85,-22,-52,80,-18,-31,-41,-27,-21,72
-26,74,91,-22,-52,86,-18,-25,-41,-27,-21,72
-20,92,103,-34,-52,98,-18,-25,-47,-27,-21,66
-20,110,121,-46,-63,116,-18,-25,-47,-27,-21,60
-20,98,109,-40,-57,104,-23,-31,-41,-27,-27,66
-20,92,103,-34,-52,98,-18,-31,-41,-27,-27,66
-20,92,103,-34,-52,98,-23,-31,-47,-27,-27,72
-20,92,103,-34,-52,98,-23,-31,-53,-27,-27,72
-26,86,103,-28,-57,98,-18,-31,-53,-27,-27,72
-32,80,103,-22,-57,92,-18,-31,-41,-27,-27,72
-38,74,103,-16,-63,92,-18,-25,-41,-27,-27,72
-44,74,109,-16,-69,92,-18,-25,-59,-27,-27,66
-38,80,109,-22,-63,98,-23,-25,-59,-27,-33,60
-38,74,103,-16,-63,92,-23,-25,-59,-33,-33,60
-32,80,103,-22,-57,92,-23,-31,-59,-33,-39,54
-32,98,121,-34,-69,110,-23,-31,-71,-39,-39,54
-32,104,127,-34,-69,116,-29,-37,-77,-45,-51,48
-32,98,121,-34,-69,110,-29,-37,-65,-45,-51,48
-32,104,127,-34,-69,116,-29,-37,-83,-51,-45,48
-32,104,127,-34,-69,116,-23,-37,-89,-51,-45,48
-32,74,97,-22,-57,86,-18,-31,-83,-45,-39,54
-32,62,85,-16,-52,74,-18,-37,-83,-51,-39,60
-32,44,67,-4,-52,56,-18,-31,-77,-51,-39,66
-32,32,55,2,-46,44,-18,-37,-77,-51,-39,72
-32,44,67,-4,-52,56,-18,-43,-83,-51,-33,72
-32,50,73,-10,-52,62,-18,-55,-89,-51,-33,66
-32,50,73,-10,-52,62,-18,-61,-95,-51,-27,66
-32,50,73,-10,-52,62,-18,-61,-95,-51,-27,66
-38,56,85,-10,-52,74,-18,-67,-89,-51,-21,72
-20,80,91,-28,-52,86,-18,-67,-95,-57,-21,72
-14,86,91,-34,-52,92,-18,-67,-101,-69,-21,72
-8,74,73,-34,-46,74,-23,-67,-107,-69,-21,72
-14,68,73,-28,-46,74,-18,-73,-101,-57,-21,72
-20,62,73,-22,-52,68,-18,-73,-101,-57,-27,72
-26,56,73,-16,-52,68,-18,-73,-101,-57,-27,72
-38,50,79,-4,-52,68,-18,-73,-101,-57,-27,72
-32,50,73,-10,-52,62,-18,-79,-101,-63,-33,66
-32,50,73,-10,-52,62,-18,-85,-101,-63,-33,66
-26,56,73,-16,-52,68,-23,-91,-101,-75,-45,60
-26,56,73,-16,-52,68,-35,-97,-107,-81,-51,54
-32,68,91,-16,-52,80,-35,-109,-119,-87,-51,54
-32,74,97,-22,-57,86,-29,-109,-119,-87,-51,54
-38,74,103,-16,-63,92,-29,-103,-125,-93,-51,54
-38,80,109,-22,-63,98,-29,-103,-125,-99,-51,54
-32,74,97,-22,-57,86,-29,-103,-131,-93,-51,60
-38,62,91,-10,-57,80,-29,-103,-131,-93,-51,60
-32,50,73,-10,-52,62,-29,-103,-125,-87,-51,66
-32,44,67,-4,-52,56,-29,-109,-125,-87,-51,66
-32,56,79,-10,-52,68,-35,-121,-131,-87,-57,60
-32,62,85,-16,-52,74,-35,-121,-131,-93,-57,54
-32,68,91,-16,-52,80,-41,-127,-143,-93,-57,42
-32,56,79,-10,-52,68,-41,-127,-149,-93,-57,36
-38,50,79,-4,-52,68,-41,-121,-149,-93,-57,42
-38,50,79,-4,-52,68,-41,-121,-149,-99,-57,36
-44,50,85,-4,-57,68,-41,-115,-155,-99,-63,42
-44,50,85,-4,-57,68,-41,-115,-155,-99,-63,42
-38,50,79,-4,-52,68,-47,-121,-155,-105,-69,42
-38,50,79,-4,-52,68,-47,-121,-155,-105,-69,42
-32,56,79,-10,-52,68,-53,-127,-155,-111,-75,36
-32,62,85,-16,-52,74,-53,-127,-155,-111,-75,36
-38,62,91,-10,-57,80,-53,-127,-161,-105,-69,30
-38,56,85,-10,-52,74,-53,-127,-161,-111,-69,30
-44,44,79,2,-52,62,-41,-121,-155,-105,-63,30
-44,38,73,2,-52,56,-41,-121,-155,-99,-63,30
-38,56,85,-10,-52,74,-41,-127,-167,-105,-63,36
-38,74,103,-16,-63,92,-47,-139,-167,-111,-75,30
-32,86,109,-28,-63,98,-47,-157,-173,-117,-75,30
-32,86,109,-28,-63,98,-47,-145,-167,-117,-69,36
-32,68,91,-16,-52,80,-41,-139,-161,-105,-63,42
-32,56,79,-10,-52,68,-35,-139,-161,-105,-57,42
-44,32,67,8,-52,50,-29,-133,-155,-105,-51,48
-44,20,55,14,-52,38,-23,-121,-155,-105,-45,48
-38,32,61,2,-52,50,-29,-121,-155,-105,-45,42
-44,38,73,2,-52,56,-35,-133,-161,-111,-45,36
-38,44,73,-4,-52,62,-41,-133,-161,-111,-45,30
-38,50,79,-4,-52,68,-47,-133,-167,-111,-45,30
-38,56,85,-10,-52,74,-53,-133,-167,-111,-51,30
-38,50,79,-4,-52,68,-53,-139,-167,-111,-51,30
-38,56,85,-10,-52,74,-53,-139,-167,-111,-57,30
-32,56,79,-10,-52,68,-53,-139,-161,-111,-57,30
-38,44,73,-4,-52,62,-47,-139,-161,-117,-51,30
-38,44,73,-4,-52,62,-47,-145,-167,-117,-57,30
-44,56,91,-4,-57,74,-41,-145,-173,-123,-51,19
-56,56,103,2,-69,80,-41,-145,-173,-123,-51,19
-44,44,79,2,-52,62,-41,-145,-173,-117,-45,25
-44,44,79,2,-52,62,-41,-145,-173,-117,-45,25
-50,38,79,8,-57,62,-41,-139,-173,-111,-39,30
-50,32,73,8,-52,56,-41,-139,-173,-111,-39,30
-44,32,67,8,-52,50,-41,-139,-173,-111,-45,30
-44,38,73,2,-52,56,-47,-151,-179,-117,-45,25
-44,44,79,2,-52,62,-47,-151,-179,-117,-57,19
-44,44,79,2,-52,62,-47,-151,-173,-117,-57,19
-44,38,73,2,-52,56,-41,-151,-179,-117,-51,25
-50,32,73,8,-52,56,-41,-151,-179,-117,-51,25
-50,32,73,8,-52,56,-41,-151,-185,-117,-51,30
-50,38,79,8,-57,62,-41,-151,-185,-117,-51,30
-50,44,85,2,-57,68,-41,-151,-185,-111,-51,25
-50,44,85,2,-57,68,-41,-151,-185,-111,-51,25
-50,56,97,-4,-63,80,-47,-151,-191,-117,-51,19
-50,56,97,-4,-63,80,-47,-151,-191,-117,-57,19
-44,44,79,2,-52,62,-41,-151,-185,-117,-57,30
-44,38,73,2,-52,56,-41,-151,-185,-117,-57,30
-38,32,61,2,-52,50,-41,-151,-179,-117,-57,30
-38,32,61,2,-52,50,-47,-151,-179,-117,-57,30
-44,32,67,8,-52,50,-47,-151,-185,-123,-63,25
-44,20,55,14,-52,38,-47,-151,-185,-123,-63,25
-50,20,61,14,-52,44,-41,-151,-197,-129,-69,19
-50,38,79,8,-57,62,-41,-151,-197,-129,-69,19
-50,50,91,2,-63,74,-47,-169,-197,-129,-75,19
-50,56,97,-4,-63,80,-53,-169,-197,-129,-75,25
-50,56,97,-4,-63,80,-59,-175,-197,-129,-75,19
-50,56,97,-4,-63,80,-53,-169,-197,-129,-69,13
-44,44,79,2,-52,62,-47,-163,-185,-123,-63,19
-44,38,73,2,-52,56,-47,-163,-185,-123,-63,19
-38,32,61,2,-52,50,-41,-157,-179,-117,-63,25
-44,26,61,8,-52,44,-47,-163,-185,-117,-63,25
-50,32,73,8,-52,56,-47,-157,-191,-117,-63,25
-44,32,67,8,-52,50,-47,-157,-191,-123,-63,25
-50,32,73,8,-52,56,-47,-151,-185,-123,-63,19
-50,32,73,8,-52,56,-41,-151,-185,-117,-57,25
-50,38,79,8,-57,62,-47,-151,-191,-123,-57,25
-50,38,79,8,-57,62,-47,-151,-191,-123,-57,19
-50,50,91,2,-63,74,-53,-157,-197,-129,-57,19
-50,50,91,2,-63,74,-59,-157,-203,-129,-57,13
-50,32,73,8,-52,56,-53,-151,-197,-129,-57,19
-50,32,73,8,-52,56,-53,-151,-197,-129,-57,19
-44,32,67,8,-52,50,-41,-151,-191,-129,-51,25
-44,44,79,2,-52,62,-41,-163,-197,-141,-57,19
-44,50,85,-4,-57,68,-47,-169,-191,-141,-63,19
-44,44,79,2,-52,62,-47,-169,-197,-141,-63,19
-44,44,79,2,-52,62,-47,-169,-191,-135,-69,30
-44,44,79,2,-52,62,-47,-169,-185,-135,-63,30
-44,50,85,-4,-57,68,-47,-169,-191,-135,-63,30
-44,50,85,-4,-57,68,-47,-169,-197,-147,-69,19
-44,50,85,-4,-57,68,-47,-163,-197,-135,-69,19
-38,50,79,-4,-52,68,-47,-163,-203,-135,-63,19
-38,50,79,-4,-52,68,-47,-169,-215,-135,-69,19
-38,50,79,-4,-52,68,-47,-169,-215,-135,-69,13
-38,68,97,-16,-57,86,-53,-175,-215,-135,-75,7
-38,68,97,-16,-57,86,-53,-175,-209,-135,-75,7
-44,38,73,2,-52,56,-47,-169,-203,-129,-75,13
-44,32,67,8,-52,50,-47,-163,-203,-129,-69,19
-50,38,79,8,-57,62,-47,-157,-191,-129,-69,19
-50,32,73,8,-52,56,-47,-157,-185,-129,-69,25
-50,32,73,8,-52,56,-53,-163,-191,-135,-69,25
-50,38,79,8,-57,62,-53,-163,-197,-129,-69,25
-56,38,85,8,-63,62,-53,-169,-203,-135,-69,25
-56,32,79,14,-57,56,-53,-169,-203,-141,-69,25
-56,32,79,14,-57,56,-53,-175,-203,-147,-75,25
-50,32,73,8,-52,56,-53,-175,-203,-147,-75,25
-50,32,73,8,-52,56,-53,-181,-203,-153,-81,25
-50,44,85,2,-57,68,-59,-181,-209,-153,-81,19
-50,26,67,14,-52,50,-47,-157,-185,-129,-45,30
-62,14,67,26,-57,44,-53,-157,-197,-129,-69,25
-56,20,67,20,-52,44,-53,-169,-197,-141,-75,19
-56,38,85,8,-63,62,-59,-169,-197,-141,-75,25
-56,32,79,14,-57,56,-53,-169,-203,-135,-75,25
-56,32,79,14,-57,56,-53,-169,-203,-135,-75,25
-56,26,73,14,-57,50,-47,-169,-209,-129,-75,25
-56,26,73,14,-57,50,-47,-169,-209,-129,-75,25
-50,44,85,2,-57,68,-53,-175,-209,-129,-69,25
-50,50,91,2,-63,74,-53,-175,-209,-129,-75,25
-44,44,79,2,-52,62,-59,-169,-203,-129,-69,30
-44,50,85,-4,-57,68,-59,-169,-203,-129,-63,30
-50,50,91,2,-63,74,-59,-169,-209,-129,-69,30
-50,50,91,2,-63,74,-65,-169,-209,-135,-75,19
-56,50,97,2,-69,74,-71,-175,-209,-135,-81,19
-50,50,91,2,-63,74,-71,-175,-215,-135,-81,19
-50,26,67,14,-52,50,-59,-169,-215,-135,-69,19
-50,32,73,8,-52,56,-59,-169,-215,-135,-69,19
-50,38,79,8,-57,62,-53,-163,-215,-135,-69,19
-50,32,73,8,-52,56,-53,-163,-215,-135,-69,19
-50,20,61,14,-52,44,-47,-169,-209,-129,-63,25
-50,20,61,14,-52,44,-47,-169,-209,-129,-63,25
-56,26,73,14,-57,50,-47,-175,-209,-129,-63,30
-56,26,73,14,-57,50,-47,-175,-209,-129,-63,30
-56,26,73,14,-57,50,-53,-169,-203,-129,-69,30
-56,26,73,14,-57,50,-41,-163,-203,-129,-63,30
-50,38,79,8,-57,62,-41,-157,-191,-135,-63,30
-50,44,85,2,-57,68,-41,-151,-191,-129,-63,30
-50,62,103,-4,-69,86,-41,-151,-191,-123,-57,30
-44,74,109,-16,-69,92,-41,-151,-191,-123,-51,30
-38,86,115,-22,-69,104,-41,-151,-191,-117,-45,30
-38,86,115,-22,-69,104,-35,-151,-185,-105,-45,30
-38,92,121,-28,-69,110,-29,-151,-191,-105,-39,36
-38,92,121,-28,-69,110,-18,-145,-191,-105,-39,36
-38,92,121,-28,-69,110,-18,-145,-191,-105,-33,48
-32,92,115,-28,-63,104,-18,-145,-191,-105,-33,54
-32,92,115,-28,-63,104,-18,-151,-185,-111,-33,48
-32,92,115,-28,-63,104,-18,-157,-209,-123,-39,36
-32,92,115,-28,-63,104,-29,-163,-203,-129,-57,30
-20,92,103,-34,-52,98,-35,-163,-197,-129,-57,30
-8,80,79,-34,-46,80,-41,-145,-191,-123,-45,30
-2,74,67,-34,-40,74,-35,-133,-173,-99,-33,48
16,68,43,-40,-16,56,-35,-115,-167,-81,-27,60
16,62,43,-40,-16,50,-35,-97,-149,-75,-21,60
10,68,49,-40,-22,62,-53,-91,-149,-75,-10,66
10,86,67,-46,-34,80,-47,-91,-137,-69,-10,72
10,110,91,-58,-46,104,-53,-85,-137,-75,-10,72
10,110,91,-58,-46,104,-59,-73,-137,-63,-10,72
10,86,67,-46,-34,80,-65,-91,-143,-75,-10,72
10,86,67,-46,-34,80,-65,-109,-149,-87,-10,66
4,80,67,-40,-34,74,-59,-115,-161,-93,-15,60
-8,74,73,-34,-46,74,-59,-127,-167,-99,-21,60
-14,74,79,-28,-52,80,-53,-145,-185,-99,-27,54
-14,74,79,-28,-52,80,-53,-151,-191,-99,-27,54
-14,74,79,-28,-52,80,-65,-163,-203,-99,-27,54
-14,62,67,-22,-46,68,-71,-169,-209,-105,-27,54
-2,74,67,-34,-40,74,-89,-187,-215,-117,-39,48
10,74,55,-40,-28,68,-95,-187,-215,-117,-39,48
22,80,49,-52,-16,68,-101,-181,-209,-111,-45,42
28,80,43,-52,-10,62,-101,-181,-203,-111,-45,42
10,62,43,-34,-22,56,-95,-181,-209,-123,-45,30
-2,56,49,-28,-28,56,-95,-181,-209,-129,-51,30
-14,56,61,-22,-40,62,-95,-199,-227,-135,-51,30
-38,44,73,-4,-52,62,-95,-217,-239,-159,-69,19
-32,14,43,8,-40,26,-95,-223,-245,-165,-81,19
-50,-10,43,32,-46,14,-95,-229,-251,-159,-81,25
-50,-16,38,32,-40,14,-95,-235,-257,-159,-87,19
-56,-16,38,37,-46,14,-101,-235,-257,-159,-93,25
-56,-16,38,37,-46,14,-101,-235,-263,-165,-99,19
-56,-16,38,37,-46,14,-101,-235,-263,-165,-93,19
-56,-16,43,37,-46,14,-107,-235,-275,-171,-99,13
-56,-16,43,37,-46,14,-107,-247,-275,-177,-111,13
-62,-16,43,37,-52,14,-107,-247,-269,-177,-105,19
-62,-16,43,37,-52,14,-107,-241,-269,-177,-99,19
-67,-21,43,43,-52,14,-107,-241,-263,-177,-93,25
-67,-27,43,43,-52,9,-101,-235,-263,-171,-93,25
-62,-16,43,37,-52,14,-95,-235,-257,-165,-93,30
-62,-16,43,37,-52,14,-95,-235,-257,-165,-93,30
-62,-16,43,37,-52,14,-89,-229,-257,-159,-87,19
-62,-4,55,37,-52,26,-89,-229,-257,-153,-87,30
-62,2,61,32,-57,32,-95,-235,-263,-159,-93,25
-62,2,67,37,-63,32,-101,-229,-257,-165,-93,19
-62,-4,61,37,-57,26,-107,-235,-257,-165,-99,13
-62,-4,61,37,-57,26,-107,-235,-257,-171,-99,7
-73,2,79,37,-75,38,-95,-223,-245,-171,-93,19
-79,2,85,37,-81,44,-95,-229,-245,-159,-93,19
-67,2,73,37,-69,38,-95,-217,-245,-159,-99,19
-67,-16,55,37,-57,20,-65,-199,-233,-159,-87,19
-79,-21,49,49,-63,14,-41,-163,-221,-147,-87,7
-85,-27,49,55,-69,14,-12,-121,-215,-159,-87,13
-85,-45,43,61,-57,-3,36,-73,-209,-177,-105,-5
-73,-21,43,43,-57,14,90,-2,-191,-195,-135,-35
-73,-16,61,37,-63,20,174,94,-149,-195,-147,-47
-79,-16,67,37,-69,26,246,208,-83,-165,-129,-29
-56,8,55,26,-52,32,294,346,6,-123,-99,7
10,38,32,-22,-10,32,330,556,138,-45,-27,36
88,62,-22,-76,56,14,366,796,318,62,50,120
178,164,-10,-172,98,74,366,1012,528,236,188,228
286,344,49,-316,116,200,354,1180,732,446,380,396
394,554,157,-472,116,356,330,1264,924,680,584,576
520,770,247,-646,140,506,222,1252,1110,944,824,774
622,962,337,-790,140,656,30,994,1224,1214,1076,1002
688,1184,487,-934,104,836,-197,532,1224,1472,1340,1248
742,1436,685,-1090,26,1058,-431,82,1230,1724,1610,1482
760,1610,841,-1180,-46,1232,-701,-157,1380,2018,1868,1692
754,1646,883,-1198,-57,1262,-911,-253,1602,2275,2036,1782
676,1532,847,-1108,-75,1196,-935,-367,1764,2365,2030,1746
514,1316,793,-916,-135,1058,-809,-553,1746,2233,1862,1578
352,1082,727,-712,-183,908,-743,-757,1524,1910,1544,1308
220,860,631,-538,-201,746,-809,-961,1224,1526,1184,1020
70,686,607,-376,-267,650,-881,-1141,924,1154,854,756
-79,500,583,-202,-327,542,-833,-1243,606,794,560,516
-193,326,523,-64,-351,422,-737,-1195,354,506,332,342
-247,212,457,26,-345,332,-725,-1171,66,260,158,216
-301,152,451,67,-369,296,-773,-1243,-323,-15,-15,84
-307,80,391,109,-345,236,-761,-1243,-611,-267,-159,-5
-259,26,283,109,-273,158,-683,-1099,-653,-327,-183,-17
-205,32,241,79,-219,134,-629,-925,-563,-291,-153,7
-193,32,229,73,-207,128,-557,-739,-443,-243,-135,7
-151,14,169,61,-159,92,-461,-553,-311,-171,-99,30
-91,56,151,26,-117,104,-371,-403,-203,-93,-27,84
-50,116,157,-34,-93,140,-293,-247,-89,-27,2,126
-32,116,139,-40,-75,128,-209,-121,-5,2,26,144
-44,62,97,-10,-63,80,-125,-25,18,14,26,144
-44,50,85,-4,-57,68,-83,-8,18,-4,20,132
-50,38,79,8,-57,62,-71,-2,0,-15,20,120
-56,44,91,8,-63,68,-77,-8,-5,-33,-4,96
-56,38,85,8,-63,62,-89,-8,-11,-45,-10,84
-56,44,91,8,-63,68,-95,-25,-41,-51,-15,78
-56,38,85,8,-63,62,-95,-25,-47,-63,-21,78
-56,32,79,14,-57,56,-95,-25,-59,-75,-21,78
-50,20,61,14,-52,44,-89,-19,-65,-81,-27,78
-50,20,61,14,-52,44,-83,-8,-71,-87,-27,78
-44,20,55,14,-52,38,-59,4,-65,-87,-21,78
-38,14,43,14,-46,32,-47,22,-59,-99,-27,78
-38,14,43,14,-46,32,-47,34,-59,-99,-27,72
-26,14,43,8,-34,26,-47,40,-53,-93,-39,72
-20,20,43,2,-28,26,-53,40,-53,-93,-39,72
-26,26,43,2,-40,38,-53,40,-41,-87,-27,72
-32,26,49,2,-46,38,-59,40,-41,-81,-27,78
-38,32,61,2,-52,50,-59,34,-29,-75,-15,78
-32,26,49,2,-46,38,-53,52,-23,-63,-10,84
-32,26,49,2,-46,38,-53,64,-23,-69,-10,84
-32,26,49,2,-46,38,-47,70,-23,-69,-10,90
-20,32,43,-4,-34,38,-47,88,-11,-75,-10,90
-14,38,43,-10,-34,44,-41,100,-5,-63,-10,90
-20,32,43,-4,-34,38,-35,106,0,-51,-10,90
-20,26,43,-4,-34,32,-35,112,0,-51,-10,96
-26,26,43,2,-40,38,-29,118,0,-45,-4,96
-20,20,43,2,-28,26,-29,124,0,-39,-4,96
-14,26,43,-4,-28,32,-35,130,6,-39,-4,102
-14,32,43,-10,-28,38,-35,136,12,-27,2,102
-2,50,43,-22,-28,50,-35,142,24,-21,8,108
-2,56,49,-28,-28,56,-35,160,24,-15,14,108
-2,62,55,-28,-34,62,-35,172,36,-15,20,120
-2,62,55,-28,-34,62,-29,178,42,-9,20,120
4,74,61,-40,-34,68,-29,184,48,-9,26,120
10,80,61,-46,-28,74,-29,190,60,-4,32,132
16,80,55,-46,-22,68,-29,196,78,-4,38,144
16,80,55,-46,-22,68,-29,208,78,-4,44,144
28,80,43,-52,-10,62,-29,220,96,2,44,150
28,86,49,-58,-16,68,-29,226,102,8,44,150
34,86,43,-58,-10,68,-23,244,102,20,62,162
34,92,49,-64,-10,74,-23,244,114,20,62,162
40,86,43,-64,-4,62,-18,268,120,32,68,162
40,74,38,-58,2,50,-18,280,138,44,80,174
46,74,32,-58,8,50,-18,292,156,56,80,180
46,80,38,-64,8,56,-18,310,162,62,86,186
52,86,38,-70,8,56,-18,310,174,68,86,186
58,110,43,-82,2,80,-18,316,192,74,92,192
58,122,55,-88,-4,92,-18,316,192,80,98,192
58,110,43,-82,2,80,-18,346,204,92,104,204
52,110,49,-82,-4,80,-18,364,210,104,116,204
58,110,43,-82,2,80,-18,370,222,116,122,210
76,116,43,-94,20,74,-18,388,240,116,128,216
76,122,43,-100,14,80,-18,406,246,116,140,222
82,146,55,-112,8,104,-23,418,264,116,146,228
100,152,43,-124,26,98,-23,436,276,134,152,234
100,152,43,-124,26,98,-18,454,300,146,158,246
100,152,43,-124,26,98,-18,466,300,146,170,252
106,152,43,-130,32,98,-18,484,318,158,176,264
118,152,38,-136,44,92,-18,508,336,176,188,270
118,152,38,-136,44,92,-18,520,342,188,188,270
118,170,43,-142,32,110,-18,538,354,200,200,276
118,176,49,-148,32,116,-29,550,366,206,206,276
124,188,55,-154,32,122,-29,568,384,212,206,288
136,188,43,-160,44,116,-23,592,402,224,218,300
142,188,43,-166,50,116,-23,604,414,236,224,306
148,188,43,-166,56,110,-18,622,432,248,230,324
154,188,38,-172,62,110,-18,640,444,254,230,330
160,194,38,-178,62,110,-18,652,456,260,236,330
178,206,32,-190,74,116,-18,676,474,272,248,342
178,224,43,-202,68,134,-18,688,486,272,260,348
184,236,43,-208,68,146,-18,700,486,278,266,360
190,248,49,-220,68,152,-23,712,486,284,278,354
184,248,55,-214,62,158,-23,724,492,296,284,366
190,242,43,-214,74,146,-23,742,492,302,302,366
184,248,55,-214,62,158,-23,748,504,308,302,366
196,242,43,-220,80,146,-23,754,504,308,296,372
202,242,43,-220,86,140,-35,760,504,308,302,378
208,248,43,-226,86,146,-41,760,504,302,302,384
208,242,38,-226,92,140,-41,760,504,302,302,384
208,248,43,-226,86,146,-41,766,504,302,308,396
208,248,43,-226,86,146,-41,772,504,308,308,402
202,254,43,-226,80,152,-41,772,498,308,320,408
202,254,43,-226,80,152,-41,772,492,302,320,408
208,248,43,-226,86,146,-35,772,492,308,314,408
208,242,38,-226,92,140,-41,766,492,308,314,408
214,242,32,-226,98,134,-35,754,486,308,302,402
214,254,43,-232,92,146,-41,754,486,302,302,396
214,260,43,-238,86,152,-47,736,468,290,296,390
214,260,43,-238,86,152,-53,724,456,284,290,378
208,266,49,-238,80,164,-53,718,438,272,284,372
202,254,43,-226,80,152,-53,718,426,272,284,372
196,248,43,-220,74,152,-53,706,426,266,290,372
196,248,43,-220,74,152,-53,694,414,260,284,372
184,242,49,-214,68,152,-53,682,402,260,290,372
178,224,43,-202,68,134,-53,658,396,248,290,366
178,242,55,-208,62,152,-65,640,378,242,278,360
178,242,61,-208,56,158,-65,616,360,230,272,342
178,248,61,-214,56,158,-65,592,348,224,260,342
178,248,61,-214,56,158,-65,574,330,212,254,336
172,242,67,-202,50,158,-65,550,324,212,254,330
160,224,61,-196,44,146,-65,538,306,194,248,324
148,224,73,-190,32,152,-65,508,300,188,236,318
142,224,73,-184,32,152,-65,478,282,182,230,312
124,206,73,-166,20,140,-65,448,258,164,224,294
124,194,61,-160,26,128,-59,418,240,152,212,288
118,182,55,-148,26,122,-53,382,222,134,212,288
100,182,73,-142,8,128,-47,352,204,122,194,270
94,170,67,-130,8,122,-53,322,186,110,182,270
82,158,67,-118,2,116,-53,298,168,86,170,258
76,152,67,-112,2,110,-59,268,138,80,152,246
76,146,61,-112,2,104,-59,250,126,68,140,240
76,146,61,-112,2,104,-53,220,102,62,134,228
64,140,67,-100,-4,104,-53,190,84,38,116,216
64,122,49,-94,2,86,-47,166,78,38,116,216
46,110,55,-76,-10,86,-35,142,60,32,110,210
34,98,55,-64,-16,80,-35,124,54,26,104,204
34,92,49,-64,-10,74,-35,100,36,8,92,192
22,92,61,-58,-22,80,-35,88,24,-4,86,192
10,86,67,-46,-34,80,-29,64,6,-4,74,180
16,80,55,-46,-22,68,-35,52,0,-15,62,174
10,74,55,-40,-28,68,-35,34,-17,-27,50,156
10,74,55,-40,-28,68,-41,16,-29,-39,44,150
10,56,43,-34,-16,50,-41,10,-41,-39,38,144
4,44,43,-22,-16,38,-35,-8,-47,-45,44,150
-2,44,43,-22,-22,44,-35,-8,-53,-51,32,144
-14,38,43,-10,-34,44,-23,-25,-53,-51,32,144
-26,38,55,-4,-46,50,-23,-37,-53,-57,26,138
-26,38,55,-4,-46,50,-23,-43,-65,-63,14,132
-26,20,43,2,-34,32,-23,-43,-71,-69,14,132
-26,26,43,2,-40,38,-18,-43,-77,-75,2,132
-26,26,43,2,-40,38,-18,-49,-83,-81,2,132
-26,14,43,8,-34,26,-18,-55,-89,-81,-4,132
-32,14,43,8,-40,26,-18,-67,-95,-87,-4,126
-32,26,49,2,-46,38,-18,-67,-101,-93,-10,120
-32,26,49,2,-46,38,-18,-79,-101,-93,-10,114
-32,20,43,8,-40,32,-18,-79,-107,-93,-10,114
-38,14,43,14,-46,32,-18,-85,-107,-93,-10,120
-38,14,43,14,-46,32,-18,-85,-113,-93,-10,120
-38,14,43,14,-46,32,-18,-79,-113,-93,-10,120
-32,14,43,8,-40,26,-18,-85,-113,-99,-10,114
-32,14,43,8,-40,26,-18,-85,-113,-99,-10,114
-26,14,43,8,-34,26,-18,-91,-107,-105,-10,108
-26,14,43,8,-34,26,-18,-91,-107,-105,-10,108
-26,8,38,8,-28,20,-12,-79,-95,-99,-10,114
-26,2,32,14,-28,14,-12,-79,-95,-99,-10,114
-32,14,43,8,-40,26,-6,-79,-95,-99,-10,120
-32,8,43,14,-34,20,-6,-79,-95,-99,-10,120
-32,14,43,8,-40,26,-6,-79,-95,-99,-10,114
-32,8,43,14,-34,20,-6,-73,-95,-99,-10,114
-32,14,43,8,-40,26,-18,-73,-89,-99,-10,108
-32,26,49,2,-46,38,-18,-67,-89,-99,-10,108
-32,20,43,8,-40,32,-18,-73,-95,-93,-10,108
-32,20,43,8,-40,32,-18,-67,-89,-93,-10,108
-32,14,43,8,-40,26,-12,-73,-95,-93,-4,114
-32,14,43,8,-40,26,-12,-73,-95,-93,2,114
-26,14,43,8,-34,26,-12,-67,-83,-93,-4,114
-20,8,32,8,-22,14,-12,-67,-83,-93,-4,114
-14,2,20,8,-16,14,-12,-61,-83,-93,-10,126
-14,2,20,8,-16,14,-12,-55,-83,-93,-10,126
-14,14,32,2,-22,20,-12,-55,-83,-87,-10,132
-14,8,26,2,-16,14,-6,-55,-83,-81,-10,132
-14,20,38,-4,-22,26,0,-49,-83,-75,-4,138
-14,32,43,-10,-28,38,0,-49,-83,-75,-4,138
-14,32,43,-10,-28,38,0,-43,-77,-75,-4,138
-14,32,43,-10,-28,38,0,-43,-77,-75,-4,138
-14,32,43,-10,-28,38,6,-43,-65,-75,2,150
-14,32,43,-10,-28,38,6,-43,-65,-75,2,150
-20,26,43,-4,-34,32,6,-43,-71,-81,2,144
-20,20,43,2,-28,26,6,-37,-71,-81,2,144
-20,20,43,2,-28,26,6,-37,-71,-87,2,138
-20,26,43,-4,-34,32,6,-37,-71,-87,2,132
-20,14,38,2,-28,20,6,-37,-65,-87,-10,132
-20,8,32,8,-22,14,12,-37,-65,-87,-10,132
-20,8,32,8,-22,14,12,-31,-71,-87,-10,132
-20,8,32,8,-22,14,12,-31,-77,-87,-10,132
-20,8,32,8,-22,14,12,-37,-77,-87,-10,132
-20,8,32,8,-22,14,12,-37,-65,-87,-10,132
-20,8,32,8,-22,14,12,-37,-65,-87,-4,132
-20,14,38,2,-28,20,6,-37,-83,-87,-4,126
-26,20,43,2,-34,32,6,-43,-83,-87,-10,126
-26,8,38,8,-28,20,6,-43,-83,-93,-10,126
-32,14,43,8,-40,26,12,-55,-83,-93,-10,126
-32,26,49,2,-46,38,12,-55,-95,-99,-15,126
-32,20,43,8,-40,32,12,-55,-89,-99,-21,120
-32,8,43,14,-34,20,12,-49,-77,-99,-15,120
-32,2,38,14,-34,14,18,-43,-83,-99,-10,120
-32,-4,32,20,-28,14,24,-37,-89,-99,-10,120
-32,-4,32,20,-28,14,18,-43,-95,-99,-10,126
-32,2,38,14,-34,14,18,-49,-95,-105,-10,126
-32,14,43,8,-40,26,6,-55,-101,-111,-15,132
-32,20,43,8,-40,32,6,-61,-101,-111,-15,132
-26,26,43,2,-40,38,6,-61,-107,-117,-21,126
-26,26,43,2,-40,38,6,-73,-113,-117,-21,120
-20,20,43,2,-28,26,6,-73,-119,-123,-27,114
-20,14,38,2,-28,20,6,-73,-119,-123,-27,114
-38,8,43,14,-40,26,12,-79,-113,-117,-21,120
-26,26,43,2,-40,38,12,-79,-119,-123,-21,120
-32,20,43,8,-40,32,18,-79,-125,-129,-21,120
-32,2,38,14,-34,14,12,-79,-131,-129,-21,120
-26,2,32,14,-28,14,6,-91,-137,-123,-21,120
-26,2,32,14,-28,14,6,-91,-137,-123,-27,120
-20,2,26,8,-22,14,0,-97,-149,-129,-27,120
-26,2,32,14,-28,14,0,-97,-149,-129,-27,120
-32,2,38,14,-34,14,0,-97,-149,-129,-27,114
-32,2,38,14,-34,14,0,-103,-149,-129,-27,114
-38,8,43,14,-40,26,0,-103,-149,-135,-33,108
-38,8,43,14,-40,26,-12,-109,-155,-141,-39,102
-38,8,43,14,-40,26,-12,-121,-155,-141,-39,108
-38,2,43,20,-40,20,-6,-121,-155,-141,-39,108
-38,-10,32,26,-34,14,-6,-115,-149,-141,-39,114
-38,-16,26,26,-28,14,-6,-115,-149,-147,-39,114
-38,-16,26,26,-28,14,-6,-115,-161,-147,-39,108
-44,-16,26,32,-34,9,-6,-115,-161,-147,-39,108
-44,-16,20,37,-34,3,-6,-115,-161,-147,-39,102
-44,-16,20,37,-34,3,-6,-121,-161,-147,-39,102
-38,-16,26,26,-28,14,-6,-127,-167,-147,-45,102
-38,-4,38,20,-34,14,-6,-127,-167,-153,-45,102
-32,2,38,14,-34,14,-6,-127,-179,-153,-45,96
-32,-4,32,20,-28,14,-6,-127,-185,-153,-45,96
-38,-10,32,26,-34,14,0,-127,-185,-153,-51,102
-38,-10,32,26,-34,14,0,-127,-185,-159,-51,96
-44,-10,38,26,-40,14,6,-127,-191,-159,-63,102
-44,-10,38,26,-40,14,6,-127,-191,-159,-63,102
-44,-16,32,32,-34,14,6,-133,-191,-159,-57,102
-44,-16,26,32,-34,9,6,-133,-191,-159,-57,102
-44,-16,26,32,-34,9,6,-139,-191,-159,-51,96
-44,-16,26,32,-34,9,6,-139,-191,-159,-51,96
-44,-10,38,26,-40,14,0,-139,-191,-159,-51,90
-44,-10,38,26,-40,14,0,-139,-191,-165,-51,90
-44,-10,38,26,-40,14,6,-133,-179,-165,-51,90
-44,-10,38,26,-40,14,6,-133,-179,-159,-51,90
-38,-4,38,20,-34,14,6,-127,-185,-153,-51,90
-38,2,43,20,-40,20,0,-139,-185,-159,-63,78
-32,2,38,14,-34,14,0,-145,-185,-153,-63,78
-32,-10,26,20,-28,14,0,-133,-179,-153,-57,84
-32,-10,26,20,-28,14,0,-139,-185,-153,-57,78
-32,-10,26,20,-28,14,0,-139,-185,-153,-57,78
-44,-16,32,32,-34,14,0,-145,-191,-165,-57,72
-44,-16,32,32,-34,14,0,-133,-191,-165,-57,72
-44,-10,38,26,-40,14,-6,-133,-191,-165,-63,66
-50,-4,43,26,-46,20,-6,-145,-197,-171,-63,60
-50,-4,43,26,-46,20,-12,-145,-197,-171,-69,54
-50,2,43,26,-52,26,-12,-145,-203,-171,-69,48
-50,-10,43,32,-46,14,-12,-139,-197,-171,-63,48
-50,-16,32,37,-40,14,-12,-145,-197,-171,-63,48
-50,-21,20,37,-34,3,-6,-139,-191,-171,-57,48
-44,-27,8,37,-28,-9,-6,-139,-185,-171,-57,48
-44,-33,2,37,-22,-15,-12,-139,-191,-171,-63,48
-44,-33,2,37,-22,-15,-12,-145,-197,-171,-69,48
-44,-16,20,37,-34,3,-18,-145,-209,-171,-75,42
-56,-16,32,37,-46,9,-18,-145,-209,-171,-75,42
-44,-21,14,37,-28,-3,-12,-145,-203,-171,-75,42
-44,-21,14,37,-28,-3,-12,-145,-203,-171,-75,42
-50,-21,20,37,-34,3,-6,-139,-197,-171,-75,42
-50,-27,14,37,-34,-3,-6,-139,-197,-171,-75,48
-38,-27,2,37,-22,-9,-6,-139,-197,-171,-75,48
-38,-21,8,37,-22,-3,-12,-151,-203,-177,-75,42
-32,-16,8,32,-22,-3,-12,-151,-203,-177,-81,42
-32,-16,8,32,-22,-3,-12,-151,-197,-177,-81,42
-38,-21,8,37,-22,-3,-6,-145,-197,-177,-81,42
-44,-27,8,37,-28,-9,-6,-145,-197,-177,-81,42
-50,-27,14,37,-34,-3,-6,-139,-197,-177,-87,42
-50,-21,20,37,-34,3,-6,-139,-197,-177,-87,42
-50,-16,26,37,-40,9,-12,-145,-197,-177,-81,36
-50,-16,26,37,-40,9,-12,-145,-197,-177,-81,36
-50,-16,38,32,-40,14,-18,-151,-203,-189,-75,30
-50,-16,38,32,-40,14,-18,-151,-203,-189,-81,30
-50,-16,26,37,-40,9,-18,-151,-203,-183,-81,36
-50,-16,26,37,-40,9,-18,-151,-203,-183,-81,36
-50,-21,20,37,-34,3,-18,-151,-203,-177,-81,36
-50,-16,26,37,-40,9,-18,-151,-203,-177,-81,30
-50,-16,32,37,-40,14,-18,-151,-203,-177,-87,36
-50,-21,20,37,-34,3,-18,-151,-203,-177,-87,36
-50,-16,26,37,-40,9,-6,-151,-209,-177,-93,42
-50,-10,43,32,-46,14,-6,-151,-209,-177,-93,42
-50,-10,43,32,-46,14,-6,-163,-209,-183,-93,42
-50,-10,43,32,-46,14,-12,-163,-209,-183,-93,42
-50,-16,32,37,-40,14,-12,-163,-209,-189,-87,36
-50,-16,26,37,-40,9,-6,-157,-209,-189,-81,30
-56,-27,20,37,-40,-3,-6,-151,-203,-183,-81,30
-56,-33,14,37,-34,-9,-6,-151,-203,-183,-81,30
-62,-39,14,43,-40,-9,-6,-145,-203,-177,-87,30
-62,-45,14,49,-40,-15,-12,-151,-209,-177,-87,30
-62,-45,8,43,-34,-15,-6,-151,-209,-177,-93,30
-56,-45,2,43,-28,-21,-6,-151,-209,-183,-93,30
-50,-51,-10,43,-22,-27,0,-151,-197,-183,-99,30
-50,-51,-10,43,-22,-27,6,-151,-197,-177,-93,36
-56,-45,2,43,-28,-21,0,-151,-197,-177,-87,36
-56,-45,2,43,-28,-21,0,-151,-197,-177,-87,30
-62,-33,20,37,-40,-3,-6,-157,-197,-177,-81,30
-62,-33,20,37,-40,-3,-12,-157,-203,-177,-81,30
-56,-39,8,37,-34,-15,-6,-157,-209,-183,-93,30
-56,-39,8,37,-34,-15,-6,-157,-209,-183,-93,30
-44,-27,8,37,-28,-9,6,-163,-215,-189,-99,25
-44,-16,20,37,-34,3,6,-175,-221,-201,-105,19
-50,-21,20,37,-34,3,0,-175,-215,-195,-99,25
-50,-27,14,37,-34,-3,0,-169,-221,-195,-99,25
-56,-39,8,37,-34,-15,0,-163,-215,-183,-93,30
-56,-39,8,37,-34,-15,0,-157,-209,-183,-87,30
-62,-33,20,37,-40,-3,-6,-163,-215,-189,-93,30
-62,-33,20,37,-40,-3,-6,-163,-215,-201,-99,25
-62,-33,26,43,-46,-3,-12,-163,-215,-195,-105,19
-62,-33,20,37,-40,-3,-12,-163,-215,-195,-99,19
-56,-39,8,37,-34,-15,0,-157,-221,-189,-93,25
-56,-39,8,37,-34,-15,6,-157,-215,-183,-93,25
-50,-27,14,37,-34,-3,12,-151,-209,-177,-87,25
-50,-27,14,37,-34,-3,18,-151,-197,-171,-87,30
-50,-51,-10,43,-22,-27,18,-151,-203,-171,-93,25
-50,-51,-10,43,-22,-27,12,-145,-203,-171,-87,25
-50,-39,2,37,-28,-15,6,-145,-203,-177,-93,13
-50,-39,2,37,-28,-15,0,-145,-197,-177,-93,13
-50,-39,2,37,-28,-15,-6,-151,-203,-183,-99,13
-50,-33,8,37,-28,-9,-6,-157,-215,-183,-99,13
-56,-33,14,37,-34,-9,-6,-163,-221,-189,-105,13
-56,-39,8,37,-34,-15,-6,-169,-227,-201,-105,13
-44,-27,8,37,-28,-9,6,-157,-215,-177,-93,25
-50,-27,14,37,-34,-3,6,-157,-215,-177,-105,25
-62,-27,26,37,-46,3,-6,-169,-227,-201,-117,13
-44,-16,26,32,-34,9,-18,-181,-233,-213,-123,1
-50,-16,26,37,-40,9,-18,-175,-227,-207,-117,7
-50,-21,20,37,-34,3,-12,-169,-227,-201,-111,13
-56,-27,20,37,-40,-3,-6,-163,-221,-195,-105,19
-56,-33,14,37,-34,-9,0,-157,-221,-189,-99,25
-56,-27,20,37,-40,-3,6,-163,-221,-183,-99,19
-56,-33,14,37,-34,-9,6,-163,-221,-183,-105,19
-56,-51,-4,43,-28,-27,12,-157,-215,-177,-105,19
-56,-57,-10,49,-22,-33,12,-157,-215,-177,-99,19
-56,-45,2,43,-28,-21,6,-163,-221,-183,-105,19
-56,-45,2,43,-28,-21,0,-163,-221,-189,-111,7
-56,-33,14,37,-34,-9,-12,-175,-221,-195,-117,7
-50,-33,8,37,-28,-9,-12,-175,-227,-195,-117,7
-50,-51,-10,43,-22,-27,-6,-169,-227,-195,-105,7
-50,-39,2,37,-28,-15,-6,-169,-227,-195,-105,7
-50,-27,14,37,-34,-3,-6,-163,-227,-195,-105,7
-50,-27,14,37,-34,-3,-6,-163,-227,-195,-105,7
-56,-51,-4,43,-28,-27,6,-157,-215,-183,-93,13
-56,-57,-10,49,-22,-33,6,-157,-209,-183,-93,19
-62,-63,-4,55,-34,-33,12,-151,-203,-177,-87,25
-62,-69,-10,61,-28,-39,12,-151,-197,-177,-87,30
-62,-69,-16,55,-22,-39,12,-145,-197,-171,-93,30
-62,-69,-16,55,-22,-39,24,-139,-197,-171,-87,30
-50,-57,-16,43,-16,-33,30,-133,-191,-171,-87,30
-50,-51,-10,43,-22,-27,30,-127,-191,-165,-87,30
-56,-21,26,37,-40,3,24,-133,-197,-171,-93,30
-50,-16,38,32,-40,14,24,-133,-197,-171,-87,25
-50,8,49,20,-52,32,18,-139,-203,-177,-93,19
-50,14,55,20,-52,38,24,-139,-197,-165,-93,13
-56,8,55,26,-52,32,36,-133,-191,-159,-81,25
-56,8,55,26,-52,32,48,-127,-191,-159,-81,25
-62,-4,49,32,-52,26,60,-121,-179,-153,-69,30
-56,-4,43,32,-52,20,60,-121,-179,-153,-69,30
-50,-16,38,32,-40,14,54,-133,-185,-153,-69,30
-50,-16,32,37,-40,14,48,-139,-209,-165,-75,30
-44,-21,14,37,-28,-3,30,-151,-215,-165,-93,25
-32,-27,-4,37,-16,-15,24,-151,-209,-165,-93,25
-20,-21,-10,26,-4,-15,18,-127,-191,-159,-81,25
-14,-21,-16,26,2,-15,24,-115,-173,-135,-69,30
4,-16,-22,8,14,-15,24,-91,-155,-117,-63,36
4,-16,-22,8,14,-15,24,-73,-137,-111,-57,36
4,-16,-16,8,14,-9,12,-73,-137,-111,-45,42
10,2,-4,-4,8,9,24,-73,-125,-105,-39,48
16,26,14,-22,2,14,24,-73,-125,-111,-33,48
22,26,8,-22,8,14,24,-61,-125,-99,-33,48
16,8,-4,-10,14,9,12,-79,-137,-111,-33,48
16,8,-4,-10,14,9,6,-97,-143,-123,-33,42
4,8,8,-4,2,14,6,-103,-161,-129,-33,36
-8,2,14,2,-10,14,0,-115,-167,-135,-33,36
-14,8,26,2,-16,14,6,-133,-179,-147,-39,30
-14,8,26,2,-16,14,6,-139,-185,-147,-39,30
-14,14,32,2,-22,20,-6,-151,-191,-159,-39,30
-14,2,20,8,-16,14,-12,-157,-197,-165,-39,30
-8,-10,2,8,-4,3,-18,-169,-209,-171,-39,30
4,-16,-22,8,14,-15,-18,-163,-209,-165,-39,30
10,-27,-46,14,26,-33,-12,-151,-209,-153,-33,36
16,-39,-64,20,38,-51,-6,-145,-203,-147,-33,42
-2,-51,-58,32,26,-51,-12,-145,-203,-159,-45,30
-14,-51,-46,37,14,-45,-12,-145,-203,-165,-51,30
-26,-45,-28,37,2,-33,-18,-163,-215,-171,-63,25
-50,-51,-10,43,-22,-27,-18,-181,-233,-195,-81,7
-50,-75,-34,55,-10,-51,-18,-193,-239,-207,-93,1
-62,-93,-34,73,-16,-63,-18,-199,-245,-207,-93,1
-62,-93,-28,73,-22,-63,-18,-211,-257,-213,-99,-11
-67,-93,-22,79,-28,-57,-18,-211,-257,-219,-105,-11
-67,-99,-28,79,-28,-63,-18,-211,-257,-219,-105,-11
-67,-99,-28,79,-28,-63,-18,-211,-257,-219,-99,-11
-67,-99,-28,79,-28,-63,-23,-211,-263,-219,-99,-11
-67,-99,-28,79,-28,-63,-23,-223,-263,-225,-111,-11
-62,-93,-28,73,-22,-63,-23,-217,-257,-225,-111,-17
-67,-93,-22,79,-28,-57,-23,-211,-257,-225,-105,-17
-67,-87,-16,73,-34,-51,-23,-205,-251,-225,-105,-23
-67,-87,-16,73,-34,-51,-18,-199,-251,-219,-105,-23
-67,-81,-10,73,-34,-45,-23,-205,-251,-219,-111,-23
-62,-81,-16,67,-28,-51,-23,-211,-251,-219,-111,-29
-67,-81,-10,73,-34,-45,-29,-211,-257,-219,-111,-47
-67,-75,-4,67,-40,-39,-29,-217,-257,-213,-111,-41
-67,-81,-10,73,-34,-45,-23,-211,-251,-213,-105,-35
-73,-87,-10,79,-40,-51,-23,-199,-245,-213,-105,-35
-73,-105,-28,85,-28,-69,-18,-193,-239,-207,-99,-29
-73,-111,-34,91,-28,-75,-18,-187,-239,-207,-99,-29
-85,-117,-28,97,-34,-75,-12,-175,-227,-195,-93,-17
-79,-81,2,79,-46,-39,-12,-181,-227,-207,-93,-29
-79,-21,49,49,-63,14,-18,-193,-245,-231,-123,-65
-79,-39,43,55,-57,3,-6,-175,-233,-219,-111,-53
-91,-117,-22,103,-40,-69,42,-115,-209,-195,-99,-29
-97,-111,-10,103,-52,-63,84,-73,-203,-219,-111,-59
-85,-129,-40,103,-28,-87,132,-8,-197,-237,-153,-89
-97,-177,-76,133,-16,-129,210,106,-143,-231,-159,-95
-97,-135,-34,115,-40,-87,276,202,-101,-231,-159,-107
-67,-63,8,61,-46,-27,330,298,-47,-225,-165,-113
-44,-51,-16,37,-16,-33,390,478,54,-159,-111,-89
22,-45,-76,20,50,-57,438,676,210,-57,-39,-23
100,2,-94,-52,98,-39,450,904,402,86,62,60
184,140,-46,-166,122,44,426,1096,600,266,230,204
310,296,-10,-304,164,140,402,1210,798,488,440,372
418,470,49,-448,182,260,354,1288,1026,758,680,576
520,680,151,-598,188,416,234,1228,1218,1046,932,798
610,920,301,-760,152,614,30,916,1284,1316,1184,1014
670,1160,487,-916,92,824,-197,418,1260,1568,1448,1248
694,1376,673,-1036,8,1022,-419,46,1314,1856,1724,1470
724,1526,793,-1126,-40,1166,-641,-97,1530,2161,1946,1632
694,1502,799,-1102,-52,1154,-779,-199,1740,2359,2047,1668
574,1346,769,-958,-87,1058,-737,-343,1836,2353,1970,1560
400,1094,691,-742,-141,896,-599,-541,1710,2107,1706,1344
244,824,571,-532,-159,704,-563,-745,1446,1730,1370,1062
130,614,481,-370,-171,548,-659,-961,1122,1340,1016,774
-38,464,493,-208,-261,482,-707,-1165,756,956,692,528
-187,338,529,-70,-351,434,-623,-1225,444,632,422,306
-265,242,511,14,-381,374,-557,-1171,192,368,218,144
-301,152,457,67,-375,302,-569,-1219,-161,86,38,30
-343,20,367,157,-351,194,-599,-1279,-533,-195,-123,-83
-319,-39,277,181,-297,110,-575,-1177,-695,-339,-195,-113
-259,-45,205,151,-231,74,-515,-1003,-641,-327,-171,-89
-229,-51,169,139,-201,50,-479,-841,-527,-291,-153,-89
-193,-63,121,127,-159,20,-431,-667,-419,-249,-147,-77
-139,-57,73,97,-105,14,-353,-493,-287,-195,-87,-35
-91,-16,67,49,-81,20,-275,-355,-191,-117,-39,13
-62,-4,49,32,-52,26,-215,-205,-89,-63,-10,30
-32,8,43,14,-34,20,-113,-49,-5,-33,2,25
-44,-10,38,26,-40,14,-29,-2,6,-33,-10,13
-56,-16,38,37,-46,14,0,10,0,-51,-15,-11
-50,-16,32,37,-40,14,12,10,-11,-75,-27,-23
-62,-16,43,37,-52,14,6,4,-29,-87,-39,-35
-62,-21,43,37,-52,9,-6,-8,-29,-93,-39,-41
-73,-27,43,49,-57,9,-12,-13,-59,-93,-45,-35
-79,-33,43,55,-57,9,-12,-13,-59,-99,-45,-29
-73,-45,32,55,-52,-9,-6,-8,-59,-105,-45,-29
-62,-63,2,61,-40,-33,0,-8,-65,-111,-51,-29
-62,-69,-10,61,-28,-39,12,16,-59,-111,-51,-29
-56,-75,-28,55,-16,-51,36,40,-53,-111,-45,-29
-62,-69,-16,55,-22,-39,48,58,-53,-123,-51,-29
-62,-69,-16,55,-22,-39,48,70,-53,-123,-51,-35
-62,-57,-4,49,-28,-27,48,76,-53,-117,-63,-35
-56,-51,-4,43,-28,-27,42,76,-53,-117,-63,-35
-56,-51,-4,43,-28,-27,42,76,-47,-111,-51,-35
-62,-51,2,49,-34,-21,36,76,-47,-105,-51,-29
-62,-51,2,49,-34,-21,36,70,-41,-99,-39,-29
-56,-57,-10,49,-22,-33,42,88,-35,-87,-33,-23
-56,-63,-16,49,-22,-39,48,100,-29,-87,-33,-23
-56,-63,-16,49,-22,-39,54,106,-29,-87,-33,-17
-44,-63,-28,43,-10,-45,60,124,-11,-87,-33,-17
-38,-57,-28,37,-4,-39,66,136,-5,-75,-27,-17
-44,-63,-28,43,-10,-45,66,142,0,-75,-27,-17
-44,-63,-28,43,-10,-45,66,148,0,-75,-21,-11
-50,-63,-22,49,-16,-39,66,154,0,-81,-15,-11
-44,-63,-28,43,-10,-45,66,160,12,-75,-15,-11
-38,-57,-28,37,-4,-39,60,160,18,-69,-21,-11
-38,-57,-28,37,-4,-39,60,166,24,-57,-15,-11
-26,-39,-22,37,-4,-27,60,166,36,-45,-15,-11
-26,-39,-22,37,-4,-27,60,184,36,-39,-10,-11
-26,-27,-10,32,-10,-15,60,196,54,-39,-10,-5
-26,-21,-4,32,-10,-9,66,202,60,-33,-10,-5
-20,-16,8,20,-10,3,66,208,72,-33,-10,-11
-14,-4,14,8,-10,14,66,214,84,-27,-4,1
-14,-16,2,14,-4,3,72,226,102,-15,8,13
-14,-16,-4,20,-4,-3,72,232,102,-9,14,19
-8,-21,-22,20,8,-21,78,250,120,-4,20,25
-8,-21,-22,20,8,-21,78,256,126,-4,20,30
-2,-16,-16,14,8,-9,72,268,120,2,26,30
-2,-10,-4,8,2,3,72,268,132,2,26,30
4,-4,-4,2,8,3,66,280,132,8,20,25
4,-10,-10,2,8,-3,72,292,150,20,32,30
10,-16,-22,2,20,-9,72,310,168,32,44,30
10,-16,-22,2,20,-9,72,328,174,38,50,36
16,-16,-28,2,26,-15,72,334,186,44,62,42
22,2,-16,-10,20,3,66,340,204,50,68,48
28,20,-4,-22,20,14,66,346,204,62,68,48
28,14,-10,-22,20,9,66,376,222,74,74,60
28,20,-4,-22,20,14,72,400,228,92,80,60
34,26,-4,-28,20,14,72,406,240,104,86,66
52,26,-22,-40,38,9,66,418,258,110,92,72
52,32,-16,-40,38,14,66,436,270,110,104,78
58,50,-4,-52,32,20,60,442,288,116,110,84
76,56,-16,-64,50,14,60,460,300,134,116,90
70,56,-10,-64,44,20,66,478,330,146,128,102
70,56,-10,-64,44,20,66,484,330,146,140,114
70,56,-10,-64,44,20,78,508,354,158,152,126
82,56,-22,-70,56,14,78,532,372,176,164,144
82,50,-28,-64,56,14,72,550,384,188,170,144
76,68,-4,-70,44,26,72,568,396,200,182,150
76,68,-4,-70,44,26,66,586,414,206,194,150
76,80,8,-76,38,38,66,604,432,212,194,162
94,92,2,-94,50,44,66,622,438,212,200,162
100,98,2,-100,50,44,66,628,450,230,206,168
112,110,2,-112,56,50,66,640,456,230,206,174
118,116,2,-118,62,56,66,652,468,236,212,180
124,122,2,-124,62,56,60,664,480,242,212,180
136,128,-4,-130,74,56,60,688,492,254,224,192
142,152,14,-148,68,80,54,700,504,260,230,198
142,158,20,-148,62,86,54,712,510,266,230,210
148,164,20,-154,68,86,54,724,516,278,242,210
148,158,14,-154,68,80,54,736,534,290,248,222
154,146,-4,-148,80,68,60,754,546,302,266,228
154,146,-4,-148,80,68,60,760,564,308,266,228
154,140,-10,-148,86,62,66,766,564,314,266,228
160,146,-10,-154,86,62,54,772,564,314,272,234
154,152,2,-154,80,74,54,772,564,314,278,234
154,152,2,-154,80,74,54,772,564,314,278,234
166,158,-4,-160,86,74,48,778,558,314,272,234
166,158,-4,-160,86,74,48,784,558,320,272,240
172,164,-4,-166,92,74,42,784,546,320,272,234
172,164,-4,-166,92,74,42,784,540,314,272,234
172,158,-10,-166,92,68,42,784,534,308,272,240
172,152,-16,-160,98,62,36,778,534,308,272,240
172,152,-16,-160,98,62,36,766,522,296,266,240
172,164,-4,-166,92,74,30,766,516,290,266,234
172,170,2,-172,86,80,24,748,510,284,260,228
172,170,2,-172,86,80,18,736,498,278,254,216
166,176,14,-172,80,92,18,724,492,272,248,210
160,164,8,-160,80,80,18,724,486,272,248,210
154,164,14,-160,74,86,18,724,480,266,248,210
154,170,20,-160,68,92,18,712,468,260,236,210
142,170,32,-154,56,98,18,706,450,260,236,210
136,158,26,-148,56,86,18,682,444,248,230,204
136,164,32,-148,56,92,12,664,432,242,230,198
130,164,38,-148,50,98,12,640,414,230,224,180
136,158,26,-148,56,86,18,616,408,224,218,180
136,158,26,-148,56,86,18,598,390,212,212,174
124,146,26,-136,50,80,18,574,378,212,212,168
112,128,20,-118,50,68,18,562,360,194,206,162
100,122,26,-112,38,68,18,532,348,188,194,156
94,116,26,-106,38,68,18,502,330,182,188,150
82,104,26,-94,32,62,12,478,306,164,170,126
82,92,14,-88,38,50,18,448,288,152,158,120
82,86,8,-82,38,44,18,418,264,134,152,114
64,86,26,-76,20,50,24,388,246,122,134,96
58,80,26,-70,20,50,24,358,240,116,134,96
46,74,32,-58,8,50,24,334,222,98,122,90
40,74,38,-58,2,50,24,304,198,98,116,84
40,74,38,-58,2,50,24,286,186,92,104,84
34,68,38,-52,2,50,30,250,150,74,86,66
22,62,43,-40,-10,50,30,226,132,50,68,54
16,38,26,-28,-4,26,36,202,114,38,56,48
-2,26,32,-10,-16,26,48,178,96,32,50,42
-14,8,26,2,-16,14,48,160,84,26,44,36
-14,2,20,8,-16,14,48,136,66,8,32,30
-26,-4,26,14,-22,14,48,124,48,-4,26,30
-38,-10,32,26,-34,14,54,100,30,-4,14,25
-38,-16,26,26,-28,14,54,88,24,-9,8,19
-44,-16,26,32,-34,9,54,70,6,-21,-4,1
-50,-16,32,37,-40,14,54,52,6,-27,-4,-5
-50,-27,14,37,-34,-3,54,46,0,-27,-10,-11
-44,-27,8,37,-28,-9,54,28,-11,-45,-10,-11
-50,-27,14,37,-34,-3,54,22,-23,-51,-21,-17
-50,-21,20,37,-34,3,60,10,-35,-63,-33,-23
-62,-21,32,37,-46,9,60,-2,-41,-69,-45,-29
-62,-27,32,37,-52,3,60,-8,-47,-69,-45,-35
-62,-45,14,49,-40,-15,60,-8,-53,-75,-45,-35
-62,-45,20,49,-46,-15,66,-8,-53,-75,-45,-35
-62,-45,20,49,-46,-15,66,-13,-59,-81,-45,-35
-62,-51,14,55,-46,-21,60,-19,-71,-87,-57,-41
-67,-51,20,55,-52,-15,54,-31,-77,-93,-57,-47
-67,-33,38,49,-52,3,48,-31,-89,-105,-69,-59
-67,-33,38,49,-52,3,48,-43,-89,-105,-69,-65
-67,-39,32,49,-52,-3,48,-43,-95,-111,-75,-71
-73,-39,38,55,-52,-3,48,-49,-95,-111,-81,-65
-73,-39,38,55,-52,-3,48,-49,-101,-117,-87,-71
-73,-33,43,49,-52,3,48,-43,-101,-117,-81,-71
-67,-51,20,55,-52,-15,66,-37,-95,-105,-75,-65
-67,-63,8,61,-46,-27,72,-31,-89,-99,-69,-59
-62,-81,-16,67,-28,-51,84,-25,-77,-87,-63,-53
-62,-93,-28,73,-22,-63,90,-19,-71,-81,-57,-47
-62,-81,-16,67,-28,-51,84,-19,-65,-81,-63,-53
-62,-75,-10,67,-34,-45,78,-25,-71,-87,-63,-53
-67,-45,26,55,-52,-9,72,-37,-77,-93,-69,-59
-67,-39,32,49,-52,-3,66,-43,-83,-99,-69,-59
-67,-45,26,55,-52,-9,72,-37,-77,-93,-63,-53
-67,-63,8,61,-46,-27,72,-25,-77,-87,-63,-53
-67,-69,2,67,-40,-33,66,-19,-65,-81,-57,-47
-67,-69,2,67,-40,-33,66,-8,-65,-75,-57,-47
-67,-63,8,61,-46,-27,66,-13,-65,-75,-63,-53
-67,-63,8,61,-46,-27,66,-8,-59,-75,-63,-53
-67,-57,14,61,-46,-21,72,-13,-59,-81,-63,-53
-67,-57,14,61,-46,-21,72,-13,-59,-81,-57,-53
-67,-57,14,61,-46,-21,72,-13,-53,-81,-63,-53
-62,-63,2,61,-40,-33,72,-13,-53,-81,-63,-53
-62,-69,-4,61,-34,-39,72,-13,-59,-81,-69,-41
-62,-69,-4,61,-34,-39,72,-8,-59,-81,-75,-41
-62,-63,2,61,-40,-33,66,-8,-47,-81,-69,-47
-62,-75,-10,67,-34,-45,72,-8,-47,-75,-69,-47
-62,-69,-4,61,-34,-39,72,-8,-35,-75,-63,-53
-62,-63,2,61,-40,-33,72,-8,-35,-75,-63,-53
-67,-57,14,61,-46,-21,72,-8,-41,-75,-63,-59
-67,-57,14,61,-46,-21,72,-8,-41,-75,-63,-59
-73,-51,26,61,-52,-15,78,-8,-41,-75,-57,-53
-73,-51,26,61,-52,-15,78,-8,-41,-75,-57,-53
-73,-57,20,61,-52,-21,84,-8,-41,-75,-57,-53
-73,-63,14,67,-52,-27,84,-8,-41,-75,-57,-53
-67,-63,8,61,-46,-27,90,-2,-35,-75,-57,-53
-67,-57,14,61,-46,-21,90,-2,-35,-75,-57,-59
-67,-63,8,61,-46,-27,84,-2,-35,-75,-63,-59
-67,-63,8,61,-46,-27,90,-2,-35,-75,-63,-59
-67,-57,14,61,-46,-21,84,4,-47,-75,-63,-59
-67,-51,20,55,-52,-15,84,4,-53,-75,-63,-59
-73,-57,20,61,-52,-21,84,-2,-53,-75,-63,-53
-73,-63,14,67,-52,-27,84,-2,-41,-75,-63,-53
-79,-69,14,73,-52,-27,84,-2,-41,-75,-63,-47
-79,-69,14,73,-52,-27,78,-2,-59,-75,-63,-53
-73,-69,8,67,-46,-33,78,-2,-59,-75,-69,-59
-73,-81,-4,73,-40,-45,78,-2,-59,-81,-69,-59
-67,-81,-10,73,-34,-45,84,-8,-59,-81,-75,-65
-67,-69,2,67,-40,-33,84,-8,-71,-87,-75,-65
-67,-63,8,61,-46,-27,84,-8,-71,-87,-81,-65
-67,-69,2,67,-40,-33,84,-8,-59,-87,-81,-65
-67,-63,8,61,-46,-27,90,-2,-71,-87,-69,-59
-67,-63,8,61,-46,-27,96,-2,-77,-87,-69,-59
-73,-75,2,73,-46,-39,90,-8,-77,-81,-69,-59
-73,-75,2,73,-46,-39,90,-8,-77,-87,-69,-59
-79,-75,8,73,-52,-33,78,-8,-77,-87,-75,-59
-79,-75,8,73,-52,-33,78,-13,-77,-87,-75,-59
-73,-75,2,73,-46,-39,84,-13,-77,-93,-81,-59
-73,-75,2,73,-46,-39,84,-25,-83,-93,-81,-65
-67,-87,-16,73,-34,-51,90,-25,-83,-99,-87,-65
-67,-93,-22,79,-28,-57,90,-25,-83,-99,-87,-65
-85,-69,20,73,-52,-27,84,-37,-89,-105,-93,-77
-73,-33,43,49,-52,3,78,-43,-101,-117,-99,-89
-79,-16,61,43,-69,20,72,-49,-119,-135,-111,-107
-79,-16,61,43,-69,20,60,-55,-131,-141,-117,-119
-79,-27,43,49,-63,14,66,-61,-125,-129,-111,-107
-79,-45,38,61,-52,-3,72,-55,-119,-123,-111,-101
-79,-63,20,67,-52,-21,78,-55,-119,-123,-105,-89
-85,-81,8,79,-52,-39,84,-49,-113,-117,-99,-83
-85,-87,2,85,-52,-45,84,-49,-113,-117,-99,-89
-85,-87,2,85,-52,-45,84,-55,-113,-117,-99,-89
-85,-87,2,85,-52,-45,84,-55,-113,-123,-105,-95
-85,-87,2,85,-52,-45,72,-61,-119,-129,-111,-101
-91,-87,8,85,-52,-39,72,-67,-125,-129,-111,-101
-91,-93,2,91,-52,-45,78,-67,-125,-129,-111,-101
-97,-105,-4,97,-52,-57,78,-55,-125,-129,-111,-101
-97,-111,-10,103,-52,-63,78,-55,-125,-135,-111,-101
-97,-99,2,97,-52,-51,72,-61,-137,-135,-117,-107
-103,-99,8,97,-52,-45,72,-61,-137,-135,-117,-107
-103,-93,14,97,-52,-39,66,-67,-137,-135,-123,-113
-103,-87,20,91,-57,-33,66,-73,-137,-135,-123,-113
-103,-93,14,97,-52,-39,66,-79,-131,-129,-123,-107
-103,-93,14,97,-52,-39,66,-73,-131,-135,-123,-107
-103,-105,2,103,-52,-51,66,-73,-131,-129,-117,-107
-103,-123,-16,109,-52,-69,66,-67,-137,-129,-117,-107
-103,-117,-10,109,-52,-63,60,-73,-143,-135,-123,-113
-103,-111,-4,103,-52,-57,60,-79,-143,-141,-123,-125
-103,-99,8,97,-52,-45,54,-85,-155,-147,-135,-131
-103,-93,14,97,-52,-39,54,-91,-155,-147,-135,-137
-103,-99,8,97,-52,-45,60,-85,-149,-141,-129,-131
-103,-105,2,103,-52,-51,60,-85,-149,-141,-129,-131
-103,-105,2,103,-52,-51,66,-79,-143,-135,-123,-131
-103,-105,2,103,-52,-51,66,-79,-143,-135,-123,-131
-103,-99,8,97,-52,-45,60,-85,-155,-141,-129,-143
-103,-99,8,97,-52,-45,60,-91,-155,-147,-129,-143
-103,-105,2,103,-52,-51,66,-91,-155,-153,-135,-149
-103,-105,2,103,-52,-51,66,-97,-155,-147,-135,-149
-103,-105,2,103,-52,-51,66,-91,-161,-147,-135,-143
-103,-99,8,97,-52,-45,60,-97,-161,-153,-147,-155
-103,-105,2,103,-52,-51,60,-103,-161,-153,-147,-149
-103,-117,-10,109,-52,-63,60,-85,-155,-153,-141,-143
-103,-111,-4,103,-52,-57,60,-91,-161,-147,-141,-149
-103,-105,2,103,-52,-51,60,-91,-161,-147,-141,-149
-115,-105,14,109,-57,-45,60,-97,-167,-153,-141,-155
-115,-99,20,103,-63,-39,60,-85,-167,-153,-141,-155
-109,-87,26,97,-63,-33,54,-91,-167,-153,-147,-155
-115,-81,38,97,-69,-21,54,-103,-173,-159,-147,-161
-109,-75,38,91,-69,-21,48,-109,-173,-159,-153,-161
-109,-69,43,85,-69,-15,48,-109,-179,-159,-153,-167
-109,-75,38,91,-69,-21,48,-103,-173,-153,-147,-167
-109,-87,26,97,-63,-33,48,-109,-173,-153,-147,-167
-109,-93,20,97,-57,-39,54,-103,-167,-147,-141,-167
-103,-99,8,97,-52,-45,54,-103,-161,-147,-141,-167
-109,-117,-4,109,-52,-63,54,-103,-161,-147,-141,-167
-109,-123,-10,115,-52,-69,54,-109,-167,-147,-147,-167
-115,-117,2,115,-52,-57,54,-109,-173,-147,-147,-173
-127,-123,8,121,-63,-57,54,-109,-173,-147,-147,-173
-109,-123,-10,115,-52,-69,54,-103,-167,-147,-147,-173
-109,-123,-10,115,-52,-69,54,-103,-167,-147,-147,-173
-109,-117,-4,109,-52,-63,54,-91,-161,-147,-147,-173
-109,-123,-10,115,-52,-69,54,-91,-161,-147,-147,-167
-103,-117,-10,109,-52,-63,48,-97,-167,-153,-153,-167
-103,-105,2,103,-52,-51,42,-115,-179,-159,-153,-173
-103,-93,14,97,-52,-39,36,-121,-185,-165,-165,-173
-103,-87,20,91,-57,-33,36,-127,-185,-165,-165,-173
-109,-99,14,103,-57,-45,42,-121,-185,-159,-159,-167
-115,-105,14,109,-57,-45,42,-121,-185,-159,-159,-167
-121,-111,14,115,-63,-51,42,-115,-185,-153,-159,-161
-121,-105,20,109,-63,-45,42,-115,-185,-153,-159,-161
-115,-99,20,103,-63,-39,48,-115,-179,-153,-159,-161
-115,-99,20,103,-63,-39,48,-115,-179,-153,-159,-161
-109,-87,26,97,-63,-33,48,-115,-179,-165,-159,-161
-109,-87,26,97,-63,-33,48,-115,-179,-165,-165,-161
-109,-99,14,103,-57,-45,48,-115,-185,-165,-165,-161
-109,-99,14,103,-57,-45,48,-115,-185,-165,-165,-161
-109,-105,8,103,-52,-51,42,-115,-191,-165,-165,-167
-109,-99,14,103,-57,-45,36,-115,-191,-165,-165,-173
-115,-105,14,109,-57,-45,42,-115,-185,-159,-165,-167
-115,-117,2,115,-52,-57,42,-115,-185,-159,-165,-167
-121,-123,2,121,-57,-63,54,-115,-185,-153,-165,-161
-121,-105,20,109,-63,-45,54,-115,-185,-153,-165,-161
-115,-105,14,109,-57,-45,54,-127,-185,-153,-165,-161
-115,-105,14,109,-57,-45,48,-127,-185,-153,-165,-161
-109,-117,-4,109,-52,-63,48,-127,-185,-153,-159,-167
-109,-123,-10,115,-52,-69,54,-121,-185,-153,-153,-179
-109,-117,-4,109,-52,-63,48,-121,-185,-153,-159,-173
-109,-111,2,109,-52,-57,48,-121,-185,-153,-159,-173
-109,-99,14,103,-57,-45,42,-121,-191,-153,-171,-167
-115,-93,26,103,-63,-33,36,-127,-197,-153,-171,-167
-115,-87,32,97,-69,-27,36,-127,-203,-153,-171,-173
-109,-81,32,91,-63,-27,36,-127,-203,-159,-171,-179
-109,-81,32,91,-63,-27,36,-127,-197,-159,-171,-191
-109,-75,38,91,-69,-21,42,-127,-197,-153,-165,-191
-103,-87,20,91,-57,-33,48,-121,-191,-153,-159,-185
-103,-99,8,97,-52,-45,48,-121,-191,-153,-159,-185
-97,-105,-4,97,-52,-57,54,-121,-185,-153,-153,-179
-97,-117,-16,103,-46,-69,48,-121,-191,-153,-153,-179
-97,-117,-16,103,-46,-69,48,-127,-179,-153,-159,-179
-109,-117,-4,109,-52,-63,48,-115,-191,-141,-171,-179
-115,-111,8,109,-57,-51,54,-115,-191,-141,-171,-179
-115,-117,2,115,-52,-57,60,-121,-185,-141,-159,-167
-109,-117,-4,109,-52,-63,54,-127,-191,-147,-165,-173
-109,-117,-4,109,-52,-63,54,-127,-191,-147,-165,-173
-103,-117,-10,109,-52,-63,48,-133,-197,-153,-171,-179
-103,-117,-10,109,-52,-63,48,-133,-197,-153,-171,-179
-109,-99,14,103,-57,-45,48,-133,-191,-153,-165,-179
-109,-99,14,103,-57,-45,48,-133,-191,-153,-171,-179
-115,-105,14,109,-57,-45,48,-121,-179,-153,-165,-173
-115,-105,14,109,-57,-45,48,-121,-179,-153,-159,-173
-109,-111,2,109,-52,-57,54,-121,-179,-147,-159,-167
-109,-117,-4,109,-52,-63,48,-121,-179,-153,-165,-179
-103,-123,-16,109,-52,-69,48,-127,-173,-147,-165,-173
-97,-129,-28,109,-40,-81,48,-127,-179,-147,-165,-173
-103,-141,-34,121,-40,-87,48,-133,-185,-153,-159,-173
-103,-123,-16,109,-52,-69,48,-133,-185,-153,-159,-173
-109,-105,8,103,-52,-51,42,-139,-191,-159,-165,-173
-109,-99,14,103,-57,-45,42,-139,-191,-159,-165,-173
-109,-105,8,103,-52,-51,48,-133,-185,-153,-165,-173
-109,-105,8,103,-52,-51,48,-133,-185,-153,-165,-173
-115,-93,26,103,-63,-33,48,-127,-185,-153,-171,-173
-115,-93,26,103,-63,-33,48,-127,-185,-153,-171,-173
-121,-105,20,109,-63,-45,54,-121,-179,-141,-165,-167
-121,-111,14,115,-63,-51,66,-115,-179,-141,-153,-167
-121,-111,14,115,-63,-51,78,-109,-167,-135,-141,-155
-121,-111,14,115,-63,-51,78,-103,-167,-129,-135,-155
-115,-81,38,97,-69,-21,72,-109,-173,-135,-141,-155
-109,-63,43,85,-75,-9,66,-109,-173,-135,-141,-155
-97,-39,49,67,-75,9,60,-115,-179,-141,-147,-155
-97,-33,55,61,-75,14,60,-115,-173,-129,-153,-155
-103,-33,61,67,-81,14,66,-115,-167,-123,-141,-149
-109,-33,67,67,-87,14,78,-109,-167,-123,-141,-149
-115,-39,67,73,-93,14,84,-109,-155,-117,-129,-143
-115,-39,67,73,-93,14,84,-109,-155,-117,-129,-137
-115,-57,49,85,-81,3,90,-109,-149,-117,-123,-137
-115,-63,43,85,-81,-3,90,-115,-173,-129,-129,-149
-115,-81,38,97,-69,-21,84,-115,-167,-129,-141,-155
-103,-87,20,91,-57,-33,84,-115,-161,-129,-141,-155
-91,-81,14,85,-52,-33,66,-103,-155,-129,-135,-155
-85,-81,8,79,-52,-39,66,-91,-143,-105,-123,-137
-67,-69,2,67,-40,-33,54,-79,-137,-93,-123,-131
-67,-69,2,67,-40,-33,48,-61,-125,-87,-117,-131
-67,-69,2,67,-40,-33,36,-55,-119,-81,-105,-125
-67,-51,20,55,-52,-15,48,-55,-107,-75,-99,-119
-62,-33,32,43,-52,-3,48,-49,-101,-75,-93,-119
-62,-33,32,43,-52,-3,48,-37,-101,-63,-93,-119
-62,-45,20,49,-46,-15,48,-61,-113,-75,-99,-119
-62,-39,26,49,-52,-9,48,-79,-119,-87,-105,-125
-67,-33,38,49,-52,3,60,-91,-137,-93,-111,-131
-79,-33,43,55,-57,9,60,-103,-143,-99,-117,-131
-79,-27,43,49,-63,14,54,-115,-155,-111,-129,-143
-79,-27,43,49,-63,14,54,-121,-161,-111,-129,-143
-73,-21,43,43,-57,14,30,-127,-167,-123,-135,-149
-73,-33,43,49,-52,3,24,-133,-173,-129,-135,-149
-73,-45,32,55,-52,-9,12,-145,-179,-135,-135,-143
-67,-57,14,61,-46,-21,12,-139,-179,-129,-129,-143
-67,-75,-4,67,-40,-39,12,-127,-173,-117,-123,-137
-67,-87,-16,73,-34,-51,18,-121,-167,-111,-117,-137
-85,-99,-10,91,-46,-57,24,-121,-167,-117,-123,-149
-91,-105,-10,97,-46,-57,24,-121,-167,-123,-129,-149
-103,-99,8,97,-52,-45,24,-139,-179,-123,-135,-155
-121,-111,14,115,-63,-51,24,-157,-197,-147,-153,-173
-115,-135,-16,121,-52,-75,24,-169,-209,-165,-165,-179
-133,-153,-16,139,-52,-87,24,-175,-215,-165,-165,-179
-133,-153,-16,139,-52,-87,24,-187,-227,-177,-171,-191
-139,-153,-10,145,-57,-81,18,-187,-227,-183,-177,-191
-139,-147,-4,139,-63,-75,18,-187,-233,-183,-183,-197
-139,-147,-4,139,-63,-75,18,-187,-233,-183,-177,-197
-139,-135,8,133,-69,-63,12,-187,-239,-183,-183,-203
-139,-135,8,133,-69,-63,12,-199,-239,-189,-195,-203
-139,-141,2,139,-63,-69,12,-199,-239,-183,-195,-197
-145,-147,2,145,-69,-75,12,-193,-239,-183,-189,-197
-151,-153,2,151,-69,-75,12,-193,-233,-177,-189,-191
-151,-159,-4,151,-69,-81,18,-187,-233,-171,-189,-191
-145,-147,2,145,-69,-75,18,-181,-227,-171,-183,-185
-139,-147,-4,139,-63,-75,18,-181,-227,-171,-183,-185
-139,-141,2,139,-63,-69,18,-169,-227,-171,-171,-197
-139,-135,8,133,-69,-63,18,-169,-227,-165,-171,-185
-139,-135,8,133,-69,-63,24,-175,-227,-171,-171,-185
-145,-135,14,139,-75,-63,24,-169,-221,-171,-171,-185
-145,-147,2,145,-69,-75,30,-175,-215,-171,-171,-185
-145,-147,2,145,-69,-75,36,-175,-215,-171,-171,-185
-133,-105,32,115,-75,-39,12,-187,-215,-171,-165,-185
-139,-117,26,127,-75,-45,24,-169,-215,-159,-153,-185
-139,-141,2,139,-63,-69,36,-145,-203,-147,-159,-185
-151,-147,8,145,-75,-69,54,-139,-197,-159,-171,-197
-151,-153,2,151,-69,-75,78,-115,-197,-159,-183,-209
-157,-159,2,157,-75,-81,132,-61,-191,-171,-183,-209
-157,-165,-4,157,-69,-87,192,-2,-173,-189,-213,-215
-181,-165,20,169,-93,-75,252,82,-155,-207,-231,-233
-181,-147,38,163,-105,-57,336,178,-113,-195,-231,-245
-163,-147,20,151,-87,-63,414,310,-35,-165,-213,-227
-127,-111,20,115,-69,-45,462,478,78,-99,-159,-197
-62,-81,-16,67,-28,-51,480,688,234,-4,-87,-155
16,-33,-58,14,38,-45,504,916,438,146,14,-59
118,80,-34,-100,80,20,492,1132,672,338,188,60
214,236,26,-226,98,128,480,1258,858,548,380,222
322,416,85,-370,116,254,450,1336,1062,806,596,414
436,620,175,-526,134,398,342,1324,1284,1118,872,648
526,860,325,-694,98,596,138,1030,1380,1400,1136,876
574,1112,529,-844,20,824,-101,508,1344,1652,1400,1110
604,1328,721,-964,-52,1022,-335,94,1374,1940,1682,1338
610,1454,841,-1030,-111,1154,-569,-97,1566,2239,1928,1524
580,1412,823,-994,-117,1118,-737,-187,1788,2472,2036,1560
478,1274,787,-880,-147,1034,-725,-319,1884,2490,1958,1446
352,1082,727,-712,-183,908,-587,-505,1770,2269,1706,1218
220,824,595,-520,-183,716,-515,-715,1488,1898,1358,948
70,578,505,-322,-213,542,-587,-937,1158,1502,1004,672
-97,428,529,-160,-309,476,-659,-1177,768,1094,680,414
-247,314,559,-28,-399,440,-587,-1255,432,734,386,204
-319,200,523,55,-417,356,-503,-1219,180,464,194,48
-385,68,457,151,-417,260,-503,-1237,-137,182,14,-71
-427,-16,415,217,-417,200,-539,-1291,-521,-123,-171,-203
-403,-51,343,229,-375,140,-551,-1213,-695,-303,-261,-263
-337,-81,253,211,-291,80,-503,-1015,-653,-291,-249,-251
-289,-123,157,205,-225,14,-455,-841,-527,-237,-225,-227
-241,-111,121,175,-183,9,-395,-667,-407,-195,-207,-215
-199,-69,121,133,-159,20,-317,-505,-299,-135,-183,-191
-163,-51,103,103,-135,20,-245,-367,-203,-69,-123,-143
-133,-27,97,79,-117,26,-155,-217,-77,-4,-69,-101
-127,-39,79,79,-105,14,-65,-73,6,38,-45,-83
-139,-81,49,109,-93,-9,18,-2,42,38,-45,-71
-139,-129,14,133,-69,-57,60,34,42,32,-51,-71
-133,-93,43,109,-81,-27,72,46,24,8,-75,-95
-133,-81,43,103,-87,-15,66,40,0,-4,-93,-113
-133,-81,43,103,-87,-15,48,28,0,-9,-93,-125
-127,-69,49,97,-87,-3,42,10,-29,-15,-105,-125
-127,-69,49,97,-87,-3,36,10,-35,-27,-105,-125
-127,-81,43,103,-81,-15,42,10,-35,-27,-99,-119
-121,-99,26,109,-69,-39,48,16,-41,-33,-105,-119
-121,-105,20,109,-63,-45,60,34,-35,-27,-99,-113
-115,-111,8,109,-57,-51,84,52,-29,-27,-93,-113
-121,-117,8,115,-57,-57,96,70,-23,-33,-93,-113
-121,-123,2,121,-57,-63,96,82,-23,-33,-93,-119
-121,-123,2,121,-57,-63,96,88,-17,-21,-99,-119
-115,-123,-4,115,-52,-63,90,88,-17,-21,-99,-119
-109,-117,-4,109,-52,-63,90,94,-11,-27,-93,-119
-115,-111,8,109,-57,-51,84,94,-11,-21,-93,-113
-109,-105,8,103,-52,-51,84,94,-5,-27,-87,-113
-103,-105,2,103,-52,-51,90,112,0,-15,-81,-107
-103,-105,2,103,-52,-51,90,118,0,-9,-75,-101
-103,-105,2,103,-52,-51,96,124,0,-9,-75,-95
-91,-99,-4,91,-52,-51,96,136,12,-4,-69,-89
-85,-93,-4,85,-46,-51,102,148,18,-4,-63,-89
-85,-99,-10,91,-46,-57,102,154,30,8,-63,-83
-85,-99,-10,91,-46,-57,102,160,36,8,-57,-77
-85,-99,-10,91,-46,-57,102,166,36,14,-51,-71
-79,-99,-16,85,-40,-57,102,172,48,20,-51,-71
-73,-93,-16,79,-34,-57,102,178,54,14,-57,-65
-73,-93,-16,79,-34,-57,102,184,60,26,-51,-65
-62,-75,-10,67,-34,-45,108,190,72,26,-51,-59
-62,-75,-10,67,-34,-45,108,208,72,32,-45,-59
-67,-81,-10,73,-34,-45,108,220,84,38,-33,-53
-67,-81,-10,73,-34,-45,114,226,90,44,-33,-53
-67,-81,-10,73,-34,-45,114,232,96,50,-21,-59
-62,-75,-10,67,-34,-45,114,232,108,56,-15,-47
-67,-69,2,67,-40,-33,114,238,126,62,-10,-35
-67,-63,8,61,-46,-27,114,250,126,68,-10,-35
-67,-57,14,61,-46,-21,114,262,144,74,-10,-29
-67,-45,26,55,-52,-9,114,268,150,80,-10,-29
-62,-45,14,49,-40,-15,114,292,156,92,-4,-11
-62,-33,26,43,-46,-3,114,292,174,92,-4,-11
-56,-39,8,37,-34,-15,114,316,186,104,-4,-5
-56,-45,2,43,-28,-21,120,328,210,116,8,7
-50,-45,-4,37,-22,-21,120,340,222,122,20,7
-50,-39,2,37,-28,-15,120,352,228,128,26,13
-44,-33,2,37,-22,-15,120,352,234,128,38,7
-38,-16,20,32,-28,9,114,352,246,134,44,13
-38,-16,26,26,-28,14,120,358,258,152,56,25
-38,-16,14,32,-28,3,120,394,276,170,68,30
-44,-21,14,37,-28,-3,132,418,294,194,86,36
-38,-21,8,37,-22,-3,132,430,312,212,98,42
-26,-16,2,26,-16,-3,126,442,318,212,98,48
-26,-16,14,20,-16,9,126,460,324,212,104,54
-26,8,38,8,-28,20,120,466,330,212,104,60
-8,20,32,-4,-16,20,120,478,336,230,104,66
-8,32,43,-10,-22,32,114,484,354,236,110,72
-8,32,43,-10,-22,32,114,496,354,236,122,78
-2,44,43,-22,-22,44,114,508,366,236,128,84
10,44,38,-28,-10,38,114,532,384,254,140,96
22,38,20,-28,2,26,114,556,402,272,152,108
22,56,38,-40,-4,44,114,580,420,290,164,114
34,56,26,-46,8,38,114,604,444,302,182,126
40,68,32,-52,8,44,114,628,468,314,182,138
46,62,20,-52,14,38,120,646,480,320,194,150
46,56,14,-52,20,32,120,658,486,338,200,156
46,50,8,-46,20,26,126,670,498,344,206,174
46,44,2,-46,26,20,126,688,510,350,212,180
52,62,14,-58,20,32,120,694,522,362,218,180
64,80,20,-70,26,44,120,718,540,374,230,192
70,116,43,-94,14,80,114,724,552,380,236,198
70,134,55,-100,2,98,114,730,558,386,242,210
82,140,49,-112,14,98,114,748,564,392,254,216
82,128,43,-106,20,86,114,766,576,404,260,228
94,116,26,-106,38,68,120,790,588,410,278,240
94,110,20,-100,38,62,120,796,600,416,278,240
100,104,8,-100,50,50,126,802,600,422,278,246
106,110,8,-106,50,56,114,808,600,422,284,258
106,116,14,-112,50,62,114,808,600,422,290,264
106,116,14,-112,50,62,114,808,600,422,290,270
112,122,14,-118,50,62,108,808,600,416,290,270
112,128,20,-118,50,68,108,814,600,422,290,270
112,134,26,-124,44,74,102,808,594,416,296,270
112,140,32,-124,44,80,102,808,588,410,296,270
106,140,38,-124,38,86,102,808,582,410,290,270
106,134,32,-118,38,80,96,802,582,410,290,270
100,140,43,-118,32,86,96,790,570,404,278,264
100,152,43,-124,26,98,90,790,564,398,278,258
106,146,43,-124,32,92,84,778,558,392,278,264
106,146,43,-124,32,92,78,766,546,386,272,252
106,140,38,-124,38,86,78,760,540,380,272,258
100,128,32,-112,38,74,78,760,528,380,272,258
94,128,38,-112,32,80,78,742,528,374,272,258
94,134,43,-112,26,86,78,730,516,368,260,258
82,134,43,-106,14,92,78,718,504,368,260,258
76,122,43,-100,14,80,78,694,498,356,254,252
70,128,49,-100,8,92,66,676,480,350,248,252
64,128,55,-94,2,92,66,652,462,332,242,234
64,122,49,-94,2,86,66,628,444,326,236,240
64,122,49,-94,2,86,66,610,426,314,230,234
52,110,49,-82,-4,80,72,586,414,308,230,222
40,92,43,-64,-4,68,72,574,396,290,224,216
28,86,49,-58,-16,68,78,544,384,278,206,204
22,80,49,-52,-16,68,78,514,366,272,200,198
10,68,49,-40,-22,62,72,478,342,260,188,186
10,62,43,-34,-22,56,78,454,324,248,176,180
10,56,43,-34,-16,50,78,418,300,236,176,186
-8,62,61,-28,-40,62,84,388,282,230,158,168
-8,50,49,-22,-34,50,78,358,258,218,152,162
-20,38,49,-10,-40,44,78,334,240,194,140,150
-20,32,43,-4,-34,38,72,304,210,188,128,138
-20,26,43,-4,-34,32,72,286,198,176,116,132
-32,26,49,2,-46,38,78,256,174,158,104,114
-44,20,55,14,-52,38,78,232,156,134,86,102
-56,2,49,26,-52,26,84,214,150,122,80,96
-62,-10,55,37,-57,20,96,190,132,116,74,90
-67,-16,55,37,-57,20,96,160,114,104,62,84
-67,-16,49,37,-57,14,96,136,96,86,50,72
-73,-16,61,37,-63,20,96,112,72,68,38,72
-85,-16,67,43,-75,20,102,88,54,62,26,60
-85,-21,55,49,-69,14,102,82,42,50,20,66
-91,-27,55,55,-75,14,102,64,24,38,8,48
-97,-33,55,61,-75,14,102,52,18,32,8,54
-97,-51,43,73,-69,-3,102,46,6,32,2,48
-97,-57,43,73,-63,-9,102,22,0,20,2,48
-103,-57,43,79,-69,-3,102,16,-5,14,-10,42
-109,-57,43,79,-75,-3,108,-2,-17,8,-10,36
-121,-57,55,85,-87,3,108,-8,-17,2,-10,30
-115,-63,43,85,-81,-3,102,-8,-29,-4,-10,30
-115,-81,38,97,-69,-21,102,-8,-35,-4,-10,30
-109,-81,32,91,-63,-27,102,-8,-41,-4,-10,36
-109,-81,32,91,-63,-27,102,-13,-47,-9,-10,36
-109,-87,26,97,-63,-33,108,-13,-47,-4,-15,36
-115,-87,32,97,-69,-27,102,-25,-53,-9,-15,30
-115,-69,43,91,-75,-9,108,-19,-53,-9,-21,30
-115,-69,43,91,-75,-9,108,-31,-53,-9,-21,30
-115,-81,38,97,-69,-21,108,-31,-53,-15,-21,30
-121,-87,38,103,-75,-27,108,-37,-53,-15,-27,30
-121,-93,32,103,-69,-33,108,-37,-53,-21,-27,30
-121,-93,32,103,-69,-33,108,-31,-53,-21,-21,30
-121,-93,32,103,-69,-33,114,-31,-53,-21,-21,30
-121,-93,32,103,-69,-33,114,-31,-53,-21,-21,30
-121,-93,32,103,-69,-33,114,-31,-47,-21,-21,30
-121,-93,32,103,-69,-33,114,-31,-47,-21,-21,30
-121,-99,26,109,-69,-39,114,-25,-41,-9,-15,30
-121,-105,20,109,-63,-45,114,-25,-41,-9,-15,30
-127,-93,38,109,-75,-27,114,-31,-47,-4,-10,30
-127,-99,32,109,-75,-33,114,-31,-47,-4,-10,30
-127,-87,43,103,-81,-21,120,-37,-47,-4,-15,30
-127,-93,38,109,-75,-27,120,-31,-47,-4,-15,30
-127,-81,43,103,-81,-15,114,-37,-41,-4,-21,36
-127,-69,49,97,-87,-3,114,-31,-41,-4,-21,36
-121,-81,43,97,-75,-21,114,-25,-35,-4,-15,36
-121,-87,38,103,-75,-27,114,-13,-23,-4,-15,36
-115,-99,20,103,-63,-39,120,-8,-17,-4,-10,42
-115,-105,14,109,-57,-45,120,-8,-11,-4,-10,42
-121,-87,38,103,-75,-27,114,-8,-11,-4,-10,30
-115,-81,38,97,-69,-21,114,-8,-11,-4,-10,30
-121,-69,43,91,-81,-9,108,-13,-23,-4,-10,30
-121,-57,55,85,-87,3,108,-8,-23,-4,-15,30
-115,-51,55,79,-87,9,108,-8,-23,-4,-10,30
-115,-63,43,85,-81,-3,114,-8,-23,-4,-10,30
-109,-57,43,79,-75,-3,120,-8,-23,-4,-10,30
-109,-51,49,79,-81,3,120,-8,-23,-4,-10,30
-109,-57,43,79,-75,-3,120,-8,-29,-4,-10,30
-109,-57,43,79,-75,-3,120,-8,-29,-4,-10,30
-109,-63,43,85,-75,-9,126,-8,-29,-4,-10,42
-109,-63,43,85,-75,-9,126,-8,-29,-4,-10,42
-115,-63,43,85,-81,-3,120,-8,-29,-4,-10,36
-115,-63,43,85,-81,-3,120,-8,-29,-4,-10,36
-115,-57,49,85,-81,3,114,-8,-23,-4,-10,30
-115,-45,61,79,-87,14,114,-8,-23,-4,-10,30
-109,-69,43,85,-69,-15,120,-8,-11,2,-10,30
-109,-81,32,91,-63,-27,126,-2,-11,2,-10,36
-103,-93,14,97,-52,-39,132,10,-11,8,-10,42
-103,-99,8,97,-52,-45,132,16,-17,8,-4,48
-109,-93,20,97,-57,-39,132,10,-17,2,-4,48
-109,-87,26,97,-63,-33,132,10,-5,2,-4,48
-115,-81,38,97,-69,-21,132,10,-5,-4,-4,48
-115,-69,43,91,-75,-9,126,10,-23,-4,-4,42
-115,-75,43,91,-75,-15,132,10,-23,-4,-4,42
-115,-87,32,97,-69,-27,132,10,-23,-4,-4,42
-115,-93,26,103,-63,-33,144,4,-23,-4,-4,42
-115,-81,38,97,-69,-21,144,4,-35,-4,-4,42
-115,-75,43,91,-75,-15,144,-2,-35,-4,-10,36
-115,-81,38,97,-69,-21,144,-2,-23,-4,-10,36
-115,-75,43,91,-75,-15,150,-2,-35,-4,-10,36
-115,-75,43,91,-75,-15,156,-2,-41,-4,-10,36
-115,-87,32,97,-69,-27,150,-2,-47,-4,-10,36
-115,-87,32,97,-69,-27,150,-8,-47,-9,-10,36
-115,-87,32,97,-69,-27,138,-8,-53,-15,-15,36
-115,-87,32,97,-69,-27,138,-8,-53,-15,-15,36
-115,-75,43,91,-75,-15,132,-8,-53,-21,-15,30
-115,-75,43,91,-75,-15,132,-13,-59,-21,-15,30
-115,-75,43,91,-75,-15,126,-13,-59,-27,-15,30
-115,-81,38,97,-69,-21,126,-13,-59,-27,-15,30
-133,-87,43,109,-87,-21,132,-19,-53,-21,-15,30
-121,-75,43,97,-81,-15,132,-19,-59,-27,-15,30
-127,-81,43,103,-81,-15,138,-19,-65,-33,-21,30
-127,-105,26,115,-69,-39,132,-19,-71,-33,-21,30
-121,-99,26,109,-69,-39,132,-37,-77,-33,-21,30
-121,-99,26,109,-69,-39,132,-37,-77,-33,-27,30
-115,-93,26,103,-63,-33,132,-49,-89,-45,-27,25
-121,-93,32,103,-69,-33,132,-49,-89,-45,-27,25
-127,-99,32,109,-75,-33,132,-43,-89,-39,-27,25
-127,-99,32,109,-75,-33,132,-49,-89,-39,-27,25
-133,-99,38,115,-81,-33,132,-43,-89,-39,-33,25
-133,-99,38,115,-81,-33,120,-49,-95,-45,-39,19
-127,-87,43,103,-81,-21,120,-61,-101,-51,-39,19
-127,-87,43,103,-81,-21,126,-61,-101,-51,-39,19
-121,-87,38,103,-75,-27,126,-55,-101,-57,-39,19
-121,-87,38,103,-75,-27,126,-55,-101,-63,-39,19
-121,-93,32,103,-69,-33,126,-55,-107,-57,-33,25
-127,-105,26,115,-69,-39,126,-55,-107,-51,-33,30
-127,-117,14,121,-63,-51,126,-55,-101,-45,-27,30
-127,-123,8,121,-63,-57,126,-61,-101,-39,-27,30
-133,-105,32,115,-75,-39,114,-79,-107,-45,-39,30
-133,-93,43,109,-81,-27,114,-79,-113,-57,-39,30
-139,-81,49,109,-93,-9,102,-91,-125,-63,-45,25
-139,-87,43,109,-93,-15,102,-91,-137,-69,-45,25
-133,-87,43,109,-87,-21,108,-91,-131,-69,-45,25
-133,-87,43,109,-87,-21,108,-91,-131,-75,-45,19
-127,-81,43,103,-81,-15,114,-91,-131,-75,-51,19
-127,-81,43,103,-81,-15,114,-91,-131,-75,-51,19
-121,-93,32,103,-69,-33,114,-85,-131,-69,-51,30
-121,-99,26,109,-69,-39,114,-85,-131,-69,-51,30
-115,-105,14,109,-57,-45,114,-79,-131,-63,-51,30
-115,-105,14,109,-57,-45,114,-79,-131,-63,-51,30
-121,-105,20,109,-63,-45,108,-85,-131,-63,-45,30
-121,-105,20,109,-63,-45,108,-85,-131,-69,-45,30
-127,-117,14,121,-63,-51,114,-85,-119,-69,-39,30
-127,-117,14,121,-63,-51,114,-85,-119,-63,-39,30
-133,-117,20,121,-69,-51,114,-79,-131,-63,-39,30
-133,-117,20,121,-69,-51,108,-91,-131,-69,-51,30
-139,-123,20,127,-75,-51,108,-97,-137,-69,-51,30
-139,-141,2,139,-63,-69,108,-85,-131,-69,-45,30
-127,-129,2,127,-57,-63,108,-91,-131,-69,-51,30
-127,-117,14,121,-63,-51,108,-91,-131,-69,-51,30
-127,-111,20,115,-69,-45,108,-97,-131,-81,-57,25
-127,-99,32,109,-75,-33,108,-85,-131,-81,-57,25
-127,-99,32,109,-75,-33,108,-85,-131,-75,-51,30
-133,-93,43,109,-81,-27,108,-97,-137,-81,-51,25
-133,-99,38,115,-81,-33,108,-97,-137,-75,-45,30
-133,-93,43,109,-81,-27,108,-97,-143,-75,-45,25
-139,-93,43,115,-87,-21,102,-91,-143,-75,-51,25
-139,-99,43,115,-87,-27,102,-97,-143,-75,-51,25
-145,-99,43,121,-93,-27,102,-91,-143,-75,-57,25
-139,-99,43,115,-87,-27,102,-91,-137,-75,-57,25
-133,-105,32,115,-75,-39,96,-97,-137,-81,-57,19
-133,-99,38,115,-81,-33,96,-103,-143,-81,-63,19
-127,-81,43,103,-81,-15,90,-109,-149,-87,-63,7
-139,-75,55,103,-99,-3,90,-109,-149,-87,-63,7
-127,-93,38,109,-75,-27,96,-103,-143,-81,-57,13
-127,-99,32,109,-75,-33,96,-103,-143,-75,-51,13
-133,-111,26,121,-75,-45,102,-91,-137,-69,-45,19
-133,-123,14,127,-69,-57,102,-91,-137,-63,-39,25
-127,-117,14,121,-63,-51,102,-91,-143,-69,-45,19
-127,-105,26,115,-69,-39,96,-103,-149,-81,-51,13
-127,-93,38,109,-75,-27,96,-103,-155,-87,-63,7
-127,-87,43,103,-81,-21,96,-103,-149,-93,-69,7
-127,-93,38,109,-75,-27,96,-103,-149,-93,-63,13
-133,-99,38,115,-81,-33,96,-103,-149,-93,-63,13
-133,-99,38,115,-81,-33,90,-103,-149,-93,-63,19
-133,-93,43,109,-81,-27,90,-103,-149,-93,-63,19
-127,-93,38,109,-75,-27,96,-103,-149,-81,-63,19
-127,-93,38,109,-75,-27,96,-103,-149,-81,-63,19
-121,-87,38,103,-75,-27,96,-103,-155,-81,-63,19
-121,-87,38,103,-75,-27,96,-103,-155,-81,-69,19
-127,-93,38,109,-75,-27,96,-109,-155,-87,-69,30
-127,-93,38,109,-75,-27,96,-109,-155,-87,-69,30
-133,-93,43,109,-81,-27,90,-115,-155,-93,-69,30
-133,-87,43,109,-87,-21,84,-115,-155,-93,-69,30
-133,-81,43,103,-87,-15,90,-115,-155,-99,-69,30
-133,-93,43,109,-81,-27,90,-115,-155,-99,-69,30
-133,-87,43,109,-87,-21,102,-115,-161,-105,-69,30
-133,-69,55,97,-93,-3,102,-115,-161,-105,-69,30
-133,-81,43,103,-87,-15,102,-121,-155,-99,-69,36
-133,-87,43,109,-87,-21,96,-115,-155,-93,-69,42
-133,-111,26,121,-75,-45,96,-109,-149,-87,-63,42
-133,-123,14,127,-69,-57,102,-97,-149,-81,-57,36
-133,-117,20,121,-69,-51,96,-103,-149,-87,-57,36
-133,-111,26,121,-75,-45,96,-103,-149,-87,-57,36
-133,-99,38,115,-81,-33,90,-109,-155,-93,-63,36
-139,-93,43,115,-87,-21,84,-115,-161,-93,-63,36
-139,-93,43,115,-87,-21,84,-121,-167,-93,-69,42
-133,-93,43,109,-81,-27,84,-121,-167,-99,-69,42
-133,-99,38,115,-81,-33,84,-127,-161,-99,-75,42
-133,-99,38,115,-81,-33,90,-127,-161,-93,-69,48
-139,-105,38,121,-81,-33,96,-121,-161,-93,-69,54
-139,-111,32,121,-81,-39,96,-121,-161,-93,-69,48
-145,-111,38,127,-87,-39,102,-121,-161,-93,-69,54
-145,-117,32,127,-81,-45,96,-121,-167,-93,-69,48
-139,-123,20,127,-75,-51,90,-115,-167,-93,-75,42
-133,-117,20,121,-69,-51,90,-115,-167,-93,-75,42
-121,-105,20,109,-63,-45,90,-115,-167,-93,-75,36
-115,-87,32,97,-69,-27,90,-127,-173,-105,-81,30
-109,-81,32,91,-63,-27,78,-133,-179,-111,-87,30
-109,-87,26,97,-63,-33,78,-133,-185,-111,-87,30
-103,-87,20,91,-57,-33,72,-133,-191,-111,-93,30
-103,-87,20,91,-57,-33,72,-133,-185,-111,-87,30
-97,-93,8,91,-52,-45,78,-133,-185,-105,-81,30
-91,-105,-10,97,-46,-57,78,-133,-185,-117,-87,30
-85,-117,-28,97,-34,-75,84,-127,-179,-99,-81,30
-73,-129,-52,97,-16,-93,84,-127,-179,-99,-75,30
-73,-117,-40,91,-22,-81,84,-133,-197,-111,-87,25
-73,-105,-28,85,-28,-69,78,-139,-197,-117,-93,19
-73,-75,2,73,-46,-39,72,-145,-203,-129,-105,7
-73,-63,14,67,-52,-27,66,-151,-197,-135,-111,7
-73,-93,-16,79,-34,-57,72,-151,-185,-117,-99,19
-67,-117,-46,91,-16,-81,72,-145,-185,-117,-87,25
-67,-111,-40,85,-22,-75,72,-145,-191,-123,-93,25
-67,-111,-40,85,-22,-75,72,-145,-191,-123,-93,25
-67,-105,-34,85,-22,-69,72,-145,-197,-129,-99,25
-67,-105,-34,85,-22,-69,72,-145,-197,-129,-99,25
-67,-93,-22,79,-28,-57,66,-157,-203,-129,-99,19
-67,-93,-22,79,-28,-57,66,-157,-203,-129,-105,19
-67,-105,-34,85,-22,-69,60,-157,-203,-129,-105,19
-67,-105,-34,85,-22,-69,60,-157,-203,-129,-99,19
-62,-99,-34,79,-22,-69,66,-157,-203,-123,-99,25
-62,-99,-34,79,-22,-69,66,-157,-203,-129,-105,13
-62,-93,-34,73,-16,-63,66,-163,-197,-123,-105,19
-62,-93,-40,67,-10,-63,72,-163,-203,-123,-105,19
-62,-117,-58,85,-4,-87,72,-157,-209,-123,-99,19
-62,-105,-46,79,-10,-75,72,-157,-209,-123,-99,19
-62,-99,-34,79,-22,-69,66,-151,-215,-123,-105,19
-62,-99,-34,79,-22,-69,66,-151,-215,-123,-105,19
-62,-105,-46,79,-10,-75,66,-157,-209,-123,-105,13
-62,-99,-40,73,-16,-69,66,-163,-209,-129,-105,13
-62,-87,-28,67,-22,-57,60,-169,-209,-135,-111,7
-62,-81,-22,67,-22,-51,60,-175,-209,-141,-111,7
-62,-87,-28,67,-22,-57,66,-163,-203,-129,-105,13
-62,-87,-28,67,-22,-57,84,-157,-203,-129,-99,13
-62,-81,-28,61,-16,-51,96,-145,-191,-123,-87,25
-62,-75,-22,61,-22,-45,102,-139,-191,-117,-87,25
-56,-63,-16,49,-22,-39,96,-145,-191,-111,-87,25
-50,-51,-10,43,-22,-27,96,-145,-191,-111,-81,25
-38,-45,-16,37,-10,-27,90,-151,-191,-105,-81,25
-38,-45,-16,37,-10,-27,96,-151,-185,-93,-81,25
-44,-39,-4,37,-22,-21,102,-145,-185,-93,-75,25
-44,-39,-4,37,-22,-21,114,-139,-185,-93,-75,25
-50,-39,2,37,-28,-15,120,-133,-179,-93,-69,25
-44,-39,-4,37,-22,-21,120,-133,-179,-93,-69,30
-44,-45,-10,37,-16,-27,126,-139,-173,-99,-63,30
-44,-45,-10,37,-16,-27,120,-145,-197,-111,-69,19
-44,-51,-16,37,-16,-33,114,-151,-191,-117,-81,13
-32,-51,-28,37,-4,-39,108,-151,-185,-117,-81,13
-20,-45,-34,37,8,-39,90,-139,-179,-117,-75,7
-14,-39,-34,32,8,-33,90,-127,-167,-93,-63,25
4,-27,-40,20,20,-33,78,-115,-161,-81,-63,25
4,-21,-34,14,20,-27,72,-97,-149,-75,-57,25
-2,-27,-34,20,14,-27,60,-97,-149,-75,-51,30
-2,-16,-16,14,8,-9,72,-97,-137,-69,-45,30
-2,-10,-4,8,2,3,72,-97,-137,-75,-45,30
-2,-10,-4,8,2,3,72,-85,-137,-63,-45,30
-2,-27,-34,20,14,-27,72,-97,-143,-69,-45,30
-2,-33,-40,26,20,-33,72,-115,-143,-75,-45,30
-8,-45,-46,32,20,-45,84,-115,-155,-75,-45,30
-20,-57,-46,37,14,-51,84,-127,-155,-75,-45,30
-26,-51,-34,37,2,-39,78,-145,-173,-87,-57,25
-26,-45,-28,37,2,-33,78,-151,-179,-93,-57,19
-26,-39,-22,37,-4,-27,54,-163,-191,-105,-63,13
-26,-45,-28,37,2,-33,48,-169,-197,-117,-63,7
-20,-39,-28,37,2,-33,36,-187,-209,-129,-69,13
-8,-45,-46,32,20,-45,36,-187,-209,-129,-69,13
-2,-45,-52,32,26,-45,36,-181,-209,-123,-69,19
4,-51,-64,32,32,-57,42,-181,-203,-123,-69,19
-8,-69,-70,37,32,-69,42,-169,-197,-123,-69,13
-14,-75,-70,37,26,-69,42,-163,-197,-129,-69,13
-20,-75,-64,37,20,-69,36,-169,-203,-123,-69,13
-38,-87,-58,55,8,-69,36,-181,-221,-147,-81,-5
-38,-111,-82,67,20,-93,30,-199,-233,-159,-99,-11
-56,-129,-82,85,14,-105,30,-211,-239,-159,-99,-11
-62,-129,-76,85,8,-99,24,-229,-245,-165,-111,-23
-62,-129,-70,91,2,-99,18,-235,-245,-171,-117,-23
-62,-129,-64,91,-4,-99,18,-235,-245,-177,-123,-29
-62,-129,-64,91,-4,-99,18,-235,-245,-177,-117,-29
-67,-123,-52,91,-16,-87,12,-235,-251,-183,-123,-35
-67,-123,-52,91,-16,-87,12,-247,-251,-189,-135,-35
-67,-123,-52,91,-16,-87,12,-247,-257,-189,-135,-35
-73,-123,-46,97,-22,-87,12,-241,-257,-189,-129,-35
-79,-123,-40,97,-28,-81,12,-241,-263,-189,-129,-35
-79,-123,-40,97,-28,-81,18,-235,-263,-183,-129,-35
-73,-123,-46,97,-22,-87,24,-229,-251,-183,-123,-23
-67,-123,-52,91,-16,-87,24,-229,-251,-183,-123,-23
-67,-129,-58,97,-10,-93,30,-217,-245,-183,-111,-29
-67,-123,-52,91,-16,-87,30,-217,-245,-177,-111,-17
-67,-117,-46,91,-16,-81,30,-223,-245,-177,-111,-17
-73,-117,-40,91,-22,-81,30,-217,-239,-177,-111,-17
-73,-123,-46,97,-22,-87,30,-223,-239,-171,-111,-17
-73,-123,-46,97,-22,-87,36,-223,-239,-171,-111,-17
-73,-105,-28,85,-28,-69,24,-223,-239,-159,-105,-17
-67,-81,-10,73,-34,-45,12,-229,-245,-171,-117,-29
-79,-105,-22,91,-34,-63,24,-217,-239,-171,-123,-29
-91,-135,-40,109,-34,-87,54,-187,-221,-171,-123,-29
-79,-117,-34,97,-28,-75,78,-163,-221,-183,-123,-41
-85,-111,-22,97,-40,-69,132,-121,-215,-195,-135,-47
-97,-117,-16,103,-46,-69,192,-49,-197,-213,-165,-77
-109,-141,-28,121,-46,-87,252,22,-167,-219,-171,-95
-109,-159,-46,133,-40,-105,324,130,-125,-207,-159,-95
-103,-135,-28,115,-46,-81,390,232,-71,-177,-141,-77
-62,-87,-28,67,-22,-57,438,370,6,-123,-111,-53
-2,-57,-64,37,32,-57,480,568,150,-33,-39,1
76,-21,-106,-22,92,-63,504,808,330,86,50,72
154,80,-70,-118,116,14,504,1024,540,242,176,180
262,260,2,-262,134,128,480,1180,750,434,344,312
370,452,73,-412,146,260,468,1276,960,668,548,498
484,656,163,-568,164,410,366,1264,1146,944,800,696
598,896,289,-742,152,596,174,1018,1260,1220,1076,936
688,1136,439,-916,128,788,-53,532,1236,1472,1328,1170
742,1352,601,-1048,68,980,-323,70,1218,1736,1586,1398
760,1490,727,-1126,14,1112,-593,-169,1380,2042,1844,1608
742,1502,757,-1126,-10,1130,-767,-253,1614,2299,2024,1716
658,1382,721,-1018,-34,1052,-779,-367,1752,2377,2018,1668
490,1178,679,-832,-87,932,-683,-565,1710,2209,1814,1476
316,932,607,-622,-141,770,-623,-781,1476,1862,1484,1194
184,716,529,-448,-165,626,-695,-979,1182,1466,1124,894
46,566,517,-304,-231,542,-761,-1177,864,1094,794,624
-91,410,505,-154,-291,458,-731,-1267,534,734,488,390
-193,254,451,-28,-315,350,-629,-1225,270,452,260,216
-259,140,397,49,-321,266,-617,-1207,-17,218,98,84
-301,44,343,121,-315,194,-659,-1267,-395,-51,-63,-23
-301,-16,283,151,-291,134,-635,-1255,-671,-279,-195,-113
-271,-45,217,157,-243,80,-563,-1111,-689,-351,-231,-125
-241,-75,157,157,-201,32,-503,-913,-575,-303,-201,-101
-205,-99,97,151,-153,3,-407,-715,-431,-249,-171,-77
-163,-69,85,115,-123,14,-317,-541,-311,-195,-135,-59
-115,-4,115,49,-111,56,-245,-391,-203,-129,-87,-23
-62,20,85,26,-69,50,-167,-241,-89,-51,-33,30
-44,-4,43,26,-40,14,-77,-109,-5,-4,-10,36
-44,-16,26,32,-34,9,-18,-37,0,-4,-10,30
-44,-21,14,37,-28,-3,24,-13,-5,-15,-15,30
-50,-45,-4,37,-22,-21,36,-8,-11,-39,-27,25
-62,-51,2,49,-34,-21,42,-8,-23,-57,-45,7
-62,-57,-4,49,-28,-27,30,-13,-23,-69,-45,-5
-62,-63,-4,55,-34,-33,36,-25,-47,-75,-57,-5
-62,-69,-10,61,-28,-39,36,-25,-47,-87,-57,-5
-62,-69,-4,61,-34,-39,36,-31,-59,-93,-63,-11
-62,-75,-16,61,-28,-45,42,-25,-65,-99,-69,-17
-62,-69,-4,61,-34,-39,48,-13,-71,-99,-75,-23
-62,-63,-4,55,-34,-33,72,-8,-65,-99,-69,-29
-62,-69,-10,61,-28,-39,78,10,-65,-105,-63,-23
-62,-69,-10,61,-28,-39,78,22,-65,-105,-63,-29
-62,-69,-16,55,-22,-39,72,28,-65,-93,-63,-23
-56,-63,-16,49,-22,-39,66,28,-65,-93,-63,-23
-56,-69,-22,55,-16,-45,72,40,-53,-93,-57,-23
-62,-75,-22,61,-22,-45,66,40,-53,-87,-57,-17
-62,-81,-28,61,-16,-51,72,46,-41,-87,-51,-17
-56,-93,-46,67,-4,-69,78,64,-35,-75,-45,-11
-56,-93,-46,67,-4,-69,84,70,-29,-75,-39,-5
-56,-93,-46,67,-4,-69,90,76,-29,-75,-39,1
-44,-87,-52,55,2,-69,96,88,-11,-75,-33,7
-38,-81,-52,49,8,-63,102,100,-5,-63,-27,7
-32,-75,-52,43,8,-63,96,100,0,-63,-33,1
-32,-69,-46,43,8,-57,96,106,0,-63,-27,1
-26,-57,-40,37,8,-45,90,106,0,-69,-27,-5
-20,-51,-40,37,8,-45,90,112,0,-63,-27,-11
-20,-45,-34,37,8,-39,84,112,0,-69,-33,-5
-20,-45,-34,37,8,-39,84,118,6,-57,-27,-5
-14,-27,-22,26,2,-21,84,118,12,-57,-27,1
-14,-27,-22,26,2,-21,84,136,12,-51,-21,1
-20,-33,-22,32,2,-27,90,154,18,-45,-15,13
-20,-33,-22,32,2,-27,96,160,24,-39,-15,13
-20,-33,-22,32,2,-27,102,172,24,-33,-10,13
-14,-27,-22,26,2,-21,102,178,36,-27,-10,25
-14,-33,-28,32,8,-27,96,190,60,-21,-4,30
-14,-33,-28,32,8,-27,96,202,60,-15,2,30
-8,-39,-40,32,14,-39,90,220,84,-9,8,30
-8,-33,-34,26,14,-33,90,226,90,-4,8,30
-8,-21,-22,20,8,-21,90,232,90,-4,14,42
-8,-16,-10,14,2,-9,90,232,102,-4,14,42
-8,-16,-4,14,2,-3,90,238,108,-4,8,42
-8,-16,-10,14,2,-9,96,244,126,8,20,54
4,-16,-16,8,14,-9,96,262,138,14,26,60
4,-10,-10,2,8,-3,96,280,144,20,32,66
16,2,-10,-10,14,3,96,286,150,20,38,66
22,26,8,-22,8,14,90,292,168,26,44,72
28,26,2,-28,14,14,96,298,180,44,56,78
28,8,-16,-16,26,3,96,334,204,56,62,90
28,-4,-28,-10,32,-9,108,358,222,80,80,96
34,-10,-40,-10,38,-15,108,370,240,92,86,102
40,-4,-40,-16,44,-15,114,388,246,98,86,102
40,2,-34,-22,38,-9,114,406,258,98,98,108
34,26,-4,-28,20,14,120,418,264,104,98,108
52,32,-16,-40,38,14,120,436,276,122,104,114
52,32,-16,-40,38,14,114,448,306,134,110,126
52,32,-16,-40,38,14,114,460,306,134,122,132
58,32,-22,-46,44,14,114,478,330,146,128,144
70,32,-34,-52,56,9,114,496,348,164,140,156
76,32,-40,-52,62,3,108,508,354,176,146,156
76,50,-22,-64,50,14,108,526,366,188,158,162
82,56,-22,-70,56,14,102,538,378,194,170,162
88,68,-16,-76,56,20,102,556,396,200,170,174
106,86,-16,-94,62,32,96,586,402,200,176,174
112,98,-10,-106,62,38,96,598,414,218,182,180
124,116,-4,-118,68,50,90,622,420,218,182,186
130,128,2,-130,68,62,90,640,432,224,188,192
124,116,-4,-118,68,50,96,652,450,242,200,198
136,110,-22,-124,80,38,102,682,474,260,218,210
130,116,-10,-124,74,50,108,694,486,278,230,222
130,110,-16,-118,74,44,114,712,498,290,242,234
142,140,2,-142,74,68,102,712,492,284,242,228
142,146,8,-142,68,74,102,724,498,290,242,234
154,158,8,-154,74,80,96,724,498,284,248,234
154,170,20,-160,68,92,96,724,504,284,242,228
166,164,2,-166,86,80,102,742,510,296,248,234
172,170,2,-172,86,80,90,754,516,296,254,246
178,176,2,-178,92,86,90,766,522,302,266,252
178,176,2,-178,92,86,90,772,528,302,266,258
178,170,-4,-172,92,80,84,772,528,308,266,258
178,170,-4,-172,92,80,84,778,528,314,266,264
172,164,-4,-166,92,74,78,772,522,320,272,258
172,164,-4,-166,92,74,78,772,516,314,272,258
172,164,-4,-166,92,74,78,772,510,308,266,258
172,158,-10,-166,92,68,72,766,510,302,266,258
172,164,-4,-166,92,74,72,754,498,290,254,252
172,176,8,-172,86,86,66,754,492,278,254,246
178,182,8,-178,86,92,54,742,486,272,254,252
178,182,8,-178,86,92,48,730,474,266,248,246
178,188,14,-184,86,98,42,724,462,260,248,252
172,176,8,-172,86,86,42,724,450,260,248,258
166,170,8,-166,80,86,48,718,456,260,248,258
166,170,8,-166,80,86,48,706,444,254,236,258
154,164,14,-160,74,86,54,694,438,260,236,258
148,146,2,-148,74,68,54,670,432,248,230,252
142,164,26,-154,62,92,36,652,414,236,230,240
136,164,32,-148,56,92,36,628,396,224,224,222
136,170,38,-154,50,98,30,604,384,212,218,216
136,170,38,-154,50,98,30,586,366,200,212,210
136,158,26,-148,56,86,36,562,354,206,212,210
124,140,20,-130,56,74,36,550,336,194,206,204
124,134,14,-130,56,68,42,520,324,194,194,204
118,128,14,-124,56,68,42,490,306,194,188,198
100,116,20,-106,44,62,36,466,288,176,176,174
100,104,8,-100,50,50,42,436,270,164,164,168
94,98,8,-94,44,50,42,406,252,146,164,162
76,98,26,-88,26,56,48,376,240,134,146,144
70,80,14,-76,32,44,48,340,222,122,134,138
58,68,14,-64,26,38,48,316,204,98,122,126
52,56,8,-52,26,26,48,280,174,92,104,114
52,50,2,-52,26,20,48,262,162,80,92,108
46,56,14,-52,20,32,54,232,138,74,86,96
34,56,26,-46,8,38,54,208,120,50,68,84
28,44,20,-34,8,26,60,190,114,50,68,84
10,38,32,-22,-10,32,72,166,96,44,62,78
4,20,20,-10,-4,14,72,136,78,26,50,66
4,14,14,-10,-4,14,72,112,60,8,38,54
-2,8,14,-4,-4,14,72,88,36,-4,26,48
-14,2,20,8,-16,14,78,64,18,-9,14,36
-20,-10,14,14,-16,9,78,52,6,-21,8,36
-26,-16,8,26,-16,3,78,34,0,-33,-4,30
-38,-16,14,32,-28,3,78,16,-5,-39,-4,30
-38,-39,-10,37,-16,-21,78,10,-17,-39,-10,25
-32,-39,-16,37,-10,-27,72,-8,-29,-45,-10,19
-38,-39,-10,37,-16,-21,72,-8,-35,-51,-10,13
-38,-33,-4,37,-16,-15,72,-13,-41,-51,-15,1
-50,-33,8,37,-28,-9,72,-25,-41,-57,-21,-5
-50,-33,8,37,-28,-9,72,-37,-53,-63,-27,-11
-50,-45,-4,37,-22,-21,72,-37,-59,-69,-27,-11
-50,-39,2,37,-28,-15,78,-43,-65,-75,-33,-11
-50,-33,8,37,-28,-9,78,-49,-71,-81,-33,-11
-56,-45,2,43,-28,-21,78,-61,-77,-87,-45,-11
-62,-51,2,49,-34,-21,72,-73,-83,-93,-45,-17
-62,-39,20,43,-46,-9,72,-79,-89,-105,-57,-23
-62,-45,14,49,-40,-15,72,-91,-89,-105,-57,-29
-62,-51,8,49,-40,-21,78,-91,-89,-99,-51,-29
-62,-57,8,55,-40,-27,78,-97,-89,-99,-57,-23
-62,-57,8,55,-40,-27,84,-97,-89,-93,-51,-23
-62,-57,8,55,-40,-27,84,-91,-89,-93,-45,-23
-62,-57,8,55,-40,-27,84,-91,-101,-99,-51,-29
-62,-57,8,55,-40,-27,84,-91,-101,-99,-51,-29
-62,-57,8,55,-40,-27,78,-91,-107,-105,-57,-35
-62,-57,8,55,-40,-27,78,-91,-107,-105,-57,-35
-62,-63,-4,55,-34,-33,78,-85,-95,-99,-57,-35
-62,-63,-4,55,-34,-33,78,-85,-95,-99,-57,-35
-62,-51,8,49,-40,-21,78,-91,-95,-99,-57,-35
-62,-51,8,49,-40,-21,78,-91,-95,-99,-57,-35
-62,-51,8,49,-40,-21,84,-85,-89,-99,-51,-41
-62,-63,-4,55,-34,-33,84,-79,-89,-99,-51,-41
-62,-63,-4,55,-34,-33,78,-73,-77,-99,-45,-47
-62,-57,2,55,-34,-27,78,-67,-77,-99,-45,-47
-62,-51,8,49,-40,-21,78,-67,-77,-93,-45,-47
-62,-51,8,49,-40,-21,78,-61,-71,-93,-45,-47
-62,-45,14,49,-40,-15,84,-61,-71,-93,-39,-41
-62,-45,14,49,-40,-15,84,-61,-71,-93,-33,-41
-62,-45,14,49,-40,-15,78,-67,-71,-93,-39,-53
-62,-45,8,43,-34,-15,78,-67,-71,-93,-45,-53
-62,-51,2,49,-34,-21,72,-73,-83,-93,-51,-53
-62,-45,8,43,-34,-15,72,-67,-83,-93,-63,-53
-62,-51,2,49,-34,-21,78,-61,-71,-93,-57,-47
-62,-63,-10,55,-28,-33,84,-61,-71,-87,-51,-47
-62,-69,-16,55,-22,-39,96,-49,-59,-87,-45,-41
-62,-63,-10,55,-28,-33,96,-49,-59,-87,-39,-41
-62,-57,2,55,-34,-27,96,-49,-59,-87,-39,-53
-62,-57,2,55,-34,-27,96,-49,-59,-87,-39,-53
-62,-51,14,55,-46,-21,102,-55,-53,-87,-33,-53
-62,-51,14,55,-46,-21,102,-55,-53,-87,-33,-53
-62,-51,14,55,-46,-21,96,-55,-65,-87,-39,-53
-62,-51,14,55,-46,-21,96,-49,-65,-87,-39,-53
-62,-45,14,49,-40,-15,90,-49,-71,-87,-45,-53
-62,-33,26,43,-46,-3,90,-49,-71,-87,-45,-59
-62,-45,14,49,-40,-15,84,-55,-65,-87,-51,-59
-62,-51,8,49,-40,-21,90,-55,-65,-87,-51,-59
-62,-51,8,49,-40,-21,84,-55,-71,-87,-51,-59
-62,-51,8,49,-40,-21,84,-55,-77,-87,-51,-59
-62,-45,14,49,-40,-15,84,-55,-77,-87,-51,-59
-62,-39,20,43,-46,-9,84,-55,-65,-87,-51,-59
-62,-33,26,43,-46,-3,84,-49,-65,-87,-51,-59
-62,-21,38,37,-52,9,78,-49,-83,-87,-51,-65
-62,-27,32,37,-52,3,78,-49,-77,-87,-45,-59
-62,-39,20,43,-46,-9,78,-49,-77,-93,-45,-59
-62,-45,14,49,-40,-15,84,-55,-71,-93,-39,-53
-62,-33,26,43,-46,-3,84,-55,-83,-99,-39,-53
-62,-27,32,37,-52,3,72,-67,-89,-105,-57,-65
-62,-27,32,37,-52,3,72,-67,-77,-105,-57,-65
-62,-21,38,37,-52,9,66,-73,-95,-111,-57,-71
-62,-16,43,37,-52,14,72,-73,-101,-111,-57,-71
-62,-39,20,43,-46,-9,78,-67,-95,-105,-51,-65
-62,-51,8,49,-40,-21,84,-67,-95,-105,-51,-65
-62,-63,-4,55,-34,-33,84,-61,-89,-105,-51,-59
-62,-75,-16,61,-28,-45,90,-61,-89,-99,-51,-59
-62,-63,-4,55,-34,-33,90,-67,-89,-99,-51,-59
-62,-63,-4,55,-34,-33,90,-79,-95,-99,-51,-65
-62,-63,-4,55,-34,-33,90,-85,-95,-99,-51,-65
-62,-69,-10,61,-28,-39,90,-85,-95,-99,-51,-65
-67,-69,2,67,-40,-33,84,-91,-101,-99,-57,-65
-62,-51,8,49,-40,-21,84,-91,-107,-105,-57,-65
-62,-51,8,49,-40,-21,78,-91,-125,-117,-69,-71
-62,-69,-10,61,-28,-39,72,-91,-131,-117,-69,-71
-62,-75,-16,61,-28,-45,72,-97,-125,-105,-63,-71
-62,-75,-16,61,-28,-45,72,-97,-119,-105,-69,-71
-62,-81,-22,67,-22,-51,72,-97,-119,-105,-63,-71
-62,-81,-16,67,-28,-51,72,-97,-113,-105,-63,-71
-62,-69,-4,61,-34,-39,66,-109,-119,-111,-69,-77
-62,-57,8,55,-40,-27,66,-121,-125,-117,-69,-83
-62,-39,26,49,-52,-9,60,-133,-131,-129,-81,-89
-62,-27,38,43,-52,3,48,-145,-143,-141,-87,-101
-62,-27,38,43,-52,3,48,-151,-149,-135,-87,-101
-62,-33,32,43,-52,-3,54,-145,-149,-135,-87,-101
-62,-45,20,49,-46,-15,54,-133,-149,-129,-87,-101
-62,-51,14,55,-46,-21,54,-127,-149,-135,-87,-101
-62,-57,8,55,-40,-27,60,-133,-155,-135,-87,-101
-67,-63,8,61,-46,-27,60,-133,-155,-135,-87,-101
-67,-75,-4,67,-40,-39,66,-139,-149,-135,-87,-101
-67,-75,-4,67,-40,-39,66,-145,-149,-135,-87,-101
-67,-69,2,67,-40,-33,66,-151,-149,-129,-87,-95
-67,-63,8,61,-46,-27,66,-151,-149,-135,-87,-95
-67,-63,8,61,-46,-27,66,-151,-155,-129,-81,-95
-67,-75,-4,67,-40,-39,66,-151,-161,-129,-81,-95
-67,-75,-4,67,-40,-39,60,-151,-161,-135,-87,-95
-67,-75,-4,67,-40,-39,60,-151,-161,-141,-87,-101
-67,-69,2,67,-40,-33,54,-151,-167,-147,-99,-101
-67,-69,2,67,-40,-33,54,-151,-167,-147,-99,-101
-67,-75,-4,67,-40,-39,60,-151,-167,-141,-99,-101
-67,-81,-10,73,-34,-45,60,-151,-167,-141,-99,-101
-67,-81,-10,73,-34,-45,66,-151,-167,-135,-99,-107
-67,-81,-10,73,-34,-45,66,-151,-167,-135,-99,-107
-67,-69,2,67,-40,-33,60,-157,-173,-135,-99,-107
-67,-69,2,67,-40,-33,60,-157,-173,-141,-99,-107
-67,-69,2,67,-40,-33,66,-157,-167,-141,-99,-101
-67,-69,2,67,-40,-33,66,-157,-167,-135,-99,-101
-73,-69,8,67,-46,-33,66,-157,-173,-141,-93,-101
-73,-63,14,67,-52,-27,60,-169,-173,-147,-105,-113
-79,-69,14,73,-52,-27,60,-181,-173,-153,-99,-113
-79,-81,2,79,-46,-39,60,-169,-167,-153,-93,-107
-73,-81,-4,73,-40,-45,60,-163,-167,-141,-93,-107
-73,-81,-4,73,-40,-45,60,-163,-167,-141,-93,-107
-79,-87,-4,79,-46,-45,60,-157,-167,-141,-93,-107
-79,-87,-4,79,-46,-45,60,-145,-167,-141,-93,-107
-73,-75,2,73,-46,-39,54,-151,-167,-147,-99,-107
-79,-63,20,67,-52,-21,54,-163,-173,-153,-99,-113
-73,-57,20,61,-52,-21,48,-169,-173,-159,-105,-113
-73,-45,32,55,-52,-9,48,-169,-179,-159,-105,-119
-79,-51,32,61,-52,-9,48,-169,-179,-159,-105,-119
-79,-57,26,67,-52,-15,48,-175,-179,-159,-105,-119
-85,-63,26,73,-52,-21,54,-175,-179,-159,-105,-119
-79,-63,20,67,-52,-21,54,-175,-173,-159,-105,-119
-79,-81,2,79,-46,-39,48,-169,-173,-153,-111,-113
-79,-81,2,79,-46,-39,48,-175,-179,-153,-117,-113
-79,-75,8,73,-52,-33,42,-169,-185,-147,-123,-113
-91,-75,20,79,-52,-27,42,-169,-185,-147,-123,-113
-73,-75,2,73,-46,-39,42,-175,-185,-153,-123,-119
-73,-69,8,67,-46,-33,42,-175,-185,-153,-123,-119
-73,-63,14,67,-52,-27,42,-175,-185,-159,-123,-125
-73,-63,14,67,-52,-27,42,-175,-185,-159,-123,-119
-73,-69,8,67,-46,-33,48,-169,-179,-153,-117,-119
-73,-69,8,67,-46,-33,42,-181,-185,-159,-117,-125
-79,-69,14,73,-52,-27,48,-175,-179,-153,-117,-125
-79,-75,8,73,-52,-33,48,-175,-173,-153,-117,-125
-79,-81,2,79,-46,-39,48,-175,-173,-153,-111,-125
-85,-87,2,85,-52,-45,48,-175,-173,-153,-111,-125
-85,-87,2,85,-52,-45,42,-175,-173,-153,-111,-125
-85,-81,8,79,-52,-39,42,-175,-173,-153,-111,-125
-79,-81,2,79,-46,-39,48,-181,-179,-147,-111,-125
-79,-81,2,79,-46,-39,48,-181,-179,-147,-111,-125
-73,-75,2,73,-46,-39,48,-187,-191,-153,-111,-125
-73,-75,2,73,-46,-39,48,-187,-191,-153,-117,-125
-79,-87,-4,79,-46,-45,54,-181,-185,-147,-111,-119
-79,-87,-4,79,-46,-45,54,-181,-185,-147,-111,-119
-85,-93,-4,85,-46,-51,54,-175,-179,-141,-105,-119
-85,-87,2,85,-52,-45,48,-175,-179,-141,-105,-125
-85,-81,8,79,-52,-39,48,-175,-179,-147,-111,-125
-85,-93,-4,85,-46,-51,48,-175,-179,-147,-111,-125
-85,-87,2,85,-52,-45,54,-175,-185,-153,-117,-125
-85,-69,20,73,-52,-27,54,-175,-185,-153,-117,-125
-85,-63,26,73,-52,-21,48,-187,-185,-159,-129,-125
-85,-63,26,73,-52,-21,42,-187,-185,-159,-129,-125
-85,-69,20,73,-52,-27,36,-187,-185,-165,-135,-131
-85,-75,14,79,-52,-33,42,-181,-185,-165,-129,-143
-85,-87,2,85,-52,-45,48,-181,-179,-159,-123,-137
-85,-93,-4,85,-46,-51,48,-181,-179,-159,-123,-131
-85,-99,-10,91,-46,-57,54,-181,-179,-153,-123,-125
-91,-105,-10,97,-46,-57,48,-187,-185,-153,-123,-119
-91,-93,2,91,-52,-45,42,-193,-191,-159,-129,-119
-85,-81,8,79,-52,-39,42,-193,-191,-165,-129,-125
-85,-75,14,79,-52,-33,36,-199,-185,-171,-135,-131
-85,-63,26,73,-52,-21,42,-199,-185,-165,-129,-131
-85,-69,20,73,-52,-27,48,-193,-179,-159,-123,-125
-85,-75,14,79,-52,-33,48,-193,-179,-159,-123,-131
-85,-75,14,79,-52,-33,54,-193,-173,-153,-117,-125
-85,-81,8,79,-52,-39,48,-193,-179,-153,-117,-131
-85,-87,2,85,-52,-45,42,-187,-179,-153,-123,-131
-85,-87,2,85,-52,-45,42,-187,-179,-153,-123,-131
-79,-75,8,73,-52,-33,42,-187,-179,-153,-123,-131
-79,-63,20,67,-52,-21,42,-199,-185,-165,-129,-137
-79,-63,20,67,-52,-21,36,-199,-185,-165,-129,-143
-79,-69,14,73,-52,-27,36,-199,-191,-165,-129,-149
-79,-75,8,73,-52,-33,36,-193,-191,-159,-129,-143
-79,-75,8,73,-52,-33,36,-193,-185,-159,-123,-149
-91,-69,26,79,-52,-21,60,-193,-185,-159,-123,-137
-103,-81,26,91,-57,-27,48,-205,-185,-165,-135,-143
-97,-87,14,91,-52,-39,48,-199,-185,-165,-135,-143
-91,-87,8,85,-52,-39,48,-199,-185,-165,-135,-143
-85,-93,-4,85,-46,-51,48,-193,-185,-165,-135,-143
-79,-93,-10,85,-40,-51,48,-193,-185,-165,-135,-143
-85,-81,8,79,-52,-39,54,-193,-185,-159,-129,-143
-85,-81,8,79,-52,-39,54,-193,-185,-159,-135,-143
-91,-93,2,91,-52,-45,60,-181,-179,-153,-129,-137
-91,-93,2,91,-52,-45,60,-181,-179,-153,-123,-137
-91,-81,14,85,-52,-33,54,-187,-185,-159,-123,-143
-91,-81,14,85,-52,-33,48,-187,-185,-165,-129,-155
-91,-69,26,79,-52,-21,36,-199,-185,-171,-129,-161
-85,-69,20,73,-52,-27,36,-199,-191,-171,-129,-161
-85,-99,-10,91,-46,-57,48,-193,-185,-165,-123,-161
-85,-93,-4,85,-46,-51,48,-193,-185,-165,-123,-161
-85,-93,-4,85,-46,-51,54,-187,-179,-159,-129,-161
-85,-99,-10,91,-46,-57,54,-187,-179,-159,-129,-161
-85,-105,-16,91,-40,-63,54,-193,-179,-159,-129,-167
-85,-99,-10,91,-46,-57,54,-193,-179,-159,-129,-167
-91,-87,8,85,-52,-39,48,-199,-185,-165,-135,-173
-91,-81,14,85,-52,-33,48,-199,-185,-165,-135,-173
-97,-87,14,91,-52,-39,54,-187,-173,-153,-129,-161
-97,-93,8,91,-52,-45,66,-181,-173,-153,-123,-161
-97,-87,14,91,-52,-39,78,-169,-155,-147,-111,-143
-97,-87,14,91,-52,-39,78,-163,-155,-141,-111,-143
-91,-63,32,73,-57,-15,72,-169,-155,-141,-111,-143
-85,-45,43,61,-57,-3,72,-169,-155,-141,-105,-143
-73,-27,43,49,-57,9,66,-175,-155,-141,-105,-143
-73,-21,43,43,-57,14,72,-175,-149,-129,-105,-143
-73,-16,49,43,-63,14,84,-169,-149,-129,-99,-137
-73,-16,49,43,-63,14,96,-163,-149,-129,-99,-137
-73,-16,49,43,-63,14,108,-157,-143,-129,-93,-131
-67,-16,43,37,-57,14,108,-157,-143,-129,-93,-125
-67,-21,43,43,-52,14,108,-163,-143,-135,-99,-125
-67,-21,43,43,-52,14,102,-169,-167,-147,-105,-137
-67,-27,43,43,-52,9,90,-175,-167,-153,-129,-143
-62,-27,32,37,-52,3,84,-175,-161,-153,-129,-143
-56,-33,14,37,-34,-9,72,-163,-149,-153,-117,-143
-50,-33,8,37,-28,-9,72,-151,-131,-129,-105,-125
-32,-33,-10,37,-10,-21,66,-139,-119,-117,-99,-119
-32,-33,-10,37,-10,-21,60,-121,-101,-111,-93,-119
-38,-39,-10,37,-16,-21,54,-115,-101,-105,-81,-113
-38,-21,8,37,-22,-3,66,-115,-89,-99,-75,-107
-38,-16,20,32,-28,9,72,-109,-89,-99,-69,-107
-38,-16,20,32,-28,9,72,-97,-89,-87,-69,-107
-44,-16,20,37,-34,3,54,-121,-107,-105,-81,-113
-44,-16,26,32,-34,9,48,-139,-113,-117,-87,-119
-56,-10,43,32,-52,14,42,-151,-137,-129,-99,-131
-62,-10,49,37,-52,20,36,-163,-143,-135,-105,-131
-62,-16,43,37,-52,14,48,-169,-149,-135,-105,-131
-62,-16,43,37,-52,14,54,-175,-149,-135,-99,-125
-62,-27,38,43,-52,3,48,-175,-149,-135,-93,-119
-62,-45,20,49,-46,-15,48,-181,-149,-141,-87,-113
-62,-39,20,43,-46,-9,30,-199,-167,-147,-93,-119
-62,-45,8,43,-34,-15,30,-199,-167,-147,-93,-119
-56,-45,2,43,-28,-21,24,-193,-173,-135,-93,-125
-56,-51,-4,43,-28,-27,30,-193,-167,-135,-93,-125
-62,-63,-10,55,-28,-33,24,-187,-173,-147,-105,-137
-62,-63,-4,55,-34,-33,24,-187,-173,-153,-117,-137
-62,-57,2,55,-34,-27,12,-199,-191,-159,-129,-143
-73,-63,14,67,-52,-27,12,-217,-209,-183,-153,-161
-73,-93,-16,79,-34,-57,12,-229,-221,-201,-165,-167
-91,-117,-22,103,-40,-69,12,-235,-227,-201,-165,-167
-97,-123,-22,109,-46,-75,12,-247,-239,-213,-171,-179
-103,-129,-22,115,-46,-75,6,-247,-239,-219,-177,-179
-109,-135,-22,121,-52,-81,12,-241,-233,-207,-171,-173
-109,-141,-28,121,-46,-87,18,-235,-227,-201,-159,-173
-115,-141,-22,127,-52,-81,18,-229,-227,-189,-153,-167
-115,-147,-28,127,-52,-87,24,-235,-221,-189,-159,-167
-109,-141,-28,121,-46,-87,18,-241,-227,-195,-165,-173
-115,-141,-22,127,-52,-81,18,-241,-227,-195,-159,-173
-115,-135,-16,121,-52,-75,12,-247,-233,-201,-165,-179
-115,-135,-16,121,-52,-75,18,-247,-233,-195,-165,-179
-109,-129,-16,115,-52,-75,18,-241,-227,-201,-165,-173
-103,-129,-22,115,-46,-75,18,-241,-227,-201,-165,-173
-103,-129,-22,115,-46,-75,18,-229,-227,-207,-159,-185
-103,-123,-16,109,-52,-69,18,-229,-227,-201,-159,-173
-109,-117,-4,109,-52,-63,18,-229,-227,-195,-159,-173
-115,-117,2,115,-52,-57,18,-223,-221,-195,-159,-173
-121,-123,2,121,-57,-63,18,-223,-215,-183,-159,-173
-121,-123,2,121,-57,-63,24,-223,-215,-183,-159,-173
-121,-105,20,109,-63,-45,24,-235,-215,-195,-165,-173
-127,-105,26,115,-69,-39,36,-229,-203,-183,-165,-173
-127,-105,26,115,-69,-39,48,-217,-203,-171,-159,-161
-127,-111,20,115,-69,-45,42,-199,-197,-183,-159,-173
-115,-105,14,109,-57,-45,66,-175,-185,-183,-171,-173
-133,-123,14,127,-69,-57,120,-133,-179,-183,-171,-179
-145,-141,8,139,-69,-69,180,-61,-173,-213,-201,-209
-157,-141,20,145,-81,-63,228,10,-155,-231,-231,-233
-145,-123,26,133,-81,-51,300,106,-113,-231,-231,-233
-139,-111,32,121,-81,-39,378,208,-47,-201,-213,-227
-115,-111,8,109,-57,-51,426,346,30,-159,-183,-209
-62,-57,8,55,-40,-27,450,520,150,-81,-123,-167
16,-16,-34,2,26,-21,480,748,330,26,-21,-95
130,80,-46,-106,92,14,480,976,528,212,116,25
226,218,-10,-220,122,98,468,1144,738,410,284,162
310,356,43,-334,134,200,462,1240,948,644,500,354
424,512,79,-466,176,296,402,1276,1170,932,752,576
538,728,187,-634,176,464,228,1102,1320,1220,1016,804
610,1016,403,-814,104,716,-18,652,1308,1472,1268,1026
670,1292,613,-982,26,956,-257,178,1302,1724,1538,1254
700,1466,763,-1084,-34,1118,-503,-73,1440,2018,1784,1446
670,1526,847,-1102,-81,1190,-713,-175,1674,2275,1952,1548
598,1442,835,-1018,-111,1142,-755,-271,1824,2377,1958,1500
466,1208,739,-838,-129,980,-647,-451,1806,2257,1790,1344
304,920,607,-610,-147,764,-527,-667,1608,1934,1484,1086
154,698,535,-424,-189,620,-563,-877,1308,1538,1124,798
10,554,535,-280,-261,548,-659,-1105,960,1154,782,528
-139,386,529,-118,-327,458,-635,-1255,606,782,476,294
-265,230,499,20,-375,362,-545,-1225,342,494,248,108
-325,140,469,85,-393,302,-509,-1207,54,236,74,-11
-367,68,439,145,-399,254,-563,-1303,-347,-51,-99,-155
-367,8,379,175,-369,194,-575,-1303,-647,-303,-249,-239
-313,-45,265,181,-291,104,-539,-1147,-677,-351,-261,-239
-277,-75,193,175,-237,50,-479,-961,-575,-303,-237,-215
