,,,,,,,,,,,
2019-09-01 15:32:58,,,,,,,,,,,
,,,,,,,,,,,
I,II,III,aVR,aVL,aVF,V1,V2,V3,V4,V5,V6
-64,-35,30,48,-44,-5,-13,-119,-155,-169,-139,-130
-58,-35,24,48,-38,-5,-19,-119,-155,-163,-139,-130
-58,-35,24,48,-38,-5,-19,-113,-155,-163,-139,-124
-58,-41,18,48,-38,-11,-13,-113,-155,-163,-139,-130
-52,-35,18,42,-32,-11,-13,-113,-155,-163,-139,-130
-46,-35,12,42,-26,-11,-13,-107,-149,-169,-139,-130
-46,-29,18,36,-32,-5,-7,-107,-149,-169,-139,-130
-40,-29,12,31,-26,-11,-13,-101,-149,-169,-139,-130
-34,-29,6,31,-20,-11,-13,-107,-155,-169,-139,-130
-34,-23,12,31,-20,-5,-13,-113,-155,-169,-139,-130
-34,-23,12,31,-20,-5,-19,-113,-155,-163,-139,-130
-34,-17,18,26,-26,1,-19,-119,-155,-163,-133,-130
-34,-17,18,26,-26,1,-19,-119,-155,-163,-133,-124
-34,-17,18,26,-26,1,-19,-119,-155,-163,-139,-130
-40,-23,18,31,-26,-5,-25,-119,-161,-169,-145,-130
-46,-29,18,36,-32,-5,-25,-125,-161,-169,-151,-136
-46,-29,18,36,-32,-5,-25,-125,-161,-175,-157,-136
-46,-29,18,36,-32,-5,-19,-119,-161,-175,-157,-136
-46,-29,18,36,-32,-5,-13,-119,-161,-181,-157,-136
-46,-29,18,36,-32,-5,-13,-119,-161,-181,-157,-136
-46,-35,12,42,-26,-11,-13,-119,-161,-187,-157,-136
-46,-35,12,42,-26,-11,-13,-119,-161,-181,-151,-130
-46,-29,18,36,-32,-5,-13,-125,-161,-181,-151,-130
-46,-35,12,42,-26,-11,-13,-125,-161,-181,-151,-130
-40,-23,18,31,-26,-5,-13,-125,-167,-181,-145,-136
-34,-17,18,26,-26,1,-13,-119,-161,-175,-145,-136
-34,-17,18,26,-26,1,-13,-119,-167,-181,-151,-136
-40,-17,24,26,-32,1,-13,-125,-167,-181,-151,-136
-46,-23,24,36,-32,1,-19,-125,-167,-181,-151,-142
-46,-23,24,36,-32,1,-19,-125,-167,-181,-157,-142
-52,-29,24,36,-38,-5,-19,-125,-167,-181,-157,-142
-52,-35,18,42,-32,-11,-19,-125,-161,-181,-157,-136
-58,-35,24,48,-38,-5,-19,-125,-161,-181,-157,-136
-58,-29,30,42,-44,1,-25,-125,-167,-181,-163,-136
-58,-29,30,42,-44,1,-31,-125,-167,-181,-163,-136
-58,-35,24,48,-38,-5,-31,-119,-167,-181,-163,-136
-52,-29,24,36,-38,-5,-25,-125,-167,-181,-163,-130
-52,-35,18,42,-32,-11,-25,-125,-167,-181,-163,-130
-46,-29,18,36,-32,-5,-31,-131,-167,-187,-163,-136
-46,-29,18,36,-32,-5,-25,-137,-167,-187,-163,-136
-52,-29,24,36,-38,-5,-25,-137,-173,-187,-163,-142
-52,-29,24,36,-38,-5,-25,-137,-167,-187,-163,-136
-52,-29,24,36,-38,-5,-25,-137,-167,-187,-163,-136
-52,-29,24,36,-38,-5,-25,-137,-167,-187,-163,-136
-52,-23,30,36,-38,1,-25,-131,-167,-187,-163,-136
-52,-23,30,36,-38,1,-31,-131,-167,-193,-169,-136
-52,-23,30,36,-38,1,-31,-131,-173,-193,-169,-130
-52,-23,30,36,-38,1,-31,-125,-173,-193,-169,-130
-58,-23,36,42,-44,7,-37,-125,-179,-199,-169,-130
-52,-23,30,36,-38,1,-31,-131,-179,-199,-163,-136
-46,-23,24,36,-32,1,-31,-131,-179,-199,-157,-136
-40,-23,18,31,-26,-5,-31,-131,-173,-193,-157,-130
-40,-23,18,31,-26,-5,-25,-131,-173,-193,-151,-130
-46,-23,24,36,-32,1,-25,-131,-173,-187,-151,-130
-46,-23,24,36,-32,1,-25,-131,-173,-187,-151,-124
-52,-29,24,36,-38,-5,-25,-131,-173,-187,-151,-124
-64,-41,24,48,-44,-11,-25,-137,-173,-193,-151,-130
-70,-41,30,54,-50,-5,-25,-137,-167,-193,-151,-124
-64,-35,30,48,-44,-5,-19,-131,-167,-193,-151,-124
-58,-29,30,42,-44,1,-19,-131,-173,-187,-145,-124
-52,-29,24,36,-38,-5,-19,-131,-173,-187,-151,-124
-52,-29,24,36,-38,-5,-19,-125,-179,-181,-151,-124
-52,-29,24,36,-38,-5,-19,-125,-179,-181,-151,-124
-52,-29,24,36,-38,-5,-19,-131,-185,-181,-157,-124
-52,-29,24,36,-38,-5,-25,-131,-185,-181,-157,-130
-52,-35,18,42,-32,-11,-25,-137,-179,-181,-157,-136
-58,-35,24,48,-38,-5,-25,-143,-179,-187,-157,-142
-64,-35,30,48,-44,-5,-31,-143,-179,-187,-163,-148
-58,-35,24,48,-38,-5,-31,-143,-185,-193,-163,-148
-52,-35,18,42,-32,-11,-25,-143,-185,-193,-157,-142
-52,-29,24,36,-38,-5,-25,-149,-191,-199,-157,-142
-58,-35,24,48,-38,-5,-25,-149,-191,-205,-163,-136
-52,-35,18,42,-32,-11,-25,-149,-185,-199,-163,-136
-46,-29,18,36,-32,-5,-25,-143,-185,-199,-163,-130
-46,-23,24,36,-32,1,-25,-143,-185,-199,-163,-130
-46,-29,18,36,-32,-5,-19,-143,-185,-199,-163,-130
-40,-29,12,31,-26,-11,-19,-149,-179,-199,-163,-136
-40,-29,12,31,-26,-11,-19,-149,-179,-199,-157,-136
-40,-35,6,36,-20,-17,-19,-149,-179,-199,-157,-136
-40,-35,6,36,-20,-17,-19,-143,-179,-199,-157,-136
-40,-29,12,31,-26,-11,-19,-137,-179,-199,-157,-130
-40,-29,12,31,-26,-11,-19,-137,-179,-193,-157,-130
-40,-29,12,31,-26,-11,-19,-137,-179,-193,-163,-130
-40,-23,18,31,-26,-5,-19,-137,-179,-193,-163,-130
-46,-29,18,36,-32,-5,-19,-143,-179,-193,-163,-130
-46,-29,18,36,-32,-5,-19,-143,-179,-193,-163,-130
-40,-35,6,36,-20,-17,-13,-143,-179,-193,-157,-136
-34,-35,0,36,-14,-17,-13,-143,-179,-193,-157,-136
-34,-35,0,36,-14,-17,-13,-143,-179,-199,-151,-136
-34,-35,0,36,-14,-17,-13,-143,-173,-199,-151,-136
-34,-41,-6,36,-14,-23,-13,-143,-173,-199,-151,-136
-34,-41,-6,36,-14,-23,-13,-143,-173,-199,-157,-136
-34,-41,-6,36,-14,-23,-13,-143,-179,-205,-163,-136
-34,-41,-6,36,-14,-23,-13,-143,-179,-199,-157,-130
-34,-35,0,36,-14,-17,-13,-149,-173,-199,-157,-130
-34,-41,-6,36,-14,-23,-13,-143,-173,-199,-157,-130
-34,-41,-6,36,-14,-23,-13,-149,-179,-199,-157,-130
-34,-41,-6,36,-14,-23,-19,-149,-179,-205,-157,-130
-34,-41,-6,36,-14,-23,-19,-143,-179,-199,-151,-130
-40,-35,6,36,-20,-17,-19,-143,-179,-199,-157,-130
-40,-35,6,36,-20,-17,-25,-143,-179,-205,-157,-130
-40,-35,6,36,-20,-17,-25,-137,-173,-199,-163,-130
-40,-41,0,36,-20,-23,-19,-131,-167,-199,-163,-130
-34,-41,-6,36,-14,-23,-13,-137,-167,-199,-163,-124
-34,-41,-6,36,-14,-23,-13,-137,-167,-199,-157,-124
-28,-41,-12,31,-8,-29,-7,-137,-167,-199,-157,-130
-28,-35,-6,31,-8,-23,-7,-143,-173,-199,-163,-130
-28,-41,-12,31,-8,-29,-13,-149,-179,-199,-163,-130
-28,-35,-6,31,-8,-23,-13,-149,-179,-205,-163,-136
-28,-35,-6,31,-8,-23,-13,-143,-179,-199,-157,-130
-28,-35,-6,31,-8,-23,-19,-143,-179,-199,-157,-130
-34,-41,-6,36,-14,-23,-19,-143,-179,-199,-151,-124
-34,-47,-12,42,-8,-29,-19,-137,-179,-199,-151,-124
-28,-41,-12,31,-8,-29,-19,-137,-185,-193,-151,-118
-34,-47,-12,42,-8,-29,-19,-137,-185,-193,-151,-124
-34,-52,-18,42,-8,-35,-13,-137,-179,-193,-145,-124
-34,-57,-24,42,-8,-41,-13,-137,-179,-193,-145,-124
-34,-57,-24,42,-8,-41,-13,-143,-179,-193,-145,-124
-40,-63,-24,48,-8,-46,-13,-149,-179,-193,-145,-124
-40,-69,-30,48,-8,-51,-13,-149,-179,-193,-139,-124
-46,-69,-24,54,-14,-46,-13,-149,-173,-199,-145,-118
-46,-63,-18,54,-14,-41,-13,-143,-173,-193,-145,-118
-46,-63,-18,54,-14,-41,-13,-143,-173,-193,-145,-118
-46,-63,-18,54,-14,-41,-19,-137,-167,-193,-151,-118
-46,-63,-18,54,-14,-41,-19,-137,-167,-199,-151,-118
-46,-69,-24,54,-14,-46,-19,-137,-167,-199,-151,-118
-46,-69,-24,54,-14,-46,-13,-137,-167,-199,-151,-118
-40,-63,-24,48,-8,-46,-13,-143,-167,-193,-151,-124
-40,-63,-24,48,-8,-46,-13,-143,-167,-193,-151,-124
-46,-63,-18,54,-14,-41,-13,-143,-167,-193,-151,-118
-40,-63,-24,48,-8,-46,-19,-149,-167,-193,-151,-124
-34,-57,-24,42,-8,-41,-13,-149,-161,-193,-145,-118
-34,-57,-24,42,-8,-41,-13,-143,-161,-193,-145,-118
-34,-57,-24,42,-8,-41,-7,-143,-161,-193,-139,-118
-34,-52,-18,42,-8,-35,-1,-137,-161,-193,-133,-118
-28,-47,-18,36,-2,-35,-1,-131,-161,-187,-133,-118
-28,-47,-18,36,-2,-35,5,-125,-155,-181,-127,-112
-22,-41,-18,31,-2,-29,11,-119,-149,-175,-121,-112
-22,-41,-18,31,-2,-29,11,-113,-143,-175,-121,-106
-28,-35,-6,31,-8,-23,16,-107,-137,-169,-115,-106
-28,-35,-6,31,-8,-23,16,-107,-131,-163,-115,-100
-28,-29,0,26,-14,-17,21,-107,-125,-157,-103,-94
-16,-23,-6,20,-2,-17,27,-107,-119,-151,-103,-88
-16,-17,0,14,-8,-11,27,-107,-119,-151,-103,-88
-22,-11,12,20,-14,1,27,-113,-119,-151,-103,-88
-16,-5,12,8,-14,1,27,-113,-107,-145,-97,-82
-16,1,18,8,-14,7,33,-113,-107,-145,-103,-82
-16,7,24,2,-20,13,33,-107,-101,-139,-103,-82
-11,13,24,2,-14,19,33,-107,-95,-139,-103,-82
-11,13,24,2,-14,19,33,-101,-89,-133,-103,-82
-11,19,30,-4,-20,25,33,-95,-89,-127,-97,-76
-6,25,30,-4,-14,31,33,-95,-83,-127,-91,-76
-11,25,36,-4,-20,31,33,-89,-83,-127,-85,-76
-11,31,42,-10,-26,37,27,-95,-89,-127,-85,-76
-16,31,48,-10,-32,37,16,-101,-95,-127,-85,-76
-16,31,48,-10,-32,37,11,-107,-107,-127,-85,-70
-16,37,54,-10,-32,43,5,-113,-107,-133,-85,-70
-16,37,54,-10,-32,43,-7,-125,-113,-133,-85,-70
-11,37,48,-10,-26,43,-13,-131,-119,-133,-85,-70
-6,43,48,-16,-26,49,-19,-137,-119,-139,-85,-70
0,43,42,-22,-20,43,-25,-137,-125,-139,-85,-70
6,49,42,-22,-14,49,-31,-143,-125,-145,-85,-70
6,55,48,-28,-20,55,-31,-143,-125,-151,-85,-70
12,61,48,-34,-14,55,-31,-143,-131,-151,-85,-70
12,61,48,-34,-14,55,-31,-143,-125,-151,-85,-70
12,61,48,-34,-14,55,-31,-143,-131,-151,-91,-70
12,61,48,-34,-14,55,-31,-143,-125,-145,-85,-64
12,55,42,-34,-14,49,-31,-137,-125,-145,-85,-64
6,43,36,-22,-14,43,-31,-143,-125,-151,-91,-64
0,37,36,-16,-14,37,-25,-149,-125,-151,-91,-64
-6,25,30,-4,-14,31,-25,-149,-137,-157,-97,-70
-11,13,24,2,-14,19,-25,-149,-143,-163,-97,-76
-11,1,12,8,-8,7,-25,-149,-149,-175,-103,-82
-11,-5,6,8,-8,1,-25,-149,-155,-181,-103,-88
-11,-23,-12,20,4,-17,-31,-149,-161,-187,-109,-94
-16,-29,-12,20,-2,-23,-25,-149,-161,-193,-115,-106
-22,-41,-18,31,-2,-29,-25,-149,-161,-199,-121,-112
-28,-52,-24,36,-2,-41,-25,-149,-167,-205,-127,-112
-40,-57,-18,42,-14,-41,-25,-155,-173,-211,-133,-118
-40,-63,-24,48,-8,-46,-25,-155,-173,-217,-139,-118
-40,-69,-30,48,-8,-51,-31,-155,-179,-217,-139,-124
-46,-75,-30,60,-8,-51,-31,-155,-185,-223,-151,-124
-46,-81,-36,60,-8,-57,-31,-161,-185,-223,-151,-130
-46,-87,-41,66,-2,-63,-25,-161,-185,-223,-151,-130
-46,-93,-46,66,-2,-69,-25,-161,-185,-223,-151,-130
-46,-93,-46,66,-2,-69,-25,-161,-185,-223,-151,-130
-46,-93,-46,66,-2,-69,-25,-161,-185,-223,-157,-130
-46,-105,-58,72,4,-81,-13,-161,-185,-223,-157,-124
-46,-123,-76,84,15,-99,-7,-155,-173,-223,-157,-124
-46,-123,-76,84,15,-99,-1,-149,-173,-223,-157,-124
-52,-123,-70,84,10,-99,11,-137,-173,-229,-163,-130
-58,-141,-82,96,10,-111,33,-107,-161,-229,-169,-136
-70,-159,-88,114,10,-123,81,-65,-149,-241,-193,-160
-88,-183,-94,132,4,-141,141,-7,-119,-247,-217,-184
-112,-207,-94,156,-8,-153,213,65,-83,-253,-241,-220
-130,-219,-88,174,-20,-153,297,155,-41,-253,-271,-250
-148,-225,-76,180,-38,-153,381,227,7,-253,-295,-280
-160,-225,-64,186,-50,-147,447,287,42,-259,-319,-316
-172,-213,-41,186,-68,-129,489,323,71,-265,-337,-334
-184,-207,-24,192,-80,-117,507,341,95,-259,-349,-346
-184,-195,-12,186,-86,-105,519,359,119,-247,-349,-346
-160,-159,0,156,-80,-81,525,383,149,-217,-319,-328
-118,-105,12,108,-68,-46,507,419,209,-133,-253,-268
-46,-35,12,42,-26,-11,489,503,329,11,-127,-154
42,55,12,-46,15,37,477,653,515,213,63,20
162,157,-6,-154,86,79,477,869,761,483,315,240
300,265,-36,-280,170,115,453,1079,1019,789,603,504
438,391,-46,-412,242,175,375,1181,1229,1089,903,774
570,547,-24,-556,296,265,237,1151,1367,1365,1203,1056
696,733,36,-712,332,385,63,1025,1463,1641,1509,1338
804,931,126,-868,338,529,-133,797,1493,1875,1797,1602
894,1117,222,-1000,338,673,-367,497,1439,2049,2037,1824
960,1273,312,-1114,326,793,-559,197,1385,2217,2247,2004
984,1369,384,-1174,302,877,-703,-53,1349,2367,2421,2142
960,1411,450,-1186,254,931,-811,-317,1259,2469,2546,2214
924,1393,468,-1156,230,931,-931,-599,1091,2474,2594,2232
858,1345,486,-1096,188,919,-1039,-875,839,2337,2516,2148
774,1255,480,-1012,146,871,-1111,-1127,515,2043,2301,1956
672,1111,438,-892,116,775,-1159,-1337,155,1629,1977,1692
564,931,366,-748,98,649,-1159,-1493,-215,1119,1557,1362
444,715,270,-580,86,493,-1129,-1577,-569,549,1053,972
318,511,192,-412,62,355,-1075,-1625,-857,52,579,600
216,331,114,-274,50,223,-1009,-1613,-1037,-307,225,306
132,181,48,-154,44,115,-931,-1559,-1127,-529,-13,90
66,55,-12,-58,38,25,-829,-1475,-1157,-661,-169,-58
30,-35,-64,8,50,-46,-727,-1349,-1127,-727,-265,-154
6,-81,-88,36,44,-81,-625,-1181,-1037,-715,-301,-196
-6,-111,-106,60,50,-105,-517,-983,-899,-643,-289,-196
-16,-135,-118,72,50,-129,-415,-785,-755,-559,-271,-184
-28,-147,-118,84,44,-135,-331,-611,-617,-481,-247,-166
-34,-153,-118,90,38,-135,-259,-473,-491,-409,-229,-160
-40,-159,-118,96,38,-141,-205,-365,-389,-355,-217,-148
-34,-159,-124,96,44,-141,-157,-287,-305,-313,-205,-142
-34,-159,-124,96,44,-141,-127,-239,-263,-283,-187,-136
-40,-165,-124,96,38,-147,-97,-221,-239,-277,-169,-130
-40,-165,-124,96,38,-147,-79,-197,-239,-271,-157,-124
-34,-159,-124,96,44,-141,-55,-179,-233,-265,-151,-118
-34,-159,-124,96,44,-141,-37,-155,-221,-253,-145,-112
-34,-165,-130,96,44,-147,-19,-119,-203,-247,-145,-112
-34,-171,-136,102,50,-153,-1,-83,-185,-235,-145,-112
-34,-177,-142,102,50,-159,11,-59,-167,-229,-157,-118
-34,-177,-142,102,50,-159,16,-42,-149,-223,-157,-118
-34,-177,-142,102,50,-159,21,-42,-131,-223,-157,-124
-34,-177,-142,102,50,-159,27,-42,-125,-223,-163,-130
-40,-177,-136,102,44,-159,27,-47,-125,-223,-169,-130
-40,-177,-136,102,44,-159,33,-47,-125,-223,-169,-130
-40,-177,-136,102,44,-159,39,-42,-125,-229,-163,-130
-40,-177,-136,102,44,-159,39,-42,-125,-223,-163,-130
-34,-177,-142,102,50,-159,45,-25,-119,-223,-157,-130
-34,-171,-136,102,50,-153,51,-13,-113,-217,-157,-130
-34,-177,-142,102,50,-159,51,-1,-107,-217,-151,-130
-40,-183,-142,108,50,-165,51,5,-101,-217,-151,-130
-40,-183,-142,108,50,-165,51,5,-101,-217,-151,-130
-34,-165,-130,96,44,-147,51,5,-95,-217,-151,-130
-28,-159,-130,90,50,-147,51,11,-89,-217,-151,-130
-22,-159,-136,90,56,-147,51,17,-89,-211,-151,-130
-22,-159,-136,90,56,-147,57,17,-83,-211,-151,-124
-22,-159,-136,90,56,-147,63,29,-83,-217,-157,-118
-28,-159,-130,90,50,-147,69,35,-77,-205,-151,-112
-28,-159,-130,90,50,-147,69,47,-65,-205,-145,-112
-22,-159,-136,90,56,-147,75,59,-65,-205,-139,-112
-22,-159,-136,90,56,-147,81,65,-53,-199,-139,-112
-34,-165,-130,96,44,-147,75,65,-47,-199,-139,-112
-34,-171,-136,102,50,-153,75,59,-41,-193,-139,-112
-34,-171,-136,102,50,-153,75,59,-35,-187,-133,-106
-22,-171,-148,96,62,-159,81,65,-23,-175,-133,-100
-16,-153,-136,78,56,-147,81,77,-17,-169,-127,-100
-11,-141,-130,72,56,-135,81,83,-5,-163,-121,-94
-6,-129,-124,66,56,-123,75,89,1,-157,-115,-94
0,-129,-130,60,62,-129,75,95,7,-145,-103,-88
-6,-135,-130,72,62,-129,75,101,13,-139,-97,-82
-6,-135,-130,72,62,-129,75,101,13,-133,-97,-76
0,-129,-130,60,62,-129,81,107,13,-121,-85,-70
-11,-129,-118,66,50,-123,81,113,19,-121,-85,-70
-16,-129,-112,66,44,-123,81,113,19,-115,-79,-64
-16,-135,-118,72,50,-129,81,119,25,-109,-79,-64
-11,-123,-112,66,50,-117,87,119,25,-103,-73,-64
-11,-117,-106,60,44,-111,87,125,31,-97,-67,-58
-6,-105,-100,54,44,-99,87,137,37,-91,-61,-52
6,-105,-112,48,56,-105,87,149,42,-85,-55,-52
12,-99,-112,42,62,-105,87,155,42,-79,-49,-46
12,-99,-112,42,62,-105,93,155,53,-67,-37,-40
12,-93,-106,36,56,-99,93,161,59,-55,-31,-34
18,-87,-106,36,62,-93,93,173,71,-43,-25,-28
18,-81,-100,31,56,-87,93,179,71,-37,-25,-28
24,-69,-94,20,56,-81,93,197,83,-25,-19,-22
24,-69,-94,20,56,-81,99,209,95,-13,-13,-16
24,-69,-94,20,56,-81,99,221,101,-7,-7,-10
24,-63,-88,20,56,-75,93,227,113,-1,-7,-4
30,-63,-94,20,62,-75,99,233,125,11,5,-4
30,-57,-88,14,56,-69,99,251,137,11,11,2
42,-52,-94,8,68,-69,105,269,149,23,23,8
48,-52,-100,2,74,-75,105,281,167,35,29,14
60,-47,-106,-4,86,-75,105,293,185,47,34,26
60,-35,-94,-10,80,-63,105,311,203,57,45,38
66,-29,-94,-16,80,-57,111,335,215,69,57,50
72,-23,-94,-22,86,-57,117,353,227,87,69,56
72,-17,-88,-28,80,-51,117,371,239,99,81,68
78,-17,-94,-28,86,-51,123,389,263,117,93,73
84,-11,-94,-34,92,-51,135,407,287,141,111,90
90,-5,-94,-40,92,-46,135,431,305,159,123,102
96,1,-94,-46,98,-46,141,455,329,177,141,114
102,7,-94,-52,98,-41,141,479,353,201,159,132
108,13,-94,-58,104,-41,141,503,371,219,177,150
114,19,-94,-64,104,-35,141,527,395,243,195,162
120,25,-94,-70,110,-35,141,551,419,267,213,180
132,37,-94,-82,116,-29,147,575,443,291,231,198
138,49,-88,-88,116,-17,153,599,461,303,249,216
138,49,-88,-88,116,-17,153,623,485,321,267,234
150,61,-88,-100,122,-11,165,653,515,345,285,258
156,73,-82,-112,122,-5,171,671,539,369,303,276
174,79,-94,-124,134,-5,177,695,563,399,327,294
180,85,-94,-130,140,-5,177,713,587,423,357,312
192,97,-94,-142,146,1,177,743,599,447,381,336
210,109,-100,-154,158,7,183,767,623,471,405,360
216,121,-94,-166,158,13,183,785,647,495,423,378
222,127,-94,-172,158,19,177,797,659,513,435,390
228,139,-88,-184,158,25,177,815,671,531,453,402
234,139,-94,-184,164,25,177,827,683,549,471,420
240,145,-94,-190,170,25,171,833,695,561,489,438
240,145,-94,-190,170,25,171,845,695,579,501,456
240,145,-94,-190,170,25,171,851,695,591,519,468
240,145,-94,-190,170,25,165,863,701,603,531,486
246,157,-88,-196,170,37,165,869,713,615,543,498
258,163,-94,-208,176,37,165,875,713,621,555,504
270,169,-100,-214,188,37,171,875,719,627,567,516
282,181,-100,-226,194,43,171,881,731,633,579,528
282,181,-100,-226,194,43,165,875,725,639,585,534
282,187,-94,-232,188,49,165,875,725,639,585,540
294,193,-100,-238,200,49,159,869,725,645,585,546
294,199,-94,-244,194,55,159,863,719,645,591,552
294,199,-94,-244,194,55,153,857,719,645,597,558
288,199,-88,-244,188,55,147,845,707,645,597,558
288,205,-82,-244,188,61,141,833,701,639,591,558
282,193,-88,-232,188,55,135,815,683,627,585,552
276,187,-88,-232,182,49,129,797,671,621,579,546
270,187,-82,-226,176,55,123,773,653,603,567,534
264,175,-88,-220,176,43,117,749,635,591,561,522
258,169,-88,-208,176,43,117,725,611,585,555,510
252,169,-82,-208,170,43,105,695,587,597,537,498
240,169,-70,-202,158,49,93,659,563,597,525,480
240,175,-64,-208,152,55,93,635,539,591,501,462
228,163,-64,-196,146,49,87,605,521,579,489,450
216,157,-58,-184,140,49,87,569,491,567,465,432
198,151,-46,-172,122,55,81,533,467,549,435,408
186,145,-41,-160,116,55,75,503,437,531,411,384
174,133,-41,-148,110,49,69,467,413,507,381,360
162,127,-36,-142,98,49,69,437,383,483,357,330
162,127,-36,-142,98,49,69,401,353,459,333,306
150,127,-24,-136,86,55,63,371,323,429,309,282
132,115,-18,-124,74,49,51,341,299,393,279,252
120,109,-12,-112,68,49,51,311,275,363,255,228
108,97,-12,-100,62,43,51,287,263,333,231,204
96,91,-6,-94,50,43,51,269,239,309,213,186
78,79,0,-76,38,43,45,245,209,285,189,162
60,67,6,-64,26,37,39,221,185,261,165,144
54,67,12,-58,20,43,39,191,161,243,147,120
48,61,12,-52,20,37,33,167,137,225,123,102
36,49,12,-40,15,31,27,143,113,207,105,84
24,43,18,-34,4,31,21,119,95,189,81,73
24,37,12,-28,10,25,21,101,77,171,69,68
18,31,12,-22,4,25,16,89,59,153,51,50
6,25,18,-10,-2,25,16,71,47,141,34,38
6,19,12,-10,-2,19,11,59,42,129,29,26
6,19,12,-10,-2,19,16,53,37,117,17,14
0,13,12,-4,-2,13,16,41,31,105,5,-4
-6,19,24,-4,-14,25,16,29,19,87,-1,-16
-6,19,24,-4,-14,25,16,23,13,75,-7,-22
-11,13,24,2,-14,19,16,11,7,63,-13,-28
-11,13,24,2,-14,19,16,11,1,52,-19,-34
-16,7,24,2,-20,13,16,5,-11,52,-25,-34
-16,1,18,8,-14,7,11,-1,-11,47,-31,-34
-16,1,18,8,-14,7,5,-7,-17,47,-37,-40
-16,1,18,8,-14,7,5,-13,-23,41,-43,-40
-22,-5,18,14,-20,7,-1,-19,-29,35,-43,-46
-22,-5,18,14,-20,7,5,-19,-35,35,-49,-46
-16,-11,6,14,-8,-5,5,-25,-47,29,-49,-52
-22,-17,6,20,-14,-5,5,-31,-47,23,-55,-58
-22,-17,6,20,-14,-5,-1,-31,-53,11,-61,-64
-22,-17,6,20,-14,-5,-1,-37,-59,5,-67,-70
-28,-23,6,26,-14,-11,-1,-37,-65,5,-73,-70
-28,-23,6,26,-14,-11,-7,-37,-65,-1,-73,-76
-34,-29,6,31,-20,-11,-7,-37,-71,-7,-73,-76
-28,-29,0,26,-14,-17,-7,-42,-65,-1,-73,-76
-22,-23,0,26,-8,-11,-13,-42,-65,-1,-67,-76
-16,-17,0,14,-8,-11,-7,-37,-59,5,-67,-76
-16,-11,6,14,-8,-5,-7,-37,-59,11,-61,-76
-22,-11,12,20,-14,1,-7,-37,-59,11,-61,-76
-22,-11,12,20,-14,1,-7,-37,-59,11,-67,-70
-22,-11,12,20,-14,1,-1,-31,-59,11,-67,-70
-22,-11,12,20,-14,1,-1,-31,-59,11,-67,-70
-16,-5,12,8,-14,1,-1,-25,-59,11,-61,-70
-16,-5,12,8,-14,1,-1,-19,-53,11,-55,-64
-16,-5,12,8,-14,1,-1,-13,-53,11,-55,-64
-22,-11,12,20,-14,1,5,-13,-53,11,-49,-64
-22,-17,6,20,-14,-5,5,-13,-53,17,-49,-58
-28,-17,12,20,-20,-5,5,-13,-53,17,-49,-58
-34,-17,18,26,-26,1,5,-13,-47,17,-55,-64
-28,-17,12,20,-20,-5,-1,-13,-41,17,-55,-64
-28,-5,24,14,-26,7,-1,-13,-41,17,-55,-64
-22,1,24,14,-20,13,-1,-19,-41,17,-61,-64
-22,7,30,8,-26,19,-7,-19,-41,17,-61,-64
-22,1,24,14,-20,13,-7,-19,-35,23,-55,-58
-28,-5,24,14,-26,7,-1,-13,-35,17,-55,-58
-28,-5,24,14,-26,7,-1,-1,-29,23,-55,-58
-34,-5,30,20,-32,13,5,-1,-23,23,-49,-58
-34,-5,30,20,-32,13,5,5,-17,23,-43,-58
-40,-5,36,20,-38,13,5,5,-11,29,-37,-52
-46,-11,36,31,-38,13,5,-1,-11,29,-37,-52
-40,-17,24,26,-32,1,11,-1,-5,35,-31,-52
-40,-23,18,31,-26,-5,16,5,-5,35,-31,-46
-34,-17,18,26,-26,1,16,5,-5,35,-31,-40
-28,-17,12,20,-20,-5,16,5,-11,35,-31,-46
-28,-11,18,20,-20,1,11,5,-11,29,-37,-46
-28,-11,18,20,-20,1,11,5,-11,29,-43,-46
-22,-5,18,14,-20,7,11,11,-17,23,-43,-46
-28,-5,24,14,-26,7,5,5,-17,23,-43,-52
-28,-5,24,14,-26,7,5,-1,-23,23,-43,-52
-28,-5,24,14,-26,7,11,-1,-23,23,-49,-52
-34,1,36,20,-32,19,11,5,-23,23,-43,-52
-34,1,36,20,-32,19,11,-1,-23,23,-49,-58
-34,1,36,20,-32,19,11,-1,-29,23,-49,-58
-34,-5,30,20,-32,13,11,-1,-41,17,-49,-64
-40,-5,36,20,-38,13,11,-1,-53,17,-55,-64
-40,-5,36,20,-38,13,11,-7,-59,17,-55,-64
-34,1,36,20,-32,19,11,-7,-65,11,-55,-64
-34,-5,30,20,-32,13,11,-7,-65,5,-61,-64
-40,-17,24,26,-32,1,11,-13,-65,-1,-61,-64
-40,-23,18,31,-26,-5,11,-13,-65,-7,-61,-64
-40,-23,18,31,-26,-5,11,-13,-65,-7,-61,-64
-34,-23,12,31,-20,-5,5,-13,-65,-13,-61,-70
-34,-17,18,26,-26,1,5,-13,-65,-13,-61,-70
-28,-17,12,20,-20,-5,5,-13,-65,-13,-55,-70
-16,-11,6,14,-8,-5,5,-7,-65,-13,-55,-64
-16,-11,6,14,-8,-5,5,-7,-65,-13,-55,-70
-16,-11,6,14,-8,-5,-1,-13,-71,-13,-55,-70
-22,-23,0,26,-8,-11,-1,-19,-77,-19,-61,-76
-22,-17,6,20,-14,-5,-1,-19,-77,-19,-61,-82
-16,-11,6,14,-8,-5,-1,-19,-71,-19,-61,-76
-22,-11,12,20,-14,1,-1,-25,-71,-25,-67,-82
-22,-11,12,20,-14,1,-1,-31,-77,-31,-67,-82
-28,-23,6,26,-14,-11,-7,-37,-83,-31,-73,-82
-28,-23,6,26,-14,-11,-7,-37,-83,-37,-73,-82
-22,-17,6,20,-14,-5,-1,-37,-83,-37,-73,-82
-22,-11,12,20,-14,1,-1,-37,-89,-37,-73,-82
-22,-11,12,20,-14,1,-1,-37,-89,-37,-79,-88
-28,-17,12,20,-20,-5,-7,-37,-95,-43,-85,-88
-34,-17,18,26,-26,1,-7,-37,-95,-49,-91,-88
-28,-11,18,20,-20,1,-1,-42,-101,-49,-97,-94
-22,-5,18,14,-20,7,-1,-42,-101,-55,-97,-94
-22,-5,18,14,-20,7,-1,-47,-107,-61,-97,-94
-22,-5,18,14,-20,7,-7,-47,-113,-67,-103,-100
-22,-5,18,14,-20,7,-1,-53,-119,-73,-109,-100
-16,-11,6,14,-8,-5,-1,-53,-119,-79,-109,-100
-16,-11,6,14,-8,-5,-1,-59,-125,-79,-115,-106
-16,-17,0,14,-8,-11,-1,-59,-125,-91,-115,-106
-22,-17,6,20,-14,-5,-1,-59,-125,-91,-121,-112
-22,-17,6,20,-14,-5,-1,-65,-125,-97,-127,-112
-28,-17,12,20,-20,-5,-7,-65,-125,-97,-127,-118
-28,-17,12,20,-20,-5,-7,-65,-125,-97,-127,-112
-28,-23,6,26,-14,-11,-13,-65,-131,-97,-127,-112
-28,-29,0,26,-14,-17,-13,-65,-137,-97,-127,-112
-28,-29,0,26,-14,-17,-13,-65,-143,-97,-127,-112
-34,-29,6,31,-20,-11,-13,-71,-149,-103,-127,-112
-34,-35,0,36,-14,-17,-19,-77,-149,-103,-127,-112
-40,-35,6,36,-20,-17,-13,-77,-149,-109,-133,-118
-40,-35,6,36,-20,-17,-13,-83,-155,-115,-133,-124
-46,-41,6,42,-26,-17,-13,-83,-155,-121,-139,-130
-46,-47,0,48,-20,-23,-7,-83,-155,-121,-145,-130
-46,-47,0,48,-20,-23,-7,-83,-155,-127,-145,-130
-40,-41,0,36,-20,-23,-7,-77,-161,-127,-145,-130
-40,-41,0,36,-20,-23,-13,-77,-167,-127,-139,-130
-40,-41,0,36,-20,-23,-13,-83,-167,-121,-139,-130
-34,-41,-6,36,-14,-23,-19,-89,-167,-121,-139,-130
-28,-35,-6,31,-8,-23,-25,-95,-167,-121,-139,-130
-34,-35,0,36,-14,-17,-19,-95,-161,-127,-139,-124
-28,-35,-6,31,-8,-23,-19,-89,-155,-127,-133,-124
-22,-35,-12,31,-2,-23,-19,-89,-155,-127,-139,-130
-28,-47,-18,36,-2,-35,-19,-83,-149,-127,-139,-130
-28,-52,-24,36,-2,-41,-19,-83,-149,-121,-139,-130
-34,-57,-24,42,-8,-41,-19,-83,-149,-127,-145,-130
-40,-57,-18,42,-14,-41,-19,-83,-149,-127,-145,-130
-40,-57,-18,42,-14,-41,-19,-89,-155,-127,-145,-130
-40,-63,-24,48,-8,-46,-19,-89,-155,-127,-139,-130
-46,-63,-18,54,-14,-41,-19,-95,-155,-139,-145,-136
-46,-69,-24,54,-14,-46,-13,-95,-155,-139,-145,-136
-46,-63,-18,54,-14,-41,-7,-101,-155,-139,-145,-142
-40,-63,-24,48,-8,-46,-7,-101,-161,-145,-145,-142
-34,-63,-30,48,-2,-46,-7,-101,-161,-151,-145,-148
-34,-57,-24,42,-8,-41,-7,-101,-161,-157,-157,-148
-34,-52,-18,42,-8,-35,-7,-101,-161,-157,-157,-148
-34,-52,-18,42,-8,-35,-13,-95,-161,-157,-157,-148
-40,-52,-12,42,-14,-35,-13,-101,-161,-157,-163,-148
-46,-41,6,42,-26,-17,-19,-107,-161,-157,-169,-148
-52,-52,0,48,-26,-29,-25,-113,-167,-157,-169,-148
-64,-57,6,54,-38,-29,-31,-113,-167,-163,-169,-148
-64,-57,6,54,-38,-29,-31,-113,-167,-163,-163,-148
-52,-52,0,48,-26,-29,-25,-101,-173,-157,-157,-148
-40,-52,-12,42,-14,-35,-19,-101,-173,-151,-157,-148
-40,-52,-12,42,-14,-35,-19,-101,-179,-157,-157,-148
-40,-57,-18,42,-14,-41,-19,-107,-179,-157,-151,-142
-34,-52,-18,42,-8,-35,-13,-101,-179,-151,-151,-136
-22,-52,-30,36,4,-41,-7,-101,-179,-157,-145,-136
-22,-47,-24,36,4,-35,-7,-101,-179,-157,-145,-136
-28,-41,-12,31,-8,-29,-13,-101,-185,-163,-151,-136
-22,-35,-12,31,-2,-23,-13,-101,-191,-163,-151,-136
-22,-29,-6,26,-8,-17,-13,-101,-191,-157,-151,-142
-28,-35,-6,31,-8,-23,-13,-101,-191,-157,-151,-142
-28,-41,-12,31,-8,-29,-13,-101,-191,-151,-151,-142
-34,-47,-12,42,-8,-29,-13,-101,-191,-157,-151,-142
-34,-47,-12,42,-8,-29,-25,-107,-197,-157,-157,-148
-40,-47,-6,42,-14,-29,-25,-101,-191,-163,-157,-148
-40,-47,-6,42,-14,-29,-31,-101,-191,-163,-157,-148
-40,-47,-6,42,-14,-29,-31,-107,-197,-163,-157,-148
-40,-41,0,36,-20,-23,-31,-101,-197,-169,-157,-148
-40,-41,0,36,-20,-23,-25,-107,-197,-169,-151,-148
-46,-41,6,42,-26,-17,-19,-107,-197,-169,-151,-148
-40,-41,0,36,-20,-23,-19,-113,-197,-175,-151,-148
-40,-47,-6,42,-14,-29,-19,-113,-203,-175,-157,-148
-46,-47,0,48,-20,-23,-19,-113,-197,-169,-151,-148
-46,-52,-6,48,-20,-29,-25,-113,-197,-169,-157,-154
-46,-52,-6,48,-20,-29,-25,-113,-191,-169,-157,-154
-46,-52,-6,48,-20,-29,-25,-119,-197,-175,-157,-160
-46,-41,6,42,-26,-17,-19,-113,-191,-175,-157,-160
-46,-41,6,42,-26,-17,-19,-113,-185,-175,-157,-160
-46,-41,6,42,-26,-17,-13,-113,-185,-175,-157,-160
-52,-47,6,48,-26,-23,-19,-113,-185,-175,-157,-160
-46,-47,0,48,-20,-23,-19,-113,-185,-175,-157,-160
-40,-47,-6,42,-14,-29,-25,-113,-185,-175,-163,-160
-40,-47,-6,42,-14,-29,-25,-113,-185,-175,-163,-160
-40,-52,-12,42,-14,-35,-31,-119,-191,-175,-163,-160
-46,-52,-6,48,-20,-29,-31,-119,-191,-175,-163,-154
-40,-52,-12,42,-14,-35,-25,-113,-185,-169,-157,-148
-40,-52,-12,42,-14,-35,-25,-113,-179,-169,-157,-148
-46,-52,-6,48,-20,-29,-25,-119,-179,-169,-163,-154
-46,-47,0,48,-20,-23,-25,-125,-179,-163,-157,-154
-46,-47,0,48,-20,-23,-25,-125,-185,-169,-163,-154
-46,-52,-6,48,-20,-29,-25,-125,-191,-175,-169,-160
-46,-52,-6,48,-20,-29,-31,-119,-197,-175,-169,-154
-52,-52,0,48,-26,-29,-31,-125,-203,-175,-175,-154
-52,-57,-6,48,-26,-35,-31,-119,-203,-181,-175,-154
-52,-57,-6,48,-26,-35,-31,-119,-203,-181,-169,-160
-52,-57,-6,48,-26,-35,-25,-119,-203,-175,-169,-154
-46,-52,-6,48,-20,-29,-25,-119,-197,-175,-163,-154
-34,-47,-12,42,-8,-29,-25,-119,-197,-175,-157,-154
-34,-41,-6,36,-14,-23,-19,-119,-197,-181,-157,-154
-34,-41,-6,36,-14,-23,-25,-119,-197,-187,-157,-154
-34,-41,-6,36,-14,-23,-19,-119,-197,-187,-157,-148
-34,-35,0,36,-14,-17,-19,-119,-191,-181,-157,-148
-34,-29,6,31,-20,-11,-19,-119,-185,-175,-157,-142
-34,-35,0,36,-14,-17,-19,-113,-179,-169,-157,-142
-34,-41,-6,36,-14,-23,-19,-107,-179,-163,-157,-142
-34,-35,0,36,-14,-17,-19,-107,-179,-163,-157,-142
-34,-35,0,36,-14,-17,-19,-101,-179,-163,-157,-142
-34,-35,0,36,-14,-17,-19,-101,-179,-169,-145,-148
-28,-35,-6,31,-8,-23,-19,-101,-179,-169,-145,-148
-34,-41,-6,36,-14,-23,-19,-101,-179,-169,-139,-142
-34,-47,-12,42,-8,-29,-13,-107,-185,-169,-139,-142
-34,-41,-6,36,-14,-23,-13,-113,-185,-175,-145,-142
-40,-47,-6,42,-14,-29,-13,-113,-185,-175,-151,-142
-46,-41,6,42,-26,-17,-19,-119,-185,-175,-157,-142
-40,-35,6,36,-20,-17,-19,-119,-185,-175,-157,-142
-46,-41,6,42,-26,-17,-13,-119,-185,-175,-157,-142
-46,-41,6,42,-26,-17,-13,-119,-185,-181,-163,-142
-40,-41,0,36,-20,-23,-19,-119,-185,-187,-163,-148
-40,-41,0,36,-20,-23,-25,-119,-179,-181,-157,-148
-34,-35,0,36,-14,-17,-25,-119,-179,-181,-157,-148
-34,-41,-6,36,-14,-23,-25,-119,-173,-175,-157,-148
-34,-41,-6,36,-14,-23,-31,-113,-173,-175,-151,-148
-40,-41,0,36,-20,-23,-31,-113,-179,-175,-151,-148
-46,-41,6,42,-26,-17,-31,-113,-185,-169,-157,-154
-46,-41,6,42,-26,-17,-31,-113,-191,-169,-157,-154
-52,-47,6,48,-26,-23,-31,-113,-191,-169,-157,-148
-52,-41,12,42,-32,-17,-31,-113,-197,-175,-157,-148
-58,-47,12,54,-32,-17,-31,-119,-197,-175,-163,-148
-58,-47,12,54,-32,-17,-25,-119,-191,-175,-157,-148
-52,-41,12,42,-32,-17,-25,-119,-197,-175,-157,-148
-46,-41,6,42,-26,-17,-25,-125,-197,-181,-157,-154
-40,-35,6,36,-20,-17,-25,-119,-191,-187,-157,-154
-40,-35,6,36,-20,-17,-25,-119,-185,-187,-157,-154
-40,-41,0,36,-20,-23,-25,-119,-179,-187,-151,-154
-40,-47,-6,42,-14,-29,-31,-119,-179,-181,-151,-160
-34,-47,-12,42,-8,-29,-31,-113,-179,-175,-151,-154
-34,-47,-12,42,-8,-29,-25,-113,-179,-169,-151,-148
-34,-52,-18,42,-8,-35,-25,-113,-179,-169,-151,-142
-34,-52,-18,42,-8,-35,-25,-113,-185,-175,-157,-142
-40,-47,-6,42,-14,-29,-25,-113,-191,-175,-163,-142
-40,-47,-6,42,-14,-29,-25,-107,-185,-175,-163,-142
-34,-47,-12,42,-8,-29,-25,-107,-179,-175,-157,-142
-34,-41,-6,36,-14,-23,-25,-107,-179,-175,-163,-142
-34,-47,-12,42,-8,-29,-19,-113,-179,-181,-163,-148
-40,-47,-6,42,-14,-29,-19,-113,-179,-181,-157,-148
-40,-52,-12,42,-14,-35,-19,-119,-179,-187,-157,-154
-40,-52,-12,42,-14,-35,-13,-113,-179,-181,-157,-148
-46,-52,-6,48,-20,-29,-13,-107,-173,-175,-151,-142
-46,-52,-6,48,-20,-29,-13,-107,-173,-175,-151,-136
-52,-52,0,48,-26,-29,-19,-101,-179,-181,-157,-136
-40,-47,-6,42,-14,-29,-13,-95,-185,-175,-151,-130
-34,-47,-12,42,-8,-29,-13,-95,-179,-169,-145,-124
-28,-41,-12,31,-8,-29,-7,-89,-173,-163,-139,-124
-28,-41,-12,31,-8,-29,-7,-89,-167,-157,-133,-124
-28,-41,-12,31,-8,-29,-1,-83,-161,-157,-127,-124
-28,-35,-6,31,-8,-23,5,-83,-155,-151,-127,-118
-28,-29,0,26,-14,-17,11,-77,-149,-151,-127,-112
-28,-23,6,26,-14,-11,16,-71,-143,-151,-121,-112
-28,-23,6,26,-14,-11,16,-71,-143,-151,-121,-112
-28,-17,12,20,-20,-5,16,-77,-143,-145,-121,-118
-22,-11,12,20,-14,1,11,-77,-143,-145,-127,-118
-22,-11,12,20,-14,1,16,-71,-137,-145,-121,-112
-22,-11,12,20,-14,1,16,-71,-131,-139,-121,-106
-22,-11,12,20,-14,1,21,-65,-131,-139,-121,-100
-22,-5,18,14,-20,7,21,-59,-131,-139,-121,-106
-22,1,24,14,-20,13,21,-59,-131,-145,-121,-106
-22,7,30,8,-26,19,21,-59,-125,-139,-115,-106
-22,19,42,2,-32,31,27,-59,-119,-127,-103,-100
-16,31,48,-10,-32,37,27,-53,-107,-115,-97,-94
-16,37,54,-10,-32,43,21,-53,-101,-109,-91,-94
-16,49,66,-16,-38,55,16,-59,-95,-109,-91,-88
-22,49,72,-10,-44,61,11,-65,-101,-109,-91,-94
-28,49,78,-10,-50,61,-1,-77,-113,-121,-97,-94
-22,67,90,-22,-56,79,-13,-89,-119,-133,-103,-100
-22,73,96,-22,-56,85,-19,-95,-125,-139,-109,-100
-16,79,96,-34,-56,85,-25,-107,-137,-139,-109,-100
-11,79,90,-34,-50,85,-25,-113,-137,-139,-109,-100
-6,73,78,-28,-38,79,-31,-113,-143,-139,-109,-106
-6,73,78,-28,-38,79,-43,-119,-149,-145,-109,-106
-6,73,78,-28,-38,79,-49,-119,-149,-145,-109,-106
-11,67,78,-28,-44,73,-49,-119,-149,-145,-109,-100
-11,67,78,-28,-44,73,-49,-119,-149,-145,-109,-100
-6,79,84,-34,-44,85,-49,-125,-149,-145,-109,-94
-6,85,90,-34,-44,91,-43,-119,-149,-151,-103,-94
-6,85,90,-34,-44,91,-43,-119,-149,-151,-109,-88
0,73,72,-34,-32,73,-43,-125,-143,-145,-103,-88
-6,61,66,-22,-32,67,-43,-125,-143,-145,-103,-94
-11,49,60,-16,-32,55,-43,-125,-149,-145,-115,-100
-11,37,48,-10,-26,43,-43,-119,-149,-145,-115,-106
-6,31,36,-10,-20,37,-37,-119,-155,-151,-115,-112
-11,19,30,-4,-20,25,-37,-119,-161,-157,-121,-118
-22,-5,18,14,-20,7,-37,-125,-167,-175,-133,-130
-34,-29,6,31,-20,-11,-37,-131,-173,-181,-145,-136
-40,-47,-6,42,-14,-29,-37,-131,-185,-193,-151,-142
-46,-52,-6,48,-20,-29,-37,-131,-185,-193,-163,-148
-52,-52,0,48,-26,-29,-37,-131,-191,-199,-169,-154
-52,-57,-6,48,-26,-35,-37,-137,-209,-205,-181,-154
-52,-63,-12,54,-20,-41,-37,-143,-215,-211,-187,-160
-52,-69,-18,54,-20,-46,-37,-143,-215,-217,-193,-160
-52,-75,-24,60,-14,-51,-43,-149,-215,-217,-193,-166
-52,-75,-24,60,-14,-51,-43,-149,-221,-223,-193,-166
-52,-75,-24,60,-14,-51,-43,-149,-215,-223,-187,-166
-52,-75,-24,60,-14,-51,-43,-149,-215,-229,-187,-166
-52,-81,-30,60,-14,-57,-43,-137,-215,-229,-193,-172
-52,-81,-30,60,-14,-57,-37,-131,-209,-235,-199,-172
-40,-81,-41,54,-2,-63,-37,-119,-203,-229,-199,-172
-40,-81,-41,54,-2,-63,-25,-113,-197,-229,-199,-172
-46,-81,-36,60,-8,-57,-7,-95,-191,-229,-205,-178
-46,-93,-46,66,-2,-69,27,-59,-173,-223,-211,-190
-58,-105,-46,78,-8,-75,81,-19,-143,-223,-217,-202
-82,-123,-41,102,-20,-81,153,53,-95,-217,-235,-220
-106,-147,-41,126,-32,-93,243,143,-35,-211,-253,-238
-130,-159,-30,144,-50,-93,327,227,25,-205,-277,-268
-154,-171,-18,162,-68,-93,399,299,71,-199,-301,-292
-166,-177,-12,168,-80,-93,447,353,107,-199,-319,-322
-178,-171,6,174,-92,-81,477,383,137,-187,-331,-346
-172,-159,12,162,-92,-75,483,401,155,-181,-337,-358
-160,-147,12,150,-86,-69,483,413,173,-163,-331,-352
-142,-117,24,126,-86,-46,471,431,209,-121,-295,-328
-88,-52,36,66,-62,-11,447,461,275,-25,-205,-250
-16,37,54,-10,-32,43,405,521,389,117,-55,-112
84,133,48,-106,20,91,381,665,569,339,153,78
210,229,18,-214,98,127,375,875,827,627,417,324
342,349,6,-340,170,181,333,1061,1085,939,705,588
480,487,6,-484,236,247,231,1145,1289,1251,1017,870
612,655,42,-634,284,349,87,1121,1427,1551,1329,1152
714,835,120,-772,296,481,-79,983,1481,1803,1617,1398
804,1027,222,-916,290,625,-277,737,1457,1995,1869,1614
864,1207,342,-1036,260,775,-481,443,1397,2145,2085,1794
888,1345,456,-1114,218,901,-637,155,1331,2283,2265,1926
888,1411,522,-1150,182,967,-733,-65,1289,2421,2415,2028
864,1435,570,-1150,146,1003,-817,-323,1175,2480,2498,2064
816,1423,606,-1120,104,1015,-895,-587,965,2415,2474,2016
738,1375,636,-1054,50,1009,-973,-857,659,2181,2301,1860
636,1261,624,-946,10,943,-1033,-1103,299,1821,2013,1614
528,1099,570,-814,-20,835,-1069,-1313,-89,1341,1617,1308
396,907,510,-652,-56,709,-1057,-1463,-479,783,1137,936
258,697,438,-472,-86,571,-1015,-1535,-797,237,651,558
150,523,372,-334,-110,451,-961,-1559,-1025,-187,255,240
66,373,306,-214,-116,343,-907,-1535,-1139,-457,-7,20
6,241,234,-118,-110,241,-829,-1457,-1169,-613,-181,-136
-34,133,168,-46,-98,151,-739,-1349,-1163,-709,-307,-244
-58,43,102,8,-80,73,-643,-1217,-1121,-739,-379,-304
-76,-29,48,48,-62,7,-547,-1061,-1031,-703,-397,-322
-76,-69,6,66,-44,-35,-463,-887,-923,-637,-385,-310
-70,-99,-30,84,-20,-63,-385,-719,-791,-553,-361,-292
-70,-117,-46,90,-14,-81,-313,-575,-671,-481,-337,-268
-76,-129,-52,96,-14,-93,-259,-455,-563,-427,-319,-256
-76,-141,-64,102,-8,-105,-205,-365,-467,-385,-301,-250
-82,-147,-64,114,-8,-105,-169,-299,-383,-361,-289,-244
-82,-135,-52,108,-14,-93,-145,-251,-317,-337,-277,-232
-70,-129,-58,96,-8,-93,-127,-221,-275,-313,-253,-220
-58,-123,-64,90,4,-93,-103,-197,-251,-289,-229,-202
-52,-123,-70,84,10,-99,-85,-179,-233,-265,-211,-184
-46,-123,-76,84,15,-99,-73,-149,-227,-253,-205,-172
-40,-117,-76,72,15,-99,-55,-119,-209,-235,-193,-166
-40,-123,-82,78,20,-105,-31,-89,-185,-217,-187,-166
-52,-129,-76,84,10,-105,-19,-59,-167,-205,-187,-166
-52,-129,-76,84,10,-105,-7,-42,-143,-205,-187,-166
-52,-129,-76,84,10,-105,-1,-37,-131,-205,-193,-166
-52,-129,-76,84,10,-105,-1,-31,-125,-205,-193,-166
-46,-123,-76,84,15,-99,-1,-25,-119,-199,-193,-166
-40,-117,-76,72,15,-99,-1,-25,-119,-193,-193,-160
-34,-111,-76,72,20,-93,-1,-19,-119,-187,-187,-160
-34,-111,-76,72,20,-93,5,-13,-119,-181,-187,-154
-28,-111,-82,66,26,-99,11,-7,-113,-181,-187,-154
-28,-111,-82,66,26,-99,16,-1,-107,-175,-187,-160
-34,-117,-82,72,20,-99,16,5,-101,-175,-193,-160
-34,-123,-88,78,26,-105,16,11,-101,-181,-193,-160
-28,-117,-88,66,26,-105,21,17,-89,-187,-199,-154
-28,-111,-82,66,26,-99,27,23,-89,-187,-199,-160
-28,-117,-88,66,26,-105,27,23,-89,-187,-193,-154
-28,-117,-88,66,26,-105,27,29,-83,-181,-187,-154
-34,-123,-88,78,26,-105,21,23,-77,-181,-181,-148
-28,-123,-94,72,32,-111,21,29,-71,-175,-175,-142
-34,-123,-88,78,26,-105,21,29,-71,-175,-169,-142
-34,-123,-88,78,26,-105,21,35,-71,-169,-169,-142
-34,-123,-88,78,26,-105,16,35,-65,-163,-169,-142
-34,-123,-88,78,26,-105,16,35,-59,-157,-169,-136
-34,-123,-88,78,26,-105,16,41,-53,-151,-169,-136
-34,-123,-88,78,26,-105,21,47,-47,-145,-163,-136
-34,-117,-82,72,20,-99,21,53,-41,-139,-157,-136
-28,-117,-88,66,26,-105,27,65,-35,-133,-157,-136
-28,-117,-88,66,26,-105,27,65,-35,-133,-157,-136
-28,-117,-88,66,26,-105,27,71,-29,-127,-157,-130
-22,-117,-94,66,32,-105,21,77,-29,-127,-157,-130
-22,-117,-94,66,32,-105,21,83,-23,-121,-157,-124
-16,-117,-100,60,38,-111,27,89,-17,-109,-145,-124
-16,-117,-100,60,38,-111,33,89,-11,-103,-139,-118
-11,-111,-100,60,44,-105,33,95,-5,-97,-133,-118
-11,-117,-106,60,44,-111,27,95,1,-97,-133,-112
-22,-123,-100,72,38,-111,27,95,7,-85,-127,-106
-22,-129,-106,72,38,-117,33,101,19,-79,-121,-100
-22,-123,-100,72,38,-111,33,113,25,-67,-109,-94
-16,-117,-100,60,38,-111,33,119,37,-61,-103,-88
-11,-111,-100,60,44,-105,33,125,42,-55,-97,-76
-6,-105,-100,54,44,-99,39,137,42,-43,-85,-70
0,-99,-100,48,50,-99,39,143,47,-37,-79,-58
0,-99,-100,48,50,-99,33,149,53,-25,-67,-58
6,-93,-100,42,50,-93,39,155,65,-13,-61,-52
12,-81,-94,31,50,-87,39,167,77,-7,-55,-40
18,-75,-94,31,56,-81,39,173,89,5,-49,-34
18,-75,-94,31,56,-81,39,185,101,11,-49,-34
24,-75,-100,26,62,-87,45,191,107,17,-43,-28
24,-81,-106,26,62,-93,51,203,119,29,-37,-16
30,-75,-106,26,68,-87,51,209,131,41,-25,-10
42,-75,-118,20,80,-93,57,221,143,52,-13,-4
48,-75,-124,14,86,-99,57,239,161,57,-1,8
48,-75,-124,14,86,-99,57,251,173,63,11,20
54,-69,-124,8,86,-93,63,263,185,69,23,26
54,-63,-118,8,86,-87,63,281,197,87,34,38
54,-57,-112,2,80,-81,63,299,215,105,39,50
60,-52,-112,-4,86,-81,63,311,233,123,51,62
60,-52,-112,-4,86,-81,63,329,251,147,63,68
72,-52,-124,-10,98,-87,69,353,269,171,75,78
78,-52,-130,-10,104,-87,69,365,287,183,93,90
84,-52,-136,-16,110,-93,75,383,305,207,105,102
90,-52,-142,-16,116,-93,75,407,329,225,123,120
96,-52,-148,-22,122,-99,81,425,347,243,135,132
102,-47,-148,-22,128,-93,81,449,371,261,153,144
102,-41,-142,-28,122,-87,87,467,389,279,177,156
102,-35,-136,-28,122,-81,87,491,407,303,195,174
108,-29,-136,-40,122,-81,87,509,431,327,213,186
108,-23,-130,-40,122,-75,87,533,449,357,237,210
120,-17,-136,-52,128,-75,93,557,473,387,255,228
132,-11,-142,-58,140,-75,99,587,497,417,279,252
144,1,-142,-70,146,-69,105,605,515,441,303,276
156,7,-148,-82,152,-69,111,623,539,465,321,300
162,7,-154,-82,158,-69,111,647,557,489,339,318
174,7,-166,-88,170,-75,117,665,581,507,363,336
180,13,-166,-94,176,-75,117,683,599,531,387,354
186,31,-154,-106,170,-57,117,707,623,555,417,378
198,55,-142,-124,170,-41,111,725,641,585,441,396
210,61,-148,-130,182,-41,111,737,659,609,459,414
210,67,-142,-136,176,-35,111,755,671,633,477,432
222,73,-148,-142,188,-35,111,761,683,651,489,444
234,79,-154,-154,194,-35,111,773,695,669,501,462
240,91,-148,-166,194,-29,111,779,701,681,519,474
240,91,-148,-166,194,-29,105,785,713,693,531,486
240,97,-142,-166,194,-23,105,791,713,699,543,498
240,97,-142,-166,194,-23,105,797,713,705,561,504
246,103,-142,-172,194,-17,105,803,719,717,573,516
246,109,-136,-172,194,-11,105,803,725,723,585,528
246,109,-136,-172,194,-11,99,803,725,729,591,534
258,109,-148,-178,206,-17,99,803,719,729,591,540
258,103,-154,-178,206,-23,99,803,719,729,597,546
252,97,-154,-172,206,-29,93,791,713,729,597,546
252,91,-160,-172,206,-35,93,785,707,729,591,540
258,97,-160,-172,212,-29,93,785,707,729,591,546
258,97,-160,-172,212,-29,87,773,695,717,579,540
258,103,-154,-178,206,-23,81,761,683,705,573,540
258,103,-154,-178,206,-23,69,743,671,693,567,534
252,97,-154,-172,206,-29,63,731,659,681,561,528
246,91,-154,-166,200,-29,63,713,647,669,555,516
240,85,-154,-160,200,-35,63,695,629,651,537,504
228,79,-148,-154,188,-35,57,671,605,633,525,492
222,79,-142,-148,182,-29,57,641,581,615,507,474
222,85,-136,-148,182,-23,57,623,557,603,495,462
222,79,-142,-148,182,-29,57,599,533,585,483,450
216,73,-142,-142,182,-35,57,575,509,561,465,426
198,67,-130,-130,164,-29,51,551,485,531,441,408
192,67,-124,-130,158,-29,51,521,461,495,417,384
180,73,-106,-124,146,-17,45,485,437,465,393,366
168,73,-94,-118,134,-11,39,455,413,429,363,342
156,79,-76,-118,116,1,39,425,389,405,339,318
150,73,-76,-106,116,1,39,389,359,375,309,294
132,67,-64,-100,98,1,27,359,323,351,285,270
120,61,-58,-88,92,1,21,329,293,321,255,240
108,55,-52,-82,80,1,16,299,269,297,225,216
90,43,-46,-64,68,1,11,269,239,261,195,180
78,37,-41,-52,62,1,11,245,215,231,171,156
66,37,-30,-46,50,7,11,221,191,207,147,132
54,31,-24,-40,38,7,5,203,173,183,129,114
54,19,-36,-34,44,-5,5,179,155,159,105,96
42,7,-36,-22,38,-11,5,161,137,135,93,90
30,1,-30,-10,32,-11,5,137,125,123,75,73
24,-5,-30,-10,26,-17,5,119,101,105,63,68
12,-17,-30,2,20,-23,5,101,77,87,45,50
6,-23,-30,14,20,-23,5,89,59,69,34,38
-6,-29,-24,20,10,-23,11,77,47,52,17,20
-11,-35,-24,26,10,-29,11,65,42,35,5,8
-11,-41,-30,26,10,-35,11,59,37,23,-7,-4
-16,-41,-24,26,4,-35,11,47,25,11,-19,-16
-22,-41,-18,31,-2,-29,5,41,13,-1,-25,-28
-22,-47,-24,36,4,-35,11,35,7,-7,-31,-28
-28,-52,-24,36,-2,-41,5,29,1,-13,-31,-34
-28,-52,-24,36,-2,-41,-1,23,-11,-13,-37,-34
-28,-52,-24,36,-2,-41,-7,23,-17,-19,-37,-40
-34,-57,-24,42,-8,-41,-7,17,-29,-25,-43,-40
-34,-52,-18,42,-8,-35,-7,11,-29,-31,-43,-46
-34,-47,-12,42,-8,-29,-7,5,-35,-37,-55,-46
-40,-47,-6,42,-14,-29,-7,-1,-41,-43,-61,-52
-40,-47,-6,42,-14,-29,-7,-7,-41,-43,-67,-58
-40,-52,-12,42,-14,-35,-13,-13,-41,-49,-73,-58
-34,-52,-18,42,-8,-35,-7,-13,-47,-49,-79,-64
-40,-57,-18,42,-14,-41,-7,-13,-47,-55,-79,-64
-52,-63,-12,54,-20,-41,-7,-13,-47,-55,-79,-64
-58,-69,-12,60,-26,-41,-13,-13,-47,-61,-79,-64
-64,-69,-6,60,-32,-41,-7,-13,-47,-67,-79,-64
-64,-63,0,60,-32,-35,-1,-13,-53,-67,-85,-64
-70,-63,6,66,-38,-29,-1,-19,-53,-73,-85,-70
-58,-57,0,54,-32,-29,5,-13,-59,-67,-79,-70
-58,-52,6,54,-32,-23,5,-19,-59,-67,-85,-76
-52,-47,6,48,-26,-23,-7,-25,-65,-67,-85,-76
-52,-47,6,48,-26,-23,-7,-25,-59,-67,-85,-76
-58,-47,12,54,-32,-17,-13,-25,-59,-67,-85,-76
-58,-47,12,54,-32,-17,-13,-25,-59,-67,-85,-76
-64,-47,18,54,-38,-17,-7,-19,-53,-67,-79,-76
-64,-47,18,54,-38,-17,-7,-25,-47,-67,-79,-70
-64,-41,24,48,-44,-11,-1,-25,-41,-67,-79,-58
-64,-47,18,54,-38,-17,-1,-19,-41,-67,-73,-58
-70,-52,18,60,-44,-17,-1,-19,-41,-67,-73,-58
-70,-57,12,60,-44,-23,-1,-19,-41,-61,-67,-58
-64,-57,6,54,-38,-29,-7,-19,-35,-55,-67,-64
-64,-57,6,54,-38,-29,-1,-19,-35,-43,-67,-64
-58,-52,6,54,-32,-23,-1,-13,-35,-37,-61,-58
-52,-52,0,48,-26,-29,-1,-7,-35,-37,-61,-58
-58,-47,12,54,-32,-17,5,-7,-29,-37,-61,-64
-58,-41,18,48,-38,-11,5,-7,-29,-37,-61,-64
-52,-35,18,42,-32,-11,11,-7,-29,-37,-61,-64
-52,-35,18,42,-32,-11,5,-7,-23,-37,-61,-64
-52,-35,18,42,-32,-11,11,-7,-23,-37,-61,-64
-46,-29,18,36,-32,-5,5,-1,-23,-37,-55,-64
-46,-29,18,36,-32,-5,5,5,-23,-37,-55,-64
-46,-29,18,36,-32,-5,5,5,-29,-37,-55,-64
-46,-23,24,36,-32,1,11,11,-23,-31,-55,-58
-46,-23,24,36,-32,1,11,11,-23,-31,-55,-52
-46,-23,24,36,-32,1,11,11,-17,-31,-55,-52
-46,-23,24,36,-32,1,16,11,-17,-31,-55,-46
-52,-23,30,36,-38,1,11,5,-23,-31,-55,-52
-46,-23,24,36,-32,1,11,5,-23,-25,-55,-58
-40,-17,24,26,-32,1,11,5,-23,-25,-49,-58
-40,-17,24,26,-32,1,11,5,-23,-25,-49,-58
-34,-23,12,31,-20,-5,5,5,-29,-31,-55,-58
-34,-23,12,31,-20,-5,5,5,-29,-37,-55,-52
-34,-29,6,31,-20,-11,5,-1,-29,-37,-55,-52
-34,-29,6,31,-20,-11,5,-1,-35,-43,-61,-52
-34,-35,0,36,-14,-17,-1,-7,-35,-43,-61,-58
-40,-29,12,31,-26,-11,5,-7,-35,-43,-61,-58
-40,-29,12,31,-26,-11,5,-7,-41,-43,-61,-58
-40,-35,6,36,-20,-17,5,-13,-41,-43,-61,-58
-34,-29,6,31,-20,-11,5,-13,-41,-43,-61,-58
-40,-29,12,31,-26,-11,5,-19,-41,-43,-61,-64
-46,-29,18,36,-32,-5,5,-19,-41,-43,-67,-64
-52,-41,12,42,-32,-17,11,-13,-41,-49,-67,-64
-52,-41,12,42,-32,-17,11,-13,-41,-49,-73,-64
-52,-41,12,42,-32,-17,11,-19,-47,-55,-73,-70
-52,-47,6,48,-26,-23,11,-13,-53,-61,-79,-70
-52,-52,0,48,-26,-29,11,-13,-59,-67,-79,-76
-52,-52,0,48,-26,-29,11,-25,-65,-73,-73,-70
-52,-52,0,48,-26,-29,11,-31,-65,-73,-79,-76
-58,-52,6,54,-32,-23,11,-37,-65,-73,-79,-76
-58,-52,6,54,-32,-23,16,-42,-71,-73,-79,-76
-58,-47,12,54,-32,-17,11,-42,-71,-79,-79,-76
-64,-52,12,54,-38,-23,11,-42,-71,-79,-85,-76
-64,-52,12,54,-38,-23,5,-37,-77,-79,-85,-76
-52,-41,12,42,-32,-17,5,-37,-77,-79,-91,-76
-52,-47,6,48,-26,-23,5,-37,-83,-85,-97,-76
-58,-52,6,54,-32,-23,-1,-42,-89,-97,-97,-76
-52,-52,0,48,-26,-29,-1,-42,-89,-97,-97,-82
-40,-47,-6,42,-14,-29,-1,-42,-89,-103,-97,-82
-34,-41,-6,36,-14,-23,-1,-42,-89,-103,-97,-88
-34,-41,-6,36,-14,-23,-1,-47,-89,-109,-97,-88
-28,-47,-18,36,-2,-35,-1,-42,-95,-109,-103,-88
-28,-47,-18,36,-2,-35,-1,-42,-95,-115,-103,-88
-34,-52,-18,42,-8,-35,5,-47,-95,-115,-103,-88
-40,-52,-12,42,-14,-35,5,-47,-101,-121,-103,-94
-40,-57,-18,42,-14,-41,11,-47,-101,-133,-103,-94
-46,-57,-12,48,-20,-35,11,-47,-107,-133,-103,-94
-46,-57,-12,48,-20,-35,11,-47,-107,-139,-103,-94
-46,-63,-18,54,-14,-41,11,-53,-119,-139,-103,-100
-40,-63,-24,48,-8,-46,5,-53,-119,-139,-103,-106
-46,-69,-24,54,-14,-46,5,-53,-125,-145,-103,-106
-40,-69,-30,48,-8,-51,-1,-59,-125,-151,-103,-106
-40,-63,-24,48,-8,-46,-1,-59,-125,-151,-97,-106
-40,-57,-18,42,-14,-41,-1,-59,-125,-151,-97,-106
-46,-57,-12,48,-20,-35,-7,-59,-125,-151,-97,-106
-52,-63,-12,54,-20,-41,-1,-59,-131,-157,-97,-106
-52,-63,-12,54,-20,-41,-1,-59,-131,-157,-103,-106
-52,-69,-18,54,-20,-46,-1,-65,-131,-163,-109,-106
-52,-69,-18,54,-20,-46,-7,-71,-137,-163,-109,-106
-52,-69,-18,54,-20,-46,-7,-77,-137,-163,-109,-112
-52,-69,-18,54,-20,-46,-7,-83,-137,-163,-115,-112
-52,-69,-18,54,-20,-46,-13,-89,-137,-163,-115,-118
-52,-75,-24,60,-14,-51,-7,-89,-137,-163,-115,-118
-52,-75,-24,60,-14,-51,-7,-95,-137,-163,-121,-118
-52,-81,-30,60,-14,-57,-7,-89,-137,-157,-121,-118
-58,-87,-30,72,-14,-57,-7,-83,-137,-157,-127,-118
-58,-93,-36,72,-14,-63,-7,-83,-137,-157,-127,-124
-58,-99,-41,78,-8,-69,-7,-83,-143,-163,-133,-118
-64,-99,-36,78,-14,-69,-13,-89,-143,-163,-133,-118
-58,-93,-36,72,-14,-63,-7,-95,-137,-169,-133,-118
-58,-93,-36,72,-14,-63,-7,-101,-149,-175,-139,-130
-58,-87,-30,72,-14,-57,-1,-101,-149,-175,-139,-130
-52,-75,-24,60,-14,-51,-1,-101,-155,-181,-133,-130
-52,-75,-24,60,-14,-51,-7,-101,-155,-181,-139,-130
-46,-75,-30,60,-8,-51,-13,-101,-161,-181,-139,-136
-46,-75,-30,60,-8,-51,-19,-101,-161,-181,-139,-136
-46,-81,-36,60,-8,-57,-19,-95,-161,-175,-133,-130
-40,-81,-41,54,-2,-63,-19,-95,-161,-175,-133,-130
-46,-87,-41,66,-2,-63,-13,-95,-161,-169,-133,-130
-46,-87,-41,66,-2,-63,-13,-89,-161,-169,-133,-124
-52,-87,-36,66,-8,-63,-13,-89,-161,-169,-133,-124
-52,-87,-36,66,-8,-63,-13,-89,-161,-175,-133,-118
-52,-93,-41,66,-8,-69,-13,-83,-161,-181,-133,-118
-52,-87,-36,66,-8,-63,-19,-89,-161,-181,-133,-124
-52,-93,-41,66,-8,-69,-19,-89,-161,-187,-139,-124
-52,-93,-41,66,-8,-69,-19,-95,-161,-187,-139,-130
-52,-93,-41,66,-8,-69,-19,-101,-161,-187,-139,-136
-52,-93,-41,66,-8,-69,-19,-107,-167,-187,-145,-142
-52,-99,-46,72,-2,-75,-19,-107,-167,-187,-145,-142
-58,-99,-41,78,-8,-69,-19,-113,-173,-187,-145,-148
-58,-99,-41,78,-8,-69,-19,-119,-173,-187,-151,-148
-64,-99,-36,78,-14,-69,-25,-119,-179,-193,-151,-148
-64,-99,-36,78,-14,-69,-25,-119,-179,-199,-157,-148
-58,-87,-30,72,-14,-57,-25,-113,-179,-193,-151,-136
-40,-81,-41,54,-2,-63,-19,-107,-173,-187,-151,-130
-34,-81,-46,54,4,-63,-13,-107,-167,-187,-145,-130
-34,-81,-46,54,4,-63,-13,-107,-167,-187,-145,-130
-34,-81,-46,54,4,-63,-19,-107,-167,-187,-145,-136
-34,-81,-46,54,4,-63,-19,-107,-167,-187,-145,-136
-28,-75,-46,48,10,-63,-19,-107,-161,-181,-139,-142
-34,-81,-46,54,4,-63,-19,-107,-161,-181,-139,-142
-34,-87,-52,60,10,-69,-13,-101,-161,-181,-139,-142
-34,-87,-52,60,10,-69,-13,-101,-167,-181,-139,-142
-40,-87,-46,60,4,-69,-13,-101,-167,-181,-139,-142
-46,-87,-41,66,-2,-63,-19,-101,-167,-181,-145,-142
-46,-93,-46,66,-2,-69,-19,-107,-173,-193,-151,-148
-46,-87,-41,66,-2,-63,-25,-107,-167,-193,-151,-148
-52,-87,-36,66,-8,-63,-25,-107,-167,-193,-151,-148
-58,-87,-30,72,-14,-57,-19,-113,-167,-193,-151,-148
-58,-93,-36,72,-14,-63,-19,-113,-167,-199,-151,-148
-58,-93,-36,72,-14,-63,-19,-113,-167,-199,-151,-148
-52,-99,-46,72,-2,-75,-19,-107,-167,-193,-145,-142
-52,-99,-46,72,-2,-75,-19,-107,-167,-193,-145,-142
-52,-99,-46,72,-2,-75,-13,-101,-167,-193,-145,-142
-52,-105,-52,72,-2,-81,-13,-101,-167,-193,-151,-142
-52,-93,-41,66,-8,-69,-13,-101,-167,-193,-145,-136
-52,-93,-41,66,-8,-69,-13,-101,-167,-193,-139,-136
-58,-99,-41,78,-8,-69,-13,-107,-173,-199,-145,-142
-64,-93,-30,72,-20,-63,-19,-113,-179,-199,-145,-148
-64,-93,-30,72,-20,-63,-25,-119,-179,-199,-145,-148
-64,-87,-24,72,-20,-57,-31,-125,-179,-205,-145,-148
-58,-87,-30,72,-14,-57,-31,-125,-179,-199,-151,-148
-64,-87,-24,72,-20,-57,-37,-125,-185,-199,-157,-148
-58,-87,-30,72,-14,-57,-31,-119,-179,-193,-157,-148
-52,-81,-30,60,-14,-57,-31,-119,-179,-193,-157,-148
-64,-87,-24,72,-20,-57,-25,-119,-185,-193,-157,-154
-58,-87,-30,72,-14,-57,-25,-113,-185,-193,-157,-148
-58,-87,-30,72,-14,-57,-25,-113,-185,-193,-157,-148
-58,-87,-30,72,-14,-57,-31,-113,-185,-199,-163,-154
-58,-87,-30,72,-14,-57,-25,-119,-179,-205,-163,-154
-58,-87,-30,72,-14,-57,-25,-119,-179,-205,-163,-154
-52,-81,-30,60,-14,-57,-31,-119,-173,-205,-163,-154
-58,-75,-18,66,-20,-46,-31,-119,-173,-205,-163,-154
-58,-69,-12,60,-26,-41,-31,-119,-179,-211,-163,-148
-58,-63,-6,60,-26,-35,-31,-119,-179,-211,-163,-148
-58,-57,0,54,-32,-29,-25,-119,-173,-211,-163,-148
-52,-57,-6,48,-26,-35,-25,-119,-173,-211,-163,-148
-46,-63,-18,54,-14,-41,-25,-119,-179,-211,-169,-148
-46,-69,-24,54,-14,-46,-25,-119,-179,-211,-169,-148
-46,-69,-24,54,-14,-46,-31,-125,-185,-211,-169,-148
-46,-69,-24,54,-14,-46,-37,-119,-185,-211,-169,-148
-52,-69,-18,54,-20,-46,-31,-119,-179,-205,-163,-148
-58,-69,-12,60,-26,-41,-37,-119,-179,-205,-163,-142
-58,-69,-12,60,-26,-41,-37,-119,-179,-205,-157,-142
-64,-75,-12,66,-26,-46,-37,-119,-179,-199,-157,-142
-64,-75,-12,66,-26,-46,-37,-119,-173,-193,-151,-142
-70,-75,-6,72,-32,-41,-37,-119,-167,-187,-151,-142
-64,-75,-12,66,-26,-46,-37,-125,-167,-181,-151,-142
-64,-75,-12,66,-26,-46,-31,-125,-167,-181,-151,-142
-64,-81,-18,66,-26,-51,-31,-125,-167,-181,-151,-142
-64,-75,-12,66,-26,-46,-31,-125,-161,-181,-145,-136
-70,-81,-12,72,-32,-46,-31,-131,-167,-187,-145,-136
-58,-75,-18,66,-20,-46,-31,-131,-167,-193,-145,-142
-52,-69,-18,54,-20,-46,-31,-131,-167,-193,-139,-136
-52,-69,-18,54,-20,-46,-31,-131,-167,-199,-145,-136
-58,-69,-12,60,-26,-41,-31,-131,-167,-199,-151,-142
-64,-75,-12,66,-26,-46,-31,-131,-179,-205,-151,-148
-70,-75,-6,72,-32,-41,-31,-131,-179,-199,-157,-148
-64,-63,0,60,-32,-35,-31,-125,-179,-187,-151,-148
-58,-57,0,54,-32,-29,-25,-119,-167,-181,-151,-148
-46,-52,-6,48,-20,-29,-25,-119,-161,-175,-145,-148
-46,-52,-6,48,-20,-29,-25,-119,-149,-175,-145,-142
-52,-52,0,48,-26,-29,-19,-113,-143,-175,-145,-136
-52,-47,6,48,-26,-23,-13,-107,-143,-169,-139,-130
-52,-35,18,42,-32,-11,-13,-107,-137,-175,-139,-130
-52,-29,24,36,-38,-5,-7,-95,-137,-169,-133,-124
-52,-17,36,31,-44,7,-1,-89,-137,-163,-127,-124
-46,-5,42,26,-44,19,-1,-89,-137,-157,-127,-124
-46,-11,36,31,-38,13,5,-83,-131,-157,-121,-118
-46,-11,36,31,-38,13,5,-83,-131,-151,-121,-112
-46,-5,42,26,-44,19,5,-89,-131,-157,-121,-112
-52,-5,48,26,-50,19,5,-89,-125,-157,-121,-112
-52,1,54,26,-50,25,11,-83,-119,-157,-121,-112
-52,1,54,26,-50,25,16,-77,-119,-157,-121,-106
-58,1,60,31,-56,31,16,-77,-119,-151,-121,-112
-58,13,72,26,-62,43,16,-77,-119,-145,-115,-106
-58,25,84,20,-68,55,16,-71,-113,-133,-109,-100
-58,37,96,14,-74,67,16,-65,-101,-121,-97,-94
-58,49,108,8,-80,79,16,-65,-89,-115,-91,-94
-58,61,120,2,-86,91,16,-71,-89,-115,-91,-88
-58,67,126,-4,-92,97,11,-77,-95,-121,-91,-94
-58,73,132,-4,-92,103,5,-89,-101,-133,-97,-94
-58,73,132,-4,-92,103,-7,-95,-107,-139,-97,-88
-52,79,132,-16,-92,103,-19,-101,-113,-139,-97,-88
-52,79,132,-16,-92,103,-31,-113,-125,-145,-97,-88
-58,79,138,-10,-98,109,-43,-125,-131,-145,-97,-94
-52,79,132,-16,-92,103,-49,-131,-137,-145,-97,-94
-52,73,126,-10,-86,97,-49,-131,-137,-145,-97,-88
-52,73,126,-10,-86,97,-49,-137,-143,-145,-97,-94
-46,79,126,-16,-86,103,-49,-131,-143,-145,-97,-94
-46,79,126,-16,-86,103,-55,-131,-143,-145,-97,-100
-46,85,132,-16,-86,109,-49,-125,-143,-145,-97,-100
-40,85,126,-22,-80,103,-49,-125,-137,-139,-97,-100
-34,85,120,-22,-74,103,-43,-131,-137,-139,-103,-100
-34,79,114,-22,-74,97,-43,-131,-137,-139,-103,-100
-40,61,102,-10,-68,79,-43,-137,-149,-145,-109,-106
-46,49,96,2,-68,73,-43,-143,-155,-157,-115,-106
-46,37,84,8,-62,61,-43,-143,-161,-163,-121,-112
-46,19,66,14,-56,43,-43,-143,-167,-169,-127,-112
-46,7,54,20,-50,31,-43,-143,-167,-175,-139,-118
-52,-5,48,26,-50,19,-43,-149,-173,-187,-151,-124
-58,-17,42,36,-50,13,-43,-155,-179,-193,-163,-130
-64,-29,36,42,-50,1,-37,-155,-185,-199,-163,-136
-58,-41,18,48,-38,-11,-31,-155,-191,-205,-163,-136
-58,-41,18,48,-38,-11,-31,-155,-197,-211,-163,-142
-58,-47,12,54,-32,-17,-25,-155,-197,-211,-163,-142
-64,-52,12,54,-38,-23,-25,-155,-203,-217,-163,-142
-64,-63,0,60,-32,-35,-31,-155,-209,-217,-169,-148
-58,-63,-6,60,-26,-35,-31,-143,-203,-217,-169,-148
-52,-57,-6,48,-26,-35,-31,-143,-203,-217,-169,-148
-52,-57,-6,48,-26,-35,-31,-143,-203,-223,-175,-148
-58,-63,-6,60,-26,-35,-37,-143,-203,-223,-175,-142
-58,-69,-12,60,-26,-41,-31,-143,-209,-223,-175,-142
-58,-75,-18,66,-20,-46,-25,-143,-209,-223,-175,-148
-58,-81,-24,66,-20,-51,-25,-137,-203,-217,-175,-148
-58,-87,-30,72,-14,-57,-13,-131,-191,-211,-175,-148
-70,-99,-30,84,-20,-63,5,-113,-185,-211,-175,-154
-76,-111,-36,90,-20,-75,33,-83,-173,-211,-187,-166
-88,-129,-41,102,-26,-87,81,-37,-143,-205,-199,-178
-94,-147,-52,120,-20,-99,153,35,-107,-205,-217,-196
-112,-159,-46,132,-32,-105,231,113,-47,-199,-241,-220
-130,-177,-46,150,-44,-111,315,197,1,-199,-265,-250
-148,-189,-41,162,-56,-117,387,263,47,-199,-289,-280
-166,-189,-24,174,-74,-105,441,317,83,-199,-319,-310
-172,-177,-6,168,-86,-93,477,347,119,-199,-337,-328
-178,-165,12,168,-98,-75,501,371,137,-199,-343,-346
-166,-147,18,156,-92,-63,507,389,161,-187,-343,-340
-142,-117,24,126,-86,-46,507,413,197,-145,-313,-316
-112,-63,48,84,-80,-11,489,437,263,-55,-241,-250
-46,1,48,26,-44,25,453,485,359,75,-103,-136
36,85,48,-58,-2,67,429,593,521,285,93,44
156,181,24,-166,68,103,411,791,767,579,357,270
288,289,0,-286,146,145,393,989,1037,897,651,534
414,421,6,-412,206,217,309,1097,1259,1209,951,804
528,577,48,-550,242,313,177,1091,1403,1503,1251,1068
630,757,126,-688,254,445,16,989,1493,1773,1539,1320
708,949,240,-826,236,595,-169,773,1493,1977,1791,1536
774,1129,354,-946,212,745,-385,479,1415,2145,2007,1716
804,1273,468,-1036,170,871,-559,191,1325,2295,2199,1854
810,1345,534,-1072,140,943,-661,-42,1265,2439,2349,1950
804,1381,576,-1090,116,979,-757,-293,1151,2522,2451,1992
768,1399,630,-1084,68,1015,-853,-563,953,2486,2456,1956
708,1375,666,-1042,20,1021,-937,-839,659,2289,2325,1818
624,1297,672,-958,-20,985,-1003,-1085,323,1947,2073,1596
522,1165,642,-838,-56,907,-1051,-1289,-53,1485,1713,1314
408,991,582,-700,-86,787,-1051,-1433,-437,927,1251,990
270,793,522,-526,-122,661,-1003,-1511,-767,363,753,624
150,601,450,-370,-146,529,-949,-1547,-1019,-103,327,300
60,433,372,-244,-152,403,-889,-1535,-1169,-415,29,62
-6,289,294,-136,-146,295,-817,-1469,-1217,-589,-169,-112
-46,157,204,-52,-122,181,-727,-1367,-1217,-691,-301,-238
-76,49,126,14,-98,85,-631,-1247,-1181,-733,-385,-316
-88,-29,60,54,-74,13,-529,-1079,-1097,-715,-409,-340
-100,-87,12,90,-56,-41,-451,-905,-983,-661,-397,-334
-112,-117,-6,108,-56,-63,-379,-737,-845,-583,-373,-304
-100,-123,-24,108,-38,-75,-307,-581,-695,-493,-337,-268
-94,-129,-36,108,-32,-81,-241,-455,-557,-421,-313,-238
-94,-135,-41,114,-26,-87,-187,-359,-449,-367,-289,-226
-88,-147,-58,114,-14,-105,-139,-293,-365,-325,-277,-214
-82,-141,-58,108,-14,-99,-97,-251,-305,-289,-259,-202
-70,-129,-58,96,-8,-93,-73,-227,-269,-259,-235,-190
-52,-123,-70,84,10,-99,-55,-203,-245,-241,-217,-178
-46,-117,-70,78,10,-93,-43,-179,-233,-223,-199,-172
-46,-117,-70,78,10,-93,-31,-149,-221,-205,-193,-166
-52,-117,-64,78,4,-93,-13,-119,-197,-193,-187,-160
-58,-123,-64,90,4,-93,-1,-83,-167,-181,-187,-148
-64,-129,-64,90,-2,-99,11,-59,-143,-175,-187,-148
-70,-135,-64,102,-2,-99,16,-42,-119,-169,-187,-148
-70,-141,-70,102,-2,-105,27,-37,-107,-163,-187,-148
-64,-147,-82,102,10,-117,33,-31,-101,-163,-187,-148
-64,-147,-82,102,10,-117,33,-31,-107,-169,-181,-154
-64,-153,-88,102,10,-123,33,-31,-113,-169,-181,-148
-70,-153,-82,108,4,-117,39,-25,-113,-169,-175,-148
-64,-153,-88,102,10,-123,39,-25,-107,-169,-175,-142
-64,-147,-82,102,10,-117,39,-19,-101,-169,-175,-136
-64,-147,-82,102,10,-117,45,-13,-89,-163,-175,-130
-64,-147,-82,102,10,-117,45,-1,-83,-163,-175,-130
-64,-141,-76,96,4,-111,51,5,-77,-157,-169,-130
-64,-141,-76,96,4,-111,51,17,-77,-157,-169,-130
-70,-141,-70,102,-2,-105,51,17,-71,-157,-175,-136
-76,-141,-64,102,-8,-105,57,17,-71,-157,-175,-136
-70,-135,-64,102,-2,-99,63,17,-71,-157,-175,-130
-70,-135,-64,102,-2,-99,63,17,-71,-157,-169,-130
-52,-123,-70,84,10,-99,69,23,-65,-151,-163,-124
-52,-123,-70,84,10,-99,63,29,-59,-145,-163,-124
-58,-129,-70,90,4,-99,63,29,-53,-139,-157,-124
-52,-129,-76,84,10,-105,63,35,-47,-139,-151,-118
-52,-123,-70,84,10,-99,57,35,-47,-133,-151,-124
-52,-123,-70,84,10,-99,63,35,-41,-127,-145,-118
-58,-117,-58,84,-2,-87,63,41,-41,-127,-145,-118
-58,-117,-58,84,-2,-87,63,47,-35,-121,-145,-118
-58,-117,-58,84,-2,-87,63,47,-29,-109,-133,-112
-58,-117,-58,84,-2,-87,69,59,-17,-103,-127,-106
-52,-111,-58,78,4,-87,69,65,-17,-97,-127,-106
-52,-111,-58,78,4,-87,69,65,-11,-91,-127,-100
-52,-117,-64,78,4,-93,69,65,1,-85,-121,-94
-46,-117,-70,78,10,-93,69,65,7,-79,-115,-94
-46,-117,-70,78,10,-93,69,71,13,-73,-109,-94
-34,-117,-82,72,20,-99,69,77,13,-67,-103,-88
-34,-117,-82,72,20,-99,75,83,19,-61,-103,-82
-28,-111,-82,66,26,-99,75,83,25,-49,-103,-82
-28,-111,-82,66,26,-99,75,89,25,-43,-97,-82
-28,-105,-76,60,20,-93,75,89,37,-31,-91,-82
-28,-111,-82,66,26,-99,69,95,42,-25,-79,-76
-34,-111,-76,72,20,-93,69,101,47,-25,-79,-76
-28,-105,-76,60,20,-93,75,113,53,-19,-73,-70
-28,-99,-70,60,20,-87,75,119,53,-13,-73,-70
-28,-93,-64,54,15,-81,81,125,59,-7,-73,-58
-28,-87,-58,54,15,-75,81,137,77,11,-61,-52
-22,-87,-64,54,20,-75,87,143,89,29,-55,-40
-16,-87,-70,48,26,-81,81,155,101,41,-43,-28
-16,-81,-64,42,20,-75,87,161,107,47,-37,-28
-11,-75,-64,42,26,-69,87,173,125,52,-25,-16
0,-69,-70,31,32,-69,93,185,137,57,-13,-16
0,-69,-70,31,32,-69,93,191,143,69,-7,-4
0,-69,-70,31,32,-69,99,203,155,81,5,2
0,-69,-70,31,32,-69,99,215,161,93,17,14
6,-69,-76,31,38,-69,99,227,179,105,23,20
6,-69,-76,31,38,-69,99,239,191,123,34,32
12,-63,-76,26,44,-69,99,257,215,141,39,44
18,-63,-82,26,50,-69,99,269,227,159,45,50
18,-57,-76,20,44,-63,99,287,245,171,57,62
30,-47,-76,14,56,-57,105,305,269,189,75,73
30,-41,-70,8,50,-51,105,317,287,207,87,78
30,-35,-64,8,50,-46,111,335,305,219,105,84
36,-23,-58,-4,50,-41,117,353,323,237,123,102
48,-17,-64,-16,56,-41,117,365,341,255,135,114
54,-17,-70,-16,62,-41,123,383,359,273,147,126
66,-17,-82,-22,74,-46,123,401,383,291,159,138
66,-17,-82,-22,74,-46,129,425,407,315,177,156
78,-5,-82,-34,80,-41,129,455,437,345,195,174
90,7,-82,-46,86,-35,129,485,467,375,219,198
96,13,-82,-52,92,-35,135,515,491,399,243,216
102,25,-76,-58,92,-23,141,539,521,429,267,240
102,31,-70,-64,86,-17,141,557,539,459,291,264
108,37,-70,-70,92,-17,147,575,557,489,321,282
120,43,-76,-82,98,-17,147,593,575,513,345,306
138,49,-88,-88,116,-17,153,617,599,543,369,324
150,61,-88,-100,122,-11,159,635,623,567,387,342
162,67,-94,-112,128,-11,165,665,647,591,405,366
174,79,-94,-124,134,-5,159,683,671,609,423,378
168,85,-82,-124,128,1,153,695,683,627,435,390
168,97,-70,-130,122,13,153,713,695,645,459,408
180,103,-76,-142,128,13,147,725,707,663,477,426
186,115,-70,-148,128,25,147,737,719,687,501,438
192,121,-70,-154,134,25,153,749,731,699,519,462
198,121,-76,-154,140,25,153,761,743,717,531,474
204,121,-82,-160,146,19,159,767,755,729,543,492
216,133,-82,-172,152,25,159,779,761,741,555,504
222,139,-82,-178,152,31,159,785,773,753,567,510
222,139,-82,-178,152,31,159,791,779,765,579,522
228,145,-82,-184,158,31,159,797,779,771,585,528
228,139,-88,-184,158,25,153,797,779,771,591,540
234,139,-94,-184,164,25,147,791,779,783,603,546
240,139,-100,-190,170,19,141,779,779,783,609,552
240,139,-100,-190,170,19,141,779,779,783,615,552
234,133,-100,-178,170,19,141,773,773,777,621,558
234,133,-100,-178,170,19,135,761,761,765,615,552
234,133,-100,-178,170,19,129,749,743,753,609,540
228,133,-94,-178,164,19,123,737,725,741,609,540
228,133,-94,-178,164,19,117,719,707,729,603,534
228,145,-82,-184,158,31,111,707,695,717,591,534
222,139,-82,-178,152,31,111,689,677,699,579,522
222,139,-82,-178,152,31,99,671,659,681,561,510
210,139,-70,-172,140,37,99,647,635,657,543,498
204,133,-70,-166,140,31,99,617,611,633,519,480
192,133,-58,-160,128,37,99,593,587,603,501,462
186,127,-58,-154,122,37,99,569,557,579,477,444
174,127,-46,-148,110,43,99,539,527,543,453,420
162,121,-41,-136,104,43,93,509,497,513,429,402
150,121,-30,-130,92,49,87,473,467,483,399,378
138,115,-24,-124,80,49,81,443,437,453,375,348
132,109,-24,-118,80,43,81,413,413,429,345,324
126,103,-24,-112,74,43,81,383,395,411,327,306
114,97,-18,-100,68,43,81,353,371,381,303,282
102,91,-12,-94,56,43,81,329,347,351,279,252
84,79,-6,-82,44,37,75,299,317,315,249,228
72,67,-6,-70,38,31,69,269,287,279,225,198
72,67,-6,-70,38,31,69,251,263,249,195,180
66,67,0,-64,32,37,63,227,239,225,171,156
60,61,0,-58,32,31,57,203,215,201,153,138
54,61,6,-52,26,37,57,179,191,177,129,120
42,55,12,-46,15,37,57,155,161,153,105,102
24,49,24,-34,4,37,57,131,137,129,87,84
18,43,24,-28,-2,37,51,113,113,111,69,73
12,43,30,-28,-8,37,51,95,95,93,57,62
6,43,36,-22,-14,43,51,83,77,75,39,50
0,37,36,-16,-14,37,51,65,65,52,34,38
0,31,30,-16,-14,31,51,53,53,47,17,26
0,25,24,-10,-8,25,45,47,42,29,5,20
-6,13,18,2,-8,19,39,29,31,17,-7,2
-11,7,18,2,-14,13,39,17,19,5,-19,-10
-16,-5,12,8,-14,1,33,11,7,-7,-25,-16
-22,-11,12,20,-14,1,33,5,1,-19,-37,-28
-28,-17,12,20,-20,-5,33,-1,-11,-25,-43,-34
-34,-17,18,26,-26,1,33,-7,-17,-31,-49,-40
-34,-17,18,26,-26,1,33,-7,-23,-43,-55,-46
-40,-23,18,31,-26,-5,27,-13,-29,-49,-67,-52
-40,-23,18,31,-26,-5,27,-19,-35,-61,-73,-58
-40,-23,18,31,-26,-5,27,-19,-41,-67,-79,-64
-46,-23,24,36,-32,1,27,-25,-47,-61,-85,-64
-46,-29,18,36,-32,-5,27,-25,-47,-67,-79,-64
-46,-29,18,36,-32,-5,27,-25,-53,-73,-79,-64
-46,-29,18,36,-32,-5,27,-31,-53,-73,-79,-70
-46,-29,18,36,-32,-5,33,-37,-59,-79,-85,-70
-46,-35,12,42,-26,-11,27,-37,-65,-79,-91,-76
-46,-41,6,42,-26,-17,27,-42,-65,-79,-91,-76
-52,-47,6,48,-26,-23,21,-42,-65,-79,-85,-76
-52,-52,0,48,-26,-29,21,-47,-65,-79,-91,-76
-58,-57,0,54,-32,-29,21,-47,-65,-85,-91,-70
-46,-57,-12,48,-20,-35,21,-47,-65,-85,-91,-64
-46,-52,-6,48,-20,-29,21,-47,-59,-79,-85,-58
-46,-47,0,48,-20,-23,21,-47,-59,-79,-85,-58
-46,-41,6,42,-26,-17,21,-42,-59,-79,-85,-58
-46,-41,6,42,-26,-17,27,-37,-65,-79,-79,-64
-46,-41,6,42,-26,-17,27,-37,-59,-79,-79,-64
-52,-41,12,42,-32,-17,27,-37,-53,-73,-79,-64
-46,-35,12,42,-26,-11,27,-37,-53,-73,-79,-70
-52,-35,18,42,-32,-11,27,-42,-53,-73,-85,-70
-52,-35,18,42,-32,-11,21,-37,-47,-73,-85,-70
-46,-23,24,36,-32,1,21,-37,-47,-73,-85,-64
-40,-11,30,26,-32,7,27,-37,-41,-73,-79,-64
-40,-11,30,26,-32,7,21,-31,-41,-73,-79,-64
-46,-11,36,31,-38,13,21,-31,-47,-79,-79,-64
-40,-11,30,26,-32,7,21,-31,-47,-73,-79,-64
-40,-11,30,26,-32,7,21,-25,-41,-67,-79,-58
-40,-11,30,26,-32,7,21,-25,-35,-67,-73,-58
-34,-11,24,26,-26,7,27,-19,-29,-55,-67,-52
-40,-5,36,20,-38,13,27,-19,-29,-55,-67,-52
-46,-11,36,31,-38,13,27,-13,-23,-43,-61,-52
-46,-11,36,31,-38,13,27,-13,-23,-43,-61,-52
-58,-11,48,36,-50,19,27,-13,-17,-43,-55,-52
-58,-11,48,36,-50,19,27,-7,-17,-43,-55,-46
-58,-11,48,36,-50,19,27,-7,-23,-43,-55,-46
-64,-5,60,31,-62,25,33,-7,-23,-43,-55,-46
-58,-5,54,31,-56,25,33,-7,-23,-37,-61,-46
-58,-5,54,31,-56,25,39,-7,-23,-37,-61,-46
-52,-5,48,26,-50,19,39,-7,-23,-37,-67,-46
-40,1,42,20,-38,19,45,-7,-17,-37,-67,-46
-40,1,42,20,-38,19,45,-1,-17,-37,-67,-46
-40,-5,36,20,-38,13,45,5,-17,-37,-67,-46
-46,1,48,26,-44,25,45,5,-17,-43,-67,-46
-46,1,48,26,-44,25,45,-1,-17,-43,-61,-40
-46,1,48,26,-44,25,45,-7,-17,-43,-61,-40
-46,13,60,20,-50,37,39,-13,-11,-37,-61,-40
-46,1,48,26,-44,25,39,-13,-11,-43,-61,-46
-46,-11,36,31,-38,13,39,-13,-11,-37,-61,-40
-52,-17,36,31,-44,7,33,-7,-11,-37,-61,-40
-52,-17,36,31,-44,7,33,-13,-11,-37,-61,-40
-52,-17,36,31,-44,7,33,-7,-11,-37,-61,-40
-46,-17,30,31,-38,7,39,-7,-17,-43,-61,-40
-46,-17,30,31,-38,7,45,-1,-11,-43,-55,-34
-46,-17,30,31,-38,7,51,-1,-11,-43,-61,-34
-46,-17,30,31,-38,7,51,-13,-17,-49,-61,-40
-46,-17,30,31,-38,7,45,-13,-23,-55,-61,-34
-46,-23,24,36,-32,1,51,-13,-23,-55,-61,-28
-46,-17,30,31,-38,7,51,-7,-23,-55,-61,-28
-46,-17,30,31,-38,7,51,-13,-29,-61,-61,-34
-46,-17,30,31,-38,7,51,-13,-35,-67,-67,-40
-46,-17,30,31,-38,7,51,-7,-35,-67,-67,-40
-46,-17,30,31,-38,7,45,-13,-35,-67,-73,-46
-46,-17,30,31,-38,7,45,-13,-41,-73,-73,-46
-46,-17,30,31,-38,7,45,-19,-47,-73,-73,-52
-52,-23,30,36,-38,1,39,-19,-47,-73,-73,-52
-58,-29,30,42,-44,1,39,-25,-47,-79,-79,-58
-64,-35,30,48,-44,-5,33,-37,-53,-85,-79,-64
-64,-35,30,48,-44,-5,33,-37,-59,-85,-85,-64
-58,-29,30,42,-44,1,33,-42,-59,-85,-85,-64
-52,-23,30,36,-38,1,33,-42,-65,-85,-91,-58
-46,-29,18,36,-32,-5,33,-42,-71,-91,-91,-58
-46,-29,18,36,-32,-5,33,-42,-71,-91,-91,-58
-46,-29,18,36,-32,-5,27,-47,-83,-97,-97,-64
-46,-29,18,36,-32,-5,33,-47,-83,-103,-97,-70
-46,-35,12,42,-26,-11,33,-47,-83,-103,-97,-76
-46,-29,18,36,-32,-5,33,-47,-89,-109,-103,-76
-52,-29,24,36,-38,-5,27,-47,-83,-109,-103,-76
-52,-29,24,36,-38,-5,27,-47,-83,-115,-103,-70
-52,-35,18,42,-32,-11,27,-47,-83,-115,-109,-76
-52,-29,24,36,-38,-5,27,-47,-89,-121,-109,-70
-52,-29,24,36,-38,-5,27,-47,-89,-127,-109,-70
-52,-29,24,36,-38,-5,27,-47,-89,-127,-115,-70
-58,-41,18,48,-38,-11,27,-47,-95,-133,-121,-70
-70,-41,30,54,-50,-5,27,-47,-95,-139,-127,-76
-64,-41,24,48,-44,-11,21,-53,-101,-139,-127,-76
-64,-47,18,54,-38,-17,21,-59,-107,-139,-121,-76
-64,-52,12,54,-38,-23,21,-59,-107,-139,-121,-76
-58,-57,0,54,-32,-29,16,-65,-107,-145,-121,-76
-52,-57,-6,48,-26,-35,16,-71,-113,-145,-127,-76
-58,-57,0,54,-32,-29,16,-77,-107,-151,-133,-76
-64,-63,0,60,-32,-35,16,-77,-113,-145,-133,-76
-64,-63,0,60,-32,-35,16,-77,-113,-151,-139,-82
-76,-63,12,66,-44,-29,16,-77,-125,-157,-145,-88
-82,-63,18,72,-50,-23,11,-77,-125,-157,-145,-88
-76,-63,12,66,-44,-29,11,-77,-125,-157,-139,-82
-76,-63,12,66,-44,-29,16,-77,-119,-157,-133,-82
-76,-57,18,60,-50,-23,16,-77,-119,-151,-133,-82
-70,-52,18,60,-44,-17,16,-77,-119,-151,-133,-88
-70,-52,18,60,-44,-17,16,-77,-119,-157,-133,-88
-76,-52,24,60,-50,-17,16,-83,-125,-157,-139,-94
-70,-57,12,60,-44,-23,16,-83,-125,-163,-139,-94
-70,-63,6,66,-38,-29,16,-83,-137,-163,-145,-100
-64,-57,6,54,-38,-29,16,-83,-131,-157,-139,-94
-52,-57,-6,48,-26,-35,21,-77,-131,-157,-139,-88
-52,-52,0,48,-26,-29,21,-71,-131,-157,-139,-88
-52,-52,0,48,-26,-29,16,-71,-131,-157,-139,-88
-52,-52,0,48,-26,-29,21,-71,-137,-157,-139,-88
-58,-52,6,54,-32,-23,21,-71,-137,-163,-145,-88
-58,-52,6,54,-32,-23,21,-77,-143,-169,-151,-88
-58,-52,6,54,-32,-23,21,-77,-143,-169,-151,-88
-52,-52,0,48,-26,-29,21,-71,-143,-169,-157,-88
-52,-47,6,48,-26,-23,16,-77,-143,-163,-157,-94
-58,-52,6,54,-32,-23,16,-71,-143,-163,-157,-94
-70,-57,12,60,-44,-23,16,-77,-137,-163,-157,-100
-76,-57,18,60,-50,-23,11,-77,-137,-163,-157,-100
-82,-69,12,72,-50,-29,11,-83,-143,-163,-157,-106
-82,-75,6,78,-44,-35,11,-83,-143,-169,-157,-106
-82,-69,12,72,-50,-29,11,-89,-143,-169,-163,-106
-76,-63,12,66,-44,-29,11,-89,-143,-175,-163,-106
-58,-57,0,54,-32,-29,16,-83,-137,-169,-157,-106
-46,-52,-6,48,-20,-29,16,-77,-137,-175,-157,-100
-40,-52,-12,42,-14,-35,16,-83,-137,-175,-163,-100
-46,-57,-12,48,-20,-35,16,-83,-143,-181,-163,-106
-52,-57,-6,48,-26,-35,11,-89,-143,-181,-163,-106
-52,-57,-6,48,-26,-35,11,-89,-137,-175,-157,-106
-52,-52,0,48,-26,-29,16,-83,-131,-163,-157,-100
-58,-52,6,54,-32,-23,21,-71,-125,-157,-151,-100
-58,-52,6,54,-32,-23,21,-71,-125,-157,-151,-106
-58,-52,6,54,-32,-23,21,-77,-131,-163,-157,-106
-64,-57,6,54,-38,-29,16,-77,-131,-163,-157,-112
-58,-57,0,54,-32,-29,16,-77,-137,-163,-151,-106
-52,-57,-6,48,-26,-35,16,-77,-137,-163,-151,-106
-58,-63,-6,60,-26,-35,16,-83,-143,-169,-151,-106
-52,-69,-18,54,-20,-46,16,-89,-143,-175,-151,-106
-58,-69,-12,60,-26,-41,16,-95,-143,-175,-151,-106
-64,-75,-12,66,-26,-46,11,-95,-143,-175,-157,-100
-64,-75,-12,66,-26,-46,11,-95,-143,-169,-151,-100
-64,-75,-12,66,-26,-46,5,-95,-137,-175,-151,-100
-64,-69,-6,60,-32,-41,5,-95,-137,-175,-151,-106
-64,-69,-6,60,-32,-41,5,-95,-143,-175,-157,-106
-70,-75,-6,72,-32,-41,11,-101,-143,-175,-157,-112
-76,-75,0,72,-38,-41,11,-101,-143,-175,-157,-112
-76,-75,0,72,-38,-41,16,-95,-143,-175,-157,-112
-76,-75,0,72,-38,-41,16,-95,-143,-175,-163,-112
-76,-69,6,66,-44,-35,11,-101,-149,-175,-169,-112
-76,-75,0,72,-38,-41,11,-101,-143,-175,-169,-112
-82,-81,0,78,-44,-41,11,-107,-149,-175,-175,-112
-82,-81,0,78,-44,-41,11,-107,-149,-175,-175,-112
-82,-81,0,78,-44,-41,11,-101,-149,-169,-175,-112
-76,-81,-6,72,-38,-46,11,-101,-149,-169,-175,-112
-70,-75,-6,72,-32,-41,11,-95,-155,-169,-175,-106
-64,-75,-12,66,-26,-46,11,-101,-155,-169,-175,-100
-64,-81,-18,66,-26,-51,5,-95,-155,-169,-175,-100
-58,-81,-24,66,-20,-51,-1,-95,-149,-163,-169,-94
-58,-81,-24,66,-20,-51,-1,-95,-149,-163,-169,-94
-64,-81,-18,66,-26,-51,-1,-101,-149,-169,-169,-100
-70,-81,-12,72,-32,-46,5,-95,-149,-175,-163,-100
-76,-87,-12,78,-32,-51,5,-95,-149,-181,-163,-106
-76,-87,-12,78,-32,-51,5,-101,-155,-181,-169,-112
-82,-87,-6,84,-38,-46,5,-95,-155,-187,-175,-118
-82,-87,-6,84,-38,-46,5,-95,-149,-187,-175,-118
-88,-87,0,84,-44,-46,5,-95,-149,-187,-175,-118
-88,-93,-6,84,-44,-51,5,-101,-149,-187,-175,-118
-88,-93,-6,84,-44,-51,5,-101,-149,-181,-169,-112
-88,-87,0,84,-44,-46,5,-101,-149,-181,-169,-112
-88,-87,0,84,-44,-46,-1,-101,-149,-181,-169,-112
-94,-93,0,90,-50,-46,-7,-101,-155,-187,-175,-112
-82,-87,-6,84,-38,-46,-1,-101,-155,-193,-169,-112
-70,-75,-6,72,-32,-41,-1,-95,-149,-187,-163,-106
-64,-69,-6,60,-32,-41,-1,-95,-149,-187,-163,-100
-64,-69,-6,60,-32,-41,-1,-89,-149,-181,-163,-100
-70,-75,-6,72,-32,-41,-1,-95,-155,-181,-163,-106
-64,-69,-6,60,-32,-41,-1,-101,-155,-181,-169,-106
-64,-63,0,60,-32,-35,-1,-107,-155,-181,-169,-106
-64,-63,0,60,-32,-35,-7,-107,-155,-181,-169,-106
-64,-69,-6,60,-32,-41,-1,-107,-155,-175,-169,-106
-58,-69,-12,60,-26,-41,-1,-107,-155,-175,-169,-106
-64,-75,-12,66,-26,-46,5,-107,-161,-181,-175,-106
-70,-81,-12,72,-32,-46,5,-107,-167,-187,-181,-112
-70,-81,-12,72,-32,-46,5,-107,-167,-187,-181,-112
-70,-81,-12,72,-32,-46,11,-107,-167,-187,-181,-112
-70,-81,-12,72,-32,-46,5,-107,-173,-187,-181,-112
-70,-81,-12,72,-32,-46,11,-101,-161,-181,-169,-106
-76,-75,0,72,-38,-41,16,-95,-155,-175,-157,-100
-70,-69,0,66,-38,-35,16,-89,-149,-169,-151,-94
-70,-63,6,66,-38,-29,16,-89,-149,-163,-151,-94
-70,-52,18,60,-44,-17,16,-89,-137,-157,-151,-94
-64,-41,24,48,-44,-11,16,-95,-137,-157,-151,-94
-64,-29,36,42,-50,1,16,-95,-137,-157,-145,-94
-58,-17,42,36,-50,13,16,-95,-131,-157,-145,-94
-52,-11,42,31,-44,13,16,-95,-131,-157,-145,-94
-46,-11,36,31,-38,13,16,-95,-125,-151,-139,-88
-46,-11,36,31,-38,13,16,-89,-125,-151,-139,-88
-52,-5,48,26,-50,19,21,-83,-119,-151,-139,-94
-52,1,54,26,-50,25,21,-77,-113,-145,-139,-94
-52,7,60,20,-56,31,27,-71,-113,-145,-139,-94
-58,13,72,26,-62,43,27,-71,-107,-145,-139,-94
-58,13,72,26,-62,43,27,-77,-107,-139,-139,-94
-58,19,78,20,-68,49,27,-77,-101,-139,-133,-94
-58,19,78,20,-68,49,33,-77,-95,-133,-127,-94
-58,31,90,14,-74,61,27,-77,-89,-127,-121,-88
-58,37,96,14,-74,67,21,-83,-89,-121,-115,-88
-58,43,102,8,-80,73,16,-89,-89,-121,-115,-82
-64,49,114,8,-86,79,5,-101,-95,-121,-115,-82
-64,61,126,2,-92,91,-7,-107,-101,-127,-121,-76
-58,73,132,-4,-92,103,-19,-119,-107,-133,-121,-82
-58,73,132,-4,-92,103,-25,-125,-119,-133,-127,-82
-58,73,132,-4,-92,103,-31,-137,-125,-139,-133,-82
-52,73,126,-10,-86,97,-37,-143,-125,-145,-133,-82
-52,67,120,-10,-86,91,-37,-143,-131,-145,-133,-76
-46,67,114,-10,-80,91,-43,-149,-125,-145,-127,-76
-46,73,120,-10,-80,97,-37,-149,-131,-145,-127,-70
-40,67,108,-16,-74,85,-37,-143,-131,-145,-121,-70
-40,61,102,-10,-68,79,-37,-131,-131,-139,-115,-64
-46,55,102,-4,-74,79,-37,-131,-131,-139,-115,-64
-46,43,90,2,-68,67,-37,-125,-131,-139,-115,-64
-52,31,84,8,-68,55,-37,-125,-131,-145,-115,-64
-52,25,78,14,-62,49,-31,-125,-131,-145,-115,-64
-52,13,66,20,-56,37,-25,-131,-125,-139,-115,-64
-58,1,60,31,-56,31,-25,-131,-131,-139,-121,-64
-70,-23,48,48,-56,13,-19,-137,-137,-145,-127,-70
-76,-41,36,54,-56,-5,-25,-143,-149,-157,-139,-76
-88,-47,42,66,-62,-5,-25,-149,-155,-163,-145,-88
-88,-52,36,66,-62,-11,-19,-149,-161,-169,-151,-94
-88,-57,30,66,-62,-17,-25,-149,-161,-169,-157,-94
-94,-69,24,78,-62,-23,-25,-155,-173,-181,-163,-106
-94,-81,12,84,-56,-35,-25,-149,-179,-193,-175,-112
-88,-87,0,84,-44,-46,-31,-149,-185,-205,-181,-118
-94,-99,-6,96,-44,-51,-31,-155,-185,-211,-187,-118
-94,-105,-12,96,-44,-57,-31,-155,-185,-217,-193,-118
-88,-99,-12,90,-38,-57,-31,-155,-185,-217,-187,-118
-94,-99,-6,96,-44,-51,-31,-155,-191,-217,-187,-124
-94,-105,-12,96,-44,-57,-31,-149,-191,-217,-193,-124
-94,-99,-6,96,-44,-51,-31,-149,-197,-217,-193,-124
-100,-105,-6,96,-50,-57,-31,-143,-197,-217,-199,-124
-100,-111,-12,102,-44,-63,-31,-143,-197,-217,-205,-124
-100,-111,-12,102,-44,-63,-19,-137,-197,-217,-205,-124
-100,-117,-18,102,-44,-69,-13,-125,-191,-223,-205,-124
-100,-117,-18,102,-44,-69,5,-113,-179,-217,-205,-124
-100,-129,-30,108,-38,-81,33,-89,-167,-223,-211,-130
-100,-141,-41,114,-32,-93,81,-47,-143,-223,-229,-154
-124,-159,-36,138,-44,-99,153,11,-107,-223,-253,-178
-142,-183,-41,162,-50,-111,225,83,-59,-229,-283,-208
-160,-195,-36,174,-62,-117,315,167,-11,-223,-307,-238
-184,-195,-12,186,-86,-105,387,233,37,-223,-337,-268
-196,-195,0,192,-98,-99,447,287,65,-229,-361,-304
-208,-189,18,192,-116,-87,489,323,101,-217,-373,-316
-214,-183,30,198,-122,-75,507,347,125,-211,-379,-328
-202,-171,30,186,-116,-69,519,365,149,-199,-373,-322
-190,-147,42,168,-116,-51,519,383,185,-169,-349,-298
-148,-93,54,114,-104,-23,501,413,251,-91,-271,-232
-94,-29,66,60,-80,19,471,479,353,41,-139,-118
-11,55,66,-22,-38,61,459,611,533,249,57,56
102,151,48,-124,26,103,459,809,785,531,321,276
228,259,30,-244,98,145,441,1013,1061,861,615,534
360,397,36,-376,164,217,351,1109,1283,1191,927,804
486,559,72,-520,206,319,213,1091,1433,1503,1239,1080
600,751,150,-676,224,451,45,977,1529,1797,1539,1344
690,943,252,-814,218,601,-145,761,1529,2025,1803,1566
774,1135,360,-952,206,751,-367,473,1463,2193,2019,1752
810,1279,468,-1042,170,877,-553,185,1379,2331,2205,1890
810,1351,540,-1078,134,949,-673,-53,1313,2463,2355,1986
786,1375,588,-1078,98,985,-769,-305,1205,2546,2456,2028
744,1381,636,-1060,56,1009,-865,-587,1001,2510,2462,1992
672,1357,684,-1012,-2,1021,-961,-863,707,2319,2331,1860
582,1297,714,-934,-62,1009,-1039,-1115,353,1983,2079,1638
492,1171,678,-832,-92,925,-1093,-1319,-29,1539,1725,1368
384,991,606,-688,-110,799,-1099,-1469,-431,981,1275,1044
264,775,510,-520,-122,643,-1051,-1547,-779,405,783,684
150,577,426,-358,-134,505,-997,-1577,-1037,-79,351,360
66,397,330,-226,-128,367,-931,-1559,-1187,-409,39,108
12,247,234,-130,-110,241,-847,-1493,-1241,-607,-169,-64
-28,115,144,-46,-86,127,-751,-1397,-1241,-727,-307,-184
-64,7,72,26,-68,37,-649,-1277,-1199,-775,-391,-262
-88,-57,30,66,-62,-17,-553,-1115,-1109,-751,-409,-292
-100,-99,0,96,-50,-51,-457,-935,-977,-673,-391,-280
-100,-129,-30,108,-38,-81,-379,-761,-833,-577,-361,-244
-106,-141,-36,120,-38,-87,-301,-605,-689,-481,-331,-214
-106,-153,-46,126,-32,-99,-229,-473,-563,-409,-307,-196
-106,-165,-58,132,-26,-111,-169,-371,-455,-361,-295,-190
-106,-177,-70,138,-20,-123,-127,-305,-377,-325,-283,-184
-100,-165,-64,126,-20,-117,-85,-257,-311,-301,-265,-172
-94,-159,-64,126,-14,-111,-61,-233,-275,-277,-241,-166
-88,-159,-70,120,-8,-117,-43,-215,-251,-259,-229,-160
-88,-159,-70,120,-8,-117,-31,-203,-251,-247,-217,-148
-88,-153,-64,114,-14,-111,-19,-179,-239,-235,-211,-136
-82,-153,-70,114,-8,-111,-7,-143,-221,-217,-205,-130
-82,-159,-76,120,-2,-117,11,-113,-191,-199,-205,-130
-88,-165,-76,120,-8,-123,16,-83,-167,-193,-211,-136
-94,-171,-76,132,-8,-123,27,-59,-143,-193,-211,-136
-88,-165,-76,120,-8,-123,39,-53,-125,-193,-211,-136
-94,-171,-76,132,-8,-123,45,-53,-119,-193,-211,-142
-88,-171,-82,126,-2,-129,57,-53,-119,-193,-211,-136
-88,-171,-82,126,-2,-129,63,-59,-119,-193,-205,-136
-82,-171,-88,126,4,-129,63,-59,-119,-193,-205,-130
-82,-171,-88,126,4,-129,63,-59,-119,-193,-199,-124
-82,-171,-88,126,4,-129,69,-47,-119,-187,-199,-118
-82,-171,-88,126,4,-129,69,-42,-119,-187,-199,-118
-82,-171,-88,126,4,-129,69,-31,-107,-175,-199,-118
-76,-171,-94,120,10,-135,75,-25,-101,-169,-193,-118
-76,-171,-94,120,10,-135,75,-19,-89,-169,-193,-118
-76,-171,-94,120,10,-135,81,-19,-83,-163,-187,-118
-70,-177,-106,120,15,-141,81,-13,-77,-163,-181,-118
-70,-177,-106,120,15,-141,75,-19,-77,-163,-181,-118
-76,-171,-94,120,10,-135,75,-25,-77,-163,-175,-118
-70,-171,-100,120,15,-135,75,-19,-71,-163,-169,-118
-70,-171,-100,120,15,-135,75,-13,-71,-157,-157,-112
-76,-171,-94,120,10,-135,81,-7,-65,-151,-151,-112
-82,-171,-88,126,4,-129,69,-1,-59,-145,-151,-118
-88,-171,-82,126,-2,-129,75,5,-53,-139,-145,-112
-82,-171,-88,126,4,-129,75,17,-53,-133,-139,-106
-82,-165,-82,120,-2,-123,75,23,-47,-133,-139,-106
-82,-171,-88,126,4,-129,75,29,-41,-127,-139,-106
-88,-177,-88,126,-2,-135,75,29,-35,-121,-139,-106
-82,-183,-100,132,10,-141,75,29,-29,-109,-133,-100
-76,-177,-100,120,10,-141,81,29,-23,-103,-127,-94
-70,-171,-100,120,15,-135,87,35,-17,-97,-121,-94
-64,-159,-94,108,15,-129,93,35,-17,-91,-115,-88
-58,-153,-94,102,15,-123,93,41,-11,-91,-109,-88
-58,-147,-88,102,15,-117,93,47,1,-79,-103,-82
-52,-141,-88,90,15,-117,99,59,13,-67,-97,-76
-52,-141,-88,90,15,-117,105,65,19,-67,-91,-70
-52,-141,-88,90,15,-117,105,71,31,-61,-91,-64
-46,-141,-94,90,20,-117,105,71,37,-49,-79,-64
-46,-141,-94,90,20,-117,105,83,42,-43,-73,-58
-46,-141,-94,90,20,-117,105,83,42,-37,-67,-52
-46,-141,-94,90,20,-117,105,89,47,-31,-67,-52
-46,-135,-88,90,20,-111,105,89,53,-25,-61,-46
-46,-135,-88,90,20,-111,105,95,65,-13,-55,-46
-46,-123,-76,84,15,-99,105,101,77,-7,-49,-40
-46,-123,-76,84,15,-99,105,113,89,-1,-49,-40
-46,-117,-70,78,10,-93,99,113,95,5,-43,-34
-40,-117,-76,72,15,-99,105,125,101,11,-43,-22
-40,-117,-76,72,15,-99,105,137,113,23,-37,-16
-34,-117,-82,72,20,-99,111,143,125,35,-25,-4
-34,-117,-82,72,20,-99,117,155,137,47,-19,2
-34,-117,-82,72,20,-99,117,167,149,52,-13,2
-34,-117,-82,72,20,-99,117,179,155,57,-1,14
-22,-111,-88,66,32,-99,117,191,167,69,11,20
-16,-105,-88,54,32,-99,117,203,179,81,23,32
-11,-99,-88,54,38,-93,123,215,203,99,34,44
0,-93,-94,42,44,-93,123,233,221,117,39,50
6,-87,-94,42,50,-87,129,251,239,135,57,62
12,-81,-94,31,50,-87,135,275,263,147,69,73
12,-75,-88,31,50,-81,135,293,275,165,81,78
12,-69,-82,26,44,-75,141,311,293,183,93,90
18,-63,-82,26,50,-69,141,329,311,207,111,102
30,-52,-82,14,56,-63,147,347,329,225,123,114
30,-52,-82,14,56,-63,147,365,353,249,141,132
36,-52,-88,8,62,-69,153,383,377,273,165,150
42,-47,-88,8,68,-63,165,407,401,297,189,162
48,-47,-94,2,74,-69,165,425,419,321,201,174
54,-47,-100,2,80,-69,171,449,443,351,225,186
54,-41,-94,-4,74,-63,177,479,479,381,243,204
66,-23,-88,-16,80,-51,177,503,509,405,261,222
72,-11,-82,-28,80,-46,183,521,539,429,279,234
78,-5,-82,-34,80,-41,183,545,557,447,297,252
90,1,-88,-40,92,-41,189,569,581,465,315,276
102,7,-94,-52,98,-41,189,587,605,489,339,294
108,19,-88,-64,98,-35,189,611,623,519,363,318
114,19,-94,-64,104,-35,195,629,647,549,381,336
120,25,-94,-70,110,-35,195,647,665,579,405,354
126,31,-94,-76,110,-29,195,665,683,603,435,372
138,37,-100,-82,122,-29,195,689,707,633,459,396
144,49,-94,-94,122,-23,201,707,725,657,483,414
156,55,-100,-106,128,-23,201,725,743,675,501,432
162,55,-106,-106,134,-23,207,737,761,693,519,450
162,61,-100,-106,134,-17,201,755,773,705,531,456
168,73,-94,-118,134,-11,201,767,785,723,549,474
174,73,-100,-118,140,-11,201,773,791,735,555,486
174,79,-94,-124,134,-5,195,779,803,741,567,498
180,85,-94,-130,140,-5,195,785,803,753,573,504
186,85,-100,-130,146,-5,189,785,803,759,585,516
186,97,-88,-136,140,7,189,785,803,765,597,522
198,97,-100,-142,152,1,189,785,809,771,609,528
198,103,-94,-148,146,7,189,791,809,777,615,540
198,103,-94,-148,146,7,189,791,803,777,621,540
198,103,-94,-148,146,7,189,791,803,777,621,546
204,103,-100,-154,152,1,189,785,797,783,627,546
198,103,-94,-148,146,7,183,773,791,771,621,540
204,103,-100,-154,152,1,177,761,785,771,621,540
204,109,-94,-154,152,7,171,749,773,759,621,540
198,103,-94,-148,146,7,165,731,761,747,615,540
192,109,-82,-148,140,13,159,713,743,735,603,534
186,109,-76,-142,134,19,159,701,725,723,591,534
180,103,-76,-142,128,13,153,677,695,699,579,522
174,103,-70,-136,122,19,147,653,671,675,561,510
168,103,-64,-136,116,19,135,617,641,651,543,498
162,91,-70,-124,116,13,129,587,611,627,525,474
150,85,-64,-112,110,13,123,557,581,591,495,450
138,73,-64,-100,104,7,117,521,551,561,471,420
120,67,-52,-94,86,7,105,485,521,531,441,396
102,55,-46,-76,74,7,105,455,491,495,411,366
90,49,-41,-64,68,7,105,419,461,465,381,342
84,49,-36,-64,62,7,105,395,437,435,363,324
84,49,-36,-64,62,7,105,365,413,411,339,306
84,61,-24,-70,56,19,105,335,389,381,315,288
72,61,-12,-64,44,25,93,299,353,345,285,264
66,55,-12,-58,38,25,93,275,323,315,255,234
54,49,-6,-46,32,25,93,245,293,285,231,210
48,55,6,-52,20,31,81,215,257,249,213,192
36,43,6,-40,15,25,75,191,233,213,189,168
24,37,12,-28,10,25,69,167,203,189,165,150
12,19,6,-16,4,13,63,143,179,159,141,126
0,1,0,2,4,1,63,119,161,141,117,114
-11,-17,-6,14,-2,-11,57,95,137,117,93,90
-11,-29,-18,20,4,-23,57,77,113,93,69,73
-16,-23,-6,20,-2,-17,57,59,89,75,51,62
-16,-17,0,14,-8,-11,51,47,71,57,34,44
-28,-17,12,20,-20,-5,45,29,53,41,17,32
-34,-17,18,26,-26,1,39,17,42,23,5,20
-40,-17,24,26,-32,1,33,17,37,5,-7,14
-40,-17,24,26,-32,1,33,5,25,-7,-13,2
-40,-23,18,31,-26,-5,33,-7,13,-13,-25,-4
-34,-29,6,31,-20,-11,27,-25,1,-25,-31,-16
-40,-35,6,36,-20,-17,27,-37,-11,-37,-37,-22
-46,-41,6,42,-26,-17,27,-42,-23,-49,-37,-34
-52,-41,12,42,-32,-17,27,-47,-29,-55,-49,-40
-64,-47,18,54,-38,-17,27,-59,-41,-61,-55,-46
-64,-47,18,54,-38,-17,27,-59,-47,-67,-61,-52
-64,-47,18,54,-38,-17,27,-65,-47,-73,-67,-52
-64,-47,18,54,-38,-17,21,-65,-53,-85,-67,-58
-64,-52,12,54,-38,-23,21,-71,-59,-91,-73,-58
-58,-52,6,54,-32,-23,16,-71,-65,-91,-79,-64
-58,-52,6,54,-32,-23,16,-71,-71,-97,-79,-70
-70,-57,12,60,-44,-23,16,-71,-77,-97,-85,-70
-76,-69,6,66,-44,-35,16,-71,-71,-91,-79,-70
-82,-75,6,78,-44,-35,11,-71,-71,-97,-79,-70
-82,-75,6,78,-44,-35,11,-71,-71,-103,-85,-70
-82,-81,0,78,-44,-41,5,-71,-77,-103,-85,-76
-76,-75,0,72,-38,-41,5,-71,-77,-109,-85,-70
-70,-69,0,66,-38,-35,11,-77,-83,-115,-85,-70
-70,-75,-6,72,-32,-41,16,-77,-83,-115,-91,-70
-70,-69,0,66,-38,-35,27,-77,-83,-115,-91,-70
-70,-69,0,66,-38,-35,27,-83,-83,-115,-91,-70
-70,-69,0,66,-38,-35,21,-83,-83,-121,-97,-70
-76,-75,0,72,-38,-41,21,-83,-83,-127,-97,-76
-76,-81,-6,72,-38,-46,16,-77,-77,-121,-97,-76
-76,-81,-6,72,-38,-46,16,-77,-71,-121,-97,-76
-70,-75,-6,72,-32,-41,16,-77,-65,-109,-91,-76
-70,-75,-6,72,-32,-41,16,-77,-71,-109,-91,-76
-70,-69,0,66,-38,-35,16,-71,-65,-109,-85,-76
-70,-69,0,66,-38,-35,16,-65,-65,-103,-85,-76
-76,-69,6,66,-44,-35,16,-59,-65,-97,-79,-70
-82,-69,12,72,-50,-29,16,-59,-65,-97,-79,-70
-82,-69,12,72,-50,-29,16,-53,-65,-97,-79,-76
-88,-69,18,72,-56,-29,16,-53,-65,-97,-79,-76
-88,-69,18,72,-56,-29,21,-47,-65,-97,-79,-76
-88,-63,24,72,-56,-23,21,-47,-59,-91,-79,-76
-82,-57,24,66,-56,-17,21,-42,-59,-91,-73,-76
-82,-63,18,72,-50,-23,27,-42,-53,-91,-73,-70
-76,-57,18,60,-50,-23,27,-42,-53,-97,-79,-64
-76,-52,24,60,-50,-17,27,-42,-47,-91,-79,-64
-70,-52,18,60,-44,-17,27,-42,-47,-85,-79,-64
-70,-47,24,60,-44,-11,27,-42,-47,-85,-79,-58
-64,-41,24,48,-44,-11,33,-42,-35,-79,-73,-58
-64,-41,24,48,-44,-11,33,-42,-35,-73,-73,-58
-70,-41,30,54,-50,-5,39,-42,-35,-73,-73,-58
-70,-35,36,54,-50,1,39,-42,-29,-73,-73,-58
-70,-29,42,48,-56,7,39,-42,-29,-73,-73,-58
-64,-29,36,42,-50,1,39,-42,-29,-67,-73,-58
-64,-35,30,48,-44,-5,33,-42,-29,-67,-73,-64
-70,-41,30,54,-50,-5,33,-42,-35,-67,-73,-64
-70,-41,30,54,-50,-5,27,-42,-35,-67,-73,-58
-70,-41,30,54,-50,-5,27,-42,-35,-73,-73,-58
-70,-41,30,54,-50,-5,27,-42,-35,-73,-73,-64
-70,-41,30,54,-50,-5,27,-42,-35,-73,-73,-64
-70,-47,24,60,-44,-11,27,-42,-41,-67,-79,-64
-76,-52,24,60,-50,-17,27,-42,-41,-61,-73,-64
-70,-47,24,60,-44,-11,27,-42,-35,-61,-73,-64
-70,-41,30,54,-50,-5,27,-42,-35,-61,-67,-64
-76,-41,36,54,-56,-5,27,-42,-35,-61,-67,-64
-70,-41,30,54,-50,-5,27,-42,-35,-67,-67,-58
-64,-41,24,48,-44,-11,33,-42,-41,-67,-67,-58
-58,-41,18,48,-38,-11,33,-42,-41,-67,-67,-58
-52,-41,12,42,-32,-17,33,-42,-41,-67,-73,-52
-52,-41,12,42,-32,-17,39,-42,-41,-67,-67,-52
-46,-35,12,42,-26,-11,33,-42,-41,-67,-73,-52
-46,-41,6,42,-26,-17,33,-47,-41,-67,-73,-52
-52,-41,12,42,-32,-17,33,-47,-41,-73,-73,-52
-52,-41,12,42,-32,-17,27,-47,-41,-73,-61,-52
-64,-41,24,48,-44,-11,21,-42,-47,-73,-67,-52
-58,-41,18,48,-38,-11,21,-47,-47,-79,-67,-52
-64,-41,24,48,-44,-11,27,-47,-53,-79,-67,-52
-64,-47,18,54,-38,-17,27,-47,-53,-73,-73,-52
-70,-52,18,60,-44,-17,27,-47,-65,-79,-79,-58
-70,-52,18,60,-44,-17,27,-47,-65,-85,-79,-58
-70,-52,18,60,-44,-17,27,-53,-71,-91,-85,-64
-70,-52,18,60,-44,-17,21,-59,-77,-97,-91,-70
-70,-52,18,60,-44,-17,21,-59,-77,-97,-97,-76
-70,-47,24,60,-44,-11,21,-59,-77,-103,-97,-76
-70,-47,24,60,-44,-11,21,-59,-77,-103,-97,-76
-70,-47,24,60,-44,-11,21,-65,-77,-109,-97,-82
-76,-47,30,60,-50,-11,21,-65,-83,-115,-103,-88
-82,-47,36,66,-56,-5,16,-71,-89,-121,-103,-88
-76,-47,30,60,-50,-11,11,-77,-89,-127,-103,-88
-76,-47,30,60,-50,-11,11,-77,-95,-127,-103,-88
-82,-47,36,66,-56,-5,5,-77,-101,-133,-109,-94
-82,-47,36,66,-56,-5,-1,-77,-101,-139,-115,-100
-76,-52,24,60,-50,-17,5,-77,-107,-145,-115,-100
-76,-57,18,60,-50,-23,5,-77,-113,-151,-115,-100
-82,-63,18,72,-50,-23,5,-83,-113,-157,-121,-100
-76,-63,12,66,-44,-29,11,-83,-113,-151,-115,-94
-76,-69,6,66,-44,-35,11,-83,-113,-151,-115,-88
-82,-69,12,72,-50,-29,16,-83,-119,-157,-121,-94
-82,-69,12,72,-50,-29,16,-89,-125,-163,-121,-94
-82,-69,12,72,-50,-29,16,-89,-125,-157,-121,-100
-76,-69,6,66,-44,-35,16,-95,-125,-157,-121,-100
-76,-75,0,72,-38,-41,16,-95,-125,-157,-121,-100
-76,-75,0,72,-38,-41,16,-95,-131,-163,-121,-100
-70,-69,0,66,-38,-35,11,-95,-131,-163,-121,-100
-70,-63,6,66,-38,-29,11,-95,-137,-169,-127,-100
-70,-63,6,66,-38,-29,11,-95,-137,-175,-133,-100
-76,-69,6,66,-44,-35,5,-101,-143,-181,-139,-106
-82,-75,6,78,-44,-35,-1,-107,-143,-187,-145,-106
-82,-75,6,78,-44,-35,-1,-107,-143,-187,-151,-112
-82,-75,6,78,-44,-35,-1,-107,-143,-187,-151,-112
-82,-75,6,78,-44,-35,-1,-107,-149,-187,-151,-118
-88,-75,12,78,-50,-35,-1,-113,-155,-193,-157,-118
-94,-75,18,84,-56,-29,-1,-107,-161,-199,-163,-118
-94,-75,18,84,-56,-29,-1,-113,-155,-193,-163,-112
-94,-75,18,84,-56,-29,-1,-113,-155,-193,-163,-112
-88,-81,6,78,-50,-41,-1,-113,-155,-187,-157,-112
-82,-75,6,78,-44,-35,5,-107,-149,-187,-151,-112
-76,-75,0,72,-38,-41,5,-107,-149,-181,-151,-112
-76,-75,0,72,-38,-41,5,-107,-143,-181,-151,-112
-76,-81,-6,72,-38,-46,5,-107,-149,-181,-151,-112
-82,-81,0,78,-44,-41,-1,-113,-155,-181,-157,-118
-76,-81,-6,72,-38,-46,5,-113,-155,-187,-163,-112
-70,-75,-6,72,-32,-41,5,-113,-155,-187,-163,-112
-64,-63,0,60,-32,-35,11,-113,-155,-187,-163,-112
-58,-63,-6,60,-26,-35,11,-113,-149,-187,-163,-106
-58,-69,-12,60,-26,-41,11,-113,-155,-193,-163,-112
-64,-69,-6,60,-32,-41,11,-113,-155,-193,-163,-112
-64,-69,-6,60,-32,-41,5,-113,-155,-193,-157,-112
-70,-69,0,66,-38,-35,5,-107,-155,-193,-157,-118
-76,-75,0,72,-38,-41,5,-113,-155,-193,-157,-118
-82,-75,6,78,-44,-35,-1,-107,-155,-193,-151,-118
-88,-87,0,84,-44,-46,-1,-107,-155,-199,-151,-118
-94,-87,6,90,-50,-41,-7,-107,-161,-199,-157,-124
-88,-87,0,84,-44,-46,-7,-107,-161,-199,-157,-124
-88,-87,0,84,-44,-46,-7,-107,-161,-199,-157,-124
-88,-87,0,84,-44,-46,-7,-101,-161,-199,-157,-124
-88,-81,6,78,-50,-41,-7,-101,-161,-199,-157,-124
-82,-81,0,78,-44,-41,-7,-101,-161,-199,-163,-124
-82,-81,0,78,-44,-41,-7,-101,-167,-199,-163,-124
-88,-87,0,84,-44,-46,-7,-101,-167,-205,-163,-124
-82,-81,0,78,-44,-41,-7,-107,-173,-205,-163,-136
-76,-69,6,66,-44,-35,-1,-107,-173,-205,-163,-136
-76,-69,6,66,-44,-35,-1,-107,-173,-211,-163,-136
-76,-69,6,66,-44,-35,-1,-113,-173,-211,-163,-136
-82,-75,6,78,-44,-35,-1,-113,-173,-211,-163,-136
-88,-81,6,78,-50,-41,-1,-113,-167,-211,-163,-136
-88,-81,6,78,-50,-41,-1,-113,-167,-211,-163,-130
-88,-87,0,84,-44,-46,-1,-113,-161,-211,-163,-130
-88,-87,0,84,-44,-46,-1,-113,-161,-211,-163,-136
-88,-87,0,84,-44,-46,-1,-113,-161,-217,-163,-136
-88,-87,0,84,-44,-46,-7,-113,-167,-217,-163,-136
-82,-87,-6,84,-38,-46,-7,-113,-173,-211,-169,-136
-82,-87,-6,84,-38,-46,-7,-113,-173,-211,-169,-130
-88,-87,0,84,-44,-46,-13,-113,-179,-211,-169,-130
-88,-93,-6,84,-44,-51,-13,-119,-185,-211,-175,-136
-88,-93,-6,84,-44,-51,-7,-119,-185,-205,-175,-136
-88,-93,-6,84,-44,-51,-7,-125,-185,-205,-175,-136
-88,-99,-12,90,-38,-57,-13,-131,-179,-211,-175,-142
-82,-93,-12,84,-38,-51,-7,-131,-179,-211,-175,-142
-76,-81,-6,72,-38,-46,-7,-131,-179,-211,-175,-142
-76,-81,-6,72,-38,-46,-7,-131,-179,-211,-175,-142
-82,-81,0,78,-44,-41,-13,-131,-185,-211,-175,-142
-82,-81,0,78,-44,-41,-13,-131,-191,-211,-175,-142
-82,-81,0,78,-44,-41,-13,-125,-191,-217,-175,-142
-82,-87,-6,84,-38,-46,-13,-131,-197,-217,-175,-142
-88,-93,-6,84,-44,-51,-19,-125,-191,-223,-175,-142
-82,-99,-18,90,-32,-57,-19,-125,-191,-223,-175,-136
-76,-99,-24,84,-26,-63,-19,-119,-185,-223,-175,-136
-76,-99,-24,84,-26,-63,-19,-125,-185,-223,-175,-136
-70,-105,-36,84,-20,-69,-19,-125,-185,-223,-175,-142
-70,-99,-30,84,-20,-63,-13,-125,-185,-223,-175,-142
-70,-99,-30,84,-20,-63,-13,-125,-179,-223,-175,-142
-70,-93,-24,78,-26,-57,-13,-125,-179,-223,-175,-142
-70,-93,-24,78,-26,-57,-13,-125,-179,-223,-175,-142
-76,-93,-18,78,-32,-57,-13,-131,-179,-229,-175,-142
-70,-93,-24,78,-26,-57,-13,-131,-185,-223,-169,-142
-70,-99,-30,84,-20,-63,-13,-131,-185,-223,-169,-148
-70,-99,-30,84,-20,-63,-13,-131,-185,-223,-163,-148
-70,-99,-30,84,-20,-63,-13,-131,-185,-217,-163,-148
-70,-105,-36,84,-20,-69,-13,-131,-185,-217,-169,-154
-76,-105,-30,84,-26,-69,-13,-131,-185,-223,-169,-154
-70,-93,-24,78,-26,-57,-13,-131,-185,-217,-169,-154
-70,-93,-24,78,-26,-57,-13,-131,-185,-223,-169,-148
-64,-87,-24,72,-20,-57,-7,-125,-185,-217,-169,-148
-64,-87,-24,72,-20,-57,-13,-119,-185,-217,-169,-148
-64,-93,-30,72,-20,-63,-13,-125,-185,-223,-169,-154
-70,-93,-24,78,-26,-57,-19,-131,-185,-229,-175,-154
-76,-93,-18,78,-32,-57,-19,-131,-185,-229,-175,-154
-76,-99,-24,84,-26,-63,-19,-131,-191,-235,-181,-148
-76,-105,-30,84,-26,-69,-19,-131,-185,-235,-181,-148
-76,-99,-24,84,-26,-63,-19,-125,-185,-235,-181,-148
-76,-99,-24,84,-26,-63,-19,-125,-185,-235,-181,-148
-76,-93,-18,78,-32,-57,-19,-125,-191,-229,-181,-154
-76,-87,-12,78,-32,-51,-19,-125,-185,-229,-187,-154
-70,-75,-6,72,-32,-41,-19,-131,-185,-229,-181,-154
-64,-75,-12,66,-26,-46,-19,-131,-185,-223,-181,-154
-58,-69,-12,60,-26,-41,-13,-131,-179,-217,-175,-148
-52,-69,-18,54,-20,-46,-13,-125,-179,-211,-169,-148
-52,-69,-18,54,-20,-46,-13,-125,-179,-211,-169,-148
-52,-69,-18,54,-20,-46,-19,-125,-185,-211,-175,-148
-58,-75,-18,66,-20,-46,-19,-125,-191,-217,-175,-148
-58,-81,-24,66,-20,-51,-25,-125,-191,-217,-175,-154
-64,-87,-24,72,-20,-57,-19,-125,-191,-223,-169,-154
-64,-87,-24,72,-20,-57,-19,-131,-191,-223,-169,-154
-64,-81,-18,66,-26,-51,-19,-125,-191,-223,-169,-148
-64,-81,-18,66,-26,-51,-25,-131,-191,-223,-169,-148
-70,-87,-18,78,-26,-51,-19,-131,-191,-229,-175,-148
-76,-99,-24,84,-26,-63,-19,-131,-191,-229,-175,-148
-76,-105,-30,84,-26,-69,-25,-131,-191,-229,-175,-148
-82,-105,-24,90,-32,-63,-25,-131,-191,-229,-175,-154
-76,-99,-24,84,-26,-63,-19,-125,-191,-223,-169,-154
-70,-87,-18,78,-26,-51,-13,-119,-179,-217,-169,-154
-58,-75,-18,66,-20,-46,-13,-113,-173,-211,-163,-148
-58,-69,-12,60,-26,-41,-7,-113,-173,-205,-157,-142
-58,-63,-6,60,-26,-35,-1,-113,-167,-199,-151,-136
-58,-52,6,54,-32,-23,5,-107,-161,-193,-145,-130
-64,-47,18,54,-38,-17,11,-101,-155,-187,-139,-130
-58,-35,24,48,-38,-5,16,-101,-155,-187,-139,-124
-58,-23,36,42,-44,7,16,-95,-149,-187,-139,-124
-52,-17,36,31,-44,7,16,-95,-143,-187,-133,-124
-52,-17,36,31,-44,7,16,-101,-143,-187,-139,-124
-58,-17,42,36,-50,13,21,-95,-143,-187,-133,-124
-58,-23,36,42,-44,7,21,-89,-137,-181,-127,-124
-58,-23,36,42,-44,7,21,-89,-137,-175,-127,-124
-58,-23,36,42,-44,7,21,-89,-137,-169,-127,-118
-58,-17,42,36,-50,13,21,-89,-131,-163,-121,-118
-58,-17,42,36,-50,13,21,-89,-125,-151,-115,-112
-58,-5,54,31,-56,25,16,-89,-119,-145,-115,-106
-58,7,66,26,-62,37,11,-89,-119,-145,-109,-106
-58,13,72,26,-62,43,5,-89,-119,-145,-109,-106
-58,25,84,20,-68,55,-1,-101,-131,-157,-115,-112
-58,37,96,14,-74,67,-13,-113,-137,-163,-115,-112
-58,37,96,14,-74,67,-25,-125,-143,-163,-121,-112
-64,31,96,14,-80,61,-31,-137,-155,-175,-121,-118
-58,31,90,14,-74,61,-43,-149,-161,-181,-121,-124
-52,37,90,8,-68,61,-55,-149,-167,-181,-121,-124
-52,31,84,8,-68,55,-61,-149,-173,-181,-121,-124
-58,31,90,14,-74,61,-67,-155,-173,-187,-121,-130
-58,31,90,14,-74,61,-67,-155,-173,-187,-121,-124
-58,31,90,14,-74,61,-67,-155,-167,-181,-121,-124
-58,37,96,14,-74,67,-61,-149,-161,-175,-121,-124
-52,43,96,2,-74,67,-61,-149,-161,-175,-121,-118
-52,37,90,8,-68,61,-61,-149,-161,-175,-121,-124
-58,31,90,14,-74,61,-61,-149,-161,-175,-121,-124
-52,31,84,8,-68,55,-61,-143,-167,-175,-121,-124
-52,25,78,14,-62,49,-61,-137,-167,-175,-115,-118
-52,13,66,20,-56,37,-55,-143,-167,-175,-121,-124
-52,1,54,26,-50,25,-55,-143,-173,-181,-127,-124
-52,-17,36,31,-44,7,-49,-143,-179,-193,-139,-124
-52,-35,18,42,-32,-11,-49,-149,-185,-199,-145,-130
-64,-47,18,54,-38,-17,-49,-155,-197,-205,-157,-142
-64,-52,12,54,-38,-23,-49,-161,-203,-211,-163,-148
-76,-57,18,60,-50,-23,-49,-161,-209,-217,-169,-160
-82,-69,12,72,-50,-29,-37,-161,-209,-217,-169,-160
-82,-81,0,78,-44,-41,-37,-167,-215,-223,-169,-166
-82,-87,-6,84,-38,-46,-37,-161,-215,-229,-169,-166
-82,-99,-18,90,-32,-57,-37,-161,-221,-241,-175,-166
-88,-105,-18,90,-38,-63,-37,-167,-221,-247,-175,-166
-88,-111,-24,96,-32,-69,-31,-161,-221,-253,-181,-166
-88,-117,-30,96,-32,-75,-31,-161,-221,-253,-181,-166
-88,-117,-30,96,-32,-75,-37,-161,-221,-253,-187,-166
-88,-117,-30,96,-32,-75,-37,-161,-221,-253,-187,-172
-88,-123,-36,102,-26,-81,-31,-155,-221,-247,-181,-172
-88,-123,-36,102,-26,-81,-25,-149,-221,-247,-175,-166
-88,-123,-36,102,-26,-81,-19,-143,-215,-241,-175,-166
-88,-129,-41,102,-26,-87,-13,-131,-209,-241,-175,-166
-94,-141,-46,114,-26,-93,11,-119,-203,-241,-181,-172
-106,-159,-52,132,-26,-105,45,-89,-191,-247,-199,-184
-118,-183,-64,150,-26,-123,111,-42,-167,-253,-223,-202
-136,-201,-64,162,-38,-135,183,29,-131,-259,-247,-232
-148,-213,-64,174,-44,-141,273,107,-83,-259,-277,-262
-172,-225,-52,192,-62,-141,351,185,-35,-265,-307,-304
-184,-225,-41,198,-74,-135,423,251,1,-277,-343,-340
-196,-213,-18,198,-92,-117,471,293,31,-289,-361,-364
-208,-201,6,198,-110,-99,495,311,42,-295,-373,-382
-214,-189,24,198,-122,-81,507,323,59,-289,-379,-382
-202,-171,30,186,-116,-69,513,347,83,-265,-361,-364
-166,-129,36,144,-104,-46,501,377,137,-199,-313,-322
-118,-69,48,90,-86,-11,483,437,239,-79,-205,-232
-46,1,48,26,-44,25,477,551,407,105,-37,-88
42,97,54,-64,-2,79,477,737,653,363,183,108
168,199,30,-184,68,115,465,953,941,681,465,354
294,331,36,-310,128,187,405,1097,1199,1011,771,618
426,481,54,-448,188,271,285,1103,1361,1317,1089,894
534,655,120,-592,206,391,123,1007,1463,1617,1401,1158
624,847,222,-736,200,535,-55,827,1511,1893,1701,1410
708,1045,336,-874,188,691,-277,563,1469,2097,1953,1626
774,1213,438,-988,170,829,-493,269,1391,2265,2163,1800
810,1327,516,-1066,146,925,-661,11,1331,2421,2337,1938
810,1393,582,-1096,116,991,-781,-227,1259,2540,2462,2016
786,1411,624,-1096,80,1021,-901,-497,1115,2576,2522,2028
744,1393,648,-1066,50,1021,-1009,-761,893,2486,2480,1968
666,1345,678,-1000,-2,1015,-1105,-1025,581,2235,2307,1806
570,1231,660,-898,-44,949,-1159,-1241,221,1851,2019,1566
468,1075,606,-772,-68,841,-1177,-1415,-167,1359,1641,1278
354,865,510,-604,-74,691,-1153,-1529,-563,777,1161,924
228,625,396,-424,-80,511,-1099,-1583,-899,213,675,570
132,427,294,-280,-80,361,-1039,-1583,-1121,-217,285,270
78,277,198,-172,-56,241,-961,-1535,-1223,-487,17,62
30,145,114,-82,-38,133,-871,-1457,-1259,-655,-169,-88
-11,31,42,-10,-26,37,-775,-1343,-1229,-745,-295,-196
-28,-52,-24,36,-2,-41,-673,-1193,-1145,-751,-343,-238
-46,-93,-46,66,-2,-69,-565,-1007,-1013,-685,-343,-244
-58,-117,-58,84,-2,-87,-457,-815,-863,-595,-313,-232
-64,-129,-64,90,-2,-99,-367,-641,-719,-505,-283,-214
-64,-141,-76,96,4,-111,-283,-503,-593,-427,-259,-208
-76,-153,-76,108,-2,-117,-217,-395,-485,-367,-247,-202
-82,-159,-76,120,-2,-117,-169,-317,-395,-325,-235,-196
-76,-153,-76,108,-2,-117,-145,-269,-323,-301,-223,-190
-76,-147,-70,108,-2,-111,-121,-245,-281,-277,-211,-178
-76,-153,-76,108,-2,-117,-103,-227,-257,-271,-199,-172
-82,-153,-70,114,-8,-111,-85,-209,-245,-259,-187,-166
-88,-153,-64,114,-14,-111,-61,-185,-227,-241,-181,-154
-82,-153,-70,114,-8,-111,-43,-155,-215,-229,-175,-154
-82,-153,-70,114,-8,-111,-19,-125,-197,-217,-169,-148
-70,-147,-76,108,4,-111,-1,-95,-167,-205,-169,-148
-70,-153,-82,108,4,-117,11,-71,-149,-205,-175,-154
-76,-165,-88,114,4,-129,11,-65,-143,-205,-181,-160
-76,-171,-94,120,10,-135,11,-65,-131,-205,-187,-166
-82,-177,-94,126,4,-135,11,-59,-125,-205,-187,-166
-76,-165,-88,114,4,-129,16,-53,-125,-205,-187,-160
-76,-165,-88,114,4,-129,21,-53,-125,-199,-187,-160
-76,-165,-88,114,4,-129,27,-47,-125,-199,-181,-154
-76,-159,-82,114,4,-123,27,-42,-125,-199,-181,-154
-76,-159,-82,114,4,-123,33,-37,-119,-193,-181,-154
-76,-159,-82,114,4,-123,39,-31,-113,-193,-181,-142
-76,-159,-82,114,4,-123,39,-25,-101,-187,-181,-142
-76,-159,-82,114,4,-123,39,-13,-101,-181,-175,-142
-82,-159,-76,120,-2,-117,39,-13,-95,-187,-175,-148
-76,-159,-82,114,4,-123,39,-13,-89,-187,-175,-148
-76,-159,-82,114,4,-123,39,-13,-89,-187,-175,-148
-76,-159,-82,114,4,-123,45,-7,-89,-187,-169,-148
-76,-159,-82,114,4,-123,45,-7,-83,-187,-169,-154
-76,-153,-76,108,-2,-117,45,-1,-77,-187,-169,-154
-70,-147,-76,108,4,-111,45,-1,-71,-175,-163,-148
-70,-147,-76,108,4,-111,57,5,-65,-169,-157,-142
-70,-141,-70,102,-2,-105,63,11,-59,-163,-151,-142
-70,-129,-58,96,-8,-93,57,11,-59,-157,-145,-142
-70,-135,-64,102,-2,-99,57,17,-53,-151,-145,-142
-76,-135,-58,102,-8,-99,57,17,-53,-145,-145,-142
-76,-135,-58,102,-8,-99,57,17,-47,-139,-145,-142
-70,-135,-64,102,-2,-99,63,23,-41,-133,-139,-136
-64,-135,-70,96,4,-105,63,35,-35,-133,-133,-136
-58,-135,-76,96,10,-105,63,41,-29,-127,-133,-130
-58,-135,-76,96,10,-105,69,47,-23,-115,-127,-124
-58,-135,-76,96,10,-105,69,53,-17,-109,-121,-124
-64,-135,-70,96,4,-105,69,53,-11,-103,-115,-118
-70,-135,-64,102,-2,-99,69,53,-5,-91,-109,-112
-76,-135,-58,102,-8,-99,69,59,7,-85,-103,-112
-76,-135,-58,102,-8,-99,63,65,13,-79,-103,-106
-70,-135,-64,102,-2,-99,63,71,19,-73,-97,-106
-64,-135,-70,96,4,-105,69,77,25,-61,-91,-100
-58,-129,-70,90,4,-99,69,83,37,-49,-85,-94
-52,-129,-76,84,10,-105,69,89,42,-43,-85,-88
-58,-129,-70,90,4,-99,75,95,47,-43,-79,-88
-58,-129,-70,90,4,-99,75,101,53,-31,-73,-76
-58,-117,-58,84,-2,-87,81,113,65,-25,-67,-76
-52,-105,-52,72,-2,-81,81,119,77,-19,-61,-70
-40,-93,-52,60,4,-75,87,131,89,-7,-55,-58
-34,-93,-58,60,10,-75,93,143,101,-1,-43,-52
-40,-87,-46,60,4,-69,93,149,107,11,-37,-46
-40,-87,-46,60,4,-69,93,161,119,23,-37,-40
-34,-93,-58,60,10,-75,93,173,125,29,-31,-40
-34,-81,-46,54,4,-63,87,185,137,35,-25,-34
-22,-75,-52,48,15,-63,87,197,149,47,-13,-22
-11,-69,-58,36,20,-63,93,209,167,57,-1,-10
-6,-63,-58,36,26,-57,93,233,185,75,11,-4
0,-57,-58,26,26,-57,99,245,203,87,23,8
-6,-63,-58,36,26,-57,105,263,221,105,34,14
0,-57,-58,26,26,-57,111,281,239,123,45,20
0,-52,-52,26,26,-51,117,299,257,141,57,32
12,-47,-58,20,38,-51,129,311,275,159,75,44
12,-41,-52,14,32,-46,135,329,293,177,87,62
18,-41,-58,14,38,-46,141,347,311,189,99,68
18,-41,-58,14,38,-46,141,365,329,207,117,73
24,-41,-64,8,44,-51,147,389,353,225,129,78
24,-35,-58,8,44,-46,147,413,377,249,141,96
30,-29,-58,2,44,-41,153,443,407,273,159,108
30,-23,-52,2,44,-35,153,467,431,303,177,120
42,-17,-58,-10,50,-35,159,497,455,327,195,138
48,-11,-58,-16,56,-35,165,521,485,351,213,156
60,1,-58,-28,62,-29,171,545,509,375,231,174
66,7,-58,-34,62,-23,177,563,539,399,255,192
72,13,-58,-40,68,-23,183,581,563,423,273,210
72,19,-52,-46,62,-17,183,605,587,447,297,234
78,25,-52,-46,68,-11,195,635,611,471,321,252
90,37,-52,-58,74,-5,195,659,635,501,345,270
102,49,-52,-70,80,1,195,689,659,531,363,288
114,61,-52,-82,86,7,201,713,683,555,387,306
126,67,-58,-94,92,7,201,731,701,579,405,324
132,79,-52,-106,92,13,201,749,719,603,423,336
138,85,-52,-106,98,19,201,767,737,621,441,354
144,97,-46,-118,98,25,201,779,755,645,459,372
156,109,-46,-130,104,31,201,791,767,657,477,384
156,121,-36,-136,98,43,207,809,785,681,501,408
162,133,-30,-142,98,55,207,821,797,693,519,420
168,139,-30,-154,98,55,213,833,803,717,537,438
180,145,-36,-160,110,55,213,845,815,729,549,450
186,145,-41,-160,116,55,213,851,821,741,561,462
192,145,-46,-166,122,49,213,851,827,753,573,474
192,151,-41,-172,116,55,207,857,827,759,579,486
198,157,-41,-172,122,61,201,857,827,765,591,492
198,163,-36,-178,116,67,201,857,833,777,597,498
198,163,-36,-178,116,67,195,851,833,777,597,504
198,163,-36,-178,116,67,195,845,827,777,603,504
198,157,-41,-172,122,61,189,839,827,777,603,504
192,157,-36,-172,116,61,183,839,821,777,603,504
192,157,-36,-172,116,61,177,833,809,771,603,504
186,157,-30,-166,110,67,177,821,803,753,603,498
186,151,-36,-166,110,61,171,797,785,741,597,498
186,151,-36,-166,110,61,165,785,767,729,597,498
180,151,-30,-166,104,61,165,767,749,717,591,504
180,139,-41,-160,110,49,153,743,731,699,579,498
180,145,-36,-160,110,55,147,719,707,681,561,486
186,157,-30,-166,110,67,141,689,683,663,549,480
180,151,-30,-166,104,61,135,659,659,639,531,462
174,139,-36,-154,104,55,129,629,635,621,513,444
168,139,-30,-154,98,55,123,599,605,597,495,426
162,133,-30,-142,98,55,117,569,575,567,477,402
150,127,-24,-136,86,55,111,533,539,531,459,378
138,121,-18,-124,80,55,99,497,503,495,441,354
126,115,-12,-118,68,55,87,467,461,459,411,330
108,103,-6,-106,56,49,81,425,425,423,381,306
96,97,0,-94,50,49,81,395,401,393,345,282
90,91,0,-88,44,49,81,365,371,369,321,264
84,85,0,-82,44,43,75,335,353,345,297,240
72,73,0,-70,38,37,75,305,317,315,273,222
60,67,6,-64,26,37,69,275,287,291,249,198
48,55,6,-52,20,31,69,245,251,261,225,174
42,55,12,-46,15,37,57,215,221,231,201,156
30,49,18,-34,10,37,57,191,197,207,183,138
24,43,18,-34,4,31,57,167,179,183,165,120
12,37,24,-22,-2,31,57,143,161,159,141,102
0,31,30,-16,-14,31,51,125,143,129,117,84
-6,19,24,-4,-14,25,39,107,125,105,99,68
-11,13,24,2,-14,19,33,89,113,87,81,56
-11,1,12,8,-8,7,33,71,95,69,69,44
-16,-5,12,8,-14,1,33,59,77,57,57,26
-22,-5,18,14,-20,7,33,47,59,47,39,14
-22,-5,18,14,-20,7,33,35,42,35,34,8
-28,-11,18,20,-20,1,33,17,31,23,23,-4
-28,-17,12,20,-20,-5,33,11,19,11,11,-10
-40,-23,18,31,-26,-5,27,-1,7,-7,-1,-22
-46,-35,12,42,-26,-11,21,-7,-5,-19,-7,-28
-52,-41,12,42,-32,-17,16,-13,-11,-31,-13,-34
-58,-47,12,54,-32,-17,16,-25,-17,-37,-19,-40
-64,-47,18,54,-38,-17,16,-31,-29,-49,-31,-52
-64,-47,18,54,-38,-17,11,-31,-35,-55,-25,-58
-58,-47,12,54,-32,-17,11,-31,-41,-55,-25,-58
-58,-52,6,54,-32,-23,11,-37,-47,-55,-31,-58
-70,-57,12,60,-44,-23,5,-42,-53,-67,-37,-70
-76,-63,12,66,-44,-29,5,-42,-59,-73,-43,-70
-70,-57,12,60,-44,-23,5,-47,-53,-79,-43,-70
-52,-47,6,48,-26,-23,5,-47,-59,-67,-49,-64
-34,-35,0,36,-14,-17,5,-47,-59,-67,-49,-58
-28,-29,0,26,-14,-17,5,-47,-65,-67,-49,-58
-28,-29,0,26,-14,-17,11,-53,-71,-67,-49,-58
-28,-29,0,26,-14,-17,11,-59,-71,-73,-49,-58
-34,-29,6,31,-20,-11,11,-59,-71,-73,-49,-58
-34,-23,12,31,-20,-5,11,-59,-71,-73,-49,-58
-34,-23,12,31,-20,-5,11,-59,-77,-79,-49,-64
-40,-29,12,31,-26,-11,11,-53,-71,-85,-49,-64
-40,-29,12,31,-26,-11,11,-53,-71,-85,-49,-64
-40,-29,12,31,-26,-11,11,-53,-71,-85,-49,-64
-40,-35,6,36,-20,-17,5,-47,-77,-85,-49,-58
-40,-35,6,36,-20,-17,5,-47,-77,-91,-55,-58
-40,-35,6,36,-20,-17,11,-42,-71,-85,-55,-58
-34,-29,6,31,-20,-11,11,-42,-71,-91,-55,-58
-34,-23,12,31,-20,-5,11,-42,-71,-91,-61,-58
-34,-29,6,31,-20,-11,5,-47,-71,-91,-61,-58
-40,-35,6,36,-20,-17,5,-47,-71,-85,-55,-58
-34,-29,6,31,-20,-11,5,-47,-65,-79,-49,-58
-28,-29,0,26,-14,-17,5,-42,-59,-79,-49,-64
-28,-29,0,26,-14,-17,5,-42,-53,-79,-43,-58
-28,-29,0,26,-14,-17,11,-37,-53,-73,-43,-58
-28,-29,0,26,-14,-17,11,-31,-47,-73,-37,-52
-34,-29,6,31,-20,-11,11,-31,-41,-67,-31,-52
-34,-29,6,31,-20,-11,11,-25,-41,-67,-31,-52
-40,-29,12,31,-26,-11,11,-25,-47,-67,-31,-46
-40,-29,12,31,-26,-11,11,-25,-47,-67,-31,-46
-52,-35,18,42,-32,-11,5,-25,-47,-73,-31,-52
-58,-29,30,42,-44,1,5,-25,-47,-73,-37,-52
-52,-29,24,36,-38,-5,5,-25,-41,-67,-37,-58
-52,-29,24,36,-38,-5,5,-19,-35,-67,-37,-58
-46,-23,24,36,-32,1,5,-19,-35,-61,-31,-52
-46,-23,24,36,-32,1,5,-19,-35,-61,-31,-58
-46,-23,24,36,-32,1,11,-19,-35,-61,-25,-58
-46,-23,24,36,-32,1,11,-19,-29,-61,-25,-58
-46,-23,24,36,-32,1,11,-19,-29,-61,-25,-52
-46,-29,18,36,-32,-5,16,-19,-29,-55,-25,-52
-46,-29,18,36,-32,-5,16,-19,-35,-55,-25,-58
-58,-35,24,48,-38,-5,16,-25,-41,-55,-31,-58
-58,-35,24,48,-38,-5,16,-31,-41,-55,-31,-52
-58,-35,24,48,-38,-5,21,-31,-41,-55,-37,-52
-58,-35,24,48,-38,-5,21,-31,-41,-55,-37,-52
-58,-41,18,48,-38,-11,21,-25,-41,-49,-37,-52
-52,-41,12,42,-32,-17,27,-25,-41,-49,-37,-40
-52,-41,12,42,-32,-17,21,-25,-41,-49,-37,-46
-52,-41,12,42,-32,-17,21,-31,-41,-55,-37,-46
-52,-41,12,42,-32,-17,27,-31,-41,-55,-37,-52
-58,-41,18,48,-38,-11,21,-31,-41,-61,-43,-52
-64,-41,24,48,-44,-11,21,-31,-41,-61,-43,-58
-70,-47,24,60,-44,-11,21,-37,-41,-67,-37,-58
-70,-47,24,60,-44,-11,21,-37,-47,-67,-37,-58
-70,-41,30,54,-50,-5,21,-37,-47,-73,-37,-58
-64,-41,24,48,-44,-11,21,-42,-47,-73,-37,-58
-64,-41,24,48,-44,-11,16,-42,-53,-67,-37,-58
-70,-41,30,54,-50,-5,16,-42,-53,-67,-37,-58
-64,-35,30,48,-44,-5,16,-37,-53,-67,-37,-58
-64,-41,24,48,-44,-11,16,-42,-59,-67,-37,-58
-70,-47,24,60,-44,-11,11,-42,-65,-79,-49,-64
-76,-47,30,60,-50,-11,11,-47,-65,-91,-55,-64
-64,-41,24,48,-44,-11,16,-42,-59,-85,-55,-64
-64,-35,30,48,-44,-5,16,-42,-65,-85,-55,-64
-64,-35,30,48,-44,-5,16,-47,-65,-91,-55,-64
-64,-35,30,48,-44,-5,16,-47,-65,-91,-55,-64
-58,-35,24,48,-38,-5,16,-47,-65,-97,-55,-70
-58,-35,24,48,-38,-5,16,-47,-65,-97,-55,-70
-46,-35,12,42,-26,-11,16,-47,-77,-97,-55,-76
-46,-35,12,42,-26,-11,16,-47,-77,-103,-55,-76
-34,-29,6,31,-20,-11,16,-53,-77,-109,-55,-70
-28,-23,6,26,-14,-11,16,-53,-77,-109,-55,-70
-28,-23,6,26,-14,-11,11,-59,-83,-115,-55,-70
-28,-29,0,26,-14,-17,21,-59,-83,-115,-61,-70
-34,-29,6,31,-20,-11,21,-65,-89,-121,-61,-70
-34,-29,6,31,-20,-11,21,-71,-89,-121,-67,-76
-34,-35,0,36,-14,-17,21,-71,-89,-121,-67,-76
-40,-41,0,36,-20,-23,16,-71,-95,-127,-73,-76
-40,-47,-6,42,-14,-29,21,-77,-95,-127,-73,-76
-46,-47,0,48,-20,-23,16,-83,-101,-127,-79,-82
-40,-47,-6,42,-14,-29,16,-83,-107,-133,-79,-88
-40,-47,-6,42,-14,-29,16,-83,-107,-139,-85,-88
-46,-47,0,48,-20,-23,16,-89,-113,-145,-91,-94
-52,-47,6,48,-26,-23,16,-95,-113,-151,-97,-94
-58,-47,12,54,-32,-17,16,-95,-119,-151,-97,-94
-58,-41,18,48,-38,-11,11,-101,-119,-157,-103,-88
-58,-47,12,54,-32,-17,5,-101,-125,-157,-109,-88
-58,-47,12,54,-32,-17,-1,-107,-131,-157,-109,-94
-58,-52,6,54,-32,-23,-1,-107,-131,-157,-109,-94
-58,-57,0,54,-32,-29,-1,-107,-137,-157,-109,-94
-58,-57,0,54,-32,-29,5,-107,-143,-163,-115,-94
-58,-57,0,54,-32,-29,-1,-113,-149,-163,-115,-100
-58,-69,-12,60,-26,-41,-1,-119,-149,-169,-115,-106
-64,-69,-6,60,-32,-41,-1,-119,-149,-169,-115,-106
-64,-63,0,60,-32,-35,-1,-113,-155,-169,-115,-106
-64,-69,-6,60,-32,-41,5,-113,-149,-175,-115,-100
-70,-63,6,66,-38,-29,5,-113,-155,-175,-115,-106
-70,-63,6,66,-38,-29,5,-113,-149,-175,-109,-100
-70,-63,6,66,-38,-29,5,-113,-149,-175,-109,-100
-70,-63,6,66,-38,-29,5,-113,-149,-175,-109,-100
-70,-69,0,66,-38,-35,5,-113,-155,-181,-109,-106
-70,-69,0,66,-38,-35,5,-119,-155,-181,-109,-100
-64,-69,-6,60,-32,-41,5,-113,-155,-175,-109,-100
-64,-75,-12,66,-26,-46,5,-113,-161,-175,-109,-100
-64,-75,-12,66,-26,-46,-1,-113,-161,-175,-115,-100
-64,-75,-12,66,-26,-46,-1,-113,-161,-175,-115,-100
-64,-75,-12,66,-26,-46,5,-113,-161,-175,-121,-100
-76,-75,0,72,-38,-41,5,-119,-167,-181,-121,-106
-82,-87,-6,84,-38,-46,5,-125,-167,-187,-127,-112
-82,-93,-12,84,-38,-51,-1,-125,-161,-181,-121,-112
-82,-93,-12,84,-38,-51,-7,-125,-161,-187,-121,-112
-70,-87,-18,78,-26,-51,-1,-125,-161,-181,-121,-112
-58,-75,-18,66,-20,-46,-1,-119,-155,-181,-115,-106
-52,-63,-12,54,-20,-41,5,-113,-155,-169,-115,-106
-46,-57,-12,48,-20,-35,5,-113,-161,-169,-115,-106
-46,-57,-12,48,-20,-35,5,-113,-155,-169,-115,-112
-52,-57,-6,48,-26,-35,5,-113,-155,-169,-121,-112
-52,-57,-6,48,-26,-35,5,-119,-155,-169,-121,-112
-52,-52,0,48,-26,-29,5,-119,-155,-169,-127,-106
-52,-63,-12,54,-20,-41,5,-119,-155,-169,-127,-112
-52,-63,-12,54,-20,-41,5,-125,-155,-175,-127,-112
-52,-63,-12,54,-20,-41,11,-125,-155,-181,-133,-112
-52,-69,-18,54,-20,-46,11,-125,-161,-181,-133,-118
-58,-69,-12,60,-26,-41,5,-125,-161,-181,-133,-118
-64,-81,-18,66,-26,-51,-1,-131,-161,-187,-127,-118
-64,-81,-18,66,-26,-51,-1,-131,-161,-187,-127,-112
-70,-81,-12,72,-32,-46,-1,-131,-161,-193,-127,-112
-70,-81,-12,72,-32,-46,-1,-131,-161,-193,-127,-112
-64,-75,-12,66,-26,-46,-1,-131,-167,-199,-127,-112
-58,-75,-18,66,-20,-46,-1,-131,-167,-199,-127,-112
-58,-69,-12,60,-26,-41,-7,-131,-167,-199,-133,-118
-64,-75,-12,66,-26,-46,-7,-131,-167,-199,-133,-118
-64,-81,-18,66,-26,-51,-1,-131,-167,-199,-133,-118
-70,-75,-6,72,-32,-41,-1,-131,-167,-199,-133,-124
-70,-69,0,66,-38,-35,-1,-125,-167,-199,-133,-124
-76,-69,6,66,-44,-35,-1,-125,-167,-193,-133,-124
-76,-69,6,66,-44,-35,-1,-125,-173,-193,-133,-118
-70,-63,6,66,-38,-29,-7,-119,-173,-193,-133,-118
-64,-63,0,60,-32,-35,-7,-119,-179,-199,-139,-118
-64,-63,0,60,-32,-35,-7,-119,-173,-199,-133,-118
-70,-63,6,66,-38,-29,-13,-125,-173,-205,-139,-124
-64,-69,-6,60,-32,-41,-7,-125,-173,-199,-139,-124
-58,-63,-6,60,-26,-35,-1,-125,-173,-199,-139,-124
-52,-57,-6,48,-26,-35,-1,-125,-173,-199,-139,-124
-52,-57,-6,48,-26,-35,-1,-131,-173,-199,-139,-124
-58,-57,0,54,-32,-29,-7,-131,-173,-199,-133,-124
-58,-63,-6,60,-26,-35,-1,-137,-173,-199,-133,-124
-64,-63,0,60,-32,-35,-1,-143,-173,-205,-133,-124
-64,-69,-6,60,-32,-41,-1,-143,-173,-205,-133,-124
-70,-75,-6,72,-32,-41,-1,-143,-173,-205,-133,-124
-70,-75,-6,72,-32,-41,-1,-143,-173,-205,-133,-124
-70,-75,-6,72,-32,-41,-7,-137,-173,-205,-133,-124
-64,-75,-12,66,-26,-46,-7,-131,-173,-205,-133,-130
-64,-69,-6,60,-32,-41,-7,-131,-179,-199,-133,-130
-64,-69,-6,60,-32,-41,-13,-131,-179,-199,-133,-130
-70,-75,-6,72,-32,-41,-19,-131,-179,-199,-133,-136
-64,-75,-12,66,-26,-46,-19,-131,-179,-193,-133,-136
-64,-69,-6,60,-32,-41,-19,-125,-179,-193,-133,-136
-70,-63,6,66,-38,-29,-13,-125,-167,-199,-133,-136
-70,-63,6,66,-38,-29,-19,-131,-173,-199,-133,-136
-76,-69,6,66,-44,-35,-13,-131,-173,-205,-139,-136
-76,-69,6,66,-44,-35,-13,-137,-173,-205,-139,-136
-76,-69,6,66,-44,-35,-13,-137,-173,-205,-139,-136
-70,-69,0,66,-38,-35,-13,-137,-173,-199,-139,-130
-70,-75,-6,72,-32,-41,-13,-137,-173,-199,-139,-130
-70,-81,-12,72,-32,-46,-13,-137,-173,-199,-133,-130
-70,-81,-12,72,-32,-46,-13,-143,-173,-199,-133,-130
-70,-81,-12,72,-32,-46,-13,-143,-173,-199,-133,-130
-76,-81,-6,72,-38,-46,-13,-143,-179,-205,-133,-130
-76,-81,-6,72,-38,-46,-13,-143,-179,-205,-139,-136
-76,-81,-6,72,-38,-46,-13,-143,-173,-205,-139,-136
-76,-81,-6,72,-38,-46,-19,-149,-173,-199,-139,-136
-76,-81,-6,72,-38,-46,-19,-149,-173,-199,-139,-142
-70,-75,-6,72,-32,-41,-19,-143,-173,-199,-139,-136
-64,-69,-6,60,-32,-41,-19,-143,-173,-199,-145,-136
-58,-63,-6,60,-26,-35,-19,-143,-173,-199,-145,-136
-58,-63,-6,60,-26,-35,-19,-137,-173,-193,-145,-136
-58,-75,-18,66,-20,-46,-13,-143,-179,-193,-145,-130
-64,-81,-18,66,-26,-51,-13,-143,-179,-193,-145,-136
-70,-81,-12,72,-32,-46,-19,-143,-185,-193,-145,-136
-70,-81,-12,72,-32,-46,-19,-143,-191,-199,-151,-136
-76,-81,-6,72,-38,-46,-19,-143,-191,-199,-151,-136
-76,-75,0,72,-38,-41,-19,-143,-197,-199,-151,-136
-76,-69,6,66,-44,-35,-19,-149,-191,-205,-145,-136
-70,-69,0,66,-38,-35,-19,-149,-191,-199,-145,-136
-70,-69,0,66,-38,-35,-19,-149,-191,-199,-145,-136
-76,-75,0,72,-38,-41,-19,-155,-191,-199,-145,-136
-76,-75,0,72,-38,-41,-13,-149,-191,-199,-145,-136
-64,-75,-12,66,-26,-46,-13,-149,-185,-193,-145,-136
-64,-69,-6,60,-32,-41,-13,-143,-185,-193,-145,-136
-64,-69,-6,60,-32,-41,-13,-143,-185,-199,-145,-136
-58,-63,-6,60,-26,-35,-13,-143,-185,-199,-145,-142
-58,-63,-6,60,-26,-35,-13,-143,-185,-199,-145,-136
-58,-63,-6,60,-26,-35,-13,-143,-179,-199,-139,-136
-64,-69,-6,60,-32,-41,-13,-137,-185,-199,-139,-136
-70,-69,0,66,-38,-35,-13,-137,-185,-199,-145,-136
-70,-69,0,66,-38,-35,-13,-137,-191,-205,-145,-136
-76,-69,6,66,-44,-35,-19,-137,-191,-205,-145,-136
-76,-69,6,66,-44,-35,-19,-137,-185,-205,-151,-130
-76,-75,0,72,-38,-41,-19,-143,-185,-205,-151,-130
-76,-75,0,72,-38,-41,-19,-143,-191,-205,-157,-136
-76,-81,-6,72,-38,-46,-25,-143,-191,-211,-157,-136
-76,-81,-6,72,-38,-46,-19,-143,-191,-205,-157,-136
-76,-75,0,72,-38,-41,-19,-143,-191,-205,-157,-136
-76,-75,0,72,-38,-41,-25,-143,-197,-193,-151,-136
-76,-81,-6,72,-38,-46,-25,-137,-197,-193,-151,-136
-82,-87,-6,84,-38,-46,-25,-143,-197,-199,-151,-136
-82,-93,-12,84,-38,-51,-25,-143,-197,-205,-151,-136
-88,-93,-6,84,-44,-51,-25,-143,-197,-205,-151,-136
-76,-81,-6,72,-38,-46,-25,-149,-197,-211,-151,-130
-76,-81,-6,72,-38,-46,-31,-155,-191,-205,-151,-124
-76,-81,-6,72,-38,-46,-31,-155,-191,-205,-145,-124
-70,-87,-18,78,-26,-51,-25,-155,-191,-205,-145,-124
-64,-87,-24,72,-20,-57,-25,-155,-191,-205,-145,-124
-70,-93,-24,78,-26,-57,-19,-155,-191,-199,-139,-130
-70,-87,-18,78,-26,-51,-19,-149,-191,-199,-145,-130
-70,-81,-12,72,-32,-46,-19,-149,-191,-199,-145,-124
-76,-81,-6,72,-38,-46,-13,-149,-185,-193,-145,-124
-82,-75,6,78,-44,-35,-13,-143,-179,-187,-145,-124
-82,-63,18,72,-50,-23,-7,-137,-173,-181,-139,-118
-82,-63,18,72,-50,-23,-1,-137,-173,-175,-133,-118
-82,-63,18,72,-50,-23,-1,-131,-167,-175,-133,-124
-82,-57,24,66,-56,-17,5,-131,-161,-175,-127,-124
-76,-52,24,60,-50,-17,5,-125,-161,-169,-121,-118
-76,-47,30,60,-50,-11,11,-125,-149,-163,-115,-118
-70,-41,30,54,-50,-5,11,-119,-143,-157,-115,-118
-70,-35,36,54,-50,1,11,-119,-143,-157,-109,-118
-70,-29,42,48,-56,7,5,-125,-143,-157,-115,-118
-70,-23,48,48,-56,13,11,-119,-137,-151,-115,-118
-70,-17,54,42,-62,19,11,-113,-131,-151,-115,-112
-64,-11,54,36,-56,19,11,-107,-131,-151,-115,-112
-64,-5,60,31,-62,25,16,-107,-131,-151,-115,-106
-58,1,60,31,-56,31,16,-101,-119,-145,-109,-100
-52,13,66,20,-56,37,16,-101,-119,-139,-103,-94
-52,25,78,14,-62,49,16,-101,-119,-139,-97,-94
-52,31,84,8,-68,55,5,-107,-119,-139,-97,-94
-58,37,96,14,-74,67,-7,-119,-125,-139,-97,-94
-58,37,96,14,-74,67,-13,-131,-131,-145,-103,-100
-58,43,102,8,-80,73,-25,-143,-137,-145,-103,-106
-58,43,102,8,-80,73,-31,-155,-143,-151,-103,-106
-64,43,108,8,-86,73,-43,-155,-149,-151,-109,-106
-64,43,108,8,-86,73,-55,-167,-149,-157,-109,-112
-64,43,108,8,-86,73,-61,-173,-155,-157,-109,-112
-64,43,108,8,-86,73,-73,-179,-161,-163,-109,-112
-64,43,108,8,-86,73,-73,-185,-167,-163,-109,-118
-58,49,108,8,-80,79,-73,-185,-167,-169,-109,-112
-58,49,108,8,-80,79,-73,-185,-173,-169,-109,-112
-58,55,114,2,-86,85,-79,-185,-173,-169,-109,-118
-58,49,108,8,-80,79,-73,-185,-173,-169,-109,-112
-58,43,102,8,-80,73,-73,-185,-167,-163,-109,-112
-58,31,90,14,-74,61,-73,-185,-167,-163,-109,-112
-64,25,90,20,-74,55,-67,-185,-167,-163,-109,-112
-58,19,78,20,-68,49,-61,-179,-167,-157,-109,-112
-64,7,72,26,-68,37,-55,-179,-167,-163,-115,-112
-64,-5,60,31,-62,25,-55,-179,-173,-169,-121,-118
-64,-17,48,36,-56,13,-49,-173,-173,-175,-127,-118
-64,-29,36,42,-50,1,-49,-173,-179,-181,-133,-124
-64,-41,24,48,-44,-11,-49,-179,-185,-187,-139,-130
-76,-52,24,60,-50,-17,-49,-185,-197,-193,-145,-142
-76,-57,18,60,-50,-23,-49,-185,-203,-199,-151,-148
-76,-57,18,60,-50,-23,-49,-191,-203,-199,-157,-154
-76,-63,12,66,-44,-29,-55,-197,-209,-211,-169,-160
-82,-69,12,72,-50,-29,-49,-197,-215,-217,-169,-160
-88,-75,12,78,-50,-35,-49,-191,-221,-223,-175,-166
-88,-81,6,78,-50,-41,-49,-191,-227,-223,-175,-166
-88,-87,0,84,-44,-46,-49,-191,-233,-229,-181,-166
-82,-87,-6,84,-38,-46,-43,-191,-233,-223,-175,-160
-82,-93,-12,84,-38,-51,-43,-191,-233,-223,-181,-160
-82,-99,-18,90,-32,-57,-43,-185,-227,-223,-181,-160
-76,-105,-30,84,-26,-69,-43,-185,-227,-229,-181,-166
-70,-105,-36,84,-20,-69,-43,-185,-227,-235,-181,-166
-70,-105,-36,84,-20,-69,-37,-179,-221,-235,-187,-166
-76,-117,-41,90,-20,-81,-25,-167,-215,-241,-187,-166
-82,-129,-46,102,-20,-87,-1,-155,-203,-247,-193,-172
-94,-141,-46,114,-26,-93,39,-119,-191,-247,-211,-190
-112,-159,-46,132,-32,-105,99,-59,-161,-247,-229,-208
-124,-177,-52,144,-38,-117,177,11,-125,-247,-247,-232
-148,-189,-41,162,-56,-117,261,95,-77,-247,-277,-262
-166,-201,-36,180,-68,-117,345,167,-35,-241,-301,-292
-190,-207,-18,198,-86,-111,405,227,7,-253,-331,-334
-208,-201,6,198,-110,-99,447,269,37,-259,-355,-364
-214,-189,24,198,-122,-81,477,287,53,-259,-367,-376
-208,-171,36,186,-122,-69,489,305,77,-247,-373,-382
-190,-147,42,168,-116,-51,489,323,107,-223,-355,-370
-160,-99,60,126,-110,-23,477,353,161,-157,-301,-322
-106,-35,72,72,-86,19,465,425,269,-31,-193,-226
-28,43,72,-10,-50,55,465,569,443,159,-19,-64
78,139,60,-106,10,103,465,773,689,423,219,150
210,241,30,-220,92,139,447,983,953,735,501,408
336,373,36,-352,152,205,375,1103,1175,1041,801,672
462,523,60,-490,200,295,243,1085,1319,1335,1107,936
576,703,126,-640,224,415,75,959,1415,1617,1413,1200
678,895,216,-784,230,559,-109,755,1463,1881,1707,1452
762,1093,330,-922,218,715,-331,467,1415,2073,1953,1662
828,1267,438,-1048,194,853,-541,167,1349,2241,2169,1842
858,1387,528,-1120,164,961,-685,-95,1301,2397,2343,1980
846,1447,600,-1144,122,1027,-805,-347,1223,2504,2468,2058
810,1447,636,-1126,86,1045,-925,-611,1067,2522,2516,2070
762,1411,648,-1084,56,1033,-1039,-863,833,2427,2468,2016
684,1339,654,-1012,15,997,-1129,-1109,521,2163,2277,1848
594,1207,612,-898,-8,913,-1189,-1325,149,1761,1971,1596
486,1039,552,-760,-32,799,-1201,-1493,-233,1263,1581,1290
378,817,438,-592,-26,631,-1177,-1601,-599,693,1107,924
252,589,336,-418,-38,463,-1117,-1649,-911,153,633,564
156,391,234,-274,-38,313,-1045,-1655,-1109,-247,261,270
78,229,150,-148,-32,193,-961,-1607,-1205,-505,-1,62
24,97,72,-58,-20,85,-871,-1511,-1229,-655,-181,-82
-11,-17,-6,14,-2,-11,-775,-1385,-1193,-733,-295,-178
-28,-87,-58,54,15,-75,-691,-1223,-1109,-727,-343,-220
-34,-117,-82,72,20,-99,-595,-1025,-983,-655,-337,-226
-40,-135,-94,84,26,-117,-499,-827,-839,-565,-313,-220
-52,-141,-88,90,15,-117,-403,-659,-707,-475,-283,-220
-64,-153,-88,102,10,-123,-319,-527,-587,-403,-259,-214
-70,-159,-88,114,10,-123,-247,-419,-479,-349,-247,-214
-76,-165,-88,114,4,-129,-193,-347,-389,-313,-235,-208
-82,-165,-82,120,-2,-123,-151,-311,-323,-283,-223,-202
