,,,,,,,,,,,
2019-09-01 15:35:15,,,,,,,,,,,
,,,,,,,,,,,
I,II,III,aVR,aVL,aVF,V1,V2,V3,V4,V5,V6
303,101,-202,-206,249,-45,96,740,763,491,341,122
303,101,-202,-206,249,-45,96,740,763,491,341,122
303,101,-202,-206,249,-45,96,740,763,491,341,122
303,101,-202,-206,249,-45,96,740,763,491,341,122
291,107,-184,-200,243,-33,96,734,757,479,329,116
285,107,-178,-200,237,-27,96,734,751,473,323,116
273,113,-160,-194,219,-15,96,728,751,461,311,110
267,113,-154,-194,213,-15,96,728,745,455,305,110
261,107,-154,-188,213,-15,96,716,727,443,293,98
261,101,-160,-182,213,-21,96,710,715,431,281,86
255,95,-160,-176,213,-27,96,698,697,419,269,74
255,89,-166,-176,213,-33,96,692,685,407,257,62
255,83,-166,-170,213,-33,96,680,673,389,245,50
249,77,-166,-164,207,-39,96,674,661,377,233,44
243,71,-166,-158,207,-39,96,662,649,359,227,32
237,65,-166,-152,201,-45,96,656,637,347,215,26
225,53,-166,-140,195,-51,102,638,613,323,197,14
213,47,-160,-128,189,-51,102,626,589,305,185,8
201,35,-160,-116,183,-57,108,608,565,281,167,8
189,29,-154,-110,171,-57,108,596,541,263,155,3
183,29,-148,-104,165,-51,114,578,517,251,143,-3
183,29,-148,-104,165,-51,120,560,505,239,131,-9
177,29,-142,-104,159,-51,126,542,481,221,119,-15
177,29,-142,-104,159,-51,132,524,463,209,107,-21
171,29,-136,-98,153,-45,138,506,439,191,101,-27
171,29,-136,-98,153,-45,138,488,415,179,101,-27
165,29,-130,-98,147,-45,144,464,391,161,95,-33
165,29,-130,-98,147,-45,144,446,367,149,95,-33
159,29,-124,-92,141,-39,144,422,337,131,83,-39
159,29,-124,-92,141,-39,144,398,307,113,71,-45
153,29,-118,-92,135,-39,144,374,277,95,59,-51
153,29,-118,-92,135,-39,144,350,253,77,47,-57
147,23,-118,-86,135,-39,144,326,229,53,35,-63
141,23,-112,-80,129,-39,144,302,205,35,29,-63
135,17,-112,-74,123,-39,144,278,181,23,17,-69
129,17,-106,-74,117,-39,144,260,157,6,11,-69
123,17,-100,-68,111,-33,144,230,127,-12,-1,-81
123,17,-100,-68,111,-33,144,206,103,-30,-7,-87
117,17,-94,-68,105,-33,144,176,73,-48,-12,-99
117,17,-94,-68,105,-33,144,152,49,-66,-24,-105
111,11,-94,-62,105,-33,144,134,25,-78,-36,-111
105,11,-88,-56,99,-33,144,122,19,-90,-42,-111
99,11,-88,-50,93,-33,144,104,-4,-102,-54,-117
93,11,-82,-50,87,-33,144,92,-22,-114,-60,-117
87,6,-88,-38,87,-39,144,80,-34,-126,-66,-123
81,0,-88,-32,81,-45,144,68,-46,-132,-66,-123
75,-12,-94,-26,81,-51,144,56,-58,-144,-72,-129
69,-18,-94,-20,81,-57,144,44,-70,-150,-72,-129
63,-18,-88,-15,75,-51,138,32,-82,-162,-84,-141
63,-18,-88,-15,75,-51,138,26,-94,-168,-90,-147
57,-18,-82,-15,69,-51,132,21,-106,-180,-102,-159
57,-18,-82,-15,69,-51,132,9,-118,-186,-108,-165
63,-18,-88,-15,75,-51,126,3,-124,-192,-108,-159
63,-18,-88,-15,75,-51,126,3,-124,-192,-108,-159
69,-18,-94,-20,81,-57,120,-3,-130,-198,-108,-153
69,-18,-94,-20,81,-57,120,-3,-130,-198,-108,-153
75,-12,-94,-26,81,-51,114,-9,-136,-192,-108,-147
81,-6,-94,-32,87,-51,114,-9,-136,-192,-108,-147
87,0,-94,-38,87,-45,108,-15,-142,-186,-108,-141
93,6,-94,-44,93,-45,108,-15,-142,-186,-108,-141
93,6,-94,-44,93,-45,114,-15,-142,-186,-108,-141
93,6,-94,-44,93,-45,114,-15,-142,-186,-108,-141
93,6,-94,-44,93,-45,120,-15,-142,-186,-108,-141
93,6,-94,-44,93,-45,120,-15,-142,-186,-108,-141
81,-6,-94,-32,87,-51,120,-15,-142,-192,-108,-147
75,-12,-94,-26,81,-51,120,-15,-142,-192,-108,-147
63,-24,-94,-15,75,-57,120,-15,-142,-198,-108,-153
57,-30,-94,-15,75,-63,120,-15,-142,-198,-108,-153
51,-36,-94,-15,69,-63,114,-21,-148,-204,-114,-159
51,-36,-94,-15,69,-63,108,-27,-154,-204,-120,-159
45,-42,-94,-9,69,-69,102,-33,-160,-210,-126,-165
45,-42,-94,-9,69,-69,96,-39,-166,-210,-132,-165
45,-36,-88,-15,63,-63,96,-33,-160,-204,-126,-165
45,-36,-88,-15,63,-63,96,-27,-160,-204,-120,-165
45,-30,-82,-15,63,-57,96,-21,-154,-198,-114,-165
45,-30,-82,-15,63,-57,96,-15,-154,-198,-108,-165
57,-18,-82,-15,69,-51,108,-9,-142,-192,-102,-153
63,-12,-82,-20,69,-45,114,-3,-136,-186,-96,-147
75,0,-82,-32,75,-39,126,3,-124,-180,-90,-135
81,6,-82,-38,81,-39,132,9,-118,-174,-84,-129
81,6,-82,-38,81,-39,126,3,-118,-174,-90,-135
81,6,-82,-38,81,-39,126,3,-118,-174,-90,-135
81,6,-82,-38,81,-39,120,-3,-118,-174,-96,-141
81,6,-82,-38,81,-39,120,-3,-118,-174,-96,-141
75,0,-82,-32,75,-39,126,9,-112,-168,-90,-135
69,-6,-82,-26,75,-45,126,15,-112,-168,-90,-135
63,-12,-82,-20,69,-45,132,26,-106,-162,-84,-129
57,-18,-82,-15,69,-51,132,26,-106,-162,-84,-129
63,-12,-82,-20,69,-45,126,26,-106,-156,-84,-129
69,-6,-82,-26,75,-45,126,26,-106,-156,-84,-129
75,0,-82,-32,75,-39,120,21,-106,-150,-84,-129
81,6,-82,-38,81,-39,120,21,-106,-150,-84,-129
87,6,-88,-38,87,-39,120,21,-106,-156,-84,-135
87,6,-88,-38,87,-39,120,21,-106,-156,-84,-135
93,6,-94,-44,93,-45,120,21,-106,-162,-84,-141
93,6,-94,-44,93,-45,120,21,-106,-162,-84,-141
93,11,-88,-44,87,-39,120,21,-106,-156,-84,-135
93,11,-88,-44,87,-39,120,21,-106,-156,-84,-129
93,11,-82,-50,87,-33,120,21,-106,-150,-84,-123
93,11,-82,-50,87,-33,120,21,-106,-150,-84,-117
87,11,-82,-44,81,-33,120,21,-106,-150,-84,-123
87,6,-88,-38,87,-39,120,21,-106,-150,-84,-123
81,0,-88,-32,81,-45,120,21,-106,-150,-84,-129
81,-6,-94,-32,87,-51,120,21,-106,-150,-84,-129
69,-18,-94,-20,81,-57,114,15,-112,-156,-90,-135
57,-24,-88,-15,69,-57,114,9,-112,-156,-90,-141
45,-36,-88,-15,63,-63,108,3,-118,-162,-96,-147
33,-42,-82,-3,57,-63,108,-3,-118,-162,-96,-153
51,-24,-82,-15,63,-51,114,-3,-118,-162,-90,-141
63,-12,-82,-20,69,-45,114,-3,-118,-162,-90,-135
81,6,-82,-38,81,-39,120,-3,-118,-162,-84,-123
93,11,-82,-50,87,-33,120,-3,-118,-162,-84,-117
105,11,-88,-56,99,-33,120,-3,-118,-162,-84,-117
111,17,-88,-62,99,-27,120,-3,-118,-162,-84,-117
123,23,-94,-74,111,-27,120,-3,-118,-162,-84,-117
129,29,-94,-80,111,-27,120,-3,-118,-162,-84,-117
117,23,-88,-68,105,-27,114,-9,-124,-168,-90,-123
111,17,-88,-62,99,-27,114,-9,-130,-168,-90,-123
99,11,-82,-56,93,-27,108,-15,-136,-174,-96,-129
93,11,-82,-50,87,-33,108,-15,-142,-174,-96,-129
87,11,-82,-44,81,-33,102,-21,-148,-180,-102,-135
81,11,-76,-38,75,-33,102,-27,-148,-180,-108,-135
75,6,-76,-32,75,-33,96,-33,-154,-186,-114,-141
69,6,-70,-32,69,-33,96,-39,-154,-186,-120,-141
87,11,-76,-44,81,-27,96,-39,-154,-186,-120,-141
99,17,-76,-56,87,-21,96,-39,-154,-186,-120,-141
117,29,-82,-74,99,-21,96,-39,-154,-186,-120,-141
129,41,-82,-86,105,-15,96,-39,-154,-186,-120,-141
111,29,-76,-68,93,-15,96,-45,-160,-192,-120,-141
99,17,-76,-56,87,-21,96,-45,-160,-192,-120,-141
81,11,-70,-44,75,-27,96,-51,-166,-198,-120,-141
69,6,-70,-32,69,-33,96,-51,-166,-198,-120,-141
69,6,-70,-32,69,-33,90,-57,-172,-204,-126,-147
69,6,-70,-32,69,-33,84,-63,-178,-204,-126,-153
69,6,-70,-32,69,-33,78,-69,-184,-210,-132,-159
69,6,-70,-32,69,-33,72,-75,-190,-210,-132,-165
81,11,-76,-38,75,-33,78,-69,-190,-210,-132,-159
87,11,-76,-44,81,-27,78,-69,-190,-210,-132,-159
99,11,-82,-56,93,-27,84,-63,-190,-210,-132,-153
105,17,-82,-62,93,-27,84,-63,-190,-210,-132,-153
99,11,-82,-56,93,-27,84,-69,-196,-216,-138,-153
93,11,-82,-50,87,-33,84,-69,-196,-216,-138,-153
87,11,-82,-44,81,-33,84,-75,-202,-222,-144,-153
81,6,-82,-38,81,-39,84,-75,-202,-228,-144,-153
87,11,-82,-44,81,-33,78,-81,-208,-228,-150,-159
87,11,-82,-44,81,-33,78,-81,-214,-228,-150,-165
93,11,-82,-50,87,-33,72,-87,-220,-228,-156,-171
93,11,-82,-50,87,-33,72,-87,-220,-228,-156,-177
81,6,-82,-38,81,-39,72,-93,-220,-234,-162,-177
75,0,-82,-32,75,-39,72,-93,-220,-234,-162,-177
63,-12,-82,-20,69,-45,72,-99,-220,-240,-168,-177
57,-18,-82,-15,69,-51,72,-99,-220,-240,-168,-177
63,-12,-82,-20,69,-45,72,-99,-220,-240,-162,-171
63,-12,-82,-20,69,-45,72,-99,-220,-240,-162,-171
69,-6,-82,-26,75,-45,72,-99,-220,-240,-156,-165
69,-6,-82,-26,75,-45,72,-99,-220,-240,-156,-165
87,6,-88,-38,87,-39,78,-93,-220,-234,-156,-159
99,11,-88,-50,93,-33,78,-87,-220,-234,-156,-159
117,17,-94,-68,105,-33,84,-81,-214,-228,-156,-153
129,47,-76,-86,105,-9,96,-63,-208,-216,-156,-153
117,65,-46,-92,81,2,102,-63,-196,-210,-138,-141
105,65,-34,-86,69,8,108,-57,-196,-210,-132,-135
93,83,-5,-86,51,32,120,-51,-196,-210,-132,-129
87,83,-5,-86,45,38,126,-51,-196,-210,-126,-129
75,71,-5,-74,39,32,120,-63,-202,-216,-132,-141
75,65,-5,-68,39,26,120,-63,-202,-216,-138,-147
75,59,-10,-68,45,20,114,-69,-202,-222,-144,-153
81,71,-5,-74,45,26,108,-63,-202,-222,-150,-159
81,65,-10,-74,45,20,120,-63,-196,-216,-150,-147
81,71,-5,-74,45,26,120,-63,-196,-216,-150,-147
81,65,-10,-74,45,20,138,-51,-184,-204,-144,-135
87,83,-5,-86,45,38,144,-39,-178,-198,-132,-129
93,101,1,-98,39,50,138,-27,-166,-192,-132,-129
99,113,7,-104,39,62,132,-21,-166,-186,-126,-117
99,125,19,-110,33,74,126,-15,-160,-174,-114,-111
99,143,37,-122,27,92,126,-15,-160,-174,-108,-105
111,149,31,-128,33,92,114,-33,-166,-180,-114,-111
117,149,25,-134,39,86,102,-45,-172,-186,-114,-105
123,149,19,-134,45,86,72,-57,-178,-192,-120,-111
141,149,1,-146,63,74,54,-87,-184,-198,-120,-111
159,167,1,-164,75,86,54,-87,-178,-192,-108,-99
177,185,1,-182,81,92,42,-81,-172,-174,-102,-81
195,191,-5,-194,99,92,42,-81,-166,-168,-78,-69
207,209,-5,-206,99,104,36,-75,-166,-156,-72,-69
207,203,-5,-206,105,98,30,-75,-154,-150,-66,-63
213,203,-5,-206,111,92,30,-63,-148,-138,-66,-57
213,209,-5,-212,105,98,30,-69,-148,-138,-72,-57
207,191,-10,-200,111,86,30,-69,-148,-138,-66,-57
195,167,-22,-182,111,68,30,-69,-154,-138,-66,-63
189,161,-22,-176,105,62,30,-63,-154,-138,-66,-63
201,155,-40,-176,123,50,30,-63,-160,-150,-78,-75
195,125,-64,-158,129,26,30,-75,-172,-156,-78,-87
189,113,-70,-152,129,14,19,-93,-178,-168,-90,-93
189,101,-82,-146,135,2,13,-93,-184,-168,-90,-93
189,101,-82,-146,135,2,7,-105,-190,-174,-90,-93
189,95,-88,-140,141,2,1,-117,-208,-186,-96,-93
189,101,-82,-146,135,2,1,-123,-208,-192,-102,-105
201,107,-88,-152,147,2,1,-123,-214,-186,-108,-105
207,89,-112,-146,159,-3,1,-117,-208,-204,-120,-105
195,83,-106,-140,153,-3,1,-117,-220,-204,-132,-117
165,83,-76,-122,123,2,13,-123,-226,-216,-144,-129
129,53,-70,-92,99,-3,19,-129,-232,-222,-156,-141
117,41,-70,-80,93,-9,19,-135,-256,-240,-174,-153
117,41,-70,-80,93,-9,19,-141,-262,-252,-186,-171
105,17,-82,-62,93,-27,19,-147,-274,-264,-198,-177
93,11,-88,-44,87,-39,19,-153,-280,-276,-204,-183
75,-18,-100,-20,87,-57,19,-153,-274,-276,-216,-189
69,-30,-106,-15,87,-69,19,-153,-268,-276,-222,-195
63,-36,-106,-15,81,-69,19,-159,-274,-282,-228,-201
63,-36,-106,-15,81,-69,19,-159,-286,-288,-228,-207
69,-30,-106,-15,87,-69,19,-165,-292,-294,-234,-213
69,-30,-106,-15,87,-69,19,-165,-298,-294,-234,-219
69,-30,-106,-15,87,-69,7,-171,-298,-294,-234,-213
69,-30,-106,-15,87,-69,7,-171,-304,-294,-234,-213
63,-24,-94,-15,75,-57,1,-171,-304,-294,-234,-207
51,-42,-100,-15,75,-69,1,-171,-304,-300,-234,-213
75,-24,-106,-20,87,-63,7,-171,-298,-294,-234,-207
81,-24,-112,-20,93,-69,13,-165,-298,-294,-234,-207
81,-30,-118,-20,99,-75,19,-165,-286,-288,-228,-201
99,-18,-124,-32,111,-69,19,-165,-286,-288,-228,-201
87,-12,-106,-32,93,-57,13,-165,-286,-294,-228,-201
81,-36,-124,-15,99,-81,13,-165,-286,-294,-228,-201
57,-42,-106,-15,81,-75,7,-165,-298,-300,-228,-201
51,-60,-118,-3,81,-87,7,-165,-298,-300,-240,-207
39,-72,-118,9,75,-93,7,-171,-298,-306,-240,-213
33,-72,-112,9,69,-93,7,-171,-298,-306,-240,-213
27,-78,-112,15,69,-93,13,-171,-298,-306,-240,-225
15,-78,-100,21,57,-87,13,-171,-298,-306,-240,-225
27,-72,-106,15,63,-87,13,-165,-292,-300,-246,-225
39,-48,-94,-3,63,-69,13,-165,-292,-300,-246,-225
51,-42,-100,-15,75,-69,13,-159,-286,-294,-246,-225
63,-42,-112,-15,87,-75,13,-159,-286,-294,-246,-225
57,-48,-112,-15,81,-81,19,-153,-286,-300,-246,-225
63,-48,-118,-15,87,-81,19,-153,-286,-294,-246,-225
45,-60,-112,-3,75,-87,30,-153,-280,-300,-246,-225
33,-66,-106,9,69,-87,30,-153,-280,-300,-246,-225
57,-54,-118,-9,87,-87,30,-153,-292,-300,-246,-213
21,-72,-100,15,57,-87,36,-147,-280,-288,-240,-225
39,-36,-82,-9,57,-57,36,-123,-274,-288,-246,-231
57,-12,-76,-15,63,-45,54,-93,-256,-300,-264,-243
21,-36,-64,-3,39,-51,96,-15,-220,-300,-270,-249
33,-18,-58,-15,45,-39,144,80,-172,-300,-282,-273
69,-18,-94,-20,81,-57,186,212,-112,-288,-294,-279
51,-54,-112,-9,81,-81,258,374,-4,-240,-270,-279
33,-90,-130,21,81,-111,354,566,133,-192,-246,-279
75,-90,-172,-3,123,-129,462,800,289,-132,-240,-285
93,-126,-226,9,159,-177,558,1058,475,-42,-204,-273
105,-174,-280,27,195,-231,618,1256,649,77,-108,-231
177,-132,-310,-15,243,-225,594,1256,727,221,-1,-129
255,-6,-268,-122,261,-141,552,1136,763,383,191,8
297,149,-148,-224,225,2,522,920,805,617,431,230
381,383,-5,-380,189,194,414,482,733,851,725,494
513,677,157,-596,177,416,234,-141,529,1079,1043,806
651,893,235,-770,207,566,30,-735,349,1337,1391,1124
753,1055,295,-908,231,680,-215,-1275,205,1601,1727,1436
867,1247,379,-1058,243,812,-509,-1869,-40,1781,1985,1700
891,1367,475,-1130,207,920,-809,-2486,-400,1835,2164,1886
891,1409,511,-1148,189,962,-1097,-3068,-706,1955,2374,2083
921,1439,511,-1178,201,974,-1295,-3362,-718,2218,2661,2305
909,1391,481,-1148,213,938,-1307,-3242,-508,2511,2889,2442
843,1229,379,-1034,231,800,-1319,-3032,-370,2559,2889,2419
789,1007,217,-902,285,614,-1367,-2912,-454,2272,2613,2203
747,767,19,-752,357,398,-1325,-2786,-664,1733,2104,1820
573,503,-64,-536,321,218,-1241,-2666,-958,1031,1457,1334
345,287,-52,-314,201,116,-1169,-2576,-1330,227,731,800
165,185,13,-176,69,98,-1085,-2450,-1696,-564,47,320
99,113,7,-104,39,62,-1001,-2235,-1888,-1044,-360,8
75,29,-40,-50,57,2,-917,-1911,-1696,-1026,-438,-99
75,11,-58,-44,69,-15,-773,-1533,-1354,-816,-396,-159
75,6,-76,-32,75,-33,-635,-1173,-1060,-678,-384,-207
57,-48,-112,-15,81,-81,-473,-843,-814,-534,-330,-219
39,-48,-94,-3,63,-69,-347,-597,-592,-396,-270,-195
87,0,-94,-38,87,-45,-245,-441,-454,-306,-222,-177
93,11,-76,-50,87,-27,-185,-339,-358,-264,-186,-153
69,11,-64,-32,63,-27,-125,-267,-268,-222,-162,-135
81,17,-58,-50,69,-15,-59,-207,-202,-216,-156,-141
93,17,-70,-56,81,-21,-17,-141,-142,-192,-156,-141
51,-6,-64,-15,57,-33,13,-93,-118,-192,-168,-159
21,-18,-46,-9,33,-33,19,-57,-112,-192,-180,-171
21,-18,-46,-9,33,-33,25,-27,-112,-186,-180,-171
15,-30,-52,-3,33,-39,25,-9,-118,-180,-180,-177
15,-42,-64,3,39,-51,30,15,-112,-174,-180,-177
33,-24,-64,-15,45,-45,48,32,-100,-168,-174,-171
57,0,-64,-20,57,-33,66,62,-64,-150,-162,-171
75,11,-64,-38,69,-21,96,98,-28,-144,-156,-171
81,11,-70,-44,75,-27,108,122,-4,-144,-156,-177
81,11,-64,-44,75,-21,108,122,14,-144,-162,-177
87,23,-58,-56,75,-9,108,122,14,-150,-174,-183
93,29,-58,-62,75,-9,102,122,19,-144,-174,-183
99,35,-58,-68,81,-3,84,122,8,-144,-168,-177
87,23,-58,-56,75,-9,78,128,-10,-144,-168,-171
75,11,-64,-38,69,-21,78,134,-10,-138,-162,-171
63,6,-64,-26,63,-27,84,146,2,-126,-150,-153
69,0,-76,-26,69,-39,96,164,19,-108,-144,-147
75,11,-70,-38,69,-27,108,182,37,-96,-132,-147
75,11,-64,-38,69,-21,114,194,55,-96,-132,-147
87,23,-58,-56,75,-9,114,206,67,-96,-132,-147
87,29,-52,-56,69,-3,108,212,67,-96,-132,-147
75,23,-46,-50,63,-3,102,212,73,-96,-132,-153
75,35,-34,-56,57,2,102,218,73,-96,-132,-153
75,29,-40,-50,57,2,102,218,67,-84,-120,-141
75,23,-46,-50,63,-3,102,230,79,-72,-114,-135
75,17,-52,-44,63,-9,96,236,85,-54,-108,-129
75,11,-58,-44,69,-15,96,248,103,-48,-96,-129
75,11,-58,-44,69,-15,108,266,127,-30,-102,-117
75,11,-58,-44,69,-15,108,272,145,-24,-96,-117
99,23,-70,-62,87,-15,108,272,151,-18,-90,-123
99,47,-46,-74,75,2,108,284,163,-18,-90,-117
105,41,-58,-74,81,-3,96,284,163,-18,-84,-123
105,47,-52,-74,81,2,90,290,169,-12,-78,-123
129,53,-70,-92,99,-3,96,302,181,0,-66,-99
123,47,-70,-86,99,-3,96,320,187,23,-54,-93
105,35,-64,-68,87,-9,102,326,211,29,-42,-87
117,29,-82,-74,99,-21,108,338,223,47,-36,-75
123,35,-82,-80,105,-15,102,350,247,59,-30,-75
123,35,-82,-80,105,-15,102,362,259,65,-24,-69
129,47,-76,-86,105,-9,96,374,271,71,-24,-75
129,53,-70,-92,99,-3,96,386,289,71,-18,-75
123,53,-64,-86,93,2,96,398,307,89,-7,-69
123,65,-52,-92,87,2,84,398,325,101,-7,-63
135,65,-64,-98,99,2,78,416,337,125,5,-51
135,65,-64,-98,99,2,72,434,349,149,23,-45
153,71,-76,-110,117,2,72,458,373,173,35,-33
177,83,-88,-128,135,2,72,470,391,185,47,-15
171,89,-76,-128,123,2,72,488,421,191,65,-9
171,83,-82,-128,129,2,72,500,445,215,71,3
171,89,-76,-128,123,2,72,512,457,227,77,3
189,101,-82,-146,135,2,72,524,481,239,83,8
165,95,-64,-128,117,8,78,530,487,245,77,8
177,101,-70,-140,123,8,72,542,493,257,83,8
195,113,-76,-152,135,14,60,566,511,275,101,8
201,113,-82,-158,141,8,60,578,541,305,119,26
213,131,-76,-170,147,20,48,608,565,335,137,38
231,131,-94,-182,165,14,48,626,589,359,155,56
249,149,-94,-200,171,20,54,638,613,371,167,68
261,161,-100,-212,183,26,54,656,637,383,185,74
267,179,-88,-224,183,38,60,668,655,395,191,80
267,185,-82,-230,177,44,48,680,661,401,191,80
249,173,-70,-212,159,44,48,674,667,407,197,74
249,167,-76,-206,165,38,30,674,667,419,203,74
255,179,-76,-218,171,44,36,674,679,437,215,80
273,179,-94,-230,189,38,30,680,697,443,221,92
285,185,-100,-236,195,38,30,692,703,461,233,104
285,197,-88,-242,189,50,30,704,703,467,233,104
291,203,-88,-248,195,50,30,710,715,479,251,110
291,209,-82,-254,189,56,25,716,721,479,251,110
291,215,-76,-254,189,62,19,716,715,473,245,104
285,215,-70,-254,183,68,19,716,709,467,233,104
267,209,-58,-242,165,68,13,698,697,455,215,92
261,209,-52,-236,159,74,7,692,691,437,203,86
255,197,-58,-230,159,62,1,686,673,431,203,86
249,179,-64,-212,159,50,1,680,661,419,197,80
231,167,-58,-200,147,50,-11,668,649,419,191,74
219,155,-58,-188,141,44,-11,662,637,407,185,68
225,155,-64,-188,147,38,-11,662,637,395,167,56
213,155,-52,-182,135,44,-11,656,625,383,167,50
219,179,-34,-200,129,68,-11,656,619,371,155,38
213,161,-46,-188,129,50,-5,650,619,365,149,38
213,167,-40,-188,129,56,1,638,607,359,137,26
207,173,-28,-188,117,68,1,632,589,335,125,14
207,161,-40,-182,123,56,7,614,571,317,113,14
189,167,-16,-176,105,68,13,602,553,305,107,8
183,155,-22,-170,105,62,7,596,529,293,89,8
183,155,-22,-170,105,62,7,578,517,281,77,3
171,149,-16,-158,93,62,7,566,505,263,65,-3
165,125,-34,-146,99,38,13,560,487,251,53,-9
159,125,-28,-140,93,44,19,536,469,227,41,-15
147,119,-22,-134,87,44,25,524,451,221,29,-27
123,125,-5,-122,57,62,30,512,427,191,17,-33
123,125,-5,-122,57,62,30,488,403,173,5,-39
129,125,-5,-128,63,56,30,458,373,161,5,-45
123,113,-5,-116,63,50,30,440,349,143,-7,-51
123,113,-5,-116,63,50,30,404,325,125,-12,-63
129,113,-10,-122,69,44,30,386,295,107,-12,-63
123,113,-5,-116,63,50,42,368,271,89,-18,-57
117,113,-5,-116,57,50,48,344,259,77,-24,-57
117,113,-5,-116,57,50,48,314,241,59,-42,-63
105,107,-5,-104,51,50,48,296,217,41,-48,-69
75,95,13,-86,27,56,48,266,181,23,-66,-81
63,89,19,-74,15,56,48,242,151,18,-78,-87
57,77,13,-68,15,44,48,200,115,0,-96,-99
45,59,7,-50,15,32,48,176,79,-18,-102,-105
45,59,7,-50,15,32,42,152,55,-42,-108,-105
39,59,13,-50,9,38,36,122,19,-54,-120,-117
39,41,-5,-38,15,20,36,104,14,-78,-126,-117
27,23,-5,-26,15,8,30,80,-10,-90,-138,-123
33,47,7,-38,9,26,36,62,-16,-96,-138,-123
51,65,7,-56,15,38,42,56,-28,-108,-144,-123
57,77,13,-68,15,44,48,56,-34,-114,-150,-117
57,83,19,-68,15,50,54,32,-58,-120,-156,-117
69,89,13,-80,21,50,54,26,-64,-126,-156,-123
69,83,7,-74,27,44,54,26,-76,-132,-162,-129
81,89,1,-86,33,44,54,21,-82,-132,-168,-123
87,89,-5,-86,39,44,54,15,-100,-126,-168,-123
63,65,-5,-62,27,32,48,3,-106,-138,-174,-129
51,59,1,-56,21,32,42,-9,-118,-144,-174,-135
39,41,-5,-38,15,20,36,-21,-136,-162,-180,-141
27,35,1,-32,9,20,36,-21,-148,-168,-180,-147
21,17,-5,-20,9,2,30,-33,-148,-174,-186,-153
27,17,-5,-20,15,2,30,-39,-154,-186,-186,-153
15,17,1,-15,9,8,30,-51,-160,-186,-192,-159
10,17,13,-15,-2,14,30,-57,-166,-192,-198,-159
15,29,13,-20,4,20,30,-63,-166,-186,-192,-165
33,35,-5,-32,15,14,30,-63,-172,-186,-198,-165
33,41,1,-38,9,20,30,-57,-172,-180,-198,-165
45,41,-5,-44,21,14,30,-63,-172,-180,-198,-165
39,47,1,-44,15,26,30,-75,-172,-186,-198,-153
39,47,1,-44,15,26,30,-63,-172,-180,-198,-153
21,35,7,-26,9,20,30,-63,-172,-186,-198,-147
33,53,13,-44,9,32,30,-57,-172,-192,-198,-147
33,53,13,-44,9,32,30,-63,-166,-186,-198,-153
27,47,13,-38,9,32,30,-69,-166,-192,-198,-153
21,41,13,-32,9,26,19,-81,-172,-186,-210,-165
27,35,1,-32,9,20,19,-87,-172,-186,-210,-165
21,29,1,-26,9,14,19,-81,-172,-186,-204,-165
15,17,-5,-15,9,8,25,-81,-172,-186,-210,-165
15,11,-5,-15,9,2,25,-75,-178,-186,-210,-165
15,17,-5,-15,9,8,30,-69,-172,-192,-210,-165
15,23,1,-20,9,14,30,-69,-160,-186,-198,-153
21,29,1,-26,9,14,30,-69,-160,-186,-198,-153
21,35,7,-26,9,20,30,-63,-154,-186,-192,-147
15,29,7,-20,9,20,30,-63,-154,-186,-186,-147
21,35,7,-26,9,20,19,-63,-160,-186,-192,-153
21,29,1,-26,9,14,19,-63,-160,-186,-192,-153
27,35,1,-32,9,20,19,-63,-166,-180,-198,-159
33,47,7,-38,9,26,19,-57,-154,-180,-198,-153
39,47,1,-44,15,26,25,-57,-154,-180,-192,-153
33,53,13,-44,9,32,30,-51,-148,-174,-192,-147
21,47,19,-32,9,32,30,-51,-154,-180,-192,-147
15,47,25,-32,4,38,30,-45,-160,-180,-192,-147
15,47,25,-32,4,38,30,-45,-154,-174,-186,-147
15,47,25,-32,4,38,30,-45,-148,-168,-186,-147
15,47,25,-32,4,38,30,-45,-142,-162,-186,-147
21,47,19,-32,9,32,30,-45,-142,-162,-186,-147
27,53,19,-38,9,38,30,-39,-136,-156,-186,-147
33,59,19,-44,9,38,30,-39,-130,-156,-186,-147
39,71,25,-56,9,50,30,-39,-124,-150,-186,-147
45,77,25,-62,9,50,30,-39,-124,-150,-186,-147
39,59,13,-50,9,38,30,-39,-124,-144,-180,-141
39,77,31,-56,9,56,30,-39,-124,-144,-180,-141
33,71,31,-50,9,50,30,-39,-124,-144,-168,-141
33,65,25,-50,9,44,30,-39,-124,-144,-168,-141
27,53,19,-38,9,38,30,-39,-130,-150,-174,-147
21,47,19,-32,9,32,30,-39,-130,-150,-174,-147
15,35,25,-20,-2,26,30,-51,-136,-156,-186,-153
10,35,31,-15,-8,32,25,-51,-136,-156,-186,-153
21,65,37,-44,-2,50,25,-57,-136,-156,-192,-147
15,59,37,-38,-2,50,19,-57,-136,-156,-192,-147
27,59,25,-44,9,44,19,-57,-136,-156,-198,-141
39,65,19,-50,9,44,19,-57,-142,-162,-198,-141
57,77,13,-68,15,44,25,-51,-136,-156,-192,-135
45,71,19,-56,9,44,19,-45,-130,-150,-186,-135
51,83,25,-68,9,56,25,-45,-130,-144,-180,-135
57,107,43,-80,9,74,25,-39,-124,-138,-174,-135
57,95,31,-74,9,62,25,-39,-130,-144,-180,-135
51,83,25,-68,9,56,30,-45,-130,-144,-186,-135
39,71,25,-56,9,50,30,-45,-142,-156,-192,-147
27,53,19,-38,9,38,30,-51,-148,-156,-192,-147
27,53,19,-38,9,38,30,-57,-148,-162,-192,-147
27,65,31,-44,4,50,25,-57,-148,-162,-192,-147
39,65,19,-50,9,44,19,-63,-148,-162,-192,-147
45,65,13,-56,9,38,19,-63,-148,-162,-192,-147
45,71,19,-56,9,44,13,-63,-142,-156,-198,-147
45,71,19,-56,9,44,13,-75,-154,-162,-198,-147
45,77,25,-62,9,50,25,-69,-154,-156,-198,-153
39,77,31,-56,9,56,25,-69,-154,-156,-198,-153
39,77,31,-56,9,56,19,-75,-160,-162,-204,-153
39,77,31,-56,9,56,13,-75,-160,-168,-204,-153
27,77,43,-50,-2,62,13,-81,-172,-174,-210,-153
39,77,31,-56,9,56,7,-87,-172,-180,-210,-153
33,65,25,-50,9,44,1,-93,-178,-180,-216,-153
27,53,19,-38,9,38,1,-93,-178,-186,-216,-159
21,47,19,-32,9,32,-5,-105,-184,-186,-216,-159
21,47,19,-32,9,32,-5,-111,-190,-192,-228,-159
15,47,25,-32,4,38,1,-111,-184,-192,-222,-165
15,35,13,-26,9,26,7,-111,-190,-192,-222,-165
33,53,13,-44,9,32,13,-105,-184,-180,-216,-159
33,53,13,-44,9,32,19,-105,-184,-180,-216,-159
27,53,19,-38,9,38,19,-105,-190,-192,-216,-165
27,59,25,-44,9,44,13,-105,-190,-192,-216,-165
33,77,37,-56,4,56,7,-105,-196,-198,-216,-159
27,71,37,-50,4,56,1,-111,-202,-198,-216,-159
27,65,31,-44,4,50,-5,-117,-208,-204,-222,-165
33,59,19,-44,9,38,-5,-117,-208,-204,-228,-165
33,47,7,-38,9,26,1,-117,-208,-198,-234,-165
27,41,7,-32,9,26,1,-117,-208,-198,-234,-171
21,59,31,-38,4,44,-5,-129,-208,-204,-240,-177
15,41,25,-26,-2,32,-5,-129,-214,-204,-240,-177
15,35,25,-20,-2,26,-5,-123,-214,-204,-240,-183
10,41,37,-20,-14,38,-5,-123,-214,-204,-234,-183
15,53,31,-32,-2,44,-5,-129,-214,-204,-234,-177
27,47,13,-38,9,32,-5,-129,-220,-204,-234,-177
51,59,1,-56,21,32,-5,-129,-220,-204,-234,-165
63,65,-5,-62,27,32,-5,-135,-220,-204,-234,-165
57,65,1,-62,21,32,1,-135,-214,-204,-228,-165
51,65,7,-56,15,38,1,-135,-214,-210,-228,-165
45,65,13,-56,9,38,1,-129,-208,-204,-228,-171
39,65,19,-50,9,44,1,-123,-208,-192,-228,-171
39,65,19,-50,9,44,1,-129,-214,-198,-228,-165
39,65,19,-50,9,44,-5,-129,-220,-204,-228,-165
39,59,13,-50,9,38,-11,-141,-220,-210,-234,-165
39,65,19,-50,9,44,-11,-147,-226,-216,-234,-165
39,59,13,-50,9,38,-17,-147,-226,-216,-240,-171
39,53,7,-44,9,32,-17,-147,-226,-216,-240,-165
33,47,7,-38,9,26,-17,-147,-226,-216,-246,-171
33,35,-5,-32,15,14,-17,-147,-226,-216,-246,-171
33,47,7,-38,9,26,-5,-147,-220,-204,-234,-171
4,11,13,-15,-2,8,1,-141,-232,-216,-234,-171
4,17,19,-15,-8,14,-11,-153,-244,-216,-246,-183
15,29,7,-20,9,20,-23,-159,-244,-228,-252,-195
15,17,1,-15,9,8,-23,-159,-244,-228,-246,-189
15,23,1,-20,9,14,-23,-153,-238,-222,-246,-183
15,29,7,-20,9,20,-23,-153,-238,-222,-246,-177
21,35,7,-26,9,20,-23,-147,-232,-216,-240,-171
21,41,13,-32,9,26,-23,-147,-232,-216,-240,-165
27,65,31,-44,4,50,-5,-129,-220,-204,-234,-165
27,89,55,-56,-8,74,7,-123,-208,-192,-222,-159
27,95,61,-62,-8,80,19,-111,-202,-186,-216,-153
27,119,85,-74,-20,104,30,-99,-196,-186,-222,-153
27,113,79,-68,-20,98,30,-105,-202,-192,-222,-153
15,107,85,-62,-26,98,30,-117,-208,-198,-222,-159
15,95,73,-56,-20,86,30,-123,-214,-210,-222,-159
15,95,73,-56,-20,86,25,-129,-214,-216,-222,-159
15,107,85,-62,-26,98,30,-117,-208,-204,-216,-153
15,107,85,-62,-26,98,30,-111,-202,-198,-216,-147
15,113,97,-62,-38,104,30,-105,-196,-186,-210,-141
15,113,97,-62,-38,104,42,-87,-184,-168,-204,-135
15,125,109,-68,-44,116,48,-75,-178,-168,-198,-135
21,137,109,-80,-38,122,48,-69,-166,-162,-198,-141
27,143,109,-86,-32,128,42,-63,-166,-162,-198,-135
33,149,109,-92,-32,128,42,-63,-160,-150,-186,-135
39,173,127,-104,-38,152,36,-69,-160,-156,-186,-129
45,185,133,-116,-38,158,30,-81,-160,-156,-186,-129
45,191,139,-116,-38,164,25,-93,-166,-162,-186,-123
45,197,145,-122,-44,170,1,-99,-166,-162,-186,-123
57,197,133,-128,-32,164,-11,-123,-172,-156,-174,-117
75,209,127,-140,-20,170,-17,-129,-172,-156,-174,-111
93,221,121,-158,-8,170,-29,-129,-166,-138,-168,-87
111,221,103,-164,9,164,-35,-135,-166,-138,-156,-81
135,239,97,-188,15,170,-47,-135,-166,-132,-150,-81
141,245,97,-194,15,170,-47,-129,-154,-126,-132,-75
159,251,85,-206,33,170,-47,-117,-148,-114,-126,-69
165,263,97,-218,27,182,-47,-117,-148,-114,-120,-69
153,245,85,-200,27,164,-41,-111,-142,-108,-114,-63
141,227,79,-182,27,152,-41,-111,-142,-108,-114,-63
135,221,79,-176,21,152,-35,-99,-136,-102,-114,-57
147,221,67,-182,33,146,-47,-99,-136,-114,-126,-63
153,191,31,-170,57,110,-53,-111,-148,-120,-132,-75
147,179,25,-164,57,104,-59,-123,-154,-126,-150,-81
153,161,1,-158,69,80,-65,-123,-160,-126,-156,-81
153,161,1,-158,69,80,-65,-129,-166,-126,-162,-81
147,149,-5,-146,69,74,-77,-147,-190,-144,-168,-87
123,137,7,-128,51,74,-83,-165,-202,-162,-174,-111
117,125,1,-122,51,62,-89,-177,-220,-168,-180,-117
99,89,-5,-92,51,38,-95,-183,-220,-198,-192,-129
81,77,-5,-80,39,32,-83,-183,-232,-192,-198,-135
57,77,13,-68,15,44,-65,-183,-232,-198,-204,-141
27,53,19,-38,9,38,-47,-183,-232,-192,-210,-147
21,41,13,-32,9,26,-41,-183,-244,-198,-222,-153
21,35,7,-26,9,20,-47,-195,-256,-216,-240,-177
15,23,1,-20,9,14,-53,-207,-274,-228,-246,-183
15,11,-5,-15,9,2,-59,-213,-286,-246,-258,-195
10,0,-5,-9,9,-3,-65,-219,-286,-252,-270,-201
4,-12,-10,3,9,-15,-65,-213,-280,-246,-270,-201
-2,-18,-10,9,9,-15,-65,-213,-280,-246,-270,-201
-8,-24,-10,15,4,-21,-65,-213,-286,-246,-264,-195
-2,-18,-10,9,9,-15,-65,-213,-286,-246,-264,-195
-8,-24,-10,15,4,-21,-71,-213,-286,-252,-270,-201
-14,-30,-10,21,4,-21,-77,-213,-286,-252,-270,-201
-20,-36,-10,27,-2,-27,-83,-213,-292,-258,-276,-207
-32,-36,-5,33,-14,-21,-83,-213,-292,-258,-276,-207
-32,-42,-5,33,-8,-27,-77,-213,-292,-258,-270,-213
-14,-24,-5,15,-2,-15,-77,-213,-292,-258,-276,-213
-2,-12,-5,3,4,-9,-65,-213,-292,-252,-270,-213
-8,-18,-5,9,4,-15,-65,-213,-286,-252,-270,-213
4,-12,-10,3,9,-15,-59,-207,-280,-246,-270,-207
4,0,-5,-3,4,-3,-59,-207,-280,-246,-270,-207
4,-24,-22,9,9,-27,-53,-201,-274,-240,-270,-201
-8,-24,-10,15,4,-21,-53,-201,-286,-240,-270,-201
-8,-30,-16,15,9,-27,-53,-207,-286,-246,-282,-213
-14,-36,-16,21,4,-27,-53,-207,-280,-252,-282,-213
-14,-30,-10,21,4,-21,-53,-213,-280,-258,-282,-219
-14,-30,-10,21,4,-21,-47,-207,-274,-258,-282,-225
-14,-24,-5,15,-2,-15,-41,-201,-274,-252,-276,-219
-14,-24,-5,15,-2,-15,-41,-195,-274,-246,-276,-213
-8,0,1,3,-8,2,-35,-189,-274,-240,-270,-207
-8,0,1,3,-8,2,-35,-183,-274,-234,-264,-201
-8,-12,-5,9,-2,-9,-35,-189,-268,-240,-264,-201
-8,-12,-5,9,-2,-9,-35,-183,-268,-240,-264,-201
4,-18,-16,3,9,-21,-35,-189,-262,-240,-264,-201
-8,-24,-10,15,4,-21,-29,-189,-256,-240,-264,-201
-62,-54,1,57,-32,-21,-41,-177,-256,-240,-276,-201
-38,-42,-5,39,-14,-21,-41,-189,-268,-252,-282,-213
-26,-36,-5,27,-8,-21,-35,-171,-280,-252,-282,-213
-56,-48,1,51,-32,-21,-11,-147,-262,-240,-282,-213
-38,-12,19,21,-32,2,7,-129,-232,-240,-276,-213
-14,11,19,-3,-20,8,36,-63,-208,-240,-294,-231
-62,-30,25,45,-44,2,84,26,-160,-252,-318,-261
-62,-54,1,57,-32,-21,126,140,-100,-252,-342,-279
-20,-42,-16,27,4,-33,174,290,-4,-216,-330,-279
-14,-66,-46,39,9,-57,264,500,121,-156,-306,-279
-20,-102,-76,57,21,-93,378,734,265,-108,-294,-285
33,-102,-142,27,87,-123,480,980,427,-42,-258,-285
105,-90,-202,-15,153,-147,534,1190,589,89,-168,-231
153,-72,-232,-32,189,-153,546,1214,679,233,-36,-129
225,29,-190,-128,207,-75,498,1064,709,383,119,8
297,209,-88,-254,195,56,456,884,739,605,347,206
333,383,43,-356,141,218,378,548,745,863,641,470
423,653,229,-536,93,440,222,-33,601,1103,965,770
603,917,307,-758,147,614,25,-669,409,1349,1295,1088
747,1103,355,-926,195,734,-227,-1251,253,1613,1649,1400
807,1247,439,-1028,183,842,-521,-1869,8,1781,1931,1676
867,1391,517,-1130,171,956,-809,-2510,-352,1847,2104,1862
903,1457,547,-1178,177,998,-1085,-3104,-682,1943,2326,2071
897,1439,535,-1166,177,986,-1259,-3404,-718,2212,2601,2293
849,1367,511,-1106,165,944,-1283,-3302,-508,2487,2829,2436
831,1271,439,-1052,195,854,-1307,-3128,-394,2547,2817,2407
753,1055,295,-908,231,680,-1355,-3008,-466,2260,2541,2197
639,743,103,-692,261,428,-1337,-2894,-664,1733,2021,1796
501,503,-5,-500,249,248,-1277,-2786,-958,1055,1397,1310
309,335,19,-320,141,182,-1211,-2678,-1306,305,725,824
81,185,97,-134,-2,140,-1133,-2558,-1678,-462,71,368
-8,89,103,-32,-56,92,-1085,-2355,-1864,-960,-360,44
-8,29,43,-15,-26,32,-995,-2025,-1696,-966,-450,-87
-44,-24,13,33,-32,-3,-857,-1641,-1354,-768,-420,-135
-32,-30,-5,27,-14,-15,-713,-1287,-1084,-642,-408,-195
10,-24,-28,3,9,-27,-569,-957,-838,-522,-390,-219
4,-36,-34,15,9,-39,-431,-681,-604,-372,-318,-207
15,-12,-22,-3,9,-21,-317,-495,-442,-270,-276,-189
45,11,-40,-20,39,-15,-275,-399,-358,-228,-246,-177
21,0,-28,-15,21,-15,-209,-315,-268,-192,-210,-147
10,-6,-10,-3,9,-9,-131,-225,-190,-156,-180,-141
33,29,-5,-32,15,8,-77,-153,-130,-144,-168,-129
39,41,-5,-38,15,20,-47,-93,-94,-132,-168,-123
15,29,13,-20,4,20,-35,-63,-82,-132,-186,-135
15,29,13,-20,4,20,-29,-33,-82,-126,-192,-135
15,17,7,-15,4,8,-23,-21,-82,-120,-198,-141
15,11,-5,-15,9,2,-5,3,-76,-114,-204,-141
10,6,-5,-9,9,2,1,26,-70,-114,-210,-147
15,0,-10,-9,9,-9,19,38,-34,-96,-198,-147
10,-12,-16,-3,9,-15,30,68,-4,-96,-204,-159
-2,-42,-34,21,9,-39,36,86,19,-96,-204,-165
4,-18,-16,3,9,-21,42,92,19,-96,-204,-159
15,0,-10,-9,9,-9,42,98,19,-102,-210,-165
15,11,-5,-15,9,2,42,104,19,-96,-204,-159
27,23,-5,-26,15,8,30,110,19,-96,-192,-153
27,29,-5,-26,9,14,30,116,2,-96,-198,-153
21,17,-5,-20,9,2,30,122,2,-90,-192,-153
21,23,-5,-20,9,8,30,134,14,-78,-186,-141
33,23,-5,-26,21,2,36,152,25,-60,-180,-135
27,17,-5,-20,15,2,48,170,55,-48,-168,-135
27,11,-10,-20,21,2,54,182,73,-48,-168,-135
27,11,-10,-20,21,2,54,194,91,-48,-168,-135
27,11,-16,-15,21,2,48,200,91,-48,-168,-135
21,11,-5,-15,15,2,42,206,91,-48,-162,-135
21,29,1,-26,9,14,42,212,91,-48,-162,-135
27,35,1,-32,9,20,42,218,79,-36,-144,-117
27,35,1,-32,9,20,42,230,91,-24,-138,-111
21,23,-5,-20,9,8,42,236,97,-6,-132,-111
21,11,-5,-15,15,2,42,248,115,0,-120,-111
15,11,-5,-15,9,2,60,266,139,18,-126,-105
15,11,-10,-15,9,2,60,272,157,23,-120,-105
27,11,-16,-15,21,2,54,266,163,23,-114,-111
27,23,-5,-26,15,8,54,278,175,23,-114,-105
21,11,-5,-15,15,2,36,272,175,23,-108,-111
21,11,-5,-15,15,2,30,278,181,23,-102,-111
57,35,-16,-44,39,2,30,296,187,23,-96,-87
57,41,-10,-50,33,8,30,314,193,47,-84,-81
51,47,-5,-50,27,20,30,326,211,65,-78,-75
69,53,-10,-62,39,14,36,338,223,83,-72,-63
75,47,-22,-62,51,8,42,356,253,101,-54,-57
75,47,-22,-62,51,8,48,368,271,113,-48,-51
81,47,-28,-62,57,2,54,386,289,125,-36,-51
81,53,-22,-68,51,8,60,398,313,131,-30,-51
69,53,-10,-62,39,14,54,398,313,137,-30,-51
69,65,-5,-68,33,26,36,398,325,143,-30,-45
75,65,-5,-68,39,26,30,404,319,155,-24,-39
75,65,-5,-68,39,26,25,422,325,173,-12,-33
87,65,-16,-74,51,20,30,446,349,203,-7,-21
111,71,-34,-92,75,14,30,458,367,215,5,-9
99,71,-22,-86,63,20,30,476,397,227,29,-3
99,59,-34,-80,69,8,30,488,421,251,35,3
111,77,-28,-92,69,20,30,506,439,263,47,3
129,89,-34,-110,81,20,30,518,463,275,59,8
117,95,-16,-104,69,32,30,530,475,287,59,8
129,101,-22,-116,75,32,25,542,481,299,71,8
141,101,-34,-122,87,26,7,554,499,311,77,20
141,101,-34,-122,87,26,7,560,517,335,89,32
147,107,-34,-128,93,32,-11,578,535,353,95,44
159,107,-46,-134,105,26,-11,590,553,371,107,56
177,125,-46,-152,111,32,-5,608,577,395,131,68
195,131,-58,-164,129,32,1,626,601,407,149,74
201,149,-46,-176,123,44,7,644,619,431,167,80
201,149,-46,-176,123,44,1,656,625,437,167,80
177,143,-28,-158,105,50,-5,662,625,437,167,80
177,143,-28,-158,105,50,-23,662,625,443,173,80
189,161,-22,-176,105,62,-23,674,631,455,179,92
207,167,-34,-188,123,62,-29,680,649,455,185,104
207,167,-34,-188,123,62,-35,680,649,473,191,116
201,173,-22,-188,111,68,-35,686,649,479,197,116
195,173,-16,-182,105,74,-41,680,655,491,209,122
189,173,-10,-182,99,74,-47,680,661,491,209,122
201,179,-16,-188,111,74,-53,686,661,485,209,116
201,179,-16,-188,111,74,-53,686,655,485,197,116
195,173,-16,-182,105,74,-59,674,649,473,185,104
195,173,-16,-182,105,74,-65,668,643,461,179,98
201,185,-10,-194,105,80,-65,674,637,455,185,104
201,185,-10,-194,105,80,-65,674,625,449,179,98
195,197,-5,-194,93,98,-71,674,625,449,179,98
195,203,1,-200,93,104,-71,674,613,443,173,92
195,191,-5,-194,99,92,-65,668,613,431,161,86
183,185,-5,-182,87,92,-65,662,601,419,161,80
183,197,7,-188,81,104,-59,656,595,407,155,74
177,173,-5,-176,87,80,-53,650,595,401,149,74
165,167,-5,-164,81,80,-59,638,583,389,125,56
153,167,7,-158,69,86,-59,632,565,365,113,44
141,143,-5,-140,69,68,-65,614,547,341,89,38
117,143,19,-128,45,80,-59,602,529,329,83,26
111,131,13,-122,45,74,-59,596,505,323,71,26
111,131,13,-122,45,74,-59,578,499,311,59,20
99,125,19,-110,33,74,-53,566,481,293,53,20
93,101,1,-98,39,50,-47,560,463,281,41,14
99,101,-5,-98,45,50,-53,536,445,263,35,8
87,101,7,-92,33,56,-47,524,433,257,23,3
75,107,25,-92,21,68,-47,512,409,227,17,-9
75,113,31,-92,15,74,-47,488,391,209,5,-15
75,113,31,-92,15,74,-35,470,367,203,5,-15
63,101,31,-80,9,68,-29,458,343,191,-7,-21
57,101,37,-80,9,68,-23,434,325,179,-12,-27
57,101,37,-80,9,68,-17,422,295,167,-12,-27
57,101,37,-80,9,68,-11,398,271,149,-18,-27
51,101,43,-74,9,74,-5,368,259,131,-24,-27
57,101,37,-80,9,68,-11,332,241,113,-42,-39
45,95,43,-68,9,68,-11,308,217,89,-48,-45
33,101,61,-68,-8,80,-5,296,193,77,-54,-45
33,107,67,-68,-8,86,1,272,169,65,-66,-51
45,113,61,-80,-2,86,7,254,145,53,-72,-51
45,107,55,-74,4,80,13,236,115,41,-78,-57
33,95,55,-62,-2,74,7,212,91,23,-90,-57
15,95,73,-56,-20,86,7,182,55,23,-102,-69
15,65,55,-32,-20,56,7,164,37,6,-114,-69
-8,47,61,-15,-32,50,7,140,19,-6,-126,-75
-2,59,67,-20,-32,62,1,110,8,-24,-126,-87
10,71,67,-32,-26,68,1,98,-4,-36,-132,-87
15,71,61,-38,-20,62,-5,86,-22,-54,-138,-93
10,71,67,-32,-26,68,-5,56,-46,-60,-144,-93
4,65,67,-26,-32,62,-5,44,-58,-72,-150,-105
-8,53,67,-15,-38,56,-5,38,-70,-84,-156,-111
-14,47,67,-15,-38,56,-5,26,-82,-90,-168,-111
-20,41,67,-15,-44,50,-5,26,-100,-90,-168,-111
-26,35,67,-15,-44,50,-11,15,-106,-96,-168,-111
-20,41,67,-15,-44,50,-17,3,-112,-96,-168,-111
-14,41,61,-15,-38,50,-23,-9,-130,-108,-168,-111
-8,47,61,-15,-32,50,-23,-9,-136,-108,-168,-111
-20,29,55,-15,-38,38,-23,-15,-136,-114,-174,-117
-14,29,49,-15,-32,38,-29,-21,-142,-126,-174,-117
-38,29,73,-3,-56,50,-29,-27,-148,-126,-180,-123
-50,29,85,3,-68,56,-29,-33,-154,-132,-186,-123
-50,23,79,3,-62,50,-35,-39,-154,-132,-180,-129
-38,23,67,-3,-50,44,-35,-39,-160,-132,-186,-129
-50,11,67,9,-56,38,-29,-33,-160,-132,-186,-129
-50,11,61,15,-56,32,-29,-39,-160,-132,-186,-129
-32,23,61,-3,-44,38,-29,-51,-160,-126,-180,-117
-20,35,61,-15,-38,44,-29,-39,-160,-120,-180,-117
-14,35,55,-15,-32,44,-29,-39,-160,-114,-174,-111
10,65,61,-32,-26,62,-35,-33,-160,-120,-174,-111
10,71,67,-32,-26,68,-29,-27,-148,-114,-162,-105
4,65,67,-26,-32,62,-23,-27,-148,-120,-162,-105
-2,65,73,-26,-38,68,-23,-27,-148,-114,-162,-105
4,59,61,-26,-26,56,-17,-27,-148,-114,-162,-105
-20,47,73,-15,-44,56,-23,-33,-148,-114,-168,-111
-32,35,73,-9,-50,50,-23,-39,-154,-114,-180,-111
-50,17,73,9,-62,44,-29,-45,-160,-114,-192,-117
-56,29,91,3,-74,56,-29,-45,-160,-120,-198,-117
-44,35,85,-3,-62,56,-23,-39,-148,-114,-186,-111
-32,41,79,-15,-56,56,-23,-39,-148,-114,-180,-111
-20,47,73,-15,-44,56,-17,-27,-142,-114,-174,-111
-20,41,67,-15,-44,50,-17,-27,-142,-114,-162,-111
-20,47,73,-15,-44,56,-23,-21,-136,-108,-156,-105
-20,41,67,-15,-44,50,-17,-21,-136,-102,-156,-99
-20,47,73,-15,-44,56,-11,-15,-130,-90,-150,-93
-14,59,79,-15,-44,68,-5,-9,-118,-84,-150,-81
-14,59,79,-15,-44,68,-5,-15,-118,-84,-150,-93
-20,59,85,-15,-50,68,-5,-15,-118,-84,-156,-93
-38,53,97,-15,-68,74,-5,-21,-124,-90,-162,-105
-44,47,97,-9,-68,68,-11,-21,-136,-96,-168,-111
-38,41,85,-9,-62,62,-17,-21,-130,-90,-162,-105
-38,41,85,-9,-62,62,-17,-21,-124,-84,-162,-105
-32,35,73,-9,-50,50,-23,-21,-118,-78,-162,-99
-26,35,67,-15,-44,50,-29,-21,-118,-78,-162,-99
-20,47,73,-15,-44,56,-23,-15,-118,-78,-156,-93
-20,53,79,-15,-50,62,-23,-15,-112,-78,-156,-93
-14,71,91,-20,-50,80,-11,-15,-112,-78,-150,-87
-14,77,97,-26,-56,86,-11,-15,-112,-78,-150,-87
-20,59,85,-15,-50,68,-11,-9,-106,-72,-150,-81
-20,71,97,-20,-56,80,-11,-9,-106,-72,-150,-81
-26,65,97,-15,-62,80,-5,-3,-100,-72,-144,-81
-26,53,85,-15,-56,68,-5,-3,-100,-72,-144,-81
-26,47,79,-15,-50,62,-5,-3,-100,-72,-144,-81
-26,47,79,-15,-50,62,-5,-3,-100,-72,-144,-81
-38,41,85,-9,-62,62,1,-15,-100,-72,-150,-81
-38,47,91,-15,-62,68,1,-15,-100,-72,-150,-81
-20,71,97,-20,-56,80,-5,-27,-106,-78,-156,-87
-32,59,97,-15,-62,74,-17,-27,-112,-84,-162,-93
-26,53,85,-15,-56,68,-23,-33,-118,-90,-168,-99
-20,53,79,-15,-50,62,-29,-33,-130,-102,-174,-105
-8,59,73,-20,-38,62,-23,-27,-124,-96,-168,-99
-26,47,79,-15,-50,62,-23,-21,-118,-90,-162,-93
-26,53,85,-15,-56,68,-17,-21,-118,-84,-156,-93
-26,71,103,-15,-62,86,-11,-15,-112,-78,-150,-87
-14,77,97,-26,-56,86,-17,-21,-118,-84,-156,-87
-14,77,97,-26,-56,86,-11,-27,-118,-84,-162,-87
-14,83,103,-26,-56,92,-17,-33,-130,-96,-168,-99
-20,77,103,-20,-62,86,-11,-39,-136,-96,-168,-99
-26,71,103,-15,-62,86,-17,-39,-136,-102,-168,-99
-26,77,109,-20,-68,92,-23,-39,-136,-102,-168,-99
-20,71,97,-20,-56,80,-29,-39,-136,-102,-168,-99
-14,65,85,-20,-50,74,-29,-39,-136,-102,-168,-99
-26,59,91,-15,-56,74,-35,-39,-130,-102,-180,-99
-32,53,91,-15,-62,68,-35,-51,-142,-108,-180,-99
-44,47,97,-9,-68,68,-23,-45,-142,-108,-186,-105
-56,41,103,-3,-80,68,-23,-45,-142,-108,-186,-105
-38,59,103,-15,-68,80,-23,-51,-148,-108,-180,-99
-20,71,97,-20,-56,80,-23,-51,-148,-114,-180,-99
-14,89,109,-32,-62,98,-17,-57,-160,-114,-174,-93
15,101,91,-50,-38,92,-17,-63,-160,-120,-174,-93
10,89,85,-44,-38,86,-17,-57,-160,-114,-174,-87
-2,83,91,-32,-44,86,-17,-57,-154,-114,-174,-93
-8,77,91,-26,-50,80,-17,-57,-154,-108,-168,-87
-14,83,103,-26,-56,92,-17,-63,-154,-108,-180,-87
-26,71,103,-15,-62,86,-23,-75,-160,-120,-186,-99
-32,53,91,-15,-62,68,-23,-75,-166,-126,-186,-99
-20,59,85,-15,-50,68,-29,-81,-172,-126,-192,-99
-26,53,85,-15,-56,68,-29,-81,-172,-132,-192,-99
-32,53,91,-15,-62,68,-23,-87,-178,-132,-186,-105
-26,53,85,-15,-56,68,-23,-87,-178,-132,-186,-105
-20,71,97,-20,-56,80,-23,-93,-184,-126,-180,-99
-20,59,85,-15,-50,68,-23,-99,-190,-126,-180,-99
-26,59,91,-15,-56,74,-29,-99,-190,-132,-180,-99
-20,59,85,-15,-50,68,-29,-93,-184,-132,-186,-99
-26,53,85,-15,-56,68,-23,-87,-178,-126,-186,-93
-32,53,91,-15,-62,68,-23,-81,-172,-126,-186,-99
-32,71,109,-15,-68,86,-35,-99,-184,-138,-198,-105
-38,47,91,-15,-62,68,-35,-99,-196,-144,-204,-111
-38,41,85,-9,-62,62,-41,-99,-208,-150,-210,-117
-38,41,85,-9,-62,62,-41,-99,-214,-156,-210,-123
-44,41,91,-9,-68,62,-41,-105,-208,-156,-204,-117
-44,29,79,-3,-62,50,-41,-105,-214,-156,-204,-117
-44,29,79,-3,-62,50,-41,-105,-208,-156,-198,-105
-44,29,79,-3,-62,50,-41,-111,-208,-156,-198,-105
-56,23,85,9,-68,50,-41,-123,-214,-162,-204,-111
-62,23,91,9,-74,56,-41,-123,-214,-168,-204,-111
-74,17,97,21,-86,56,-47,-129,-220,-168,-216,-123
-80,17,103,21,-92,56,-47,-123,-220,-156,-216,-123
-68,23,97,15,-80,56,-41,-123,-220,-156,-210,-117
-62,29,97,9,-80,62,-41,-117,-220,-156,-210,-117
-50,29,85,3,-68,56,-41,-123,-220,-156,-210,-117
-44,41,91,-9,-68,62,-35,-123,-220,-156,-210,-117
-44,35,85,-3,-62,56,-35,-123,-220,-156,-210,-117
-44,35,85,-3,-62,56,-35,-123,-220,-156,-210,-111
-50,29,85,3,-68,56,-29,-123,-220,-156,-210,-111
-50,23,79,3,-62,50,-29,-123,-220,-156,-210,-111
-50,17,73,9,-62,44,-41,-129,-220,-162,-216,-117
-56,17,79,9,-68,44,-41,-123,-220,-168,-216,-117
-68,17,91,15,-80,50,-41,-129,-226,-168,-222,-123
-56,17,79,9,-68,44,-47,-123,-244,-174,-222,-123
-56,17,79,9,-68,44,-47,-129,-244,-174,-216,-123
-56,11,73,15,-62,38,-47,-129,-238,-174,-216,-123
-56,17,79,9,-68,44,-53,-135,-226,-168,-210,-117
-44,17,67,3,-56,38,-59,-135,-226,-168,-210,-117
-44,17,67,3,-56,38,-53,-135,-226,-162,-216,-117
-44,29,79,-3,-62,50,-47,-135,-226,-162,-210,-105
-26,41,73,-15,-50,56,-41,-135,-220,-156,-210,-99
-26,47,79,-15,-50,62,-35,-135,-214,-156,-210,-99
-38,41,85,-9,-62,62,-35,-135,-220,-156,-210,-111
-38,35,79,-9,-56,56,-41,-135,-220,-162,-210,-111
-50,23,79,3,-62,50,-41,-147,-226,-168,-216,-117
-62,11,67,21,-68,32,-47,-147,-232,-168,-228,-123
-62,17,85,15,-74,50,-47,-141,-226,-162,-222,-117
-50,23,79,3,-62,50,-47,-135,-226,-162,-222,-111
-50,29,85,3,-68,56,-41,-129,-220,-156,-216,-105
-50,29,85,3,-68,56,-41,-123,-220,-156,-210,-99
-44,23,73,3,-56,44,-41,-129,-220,-162,-210,-99
-38,29,73,-3,-56,50,-41,-129,-220,-162,-210,-105
-44,23,73,3,-56,44,-41,-129,-226,-168,-216,-111
-44,29,79,-3,-62,50,-47,-129,-226,-174,-216,-117
-8,41,55,-15,-32,44,-47,-129,-220,-162,-210,-117
-32,29,67,-9,-50,44,-23,-117,-208,-162,-210,-111
-50,29,85,3,-68,56,-23,-123,-202,-150,-216,-105
-50,35,91,-3,-68,62,-29,-123,-208,-156,-216,-105
-50,35,91,-3,-68,62,-29,-123,-208,-156,-216,-105
-50,41,97,-3,-74,68,-35,-123,-214,-162,-216,-105
-50,41,97,-3,-74,68,-35,-123,-214,-162,-216,-105
-50,53,109,-9,-80,80,-23,-111,-208,-156,-210,-105
-50,71,127,-15,-86,98,-17,-111,-196,-144,-198,-99
-56,65,127,-15,-92,92,-11,-105,-196,-150,-192,-93
-56,83,145,-15,-98,110,1,-99,-196,-150,-198,-93
-50,89,145,-15,-98,116,13,-93,-190,-144,-192,-87
-56,83,145,-15,-98,110,13,-99,-190,-138,-192,-87
-50,83,139,-15,-92,110,25,-93,-184,-138,-186,-81
-44,83,133,-15,-86,104,25,-93,-178,-132,-186,-75
-44,95,145,-20,-92,116,25,-81,-178,-132,-186,-75
-44,95,145,-20,-92,116,30,-81,-172,-132,-186,-69
-50,101,157,-20,-104,128,30,-75,-172,-132,-186,-69
-50,101,157,-20,-104,128,30,-63,-160,-120,-180,-63
-44,119,169,-32,-104,140,36,-51,-154,-114,-174,-63
-32,137,175,-44,-104,152,36,-45,-142,-108,-174,-63
-20,149,175,-56,-98,158,30,-39,-142,-102,-174,-57
-14,161,181,-68,-98,170,30,-39,-136,-90,-162,-51
-14,179,199,-74,-104,188,30,-45,-136,-96,-156,-45
-8,185,199,-80,-104,188,30,-57,-136,-96,-156,-45
-14,185,205,-80,-110,194,13,-69,-142,-102,-150,-39
-14,185,205,-80,-110,194,-11,-75,-142,-102,-150,-39
4,179,181,-86,-86,176,-29,-93,-154,-96,-144,-33
15,191,175,-98,-74,182,-35,-99,-154,-96,-144,-27
33,197,157,-116,-56,176,-53,-93,-154,-78,-144,-3
51,197,139,-122,-38,170,-59,-99,-154,-78,-132,3
51,197,139,-122,-38,170,-71,-105,-160,-78,-132,-3
39,191,145,-116,-44,170,-71,-99,-148,-78,-120,3
33,179,139,-104,-44,158,-71,-93,-148,-72,-120,3
21,185,157,-104,-62,170,-71,-93,-148,-78,-120,3
27,179,145,-104,-50,164,-71,-87,-142,-72,-120,3
27,167,133,-98,-44,152,-71,-87,-142,-72,-120,3
39,179,133,-110,-38,158,-71,-75,-136,-66,-126,3
63,185,115,-122,-20,152,-83,-75,-136,-78,-138,-3
69,161,85,-116,-2,122,-83,-87,-148,-78,-132,-9
63,149,79,-104,-2,116,-89,-99,-154,-84,-138,-15
69,137,61,-104,9,98,-89,-99,-160,-78,-132,-9
69,137,61,-104,9,98,-89,-105,-166,-78,-126,-9
63,131,61,-98,9,98,-101,-123,-184,-96,-138,-15
39,125,79,-80,-14,104,-101,-135,-190,-108,-144,-33
33,119,79,-74,-14,98,-107,-147,-202,-114,-156,-39
15,89,67,-50,-20,80,-107,-147,-202,-138,-168,-45
10,65,61,-32,-26,62,-107,-153,-220,-144,-180,-57
-14,59,79,-15,-44,68,-95,-159,-220,-156,-192,-69
-44,23,73,3,-56,44,-89,-165,-226,-162,-204,-81
-50,11,61,15,-56,32,-89,-171,-244,-174,-222,-93
-44,17,67,3,-56,38,-83,-171,-244,-174,-228,-99
-44,17,67,3,-56,38,-77,-171,-256,-180,-228,-99
-44,17,67,3,-56,38,-71,-171,-256,-180,-228,-93
-50,11,67,9,-56,38,-65,-165,-250,-174,-228,-93
-50,11,61,15,-56,32,-65,-165,-244,-180,-234,-105
-56,11,61,21,-62,26,-65,-165,-244,-180,-234,-105
-56,11,61,21,-62,26,-65,-165,-250,-192,-234,-111
-50,11,61,15,-56,32,-65,-165,-250,-192,-234,-111
-56,6,55,21,-56,20,-65,-165,-256,-198,-234,-111
-56,-6,43,27,-50,8,-71,-171,-256,-198,-234,-111
-62,-18,37,39,-50,2,-71,-171,-268,-204,-234,-111
-68,-24,37,45,-56,2,-71,-171,-268,-204,-234,-111
-80,-36,37,57,-62,2,-71,-165,-262,-204,-234,-117
-68,-24,37,45,-56,2,-71,-165,-256,-198,-240,-117
-68,-18,43,39,-56,2,-65,-153,-250,-192,-240,-117
-80,-30,43,51,-62,2,-65,-153,-238,-186,-240,-117
-74,-24,43,45,-62,2,-71,-159,-244,-192,-246,-123
-74,-12,55,39,-68,14,-71,-159,-250,-198,-246,-123
-80,-36,37,57,-62,2,-77,-165,-256,-204,-252,-129
-92,-36,49,63,-74,2,-77,-165,-274,-210,-258,-129
-92,-48,37,69,-68,-3,-71,-165,-268,-210,-264,-129
-98,-54,37,75,-68,-3,-71,-165,-262,-216,-258,-129
-98,-54,37,75,-68,-3,-65,-165,-256,-216,-252,-123
-98,-54,37,75,-68,-3,-59,-159,-250,-216,-246,-129
-110,-60,43,81,-80,-3,-59,-153,-250,-210,-246,-129
-110,-60,43,81,-80,-3,-59,-153,-250,-210,-246,-129
-116,-48,61,81,-92,2,-59,-147,-250,-204,-246,-129
-116,-48,61,81,-92,2,-59,-147,-250,-204,-246,-129
-122,-60,55,87,-92,2,-59,-153,-250,-210,-246,-129
-128,-60,61,93,-98,2,-59,-147,-250,-210,-246,-129
-122,-66,49,93,-86,-3,-59,-153,-250,-210,-246,-129
-140,-72,61,105,-104,-3,-53,-153,-244,-210,-246,-129
-86,-42,37,63,-62,2,-53,-153,-244,-198,-246,-129
-122,-66,49,93,-86,-3,-53,-141,-244,-198,-246,-117
-134,-60,67,93,-104,2,-35,-111,-220,-198,-240,-117
-104,-12,85,57,-98,26,-11,-87,-220,-186,-240,-117
-74,11,91,21,-80,50,19,-33,-178,-174,-234,-105
-110,0,103,51,-110,44,60,44,-136,-174,-246,-123
-98,-6,85,51,-92,32,84,128,-100,-186,-270,-159
-62,-6,49,33,-56,14,126,248,-40,-174,-270,-165
-80,-54,19,63,-50,-15,198,398,55,-126,-270,-177
-110,-102,1,105,-56,-45,264,566,169,-84,-270,-201
-80,-126,-40,99,-14,-87,342,788,301,-48,-270,-219
-62,-174,-106,117,15,-141,444,1058,487,29,-228,-207
-38,-186,-142,111,45,-165,504,1238,637,161,-132,-147
81,-84,-172,-9,123,-129,492,1190,691,287,-1,-45
225,101,-118,-164,171,-3,486,1052,721,467,191,128
261,263,-5,-260,129,134,468,884,781,701,443,356
321,479,151,-398,81,314,354,506,751,959,743,620
435,713,271,-572,75,488,186,-69,589,1199,1067,926
519,881,355,-704,81,620,-11,-669,421,1445,1403,1238
639,1055,415,-848,111,734,-287,-1299,241,1673,1727,1538
741,1259,517,-998,105,890,-593,-1959,-64,1805,1973,1790
771,1391,613,-1082,75,998,-857,-2594,-424,1859,2164,1988
807,1445,631,-1124,87,1034,-1109,-3140,-694,1997,2398,2209
825,1451,619,-1136,99,1034,-1235,-3350,-664,2278,2679,2425
765,1367,595,-1064,81,980,-1223,-3158,-430,2523,2865,2526
717,1247,529,-986,87,890,-1247,-2972,-346,2499,2793,2460
687,1055,367,-872,159,716,-1295,-2882,-466,2158,2457,2203
567,743,175,-656,195,464,-1265,-2774,-688,1607,1919,1784
327,425,91,-374,117,254,-1205,-2678,-1006,917,1253,1274
99,251,151,-176,-20,206,-1169,-2624,-1414,119,557,764
-14,209,229,-92,-122,218,-1121,-2510,-1756,-588,-24,356
-92,113,211,-15,-152,158,-1049,-2247,-1804,-918,-348,116
-140,11,151,57,-146,74,-971,-1887,-1546,-828,-390,8
-92,11,97,39,-98,44,-833,-1509,-1222,-666,-360,-51
-56,6,55,21,-56,20,-671,-1137,-964,-534,-348,-87
-86,-36,43,57,-68,2,-521,-807,-718,-408,-306,-99
-92,-60,25,75,-62,-15,-419,-585,-532,-288,-270,-111
-68,-36,25,51,-50,-3,-341,-441,-418,-222,-246,-93
-74,-36,31,51,-56,2,-275,-339,-322,-186,-198,-69
-74,-24,43,45,-62,2,-215,-267,-232,-144,-162,-51
-50,-6,37,27,-44,8,-167,-195,-166,-120,-156,-57
-62,-6,49,33,-56,14,-101,-117,-106,-96,-156,-57
-104,-18,79,57,-92,20,-71,-57,-58,-84,-156,-63
-110,-6,97,57,-104,38,-59,-15,-52,-84,-162,-63
-98,11,103,39,-104,50,-47,21,-52,-78,-162,-57
-80,11,97,27,-86,50,-41,32,-58,-72,-156,-51
-68,17,91,15,-80,50,-17,62,-52,-66,-156,-45
-74,11,79,27,-80,38,-5,80,-46,-66,-162,-51
-62,6,61,27,-62,26,13,104,-10,-48,-150,-57
-68,-12,49,39,-62,8,30,128,19,-48,-156,-69
-74,-42,25,57,-50,-3,36,146,31,-48,-156,-81
-68,-24,37,45,-56,2,30,146,43,-54,-162,-75
-62,-12,43,33,-56,8,30,146,43,-60,-174,-81
-50,6,49,21,-50,20,30,146,43,-60,-174,-75
-44,11,49,15,-50,20,13,146,31,-60,-168,-69
-44,11,55,9,-50,26,13,158,19,-54,-168,-63
-50,6,49,21,-50,20,13,170,19,-48,-162,-63
-50,11,55,15,-56,26,25,188,37,-30,-150,-45
-38,11,43,9,-44,20,30,212,61,-12,-144,-39
-50,0,43,21,-50,14,42,224,91,-6,-132,-45
-56,-6,43,27,-50,8,48,236,109,-6,-132,-45
-62,-12,43,33,-56,8,54,242,127,-12,-132,-51
-68,-18,43,39,-56,2,48,248,127,-12,-132,-51
-68,-12,49,39,-62,8,36,248,121,-12,-132,-51
-68,6,67,27,-68,26,36,248,115,-12,-132,-51
-56,11,61,21,-62,26,30,248,97,0,-120,-33
-56,11,61,21,-62,26,30,254,103,12,-114,-27
-44,11,49,15,-50,20,36,266,115,23,-96,-21
-32,11,37,9,-38,14,36,272,133,29,-84,-21
-20,11,31,-3,-26,14,60,296,163,53,-78,-9
-8,11,25,-9,-14,14,60,308,181,59,-72,-9
-8,11,19,-9,-14,8,54,314,187,65,-72,-15
-20,17,43,-9,-32,26,54,326,199,65,-72,-9
-38,6,37,15,-38,14,36,332,199,65,-72,-15
-50,0,43,21,-50,14,30,338,205,71,-66,-15
-26,11,31,3,-32,14,30,344,205,71,-66,-3
-32,11,37,9,-38,14,30,356,211,89,-54,3
-50,6,49,21,-50,20,30,356,223,95,-54,-3
-38,6,37,15,-38,14,30,362,235,107,-48,8
-14,11,31,-9,-20,20,30,380,265,137,-24,14
4,23,25,-15,-8,20,36,398,289,155,-12,26
15,47,25,-32,4,38,42,416,313,179,-7,38
33,65,25,-50,9,44,48,434,337,191,5,44
27,65,31,-44,4,50,48,440,343,197,5,44
27,77,43,-50,-2,62,36,440,361,203,11,50
39,77,31,-56,9,56,30,452,361,215,17,56
39,77,31,-56,9,56,30,470,373,233,35,62
51,71,13,-62,15,44,30,494,391,257,41,68
75,77,-5,-74,33,38,30,506,409,263,53,80
63,71,1,-68,27,38,30,518,433,269,65,80
63,59,-5,-62,33,26,30,530,457,293,71,86
63,65,-5,-62,27,32,25,542,469,305,83,92
81,77,-5,-80,39,32,25,560,493,317,95,104
57,71,7,-62,21,38,19,566,499,323,95,110
69,77,1,-74,27,38,13,578,505,335,107,116
81,83,-5,-80,39,38,1,590,517,347,119,116
81,83,-5,-80,39,38,1,596,541,371,131,128
87,95,1,-92,39,50,-11,614,559,389,143,128
99,95,-5,-98,51,44,-11,626,577,407,155,140
105,101,-5,-104,51,44,-5,644,595,425,167,152
117,101,-10,-110,63,38,-5,662,619,437,185,158
111,107,-5,-110,57,50,1,680,631,455,191,164
105,101,-5,-104,51,44,-11,692,637,461,191,164
87,89,-5,-86,39,44,-23,686,631,455,185,158
87,89,-5,-86,39,44,-41,686,631,461,191,158
105,101,-5,-104,51,44,-47,686,631,467,191,164
123,107,-10,-116,69,44,-53,692,649,467,197,176
135,113,-16,-122,75,44,-53,704,661,479,209,182
141,125,-10,-134,75,50,-53,710,661,485,215,182
147,131,-10,-140,81,56,-53,716,679,491,233,182
153,137,-10,-146,81,56,-59,716,685,491,233,182
165,155,-5,-158,87,68,-59,728,685,497,233,188
165,161,-5,-164,81,74,-53,728,679,503,227,188
159,167,1,-164,75,86,-53,722,673,503,221,188
159,173,7,-164,69,92,-53,716,667,497,215,182
165,173,1,-170,75,86,-59,710,655,479,209,182
159,161,-5,-158,75,80,-59,704,643,467,203,176
153,161,1,-158,69,80,-71,692,637,455,191,170
147,155,1,-152,69,80,-71,686,625,443,185,164
135,137,-5,-134,63,68,-65,686,625,443,179,164
117,125,1,-122,51,62,-65,680,613,431,179,158
105,131,19,-116,39,74,-59,680,607,431,179,158
93,101,1,-98,39,50,-53,674,607,425,173,158
93,107,7,-98,39,56,-53,668,595,413,149,140
87,113,19,-98,27,68,-53,662,577,389,137,128
87,101,7,-92,33,56,-53,650,559,365,113,122
69,107,31,-86,15,68,-47,638,541,353,107,110
63,89,19,-74,15,56,-53,632,523,341,95,98
57,83,19,-68,15,50,-53,614,511,329,83,92
45,71,19,-56,9,44,-53,602,505,305,77,80
33,41,1,-38,9,20,-47,596,487,293,65,74
45,47,-5,-44,21,20,-41,584,481,281,65,74
39,53,7,-44,9,32,-35,572,469,281,59,68
33,65,25,-50,9,44,-23,566,457,263,59,68
39,77,31,-56,9,56,-23,542,439,257,53,68
39,77,31,-56,9,56,-17,524,415,245,47,62
27,65,31,-44,4,50,-11,512,391,227,23,56
21,65,37,-44,-2,50,-11,488,373,209,11,44
21,65,37,-44,-2,50,-5,470,343,191,11,44
15,53,37,-32,-8,44,7,452,325,185,17,50
15,53,43,-26,-14,44,13,428,313,173,11,50
10,41,37,-20,-14,38,13,398,295,167,5,44
-2,35,43,-15,-20,38,13,380,271,149,-1,38
-14,41,61,-15,-38,50,7,356,247,131,-7,26
-8,53,67,-15,-38,56,7,332,223,113,-18,20
4,59,61,-26,-26,56,1,296,193,95,-36,8
10,59,55,-26,-20,56,1,278,163,77,-42,8
4,53,55,-20,-26,50,7,260,145,59,-48,8
-8,53,67,-15,-38,56,7,230,115,47,-54,8
-14,29,49,-15,-32,38,19,212,103,29,-60,8
-32,11,49,3,-38,26,19,188,85,23,-66,8
-38,17,61,3,-50,38,19,158,67,23,-72,-3
-26,29,61,-9,-44,44,19,152,55,12,-78,-3
-32,23,61,-3,-44,38,19,140,37,6,-90,-9
-38,23,67,-3,-50,44,19,116,19,0,-96,-9
-44,11,61,9,-50,32,13,98,14,-18,-102,-21
-56,11,61,21,-62,26,7,92,2,-30,-108,-27
-62,0,55,27,-62,20,1,74,-10,-42,-120,-27
-68,-6,55,33,-62,14,-5,62,-28,-42,-120,-27
-74,-18,49,45,-62,8,1,50,-34,-48,-120,-27
-74,-18,49,45,-62,8,1,38,-40,-48,-120,-27
-68,-24,37,45,-56,2,7,26,-58,-60,-120,-27
-68,-24,37,45,-56,2,13,26,-64,-60,-120,-27
-56,-18,31,33,-44,2,13,26,-58,-66,-114,-27
-32,-6,19,15,-26,2,7,26,-64,-72,-114,-21
-32,11,43,3,-38,20,7,26,-64,-72,-108,-21
-26,17,49,-3,-38,32,7,26,-70,-72,-114,-15
-26,11,43,-3,-32,26,1,26,-76,-72,-114,-21
-14,11,31,-9,-20,20,1,26,-82,-72,-120,-21
-26,11,31,3,-32,14,7,26,-88,-72,-126,-21
-26,6,25,9,-26,8,7,21,-88,-72,-126,-21
-32,11,37,9,-38,14,7,3,-88,-78,-120,-21
-38,11,43,9,-44,20,7,15,-88,-72,-120,-21
-56,0,49,27,-56,14,7,9,-88,-78,-114,-27
-50,11,61,15,-56,32,1,15,-88,-84,-114,-27
-44,11,61,9,-50,32,7,21,-82,-78,-114,-27
-44,11,61,9,-50,32,7,21,-82,-84,-114,-27
-44,11,61,9,-50,32,7,21,-88,-78,-126,-33
-32,11,49,3,-38,26,7,21,-88,-78,-126,-33
-50,11,55,15,-56,26,7,21,-82,-78,-120,-27
-56,-6,43,27,-50,8,13,21,-82,-72,-126,-27
-68,-24,37,45,-56,2,13,21,-82,-72,-126,-21
-68,-18,43,39,-56,2,19,26,-76,-72,-126,-21
-74,-12,55,39,-68,14,13,26,-70,-72,-120,-21
-68,-12,49,39,-62,8,13,26,-70,-72,-120,-21
-74,-6,61,39,-68,20,7,26,-70,-78,-120,-27
-80,-18,55,45,-68,8,7,26,-70,-78,-114,-27
-74,-12,55,39,-68,14,-5,26,-70,-72,-114,-21
-68,-18,43,39,-56,2,-5,26,-70,-72,-114,-21
-62,-12,43,33,-56,8,-5,26,-70,-60,-114,-15
-50,0,43,21,-50,14,-5,26,-58,-60,-114,-9
-44,0,37,21,-44,8,7,26,-52,-54,-102,-9
-50,6,49,21,-50,20,13,32,-46,-48,-102,-3
-62,0,55,27,-62,20,25,32,-46,-48,-96,-3
-68,0,61,33,-68,20,25,38,-52,-48,-96,-3
-56,6,55,21,-56,20,25,44,-46,-54,-96,-9
-50,6,49,21,-50,20,25,44,-40,-48,-96,-9
-38,11,43,9,-44,20,25,50,-34,-54,-102,-15
-26,11,31,3,-32,14,19,50,-34,-54,-102,-15
-38,0,31,15,-38,8,19,50,-40,-54,-102,-15
-50,-6,37,27,-44,8,19,50,-34,-54,-102,-15
-62,-12,43,33,-56,8,25,44,-40,-54,-102,-15
-74,-18,49,45,-62,8,25,44,-40,-54,-102,-15
-68,-24,37,45,-56,2,13,38,-40,-54,-102,-9
-68,-6,55,33,-62,14,13,38,-40,-54,-102,-9
-62,0,55,27,-62,20,7,32,-40,-60,-96,-9
-62,-6,49,33,-56,14,7,32,-40,-60,-96,-9
-50,0,43,21,-50,14,7,44,-34,-54,-90,-3
-44,0,37,21,-44,8,7,44,-34,-54,-90,-3
-44,6,43,15,-44,14,13,44,-28,-48,-90,3
-38,11,43,9,-44,20,13,44,-28,-48,-90,3
-26,11,43,-3,-32,26,19,44,-28,-42,-84,3
-38,11,43,9,-44,20,13,44,-28,-42,-84,3
-38,-6,25,21,-32,2,19,50,-28,-36,-78,3
-32,-6,19,15,-26,2,19,50,-34,-42,-78,3
-14,0,7,3,-14,2,25,56,-28,-42,-84,8
-32,-12,13,21,-26,2,19,56,-28,-42,-84,8
-26,-6,13,15,-20,2,25,56,-28,-42,-90,8
-26,11,31,3,-32,14,25,56,-28,-42,-90,8
-14,11,25,-3,-20,14,25,62,-22,-42,-84,8
-14,11,25,-3,-20,14,30,56,-22,-42,-90,8
-14,11,31,-9,-20,20,30,62,-22,-48,-84,-3
-20,11,31,-3,-26,14,30,56,-28,-48,-84,-3
-26,11,31,3,-32,14,30,50,-34,-54,-84,-3
-32,11,49,3,-38,26,25,50,-34,-54,-84,-3
-26,11,37,3,-32,20,19,44,-40,-54,-84,-3
-26,11,37,3,-32,20,19,44,-40,-54,-84,-3
-32,11,37,9,-38,14,1,32,-46,-60,-96,-3
-32,11,37,9,-38,14,1,26,-58,-72,-96,-3
-38,6,37,15,-38,14,1,26,-70,-78,-102,-9
-44,6,43,15,-44,14,1,26,-70,-84,-102,-9
-50,0,43,21,-50,14,1,26,-70,-84,-102,-15
-50,0,43,21,-50,14,1,26,-70,-90,-102,-21
-68,-6,55,33,-62,14,7,26,-76,-90,-102,-27
-56,-6,43,27,-50,8,7,21,-76,-96,-102,-33
-44,0,37,21,-44,8,7,26,-76,-90,-102,-27
-44,0,37,21,-44,8,7,26,-76,-96,-102,-33
-32,11,37,9,-38,14,7,26,-76,-90,-96,-27
-26,11,43,-3,-32,26,7,21,-82,-96,-108,-27
-32,11,43,3,-38,20,13,15,-82,-108,-114,-33
-32,6,31,9,-32,8,13,15,-88,-108,-114,-33
-14,11,25,-3,-20,14,19,15,-88,-108,-120,-27
-14,11,25,-3,-20,14,19,15,-88,-108,-120,-27
-38,0,31,15,-38,8,19,9,-94,-120,-126,-39
-44,-6,31,21,-38,2,19,9,-94,-120,-126,-39
-56,-6,43,27,-50,8,13,3,-100,-126,-132,-39
-68,-24,37,45,-56,2,13,-3,-106,-126,-132,-39
-56,-18,31,33,-44,2,1,-9,-106,-132,-126,-39
-44,-18,19,27,-32,2,1,-9,-106,-132,-132,-39
-32,-18,7,21,-20,-3,1,-9,-100,-126,-126,-33
-32,-18,7,21,-20,-3,1,-9,-100,-126,-126,-39
-38,0,31,15,-38,8,-5,-21,-100,-132,-126,-39
-44,-18,19,27,-32,2,-5,-21,-106,-132,-126,-39
-50,-24,19,33,-38,2,-5,-15,-106,-132,-120,-39
-50,-18,25,33,-38,2,-5,-15,-106,-132,-114,-39
-56,-18,31,33,-44,2,1,-21,-106,-132,-120,-45
-56,-30,19,39,-38,-3,1,-21,-112,-132,-120,-45
-56,-30,19,39,-38,-3,7,-21,-112,-132,-126,-45
-56,-30,19,39,-38,-3,7,-27,-112,-132,-126,-45
-56,-30,19,39,-38,-3,7,-33,-118,-144,-126,-45
-56,-30,19,39,-38,-3,7,-33,-118,-150,-126,-45
-56,-30,19,39,-38,-3,1,-33,-124,-156,-132,-51
-56,-30,19,39,-38,-3,1,-27,-124,-144,-132,-51
-62,-30,25,45,-44,2,1,-27,-124,-150,-132,-45
-62,-24,31,39,-50,2,1,-21,-124,-150,-132,-45
-68,-30,31,45,-50,2,-5,-27,-124,-156,-138,-45
-68,-18,43,39,-56,2,1,-27,-124,-156,-138,-45
-50,-12,31,27,-44,2,-5,-27,-124,-150,-138,-51
-44,-12,25,27,-38,2,-5,-27,-124,-150,-138,-45
-32,-6,19,15,-26,2,-5,-27,-124,-144,-138,-51
-26,-12,7,15,-20,2,-5,-27,-124,-144,-138,-51
-20,-6,7,9,-14,2,-5,-27,-118,-144,-132,-45
-26,-6,13,15,-20,2,1,-21,-118,-144,-132,-45
-32,6,31,9,-32,8,13,-21,-118,-138,-126,-39
-20,6,19,3,-20,2,13,-15,-130,-138,-126,-39
-26,6,25,9,-26,8,13,-21,-136,-144,-132,-45
-32,0,25,15,-32,2,13,-21,-130,-150,-138,-51
-38,6,37,15,-38,14,7,-27,-124,-150,-144,-51
-32,6,31,9,-32,8,1,-27,-124,-156,-150,-57
-38,-6,25,21,-32,2,7,-27,-130,-156,-150,-63
-44,-6,31,21,-38,2,7,-27,-130,-156,-144,-57
-32,-6,19,15,-26,2,13,-27,-130,-156,-138,-57
-38,-12,19,21,-32,2,13,-27,-118,-156,-138,-63
-44,-12,25,27,-38,2,13,-27,-124,-156,-138,-63
-38,-6,25,21,-32,2,7,-27,-130,-162,-144,-57
-44,-12,25,27,-38,2,7,-39,-136,-168,-150,-51
-50,-24,19,33,-38,2,1,-39,-142,-168,-168,-51
-56,-24,25,39,-44,2,1,-39,-148,-174,-168,-63
-50,-30,13,39,-32,-3,1,-39,-148,-180,-168,-69
-56,-42,7,45,-32,-15,7,-39,-154,-186,-168,-81
-62,-54,1,57,-32,-21,7,-39,-154,-192,-162,-87
-50,-48,-5,45,-26,-21,13,-39,-142,-186,-150,-75
-44,-36,1,39,-26,-15,13,-39,-142,-174,-144,-75
-44,-30,7,33,-26,-9,19,-33,-136,-168,-138,-69
-44,-18,19,27,-32,2,13,-33,-136,-162,-132,-69
-80,-30,43,51,-62,2,25,-21,-136,-162,-138,-57
-56,-18,31,33,-44,2,25,-21,-136,-162,-150,-63
-8,11,13,-3,-14,2,13,-27,-136,-174,-150,-75
-44,-36,1,39,-26,-15,19,-33,-130,-168,-150,-75
-62,-54,1,57,-32,-21,25,-27,-130,-174,-144,-81
-56,-48,1,51,-32,-21,19,-27,-130,-168,-138,-75
-50,-42,1,45,-26,-15,19,-27,-130,-168,-138,-75
-44,-36,1,39,-26,-15,13,-27,-130,-162,-132,-69
-38,-30,1,33,-20,-9,13,-27,-130,-162,-132,-69
-44,-6,31,21,-38,2,25,-9,-124,-150,-132,-63
-44,11,55,9,-50,26,30,-9,-112,-138,-120,-57
-56,11,73,15,-62,38,30,3,-112,-138,-120,-45
-56,35,97,3,-74,62,36,9,-112,-138,-126,-45
-50,29,85,3,-68,56,48,15,-106,-132,-120,-39
-62,17,85,15,-74,50,48,9,-106,-132,-120,-45
-56,11,67,15,-62,32,60,15,-100,-132,-114,-39
-56,11,61,21,-62,26,60,15,-94,-132,-114,-39
-56,17,79,9,-68,44,60,21,-94,-132,-114,-39
-56,17,79,9,-68,44,66,21,-88,-132,-114,-33
-62,29,97,9,-80,62,66,21,-88,-132,-114,-33
-62,29,97,9,-80,62,78,26,-76,-120,-108,-27
-50,53,109,-9,-80,80,84,32,-70,-120,-102,-27
-32,71,109,-15,-68,86,84,38,-58,-114,-102,-27
-14,89,109,-32,-62,98,78,44,-58,-114,-102,-21
-2,101,109,-44,-56,104,78,44,-52,-102,-90,-15
-2,113,121,-50,-62,116,84,50,-52,-102,-84,-9
4,119,121,-56,-56,116,84,38,-52,-102,-84,-9
-2,113,121,-50,-62,116,78,38,-58,-102,-78,-3
-2,113,121,-50,-62,116,60,32,-58,-102,-78,-3
4,113,115,-50,-56,110,36,21,-64,-102,-72,-3
15,125,115,-62,-50,116,30,15,-64,-102,-72,3
15,137,115,-74,-44,128,19,15,-58,-90,-72,8
27,137,103,-80,-32,122,13,9,-58,-90,-60,14
45,143,91,-92,-14,116,-5,3,-64,-90,-60,8
51,137,79,-92,-8,110,-5,3,-52,-84,-48,14
63,131,61,-98,9,98,-11,9,-52,-78,-48,14
69,137,61,-104,9,98,-11,3,-52,-78,-48,14
57,131,67,-92,4,98,-11,9,-46,-72,-36,20
51,119,61,-86,4,92,-11,9,-40,-72,-36,20
45,131,79,-86,-8,104,-11,21,-34,-66,-30,26
63,137,67,-98,4,104,-23,21,-28,-78,-42,20
63,107,37,-86,9,74,-23,9,-40,-78,-36,14
57,95,31,-74,9,62,-29,-3,-46,-84,-48,8
57,77,13,-68,15,44,-29,-3,-52,-78,-42,14
57,77,13,-68,15,44,-29,-9,-58,-78,-42,14
63,71,1,-68,27,38,-35,-21,-76,-90,-48,14
45,65,13,-56,9,38,-35,-33,-82,-102,-54,8
51,59,1,-56,21,32,-35,-39,-94,-102,-60,8
39,29,-5,-32,21,8,-35,-39,-94,-126,-72,3
27,23,-5,-26,15,8,-29,-39,-106,-126,-78,-3
15,29,13,-20,4,20,-17,-45,-112,-138,-84,-15
-2,11,19,-15,-8,14,-5,-45,-112,-138,-90,-21
-2,11,13,-9,-8,8,-5,-51,-130,-150,-102,-33
-8,6,7,-3,-8,2,-5,-57,-130,-162,-120,-51
-14,-12,-5,9,-8,-3,-5,-63,-148,-174,-126,-57
-26,-36,-5,27,-8,-21,-5,-69,-148,-186,-138,-63
-38,-60,-16,45,-8,-39,-5,-69,-148,-186,-144,-69
-50,-72,-16,57,-14,-45,-11,-75,-148,-192,-156,-81
-68,-84,-10,75,-26,-51,-11,-81,-154,-198,-162,-87
-80,-90,-5,81,-32,-51,-17,-87,-166,-210,-168,-93
-86,-90,-5,87,-38,-45,-17,-93,-172,-216,-174,-99
-80,-90,-5,81,-32,-51,-11,-87,-166,-216,-168,-93
-80,-96,-10,87,-32,-57,-17,-93,-166,-216,-168,-93
-74,-96,-16,81,-26,-57,-11,-87,-166,-216,-162,-87
-80,-96,-10,87,-32,-57,-11,-87,-166,-216,-162,-87
-80,-102,-16,87,-26,-63,-5,-81,-160,-216,-156,-93
-56,-84,-22,69,-14,-57,-5,-81,-160,-210,-162,-93
-44,-72,-22,57,-8,-51,7,-69,-154,-204,-156,-93
-44,-78,-28,57,-2,-57,7,-69,-148,-198,-156,-93
-38,-72,-28,51,-2,-51,7,-69,-154,-204,-156,-93
-38,-60,-16,45,-8,-39,7,-69,-154,-204,-156,-93
-44,-84,-34,63,-2,-63,7,-69,-160,-210,-156,-93
-56,-84,-22,69,-14,-57,7,-69,-172,-210,-156,-93
-68,-102,-28,81,-14,-69,1,-75,-172,-210,-168,-105
-80,-108,-22,93,-26,-69,1,-75,-166,-216,-168,-105
-92,-114,-16,99,-32,-69,-5,-81,-166,-216,-168,-111
-98,-114,-10,105,-38,-63,1,-75,-160,-216,-168,-117
-110,-120,-5,111,-50,-63,1,-75,-160,-216,-174,-111
-110,-126,-10,117,-44,-69,1,-75,-160,-216,-174,-111
-116,-114,-5,111,-56,-57,1,-75,-160,-216,-180,-105
-116,-120,-5,117,-56,-63,1,-75,-160,-216,-174,-105
-104,-114,-5,105,-44,-63,7,-69,-154,-210,-168,-99
-98,-108,-5,99,-44,-57,13,-63,-154,-210,-162,-99
-74,-96,-16,81,-26,-57,19,-57,-148,-198,-156,-93
-80,-96,-10,87,-32,-57,30,-57,-142,-198,-150,-93
-50,-102,-46,75,4,-75,19,-45,-142,-210,-162,-105
-50,-90,-34,69,-2,-63,30,-45,-142,-210,-168,-105
-110,-132,-16,117,-44,-75,30,-39,-142,-216,-180,-117
-104,-108,-5,105,-50,-57,36,-27,-136,-216,-180,-117
-86,-84,-5,81,-44,-39,66,26,-94,-210,-174,-117
-134,-120,7,123,-74,-51,108,92,-52,-198,-180,-123
-122,-138,-10,129,-50,-75,144,164,-16,-210,-204,-159
-74,-126,-46,99,-8,-87,186,290,43,-198,-204,-177
-80,-150,-64,111,-2,-111,258,458,163,-150,-192,-177
-110,-198,-82,153,-8,-141,318,626,271,-108,-192,-201
-80,-222,-136,147,21,-183,402,836,397,-72,-192,-219
-50,-222,-166,135,51,-195,522,1106,589,18,-156,-195
-14,-222,-202,117,87,-213,618,1352,775,149,-60,-135
57,-168,-232,45,141,-201,618,1388,877,287,71,-33
141,-42,-190,-44,165,-117,588,1286,907,455,245,116
183,113,-64,-146,123,20,570,1166,985,689,497,332
255,335,79,-290,81,212,486,842,979,959,803,596
351,569,217,-464,63,392,312,242,787,1175,1115,902
453,743,283,-596,81,512,96,-399,559,1385,1451,1208
567,917,343,-746,111,632,-125,-969,367,1637,1775,1514
693,1145,451,-920,117,794,-419,-1575,115,1817,2056,1790
759,1307,541,-1034,105,926,-671,-2181,-220,1907,2266,2000
771,1421,643,-1094,63,1028,-911,-2738,-502,2045,2511,2245
789,1463,667,-1124,57,1064,-1085,-3032,-532,2326,2823,2490
747,1379,631,-1058,51,1004,-1085,-2924,-322,2619,3051,2622
681,1205,517,-944,75,860,-1097,-2750,-208,2643,3027,2580
627,1031,403,-830,111,722,-1145,-2666,-310,2344,2715,2347
531,779,241,-656,141,512,-1115,-2564,-508,1805,2176,1928
339,485,139,-410,99,308,-1031,-2444,-808,1079,1487,1394
111,287,175,-200,-26,236,-977,-2402,-1210,239,731,836
-38,197,235,-74,-140,218,-941,-2349,-1630,-576,35,356
-140,89,235,15,-188,158,-887,-2145,-1780,-1032,-348,68
-188,-42,139,111,-164,38,-809,-1803,-1570,-1002,-402,-51
-176,-108,61,141,-122,-21,-725,-1449,-1234,-792,-360,-99
-140,-102,31,117,-86,-33,-587,-1125,-964,-642,-324,-123
-134,-144,-5,135,-62,-75,-443,-795,-718,-498,-270,-123
-128,-192,-58,159,-32,-129,-335,-549,-496,-372,-216,-123
-80,-168,-82,123,4,-129,-257,-405,-370,-294,-186,-117
-62,-132,-64,93,4,-99,-197,-303,-274,-240,-138,-93
-74,-108,-28,87,-20,-69,-137,-219,-202,-204,-114,-75
-38,-66,-22,51,-2,-45,-83,-147,-118,-168,-96,-57
-26,-42,-10,33,-2,-27,-17,-57,-22,-144,-72,-45
-44,-54,-5,45,-14,-33,30,26,19,-120,-60,-39
-68,-54,7,57,-38,-21,36,50,31,-114,-66,-39
-68,-48,13,57,-44,-15,42,80,31,-102,-66,-39
-68,-48,13,57,-44,-15,48,98,37,-90,-60,-33
-68,-54,7,57,-38,-21,66,122,43,-78,-60,-33
-74,-60,7,63,-44,-21,72,140,43,-78,-66,-39
-62,-60,-5,57,-32,-27,90,164,79,-66,-60,-45
-68,-66,-5,63,-32,-33,108,188,103,-66,-66,-57
-74,-90,-10,81,-26,-51,120,206,127,-72,-72,-69
-80,-90,-5,81,-32,-51,120,206,139,-84,-78,-75
-80,-90,-5,81,-32,-51,120,206,139,-90,-90,-81
-80,-90,-5,81,-32,-51,114,206,139,-96,-90,-87
-80,-96,-10,87,-32,-57,96,206,127,-96,-84,-81
-86,-90,-5,87,-38,-45,96,212,109,-90,-78,-75
-92,-96,-5,93,-44,-51,96,218,109,-84,-72,-75
-98,-90,1,93,-50,-39,108,230,121,-66,-54,-57
-86,-84,-5,81,-44,-39,120,248,145,-48,-48,-51
-74,-72,-5,69,-38,-33,132,260,175,-36,-36,-51
-62,-66,-5,63,-26,-33,138,266,193,-36,-36,-51
-44,-48,-5,45,-20,-27,138,272,211,-36,-36,-51
-32,-42,-5,33,-8,-27,132,278,211,-36,-36,-51
-38,-48,-5,39,-14,-27,132,284,217,-30,-36,-51
-38,-30,1,33,-20,-9,132,290,217,-30,-36,-51
-32,-36,-5,33,-14,-21,138,296,211,-12,-24,-33
-32,-36,-5,33,-14,-21,138,308,223,0,-18,-27
-26,-36,-5,27,-8,-21,132,308,223,12,-7,-27
-20,-42,-16,27,4,-33,132,314,241,12,-7,-27
-14,-36,-16,21,4,-27,144,326,259,23,-7,-21
-8,-36,-22,21,9,-33,144,332,271,23,-1,-21
4,-36,-34,15,9,-39,144,338,277,29,11,-21
-2,-18,-10,9,9,-15,144,350,289,29,11,-15
-8,-36,-22,21,9,-33,132,356,289,41,23,-15
-14,-36,-16,21,4,-27,126,362,295,47,29,-15
4,-30,-28,9,9,-33,126,368,307,53,35,3
-2,-42,-34,21,9,-39,126,386,313,71,47,8
-26,-54,-22,39,4,-39,126,386,337,83,53,8
-14,-66,-46,39,9,-57,132,398,349,95,59,8
4,-54,-52,21,21,-57,126,410,367,113,71,8
10,-42,-46,15,21,-45,126,422,385,125,77,14
15,-24,-46,-3,27,-33,120,434,391,137,83,8
21,-6,-34,-15,27,-21,120,446,409,143,89,8
21,0,-28,-15,21,-15,126,458,427,161,101,20
27,11,-22,-15,21,-3,114,458,451,167,107,32
45,11,-34,-26,39,-9,114,476,463,191,125,50
51,11,-40,-26,45,-9,108,494,481,209,143,62
57,11,-52,-26,51,-21,108,506,493,227,143,62
75,11,-70,-38,69,-27,108,512,505,239,149,74
57,6,-58,-26,57,-27,108,512,517,239,155,68
51,-12,-70,-15,57,-39,108,518,535,263,155,74
51,-6,-64,-15,57,-33,102,530,547,269,167,68
69,0,-76,-26,69,-39,102,548,571,275,179,74
45,-6,-58,-15,51,-33,102,554,577,281,179,68
57,-6,-70,-20,63,-39,96,566,583,287,191,68
75,6,-76,-32,75,-33,84,578,607,305,203,80
75,6,-76,-32,75,-33,84,584,631,329,215,92
87,11,-70,-50,81,-21,72,602,655,353,227,104
99,11,-82,-56,93,-27,72,614,673,371,233,116
99,11,-82,-56,93,-27,72,632,691,395,251,128
111,11,-94,-62,105,-33,72,650,715,407,269,134
99,11,-82,-56,93,-27,72,668,727,431,281,140
93,11,-82,-50,87,-33,60,680,733,437,281,140
81,11,-70,-44,75,-27,54,680,739,443,287,146
87,11,-70,-50,81,-21,36,680,745,449,293,146
111,35,-70,-74,93,-9,36,686,751,467,305,164
135,47,-82,-92,111,-9,30,692,775,467,311,176
153,53,-94,-104,123,-15,36,704,781,485,317,182
159,59,-94,-110,129,-9,36,710,781,491,323,182
171,65,-100,-116,135,-9,42,716,793,503,335,182
177,65,-106,-122,141,-15,36,716,799,503,335,182
177,77,-94,-128,135,-3,36,728,805,503,341,182
177,77,-94,-128,135,-3,36,728,799,503,329,182
159,77,-76,-116,117,2,36,722,799,497,323,176
159,77,-76,-116,117,2,30,716,793,485,317,170
153,71,-76,-110,117,2,30,716,781,473,317,170
141,53,-82,-98,111,-9,30,710,769,461,311,164
123,47,-70,-86,99,-3,30,704,763,455,305,158
111,35,-70,-74,93,-9,30,698,751,443,299,152
105,23,-76,-62,93,-21,30,692,745,431,281,140
93,17,-70,-56,81,-21,30,686,733,419,281,128
87,29,-52,-56,69,-3,25,680,715,407,269,116
81,11,-70,-44,75,-27,30,674,715,401,263,110
87,11,-70,-50,81,-21,30,674,715,401,251,104
87,17,-64,-50,75,-15,30,668,697,383,245,98
93,11,-82,-50,87,-33,30,662,691,371,233,104
81,11,-64,-44,75,-21,36,650,673,365,233,98
75,11,-64,-38,69,-21,36,644,649,353,221,86
75,11,-64,-38,69,-21,36,626,637,335,203,74
63,11,-52,-32,57,-15,42,614,619,311,191,62
57,-6,-70,-20,63,-39,48,608,601,293,173,50
57,-6,-70,-20,63,-39,42,596,589,269,161,38
45,-12,-64,-15,51,-39,48,584,577,263,149,26
27,-6,-40,-15,33,-21,48,578,559,239,137,14
27,-6,-40,-15,33,-21,48,554,541,221,125,8
33,0,-40,-15,33,-21,54,530,511,203,119,8
21,-12,-40,-15,27,-27,60,512,493,185,95,8
21,-6,-34,-15,27,-21,60,488,469,161,83,8
21,-6,-34,-15,27,-21,66,470,439,143,83,8
15,-6,-28,-15,21,-15,72,452,415,131,83,3
15,-6,-22,-9,15,-15,78,428,403,119,77,3
15,-6,-22,-9,15,-15,72,398,379,107,65,-15
10,-12,-16,-3,9,-15,72,380,355,89,59,-21
-14,-18,-5,15,-2,-9,72,362,325,71,47,-27
-14,-18,-5,15,-2,-9,72,338,301,53,35,-33
-14,-24,-5,15,-2,-15,72,308,271,35,23,-39
-14,-36,-16,21,4,-27,72,290,247,23,17,-45
-14,-36,-16,21,4,-27,72,266,223,12,11,-45
-26,-30,-5,27,-8,-15,72,236,187,0,-1,-57
-26,-48,-16,33,-2,-33,78,212,169,-18,-7,-57
-44,-60,-10,51,-14,-39,78,188,145,-30,-7,-63
-38,-42,-5,39,-14,-21,84,164,127,-42,-7,-69
-26,-30,-5,27,-8,-15,84,158,115,-54,-12,-69
-20,-24,-5,21,-8,-15,90,152,97,-66,-18,-69
-26,-24,-5,21,-14,-9,90,128,73,-72,-24,-69
-32,-30,-5,27,-14,-15,84,116,67,-78,-30,-75
-38,-36,-5,33,-20,-15,84,110,55,-90,-36,-75
-44,-42,-5,39,-20,-21,78,98,49,-90,-48,-69
-44,-42,-5,39,-20,-21,78,86,31,-90,-48,-63
-56,-60,-5,57,-26,-33,78,80,25,-96,-48,-69
-56,-60,-5,57,-26,-33,72,68,19,-102,-48,-69
-56,-72,-10,63,-20,-45,72,62,14,-114,-48,-75
-56,-72,-10,63,-20,-45,72,62,8,-120,-48,-75
-62,-78,-10,69,-20,-45,72,56,2,-132,-54,-81
-50,-78,-22,63,-8,-51,66,50,-4,-144,-60,-81
-68,-66,-5,63,-32,-33,66,44,-16,-150,-66,-87
-74,-66,1,69,-38,-27,66,38,-22,-156,-78,-87
-74,-66,1,69,-38,-27,66,26,-22,-156,-72,-93
-62,-66,-5,63,-26,-33,66,26,-28,-156,-78,-93
-74,-72,-5,69,-38,-33,78,26,-28,-156,-78,-93
-74,-78,-5,75,-32,-39,78,26,-28,-156,-78,-93
-68,-78,-5,69,-26,-45,78,21,-28,-162,-78,-93
-68,-78,-5,69,-26,-45,78,26,-28,-156,-78,-93
-74,-96,-16,81,-26,-57,78,26,-28,-162,-78,-99
-62,-78,-10,69,-20,-45,72,26,-28,-168,-78,-99
-56,-66,-5,57,-20,-39,72,26,-22,-162,-78,-99
-56,-66,-5,57,-20,-39,72,26,-22,-168,-78,-99
-56,-60,-5,57,-26,-33,66,26,-28,-162,-90,-105
-44,-60,-10,51,-14,-39,66,26,-28,-162,-90,-105
-56,-60,-5,57,-26,-33,72,26,-16,-162,-84,-105
-62,-72,-5,63,-26,-39,78,26,-16,-156,-84,-105
-68,-78,-5,69,-26,-45,84,32,-10,-156,-84,-105
-68,-66,-5,63,-32,-33,90,38,-4,-156,-78,-105
-74,-72,-5,69,-38,-33,90,38,-4,-144,-66,-93
-68,-78,-5,69,-26,-45,90,38,-4,-144,-66,-93
-74,-84,-5,75,-32,-45,90,44,-10,-138,-60,-87
-80,-102,-16,87,-26,-63,90,44,-10,-138,-54,-87
-74,-96,-16,81,-26,-57,84,38,-10,-138,-54,-87
-74,-102,-22,87,-20,-63,84,38,-10,-138,-54,-87
-68,-96,-22,81,-20,-63,90,32,-10,-132,-54,-87
-62,-84,-16,69,-20,-51,90,38,2,-132,-54,-81
-50,-72,-16,57,-14,-45,96,44,8,-132,-48,-81
-50,-66,-10,57,-14,-39,102,50,14,-126,-48,-75
-56,-60,-5,57,-26,-33,108,56,14,-132,-48,-75
-56,-60,-5,57,-26,-33,108,62,8,-132,-48,-75
-56,-66,-5,57,-20,-39,108,62,8,-132,-48,-81
-56,-66,-5,57,-20,-39,108,62,14,-126,-48,-81
-56,-72,-10,63,-20,-45,108,62,14,-126,-54,-87
-50,-72,-16,57,-14,-45,102,62,14,-126,-54,-87
-44,-66,-16,51,-8,-45,108,68,19,-120,-48,-81
-44,-66,-16,51,-8,-45,108,68,19,-120,-42,-81
-38,-54,-10,45,-8,-33,120,68,19,-114,-36,-75
-38,-54,-10,45,-8,-33,120,68,19,-114,-30,-75
-32,-66,-28,45,4,-51,114,68,19,-114,-30,-69
-32,-48,-10,39,-8,-33,114,68,19,-114,-30,-69
-26,-48,-16,33,-2,-33,114,68,19,-120,-24,-69
-26,-54,-22,39,4,-39,114,68,19,-120,-24,-69
-26,-60,-28,39,4,-45,108,68,19,-126,-30,-75
-32,-60,-22,45,-2,-45,108,68,19,-126,-36,-75
-44,-66,-16,51,-8,-45,108,56,19,-132,-48,-81
-50,-60,-5,51,-20,-33,108,56,19,-132,-54,-81
-44,-48,-5,45,-20,-27,108,44,14,-132,-48,-87
-56,-66,-5,57,-20,-39,102,44,14,-132,-48,-87
-62,-84,-16,69,-20,-51,102,38,8,-132,-42,-93
-56,-90,-28,69,-8,-63,102,38,2,-138,-42,-93
-32,-78,-40,51,9,-63,108,44,8,-132,-36,-87
-38,-78,-34,57,4,-57,102,44,14,-126,-36,-81
-26,-66,-34,45,9,-51,108,44,14,-120,-30,-81
-14,-36,-16,21,4,-27,108,44,19,-114,-30,-75
-20,-48,-22,33,4,-39,102,44,14,-120,-36,-75
-26,-60,-28,39,4,-45,102,38,14,-126,-42,-75
-44,-72,-22,57,-8,-51,96,38,2,-138,-48,-87
-56,-90,-28,69,-8,-63,96,32,-4,-144,-48,-87
-62,-84,-16,69,-20,-51,90,26,-10,-150,-48,-87
-62,-72,-5,63,-26,-39,84,26,-10,-150,-48,-87
-56,-66,-5,57,-20,-39,78,26,-16,-150,-48,-87
-50,-66,-10,57,-14,-39,78,26,-16,-150,-48,-87
-44,-60,-10,51,-14,-39,66,26,-10,-144,-48,-81
-38,-60,-16,45,-8,-39,66,21,-22,-150,-48,-81
-32,-54,-16,39,-2,-39,72,26,-22,-144,-42,-81
-32,-54,-16,39,-2,-39,72,26,-22,-144,-42,-81
-26,-48,-16,33,-2,-33,78,26,-22,-144,-36,-75
-20,-48,-22,33,4,-39,78,26,-22,-150,-36,-75
-26,-42,-10,33,-2,-27,90,26,-28,-150,-30,-69
-8,-42,-28,21,9,-39,90,26,-28,-156,-30,-69
-14,-54,-34,33,9,-45,78,26,-34,-156,-42,-75
-26,-66,-34,45,9,-51,78,26,-34,-162,-42,-81
-32,-72,-34,51,4,-57,66,15,-40,-162,-48,-87
-38,-72,-28,51,-2,-51,66,9,-46,-168,-60,-87
-38,-66,-22,51,-2,-45,72,9,-46,-180,-60,-99
-38,-72,-28,51,-2,-51,72,9,-52,-180,-60,-99
-14,-48,-28,27,9,-39,78,15,-52,-180,-60,-99
-14,-42,-22,27,9,-33,78,15,-52,-180,-60,-99
-32,-54,-16,39,-2,-39,72,9,-52,-186,-66,-105
-38,-60,-16,45,-8,-39,66,9,-52,-186,-66,-105
-44,-54,-5,45,-14,-33,54,3,-52,-186,-72,-99
-56,-72,-10,63,-20,-45,48,-3,-58,-186,-72,-99
-50,-72,-16,57,-14,-45,42,-15,-70,-198,-72,-111
-44,-72,-22,57,-8,-51,42,-15,-70,-198,-78,-111
-38,-78,-34,57,4,-57,48,-21,-76,-198,-78,-117
-44,-78,-28,57,-2,-57,48,-21,-76,-198,-78,-123
-50,-60,-5,51,-20,-33,42,-33,-76,-210,-84,-123
-56,-84,-22,69,-14,-57,42,-33,-82,-210,-84,-123
-62,-90,-22,75,-14,-57,42,-27,-82,-216,-84,-123
-62,-90,-22,75,-14,-57,42,-27,-82,-216,-78,-123
-56,-78,-16,63,-14,-51,48,-27,-82,-210,-78,-117
-50,-84,-28,63,-8,-57,48,-27,-88,-210,-78,-117
-38,-72,-28,51,-2,-51,54,-21,-88,-204,-78,-105
-32,-66,-28,45,4,-51,54,-27,-88,-204,-78,-105
-38,-72,-28,51,-2,-51,60,-33,-94,-216,-84,-111
-38,-72,-28,51,-2,-51,60,-33,-94,-216,-84,-111
-44,-78,-28,57,-2,-57,60,-33,-100,-222,-96,-123
-44,-78,-28,57,-2,-57,60,-27,-100,-216,-96,-123
-50,-84,-28,63,-8,-57,60,-27,-94,-216,-84,-117
-50,-84,-28,63,-8,-57,60,-21,-94,-216,-84,-117
-56,-96,-34,75,-8,-69,54,-27,-88,-216,-78,-117
-56,-90,-28,69,-8,-63,60,-27,-88,-216,-78,-117
-50,-96,-40,69,-2,-69,54,-33,-94,-216,-84,-123
-50,-102,-46,75,4,-75,48,-39,-100,-216,-84,-117
-50,-108,-52,75,4,-81,48,-45,-106,-222,-90,-123
-50,-120,-64,81,9,-93,42,-51,-112,-222,-90,-123
-44,-114,-64,75,9,-93,42,-51,-106,-228,-90,-123
-50,-114,-58,81,9,-87,48,-45,-106,-228,-90,-123
-56,-102,-40,75,-2,-75,60,-45,-106,-228,-90,-123
-44,-102,-52,69,9,-81,60,-39,-118,-228,-90,-123
-50,-102,-46,75,4,-75,60,-45,-124,-234,-90,-129
-56,-102,-40,75,-2,-75,60,-45,-118,-234,-96,-135
-62,-96,-28,75,-14,-63,54,-51,-112,-234,-96,-135
-56,-90,-28,69,-8,-63,48,-51,-112,-234,-102,-141
-50,-90,-34,69,-2,-63,48,-57,-118,-228,-102,-141
-44,-78,-28,57,-2,-57,48,-57,-118,-228,-96,-129
-20,-66,-40,39,9,-57,48,-63,-118,-222,-90,-123
-14,-60,-40,33,9,-51,48,-63,-106,-222,-90,-123
-26,-66,-34,45,9,-51,54,-51,-106,-222,-90,-129
-26,-72,-40,45,9,-57,48,-51,-106,-222,-90,-123
-38,-84,-40,57,4,-63,54,-51,-106,-228,-96,-123
-50,-108,-52,75,4,-81,48,-51,-106,-222,-108,-123
-62,-108,-40,81,-8,-75,42,-63,-130,-234,-96,-147
-38,-90,-46,63,9,-69,60,-51,-106,-228,-96,-129
-32,-84,-46,57,9,-69,60,-45,-106,-228,-90,-129
-32,-84,-46,57,9,-69,60,-45,-106,-228,-90,-129
-26,-78,-46,51,9,-63,60,-39,-106,-228,-84,-129
-26,-78,-46,51,9,-63,60,-39,-106,-228,-84,-129
-26,-60,-28,39,4,-45,78,-21,-94,-216,-78,-123
-26,-42,-10,33,-2,-27,84,-15,-76,-198,-60,-117
-32,-42,-5,33,-8,-27,96,-3,-70,-192,-54,-105
-32,-24,1,27,-20,-9,108,9,-64,-186,-54,-105
-32,-24,1,27,-20,-9,108,3,-70,-192,-60,-105
-44,-30,7,33,-26,-9,108,-3,-82,-198,-66,-111
-44,-36,1,39,-26,-15,108,-9,-88,-210,-72,-111
-44,-36,1,39,-26,-15,108,-9,-94,-216,-78,-111
-38,-24,7,27,-26,-3,108,-9,-94,-216,-78,-117
-38,-24,7,27,-26,-3,114,-9,-88,-216,-78,-111
-38,-18,13,27,-26,2,114,-15,-88,-216,-78,-117
-38,-18,13,27,-26,2,126,-3,-76,-204,-72,-111
-32,0,25,15,-32,2,132,9,-64,-192,-54,-99
-20,11,31,-3,-26,14,132,15,-52,-186,-54,-99
-8,17,31,-15,-20,20,126,21,-46,-174,-42,-81
-2,29,37,-15,-20,32,126,21,-40,-162,-30,-75
-2,47,55,-15,-26,50,132,15,-46,-168,-30,-75
4,53,55,-20,-26,50,126,3,-46,-168,-30,-75
-2,53,61,-20,-32,56,120,-9,-58,-174,-30,-75
-2,53,61,-20,-32,56,96,-15,-58,-174,-30,-75
4,47,49,-20,-20,44,84,-33,-70,-174,-18,-75
15,53,43,-26,-14,44,78,-39,-70,-174,-18,-69
15,59,37,-38,-2,50,66,-33,-70,-162,-12,-51
27,53,19,-38,9,38,60,-39,-70,-162,-7,-45
39,59,13,-50,9,38,42,-45,-70,-162,-7,-51
39,53,7,-44,9,32,42,-39,-58,-156,-7,-45
45,47,-5,-44,21,20,36,-33,-52,-150,-7,-45
45,53,1,-50,15,26,36,-33,-52,-150,-7,-45
45,41,-5,-44,21,14,36,-33,-52,-156,-7,-51
39,29,-5,-32,21,8,36,-33,-52,-156,-7,-51
45,35,-5,-38,27,8,36,-27,-52,-162,-7,-57
63,41,-16,-50,39,8,30,-27,-52,-174,-7,-63
69,29,-34,-50,51,2,30,-33,-58,-174,-7,-69
63,29,-28,-44,45,2,30,-39,-58,-174,-12,-69
69,29,-34,-50,51,2,36,-33,-58,-168,-7,-63
69,41,-22,-56,45,2,42,-33,-58,-162,-7,-57
63,23,-34,-44,51,2,36,-39,-76,-168,-12,-57
45,11,-34,-26,39,-9,36,-51,-82,-180,-18,-75
39,0,-46,-15,39,-21,36,-51,-94,-174,-24,-75
27,-42,-76,-3,51,-57,36,-51,-94,-198,-36,-81
10,-66,-70,27,33,-69,30,-63,-118,-210,-48,-99
-14,-72,-52,39,9,-63,36,-75,-124,-222,-60,-111
-56,-108,-46,81,-2,-81,36,-87,-136,-234,-72,-129
-62,-126,-58,93,4,-93,30,-99,-154,-252,-90,-141
-50,-120,-64,81,9,-93,30,-99,-154,-258,-102,-153
-50,-126,-70,87,9,-99,30,-105,-172,-270,-108,-159
-44,-132,-82,87,9,-111,30,-105,-172,-276,-114,-159
-50,-144,-88,93,9,-117,30,-105,-172,-276,-120,-165
-38,-138,-94,87,21,-117,36,-99,-166,-270,-120,-165
-32,-138,-100,81,27,-123,42,-99,-166,-270,-120,-165
-20,-126,-100,69,33,-117,48,-93,-172,-270,-114,-159
-2,-114,-106,57,45,-111,54,-93,-172,-270,-114,-159
-8,-114,-100,57,39,-111,60,-87,-166,-264,-108,-153
-8,-120,-106,63,39,-117,54,-93,-160,-264,-108,-153
-14,-120,-100,63,33,-111,60,-87,-160,-258,-102,-147
-20,-120,-94,69,27,-111,60,-87,-154,-258,-102,-147
-38,-150,-106,93,27,-129,54,-87,-160,-270,-108,-159
-26,-144,-112,81,33,-129,54,-87,-166,-276,-120,-165
-32,-156,-118,93,33,-141,54,-81,-172,-282,-126,-171
-44,-174,-124,105,33,-153,54,-81,-172,-288,-132,-177
-38,-162,-118,99,33,-141,54,-87,-172,-288,-126,-171
-38,-150,-106,93,27,-129,54,-87,-172,-288,-120,-171
-44,-168,-118,105,27,-147,54,-93,-172,-288,-114,-165
-56,-168,-106,111,15,-141,54,-93,-184,-288,-108,-165
-62,-186,-118,123,21,-153,54,-93,-184,-288,-126,-171
-68,-198,-124,129,21,-165,54,-93,-178,-294,-126,-171
-74,-204,-124,135,15,-165,54,-93,-178,-294,-132,-171
-74,-210,-130,141,21,-171,60,-87,-172,-294,-132,-177
-62,-198,-130,129,27,-165,60,-93,-178,-294,-132,-177
-50,-186,-130,117,33,-159,60,-93,-178,-294,-132,-177
-32,-156,-118,93,33,-141,60,-99,-184,-294,-132,-177
-20,-144,-118,81,39,-135,60,-99,-184,-294,-126,-177
-32,-156,-118,93,33,-141,66,-93,-178,-288,-120,-171
-38,-162,-118,99,33,-141,72,-87,-172,-288,-120,-171
-38,-168,-124,99,33,-147,78,-81,-166,-276,-114,-165
-56,-180,-118,117,21,-153,90,-81,-154,-276,-114,-165
-74,-198,-118,135,15,-159,114,-45,-142,-264,-114,-165
-50,-174,-118,111,27,-147,102,-57,-142,-276,-132,-177
-38,-180,-136,105,39,-159,108,-39,-142,-288,-144,-177
-68,-204,-130,135,21,-171,132,-15,-124,-288,-144,-189
-74,-192,-112,129,9,-153,150,26,-106,-288,-150,-201
-50,-192,-136,117,33,-165,180,104,-64,-288,-168,-231
-98,-240,-142,171,15,-195,240,236,8,-276,-180,-249
-110,-252,-142,183,9,-201,300,374,91,-240,-180,-255
-44,-222,-172,129,57,-201,372,548,223,-186,-144,-255
-26,-240,-214,135,87,-231,486,788,379,-108,-108,-243
-44,-300,-250,171,99,-279,612,1046,559,-48,-96,-249
15,-288,-304,135,159,-297,678,1256,733,41,-24,-219
105,-252,-364,69,237,-309,690,1364,871,197,95,-111
129,-192,-322,21,225,-255,642,1268,925,359,245,14
213,6,-214,-104,213,-105,588,1088,943,545,473,200
309,251,-52,-278,183,98,504,764,937,803,743,464
357,491,127,-422,111,308,354,224,787,1037,1073,770
435,701,259,-566,81,482,162,-351,577,1265,1385,1064
579,905,319,-746,129,614,-47,-867,409,1523,1715,1346
639,1055,415,-848,111,734,-323,-1383,217,1721,1997,1622
657,1193,529,-926,57,860,-593,-1947,-88,1805,2176,1826
741,1331,589,-1034,69,962,-869,-2522,-412,1895,2374,2024
771,1433,655,-1100,57,1040,-1097,-2948,-514,2116,2655,2281
711,1355,643,-1028,27,998,-1145,-2948,-346,2434,2919,2454
699,1229,523,-962,81,878,-1133,-2738,-172,2559,2967,2454
693,1073,379,-884,153,728,-1181,-2612,-172,2398,2781,2299
579,821,235,-704,171,530,-1133,-2456,-274,2003,2380,1970
417,521,103,-470,153,314,-1043,-2319,-508,1385,1775,1490
249,317,67,-278,87,194,-971,-2247,-940,527,1019,926
27,161,127,-92,-44,146,-899,-2199,-1444,-402,239,380
-98,17,121,33,-110,68,-815,-2079,-1768,-1068,-294,3
-104,-78,19,87,-62,-27,-767,-1815,-1678,-1152,-432,-147
-80,-150,-64,111,-2,-111,-683,-1473,-1336,-936,-378,-195
-92,-192,-94,141,4,-147,-539,-1161,-1048,-768,-336,-219
-80,-198,-112,135,9,-159,-425,-879,-838,-666,-300,-237
-50,-216,-160,129,45,-189,-323,-633,-604,-498,-240,-231
-80,-234,-154,159,27,-201,-215,-459,-430,-384,-168,-207
-44,-192,-142,117,39,-171,-155,-345,-322,-318,-114,-177
33,-108,-148,27,87,-129,-101,-267,-226,-252,-66,-141
15,-120,-136,45,69,-129,-41,-177,-130,-216,-42,-123
-26,-162,-130,93,45,-147,30,-99,-70,-204,-36,-129
10,-126,-130,57,63,-129,66,-33,-34,-192,-36,-129
15,-126,-136,51,69,-135,96,3,-10,-180,-36,-123
-14,-132,-112,69,39,-123,102,26,2,-186,-48,-129
-14,-132,-112,69,39,-123,108,44,2,-186,-48,-129
-20,-138,-112,75,39,-129,108,56,2,-186,-48,-129
-20,-150,-124,81,45,-141,126,74,8,-186,-48,-129
-20,-150,-124,81,45,-141,144,98,19,-174,-42,-123
-8,-144,-130,75,51,-141,162,122,49,-150,-24,-123
-8,-144,-130,75,51,-141,192,152,85,-138,-18,-123
-14,-162,-142,87,57,-153,204,170,115,-132,-12,-129
-20,-162,-136,87,51,-153,198,170,115,-144,-30,-135
-14,-156,-136,81,51,-147,198,170,109,-156,-48,-147
-14,-156,-136,81,51,-147,186,170,97,-162,-60,-153
-8,-156,-142,81,57,-153,168,170,79,-168,-60,-153
-2,-144,-136,69,57,-141,168,170,67,-162,-54,-147
-8,-144,-130,75,51,-141,168,170,73,-156,-42,-147
-2,-132,-124,63,51,-129,180,176,91,-138,-24,-129
10,-120,-124,51,57,-123,192,188,121,-120,-12,-123
10,-126,-130,57,63,-129,210,206,151,-102,-7,-123
10,-126,-130,57,63,-129,216,224,169,-102,-7,-123
15,-126,-136,51,69,-135,222,236,187,-96,-7,-123
15,-126,-136,51,69,-135,216,248,187,-96,-7,-123
10,-132,-136,57,63,-135,210,248,181,-102,-7,-123
10,-114,-118,51,57,-117,210,248,175,-102,-7,-123
15,-120,-130,51,63,-129,210,248,157,-96,-1,-105
15,-120,-130,51,63,-129,210,254,163,-84,5,-99
10,-132,-136,57,63,-135,210,254,175,-66,17,-99
4,-138,-136,63,63,-141,210,266,199,-60,29,-99
-2,-144,-136,69,57,-141,228,272,229,-42,29,-93
-8,-144,-130,75,51,-141,228,284,253,-36,35,-93
15,-126,-148,45,81,-135,234,290,259,-18,47,-87
27,-96,-130,27,75,-111,234,302,265,-18,47,-81
45,-96,-148,15,93,-123,228,308,265,-6,59,-75
57,-84,-148,3,99,-117,222,314,271,0,65,-75
75,-72,-154,-9,111,-111,222,320,277,6,65,-57
69,-78,-154,-3,111,-117,222,332,283,23,77,-51
45,-84,-136,9,87,-111,222,332,301,23,77,-51
57,-90,-154,9,105,-123,228,338,313,35,83,-39
63,-84,-154,3,105,-117,228,350,337,53,101,-39
63,-84,-154,3,105,-117,228,362,355,65,107,-33
69,-72,-148,-9,105,-111,228,374,367,77,119,-39
69,-66,-142,-9,105,-105,228,386,385,83,125,-39
63,-72,-142,-3,99,-105,222,392,391,95,125,-33
63,-66,-136,-9,99,-99,210,392,409,101,131,-27
75,-72,-154,-9,111,-111,198,404,409,119,137,-15
75,-78,-160,-9,117,-117,192,422,421,137,155,-9
81,-78,-166,-9,123,-123,198,434,445,167,173,3
99,-72,-178,-15,135,-123,204,446,469,179,185,8
81,-72,-160,-15,117,-117,210,452,499,191,209,8
75,-84,-166,-3,117,-123,216,464,523,215,215,14
87,-72,-166,-15,123,-117,204,482,535,233,227,20
111,-60,-178,-20,141,-117,204,500,559,245,233,32
99,-60,-166,-15,129,-111,198,512,565,257,233,38
117,-54,-178,-26,147,-117,192,518,571,263,245,44
129,-42,-178,-38,153,-111,186,536,601,287,263,56
129,-42,-178,-38,153,-111,186,542,631,317,281,74
135,-24,-166,-50,147,-93,180,566,661,347,299,86
147,-24,-178,-56,159,-99,180,578,685,371,317,104
153,-18,-178,-62,165,-99,180,584,703,389,335,110
171,-12,-190,-74,177,-99,180,602,727,401,353,116
165,-6,-178,-74,171,-93,180,608,739,419,365,116
165,-6,-178,-74,171,-93,168,620,745,425,365,116
153,-18,-178,-62,165,-99,162,626,751,425,365,110
153,-18,-178,-62,165,-99,144,626,751,431,371,110
177,-6,-190,-80,183,-99,144,638,757,443,377,116
195,0,-202,-92,195,-99,138,644,775,443,383,128
195,6,-196,-92,195,-93,144,650,787,461,389,134
195,11,-184,-98,189,-81,144,656,787,467,395,134
189,11,-172,-98,183,-75,150,656,805,479,407,134
189,17,-166,-104,177,-69,144,656,811,479,407,134
201,29,-166,-116,183,-63,144,662,811,479,407,140
201,29,-166,-116,183,-63,144,662,805,479,395,140
195,29,-160,-110,177,-57,144,650,799,473,383,140
195,29,-160,-110,177,-57,138,644,793,461,377,134
201,23,-172,-110,189,-69,144,650,787,455,383,134
195,11,-178,-104,189,-75,150,644,775,443,377,128
189,11,-178,-98,183,-81,150,644,775,443,377,122
183,11,-178,-92,177,-81,156,638,763,431,371,116
177,6,-178,-86,177,-87,150,626,751,419,347,104
159,0,-166,-74,159,-81,150,614,739,401,341,92
153,11,-142,-80,147,-63,144,602,721,389,323,80
141,-6,-154,-62,147,-81,150,590,715,377,311,74
135,-12,-154,-56,141,-81,156,590,709,365,293,62
129,-18,-154,-50,141,-87,156,584,691,341,281,50
123,-42,-172,-32,147,-105,162,578,679,317,263,50
105,-48,-160,-20,129,-105,168,566,661,305,257,38
111,-42,-160,-26,135,-99,168,560,637,293,245,32
117,-36,-160,-32,135,-99,168,542,625,281,233,26
117,-24,-148,-38,129,-87,174,530,607,263,233,20
117,-42,-166,-32,141,-105,180,524,589,251,221,14
105,-60,-172,-15,135,-117,180,506,565,227,209,8
87,-72,-166,-15,123,-117,186,494,547,221,197,3
57,-84,-148,3,99,-117,192,476,517,191,185,-9
51,-90,-148,9,99,-117,192,452,499,173,173,-15
57,-84,-148,3,99,-117,192,428,463,155,167,-27
51,-96,-154,15,99,-123,198,410,439,131,143,-33
51,-90,-148,9,99,-117,192,380,409,107,131,-51
57,-90,-154,9,105,-123,198,362,379,83,131,-51
51,-84,-142,9,93,-111,216,350,355,71,125,-45
45,-78,-130,9,87,-105,222,326,343,59,119,-45
45,-72,-124,3,81,-99,228,302,319,47,101,-51
33,-72,-112,9,69,-93,228,284,295,29,95,-57
15,-84,-100,27,51,-93,222,266,259,18,83,-69
15,-84,-100,27,51,-93,222,242,241,0,71,-75
15,-96,-112,33,57,-105,216,206,205,-24,59,-87
15,-108,-124,39,63,-117,216,188,175,-42,53,-93
15,-102,-118,39,63,-111,210,164,145,-66,41,-87
10,-96,-100,39,45,-99,210,134,109,-78,29,-99
10,-108,-112,45,51,-111,210,116,85,-102,17,-93
-8,-120,-106,63,39,-117,210,92,61,-114,5,-99
-14,-114,-94,63,33,-105,204,74,55,-126,-1,-111
-8,-108,-94,57,33,-105,204,68,43,-138,-7,-117
-14,-114,-94,63,33,-105,198,68,37,-150,-7,-123
-26,-120,-88,69,21,-105,198,44,19,-156,-12,-129
-20,-114,-88,63,27,-105,192,26,8,-174,-18,-141
-20,-114,-88,63,27,-105,192,21,-10,-186,-24,-147
-14,-108,-88,57,27,-99,186,-3,-28,-198,-36,-147
-8,-102,-88,51,33,-99,186,-21,-52,-198,-36,-147
-20,-120,-94,69,27,-111,192,-15,-46,-198,-30,-141
-20,-120,-94,69,27,-111,192,-21,-46,-198,-30,-141
-20,-132,-106,75,33,-123,198,-15,-52,-204,-24,-135
-20,-132,-106,75,33,-123,204,-9,-52,-204,-24,-135
-14,-138,-118,75,45,-129,204,-9,-46,-210,-24,-135
-2,-132,-124,63,51,-129,198,-15,-52,-216,-24,-135
-8,-120,-106,63,39,-117,198,-15,-52,-216,-24,-135
-14,-114,-94,63,33,-105,198,-21,-58,-216,-30,-135
-8,-114,-100,57,39,-111,186,-39,-70,-216,-36,-141
4,-114,-112,51,51,-117,186,-39,-76,-216,-42,-141
-2,-120,-112,57,45,-117,186,-45,-88,-222,-54,-141
-2,-126,-118,63,51,-123,186,-51,-88,-222,-54,-141
-8,-120,-106,63,39,-117,192,-57,-82,-216,-48,-135
-8,-114,-100,57,39,-111,192,-39,-82,-216,-48,-135
-26,-126,-94,75,27,-111,198,-33,-76,-210,-42,-135
-14,-102,-82,57,27,-93,192,-21,-76,-216,-42,-135
-14,-102,-82,57,27,-93,192,-27,-76,-216,-36,-141
-14,-108,-88,57,27,-99,192,-33,-82,-222,-36,-141
-20,-114,-88,63,27,-105,186,-45,-94,-228,-42,-153
-8,-120,-106,63,39,-117,186,-51,-100,-228,-42,-153
-26,-126,-94,75,27,-111,186,-51,-88,-228,-42,-153
-32,-138,-100,81,27,-123,192,-51,-88,-222,-48,-153
-44,-150,-100,93,21,-129,192,-51,-82,-222,-54,-153
-44,-138,-88,87,15,-117,198,-45,-76,-222,-54,-153
-38,-132,-88,81,15,-111,204,-39,-70,-216,-48,-147
-32,-132,-94,81,21,-117,204,-39,-70,-216,-48,-147
-26,-126,-94,75,27,-111,210,-27,-70,-210,-48,-147
-32,-138,-100,81,27,-123,210,-27,-70,-210,-42,-147
-26,-132,-100,75,27,-117,204,-27,-70,-216,-42,-147
-26,-138,-106,81,33,-123,204,-27,-70,-216,-42,-147
-20,-132,-106,75,33,-123,210,-27,-70,-216,-42,-147
-14,-120,-100,63,33,-111,210,-21,-58,-216,-42,-141
-8,-120,-106,63,39,-117,210,-21,-52,-210,-30,-141
-14,-114,-94,63,33,-105,216,-15,-46,-204,-30,-135
-26,-120,-88,69,21,-105,216,-15,-46,-204,-24,-135
-32,-120,-82,75,15,-105,216,-9,-52,-204,-24,-135
-20,-108,-82,63,21,-99,216,-9,-52,-198,-18,-135
-8,-102,-88,51,33,-99,216,-9,-46,-192,-18,-135
4,-90,-88,39,39,-93,216,-9,-46,-186,-18,-135
15,-84,-100,27,51,-93,210,-9,-46,-186,-18,-135
10,-96,-100,39,45,-99,210,-3,-46,-186,-18,-129
-2,-108,-100,51,39,-105,210,-3,-40,-186,-18,-129
-14,-114,-94,63,33,-105,216,-3,-40,-186,-18,-123
-26,-126,-94,75,27,-111,216,-3,-40,-186,-18,-123
-20,-132,-106,75,33,-123,216,-3,-40,-186,-24,-123
-14,-108,-88,57,27,-99,216,-3,-40,-186,-24,-123
-8,-102,-88,51,33,-99,222,-3,-40,-192,-24,-129
-2,-102,-94,51,39,-99,222,-3,-40,-192,-24,-129
-2,-108,-100,51,39,-105,222,-3,-40,-192,-24,-129
-2,-108,-100,51,39,-105,222,-3,-40,-192,-24,-129
-14,-114,-94,63,33,-105,228,-15,-40,-192,-30,-129
-14,-108,-88,57,27,-99,228,-15,-40,-192,-30,-129
-8,-90,-76,45,27,-87,228,-15,-40,-186,-24,-123
-20,-102,-76,57,21,-93,222,-15,-40,-186,-24,-123
-26,-114,-82,69,21,-99,222,-9,-40,-180,-18,-117
-20,-114,-88,63,27,-105,222,-9,-46,-186,-18,-117
4,-102,-100,45,45,-105,216,-15,-52,-192,-24,-117
-8,-102,-88,51,33,-99,210,-15,-52,-192,-24,-117
4,-90,-88,39,39,-93,204,-27,-64,-198,-30,-123
10,-60,-64,21,27,-63,204,-27,-64,-198,-30,-123
15,-66,-76,21,39,-75,210,-21,-58,-192,-24,-111
15,-72,-82,27,39,-81,216,-21,-52,-186,-24,-111
10,-78,-82,33,39,-81,222,-15,-52,-186,-18,-111
4,-90,-88,39,39,-93,228,-15,-52,-180,-12,-111
-2,-96,-88,45,33,-93,222,-15,-52,-186,-18,-117
-2,-84,-76,39,27,-81,216,-15,-52,-186,-18,-117
4,-90,-88,39,39,-93,210,-15,-52,-186,-24,-123
10,-90,-94,39,45,-93,210,-15,-52,-186,-24,-123
4,-90,-88,39,39,-93,198,-27,-58,-192,-30,-123
4,-90,-88,39,39,-93,198,-39,-76,-198,-30,-123
-2,-90,-82,45,33,-87,204,-45,-88,-204,-30,-129
-8,-90,-76,45,27,-87,204,-45,-94,-204,-30,-129
-2,-90,-82,45,33,-87,210,-39,-88,-198,-30,-123
-2,-90,-82,45,33,-87,216,-39,-82,-198,-30,-123
-8,-90,-76,45,27,-87,228,-33,-82,-192,-30,-117
4,-90,-88,39,39,-93,234,-39,-76,-192,-30,-117
-2,-102,-94,51,39,-99,222,-45,-88,-198,-36,-123
-14,-108,-88,57,27,-99,222,-45,-88,-204,-36,-129
-20,-114,-88,63,27,-105,210,-57,-100,-210,-36,-135
-26,-108,-76,63,15,-93,210,-63,-106,-216,-48,-135
-26,-108,-76,63,15,-93,210,-69,-100,-216,-42,-141
-26,-120,-88,69,21,-105,210,-69,-106,-216,-42,-141
-2,-102,-94,51,39,-99,210,-69,-100,-216,-36,-135
-2,-102,-94,51,39,-99,210,-69,-100,-216,-36,-135
-20,-114,-88,63,27,-105,210,-69,-106,-222,-42,-147
-26,-120,-88,69,21,-105,210,-69,-106,-222,-48,-147
-32,-114,-76,69,15,-99,204,-69,-112,-228,-54,-147
-44,-132,-82,87,9,-111,204,-75,-118,-228,-60,-147
-44,-132,-82,87,9,-111,198,-87,-130,-240,-60,-147
-38,-132,-88,81,15,-111,198,-87,-130,-240,-66,-147
-38,-138,-94,87,21,-117,204,-93,-136,-240,-66,-141
-44,-138,-88,87,15,-117,204,-93,-136,-240,-66,-147
-32,-102,-64,63,9,-87,204,-99,-130,-240,-66,-141
-26,-108,-76,63,15,-93,210,-93,-136,-234,-60,-141
-14,-96,-76,51,21,-87,216,-81,-130,-228,-54,-135
-2,-78,-70,39,27,-75,222,-75,-130,-222,-42,-135
-2,-84,-76,39,27,-81,216,-87,-130,-222,-48,-135
-2,-96,-88,45,33,-93,216,-87,-136,-222,-48,-135
4,-102,-100,45,45,-105,210,-93,-136,-222,-54,-129
4,-102,-100,45,45,-105,210,-99,-136,-222,-54,-129
-8,-108,-94,57,33,-105,210,-105,-142,-234,-54,-135
-14,-114,-94,63,33,-105,210,-105,-142,-240,-54,-135
-26,-120,-88,69,21,-105,204,-105,-148,-246,-60,-147
-32,-126,-88,75,21,-111,204,-99,-148,-234,-60,-147
-26,-126,-94,75,27,-111,210,-99,-154,-240,-60,-147
-26,-120,-88,69,21,-105,210,-93,-154,-240,-60,-147
-20,-126,-100,69,33,-117,210,-99,-160,-246,-66,-153
-20,-114,-88,63,27,-105,216,-99,-160,-246,-66,-153
-14,-114,-94,63,33,-105,216,-105,-160,-246,-66,-153
-14,-114,-94,63,33,-105,216,-105,-160,-246,-66,-147
-14,-114,-94,63,33,-105,222,-111,-160,-246,-66,-147
-14,-120,-100,63,33,-111,222,-111,-160,-246,-66,-147
-38,-132,-88,81,15,-111,210,-123,-166,-258,-66,-147
-20,-132,-106,75,33,-123,204,-117,-166,-258,-66,-147
-56,-162,-100,105,15,-135,216,-105,-154,-240,-66,-147
-44,-138,-88,87,15,-117,204,-111,-166,-252,-78,-159
-2,-102,-94,51,39,-99,204,-123,-166,-264,-84,-153
-14,-108,-88,57,27,-99,210,-117,-160,-258,-78,-153
-20,-114,-88,63,27,-105,210,-117,-160,-258,-78,-153
-32,-120,-82,75,15,-105,216,-111,-154,-252,-72,-153
-38,-126,-82,81,15,-105,216,-111,-154,-252,-72,-153
-32,-102,-64,63,9,-87,234,-93,-142,-234,-66,-147
-26,-84,-52,51,9,-69,240,-87,-130,-222,-48,-135
-26,-78,-46,51,9,-63,252,-75,-124,-216,-42,-123
-20,-60,-34,39,9,-51,264,-63,-124,-216,-42,-117
-20,-54,-28,33,9,-45,264,-63,-124,-216,-48,-117
-32,-60,-22,45,-2,-45,264,-69,-130,-216,-48,-123
-32,-60,-22,45,-2,-45,264,-69,-130,-222,-54,-123
-32,-60,-22,45,-2,-45,264,-69,-130,-222,-54,-123
-32,-54,-16,39,-2,-39,264,-69,-136,-222,-54,-129
-38,-54,-10,45,-8,-33,270,-69,-130,-222,-54,-123
-44,-54,-5,45,-14,-33,270,-75,-136,-222,-54,-129
-50,-54,-5,51,-20,-27,276,-63,-124,-216,-48,-123
-50,-48,-5,45,-26,-21,276,-57,-118,-216,-42,-123
-44,-36,1,39,-26,-15,276,-57,-106,-210,-42,-123
-38,-36,-5,33,-20,-15,270,-57,-106,-210,-42,-117
-38,-30,1,33,-20,-9,270,-63,-100,-198,-30,-111
-14,11,19,-3,-20,8,276,-51,-94,-192,-18,-99
4,23,25,-15,-8,20,282,-57,-88,-186,-18,-93
15,47,31,-26,-2,38,282,-51,-88,-180,-7,-81
21,65,37,-44,-2,50,270,-51,-82,-174,-7,-75
21,59,31,-38,4,44,252,-81,-94,-180,-7,-81
33,65,25,-50,9,44,240,-93,-94,-180,-7,-75
39,71,25,-56,9,50,216,-99,-94,-174,-12,-63
51,65,7,-56,15,38,204,-111,-94,-174,-7,-57
69,71,-5,-68,33,32,186,-117,-100,-168,-7,-63
69,71,-5,-68,33,32,186,-111,-94,-162,-1,-57
81,65,-10,-74,45,20,180,-105,-94,-150,-1,-57
81,77,-5,-80,39,32,180,-105,-100,-150,-1,-57
69,59,-5,-62,39,20,186,-99,-94,-150,5,-57
63,41,-16,-50,39,8,186,-93,-88,-150,5,-57
57,41,-10,-50,33,8,192,-81,-82,-150,5,-57
75,41,-28,-56,51,2,180,-75,-76,-162,-7,-63
69,17,-46,-44,57,-9,174,-87,-88,-168,-7,-75
63,11,-52,-32,57,-15,168,-99,-94,-174,-7,-81
57,6,-58,-26,57,-27,162,-99,-100,-174,-7,-81
57,6,-58,-26,57,-27,162,-105,-106,-174,-7,-81
69,11,-64,-32,63,-27,150,-117,-124,-180,-7,-75
57,11,-52,-26,51,-21,150,-129,-130,-192,-12,-93
69,11,-58,-38,63,-21,144,-135,-142,-186,-12,-87
63,-6,-76,-20,69,-39,144,-135,-142,-210,-24,-93
33,-36,-76,-9,51,-57,150,-141,-154,-210,-30,-99
15,-48,-64,9,33,-57,162,-147,-160,-216,-42,-111
-20,-90,-64,51,15,-81,174,-153,-160,-216,-48,-117
-26,-114,-82,69,21,-99,174,-159,-178,-228,-66,-129
-20,-108,-82,63,21,-99,174,-165,-190,-246,-84,-153
-26,-120,-88,69,21,-105,174,-171,-208,-264,-96,-159
-26,-126,-94,75,27,-111,174,-177,-220,-282,-108,-171
-38,-144,-100,87,21,-123,174,-177,-220,-288,-120,-177
-44,-156,-106,99,21,-135,174,-177,-220,-288,-126,-183
-50,-162,-106,105,21,-135,174,-177,-220,-288,-126,-183
-56,-168,-106,111,15,-141,174,-177,-226,-294,-126,-183
-50,-162,-106,105,21,-135,174,-177,-226,-294,-126,-183
-50,-162,-106,105,21,-135,174,-177,-220,-288,-126,-189
-50,-168,-112,105,21,-141,168,-183,-220,-288,-126,-189
-50,-168,-112,105,21,-141,168,-183,-220,-282,-126,-195
-56,-168,-106,111,15,-141,168,-183,-220,-282,-126,-195
-74,-192,-112,129,9,-153,162,-189,-226,-294,-132,-201
-62,-180,-112,117,15,-147,162,-189,-226,-294,-138,-201
-68,-186,-112,123,15,-153,162,-189,-232,-300,-144,-201
-80,-198,-112,135,9,-159,162,-189,-226,-300,-144,-201
-62,-180,-112,117,15,-147,168,-183,-220,-294,-138,-195
-56,-162,-100,105,15,-135,174,-177,-220,-288,-132,-189
-50,-174,-118,111,27,-147,180,-171,-214,-282,-126,-183
-56,-168,-106,111,15,-141,186,-165,-220,-276,-120,-177
-44,-168,-118,105,27,-147,180,-165,-220,-276,-138,-183
-44,-168,-118,105,27,-147,180,-165,-220,-282,-138,-183
-32,-156,-118,93,33,-141,174,-165,-220,-282,-144,-183
-26,-150,-118,87,39,-135,180,-159,-220,-282,-144,-189
-44,-162,-112,99,27,-141,186,-159,-214,-282,-144,-195
-50,-168,-112,105,21,-141,186,-159,-214,-282,-144,-195
-62,-162,-94,111,9,-129,192,-159,-208,-282,-144,-201
-68,-168,-94,117,9,-135,192,-159,-208,-282,-138,-201
-74,-180,-100,123,9,-141,186,-165,-214,-282,-138,-195
-80,-180,-94,129,9,-141,186,-159,-214,-282,-138,-195
-74,-186,-106,129,9,-147,180,-165,-220,-276,-138,-189
-92,-192,-94,141,4,-147,186,-165,-214,-276,-138,-189
-110,-228,-118,171,9,-177,174,-165,-220,-288,-150,-213
-122,-228,-106,177,-2,-171,174,-153,-214,-288,-156,-225
-74,-180,-100,123,9,-141,180,-147,-214,-288,-156,-213
-68,-168,-94,117,9,-135,216,-123,-196,-276,-156,-201
-110,-180,-64,141,-20,-123,246,-81,-166,-276,-150,-213
-110,-168,-52,135,-26,-111,264,-27,-136,-288,-168,-231
-86,-162,-70,123,-2,-117,306,56,-88,-288,-180,-237
-86,-174,-82,129,4,-129,372,212,-4,-264,-180,-243
-44,-162,-112,99,27,-141,432,350,79,-228,-168,-243
-14,-162,-142,87,57,-153,498,530,205,-180,-144,-243
-56,-222,-160,135,45,-195,612,776,349,-120,-144,-261
-50,-252,-202,153,69,-231,726,1034,529,-42,-108,-261
33,-222,-256,87,147,-237,792,1226,697,89,-12,-207
93,-192,-286,39,189,-237,792,1256,805,245,131,-93
129,-102,-238,-15,183,-171,756,1136,859,407,305,56
219,89,-124,-152,171,-9,690,896,865,617,521,260
297,335,31,-314,129,188,576,482,799,839,791,512
327,557,229,-446,45,392,408,-105,625,1043,1079,794
429,749,319,-590,51,536,180,-681,433,1277,1403,1100
591,953,355,-770,117,656,-65,-1173,295,1553,1727,1388
669,1133,463,-902,99,794,-347,-1713,67,1733,1997,1652
681,1259,577,-974,45,920,-623,-2313,-244,1811,2176,1838
747,1385,631,-1064,57,1004,-923,-2870,-514,1931,2398,2048
765,1403,631,-1082,63,1016,-1109,-3170,-532,2212,2679,2281
675,1271,595,-974,33,938,-1133,-3080,-322,2475,2889,2401
645,1133,481,-890,75,806,-1145,-2894,-196,2511,2877,2359
639,965,319,-800,159,644,-1187,-2774,-238,2284,2637,2185
531,689,151,-608,189,422,-1139,-2624,-406,1829,2188,1832
411,425,7,-416,201,218,-1067,-2516,-706,1151,1571,1346
243,245,-5,-242,117,122,-1001,-2456,-1144,293,827,800
15,77,61,-44,-20,68,-923,-2349,-1582,-540,131,308
-104,-54,43,75,-74,-3,-851,-2169,-1804,-1032,-300,-3
-80,-102,-16,87,-26,-63,-761,-1851,-1630,-1026,-366,-135
-68,-132,-58,99,-2,-99,-611,-1485,-1282,-816,-312,-171
-80,-162,-76,117,4,-123,-437,-1149,-988,-666,-288,-207
-62,-168,-100,111,9,-135,-311,-855,-754,-546,-258,-219
-44,-168,-118,105,27,-147,-197,-633,-532,-408,-192,-195
-68,-180,-106,123,9,-147,-83,-459,-382,-318,-150,-177
-50,-156,-100,99,15,-129,-41,-387,-310,-276,-126,-153
10,-96,-100,39,45,-99,-17,-315,-232,-234,-90,-135
15,-66,-82,21,45,-75,60,-207,-130,-180,-60,-117
-14,-90,-70,51,21,-81,126,-105,-70,-156,-48,-117
4,-78,-76,33,33,-81,144,-69,-46,-156,-48,-135
-26,-90,-58,57,9,-75,162,-39,-28,-162,-54,-135
-26,-90,-58,57,9,-75,174,-9,-28,-156,-54,-135
-32,-102,-64,63,9,-87,186,3,-22,-156,-48,-129
-32,-114,-76,69,15,-99,210,26,-16,-150,-48,-129
-38,-120,-76,75,9,-99,210,32,-16,-150,-54,-129
-26,-120,-88,69,21,-105,222,50,19,-132,-48,-129
-32,-126,-88,75,21,-111,234,74,31,-132,-54,-135
-38,-150,-106,93,27,-129,240,86,55,-132,-60,-141
-44,-144,-94,93,15,-123,246,98,67,-132,-60,-147
-44,-132,-82,87,9,-111,246,104,67,-132,-72,-153
-44,-126,-76,81,9,-105,246,116,67,-126,-66,-159
-44,-120,-70,81,9,-99,228,122,55,-120,-60,-153
-38,-114,-70,75,9,-93,228,122,43,-126,-66,-153
-38,-120,-76,75,9,-99,228,122,43,-126,-60,-153
-32,-114,-76,69,15,-99,240,128,61,-120,-54,-141
-14,-108,-88,57,27,-99,252,140,85,-108,-48,-135
-8,-102,-88,51,33,-99,258,158,115,-90,-36,-135
-8,-102,-88,51,33,-99,258,170,133,-84,-36,-135
4,-90,-88,39,39,-93,252,182,151,-78,-36,-135
4,-90,-88,39,39,-93,240,188,151,-72,-36,-135
-8,-102,-88,51,33,-99,234,188,145,-72,-36,-135
-14,-90,-70,51,21,-81,234,194,145,-72,-36,-135
-14,-102,-82,57,27,-93,234,194,127,-60,-24,-117
-20,-108,-82,63,21,-99,234,206,139,-48,-18,-111
-26,-120,-88,69,21,-105,228,206,145,-36,-12,-111
-26,-126,-94,75,27,-111,222,212,163,-36,-7,-111
-32,-132,-94,81,21,-117,234,224,187,-24,-7,-105
-32,-132,-94,81,21,-117,228,230,205,-24,-7,-105
-2,-114,-106,57,45,-111,234,242,217,0,-1,-99
4,-84,-82,39,33,-87,240,260,235,6,5,-87
15,-84,-94,33,45,-93,234,266,241,23,17,-81
15,-72,-88,21,45,-81,234,278,253,23,29,-75
39,-48,-94,-3,63,-69,234,284,259,29,41,-57
39,-48,-94,-3,63,-69,234,302,265,47,53,-51
27,-42,-76,-3,51,-57,234,302,289,59,65,-51
45,-42,-94,-9,69,-69,240,314,301,71,71,-39
45,-42,-94,-9,69,-69,240,320,319,89,77,-39
45,-42,-94,-9,69,-69,240,332,337,101,83,-33
45,-36,-88,-15,63,-63,240,338,343,113,83,-39
45,-30,-82,-15,63,-57,240,350,361,119,89,-39
39,-36,-82,-9,57,-57,240,362,373,131,95,-33
39,-24,-70,-15,51,-45,228,362,391,137,101,-27
51,-30,-88,-15,69,-57,222,380,397,155,113,-15
51,-30,-88,-15,69,-57,216,398,409,173,131,-9
63,-24,-94,-15,75,-57,216,416,433,197,143,3
87,-12,-106,-32,93,-57,216,428,451,209,155,8
75,-6,-88,-26,81,-45,216,440,481,215,173,8
75,-12,-94,-26,81,-51,216,452,505,239,179,14
75,-6,-88,-26,81,-45,204,470,523,263,191,14
93,0,-100,-38,93,-51,204,488,547,269,203,26
69,-6,-82,-26,75,-45,198,500,565,287,203,26
81,-6,-94,-32,87,-51,192,512,571,299,215,32
93,6,-94,-44,93,-45,186,518,589,311,227,38
93,6,-94,-44,93,-45,186,524,613,335,233,50
99,11,-82,-56,93,-27,180,542,631,353,245,56
111,11,-94,-62,105,-33,180,554,649,371,257,68
123,23,-94,-74,111,-27,180,572,673,395,275,86
141,29,-106,-86,123,-33,180,590,703,413,293,92
141,41,-94,-92,117,-21,180,608,721,437,305,104
141,41,-94,-92,117,-21,168,620,733,449,305,104
129,41,-82,-86,105,-15,168,626,739,455,311,110
135,41,-88,-86,111,-15,150,632,745,467,323,110
159,65,-88,-110,123,-3,156,644,751,485,335,128
183,71,-106,-128,147,-9,150,656,775,491,347,140
183,71,-106,-128,147,-9,150,656,781,503,353,146
183,77,-100,-128,141,-3,150,662,781,509,359,146
177,77,-94,-128,135,-3,150,656,793,509,371,146
177,77,-94,-128,135,-3,144,656,799,509,371,146
183,89,-88,-134,135,2,144,668,805,515,377,152
183,89,-88,-134,135,2,144,674,799,521,365,152
171,89,-76,-128,123,2,144,668,799,521,359,152
171,89,-76,-128,123,2,138,668,793,515,353,146
165,83,-76,-122,123,2,132,662,775,503,347,140
159,71,-82,-116,123,2,132,656,763,491,335,134
141,65,-70,-104,105,2,120,644,751,479,323,122
135,59,-70,-98,105,2,120,638,745,467,311,116
129,47,-76,-86,105,-9,120,626,739,455,293,104
111,41,-64,-74,87,-3,120,620,727,443,293,98
105,53,-46,-80,75,2,120,608,715,431,281,86
93,29,-58,-62,75,-9,126,602,715,425,275,86
93,35,-52,-62,75,-3,126,596,703,413,257,74
93,35,-52,-62,75,-3,126,590,679,389,245,62
93,23,-64,-56,81,-15,126,578,661,365,233,62
81,23,-52,-50,69,-9,132,566,637,353,227,50
87,23,-58,-56,75,-9,138,560,619,347,215,50
93,23,-64,-56,81,-15,138,542,607,335,203,44
93,29,-58,-62,75,-9,150,530,595,317,197,44
93,11,-82,-50,87,-33,156,524,577,305,185,38
87,11,-76,-44,81,-27,162,512,559,281,179,32
69,11,-64,-32,63,-27,168,500,541,275,167,20
45,11,-34,-26,39,-9,180,488,517,251,161,14
39,11,-28,-20,33,-3,180,464,499,233,149,8
33,11,-28,-15,27,-9,180,434,463,209,131,8
21,-6,-34,-15,27,-21,180,410,433,185,101,-3
15,-12,-28,-9,15,-21,174,374,403,155,77,-21
15,-18,-34,-3,21,-27,174,350,367,131,71,-27
15,-18,-34,-3,21,-27,180,326,343,119,65,-27
15,-12,-28,-9,15,-21,180,302,325,107,59,-27
15,-12,-34,-9,21,-21,174,266,301,95,41,-39
15,-12,-28,-9,15,-21,168,254,271,77,35,-45
-2,-24,-16,9,9,-21,174,230,241,53,17,-51
-8,-24,-10,15,4,-21,174,206,211,35,5,-57
-8,-36,-22,21,9,-33,180,170,175,23,-7,-63
-14,-48,-28,27,9,-39,180,152,139,6,-7,-69
-14,-48,-28,27,9,-39,174,122,115,-18,-18,-75
-26,-48,-16,33,-2,-33,174,92,79,-30,-30,-87
-26,-66,-34,45,9,-51,174,68,61,-54,-42,-93
-44,-84,-34,63,-2,-63,174,44,37,-66,-54,-99
-50,-66,-10,57,-14,-39,174,26,19,-78,-54,-105
-38,-54,-10,45,-8,-33,174,26,19,-90,-60,-105
-44,-48,-5,45,-20,-27,174,21,2,-102,-66,-105
-50,-48,-5,45,-26,-21,174,-3,-22,-108,-72,-105
-50,-54,-5,51,-20,-27,174,-15,-34,-120,-78,-111
-56,-66,-5,57,-20,-39,174,-21,-46,-132,-84,-117
-56,-72,-10,63,-20,-45,174,-33,-58,-138,-96,-111
-56,-78,-16,63,-14,-51,174,-45,-76,-138,-96,-111
-56,-78,-16,63,-14,-51,168,-57,-82,-144,-102,-117
-50,-72,-16,57,-14,-45,156,-69,-88,-150,-102,-117
-38,-66,-22,51,-2,-45,150,-81,-106,-162,-108,-123
-32,-60,-22,45,-2,-45,144,-81,-112,-168,-108,-123
-44,-72,-22,57,-8,-51,150,-87,-112,-174,-114,-123
-38,-72,-28,51,-2,-51,144,-93,-118,-180,-114,-123
-62,-66,-5,63,-26,-33,150,-99,-124,-180,-120,-123
-74,-66,1,69,-38,-27,150,-105,-130,-180,-126,-123
-80,-72,1,75,-44,-33,144,-117,-130,-186,-120,-129
-68,-78,-5,69,-26,-45,144,-117,-136,-186,-126,-129
-86,-90,-5,87,-38,-45,150,-117,-136,-192,-126,-129
-86,-102,-10,93,-32,-57,150,-123,-136,-192,-126,-129
-74,-90,-10,81,-26,-51,144,-135,-142,-192,-132,-129
-68,-78,-5,69,-26,-45,144,-123,-142,-186,-132,-129
-68,-84,-10,75,-26,-51,138,-123,-148,-186,-138,-135
-50,-54,-5,51,-20,-27,132,-117,-148,-192,-138,-135
-50,-54,-5,51,-20,-27,138,-117,-142,-186,-126,-129
-56,-60,-5,57,-26,-33,144,-117,-142,-192,-126,-129
-62,-66,-5,63,-26,-33,144,-123,-148,-186,-126,-129
-56,-72,-10,63,-20,-45,150,-123,-148,-186,-126,-129
-74,-84,-5,75,-32,-45,150,-129,-148,-186,-126,-135
-80,-96,-10,87,-32,-57,150,-129,-148,-180,-132,-135
-92,-114,-16,99,-32,-69,150,-135,-154,-180,-138,-141
-92,-102,-5,93,-38,-57,150,-129,-148,-180,-138,-141
-80,-90,-5,81,-32,-51,144,-129,-142,-180,-132,-129
-68,-84,-10,75,-26,-51,138,-129,-142,-180,-132,-129
-56,-72,-10,63,-20,-45,132,-123,-142,-186,-132,-123
-56,-78,-16,63,-14,-51,126,-123,-142,-186,-126,-123
-62,-78,-10,69,-20,-45,126,-117,-136,-180,-120,-117
-62,-84,-16,69,-20,-51,138,-117,-136,-174,-120,-117
-68,-84,-10,75,-26,-51,150,-111,-130,-162,-114,-111
-62,-72,-5,63,-26,-39,162,-105,-118,-156,-114,-105
-50,-66,-10,57,-14,-39,156,-105,-118,-156,-114,-111
-50,-60,-5,51,-20,-33,156,-99,-112,-150,-114,-105
-56,-60,-5,57,-26,-33,150,-99,-118,-156,-120,-111
-56,-60,-5,57,-26,-33,144,-93,-124,-156,-120,-111
-62,-72,-5,63,-26,-39,150,-93,-124,-162,-114,-111
-68,-78,-5,69,-26,-45,150,-93,-118,-156,-114,-111
-74,-90,-10,81,-26,-51,156,-93,-118,-162,-114,-111
-74,-96,-16,81,-26,-57,150,-93,-118,-162,-114,-111
-74,-90,-10,81,-26,-51,144,-93,-112,-162,-120,-117
-74,-90,-10,81,-26,-51,144,-93,-106,-162,-120,-117
-74,-78,-5,75,-32,-39,144,-99,-100,-162,-126,-123
-74,-78,-5,75,-32,-39,144,-99,-100,-162,-126,-123
-62,-84,-16,69,-20,-51,144,-93,-100,-150,-120,-111
-56,-60,-5,57,-26,-33,144,-93,-100,-150,-120,-111
-44,-54,-5,45,-14,-33,150,-87,-100,-144,-108,-105
-38,-54,-10,45,-8,-33,150,-87,-100,-144,-108,-105
-32,-48,-10,39,-8,-33,150,-75,-94,-138,-108,-99
-32,-48,-10,39,-8,-33,150,-75,-88,-138,-108,-99
-38,-42,-5,39,-14,-21,156,-75,-82,-132,-114,-93
-38,-36,-5,33,-20,-15,156,-75,-76,-132,-114,-93
-32,-24,1,27,-20,-9,150,-87,-82,-138,-120,-99
-50,-42,1,45,-26,-15,144,-87,-88,-138,-120,-105
-56,-60,-5,57,-26,-33,138,-93,-94,-144,-126,-111
-56,-66,-5,57,-20,-39,138,-93,-106,-150,-126,-117
-50,-72,-16,57,-14,-45,138,-99,-106,-156,-126,-117
-68,-84,-10,75,-26,-51,132,-99,-106,-156,-126,-117
-74,-90,-10,81,-26,-51,132,-111,-112,-162,-126,-123
-74,-72,-5,69,-38,-33,132,-111,-112,-162,-126,-123
-62,-66,-5,63,-26,-33,132,-105,-106,-156,-126,-111
-62,-66,-5,63,-26,-33,138,-105,-106,-150,-132,-111
-62,-60,-5,57,-32,-27,138,-99,-106,-150,-132,-111
-68,-66,-5,63,-32,-33,144,-99,-112,-144,-132,-111
-62,-66,-5,63,-26,-33,138,-105,-118,-150,-132,-111
-56,-54,-5,51,-26,-27,126,-105,-118,-150,-132,-111
-38,-54,-10,45,-8,-33,120,-111,-124,-150,-132,-111
-26,-54,-22,39,4,-39,114,-111,-124,-150,-132,-111
-32,-54,-16,39,-2,-39,108,-111,-118,-150,-138,-105
-32,-54,-16,39,-2,-39,114,-123,-124,-156,-138,-105
-38,-54,-10,45,-8,-33,126,-117,-124,-156,-138,-105
-44,-54,-5,45,-14,-33,132,-117,-118,-156,-138,-105
-50,-60,-5,51,-20,-33,126,-123,-124,-156,-144,-111
-56,-66,-5,57,-20,-39,120,-123,-124,-162,-144,-111
-74,-72,-5,69,-38,-33,120,-129,-136,-162,-150,-117
-68,-78,-5,69,-26,-45,114,-135,-136,-168,-150,-117
-62,-78,-10,69,-20,-45,108,-135,-148,-168,-150,-117
-62,-84,-16,69,-20,-51,108,-135,-148,-174,-150,-123
-56,-78,-16,63,-14,-51,102,-141,-160,-174,-144,-123
-50,-72,-16,57,-14,-45,102,-147,-166,-180,-156,-123
-56,-66,-5,57,-20,-39,108,-147,-160,-180,-156,-129
-56,-78,-16,63,-14,-51,108,-147,-166,-180,-156,-129
-38,-54,-10,45,-8,-33,114,-141,-160,-168,-156,-123
-38,-54,-10,45,-8,-33,114,-141,-160,-168,-156,-123
-44,-60,-10,51,-14,-39,114,-147,-160,-180,-162,-129
-44,-60,-10,51,-14,-39,114,-147,-160,-180,-162,-129
-38,-48,-5,39,-14,-27,108,-153,-160,-186,-168,-123
-44,-60,-10,51,-14,-39,108,-159,-166,-186,-168,-123
-44,-54,-5,45,-14,-33,102,-165,-172,-192,-168,-129
-38,-54,-10,45,-8,-33,102,-165,-172,-192,-174,-129
-38,-54,-10,45,-8,-33,108,-165,-172,-186,-174,-129
-44,-54,-5,45,-14,-33,108,-165,-172,-186,-174,-135
-50,-36,7,39,-32,-9,102,-171,-172,-192,-174,-129
-56,-60,-5,57,-26,-33,102,-171,-178,-192,-174,-129
-62,-66,-5,63,-26,-33,102,-159,-178,-192,-168,-123
-62,-66,-5,63,-26,-33,102,-159,-178,-192,-162,-123
-68,-72,-5,69,-32,-39,96,-171,-184,-198,-168,-129
-68,-84,-10,75,-26,-51,90,-171,-190,-198,-168,-135
-68,-90,-16,75,-20,-57,84,-177,-196,-204,-174,-135
-68,-90,-16,75,-20,-57,78,-183,-196,-204,-174,-141
-62,-84,-16,69,-20,-51,84,-183,-196,-204,-180,-135
-62,-78,-10,69,-20,-45,84,-183,-196,-210,-180,-135
-56,-72,-10,63,-20,-45,84,-177,-196,-204,-192,-135
-56,-66,-5,57,-20,-39,84,-171,-196,-192,-192,-135
-56,-72,-10,63,-20,-45,84,-171,-196,-198,-186,-135
-56,-72,-10,63,-20,-45,84,-171,-196,-198,-186,-135
-56,-84,-22,69,-14,-57,78,-177,-196,-204,-186,-141
-56,-78,-16,63,-14,-51,84,-183,-196,-204,-186,-141
-44,-72,-22,57,-8,-51,84,-183,-202,-204,-180,-141
-44,-72,-22,57,-8,-51,84,-183,-202,-204,-180,-135
-38,-66,-22,51,-2,-45,90,-183,-208,-204,-174,-135
-38,-72,-28,51,-2,-51,90,-183,-208,-204,-174,-135
-44,-78,-28,57,-2,-57,84,-183,-202,-204,-180,-135
-56,-84,-22,69,-14,-57,90,-177,-202,-204,-180,-135
-74,-84,-5,75,-32,-45,96,-177,-202,-198,-186,-135
-68,-90,-16,75,-20,-57,96,-171,-214,-198,-186,-135
-68,-108,-34,87,-14,-75,84,-171,-202,-210,-204,-147
-14,-66,-46,39,9,-57,84,-171,-202,-210,-192,-129
-26,-66,-34,45,9,-51,84,-171,-202,-210,-192,-129
-32,-66,-28,45,4,-51,84,-171,-202,-210,-192,-129
-44,-66,-16,51,-8,-45,84,-171,-202,-210,-192,-129
-50,-66,-10,57,-14,-39,84,-171,-202,-210,-192,-129
-56,-54,-5,51,-26,-27,102,-159,-190,-198,-192,-129
-56,-36,13,45,-38,-9,108,-159,-178,-186,-180,-123
-68,-42,19,51,-44,-9,120,-153,-172,-186,-180,-117
-68,-24,37,45,-56,2,132,-147,-172,-186,-186,-117
-68,-30,31,45,-50,2,132,-141,-172,-186,-186,-123
-80,-36,37,57,-62,2,126,-147,-178,-186,-186,-129
-80,-48,25,63,-56,-9,126,-141,-178,-192,-186,-135
-80,-48,25,63,-56,-9,120,-141,-178,-192,-186,-135
-68,-24,37,45,-56,2,126,-129,-172,-186,-180,-129
-68,-18,43,39,-56,2,132,-129,-166,-186,-174,-123
-62,0,55,27,-62,20,138,-123,-160,-180,-168,-117
-62,6,61,27,-62,26,150,-111,-148,-168,-156,-111
-44,17,67,3,-56,38,162,-99,-142,-156,-150,-99
-26,35,67,-15,-44,50,162,-93,-130,-150,-150,-99
-2,53,61,-20,-32,56,162,-87,-130,-138,-150,-81
10,65,61,-32,-26,62,162,-87,-124,-126,-138,-75
4,77,79,-32,-38,74,156,-93,-124,-132,-138,-75
4,83,85,-38,-38,80,150,-105,-124,-132,-138,-75
-8,77,91,-26,-50,80,132,-117,-130,-138,-138,-75
-14,77,97,-26,-56,86,108,-123,-130,-138,-138,-75
-8,71,85,-26,-44,74,90,-141,-136,-132,-126,-75
10,83,79,-38,-32,80,84,-147,-136,-132,-126,-69
15,89,73,-50,-26,80,66,-141,-130,-114,-120,-51
27,89,55,-56,-8,74,60,-147,-130,-114,-108,-45
39,89,43,-62,4,68,48,-147,-136,-114,-114,-51
39,83,37,-62,9,62,48,-141,-124,-108,-102,-45
45,71,19,-56,9,44,48,-129,-124,-102,-108,-45
45,77,25,-62,9,50,48,-129,-124,-102,-108,-45
45,71,19,-56,9,44,48,-123,-118,-96,-96,-39
45,65,13,-56,9,38,48,-123,-118,-96,-96,-39
51,77,19,-62,9,50,48,-111,-112,-90,-90,-33
75,89,7,-80,27,50,36,-111,-112,-102,-102,-39
75,59,-10,-68,45,20,30,-129,-124,-108,-102,-45
69,47,-16,-56,45,8,30,-141,-130,-114,-114,-51
69,29,-34,-50,51,2,30,-147,-136,-114,-114,-45
69,29,-34,-50,51,2,30,-153,-142,-114,-114,-45
63,17,-40,-38,51,-3,19,-165,-166,-132,-126,-51
39,11,-28,-20,33,-3,19,-177,-172,-144,-132,-75
33,6,-34,-15,33,-15,13,-183,-190,-150,-144,-81
15,-30,-52,-3,33,-39,13,-183,-190,-174,-156,-93
10,-42,-46,15,21,-45,13,-189,-202,-174,-168,-99
-14,-42,-22,27,9,-33,25,-195,-208,-186,-180,-111
-44,-66,-16,51,-8,-45,30,-201,-208,-186,-192,-117
-50,-78,-22,63,-8,-51,30,-207,-220,-198,-210,-129
-50,-78,-22,63,-8,-51,30,-207,-226,-210,-222,-147
-56,-90,-28,69,-8,-63,30,-213,-244,-216,-228,-153
-62,-102,-34,81,-8,-69,30,-213,-250,-228,-234,-159
-74,-120,-40,93,-14,-81,30,-213,-250,-228,-240,-165
-68,-120,-46,93,-8,-87,30,-207,-244,-228,-240,-171
-74,-120,-40,93,-14,-81,30,-207,-244,-228,-240,-171
-68,-114,-40,87,-8,-81,30,-201,-250,-234,-234,-171
-62,-102,-34,81,-8,-69,30,-201,-250,-234,-234,-171
-56,-108,-46,81,-2,-81,30,-207,-250,-234,-240,-171
-56,-114,-52,81,4,-87,30,-213,-250,-234,-240,-171
-50,-120,-64,81,9,-93,30,-213,-256,-234,-246,-171
-56,-120,-58,87,4,-93,30,-213,-256,-234,-246,-171
-74,-144,-64,105,-2,-105,30,-213,-256,-240,-246,-183
-68,-132,-58,99,-2,-99,30,-213,-256,-240,-252,-183
-74,-138,-58,105,-2,-99,30,-213,-256,-240,-258,-189
-92,-150,-52,117,-14,-105,30,-213,-250,-240,-258,-189
-86,-144,-52,111,-14,-99,30,-213,-250,-240,-252,-189
-86,-138,-46,111,-14,-93,30,-213,-250,-240,-252,-189
-92,-162,-64,123,-8,-117,30,-213,-250,-240,-246,-189
-104,-168,-58,135,-20,-117,30,-213,-262,-240,-246,-189
-98,-174,-70,135,-8,-123,30,-213,-262,-240,-258,-195
-98,-174,-70,135,-8,-123,30,-213,-256,-246,-258,-195
-92,-168,-70,129,-8,-123,30,-213,-256,-246,-258,-195
-86,-162,-70,123,-2,-117,30,-207,-250,-246,-258,-201
-86,-156,-64,117,-8,-111,30,-201,-250,-240,-258,-195
-86,-156,-64,117,-8,-111,30,-201,-250,-240,-258,-189
-80,-132,-46,105,-14,-93,30,-195,-250,-234,-258,-183
-80,-132,-46,105,-14,-93,30,-195,-250,-234,-252,-177
-98,-156,-52,123,-20,-105,30,-201,-256,-240,-258,-189
-110,-174,-58,141,-20,-117,30,-201,-256,-246,-264,-195
-116,-192,-70,153,-20,-135,25,-207,-262,-246,-270,-207
-140,-216,-70,177,-32,-147,30,-213,-256,-252,-276,-213
-134,-210,-70,171,-26,-141,30,-201,-256,-240,-264,-213
-110,-186,-70,147,-14,-129,30,-189,-244,-240,-270,-201
-62,-132,-64,93,4,-99,36,-183,-244,-240,-270,-189
-80,-132,-46,105,-14,-93,60,-159,-226,-228,-270,-189
-98,-120,-16,105,-38,-69,90,-117,-202,-228,-264,-189
-74,-72,-5,69,-38,-33,120,-51,-172,-240,-270,-207
-86,-90,-5,87,-38,-45,168,44,-124,-228,-294,-219
-122,-150,-22,135,-44,-87,234,188,-52,-216,-306,-243
-68,-138,-64,99,4,-105,288,338,31,-186,-294,-255
-38,-138,-94,87,21,-117,366,518,157,-132,-282,-255
-56,-198,-136,123,33,-171,486,776,313,-72,-270,-261
-26,-222,-190,123,75,-207,582,1034,487,-6,-228,-249
57,-198,-256,63,159,-231,618,1202,613,101,-144,-207
117,-180,-298,21,207,-237,606,1178,691,245,-12,-105
141,-78,-226,-26,183,-153,588,1016,733,395,143,44
231,113,-112,-170,171,2,546,812,769,617,371,242
309,335,19,-320,141,182,450,422,745,875,677,512
363,569,205,-470,75,386,276,-201,565,1115,983,806
507,797,283,-656,111,542,36,-831,385,1361,1319,1100
687,1007,319,-848,183,668,-227,-1419,229,1625,1661,1424
759,1181,415,-974,171,794,-509,-2019,-16,1805,1943,1700
771,1271,493,-1022,135,884,-785,-2660,-388,1847,2116,1874
831,1325,487,-1076,171,908,-1097,-3278,-712,1931,2290,2059
825,1295,469,-1058,177,884,-1271,-3536,-718,2188,2565,2269
723,1193,469,-956,123,830,-1283,-3386,-484,2463,2781,2401
693,1097,403,-896,141,746,-1319,-3194,-358,2499,2781,2383
687,929,235,-806,225,584,-1355,-3068,-430,2236,2517,2185
567,641,67,-602,249,356,-1313,-2924,-616,1733,2033,1808
423,389,-28,-404,231,176,-1253,-2810,-916,1067,1409,1322
255,221,-28,-236,141,92,-1211,-2702,-1258,329,743,836
57,65,1,-62,21,32,-1121,-2534,-1594,-402,107,392
-44,-30,7,33,-26,-9,-1037,-2319,-1780,-894,-312,68
-32,-90,-52,57,9,-75,-959,-2025,-1630,-924,-426,-51
-56,-132,-70,93,9,-105,-809,-1629,-1294,-732,-384,-99
-104,-162,-52,129,-20,-111,-623,-1227,-988,-594,-372,-147
-86,-144,-52,111,-14,-99,-485,-903,-742,-462,-330,-159
-80,-132,-46,105,-14,-93,-347,-645,-532,-324,-270,-147
-116,-132,-10,123,-50,-75,-221,-441,-370,-234,-222,-129
-86,-96,-5,87,-38,-51,-173,-351,-286,-198,-198,-117
-62,-84,-16,69,-20,-51,-125,-291,-220,-156,-174,-111
-74,-114,-34,93,-14,-75,-47,-207,-130,-120,-156,-105
-74,-114,-34,93,-14,-75,-5,-141,-82,-108,-156,-105
-56,-102,-40,75,-2,-75,13,-105,-58,-108,-168,-123
-86,-108,-16,93,-32,-63,25,-63,-40,-114,-180,-123
-92,-108,-10,99,-38,-63,30,-33,-40,-108,-180,-123
-98,-114,-10,105,-38,-63,30,-9,-34,-108,-180,-117
-104,-126,-16,111,-38,-75,54,15,-28,-102,-180,-117
-104,-120,-10,111,-44,-69,72,38,-22,-96,-180,-123
-92,-114,-16,99,-32,-69,90,68,14,-78,-168,-123
-92,-108,-10,99,-38,-63,120,110,31,-72,-168,-135
-98,-126,-22,111,-32,-75,132,134,55,-72,-168,-141
-110,-126,-10,117,-44,-69,120,122,61,-78,-180,-141
-110,-126,-10,117,-44,-69,114,116,55,-84,-192,-147
-116,-126,-5,117,-50,-69,96,104,49,-84,-198,-147
