,,,,,,,,,,,
2019-09-01 15:35:23,,,,,,,,,,,
,,,,,,,,,,,
I,II,III,aVR,aVL,aVF,V1,V2,V3,V4,V5,V6
-56,-47,2,55,-30,-24,87,-23,-44,-129,-64,-8
-56,-47,2,55,-30,-24,87,-23,-44,-129,-64,-8
-56,-47,2,55,-30,-24,87,-23,-44,-129,-64,-8
-56,-47,2,55,-30,-24,87,-23,-44,-129,-64,-8
-56,-47,2,55,-30,-24,87,-29,-44,-129,-70,-14
-56,-47,2,55,-30,-24,87,-29,-44,-129,-70,-14
-56,-47,2,55,-30,-24,87,-35,-44,-129,-76,-20
-56,-47,2,55,-30,-24,87,-35,-44,-129,-76,-20
-50,-42,8,49,-30,-12,87,-29,-44,-129,-76,-20
-50,-42,14,43,-30,-6,87,-29,-44,-129,-76,-20
-44,-30,20,37,-30,0,87,-23,-44,-129,-76,-20
-44,-24,26,31,-36,6,87,-23,-44,-129,-76,-20
-44,-36,14,37,-30,-6,87,-17,-44,-129,-76,-20
-44,-42,8,43,-24,-12,87,-17,-44,-129,-76,-20
-44,-42,-4,49,-24,-24,87,-11,-44,-129,-76,-20
-44,-47,-10,49,-18,-30,87,-11,-44,-129,-76,-20
-38,-42,-10,43,-18,-24,81,-11,-38,-129,-82,-20
-32,-42,-10,37,-12,-24,81,-11,-38,-129,-82,-20
-26,-42,-10,31,-6,-18,75,-11,-32,-129,-88,-20
-20,-36,-10,25,-6,-18,75,-11,-32,-129,-88,-20
-14,-42,-22,25,6,-24,69,-11,-32,-129,-82,-20
-14,-42,-22,25,6,-24,63,-11,-32,-129,-82,-20
-8,-42,-34,25,12,-36,57,-11,-32,-129,-76,-20
-8,-42,-34,25,12,-36,51,-11,-32,-129,-76,-20
-2,-42,-34,19,18,-30,45,-11,-32,-129,-82,-26
4,-42,-40,19,24,-36,45,-11,-32,-129,-82,-26
10,-36,-40,13,24,-30,39,-11,-32,-129,-88,-32
16,-36,-46,7,30,-36,39,-11,-32,-129,-88,-32
22,-36,-52,7,36,-36,45,-5,-26,-123,-82,-26
22,-36,-52,7,36,-36,45,-5,-26,-123,-82,-26
28,-36,-58,1,42,-42,51,1,-20,-117,-76,-20
28,-36,-58,1,42,-42,51,1,-20,-117,-76,-20
34,-30,-58,-5,48,-36,45,7,-20,-117,-76,-20
34,-30,-58,-5,48,-36,45,7,-20,-117,-76,-20
40,-24,-58,-11,48,-36,39,13,-20,-117,-76,-20
40,-24,-58,-11,48,-36,39,13,-20,-117,-76,-20
34,-30,-58,-5,48,-36,45,13,-14,-111,-70,-20
34,-30,-58,-5,48,-36,45,13,-8,-111,-70,-20
28,-36,-58,1,42,-42,51,13,-2,-105,-64,-20
28,-36,-58,1,42,-42,51,13,4,-105,-64,-20
34,-24,-52,-5,42,-30,45,7,-2,-111,-70,-26
34,-12,-40,-11,36,-18,39,7,-8,-111,-70,-26
40,0,-34,-23,36,-12,33,1,-14,-117,-76,-32
40,12,-22,-29,30,0,33,1,-20,-117,-76,-32
40,0,-34,-23,36,-12,33,1,-20,-111,-76,-26
40,-6,-40,-17,42,-18,33,1,-20,-111,-76,-26
40,-18,-52,-11,48,-30,33,1,-20,-105,-76,-20
40,-24,-58,-11,48,-36,33,1,-20,-105,-76,-20
34,-24,-52,-5,42,-30,33,-5,-20,-111,-82,-20
34,-24,-52,-5,42,-30,33,-5,-20,-117,-82,-20
28,-24,-46,-5,36,-30,33,-11,-20,-123,-88,-20
28,-24,-46,-5,36,-30,33,-11,-20,-129,-88,-20
34,-24,-52,-5,42,-30,33,-11,-20,-123,-88,-20
40,-24,-58,-11,48,-36,33,-11,-20,-123,-88,-20
46,-24,-64,-11,54,-36,39,-11,-20,-117,-88,-20
52,-24,-70,-17,60,-42,39,-11,-20,-117,-88,-20
52,-24,-70,-17,60,-42,33,-17,-26,-123,-88,-20
52,-24,-70,-17,60,-42,33,-17,-26,-123,-88,-20
52,-24,-70,-17,60,-42,33,-23,-32,-129,-88,-20
52,-24,-70,-17,60,-42,28,-23,-32,-129,-88,-20
46,-18,-58,-17,54,-30,28,-29,-38,-135,-94,-26
46,-18,-58,-17,54,-30,28,-35,-38,-141,-100,-32
40,-12,-46,-17,42,-24,28,-41,-44,-147,-106,-38
40,-12,-46,-17,42,-24,28,-47,-44,-153,-112,-44
46,-18,-58,-17,54,-30,22,-41,-44,-153,-112,-38
46,-18,-58,-17,54,-30,22,-41,-44,-153,-112,-38
52,-24,-70,-17,60,-42,16,-35,-44,-153,-112,-32
52,-24,-70,-17,60,-42,16,-35,-44,-153,-112,-32
46,-24,-64,-11,54,-36,16,-41,-50,-153,-112,-32
46,-24,-64,-11,54,-36,16,-41,-50,-153,-112,-32
40,-24,-58,-11,48,-36,16,-47,-56,-153,-112,-32
40,-24,-58,-11,48,-36,16,-47,-56,-153,-112,-32
46,-24,-64,-11,54,-36,16,-47,-62,-153,-112,-38
46,-24,-64,-11,54,-36,16,-47,-62,-153,-112,-38
52,-24,-70,-17,60,-42,16,-47,-68,-153,-112,-44
52,-24,-70,-17,60,-42,16,-47,-68,-153,-112,-44
46,-24,-64,-11,54,-36,16,-47,-68,-159,-118,-44
46,-24,-64,-11,54,-36,16,-47,-68,-159,-118,-44
40,-24,-58,-11,48,-36,16,-47,-68,-165,-124,-44
40,-24,-58,-11,48,-36,16,-47,-68,-165,-124,-44
46,-24,-64,-11,54,-36,10,-53,-68,-171,-130,-50
46,-24,-64,-11,54,-36,10,-59,-68,-171,-130,-50
52,-24,-70,-17,60,-42,4,-65,-68,-171,-136,-56
52,-24,-70,-17,60,-42,4,-71,-68,-171,-136,-56
46,-36,-76,-5,60,-48,10,-71,-74,-171,-130,-50
46,-42,-82,-5,66,-54,10,-71,-74,-171,-130,-50
40,-42,-82,1,60,-60,16,-65,-74,-171,-124,-44
34,-42,-76,7,54,-54,16,-65,-74,-171,-130,-44
34,-36,-64,1,48,-42,4,-71,-80,-177,-136,-50
40,-30,-64,-5,54,-42,-2,-71,-80,-177,-136,-50
40,-42,-76,1,60,-54,4,-71,-80,-177,-142,-50
40,-36,-70,-5,54,-48,-2,-71,-80,-177,-142,-50
46,-30,-70,-11,60,-42,-2,-83,-86,-183,-142,-56
46,-30,-70,-11,60,-42,-2,-83,-86,-183,-142,-62
52,-30,-76,-11,66,-48,4,-83,-92,-189,-136,-62
52,-30,-76,-11,66,-48,4,-83,-92,-189,-136,-62
46,-24,-64,-11,54,-36,-8,-83,-98,-189,-148,-68
46,-24,-64,-11,54,-36,-14,-83,-98,-189,-148,-68
52,-30,-76,-11,66,-48,-20,-89,-104,-189,-154,-74
52,-30,-76,-11,66,-48,-20,-89,-104,-177,-154,-68
58,-30,-82,-17,72,-48,-20,-83,-98,-183,-142,-62
58,-24,-76,-17,66,-42,-20,-83,-92,-183,-142,-62
58,-30,-82,-17,72,-48,-26,-83,-86,-189,-136,-56
58,-36,-88,-11,72,-54,-26,-83,-86,-189,-136,-56
58,-18,-70,-23,66,-36,-26,-83,-86,-183,-130,-56
58,-24,-76,-17,66,-42,-26,-83,-92,-183,-130,-62
58,-24,-76,-17,66,-42,-8,-83,-86,-171,-118,-68
70,-18,-88,-29,84,-48,10,-71,-86,-165,-118,-68
70,0,-70,-41,72,-30,22,-59,-80,-159,-118,-56
70,6,-64,-41,72,-24,16,-47,-68,-153,-118,-50
88,30,-58,-65,78,-6,16,-53,-62,-159,-106,-44
88,36,-52,-65,72,0,22,-47,-50,-153,-112,-38
82,36,-46,-65,66,0,33,-47,-32,-141,-100,-26
82,42,-40,-65,66,6,33,-41,-32,-135,-94,-26
82,54,-28,-71,60,18,45,-29,-20,-135,-94,-20
82,60,-22,-77,54,24,51,-29,-20,-135,-100,-14
82,66,-16,-77,54,30,57,-23,-20,-129,-94,-14
82,72,-10,-83,48,36,57,-23,-20,-129,-88,-14
76,78,2,-83,42,41,57,-17,-26,-123,-82,-14
70,78,8,-77,36,41,57,-23,-26,-123,-76,-14
70,72,8,-71,30,41,45,-17,-20,-117,-82,-20
64,72,14,-71,24,41,39,-29,-20,-123,-82,-20
70,66,2,-71,36,41,33,-23,-14,-117,-88,-26
70,66,2,-71,36,41,33,-23,-20,-111,-82,-20
70,72,8,-71,30,41,33,-17,-14,-105,-76,-14
82,72,-10,-83,48,36,33,-23,-14,-105,-70,-8
88,72,-16,-83,54,36,33,-23,-8,-105,-64,-2
88,78,-10,-89,54,41,22,-29,-14,-105,-64,-2
100,102,2,-107,54,47,-2,-41,-20,-111,-64,-2
106,114,8,-113,54,53,-20,-47,-26,-117,-70,4
112,126,14,-125,54,65,-32,-53,-32,-123,-76,4
112,120,8,-119,54,59,-38,-65,-38,-129,-82,4
118,102,-16,-113,72,41,-50,-71,-44,-129,-76,4
124,96,-28,-113,78,41,-68,-77,-50,-135,-82,4
130,78,-52,-107,90,18,-86,-89,-50,-135,-82,-2
136,78,-58,-113,96,18,-92,-101,-56,-141,-88,-2
130,72,-58,-107,90,12,-86,-95,-56,-141,-88,-2
136,66,-70,-107,102,6,-86,-101,-68,-147,-94,-8
130,30,-100,-83,114,-30,-80,-95,-74,-147,-94,-8
124,12,-112,-71,114,-42,-80,-95,-74,-159,-106,-20
124,18,-106,-77,114,-36,-80,-101,-74,-165,-112,-26
118,18,-100,-71,108,-36,-74,-95,-74,-159,-106,-26
118,18,-100,-71,108,-36,-74,-101,-80,-165,-112,-32
112,18,-94,-71,102,-30,-74,-101,-80,-165,-112,-32
106,12,-94,-65,96,-36,-80,-101,-80,-171,-118,-44
94,6,-88,-53,90,-36,-68,-95,-80,-171,-130,-56
82,0,-82,-47,84,-36,-68,-101,-80,-177,-136,-62
58,-6,-58,-29,60,-24,-56,-101,-80,-183,-136,-62
46,-36,-76,-5,60,-48,-50,-101,-80,-177,-136,-56
28,-42,-64,7,48,-48,-50,-101,-80,-177,-136,-62
22,-42,-70,13,42,-54,-44,-95,-74,-171,-130,-62
10,-47,-64,25,36,-54,-32,-101,-74,-183,-136,-68
10,-59,-76,31,42,-66,-38,-101,-80,-189,-142,-74
10,-59,-76,31,42,-66,-38,-107,-92,-189,-142,-80
16,-53,-76,25,42,-66,-50,-107,-104,-195,-142,-86
10,-59,-76,31,42,-66,-50,-107,-104,-195,-142,-86
-2,-71,-76,43,36,-72,-50,-107,-104,-195,-148,-92
-2,-77,-82,43,36,-78,-44,-107,-98,-195,-154,-86
-8,-71,-70,43,30,-72,-44,-101,-98,-195,-160,-92
-8,-71,-70,43,30,-72,-44,-101,-104,-195,-172,-98
-8,-59,-58,37,24,-60,-44,-113,-98,-201,-166,-98
-8,-59,-58,37,24,-60,-44,-113,-98,-201,-166,-104
-2,-53,-58,31,24,-54,-44,-119,-92,-201,-166,-104
-2,-53,-58,31,24,-54,-38,-119,-92,-201,-166,-104
-14,-59,-52,43,18,-54,-38,-113,-92,-195,-160,-98
-14,-65,-58,43,18,-60,-44,-113,-98,-201,-160,-104
-20,-83,-70,55,24,-78,-44,-107,-98,-195,-154,-98
-26,-89,-70,61,18,-78,-44,-107,-98,-195,-154,-98
-14,-42,-34,31,6,-36,-50,-107,-110,-207,-178,-122
-20,-71,-58,49,18,-66,-32,-95,-104,-207,-172,-110
-20,-113,-100,73,36,-108,-26,-89,-92,-195,-172,-104
-8,-119,-112,67,54,-120,-8,-71,-74,-195,-166,-110
-8,-113,-112,67,48,-114,-2,-47,-74,-189,-178,-116
-8,-89,-88,55,36,-90,28,1,-62,-195,-178,-128
-8,-71,-70,43,30,-72,63,54,-8,-165,-172,-128
-8,-71,-70,43,30,-72,129,150,69,-99,-124,-98
16,-42,-58,13,36,-48,189,270,183,-3,-40,-44
64,30,-28,-47,48,6,219,396,303,80,25,-2
124,84,-40,-107,84,30,249,528,435,188,97,27
202,138,-64,-167,132,41,297,732,615,338,229,111
310,192,-112,-251,210,41,387,990,861,536,379,231
406,276,-124,-347,270,71,471,1290,1149,776,565,357
544,414,-124,-479,336,137,573,1602,1443,1040,781,513
682,516,-160,-605,420,173,621,1818,1689,1256,985,651
808,570,-238,-689,528,161,657,1962,1857,1430,1141,765
946,660,-286,-803,612,185,705,2093,2013,1586,1279,885
1054,804,-250,-929,654,275,675,2111,2108,1736,1417,993
1174,930,-238,-1055,708,341,501,1932,2066,1832,1537,1125
1246,1032,-208,-1139,726,407,243,1578,1911,1856,1615,1233
1264,1110,-148,-1187,708,479,33,1176,1677,1772,1603,1269
1186,1086,-100,-1133,642,491,-86,822,1353,1532,1435,1197
1036,942,-88,-989,564,425,-134,456,957,1166,1153,1041
832,726,-106,-785,468,305,-170,37,489,716,787,819
622,534,-88,-581,354,221,-248,-437,-20,272,409,567
382,420,38,-401,174,227,-380,-977,-566,-147,85,369
148,330,175,-239,-18,257,-518,-1487,-1070,-507,-178,219
-8,198,205,-101,-114,203,-602,-1733,-1358,-771,-394,45
-56,48,110,1,-84,71,-614,-1697,-1382,-897,-526,-92
-110,-53,50,85,-84,0,-572,-1541,-1298,-927,-598,-224
-170,-131,32,138,-102,-48,-524,-1421,-1226,-915,-646,-284
-170,-191,-16,174,-84,-108,-512,-1325,-1148,-897,-634,-302
-158,-257,-106,198,-30,-180,-542,-1247,-1106,-879,-622,-314
-146,-287,-148,210,0,-216,-596,-1217,-1088,-891,-646,-326
-146,-281,-136,204,-6,-204,-638,-1193,-1070,-879,-652,-350
-140,-281,-142,198,0,-210,-632,-1121,-1004,-837,-628,-356
-122,-245,-124,174,0,-186,-608,-995,-896,-765,-586,-350
-122,-221,-106,162,-12,-162,-572,-899,-806,-705,-550,-350
-146,-233,-94,180,-30,-162,-542,-797,-722,-669,-532,-374
-158,-245,-94,192,-36,-168,-476,-689,-644,-615,-496,-356
-122,-185,-70,144,-30,-126,-386,-569,-530,-525,-454,-320
-104,-125,-28,102,-42,-78,-314,-485,-452,-453,-388,-278
-74,-125,-58,102,-12,-90,-254,-413,-386,-393,-334,-236
-50,-143,-100,102,24,-120,-212,-353,-344,-351,-304,-206
-62,-143,-88,102,12,-114,-200,-323,-320,-333,-292,-200
-62,-143,-88,102,12,-114,-176,-287,-302,-333,-292,-200
-38,-143,-112,97,36,-126,-170,-257,-278,-339,-292,-206
-8,-143,-136,79,66,-144,-158,-233,-254,-333,-286,-218
-8,-173,-166,97,78,-174,-128,-197,-230,-309,-280,-218
-32,-191,-160,102,66,-180,-98,-167,-194,-285,-274,-218
-32,-131,-106,85,36,-120,-98,-167,-200,-291,-286,-218
-32,-89,-64,67,12,-78,-98,-173,-194,-279,-280,-230
-26,-101,-82,67,24,-90,-86,-161,-182,-261,-262,-218
-26,-107,-88,73,30,-96,-80,-155,-182,-243,-250,-206
-14,-119,-112,73,48,-114,-68,-149,-164,-231,-238,-194
-14,-125,-112,73,48,-120,-62,-143,-164,-231,-232,-188
-8,-131,-124,73,60,-132,-68,-137,-164,-231,-244,-188
-8,-137,-130,79,60,-138,-68,-131,-164,-231,-244,-188
-2,-161,-160,85,78,-162,-50,-119,-146,-225,-238,-188
-2,-161,-160,85,78,-162,-38,-113,-140,-225,-232,-188
-2,-149,-148,79,72,-150,-44,-107,-140,-219,-232,-194
-2,-143,-142,79,72,-144,-44,-107,-134,-219,-238,-194
-2,-113,-112,61,54,-114,-44,-113,-140,-219,-244,-200
-2,-107,-112,61,54,-108,-50,-107,-140,-225,-238,-188
-2,-113,-112,61,54,-114,-44,-107,-146,-219,-232,-188
-2,-113,-112,61,54,-114,-44,-101,-140,-219,-226,-194
4,-119,-124,61,66,-126,-38,-101,-146,-213,-226,-194
4,-113,-118,61,60,-120,-38,-101,-146,-213,-220,-194
10,-113,-124,55,66,-120,-44,-95,-140,-213,-226,-194
10,-113,-124,55,66,-120,-38,-89,-140,-213,-226,-194
10,-119,-130,61,72,-126,-44,-89,-128,-207,-232,-194
10,-125,-136,61,72,-132,-38,-89,-128,-201,-226,-194
10,-119,-130,61,72,-126,-38,-95,-134,-207,-232,-200
10,-107,-118,55,66,-114,-44,-95,-128,-207,-232,-200
16,-83,-106,37,60,-96,-44,-95,-134,-213,-232,-200
16,-77,-100,37,54,-90,-44,-95,-134,-219,-232,-200
22,-89,-112,37,66,-102,-38,-89,-128,-213,-226,-194
22,-107,-130,49,78,-120,-32,-83,-122,-207,-226,-188
22,-119,-142,55,84,-132,-26,-77,-116,-201,-220,-182
28,-125,-154,55,90,-144,-20,-71,-104,-195,-214,-182
22,-119,-142,55,84,-132,-26,-71,-110,-189,-220,-188
16,-119,-136,55,78,-132,-20,-71,-110,-189,-214,-188
10,-113,-124,55,66,-120,-26,-71,-110,-189,-220,-194
10,-113,-124,55,66,-120,-26,-71,-110,-189,-226,-194
4,-101,-112,55,54,-108,-26,-65,-116,-183,-226,-194
-2,-89,-94,49,42,-90,-32,-65,-116,-183,-220,-194
-8,-89,-88,55,36,-90,-32,-59,-116,-177,-220,-182
-14,-95,-88,61,36,-90,-32,-59,-110,-177,-214,-176
-20,-107,-94,67,36,-102,-14,-35,-92,-171,-208,-170
-20,-119,-106,73,42,-114,-8,-29,-86,-171,-202,-158
-26,-107,-88,73,30,-96,4,-23,-74,-159,-202,-164
-32,-95,-70,67,18,-84,4,-17,-68,-153,-196,-164
-38,-101,-70,73,12,-84,-2,-17,-68,-165,-196,-164
-38,-101,-70,73,12,-84,-2,-17,-74,-165,-196,-164
-38,-107,-76,79,18,-90,-8,-11,-80,-171,-196,-158
-44,-107,-70,79,12,-90,-8,-11,-86,-171,-196,-158
-38,-107,-76,79,18,-90,4,1,-74,-153,-178,-158
-38,-107,-76,79,18,-90,4,7,-62,-147,-178,-158
-32,-107,-82,73,24,-96,10,7,-56,-141,-172,-152
-32,-107,-82,73,24,-96,10,7,-50,-135,-172,-152
-38,-107,-76,79,18,-90,10,7,-50,-135,-172,-146
-38,-89,-58,67,6,-72,4,13,-50,-135,-172,-146
-32,-89,-64,67,12,-78,10,25,-38,-135,-172,-140
-38,-101,-70,73,12,-84,10,25,-38,-129,-166,-134
-44,-83,-46,67,0,-66,10,31,-38,-129,-166,-140
-44,-77,-40,67,-6,-60,10,37,-32,-129,-166,-140
-56,-77,-28,73,-18,-54,10,37,-32,-123,-160,-128
-62,-71,-16,73,-24,-42,10,42,-26,-117,-160,-140
-56,-71,-22,67,-18,-48,10,48,-20,-111,-148,-134
-56,-77,-28,73,-18,-54,10,60,-8,-99,-148,-122
-50,-83,-40,73,-6,-60,10,72,4,-87,-136,-116
-44,-77,-40,67,-6,-60,10,78,9,-81,-136,-110
-44,-65,-28,61,-12,-48,10,84,9,-75,-130,-104
-44,-59,-22,55,-12,-42,10,84,9,-69,-124,-104
-50,-42,2,49,-30,-18,10,90,9,-69,-124,-110
-50,-36,20,43,-36,0,4,90,9,-69,-124,-104
-38,-36,8,37,-24,-6,10,102,21,-51,-112,-98
-26,-42,-10,31,-6,-18,10,108,27,-45,-100,-86
-20,-42,-22,31,0,-30,16,126,39,-27,-88,-74
-20,-42,-16,31,0,-24,4,132,51,-21,-88,-74
-14,-42,-22,25,6,-24,4,144,51,-15,-76,-68
-14,-36,-16,25,0,-18,4,144,57,-15,-76,-62
-20,-42,-16,31,0,-24,-2,150,63,-9,-70,-68
-26,-42,-10,31,-6,-18,-2,156,69,-3,-64,-56
-14,-12,8,13,-12,6,-8,156,75,-3,-64,-50
-2,0,8,1,-6,12,-14,156,75,3,-58,-50
16,12,2,-17,6,12,-14,168,81,3,-52,-38
22,18,2,-23,12,18,-14,180,93,15,-40,-32
28,30,8,-29,12,24,-26,174,93,27,-34,-26
34,48,20,-41,6,41,-38,174,93,27,-34,-20
40,60,26,-53,6,41,-50,174,99,33,-28,-20
46,60,20,-53,12,41,-56,174,99,45,-16,-8
52,42,-4,-47,30,24,-50,180,111,57,-10,4
58,30,-22,-47,42,12,-50,186,111,63,-4,9
52,24,-22,-41,36,6,-50,192,111,68,8,9
46,24,-16,-35,30,12,-50,186,111,68,14,9
52,42,-4,-47,30,24,-62,180,105,68,14,9
52,54,8,-53,24,36,-62,180,105,68,20,9
58,66,14,-65,24,41,-56,168,99,63,14,9
64,78,20,-71,24,41,-68,162,93,63,14,9
58,84,32,-71,12,53,-74,162,93,68,20,9
64,84,26,-77,18,47,-68,162,99,68,20,9
58,72,20,-65,18,41,-62,162,105,68,25,21
58,72,20,-65,18,41,-62,168,111,68,25,21
58,72,20,-65,18,41,-74,144,93,63,25,27
58,72,20,-65,18,41,-74,138,93,68,25,27
64,66,8,-65,30,41,-74,132,87,68,31,33
70,72,8,-71,30,41,-74,120,81,68,31,33
70,72,8,-71,30,41,-74,120,87,68,25,33
64,72,14,-71,24,41,-74,120,87,68,25,33
58,72,20,-65,18,41,-68,126,87,68,25,33
52,72,26,-65,12,41,-62,126,87,63,25,27
40,72,38,-59,0,47,-62,120,81,57,25,21
40,66,32,-53,6,41,-62,120,81,57,25,15
28,66,44,-47,-6,47,-50,114,81,51,20,9
28,66,44,-47,-6,47,-44,114,81,51,14,9
28,66,44,-47,-6,47,-38,108,81,57,20,9
16,66,56,-41,-18,53,-32,108,81,57,20,9
16,60,50,-41,-18,47,-14,108,81,63,20,9
16,54,44,-35,-12,41,-14,108,81,63,14,9
10,48,44,-29,-18,41,10,114,81,63,14,9
-2,48,56,-23,-30,47,10,114,81,63,14,9
-8,54,68,-23,-36,53,28,108,81,57,14,4
-14,60,80,-23,-48,65,33,102,81,57,8,4
-26,54,86,-17,-54,65,33,108,87,57,8,-8
-38,30,74,1,-54,47,39,102,81,51,2,-8
-44,18,68,13,-54,41,45,102,81,57,2,-14
-62,12,80,25,-72,41,45,96,75,51,-4,-14
-74,12,92,31,-84,47,45,90,75,51,-10,-26
-74,6,86,31,-78,41,57,84,69,51,-16,-26
-98,12,116,43,-108,59,57,78,57,39,-28,-32
-98,18,122,37,-108,65,57,72,51,33,-28,-38
-104,6,116,49,-108,53,57,66,45,27,-34,-38
-116,12,127,49,-126,65,63,54,39,21,-40,-50
-110,18,127,43,-120,71,63,48,27,15,-58,-56
-122,24,139,49,-138,83,63,42,21,9,-58,-56
-128,12,133,55,-138,71,63,42,21,9,-58,-56
-134,6,133,61,-138,71,57,42,15,3,-58,-62
-146,-6,133,73,-144,65,57,37,15,3,-58,-62
-158,-24,127,91,-150,53,63,37,9,3,-58,-68
-158,-24,127,91,-150,53,63,31,9,-3,-58,-68
-158,-24,127,91,-150,53,63,25,9,-3,-64,-68
-158,-24,127,91,-150,53,57,13,9,-9,-64,-68
-152,-30,127,91,-138,41,57,7,9,-9,-64,-68
-158,-30,127,91,-144,47,63,7,9,-9,-70,-68
-158,-30,127,91,-144,47,63,7,9,-9,-70,-68
-164,-30,127,97,-150,47,69,1,-2,-15,-76,-62
-164,-30,127,97,-150,47,69,-5,-2,-15,-88,-62
-170,-30,133,97,-150,53,69,1,4,-9,-76,-62
-170,-36,127,102,-150,47,69,1,4,-9,-76,-62
-170,-36,133,102,-150,47,69,7,9,-3,-82,-68
-170,-36,139,102,-155,47,69,7,4,-9,-82,-68
-170,-36,133,102,-150,47,69,7,9,-9,-76,-68
-170,-36,133,102,-150,47,69,7,9,-9,-76,-68
-170,-42,127,102,-150,41,69,7,9,-9,-70,-68
-170,-36,133,102,-150,47,69,7,9,-9,-70,-68
-170,-36,133,102,-150,47,75,7,9,-9,-70,-68
-170,-30,139,102,-150,53,75,7,9,-9,-70,-68
-170,-30,133,97,-150,53,69,7,4,-9,-76,-68
-170,-42,127,102,-150,41,69,7,4,-9,-76,-68
-170,-36,139,102,-155,47,69,13,4,-3,-76,-68
-170,-30,145,102,-155,53,75,19,4,-3,-76,-68
-170,-24,151,102,-161,59,75,25,4,3,-76,-68
-170,-36,139,102,-155,47,75,25,9,9,-76,-68
-175,-30,151,102,-161,59,69,25,9,3,-70,-68
-170,-24,151,102,-161,59,69,25,9,3,-70,-68
-175,-18,163,102,-167,71,63,25,9,-3,-64,-68
-175,-18,163,102,-167,71,63,25,9,3,-64,-68
-175,-24,157,102,-167,65,69,31,9,9,-64,-62
-175,-24,157,102,-167,65,75,37,9,15,-58,-62
-170,-30,145,102,-155,53,81,42,21,15,-52,-56
-170,-36,139,102,-155,47,93,42,21,21,-46,-56
-170,-30,145,102,-155,53,87,42,21,27,-46,-56
-170,-24,151,102,-161,59,87,48,27,33,-40,-56
-170,-18,157,97,-161,65,87,48,27,33,-46,-62
-170,-18,157,97,-161,65,87,48,27,39,-46,-62
-170,-12,163,97,-167,71,87,54,33,39,-46,-62
-170,-18,157,97,-161,65,87,54,39,45,-40,-56
-170,-12,163,97,-167,71,87,48,39,45,-40,-56
-170,-6,169,91,-167,77,87,48,39,45,-40,-56
-170,-6,163,91,-161,77,93,54,45,45,-34,-50
-170,-12,151,91,-155,71,93,60,51,51,-34,-50
-164,-24,133,91,-150,53,99,66,57,51,-28,-50
-164,-30,127,97,-150,47,93,66,57,51,-28,-50
-164,-12,145,85,-150,65,87,66,51,51,-34,-56
-164,-12,145,85,-150,65,87,66,51,51,-34,-56
-164,-18,139,91,-150,59,81,72,51,57,-34,-62
-164,-18,139,91,-150,59,81,72,51,57,-34,-62
-158,-12,139,85,-150,65,81,72,51,57,-28,-56
-152,-12,133,79,-150,59,81,72,51,57,-28,-56
-146,-18,127,79,-138,53,81,72,51,57,-22,-50
-146,-6,133,73,-144,65,81,66,51,57,-22,-50
-140,-6,127,73,-138,59,81,60,51,57,-28,-56
-140,-18,127,79,-132,47,81,66,51,57,-28,-56
-134,-24,116,79,-126,41,81,60,51,57,-34,-62
-134,-24,116,79,-126,41,81,60,51,57,-34,-62
-134,-24,116,79,-126,41,75,54,45,57,-34,-62
-134,-18,122,73,-126,47,75,54,45,57,-34,-62
-134,-6,127,67,-132,59,63,42,39,51,-34,-62
-134,0,127,67,-138,65,63,42,39,51,-28,-62
-140,-12,127,73,-138,53,69,42,39,51,-28,-68
-140,-12,127,73,-138,53,69,42,39,51,-28,-68
-140,-6,127,73,-138,59,69,42,33,51,-34,-74
-140,-6,127,73,-138,59,63,42,33,45,-40,-80
-140,-24,122,79,-132,41,69,42,33,45,-40,-74
-140,-30,116,85,-126,41,69,42,33,45,-34,-74
-140,-42,104,91,-120,36,75,42,33,45,-34,-68
-146,-42,104,97,-126,36,75,42,21,39,-40,-68
-146,-36,116,91,-132,41,69,42,27,39,-34,-68
-152,-30,127,91,-138,41,69,42,27,39,-34,-68
-152,-30,127,91,-138,41,63,42,33,45,-28,-74
-146,-30,122,85,-132,41,63,42,33,45,-34,-74
-146,-24,127,85,-138,47,69,42,33,45,-34,-74
-146,-24,127,85,-138,47,69,42,27,45,-34,-74
-146,-12,127,79,-144,59,75,42,27,45,-34,-74
-146,-12,127,79,-144,59,75,42,27,45,-34,-74
-152,-12,133,79,-150,59,69,42,21,51,-40,-74
-158,-12,139,85,-150,65,69,42,21,45,-40,-74
-164,-24,133,91,-150,53,63,42,21,51,-40,-74
-164,-24,133,91,-150,53,63,42,21,51,-34,-74
-164,-18,139,91,-150,59,51,37,15,45,-34,-74
-164,-12,145,85,-150,65,51,31,15,39,-40,-86
-164,-12,145,85,-150,65,45,31,15,33,-40,-86
-164,-18,139,91,-150,59,45,31,15,33,-40,-80
-158,-12,139,85,-150,65,51,31,9,33,-40,-80
-158,-18,133,85,-150,59,51,31,9,33,-40,-80
-152,-12,133,79,-150,59,57,31,4,33,-46,-80
-152,-6,139,79,-150,65,51,31,4,27,-46,-80
-140,-18,127,79,-132,47,75,25,15,39,-34,-68
-152,-36,122,91,-138,41,63,25,9,39,-46,-80
-164,-36,127,97,-150,41,51,13,4,27,-52,-92
-158,-30,127,91,-144,47,45,13,4,27,-52,-92
-158,-30,127,91,-144,47,45,13,4,27,-52,-92
-152,-24,127,85,-144,47,39,13,4,27,-52,-92
-152,-24,127,85,-144,47,39,13,4,27,-52,-92
-158,-18,133,85,-150,59,39,13,4,27,-58,-92
-158,-24,127,91,-150,53,39,7,-2,21,-58,-92
-164,-18,139,91,-150,59,39,7,-2,21,-64,-92
-164,-18,139,91,-150,59,39,7,-2,21,-64,-92
-164,-18,139,91,-150,59,45,7,4,27,-64,-92
-164,-12,145,85,-150,65,39,7,-2,21,-58,-92
-152,-18,127,85,-144,53,45,7,4,27,-52,-92
-152,-36,122,91,-138,41,57,13,4,33,-46,-86
-158,-36,127,97,-144,41,51,13,-2,33,-46,-86
-158,-30,127,91,-144,47,45,1,-2,33,-46,-92
-164,-30,127,97,-150,47,39,1,-8,33,-46,-98
-164,-30,127,97,-150,47,39,1,-8,33,-40,-98
-164,-30,127,97,-150,47,39,-5,-2,27,-46,-98
-170,-24,139,97,-150,59,39,1,-2,27,-52,-98
-170,-24,139,97,-150,59,39,-5,4,21,-58,-98
-164,-30,127,97,-150,47,45,-5,4,21,-58,-98
-170,-30,133,97,-150,53,51,1,-2,27,-52,-92
-164,-24,133,91,-150,53,51,7,-2,27,-46,-92
-170,-12,151,91,-155,71,51,13,-2,21,-40,-92
-170,-12,151,91,-155,71,45,13,-2,21,-40,-92
-170,-24,139,97,-150,59,51,13,4,27,-40,-86
-164,-6,151,85,-150,71,45,13,9,27,-34,-80
-164,-18,139,91,-150,59,51,13,9,33,-34,-74
-158,-18,133,85,-150,59,63,13,15,39,-22,-74
-140,0,133,67,-144,65,75,25,15,45,-28,-74
-140,12,145,61,-150,77,87,42,21,57,-22,-62
-140,18,151,61,-150,83,81,48,27,57,-22,-62
-122,36,151,43,-144,95,81,48,33,57,-4,-56
-122,42,157,37,-144,101,99,54,45,68,-4,-50
-128,42,163,43,-150,101,111,54,57,68,8,-44
-128,54,175,37,-150,113,123,54,57,80,14,-44
-128,66,187,31,-150,125,129,66,63,80,14,-44
-134,78,205,25,-161,143,141,72,69,86,14,-32
-140,78,211,31,-167,143,141,72,69,86,14,-32
-146,84,223,31,-179,155,147,78,75,92,20,-26
-158,84,235,37,-191,161,141,78,69,92,20,-26
-158,84,235,37,-191,161,153,72,69,86,20,-32
-152,84,229,31,-185,155,141,72,69,86,20,-32
-146,96,235,25,-185,167,141,60,69,74,20,-38
-128,96,217,13,-167,155,135,60,69,74,20,-38
-128,90,211,19,-161,149,135,66,63,86,25,-32
-128,96,217,13,-167,155,129,66,63,98,25,-32
-116,84,193,13,-150,137,123,66,63,104,25,-26
-110,84,187,13,-150,137,111,60,63,110,25,-26
-104,96,193,1,-150,143,93,60,63,110,25,-20
-98,114,205,-11,-150,161,69,48,57,104,25,-20
-86,120,199,-17,-150,161,51,48,57,98,25,-8
-86,126,205,-23,-150,167,39,42,51,92,25,-8
-80,114,187,-17,-138,149,33,42,51,92,25,-8
-80,102,175,-11,-132,137,33,37,39,86,25,-14
-74,102,169,-17,-126,137,16,31,33,86,25,-14
-74,90,157,-11,-120,125,4,19,27,80,25,-26
-68,90,151,-11,-114,119,-2,13,21,74,25,-26
-68,90,151,-11,-114,119,-2,13,21,68,20,-32
-56,84,133,-17,-102,107,-8,13,15,68,20,-38
-56,54,116,1,-84,77,-8,13,9,68,14,-44
-62,30,98,13,-78,59,-8,7,9,51,-10,-62
-62,30,98,13,-78,59,-2,1,9,51,-16,-62
-68,24,98,19,-84,53,4,1,9,51,-22,-68
-68,18,92,25,-78,47,10,-5,4,51,-28,-68
-74,18,98,25,-84,53,4,-5,4,51,-22,-68
-74,6,86,31,-78,41,4,1,4,51,-22,-74
-86,0,92,43,-90,41,10,7,4,51,-28,-86
-92,-12,86,49,-90,41,16,7,4,45,-28,-86
-116,-12,110,61,-114,41,28,7,9,45,-22,-80
-128,-30,104,79,-114,41,28,1,4,45,-28,-80
-140,-24,122,79,-132,41,28,1,9,51,-22,-80
-146,-24,127,85,-138,47,28,1,9,51,-22,-86
-158,-30,127,91,-144,47,33,-11,4,33,-34,-98
-164,-42,122,102,-144,41,33,-11,4,27,-52,-104
-164,-42,116,102,-144,36,28,-23,-14,21,-58,-116
-164,-42,116,102,-144,36,22,-23,-20,15,-70,-122
-170,-42,127,102,-150,41,28,-17,-20,15,-64,-122
-170,-59,116,108,-150,24,28,-17,-20,15,-64,-122
-175,-59,122,114,-150,30,33,-11,-14,15,-58,-116
-175,-59,122,114,-150,30,33,-5,-14,15,-58,-116
-175,-65,116,114,-150,24,33,-5,-14,15,-58,-116
-181,-59,127,114,-150,30,33,-11,-14,9,-58,-116
-181,-65,122,120,-150,24,33,-11,-8,9,-52,-116
-181,-65,122,120,-150,24,33,-11,-8,9,-58,-116
-187,-65,127,120,-155,30,33,-17,-14,9,-64,-122
-193,-65,127,126,-161,30,33,-17,-20,9,-64,-122
-199,-65,127,126,-167,36,28,-23,-32,3,-70,-134
-199,-77,127,132,-161,24,28,-23,-38,3,-70,-134
-205,-77,127,138,-167,24,33,-11,-26,15,-58,-134
-193,-89,110,138,-150,6,45,13,-2,27,-46,-122
-199,-95,110,144,-150,6,51,25,-8,27,-52,-110
-199,-101,104,144,-150,0,45,19,-8,15,-64,-128
-211,-107,110,156,-155,0,51,25,-2,3,-70,-146
-199,-137,68,162,-144,-36,81,60,9,9,-70,-140
-187,-101,92,138,-150,-6,123,108,33,27,-58,-140
-187,-36,157,102,-173,59,159,174,75,39,-52,-152
-187,-24,169,102,-179,71,225,270,153,92,8,-110
-170,-12,157,91,-161,71,291,408,285,212,79,-44
-116,66,175,25,-150,119,321,534,411,314,163,-2
-50,168,211,-59,-138,191,339,684,537,422,241,39
28,186,151,-107,-66,167,417,918,753,584,367,135
142,210,74,-179,36,137,525,1236,1047,812,541,249
304,360,62,-335,120,209,657,1572,1359,1052,745,393
448,504,62,-479,192,281,741,1848,1641,1292,949,537
586,576,-10,-587,300,281,771,2052,1851,1502,1123,675
730,678,-52,-701,390,305,807,2195,2007,1652,1267,765
850,774,-76,-815,462,347,807,2255,2120,1784,1387,861
952,828,-118,-887,540,347,687,2159,2156,1910,1519,993
1036,924,-112,-977,576,401,453,1896,2066,1988,1633,1101
1102,1056,-46,-1085,576,503,195,1530,1899,1988,1687,1191
1120,1122,2,-1121,564,557,33,1188,1677,1898,1639,1215
1054,1074,20,-1067,522,539,-62,834,1353,1628,1459,1125
880,912,32,-893,426,467,-98,420,909,1238,1141,939
658,690,38,-677,312,359,-182,-47,393,764,757,693
448,534,92,-491,180,305,-332,-575,-152,308,397,453
196,408,205,-305,-6,305,-494,-1145,-698,-87,97,261
-50,282,331,-119,-185,305,-602,-1595,-1154,-423,-154,111
-187,168,361,13,-275,263,-650,-1769,-1370,-657,-346,-38
-223,24,253,102,-239,137,-638,-1685,-1358,-741,-460,-164
-277,-113,157,192,-221,24,-596,-1529,-1262,-765,-514,-266
-313,-227,92,264,-197,-72,-560,-1409,-1196,-753,-550,-332
-313,-275,44,288,-173,-120,-560,-1313,-1124,-729,-550,-350
-289,-269,26,276,-155,-126,-578,-1235,-1070,-711,-550,-362
-265,-269,2,264,-144,-138,-632,-1193,-1040,-711,-550,-374
-241,-269,-22,252,-120,-150,-650,-1151,-986,-675,-532,-374
-247,-221,32,228,-150,-96,-632,-1025,-890,-627,-484,-368
-241,-209,38,222,-150,-90,-596,-917,-788,-567,-448,-362
-241,-233,14,234,-138,-114,-560,-803,-716,-507,-424,-362
-241,-221,26,228,-144,-102,-482,-671,-620,-435,-394,-350
-241,-173,74,204,-155,-54,-374,-533,-500,-357,-334,-332
-217,-137,86,174,-150,-30,-266,-407,-392,-267,-274,-284
-199,-125,80,156,-150,-24,-188,-335,-308,-207,-220,-230
-193,-113,86,150,-150,-18,-116,-269,-242,-159,-184,-206
-193,-119,80,150,-144,-24,-86,-233,-218,-153,-166,-206
-181,-119,68,144,-132,-30,-80,-215,-206,-147,-166,-200
-170,-107,56,126,-114,-24,-80,-197,-200,-147,-178,-212
-170,-107,56,126,-114,-24,-74,-179,-200,-153,-178,-230
-164,-119,38,132,-102,-42,-74,-155,-188,-147,-184,-230
-152,-125,20,126,-90,-54,-56,-113,-146,-123,-166,-218
-152,-107,38,120,-96,-36,-26,-71,-122,-99,-160,-206
-152,-107,38,120,-96,-36,-2,-59,-104,-81,-148,-206
-152,-113,32,120,-96,-42,10,-41,-86,-69,-130,-194
-152,-113,32,120,-96,-42,16,-41,-86,-63,-124,-194
-152,-107,38,120,-96,-36,16,-41,-86,-57,-118,-188
-146,-107,32,114,-90,-36,22,-47,-80,-57,-118,-188
-146,-101,38,114,-96,-30,22,-47,-80,-69,-118,-188
-140,-107,26,114,-84,-42,4,-47,-92,-75,-130,-194
-140,-113,20,114,-84,-48,4,-41,-92,-75,-130,-194
-134,-137,-10,126,-66,-72,10,-35,-86,-75,-124,-200
-134,-137,-10,126,-66,-72,22,-29,-80,-75,-118,-200
-134,-125,2,120,-72,-60,22,-17,-68,-69,-118,-200
-134,-119,8,114,-72,-54,28,-17,-62,-63,-118,-200
-134,-89,38,102,-90,-24,33,-17,-56,-63,-124,-200
-134,-83,44,102,-90,-18,33,-11,-56,-63,-112,-188
-134,-89,38,102,-90,-24,33,-17,-62,-63,-112,-188
-134,-89,38,102,-90,-24,33,-11,-56,-63,-112,-194
-128,-95,26,102,-78,-36,33,-17,-62,-63,-118,-194
-128,-89,32,102,-84,-30,33,-17,-62,-63,-118,-194
-128,-95,26,102,-78,-36,33,-11,-56,-57,-112,-194
-128,-95,26,102,-78,-36,39,-5,-56,-57,-112,-194
-134,-107,20,108,-78,-42,39,-5,-44,-45,-106,-194
-134,-113,14,114,-78,-48,45,-5,-44,-39,-100,-194
-128,-113,8,108,-72,-54,45,1,-44,-45,-106,-194
-128,-107,14,108,-72,-48,39,1,-38,-45,-106,-194
-116,-89,20,102,-72,-36,39,13,-38,-51,-106,-188
-116,-89,20,102,-72,-36,39,13,-38,-57,-106,-188
-116,-95,14,102,-66,-42,45,13,-38,-51,-100,-188
-116,-107,2,102,-60,-54,45,13,-38,-45,-106,-182
-122,-113,2,108,-66,-54,51,13,-38,-39,-100,-182
-116,-113,-4,102,-60,-60,51,13,-32,-33,-100,-182
-110,-107,-4,102,-54,-54,45,19,-32,-27,-100,-182
-116,-101,8,102,-66,-48,51,19,-32,-27,-94,-182
-110,-95,8,102,-60,-42,45,25,-26,-27,-94,-182
-110,-89,14,102,-66,-36,45,25,-26,-27,-100,-182
-110,-83,20,102,-66,-30,39,25,-32,-33,-100,-194
-110,-71,32,97,-72,-18,33,25,-32,-39,-94,-194
-110,-77,26,97,-72,-24,33,25,-32,-45,-94,-194
-110,-83,20,102,-66,-30,33,25,-26,-51,-88,-188
-116,-89,20,102,-72,-36,39,37,-20,-45,-82,-188
-110,-101,2,102,-60,-48,39,37,-20,-45,-82,-176
-116,-83,26,102,-72,-30,45,31,-20,-33,-88,-188
-116,-71,38,97,-78,-18,39,31,-20,-33,-88,-188
-116,-77,32,102,-78,-24,39,37,-14,-33,-82,-182
-110,-83,20,102,-66,-30,39,37,-14,-33,-82,-182
-104,-89,8,102,-60,-42,39,42,-14,-27,-76,-170
-104,-95,2,102,-54,-48,39,42,-14,-27,-76,-170
-110,-89,14,102,-66,-36,45,48,-14,-15,-70,-176
-110,-89,14,102,-66,-36,45,54,-8,-15,-70,-176
-116,-83,26,102,-72,-30,45,54,-14,-15,-76,-176
-116,-83,26,102,-72,-30,45,54,-14,-15,-76,-176
-122,-89,26,102,-78,-30,45,60,-8,-9,-70,-170
-122,-71,44,102,-84,-12,45,66,-2,-9,-70,-170
-116,-77,32,102,-78,-24,51,84,9,-3,-64,-164
-122,-89,26,102,-78,-30,57,84,9,3,-58,-158
-110,-71,32,97,-72,-18,51,84,9,-3,-64,-164
-104,-71,26,91,-66,-24,45,84,9,-3,-64,-164
-98,-71,20,91,-60,-24,39,78,9,-3,-64,-152
-98,-71,20,91,-60,-24,33,84,9,3,-64,-164
-98,-65,26,85,-66,-18,39,96,15,9,-52,-158
-98,-65,26,85,-66,-18,45,102,21,15,-46,-152
-98,-65,26,85,-66,-18,51,114,33,27,-34,-146
-92,-53,32,79,-66,-12,57,114,33,27,-28,-146
-86,-53,26,73,-60,-12,51,126,45,27,-28,-134
-86,-53,26,73,-60,-12,51,126,51,33,-22,-134
-86,-47,32,73,-60,-6,45,138,51,27,-28,-134
-86,-42,44,67,-66,6,39,138,51,27,-28,-128
-80,-42,44,61,-60,6,39,144,57,39,-22,-128
-68,-42,32,55,-48,0,39,150,63,45,-10,-116
-68,-42,32,55,-48,0,39,162,63,57,-4,-110
-68,-30,44,49,-54,12,33,168,75,63,-4,-110
-56,-24,38,37,-48,12,33,186,81,68,2,-104
-50,-18,38,31,-42,18,33,186,87,68,2,-98
-50,-18,38,31,-42,18,33,198,99,68,2,-104
-50,-18,38,31,-42,18,33,204,105,68,8,-92
-38,6,50,13,-42,36,33,204,117,74,20,-80
-26,12,44,7,-36,36,33,204,117,80,25,-74
-8,18,32,-5,-18,30,33,216,129,86,31,-56
-2,18,26,-11,-12,30,33,228,141,98,43,-44
10,24,20,-17,-6,30,28,234,141,110,49,-38
16,42,32,-29,-6,41,22,234,141,116,49,-32
28,48,26,-41,0,41,16,246,147,122,55,-32
34,48,20,-41,6,41,16,246,147,140,67,-20
40,48,14,-47,12,36,10,240,153,140,61,-20
52,48,2,-53,24,30,4,240,153,140,61,-14
46,60,20,-53,12,41,-8,234,147,134,61,-14
46,72,32,-59,6,47,-14,222,147,128,61,-14
52,72,26,-65,12,41,-26,228,147,134,67,-14
52,72,26,-65,12,41,-26,228,147,134,73,-2
58,66,14,-65,24,41,-20,228,147,134,73,-2
64,66,8,-65,30,41,-32,222,141,134,73,-2
70,72,8,-71,30,41,-38,222,135,134,79,4
70,72,2,-77,36,41,-32,216,135,134,79,9
76,60,-16,-71,48,30,-26,216,135,134,85,9
76,60,-16,-71,48,30,-26,216,135,134,85,9
76,72,-4,-77,42,41,-38,192,123,122,79,21
76,78,2,-83,42,41,-38,192,123,134,79,21
82,84,2,-89,42,41,-38,186,123,134,79,33
88,96,8,-95,42,47,-38,180,117,128,79,33
94,90,-4,-95,54,41,-38,180,123,128,73,39
94,90,-4,-95,54,41,-38,180,123,128,73,39
94,84,-10,-95,54,41,-32,186,123,128,73,45
94,84,-10,-95,54,41,-26,186,123,122,73,39
82,84,2,-89,42,41,-20,180,123,122,73,45
82,78,-4,-83,48,41,-20,180,123,122,73,39
70,78,8,-77,36,41,-2,174,129,122,73,45
70,78,8,-77,36,41,4,174,129,122,73,45
76,78,2,-83,42,41,10,174,123,122,73,39
70,78,14,-77,30,41,16,174,123,122,73,39
70,72,2,-77,36,41,33,180,117,122,67,27
70,66,-4,-71,42,36,33,180,117,122,61,27
64,48,-10,-59,36,24,33,180,123,122,61,33
52,48,2,-53,24,30,33,180,123,122,61,33
40,42,8,-41,18,30,39,168,129,116,61,27
34,48,20,-41,6,41,45,162,129,116,55,27
28,54,32,-41,0,41,45,156,123,110,49,15
16,36,26,-29,-6,36,57,150,111,104,43,15
16,36,26,-29,-6,36,57,138,99,104,37,9
-2,36,44,-17,-24,41,57,132,87,98,31,9
-8,30,44,-11,-24,41,57,120,93,98,31,9
-8,18,32,-5,-18,30,69,114,87,98,25,9
-26,18,50,1,-36,41,69,102,81,86,25,4
-26,18,50,1,-36,41,69,96,75,80,25,-2
-32,-6,32,19,-30,18,69,90,75,80,25,4
-38,-12,32,25,-36,18,75,78,69,74,25,-8
-32,-18,20,25,-24,6,75,72,63,74,25,-8
-38,-24,20,31,-30,6,75,66,57,68,25,-8
-38,-24,20,31,-30,6,69,54,45,68,14,-20
-38,-18,26,25,-30,12,57,48,39,63,8,-26
-44,-18,32,31,-36,12,51,42,27,51,-4,-38
-50,-24,32,37,-42,12,51,42,21,51,-10,-44
-50,-30,26,37,-36,6,51,42,15,39,-4,-38
-56,-30,32,43,-42,6,51,42,9,39,-10,-38
-56,-36,26,43,-42,0,45,37,9,27,-4,-32
-56,-42,20,49,-36,-6,45,31,9,27,-4,-32
-56,-42,20,49,-36,-6,45,37,9,27,-4,-38
-56,-42,20,49,-36,-6,45,37,9,27,-4,-38
-56,-42,20,49,-36,-6,45,37,9,21,-4,-38
-56,-42,20,49,-36,-6,45,31,9,21,-16,-38
-62,-42,26,49,-42,0,45,25,9,21,-10,-38
-62,-42,20,55,-42,-6,45,25,9,21,-10,-38
-68,-42,26,55,-48,-6,45,19,9,21,-22,-44
-74,-42,32,61,-54,0,45,19,4,15,-22,-44
-68,-42,20,61,-48,-12,51,19,9,15,-16,-38
-68,-42,20,61,-48,-12,51,19,9,15,-10,-38
-62,-59,-4,67,-30,-30,57,19,9,15,-4,-32
-68,-47,14,61,-42,-18,57,19,9,15,2,-32
-74,-42,32,61,-54,0,57,19,9,15,-4,-38
-74,-36,44,55,-60,12,57,19,9,15,-4,-38
-74,-24,56,49,-66,24,45,19,4,15,-16,-44
-74,-30,50,49,-60,18,45,19,4,15,-16,-44
-80,-36,50,55,-66,12,39,19,4,9,-22,-50
-80,-30,56,55,-66,18,45,25,4,9,-22,-50
-74,-36,44,55,-60,12,39,25,4,3,-28,-56
-74,-42,32,61,-54,0,39,25,9,9,-28,-56
-74,-42,26,61,-54,-6,45,31,9,15,-16,-50
-68,-42,26,55,-48,-6,45,31,9,15,-16,-44
-68,-42,20,61,-48,-12,51,37,15,21,-4,-38
-68,-42,20,61,-48,-12,51,37,15,27,-4,-32
-68,-42,20,61,-48,-12,51,42,15,27,-4,-32
-68,-42,26,55,-48,-6,51,42,15,27,-4,-32
-62,-42,20,55,-42,-6,51,42,21,21,2,-32
-62,-42,20,55,-42,-6,57,42,21,21,2,-32
-68,-42,26,55,-48,-6,51,42,21,27,2,-26
-68,-42,32,55,-48,0,51,42,27,33,8,-26
-74,-42,38,55,-54,6,51,42,27,33,2,-26
-74,-42,38,55,-54,6,51,42,27,39,2,-26
-68,-36,38,49,-54,6,57,48,27,39,2,-26
-68,-36,38,49,-54,6,57,48,33,45,8,-20
-62,-30,38,43,-48,12,63,48,27,45,8,-20
-62,-18,50,37,-54,24,63,48,27,45,8,-20
-62,-24,44,43,-54,18,63,48,33,45,14,-14
-56,-30,32,43,-42,6,63,54,39,51,14,-14
-56,-42,14,49,-36,-12,63,54,45,51,20,-14
-56,-42,8,55,-36,-18,57,54,45,51,20,-14
-62,-36,32,49,-48,6,51,48,39,51,14,-20
-62,-36,32,49,-48,6,51,48,39,51,14,-20
-68,-42,32,55,-48,0,45,48,39,57,14,-26
-68,-42,32,55,-48,0,45,48,39,57,14,-26
-62,-24,44,43,-54,18,51,54,39,51,20,-20
-50,-24,32,37,-42,12,51,54,39,51,20,-20
-44,-18,32,31,-36,12,57,60,39,45,25,-14
-38,-6,38,19,-36,24,57,54,39,45,25,-14
-38,-12,32,25,-36,18,57,54,39,51,25,-14
-38,-24,20,31,-30,6,57,60,39,51,25,-14
-38,-36,8,37,-24,-6,57,60,39,57,25,-14
-38,-36,8,37,-24,-6,57,60,39,57,25,-14
-44,-36,14,37,-30,-6,51,54,33,57,20,-20
-44,-30,20,37,-30,0,51,54,33,51,20,-26
-50,-18,38,31,-42,18,39,42,27,45,14,-32
-50,-12,44,31,-48,24,39,42,27,39,20,-38
-44,-30,20,37,-30,0,51,48,33,45,25,-32
-44,-36,14,37,-30,-6,51,48,33,51,25,-26
-32,-36,2,31,-18,-12,57,48,33,57,25,-20
-32,-42,-4,37,-12,-18,51,48,33,57,20,-20
-32,-42,-16,43,-12,-30,51,48,33,57,20,-20
-32,-47,-22,43,-6,-36,51,42,33,57,25,-20
-32,-53,-28,49,-6,-42,51,42,33,57,25,-20
-38,-59,-28,55,-6,-42,51,42,21,51,20,-20
-38,-42,-10,43,-18,-24,39,42,15,39,14,-26
-44,-42,2,43,-24,-18,39,42,15,39,14,-26
-44,-42,8,43,-24,-12,33,42,9,33,8,-38
-38,-42,2,37,-18,-12,33,42,9,33,2,-38
-32,-42,-10,37,-12,-24,33,37,9,33,2,-38
-32,-42,-16,43,-12,-30,33,37,9,33,2,-38
-26,-42,-22,37,-6,-30,28,25,9,33,2,-38
-26,-47,-28,43,0,-36,28,25,9,33,2,-38
-26,-42,-22,37,-6,-30,33,25,9,39,-4,-38
-32,-42,-16,43,-12,-30,33,25,9,33,-4,-38
-32,-47,-22,43,-6,-36,33,25,9,39,-4,-38
-32,-47,-22,43,-6,-36,33,19,9,39,2,-38
-38,-42,-4,43,-18,-18,33,13,4,33,-4,-38
-44,-36,14,37,-30,-6,33,7,4,27,-10,-50
-50,-30,26,37,-36,6,33,7,4,21,-16,-50
-56,-30,32,43,-42,6,33,7,4,21,-16,-44
-50,-36,20,43,-36,0,33,7,9,21,-10,-44
-50,-42,14,43,-30,-6,33,7,9,21,-10,-44
-44,-42,2,43,-24,-18,33,7,4,21,-10,-44
-44,-42,8,43,-24,-12,28,7,4,15,-10,-44
-56,-42,8,55,-36,-18,28,1,4,27,2,-32
-56,-47,2,55,-30,-24,28,1,4,27,2,-32
-56,-42,14,49,-36,-12,28,1,4,27,-4,-32
-56,-42,14,49,-36,-12,28,-5,4,21,-10,-38
-56,-42,14,49,-36,-12,28,-5,4,21,-10,-38
-56,-42,14,49,-36,-12,28,-11,4,15,-16,-44
-56,-42,14,49,-36,-12,28,-11,4,15,-16,-44
-62,-42,14,55,-42,-12,28,-11,4,15,-16,-44
-62,-47,8,61,-36,-18,28,-17,-2,9,-16,-44
-68,-53,8,67,-42,-24,28,-17,-2,9,-16,-44
-68,-53,8,67,-42,-24,28,-17,-2,9,-16,-44
-68,-42,20,61,-48,-12,22,-17,-2,9,-16,-44
-62,-42,20,55,-42,-6,16,-17,-8,3,-16,-44
-50,-42,14,43,-30,-6,10,-17,-8,3,-10,-44
-44,-47,-10,49,-18,-30,22,-11,-8,9,-10,-38
-50,-47,-4,55,-24,-24,22,-11,-8,9,-10,-32
-50,-42,2,49,-30,-18,16,-23,-8,9,-10,-38
-56,-42,8,55,-36,-18,16,-23,-8,9,-10,-38
-56,-42,8,55,-36,-18,16,-23,-8,9,-4,-38
-50,-47,-4,55,-24,-24,16,-17,-8,9,-4,-38
-56,-42,8,55,-36,-18,16,-11,-8,9,-10,-38
-50,-47,-4,55,-24,-24,16,-5,-8,9,-10,-38
-44,-53,-16,55,-18,-36,22,-5,-8,9,-10,-38
-44,-47,-10,49,-18,-30,22,-11,-14,15,-10,-38
-38,-42,-10,43,-18,-24,16,-11,-14,9,-4,-38
-38,-36,8,37,-24,-6,10,-17,-14,3,-4,-44
-38,-36,8,37,-24,-6,-2,-23,-14,-3,-4,-44
-32,-42,-4,37,-12,-18,4,-17,-14,3,-10,-44
-26,-24,8,25,-18,0,-2,-17,-8,3,-4,-38
-20,-30,-4,25,-6,-12,4,-11,-8,9,-10,-38
-14,-30,-10,19,0,-12,16,-11,4,15,2,-38
4,-12,-10,1,6,-6,28,-5,4,21,-4,-38
4,6,8,-5,0,12,33,7,4,27,2,-26
4,12,14,-11,-6,18,33,19,9,27,2,-26
22,36,20,-29,0,36,33,13,9,21,20,-20
28,24,2,-29,12,18,39,31,15,33,25,-8
22,18,2,-23,12,18,57,31,27,51,25,-2
28,12,-10,-23,18,6,69,42,33,63,37,4
28,18,-4,-23,18,12,81,42,39,68,37,4
28,30,8,-29,12,24,87,48,45,68,37,9
28,30,8,-29,12,24,87,48,45,68,43,9
28,36,14,-35,6,30,87,54,51,68,49,9
22,36,20,-29,0,36,81,54,45,68,55,9
10,30,26,-23,-6,36,93,48,39,68,49,9
10,30,26,-23,-6,36,81,48,39,68,49,9
4,36,38,-23,-18,41,81,42,33,63,43,4
16,36,26,-29,-6,36,75,42,33,63,43,-2
28,48,26,-41,0,41,75,42,33,68,43,4
34,60,32,-47,0,41,69,42,39,68,43,4
58,66,14,-65,24,41,63,42,45,68,43,9
70,72,8,-71,30,41,51,42,51,68,43,9
70,84,20,-77,24,47,33,42,45,68,49,9
70,96,26,-89,24,53,22,25,39,68,49,9
76,102,26,-95,30,59,4,19,33,68,49,15
76,102,26,-95,30,59,-8,7,27,68,43,15
82,90,8,-89,42,41,-20,1,27,68,43,15
88,78,-10,-89,54,41,-32,-5,15,63,43,9
94,78,-16,-89,60,36,-50,-5,9,63,43,9
100,66,-34,-89,72,24,-68,-17,9,57,37,9
94,72,-22,-89,60,30,-74,-35,-2,45,25,4
94,72,-22,-89,60,30,-74,-35,-2,39,25,-2
94,72,-22,-89,60,30,-80,-47,-20,27,14,-14
94,42,-52,-71,78,0,-80,-47,-26,21,2,-20
88,18,-70,-59,84,-18,-74,-47,-26,9,-4,-32
88,12,-76,-53,84,-24,-68,-47,-20,9,2,-32
82,6,-76,-47,84,-30,-56,-41,-20,15,14,-32
82,-6,-88,-41,90,-42,-50,-41,-20,15,20,-32
76,-12,-88,-35,84,-42,-50,-41,-20,21,20,-32
76,-30,-106,-29,90,-60,-50,-35,-20,21,20,-38
70,-42,-106,-17,90,-66,-38,-29,-20,27,8,-50
64,-47,-112,-5,90,-84,-32,-29,-20,21,8,-50
40,-47,-94,7,66,-72,-26,-35,-26,9,2,-50
28,-65,-100,25,60,-84,-32,-41,-32,9,-4,-50
16,-59,-82,25,48,-72,-38,-47,-38,3,-10,-56
10,-59,-76,31,42,-66,-44,-47,-38,3,-10,-62
4,-59,-70,31,36,-66,-32,-59,-38,-9,-16,-68
-2,-77,-82,43,36,-78,-32,-59,-38,-15,-28,-74
4,-77,-88,43,42,-84,-32,-71,-50,-15,-28,-80
4,-77,-88,43,42,-84,-38,-71,-56,-21,-34,-86
-8,-83,-82,49,36,-84,-32,-77,-56,-21,-40,-86
-14,-101,-94,61,36,-96,-32,-77,-56,-21,-40,-86
-20,-107,-94,67,36,-102,-20,-83,-50,-21,-46,-80
-20,-107,-94,67,36,-102,-20,-77,-50,-21,-46,-80
-14,-107,-100,67,42,-102,-20,-71,-56,-27,-52,-86
-20,-101,-88,67,30,-96,-20,-77,-56,-33,-52,-86
-14,-101,-94,61,36,-96,-20,-71,-56,-39,-52,-92
-14,-101,-94,61,36,-96,-20,-71,-56,-39,-58,-92
-20,-95,-82,61,30,-90,-20,-71,-56,-39,-58,-98
-26,-89,-70,61,18,-78,-20,-71,-56,-39,-58,-98
-32,-83,-58,61,12,-72,-32,-71,-62,-45,-58,-110
-32,-89,-64,67,12,-78,-32,-71,-62,-45,-58,-110
-26,-125,-106,79,36,-114,-8,-59,-50,-21,-46,-74
-38,-137,-106,91,30,-120,-14,-59,-50,-33,-58,-86
-32,-155,-124,97,48,-144,4,-47,-44,-21,-40,-74
-20,-149,-130,91,54,-144,-2,-53,-44,-33,-52,-92
-20,-95,-82,61,30,-90,-20,-59,-62,-57,-82,-122
-32,-77,-52,61,6,-66,-14,-35,-62,-75,-94,-152
-44,-113,-76,85,12,-96,39,37,-14,-33,-58,-128
-44,-119,-82,85,18,-102,99,126,51,27,-28,-104
-44,-95,-58,73,6,-78,165,210,141,68,8,-74
-20,-42,-22,31,0,-30,201,324,243,152,67,-32
40,30,-4,-35,24,18,243,456,351,248,139,9
112,72,-40,-95,78,24,279,612,501,362,229,63
202,90,-112,-143,156,-6,345,834,687,506,343,159
316,168,-148,-245,234,12,447,1128,957,710,511,249
454,300,-148,-383,306,71,561,1470,1251,962,709,393
598,438,-160,-521,378,131,645,1752,1533,1190,913,525
754,528,-220,-641,486,149,669,1938,1731,1382,1063,651
892,594,-298,-743,594,143,717,2088,1905,1544,1201,753
1018,672,-346,-845,678,161,741,2189,2049,1694,1339,873
1138,780,-358,-959,750,209,627,2111,2084,1802,1465,975
1234,900,-334,-1067,786,281,393,1848,1983,1856,1537,1065
1300,1008,-292,-1157,798,353,147,1488,1815,1844,1591,1155
1306,1050,-256,-1181,786,395,-14,1128,1593,1772,1567,1191
1234,978,-250,-1109,744,359,-122,774,1269,1526,1411,1113
1054,840,-214,-947,636,305,-170,372,849,1154,1117,939
820,660,-160,-743,492,245,-212,-83,357,716,757,705
622,486,-130,-557,378,173,-356,-599,-152,272,397,465
394,396,2,-395,198,197,-530,-1169,-710,-123,85,273
136,306,163,-221,-18,239,-650,-1631,-1154,-447,-154,123
-44,144,181,-53,-120,161,-704,-1817,-1370,-663,-334,-2
-104,-24,86,61,-96,36,-698,-1757,-1370,-777,-448,-128
-146,-161,-22,144,-66,-90,-644,-1601,-1286,-801,-514,-242
-170,-251,-76,204,-54,-168,-620,-1475,-1214,-801,-550,-296
-170,-281,-112,222,-36,-198,-620,-1385,-1160,-777,-550,-326
-170,-287,-112,228,-36,-204,-638,-1307,-1106,-759,-538,-338
-170,-299,-136,228,-18,-216,-680,-1265,-1076,-747,-538,-350
-170,-299,-136,228,-18,-216,-704,-1217,-1034,-711,-520,-338
-164,-269,-112,204,-30,-192,-680,-1097,-926,-651,-484,-320
-158,-245,-94,192,-36,-168,-644,-971,-812,-579,-436,-302
-158,-245,-94,192,-36,-168,-608,-863,-722,-531,-424,-302
-158,-257,-106,198,-30,-180,-542,-737,-632,-471,-394,-302
-158,-233,-82,186,-42,-156,-446,-605,-512,-393,-346,-272
-134,-185,-58,150,-42,-120,-338,-485,-428,-315,-274,-230
-128,-113,8,108,-72,-54,-266,-395,-356,-255,-232,-200
-110,-89,14,102,-66,-36,-218,-329,-302,-213,-196,-182
-98,-119,-28,102,-36,-72,-182,-293,-272,-183,-166,-158
-98,-131,-40,102,-30,-84,-152,-263,-248,-171,-142,-152
-86,-119,-40,102,-24,-78,-140,-239,-224,-171,-154,-152
-50,-107,-64,85,6,-84,-134,-209,-200,-165,-154,-158
-32,-119,-94,79,30,-108,-134,-179,-176,-159,-160,-170
-32,-137,-112,91,36,-126,-116,-161,-158,-147,-166,-170
-32,-167,-136,102,54,-156,-98,-143,-134,-135,-160,-170
-20,-155,-136,91,60,-150,-74,-119,-116,-105,-136,-146
-20,-161,-142,97,60,-156,-50,-101,-110,-81,-106,-134
-26,-149,-124,91,48,-138,-44,-101,-110,-75,-100,-134
-32,-143,-112,91,42,-132,-38,-101,-110,-69,-94,-128
-32,-131,-106,85,36,-120,-32,-107,-104,-69,-94,-128
-38,-125,-94,85,24,-108,-26,-107,-104,-81,-94,-128
-32,-119,-94,79,30,-108,-50,-101,-110,-87,-112,-134
-32,-119,-94,79,30,-108,-56,-95,-110,-93,-118,-140
-26,-131,-112,85,42,-120,-56,-83,-98,-93,-118,-146
-26,-125,-106,79,36,-114,-50,-77,-92,-99,-118,-152
-20,-125,-112,79,42,-120,-44,-65,-86,-81,-106,-146
-20,-125,-112,79,42,-120,-32,-65,-80,-75,-106,-146
-14,-107,-100,67,42,-102,-20,-65,-80,-63,-100,-140
-14,-107,-100,67,42,-102,-14,-59,-80,-63,-88,-128
-20,-113,-100,73,36,-108,-8,-59,-80,-63,-88,-128
-20,-113,-100,73,36,-108,-8,-53,-74,-63,-88,-134
-20,-119,-106,73,42,-114,-2,-53,-74,-63,-94,-134
-20,-113,-100,73,36,-108,-2,-53,-74,-63,-94,-134
-14,-113,-106,67,42,-108,-8,-41,-68,-63,-94,-134
-14,-113,-106,67,42,-108,-2,-35,-68,-63,-94,-134
-14,-119,-112,73,48,-114,-8,-29,-56,-57,-94,-134
-14,-125,-112,73,48,-120,-2,-29,-56,-51,-88,-134
-14,-131,-118,79,54,-126,4,-29,-56,-51,-88,-134
-14,-125,-112,73,48,-120,-2,-29,-50,-51,-88,-134
-8,-113,-112,67,48,-114,4,-23,-50,-51,-82,-128
-8,-113,-112,67,48,-114,4,-23,-50,-57,-82,-128
-2,-107,-112,61,54,-108,-2,-29,-50,-51,-82,-134
-2,-119,-118,67,60,-120,-2,-29,-50,-51,-88,-128
-2,-113,-112,61,54,-114,-8,-35,-50,-45,-88,-134
4,-113,-118,61,60,-120,-8,-35,-44,-45,-88,-134
-2,-119,-118,67,60,-120,-2,-29,-44,-45,-88,-134
-8,-119,-112,67,54,-120,4,-29,-44,-45,-82,-134
-14,-125,-112,73,48,-120,10,-23,-38,-51,-82,-134
-14,-125,-112,73,48,-120,10,-23,-38,-51,-88,-134
-20,-113,-100,73,36,-108,4,-23,-44,-51,-88,-140
-20,-101,-88,67,30,-96,-2,-23,-44,-51,-82,-140
-26,-101,-82,67,24,-90,-8,-23,-44,-51,-82,-134
-26,-107,-88,73,30,-96,-8,-23,-38,-51,-76,-128
-20,-113,-100,73,36,-108,-8,-11,-38,-51,-76,-134
-14,-125,-112,73,48,-120,-8,-11,-38,-51,-76,-122
-8,-107,-106,61,48,-108,-14,-17,-44,-45,-88,-140
-8,-95,-94,55,42,-96,-20,-17,-44,-45,-88,-140
-8,-95,-94,55,42,-96,-14,-11,-32,-45,-82,-134
-2,-95,-100,55,48,-96,-8,-11,-32,-45,-82,-134
4,-95,-106,49,54,-102,-2,1,-26,-39,-76,-122
4,-95,-106,49,54,-102,4,1,-26,-39,-76,-122
-2,-95,-100,55,48,-96,4,13,-20,-33,-64,-128
-2,-95,-100,55,48,-96,4,19,-14,-33,-64,-128
-8,-95,-94,55,42,-96,-2,19,-14,-39,-64,-128
-8,-95,-94,55,42,-96,-2,19,-14,-39,-64,-128
-8,-101,-100,61,42,-102,-8,19,-20,-33,-70,-128
-2,-83,-88,49,42,-84,-14,25,-20,-33,-70,-128
10,-89,-106,43,54,-96,-14,37,-14,-27,-76,-128
10,-101,-112,49,60,-108,-14,37,-14,-21,-70,-122
10,-89,-106,43,54,-96,-8,42,-14,-27,-70,-122
16,-89,-112,43,60,-102,-8,42,-8,-27,-70,-122
10,-95,-112,49,60,-102,-2,42,-8,-27,-64,-104
10,-95,-112,49,60,-102,-2,48,-2,-21,-64,-116
16,-83,-106,37,60,-96,-8,48,-2,-21,-58,-116
22,-77,-106,31,60,-90,-8,54,4,-15,-58,-110
28,-71,-106,25,66,-90,-14,54,9,-9,-52,-110
40,-53,-100,13,66,-78,-14,54,9,-9,-52,-110
40,-53,-100,13,66,-78,-8,66,9,-3,-46,-98
40,-53,-100,13,66,-78,-8,66,15,3,-40,-98
34,-47,-88,13,60,-66,-2,78,15,3,-40,-98
34,-42,-76,7,54,-54,-8,78,15,3,-40,-92
46,-42,-82,-5,66,-54,-8,90,27,15,-34,-92
58,-42,-94,-11,78,-60,-8,96,33,21,-22,-80
64,-42,-100,-11,84,-66,-8,114,39,33,-16,-74
64,-30,-88,-17,78,-54,-20,120,51,39,-16,-74
70,-30,-100,-23,90,-60,-14,132,57,51,2,-56
76,-30,-106,-29,90,-60,-14,132,69,57,2,-50
76,-36,-112,-23,90,-66,-14,138,81,68,14,-44
76,-42,-112,-23,96,-72,-14,144,93,68,20,-32
76,-30,-106,-29,90,-60,-20,150,93,68,20,-26
82,-24,-106,-35,90,-60,-26,150,93,74,25,-26
88,-30,-112,-35,102,-66,-26,168,93,74,25,-14
88,-30,-112,-35,102,-66,-26,180,105,86,31,-8
100,-12,-112,-47,102,-54,-38,174,105,92,31,-8
106,12,-94,-65,96,-36,-50,174,105,92,31,-2
118,30,-88,-77,102,-24,-62,174,111,92,31,-8
124,36,-88,-83,102,-18,-68,174,111,104,43,4
136,24,-112,-83,120,-36,-62,174,123,110,49,9
148,24,-118,-89,132,-42,-68,180,123,116,55,9
148,24,-118,-89,132,-42,-68,180,123,116,67,21
148,36,-112,-95,126,-30,-74,174,123,116,73,21
148,48,-100,-101,120,-18,-80,174,123,122,73,21
148,48,-100,-101,120,-18,-80,174,123,122,79,33
148,54,-94,-107,120,-12,-68,168,123,122,73,33
154,54,-100,-107,126,-18,-80,162,117,122,73,33
160,66,-94,-119,126,-6,-92,156,111,122,73,33
166,66,-100,-119,132,-12,-92,150,111,122,73,39
172,60,-112,-119,138,-18,-92,144,111,122,73,45
172,60,-112,-119,138,-18,-98,144,111,122,73,45
166,66,-100,-119,132,-12,-98,132,105,110,73,45
166,66,-100,-119,132,-12,-98,132,105,122,73,45
166,66,-100,-119,132,-12,-86,138,111,122,79,45
172,72,-100,-125,132,-6,-86,132,105,116,79,45
172,78,-94,-131,132,0,-98,120,99,116,67,45
172,78,-94,-131,132,0,-98,120,99,116,67,45
166,84,-82,-131,120,6,-104,114,87,116,61,45
166,84,-82,-131,120,6,-98,114,87,110,61,39
160,78,-82,-125,120,6,-92,120,93,116,67,39
160,72,-88,-119,120,0,-92,126,93,116,67,33
154,66,-88,-113,120,-6,-74,132,105,122,73,33
154,66,-88,-113,120,-6,-68,138,105,122,73,33
154,66,-88,-113,120,-6,-62,132,111,122,73,33
142,66,-76,-107,108,0,-56,132,111,122,73,33
142,60,-82,-107,108,-6,-38,132,117,122,67,27
142,54,-88,-101,114,-12,-38,132,117,122,61,27
130,42,-88,-89,108,-18,-20,132,111,122,61,27
118,42,-76,-83,96,-12,-20,132,111,122,61,27
106,42,-64,-77,90,-6,-8,120,105,116,61,15
100,48,-52,-77,78,6,-2,114,105,116,55,15
94,48,-46,-77,72,6,4,114,105,110,55,9
82,30,-52,-59,72,-6,16,108,99,104,49,15
82,24,-58,-59,72,-12,22,102,93,104,49,15
70,24,-40,-47,54,0,22,96,87,98,43,21
64,12,-46,-41,54,-12,22,84,87,98,43,15
64,0,-58,-35,60,-24,33,78,81,98,37,15
46,-6,-46,-23,48,-18,33,66,69,86,31,15
46,-6,-46,-23,48,-18,33,60,63,80,31,9
40,-12,-46,-17,42,-24,28,54,63,68,25,9
28,-6,-28,-11,30,-12,33,42,57,68,25,9
34,6,-22,-23,30,0,28,42,51,63,14,4
22,12,-4,-17,12,12,28,42,45,57,14,4
22,0,-16,-11,18,0,33,31,39,57,14,4
22,0,-16,-11,18,0,28,25,33,51,8,-2
16,-12,-22,-5,18,-12,33,13,27,51,8,-2
10,-24,-28,7,18,-18,33,13,21,51,2,-8
10,-24,-28,7,18,-18,33,13,15,45,2,-2
4,-24,-22,7,12,-18,33,7,9,45,-4,-2
4,-24,-22,7,12,-18,22,1,9,39,-4,4
4,-30,-28,13,18,-24,22,-5,9,39,-4,4
-2,-24,-16,13,6,-12,22,-5,9,33,-10,-8
-2,-24,-16,13,6,-12,22,-5,9,33,-10,-8
-8,-18,-4,13,0,-6,22,-11,9,21,-16,-14
-8,-18,-4,13,0,-6,22,-17,9,21,-28,-14
-14,-30,-10,19,0,-12,28,-11,9,27,-10,-8
-14,-42,-28,31,6,-30,28,-11,9,33,-10,-2
-20,-47,-34,37,6,-42,33,-5,9,39,-10,-2
-26,-59,-40,49,6,-48,33,-5,9,39,-10,4
-20,-47,-34,37,6,-42,28,-11,9,33,-16,-2
-20,-42,-22,31,0,-30,22,-11,4,27,-22,-8
-14,-42,-28,31,6,-30,16,-17,-2,21,-28,-14
-20,-24,2,19,-12,-6,10,-17,-8,15,-34,-20
-26,-30,2,25,-12,-6,22,-17,-2,21,-28,-20
-26,-24,8,25,-18,0,22,-17,-2,21,-28,-20
-26,-30,2,25,-12,-6,22,-17,4,27,-28,-20
-26,-42,-10,31,-6,-18,22,-17,4,27,-28,-20
-38,-42,2,37,-18,-12,28,-11,9,33,-22,-14
-38,-36,8,37,-24,-6,33,1,9,33,-22,-14
-38,-36,8,37,-24,-6,33,7,9,39,-16,-8
-38,-42,-4,43,-18,-18,39,13,9,45,-16,-8
-32,-42,-16,43,-12,-30,33,13,9,45,-10,-8
-26,-42,-22,37,-6,-30,33,13,9,45,-10,-8
-20,-47,-34,37,6,-42,33,13,15,45,-4,-8
-20,-53,-40,43,6,-48,28,13,15,51,-4,-8
-26,-47,-28,43,0,-36,33,13,21,51,-10,-8
-32,-42,-16,43,-12,-30,33,13,21,51,-10,-8
-32,-42,-10,37,-12,-24,33,13,33,45,-10,-8
-38,-42,-4,43,-18,-18,33,13,33,45,-10,-8
-32,-42,-4,37,-12,-18,33,19,27,51,-10,-2
-32,-30,8,31,-18,-6,33,25,33,57,-4,-2
-26,-24,8,25,-18,0,33,25,27,57,-10,-2
-26,-18,14,19,-18,6,33,25,27,63,-10,-2
-26,-24,8,25,-18,0,33,37,39,63,-4,-2
-26,-30,2,25,-12,-6,33,37,45,68,2,4
-26,-36,-4,31,-12,-12,33,37,51,68,8,4
-26,-30,2,25,-12,-6,33,37,51,68,8,4
-26,-24,8,25,-18,0,33,37,45,63,2,4
-20,-24,2,19,-12,-6,33,42,51,68,2,4
-20,-30,-4,25,-6,-12,33,42,45,63,-4,-2
-20,-30,-4,25,-6,-12,33,42,45,63,-4,-2
-20,-12,14,13,-18,6,33,37,45,63,-4,-2
-20,-12,14,13,-18,6,33,37,45,63,-4,-2
-20,-18,8,19,-12,0,33,37,51,68,2,-2
-20,-18,8,19,-12,0,33,37,51,68,2,-2
-26,-6,26,13,-24,18,33,37,51,68,2,-2
-20,-6,20,13,-18,12,33,37,51,68,2,-2
-26,-6,26,13,-24,18,33,37,51,68,2,-2
-26,6,38,7,-30,30,33,31,51,68,2,-2
-26,0,32,13,-30,24,33,37,51,68,8,4
-26,-12,20,19,-24,12,33,42,51,68,8,4
-26,-24,8,25,-18,0,33,42,51,68,14,9
-26,-24,8,25,-18,0,33,42,51,68,14,9
-26,-24,8,25,-18,0,33,42,45,68,8,4
-26,-18,14,19,-18,6,33,42,45,68,8,4
-26,-6,26,13,-24,18,28,31,39,68,2,-2
-26,0,32,13,-30,24,28,31,39,68,8,-2
-32,-12,26,19,-30,12,33,31,45,68,14,4
-32,-18,20,25,-24,6,33,31,45,68,14,4
-32,-12,26,19,-30,12,33,25,45,74,14,9
-32,-18,20,25,-24,6,33,25,45,68,8,4
-32,-18,20,25,-24,6,33,25,45,68,2,-2
-32,-18,20,25,-24,6,33,19,45,68,8,-2
-32,-12,26,19,-30,12,28,19,45,68,2,-8
-38,-12,32,25,-36,18,28,19,33,63,-4,-8
-38,-12,32,25,-36,18,22,7,27,63,2,-8
-44,-12,38,25,-42,18,22,7,27,63,2,-8
-44,-24,26,31,-36,6,16,7,21,68,8,-14
-38,-30,14,31,-24,0,16,7,21,68,2,-14
-38,-30,14,31,-24,0,22,13,27,68,2,-8
-38,-30,14,31,-24,0,28,13,21,68,2,-8
-38,-24,20,31,-30,6,33,13,27,68,2,-2
-38,-24,20,31,-30,6,33,13,27,68,2,-2
-38,-24,20,31,-30,6,33,7,21,68,-4,-2
-44,-24,26,31,-36,6,28,7,21,63,-4,-2
-44,-36,14,37,-30,-6,22,1,21,63,-4,-2
-44,-36,14,37,-30,-6,16,-5,21,63,2,-2
-50,-36,20,43,-36,0,16,-11,15,63,2,-2
-50,-36,20,43,-36,0,16,-17,15,57,-4,-14
-56,-42,20,49,-36,-6,22,-17,15,57,-4,-14
-56,-42,8,55,-36,-18,22,-17,15,57,-4,-8
-56,-42,14,49,-36,-12,28,-11,15,57,-4,-8
-56,-42,14,49,-36,-12,28,-11,15,57,-4,-8
-56,-42,20,49,-36,-6,33,-5,9,57,-10,-8
-56,-30,32,43,-42,6,28,-5,9,51,-10,-8
-44,-30,20,37,-30,0,16,-11,15,51,2,-8
-44,-36,14,37,-30,-6,28,1,15,63,2,-8
-44,-36,14,37,-30,-6,33,-11,15,63,2,-2
-56,-36,26,43,-42,0,28,-11,9,51,-4,-8
-62,-42,26,49,-42,0,28,-17,9,51,-4,-8
-62,-42,26,49,-42,0,28,-17,9,51,-4,-8
-68,-42,26,55,-48,-6,28,-23,4,51,-4,-8
-68,-42,26,55,-48,-6,28,-23,4,51,-4,-8
-68,-42,32,55,-48,0,22,-23,4,45,-4,-14
-68,-42,32,55,-48,0,22,-29,-2,39,-4,-14
-68,-36,38,49,-54,6,16,-29,-2,33,-4,-20
-68,-30,44,49,-54,12,16,-29,-2,33,-4,-20
-68,-30,44,49,-54,12,10,-29,-2,33,-10,-20
-68,-24,50,43,-60,18,4,-29,-8,27,-10,-20
-56,-30,32,43,-42,6,-2,-29,-8,27,-10,-20
-56,-42,14,49,-36,-12,10,-23,-8,33,-10,-14
-62,-42,26,49,-42,0,16,-17,-2,39,-4,-8
-62,-36,32,49,-48,6,10,-29,-2,39,-4,-14
-68,-30,44,49,-54,12,16,-23,4,45,2,-14
-68,-30,44,49,-54,12,16,-23,4,45,8,-14
-68,-30,44,49,-54,12,10,-29,4,39,2,-20
-74,-24,56,49,-66,24,10,-23,4,39,-4,-20
-74,-24,56,49,-66,24,4,-29,4,33,-10,-26
-68,-30,44,49,-54,12,10,-29,4,33,-10,-26
-62,-36,32,49,-48,6,16,-29,4,45,-4,-14
-50,-30,26,37,-36,6,16,-23,4,45,2,-14
-44,-24,26,31,-36,6,16,-23,9,45,8,-8
-38,-24,20,31,-30,6,10,-23,9,45,8,-8
-44,-18,32,31,-36,12,4,-29,4,39,2,-14
-38,12,56,13,-48,41,-2,-35,4,39,2,-14
-44,18,68,13,-54,41,-8,-41,-2,33,-4,-20
-38,30,74,1,-54,47,4,-47,4,39,2,-26
-26,36,68,-5,-48,47,16,-35,9,51,2,-20
-26,42,74,-11,-48,53,33,-17,9,63,8,-8
-32,36,74,-5,-54,47,28,1,15,68,14,-2
-14,48,68,-17,-42,53,33,1,21,68,25,4
-8,42,56,-17,-30,41,39,19,39,68,25,9
-14,42,62,-17,-36,47,57,19,51,80,37,15
-8,42,56,-17,-30,41,69,31,57,92,49,21
-8,54,68,-23,-36,53,81,42,63,92,49,27
-14,66,86,-29,-48,71,93,42,69,92,43,33
-14,66,86,-29,-48,71,93,42,69,92,43,33
-20,72,98,-29,-60,77,99,42,75,92,43,33
-26,72,104,-23,-66,83,93,42,69,92,43,33
-32,72,110,-23,-72,83,105,42,75,98,49,33
-32,72,110,-23,-72,83,93,42,75,98,49,33
-32,84,122,-29,-78,95,93,42,81,98,55,33
-20,84,110,-35,-66,89,87,42,81,98,55,33
-14,90,110,-41,-60,95,81,42,69,98,55,33
-8,102,116,-47,-60,101,75,42,69,104,55,27
10,102,98,-59,-42,95,63,31,63,98,55,27
22,108,92,-65,-36,95,51,25,63,98,55,21
28,108,86,-71,-30,89,39,25,63,104,61,27
34,120,92,-77,-30,101,33,13,63,104,67,33
46,114,74,-83,-12,89,22,13,63,104,67,45
46,114,74,-83,-12,89,16,7,63,104,67,51
40,108,74,-77,-18,83,-2,-11,57,104,61,57
40,102,68,-71,-12,77,-14,-17,45,98,61,51
34,108,80,-71,-24,89,-38,-29,33,98,55,57
34,102,74,-71,-18,83,-56,-41,27,92,49,45
40,96,62,-71,-12,71,-56,-47,21,86,43,39
40,96,62,-71,-12,71,-56,-47,27,80,37,33
52,84,38,-71,6,53,-56,-47,21,74,31,21
52,54,8,-53,24,36,-56,-47,21,68,25,15
40,30,-4,-35,24,18,-62,-53,15,63,20,9
40,30,-4,-35,24,18,-56,-53,15,63,20,9
28,24,2,-29,12,18,-56,-53,9,63,20,9
28,18,-4,-23,18,12,-50,-53,9,63,20,9
28,24,2,-29,12,18,-56,-59,9,57,20,9
28,18,-4,-23,18,12,-56,-53,9,57,20,9
22,18,2,-23,12,18,-50,-53,4,51,8,-2
16,12,2,-17,6,12,-44,-53,4,45,8,-2
-20,0,26,7,-24,18,-32,-53,4,45,8,-8
-32,-18,20,25,-24,6,-32,-59,-2,45,2,-8
-56,-24,38,37,-48,12,-32,-59,-2,51,2,-20
-62,-24,44,43,-54,18,-32,-59,-2,51,2,-26
-74,-30,50,49,-60,18,-14,-59,4,39,-4,-32
-80,-42,38,61,-60,0,-14,-53,4,33,-16,-38
-80,-42,32,67,-60,-6,-8,-53,-2,33,-16,-44
-80,-42,32,67,-60,-6,-14,-47,-8,27,-22,-50
-80,-42,32,67,-60,-6,-14,-53,-8,27,-22,-50
-86,-53,26,73,-60,-12,-14,-59,-8,27,-22,-50
-80,-53,20,73,-54,-18,-8,-65,-2,27,-22,-44
-80,-47,26,67,-54,-12,-8,-65,-2,27,-22,-44
-86,-47,32,73,-60,-6,-14,-65,-14,21,-28,-50
-92,-42,44,73,-72,0,-14,-71,-14,9,-28,-50
-98,-42,50,73,-78,6,-20,-71,-20,3,-28,-56
-98,-42,50,73,-78,6,-20,-71,-20,-3,-34,-56
-92,-47,38,73,-66,-6,-8,-65,-20,3,-34,-56
-98,-47,44,79,-72,0,-8,-65,-20,3,-34,-56
-92,-53,32,79,-66,-12,-8,-59,-26,3,-34,-62
-92,-65,20,85,-60,-24,-8,-59,-26,3,-34,-62
-86,-65,14,79,-54,-24,4,-59,-14,27,-34,-50
-98,-101,-10,102,-48,-54,10,-59,-2,27,-22,-50
-104,-107,-10,102,-48,-60,4,-47,-8,15,-28,-62
-92,-65,20,85,-60,-24,-14,-53,-8,3,-52,-80
-92,-47,38,73,-66,-6,-8,-47,-14,-9,-58,-98
-92,-101,-16,102,-42,-60,33,1,9,9,-46,-92
-80,-125,-52,102,-18,-90,75,60,45,39,-34,-80
-92,-107,-22,102,-36,-66,123,126,87,63,-28,-80
-92,-47,38,73,-66,-6,165,198,153,92,8,-62
-68,48,122,7,-96,77,189,282,243,152,55,-20
-8,114,127,-53,-66,113,219,396,351,248,127,9
58,72,20,-65,18,41,279,564,513,386,241,99
130,114,-16,-125,78,41,321,768,687,530,355,159
214,234,26,-227,90,125,375,990,897,698,475,231
334,312,-22,-329,180,143,483,1314,1185,926,661,357
484,366,-112,-425,300,119,609,1674,1521,1202,901,537
622,468,-148,-551,384,155,657,1890,1743,1418,1075,663
778,582,-190,-677,486,191,669,2004,1893,1568,1213,765
922,660,-262,-791,588,197,705,2141,2049,1718,1351,873
1036,744,-286,-887,660,227,699,2171,2156,1862,1495,993
1126,852,-274,-989,702,281,531,1980,2114,1952,1609,1125
1198,984,-208,-1097,702,383,267,1602,1935,1952,1663,1203
1240,1086,-148,-1163,696,467,33,1188,1677,1838,1639,1227
1186,1074,-112,-1127,648,479,-62,858,1377,1616,1471,1161
1012,942,-64,-977,540,437,-98,516,999,1274,1201,993
790,726,-58,-761,420,329,-122,96,555,866,859,783
586,522,-64,-557,330,227,-170,-365,63,434,511,579
358,432,74,-395,144,251,-308,-923,-476,45,205,393
100,354,247,-227,-78,299,-458,-1427,-962,-321,-46,243
-56,222,277,-89,-161,251,-542,-1685,-1238,-561,-238,105
-116,60,169,25,-150,113,-542,-1643,-1262,-681,-376,-32
-170,-53,110,102,-144,30,-500,-1493,-1184,-705,-448,-152
-217,-119,104,162,-155,-12,-464,-1373,-1112,-705,-478,-218
-241,-143,104,186,-167,-24,-464,-1277,-1040,-681,-478,-242
-229,-185,50,204,-150,-72,-482,-1199,-998,-663,-478,-266
-229,-233,2,228,-126,-120,-524,-1163,-980,-663,-478,-278
-229,-233,2,228,-126,-120,-566,-1139,-956,-663,-484,-290
-223,-233,-4,222,-120,-120,-584,-1061,-890,-639,-460,-296
-217,-233,-10,222,-114,-126,-572,-959,-788,-567,-436,-278
-205,-221,-10,210,-108,-120,-536,-851,-692,-507,-400,-266
-229,-209,26,216,-138,-96,-494,-749,-632,-471,-394,-290
-253,-221,38,234,-150,-96,-434,-653,-548,-417,-358,-284
-229,-197,38,210,-144,-84,-338,-533,-452,-339,-286,-248
-187,-137,56,156,-132,-42,-254,-419,-356,-255,-220,-212
-170,-89,86,126,-138,-6,-200,-341,-278,-189,-184,-170
-170,-83,92,120,-138,0,-146,-293,-230,-165,-154,-158
-170,-95,68,120,-120,-12,-116,-263,-206,-147,-154,-152
-158,-83,68,108,-114,-6,-92,-215,-176,-147,-142,-140
-134,-107,20,108,-78,-42,-74,-179,-140,-129,-142,-134
-128,-143,-22,126,-54,-84,-62,-143,-116,-111,-124,-122
-140,-137,-4,126,-72,-72,-68,-137,-110,-111,-130,-134
-140,-107,26,114,-84,-42,-74,-143,-110,-123,-136,-158
-128,-95,26,102,-78,-36,-62,-131,-104,-93,-124,-158
-116,-101,8,102,-66,-48,-26,-101,-62,-57,-94,-122
-122,-101,14,102,-72,-42,-14,-89,-50,-45,-82,-116
-128,-95,26,102,-78,-36,-8,-83,-50,-39,-76,-110
-128,-95,26,102,-78,-36,4,-77,-32,-33,-70,-104
-134,-89,38,102,-90,-24,10,-71,-32,-45,-70,-104
-128,-89,32,102,-84,-30,-8,-71,-44,-51,-88,-110
-128,-95,26,102,-78,-36,-8,-65,-50,-57,-88,-116
-122,-113,2,108,-66,-54,-2,-59,-44,-57,-88,-122
-122,-113,2,108,-66,-54,10,-53,-44,-63,-82,-128
-122,-107,8,102,-66,-48,10,-41,-32,-51,-76,-122
-122,-107,8,102,-66,-48,16,-41,-26,-45,-76,-122
-122,-83,32,102,-78,-24,22,-41,-20,-39,-76,-116
-122,-83,32,102,-78,-24,22,-35,-20,-39,-64,-104
-122,-89,26,102,-78,-30,28,-29,-14,-33,-64,-104
-122,-95,20,102,-72,-36,33,-23,-8,-33,-64,-110
-116,-101,8,102,-66,-48,33,-17,-2,-27,-70,-110
-116,-101,8,102,-66,-48,33,-17,-2,-27,-70,-110
-110,-95,8,102,-60,-42,33,-17,-8,-27,-70,-110
-110,-89,14,102,-66,-36,33,-11,-8,-27,-70,-110
-110,-89,14,102,-66,-36,33,-17,-8,-21,-70,-110
-110,-89,14,102,-66,-36,33,-17,-8,-15,-64,-110
-110,-95,8,102,-60,-42,33,-11,-2,-15,-64,-104
-110,-89,14,102,-66,-36,33,-11,4,-15,-64,-104
-104,-77,20,97,-66,-30,33,1,9,-15,-58,-92
-104,-77,20,97,-66,-30,33,1,9,-21,-58,-92
-104,-83,14,97,-60,-36,33,-5,4,-21,-58,-98
-104,-95,2,102,-54,-48,33,-5,4,-21,-64,-98
-110,-101,2,102,-60,-48,28,-11,-2,-21,-64,-104
-104,-101,-4,102,-54,-54,28,-11,4,-21,-64,-110
-104,-95,2,102,-54,-48,33,-5,4,-15,-64,-110
-110,-95,8,102,-60,-42,33,-5,4,-15,-58,-110
-110,-89,14,102,-66,-36,33,1,9,-15,-58,-110
-110,-89,14,102,-66,-36,33,1,9,-15,-64,-110
-104,-71,26,91,-66,-24,33,1,4,-21,-70,-116
-104,-59,38,85,-72,-12,33,1,4,-21,-64,-116
-98,-53,38,79,-72,-6,33,1,4,-27,-70,-110
-98,-59,32,85,-66,-12,33,1,9,-27,-64,-104
-92,-77,8,91,-54,-36,39,19,9,-21,-52,-98
-86,-95,-16,97,-36,-54,39,19,9,-21,-52,-86
-80,-89,-16,91,-36,-54,45,19,15,-9,-52,-92
-80,-83,-10,85,-36,-48,39,19,15,-9,-52,-92
-86,-77,2,85,-48,-36,33,13,15,-15,-52,-98
-80,-77,-4,85,-42,-42,33,13,15,-15,-52,-98
-80,-71,2,79,-42,-36,33,13,9,-15,-52,-98
-80,-71,2,79,-42,-36,28,13,9,-15,-52,-98
-80,-71,2,79,-42,-36,33,31,21,-3,-40,-98
-80,-71,2,79,-42,-36,33,37,27,-3,-40,-98
-80,-71,2,79,-42,-36,33,42,33,-3,-40,-92
-80,-71,2,79,-42,-36,33,42,33,-3,-40,-92
-86,-71,8,85,-48,-30,28,37,27,-3,-46,-98
-80,-53,20,73,-54,-18,22,42,27,-3,-46,-98
-74,-53,14,67,-48,-18,22,42,33,-3,-52,-104
-74,-65,2,73,-42,-30,22,42,33,3,-46,-98
-68,-59,2,67,-36,-30,28,48,39,9,-40,-92
-62,-59,-4,67,-30,-30,33,54,45,9,-34,-86
-62,-71,-16,73,-24,-42,33,60,51,21,-22,-62
-62,-71,-16,73,-24,-42,33,72,57,27,-16,-68
-62,-53,2,61,-36,-24,33,72,51,21,-16,-74
-62,-47,8,61,-36,-18,33,78,57,21,-22,-68
-62,-42,20,55,-42,-6,28,78,57,21,-22,-74
-56,-30,32,43,-42,6,22,78,57,15,-28,-74
-50,-42,14,43,-30,-6,28,96,75,27,-16,-56
-50,-42,8,49,-30,-12,33,102,87,39,-10,-56
-50,-42,2,49,-30,-18,33,120,93,45,-4,-50
-50,-42,8,49,-30,-12,33,126,99,51,-4,-44
-44,-42,8,43,-24,-12,33,126,105,57,2,-44
-32,-42,-4,37,-12,-18,33,132,111,63,14,-32
-32,-42,-4,37,-12,-18,28,138,111,68,20,-26
-32,-30,8,31,-18,-6,16,144,123,68,20,-26
-14,-18,2,13,-6,0,16,156,123,68,25,-20
-8,-6,8,7,-6,6,16,156,129,68,25,-14
-2,0,8,1,-6,12,10,162,135,74,25,-20
-2,6,14,-5,-6,18,10,168,141,80,31,-8
10,18,14,-17,0,24,10,174,153,92,37,4
16,18,8,-17,6,18,4,174,153,98,43,4
34,12,-16,-23,24,6,10,192,165,110,55,9
34,6,-22,-23,30,0,10,204,177,122,67,15
40,24,-10,-35,24,12,-2,198,177,128,67,21
46,42,2,-47,24,30,-8,198,177,128,67,27
52,60,14,-59,18,41,-20,198,183,128,67,27
58,60,8,-59,24,41,-20,198,183,140,79,39
70,60,-4,-65,36,36,-20,198,195,140,85,45
76,60,-16,-71,48,30,-26,204,195,146,91,51
76,72,-4,-77,42,41,-32,204,195,140,103,57
76,84,8,-83,36,41,-38,198,195,140,109,57
88,90,2,-95,48,41,-38,198,195,146,115,57
94,90,-4,-95,54,41,-38,198,195,146,121,69
106,90,-16,-101,66,41,-20,192,195,146,121,69
118,90,-28,-107,78,36,-32,186,189,146,121,69
112,96,-16,-107,66,41,-50,174,177,140,115,63
118,96,-22,-113,72,41,-50,168,177,140,109,69
112,84,-28,-101,72,36,-56,156,171,134,103,69
112,84,-28,-101,72,36,-62,156,171,134,97,69
112,96,-16,-107,66,41,-74,132,153,116,91,69
112,102,-10,-113,66,41,-74,132,153,128,91,63
118,108,-10,-119,66,41,-74,126,147,122,91,63
124,120,-4,-125,66,53,-74,120,141,116,91,57
130,114,-16,-125,78,41,-74,114,141,122,91,57
130,108,-22,-125,78,41,-74,114,141,122,91,57
130,102,-28,-119,84,41,-68,114,135,128,97,57
130,96,-34,-119,84,36,-62,114,135,122,97,51
118,96,-22,-113,72,41,-62,114,135,122,91,57
118,90,-28,-107,78,36,-62,114,135,122,91,51
106,90,-16,-101,66,41,-50,114,141,122,85,57
106,90,-16,-101,66,41,-44,114,141,122,85,57
106,96,-10,-107,60,41,-38,108,141,122,91,57
94,96,2,-101,48,41,-32,108,141,122,91,57
94,96,2,-101,48,41,-14,108,141,122,91,51
94,90,-4,-95,54,41,-14,108,141,122,85,51
88,78,-10,-89,54,41,-2,108,141,122,85,45
76,78,2,-83,42,41,-2,108,141,122,85,45
70,78,8,-77,36,41,4,96,141,116,85,27
70,84,20,-77,24,47,10,90,141,116,79,27
64,84,26,-77,18,47,16,96,141,110,73,15
52,66,20,-59,18,41,28,90,135,104,67,15
52,60,14,-59,18,41,33,90,129,104,61,9
34,60,32,-47,0,41,33,84,123,98,55,9
28,60,38,-47,-6,41,33,78,129,98,55,9
28,54,32,-41,0,41,33,72,123,98,49,9
10,60,56,-35,-24,53,33,66,117,86,43,9
10,66,62,-41,-24,59,33,60,111,80,43,9
-2,42,50,-23,-24,41,39,54,111,74,43,4
-14,36,56,-11,-36,41,45,42,105,68,37,-8
-14,30,50,-11,-30,41,51,42,99,68,25,-20
-26,24,56,1,-42,41,51,42,93,68,25,-20
-26,12,44,7,-36,36,45,37,87,57,25,-26
-26,12,44,7,-36,36,39,31,81,51,20,-32
-32,0,38,13,-36,24,33,25,75,39,8,-38
-38,-12,32,25,-36,18,39,25,69,39,2,-44
-44,-6,44,25,-42,24,39,19,57,33,2,-44
-50,0,56,25,-54,36,39,13,51,33,-4,-44
-56,6,68,25,-60,41,33,1,45,27,-4,-44
-56,6,68,25,-60,41,33,-5,45,27,-4,-44
-56,6,68,25,-60,41,39,1,51,21,2,-50
-56,6,68,25,-60,41,39,1,51,21,2,-50
-56,6,68,25,-60,41,45,1,45,9,8,-50
-56,6,68,25,-60,41,45,-5,45,9,-4,-50
-50,6,62,19,-54,41,45,-11,39,9,2,-50
-50,0,56,25,-54,36,45,-11,39,9,-4,-50
-44,0,50,19,-48,30,45,-17,33,9,-16,-56
-50,0,56,25,-54,36,45,-17,27,3,-22,-56
-56,-6,56,31,-54,30,45,-11,27,9,-16,-56
-62,-6,62,31,-60,36,45,-11,27,9,-16,-56
-68,-24,50,43,-60,18,45,-5,27,15,-10,-56
-80,-12,74,43,-78,36,45,-5,27,15,-10,-56
-80,-6,80,43,-78,41,57,1,33,15,-10,-50
-80,0,86,37,-84,41,57,1,39,15,-10,-50
-74,6,86,31,-78,41,57,7,45,15,-16,-44
-74,-6,74,37,-72,41,57,7,51,15,-16,-44
-80,-6,80,43,-78,41,51,1,45,15,-16,-50
-80,0,86,37,-84,41,57,7,45,15,-16,-50
-74,0,80,37,-78,41,51,1,39,15,-16,-56
-74,-12,68,43,-72,36,51,1,45,21,-16,-56
-80,-18,68,49,-72,30,57,13,51,21,-10,-50
-74,-12,68,43,-72,36,57,13,51,21,-10,-50
-80,-18,68,49,-72,30,63,25,63,21,-4,-44
-80,-18,68,49,-72,30,63,25,63,27,-4,-44
-74,-6,74,37,-72,41,57,19,57,21,-10,-50
-74,6,86,31,-78,41,57,19,51,21,-10,-50
-62,18,86,19,-72,47,51,13,51,9,-10,-56
-62,24,92,19,-78,53,57,13,45,9,-10,-56
-56,12,74,19,-66,41,63,25,51,21,-4,-44
-56,12,74,19,-66,41,63,31,57,27,2,-44
-50,0,56,25,-54,36,75,37,63,33,2,-38
-50,-6,50,25,-48,30,75,37,63,39,2,-38
-50,-6,50,25,-48,30,69,42,69,39,8,-38
-50,-12,44,31,-48,24,69,42,75,45,14,-32
-50,-12,44,31,-48,24,63,42,75,45,20,-32
-50,-6,50,25,-48,30,63,42,75,45,20,-32
-44,6,56,19,-48,36,57,42,69,39,14,-32
-38,12,56,13,-48,41,57,42,75,45,14,-32
-32,12,50,7,-42,36,51,42,69,39,8,-38
-32,18,56,7,-42,41,45,42,69,39,8,-38
-38,30,74,1,-54,47,45,42,75,39,8,-38
-38,30,74,1,-54,47,45,42,75,39,8,-38
-44,18,68,13,-54,41,45,42,87,45,14,-38
-44,18,68,13,-54,41,45,42,87,45,14,-38
-38,24,68,7,-54,41,51,42,81,45,20,-38
-32,24,62,1,-48,41,51,42,81,45,20,-38
-26,18,50,1,-36,41,57,42,75,45,25,-38
-26,30,62,-5,-42,41,57,42,75,45,25,-38
-32,24,62,1,-48,41,57,42,81,51,20,-32
-32,12,50,7,-42,36,57,42,81,51,20,-32
-38,0,44,19,-42,30,57,42,87,57,14,-26
-38,0,44,19,-42,30,57,42,87,57,14,-26
-32,6,44,13,-36,30,51,42,81,57,14,-32
-32,12,50,7,-42,36,51,42,81,57,14,-32
-26,30,62,-5,-42,41,39,31,75,51,14,-38
-26,36,68,-5,-48,47,39,31,75,51,20,-38
-32,18,56,7,-42,41,45,31,75,45,20,-38
-32,6,44,13,-36,30,45,31,75,45,20,-38
-32,6,44,13,-36,30,45,25,69,39,14,-38
-32,-6,32,19,-30,18,39,25,69,33,8,-44
-38,0,44,19,-42,30,39,25,69,33,2,-38
-38,6,50,13,-42,36,39,19,69,33,8,-38
-44,18,68,13,-54,41,39,19,69,33,2,-32
-50,24,80,13,-66,47,39,19,57,27,-4,-32
-50,24,80,13,-66,47,39,13,57,27,2,-26
-56,18,80,19,-66,41,39,13,57,27,2,-26
-56,6,68,25,-60,41,39,19,57,33,8,-26
-50,-6,50,25,-48,30,39,19,57,33,2,-26
-50,0,56,25,-54,36,39,19,57,33,2,-20
-50,0,56,25,-54,36,39,19,51,33,2,-20
-50,12,68,19,-60,41,39,13,51,33,2,-14
-50,12,68,19,-60,41,39,13,51,33,2,-14
-56,6,68,25,-60,41,39,13,45,27,-4,-14
-62,6,74,25,-66,41,39,13,45,21,-4,-14
-68,-12,62,37,-66,30,39,13,45,15,-4,-14
-68,-12,62,37,-66,30,39,7,45,15,2,-14
-62,0,68,31,-66,41,33,1,33,15,-4,-20
-62,6,74,25,-66,41,33,-5,33,9,-10,-32
-56,12,74,19,-66,41,33,-5,27,9,-16,-38
-56,6,68,25,-60,41,33,-5,27,9,-16,-32
-62,0,68,31,-66,41,33,-5,33,15,-10,-32
-62,-6,62,31,-60,36,33,-5,33,15,-10,-32
-68,-12,62,37,-66,30,33,-5,27,21,-10,-32
-68,-6,68,37,-66,36,33,-5,27,15,-10,-32
-74,0,80,37,-78,41,33,-11,27,9,-10,-26
-80,-6,80,43,-78,41,33,-11,27,9,-10,-26
-86,0,92,43,-90,41,45,-11,27,3,-10,-26
-92,6,104,43,-96,47,45,-17,27,3,-10,-26
-92,-6,92,49,-90,41,33,-17,27,3,-10,-2
-92,18,116,37,-102,59,28,-17,9,3,-22,-14
-98,0,104,49,-102,47,28,-17,21,9,-10,-2
-98,-12,92,55,-96,41,28,-17,21,9,-10,9
-92,-12,86,49,-90,41,28,-23,27,3,-4,4
-92,-18,80,55,-84,36,33,-17,27,3,-4,9
-92,-18,80,55,-84,36,33,-17,27,3,-4,9
-92,-24,74,55,-84,30,33,-11,27,3,-4,9
-92,-24,74,55,-84,30,39,-11,27,3,-4,9
-92,-12,86,49,-90,41,33,-17,21,-3,-10,9
-92,-12,86,49,-90,41,33,-23,15,-9,-10,9
-92,0,98,43,-96,41,33,-29,9,-15,-16,9
-92,6,104,43,-96,47,28,-29,9,-15,-16,9
-98,6,110,43,-102,53,28,-35,9,-15,-22,9
-98,12,116,43,-108,59,22,-35,9,-21,-22,9
-92,6,104,43,-96,47,22,-41,9,-21,-22,15
-92,-12,86,49,-90,41,33,-35,9,-15,-22,21
-92,-6,92,49,-90,41,33,-29,9,-15,-22,21
-92,0,98,43,-96,41,33,-41,9,-15,-22,15
-92,6,104,43,-96,47,33,-35,9,-15,-22,9
-92,6,104,43,-96,47,33,-35,9,-15,-16,9
-92,0,98,43,-96,41,33,-41,9,-15,-16,15
-98,6,110,43,-102,53,33,-35,9,-15,-22,15
-98,0,104,49,-102,47,28,-41,15,-15,-22,21
-92,-6,92,49,-90,41,33,-41,15,-15,-22,21
-98,-6,98,49,-96,41,33,-41,9,-9,-22,33
-92,0,98,43,-96,41,33,-35,9,-9,-16,33
-98,12,116,43,-108,59,28,-35,9,-15,-16,39
-98,12,116,43,-108,59,22,-35,9,-15,-16,39
-92,6,104,43,-96,47,28,-29,15,-9,-16,39
-86,24,116,31,-102,65,28,-23,21,-3,-10,45
-80,18,104,31,-90,53,33,-17,27,3,-10,45
-74,18,98,25,-84,53,39,-11,39,15,2,45
-68,24,98,19,-84,53,51,-5,45,21,2,51
-74,30,110,19,-90,65,63,13,51,33,8,63
-86,24,116,31,-102,65,57,25,63,33,14,69
-74,36,116,19,-96,71,57,25,69,33,25,75
-68,54,127,7,-96,83,75,31,75,39,25,81
-74,66,133,1,-108,101,87,31,81,51,25,87
-68,90,151,-11,-114,119,99,31,75,57,25,87
-68,114,175,-23,-126,143,105,42,75,57,25,87
-74,114,181,-23,-132,149,105,42,81,57,25,93
-74,108,175,-17,-132,143,105,42,87,57,25,93
-80,102,175,-11,-132,137,99,42,93,57,25,93
-86,96,175,-5,-138,137,93,42,93,57,25,93
-92,84,169,1,-138,125,105,42,93,57,25,93
-92,78,163,7,-132,119,93,42,93,57,25,93
-92,78,163,7,-132,119,93,37,93,51,25,93
-80,72,145,1,-120,107,87,37,93,51,25,93
-74,84,151,-5,-120,119,75,37,81,57,25,105
-68,102,163,-17,-120,131,69,37,81,63,25,105
-50,108,151,-29,-108,131,51,31,75,63,31,117
-38,120,151,-41,-102,137,39,25,75,63,31,117
-38,132,163,-47,-108,149,33,25,75,68,37,117
-32,150,175,-59,-108,161,16,7,69,63,37,117
-26,156,175,-65,-108,167,4,7,69,63,37,123
-26,162,181,-71,-108,173,-8,-5,63,57,31,123
-20,138,151,-59,-90,143,-20,-11,63,57,31,129
-20,120,133,-53,-84,125,-26,-17,51,51,31,123
-14,108,127,-47,-72,113,-44,-17,45,51,31,129
-14,90,110,-41,-60,95,-56,-29,39,45,25,117
-20,96,122,-41,-72,101,-62,-41,21,33,25,117
-20,96,122,-41,-72,101,-62,-41,15,21,20,111
-20,96,122,-41,-72,101,-68,-47,9,9,8,105
-20,66,92,-23,-54,71,-68,-47,-2,-3,2,99
-32,42,80,-5,-54,53,-62,-47,4,-9,-4,93
-32,42,80,-5,-54,53,-56,-47,9,-9,-4,99
-44,36,86,1,-66,53,-44,-41,9,3,8,105
-44,30,80,7,-60,47,-38,-41,9,3,8,111
-50,30,86,7,-66,53,-38,-41,9,3,2,111
-50,18,74,13,-60,41,-38,-35,9,3,2,105
-62,12,80,25,-72,41,-26,-29,9,3,-16,93
-68,0,74,31,-72,41,-20,-29,9,-3,-16,93
-92,0,98,43,-96,41,-8,-35,9,-9,-16,93
-104,-18,92,61,-96,41,-8,-41,4,-9,-22,93
-116,-12,110,61,-114,41,-8,-47,-2,-9,-22,87
-122,-12,116,67,-120,47,-8,-47,-2,-9,-22,81
-140,-12,127,73,-138,53,4,-47,4,-15,-22,81
-146,-30,122,85,-132,41,4,-47,4,-21,-34,75
-152,-30,127,91,-138,41,4,-47,-2,-15,-28,75
-152,-30,127,91,-138,41,-2,-47,-8,-21,-34,69
-158,-30,127,91,-144,47,4,-47,-8,-27,-34,69
-164,-42,122,102,-144,41,4,-47,-8,-27,-34,69
-164,-42,122,102,-144,41,16,-47,-2,-33,-34,75
-164,-42,122,102,-144,41,16,-41,-2,-33,-34,75
-164,-42,122,102,-144,41,10,-41,-8,-33,-46,63
-170,-42,127,102,-150,41,10,-47,-8,-39,-46,63
-170,-42,127,102,-150,41,4,-47,-8,-39,-52,51
-170,-42,127,102,-150,41,4,-47,-8,-39,-58,51
-170,-42,127,102,-150,41,4,-53,-14,-39,-52,51
-170,-42,127,102,-150,41,4,-53,-14,-39,-52,51
-175,-42,127,102,-155,41,-8,-59,-26,-45,-46,45
-175,-53,127,108,-150,36,-8,-59,-26,-45,-46,45
-170,-42,122,102,-150,41,4,-47,-14,-33,-46,45
-170,-53,122,108,-150,30,10,-59,-26,-45,-70,33
-170,-71,98,114,-138,12,16,-35,-8,-33,-64,45
-164,-65,92,102,-132,12,33,-17,4,-21,-52,51
-170,-47,122,102,-150,36,33,-11,-2,-33,-58,33
-170,-65,104,108,-144,18,45,25,9,-39,-70,15
-170,-101,68,126,-126,-18,99,84,45,-9,-46,27
-170,-95,74,126,-126,-12,147,162,99,39,-16,51
-170,-42,127,102,-150,41,189,234,177,68,20,69
-164,0,157,79,-155,77,225,336,273,152,67,99
-104,78,175,13,-144,125,267,468,399,248,139,153
-14,132,139,-59,-84,137,303,612,537,362,241,207
70,186,116,-131,-18,143,357,822,735,518,367,285
178,246,74,-215,54,155,447,1104,987,734,529,405
280,324,50,-305,114,185,573,1434,1299,986,733,543
412,444,38,-431,186,239,657,1746,1593,1250,949,705
574,576,2,-581,288,281,681,1926,1791,1430,1111,825
718,678,-40,-695,378,311,705,2052,1953,1592,1243,933
838,750,-88,-797,462,329,753,2177,2108,1742,1399,1047
952,828,-118,-887,540,347,687,2147,2180,1886,1543,1173
1048,912,-130,-977,588,383,477,1908,2114,1964,1645,1287
1114,1020,-94,-1073,600,461,231,1530,1923,1952,1711,1389
1132,1098,-34,-1115,582,527,33,1140,1665,1838,1663,1401
1048,1086,44,-1067,504,557,-62,786,1329,1568,1471,1299
868,954,92,-911,390,521,-98,420,921,1190,1165,1125
646,714,74,-683,288,389,-122,1,465,764,811,903
436,510,80,-473,180,287,-206,-479,-32,326,457,675
196,444,241,-323,-24,341,-356,-1049,-602,-75,145,489
-26,402,421,-185,-221,413,-506,-1523,-1070,-423,-118,309
-164,258,415,-53,-287,335,-566,-1709,-1298,-663,-322,153
-211,72,289,73,-251,179,-554,-1643,-1298,-765,-436,15
-253,-53,193,150,-227,59,-500,-1481,-1208,-789,-490,-80
-289,-143,139,210,-215,0,-464,-1361,-1136,-777,-514,-122
-289,-191,104,234,-191,-48,-452,-1253,-1064,-753,-514,-140
-289,-209,86,246,-185,-66,-506,-1199,-1022,-747,-526,-164
-289,-221,74,252,-179,-78,-572,-1193,-1028,-747,-538,-188
-313,-257,62,282,-185,-102,-590,-1139,-974,-711,-520,-188
-307,-269,44,282,-173,-114,-572,-1049,-890,-663,-484,-182
-289,-209,86,246,-185,-66,-560,-935,-800,-603,-448,-176
-301,-185,122,240,-209,-36,-524,-839,-716,-555,-436,-188
-313,-233,86,270,-197,-78,-470,-737,-644,-507,-418,-188
-301,-233,74,264,-185,-84,-398,-629,-536,-435,-370,-170
-277,-185,98,228,-185,-48,-314,-497,-428,-363,-310,-134
-271,-161,116,210,-191,-24,-230,-407,-332,-279,-244,-80
-253,-113,133,180,-197,12,-188,-341,-290,-237,-214,-50
-229,-36,199,120,-215,77,-158,-305,-260,-219,-202,-50
-205,-12,199,102,-203,89,-140,-275,-248,-213,-190,-56
-205,-47,151,120,-179,41,-116,-239,-224,-189,-190,-44
-193,-107,92,144,-150,-12,-98,-209,-188,-171,-178,-38
-187,-119,74,150,-138,-24,-74,-179,-176,-171,-160,-38
-175,-125,56,144,-126,-36,-44,-149,-146,-159,-154,-38
-175,-119,62,144,-126,-30,-38,-131,-122,-147,-160,-38
-175,-83,98,126,-144,6,-50,-119,-116,-141,-160,-38
-187,-89,104,132,-150,6,-38,-113,-110,-141,-154,-38
-187,-89,104,132,-150,6,-32,-101,-98,-129,-142,-32
-187,-89,104,132,-150,6,-26,-95,-98,-117,-130,-20
-181,-89,98,132,-150,0,-20,-89,-80,-111,-124,-14
-181,-89,98,132,-150,0,-14,-83,-80,-117,-118,-8
-175,-83,98,126,-144,6,-20,-77,-80,-111,-130,-14
-175,-83,98,126,-144,6,-14,-71,-80,-111,-130,-14
-170,-95,80,126,-132,-12,4,-59,-62,-99,-124,-20
-170,-89,86,126,-138,-6,22,-53,-56,-99,-118,-20
-170,-83,92,120,-138,0,16,-41,-56,-93,-112,-14
-170,-83,92,120,-138,0,22,-41,-50,-87,-112,-14
-170,-59,116,108,-150,24,22,-41,-56,-87,-112,-8
-170,-59,116,108,-150,24,22,-35,-56,-87,-100,4
-170,-65,110,114,-150,18,22,-35,-56,-81,-100,-2
-170,-65,110,114,-150,18,22,-29,-50,-81,-100,-8
-170,-71,98,114,-138,12,22,-29,-50,-75,-106,-14
-170,-65,104,108,-144,18,22,-29,-50,-75,-106,-14
-170,-71,98,114,-138,12,22,-29,-50,-75,-112,-14
-170,-77,92,114,-138,6,28,-23,-50,-75,-112,-14
-170,-89,86,126,-138,-6,28,-29,-44,-69,-118,-14
-170,-101,74,132,-132,-18,33,-29,-44,-63,-112,-14
-170,-89,80,120,-132,-6,28,-29,-50,-69,-118,-20
-170,-77,92,114,-138,6,22,-29,-44,-69,-118,-20
-164,-47,110,102,-138,30,16,-23,-50,-75,-118,-20
-164,-42,116,102,-144,36,16,-23,-50,-81,-118,-20
-152,-42,104,102,-132,30,16,-29,-50,-81,-118,-20
-152,-53,92,102,-126,18,16,-29,-50,-81,-124,-14
-146,-53,86,102,-120,18,16,-35,-50,-81,-124,-14
-140,-53,80,102,-114,12,16,-35,-44,-81,-124,-14
-146,-59,80,102,-114,12,22,-23,-44,-69,-118,-14
-152,-59,86,102,-120,12,28,-17,-44,-69,-112,-14
-158,-65,86,102,-126,12,33,-5,-38,-63,-106,-14
-158,-65,86,102,-126,12,33,1,-38,-63,-112,-14
-152,-59,86,102,-120,12,28,-5,-50,-69,-118,-20
-152,-53,92,102,-126,18,22,-11,-50,-69,-112,-20
-146,-59,80,102,-114,12,16,-17,-56,-75,-118,-14
-146,-71,68,102,-108,0,16,-23,-50,-75,-112,-8
-146,-77,62,102,-108,-6,28,1,-38,-69,-100,-8
-140,-89,44,102,-96,-24,28,1,-38,-69,-100,4
-140,-71,62,102,-102,-6,33,7,-32,-57,-100,-8
-140,-59,74,102,-108,6,28,7,-32,-57,-100,-8
-140,-59,74,102,-108,6,22,7,-32,-63,-106,-8
-134,-59,68,102,-102,6,22,7,-32,-63,-106,-8
-128,-59,62,97,-96,0,16,13,-38,-63,-112,-2
-128,-59,62,97,-96,0,16,13,-38,-63,-112,-2
-128,-59,62,97,-96,0,22,25,-32,-51,-106,-2
-128,-59,62,97,-96,0,22,31,-26,-51,-106,-2
-128,-59,62,97,-96,0,22,31,-26,-51,-112,4
-128,-59,62,97,-96,0,22,31,-26,-51,-112,4
-134,-53,74,97,-108,12,16,25,-32,-57,-106,-2
-128,-42,86,85,-108,24,10,31,-32,-57,-106,-2
-122,-42,86,79,-102,30,10,37,-26,-63,-100,-8
-122,-42,74,85,-102,18,10,37,-26,-57,-94,-2
-110,-42,68,79,-90,18,10,37,-20,-51,-94,-2
-104,-42,56,79,-84,6,10,42,-14,-51,-94,-2
-98,-53,38,79,-72,-6,10,37,-8,-39,-88,9
-98,-59,32,85,-66,-12,10,42,-2,-33,-88,4
-98,-47,44,79,-72,0,16,48,-2,-33,-82,4
-98,-42,50,73,-78,6,16,54,4,-27,-82,9
-98,-42,56,73,-78,12,22,66,9,-21,-76,9
-92,-30,68,61,-78,24,22,66,9,-21,-76,9
-86,-42,50,61,-66,12,16,78,9,-15,-70,9
-86,-42,44,67,-66,6,16,78,15,-9,-64,9
-86,-42,38,67,-66,0,10,90,15,-9,-64,9
-86,-42,44,67,-66,6,4,90,15,-9,-64,15
-68,-36,38,49,-54,6,4,90,21,-3,-64,15
-56,-30,32,43,-42,6,4,96,27,3,-52,27
-44,-24,26,31,-36,6,4,102,27,9,-52,33
-44,-6,44,25,-42,24,-8,108,39,15,-52,33
-32,-6,32,19,-30,18,-2,120,39,27,-40,45
-26,0,32,13,-30,24,-2,120,45,27,-40,51
-26,-6,26,13,-24,18,-2,126,51,39,-34,51
-26,-6,26,13,-24,18,-2,132,57,45,-28,63
-14,18,38,-5,-24,36,-14,126,57,45,-28,63
-8,24,38,-11,-24,36,-26,126,57,45,-22,63
10,30,26,-23,-6,36,-32,132,57,45,-16,69
10,30,26,-23,-6,36,-38,144,69,51,-4,75
22,36,20,-29,0,36,-44,144,63,51,-4,75
28,54,32,-41,0,41,-50,144,63,51,-10,81
40,60,26,-53,6,41,-56,150,63,45,-10,75
46,60,20,-53,12,41,-56,150,63,57,-4,87
58,60,8,-59,24,41,-56,150,75,63,2,99
70,60,-4,-65,36,36,-62,156,75,68,2,105
70,72,8,-71,30,41,-68,156,75,68,14,117
70,84,20,-77,24,47,-74,150,75,68,14,117
76,90,14,-89,36,47,-86,144,75,68,20,117
76,90,14,-89,36,47,-86,144,75,68,25,129
88,90,2,-95,48,41,-80,132,75,68,25,129
94,90,-4,-95,54,41,-92,126,69,68,25,129
94,96,2,-101,48,41,-98,120,57,68,25,129
100,96,-4,-101,54,41,-98,114,57,68,25,135
100,84,-16,-95,60,41,-92,108,51,68,25,141
100,84,-16,-95,60,41,-98,108,51,68,25,141
100,96,-4,-101,54,41,-110,90,39,63,25,141
100,96,-4,-101,54,41,-110,90,39,68,25,141
106,102,-4,-107,60,41,-110,90,39,68,25,141
112,108,-4,-113,60,47,-110,84,33,68,25,141
112,108,-4,-113,60,47,-122,72,27,63,20,135
112,108,-4,-113,60,47,-122,72,27,63,20,135
106,108,2,-113,54,47,-128,66,15,57,14,129
106,108,2,-113,54,47,-122,66,15,51,14,123
94,114,20,-107,42,59,-116,66,21,57,14,129
94,108,14,-107,42,53,-116,66,21,57,14,123
82,114,32,-101,30,65,-98,66,33,63,14,129
82,114,32,-101,30,65,-92,66,33,63,14,129
82,108,26,-101,30,59,-80,66,39,68,20,129
70,102,32,-89,24,59,-74,66,39,68,20,129
70,90,20,-83,30,47,-50,72,45,68,20,123
70,78,8,-77,36,41,-50,72,45,68,14,123
64,60,2,-65,30,36,-26,78,39,68,14,123
52,60,14,-59,18,41,-26,78,39,68,14,123
40,54,20,-47,12,41,-8,72,33,68,14,111
34,60,32,-47,0,41,-2,66,33,68,8,111
28,66,44,-47,-6,47,-2,66,39,68,8,99
16,54,44,-35,-12,41,10,60,33,63,2,99
16,54,44,-35,-12,41,10,54,33,68,2,93
-2,60,68,-29,-36,59,10,48,27,63,-4,93
-14,60,80,-23,-48,65,10,42,33,63,-4,87
-14,48,68,-17,-42,53,22,42,33,63,-10,87
-38,54,98,-11,-66,71,22,42,27,51,-16,87
-38,54,98,-11,-66,71,22,37,27,45,-16,81
-56,24,86,13,-72,47,28,37,27,45,-10,81
-68,18,92,25,-78,47,33,31,21,39,-16,69
-74,6,86,31,-78,41,33,31,15,39,-22,63
-86,0,92,43,-90,41,39,31,9,33,-22,63
-86,6,98,37,-90,47,33,13,9,27,-28,57
-86,12,104,37,-96,53,33,7,9,21,-34,51
-92,18,116,37,-102,59,33,-11,4,15,-40,45
-98,12,116,43,-108,59,33,-11,-2,15,-46,39
-104,6,116,49,-108,53,33,-11,-2,9,-46,45
-110,6,122,49,-114,59,33,-17,-8,9,-52,45
-116,0,122,55,-120,53,33,-23,-2,3,-52,51
-116,-6,116,61,-114,47,33,-29,-2,3,-52,51
-122,-12,116,67,-120,47,39,-23,-2,9,-52,45
-128,-12,122,67,-126,47,39,-23,-2,9,-52,45
-134,-18,122,73,-126,47,45,-23,-14,9,-52,45
-140,-18,127,79,-132,47,45,-29,-14,9,-64,45
-134,-24,116,79,-126,41,39,-29,-14,3,-52,39
-134,-30,110,79,-120,41,39,-29,-14,3,-52,39
-128,-36,98,79,-114,36,33,-29,-14,-3,-58,27
-134,-36,104,85,-120,41,33,-29,-20,-9,-58,27
-134,-30,110,79,-120,41,39,-29,-20,-3,-58,33
-134,-30,110,79,-120,41,39,-29,-20,-3,-58,33
-134,-36,104,85,-120,41,45,-29,-20,3,-58,39
-140,-24,122,79,-132,41,45,-29,-20,3,-58,39
-134,-18,122,73,-126,47,45,-29,-26,-3,-64,33
-134,-6,127,67,-132,59,39,-29,-26,-3,-64,33
-122,0,127,61,-126,59,33,-29,-32,-9,-76,27
-122,-6,122,61,-120,53,33,-29,-32,-9,-76,27
-140,-12,127,73,-138,53,33,-29,-32,-9,-76,27
-140,-12,127,73,-138,53,33,-23,-32,-9,-76,27
-146,-18,127,79,-138,53,39,-23,-32,-9,-76,27
-146,-36,116,91,-132,41,39,-23,-26,-3,-76,27
-152,-30,127,91,-138,41,45,-11,-20,-3,-70,33
-146,-24,127,85,-138,47,45,-11,-20,-3,-70,33
-152,-18,127,85,-144,53,51,1,-8,-3,-64,39
-152,-18,127,85,-144,53,51,1,-8,3,-64,39
-152,-24,127,85,-144,47,45,7,-2,9,-64,39
-152,-18,127,85,-144,53,45,7,-2,9,-64,39
-146,-24,127,85,-138,47,39,13,9,9,-58,39
-146,-24,127,85,-138,47,45,13,9,9,-58,39
-152,-24,127,85,-144,47,51,19,4,15,-52,45
-152,-18,127,85,-144,53,51,25,9,21,-46,45
-158,-18,133,85,-150,59,63,25,4,21,-46,45
-158,-18,133,85,-150,59,63,25,4,27,-46,45
-152,-12,133,79,-150,59,57,31,9,27,-46,39
-152,-12,133,79,-150,59,57,31,9,33,-40,45
-146,-6,133,73,-144,65,51,25,9,33,-40,39
-146,6,145,67,-150,77,51,25,9,33,-40,39
-152,6,151,73,-150,77,51,31,9,33,-40,45
-146,0,139,73,-150,71,51,37,9,39,-40,45
-152,-12,133,79,-150,59,51,42,9,39,-40,45
-152,-18,127,85,-144,53,45,42,9,39,-40,45
-152,0,145,73,-150,71,51,42,9,39,-34,51
-152,0,145,73,-150,71,51,42,9,39,-34,51
-152,-6,139,79,-150,65,57,42,15,45,-22,57
-152,-6,139,79,-150,65,57,42,15,45,-22,57
-146,6,145,67,-150,77,57,42,21,45,-22,63
-140,6,139,67,-144,71,57,42,21,45,-22,63
-134,6,133,61,-138,71,57,42,27,45,-22,69
-134,18,145,55,-144,83,57,42,27,45,-22,69
-140,24,157,55,-150,89,51,37,21,45,-28,63
-146,12,151,67,-150,83,51,42,21,45,-28,63
-152,12,157,67,-150,83,45,37,15,45,-34,57
-158,12,163,73,-155,89,45,37,15,45,-34,57
-164,-6,151,85,-150,71,51,42,21,57,-28,57
-164,-12,145,85,-150,65,57,42,21,57,-28,57
-170,-18,145,91,-150,65,57,42,27,63,-22,57
-170,-24,139,97,-150,59,63,42,27,63,-16,57
-170,-30,139,102,-150,53,63,42,21,57,-16,57
-170,-30,139,102,-150,53,63,42,21,57,-16,57
-170,-18,151,97,-155,65,57,37,9,51,-22,57
-170,-18,151,97,-155,65,51,37,9,45,-28,51
-170,-18,145,91,-150,65,51,31,9,39,-28,51
-170,-12,151,91,-155,71,51,25,9,39,-22,51
-164,-6,151,85,-150,71,51,19,9,33,-22,51
-170,0,163,85,-161,83,51,19,9,27,-28,51
-164,0,157,79,-155,77,51,13,9,27,-28,51
-170,0,163,85,-161,83,51,13,9,33,-28,51
-164,-12,145,85,-150,65,51,19,9,39,-28,45
-158,-18,133,85,-150,59,51,19,9,45,-34,45
-164,-12,145,85,-150,65,45,19,9,39,-34,45
-170,-12,151,91,-155,71,45,19,9,39,-34,45
-170,0,169,85,-167,83,39,13,4,33,-34,45
-170,0,175,91,-173,83,39,13,4,33,-34,45
-170,6,181,85,-173,89,39,7,-2,33,-46,45
-175,6,187,91,-179,95,39,7,-2,27,-46,45
-175,0,181,91,-179,89,39,1,-2,27,-52,45
-175,0,181,91,-179,89,39,-5,-2,27,-46,45
-170,0,175,91,-173,83,33,-5,-2,27,-46,45
-170,0,175,91,-173,83,33,-11,-2,21,-52,33
-170,-6,163,91,-161,77,33,-5,4,21,-52,33
-170,-18,151,97,-155,65,33,-5,4,21,-52,39
-170,-6,169,91,-167,77,33,-11,-2,21,-52,33
-170,-6,169,91,-167,77,33,-11,-2,21,-52,33
-175,6,187,91,-179,95,33,-17,-20,21,-58,27
-175,18,199,85,-185,107,33,-17,-20,15,-58,27
-181,12,199,91,-191,101,33,-17,-14,21,-52,33
-181,0,187,97,-185,89,33,-17,-14,21,-52,33
-187,-6,187,102,-185,89,45,-11,-8,27,-46,33
-187,-6,187,102,-185,89,45,-17,-8,27,-46,33
-187,-12,181,102,-185,83,39,-11,-8,33,-40,33
-187,-12,181,102,-185,83,39,-11,-14,33,-40,33
-193,-24,175,102,-185,71,39,-5,-14,33,-34,33
-193,-24,175,102,-185,71,39,-5,-14,33,-34,33
-205,0,211,102,-209,101,39,-5,-14,21,-46,33
-205,-24,187,102,-197,77,39,-5,-2,33,-40,33
-211,-36,181,114,-197,71,51,1,4,39,-28,51
-211,-24,193,108,-203,83,45,-5,-2,33,-34,45
-211,-12,205,102,-209,95,45,-11,-8,27,-40,39
-211,0,217,102,-215,107,39,-17,-14,21,-46,33
-211,12,229,102,-221,119,39,-23,-20,15,-52,27
-217,0,223,102,-221,107,45,-17,-14,21,-46,33
-217,-18,205,108,-209,89,45,-17,-14,21,-46,33
-223,-30,199,114,-209,83,51,-11,-8,27,-40,39
-223,-42,187,120,-203,71,51,-5,-2,33,-40,39
-235,-30,211,120,-221,89,45,-11,-8,27,-46,39
-241,-24,223,120,-233,95,39,-11,-14,21,-46,39
-241,-18,229,120,-233,101,33,-17,-20,15,-46,39
-247,-36,217,132,-233,89,45,-11,-20,21,-46,45
-247,-42,211,132,-227,83,51,-5,-14,27,-40,51
-247,-36,217,132,-233,89,45,-17,-14,27,-40,45
-247,-42,211,132,-227,83,51,-11,-8,33,-34,45
-247,-42,211,132,-227,83,51,-11,-8,33,-28,45
-247,-36,217,132,-233,89,45,-11,-8,33,-28,39
-253,-24,235,126,-245,101,45,-5,-8,33,-34,39
-253,-18,241,126,-245,107,39,-5,-8,33,-34,33
-247,-18,235,120,-239,107,45,-5,-8,33,-34,33
-253,-18,241,126,-245,107,45,-11,-14,39,-40,39
-247,-12,241,120,-245,113,45,-5,-14,39,-34,39
-253,0,259,114,-257,125,39,-11,-14,33,-40,39
-253,0,259,114,-257,125,33,-11,-14,33,-40,39
-247,-6,247,114,-245,119,39,-5,-14,39,-40,45
-235,18,259,102,-245,137,33,-5,-8,39,-34,51
-229,12,247,102,-239,125,39,1,-8,45,-34,57
-217,18,241,102,-227,125,51,1,4,51,-22,57
-211,30,247,97,-227,137,63,7,4,57,-28,57
-217,42,265,91,-239,149,75,25,9,68,-22,69
-229,42,277,97,-251,155,69,37,9,68,-22,69
-217,60,283,85,-251,167,69,37,9,68,-4,75
-217,60,283,85,-251,167,87,42,27,68,-4,81
-223,60,289,85,-257,173,99,42,39,74,8,87
-223,66,295,85,-257,179,111,42,45,80,14,87
-223,78,307,79,-263,191,117,54,51,80,14,87
-223,90,319,73,-269,203,129,60,51,86,14,93
-223,90,319,73,-269,203,129,60,51,86,14,93
-223,96,325,67,-275,209,135,66,51,92,20,93
-229,96,331,73,-281,209,129,66,45,92,20,93
-241,90,337,79,-287,209,141,60,51,92,25,93
-241,90,337,79,-287,209,129,60,51,92,25,93
-247,96,349,79,-299,221,129,48,57,86,25,93
-235,96,337,73,-287,215,123,48,57,86,25,93
-223,96,325,67,-275,209,111,54,57,92,25,99
-217,108,331,61,-275,215,105,54,57,98,25,99
-193,102,301,49,-245,197,87,54,63,98,31,105
-181,108,295,43,-239,197,75,48,63,98,31,105
-187,120,313,37,-251,215,57,42,57,104,31,105
-181,132,319,31,-251,221,33,37,51,98,31,105
-181,138,325,25,-251,227,28,31,45,98,25,111
-181,138,325,25,-251,227,16,19,39,92,25,111
-181,114,301,37,-239,203,10,13,39,92,25,117
-181,102,289,43,-233,191,4,7,27,86,25,111
-181,90,277,49,-227,179,-8,7,21,86,25,117
-181,78,265,55,-221,167,-20,-5,15,80,25,105
-181,78,265,55,-221,167,-26,-23,9,68,25,105
-181,78,265,55,-221,167,-26,-23,4,68,20,99
-175,72,253,55,-215,161,-32,-35,-14,63,8,93
-175,42,223,73,-197,131,-32,-35,-26,57,2,87
-181,24,211,85,-197,113,-32,-35,-26,45,-16,69
-181,24,211,85,-197,113,-26,-35,-20,45,-16,69
-187,24,217,85,-203,119,-20,-29,-20,51,-16,63
-187,18,211,91,-197,113,-14,-29,-20,51,-16,63
-193,24,223,91,-209,119,-14,-35,-20,45,-16,63
-193,12,211,97,-203,107,-14,-29,-20,45,-16,57
-205,12,223,102,-215,113,-2,-29,-20,39,-28,45
-211,0,217,102,-215,107,4,-29,-20,33,-28,45
-235,-12,229,114,-233,107,22,-29,-14,33,-22,51
-247,-30,223,126,-233,95,22,-35,-20,33,-28,51
-259,-36,229,138,-245,95,28,-35,-14,39,-22,51
-265,-36,235,138,-251,95,28,-35,-14,39,-22,45
-283,-30,259,144,-269,113,33,-35,-14,33,-22,39
-289,-42,247,156,-269,95,33,-35,-14,27,-34,33
-295,-42,259,156,-275,107,28,-35,-26,33,-28,27
-295,-42,259,156,-275,107,22,-35,-32,27,-34,21
-301,-42,253,168,-281,95,28,-35,-32,27,-40,15
-307,-65,235,180,-275,77,28,-35,-32,27,-40,15
-307,-77,223,186,-269,65,33,-35,-26,27,-46,15
-307,-83,217,192,-263,59,33,-29,-26,27,-46,15
-313,-77,229,192,-275,65,33,-35,-38,21,-52,9
-319,-65,247,186,-287,83,33,-41,-38,15,-52,9
-325,-59,259,186,-293,89,28,-47,-44,9,-52,4
-325,-53,265,186,-299,95,28,-47,-44,9,-58,4
-325,-59,259,186,-293,89,33,-41,-38,15,-58,9
-331,-59,265,192,-299,95,33,-41,-38,15,-58,9
-331,-65,259,192,-299,89,33,-35,-38,15,-58,9
-331,-77,247,198,-293,77,33,-35,-38,15,-58,9
-325,-65,253,192,-293,83,33,-35,-38,15,-58,9
-325,-65,253,192,-293,83,33,-23,-38,15,-58,9
-343,-83,253,210,-299,77,33,-23,-32,3,-64,-2
-355,-113,235,228,-299,53,33,-17,-32,3,-64,4
-343,-83,253,210,-299,77,39,-11,-26,3,-70,-14
-331,-53,271,186,-305,101,57,1,-38,-15,-94,-32
-343,-65,271,198,-311,95,99,48,-2,3,-82,-44
-343,-95,241,216,-293,65,171,150,51,63,-52,-8
-355,-47,301,198,-329,119,225,234,129,104,-4,21
-319,24,349,138,-335,185,273,336,231,176,43,51
-247,90,343,85,-293,215,309,480,363,284,127,105
-181,132,319,31,-251,221,351,636,513,410,217,159
-128,174,295,-23,-203,233,405,846,699,554,331,231
-32,198,229,-89,-138,215,507,1140,969,758,511,333
112,300,181,-209,-36,245,633,1482,1275,998,697,477
250,456,205,-359,18,329,717,1764,1557,1238,901,621
400,576,169,-491,108,371,753,1974,1767,1442,1063,741
562,642,80,-605,246,353,783,2123,1953,1604,1225,861
700,690,-4,-695,348,341,831,2237,2096,1766,1351,981
820,804,-16,-815,420,389,735,2171,2144,1886,1477,1089
916,942,32,-929,444,485,489,1920,2055,1940,1561,1173
988,1092,110,-1043,438,593,231,1554,1887,1940,1615,1257
994,1134,133,-1067,426,635,33,1200,1677,1862,1603,1293
928,1026,104,-977,414,557,-50,882,1377,1652,1459,1239
742,888,139,-815,300,515,-98,480,957,1286,1177,1065
532,738,205,-635,156,473,-158,25,477,818,799,831
328,570,235,-449,48,401,-284,-491,-56,374,445,591
100,420,313,-263,-108,365,-452,-1061,-602,-15,133,417
-158,330,481,-89,-317,407,-566,-1535,-1070,-357,-106,261
-307,222,535,43,-419,377,-626,-1769,-1334,-609,-322,105
-391,24,415,174,-401,221,-614,-1709,-1358,-717,-448,-8
-439,-161,277,300,-365,47,-572,-1553,-1262,-741,-502,-116
-487,-251,235,360,-365,-6,-548,-1427,-1196,-741,-550,-194
-487,-251,235,360,-365,-6,-548,-1337,-1136,-741,-550,-230
-475,-257,217,360,-353,-18,-566,-1259,-1070,-711,-538,-230
-499,-281,217,384,-365,-30,-608,-1229,-1052,-699,-550,-242
-499,-269,229,378,-371,-18,-638,-1181,-1010,-675,-532,-242
-469,-197,271,330,-377,41,-620,-1061,-902,-615,-484,-236
-451,-185,265,318,-365,41,-572,-929,-788,-519,-436,-212
-463,-233,229,342,-353,0,-536,-827,-716,-471,-412,-200
-475,-209,265,342,-377,30,-470,-713,-632,-423,-382,-200
-463,-161,301,312,-389,59,-350,-581,-512,-345,-334,-170
-463,-149,313,306,-389,71,-242,-449,-392,-255,-274,-134
-457,-113,343,282,-401,107,-188,-359,-332,-207,-232,-104
-439,-77,361,258,-401,131,-152,-305,-278,-177,-208,-98
-427,-83,343,252,-389,119,-122,-269,-248,-153,-190,-86
-427,-95,331,258,-383,107,-92,-227,-218,-135,-166,-68
-415,-107,307,258,-365,89,-68,-197,-200,-123,-166,-68
-409,-107,295,252,-353,83,-62,-167,-176,-117,-154,-62
-391,-107,277,246,-335,77,-38,-143,-152,-99,-148,-62
-379,-113,259,240,-323,65,-20,-125,-134,-87,-154,-62
-391,-119,265,252,-329,65,10,-95,-110,-75,-136,-50
-403,-143,253,270,-329,47,33,-71,-80,-57,-124,-38
-391,-161,223,270,-311,36,33,-53,-74,-45,-118,-26
-391,-143,241,264,-317,41,33,-53,-74,-45,-118,-32
-391,-125,259,252,-329,59,33,-59,-80,-39,-112,-32
-385,-107,271,240,-329,71,33,-65,-74,-45,-118,-38
-385,-89,289,234,-341,89,33,-71,-80,-57,-118,-44
-379,-83,289,228,-335,95,28,-65,-86,-51,-124,-44
-379,-83,289,228,-335,95,28,-59,-86,-51,-124,-44
-373,-95,271,228,-323,77,33,-47,-74,-39,-112,-44
-373,-89,277,228,-329,83,45,-41,-68,-39,-106,-44
-367,-95,265,228,-317,77,45,-23,-56,-33,-106,-44
-367,-101,259,228,-317,71,51,-23,-50,-27,-106,-44
-361,-89,265,222,-317,77,57,-17,-44,-27,-112,-44
-361,-95,259,222,-311,71,57,-11,-44,-27,-100,-32
-367,-95,265,228,-317,77,57,-11,-50,-27,-100,-32
-367,-95,265,228,-317,77,57,-5,-44,-27,-100,-38
-367,-95,265,228,-317,77,57,-5,-50,-27,-106,-38
-367,-89,271,222,-323,83,57,-5,-50,-27,-106,-38
-355,-83,265,216,-311,83,51,-5,-50,-27,-100,-38
-355,-83,265,216,-311,83,57,1,-50,-27,-100,-38
-349,-83,259,210,-305,77,51,-5,-44,-21,-94,-38
-349,-89,253,216,-305,71,57,-5,-44,-15,-88,-38
-343,-89,247,210,-299,71,57,-5,-50,-15,-94,-44
-343,-83,253,210,-299,77,51,-5,-44,-15,-100,-44
-331,-65,259,192,-299,89,51,1,-50,-15,-100,-44
-331,-65,259,192,-299,89,51,1,-50,-21,-106,-44
-325,-71,247,192,-287,77,57,7,-44,-21,-100,-44
-325,-83,235,198,-281,65,57,7,-44,-21,-106,-38
-325,-89,229,204,-281,59,63,13,-38,-21,-100,-38
-319,-89,223,198,-275,59,63,13,-32,-21,-100,-38
-313,-83,223,192,-269,59,63,19,-32,-9,-100,-38
-319,-83,229,198,-275,65,69,19,-32,-9,-94,-38
-313,-77,229,192,-275,65,69,25,-26,-3,-94,-38
-313,-77,229,192,-275,65,69,25,-26,-3,-100,-38
-313,-71,235,186,-275,71,63,25,-38,-9,-100,-44
-313,-59,247,180,-281,83,57,25,-38,-9,-94,-44
-313,-65,241,186,-281,77,51,25,-44,-15,-94,-38
-313,-71,235,186,-275,71,51,25,-38,-15,-88,-32
-307,-89,211,192,-263,53,57,37,-32,-15,-88,-32
-301,-101,193,198,-251,41,57,37,-32,-15,-88,-20
-295,-95,193,192,-245,41,57,31,-32,-9,-100,-32
-295,-83,205,186,-251,53,51,31,-32,-9,-100,-32
-295,-77,211,180,-257,59,51,31,-26,-9,-94,-32
-289,-77,205,180,-251,53,51,31,-26,-9,-94,-32
-283,-71,205,174,-245,59,51,37,-26,-3,-88,-26
-283,-71,205,174,-245,59,51,37,-26,-3,-88,-26
-277,-77,193,174,-239,47,57,42,-20,3,-82,-32
-277,-77,193,174,-239,47,57,42,-14,3,-82,-32
-271,-83,181,174,-227,41,57,42,-14,-3,-88,-32
-271,-83,181,174,-227,41,57,42,-14,-3,-88,-32
-271,-77,187,168,-233,47,51,42,-20,-3,-88,-32
-265,-53,205,156,-239,65,45,48,-20,-3,-88,-32
-253,-47,199,144,-227,65,45,60,-14,-3,-88,-32
-253,-53,193,150,-227,59,45,60,-14,3,-82,-26
-253,-42,205,144,-233,71,45,60,-14,-3,-82,-32
-247,-42,199,138,-227,71,45,66,-8,-3,-82,-32
-253,-47,199,144,-227,65,45,60,-8,-3,-76,-20
-253,-47,199,144,-227,65,45,72,-2,3,-76,-32
-247,-47,193,144,-221,65,45,78,4,9,-70,-26
-247,-47,193,144,-221,65,45,84,9,15,-70,-20
-241,-53,181,144,-215,53,45,90,9,27,-64,-14
-235,-42,187,132,-215,65,45,90,9,27,-64,-14
-235,-42,187,132,-215,65,45,108,21,33,-58,4
-235,-42,187,132,-215,65,45,108,27,39,-52,4
-241,-42,199,132,-221,71,45,126,27,39,-52,9
-241,-36,211,126,-227,83,39,126,27,39,-52,9
-223,-30,199,114,-209,83,45,132,39,51,-46,9
-211,-30,187,108,-197,77,45,138,45,57,-34,15
-199,-30,175,102,-185,71,51,150,51,68,-28,21
-199,-18,187,102,-191,83,39,156,63,68,-28,21
-193,-12,187,102,-191,83,39,162,63,68,-16,33
-187,-6,187,102,-185,89,39,162,69,68,-16,39
-193,-6,193,102,-191,89,33,162,75,74,-10,39
-193,-6,193,102,-191,89,33,168,81,80,-4,51
-187,18,211,91,-197,113,33,168,81,80,-4,57
-181,24,211,85,-197,113,33,168,81,86,2,57
-170,30,205,73,-185,113,33,180,81,86,8,69
-170,30,205,73,-185,113,33,192,93,98,20,75
-170,36,205,67,-185,119,28,198,99,110,25,87
-170,54,217,55,-185,137,22,198,99,110,25,93
-164,60,217,49,-185,137,16,210,111,116,31,99
-158,60,211,49,-179,137,16,210,111,128,43,111
-152,48,193,49,-167,119,16,210,123,134,37,123
-140,48,181,43,-155,113,10,216,123,140,37,129
-146,48,187,49,-161,119,4,216,123,140,37,141
-146,60,199,43,-167,131,-2,210,123,140,37,141
-134,72,199,31,-161,137,-8,204,123,140,43,135
-134,78,205,25,-161,143,-8,204,123,140,49,147
-122,84,199,19,-155,143,4,192,123,134,49,141
-116,90,199,13,-150,143,-8,186,117,134,49,141
-116,96,205,7,-155,149,-14,186,117,140,55,147
-110,96,199,7,-150,149,-14,180,117,140,55,153
-110,84,187,13,-150,137,-8,180,123,146,61,165
-110,84,187,13,-150,137,-14,180,123,146,61,165
-110,84,187,13,-150,137,-14,168,111,134,61,171
-110,84,187,13,-150,137,-14,168,111,146,61,171
-104,78,175,13,-144,125,-2,174,111,146,67,177
-98,84,175,7,-144,131,-2,168,105,140,67,177
-98,90,181,1,-144,137,-14,162,105,140,67,177
-104,90,187,7,-150,137,-14,162,105,140,67,177
-110,96,199,7,-150,149,-20,162,99,140,73,177
-116,96,205,7,-155,149,-14,162,99,134,73,171
-122,90,205,13,-155,149,-8,162,99,134,73,177
-116,84,193,13,-150,137,-8,162,99,134,73,171
-122,78,193,19,-150,137,10,162,105,134,73,177
-116,78,187,19,-150,131,16,162,105,134,73,177
-116,78,187,19,-150,131,22,156,105,134,73,177
-128,78,199,25,-155,137,28,156,105,134,73,177
-128,72,193,25,-155,131,33,156,105,134,67,171
-128,66,187,31,-150,125,33,156,105,134,61,171
-128,60,181,31,-150,119,45,156,105,134,67,171
-140,60,193,37,-161,125,45,156,105,134,67,171
-140,66,199,37,-161,131,51,144,105,128,73,159
-146,72,211,37,-173,143,57,138,105,128,67,159
-152,66,211,43,-173,137,63,132,105,122,61,147
-164,48,205,55,-179,125,75,126,99,116,55,147
-164,36,193,61,-173,113,81,114,93,116,49,141
-170,36,211,73,-191,119,81,108,87,110,43,141
-175,24,205,79,-191,113,75,102,87,110,43,135
-175,12,193,85,-185,101,87,96,81,110,37,135
-193,6,205,97,-197,101,81,90,69,98,31,135
-193,6,205,97,-197,101,81,84,63,92,31,129
-199,-12,193,102,-197,89,87,78,63,92,37,129
-211,-12,205,102,-209,95,93,66,57,86,31,117
-205,-12,199,102,-203,89,99,60,51,86,25,111
-217,-12,211,102,-215,95,99,54,45,80,25,111
-217,-12,211,102,-215,95,93,42,33,68,25,105
-217,-6,217,102,-215,101,81,42,27,68,20,99
-223,-6,223,102,-221,107,75,25,15,63,8,93
-229,-12,223,108,-227,101,75,25,9,63,2,87
-235,-12,229,114,-233,107,75,25,9,57,2,87
-241,-12,235,114,-239,107,75,19,9,57,-4,87
-247,-12,241,120,-245,113,69,13,9,51,-4,87
-247,-18,235,120,-239,107,69,7,9,51,-4,87
-241,-18,229,120,-233,101,69,7,9,51,-4,81
-241,-18,229,120,-233,101,69,7,9,51,-4,81
-235,-18,223,114,-227,101,69,1,-2,45,-4,81
-235,-18,223,114,-227,101,69,-5,-2,45,-16,81
-241,-24,223,120,-233,95,69,1,4,45,2,87
-241,-36,211,126,-227,83,69,1,4,45,2,87
-247,-42,211,132,-227,83,69,7,9,45,2,87
-253,-42,211,138,-233,77,69,7,4,39,2,87
-253,-42,211,138,-233,77,69,1,4,39,2,87
-253,-42,211,138,-233,77,69,1,4,39,2,87
-253,-47,199,144,-227,65,69,-5,4,39,2,87
-259,-42,217,144,-239,83,69,-5,4,39,2,87
-259,-36,229,138,-245,95,69,-5,-2,33,-4,81
-259,-24,241,132,-251,107,69,-5,-2,33,-4,81
-253,-12,247,120,-251,113,57,-5,-8,27,-16,75
-253,-18,241,126,-245,107,57,-5,-8,27,-16,75
-259,-24,241,132,-251,107,63,1,-2,33,-10,81
-259,-24,241,132,-251,107,69,7,-2,33,-10,87
-253,-30,229,132,-239,95,75,13,4,39,-4,93
-253,-42,211,138,-233,77,75,13,9,45,-4,99
-259,-42,217,144,-239,83,81,13,4,45,2,93
-253,-42,217,138,-233,83,81,13,4,45,2,93
-259,-42,223,138,-239,89,87,13,4,45,8,87
-259,-42,223,138,-239,89,87,13,4,51,8,87
-253,-36,223,132,-239,89,81,13,4,51,-4,87
-253,-30,229,132,-239,95,81,13,4,51,-4,87
-241,-24,223,120,-233,95,75,13,9,45,-10,87
-241,-24,223,120,-233,95,81,13,9,45,-10,87
-235,-30,211,120,-221,89,81,19,4,45,-4,93
-235,-24,217,120,-227,95,81,25,9,51,2,93
-229,-30,205,120,-215,83,87,25,4,45,2,93
-229,-30,205,120,-215,83,87,25,4,51,2,93
-223,-30,199,114,-209,83,81,31,9,51,2,87
-223,-36,193,120,-209,77,81,31,9,57,8,93
-217,-36,187,114,-203,71,75,25,9,57,8,87
-217,-30,193,114,-203,77,75,25,9,57,8,87
-217,-18,205,108,-209,89,81,25,9,57,14,93
-211,-18,199,102,-203,89,81,31,9,63,14,93
-211,-18,199,102,-203,89,87,31,9,63,20,93
-211,-18,199,102,-203,89,81,31,9,63,20,93
-205,-12,199,102,-203,89,87,37,15,63,20,99
-205,-12,199,102,-203,89,87,37,15,63,20,99
-199,-30,175,102,-185,71,93,42,27,68,25,105
-199,-30,175,102,-185,71,93,42,27,68,25,105
-205,-24,187,102,-197,77,87,42,27,68,20,105
-199,-24,181,102,-191,77,87,42,27,68,20,105
-205,-30,181,108,-191,71,81,42,27,68,14,105
-205,-18,193,102,-197,83,81,42,27,68,14,105
-205,-6,205,102,-203,95,81,37,21,68,14,99
-205,-12,199,102,-203,89,81,42,21,68,14,99
-205,-6,205,102,-203,95,81,37,15,68,14,93
-205,0,211,102,-209,101,81,37,15,68,14,93
-205,-12,199,102,-203,89,75,37,15,68,14,99
-205,-18,193,102,-197,83,75,37,15,68,14,99
-205,-18,193,102,-197,83,63,31,15,68,14,105
-205,-24,187,102,-197,77,63,31,15,68,20,105
-205,-30,181,108,-191,71,69,31,15,68,20,99
-205,-30,181,108,-191,71,69,31,15,68,20,99
-199,-18,187,102,-191,83,69,25,9,68,14,93
-199,-18,187,102,-191,83,63,25,9,68,8,87
-199,-30,175,102,-185,71,69,31,15,68,14,93
-199,-36,169,108,-185,65,75,25,15,68,20,93
-199,-42,163,108,-179,59,81,31,21,68,25,99
-205,-42,163,114,-185,53,87,31,9,68,20,99
-205,-30,181,108,-191,71,75,13,9,63,14,93
-211,-24,193,108,-203,83,69,13,9,63,14,87
-211,-18,199,102,-203,89,57,7,9,57,8,75
-205,-18,193,102,-197,83,51,7,9,57,2,69
-205,-18,193,102,-197,83,45,1,4,51,2,69
-205,-18,193,102,-197,83,45,1,-2,51,2,69
-205,-12,199,102,-203,89,39,-11,-8,45,2,69
-205,-12,199,102,-203,89,39,-11,-8,45,2,69
-199,-24,181,102,-191,77,45,-5,-8,51,-4,75
-205,-30,181,108,-191,71,45,-5,-8,45,-4,75
-199,-42,151,114,-179,47,51,1,-2,51,-4,81
-199,-47,145,120,-173,41,51,-5,-2,51,2,81
-193,-42,151,108,-173,47,39,-11,-8,51,-4,75
-193,-36,163,102,-179,59,39,-17,-8,45,-10,63
-187,-30,163,102,-173,65,33,-17,-8,45,-16,57
-187,-30,163,102,-173,65,33,-17,-8,45,-16,63
-181,-30,157,102,-167,59,33,-23,-8,45,-16,63
-181,-36,151,102,-167,53,33,-23,-8,45,-16,63
-175,-36,145,102,-161,53,33,-29,-20,45,-22,63
-175,-30,151,102,-161,59,33,-29,-20,39,-22,63
-181,-30,157,102,-167,59,33,-35,-20,39,-22,63
-181,-36,151,102,-167,53,33,-35,-20,39,-22,63
-187,-36,157,102,-173,59,33,-35,-20,39,-22,57
-187,-30,163,102,-173,65,33,-41,-20,39,-22,57
-181,-36,151,102,-167,53,33,-41,-20,39,-22,57
-181,-36,151,102,-167,53,33,-41,-26,39,-22,57
-181,-42,139,102,-161,41,33,-41,-26,33,-22,57
-181,-42,139,102,-161,41,33,-41,-26,33,-22,57
-181,-36,151,102,-167,53,28,-53,-26,33,-22,57
-175,-42,133,102,-155,41,33,-35,-20,39,-16,63
-181,-42,139,102,-161,41,33,-41,-26,33,-16,63
-181,-42,139,102,-161,41,33,-41,-26,33,-16,63
-187,-42,145,108,-167,47,33,-47,-32,27,-16,63
-187,-42,145,108,-167,47,33,-47,-32,27,-16,63
-187,-42,139,108,-167,41,33,-47,-32,33,-22,57
-187,-47,133,114,-161,41,33,-53,-38,27,-22,57
-187,-53,127,114,-161,41,33,-53,-38,33,-28,51
-187,-53,127,114,-161,41,33,-53,-38,33,-28,51
-193,-42,145,114,-173,41,33,-47,-32,33,-28,51
-193,-42,151,108,-173,47,33,-47,-38,27,-28,51
-187,-42,151,102,-167,53,33,-41,-32,27,-22,51
-187,-47,133,114,-161,41,33,-35,-32,33,-22,57
-187,-42,139,108,-167,41,33,-41,-38,27,-28,57
-187,-42,151,102,-167,53,33,-53,-38,27,-28,51
-187,-36,157,102,-173,59,33,-59,-44,21,-34,45
-187,-30,163,102,-173,65,33,-59,-44,21,-28,45
-181,-42,145,102,-161,47,33,-53,-38,27,-22,51
-187,-42,151,102,-167,53,33,-47,-38,27,-28,51
-181,-42,133,108,-161,41,33,-41,-32,33,-22,57
-175,-53,127,108,-150,36,33,-41,-32,33,-22,57
-175,-47,127,108,-150,41,39,-47,-32,39,-28,63
-170,-42,127,102,-150,41,39,-41,-32,39,-22,63
-170,-30,145,102,-155,53,39,-47,-26,33,-28,63
-170,-24,151,102,-161,59,33,-47,-26,33,-28,63
-170,-24,145,97,-155,59,33,-47,-32,33,-28,57
-170,0,163,85,-161,83,33,-47,-26,33,-22,63
-164,0,157,79,-155,77,33,-47,-32,33,-22,57
-158,6,157,73,-150,83,39,-47,-20,39,-10,57
-146,12,151,67,-150,83,57,-29,-8,51,-4,69
-146,18,157,61,-150,89,75,-11,-2,63,2,81
-152,12,157,67,-150,83,75,13,9,68,14,93
-134,24,151,55,-150,89,81,13,9,68,25,99
-128,30,151,49,-144,89,99,31,21,68,25,111
-134,30,157,49,-150,95,111,31,33,80,25,117
-128,42,163,43,-150,101,123,42,33,92,25,123
-128,54,175,37,-150,113,129,42,39,92,25,123
-122,66,181,25,-150,125,129,42,33,92,25,123
-122,66,181,25,-150,125,129,42,33,92,25,123
-116,72,181,19,-150,125,123,37,27,92,31,117
-122,72,187,25,-150,131,117,31,21,92,31,117
-128,60,181,31,-150,119,111,25,21,86,25,117
-128,60,181,31,-150,119,93,25,21,86,25,117
-128,60,181,31,-150,119,75,13,21,74,25,117
-116,60,169,25,-150,113,63,13,21,74,25,117
-110,72,175,19,-150,125,57,13,21,86,25,117
-104,84,181,7,-150,131,51,13,21,92,25,117
-86,90,169,-5,-132,131,39,7,27,98,31,117
-74,96,163,-11,-126,131,33,1,27,98,31,117
-68,102,163,-17,-120,131,22,1,21,92,25,117
-56,114,163,-29,-114,137,-2,-17,15,86,25,117
-44,114,151,-35,-102,131,-20,-17,9,74,25,123
-38,114,145,-41,-96,131,-32,-29,9,68,20,123
-44,90,127,-23,-90,107,-38,-47,4,68,20,123
-50,72,127,-11,-90,95,-44,-53,-8,68,20,117
-56,60,122,-5,-90,83,-56,-65,-26,63,20,117
-62,42,110,7,-84,71,-68,-77,-32,57,14,105
-56,42,104,7,-78,65,-68,-89,-50,45,2,99
-56,42,104,7,-78,65,-68,-89,-50,39,-4,93
-44,36,86,1,-66,53,-68,-95,-68,27,-16,81
-44,6,56,19,-48,36,-68,-95,-74,21,-22,75
-50,-12,44,31,-48,24,-62,-89,-68,15,-34,69
-50,-12,44,31,-48,24,-56,-89,-62,15,-34,69
-56,-12,50,31,-54,24,-44,-77,-56,27,-28,75
-56,-18,44,37,-48,18,-38,-77,-56,27,-28,75
-62,-18,50,37,-54,24,-44,-83,-56,27,-22,75
-62,-30,38,43,-48,12,-44,-77,-56,27,-22,69
-74,-36,44,55,-60,12,-38,-77,-56,27,-28,57
-80,-42,38,61,-60,0,-32,-77,-56,21,-28,57
-110,-42,68,79,-90,18,-20,-77,-62,9,-34,57
-122,-53,62,91,-96,6,-20,-83,-68,9,-40,57
-140,-47,86,97,-114,18,-20,-83,-74,3,-46,51
-146,-47,92,102,-120,24,-20,-83,-74,3,-46,45
-164,-47,110,102,-138,30,-8,-89,-68,-3,-52,39
-170,-65,98,108,-138,18,-8,-89,-68,-9,-64,33
-170,-65,104,108,-144,18,-8,-95,-74,-3,-64,27
-170,-65,104,108,-144,18,-14,-95,-80,-9,-70,21
-170,-71,104,114,-144,12,-14,-95,-86,-9,-70,15
-175,-89,92,126,-144,0,-14,-95,-86,-9,-70,15
-175,-95,86,132,-138,-6,-8,-95,-86,-9,-70,15
-175,-95,86,132,-138,-6,-8,-89,-86,-9,-70,15
-170,-95,80,126,-132,-12,-8,-89,-86,-15,-82,9
-175,-89,92,126,-144,0,-8,-95,-86,-21,-82,9
-170,-89,86,126,-138,-6,-8,-95,-80,-27,-88,9
-170,-89,86,126,-138,-6,-8,-95,-80,-27,-94,9
-175,-95,86,132,-138,-6,-2,-89,-74,-21,-88,9
-181,-101,86,138,-144,-12,-2,-89,-74,-21,-88,9
-187,-107,86,144,-144,-12,-8,-83,-74,-21,-82,9
-187,-125,68,150,-138,-30,-8,-83,-74,-21,-82,9
-181,-77,110,126,-150,12,-8,-95,-86,-21,-82,9
-193,-101,98,144,-150,-6,-2,-95,-74,-21,-82,9
-175,-107,74,138,-132,-18,4,-83,-80,-9,-76,9
-170,-101,68,126,-126,-18,10,-65,-68,-9,-76,15
-175,-119,62,144,-126,-30,28,-59,-62,-21,-94,9
-187,-125,68,150,-138,-30,33,-23,-38,-15,-106,-8
-187,-125,68,150,-138,-30,87,42,9,3,-82,4
-187,-107,86,144,-144,-12,147,126,63,63,-40,15
-175,-59,122,114,-150,30,213,234,153,128,25,57
-152,-24,127,85,-144,47,261,360,261,224,91,111
-92,6,104,43,-96,47,285,516,387,326,187,177
-14,60,80,-23,-48,65,327,672,537,446,271,231
82,126,44,-107,24,77,369,870,723,584,379,297
202,222,26,-215,90,119,447,1176,981,782,529,393
322,360,38,-347,144,197,561,1512,1287,1034,733,531
472,468,2,-473,234,233,645,1788,1581,1274,937,681
634,564,-70,-605,348,245,669,1950,1767,1466,1099,789
778,666,-112,-719,444,275,717,2099,1929,1616,1225,885
910,714,-190,-815,552,263,741,2189,2060,1784,1387,1011
1024,768,-250,-893,636,257,627,2099,2096,1898,1519,1137
1102,864,-238,-983,672,305,381,1800,1959,1928,1597,1239
1150,960,-184,-1061,666,383,135,1404,1731,1880,1603,1293
1168,990,-172,-1085,672,407,-2,1044,1473,1724,1519,1281
1066,930,-130,-1001,600,395,-74,684,1119,1430,1291,1161
856,804,-52,-833,456,371,-134,258,675,1004,955,951
634,600,-34,-623,336,281,-194,-209,183,560,589,705
400,432,32,-413,186,227,-308,-749,-350,140,259,495
148,348,193,-251,-24,275,-470,-1319,-872,-213,-10,333
-74,246,319,-89,-191,281,-578,-1685,-1244,-495,-220,195
-170,84,253,43,-209,167,-590,-1757,-1358,-657,-358,69
-211,-83,127,144,-167,24,-542,-1607,-1298,-705,-448,-20
-265,-221,50,240,-155,-90,-500,-1457,-1226,-717,-490,-104
-313,-275,44,288,-173,-120,-500,-1373,-1172,-717,-526,-146
-325,-263,68,288,-191,-102,-536,-1301,-1124,-717,-538,-176
-301,-245,62,270,-179,-96,-578,-1259,-1094,-711,-550,-212
-301,-269,38,282,-167,-120,-620,-1241,-1064,-711,-550,-224
-313,-287,26,300,-167,-138,-638,-1175,-986,-663,-520,-224
-319,-269,56,288,-185,-108,-608,-1037,-890,-591,-472,-206
-313,-245,74,276,-191,-90,-572,-929,-800,-543,-436,-200
-325,-245,86,282,-203,-84,-536,-827,-734,-495,-424,-212
-337,-257,86,294,-209,-90,-470,-701,-644,-435,-394,-200
-313,-257,62,282,-185,-102,-362,-569,-524,-357,-322,-158
-289,-233,62,258,-173,-90,-254,-449,-416,-267,-262,-98
-283,-197,92,234,-185,-54,-206,-383,-356,-207,-220,-68
-265,-149,122,204,-191,-18,-164,-329,-302,-177,-208,-50
-253,-119,127,180,-191,6,-122,-293,-260,-165,-178,-38
-253,-143,116,192,-179,-18,-104,-263,-236,-147,-166,-44
-241,-155,92,192,-161,-36,-92,-227,-224,-135,-166,-44
-205,-143,68,168,-144,-42,-74,-191,-200,-129,-142,-38
-175,-107,74,138,-132,-18,-62,-167,-188,-123,-148,-50
-187,-101,92,138,-150,-6,-56,-149,-170,-123,-154,-62
-211,-167,50,186,-138,-60,-26,-107,-146,-87,-136,-38
-211,-203,14,204,-120,-96,-2,-83,-128,-69,-112,-14
-199,-137,68,162,-144,-36,-2,-101,-122,-69,-118,-14
-205,-125,86,162,-150,-24,-2,-101,-116,-63,-118,-14
-205,-119,92,156,-150,-18,-2,-101,-116,-57,-112,-8
-205,-107,104,150,-150,-6,-2,-107,-104,-57,-118,-8
-205,-101,110,150,-155,0,-2,-107,-104,-69,-118,-8
-193,-113,86,150,-150,-18,-14,-95,-110,-63,-124,-14
-193,-125,74,156,-144,-30,-14,-83,-110,-63,-118,-14
-181,-155,32,162,-114,-66,-2,-65,-98,-51,-106,-20
-181,-161,26,168,-114,-72,10,-53,-92,-51,-94,-20
-187,-161,32,168,-120,-66,10,-47,-86,-39,-94,-14
-187,-161,32,168,-120,-66,16,-47,-80,-33,-94,-14
-193,-143,56,162,-132,-48,22,-53,-80,-27,-100,-8
-193,-143,56,162,-132,-48,22,-47,-80,-27,-88,4
-193,-137,62,162,-138,-42,22,-47,-80,-33,-94,-2
-193,-131,68,156,-138,-36,22,-41,-74,-33,-94,-8
-187,-125,68,150,-138,-30,22,-41,-74,-39,-106,-14
-187,-113,80,144,-144,-18,22,-41,-74,-39,-106,-14
-181,-113,74,144,-138,-24,22,-35,-74,-39,-106,-14
-181,-113,74,144,-138,-24,28,-29,-74,-39,-106,-14
-181,-119,68,144,-132,-30,28,-29,-68,-33,-106,-14
-181,-125,62,150,-132,-36,33,-29,-68,-27,-100,-14
-181,-131,56,150,-126,-42,33,-23,-68,-21,-94,-8
-181,-125,62,150,-132,-36,28,-23,-62,-21,-94,-8
-175,-113,68,138,-132,-24,28,-11,-62,-15,-82,4
-175,-113,68,138,-132,-24,28,-11,-62,-21,-82,4
-175,-113,68,138,-132,-24,28,-11,-62,-21,-88,-2
-175,-125,56,144,-126,-36,28,-11,-62,-21,-94,4
-181,-125,62,150,-132,-36,28,-11,-62,-21,-100,-2
-175,-125,56,144,-126,-36,28,-11,-56,-21,-100,-2
-170,-119,56,138,-120,-36,33,-5,-56,-15,-100,-2
-175,-119,62,144,-126,-30,33,-5,-56,-15,-94,-2
-170,-113,62,138,-126,-30,33,1,-50,-15,-94,-2
-170,-113,62,138,-126,-30,33,1,-50,-15,-100,-2
-170,-107,68,132,-126,-24,33,1,-56,-15,-100,-8
-170,-95,80,126,-132,-12,33,1,-56,-15,-94,-8
-170,-101,74,132,-132,-18,28,1,-56,-15,-94,-2
-170,-107,68,132,-126,-24,28,1,-50,-15,-88,4
-170,-113,56,132,-120,-30,33,25,-38,-9,-76,4
-170,-125,38,138,-108,-42,33,25,-38,-9,-76,9
-164,-107,50,126,-108,-30,33,31,-32,3,-76,4
-164,-95,62,120,-114,-18,33,31,-32,3,-76,4
-170,-95,68,120,-120,-12,33,25,-32,-3,-76,4
-164,-95,62,120,-114,-18,33,25,-32,-3,-76,4
-164,-95,62,120,-114,-18,33,25,-38,-3,-76,9
-164,-95,62,120,-114,-18,33,25,-38,-3,-76,9
-164,-101,56,120,-114,-24,33,37,-32,3,-70,9
-164,-107,50,126,-108,-30,33,42,-26,3,-70,9
-164,-113,44,126,-108,-36,33,42,-26,-3,-76,9
-164,-119,38,132,-102,-42,33,42,-26,-3,-76,9
-158,-113,38,126,-102,-36,28,37,-26,-3,-82,9
-152,-89,56,108,-108,-18,22,42,-26,-3,-82,9
-134,-83,44,102,-90,-18,22,42,-14,-3,-88,4
-134,-89,38,102,-90,-24,22,42,-14,3,-82,9
-128,-83,38,102,-84,-24,22,42,-20,3,-76,9
-122,-83,32,102,-78,-24,22,48,-14,3,-76,9
-122,-95,20,102,-72,-36,22,48,-20,9,-64,15
-122,-95,20,102,-72,-36,22,60,-14,15,-64,9
-122,-89,26,102,-78,-30,28,66,-8,9,-64,9
-122,-89,26,102,-78,-30,28,72,-2,15,-64,9
-122,-89,26,102,-78,-30,33,78,9,15,-64,9
-116,-77,32,102,-78,-24,33,78,9,15,-64,9
-104,-77,20,97,-66,-30,28,90,9,21,-58,9
-104,-77,20,97,-66,-30,28,90,9,27,-52,9
-98,-71,20,91,-60,-24,22,102,9,27,-52,9
-98,-59,32,85,-66,-12,16,102,9,27,-52,9
-92,-53,32,79,-66,-12,16,108,21,39,-46,9
-80,-53,20,73,-54,-18,16,114,27,45,-34,15
-80,-53,20,73,-54,-18,16,126,39,57,-28,21
-80,-42,32,67,-60,-6,4,132,51,63,-28,21
-62,-42,26,49,-42,0,10,150,51,68,-10,33
-50,-36,20,43,-36,0,10,150,57,68,-10,39
-44,-30,20,37,-30,0,10,162,63,74,2,39
-38,-30,14,31,-24,0,10,168,69,80,8,51
-32,-6,32,19,-30,18,-2,162,69,80,8,51
-26,0,32,13,-30,24,-8,162,69,86,14,51
-14,6,26,1,-18,24,-14,168,69,86,20,57
-14,6,26,1,-18,24,-14,180,81,98,25,63
-8,6,20,1,-12,18,-14,186,87,104,25,69
-2,18,26,-11,-12,30,-20,186,93,104,25,75
4,18,20,-11,-6,24,-20,198,105,104,31,75
10,12,8,-11,0,18,-20,198,111,116,43,87
22,12,-4,-17,12,12,-20,198,117,128,43,93
34,18,-10,-29,24,12,-26,204,117,134,43,99
34,30,2,-35,18,24,-32,204,111,140,49,105
34,48,20,-41,6,41,-38,198,111,140,49,105
40,48,14,-47,12,36,-44,198,111,146,61,105
40,48,14,-47,12,36,-44,198,111,146,67,117
46,42,2,-47,24,30,-32,192,111,146,73,117
52,42,-4,-47,30,24,-44,186,105,146,73,117
52,60,14,-59,18,41,-56,180,99,140,67,111
58,60,8,-59,24,41,-56,174,99,140,67,117
58,60,8,-59,24,41,-56,168,99,134,61,117
58,60,8,-59,24,41,-62,168,99,134,61,117
52,66,20,-59,18,41,-62,156,87,128,67,123
52,66,20,-59,18,41,-62,156,87,140,67,123
52,66,20,-59,18,41,-50,162,87,146,79,129
58,72,20,-65,18,41,-50,156,81,140,79,129
58,72,20,-65,18,41,-62,144,81,140,67,129
58,72,20,-65,18,41,-62,144,81,140,67,129
52,72,26,-65,12,41,-68,138,75,140,61,129
52,72,26,-65,12,41,-62,138,75,134,61,123
46,72,32,-59,6,47,-62,138,75,134,61,123
52,66,20,-59,18,41,-62,138,75,134,61,117
46,66,26,-59,12,41,-50,138,81,134,61,117
52,66,20,-59,18,41,-44,138,81,134,61,117
52,72,26,-65,12,41,-38,132,81,134,67,117
40,72,38,-59,0,47,-32,132,81,134,67,117
40,72,38,-59,0,47,-14,132,81,134,67,111
40,66,32,-53,6,41,-14,132,81,134,61,111
28,48,26,-41,0,41,4,132,81,134,61,111
10,48,44,-29,-18,41,4,132,81,134,61,111
-2,42,50,-23,-24,41,16,120,81,128,61,99
-14,48,68,-17,-42,53,22,114,81,128,55,99
-20,48,74,-17,-48,53,28,120,87,128,55,93
-32,30,68,1,-48,41,33,114,81,122,49,93
-32,24,62,1,-48,41,33,114,81,128,49,93
-50,24,80,13,-66,47,33,108,75,122,43,93
-50,12,68,19,-60,41,33,96,69,116,43,81
-50,0,56,25,-54,36,45,90,63,116,37,81
-62,-6,62,31,-60,36,45,78,45,98,31,75
-62,-6,62,31,-60,36,45,72,39,92,31,69
-80,-18,68,49,-72,30,39,66,39,86,25,63
-92,-18,80,55,-84,36,45,54,33,80,25,51
-98,-12,92,55,-96,41,39,48,27,74,14,39
-110,-12,104,61,-108,41,39,42,21,68,14,39
-104,-18,92,61,-96,41,45,42,15,68,14,39
-104,-18,92,61,-96,41,45,42,9,68,8,33
-104,-24,86,61,-96,36,51,37,9,63,8,33
-110,-36,80,73,-96,30,63,37,9,63,2,27
-116,-30,92,73,-102,36,57,31,4,57,2,27
-122,-30,98,73,-108,41,57,25,-2,57,-4,27
-128,-24,110,73,-120,41,45,13,-2,51,-4,27
-128,-30,104,79,-114,41,45,7,-2,51,-4,27
-122,-42,86,79,-102,30,45,13,-2,51,-4,21
-122,-42,80,85,-102,24,45,13,-2,51,-4,21
-116,-47,62,85,-90,6,45,13,-14,45,-4,21
-116,-53,56,91,-90,0,45,7,-14,45,-16,21
-122,-42,74,85,-102,18,45,1,-14,39,-10,15
-122,-42,80,85,-102,24,45,1,-14,39,-10,15
-128,-36,98,79,-114,36,45,-5,-14,33,-22,9
-134,-24,116,79,-126,41,45,-5,-20,27,-22,9
-134,-36,104,85,-120,41,51,1,-14,33,-16,9
-134,-42,92,91,-114,30,51,1,-14,33,-16,9
-134,-59,68,102,-102,6,57,7,-8,39,-10,15
-140,-59,74,102,-108,6,57,7,-8,39,-10,15
-140,-53,80,102,-114,12,63,7,-14,45,-10,15
-140,-47,86,97,-114,18,63,7,-14,45,-10,15
-134,-42,86,91,-114,24,57,7,-20,51,-16,15
-134,-53,74,97,-108,12,57,7,-20,51,-16,15
-140,-42,92,97,-120,24,51,1,-20,45,-22,9
-140,-36,110,85,-126,41,57,7,-20,45,-22,9
-134,-24,116,79,-126,41,51,1,-20,39,-28,9
-134,-24,116,79,-126,41,51,1,-14,45,-28,9
-140,-42,98,91,-120,30,57,13,-8,51,-16,9
-134,-47,80,97,-108,18,63,13,-2,51,-16,15
-140,-71,62,102,-102,-6,69,25,9,57,-4,21
-140,-89,44,102,-96,-24,75,25,9,63,-4,27
-146,-71,68,102,-108,0,69,25,9,63,-10,21
-146,-53,86,102,-120,18,63,25,4,63,-10,21
-146,-42,104,97,-126,36,57,25,4,57,-10,15
-146,-36,116,91,-132,41,57,25,-2,57,-10,15
-146,-42,110,91,-126,41,57,25,4,63,-4,21
-146,-42,110,91,-126,41,57,31,9,68,2,21
-146,-42,104,97,-126,36,63,25,9,68,2,21
-146,-42,98,97,-126,30,63,25,9,68,2,21
-146,-42,110,91,-126,41,69,37,9,68,2,21
-146,-42,110,91,-126,41,69,37,9,68,8,27
-146,-30,122,85,-132,41,75,37,9,68,8,27
-146,-18,127,79,-138,53,75,37,9,68,8,27
-146,-24,127,85,-138,47,75,42,9,68,14,33
-140,-30,116,85,-126,41,75,42,15,68,14,33
-140,-42,98,91,-120,30,75,42,21,68,20,33
-140,-42,92,97,-120,24,69,42,21,68,20,33
-140,-42,98,91,-120,30,69,42,15,68,20,39
-140,-42,98,91,-120,30,69,42,15,68,20,39
-140,-53,80,102,-114,12,69,48,15,80,25,45
-140,-53,80,102,-114,12,69,48,15,80,25,45
-140,-42,98,91,-120,30,63,42,15,74,20,39
-134,-42,92,91,-114,30,63,42,15,74,20,39
-134,-42,98,85,-114,36,57,42,15,68,14,33
-134,-30,110,79,-120,41,57,42,15,68,14,33
-128,-24,110,73,-120,41,57,42,15,68,8,27
-122,-30,98,73,-108,41,57,42,15,68,8,27
-116,-30,92,73,-102,36,57,42,15,68,2,21
-110,-24,92,67,-102,41,57,42,15,68,2,21
-116,-36,86,73,-102,30,57,42,15,68,2,27
-116,-42,80,79,-96,24,57,42,15,68,2,27
-122,-42,86,79,-102,30,51,42,15,68,2,33
-122,-42,80,85,-102,24,51,42,15,68,8,33
-122,-42,80,85,-102,24,57,42,15,68,8,27
-122,-42,86,79,-102,30,57,42,15,68,8,27
-116,-24,98,67,-108,41,57,37,9,74,2,21
-116,-18,104,67,-108,41,51,37,9,68,-4,15
-116,-30,92,73,-102,36,51,31,9,68,-4,21
-116,-36,86,73,-102,30,51,25,9,68,2,21
-116,-42,80,79,-96,24,51,19,9,68,2,27
-122,-42,80,85,-102,24,51,19,9,68,-4,27
-122,-36,92,79,-108,36,45,13,9,68,2,27
-128,-36,98,79,-114,36,45,13,9,68,2,27
-128,-36,98,79,-114,36,39,19,9,68,8,21
-122,-42,86,79,-102,30,39,19,9,68,2,21
-122,-42,86,79,-102,30,39,19,9,63,2,21
-122,-42,86,79,-102,30,39,19,4,63,2,21
-122,-36,92,79,-108,36,39,13,4,57,2,21
-122,-36,92,79,-108,36,39,13,4,57,2,21
-122,-36,92,79,-108,36,45,13,-2,63,-4,21
-128,-36,98,79,-114,36,45,13,-2,57,-4,21
-128,-42,86,85,-108,24,51,13,-2,63,-4,21
-128,-42,86,85,-108,24,51,7,-2,63,2,21
-128,-42,92,85,-108,30,39,1,-8,57,-4,15
-128,-36,98,79,-114,36,33,-5,-8,51,-10,9
-128,-36,98,79,-114,36,33,-5,-8,45,-16,9
-128,-42,92,85,-108,30,33,-5,-8,45,-16,9
-128,-42,92,85,-108,30,33,-11,-8,45,-16,9
-128,-42,86,85,-108,24,33,-11,-8,45,-16,9
-128,-42,86,85,-108,24,33,-17,-20,45,-22,9
-128,-42,92,85,-108,30,33,-17,-20,39,-22,9
-128,-6,127,67,-126,53,16,-23,-32,27,-34,-8
-116,-24,98,67,-108,41,33,-23,-20,39,-22,4
-116,-36,86,73,-102,30,33,-11,-8,51,-22,9
-116,-24,98,67,-108,41,39,-11,-20,39,-16,9
-116,-36,86,73,-102,30,33,-11,-14,39,-16,9
-116,-42,80,79,-96,24,33,-11,-14,39,-16,9
-116,-42,68,85,-96,12,33,-11,-8,39,-16,9
-116,-47,62,85,-90,6,33,-11,-8,39,-16,9
-122,-42,74,85,-102,18,33,-17,-14,39,-22,9
-122,-42,74,85,-102,18,33,-23,-26,33,-22,9
-128,-42,86,85,-108,24,33,-29,-32,33,-28,4
-128,-42,92,85,-108,30,33,-29,-38,33,-28,4
-134,-42,98,85,-114,36,33,-23,-32,33,-28,9
-134,-42,98,85,-114,36,33,-23,-38,27,-28,9
-128,-42,86,85,-108,24,33,-17,-32,27,-22,9
-128,-59,62,97,-96,0,33,-11,-32,33,-22,9
-128,-59,62,97,-96,0,33,-11,-32,33,-22,9
-128,-53,68,97,-102,6,33,-23,-32,33,-22,9
-128,-53,68,97,-102,6,33,-23,-32,33,-22,9
-128,-53,68,97,-102,6,33,-23,-32,33,-16,9
-128,-47,74,91,-102,12,33,-23,-32,33,-16,9
-134,-42,86,91,-114,24,33,-17,-32,33,-22,9
-134,-42,92,91,-114,30,33,-17,-32,33,-22,9
-128,-42,80,91,-108,18,33,-17,-32,33,-22,9
-128,-42,86,85,-108,24,33,-17,-26,39,-28,9
-122,-36,92,79,-108,36,33,-11,-26,39,-22,9
-122,-18,110,67,-114,41,33,-11,-14,33,-28,9
-122,-12,116,67,-120,47,33,-11,-14,33,-28,9
-128,-18,116,73,-120,41,33,-11,-20,33,-28,9
-122,0,127,61,-126,59,33,-11,-14,33,-22,9
