,,,,,,,,,,,
2019-09-01 15:32:50,,,,,,,,,,,
,,,,,,,,,,,
I,II,III,aVR,aVL,aVF,V1,V2,V3,V4,V5,V6
-7,-17,-12,7,0,-16,114,207,117,104,-448,-115
5,-17,-23,1,12,-22,108,213,117,104,-448,-115
5,-17,-23,1,12,-22,102,213,117,110,-448,-109
11,-17,-28,1,18,-22,102,213,123,116,-442,-115
11,-5,-18,-5,12,-10,108,219,135,128,-436,-103
23,7,-18,-17,18,-4,96,231,147,134,-436,-109
46,13,-34,-29,40,-10,102,231,159,134,-436,-115
46,13,-34,-29,40,-10,96,237,171,140,-430,-115
41,7,-34,-29,35,-16,90,237,183,146,-436,-115
23,7,-18,-17,18,-4,96,243,195,164,-430,-97
23,19,-6,-23,12,6,90,255,213,170,-424,-85
41,24,-18,-34,30,1,96,261,219,176,-412,-79
46,29,-18,-34,35,6,96,267,237,188,-406,-67
46,29,-18,-34,35,6,96,273,255,200,-394,-61
35,29,-6,-29,24,12,102,285,267,218,-376,-55
46,35,-12,-39,30,12,102,303,291,224,-370,-49
46,47,0,-45,24,24,108,321,315,248,-346,-37
41,59,18,-51,12,36,120,339,339,266,-328,-25
35,59,24,-45,6,42,126,351,351,278,-316,-7
41,59,18,-51,12,36,120,351,363,284,-316,-1
46,59,12,-51,18,36,114,357,369,296,-310,5
57,65,6,-57,30,36,120,363,381,308,-304,17
63,77,12,-63,30,48,114,375,399,314,-304,23
57,83,24,-69,18,54,120,393,411,332,-286,35
57,83,24,-69,18,54,120,411,423,344,-280,41
63,95,30,-75,18,66,120,423,435,350,-262,41
63,95,30,-75,18,66,120,435,447,368,-244,52
63,95,30,-75,18,66,132,453,465,380,-226,63
69,113,42,-87,18,78,138,459,489,398,-208,81
69,125,54,-93,12,90,138,471,507,410,-196,93
63,125,60,-87,6,96,138,477,513,416,-184,99
57,125,66,-87,0,96,138,489,531,428,-178,105
69,131,60,-99,6,96,132,507,543,446,-166,117
87,149,60,-111,18,108,132,525,561,458,-160,123
99,161,60,-123,24,114,132,549,579,482,-136,141
99,167,66,-129,18,120,144,561,597,494,-118,153
99,167,66,-129,18,120,144,573,609,506,-106,153
75,167,90,-117,-6,132,162,603,633,524,-88,177
75,167,90,-117,-6,132,162,609,645,536,-76,183
105,179,72,-141,18,126,162,615,651,548,-70,183
117,191,72,-153,24,132,156,633,663,560,-64,195
105,185,78,-141,18,132,156,639,681,566,-52,195
81,173,90,-123,0,132,156,651,693,572,-40,207
81,185,102,-129,-6,144,150,657,705,584,-28,213
105,203,96,-153,6,150,156,675,723,596,-16,225
141,227,84,-183,30,156,150,687,735,596,-10,231
153,239,84,-195,35,162,150,693,741,614,8,237
153,245,90,-195,35,168,156,705,753,620,19,249
153,245,90,-195,35,168,162,711,765,626,19,243
159,245,84,-195,40,168,162,717,777,638,19,243
153,245,90,-195,35,168,168,729,789,650,24,249
159,251,90,-201,35,174,174,735,807,656,30,255
147,257,108,-195,24,186,174,753,819,668,42,267
159,257,96,-201,35,180,162,747,813,662,36,255
171,257,84,-207,46,174,156,735,807,656,36,255
171,263,90,-213,40,180,162,741,813,656,48,261
171,281,108,-219,35,198,162,747,813,656,60,261
177,287,108,-231,35,198,174,753,819,656,66,273
177,281,102,-225,40,192,174,753,819,650,66,273
177,281,102,-225,40,192,168,735,819,656,60,279
177,281,102,-225,40,192,162,723,813,656,60,285
183,275,90,-225,46,186,162,705,801,656,60,285
183,269,84,-219,52,180,150,681,795,650,48,279
201,269,66,-231,70,168,138,651,777,638,42,267
201,263,60,-231,70,162,126,627,759,626,48,267
177,269,90,-219,46,180,120,609,747,620,72,261
159,257,96,-201,35,180,108,585,729,602,120,261
141,245,102,-189,24,174,108,561,705,590,156,255
141,239,96,-189,24,168,102,531,675,566,180,243
153,221,66,-183,46,144,90,501,651,542,198,231
129,215,84,-171,24,150,90,477,633,530,222,231
105,209,102,-153,6,156,84,453,615,518,246,231
93,209,114,-147,-6,162,78,423,591,500,264,213
105,215,108,-159,0,162,72,387,567,476,276,201
87,209,120,-141,-12,168,72,369,549,464,294,195
75,191,114,-129,-18,156,66,339,507,428,288,177
87,173,84,-123,6,132,61,303,465,392,282,147
69,149,78,-105,0,114,56,273,429,356,270,129
57,125,66,-87,0,96,56,243,405,326,252,111
57,113,54,-81,6,84,50,219,369,296,240,87
46,101,54,-69,0,78,44,195,345,266,222,75
41,77,36,-57,6,54,44,165,321,236,210,52
29,71,42,-51,-6,54,50,141,297,218,198,35
11,65,54,-34,-18,60,56,129,279,206,192,17
5,47,42,-29,-18,42,56,111,255,182,186,-1
-7,29,36,-11,-18,30,50,93,231,158,174,-25
-1,29,30,-11,-12,30,50,81,207,134,162,-43
5,24,18,-17,-6,18,50,69,183,116,150,-49
-7,19,24,-11,-18,18,50,63,165,92,138,-61
-31,7,36,7,-36,18,56,51,153,80,132,-67
-25,-5,18,13,-24,6,44,33,129,50,114,-91
-25,-23,0,25,-12,-10,38,15,111,40,102,-109
-37,-29,6,31,-24,-10,38,3,99,22,96,-127
-43,-35,6,37,-24,-16,38,-9,87,-2,90,-145
-37,-29,6,31,-24,-10,38,-15,69,-14,84,-157
-37,-29,6,31,-24,-10,38,-27,45,-26,72,-169
-37,-41,-6,37,-18,-22,44,-33,39,-38,72,-175
-31,-53,-23,37,-6,-40,44,-33,39,-44,66,-187
-31,-59,-28,43,0,-46,44,-39,27,-50,60,-187
-37,-65,-28,49,-6,-46,38,-45,27,-56,60,-193
-37,-71,-34,55,0,-52,38,-50,21,-74,48,-199
-43,-77,-34,55,-6,-58,38,-55,15,-80,48,-211
-43,-65,-23,49,-12,-46,38,-55,9,-80,48,-211
-43,-59,-18,49,-12,-40,50,-55,-3,-80,60,-217
-49,-71,-23,61,-12,-46,44,-61,-9,-92,54,-217
-61,-77,-18,67,-24,-46,44,-61,-15,-86,54,-223
-49,-77,-28,61,-12,-52,38,-61,-27,-92,54,-229
-37,-83,-46,61,6,-64,38,-67,-21,-92,54,-229
-19,-83,-64,49,24,-76,32,-67,-27,-92,54,-235
-13,-77,-64,43,24,-70,26,-79,-27,-98,54,-241
-31,-77,-46,49,6,-64,32,-73,-21,-98,60,-235
-37,-71,-34,55,0,-52,38,-73,-21,-104,72,-241
-55,-65,-12,55,-24,-40,44,-67,-21,-104,72,-241
-61,-59,0,61,-30,-28,44,-73,-21,-110,72,-247
-49,-65,-18,55,-18,-40,44,-79,-32,-116,66,-247
-43,-77,-34,55,-6,-58,38,-79,-37,-116,60,-259
-43,-89,-46,61,0,-70,38,-79,-32,-116,60,-247
-43,-89,-46,61,0,-70,44,-79,-27,-116,66,-247
-43,-101,-58,67,6,-82,44,-85,-32,-116,72,-247
-49,-95,-46,73,0,-70,32,-85,-32,-122,66,-253
-61,-83,-23,73,-18,-52,38,-73,-27,-122,78,-247
-61,-77,-18,67,-24,-46,44,-79,-15,-122,84,-241
-49,-77,-28,61,-12,-52,32,-85,-27,-128,78,-241
-37,-77,-40,55,0,-58,26,-91,-27,-134,72,-241
-31,-83,-52,55,12,-70,26,-103,-27,-134,72,-235
-19,-83,-64,49,24,-76,32,-97,-37,-140,66,-241
-25,-83,-58,55,18,-70,32,-103,-43,-140,60,-241
-31,-89,-58,55,12,-76,26,-103,-49,-146,54,-253
-7,-83,-76,43,35,-82,20,-109,-49,-152,48,-259
-1,-71,-70,37,35,-70,20,-103,-43,-152,54,-259
-1,-65,-64,31,30,-64,26,-91,-37,-146,60,-253
-7,-65,-58,31,24,-64,26,-91,-32,-140,72,-253
-1,-59,-58,31,30,-58,26,-97,-37,-146,72,-253
-19,-65,-46,37,12,-58,26,-97,-37,-134,78,-247
-13,-77,-64,43,24,-70,20,-97,-43,-134,72,-241
11,-77,-88,31,46,-82,20,-97,-55,-134,66,-247
-1,-83,-82,43,40,-82,32,-91,-49,-134,72,-241
-19,-89,-70,49,24,-82,44,-79,-43,-128,78,-229
-19,-83,-64,49,24,-76,44,-79,-37,-134,84,-229
-25,-83,-58,55,18,-70,38,-79,-37,-140,84,-229
-37,-89,-52,61,6,-70,32,-85,-43,-152,78,-235
-31,-95,-64,61,18,-82,26,-85,-49,-146,78,-229
-31,-83,-52,55,12,-70,26,-73,-43,-134,84,-223
-37,-71,-34,55,0,-52,32,-67,-37,-116,102,-211
-37,-65,-28,49,-6,-46,38,-55,-32,-104,108,-199
-43,-65,-23,49,-12,-46,38,-55,-37,-104,108,-199
-31,-71,-40,49,6,-58,32,-61,-43,-104,102,-205
-25,-71,-46,49,12,-58,44,-55,-37,-110,108,-199
-25,-71,-46,49,12,-58,44,-55,-43,-110,108,-199
-13,-71,-58,43,24,-64,38,-61,-43,-116,108,-205
-19,-59,-40,37,12,-52,38,-55,-32,-110,114,-193
-25,-53,-28,37,0,-40,38,-50,-32,-98,114,-199
-25,-53,-28,37,0,-40,38,-55,-32,-98,114,-199
-13,-41,-28,25,6,-34,32,-55,-32,-104,108,-205
-19,-41,-23,25,0,-34,32,-61,-32,-98,102,-205
-31,-59,-28,43,0,-46,32,-73,-37,-110,90,-217
-55,-77,-23,61,-18,-52,26,-73,-43,-122,90,-223
-55,-89,-34,67,-12,-64,26,-79,-43,-128,78,-229
-37,-89,-52,61,6,-70,14,-73,-49,-128,84,-235
-37,-83,-46,61,6,-64,14,-61,-55,-122,84,-229
-25,-65,-40,43,6,-52,20,-61,-49,-116,96,-229
-19,-65,-46,37,12,-58,14,-55,-55,-110,90,-235
-37,-59,-23,49,-6,-40,32,-50,-55,-104,96,-229
-25,-53,-28,37,0,-40,32,-55,-61,-104,96,-241
5,-53,-58,19,30,-58,26,-55,-67,-110,84,-241
-7,-53,-46,25,18,-52,32,-55,-61,-110,84,-235
-37,-59,-23,49,-6,-40,32,-55,-61,-110,90,-235
-31,-71,-40,49,6,-58,20,-55,-67,-116,78,-235
-25,-59,-34,43,6,-46,20,-55,-67,-110,84,-235
5,-47,-52,19,30,-52,14,-55,-73,-116,78,-247
5,-47,-52,19,30,-52,14,-61,-85,-116,72,-253
5,-47,-52,19,30,-52,14,-67,-91,-122,66,-265
-1,-47,-46,25,24,-46,14,-61,-85,-116,78,-259
-7,-47,-40,25,18,-46,20,-61,-91,-116,78,-253
-25,-53,-28,37,0,-40,32,-61,-85,-104,84,-241
-49,-59,-12,55,-18,-34,38,-55,-79,-98,90,-229
-43,-53,-12,43,-18,-34,32,-55,-85,-104,78,-235
-31,-47,-18,37,-6,-34,38,-55,-85,-110,78,-229
-19,-41,-23,25,0,-34,38,-55,-91,-110,72,-235
-19,-41,-23,25,0,-34,32,-61,-91,-122,72,-235
-25,-65,-40,43,6,-52,26,-67,-91,-128,66,-241
-7,-65,-58,31,24,-64,20,-67,-103,-128,72,-247
-1,-65,-64,31,30,-64,14,-73,-103,-128,66,-241
11,-59,-70,25,40,-64,8,-67,-103,-128,72,-241
-13,-53,-40,31,12,-46,14,-61,-97,-116,84,-235
-31,-41,-12,31,-12,-28,26,-61,-97,-116,90,-229
-31,-35,-6,31,-12,-22,32,-61,-97,-122,84,-235
-25,-35,-12,31,-6,-22,32,-61,-97,-128,84,-241
-19,-47,-28,31,6,-40,32,-67,-109,-134,78,-247
-25,-47,-23,37,0,-34,38,-67,-103,-140,84,-241
-37,-53,-18,43,-12,-34,38,-61,-97,-140,90,-235
-37,-47,-12,43,-12,-28,38,-67,-97,-140,96,-229
-19,-47,-28,31,6,-40,32,-73,-109,-146,90,-235
-19,-53,-34,31,6,-46,32,-79,-109,-146,96,-235
-19,-59,-40,37,12,-52,26,-79,-109,-152,90,-241
-7,-65,-58,31,24,-64,8,-91,-121,-164,84,-253
-1,-53,-52,25,24,-52,2,-103,-121,-164,84,-259
5,-53,-58,19,30,-58,-4,-103,-121,-170,84,-271
-19,-53,-34,31,6,-46,2,-97,-109,-170,96,-265
-43,-59,-18,49,-12,-40,2,-103,-109,-176,96,-259
-37,-59,-23,49,-6,-40,14,-97,-109,-176,102,-259
-25,-65,-40,43,6,-52,14,-103,-109,-182,96,-259
-13,-77,-64,43,24,-70,8,-109,-115,-182,96,-259
-7,-83,-76,43,35,-82,8,-109,-121,-176,96,-259
-7,-77,-70,37,30,-76,14,-103,-109,-170,108,-247
-31,-77,-46,49,6,-64,14,-103,-103,-164,120,-241
-31,-71,-40,49,6,-58,8,-103,-103,-164,126,-247
-31,-71,-40,49,6,-58,2,-109,-103,-176,120,-253
-7,-71,-64,37,30,-70,-10,-127,-115,-194,108,-265
-7,-71,-64,37,30,-70,-16,-133,-127,-200,96,-277
-31,-77,-46,49,6,-64,-10,-133,-127,-200,108,-271
-43,-83,-40,61,0,-64,-4,-133,-121,-200,108,-265
-31,-77,-46,49,6,-64,-4,-133,-121,-200,114,-265
-25,-65,-40,43,6,-52,2,-127,-115,-194,114,-259
-13,-65,-52,37,18,-58,2,-127,-109,-194,120,-253
-19,-77,-58,43,18,-70,-4,-127,-109,-194,120,-253
-31,-83,-52,55,12,-70,8,-133,-109,-194,126,-247
-19,-77,-58,43,18,-70,8,-133,-109,-200,126,-241
-13,-77,-64,43,24,-70,2,-133,-115,-200,120,-247
-13,-77,-64,43,24,-70,2,-133,-121,-206,120,-247
-19,-77,-58,43,18,-70,2,-127,-115,-206,120,-247
-25,-77,-52,49,12,-64,8,-127,-115,-200,120,-247
-25,-65,-40,43,6,-52,2,-127,-109,-194,120,-247
-25,-65,-40,43,6,-52,2,-127,-103,-194,120,-247
-37,-71,-34,55,0,-52,8,-133,-103,-200,120,-247
-55,-83,-28,67,-12,-58,8,-127,-103,-206,120,-247
-67,-89,-23,73,-24,-58,8,-121,-97,-206,120,-241
-67,-89,-23,73,-24,-58,14,-121,-97,-206,120,-241
-55,-77,-23,61,-18,-52,14,-115,-103,-206,126,-235
-61,-77,-18,67,-24,-46,14,-115,-109,-206,126,-241
-73,-89,-18,79,-30,-52,8,-121,-103,-200,126,-241
-67,-95,-28,79,-18,-64,8,-127,-109,-206,126,-247
-49,-89,-40,67,-6,-64,-4,-133,-121,-206,120,-253
-31,-83,-52,55,12,-70,2,-139,-115,-206,126,-247
-31,-83,-52,55,12,-70,2,-133,-115,-200,132,-241
-37,-77,-40,55,0,-58,2,-133,-115,-200,132,-241
-31,-71,-40,49,6,-58,2,-139,-121,-200,126,-247
-25,-71,-46,49,12,-58,2,-127,-115,-200,126,-253
-37,-65,-28,49,-6,-46,2,-127,-115,-200,120,-247
-37,-59,-23,49,-6,-40,2,-133,-121,-200,114,-253
-43,-65,-23,49,-12,-46,2,-127,-121,-206,108,-259
-73,-83,-12,79,-30,-46,14,-121,-121,-206,114,-259
-79,-101,-23,85,-30,-64,8,-127,-133,-206,108,-265
-79,-107,-28,91,-24,-70,8,-127,-145,-212,102,-277
-67,-113,-46,85,-12,-82,2,-133,-145,-218,102,-283
-73,-113,-40,91,-18,-76,-4,-139,-151,-218,96,-277
-67,-107,-40,85,-12,-76,-4,-133,-157,-218,96,-277
-61,-101,-40,79,-12,-70,8,-133,-157,-212,96,-271
-43,-89,-46,61,0,-70,8,-133,-157,-206,96,-271
-37,-83,-46,61,6,-64,8,-139,-157,-212,90,-277
-49,-77,-28,61,-12,-52,14,-133,-157,-212,90,-277
-25,-71,-46,49,12,-58,14,-133,-157,-212,90,-289
-7,-71,-64,37,30,-70,2,-133,-163,-218,84,-295
-1,-77,-76,37,35,-76,-4,-139,-169,-224,78,-301
-7,-77,-70,37,30,-76,2,-133,-163,-224,78,-301
-25,-77,-52,49,12,-64,2,-127,-163,-218,84,-295
-37,-83,-46,61,6,-64,2,-133,-163,-218,78,-295
-43,-89,-46,61,0,-70,8,-133,-175,-218,72,-295
-49,-89,-40,67,-6,-64,8,-133,-181,-218,66,-289
-61,-89,-28,73,-18,-58,14,-133,-181,-218,66,-283
-79,-101,-23,85,-30,-64,14,-133,-181,-218,66,-277
-73,-107,-34,91,-18,-70,2,-133,-193,-230,54,-289
-49,-101,-52,73,0,-76,-4,-139,-199,-230,54,-295
-37,-101,-64,67,12,-82,-4,-133,-187,-230,54,-295
-31,-95,-64,61,18,-82,2,-127,-181,-224,66,-289
-19,-89,-70,49,24,-82,8,-133,-193,-224,54,-295
-19,-95,-76,55,30,-88,2,-139,-199,-230,48,-301
-31,-101,-70,61,18,-88,-4,-145,-205,-236,42,-301
-31,-89,-58,55,12,-76,2,-145,-211,-236,42,-295
-37,-77,-40,55,0,-58,2,-133,-205,-242,42,-283
-37,-71,-34,55,0,-52,2,-139,-205,-236,42,-283
-31,-71,-40,49,6,-58,2,-133,-205,-236,42,-283
-25,-71,-46,49,12,-58,2,-133,-205,-230,48,-283
-25,-71,-46,49,12,-58,14,-133,-199,-230,42,-283
-19,-77,-58,43,18,-70,14,-133,-199,-230,42,-289
-19,-95,-76,55,30,-88,2,-145,-205,-236,36,-295
-25,-95,-70,61,24,-82,2,-145,-211,-236,36,-295
-31,-95,-64,61,18,-82,2,-139,-205,-230,36,-289
-25,-89,-64,55,18,-76,2,-139,-211,-236,36,-289
-13,-71,-58,43,24,-64,-4,-145,-217,-242,36,-289
-19,-65,-46,37,12,-58,8,-133,-211,-236,36,-277
-31,-65,-34,43,0,-52,14,-127,-205,-230,30,-277
-25,-65,-40,43,6,-52,20,-127,-205,-230,30,-277
-19,-59,-40,37,12,-52,20,-121,-199,-224,30,-277
-25,-59,-34,43,6,-46,26,-115,-193,-212,36,-265
-25,-59,-34,43,6,-46,32,-115,-187,-206,48,-265
-25,-53,-28,37,0,-40,32,-109,-181,-206,48,-253
-7,-47,-40,25,18,-46,26,-115,-187,-206,42,-259
5,-47,-52,19,30,-52,20,-121,-193,-218,36,-265
-7,-47,-40,25,18,-46,20,-121,-187,-218,36,-259
-7,-41,-34,19,12,-40,26,-115,-187,-212,36,-259
-7,-29,-23,13,6,-28,38,-109,-181,-212,42,-259
-25,-17,6,19,-18,-4,38,-103,-181,-206,36,-247
-19,-11,6,13,-12,-4,38,-109,-187,-200,36,-253
-25,-23,0,25,-12,-10,38,-109,-193,-206,36,-247
-43,-35,6,37,-24,-16,38,-103,-193,-200,42,-247
-19,-35,-18,25,0,-28,32,-109,-193,-200,36,-247
5,-29,-34,7,18,-34,26,-109,-193,-206,36,-247
11,-17,-28,1,18,-22,26,-103,-187,-200,36,-247
29,-5,-34,-17,30,-22,26,-103,-181,-206,36,-247
11,-5,-18,-5,12,-10,32,-97,-175,-200,36,-241
-7,-5,0,1,-6,-4,26,-103,-187,-194,36,-241
-19,-5,12,7,-18,1,14,-109,-187,-194,36,-241
-13,-17,-6,13,-6,-10,-4,-121,-193,-200,30,-247
-25,-23,0,25,-12,-10,-16,-121,-193,-194,36,-241
-25,-23,0,25,-12,-10,-22,-127,-193,-194,42,-229
5,-5,-12,-5,6,-10,-28,-127,-187,-194,48,-223
29,19,-12,-29,18,1,-16,-121,-181,-188,54,-217
46,19,-28,-34,35,-4,-22,-121,-187,-188,48,-223
46,19,-28,-34,35,-4,-34,-127,-199,-194,48,-223
35,13,-23,-23,30,-4,-28,-121,-187,-194,48,-217
35,7,-28,-23,30,-10,-28,-121,-193,-188,42,-223
41,7,-34,-29,35,-16,-34,-127,-199,-200,36,-223
51,1,-52,-23,52,-22,-34,-127,-205,-200,36,-223
51,-11,-64,-17,58,-34,-28,-133,-205,-200,42,-217
29,-23,-52,-5,40,-40,-22,-127,-199,-200,42,-211
29,-41,-70,1,46,-58,-16,-133,-205,-206,36,-217
29,-59,-88,13,58,-76,-28,-145,-217,-224,19,-229
17,-71,-88,25,52,-82,-34,-145,-229,-230,19,-241
11,-77,-88,31,46,-82,-34,-151,-241,-236,14,-241
29,-71,-100,19,64,-88,-34,-163,-247,-242,8,-241
23,-71,-94,25,58,-82,-28,-157,-247,-242,2,-235
11,-59,-70,25,40,-64,-22,-151,-241,-236,2,-223
5,-53,-58,19,30,-58,-10,-145,-247,-230,2,-217
-1,-53,-52,25,24,-52,-10,-145,-247,-230,-4,-217
-1,-59,-58,31,30,-58,-4,-145,-247,-236,-16,-223
-7,-65,-58,31,24,-64,-4,-151,-247,-242,-16,-223
5,-77,-82,31,40,-82,-16,-157,-259,-254,-28,-235
5,-83,-88,37,46,-88,-22,-175,-265,-260,-34,-241
-1,-95,-94,49,46,-94,-34,-181,-271,-266,-46,-259
-13,-113,-100,61,40,-106,-46,-187,-283,-284,-64,-277
-25,-119,-94,73,35,-106,-40,-187,-289,-278,-64,-277
-49,-131,-82,91,18,-106,-40,-187,-289,-278,-70,-277
-61,-125,-64,91,0,-94,-28,-175,-283,-272,-64,-265
-49,-107,-58,79,6,-82,-22,-163,-283,-266,-58,-253
-25,-101,-76,61,24,-88,-28,-169,-283,-272,-64,-253
-13,-101,-88,55,35,-94,-34,-169,-283,-272,-64,-253
-7,-95,-88,49,40,-94,-28,-169,-277,-272,-64,-247
-13,-89,-76,49,30,-82,-22,-169,-277,-272,-64,-241
-31,-89,-58,55,12,-76,-16,-163,-271,-260,-58,-235
-37,-95,-58,67,12,-76,-10,-163,-271,-266,-64,-241
-31,-95,-64,61,18,-82,-10,-169,-271,-266,-64,-241
-37,-101,-64,67,12,-82,-10,-163,-277,-266,-70,-247
-43,-101,-58,67,6,-82,-10,-163,-277,-272,-70,-241
-37,-113,-76,73,18,-94,-22,-175,-283,-278,-76,-241
-37,-125,-88,79,24,-106,-28,-175,-283,-278,-76,-247
-43,-125,-82,79,18,-106,-28,-169,-277,-284,-76,-241
-49,-131,-82,91,18,-106,-22,-169,-277,-272,-76,-241
-49,-131,-82,91,18,-106,-22,-169,-271,-272,-82,-247
-55,-119,-64,85,6,-94,-10,-157,-271,-254,-76,-241
-49,-113,-64,79,6,-88,-10,-163,-271,-254,-76,-241
-43,-119,-76,79,18,-100,-16,-163,-265,-260,-82,-247
-37,-119,-82,79,24,-100,-16,-163,-265,-266,-88,-247
-37,-113,-76,73,18,-94,-16,-157,-259,-266,-88,-241
-55,-107,-52,79,0,-82,2,-145,-247,-254,-76,-229
-73,-107,-34,91,-18,-70,8,-121,-223,-254,-76,-229
-55,-113,-58,79,0,-88,20,-103,-211,-248,-82,-241
-55,-131,-76,91,12,-106,44,-50,-169,-236,-88,-253
-43,-137,-94,85,24,-118,66,9,-115,-218,-88,-271
-43,-143,-100,91,30,-124,108,87,-43,-176,-82,-277
-55,-137,-82,91,12,-112,150,189,33,-128,-52,-271
-37,-125,-88,79,24,-106,180,279,117,-68,-28,-271
-25,-113,-88,67,30,-100,204,351,213,-2,14,-253
-25,-83,-58,55,18,-70,228,417,303,80,84,-199
-13,-35,-23,25,6,-28,246,483,417,212,192,-109
29,19,-12,-29,18,1,240,519,519,344,318,-1
57,71,12,-63,24,42,222,531,597,470,444,111
87,137,48,-105,24,96,192,513,651,590,594,255
117,227,108,-171,6,168,120,435,693,740,786,447
171,317,144,-237,18,234,20,339,753,926,1050,705
237,425,186,-327,30,306,-106,225,819,1148,1356,1023
291,539,246,-411,24,396,-244,45,843,1352,1674,1347
333,641,306,-483,18,474,-406,-187,771,1478,1932,1647
393,749,354,-567,24,552,-610,-505,609,1544,2148,1911
429,857,426,-639,6,642,-790,-841,381,1526,2268,2079
423,965,540,-687,-54,756,-922,-1147,117,1442,2268,2115
405,1043,636,-723,-114,840,-1036,-1465,-205,1244,2106,2013
357,1055,696,-705,-168,876,-1114,-1759,-559,956,1812,1809
303,1007,702,-651,-198,858,-1150,-1987,-889,620,1446,1527
237,911,672,-573,-216,792,-1174,-2137,-1201,230,984,1167
165,767,600,-465,-216,684,-1162,-2209,-1489,-224,462,753
75,587,510,-327,-216,552,-1126,-2191,-1705,-638,8,387
-7,383,390,-189,-198,384,-1054,-2095,-1819,-962,-358,75
-49,191,240,-69,-144,216,-970,-1963,-1855,-1184,-616,-169
-73,19,90,25,-84,54,-892,-1807,-1813,-1292,-766,-343
-85,-107,-23,97,-30,-64,-826,-1627,-1705,-1304,-832,-451
-85,-209,-124,145,18,-166,-754,-1399,-1519,-1214,-808,-499
-79,-269,-190,169,52,-232,-658,-1147,-1309,-1076,-730,-493
-55,-305,-250,175,94,-280,-562,-925,-1123,-944,-658,-475
-31,-305,-274,163,118,-292,-484,-745,-961,-830,-580,-445
-19,-293,-274,151,124,-286,-412,-577,-829,-728,-502,-409
-7,-281,-274,139,130,-280,-352,-445,-703,-638,-436,-373
5,-275,-280,133,142,-280,-286,-343,-607,-554,-376,-337
11,-257,-268,121,136,-262,-232,-259,-529,-482,-328,-307
35,-251,-286,109,160,-268,-184,-205,-475,-422,-292,-283
46,-239,-286,97,166,-262,-142,-169,-439,-374,-268,-271
23,-227,-250,103,136,-238,-100,-115,-397,-320,-238,-253
-1,-215,-214,109,106,-214,-58,-67,-373,-284,-214,-235
-13,-197,-184,103,82,-190,-28,-33,-343,-254,-196,-229
-37,-185,-148,109,52,-166,-4,3,-313,-230,-184,-217
-49,-161,-112,103,30,-136,20,39,-283,-206,-160,-199
-19,-131,-112,73,46,-124,44,63,-247,-182,-136,-181
5,-113,-118,49,58,-118,50,69,-223,-170,-136,-181
11,-113,-124,49,64,-118,44,57,-199,-158,-130,-187
17,-113,-130,43,70,-124,44,51,-187,-146,-124,-181
-13,-107,-94,61,40,-100,56,57,-157,-128,-106,-169
-37,-101,-64,67,12,-82,61,63,-133,-116,-94,-157
-25,-89,-64,55,18,-76,66,69,-115,-110,-88,-151
-19,-77,-58,43,18,-70,66,75,-97,-98,-76,-145
-1,-77,-76,37,35,-76,66,75,-91,-98,-76,-133
-7,-83,-76,43,35,-82,66,81,-79,-98,-70,-127
-25,-89,-64,55,18,-76,78,87,-67,-92,-58,-121
-37,-95,-58,67,12,-76,78,87,-61,-86,-52,-109
-49,-95,-46,73,0,-70,78,93,-49,-86,-46,-103
-31,-83,-52,55,12,-70,78,93,-43,-80,-40,-91
-13,-71,-58,43,24,-64,72,99,-32,-74,-28,-85
-25,-65,-40,43,6,-52,78,111,-21,-62,-22,-73
-19,-59,-40,37,12,-52,84,105,-9,-50,-16,-67
-7,-59,-52,31,24,-58,84,105,-9,-50,-16,-67
-1,-47,-46,25,24,-46,90,111,3,-38,-16,-67
5,-47,-52,19,30,-52,90,111,9,-38,-16,-67
-13,-59,-46,37,18,-52,96,117,15,-38,-10,-55
-31,-59,-28,43,0,-46,90,117,15,-32,-4,-55
-31,-47,-18,37,-6,-34,90,117,15,-32,-10,-55
-19,-35,-18,25,0,-28,90,129,21,-20,8,-43
-13,-29,-18,19,0,-22,96,135,27,-14,14,-31
-7,-35,-28,19,12,-34,90,147,33,-8,14,-31
-13,-53,-40,31,12,-46,90,147,33,-8,14,-37
-7,-53,-46,25,18,-52,84,141,27,-8,8,-43
5,-41,-46,13,24,-46,84,147,27,4,14,-31
23,-23,-46,1,35,-34,90,159,39,10,14,-25
23,-23,-46,1,35,-34,84,159,33,16,19,-25
11,-17,-28,1,18,-22,84,165,27,16,19,-25
5,-17,-23,1,12,-22,78,159,21,16,19,-31
-13,-29,-18,19,0,-22,84,159,15,16,24,-31
-31,-23,6,25,-18,-10,96,171,3,28,19,-37
-13,-29,-18,19,0,-22,90,171,-3,34,19,-43
-7,-23,-18,13,6,-22,96,177,-3,40,19,-43
5,-23,-28,7,18,-28,90,183,-9,40,14,-49
29,-23,-52,-5,40,-40,72,171,-21,34,2,-61
35,-17,-52,-11,40,-34,72,177,-15,45,2,-61
35,-11,-46,-11,40,-28,78,189,3,56,14,-49
46,7,-40,-29,40,-16,78,189,9,68,14,-43
51,7,-46,-29,46,-16,78,201,15,74,19,-43
35,7,-28,-23,30,-10,84,213,39,92,24,-25
23,7,-18,-17,18,-4,90,225,39,98,30,-19
23,7,-18,-17,18,-4,102,237,63,110,36,-7
29,1,-28,-17,30,-16,102,249,75,122,42,-1
29,7,-23,-23,24,-10,102,255,93,134,48,5
41,19,-23,-34,30,-4,96,261,99,140,48,5
46,19,-28,-34,35,-4,96,261,117,146,54,11
23,13,-12,-17,18,1,96,273,129,152,54,17
23,24,0,-23,12,12,96,273,141,158,60,29
29,29,0,-29,18,12,96,279,159,170,72,35
23,35,12,-29,6,24,102,297,177,182,78,47
35,35,0,-34,18,18,96,303,189,194,96,52
46,41,-6,-39,30,18,102,315,207,200,114,69
57,47,-12,-51,35,18,102,327,225,212,126,75
51,41,-12,-39,35,18,102,345,243,224,138,93
41,53,12,-45,18,30,108,363,267,242,150,117
46,71,24,-57,12,48,108,375,285,266,174,129
63,83,18,-69,24,54,108,375,291,272,168,129
63,95,30,-75,18,66,108,381,291,278,174,135
57,95,36,-75,12,66,108,393,309,284,186,141
57,95,36,-75,12,66,114,405,333,296,198,147
63,101,36,-75,18,72,108,417,345,302,210,159
63,101,36,-75,18,72,120,441,375,326,234,177
69,113,42,-87,18,78,120,459,399,338,252,195
75,113,36,-87,24,78,114,477,417,356,270,207
81,119,36,-99,24,78,114,495,429,374,276,219
57,125,66,-87,0,96,126,513,453,392,306,237
57,131,72,-93,-6,102,138,525,471,410,318,243
81,143,60,-111,12,102,132,531,483,416,324,243
105,155,48,-129,30,102,132,537,489,428,330,255
93,155,60,-123,18,108,132,555,513,446,348,261
81,155,72,-117,6,114,138,573,531,464,360,273
51,155,102,-99,-24,132,144,597,549,470,384,291
46,161,114,-99,-30,138,150,615,567,482,402,303
69,167,96,-117,-12,132,144,627,579,482,420,309
81,179,96,-129,-6,138,144,639,597,494,432,315
93,179,84,-135,6,132,144,645,609,494,444,321
99,179,78,-135,12,132,150,657,627,506,462,327
93,179,84,-135,6,132,156,669,645,524,468,339
105,179,72,-141,18,126,150,675,663,530,486,345
99,179,78,-135,12,132,150,681,669,548,486,351
99,185,84,-135,12,138,150,693,687,560,498,357
111,209,96,-153,12,156,156,699,705,578,510,363
129,221,90,-171,24,156,156,717,723,584,522,375
141,233,90,-183,30,162,162,735,735,590,528,381
135,233,96,-177,24,168,162,741,747,590,540,381
147,245,96,-189,30,174,168,747,759,596,546,387
165,263,96,-213,35,180,174,759,765,608,564,393
177,269,90,-219,46,180,174,765,771,614,570,399
171,275,102,-219,35,192,174,771,783,626,582,405
171,275,102,-219,35,192,174,777,795,632,588,411
171,275,102,-219,35,192,174,771,789,626,594,411
165,269,102,-213,35,186,168,777,789,620,600,411
153,251,96,-201,30,174,162,771,789,614,594,411
129,245,114,-183,12,180,156,765,789,614,594,411
129,245,114,-183,12,180,150,747,777,608,594,417
135,245,108,-183,18,180,150,741,765,602,588,417
135,251,114,-189,12,186,144,735,759,608,594,417
147,263,114,-201,18,192,138,717,753,602,594,423
153,269,114,-207,24,192,138,699,747,596,594,423
165,269,102,-213,35,186,132,675,729,590,594,417
171,269,96,-213,40,186,126,645,717,584,594,417
165,275,108,-219,30,192,120,627,705,572,588,417
147,269,120,-201,18,198,114,603,693,560,588,423
147,257,108,-195,24,186,96,567,657,536,576,405
123,245,120,-177,6,186,90,531,633,518,564,399
111,221,108,-159,6,168,78,495,603,488,540,387
123,203,78,-159,24,144,61,453,561,464,516,375
99,185,84,-135,12,138,61,429,543,452,510,363
75,179,102,-123,-12,144,61,405,519,434,504,363
75,179,102,-123,-12,144,66,381,501,416,498,357
93,179,84,-135,6,132,61,357,477,398,486,339
93,167,72,-129,12,120,56,327,459,380,468,321
81,155,72,-117,6,114,61,309,435,362,462,309
75,137,60,-99,12,102,56,279,405,332,438,291
69,137,66,-99,6,102,44,243,381,308,408,267
69,131,60,-99,6,96,44,219,357,284,390,255
63,119,54,-87,6,90,38,195,327,254,360,231
41,101,60,-69,-6,78,38,171,303,218,336,213
11,83,72,-45,-30,78,44,147,285,194,318,207
17,59,42,-39,-12,48,38,123,255,158,288,183
17,41,24,-29,0,30,32,105,231,128,264,165
23,29,6,-23,12,18,26,81,201,98,246,147
5,13,6,-11,0,6,32,63,183,80,228,129
-7,7,12,-5,-12,6,32,51,165,68,216,123
-13,13,24,1,-18,18,32,39,153,50,210,117
-13,13,24,1,-18,18,38,33,141,45,204,111
-31,1,30,13,-30,12,44,27,129,34,198,111
-49,-11,36,31,-42,12,44,21,123,28,186,105
-61,-23,36,43,-48,6,50,15,111,10,174,93
-49,-35,12,43,-30,-10,56,-3,99,-8,150,87
-37,-47,-12,43,-12,-28,50,-15,75,-26,126,63
-49,-59,-12,55,-18,-34,56,-21,75,-32,120,57
-61,-71,-12,67,-24,-40,50,-27,69,-44,114,52
-55,-71,-18,61,-18,-46,44,-33,57,-56,108,41
-55,-65,-12,55,-24,-40,44,-33,51,-62,114,35
-55,-59,-6,55,-24,-34,44,-33,45,-68,114,41
-67,-71,-6,67,-30,-40,38,-45,33,-80,108,29
-85,-83,0,85,-42,-40,44,-45,27,-86,96,23
-91,-83,6,85,-48,-40,44,-45,21,-92,90,17
-85,-83,0,85,-42,-40,44,-50,15,-98,84,17
-73,-83,-12,79,-30,-46,44,-55,15,-104,72,17
-67,-83,-18,73,-24,-52,50,-55,15,-104,78,17
-55,-77,-23,61,-18,-52,50,-55,21,-104,72,17
-49,-77,-28,61,-12,-52,50,-61,9,-104,72,11
-43,-83,-40,61,0,-64,38,-67,-3,-116,60,-1
-55,-89,-34,67,-12,-64,32,-61,-9,-116,66,-7
-67,-95,-28,79,-18,-64,32,-67,-15,-116,60,-7
-79,-101,-23,85,-30,-64,38,-73,-15,-122,60,-7
-73,-95,-23,85,-24,-58,44,-67,-15,-122,66,-7
-61,-83,-23,73,-18,-52,44,-67,-9,-128,66,-1
-43,-71,-28,55,-6,-52,44,-79,-9,-122,72,-7
-37,-71,-34,55,0,-52,44,-79,-3,-122,78,-7
-31,-65,-34,43,0,-52,44,-73,9,-116,90,-1
-7,-59,-52,31,24,-58,38,-79,9,-110,90,-7
-7,-59,-52,31,24,-58,38,-73,9,-110,84,-1
-1,-65,-64,31,30,-64,38,-79,3,-104,78,-1
-1,-71,-70,37,35,-70,38,-85,3,-110,72,-1
-25,-77,-52,49,12,-64,44,-79,9,-104,84,5
-13,-71,-58,43,24,-64,38,-91,9,-116,78,-1
-7,-71,-64,37,30,-70,32,-91,9,-116,84,-1
-13,-65,-52,37,18,-58,38,-91,21,-104,96,5
-13,-59,-46,37,18,-52,38,-91,33,-98,108,11
-13,-59,-46,37,18,-52,38,-85,33,-92,120,17
-31,-65,-34,43,0,-52,38,-85,33,-92,114,17
-49,-77,-28,61,-12,-52,38,-79,33,-86,114,17
-61,-77,-18,67,-24,-46,38,-67,33,-80,114,23
-91,-71,18,79,-54,-28,44,-67,39,-62,126,29
-91,-65,24,73,-60,-22,50,-67,39,-62,120,35
-61,-65,-6,61,-30,-34,32,-79,27,-68,120,23
-37,-77,-40,55,0,-58,20,-85,27,-74,114,11
-43,-71,-28,55,-6,-52,26,-85,33,-74,120,17
-13,-71,-58,43,24,-64,20,-85,21,-80,114,11
5,-71,-76,31,40,-76,20,-85,15,-80,108,5
-1,-71,-70,37,35,-70,26,-85,15,-86,108,11
-19,-53,-34,31,6,-46,38,-73,27,-74,120,23
-31,-47,-18,37,-6,-34,38,-67,27,-68,120,35
-31,-53,-23,37,-6,-40,32,-67,21,-74,120,35
-19,-53,-34,31,6,-46,32,-73,9,-68,114,29
-13,-59,-46,37,18,-52,26,-73,9,-62,120,35
-55,-71,-18,61,-18,-46,32,-61,21,-50,132,41
-61,-77,-18,67,-24,-46,32,-67,15,-50,132,29
-85,-89,-6,85,-42,-46,26,-61,15,-50,132,23
-67,-89,-23,73,-24,-58,20,-55,9,-50,126,17
-31,-77,-46,49,6,-64,20,-55,9,-56,120,11
-37,-53,-18,43,-12,-34,32,-50,15,-44,126,23
-43,-53,-12,43,-18,-34,38,-45,21,-38,132,35
-49,-53,-6,49,-24,-28,44,-39,33,-26,138,41
-55,-59,-6,55,-24,-34,50,-39,33,-26,138,47
-61,-59,0,61,-30,-28,56,-33,39,-14,144,52
-73,-53,18,61,-48,-16,61,-27,39,-8,150,47
-67,-41,24,49,-48,-10,56,-27,39,-2,156,41
-61,-41,18,49,-42,-10,56,-21,39,-2,156,35
-55,-59,-6,55,-24,-34,56,-21,39,-8,150,23
-55,-71,-18,61,-18,-46,44,-27,27,-8,144,17
-61,-77,-18,67,-24,-46,44,-33,27,-8,150,17
-61,-89,-28,73,-18,-58,38,-27,21,-14,144,17
-43,-89,-46,61,0,-70,32,-33,15,-20,126,11
-55,-83,-28,67,-12,-58,44,-39,15,-14,132,17
-43,-77,-34,55,-6,-58,50,-33,9,-14,132,23
-19,-65,-46,37,12,-58,38,-33,3,-14,126,17
-19,-65,-46,37,12,-58,38,-39,-3,-20,120,11
-31,-65,-34,43,0,-52,38,-33,-3,-8,126,11
-37,-65,-28,49,-6,-46,44,-27,-3,-2,132,23
-43,-65,-23,49,-12,-46,50,-21,-9,4,138,23
-43,-53,-12,43,-18,-34,56,-21,-3,4,144,29
-31,-47,-18,37,-6,-34,50,-21,-9,4,144,29
-37,-59,-23,49,-6,-40,56,-21,-9,4,144,29
-43,-65,-23,49,-12,-46,56,-27,-15,4,144,23
-61,-59,0,61,-30,-28,61,-15,-9,16,150,29
-49,-59,-12,55,-18,-34,61,-15,-15,16,144,23
-25,-65,-40,43,6,-52,56,-21,-32,-2,132,11
-37,-71,-34,55,0,-52,61,-27,-32,-8,132,11
-49,-77,-28,61,-12,-52,61,-21,-37,-8,132,11
-43,-77,-34,55,-6,-58,56,-27,-37,-20,126,5
-43,-77,-34,55,-6,-58,50,-39,-43,-20,120,5
-37,-77,-40,55,0,-58,44,-45,-43,-26,114,11
-49,-83,-34,67,-6,-58,38,-45,-43,-20,114,5
-61,-95,-34,79,-12,-64,38,-50,-49,-26,102,5
-67,-101,-34,79,-18,-70,32,-50,-49,-26,102,-1
-61,-95,-34,79,-12,-64,32,-50,-49,-26,102,-1
-31,-77,-46,49,6,-64,32,-50,-49,-32,96,-7
-7,-83,-76,43,35,-82,26,-55,-55,-44,96,-13
-1,-89,-88,43,40,-88,26,-55,-55,-50,90,-13
-7,-83,-76,43,35,-82,32,-50,-43,-50,96,-7
-19,-77,-58,43,18,-70,38,-55,-37,-44,102,5
-25,-77,-52,49,12,-64,38,-50,-32,-38,102,11
-13,-59,-46,37,18,-52,38,-55,-37,-44,102,17
-7,-53,-46,25,18,-52,44,-55,-32,-32,108,17
-7,-59,-52,31,24,-58,44,-55,-32,-38,96,11
5,-59,-64,25,35,-64,32,-61,-32,-44,90,5
5,-65,-70,25,35,-70,32,-61,-32,-50,84,-7
-13,-77,-64,43,24,-70,32,-67,-32,-50,78,-13
-7,-83,-76,43,35,-82,32,-73,-32,-62,78,-19
-31,-83,-52,55,12,-70,38,-73,-32,-68,78,-19
-43,-83,-40,61,0,-64,38,-73,-27,-68,78,-13
-31,-77,-46,49,6,-64,32,-79,-27,-74,72,-13
-25,-77,-52,49,12,-64,38,-79,-32,-74,66,-7
-31,-83,-52,55,12,-70,32,-79,-37,-80,66,-7
-43,-89,-46,61,0,-70,26,-85,-37,-74,66,-1
-49,-101,-52,73,0,-76,26,-85,-32,-80,66,-1
-43,-95,-52,67,6,-76,32,-79,-27,-74,72,-1
-37,-89,-52,61,6,-70,32,-85,-32,-68,72,-1
-25,-95,-70,61,24,-82,32,-91,-32,-68,72,-1
-43,-101,-58,67,6,-82,32,-85,-21,-68,78,5
-55,-95,-40,73,-6,-70,32,-79,-21,-68,78,11
-49,-83,-34,67,-6,-58,38,-79,-21,-68,84,17
-49,-77,-28,61,-12,-52,44,-79,-21,-74,84,17
-55,-83,-28,67,-12,-58,44,-79,-15,-74,84,11
-49,-83,-34,67,-6,-58,44,-79,-15,-80,84,11
-55,-83,-28,67,-12,-58,44,-85,-15,-68,78,11
-67,-89,-23,73,-24,-58,44,-85,-9,-68,78,5
-67,-95,-28,79,-18,-64,44,-85,-15,-68,72,11
-79,-107,-28,91,-24,-70,44,-91,-21,-68,72,11
-67,-101,-34,79,-18,-70,38,-91,-27,-68,72,11
-67,-89,-23,73,-24,-58,38,-91,-15,-68,72,17
-67,-95,-28,79,-18,-64,44,-91,-15,-68,72,17
-67,-95,-28,79,-18,-64,50,-91,-9,-74,78,17
-73,-95,-23,85,-24,-58,50,-91,-9,-74,72,17
-79,-95,-18,85,-30,-58,50,-85,-3,-68,78,23
-73,-95,-23,85,-24,-58,50,-91,3,-74,78,17
-49,-95,-46,73,0,-70,44,-91,-3,-74,72,11
-31,-95,-64,61,18,-82,44,-91,-15,-80,66,11
-19,-101,-82,55,30,-94,38,-91,-21,-80,60,11
-13,-107,-94,61,40,-100,32,-103,-27,-86,54,5
-37,-107,-70,73,18,-88,38,-103,-27,-86,54,11
-61,-113,-52,85,-6,-82,38,-97,-21,-92,60,11
-61,-119,-58,91,0,-88,32,-115,-27,-98,42,-7
-85,-125,-40,103,-24,-82,26,-121,-32,-104,48,-7
-97,-119,-23,109,-36,-70,26,-115,-27,-98,54,-7
-67,-107,-40,85,-12,-76,26,-109,-21,-92,54,-7
-37,-95,-58,67,12,-76,26,-109,-21,-98,48,-1
-37,-95,-58,67,12,-76,38,-103,-21,-92,48,5
-37,-101,-64,67,12,-82,38,-103,-27,-92,42,5
-31,-95,-64,61,18,-82,38,-103,-32,-86,48,11
-31,-89,-58,55,12,-76,38,-109,-27,-86,54,11
-19,-89,-70,49,24,-82,44,-109,-32,-86,54,5
-19,-89,-70,49,24,-82,44,-109,-27,-92,54,5
-43,-89,-46,61,0,-70,44,-115,-32,-92,60,-1
-61,-101,-40,79,-12,-70,44,-115,-27,-92,60,-1
-79,-107,-28,91,-24,-70,50,-109,-27,-92,54,-1
-85,-119,-34,103,-24,-76,44,-109,-32,-98,48,-1
-49,-107,-58,79,6,-82,44,-109,-32,-104,42,-7
-43,-95,-52,67,6,-76,44,-103,-37,-98,36,-1
-43,-101,-58,67,6,-82,44,-103,-49,-98,36,-7
-43,-95,-52,67,6,-76,38,-115,-55,-92,30,-13
-43,-89,-46,61,0,-70,44,-109,-43,-86,42,-7
-43,-83,-40,61,0,-64,50,-109,-43,-86,48,-7
-31,-83,-52,55,12,-70,50,-115,-43,-92,42,-7
-49,-89,-40,67,-6,-64,61,-109,-37,-86,54,5
-61,-95,-34,79,-12,-64,61,-97,-37,-86,54,11
-61,-101,-40,79,-12,-70,56,-97,-37,-92,48,11
-55,-107,-52,79,0,-82,50,-97,-49,-98,48,11
-67,-113,-46,85,-12,-82,50,-97,-49,-98,48,11
-55,-107,-52,79,0,-82,38,-103,-61,-104,42,11
-43,-107,-64,73,12,-88,26,-109,-73,-110,36,-1
-37,-107,-70,73,18,-88,38,-115,-73,-110,30,-1
-37,-101,-64,67,12,-82,44,-109,-61,-110,36,5
-43,-101,-58,67,6,-82,50,-109,-55,-98,42,5
-31,-107,-76,67,24,-94,50,-109,-55,-98,42,5
-19,-95,-76,55,30,-88,50,-115,-55,-98,36,5
-13,-89,-76,49,30,-82,44,-115,-61,-104,36,11
-25,-83,-58,55,18,-70,50,-103,-55,-92,42,17
-31,-83,-52,55,12,-70,50,-109,-55,-98,42,17
-31,-83,-52,55,12,-70,44,-115,-67,-104,30,5
-37,-89,-52,61,6,-70,38,-121,-79,-116,30,-1
-43,-89,-46,61,0,-70,44,-115,-79,-116,30,-1
-43,-89,-46,61,0,-70,44,-115,-79,-116,30,-1
-37,-95,-58,67,12,-76,38,-121,-79,-122,19,-7
-49,-101,-52,73,0,-76,38,-121,-73,-116,24,-1
-43,-101,-58,67,6,-82,38,-115,-73,-116,24,-1
-37,-101,-64,67,12,-82,44,-115,-67,-116,30,5
-31,-101,-70,61,18,-88,44,-109,-67,-116,24,5
-13,-89,-76,49,30,-82,44,-109,-67,-110,30,5
-19,-83,-64,49,24,-76,44,-109,-73,-110,30,5
-13,-77,-64,43,24,-70,50,-109,-67,-104,30,5
-7,-71,-64,37,30,-70,56,-103,-61,-98,36,5
-13,-65,-52,37,18,-58,56,-103,-61,-98,36,11
-13,-65,-52,37,18,-58,50,-103,-61,-98,30,5
-7,-59,-52,31,24,-58,56,-91,-55,-104,42,17
-7,-53,-46,25,18,-52,61,-85,-49,-98,48,23
-13,-53,-40,31,12,-46,61,-79,-43,-92,48,23
-13,-47,-34,31,12,-40,61,-85,-37,-86,48,23
-7,-47,-40,25,18,-46,66,-85,-37,-86,48,17
-13,-47,-34,31,12,-40,72,-79,-32,-80,48,17
-25,-35,-12,31,-6,-22,84,-73,-37,-74,48,23
-37,-41,-6,37,-18,-22,90,-73,-37,-68,54,23
-73,-59,12,67,-42,-22,90,-73,-37,-80,48,23
-73,-65,6,67,-42,-28,78,-79,-49,-86,30,11
-55,-53,0,49,-30,-28,72,-85,-49,-98,36,11
-37,-47,-12,43,-12,-28,66,-79,-43,-86,42,17
-31,-35,-6,31,-12,-22,61,-73,-43,-80,48,23
-19,-35,-18,25,0,-28,61,-67,-43,-74,48,23
-1,-41,-40,19,18,-40,66,-79,-43,-74,42,23
11,-29,-40,7,24,-34,61,-79,-37,-80,48,23
17,-17,-34,-5,24,-28,61,-73,-37,-74,48,29
23,-11,-34,-5,30,-22,61,-73,-37,-68,54,41
29,-23,-52,-5,40,-40,44,-91,-49,-74,42,41
35,-23,-58,-5,46,-40,20,-103,-61,-80,36,35
23,-23,-46,1,35,-34,8,-103,-67,-80,36,41
17,-17,-34,-5,24,-28,2,-103,-67,-80,42,47
35,-5,-40,-17,35,-22,-4,-109,-67,-74,42,52
35,-11,-46,-11,40,-28,8,-103,-61,-80,42,52
35,-23,-58,-5,46,-40,8,-97,-55,-74,48,57
41,-35,-76,-5,58,-58,8,-97,-61,-86,42,63
35,-41,-76,1,52,-58,-4,-103,-67,-92,42,57
35,-47,-82,7,58,-64,-4,-97,-61,-92,42,63
46,-53,-100,1,70,-76,-4,-97,-67,-92,36,52
29,-53,-82,7,52,-70,2,-97,-67,-86,36,57
5,-65,-70,25,35,-70,2,-97,-61,-74,36,52
11,-65,-76,25,40,-70,8,-103,-67,-86,30,52
23,-65,-88,19,52,-76,14,-109,-79,-98,24,52
46,-65,-112,7,76,-88,14,-121,-85,-104,19,52
51,-65,-118,7,82,-88,14,-121,-91,-116,19,47
46,-77,-124,13,82,-100,14,-121,-103,-122,14,47
41,-89,-130,19,82,-112,14,-127,-103,-128,14,47
35,-89,-124,25,76,-106,14,-127,-103,-122,19,52
29,-89,-118,25,70,-106,14,-127,-115,-122,14,41
41,-95,-136,25,88,-118,8,-133,-127,-134,2,23
35,-95,-130,31,82,-112,8,-133,-127,-140,-4,11
5,-101,-106,43,52,-106,20,-133,-115,-134,-4,11
5,-95,-100,43,52,-100,20,-127,-109,-134,-4,11
5,-101,-106,43,52,-106,20,-127,-109,-140,-16,11
-1,-113,-112,55,52,-112,20,-127,-115,-146,-16,5
5,-113,-118,49,58,-118,20,-139,-115,-152,-16,5
29,-107,-136,37,82,-124,14,-139,-127,-146,-16,5
35,-107,-142,37,88,-124,14,-139,-127,-152,-10,11
29,-107,-136,37,82,-124,14,-139,-127,-146,-16,5
17,-107,-124,43,70,-118,8,-145,-127,-152,-16,-1
-1,-113,-112,55,52,-112,14,-139,-127,-152,-22,-1
-13,-113,-100,61,40,-106,14,-139,-127,-152,-28,-1
-25,-125,-100,73,35,-112,14,-145,-139,-158,-34,-1
-13,-131,-118,73,52,-124,8,-151,-145,-164,-40,-1
-13,-137,-124,73,52,-130,14,-139,-145,-164,-34,-1
-19,-131,-112,73,46,-124,14,-133,-145,-158,-34,5
-19,-131,-112,73,46,-124,14,-139,-145,-158,-34,11
-13,-131,-118,73,52,-124,8,-139,-145,-152,-34,11
-7,-131,-124,67,58,-130,8,-139,-145,-158,-34,5
11,-125,-136,55,70,-130,8,-145,-151,-164,-34,-1
5,-131,-136,61,70,-136,2,-157,-157,-176,-46,-7
-7,-137,-130,67,58,-136,-4,-163,-163,-176,-46,-13
-19,-131,-112,73,46,-124,-4,-157,-157,-176,-46,-13
-19,-131,-112,73,46,-124,-4,-151,-151,-164,-46,-7
-19,-131,-112,73,46,-124,-4,-151,-145,-170,-46,-7
-25,-143,-118,85,46,-130,2,-145,-139,-158,-46,-1
-25,-137,-112,79,40,-124,2,-139,-139,-152,-40,5
-13,-131,-118,73,52,-124,14,-133,-139,-158,-34,11
5,-125,-130,55,64,-130,8,-145,-133,-158,-40,5
11,-113,-124,49,64,-118,20,-133,-121,-152,-40,-1
5,-119,-124,55,64,-124,32,-109,-103,-146,-40,-7
-25,-143,-118,85,46,-130,50,-67,-73,-134,-34,-19
-43,-155,-112,97,35,-136,66,-21,-37,-122,-34,-31
-49,-167,-118,109,35,-142,102,57,9,-92,-28,-37
-37,-167,-130,103,46,-148,144,147,81,-50,-16,-43
-25,-149,-124,85,46,-136,180,237,171,10,8,-43
5,-131,-136,61,70,-136,210,327,273,74,42,-31
11,-101,-112,43,58,-106,246,399,369,146,96,-13
17,-71,-88,25,52,-82,264,465,477,254,180,47
46,-35,-82,-5,64,-58,264,507,591,374,306,129
69,24,-46,-45,58,-10,258,537,687,518,444,243
69,89,18,-75,30,54,246,543,759,650,594,381
81,161,78,-117,6,120,198,501,789,770,768,555
105,245,138,-171,-12,192,120,429,831,932,990,795
165,341,174,-249,0,258,20,351,903,1130,1278,1083
237,437,198,-333,24,318,-106,219,957,1334,1584,1389
321,545,222,-429,52,384,-244,27,951,1502,1866,1683
393,641,246,-513,76,444,-412,-211,861,1598,2100,1947
447,743,294,-591,76,522,-592,-517,699,1640,2274,2157
447,851,402,-645,24,630,-748,-835,459,1604,2340,2253
417,965,546,-687,-60,756,-856,-1111,195,1484,2280,2229
381,1037,654,-705,-132,846,-952,-1393,-121,1262,2076,2097
321,1025,702,-669,-186,864,-1012,-1651,-469,956,1758,1857
261,947,684,-603,-210,816,-1048,-1843,-799,614,1374,1563
171,803,630,-483,-228,720,-1054,-1975,-1117,170,870,1167
105,635,528,-369,-210,582,-1042,-2035,-1411,-290,342,753
51,455,402,-249,-174,432,-994,-2011,-1603,-692,-88,387
11,281,270,-141,-126,276,-916,-1909,-1681,-980,-406,87
-31,113,144,-39,-84,126,-826,-1777,-1675,-1154,-610,-121
-55,-23,30,37,-42,1,-760,-1627,-1615,-1226,-724,-271
-55,-131,-76,91,12,-106,-700,-1429,-1477,-1184,-742,-343
-43,-209,-166,121,58,-190,-634,-1195,-1279,-1058,-682,-343
-37,-257,-220,145,88,-238,-562,-973,-1087,-908,-592,-307
-13,-293,-280,151,130,-286,-490,-787,-937,-800,-514,-265
-1,-311,-310,157,154,-310,-424,-631,-805,-698,-442,-235
23,-311,-334,145,178,-322,-376,-511,-685,-620,-382,-205
41,-299,-340,127,190,-322,-310,-391,-565,-536,-322,-181
63,-293,-358,115,208,-322,-244,-295,-457,-464,-274,-157
63,-293,-358,115,208,-322,-178,-223,-367,-392,-226,-139
57,-281,-340,109,196,-310,-130,-175,-301,-320,-178,-115
51,-263,-316,109,184,-286,-82,-127,-265,-266,-148,-103
51,-245,-298,97,172,-268,-52,-85,-235,-218,-112,-79
35,-203,-238,85,136,-220,-22,-45,-205,-176,-76,-49
35,-179,-214,73,124,-196,-4,-9,-181,-152,-58,-31
41,-167,-208,61,124,-190,2,21,-169,-146,-52,-25
35,-143,-178,55,106,-160,14,39,-145,-128,-46,-7
41,-125,-166,37,100,-148,38,51,-115,-116,-34,-1
46,-119,-166,37,106,-142,50,63,-91,-98,-16,5
46,-119,-166,37,106,-142,61,57,-61,-86,-4,11
46,-107,-154,31,100,-130,61,57,-43,-68,14,23
35,-101,-136,31,82,-118,66,63,-21,-44,30,29
17,-95,-112,37,64,-106,78,69,-9,-20,48,41
29,-89,-118,25,70,-106,78,69,-3,-20,54,41
41,-83,-124,19,82,-106,78,69,-3,-20,60,41
51,-71,-124,13,88,-94,72,81,3,-20,60,47
35,-65,-100,13,64,-82,84,99,27,-8,72,57
23,-71,-94,25,58,-82,90,111,39,4,84,69
41,-83,-124,19,82,-106,84,99,39,-2,72,57
35,-89,-124,25,76,-106,84,105,45,4,78,63
35,-83,-118,25,76,-100,90,99,57,16,90,69
35,-83,-118,25,76,-100,90,99,57,22,96,69
23,-77,-100,25,58,-88,90,99,63,22,102,69
23,-71,-94,25,58,-82,90,93,63,28,102,69
17,-71,-88,25,52,-82,96,99,75,28,102,81
17,-71,-88,25,52,-82,96,111,87,28,102,81
35,-65,-100,13,64,-82,90,117,93,28,102,87
29,-65,-94,13,58,-82,90,123,105,34,108,93
23,-71,-94,25,58,-82,90,129,105,34,108,93
29,-77,-106,19,64,-94,84,123,105,40,102,87
5,-77,-82,31,40,-82,84,129,111,45,108,93
-1,-71,-70,37,35,-70,90,129,117,56,114,93
-19,-71,-52,43,18,-64,102,141,135,68,126,105
-25,-71,-46,49,12,-58,102,147,135,68,132,105
-19,-71,-52,43,18,-64,108,147,141,68,126,105
-7,-71,-64,37,30,-70,102,147,141,68,126,105
-1,-59,-58,31,30,-58,96,159,141,74,126,111
17,-53,-70,13,40,-64,90,153,141,74,120,105
5,-47,-52,19,30,-52,90,159,147,92,132,117
-1,-47,-46,25,24,-46,96,171,147,104,144,117
-7,-41,-34,19,12,-40,96,171,147,116,150,123
5,-35,-40,13,24,-40,96,171,147,116,156,129
17,-29,-46,1,30,-40,96,177,147,122,156,135
23,-23,-46,1,35,-34,96,177,147,122,156,147
-1,-23,-23,13,12,-22,102,195,159,140,168,159
-31,-23,6,25,-18,-10,120,201,177,152,180,183
-19,-23,-6,19,-6,-16,108,207,183,158,174,183
17,-29,-46,1,30,-40,90,195,171,146,162,165
35,-35,-70,1,52,-52,84,189,171,140,156,153
35,-35,-70,1,52,-52,84,189,177,158,162,159
23,-23,-46,1,35,-34,96,207,195,170,168,171
-1,-11,-12,7,6,-10,108,219,219,188,186,183
-25,-11,12,19,-18,1,120,231,231,206,204,195
-19,-5,12,7,-18,1,114,231,243,206,198,195
-7,-11,-6,7,0,-10,108,237,249,206,192,195
17,-11,-28,-5,24,-22,96,237,249,212,192,189
29,-5,-34,-17,30,-22,96,237,255,212,198,195
41,13,-28,-29,35,-10,96,249,267,230,204,207
29,24,-6,-29,18,6,102,267,291,248,216,225
17,24,6,-23,6,12,108,273,297,266,222,231
11,29,18,-17,0,24,108,279,303,266,222,231
-7,41,48,-17,-24,42,114,291,321,284,240,243
-1,53,54,-23,-24,54,120,309,333,290,246,255
23,65,42,-39,-6,54,114,315,345,296,258,261
29,65,36,-45,0,48,120,327,363,308,276,273
29,65,36,-45,0,48,126,339,381,320,288,291
41,71,30,-57,6,48,126,351,387,338,294,297
46,77,30,-57,12,54,120,363,399,350,300,303
46,77,30,-57,12,54,114,369,405,362,306,303
57,77,18,-63,24,48,114,375,411,368,306,309
57,83,24,-69,18,54,114,387,417,386,312,309
57,89,30,-69,18,60,114,399,429,392,324,321
63,95,30,-75,18,66,114,405,441,404,330,327
51,101,48,-69,6,78,120,417,459,416,348,339
57,107,48,-81,6,78,120,435,477,434,366,345
69,113,42,-87,18,78,114,441,483,440,372,351
105,119,12,-111,46,66,108,447,495,452,372,345
129,119,-12,-123,70,54,102,459,501,458,378,357
135,125,-12,-123,76,60,114,483,525,470,390,369
117,131,12,-123,52,72,126,507,543,494,402,387
93,131,36,-111,30,84,132,513,561,506,420,405
87,137,48,-105,24,96,126,525,573,518,426,411
87,143,54,-111,18,102,126,531,579,524,432,417
63,149,84,-99,-6,120,132,555,597,548,450,429
57,161,102,-105,-18,132,144,567,615,566,462,441
87,179,90,-129,0,138,150,579,627,578,474,447
111,191,78,-147,18,138,150,597,639,590,480,453
117,197,78,-153,24,138,162,615,657,596,492,465
117,197,78,-153,24,138,168,633,675,614,504,477
123,203,78,-159,24,144,156,639,687,620,504,483
135,203,66,-165,35,138,150,639,693,626,510,483
135,209,72,-165,35,144,144,645,705,626,516,483
117,221,102,-165,12,162,156,663,723,650,534,501
105,239,132,-171,-12,186,162,669,735,662,546,513
81,239,156,-159,-36,198,174,687,753,674,552,519
75,233,156,-147,-36,198,174,693,753,674,546,513
105,239,132,-171,-12,186,174,693,747,674,534,507
117,251,132,-183,-6,192,174,711,759,686,540,513
123,245,120,-177,6,186,174,723,771,692,546,513
147,245,96,-189,30,174,162,723,771,692,540,513
171,257,84,-207,46,174,162,723,771,692,540,513
165,257,90,-207,40,174,162,729,771,698,540,519
147,257,108,-195,24,186,168,717,777,704,540,519
159,257,96,-201,35,180,156,705,777,698,534,513
153,257,102,-201,30,180,162,705,777,692,534,513
123,251,126,-183,0,192,168,699,777,692,528,513
99,251,150,-171,-24,204,174,699,777,692,528,513
99,251,150,-171,-24,204,168,687,771,686,528,519
87,251,162,-165,-36,210,162,681,771,686,528,525
81,251,168,-165,-42,210,156,669,765,680,528,525
51,245,192,-141,-66,222,156,657,759,680,534,531
23,239,216,-129,-96,228,150,645,747,680,534,537
57,239,180,-147,-60,210,132,609,717,662,516,525
81,239,156,-159,-36,198,126,579,693,644,504,507
87,245,156,-159,-30,204,126,549,675,638,498,507
93,239,144,-165,-24,192,120,519,657,620,486,489
75,221,144,-141,-30,186,108,489,633,596,474,477
57,203,144,-129,-42,174,102,459,609,572,456,465
57,203,144,-129,-42,174,96,435,585,548,438,447
46,191,144,-117,-48,168,90,417,561,524,420,441
29,179,150,-105,-60,162,78,393,531,500,408,435
17,155,138,-87,-60,144,78,363,495,476,390,417
5,137,132,-69,-60,132,72,327,465,452,372,411
-13,119,132,-51,-72,126,72,297,435,422,354,399
-49,95,144,-23,-96,120,72,273,411,392,336,375
-55,71,126,-11,-90,96,66,243,375,368,306,351
-25,77,102,-23,-60,90,61,213,339,338,282,321
5,83,78,-45,-36,78,56,183,315,302,246,291
11,83,72,-45,-30,78,56,165,291,278,228,279
17,71,54,-45,-18,60,50,147,261,248,198,255
-1,53,54,-23,-24,54,50,123,237,230,168,243
-31,41,72,-5,-48,54,50,111,213,206,150,231
-43,29,72,7,-54,48,50,93,189,182,138,219
-55,29,84,13,-66,54,56,87,171,164,126,213
-61,24,84,19,-72,54,61,81,159,152,120,195
-55,13,66,19,-60,36,61,69,147,134,102,177
-37,7,42,13,-42,24,61,51,129,110,78,153
-55,-5,48,25,-54,18,61,33,111,98,60,135
-79,-29,48,49,-66,6,66,21,99,80,42,117
-73,-35,36,55,-54,1,61,9,75,62,24,105
-79,-35,42,55,-60,1,61,3,63,50,8,99
-85,-47,36,67,-60,-4,50,-3,51,34,-4,87
-97,-53,42,73,-72,-4,50,-3,39,22,-10,87
-73,-59,12,67,-42,-22,44,-21,27,4,-28,69
-55,-65,-12,55,-24,-40,38,-27,15,-8,-40,52
-67,-77,-12,67,-30,-46,44,-27,21,-8,-46,52
-61,-77,-18,67,-24,-46,44,-33,9,-20,-58,47
-67,-77,-12,67,-30,-46,50,-39,-3,-26,-64,41
-79,-89,-12,79,-36,-52,44,-50,-15,-38,-70,35
-73,-95,-23,85,-24,-58,38,-55,-27,-50,-82,29
-73,-95,-23,85,-24,-58,38,-61,-27,-50,-82,29
-79,-83,-6,79,-36,-46,38,-55,-27,-50,-82,29
-67,-83,-18,73,-24,-52,38,-55,-32,-50,-88,29
-49,-89,-40,67,-6,-64,26,-67,-37,-68,-100,17
-49,-95,-46,73,0,-70,26,-67,-37,-68,-94,17
-55,-95,-40,73,-6,-70,32,-67,-37,-62,-88,17
-49,-95,-46,73,0,-70,32,-67,-37,-62,-82,11
-67,-95,-28,79,-18,-64,38,-55,-32,-50,-64,17
-91,-101,-12,91,-42,-58,50,-55,-32,-44,-58,23
-61,-95,-34,79,-12,-64,38,-73,-49,-68,-70,5
-61,-95,-34,79,-12,-64,32,-85,-55,-86,-76,5
-79,-101,-23,85,-30,-64,32,-79,-49,-92,-76,5
-85,-95,-12,91,-36,-52,32,-79,-49,-92,-76,5
-67,-95,-28,79,-18,-64,20,-85,-49,-104,-88,-1
-61,-101,-40,79,-12,-70,20,-91,-49,-104,-88,-7
-49,-95,-46,73,0,-70,20,-91,-49,-104,-88,-13
-19,-83,-64,49,24,-76,14,-91,-55,-104,-88,-19
-25,-77,-52,49,12,-64,26,-85,-49,-98,-82,-19
-31,-83,-52,55,12,-70,26,-85,-49,-98,-82,-13
-25,-83,-58,55,18,-70,26,-97,-55,-98,-88,-19
-19,-71,-52,43,18,-64,26,-91,-49,-104,-88,-13
-25,-77,-52,49,12,-64,26,-85,-37,-104,-82,-7
-31,-83,-52,55,12,-70,26,-79,-32,-104,-82,-7
-31,-95,-64,61,18,-82,26,-73,-32,-104,-82,-7
-49,-107,-58,79,6,-82,32,-67,-27,-98,-76,-7
-55,-101,-46,73,-6,-76,32,-73,-27,-92,-76,-13
-49,-95,-46,73,0,-70,32,-67,-27,-98,-76,-13
-67,-95,-28,79,-18,-64,32,-67,-27,-92,-70,-7
-67,-101,-34,79,-18,-70,26,-67,-27,-98,-76,-7
-73,-101,-28,85,-24,-64,26,-67,-27,-92,-70,-1
-73,-89,-18,79,-30,-52,32,-67,-15,-86,-58,5
-55,-83,-28,67,-12,-58,32,-61,-9,-80,-58,5
-43,-77,-34,55,-6,-58,32,-55,-9,-80,-52,5
-49,-77,-28,61,-12,-52,32,-55,-3,-80,-46,11
-43,-83,-40,61,0,-64,38,-50,-3,-80,-46,5
-37,-77,-40,55,0,-58,38,-55,-9,-86,-46,-1
-37,-71,-34,55,0,-52,38,-55,-9,-80,-46,-1
-37,-71,-34,55,0,-52,38,-50,-15,-86,-46,-1
-49,-77,-28,61,-12,-52,44,-45,-3,-74,-46,5
-37,-77,-40,55,0,-58,38,-50,-9,-80,-52,-7
-43,-71,-28,55,-6,-52,38,-50,-9,-86,-52,-7
-43,-71,-28,55,-6,-52,38,-50,-3,-80,-52,-7
-43,-65,-23,49,-12,-46,32,-50,-3,-86,-46,-7
-31,-65,-34,43,0,-52,26,-50,-9,-86,-40,-7
-37,-65,-28,49,-6,-46,38,-45,-3,-80,-28,5
-49,-71,-23,61,-12,-46,44,-39,-3,-68,-22,11
-49,-77,-28,61,-12,-52,44,-45,-3,-62,-22,11
-49,-83,-34,67,-6,-58,44,-39,-3,-68,-22,17
-37,-83,-46,61,6,-64,38,-45,-3,-62,-28,11
-43,-71,-28,55,-6,-52,32,-50,-3,-68,-28,5
-49,-71,-23,61,-12,-46,32,-50,3,-62,-22,11
-49,-71,-23,61,-12,-46,32,-50,9,-68,-22,5
-13,-71,-58,43,24,-64,26,-50,-3,-80,-40,-7
5,-77,-82,31,40,-82,14,-55,-9,-86,-52,-19
-1,-71,-70,37,35,-70,20,-50,-3,-80,-40,-7
-7,-71,-64,37,30,-70,26,-45,-3,-74,-40,-1
-7,-77,-70,37,30,-76,26,-45,-9,-74,-40,5
-13,-71,-58,43,24,-64,26,-39,-3,-68,-40,5
-37,-71,-34,55,0,-52,38,-33,3,-56,-40,11
-25,-65,-40,43,6,-52,32,-39,-9,-68,-46,-1
-7,-71,-64,37,30,-70,20,-50,-21,-80,-58,-13
-13,-83,-70,49,30,-76,14,-61,-27,-92,-70,-25
-25,-95,-70,61,24,-82,14,-67,-27,-98,-70,-37
-37,-89,-52,61,6,-70,20,-61,-27,-92,-70,-31
-25,-77,-52,49,12,-64,26,-50,-21,-80,-58,-19
-25,-59,-34,43,6,-46,26,-55,-15,-74,-52,-7
-31,-53,-23,37,-6,-40,26,-50,-21,-74,-58,-7
-43,-59,-18,49,-12,-40,26,-50,-27,-74,-58,-7
-37,-65,-28,49,-6,-46,14,-55,-32,-80,-70,-13
-31,-71,-40,49,6,-58,2,-67,-43,-86,-76,-19
-31,-71,-40,49,6,-58,8,-61,-37,-92,-76,-19
-31,-71,-40,49,6,-58,8,-61,-37,-86,-70,-19
-19,-65,-46,37,12,-58,14,-55,-37,-92,-70,-19
-19,-59,-40,37,12,-52,32,-50,-32,-86,-58,-13
-19,-53,-34,31,6,-46,38,-45,-32,-80,-52,-1
-19,-59,-40,37,12,-52,38,-50,-32,-80,-52,-7
-19,-65,-46,37,12,-58,32,-55,-37,-92,-64,-13
-43,-71,-28,55,-6,-52,26,-55,-43,-92,-70,-7
-49,-71,-23,61,-12,-46,26,-55,-43,-92,-64,-7
-43,-71,-28,55,-6,-52,20,-55,-55,-98,-70,-13
-37,-65,-28,49,-6,-46,14,-55,-49,-104,-70,-13
-43,-65,-23,49,-12,-46,20,-61,-49,-104,-70,-7
-49,-71,-23,61,-12,-46,20,-61,-49,-104,-70,-7
-49,-77,-28,61,-12,-52,20,-61,-55,-104,-76,-7
-37,-77,-40,55,0,-58,20,-67,-61,-116,-76,-13
-25,-77,-52,49,12,-64,14,-67,-67,-122,-82,-19
-37,-89,-52,61,6,-70,14,-79,-73,-134,-88,-19
-73,-95,-23,85,-24,-58,20,-79,-73,-134,-82,-25
-79,-89,-12,79,-36,-52,20,-79,-73,-128,-82,-25
-73,-83,-12,79,-30,-46,20,-79,-73,-128,-82,-31
-43,-83,-40,61,0,-64,20,-85,-85,-134,-94,-37
-25,-83,-58,55,18,-70,14,-91,-85,-140,-100,-43
-37,-89,-52,61,6,-70,20,-91,-85,-128,-94,-43
-55,-89,-34,67,-12,-64,20,-79,-79,-128,-88,-43
-61,-89,-28,73,-18,-58,26,-79,-79,-128,-88,-43
-31,-83,-52,55,12,-70,14,-85,-91,-146,-100,-55
-25,-83,-58,55,18,-70,8,-97,-97,-152,-106,-55
-37,-77,-40,55,0,-58,8,-91,-91,-152,-112,-49
-49,-83,-34,67,-6,-58,8,-91,-97,-158,-112,-49
-31,-83,-52,55,12,-70,14,-97,-103,-164,-118,-55
-31,-89,-58,55,12,-76,8,-97,-109,-164,-118,-55
-25,-89,-64,55,18,-76,8,-97,-109,-164,-112,-61
-7,-89,-82,43,35,-88,8,-109,-115,-164,-112,-67
-1,-89,-88,43,40,-88,2,-109,-121,-170,-124,-73
-1,-89,-88,43,40,-88,8,-103,-115,-164,-124,-67
-19,-83,-64,49,24,-76,8,-97,-109,-164,-118,-67
-19,-83,-64,49,24,-76,2,-109,-115,-164,-124,-73
-13,-77,-64,43,24,-70,2,-115,-121,-176,-130,-79
-7,-83,-76,43,35,-82,2,-115,-127,-176,-130,-85
-7,-89,-82,43,35,-88,2,-115,-133,-182,-130,-85
-19,-95,-76,55,30,-88,8,-109,-133,-188,-124,-91
-25,-101,-76,61,24,-88,8,-109,-133,-182,-118,-91
-7,-101,-94,49,40,-100,-4,-121,-139,-194,-130,-97
-7,-101,-94,49,40,-100,-10,-127,-139,-194,-142,-103
-1,-107,-106,55,52,-106,-16,-133,-139,-206,-148,-103
-13,-113,-100,61,40,-106,-16,-133,-145,-206,-154,-109
-43,-119,-76,79,18,-100,-4,-127,-145,-200,-148,-97
-37,-107,-70,73,18,-88,-4,-121,-145,-194,-142,-97
-7,-107,-100,55,46,-106,-10,-133,-151,-200,-148,-109
-7,-113,-106,55,46,-112,-10,-133,-151,-200,-148,-115
-25,-119,-94,73,35,-106,-4,-127,-151,-194,-142,-109
-25,-131,-106,79,40,-118,-4,-127,-151,-200,-142,-109
-13,-125,-112,67,46,-118,-10,-127,-151,-212,-142,-115
-13,-119,-106,67,46,-112,-16,-127,-151,-218,-148,-115
-19,-119,-100,67,40,-112,-4,-121,-145,-212,-142,-115
-37,-119,-82,79,24,-100,2,-121,-145,-218,-136,-109
5,-113,-118,49,58,-118,-16,-133,-163,-224,-148,-127
17,-113,-130,43,70,-124,-16,-139,-169,-230,-154,-133
11,-113,-124,49,64,-118,-16,-139,-175,-230,-154,-133
-13,-113,-100,61,40,-106,-10,-145,-169,-224,-148,-133
-37,-113,-76,73,18,-94,2,-133,-157,-212,-142,-115
-43,-107,-64,73,12,-88,2,-121,-145,-206,-136,-109
-67,-107,-40,85,-12,-76,14,-109,-133,-200,-124,-109
-79,-107,-28,91,-24,-70,20,-103,-127,-194,-124,-103
-67,-101,-34,79,-18,-70,26,-97,-127,-188,-118,-97
-31,-89,-58,55,12,-76,26,-103,-133,-188,-118,-103
-7,-89,-82,43,35,-88,20,-109,-145,-194,-124,-115
-7,-89,-82,43,35,-88,26,-103,-139,-194,-124,-115
-13,-95,-82,55,35,-88,26,-97,-139,-188,-124,-115
-13,-89,-76,49,30,-82,32,-97,-127,-188,-112,-115
-43,-89,-46,61,0,-70,44,-91,-121,-182,-106,-109
-49,-95,-46,73,0,-70,38,-97,-121,-188,-106,-109
-37,-89,-52,61,6,-70,32,-97,-121,-182,-112,-115
-31,-77,-46,49,6,-64,38,-91,-121,-182,-112,-109
-25,-65,-40,43,6,-52,44,-85,-115,-176,-112,-103
-43,-59,-18,49,-12,-40,56,-67,-103,-170,-106,-97
-31,-47,-18,37,-6,-34,56,-67,-109,-164,-106,-97
-31,-47,-18,37,-6,-34,56,-79,-109,-164,-106,-97
-31,-53,-23,37,-6,-40,61,-79,-115,-170,-106,-103
-31,-59,-28,43,0,-46,50,-79,-121,-176,-112,-109
-25,-59,-34,43,6,-46,38,-91,-127,-188,-112,-115
-25,-59,-34,43,6,-46,44,-79,-121,-182,-106,-115
-25,-59,-34,43,6,-46,44,-79,-115,-182,-106,-109
-31,-59,-28,43,0,-46,38,-85,-115,-182,-106,-109
-37,-53,-18,43,-12,-34,44,-85,-115,-176,-100,-97
-25,-47,-23,37,0,-34,38,-91,-115,-176,-100,-91
-13,-35,-23,25,6,-28,26,-97,-121,-176,-106,-91
-13,-35,-23,25,6,-28,20,-97,-121,-176,-94,-85
-13,-41,-28,25,6,-34,8,-103,-121,-170,-94,-85
-7,-35,-28,19,12,-34,2,-103,-121,-170,-88,-85
-1,-29,-28,13,12,-28,-4,-97,-115,-164,-82,-79
-1,-23,-23,13,12,-22,-4,-91,-109,-152,-70,-67
-13,-23,-12,19,0,-16,2,-79,-103,-152,-64,-61
-13,-41,-28,25,6,-34,-4,-79,-109,-158,-70,-67
-13,-59,-46,37,18,-52,-4,-85,-121,-164,-82,-79
-7,-71,-64,37,30,-70,-4,-85,-121,-176,-88,-85
23,-71,-94,25,58,-82,-10,-97,-133,-188,-100,-103
51,-65,-118,7,82,-88,-10,-103,-133,-188,-106,-103
35,-77,-112,19,70,-94,-4,-97,-139,-188,-106,-103
29,-95,-124,31,76,-112,-10,-103,-145,-188,-118,-109
23,-107,-130,43,76,-118,-16,-115,-157,-200,-118,-115
17,-107,-124,43,70,-118,-16,-115,-157,-200,-124,-121
29,-107,-136,37,82,-124,-16,-115,-163,-212,-130,-127
23,-107,-130,43,76,-118,-10,-115,-157,-218,-130,-127
11,-113,-124,49,64,-118,2,-109,-151,-218,-130,-121
11,-119,-130,55,70,-124,2,-115,-157,-218,-136,-127
5,-125,-130,55,64,-130,14,-115,-163,-224,-142,-133
-1,-137,-136,67,64,-136,8,-127,-175,-236,-148,-145
-7,-155,-148,79,70,-154,2,-139,-187,-242,-166,-163
-19,-167,-148,91,64,-160,-4,-139,-199,-248,-172,-175
-25,-173,-148,97,58,-160,2,-139,-199,-248,-172,-181
-25,-185,-160,103,64,-172,2,-139,-199,-254,-172,-181
-25,-173,-148,97,58,-160,8,-133,-193,-254,-172,-181
-37,-167,-130,103,46,-148,8,-127,-187,-254,-172,-181
-49,-167,-118,109,35,-142,14,-115,-187,-248,-166,-169
-61,-167,-106,115,24,-136,14,-115,-187,-248,-166,-169
-43,-167,-124,103,40,-148,8,-121,-193,-254,-172,-181
-31,-173,-142,97,52,-160,-4,-127,-199,-260,-178,-181
-25,-179,-154,103,64,-166,-4,-127,-199,-260,-172,-181
-7,-173,-166,85,76,-172,2,-127,-199,-260,-178,-181
-25,-173,-148,97,58,-160,2,-121,-193,-260,-172,-175
-49,-179,-130,115,40,-154,2,-121,-193,-260,-172,-181
-61,-179,-118,121,30,-148,8,-121,-193,-266,-178,-181
-61,-179,-118,121,30,-148,8,-127,-199,-260,-178,-187
-67,-179,-112,121,24,-148,8,-127,-199,-266,-190,-193
-61,-185,-124,121,30,-154,8,-133,-199,-266,-190,-199
-61,-179,-118,121,30,-148,14,-121,-193,-260,-184,-193
-49,-173,-124,109,35,-148,20,-121,-193,-254,-178,-187
-37,-173,-136,103,46,-154,20,-127,-199,-254,-178,-181
-31,-173,-142,97,52,-160,14,-127,-199,-254,-172,-187
-37,-179,-142,109,52,-160,14,-115,-187,-254,-160,-175
-49,-179,-130,115,40,-154,20,-109,-181,-242,-154,-175
-49,-179,-130,115,40,-154,14,-109,-187,-248,-160,-181
-49,-179,-130,115,40,-154,8,-115,-187,-254,-172,-187
-49,-179,-130,115,40,-154,14,-115,-187,-254,-178,-193
-49,-179,-130,115,40,-154,14,-127,-193,-260,-178,-193
-43,-179,-136,109,46,-160,20,-127,-193,-254,-178,-193
-37,-179,-142,109,52,-160,26,-121,-187,-254,-178,-187
-43,-179,-136,109,46,-160,38,-103,-175,-242,-166,-181
-43,-185,-142,109,46,-166,50,-73,-163,-236,-160,-187
-67,-197,-130,127,30,-166,72,-33,-127,-218,-154,-193
-73,-215,-142,145,35,-178,96,33,-79,-206,-160,-205
-61,-227,-166,145,52,-196,120,99,-32,-182,-166,-235
-31,-233,-202,127,82,-220,144,171,21,-152,-166,-259
-31,-227,-196,127,82,-214,186,255,111,-92,-142,-247
-31,-197,-166,109,64,-184,228,345,207,-14,-88,-229
-25,-155,-130,91,52,-142,258,405,303,74,-28,-199
-1,-107,-106,55,52,-106,270,465,405,188,66,-127
41,-65,-106,7,70,-88,264,513,507,326,192,-37
57,-17,-76,-23,64,-46,252,525,591,452,324,63
75,41,-34,-51,58,6,240,519,651,572,468,189
63,119,54,-87,6,90,204,471,681,698,648,357
93,203,108,-147,-6,156,132,393,723,860,876,579
159,305,144,-225,12,228,32,309,795,1070,1164,849
219,413,192,-309,18,306,-88,189,843,1286,1470,1137
273,503,228,-387,24,366,-226,33,831,1448,1740,1407
315,593,276,-447,24,438,-382,-163,753,1556,1968,1659
345,683,336,-513,6,510,-544,-403,603,1598,2118,1839
333,779,444,-555,-54,612,-670,-643,393,1544,2148,1893
309,869,558,-585,-120,714,-778,-865,135,1388,2034,1815
273,899,624,-585,-174,762,-862,-1093,-163,1124,1782,1629
225,869,642,-543,-204,756,-904,-1291,-487,800,1440,1371
189,791,600,-489,-204,696,-916,-1447,-787,434,1026,1047
111,653,540,-375,-210,600,-910,-1549,-1093,-14,504,639
41,479,438,-261,-198,456,-904,-1609,-1369,-476,14,261
-25,299,324,-135,-174,312,-874,-1603,-1567,-872,-406,-61
-79,131,210,-29,-144,168,-808,-1519,-1657,-1160,-700,-301
-103,-29,72,61,-90,18,-724,-1399,-1657,-1316,-880,-475
-121,-167,-46,145,-36,-106,-652,-1249,-1585,-1352,-952,-571
-109,-269,-160,187,24,-214,-586,-1057,-1435,-1280,-934,-613
-67,-335,-268,199,100,-304,-514,-847,-1237,-1148,-844,-601
-49,-371,-322,211,136,-346,-430,-643,-1039,-992,-730,-553
-25,-383,-358,205,166,-370,-352,-475,-865,-860,-634,-505
-7,-383,-376,193,184,-382,-292,-355,-727,-758,-556,-463
-1,-377,-376,187,184,-376,-250,-259,-601,-668,-490,-421
11,-371,-382,181,196,-376,-208,-175,-499,-584,-430,-385
11,-365,-376,175,190,-370,-166,-115,-409,-518,-388,-355
-1,-359,-358,181,178,-358,-124,-67,-343,-452,-346,-325
-1,-353,-352,175,172,-352,-82,-45,-295,-404,-322,-313
-7,-341,-334,169,160,-340,-46,-15,-253,-350,-286,-295
-19,-317,-298,163,136,-310,-10,21,-211,-308,-250,-277
-1,-299,-298,151,148,-298,8,39,-181,-278,-220,-259
-7,-281,-274,139,130,-280,26,57,-145,-260,-202,-247
-13,-257,-244,133,112,-250,44,63,-109,-236,-178,-235
-1,-233,-232,115,112,-232,50,75,-79,-218,-166,-223
5,-203,-208,97,106,-208,61,81,-55,-194,-154,-211
-7,-197,-190,97,88,-196,61,87,-32,-182,-142,-199
-7,-197,-190,97,88,-196,66,75,-27,-158,-130,-199
-1,-191,-190,97,94,-190,66,75,-21,-152,-124,-193
-1,-179,-178,91,88,-178,72,75,-15,-134,-106,-181
11,-173,-184,79,94,-178,72,81,-9,-128,-94,-175
5,-173,-178,79,88,-178,78,87,-3,-122,-88,-163
-1,-161,-160,79,76,-160,78,93,3,-122,-82,-157
-1,-149,-148,73,70,-148,84,87,9,-110,-82,-157
5,-131,-136,61,70,-136,90,93,15,-110,-76,-151
-7,-119,-112,61,52,-118,102,105,27,-92,-64,-145
-25,-125,-100,73,35,-112,108,105,33,-92,-58,-139
-31,-125,-94,73,30,-112,108,105,33,-80,-52,-139
-25,-143,-118,85,46,-130,96,93,33,-92,-58,-145
-19,-149,-130,79,52,-142,90,93,33,-86,-52,-139
-31,-149,-118,85,40,-136,90,99,45,-80,-46,-127
-49,-137,-88,91,18,-112,96,111,57,-68,-40,-115
-31,-125,-94,73,30,-112,90,111,51,-74,-40,-115
-37,-119,-82,79,24,-100,96,105,51,-68,-40,-115
-43,-119,-76,79,18,-100,96,105,57,-68,-34,-115
-43,-119,-76,79,18,-100,102,105,57,-56,-28,-115
-31,-119,-88,73,30,-106,102,111,57,-56,-22,-109
-37,-119,-82,79,24,-100,102,117,69,-38,-10,-103
-37,-119,-82,79,24,-100,102,117,81,-38,2,-97
-13,-119,-106,67,46,-112,90,111,81,-32,-4,-103
-13,-125,-112,67,46,-118,90,111,81,-38,2,-109
-25,-125,-100,73,35,-112,90,117,87,-26,8,-109
-37,-113,-76,73,18,-94,96,129,87,-20,14,-103
-37,-107,-70,73,18,-88,96,129,87,-14,14,-97
-13,-95,-82,55,35,-88,96,129,87,-20,19,-97
-7,-89,-82,43,35,-88,90,123,93,-8,19,-85
5,-95,-100,43,52,-100,84,117,93,-14,14,-85
5,-95,-100,43,52,-100,84,117,99,-2,19,-79
-19,-101,-82,55,30,-94,84,117,105,4,19,-79
-37,-113,-76,73,18,-94,78,123,111,10,19,-73
-31,-119,-88,73,30,-106,66,117,111,4,19,-85
-31,-113,-82,67,24,-100,61,123,111,16,24,-85
-1,-95,-94,49,46,-94,56,129,111,16,30,-85
17,-77,-94,25,52,-88,56,141,123,28,36,-79
23,-83,-106,31,64,-94,61,141,135,34,48,-67
17,-89,-106,31,58,-100,66,147,141,45,54,-61
-7,-71,-64,37,30,-70,78,153,153,62,66,-43
5,-59,-64,25,35,-64,78,159,159,68,66,-37
35,-47,-82,7,58,-64,78,159,165,68,66,-37
46,-41,-88,-5,64,-64,72,165,177,80,72,-37
51,-41,-94,-5,70,-64,66,165,183,86,66,-37
57,-35,-94,-11,76,-64,61,171,189,98,72,-31
63,-35,-100,-11,82,-64,56,171,195,104,78,-25
51,-35,-88,-5,70,-58,56,177,195,116,90,-13
46,-35,-82,-5,64,-58,61,183,207,128,102,-1
23,-41,-64,7,40,-52,72,189,213,134,108,11
17,-41,-58,7,35,-52,66,189,219,140,108,11
35,-29,-64,-5,46,-46,66,195,225,152,114,17
41,-17,-58,-17,46,-40,78,207,237,164,132,29
41,-11,-52,-17,46,-34,78,219,255,176,138,35
41,1,-40,-23,40,-22,78,231,273,188,150,47
35,1,-34,-17,35,-16,78,237,291,206,156,57
46,13,-34,-29,40,-10,72,249,303,212,162,63
57,13,-46,-34,52,-16,61,249,309,224,174,63
75,13,-64,-39,70,-22,66,261,315,236,180,75
81,24,-58,-51,70,-16,72,279,333,254,204,93
81,29,-52,-51,70,-10,78,291,345,272,222,111
87,35,-52,-57,70,-4,72,291,351,278,234,117
81,35,-46,-57,64,-4,72,303,363,290,240,129
63,41,-23,-45,46,12,72,315,375,314,258,141
63,53,-12,-51,40,24,72,333,393,326,270,147
63,59,-6,-57,35,30,66,345,411,338,282,153
69,53,-18,-57,46,18,66,351,423,350,294,159
81,71,-12,-75,46,30,66,363,435,368,306,165
87,77,-12,-75,52,36,78,381,453,386,330,183
105,83,-23,-93,64,30,84,393,465,398,336,195
111,89,-23,-93,70,36,84,405,471,410,348,207
123,95,-28,-105,76,36,84,411,489,422,360,219
105,101,-6,-99,58,48,84,423,501,434,378,237
81,107,24,-93,30,66,90,441,519,452,390,249
87,107,18,-93,35,66,90,453,531,458,396,255
93,119,24,-105,35,72,84,459,537,464,396,261
105,125,18,-111,46,72,84,471,549,476,408,267
105,137,30,-117,40,84,84,489,567,494,426,279
99,143,42,-117,30,96,102,507,591,518,450,303
117,155,36,-135,40,96,102,507,597,524,456,303
129,149,18,-135,58,84,96,507,597,536,456,303
123,149,24,-129,52,90,90,507,597,536,450,303
141,143,0,-141,70,72,72,507,591,530,444,297
135,149,12,-135,64,84,72,513,597,536,444,297
99,167,66,-129,18,120,84,537,627,560,474,321
87,179,90,-129,0,138,102,561,651,578,492,351
93,191,96,-141,0,144,102,579,663,584,504,363
117,197,78,-153,24,138,102,585,669,590,504,369
123,197,72,-153,30,138,102,597,675,602,504,369
147,209,60,-171,46,138,102,597,669,602,504,369
177,221,42,-195,70,132,102,597,663,596,504,363
171,221,48,-189,64,138,102,591,663,596,504,363
159,215,54,-183,52,138,108,591,657,596,504,363
153,215,60,-183,46,138,102,591,663,596,510,369
147,209,60,-171,46,138,102,591,663,602,510,375
135,209,72,-165,35,144,96,591,669,608,510,375
147,215,66,-177,40,144,90,591,663,608,498,375
153,209,54,-177,52,132,90,585,651,602,486,369
153,209,54,-177,52,132,84,573,639,602,480,363
135,209,72,-165,35,144,84,561,627,602,486,363
129,209,78,-165,30,144,84,537,603,590,480,363
135,221,84,-171,30,156,84,525,585,584,486,369
129,227,96,-177,18,162,84,507,573,572,486,363
111,221,108,-159,6,168,72,483,555,554,480,363
99,209,108,-147,0,162,61,465,537,542,468,351
87,203,114,-141,-12,162,56,441,519,530,450,339
87,203,114,-141,-12,162,56,417,501,512,438,333
93,203,108,-147,-6,156,50,393,483,500,426,321
93,185,90,-135,6,138,50,375,459,482,414,315
81,167,84,-123,0,126,50,351,423,464,402,303
81,167,84,-123,0,126,50,321,387,440,384,291
81,155,72,-117,6,114,38,291,357,410,354,273
57,137,78,-93,-6,108,32,267,321,374,330,255
57,125,66,-87,0,96,20,237,279,344,300,225
51,119,66,-81,-6,96,8,213,255,308,270,201
29,101,72,-63,-18,84,14,189,231,284,246,183
17,89,72,-51,-24,78,14,171,213,254,222,165
11,77,66,-39,-24,72,14,141,183,224,198,147
-1,59,60,-29,-30,60,8,123,153,194,180,129
-1,35,36,-17,-18,36,8,99,123,176,156,105
-7,24,30,-11,-18,24,2,75,93,146,126,87
-25,19,42,1,-36,30,8,63,69,134,102,75
-61,7,66,25,-66,36,20,57,51,110,84,63
-61,-11,48,37,-54,18,14,39,27,86,60,41
-43,-17,24,25,-36,1,8,15,-3,45,36,17
-55,-29,24,37,-42,-4,14,9,-21,34,19,5
-61,-41,18,49,-42,-10,14,-3,-32,16,8,-7
-67,-47,18,55,-42,-16,14,-15,-43,-2,-4,-19
-67,-59,6,61,-36,-28,8,-21,-61,-14,-22,-31
-67,-71,-6,67,-30,-40,14,-27,-79,-20,-34,-31
-67,-71,-6,67,-30,-40,8,-39,-91,-32,-46,-37
-55,-71,-18,61,-18,-46,2,-45,-109,-44,-58,-49
-31,-77,-46,49,6,-64,-4,-61,-127,-68,-82,-61
-37,-77,-40,55,0,-58,-10,-73,-133,-80,-94,-79
-67,-83,-18,73,-24,-52,-4,-73,-133,-98,-100,-85
-67,-89,-23,73,-24,-58,-4,-79,-145,-110,-112,-103
-67,-89,-23,73,-24,-58,-4,-91,-157,-122,-124,-109
-73,-89,-18,79,-30,-52,-4,-91,-163,-122,-130,-115
-73,-95,-23,85,-24,-58,2,-85,-169,-122,-130,-115
-73,-95,-23,85,-24,-58,8,-91,-175,-128,-142,-121
-79,-89,-12,79,-36,-52,2,-79,-175,-122,-136,-115
-91,-89,0,85,-48,-46,2,-79,-169,-128,-142,-115
-97,-95,0,97,-48,-46,8,-85,-169,-128,-148,-121
-97,-95,0,97,-48,-46,2,-91,-181,-146,-154,-127
-91,-101,-12,91,-42,-58,-4,-103,-187,-152,-154,-133
-91,-113,-23,97,-36,-70,-4,-109,-199,-164,-166,-145
-109,-131,-23,121,-42,-76,-10,-115,-205,-164,-172,-151
-121,-143,-23,133,-48,-82,-10,-115,-205,-164,-172,-139
-103,-125,-23,109,-42,-76,-10,-109,-205,-158,-172,-133
-85,-113,-28,97,-30,-70,2,-109,-211,-158,-172,-133
-55,-101,-46,73,-6,-76,-4,-109,-217,-164,-178,-139
-55,-101,-46,73,-6,-76,-4,-115,-217,-170,-178,-145
-67,-107,-40,85,-12,-76,-4,-121,-217,-176,-178,-151
-85,-119,-34,103,-24,-76,-4,-121,-217,-182,-178,-157
-85,-113,-28,97,-30,-70,-10,-121,-223,-182,-178,-163
-73,-95,-23,85,-24,-58,-4,-115,-211,-170,-166,-145
-43,-77,-34,55,-6,-58,-4,-115,-211,-164,-166,-145
-37,-83,-46,61,6,-64,-4,-115,-211,-164,-172,-151
-37,-101,-64,67,12,-82,-4,-121,-223,-170,-178,-157
-55,-113,-58,79,0,-88,2,-121,-223,-170,-178,-157
-55,-119,-64,85,6,-94,2,-121,-223,-170,-178,-151
-55,-119,-64,85,6,-94,-4,-115,-229,-176,-184,-163
-55,-119,-64,85,6,-94,-4,-109,-223,-176,-184,-163
-49,-107,-58,79,6,-82,-4,-109,-217,-176,-184,-157
-37,-107,-70,73,18,-88,-10,-109,-223,-182,-190,-157
-43,-107,-64,73,12,-88,-10,-115,-223,-182,-196,-157
-37,-101,-64,67,12,-82,-16,-115,-229,-182,-202,-157
-43,-95,-52,67,6,-76,-10,-109,-223,-176,-202,-151
-43,-95,-52,67,6,-76,-10,-109,-223,-170,-202,-151
-49,-101,-52,73,0,-76,-10,-103,-217,-170,-196,-157
-61,-95,-34,79,-12,-64,-4,-97,-217,-158,-196,-163
-61,-95,-34,79,-12,-64,2,-97,-217,-164,-196,-163
-61,-101,-40,79,-12,-70,2,-97,-217,-170,-196,-163
-49,-101,-52,73,0,-76,-4,-97,-217,-176,-196,-169
-31,-101,-70,61,18,-88,-10,-103,-223,-182,-196,-163
-13,-95,-82,55,35,-88,-10,-103,-217,-188,-202,-163
-19,-95,-76,55,30,-88,-16,-103,-217,-182,-202,-157
-31,-101,-70,61,18,-88,-10,-97,-211,-170,-196,-151
-49,-101,-52,73,0,-76,-4,-91,-205,-164,-196,-145
-43,-101,-58,67,6,-82,-10,-91,-211,-164,-202,-157
-43,-101,-58,67,6,-82,-16,-97,-217,-164,-202,-163
-49,-89,-40,67,-6,-64,-10,-85,-211,-164,-196,-163
-67,-89,-23,73,-24,-58,-4,-79,-211,-152,-184,-151
-61,-83,-23,73,-18,-52,-4,-79,-211,-158,-190,-157
-31,-83,-52,55,12,-70,-10,-91,-217,-158,-190,-157
-25,-83,-58,55,18,-70,-10,-91,-211,-164,-190,-157
-43,-83,-40,61,0,-64,-4,-85,-205,-152,-184,-157
-73,-89,-18,79,-30,-52,-4,-79,-199,-152,-184,-145
-61,-83,-23,73,-18,-52,-16,-79,-211,-158,-190,-151
-49,-71,-23,61,-12,-46,-16,-79,-211,-158,-184,-157
-55,-65,-12,55,-24,-40,-16,-73,-211,-146,-184,-151
-49,-65,-18,55,-18,-40,-10,-79,-211,-152,-184,-145
-43,-65,-23,49,-12,-46,-4,-79,-211,-146,-184,-139
-61,-77,-18,67,-24,-46,-4,-73,-205,-146,-178,-133
-67,-83,-18,73,-24,-52,-4,-79,-211,-152,-184,-133
-61,-83,-23,73,-18,-52,-4,-79,-217,-158,-190,-139
-73,-95,-23,85,-24,-58,-4,-73,-223,-152,-190,-145
-73,-89,-18,79,-30,-52,-4,-67,-217,-152,-184,-139
-43,-59,-18,49,-12,-40,-4,-61,-211,-146,-178,-127
-25,-53,-28,37,0,-40,-10,-61,-211,-146,-178,-133
-37,-59,-23,49,-6,-40,-16,-67,-217,-140,-184,-133
-31,-59,-28,43,0,-46,-22,-79,-217,-146,-184,-139
-19,-59,-40,37,12,-52,-28,-85,-217,-140,-184,-145
-19,-53,-34,31,6,-46,-16,-79,-217,-134,-184,-133
-25,-47,-23,37,0,-34,-4,-73,-217,-134,-178,-133
-31,-47,-18,37,-6,-34,2,-67,-217,-128,-172,-127
-43,-53,-12,43,-18,-34,2,-61,-217,-128,-172,-121
-37,-53,-18,43,-12,-34,-4,-61,-217,-128,-172,-127
-19,-53,-34,31,6,-46,-10,-67,-229,-134,-184,-127
-25,-65,-40,43,6,-52,-10,-79,-229,-140,-190,-133
-49,-77,-28,61,-12,-52,-10,-85,-229,-146,-196,-133
-67,-83,-18,73,-24,-52,-4,-79,-229,-140,-196,-133
-55,-77,-23,61,-18,-52,-4,-73,-229,-146,-190,-133
-55,-77,-23,61,-18,-52,-10,-73,-229,-146,-190,-133
-55,-71,-18,61,-18,-46,-10,-73,-235,-152,-196,-133
-43,-71,-28,55,-6,-52,-10,-79,-247,-158,-202,-139
-37,-59,-23,49,-6,-40,-10,-79,-253,-164,-202,-139
-37,-59,-23,49,-6,-40,-10,-85,-253,-158,-202,-139
-43,-59,-18,49,-12,-40,-4,-91,-247,-158,-196,-133
-43,-59,-18,49,-12,-40,-4,-91,-247,-158,-202,-139
-55,-59,-6,55,-24,-34,-10,-97,-247,-152,-208,-139
-55,-65,-12,55,-24,-40,-10,-91,-253,-164,-214,-139
-67,-65,0,61,-36,-34,-4,-85,-253,-158,-220,-133
-61,-59,0,61,-30,-28,-4,-79,-253,-164,-220,-133
-61,-65,-6,61,-30,-34,-4,-79,-259,-164,-220,-127
-55,-59,-6,55,-24,-34,-10,-85,-265,-176,-226,-139
-49,-59,-12,55,-18,-34,-10,-91,-265,-182,-232,-139
-43,-59,-18,49,-12,-40,-10,-91,-265,-188,-232,-145
-55,-65,-12,55,-24,-40,-4,-91,-259,-182,-232,-145
-67,-71,-6,67,-30,-40,-4,-103,-265,-188,-232,-151
-55,-77,-23,61,-18,-52,-16,-115,-283,-206,-244,-163
-61,-77,-18,67,-24,-46,-22,-121,-289,-200,-244,-163
-43,-71,-28,55,-6,-52,-28,-127,-289,-206,-250,-163
-37,-65,-28,49,-6,-46,-28,-133,-295,-206,-256,-163
-31,-53,-23,37,-6,-40,-22,-127,-295,-206,-256,-157
-31,-53,-23,37,-6,-40,-16,-121,-289,-200,-250,-163
-31,-65,-34,43,0,-52,-16,-115,-295,-206,-256,-169
-61,-77,-18,67,-24,-46,-10,-109,-289,-212,-262,-169
-79,-95,-18,85,-30,-58,-16,-109,-295,-206,-268,-169
-73,-107,-34,91,-18,-70,-28,-127,-307,-224,-280,-181
-61,-101,-40,79,-12,-70,-34,-139,-313,-230,-286,-181
-31,-83,-52,55,12,-70,-34,-139,-313,-230,-280,-175
-13,-71,-58,43,24,-64,-34,-139,-313,-230,-274,-175
-7,-65,-58,31,24,-64,-34,-139,-313,-230,-274,-175
-1,-65,-64,31,30,-64,-34,-133,-307,-230,-274,-175
-1,-59,-58,31,30,-58,-28,-127,-307,-230,-268,-175
11,-59,-70,25,40,-64,-28,-127,-307,-236,-280,-175
-1,-65,-64,31,30,-64,-22,-127,-313,-236,-280,-181
-31,-71,-40,49,6,-58,-10,-127,-313,-230,-280,-175
-43,-65,-23,49,-12,-46,-4,-121,-313,-224,-274,-169
-7,-59,-52,31,24,-58,-16,-139,-319,-230,-286,-175
-7,-53,-46,25,18,-52,-22,-139,-313,-224,-286,-181
-1,-53,-52,25,24,-52,-22,-139,-313,-230,-292,-181
-7,-59,-52,31,24,-58,-22,-133,-307,-230,-292,-181
-19,-65,-46,37,12,-58,-28,-133,-307,-230,-292,-187
-31,-71,-40,49,6,-58,-28,-127,-301,-236,-292,-187
-31,-65,-34,43,0,-52,-28,-133,-313,-236,-298,-193
-25,-65,-40,43,6,-52,-28,-139,-319,-242,-298,-187
-19,-65,-46,37,12,-58,-22,-139,-325,-236,-292,-181
-19,-65,-46,37,12,-58,-22,-139,-325,-242,-298,-187
-31,-65,-34,43,0,-52,-22,-139,-319,-242,-298,-181
-37,-71,-34,55,0,-52,-28,-145,-313,-236,-298,-181
-25,-83,-58,55,18,-70,-28,-145,-313,-248,-304,-187
-37,-77,-40,55,0,-58,-22,-133,-301,-236,-298,-181
-67,-71,-6,67,-30,-40,-4,-121,-289,-218,-280,-169
-79,-65,12,67,-48,-28,8,-109,-277,-212,-274,-163
-43,-65,-23,49,-12,-46,-4,-115,-283,-224,-286,-175
-37,-53,-18,43,-12,-34,-4,-115,-289,-230,-292,-175
-19,-47,-28,31,6,-40,-4,-121,-283,-230,-292,-175
-7,-41,-34,19,12,-40,-4,-121,-289,-236,-304,-181
-19,-35,-18,25,0,-28,2,-121,-283,-230,-298,-175
-19,-23,-6,19,-6,-16,8,-115,-277,-218,-292,-169
-31,-29,0,25,-18,-16,14,-115,-265,-212,-286,-163
-43,-23,18,31,-30,-4,20,-109,-259,-200,-280,-157
-43,-17,24,25,-36,1,14,-109,-259,-200,-286,-157
-43,-11,30,25,-36,6,8,-109,-259,-200,-286,-163
-43,-5,36,19,-42,12,14,-103,-259,-206,-292,-163
-55,-5,48,25,-54,18,20,-103,-259,-206,-292,-163
-61,-17,42,37,-54,12,20,-97,-259,-212,-292,-163
-61,-29,30,43,-48,1,20,-103,-265,-224,-304,-175
-61,-35,24,49,-42,-4,20,-109,-265,-224,-304,-175
-61,-41,18,49,-42,-10,26,-109,-259,-218,-304,-175
-67,-29,36,43,-54,1,20,-109,-265,-212,-298,-169
-55,-17,36,31,-48,6,14,-109,-265,-218,-298,-169
-43,-5,36,19,-42,12,8,-109,-265,-212,-298,-169
-49,7,54,19,-54,30,8,-103,-259,-194,-286,-157
-43,13,54,13,-48,30,8,-103,-259,-188,-280,-145
-37,19,54,7,-48,36,-4,-103,-259,-182,-274,-145
-25,24,48,1,-36,36,-10,-109,-253,-182,-268,-139
-7,29,36,-11,-18,30,-16,-115,-253,-182,-268,-133
-1,35,36,-17,-18,36,-22,-121,-259,-182,-274,-133
-7,35,42,-17,-24,36,-22,-127,-259,-182,-274,-127
-7,29,36,-11,-18,30,-28,-133,-265,-188,-280,-133
-25,19,42,1,-36,30,-34,-127,-259,-194,-274,-127
-13,19,30,-5,-24,24,-40,-127,-259,-200,-280,-127
-7,19,24,-11,-18,18,-46,-115,-253,-200,-274,-127
-7,13,18,-5,-12,12,-46,-115,-247,-200,-274,-127
-1,1,0,1,0,1,-46,-115,-247,-200,-280,-127
17,1,-18,-11,18,-10,-46,-115,-259,-212,-292,-133
29,1,-28,-17,30,-16,-46,-115,-259,-212,-298,-133
41,-17,-58,-17,46,-40,-52,-133,-271,-218,-304,-139
46,-41,-88,-5,64,-64,-52,-145,-283,-230,-316,-151
29,-59,-88,13,58,-76,-52,-151,-295,-230,-322,-157
5,-53,-58,19,30,-58,-34,-145,-289,-230,-322,-157
23,-41,-64,7,40,-52,-34,-151,-283,-230,-322,-151
35,-47,-82,7,58,-64,-40,-151,-289,-242,-322,-157
11,-47,-58,19,35,-52,-40,-145,-295,-242,-322,-157
17,-53,-70,13,40,-64,-52,-151,-301,-254,-340,-169
17,-59,-76,19,46,-70,-52,-157,-313,-266,-346,-175
5,-65,-70,25,35,-70,-46,-157,-307,-266,-352,-181
-13,-59,-46,37,18,-52,-34,-151,-301,-266,-352,-181
-31,-59,-28,43,0,-46,-28,-151,-307,-266,-358,-181
-49,-71,-23,61,-12,-46,-22,-151,-301,-260,-358,-187
-49,-77,-28,61,-12,-52,-22,-157,-307,-266,-364,-193
-49,-83,-34,67,-6,-58,-16,-157,-307,-260,-358,-193
-37,-101,-64,67,12,-82,-22,-157,-313,-272,-364,-199
-25,-113,-88,67,30,-100,-34,-163,-325,-284,-376,-211
-31,-113,-82,67,24,-100,-34,-157,-325,-278,-382,-211
-31,-107,-76,67,24,-94,-28,-157,-313,-278,-388,-205
-31,-101,-70,61,18,-88,-28,-157,-313,-278,-394,-211
-37,-95,-58,67,12,-76,-22,-163,-313,-278,-394,-211
-61,-95,-34,79,-12,-64,-16,-157,-307,-272,-388,-205
-73,-95,-23,85,-24,-58,-16,-157,-307,-272,-388,-211
-43,-95,-52,67,6,-76,-28,-169,-331,-290,-406,-229
-19,-95,-76,55,30,-88,-40,-175,-337,-296,-406,-235
-43,-119,-76,79,18,-100,-40,-175,-337,-296,-406,-229
-73,-137,-64,103,-6,-100,-28,-169,-331,-290,-406,-223
-67,-131,-64,97,0,-100,-28,-169,-325,-284,-400,-223
-67,-113,-46,85,-12,-82,-16,-157,-313,-278,-394,-211
-67,-107,-40,85,-12,-76,-10,-151,-307,-272,-394,-205
-73,-101,-28,85,-24,-64,-4,-145,-301,-260,-388,-199
-73,-95,-23,85,-24,-58,-4,-133,-295,-260,-388,-193
-79,-95,-18,85,-30,-58,8,-133,-295,-254,-388,-193
-67,-95,-28,79,-18,-64,2,-133,-301,-260,-388,-193
-61,-95,-34,79,-12,-64,-10,-151,-313,-272,-394,-199
-67,-89,-23,73,-24,-58,-10,-151,-307,-266,-394,-199
-91,-89,0,85,-48,-46,-4,-139,-295,-260,-388,-187
-103,-95,6,97,-54,-46,-4,-139,-289,-260,-394,-181
-91,-107,-18,97,-36,-64,-10,-139,-295,-266,-400,-193
-73,-119,-46,97,-12,-82,-16,-145,-295,-272,-412,-205
-79,-113,-34,91,-24,-76,-10,-139,-289,-266,-406,-211
-103,-113,-12,103,-48,-64,20,-109,-259,-242,-400,-205
-79,-113,-34,91,-24,-76,38,-73,-235,-236,-400,-217
-67,-119,-52,91,-6,-88,61,-27,-199,-218,-400,-229
-67,-131,-64,97,0,-100,90,39,-145,-200,-400,-241
-67,-143,-76,103,6,-112,120,123,-79,-170,-388,-247
-67,-137,-70,97,0,-106,150,207,-3,-128,-376,-247
-73,-125,-52,97,-12,-88,180,297,93,-62,-346,-229
-55,-101,-46,73,-6,-76,204,363,183,22,-304,-211
-37,-65,-28,49,-6,-46,222,417,267,110,-238,-175
-19,-23,-6,19,-6,-16,234,483,381,242,-112,-85
5,29,24,-17,-6,24,240,519,477,380,19,17
29,101,72,-63,-18,84,234,531,561,518,174,135
63,185,120,-117,-24,156,198,483,603,638,336,285
87,281,192,-177,-48,240,120,399,645,794,552,501
129,377,246,-249,-54,312,14,297,717,1004,840,777
189,485,294,-333,-48,390,-130,171,783,1220,1140,1077
243,575,330,-405,-42,456,-286,-15,777,1406,1422,1365
297,653,354,-471,-24,504,-466,-235,693,1514,1650,1623
369,755,384,-561,-6,570,-652,-511,537,1574,1836,1833
387,875,486,-627,-48,684,-808,-781,327,1562,1926,1953
363,989,624,-669,-126,810,-904,-1033,75,1460,1890,1947
351,1067,714,-705,-180,894,-1012,-1309,-235,1232,1698,1815
297,1055,756,-675,-228,906,-1084,-1561,-565,926,1386,1587
231,983,750,-603,-258,870,-1126,-1753,-871,572,1008,1317
171,869,696,-513,-258,786,-1144,-1885,-1177,158,522,957
129,707,576,-417,-222,642,-1132,-1963,-1471,-320,-4,555
87,515,426,-297,-168,474,-1096,-1957,-1693,-752,-466,195
17,305,288,-159,-132,294,-1006,-1861,-1807,-1070,-808,-91
-19,113,132,-45,-72,120,-904,-1717,-1831,-1274,-1036,-325
-55,-47,6,49,-30,-22,-814,-1549,-1777,-1352,-1156,-481
-79,-161,-82,115,0,-124,-748,-1357,-1651,-1328,-1180,-571
-67,-239,-172,151,52,-208,-664,-1123,-1453,-1208,-1114,-589
-49,-287,-238,169,94,-262,-580,-901,-1243,-1058,-1012,-559
-37,-311,-274,175,118,-292,-496,-715,-1063,-920,-910,-505
-19,-317,-298,163,136,-310,-430,-571,-913,-812,-832,-457
-1,-311,-310,157,154,-310,-376,-451,-799,-716,-766,-415
5,-305,-310,145,154,-310,-322,-355,-691,-638,-712,-385
17,-293,-310,133,160,-304,-256,-271,-595,-560,-664,-355
11,-275,-286,133,148,-280,-184,-187,-511,-476,-616,-337
-7,-263,-256,133,124,-262,-124,-127,-439,-410,-574,-319
-31,-245,-214,133,88,-232,-70,-79,-391,-350,-532,-295
-31,-233,-202,127,82,-220,-40,-45,-361,-302,-502,-283
-25,-209,-184,115,76,-196,-22,-15,-331,-272,-472,-259
-1,-173,-172,85,82,-172,-4,15,-301,-248,-442,-241
-1,-143,-142,73,70,-142,14,33,-265,-224,-418,-217
11,-119,-130,55,70,-124,26,45,-235,-212,-400,-199
5,-107,-112,49,58,-112,32,51,-211,-200,-394,-187
-7,-107,-100,55,46,-106,44,57,-181,-188,-388,-187
-19,-101,-82,55,30,-94,50,57,-163,-182,-388,-187
-31,-101,-70,61,18,-88,50,57,-151,-170,-376,-187
-49,-101,-52,73,0,-76,56,51,-133,-146,-364,-181
-49,-107,-58,79,6,-82,56,51,-121,-140,-358,-175
-37,-101,-64,67,12,-82,56,51,-109,-134,-346,-175
-25,-89,-64,55,18,-76,61,57,-97,-122,-328,-157
-25,-77,-52,49,12,-64,66,69,-91,-116,-316,-151
-37,-77,-40,55,0,-58,66,63,-85,-110,-316,-151
-31,-83,-52,55,12,-70,61,57,-79,-116,-316,-151
-31,-77,-46,49,6,-64,66,57,-67,-122,-316,-145
-25,-65,-40,43,6,-52,72,57,-61,-110,-316,-139
-13,-47,-34,31,12,-40,78,63,-49,-104,-322,-139
17,-29,-46,1,30,-40,78,69,-43,-98,-316,-133
17,-29,-46,1,30,-40,90,81,-32,-80,-298,-121
5,-23,-28,7,18,-28,90,81,-27,-74,-286,-115
-1,-23,-23,13,12,-22,90,87,-21,-68,-280,-103
-13,-29,-18,19,0,-22,90,93,-9,-56,-274,-97
-43,-29,12,31,-30,-10,90,105,-3,-50,-262,-91
-61,-29,30,43,-48,1,90,117,9,-50,-256,-91
-67,-35,30,49,-48,-4,96,117,15,-38,-256,-91
-49,-41,6,43,-30,-16,90,111,15,-44,-262,-97
-7,-29,-23,13,6,-28,78,99,9,-56,-268,-109
5,-23,-28,7,18,-28,84,99,15,-50,-262,-103
5,-35,-40,13,24,-40,90,111,27,-50,-262,-97
23,-35,-58,7,40,-46,78,105,27,-50,-262,-103
23,-29,-52,1,35,-40,84,111,21,-26,-244,-91
17,-23,-40,1,30,-34,84,123,33,-20,-238,-85
23,-17,-40,-5,30,-28,78,129,33,-14,-232,-85
29,-17,-46,-11,35,-34,72,129,27,-8,-232,-79
46,-11,-58,-17,52,-34,66,123,21,-8,-232,-79
51,-5,-58,-23,52,-28,66,117,21,-8,-232,-79
51,-5,-58,-23,52,-28,66,111,15,-2,-226,-79
63,7,-58,-34,58,-22,66,117,21,4,-214,-73
51,7,-46,-29,46,-16,66,123,27,10,-208,-67
41,-5,-46,-23,40,-28,61,129,33,22,-202,-61
11,-5,-18,-5,12,-10,61,141,39,28,-190,-55
5,-11,-18,1,12,-16,61,141,45,28,-190,-61
5,-17,-23,1,12,-22,61,141,39,40,-190,-55
-1,-5,-6,1,0,-4,66,153,51,45,-184,-43
5,1,-6,-5,6,-4,78,165,69,56,-172,-25
23,1,-23,-11,24,-10,72,165,75,68,-172,-25
35,1,-34,-17,35,-16,72,165,81,68,-172,-19
23,-5,-28,-11,24,-16,72,171,87,74,-160,-19
11,7,-6,-11,6,1,72,177,99,86,-154,-7
29,29,0,-29,18,12,72,183,105,98,-148,-1
41,29,-12,-34,30,6,66,189,117,98,-142,5
35,24,-12,-29,24,6,72,201,123,110,-136,11
23,29,6,-23,12,18,72,213,135,122,-130,23
23,29,6,-23,12,18,72,219,147,128,-130,29
23,29,6,-23,12,18,78,225,165,146,-118,41
23,29,6,-23,12,18,78,237,183,152,-112,41
23,35,12,-29,6,24,72,243,195,164,-106,47
29,47,18,-39,6,30,72,261,219,176,-88,52
23,53,30,-34,0,42,78,273,237,188,-70,57
41,77,36,-57,6,54,78,279,249,200,-64,63
41,83,42,-63,0,60,72,285,261,212,-52,69
29,77,48,-51,-6,60,84,297,273,230,-40,81
41,83,42,-63,0,60,84,315,291,248,-28,99
41,89,48,-63,0,66,90,333,309,266,-10,111
57,95,36,-75,12,66,90,345,321,278,-4,123
75,101,24,-81,30,66,84,351,333,290,2,129
63,113,48,-81,12,84,90,363,351,302,14,141
69,119,48,-93,12,84,90,369,351,302,19,147
57,125,66,-87,0,96,90,381,375,314,24,153
63,131,66,-93,0,102,84,393,387,326,36,165
69,131,60,-99,6,96,84,411,405,338,54,177
69,131,60,-99,6,96,84,429,423,362,72,189
57,137,78,-93,-6,108,90,447,441,380,90,207
57,131,72,-93,-6,102,96,465,459,392,108,213
63,131,66,-93,0,102,96,471,465,404,114,219
69,137,66,-99,6,102,96,489,483,416,126,231
81,161,78,-117,6,120,102,501,501,428,144,243
93,173,78,-129,12,126,102,513,519,446,156,255
93,179,84,-135,6,132,102,525,531,452,168,261
99,191,90,-141,6,144,96,531,543,464,180,267
105,203,96,-153,6,150,102,543,561,488,186,279
117,209,90,-159,18,150,102,555,573,494,192,291
123,215,90,-165,18,156,102,573,591,506,198,303
111,221,108,-159,6,168,108,591,609,518,210,309
93,221,126,-153,-12,174,114,609,627,530,222,321
87,215,126,-147,-18,174,120,621,633,536,234,327
105,227,120,-165,-6,174,120,621,639,542,234,333
117,233,114,-171,6,174,120,633,651,554,246,345
123,245,120,-177,6,186,126,651,669,566,264,357
117,245,126,-177,0,186,126,663,681,584,270,363
129,245,114,-183,12,180,120,669,687,584,264,357
147,251,102,-195,24,180,108,669,687,578,264,357
159,257,96,-201,35,180,108,675,687,584,264,357
147,263,114,-201,18,192,114,693,705,596,270,369
135,263,126,-195,6,198,114,693,711,602,276,375
129,263,132,-195,0,198,120,699,723,608,282,381
123,257,132,-183,0,198,120,699,723,608,276,381
111,239,126,-171,-6,186,114,693,723,602,270,375
111,239,126,-171,-6,186,108,687,717,602,264,375
111,245,132,-171,-6,192,108,687,711,602,264,375
117,245,126,-177,0,186,102,675,711,602,264,375
141,257,114,-195,18,186,96,657,705,596,258,369
135,251,114,-189,12,186,96,645,699,590,258,369
111,245,132,-171,-6,192,96,633,693,596,258,375
123,257,132,-183,0,198,90,621,681,584,258,381
129,275,144,-201,-6,210,90,609,669,578,264,381
123,281,156,-195,-12,222,90,597,651,572,264,387
141,287,144,-213,0,216,78,573,633,554,252,381
147,275,126,-207,12,204,72,549,615,542,240,381
141,269,126,-201,12,198,66,513,603,536,222,375
147,257,108,-195,24,186,66,483,579,512,204,363
123,239,114,-177,6,180,61,453,555,494,198,351
123,221,96,-165,18,162,50,417,519,470,168,333
93,215,120,-153,-12,168,44,393,495,452,156,327
75,203,126,-135,-24,168,44,369,465,428,144,309
63,185,120,-117,-24,156,32,333,429,404,120,291
63,179,114,-117,-24,150,20,303,399,374,102,279
63,167,102,-111,-18,138,20,279,375,344,84,261
75,155,78,-111,0,120,20,249,351,320,60,243
63,137,72,-93,0,108,20,225,327,296,42,225
51,119,66,-81,-6,96,20,201,309,272,19,207
46,107,60,-75,-6,84,14,177,273,236,-4,189
35,95,60,-63,-12,78,8,153,243,206,-34,165
23,83,60,-51,-18,72,8,129,207,176,-58,141
17,59,42,-39,-12,48,2,105,171,146,-88,111
17,47,30,-34,-6,36,2,87,141,122,-112,87
11,35,24,-23,-6,30,2,69,117,98,-130,75
-13,24,36,-5,-24,30,8,57,105,80,-142,69
-7,13,18,-5,-12,12,8,39,93,50,-160,52
17,13,-6,-17,12,1,-4,15,75,34,-184,41
5,1,-6,-5,6,-4,-4,9,63,10,-196,29
-7,-5,0,1,-6,-4,-4,-3,51,-2,-208,11
-25,-17,6,19,-18,-4,-4,-15,33,-14,-226,-1
-37,-29,6,31,-24,-10,-4,-21,9,-26,-232,-7
-55,-41,12,43,-36,-16,2,-21,-3,-32,-244,-13
-49,-41,6,43,-30,-16,2,-33,-21,-50,-256,-31
-25,-47,-23,37,0,-34,-10,-50,-37,-68,-268,-43
-25,-59,-34,43,6,-46,-4,-61,-43,-86,-274,-49
-49,-65,-18,55,-18,-40,2,-67,-49,-92,-280,-55
-49,-65,-18,55,-18,-40,8,-67,-55,-104,-286,-61
-37,-65,-28,49,-6,-46,8,-73,-61,-116,-304,-67
-25,-65,-40,43,6,-52,8,-73,-73,-122,-310,-73
-37,-71,-34,55,0,-52,8,-73,-73,-116,-322,-79
-37,-83,-46,61,6,-64,2,-85,-85,-128,-334,-91
-31,-95,-64,61,18,-82,-10,-97,-97,-146,-352,-109
-61,-101,-40,79,-12,-70,-10,-91,-103,-140,-346,-103
-85,-107,-23,97,-30,-64,-4,-91,-109,-146,-334,-103
-79,-107,-28,91,-24,-70,-4,-97,-109,-152,-340,-103
-73,-107,-34,91,-18,-70,-4,-97,-103,-146,-334,-97
-73,-101,-28,85,-24,-64,2,-97,-103,-158,-340,-103
-67,-83,-18,73,-24,-52,8,-91,-97,-146,-328,-91
-61,-83,-23,73,-18,-52,8,-91,-97,-140,-316,-97
-67,-77,-12,67,-30,-46,8,-91,-97,-146,-316,-91
-61,-65,-6,61,-30,-34,8,-91,-97,-146,-310,-97
-43,-65,-23,49,-12,-46,2,-103,-115,-152,-304,-103
-37,-65,-28,49,-6,-46,2,-103,-115,-158,-298,-103
-31,-65,-34,43,0,-52,-4,-103,-115,-158,-292,-103
-31,-89,-58,55,12,-76,-10,-121,-127,-164,-292,-109
-31,-101,-70,61,18,-88,-16,-127,-127,-176,-286,-115
-25,-107,-82,67,30,-94,-16,-133,-127,-182,-280,-121
-37,-113,-76,73,18,-94,-16,-133,-121,-188,-274,-115
-49,-119,-70,85,12,-94,-16,-133,-121,-194,-268,-115
-43,-107,-64,73,12,-88,-22,-133,-127,-200,-274,-127
-37,-89,-52,61,6,-70,-22,-133,-127,-206,-274,-121
-43,-95,-52,67,6,-76,-22,-127,-121,-200,-268,-121
-31,-83,-52,55,12,-70,-16,-127,-115,-200,-268,-115
-19,-65,-46,37,12,-58,-16,-121,-109,-188,-256,-109
-13,-71,-58,43,24,-64,-10,-121,-103,-182,-256,-109
-25,-83,-58,55,18,-70,-10,-121,-97,-176,-250,-103
-31,-95,-64,61,18,-82,-16,-127,-109,-182,-256,-109
-31,-101,-70,61,18,-88,-16,-127,-115,-176,-244,-109
-61,-89,-28,73,-18,-58,-4,-121,-115,-170,-238,-103
-79,-77,0,73,-42,-40,2,-115,-109,-170,-226,-97
-67,-59,6,61,-36,-28,8,-109,-103,-164,-226,-103
-43,-59,-18,49,-12,-40,8,-109,-103,-164,-226,-103
-19,-59,-40,37,12,-52,2,-115,-109,-176,-232,-109
-25,-65,-40,43,6,-52,2,-115,-109,-170,-238,-103
-25,-71,-46,49,12,-58,-4,-115,-115,-176,-244,-103
-19,-77,-58,43,18,-70,-4,-115,-121,-182,-250,-103
-31,-77,-46,49,6,-64,-4,-109,-121,-176,-244,-91
-25,-71,-46,49,12,-58,-4,-109,-127,-182,-244,-91
-19,-71,-52,43,18,-64,-4,-103,-127,-182,-238,-97
-43,-65,-23,49,-12,-46,2,-91,-115,-170,-220,-91
-37,-65,-28,49,-6,-46,2,-91,-115,-176,-214,-91
-25,-71,-46,49,12,-58,2,-85,-121,-170,-208,-85
-19,-65,-46,37,12,-58,2,-91,-121,-170,-208,-79
-31,-71,-40,49,6,-58,2,-91,-121,-164,-202,-73
-31,-77,-46,49,6,-64,8,-85,-121,-158,-202,-73
-25,-77,-52,49,12,-64,2,-91,-121,-158,-208,-73
-25,-65,-40,43,6,-52,8,-91,-121,-158,-214,-67
-25,-59,-34,43,6,-46,2,-91,-115,-152,-220,-79
-25,-59,-34,43,6,-46,2,-85,-115,-158,-220,-85
-43,-59,-18,49,-12,-40,8,-79,-115,-158,-214,-85
-49,-59,-12,55,-18,-34,8,-73,-109,-158,-208,-85
-55,-65,-12,55,-24,-40,14,-73,-109,-158,-208,-79
-43,-77,-34,55,-6,-58,8,-79,-115,-164,-208,-79
-37,-83,-46,61,6,-64,2,-85,-121,-164,-214,-79
-25,-89,-64,55,18,-76,-4,-91,-127,-164,-214,-79
-37,-101,-64,67,12,-82,-4,-91,-133,-164,-220,-79
-43,-101,-58,67,6,-82,-4,-97,-133,-164,-226,-85
-31,-83,-52,55,12,-70,2,-91,-133,-158,-220,-79
-19,-65,-46,37,12,-58,2,-85,-127,-152,-220,-79
-13,-53,-40,31,12,-46,2,-85,-127,-152,-214,-79
-7,-47,-40,25,18,-46,2,-85,-127,-152,-214,-79
-1,-41,-40,19,18,-40,8,-79,-127,-158,-208,-73
17,-47,-64,13,40,-58,2,-79,-133,-164,-214,-79
29,-35,-64,1,46,-52,2,-79,-139,-152,-208,-73
29,-35,-64,1,46,-52,8,-73,-133,-146,-208,-61
35,-29,-64,-5,46,-46,8,-79,-133,-140,-202,-55
29,-35,-64,1,46,-52,14,-79,-139,-140,-208,-55
17,-47,-64,13,40,-58,14,-73,-139,-140,-214,-55
11,-59,-70,25,40,-64,14,-73,-139,-140,-220,-55
5,-59,-64,25,35,-64,14,-73,-145,-146,-220,-61
-1,-71,-70,37,35,-70,8,-73,-151,-158,-226,-73
5,-71,-76,31,40,-76,-4,-85,-157,-170,-232,-79
-31,-71,-40,49,6,-58,8,-79,-151,-164,-220,-73
-61,-59,0,61,-30,-28,20,-73,-145,-158,-202,-61
-37,-53,-18,43,-12,-34,14,-85,-151,-158,-214,-61
-13,-47,-34,31,12,-40,8,-91,-157,-158,-220,-67
-13,-41,-28,25,6,-34,14,-91,-157,-152,-220,-61
-7,-47,-40,25,18,-46,14,-91,-157,-152,-226,-61
-1,-53,-52,25,24,-52,14,-85,-151,-152,-232,-67
5,-53,-58,19,30,-58,20,-85,-151,-152,-232,-67
-13,-53,-40,31,12,-46,26,-79,-145,-158,-232,-61
-25,-65,-40,43,6,-52,26,-79,-151,-164,-232,-55
-19,-71,-52,43,18,-64,14,-91,-169,-176,-244,-73
-37,-77,-40,55,0,-58,8,-103,-169,-182,-244,-73
-43,-71,-28,55,-6,-52,8,-97,-163,-170,-238,-67
-25,-65,-40,43,6,-52,8,-109,-169,-176,-238,-79
-13,-65,-52,37,18,-58,2,-109,-163,-182,-244,-79
-25,-65,-40,43,6,-52,8,-109,-163,-176,-238,-79
-25,-65,-40,43,6,-52,14,-103,-157,-176,-238,-79
-43,-71,-28,55,-6,-52,20,-97,-151,-170,-232,-73
-31,-71,-40,49,6,-58,20,-103,-151,-176,-238,-79
-7,-59,-52,31,24,-58,14,-103,-145,-182,-244,-79
11,-47,-58,19,35,-52,14,-103,-139,-182,-250,-79
17,-41,-58,7,35,-52,8,-115,-139,-188,-256,-85
17,-41,-58,7,35,-52,14,-109,-139,-188,-256,-85
11,-41,-52,13,30,-46,14,-109,-139,-188,-250,-79
5,-41,-46,13,24,-46,14,-115,-145,-188,-256,-79
-13,-47,-34,31,12,-40,20,-115,-139,-182,-250,-79
-19,-47,-28,31,6,-40,20,-115,-145,-182,-256,-85
-31,-59,-28,43,0,-46,26,-115,-139,-182,-256,-91
-37,-71,-34,55,0,-52,20,-121,-145,-176,-262,-97
-31,-71,-40,49,6,-58,20,-121,-139,-182,-262,-97
-25,-71,-46,49,12,-58,14,-127,-139,-188,-262,-103
-13,-65,-52,37,18,-58,14,-127,-139,-194,-262,-103
-1,-65,-64,31,30,-64,8,-127,-139,-200,-262,-103
11,-71,-82,31,46,-76,2,-133,-151,-212,-268,-103
-7,-71,-64,37,30,-70,8,-133,-145,-206,-268,-103
-31,-71,-40,49,6,-58,14,-127,-139,-194,-268,-91
-19,-71,-52,43,18,-64,14,-133,-145,-194,-280,-91
-25,-71,-46,49,12,-58,20,-139,-139,-194,-286,-97
-37,-71,-34,55,0,-52,26,-133,-133,-188,-286,-97
-43,-71,-28,55,-6,-52,26,-133,-127,-188,-286,-97
-25,-65,-40,43,6,-52,14,-133,-133,-194,-280,-103
-13,-65,-52,37,18,-58,14,-133,-133,-194,-280,-97
-1,-71,-70,37,35,-70,2,-139,-139,-200,-286,-109
-7,-77,-70,37,30,-76,-4,-145,-151,-206,-292,-121
-19,-83,-64,49,24,-76,-4,-145,-151,-206,-298,-121
-37,-83,-46,61,6,-64,2,-145,-157,-200,-298,-121
-31,-77,-46,49,6,-64,2,-145,-157,-206,-304,-115
-7,-65,-58,31,24,-64,2,-145,-157,-212,-304,-115
-13,-65,-52,37,18,-58,2,-145,-145,-212,-310,-115
-37,-71,-34,55,0,-52,2,-139,-139,-206,-298,-109
-43,-71,-28,55,-6,-52,8,-139,-127,-206,-298,-103
-31,-65,-34,43,0,-52,20,-133,-127,-200,-298,-103
-13,-47,-34,31,12,-40,26,-127,-115,-194,-292,-97
-13,-35,-23,25,6,-28,32,-127,-115,-188,-292,-97
-7,-29,-23,13,6,-28,32,-121,-115,-188,-292,-103
-1,-23,-23,13,12,-22,38,-121,-115,-182,-286,-103
11,-11,-23,1,18,-16,38,-115,-115,-182,-286,-103
17,-11,-28,-5,24,-22,38,-115,-121,-182,-286,-109
17,-5,-23,-11,18,-16,38,-103,-115,-176,-280,-97
11,-5,-18,-5,12,-10,50,-97,-109,-164,-274,-91
11,1,-12,-5,12,-4,50,-91,-109,-170,-274,-91
17,1,-18,-11,18,-10,50,-103,-109,-170,-274,-97
-1,-5,-6,1,0,-4,61,-103,-103,-170,-280,-97
-19,-11,6,13,-12,-4,61,-103,-109,-164,-274,-91
-25,-11,12,19,-18,1,61,-97,-109,-164,-280,-91
-37,-11,24,25,-30,6,61,-97,-109,-164,-280,-85
-25,-17,6,19,-18,-4,61,-97,-109,-164,-286,-97
-25,-17,6,19,-18,-4,56,-97,-109,-164,-292,-97
-31,-5,24,13,-30,6,61,-85,-91,-152,-286,-97
-13,1,12,7,-12,6,56,-91,-103,-146,-286,-91
5,1,-6,-5,6,-4,38,-109,-109,-146,-286,-91
17,-5,-23,-11,18,-16,26,-121,-121,-158,-286,-91
23,-5,-28,-11,24,-16,20,-121,-127,-158,-286,-85
11,7,-6,-11,6,1,14,-115,-127,-152,-280,-85
5,7,0,-11,0,1,8,-121,-133,-152,-286,-85
5,19,12,-17,-6,12,2,-115,-139,-152,-286,-85
-1,24,24,-11,-12,24,8,-109,-139,-146,-280,-79
5,29,24,-17,-6,24,8,-109,-139,-140,-280,-79
17,24,6,-23,6,12,-4,-121,-139,-146,-280,-85
29,24,-6,-29,18,6,-10,-115,-139,-152,-274,-79
29,13,-18,-23,24,-4,-4,-115,-139,-146,-268,-73
41,7,-34,-29,35,-16,-10,-115,-151,-152,-280,-73
46,1,-46,-23,46,-22,-10,-121,-163,-164,-292,-79
46,-5,-52,-23,46,-28,-4,-121,-163,-170,-298,-85
35,-11,-46,-11,40,-28,-4,-121,-169,-164,-304,-91
23,-17,-40,-5,30,-28,-4,-127,-169,-164,-310,-91
41,-23,-64,-11,52,-46,-4,-139,-187,-170,-322,-103
51,-35,-88,-5,70,-58,-10,-145,-199,-182,-334,-115
41,-47,-88,1,64,-70,-4,-145,-199,-182,-334,-109
23,-59,-82,19,52,-70,2,-145,-205,-188,-334,-109
23,-71,-94,25,58,-82,-4,-163,-217,-206,-346,-127
11,-83,-94,37,52,-88,-4,-175,-229,-212,-358,-133
-13,-89,-76,49,30,-82,2,-163,-223,-212,-364,-139
-37,-101,-64,67,12,-82,-4,-169,-229,-218,-364,-151
-37,-107,-70,73,18,-88,-4,-175,-235,-218,-370,-157
-43,-113,-70,73,12,-94,2,-169,-235,-218,-370,-157
-37,-107,-70,73,18,-88,2,-163,-235,-218,-370,-157
-31,-101,-70,61,18,-88,8,-157,-235,-218,-376,-157
-25,-95,-70,61,24,-82,8,-157,-241,-218,-376,-157
-1,-95,-94,49,46,-94,8,-163,-247,-224,-388,-163
-7,-101,-94,49,40,-100,2,-169,-253,-236,-400,-169
5,-101,-106,43,52,-106,-4,-175,-259,-242,-400,-175
11,-101,-112,43,58,-106,2,-187,-253,-236,-406,-181
17,-95,-112,37,64,-106,2,-181,-253,-242,-406,-181
29,-89,-118,25,70,-106,-4,-187,-265,-248,-412,-193
23,-95,-118,37,70,-106,-10,-193,-265,-254,-418,-199
-1,-107,-106,55,52,-106,-4,-187,-265,-248,-418,-199
-31,-107,-76,67,24,-94,2,-181,-259,-242,-412,-193
-55,-119,-64,85,6,-94,8,-175,-253,-242,-412,-193
-55,-113,-58,79,0,-88,14,-169,-253,-230,-406,-193
-49,-113,-64,79,6,-88,14,-181,-259,-230,-412,-193
-31,-119,-88,73,30,-106,2,-187,-265,-242,-418,-205
-19,-113,-94,61,35,-106,8,-181,-259,-242,-418,-205
-7,-107,-100,55,46,-106,14,-175,-259,-236,-418,-211
-13,-101,-88,55,35,-94,14,-169,-259,-242,-406,-205
-19,-101,-82,55,30,-94,14,-163,-259,-242,-406,-199
-37,-101,-64,67,12,-82,20,-157,-259,-230,-406,-199
-61,-101,-40,79,-12,-70,20,-157,-253,-224,-400,-199
-85,-101,-18,91,-36,-58,26,-151,-247,-218,-394,-193
-73,-101,-28,85,-24,-64,26,-157,-247,-218,-406,-199
-55,-101,-46,73,-6,-76,20,-163,-247,-218,-412,-211
-55,-101,-46,73,-6,-76,20,-163,-241,-212,-418,-205
-61,-107,-46,85,-6,-76,26,-151,-229,-206,-406,-205
-67,-107,-40,85,-12,-76,32,-145,-217,-206,-400,-205
-73,-107,-34,91,-18,-70,32,-139,-211,-200,-400,-205
-79,-107,-28,91,-24,-70,44,-127,-193,-194,-394,-205
-67,-107,-40,85,-12,-76,56,-91,-175,-194,-400,-223
-61,-125,-64,91,0,-94,72,-50,-133,-188,-406,-235
-67,-143,-76,103,6,-112,102,21,-73,-164,-400,-241
-67,-149,-82,103,6,-118,138,105,-3,-134,-400,-259
-61,-149,-88,103,12,-118,180,195,69,-92,-388,-271
-55,-131,-76,91,12,-106,216,279,165,-26,-352,-271
-43,-113,-70,73,12,-94,246,357,261,50,-304,-247
-37,-77,-40,55,0,-58,270,423,357,152,-232,-199
-25,-35,-12,31,-6,-22,282,483,477,278,-106,-109
11,24,12,-17,0,18,276,519,579,410,24,-7
41,89,48,-63,0,66,258,537,663,542,162,111
51,167,114,-105,-30,144,246,519,705,668,324,261
69,245,174,-153,-48,210,180,447,747,806,516,453
111,335,222,-219,-54,282,84,369,807,992,774,711
171,431,258,-297,-42,348,-28,255,879,1208,1074,1005
225,527,300,-375,-36,414,-166,75,885,1394,1362,1311
303,629,324,-459,-6,480,-340,-181,801,1508,1608,1587
387,719,330,-549,30,528,-538,-505,621,1562,1812,1821
459,827,366,-639,46,600,-736,-865,363,1532,1908,1959
465,935,468,-699,0,702,-868,-1183,87,1430,1890,1983
399,1013,612,-699,-102,816,-970,-1471,-205,1244,1752,1899
321,1025,702,-669,-186,864,-1048,-1753,-547,950,1464,1701
231,953,720,-585,-240,840,-1090,-1975,-871,608,1098,1425
147,827,678,-483,-264,756,-1120,-2137,-1195,194,630,1065
81,671,588,-375,-252,630,-1132,-2227,-1501,-278,96,633
35,491,456,-261,-210,474,-1108,-2227,-1729,-704,-364,249
11,305,294,-153,-138,300,-1042,-2155,-1855,-1034,-730,-73
-7,131,138,-63,-72,132,-958,-2011,-1873,-1232,-970,-319
-61,-11,48,37,-54,18,-862,-1843,-1813,-1304,-1096,-475
-97,-131,-34,115,-30,-82,-790,-1657,-1687,-1286,-1138,-571
-109,-221,-112,163,0,-166,-712,-1423,-1495,-1196,-1102,-607
-85,-275,-190,181,52,-232,-628,-1183,-1297,-1070,-1024,-601
-67,-311,-244,187,88,-280,-544,-967,-1111,-944,-928,-565
-55,-323,-268,187,106,-298,-472,-781,-955,-836,-850,-535
-25,-311,-286,169,130,-298,-412,-625,-817,-740,-772,-505
-1,-299,-298,151,148,-298,-346,-487,-691,-644,-700,-475
5,-293,-298,139,148,-298,-274,-361,-577,-542,-634,-445
17,-287,-304,133,160,-298,-202,-277,-493,-446,-580,-427
11,-269,-280,127,142,-274,-142,-205,-427,-374,-538,-397
-1,-257,-256,127,124,-256,-88,-157,-379,-308,-502,-379
-1,-245,-244,121,118,-244,-52,-121,-355,-272,-478,-361
5,-227,-232,109,118,-232,-22,-79,-325,-242,-454,-349
-7,-209,-202,103,94,-208,2,-50,-301,-224,-436,-337
-19,-197,-178,103,76,-190,20,-15,-277,-212,-412,-331
-13,-173,-160,91,70,-166,32,15,-247,-200,-394,-319
5,-149,-154,67,76,-154,44,27,-217,-176,-382,-319
-1,-149,-148,73,70,-148,50,27,-187,-164,-370,-319
-13,-149,-136,79,58,-142,61,33,-163,-146,-346,-319
-7,-131,-124,67,58,-130,66,33,-145,-134,-334,-313
5,-119,-124,55,64,-124,66,33,-127,-116,-322,-313
5,-107,-112,49,58,-112,72,39,-103,-104,-304,-307
-7,-95,-88,49,40,-94,78,51,-79,-86,-286,-289
-13,-83,-70,49,30,-76,90,63,-55,-74,-268,-265
-7,-71,-64,37,30,-70,96,69,-37,-68,-256,-259
5,-71,-76,31,40,-76,96,75,-27,-68,-238,-247
5,-71,-76,31,40,-76,96,81,-21,-62,-238,-247
11,-71,-82,31,46,-76,102,75,-3,-62,-226,-241
-1,-83,-82,43,40,-82,102,75,-3,-56,-226,-241
-37,-95,-58,67,12,-76,108,81,9,-38,-214,-229
-43,-89,-46,61,0,-70,120,93,27,-32,-208,-217
-19,-89,-70,49,24,-82,114,93,33,-38,-202,-217
-7,-77,-70,37,30,-76,114,99,45,-32,-190,-211
-19,-71,-52,43,18,-64,120,105,57,-14,-178,-205
-25,-71,-46,49,12,-58,120,111,69,-14,-166,-193
-7,-53,-46,25,18,-52,120,111,75,-14,-160,-193
-1,-41,-40,19,18,-40,120,117,87,-2,-154,-187
-1,-35,-34,19,18,-34,120,123,99,10,-142,-181
-1,-41,-40,19,18,-40,120,123,99,10,-142,-181
-13,-47,-34,31,12,-40,114,111,99,10,-148,-181
-37,-59,-23,49,-6,-40,120,117,105,16,-142,-175
-37,-59,-23,49,-6,-40,120,123,111,22,-130,-169
-31,-59,-28,43,0,-46,114,129,111,22,-124,-169
-43,-59,-18,49,-12,-40,126,147,117,34,-112,-163
-49,-53,-6,49,-24,-28,138,153,129,40,-100,-151
-25,-41,-18,31,-6,-28,132,153,123,45,-106,-157
-13,-41,-28,25,6,-34,126,153,123,45,-106,-157
-1,-41,-40,19,18,-40,126,159,117,45,-112,-169
5,-47,-52,19,30,-52,120,159,105,45,-112,-175
11,-41,-52,13,30,-46,114,159,99,56,-112,-175
17,-35,-52,7,35,-46,114,159,99,62,-112,-175
5,-35,-40,13,24,-40,114,159,99,68,-100,-169
-13,-41,-28,25,6,-34,114,165,99,74,-88,-169
-25,-41,-18,31,-6,-28,120,171,99,86,-88,-163
-1,-41,-40,19,18,-40,108,171,93,86,-88,-175
11,-41,-52,13,30,-46,108,177,93,86,-88,-181
5,-35,-40,13,24,-40,114,189,99,98,-82,-175
11,-29,-40,7,24,-34,120,195,105,104,-82,-175
17,-23,-40,1,30,-34,114,201,111,116,-70,-181
17,-23,-40,1,30,-34,114,201,123,122,-64,-181
11,-17,-28,1,18,-22,120,213,135,128,-58,-169
23,-17,-40,-5,30,-28,108,219,147,128,-52,-169
41,-5,-46,-23,40,-28,102,219,153,134,-46,-169
51,13,-40,-29,46,-10,114,231,177,152,-28,-151
69,19,-52,-45,58,-16,114,237,195,158,-22,-151
63,19,-46,-39,52,-10,114,249,207,176,-10,-151
69,24,-46,-45,58,-10,114,255,219,188,-4,-151
63,24,-40,-39,52,-4,114,267,231,194,-4,-145
69,24,-46,-45,58,-10,114,261,231,194,2,-145
69,24,-46,-45,58,-10,114,267,249,194,14,-139
69,35,-34,-51,52,1,120,279,267,212,19,-121
69,47,-23,-57,46,12,114,291,291,218,36,-109
63,53,-12,-51,40,24,114,303,309,236,48,-91
63,59,-6,-57,35,30,114,321,321,248,66,-85
57,53,-6,-51,35,24,120,333,339,272,78,-73
57,59,0,-57,30,30,120,345,357,284,96,-67
69,59,-12,-63,40,24,120,357,363,296,108,-61
69,47,-23,-57,46,12,120,369,381,302,120,-55
69,35,-34,-51,52,1,120,375,393,320,126,-43
69,35,-34,-51,52,1,114,387,399,320,138,-31
69,53,-18,-57,46,18,114,399,417,332,150,-19
81,71,-12,-75,46,30,114,405,435,344,162,-1
63,83,18,-69,24,54,120,423,459,368,186,11
69,95,24,-81,24,60,120,441,471,380,198,23
87,101,12,-87,40,60,120,453,483,392,216,29
99,107,6,-99,46,60,120,471,501,410,234,41
99,113,12,-99,46,66,126,489,525,428,258,52
93,113,18,-99,40,66,132,513,549,446,276,69
105,125,18,-111,46,72,138,513,555,458,288,75
123,143,18,-129,52,84,138,525,567,470,300,87
147,155,6,-147,70,84,132,531,567,482,306,93
147,161,12,-147,70,90,132,543,579,488,312,99
117,167,48,-141,35,108,138,567,603,506,342,123
93,173,78,-129,12,126,150,591,621,524,360,141
87,173,84,-123,6,132,150,609,639,536,372,153
75,167,90,-117,-6,132,144,615,651,548,390,159
93,173,78,-129,12,126,144,627,657,554,402,171
135,179,42,-153,46,114,138,639,663,566,402,171
165,191,24,-177,70,108,144,651,681,578,414,177
153,197,42,-171,58,120,150,663,693,590,432,189
135,209,72,-165,35,144,150,669,705,602,438,201
141,221,78,-177,35,150,150,675,717,614,450,207
135,233,96,-177,24,168,144,675,723,620,456,207
135,239,102,-183,18,174,144,687,729,620,462,213
135,239,102,-183,18,174,150,699,747,632,474,225
147,251,102,-195,24,180,156,711,753,638,480,231
147,257,108,-195,24,186,156,717,765,638,486,237
153,257,102,-201,30,180,162,729,777,644,492,249
141,245,102,-189,24,174,162,741,783,650,498,249
153,239,84,-195,35,162,150,729,771,650,498,249
159,233,72,-189,46,156,144,723,771,650,498,243
153,239,84,-195,35,162,144,723,777,656,498,249
153,257,102,-201,30,180,144,717,777,668,510,249
165,263,96,-213,35,180,144,717,783,668,510,255
147,269,120,-201,18,198,144,717,783,668,510,267
135,269,132,-195,6,204,144,705,777,662,510,261
147,275,126,-207,12,204,144,687,765,650,510,261
159,275,114,-213,24,198,144,663,753,638,504,261
153,275,120,-213,18,198,144,645,741,626,510,261
147,269,120,-201,18,198,138,627,729,626,510,261
141,263,120,-201,12,192,132,609,717,614,510,267
123,257,132,-183,0,198,126,585,705,602,498,261
123,263,138,-189,-6,204,120,561,693,590,498,261
129,257,126,-189,6,192,108,525,663,572,480,243
129,233,102,-177,18,168,96,489,633,542,450,225
117,215,96,-165,12,156,90,453,603,518,432,207
87,191,102,-135,-6,150,90,423,573,494,420,195
93,173,78,-129,12,126,84,387,543,464,408,177
99,167,66,-129,18,120,78,363,507,434,390,159
81,161,78,-117,6,120,78,339,489,410,378,147
63,161,96,-105,-12,132,78,321,465,392,366,141
69,149,78,-105,0,114,66,291,435,362,330,111
57,125,66,-87,0,96,61,255,393,326,300,81
41,101,60,-69,-6,78,61,225,369,302,270,63
11,95,84,-51,-36,90,66,213,357,284,258,57
11,71,60,-39,-24,66,61,177,321,248,228,35
35,65,30,-45,6,48,50,141,291,212,198,17
41,65,24,-51,12,42,44,123,267,194,180,-1
41,53,12,-45,18,30,44,105,243,164,168,-13
46,41,-6,-39,30,18,32,81,219,128,150,-37
35,29,-6,-29,24,12,38,69,201,110,138,-55
17,24,6,-23,6,12,38,51,171,86,120,-73
-13,13,24,1,-18,18,44,39,159,68,102,-85
-25,7,30,7,-30,18,44,27,147,56,78,-103
-25,-5,18,13,-24,6,44,9,129,45,54,-121
-49,-17,30,31,-42,6,44,3,117,34,42,-127
-31,-23,6,25,-18,-10,38,-9,99,10,24,-139
-25,-23,0,25,-12,-10,44,-21,87,-2,19,-151
-25,-29,-6,25,-12,-16,50,-21,81,-14,14,-151
-43,-35,6,37,-24,-16,50,-33,69,-26,14,-151
-25,-47,-23,37,0,-34,44,-45,57,-44,2,-169
-37,-47,-12,43,-12,-28,38,-50,45,-50,2,-169
-25,-53,-28,37,0,-40,32,-61,33,-62,-10,-175
-37,-65,-28,49,-6,-46,26,-67,33,-74,-22,-187
-43,-71,-28,55,-6,-52,26,-79,21,-74,-28,-193
-43,-71,-28,55,-6,-52,26,-85,15,-86,-34,-199
-73,-77,-6,73,-36,-40,26,-85,9,-98,-40,-199
-73,-89,-18,79,-30,-52,26,-91,-3,-104,-46,-199
-67,-89,-23,73,-24,-58,26,-97,-9,-110,-46,-205
-61,-89,-28,73,-18,-58,32,-97,-9,-104,-52,-205
-61,-89,-28,73,-18,-58,32,-91,-9,-104,-46,-205
-61,-83,-23,73,-18,-52,44,-91,-3,-98,-34,-199
-55,-71,-18,61,-18,-46,50,-91,-3,-98,-34,-199
-55,-71,-18,61,-18,-46,56,-91,3,-98,-34,-199
-73,-71,0,73,-36,-34,61,-85,3,-98,-28,-199
-97,-83,12,91,-54,-34,66,-79,3,-98,-28,-199
-91,-83,6,85,-48,-40,61,-79,-9,-104,-34,-211
-61,-77,-18,67,-24,-46,56,-85,-15,-116,-40,-217
-61,-77,-18,67,-24,-46,44,-91,-15,-116,-52,-223
-73,-89,-18,79,-30,-52,38,-97,-15,-116,-46,-217
-79,-89,-12,79,-36,-52,38,-97,-9,-116,-40,-211
-79,-95,-18,85,-30,-58,32,-103,-9,-116,-40,-211
-79,-95,-18,85,-30,-58,32,-109,-3,-122,-34,-211
-67,-83,-18,73,-24,-52,44,-103,3,-116,-28,-199
-61,-77,-18,67,-24,-46,44,-103,9,-116,-28,-199
-49,-77,-28,61,-12,-52,38,-109,3,-122,-34,-205
-49,-71,-23,61,-12,-46,38,-103,3,-122,-34,-205
-49,-59,-12,55,-18,-34,44,-85,15,-116,-28,-193
-61,-59,0,61,-30,-28,44,-79,21,-110,-22,-187
-49,-71,-23,61,-12,-46,38,-91,9,-122,-28,-193
-49,-71,-23,61,-12,-46,32,-103,9,-128,-28,-193
-55,-83,-28,67,-12,-58,32,-109,3,-122,-28,-193
-49,-83,-34,67,-6,-58,26,-121,-3,-140,-34,-205
-61,-83,-23,73,-18,-52,26,-115,3,-140,-28,-205
-49,-77,-28,61,-12,-52,26,-115,3,-134,-34,-211
-31,-71,-40,49,6,-58,26,-115,3,-128,-34,-205
-31,-71,-40,49,6,-58,32,-115,3,-128,-28,-199
-37,-77,-40,55,0,-58,32,-103,3,-122,-22,-193
-49,-71,-23,61,-12,-46,38,-103,3,-122,-22,-187
-37,-71,-34,55,0,-52,26,-103,-3,-128,-16,-193
-31,-71,-40,49,6,-58,20,-103,-3,-134,-22,-187
-43,-65,-23,49,-12,-46,20,-109,-3,-122,-22,-181
-49,-71,-23,61,-12,-46,20,-109,-3,-122,-16,-187
-31,-65,-34,43,0,-52,20,-103,-3,-128,-16,-181
-19,-59,-40,37,12,-52,20,-97,-3,-122,-10,-175
-19,-59,-40,37,12,-52,20,-97,-3,-122,-4,-175
-37,-65,-28,49,-6,-46,20,-91,-9,-122,-4,-169
-37,-71,-34,55,0,-52,20,-85,-15,-116,-4,-163
-31,-59,-28,43,0,-46,14,-91,-21,-110,-4,-169
-25,-53,-28,37,0,-40,14,-85,-21,-116,-10,-169
-25,-47,-23,37,0,-34,26,-79,-21,-116,-4,-163
-43,-41,0,37,-24,-22,32,-73,-9,-110,2,-163
-55,-47,6,49,-30,-22,32,-79,-9,-110,2,-163
-73,-59,12,67,-42,-22,38,-67,-3,-110,2,-163
-91,-71,18,79,-54,-28,38,-67,9,-104,8,-163
-97,-89,6,91,-54,-40,32,-67,3,-104,8,-169
-73,-83,-12,79,-30,-46,20,-73,-3,-110,2,-175
-43,-59,-18,49,-12,-40,26,-67,-3,-98,2,-169
-37,-47,-12,43,-12,-28,32,-61,3,-86,14,-163
-49,-35,12,43,-30,-10,38,-50,3,-80,19,-163
-61,-35,24,49,-42,-4,50,-45,15,-74,19,-151
-43,-35,6,37,-24,-16,44,-50,3,-86,19,-169
-31,-35,-6,31,-12,-22,44,-50,-3,-86,14,-169
-31,-35,-6,31,-12,-22,38,-50,-9,-92,8,-175
-37,-35,0,37,-18,-16,38,-50,-9,-86,19,-163
-49,-41,6,43,-30,-16,38,-50,-15,-80,19,-169
-49,-47,0,49,-24,-22,38,-50,-21,-86,19,-163
-43,-53,-12,43,-18,-34,38,-45,-27,-86,24,-163
-37,-41,-6,37,-18,-22,44,-45,-27,-80,24,-157
-31,-41,-12,31,-12,-28,38,-45,-32,-86,24,-169
-25,-35,-12,31,-6,-22,44,-45,-27,-80,30,-169
-43,-35,6,37,-24,-16,50,-33,-27,-80,36,-157
-19,-35,-18,25,0,-28,44,-39,-37,-80,24,-169
-1,-41,-40,19,18,-40,38,-45,-43,-86,19,-169
-1,-47,-46,25,24,-46,32,-50,-61,-98,14,-175
-25,-59,-34,43,6,-46,32,-50,-67,-86,14,-181
-25,-59,-34,43,6,-46,26,-50,-79,-92,8,-175
-13,-59,-46,37,18,-52,20,-55,-85,-92,8,-181
-13,-53,-40,31,12,-46,20,-55,-85,-98,2,-187
-25,-41,-18,31,-6,-28,32,-50,-73,-86,14,-175
-31,-41,-12,31,-12,-28,32,-45,-67,-86,14,-169
-37,-47,-12,43,-12,-28,32,-45,-67,-98,8,-169
-43,-47,-6,43,-18,-28,38,-45,-73,-98,8,-169
-37,-41,-6,37,-18,-22,38,-45,-73,-98,2,-169
-25,-35,-12,31,-6,-22,38,-39,-79,-98,2,-169
-31,-29,0,25,-18,-16,44,-39,-79,-92,8,-163
-43,-29,12,31,-30,-10,44,-33,-79,-86,8,-163
-55,-41,12,43,-36,-16,44,-39,-85,-92,8,-157
-49,-47,0,49,-24,-22,38,-45,-85,-98,2,-163
-43,-41,0,37,-24,-22,38,-45,-85,-104,8,-157
-43,-47,-6,43,-18,-28,38,-50,-73,-104,8,-157
-49,-53,-6,49,-24,-28,38,-50,-73,-104,8,-157
-31,-59,-28,43,0,-46,26,-61,-79,-122,-4,-163
-37,-59,-23,49,-6,-40,26,-67,-79,-122,-4,-169
-61,-53,6,55,-36,-22,32,-61,-73,-116,-4,-163
-49,-47,0,49,-24,-22,32,-67,-73,-128,-4,-169
-37,-53,-18,43,-12,-34,26,-73,-79,-134,-16,-175
-43,-59,-18,49,-12,-40,26,-73,-73,-134,-16,-169
-55,-71,-18,61,-18,-46,26,-67,-79,-140,-16,-163
-31,-65,-34,43,0,-52,20,-73,-79,-146,-22,-169
-19,-65,-46,37,12,-58,20,-73,-73,-146,-28,-163
-31,-65,-34,43,0,-52,26,-73,-67,-140,-22,-163
-25,-53,-28,37,0,-40,32,-79,-61,-134,-16,-151
-37,-47,-12,43,-12,-28,44,-73,-49,-134,-16,-151
-43,-47,-6,43,-18,-28,44,-79,-49,-134,-16,-157
-55,-53,0,49,-30,-28,38,-85,-55,-140,-22,-163
-49,-47,0,49,-24,-22,38,-85,-49,-146,-22,-163
-49,-41,6,43,-30,-16,38,-73,-43,-140,-10,-157
-49,-41,6,43,-30,-16,38,-73,-43,-140,-10,-151
-43,-47,-6,43,-18,-28,32,-73,-43,-140,-10,-151
-49,-47,0,49,-24,-22,38,-73,-43,-140,-10,-145
-31,-53,-23,37,-6,-40,32,-85,-55,-152,-16,-151
-19,-53,-34,31,6,-46,26,-97,-61,-158,-28,-157
-13,-59,-46,37,18,-52,20,-109,-67,-170,-34,-163
-13,-59,-46,37,18,-52,20,-109,-67,-176,-28,-169
-43,-65,-23,49,-12,-46,32,-97,-55,-164,-22,-157
-61,-65,-6,61,-30,-34,32,-91,-43,-152,-22,-157
-49,-65,-18,55,-18,-40,32,-91,-43,-152,-16,-151
-49,-65,-18,55,-18,-40,26,-91,-43,-152,-28,-157
-49,-59,-12,55,-18,-34,26,-85,-43,-146,-28,-145
-61,-59,0,61,-30,-28,32,-85,-37,-146,-28,-139
-85,-65,18,73,-54,-22,38,-85,-32,-146,-22,-133
-85,-71,12,79,-48,-28,38,-91,-49,-158,-34,-139
-97,-71,24,85,-60,-22,44,-91,-43,-152,-34,-139
-97,-65,30,79,-66,-16,44,-91,-43,-158,-28,-139
-67,-65,0,61,-36,-34,32,-103,-49,-176,-46,-163
-31,-71,-40,49,6,-58,20,-115,-61,-194,-58,-175
-37,-71,-34,55,0,-52,26,-103,-55,-182,-46,-169
-55,-71,-18,61,-18,-46,32,-97,-43,-176,-46,-163
-49,-71,-23,61,-12,-46,32,-91,-43,-176,-46,-157
-43,-65,-23,49,-12,-46,26,-97,-43,-170,-40,-157
-49,-59,-12,55,-18,-34,26,-97,-43,-158,-40,-151
-55,-59,-6,55,-24,-34,32,-97,-43,-164,-40,-145
-61,-53,6,55,-36,-22,32,-91,-43,-164,-34,-151
-67,-53,12,55,-42,-22,38,-91,-37,-158,-28,-145
-73,-59,12,67,-42,-22,38,-91,-43,-164,-34,-151
-79,-77,0,73,-42,-40,26,-97,-49,-170,-34,-157
-85,-77,6,79,-48,-34,38,-85,-43,-164,-28,-151
-79,-71,6,73,-42,-34,38,-85,-43,-158,-34,-145
-85,-71,12,79,-48,-28,38,-85,-49,-152,-28,-139
-79,-71,6,73,-42,-34,38,-91,-49,-152,-28,-145
-73,-59,12,67,-42,-22,44,-85,-43,-152,-28,-145
-55,-41,12,43,-36,-16,44,-79,-43,-146,-28,-139
-43,-41,0,37,-24,-22,50,-85,-49,-152,-28,-145
-55,-47,6,49,-30,-22,61,-79,-43,-152,-28,-145
-55,-41,12,43,-36,-16,66,-79,-43,-158,-28,-145
-55,-41,12,43,-36,-16,66,-73,-37,-152,-28,-145
-67,-41,24,49,-48,-10,72,-61,-37,-146,-28,-145
-67,-29,36,43,-54,1,78,-50,-32,-140,-22,-139
-55,-29,24,37,-42,-4,72,-55,-37,-140,-22,-139
-37,-29,6,31,-24,-10,66,-67,-49,-140,-28,-145
-37,-11,24,25,-30,6,78,-55,-55,-128,-16,-139
-37,1,36,19,-36,18,84,-55,-55,-122,-16,-133
-43,1,42,19,-42,18,90,-50,-49,-110,-16,-133
-43,-5,36,19,-42,12,90,-50,-55,-116,-16,-133
-49,-17,30,31,-42,6,84,-55,-61,-128,-22,-139
-55,-11,42,31,-48,12,90,-50,-49,-128,-16,-133
-31,-11,18,19,-24,1,84,-50,-43,-128,-16,-139
-19,-5,12,7,-18,1,78,-55,-49,-134,-16,-139
-25,-11,12,19,-18,1,78,-55,-49,-134,-16,-133
-37,-11,24,25,-30,6,78,-55,-55,-128,-16,-133
-43,-11,30,25,-36,6,66,-61,-67,-122,-10,-133
-43,-11,30,25,-36,6,56,-73,-79,-128,-16,-139
-49,-11,36,31,-42,12,50,-79,-85,-128,-16,-133
-55,-17,36,31,-48,6,38,-79,-79,-128,-10,-127
-31,-11,18,19,-24,1,20,-91,-85,-134,-16,-127
-13,-11,0,13,-6,-4,14,-91,-79,-134,-16,-121
-37,-11,24,25,-30,6,20,-85,-73,-128,-4,-109
-31,-11,18,19,-24,1,20,-85,-73,-134,-4,-109
-31,-5,24,13,-30,6,14,-85,-79,-134,-4,-115
-13,1,12,7,-12,6,8,-97,-91,-134,-4,-121
5,13,6,-11,0,6,8,-85,-85,-128,2,-115
17,19,0,-23,6,6,8,-79,-79,-116,2,-109
23,19,-6,-23,12,6,8,-79,-79,-116,8,-109
29,7,-23,-23,24,-10,14,-79,-79,-116,2,-109
46,-5,-52,-23,46,-28,8,-85,-85,-128,-16,-115
57,-17,-76,-23,64,-46,2,-97,-97,-146,-22,-127
41,-23,-64,-11,52,-46,14,-97,-97,-146,-28,-121
23,-41,-64,7,40,-52,14,-103,-103,-164,-34,-127
11,-53,-64,19,35,-58,8,-115,-115,-176,-40,-133
5,-59,-64,25,35,-64,8,-121,-121,-176,-46,-139
-13,-59,-46,37,18,-52,8,-121,-121,-182,-46,-145
-31,-71,-40,49,6,-58,2,-127,-133,-182,-52,-157
-31,-83,-52,55,12,-70,2,-127,-133,-188,-58,-163
-37,-77,-40,55,0,-58,20,-115,-127,-176,-58,-157
-37,-77,-40,55,0,-58,26,-115,-127,-176,-58,-157
-31,-77,-46,49,6,-64,26,-115,-127,-182,-64,-157
-43,-77,-34,55,-6,-58,32,-115,-127,-182,-58,-157
-55,-71,-18,61,-18,-46,38,-115,-121,-176,-52,-151
-49,-71,-23,61,-12,-46,32,-127,-127,-182,-58,-157
-61,-77,-18,67,-24,-46,32,-133,-133,-188,-64,-163
-49,-83,-34,67,-6,-58,26,-139,-139,-194,-70,-175
-43,-89,-46,61,0,-70,20,-145,-151,-200,-76,-181
-49,-95,-46,73,0,-70,20,-139,-151,-200,-76,-175
-61,-101,-40,79,-12,-70,20,-139,-151,-200,-76,-175
-55,-107,-52,79,0,-82,14,-139,-157,-212,-88,-181
-73,-119,-46,97,-12,-82,8,-139,-163,-212,-94,-187
-79,-113,-34,91,-24,-76,8,-139,-169,-218,-100,-181
-67,-107,-40,85,-12,-76,2,-145,-175,-230,-112,-187
-79,-101,-23,85,-30,-64,8,-145,-169,-218,-100,-181
-85,-95,-12,91,-36,-52,8,-145,-163,-212,-100,-181
-79,-101,-23,85,-30,-64,8,-145,-163,-212,-106,-181
-67,-107,-40,85,-12,-76,2,-145,-163,-212,-100,-181
-79,-107,-28,91,-24,-70,20,-133,-157,-200,-88,-169
-73,-113,-40,91,-18,-76,32,-121,-151,-188,-82,-163
-37,-107,-70,73,18,-88,32,-133,-169,-206,-94,-175
-37,-107,-70,73,18,-88,32,-127,-169,-206,-94,-175
-31,-107,-76,67,24,-94,26,-133,-175,-212,-106,-181
-49,-107,-58,79,6,-82,26,-133,-175,-212,-106,-181
-67,-107,-40,85,-12,-76,26,-127,-169,-212,-106,-181
-91,-119,-28,103,-30,-76,26,-127,-157,-200,-100,-169
-91,-119,-28,103,-30,-76,26,-127,-151,-194,-94,-169
-79,-119,-40,97,-18,-82,26,-127,-151,-188,-94,-169
-79,-119,-40,97,-18,-82,32,-121,-145,-182,-88,-163
-61,-113,-52,85,-6,-82,26,-121,-145,-182,-82,-163
-55,-101,-46,73,-6,-76,32,-115,-139,-170,-82,-157
-37,-95,-58,67,12,-76,44,-103,-127,-170,-82,-163
-49,-101,-52,73,0,-76,50,-85,-109,-176,-76,-175
-67,-125,-58,91,-6,-94,61,-55,-79,-176,-88,-193
-79,-143,-64,109,-6,-106,78,-3,-43,-170,-100,-211
-79,-143,-64,109,-6,-106,114,75,15,-134,-82,-217
-79,-131,-52,103,-12,-94,156,171,99,-86,-64,-217
-79,-119,-40,97,-18,-82,192,261,189,-32,-40,-217
-73,-101,-28,85,-24,-64,228,345,285,40,2,-199
-49,-83,-34,67,-6,-58,258,417,375,116,42,-175
-31,-47,-18,37,-6,-34,282,483,483,218,132,-109
-7,-5,0,1,-6,-4,294,537,597,356,264,-7
23,53,30,-34,0,42,288,567,705,494,408,111
51,125,72,-81,-6,102,264,573,777,626,558,243
69,203,132,-135,-30,168,216,525,819,752,732,417
93,287,192,-189,-48,240,138,447,861,902,960,645
159,383,222,-267,-30,306,26,351,921,1100,1242,927
225,485,258,-351,-12,372,-106,213,963,1310,1548,1239
297,587,288,-441,6,438,-250,3,939,1466,1824,1539
375,677,300,-519,40,492,-418,-259,825,1556,2046,1809
423,773,348,-591,40,564,-604,-583,639,1592,2208,2019
405,869,462,-633,-24,666,-748,-907,399,1550,2268,2115
345,959,612,-651,-132,786,-856,-1195,135,1430,2202,2091
309,1025,714,-663,-198,870,-958,-1489,-175,1196,1992,1941
273,1007,732,-639,-228,870,-1024,-1765,-529,866,1644,1683
219,935,714,-573,-246,828,-1072,-1975,-871,500,1242,1365
129,803,672,-465,-270,738,-1078,-2095,-1189,56,738,963
57,647,588,-351,-264,618,-1066,-2143,-1471,-410,228,567
11,473,462,-237,-222,468,-1018,-2107,-1657,-788,-178,219
-25,293,318,-129,-168,306,-934,-2005,-1735,-1064,-496,-55
-67,119,186,-29,-126,150,-838,-1855,-1729,-1214,-694,-271
-85,-23,60,55,-72,18,-772,-1705,-1657,-1268,-802,-409
-85,-137,-52,109,-18,-94,-718,-1513,-1519,-1232,-826,-493
-73,-221,-148,145,35,-184,-658,-1285,-1321,-1118,-766,-505
-79,-269,-190,169,52,-232,-580,-1045,-1111,-974,-676,-469
-73,-293,-220,181,70,-256,-502,-835,-931,-854,-580,-421
-61,-305,-244,181,88,-274,-430,-667,-787,-746,-496,-379
-31,-293,-262,157,112,-280,-382,-535,-667,-662,-430,-349
-19,-287,-268,151,124,-280,-310,-409,-553,-578,-364,-307
-13,-275,-262,145,124,-268,-232,-301,-445,-482,-310,-271
11,-263,-274,127,142,-268,-160,-229,-367,-404,-268,-247
11,-245,-256,115,130,-250,-112,-175,-301,-338,-226,-229
-1,-233,-232,115,112,-232,-64,-115,-253,-278,-184,-199
-7,-215,-208,109,100,-214,-34,-67,-217,-230,-160,-187
-1,-191,-190,97,94,-190,-16,-39,-193,-200,-130,-175
17,-167,-184,73,100,-178,-4,-3,-175,-182,-124,-175
17,-155,-172,67,94,-166,14,21,-157,-170,-112,-163
5,-143,-148,67,76,-148,32,39,-139,-158,-100,-157
-1,-131,-130,67,64,-130,50,51,-103,-140,-94,-139
-7,-119,-112,61,52,-118,61,57,-73,-122,-82,-127
-13,-107,-94,61,40,-100,72,51,-43,-98,-58,-115
-7,-101,-94,49,40,-100,72,45,-27,-86,-58,-115
-31,-107,-76,67,24,-94,78,51,-9,-68,-40,-109
-43,-101,-58,67,6,-82,78,63,3,-56,-28,-103
-61,-89,-28,73,-18,-58,78,81,21,-50,-16,-97
-49,-71,-23,61,-12,-46,84,99,33,-44,2,-85
-31,-65,-34,43,0,-52,90,111,45,-38,8,-79
-31,-65,-34,43,0,-52,96,111,51,-32,14,-73
-31,-65,-34,43,0,-52,96,111,57,-32,19,-67
-25,-65,-40,43,6,-52,96,105,63,-32,19,-55
-13,-53,-40,31,12,-46,96,99,63,-32,19,-61
-19,-53,-34,31,6,-46,96,99,69,-26,19,-55
-43,-53,-12,43,-18,-34,102,105,75,-26,24,-55
-25,-53,-28,37,0,-40,96,99,75,-26,24,-55
-19,-47,-28,31,6,-40,102,105,81,-14,30,-49
-19,-47,-28,31,6,-40,102,111,99,-2,36,-37
-7,-53,-46,25,18,-52,102,111,105,4,48,-31
-13,-53,-40,31,12,-46,102,123,111,10,54,-13
-13,-47,-34,31,12,-40,108,129,123,16,66,-7
-7,-41,-34,19,12,-40,102,129,129,22,66,-7
5,-41,-46,13,24,-46,102,129,135,22,66,-1
5,-41,-46,13,24,-46,96,123,141,22,66,-7
-1,-47,-46,25,24,-46,96,117,141,28,66,-7
-25,-47,-23,37,0,-34,96,123,141,34,78,-7
-49,-47,0,49,-24,-22,102,135,147,40,84,5
-37,-35,0,37,-18,-16,96,135,141,40,84,11
-7,-23,-18,13,6,-22,90,135,141,40,84,11
17,-17,-34,-5,24,-28,90,141,135,45,84,11
17,-23,-40,1,30,-34,96,147,147,50,96,23
11,-23,-34,7,24,-28,102,153,153,56,102,35
5,-29,-34,7,18,-34,108,153,147,68,102,41
-7,-23,-18,13,6,-22,108,159,153,80,114,47
11,-23,-34,7,24,-28,108,165,153,86,120,52
11,-17,-28,1,18,-22,102,171,153,92,120,52
11,-23,-34,7,24,-28,96,171,147,92,120,52
11,-17,-28,1,18,-22,96,177,153,98,120,52
-1,-17,-18,7,6,-16,102,189,159,110,132,57
-13,-11,0,13,-6,-4,102,195,165,116,132,63
-19,-5,12,7,-18,1,102,195,171,122,132,69
-7,1,6,1,-6,1,102,207,177,128,132,69
11,7,-6,-11,6,1,96,201,177,122,132,69
17,13,-6,-17,12,1,102,207,189,134,144,81
23,13,-12,-17,18,1,102,213,201,146,144,87
29,19,-12,-29,18,1,102,219,213,158,144,87
35,24,-12,-29,24,6,96,225,225,164,156,93
41,29,-12,-34,30,6,96,231,237,176,168,105
35,35,0,-34,18,18,102,249,255,194,180,117
23,41,18,-29,6,30,102,261,261,206,192,123
35,35,0,-34,18,18,96,267,267,206,192,123
41,29,-12,-34,30,6,96,267,273,212,186,117
29,29,0,-29,18,12,102,279,285,230,192,129
46,35,-12,-39,30,12,96,279,297,236,192,129
69,47,-23,-57,46,12,96,279,309,236,198,135
81,59,-23,-69,52,18,96,291,321,248,216,147
75,59,-18,-63,46,24,96,297,333,266,228,153
51,59,6,-51,24,36,108,321,351,284,246,171
35,65,30,-45,6,48,108,333,363,296,270,177
35,59,24,-45,6,42,102,339,363,308,276,177
46,53,6,-45,24,30,96,345,369,314,282,171
51,53,0,-45,30,30,90,345,375,320,276,177
63,59,-6,-57,35,30,90,351,381,326,282,177
69,71,0,-69,35,36,90,369,393,344,288,189
75,89,12,-75,35,54,102,387,417,362,312,213
99,113,12,-99,46,66,108,405,429,380,330,231
117,125,6,-117,58,66,108,423,447,392,348,249
123,137,12,-123,58,78,108,435,465,410,366,261
129,137,6,-129,64,72,102,441,471,416,366,261
123,137,12,-123,58,78,102,447,483,428,384,267
105,143,36,-123,35,90,108,465,501,446,396,285
99,143,42,-117,30,96,102,477,513,464,402,291
93,143,48,-117,24,96,102,483,519,470,408,291
75,149,72,-105,6,114,114,495,537,488,426,309
99,167,66,-129,18,120,120,513,549,500,444,327
129,179,48,-153,40,114,120,525,555,506,450,333
129,185,54,-153,40,120,120,543,573,524,474,345
141,185,42,-159,52,114,114,549,585,530,480,351
153,191,36,-171,58,114,114,561,603,548,498,363
141,197,54,-165,46,126,120,579,621,560,510,369
123,197,72,-153,30,138,120,591,633,572,522,387
129,203,72,-165,30,138,126,597,645,584,522,393
141,215,72,-177,35,144,126,603,651,602,528,405
159,227,66,-189,46,150,132,609,663,608,540,417
165,227,60,-195,52,144,132,621,675,614,546,423
165,221,54,-189,58,138,132,627,675,620,552,423
153,221,66,-183,46,144,132,633,681,626,558,423
153,221,66,-183,46,144,138,645,693,626,564,423
165,233,66,-195,52,150,132,657,699,632,564,423
177,239,60,-207,58,150,126,663,705,632,564,429
153,245,90,-195,35,168,138,675,717,644,576,435
123,233,108,-171,12,174,138,681,723,650,576,441
123,233,108,-171,12,174,138,681,723,656,576,441
147,251,102,-195,24,180,138,687,729,662,576,447
165,269,102,-213,35,186,144,693,741,674,594,453
183,275,90,-225,46,186,144,699,741,674,594,453
183,275,90,-225,46,186,144,699,747,668,594,453
183,269,84,-219,52,180,138,687,741,662,588,453
189,263,72,-225,58,168,138,675,741,662,582,447
189,263,72,-225,58,168,138,669,741,668,582,453
177,263,84,-219,46,174,144,657,741,662,582,453
177,269,90,-219,46,180,138,639,729,656,582,447
189,269,78,-225,58,174,126,615,711,644,576,441
189,263,72,-225,58,168,120,597,693,632,570,435
177,251,72,-213,52,162,108,585,681,626,564,435
183,239,54,-207,64,150,96,549,645,602,546,417
165,227,60,-195,52,144,84,525,621,578,528,411
123,221,96,-165,18,162,90,507,609,566,522,405
117,221,102,-165,12,162,84,477,585,542,504,393
