,,,,,,,,,,,
2019-09-01 15:34:43,,,,,,,,,,,
,,,,,,,,,,,
I,II,III,aVR,aVL,aVF,V1,V2,V3,V4,V5,V6
-48,-57,-3,55,-10,-23,75,218,208,177,122,1491
59,-15,-38,-10,43,-23,75,218,226,183,140,1449
77,-4,-56,-28,67,-23,75,212,226,183,146,1407
77,-4,-62,-28,73,-29,69,194,220,171,146,1371
77,-9,-74,-28,73,-41,63,164,196,153,140,1341
83,-15,-86,-28,85,-53,57,146,172,129,128,1311
89,-21,-98,-28,91,-65,57,134,154,111,116,1299
89,-27,-104,-28,91,-71,57,122,142,99,104,1281
89,-27,-110,-28,97,-77,57,110,124,87,92,1257
89,-39,-122,-28,97,-83,51,98,106,75,80,1233
77,-51,-122,-16,97,-89,45,80,88,63,68,1203
65,-63,-122,-4,97,-89,45,62,64,51,50,1173
53,-75,-122,7,97,-95,39,44,46,27,32,1155
41,-99,-122,25,91,-101,33,26,28,9,14,1125
35,-111,-122,37,91,-107,33,14,10,-2,2,1107
35,-111,-122,37,91,-113,33,8,4,-8,-3,1095
35,-111,-128,37,91,-113,33,2,-1,-14,-9,1089
35,-111,-134,37,91,-125,33,-3,-13,-20,-15,1077
29,-123,-146,49,91,-137,33,-9,-25,-32,-21,1059
17,-129,-146,55,91,-143,27,-15,-31,-38,-27,1047
11,-129,-146,55,91,-143,27,-15,-37,-38,-27,1035
11,-129,-152,55,91,-143,27,-15,-37,-44,-27,1023
17,-129,-158,55,97,-143,27,-21,-43,-44,-33,1011
17,-135,-158,55,97,-149,27,-33,-49,-50,-39,993
11,-147,-158,67,97,-155,27,-39,-55,-56,-51,969
11,-147,-158,67,97,-155,27,-39,-61,-56,-57,963
11,-147,-158,67,97,-155,27,-39,-61,-56,-57,951
5,-147,-158,67,97,-155,27,-39,-61,-56,-57,939
-6,-153,-158,73,85,-155,27,-39,-67,-56,-57,933
-12,-159,-158,79,79,-155,27,-39,-67,-56,-57,921
-12,-159,-158,79,79,-155,27,-39,-67,-56,-57,915
-12,-159,-158,79,79,-155,27,-39,-67,-56,-57,909
-6,-159,-158,79,79,-155,27,-39,-67,-56,-57,897
5,-159,-158,73,79,-155,27,-39,-67,-56,-57,885
5,-153,-158,73,79,-155,27,-39,-67,-56,-57,873
5,-153,-158,73,79,-155,21,-39,-67,-56,-57,861
5,-153,-158,73,79,-155,15,-45,-73,-62,-63,849
5,-153,-158,73,79,-155,15,-45,-73,-62,-63,837
5,-153,-158,73,79,-155,15,-45,-73,-62,-63,825
5,-153,-158,73,79,-155,15,-45,-73,-62,-63,819
5,-153,-158,73,79,-155,15,-45,-73,-62,-63,813
5,-153,-158,73,79,-155,15,-45,-73,-62,-63,801
5,-153,-158,73,79,-155,15,-45,-73,-62,-63,789
-6,-159,-158,79,73,-155,15,-45,-73,-62,-63,777
-12,-165,-158,85,73,-155,15,-45,-73,-62,-63,765
-12,-165,-158,85,73,-155,15,-45,-73,-62,-63,759
-6,-165,-158,85,73,-155,15,-45,-73,-62,-63,753
-6,-165,-158,85,73,-155,15,-45,-73,-68,-63,741
-6,-165,-158,79,73,-155,15,-45,-73,-68,-63,735
-6,-165,-158,79,73,-155,15,-45,-79,-68,-63,723
-6,-165,-158,79,73,-155,15,-51,-79,-74,-63,711
-1,-165,-158,79,79,-155,15,-51,-79,-74,-63,699
11,-159,-158,73,79,-155,15,-51,-79,-74,-63,687
11,-153,-152,73,79,-155,15,-51,-79,-74,-63,681
11,-147,-146,73,79,-149,15,-51,-79,-68,-63,675
11,-141,-146,73,79,-149,15,-51,-79,-68,-63,669
11,-141,-146,73,79,-149,15,-51,-79,-68,-63,657
11,-141,-146,73,79,-149,15,-51,-79,-68,-63,645
11,-141,-140,73,79,-149,15,-51,-79,-68,-63,633
11,-141,-140,73,79,-149,15,-45,-79,-68,-63,627
11,-141,-140,73,79,-149,15,-45,-79,-68,-63,621
11,-141,-140,73,79,-143,15,-45,-79,-68,-63,603
11,-141,-140,73,79,-143,15,-45,-79,-68,-63,579
11,-141,-140,67,79,-143,21,-39,-79,-68,-63,561
11,-141,-140,67,79,-143,21,-39,-79,-68,-63,543
11,-141,-140,67,79,-143,21,-39,-79,-68,-63,531
-1,-147,-134,73,73,-143,21,-39,-79,-68,-63,519
-12,-147,-134,79,67,-143,21,-39,-79,-68,-63,513
-12,-147,-134,79,67,-143,21,-39,-79,-68,-63,507
-6,-141,-134,67,67,-143,21,-39,-79,-68,-63,507
-1,-135,-134,61,67,-137,21,-33,-79,-68,-63,501
-1,-135,-134,61,67,-137,21,-33,-79,-68,-63,489
-6,-147,-134,67,67,-143,21,-33,-79,-68,-63,459
-6,-153,-134,67,67,-143,21,-33,-79,-68,-63,447
-6,-153,-134,67,67,-143,21,-33,-79,-68,-63,435
-6,-147,-134,67,67,-143,21,-33,-73,-68,-63,429
-6,-141,-134,61,67,-143,21,-33,-73,-68,-63,423
-1,-135,-134,61,67,-143,21,-33,-73,-68,-63,417
-1,-135,-134,61,67,-143,21,-33,-73,-68,-63,411
-1,-135,-134,61,67,-143,21,-33,-73,-68,-63,399
-1,-135,-134,61,67,-143,21,-33,-73,-68,-63,393
-1,-135,-134,61,67,-143,21,-33,-73,-68,-63,375
-1,-135,-134,61,67,-143,21,-33,-73,-68,-63,363
-1,-135,-134,61,67,-143,21,-33,-73,-68,-63,351
-6,-135,-134,61,67,-143,21,-33,-73,-68,-63,333
-12,-141,-134,67,67,-143,21,-33,-73,-74,-63,321
-12,-147,-134,73,67,-143,21,-33,-73,-80,-63,303
-12,-153,-134,79,67,-143,21,-39,-73,-80,-69,291
-18,-159,-134,85,67,-143,21,-39,-73,-80,-69,285
-18,-159,-134,85,67,-143,21,-39,-73,-80,-69,279
-18,-153,-134,85,67,-143,21,-39,-73,-80,-69,279
-12,-147,-134,79,67,-143,21,-39,-73,-80,-69,273
-1,-141,-134,67,73,-143,21,-39,-73,-80,-69,261
5,-129,-134,55,73,-137,21,-39,-73,-80,-69,261
5,-123,-134,49,73,-131,21,-39,-73,-80,-69,249
-1,-129,-134,55,73,-131,21,-39,-73,-80,-69,237
-6,-135,-134,67,73,-137,21,-39,-73,-80,-75,225
-6,-135,-134,67,73,-137,21,-39,-73,-80,-75,213
-6,-135,-134,67,73,-137,21,-45,-73,-80,-75,201
-6,-135,-134,67,73,-137,21,-45,-73,-80,-75,189
-6,-141,-134,67,73,-137,21,-51,-73,-86,-75,177
-12,-147,-134,73,73,-143,15,-57,-73,-86,-75,165
-18,-153,-134,79,73,-143,9,-57,-79,-92,-75,153
-18,-153,-134,79,73,-143,9,-57,-79,-92,-75,147
-6,-147,-134,67,79,-143,9,-57,-79,-92,-75,141
-1,-141,-134,67,79,-143,9,-57,-79,-92,-75,135
-1,-141,-134,67,79,-143,9,-57,-85,-92,-75,123
-1,-141,-134,67,79,-143,9,-57,-91,-92,-75,117
5,-141,-134,61,79,-143,9,-57,-91,-92,-75,111
11,-141,-134,55,79,-143,9,-57,-91,-92,-75,105
11,-141,-134,55,79,-143,9,-57,-91,-92,-75,99
5,-141,-134,55,73,-143,9,-57,-91,-92,-75,93
5,-141,-134,55,73,-143,9,-57,-91,-92,-75,81
5,-141,-134,55,73,-143,9,-57,-91,-92,-75,69
5,-141,-134,55,73,-143,9,-57,-91,-92,-75,57
5,-129,-128,55,73,-131,15,-57,-91,-92,-75,57
5,-105,-116,55,73,-119,21,-51,-85,-86,-75,57
5,-93,-110,49,73,-107,27,-45,-79,-86,-75,57
11,-81,-104,37,73,-95,33,-39,-79,-86,-75,51
11,-75,-92,31,67,-89,45,-33,-73,-80,-69,51
11,-75,-86,31,61,-83,51,-27,-73,-74,-63,45
11,-75,-86,31,61,-83,57,-27,-73,-68,-63,45
17,-75,-86,31,61,-83,63,-21,-73,-68,-63,39
17,-75,-86,31,61,-83,63,-21,-73,-62,-63,33
17,-69,-86,25,61,-77,69,-15,-73,-56,-57,27
23,-63,-80,19,61,-77,75,-9,-67,-56,-51,21
23,-57,-80,13,61,-71,81,-9,-61,-56,-45,15
29,-45,-74,7,61,-65,81,-9,-55,-50,-45,15
35,-33,-74,1,61,-59,81,-9,-55,-50,-45,15
41,-21,-68,-10,61,-47,81,-9,-55,-50,-39,15
53,14,-56,-40,61,-17,81,-9,-49,-44,-33,15
59,38,-38,-52,61,6,81,-9,-43,-32,-21,15
65,50,-26,-64,61,18,75,-9,-43,-26,-15,15
71,62,-20,-70,61,24,69,-15,-43,-20,-9,15
71,62,-14,-70,61,24,57,-27,-49,-20,-9,9
71,62,-14,-70,61,24,27,-57,-61,-26,-9,3
71,62,-14,-70,61,24,9,-69,-73,-26,-9,-8
71,74,-8,-76,61,24,3,-75,-79,-26,-9,-8
89,92,-8,-88,61,30,3,-81,-79,-26,-9,-8
95,92,-8,-94,61,30,-2,-87,-85,-26,-9,-14
95,80,-14,-88,61,24,-8,-93,-91,-32,-15,-26
95,68,-20,-76,61,24,-14,-99,-91,-32,-21,-38
95,62,-20,-76,61,24,-14,-99,-91,-32,-21,-44
95,56,-26,-70,61,18,-14,-99,-91,-32,-21,-50
95,50,-38,-70,67,6,-14,-99,-91,-32,-21,-56
95,38,-56,-70,73,-17,-14,-93,-91,-32,-27,-62
89,14,-68,-58,73,-35,-14,-87,-91,-32,-27,-68
77,2,-68,-46,73,-47,-14,-87,-91,-32,-27,-80
71,-9,-74,-34,73,-53,-14,-87,-91,-38,-33,-92
65,-21,-86,-22,73,-59,-14,-87,-91,-44,-33,-98
59,-51,-92,-4,73,-71,-14,-87,-91,-50,-39,-110
47,-81,-104,7,73,-83,-14,-93,-97,-56,-51,-122
35,-93,-110,19,73,-89,-14,-93,-103,-62,-57,-134
29,-99,-110,25,73,-95,-14,-93,-103,-68,-63,-146
29,-105,-116,31,73,-101,-14,-99,-109,-80,-69,-158
23,-117,-122,43,73,-113,-20,-105,-121,-86,-81,-170
17,-129,-128,49,73,-125,-26,-111,-133,-92,-93,-182
17,-135,-134,55,73,-137,-32,-117,-139,-104,-99,-194
11,-141,-134,67,73,-143,-38,-123,-151,-116,-111,-206
-1,-153,-140,73,73,-155,-38,-135,-157,-128,-117,-218
-1,-165,-146,79,73,-161,-38,-141,-163,-134,-117,-230
-1,-171,-152,79,73,-161,-38,-141,-163,-140,-117,-242
-6,-177,-158,85,73,-161,-44,-147,-169,-140,-123,-248
-18,-183,-158,97,73,-161,-44,-147,-169,-140,-129,-254
-30,-195,-158,109,73,-167,-44,-147,-169,-140,-129,-260
-30,-201,-164,115,73,-173,-50,-147,-175,-140,-129,-266
-30,-201,-170,115,73,-179,-50,-147,-175,-146,-129,-272
-24,-201,-170,115,73,-185,-50,-147,-175,-146,-129,-278
-24,-201,-170,115,73,-191,-50,-147,-175,-146,-129,-278
-24,-201,-170,115,73,-191,-50,-147,-175,-146,-129,-284
-24,-201,-170,115,73,-191,-50,-147,-175,-146,-129,-284
-24,-201,-170,109,73,-191,-50,-147,-175,-146,-129,-290
-24,-207,-176,109,73,-191,-50,-147,-175,-146,-135,-296
-24,-213,-182,115,73,-197,-50,-153,-175,-152,-141,-302
-18,-213,-194,115,79,-203,-50,-153,-181,-152,-147,-308
-18,-213,-194,115,85,-203,-50,-153,-181,-152,-147,-314
-18,-213,-194,115,85,-203,-50,-153,-181,-152,-147,-320
-18,-213,-194,115,85,-203,-50,-153,-181,-152,-147,-320
-18,-207,-194,115,85,-203,-50,-153,-181,-152,-147,-326
-18,-207,-200,115,85,-203,-50,-153,-181,-152,-147,-332
-18,-207,-200,115,85,-203,-50,-153,-181,-152,-147,-338
-18,-213,-200,115,85,-203,-50,-153,-181,-152,-147,-338
-18,-213,-200,115,85,-203,-50,-153,-181,-152,-147,-338
-18,-213,-200,115,85,-203,-50,-153,-181,-152,-147,-344
-24,-219,-200,121,85,-203,-50,-153,-181,-158,-147,-350
-30,-231,-200,133,85,-209,-50,-153,-181,-164,-153,-356
-36,-237,-200,139,85,-209,-50,-153,-181,-164,-159,-362
-36,-237,-200,139,85,-209,-50,-159,-181,-164,-165,-362
-36,-237,-200,139,85,-209,-50,-159,-181,-164,-165,-362
-42,-237,-200,139,85,-209,-50,-159,-187,-164,-165,-362
-42,-237,-200,139,85,-209,-50,-159,-187,-164,-165,-362
-42,-231,-200,139,85,-209,-50,-159,-187,-164,-159,-362
-42,-231,-200,139,85,-209,-50,-159,-187,-164,-159,-368
-42,-231,-200,139,85,-215,-50,-153,-187,-164,-159,-380
-42,-237,-206,139,85,-221,-44,-147,-187,-164,-159,-386
-42,-249,-212,145,85,-233,-38,-135,-187,-170,-165,-392
-42,-279,-224,157,85,-245,-20,-105,-187,-182,-177,-404
-48,-303,-236,175,85,-275,27,-39,-175,-206,-213,-428
-54,-333,-248,187,85,-293,105,62,-145,-230,-243,-458
-66,-345,-260,199,85,-299,171,122,-121,-248,-261,-488
-78,-345,-260,205,85,-299,213,158,-109,-254,-273,-500
-84,-339,-248,205,79,-293,231,188,-85,-254,-273,-506
-90,-327,-218,205,67,-275,249,224,-37,-242,-261,-506
-90,-285,-182,199,61,-233,285,278,22,-200,-219,-494
-78,-219,-152,169,55,-191,345,350,106,-128,-153,-452
-54,-153,-122,115,55,-155,447,500,256,3,-33,-374
17,-63,-104,19,55,-95,507,692,484,189,122,-242
107,56,-80,-82,67,-23,567,896,742,405,302,-104
167,194,-26,-184,73,84,585,998,916,597,488,51
251,386,69,-322,73,222,567,962,976,777,674,213
389,632,177,-514,79,402,459,698,994,993,878,393
455,872,351,-664,73,606,267,308,988,1203,1094,579
461,1118,627,-778,-46,876,-8,-207,904,1443,1340,801
461,1406,957,-904,-214,1176,-284,-663,862,1725,1610,1035
455,1682,1275,-1018,-382,1470,-530,-1023,796,1941,1838,1251
437,1904,1527,-1114,-532,1698,-764,-1371,544,1983,1904,1365
401,1964,1635,-1144,-610,1794,-998,-1731,178,1929,1892,1383
335,1916,1629,-1120,-628,1776,-1208,-2061,-319,1551,1616,1323
209,1556,1413,-886,-628,1482,-1286,-2247,-811,999,1160,1005
113,1172,1101,-646,-562,1140,-1304,-2277,-1129,477,686,651
83,926,885,-502,-460,912,-1322,-2277,-1357,63,332,363
59,734,705,-406,-382,720,-1322,-2235,-1495,-224,68,153
47,506,495,-280,-262,498,-1268,-2001,-1489,-356,-75,-8
41,296,291,-178,-166,294,-1124,-1683,-1297,-374,-129,-116
29,128,147,-76,-100,132,-932,-1371,-1063,-374,-171,-200
11,-15,33,1,-52,0,-740,-1083,-859,-374,-201,-272
5,-81,-32,37,-22,-53,-554,-813,-673,-362,-207,-308
-1,-105,-62,55,-4,-83,-392,-609,-505,-308,-207,-320
-12,-135,-86,67,1,-107,-284,-447,-397,-254,-195,-332
-30,-147,-92,91,1,-119,-188,-315,-295,-200,-183,-338
-36,-153,-98,97,7,-125,-104,-195,-205,-158,-153,-338
-36,-153,-104,97,19,-131,-50,-117,-151,-128,-123,-338
-36,-153,-110,97,25,-131,-20,-75,-115,-116,-111,-338
-36,-153,-110,97,31,-131,-2,-33,-85,-104,-99,-338
-36,-153,-110,97,31,-131,21,-9,-55,-92,-87,-338
-36,-153,-110,97,31,-131,33,2,-43,-86,-81,-338
-36,-159,-110,97,31,-137,39,14,-37,-86,-81,-338
-36,-159,-116,97,37,-137,45,26,-31,-86,-81,-338
-36,-159,-116,97,37,-143,51,38,-25,-80,-81,-338
-42,-159,-116,103,37,-149,57,44,-25,-80,-81,-338
-48,-165,-116,109,37,-149,63,50,-25,-80,-81,-344
-48,-165,-122,109,37,-149,69,50,-19,-80,-81,-350
-48,-165,-128,109,43,-149,75,62,-13,-80,-81,-356
-48,-171,-134,109,43,-155,75,74,-13,-80,-81,-362
-48,-177,-134,115,43,-155,75,80,-7,-80,-81,-362
-48,-177,-140,115,43,-155,75,86,-1,-80,-81,-362
-48,-177,-140,115,43,-155,81,92,4,-74,-81,-362
-48,-177,-140,115,43,-155,81,98,10,-68,-81,-362
-48,-177,-140,115,43,-155,81,104,16,-68,-81,-362
-48,-177,-140,115,43,-161,81,110,16,-68,-81,-362
-48,-183,-140,115,43,-161,81,110,16,-68,-81,-362
-48,-183,-140,115,43,-161,87,116,22,-68,-81,-362
-48,-183,-140,115,43,-161,93,122,28,-68,-81,-362
-48,-183,-146,115,43,-161,93,122,28,-68,-81,-368
-48,-195,-146,121,43,-167,93,122,28,-68,-81,-374
-48,-195,-146,121,43,-167,93,128,34,-68,-81,-374
-42,-189,-146,115,49,-167,99,134,40,-62,-75,-374
-42,-189,-146,115,49,-167,105,140,46,-56,-75,-374
-42,-189,-146,115,49,-167,111,146,52,-50,-75,-374
-30,-177,-146,103,55,-161,117,158,58,-44,-69,-374
-12,-165,-146,91,61,-161,117,164,64,-38,-63,-374
-6,-165,-146,91,61,-161,117,164,70,-32,-63,-374
-6,-165,-146,91,61,-161,117,170,76,-32,-63,-374
-18,-165,-146,91,55,-161,117,176,82,-32,-63,-368
-24,-165,-146,91,55,-161,117,176,82,-32,-63,-368
-24,-165,-146,91,55,-161,117,176,82,-32,-63,-368
-24,-165,-146,91,61,-161,117,182,82,-32,-63,-368
-24,-165,-146,91,61,-161,117,188,88,-32,-57,-368
-24,-165,-140,91,61,-155,117,194,100,-26,-51,-368
-24,-165,-134,91,55,-149,117,200,106,-20,-45,-362
-30,-165,-134,91,49,-149,117,206,112,-20,-39,-362
-30,-165,-134,91,49,-149,123,212,118,-14,-33,-362
-30,-159,-134,91,49,-149,129,218,124,-8,-27,-362
-30,-153,-134,91,49,-149,135,230,136,-2,-27,-362
-30,-147,-128,91,49,-143,141,236,142,3,-21,-362
-30,-141,-128,85,49,-137,141,242,148,9,-15,-356
-18,-135,-128,79,49,-131,141,248,154,15,-9,-350
-18,-129,-128,79,49,-131,141,254,160,21,-3,-344
-18,-129,-128,73,49,-125,147,260,166,27,-3,-344
-12,-123,-128,73,49,-125,147,260,178,33,2,-344
-12,-117,-122,73,49,-119,147,266,184,39,8,-338
-12,-111,-116,67,49,-113,147,278,190,45,14,-332
-6,-99,-104,55,49,-107,153,290,202,51,20,-326
-1,-87,-98,43,49,-95,159,308,220,63,32,-320
5,-81,-98,37,49,-95,165,314,226,69,38,-314
5,-81,-98,37,49,-95,165,320,232,69,38,-308
5,-81,-98,37,49,-95,171,326,238,75,38,-308
5,-81,-98,37,49,-89,171,338,244,81,44,-302
5,-75,-92,37,49,-83,171,350,256,93,50,-296
5,-69,-92,31,49,-77,171,356,274,99,56,-290
5,-69,-92,31,49,-77,177,362,286,105,62,-290
11,-69,-92,31,49,-77,177,368,292,105,62,-290
17,-69,-92,25,55,-77,177,374,298,105,62,-290
23,-69,-92,19,61,-77,183,380,304,111,68,-290
29,-63,-92,13,61,-77,189,392,316,117,74,-290
29,-51,-92,7,61,-71,195,410,328,129,86,-284
35,-45,-92,1,61,-65,195,422,340,135,98,-278
35,-39,-92,1,61,-65,195,434,352,141,104,-278
35,-33,-92,1,61,-59,195,446,364,147,110,-272
41,-27,-86,-4,61,-53,195,458,376,159,116,-266
47,-21,-86,-4,61,-53,195,464,388,171,122,-254
53,-15,-86,-10,61,-47,195,476,406,183,128,-242
59,-4,-80,-22,61,-41,201,500,436,195,140,-230
59,8,-68,-28,61,-29,207,518,448,207,152,-218
59,14,-68,-34,61,-23,213,530,454,213,158,-212
71,20,-68,-46,61,-17,213,536,466,219,164,-206
77,26,-68,-52,61,-17,213,548,478,225,176,-200
77,32,-62,-52,61,-11,219,560,496,237,188,-194
83,44,-62,-58,61,-6,219,572,526,261,200,-182
95,56,-62,-70,67,0,219,584,538,273,212,-176
107,68,-62,-82,73,6,219,590,550,285,224,-164
113,74,-56,-88,73,12,219,602,562,291,230,-158
113,80,-50,-88,73,18,219,614,574,303,242,-152
113,80,-50,-88,73,18,219,620,580,309,248,-146
119,80,-50,-100,79,18,219,626,586,315,254,-140
125,86,-50,-106,79,18,219,632,592,315,260,-134
125,92,-44,-106,79,24,219,638,604,321,266,-122
125,98,-38,-106,79,30,219,644,616,333,278,-116
125,104,-32,-112,79,36,219,650,628,345,290,-104
131,110,-26,-118,79,42,219,656,640,357,296,-98
131,116,-26,-118,79,48,219,656,652,363,302,-92
137,122,-26,-124,79,54,219,662,658,369,308,-86
149,146,-26,-148,79,60,219,668,664,381,314,-80
161,152,-26,-160,85,66,219,668,670,387,320,-68
167,158,-26,-166,85,66,219,674,676,393,326,-62
167,158,-26,-166,85,66,219,674,682,399,332,-56
167,158,-26,-166,85,66,213,674,682,399,338,-56
173,170,-26,-172,85,72,207,674,688,399,344,-50
185,182,-20,-184,91,78,207,674,694,405,350,-44
191,188,-20,-190,97,78,201,674,694,405,350,-38
191,188,-20,-190,97,78,195,674,694,405,350,-38
197,188,-20,-190,97,78,189,674,694,405,356,-32
197,194,-14,-190,97,84,189,674,700,411,362,-26
197,194,-8,-190,97,90,189,674,700,417,368,-20
203,206,-8,-196,97,96,189,674,700,423,368,-14
227,230,-8,-226,103,108,189,668,700,423,368,-8
239,242,-8,-244,109,114,183,662,700,423,368,-2
239,248,-8,-244,109,120,177,650,694,423,368,-2
239,248,-3,-244,109,120,165,638,682,423,368,-2
227,248,3,-238,103,120,153,614,670,423,368,-2
221,248,9,-232,103,126,147,596,658,417,368,-2
221,248,9,-232,103,126,141,566,634,411,362,-2
221,248,9,-232,103,126,135,536,604,405,356,-8
221,248,9,-232,103,126,129,518,580,399,350,-8
215,248,15,-226,97,126,123,494,550,381,338,-14
203,236,15,-214,91,126,111,458,514,351,308,-26
197,230,15,-208,91,126,99,428,484,339,290,-38
197,224,15,-208,91,120,99,398,454,321,278,-50
197,218,15,-202,91,114,93,374,418,291,266,-62
191,206,15,-196,91,108,81,332,376,267,248,-74
179,182,15,-184,85,102,75,302,346,255,236,-86
161,164,15,-166,79,96,69,272,316,243,224,-98
149,152,9,-148,79,84,63,242,280,213,206,-116
143,140,3,-136,79,72,57,224,250,183,176,-134
131,128,-3,-124,73,66,51,194,214,165,146,-152
125,110,-8,-112,73,54,45,164,178,135,116,-182
119,98,-8,-100,73,48,39,152,160,123,104,-194
113,86,-8,-94,67,42,39,128,142,105,92,-206
101,62,-14,-82,67,30,33,98,106,75,68,-218
89,32,-26,-64,67,6,21,68,70,45,44,-242
59,2,-32,-34,61,-6,15,56,52,21,32,-254
41,-9,-38,-16,55,-11,15,44,40,9,20,-266
41,-9,-38,-16,55,-11,15,38,28,-2,8,-272
41,-9,-44,-16,55,-17,15,26,10,-14,-3,-278
35,-21,-50,-4,55,-29,9,14,-19,-26,-15,-290
11,-51,-56,19,49,-47,3,-9,-43,-44,-39,-302
5,-69,-62,25,49,-59,-2,-21,-55,-56,-51,-314
11,-69,-68,25,49,-65,-2,-33,-67,-62,-57,-320
23,-69,-74,19,55,-71,-8,-39,-73,-68,-63,-326
23,-69,-80,19,55,-77,-8,-45,-79,-80,-75,-338
17,-75,-86,25,55,-83,-8,-51,-85,-92,-81,-344
11,-81,-86,31,55,-89,-8,-57,-91,-98,-87,-350
5,-87,-92,37,55,-95,-8,-63,-103,-104,-93,-356
-1,-93,-92,43,55,-95,-14,-75,-115,-110,-99,-356
-1,-99,-98,43,55,-95,-20,-81,-121,-116,-105,-362
-1,-99,-98,43,55,-95,-20,-87,-127,-116,-105,-368
-1,-99,-98,43,55,-95,-20,-87,-133,-116,-105,-368
-6,-99,-98,49,55,-95,-20,-87,-133,-116,-105,-368
-6,-99,-98,49,55,-95,-20,-87,-133,-116,-105,-368
-6,-99,-98,49,55,-95,-20,-87,-133,-116,-105,-368
-6,-99,-98,49,55,-101,-20,-87,-139,-116,-111,-374
-6,-99,-98,49,55,-101,-20,-93,-139,-116,-111,-380
-6,-99,-98,49,55,-101,-20,-93,-139,-116,-111,-380
-6,-99,-98,49,55,-101,-20,-93,-139,-116,-111,-380
-6,-99,-98,49,55,-101,-20,-93,-139,-116,-111,-380
-6,-99,-104,49,55,-101,-20,-93,-139,-116,-111,-380
-6,-99,-110,49,61,-101,-26,-93,-139,-122,-111,-380
-6,-99,-110,49,61,-101,-26,-93,-139,-122,-111,-380
-6,-99,-110,49,61,-101,-26,-93,-139,-122,-111,-380
-6,-99,-110,49,61,-101,-26,-93,-139,-122,-111,-380
-6,-99,-110,49,61,-101,-26,-93,-139,-122,-111,-380
-1,-99,-110,49,61,-101,-26,-93,-139,-122,-111,-380
5,-99,-110,49,61,-101,-26,-93,-139,-122,-111,-380
5,-99,-110,49,61,-101,-26,-93,-139,-122,-111,-380
5,-99,-110,49,61,-101,-26,-93,-139,-122,-111,-380
5,-99,-110,49,61,-101,-26,-93,-139,-128,-117,-380
5,-99,-110,49,61,-101,-26,-93,-139,-128,-117,-380
5,-99,-110,49,61,-101,-26,-93,-139,-128,-117,-380
5,-99,-110,49,61,-101,-26,-93,-139,-128,-117,-380
5,-99,-110,49,61,-101,-26,-93,-139,-128,-117,-380
5,-99,-110,49,61,-101,-26,-93,-139,-128,-117,-380
5,-99,-110,49,61,-101,-26,-93,-139,-128,-123,-380
5,-99,-110,49,61,-101,-26,-93,-139,-128,-123,-380
5,-99,-110,49,55,-101,-26,-93,-139,-128,-123,-380
5,-99,-110,49,55,-101,-26,-93,-139,-128,-123,-380
5,-93,-110,43,55,-101,-26,-93,-139,-128,-123,-380
11,-93,-110,37,61,-101,-26,-93,-139,-128,-123,-380
11,-93,-110,37,61,-101,-26,-93,-139,-128,-123,-380
11,-93,-110,37,61,-101,-26,-93,-139,-128,-123,-380
11,-93,-110,37,61,-95,-26,-93,-139,-128,-123,-380
11,-87,-110,37,61,-89,-26,-93,-139,-128,-123,-374
11,-87,-110,37,61,-89,-26,-93,-139,-128,-123,-374
11,-87,-110,37,61,-89,-26,-93,-139,-128,-123,-374
11,-87,-104,37,61,-89,-26,-93,-139,-128,-123,-374
11,-87,-98,37,61,-89,-26,-93,-139,-128,-123,-374
11,-87,-98,37,61,-89,-26,-93,-139,-128,-123,-374
5,-87,-92,37,55,-89,-26,-93,-139,-128,-123,-374
5,-87,-92,37,55,-89,-26,-93,-139,-128,-123,-374
5,-87,-92,37,55,-89,-26,-93,-139,-128,-117,-374
-1,-87,-92,37,55,-89,-26,-93,-133,-128,-117,-374
-6,-93,-92,43,55,-95,-26,-93,-133,-128,-117,-374
-18,-105,-92,55,49,-95,-26,-93,-133,-128,-117,-374
-18,-105,-92,55,49,-95,-26,-93,-133,-128,-117,-374
-6,-99,-92,49,49,-95,-26,-93,-133,-128,-117,-374
-1,-99,-92,49,49,-95,-26,-93,-133,-128,-117,-374
-1,-99,-92,49,49,-95,-26,-93,-133,-128,-117,-374
-1,-99,-92,49,49,-95,-26,-93,-133,-128,-117,-368
-1,-99,-92,49,49,-95,-26,-93,-133,-128,-117,-368
-1,-99,-92,49,49,-95,-26,-93,-133,-128,-117,-368
-1,-99,-92,49,49,-95,-26,-93,-133,-128,-117,-368
-1,-99,-92,49,49,-95,-26,-93,-133,-128,-117,-368
-6,-99,-92,49,49,-95,-26,-93,-133,-128,-117,-368
-6,-99,-86,49,49,-95,-26,-93,-133,-128,-117,-368
-6,-99,-86,49,49,-89,-26,-93,-133,-128,-117,-368
-6,-99,-80,49,49,-89,-26,-93,-133,-128,-117,-362
-6,-99,-80,49,43,-89,-26,-93,-133,-128,-117,-356
-6,-99,-80,49,43,-89,-26,-87,-133,-128,-117,-356
-6,-93,-74,49,43,-89,-26,-81,-133,-128,-117,-356
-18,-93,-68,49,31,-89,-26,-81,-133,-128,-117,-350
-30,-93,-62,55,19,-83,-26,-81,-133,-122,-117,-350
-36,-93,-56,55,13,-83,-20,-81,-127,-122,-111,-350
-36,-93,-56,55,13,-83,-14,-81,-127,-122,-111,-350
-36,-93,-56,55,13,-83,-14,-81,-127,-122,-111,-350
-36,-93,-56,55,13,-83,-14,-81,-127,-122,-111,-350
-36,-93,-56,61,13,-83,-14,-81,-127,-122,-111,-350
-42,-99,-56,67,13,-83,-14,-81,-127,-122,-111,-350
-42,-105,-56,73,13,-83,-14,-81,-127,-122,-111,-350
-42,-105,-56,73,13,-83,-14,-81,-127,-122,-111,-350
-42,-105,-56,73,13,-83,-14,-81,-127,-122,-111,-350
-42,-105,-56,73,13,-83,-14,-81,-127,-122,-111,-350
-36,-105,-56,73,13,-83,-14,-81,-127,-122,-111,-350
-36,-105,-56,73,13,-83,-14,-81,-127,-122,-111,-350
-42,-111,-56,79,13,-89,-14,-81,-127,-122,-111,-350
-42,-117,-56,79,13,-89,-14,-81,-127,-128,-111,-350
-42,-117,-56,79,13,-89,-14,-81,-127,-128,-111,-350
-36,-111,-56,73,19,-89,-14,-81,-127,-128,-111,-350
-36,-111,-56,73,19,-89,-14,-81,-127,-128,-111,-350
-42,-111,-56,73,13,-89,-14,-81,-127,-128,-111,-350
-54,-111,-56,85,1,-89,-14,-81,-127,-128,-111,-350
-66,-117,-56,91,-4,-89,-14,-81,-127,-128,-111,-350
-72,-117,-56,97,-4,-89,-14,-81,-127,-128,-111,-350
-72,-123,-56,103,-4,-89,-14,-87,-127,-128,-111,-350
-72,-129,-56,103,-4,-89,-14,-93,-127,-128,-111,-350
-72,-129,-56,103,-4,-89,-14,-93,-127,-128,-111,-350
-72,-129,-56,103,-4,-89,-14,-93,-127,-128,-111,-350
-72,-117,-50,97,-4,-83,-14,-93,-127,-128,-111,-344
-66,-111,-50,91,-4,-83,-14,-93,-127,-128,-111,-344
-66,-111,-50,91,-4,-83,-14,-93,-127,-128,-117,-344
-60,-111,-56,91,1,-89,-20,-99,-133,-128,-123,-344
-54,-111,-68,85,13,-89,-26,-99,-139,-134,-123,-344
-42,-111,-74,79,25,-89,-26,-105,-145,-134,-123,-344
-36,-105,-74,73,25,-89,-26,-105,-145,-134,-123,-344
-36,-105,-68,73,25,-89,-26,-105,-145,-134,-123,-344
-36,-111,-68,73,25,-89,-32,-111,-151,-134,-123,-344
-42,-123,-68,79,25,-95,-38,-117,-157,-140,-129,-344
-42,-129,-74,79,25,-101,-44,-123,-163,-140,-129,-344
-42,-129,-74,79,25,-101,-44,-123,-163,-140,-129,-344
-48,-129,-74,79,19,-101,-44,-123,-163,-140,-129,-344
-48,-129,-74,79,19,-101,-44,-123,-163,-140,-129,-344
-54,-129,-68,79,13,-101,-44,-117,-163,-140,-129,-344
-54,-123,-62,79,7,-95,-44,-111,-163,-140,-129,-344
-48,-111,-62,73,7,-89,-44,-105,-157,-134,-123,-338
-42,-105,-62,73,7,-83,-38,-105,-151,-134,-117,-338
-42,-99,-50,73,1,-71,-32,-99,-145,-128,-111,-332
-42,-69,-20,67,-10,-53,-14,-87,-133,-116,-105,-320
-36,-33,-8,43,-10,-23,-2,-75,-121,-104,-99,-308
-30,-21,-3,31,-10,-17,3,-69,-115,-98,-93,-302
-30,-21,-3,25,-10,-11,9,-69,-109,-92,-93,-296
-30,-21,9,25,-16,-6,15,-63,-103,-92,-93,-290
-30,-15,21,25,-16,6,15,-63,-103,-86,-93,-290
-30,-9,27,19,-16,12,15,-63,-103,-86,-87,-290
-30,-4,27,19,-16,12,15,-63,-103,-86,-87,-290
-30,-4,27,19,-16,12,15,-57,-103,-86,-87,-290
-30,-4,27,19,-16,12,21,-57,-103,-86,-87,-290
-30,-4,27,19,-16,12,27,-51,-97,-86,-81,-284
-30,-4,27,19,-16,12,27,-51,-97,-86,-75,-284
-24,2,27,13,-16,12,27,-51,-97,-80,-75,-278
-18,20,33,1,-16,24,27,-51,-97,-74,-69,-272
-12,50,45,-16,-16,54,27,-51,-91,-62,-57,-260
-1,80,57,-40,-16,72,27,-51,-91,-50,-51,-248
11,92,69,-52,-16,84,27,-51,-91,-50,-45,-242
17,98,75,-58,-16,90,15,-51,-91,-50,-39,-236
17,98,81,-58,-16,90,3,-63,-91,-50,-39,-236
17,98,87,-58,-22,90,-2,-69,-91,-50,-39,-236
17,98,93,-58,-28,90,-8,-75,-91,-50,-39,-236
17,98,93,-58,-28,90,-14,-81,-97,-50,-39,-236
17,98,93,-58,-28,90,-20,-93,-103,-50,-39,-236
17,98,93,-58,-28,90,-26,-99,-109,-50,-39,-236
17,98,87,-58,-28,90,-32,-105,-115,-56,-45,-236
17,98,81,-58,-28,90,-38,-105,-121,-56,-45,-236
17,92,75,-58,-28,84,-38,-105,-121,-56,-45,-236
17,80,63,-52,-22,66,-44,-111,-121,-62,-51,-236
23,68,45,-46,-10,42,-44,-111,-121,-62,-51,-236
29,56,33,-46,1,30,-44,-111,-121,-62,-51,-236
29,44,27,-40,1,18,-44,-111,-121,-62,-51,-236
23,32,21,-22,1,12,-44,-111,-121,-62,-51,-236
11,14,15,-10,1,6,-44,-111,-121,-68,-57,-242
5,2,9,-4,1,0,-44,-111,-121,-68,-63,-248
5,-9,-3,1,1,-6,-44,-111,-121,-74,-69,-248
-1,-15,-3,7,1,-6,-44,-111,-121,-74,-69,-248
-12,-27,-3,19,1,-11,-44,-111,-121,-80,-75,-248
-24,-45,-3,31,-4,-23,-44,-111,-127,-86,-81,-254
-30,-57,-8,43,-4,-35,-44,-111,-133,-98,-87,-260
-36,-69,-8,49,-4,-47,-44,-117,-139,-104,-93,-266
-48,-93,-14,73,-10,-59,-44,-123,-145,-110,-99,-278
-66,-111,-20,91,-10,-71,-50,-135,-151,-122,-111,-290
-66,-123,-32,97,-10,-77,-56,-147,-169,-134,-123,-296
-66,-129,-50,97,-4,-83,-62,-159,-181,-146,-129,-302
-66,-135,-56,97,-4,-89,-68,-165,-187,-152,-141,-308
-66,-135,-62,97,-4,-89,-68,-165,-187,-152,-141,-314
-66,-141,-68,97,-4,-95,-68,-165,-187,-152,-141,-314
-72,-153,-74,109,-4,-107,-68,-165,-193,-152,-141,-314
-84,-165,-80,127,-4,-119,-68,-165,-193,-152,-141,-314
-90,-171,-80,133,-4,-125,-68,-165,-193,-152,-141,-314
-90,-171,-80,133,-4,-125,-68,-165,-193,-152,-141,-314
-78,-165,-80,127,-4,-125,-68,-165,-193,-152,-141,-314
-78,-165,-80,121,1,-125,-68,-165,-193,-152,-141,-314
-78,-165,-80,121,1,-125,-68,-165,-193,-158,-147,-314
-90,-171,-80,127,1,-131,-68,-165,-193,-158,-147,-320
-96,-177,-80,133,1,-131,-68,-165,-193,-164,-147,-320
-96,-183,-86,133,1,-131,-68,-165,-193,-164,-147,-320
-90,-183,-86,133,1,-131,-68,-165,-193,-164,-147,-320
-90,-183,-86,133,1,-131,-68,-165,-193,-164,-147,-320
-90,-183,-86,133,1,-131,-68,-165,-193,-164,-147,-320
-90,-183,-86,133,1,-131,-68,-165,-193,-164,-147,-320
-90,-183,-86,133,1,-131,-68,-165,-193,-164,-147,-320
-90,-183,-86,133,1,-131,-68,-165,-199,-164,-147,-320
-96,-183,-86,133,1,-131,-68,-165,-199,-164,-147,-320
-102,-183,-86,139,-4,-131,-68,-165,-199,-164,-147,-320
-108,-183,-86,145,-4,-131,-68,-165,-199,-164,-153,-320
-108,-189,-86,145,-4,-131,-68,-165,-199,-164,-153,-320
-108,-189,-86,145,-4,-131,-68,-165,-199,-164,-153,-320
-108,-189,-86,145,-4,-131,-68,-165,-199,-170,-153,-320
-108,-195,-86,151,-4,-137,-68,-165,-199,-176,-159,-320
-108,-201,-86,157,-4,-143,-68,-165,-199,-176,-159,-320
-108,-201,-86,157,-4,-143,-68,-165,-199,-176,-159,-320
-108,-201,-86,157,-4,-143,-68,-165,-199,-176,-159,-320
-114,-201,-86,157,-10,-143,-68,-165,-205,-176,-159,-320
-120,-201,-86,157,-16,-143,-68,-165,-205,-176,-159,-320
-120,-201,-86,157,-16,-143,-68,-165,-205,-176,-159,-320
-120,-201,-86,157,-16,-143,-68,-165,-205,-176,-159,-326
-120,-207,-92,157,-16,-149,-62,-159,-205,-182,-165,-332
-120,-219,-98,163,-16,-161,-56,-147,-205,-188,-171,-338
-120,-243,-104,175,-16,-179,-32,-123,-199,-194,-177,-350
-126,-273,-116,193,-16,-197,9,-57,-187,-206,-189,-362
-132,-303,-128,217,-16,-215,81,44,-163,-218,-207,-374
-144,-321,-140,229,-16,-227,153,116,-133,-230,-237,-404
-156,-327,-140,235,-16,-233,195,158,-121,-248,-267,-434
-162,-321,-140,235,-16,-227,237,194,-97,-254,-267,-440
-162,-279,-128,223,-16,-209,261,224,-55,-248,-267,-440
-162,-249,-98,211,-16,-179,279,242,-13,-224,-249,-434
-162,-231,-68,205,-22,-149,321,284,34,-176,-207,-410
-150,-177,-56,175,-28,-113,399,416,148,-74,-123,-344
-78,-75,-32,79,-28,-65,483,602,370,93,32,-224
-1,32,-3,-10,-22,0,549,842,634,303,218,-74
65,158,51,-118,-16,102,591,1004,850,513,410,75
149,332,141,-238,-16,240,591,998,934,705,602,231
245,548,237,-406,-16,390,507,764,946,903,788,411
335,788,387,-580,-16,588,339,398,946,1101,1010,591
365,1070,645,-718,-82,858,57,-123,874,1323,1232,813
383,1394,963,-880,-238,1158,-218,-603,814,1605,1496,1059
383,1688,1287,-1006,-412,1482,-464,-963,790,1863,1760,1299
371,1892,1569,-1084,-586,1734,-722,-1299,616,1965,1880,1449
329,1988,1719,-1114,-688,1854,-974,-1665,286,1947,1880,1491
287,1988,1725,-1114,-718,1854,-1208,-2025,-163,1671,1730,1485
197,1742,1617,-964,-718,1686,-1328,-2259,-679,1173,1334,1251
89,1346,1317,-724,-676,1332,-1358,-2331,-1069,621,848,891
29,1046,1065,-544,-580,1050,-1376,-2337,-1327,177,434,567
-1,872,909,-448,-502,882,-1376,-2313,-1489,-146,140,345
-12,668,705,-346,-394,684,-1328,-2121,-1501,-320,-27,177
-24,452,495,-226,-298,462,-1184,-1821,-1393,-362,-111,57
-36,248,327,-118,-220,288,-1010,-1491,-1147,-368,-153,-38
-48,92,189,-22,-148,132,-788,-1179,-925,-368,-177,-116
-60,-15,99,37,-112,30,-602,-885,-727,-356,-189,-164
-60,-51,51,55,-88,-11,-434,-663,-565,-314,-189,-188
-60,-69,21,67,-58,-29,-308,-483,-433,-254,-183,-200
-60,-87,-3,73,-46,-41,-212,-351,-325,-212,-171,-206
-66,-93,-8,79,-46,-53,-128,-225,-229,-170,-153,-206
-72,-99,-14,85,-46,-59,-62,-135,-163,-128,-123,-206
-72,-105,-14,91,-46,-65,-20,-87,-127,-110,-111,-206
-72,-111,-14,91,-46,-65,-2,-57,-103,-104,-99,-206
-72,-111,-14,91,-40,-65,9,-33,-79,-92,-87,-206
-84,-111,-14,97,-40,-65,21,-15,-67,-86,-75,-206
-96,-117,-14,109,-40,-65,27,-3,-61,-86,-75,-206
-96,-117,-14,109,-40,-65,39,8,-55,-86,-75,-206
-90,-117,-20,103,-34,-65,51,20,-49,-86,-75,-206
-90,-117,-20,103,-34,-65,57,32,-43,-86,-75,-206
-102,-129,-20,109,-34,-71,63,44,-43,-86,-75,-212
-108,-135,-20,115,-34,-77,69,56,-37,-86,-75,-218
-108,-135,-20,115,-34,-77,75,68,-31,-86,-75,-218
-108,-141,-26,115,-34,-83,81,74,-25,-86,-81,-224
-108,-153,-38,115,-28,-95,81,74,-25,-86,-81,-230
-108,-159,-44,121,-28,-101,81,74,-19,-86,-81,-236
-108,-159,-44,127,-28,-107,81,80,-13,-86,-81,-236
-114,-165,-44,139,-28,-107,87,86,-7,-86,-81,-236
-120,-165,-44,139,-28,-107,87,98,-1,-86,-81,-236
-120,-165,-50,139,-28,-107,87,104,4,-80,-81,-236
-120,-165,-56,139,-28,-107,93,110,4,-80,-81,-236
-108,-165,-62,133,-22,-107,99,116,4,-80,-81,-236
-96,-159,-62,127,-22,-107,105,122,16,-74,-81,-236
-96,-153,-62,127,-22,-107,111,128,22,-68,-75,-236
-96,-153,-62,127,-22,-107,111,134,28,-68,-75,-236
-96,-159,-62,133,-22,-107,111,134,28,-68,-75,-236
-96,-159,-62,133,-16,-107,111,134,28,-68,-75,-236
-90,-159,-68,133,-10,-107,111,134,28,-68,-75,-236
-90,-159,-68,127,-10,-107,111,140,28,-62,-75,-236
-90,-159,-68,121,-10,-107,117,146,34,-62,-69,-236
-90,-159,-68,121,-10,-107,117,152,40,-56,-69,-236
-90,-159,-68,121,-10,-107,123,158,46,-56,-69,-236
-84,-153,-68,121,-10,-107,123,164,52,-50,-69,-236
-78,-147,-68,115,-10,-107,123,164,58,-44,-63,-236
-78,-147,-68,115,-10,-107,123,170,64,-44,-63,-230
-78,-147,-68,115,-10,-107,123,176,70,-44,-63,-230
-78,-147,-68,115,-10,-107,123,182,76,-44,-63,-230
-78,-147,-68,115,-10,-107,123,194,82,-44,-57,-224
-78,-141,-68,109,-10,-107,129,206,88,-38,-51,-218
-78,-129,-62,103,-10,-101,141,212,100,-32,-45,-212
-78,-129,-62,103,-10,-101,141,218,106,-26,-45,-206
-78,-129,-62,103,-10,-101,141,224,112,-20,-45,-206
-72,-129,-62,103,-10,-101,147,224,118,-20,-45,-206
-72,-129,-62,103,-10,-101,147,230,118,-20,-39,-206
-72,-129,-62,97,-10,-101,153,236,124,-14,-33,-200
-66,-123,-62,91,-4,-101,153,242,130,-8,-27,-194
-60,-111,-62,85,-4,-95,153,248,142,-2,-21,-182
-60,-105,-56,79,-4,-89,159,254,148,3,-15,-176
-60,-105,-56,79,-4,-89,159,260,154,9,-9,-170
-60,-99,-50,73,-4,-83,165,266,166,21,-3,-158
-54,-93,-44,67,-4,-71,171,278,178,27,2,-146
-54,-87,-44,67,-4,-65,171,284,184,33,2,-140
-54,-87,-44,67,-4,-65,171,290,196,39,2,-140
-54,-81,-38,67,-4,-65,177,302,202,45,8,-134
-48,-75,-38,55,-4,-59,177,314,214,51,14,-128
-42,-75,-38,49,-4,-59,183,320,220,57,20,-128
-42,-75,-38,49,-4,-59,183,326,226,57,20,-128
-42,-75,-38,49,-4,-59,183,332,232,57,26,-128
-30,-69,-38,43,1,-59,183,338,238,69,32,-122
-24,-63,-38,37,1,-53,183,350,256,81,38,-116
-24,-57,-32,37,1,-47,183,362,268,93,50,-104
-24,-57,-26,37,1,-47,183,368,274,99,56,-98
-24,-57,-26,37,1,-47,183,380,286,105,62,-92
-18,-45,-26,31,1,-41,189,392,292,117,68,-86
-12,-21,-20,19,1,-29,195,404,304,129,80,-80
-6,-4,-8,13,1,-17,201,422,328,141,92,-68
-1,2,-3,7,1,-6,207,440,346,147,104,-56
-1,2,-3,7,1,-6,207,446,352,153,110,-50
-1,-4,-3,7,1,-6,207,452,358,153,110,-50
-6,-4,-3,13,1,-6,207,464,370,159,116,-44
-6,-4,3,13,1,-6,213,476,382,165,122,-38
-1,2,3,7,1,-6,213,488,394,177,128,-32
5,8,3,1,1,-6,213,494,400,183,128,-32
11,14,3,-4,1,-6,213,500,406,183,128,-26
17,26,3,-10,7,0,213,506,418,189,134,-20
17,32,3,-16,7,6,213,518,430,195,146,-14
23,44,9,-22,7,12,213,530,454,207,158,-2
35,56,9,-34,7,18,213,548,478,219,170,9
41,62,9,-40,7,24,219,560,490,231,182,15
47,68,9,-46,7,24,219,572,508,243,194,27
59,80,9,-64,13,30,219,584,520,255,206,39
65,92,9,-76,13,42,219,596,544,273,224,51
65,98,15,-82,13,54,219,608,556,285,236,63
65,104,21,-82,13,60,219,620,568,297,242,69
65,110,27,-88,13,66,225,626,580,303,248,75
65,116,33,-94,13,72,225,632,586,309,254,81
71,122,33,-100,13,72,225,638,598,321,260,87
71,122,33,-100,13,72,225,638,610,333,266,93
83,128,33,-112,19,72,225,644,622,339,278,105
113,146,33,-130,25,78,225,650,634,345,290,111
131,164,33,-142,37,90,225,656,640,351,302,123
131,176,39,-148,37,96,225,662,652,363,308,135
131,176,45,-148,37,102,225,668,658,369,320,141
131,182,45,-154,37,108,225,668,664,375,326,147
137,200,51,-166,37,120,225,674,676,387,332,153
143,212,51,-172,37,126,225,680,682,393,338,165
143,212,51,-172,37,126,219,680,688,399,338,171
143,212,51,-172,37,126,219,680,688,405,344,177
143,212,57,-172,37,132,219,680,694,411,350,183
143,212,63,-172,37,132,219,680,694,411,350,183
143,212,69,-172,37,132,213,680,694,417,350,183
143,212,69,-172,37,132,207,680,694,423,356,189
143,212,69,-172,37,132,201,680,694,423,362,189
143,212,75,-172,37,132,201,680,694,423,362,189
149,218,75,-178,37,138,195,680,694,423,368,195
149,230,81,-178,37,144,195,680,694,429,374,201
149,236,87,-178,37,150,189,674,694,429,374,207
149,236,93,-178,37,156,183,662,694,429,374,207
149,242,93,-184,37,156,177,650,688,429,374,207
155,248,93,-196,37,156,165,632,676,429,374,207
167,254,93,-208,37,156,159,620,664,429,374,207
173,260,93,-214,37,156,153,608,652,429,374,207
173,260,93,-214,37,156,147,578,622,423,374,207
173,260,93,-214,37,156,141,548,592,411,368,207
167,260,93,-208,37,156,135,518,562,399,356,201
155,254,99,-202,31,156,129,482,532,381,344,195
143,248,99,-196,25,156,123,452,502,351,320,183
131,236,99,-184,25,156,111,422,466,321,302,171
119,212,99,-172,25,150,105,380,430,303,278,159
107,200,99,-160,19,144,93,362,400,291,272,147
101,194,99,-154,13,144,93,344,382,279,260,141
95,188,99,-148,7,144,93,326,352,267,248,129
89,176,99,-136,1,138,87,302,322,255,218,117
77,164,99,-118,1,132,81,272,286,225,200,93
65,152,99,-106,1,126,75,248,256,207,182,81
65,146,93,-100,1,120,69,218,226,177,170,69
59,140,81,-94,1,108,63,182,184,147,152,51
53,134,75,-88,1,102,57,158,160,123,140,39
47,116,69,-82,1,84,51,134,136,105,116,15
47,92,57,-76,1,60,45,110,100,93,92,-2
41,62,45,-64,1,48,39,92,76,75,68,-14
29,44,33,-52,1,36,33,80,52,57,50,-26
17,26,27,-40,1,24,27,68,34,39,32,-38
11,8,21,-16,1,12,21,50,4,15,8,-56
5,-9,9,1,1,0,15,20,-19,-14,-9,-68
5,-15,3,7,1,-6,9,8,-31,-26,-21,-80
-1,-15,3,13,1,-11,9,-3,-37,-32,-27,-86
-12,-21,3,19,-4,-11,9,-9,-43,-38,-33,-92
-18,-27,3,25,-4,-17,3,-15,-55,-50,-39,-98
-18,-33,-3,25,-4,-23,3,-21,-67,-56,-45,-104
-24,-39,-8,25,-4,-23,3,-27,-73,-62,-51,-110
-24,-45,-8,25,-4,-29,3,-33,-79,-62,-57,-116
-30,-51,-8,31,-4,-29,3,-39,-85,-62,-63,-122
-36,-57,-8,43,-4,-35,3,-45,-91,-68,-69,-128
-36,-69,-8,49,-4,-41,-2,-51,-97,-80,-81,-134
-36,-69,-8,55,-4,-41,-2,-57,-103,-92,-87,-140
-36,-69,-14,55,-4,-41,-2,-63,-109,-98,-93,-146
-36,-69,-14,55,-4,-41,-2,-69,-109,-98,-99,-146
-36,-69,-14,55,-4,-41,-2,-69,-115,-104,-99,-146
-42,-69,-14,55,-4,-41,-2,-69,-115,-104,-99,-152
-48,-75,-20,61,-4,-47,-8,-75,-115,-104,-99,-152
-48,-81,-20,61,-4,-47,-8,-75,-121,-104,-99,-152
-48,-81,-20,61,-4,-47,-8,-75,-127,-104,-99,-152
-48,-81,-20,61,-4,-47,-14,-75,-127,-104,-99,-152
-48,-81,-20,61,-4,-47,-14,-75,-127,-104,-99,-152
-54,-87,-20,61,-4,-47,-14,-75,-127,-104,-99,-152
-60,-93,-20,67,-10,-53,-14,-81,-133,-110,-99,-152
-66,-93,-20,73,-16,-59,-14,-81,-133,-110,-99,-152
-66,-93,-20,73,-16,-59,-14,-81,-139,-110,-99,-152
-66,-93,-26,73,-10,-59,-14,-81,-139,-110,-99,-152
-66,-93,-26,73,-10,-59,-14,-81,-139,-110,-99,-152
-72,-93,-26,73,-10,-59,-14,-81,-139,-110,-105,-152
-72,-93,-26,73,-16,-59,-14,-81,-139,-110,-105,-158
-72,-93,-26,73,-16,-59,-14,-81,-139,-110,-105,-158
-66,-87,-26,73,-16,-59,-14,-81,-139,-110,-105,-158
-54,-75,-26,61,-16,-59,-14,-81,-139,-110,-105,-158
-48,-75,-26,55,-10,-59,-14,-81,-139,-110,-105,-158
-48,-75,-26,55,-10,-59,-14,-81,-145,-116,-105,-158
-48,-81,-26,61,-10,-65,-14,-81,-145,-122,-105,-158
-48,-81,-26,61,-10,-65,-14,-81,-145,-122,-105,-158
-48,-81,-26,61,-10,-65,-14,-81,-145,-122,-105,-158
-48,-75,-26,61,-10,-59,-14,-81,-139,-122,-105,-158
-48,-75,-26,61,-10,-59,-14,-81,-139,-122,-105,-158
-48,-75,-26,61,-10,-59,-14,-81,-139,-122,-105,-158
-48,-75,-26,61,-10,-59,-14,-81,-139,-122,-105,-158
-48,-75,-26,61,-10,-59,-14,-81,-139,-122,-105,-158
-48,-75,-26,61,-10,-59,-14,-81,-139,-122,-105,-158
-54,-75,-26,61,-10,-59,-14,-81,-139,-122,-105,-158
-60,-81,-26,67,-10,-59,-14,-81,-139,-122,-105,-158
-60,-81,-26,67,-16,-59,-14,-81,-139,-122,-105,-158
-60,-81,-26,67,-16,-59,-14,-81,-133,-122,-105,-158
-60,-81,-26,67,-16,-59,-14,-81,-133,-122,-105,-158
-60,-81,-20,67,-22,-59,-14,-81,-133,-122,-105,-158
-60,-81,-20,67,-22,-59,-14,-75,-133,-122,-105,-158
-60,-81,-20,67,-22,-59,-14,-69,-133,-122,-105,-158
-60,-81,-20,67,-22,-59,-14,-69,-133,-122,-105,-158
-60,-81,-20,67,-22,-59,-14,-69,-133,-122,-105,-158
-60,-81,-20,67,-22,-59,-14,-69,-133,-122,-105,-158
-66,-87,-20,73,-22,-59,-14,-69,-133,-122,-105,-158
-72,-87,-20,73,-22,-59,-14,-69,-133,-122,-105,-158
-72,-87,-20,73,-22,-59,-14,-69,-133,-122,-105,-158
-78,-87,-20,73,-22,-59,-14,-69,-133,-122,-105,-158
-84,-93,-20,85,-28,-59,-14,-69,-133,-122,-105,-158
-90,-99,-20,91,-28,-59,-14,-69,-133,-122,-105,-158
-84,-99,-20,91,-28,-59,-14,-69,-133,-122,-105,-152
-60,-87,-20,73,-16,-59,-14,-69,-133,-122,-105,-152
-54,-87,-20,67,-16,-59,-14,-69,-133,-122,-105,-152
-54,-87,-20,67,-16,-59,-8,-69,-127,-122,-105,-146
-54,-81,-20,67,-16,-53,-8,-63,-121,-116,-105,-146
-54,-75,-20,67,-16,-53,-2,-63,-121,-116,-99,-140
-54,-75,-20,67,-16,-53,-2,-63,-121,-116,-99,-140
-54,-75,-20,67,-16,-53,-2,-63,-121,-116,-99,-140
-60,-81,-20,67,-16,-53,-2,-63,-121,-116,-99,-140
-66,-81,-20,73,-16,-53,-2,-63,-121,-116,-99,-140
-66,-81,-20,73,-16,-53,-2,-63,-121,-116,-99,-140
-66,-81,-20,73,-16,-53,-2,-63,-121,-116,-99,-140
-66,-81,-20,73,-16,-53,-2,-63,-121,-116,-99,-140
-66,-81,-20,73,-16,-53,-2,-63,-121,-116,-99,-140
-66,-81,-20,73,-16,-53,-2,-63,-121,-116,-99,-140
-66,-81,-20,73,-16,-53,-2,-63,-121,-116,-99,-140
-66,-81,-20,73,-16,-53,-2,-63,-121,-116,-99,-140
-66,-75,-20,67,-16,-53,-2,-63,-121,-116,-99,-140
-66,-75,-20,67,-16,-53,-2,-63,-121,-116,-99,-140
-66,-75,-20,67,-16,-53,-2,-63,-121,-116,-99,-140
-60,-75,-20,67,-16,-53,-2,-63,-121,-116,-99,-140
-60,-75,-20,67,-16,-53,-2,-63,-121,-116,-99,-140
-60,-75,-20,67,-16,-53,-2,-63,-121,-116,-99,-140
-54,-75,-26,67,-16,-53,-2,-63,-127,-116,-99,-140
-48,-75,-32,67,-10,-59,-2,-69,-133,-116,-105,-140
-48,-75,-38,67,-4,-59,-2,-69,-133,-122,-105,-140
-48,-81,-38,73,-4,-59,-2,-69,-133,-122,-105,-140
-54,-81,-38,79,-4,-59,-2,-75,-133,-122,-111,-140
-54,-81,-38,79,-4,-65,-2,-75,-139,-128,-111,-140
-54,-81,-38,79,-4,-65,-2,-75,-139,-128,-111,-140
-54,-87,-38,79,-4,-65,-2,-75,-139,-128,-111,-140
-54,-93,-38,79,-4,-65,-8,-75,-139,-128,-117,-140
-60,-99,-38,79,-10,-65,-8,-75,-139,-128,-117,-146
-60,-99,-38,79,-10,-65,-8,-75,-139,-128,-117,-146
-60,-99,-38,79,-10,-65,-8,-75,-139,-128,-117,-146
-60,-99,-38,79,-10,-65,-8,-75,-139,-128,-117,-146
-66,-99,-38,79,-10,-65,-8,-81,-145,-128,-117,-146
-66,-105,-38,79,-10,-71,-8,-87,-151,-134,-117,-146
-66,-105,-38,79,-10,-71,-8,-87,-151,-134,-117,-152
-66,-105,-38,79,-10,-71,-8,-87,-151,-134,-117,-152
-66,-111,-38,79,-10,-71,-14,-87,-151,-134,-123,-152
-66,-111,-38,85,-10,-71,-14,-87,-151,-134,-123,-152
-66,-111,-38,85,-10,-71,-14,-87,-157,-134,-123,-152
-66,-111,-38,85,-10,-71,-20,-93,-157,-134,-123,-152
-66,-111,-44,85,-10,-77,-26,-99,-163,-134,-123,-158
-72,-117,-44,91,-10,-83,-32,-105,-169,-140,-123,-158
-72,-117,-44,91,-10,-83,-32,-105,-169,-140,-123,-158
-66,-117,-44,85,-10,-83,-32,-105,-169,-140,-123,-158
-66,-117,-44,85,-10,-83,-32,-105,-169,-140,-123,-158
-72,-129,-44,91,-10,-89,-32,-111,-169,-140,-129,-158
-78,-129,-44,97,-10,-89,-32,-111,-169,-140,-129,-158
-66,-117,-44,91,-10,-83,-32,-111,-169,-140,-129,-158
-60,-105,-44,79,-4,-77,-32,-111,-169,-140,-129,-158
-60,-105,-44,79,-4,-77,-32,-111,-169,-140,-129,-158
-66,-105,-44,79,-10,-77,-32,-111,-169,-140,-129,-158
-66,-105,-44,79,-10,-77,-32,-111,-169,-140,-129,-158
-60,-105,-44,73,-10,-77,-32,-111,-169,-140,-129,-158
-60,-105,-44,73,-10,-77,-32,-111,-169,-140,-129,-158
-60,-105,-44,73,-10,-77,-32,-111,-169,-140,-129,-158
-60,-105,-44,73,-10,-77,-32,-111,-169,-140,-129,-158
-60,-105,-44,73,-10,-77,-32,-111,-169,-140,-129,-158
-54,-105,-44,73,-4,-77,-32,-117,-169,-140,-129,-158
-54,-105,-44,73,-4,-77,-32,-117,-169,-140,-129,-158
-54,-105,-44,73,-4,-77,-32,-117,-169,-140,-129,-158
-54,-105,-44,73,-4,-77,-32,-117,-169,-140,-129,-158
-54,-105,-50,73,1,-77,-32,-123,-175,-146,-129,-158
-54,-105,-56,73,1,-77,-32,-123,-181,-146,-129,-158
-60,-105,-56,73,-4,-77,-32,-123,-181,-146,-129,-158
-60,-105,-50,73,-4,-77,-32,-123,-181,-146,-129,-152
-60,-99,-44,73,-4,-71,-26,-123,-175,-146,-129,-152
-60,-93,-32,73,-4,-65,-26,-123,-175,-146,-129,-152
-60,-87,-20,67,-10,-53,-20,-117,-169,-140,-123,-146
-60,-63,-8,55,-16,-41,-14,-105,-157,-134,-111,-140
-60,-51,-3,49,-22,-29,-2,-99,-145,-122,-105,-134
-60,-45,3,43,-22,-17,3,-93,-139,-116,-99,-128
-60,-33,9,37,-22,-6,15,-87,-133,-116,-93,-122
-60,-27,21,37,-28,0,21,-81,-127,-110,-87,-122
-60,-27,27,37,-34,6,27,-81,-127,-110,-87,-122
-60,-27,33,37,-34,6,27,-81,-127,-110,-87,-116
-60,-27,39,37,-34,6,27,-81,-127,-110,-87,-116
-60,-21,45,37,-40,12,33,-81,-127,-110,-87,-116
-54,-4,51,25,-40,18,45,-69,-121,-104,-81,-110
-42,8,51,13,-40,30,51,-57,-115,-92,-75,-104
-36,20,51,7,-40,30,51,-57,-115,-86,-75,-104
-30,26,51,1,-40,30,51,-57,-115,-86,-75,-104
-24,38,51,-4,-40,36,51,-57,-115,-86,-75,-104
-18,62,57,-16,-40,48,45,-57,-115,-80,-63,-98
-18,74,75,-28,-40,66,45,-57,-109,-68,-57,-86
-18,80,87,-28,-46,78,39,-57,-103,-62,-51,-74
-18,86,93,-34,-46,84,27,-63,-103,-62,-51,-68
-18,92,93,-34,-46,90,15,-75,-103,-62,-51,-68
-18,92,99,-34,-46,96,9,-87,-109,-62,-51,-68
-18,92,99,-34,-46,96,-2,-99,-121,-62,-51,-68
-18,92,99,-34,-52,96,-14,-105,-127,-62,-51,-68
-18,92,99,-40,-52,96,-20,-111,-133,-62,-51,-68
-18,92,99,-46,-52,96,-20,-117,-139,-62,-51,-68
-18,98,99,-52,-52,96,-20,-117,-139,-62,-51,-68
-6,110,99,-64,-46,102,-20,-117,-139,-62,-51,-62
5,110,99,-64,-34,102,-20,-117,-139,-62,-51,-62
5,104,87,-58,-28,96,-20,-117,-139,-68,-51,-62
5,80,75,-52,-22,84,-26,-117,-139,-74,-51,-62
5,68,63,-46,-16,72,-26,-117,-139,-74,-51,-62
5,62,57,-46,-16,66,-26,-111,-139,-74,-51,-62
5,56,51,-46,-16,54,-26,-111,-133,-74,-51,-62
5,50,39,-46,-10,42,-26,-111,-133,-74,-51,-62
11,44,27,-46,-4,30,-26,-111,-133,-74,-51,-62
11,26,9,-40,1,6,-32,-111,-133,-80,-57,-68
5,-4,3,-10,1,-6,-38,-117,-139,-86,-63,-74
-24,-27,3,19,-4,-11,-38,-117,-145,-98,-75,-80
-36,-39,3,37,-10,-17,-38,-117,-145,-104,-81,-86
-36,-45,-3,43,-10,-23,-38,-123,-151,-110,-87,-92
-36,-57,-14,49,-10,-35,-38,-129,-157,-116,-99,-98
-48,-75,-20,61,-10,-47,-38,-135,-169,-128,-111,-104
-54,-81,-26,61,-10,-53,-38,-141,-175,-134,-117,-116
-54,-81,-26,61,-10,-53,-38,-141,-181,-134,-117,-122
-66,-93,-26,67,-10,-59,-38,-141,-187,-140,-123,-128
-78,-111,-26,79,-16,-65,-44,-147,-193,-146,-129,-134
-84,-123,-32,91,-16,-77,-50,-153,-193,-152,-129,-134
-84,-129,-38,97,-16,-83,-50,-153,-193,-152,-129,-134
-84,-135,-44,97,-16,-89,-50,-159,-193,-152,-129,-134
-78,-141,-56,97,-4,-95,-56,-165,-199,-158,-135,-140
-72,-141,-62,97,1,-101,-62,-171,-199,-158,-141,-146
-72,-141,-68,97,1,-107,-62,-171,-199,-164,-141,-146
-72,-147,-68,103,1,-107,-62,-171,-205,-170,-147,-146
-78,-147,-68,109,1,-113,-62,-171,-205,-170,-147,-146
-78,-147,-68,109,1,-119,-62,-171,-205,-170,-147,-146
-78,-147,-80,109,7,-119,-62,-171,-205,-170,-153,-146
-72,-147,-86,109,13,-119,-62,-171,-205,-170,-153,-152
-72,-153,-86,109,13,-119,-62,-171,-205,-170,-153,-158
-78,-159,-86,115,7,-119,-62,-171,-205,-170,-153,-158
-84,-159,-80,115,1,-119,-62,-171,-205,-170,-153,-158
-84,-159,-80,115,1,-119,-62,-171,-205,-170,-153,-158
-84,-159,-80,115,1,-119,-62,-171,-205,-170,-153,-158
-90,-165,-80,121,-4,-119,-62,-171,-211,-170,-159,-158
-114,-183,-80,139,-16,-125,-62,-171,-217,-176,-165,-164
-114,-189,-80,145,-16,-131,-62,-171,-217,-176,-165,-164
-108,-189,-80,145,-16,-131,-62,-171,-217,-176,-165,-164
-108,-189,-80,145,-16,-131,-62,-171,-217,-176,-165,-164
-108,-189,-80,145,-16,-137,-62,-171,-217,-176,-165,-164
-108,-189,-80,145,-16,-137,-62,-171,-217,-176,-165,-164
-108,-189,-80,145,-16,-137,-62,-171,-217,-176,-165,-170
-102,-189,-80,145,-16,-137,-62,-171,-217,-176,-165,-170
-96,-177,-80,133,-16,-137,-62,-171,-217,-176,-165,-170
-96,-165,-80,127,-16,-131,-62,-171,-217,-176,-159,-164
-90,-159,-80,121,-16,-125,-62,-171,-217,-176,-159,-164
-90,-159,-80,121,-10,-125,-62,-171,-217,-176,-159,-164
-90,-159,-80,121,-10,-125,-62,-171,-217,-176,-159,-164
-90,-159,-80,121,-10,-125,-56,-171,-217,-176,-159,-164
-90,-165,-80,127,-4,-125,-56,-165,-217,-176,-159,-164
-96,-189,-86,139,-4,-137,-56,-165,-217,-182,-165,-170
-102,-219,-98,151,-4,-167,-56,-159,-217,-194,-177,-182
-114,-255,-116,169,-4,-197,-44,-141,-217,-218,-189,-194
-120,-297,-152,199,1,-233,-14,-93,-211,-242,-225,-230
-120,-327,-188,217,13,-263,51,8,-193,-254,-255,-254
-120,-333,-194,223,19,-269,141,98,-151,-260,-273,-266
-132,-339,-194,229,19,-269,183,146,-133,-266,-285,-284
-144,-333,-170,229,7,-257,219,176,-115,-266,-285,-284
-144,-267,-128,217,1,-209,261,218,-61,-254,-273,-278
-138,-189,-86,175,-4,-143,303,260,4,-212,-231,-254
-126,-153,-68,145,-4,-113,345,308,64,-158,-177,-218
-108,-117,-56,109,-4,-89,393,428,178,-44,-87,-158
-24,-27,-32,25,-4,-41,465,620,394,135,68,-50
41,62,-8,-52,1,18,525,842,652,321,236,87
83,182,45,-124,1,102,555,962,838,507,416,231
161,356,141,-262,1,246,555,956,916,711,596,399
269,566,243,-430,1,408,477,710,922,897,794,585
365,818,405,-592,-4,612,291,332,922,1113,1004,771
395,1112,669,-760,-82,894,27,-171,862,1365,1268,1017
395,1436,1005,-898,-256,1218,-206,-609,832,1647,1544,1257
395,1730,1335,-1036,-442,1530,-446,-957,790,1869,1784,1473
377,1934,1587,-1120,-586,1752,-722,-1323,580,1917,1862,1593
359,2018,1713,-1156,-664,1854,-986,-1689,232,1893,1862,1617
299,2000,1713,-1144,-694,1848,-1202,-2025,-223,1581,1664,1593
173,1670,1563,-934,-694,1614,-1304,-2241,-727,1071,1238,1335
83,1286,1263,-688,-640,1272,-1322,-2283,-1081,531,752,981
29,1010,1047,-526,-562,1026,-1334,-2301,-1357,105,362,675
-36,794,879,-388,-508,846,-1340,-2289,-1537,-212,80,447
-66,578,687,-262,-418,630,-1310,-2103,-1537,-356,-75,291
-66,416,471,-208,-292,444,-1160,-1761,-1351,-374,-117,189
-60,272,291,-166,-172,282,-944,-1425,-1099,-374,-147,105
-54,104,129,-82,-100,108,-758,-1125,-889,-374,-189,15
-54,-4,39,-16,-58,12,-584,-873,-709,-362,-201,-38
-54,-33,21,13,-52,-17,-440,-651,-541,-320,-201,-62
-60,-63,15,43,-52,-29,-332,-489,-421,-260,-195,-68
-72,-99,9,73,-52,-41,-218,-333,-313,-206,-171,-68
-78,-111,3,85,-52,-53,-122,-225,-223,-164,-141,-68
-78,-117,-8,91,-46,-59,-62,-135,-169,-134,-129,-68
-78,-117,-8,91,-46,-59,-26,-93,-133,-122,-117,-68
-78,-117,-8,91,-40,-59,-8,-57,-103,-110,-105,-68
-78,-117,-8,91,-40,-59,3,-39,-85,-104,-99,-68
-78,-117,-8,91,-34,-59,9,-27,-73,-98,-93,-68
-78,-117,-14,91,-28,-59,15,-21,-67,-98,-93,-68
-78,-123,-20,97,-28,-65,21,-15,-67,-98,-93,-68
-90,-129,-20,103,-28,-71,21,-3,-67,-98,-93,-74
-90,-129,-26,103,-28,-77,27,8,-67,-98,-93,-80
-90,-129,-26,103,-28,-77,39,26,-61,-98,-93,-80
-90,-129,-32,103,-28,-77,51,38,-49,-98,-93,-80
-90,-129,-38,103,-28,-83,57,50,-43,-98,-93,-80
-90,-129,-44,103,-28,-89,63,56,-37,-98,-93,-86
-90,-135,-50,109,-28,-95,63,62,-31,-98,-93,-86
-90,-141,-50,115,-28,-101,63,68,-31,-98,-93,-92
-90,-141,-50,115,-22,-101,69,74,-25,-98,-93,-92
-84,-141,-50,115,-16,-101,69,80,-19,-92,-93,-92
-84,-141,-50,115,-16,-101,75,86,-13,-86,-93,-92
-84,-147,-50,115,-16,-101,75,92,-7,-86,-93,-92
-84,-147,-56,115,-16,-101,75,98,-7,-86,-93,-92
-78,-147,-62,109,-10,-101,75,98,-7,-86,-93,-92
-78,-147,-62,109,-10,-101,75,104,-1,-86,-93,-92
-84,-153,-62,121,-10,-107,75,104,-1,-86,-93,-98
-96,-165,-62,133,-10,-113,75,104,-1,-86,-93,-104
-96,-165,-62,133,-10,-113,75,104,10,-86,-93,-104
-96,-165,-62,133,-10,-113,81,110,16,-86,-93,-104
-90,-159,-62,127,-10,-113,81,116,22,-80,-93,-104
-78,-147,-62,109,-4,-107,87,128,28,-74,-87,-104
-72,-135,-62,97,-4,-107,93,140,34,-68,-81,-104
-72,-129,-62,91,-4,-107,99,146,40,-62,-69,-98
-72,-123,-56,91,-4,-101,105,152,46,-56,-57,-92
-72,-123,-56,91,-4,-101,105,158,52,-50,-51,-92
-78,-123,-56,97,-4,-101,105,158,58,-44,-51,-92
-78,-123,-56,97,-4,-95,111,164,64,-38,-45,-92
-72,-123,-56,97,-4,-95,111,170,76,-32,-39,-86
-66,-123,-56,91,1,-95,111,176,82,-26,-39,-86
-66,-123,-56,91,1,-95,111,182,88,-26,-39,-80
-66,-123,-56,91,1,-95,111,188,88,-26,-39,-80
-78,-135,-56,97,-4,-101,111,188,88,-26,-39,-80
-78,-135,-56,97,-4,-101,111,194,94,-26,-39,-80
-66,-123,-56,85,-4,-101,117,200,100,-20,-33,-74
-54,-111,-56,79,-4,-95,123,206,112,-14,-27,-74
-54,-105,-56,73,-4,-89,129,212,118,-8,-21,-74
-54,-105,-56,73,-4,-89,129,218,124,-8,-21,-68
-54,-105,-56,73,-4,-89,135,224,136,-8,-21,-68
-54,-105,-50,73,-4,-89,135,230,148,-2,-21,-68
-54,-105,-44,73,-4,-83,135,236,154,3,-21,-68
-48,-105,-44,73,-4,-83,141,242,160,9,-15,-68
-42,-99,-44,67,1,-83,141,248,166,15,-9,-62
-42,-93,-44,61,7,-77,147,260,172,21,-3,-56
-42,-87,-44,61,7,-71,147,272,178,27,2,-50
-42,-81,-44,61,7,-65,147,278,184,33,8,-44
-42,-75,-38,61,7,-59,153,284,190,39,14,-38
-36,-63,-38,49,7,-59,159,296,202,45,20,-38
-18,-51,-38,31,13,-53,159,302,214,51,26,-32
-12,-45,-38,25,13,-53,159,308,220,51,32,-32
-12,-45,-38,25,13,-53,159,308,226,57,32,-32
-12,-45,-38,25,13,-53,159,314,232,63,38,-32
-12,-39,-32,25,13,-47,165,332,250,75,44,-20
-12,-39,-26,25,13,-41,171,350,262,87,56,-14
-12,-39,-26,25,13,-35,171,356,274,93,56,-8
-12,-39,-26,25,13,-35,171,362,280,99,56,-8
-12,-39,-26,25,13,-35,171,368,286,105,62,-8
-12,-39,-26,19,13,-35,171,374,298,105,68,-2
-12,-39,-26,13,13,-35,171,380,310,111,74,3
-6,-33,-26,13,13,-35,171,392,316,117,80,3
-6,-27,-20,7,13,-29,177,404,322,123,86,9
-6,-21,-14,7,13,-23,183,416,334,135,98,15
-1,-9,-8,1,13,-17,189,440,358,147,110,21
11,20,-3,-22,13,-6,195,464,388,171,122,33
23,32,-3,-34,13,6,195,476,400,183,134,45
23,38,-3,-40,13,12,195,488,412,195,140,51
23,38,3,-40,13,18,195,500,436,201,146,57
23,50,9,-46,13,24,201,512,448,207,152,69
23,56,15,-46,13,30,207,524,466,219,164,81
29,62,21,-52,13,36,207,536,472,231,176,87
41,68,21,-58,19,36,207,536,478,237,182,93
47,68,21,-58,19,36,207,542,484,243,188,99
47,68,21,-58,19,36,207,548,496,249,194,105
59,80,21,-70,19,42,213,560,514,255,206,117
71,92,21,-82,25,48,213,572,526,267,212,129
71,98,21,-88,25,48,213,578,538,273,218,135
77,104,21,-94,25,54,213,590,550,279,224,141
89,116,21,-106,31,60,213,596,562,291,236,147
95,122,21,-112,37,60,213,602,580,303,248,153
95,128,21,-118,37,60,213,608,586,315,254,159
95,128,21,-118,37,66,213,614,598,327,266,165
95,128,21,-118,37,72,213,620,604,333,272,171
101,134,21,-124,37,78,213,620,610,339,278,177
107,152,27,-136,37,90,213,632,622,351,290,189
113,170,39,-142,37,102,213,644,646,363,302,201
119,176,45,-148,37,102,213,650,652,369,308,207
119,176,45,-148,37,108,207,650,658,375,314,213
125,182,45,-154,37,114,201,650,664,381,320,219
137,194,45,-166,37,120,201,650,664,387,326,225
149,200,45,-178,43,126,195,650,664,387,332,225
155,206,45,-184,43,126,195,650,664,393,332,225
161,212,45,-190,43,126,195,650,670,393,338,231
167,218,45,-202,49,126,195,650,676,399,344,237
167,224,51,-202,49,132,195,650,682,405,350,243
161,224,57,-202,49,132,189,650,682,405,350,249
161,230,57,-208,55,132,183,650,682,411,356,249
173,254,57,-220,61,138,177,650,688,417,368,255
179,254,57,-220,61,144,171,650,688,423,368,261
179,254,57,-226,61,150,165,644,688,423,368,261
185,260,63,-232,61,156,159,638,688,423,368,267
185,260,69,-232,61,162,153,626,688,423,368,267
185,260,69,-232,61,162,147,614,676,423,368,267
185,260,69,-232,61,162,141,602,664,423,368,267
179,260,75,-232,55,168,135,590,652,423,368,267
173,260,81,-232,55,168,129,578,640,417,368,267
167,260,87,-232,55,168,123,554,616,417,362,267
167,260,87,-232,55,168,117,530,592,411,362,267
161,260,93,-226,49,168,117,512,574,399,356,267
155,254,99,-220,43,168,111,476,544,387,344,261
155,254,99,-214,43,168,105,446,502,363,326,249
155,254,99,-214,43,168,99,416,472,339,314,243
155,254,99,-214,43,168,99,398,454,327,302,237
155,254,99,-214,43,168,99,374,424,321,290,231
149,236,93,-202,43,162,93,344,382,297,260,213
119,200,87,-166,37,150,81,314,346,261,230,177
107,182,87,-154,31,138,69,284,316,231,200,159
107,182,87,-154,31,132,63,272,298,219,188,147
107,176,81,-154,31,126,57,242,262,207,176,135
101,158,75,-136,25,114,45,212,220,177,158,117
71,128,75,-106,13,102,39,176,190,147,134,93
59,110,69,-88,7,90,33,146,160,123,122,81
53,92,63,-76,7,78,27,122,130,99,98,69
41,62,51,-64,7,60,21,98,100,81,74,51
23,50,45,-52,1,48,15,80,76,63,62,27
11,44,45,-40,-4,42,15,68,64,51,50,15
5,38,45,-34,-4,36,15,56,52,39,38,9
5,38,33,-34,-4,36,15,44,28,27,26,-2
5,32,27,-34,-4,24,15,32,-1,3,8,-14
-1,20,21,-22,-4,12,9,20,-13,-14,-3,-26
-6,2,15,-10,-4,0,3,2,-25,-26,-15,-38
-18,-9,15,1,-10,-6,3,-9,-37,-32,-21,-44
-24,-15,15,7,-10,-6,3,-15,-43,-38,-27,-50
-24,-15,9,7,-4,-11,3,-21,-49,-44,-33,-50
-24,-27,-3,13,1,-17,-2,-33,-67,-62,-51,-56
-30,-39,-8,19,1,-29,-8,-45,-85,-74,-69,-68
-30,-45,-14,25,1,-35,-8,-51,-97,-80,-75,-74
-30,-45,-14,25,1,-35,-8,-57,-103,-86,-81,-80
-30,-51,-20,31,1,-41,-8,-63,-109,-92,-87,-86
-30,-63,-26,37,1,-53,-14,-75,-115,-98,-93,-92
-36,-81,-38,49,1,-65,-26,-87,-121,-110,-105,-98
-36,-87,-38,55,1,-65,-26,-87,-127,-116,-105,-104
-36,-87,-38,55,1,-65,-26,-87,-127,-116,-105,-104
-36,-87,-38,55,1,-65,-26,-87,-127,-116,-105,-104
-36,-87,-38,55,1,-65,-26,-87,-133,-116,-105,-104
-36,-87,-38,55,1,-65,-26,-87,-139,-116,-105,-104
-36,-87,-38,55,1,-65,-26,-87,-139,-116,-105,-104
-36,-87,-38,55,1,-65,-26,-87,-139,-116,-105,-104
-42,-87,-38,55,-4,-65,-26,-87,-139,-116,-105,-104
-48,-87,-38,55,-4,-65,-26,-87,-139,-116,-105,-104
-48,-87,-38,55,-4,-65,-26,-87,-139,-116,-105,-104
-48,-87,-38,55,-4,-65,-26,-87,-139,-116,-105,-104
-48,-87,-38,55,-4,-65,-26,-87,-139,-116,-105,-104
-48,-87,-38,55,-4,-65,-26,-87,-139,-116,-105,-104
-48,-87,-38,55,-4,-65,-26,-87,-139,-116,-105,-104
-48,-87,-38,55,-4,-65,-26,-87,-139,-116,-105,-104
-48,-87,-38,55,-4,-65,-26,-87,-139,-116,-105,-104
-48,-87,-38,55,-4,-65,-26,-87,-139,-116,-105,-104
-48,-87,-38,55,-4,-65,-26,-87,-139,-116,-105,-110
-48,-87,-38,55,-4,-65,-26,-87,-139,-116,-105,-110
-48,-87,-38,55,-4,-65,-26,-87,-139,-116,-105,-110
-48,-87,-38,55,-4,-65,-26,-87,-139,-116,-105,-110
-48,-81,-38,55,-4,-65,-26,-87,-139,-116,-105,-110
-42,-75,-38,55,-4,-65,-26,-87,-139,-116,-105,-110
-42,-75,-38,55,-4,-65,-26,-87,-139,-116,-105,-110
-42,-75,-38,55,-4,-65,-26,-87,-139,-116,-105,-110
-42,-75,-38,55,-4,-65,-26,-87,-139,-116,-105,-110
-30,-69,-38,49,1,-65,-26,-81,-139,-116,-105,-110
-30,-69,-38,43,1,-65,-26,-81,-139,-116,-105,-110
-36,-69,-32,49,1,-65,-26,-81,-133,-116,-105,-110
-42,-75,-26,55,-4,-65,-26,-81,-133,-116,-105,-110
-42,-75,-26,55,-4,-65,-26,-81,-127,-116,-105,-110
-42,-75,-32,55,-4,-65,-26,-81,-127,-116,-105,-110
-42,-81,-32,55,-4,-65,-26,-81,-127,-116,-105,-110
-48,-87,-32,61,-10,-65,-26,-81,-127,-116,-105,-110
-48,-87,-32,61,-10,-65,-26,-81,-127,-116,-105,-110
-48,-87,-32,61,-10,-65,-26,-75,-127,-116,-105,-110
-48,-87,-32,61,-10,-65,-26,-75,-127,-116,-105,-110
-48,-87,-32,61,-10,-65,-26,-75,-127,-116,-105,-110
-48,-87,-32,61,-10,-65,-26,-75,-127,-116,-105,-110
-48,-87,-32,61,-10,-65,-26,-75,-127,-116,-105,-110
-48,-87,-32,61,-10,-65,-26,-75,-127,-116,-105,-110
-54,-87,-26,67,-16,-65,-26,-75,-127,-116,-105,-110
-54,-87,-26,67,-16,-65,-26,-75,-127,-116,-105,-110
-54,-87,-26,67,-16,-65,-26,-75,-127,-116,-105,-110
-48,-81,-26,61,-10,-65,-26,-75,-127,-116,-105,-110
-42,-75,-26,55,-10,-65,-26,-75,-127,-116,-105,-110
-42,-75,-26,55,-10,-65,-26,-75,-127,-116,-105,-110
-48,-81,-26,61,-10,-65,-26,-75,-127,-116,-105,-110
-60,-81,-26,67,-16,-65,-26,-75,-127,-116,-105,-110
-60,-81,-32,67,-16,-65,-26,-75,-127,-116,-105,-110
-60,-81,-38,67,-10,-65,-26,-75,-127,-116,-105,-110
-60,-87,-38,67,-10,-65,-26,-75,-127,-116,-111,-110
-60,-87,-38,67,-10,-65,-26,-75,-127,-116,-111,-110
-54,-81,-38,61,-10,-59,-26,-75,-127,-116,-111,-110
-48,-75,-38,55,-10,-53,-26,-75,-127,-116,-111,-110
-48,-75,-38,55,-10,-53,-26,-75,-127,-116,-111,-110
-48,-75,-38,55,-10,-53,-26,-75,-127,-116,-111,-110
-48,-75,-38,55,-10,-53,-26,-75,-127,-116,-111,-110
-42,-69,-38,55,-10,-53,-26,-75,-127,-116,-111,-110
-42,-69,-38,55,-4,-53,-26,-75,-127,-116,-111,-110
-42,-69,-38,55,-4,-53,-26,-75,-127,-116,-111,-110
-42,-69,-38,55,-4,-53,-26,-75,-127,-116,-111,-110
-48,-75,-38,61,-4,-53,-26,-75,-127,-116,-111,-110
-48,-81,-44,61,-4,-59,-26,-75,-127,-122,-117,-110
-48,-81,-44,61,-4,-59,-26,-75,-127,-122,-117,-110
-36,-75,-44,49,1,-59,-26,-75,-127,-122,-117,-110
-30,-69,-44,43,1,-59,-26,-75,-127,-122,-117,-110
-30,-69,-44,43,1,-59,-26,-75,-127,-122,-117,-110
-30,-69,-44,43,1,-59,-26,-75,-127,-128,-117,-116
-30,-69,-50,43,1,-59,-32,-75,-133,-134,-117,-122
-30,-69,-50,43,1,-59,-32,-75,-133,-134,-117,-122
-30,-69,-50,49,1,-59,-32,-75,-133,-134,-117,-122
-30,-69,-50,49,1,-59,-32,-75,-133,-134,-117,-122
-30,-69,-50,49,1,-59,-32,-75,-133,-134,-117,-122
-36,-81,-50,55,1,-59,-32,-75,-133,-134,-117,-122
-48,-93,-50,67,1,-65,-32,-75,-133,-134,-117,-122
-54,-93,-50,73,-4,-65,-32,-81,-133,-134,-117,-122
-54,-93,-50,73,-4,-65,-32,-81,-133,-134,-117,-122
-42,-87,-50,67,1,-65,-32,-81,-133,-134,-117,-122
-36,-81,-50,67,1,-65,-32,-81,-133,-134,-117,-122
-36,-81,-50,67,1,-65,-32,-81,-139,-134,-117,-122
-36,-81,-50,67,1,-65,-32,-87,-145,-134,-117,-128
-36,-81,-50,67,7,-65,-32,-87,-145,-134,-117,-128
-36,-81,-50,67,7,-65,-32,-87,-145,-134,-117,-128
-36,-81,-50,67,7,-65,-32,-87,-145,-134,-117,-128
-36,-81,-50,67,7,-65,-32,-93,-145,-134,-117,-128
-36,-81,-56,67,13,-71,-38,-99,-151,-140,-123,-128
-36,-87,-62,67,13,-71,-38,-105,-151,-140,-129,-128
-36,-87,-62,67,13,-71,-44,-105,-151,-140,-129,-128
-36,-87,-62,67,13,-71,-44,-105,-151,-140,-129,-128
-36,-87,-62,67,7,-71,-44,-105,-151,-140,-129,-128
-42,-87,-62,67,7,-71,-44,-111,-157,-140,-129,-128
-42,-87,-62,67,7,-71,-44,-111,-157,-140,-129,-128
-42,-87,-62,67,7,-71,-44,-111,-157,-140,-129,-128
-42,-87,-62,67,7,-71,-44,-111,-157,-140,-129,-128
-48,-93,-62,67,7,-71,-44,-111,-157,-140,-129,-128
-54,-99,-62,73,7,-71,-44,-111,-163,-140,-129,-128
-60,-105,-62,79,1,-71,-44,-111,-163,-140,-129,-128
-60,-105,-56,85,1,-71,-44,-111,-163,-140,-129,-128
-60,-105,-56,85,1,-71,-44,-111,-163,-140,-129,-128
-48,-105,-56,79,1,-71,-44,-111,-163,-140,-129,-128
-48,-99,-56,73,1,-71,-44,-111,-163,-140,-129,-128
-48,-99,-56,73,1,-71,-44,-111,-163,-140,-129,-128
-48,-105,-56,73,1,-77,-50,-117,-169,-146,-135,-134
-48,-105,-62,73,1,-83,-56,-123,-175,-146,-141,-134
-48,-105,-62,73,1,-83,-56,-123,-175,-146,-141,-134
-48,-105,-62,73,1,-83,-56,-123,-175,-146,-141,-134
-42,-105,-68,73,7,-83,-56,-129,-175,-146,-141,-134
-30,-105,-74,67,13,-83,-56,-129,-175,-146,-141,-134
-24,-105,-74,67,13,-83,-56,-129,-175,-146,-141,-134
-24,-105,-68,67,13,-83,-56,-129,-175,-146,-141,-134
-24,-105,-68,67,13,-83,-56,-129,-175,-146,-141,-134
-24,-105,-68,67,13,-83,-56,-129,-175,-146,-141,-134
-24,-105,-68,67,13,-83,-56,-129,-175,-146,-141,-134
-24,-105,-68,67,13,-83,-56,-129,-175,-146,-141,-134
-24,-105,-68,67,13,-83,-56,-129,-175,-146,-141,-134
-24,-105,-68,67,13,-83,-56,-129,-175,-146,-141,-134
-24,-105,-68,67,13,-83,-56,-129,-175,-146,-141,-134
-24,-105,-68,67,13,-83,-56,-129,-175,-146,-141,-134
-30,-105,-68,67,13,-83,-56,-129,-175,-146,-141,-134
-36,-105,-68,67,13,-83,-56,-129,-175,-146,-141,-134
-36,-105,-62,67,13,-77,-56,-129,-175,-146,-141,-134
-30,-99,-62,61,13,-71,-50,-123,-169,-146,-135,-128
-24,-87,-56,49,13,-59,-38,-117,-163,-140,-123,-122
-18,-75,-50,37,13,-47,-26,-111,-151,-128,-111,-110
-18,-69,-44,37,13,-41,-20,-105,-151,-122,-111,-104
-24,-63,-14,37,1,-35,-14,-99,-145,-122,-105,-98
-24,-33,9,31,-10,-17,-2,-93,-139,-116,-99,-92
-24,-21,15,25,-16,-6,3,-87,-133,-110,-99,-92
-24,-15,15,19,-16,0,3,-87,-133,-110,-99,-92
-12,-9,15,7,-10,0,3,-87,-133,-110,-99,-86
-6,-9,9,1,-10,6,3,-87,-133,-110,-99,-86
-6,-4,9,-4,-10,12,9,-81,-127,-110,-93,-86
-6,8,15,-10,-10,24,21,-69,-121,-98,-87,-74
-6,20,27,-16,-10,36,33,-57,-115,-86,-81,-68
-6,32,33,-16,-10,42,39,-51,-109,-80,-75,-62
-6,32,33,-16,-10,42,39,-51,-109,-80,-75,-62
-1,32,33,-16,-10,42,33,-51,-109,-80,-75,-62
5,44,39,-28,-10,48,33,-51,-109,-80,-69,-62
17,86,45,-52,-10,66,33,-51,-109,-74,-63,-50
35,110,51,-70,-10,78,27,-57,-109,-68,-57,-44
41,116,51,-76,-10,84,15,-69,-109,-68,-57,-44
41,116,51,-76,-10,84,3,-81,-115,-68,-57,-44
41,116,51,-76,-10,84,-8,-93,-121,-68,-57,-44
41,116,57,-76,-10,84,-20,-105,-127,-68,-57,-38
41,116,63,-76,-10,84,-26,-111,-133,-68,-57,-38
41,116,63,-76,-10,84,-32,-117,-133,-68,-57,-38
41,116,63,-76,-10,84,-38,-123,-133,-68,-57,-38
41,116,63,-76,-10,84,-44,-123,-133,-68,-57,-38
41,110,63,-76,-10,84,-50,-123,-133,-68,-57,-38
35,98,63,-70,-10,78,-50,-123,-133,-68,-57,-38
35,92,51,-70,-10,72,-50,-123,-133,-68,-57,-38
41,86,39,-70,1,66,-50,-123,-133,-68,-57,-38
41,80,27,-70,7,60,-50,-123,-133,-68,-57,-38
41,74,15,-70,13,54,-50,-117,-133,-68,-57,-38
41,68,9,-70,19,48,-50,-117,-133,-68,-57,-38
41,62,3,-70,19,42,-50,-117,-133,-68,-57,-38
41,50,-8,-64,25,30,-50,-117,-133,-68,-57,-38
41,20,-20,-52,31,0,-50,-117,-133,-74,-69,-44
29,-9,-32,-22,31,-23,-56,-123,-139,-86,-81,-56
17,-27,-38,1,31,-29,-56,-129,-145,-98,-93,-68
5,-39,-44,13,31,-35,-56,-135,-151,-110,-99,-74
-6,-63,-44,31,31,-41,-56,-141,-163,-122,-105,-80
-18,-81,-56,43,31,-53,-62,-147,-175,-128,-111,-86
-18,-93,-68,49,31,-65,-68,-153,-187,-140,-123,-98
-24,-99,-68,61,31,-71,-68,-159,-193,-146,-129,-104
-36,-111,-68,73,25,-83,-68,-165,-199,-152,-135,-110
-36,-117,-74,73,25,-89,-68,-171,-205,-158,-141,-116
-36,-117,-74,73,25,-89,-68,-171,-205,-158,-141,-116
-36,-117,-74,79,25,-95,-68,-171,-205,-158,-141,-116
-42,-123,-74,85,25,-101,-68,-171,-205,-164,-147,-122
-42,-123,-74,85,25,-101,-68,-171,-205,-164,-153,-122
-42,-123,-74,85,25,-101,-68,-171,-205,-164,-159,-122
-42,-123,-74,85,25,-101,-68,-171,-205,-164,-159,-122
-42,-129,-80,91,25,-107,-68,-171,-205,-164,-159,-128
-42,-135,-86,97,25,-113,-68,-177,-211,-170,-159,-134
-42,-141,-92,97,25,-113,-68,-177,-217,-170,-159,-140
-42,-141,-92,97,25,-113,-68,-177,-217,-170,-159,-140
-42,-141,-92,97,25,-113,-68,-177,-217,-170,-159,-140
-42,-141,-92,97,25,-113,-68,-177,-217,-170,-159,-140
-42,-141,-92,97,25,-113,-68,-177,-217,-170,-159,-140
-48,-147,-98,97,25,-119,-68,-177,-217,-170,-165,-140
-54,-153,-98,103,25,-125,-68,-177,-217,-170,-165,-140
-54,-153,-104,103,25,-131,-68,-177,-217,-170,-165,-140
-54,-153,-110,103,25,-131,-68,-177,-217,-170,-165,-146
-54,-153,-110,103,25,-137,-68,-177,-217,-176,-165,-146
-60,-159,-110,109,25,-137,-68,-177,-217,-182,-165,-146
-66,-165,-110,115,25,-137,-68,-177,-217,-182,-165,-146
-66,-171,-110,115,25,-137,-68,-177,-217,-182,-165,-152
-66,-171,-110,115,31,-137,-68,-177,-217,-182,-165,-152
-66,-171,-110,121,31,-137,-68,-177,-217,-182,-165,-152
-66,-171,-110,121,31,-137,-68,-177,-217,-182,-165,-152
-66,-171,-110,121,31,-137,-68,-177,-217,-182,-165,-152
-66,-171,-110,121,31,-137,-68,-177,-217,-182,-165,-152
-66,-171,-110,115,31,-137,-68,-177,-217,-182,-165,-152
-66,-165,-110,115,31,-137,-68,-177,-217,-182,-165,-152
-66,-165,-110,115,31,-137,-68,-177,-217,-182,-165,-152
-66,-165,-110,115,31,-137,-68,-177,-217,-182,-165,-152
-72,-177,-110,127,31,-143,-74,-177,-217,-182,-171,-152
-72,-183,-110,133,31,-149,-74,-177,-217,-188,-177,-152
-72,-189,-122,133,37,-155,-74,-177,-217,-194,-177,-152
-72,-201,-122,145,37,-161,-68,-165,-217,-200,-183,-158
-84,-219,-128,157,37,-167,-44,-141,-217,-206,-189,-164
-90,-249,-152,163,37,-197,-8,-93,-211,-218,-213,-188
-90,-291,-194,181,37,-233,39,-3,-199,-248,-243,-218
-96,-321,-212,205,37,-251,123,74,-169,-260,-273,-260
-102,-321,-212,211,37,-251,183,140,-133,-266,-285,-278
-102,-309,-200,211,37,-245,219,182,-97,-266,-285,-284
-102,-285,-188,205,37,-233,231,200,-67,-266,-285,-284
-108,-273,-158,199,31,-215,243,224,-37,-254,-273,-278
-108,-231,-116,187,19,-173,285,266,16,-200,-225,-242
-78,-123,-86,109,19,-113,357,398,142,-74,-117,-158
5,-27,-74,7,31,-59,435,554,322,81,32,-44
53,44,-56,-52,37,0,501,764,550,267,194,81
95,146,-14,-124,37,72,537,920,772,465,374,213
185,314,81,-250,37,204,537,926,892,657,548,369
317,560,189,-424,43,372,477,770,922,855,746,543
419,818,333,-610,43,588,333,446,928,1071,968,741
461,1112,597,-778,-10,858,105,-15,910,1323,1226,981
467,1412,915,-922,-172,1164,-146,-477,874,1599,1502,1227
467,1682,1221,-1036,-346,1452,-386,-849,832,1833,1742,1437
425,1904,1521,-1114,-538,1716,-632,-1209,616,1899,1844,1593
365,2018,1701,-1144,-664,1866,-872,-1551,298,1887,1850,1641
311,2012,1707,-1144,-694,1866,-1094,-1905,-145,1629,1706,1629
209,1736,1581,-970,-694,1662,-1220,-2163,-655,1113,1268,1377
83,1322,1287,-694,-658,1308,-1262,-2247,-1045,561,776,993
23,1010,1041,-514,-568,1026,-1292,-2265,-1327,117,374,669
5,842,873,-418,-484,858,-1310,-2265,-1531,-200,92,453
-6,650,687,-316,-394,672,-1304,-2145,-1537,-350,-63,297
-12,440,483,-214,-280,456,-1184,-1833,-1405,-374,-123,189
-12,290,309,-154,-184,300,-998,-1491,-1159,-374,-159,117
-12,146,171,-94,-118,162,-794,-1185,-949,-374,-189,39
-18,26,63,-16,-70,42,-626,-927,-763,-374,-201,-14
-30,-39,15,31,-52,-17,-470,-699,-613,-344,-207,-44
-48,-75,-3,73,-52,-35,-338,-519,-463,-284,-201,-56
-84,-93,-3,97,-52,-41,-236,-369,-349,-230,-189,-62
-84,-99,-8,97,-52,-47,-152,-243,-253,-182,-165,-62
-78,-99,-14,97,-40,-53,-98,-153,-169,-152,-141,-62
-78,-99,-20,97,-28,-53,-62,-111,-127,-134,-129,-62
-72,-99,-26,91,-16,-53,-38,-81,-109,-122,-117,-62
-72,-99,-32,91,-10,-53,-26,-57,-97,-116,-117,-62
-72,-105,-38,91,-4,-59,-20,-51,-91,-116,-117,-68
-72,-111,-50,91,-4,-71,-20,-45,-91,-116,-117,-68
-72,-111,-56,91,1,-77,-8,-39,-91,-116,-117,-68
-66,-111,-56,85,1,-77,3,-21,-85,-116,-117,-68
-66,-105,-56,79,1,-77,21,8,-67,-110,-117,-68
-66,-105,-56,79,1,-77,33,20,-55,-110,-111,-68
-66,-111,-62,85,1,-77,45,32,-43,-110,-111,-74
-66,-117,-62,91,1,-83,51,44,-37,-104,-111,-80
-66,-117,-68,91,1,-83,51,50,-31,-98,-111,-80
-66,-117,-68,97,1,-83,57,56,-25,-98,-111,-86
-66,-123,-68,103,1,-89,57,56,-25,-98,-111,-92
-66,-123,-74,103,1,-89,57,62,-25,-98,-111,-92
-66,-123,-74,103,1,-89,57,68,-19,-98,-105,-92
-66,-129,-74,103,1,-95,57,74,-19,-98,-105,-92
-66,-141,-80,103,1,-101,57,74,-19,-98,-105,-92
-66,-153,-86,109,1,-107,57,74,-19,-98,-105,-98
-66,-153,-86,109,1,-113,57,74,-19,-98,-105,-98
-60,-147,-86,103,7,-113,63,80,-13,-98,-105,-98
-54,-141,-86,103,13,-113,69,86,-7,-98,-105,-98
-60,-147,-86,103,13,-119,69,86,-1,-98,-105,-98
-66,-147,-86,103,13,-119,69,92,-1,-98,-105,-98
-66,-147,-86,103,13,-119,69,98,4,-92,-99,-92
-66,-147,-86,103,13,-119,69,104,10,-86,-99,-92
-66,-147,-86,103,13,-119,75,110,16,-86,-99,-92
-60,-147,-86,103,13,-119,81,122,22,-86,-99,-92
-54,-141,-92,97,19,-119,81,128,28,-86,-99,-92
-42,-135,-92,91,19,-119,81,134,34,-80,-93,-86
-42,-129,-92,91,19,-113,87,140,40,-74,-87,-80
-42,-123,-92,91,19,-113,87,146,46,-74,-87,-80
-42,-123,-92,85,19,-113,93,152,52,-68,-81,-74
-42,-117,-92,85,19,-107,99,158,58,-62,-69,-68
-42,-117,-92,85,19,-101,105,164,58,-56,-69,-62
-42,-117,-92,85,19,-101,105,164,58,-50,-69,-56
-42,-117,-92,79,19,-101,105,170,70,-44,-63,-50
-42,-117,-86,73,19,-101,111,176,82,-38,-63,-44
-42,-111,-80,73,19,-101,117,182,94,-38,-57,-38
-36,-105,-80,67,19,-101,117,188,100,-32,-57,-32
-30,-105,-80,61,19,-101,117,194,106,-26,-57,-26
-24,-99,-80,55,25,-101,117,200,112,-26,-57,-26
-24,-99,-80,55,25,-101,117,206,118,-26,-57,-26
-24,-99,-80,55,25,-101,117,212,124,-20,-57,-26
-12,-93,-80,49,31,-95,117,218,130,-14,-51,-20
-6,-87,-80,49,37,-89,117,224,136,-8,-45,-14
-6,-87,-80,49,37,-89,117,230,142,-2,-39,-14
-1,-81,-80,49,43,-83,123,236,148,3,-33,-8
-1,-81,-80,43,43,-83,123,242,154,9,-33,-2
-6,-81,-80,43,37,-77,123,254,166,9,-27,-2
-12,-81,-74,43,31,-77,123,266,178,15,-21,3
-12,-75,-74,43,31,-71,123,272,190,21,-9,3
-12,-75,-74,43,31,-71,123,278,202,33,-3,3
-12,-75,-68,43,31,-65,123,290,208,45,2,9
-6,-63,-62,37,31,-59,123,302,214,51,8,9
-1,-57,-62,31,31,-59,129,314,220,57,14,9
-1,-51,-56,25,31,-59,135,320,226,57,20,9
-1,-45,-56,25,31,-53,141,326,238,63,26,15
-1,-45,-56,25,31,-53,147,332,250,69,32,21
-1,-45,-56,25,31,-53,147,344,256,75,38,27
-1,-39,-50,19,31,-47,147,350,268,81,44,33
5,-27,-50,7,31,-41,147,362,280,93,56,39
17,-21,-50,1,31,-35,153,374,292,105,62,45
17,-15,-44,-4,31,-35,153,380,304,111,68,51
17,-15,-44,-4,31,-35,153,386,310,117,74,51
17,-15,-44,-4,31,-35,153,392,316,123,80,57
17,-9,-44,-4,31,-29,159,404,328,129,86,63
17,-9,-44,-4,31,-23,159,416,340,135,92,75
17,-9,-44,-4,31,-23,159,428,352,141,98,81
23,-4,-44,-16,31,-17,165,440,364,147,104,87
59,26,-44,-52,43,-11,171,452,382,159,116,87
83,44,-44,-70,49,0,171,464,406,171,122,93
83,50,-38,-76,49,6,177,482,418,183,134,99
83,56,-26,-76,43,18,177,500,442,195,146,111
77,62,-14,-76,43,24,177,512,454,207,158,135
77,68,-14,-76,43,30,177,524,466,219,164,147
83,74,-14,-82,49,36,177,530,478,231,176,159
89,86,-14,-88,49,42,183,542,490,243,182,171
89,92,-8,-94,49,48,183,548,502,249,188,177
89,98,-8,-100,49,54,183,554,508,255,200,183
95,110,-8,-106,49,54,183,560,520,261,212,189
113,122,-8,-118,49,54,183,572,532,273,224,201
125,128,-8,-124,55,54,183,578,544,285,230,207
131,134,-8,-130,55,54,183,584,556,291,236,219
137,140,-8,-136,61,60,183,590,562,297,242,231
137,146,-8,-142,61,66,183,596,574,303,248,243
137,146,-3,-142,61,72,183,602,580,309,260,249
143,146,-3,-148,67,72,183,608,586,315,266,255
149,152,-3,-154,73,78,183,608,592,315,272,261
161,164,-3,-166,73,84,183,614,604,327,284,273
161,176,9,-172,73,96,183,620,616,339,290,285
161,182,21,-172,73,102,183,626,628,351,296,291
161,188,27,-178,73,102,183,626,634,357,302,297
173,206,33,-190,73,114,183,632,640,369,314,309
185,224,33,-202,73,126,183,638,652,381,326,321
191,230,33,-208,73,132,177,638,658,387,332,327
191,230,33,-208,73,132,171,638,658,387,332,333
191,230,33,-208,73,132,165,638,658,387,332,333
197,230,33,-214,79,132,165,638,658,387,332,339
197,230,33,-214,79,132,159,638,658,387,338,345
197,230,33,-214,79,132,159,638,658,387,338,345
197,230,33,-214,79,132,153,638,658,387,338,345
197,230,33,-214,79,132,141,632,658,387,338,345
197,230,33,-214,79,132,129,620,652,387,338,345
197,230,39,-214,79,132,123,614,652,387,338,351
197,242,51,-220,79,144,123,614,652,393,344,357
197,248,57,-220,73,156,123,602,652,393,350,363
191,248,63,-220,67,156,123,590,646,393,350,363
191,254,63,-220,67,156,117,578,634,393,350,363
191,260,63,-220,67,156,117,554,610,387,350,363
191,266,63,-220,67,162,117,542,598,387,350,363
191,266,69,-220,67,168,111,524,586,381,344,363
191,266,69,-220,67,168,105,506,556,369,338,363
191,266,69,-226,67,168,99,494,544,363,332,363
191,266,69,-226,67,168,93,464,514,357,326,357
185,260,69,-220,61,168,81,434,484,345,314,351
161,248,69,-208,49,168,69,398,454,333,302,339
149,236,69,-196,43,162,63,374,424,315,278,327
143,224,69,-184,43,156,57,338,382,285,266,303
137,212,63,-178,43,144,51,308,346,255,236,279
125,188,63,-160,37,132,39,266,304,225,206,255
107,158,57,-136,31,120,27,236,262,189,176,237
95,140,57,-124,25,108,21,218,238,171,158,225
95,140,51,-124,25,102,15,206,214,159,146,219
101,140,45,-124,31,96,9,188,196,141,128,207
101,140,45,-124,31,90,9,176,184,129,116,195
89,128,45,-106,25,84,9,146,148,111,104,177
65,92,39,-88,19,72,3,116,112,87,80,165
65,80,27,-82,19,60,3,92,82,63,62,147
65,74,15,-76,19,54,3,74,64,39,38,129
59,68,9,-70,19,48,3,62,52,27,26,117
41,50,3,-52,13,36,-2,38,22,9,14,111
35,38,-3,-40,13,24,-8,26,-7,-8,-3,99
35,32,-3,-40,13,18,-14,14,-19,-14,-9,87
35,26,-3,-34,13,12,-14,8,-25,-20,-21,75
23,8,-8,-22,13,0,-20,-3,-37,-32,-33,69
23,-4,-20,-16,13,-11,-26,-15,-55,-44,-45,57
23,-9,-26,-16,13,-17,-26,-21,-61,-56,-51,51
17,-15,-26,-10,13,-23,-26,-27,-67,-62,-57,45
11,-27,-32,1,13,-29,-26,-39,-73,-68,-63,39
5,-39,-38,7,13,-35,-26,-51,-85,-80,-69,33
-1,-51,-38,13,13,-41,-32,-57,-97,-92,-75,27
-12,-63,-38,25,13,-47,-38,-63,-103,-98,-81,21
-24,-69,-38,37,13,-53,-38,-69,-109,-104,-87,15
-30,-75,-38,43,13,-53,-38,-69,-115,-110,-93,9
-36,-81,-38,49,7,-59,-38,-75,-121,-116,-99,9
-42,-87,-38,55,7,-65,-38,-81,-127,-122,-105,3
-42,-87,-44,55,7,-65,-38,-87,-133,-122,-111,-2
-42,-87,-44,55,7,-65,-38,-87,-133,-122,-117,-2
-42,-87,-44,55,7,-65,-38,-87,-133,-122,-117,-2
-42,-87,-44,55,7,-65,-38,-87,-133,-122,-117,-2
-42,-87,-44,55,7,-65,-38,-87,-133,-122,-117,-2
-42,-87,-44,55,7,-65,-38,-87,-133,-122,-117,-2
-36,-87,-44,55,7,-65,-38,-87,-133,-122,-117,-2
-36,-87,-44,55,7,-65,-38,-87,-139,-122,-117,-2
-36,-87,-44,55,7,-65,-38,-87,-139,-122,-117,-2
-36,-81,-44,49,7,-65,-38,-87,-139,-122,-117,-2
-36,-81,-44,49,7,-65,-38,-87,-139,-122,-117,-2
-36,-81,-44,49,7,-65,-38,-87,-139,-122,-117,-2
-36,-81,-44,55,7,-65,-38,-87,-139,-122,-117,-2
-36,-81,-44,55,7,-65,-38,-87,-139,-122,-117,-2
-36,-81,-44,55,7,-65,-38,-87,-139,-122,-117,-2
-36,-81,-44,55,7,-65,-38,-87,-139,-122,-123,-2
-36,-81,-44,55,7,-65,-38,-87,-139,-122,-123,-2
-36,-81,-44,55,7,-65,-38,-87,-139,-122,-123,-2
-36,-81,-44,55,7,-65,-38,-87,-139,-122,-123,-2
-36,-81,-44,55,7,-65,-38,-87,-139,-122,-123,-2
-36,-81,-44,55,7,-65,-38,-87,-139,-122,-123,-2
-36,-81,-44,55,7,-65,-38,-87,-139,-122,-123,-2
-36,-81,-44,55,7,-65,-38,-87,-139,-122,-123,-2
-36,-81,-44,55,7,-65,-38,-87,-139,-122,-123,-2
-30,-75,-44,49,7,-65,-38,-87,-139,-122,-123,-2
-24,-69,-44,43,13,-65,-38,-81,-139,-122,-123,-2
-24,-69,-44,43,13,-65,-38,-81,-139,-122,-123,-2
-24,-69,-44,43,13,-65,-38,-81,-139,-122,-123,-2
-24,-69,-44,43,13,-65,-38,-81,-139,-122,-123,-2
-24,-69,-44,43,13,-65,-38,-81,-139,-122,-123,-2
-24,-69,-44,43,13,-65,-38,-75,-139,-122,-123,-2
-24,-69,-44,43,13,-65,-38,-75,-139,-122,-123,-2
-24,-69,-44,43,13,-65,-38,-75,-139,-122,-123,-2
-30,-69,-44,43,13,-65,-38,-75,-139,-122,-123,-2
-36,-69,-44,43,13,-65,-38,-75,-139,-122,-123,-2
-36,-69,-44,43,13,-65,-38,-75,-139,-122,-123,-2
-36,-69,-44,43,13,-65,-38,-75,-139,-122,-123,-2
-36,-69,-44,43,13,-65,-38,-75,-139,-122,-123,-2
-36,-69,-44,43,13,-65,-38,-69,-139,-122,-123,-2
-36,-69,-44,43,13,-65,-38,-69,-139,-122,-123,-2
-36,-69,-44,43,13,-65,-38,-63,-139,-122,-123,-2
-36,-69,-44,43,7,-65,-32,-63,-139,-122,-123,-2
-36,-69,-44,43,1,-65,-32,-63,-139,-122,-123,-2
-36,-69,-44,43,1,-65,-32,-63,-139,-122,-123,-2
-36,-69,-44,43,1,-65,-32,-63,-139,-122,-123,-2
-36,-69,-44,43,1,-65,-32,-63,-139,-122,-123,-2
-42,-75,-44,49,1,-65,-32,-63,-133,-122,-123,-2
-42,-75,-44,49,1,-65,-32,-63,-133,-122,-123,-2
-42,-75,-44,49,1,-65,-32,-63,-133,-122,-123,-2
-42,-75,-44,49,1,-59,-32,-63,-133,-122,-123,-2
-42,-75,-38,49,1,-53,-32,-63,-127,-122,-117,-2
-42,-75,-38,49,1,-53,-32,-63,-127,-122,-117,-2
-36,-75,-44,49,7,-53,-32,-63,-127,-122,-117,-2
-36,-75,-44,49,7,-53,-32,-63,-127,-122,-117,-2
-36,-75,-44,49,7,-53,-32,-63,-127,-122,-117,-2
-42,-75,-44,49,1,-53,-32,-63,-127,-122,-117,-2
-48,-81,-44,55,-4,-53,-32,-63,-127,-122,-117,-2
-54,-81,-44,55,-4,-53,-32,-63,-127,-122,-117,-2
-54,-81,-44,55,-4,-53,-32,-63,-127,-122,-117,-2
-48,-81,-44,55,-4,-53,-32,-63,-127,-122,-117,-2
-42,-81,-44,55,-4,-53,-32,-63,-127,-122,-117,-2
-42,-81,-44,55,-4,-53,-32,-63,-127,-122,-117,-2
-48,-81,-44,61,-4,-53,-32,-63,-127,-122,-123,-2
-48,-81,-44,61,-4,-53,-32,-69,-127,-122,-123,-2
-42,-81,-44,61,1,-53,-32,-69,-127,-122,-123,-2
-36,-75,-44,55,7,-53,-32,-69,-127,-122,-123,-2
-36,-75,-44,55,7,-53,-32,-69,-127,-122,-123,-2
-36,-75,-44,55,7,-53,-32,-69,-127,-122,-123,-2
-36,-75,-44,55,7,-53,-32,-69,-127,-122,-123,-2
-36,-81,-44,55,7,-59,-32,-69,-133,-122,-123,-2
-36,-81,-44,55,7,-59,-32,-69,-133,-122,-123,-2
-30,-75,-44,49,7,-59,-32,-69,-133,-122,-123,-2
-30,-69,-44,49,7,-59,-32,-69,-133,-122,-123,-2
-30,-69,-44,49,7,-59,-32,-69,-133,-122,-123,-2
-24,-69,-44,49,7,-59,-32,-69,-133,-122,-123,-2
-24,-69,-44,49,7,-59,-32,-69,-139,-122,-123,-2
-24,-75,-44,49,7,-59,-32,-75,-145,-122,-123,-2
-24,-75,-44,49,7,-59,-32,-75,-145,-128,-123,-2
-24,-75,-44,49,7,-59,-32,-75,-145,-128,-123,-2
-18,-75,-44,49,13,-59,-32,-75,-145,-128,-123,-2
-18,-75,-44,49,13,-59,-32,-75,-145,-134,-123,-2
-24,-75,-44,49,13,-59,-32,-75,-145,-134,-123,-2
-30,-81,-44,55,13,-59,-32,-81,-145,-134,-129,-2
-30,-87,-50,61,13,-65,-32,-87,-151,-134,-135,-2
-30,-87,-50,61,13,-65,-32,-87,-151,-134,-135,-2
-30,-87,-50,61,13,-65,-32,-87,-151,-134,-135,-2
-30,-87,-50,61,13,-65,-32,-93,-157,-134,-135,-2
-30,-93,-50,61,13,-71,-38,-99,-163,-140,-135,-8
-36,-99,-50,67,13,-71,-38,-105,-163,-146,-135,-8
-42,-105,-50,67,13,-77,-38,-111,-169,-146,-141,-8
-42,-111,-50,73,13,-83,-38,-111,-169,-146,-147,-8
-42,-111,-50,73,13,-83,-38,-111,-169,-146,-147,-8
-42,-111,-50,73,13,-83,-38,-111,-169,-146,-147,-8
-42,-111,-50,73,13,-83,-38,-111,-169,-146,-147,-8
-42,-111,-50,73,13,-83,-38,-111,-169,-146,-147,-8
-42,-111,-50,73,13,-83,-38,-111,-169,-146,-147,-8
-42,-111,-50,67,13,-83,-38,-111,-169,-146,-147,-8
-42,-105,-50,67,13,-83,-38,-111,-169,-146,-147,-8
-42,-99,-56,67,13,-83,-38,-111,-169,-146,-147,-8
-36,-99,-56,67,13,-83,-38,-111,-169,-146,-147,-8
-30,-99,-56,67,13,-83,-38,-111,-169,-146,-147,-8
-30,-93,-56,67,13,-83,-38,-111,-169,-146,-147,-8
-30,-93,-56,67,13,-83,-38,-111,-169,-152,-147,-14
-30,-93,-56,67,13,-83,-38,-117,-169,-152,-147,-14
-30,-93,-56,67,13,-83,-38,-117,-169,-152,-147,-20
-36,-93,-56,67,13,-83,-38,-117,-169,-152,-147,-20
-36,-93,-56,67,13,-83,-38,-117,-175,-152,-147,-20
-36,-93,-56,67,13,-83,-38,-123,-181,-152,-147,-20
-36,-93,-56,67,13,-83,-38,-123,-181,-152,-147,-20
-36,-93,-56,67,13,-83,-38,-123,-181,-152,-147,-20
-36,-93,-56,67,13,-83,-38,-123,-181,-152,-147,-20
-36,-93,-56,67,13,-83,-38,-123,-181,-152,-147,-20
-36,-93,-56,67,13,-83,-38,-123,-181,-158,-147,-20
-36,-93,-56,67,13,-83,-38,-123,-181,-158,-147,-20
-36,-93,-56,67,13,-83,-38,-123,-181,-158,-147,-20
-42,-99,-56,73,13,-83,-44,-129,-187,-158,-147,-26
-54,-111,-56,85,7,-89,-50,-135,-187,-158,-153,-32
-60,-111,-56,91,7,-89,-50,-135,-187,-158,-153,-32
-60,-105,-56,85,7,-83,-50,-135,-187,-158,-153,-32
-54,-99,-56,79,7,-77,-50,-135,-187,-158,-153,-32
-54,-99,-56,79,7,-77,-50,-135,-187,-158,-153,-32
-60,-99,-50,79,1,-77,-50,-135,-187,-158,-153,-32
-54,-93,-50,73,1,-71,-50,-135,-187,-158,-153,-32
-36,-69,-44,49,1,-65,-50,-129,-187,-152,-153,-32
-30,-51,-38,37,1,-53,-44,-123,-181,-152,-147,-26
-24,-33,-26,25,1,-29,-32,-111,-169,-146,-135,-20
-18,-21,-20,13,1,-17,-26,-99,-163,-134,-123,-14
-18,-15,-14,13,1,-11,-20,-93,-157,-122,-111,-2
-24,-15,-8,13,-4,-6,-14,-93,-157,-122,-111,3
-24,-9,-3,13,-4,0,-8,-93,-157,-122,-111,9
-18,2,3,1,-4,6,3,-87,-151,-116,-111,15
-12,14,9,-4,-4,18,9,-81,-145,-110,-105,15
-12,14,9,-4,-4,18,15,-75,-139,-110,-105,15
-6,20,9,-10,-4,18,21,-75,-133,-110,-99,15
-1,26,9,-16,-4,18,27,-69,-127,-104,-99,15
-1,32,15,-16,-4,24,33,-63,-127,-104,-93,15
-1,32,21,-16,-4,24,33,-63,-127,-104,-93,21
-1,32,21,-22,-4,30,33,-63,-127,-104,-93,21
5,44,27,-34,-4,42,33,-63,-127,-98,-87,27
17,80,33,-58,-4,54,33,-63,-121,-92,-81,33
23,98,45,-70,-4,78,27,-63,-121,-86,-81,39
23,98,57,-70,-10,84,15,-69,-121,-86,-81,39
23,98,63,-70,-16,84,3,-75,-121,-86,-81,39
23,110,69,-70,-16,90,-2,-81,-121,-86,-81,45
29,122,75,-76,-16,102,-8,-87,-121,-86,-75,51
29,128,81,-82,-16,108,-14,-93,-121,-80,-69,57
29,128,81,-82,-16,108,-26,-99,-127,-80,-69,63
35,128,75,-88,-16,108,-32,-111,-133,-80,-69,63
35,128,69,-88,-16,102,-38,-117,-145,-80,-69,63
41,122,63,-88,-10,96,-44,-123,-151,-80,-69,63
59,122,57,-88,1,96,-50,-123,-151,-80,-69,63
65,122,51,-88,7,96,-50,-123,-151,-80,-69,63
65,116,45,-82,7,90,-50,-123,-151,-86,-69,63
65,104,33,-76,13,78,-56,-123,-151,-86,-75,63
65,92,9,-70,25,54,-62,-123,-151,-92,-81,57
59,74,3,-64,25,42,-62,-123,-151,-92,-81,57
53,68,-3,-58,25,36,-62,-123,-151,-92,-81,57
53,62,-8,-58,31,24,-62,-123,-151,-92,-81,57
53,44,-20,-58,43,12,-62,-123,-151,-98,-81,51
47,14,-26,-46,43,0,-62,-123,-151,-98,-81,45
5,-15,-26,-4,31,-11,-62,-123,-151,-104,-87,39
-24,-45,-26,37,19,-23,-62,-129,-157,-116,-99,27
-30,-51,-26,43,19,-35,-62,-135,-169,-122,-111,15
-30,-51,-32,43,19,-41,-62,-141,-175,-128,-117,3
-30,-57,-44,43,19,-53,-68,-147,-181,-134,-129,-2
-36,-75,-50,55,19,-65,-74,-153,-187,-140,-135,-2
-36,-87,-56,61,19,-71,-74,-159,-193,-152,-141,-8
-36,-93,-62,61,19,-77,-74,-165,-199,-158,-147,-14
-36,-93,-68,61,19,-83,-74,-165,-205,-164,-147,-20
-36,-99,-68,61,19,-83,-74,-165,-205,-170,-147,-26
-36,-105,-68,73,19,-89,-80,-165,-211,-170,-147,-26
-36,-111,-74,79,19,-89,-80,-165,-211,-170,-153,-26
-36,-117,-74,79,19,-95,-80,-165,-211,-170,-153,-32
-42,-123,-74,85,19,-101,-80,-171,-211,-170,-159,-38
-48,-129,-74,85,19,-107,-80,-177,-211,-176,-159,-44
-48,-129,-74,85,19,-107,-80,-177,-211,-182,-159,-44
-48,-129,-74,79,19,-107,-80,-177,-217,-182,-159,-44
-42,-129,-80,79,25,-107,-80,-177,-217,-182,-159,-50
-42,-129,-86,79,25,-107,-80,-177,-217,-182,-159,-56
-42,-135,-86,79,25,-113,-80,-177,-217,-182,-165,-62
-42,-141,-92,85,25,-119,-80,-177,-217,-188,-171,-62
-42,-147,-98,97,25,-125,-80,-183,-217,-194,-171,-62
-48,-153,-98,103,25,-125,-80,-183,-223,-194,-171,-68
-54,-153,-98,109,25,-125,-80,-183,-223,-194,-171,-68
-54,-153,-98,109,25,-125,-80,-183,-223,-194,-171,-68
-54,-153,-98,109,25,-125,-80,-183,-223,-194,-171,-68
-54,-153,-98,109,25,-125,-80,-183,-223,-194,-171,-68
-54,-153,-98,109,25,-125,-80,-183,-223,-194,-171,-68
-60,-159,-98,109,25,-131,-80,-183,-223,-200,-177,-74
-66,-159,-98,109,25,-131,-80,-183,-223,-200,-183,-74
-66,-159,-98,109,25,-131,-80,-183,-223,-200,-183,-74
-54,-153,-98,103,31,-131,-80,-183,-223,-200,-183,-74
-48,-153,-104,103,37,-131,-80,-183,-223,-200,-183,-74
-42,-153,-110,103,37,-131,-80,-183,-223,-200,-183,-74
-42,-153,-110,103,37,-131,-80,-183,-223,-200,-183,-80
-42,-153,-110,103,37,-131,-80,-183,-223,-200,-183,-80
-48,-153,-110,103,31,-131,-80,-183,-223,-200,-183,-80
-60,-159,-110,109,25,-131,-80,-183,-223,-200,-183,-80
-60,-165,-110,109,25,-137,-80,-183,-223,-200,-183,-86
-60,-171,-116,109,25,-143,-80,-183,-223,-200,-189,-92
-60,-171,-122,109,37,-149,-80,-183,-223,-206,-195,-98
-60,-177,-128,115,37,-155,-74,-171,-223,-212,-201,-104
-66,-207,-128,139,37,-167,-62,-159,-223,-218,-213,-116
-78,-249,-140,169,37,-197,-38,-123,-223,-236,-231,-146
-84,-273,-170,181,37,-221,15,-57,-211,-254,-255,-164
-90,-291,-188,187,37,-245,87,32,-181,-272,-285,-194
-102,-303,-194,193,37,-251,147,86,-157,-284,-297,-218
-108,-297,-188,193,31,-245,189,128,-127,-284,-303,-224
-108,-261,-170,193,25,-221,213,164,-97,-278,-303,-218
-114,-237,-134,187,13,-191,225,194,-55,-260,-291,-212
-120,-219,-92,187,1,-155,255,236,-13,-218,-255,-182
-120,-171,-62,157,-4,-113,321,326,88,-128,-171,-122
-60,-81,-44,79,-4,-71,393,488,250,21,-15,-26
29,14,-32,-22,7,-23,453,680,478,201,152,111
113,134,-8,-124,19,54,519,878,718,387,320,237
191,314,63,-256,25,192,525,932,886,591,518,393
305,542,159,-424,31,354,501,878,940,795,710,567
395,758,279,-586,37,516,405,578,946,993,902,753
425,998,507,-712,7,750,201,176,934,1209,1124,951
425,1280,819,-832,-154,1044,-32,-279,898,1479,1388,1191
425,1556,1131,-952,-316,1344,-260,-681,862,1749,1646,1425
401,1790,1443,-1048,-508,1608,-500,-1029,730,1863,1790,1593
371,1952,1635,-1096,-628,1794,-728,-1365,448,1863,1808,1659
353,1976,1665,-1120,-652,1818,-974,-1707,64,1701,1760,1659
281,1844,1617,-1060,-658,1734,-1124,-2001,-421,1263,1412,1503
131,1442,1359,-790,-646,1398,-1172,-2133,-859,711,926,1149
17,1088,1095,-556,-598,1092,-1214,-2181,-1183,225,470,807
-24,884,927,-442,-526,912,-1256,-2217,-1465,-134,140,549
-30,734,765,-376,-430,750,-1256,-2199,-1531,-320,-51,387
-30,530,561,-268,-316,546,-1208,-1929,-1477,-362,-123,267
-36,326,363,-160,-232,348,-1046,-1593,-1219,-368,-165,183
-36,158,201,-76,-142,180,-866,-1281,-1009,-380,-207,81
-36,32,51,-22,-64,42,-704,-1029,-841,-380,-231,15
-36,-27,3,13,-34,-11,-530,-783,-661,-374,-237,-20
-36,-51,-14,31,-28,-29,-386,-591,-511,-326,-231,-26
-36,-63,-20,43,-22,-41,-290,-453,-397,-278,-219,-32
-42,-75,-26,55,-22,-47,-206,-327,-301,-230,-195,-32
-42,-81,-32,61,-16,-53,-128,-219,-217,-188,-171,-32
-42,-81,-38,61,-4,-59,-74,-153,-169,-158,-159,-32
-42,-87,-38,61,-4,-59,-44,-111,-139,-140,-147,-32
-48,-93,-38,67,-4,-65,-20,-75,-115,-128,-135,-32
-48,-93,-44,67,-4,-65,-8,-45,-103,-122,-123,-32
-48,-93,-44,67,-4,-65,3,-27,-97,-116,-111,-32
-48,-93,-44,67,-4,-71,9,-21,-91,-116,-111,-32
-48,-99,-50,73,-4,-83,15,-15,-85,-116,-111,-32
-48,-111,-56,79,-4,-89,21,-9,-79,-116,-111,-38
-48,-111,-62,79,1,-89,27,-3,-73,-116,-111,-44
-48,-111,-68,79,7,-89,33,2,-67,-116,-111,-44
-48,-111,-74,79,7,-89,33,8,-61,-116,-111,-50
-48,-117,-74,85,7,-89,39,14,-55,-116,-111,-56
-48,-117,-74,85,7,-89,45,26,-49,-116,-111,-62
-48,-117,-74,85,7,-89,51,38,-43,-116,-111,-62
-54,-129,-74,97,7,-95,51,44,-43,-116,-111,-62
-60,-141,-74,103,7,-107,51,50,-43,-116,-111,-68
-60,-141,-80,103,7,-113,51,50,-43,-116,-117,-68
-60,-141,-80,97,7,-113,57,56,-37,-116,-117,-68
-60,-141,-80,91,7,-113,63,62,-25,-116,-117,-68
-60,-141,-80,91,7,-113,63,62,-19,-116,-117,-68
-60,-141,-80,91,7,-113,63,68,-19,-116,-117,-68
-60,-141,-80,91,7,-113,63,74,-13,-116,-117,-68
-60,-141,-80,91,7,-113,69,80,-7,-116,-117,-68
-60,-141,-80,91,7,-113,69,86,-7,-116,-117,-68
-60,-141,-86,91,7,-113,69,86,-7,-116,-117,-68
-54,-141,-86,91,13,-113,69,92,-1,-110,-117,-68
-42,-135,-86,85,19,-113,75,98,10,-98,-111,-68
-30,-123,-86,73,25,-107,81,104,16,-92,-105,-68
-30,-117,-86,73,25,-107,81,110,22,-86,-105,-68
-36,-117,-86,79,25,-107,81,116,28,-86,-105,-68
-54,-129,-86,91,19,-107,81,116,28,-86,-105,-68
-66,-135,-86,103,13,-107,81,116,28,-86,-105,-68
-66,-135,-86,103,13,-107,81,122,34,-86,-105,-68
-42,-129,-86,91,25,-107,81,128,40,-86,-99,-68
-24,-117,-86,73,31,-107,81,140,46,-80,-93,-68
-18,-111,-86,67,31,-101,81,146,52,-74,-87,-68
-18,-111,-86,67,31,-101,87,152,58,-68,-81,-68
-18,-111,-86,67,31,-101,87,152,64,-62,-81,-68
-18,-105,-86,61,31,-101,93,158,70,-62,-75,-62
-18,-93,-80,55,31,-95,99,164,82,-56,-69,-56
-18,-93,-80,49,31,-89,99,170,88,-50,-63,-56
-18,-93,-80,49,31,-89,99,176,94,-50,-63,-56
-12,-87,-80,43,31,-89,99,182,100,-44,-57,-56
-6,-81,-80,37,31,-77,105,194,112,-32,-51,-50
-6,-81,-80,37,31,-71,111,200,118,-26,-45,-44
-6,-81,-80,37,31,-71,111,206,124,-20,-45,-44
-6,-81,-80,37,31,-71,111,212,130,-20,-45,-44
-6,-81,-80,37,31,-71,111,218,136,-20,-39,-44
-6,-81,-80,37,31,-71,111,224,136,-14,-39,-44
-6,-81,-80,37,31,-71,111,230,142,-8,-39,-44
-6,-81,-74,37,31,-71,111,236,154,-2,-33,-44
-6,-81,-74,37,31,-71,111,242,160,3,-33,-38
-6,-75,-74,37,37,-71,111,248,166,9,-27,-38
5,-63,-74,25,43,-71,117,260,178,15,-15,-32
17,-45,-74,19,43,-65,123,266,190,27,-3,-26
23,-39,-74,13,43,-59,129,272,196,33,2,-20
23,-39,-74,13,43,-59,129,272,196,33,2,-14
23,-39,-74,13,43,-59,129,278,202,33,8,-14
23,-39,-68,13,43,-59,129,296,214,39,14,-8
35,-27,-62,1,43,-47,135,314,244,51,26,-2
41,-21,-62,-10,43,-41,135,326,256,63,32,3
41,-21,-62,-10,43,-41,135,332,262,69,32,9
41,-21,-62,-10,43,-41,135,338,268,75,38,9
41,-9,-56,-10,43,-35,141,350,280,87,50,21
47,2,-50,-16,43,-23,147,362,292,99,62,33
53,8,-50,-22,43,-23,147,368,304,105,68,39
59,8,-50,-28,49,-23,147,374,310,111,74,45
65,20,-50,-40,49,-17,147,386,322,123,86,51
71,32,-44,-46,49,-6,153,410,340,135,98,57
71,38,-44,-52,49,-6,153,416,352,141,104,63
71,38,-44,-52,49,-6,153,416,358,147,110,69
71,38,-44,-52,49,-6,153,428,370,159,122,75
71,38,-38,-52,49,0,159,440,382,165,134,81
71,38,-32,-52,49,0,159,446,400,171,140,87
77,38,-32,-52,55,0,159,452,406,177,140,87
83,44,-32,-58,61,6,159,464,418,183,146,93
89,56,-32,-70,61,12,159,476,430,195,158,99
101,74,-32,-82,61,18,159,488,448,207,170,111
113,86,-32,-94,67,24,159,500,460,219,176,117
119,98,-32,-106,67,30,159,506,472,231,182,123
125,104,-32,-118,73,30,159,518,484,237,188,135
131,110,-32,-124,73,36,159,524,496,243,194,141
137,116,-32,-130,73,42,159,530,508,249,206,153
143,122,-32,-130,73,48,159,536,520,255,218,159
149,128,-32,-130,79,48,159,536,532,261,224,165
155,134,-32,-130,79,54,159,542,538,273,230,171
161,140,-26,-136,79,60,159,548,544,279,242,177
161,146,-26,-142,79,66,159,554,550,291,248,183
161,146,-26,-142,79,66,159,560,556,297,254,189
161,152,-26,-148,79,72,159,560,568,303,260,195
167,158,-20,-160,79,78,159,566,580,309,266,201
173,170,-20,-166,85,84,153,566,586,315,278,207
179,176,-20,-172,85,84,147,566,592,321,284,213
179,188,-14,-178,85,96,147,566,598,327,290,219
185,194,-14,-184,85,102,147,566,604,333,296,225
197,200,-14,-190,91,102,141,566,604,339,296,225
203,206,-14,-196,91,102,141,566,604,339,302,231
209,218,-8,-202,91,108,141,572,610,351,308,231
209,224,-3,-202,91,108,135,572,610,351,308,231
209,224,-3,-208,97,108,129,572,610,351,308,231
209,224,3,-214,97,108,123,572,610,351,314,237
215,230,9,-226,97,120,123,572,616,357,320,249
221,242,9,-238,97,126,123,572,622,363,326,261
221,242,9,-238,97,132,123,572,622,369,332,267
221,242,9,-238,97,132,117,566,622,369,332,273
227,248,9,-244,97,132,111,560,622,369,332,273
251,278,15,-256,97,144,111,554,622,375,332,273
263,308,27,-268,97,162,111,554,622,381,338,279
263,314,33,-274,97,168,105,542,610,381,338,279
263,302,33,-274,97,168,93,512,586,375,332,273
257,284,33,-262,97,162,87,482,556,363,326,267
245,266,33,-250,97,156,81,464,538,351,320,267
215,254,39,-238,85,156,75,440,526,345,314,267
197,248,39,-232,79,156,69,428,496,339,308,261
185,242,39,-220,73,156,63,398,466,327,302,255
179,242,39,-214,67,156,57,380,454,315,290,243
179,242,39,-214,67,156,57,368,430,303,278,237
185,242,39,-214,67,156,57,338,400,291,254,225
185,236,39,-208,67,150,51,314,376,261,236,213
185,230,39,-202,67,144,45,290,346,243,224,201
179,218,39,-196,67,132,45,260,310,219,212,189
155,188,39,-178,61,120,45,236,274,201,200,177
131,176,39,-160,55,114,39,206,244,183,182,165
125,164,39,-154,49,108,33,182,220,165,158,153
119,152,33,-148,49,102,33,158,190,147,140,141
113,134,27,-136,49,90,27,134,160,123,110,117
101,104,27,-106,43,78,21,104,130,99,80,87
83,74,21,-76,37,60,15,74,100,69,56,63
77,62,15,-58,37,42,9,62,76,45,38,51
71,56,9,-52,37,30,3,50,52,27,26,39
71,56,3,-52,37,30,3,38,28,15,14,27
71,50,3,-52,37,24,3,26,10,3,2,21
59,38,-3,-46,37,12,-2,8,-7,-8,-9,9
47,26,-8,-40,37,0,-8,-15,-31,-26,-21,-2
41,14,-14,-34,37,-6,-8,-27,-49,-38,-33,-14
35,2,-20,-22,37,-11,-8,-39,-61,-56,-51,-26
29,-9,-26,-10,37,-17,-8,-51,-73,-68,-63,-38
17,-39,-26,19,31,-23,-14,-63,-85,-80,-75,-50
-12,-51,-26,49,19,-29,-14,-69,-97,-92,-81,-56
-18,-57,-26,55,19,-35,-14,-75,-103,-98,-87,-62
-12,-57,-32,49,19,-35,-14,-81,-115,-104,-93,-68
-6,-57,-38,43,19,-35,-14,-87,-121,-110,-99,-68
-6,-57,-38,43,19,-35,-14,-93,-127,-110,-99,-68
-6,-57,-38,37,19,-35,-14,-93,-133,-110,-99,-68
-6,-57,-38,37,19,-35,-14,-99,-133,-116,-99,-68
-6,-57,-38,37,19,-35,-20,-105,-139,-122,-105,-74
-6,-57,-44,37,19,-35,-20,-105,-139,-122,-111,-74
-6,-57,-44,37,19,-35,-20,-111,-145,-122,-117,-74
-6,-63,-44,37,19,-41,-20,-111,-151,-122,-117,-74
-6,-63,-44,37,19,-47,-20,-117,-151,-128,-117,-74
-6,-63,-44,37,19,-47,-20,-117,-151,-134,-123,-74
-12,-69,-50,43,19,-53,-20,-117,-151,-140,-123,-74
-12,-75,-50,49,19,-59,-20,-123,-157,-140,-123,-74
-12,-75,-50,49,19,-59,-20,-123,-157,-140,-123,-80
-12,-75,-50,49,19,-65,-26,-129,-163,-146,-129,-92
-18,-81,-56,55,19,-65,-32,-135,-169,-152,-135,-104
-18,-81,-56,55,19,-65,-32,-135,-169,-152,-135,-104
-18,-69,-50,49,19,-59,-32,-135,-169,-152,-135,-104
-18,-69,-50,49,19,-59,-32,-135,-169,-152,-135,-104
-18,-69,-50,49,19,-59,-32,-135,-169,-152,-135,-104
-18,-69,-50,49,19,-59,-32,-135,-169,-152,-135,-104
-18,-69,-50,49,19,-59,-32,-135,-169,-152,-135,-104
-18,-69,-50,49,19,-59,-32,-135,-169,-152,-135,-104
-18,-69,-50,49,19,-59,-32,-135,-169,-152,-135,-104
-12,-69,-50,49,25,-59,-32,-129,-169,-152,-135,-104
-12,-69,-50,49,25,-59,-32,-129,-169,-152,-135,-104
-12,-69,-50,49,25,-59,-32,-129,-169,-152,-135,-104
-18,-69,-50,55,19,-59,-32,-129,-169,-152,-135,-104
-24,-69,-50,55,13,-59,-32,-129,-169,-152,-135,-104
-24,-69,-50,55,13,-59,-32,-129,-169,-152,-135,-104
-18,-69,-56,55,19,-59,-32,-129,-169,-152,-135,-104
-18,-69,-62,55,19,-59,-32,-129,-169,-152,-135,-104
-18,-75,-62,55,19,-59,-32,-129,-169,-152,-135,-104
-18,-75,-62,55,19,-59,-32,-129,-169,-152,-135,-98
-18,-75,-56,55,19,-59,-32,-123,-169,-152,-135,-98
-18,-75,-56,55,19,-59,-32,-117,-163,-152,-135,-98
-18,-69,-56,49,19,-59,-32,-111,-163,-152,-135,-92
-12,-63,-56,43,19,-59,-32,-105,-157,-146,-135,-92
-6,-63,-56,37,19,-59,-32,-105,-151,-140,-135,-92
-6,-63,-56,37,19,-59,-32,-105,-151,-140,-135,-92
-12,-63,-56,43,19,-59,-32,-105,-151,-140,-135,-92
-18,-69,-56,43,19,-59,-32,-105,-151,-140,-135,-92
-18,-69,-56,43,19,-59,-32,-105,-145,-140,-135,-92
-18,-69,-50,43,19,-59,-26,-99,-139,-134,-129,-92
-18,-69,-50,43,19,-59,-26,-99,-139,-134,-129,-92
-12,-69,-50,43,25,-59,-26,-99,-139,-134,-129,-92
-12,-69,-50,43,25,-59,-26,-99,-145,-134,-129,-92
-18,-75,-50,49,25,-59,-26,-99,-145,-134,-129,-92
-24,-75,-50,49,19,-59,-26,-99,-145,-134,-129,-92
-24,-75,-50,49,19,-59,-26,-99,-145,-134,-129,-92
-24,-69,-50,43,19,-59,-26,-99,-145,-134,-129,-92
-18,-63,-50,37,19,-59,-26,-99,-145,-134,-129,-92
-18,-63,-50,37,19,-59,-26,-99,-145,-134,-129,-92
-18,-69,-50,43,19,-59,-26,-99,-145,-134,-129,-92
-18,-75,-50,49,19,-59,-26,-99,-145,-134,-129,-92
-18,-75,-50,49,19,-59,-26,-99,-145,-134,-129,-92
-18,-75,-50,49,25,-59,-26,-99,-145,-134,-129,-92
-18,-75,-50,49,25,-59,-26,-99,-145,-134,-129,-92
-18,-75,-50,49,25,-59,-26,-99,-145,-134,-129,-92
-18,-75,-50,49,25,-59,-26,-99,-145,-134,-129,-92
-18,-75,-50,49,25,-59,-26,-99,-145,-134,-129,-92
-18,-75,-50,49,25,-59,-26,-99,-145,-134,-129,-92
-18,-69,-50,43,25,-59,-26,-99,-145,-134,-129,-92
-12,-69,-50,37,25,-59,-26,-99,-145,-134,-129,-92
-12,-69,-50,37,25,-59,-26,-99,-145,-134,-129,-92
-12,-69,-50,37,25,-59,-26,-99,-145,-134,-129,-92
-12,-69,-50,37,25,-59,-26,-99,-145,-134,-129,-92
-12,-69,-50,37,25,-59,-26,-99,-145,-134,-129,-92
-12,-69,-50,37,25,-59,-26,-99,-145,-134,-129,-92
-12,-69,-50,37,25,-59,-26,-99,-145,-134,-129,-92
-12,-69,-50,37,25,-59,-26,-105,-145,-134,-129,-92
-12,-69,-56,37,25,-59,-26,-105,-145,-134,-129,-92
-12,-69,-56,37,25,-59,-26,-105,-145,-134,-129,-92
-12,-69,-56,43,25,-59,-26,-105,-145,-134,-129,-92
-18,-75,-56,49,25,-59,-32,-105,-145,-134,-129,-92
-18,-81,-56,49,25,-65,-32,-111,-145,-134,-129,-98
-18,-81,-56,49,25,-65,-32,-111,-145,-134,-129,-98
-18,-81,-56,49,25,-65,-32,-111,-145,-134,-129,-98
-18,-81,-56,49,25,-65,-32,-111,-145,-134,-129,-98
-18,-81,-56,43,25,-65,-32,-117,-145,-134,-129,-98
-12,-81,-56,37,25,-65,-38,-117,-145,-134,-129,-98
-12,-81,-56,37,25,-65,-38,-123,-145,-134,-135,-98
-24,-87,-56,49,25,-65,-44,-129,-145,-134,-135,-104
-24,-87,-56,55,25,-65,-44,-129,-151,-134,-135,-110
-18,-87,-56,55,25,-65,-44,-129,-157,-134,-135,-110
-18,-87,-56,55,25,-65,-44,-129,-157,-134,-135,-110
-18,-87,-56,55,25,-65,-44,-129,-163,-134,-135,-110
-18,-87,-56,55,25,-65,-44,-135,-163,-140,-135,-110
-18,-87,-56,55,25,-65,-44,-141,-163,-146,-135,-110
-18,-87,-56,55,25,-65,-44,-141,-163,-146,-135,-110
-18,-87,-56,55,25,-65,-44,-141,-163,-146,-135,-110
-18,-87,-56,55,25,-65,-44,-141,-163,-146,-135,-110
-18,-87,-56,55,25,-65,-44,-141,-163,-146,-135,-110
-18,-87,-56,55,25,-65,-44,-141,-163,-146,-135,-110
-18,-87,-62,55,25,-71,-44,-141,-163,-146,-135,-110
-12,-87,-68,55,31,-77,-44,-141,-169,-146,-135,-110
-12,-87,-68,55,31,-77,-44,-141,-169,-146,-135,-110
-24,-87,-68,61,31,-77,-44,-141,-169,-146,-135,-110
-30,-87,-68,61,25,-77,-44,-141,-169,-146,-135,-110
-30,-81,-68,55,25,-77,-44,-141,-169,-146,-135,-110
-30,-81,-68,55,25,-77,-44,-141,-169,-146,-135,-110
-36,-87,-68,61,19,-77,-44,-147,-169,-146,-135,-116
-36,-93,-68,61,19,-77,-44,-147,-175,-146,-141,-116
-36,-93,-68,61,19,-77,-44,-147,-175,-146,-141,-116
-36,-93,-68,61,19,-77,-44,-147,-175,-146,-141,-116
-36,-93,-62,61,19,-71,-44,-147,-175,-146,-141,-116
-36,-93,-62,61,19,-71,-44,-147,-175,-146,-141,-116
-36,-93,-62,61,19,-71,-44,-147,-175,-146,-141,-116
-36,-81,-56,55,19,-65,-44,-147,-175,-146,-141,-116
-30,-69,-50,49,19,-59,-38,-147,-175,-146,-141,-116
-24,-63,-50,43,19,-53,-32,-147,-175,-146,-141,-116
-24,-57,-38,43,13,-47,-20,-141,-169,-140,-135,-110
-30,-45,-20,43,1,-35,-14,-129,-157,-128,-123,-104
-30,-33,-8,37,-4,-23,-8,-123,-151,-116,-111,-98
-24,-21,3,25,-4,-11,-2,-117,-151,-110,-105,-92
-24,-21,9,25,-4,-6,-2,-117,-151,-110,-105,-92
-24,-21,9,25,-4,-6,-2,-117,-151,-110,-105,-92
-30,-21,9,31,-4,-6,-2,-117,-151,-110,-105,-92
-30,-21,9,31,-4,-6,-2,-111,-151,-110,-105,-92
-30,-15,9,31,-4,0,9,-105,-145,-110,-105,-92
-30,-15,9,25,-4,6,21,-99,-145,-110,-105,-92
-30,-15,9,25,-10,6,27,-93,-145,-110,-105,-92
-30,-9,15,19,-16,12,33,-87,-145,-110,-105,-86
-18,2,15,7,-16,18,33,-87,-145,-104,-99,-80
-6,26,21,-16,-16,30,33,-87,-139,-92,-87,-68
5,68,33,-34,-16,54,33,-81,-127,-80,-75,-56
17,98,51,-52,-16,72,33,-81,-115,-68,-63,-50
29,110,57,-64,-10,84,33,-81,-109,-62,-57,-44
35,122,63,-70,-10,90,27,-87,-109,-62,-57,-44
41,122,63,-76,-10,90,9,-99,-115,-62,-57,-44
41,122,75,-76,-10,90,-2,-111,-121,-62,-57,-44
41,122,81,-76,-16,96,-14,-117,-127,-62,-57,-44
41,128,87,-88,-16,102,-20,-123,-127,-62,-57,-44
47,134,87,-100,-16,108,-20,-129,-133,-62,-57,-38
41,134,87,-100,-22,108,-26,-141,-139,-62,-57,-38
35,128,87,-88,-22,108,-38,-153,-145,-68,-63,-38
41,128,81,-88,-16,108,-50,-159,-151,-74,-63,-38
47,128,81,-88,-10,108,-50,-159,-151,-74,-63,-38
47,122,81,-82,-10,102,-50,-159,-151,-74,-63,-38
41,104,75,-70,-10,90,-56,-159,-151,-74,-63,-38
41,92,63,-64,-4,78,-56,-159,-151,-74,-63,-38
35,68,39,-58,1,66,-56,-159,-151,-74,-63,-38
35,56,27,-52,1,54,-56,-159,-151,-74,-69,-38
29,44,15,-46,1,42,-56,-159,-151,-80,-69,-38
29,38,9,-40,1,30,-56,-159,-151,-80,-69,-38
23,26,3,-34,1,18,-56,-159,-151,-80,-75,-38
17,8,-3,-16,1,6,-56,-159,-157,-86,-81,-44
-1,-27,-8,13,1,-6,-56,-159,-163,-98,-93,-50
-18,-45,-8,37,1,-17,-56,-159,-169,-110,-99,-62
-30,-57,-14,49,1,-29,-56,-165,-175,-128,-111,-74
-36,-81,-26,61,1,-41,-62,-171,-187,-140,-123,-86
-42,-93,-38,67,1,-59,-68,-183,-199,-152,-135,-98
-42,-99,-44,67,1,-65,-68,-189,-205,-158,-141,-104
-42,-99,-44,67,1,-65,-68,-195,-211,-158,-147,-104
-48,-99,-44,73,1,-65,-68,-195,-217,-158,-147,-110
-60,-111,-44,85,1,-71,-68,-195,-217,-164,-153,-116
-66,-123,-44,91,1,-77,-68,-195,-217,-164,-159,-116
-66,-129,-44,91,1,-77,-68,-195,-217,-164,-159,-122
-60,-129,-50,91,13,-77,-68,-195,-217,-164,-159,-122
-48,-129,-56,85,25,-77,-68,-195,-217,-164,-159,-122
-48,-129,-62,85,25,-83,-68,-195,-217,-164,-159,-122
-54,-129,-62,91,19,-89,-68,-195,-217,-164,-159,-122
-60,-129,-62,97,13,-89,-68,-195,-217,-164,-159,-122
-66,-129,-62,97,7,-89,-68,-195,-217,-164,-159,-122
-66,-129,-62,97,7,-89,-68,-195,-217,-164,-159,-122
-66,-141,-68,109,7,-95,-68,-195,-223,-170,-159,-122
-78,-159,-68,121,7,-101,-68,-201,-223,-176,-159,-128
-84,-165,-68,127,7,-107,-68,-201,-223,-176,-159,-134
-84,-165,-68,127,7,-107,-68,-201,-223,-176,-159,-134
-84,-165,-68,127,7,-107,-68,-201,-223,-176,-159,-134
-84,-165,-68,127,7,-107,-68,-201,-223,-176,-159,-134
-84,-165,-68,127,7,-107,-68,-201,-223,-176,-159,-134
-84,-165,-68,127,7,-107,-68,-201,-223,-176,-159,-134
-84,-165,-74,121,7,-107,-68,-201,-223,-176,-159,-134
-84,-165,-74,121,7,-107,-68,-201,-223,-176,-159,-134
-84,-165,-74,121,7,-107,-68,-201,-223,-176,-159,-134
-84,-165,-74,121,7,-107,-68,-201,-223,-176,-159,-134
-84,-165,-74,121,7,-107,-68,-201,-223,-176,-159,-134
-90,-165,-74,127,7,-107,-68,-201,-223,-176,-159,-134
-102,-171,-74,139,1,-113,-68,-201,-223,-182,-159,-134
-114,-177,-74,145,-4,-113,-68,-201,-223,-188,-159,-134
-114,-183,-74,151,-10,-119,-68,-201,-223,-188,-159,-134
-114,-183,-74,151,-10,-119,-68,-201,-223,-188,-159,-134
-114,-183,-74,151,-10,-119,-68,-201,-223,-188,-159,-134
-114,-183,-74,151,-10,-119,-68,-201,-223,-188,-159,-134
-102,-177,-74,139,-4,-119,-68,-201,-223,-188,-159,-134
-102,-177,-74,139,-4,-119,-68,-201,-223,-188,-159,-134
-108,-177,-68,145,-10,-119,-68,-195,-223,-188,-159,-134
-114,-183,-68,151,-10,-119,-68,-195,-223,-188,-165,-140
-120,-189,-68,157,-10,-125,-56,-183,-223,-188,-171,-146
-126,-207,-80,169,-10,-137,-44,-165,-223,-194,-183,-152
-126,-243,-110,175,-10,-167,-8,-129,-217,-218,-213,-176
-126,-273,-146,187,-4,-203,39,-39,-205,-236,-243,-206
-132,-297,-158,211,-4,-221,111,32,-175,-260,-267,-236
-144,-309,-158,223,-4,-227,159,86,-151,-272,-279,-254
-156,-309,-140,229,-16,-227,189,128,-133,-272,-279,-260
-156,-273,-116,223,-16,-209,213,158,-91,-260,-273,-260
-150,-213,-80,181,-16,-161,243,200,-25,-212,-237,-236
-138,-159,-38,139,-22,-101,267,242,16,-158,-195,-194
-126,-105,-8,109,-22,-59,309,308,112,-56,-105,-128
-96,-39,21,67,-22,-6,357,464,298,105,56,-8
-36,44,33,-4,-22,42,417,650,526,297,230,123
53,170,75,-106,-22,120,465,830,748,489,410,261
161,362,141,-244,-22,246,471,914,940,711,620,435
269,572,243,-412,-16,402,459,902,1060,951,848,615
353,788,387,-574,-16,582,393,698,1096,1179,1058,795
383,1046,615,-718,-64,810,297,404,1102,1413,1286,1005
389,1322,915,-844,-208,1110,123,2,1102,1689,1550,1233
383,1562,1197,-940,-370,1380,-80,-441,1018,1869,1742,1425
341,1724,1425,-982,-520,1578,-308,-867,730,1887,1784,1509
287,1808,1557,-1000,-622,1686,-530,-1233,400,1845,1784,1539
221,1802,1563,-994,-652,1686,-710,-1521,10,1551,1604,1527
101,1514,1455,-802,-652,1482,-788,-1731,-451,1041,1178,1257
-24,1094,1173,-526,-640,1128,-842,-1845,-847,495,668,861
-102,800,969,-346,-592,876,-896,-1941,-1201,39,248,537
-120,704,861,-304,-544,774,-980,-2001,-1465,-266,-15,327
-120,620,753,-274,-454,678,-1010,-1995,-1483,-374,-129,207
-120,422,561,-166,-364,474,-1010,-1779,-1387,-392,-183,117
-126,194,345,-46,-262,252,-932,-1503,-1177,-398,-225,21
-132,44,183,25,-172,102,-800,-1245,-991,-404,-255,-38
-132,-57,81,73,-130,18,-644,-1017,-829,-404,-267,-74
-132,-105,33,115,-106,-35,-506,-813,-679,-392,-267,-92
-138,-129,15,127,-100,-53,-386,-615,-535,-338,-255,-92
-138,-135,9,127,-88,-59,-272,-453,-409,-266,-219,-92
-132,-135,-3,127,-76,-65,-188,-339,-313,-224,-189,-92
-132,-141,-14,133,-70,-77,-122,-249,-247,-188,-171,-92
-132,-153,-20,133,-64,-89,-74,-171,-193,-158,-159,-92
-126,-153,-26,133,-52,-89,-44,-123,-151,-140,-147,-92
-120,-153,-26,133,-46,-89,-26,-93,-127,-128,-135,-92
-114,-141,-26,121,-40,-89,-14,-69,-109,-116,-123,-86
-102,-129,-26,109,-34,-89,-2,-57,-97,-110,-117,-86
-102,-129,-26,109,-34,-89,3,-51,-91,-110,-117,-86
-102,-129,-26,109,-34,-89,9,-45,-85,-110,-117,-86
-102,-129,-26,109,-34,-89,15,-33,-79,-110,-111,-86
-102,-129,-26,115,-34,-89,27,-21,-73,-104,-111,-86
-102,-129,-26,115,-34,-89,39,-9,-67,-104,-111,-86
-102,-135,-26,121,-34,-89,45,-3,-61,-104,-111,-86
-102,-141,-26,127,-34,-89,45,2,-55,-104,-111,-86
-102,-141,-32,127,-34,-89,45,8,-49,-104,-111,-86
-102,-141,-32,127,-28,-89,51,14,-43,-104,-111,-86
-102,-141,-38,127,-28,-95,51,20,-43,-104,-111,-86
-102,-141,-38,127,-28,-95,51,26,-37,-98,-111,-86
-96,-141,-38,127,-28,-95,51,32,-31,-92,-105,-86
-96,-141,-44,127,-22,-95,51,38,-31,-92,-105,-86
-96,-141,-50,127,-22,-95,51,44,-31,-92,-105,-86
-96,-141,-50,127,-22,-95,57,50,-25,-86,-105,-86
-96,-141,-50,127,-22,-95,63,56,-19,-80,-99,-86
-96,-141,-50,127,-22,-95,63,62,-13,-74,-99,-86
-96,-141,-50,127,-22,-95,63,62,-7,-74,-99,-86
-96,-141,-50,127,-22,-95,69,68,-1,-68,-93,-86
-96,-141,-50,127,-22,-95,75,74,4,-68,-87,-86
-96,-141,-50,121,-22,-95,75,80,10,-62,-81,-86
-96,-141,-50,121,-22,-95,75,86,16,-56,-75,-86
-96,-141,-50,121,-22,-95,81,86,22,-56,-69,-86
-84,-135,-56,109,-10,-95,81,86,22,-56,-69,-86
-72,-129,-56,103,-4,-95,81,92,28,-50,-69,-80
-72,-129,-56,103,-4,-95,81,98,34,-44,-63,-80
-72,-129,-56,103,-4,-95,81,104,40,-38,-63,-80
-72,-129,-56,97,-4,-95,87,110,46,-38,-63,-80
-72,-129,-56,97,-4,-95,87,116,52,-38,-57,-80
-72,-129,-56,97,-4,-95,87,116,52,-32,-51,-80
-78,-129,-56,103,-10,-95,87,116,52,-32,-51,-80
-78,-129,-56,103,-10,-95,93,122,58,-32,-51,-80
-72,-123,-56,97,-10,-95,99,128,64,-32,-45,-80
-66,-117,-56,91,-10,-89,99,134,76,-32,-45,-74
-60,-111,-56,85,-10,-89,99,140,82,-32,-45,-74
-60,-111,-50,85,-10,-89,105,146,94,-26,-39,-74
-66,-111,-44,85,-10,-89,105,152,100,-20,-39,-68
-66,-111,-44,85,-10,-89,105,158,106,-14,-39,-68
-66,-111,-44,85,-10,-83,111,164,112,-8,-33,-62
-66,-111,-44,85,-10,-77,111,170,118,-2,-27,-62
-72,-111,-44,85,-10,-77,111,176,124,3,-21,-62
-78,-111,-44,91,-10,-77,111,182,130,9,-15,-56
-78,-111,-44,91,-10,-77,111,188,136,15,-9,-50
-78,-117,-44,97,-10,-77,111,188,142,15,-3,-50
-78,-117,-44,97,-10,-77,111,194,142,21,-3,-50
-54,-75,-38,61,-4,-65,117,206,154,33,8,-38
-12,-45,-38,25,1,-53,123,224,166,45,20,-26
-12,-45,-38,25,1,-53,123,230,172,51,20,-26
-24,-51,-38,31,1,-53,123,230,178,57,26,-26
-24,-51,-38,31,1,-53,129,242,190,63,32,-20
-18,-45,-38,25,1,-47,135,254,208,75,44,-14
-6,-39,-38,19,7,-47,135,260,220,81,50,-8
-1,-39,-38,13,7,-47,135,266,226,87,56,-8
-1,-39,-38,13,7,-47,141,278,232,93,62,-8
-1,-39,-32,13,7,-47,141,290,244,99,68,-8
-1,-39,-32,13,7,-47,141,296,250,105,68,-8
-1,-39,-32,13,7,-47,141,302,256,111,68,-2
5,-33,-32,7,13,-47,141,308,262,117,74,3
5,-27,-32,7,13,-41,141,320,274,123,80,9
5,-21,-26,7,13,-35,141,332,286,135,92,21
5,-9,-20,7,13,-29,147,344,304,147,104,33
11,2,-20,-4,13,-23,147,356,316,159,116,39
29,14,-20,-16,19,-17,153,368,328,171,122,45
35,20,-20,-22,25,-17,153,380,340,177,134,51
35,20,-20,-22,25,-17,153,392,352,183,140,51
35,26,-14,-28,25,-11,159,404,370,195,146,57
41,38,-14,-40,25,-6,159,410,382,207,152,69
47,44,-14,-46,31,-6,159,416,394,213,158,75
47,44,-14,-46,31,-6,159,422,406,219,164,81
47,44,-14,-46,31,0,159,434,418,225,176,87
53,44,-14,-46,31,6,165,446,442,237,188,93
53,44,-14,-46,31,6,165,458,454,249,200,99
53,44,-14,-46,31,6,165,464,460,255,206,105
53,44,-14,-46,31,6,165,470,466,261,212,105
59,50,-14,-58,31,6,165,470,478,267,218,111
71,80,-8,-76,37,12,165,476,490,279,230,117
83,92,-3,-88,37,24,165,488,508,291,242,129
83,98,3,-88,37,36,165,500,520,303,248,135
83,98,3,-88,37,42,165,506,532,309,254,141
83,98,3,-88,37,48,165,512,538,315,260,147
89,98,3,-94,37,48,165,518,550,327,272,159
95,104,3,-100,37,54,159,518,556,339,284,165
107,110,3,-106,43,54,153,524,562,345,296,171
113,122,3,-112,49,60,153,524,568,351,302,177
113,128,3,-118,49,66,153,530,580,363,308,183
113,134,3,-124,49,72,153,536,592,375,320,195
125,146,3,-136,55,78,147,536,598,381,326,201
143,164,3,-154,61,84,135,536,604,387,326,207
155,176,3,-166,67,90,129,536,604,387,332,213
155,182,9,-172,67,96,123,536,610,393,338,219
167,188,9,-178,73,96,123,536,616,399,344,225
179,200,9,-184,79,96,117,536,616,405,344,231
185,206,9,-190,79,96,117,536,616,405,350,231
185,206,15,-190,79,102,117,536,616,411,356,231
185,206,15,-190,79,108,111,536,616,411,356,237
185,206,15,-190,79,108,105,536,616,411,356,243
185,206,15,-190,79,108,99,536,616,411,356,243
185,206,15,-190,79,108,93,530,616,411,362,249
185,206,15,-190,79,108,93,524,616,411,362,249
185,206,21,-190,79,114,87,518,616,411,362,249
185,206,21,-190,79,114,81,506,610,411,362,249
185,206,21,-190,85,114,69,488,598,411,362,249
185,206,21,-190,85,114,57,470,586,405,362,249
179,206,33,-190,79,114,57,458,574,405,362,249
167,206,63,-184,61,120,57,446,562,405,362,249
167,212,63,-184,61,126,57,434,544,399,356,249
167,212,63,-184,61,126,51,410,514,387,350,243
167,212,63,-184,61,126,45,386,490,375,338,237
167,212,63,-184,55,126,39,374,472,363,326,231
167,212,63,-184,55,126,39,356,448,351,314,219
161,212,63,-184,49,126,39,332,418,339,308,207
143,206,63,-172,43,126,33,302,388,309,296,195
131,194,63,-160,43,120,27,260,346,279,266,177
119,182,63,-148,43,114,21,236,316,261,236,165
113,170,63,-142,43,114,21,218,286,243,212,153
101,158,63,-136,37,108,15,194,256,225,200,141
95,146,63,-130,31,102,15,176,232,213,188,129
89,140,63,-124,31,96,15,164,208,195,176,117
83,134,63,-118,25,90,15,140,184,177,158,99
77,122,57,-106,19,84,9,116,154,153,140,87
71,110,51,-94,13,78,3,86,124,123,128,75
59,86,45,-64,13,66,-2,56,88,93,98,51
41,56,39,-40,13,48,-2,26,58,63,68,33
29,26,33,-22,13,36,-8,8,28,39,38,21
17,14,27,-10,13,24,-8,-3,4,21,20,9
-1,2,27,1,7,18,-8,-15,-7,9,8,-2
-12,-15,27,13,1,6,-14,-27,-19,-2,-3,-20
-18,-21,21,19,-4,0,-14,-33,-31,-14,-15,-32
-18,-21,21,19,-4,0,-14,-39,-43,-20,-21,-38
-18,-21,21,19,-4,0,-14,-45,-55,-26,-27,-44
-18,-21,15,19,-4,-6,-14,-57,-67,-38,-33,-56
-18,-27,9,25,-4,-11,-14,-69,-79,-50,-45,-62
-30,-39,9,37,-4,-17,-14,-81,-91,-56,-51,-68
-36,-45,3,49,-4,-23,-20,-93,-103,-62,-63,-74
-36,-51,-3,49,-4,-23,-20,-99,-115,-74,-75,-80
-36,-57,-8,49,-4,-29,-20,-105,-127,-80,-81,-86
-36,-63,-14,49,-4,-29,-20,-111,-133,-86,-87,-92
-36,-63,-14,49,-4,-35,-20,-111,-139,-92,-93,-98
-36,-69,-20,49,-4,-41,-26,-111,-145,-98,-99,-104
-42,-75,-26,55,-4,-53,-26,-117,-145,-104,-105,-110
-48,-81,-26,61,-10,-59,-26,-117,-145,-110,-105,-110
-48,-81,-26,61,-10,-59,-26,-117,-145,-110,-105,-110
-42,-81,-26,61,-10,-59,-26,-117,-145,-110,-105,-110
-42,-81,-26,61,-10,-59,-26,-123,-151,-116,-105,-110
-78,-93,-26,79,-16,-59,-26,-129,-157,-122,-105,-110
-84,-93,-26,85,-16,-59,-26,-129,-157,-122,-105,-110
-84,-93,-26,85,-16,-59,-26,-129,-157,-122,-105,-110
-84,-93,-26,85,-16,-59,-26,-129,-157,-122,-105,-110
-84,-93,-26,85,-16,-59,-26,-129,-157,-122,-105,-110
-84,-99,-26,91,-16,-59,-26,-129,-163,-128,-111,-110
-84,-99,-26,91,-22,-59,-26,-129,-163,-128,-111,-110
-84,-99,-26,91,-22,-59,-26,-129,-163,-128,-111,-110
-84,-99,-26,91,-22,-59,-26,-129,-163,-128,-111,-110
-78,-99,-26,91,-22,-59,-26,-129,-163,-128,-111,-110
-78,-99,-26,91,-22,-59,-26,-129,-163,-128,-111,-110
-84,-99,-26,91,-22,-59,-26,-129,-163,-128,-111,-110
-84,-99,-26,91,-22,-59,-26,-129,-163,-128,-111,-110
-84,-99,-26,91,-22,-59,-26,-129,-163,-128,-111,-110
-84,-99,-26,91,-16,-59,-26,-129,-163,-128,-111,-110
-84,-105,-26,91,-16,-59,-26,-129,-163,-128,-111,-110
-90,-105,-20,97,-22,-59,-26,-129,-163,-128,-111,-110
-90,-105,-20,97,-22,-59,-20,-129,-163,-128,-111,-110
-90,-105,-20,97,-22,-59,-20,-129,-163,-128,-111,-110
-90,-105,-20,97,-22,-59,-20,-129,-163,-128,-111,-110
-84,-99,-20,91,-22,-59,-20,-123,-163,-128,-111,-110
-84,-99,-20,91,-22,-59,-20,-123,-163,-128,-111,-110
-84,-99,-20,91,-22,-59,-20,-123,-163,-128,-111,-110
-84,-99,-20,91,-22,-59,-20,-123,-163,-128,-111,-110
-84,-99,-20,91,-22,-59,-20,-123,-163,-128,-111,-110
-84,-99,-20,91,-22,-59,-20,-123,-163,-128,-111,-110
-84,-99,-20,91,-22,-65,-20,-123,-163,-128,-111,-110
-84,-99,-20,91,-22,-65,-20,-123,-163,-128,-111,-110
-78,-99,-20,91,-22,-65,-20,-123,-163,-128,-111,-110
-78,-99,-20,91,-22,-65,-20,-123,-157,-128,-111,-110
-78,-99,-20,91,-22,-65,-20,-117,-157,-128,-111,-110
-78,-99,-20,91,-22,-65,-20,-117,-157,-128,-111,-110
-78,-99,-20,91,-22,-65,-20,-117,-157,-128,-111,-110
-78,-99,-20,91,-16,-65,-20,-117,-157,-128,-111,-110
-72,-99,-26,85,-10,-65,-20,-117,-157,-128,-117,-110
-66,-99,-26,79,-10,-65,-20,-111,-151,-128,-117,-110
-66,-99,-26,79,-10,-65,-20,-105,-145,-122,-117,-110
-72,-99,-26,79,-16,-65,-20,-105,-145,-122,-117,-110
-72,-99,-26,79,-16,-65,-20,-105,-145,-122,-117,-110
-72,-99,-26,79,-16,-65,-20,-105,-145,-122,-117,-110
-72,-99,-26,79,-16,-65,-20,-105,-139,-116,-117,-110
-72,-99,-26,79,-16,-65,-20,-105,-139,-116,-117,-110
-72,-99,-26,79,-16,-65,-20,-105,-139,-116,-117,-110
-72,-99,-26,79,-16,-65,-20,-99,-133,-116,-117,-110
-72,-93,-20,79,-16,-59,-14,-93,-133,-110,-111,-110
-72,-93,-20,79,-16,-59,-14,-93,-133,-110,-111,-110
-72,-99,-20,79,-16,-59,-14,-93,-133,-110,-111,-110
-72,-99,-26,79,-16,-59,-14,-93,-133,-110,-111,-110
-72,-99,-26,79,-16,-59,-14,-93,-133,-110,-111,-110
-72,-99,-26,79,-16,-59,-14,-93,-133,-110,-111,-110
-78,-99,-26,85,-16,-59,-14,-93,-133,-110,-111,-110
-78,-99,-26,85,-16,-59,-14,-93,-133,-110,-111,-110
-78,-99,-26,85,-16,-59,-14,-93,-133,-110,-111,-110
-78,-105,-26,85,-16,-59,-14,-93,-133,-110,-111,-110
-78,-111,-26,85,-16,-59,-14,-93,-133,-110,-111,-116
-78,-111,-26,85,-16,-59,-14,-93,-133,-110,-111,-116
-66,-99,-26,79,-10,-59,-14,-93,-133,-110,-111,-116
-60,-93,-26,73,-10,-59,-14,-93,-133,-110,-111,-116
-60,-93,-26,73,-10,-59,-14,-93,-133,-110,-111,-116
-60,-93,-26,73,-10,-59,-14,-93,-133,-110,-111,-116
-60,-93,-26,73,-10,-59,-14,-93,-133,-110,-111,-116
-60,-99,-32,73,-10,-65,-14,-93,-133,-110,-111,-116
-66,-105,-32,73,-10,-65,-14,-93,-133,-110,-111,-116
-66,-105,-32,73,-10,-65,-14,-93,-133,-110,-111,-116
-66,-105,-32,73,-10,-65,-14,-93,-133,-110,-111,-116
-66,-105,-32,73,-10,-65,-14,-93,-133,-110,-111,-116
-66,-105,-32,73,-10,-65,-14,-93,-133,-110,-111,-116
-66,-105,-32,73,-10,-65,-14,-93,-133,-110,-111,-116
-66,-105,-32,73,-10,-65,-14,-99,-133,-110,-111,-116
-66,-99,-32,73,-10,-65,-14,-99,-133,-110,-111,-116
-66,-99,-32,73,-10,-65,-14,-99,-133,-110,-111,-116
-66,-105,-32,79,-10,-71,-14,-105,-133,-110,-111,-116
-66,-105,-32,85,-10,-71,-14,-105,-133,-110,-111,-116
-66,-105,-32,85,-10,-71,-14,-105,-133,-110,-111,-116
-66,-105,-32,79,-10,-71,-14,-105,-133,-110,-111,-116
-66,-105,-32,79,-10,-71,-14,-111,-139,-116,-111,-116
-66,-105,-38,79,-10,-71,-20,-117,-145,-122,-111,-116
-66,-105,-38,79,-10,-71,-20,-117,-145,-122,-117,-116
-66,-105,-38,79,-10,-71,-20,-117,-145,-122,-123,-122
-66,-105,-38,79,-10,-71,-20,-117,-145,-122,-123,-122
-66,-105,-38,79,-10,-71,-20,-117,-145,-122,-123,-122
-66,-105,-44,79,-4,-71,-20,-117,-145,-122,-123,-122
-54,-105,-44,73,1,-71,-20,-117,-145,-122,-123,-122
-42,-93,-44,61,1,-65,-20,-117,-145,-122,-123,-122
-42,-87,-44,61,1,-59,-20,-117,-145,-122,-123,-122
-48,-81,-32,61,-10,-53,-14,-111,-145,-122,-117,-122
-54,-81,-20,61,-16,-53,-8,-111,-145,-122,-111,-122
-54,-69,-14,61,-16,-41,-2,-105,-145,-116,-105,-116
-54,-45,-8,55,-16,-29,3,-99,-139,-110,-99,-110
-54,-39,-3,49,-16,-17,9,-99,-133,-110,-93,-110
-54,-33,3,49,-22,-11,15,-93,-127,-104,-93,-110
-54,-33,9,49,-28,-11,15,-93,-127,-98,-93,-110
-54,-33,15,49,-28,-11,15,-93,-127,-98,-93,-110
-48,-33,15,43,-28,-11,15,-93,-127,-98,-93,-110
-36,-21,15,31,-22,0,21,-87,-127,-98,-93,-104
-36,-9,15,25,-22,6,27,-81,-121,-92,-93,-104
-36,-9,21,25,-28,12,33,-81,-121,-92,-93,-98
-30,2,21,19,-28,18,33,-75,-115,-86,-87,-92
-6,32,21,-4,-22,24,33,-69,-109,-80,-75,-86
5,56,27,-22,-22,36,33,-63,-103,-68,-63,-74
5,68,51,-28,-22,48,33,-63,-97,-56,-51,-62
5,80,69,-34,-22,66,33,-63,-97,-56,-45,-56
5,86,81,-40,-22,78,27,-69,-97,-56,-45,-56
5,86,81,-40,-22,78,15,-81,-103,-56,-45,-56
17,92,81,-52,-22,78,3,-93,-109,-62,-45,-56
35,122,81,-82,-22,90,-8,-105,-115,-62,-45,-50
35,128,87,-82,-22,96,-14,-117,-115,-62,-45,-44
23,122,87,-76,-28,96,-32,-129,-121,-62,-45,-44
17,116,87,-64,-28,96,-44,-141,-133,-62,-45,-44
17,110,87,-64,-28,96,-50,-147,-139,-62,-45,-44
17,110,87,-64,-28,96,-50,-147,-139,-62,-45,-44
17,110,87,-64,-28,96,-50,-147,-139,-62,-45,-44
17,104,87,-64,-28,96,-50,-147,-139,-62,-45,-44
17,92,81,-64,-22,90,-56,-147,-139,-62,-45,-44
17,86,69,-64,-16,78,-56,-147,-139,-62,-45,-44
17,74,57,-58,-10,66,-56,-147,-139,-62,-45,-50
17,56,45,-46,-10,54,-56,-147,-139,-68,-45,-50
11,38,33,-28,-10,30,-56,-147,-139,-68,-51,-56
11,26,21,-22,-4,18,-56,-147,-139,-68,-57,-62
11,20,9,-16,1,6,-56,-147,-139,-68,-63,-68
5,8,3,-4,1,-6,-56,-147,-139,-74,-69,-80
-6,-9,-3,7,1,-17,-56,-147,-145,-80,-75,-92
-12,-33,-8,19,1,-29,-56,-147,-151,-92,-87,-104
-18,-45,-14,31,1,-35,-56,-153,-157,-110,-99,-116
-24,-57,-20,37,1,-41,-56,-159,-163,-116,-105,-122
-24,-69,-32,43,1,-53,-56,-165,-175,-122,-111,-128
-30,-93,-38,55,1,-65,-62,-171,-187,-134,-117,-134
-54,-117,-38,85,1,-77,-68,-177,-199,-146,-129,-140
-66,-129,-38,103,-4,-83,-74,-183,-205,-152,-135,-146
-72,-135,-44,109,-4,-89,-80,-189,-211,-158,-141,-152
-72,-135,-56,109,-4,-95,-80,-195,-211,-158,-147,-158
-72,-135,-62,109,-4,-95,-80,-195,-211,-158,-147,-164
-72,-135,-62,109,-4,-95,-80,-195,-211,-158,-147,-164
-72,-141,-62,115,-4,-95,-80,-201,-217,-158,-147,-164
-72,-147,-62,115,-4,-101,-80,-201,-223,-164,-147,-170
-72,-147,-62,115,-4,-101,-80,-201,-223,-164,-147,-170
-78,-147,-62,115,-4,-101,-80,-201,-223,-164,-147,-170
-78,-147,-62,115,-4,-107,-80,-201,-223,-164,-147,-170
-78,-147,-68,115,-4,-107,-80,-201,-223,-164,-147,-170
-78,-147,-68,115,-4,-113,-80,-201,-223,-164,-147,-176
-78,-147,-68,115,-4,-113,-80,-201,-223,-164,-153,-176
-78,-147,-74,115,1,-113,-80,-201,-223,-170,-153,-176
-78,-153,-80,115,1,-119,-80,-201,-223,-176,-153,-176
-84,-165,-80,127,1,-125,-80,-201,-223,-182,-159,-182
-84,-177,-80,133,1,-125,-80,-201,-223,-182,-159,-188
-84,-177,-80,133,1,-125,-80,-201,-223,-182,-165,-188
-78,-171,-86,127,7,-125,-80,-201,-223,-182,-165,-188
-72,-171,-92,121,13,-125,-80,-201,-223,-182,-165,-188
-72,-171,-98,121,13,-131,-80,-201,-223,-182,-165,-188
-78,-177,-98,127,13,-131,-80,-201,-223,-182,-165,-188
-84,-183,-98,133,7,-131,-80,-201,-223,-182,-165,-188
-90,-183,-98,133,7,-131,-80,-201,-223,-182,-165,-188
-90,-183,-98,139,7,-131,-80,-201,-223,-182,-165,-188
-90,-189,-98,145,7,-137,-80,-201,-223,-182,-165,-188
-96,-189,-98,151,7,-143,-80,-201,-223,-182,-165,-188
-96,-189,-98,151,7,-143,-80,-201,-223,-182,-165,-188
-90,-183,-98,145,7,-143,-80,-201,-223,-182,-165,-188
-84,-183,-98,133,7,-143,-80,-201,-223,-182,-165,-188
-84,-183,-98,133,7,-143,-80,-201,-223,-182,-165,-188
-84,-183,-98,133,7,-143,-80,-201,-223,-182,-165,-188
-84,-183,-98,133,7,-143,-80,-201,-223,-182,-165,-188
-84,-183,-98,133,7,-143,-80,-201,-223,-182,-165,-188
-90,-183,-98,133,7,-143,-80,-201,-223,-182,-165,-188
-114,-195,-98,157,1,-149,-80,-195,-223,-188,-165,-188
-120,-219,-98,169,1,-161,-74,-189,-223,-194,-171,-200
-120,-237,-110,181,1,-179,-62,-177,-223,-206,-189,-212
-120,-279,-152,193,7,-209,-32,-135,-223,-236,-219,-242
-126,-327,-170,223,13,-251,21,-63,-211,-260,-249,-272
