,,,,,,,,,,,
2019-09-04 23:16:53,,,,,,,,,,,
,,,,,,,,,,,
I,II,III,aVR,aVL,aVF,V1,V2,V3,V4,V5,V6
-133,-17,107,75,-125,35,338,62,20,-141,-129,-56
-127,-6,125,57,-125,59,338,68,38,-123,-111,-44
-121,18,143,45,-131,77,332,68,38,-111,-99,-32
-115,42,161,27,-137,101,302,50,38,-105,-87,-14
-109,60,173,15,-143,113,278,26,38,-105,-87,-8
-103,84,191,3,-149,137,260,14,38,-99,-75,-2
-103,108,215,3,-161,161,254,14,32,-99,-69,4
-103,114,221,3,-161,167,230,3,20,-99,-69,4
-97,120,221,-2,-161,167,194,-27,14,-105,-69,10
-97,126,227,-8,-161,173,164,-51,3,-105,-69,10
-97,132,233,-8,-167,179,158,-63,-3,-105,-63,21
-97,132,233,-8,-167,179,146,-69,-9,-105,-63,21
-91,132,227,-14,-161,179,128,-81,-27,-117,-63,21
-85,120,209,-8,-149,161,110,-93,-39,-123,-63,21
-91,108,203,-2,-149,155,110,-105,-51,-141,-75,21
-91,96,191,3,-143,143,110,-105,-63,-147,-81,16
-91,90,185,3,-137,137,110,-93,-51,-147,-63,21
-91,54,149,9,-119,101,116,-105,-51,-147,-69,16
-79,30,113,15,-95,71,122,-93,-51,-147,-75,-2
-85,6,95,33,-89,47,134,-81,-51,-159,-93,-14
-91,-35,47,63,-71,-1,116,-99,-75,-183,-129,-38
-103,-83,11,93,-59,-30,104,-129,-111,-213,-153,-74
-115,-95,11,105,-65,-36,116,-129,-117,-237,-177,-98
-139,-113,17,123,-83,-42,146,-117,-117,-243,-183,-104
-157,-131,17,141,-89,-54,164,-99,-111,-243,-195,-116
-157,-137,11,147,-89,-60,188,-93,-111,-243,-195,-128
-157,-143,5,147,-83,-66,212,-75,-87,-237,-201,-128
-157,-155,-7,153,-77,-78,230,-51,-75,-237,-201,-134
-157,-173,-12,165,-71,-96,260,-39,-75,-237,-213,-140
-157,-185,-24,171,-65,-108,272,-27,-69,-243,-213,-146
-151,-191,-36,171,-53,-114,290,-15,-75,-237,-213,-158
-151,-203,-48,177,-47,-126,314,3,-63,-237,-213,-152
-151,-197,-42,171,-53,-120,392,44,-45,-237,-213,-152
-151,-203,-48,177,-47,-126,512,104,-27,-237,-213,-158
-163,-221,-54,189,-53,-138,638,146,-27,-237,-213,-164
-163,-221,-54,189,-53,-138,704,164,-27,-243,-219,-170
-175,-221,-42,195,-65,-132,752,188,-9,-243,-219,-170
-175,-221,-42,195,-65,-132,794,236,9,-243,-219,-170
-169,-221,-48,195,-59,-138,830,302,14,-237,-219,-164
-157,-215,-54,183,-47,-138,842,386,44,-225,-225,-164
-121,-197,-72,159,-23,-138,812,470,80,-207,-213,-164
-91,-149,-54,117,-17,-102,710,554,128,-171,-195,-146
-43,-77,-30,57,-5,-54,554,614,188,-135,-159,-122
-2,-17,-18,3,0,-18,350,632,218,-99,-129,-86
22,18,-7,-20,12,5,158,632,236,-75,-105,-74
52,72,11,-62,12,41,-15,650,266,-51,-81,-44
88,138,41,-110,18,89,-237,686,296,-33,-57,-32
106,168,53,-134,18,113,-465,692,290,-21,-39,-14
130,186,47,-158,36,119,-663,692,290,-21,-33,-8
154,222,59,-188,42,143,-831,704,308,-9,-28,4
172,264,89,-218,36,179,-951,752,344,26,-10,21
220,264,41,-236,84,155,-1077,776,392,74,20,51
268,240,-24,-254,150,107,-1197,740,398,104,38,57
292,258,-30,-272,162,113,-1227,686,422,140,68,75
316,312,-7,-314,162,155,-1245,668,506,224,128,111
346,372,17,-356,162,197,-1287,572,584,302,200,159
358,426,59,-392,144,239,-1323,362,614,362,242,195
376,456,71,-416,150,263,-1383,128,620,392,266,231
412,456,35,-434,186,245,-1461,-21,668,452,296,261
496,480,-18,-482,258,227,-1569,-147,764,554,380,309
604,504,-96,-554,348,203,-1725,-411,812,710,470,381
718,510,-204,-614,462,155,-1965,-867,740,860,614,489
826,564,-258,-698,540,149,-2193,-1317,662,1064,788,603
982,660,-324,-818,654,167,-2414,-1629,698,1310,992,753
1138,780,-354,-962,744,215,-2678,-1959,692,1574,1220,939
1276,948,-330,-1112,804,305,-2954,-2426,614,1862,1514,1179
1402,1140,-258,-1268,828,437,-3218,-2954,488,2185,1862,1467
1510,1380,-132,-1448,822,623,-3488,-3488,368,2562,2221,1761
1618,1626,-1,-1622,804,815,-3764,-3890,266,2988,2622,2078
1696,1872,173,-1778,756,1019,-3920,-4136,212,3438,3042,2390
1726,2117,383,-1922,672,1247,-4004,-4334,176,3888,3438,2689
1720,2369,641,-2042,534,1505,-4058,-4514,110,4308,3822,2983
1642,2584,941,-2114,348,1763,-3992,-4610,26,4710,4158,3235
1510,2560,1043,-2036,234,1805,-3716,-4400,86,5147,4428,3331
1354,2147,785,-1748,276,1463,-3224,-3788,470,5633,4536,3181
1192,1692,491,-1442,342,1091,-2702,-3098,896,6005,4512,2953
1036,1494,455,-1262,288,971,-2349,-2678,974,6053,4410,2803
928,1344,413,-1136,252,881,-2073,-2367,866,5735,4164,2617
802,1068,257,-938,264,665,-1749,-1971,722,5063,3672,2294
676,744,65,-710,300,407,-1431,-1581,488,4146,3036,1899
502,492,-7,-494,252,239,-1119,-1257,212,3168,2400,1491
328,270,-54,-296,192,107,-813,-939,3,2065,1670,1053
172,0,-168,-86,168,-78,-513,-609,-105,998,836,531
58,-185,-246,57,150,-216,-291,-321,-51,356,212,105
-2,-203,-210,93,102,-204,-165,-153,14,176,38,-14
-7,-167,-156,87,66,-162,-99,-81,56,200,110,21
-25,-155,-126,87,42,-144,-33,-9,92,206,110,21
-67,-191,-120,129,18,-156,26,74,140,194,74,-2
-103,-209,-102,153,0,-156,92,146,170,140,26,-38
-133,-239,-102,183,-11,-174,134,170,152,62,-28,-74
-151,-257,-108,207,-17,-186,164,218,140,2,-87,-110
-163,-275,-114,219,-23,-198,188,254,146,-45,-135,-146
-157,-281,-126,219,-11,-210,218,302,134,-111,-171,-164
-157,-287,-132,225,-11,-216,242,332,128,-153,-207,-188
-157,-293,-138,225,-5,-222,260,350,128,-201,-225,-194
-163,-299,-138,231,-11,-222,260,356,110,-237,-243,-212
-163,-299,-138,231,-11,-222,272,368,104,-261,-255,-212
-169,-305,-138,237,-11,-228,284,374,104,-279,-267,-218
-181,-311,-132,243,-23,-228,302,386,104,-279,-267,-224
-193,-317,-126,249,-29,-228,320,404,98,-279,-279,-230
-199,-317,-120,255,-35,-222,338,422,92,-285,-291,-236
-205,-323,-120,261,-41,-228,350,452,86,-291,-297,-242
-205,-323,-120,261,-41,-228,362,476,86,-297,-303,-248
-199,-317,-120,255,-35,-222,368,488,80,-303,-303,-242
-205,-317,-114,255,-41,-222,374,494,80,-309,-303,-242
-199,-311,-114,249,-41,-216,380,500,68,-309,-303,-236
-193,-305,-114,243,-35,-216,380,500,68,-309,-303,-236
-193,-305,-114,243,-35,-216,386,500,74,-315,-297,-242
-193,-305,-114,243,-35,-216,386,506,74,-315,-297,-236
-193,-293,-102,243,-41,-204,392,518,92,-321,-297,-242
-193,-293,-102,243,-41,-204,404,530,104,-321,-291,-242
-193,-293,-102,243,-41,-204,428,560,128,-315,-291,-242
-193,-281,-90,237,-47,-192,428,578,140,-303,-291,-242
-193,-275,-84,237,-53,-186,440,608,170,-303,-285,-236
-193,-275,-84,237,-53,-186,446,626,188,-303,-279,-236
-193,-269,-78,231,-53,-180,452,626,200,-297,-279,-236
-193,-263,-72,231,-59,-174,458,638,218,-291,-279,-224
-193,-257,-66,225,-59,-168,470,638,230,-279,-279,-224
-193,-251,-60,225,-65,-162,476,650,242,-273,-273,-230
-187,-251,-66,219,-59,-162,482,668,248,-267,-267,-230
-187,-245,-60,219,-59,-156,494,698,266,-267,-267,-224
-187,-245,-54,213,-65,-150,506,722,272,-261,-261,-224
-187,-239,-48,213,-65,-144,512,746,290,-255,-249,-218
-187,-233,-42,207,-71,-138,524,770,308,-249,-249,-218
-187,-233,-42,207,-71,-138,530,788,314,-243,-243,-218
-187,-227,-36,207,-71,-132,536,812,326,-237,-237,-218
-187,-221,-30,201,-77,-126,548,818,326,-237,-237,-218
-187,-215,-24,201,-77,-120,566,818,332,-237,-237,-218
-187,-209,-18,195,-83,-114,572,836,332,-231,-231,-218
-187,-203,-12,195,-83,-108,596,854,338,-225,-225,-212
-187,-197,-7,189,-89,-102,608,878,344,-219,-219,-212
-193,-191,-7,189,-95,-96,626,896,344,-219,-219,-218
-193,-185,-1,189,-101,-90,638,926,350,-219,-219,-218
-199,-185,5,189,-107,-84,662,950,344,-225,-225,-218
-199,-179,11,189,-107,-78,668,956,344,-225,-219,-218
-199,-173,17,183,-113,-72,680,974,344,-213,-213,-212
-199,-167,23,183,-113,-66,692,974,344,-213,-207,-212
-199,-161,29,177,-119,-60,710,986,344,-207,-201,-206
-205,-161,35,183,-125,-60,728,998,344,-201,-201,-206
-199,-161,29,177,-119,-60,734,1004,344,-207,-195,-200
-199,-155,35,177,-119,-54,746,1016,338,-207,-195,-200
-193,-155,29,171,-113,-60,752,1028,332,-219,-195,-194
-193,-149,35,171,-119,-54,764,1040,326,-219,-195,-188
-199,-149,41,171,-125,-48,776,1046,314,-225,-195,-188
-199,-143,47,171,-125,-42,788,1046,308,-231,-201,-188
-199,-143,47,171,-125,-42,788,1040,284,-231,-201,-194
-199,-143,47,171,-125,-42,794,1028,272,-243,-207,-200
-205,-143,53,171,-131,-42,806,1028,248,-243,-207,-200
-205,-137,59,171,-137,-36,812,1016,230,-255,-207,-200
-205,-137,59,171,-137,-36,818,1010,200,-273,-207,-200
-205,-137,59,171,-137,-36,818,986,176,-291,-213,-200
-211,-137,65,171,-143,-30,818,980,146,-309,-219,-200
-211,-137,65,171,-143,-30,818,956,110,-327,-219,-212
-211,-137,65,171,-143,-30,818,926,80,-345,-225,-218
-217,-137,71,177,-149,-30,812,890,50,-363,-237,-218
-211,-143,59,177,-137,-36,800,866,14,-393,-243,-218
-211,-149,53,177,-137,-42,788,836,-27,-417,-261,-218
-205,-155,41,177,-125,-54,770,806,-75,-441,-267,-218
-205,-161,35,183,-125,-60,752,770,-123,-477,-273,-218
-205,-161,35,183,-125,-60,722,728,-165,-489,-285,-224
-205,-167,29,183,-119,-66,698,692,-213,-519,-297,-230
-211,-173,29,189,-125,-66,668,650,-249,-543,-309,-230
-211,-179,23,195,-119,-72,644,602,-297,-573,-321,-236
-205,-185,11,195,-113,-84,620,560,-351,-603,-333,-248
-205,-191,5,195,-107,-90,596,512,-399,-633,-345,-254
-205,-191,5,195,-107,-90,566,464,-453,-663,-357,-266
-205,-197,-1,201,-107,-96,536,416,-507,-693,-369,-266
-205,-203,-7,201,-101,-102,506,362,-549,-723,-375,-266
-205,-209,-7,207,-101,-108,464,308,-609,-753,-387,-272
-199,-209,-7,201,-95,-108,422,254,-663,-777,-393,-266
-199,-215,-12,207,-89,-114,386,206,-711,-807,-411,-272
-193,-215,-18,201,-83,-120,356,146,-735,-837,-411,-272
-187,-221,-30,201,-77,-126,332,86,-771,-861,-423,-272
-181,-227,-42,201,-65,-138,302,32,-813,-879,-429,-272
-181,-227,-42,201,-65,-138,278,-9,-855,-903,-429,-272
-181,-233,-48,207,-65,-144,248,-51,-879,-915,-435,-278
-181,-233,-48,207,-65,-144,218,-93,-903,-927,-435,-278
-181,-233,-48,207,-65,-144,182,-123,-933,-933,-435,-272
-175,-233,-54,201,-59,-144,158,-153,-945,-945,-429,-272
-175,-233,-54,201,-59,-144,134,-177,-945,-945,-429,-260
-175,-233,-54,201,-59,-144,110,-207,-951,-945,-429,-260
-169,-233,-60,201,-53,-150,98,-225,-951,-939,-423,-254
-169,-233,-60,201,-53,-150,80,-237,-951,-939,-411,-248
-163,-227,-60,195,-47,-144,74,-243,-933,-921,-405,-242
-157,-227,-66,189,-41,-150,62,-249,-909,-897,-399,-236
-151,-221,-66,183,-41,-144,62,-243,-873,-867,-387,-230
-151,-215,-60,183,-41,-138,62,-243,-831,-837,-381,-224
-157,-221,-60,189,-47,-144,50,-237,-771,-801,-369,-218
-151,-221,-66,183,-41,-144,44,-231,-717,-759,-357,-218
-157,-227,-66,189,-41,-150,38,-219,-669,-729,-345,-206
-151,-227,-72,189,-35,-150,32,-207,-627,-711,-333,-200
-151,-227,-72,189,-35,-150,38,-183,-591,-687,-321,-200
-151,-227,-72,189,-35,-150,38,-159,-549,-657,-309,-194
-151,-227,-72,189,-35,-150,44,-129,-519,-633,-297,-194
-151,-221,-66,183,-41,-144,44,-111,-477,-597,-285,-194
-151,-221,-66,183,-41,-144,50,-93,-429,-567,-267,-200
-151,-221,-66,183,-41,-144,56,-75,-387,-531,-261,-194
-145,-221,-72,183,-35,-150,62,-57,-339,-495,-255,-200
-145,-221,-72,183,-35,-150,68,-51,-297,-465,-243,-200
-145,-215,-66,177,-35,-144,74,-33,-249,-435,-249,-194
-145,-215,-66,177,-35,-144,74,-21,-213,-411,-237,-188
-145,-215,-66,177,-35,-144,74,9,-177,-399,-237,-176
-145,-215,-66,177,-35,-144,74,14,-153,-375,-231,-176
-145,-215,-66,177,-35,-144,80,14,-135,-357,-225,-176
-145,-215,-66,177,-35,-144,86,32,-111,-339,-213,-176
-145,-209,-60,177,-41,-138,92,44,-87,-315,-207,-176
-145,-209,-60,177,-41,-138,92,44,-63,-297,-201,-176
-145,-209,-60,177,-41,-138,92,50,-39,-279,-201,-182
-145,-209,-60,177,-41,-138,92,50,-27,-261,-195,-182
-145,-209,-60,177,-41,-138,86,50,-15,-261,-195,-188
-145,-209,-60,177,-41,-138,86,50,-3,-249,-195,-188
-139,-203,-60,171,-35,-132,92,62,9,-249,-189,-188
-139,-203,-60,171,-35,-132,92,62,14,-243,-189,-188
-145,-203,-54,171,-41,-132,98,68,14,-243,-189,-188
-145,-203,-54,171,-41,-132,98,74,14,-243,-183,-188
-145,-197,-48,171,-47,-126,98,74,14,-237,-189,-188
-139,-197,-54,165,-41,-126,98,68,14,-237,-189,-188
-139,-191,-48,165,-41,-120,98,62,14,-237,-195,-188
-139,-191,-48,165,-41,-120,92,56,14,-237,-195,-188
-145,-197,-48,171,-47,-126,92,56,14,-237,-195,-188
-145,-197,-48,171,-47,-126,86,50,14,-237,-195,-188
-151,-203,-48,177,-47,-126,86,44,14,-231,-195,-188
-151,-203,-48,177,-47,-126,80,38,14,-231,-195,-188
-139,-191,-48,165,-41,-120,80,44,14,-225,-189,-188
-139,-203,-60,171,-35,-132,86,32,9,-231,-189,-188
-139,-203,-60,171,-35,-132,80,26,3,-231,-189,-188
-139,-203,-60,171,-35,-132,80,26,3,-231,-189,-188
-139,-203,-60,171,-35,-132,74,20,-3,-231,-189,-188
-139,-203,-60,171,-35,-132,74,20,-3,-231,-189,-188
-139,-203,-60,171,-35,-132,68,14,-9,-237,-189,-188
-139,-203,-60,171,-35,-132,68,14,-21,-237,-189,-188
-139,-203,-60,171,-35,-132,62,9,-33,-237,-189,-188
-139,-209,-66,171,-35,-138,56,3,-39,-237,-189,-188
-139,-209,-66,171,-35,-138,56,-9,-39,-237,-195,-188
-139,-209,-66,171,-35,-138,56,-9,-45,-237,-195,-188
-139,-209,-66,171,-35,-138,44,-21,-39,-237,-201,-188
-139,-209,-66,171,-35,-138,44,-27,-39,-237,-201,-188
-139,-209,-66,171,-35,-138,44,-33,-51,-243,-201,-194
-139,-209,-66,171,-35,-138,44,-33,-57,-243,-207,-194
-139,-209,-66,171,-35,-138,44,-39,-69,-243,-207,-200
-139,-209,-66,171,-35,-138,44,-39,-69,-243,-207,-200
-139,-203,-60,171,-35,-132,44,-45,-69,-243,-201,-194
-139,-203,-60,171,-35,-132,44,-45,-69,-249,-201,-188
-139,-197,-54,165,-41,-126,44,-51,-63,-249,-195,-182
-139,-185,-42,159,-47,-114,44,-45,-63,-243,-189,-182
-139,-173,-30,153,-53,-102,56,-45,-69,-237,-183,-170
-139,-155,-12,147,-59,-84,62,-39,-57,-231,-177,-170
-139,-143,-7,141,-65,-72,74,-33,-57,-225,-183,-158
-139,-131,-1,135,-71,-60,86,-21,-45,-219,-177,-152
-139,-119,11,129,-77,-48,110,-9,-39,-213,-165,-146
-139,-101,29,117,-89,-30,122,3,-33,-201,-147,-140
-139,-95,35,117,-89,-24,140,3,-27,-195,-141,-134
-139,-95,35,117,-89,-24,140,3,-21,-195,-135,-134
-145,-89,47,117,-101,-18,152,9,-15,-189,-135,-134
-145,-83,53,111,-101,-12,164,14,-9,-189,-129,-122
-139,-59,71,99,-107,-1,176,14,-3,-183,-129,-116
-139,-47,83,93,-113,11,176,14,3,-177,-129,-110
-133,-41,83,87,-113,11,176,26,3,-171,-123,-104
-121,-17,95,69,-113,29,182,38,14,-153,-117,-98
-109,-6,107,51,-107,47,176,38,14,-141,-105,-80
-103,18,125,33,-113,71,176,44,26,-123,-87,-68
-103,42,149,21,-125,95,164,38,26,-117,-69,-56
-97,66,167,9,-131,113,134,14,26,-111,-57,-38
-97,78,179,3,-137,125,110,3,26,-117,-51,-26
-91,102,197,3,-143,149,92,-15,26,-111,-39,-20
-91,120,215,-8,-155,167,86,-15,14,-111,-39,-14
-91,126,221,-8,-155,173,62,-27,14,-111,-39,-14
-85,132,221,-14,-155,173,26,-51,-3,-117,-45,-20
-85,138,227,-20,-155,179,9,-75,-15,-117,-45,-20
-85,138,227,-20,-155,179,3,-87,-9,-117,-39,-8
-85,138,227,-20,-155,179,-9,-93,-15,-117,-39,-8
-73,132,209,-20,-143,167,-27,-105,-27,-129,-39,-8
-67,120,191,-20,-131,155,-45,-117,-39,-135,-39,-8
-67,108,179,-14,-125,143,-45,-129,-51,-153,-51,-14
-67,96,167,-8,-119,131,-45,-129,-63,-159,-57,-20
-67,78,149,3,-107,113,-45,-129,-63,-159,-63,-26
-67,54,125,3,-95,89,-39,-129,-63,-171,-69,-32
-67,42,113,3,-89,77,-21,-105,-63,-171,-75,-38
-73,6,83,27,-77,41,-33,-105,-63,-171,-93,-50
-67,-35,23,51,-47,-7,-39,-123,-87,-195,-129,-74
-79,-71,-1,75,-41,-30,-39,-141,-111,-225,-165,-110
-103,-83,11,93,-59,-30,-27,-141,-105,-231,-165,-110
-127,-101,17,111,-77,-36,3,-117,-105,-237,-159,-128
-133,-119,5,123,-71,-54,20,-111,-111,-243,-171,-140
-145,-125,11,135,-83,-54,20,-105,-99,-243,-183,-152
-133,-131,-7,129,-65,-66,44,-75,-87,-237,-177,-140
-133,-143,-7,135,-59,-78,86,-51,-75,-237,-177,-158
-145,-161,-12,153,-65,-90,104,-39,-75,-237,-189,-164
-133,-161,-24,147,-53,-96,122,-27,-69,-237,-189,-158
-127,-179,-48,153,-35,-114,140,-15,-63,-237,-189,-158
-127,-179,-48,153,-35,-114,200,14,-51,-237,-189,-164
-139,-185,-42,159,-47,-114,284,56,-33,-225,-189,-164
-151,-191,-36,171,-53,-114,422,104,-15,-225,-189,-170
-151,-209,-54,177,-47,-132,518,146,-3,-237,-201,-176
-151,-209,-54,177,-47,-132,572,176,-3,-243,-207,-194
-151,-209,-54,177,-47,-132,614,212,14,-237,-207,-194
-151,-209,-54,177,-47,-132,656,266,14,-237,-207,-194
-133,-209,-72,171,-29,-144,680,338,38,-237,-207,-188
-109,-191,-78,147,-11,-138,656,422,68,-213,-201,-188
-73,-149,-72,111,0,-114,554,500,128,-183,-177,-176
-31,-77,-42,51,0,-60,404,590,188,-135,-135,-134
4,-6,-18,3,6,-12,206,638,248,-87,-99,-98
40,42,-7,-38,18,17,9,644,284,-51,-69,-86
70,90,11,-80,24,53,-189,644,302,-39,-45,-62
112,156,35,-134,30,95,-369,686,338,-15,-28,-32
148,198,41,-170,48,119,-579,722,344,2,-10,-8
178,204,17,-188,72,113,-759,716,350,2,-16,-14
202,222,11,-212,90,119,-921,716,338,2,-10,4
226,240,11,-236,102,131,-1005,740,368,38,14,16
250,264,5,-254,120,137,-1077,776,416,86,50,21
298,240,-54,-266,180,89,-1161,722,440,122,68,39
328,234,-96,-278,216,65,-1209,596,446,140,86,45
352,270,-78,-308,216,95,-1227,530,494,212,128,75
376,336,-36,-356,210,149,-1257,458,566,290,200,123
394,408,5,-398,192,209,-1299,266,608,362,254,183
418,462,35,-440,186,245,-1359,44,614,410,302,231
448,480,23,-464,210,251,-1419,-111,632,452,338,261
502,480,-24,-488,264,227,-1509,-225,692,518,380,291
592,498,-90,-542,342,203,-1617,-369,788,638,458,345
700,516,-180,-608,438,167,-1821,-717,788,788,566,429
808,546,-258,-680,534,143,-2085,-1227,680,944,704,531
946,624,-318,-782,630,149,-2313,-1635,650,1136,884,663
1102,720,-384,-908,738,167,-2540,-1935,674,1358,1076,813
1252,816,-438,-1034,846,191,-2798,-2337,560,1550,1280,975
1396,978,-414,-1190,906,281,-3038,-2828,404,1790,1562,1215
1516,1188,-330,-1352,924,425,-3266,-3344,260,2113,1898,1497
1642,1392,-246,-1514,948,569,-3548,-3866,86,2454,2233,1785
1756,1626,-132,-1694,948,743,-3788,-4220,-27,2826,2610,2078
1834,1860,17,-1844,906,941,-3908,-4394,-51,3264,3006,2390
1858,2117,251,-1982,798,1187,-3968,-4556,-39,3720,3414,2701
1828,2381,545,-2102,636,1463,-3998,-4724,-81,4146,3810,2983
1756,2548,785,-2156,486,1673,-3896,-4760,-141,4560,4146,3199
1630,2428,797,-2030,414,1619,-3590,-4448,14,5021,4368,3259
1450,1992,539,-1718,450,1265,-3062,-3740,458,5495,4440,3073
1246,1596,341,-1424,450,965,-2540,-3074,800,5747,4380,2839
1108,1428,311,-1262,396,869,-2193,-2666,854,5687,4260,2689
982,1272,281,-1130,348,779,-1929,-2331,746,5243,3942,2485
862,972,107,-920,372,539,-1623,-1929,542,4416,3402,2144
700,666,-30,-680,366,311,-1311,-1581,260,3456,2766,1743
526,462,-66,-488,294,197,-999,-1257,32,2556,2167,1365
352,228,-126,-284,240,47,-711,-939,-117,1598,1466,915
184,-35,-228,-68,204,-132,-423,-585,-141,698,662,405
70,-197,-270,57,168,-234,-213,-297,-39,242,134,21
10,-191,-210,81,108,-198,-93,-153,38,140,38,-38
-7,-155,-144,81,60,-150,-27,-69,56,128,98,10
-13,-167,-150,87,60,-162,26,14,92,134,86,-2
-55,-191,-132,123,30,-162,98,86,128,122,50,-26
-91,-209,-114,147,0,-162,164,146,134,80,2,-62
-109,-227,-114,165,0,-174,194,182,128,14,-33,-98
-127,-245,-120,189,0,-186,224,218,128,-33,-99,-146
-139,-251,-114,195,-11,-186,248,254,134,-81,-147,-182
-145,-257,-114,201,-11,-192,272,290,146,-135,-183,-200
-145,-263,-120,207,-11,-198,284,320,140,-189,-207,-230
-145,-281,-138,213,0,-216,296,338,128,-237,-237,-236
-151,-281,-132,219,-5,-210,302,350,110,-267,-249,-242
-151,-281,-132,219,-5,-210,314,362,104,-291,-261,-242
-157,-281,-126,219,-11,-210,332,374,104,-303,-267,-242
-169,-287,-120,231,-23,-210,350,386,104,-303,-267,-248
-181,-287,-108,237,-35,-204,368,404,104,-297,-279,-254
-187,-287,-102,237,-41,-198,386,422,98,-303,-291,-260
-193,-287,-96,243,-47,-198,398,452,98,-303,-297,-266
-193,-287,-96,243,-47,-198,410,476,98,-309,-303,-272
-187,-293,-108,243,-35,-204,416,494,98,-321,-297,-272
-193,-293,-102,243,-41,-204,422,500,98,-327,-297,-272
-187,-299,-114,243,-35,-210,428,512,92,-333,-291,-272
-181,-293,-114,237,-29,-210,428,512,92,-333,-291,-272
-181,-293,-114,237,-29,-210,440,518,98,-333,-285,-272
-181,-293,-114,237,-29,-210,440,524,104,-333,-285,-266
-181,-281,-102,231,-35,-198,452,542,122,-333,-285,-266
-181,-281,-102,231,-35,-198,464,554,140,-333,-279,-266
-181,-281,-102,231,-35,-198,488,578,152,-327,-279,-260
-181,-269,-90,225,-41,-186,488,596,164,-315,-279,-260
-181,-263,-84,225,-47,-180,500,620,182,-315,-273,-248
-181,-263,-84,225,-47,-180,506,638,200,-315,-267,-248
-181,-257,-78,219,-47,-174,506,650,218,-309,-267,-254
-181,-251,-72,219,-53,-168,512,662,236,-303,-267,-242
-181,-245,-66,213,-53,-162,524,674,254,-291,-267,-248
-181,-245,-60,213,-59,-156,530,686,260,-285,-267,-254
-181,-245,-60,213,-59,-156,536,698,266,-279,-267,-254
-181,-239,-54,207,-59,-150,548,728,290,-279,-267,-248
-187,-233,-42,207,-71,-138,560,746,296,-273,-261,-248
-187,-227,-36,207,-71,-132,572,764,314,-267,-249,-242
-181,-221,-36,201,-71,-132,590,794,326,-267,-249,-248
-181,-221,-36,201,-71,-132,596,812,332,-261,-243,-242
-175,-215,-36,195,-65,-126,608,836,338,-261,-237,-248
-175,-209,-30,189,-71,-120,620,842,338,-261,-237,-248
-175,-203,-24,189,-71,-114,632,848,350,-249,-237,-248
-175,-197,-18,183,-77,-108,638,866,350,-243,-231,-248
-175,-191,-12,183,-77,-102,656,890,362,-237,-225,-242
-175,-185,-7,177,-83,-96,668,914,368,-231,-219,-242
-175,-185,-7,177,-83,-96,686,938,374,-231,-213,-242
-175,-179,-7,177,-83,-90,698,968,380,-231,-213,-242
-175,-185,-7,177,-83,-96,722,992,380,-237,-213,-242
-175,-179,-7,177,-83,-90,728,998,380,-237,-207,-236
-181,-173,-1,177,-95,-84,746,1016,380,-225,-213,-236
-181,-167,5,171,-95,-78,752,1016,380,-219,-207,-236
-187,-161,17,171,-107,-66,776,1028,380,-213,-213,-236
-193,-161,23,177,-113,-66,794,1046,380,-201,-213,-236
-193,-155,29,171,-113,-60,800,1052,374,-201,-207,-236
-193,-149,35,171,-119,-54,812,1064,368,-201,-207,-236
-193,-143,41,165,-119,-48,818,1076,356,-207,-207,-236
-193,-137,47,165,-125,-42,836,1088,350,-207,-207,-230
-199,-137,53,165,-131,-36,848,1094,338,-219,-207,-230
-199,-131,59,165,-131,-30,860,1094,332,-225,-213,-230
-199,-131,59,165,-131,-30,860,1088,308,-231,-213,-236
-199,-131,59,165,-131,-30,866,1076,296,-243,-219,-242
-205,-131,65,165,-137,-30,872,1070,272,-255,-225,-242
-205,-125,71,165,-143,-24,878,1058,254,-267,-225,-242
-205,-125,71,165,-143,-24,878,1046,236,-297,-231,-242
-205,-125,71,165,-143,-24,878,1022,212,-315,-237,-242
-211,-131,71,171,-143,-24,878,1010,182,-327,-249,-242
-211,-131,71,171,-143,-24,878,992,146,-345,-249,-254
-211,-137,65,171,-143,-30,878,968,116,-357,-261,-260
-217,-137,71,177,-149,-30,872,938,86,-375,-267,-260
-217,-143,65,177,-143,-36,854,908,44,-405,-267,-260
-217,-149,59,183,-143,-42,842,878,14,-429,-285,-266
-217,-155,53,183,-137,-48,818,842,-33,-453,-285,-266
-217,-161,47,189,-137,-54,794,806,-75,-483,-297,-266
-211,-161,41,183,-131,-54,770,764,-123,-501,-309,-272
-211,-167,35,189,-125,-60,752,734,-171,-531,-321,-278
-211,-173,29,189,-125,-66,728,698,-219,-555,-333,-278
-211,-179,23,195,-119,-72,704,650,-261,-585,-345,-284
-205,-179,17,189,-113,-78,674,602,-309,-615,-357,-284
-205,-185,11,195,-113,-84,650,554,-357,-645,-369,-290
-205,-179,17,189,-113,-78,614,500,-405,-675,-381,-290
-205,-185,11,195,-113,-84,584,452,-465,-705,-393,-290
-205,-197,-1,201,-107,-96,554,392,-495,-729,-399,-296
-205,-203,-7,201,-101,-102,512,338,-555,-765,-411,-302
-199,-209,-7,201,-95,-108,482,278,-603,-789,-417,-302
-199,-215,-12,207,-89,-114,446,230,-651,-819,-435,-308
-193,-209,-12,201,-89,-114,416,176,-681,-843,-435,-314
-187,-215,-24,201,-77,-120,392,116,-711,-861,-447,-314
-181,-215,-30,195,-71,-126,362,68,-747,-873,-453,-320
-181,-215,-30,195,-71,-126,338,14,-783,-891,-453,-320
-175,-221,-42,195,-65,-132,308,-9,-801,-897,-459,-320
-175,-221,-42,195,-65,-132,278,-51,-819,-909,-459,-320
-169,-221,-48,195,-59,-138,254,-75,-843,-909,-459,-308
-163,-221,-54,189,-53,-138,230,-105,-849,-921,-453,-308
-163,-221,-54,189,-53,-138,212,-129,-849,-921,-453,-290
-163,-221,-54,189,-53,-138,188,-159,-855,-921,-453,-290
-157,-221,-60,189,-47,-144,182,-177,-855,-915,-447,-278
-157,-221,-60,189,-47,-144,164,-195,-855,-915,-435,-272
-163,-227,-60,195,-47,-144,158,-201,-837,-891,-423,-266
-157,-227,-66,189,-41,-150,146,-201,-807,-861,-417,-260
-163,-233,-66,195,-47,-150,146,-195,-771,-825,-399,-254
-163,-227,-60,195,-47,-144,146,-189,-723,-789,-393,-248
-157,-221,-60,189,-47,-144,128,-195,-681,-759,-387,-254
-151,-221,-66,183,-41,-144,122,-189,-633,-729,-375,-248
-145,-215,-66,177,-35,-144,110,-183,-591,-705,-369,-248
-139,-215,-72,177,-29,-144,104,-171,-555,-687,-357,-242
-139,-215,-72,177,-29,-144,104,-153,-513,-657,-345,-242
-139,-215,-72,177,-29,-144,104,-129,-471,-627,-333,-236
-139,-215,-72,177,-29,-144,104,-105,-441,-597,-321,-236
-139,-209,-66,171,-35,-138,104,-87,-399,-561,-309,-236
-145,-215,-66,177,-35,-144,110,-69,-357,-531,-297,-236
-145,-215,-66,177,-35,-144,116,-51,-315,-495,-285,-230
-145,-221,-72,183,-35,-150,122,-33,-279,-465,-285,-230
-145,-221,-72,183,-35,-150,128,-27,-237,-429,-273,-230
-145,-215,-66,177,-35,-144,140,-21,-207,-399,-273,-230
-145,-215,-66,177,-35,-144,140,-9,-171,-381,-267,-224
-145,-215,-66,177,-35,-144,146,9,-147,-369,-261,-218
-145,-215,-66,177,-35,-144,146,14,-129,-351,-255,-218
-145,-215,-66,177,-35,-144,140,14,-111,-333,-249,-218
-145,-215,-66,177,-35,-144,146,32,-87,-315,-237,-218
-145,-209,-60,177,-41,-138,140,44,-63,-291,-231,-212
-145,-209,-60,177,-41,-138,140,44,-39,-273,-225,-212
-145,-209,-60,177,-41,-138,146,50,-21,-261,-225,-212
-145,-209,-60,177,-41,-138,146,50,-9,-249,-219,-212
-145,-209,-60,177,-41,-138,146,50,-3,-255,-219,-212
-145,-209,-60,177,-41,-138,146,50,9,-249,-219,-212
-139,-203,-60,171,-35,-132,146,50,14,-243,-219,-212
-139,-203,-60,171,-35,-132,146,50,14,-237,-219,-212
-145,-203,-54,171,-41,-132,146,44,14,-237,-225,-212
-145,-203,-54,171,-41,-132,146,50,14,-237,-219,-212
-145,-203,-54,171,-41,-132,146,50,14,-231,-219,-212
-139,-203,-60,171,-35,-132,146,44,14,-225,-219,-212
-139,-203,-60,171,-35,-132,146,38,20,-225,-219,-212
-139,-203,-60,171,-35,-132,140,32,20,-225,-219,-212
-139,-203,-60,171,-35,-132,140,32,14,-225,-219,-206
-139,-203,-60,171,-35,-132,134,26,14,-225,-219,-206
-139,-203,-60,171,-35,-132,134,20,14,-219,-219,-200
-139,-203,-60,171,-35,-132,128,14,14,-219,-219,-200
-139,-203,-60,171,-35,-132,140,14,14,-213,-213,-200
-139,-191,-48,165,-41,-120,134,9,14,-219,-213,-200
-139,-197,-54,165,-41,-126,128,3,14,-219,-213,-200
-139,-197,-54,165,-41,-126,128,3,14,-219,-213,-200
-139,-203,-60,171,-35,-132,122,-3,9,-219,-213,-200
-139,-203,-60,171,-35,-132,122,-3,9,-219,-213,-200
-139,-203,-60,171,-35,-132,116,-9,3,-225,-219,-200
-139,-203,-60,171,-35,-132,116,-15,-3,-225,-219,-200
-139,-203,-60,171,-35,-132,110,-15,-15,-225,-225,-200
-139,-209,-66,171,-35,-138,104,-21,-15,-225,-225,-200
-133,-203,-66,165,-29,-138,110,-33,-21,-225,-219,-200
-133,-203,-66,165,-29,-138,110,-33,-27,-225,-219,-200
-127,-197,-66,159,-29,-132,104,-45,-27,-231,-213,-200
-127,-197,-66,159,-29,-132,104,-51,-27,-231,-213,-200
-127,-197,-66,159,-29,-132,98,-57,-39,-231,-213,-200
-127,-197,-66,159,-29,-132,98,-57,-45,-231,-219,-200
-127,-197,-66,159,-29,-132,92,-63,-57,-225,-219,-200
-127,-197,-66,159,-29,-132,92,-63,-57,-225,-219,-200
-133,-197,-60,165,-35,-132,92,-63,-57,-225,-219,-200
-133,-197,-60,165,-35,-132,92,-63,-57,-231,-219,-194
-139,-197,-54,165,-41,-126,92,-63,-51,-231,-219,-194
-139,-185,-42,159,-47,-114,92,-57,-51,-225,-213,-194
-133,-179,-42,153,-41,-114,104,-51,-51,-219,-201,-182
-133,-161,-24,147,-53,-96,110,-45,-39,-207,-195,-182
-127,-155,-24,141,-47,-90,122,-33,-33,-201,-195,-170
-127,-143,-12,135,-53,-78,134,-21,-21,-195,-189,-164
-127,-131,-7,129,-59,-66,152,-15,-9,-189,-183,-158
-127,-113,5,117,-71,-48,164,-3,-3,-177,-171,-152
-127,-107,11,117,-71,-42,176,-9,9,-171,-171,-146
-127,-107,11,117,-71,-42,176,-9,14,-171,-171,-146
-133,-95,29,111,-83,-30,188,3,14,-165,-165,-146
-133,-89,35,111,-89,-24,200,9,14,-165,-159,-134
-127,-59,59,93,-95,-7,212,14,14,-159,-153,-128
-127,-47,71,87,-101,5,212,14,14,-153,-153,-122
-127,-41,77,81,-107,11,218,26,20,-153,-141,-116
-115,-17,89,63,-107,29,224,38,32,-135,-135,-110
-109,-6,107,51,-107,47,224,38,44,-129,-117,-92
-103,18,125,33,-113,71,224,44,62,-111,-99,-80
-97,42,143,21,-119,89,218,44,56,-99,-87,-68
-91,66,161,3,-125,113,188,26,56,-93,-75,-50
-85,78,167,3,-125,119,170,14,50,-93,-75,-38
-79,102,185,-2,-131,143,152,9,50,-87,-63,-32
-79,114,197,-8,-137,155,140,3,44,-87,-63,-20
-79,120,203,-14,-143,161,116,-9,32,-87,-63,-20
-73,120,197,-14,-137,155,74,-39,20,-93,-69,-20
-73,126,203,-20,-137,161,44,-63,14,-93,-69,-20
-73,138,215,-26,-143,173,44,-81,14,-93,-63,-8
-73,138,215,-26,-143,173,32,-87,14,-93,-63,-8
-61,144,209,-32,-137,173,20,-105,-3,-105,-63,-8
-55,132,191,-32,-125,161,15,-117,-15,-111,-63,-8
-55,126,185,-26,-119,155,9,-123,-27,-123,-75,-14
-55,114,173,-20,-113,143,9,-123,-39,-129,-81,-20
-55,102,161,-14,-107,131,3,-117,-39,-123,-87,-26
-55,78,137,-2,-95,107,9,-117,-39,-135,-93,-32
-55,42,101,3,-77,71,15,-117,-27,-135,-111,-50
-49,6,59,15,-53,29,15,-105,-27,-147,-117,-62
-55,-23,23,39,-41,-7,9,-123,-51,-171,-141,-86
-79,-71,-1,75,-41,-30,-3,-141,-75,-189,-153,-110
-115,-83,23,99,-71,-24,20,-129,-81,-195,-165,-122
-139,-89,41,111,-95,-18,38,-117,-81,-201,-171,-128
-145,-107,29,123,-89,-36,56,-111,-87,-213,-183,-140
-145,-113,23,129,-89,-42,68,-93,-87,-213,-195,-152
-133,-131,-7,129,-65,-66,92,-75,-63,-213,-201,-152
-133,-131,-7,129,-65,-66,110,-51,-51,-213,-201,-158
-133,-149,-12,141,-59,-84,140,-39,-51,-225,-201,-152
-133,-161,-24,147,-53,-96,158,-27,-45,-213,-213,-158
-127,-167,-36,147,-41,-102,176,-15,-39,-213,-201,-158
-115,-167,-48,141,-29,-108,212,3,-27,-213,-201,-164
-115,-173,-54,141,-29,-114,284,44,-9,-201,-201,-164
-127,-179,-48,153,-35,-114,410,104,9,-189,-201,-170
-139,-185,-42,159,-47,-114,530,146,14,-189,-213,-176
-139,-185,-42,159,-47,-114,596,176,14,-201,-219,-194
-139,-185,-42,159,-47,-114,638,212,14,-189,-219,-194
-139,-185,-42,159,-47,-114,668,254,32,-189,-219,-194
-121,-185,-60,153,-29,-126,680,326,50,-189,-231,-200
-97,-167,-66,129,-11,-120,668,410,92,-189,-225,-200
-73,-149,-72,111,0,-114,590,500,140,-171,-213,-188
-31,-101,-66,63,6,-84,464,578,200,-123,-183,-158
4,-17,-30,3,12,-24,260,650,254,-75,-135,-122
52,42,-7,-44,30,11,44,668,308,-27,-105,-86
82,90,-1,-86,36,47,-141,680,326,2,-69,-74
112,144,23,-128,36,83,-321,698,362,20,-45,-56
160,198,29,-176,60,113,-519,722,380,50,-28,-32
190,216,17,-200,78,119,-711,740,386,50,-28,-14
214,222,-1,-218,102,113,-861,740,374,50,-28,-20
226,240,11,-236,102,131,-957,740,380,62,-22,4
238,264,17,-248,108,143,-1005,746,416,98,14,21
274,252,-18,-260,150,113,-1077,698,452,146,32,27
316,234,-84,-272,204,71,-1155,572,458,176,50,45
352,246,-102,-296,228,71,-1185,464,482,212,80,63
388,324,-60,-356,228,131,-1191,386,542,278,128,99
406,384,-18,-392,216,179,-1215,254,596,362,188,147
418,438,11,-428,198,227,-1263,80,626,422,242,195
436,480,35,-458,198,257,-1311,-75,632,464,278,231
472,480,-1,-476,234,239,-1383,-201,668,506,308,249
544,480,-66,-506,306,203,-1473,-285,752,602,368,285
664,504,-156,-584,408,173,-1623,-501,800,710,452,357
772,522,-246,-650,510,137,-1875,-957,704,836,566,453
898,576,-318,-734,606,125,-2115,-1449,602,1004,728,567
1042,672,-372,-854,708,149,-2307,-1743,638,1226,914,711
1216,768,-450,-992,834,161,-2552,-2055,620,1448,1118,879
1372,912,-462,-1142,918,227,-2816,-2498,488,1676,1376,1095
1504,1104,-402,-1304,954,347,-3056,-3014,320,1952,1694,1359
1630,1320,-306,-1472,972,503,-3326,-3572,146,2281,2047,1647
1744,1554,-192,-1652,972,683,-3614,-4022,9,2652,2418,1953
1846,1800,-42,-1820,948,875,-3770,-4268,-75,3054,2820,2270
1882,2045,161,-1958,858,1103,-3866,-4448,-99,3486,3228,2581
1876,2309,431,-2090,720,1373,-3902,-4628,-117,3930,3624,2905
1816,2524,707,-2174,552,1619,-3854,-4724,-153,4362,3984,3157
1702,2512,809,-2108,444,1667,-3614,-4544,-81,4800,4266,3271
1528,2123,587,-1826,468,1355,-3146,-3926,266,5273,4380,3133
1330,1692,353,-1508,486,1019,-2612,-3212,686,5615,4350,2899
1168,1482,311,-1322,426,899,-2241,-2750,818,5639,4248,2719
1054,1344,281,-1202,384,815,-1953,-2414,740,5291,4002,2545
922,1080,155,-998,378,617,-1659,-2007,566,4512,3498,2234
754,768,5,-758,372,389,-1335,-1641,308,3552,2862,1839
586,540,-42,-560,312,245,-1035,-1317,56,2664,2245,1449
412,318,-90,-362,246,113,-741,-1005,-105,1760,1598,1041
238,48,-192,-146,216,-66,-459,-657,-153,860,800,531
106,-149,-258,15,180,-204,-213,-333,-51,320,182,93
46,-179,-234,57,138,-204,-81,-165,26,176,-10,-38
16,-131,-156,51,84,-144,-15,-93,44,176,50,-2
-2,-131,-138,57,66,-132,26,-21,80,182,62,10
-19,-155,-132,87,48,-144,98,74,140,170,26,-38
-67,-173,-102,117,6,-138,164,146,158,128,-22,-62
-97,-191,-90,141,0,-144,194,182,152,62,-57,-98
-115,-215,-96,165,-5,-156,236,230,164,2,-111,-134
-127,-233,-102,177,-11,-168,266,266,170,-33,-171,-170
-133,-245,-114,189,-5,-186,284,302,170,-87,-207,-200
-133,-263,-132,201,0,-204,308,320,152,-141,-243,-212
-133,-269,-138,201,0,-210,320,350,152,-177,-261,-224
-139,-275,-138,207,0,-210,326,362,134,-213,-267,-236
-139,-275,-138,207,0,-210,338,374,128,-237,-279,-236
-145,-281,-138,213,0,-216,356,386,128,-243,-285,-242
-157,-287,-132,225,-11,-216,374,398,128,-243,-285,-248
-163,-281,-120,225,-17,-204,392,416,134,-243,-303,-260
-169,-281,-114,225,-23,-204,404,434,128,-249,-315,-266
-169,-275,-108,225,-29,-198,416,464,134,-255,-321,-278
-169,-275,-108,225,-29,-198,422,488,134,-261,-327,-284
-169,-275,-108,225,-29,-198,428,500,128,-273,-321,-278
-175,-275,-102,225,-35,-192,434,500,128,-279,-321,-278
-175,-275,-102,225,-35,-192,440,512,116,-285,-315,-272
-169,-269,-102,219,-29,-192,440,512,116,-285,-315,-272
-169,-269,-102,219,-29,-192,452,524,122,-285,-315,-272
-169,-269,-102,219,-29,-192,452,530,122,-285,-315,-266
-169,-257,-90,213,-35,-180,464,554,140,-285,-321,-266
-169,-257,-90,213,-35,-180,476,566,152,-285,-315,-266
-169,-263,-96,219,-35,-186,494,590,170,-279,-309,-266
-169,-251,-84,213,-41,-174,494,608,182,-267,-309,-266
-169,-251,-84,213,-41,-174,500,632,206,-267,-297,-260
-169,-251,-84,213,-41,-174,506,650,224,-267,-291,-260
-169,-245,-78,207,-41,-168,506,656,236,-267,-291,-260
-169,-245,-72,207,-47,-162,512,668,254,-261,-291,-248
-169,-239,-66,201,-47,-156,524,674,260,-255,-291,-248
-169,-233,-60,201,-53,-150,530,686,272,-249,-285,-254
-163,-227,-60,195,-47,-144,536,704,278,-243,-291,-254
-163,-221,-54,189,-53,-138,548,734,302,-243,-291,-248
-163,-209,-42,183,-59,-126,560,752,308,-237,-291,-248
-163,-203,-36,183,-59,-120,572,776,326,-237,-279,-242
-163,-197,-30,177,-65,-114,584,800,350,-231,-279,-242
-163,-197,-30,177,-65,-114,590,818,356,-225,-273,-236
-163,-191,-24,177,-65,-108,596,836,374,-219,-267,-236
-163,-185,-18,171,-71,-102,608,842,374,-219,-267,-236
-163,-185,-18,171,-71,-102,626,848,374,-213,-267,-236
-163,-179,-12,171,-71,-96,632,866,374,-207,-261,-236
-163,-179,-12,171,-71,-96,656,890,374,-201,-249,-230
-163,-173,-7,165,-77,-90,668,914,380,-195,-243,-230
-163,-167,-7,165,-77,-84,686,932,392,-183,-237,-230
-163,-161,-7,159,-83,-78,698,962,398,-183,-237,-230
-163,-161,-7,159,-83,-78,722,986,404,-177,-237,-230
-163,-155,-1,159,-83,-72,728,986,404,-177,-231,-224
-163,-149,5,153,-89,-66,740,1004,404,-177,-231,-224
-163,-143,11,153,-89,-60,752,1004,404,-177,-225,-224
-163,-137,17,147,-95,-54,764,1016,404,-183,-225,-224
-169,-137,23,153,-101,-54,782,1034,404,-177,-225,-224
-169,-137,23,153,-101,-54,794,1046,398,-183,-225,-224
-169,-131,29,147,-101,-48,806,1058,392,-183,-225,-224
-169,-131,29,147,-101,-48,818,1076,380,-195,-231,-224
-169,-125,35,147,-107,-42,836,1088,374,-195,-231,-218
-175,-119,47,147,-113,-30,842,1094,368,-201,-231,-218
-175,-113,53,141,-119,-24,854,1094,362,-207,-237,-218
-175,-107,59,141,-119,-18,848,1088,344,-207,-237,-218
-175,-107,59,141,-119,-18,854,1076,332,-225,-243,-218
-181,-113,59,147,-125,-24,866,1076,308,-231,-249,-218
-181,-107,65,141,-125,-18,872,1064,290,-237,-249,-218
-181,-113,59,147,-125,-24,878,1058,266,-261,-255,-218
-181,-113,59,147,-125,-24,878,1034,248,-279,-261,-218
-187,-113,65,147,-131,-18,878,1022,212,-303,-267,-218
-187,-113,65,147,-131,-18,878,1004,176,-321,-267,-230
-187,-113,65,147,-131,-18,878,980,140,-345,-267,-236
-193,-113,71,153,-137,-18,872,950,110,-363,-279,-236
-193,-113,71,153,-137,-18,854,920,74,-387,-279,-242
-193,-119,65,153,-131,-24,842,890,32,-411,-297,-248
-193,-119,65,153,-131,-24,818,854,3,-429,-297,-254
-193,-125,59,159,-131,-30,794,818,-39,-465,-309,-254
-193,-131,53,159,-125,-36,776,782,-87,-483,-321,-260
-193,-137,47,165,-125,-42,752,746,-135,-513,-333,-266
-199,-149,41,171,-125,-48,740,722,-183,-543,-345,-266
-199,-155,35,177,-119,-54,716,674,-225,-573,-357,-272
-193,-161,23,177,-113,-66,686,626,-267,-603,-369,-278
-193,-167,17,177,-107,-72,662,572,-315,-633,-381,-284
-193,-167,17,177,-107,-72,626,512,-357,-663,-393,-290
-193,-173,11,183,-107,-78,596,464,-417,-693,-405,-290
-193,-179,5,183,-101,-84,566,410,-459,-723,-417,-290
-193,-185,-1,189,-101,-90,524,356,-513,-747,-429,-296
-187,-185,-7,183,-95,-90,494,302,-567,-771,-441,-290
-187,-191,-7,189,-89,-96,458,254,-615,-795,-459,-296
-181,-191,-7,183,-83,-102,428,206,-645,-825,-459,-302
-175,-197,-18,183,-77,-108,404,146,-681,-849,-471,-302
-169,-203,-30,183,-65,-120,374,104,-717,-867,-477,-308
-169,-203,-30,183,-65,-120,350,50,-759,-891,-477,-308
-169,-209,-36,189,-65,-126,320,14,-777,-897,-489,-308
-169,-209,-36,189,-65,-126,290,-33,-801,-909,-489,-308
-169,-209,-36,189,-65,-126,260,-69,-825,-909,-495,-296
-163,-209,-42,183,-59,-126,242,-105,-837,-921,-489,-296
-157,-209,-48,183,-53,-132,224,-129,-837,-921,-483,-284
-157,-209,-48,183,-53,-132,200,-159,-843,-921,-483,-284
-145,-209,-60,177,-41,-138,194,-177,-843,-915,-471,-278
-145,-209,-60,177,-41,-138,176,-195,-843,-915,-459,-272
-151,-209,-54,177,-47,-132,170,-201,-831,-903,-453,-266
-145,-209,-60,177,-41,-138,158,-201,-807,-879,-447,-260
-151,-209,-54,177,-47,-132,158,-195,-777,-855,-435,-254
-151,-203,-48,177,-47,-126,158,-189,-735,-825,-429,-248
-145,-203,-54,171,-41,-132,146,-189,-693,-783,-417,-248
-139,-203,-60,171,-35,-132,140,-183,-639,-741,-405,-242
-133,-203,-66,165,-29,-138,134,-171,-597,-711,-393,-236
-127,-203,-72,165,-23,-138,128,-159,-555,-687,-381,-230
-133,-203,-66,165,-29,-138,128,-141,-519,-663,-369,-230
-133,-203,-66,165,-29,-138,128,-117,-477,-633,-357,-224
-139,-203,-60,171,-35,-132,128,-93,-453,-609,-345,-224
-139,-197,-54,165,-41,-126,128,-75,-411,-573,-333,-224
-133,-197,-60,165,-35,-132,134,-57,-363,-537,-321,-218
-133,-197,-60,165,-35,-132,140,-39,-321,-501,-309,-218
-121,-197,-72,159,-23,-138,146,-21,-279,-465,-309,-212
-121,-197,-72,159,-23,-138,152,-15,-237,-429,-297,-212
-121,-191,-66,153,-23,-132,152,-3,-207,-399,-291,-212
-121,-191,-66,153,-23,-132,152,9,-165,-381,-279,-206
-121,-191,-66,153,-23,-132,146,20,-141,-369,-267,-200
-121,-191,-66,153,-23,-132,146,26,-117,-351,-267,-200
-121,-191,-66,153,-23,-132,152,44,-99,-333,-261,-200
-121,-191,-66,153,-23,-132,158,62,-75,-315,-249,-200
-121,-185,-60,153,-29,-126,164,80,-51,-291,-243,-200
-121,-185,-60,153,-29,-126,164,80,-27,-273,-237,-200
-127,-185,-54,153,-35,-120,164,80,-3,-249,-243,-200
-127,-185,-54,153,-35,-120,164,80,9,-237,-237,-200
-133,-185,-48,159,-41,-120,158,74,14,-231,-243,-200
-133,-185,-48,159,-41,-120,158,74,20,-219,-243,-200
-127,-179,-48,153,-35,-114,158,80,26,-225,-243,-200
-127,-179,-48,153,-35,-114,158,80,26,-219,-243,-200
-133,-179,-42,153,-41,-114,158,80,20,-225,-249,-200
-133,-179,-42,153,-41,-114,158,86,14,-225,-243,-200
-133,-179,-42,153,-41,-114,158,80,20,-219,-243,-200
-127,-179,-48,153,-35,-114,158,74,20,-213,-243,-200
-127,-179,-48,153,-35,-114,158,62,32,-213,-243,-200
-127,-179,-48,153,-35,-114,152,56,32,-213,-243,-200
-127,-179,-48,153,-35,-114,152,56,26,-213,-237,-200
-127,-179,-48,153,-35,-114,146,50,26,-213,-237,-200
-127,-179,-48,153,-35,-114,146,44,20,-207,-231,-200
-127,-179,-48,153,-35,-114,140,38,20,-207,-231,-200
-127,-179,-48,153,-35,-114,140,32,20,-213,-225,-200
-115,-179,-60,147,-23,-120,140,26,14,-213,-225,-200
-127,-173,-42,147,-41,-108,140,20,14,-213,-225,-194
-127,-179,-48,153,-35,-114,134,14,14,-207,-225,-200
-127,-179,-48,153,-35,-114,134,14,14,-207,-231,-200
-127,-179,-48,153,-35,-114,134,14,9,-207,-231,-200
-127,-179,-48,153,-35,-114,134,9,3,-207,-237,-200
-127,-179,-48,153,-35,-114,134,9,-3,-207,-237,-200
-127,-179,-48,153,-35,-114,128,3,-9,-213,-231,-200
-127,-179,-48,153,-35,-114,128,-3,-15,-213,-231,-200
-127,-179,-48,153,-35,-114,122,-3,-27,-213,-225,-200
-127,-185,-54,153,-35,-120,116,-9,-27,-213,-225,-200
-127,-179,-48,153,-35,-114,110,-21,-33,-213,-225,-200
-127,-179,-48,153,-35,-114,110,-21,-39,-213,-225,-200
-127,-173,-42,147,-41,-108,92,-33,-39,-219,-225,-200
-127,-173,-42,147,-41,-108,92,-39,-39,-219,-225,-200
-127,-179,-48,153,-35,-114,98,-39,-39,-225,-225,-200
-127,-179,-48,153,-35,-114,98,-39,-45,-225,-231,-200
-127,-185,-54,153,-35,-120,104,-39,-45,-225,-231,-200
-127,-185,-54,153,-35,-120,104,-39,-45,-225,-231,-200
-127,-179,-48,153,-35,-114,98,-45,-51,-225,-225,-200
-127,-179,-48,153,-35,-114,98,-45,-51,-231,-225,-194
-127,-173,-42,147,-41,-108,92,-51,-51,-231,-219,-194
-127,-161,-30,141,-47,-96,92,-45,-51,-225,-213,-194
-121,-155,-30,135,-41,-96,104,-39,-51,-213,-207,-182
-121,-137,-12,129,-53,-78,110,-33,-39,-201,-201,-182
-115,-131,-12,123,-47,-72,122,-21,-33,-189,-207,-170
-115,-119,-7,117,-53,-60,134,-9,-21,-183,-201,-164
-115,-107,-1,111,-59,-48,158,-3,-9,-183,-189,-158
-115,-89,17,99,-71,-30,170,9,-3,-171,-177,-152
-115,-83,23,99,-71,-24,188,3,9,-171,-171,-146
-115,-83,23,99,-71,-24,188,3,14,-171,-171,-146
-127,-77,41,99,-89,-12,194,14,14,-165,-165,-140
-127,-71,47,99,-89,-7,206,14,14,-165,-159,-128
-127,-47,71,87,-101,5,212,20,14,-159,-153,-116
-127,-35,83,81,-107,17,212,26,14,-153,-153,-110
-127,-23,95,75,-113,29,218,38,20,-147,-147,-110
-115,-6,107,57,-113,47,224,50,32,-129,-141,-104
-109,18,131,39,-119,71,224,50,44,-117,-129,-92
-103,42,149,21,-125,95,224,56,62,-99,-111,-80
-97,66,167,9,-131,113,212,50,56,-93,-99,-68
-91,90,185,3,-137,137,182,32,56,-87,-87,-50
-85,102,191,-2,-137,143,158,14,50,-93,-87,-38
-79,126,209,-14,-143,167,140,9,50,-87,-75,-32
-73,144,221,-26,-149,179,134,9,50,-81,-69,-20
-73,150,227,-32,-149,185,110,-3,38,-81,-69,-20
-61,156,221,-38,-143,185,74,-27,32,-81,-69,-20
-61,162,227,-44,-143,191,44,-51,20,-81,-69,-20
-61,168,233,-44,-149,197,44,-63,14,-81,-63,-14
-61,168,233,-44,-149,197,32,-69,14,-81,-63,-14
-49,168,221,-50,-137,191,20,-81,-3,-93,-63,-20
-43,156,203,-50,-125,179,15,-93,-15,-99,-63,-20
-43,138,185,-38,-113,161,9,-111,-27,-123,-75,-26
-43,126,173,-32,-107,149,9,-111,-39,-129,-81,-32
-43,102,149,-20,-95,125,3,-117,-39,-135,-87,-38
-43,78,125,-8,-83,101,9,-117,-39,-147,-93,-44
-43,66,113,-2,-77,89,3,-105,-39,-147,-111,-50
-49,30,83,3,-65,53,15,-105,-39,-159,-117,-62
-55,-6,47,27,-53,17,9,-123,-63,-183,-153,-98
-67,-35,23,51,-47,-7,9,-129,-87,-213,-177,-122
-91,-47,35,69,-65,-7,20,-129,-81,-219,-189,-134
-115,-53,53,81,-89,-7,38,-105,-81,-225,-183,-140
-133,-83,41,105,-89,-18,56,-99,-75,-213,-195,-152
-133,-101,23,117,-83,-36,68,-81,-63,-213,-195,-152
-133,-119,5,123,-71,-54,80,-63,-63,-213,-201,-152
-121,-119,-7,117,-59,-60,110,-51,-63,-213,-201,-158
-121,-125,-7,123,-59,-66,140,-39,-63,-213,-201,-152
-121,-137,-12,129,-53,-78,158,-27,-57,-213,-201,-158
-115,-143,-24,129,-41,-84,176,-15,-51,-213,-201,-170
-115,-143,-24,129,-41,-84,224,14,-27,-213,-213,-164
-115,-149,-30,129,-41,-90,308,56,-9,-213,-213,-176
-115,-155,-36,135,-35,-96,434,116,9,-213,-213,-182
-127,-161,-30,141,-47,-96,530,158,9,-213,-213,-188
-127,-173,-42,147,-41,-108,584,188,14,-213,-219,-194
-127,-173,-42,147,-41,-108,626,224,14,-213,-219,-194
-127,-173,-42,147,-41,-108,656,266,32,-201,-219,-194
-121,-173,-48,147,-35,-114,668,338,62,-189,-219,-200
-97,-155,-54,123,-17,-108,656,434,92,-177,-225,-188
-73,-125,-48,99,-11,-90,566,512,152,-159,-201,-188
-31,-65,-30,45,0,-48,404,602,212,-111,-171,-158
16,6,-7,-8,12,-7,194,674,266,-63,-123,-122
64,66,-7,-62,30,29,-15,704,308,-27,-93,-98
94,114,11,-104,36,65,-213,692,338,-3,-57,-74
136,168,23,-152,48,95,-381,722,362,20,-33,-56
172,222,41,-194,60,131,-579,752,392,50,-28,-32
202,228,17,-212,84,125,-747,758,386,50,-28,-26
214,222,-1,-218,102,113,-873,746,374,50,-22,-20
238,240,-1,-236,114,125,-951,728,380,62,-10,4
262,276,5,-266,126,143,-1005,710,404,98,14,21
286,264,-18,-272,156,119,-1077,638,428,122,32,21
328,240,-84,-284,210,77,-1143,494,410,140,50,21
352,270,-78,-308,216,95,-1173,380,446,188,80,51
376,324,-48,-350,216,137,-1191,302,506,254,140,99
394,396,-7,-392,198,197,-1227,164,560,338,212,147
406,438,23,-422,186,233,-1263,-3,602,410,254,195
424,468,35,-446,192,251,-1311,-171,608,464,290,231
472,480,-1,-476,234,239,-1395,-291,620,494,308,249
556,486,-66,-518,312,209,-1473,-393,710,578,368,273
664,516,-144,-590,402,185,-1611,-573,776,710,452,345
772,534,-240,-656,504,149,-1839,-1005,680,824,566,441
910,588,-318,-746,612,131,-2079,-1491,554,980,716,555
1042,684,-360,-860,702,161,-2283,-1791,566,1196,914,711
1216,780,-438,-998,828,173,-2528,-2103,536,1412,1118,867
1384,924,-462,-1154,924,233,-2804,-2546,404,1616,1376,1083
1504,1104,-402,-1304,954,347,-3056,-3074,230,1892,1694,1359
1630,1332,-294,-1478,966,515,-3326,-3644,26,2209,2035,1647
1744,1566,-180,-1658,966,695,-3590,-4082,-123,2592,2406,1965
1846,1824,-18,-1832,936,899,-3746,-4328,-195,2994,2820,2282
1894,2081,185,-1982,852,1133,-3842,-4496,-219,3414,3216,2605
1876,2345,467,-2108,702,1409,-3890,-4676,-243,3852,3624,2917
1816,2560,737,-2192,534,1655,-3830,-4748,-267,4278,3984,3169
1690,2524,833,-2108,426,1685,-3566,-4532,-177,4716,4254,3259
1504,2135,623,-1820,438,1379,-3086,-3890,188,5177,4362,3109
1306,1692,377,-1496,462,1031,-2564,-3188,590,5489,4326,2875
1156,1482,323,-1316,414,905,-2205,-2738,716,5489,4224,2707
1030,1332,293,-1184,366,815,-1929,-2403,632,5105,3954,2521
898,1068,167,-980,360,617,-1611,-2007,464,4314,3426,2204
742,768,17,-752,360,395,-1287,-1629,230,3354,2790,1803
574,540,-30,-554,300,251,-987,-1305,-3,2472,2185,1413
400,318,-78,-356,240,119,-699,-981,-153,1622,1514,987
232,60,-168,-146,198,-48,-411,-633,-177,752,728,477
106,-125,-240,3,168,-180,-189,-321,-75,248,146,57
34,-155,-198,51,114,-174,-57,-153,3,140,2,-50
4,-119,-132,51,66,-126,-3,-93,20,152,62,-14
-2,-131,-138,57,66,-132,38,-21,56,146,62,-14
-31,-143,-108,87,30,-126,110,62,116,146,26,-62
-67,-161,-90,111,0,-126,176,122,122,104,-22,-86
-97,-179,-78,135,-5,-132,206,170,128,38,-57,-110
-115,-203,-84,159,-11,-144,248,206,140,-9,-123,-158
-127,-221,-90,171,-17,-156,278,254,146,-69,-171,-182
-133,-227,-90,177,-17,-162,296,302,146,-123,-207,-200
-133,-233,-96,183,-17,-168,320,320,128,-177,-231,-218
-133,-245,-114,189,-5,-186,332,338,116,-213,-261,-236
-139,-251,-114,195,-11,-186,332,344,98,-237,-273,-248
-139,-251,-114,195,-11,-186,344,356,92,-261,-285,-248
-145,-257,-114,201,-11,-192,356,362,92,-267,-297,-254
-157,-263,-108,213,-23,-192,374,374,92,-267,-297,-260
-169,-263,-96,219,-35,-186,392,398,98,-267,-309,-266
-175,-263,-90,219,-41,-180,410,416,92,-273,-321,-272
-181,-263,-84,225,-47,-180,422,452,98,-279,-321,-278
-181,-263,-84,225,-47,-180,434,476,98,-285,-327,-284
-175,-263,-90,219,-41,-180,440,482,98,-297,-327,-290
-181,-263,-84,225,-47,-180,446,488,98,-303,-327,-290
-175,-263,-90,219,-41,-180,452,494,92,-309,-327,-296
-169,-257,-90,213,-35,-180,452,494,92,-309,-327,-296
-175,-257,-84,219,-41,-174,458,500,98,-303,-315,-290
-175,-257,-84,219,-41,-174,458,500,98,-303,-315,-284
-181,-245,-66,213,-53,-162,464,518,116,-297,-309,-278
-181,-245,-66,213,-53,-162,476,530,128,-297,-303,-278
-181,-245,-66,213,-53,-162,494,560,146,-291,-303,-278
-181,-239,-54,207,-59,-150,494,578,158,-279,-303,-278
-181,-233,-48,207,-65,-144,500,608,182,-279,-297,-272
-181,-233,-48,207,-65,-144,506,626,200,-279,-291,-272
-175,-227,-48,201,-59,-138,506,626,206,-285,-291,-272
-175,-221,-42,195,-65,-132,512,638,224,-279,-291,-260
-169,-215,-42,189,-59,-132,524,638,230,-279,-291,-260
-169,-209,-36,189,-65,-126,530,650,242,-273,-285,-266
-163,-215,-48,189,-53,-132,536,674,254,-267,-285,-266
-163,-209,-42,183,-59,-126,548,704,272,-267,-285,-260
-163,-209,-42,183,-59,-126,560,734,284,-261,-279,-260
-163,-203,-36,183,-59,-120,572,752,302,-255,-267,-254
-163,-197,-30,177,-65,-114,590,776,320,-249,-267,-254
-163,-197,-30,177,-65,-114,596,794,326,-243,-267,-248
-163,-191,-24,177,-65,-108,608,812,338,-237,-261,-248
-163,-185,-18,171,-71,-102,620,818,338,-237,-261,-248
-163,-173,-7,165,-77,-90,632,824,344,-237,-261,-248
-163,-167,-7,165,-77,-84,638,842,344,-231,-255,-248
-163,-155,-1,159,-83,-72,656,866,350,-225,-249,-242
-163,-149,5,153,-89,-66,668,890,356,-219,-243,-242
-163,-143,11,153,-89,-60,686,914,368,-207,-237,-242
-163,-137,17,147,-95,-54,698,944,374,-207,-237,-242
-163,-137,17,147,-95,-54,722,974,380,-201,-237,-242
-163,-131,23,147,-95,-48,728,980,380,-201,-231,-236
-163,-125,29,141,-101,-42,740,986,374,-201,-231,-236
-163,-119,35,141,-101,-36,752,986,374,-201,-225,-236
-163,-113,41,135,-107,-30,764,986,368,-207,-225,-236
-169,-113,47,141,-113,-30,782,998,368,-201,-225,-236
-175,-113,53,141,-119,-24,794,1010,368,-201,-219,-230
-175,-107,59,141,-119,-18,806,1022,362,-201,-219,-230
-181,-107,65,141,-125,-18,818,1040,356,-207,-219,-224
-181,-101,71,141,-131,-12,836,1052,350,-207,-219,-218
-187,-101,77,141,-137,-7,848,1064,338,-219,-225,-218
-187,-95,83,141,-137,-7,860,1064,332,-225,-231,-224
-187,-95,83,141,-137,-7,860,1064,308,-231,-237,-230
-187,-95,83,141,-137,-7,866,1052,296,-243,-243,-242
-193,-95,89,141,-143,-7,872,1052,272,-249,-243,-236
-193,-89,95,141,-149,-7,878,1040,254,-261,-243,-236
-193,-89,95,141,-149,-7,878,1034,236,-285,-243,-230
-193,-89,95,141,-149,-7,878,1010,212,-303,-249,-230
-199,-95,95,147,-149,-7,884,998,182,-327,-255,-230
-199,-95,95,147,-149,-7,884,986,146,-345,-255,-242
-199,-101,89,147,-149,-7,890,956,116,-369,-261,-248
-205,-101,95,153,-155,-7,884,926,86,-387,-267,-248
-205,-107,89,153,-149,-7,866,896,50,-417,-273,-254
-205,-113,83,159,-149,-12,854,866,14,-441,-291,-260
-205,-119,77,159,-143,-18,830,830,-21,-465,-297,-266
-205,-125,71,165,-143,-24,806,794,-63,-495,-309,-266
-205,-119,77,159,-143,-18,782,758,-111,-513,-321,-272
-205,-125,71,165,-143,-24,758,728,-159,-543,-333,-278
-211,-125,77,165,-149,-18,740,698,-207,-567,-345,-278
-211,-131,71,171,-143,-24,716,650,-249,-597,-357,-284
-205,-143,53,171,-131,-42,698,602,-291,-627,-369,-290
-205,-149,47,177,-131,-48,674,554,-339,-657,-381,-296
-205,-155,41,177,-125,-54,650,500,-381,-687,-393,-302
-205,-161,35,183,-125,-60,620,452,-441,-717,-405,-302
-199,-167,23,183,-113,-66,584,398,-477,-741,-417,-308
-199,-173,17,183,-113,-72,542,344,-537,-777,-429,-314
-187,-173,5,177,-101,-78,506,290,-591,-801,-441,-314
-187,-179,-1,183,-95,-84,470,242,-639,-831,-459,-320
-193,-179,5,183,-101,-84,440,188,-669,-861,-459,-314
-187,-185,-7,183,-95,-90,416,128,-705,-885,-471,-314
-193,-191,-7,189,-95,-96,386,80,-741,-903,-477,-308
-193,-191,-7,189,-95,-96,362,26,-783,-927,-477,-308
-187,-197,-7,189,-89,-102,332,-9,-807,-939,-489,-314
-187,-197,-7,189,-89,-102,302,-57,-831,-951,-489,-314
-181,-197,-12,189,-83,-108,272,-93,-861,-957,-495,-308
-175,-197,-18,183,-77,-108,254,-129,-873,-969,-489,-308
-169,-197,-24,183,-71,-114,230,-147,-873,-969,-489,-296
-169,-197,-24,183,-71,-114,206,-177,-879,-969,-489,-296
-157,-197,-36,177,-59,-120,194,-189,-879,-963,-483,-290
-157,-197,-36,177,-59,-120,176,-207,-879,-963,-471,-284
-157,-197,-36,177,-59,-120,176,-213,-861,-939,-459,-278
-151,-197,-42,171,-53,-120,164,-219,-837,-915,-453,-272
-151,-197,-42,171,-53,-120,170,-213,-801,-879,-435,-266
-151,-191,-36,171,-53,-114,170,-213,-759,-849,-429,-260
-151,-191,-36,171,-53,-114,158,-207,-717,-819,-417,-260
-145,-191,-42,165,-47,-120,152,-201,-669,-777,-405,-254
-145,-191,-42,165,-47,-120,146,-183,-627,-753,-393,-248
-139,-191,-48,165,-41,-120,140,-171,-591,-729,-381,-242
-139,-191,-48,165,-41,-120,140,-153,-549,-705,-369,-236
-139,-191,-48,165,-41,-120,140,-129,-507,-675,-357,-230
-139,-191,-48,165,-41,-120,140,-105,-471,-645,-345,-224
-139,-185,-42,159,-47,-114,140,-87,-435,-609,-333,-224
-139,-179,-36,159,-47,-108,146,-69,-387,-573,-315,-230
-139,-179,-36,159,-47,-108,152,-51,-345,-537,-303,-224
-133,-173,-36,153,-47,-108,158,-33,-303,-495,-297,-230
-133,-173,-36,153,-47,-108,164,-27,-261,-465,-285,-230
-133,-167,-30,147,-47,-102,170,-15,-225,-435,-285,-224
-133,-167,-30,147,-47,-102,170,-3,-189,-411,-273,-218
-133,-167,-30,147,-47,-102,170,14,-165,-399,-267,-212
-133,-167,-30,147,-47,-102,170,14,-141,-375,-267,-212
-133,-167,-30,147,-47,-102,164,26,-123,-357,-261,-212
-133,-167,-30,147,-47,-102,170,44,-99,-339,-249,-212
-133,-161,-24,147,-53,-96,164,56,-75,-315,-243,-212
-133,-161,-24,147,-53,-96,164,56,-51,-297,-237,-212
-127,-161,-30,141,-47,-96,170,56,-33,-279,-237,-218
-127,-161,-30,141,-47,-96,170,56,-21,-261,-231,-218
-121,-161,-36,141,-41,-102,170,50,-15,-261,-231,-218
-121,-161,-36,141,-41,-102,170,50,-3,-249,-231,-218
-121,-161,-36,141,-41,-102,170,62,3,-249,-231,-218
-121,-161,-36,141,-41,-102,170,62,9,-243,-231,-218
-133,-167,-30,147,-47,-102,170,68,3,-243,-237,-218
-133,-167,-30,147,-47,-102,170,74,3,-243,-231,-218
-133,-167,-30,147,-47,-102,170,68,9,-237,-225,-218
-127,-167,-36,147,-41,-102,170,62,9,-231,-225,-218
-127,-167,-36,147,-41,-102,170,50,14,-225,-219,-212
-127,-167,-36,147,-41,-102,164,44,14,-225,-219,-212
-127,-161,-30,141,-47,-96,164,44,14,-231,-219,-212
-127,-161,-30,141,-47,-96,158,38,14,-231,-219,-212
-127,-155,-24,141,-47,-90,158,32,9,-231,-219,-212
-127,-155,-24,141,-47,-90,152,26,9,-231,-219,-212
-127,-167,-36,147,-41,-102,152,32,9,-225,-213,-212
-127,-155,-24,141,-47,-90,152,26,-3,-225,-213,-212
-127,-161,-30,141,-47,-96,152,20,-9,-225,-213,-206
-127,-161,-30,141,-47,-96,152,14,-3,-225,-213,-206
-127,-155,-24,141,-47,-90,158,14,-15,-231,-213,-200
-127,-155,-24,141,-47,-90,152,14,-21,-231,-213,-206
-127,-155,-24,141,-47,-90,146,9,-27,-231,-213,-206
-127,-155,-24,141,-47,-90,140,3,-33,-231,-213,-212
-127,-155,-24,141,-47,-90,134,-3,-39,-231,-213,-212
-127,-155,-24,141,-47,-90,134,-9,-39,-237,-213,-212
-127,-155,-24,141,-47,-90,134,-15,-45,-237,-213,-212
-127,-155,-24,141,-47,-90,134,-15,-51,-237,-213,-212
-127,-161,-30,141,-47,-96,128,-21,-51,-237,-213,-212
-127,-161,-30,141,-47,-96,128,-27,-57,-237,-213,-212
-127,-161,-30,141,-47,-96,128,-27,-63,-237,-213,-212
-127,-161,-30,141,-47,-96,116,-33,-63,-237,-213,-212
-127,-161,-30,141,-47,-96,116,-39,-63,-237,-213,-212
-127,-161,-30,141,-47,-96,116,-51,-69,-243,-213,-212
-127,-161,-30,141,-47,-96,116,-51,-75,-243,-219,-212
-127,-161,-30,141,-47,-96,116,-63,-81,-243,-219,-212
-127,-161,-30,141,-47,-96,116,-63,-81,-243,-219,-212
-127,-161,-30,141,-47,-96,110,-63,-81,-237,-213,-212
-127,-161,-30,141,-47,-96,110,-63,-81,-243,-213,-206
-127,-161,-30,141,-47,-96,104,-63,-75,-237,-207,-206
-127,-149,-18,135,-53,-84,104,-57,-75,-237,-201,-206
-127,-137,-7,129,-59,-72,116,-57,-75,-231,-195,-194
-127,-119,-1,123,-65,-54,122,-51,-63,-219,-189,-194
-127,-107,11,117,-71,-42,134,-45,-57,-213,-195,-182
-127,-95,23,111,-77,-30,146,-33,-45,-207,-189,-176
-127,-83,35,105,-83,-18,170,-15,-39,-201,-177,-170
-127,-65,53,93,-95,-7,182,-3,-33,-189,-165,-164
-127,-59,59,93,-95,-7,200,3,-27,-183,-159,-158
-127,-59,59,93,-95,-7,200,3,-21,-183,-159,-158
-133,-53,71,93,-107,-1,206,9,-15,-183,-147,-158
-133,-47,77,87,-107,5,218,14,-9,-183,-141,-146
-127,-23,95,75,-113,29,224,14,-3,-183,-129,-140
-127,-11,107,69,-119,41,224,14,3,-177,-129,-134
-133,-6,119,69,-131,47,230,26,9,-165,-117,-128
-121,6,131,51,-125,65,236,38,14,-147,-111,-122
-121,30,155,39,-137,89,236,38,20,-129,-93,-104
-115,54,173,21,-143,113,236,44,38,-111,-75,-92
-103,78,185,3,-143,131,230,44,38,-99,-63,-80
-97,102,203,3,-149,149,200,26,38,-93,-51,-62
-85,114,203,-8,-143,155,182,14,38,-93,-51,-50
-79,138,221,-20,-149,179,164,9,38,-87,-39,-44
-79,156,233,-32,-161,197,158,3,32,-93,-33,-32
-79,162,239,-32,-161,203,134,-9,20,-93,-33,-32
-73,168,239,-38,-161,203,98,-39,14,-105,-33,-32
-73,174,245,-44,-161,209,68,-63,9,-105,-33,-32
-73,180,251,-44,-167,215,68,-75,14,-99,-28,-20
-73,180,251,-44,-167,215,56,-81,9,-93,-28,-20
-61,180,239,-50,-155,209,44,-93,-3,-99,-28,-20
-55,168,227,-50,-143,197,26,-105,-15,-99,-28,-20
-55,156,215,-44,-137,185,20,-117,-27,-123,-33,-26
-55,144,203,-38,-131,173,20,-117,-39,-129,-39,-32
-55,126,185,-26,-119,155,20,-117,-39,-135,-51,-38
-55,102,161,-14,-107,131,20,-117,-39,-147,-57,-44
-55,78,137,-2,-95,107,38,-105,-39,-147,-75,-50
-61,42,107,3,-83,71,38,-93,-39,-159,-81,-62
-55,-6,47,27,-53,17,20,-111,-75,-171,-105,-98
-79,-35,35,57,-59,-7,20,-129,-99,-201,-141,-134
-103,-47,47,75,-77,-7,32,-129,-93,-207,-153,-146
-127,-53,65,87,-101,-1,62,-117,-93,-213,-147,-152
-133,-71,53,99,-95,-7,80,-111,-99,-225,-159,-152
-133,-77,47,105,-95,-12,92,-93,-87,-225,-159,-152
-133,-83,41,105,-89,-18,104,-75,-75,-225,-153,-152
-133,-95,29,111,-83,-30,134,-51,-63,-225,-153,-158
-133,-113,11,123,-77,-48,164,-39,-63,-225,-165,-164
-121,-125,-7,123,-59,-66,182,-15,-57,-225,-165,-170
-115,-131,-12,123,-47,-72,200,-15,-51,-225,-165,-170
-115,-143,-24,129,-41,-84,236,14,-39,-213,-165,-176
-127,-137,-7,129,-59,-72,308,56,-21,-201,-165,-176
-127,-143,-12,135,-53,-78,422,104,-3,-201,-177,-182
-139,-149,-7,141,-65,-78,542,146,-3,-213,-189,-188
-139,-149,-7,141,-65,-78,608,188,-3,-213,-195,-206
-139,-161,-18,147,-59,-90,638,224,14,-213,-195,-206
-139,-161,-18,147,-59,-90,680,266,20,-201,-195,-206
-133,-149,-12,141,-59,-84,692,326,50,-201,-183,-200
-109,-143,-30,123,-35,-90,680,422,80,-189,-177,-200
-73,-125,-48,99,-11,-90,590,512,128,-159,-153,-188
-31,-65,-30,45,0,-48,440,602,188,-123,-135,-170
4,-6,-7,3,6,-7,242,674,266,-75,-99,-134
52,66,5,-56,18,35,20,692,308,-27,-57,-98
94,114,11,-104,36,65,-177,680,314,-3,-45,-74
124,180,47,-152,30,113,-357,698,338,2,-33,-56
160,222,53,-188,48,137,-531,734,356,26,-22,-32
190,234,41,-212,66,143,-711,740,362,38,8,-26
214,240,23,-230,90,137,-837,740,362,38,14,-32
226,252,23,-236,96,143,-915,716,368,50,14,-20
250,276,17,-260,114,149,-969,698,380,74,50,10
286,276,-7,-278,150,131,-1041,638,416,110,80,21
316,252,-60,-284,192,95,-1119,482,410,140,98,21
352,270,-78,-308,216,95,-1161,356,422,176,128,39
376,324,-48,-350,216,137,-1179,254,476,242,176,87
394,396,-7,-392,198,197,-1215,104,524,326,242,135
406,462,47,-434,174,251,-1263,-51,554,398,290,195
424,486,59,-458,180,275,-1299,-207,572,452,326,231
460,498,35,-482,210,269,-1359,-315,596,494,356,249
520,498,-18,-506,270,233,-1431,-393,686,578,404,273
628,516,-108,-572,366,203,-1539,-525,752,686,470,333
736,534,-204,-638,474,167,-1755,-927,692,812,602,417
874,576,-294,-728,582,137,-2007,-1425,554,974,752,531
1006,672,-336,-836,672,167,-2211,-1755,542,1160,926,687
1174,768,-402,-968,786,185,-2444,-2043,524,1352,1130,831
1336,888,-450,-1112,894,221,-2720,-2474,392,1544,1352,1023
1468,1068,-402,-1268,936,329,-2972,-2990,206,1796,1652,1287
1594,1272,-318,-1436,960,479,-3230,-3560,-9,2083,1964,1551
1708,1494,-216,-1604,966,641,-3506,-4046,-207,2419,2329,1857
1810,1728,-78,-1766,948,821,-3686,-4328,-309,2796,2712,2168
1870,1986,113,-1928,876,1049,-3782,-4484,-333,3204,3126,2485
1876,2249,371,-2060,744,1313,-3848,-4664,-351,3642,3528,2797
1828,2488,659,-2162,582,1577,-3830,-4784,-399,4056,3912,3085
1708,2572,857,-2144,426,1715,-3656,-4682,-387,4482,4218,3247
1552,2285,725,-1922,408,1505,-3236,-4160,-99,4931,4380,3181
1366,1806,437,-1586,462,1121,-2702,-3422,344,5303,4368,2935
1204,1542,335,-1370,432,941,-2289,-2870,572,5393,4272,2743
1066,1404,329,-1232,366,869,-2001,-2516,560,5147,4086,2593
946,1188,233,-1064,348,713,-1713,-2151,428,4488,3648,2318
790,876,77,-830,354,479,-1383,-1743,206,3540,3024,1935
622,600,-18,-608,318,287,-1071,-1401,-3,2652,2400,1539
448,390,-54,-416,246,167,-765,-1077,-141,1832,1784,1137
262,144,-120,-206,192,5,-477,-723,-189,974,1034,639
130,-89,-228,-14,174,-156,-231,-393,-123,356,332,165
58,-155,-222,39,138,-186,-93,-189,-9,152,50,-38
16,-119,-144,45,78,-132,-27,-117,20,140,98,-14
-2,-95,-102,39,48,-96,20,-57,32,146,122,-2
-19,-119,-96,69,30,-108,86,26,92,146,74,-38
-55,-137,-78,93,0,-108,164,110,134,104,38,-62
-97,-167,-66,129,-11,-120,218,170,140,50,-10,-98
-115,-203,-84,159,-11,-144,260,218,140,2,-51,-134
-127,-221,-90,171,-17,-156,278,254,146,-45,-99,-182
-133,-227,-90,177,-17,-162,296,290,146,-99,-147,-200
-133,-233,-96,183,-17,-168,320,320,140,-153,-183,-218
-121,-239,-114,177,0,-180,320,338,128,-189,-201,-236
-133,-245,-108,189,-11,-180,326,350,110,-225,-219,-242
-133,-245,-108,189,-11,-180,338,362,104,-243,-231,-242
-145,-245,-102,195,-17,-180,356,374,104,-255,-243,-242
-157,-251,-96,207,-29,-180,374,386,104,-255,-243,-248
-163,-257,-96,213,-29,-180,392,410,110,-255,-261,-260
-169,-257,-90,213,-35,-180,410,428,104,-261,-267,-266
-169,-263,-96,219,-35,-186,422,464,110,-267,-273,-278
-169,-263,-96,219,-35,-186,434,488,110,-273,-279,-284
-175,-263,-90,219,-41,-180,434,494,110,-285,-279,-284
-181,-263,-84,225,-47,-180,440,500,110,-291,-279,-284
-187,-263,-78,225,-53,-174,440,500,104,-297,-279,-284
-181,-257,-78,219,-47,-174,440,500,104,-297,-279,-284
-181,-251,-72,219,-53,-168,452,512,104,-297,-273,-284
-181,-251,-72,219,-53,-168,458,518,104,-297,-273,-278
-181,-239,-54,207,-59,-150,470,542,116,-297,-273,-278
-181,-239,-54,207,-59,-150,488,554,128,-297,-267,-278
-181,-245,-60,213,-59,-156,500,578,146,-291,-267,-278
-181,-233,-48,207,-65,-144,500,596,158,-279,-267,-278
-181,-233,-48,207,-65,-144,500,620,182,-279,-267,-272
-181,-233,-48,207,-65,-144,506,638,200,-279,-261,-272
-175,-227,-48,201,-59,-138,506,638,206,-279,-267,-272
-175,-221,-42,195,-65,-132,512,650,224,-273,-267,-260
-169,-215,-42,189,-59,-132,524,650,230,-267,-267,-260
-169,-209,-36,189,-65,-126,530,662,242,-261,-267,-266
-169,-203,-30,183,-65,-120,536,680,254,-261,-267,-266
-169,-197,-24,183,-71,-114,548,710,272,-261,-267,-260
-175,-185,-7,177,-83,-96,560,734,284,-261,-261,-260
-175,-179,-7,177,-83,-90,572,752,302,-255,-249,-254
-175,-173,-7,171,-89,-84,590,776,320,-249,-249,-254
-175,-173,-7,171,-89,-84,596,794,326,-243,-243,-248
-175,-167,-1,171,-89,-78,608,812,338,-237,-237,-248
-175,-161,5,165,-95,-72,620,818,338,-237,-237,-248
-175,-161,5,165,-95,-72,632,824,344,-231,-231,-242
-175,-155,11,165,-95,-66,638,842,344,-225,-225,-242
-175,-155,11,165,-95,-66,656,866,350,-213,-213,-230
-175,-149,17,159,-101,-60,668,890,356,-207,-207,-230
-175,-137,29,153,-107,-48,686,914,362,-201,-207,-236
-175,-131,35,153,-107,-42,698,944,368,-201,-207,-236
-175,-125,41,147,-113,-36,722,974,368,-201,-213,-242
-175,-119,47,147,-113,-30,728,980,368,-201,-207,-236
-175,-113,53,141,-119,-24,740,986,368,-201,-207,-236
-175,-107,59,141,-119,-18,752,986,368,-201,-201,-236
-175,-101,65,135,-125,-12,764,992,368,-207,-201,-236
-181,-101,71,141,-131,-12,782,1010,368,-201,-201,-236
-181,-101,71,141,-131,-12,794,1022,368,-201,-195,-230
-181,-95,77,135,-131,-7,806,1034,362,-201,-195,-230
-181,-95,77,135,-131,-7,818,1052,356,-207,-195,-224
-181,-89,83,135,-137,-7,836,1064,350,-207,-195,-218
-187,-89,89,135,-143,-7,848,1076,344,-213,-195,-218
-187,-83,95,135,-143,-1,860,1076,338,-219,-201,-218
-187,-83,95,135,-143,-1,860,1076,320,-219,-201,-224
-187,-83,95,135,-143,-1,866,1064,308,-237,-207,-230
-193,-83,101,135,-149,-1,878,1070,284,-243,-213,-230
-193,-77,107,135,-155,5,884,1058,266,-261,-213,-230
-193,-77,107,135,-155,5,890,1058,248,-291,-219,-230
-193,-77,107,135,-155,5,890,1034,224,-315,-225,-230
-199,-77,113,135,-161,11,890,1022,194,-327,-237,-230
-199,-77,113,135,-161,11,890,998,158,-345,-237,-242
-199,-77,113,135,-161,11,890,974,128,-357,-249,-248
-205,-77,119,141,-167,11,884,938,98,-375,-261,-248
-205,-83,113,141,-161,5,872,920,68,-405,-267,-254
-205,-89,107,147,-161,-1,860,890,26,-429,-279,-260
-205,-95,101,147,-155,-7,842,866,3,-453,-285,-266
-205,-101,95,153,-155,-7,818,830,-39,-483,-297,-266
-205,-107,89,153,-149,-7,800,788,-87,-507,-315,-272
-205,-113,83,159,-149,-12,776,752,-135,-537,-327,-278
-211,-125,77,165,-149,-18,758,722,-183,-567,-345,-278
-211,-131,71,171,-143,-24,740,674,-225,-597,-357,-284
-205,-137,59,171,-137,-36,710,626,-267,-621,-369,-290
-205,-143,53,171,-131,-42,686,578,-315,-651,-381,-296
-205,-143,53,171,-131,-42,650,518,-357,-675,-393,-302
-205,-149,47,177,-131,-48,620,476,-417,-705,-405,-302
-205,-155,41,177,-125,-54,590,428,-459,-735,-411,-308
-205,-161,35,183,-125,-60,548,374,-513,-771,-423,-314
-199,-161,29,177,-119,-60,512,326,-567,-801,-429,-314
-199,-167,23,183,-113,-66,482,272,-615,-831,-447,-320
-199,-173,17,183,-113,-72,452,218,-651,-861,-453,-320
-193,-179,5,183,-101,-84,428,152,-687,-885,-465,-320
-193,-191,-7,189,-95,-96,398,98,-729,-903,-477,-320
-193,-191,-7,189,-95,-96,374,38,-771,-927,-477,-320
-187,-197,-7,189,-89,-102,344,9,-795,-939,-483,-326
-187,-197,-7,189,-89,-102,314,-33,-819,-951,-483,-326
-181,-197,-12,189,-83,-108,284,-63,-849,-957,-483,-320
-175,-197,-18,183,-77,-108,260,-93,-861,-969,-477,-320
-175,-197,-18,183,-77,-108,242,-117,-867,-969,-477,-308
-175,-197,-18,183,-77,-108,218,-147,-873,-969,-477,-308
-169,-197,-24,183,-71,-114,206,-165,-879,-969,-471,-302
-169,-197,-24,183,-71,-114,188,-183,-879,-969,-459,-296
-169,-197,-24,183,-71,-114,182,-201,-867,-957,-453,-284
-163,-197,-30,177,-65,-114,170,-207,-849,-933,-447,-278
-163,-197,-30,177,-65,-114,170,-213,-819,-903,-435,-266
-163,-191,-24,177,-65,-108,170,-213,-783,-873,-429,-260
-163,-191,-24,177,-65,-108,158,-207,-735,-837,-411,-260
-157,-191,-30,171,-59,-114,152,-201,-687,-795,-399,-254
-157,-191,-30,171,-59,-114,146,-183,-645,-765,-381,-248
-151,-191,-36,171,-53,-114,140,-171,-603,-741,-369,-242
-151,-185,-30,165,-59,-108,140,-153,-567,-717,-351,-236
-151,-185,-30,165,-59,-108,140,-129,-525,-687,-339,-230
-151,-179,-24,165,-59,-102,140,-105,-495,-657,-321,-224
-151,-173,-18,159,-65,-96,140,-87,-459,-621,-309,-224
-145,-173,-24,159,-59,-102,140,-75,-411,-585,-297,-224
-145,-173,-24,159,-59,-102,146,-57,-369,-549,-285,-218
-133,-173,-36,153,-47,-108,146,-45,-327,-507,-285,-218
-133,-173,-36,153,-47,-108,152,-39,-285,-477,-273,-218
-133,-167,-30,147,-47,-102,158,-21,-243,-447,-267,-218
-133,-167,-30,147,-47,-102,158,-9,-207,-423,-261,-212
-133,-167,-30,147,-47,-102,158,14,-177,-411,-249,-200
-133,-167,-30,147,-47,-102,158,14,-153,-387,-243,-200
-133,-167,-30,147,-47,-102,158,20,-141,-363,-243,-200
-133,-167,-30,147,-47,-102,164,38,-117,-345,-231,-200
-133,-161,-24,147,-53,-96,164,44,-99,-315,-231,-200
-133,-161,-24,147,-53,-96,164,44,-75,-297,-225,-200
-133,-161,-24,147,-53,-96,170,56,-45,-279,-225,-206
-133,-161,-24,147,-53,-96,170,56,-33,-261,-219,-206
-133,-161,-24,147,-53,-96,170,62,-15,-261,-219,-212
-133,-161,-24,147,-53,-96,170,62,-3,-249,-219,-212
-127,-155,-24,141,-47,-90,170,62,3,-255,-213,-212
-127,-155,-24,141,-47,-90,170,62,3,-249,-213,-212
-133,-155,-18,141,-53,-90,170,56,-3,-255,-213,-212
-133,-155,-18,141,-53,-90,170,62,-9,-255,-207,-212
-133,-155,-18,141,-53,-90,164,62,-3,-243,-213,-212
-127,-155,-24,141,-47,-90,164,56,-3,-237,-213,-212
-127,-155,-24,141,-47,-90,158,50,9,-237,-219,-212
-127,-155,-24,141,-47,-90,152,44,9,-237,-219,-212
-133,-155,-18,141,-53,-90,152,44,9,-237,-219,-206
-133,-155,-18,141,-53,-90,146,38,9,-237,-219,-206
-139,-155,-12,147,-59,-84,146,32,9,-231,-219,-200
-139,-155,-12,147,-59,-84,140,26,9,-231,-219,-200
-133,-155,-18,141,-53,-90,140,14,3,-237,-213,-206
-133,-155,-18,141,-53,-90,140,14,-9,-237,-213,-206
-127,-149,-18,135,-53,-84,128,9,-21,-237,-213,-206
-127,-149,-18,135,-53,-84,128,3,-27,-237,-213,-206
-127,-149,-18,135,-53,-84,128,3,-21,-237,-213,-194
-127,-143,-12,135,-53,-78,128,-3,-21,-237,-213,-194
-127,-143,-12,135,-53,-78,134,-3,-27,-231,-213,-200
-133,-149,-12,141,-59,-84,128,-9,-33,-231,-213,-200
-133,-149,-12,141,-59,-84,128,-9,-39,-231,-213,-200
-139,-155,-12,147,-59,-84,122,-15,-45,-231,-213,-200
-139,-155,-12,147,-59,-84,122,-15,-51,-231,-213,-200
-139,-155,-12,147,-59,-84,116,-27,-57,-237,-219,-200
-139,-155,-12,147,-59,-84,110,-33,-63,-237,-219,-200
-139,-155,-12,147,-59,-84,104,-39,-75,-237,-225,-200
-139,-161,-18,147,-59,-90,92,-45,-75,-237,-225,-200
-139,-161,-18,147,-59,-90,98,-51,-75,-237,-225,-200
-139,-161,-18,147,-59,-90,98,-51,-81,-237,-225,-200
-139,-161,-18,147,-59,-90,92,-57,-75,-237,-225,-200
-139,-161,-18,147,-59,-90,92,-63,-75,-237,-225,-200
-139,-161,-18,147,-59,-90,92,-69,-81,-243,-225,-200
-139,-161,-18,147,-59,-90,92,-69,-87,-243,-231,-200
-139,-161,-18,147,-59,-90,92,-75,-93,-243,-231,-200
-139,-161,-18,147,-59,-90,92,-75,-93,-243,-231,-200
-139,-161,-18,147,-59,-90,92,-75,-93,-243,-231,-200
-139,-161,-18,147,-59,-90,92,-75,-93,-249,-231,-194
-139,-161,-18,147,-59,-90,92,-75,-87,-249,-231,-194
-139,-149,-7,141,-65,-78,92,-69,-87,-243,-225,-194
-133,-143,-7,135,-59,-78,104,-63,-87,-237,-213,-182
-133,-125,-1,129,-71,-60,110,-57,-75,-231,-207,-182
-127,-119,-1,123,-65,-54,122,-45,-69,-225,-207,-170
-127,-107,11,117,-71,-42,134,-33,-57,-219,-201,-164
-133,-89,35,111,-89,-24,152,-21,-45,-207,-189,-158
-133,-71,53,99,-95,-7,164,-9,-39,-195,-177,-152
-139,-59,71,99,-107,-1,176,-9,-27,-183,-171,-146
-139,-59,71,99,-107,-1,176,-9,-21,-183,-171,-146
-145,-59,77,99,-113,-1,188,-3,-21,-183,-165,-146
-145,-53,83,99,-119,5,200,3,-15,-183,-159,-134
-139,-35,95,87,-119,23,212,9,-15,-183,-153,-128
-139,-23,107,81,-125,35,212,14,-9,-177,-153,-122
-133,-11,113,69,-125,41,218,14,3,-171,-147,-116
-121,0,125,51,-125,59,224,26,14,-153,-141,-110
-109,30,143,33,-125,83,224,26,20,-141,-129,-92
-103,54,161,15,-131,107,224,32,38,-123,-111,-80
-97,78,179,3,-137,125,218,26,32,-111,-99,-68
-91,102,197,3,-143,149,188,14,32,-105,-87,-50
-85,114,203,-8,-143,155,170,-3,26,-105,-87,-38
-79,138,221,-20,-149,179,152,-15,26,-99,-75,-32
-79,156,233,-32,-161,197,146,-21,26,-99,-69,-20
-79,162,239,-32,-161,203,122,-33,14,-99,-69,-20
-73,168,239,-38,-161,203,86,-63,14,-105,-69,-20
-73,174,245,-44,-161,209,56,-87,9,-105,-69,-20
-79,180,257,-44,-173,221,44,-93,3,-105,-63,-8
-79,180,257,-44,-173,221,32,-99,-3,-105,-63,-8
-73,180,251,-44,-167,215,20,-105,-27,-117,-63,-8
-67,168,233,-44,-155,203,3,-117,-39,-123,-63,-8
-61,150,215,-38,-137,179,9,-129,-45,-135,-75,-14
-61,138,203,-32,-131,167,9,-129,-57,-141,-81,-20
-55,114,173,-20,-113,143,15,-129,-51,-135,-87,-26
-55,90,149,-8,-101,119,20,-129,-51,-147,-93,-32
-55,66,125,3,-89,95,20,-117,-51,-147,-99,-50
-61,30,95,9,-77,59,20,-117,-51,-159,-117,-62
-67,-11,47,39,-59,11,20,-123,-75,-183,-153,-98
-91,-35,47,63,-71,-1,20,-141,-99,-213,-177,-122
-115,-47,59,81,-89,-1,20,-129,-105,-219,-189,-134
-139,-65,65,99,-107,-7,38,-117,-105,-225,-195,-140
-145,-83,53,111,-101,-12,68,-111,-99,-225,-195,-152
-145,-89,47,117,-101,-18,80,-93,-99,-225,-195,-152
-145,-95,41,117,-95,-24,92,-75,-87,-225,-201,-152
-145,-95,41,117,-95,-24,122,-51,-75,-225,-201,-158
-145,-113,23,129,-89,-42,152,-39,-63,-225,-201,-164
-133,-125,-1,129,-71,-60,170,-27,-57,-225,-201,-170
-139,-131,-1,135,-71,-60,188,-15,-51,-225,-213,-158
-139,-131,-1,135,-71,-60,224,3,-51,-213,-213,-164
-139,-137,-7,135,-71,-66,296,44,-33,-201,-213,-164
-139,-143,-7,141,-65,-72,434,104,-3,-201,-213,-170
-151,-149,-7,147,-77,-72,542,158,-3,-213,-213,-176
-151,-161,-7,153,-71,-84,596,200,9,-213,-231,-182
-151,-161,-7,153,-71,-84,638,236,14,-213,-231,-194
-139,-161,-18,147,-59,-90,680,278,20,-213,-219,-194
-133,-161,-24,147,-53,-96,680,338,50,-201,-219,-188
-109,-155,-42,129,-29,-102,656,422,92,-189,-213,-188
-73,-125,-48,99,-11,-90,554,512,140,-159,-201,-176
-31,-77,-42,51,0,-60,392,602,200,-123,-171,-158
4,-6,-7,3,6,-7,194,674,254,-63,-123,-122
52,66,5,-56,18,35,-27,692,308,-27,-93,-98
94,126,23,-110,30,77,-231,692,314,-3,-69,-74
124,168,35,-146,36,101,-417,722,338,8,-45,-44
160,222,53,-188,48,137,-591,752,368,38,-28,-20
190,228,29,-206,72,131,-747,746,374,38,-28,-14
214,234,11,-224,96,125,-861,740,362,26,-22,-8
226,240,11,-236,102,131,-939,716,368,38,-10,4
238,264,17,-248,108,143,-993,686,392,74,14,21
262,264,-7,-260,132,131,-1053,614,404,110,32,27
316,234,-84,-272,204,71,-1143,458,398,140,50,33
340,246,-90,-290,216,77,-1173,332,422,176,80,51
364,312,-48,-338,210,131,-1191,248,476,242,140,87
394,384,-7,-386,204,185,-1215,104,512,326,200,135
406,438,23,-422,186,233,-1251,-51,554,410,254,195
424,480,47,-452,186,263,-1299,-207,572,452,302,231
460,480,11,-470,222,245,-1371,-327,608,494,332,261
520,486,-30,-500,276,227,-1443,-417,686,566,380,285
628,492,-132,-560,378,179,-1551,-561,746,686,452,345
748,522,-228,-638,486,149,-1779,-969,668,812,566,441
874,564,-306,-722,588,125,-2031,-1455,530,962,716,555
1006,660,-348,-830,678,155,-2235,-1791,530,1160,902,687
1186,756,-426,-968,804,167,-2468,-2079,500,1364,1094,843
1336,888,-450,-1112,894,221,-2744,-2510,356,1556,1328,1047
1480,1056,-426,-1268,954,311,-2996,-3038,158,1796,1628,1299
1606,1272,-330,-1442,972,473,-3254,-3608,-45,2107,1964,1599
1708,1506,-204,-1610,960,653,-3518,-4082,-225,2436,2329,1905
1810,1740,-66,-1772,942,833,-3698,-4352,-321,2820,2724,2216
1870,1998,125,-1934,870,1061,-3794,-4508,-345,3228,3126,2521
1876,2261,383,-2066,738,1325,-3848,-4676,-375,3660,3528,2845
1816,2500,683,-2162,564,1595,-3830,-4784,-411,4080,3900,3121
1702,2560,857,-2132,420,1709,-3638,-4634,-375,4506,4206,3271
1528,2225,695,-1880,414,1457,-3200,-4082,-63,4955,4350,3181
1342,1758,413,-1550,462,1085,-2660,-3344,368,5303,4338,2935
1180,1494,311,-1334,432,905,-2265,-2822,584,5369,4260,2743
1054,1380,317,-1214,366,851,-1989,-2480,548,5093,4038,2593
922,1152,227,-1034,342,689,-1689,-2103,416,4392,3582,2306
766,840,65,-800,348,455,-1359,-1719,194,3444,2952,1923
598,588,-7,-590,300,287,-1059,-1377,-15,2568,2329,1527
424,378,-42,-398,234,167,-765,-1053,-153,1748,1700,1113
250,120,-132,-188,192,-7,-477,-705,-201,908,944,603
118,-101,-228,-2,168,-162,-231,-381,-111,320,272,141
46,-167,-222,51,132,-192,-93,-177,-9,140,38,-38
4,-119,-132,51,66,-126,-27,-105,20,152,74,-2
-2,-119,-114,57,48,-120,20,-45,44,158,98,10
-19,-131,-108,75,36,-120,86,38,104,146,62,-14
-67,-149,-78,105,0,-114,152,122,134,116,26,-50
-97,-179,-78,135,-5,-132,206,170,140,50,-28,-74
-127,-191,-60,159,-29,-126,236,206,140,2,-87,-122
-127,-209,-78,165,-23,-144,266,254,146,-45,-135,-158
-133,-227,-90,177,-17,-162,284,302,146,-99,-183,-188
-133,-245,-108,189,-11,-180,308,320,140,-153,-231,-212
-145,-245,-102,195,-17,-180,308,338,128,-189,-249,-224
-151,-251,-102,201,-23,-180,314,350,110,-225,-261,-236
-151,-251,-102,201,-23,-180,326,362,104,-243,-267,-236
-157,-257,-102,207,-23,-186,344,374,104,-255,-273,-242
-169,-263,-96,219,-35,-186,362,386,104,-255,-273,-248
-175,-263,-90,219,-41,-180,380,410,110,-255,-291,-254
-181,-263,-84,225,-47,-180,398,428,104,-261,-303,-260
-181,-263,-84,225,-47,-180,410,464,110,-267,-309,-266
-181,-263,-84,225,-47,-180,422,488,110,-273,-315,-272
-175,-263,-90,219,-41,-180,422,500,110,-279,-315,-272
-181,-263,-84,225,-47,-180,428,500,110,-285,-315,-272
-175,-263,-90,219,-41,-180,428,512,104,-285,-315,-272
-169,-257,-90,213,-35,-180,428,512,104,-285,-315,-272
-175,-257,-84,219,-41,-174,440,518,110,-285,-309,-266
-175,-257,-84,219,-41,-174,440,524,110,-285,-309,-260
-181,-245,-66,213,-53,-162,452,542,128,-285,-309,-254
-181,-245,-66,213,-53,-162,464,554,140,-285,-303,-254
-181,-245,-66,213,-53,-162,482,578,152,-285,-309,-254
-181,-239,-54,207,-59,-150,482,596,164,-273,-309,-254
-181,-233,-48,207,-65,-144,488,620,182,-279,-309,-248
-181,-233,-48,207,-65,-144,494,638,200,-279,-303,-248
-181,-227,-42,201,-65,-138,500,644,212,-279,-297,-248
-181,-221,-36,201,-71,-132,506,656,230,-273,-297,-236
-181,-215,-30,195,-71,-126,512,662,242,-267,-291,-236
-181,-209,-24,195,-77,-120,518,674,254,-261,-285,-242
-175,-209,-30,189,-71,-120,524,692,260,-255,-291,-242
-175,-203,-24,189,-71,-114,536,722,284,-255,-291,-236
-175,-197,-18,183,-77,-108,548,746,296,-249,-291,-236
-175,-191,-12,183,-77,-102,560,764,314,-243,-279,-230
-169,-185,-12,177,-77,-102,572,782,332,-237,-279,-230
-169,-185,-12,177,-77,-102,578,800,338,-237,-273,-224
-163,-179,-12,171,-71,-96,584,812,350,-231,-267,-224
-163,-173,-7,165,-77,-90,596,818,350,-231,-267,-224
-169,-167,-7,165,-83,-84,614,830,356,-225,-267,-224
-169,-161,-1,165,-89,-78,620,848,356,-219,-267,-224
-175,-155,11,165,-95,-66,644,878,362,-213,-261,-218
-175,-149,17,159,-101,-60,656,902,368,-207,-255,-218
-175,-143,23,159,-101,-54,674,926,380,-195,-243,-218
-175,-137,29,153,-107,-48,686,956,386,-195,-243,-218
-175,-137,29,153,-107,-48,710,986,392,-189,-237,-218
-175,-131,35,153,-107,-42,716,986,392,-189,-231,-218
-175,-125,41,147,-113,-36,728,998,386,-189,-231,-218
-175,-119,47,147,-113,-30,740,998,386,-189,-225,-218
-175,-113,53,141,-119,-24,752,1004,380,-195,-225,-218
-181,-113,59,147,-125,-24,770,1022,380,-189,-225,-218
-181,-113,59,147,-125,-24,788,1034,380,-189,-219,-212
-181,-107,65,141,-125,-18,800,1046,374,-189,-219,-212
-181,-107,65,141,-125,-18,818,1064,368,-195,-219,-206
-181,-101,71,141,-131,-12,836,1076,362,-195,-219,-200
-187,-101,77,141,-137,-7,842,1088,356,-207,-219,-200
-187,-95,83,141,-137,-7,854,1088,350,-213,-225,-200
-187,-95,83,141,-137,-7,848,1088,332,-219,-225,-206
-187,-95,83,141,-137,-7,854,1076,320,-237,-231,-212
-199,-95,95,147,-149,-7,866,1076,302,-237,-237,-212
-199,-89,101,141,-155,-1,872,1064,284,-243,-237,-212
-205,-89,107,147,-161,-1,878,1058,266,-261,-243,-212
-205,-89,107,147,-161,-1,878,1034,248,-279,-249,-212
-205,-89,107,147,-161,-1,884,1028,218,-297,-255,-212
-205,-89,107,147,-161,-1,884,1010,182,-315,-255,-218
-199,-89,101,141,-155,-1,890,986,152,-333,-261,-224
-205,-89,107,147,-161,-1,884,962,122,-351,-267,-224
-205,-95,101,147,-155,-7,872,938,92,-381,-267,-230
-205,-101,95,153,-155,-7,860,908,50,-405,-285,-236
-205,-107,89,153,-149,-7,842,878,14,-429,-285,-242
-205,-113,83,159,-149,-12,818,842,-15,-465,-297,-242
-205,-113,83,159,-149,-12,800,806,-63,-483,-315,-248
-205,-119,77,159,-143,-18,776,770,-111,-513,-327,-254
-211,-125,77,165,-149,-18,758,746,-159,-543,-345,-254
-211,-131,71,171,-143,-24,740,698,-207,-573,-357,-260
-211,-143,59,177,-137,-36,710,656,-243,-597,-369,-266
-211,-149,53,177,-137,-42,686,608,-291,-627,-381,-272
-217,-155,53,183,-137,-48,650,554,-333,-651,-393,-278
-217,-161,47,189,-137,-54,620,506,-393,-681,-405,-278
-211,-167,35,189,-125,-60,590,458,-429,-717,-411,-284
-211,-173,29,189,-125,-66,548,404,-483,-747,-423,-290
-199,-173,17,183,-113,-72,512,350,-531,-777,-429,-290
-199,-179,11,189,-107,-78,482,296,-579,-807,-447,-296
-193,-179,5,183,-101,-84,452,248,-615,-831,-453,-296
-187,-185,-7,183,-95,-90,428,188,-651,-855,-465,-296
-181,-191,-7,183,-83,-102,398,140,-699,-867,-477,-296
-181,-191,-7,183,-83,-102,374,86,-735,-891,-477,-296
-181,-197,-12,189,-83,-108,338,32,-759,-909,-489,-302
-181,-197,-12,189,-83,-108,308,-3,-783,-921,-489,-302
-181,-197,-12,189,-83,-108,272,-45,-813,-933,-495,-296
-175,-197,-18,183,-77,-108,254,-81,-825,-945,-489,-296
-175,-203,-24,189,-71,-114,236,-99,-837,-951,-489,-284
-175,-203,-24,189,-71,-114,218,-129,-843,-951,-489,-284
-169,-209,-36,189,-65,-126,212,-141,-855,-951,-483,-278
-169,-209,-36,189,-65,-126,200,-159,-855,-951,-471,-272
-169,-209,-36,189,-65,-126,188,-171,-843,-933,-459,-266
-163,-209,-42,183,-59,-126,176,-177,-819,-909,-453,-260
-163,-209,-42,183,-59,-126,170,-177,-789,-879,-435,-254
-163,-203,-36,183,-59,-120,170,-177,-747,-849,-429,-248
-157,-197,-36,177,-59,-120,158,-183,-705,-807,-417,-248
-151,-197,-42,171,-53,-120,152,-177,-657,-765,-405,-242
-145,-191,-42,165,-47,-120,146,-171,-615,-729,-393,-236
-139,-191,-48,165,-41,-120,140,-159,-579,-711,-381,-230
-139,-191,-48,165,-41,-120,140,-141,-543,-687,-363,-218
-139,-191,-48,165,-41,-120,140,-117,-501,-657,-351,-218
-139,-191,-48,165,-41,-120,140,-93,-471,-633,-333,-206
-139,-185,-42,159,-47,-114,140,-75,-435,-597,-321,-206
-139,-185,-42,159,-47,-114,146,-51,-381,-561,-303,-206
-139,-185,-42,159,-47,-114,152,-33,-339,-519,-291,-200
-133,-185,-48,159,-41,-120,158,-9,-291,-483,-285,-200
-133,-185,-48,159,-41,-120,164,-3,-249,-441,-273,-200
-133,-179,-42,153,-41,-114,164,3,-219,-411,-273,-200
-133,-179,-42,153,-41,-114,164,14,-177,-387,-267,-194
-133,-179,-42,153,-41,-114,158,20,-153,-375,-261,-188
-133,-179,-42,153,-41,-114,158,26,-129,-351,-255,-188
-133,-179,-42,153,-41,-114,158,44,-111,-333,-249,-182
-133,-179,-42,153,-41,-114,164,62,-87,-315,-237,-182
-133,-173,-36,153,-47,-108,164,80,-63,-291,-231,-176
-133,-173,-36,153,-47,-108,164,80,-39,-273,-225,-176
-133,-173,-36,153,-47,-108,170,80,-15,-249,-225,-176
-133,-173,-36,153,-47,-108,170,80,-3,-237,-219,-176
-133,-173,-36,153,-47,-108,170,74,9,-231,-219,-176
-133,-173,-36,153,-47,-108,170,74,14,-219,-219,-176
-127,-167,-36,147,-41,-102,170,80,14,-225,-213,-182
-127,-167,-36,147,-41,-102,170,80,20,-219,-213,-182
-133,-167,-30,147,-47,-102,170,80,14,-225,-213,-188
-133,-167,-30,147,-47,-102,170,86,14,-225,-207,-188
-133,-167,-30,147,-47,-102,170,86,14,-213,-213,-188
-127,-167,-36,147,-41,-102,170,80,14,-207,-213,-188
-127,-167,-36,147,-41,-102,170,74,20,-201,-219,-188
-127,-167,-36,147,-41,-102,164,68,20,-201,-219,-188
-133,-167,-30,147,-47,-102,158,68,20,-201,-213,-182
-133,-167,-30,147,-47,-102,152,62,20,-201,-213,-182
-139,-167,-24,153,-53,-96,146,56,20,-195,-207,-176
-139,-167,-24,153,-53,-96,140,50,20,-195,-207,-176
-133,-167,-30,147,-47,-102,140,44,20,-195,-201,-176
-133,-167,-30,147,-47,-102,140,38,14,-195,-201,-176
-127,-161,-30,141,-47,-96,128,32,14,-189,-201,-170
-127,-161,-30,141,-47,-96,128,26,9,-189,-201,-170
-127,-161,-30,141,-47,-96,140,26,14,-189,-201,-170
-127,-167,-36,147,-41,-102,140,20,3,-189,-201,-170
-127,-167,-36,147,-41,-102,146,14,3,-189,-201,-170
-127,-167,-36,147,-41,-102,134,14,9,-195,-201,-176
-127,-167,-36,147,-41,-102,128,14,3,-195,-201,-176
-127,-167,-36,147,-41,-102,128,14,-3,-195,-201,-176
-127,-167,-36,147,-41,-102,122,9,-9,-195,-201,-176
-127,-167,-36,147,-41,-102,122,9,-15,-195,-201,-176
-127,-173,-42,147,-41,-108,122,-3,-15,-201,-201,-176
-127,-173,-42,147,-41,-108,122,-9,-21,-201,-201,-176
-127,-179,-48,153,-35,-114,122,-15,-27,-201,-201,-176
-127,-185,-54,153,-35,-120,116,-21,-27,-201,-201,-176
-127,-179,-48,153,-35,-114,116,-27,-33,-201,-207,-170
-127,-179,-48,153,-35,-114,116,-27,-39,-201,-207,-170
-127,-173,-42,147,-41,-108,104,-33,-39,-207,-213,-164
-127,-173,-42,147,-41,-108,104,-39,-39,-207,-213,-164
-127,-173,-42,147,-41,-108,104,-39,-45,-213,-213,-170
-127,-173,-42,147,-41,-108,104,-39,-51,-213,-219,-170
-127,-173,-42,147,-41,-108,104,-39,-57,-213,-219,-176
-127,-173,-42,147,-41,-108,104,-39,-57,-213,-219,-176
-127,-173,-42,147,-41,-108,104,-39,-57,-207,-219,-176
-127,-173,-42,147,-41,-108,104,-39,-57,-213,-219,-170
-127,-173,-42,147,-41,-108,104,-39,-51,-207,-219,-170
-127,-161,-30,141,-47,-96,104,-33,-51,-201,-213,-170
-127,-155,-24,141,-47,-90,122,-27,-45,-201,-201,-158
-127,-137,-7,129,-59,-72,128,-21,-33,-189,-195,-158
-127,-131,-7,129,-59,-66,146,-9,-21,-189,-195,-146
-127,-119,-1,123,-65,-54,158,3,-9,-183,-189,-140
-133,-101,23,117,-83,-36,176,9,-3,-171,-177,-134
-133,-83,41,105,-89,-18,188,14,3,-159,-165,-128
-139,-71,59,105,-101,-7,200,14,9,-147,-159,-122
-139,-71,59,105,-101,-7,200,14,14,-147,-159,-122
-145,-71,65,105,-107,-7,206,14,14,-141,-153,-116
-145,-65,71,105,-113,-7,218,20,14,-141,-147,-104
-139,-47,83,93,-113,11,224,32,20,-135,-141,-92
-139,-35,95,87,-119,23,224,38,26,-129,-141,-86
-133,-23,101,75,-119,29,230,50,32,-123,-123,-86
-121,-6,113,57,-119,47,236,62,44,-105,-117,-80
-109,18,131,39,-119,71,236,62,56,-93,-93,-68
-103,42,149,21,-125,95,236,68,74,-75,-75,-56
-97,66,167,9,-131,113,224,62,74,-63,-69,-44
-91,90,185,3,-137,137,194,44,74,-57,-57,-26
-85,102,191,-2,-137,143,170,20,74,-57,-63,-14
-79,126,209,-14,-143,167,152,14,74,-51,-51,-8
-85,144,233,-20,-161,185,152,14,62,-57,-45,4
-85,150,233,-26,-161,191,128,3,50,-57,-45,4
-85,156,239,-26,-167,197,98,-27,32,-69,-45,4
-85,162,245,-32,-167,203,68,-51,20,-69,-45,4
-79,168,245,-38,-167,209,62,-63,20,-63,-45,10
-79,168,245,-38,-167,209,50,-69,14,-63,-45,10
-61,168,233,-44,-149,197,32,-81,9,-69,-51,4
-55,156,215,-44,-137,185,20,-93,-3,-75,-51,4
-55,138,197,-32,-125,167,20,-105,-9,-93,-63,-2
-55,120,179,-26,-119,149,20,-105,-21,-99,-69,-8
-55,96,155,-14,-107,125,20,-105,-15,-99,-75,-14
-55,66,125,3,-89,95,20,-105,-15,-111,-81,-20
-55,42,101,3,-77,71,26,-81,-15,-111,-87,-38
-61,-6,59,27,-59,23,26,-93,-39,-135,-117,-62
-67,-23,35,45,-53,-1,20,-111,-63,-159,-153,-86
-91,-59,23,75,-59,-12,32,-105,-75,-177,-189,-110
-127,-59,59,93,-95,-7,44,-105,-57,-183,-189,-122
-139,-77,53,105,-101,-7,74,-93,-57,-189,-195,-128
-133,-95,29,111,-83,-30,92,-75,-51,-189,-195,-128
-145,-101,35,123,-95,-30,104,-57,-39,-177,-195,-128
-145,-119,17,129,-83,-48,116,-51,-39,-177,-201,-128
-133,-119,5,123,-71,-54,146,-39,-27,-177,-201,-134
-133,-137,-7,135,-65,-72,176,-27,-27,-177,-201,-140
-133,-149,-12,141,-59,-84,194,-15,-21,-177,-201,-146
-127,-143,-12,135,-53,-78,212,9,-3,-165,-201,-146
-127,-143,-12,135,-53,-78,266,38,14,-165,-201,-152
-139,-149,-7,141,-65,-78,368,92,26,-153,-201,-152
-139,-155,-12,147,-59,-84,506,152,32,-165,-213,-158
-151,-173,-18,159,-65,-96,602,194,44,-177,-225,-164
-139,-185,-42,159,-47,-114,632,212,44,-177,-219,-170
-139,-185,-42,159,-47,-114,662,248,50,-165,-219,-182
-139,-185,-42,159,-47,-114,680,290,80,-165,-219,-170
-121,-185,-60,153,-29,-126,680,374,110,-153,-219,-164
-97,-167,-66,129,-11,-120,620,482,152,-141,-213,-164
-61,-113,-48,87,-5,-84,500,572,200,-99,-189,-152
-2,-41,-42,15,12,-42,320,662,266,-51,-147,-134
40,30,-7,-32,24,5,98,710,326,-3,-99,-98
76,78,-7,-74,36,35,-111,704,356,8,-81,-74
106,126,11,-116,42,71,-291,716,374,32,-57,-50
148,180,23,-164,54,101,-471,734,410,68,-28,-20
184,210,17,-194,78,113,-651,752,416,86,-22,4
202,216,5,-206,90,113,-795,746,410,86,-16,-2
226,222,-7,-224,114,107,-885,740,410,86,-22,4
238,240,-1,-236,114,125,-951,716,416,98,2,21
262,264,-7,-260,132,131,-993,674,440,146,38,33
298,240,-54,-266,180,89,-1065,554,440,182,56,39
328,234,-96,-278,216,65,-1131,398,446,188,74,45
352,270,-78,-308,216,95,-1149,308,494,254,104,75
376,336,-36,-356,210,149,-1167,200,542,338,164,123
394,396,-7,-392,198,197,-1215,20,584,422,230,183
406,438,23,-422,186,233,-1263,-135,614,470,278,231
436,468,23,-452,204,245,-1323,-285,620,518,314,261
484,468,-12,-476,246,227,-1383,-399,668,566,344,279
568,480,-90,-518,330,191,-1461,-471,752,674,404,321
676,492,-180,-584,426,155,-1623,-717,764,788,506,393
796,510,-282,-656,540,113,-1863,-1197,632,920,638,501
934,588,-342,-758,636,119,-2091,-1647,542,1088,800,627
1090,696,-396,-890,738,149,-2307,-1923,554,1298,992,765
1252,792,-462,-1022,858,167,-2576,-2253,494,1490,1208,951
1408,948,-462,-1178,936,239,-2840,-2744,308,1706,1466,1191
1528,1140,-390,-1334,960,371,-3080,-3284,98,1982,1778,1455
1654,1356,-294,-1502,972,527,-3362,-3842,-117,2293,2131,1749
1768,1590,-180,-1682,972,707,-3590,-4220,-261,2664,2502,2067
1846,1836,-7,-1838,930,911,-3722,-4418,-333,3042,2898,2378
1882,2105,221,-1988,828,1163,-3794,-4580,-357,3450,3300,2689
1864,2369,497,-2114,678,1439,-3812,-4724,-387,3876,3702,2983
1768,2560,785,-2168,486,1679,-3722,-4748,-411,4290,4056,3223
1630,2464,833,-2048,396,1655,-3434,-4436,-279,4716,4290,3271
1450,2016,563,-1730,438,1289,-2942,-3752,128,5141,4350,3085
1270,1620,341,-1448,462,977,-2444,-3086,506,5381,4302,2863
1120,1452,323,-1280,396,887,-2127,-2666,596,5315,4164,2701
1006,1296,281,-1154,360,791,-1851,-2331,512,4847,3864,2497
874,996,119,-938,372,557,-1527,-1929,344,4008,3312,2168
712,702,-7,-704,360,341,-1203,-1557,110,3060,2658,1743
526,492,-30,-506,276,233,-909,-1221,-63,2227,2059,1353
352,258,-90,-302,222,83,-615,-891,-153,1412,1376,915
196,0,-192,-98,192,-90,-339,-537,-129,638,602,393
82,-149,-240,27,156,-192,-141,-249,-15,248,98,21
22,-143,-174,51,96,-156,-45,-129,38,188,26,-14
4,-107,-120,45,60,-114,9,-69,56,200,98,21
-2,-131,-126,63,54,-132,50,3,104,206,86,21
-43,-155,-108,99,24,-132,134,86,152,182,50,-14
-67,-173,-102,117,6,-138,200,146,170,128,2,-38
-97,-203,-102,147,0,-156,230,182,176,74,-45,-86
-127,-215,-84,171,-17,-150,266,242,188,14,-111,-122
-127,-233,-102,177,-11,-168,302,290,194,-21,-159,-158
-133,-239,-102,183,-11,-174,332,326,182,-75,-195,-188
-133,-245,-108,189,-11,-180,332,356,176,-129,-219,-212
-133,-245,-114,189,-5,-186,344,362,164,-165,-237,-218
-139,-257,-120,201,-5,-192,344,368,146,-195,-249,-218
-139,-257,-120,201,-5,-192,356,380,140,-219,-261,-218
-145,-269,-126,207,-5,-204,368,386,140,-225,-267,-218
-157,-275,-120,219,-17,-204,386,398,140,-225,-267,-224
-163,-269,-108,219,-23,-192,404,422,146,-225,-285,-236
-169,-269,-102,219,-29,-192,422,440,140,-231,-297,-242
-169,-263,-96,219,-35,-186,434,476,146,-237,-309,-254
-169,-263,-96,219,-35,-186,446,500,146,-237,-315,-260
-169,-263,-96,219,-35,-186,446,500,152,-243,-321,-260
-175,-263,-90,219,-41,-180,452,506,152,-249,-321,-260
-175,-263,-90,219,-41,-180,452,512,152,-249,-327,-260
-169,-257,-90,213,-35,-180,452,512,152,-249,-327,-260
-169,-257,-90,213,-35,-180,458,524,152,-249,-327,-260
-169,-257,-90,213,-35,-180,458,530,152,-249,-327,-254
-169,-245,-78,207,-41,-168,464,554,164,-249,-333,-254
-169,-245,-78,207,-41,-168,476,566,176,-249,-327,-254
-169,-251,-84,213,-41,-174,500,590,194,-243,-327,-248
-169,-245,-72,207,-47,-162,500,608,206,-237,-327,-248
-169,-245,-72,207,-47,-162,506,632,230,-237,-321,-236
-169,-245,-72,207,-47,-162,512,650,248,-237,-315,-236
-169,-239,-66,201,-47,-156,518,650,254,-237,-309,-236
-169,-233,-60,201,-53,-150,524,662,272,-231,-309,-224
-169,-227,-54,195,-53,-144,536,662,284,-225,-303,-224
-169,-221,-48,195,-59,-138,542,674,296,-219,-297,-230
-163,-215,-48,189,-53,-132,542,698,302,-213,-297,-230
-163,-209,-42,183,-59,-126,554,728,326,-213,-297,-224
-163,-197,-30,177,-65,-114,560,752,332,-207,-291,-224
-163,-191,-24,177,-65,-108,572,776,350,-201,-279,-218
-163,-185,-18,171,-71,-102,596,794,368,-195,-279,-224
-163,-185,-18,171,-71,-102,602,806,374,-189,-273,-218
-163,-179,-12,171,-71,-96,620,818,386,-183,-267,-224
-163,-173,-7,165,-77,-90,632,818,386,-183,-267,-224
-163,-167,-7,165,-77,-84,638,830,392,-177,-267,-218
-163,-161,-7,159,-83,-78,644,854,392,-171,-267,-218
-163,-155,-1,159,-83,-72,656,884,398,-165,-261,-212
-163,-149,5,153,-89,-66,668,914,404,-159,-255,-212
-163,-149,5,153,-89,-66,692,932,416,-153,-249,-212
-163,-143,11,153,-89,-60,704,962,422,-153,-249,-212
-163,-149,5,153,-89,-66,734,986,428,-153,-249,-212
-163,-143,11,153,-89,-60,740,986,428,-153,-243,-206
-163,-137,17,147,-95,-54,752,998,422,-147,-243,-212
-163,-131,23,147,-95,-48,758,998,422,-147,-237,-212
-163,-125,29,141,-101,-42,776,1004,416,-147,-237,-218
-169,-125,35,147,-107,-42,794,1022,416,-141,-237,-218
-169,-119,41,141,-107,-36,800,1034,416,-141,-231,-212
-169,-113,47,141,-113,-30,812,1046,410,-141,-231,-212
-169,-107,53,135,-113,-24,818,1064,404,-147,-231,-206
-169,-101,59,135,-119,-18,836,1076,398,-147,-231,-200
-181,-107,65,141,-125,-18,854,1082,392,-159,-231,-194
-181,-101,71,141,-131,-12,866,1082,386,-165,-237,-194
-187,-107,71,147,-131,-12,872,1076,368,-171,-237,-194
-187,-107,71,147,-131,-12,878,1064,356,-189,-243,-200
-193,-107,77,147,-137,-12,884,1070,332,-201,-243,-206
-193,-101,83,147,-143,-7,890,1058,314,-219,-243,-206
-193,-101,83,147,-143,-7,890,1058,290,-243,-243,-212
-193,-101,83,147,-143,-7,890,1034,266,-267,-249,-212
-199,-107,83,153,-143,-7,890,1022,248,-279,-261,-212
-199,-107,83,153,-143,-7,890,1004,212,-297,-267,-218
-199,-113,77,153,-143,-12,890,980,188,-309,-273,-224
-205,-113,83,159,-149,-12,884,950,158,-327,-291,-224
-205,-113,83,159,-149,-12,878,926,116,-357,-297,-230
-205,-119,77,159,-143,-18,866,896,74,-381,-315,-236
-205,-119,77,159,-143,-18,854,866,26,-405,-321,-242
-205,-125,71,165,-143,-24,830,830,-3,-441,-333,-242
-205,-125,71,165,-143,-24,800,788,-45,-465,-345,-248
-205,-131,65,165,-137,-30,776,752,-93,-489,-357,-254
-211,-137,65,171,-143,-30,752,722,-135,-519,-369,-254
-211,-143,59,177,-137,-36,728,674,-183,-549,-381,-260
-205,-149,47,177,-131,-48,704,626,-225,-579,-399,-266
-205,-155,41,177,-125,-54,680,578,-273,-609,-411,-272
-205,-155,41,177,-125,-54,650,518,-321,-639,-429,-278
-205,-161,35,183,-125,-60,620,476,-381,-669,-441,-278
-205,-173,23,189,-119,-72,590,422,-417,-705,-447,-284
-205,-179,17,189,-113,-78,548,368,-471,-735,-459,-290
-199,-185,5,189,-107,-84,512,314,-519,-765,-465,-290
-199,-191,-1,195,-101,-90,482,260,-567,-795,-483,-296
-193,-191,-7,189,-95,-96,452,212,-597,-819,-483,-296
-187,-197,-7,189,-89,-102,428,152,-633,-837,-495,-296
-181,-203,-18,189,-77,-114,398,104,-675,-849,-501,-296
-181,-203,-18,189,-77,-114,374,50,-717,-867,-501,-296
-181,-209,-24,195,-77,-120,344,14,-735,-885,-513,-296
-181,-209,-24,195,-77,-120,314,-27,-759,-897,-513,-296
-181,-209,-24,195,-77,-120,284,-57,-789,-909,-513,-284
-175,-209,-30,189,-71,-120,260,-93,-801,-921,-513,-284
-175,-209,-30,189,-71,-120,242,-117,-807,-921,-507,-272
-175,-209,-30,189,-71,-120,218,-147,-813,-921,-507,-272
-169,-209,-36,189,-65,-126,206,-165,-819,-915,-495,-266
-169,-209,-36,189,-65,-126,188,-183,-819,-915,-483,-260
-163,-209,-42,183,-59,-126,188,-189,-807,-897,-477,-254
-157,-209,-48,183,-53,-132,176,-195,-783,-873,-471,-248
-151,-209,-54,177,-47,-132,182,-189,-753,-843,-459,-242
-151,-203,-48,177,-47,-126,182,-189,-717,-813,-453,-236
-151,-203,-48,177,-47,-126,164,-189,-669,-777,-435,-230
-145,-203,-54,171,-41,-132,158,-183,-615,-735,-423,-224
-145,-203,-54,171,-41,-132,146,-171,-573,-711,-405,-218
-139,-203,-60,171,-35,-132,140,-159,-531,-687,-393,-212
-139,-197,-54,165,-41,-126,146,-135,-489,-651,-381,-212
-139,-197,-54,165,-41,-126,146,-111,-453,-621,-369,-206
-139,-191,-48,165,-41,-120,152,-81,-417,-585,-357,-206
-139,-185,-42,159,-47,-114,152,-63,-375,-549,-345,-206
-139,-185,-42,159,-47,-114,152,-45,-333,-519,-327,-206
-139,-185,-42,159,-47,-114,158,-27,-291,-483,-315,-200
-133,-185,-48,159,-41,-120,158,-9,-255,-453,-309,-200
-133,-185,-48,159,-41,-120,164,-3,-219,-417,-297,-200
-133,-185,-48,159,-41,-120,176,9,-177,-381,-297,-200
-133,-185,-48,159,-41,-120,176,14,-135,-357,-285,-194
-133,-191,-54,159,-35,-126,182,32,-105,-339,-279,-188
-133,-191,-54,159,-35,-126,182,38,-81,-315,-273,-188
-133,-191,-54,159,-35,-126,176,44,-69,-303,-267,-194
-133,-191,-54,159,-35,-126,182,62,-45,-285,-261,-194
-133,-185,-48,159,-41,-120,176,68,-27,-267,-255,-200
-133,-185,-48,159,-41,-120,176,68,-3,-249,-249,-200
-127,-179,-48,153,-35,-114,176,74,14,-231,-249,-200
-127,-179,-48,153,-35,-114,176,74,20,-213,-243,-200
-121,-173,-48,147,-35,-114,170,74,32,-207,-243,-200
-121,-173,-48,147,-35,-114,170,74,44,-195,-243,-200
-115,-167,-48,141,-29,-108,170,74,50,-201,-237,-194
-115,-167,-48,141,-29,-108,170,74,56,-195,-237,-194
-121,-167,-42,141,-35,-108,170,68,50,-201,-237,-188
-121,-167,-42,141,-35,-108,170,74,50,-201,-231,-188
-127,-167,-36,147,-41,-102,164,68,50,-189,-231,-188
-121,-167,-42,141,-35,-108,164,62,50,-183,-231,-188
-127,-167,-36,147,-41,-102,158,50,56,-177,-231,-188
-127,-167,-36,147,-41,-102,152,44,56,-177,-231,-188
-127,-167,-36,147,-41,-102,158,44,50,-177,-231,-188
-127,-167,-36,147,-41,-102,152,38,50,-177,-231,-188
-127,-167,-36,147,-41,-102,158,32,44,-171,-231,-188
-127,-167,-36,147,-41,-102,152,26,44,-171,-231,-188
-127,-173,-42,147,-41,-108,152,26,44,-177,-225,-188
-127,-173,-42,147,-41,-108,152,20,32,-177,-225,-188
-127,-173,-42,147,-41,-108,140,20,26,-177,-225,-182
-127,-173,-42,147,-41,-108,140,14,20,-177,-225,-182
-115,-173,-54,141,-29,-114,140,14,14,-177,-237,-182
-115,-167,-48,141,-29,-108,140,9,14,-177,-225,-182
-127,-167,-36,147,-41,-102,134,3,14,-177,-225,-182
-127,-167,-36,147,-41,-102,134,-3,14,-171,-225,-176
-127,-173,-42,147,-41,-108,128,-9,14,-171,-225,-176
-127,-173,-42,147,-41,-108,128,-9,14,-171,-225,-176
-127,-179,-48,153,-35,-114,122,-15,9,-171,-225,-176
-127,-179,-48,153,-35,-114,122,-15,9,-171,-225,-176
-127,-179,-48,153,-35,-114,122,-21,9,-177,-225,-176
-127,-179,-48,153,-35,-114,122,-27,3,-177,-225,-176
-127,-179,-48,153,-35,-114,122,-27,-3,-177,-225,-176
-127,-185,-54,153,-35,-120,116,-33,-3,-177,-225,-176
-127,-185,-54,153,-35,-120,116,-39,-9,-183,-225,-182
-127,-185,-54,153,-35,-120,116,-39,-15,-189,-225,-182
-127,-185,-54,153,-35,-120,104,-45,-15,-201,-225,-188
-127,-185,-54,153,-35,-120,104,-51,-15,-207,-225,-188
-127,-185,-54,153,-35,-120,104,-57,-21,-207,-231,-188
-127,-185,-54,153,-35,-120,104,-57,-27,-207,-237,-188
-127,-185,-54,153,-35,-120,104,-63,-33,-201,-243,-188
-127,-185,-54,153,-35,-120,104,-63,-33,-201,-243,-188
-127,-179,-48,153,-35,-114,104,-63,-33,-201,-243,-188
-127,-179,-48,153,-35,-114,104,-63,-33,-207,-243,-182
-127,-173,-42,147,-41,-108,104,-63,-27,-207,-243,-182
-127,-161,-30,141,-47,-96,104,-57,-27,-201,-237,-182
-121,-155,-30,135,-41,-96,116,-51,-21,-189,-219,-170
-121,-137,-12,129,-53,-78,122,-45,-9,-177,-213,-170
-115,-131,-12,123,-47,-72,134,-33,3,-165,-207,-158
-115,-119,-7,117,-53,-60,146,-21,14,-159,-201,-152
-121,-113,-1,117,-65,-54,164,-9,14,-159,-195,-146
-121,-95,17,105,-71,-36,176,3,14,-147,-183,-140
-127,-95,23,111,-77,-30,188,3,14,-147,-183,-134
-127,-95,23,111,-77,-30,188,3,14,-147,-183,-134
-133,-95,29,111,-83,-30,194,9,20,-135,-183,-134
-133,-89,35,111,-89,-24,206,14,26,-135,-177,-122
-127,-71,47,99,-89,-7,212,14,32,-123,-177,-116
-127,-59,59,93,-95,-7,212,14,38,-117,-177,-110
-127,-47,71,87,-101,5,224,26,44,-117,-159,-104
-115,-23,83,69,-101,23,230,38,56,-99,-153,-98
-109,-6,107,51,-107,47,236,38,68,-93,-129,-80
-103,18,125,33,-113,71,236,44,86,-75,-111,-68
-97,42,143,21,-119,89,230,44,86,-63,-99,-62
-91,66,161,3,-125,113,200,26,86,-57,-87,-44
-85,78,167,3,-125,119,182,14,86,-57,-87,-38
-79,102,185,-2,-131,143,164,9,86,-51,-75,-32
-79,126,209,-14,-143,167,164,9,86,-45,-63,-14
-79,132,215,-20,-149,173,140,-3,74,-45,-63,-14
-73,144,221,-26,-149,179,110,-27,68,-45,-57,-8
-73,150,227,-32,-149,185,80,-51,56,-45,-57,-8
-73,156,233,-32,-155,191,68,-63,56,-45,-51,4
-73,156,233,-32,-155,191,56,-69,50,-45,-51,4
-61,156,221,-38,-143,185,32,-81,32,-57,-51,4
-55,144,203,-38,-131,173,20,-93,20,-63,-51,4
-55,132,191,-32,-125,161,20,-105,14,-75,-63,-2
-55,120,179,-26,-119,149,20,-105,9,-81,-69,-8
-55,102,161,-14,-107,131,20,-105,9,-75,-75,-14
-55,78,137,-2,-95,107,20,-105,9,-87,-81,-20
-55,54,113,3,-83,83,26,-105,14,-99,-87,-38
-49,30,83,3,-65,53,26,-105,9,-111,-105,-50
-55,-11,35,33,-47,5,20,-123,-15,-135,-141,-86
-67,-47,11,57,-41,-12,20,-129,-39,-165,-165,-110
-103,-71,23,87,-65,-18,32,-129,-45,-171,-177,-122
-127,-77,41,99,-89,-12,50,-105,-45,-177,-195,-128
-133,-95,29,111,-83,-30,68,-99,-39,-177,-195,-140
-133,-113,11,123,-77,-48,92,-93,-27,-177,-195,-128
-133,-119,5,123,-71,-54,104,-75,-15,-165,-189,-140
-133,-131,-7,129,-65,-66,122,-51,-15,-165,-189,-146
-133,-137,-7,135,-65,-72,152,-39,-15,-177,-201,-152
-121,-149,-24,135,-47,-90,182,-39,3,-177,-201,-146
-115,-155,-36,135,-35,-96,200,-15,9,-165,-213,-158
-115,-155,-36,135,-35,-96,236,14,14,-165,-213,-164
-115,-161,-42,135,-35,-102,296,44,26,-165,-213,-164
-127,-167,-36,147,-41,-102,410,104,44,-153,-213,-170
-127,-173,-42,147,-41,-108,530,158,56,-165,-213,-176
-139,-185,-42,159,-47,-114,596,188,68,-165,-219,-182
-139,-185,-42,159,-47,-114,638,224,62,-165,-219,-194
-139,-185,-42,159,-47,-114,668,254,80,-165,-219,-194
-133,-185,-48,159,-41,-120,680,314,110,-153,-219,-200
-109,-179,-66,141,-17,-126,668,410,140,-141,-213,-188
-85,-161,-72,123,-5,-120,578,500,188,-123,-201,-176
-31,-113,-78,69,12,-96,416,602,248,-75,-171,-158
16,-29,-54,3,30,-42,218,674,302,-27,-135,-134
64,30,-30,-44,48,-7,-15,716,368,8,-93,-98
94,78,-12,-86,54,29,-231,716,386,32,-57,-74
124,132,-1,-128,54,65,-405,722,410,56,-33,-56
160,186,17,-170,66,101,-567,746,428,74,-22,-20
190,228,29,-206,72,131,-735,746,434,86,-16,-14
202,222,11,-212,90,119,-849,746,422,74,-22,-8
214,234,11,-224,96,125,-927,716,416,74,-10,-8
232,252,17,-236,102,137,-981,662,416,98,2,10
250,264,5,-254,120,137,-1053,590,452,146,32,21
292,240,-48,-266,174,95,-1119,446,446,176,50,33
340,246,-90,-290,216,77,-1173,296,446,212,80,39
352,288,-60,-320,210,113,-1191,212,488,266,128,75
370,336,-30,-350,204,149,-1203,80,536,350,188,123
382,390,-1,-386,186,197,-1239,-63,578,422,242,183
388,432,35,-410,174,233,-1263,-207,608,464,278,219
424,444,11,-434,204,233,-1323,-351,620,506,308,249
484,456,-30,-470,258,209,-1395,-453,686,578,356,273
580,474,-108,-524,342,179,-1479,-525,788,686,416,321
682,486,-192,-584,438,149,-1653,-819,758,800,518,393
802,504,-294,-656,546,101,-1893,-1305,590,950,662,501
940,588,-348,-758,642,119,-2085,-1689,518,1136,830,627
1090,714,-378,-902,732,167,-2307,-1959,536,1352,1022,771
1264,828,-438,-1046,852,197,-2582,-2325,452,1580,1280,981
1414,984,-426,-1202,918,275,-2858,-2828,254,1832,1580,1239
1534,1194,-342,-1364,942,425,-3116,-3386,26,2119,1922,1539
1642,1428,-216,-1532,930,605,-3380,-3902,-159,2484,2293,1857
1750,1686,-66,-1712,912,803,-3596,-4244,-285,2880,2700,2192
1822,1932,101,-1874,858,1013,-3722,-4436,-357,3288,3114,2509
1828,2201,371,-2012,726,1289,-3788,-4616,-411,3696,3504,2809
1780,2440,659,-2114,558,1553,-3782,-4736,-447,4116,3888,3097
1678,2560,881,-2120,396,1721,-3638,-4670,-447,4518,4218,3283
1504,2285,773,-1898,360,1529,-3248,-4208,-237,4943,4380,3235
1330,1794,461,-1562,432,1127,-2726,-3470,170,5327,4392,2989
1168,1482,311,-1322,426,899,-2313,-2912,434,5477,4332,2791
1054,1344,281,-1202,384,815,-2037,-2588,422,5267,4164,2653
934,1140,203,-1034,360,671,-1749,-2229,284,4662,3756,2414
790,828,29,-806,378,431,-1443,-1839,134,3774,3150,2037
646,576,-66,-608,354,251,-1119,-1479,-39,2886,2526,1623
460,378,-78,-416,264,149,-825,-1149,-165,2053,1892,1233
286,132,-156,-212,222,-7,-537,-783,-177,1178,1118,723
142,-101,-246,-14,192,-174,-267,-441,-87,464,368,213
46,-191,-246,63,144,-216,-105,-213,14,188,26,-26
16,-155,-180,63,96,-168,-39,-129,32,176,50,-14
-2,-143,-150,63,72,-144,15,-69,68,206,98,21
-19,-167,-144,93,54,-156,62,14,128,194,62,-2
-55,-173,-114,111,18,-144,140,86,170,176,26,-38
-85,-203,-114,141,6,-162,194,134,188,122,-22,-62
-103,-215,-108,159,0,-162,224,182,200,62,-75,-110
-115,-233,-114,171,0,-174,260,236,218,2,-135,-146
-121,-245,-126,183,0,-192,284,278,218,-39,-171,-176
-121,-251,-132,189,0,-198,308,308,212,-81,-207,-200
-121,-257,-138,189,0,-204,320,326,200,-129,-237,-218
-133,-269,-138,201,0,-210,320,338,176,-171,-255,-224
-133,-269,-138,201,0,-210,332,350,170,-195,-267,-224
-145,-281,-138,213,0,-216,344,362,164,-213,-273,-230
-157,-287,-132,225,-11,-216,362,374,164,-213,-273,-236
-169,-287,-120,231,-23,-210,386,392,170,-213,-285,-242
-175,-287,-114,231,-29,-204,404,410,170,-219,-297,-248
-181,-287,-108,237,-35,-204,422,440,176,-225,-297,-254
-181,-287,-108,237,-35,-204,434,464,182,-231,-303,-260
-175,-287,-114,231,-29,-204,428,476,182,-237,-309,-266
-181,-287,-108,237,-35,-204,434,482,182,-243,-315,-266
-175,-287,-114,231,-29,-204,428,494,176,-249,-321,-272
-169,-281,-114,225,-23,-204,428,494,176,-249,-327,-272
-169,-281,-114,225,-23,-204,434,500,176,-255,-321,-272
-169,-281,-114,225,-23,-204,434,500,176,-255,-321,-266
-169,-269,-102,219,-29,-192,440,518,188,-261,-321,-266
-169,-269,-102,219,-29,-192,452,530,200,-261,-315,-266
-169,-269,-102,219,-29,-192,476,548,212,-255,-315,-266
-169,-257,-90,213,-35,-180,476,566,224,-243,-315,-266
-169,-251,-84,213,-41,-174,488,584,242,-243,-309,-260
-169,-251,-84,213,-41,-174,494,602,254,-243,-303,-260
-169,-251,-84,213,-41,-174,494,608,266,-243,-297,-254
-169,-245,-78,207,-41,-168,500,620,284,-237,-297,-242
-169,-245,-78,207,-41,-168,506,626,296,-237,-291,-236
-169,-245,-72,207,-47,-162,506,638,308,-231,-285,-242
-163,-239,-72,201,-41,-156,512,656,320,-225,-285,-242
-163,-233,-66,195,-47,-150,524,686,344,-225,-285,-236
-163,-221,-54,189,-53,-138,536,710,356,-219,-279,-236
-163,-215,-48,189,-53,-132,548,734,374,-213,-267,-230
-157,-215,-54,183,-47,-138,566,758,398,-201,-273,-230
-157,-215,-54,183,-47,-138,572,776,404,-195,-267,-224
-151,-215,-60,183,-41,-138,584,800,422,-183,-267,-224
-151,-209,-54,177,-47,-132,596,806,422,-183,-267,-224
-151,-203,-48,177,-47,-126,608,812,428,-183,-267,-224
-151,-197,-42,171,-53,-120,614,830,428,-177,-261,-224
-151,-191,-36,171,-53,-114,632,854,434,-177,-249,-218
-151,-185,-30,165,-59,-108,644,878,440,-171,-243,-218
-151,-179,-24,165,-59,-102,656,896,452,-171,-243,-218
-151,-173,-18,159,-65,-96,668,926,458,-171,-243,-218
-151,-173,-18,159,-65,-96,686,950,464,-177,-249,-218
-151,-167,-12,159,-65,-90,692,956,464,-177,-243,-218
-157,-161,-7,159,-77,-84,710,974,464,-165,-249,-218
-157,-155,-7,153,-77,-78,722,974,464,-165,-243,-218
-163,-149,5,153,-89,-66,746,986,464,-159,-249,-218
-169,-149,11,159,-95,-66,758,998,464,-153,-249,-218
-169,-143,17,153,-95,-60,770,1016,470,-159,-243,-218
-169,-137,23,153,-101,-54,782,1028,464,-159,-243,-218
-169,-131,29,147,-101,-48,794,1052,464,-171,-243,-218
-169,-125,35,147,-107,-42,812,1064,458,-171,-243,-212
-175,-125,41,147,-113,-36,824,1076,452,-183,-237,-200
-175,-119,47,147,-113,-30,836,1076,446,-189,-243,-200
-175,-119,47,147,-113,-30,836,1076,428,-195,-237,-194
-175,-119,47,147,-113,-30,842,1064,416,-213,-243,-200
-181,-119,53,147,-119,-30,854,1070,392,-219,-255,-200
-181,-113,59,147,-125,-24,860,1058,374,-231,-255,-200
-181,-113,59,147,-125,-24,866,1058,350,-249,-267,-200
-181,-113,59,147,-125,-24,866,1034,326,-267,-267,-200
-187,-119,59,153,-125,-24,866,1034,302,-279,-273,-200
-187,-119,59,153,-125,-24,866,1016,272,-297,-273,-212
-187,-125,53,153,-125,-30,866,998,254,-309,-279,-218
-193,-125,59,159,-131,-30,860,974,230,-327,-291,-218
-193,-125,59,159,-131,-30,854,950,194,-363,-297,-224
-193,-131,53,159,-125,-36,842,920,152,-387,-315,-230
-193,-131,53,159,-125,-36,830,890,110,-417,-321,-242
-193,-137,47,165,-125,-42,806,854,68,-453,-333,-242
-193,-137,47,165,-125,-42,782,818,20,-483,-351,-254
-193,-143,41,165,-119,-48,758,788,-15,-507,-363,-260
-199,-149,41,171,-125,-48,740,758,-63,-543,-381,-266
-199,-155,35,177,-119,-54,716,722,-111,-573,-393,-272
-193,-161,23,177,-113,-66,698,686,-159,-609,-399,-272
-193,-167,17,177,-107,-72,674,638,-207,-639,-411,-278
-193,-167,17,177,-107,-72,650,590,-249,-675,-417,-278
-193,-173,11,183,-107,-78,620,542,-309,-705,-429,-278
-193,-179,5,183,-101,-84,584,488,-357,-741,-441,-284
-193,-185,-1,189,-101,-90,542,434,-417,-777,-453,-290
-187,-185,-7,183,-95,-90,506,374,-471,-813,-465,-290
-187,-191,-7,189,-89,-96,470,320,-519,-843,-483,-296
-187,-197,-7,189,-89,-102,446,272,-561,-879,-495,-302
-181,-203,-18,189,-77,-114,422,218,-597,-903,-507,-302
-181,-215,-30,195,-71,-126,398,176,-651,-927,-519,-308
-181,-215,-30,195,-71,-126,374,122,-693,-951,-519,-308
-181,-221,-36,201,-71,-132,344,68,-717,-969,-531,-308
-181,-221,-36,201,-71,-132,314,14,-747,-975,-531,-308
-181,-221,-36,201,-71,-132,284,-15,-783,-987,-537,-296
-175,-221,-42,195,-65,-132,260,-57,-801,-999,-531,-296
-169,-221,-48,195,-59,-138,242,-87,-813,-1011,-537,-290
-169,-221,-48,195,-59,-138,218,-117,-825,-1011,-537,-290
-157,-221,-60,189,-47,-144,206,-141,-837,-1017,-537,-290
-157,-221,-60,189,-47,-144,188,-159,-843,-1017,-525,-284
-163,-221,-54,189,-53,-138,182,-177,-837,-1005,-519,-278
-157,-221,-60,189,-47,-144,170,-183,-819,-981,-513,-272
-163,-221,-54,189,-53,-138,170,-189,-795,-963,-507,-266
-163,-215,-48,189,-53,-132,170,-189,-759,-933,-501,-260
-163,-215,-48,189,-53,-132,158,-189,-717,-897,-483,-260
-157,-215,-54,183,-47,-138,152,-183,-669,-855,-465,-254
-157,-215,-54,183,-47,-138,146,-171,-627,-825,-447,-248
-151,-215,-60,183,-41,-138,140,-159,-591,-801,-429,-242
-151,-209,-54,177,-47,-132,140,-147,-549,-765,-417,-230
-151,-209,-54,177,-47,-132,140,-123,-507,-729,-405,-224
-151,-203,-48,177,-47,-126,140,-105,-471,-699,-393,-218
-151,-197,-42,171,-53,-120,140,-87,-435,-657,-381,-218
-145,-197,-48,171,-47,-126,140,-75,-387,-621,-357,-212
-145,-197,-48,171,-47,-126,146,-57,-345,-579,-345,-206
-133,-197,-60,165,-35,-132,146,-45,-303,-537,-333,-200
-133,-197,-60,165,-35,-132,152,-39,-261,-495,-321,-200
-133,-191,-54,159,-35,-126,158,-27,-219,-459,-321,-200
-133,-191,-54,159,-35,-126,158,-15,-177,-435,-309,-194
-133,-191,-54,159,-35,-126,158,9,-141,-411,-303,-188
-133,-191,-54,159,-35,-126,158,14,-117,-387,-297,-188
-133,-191,-54,159,-35,-126,158,14,-93,-363,-297,-194
-133,-191,-54,159,-35,-126,164,32,-69,-345,-285,-194
-133,-185,-48,159,-41,-120,164,44,-39,-315,-285,-200
-133,-185,-48,159,-41,-120,164,44,-15,-297,-279,-200
-127,-185,-54,153,-35,-120,170,56,9,-273,-279,-200
-127,-185,-54,153,-35,-120,170,56,14,-255,-273,-200
-121,-185,-60,153,-29,-126,170,62,20,-249,-273,-200
-121,-185,-60,153,-29,-126,170,62,32,-237,-273,-200
-121,-185,-60,153,-29,-126,170,68,50,-237,-267,-200
-121,-185,-60,153,-29,-126,170,68,56,-225,-261,-200
-133,-191,-54,159,-35,-126,170,68,62,-219,-255,-200
-133,-191,-54,159,-35,-126,170,74,62,-213,-243,-200
-133,-191,-54,159,-35,-126,170,74,62,-207,-249,-200
-127,-191,-60,159,-29,-126,170,68,62,-201,-249,-200
-127,-191,-60,159,-29,-126,170,62,68,-201,-255,-200
-127,-191,-60,159,-29,-126,164,56,68,-201,-255,-200
-127,-191,-60,159,-29,-126,164,56,68,-207,-255,-200
-127,-191,-60,159,-29,-126,158,50,68,-207,-255,-200
-127,-191,-60,159,-29,-126,158,44,68,-207,-255,-200
-127,-191,-60,159,-29,-126,152,38,68,-207,-255,-200
-121,-191,-66,153,-23,-132,152,32,68,-207,-249,-194
-121,-191,-66,153,-23,-132,152,26,56,-207,-249,-194
-115,-185,-66,147,-23,-126,140,20,50,-201,-249,-182
-115,-185,-66,147,-23,-126,140,14,44,-201,-249,-182
-121,-185,-60,153,-29,-126,140,14,38,-201,-249,-182
-121,-191,-66,153,-23,-132,140,14,38,-201,-249,-182
-127,-191,-60,159,-29,-126,134,3,38,-201,-249,-182
-127,-191,-60,159,-29,-126,134,-3,32,-201,-249,-182
-115,-191,-72,153,-17,-132,134,-9,14,-201,-261,-194
-115,-191,-72,153,-17,-132,134,-15,14,-213,-261,-194
-115,-191,-72,153,-17,-132,122,-15,14,-207,-261,-188
-121,-191,-66,153,-23,-132,122,-21,14,-213,-261,-194
-121,-191,-66,153,-23,-132,122,-21,14,-213,-261,-194
-127,-191,-60,159,-29,-126,122,-27,9,-219,-261,-200
-127,-191,-60,159,-29,-126,122,-27,9,-219,-261,-200
-127,-191,-60,159,-29,-126,122,-39,9,-225,-261,-194
-127,-191,-60,159,-29,-126,122,-45,3,-225,-261,-194
-127,-191,-60,159,-29,-126,122,-51,-3,-225,-261,-188
-127,-197,-66,159,-29,-132,116,-57,-3,-225,-261,-188
-127,-197,-66,159,-29,-132,116,-63,-9,-225,-261,-188
-127,-197,-66,159,-29,-132,116,-63,-15,-225,-261,-188
-127,-197,-66,159,-29,-132,104,-69,-15,-231,-261,-188
-127,-197,-66,159,-29,-132,104,-75,-15,-231,-261,-188
-127,-203,-72,165,-23,-138,104,-75,-15,-231,-267,-188
-127,-203,-72,165,-23,-138,104,-75,-21,-231,-267,-188
-127,-209,-78,165,-23,-144,104,-75,-21,-225,-273,-188
-127,-209,-78,165,-23,-144,104,-75,-21,-225,-273,-188
-127,-209,-78,165,-23,-144,104,-75,-21,-225,-267,-188
-127,-209,-78,165,-23,-144,104,-75,-21,-231,-267,-182
-127,-209,-78,165,-23,-144,104,-75,-15,-231,-267,-182
-127,-197,-66,159,-29,-132,104,-69,-15,-225,-261,-182
-127,-191,-60,159,-29,-126,122,-57,-21,-225,-255,-170
-127,-173,-42,147,-41,-108,128,-51,-9,-213,-255,-170
-127,-167,-36,147,-41,-102,146,-33,-9,-213,-261,-158
-127,-155,-24,141,-47,-90,158,-21,3,-207,-261,-152
-127,-143,-12,135,-53,-78,170,-15,9,-207,-249,-146
-127,-125,-7,123,-65,-60,182,-9,14,-195,-237,-140
-127,-119,-1,123,-65,-54,188,-15,14,-195,-231,-134
-127,-119,-1,123,-65,-54,188,-21,14,-195,-231,-134
-133,-113,11,123,-77,-48,194,-15,20,-189,-231,-140
-133,-107,17,117,-77,-42,206,-9,26,-189,-225,-134
-127,-83,35,105,-83,-18,212,-3,32,-183,-225,-134
-127,-71,47,99,-89,-7,212,3,38,-177,-225,-134
-127,-59,59,93,-95,-7,218,14,44,-165,-207,-122
-115,-35,71,75,-95,11,224,20,56,-147,-201,-110
-109,-6,95,57,-107,35,224,26,68,-129,-177,-86
-103,6,113,39,-107,59,224,32,86,-111,-159,-68
-97,36,137,21,-119,83,218,32,92,-93,-147,-50
-91,60,155,9,-125,107,188,14,92,-87,-135,-32
-85,78,167,3,-125,119,170,9,98,-81,-135,-14
-79,102,185,-2,-131,143,152,-3,98,-75,-123,-8
-79,126,209,-14,-143,167,152,-9,92,-81,-117,-2
-79,132,215,-20,-149,173,128,-21,80,-81,-117,-2
-73,144,221,-26,-149,179,98,-51,68,-93,-117,-8
-73,150,227,-32,-149,185,68,-75,56,-93,-117,-8
-73,150,227,-32,-149,185,62,-81,56,-87,-105,4
-73,150,227,-32,-149,185,50,-87,50,-87,-105,4
-61,144,209,-32,-137,173,32,-93,32,-93,-99,4
-55,132,191,-32,-125,161,20,-105,20,-99,-99,4
-55,120,179,-26,-119,149,20,-111,14,-123,-111,-2
-55,108,167,-20,-113,137,20,-111,3,-129,-117,-8
-55,90,149,-8,-101,119,15,-105,-3,-135,-123,-14
-55,66,125,3,-89,95,20,-105,-3,-147,-129,-20
-55,42,101,3,-77,71,26,-93,9,-135,-147,-14
-61,-6,59,27,-59,23,26,-105,-3,-147,-165,-50
-79,-47,23,63,-53,-7,20,-123,-27,-183,-201,-74
-91,-83,-1,87,-47,-36,32,-129,-39,-201,-225,-98
-115,-95,11,105,-65,-36,44,-117,-45,-219,-237,-110
-139,-101,29,117,-89,-30,62,-117,-45,-225,-243,-128
-133,-119,5,123,-71,-54,80,-111,-51,-225,-255,-128
-133,-125,-1,129,-71,-60,92,-93,-39,-237,-255,-128
-133,-131,-7,129,-65,-66,104,-75,-39,-225,-249,-128
-145,-143,-7,141,-71,-72,122,-63,-27,-225,-249,-134
-145,-149,-7,147,-71,-78,164,-51,-27,-225,-261,-140
-145,-161,-12,153,-65,-90,182,-39,-21,-225,-261,-146
-139,-167,-24,153,-53,-96,200,-27,-15,-225,-261,-158
-127,-167,-36,147,-41,-102,236,3,9,-213,-261,-164
-127,-173,-42,147,-41,-108,308,32,14,-201,-261,-164
-139,-179,-36,159,-47,-108,434,92,32,-201,-261,-158
-139,-173,-30,153,-53,-102,554,146,32,-213,-267,-164
-127,-185,-54,153,-35,-120,620,176,32,-213,-267,-170
-139,-185,-42,159,-47,-114,662,212,38,-225,-273,-170
-151,-185,-30,165,-59,-108,704,254,56,-213,-273,-170
-133,-173,-36,153,-47,-108,728,314,74,-213,-273,-176
-109,-179,-66,141,-17,-126,704,398,104,-201,-267,-176
-85,-161,-72,123,-5,-120,626,494,152,-183,-261,-176
-43,-113,-66,75,0,-90,476,578,212,-159,-231,-158
-2,-41,-42,15,12,-42,254,638,266,-111,-195,-134
28,18,-7,-20,18,-1,-15,656,320,-75,-165,-98
58,66,-1,-62,24,35,-243,656,326,-51,-141,-62
88,120,23,-104,24,71,-429,662,338,-27,-117,-32
124,186,53,-152,30,119,-615,698,368,2,-93,-8
154,228,65,-188,36,149,-807,716,374,14,-75,-2
178,234,47,-206,60,143,-921,716,374,2,-69,4
202,240,35,-224,78,143,-1005,704,368,2,-69,4
220,276,53,-242,78,167,-1065,662,368,26,-45,10
238,288,41,-260,96,167,-1113,626,392,62,-28,21
268,252,-12,-260,144,119,-1155,524,398,92,-10,33
292,246,-42,-266,168,101,-1197,416,410,128,8,39
304,288,-12,-296,162,137,-1197,338,464,188,44,75
322,336,5,-326,156,173,-1203,248,512,254,92,123
322,378,47,-350,132,215,-1215,68,554,314,128,159
352,396,35,-374,156,221,-1239,-87,572,356,152,171
412,420,-1,-416,204,215,-1287,-225,608,404,182,201
484,432,-54,-458,270,185,-1371,-321,710,506,248,255
568,438,-132,-500,348,149,-1467,-459,788,638,344,309
670,432,-240,-548,456,95,-1593,-717,740,752,452,381
790,450,-342,-620,564,47,-1785,-1083,602,878,566,477
916,564,-348,-734,630,107,-1989,-1443,542,1100,758,615
1054,726,-330,-890,696,197,-2211,-1701,608,1412,1034,831
1252,876,-378,-1064,816,245,-2510,-2055,590,1718,1352,1095
1414,1056,-354,-1232,882,347,-2858,-2606,404,2030,1706,1395
1546,1308,-240,-1430,894,533,-3158,-3206,182,2424,2107,1737
1654,1602,-48,-1628,852,773,-3398,-3656,68,2898,2586,2114
1738,1872,125,-1802,804,995,-3596,-3974,-27,3372,3042,2449
1762,2129,359,-1946,702,1241,-3722,-4274,-219,3756,3450,2755
1720,2405,677,-2060,516,1541,-3764,-4478,-315,4164,3858,3055
1618,2608,983,-2114,312,1799,-3686,-4514,-291,4620,4218,3295
1456,2512,1055,-1982,198,1787,-3398,-4250,-153,5105,4476,3367
1282,2040,749,-1664,258,1397,-2918,-3626,140,5543,4560,3187
1156,1620,461,-1388,342,1037,-2468,-3014,392,5843,4548,2977
1060,1428,359,-1238,348,893,-2205,-2678,410,5861,4458,2839
964,1236,269,-1100,342,755,-1953,-2391,278,5465,4152,2641
826,930,95,-878,360,509,-1611,-1983,158,4698,3606,2282
688,654,-30,-668,360,305,-1263,-1569,62,3810,2952,1875
502,450,-54,-476,276,197,-933,-1245,-51,2850,2281,1461
316,216,-102,-260,210,53,-603,-903,-141,1736,1454,951
160,-23,-192,-62,174,-108,-315,-537,-93,734,566,393
58,-161,-228,45,138,-192,-129,-273,-15,218,50,45
10,-131,-150,51,78,-138,-57,-165,14,164,-10,21
4,-95,-108,39,54,-102,-27,-117,44,224,62,69
-2,-119,-114,57,48,-120,20,-33,80,230,50,45
-43,-167,-120,105,30,-144,74,38,128,194,14,21
-67,-197,-126,129,18,-162,140,86,146,152,-22,10
-85,-227,-138,153,18,-186,194,122,152,98,-69,-38
-103,-239,-132,171,6,-186,248,170,176,26,-123,-98
-103,-245,-138,171,6,-192,290,224,194,-21,-183,-134
-109,-245,-138,177,6,-198,308,254,194,-99,-243,-176
-121,-251,-132,189,0,-198,320,272,176,-165,-285,-200
-121,-257,-138,189,0,-204,308,290,152,-213,-315,-206
-133,-263,-132,201,0,-204,308,296,128,-237,-321,-212
-133,-263,-132,201,0,-204,320,308,122,-261,-333,-206
-145,-269,-126,207,-5,-204,332,314,116,-267,-333,-206
-157,-275,-120,219,-17,-204,350,326,116,-267,-333,-206
-157,-275,-120,219,-17,-204,368,338,122,-261,-345,-212
-163,-275,-114,219,-23,-198,386,356,116,-267,-357,-218
-157,-275,-120,219,-17,-204,398,380,122,-267,-357,-218
-157,-275,-120,219,-17,-204,410,404,122,-273,-363,-224
-157,-275,-120,219,-17,-204,416,416,122,-291,-369,-230
-163,-275,-114,219,-23,-198,422,422,122,-303,-369,-230
-163,-275,-114,219,-23,-198,428,434,116,-315,-375,-236
-157,-269,-114,213,-17,-198,428,434,116,-321,-375,-236
-157,-269,-114,213,-17,-198,428,434,110,-315,-363,-230
-157,-269,-114,213,-17,-198,428,440,110,-309,-363,-224
-157,-257,-102,207,-23,-186,428,452,116,-303,-357,-218
-157,-257,-102,207,-23,-186,440,464,128,-297,-351,-218
-157,-257,-102,207,-23,-186,458,482,146,-291,-351,-218
-157,-245,-90,201,-29,-174,458,500,158,-279,-351,-218
-157,-245,-84,201,-35,-168,464,512,182,-279,-345,-206
-157,-245,-84,201,-35,-168,470,530,200,-279,-339,-206
-157,-239,-78,195,-35,-162,470,536,206,-285,-339,-206
-157,-233,-72,195,-41,-156,476,548,224,-279,-339,-194
-157,-227,-66,189,-41,-150,482,554,230,-279,-339,-194
-157,-221,-60,189,-47,-144,488,566,242,-273,-333,-200
-145,-221,-72,183,-35,-150,494,578,254,-261,-333,-206
-145,-215,-66,177,-35,-144,506,608,278,-261,-333,-200
-139,-209,-66,171,-35,-138,512,626,296,-249,-327,-206
-139,-203,-60,171,-35,-132,524,650,314,-243,-315,-200
-139,-191,-48,165,-41,-120,536,674,326,-243,-315,-200
-139,-191,-48,165,-41,-120,536,692,332,-237,-309,-194
-139,-179,-36,159,-47,-108,542,710,338,-237,-303,-194
-139,-173,-30,153,-53,-102,548,716,338,-237,-303,-194
-139,-167,-24,153,-53,-96,560,722,350,-237,-303,-188
-139,-161,-18,147,-59,-90,566,740,350,-231,-297,-182
-139,-155,-12,147,-59,-84,584,758,362,-225,-291,-170
-139,-149,-7,141,-65,-78,596,782,368,-219,-285,-164
-139,-143,-7,141,-65,-72,614,800,380,-207,-273,-158
-139,-137,-7,135,-71,-66,626,830,386,-201,-273,-158
-139,-137,-7,135,-71,-66,650,854,392,-195,-267,-152
-139,-131,-1,135,-71,-60,656,860,392,-189,-267,-146
-145,-125,11,135,-83,-54,668,878,392,-183,-267,-152
-145,-119,17,129,-83,-48,680,884,392,-183,-261,-152
-151,-113,29,129,-95,-36,698,896,392,-183,-261,-158
-157,-113,35,135,-101,-36,716,920,392,-177,-261,-158
-157,-107,41,129,-101,-30,728,932,386,-183,-255,-158
-157,-101,47,129,-107,-24,740,944,380,-183,-255,-158
-157,-95,53,123,-107,-18,752,962,368,-195,-255,-158
-157,-89,59,123,-113,-12,764,974,362,-195,-255,-152
-157,-89,59,123,-113,-12,770,986,356,-213,-249,-146
-157,-83,65,117,-113,-7,782,986,350,-219,-255,-146
-151,-83,59,117,-107,-7,776,992,332,-231,-249,-146
-151,-83,59,117,-107,-7,782,986,320,-243,-255,-152
